 $NMID ID='MM_0lb_SNR800_19hz_g40_29.RAW', FMTDAT='(8E13.5)'
 TRAMP=1., VOLUME=1. $END
  3.09765E+05  3.77020E+02  3.37207E+05  2.49910E+05  8.45172E+04  3.37240E+05 -1.32178E+05  2.49792E+05
 -1.89443E+05  8.21672E+04 -1.10589E+05 -3.30797E+04  1.76988E+03 -5.04094E+04  5.37255E+04  3.80045E+02
  3.51646E+04  5.29392E+04 -1.70845E+04  7.44899E+04 -6.02642E+04  6.21680E+04 -8.24116E+04  3.12261E+04
 -7.91545E+04 -1.08935E+04 -5.58522E+04 -5.00371E+04 -1.48657E+04 -6.80186E+04  2.64152E+04 -4.46831E+04
  3.87334E+04  4.03341E+03  1.52997E+04  4.69361E+04 -3.39693E+04  4.58650E+04 -6.49387E+04 -4.64184E+02
 -5.15549E+04 -5.55871E+04 -6.00120E+03 -7.45282E+04  3.25215E+04 -5.25668E+04  4.56961E+04 -1.58810E+04
  4.10724E+04  1.11269E+04  3.02556E+04  2.41142E+04  1.57265E+04  2.80876E+04 -4.28045E+03  2.65236E+04
 -2.18273E+04  1.29022E+04 -1.93201E+04 -3.99358E+03  3.62607E+03 -7.75155E+03  2.08898E+04  1.05155E+04
  7.57387E+03  3.27176E+04 -2.97690E+04  3.35221E+04 -6.02124E+04  2.09022E+03 -5.49407E+04 -4.05933E+04
 -1.24225E+04 -6.00885E+04  3.73713E+04 -4.28637E+04  5.44452E+04 -1.72557E+03  3.09897E+04  3.01136E+04
 -6.52415E+03  3.20968E+04 -2.78140E+04  1.25490E+04 -2.66934E+04 -5.71900E+03 -1.37238E+04 -9.48922E+03
 -6.93633E+03 -1.09759E+04 -1.28388E+03 -1.60502E+04  6.50310E+03 -2.21770E+04  1.50854E+04 -1.39283E+04
  1.25167E+04  3.88412E+03 -5.70909E+03  1.31538E+04 -1.88707E+04 -1.93464E+03 -8.16939E+03 -2.94684E+04
  2.01302E+04 -3.94216E+04  4.39311E+04 -1.85074E+04  4.08476E+04  1.79884E+04  1.41428E+04  4.08054E+04
 -1.51191E+04  3.02971E+04 -2.28642E+04  8.54266E+02 -7.68658E+03 -2.56818E+04  2.04729E+04 -3.02394E+04
  3.68788E+04 -7.00263E+03  3.01870E+04  2.23867E+04  1.43041E+04  4.11311E+04 -7.81860E+03  4.38988E+04
 -2.74571E+04  2.87861E+04 -3.62051E+04  7.87974E+03 -3.70281E+04 -1.48123E+04 -2.06280E+04 -3.33682E+04
  6.82637E+03 -3.34093E+04  2.84923E+04 -1.24087E+04  2.64292E+04  1.07255E+04  2.67717E+03  1.75066E+04
 -1.29707E+04  7.19152E+03 -9.38821E+03 -7.81555E+03  6.04567E+03 -9.76218E+03  1.68841E+04  6.49142E+03
  1.19638E+04  2.14560E+04 -6.79744E+03  2.30654E+04 -2.10201E+04  8.47220E+03 -2.41764E+04 -7.00891E+03
 -1.58506E+04 -1.59490E+04 -5.08663E+03 -1.57145E+04  3.86119E+03 -1.36029E+04  1.15154E+04 -1.32960E+04
  1.99524E+04 -1.13467E+04  2.69758E+04  6.91907E+02  2.05354E+04  1.52751E+04  3.85655E+03  3.15553E+04
 -1.58202E+04  2.69197E+04 -2.54790E+04  9.09380E+03 -1.91219E+04 -1.05323E+04 -3.85773E+03 -1.41034E+04
  3.05087E+03 -4.19277E+03 -2.11905E+03  5.10843E+03 -1.20899E+04  5.35744E+03 -1.27378E+04 -4.17867E+03
 -8.34503E+03 -1.46435E+04  4.56398E+03 -1.82675E+04  1.17733E+04 -1.32777E+04  1.35679E+04 -1.28911E+03
  8.52631E+03  1.01175E+04 -9.92330E+02  1.46634E+04 -9.79769E+03  8.45152E+03 -1.44741E+04 -3.42144E+03
 -1.09085E+04 -1.33734E+04 -1.21990E+03 -1.79704E+04  8.43659E+03 -1.44606E+04  1.52285E+04 -7.02167E+03
  1.36467E+04  9.71226E+02  9.83751E+03  3.67220E+03  4.95328E+03  3.98985E+02  7.06193E+03 -1.22383E+03
  1.29915E+04  2.49804E+03  1.37321E+04  1.22025E+04  8.48581E+03  2.31412E+04 -3.10519E+03  2.51723E+04
 -1.50413E+04  1.87600E+04 -2.27003E+04  9.00574E+03 -2.30370E+04 -1.86281E+03 -1.98782E+04 -1.33331E+04
 -9.58626E+03 -1.88227E+04  6.08449E+03 -1.80194E+04  1.55301E+04 -1.00829E+04  1.47761E+04  3.03638E+03
  6.41965E+03  1.06583E+04 -6.66507E+03  9.90790E+03 -1.25889E+04  2.68764E+03 -9.71796E+03 -7.38683E+03
 -7.37408E+01 -1.18125E+04  5.90358E+03 -8.93395E+03  7.41388E+03 -1.23814E+03  1.20243E+03  4.47234E+03
 -5.40826E+03  1.16657E+03 -3.13928E+03 -4.19333E+03  8.82846E+02 -9.24831E+03  7.36139E+03 -9.15919E+03
  1.12873E+04 -4.07073E+03  1.06832E+04  2.91553E+03  9.16376E+03  8.85472E+03  4.55883E+03  1.29693E+04
 -1.59106E+03  1.44874E+04 -8.62792E+03  9.55119E+03 -1.01931E+04  2.92760E+03 -8.00512E+03 -1.66888E+03
 -4.33967E+03 -2.87701E+03 -5.27362E+02  1.47213E+03 -1.83718E+03  1.96121E+03 -3.32197E+03  3.33218E+03
 -7.53744E+03 -5.13980E+02 -8.23751E+03 -7.12427E+03 -3.20216E+03 -1.07284E+04  3.27542E+03 -7.97135E+03
  6.70484E+03 -3.64872E+03  5.18055E+03  1.59970E+03  5.84978E+02  2.74205E+03 -3.22140E+03  1.84795E+02
 -3.17087E+03 -4.67155E+03 -8.01516E+02 -6.47261E+03  3.54531E+03 -7.26467E+03  9.18157E+03 -3.63582E+03
  1.06026E+04  5.50153E+02  8.21557E+03  5.65086E+03  1.64869E+03  7.69853E+03 -4.83882E+03  7.91423E+03
 -6.50206E+03  2.61195E+03 -3.30855E+03 -8.75679E+02  1.11990E+03 -1.62150E+03  4.41665E+03 -1.05031E+03
  3.91358E+03  3.11462E+03  9.26295E+02  5.91377E+03 -3.85880E+03  6.12475E+03 -7.26871E+03  1.66048E+03
 -4.43939E+03 -3.45056E+03  3.39801E+02 -6.51398E+03  3.52929E+03 -3.08466E+03  3.09114E+03  6.79492E+02
  5.51192E+02  3.09869E+03 -3.50999E+03  4.30237E+03 -4.43136E+03  2.41130E+03 -3.89420E+03 -8.84704E+02
 -2.39933E+03 -5.18409E+03  1.08184E+03 -6.33637E+03  5.25905E+03 -4.39399E+03  5.59534E+03  8.46452E+02
  4.23079E+03  4.81603E+03  2.56316E+01  6.58020E+03 -4.76188E+03  3.96884E+03 -4.75939E+03 -2.61217E+02
 -5.47978E+03 -4.74540E+03 -1.40320E+03 -4.64272E+03  2.24334E+03 -4.41140E+03  2.92553E+03 -2.83906E+03
  2.43751E+03  1.98893E+02  1.98824E+02  1.31464E+03  7.57723E+02  7.25466E+00  1.18927E+02 -1.30285E+03
  3.27331E+03 -4.44541E+02  4.82561E+03  8.61319E+02  5.15010E+03  2.53382E+03  4.93272E+03  6.44376E+03
 -1.06363E+03  7.66465E+03 -6.94959E+03  5.68928E+03 -9.34202E+03  9.48941E+02 -7.05892E+03 -2.42189E+03
 -3.70282E+03 -6.26762E+03 -2.40223E+02 -4.55825E+03  1.92290E+03 -1.69406E+03  1.49954E+03 -1.88287E+03
  1.10314E+03 -1.15036E+03  2.02627E+03 -2.17991E+03  3.41259E+03 -1.18349E+03  3.39063E+03  4.12934E+02
  4.20147E+03  9.52811E+02  1.01725E+03  2.97775E+03 -1.33456E+03  2.45386E+03 -4.17520E+03  2.20758E+03
 -4.55190E+03 -1.04242E+03 -1.41895E+03 -2.97488E+03  5.35246E+02 -4.54829E+03  2.91274E+03 -4.80617E+03
  4.59281E+03 -3.21919E+03  5.88493E+03  6.46218E+00  4.40674E+03  3.53159E+03  1.04717E+03  5.79973E+03
 -1.89159E+03  5.28146E+03 -3.08674E+03  1.81879E+03 -1.52197E+03 -1.04736E+03 -3.65776E+02 -4.64550E+02
 -5.24188E+02  5.99145E+02 -8.56443E+02  1.77259E+03 -2.31983E+03  8.85815E+02 -3.77442E+03 -2.97064E+02
 -1.31095E+03 -3.76766E+03  5.58133E+02 -4.17277E+03  2.77690E+03 -4.01197E+03  3.34666E+03 -1.04264E+03
  3.72141E+03  2.02714E+03  1.71386E+03  2.98914E+03 -5.36898E+02  3.96603E+03 -2.15951E+03  2.37114E+03
 -3.49009E+03  4.80381E+02 -2.89906E+03 -2.19373E+03  1.08228E+02 -2.82573E+03  1.44283E+03 -2.25420E+03
  2.36199E+03 -1.13220E+03  1.40440E+03  1.88181E+02  5.22654E+02  1.32559E+03  8.95600E+02  3.96789E+02
  1.42320E+03  4.64328E+02  1.30924E+03  8.61270E+02  9.13958E+02  2.11876E+03  1.38413E+03  1.59396E+03
 -1.26623E+03  2.62690E+03 -2.21342E+03  3.78255E+03 -2.39721E+03  1.24389E+03 -3.74313E+03 -3.17504E+02
 -1.63906E+03 -3.10537E+03  8.52889E+02 -4.22726E+03  1.56838E+03 -2.38210E+03  2.80743E+03 -7.72275E+02
  2.33658E+03  1.55225E+03  9.09528E+01  2.11074E+03 -5.64491E+02  1.15902E+03 -9.99424E+02 -5.34457E+01
 -2.57491E+02 -1.57324E+03  9.49261E+02 -1.33635E+03  9.20131E+02 -1.00868E+03  1.19878E+03  3.28799E+02
  6.37689E+02  1.53769E+02  6.43134E+02 -5.27599E+02 -1.90242E+02  7.33499E+02  1.62012E+03  1.44456E+01
  1.50287E+01 -2.85134E+02  1.62916E+03  5.58647E+02 -3.97396E+01  2.07634E+03 -4.47035E+02  2.61643E+03
 -1.69700E+03  1.00706E+03 -1.89397E+03  2.31428E+02 -1.67308E+03 -6.39798E+02  1.27890E+02 -9.35819E+02
  5.60081E+02 -1.09924E+03  1.02199E+03 -6.05654E+02  4.35588E+02  1.29608E+03 -7.38554E+02  1.21348E+03
 -1.28842E+03  4.34849E+02 -1.02417E+03 -1.16654E+03 -8.29683E+02 -2.05155E+03  2.99519E+02 -1.29708E+03
  4.32416E+02 -3.74776E+02  6.56722E+02  2.14499E+02  1.18213E+03 -2.52059E+02  4.87817E+02  8.65387E+02
 -2.42205E+02  1.36550E+02 -7.26394E+02 -2.52640E+02  6.87215E+02 -6.94591E+02  1.36973E+03 -7.43260E+02
  1.15605E+03 -2.82263E+01  2.78566E+03  4.64703E+02  1.25095E+03  1.63854E+03 -1.47387E+02  1.83762E+03
 -1.54565E+03 -3.28156E+01 -1.29351E+03 -1.53592E+02 -8.27696E+02 -1.08623E+03  3.54748E+02 -4.25760E+02
  1.31980E+03 -8.95269E+02  6.81628E+02  4.56213E+02 -7.67551E+01  1.30773E+03  3.95130E+02  1.20618E+03
 -4.51920E+02  9.46726E+02 -3.01763E+02  3.06820E+02  3.88629E+02  2.09645E+02 -9.23515E+02  8.11860E+02
 -7.34708E+02  1.09096E+03 -1.79615E+03  4.42691E+02 -1.51093E+03  1.98385E+02 -2.03550E+03 -7.71253E+02
 -1.09044E+03 -2.00417E+03  5.89119E+02 -2.43998E+03  7.85830E+02 -2.70783E+03  2.50750E+03 -7.59447E+02
  2.04604E+03  5.42360E+01  1.14808E+03  1.13037E+03 -7.91161E+02  1.19332E+03 -4.72914E+02  1.16963E+03
 -7.20505E+02  7.76359E+02 -5.54538E+02 -4.25765E+02 -4.41558E+02  1.42874E+02 -4.27595E+02 -8.75177E+01
 -1.15201E+03 -2.97405E+02 -7.95321E+02  2.03769E+02  2.59394E+02 -5.42623E+02 -2.45524E+02 -9.08292E+02
  1.14261E+03 -4.56690E+02  3.29111E+02  2.42279E+02  1.14649E+03  8.69507E+02 -5.30081E+02  1.34722E+03
 -8.41166E+02  2.13985E+03 -1.56829E+03  9.44083E+02 -1.39774E+03 -1.57761E+02 -9.06429E+02 -1.12292E+03
 -9.09175E+02 -1.46281E+03  1.43166E+02 -8.41965E+02  5.10500E+02 -5.00584E+02  7.01169E+02  2.23892E+02
  5.97141E+02  1.83789E+02  1.79173E+02  4.79079E+02 -3.75738E+02  3.92115E+01 -1.47712E+02 -2.56433E+02
  6.82921E+02  3.31052E+02  1.23532E+02  4.84157E+02  1.44751E+02  2.79970E+02  2.94735E+02  2.85018E+02
 -4.24659E+02  6.11106E+02 -4.43019E+02  9.09042E+01 -7.57952E+02 -2.98893E+02  1.22169E+02 -1.15585E+03
  4.79511E+02 -5.64723E+02  5.38033E+02  9.45874E+01  5.81792E+02 -5.74157E+02  5.83108E+02  5.74016E+02
  2.12024E+02  6.25811E+02 -3.42973E+02  3.35946E+02 -4.62483E+02  3.81804E+02 -2.30677E+02  4.01132E+02
 -6.62536E+01 -6.71377E+01 -3.14747E+02  1.10785E+02 -5.44384E+02  2.04257E+02 -7.45768E+02 -5.00469E+02
 -7.13262E+02  2.16539E+02 -8.56968E+01 -9.11061E+02  4.13078E+02 -1.29182E+03  1.00408E+03 -3.27968E+02
  8.01869E+02 -1.36523E+02 -2.45230E+02  6.99645E+01 -1.71925E+00  7.03319E+02 -3.51551E+02  5.12229E+02
