 $NMID ID='MM_0lb_SNR800_12hz_g50_57.RAW', FMTDAT='(8E13.5)'
 TRAMP=1., VOLUME=1. $END
  3.09732E+05  4.45200E+02  3.38010E+05  2.50805E+05  8.48080E+04  3.38394E+05 -1.32314E+05  2.51529E+05
 -1.90610E+05  8.35292E+04 -1.12215E+05 -3.23838E+04  4.29968E+02 -5.04331E+04  5.39059E+04 -4.30570E+02
  3.54838E+04  5.28625E+04 -1.68352E+04  7.54280E+04 -6.09162E+04  6.37634E+04 -8.44886E+04  3.21506E+04
 -8.12539E+04 -1.15367E+04 -5.76909E+04 -5.17093E+04 -1.52022E+04 -7.05301E+04  2.79383E+04 -4.64517E+04
  4.02580E+04  3.97119E+03  1.61068E+04  4.82864E+04 -3.42856E+04  4.73195E+04 -6.71150E+04 -1.11944E+02
 -5.40187E+04 -5.72802E+04 -6.86597E+03 -7.75944E+04  3.40596E+04 -5.59268E+04  4.91297E+04 -1.76900E+04
  4.39447E+04  1.12687E+04  3.22123E+04  2.60797E+04  1.55993E+04  2.99648E+04 -5.60281E+03  2.76236E+04
 -2.20735E+04  1.22160E+04 -1.85862E+04 -4.55807E+03  6.30520E+03 -7.22420E+03  2.25964E+04  1.29387E+04
  6.97392E+03  3.62307E+04 -3.27474E+04  3.58391E+04 -6.44072E+04  2.31417E+03 -5.76500E+04 -4.34056E+04
 -1.26349E+04 -6.44150E+04  4.05964E+04 -4.62330E+04  5.96159E+04 -2.46611E+03  3.54721E+04  3.34121E+04
 -5.72759E+03  3.77679E+04 -3.06261E+04  1.72808E+04 -3.12997E+04 -4.10304E+03 -1.81994E+04 -1.16449E+04
 -8.80431E+03 -1.42643E+04 -5.87304E+02 -1.86509E+04  8.33146E+03 -2.34466E+04  1.56420E+04 -1.30812E+04
  1.08917E+04  5.50126E+03 -9.09493E+03  1.31307E+04 -2.17704E+04 -5.42387E+03 -8.10559E+03 -3.51745E+04
  2.38001E+04 -4.48454E+04  4.97547E+04 -1.99874E+04  4.62654E+04  2.01144E+04  1.61183E+04  4.51595E+04
 -1.64303E+04  3.48682E+04 -2.62876E+04  2.17828E+03 -1.05856E+04 -2.84573E+04  2.13385E+04 -3.49568E+04
  4.27438E+04 -9.91300E+03  3.75328E+04  2.43983E+04  1.90847E+04  4.81122E+04 -7.94115E+03  5.26366E+04
 -3.33432E+04  3.56225E+04 -4.43862E+04  9.95143E+03 -4.48515E+04 -1.76237E+04 -2.43802E+04 -3.97169E+04
  7.63211E+03 -3.95143E+04  3.27482E+04 -1.55988E+04  3.04391E+04  1.11366E+04  4.58519E+03  1.97717E+04
 -1.37250E+04  8.99945E+03 -1.05898E+04 -7.21665E+03  5.93573E+03 -1.11950E+04  1.86722E+04  5.67471E+03
  1.42241E+04  2.26403E+04 -5.55548E+03  2.56776E+04 -2.27945E+04  1.24168E+04 -2.96122E+04 -3.96755E+03
 -2.24824E+04 -1.74396E+04 -9.78675E+03 -2.24557E+04  3.99133E+03 -2.18604E+04  1.75520E+04 -2.04108E+04
  2.84437E+04 -1.35134E+04  3.46846E+04  3.75047E+03  2.53874E+04  2.16265E+04  4.38112E+03  3.80900E+04
 -1.86481E+04  3.15794E+04 -2.86966E+04  1.08475E+04 -2.13972E+04 -1.03514E+04 -4.71638E+03 -1.31131E+04
  1.32276E+03 -2.37016E+03 -6.11848E+03  7.69398E+03 -1.76332E+04  4.86325E+03 -1.80185E+04 -8.24748E+03
 -1.11794E+04 -2.03137E+04  5.46449E+03 -2.44999E+04  1.70617E+04 -1.76288E+04  1.99426E+04 -1.58873E+03
  1.23160E+04  1.43945E+04 -1.21754E+03  2.06442E+04 -1.43974E+04  1.18701E+04 -2.08056E+04 -4.27369E+03
 -1.53322E+04 -1.87039E+04 -2.32763E+03 -2.48754E+04  1.14723E+04 -2.04313E+04  2.06402E+04 -1.05614E+04
  1.96634E+04 -1.09454E+02  1.37829E+04  4.88148E+03  7.40944E+03  8.86970E+02  1.08240E+04 -1.74551E+03
  1.92407E+04  2.78432E+03  2.17993E+04  1.61753E+04  1.47008E+04  3.29782E+04 -2.54291E+03  3.81387E+04
 -2.21113E+04  3.11027E+04 -3.57575E+04  1.61676E+04 -3.79795E+04 -2.69388E+03 -3.09568E+04 -2.17452E+04
 -1.29710E+04 -3.15835E+04  1.10175E+04 -2.74521E+04  2.40379E+04 -1.38171E+04  2.09745E+04  6.41713E+03
  7.59995E+03  1.59553E+04 -9.95233E+03  1.37323E+04 -1.78855E+04  2.69089E+03 -1.35923E+04 -1.12756E+04
 -1.45114E+02 -1.67836E+04  8.77016E+03 -1.26389E+04  1.15161E+04 -1.52185E+03  2.78879E+03  7.39252E+03
 -7.81582E+03  3.30704E+03 -7.66565E+03 -6.23596E+03 -1.07529E+03 -1.51970E+04  1.06161E+04 -1.62970E+04
  1.92984E+04 -8.72080E+03  2.08998E+04  3.05544E+03  1.84679E+04  1.54188E+04  8.65156E+03  2.36751E+04
 -4.21861E+03  2.56130E+04 -1.65475E+04  1.61203E+04 -1.82006E+04  3.50809E+03 -1.29140E+04 -4.45148E+03
 -5.81962E+03 -5.97652E+03 -7.58056E+02  1.07402E+03 -2.50241E+03  2.65913E+03 -6.48332E+03  4.64466E+03
 -1.21586E+04 -5.33084E+02 -1.28234E+04 -1.01823E+04 -4.76196E+03 -1.64365E+04  5.37920E+03 -1.27641E+04
  1.07619E+04 -5.23651E+03  7.98496E+03  3.38944E+03  3.04459E+02  5.00242E+03 -6.58659E+03 -1.16282E+02
 -6.36571E+03 -8.27147E+03 -1.35041E+03 -1.24053E+04  7.18808E+03 -1.33668E+04  1.65954E+04 -7.00483E+03
  1.92039E+04  1.85704E+03  1.36071E+04  1.14484E+04  2.51854E+03  1.50103E+04 -7.89600E+03  1.26284E+04
 -1.03956E+04  3.74997E+03 -5.06869E+03 -2.47877E+03  1.74630E+03 -3.20508E+03  6.76323E+03 -9.78272E+02
  6.09632E+03  5.43935E+03  1.20097E+03  1.05496E+04 -7.21560E+03  9.97693E+03 -1.27138E+04  2.45625E+03
 -8.38629E+03 -6.55075E+03  1.49936E+02 -1.06798E+04  6.84127E+03 -5.50608E+03  6.97966E+03  2.71450E+03
  1.68735E+03  7.68343E+03 -6.69862E+03  8.84345E+03 -1.02336E+04  4.35334E+03 -1.05568E+04 -3.65910E+03
 -6.12303E+03 -1.18261E+04  2.97796E+03 -1.37678E+04  1.19468E+04 -8.28811E+03  1.26671E+04  2.59346E+03
  8.08299E+03  1.02186E+04 -9.52491E+02  1.25053E+04 -9.20260E+03  6.94289E+03 -1.01472E+04 -8.55336E+02
 -8.44131E+03 -8.63206E+03 -1.28184E+03 -9.40648E+03  4.63673E+03 -7.27191E+03  5.86721E+03 -2.81607E+03
  4.20722E+03  1.50287E+03 -1.14574E+03  1.54665E+03 -7.06403E+02 -2.32055E+03  1.74149E+03 -5.54901E+03
  8.47276E+03 -3.43803E+03  1.19409E+04  1.61625E+03  1.16024E+04  7.74834E+03  8.30745E+03  1.55142E+04
 -3.69807E+03  1.78491E+04 -1.51557E+04  1.29099E+04 -1.91406E+04  2.44188E+03 -1.57285E+04 -6.57615E+03
 -7.83949E+03 -1.27577E+04 -4.10567E+02 -1.05033E+04  4.07348E+03 -5.49682E+03  3.77691E+03 -4.32299E+03
  3.02120E+03 -2.27652E+03  3.49025E+03 -3.07972E+03  4.81406E+03 -2.67718E+03  6.26426E+03 -7.69783E+02
  8.42488E+03  2.20162E+03  4.26015E+03  7.02704E+03 -1.83200E+03  7.79847E+03 -8.46730E+03  6.06656E+03
 -1.05771E+04 -1.21797E+03 -6.33870E+03 -7.82116E+03 -4.94477E+02 -1.15010E+04  6.64700E+03 -1.13664E+04
  1.18857E+04 -6.52923E+03  1.43484E+04  2.20932E+03  9.79463E+03  9.76372E+03  1.35856E+03  1.26569E+04
 -5.29070E+03  1.03232E+04 -7.64345E+03  3.71650E+03 -5.07727E+03 -1.50891E+03 -1.74047E+03 -1.58860E+03
 -7.45066E+02  2.55001E+02 -1.80926E+03  2.45755E+03 -4.51572E+03  1.73962E+03 -7.53085E+03 -9.00210E+02
 -4.86689E+03 -7.55018E+03  6.73386E+02 -1.04183E+04  6.53362E+03 -9.86490E+03  9.84665E+03 -2.97298E+03
  1.00820E+04  5.21366E+03  4.40982E+03  8.80811E+03 -2.01102E+03  1.01623E+04 -7.03354E+03  6.47229E+03
 -9.95996E+03  3.19220E+02 -7.71109E+03 -6.66432E+03 -6.58493E+02 -8.52726E+03  4.21266E+03 -6.45019E+03
  6.91913E+03 -2.34280E+03  4.57830E+03  1.71897E+03  1.34758E+03  3.18286E+03  1.09577E+03  1.41052E+03
  2.26873E+03  9.01790E+02  3.08461E+03  1.57570E+03  2.83241E+03  3.89454E+03  2.97142E+03  5.25189E+03
 -1.90740E+03  7.77954E+03 -7.14254E+03  8.11344E+03 -9.87598E+03  2.35865E+03 -1.08754E+04 -3.73442E+03
 -4.95682E+03 -1.00207E+04  1.56605E+03 -1.12614E+04  5.89238E+03 -7.14279E+03  7.92361E+03 -2.28380E+03
  6.69814E+03  3.95387E+03  1.27035E+03  5.94686E+03 -2.61945E+03  3.71295E+03 -3.73160E+03 -1.43431E+02
 -1.97191E+03 -4.30761E+03  2.32257E+03 -4.24006E+03  3.87450E+03 -2.43220E+03  4.06481E+03  8.44293E+02
  2.30001E+03  1.89887E+03  9.90427E+02  1.48944E+03 -4.53398E+02  1.31114E+03  1.19002E+03 -7.00356E+02
  1.44260E+03 -7.53903E+02  4.01877E+03  1.51184E+03  2.20124E+03  5.44696E+03 -6.62186E+02  7.06823E+03
 -4.86468E+03  4.24871E+03 -6.29241E+03  1.39977E+03 -5.55317E+03 -2.35517E+03 -1.75248E+03 -3.35091E+03
  8.36390E+02 -3.85673E+03  2.51980E+03 -2.10715E+03  2.43310E+03  2.23925E+03 -8.55460E+02  3.20898E+03
 -3.85213E+03  2.15070E+03 -4.59232E+03 -2.73383E+03 -2.24948E+03 -5.23226E+03  1.01275E+03 -5.73249E+03
  3.20003E+03 -2.82526E+03  3.52937E+03 -3.21941E+01  3.33537E+03  1.21973E+03  2.69064E+02  2.64480E+03
 -1.70824E+03  8.35054E+02 -2.43803E+03 -1.76693E+03  8.45375E+02 -3.80591E+03  4.90093E+03 -2.98729E+03
  5.62684E+03  5.31819E+02  6.05665E+03  3.70782E+03  2.17274E+03  6.09509E+03 -1.70911E+03  5.76149E+03
 -4.98097E+03  2.17124E+03 -5.42796E+03 -6.50497E+02 -3.00924E+03 -4.27604E+03  6.54787E+02 -3.79399E+03
  3.77017E+03 -2.11388E+03  3.60162E+03  1.82854E+03  1.14112E+03  3.69906E+03 -5.60688E+02  3.47397E+03
 -1.44744E+03  2.02772E+03 -1.74045E+03  5.29030E+02 -5.66410E+02  5.09602E+02 -8.88426E+02  1.15252E+03
 -1.58135E+03  2.56316E+03 -4.38626E+03  2.12176E+03 -5.85228E+03  1.86915E+02 -6.84522E+03 -3.93192E+03
 -3.74376E+03 -7.41754E+03  1.55990E+03 -9.33564E+03  5.56598E+03 -7.33748E+03  8.51979E+03 -2.90520E+03
  8.30808E+03  1.52326E+03  5.05585E+03  5.34598E+03  3.05366E+02  5.71179E+03 -2.62442E+03  4.66948E+03
 -3.35665E+03  2.10129E+03 -2.09591E+03 -3.21990E+02 -7.03984E+02 -1.69224E+02 -6.12746E+02  1.66618E+02
 -1.44453E+03  1.66406E+02 -1.31105E+03  1.42192E+02 -4.49686E+02 -1.40108E+03  8.95207E+00 -2.46676E+03
  2.88261E+03 -2.12706E+03  3.18296E+03  1.97110E+02  4.04782E+03  3.30819E+03  5.60451E+02  6.22857E+03
 -2.87623E+03  7.01536E+03 -6.01847E+03  4.12593E+03 -7.17315E+03 -6.41023E+02 -5.03385E+03 -4.43956E+03
 -2.57573E+03 -6.15642E+03  1.50837E+03 -5.63676E+03  3.80427E+03 -2.76077E+03  3.60172E+03  3.57139E+02
  2.32129E+03  1.57315E+03 -1.45293E+02  1.73665E+03 -1.27246E+03 -2.99160E+02 -1.26666E+02 -1.22041E+03
  1.76831E+03 -6.89931E+02  2.16696E+03  1.05620E+03  1.63545E+03  1.93301E+03  4.82932E+02  2.79085E+03
 -2.83248E+03  2.51122E+03 -3.60571E+03  5.46127E+01 -3.79201E+03 -2.94194E+03 -4.23717E+02 -4.51471E+03
  2.52508E+03 -3.53436E+03  4.32237E+03 -7.06625E+02  4.61327E+03  6.44093E+02  2.43107E+03  3.08940E+03
  5.83098E+02  3.76262E+03 -1.51040E+03  3.16380E+03 -2.59006E+03  1.88998E+03 -2.10093E+03  1.54566E+02
 -8.28772E+02  3.82389E+01 -1.05182E+03  3.80372E+02 -2.22053E+03  8.83619E+02 -3.27713E+03 -5.68997E+02
 -3.03946E+03 -1.62926E+03 -8.63852E+02 -4.05756E+03  1.77233E+03 -3.99793E+03  3.22570E+03 -1.83702E+03
  3.64506E+03  6.76699E+02  1.61000E+03  2.68876E+03 -5.21545E+02  3.67729E+03 -2.89930E+03  2.48731E+03
