 $NMID ID='MM_0lb_SNR800_14hz_g40_12.RAW', FMTDAT='(8E13.5)'
 TRAMP=1., VOLUME=1. $END
  3.09661E+05  6.01685E+02  3.37360E+05  2.50354E+05  8.45099E+04  3.37667E+05 -1.32719E+05  2.50964E+05
 -1.90003E+05  8.29390E+04 -1.11504E+05 -3.24057E+04  8.23027E+02 -5.03018E+04  5.38191E+04  9.91503E+01
  3.52544E+04  5.31087E+04 -1.69453E+04  7.50732E+04 -6.02661E+04  6.33592E+04 -8.36560E+04  3.18997E+04
 -8.09355E+04 -1.15083E+04 -5.70890E+04 -5.07255E+04 -1.51285E+04 -6.92711E+04  2.71258E+04 -4.54286E+04
  4.00945E+04  4.00640E+03  1.55922E+04  4.78291E+04 -3.43131E+04  4.67308E+04 -6.62625E+04 -4.59729E+02
 -5.26786E+04 -5.65855E+04 -6.56632E+03 -7.63361E+04  3.37763E+04 -5.43635E+04  4.73903E+04 -1.67557E+04
  4.28465E+04  1.11884E+04  3.16266E+04  2.55817E+04  1.62078E+04  2.89093E+04 -5.13148E+03  2.71162E+04
 -2.19230E+04  1.27054E+04 -1.88063E+04 -4.83066E+03  5.03245E+03 -7.62580E+03  2.16302E+04  1.19292E+04
  7.29384E+03  3.48506E+04 -3.19749E+04  3.51744E+04 -6.26021E+04  2.13183E+03 -5.67913E+04 -4.25185E+04
 -1.24956E+04 -6.25785E+04  3.93488E+04 -4.46513E+04  5.74052E+04 -2.05556E+03  3.34565E+04  3.17788E+04
 -5.95466E+03  3.53977E+04 -2.96864E+04  1.53538E+04 -2.97639E+04 -5.03082E+03 -1.60612E+04 -1.09539E+04
 -7.95265E+03 -1.27003E+04 -9.41098E+02 -1.76631E+04  7.26282E+03 -2.29355E+04  1.51886E+04 -1.34284E+04
  1.14983E+04  4.99264E+03 -7.90901E+03  1.29141E+04 -2.03752E+04 -4.23694E+03 -8.21618E+03 -3.31077E+04
  2.19744E+04 -4.24753E+04  4.71874E+04 -1.92578E+04  4.44166E+04  1.90718E+04  1.54070E+04  4.39606E+04
 -1.57007E+04  3.31347E+04 -2.48757E+04  1.58008E+03 -9.49318E+03 -2.74575E+04  2.06086E+04 -3.32711E+04
  4.03587E+04 -8.71595E+03  3.46523E+04  2.35886E+04  1.73434E+04  4.54761E+04 -7.94196E+03  4.90533E+04
 -3.10155E+04  3.27351E+04 -4.09701E+04  9.48238E+03 -4.16546E+04 -1.62184E+04 -2.31100E+04 -3.68571E+04
  7.50266E+03 -3.67892E+04  3.08200E+04 -1.42992E+04  2.85883E+04  1.08571E+04  3.67502E+03  1.90098E+04
 -1.35319E+04  8.14005E+03 -1.01008E+04 -7.60134E+03  6.02612E+03 -1.03417E+04  1.78068E+04  6.45738E+03
  1.34584E+04  2.21543E+04 -6.26071E+03  2.48316E+04 -2.20867E+04  1.09555E+04 -2.74462E+04 -5.04557E+03
 -1.98413E+04 -1.70279E+04 -7.60088E+03 -1.98032E+04  3.98940E+03 -1.83557E+04  1.49944E+04 -1.77276E+04
  2.49503E+04 -1.24358E+04  3.12750E+04  2.31774E+03  2.35685E+04  1.89205E+04  4.39898E+03  3.56034E+04
 -1.74066E+04  2.97122E+04 -2.76341E+04  1.02256E+04 -2.03961E+04 -1.03763E+04 -4.41132E+03 -1.37773E+04
  2.12294E+03 -3.11533E+03 -4.51059E+03  6.69625E+03 -1.57613E+04  5.26550E+03 -1.56711E+04 -6.74459E+03
 -9.97706E+03 -1.82112E+04  4.74101E+03 -2.24762E+04  1.48049E+04 -1.60535E+04  1.75589E+04 -1.59072E+03
  1.12061E+04  1.25694E+04 -1.35530E+03  1.82941E+04 -1.25805E+04  1.04354E+04 -1.80421E+04 -3.90655E+03
 -1.35827E+04 -1.62210E+04 -1.51555E+03 -2.23120E+04  1.00223E+04 -1.79893E+04  1.88752E+04 -8.94663E+03
  1.73600E+04  7.71277E+02  1.27282E+04  4.25559E+03  6.52088E+03  8.22733E+02  9.33565E+03 -1.32019E+03
  1.68324E+04  2.67996E+03  1.84406E+04  1.46998E+04  1.19941E+04  2.88297E+04 -3.22178E+03  3.23029E+04
 -1.88472E+04  2.60521E+04 -2.99666E+04  1.28489E+04 -3.15597E+04 -2.28738E+03 -2.62646E+04 -1.84478E+04
 -1.16988E+04 -2.58555E+04  9.04083E+03 -2.37177E+04  2.04240E+04 -1.20668E+04  1.85578E+04  5.31685E+03
  7.13090E+03  1.36178E+04 -8.61089E+03  1.21575E+04 -1.57207E+04  2.64845E+03 -1.21161E+04 -1.00009E+04
 -1.23592E+02 -1.43491E+04  7.42395E+03 -1.09913E+04  9.67182E+03 -1.09974E+03  1.82437E+03  6.36869E+03
 -6.55173E+03  2.44594E+03 -5.70773E+03 -5.42414E+03 -2.52918E+02 -1.28054E+04  9.06313E+03 -1.34341E+04
  1.59292E+04 -7.14830E+03  1.67120E+04  2.91110E+03  1.45889E+04  1.24699E+04  6.64390E+03  1.90178E+04
 -2.86461E+03  2.13892E+04 -1.32085E+04  1.31871E+04 -1.50563E+04  3.13461E+03 -1.09327E+04 -3.23953E+03
 -5.15351E+03 -4.81122E+03 -9.94317E+02  1.18235E+03 -2.25652E+03  2.39195E+03 -4.88983E+03  4.19207E+03
 -1.00665E+04 -6.03924E+02 -1.08929E+04 -8.59592E+03 -4.52333E+03 -1.44136E+04  4.25295E+03 -1.09504E+04
  9.13055E+03 -4.73280E+03  6.17471E+03  2.63295E+03  2.93415E+02  4.12202E+03 -4.92619E+03 -2.50283E+02
 -4.84783E+03 -6.83839E+03 -7.46720E+02 -1.00044E+04  5.25213E+03 -1.07484E+04  1.35954E+04 -5.64536E+03
  1.55195E+04  9.60290E+02  1.13565E+04  8.70492E+03  2.19096E+03  1.21090E+04 -7.03557E+03  1.06246E+04
 -8.75278E+03  3.38535E+03 -4.70957E+03 -2.06945E+03  1.67291E+03 -2.83770E+03  5.72112E+03 -9.07238E+02
  5.00813E+03  4.52160E+03  1.11945E+03  8.32419E+03 -6.05399E+03  8.09416E+03 -1.04365E+04  2.18203E+03
 -6.69001E+03 -5.13622E+03  5.21904E+02 -8.73654E+03  5.21561E+03 -4.24268E+03  4.91855E+03  1.73060E+03
  1.02445E+03  5.76656E+03 -5.33653E+03  7.05477E+03 -7.69095E+03  3.26761E+03 -7.65229E+03 -2.23371E+03
 -4.67694E+03 -9.27686E+03  2.05510E+03 -1.02412E+04  9.30111E+03 -6.89627E+03  9.97094E+03  1.77654E+03
  6.52266E+03  8.14544E+03 -2.66497E+02  9.99761E+03 -7.32848E+03  5.79948E+03 -7.54534E+03 -5.99252E+02
 -7.40939E+03 -6.97420E+03 -1.43444E+03 -7.18313E+03  3.82355E+03 -6.24463E+03  4.32040E+03 -3.00396E+03
  3.57486E+03  9.98252E+02 -4.46904E+02  1.49067E+03  1.13770E+02 -1.48611E+03  1.26181E+03 -3.80330E+03
  6.36550E+03 -2.07417E+03  8.99029E+03  9.16853E+02  9.10412E+03  5.32818E+03  6.67084E+03  1.13594E+04
 -2.58315E+03  1.34136E+04 -1.15472E+04  9.66097E+03 -1.50003E+04  1.70920E+03 -1.19558E+04 -4.58254E+03
 -6.19064E+03 -9.86562E+03 -3.35796E+02 -8.20795E+03  2.90746E+03 -4.25132E+03  2.94200E+03 -3.35783E+03
  2.10215E+03 -2.07666E+03  2.42583E+03 -2.83294E+03  4.42487E+03 -1.71688E+03  5.08430E+03  1.26275E+02
  6.69735E+03  1.64210E+03  2.45910E+03  5.29487E+03 -1.32367E+03  5.46402E+03 -6.76426E+03  4.34098E+03
 -7.85628E+03 -1.17582E+03 -4.26057E+03 -5.62689E+03 -1.76794E+02 -8.40934E+03  4.86957E+03 -8.59412E+03
  8.41184E+03 -4.85946E+03  1.09082E+04  8.03519E+02  7.49548E+03  7.36377E+03  1.54830E+03  9.82150E+03
 -3.92001E+03  8.54913E+03 -5.75787E+03  3.01128E+03 -3.59108E+03 -1.32543E+03 -1.55247E+03 -9.70581E+02
 -7.67567E+02  1.52093E+02 -1.47353E+03  2.34687E+03 -3.87737E+03  1.61128E+03 -5.99993E+03 -5.29062E+02
 -3.37455E+03 -5.87598E+03  4.38573E+02 -7.98172E+03  4.83428E+03 -7.02533E+03  6.81504E+03 -1.84676E+03
  7.20117E+03  4.01536E+03  3.34620E+03  6.44258E+03 -1.61843E+03  7.91130E+03 -5.18761E+03  4.56102E+03
 -6.99385E+03  6.22332E+02 -5.58051E+03 -4.15832E+03 -7.30689E+02 -5.83923E+03  3.21015E+03 -4.74237E+03
  4.61771E+03 -1.76565E+03  3.17408E+03  1.17678E+03  8.80231E+02  2.37960E+03  9.17532E+02  9.69088E+02
  2.08715E+03  6.19931E+02  2.07195E+03  1.15864E+03  2.18376E+03  3.02594E+03  2.14461E+03  3.52480E+03
 -1.88561E+03  5.75131E+03 -4.81692E+03  6.49632E+03 -7.00164E+03  1.54861E+03 -7.31485E+03 -2.34096E+03
 -3.72594E+03 -6.83274E+03  1.35027E+03 -8.63853E+03  4.02293E+03 -5.03657E+03  5.81709E+03 -1.80360E+03
  4.43020E+03  2.56994E+03  1.02060E+03  4.26162E+03 -1.86786E+03  2.27498E+03 -2.68533E+03 -1.37492E+01
 -1.43614E+03 -2.78781E+03  1.81321E+03 -3.04024E+03  2.46152E+03 -1.52318E+03  2.57165E+03  6.83485E+02
  1.69016E+03  1.17337E+03  1.08519E+03  1.20516E+03 -3.72741E+02  1.30207E+03  1.77226E+03 -1.24823E+02
  6.61456E+02 -8.71560E+02  2.64797E+03  1.16001E+03  9.41828E+02  4.05648E+03 -7.98134E+02  5.12872E+03
 -3.19669E+03  2.84304E+03 -4.47953E+03  5.37785E+02 -3.91996E+03 -1.48213E+03 -1.20320E+03 -2.42407E+03
  3.44085E+02 -2.34605E+03  1.85573E+03 -1.24756E+03  1.40431E+03  1.92588E+03 -9.66051E+02  2.44153E+03
 -2.92358E+03  1.38123E+03 -2.61641E+03 -2.05220E+03 -1.70769E+03 -3.81366E+03  6.25495E+02 -3.57054E+03
  1.53827E+03 -1.90697E+03  2.21872E+03 -1.29779E+02  2.68116E+03  7.62248E+02  2.94031E+02  2.16508E+03
 -1.16106E+03  3.23484E+02 -1.61093E+03 -8.64531E+02  8.26501E+02 -2.54745E+03  3.39016E+03 -2.29275E+03
  3.83330E+03  1.08722E+02  4.68702E+03  2.28109E+03  1.65896E+03  3.75296E+03 -1.18981E+03  3.79385E+03
 -3.17926E+03  1.40441E+03 -3.26715E+03 -5.26185E+02 -1.92214E+03 -2.86657E+03  9.77925E+02 -2.11785E+03
  2.58089E+03 -1.38246E+03  2.09515E+03  1.07173E+03  7.77475E+02  2.77803E+03  3.00618E+01  2.03082E+03
 -7.45092E+02  1.96151E+03 -1.02519E+03  4.19121E+02 -3.82077E+02  2.29846E+02 -8.21883E+02  1.00203E+03
 -1.29066E+03  1.76218E+03 -3.14716E+03  1.03288E+03 -4.04856E+03  2.26090E+02 -4.82500E+03 -2.19582E+03
 -2.18562E+03 -5.05855E+03  9.69297E+02 -6.11522E+03  3.39768E+03 -4.89192E+03  6.05120E+03 -2.03030E+03
  5.61397E+03  8.45020E+02  2.93855E+03  3.76995E+03 -2.32366E+02  3.99798E+03 -1.65063E+03  3.12735E+03
 -2.34698E+03  1.17960E+03 -1.40301E+03 -3.46888E+02 -9.65996E+02  1.60824E+02 -4.86559E+02  1.80875E+02
 -1.57834E+03 -1.43212E+01 -1.21602E+03 -9.86824E+01 -1.53023E+02 -7.17936E+02 -3.40253E+02 -1.58145E+03
  2.11611E+03 -1.31068E+03  1.98463E+03  1.53634E+02  2.87868E+03  2.37454E+03  3.06881E+02  3.66515E+03
 -2.19539E+03  4.62290E+03 -4.09048E+03  2.64124E+03 -4.35747E+03 -3.55456E+02 -3.75954E+03 -2.69597E+03
 -1.59520E+03 -3.65226E+03  1.11728E+03 -3.27407E+03  2.20583E+03 -1.76858E+03  2.16880E+03  2.20148E+02
  1.51912E+03  9.02474E+02 -4.21326E+02  1.09822E+03 -6.71586E+02  2.03587E+02 -6.75371E+01 -7.15049E+02
  9.27198E+02  1.61780E+02  1.36689E+03  8.80847E+02  6.33281E+02  1.60179E+03  9.60825E+01  1.54609E+03
 -1.78209E+03  1.75775E+03 -2.04032E+03  5.00397E+02 -1.87188E+03 -1.84828E+03  5.55171E+01 -3.32769E+03
  1.58987E+03 -2.20828E+03  2.51480E+03 -8.34064E+02  2.73027E+03 -1.62242E+01  1.78084E+03  1.81638E+03
  8.22191E+02  1.79338E+03 -8.26092E+02  2.23712E+03 -1.70755E+03  1.17521E+03 -1.30884E+03  1.19156E+02
 -3.19811E+02  1.25906E+01 -8.46889E+02  3.86321E+02 -1.18236E+03  5.20278E+02 -1.87700E+03 -4.41841E+02
 -2.27748E+03 -6.35584E+02 -5.52651E+02 -2.60370E+03  1.46737E+03 -3.09495E+03  1.98484E+03 -8.41287E+02
  2.12925E+03  3.45596E+02  9.92880E+02  1.47422E+03 -3.79599E+02  2.50893E+03 -1.38871E+03  1.83190E+03
