 $NMID ID='MM_0lb_SNR800_10hz_g45_75.RAW', FMTDAT='(8E13.5)'
 TRAMP=1., VOLUME=1. $END
  3.09986E+05  5.09143E+02  3.37486E+05  2.50725E+05  8.51817E+04  3.38068E+05 -1.33170E+05  2.51551E+05
 -1.90683E+05  8.37105E+04 -1.12064E+05 -3.24348E+04  6.67303E+02 -5.05470E+04  5.38033E+04 -6.58100E+01
  3.54698E+04  5.26337E+04 -1.63089E+04  7.58834E+04 -6.12520E+04  6.39852E+04 -8.49181E+04  3.26964E+04
 -8.19504E+04 -1.17917E+04 -5.81292E+04 -5.21056E+04 -1.51123E+04 -7.04054E+04  2.78160E+04 -4.67940E+04
  4.04384E+04  3.89285E+03  1.66928E+04  4.84449E+04 -3.45133E+04  4.77504E+04 -6.76804E+04  1.38798E+02
 -5.45323E+04 -5.73656E+04 -7.49329E+03 -7.83796E+04  3.42601E+04 -5.66488E+04  4.89981E+04 -1.75781E+04
  4.45591E+04  1.13237E+04  3.26025E+04  2.64746E+04  1.58979E+04  3.01796E+04 -5.34415E+03  2.74761E+04
 -2.23388E+04  1.21933E+04 -1.84060E+04 -5.29607E+03  6.69867E+03 -7.27092E+03  2.33501E+04  1.34010E+04
  6.98717E+03  3.64342E+04 -3.31677E+04  3.68785E+04 -6.49448E+04  2.14927E+03 -5.83801E+04 -4.37349E+04
 -1.24161E+04 -6.47791E+04  4.13302E+04 -4.67279E+04  6.02035E+04 -2.59669E+03  3.58271E+04  3.37653E+04
 -5.34244E+03  3.84894E+04 -3.13659E+04  1.78810E+04 -3.21570E+04 -3.96331E+03 -1.85064E+04 -1.15274E+04
 -8.91344E+03 -1.43933E+04 -4.36588E+02 -1.97270E+04  8.01717E+03 -2.31945E+04  1.56278E+04 -1.28798E+04
  1.10889E+04  5.59074E+03 -9.81309E+03  1.33090E+04 -2.24565E+04 -5.70647E+03 -8.86776E+03 -3.62302E+04
  2.45545E+04 -4.54990E+04  5.09862E+04 -2.03613E+04  4.78260E+04  2.03847E+04  1.69801E+04  4.62506E+04
 -1.62669E+04  3.49584E+04 -2.68649E+04  2.38887E+03 -1.09744E+04 -2.91328E+04  2.12595E+04 -3.58693E+04
  4.34294E+04 -1.05586E+04  3.85114E+04  2.46911E+04  2.03642E+04  4.94476E+04 -7.86578E+03  5.42096E+04
 -3.41964E+04  3.70128E+04 -4.58386E+04  1.03242E+04 -4.62366E+04 -1.75928E+04 -2.54109E+04 -4.11587E+04
  7.58455E+03 -4.05879E+04  3.33933E+04 -1.62794E+04  3.14269E+04  1.12742E+04  5.03839E+03  2.01520E+04
 -1.38833E+04  9.59485E+03 -1.11917E+04 -7.23195E+03  5.87227E+03 -1.14363E+04  1.87248E+04  5.68111E+03
  1.43446E+04  2.23678E+04 -5.36434E+03  2.66102E+04 -2.30986E+04  1.35313E+04 -3.06552E+04 -3.77910E+03
 -2.36849E+04 -1.78952E+04 -1.08407E+04 -2.34398E+04  4.30503E+03 -2.41311E+04  1.84992E+04 -2.17082E+04
  3.02796E+04 -1.36604E+04  3.66639E+04  4.15714E+03  2.62310E+04  2.31441E+04  4.07089E+03  3.93248E+04
 -1.88850E+04  3.28308E+04 -2.97766E+04  1.11184E+04 -2.20815E+04 -1.00428E+04 -4.68166E+03 -1.33417E+04
  1.17495E+03 -1.81714E+03 -6.53250E+03  7.93812E+03 -1.90251E+04  4.87717E+03 -1.88973E+04 -8.58753E+03
 -1.11157E+04 -2.21064E+04  6.06825E+03 -2.66047E+04  1.75035E+04 -1.89184E+04  2.13832E+04 -1.63181E+03
  1.34403E+04  1.55284E+04 -1.33172E+03  2.18630E+04 -1.54292E+04  1.24936E+04 -2.24486E+04 -4.53426E+03
 -1.62146E+04 -1.96775E+04 -2.34814E+03 -2.64489E+04  1.20773E+04 -2.16120E+04  2.17422E+04 -1.12195E+04
  2.05868E+04  4.89497E+01  1.52043E+04  5.11019E+03  8.01450E+03  1.24461E+03  1.12165E+04 -1.73203E+03
  2.04425E+04  3.03864E+03  2.39239E+04  1.68598E+04  1.57416E+04  3.54380E+04 -2.45911E+03  4.09456E+04
 -2.35028E+04  3.40319E+04 -3.88519E+04  1.76444E+04 -4.14023E+04 -2.92578E+03 -3.36003E+04 -2.40828E+04
 -1.36782E+04 -3.41222E+04  1.20272E+04 -2.99822E+04  2.54964E+04 -1.42148E+04  2.24419E+04  7.46267E+03
  7.78885E+03  1.75029E+04 -1.11130E+04  1.45694E+04 -1.93813E+04  2.73137E+03 -1.47215E+04 -1.19633E+04
 -3.15309E+02 -1.81109E+04  1.01304E+04 -1.32602E+04  1.26098E+04 -1.19492E+03  3.03611E+03  7.94627E+03
 -8.36727E+03  3.80198E+03 -8.11225E+03 -6.85469E+03 -1.42744E+03 -1.69414E+04  1.13109E+04 -1.80086E+04
  2.12358E+04 -1.00923E+04  2.28056E+04  2.72367E+03  2.06067E+04  1.66601E+04  9.59072E+03  2.61411E+04
 -4.93730E+03  2.84005E+04 -1.80791E+04  1.79751E+04 -2.05090E+04  3.73918E+03 -1.42185E+04 -5.58024E+03
 -6.02418E+03 -6.34374E+03 -5.43873E+02  5.70955E+02 -2.64943E+03  3.28539E+03 -6.47208E+03  4.90898E+03
 -1.31095E+04 -7.87739E+02 -1.36097E+04 -1.10230E+04 -5.53216E+03 -1.81858E+04  5.93657E+03 -1.45388E+04
  1.17606E+04 -5.78655E+03  8.44120E+03  4.05124E+03 -3.19286E+02  5.70439E+03 -6.97808E+03 -7.65190E+01
 -6.70695E+03 -9.20113E+03 -7.63656E+02 -1.39780E+04  8.02382E+03 -1.49570E+04  1.82910E+04 -8.17301E+03
  2.14380E+04  1.87709E+03  1.54659E+04  1.28252E+04  3.03023E+03  1.71818E+04 -8.86505E+03  1.43383E+04
 -1.13477E+04  4.54939E+03 -6.49159E+03 -2.99368E+03  1.93663E+03 -4.24564E+03  7.42574E+03 -1.26199E+03
  6.72726E+03  6.23840E+03  1.08931E+03  1.17194E+04 -8.12524E+03  1.09841E+04 -1.39563E+04  2.71419E+03
 -9.68955E+03 -7.34587E+03  3.58735E+02 -1.22084E+04  7.80741E+03 -6.23633E+03  8.16375E+03  2.85757E+03
  1.67873E+03  8.93468E+03 -7.33276E+03  1.01610E+04 -1.20220E+04  4.78725E+03 -1.18203E+04 -4.23147E+03
 -6.93323E+03 -1.36289E+04  3.61993E+03 -1.60349E+04  1.37368E+04 -9.25701E+03  1.50103E+04  2.64864E+03
  8.72839E+03  1.17722E+04 -1.24240E+03  1.43148E+04 -1.05097E+04  7.89709E+03 -1.14453E+04 -1.11070E+03
 -1.00048E+04 -9.69357E+03 -1.46590E+03 -1.08778E+04  5.62119E+03 -8.97862E+03  6.72707E+03 -3.39740E+03
  4.41845E+03  2.11364E+03 -1.09996E+03  1.80736E+03 -5.81281E+02 -2.90683E+03  1.90576E+03 -6.45966E+03
  1.01301E+04 -4.23152E+03  1.43016E+04  1.51395E+03  1.35543E+04  9.31679E+03  9.16642E+03  1.83765E+04
 -3.95970E+03  2.11863E+04 -1.79359E+04  1.53408E+04 -2.25432E+04  2.88172E+03 -1.87107E+04 -7.86415E+03
 -9.24147E+03 -1.47986E+04 -2.47974E+02 -1.25560E+04  4.78326E+03 -7.28845E+03  4.74724E+03 -4.82842E+03
  3.35701E+03 -2.58144E+03  3.40850E+03 -3.79384E+03  5.43337E+03 -3.43532E+03  7.22868E+03 -1.12445E+03
  9.54448E+03  2.01815E+03  4.69286E+03  8.18783E+03 -2.22427E+03  1.01776E+04 -1.00674E+04  7.27689E+03
 -1.30025E+04 -1.46383E+03 -7.86799E+03 -9.40820E+03 -6.60249E+02 -1.35320E+04  7.58533E+03 -1.37050E+04
  1.41969E+04 -8.01693E+03  1.70591E+04  2.27212E+03  1.15796E+04  1.19640E+04  1.97099E+03  1.53407E+04
 -6.40542E+03  1.30351E+04 -8.87454E+03  4.51263E+03 -6.31773E+03 -1.49137E+03 -2.40545E+03 -1.77627E+03
 -1.12326E+03 -2.09426E+02 -1.62003E+03  2.97100E+03 -5.45740E+03  2.55966E+03 -9.14556E+03 -1.49525E+03
 -6.40539E+03 -9.03205E+03  1.14019E+02 -1.26605E+04  8.13139E+03 -1.18002E+04  1.27073E+04 -3.77957E+03
  1.26338E+04  6.62046E+03  5.78461E+03  1.08465E+04 -2.64713E+03  1.27807E+04 -8.87221E+03  7.76435E+03
 -1.19507E+04  5.24841E+02 -9.28259E+03 -7.36807E+03 -1.15512E+03 -1.02362E+04  5.27767E+03 -7.91315E+03
  8.06965E+03 -2.63941E+03  5.46985E+03  2.01677E+03  1.85106E+03  3.93571E+03  1.29588E+03  1.88688E+03
  2.08021E+03  1.06115E+03  3.23192E+03  1.54748E+03  3.75828E+03  4.34685E+03  3.59550E+03  6.80713E+03
 -2.56097E+03  9.60669E+03 -8.98372E+03  1.04396E+04 -1.28105E+04  2.61481E+03 -1.37576E+04 -5.11547E+03
 -6.44039E+03 -1.27949E+04  2.00166E+03 -1.40340E+04  7.93870E+03 -8.88476E+03  1.05554E+04 -2.45301E+03
  8.09517E+03  4.66131E+03  2.07181E+03  7.18853E+03 -3.59423E+03  4.84442E+03 -5.43115E+03 -4.05024E+02
 -2.20099E+03 -5.71189E+03  3.00954E+03 -5.56058E+03  5.25957E+03 -2.47005E+03  5.19558E+03  1.37893E+03
  2.85788E+03  2.57800E+03  1.13722E+03  2.08923E+03 -7.37250E+02  1.49531E+03  1.76307E+03 -1.00129E+03
  1.70067E+03 -1.10659E+03  5.25647E+03  1.70303E+03  2.88961E+03  6.99302E+03 -9.85182E+02  9.12683E+03
 -6.13934E+03  6.09076E+03 -7.97965E+03  1.02949E+03 -7.23682E+03 -2.75375E+03 -2.53472E+03 -5.18607E+03
  6.02669E+02 -4.83901E+03  3.28502E+03 -2.25939E+03  2.73798E+03  2.71783E+03 -1.28241E+03  4.08462E+03
 -5.12731E+03  2.50711E+03 -6.23180E+03 -3.16200E+03 -2.95211E+03 -6.86997E+03  1.19985E+03 -6.89812E+03
  4.46273E+03 -4.36010E+03  4.99528E+03 -4.94724E+02  3.98463E+03  1.89727E+03  8.98623E+02  3.67168E+03
 -2.38583E+03  1.12373E+03 -3.58249E+03 -2.13263E+03  1.12627E+03 -5.42953E+03  6.45243E+03 -4.20926E+03
  8.18344E+03  3.07528E+02  7.70160E+03  5.62033E+03  2.66112E+03  8.38457E+03 -2.78661E+03  7.83945E+03
 -6.87241E+03  2.79145E+03 -6.85251E+03 -1.39969E+03 -3.90148E+03 -5.51193E+03  1.08622E+03 -4.60954E+03
  5.28038E+03 -2.27648E+03  4.58181E+03  2.47311E+03  1.01407E+03  4.35331E+03 -7.55560E+02  4.04644E+03
 -2.02572E+03  2.44193E+03 -2.26088E+03  8.51513E+02 -7.64412E+02  4.21688E+02 -1.33441E+03  1.60082E+03
 -2.19545E+03  3.16986E+03 -5.68270E+03  2.82293E+03 -8.07942E+03  4.86692E+01 -9.43302E+03 -5.26065E+03
 -5.01649E+03 -1.12209E+04  2.25327E+03 -1.27563E+04  7.56357E+03 -1.00236E+04  1.21298E+04 -3.69543E+03
  1.10945E+04  2.09650E+03  7.12772E+03  7.78412E+03  5.03865E+02  8.09847E+03 -3.21141E+03  6.51646E+03
 -4.85412E+03  2.51586E+03 -3.11203E+03 -9.13462E+02 -1.08275E+03 -7.69346E+02 -5.97314E+02  1.18125E+01
 -1.47405E+03  3.42305E+02 -2.05668E+03 -3.16046E+02 -4.69745E+02 -2.33505E+03  2.64790E+02 -3.16124E+03
  3.43099E+03 -2.67985E+03  4.96212E+03  1.94329E+02  5.94691E+03  4.62362E+03  1.94885E+03  8.49652E+03
 -4.03773E+03  9.92393E+03 -9.05136E+03  5.79749E+03 -1.04067E+04 -6.56511E+02 -7.82491E+03 -6.47869E+03
 -3.43852E+03 -8.47429E+03  2.32808E+03 -8.03300E+03  4.96478E+03 -4.35124E+03  5.66463E+03  2.81480E+02
  2.73248E+03  2.81725E+03 -3.89267E+02  2.29338E+03 -1.51946E+03  1.41688E+02  2.06480E+02 -1.62804E+03
  2.45210E+03 -1.53023E+03  3.47060E+03  1.29702E+03  2.55101E+03  3.49898E+03  9.58834E+01  4.23412E+03
 -3.23394E+03  3.80702E+03 -5.44298E+03  4.23657E+02 -5.34523E+03 -3.80313E+03 -6.66081E+02 -6.77227E+03
  3.78643E+03 -5.84299E+03  5.94782E+03 -2.10591E+03  6.46793E+03  1.52897E+03  3.56509E+03  5.21345E+03
  8.79018E+02  5.48895E+03 -2.43939E+03  4.83697E+03 -3.43170E+03  2.77271E+03 -2.91225E+03  3.01573E+02
 -1.42294E+03 -3.68536E+02 -1.59683E+03  1.08898E+03 -3.20471E+03  1.01879E+03 -4.51670E+03 -1.04634E+03
 -4.31475E+03 -2.64702E+03 -1.60000E+03 -5.94111E+03  2.65708E+03 -6.30228E+03  4.72984E+03 -2.97607E+03
  5.60963E+03  7.57141E+02  2.89595E+03  3.91226E+03 -3.17394E+02  5.53786E+03 -3.94096E+03  3.76327E+03
