 $NMID ID='MM_0lb_SNR800_13hz_g55_47.RAW', FMTDAT='(8E13.5)'
 TRAMP=1., VOLUME=1. $END
  3.09866E+05  1.92770E+02  3.37825E+05  2.50585E+05  8.44286E+04  3.37879E+05 -1.32335E+05  2.51116E+05
 -1.90507E+05  8.33948E+04 -1.11945E+05 -3.27541E+04  8.55929E+02 -5.03648E+04  5.36445E+04  1.49754E+02
  3.53454E+04  5.27128E+04 -1.67968E+04  7.60628E+04 -6.08355E+04  6.40986E+04 -8.50321E+04  3.25860E+04
 -8.16393E+04 -1.13970E+04 -5.74521E+04 -5.17838E+04 -1.51766E+04 -7.02155E+04  2.74730E+04 -4.63905E+04
  4.04462E+04  3.64882E+03  1.64961E+04  4.80579E+04 -3.43788E+04  4.74739E+04 -6.71284E+04 -2.41748E+02
 -5.39853E+04 -5.73270E+04 -7.30996E+03 -7.78497E+04  3.42872E+04 -5.58364E+04  4.88236E+04 -1.75124E+04
  4.42960E+04  1.16223E+04  3.22644E+04  2.61226E+04  1.54860E+04  2.98744E+04 -5.38169E+03  2.74844E+04
 -2.21005E+04  1.20506E+04 -1.83286E+04 -5.49854E+03  6.26313E+03 -7.49234E+03  2.30426E+04  1.24637E+04
  7.13217E+03  3.61128E+04 -3.28493E+04  3.60245E+04 -6.40819E+04  2.25996E+03 -5.75346E+04 -4.36830E+04
 -1.27513E+04 -6.43392E+04  4.02440E+04 -4.60565E+04  5.94668E+04 -2.43323E+03  3.53934E+04  3.30547E+04
 -5.78977E+03  3.77595E+04 -3.06095E+04  1.70074E+04 -3.14765E+04 -4.01173E+03 -1.76054E+04 -1.15515E+04
 -8.72905E+03 -1.39508E+04 -7.86737E+02 -1.84868E+04  7.76533E+03 -2.35037E+04  1.55036E+04 -1.32554E+04
  1.08569E+04  5.44831E+03 -9.35019E+03  1.26536E+04 -2.20904E+04 -5.43450E+03 -8.74311E+03 -3.50429E+04
  2.33136E+04 -4.49380E+04  4.97473E+04 -2.02774E+04  4.64401E+04  2.03315E+04  1.61401E+04  4.51109E+04
 -1.62345E+04  3.38920E+04 -2.65230E+04  2.23291E+03 -1.05483E+04 -2.87900E+04  2.13554E+04 -3.47547E+04
  4.22038E+04 -9.58031E+03  3.74038E+04  2.37201E+04  1.94172E+04  4.81491E+04 -8.25009E+03  5.22343E+04
 -3.31435E+04  3.54201E+04 -4.39952E+04  1.00419E+04 -4.45298E+04 -1.74115E+04 -2.40777E+04 -3.94501E+04
  7.44550E+03 -3.93602E+04  3.26202E+04 -1.54863E+04  3.03827E+04  1.07142E+04  4.38174E+03  1.97748E+04
 -1.33271E+04  8.90745E+03 -1.08050E+04 -7.57963E+03  5.84659E+03 -1.08442E+04  1.81452E+04  5.93776E+03
  1.42884E+04  2.21788E+04 -5.97681E+03  2.57793E+04 -2.29501E+04  1.25196E+04 -2.93273E+04 -4.16739E+03
 -2.21759E+04 -1.77775E+04 -9.51112E+03 -2.21874E+04  4.04944E+03 -2.17862E+04  1.74270E+04 -1.99937E+04
  2.81775E+04 -1.33806E+04  3.41951E+04  3.62577E+03  2.47341E+04  2.12238E+04  4.31885E+03  3.81898E+04
 -1.84056E+04  3.18982E+04 -2.87918E+04  1.06948E+04 -2.11649E+04 -1.01842E+04 -4.38344E+03 -1.30184E+04
  1.21916E+03 -2.21962E+03 -6.08979E+03  7.30254E+03 -1.76169E+04  5.50105E+03 -1.76971E+04 -8.06072E+03
 -1.05547E+04 -2.01199E+04  5.55731E+03 -2.47473E+04  1.64858E+04 -1.73968E+04  1.99243E+04 -1.67969E+03
  1.22054E+04  1.45371E+04 -8.54707E+02  2.07573E+04 -1.41648E+04  1.14896E+04 -2.03375E+04 -4.37586E+03
 -1.50982E+04 -1.83226E+04 -1.77192E+03 -2.47538E+04  1.12612E+04 -2.01771E+04  2.03444E+04 -1.04194E+04
  1.91880E+04 -8.63870E+01  1.38929E+04  4.41448E+03  7.54659E+03  9.70096E+02  1.03185E+04 -1.86959E+03
  1.86068E+04  2.48467E+03  2.11263E+04  1.61790E+04  1.42188E+04  3.25569E+04 -2.82315E+03  3.73698E+04
 -2.13991E+04  3.05307E+04 -3.48814E+04  1.51066E+04 -3.71002E+04 -2.57176E+03 -3.01641E+04 -2.12896E+04
 -1.27107E+04 -3.07161E+04  1.04729E+04 -2.74702E+04  2.32157E+04 -1.36774E+04  2.10138E+04  5.96202E+03
  7.50575E+03  1.57042E+04 -9.80614E+03  1.31900E+04 -1.75694E+04  2.77236E+03 -1.32311E+04 -1.10201E+04
 -3.02519E+02 -1.66292E+04  8.34440E+03 -1.20161E+04  1.10452E+04 -1.22765E+03  2.46603E+03  7.10440E+03
 -7.37696E+03  2.86587E+03 -6.68397E+03 -5.94090E+03 -4.62635E+02 -1.48846E+04  1.00288E+04 -1.58426E+04
  1.84219E+04 -8.39382E+03  2.01540E+04  2.81157E+03  1.77026E+04  1.44867E+04  8.15696E+03  2.25574E+04
 -3.94808E+03  2.49234E+04 -1.59273E+04  1.52659E+04 -1.79960E+04  3.26197E+03 -1.21504E+04 -4.11136E+03
 -5.99331E+03 -5.85404E+03 -4.79282E+02  1.01992E+03 -2.59860E+03  3.07417E+03 -5.48326E+03  4.78448E+03
 -1.15873E+04 -8.27411E+02 -1.19662E+04 -9.83447E+03 -4.87995E+03 -1.60623E+04  5.01581E+03 -1.26697E+04
  1.01699E+04 -5.35614E+03  7.16887E+03  3.32067E+03  7.85795E+01  4.78913E+03 -5.80915E+03 -4.88382E+02
 -5.67285E+03 -8.10110E+03 -9.00109E+02 -1.16754E+04  6.56657E+03 -1.27496E+04  1.56935E+04 -6.78954E+03
  1.84414E+04  1.93984E+03  1.36293E+04  1.06842E+04  2.82050E+03  1.44160E+04 -7.79549E+03  1.20870E+04
 -1.01906E+04  3.42659E+03 -5.08323E+03 -2.51730E+03  1.66448E+03 -3.36346E+03  6.64979E+03 -1.04399E+03
  6.04717E+03  5.65456E+03  9.32377E+02  9.87478E+03 -6.87219E+03  9.31408E+03 -1.21236E+04  2.27507E+03
 -7.99155E+03 -6.22573E+03  3.83900E+02 -1.03579E+04  6.47682E+03 -5.37525E+03  6.79052E+03  2.59090E+03
  1.47350E+03  7.12234E+03 -6.50536E+03  8.56244E+03 -9.82494E+03  4.04541E+03 -9.73016E+03 -3.41050E+03
 -5.53411E+03 -1.15484E+04  2.78523E+03 -1.30528E+04  1.12338E+04 -8.02077E+03  1.22855E+04  2.00401E+03
  7.30078E+03  9.91098E+03 -1.22566E+03  1.20086E+04 -8.88624E+03  6.80858E+03 -9.24291E+03 -9.51245E+02
 -8.32539E+03 -8.14528E+03 -1.80681E+03 -8.56588E+03  4.88123E+03 -7.31043E+03  5.67170E+03 -3.64463E+03
  3.92639E+03  1.28416E+03 -7.14533E+02  2.06767E+03 -7.12720E+01 -2.08051E+03  1.38302E+03 -4.83514E+03
  7.94421E+03 -3.00012E+03  1.07214E+04  1.27126E+03  1.08173E+04  7.25054E+03  8.06179E+03  1.46184E+04
 -3.03434E+03  1.64743E+04 -1.38995E+04  1.26915E+04 -1.82722E+04  2.87039E+03 -1.45521E+04 -5.79170E+03
 -7.42384E+03 -1.16647E+04 -5.34607E+02 -1.02898E+04  3.87083E+03 -5.18012E+03  3.51385E+03 -3.86876E+03
  2.64593E+03 -2.47976E+03  2.98169E+03 -3.07328E+03  5.00317E+03 -2.57813E+03  5.77757E+03 -4.70534E+02
  7.43253E+03  2.08361E+03  3.64106E+03  6.56142E+03 -2.07198E+03  7.44043E+03 -8.31996E+03  5.42455E+03
 -1.01930E+04 -1.46874E+03 -5.61932E+03 -6.80669E+03 -5.18735E+02 -1.05552E+04  5.81283E+03 -1.01566E+04
  1.08889E+04 -6.50918E+03  1.31395E+04  1.48710E+03  9.26492E+03  8.91536E+03  1.75922E+03  1.17782E+04
 -4.76550E+03  1.03281E+04 -7.18792E+03  3.65329E+03 -4.67053E+03 -1.39299E+03 -1.52441E+03 -1.56580E+03
 -8.92189E+02 -1.15240E+02 -1.57480E+03  2.67556E+03 -4.18570E+03  1.85411E+03 -7.20831E+03 -8.24250E+02
 -4.50956E+03 -6.98687E+03  2.28509E+02 -9.70238E+03  5.62918E+03 -8.83013E+03  8.91920E+03 -2.64141E+03
  9.18821E+03  4.66770E+03  3.90803E+03  7.86022E+03 -1.78351E+03  9.62037E+03 -6.67335E+03  5.90514E+03
 -8.52847E+03  4.91971E+02 -7.08596E+03 -5.79658E+03 -6.60365E+02 -7.71267E+03  3.91591E+03 -5.80341E+03
  6.11774E+03 -2.43286E+03  4.25839E+03  1.40253E+03  1.49115E+03  2.97569E+03  1.17293E+03  1.22036E+03
  2.16507E+03  8.82473E+02  2.22699E+03  1.67403E+03  2.39881E+03  3.66586E+03  2.81742E+03  4.54051E+03
 -2.04356E+03  7.15962E+03 -5.97493E+03  7.33880E+03 -8.83563E+03  1.75288E+03 -9.91431E+03 -3.39043E+03
 -4.50803E+03 -8.91500E+03  1.25889E+03 -1.05445E+04  5.38076E+03 -5.98750E+03  7.61576E+03 -1.68558E+03
  5.91291E+03  3.73002E+03  1.17566E+03  5.07537E+03 -2.03183E+03  3.41197E+03 -3.40891E+03 -6.56517E+02
 -1.43095E+03 -3.81139E+03  1.91218E+03 -3.89521E+03  3.45636E+03 -1.76961E+03  3.41589E+03  6.50305E+02
  1.96656E+03  1.45268E+03  7.47063E+02  1.01824E+03 -7.26821E+02  1.28665E+03  1.47745E+03 -5.41653E+02
  1.23407E+03 -3.58315E+02  3.93742E+03  1.35597E+03  1.58721E+03  4.85991E+03 -9.09283E+02  6.23580E+03
 -3.97143E+03  3.77158E+03 -5.54648E+03  1.01699E+03 -4.71937E+03 -2.27419E+03 -1.62704E+03 -3.09281E+03
  5.34334E+02 -3.38241E+03  2.28749E+03 -1.50272E+03  1.79974E+03  2.04737E+03 -8.14218E+02  2.73291E+03
 -3.64643E+03  1.61246E+03 -3.64450E+03 -2.11538E+03 -2.27117E+03 -4.59318E+03  6.26420E+02 -4.59174E+03
  2.50084E+03 -2.47334E+03  2.88265E+03 -6.78000E+01  3.08392E+03  9.73015E+02  5.42165E+02  2.67001E+03
 -1.39900E+03  7.05051E+02 -2.09520E+03 -1.23421E+03  1.01540E+03 -3.39791E+03  4.49211E+03 -2.44009E+03
  5.22816E+03  5.31996E+02  5.73889E+03  3.07106E+03  1.81561E+03  5.25221E+03 -1.42167E+03  5.13187E+03
 -4.23516E+03  1.92219E+03 -4.39492E+03 -5.24356E+02 -2.75197E+03 -3.58926E+03  6.99649E+02 -2.98775E+03
  3.37506E+03 -1.88425E+03  2.91849E+03  1.45946E+03  1.04884E+03  3.21097E+03 -2.51375E+02  2.87489E+03
 -1.64010E+03  1.79671E+03 -1.11181E+03  5.34530E+02 -6.97840E+02  7.26731E+02 -7.78899E+02  1.15536E+03
 -1.64116E+03  2.33578E+03 -3.87136E+03  1.63468E+03 -5.38596E+03  2.51281E+02 -5.88488E+03 -2.88042E+03
 -3.12351E+03 -6.70146E+03  1.64585E+03 -8.19083E+03  4.55385E+03 -6.52701E+03  7.79486E+03 -2.37010E+03
  7.07597E+03  1.07547E+03  4.17420E+03  4.53660E+03  4.54694E+01  4.99024E+03 -2.10739E+03  3.80491E+03
 -2.92626E+03  1.44448E+03 -1.85669E+03 -6.01226E+02 -9.05096E+02 -2.00787E+02 -6.21765E+02  1.44636E+02
 -1.10463E+03 -3.84228E+01 -1.64000E+03 -2.76110E+02 -1.04813E+02 -1.37498E+03 -2.74475E+02 -1.97585E+03
  2.93665E+03 -1.68681E+03  2.88196E+03  1.04087E+01  3.48668E+03  2.83697E+03  4.56711E+02  4.72508E+03
 -2.59895E+03  6.23592E+03 -5.35192E+03  3.63440E+03 -6.10132E+03 -2.51111E+02 -4.40301E+03 -3.75643E+03
 -1.99189E+03 -4.80672E+03  1.26583E+03 -4.21925E+03  3.11557E+03 -2.09604E+03  2.82257E+03  1.05621E+02
  2.06166E+03  1.73133E+03 -1.29143E+02  1.32372E+03 -7.90963E+02 -1.64094E+02  1.16381E+02 -1.31681E+03
  1.67525E+03 -4.28933E+02  1.75149E+03  7.44638E+02  1.30182E+03  1.88586E+03  4.50381E+02  2.47417E+03
 -2.01803E+03  2.52947E+03 -3.00293E+03  2.66263E+02 -2.55742E+03 -2.21990E+03 -1.24850E+01 -3.75560E+03
  2.07184E+03 -2.94713E+03  3.55536E+03 -6.25631E+02  3.55689E+03  4.81312E+02  1.65078E+03  2.83287E+03
  9.09872E+02  2.86924E+03 -8.68185E+02  2.54864E+03 -2.09604E+03  1.57686E+03 -1.38279E+03  1.64574E+02
 -8.97639E+02 -4.41976E+02 -1.17077E+03  7.23463E+02 -1.68893E+03  4.54523E+02 -2.54665E+03 -6.57064E+02
 -2.54160E+03 -7.57432E+02 -4.37266E+02 -2.94610E+03  1.79626E+03 -3.85540E+03  2.75572E+03 -1.34604E+03
  3.21956E+03  2.67754E+02  9.39986E+02  2.04042E+03 -1.12617E+02  3.17213E+03 -2.12408E+03  1.72751E+03
