 $NMID ID='MM_0lb_SNR800_20hz_g45_55.RAW', FMTDAT='(8E13.5)'
 TRAMP=1., VOLUME=1. $END
  3.10046E+05  3.29678E+02  3.37161E+05  2.50248E+05  8.44092E+04  3.37155E+05 -1.32418E+05  2.49947E+05
 -1.89689E+05  8.22311E+04 -1.10772E+05 -3.29437E+04  1.62759E+03 -5.03319E+04  5.39398E+04  3.40504E+02
  3.51993E+04  5.27759E+04 -1.69219E+04  7.50608E+04 -6.00579E+04  6.23921E+04 -8.25573E+04  3.11374E+04
 -7.93044E+04 -1.10096E+04 -5.57242E+04 -4.99733E+04 -1.51465E+04 -6.79850E+04  2.64542E+04 -4.46306E+04
  3.88099E+04  3.89831E+03  1.53298E+04  4.65617E+04 -3.35792E+04  4.59890E+04 -6.50751E+04 -8.45650E+02
 -5.13970E+04 -5.53633E+04 -6.12071E+03 -7.46140E+04  3.28800E+04 -5.27621E+04  4.55658E+04 -1.60939E+04
  4.11036E+04  1.09561E+04  3.04079E+04  2.40520E+04  1.56515E+04  2.80039E+04 -4.66203E+03  2.67308E+04
 -2.14032E+04  1.32315E+04 -1.92791E+04 -4.02256E+03  3.78199E+03 -7.50141E+03  2.10043E+04  1.02433E+04
  7.53292E+03  3.27149E+04 -2.98972E+04  3.35476E+04 -6.04130E+04  2.08934E+03 -5.49366E+04 -4.05440E+04
 -1.23231E+04 -5.99275E+04  3.75737E+04 -4.28617E+04  5.46188E+04 -1.72957E+03  3.12924E+04  2.98164E+04
 -6.74670E+03  3.18739E+04 -2.79629E+04  1.21277E+04 -2.66960E+04 -5.48350E+03 -1.36896E+04 -9.77777E+03
 -6.96010E+03 -1.09358E+04 -8.85338E+02 -1.60663E+04  6.36310E+03 -2.23759E+04  1.47500E+04 -1.40042E+04
  1.25357E+04  4.34350E+03 -5.34902E+03  1.33073E+04 -1.86709E+04 -1.83941E+03 -8.08782E+03 -2.92219E+04
  2.01002E+04 -3.97231E+04  4.38205E+04 -1.83074E+04  4.08792E+04  1.76357E+04  1.36661E+04  4.08276E+04
 -1.53075E+04  3.01814E+04 -2.26134E+04  7.08552E+02 -7.73447E+03 -2.59104E+04  2.03930E+04 -3.02663E+04
  3.71569E+04 -6.74405E+03  3.01700E+04  2.21296E+04  1.44675E+04  4.11617E+04 -7.59629E+03  4.34394E+04
 -2.75142E+04  2.85407E+04 -3.54847E+04  7.81093E+03 -3.68975E+04 -1.45488E+04 -2.06328E+04 -3.32194E+04
  6.53016E+03 -3.30921E+04  2.84357E+04 -1.19461E+04  2.63266E+04  1.06425E+04  2.71375E+03  1.74855E+04
 -1.31794E+04  6.95180E+03 -9.37303E+03 -7.61921E+03  5.93339E+03 -9.61704E+03  1.69908E+04  6.57788E+03
  1.19714E+04  2.15496E+04 -6.97272E+03  2.26260E+04 -2.13154E+04  8.65372E+03 -2.41935E+04 -7.13137E+03
 -1.56195E+04 -1.61113E+04 -4.82556E+03 -1.56083E+04  3.48334E+03 -1.30586E+04  1.14546E+04 -1.30341E+04
  1.93777E+04 -1.11121E+04  2.67414E+04  7.23762E+02  2.04726E+04  1.52435E+04  4.12705E+03  3.09249E+04
 -1.53773E+04  2.66508E+04 -2.50750E+04  8.96991E+03 -1.93355E+04 -1.04533E+04 -3.99384E+03 -1.38337E+04
  3.01180E+03 -4.74299E+03 -1.88830E+03  5.07208E+03 -1.18456E+04  5.43346E+03 -1.22481E+04 -4.19999E+03
 -8.08728E+03 -1.44794E+04  4.05371E+03 -1.80172E+04  1.18152E+04 -1.32435E+04  1.33777E+04 -1.18029E+03
  8.12194E+03  1.00197E+04 -7.68626E+02  1.47962E+04 -9.72003E+03  7.81697E+03 -1.43468E+04 -3.28174E+03
 -1.09150E+04 -1.32264E+04 -1.27819E+03 -1.78153E+04  8.25128E+03 -1.43556E+04  1.50680E+04 -6.61466E+03
  1.35369E+04  8.32920E+02  9.78389E+03  3.96334E+03  4.69518E+03  2.39550E+02  6.87425E+03 -1.33073E+03
  1.26807E+04  2.74761E+03  1.32689E+04  1.19841E+04  8.00480E+03  2.28577E+04 -3.04453E+03  2.41799E+04
 -1.45652E+04  1.81469E+04 -2.21219E+04  8.17259E+03 -2.23938E+04 -1.71128E+03 -1.95124E+04 -1.28585E+04
 -9.28365E+03 -1.80004E+04  5.66905E+03 -1.72131E+04  1.48218E+04 -1.02835E+04  1.41520E+04  3.02087E+03
  6.34272E+03  1.04947E+04 -6.30620E+03  9.29979E+03 -1.22455E+04  2.65044E+03 -9.87631E+03 -7.46409E+03
 -2.02903E+02 -1.14606E+04  5.30427E+03 -8.84003E+03  7.23356E+03 -1.31741E+03  1.45062E+03  4.40822E+03
 -5.39969E+03  9.33286E+02 -2.90794E+03 -4.66512E+03  9.61349E+02 -9.09448E+03  7.62943E+03 -8.92278E+03
  1.07281E+04 -3.92068E+03  1.00723E+04  2.65442E+03  8.70191E+03  8.40002E+03  4.31940E+03  1.22357E+04
 -1.44570E+03  1.42440E+04 -7.95357E+03  9.23852E+03 -9.74912E+03  2.82306E+03 -7.74748E+03 -1.39087E+03
 -4.40321E+03 -2.74287E+03 -5.66981E+02  1.66275E+03 -1.84422E+03  1.69128E+03 -3.25173E+03  3.15872E+03
 -7.30624E+03 -4.98693E+02 -8.13888E+03 -6.57502E+03 -3.23363E+03 -1.07386E+04  3.13321E+03 -7.52064E+03
  6.37249E+03 -3.28446E+03  4.54239E+03  1.77109E+03  5.41967E+02  2.82656E+03 -3.10375E+03 -3.08900E+02
 -2.71417E+03 -4.68179E+03 -7.55768E+02 -6.25775E+03  3.21824E+03 -6.83828E+03  8.75533E+03 -3.52661E+03
  1.02783E+04  5.35212E+02  7.87622E+03  5.22154E+03  1.72090E+03  7.33248E+03 -4.84477E+03  7.54218E+03
 -6.27904E+03  2.49771E+03 -3.15933E+03 -8.04765E+02  1.14212E+03 -1.42839E+03  4.35050E+03 -8.10942E+02
  3.77594E+03  3.09945E+03  1.25413E+03  5.50137E+03 -4.19524E+03  5.84041E+03 -7.05755E+03  1.72773E+03
 -4.26787E+03 -3.07107E+03  4.26484E+02 -5.90904E+03  3.11754E+03 -2.78985E+03  2.61871E+03  7.68742E+02
  6.00464E+02  2.64207E+03 -3.72757E+03  4.03796E+03 -3.77485E+03  2.41792E+03 -3.54116E+03 -6.78809E+02
 -2.51036E+03 -4.91115E+03  1.15288E+03 -6.06648E+03  4.98566E+03 -3.88806E+03  5.49531E+03  8.32987E+02
  4.12450E+03  4.53341E+03  4.04768E+02  6.22658E+03 -4.35530E+03  3.84685E+03 -4.38771E+03 -2.05796E+01
 -5.33619E+03 -4.60771E+03 -1.50648E+03 -4.36336E+03  2.03707E+03 -4.00052E+03  2.38327E+03 -2.80553E+03
  2.79391E+03 -1.36100E+02  2.19797E+02  1.26260E+03  5.20481E+02 -2.94936E+01 -1.50085E+02 -1.26426E+03
  2.78777E+03 -2.40306E+02  4.37036E+03  6.84713E+02  4.70720E+03  2.43669E+03  4.46827E+03  5.71408E+03
 -6.87921E+02  6.71424E+03 -6.47260E+03  5.25961E+03 -8.21316E+03  9.46893E+02 -6.82374E+03 -1.82931E+03
 -3.77121E+03 -5.34524E+03 -3.64651E+02 -4.38643E+03  1.98548E+03 -1.58454E+03  1.19512E+03 -1.75320E+03
  1.03225E+03 -9.58910E+02  2.12534E+03 -2.22847E+03  3.37723E+03 -8.70422E+02  3.36909E+03  6.65826E+02
  3.99045E+03  1.14809E+03  7.94277E+02  2.74208E+03 -1.41570E+03  2.05736E+03 -3.82673E+03  2.36726E+03
 -4.02726E+03 -1.16050E+03 -8.54581E+02 -2.41602E+03  4.66751E+02 -3.83532E+03  2.79541E+03 -4.53416E+03
  4.24378E+03 -2.75872E+03  5.67577E+03 -1.32930E+01  3.98501E+03  3.45982E+03  9.31043E+02  4.77342E+03
 -1.64543E+03  5.09050E+03 -2.46222E+03  1.45722E+03 -1.40146E+03 -1.00830E+03 -1.80759E+02 -3.96779E+02
 -2.54543E+02  4.21264E+02 -4.99681E+02  1.86615E+03 -2.32676E+03  9.52460E+02 -3.69664E+03 -3.95505E+02
 -1.08931E+03 -3.54882E+03  9.63309E+02 -3.79065E+03  2.02208E+03 -3.52310E+03  2.68759E+03 -8.83903E+02
  3.40951E+03  2.07513E+03  1.46781E+03  2.60992E+03 -6.87784E+02  3.62669E+03 -2.05107E+03  2.06878E+03
 -2.98568E+03  5.92265E+02 -2.84129E+03 -2.15041E+03 -3.22546E+02 -2.32475E+03  1.26727E+03 -2.08591E+03
  2.19034E+03 -1.05946E+03  1.39016E+03  2.82871E+02  5.32791E+02  1.46582E+03  8.48852E+02  6.00029E+02
  1.50408E+03  7.54017E+02  8.82408E+02  1.00982E+03  7.93517E+02  1.83298E+03  1.60483E+03  1.21080E+03
 -1.26428E+03  2.40996E+03 -1.90877E+03  3.55367E+03 -1.93231E+03  1.17648E+03 -3.24927E+03  3.13147E+01
 -1.12905E+03 -2.75141E+03  4.87817E+02 -3.69082E+03  1.24145E+03 -1.90986E+03  2.50196E+03 -7.64982E+02
  1.76870E+03  1.48659E+03  4.02162E+02  1.93223E+03 -2.83625E+02  1.03031E+03 -7.08307E+02 -2.53547E+02
 -2.89275E+02 -1.35372E+03  1.03133E+03 -1.21665E+03  1.01971E+03 -8.56988E+02  9.24523E+02  9.51387E+01
  4.68255E+02  4.62909E+01  4.67755E+02 -5.32233E+02 -1.72294E+02  5.18048E+02  1.36113E+03 -1.56061E+02
 -2.93681E+02 -1.44552E+02  1.43840E+03  5.19896E+02 -1.94161E+02  1.99840E+03 -3.17210E+02  2.28799E+03
 -1.10654E+03  5.73716E+02 -1.36326E+03  1.07233E+02 -1.63928E+03 -5.01631E+02  9.86972E+01 -7.06869E+02
  2.52623E+02 -9.70716E+02  9.03093E+02 -6.60392E+02  5.36664E+02  1.16128E+03 -5.44943E+02  9.92811E+02
 -1.08094E+03  7.93573E+02 -6.89749E+02 -1.20826E+03 -6.51627E+02 -1.91604E+03  1.24895E+02 -1.26804E+03
  2.06700E+02 -2.48164E+02  3.25144E+02  1.07754E+02  7.93295E+02 -1.57354E+02  2.12508E+02  1.05184E+03
  3.67246E+01  1.83483E+01 -5.84380E+02 -1.39601E+02  9.16046E+02 -3.27357E+02  1.46507E+03 -5.80509E+02
  6.38065E+02  3.65471E+02  2.57900E+03  5.10319E+02  1.33747E+03  1.06246E+03 -3.61331E+02  1.38814E+03
 -9.55478E+02  4.87664E+01 -9.72023E+02 -1.95292E+02 -7.06198E+02 -9.91803E+02  5.01489E+02 -3.51740E+02
  1.31038E+03 -3.94296E+02  5.88350E+02  3.23306E+02  8.22449E+01  9.94673E+02  4.73308E+02  9.41742E+02
 -4.06700E+02  1.27439E+03 -4.60608E+02  5.35771E+02  1.12522E+02  2.15138E+02 -7.35892E+02  4.84490E+02
 -5.18335E+02  7.61892E+02 -1.34638E+03  3.81536E+02 -1.29165E+03  5.63607E+01 -1.82672E+03 -6.37585E+02
 -1.00658E+03 -1.82220E+03  1.69426E+02 -2.08043E+03  7.19131E+02 -2.08748E+03  2.03646E+03 -9.28975E+02
  1.69589E+03 -3.50653E+02  7.60187E+02  1.14929E+03 -7.13256E+02  1.02143E+03 -5.81799E+02  9.08456E+02
 -5.35232E+02  6.12973E+02 -1.53885E+02 -8.96735E+01 -1.15300E+02  3.23414E+02 -5.51814E+02 -1.29313E+02
 -9.43026E+02 -1.34219E+02 -7.69708E+02  1.74056E+02  4.44295E+02 -7.85752E+02 -2.57585E+02 -7.71431E+02
  1.26853E+03 -4.98025E+02 -8.59434E+01  2.97782E+02  9.38963E+02  1.07106E+03 -5.13274E+02  1.11579E+03
 -8.44615E+02  1.74119E+03 -1.27530E+03  8.04796E+02 -9.71489E+02 -2.22582E+01 -9.01942E+02 -1.02149E+03
 -6.75757E+02 -8.39875E+02  1.20429E+02 -8.95027E+02  2.76537E+02  8.06678E+01  4.35429E+02  1.07569E+02
  5.76508E+02  1.14014E+02  4.10585E+02  1.73650E+02 -1.69243E+02  6.67185E+01 -1.05937E-01  1.00748E+02
  2.85473E+02  1.85486E+02  1.77029E+02  5.78256E+02 -6.99920E+01  1.30802E+02  7.05814E+02  1.38177E+02
 -4.43975E+02  2.78648E+02 -4.19165E+02  1.23266E+02 -6.76537E+02 -2.72439E+02  7.37212E+01 -5.52677E+02
  3.16095E+02 -1.84149E+02 -2.34712E+01  4.39857E+02  6.64764E+02 -4.71252E+02  2.54158E+02  7.54625E+02
  3.95098E+02  3.15368E+02  4.05104E+01 -7.91113E+00 -3.15660E+02  5.55246E+02 -3.05681E+02  9.31731E+01
 -1.00604E+02 -1.46942E+02 -4.15162E+02  9.52492E+01 -4.16291E+02  1.82023E+02 -6.51441E+02 -2.99795E+02
 -7.80327E+02  4.98183E+02 -2.81507E+02 -7.05689E+02  5.51241E+02 -1.47269E+03  7.17807E+02 -1.71707E+02
  3.51239E+02 -7.46537E+01 -2.92751E+02  1.07224E+02 -2.74026E+02  3.83304E+02 -4.59892E+01  3.67699E+02
