 $NMID ID='MM_0lb_SNR800_8hz_g45_94.RAW', FMTDAT='(8E13.5)'
 TRAMP=1., VOLUME=1. $END
  3.09594E+05  3.28859E+02  3.38007E+05  2.50985E+05  8.48632E+04  3.38528E+05 -1.32220E+05  2.52322E+05
 -1.90691E+05  8.37063E+04 -1.12672E+05 -3.25510E+04  1.04309E+02 -5.03602E+04  5.34911E+04 -5.56890E+02
  3.57580E+04  5.31852E+04 -1.63262E+04  7.55920E+04 -6.15145E+04  6.44394E+04 -8.58213E+04  3.26990E+04
 -8.26793E+04 -1.20725E+04 -5.81660E+04 -5.19529E+04 -1.50457E+04 -7.11562E+04  2.86402E+04 -4.64584E+04
  4.08787E+04  3.60972E+03  1.69747E+04  4.85126E+04 -3.43941E+04  4.82968E+04 -6.80842E+04  1.05245E+02
 -5.50487E+04 -5.78894E+04 -7.32677E+03 -7.88480E+04  3.54151E+04 -5.69294E+04  4.99081E+04 -1.84573E+04
  4.52009E+04  1.13157E+04  3.26762E+04  2.66787E+04  1.62929E+04  3.05974E+04 -5.70751E+03  2.77710E+04
 -2.23861E+04  1.11559E+04 -1.77880E+04 -5.60546E+03  7.38473E+03 -7.18641E+03  2.35126E+04  1.41443E+04
  6.78256E+03  3.75585E+04 -3.44830E+04  3.73242E+04 -6.58199E+04  2.21839E+03 -5.89208E+04 -4.45690E+04
 -1.26231E+04 -6.61775E+04  4.16984E+04 -4.75548E+04  6.13807E+04 -2.75686E+03  3.67743E+04  3.44563E+04
 -5.02779E+03  3.93408E+04 -3.20642E+04  1.89021E+04 -3.38945E+04 -3.14072E+03 -1.95920E+04 -1.20696E+04
 -9.44604E+03 -1.55585E+04 -5.30688E+02 -1.98741E+04  8.65077E+03 -2.38148E+04  1.59120E+04 -1.26475E+04
  9.99108E+03  6.48968E+03 -1.08885E+04  1.31378E+04 -2.40594E+04 -6.63364E+03 -8.51502E+03 -3.76646E+04
  2.55262E+04 -4.68993E+04  5.22410E+04 -2.06989E+04  4.89415E+04  2.10308E+04  1.76263E+04  4.73675E+04
 -1.66800E+04  3.64568E+04 -2.79197E+04  3.33295E+03 -1.19669E+04 -2.95532E+04  2.11825E+04 -3.71635E+04
  4.50421E+04 -1.11210E+04  4.08047E+04  2.52405E+04  2.16826E+04  5.12093E+04 -8.67128E+03  5.65549E+04
 -3.60190E+04  3.87861E+04 -4.80712E+04  1.11059E+04 -4.82182E+04 -1.86716E+04 -2.62447E+04 -4.26449E+04
  8.14530E+03 -4.28526E+04  3.45703E+04 -1.75453E+04  3.24519E+04  1.15895E+04  5.70803E+03  2.08893E+04
 -1.41172E+04  1.02062E+04 -1.14455E+04 -7.59974E+03  5.35903E+03 -1.16579E+04  1.91152E+04  5.84392E+03
  1.47756E+04  2.28609E+04 -5.26698E+03  2.73530E+04 -2.40727E+04  1.45051E+04 -3.24269E+04 -3.03290E+03
 -2.61026E+04 -1.86737E+04 -1.20779E+04 -2.55411E+04  4.26718E+03 -2.62531E+04  2.03210E+04 -2.30415E+04
  3.29668E+04 -1.38636E+04  3.90617E+04  4.92472E+03  2.73868E+04  2.43177E+04  4.66312E+03  4.18092E+04
 -2.03878E+04  3.42164E+04 -3.08644E+04  1.19521E+04 -2.26898E+04 -1.03306E+04 -5.04292E+03 -1.29265E+04
  6.07261E+02 -6.76728E+02 -8.25086E+03  8.10208E+03 -2.10971E+04  4.75208E+03 -2.02458E+04 -9.68504E+03
 -1.24508E+04 -2.39524E+04  5.94891E+03 -2.83225E+04  1.92980E+04 -2.00144E+04  2.32595E+04 -2.11080E+03
  1.50363E+04  1.63446E+04 -1.48460E+03  2.36774E+04 -1.69810E+04  1.39327E+04 -2.41816E+04 -4.88126E+03
 -1.75092E+04 -2.08603E+04 -2.15540E+03 -2.85354E+04  1.26694E+04 -2.37068E+04  2.37733E+04 -1.24553E+04
  2.27245E+04 -8.18877E+02  1.58180E+04  5.73826E+03  9.29785E+03  1.91216E+03  1.25526E+04 -2.22878E+03
  2.26465E+04  2.99689E+03  2.63544E+04  1.89238E+04  1.79508E+04  3.85350E+04 -2.82946E+03  4.55087E+04
 -2.61375E+04  3.79251E+04 -4.30817E+04  1.96886E+04 -4.63733E+04 -3.13286E+03 -3.72552E+04 -2.71629E+04
 -1.48324E+04 -3.84965E+04  1.35019E+04 -3.34304E+04  2.90553E+04 -1.55992E+04  2.47449E+04  8.18269E+03
  8.38212E+03  1.91926E+04 -1.22747E+04  1.62507E+04 -2.01947E+04  2.49017E+03 -1.53177E+04 -1.30865E+04
 -3.90930E+02 -2.00505E+04  1.07164E+04 -1.51582E+04  1.35678E+04 -1.25388E+03  3.45078E+03  9.41434E+03
 -8.61560E+03  4.08335E+03 -9.79887E+03 -7.34418E+03 -2.19816E+03 -1.89006E+04  1.19736E+04 -2.08621E+04
  2.38061E+04 -1.21609E+04  2.68775E+04  4.05786E+03  2.39282E+04  1.96272E+04  1.09635E+04  3.05547E+04
 -6.02661E+03  3.29738E+04 -2.11909E+04  1.99316E+04 -2.37945E+04  4.06636E+03 -1.58576E+04 -6.36091E+03
 -6.89391E+03 -7.49328E+03 -5.32464E+02  1.65229E+02 -2.73362E+03  3.30398E+03 -7.78490E+03  5.78720E+03
 -1.47870E+04 -1.11876E+03 -1.49278E+04 -1.22429E+04 -6.11796E+03 -2.03850E+04  6.58763E+03 -1.60218E+04
  1.35904E+04 -6.96855E+03  9.45818E+03  4.37355E+03 -3.97859E+02  6.51745E+03 -8.35172E+03 -2.37161E+02
 -7.71934E+03 -1.08235E+04 -1.28532E+03 -1.64111E+04  9.71596E+03 -1.72209E+04  2.08741E+04 -9.53966E+03
  2.50201E+04  2.70986E+03  1.78490E+04  1.48252E+04  3.35770E+03  2.01832E+04 -9.96466E+03  1.61286E+04
 -1.32813E+04  4.78372E+03 -6.58588E+03 -4.32993E+03  2.22263E+03 -4.42607E+03  8.56971E+03 -1.30625E+03
  7.97530E+03  7.09260E+03  1.48249E+03  1.33140E+04 -9.56149E+03  1.26236E+04 -1.65352E+04  2.65235E+03
 -1.13083E+04 -8.51999E+03  3.92999E+02 -1.43156E+04  9.68448E+03 -7.32550E+03  1.00143E+04  3.48238E+03
  2.49508E+03  1.07529E+04 -8.49860E+03  1.20887E+04 -1.49215E+04  5.28435E+03 -1.51269E+04 -5.10641E+03
 -8.34090E+03 -1.69911E+04  4.11563E+03 -1.92884E+04  1.61833E+04 -1.11391E+04  1.78317E+04  3.19165E+03
  1.01957E+04  1.44759E+04 -1.70622E+03  1.69067E+04 -1.24808E+04  8.97244E+03 -1.33603E+04 -1.32631E+03
 -1.12069E+04 -1.10508E+04 -1.48568E+03 -1.27254E+04  6.78538E+03 -1.04794E+04  7.98937E+03 -3.60320E+03
  5.48805E+03  2.98584E+03 -1.07000E+03  1.59172E+03 -6.01661E+02 -3.86941E+03  3.11618E+03 -8.33782E+03
  1.25051E+04 -5.01525E+03  1.73943E+04  2.26642E+03  1.71538E+04  1.14823E+04  1.07277E+04  2.24540E+04
 -5.65307E+03  2.54801E+04 -2.10921E+04  1.88153E+04 -2.75861E+04  3.49384E+03 -2.19376E+04 -9.65368E+03
 -1.10140E+04 -1.81120E+04 -5.72204E+02 -1.58343E+04  5.55601E+03 -8.87557E+03  5.57131E+03 -5.28789E+03
  4.08998E+03 -3.14236E+03  4.23125E+03 -4.05162E+03  5.99354E+03 -3.51669E+03  8.54460E+03 -1.56734E+03
  1.17424E+04  2.62028E+03  6.20740E+03  1.02984E+04 -2.15646E+03  1.24475E+04 -1.22966E+04  9.76622E+03
 -1.54605E+04 -1.34698E+03 -1.04949E+04 -1.13410E+04 -1.37496E+03 -1.74532E+04  9.30025E+03 -1.72912E+04
  1.79719E+04 -9.06577E+03  2.09249E+04  2.73749E+03  1.46043E+04  1.51960E+04  2.31523E+03  1.90602E+04
 -7.59475E+03  1.49773E+04 -1.11224E+04  4.98502E+03 -7.86275E+03 -1.93999E+03 -3.43549E+03 -2.54241E+03
 -9.93560E+02 -9.61720E+01 -2.48849E+03  2.92676E+03 -6.81290E+03  3.06314E+03 -1.09339E+04 -1.53551E+03
 -8.31937E+03 -1.11857E+04  1.15794E+02 -1.56043E+04  9.69708E+03 -1.47922E+04  1.58710E+04 -4.58958E+03
  1.59476E+04  7.72531E+03  7.40962E+03  1.37622E+04 -2.91704E+03  1.60508E+04 -1.14064E+04  1.00678E+04
 -1.53579E+04  3.53318E+02 -1.17368E+04 -9.97982E+03 -1.02464E+03 -1.35602E+04  7.32231E+03 -9.85949E+03
  1.05580E+04 -2.75145E+03  7.12403E+03  2.55509E+03  2.27895E+03  4.71849E+03  1.31892E+03  2.21923E+03
  2.75360E+03  1.46896E+03  3.80976E+03  2.19068E+03  4.60148E+03  5.93866E+03  4.08844E+03  8.75093E+03
 -3.37782E+03  1.31166E+04 -1.17404E+04  1.29444E+04 -1.69194E+04  3.17300E+03 -1.77072E+04 -7.72931E+03
 -8.41153E+03 -1.67972E+04  2.50567E+03 -1.83185E+04  1.01574E+04 -1.15660E+04  1.34765E+04 -2.74321E+03
  1.09663E+04  5.85433E+03  2.45311E+03  9.73825E+03 -4.55743E+03  5.97438E+03 -7.16566E+03 -1.21564E+03
 -3.10726E+03 -6.78189E+03  3.67240E+03 -7.61571E+03  6.59615E+03 -3.74435E+03  6.98132E+03  1.77599E+03
  4.06415E+03  3.82903E+03  1.90008E+03  3.03017E+03 -1.09874E+03  2.56308E+03  1.58060E+03 -6.72967E+02
  2.92772E+03 -9.34049E+02  7.19585E+03  2.81902E+03  3.66203E+03  8.85234E+03 -1.23987E+03  1.17509E+04
 -8.60893E+03  8.01862E+03 -1.05695E+04  2.33649E+03 -9.52648E+03 -3.57593E+03 -3.77035E+03 -6.83563E+03
  1.24382E+03 -6.79670E+03  4.28791E+03 -3.30907E+03  3.92752E+03  3.05835E+03 -1.69390E+03  5.51814E+03
 -7.04980E+03  2.93588E+03 -7.94566E+03 -3.81351E+03 -4.61868E+03 -9.33884E+03  1.61264E+03 -9.71198E+03
  6.03089E+03 -5.76291E+03  7.01286E+03 -1.30300E+03  5.34601E+03  2.67037E+03  7.98619E+02  4.83177E+03
 -3.32525E+03  1.72539E+03 -3.90382E+03 -3.33000E+03  1.44202E+03 -7.01979E+03  8.92050E+03 -6.02998E+03
  1.09307E+04  8.02196E+02  1.04864E+04  7.33506E+03  3.35454E+03  1.11895E+04 -3.78503E+03  1.05703E+04
 -9.43762E+03  4.63628E+03 -9.75732E+03 -1.71409E+03 -5.21589E+03 -7.28797E+03  1.75189E+03 -7.01907E+03
  6.37822E+03 -3.67402E+03  6.27704E+03  3.07130E+03  2.28547E+03  6.52842E+03 -1.21537E+03  5.52461E+03
 -3.22023E+03  3.44075E+03 -2.94790E+03  1.06458E+03 -1.18416E+03  9.92282E+02 -1.74594E+03  2.32433E+03
 -2.85736E+03  4.37705E+03 -8.25800E+03  3.70130E+03 -1.16701E+04  2.39740E+02 -1.28934E+04 -7.41414E+03
 -6.81195E+03 -1.55165E+04  2.59778E+03 -1.75999E+04  1.06763E+04 -1.37654E+04  1.64099E+04 -5.35721E+03
  1.58000E+04  3.00031E+03  9.50405E+03  1.09175E+04  6.67749E+02  1.22625E+04 -4.91484E+03  8.39196E+03
 -6.48109E+03  3.04328E+03 -4.44008E+03 -1.49607E+03 -1.33774E+03 -1.31899E+03 -8.51374E+02  1.31966E+02
 -2.63226E+03  2.72464E+02 -2.78179E+03 -3.88376E+02 -1.27893E+03 -2.96292E+03  2.97414E+02 -4.24624E+03
  5.61743E+03 -3.80702E+03  7.84995E+03  4.52232E+02  8.67487E+03  6.58915E+03  2.71652E+03  1.20480E+04
 -5.62763E+03  1.38145E+04 -1.33173E+04  7.95750E+03 -1.46809E+04 -7.38124E+02 -1.12134E+04 -9.17468E+03
 -4.67964E+03 -1.21121E+04  3.06767E+03 -1.11837E+04  7.53563E+03 -6.53642E+03  7.73232E+03  4.98238E+00
  4.30839E+03  4.17275E+03 -2.46628E+02  3.35667E+03 -2.37084E+03 -2.30737E+02  2.91454E+02 -2.63403E+03
  3.94289E+03 -1.77706E+03  4.96535E+03  1.88903E+03  3.04398E+03  4.69069E+03  3.47075E+02  6.68637E+03
 -5.44144E+03  5.43846E+03 -8.35017E+03  8.12593E+02 -7.65107E+03 -6.20524E+03 -1.13450E+03 -1.03167E+04
  5.85708E+03 -8.43425E+03  9.50852E+03 -2.68833E+03  9.71571E+03  2.61854E+03  5.59797E+03  7.01333E+03
  9.56841E+02  8.07635E+03 -3.16130E+03  6.69272E+03 -5.48261E+03  3.54615E+03 -3.89037E+03  4.22125E+02
 -2.21945E+03 -1.42440E+01 -2.96708E+03  1.09604E+03 -4.22390E+03  1.18912E+03 -6.62603E+03 -1.49682E+03
 -6.35875E+03 -4.31375E+03 -1.71887E+03 -7.88496E+03  3.62018E+03 -8.83468E+03  7.28599E+03 -4.47815E+03
  8.61089E+03  1.05183E+03  4.67068E+03  6.13477E+03 -6.51852E+02  8.57307E+03 -6.80615E+03  5.07134E+03
