 $NMID ID='MM_0lb_SNR800_13hz_g45_71.RAW', FMTDAT='(8E13.5)'
 TRAMP=1., VOLUME=1. $END
  3.09547E+05  4.84544E+02  3.37600E+05  2.50625E+05  8.47368E+04  3.37715E+05 -1.32393E+05  2.51126E+05
 -1.90383E+05  8.32008E+04 -1.11728E+05 -3.23941E+04  9.07396E+02 -5.06957E+04  5.38836E+04 -1.50997E+02
  3.51322E+04  5.29258E+04 -1.65051E+04  7.56331E+04 -6.07364E+04  6.38002E+04 -8.46409E+04  3.21849E+04
 -8.10179E+04 -1.14743E+04 -5.73487E+04 -5.14340E+04 -1.47907E+04 -6.98219E+04  2.74923E+04 -4.58238E+04
  4.03428E+04  4.06785E+03  1.61897E+04  4.77574E+04 -3.42642E+04  4.71194E+04 -6.66392E+04 -3.72552E+02
 -5.34050E+04 -5.71724E+04 -6.80776E+03 -7.72665E+04  3.39138E+04 -5.51137E+04  4.78614E+04 -1.74397E+04
  4.34605E+04  1.12225E+04  3.19373E+04  2.53619E+04  1.59539E+04  2.92620E+04 -5.46374E+03  2.72423E+04
 -2.19171E+04  1.21427E+04 -1.85054E+04 -5.13974E+03  5.90881E+03 -7.57913E+03  2.21424E+04  1.25310E+04
  7.27286E+03  3.58209E+04 -3.23583E+04  3.53984E+04 -6.34131E+04  2.13871E+03 -5.71135E+04 -4.28976E+04
 -1.26038E+04 -6.34337E+04  3.98453E+04 -4.55672E+04  5.83922E+04 -2.28507E+03  3.42694E+04  3.26381E+04
 -6.06883E+03  3.62919E+04 -3.00581E+04  1.65241E+04 -3.04784E+04 -4.37878E+03 -1.69594E+04 -1.11536E+04
 -8.50957E+03 -1.36365E+04 -9.18954E+02 -1.83552E+04  7.65861E+03 -2.28806E+04  1.55617E+04 -1.30361E+04
  1.12858E+04  5.43048E+03 -8.57823E+03  1.27462E+04 -2.16186E+04 -4.65880E+03 -8.29989E+03 -3.39991E+04
  2.28341E+04 -4.38050E+04  4.86709E+04 -1.98691E+04  4.54533E+04  1.95007E+04  1.59322E+04  4.40436E+04
 -1.60887E+04  3.40753E+04 -2.57571E+04  1.80555E+03 -9.86482E+03 -2.78928E+04  2.11695E+04 -3.44887E+04
  4.13795E+04 -9.34266E+03  3.62508E+04  2.36834E+04  1.85900E+04  4.71117E+04 -8.12725E+03  5.07822E+04
 -3.17538E+04  3.41707E+04 -4.26236E+04  9.62912E+03 -4.27183E+04 -1.69404E+04 -2.40125E+04 -3.82352E+04
  7.45087E+03 -3.83376E+04  3.16418E+04 -1.50343E+04  2.95776E+04  1.11644E+04  4.30847E+03  1.94374E+04
 -1.35105E+04  8.45068E+03 -1.05352E+04 -7.59747E+03  5.48682E+03 -1.08199E+04  1.80485E+04  6.12487E+03
  1.37580E+04  2.18896E+04 -5.37187E+03  2.53872E+04 -2.22903E+04  1.18309E+04 -2.82030E+04 -4.51857E+03
 -2.11328E+04 -1.73762E+04 -8.57448E+03 -2.10413E+04  3.98924E+03 -2.03327E+04  1.66320E+04 -1.87403E+04
  2.69087E+04 -1.29365E+04  3.32160E+04  3.17446E+03  2.42258E+04  2.02447E+04  4.37360E+03  3.71151E+04
 -1.79973E+04  3.07556E+04 -2.81985E+04  1.07631E+04 -2.10885E+04 -1.04466E+04 -4.69843E+03 -1.33600E+04
  1.54592E+03 -2.90778E+03 -4.96394E+03  6.86452E+03 -1.65802E+04  5.09340E+03 -1.67680E+04 -7.27661E+03
 -1.04878E+04 -1.95009E+04  5.00147E+03 -2.37069E+04  1.56863E+04 -1.67828E+04  1.87382E+04 -1.71972E+03
  1.17651E+04  1.34492E+04 -1.20855E+03  1.95444E+04 -1.32968E+04  1.09776E+04 -1.97948E+04 -3.92815E+03
 -1.41288E+04 -1.73742E+04 -1.64723E+03 -2.36140E+04  1.06700E+04 -1.89429E+04  1.92218E+04 -9.52424E+03
  1.80104E+04  3.41432E+02  1.33559E+04  4.49018E+03  6.91559E+03  8.90980E+02  1.00484E+04 -1.64918E+03
  1.79066E+04  2.43686E+03  2.05346E+04  1.56083E+04  1.30033E+04  3.09636E+04 -3.04217E+03  3.52386E+04
 -2.02787E+04  2.86048E+04 -3.28136E+04  1.43430E+04 -3.48857E+04 -2.83161E+03 -2.82984E+04 -1.96590E+04
 -1.24616E+04 -2.90381E+04  9.70186E+03 -2.57756E+04  2.21429E+04 -1.28650E+04  1.98075E+04  5.69411E+03
  7.27218E+03  1.48988E+04 -9.53269E+03  1.30694E+04 -1.64347E+04  2.55251E+03 -1.26644E+04 -1.02112E+04
 -1.57508E+02 -1.59625E+04  8.14712E+03 -1.17303E+04  1.07535E+04 -1.06844E+03  2.34841E+03  6.56723E+03
 -7.12083E+03  2.44554E+03 -6.43302E+03 -5.59823E+03 -5.23354E+02 -1.38595E+04  9.76618E+03 -1.45950E+04
  1.72569E+04 -7.83025E+03  1.89316E+04  3.16845E+03  1.60454E+04  1.39219E+04  7.57837E+03  2.10420E+04
 -3.36682E+03  2.36870E+04 -1.50090E+04  1.43994E+04 -1.66759E+04  4.01783E+03 -1.16882E+04 -3.71475E+03
 -5.44177E+03 -4.81553E+03 -7.09874E+02  1.26187E+03 -2.50147E+03  2.72940E+03 -5.22428E+03  4.63754E+03
 -1.11709E+04 -1.02401E+03 -1.18560E+04 -9.45486E+03 -4.72023E+03 -1.51442E+04  5.00701E+03 -1.19391E+04
  9.80275E+03 -5.30201E+03  6.88579E+03  3.03387E+03  3.70705E+01  4.36589E+03 -5.73768E+03  2.25688E+02
 -5.36094E+03 -7.55117E+03 -9.45712E+02 -1.09176E+04  6.15933E+03 -1.15301E+04  1.43070E+04 -6.36262E+03
  1.76173E+04  1.50956E+03  1.27634E+04  9.97714E+03  2.49162E+03  1.35446E+04 -7.19297E+03  1.16215E+04
 -9.61426E+03  3.69167E+03 -4.79709E+03 -2.65775E+03  1.65823E+03 -2.74635E+03  6.42310E+03 -1.21408E+03
  5.72298E+03  5.08131E+03  1.12193E+03  9.03001E+03 -6.81795E+03  9.21737E+03 -1.14329E+04  2.33927E+03
 -7.59128E+03 -5.65630E+03  2.47873E+02 -9.84944E+03  6.08025E+03 -5.29630E+03  6.19751E+03  2.15405E+03
  1.62622E+03  6.19725E+03 -6.14147E+03  7.78373E+03 -8.74769E+03  3.58835E+03 -8.66361E+03 -2.94572E+03
 -5.37413E+03 -1.05007E+04  2.35212E+03 -1.21259E+04  1.05239E+04 -7.28798E+03  1.12744E+04  1.99987E+03
  6.87467E+03  8.98812E+03 -5.07652E+02  1.11352E+04 -8.12159E+03  6.48837E+03 -8.65819E+03 -7.90941E+02
 -8.09131E+03 -7.71153E+03 -1.72742E+03 -8.41201E+03  4.21219E+03 -6.64883E+03  5.00600E+03 -3.22008E+03
  3.82023E+03  1.10851E+03 -3.62414E+02  1.80912E+03 -3.93119E+01 -1.84688E+03  1.23917E+03 -4.58254E+03
  7.05291E+03 -2.65622E+03  1.02006E+04  1.29575E+03  9.98893E+03  6.30572E+03  7.21012E+03  1.35133E+04
 -3.00373E+03  1.54476E+04 -1.32560E+04  1.17746E+04 -1.71253E+04  2.13190E+03 -1.36479E+04 -5.81118E+03
 -7.08470E+03 -1.12908E+04 -4.64925E+02 -9.35057E+03  3.42682E+03 -5.24416E+03  3.24206E+03 -3.92538E+03
  2.13799E+03 -2.28653E+03  2.96211E+03 -2.88181E+03  4.56439E+03 -2.61570E+03  5.68991E+03 -4.48978E+02
  7.50090E+03  1.79320E+03  3.61516E+03  5.96548E+03 -1.56897E+03  6.65604E+03 -7.47025E+03  5.37009E+03
 -9.33078E+03 -1.17576E+03 -5.23065E+03 -6.49238E+03 -3.43099E+02 -9.73307E+03  5.52986E+03 -9.81188E+03
  1.03340E+04 -5.69515E+03  1.24573E+04  1.34015E+03  8.80279E+03  8.70408E+03  1.55779E+03  1.09741E+04
 -4.36341E+03  9.49062E+03 -6.58312E+03  3.53917E+03 -4.15312E+03 -1.58323E+03 -1.61804E+03 -1.12783E+03
 -1.04408E+03  4.49478E+02 -1.53113E+03  2.19420E+03 -4.44693E+03  1.70153E+03 -6.46954E+03 -4.99214E+02
 -4.04680E+03 -6.65086E+03  5.34062E+02 -8.96075E+03  5.50280E+03 -8.43954E+03  8.11829E+03 -2.42343E+03
  8.40179E+03  4.42995E+03  3.89862E+03  7.36455E+03 -1.80746E+03  8.78802E+03 -5.97287E+03  5.65509E+03
 -7.77851E+03  7.62252E+02 -6.53418E+03 -5.09963E+03 -6.86053E+02 -7.28522E+03  3.40242E+03 -5.28492E+03
  5.72794E+03 -1.71236E+03  3.56268E+03  1.55372E+03  1.25332E+03  2.82621E+03  9.84272E+02  1.21144E+03
  2.52187E+03  7.36959E+02  2.21176E+03  1.41439E+03  2.64030E+03  3.90053E+03  2.36117E+03  4.29064E+03
 -2.15417E+03  6.75986E+03 -6.08670E+03  7.21860E+03 -8.25449E+03  1.90448E+03 -9.31576E+03 -2.66321E+03
 -4.24381E+03 -8.19207E+03  1.04203E+03 -9.62073E+03  4.93419E+03 -5.79085E+03  6.86200E+03 -1.76566E+03
  5.36573E+03  3.49764E+03  1.11479E+03  5.14463E+03 -2.17308E+03  3.09342E+03 -2.99174E+03 -2.08668E+02
 -1.84322E+03 -3.35885E+03  2.04101E+03 -3.96555E+03  3.34932E+03 -1.65593E+03  2.93503E+03  6.67636E+02
  1.86012E+03  1.24043E+03  1.07989E+03  8.05158E+02 -2.82495E+02  1.13815E+03  1.80398E+03 -1.56984E+02
  9.05119E+02 -4.13056E+02  3.62657E+03  1.40363E+03  1.48111E+03  4.80198E+03 -8.11592E+02  5.72749E+03
 -3.81105E+03  3.49798E+03 -5.22051E+03  9.94765E+02 -4.81427E+03 -1.80910E+03 -1.29531E+03 -3.20090E+03
  6.08781E+02 -2.98268E+03  2.23645E+03 -1.64261E+03  1.64064E+03  2.17361E+03 -1.18966E+03  2.31770E+03
 -3.58337E+03  1.78751E+03 -3.27035E+03 -2.46435E+03 -1.69927E+03 -5.17320E+03  7.92587E+02 -4.35551E+03
  2.26888E+03 -2.40429E+03  2.78934E+03 -2.59871E+02  2.98148E+03  1.00128E+03  5.60109E+02  2.51099E+03
 -1.01381E+03  4.20884E+02 -2.35512E+03 -1.14251E+03  1.06499E+03 -3.30438E+03  4.09942E+03 -2.77246E+03
  4.83490E+03  1.21673E+02  5.31467E+03  3.02017E+03  1.72363E+03  5.24737E+03 -1.34305E+03  4.74200E+03
 -4.20313E+03  1.81088E+03 -4.33825E+03 -9.29635E+02 -2.34168E+03 -3.38295E+03  8.19735E+02 -2.94777E+03
  3.34402E+03 -1.51898E+03  2.32679E+03  1.36561E+03  1.16555E+03  2.94338E+03  3.36554E+02  2.43587E+03
 -1.28227E+03  2.00732E+03 -1.34696E+03  5.47637E+02 -7.33488E+02  7.34708E+02 -1.07408E+03  8.69614E+02
 -1.50261E+03  2.19210E+03 -3.71716E+03  1.68430E+03 -4.86125E+03  2.45304E+02 -5.76849E+03 -3.21404E+03
 -2.91541E+03 -6.51068E+03  1.34885E+03 -7.44532E+03  3.90980E+03 -6.26272E+03  7.50323E+03 -2.26827E+03
  6.43433E+03  9.19783E+02  4.02214E+03  4.50901E+03 -1.10893E+02  4.56941E+03 -2.01997E+03  3.58026E+03
 -2.87304E+03  1.59134E+03 -1.54022E+03 -7.93084E+02 -7.14205E+02 -5.41668E+01 -7.26686E+02  1.62559E+01
 -1.26616E+03 -9.73112E+01 -1.26290E+03  4.43351E+01  2.16894E+02 -1.64335E+03 -4.53552E+02 -2.23445E+03
  2.55347E+03 -1.51145E+03  2.67031E+03  1.12978E+02  3.51180E+03  2.94673E+03  6.00780E+02  4.79864E+03
 -2.64310E+03  5.74138E+03 -5.14831E+03  3.66733E+03 -6.06054E+03 -6.23488E+01 -4.34365E+03 -3.50101E+03
 -1.79740E+03 -4.66570E+03  1.02059E+03 -4.28921E+03  3.09656E+03 -2.39408E+03  3.14136E+03  3.09470E+02
  1.91898E+03  1.44071E+03  3.13466E+01  1.35477E+03 -1.07237E+03 -3.96696E+01  1.21229E+02 -7.80339E+02
  1.72428E+03 -4.76279E+02  1.47642E+03  8.23462E+02  8.88335E+02  1.77784E+03  3.84927E+02  1.84843E+03
 -2.16421E+03  2.35659E+03 -2.57031E+03  2.24491E+02 -2.60942E+03 -1.92286E+03 -9.57763E+01 -3.75981E+03
  2.04877E+03 -3.08801E+03  3.36561E+03 -9.73458E+02  3.40432E+03  2.31463E+02  1.83114E+03  2.83351E+03
  5.69627E+02  2.83792E+03 -1.13649E+03  2.19743E+03 -1.91874E+03  1.50723E+03 -1.24087E+03  3.41393E+02
 -1.01756E+03 -5.69551E+01 -9.92987E+02  1.44197E+02 -1.54627E+03  5.43917E+02 -2.31753E+03 -1.89296E+02
 -2.49093E+03 -1.17471E+03 -8.33165E+02 -3.08350E+03  1.44198E+03 -3.32904E+03  2.58067E+03 -1.30243E+03
  2.99429E+03  5.80741E+02  1.07636E+03  1.51805E+03 -2.07163E+02  2.86085E+03 -2.22269E+03  2.18825E+03
