 $NMID ID='MM_0lb_SNR800_15hz_g60_21.RAW', FMTDAT='(8E13.5)'
 TRAMP=1., VOLUME=1. $END
  3.10086E+05  3.37961E+02  3.37545E+05  2.50652E+05  8.47686E+04  3.38132E+05 -1.32415E+05  2.51203E+05
 -1.90462E+05  8.29777E+04 -1.11950E+05 -3.25532E+04  5.39902E+02 -5.03115E+04  5.34881E+04 -4.04205E+02
  3.56307E+04  5.26589E+04 -1.66799E+04  7.58717E+04 -6.06892E+04  6.40183E+04 -8.45290E+04  3.21065E+04
 -8.14036E+04 -1.11962E+04 -5.72990E+04 -5.16905E+04 -1.48957E+04 -6.98453E+04  2.75608E+04 -4.62054E+04
  4.00531E+04  3.46257E+03  1.62398E+04  4.80645E+04 -3.42081E+04  4.74558E+04 -6.70136E+04  1.84157E+01
 -5.37888E+04 -5.72207E+04 -7.17481E+03 -7.78119E+04  3.45490E+04 -5.56403E+04  4.84328E+04 -1.75683E+04
  4.37866E+04  1.15363E+04  3.20935E+04  2.53852E+04  1.56127E+04  2.95715E+04 -5.53964E+03  2.73189E+04
 -2.22079E+04  1.21624E+04 -1.82630E+04 -5.16550E+03  5.82315E+03 -7.34087E+03  2.24728E+04  1.27520E+04
  7.17764E+03  3.57635E+04 -3.26313E+04  3.57641E+04 -6.40051E+04  2.22494E+03 -5.72698E+04 -4.31636E+04
 -1.23347E+04 -6.38781E+04  4.01593E+04 -4.56297E+04  5.90320E+04 -2.36888E+03  3.45513E+04  3.27755E+04
 -5.86547E+03  3.66976E+04 -3.04238E+04  1.63123E+04 -3.09391E+04 -4.16187E+03 -1.71615E+04 -1.13989E+04
 -8.55482E+03 -1.34293E+04 -6.88252E+02 -1.85990E+04  7.56016E+03 -2.29830E+04  1.56727E+04 -1.32285E+04
  1.11137E+04  5.08773E+03 -8.65827E+03  1.29951E+04 -2.15706E+04 -4.73170E+03 -8.52262E+03 -3.44132E+04
  2.30759E+04 -4.42648E+04  4.89393E+04 -2.00173E+04  4.54536E+04  1.96095E+04  1.56438E+04  4.46922E+04
 -1.64288E+04  3.38496E+04 -2.59087E+04  1.91596E+03 -1.00977E+04 -2.81750E+04  2.14157E+04 -3.41244E+04
  4.20020E+04 -9.31967E+03  3.60752E+04  2.38335E+04  1.88355E+04  4.72584E+04 -7.88701E+03  5.11528E+04
 -3.26101E+04  3.44889E+04 -4.31029E+04  1.00001E+04 -4.34708E+04 -1.71172E+04 -2.37885E+04 -3.85560E+04
  7.40875E+03 -3.83139E+04  3.18949E+04 -1.51009E+04  2.99070E+04  1.09726E+04  3.97749E+03  1.91316E+04
 -1.33830E+04  8.81998E+03 -1.04259E+04 -7.48971E+03  5.85337E+03 -1.08525E+04  1.82300E+04  6.18499E+03
  1.35025E+04  2.19448E+04 -6.04632E+03  2.52443E+04 -2.22636E+04  1.21162E+04 -2.88243E+04 -4.52076E+03
 -2.13296E+04 -1.78106E+04 -8.61321E+03 -2.09581E+04  4.16758E+03 -2.03535E+04  1.62768E+04 -1.85742E+04
  2.71512E+04 -1.26631E+04  3.29809E+04  3.35251E+03  2.43462E+04  2.05185E+04  4.22260E+03  3.70426E+04
 -1.81438E+04  3.07559E+04 -2.82853E+04  1.07250E+04 -2.11203E+04 -1.02163E+04 -4.33280E+03 -1.34929E+04
  1.53188E+03 -2.81029E+03 -4.99230E+03  6.64691E+03 -1.64049E+04  5.27068E+03 -1.67569E+04 -7.01603E+03
 -9.90181E+03 -1.96742E+04  5.25751E+03 -2.34855E+04  1.55898E+04 -1.68077E+04  1.88370E+04 -1.65930E+03
  1.18537E+04  1.35398E+04 -8.86916E+02  1.92195E+04 -1.33792E+04  1.11875E+04 -1.93597E+04 -4.37346E+03
 -1.42839E+04 -1.75790E+04 -1.60994E+03 -2.33194E+04  1.07453E+04 -1.91956E+04  1.97564E+04 -9.70361E+03
  1.83574E+04 -5.18277E+01  1.30648E+04  4.39647E+03  6.90466E+03  9.14449E+02  9.91348E+03 -1.85865E+03
  1.77286E+04  3.02875E+03  1.97222E+04  1.55210E+04  1.29953E+04  3.04788E+04 -2.86688E+03  3.48250E+04
 -2.02226E+04  2.78918E+04 -3.25879E+04  1.43445E+04 -3.41966E+04 -2.22650E+03 -2.83218E+04 -1.98847E+04
 -1.20943E+04 -2.79697E+04  9.37627E+03 -2.53410E+04  2.19209E+04 -1.32912E+04  1.95917E+04  5.76297E+03
  7.10251E+03  1.45877E+04 -9.37630E+03  1.30540E+04 -1.65384E+04  2.38839E+03 -1.21393E+04 -1.01380E+04
 -1.05763E+02 -1.56173E+04  8.31581E+03 -1.18329E+04  1.00695E+04 -1.45812E+03  2.45747E+03  6.51732E+03
 -6.97872E+03  2.39157E+03 -6.23169E+03 -5.62190E+03 -7.91474E+02 -1.35010E+04  9.64553E+03 -1.42658E+04
  1.72826E+04 -7.40078E+03  1.84831E+04  3.37666E+03  1.57893E+04  1.35922E+04  7.43902E+03  2.09901E+04
 -3.36350E+03  2.27245E+04 -1.40636E+04  1.40126E+04 -1.62905E+04  3.45422E+03 -1.12513E+04 -3.79412E+03
 -5.50122E+03 -5.19132E+03 -5.26615E+02  9.34368E+02 -2.75899E+03  2.68969E+03 -5.11108E+03  4.34709E+03
 -1.08365E+04 -6.19614E+02 -1.12582E+04 -9.14777E+03 -4.75767E+03 -1.46079E+04  4.87250E+03 -1.16018E+04
  9.34980E+03 -4.76223E+03  6.81339E+03  3.07228E+03  2.33915E+02  4.37979E+03 -5.34534E+03 -1.81530E+02
 -5.11650E+03 -7.00254E+03 -1.00614E+03 -1.08665E+04  6.13005E+03 -1.15076E+04  1.39745E+04 -6.16323E+03
  1.67049E+04  1.35612E+03  1.24650E+04  9.54166E+03  2.28093E+03  1.30289E+04 -7.28244E+03  1.10936E+04
 -9.46881E+03  3.52268E+03 -4.88907E+03 -1.82848E+03  1.94180E+03 -2.69666E+03  5.95330E+03 -8.77925E+02
  5.22299E+03  4.49643E+03  1.10227E+03  8.81899E+03 -6.13816E+03  8.95604E+03 -1.08914E+04  2.16785E+03
 -6.72632E+03 -5.46565E+03  2.07979E+02 -9.19983E+03  5.73083E+03 -4.57446E+03  5.81146E+03  2.00406E+03
  1.28251E+03  6.11968E+03 -5.73734E+03  7.26592E+03 -8.21456E+03  3.60721E+03 -8.19181E+03 -2.65758E+03
 -4.86053E+03 -9.71647E+03  2.45582E+03 -1.10662E+04  9.46660E+03 -6.82612E+03  1.05110E+04  1.88380E+03
  6.79447E+03  8.29122E+03 -6.32077E+02  1.06436E+04 -7.49230E+03  5.65903E+03 -8.18670E+03 -6.68160E+02
 -7.56925E+03 -7.00191E+03 -1.47771E+03 -7.64069E+03  3.84768E+03 -6.52503E+03  4.63315E+03 -3.10673E+03
  3.56122E+03  1.07917E+03 -4.43260E+02  1.24716E+03 -2.57773E+02 -1.44262E+03  1.25940E+03 -4.05219E+03
  6.31077E+03 -2.01626E+03  8.83083E+03  1.02595E+03  9.29356E+03  5.92666E+03  7.09401E+03  1.18888E+04
 -2.73498E+03  1.40228E+04 -1.18527E+04  1.06672E+04 -1.56020E+04  1.78942E+03 -1.21017E+04 -4.83535E+03
 -6.23102E+03 -1.01788E+04 -3.99908E+02 -8.59084E+03  3.17606E+03 -4.59331E+03  3.34606E+03 -3.65523E+03
  2.10269E+03 -2.05001E+03  2.75967E+03 -2.77863E+03  4.50003E+03 -2.02213E+03  5.02849E+03 -3.83649E+02
  6.29523E+03  1.73590E+03  2.66815E+03  5.57900E+03 -1.89050E+03  5.88871E+03 -6.75372E+03  4.52094E+03
 -8.38743E+03 -9.69242E+02 -4.10877E+03 -5.59584E+03  4.11473E+01 -8.53630E+03  5.10603E+03 -8.80005E+03
  9.12512E+03 -5.24631E+03  1.10167E+04  1.22163E+03  7.66698E+03  7.45729E+03  1.47320E+03  9.85901E+03
 -3.79311E+03  8.54251E+03 -5.54326E+03  2.62023E+03 -3.54967E+03 -1.04921E+03 -1.19677E+03 -8.58343E+02
 -6.32784E+02  3.59800E+02 -1.35621E+03  2.27012E+03 -3.37308E+03  1.14278E+03 -6.36574E+03 -4.89334E+02
 -3.28358E+03 -5.81571E+03  5.25939E+02 -7.70541E+03  4.91866E+03 -7.50364E+03  6.81329E+03 -2.09411E+03
  7.29212E+03  3.84099E+03  3.41638E+03  6.33494E+03 -1.45159E+03  7.75462E+03 -5.00214E+03  5.07505E+03
 -6.76475E+03  7.45170E+02 -5.72989E+03 -4.50016E+03 -3.90795E+02 -6.09810E+03  3.16392E+03 -4.26406E+03
  4.76002E+03 -1.98672E+03  3.17707E+03  1.32453E+03  9.17444E+02  2.53416E+03  9.90534E+02  8.94682E+02
  1.90367E+03  8.19870E+02  1.72365E+03  1.30425E+03  1.90003E+03  2.99171E+03  1.79548E+03  3.61640E+03
 -1.72350E+03  5.64957E+03 -4.94371E+03  6.35279E+03 -6.55514E+03  1.77251E+03 -7.53434E+03 -2.04415E+03
 -3.12780E+03 -7.22640E+03  1.36639E+03 -7.89211E+03  4.02076E+03 -4.79801E+03  5.50796E+03 -1.44541E+03
  4.38488E+03  2.69369E+03  7.03982E+02  3.98183E+03 -1.44606E+03  2.60352E+03 -2.51315E+03 -2.70007E+02
 -1.16597E+03 -2.82267E+03  2.12847E+03 -2.98885E+03  2.84779E+03 -1.67369E+03  2.54140E+03  7.08841E+02
  1.18070E+03  9.34775E+02  1.25419E+03  6.66633E+02 -5.53211E+02  1.10247E+03  1.93466E+03 -4.17321E+02
  8.26394E+02 -3.57767E+02  2.78826E+03  1.16714E+03  1.05268E+03  3.71944E+03 -5.57998E+02  4.83776E+03
 -2.83139E+03  2.47560E+03 -4.07430E+03  7.29163E+02 -3.67054E+03 -1.63636E+03 -7.12836E+02 -2.39073E+03
  6.49974E+02 -2.18717E+03  1.82797E+03 -1.27358E+03  1.35349E+03  1.56969E+03 -9.67143E+02  2.07506E+03
 -2.58096E+03  1.28490E+03 -2.69830E+03 -1.81579E+03 -1.46093E+03 -3.50684E+03  3.48306E+02 -3.51703E+03
  1.68445E+03 -1.94381E+03  1.97904E+03  3.02689E+00  2.15974E+03  4.05553E+02  3.49039E+02  1.43428E+03
 -1.06768E+03  3.95384E+02 -1.42252E+03 -9.92915E+02  5.83956E+02 -2.09412E+03  2.96674E+03 -2.08063E+03
  3.23059E+03  3.63682E+02  4.65217E+03  1.99539E+03  1.72288E+03  3.65962E+03 -9.84118E+02  3.33824E+03
 -2.87580E+03  1.39889E+03 -3.47682E+03 -5.83996E+02 -1.69631E+03 -2.45505E+03  6.11606E+02 -1.97631E+03
  2.90946E+03 -1.29204E+03  2.03769E+03  1.18280E+03  5.48721E+02  2.47438E+03  2.55420E+02  2.15739E+03
 -1.03829E+03  1.73275E+03 -9.21723E+02  4.22472E+02 -3.34241E+02  2.65443E+02 -5.78380E+02  9.08146E+02
 -1.11252E+03  1.56696E+03 -3.09729E+03  9.81164E+02 -3.26757E+03  1.32574E+02 -4.15316E+03 -2.46714E+03
 -1.87773E+03 -4.56348E+03  5.90067E+02 -5.46646E+03  2.81964E+03 -4.27545E+03  5.41793E+03 -1.81543E+03
  4.84937E+03  4.70959E+02  2.68716E+03  3.25009E+03 -8.23348E+00  3.42221E+03 -1.44349E+03  2.72383E+03
 -2.19542E+03  1.54611E+03 -1.15692E+03 -1.62632E+02 -3.39996E+02  2.33767E+02 -6.80224E+02  2.69466E+01
 -1.40262E+03 -1.17777E+02 -1.35933E+03 -1.60707E+02  2.60288E+02 -1.06422E+03 -4.66797E+02 -1.70494E+03
  1.85030E+03 -1.37116E+03  1.72066E+03  1.25079E+02  2.17347E+03  1.96354E+03 -1.38477E+01  2.93018E+03
 -1.87543E+03  4.17864E+03 -3.50736E+03  2.39906E+03 -3.75197E+03 -4.31052E+02 -3.14266E+03 -2.41985E+03
 -1.50295E+03 -3.13483E+03  8.94886E+02 -2.90261E+03  1.83028E+03 -1.58880E+03  1.88403E+03  3.13213E+02
  1.18083E+03  9.85930E+02  2.42968E+02  6.88160E+02 -6.32266E+02 -1.68834E+02 -2.88249E+02 -6.49011E+02
  1.06815E+03 -1.92080E+02  7.53446E+02  4.52283E+02  6.61545E+02  1.32886E+03  6.87972E+02  1.12492E+03
 -1.53576E+03  1.11037E+03 -1.87101E+03  4.50495E+02 -1.99837E+03 -1.20470E+03 -3.22291E+02 -2.56328E+03
  1.16816E+03 -1.83880E+03  1.76694E+03 -7.23904E+02  2.05413E+03 -2.43805E+02  1.07222E+03  1.83598E+03
  5.01434E+02  1.57144E+03 -7.35093E+02  1.51259E+03 -1.23414E+03  1.00731E+03 -9.93382E+02  1.57809E+02
 -2.88143E+02  1.00660E+01 -5.86754E+02  3.69254E+02 -1.45003E+03  3.90825E+02 -1.54669E+03 -9.52611E+01
 -1.89031E+03 -4.32854E+02 -7.60532E+02 -1.96859E+03  1.06717E+03 -2.64474E+03  1.99331E+03 -4.94370E+02
  1.86323E+03  1.89317E+02  4.91659E+02  9.95089E+02 -2.20085E+02  1.79409E+03 -8.19396E+02  1.03738E+03
