 $NMID ID='MM_0lb_SNR800_14hz_g40_27.RAW', FMTDAT='(8E13.5)'
 TRAMP=1., VOLUME=1. $END
  3.10074E+05  2.66383E+02  3.37560E+05  2.50712E+05  8.44411E+04  3.37823E+05 -1.32595E+05  2.50767E+05
 -1.90160E+05  8.29984E+04 -1.11271E+05 -3.26519E+04  1.12120E+03 -5.00490E+04  5.39329E+04 -2.40527E+02
  3.51144E+04  5.28338E+04 -1.69150E+04  7.51851E+04 -6.06751E+04  6.32303E+04 -8.37064E+04  3.16742E+04
 -8.06858E+04 -1.12969E+04 -5.69139E+04 -5.09628E+04 -1.48817E+04 -6.90961E+04  2.72709E+04 -4.55128E+04
  3.95735E+04  3.94527E+03  1.57423E+04  4.77228E+04 -3.41530E+04  4.67849E+04 -6.63045E+04 -2.36138E+02
 -5.28186E+04 -5.67838E+04 -6.71395E+03 -7.65642E+04  3.36749E+04 -5.43399E+04  4.73776E+04 -1.67982E+04
  4.28453E+04  1.11924E+04  3.15180E+04  2.50340E+04  1.57547E+04  2.93113E+04 -5.13662E+03  2.70044E+04
 -2.15802E+04  1.27338E+04 -1.86341E+04 -4.90577E+03  4.94702E+03 -7.18763E+03  2.21324E+04  1.21041E+04
  7.35956E+03  3.45774E+04 -3.18532E+04  3.51331E+04 -6.26452E+04  1.99649E+03 -5.66225E+04 -4.24540E+04
 -1.23505E+04 -6.23471E+04  3.93164E+04 -4.44839E+04  5.77899E+04 -2.14601E+03  3.36034E+04  3.20471E+04
 -6.26973E+03  3.52699E+04 -2.96321E+04  1.52160E+04 -2.95930E+04 -4.70272E+03 -1.61882E+04 -1.05130E+04
 -7.98721E+03 -1.26708E+04 -9.41611E+02 -1.76251E+04  7.13152E+03 -2.29853E+04  1.52378E+04 -1.35908E+04
  1.16410E+04  4.72720E+03 -7.82749E+03  1.30077E+04 -2.07739E+04 -4.07559E+03 -8.40807E+03 -3.28249E+04
  2.22002E+04 -4.27365E+04  4.73502E+04 -1.92712E+04  4.41532E+04  1.88454E+04  1.48372E+04  4.36033E+04
 -1.57675E+04  3.28240E+04 -2.47071E+04  1.24989E+03 -9.67354E+03 -2.76078E+04  2.04277E+04 -3.33539E+04
  4.03116E+04 -8.52516E+03  3.45592E+04  2.36296E+04  1.75890E+04  4.53827E+04 -7.66864E+03  4.90365E+04
 -3.06935E+04  3.29297E+04 -4.11602E+04  9.14725E+03 -4.16112E+04 -1.60047E+04 -2.28038E+04 -3.71107E+04
  7.36113E+03 -3.65595E+04  3.07899E+04 -1.39587E+04  2.89237E+04  1.05719E+04  3.85917E+03  1.88941E+04
 -1.33397E+04  8.24164E+03 -1.01272E+04 -7.93037E+03  6.40517E+03 -1.05105E+04  1.78060E+04  6.06421E+03
  1.32234E+04  2.17550E+04 -5.98419E+03  2.44463E+04 -2.21541E+04  1.07481E+04 -2.71414E+04 -5.12622E+03
 -1.95501E+04 -1.70231E+04 -7.72865E+03 -1.95279E+04  3.67149E+03 -1.85623E+04  1.53718E+04 -1.73780E+04
  2.48825E+04 -1.26093E+04  3.16561E+04  2.22051E+03  2.30426E+04  1.92213E+04  4.17421E+03  3.53497E+04
 -1.74714E+04  2.98854E+04 -2.77401E+04  1.02255E+04 -2.09507E+04 -1.03744E+04 -4.21268E+03 -1.36943E+04
  1.88296E+03 -3.14814E+03 -4.60934E+03  6.33216E+03 -1.52771E+04  5.43614E+03 -1.56519E+04 -6.68417E+03
 -9.63248E+03 -1.80657E+04  5.01784E+03 -2.22510E+04  1.44623E+04 -1.62715E+04  1.75234E+04 -1.44997E+03
  1.09728E+04  1.26543E+04 -8.30315E+02  1.82511E+04 -1.23295E+04  1.07215E+04 -1.82525E+04 -4.04012E+03
 -1.36405E+04 -1.65267E+04 -1.84013E+03 -2.22215E+04  1.01382E+04 -1.84441E+04  1.86272E+04 -9.25315E+03
  1.72200E+04  4.76094E+02  1.22246E+04  4.31690E+03  6.35755E+03  6.54440E+02  9.28888E+03 -1.75002E+03
  1.64342E+04  2.53749E+03  1.87268E+04  1.48348E+04  1.22193E+04  2.92831E+04 -2.86775E+03  3.25473E+04
 -1.88528E+04  2.63241E+04 -3.04929E+04  1.28039E+04 -3.18358E+04 -2.22028E+03 -2.65105E+04 -1.82531E+04
 -1.14954E+04 -2.63359E+04  8.99441E+03 -2.38695E+04  2.05493E+04 -1.25753E+04  1.82980E+04  4.95956E+03
  7.00585E+03  1.36151E+04 -8.53593E+03  1.20003E+04 -1.55163E+04  2.49257E+03 -1.21012E+04 -9.74841E+03
 -2.73181E+02 -1.47754E+04  7.54950E+03 -1.10019E+04  9.89365E+03 -1.09532E+03  1.91512E+03  6.35856E+03
 -6.81010E+03  2.23806E+03 -5.73041E+03 -5.33920E+03  4.70861E+00 -1.28524E+04  9.24338E+03 -1.31153E+04
  1.59221E+04 -6.81895E+03  1.71538E+04  2.89004E+03  1.46475E+04  1.23324E+04  6.84499E+03  1.93134E+04
 -2.69836E+03  2.10208E+04 -1.30044E+04  1.29459E+04 -1.50102E+04  3.26654E+03 -1.08712E+04 -3.37415E+03
 -5.47457E+03 -4.49973E+03 -6.10326E+02  9.15061E+02 -2.41680E+03  2.29339E+03 -4.80315E+03  4.00579E+03
 -1.02118E+04 -6.67499E+02 -1.07966E+04 -8.64305E+03 -4.38394E+03 -1.40186E+04  4.58673E+03 -1.08910E+04
  9.10818E+03 -4.32225E+03  6.46445E+03  2.70235E+03  3.45042E+02  4.05394E+03 -4.47723E+03 -2.44293E+02
 -4.96538E+03 -6.70268E+03 -7.07011E+02 -1.01547E+04  5.94374E+03 -1.05234E+04  1.32386E+04 -5.54002E+03
  1.53146E+04  9.85182E+02  1.13953E+04  9.14607E+03  2.51261E+03  1.22394E+04 -6.55653E+03  1.07472E+04
 -8.74990E+03  3.27659E+03 -4.48998E+03 -1.84698E+03  1.61955E+03 -2.78258E+03  6.09273E+03 -7.76932E+02
  5.28657E+03  4.66505E+03  9.31368E+02  8.50262E+03 -5.88704E+03  8.23032E+03 -1.03336E+04  2.02162E+03
 -6.92472E+03 -5.20077E+03  3.37424E+02 -8.78245E+03  5.71181E+03 -4.54597E+03  5.35361E+03  1.72286E+03
  1.12493E+03  5.56160E+03 -5.36572E+03  6.91830E+03 -7.48281E+03  3.14195E+03 -7.65431E+03 -2.41878E+03
 -4.65136E+03 -9.26390E+03  1.95720E+03 -1.06243E+04  9.32383E+03 -6.45439E+03  9.69260E+03  1.54619E+03
  5.97165E+03  7.92305E+03 -5.43786E+02  9.86638E+03 -7.06576E+03  5.70772E+03 -7.51364E+03 -9.51694E+02
 -7.48106E+03 -6.85846E+03 -1.61603E+03 -7.54724E+03  3.68843E+03 -6.20232E+03  4.61662E+03 -2.94402E+03
  3.77470E+03  7.95973E+02  1.63167E+02  1.42017E+03  3.65824E+02 -1.08229E+03  1.09712E+03 -3.90420E+03
  6.19611E+03 -2.29206E+03  8.90832E+03  8.35783E+02  8.50470E+03  5.61998E+03  6.77403E+03  1.14384E+04
 -2.22792E+03  1.34018E+04 -1.16324E+04  1.00725E+04 -1.48423E+04  1.60728E+03 -1.21467E+04 -4.47677E+03
 -6.47079E+03 -9.97065E+03 -3.56647E+02 -8.19821E+03  3.02822E+03 -4.09692E+03  3.02460E+03 -2.99344E+03
  2.00711E+03 -2.06633E+03  3.18295E+03 -2.44428E+03  4.29807E+03 -2.15523E+03  5.03594E+03 -2.14020E+02
  6.38095E+03  1.66846E+03  2.56075E+03  4.96368E+03 -1.90549E+03  5.59263E+03 -6.49123E+03  4.35273E+03
 -8.12615E+03 -1.10813E+03 -4.12313E+03 -5.50073E+03 -4.11473E+02 -8.32754E+03  5.07690E+03 -8.67696E+03
  8.60210E+03 -4.74860E+03  1.04651E+04  1.10133E+03  7.59823E+03  7.24015E+03  1.36226E+03  9.80984E+03
 -3.69910E+03  8.61459E+03 -5.61631E+03  2.96728E+03 -3.40030E+03 -1.34690E+03 -1.19220E+03 -9.57496E+02
 -9.54660E+02  7.85606E+01 -1.42252E+03  2.33814E+03 -3.51068E+03  1.21512E+03 -5.92371E+03 -6.69524E+02
 -3.19809E+03 -5.79251E+03  8.93041E+02 -7.76909E+03  4.77442E+03 -7.55528E+03  7.09127E+03 -2.24467E+03
  7.59239E+03  4.10459E+03  3.60832E+03  6.26929E+03 -1.31922E+03  7.33784E+03 -5.35715E+03  5.03577E+03
 -6.71592E+03  2.99644E+02 -5.78122E+03 -4.50254E+03 -5.08157E+02 -5.99290E+03  3.03425E+03 -4.47356E+03
  4.59982E+03 -1.80394E+03  3.39176E+03  1.03317E+03  1.33768E+03  2.09105E+03  1.08613E+03  6.77727E+02
  1.84281E+03  9.46505E+02  2.05749E+03  1.52226E+03  2.34806E+03  2.89930E+03  1.99713E+03  3.57990E+03
 -1.69931E+03  5.35147E+03 -4.87214E+03  6.47581E+03 -6.67767E+03  1.82165E+03 -7.42488E+03 -2.39977E+03
 -3.24087E+03 -6.95436E+03  1.01916E+03 -8.09227E+03  3.81518E+03 -5.00474E+03  5.70628E+03 -1.36877E+03
  4.80274E+03  2.94455E+03  8.35169E+02  4.07366E+03 -1.64514E+03  2.32315E+03 -2.56816E+03 -5.24623E+02
 -1.64660E+03 -2.82948E+03  1.95223E+03 -3.06638E+03  2.70365E+03 -1.68988E+03  2.77909E+03  5.08163E+02
  1.39524E+03  1.48976E+03  7.59558E+02  5.46480E+02 -1.14109E+02  1.25743E+03  1.60209E+03 -4.07686E+02
  5.81730E+02 -2.52235E+02  3.12067E+03  1.02555E+03  8.84602E+02  3.98470E+03 -8.57652E+02  5.19257E+03
 -2.85694E+03  2.83054E+03 -4.20626E+03  9.71910E+02 -3.94881E+03 -1.43062E+03 -1.31036E+03 -2.76039E+03
  4.79572E+02 -2.26372E+03  1.87415E+03 -1.33640E+03  1.61691E+03  2.14141E+03 -5.19129E+02  2.06601E+03
 -2.87618E+03  1.51443E+03 -2.90074E+03 -1.79521E+03 -1.64251E+03 -3.84275E+03  4.02386E+02 -3.65416E+03
  1.55241E+03 -1.88861E+03  2.06097E+03  1.13233E+02  2.15413E+03  8.34638E+02  4.78296E+02  2.17903E+03
 -9.61421E+02  2.76587E+02 -1.61682E+03 -1.13438E+03  4.28304E+02 -2.48186E+03  3.27942E+03 -2.19426E+03
  3.79097E+03  4.33937E+02  4.76845E+03  2.53810E+03  1.75375E+03  4.14544E+03 -9.99538E+02  4.00389E+03
 -3.23095E+03  1.56724E+03 -3.30057E+03 -2.30882E+02 -1.91779E+03 -2.88487E+03  5.84478E+02 -2.10413E+03
  2.60227E+03 -1.25516E+03  2.34557E+03  1.26228E+03  3.58682E+02  2.42516E+03 -2.17507E+02  2.15940E+03
 -1.08884E+03  1.58656E+03 -1.09827E+03  1.81983E+02 -2.69201E+02  3.45079E+02 -7.34756E+02  9.79974E+02
 -1.04031E+03  1.74033E+03 -3.27779E+03  1.28656E+03 -3.62399E+03  1.69361E+02 -4.69317E+03 -2.54039E+03
 -2.47903E+03 -5.15410E+03  1.10701E+03 -6.25164E+03  3.31623E+03 -4.76138E+03  6.07573E+03 -2.01679E+03
  5.48002E+03  7.31772E+02  3.14222E+03  3.47185E+03 -8.30156E+01  3.87789E+03 -1.49901E+03  3.19040E+03
 -2.09388E+03  1.18601E+03 -1.38197E+03 -9.10760E+02 -5.27363E+02 -3.34279E+02 -8.69150E+02  1.54744E+01
 -1.40088E+03  1.36623E+02 -1.42358E+03  4.50026E-01  1.10898E+02 -1.35280E+03  1.82852E+01 -1.31706E+03
  2.11794E+03 -1.27098E+03  1.90031E+03 -9.29484E+01  2.74719E+03  2.37719E+03  2.61877E+02  3.65800E+03
 -1.74468E+03  4.76931E+03 -4.10060E+03  2.64513E+03 -4.55268E+03 -1.91862E+02 -3.72525E+03 -3.31935E+03
 -1.75397E+03 -4.10468E+03  1.07673E+03 -3.26198E+03  2.20785E+03 -1.91080E+03  2.29118E+03  7.86845E+01
  1.35927E+03  1.00519E+03  5.75154E+01  1.09926E+03 -6.80308E+02  1.01838E+02  1.06479E+02 -8.95538E+02
  1.08577E+03 -4.11580E+02  1.58658E+03  7.59819E+02  7.29569E+02  1.41643E+03  2.83086E+02  1.42398E+03
 -1.48093E+03  1.58642E+03 -2.28274E+03  4.32004E+02 -2.11616E+03 -1.55406E+03 -8.79424E+01 -3.04206E+03
  1.64077E+03 -2.45164E+03  2.42152E+03 -4.01403E+02  2.72848E+03  2.66250E+02  1.32075E+03  2.12271E+03
  6.16621E+02  1.84890E+03 -7.81238E+02  1.74587E+03 -1.55259E+03  8.08862E+02 -1.10074E+03  2.11574E+02
 -6.73348E+02  1.91993E+02 -8.41494E+02  1.22676E+02 -1.11040E+03  2.48703E+02 -1.89085E+03 -1.82813E+02
 -1.57959E+03 -7.80358E+02 -7.73933E+02 -2.35880E+03  1.02783E+03 -3.13026E+03  2.05995E+03 -8.02891E+02
  2.16912E+03  2.67163E+02  5.87448E+02  1.33613E+03 -1.32512E+02  2.45293E+03 -1.31031E+03  1.96176E+03
