 $NMID ID='MM_0lb_SNR800_17hz_g60_69.RAW', FMTDAT='(8E13.5)'
 TRAMP=1., VOLUME=1. $END
  3.09777E+05  5.70013E+02  3.37463E+05  2.50471E+05  8.45927E+04  3.37801E+05 -1.32515E+05  2.51039E+05
 -1.90189E+05  8.28519E+04 -1.11755E+05 -3.27419E+04  8.98763E+02 -5.06402E+04  5.40082E+04  3.63157E+01
  3.54334E+04  5.24554E+04 -1.68977E+04  7.56517E+04 -6.10290E+04  6.34444E+04 -8.37854E+04  3.16751E+04
 -8.11556E+04 -1.14133E+04 -5.71581E+04 -5.13000E+04 -1.49143E+04 -6.95754E+04  2.71891E+04 -4.53891E+04
  4.02608E+04  3.73152E+03  1.59496E+04  4.76576E+04 -3.43493E+04  4.71306E+04 -6.68342E+04 -2.15103E+02
 -5.33167E+04 -5.66277E+04 -6.55495E+03 -7.68440E+04  3.37976E+04 -5.48300E+04  4.78673E+04 -1.73100E+04
  4.34315E+04  1.13223E+04  3.15446E+04  2.53061E+04  1.57932E+04  2.93217E+04 -5.31228E+03  2.70394E+04
 -2.19799E+04  1.25611E+04 -1.84531E+04 -4.92833E+03  5.44882E+03 -7.34826E+03  2.21246E+04  1.21640E+04
  7.70392E+03  3.49610E+04 -3.18117E+04  3.53277E+04 -6.30905E+04  2.27206E+03 -5.67530E+04 -4.25897E+04
 -1.25065E+04 -6.30508E+04  3.96733E+04 -4.49258E+04  5.78876E+04 -2.35788E+03  3.39823E+04  3.20381E+04
 -6.44664E+03  3.56607E+04 -2.95670E+04  1.56387E+04 -2.98695E+04 -4.66612E+03 -1.64335E+04 -1.10357E+04
 -7.85690E+03 -1.28729E+04 -9.17931E+02 -1.76362E+04  7.43690E+03 -2.32574E+04  1.57910E+04 -1.33697E+04
  1.18381E+04  4.61257E+03 -8.23091E+03  1.30963E+04 -2.11069E+04 -4.01315E+03 -8.47852E+03 -3.30015E+04
  2.22951E+04 -4.32557E+04  4.74201E+04 -1.92890E+04  4.47371E+04  1.92728E+04  1.55070E+04  4.36941E+04
 -1.57506E+04  3.29504E+04 -2.49839E+04  1.51572E+03 -9.46112E+03 -2.74508E+04  2.09293E+04 -3.35639E+04
  4.02906E+04 -8.61929E+03  3.49265E+04  2.37514E+04  1.76292E+04  4.55850E+04 -8.22211E+03  4.94110E+04
 -3.10216E+04  3.30673E+04 -4.12037E+04  9.24158E+03 -4.16727E+04 -1.65231E+04 -2.29500E+04 -3.69811E+04
  7.17923E+03 -3.68603E+04  3.11444E+04 -1.41789E+04  2.86967E+04  1.06694E+04  3.58036E+03  1.90605E+04
 -1.34074E+04  8.18416E+03 -1.00768E+04 -7.58396E+03  5.92662E+03 -1.07889E+04  1.79480E+04  6.14282E+03
  1.31034E+04  2.21062E+04 -6.46339E+03  2.44965E+04 -2.23474E+04  1.08632E+04 -2.74737E+04 -5.22612E+03
 -1.95987E+04 -1.70418E+04 -7.62153E+03 -1.96759E+04  3.74678E+03 -1.86901E+04  1.48811E+04 -1.73865E+04
  2.48651E+04 -1.26205E+04  3.13018E+04  2.58569E+03  2.30354E+04  1.91262E+04  4.07831E+03  3.53247E+04
 -1.70190E+04  2.95165E+04 -2.72426E+04  1.03748E+04 -2.03982E+04 -1.04490E+04 -4.19739E+03 -1.36828E+04
  2.19895E+03 -3.38682E+03 -4.06448E+03  6.19614E+03 -1.52549E+04  5.07307E+03 -1.56987E+04 -6.36219E+03
 -9.51870E+03 -1.81410E+04  5.23273E+03 -2.19204E+04  1.42723E+04 -1.58169E+04  1.70755E+04 -1.76620E+03
  1.07474E+04  1.26434E+04 -8.97634E+02  1.77703E+04 -1.16793E+04  9.89765E+03 -1.79270E+04 -3.78620E+03
 -1.35418E+04 -1.63543E+04 -1.65673E+03 -2.18801E+04  9.62968E+03 -1.76950E+04  1.81979E+04 -8.73138E+03
  1.69361E+04  3.83014E+02  1.21963E+04  4.21200E+03  6.00378E+03  7.85516E+02  8.82678E+03 -1.58801E+03
  1.60138E+04  2.75777E+03  1.77198E+04  1.43881E+04  1.15748E+04  2.83883E+04 -2.93457E+03  3.14899E+04
 -1.82631E+04  2.48325E+04 -2.92781E+04  1.24533E+04 -3.04064E+04 -2.26366E+03 -2.55223E+04 -1.74252E+04
 -1.15502E+04 -2.51430E+04  8.49528E+03 -2.29417E+04  1.96350E+04 -1.18132E+04  1.81125E+04  4.93091E+03
  6.89756E+03  1.32467E+04 -8.30031E+03  1.19630E+04 -1.51435E+04  2.54944E+03 -1.15273E+04 -9.07571E+03
  2.26590E+01 -1.41714E+04  7.19851E+03 -1.07550E+04  9.33691E+03 -1.41573E+03  1.48882E+03  5.98629E+03
 -6.45259E+03  1.82689E+03 -4.94463E+03 -5.24952E+03 -2.14328E+01 -1.22860E+04  8.98318E+03 -1.28523E+04
  1.48634E+04 -6.37137E+03  1.56255E+04  2.85929E+03  1.37391E+04  1.14512E+04  6.41596E+03  1.75892E+04
 -2.41743E+03  1.94767E+04 -1.21434E+04  1.26432E+04 -1.39792E+04  3.58617E+03 -1.00038E+04 -2.97116E+03
 -4.90552E+03 -4.28409E+03 -9.78425E+02  1.37771E+03 -2.31672E+03  2.31584E+03 -4.59574E+03  3.90633E+03
 -9.57272E+03 -7.12035E+02 -1.03068E+04 -8.00276E+03 -3.93841E+03 -1.32667E+04  4.12234E+03 -1.02175E+04
  8.65064E+03 -4.39702E+03  6.28405E+03  2.41442E+03  2.79045E+02  3.98745E+03 -4.49647E+03 -1.18797E+02
 -4.24349E+03 -5.96280E+03 -9.74058E+02 -8.96221E+03  4.81530E+03 -1.01686E+04  1.24071E+04 -5.19572E+03
  1.43016E+04  1.00042E+03  1.05460E+04  7.98678E+03  1.97492E+03  1.07355E+04 -6.11306E+03  9.83951E+03
 -8.16642E+03  3.43639E+03 -4.20458E+03 -1.81970E+03  1.51718E+03 -2.19038E+03  5.55246E+03 -1.04280E+03
  5.05001E+03  4.04403E+03  1.08229E+03  7.88582E+03 -5.47579E+03  7.87828E+03 -9.28065E+03  1.91971E+03
 -6.21637E+03 -4.40674E+03  4.42939E+02 -8.16365E+03  4.56850E+03 -3.45231E+03  4.88372E+03  1.37608E+03
  8.90651E+02  4.30075E+03 -5.20007E+03  6.10533E+03 -6.53181E+03  3.01200E+03 -6.07962E+03 -2.01955E+03
 -4.02452E+03 -7.63385E+03  1.78414E+03 -9.22107E+03  7.64332E+03 -5.77577E+03  8.65268E+03  1.28920E+03
  5.38656E+03  6.81308E+03 -2.29258E+02  8.88415E+03 -6.49778E+03  4.75482E+03 -6.57140E+03 -7.38314E+02
 -6.39851E+03 -5.97642E+03 -1.58081E+03 -6.59154E+03  3.31651E+03 -5.65436E+03  3.82104E+03 -2.74944E+03
  3.28626E+03  6.65148E+02 -7.66409E+01  1.52431E+03  2.09612E+02 -8.38845E+02  5.59630E+02 -2.78144E+03
  4.98152E+03 -1.47782E+03  7.36287E+03  7.66622E+02  7.36427E+03  4.24462E+03  6.39974E+03  9.45513E+03
 -1.92228E+03  1.10686E+04 -9.85077E+03  8.62647E+03 -1.23889E+04  1.49320E+03 -9.91590E+03 -3.55841E+03
 -5.34755E+03 -8.40127E+03 -3.14727E+02 -6.80567E+03  2.71957E+03 -3.20855E+03  2.18556E+03 -2.50885E+03
  1.68997E+03 -1.76990E+03  2.20220E+03 -2.77903E+03  3.64554E+03 -1.76427E+03  4.17717E+03  2.51154E+02
  5.43478E+03  1.56958E+03  1.66377E+03  4.56019E+03 -1.66475E+03  4.24705E+03 -5.56035E+03  3.41603E+03
 -6.48282E+03 -1.13321E+03 -2.86641E+03 -4.35229E+03  3.09995E+02 -6.69954E+03  4.00180E+03 -6.77513E+03
  6.48863E+03 -3.84710E+03  8.37875E+03  4.95753E+02  6.30552E+03  5.67131E+03  1.43826E+03  7.43320E+03
 -2.68044E+03  7.03590E+03 -4.45365E+03  2.25226E+03 -2.52777E+03 -9.54932E+02 -5.34746E+02 -9.08828E+02
 -5.89275E+02  2.49511E+02 -8.34422E+02  2.03385E+03 -3.14475E+03  1.28753E+03 -4.95369E+03 -5.95601E+02
 -2.18454E+03 -4.76032E+03  6.68470E+02 -6.09846E+03  3.47948E+03 -5.83099E+03  4.63489E+03 -1.59929E+03
  5.20464E+03  3.10196E+03  2.73137E+03  4.64904E+03 -1.00189E+03  5.68006E+03 -3.80692E+03  3.56753E+03
 -5.00346E+03  6.74789E+02 -4.22919E+03 -2.92272E+03 -1.37418E+02 -4.27924E+03  1.98685E+03 -3.04487E+03
  3.32579E+03 -1.30529E+03  2.30222E+03  6.27055E+02  8.52148E+02  2.19729E+03  6.61781E+02  8.85787E+02
  1.69095E+03  4.31943E+02  1.64705E+03  1.18993E+03  1.31014E+03  2.63088E+03  1.97657E+03  2.55195E+03
 -1.69081E+03  4.05360E+03 -3.31480E+03  4.92019E+03 -4.36159E+03  1.01582E+03 -5.39437E+03 -9.75187E+02
 -2.15919E+03 -4.98341E+03  8.03220E+02 -5.99136E+03  2.64499E+03 -3.68304E+03  3.70542E+03 -1.25826E+03
  3.57282E+03  1.82231E+03  4.31988E+02  2.72188E+03 -1.04599E+03  1.67093E+03 -1.64685E+03 -1.89767E+02
 -9.61804E+02 -2.00998E+03  1.35117E+03 -2.10376E+03  1.70233E+03 -1.12632E+03  1.64407E+03  4.41908E+02
  1.02741E+03  7.87637E+02  8.80888E+02 -6.30761E+01 -4.20619E+02  9.80477E+02  1.89791E+03 -8.77271E+01
  2.84829E+02 -8.19718E+01  2.46421E+03  1.02342E+03  6.28347E+02  2.96352E+03 -7.84066E+02  3.76238E+03
 -2.17125E+03  1.97671E+03 -2.97080E+03  6.37875E+02 -2.98474E+03 -1.10227E+03 -3.04135E+02 -1.71598E+03
  2.11936E+02 -1.63639E+03  1.12854E+03 -1.07620E+03  5.58632E+02  1.30099E+03 -5.69209E+02  1.58298E+03
 -1.86928E+03  1.17519E+03 -1.76341E+03 -1.54664E+03 -1.13383E+03 -2.50644E+03  4.40217E+02 -2.37588E+03
  1.06910E+03 -8.76328E+02  1.18982E+03  7.00617E+00  1.54668E+03  7.65936E+01  3.66844E+02  1.62063E+03
 -7.59513E+02  8.70411E+01 -1.42833E+03 -6.22649E+02  6.94716E+02 -1.16274E+03  2.18614E+03 -1.21124E+03
  1.76779E+03  1.84833E+02  3.31191E+03  9.80898E+02  1.25156E+03  2.55988E+03 -7.75018E+02  2.76582E+03
 -1.86965E+03  4.63381E+02 -2.01344E+03 -9.67979E+01 -1.15347E+03 -1.72093E+03  3.44162E+02 -1.21047E+03
  1.92055E+03 -8.98093E+02  1.08111E+03  9.60422E+02  1.10517E+02  1.54880E+03  3.63709E+02  1.37789E+03
 -6.75107E+02  1.24812E+03 -6.17274E+02  3.33100E+02 -6.15685E+01  7.90873E+02 -6.64616E+02  6.03475E+02
 -8.09984E+02  1.16145E+03 -1.92548E+03  5.50216E+02 -2.06397E+03  3.83375E+02 -3.02097E+03 -1.56747E+03
 -1.10829E+03 -3.08005E+03  3.30115E+02 -3.42373E+03  1.83465E+03 -3.07165E+03  3.91031E+03 -1.49314E+03
  3.20372E+03  2.05522E+02  1.63033E+03  1.95732E+03 -1.37102E+02  2.17705E+03 -8.71720E+02  1.68560E+03
 -1.59165E+03  7.82759E+02 -8.45830E+02 -1.04213E+02 -6.23690E+02  2.24630E+02 -6.59404E+02  3.43101E+01
 -1.11213E+03  1.43342E+02 -8.19141E+02 -1.73165E+02  2.56286E+02 -7.47521E+02 -2.25367E+02 -1.24861E+03
  1.53256E+03 -7.47552E+02  7.32637E+02  2.37209E+02  1.75180E+03  1.41495E+03 -5.13222E+01  1.94530E+03
 -1.20431E+03  2.65551E+03 -2.31905E+03  1.44984E+03 -2.56077E+03 -3.76888E+02 -1.62080E+03 -1.45975E+03
 -9.46698E+02 -1.84966E+03  4.12700E+02 -1.76204E+03  1.33367E+03 -8.25854E+02  1.03707E+03 -1.45654E+01
  5.67906E+02  4.31150E+02 -1.05977E+02  6.41854E+02 -4.14854E+02  3.45446E+00 -5.16016E+01 -3.50009E+02
  7.51298E+02 -9.95426E+01  5.29156E+02  5.24332E+02  3.99394E+02  8.97063E+02  6.70349E+02  6.06465E+02
 -8.48771E+02  8.20729E+02 -8.48123E+02  4.22127E+02 -1.11714E+03 -9.23538E+02 -9.60524E+01 -1.36860E+03
  7.17524E+02 -1.08358E+03  9.16446E+02 -4.39644E+02  1.43695E+03 -4.40427E+02  6.46770E+02  9.50008E+02
  4.42817E+02  6.46338E+02 -4.78440E+02  1.07869E+03 -4.28592E+02  7.50375E+02 -3.46282E+02  3.15867E+02
 -1.73661E+02  6.08755E+01 -9.52125E+02  3.08393E+02 -1.00538E+03  1.93323E+02 -1.05341E+03 -1.12136E+01
 -1.09671E+03  5.18782E+01 -5.06105E+02 -1.40914E+03  7.28927E+02 -1.63335E+03  1.08308E+03 -2.41221E+02
  1.05612E+03  1.40995E+02 -2.83795E+02  4.85470E+02  8.34337E+01  1.25930E+03 -2.79886E+02  9.43131E+02
