 $NMID ID='MM_0lb_SNR800_7hz_g45_87.RAW', FMTDAT='(8E13.5)'
 TRAMP=1., VOLUME=1. $END
  3.09883E+05  2.30248E+02  3.37815E+05  2.50667E+05  8.50090E+04  3.38981E+05 -1.32773E+05  2.52001E+05
 -1.90978E+05  8.41252E+04 -1.12883E+05 -3.24391E+04  1.68541E+02 -5.06933E+04  5.35632E+04 -3.24363E+02
  3.54495E+04  5.32141E+04 -1.68439E+04  7.63793E+04 -6.18459E+04  6.46840E+04 -8.56648E+04  3.22794E+04
 -8.25907E+04 -1.21948E+04 -5.86458E+04 -5.25664E+04 -1.54414E+04 -7.16673E+04  2.83513E+04 -4.68771E+04
  4.13512E+04  4.16421E+03  1.66121E+04  4.92457E+04 -3.51264E+04  4.88685E+04 -6.85834E+04  2.39667E+02
 -5.57727E+04 -5.79598E+04 -7.89159E+03 -7.97990E+04  3.53445E+04 -5.77566E+04  5.08532E+04 -1.87895E+04
  4.60738E+04  1.15243E+04  3.30648E+04  2.70219E+04  1.60349E+04  3.13418E+04 -6.34003E+03  2.81080E+04
 -2.23377E+04  1.18951E+04 -1.77382E+04 -6.22031E+03  7.42234E+03 -7.29611E+03  2.41876E+04  1.39108E+04
  7.34371E+03  3.78979E+04 -3.39853E+04  3.72785E+04 -6.64994E+04  2.40628E+03 -5.92504E+04 -4.54975E+04
 -1.26930E+04 -6.68366E+04  4.23495E+04 -4.78982E+04  6.25036E+04 -3.16377E+03  3.75550E+04  3.45675E+04
 -4.87621E+03  4.11740E+04 -3.26194E+04  1.94228E+04 -3.43306E+04 -3.32898E+03 -2.00219E+04 -1.22496E+04
 -1.02359E+04 -1.55521E+04 -2.10531E+02 -2.02436E+04  9.20700E+03 -2.34481E+04  1.59992E+04 -1.28001E+04
  1.01552E+04  6.88520E+03 -1.10407E+04  1.28348E+04 -2.39607E+04 -7.28750E+03 -8.85189E+03 -3.86887E+04
  2.58011E+04 -4.77304E+04  5.34623E+04 -2.12598E+04  4.99290E+04  2.08707E+04  1.81395E+04  4.81573E+04
 -1.69744E+04  3.72044E+04 -2.78351E+04  2.37436E+03 -1.25374E+04 -3.00982E+04  2.17053E+04 -3.79396E+04
  4.52511E+04 -1.14760E+04  4.17966E+04  2.56756E+04  2.23123E+04  5.30292E+04 -8.38916E+03  5.81380E+04
 -3.62384E+04  3.96622E+04 -4.91046E+04  1.13494E+04 -4.94807E+04 -1.93831E+04 -2.65800E+04 -4.30981E+04
  7.91441E+03 -4.32783E+04  3.50059E+04 -1.82409E+04  3.33963E+04  1.13425E+04  5.74599E+03  2.13981E+04
 -1.46591E+04  9.93252E+03 -1.12565E+04 -7.63551E+03  5.81483E+03 -1.17523E+04  1.92549E+04  5.28936E+03
  1.59108E+04  2.27133E+04 -4.99984E+03  2.74574E+04 -2.39297E+04  1.55151E+04 -3.21252E+04 -2.35624E+03
 -2.70203E+04 -1.88148E+04 -1.22462E+04 -2.67546E+04  4.51538E+03 -2.77754E+04  2.10190E+04 -2.45909E+04
  3.40366E+04 -1.47403E+04  3.98429E+04  5.46570E+03  2.80542E+04  2.59839E+04  4.58321E+03  4.26916E+04
 -2.07870E+04  3.48897E+04 -3.14803E+04  1.23153E+04 -2.25516E+04 -9.73414E+03 -4.94775E+03 -1.31423E+04
  4.48920E+02 -4.27269E+02 -8.86386E+03  8.71166E+03 -2.20761E+04  4.66748E+03 -2.14607E+04 -1.04527E+04
 -1.26251E+04 -2.49808E+04  6.53605E+03 -2.91767E+04  1.97670E+04 -2.08263E+04  2.42690E+04 -1.93990E+03
  1.56447E+04  1.75635E+04 -1.09425E+03  2.47411E+04 -1.75470E+04  1.47254E+04 -2.60258E+04 -5.02117E+03
 -1.86445E+04 -2.28107E+04 -2.11429E+03 -2.97133E+04  1.31642E+04 -2.49724E+04  2.50386E+04 -1.30544E+04
  2.35220E+04 -3.82710E+02  1.72932E+04  5.34032E+03  9.80830E+03  1.22941E+03  1.28941E+04 -2.21428E+03
  2.39104E+04  3.27568E+03  2.82422E+04  1.95620E+04  1.90155E+04  4.04690E+04 -2.74490E+03  4.79726E+04
 -2.71580E+04  4.06515E+04 -4.57186E+04  2.15569E+04 -4.87775E+04 -3.83709E+03 -3.91604E+04 -2.86232E+04
 -1.54949E+04 -4.04585E+04  1.38613E+04 -3.56913E+04  3.04121E+04 -1.59165E+04  2.61161E+04  8.40509E+03
  8.69196E+03  2.01696E+04 -1.26169E+04  1.68205E+04 -2.18154E+04  2.21651E+03 -1.60951E+04 -1.41814E+04
 -3.51944E+02 -2.11591E+04  1.13906E+04 -1.54356E+04  1.47027E+04 -1.15569E+03  3.73128E+03  9.62323E+03
 -9.05375E+03  4.86457E+03 -1.06691E+04 -7.40243E+03 -2.37988E+03 -1.96102E+04  1.24341E+04 -2.15544E+04
  2.53539E+04 -1.27729E+04  2.91917E+04  3.70643E+03  2.58462E+04  2.05044E+04  1.19380E+04  3.23224E+04
 -6.29336E+03  3.43233E+04 -2.29628E+04  2.10770E+04 -2.55544E+04  4.29606E+03 -1.77732E+04 -6.90276E+03
 -7.04882E+03 -8.21008E+03 -3.79829E+02  3.30952E+02 -2.99681E+03  3.58452E+03 -8.02997E+03  5.96583E+03
 -1.58552E+04 -7.34588E+02 -1.58970E+04 -1.27057E+04 -6.29380E+03 -2.10585E+04  7.42865E+03 -1.73314E+04
  1.42791E+04 -7.28923E+03  9.89345E+03  4.70350E+03 -8.06093E+02  6.79647E+03 -8.62036E+03 -3.32861E+02
 -8.46367E+03 -1.12717E+04 -1.26848E+03 -1.70662E+04  1.06080E+04 -1.82676E+04  2.27303E+04 -1.00596E+04
  2.67529E+04  2.74901E+03  1.91311E+04  1.62426E+04  3.20290E+03  2.16490E+04 -1.06896E+04  1.69913E+04
 -1.40759E+04  4.72416E+03 -7.21659E+03 -3.92805E+03  2.34250E+03 -4.98220E+03  8.87558E+03 -1.02110E+03
  8.41372E+03  7.74469E+03  1.46098E+03  1.43943E+04 -1.07111E+04  1.34140E+04 -1.72274E+04  2.88948E+03
 -1.19028E+04 -9.26541E+03  2.78935E+02 -1.55499E+04  1.01291E+04 -7.83378E+03  1.09779E+04  3.71812E+03
  2.63954E+03  1.15604E+04 -9.29207E+03  1.33831E+04 -1.58161E+04  5.69036E+03 -1.71236E+04 -6.19655E+03
 -9.03463E+03 -1.83786E+04  4.78044E+03 -2.13289E+04  1.78959E+04 -1.24646E+04  1.95557E+04  3.46438E+03
  1.15528E+04  1.53580E+04 -2.20249E+03  1.80932E+04 -1.33416E+04  1.02614E+04 -1.46755E+04 -1.71696E+03
 -1.22224E+04 -1.19784E+04 -1.69359E+03 -1.38015E+04  7.33011E+03 -1.08508E+04  8.80513E+03 -3.53847E+03
  5.32718E+03  2.66925E+03 -1.31601E+03  1.82549E+03 -1.47729E+03 -4.52027E+03  3.09063E+03 -8.86784E+03
  1.36602E+04 -5.83261E+03  1.92528E+04  1.96458E+03  1.79872E+04  1.31655E+04  1.10911E+04  2.48515E+04
 -6.32852E+03  2.84017E+04 -2.29408E+04  2.05438E+04 -2.99779E+04  4.18254E+03 -2.44879E+04 -1.08704E+04
 -1.22072E+04 -2.00468E+04 -3.27037E+02 -1.75731E+04  5.97210E+03 -1.01095E+04  5.81941E+03 -6.40037E+03
  4.93791E+03 -3.74815E+03  4.07440E+03 -4.61889E+03  6.11920E+03 -4.09872E+03  9.76842E+03 -1.99049E+03
  1.24048E+04  3.12817E+03  7.40221E+03  1.12703E+04 -2.89069E+03  1.35627E+04 -1.32284E+04  1.04850E+04
 -1.76679E+04 -1.57230E+03 -1.18241E+04 -1.21065E+04 -2.02132E+03 -1.90841E+04  1.06579E+04 -1.90612E+04
  1.96599E+04 -1.01472E+04  2.31538E+04  3.65647E+03  1.61292E+04  1.68215E+04  2.26086E+03  2.15536E+04
 -9.08421E+03  1.67097E+04 -1.24734E+04  6.16162E+03 -8.72077E+03 -1.76957E+03 -3.98610E+03 -2.43463E+03
 -1.67756E+03 -2.58204E+02 -2.93006E+03  3.20364E+03 -7.31002E+03  2.93904E+03 -1.25840E+04 -1.75682E+03
 -9.02710E+03 -1.18125E+04 -3.37625E+02 -1.81343E+04  1.12423E+04 -1.62402E+04  1.79834E+04 -5.30225E+03
  1.76152E+04  8.44856E+03  8.18178E+03  1.64053E+04 -3.73905E+03  1.82487E+04 -1.29516E+04  1.14815E+04
 -1.71192E+04  1.21802E+02 -1.27301E+04 -1.12293E+04 -1.24718E+03 -1.53222E+04  7.83288E+03 -1.13057E+04
  1.16678E+04 -3.24707E+03  8.18044E+03  3.54568E+03  3.49080E+03  5.70969E+03  2.03484E+03  2.56903E+03
  2.35980E+03  1.48231E+03  4.04509E+03  2.32784E+03  5.86907E+03  5.86752E+03  4.59768E+03  1.07903E+04
 -3.67217E+03  1.47376E+04 -1.32223E+04  1.45314E+04 -1.95418E+04  3.79209E+03 -1.96150E+04 -7.98996E+03
 -9.25574E+03 -1.89349E+04  3.16837E+03 -2.06819E+04  1.12376E+04 -1.28148E+04  1.53762E+04 -3.61356E+03
  1.16237E+04  6.59392E+03  2.68875E+03  1.05744E+04 -5.46555E+03  7.14185E+03 -7.90327E+03 -1.13025E+03
 -3.89308E+03 -8.26938E+03  4.38634E+03 -8.47726E+03  7.81336E+03 -3.94095E+03  7.64765E+03  1.96349E+03
  4.87082E+03  4.25451E+03  1.57437E+03  3.25323E+03 -9.53780E+02  2.74713E+03  1.66397E+03 -6.59838E+02
  3.55917E+03 -8.64618E+02  7.79012E+03  3.54964E+03  4.58914E+03  1.01242E+04 -2.14828E+03  1.34103E+04
 -9.03155E+03  9.38153E+03 -1.28883E+04  2.27986E+03 -1.10686E+04 -4.18013E+03 -4.26727E+03 -7.69952E+03
  1.23935E+03 -7.75300E+03  5.04871E+03 -3.67252E+03  3.89122E+03  3.46538E+03 -1.98877E+03  6.81265E+03
 -8.09305E+03  3.76741E+03 -9.17877E+03 -4.71649E+03 -5.14688E+03 -1.05819E+04  1.55239E+03 -1.09392E+04
  6.63641E+03 -6.48930E+03  7.94772E+03 -6.85638E+02  6.49080E+03  3.06123E+03  9.01776E+02  5.45633E+03
 -3.75704E+03  1.73935E+03 -4.97688E+03 -4.34120E+03  1.67308E+03 -8.64004E+03  1.00378E+04 -7.11346E+03
  1.27983E+04  4.77947E+02  1.13461E+04  8.58079E+03  4.17436E+03  1.36063E+04 -5.23919E+03  1.20762E+04
 -1.12996E+04  5.71031E+03 -1.09830E+04 -1.68471E+03 -5.92352E+03 -8.11762E+03  1.90656E+03 -8.43447E+03
  8.01338E+03 -4.11950E+03  6.74425E+03  3.32963E+03  2.77841E+03  7.14610E+03 -1.21346E+03  6.17326E+03
 -3.62072E+03  4.03692E+03 -3.35734E+03  1.28795E+03 -1.44441E+03  1.54554E+03 -1.36271E+03  2.83144E+03
 -3.39741E+03  4.93047E+03 -8.40676E+03  4.55808E+03 -1.38043E+04  7.12447E+01 -1.48937E+04 -9.51025E+03
 -7.94338E+03 -1.78644E+04  3.59193E+03 -2.07552E+04  1.29871E+04 -1.56726E+04  1.92965E+04 -5.85224E+03
  1.76679E+04  3.61602E+03  1.17464E+04  1.24044E+04  1.60426E+03  1.43639E+04 -5.62785E+03  1.01398E+04
 -8.00015E+03  4.15900E+03 -4.91212E+03 -1.51579E+03 -1.44539E+03 -1.24917E+03 -8.36289E+02  4.58977E+01
 -1.85626E+03  3.85795E+02 -2.78359E+03 -8.21694E+02 -1.53930E+03 -3.38451E+03  5.36287E+02 -5.57869E+03
  5.80890E+03 -4.79292E+03  8.97332E+03 -3.29108E+02  1.00712E+04  8.02400E+03  3.26554E+03  1.44204E+04
 -6.82602E+03  1.63579E+04 -1.51495E+04  9.23562E+03 -1.75989E+04 -7.39075E+02 -1.30959E+04 -1.02751E+04
 -5.36734E+03 -1.48585E+04  4.02280E+03 -1.35247E+04  9.81246E+03 -7.62622E+03  9.70601E+03  5.28121E+01
  5.38623E+03  4.78401E+03 -1.15237E+03  3.97368E+03 -3.30324E+03 -3.31145E+02 -5.35649E+01 -3.65673E+03
  4.03139E+03 -1.71156E+03  6.13196E+03  1.65235E+03  3.60930E+03  5.67464E+03  1.04757E+02  7.77221E+03
 -6.47952E+03  6.79292E+03 -1.00164E+04  7.81270E+02 -8.99123E+03 -7.31061E+03 -9.35091E+02 -1.25204E+04
  7.35410E+03 -1.08844E+04  1.14205E+04 -3.24113E+03  1.13268E+04  3.32923E+03  6.67166E+03  9.31319E+03
  1.15718E+03  9.95179E+03 -4.20096E+03  8.09382E+03 -6.30239E+03  5.00412E+03 -5.56363E+03  2.80300E+02
 -2.61560E+03 -3.47623E+02 -3.10044E+03  1.52036E+03 -4.94907E+03  1.99173E+03 -7.11466E+03 -9.26009E+02
 -7.39770E+03 -5.25427E+03 -1.94757E+03 -1.05726E+04  4.40249E+03 -1.01709E+04  9.21610E+03 -5.33554E+03
  1.03431E+04  1.60155E+03  5.89053E+03  7.53105E+03 -7.81822E+02  1.00854E+04 -8.00742E+03  6.40259E+03
