 $NMID ID='MM_0lb_SNR800_9hz_g40_11.RAW', FMTDAT='(8E13.5)'
 TRAMP=1., VOLUME=1. $END
  3.09772E+05 -1.36915E+02  3.37680E+05  2.50624E+05  8.51082E+04  3.38593E+05 -1.32737E+05  2.51486E+05
 -1.90631E+05  8.34606E+04 -1.12600E+05 -3.24877E+04  3.09032E+02 -5.08492E+04  5.35818E+04 -6.78875E+02
  3.58064E+04  5.26814E+04 -1.68266E+04  7.57267E+04 -6.12368E+04  6.43400E+04 -8.47920E+04  3.20374E+04
 -8.24068E+04 -1.14384E+04 -5.78677E+04 -5.21809E+04 -1.48021E+04 -7.06936E+04  2.78977E+04 -4.65727E+04
  4.08229E+04  3.49951E+03  1.67438E+04  4.82018E+04 -3.45890E+04  4.77565E+04 -6.74175E+04  1.10493E+02
 -5.48696E+04 -5.78008E+04 -7.60107E+03 -7.83999E+04  3.44382E+04 -5.70912E+04  4.91478E+04 -1.77603E+04
  4.45514E+04  1.12957E+04  3.24667E+04  2.61780E+04  1.55834E+04  3.02044E+04 -5.61828E+03  2.77751E+04
 -2.24746E+04  1.15352E+04 -1.83716E+04 -5.65269E+03  6.80251E+03 -7.51490E+03  2.33491E+04  1.34631E+04
  7.62701E+03  3.73251E+04 -3.35660E+04  3.67301E+04 -6.54391E+04  2.17950E+03 -5.81622E+04 -4.44978E+04
 -1.27295E+04 -6.56848E+04  4.09873E+04 -4.68047E+04  6.03863E+04 -2.38403E+03  3.58857E+04  3.36517E+04
 -5.25763E+03  3.84488E+04 -3.17177E+04  1.83658E+04 -3.27936E+04 -3.82096E+03 -1.86460E+04 -1.21553E+04
 -9.47366E+03 -1.48747E+04 -8.94073E+02 -1.90899E+04  8.30788E+03 -2.35614E+04  1.55539E+04 -1.30094E+04
  1.13299E+04  6.11013E+03 -1.00047E+04  1.29101E+04 -2.27799E+04 -6.78934E+03 -8.33710E+03 -3.66186E+04
  2.50873E+04 -4.59482E+04  5.11938E+04 -2.03071E+04  4.78912E+04  2.07638E+04  1.69362E+04  4.64190E+04
 -1.65699E+04  3.55381E+04 -2.70204E+04  2.76005E+03 -1.12234E+04 -2.92604E+04  2.15232E+04 -3.56387E+04
  4.33915E+04 -1.06765E+04  3.93783E+04  2.44580E+04  2.08014E+04  4.99186E+04 -8.26049E+03  5.47975E+04
 -3.46618E+04  3.70992E+04 -4.67304E+04  1.05571E+04 -4.63526E+04 -1.78844E+04 -2.58664E+04 -4.10503E+04
  7.82295E+03 -4.09511E+04  3.37548E+04 -1.66109E+04  3.16392E+04  1.11890E+04  4.91029E+03  2.09321E+04
 -1.39250E+04  9.99843E+03 -1.12578E+04 -7.38718E+03  5.72486E+03 -1.11228E+04  1.84536E+04  5.61246E+03
  1.47179E+04  2.25183E+04 -5.54066E+03  2.67746E+04 -2.33072E+04  1.38443E+04 -3.10260E+04 -3.08616E+03
 -2.41592E+04 -1.82616E+04 -1.07830E+04 -2.45097E+04  3.84446E+03 -2.49742E+04  1.95880E+04 -2.22889E+04
  3.10387E+04 -1.38190E+04  3.70061E+04  4.26697E+03  2.65131E+04  2.35243E+04  4.42024E+03  4.04173E+04
 -1.97538E+04  3.33902E+04 -3.00935E+04  1.13644E+04 -2.22908E+04 -1.03674E+04 -4.91629E+03 -1.32141E+04
  8.83722E+02 -1.20583E+03 -7.18923E+03  8.10168E+03 -1.97147E+04  4.79940E+03 -1.91541E+04 -8.77408E+03
 -1.18292E+04 -2.23484E+04  5.33105E+03 -2.71286E+04  1.80915E+04 -1.90286E+04  2.15611E+04 -1.40492E+03
  1.41277E+04  1.57672E+04 -1.30678E+03  2.24463E+04 -1.60065E+04  1.28252E+04 -2.30017E+04 -5.12165E+03
 -1.68114E+04 -2.03571E+04 -1.90653E+03 -2.73337E+04  1.25969E+04 -2.22743E+04  2.27646E+04 -1.22490E+04
  2.17569E+04  8.43635E+01  1.55496E+04  5.14346E+03  8.25909E+03  1.65091E+03  1.20251E+04 -1.95890E+03
  2.13115E+04  2.71711E+03  2.46921E+04  1.77126E+04  1.62854E+04  3.66456E+04 -2.48523E+03  4.21527E+04
 -2.42786E+04  3.52933E+04 -4.05089E+04  1.84109E+04 -4.26814E+04 -3.07363E+03 -3.51147E+04 -2.50882E+04
 -1.38214E+04 -3.57169E+04  1.26386E+04 -3.14661E+04  2.70355E+04 -1.50158E+04  2.31803E+04  7.38475E+03
  7.87252E+03  1.80180E+04 -1.10063E+04  1.47321E+04 -1.97045E+04  2.56805E+03 -1.46317E+04 -1.28144E+04
 -3.38736E+02 -1.86224E+04  1.01552E+04 -1.39565E+04  1.28635E+04 -1.41138E+03  3.37919E+03  8.67811E+03
 -8.32784E+03  3.99491E+03 -8.59312E+03 -6.82058E+03 -1.49600E+03 -1.70083E+04  1.17057E+04 -1.87295E+04
  2.19439E+04 -1.10789E+04  2.49465E+04  3.78193E+03  2.17542E+04  1.76708E+04  9.64997E+03  2.75712E+04
 -5.30927E+03  2.97803E+04 -1.93119E+04  1.85928E+04 -2.16475E+04  3.96129E+03 -1.49691E+04 -5.92763E+03
 -6.13687E+03 -6.87119E+03 -1.00994E+03  1.47843E+02 -2.93150E+03  3.03675E+03 -7.28308E+03  5.48330E+03
 -1.37369E+04 -8.66227E+02 -1.38799E+04 -1.15141E+04 -5.83010E+03 -1.84310E+04  5.66703E+03 -1.50853E+04
  1.20237E+04 -6.07158E+03  9.05179E+03  3.72039E+03 -2.99123E+02  5.99519E+03 -7.33090E+03  6.51174E+01
 -7.25488E+03 -9.48955E+03 -1.35916E+03 -1.45560E+04  8.20769E+03 -1.50810E+04  1.92349E+04 -8.39713E+03
  2.23765E+04  2.12691E+03  1.65183E+04  1.34467E+04  3.17502E+03  1.76007E+04 -9.39405E+03  1.47145E+04
 -1.22507E+04  4.35597E+03 -6.17784E+03 -3.38507E+03  2.01320E+03 -4.37856E+03  8.12934E+03 -9.17227E+02
  7.38749E+03  6.64059E+03  1.63450E+03  1.15563E+04 -8.70640E+03  1.14143E+04 -1.49540E+04  2.81127E+03
 -1.02159E+04 -7.89732E+03  3.36061E+02 -1.27889E+04  8.10626E+03 -6.40294E+03  8.77639E+03  3.14093E+03
  2.22035E+03  9.63221E+03 -7.87069E+03  1.13185E+04 -1.29001E+04  4.72241E+03 -1.30013E+04 -4.12449E+03
 -7.51255E+03 -1.49029E+04  3.50185E+03 -1.74030E+04  1.45741E+04 -1.00053E+04  1.59090E+04  2.63889E+03
  9.67631E+03  1.29149E+04 -1.30651E+03  1.51042E+04 -1.10324E+04  8.53623E+03 -1.18822E+04 -1.17048E+03
 -1.02254E+04 -9.79018E+03 -1.45292E+03 -1.10614E+04  6.21691E+03 -8.82041E+03  7.40504E+03 -3.35461E+03
  5.19038E+03  2.01747E+03 -1.03715E+03  2.27619E+03 -1.14511E+03 -3.26332E+03  2.26420E+03 -7.25359E+03
  1.07136E+04 -4.61474E+03  1.49460E+04  1.86139E+03  1.48271E+04  1.04308E+04  1.00545E+04  1.98339E+04
 -4.74314E+03  2.27278E+04 -1.88461E+04  1.71509E+04 -2.44544E+04  3.28787E+03 -2.02145E+04 -8.71245E+03
 -9.58360E+03 -1.64519E+04 -1.91545E+02 -1.39351E+04  4.91635E+03 -7.82959E+03  4.98401E+03 -4.68316E+03
  3.55897E+03 -3.11355E+03  3.65338E+03 -3.64246E+03  5.13884E+03 -3.49901E+03  7.98874E+03 -1.36300E+03
  1.01386E+04  2.57784E+03  5.24609E+03  8.65372E+03 -2.22174E+03  1.07207E+04 -1.10810E+04  8.19922E+03
 -1.34584E+04 -1.55911E+03 -8.87505E+03 -9.51930E+03 -1.17263E+03 -1.47691E+04  8.01570E+03 -1.51985E+04
  1.53243E+04 -8.01147E+03  1.87225E+04  3.04372E+03  1.26981E+04  1.30204E+04  1.66534E+03  1.72456E+04
 -6.74039E+03  1.36335E+04 -9.77615E+03  4.79684E+03 -7.09596E+03 -1.69441E+03 -2.56847E+03 -2.41488E+03
 -1.53338E+03  6.62846E+01 -2.32028E+03  2.79034E+03 -5.77634E+03  2.23841E+03 -9.76265E+03 -1.27920E+03
 -7.22968E+03 -9.43777E+03  1.57177E+02 -1.38213E+04  8.37426E+03 -1.27123E+04  1.37075E+04 -4.04846E+03
  1.39263E+04  6.68998E+03  6.60786E+03  1.25634E+04 -2.68087E+03  1.42380E+04 -9.69068E+03  9.08966E+03
 -1.30641E+04  8.13393E+02 -9.95570E+03 -8.18803E+03 -1.37092E+03 -1.12984E+04  5.83133E+03 -8.43668E+03
  9.13919E+03 -3.05216E+03  6.35008E+03  2.51123E+03  1.88738E+03  4.41107E+03  1.37366E+03  1.90181E+03
  2.19628E+03  8.17574E+02  3.48102E+03  2.06512E+03  4.05893E+03  4.72919E+03  3.54047E+03  7.25235E+03
 -3.03647E+03  1.05977E+04 -9.47007E+03  1.12578E+04 -1.43352E+04  3.22885E+03 -1.47813E+04 -5.83973E+03
 -7.30740E+03 -1.40341E+04  1.91892E+03 -1.56863E+04  8.67585E+03 -9.84337E+03  1.16779E+04 -2.93531E+03
  8.93437E+03  4.99321E+03  2.15062E+03  8.29347E+03 -4.01804E+03  5.23654E+03 -5.90617E+03 -9.69770E+02
 -2.69653E+03 -5.99788E+03  3.71352E+03 -6.16377E+03  5.91455E+03 -3.08569E+03  6.07630E+03  1.74481E+03
  3.47360E+03  2.65308E+03  1.75294E+03  2.02338E+03 -8.60495E+02  1.67854E+03  1.32726E+03 -5.42247E+02
  2.47663E+03 -5.84686E+02  5.82893E+03  2.42920E+03  3.26131E+03  7.99205E+03 -1.21278E+03  1.03327E+04
 -6.86777E+03  6.61098E+03 -8.96053E+03  2.22397E+03 -7.98938E+03 -3.14882E+03 -2.98499E+03 -5.35882E+03
  9.31658E+02 -5.62532E+03  3.40788E+03 -2.24357E+03  3.16729E+03  2.51231E+03 -9.02225E+02  4.70590E+03
 -6.16312E+03  2.61626E+03 -6.94354E+03 -3.36330E+03 -4.07407E+03 -8.16795E+03  9.87768E+02 -7.82911E+03
  5.13141E+03 -4.90058E+03  5.57590E+03 -1.29176E+03  4.96381E+03  2.44008E+03  7.36838E+02  3.99058E+03
 -3.19753E+03  1.81432E+03 -4.07221E+03 -2.72295E+03  1.31387E+03 -6.12476E+03  7.03813E+03 -4.98704E+03
  9.07203E+03  6.03493E+02  8.93675E+03  6.63865E+03  2.95664E+03  9.67583E+03 -3.12367E+03  8.94530E+03
 -7.69607E+03  3.95461E+03 -7.81164E+03 -1.15979E+03 -4.29005E+03 -6.14354E+03  1.18285E+03 -6.10636E+03
  5.72732E+03 -3.21167E+03  5.01382E+03  2.75897E+03  2.29264E+03  4.87928E+03 -7.65217E+02  4.09622E+03
 -2.36417E+03  2.53413E+03 -2.00331E+03  5.47855E+02 -1.03712E+03  5.83745E+02 -1.76489E+03  1.81832E+03
 -2.41679E+03  3.70798E+03 -6.26832E+03  3.11171E+03 -9.49346E+03  5.10598E+02 -1.07078E+04 -6.13480E+03
 -5.63495E+03 -1.24228E+04  2.36691E+03 -1.45191E+04  9.04140E+03 -1.17264E+04  1.35838E+04 -4.52592E+03
  1.27580E+04  2.72068E+03  7.53515E+03  8.80942E+03  5.20302E+02  1.01519E+04 -4.14102E+03  7.58221E+03
 -5.30514E+03  3.02628E+03 -3.33746E+03 -1.05884E+03 -1.14869E+03 -6.22307E+02 -6.74041E+02  8.22093E+01
 -2.05453E+03 -1.52184E+02 -2.12828E+03 -2.41003E+02 -4.09124E+02 -2.10052E+03  3.07989E+02 -3.53279E+03
  4.39959E+03 -2.95920E+03  6.08260E+03 -3.43439E+02  6.82784E+03  5.24940E+03  1.95637E+03  9.76903E+03
 -4.57023E+03  1.13999E+04 -1.00447E+04  6.70171E+03 -1.19509E+04 -1.43370E+03 -8.97493E+03 -7.24716E+03
 -3.58694E+03 -1.00441E+04  2.14825E+03 -8.86681E+03  6.17686E+03 -5.13947E+03  6.59151E+03  1.56595E+02
  3.93282E+03  3.01411E+03 -3.74145E+02  2.69741E+03 -1.97886E+03  3.73321E+01  2.05494E+02 -2.43675E+03
  2.86193E+03 -1.17873E+03  4.08813E+03  1.15031E+03  2.51266E+03  4.24567E+03  3.56151E+02  5.19703E+03
 -4.62243E+03  4.42739E+03 -6.82418E+03  6.56097E+02 -6.04127E+03 -4.76872E+03 -4.14546E+02 -8.04903E+03
  4.67760E+03 -7.02956E+03  7.78450E+03 -2.42246E+03  8.12715E+03  1.86891E+03  4.47990E+03  5.90517E+03
  9.85231E+02  6.40756E+03 -2.27612E+03  5.04944E+03 -4.12484E+03  2.85331E+03 -3.64970E+03  1.97177E+02
 -1.60750E+03 -6.13465E+02 -2.01067E+03  1.05594E+03 -3.31098E+03  1.08973E+03 -5.18134E+03 -1.25323E+03
 -5.01856E+03 -3.61925E+03 -1.85591E+03 -6.80120E+03  3.17920E+03 -7.16098E+03  5.82906E+03 -3.47333E+03
  6.59599E+03  6.79685E+02  3.25252E+03  4.59159E+03 -1.90632E+02  6.74586E+03 -4.68418E+03  4.57059E+03
