 $NMID ID='MM_0lb_SNR800_18hz_g60_43.RAW', FMTDAT='(8E13.5)'
 TRAMP=1., VOLUME=1. $END
  3.09825E+05  3.81862E+02  3.37594E+05  2.50552E+05  8.44920E+04  3.37938E+05 -1.32629E+05  2.50770E+05
 -1.89984E+05  8.28473E+04 -1.11758E+05 -3.27496E+04  9.82897E+02 -5.05691E+04  5.35706E+04 -5.29451E+01
  3.52333E+04  5.28847E+04 -1.68492E+04  7.52667E+04 -6.10867E+04  6.33925E+04 -8.37843E+04  3.18117E+04
 -8.05675E+04 -1.11694E+04 -5.70403E+04 -5.10635E+04 -1.50195E+04 -6.93029E+04  2.71642E+04 -4.52450E+04
  3.97923E+04  3.94178E+03  1.57987E+04  4.77291E+04 -3.42316E+04  4.68261E+04 -6.65049E+04 -2.54009E+02
 -5.33331E+04 -5.65282E+04 -6.69180E+03 -7.64480E+04  3.37068E+04 -5.43714E+04  4.76214E+04 -1.69857E+04
  4.27294E+04  1.11127E+04  3.16459E+04  2.51025E+04  1.57406E+04  2.92727E+04 -5.05314E+03  2.72598E+04
 -2.19620E+04  1.24730E+04 -1.88633E+04 -4.67709E+03  5.27472E+03 -7.40595E+03  2.19881E+04  1.19421E+04
  7.47955E+03  3.46776E+04 -3.17701E+04  3.52038E+04 -6.26741E+04  2.25305E+03 -5.63841E+04 -4.20768E+04
 -1.24927E+04 -6.22786E+04  3.92272E+04 -4.45759E+04  5.73140E+04 -2.19512E+03  3.33124E+04  3.19688E+04
 -6.48934E+03  3.49591E+04 -2.94326E+04  1.50482E+04 -2.98672E+04 -4.67219E+03 -1.59874E+04 -1.09191E+04
 -8.16346E+03 -1.26447E+04 -8.82325E+02 -1.78833E+04  7.12999E+03 -2.24459E+04  1.52271E+04 -1.34893E+04
  1.14883E+04  4.91700E+03 -7.83946E+03  1.29680E+04 -2.04376E+04 -3.60723E+03 -8.31258E+03 -3.26925E+04
  2.19579E+04 -4.23908E+04  4.69397E+04 -1.93653E+04  4.38163E+04  1.88991E+04  1.52561E+04  4.30919E+04
 -1.57675E+04  3.27903E+04 -2.49139E+04  1.42151E+03 -9.22026E+03 -2.72814E+04  2.06872E+04 -3.29584E+04
  3.99503E+04 -8.54424E+03  3.39710E+04  2.32929E+04  1.72009E+04  4.48898E+04 -7.97851E+03  4.83770E+04
 -3.04139E+04  3.21577E+04 -4.00010E+04  9.17800E+03 -4.07384E+04 -1.60444E+04 -2.26585E+04 -3.61494E+04
  7.06981E+03 -3.63586E+04  3.05011E+04 -1.37899E+04  2.81882E+04  1.09217E+04  3.58951E+03  1.85458E+04
 -1.32854E+04  7.81373E+03 -9.83202E+03 -7.61150E+03  6.08151E+03 -1.03962E+04  1.74317E+04  6.23648E+03
  1.31056E+04  2.19269E+04 -6.47331E+03  2.43417E+04 -2.16760E+04  1.05713E+04 -2.69054E+04 -5.49917E+03
 -1.88333E+04 -1.70055E+04 -7.18606E+03 -1.88593E+04  3.93824E+03 -1.71977E+04  1.41906E+04 -1.66574E+04
  2.40111E+04 -1.20845E+04  3.06211E+04  1.72195E+03  2.25899E+04  1.83175E+04  4.10054E+03  3.44099E+04
 -1.67249E+04  2.91558E+04 -2.69192E+04  1.01553E+04 -2.02602E+04 -1.03965E+04 -4.12455E+03 -1.35609E+04
  2.08645E+03 -3.33217E+03 -3.54542E+03  6.01074E+03 -1.46990E+04  5.09666E+03 -1.48259E+04 -5.78607E+03
 -9.34188E+03 -1.71726E+04  4.81234E+03 -2.14687E+04  1.39342E+04 -1.51930E+04  1.62835E+04 -1.40662E+03
  1.02098E+04  1.21130E+04 -6.62335E+02  1.75788E+04 -1.13585E+04  9.80046E+03 -1.71968E+04 -3.77313E+03
 -1.24996E+04 -1.55566E+04 -1.42926E+03 -2.10218E+04  9.53832E+03 -1.71446E+04  1.75296E+04 -8.11268E+03
  1.60258E+04  4.95326E+02  1.15566E+04  4.22515E+03  5.90233E+03  7.14088E+02  8.69627E+03 -1.85043E+03
  1.54431E+04  2.76327E+03  1.66655E+04  1.35770E+04  1.06473E+04  2.72891E+04 -2.90456E+03  3.01039E+04
 -1.74014E+04  2.35681E+04 -2.78432E+04  1.15952E+04 -2.85126E+04 -2.02791E+03 -2.40360E+04 -1.64322E+04
 -1.08848E+04 -2.35870E+04  8.19396E+03 -2.18211E+04  1.86083E+04 -1.19256E+04  1.70669E+04  4.50101E+03
  6.92073E+03  1.23170E+04 -7.95514E+03  1.12415E+04 -1.45038E+04  2.72408E+03 -1.12452E+04 -8.73294E+03
 -2.89498E+01 -1.34754E+04  6.83145E+03 -1.03553E+04  8.94021E+03 -1.51579E+03  1.75702E+03  5.48268E+03
 -6.07773E+03  1.51838E+03 -4.53913E+03 -4.88124E+03  2.90629E+00 -1.13939E+04  8.70084E+03 -1.16437E+04
  1.42670E+04 -5.89531E+03  1.42105E+04  2.77072E+03  1.24487E+04  1.10624E+04  6.11604E+03  1.65351E+04
 -2.60435E+03  1.81610E+04 -1.11142E+04  1.15503E+04 -1.26461E+04  2.96256E+03 -9.27087E+03 -2.69863E+03
 -4.83010E+03 -3.90523E+03 -5.31558E+02  1.02281E+03 -2.00713E+03  2.29774E+03 -4.24856E+03  4.04643E+03
 -9.05261E+03 -4.55153E+02 -9.67596E+03 -7.84363E+03 -3.69073E+03 -1.25266E+04  3.98726E+03 -9.41345E+03
  7.83449E+03 -4.01806E+03  5.67584E+03  2.46232E+03  6.09517E+02  3.53395E+03 -3.91051E+03 -3.04770E+02
 -4.09892E+03 -5.76290E+03 -8.96605E+02 -8.27078E+03  4.84068E+03 -8.97646E+03  1.14739E+04 -4.62661E+03
  1.31464E+04  6.62298E+02  9.81512E+03  7.28590E+03  1.87531E+03  9.86409E+03 -5.57825E+03  9.04752E+03
 -7.78693E+03  3.25098E+03 -3.97024E+03 -1.48537E+03  1.38334E+03 -2.40634E+03  5.13919E+03 -9.31835E+02
  4.68193E+03  3.76319E+03  8.99034E+02  7.18917E+03 -5.39230E+03  7.36388E+03 -8.95365E+03  1.96364E+03
 -5.70406E+03 -4.30720E+03  2.48720E+02 -7.52810E+03  4.11307E+03 -4.05009E+03  4.25490E+03  1.37923E+03
  7.12757E+02  4.00068E+03 -4.59467E+03  5.67530E+03 -6.11667E+03  2.58139E+03 -5.52909E+03 -1.29883E+03
 -3.53727E+03 -7.01343E+03  1.44614E+03 -8.17682E+03  6.95769E+03 -5.20870E+03  7.64765E+03  1.28819E+03
  5.14939E+03  5.92961E+03  8.75096E+00  8.18998E+03 -5.65117E+03  4.55612E+03 -6.01125E+03 -4.25229E+02
 -6.02304E+03 -5.55797E+03 -1.33940E+03 -5.95150E+03  2.98568E+03 -5.20825E+03  3.19948E+03 -3.23782E+03
  2.99986E+03  2.44436E+02 -1.36177E+02  1.26371E+03  4.83293E+02 -5.22911E+02  5.14745E+02 -2.48677E+03
  4.40836E+03 -1.13995E+03  6.09367E+03  6.78271E+02  6.44462E+03  3.97048E+03  5.79713E+03  8.36911E+03
 -1.64668E+03  9.92894E+03 -8.75418E+03  7.12273E+03 -1.11677E+04  1.43345E+03 -8.87139E+03 -3.38262E+03
 -4.75816E+03 -7.53071E+03 -1.87969E+02 -5.82241E+03  2.19296E+03 -2.85173E+03  1.96709E+03 -2.59933E+03
  1.56392E+03 -1.37552E+03  2.28351E+03 -2.25724E+03  3.79074E+03 -1.41062E+03  3.98741E+03  2.89164E+02
  5.12235E+03  1.12656E+03  1.63244E+03  3.85456E+03 -1.50080E+03  3.41024E+03 -5.07386E+03  3.09479E+03
 -5.65340E+03 -1.23979E+03 -2.32955E+03 -3.87630E+03  4.70870E+02 -5.66150E+03  3.42170E+03 -6.08962E+03
  5.89222E+03 -3.56087E+03  7.79375E+03  3.88441E+02  5.51521E+03  4.92224E+03  1.09687E+03  6.93460E+03
 -2.73395E+03  6.13808E+03 -3.53619E+03  2.18192E+03 -2.24177E+03 -9.38784E+02 -9.60650E+02 -5.52306E+02
 -5.74964E+02  3.79524E+02 -9.33721E+02  2.05183E+03 -2.84036E+03  1.09047E+03 -4.57978E+03 -5.04748E+02
 -2.08469E+03 -4.69740E+03  9.10413E+02 -5.27153E+03  3.25210E+03 -4.86176E+03  4.16163E+03 -9.68916E+02
  4.78830E+03  2.62417E+03  2.41605E+03  3.75582E+03 -8.83492E+02  5.13296E+03 -3.15994E+03  3.24659E+03
 -4.37371E+03  3.67285E+02 -3.66910E+03 -2.63023E+03 -1.62454E+02 -3.69141E+03  1.94422E+03 -2.77660E+03
  2.72933E+03 -1.59773E+03  1.84279E+03  5.20709E+02  7.11518E+02  1.72344E+03  1.39396E+03  5.29581E+02
  1.73220E+03  6.90466E+02  1.35195E+03  1.01854E+03  1.40283E+03  2.56145E+03  1.59152E+03  2.16773E+03
 -1.30483E+03  3.41970E+03 -2.82873E+03  4.43316E+03 -3.66191E+03  1.32837E+03 -4.96583E+03 -1.01435E+03
 -1.79468E+03 -4.45104E+03  5.79759E+02 -5.21289E+03  2.32626E+03 -2.94306E+03  3.56510E+03 -1.02265E+03
  2.79751E+03  1.93757E+03  7.06880E+02  2.47399E+03 -6.97649E+02  1.15621E+03 -1.15560E+03  2.22065E+01
 -8.20512E+02 -1.71765E+03  1.38834E+03 -1.68218E+03  1.54096E+03 -8.44388E+02  1.44001E+03  1.17031E+02
  6.36179E+02  3.37046E+02  7.91664E+02  2.04863E+01 -4.57235E+02  6.57515E+02  1.74558E+03  5.23185E+00
  1.22690E+02 -4.60910E+01  1.95870E+03  7.51684E+02  3.34812E+02  2.77648E+03 -3.49269E+02  3.02990E+03
 -1.62641E+03  1.31643E+03 -2.22686E+03  4.08468E+02 -2.53376E+03 -7.19278E+02 -3.91323E+02 -1.04369E+03
  2.83822E+02 -1.62623E+03  9.42131E+02 -6.68884E+02  7.65166E+02  1.38412E+03 -6.26804E+02  1.29938E+03
 -1.78651E+03  5.86242E+02 -1.28463E+03 -1.38431E+03 -8.97075E+02 -2.44356E+03  2.77264E+02 -1.43239E+03
  5.43904E+02 -5.17073E+02  7.05224E+02  2.45390E+02  1.29221E+03 -6.95892E-01  4.71319E+02  1.23553E+03
 -1.10243E+02  1.92521E+02 -8.34163E+02 -2.58211E+02  7.13107E+02 -8.88898E+02  1.64263E+03 -9.37843E+02
  1.36659E+03  3.78119E+02  2.75704E+03  9.58129E+02  1.12921E+03  1.91441E+03 -4.88810E+02  1.87280E+03
 -1.76424E+03  6.60223E+02 -1.31042E+03 -2.67341E+02 -7.38999E+02 -1.38988E+03  1.20822E+02 -7.98501E+02
  1.56275E+03 -6.50529E+02  7.35557E+02  8.94198E+02  3.29762E+02  1.23313E+03  4.07178E+02  1.27311E+03
 -6.72756E+01  1.15316E+03 -6.43218E+02  3.81033E+02  1.65732E+02  5.79111E+02 -4.22516E+02  4.53552E+02
 -5.51004E+02  1.01677E+03 -1.96209E+03  9.06399E+02 -1.67284E+03 -1.09152E+00 -2.27049E+03 -1.00871E+03
 -1.06688E+03 -2.45445E+03  5.45518E+02 -2.95374E+03  1.02648E+03 -2.81540E+03  2.82022E+03 -9.28298E+02
  2.54765E+03 -9.70089E+01  9.46575E+02  1.41219E+03 -4.67800E+02  1.59004E+03 -5.27011E+02  1.79595E+03
 -9.81445E+02  8.62204E+02 -4.94377E+02 -2.54069E+02 -5.96067E+02 -1.68622E+01 -5.30842E+02  1.10771E+02
 -8.91887E+02  3.42698E+01 -8.06675E+02  3.34050E+00  2.51581E+02 -5.47625E+02 -5.45540E+02 -1.02540E+03
  1.21246E+03 -6.29812E+02  4.82504E+02  1.14773E+02  1.09912E+03  9.03679E+02 -3.76780E+02  1.76598E+03
 -9.46412E+02  2.37208E+03 -1.91795E+03  1.03940E+03 -1.58815E+03 -1.56644E+02 -1.12310E+03 -1.11327E+03
 -8.77932E+02 -1.55184E+03  3.46340E+02 -9.22111E+02  7.47056E+02 -6.57788E+02  9.59607E+02  3.84750E+02
  6.43425E+02  3.23442E+02 -2.57664E+02  3.54031E+02 -3.68425E+02 -1.32242E+02 -2.24348E+02 -2.08736E+02
  3.33151E+02  1.68775E+02  3.42744E+02  2.85507E+02  5.50392E+01  4.42409E+02  3.03434E+02  2.07065E+02
 -5.65276E+02  8.98721E+02 -6.52025E+02  2.21811E+02 -8.05059E+02 -5.39554E+02  1.17127E+02 -1.06791E+03
  6.11584E+02 -5.45096E+02  4.96011E+02 -1.23449E+02  9.25091E+02 -4.43907E+02  3.63701E+02  8.10333E+02
  2.68344E+02  7.88183E+02 -2.37492E+02  6.34488E+02 -3.58129E+02  5.18155E+02 -5.13426E+02  2.96201E+02
 -2.90539E+02 -4.81425E+02 -4.12658E+02  3.01820E+02 -8.10017E+02 -5.62552E+01 -9.59985E+02 -4.20905E+02
 -1.00704E+03  4.67410E+02 -3.71125E+02 -7.58632E+02  4.79139E+02 -1.35838E+03  8.88500E+02 -4.14907E+02
  5.78113E+02  3.03837E+02 -4.89110E+02  8.98179E+01 -1.12090E+02  7.46836E+02 -3.63682E+02  7.17057E+02
