 $NMID ID='MM_0lb_SNR800_16hz_g45_73.RAW', FMTDAT='(8E13.5)'
 TRAMP=1., VOLUME=1. $END
  3.09691E+05  2.96452E+02  3.37381E+05  2.50534E+05  8.44377E+04  3.37490E+05 -1.32515E+05  2.50497E+05
 -1.90211E+05  8.28212E+04 -1.11517E+05 -3.26285E+04  1.04199E+03 -5.00811E+04  5.37343E+04  5.84313E+01
  3.52256E+04  5.27324E+04 -1.67731E+04  7.51301E+04 -6.05510E+04  6.29631E+04 -8.35882E+04  3.20141E+04
 -8.03096E+04 -1.10194E+04 -5.68247E+04 -5.06209E+04 -1.50539E+04 -6.87285E+04  2.70214E+04 -4.53437E+04
  3.95219E+04  3.93724E+03  1.58751E+04  4.73545E+04 -3.39987E+04  4.67343E+04 -6.58298E+04 -4.60297E+02
 -5.25987E+04 -5.66577E+04 -6.63170E+03 -7.59903E+04  3.34262E+04 -5.40127E+04  4.70670E+04 -1.72006E+04
  4.26120E+04  1.10099E+04  3.12991E+04  2.51639E+04  1.54841E+04  2.87262E+04 -5.09745E+03  2.69397E+04
 -2.16209E+04  1.25979E+04 -1.88904E+04 -4.65025E+03  4.69528E+03 -7.54658E+03  2.16874E+04  1.15450E+04
  7.14933E+03  3.42646E+04 -3.11466E+04  3.46580E+04 -6.20089E+04  1.96144E+03 -5.59467E+04 -4.20142E+04
 -1.25943E+04 -6.18218E+04  3.89738E+04 -4.44071E+04  5.66690E+04 -2.13326E+03  3.27560E+04  3.14515E+04
 -6.24691E+03  3.43387E+04 -2.92430E+04  1.46783E+04 -2.88017E+04 -4.90868E+03 -1.53484E+04 -1.06856E+04
 -7.74758E+03 -1.24270E+04 -9.74568E+02 -1.73903E+04  6.97852E+03 -2.31619E+04  1.51411E+04 -1.35364E+04
  1.19582E+04  4.48195E+03 -7.20199E+03  1.29747E+04 -2.05742E+04 -3.42772E+03 -8.19554E+03 -3.15130E+04
  2.17598E+04 -4.17806E+04  4.63459E+04 -1.91051E+04  4.32106E+04  1.87423E+04  1.49457E+04  4.30611E+04
 -1.53549E+04  3.21366E+04 -2.43248E+04  1.68127E+03 -9.15719E+03 -2.66323E+04  2.08205E+04 -3.23521E+04
  3.94094E+04 -8.05827E+03  3.34763E+04  2.33974E+04  1.60790E+04  4.44825E+04 -7.66691E+03  4.70036E+04
 -2.96584E+04  3.17385E+04 -3.97305E+04  8.97260E+03 -3.99728E+04 -1.56477E+04 -2.22485E+04 -3.60445E+04
  7.14336E+03 -3.56166E+04  3.02661E+04 -1.33361E+04  2.78137E+04  1.09165E+04  3.34356E+03  1.83932E+04
 -1.33014E+04  7.82350E+03 -1.00113E+04 -7.60746E+03  5.94657E+03 -1.04838E+04  1.76048E+04  6.05445E+03
  1.25063E+04  2.17815E+04 -6.41727E+03  2.41672E+04 -2.18449E+04  1.01269E+04 -2.62094E+04 -5.42965E+03
 -1.86946E+04 -1.70651E+04 -6.77212E+03 -1.85232E+04  3.87755E+03 -1.70239E+04  1.37267E+04 -1.62427E+04
  2.34303E+04 -1.23053E+04  3.03318E+04  1.73359E+03  2.22789E+04  1.77960E+04  3.98539E+03  3.44874E+04
 -1.69500E+04  2.87924E+04 -2.67880E+04  9.78000E+03 -2.02199E+04 -1.05035E+04 -4.27064E+03 -1.36863E+04
  2.31377E+03 -3.37960E+03 -3.82092E+03  5.89482E+03 -1.47095E+04  5.24761E+03 -1.48161E+04 -5.80645E+03
 -9.39876E+03 -1.71945E+04  4.73268E+03 -2.09855E+04  1.41115E+04 -1.51409E+04  1.63407E+04 -1.81735E+03
  1.02102E+04  1.18785E+04 -7.72117E+02  1.70579E+04 -1.15259E+04  9.91867E+03 -1.71554E+04 -3.53629E+03
 -1.27328E+04 -1.54969E+04 -1.67363E+03 -2.07044E+04  9.35436E+03 -1.73038E+04  1.74327E+04 -8.17617E+03
  1.62376E+04  2.99853E+02  1.17678E+04  4.13324E+03  5.74720E+03  7.54687E+02  8.37437E+03 -1.50634E+03
  1.55764E+04  2.76005E+03  1.72907E+04  1.36559E+04  1.06206E+04  2.73582E+04 -3.00034E+03  3.02767E+04
 -1.79120E+04  2.33908E+04 -2.79570E+04  1.14658E+04 -2.84717E+04 -1.82360E+03 -2.42432E+04 -1.62810E+04
 -1.08449E+04 -2.34841E+04  8.10656E+03 -2.15577E+04  1.88734E+04 -1.18436E+04  1.71491E+04  4.60294E+03
  6.87332E+03  1.23836E+04 -8.01765E+03  1.14191E+04 -1.47832E+04  2.41451E+03 -1.16006E+04 -9.02963E+03
 -4.21718E+01 -1.38775E+04  7.07666E+03 -1.05574E+04  8.95088E+03 -1.09430E+03  1.78870E+03  5.59818E+03
 -6.24254E+03  1.72990E+03 -4.65789E+03 -5.13815E+03  1.63819E+01 -1.14938E+04  8.48809E+03 -1.19986E+04
  1.40827E+04 -5.79424E+03  1.45831E+04  2.87388E+03  1.27729E+04  1.11117E+04  6.11773E+03  1.67356E+04
 -2.40853E+03  1.90132E+04 -1.16550E+04  1.17229E+04 -1.31421E+04  3.26357E+03 -9.55594E+03 -2.57436E+03
 -4.90816E+03 -3.54508E+03 -9.05487E+02  1.41877E+03 -2.24853E+03  2.27762E+03 -4.31785E+03  4.14821E+03
 -9.01154E+03 -3.80407E+02 -1.00548E+04 -8.07022E+03 -3.88159E+03 -1.30300E+04  3.85624E+03 -9.67558E+03
  8.31337E+03 -4.31329E+03  5.82830E+03  2.53512E+03  4.68980E+02  3.69114E+03 -4.21164E+03 -1.56417E+02
 -4.31339E+03 -6.09374E+03 -9.95043E+02 -8.81407E+03  4.89055E+03 -9.30807E+03  1.17096E+04 -4.50726E+03
  1.38047E+04  1.10867E+03  1.00301E+04  7.57971E+03  2.12003E+03  1.07005E+04 -6.04973E+03  9.45523E+03
 -8.18516E+03  3.00796E+03 -3.85182E+03 -1.52226E+03  1.26642E+03 -2.18290E+03  5.20664E+03 -8.26978E+02
  4.78448E+03  4.01048E+03  1.25583E+03  7.44054E+03 -5.32940E+03  7.40548E+03 -9.21738E+03  1.95575E+03
 -6.04068E+03 -4.57359E+03  2.00006E+02 -7.94486E+03  4.48496E+03 -4.00544E+03  4.60064E+03  1.37053E+03
  8.10222E+02  4.43262E+03 -4.97085E+03  5.89518E+03 -6.40499E+03  2.79042E+03 -6.02051E+03 -1.89132E+03
 -3.69806E+03 -7.70151E+03  1.66036E+03 -8.89528E+03  7.71568E+03 -5.53258E+03  8.21294E+03  1.39584E+03
  5.40793E+03  6.62117E+03 -8.01761E+00  9.06208E+03 -6.19393E+03  4.98997E+03 -6.35714E+03 -7.42396E+02
 -6.80076E+03 -5.88338E+03 -1.14875E+03 -6.25264E+03  3.05012E+03 -5.44066E+03  3.55753E+03 -2.82768E+03
  3.35081E+03  7.53164E+02  2.43588E+02  1.57368E+03  4.45292E+02 -7.99515E+02  4.36129E+02 -2.77034E+03
  5.08555E+03 -1.76362E+03  7.09344E+03  7.35284E+02  7.33473E+03  4.12266E+03  6.29103E+03  9.36762E+03
 -1.90522E+03  1.11847E+04 -9.83047E+03  8.40228E+03 -1.25111E+04  1.31117E+03 -9.93365E+03 -3.64780E+03
 -5.62152E+03 -8.08929E+03 -8.25211E+02 -6.58562E+03  2.57559E+03 -3.43012E+03  1.96760E+03 -2.67998E+03
  1.71598E+03 -1.92297E+03  2.13818E+03 -2.31850E+03  3.89782E+03 -1.69960E+03  4.38647E+03  2.51367E+02
  5.59178E+03  1.51973E+03  1.86468E+03  4.24161E+03 -1.67966E+03  4.15649E+03 -5.81351E+03  3.72581E+03
 -6.62751E+03 -1.30163E+03 -3.07328E+03 -4.44159E+03  1.86570E+02 -6.93686E+03  4.17438E+03 -6.91403E+03
  6.98839E+03 -4.21185E+03  8.87084E+03  5.23379E+02  6.32032E+03  5.78204E+03  1.30181E+03  7.92437E+03
 -3.17185E+03  7.10627E+03 -4.59900E+03  2.49037E+03 -2.81864E+03 -1.20669E+03 -8.01304E+02 -9.31054E+02
 -5.42544E+02  7.05106E+02 -1.34339E+03  2.29387E+03 -2.87151E+03  9.23575E+02 -5.02726E+03 -5.87193E+02
 -2.28455E+03 -5.12585E+03  5.14201E+02 -6.16254E+03  3.55056E+03 -5.87775E+03  5.06743E+03 -1.66529E+03
  5.93403E+03  3.30792E+03  2.45781E+03  4.58887E+03 -1.13500E+03  6.34855E+03 -4.09488E+03  3.80914E+03
 -5.37111E+03  8.00109E+02 -4.35583E+03 -3.61358E+03 -2.43762E+02 -4.47408E+03  2.24174E+03 -3.65020E+03
  3.89821E+03 -1.65912E+03  2.43093E+03  8.12895E+02  6.85520E+02  1.96281E+03  9.56853E+02  5.86833E+02
  1.89208E+03  3.39931E+02  1.72413E+03  1.21898E+03  1.56733E+03  2.88101E+03  1.67239E+03  2.65319E+03
 -1.40061E+03  4.23753E+03 -3.61344E+03  5.36635E+03 -4.67940E+03  1.45447E+03 -5.63672E+03 -1.28793E+03
 -2.69373E+03 -5.43394E+03  9.13723E+02 -6.43065E+03  2.92650E+03 -3.68425E+03  4.37491E+03 -1.13348E+03
  3.50036E+03  2.29842E+03  5.26651E+02  3.30537E+03 -1.11544E+03  1.93739E+03 -1.53489E+03 -6.71302E+02
 -1.16027E+03 -2.13090E+03  1.58126E+03 -2.37848E+03  2.24789E+03 -1.34571E+03  2.01056E+03  7.47881E+02
  1.11925E+03  7.19542E+02  9.09823E+02 -5.11035E-01 -4.27819E+02  1.05580E+03  1.81190E+03 -1.81807E+02
  4.63495E+02 -2.09329E+02  2.49155E+03  9.25305E+02  5.15751E+02  2.90640E+03 -5.63814E+02  4.02666E+03
 -2.39729E+03  2.12277E+03 -3.25194E+03  3.96316E+02 -3.42768E+03 -9.19259E+02 -8.19062E+02 -1.63257E+03
  5.93036E+02 -1.86005E+03  1.58900E+03 -9.89024E+02  9.07726E+02  1.74060E+03 -9.02487E+02  1.55317E+03
 -2.07716E+03  1.10454E+03 -2.24622E+03 -1.85881E+03 -1.30562E+03 -2.89954E+03  5.03599E+02 -2.57548E+03
  1.05620E+03 -1.47448E+03  1.74744E+03  3.21480E+01  1.63547E+03  7.51677E+01  3.33377E+02  1.56124E+03
 -5.99009E+02  1.47865E+02 -1.31001E+03 -4.81786E+02  9.92327E+02 -1.70320E+03  2.54876E+03 -1.60617E+03
  2.18562E+03  2.37934E+02  3.48243E+03  1.38543E+03  1.43829E+03  2.64900E+03 -8.71434E+02  2.67246E+03
 -1.86751E+03  3.82521E+02 -2.12419E+03 -4.55776E+02 -1.20141E+03 -1.84040E+03  6.75348E+02 -1.49402E+03
  2.13968E+03 -1.19302E+03  1.10688E+03  7.68027E+02  4.48732E+02  1.72543E+03  2.44834E+02  1.81134E+03
 -7.97233E+02  1.21275E+03 -7.83456E+02  2.86091E+02 -4.43506E+02  5.85317E+02 -6.07812E+02  5.97192E+02
 -6.71848E+02  1.66306E+03 -2.43557E+03  7.97761E+02 -2.79237E+03  1.26103E+01 -3.35362E+03 -1.68523E+03
 -1.56996E+03 -3.98583E+03  6.94234E+02 -4.50424E+03  2.09218E+03 -3.48313E+03  4.13891E+03 -1.34136E+03
  3.64431E+03  1.72598E+02  1.97895E+03  2.68604E+03 -1.73885E+02  2.55163E+03 -1.33017E+03  2.24406E+03
 -1.65249E+03  1.14350E+03 -8.04966E+02 -2.06982E+02 -4.28057E+02  9.21822E+01 -4.13948E+02  1.06671E+02
 -1.17049E+03  4.17189E+01 -1.22811E+03  1.27781E+02  4.03435E+01 -1.01103E+03 -3.37018E+02 -1.47131E+03
  1.56377E+03 -9.18783E+02  1.07950E+03  2.32896E+02  2.21172E+03  1.44899E+03 -2.34353E+02  2.51660E+03
 -1.61498E+03  3.14357E+03 -2.74779E+03  2.03534E+03 -3.40533E+03  7.75413E+01 -2.46204E+03 -1.90610E+03
 -1.55641E+03 -2.06744E+03  5.51494E+02 -2.09508E+03  1.41747E+03 -1.03050E+03  1.47470E+03  8.72910E+01
  1.08150E+03  5.97370E+02 -4.06371E+01  8.68310E+02 -5.35839E+02 -6.90981E+01 -2.15902E+02 -3.79722E+02
  9.74888E+02 -2.10436E+01  6.99078E+02  6.14212E+02  1.73228E+02  1.05243E+03  3.02986E+02  8.62010E+02
 -7.97422E+02  8.75337E+02 -1.25977E+03  1.93056E+02 -1.42715E+03 -8.92802E+02 -8.06505E+01 -1.96298E+03
  9.76499E+02 -1.59815E+03  1.47798E+03 -3.84486E+02  1.74569E+03 -1.72478E+02  8.80246E+02  1.52405E+03
  6.43238E+02  1.39967E+03 -4.07543E+02  1.07646E+03 -8.24604E+02  8.00830E+02 -8.45050E+02 -7.12645E+01
 -1.71668E+02 -2.69652E+02 -5.84915E+02  3.54906E+02 -9.20846E+02  3.10067E+02 -1.27527E+03 -2.97561E+02
 -1.73379E+03 -2.58944E+02 -4.61508E+02 -1.72407E+03  8.61024E+02 -1.99934E+03  1.05774E+03 -7.36451E+02
  1.47033E+03  1.38948E+02  1.54501E+02  5.13898E+02  1.68266E+01  1.34420E+03 -1.09757E+03  1.39282E+03
