 $NMID ID='MM_0lb_SNR800_12hz_g40_49.RAW', FMTDAT='(8E13.5)'
 TRAMP=1., VOLUME=1. $END
  3.09586E+05  6.20288E+02  3.37176E+05  2.50423E+05  8.47527E+04  3.38130E+05 -1.32469E+05  2.51306E+05
 -1.90442E+05  8.30090E+04 -1.11987E+05 -3.24429E+04  5.54235E+02 -5.03612E+04  5.37414E+04 -3.85019E+02
  3.53383E+04  5.26046E+04 -1.68758E+04  7.54574E+04 -6.07008E+04  6.36487E+04 -8.43945E+04  3.23041E+04
 -8.10735E+04 -1.15827E+04 -5.69579E+04 -5.15567E+04 -1.48058E+04 -6.98329E+04  2.73553E+04 -4.59756E+04
  4.03121E+04  4.15335E+03  1.63544E+04  4.78690E+04 -3.41677E+04  4.72350E+04 -6.67133E+04 -3.24308E+02
 -5.38145E+04 -5.70123E+04 -6.80170E+03 -7.73128E+04  3.38046E+04 -5.53425E+04  4.81949E+04 -1.75874E+04
  4.34977E+04  1.14774E+04  3.23425E+04  2.58987E+04  1.59824E+04  2.95892E+04 -5.48379E+03  2.73039E+04
 -2.22136E+04  1.24185E+04 -1.84998E+04 -5.09103E+03  6.16898E+03 -7.58367E+03  2.25631E+04  1.26961E+04
  7.01147E+03  3.58930E+04 -3.24642E+04  3.52316E+04 -6.40250E+04  2.32004E+03 -5.74773E+04 -4.32822E+04
 -1.24733E+04 -6.37086E+04  3.98052E+04 -4.53159E+04  5.89257E+04 -2.18283E+03  3.44618E+04  3.25314E+04
 -5.75683E+03  3.65401E+04 -3.05573E+04  1.62514E+04 -3.05637E+04 -4.35352E+03 -1.71013E+04 -1.07629E+04
 -8.56611E+03 -1.32712E+04 -5.94565E+02 -1.86009E+04  7.49399E+03 -2.32059E+04  1.57611E+04 -1.32748E+04
  1.10532E+04  5.37548E+03 -8.31772E+03  1.33007E+04 -2.15619E+04 -4.73045E+03 -8.13877E+03 -3.43715E+04
  2.30835E+04 -4.40603E+04  4.89046E+04 -1.96112E+04  4.55220E+04  1.98110E+04  1.64196E+04  4.45245E+04
 -1.60593E+04  3.39876E+04 -2.58069E+04  1.91626E+03 -1.02734E+04 -2.83202E+04  2.12871E+04 -3.44469E+04
  4.17307E+04 -9.17024E+03  3.66963E+04  2.39714E+04  1.91341E+04  4.71297E+04 -7.88605E+03  5.11682E+04
 -3.23481E+04  3.47113E+04 -4.28569E+04  9.88043E+03 -4.32675E+04 -1.69538E+04 -2.41562E+04 -3.87565E+04
  7.41869E+03 -3.86444E+04  3.21499E+04 -1.52041E+04  2.99697E+04  1.11114E+04  3.91616E+03  1.93667E+04
 -1.34199E+04  8.56468E+03 -1.02568E+04 -6.97972E+03  5.45030E+03 -1.08484E+04  1.78617E+04  5.82660E+03
  1.37242E+04  2.23571E+04 -5.49420E+03  2.55273E+04 -2.23729E+04  1.22207E+04 -2.87674E+04 -4.65706E+03
 -2.17600E+04 -1.76201E+04 -8.89954E+03 -2.14402E+04  4.06374E+03 -2.09730E+04  1.63206E+04 -1.91984E+04
  2.73571E+04 -1.32158E+04  3.35585E+04  3.07105E+03  2.41616E+04  2.12212E+04  4.32170E+03  3.73193E+04
 -1.83011E+04  3.09387E+04 -2.83273E+04  1.04678E+04 -2.10190E+04 -1.04291E+04 -4.44179E+03 -1.35144E+04
  1.81333E+03 -2.28137E+03 -5.35287E+03  7.24106E+03 -1.70467E+04  5.30700E+03 -1.75102E+04 -7.66628E+03
 -1.05172E+04 -1.96298E+04  5.53834E+03 -2.37852E+04  1.59029E+04 -1.72159E+04  1.91074E+04 -1.53906E+03
  1.23898E+04  1.36572E+04 -1.18914E+03  1.99614E+04 -1.38991E+04  1.14840E+04 -1.96172E+04 -4.09759E+03
 -1.47470E+04 -1.81329E+04 -1.97935E+03 -2.35055E+04  1.10844E+04 -1.96776E+04  2.00478E+04 -9.97449E+03
  1.83876E+04  3.62651E+02  1.34490E+04  4.73162E+03  7.27897E+03  1.37128E+03  1.02371E+04 -1.85511E+03
  1.85325E+04  2.91654E+03  2.05582E+04  1.61516E+04  1.39727E+04  3.17458E+04 -2.68392E+03  3.61414E+04
 -2.07818E+04  2.93905E+04 -3.37097E+04  1.49928E+04 -3.58605E+04 -2.77409E+03 -2.96406E+04 -2.06088E+04
 -1.19125E+04 -2.96019E+04  1.03119E+04 -2.67552E+04  2.26342E+04 -1.34989E+04  2.06145E+04  6.01053E+03
  7.42879E+03  1.56757E+04 -9.73802E+03  1.28717E+04 -1.70288E+04  2.46031E+03 -1.27301E+04 -1.06414E+04
 -4.59342E+02 -1.63184E+04  8.45512E+03 -1.21691E+04  1.07381E+04 -1.34168E+03  2.20434E+03  6.87298E+03
 -7.41820E+03  2.78360E+03 -6.59340E+03 -5.71313E+03 -6.89030E+02 -1.43359E+04  1.00837E+04 -1.53745E+04
  1.81097E+04 -8.17924E+03  1.95533E+04  3.12846E+03  1.68885E+04  1.44118E+04  8.04850E+03  2.22022E+04
 -3.77381E+03  2.43670E+04 -1.53668E+04  1.50904E+04 -1.72974E+04  3.26888E+03 -1.23930E+04 -4.14324E+03
 -5.35688E+03 -5.33242E+03 -6.34845E+02  6.23236E+02 -2.43664E+03  3.11426E+03 -5.32669E+03  4.54999E+03
 -1.12270E+04 -9.15966E+02 -1.20066E+04 -9.57728E+03 -4.74284E+03 -1.59031E+04  4.90143E+03 -1.24961E+04
  1.01597E+04 -5.36441E+03  7.37162E+03  3.10046E+03 -1.05861E+02  4.79476E+03 -5.82636E+03 -3.94485E+02
 -5.20110E+03 -8.02121E+03 -1.29750E+03 -1.16854E+04  6.63908E+03 -1.21539E+04  1.52402E+04 -6.73102E+03
  1.78915E+04  1.43782E+03  1.31895E+04  1.04375E+04  2.57657E+03  1.44568E+04 -7.16804E+03  1.25025E+04
 -1.00698E+04  3.58153E+03 -4.92008E+03 -2.44634E+03  1.66706E+03 -3.38109E+03  6.67816E+03 -6.12380E+02
  6.15811E+03  5.31022E+03  1.19961E+03  9.81930E+03 -7.04691E+03  9.71120E+03 -1.17733E+04  2.42196E+03
 -7.91932E+03 -5.93248E+03  2.93035E+02 -1.02961E+04  6.13751E+03 -5.23181E+03  7.02752E+03  2.26598E+03
  1.57057E+03  7.00476E+03 -6.35099E+03  8.30162E+03 -9.43009E+03  3.92921E+03 -9.74912E+03 -3.19537E+03
 -5.41317E+03 -1.13770E+04  3.03429E+03 -1.28779E+04  1.10604E+04 -7.80812E+03  1.19186E+04  2.01720E+03
  7.46526E+03  9.21529E+03 -1.01163E+03  1.18987E+04 -8.57960E+03  6.54428E+03 -9.48293E+03 -9.25895E+02
 -8.13196E+03 -8.23733E+03 -1.78581E+03 -8.70607E+03  4.64912E+03 -7.22435E+03  5.63224E+03 -3.19330E+03
  4.03996E+03  8.25595E+02 -3.93263E+02  1.49091E+03 -3.29546E+02 -1.54761E+03  1.35573E+03 -4.84400E+03
  8.07590E+03 -2.93558E+03  1.08167E+04  1.04865E+03  1.07431E+04  7.27207E+03  7.88985E+03  1.45141E+04
 -3.37186E+03  1.63718E+04 -1.40693E+04  1.23104E+04 -1.81052E+04  2.37637E+03 -1.44813E+04 -6.07343E+03
 -7.15420E+03 -1.21673E+04 -5.33200E+02 -9.81591E+03  3.57745E+03 -5.30964E+03  3.60288E+03 -3.72241E+03
  2.70861E+03 -2.27291E+03  2.68281E+03 -3.10133E+03  4.85392E+03 -2.47266E+03  6.01235E+03 -4.33865E+02
  7.73972E+03  1.59631E+03  3.58306E+03  6.44632E+03 -1.72921E+03  7.47263E+03 -8.01680E+03  5.55073E+03
 -9.75686E+03 -1.49562E+03 -5.93787E+03 -6.95855E+03 -4.81489E+02 -1.07838E+04  6.21134E+03 -1.06499E+04
  1.09675E+04 -5.75967E+03  1.33418E+04  1.33328E+03  9.40447E+03  9.18723E+03  1.66096E+03  1.20533E+04
 -4.80697E+03  1.04149E+04 -6.94040E+03  3.53003E+03 -4.73257E+03 -1.52174E+03 -1.87153E+03 -1.34673E+03
 -1.01540E+03 -1.14708E+02 -1.55133E+03  2.39551E+03 -4.20130E+03  1.54771E+03 -7.26667E+03 -8.18497E+02
 -4.74381E+03 -6.98894E+03  4.44324E+02 -9.63898E+03  5.61428E+03 -9.38446E+03  9.42389E+03 -2.56660E+03
  9.51820E+03  4.79556E+03  4.46700E+03  8.34033E+03 -1.65222E+03  9.58718E+03 -6.74048E+03  6.17293E+03
 -9.13763E+03  9.09393E+02 -7.00798E+03 -6.02234E+03 -7.31920E+02 -8.02270E+03  4.37063E+03 -5.92651E+03
  5.85087E+03 -2.32759E+03  4.22231E+03  1.69697E+03  1.27352E+03  3.19213E+03  9.31273E+02  1.42500E+03
  2.15881E+03  9.81751E+02  2.57254E+03  1.79962E+03  2.55534E+03  3.74229E+03  2.88153E+03  4.62368E+03
 -2.14262E+03  7.28236E+03 -6.32931E+03  7.76776E+03 -9.62049E+03  2.07442E+03 -1.06383E+04 -3.65266E+03
 -4.68054E+03 -9.00813E+03  1.30749E+03 -1.03545E+04  5.49624E+03 -6.74807E+03  7.82910E+03 -1.86582E+03
  5.95741E+03  3.71192E+03  1.10183E+03  5.76667E+03 -2.66758E+03  3.20401E+03 -3.42721E+03 -6.06533E+02
 -1.79892E+03 -4.17608E+03  2.47717E+03 -3.98949E+03  3.69926E+03 -2.22662E+03  3.28385E+03  7.96799E+02
  2.07937E+03  1.73713E+03  1.12163E+03  1.23713E+03 -5.60262E+02  1.32655E+03  1.63784E+03 -4.51571E+02
  1.18239E+03 -4.76365E+02  4.31451E+03  1.64182E+03  1.76653E+03  5.15666E+03 -9.19698E+02  7.18206E+03
 -4.54926E+03  3.77819E+03 -5.66028E+03  9.04276E+02 -5.26796E+03 -2.06059E+03 -1.55597E+03 -3.64827E+03
  4.46727E+02 -3.43674E+03  2.38560E+03 -1.69426E+03  1.86916E+03  2.01816E+03 -1.02066E+03  3.05873E+03
 -4.04448E+03  2.05854E+03 -4.22088E+03 -2.29734E+03 -2.32802E+03 -5.05060E+03  7.43501E+02 -5.03500E+03
  2.85024E+03 -2.35100E+03  3.61465E+03 -1.39720E+02  3.39712E+03  9.42364E+02  3.32161E+02  2.80548E+03
 -1.86778E+03  6.94633E+02 -2.21191E+03 -1.94839E+03  8.32064E+02 -3.54679E+03  4.31028E+03 -2.98328E+03
  5.35677E+03  7.09015E+02  5.59870E+03  3.54180E+03  1.97524E+03  5.84430E+03 -1.84994E+03  5.62073E+03
 -4.77335E+03  2.07257E+03 -4.94932E+03 -7.44659E+02 -2.54128E+03 -4.08805E+03  9.37842E+02 -3.42642E+03
  3.74567E+03 -1.50081E+03  2.91063E+03  1.71418E+03  9.92202E+02  3.77132E+03 -5.00542E+01  2.86256E+03
 -1.13379E+03  2.19250E+03 -1.63214E+03  3.88104E+02 -3.89278E+02  3.34882E+02 -1.31548E+03  1.43958E+03
 -1.45612E+03  1.99754E+03 -4.36082E+03  1.79016E+03 -6.16337E+03  5.35208E+01 -6.72631E+03 -3.70739E+03
 -3.64445E+03 -7.53315E+03  1.80297E+03 -8.58889E+03  5.17132E+03 -6.96463E+03  8.23624E+03 -2.87070E+03
  7.85377E+03  1.13228E+03  4.67211E+03  5.20538E+03 -2.68162E+02  5.63031E+03 -2.66672E+03  4.55582E+03
 -3.27782E+03  1.52485E+03 -1.56559E+03 -5.71905E+02 -5.05564E+02 -4.49274E+02 -5.90999E+02 -2.36733E+02
 -1.64663E+03  1.84213E+02 -1.71686E+03 -8.40485E+01  1.72461E+02 -1.49645E+03  1.72567E+01 -2.62552E+03
  3.21917E+03 -1.74443E+03  3.33116E+03  2.14693E+02  3.90445E+03  3.16608E+03  6.01795E+02  5.37314E+03
 -2.70697E+03  6.48718E+03 -6.04416E+03  3.84522E+03 -6.76242E+03 -3.99898E+02 -4.97639E+03 -4.08578E+03
 -2.25780E+03 -5.80288E+03  1.13371E+03 -5.06756E+03  3.65739E+03 -2.98931E+03  3.75466E+03  3.40699E+02
  2.30426E+03  1.98475E+03 -2.78134E+02  1.53136E+03 -1.18436E+03  9.41089E+01  3.40967E+01 -1.02252E+03
  1.73452E+03 -8.00196E+02  1.74674E+03  9.14108E+02  1.45921E+03  1.67055E+03  3.18091E+02  2.56861E+03
 -2.60502E+03  2.49367E+03 -3.27176E+03  3.79659E+02 -3.54416E+03 -2.38944E+03 -7.82467E+02 -4.50249E+03
  2.41852E+03 -3.71586E+03  4.11773E+03 -1.11212E+03  3.75385E+03  7.27860E+02  2.51213E+03  3.73893E+03
  4.91930E+02  3.16487E+03 -1.42470E+03  2.62274E+03 -2.18150E+03  1.49932E+03 -1.81070E+03  4.49887E+02
 -9.77699E+02 -2.91265E+02 -1.30208E+03  9.80830E+01 -1.96555E+03  9.20943E+02 -2.93102E+03 -5.98901E+02
 -3.00971E+03 -1.50431E+03 -1.03721E+03 -3.35541E+03  1.60806E+03 -4.09185E+03  3.13698E+03 -1.87088E+03
  3.66090E+03  4.64448E+02  1.40579E+03  2.00660E+03 -2.46612E+02  3.81742E+03 -2.51040E+03  2.62443E+03
