 $NMID ID='MM_0lb_SNR800_20hz_g50_98.RAW', FMTDAT='(8E13.5)'
 TRAMP=1., VOLUME=1. $END
  3.09591E+05  2.16720E+02  3.37189E+05  2.50602E+05  8.45188E+04  3.37060E+05 -1.32600E+05  2.50173E+05
 -1.89803E+05  8.23706E+04 -1.10524E+05 -3.28096E+04  1.50357E+03 -5.03655E+04  5.40318E+04  8.07306E+00
  3.48640E+04  5.30985E+04 -1.71371E+04  7.48833E+04 -6.00170E+04  6.27209E+04 -8.26904E+04  3.12097E+04
 -7.96007E+04 -1.12627E+04 -5.61058E+04 -5.00883E+04 -1.50789E+04 -6.81830E+04  2.65327E+04 -4.43918E+04
  3.89179E+04  4.03053E+03  1.57838E+04  4.71256E+04 -3.37506E+04  4.61424E+04 -6.53919E+04 -6.21053E+02
 -5.18336E+04 -5.57603E+04 -6.28179E+03 -7.50764E+04  3.32137E+04 -5.29024E+04  4.60815E+04 -1.60540E+04
  4.12892E+04  1.11700E+04  3.05744E+04  2.43546E+04  1.56144E+04  2.82087E+04 -4.43309E+03  2.63945E+04
 -2.15878E+04  1.30184E+04 -1.92988E+04 -3.91153E+03  4.16603E+03 -7.37684E+03  2.09892E+04  1.05919E+04
  7.42627E+03  3.28205E+04 -3.04178E+04  3.37207E+04 -6.08870E+04  2.21410E+03 -5.51086E+04 -4.12685E+04
 -1.24718E+04 -6.04113E+04  3.78368E+04 -4.29879E+04  5.50594E+04 -2.02642E+03  3.15347E+04  3.04692E+04
 -6.74339E+03  3.25254E+04 -2.80501E+04  1.30464E+04 -2.72618E+04 -5.51522E+03 -1.42065E+04 -9.71030E+03
 -7.25030E+03 -1.10043E+04 -1.19783E+03 -1.63330E+04  6.84177E+03 -2.24840E+04  1.48983E+04 -1.40288E+04
  1.24768E+04  4.12439E+03 -5.74465E+03  1.27838E+04 -1.91143E+04 -2.14032E+03 -7.90578E+03 -3.00331E+04
  2.08877E+04 -3.97801E+04  4.37899E+04 -1.84201E+04  4.15732E+04  1.82020E+04  1.40494E+04  4.15619E+04
 -1.53447E+04  3.07431E+04 -2.29593E+04  9.58013E+02 -7.91636E+03 -2.60949E+04  2.02342E+04 -3.05216E+04
  3.74334E+04 -7.05299E+03  3.07042E+04  2.27455E+04  1.48657E+04  4.20419E+04 -7.70600E+03  4.43619E+04
 -2.79275E+04  2.91454E+04 -3.63910E+04  8.12314E+03 -3.77975E+04 -1.49773E+04 -2.06782E+04 -3.37786E+04
  6.91335E+03 -3.36657E+04  2.87404E+04 -1.21802E+04  2.63846E+04  1.07262E+04  2.97661E+03  1.74525E+04
 -1.31995E+04  6.82395E+03 -9.52739E+03 -7.78834E+03  6.04030E+03 -9.77776E+03  1.70809E+04  6.68114E+03
  1.22110E+04  2.15546E+04 -6.81702E+03  2.30087E+04 -2.13367E+04  8.87819E+03 -2.45040E+04 -6.80004E+03
 -1.60914E+04 -1.62423E+04 -5.18833E+03 -1.60681E+04  3.74753E+03 -1.36326E+04  1.20020E+04 -1.38797E+04
  2.03411E+04 -1.13423E+04  2.72514E+04  9.59119E+02  2.06652E+04  1.55497E+04  3.91577E+03  3.15433E+04
 -1.57849E+04  2.71013E+04 -2.54311E+04  9.30133E+03 -1.92651E+04 -1.04197E+04 -3.85850E+03 -1.40116E+04
  2.88764E+03 -4.39530E+03 -2.27119E+03  5.01635E+03 -1.24515E+04  5.18035E+03 -1.31373E+04 -4.62319E+03
 -8.45310E+03 -1.47785E+04  4.43300E+03 -1.86274E+04  1.21938E+04 -1.37789E+04  1.39229E+04 -1.46133E+03
  8.15376E+03  1.01243E+04 -9.18060E+02  1.49760E+04 -9.37906E+03  8.02065E+03 -1.49476E+04 -3.15586E+03
 -1.11223E+04 -1.34747E+04 -1.25784E+03 -1.84680E+04  8.18635E+03 -1.47156E+04  1.53108E+04 -7.04290E+03
  1.39059E+04  9.43863E+02  1.00365E+04  3.69504E+03  4.78817E+03  6.15284E+02  7.06899E+03 -1.50270E+03
  1.29655E+04  2.68727E+03  1.39154E+04  1.24264E+04  8.42346E+03  2.35600E+04 -3.49115E+03  2.50335E+04
 -1.49179E+04  1.86838E+04 -2.29338E+04  8.88798E+03 -2.32065E+04 -1.58256E+03 -2.00733E+04 -1.32240E+04
 -9.89091E+03 -1.89921E+04  6.15263E+03 -1.82616E+04  1.53630E+04 -1.03716E+04  1.47936E+04  3.47536E+03
  6.22172E+03  1.05848E+04 -6.88103E+03  9.93263E+03 -1.27786E+04  2.47711E+03 -9.79788E+03 -7.62626E+03
  7.34158E+01 -1.18152E+04  5.67411E+03 -9.10180E+03  7.65133E+03 -1.51791E+03  1.18793E+03  4.62441E+03
 -5.27617E+03  1.03993E+03 -2.85802E+03 -4.36507E+03  1.00794E+03 -9.60321E+03  7.60380E+03 -9.28624E+03
  1.13279E+04 -3.87334E+03  1.06548E+04  2.76284E+03  9.21984E+03  8.85717E+03  4.38025E+03  1.27085E+04
 -1.05620E+03  1.44991E+04 -8.63493E+03  9.16254E+03 -1.02520E+04  2.95754E+03 -7.85009E+03 -1.52187E+03
 -4.45548E+03 -2.92878E+03 -1.07697E+03  1.44948E+03 -1.98309E+03  1.80140E+03 -3.11181E+03  3.39507E+03
 -7.33969E+03 -3.20269E+02 -8.18158E+03 -6.63620E+03 -3.69506E+03 -1.09433E+04  3.21607E+03 -7.57870E+03
  6.67148E+03 -3.61931E+03  4.97335E+03  1.96921E+03  6.09926E+02  2.78466E+03 -3.12657E+03  4.67518E+00
 -2.98779E+03 -4.57700E+03 -6.59743E+02 -6.43189E+03  3.30268E+03 -6.92774E+03  9.11901E+03 -3.46398E+03
  1.05986E+04  5.20313E+02  7.85917E+03  5.54584E+03  1.59988E+03  7.52527E+03 -4.74130E+03  7.52760E+03
 -6.55314E+03  2.70662E+03 -3.26396E+03 -8.29697E+02  1.16004E+03 -1.68617E+03  4.20578E+03 -8.53133E+02
  3.86174E+03  2.99343E+03  9.37171E+02  5.88625E+03 -4.12386E+03  6.23076E+03 -7.33874E+03  1.83272E+03
 -4.48412E+03 -3.27380E+03  2.17043E+02 -6.18854E+03  3.16667E+03 -3.17813E+03  3.12574E+03  5.58684E+02
  5.42234E+02  2.81265E+03 -3.80421E+03  4.04557E+03 -3.99686E+03  2.00384E+03 -3.21935E+03 -7.56913E+02
 -2.52178E+03 -5.08178E+03  8.75983E+02 -6.09843E+03  5.34109E+03 -3.95285E+03  5.68106E+03  1.05686E+03
  3.95093E+03  4.54282E+03  3.06849E+02  6.57926E+03 -4.64268E+03  3.57940E+03 -4.66698E+03 -1.73937E+02
 -5.35636E+03 -4.68567E+03 -1.36233E+03 -4.29722E+03  1.96360E+03 -4.32068E+03  2.32653E+03 -2.78167E+03
  2.71138E+03 -1.17750E+02  3.39431E+02  9.88939E+02  8.63197E+02  1.84791E+02 -1.17861E+02 -1.33822E+03
  3.16612E+03 -3.52501E+02  4.57276E+03  6.51983E+02  4.66436E+03  2.57111E+03  4.86442E+03  5.95920E+03
 -9.29195E+02  7.03590E+03 -6.40099E+03  5.54229E+03 -8.68201E+03  8.82197E+02 -6.73398E+03 -1.87767E+03
 -3.41525E+03 -5.86121E+03 -2.67532E+02 -4.21298E+03  1.68962E+03 -1.44799E+03  1.27121E+03 -1.82328E+03
  9.58699E+02 -1.47398E+03  2.00372E+03 -2.19950E+03  3.42750E+03 -1.13287E+03  3.22796E+03  6.12082E+02
  4.04891E+03  1.04005E+03  7.30931E+02  2.92953E+03 -1.40693E+03  1.89817E+03 -3.88950E+03  1.98848E+03
 -4.09699E+03 -8.12029E+02 -1.51246E+03 -2.95675E+03  5.23708E+02 -4.02364E+03  2.70219E+03 -4.55174E+03
  4.16480E+03 -2.78249E+03  5.58508E+03 -2.62411E+02  4.38245E+03  3.57674E+03  1.14348E+03  5.30414E+03
 -1.59073E+03  5.10895E+03 -2.70137E+03  1.69510E+03 -1.52573E+03 -1.19459E+03 -3.82608E+02 -2.84860E+02
 -3.23311E+02  4.30078E+02 -7.56379E+02  2.05258E+03 -1.96402E+03  1.04725E+03 -3.57888E+03 -3.92239E+02
 -1.26913E+03 -3.57024E+03  8.57155E+02 -3.96636E+03  2.05532E+03 -3.63369E+03  2.37112E+03 -9.88610E+02
  3.31352E+03  2.27330E+03  1.28216E+03  2.40748E+03 -5.07222E+02  3.59660E+03 -1.89792E+03  2.17935E+03
 -2.86128E+03  3.65741E+02 -2.84405E+03 -1.85540E+03 -1.77914E+02 -2.53538E+03  1.41019E+03 -1.80808E+03
  2.35546E+03 -1.12386E+03  1.17687E+03  4.14342E+02  5.51959E+02  1.59075E+03  6.94774E+02  4.04234E+02
  1.75775E+03  3.28074E+02  1.22710E+03  1.07699E+03  7.84050E+02  2.08744E+03  1.30004E+03  1.24198E+03
 -1.04963E+03  2.47430E+03 -1.67510E+03  3.41591E+03 -1.97248E+03  1.01285E+03 -3.20811E+03  4.82814E+01
 -1.24291E+03 -3.08446E+03  6.55170E+02 -3.51594E+03  1.31859E+03 -1.91241E+03  2.13289E+03 -6.68677E+02
  1.96786E+03  1.25871E+03  2.82519E+02  1.96854E+03 -4.84007E+02  8.05294E+02 -8.09029E+02 -1.81590E+02
 -2.87345E+02 -1.24556E+03  9.53329E+02 -1.28382E+03  7.35153E+02 -8.09644E+02  1.13120E+03  3.25960E+02
  4.81499E+02  1.81153E+01  9.33488E+02 -4.06101E+02 -2.16825E+02  6.81157E+02  1.77779E+03 -5.36987E+01
 -1.15447E+02 -2.72187E+02  1.70584E+03  5.99997E+02 -5.76271E+01  1.86973E+03 -2.26736E+02  2.57034E+03
 -1.08048E+03  8.42815E+02 -1.32096E+03  3.36949E+02 -1.76245E+03 -4.91819E+02  3.02206E+02 -6.87518E+02
  1.84514E+02 -1.12071E+03  7.83177E+02 -6.72100E+02  6.81791E+02  1.05531E+03 -4.18595E+02  7.19304E+02
 -1.35819E+03  6.26075E+02 -1.00120E+03 -1.13185E+03 -7.19620E+02 -1.48666E+03  3.36301E+02 -1.13503E+03
  3.00457E+02 -4.37014E+02  1.13425E+02  3.73730E+02  1.06512E+03 -3.35411E+02  3.24053E+02  1.07870E+03
 -3.89839E+01  1.89673E+01 -6.73618E+02  2.18443E+02  6.33418E+02 -4.95446E+02  1.39942E+03 -5.85414E+02
  6.87779E+02  3.98702E+02  2.41523E+03  3.49280E+02  9.84923E+02  1.13867E+03 -2.89806E+02  1.10442E+03
 -9.92484E+02 -2.29200E+02 -1.12935E+03 -6.41379E+01 -6.68842E+02 -1.14792E+03  3.45263E+02 -3.44920E+02
  1.40265E+03 -5.65304E+02  1.82175E+02  4.61160E+02 -2.01057E+02  9.48875E+02  5.07032E+02  1.00581E+03
 -2.20228E+02  9.27910E+02 -3.42036E+02  4.00929E+02  1.24678E+02  2.84898E+02 -5.86391E+02  7.24187E+02
 -1.47142E+02  7.57759E+02 -1.45833E+03  4.71655E+02 -1.00098E+03  2.63725E+02 -1.90675E+03 -5.64291E+02
 -8.51429E+02 -1.42324E+03  5.48964E+02 -2.22672E+03  3.61137E+02 -1.99057E+03  2.11879E+03 -9.62709E+02
  1.83212E+03 -3.35837E+02  6.32788E+02  8.40683E+02 -7.01913E+02  8.11439E+02 -6.65437E+02  1.10497E+03
 -6.65163E+02  7.19668E+02 -2.84503E+02 -2.18387E+02 -3.67912E+02  3.04940E+02 -7.06223E+02  1.78821E+02
 -1.03981E+03  8.78376E+01 -7.89649E+02 -3.07149E+01  2.70005E+02 -6.17294E+02 -3.14471E+02 -8.34043E+02
  1.29112E+03 -4.54424E+02 -4.67476E+01  3.14730E+02  8.83148E+02  8.04391E+02 -4.81877E+02  1.14527E+03
 -8.80669E+02  1.75127E+03 -1.22629E+03  1.25326E+03 -1.23787E+03 -1.39546E+02 -7.94218E+02 -8.04450E+02
 -8.95798E+02 -7.63073E+02 -5.72228E+01 -7.74066E+02  2.73588E+02 -2.85716E+02  3.98813E+02  8.39850E+01
  5.99958E+02  1.79151E+02 -6.73844E+01  3.66354E+02 -1.64538E+02 -2.47158E+01  1.36841E+02 -1.87910E+01
  2.22999E+02  2.14308E+02  1.34128E+02  2.62233E+02 -6.09379E+01  3.47286E+02  2.58365E+02 -1.69457E+02
 -3.78061E+02  2.96730E+02 -2.02419E+02 -1.12358E+02 -3.88624E+02 -6.40277E+01  9.31885E+01 -6.42965E+02
  5.01820E+02 -2.45013E+02 -6.23594E+00  1.63773E+02  4.66913E+02 -7.38420E+02  2.49537E+02  5.11301E+02
  2.37639E+02  1.53172E+02  1.17884E+01  2.08648E+02 -3.02309E+02  5.20041E+02 -2.24321E+02  1.33691E+02
 -2.69627E+02 -8.29123E+01 -3.56154E+02  7.53360E+01 -6.70729E+02  1.98964E+02 -6.68391E+02 -2.77879E+02
 -9.12845E+02  4.65657E+02 -1.82557E+02 -6.30872E+02  7.10625E+02 -1.24731E+03  2.29622E+02 -1.58685E+02
  4.00595E+02  6.04486E+01 -4.39857E+02 -9.93626E+01  5.82556E+01  6.99288E+02 -2.49684E+02  5.67851E+02
