 $NMID ID='MM_0lb_SNR800_12hz_g60_5.RAW', FMTDAT='(8E13.5)'
 TRAMP=1., VOLUME=1. $END
  3.09892E+05  5.41728E+02  3.37698E+05  2.50722E+05  8.51315E+04  3.38145E+05 -1.32490E+05  2.51664E+05
 -1.90360E+05  8.35164E+04 -1.12216E+05 -3.24870E+04  2.23185E+02 -5.08685E+04  5.33383E+04 -6.85033E+02
  3.58961E+04  5.27563E+04 -1.65857E+04  7.56020E+04 -6.10208E+04  6.47232E+04 -8.47589E+04  3.25902E+04
 -8.19612E+04 -1.15938E+04 -5.78752E+04 -5.20995E+04 -1.51646E+04 -7.06085E+04  2.80404E+04 -4.64825E+04
  4.10472E+04  3.78605E+03  1.62145E+04  4.80628E+04 -3.44554E+04  4.77098E+04 -6.79288E+04  1.81662E+02
 -5.47658E+04 -5.71655E+04 -7.02678E+03 -7.83793E+04  3.47805E+04 -5.65350E+04  4.94290E+04 -1.78761E+04
  4.49785E+04  1.16459E+04  3.27107E+04  2.66875E+04  1.58828E+04  3.04586E+04 -5.51611E+03  2.75260E+04
 -2.23579E+04  1.23011E+04 -1.82146E+04 -5.00019E+03  6.54115E+03 -7.44924E+03  2.30613E+04  1.31538E+04
  7.46241E+03  3.69047E+04 -3.36214E+04  3.68689E+04 -6.50800E+04  2.30079E+03 -5.84068E+04 -4.37430E+04
 -1.29509E+04 -6.53521E+04  4.10509E+04 -4.70950E+04  6.02457E+04 -2.73718E+03  3.61974E+04  3.35523E+04
 -5.78375E+03  3.86156E+04 -3.11487E+04  1.82193E+04 -3.25658E+04 -3.76906E+03 -1.87471E+04 -1.19293E+04
 -9.21438E+03 -1.44282E+04 -6.56148E+02 -1.90452E+04  8.04031E+03 -2.30640E+04  1.54148E+04 -1.27245E+04
  1.06190E+04  5.77728E+03 -9.92966E+03  1.30328E+04 -2.30154E+04 -6.31189E+03 -8.52909E+03 -3.59657E+04
  2.40133E+04 -4.62470E+04  5.12360E+04 -2.04006E+04  4.72875E+04  2.06061E+04  1.66513E+04  4.64561E+04
 -1.61245E+04  3.52631E+04 -2.71541E+04  2.20189E+03 -1.09375E+04 -2.89714E+04  2.09533E+04 -3.59277E+04
  4.37702E+04 -1.05366E+04  3.88322E+04  2.43278E+04  2.05584E+04  4.94911E+04 -8.38719E+03  5.44712E+04
 -3.39284E+04  3.67023E+04 -4.58526E+04  1.05326E+04 -4.60115E+04 -1.81167E+04 -2.49898E+04 -4.09802E+04
  7.81046E+03 -4.04274E+04  3.36702E+04 -1.66251E+04  3.13417E+04  1.08884E+04  4.76319E+03  2.02762E+04
 -1.40470E+04  9.17649E+03 -1.08196E+04 -8.00080E+03  5.77467E+03 -1.12474E+04  1.85638E+04  5.49366E+03
  1.44102E+04  2.27669E+04 -5.41212E+03  2.63646E+04 -2.30006E+04  1.30793E+04 -3.06346E+04 -3.61175E+03
 -2.39094E+04 -1.80021E+04 -1.07461E+04 -2.35293E+04  4.32419E+03 -2.38085E+04  1.85827E+04 -2.14136E+04
  2.98467E+04 -1.35882E+04  3.61596E+04  4.20196E+03  2.57426E+04  2.27479E+04  4.43017E+03  3.97559E+04
 -1.87456E+04  3.27675E+04 -2.97247E+04  1.13071E+04 -2.17091E+04 -1.02250E+04 -4.55565E+03 -1.28745E+04
  8.07552E+02 -1.46375E+03 -6.29651E+03  7.86394E+03 -1.87528E+04  5.18398E+03 -1.88041E+04 -8.60330E+03
 -1.12356E+04 -2.19428E+04  5.83236E+03 -2.58788E+04  1.75381E+04 -1.89022E+04  2.12633E+04 -1.83684E+03
  1.32963E+04  1.51486E+04 -1.25757E+03  2.19258E+04 -1.53136E+04  1.24512E+04 -2.21573E+04 -4.67974E+03
 -1.63376E+04 -1.92949E+04 -2.19383E+03 -2.61862E+04  1.16627E+04 -2.14523E+04  2.15204E+04 -1.11077E+04
  2.01780E+04 -9.07468E+01  1.46521E+04  4.94467E+03  7.89367E+03  9.01835E+02  1.13737E+04 -1.94462E+03
  2.05467E+04  3.06672E+03  2.31080E+04  1.66533E+04  1.54025E+04  3.45344E+04 -2.82152E+03  3.99975E+04
 -2.35151E+04  3.33701E+04 -3.82090E+04  1.68984E+04 -3.99232E+04 -3.00164E+03 -3.26086E+04 -2.35771E+04
 -1.37481E+04 -3.33182E+04  1.18765E+04 -2.97715E+04  2.53786E+04 -1.43784E+04  2.22044E+04  6.93740E+03
  7.68526E+03  1.68473E+04 -1.06282E+04  1.45993E+04 -1.87116E+04  2.34972E+03 -1.38445E+04 -1.18377E+04
 -2.91647E+02 -1.75484E+04  9.60832E+03 -1.33317E+04  1.21423E+04 -1.34994E+03  2.74306E+03  7.41795E+03
 -8.03951E+03  3.82265E+03 -8.13442E+03 -6.28673E+03 -1.36850E+03 -1.63128E+04  1.05937E+04 -1.78040E+04
  2.04406E+04 -9.58186E+03  2.25163E+04  3.43949E+03  2.01621E+04  1.63253E+04  9.36865E+03  2.59267E+04
 -4.37302E+03  2.76577E+04 -1.75083E+04  1.67844E+04 -1.95701E+04  3.90191E+03 -1.34704E+04 -5.08177E+03
 -5.70482E+03 -6.68672E+03 -6.90605E+02  6.65304E+02 -2.69047E+03  3.18232E+03 -6.48693E+03  4.99370E+03
 -1.29005E+04 -6.54365E+02 -1.33341E+04 -1.09439E+04 -5.33809E+03 -1.74253E+04  5.78187E+03 -1.37144E+04
  1.13103E+04 -5.73015E+03  8.60318E+03  3.59455E+03 -5.91260E+01  5.47343E+03 -6.85893E+03 -1.66824E+02
 -6.61064E+03 -8.74248E+03 -1.42039E+03 -1.32349E+04  8.09658E+03 -1.43624E+04  1.75166E+04 -7.46951E+03
  2.08436E+04  1.82594E+03  1.48472E+04  1.22866E+04  3.16808E+03  1.60047E+04 -8.15435E+03  1.35912E+04
 -1.11892E+04  4.04168E+03 -5.62470E+03 -2.84223E+03  2.25165E+03 -4.19174E+03  7.32549E+03 -8.03015E+02
  6.48140E+03  6.01361E+03  1.47888E+03  1.09275E+04 -7.50462E+03  1.05371E+04 -1.32673E+04  2.78662E+03
 -9.04853E+03 -7.21354E+03  4.84691E+02 -1.15398E+04  7.52922E+03 -5.92447E+03  7.74382E+03  2.85963E+03
  1.81464E+03  8.08569E+03 -7.02880E+03  9.59410E+03 -1.15001E+04  4.45987E+03 -1.09568E+04 -4.02843E+03
 -6.42179E+03 -1.28082E+04  2.98248E+03 -1.53597E+04  1.28974E+04 -9.09244E+03  1.39846E+04  2.50996E+03
  8.34183E+03  1.12276E+04 -9.73842E+02  1.32285E+04 -9.84241E+03  7.64790E+03 -1.08635E+04 -1.11795E+03
 -9.20870E+03 -9.24758E+03 -1.29633E+03 -1.01945E+04  5.22267E+03 -8.33006E+03  6.22956E+03 -3.36268E+03
  4.42809E+03  1.66288E+03 -6.87003E+02  1.22842E+03 -4.20121E+02 -2.69581E+03  2.20333E+03 -5.59104E+03
  9.22404E+03 -3.75732E+03  1.31880E+04  1.12665E+03  1.29782E+04  8.79765E+03  8.80120E+03  1.68774E+04
 -3.57899E+03  1.92261E+04 -1.66086E+04  1.43699E+04 -2.09309E+04  2.54395E+03 -1.67369E+04 -7.63791E+03
 -8.48942E+03 -1.35796E+04 -2.51384E+02 -1.16801E+04  4.69605E+03 -6.18278E+03  4.29456E+03 -4.36282E+03
  3.30176E+03 -2.68832E+03  3.57864E+03 -3.30763E+03  5.28715E+03 -2.93055E+03  6.74940E+03 -7.20558E+02
  8.68238E+03  2.11721E+03  4.22980E+03  7.64798E+03 -1.60701E+03  8.52336E+03 -9.20743E+03  6.29089E+03
 -1.17535E+04 -1.36391E+03 -7.10492E+03 -8.02896E+03 -7.40683E+02 -1.23076E+04  7.29208E+03 -1.24666E+04
  1.27447E+04 -6.88963E+03  1.54686E+04  2.09365E+03  1.10983E+04  1.07637E+04  1.74636E+03  1.37218E+04
 -5.33637E+03  1.15382E+04 -7.65654E+03  4.12699E+03 -5.44793E+03 -1.20038E+03 -1.81200E+03 -1.71753E+03
 -8.52999E+02 -1.18111E+02 -2.28771E+03  2.71433E+03 -5.03731E+03  1.61972E+03 -8.12765E+03 -1.22765E+03
 -5.39606E+03 -7.96953E+03  4.82098E+02 -1.09666E+04  7.00854E+03 -1.00291E+04  1.11692E+04 -2.71563E+03
  1.10452E+04  5.53778E+03  5.12597E+03  9.74270E+03 -1.85736E+03  1.15641E+04 -8.05793E+03  6.99073E+03
 -1.05462E+04  5.14285E+02 -8.08121E+03 -6.64093E+03 -1.15868E+03 -9.13694E+03  4.69775E+03 -6.93981E+03
  7.38279E+03 -2.11065E+03  4.80562E+03  1.87264E+03  1.99353E+03  3.29676E+03  1.14030E+03  1.46115E+03
  2.34064E+03  6.22114E+02  2.53593E+03  1.45442E+03  3.47048E+03  4.16643E+03  2.78055E+03  5.73439E+03
 -2.60453E+03  8.33896E+03 -7.66677E+03  8.94806E+03 -1.11277E+04  2.42077E+03 -1.18003E+04 -4.13268E+03
 -5.27131E+03 -1.10299E+04  1.87635E+03 -1.20910E+04  6.71272E+03 -7.55036E+03  9.08784E+03 -2.08500E+03
  6.91889E+03  4.50767E+03  1.39269E+03  6.25217E+03 -3.32983E+03  3.93542E+03 -4.13082E+03 -2.73371E+02
 -1.98625E+03 -4.48713E+03  2.60884E+03 -4.71794E+03  4.23225E+03 -2.46161E+03  3.95752E+03  8.35898E+02
  2.60360E+03  2.38421E+03  1.21275E+03  1.59126E+03 -6.02355E+02  1.25894E+03  1.52468E+03 -3.76193E+02
  1.61822E+03 -6.63885E+02  4.52771E+03  1.61715E+03  2.38185E+03  5.77818E+03 -6.71093E+02  7.64238E+03
 -5.09891E+03  4.96168E+03 -7.10314E+03  1.05038E+03 -6.19239E+03 -2.14567E+03 -2.25893E+03 -3.91296E+03
  7.56490E+02 -4.13119E+03  2.56581E+03 -2.06085E+03  1.85262E+03  2.44155E+03 -1.35221E+03  3.48531E+03
 -4.38460E+03  1.72020E+03 -4.79838E+03 -2.85792E+03 -2.49150E+03 -5.56348E+03  8.73780E+02 -5.53397E+03
  2.91916E+03 -3.21569E+03  4.23585E+03 -2.03023E+02  3.58571E+03  1.28414E+03  5.66538E+02  2.94366E+03
 -1.92472E+03  1.22575E+03 -2.57485E+03 -1.60132E+03  9.66827E+02 -4.10721E+03  5.48880E+03 -3.81044E+03
  6.06008E+03  2.97407E+02  6.69610E+03  3.89030E+03  2.69006E+03  6.85180E+03 -2.15483E+03  6.46407E+03
 -5.27677E+03  2.55886E+03 -5.74873E+03 -1.02539E+03 -3.18101E+03 -4.73667E+03  9.22035E+02 -3.41223E+03
  4.55830E+03 -2.14890E+03  3.64557E+03  1.81875E+03  1.03193E+03  3.61366E+03 -4.79060E+02  3.44226E+03
 -1.73144E+03  2.54987E+03 -1.21163E+03  7.29813E+02 -8.82360E+02  5.76395E+02 -1.38398E+03  9.84462E+02
 -1.54655E+03  2.57505E+03 -4.77709E+03  2.55325E+03 -6.33037E+03  2.29536E+01 -7.45656E+03 -4.07905E+03
 -3.89585E+03 -8.56118E+03  1.22776E+03 -1.01861E+04  5.77785E+03 -7.82512E+03  9.16977E+03 -2.86185E+03
  8.52695E+03  1.56174E+03  4.96532E+03  5.61798E+03  3.12459E+02  6.44818E+03 -2.68617E+03  4.59042E+03
 -3.53745E+03  1.75061E+03 -2.44741E+03 -6.80635E+02 -7.80812E+02 -4.78544E+02 -7.43268E+02 -2.92482E+02
 -2.11856E+03  2.59599E+02 -1.64792E+03 -2.62061E+02 -1.68177E+01 -1.65330E+03  2.48873E+02 -2.14934E+03
  2.95216E+03 -2.07003E+03  3.92009E+03 -1.42281E+02  4.52953E+03  3.45210E+03  6.82287E+02  6.34056E+03
 -3.19603E+03  7.16588E+03 -6.76160E+03  4.23264E+03 -7.57135E+03 -3.71864E+02 -5.57813E+03 -4.49489E+03
 -2.52463E+03 -6.34781E+03  1.39155E+03 -5.80405E+03  3.97909E+03 -3.05296E+03  4.08221E+03  3.50860E+02
  2.74867E+03  1.70580E+03  9.50728E+01  1.86699E+03 -1.25446E+03 -3.32253E+02  2.93082E+01 -1.49915E+03
  1.88273E+03 -7.49901E+02  2.22396E+03  1.04687E+03  1.35557E+03  2.50327E+03 -5.22784E+01  3.28376E+03
 -2.88219E+03  2.83610E+03 -3.96108E+03  3.17207E+02 -3.84862E+03 -3.03801E+03 -4.16222E+02 -5.25855E+03
  2.69096E+03 -4.34489E+03  4.24131E+03 -8.79232E+02  4.89878E+03  5.95141E+02  3.00019E+03  3.94353E+03
  8.50704E+02  3.79610E+03 -1.77709E+03  3.42317E+03 -2.67067E+03  1.90066E+03 -2.12648E+03  4.11205E+02
 -8.12043E+02 -2.22926E+02 -9.47922E+02  6.80026E+02 -2.48506E+03  6.82873E+02 -3.11428E+03 -7.04718E+02
 -2.80242E+03 -2.01009E+03 -1.12829E+03 -4.18467E+03  2.03215E+03 -4.57012E+03  3.80714E+03 -2.20962E+03
  4.03477E+03  7.00818E+02  1.78856E+03  2.61749E+03 -5.08342E+02  3.94850E+03 -2.89810E+03  2.79838E+03
