 $NMID ID='MM_0lb_SNR800_9hz_g55_53.RAW', FMTDAT='(8E13.5)'
 TRAMP=1., VOLUME=1. $END
  3.09926E+05  6.26579E+02  3.37879E+05  2.50677E+05  8.49644E+04  3.38640E+05 -1.32570E+05  2.51984E+05
 -1.91167E+05  8.36369E+04 -1.13012E+05 -3.21824E+04  1.32310E+02 -5.07792E+04  5.34008E+04 -4.14557E+02
  3.56919E+04  5.25550E+04 -1.67196E+04  7.55440E+04 -6.19907E+04  6.43033E+04 -8.52674E+04  3.25285E+04
 -8.27530E+04 -1.19062E+04 -5.85522E+04 -5.22714E+04 -1.51162E+04 -7.10350E+04  2.85790E+04 -4.65711E+04
  4.11188E+04  3.51542E+03  1.67641E+04  4.84883E+04 -3.48173E+04  4.80393E+04 -6.80957E+04  2.61506E+02
 -5.55249E+04 -5.75954E+04 -7.20929E+03 -7.94171E+04  3.51455E+04 -5.71113E+04  4.99311E+04 -1.84463E+04
  4.54474E+04  1.12946E+04  3.35158E+04  2.67827E+04  1.57889E+04  3.03782E+04 -5.94864E+03  2.77965E+04
 -2.21686E+04  1.17195E+04 -1.80413E+04 -5.70283E+03  7.05981E+03 -7.18409E+03  2.35272E+04  1.43588E+04
  6.95157E+03  3.80822E+04 -3.40134E+04  3.73533E+04 -6.62637E+04  2.48965E+03 -5.91251E+04 -4.48102E+04
 -1.22999E+04 -6.63438E+04  4.19409E+04 -4.75310E+04  6.14477E+04 -2.46086E+03  3.71710E+04  3.46023E+04
 -5.49803E+03  3.99045E+04 -3.20767E+04  1.89333E+04 -3.39923E+04 -3.43390E+03 -2.01454E+04 -1.20683E+04
 -9.48920E+03 -1.54902E+04 -3.34218E+02 -2.00150E+04  8.59709E+03 -2.37964E+04  1.58013E+04 -1.28126E+04
  1.03743E+04  6.25297E+03 -1.12222E+04  1.29181E+04 -2.37425E+04 -7.07339E+03 -8.69506E+03 -3.76615E+04
  2.57538E+04 -4.70598E+04  5.25373E+04 -2.11796E+04  4.85980E+04  2.07669E+04  1.73055E+04  4.71684E+04
 -1.67685E+04  3.63925E+04 -2.80365E+04  2.96234E+03 -1.16935E+04 -2.96415E+04  2.15270E+04 -3.74839E+04
  4.53249E+04 -1.13594E+04  4.10913E+04  2.50275E+04  2.16790E+04  5.16173E+04 -8.15553E+03  5.69942E+04
 -3.57841E+04  3.90443E+04 -4.82825E+04  1.12412E+04 -4.83095E+04 -1.86907E+04 -2.63975E+04 -4.25286E+04
  7.94077E+03 -4.27029E+04  3.43956E+04 -1.69318E+04  3.27196E+04  1.10364E+04  5.14130E+03  2.10674E+04
 -1.37030E+04  9.78861E+03 -1.13301E+04 -7.34909E+03  5.57690E+03 -1.15635E+04  1.89944E+04  5.27814E+03
  1.49933E+04  2.31379E+04 -4.85915E+03  2.73175E+04 -2.39932E+04  1.43226E+04 -3.16979E+04 -2.49183E+03
 -2.56249E+04 -1.84408E+04 -1.18217E+04 -2.59154E+04  4.05985E+03 -2.62112E+04  2.04311E+04 -2.34520E+04
  3.26804E+04 -1.44582E+04  3.85102E+04  5.62631E+03  2.74243E+04  2.47643E+04  4.54577E+03  4.17168E+04
 -2.05002E+04  3.46781E+04 -3.08609E+04  1.19943E+04 -2.24157E+04 -1.01020E+04 -5.03896E+03 -1.26570E+04
  8.66060E+02 -1.15917E+03 -7.46610E+03  8.24361E+03 -2.10355E+04  5.11281E+03 -2.04612E+04 -9.68853E+03
 -1.18012E+04 -2.37366E+04  6.18278E+03 -2.83831E+04  1.92069E+04 -2.02920E+04  2.31804E+04 -1.94078E+03
  1.50589E+04  1.64506E+04 -1.44617E+03  2.37154E+04 -1.65706E+04  1.36592E+04 -2.42323E+04 -4.82289E+03
 -1.79632E+04 -2.11568E+04 -2.06920E+03 -2.80689E+04  1.28614E+04 -2.38804E+04  2.32371E+04 -1.23864E+04
  2.22650E+04 -1.24704E+02  1.58821E+04  5.35452E+03  8.95739E+03  1.36266E+03  1.23759E+04 -2.01326E+03
  2.25233E+04  3.05369E+03  2.61179E+04  1.84788E+04  1.81493E+04  3.81303E+04 -2.77884E+03  4.51121E+04
 -2.59100E+04  3.76029E+04 -4.23666E+04  1.95944E+04 -4.54768E+04 -3.77957E+03 -3.68139E+04 -2.68302E+04
 -1.44206E+04 -3.80369E+04  1.35586E+04 -3.33725E+04  2.84377E+04 -1.51186E+04  2.50282E+04  8.16027E+03
  8.25062E+03  1.88530E+04 -1.19641E+04  1.59272E+04 -2.06810E+04  2.29503E+03 -1.53223E+04 -1.31584E+04
 -5.37351E+02 -2.00241E+04  1.04778E+04 -1.45239E+04  1.37556E+04 -1.09256E+03  3.52418E+03  9.04452E+03
 -8.72688E+03  4.68322E+03 -9.50187E+03 -7.23495E+03 -1.92659E+03 -1.82854E+04  1.19038E+04 -2.04467E+04
  2.35596E+04 -1.16080E+04  2.68461E+04  3.60567E+03  2.36793E+04  1.90524E+04  1.11130E+04  3.01597E+04
 -5.43417E+03  3.19268E+04 -2.10898E+04  1.97518E+04 -2.30108E+04  4.19684E+03 -1.61891E+04 -5.88659E+03
 -6.43396E+03 -7.34176E+03 -1.12148E+03  9.27790E+02 -3.27016E+03  3.03930E+03 -7.71505E+03  5.70951E+03
 -1.44409E+04 -1.11554E+03 -1.48577E+04 -1.20438E+04 -6.47705E+03 -1.99908E+04  6.23396E+03 -1.67474E+04
  1.28563E+04 -6.37583E+03  9.34508E+03  4.58186E+03 -5.38970E+02  6.39802E+03 -8.07712E+03 -8.60512E+01
 -7.94352E+03 -1.02510E+04 -1.20921E+03 -1.59865E+04  9.62087E+03 -1.67984E+04  2.09957E+04 -9.14625E+03
  2.39733E+04  2.52304E+03  1.75554E+04  1.43760E+04  3.16457E+03  1.97444E+04 -1.01498E+04  1.57181E+04
 -1.31166E+04  4.68055E+03 -6.71517E+03 -3.63396E+03  2.42280E+03 -4.39149E+03  8.61100E+03 -1.34021E+03
  7.47240E+03  7.51520E+03  9.78839E+02  1.32013E+04 -9.19462E+03  1.23931E+04 -1.57963E+04  2.96708E+03
 -1.08723E+04 -8.79390E+03  4.12616E+02 -1.39091E+04  9.22374E+03 -7.19628E+03  9.64371E+03  3.59405E+03
  2.39850E+03  1.05453E+04 -8.56234E+03  1.21438E+04 -1.40523E+04  5.11664E+03 -1.41145E+04 -5.11509E+03
 -8.51949E+03 -1.63916E+04  3.76835E+03 -1.85267E+04  1.60277E+04 -1.09973E+04  1.75338E+04  3.12424E+03
  1.03915E+04  1.39086E+04 -1.22090E+03  1.65858E+04 -1.19864E+04  9.15450E+03 -1.32815E+04 -1.66901E+03
 -1.09787E+04 -1.11571E+04 -1.53523E+03 -1.26004E+04  6.66977E+03 -9.83829E+03  7.73814E+03 -3.88803E+03
  4.94690E+03  1.88328E+03 -1.31851E+03  1.82896E+03 -9.51613E+02 -3.99013E+03  2.73812E+03 -7.84812E+03
  1.18638E+04 -5.02765E+03  1.65951E+04  1.69475E+03  1.58990E+04  1.18750E+04  1.05739E+04  2.16063E+04
 -5.35552E+03  2.49998E+04 -2.09318E+04  1.81365E+04 -2.69911E+04  3.45812E+03 -2.09990E+04 -9.45507E+03
 -1.04872E+04 -1.78089E+04 -5.11189E+02 -1.54087E+04  5.53657E+03 -8.82522E+03  5.28842E+03 -5.47535E+03
  3.79536E+03 -3.27672E+03  4.30102E+03 -3.68034E+03  6.10412E+03 -3.64470E+03  8.19825E+03 -1.45555E+03
  1.12265E+04  2.46751E+03  6.35254E+03  9.92789E+03 -2.51013E+03  1.23350E+04 -1.18778E+04  9.12829E+03
 -1.54752E+04 -1.35958E+03 -1.01329E+04 -1.07867E+04 -1.59843E+03 -1.62580E+04  9.04278E+03 -1.58665E+04
  1.72716E+04 -8.92414E+03  1.99898E+04  2.89532E+03  1.41121E+04  1.41203E+04  2.16359E+03  1.78784E+04
 -8.09182E+03  1.51484E+04 -1.09847E+04  5.13470E+03 -7.58342E+03 -1.59858E+03 -2.88389E+03 -2.30278E+03
 -1.66816E+03 -3.91762E+02 -2.25778E+03  2.98216E+03 -6.06269E+03  2.10818E+03 -1.06424E+04 -1.38318E+03
 -7.65363E+03 -1.02876E+04  3.00264E+02 -1.53168E+04  9.27675E+03 -1.42658E+04  1.50436E+04 -4.53838E+03
  1.51972E+04  7.22896E+03  6.93898E+03  1.39003E+04 -3.28470E+03  1.56516E+04 -1.12008E+04  9.98896E+03
 -1.48712E+04  4.09688E+02 -1.16867E+04 -9.15097E+03 -1.50679E+03 -1.23877E+04  6.88262E+03 -9.59087E+03
  9.52625E+03 -3.37178E+03  6.80209E+03  2.53730E+03  2.67170E+03  4.45885E+03  1.11217E+03  2.28783E+03
  3.01044E+03  1.16743E+03  3.77047E+03  2.26034E+03  5.02865E+03  5.02720E+03  3.44553E+03  8.19842E+03
 -3.38151E+03  1.20722E+04 -1.08792E+04  1.22054E+04 -1.60707E+04  2.99485E+03 -1.66413E+04 -6.69859E+03
 -7.78320E+03 -1.60567E+04  2.64871E+03 -1.71769E+04  9.95498E+03 -1.07970E+04  1.31355E+04 -2.81002E+03
  1.03131E+04  5.77107E+03  2.35104E+03  9.33035E+03 -4.62887E+03  6.14689E+03 -6.12896E+03 -8.93284E+02
 -2.68500E+03 -6.73223E+03  3.59133E+03 -6.96341E+03  6.59739E+03 -3.41353E+03  6.49773E+03  9.00336E+02
  3.86265E+03  3.45488E+03  1.76556E+03  2.56715E+03 -9.89959E+02  1.95826E+03  1.58712E+03 -5.82414E+02
  2.97369E+03 -9.57746E+02  6.46194E+03  2.75643E+03  3.60768E+03  8.48981E+03 -1.71212E+03  1.09342E+04
 -7.64954E+03  7.22325E+03 -1.00730E+04  1.87676E+03 -8.72904E+03 -3.55159E+03 -3.57227E+03 -6.47425E+03
  1.17297E+03 -6.40608E+03  4.31167E+03 -3.09473E+03  3.69046E+03  3.00243E+03 -1.33774E+03  5.21332E+03
 -6.43370E+03  2.71965E+03 -7.55820E+03 -3.65869E+03 -4.49824E+03 -8.45427E+03  1.10973E+03 -8.82246E+03
  5.52197E+03 -5.13595E+03  6.29963E+03 -1.09668E+03  5.33476E+03  2.24747E+03  4.63042E+02  4.98335E+03
 -3.02147E+03  1.23497E+03 -3.46585E+03 -3.25044E+03  1.14131E+03 -6.76050E+03  7.54784E+03 -5.65187E+03
  9.87729E+03  9.27316E+02  9.87926E+03  7.09371E+03  2.99869E+03  1.07301E+04 -3.85716E+03  9.49454E+03
 -7.95200E+03  4.42163E+03 -9.05383E+03 -1.40692E+03 -5.03463E+03 -7.02193E+03  1.42361E+03 -6.53391E+03
  6.51249E+03 -3.23436E+03  5.29791E+03  2.88717E+03  2.26903E+03  5.80345E+03 -6.00397E+02  5.47924E+03
 -2.93480E+03  3.22983E+03 -2.62063E+03  8.11468E+02 -1.57892E+03  1.42121E+03 -1.43436E+03  2.26190E+03
 -2.70126E+03  4.32659E+03 -7.25061E+03  3.46617E+03 -1.05527E+04  4.76401E+02 -1.15455E+04 -7.21714E+03
 -6.05004E+03 -1.37913E+04  2.66171E+03 -1.64020E+04  9.65656E+03 -1.25737E+04  1.50003E+04 -4.50236E+03
  1.44169E+04  2.80238E+03  8.70602E+03  9.78201E+03  8.51336E+02  1.09540E+04 -4.36549E+03  7.94210E+03
 -6.17983E+03  3.31688E+03 -3.82329E+03 -1.24472E+03 -1.29769E+03 -9.30554E+02 -6.01681E+02  5.16899E+01
 -1.78187E+03 -2.65855E+02 -2.54687E+03 -3.17473E+02 -9.39864E+02 -2.76109E+03  4.54834E+02 -3.95879E+03
  4.77756E+03 -3.56527E+03  6.95310E+03 -1.91546E+02  7.41877E+03  6.18996E+03  2.35384E+03  1.09554E+04
 -5.27731E+03  1.23174E+04 -1.16501E+04  7.18496E+03 -1.39657E+04 -1.42626E+03 -1.01079E+04 -8.30551E+03
 -4.39517E+03 -1.11312E+04  2.84087E+03 -1.06089E+04  7.28375E+03 -5.74951E+03  6.92519E+03  8.79039E+01
  3.66096E+03  3.74642E+03 -4.45941E+02  2.75475E+03 -2.06795E+03  2.03703E+02  7.79285E+01 -2.57981E+03
  3.61578E+03 -1.61107E+03  4.54879E+03  1.55904E+03  2.75798E+03  4.20281E+03  1.19508E+02  5.60690E+03
 -4.80723E+03  4.85723E+03 -7.47245E+03  4.48556E+02 -6.40254E+03 -5.16466E+03 -1.13069E+03 -9.01854E+03
  5.11495E+03 -7.98176E+03  8.51258E+03 -2.16304E+03  8.47231E+03  2.32245E+03  4.62102E+03  6.94782E+03
  1.00094E+03  7.49749E+03 -2.76146E+03  5.97854E+03 -4.28995E+03  3.03853E+03 -4.09587E+03  6.02049E+02
 -2.25233E+03 -6.94103E+02 -1.96614E+03  1.12842E+03 -3.60734E+03  1.36248E+03 -5.62034E+03 -1.09977E+03
 -5.47590E+03 -3.90425E+03 -1.47041E+03 -7.54267E+03  3.79690E+03 -7.46010E+03  6.67635E+03 -3.67569E+03
  6.99784E+03  7.18659E+02  4.18876E+03  5.31914E+03 -6.98598E+02  7.22168E+03 -5.25822E+03  5.00654E+03
