 $NMID ID='MM_0lb_SNR800_7hz_g60_21.RAW', FMTDAT='(8E13.5)'
 TRAMP=1., VOLUME=1. $END
  3.09874E+05 -1.31457E+02  3.38142E+05  2.50671E+05  8.52132E+04  3.38698E+05 -1.32752E+05  2.52093E+05
 -1.91312E+05  8.43178E+04 -1.13052E+05 -3.19513E+04 -2.58590E+02 -5.09820E+04  5.38245E+04 -5.94748E+02
  3.58608E+04  5.31282E+04 -1.62663E+04  7.68578E+04 -6.15132E+04  6.54666E+04 -8.58103E+04  3.26836E+04
 -8.32303E+04 -1.18893E+04 -5.90808E+04 -5.31474E+04 -1.53791E+04 -7.20801E+04  2.87129E+04 -4.75719E+04
  4.16149E+04  3.97117E+03  1.67056E+04  4.92346E+04 -3.47817E+04  4.86527E+04 -6.89072E+04 -5.13353E+00
 -5.59344E+04 -5.80136E+04 -7.30004E+03 -7.97221E+04  3.49254E+04 -5.81376E+04  5.10340E+04 -1.88579E+04
  4.58974E+04  1.18012E+04  3.36576E+04  2.72522E+04  1.64467E+04  3.15671E+04 -6.54796E+03  2.83018E+04
 -2.25926E+04  1.18363E+04 -1.76323E+04 -6.45083E+03  7.82548E+03 -7.34607E+03  2.42588E+04  1.47147E+04
  6.71487E+03  3.91495E+04 -3.45714E+04  3.81013E+04 -6.71501E+04  1.99052E+03 -6.03079E+04 -4.56732E+04
 -1.31388E+04 -6.71460E+04  4.23364E+04 -4.87212E+04  6.28971E+04 -2.70548E+03  3.77895E+04  3.54621E+04
 -5.32713E+03  4.10633E+04 -3.29753E+04  1.99218E+04 -3.50500E+04 -2.98504E+03 -2.10999E+04 -1.22128E+04
 -1.05070E+04 -1.62923E+04 -1.11817E+02 -2.09336E+04  8.76132E+03 -2.41473E+04  1.59033E+04 -1.21821E+04
  1.02316E+04  6.63659E+03 -1.21075E+04  1.27081E+04 -2.48066E+04 -7.98009E+03 -8.85516E+03 -3.92536E+04
  2.64755E+04 -4.88285E+04  5.42822E+04 -2.18229E+04  5.11391E+04  2.18987E+04  1.81998E+04  4.87536E+04
 -1.69009E+04  3.80905E+04 -2.88679E+04  2.90817E+03 -1.29367E+04 -3.02775E+04  2.22831E+04 -3.92333E+04
  4.63749E+04 -1.24554E+04  4.30443E+04  2.57219E+04  2.31800E+04  5.40225E+04 -8.12566E+03  5.96702E+04
 -3.74637E+04  4.12062E+04 -5.05488E+04  1.18922E+04 -5.07448E+04 -1.94041E+04 -2.80101E+04 -4.43485E+04
  8.24172E+03 -4.45795E+04  3.58220E+04 -1.85991E+04  3.36314E+04  1.11459E+04  6.04809E+03  2.18266E+04
 -1.42600E+04  1.06417E+04 -1.21498E+04 -7.34889E+03  5.52115E+03 -1.23068E+04  1.90086E+04  5.56396E+03
  1.60950E+04  2.32284E+04 -4.58865E+03  2.83568E+04 -2.42895E+04  1.61679E+04 -3.35165E+04 -1.73923E+03
 -2.80385E+04 -1.88721E+04 -1.33636E+04 -2.78507E+04  4.69342E+03 -2.98279E+04  2.24207E+04 -2.59093E+04
  3.57834E+04 -1.46181E+04  4.11976E+04  6.45992E+03  2.93693E+04  2.69081E+04  4.77119E+03  4.44719E+04
 -2.13729E+04  3.63347E+04 -3.19249E+04  1.24885E+04 -2.32827E+04 -1.03122E+04 -5.31173E+03 -1.22675E+04
 -2.55119E+02  2.15286E+02 -9.21908E+03  8.90376E+03 -2.24216E+04  4.94590E+03 -2.28769E+04 -1.20767E+04
 -1.33432E+04 -2.55102E+04  6.42551E+03 -3.10399E+04  2.07665E+04 -2.23233E+04  2.56023E+04 -1.91277E+03
  1.66988E+04  1.76913E+04 -1.74675E+03  2.60134E+04 -1.90476E+04  1.40767E+04 -2.66461E+04 -5.69689E+03
 -1.91662E+04 -2.34973E+04 -2.77214E+03 -3.07378E+04  1.40124E+04 -2.62840E+04  2.57359E+04 -1.33306E+04
  2.45217E+04  4.43744E+01  1.83212E+04  5.43504E+03  9.76664E+03  2.12396E+03  1.38405E+04 -2.38842E+03
  2.50710E+04  2.89947E+03  2.88237E+04  2.03553E+04  2.03138E+04  4.22658E+04 -2.59174E+03  5.12220E+04
 -2.89361E+04  4.29465E+04 -4.80057E+04  2.20048E+04 -5.21383E+04 -3.64118E+03 -4.20374E+04 -3.04828E+04
 -1.60369E+04 -4.34612E+04  1.59216E+04 -3.73432E+04  3.20390E+04 -1.64945E+04  2.71878E+04  9.28696E+03
  8.83023E+03  2.15900E+04 -1.29667E+04  1.76722E+04 -2.31512E+04  2.52187E+03 -1.69939E+04 -1.45520E+04
 -1.98430E+01 -2.18805E+04  1.20645E+04 -1.56475E+04  1.50742E+04 -1.32101E+03  3.83340E+03  1.01395E+04
 -9.81796E+03  5.21914E+03 -1.13692E+04 -8.26343E+03 -2.81824E+03 -2.08342E+04  1.32927E+04 -2.38190E+04
  2.72391E+04 -1.39365E+04  3.20788E+04  3.32896E+03  2.79324E+04  2.17032E+04  1.26397E+04  3.50324E+04
 -6.91342E+03  3.73072E+04 -2.42632E+04  2.28314E+04 -2.68297E+04  4.23300E+03 -1.78389E+04 -7.41539E+03
 -6.70811E+03 -8.72346E+03 -7.28926E+02  6.24732E+01 -3.53944E+03  3.94303E+03 -8.54318E+03  6.42665E+03
 -1.63154E+04 -1.54733E+03 -1.71870E+04 -1.34143E+04 -6.60409E+03 -2.27354E+04  8.01668E+03 -1.88849E+04
  1.52379E+04 -7.09116E+03  1.03586E+04  5.19315E+03 -1.08332E+03  7.69457E+03 -9.86948E+03  8.70983E+00
 -9.06029E+03 -1.25644E+04 -1.33541E+03 -1.84653E+04  1.11471E+04 -1.95571E+04  2.42951E+04 -1.05953E+04
  2.77215E+04  3.07367E+03  2.05725E+04  1.78047E+04  4.03354E+03  2.33103E+04 -1.14723E+04  1.88373E+04
 -1.52979E+04  5.25974E+03 -7.31860E+03 -4.33219E+03  2.36761E+03 -5.24811E+03  9.89407E+03 -9.29070E+02
  8.63850E+03  8.12889E+03  1.36725E+03  1.53754E+04 -1.13022E+04  1.44739E+04 -1.86972E+04  3.47689E+03
 -1.33520E+04 -1.04616E+04  2.42246E+02 -1.59646E+04  1.08016E+04 -8.38001E+03  1.16913E+04  4.45545E+03
  2.97328E+03  1.27068E+04 -1.01477E+04  1.44474E+04 -1.74023E+04  6.41612E+03 -1.78102E+04 -6.55749E+03
 -1.01130E+04 -2.03222E+04  5.12375E+03 -2.34297E+04  1.89787E+04 -1.35905E+04  2.14638E+04  3.81074E+03
  1.24501E+04  1.70320E+04 -2.17754E+03  1.92024E+04 -1.47123E+04  1.13341E+04 -1.56846E+04 -2.27264E+03
 -1.29270E+04 -1.28772E+04 -2.11610E+03 -1.46956E+04  7.98531E+03 -1.18419E+04  9.89691E+03 -3.91532E+03
  6.35829E+03  2.94817E+03 -1.73626E+03  2.30803E+03 -1.26831E+03 -5.14123E+03  4.16553E+03 -1.01493E+04
  1.50396E+04 -6.69099E+03  2.07098E+04  1.91373E+03  2.00762E+04  1.46388E+04  1.24899E+04  2.73338E+04
 -6.40365E+03  3.12482E+04 -2.55731E+04  2.28910E+04 -3.25955E+04  4.73052E+03 -2.63397E+04 -1.19435E+04
 -1.33076E+04 -2.16080E+04 -5.37689E+01 -1.87003E+04  6.86729E+03 -1.12456E+04  7.45868E+03 -6.67880E+03
  5.29997E+03 -3.73396E+03  4.73389E+03 -4.94734E+03  6.95486E+03 -4.51695E+03  1.02938E+04 -2.03874E+03
  1.36230E+04  3.02271E+03  7.53868E+03  1.17846E+04 -2.37924E+03  1.53309E+04 -1.50280E+04  1.12525E+04
 -1.91799E+04 -1.76933E+03 -1.32244E+04 -1.33689E+04 -1.78604E+03 -2.12434E+04  1.10512E+04 -2.11289E+04
  2.15978E+04 -1.13328E+04  2.51580E+04  3.55039E+03  1.76660E+04  1.80674E+04  2.74820E+03  2.33045E+04
 -9.71908E+03  1.87162E+04 -1.42235E+04  6.29454E+03 -9.60291E+03 -2.05051E+03 -4.54253E+03 -3.17625E+03
 -2.05247E+03 -1.49708E+02 -2.95466E+03  2.82646E+03 -7.78273E+03  3.14908E+03 -1.26634E+04 -1.95436E+03
 -1.00345E+04 -1.29555E+04 -1.01469E+03 -1.90512E+04  1.23815E+04 -1.76285E+04  2.00069E+04 -5.65308E+03
  1.96514E+04  9.42190E+03  9.31110E+03  1.80932E+04 -4.43945E+03  2.01705E+04 -1.48472E+04  1.23204E+04
 -1.89084E+04  2.02058E+02 -1.43439E+04 -1.20982E+04 -1.50581E+03 -1.73979E+04  8.97834E+03 -1.26892E+04
  1.28153E+04 -3.54157E+03  9.13158E+03  3.60318E+03  3.38995E+03  5.30713E+03  1.69105E+03  2.41726E+03
  3.56680E+03  1.30439E+03  4.43278E+03  2.67101E+03  5.78608E+03  6.50138E+03  5.50200E+03  1.02775E+04
 -4.17523E+03  1.65215E+04 -1.46630E+04  1.57837E+04 -2.17173E+04  3.74371E+03 -2.12535E+04 -9.33101E+03
 -1.07395E+04 -2.10544E+04  3.04067E+03 -2.28919E+04  1.25319E+04 -1.38373E+04  1.72013E+04 -3.56085E+03
  1.32458E+04  7.63800E+03  2.76987E+03  1.18401E+04 -6.37744E+03  7.92891E+03 -9.31436E+03 -9.39581E+02
 -4.30161E+03 -9.18680E+03  4.75384E+03 -9.91775E+03  9.43246E+03 -4.72946E+03  8.76497E+03  1.89046E+03
  5.10887E+03  4.36992E+03  2.02947E+03  3.91747E+03 -1.37356E+03  3.51777E+03  1.34396E+03 -4.50951E+02
  4.33195E+03 -1.19022E+03  8.64885E+03  3.62209E+03  5.48393E+03  1.09506E+04 -1.88762E+03  1.45354E+04
 -1.03884E+04  9.90498E+03 -1.38870E+04  2.73536E+03 -1.20928E+04 -5.14842E+03 -5.70695E+03 -8.41256E+03
  1.04012E+03 -8.32529E+03  5.38727E+03 -3.67094E+03  4.83931E+03  3.99526E+03 -2.01772E+03  7.37999E+03
 -8.81910E+03  4.08891E+03 -1.05910E+04 -4.54000E+03 -5.57479E+03 -1.20856E+04  1.54878E+03 -1.25557E+04
  7.54396E+03 -7.57258E+03  9.17663E+03 -1.26600E+03  7.31919E+03  3.67506E+03  9.93850E+02  6.68756E+03
 -4.52858E+03  2.25179E+03 -5.29424E+03 -4.40975E+03  1.86112E+03 -9.97608E+03  1.05321E+04 -7.91977E+03
  1.39926E+04  8.37072E+02  1.28772E+04  9.79635E+03  4.38829E+03  1.47280E+04 -4.68327E+03  1.38635E+04
 -1.22074E+04  6.61314E+03 -1.27768E+04 -2.35105E+03 -6.81536E+03 -9.24394E+03  2.20224E+03 -9.44107E+03
  9.18660E+03 -4.35720E+03  7.77758E+03  3.58828E+03  3.08002E+03  7.79643E+03 -1.70147E+03  7.07168E+03
 -3.90669E+03  4.10099E+03 -3.57775E+03  1.25417E+03 -2.26890E+03  1.65651E+03 -2.03067E+03  3.20737E+03
 -3.89693E+03  5.29262E+03 -1.00466E+04  4.80032E+03 -1.52187E+04 -3.07899E+01 -1.66927E+04 -1.07291E+04
 -8.83262E+03 -1.98065E+04  3.65436E+03 -2.30507E+04  1.43287E+04 -1.79822E+04  2.18437E+04 -6.58039E+03
  2.00292E+04  4.45467E+03  1.29753E+04  1.41901E+04  1.12344E+03  1.62509E+04 -6.61133E+03  1.16223E+04
 -9.08286E+03  3.95127E+03 -5.82324E+03 -1.44195E+03 -1.73220E+03 -1.57451E+03 -8.11977E+02  6.51018E+01
 -2.39555E+03  7.76938E+02 -3.26212E+03 -4.15111E+02 -1.21555E+03 -3.48258E+03  8.05469E+02 -5.50644E+03
  6.68903E+03 -4.99114E+03  1.03888E+04  2.17027E+02  1.06365E+04  8.75102E+03  3.39729E+03  1.59475E+04
 -7.60794E+03  1.82982E+04 -1.69528E+04  1.08377E+04 -1.95659E+04 -1.54251E+03 -1.51245E+04 -1.18991E+04
 -6.13563E+03 -1.69805E+04  5.03320E+03 -1.52122E+04  1.06013E+04 -8.11195E+03  1.09598E+04  4.59385E+02
  6.30202E+03  5.25650E+03 -8.59154E+02  4.78642E+03 -2.81016E+03 -3.15946E+02 -1.49173E+01 -3.73215E+03
  4.86441E+03 -2.29531E+03  6.87064E+03  2.12998E+03  4.47447E+03  6.43016E+03 -3.13797E+01  9.06018E+03
 -6.79809E+03  7.68160E+03 -1.16497E+04  4.16556E+02 -1.01329E+04 -8.36375E+03 -1.11435E+03 -1.43053E+04
  8.30775E+03 -1.16850E+04  1.26844E+04 -4.19631E+03  1.28003E+04  4.10472E+03  7.45077E+03  1.05075E+04
  1.43046E+03  1.09766E+04 -4.35394E+03  9.09571E+03 -7.14658E+03  4.98242E+03 -6.16324E+03  2.30956E+02
 -3.18409E+03 -1.81427E+01 -3.20469E+03  1.85485E+03 -5.68955E+03  1.30050E+03 -8.72985E+03 -2.29865E+03
 -8.01943E+03 -6.76447E+03 -2.58729E+03 -1.13519E+04  5.12342E+03 -1.14074E+04  1.01413E+04 -5.32860E+03
  1.10078E+04  1.47835E+03  6.52643E+03  8.22153E+03 -8.03466E+02  1.10707E+04 -8.61968E+03  7.23271E+03
