 $NMID ID='MM_0lb_SNR800_16hz_g60_76.RAW', FMTDAT='(8E13.5)'
 TRAMP=1., VOLUME=1. $END
  3.09969E+05  5.67359E+02  3.37824E+05  2.50541E+05  8.46836E+04  3.38017E+05 -1.32283E+05  2.51085E+05
 -1.90498E+05  8.31153E+04 -1.11850E+05 -3.24770E+04  9.91617E+02 -5.04707E+04  5.35109E+04 -1.21322E+02
  3.50619E+04  5.29785E+04 -1.63761E+04  7.54249E+04 -6.09300E+04  6.37548E+04 -8.44074E+04  3.18453E+04
 -8.10413E+04 -1.13493E+04 -5.71043E+04 -5.14134E+04 -1.48949E+04 -6.96181E+04  2.75715E+04 -4.58100E+04
  4.00996E+04  3.90825E+03  1.60896E+04  4.80301E+04 -3.44623E+04  4.71675E+04 -6.67009E+04 -3.40163E+02
 -5.36518E+04 -5.70735E+04 -7.04224E+03 -7.69056E+04  3.38232E+04 -5.51408E+04  4.77503E+04 -1.76413E+04
  4.35327E+04  1.12540E+04  3.18252E+04  2.53018E+04  1.57725E+04  2.97528E+04 -5.25525E+03  2.72488E+04
 -2.19231E+04  1.21232E+04 -1.86933E+04 -5.16805E+03  5.74856E+03 -7.50989E+03  2.25679E+04  1.21609E+04
  7.37377E+03  3.54326E+04 -3.20820E+04  3.54865E+04 -6.35772E+04  2.21773E+03 -5.69441E+04 -4.25296E+04
 -1.25949E+04 -6.33693E+04  3.97343E+04 -4.55701E+04  5.82409E+04 -2.44581E+03  3.45078E+04  3.26160E+04
 -5.83048E+03  3.61100E+04 -3.02623E+04  1.60019E+04 -3.03754E+04 -4.21256E+03 -1.67586E+04 -1.10737E+04
 -8.42706E+03 -1.32261E+04 -7.13626E+02 -1.80129E+04  7.46450E+03 -2.30259E+04  1.56746E+04 -1.31676E+04
  1.16804E+04  5.19014E+03 -8.15061E+03  1.29326E+04 -2.12526E+04 -4.66291E+03 -8.13153E+03 -3.38370E+04
  2.30020E+04 -4.36751E+04  4.80267E+04 -1.95099E+04  4.54428E+04  1.93298E+04  1.55290E+04  4.41869E+04
 -1.60236E+04  3.33950E+04 -2.55228E+04  1.81726E+03 -9.86961E+03 -2.79801E+04  2.10017E+04 -3.39411E+04
  4.09375E+04 -8.88440E+03  3.55131E+04  2.39535E+04  1.83573E+04  4.64082E+04 -7.94525E+03  5.03037E+04
 -3.12942E+04  3.38518E+04 -4.19671E+04  9.42692E+03 -4.24617E+04 -1.62431E+04 -2.34370E+04 -3.74718E+04
  7.24207E+03 -3.78213E+04  3.13236E+04 -1.47143E+04  2.89447E+04  1.08816E+04  3.58220E+03  1.91845E+04
 -1.34394E+04  8.52273E+03 -1.00556E+04 -7.79120E+03  5.88388E+03 -1.05553E+04  1.78851E+04  6.53039E+03
  1.31691E+04  2.17720E+04 -5.79132E+03  2.51013E+04 -2.20263E+04  1.16520E+04 -2.75729E+04 -4.84099E+03
 -2.05213E+04 -1.76087E+04 -8.37904E+03 -2.04716E+04  3.85658E+03 -1.92534E+04  1.55180E+04 -1.80125E+04
  2.57360E+04 -1.25577E+04  3.21230E+04  2.82424E+03  2.37494E+04  1.97487E+04  4.10146E+03  3.63639E+04
 -1.74320E+04  3.04284E+04 -2.79446E+04  1.03251E+04 -2.07544E+04 -1.03850E+04 -4.30874E+03 -1.33953E+04
  1.56516E+03 -2.74167E+03 -4.43051E+03  6.60332E+03 -1.60101E+04  5.32436E+03 -1.61460E+04 -6.99291E+03
 -1.01664E+04 -1.88994E+04  4.83714E+03 -2.27926E+04  1.50665E+04 -1.62855E+04  1.78206E+04 -1.77158E+03
  1.10179E+04  1.27954E+04 -1.09354E+03  1.86561E+04 -1.31332E+04  1.05593E+04 -1.86095E+04 -4.13489E+03
 -1.35142E+04 -1.67786E+04 -1.61374E+03 -2.26921E+04  1.02683E+04 -1.85946E+04  1.89943E+04 -9.31348E+03
  1.72719E+04  3.68770E+02  1.27366E+04  4.26579E+03  6.65195E+03  9.07968E+02  9.37623E+03 -1.68541E+03
  1.71112E+04  2.78705E+03  1.87214E+04  1.48810E+04  1.22110E+04  2.95237E+04 -3.27290E+03  3.31089E+04
 -1.93050E+04  2.66828E+04 -3.06391E+04  1.32940E+04 -3.22083E+04 -2.37529E+03 -2.69554E+04 -1.87562E+04
 -1.14181E+04 -2.65870E+04  9.12324E+03 -2.40441E+04  2.05648E+04 -1.25700E+04  1.86823E+04  5.33565E+03
  7.25987E+03  1.36988E+04 -8.78318E+03  1.25005E+04 -1.59046E+04  2.52171E+03 -1.22015E+04 -9.63575E+03
 -6.77283E+01 -1.47638E+04  7.84429E+03 -1.11860E+04  9.89239E+03 -1.38771E+03  2.03236E+03  6.42777E+03
 -6.64101E+03  2.26431E+03 -5.47246E+03 -5.49712E+03 -4.27855E+02 -1.30446E+04  9.05327E+03 -1.37573E+04
  1.60054E+04 -7.00910E+03  1.69008E+04  2.94744E+03  1.47682E+04  1.27794E+04  6.84079E+03  1.91226E+04
 -2.97299E+03  2.10060E+04 -1.31813E+04  1.30704E+04 -1.51076E+04  3.31146E+03 -1.08953E+04 -3.23661E+03
 -5.39810E+03 -4.28760E+03 -7.35137E+02  1.15145E+03 -2.08717E+03  2.63886E+03 -4.67861E+03  4.08211E+03
 -1.01829E+04 -3.16671E+02 -1.07569E+04 -8.63336E+03 -4.27813E+03 -1.42634E+04  4.55775E+03 -1.08577E+04
  9.03440E+03 -4.28227E+03  6.25364E+03  2.66416E+03  6.83608E+02  4.08548E+03 -4.69857E+03 -2.07435E+02
 -4.82772E+03 -7.06749E+03 -5.73286E+02 -9.45011E+03  5.69673E+03 -1.03475E+04  1.32684E+04 -5.59476E+03
  1.51829E+04  1.19688E+03  1.14310E+04  8.51500E+03  2.12504E+03  1.20080E+04 -6.20664E+03  1.04835E+04
 -8.68812E+03  3.29192E+03 -4.68458E+03 -1.79658E+03  1.61595E+03 -2.98134E+03  5.44597E+03 -8.89428E+02
  5.12808E+03  4.22075E+03  1.15646E+03  8.06120E+03 -5.77656E+03  8.17868E+03 -9.83443E+03  2.19039E+03
 -6.47196E+03 -4.91019E+03  1.44100E+02 -8.44251E+03  5.02597E+03 -4.26519E+03  5.29554E+03  1.77367E+03
  1.05269E+03  5.16294E+03 -5.17252E+03  6.79220E+03 -7.43352E+03  3.15772E+03 -7.33806E+03 -2.26198E+03
 -4.29309E+03 -8.89597E+03  2.10838E+03 -1.06698E+04  8.75766E+03 -6.56177E+03  9.34800E+03  1.51298E+03
  6.19855E+03  7.50627E+03 -3.15037E+02  9.82256E+03 -6.77814E+03  5.43162E+03 -7.04549E+03 -6.68083E+02
 -7.29190E+03 -6.50357E+03 -1.39010E+03 -6.80391E+03  3.64420E+03 -5.99348E+03  4.12557E+03 -3.18220E+03
  3.41050E+03  8.49876E+02 -2.61728E+02  1.55079E+03  1.16586E+02 -1.00524E+03  1.03143E+03 -3.17905E+03
  6.01537E+03 -1.96754E+03  8.65852E+03  7.32265E+02  8.27668E+03  5.47269E+03  6.69612E+03  1.04874E+04
 -2.39192E+03  1.25943E+04 -1.08416E+04  9.34553E+03 -1.37294E+04  2.01721E+03 -1.10818E+04 -4.45980E+03
 -5.95527E+03 -8.94888E+03 -3.54441E+02 -7.47844E+03  3.21990E+03 -3.73054E+03  2.37601E+03 -2.64201E+03
  1.64035E+03 -1.93577E+03  2.62279E+03 -2.71244E+03  3.95508E+03 -2.02081E+03  4.65169E+03  2.77507E+01
  6.16534E+03  1.67600E+03  2.53161E+03  4.96551E+03 -1.45039E+03  4.82323E+03 -5.83450E+03  4.28417E+03
 -7.17003E+03 -1.51393E+03 -3.83060E+03 -4.88202E+03 -1.22904E+01 -7.66664E+03  4.58478E+03 -8.11251E+03
  7.31217E+03 -4.66914E+03  9.76318E+03  9.05285E+02  6.70503E+03  6.11064E+03  1.21980E+03  8.75160E+03
 -3.31000E+03  7.80156E+03 -4.80140E+03  2.38838E+03 -3.06684E+03 -1.42724E+03 -1.12529E+03 -1.19331E+03
 -5.44431E+02  3.82660E+01 -1.30584E+03  2.26407E+03 -3.48954E+03  1.39851E+03 -5.62182E+03 -7.37635E+02
 -2.93881E+03 -5.30001E+03  7.54933E+02 -6.96608E+03  4.11761E+03 -6.50775E+03  5.91464E+03 -2.04494E+03
  6.30300E+03  3.13647E+03  2.57161E+03  5.32185E+03 -1.28520E+03  6.66738E+03 -4.39119E+03  4.04494E+03
 -6.04732E+03  7.02929E+02 -4.83357E+03 -4.02482E+03 -4.30068E+02 -5.00980E+03  2.61768E+03 -3.94198E+03
  4.29604E+03 -1.59551E+03  2.64140E+03  1.09609E+03  7.18377E+02  2.23800E+03  8.82776E+02  7.71115E+02
  1.49880E+03  7.88234E+02  1.91472E+03  1.19926E+03  1.55938E+03  2.82957E+03  2.02891E+03  3.00824E+03
 -1.77780E+03  4.76074E+03 -4.04809E+03  5.55227E+03 -5.37447E+03  1.40296E+03 -6.12298E+03 -1.82842E+03
 -2.94976E+03 -5.87557E+03  9.84229E+02 -6.90745E+03  3.38727E+03 -3.98547E+03  4.68625E+03 -1.40214E+03
  3.89216E+03  2.55731E+03  6.32447E+02  3.22787E+03 -1.64556E+03  1.91755E+03 -1.68451E+03 -1.90999E+02
 -1.08045E+03 -2.31598E+03  1.62347E+03 -2.51787E+03  2.18569E+03 -1.10275E+03  1.96437E+03  6.83091E+02
  1.26965E+03  1.01773E+03  1.12900E+03  1.55456E+02 -5.66721E+02  9.03706E+02  1.38598E+03 -3.54276E+02
  3.18592E+02 -9.55975E+01  2.64040E+03  1.14342E+03  4.50252E+02  3.19195E+03 -3.08323E+02  4.49874E+03
 -2.78731E+03  1.99634E+03 -3.37124E+03  6.09376E+02 -3.42023E+03 -8.21626E+02 -6.26711E+02 -1.62197E+03
  5.79717E+02 -2.23696E+03  1.46641E+03 -9.12194E+02  1.01618E+03  1.54500E+03 -8.03192E+02  1.66928E+03
 -2.27691E+03  1.50283E+03 -2.32441E+03 -1.64419E+03 -1.22838E+03 -3.12787E+03  4.61653E+02 -3.01003E+03
  1.34742E+03 -1.31144E+03  1.70447E+03  1.38889E+02  1.77492E+03  2.54399E+02  7.05013E+02  1.89638E+03
 -4.55360E+02  2.90936E+02 -1.46062E+03 -5.58301E+02  6.35202E+02 -1.70869E+03  2.85893E+03 -1.49147E+03
  2.59053E+03  3.19690E+02  3.84939E+03  1.22936E+03  9.96711E+02  3.27583E+03 -7.06946E+02  2.94112E+03
 -2.63386E+03  6.29192E+02 -2.57166E+03 -4.54678E+02 -1.57900E+03 -1.99773E+03  4.55959E+02 -1.36027E+03
  2.38627E+03 -9.93225E+02  1.38708E+03  1.08304E+03  5.74182E+02  1.70658E+03  1.43798E+02  1.48250E+03
 -7.62099E+02  1.36283E+03 -7.72625E+02  5.96483E+02 -1.35478E+02  2.79554E+02 -6.48931E+02  6.99260E+02
 -1.07421E+03  1.57447E+03 -2.74378E+03  1.12478E+03 -2.53234E+03  5.84796E+02 -3.46562E+03 -1.94575E+03
 -1.91934E+03 -3.55766E+03  5.61261E+02 -4.60112E+03  2.59443E+03 -3.57966E+03  4.46516E+03 -1.48436E+03
  4.09134E+03 -8.20438E+01  2.45131E+03  2.60419E+03 -1.14981E+02  2.78021E+03 -1.03744E+03  2.05363E+03
 -1.79169E+03  9.92107E+02 -8.24789E+02 -3.85028E+02 -4.62213E+02  9.17035E+01 -6.60075E+02  4.09471E+02
 -7.64716E+02  2.13416E+01 -1.13871E+03  1.81651E+02 -5.87767E+01 -8.07455E+02 -3.65407E+02 -1.24255E+03
  1.72628E+03 -8.35115E+02  9.20730E+02  3.44452E+02  1.90779E+03  1.73217E+03 -5.16621E+02  2.70921E+03
 -1.18147E+03  3.66253E+03 -2.42953E+03  2.05574E+03 -2.96177E+03 -4.29703E+02 -2.30500E+03 -2.04727E+03
 -1.44728E+03 -2.46115E+03  6.87859E+02 -2.39510E+03  1.14385E+03 -1.04992E+03  1.54166E+03 -1.59659E+01
  9.67604E+02  6.42216E+02  4.11167E+02  6.25846E+02 -6.03532E+02  3.21825E+02  2.46162E+02 -3.49424E+02
  6.41235E+02 -1.21378E+02  6.44256E+02  4.66907E+02  6.78088E+02  8.09551E+02  6.42629E+01  1.09796E+03
 -1.18263E+03  1.13635E+03 -1.38361E+03  8.35063E+01 -1.36596E+03 -9.75424E+02  2.71603E+01 -2.17048E+03
  7.70244E+02 -1.53064E+03  1.26757E+03 -3.77385E+02  1.59567E+03 -2.06726E+02  8.72054E+02  1.57921E+03
  4.32094E+02  1.35472E+03 -5.23008E+02  8.52878E+02 -5.76726E+02  8.00955E+02 -8.61992E+02  1.08482E+02
 -2.26381E+02 -1.21383E+01 -5.47553E+02  2.76576E+02 -9.96171E+02  1.95752E+02 -1.20891E+03 -4.03869E+02
 -1.50666E+03 -1.87059E+02 -3.81447E+02 -1.63538E+03  9.41548E+02 -1.93266E+03  1.22417E+03 -5.91490E+02
  1.46842E+03 -3.54336E+02  2.56487E+01  7.18797E+02 -8.38446E+01  1.21912E+03 -6.92672E+02  1.13757E+03
