 $NMID ID='MM_0lb_SNR800_17hz_g60_67.RAW', FMTDAT='(8E13.5)'
 TRAMP=1., VOLUME=1. $END
  3.09951E+05  5.25976E+02  3.37996E+05  2.50316E+05  8.47618E+04  3.37947E+05 -1.32458E+05  2.51245E+05
 -1.90221E+05  8.33951E+04 -1.11324E+05 -3.25707E+04  1.01593E+03 -5.03824E+04  5.37024E+04 -4.70105E+02
  3.52870E+04  5.27374E+04 -1.67168E+04  7.51028E+04 -6.07524E+04  6.34160E+04 -8.40306E+04  3.20605E+04
 -8.09782E+04 -1.13271E+04 -5.70243E+04 -5.08705E+04 -1.49932E+04 -6.96166E+04  2.74970E+04 -4.55548E+04
  3.98315E+04  4.08868E+03  1.62758E+04  4.79378E+04 -3.45484E+04  4.71483E+04 -6.65981E+04 -3.43431E+02
 -5.30517E+04 -5.67363E+04 -6.73577E+03 -7.67626E+04  3.42147E+04 -5.47957E+04  4.79424E+04 -1.73971E+04
  4.31879E+04  1.12100E+04  3.21567E+04  2.56737E+04  1.59912E+04  2.90501E+04 -5.19184E+03  2.70588E+04
 -2.17872E+04  1.24235E+04 -1.84958E+04 -5.04369E+03  5.57416E+03 -7.27897E+03  2.19534E+04  1.21313E+04
  7.00926E+03  3.49119E+04 -3.20899E+04  3.54416E+04 -6.30554E+04  2.23827E+03 -5.67825E+04 -4.30573E+04
 -1.25682E+04 -6.28427E+04  3.95956E+04 -4.49537E+04  5.77623E+04 -2.17774E+03  3.38822E+04  3.18844E+04
 -6.19971E+03  3.54879E+04 -2.95728E+04  1.55885E+04 -3.00085E+04 -4.50507E+03 -1.63205E+04 -1.09585E+04
 -8.23027E+03 -1.32123E+04 -9.05449E+02 -1.77426E+04  7.59637E+03 -2.30719E+04  1.54361E+04 -1.35651E+04
  1.17541E+04  4.92365E+03 -7.79336E+03  1.28042E+04 -2.09182E+04 -4.09013E+03 -8.48272E+03 -3.31182E+04
  2.23316E+04 -4.28106E+04  4.75496E+04 -1.93759E+04  4.45177E+04  1.92614E+04  1.51591E+04  4.38336E+04
 -1.58539E+04  3.25832E+04 -2.49387E+04  1.36932E+03 -9.52541E+03 -2.78377E+04  2.10855E+04 -3.34042E+04
  4.04774E+04 -8.76486E+03  3.49387E+04  2.36252E+04  1.76249E+04  4.56409E+04 -8.24999E+03  4.94611E+04
 -3.08064E+04  3.30625E+04 -4.09523E+04  9.46769E+03 -4.18628E+04 -1.64565E+04 -2.28988E+04 -3.71943E+04
  7.19543E+03 -3.69625E+04  3.08872E+04 -1.43850E+04  2.89979E+04  1.10318E+04  3.62460E+03  1.90722E+04
 -1.33455E+04  7.89197E+03 -1.00431E+04 -7.83113E+03  5.66223E+03 -1.07620E+04  1.79963E+04  6.08870E+03
  1.32191E+04  2.20508E+04 -6.28627E+03  2.47217E+04 -2.21151E+04  1.07197E+04 -2.72354E+04 -5.38819E+03
 -1.96655E+04 -1.69638E+04 -7.87084E+03 -1.94668E+04  3.97369E+03 -1.86129E+04  1.50672E+04 -1.73461E+04
  2.50951E+04 -1.21505E+04  3.14732E+04  2.68110E+03  2.29356E+04  1.88821E+04  3.82512E+03  3.51012E+04
 -1.73416E+04  2.95300E+04 -2.73924E+04  1.03911E+04 -2.06669E+04 -1.05017E+04 -4.23602E+03 -1.34326E+04
  1.74465E+03 -3.23789E+03 -4.00985E+03  6.16468E+03 -1.51037E+04  4.87188E+03 -1.53173E+04 -6.35905E+03
 -9.69993E+03 -1.82418E+04  5.21904E+03 -2.19860E+04  1.43249E+04 -1.55634E+04  1.70489E+04 -1.61423E+03
  1.08765E+04  1.21673E+04 -9.39396E+02  1.77123E+04 -1.24800E+04  1.05627E+04 -1.76954E+04 -3.66588E+03
 -1.35113E+04 -1.65595E+04 -1.77957E+03 -2.19011E+04  9.96408E+03 -1.76178E+04  1.79577E+04 -8.65425E+03
  1.66701E+04  4.33448E+02  1.22551E+04  4.46588E+03  6.28045E+03  7.16498E+02  8.82713E+03 -1.38304E+03
  1.60336E+04  2.82914E+03  1.81195E+04  1.39028E+04  1.11448E+04  2.87690E+04 -2.91034E+03  3.15312E+04
 -1.84526E+04  2.48322E+04 -2.94172E+04  1.24769E+04 -3.02871E+04 -2.18646E+03 -2.55331E+04 -1.71688E+04
 -1.11558E+04 -2.48574E+04  8.41170E+03 -2.26984E+04  1.95863E+04 -1.21459E+04  1.78610E+04  4.77341E+03
  6.82981E+03  1.30687E+04 -8.26949E+03  1.20309E+04 -1.52130E+04  2.44573E+03 -1.18932E+04 -9.33503E+03
 -4.25300E+02 -1.40620E+04  7.27154E+03 -1.07502E+04  9.36413E+03 -1.41820E+03  2.04657E+03  5.70811E+03
 -6.18860E+03  1.96963E+03 -5.08892E+03 -5.25767E+03  2.30634E+02 -1.23210E+04  8.89998E+03 -1.23607E+04
  1.51458E+04 -6.21504E+03  1.54234E+04  2.80627E+03  1.34686E+04  1.16414E+04  6.17918E+03  1.77019E+04
 -2.82955E+03  1.96540E+04 -1.20718E+04  1.21112E+04 -1.39926E+04  3.07630E+03 -1.02626E+04 -2.94160E+03
 -5.06534E+03 -4.10733E+03 -1.14470E+03  1.41205E+03 -2.20433E+03  2.60860E+03 -4.65482E+03  4.01315E+03
 -9.34812E+03 -2.73959E+02 -9.95883E+03 -8.10905E+03 -4.16393E+03 -1.33710E+04  4.19302E+03 -9.86527E+03
  8.60882E+03 -4.44944E+03  5.91388E+03  2.63354E+03  3.03063E+02  3.63048E+03 -4.40786E+03  4.77468E+01
 -4.23418E+03 -6.23166E+03 -7.51385E+02 -8.93696E+03  5.12799E+03 -9.80035E+03  1.22546E+04 -5.01013E+03
  1.42344E+04  1.07830E+03  1.06597E+04  7.89425E+03  2.20069E+03  1.09696E+04 -6.29593E+03  9.95301E+03
 -7.85317E+03  3.01017E+03 -4.30816E+03 -1.98740E+03  1.21032E+03 -2.43726E+03  5.57629E+03 -1.03007E+03
  4.69569E+03  3.87930E+03  9.31499E+02  7.74442E+03 -5.45119E+03  7.59052E+03 -9.48668E+03  1.96061E+03
 -6.22547E+03 -4.64872E+03  2.60702E+02 -8.05331E+03  4.74362E+03 -3.85557E+03  4.50605E+03  1.46499E+03
  9.44643E+02  4.81561E+03 -5.08387E+03  6.36412E+03 -6.69403E+03  2.75717E+03 -6.11349E+03 -1.92938E+03
 -3.92111E+03 -7.98604E+03  1.81969E+03 -8.99619E+03  7.96751E+03 -5.90930E+03  8.34577E+03  1.13447E+03
  5.50339E+03  6.76257E+03 -9.42762E+01  8.95344E+03 -6.38491E+03  5.10960E+03 -6.82428E+03 -6.32939E+02
 -6.53870E+03 -5.92211E+03 -1.33168E+03 -6.33383E+03  3.13665E+03 -5.63509E+03  4.02460E+03 -3.23352E+03
  3.04796E+03  6.53246E+02 -1.05846E+01  1.08579E+03  3.66677E+02 -7.35522E+02  6.35056E+02 -2.98763E+03
  5.33833E+03 -1.39401E+03  7.15713E+03  7.74783E+02  7.41644E+03  4.29750E+03  6.04728E+03  9.57106E+03
 -1.87843E+03  1.10796E+04 -1.00972E+04  8.38573E+03 -1.24621E+04  1.44368E+03 -1.01684E+04 -3.57554E+03
 -5.06256E+03 -8.16457E+03 -3.60098E+02 -6.78297E+03  2.38100E+03 -3.23572E+03  2.04375E+03 -2.25661E+03
  1.73460E+03 -1.72882E+03  2.26675E+03 -2.30605E+03  3.84019E+03 -1.77348E+03  4.32810E+03  7.50926E+01
  5.52671E+03  1.48222E+03  2.04449E+03  4.37152E+03 -1.68992E+03  4.48126E+03 -5.51525E+03  3.41757E+03
 -6.40536E+03 -9.51467E+02 -3.33655E+03 -4.21176E+03  3.17405E+02 -6.47432E+03  4.25614E+03 -6.75042E+03
  7.06608E+03 -4.17008E+03  8.30584E+03  7.29309E+02  6.32653E+03  5.36047E+03  1.52716E+03  7.63086E+03
 -2.95430E+03  7.07053E+03 -4.29629E+03  2.51803E+03 -2.69090E+03 -1.03129E+03 -8.61847E+02 -5.43072E+02
 -4.38063E+02  2.28375E+02 -9.34367E+02  2.11703E+03 -3.11647E+03  1.27468E+03 -5.01949E+03 -6.23409E+02
 -2.13765E+03 -5.03534E+03  8.51186E+02 -5.80609E+03  3.74206E+03 -5.48774E+03  5.12821E+03 -1.19240E+03
  5.36144E+03  3.07989E+03  2.43600E+03  4.38801E+03 -9.95844E+02  5.89869E+03 -3.78140E+03  3.60032E+03
 -5.31242E+03  8.11223E+02 -4.20503E+03 -3.03042E+03 -1.78062E+02 -4.35931E+03  2.22176E+03 -3.43841E+03
  3.39774E+03 -1.49208E+03  2.19721E+03  8.29940E+02  4.14379E+02  1.86528E+03  7.65125E+02  3.63616E+02
  1.74617E+03  5.09648E+02  1.49929E+03  1.43579E+03  1.39365E+03  2.57486E+03  1.88542E+03  2.39803E+03
 -1.53308E+03  4.37048E+03 -3.40487E+03  4.74439E+03 -4.49568E+03  1.41779E+03 -5.36087E+03 -1.02112E+03
 -2.57702E+03 -4.72367E+03  8.46807E+02 -5.87050E+03  2.53085E+03 -3.53375E+03  4.28589E+03 -9.23065E+02
  3.13893E+03  2.42497E+03  6.28582E+02  3.19524E+03 -1.30340E+03  1.51191E+03 -1.41515E+03 -2.11858E+02
 -8.64426E+02 -2.22268E+03  1.48598E+03 -2.08107E+03  1.88708E+03 -1.15422E+03  1.71124E+03  4.24092E+02
  7.82309E+02  6.64127E+02  9.48716E+02 -1.27485E+02 -3.05876E+02  1.12440E+03  1.74280E+03 -1.66736E+02
  1.34348E+02 -4.47012E+02  2.25631E+03  8.10995E+02  5.24696E+02  2.92014E+03 -4.22915E+02  3.49533E+03
 -2.31309E+03  1.35056E+03 -2.98970E+03  3.89158E+02 -2.81705E+03 -1.01177E+03 -3.03122E+02 -1.43347E+03
  5.81245E+02 -1.51878E+03  1.31255E+03 -8.45218E+02  7.22471E+02  1.54344E+03 -7.13563E+02  1.47302E+03
 -2.02286E+03  1.04323E+03 -1.64842E+03 -1.81882E+03 -9.01272E+02 -2.83476E+03  2.14074E+02 -2.21644E+03
  8.84106E+02 -9.20847E+02  1.25533E+03  1.37991E+02  1.64764E+03  1.77954E+02  4.91269E+02  1.26690E+03
 -7.80818E+02  1.95587E+02 -1.40994E+03 -3.97621E+01  3.84262E+02 -1.56453E+03  2.06606E+03 -1.18581E+03
  1.96624E+03  2.31088E+02  3.48842E+03  1.34312E+03  1.26109E+03  2.16219E+03 -2.87652E+02  2.54791E+03
 -1.76445E+03  5.27006E+02 -2.13848E+03 -3.88547E+02 -1.23635E+03 -1.69277E+03  4.60870E+02 -1.06300E+03
  1.75552E+03 -7.18683E+02  1.24603E+03  7.29981E+02  5.87093E+02  1.66699E+03  1.05290E+02  1.49394E+03
 -6.24525E+02  1.47812E+03 -7.17441E+02  3.85387E+02 -7.56762E+01  2.11740E+02 -8.85629E+02  6.21957E+02
 -4.87778E+02  1.62114E+03 -2.27349E+03  7.19993E+02 -2.33491E+03  1.83390E+02 -3.20323E+03 -1.47433E+03
 -1.40680E+03 -3.13441E+03  8.76726E+02 -3.73917E+03  1.85068E+03 -2.82531E+03  3.81397E+03 -1.23136E+03
  3.17831E+03  7.13474E+01  1.51092E+03  1.88957E+03 -4.98225E+02  1.77097E+03 -7.53906E+02  1.66923E+03
 -1.54265E+03  8.68794E+02 -4.34279E+02 -2.32286E+02 -6.28145E+02  8.70379E+01 -3.41074E+02  1.30545E+02
 -1.15614E+03 -2.56455E+02 -1.16311E+03 -1.54699E+02  1.99265E+02 -8.69228E+02 -2.54384E+02 -1.33122E+03
  1.49977E+03 -9.39955E+02  7.25002E+02  1.31884E+02  1.68260E+03  1.11640E+03 -2.60324E+02  2.14317E+03
 -1.21218E+03  2.84780E+03 -2.39956E+03  1.63626E+03 -2.38328E+03 -3.33656E+02 -1.70266E+03 -1.69655E+03
 -1.05859E+03 -1.96627E+03  3.71029E+02 -1.86196E+03  9.86986E+02 -7.92644E+02  1.19795E+03  1.05644E+02
  7.89941E+02  4.83438E+02  2.01624E+02  5.54517E+02 -3.47620E+02  1.46936E+02 -4.79711E+01 -7.37547E+01
  5.26652E+02  4.87809E+02  5.09272E+02  7.84969E+02  1.76738E+02  6.25760E+02  3.06365E+02  6.94520E+02
 -6.48090E+02  5.13205E+02 -8.76326E+02  1.38880E+02 -1.04092E+03 -7.61041E+02  6.10959E+01 -1.80641E+03
  4.30012E+02 -9.32684E+02  1.06549E+03 -6.35751E+01  1.56988E+03 -3.15928E+02  6.85868E+02  1.22074E+03
  4.65559E+02  4.97101E+02 -3.19165E+02  8.16862E+02 -5.17128E+02  9.23151E+02 -7.47649E+02  2.41978E+01
 -1.70139E+02  2.02987E+01 -3.83168E+02 -3.86843E+01 -7.66864E+02  3.85291E+02 -1.02827E+03 -1.50764E+02
 -1.36959E+03  1.07074E+01 -3.02303E+02 -9.00788E+02  8.83962E+02 -2.35254E+03  1.11250E+03 -4.62343E+02
  8.12070E+02 -2.12319E+02  1.51845E+01  2.94870E+02 -2.62739E+02  1.04025E+03 -4.13874E+02  9.71001E+02
