 $NMID ID='MM_0lb_SNR800_10hz_g60_69.RAW', FMTDAT='(8E13.5)'
 TRAMP=1., VOLUME=1. $END
  3.09896E+05  3.82967E+02  3.37692E+05  2.50398E+05  8.49220E+04  3.38660E+05 -1.32542E+05  2.51739E+05
 -1.90830E+05  8.42238E+04 -1.12623E+05 -3.24126E+04  3.53907E+02 -5.10227E+04  5.36621E+04 -6.66865E+02
  3.54249E+04  5.28055E+04 -1.70002E+04  7.61244E+04 -6.13483E+04  6.45907E+04 -8.53148E+04  3.24541E+04
 -8.25183E+04 -1.16571E+04 -5.83038E+04 -5.25204E+04 -1.52243E+04 -7.11147E+04  2.80576E+04 -4.70114E+04
  4.15045E+04  3.49146E+03  1.69449E+04  4.84947E+04 -3.47529E+04  4.83484E+04 -6.81248E+04  3.05628E+02
 -5.51015E+04 -5.78293E+04 -7.46094E+03 -7.91555E+04  3.48161E+04 -5.71560E+04  4.98319E+04 -1.84774E+04
  4.52883E+04  1.14506E+04  3.30670E+04  2.65377E+04  1.60778E+04  3.07746E+04 -5.74555E+03  2.76356E+04
 -2.25769E+04  1.19599E+04 -1.80005E+04 -5.72394E+03  7.44618E+03 -7.46603E+03  2.35383E+04  1.37094E+04
  7.12899E+03  3.78617E+04 -3.40781E+04  3.77127E+04 -6.56122E+04  2.05527E+03 -5.90866E+04 -4.44537E+04
 -1.19754E+04 -6.62903E+04  4.22285E+04 -4.77228E+04  6.14206E+04 -2.64191E+03  3.63844E+04  3.44612E+04
 -5.53546E+03  3.97605E+04 -3.20898E+04  1.87555E+04 -3.35905E+04 -3.36826E+03 -1.96723E+04 -1.20588E+04
 -9.71039E+03 -1.53405E+04 -4.19353E+02 -1.96887E+04  9.04210E+03 -2.34351E+04  1.62412E+04 -1.24633E+04
  1.06953E+04  6.21093E+03 -1.09607E+04  1.29801E+04 -2.33451E+04 -6.74013E+03 -8.42206E+03 -3.76636E+04
  2.54019E+04 -4.68427E+04  5.27058E+04 -2.06233E+04  4.89322E+04  2.09617E+04  1.71247E+04  4.71565E+04
 -1.69448E+04  3.60888E+04 -2.80350E+04  2.81551E+03 -1.18304E+04 -2.97870E+04  2.16710E+04 -3.70739E+04
  4.46769E+04 -1.12797E+04  4.06760E+04  2.50829E+04  2.15281E+04  5.13912E+04 -7.89472E+03  5.63589E+04
 -3.58134E+04  3.83427E+04 -4.74116E+04  1.08364E+04 -4.78673E+04 -1.84482E+04 -2.61757E+04 -4.25618E+04
  7.69819E+03 -4.16891E+04  3.40668E+04 -1.77468E+04  3.21702E+04  1.11456E+04  5.23776E+03  2.09769E+04
 -1.35756E+04  9.62713E+03 -1.12181E+04 -7.46938E+03  5.86501E+03 -1.13382E+04  1.86666E+04  5.62762E+03
  1.52675E+04  2.26897E+04 -5.31174E+03  2.70471E+04 -2.33922E+04  1.44842E+04 -3.17018E+04 -2.99737E+03
 -2.55353E+04 -1.85480E+04 -1.18922E+04 -2.49960E+04  4.09252E+03 -2.58543E+04  2.01568E+04 -2.34015E+04
  3.22938E+04 -1.43465E+04  3.79983E+04  5.21639E+03  2.68126E+04  2.47029E+04  4.46183E+03  4.11968E+04
 -1.98243E+04  3.40019E+04 -3.06397E+04  1.17878E+04 -2.24688E+04 -1.04145E+04 -4.56036E+03 -1.25335E+04
  9.29752E+02 -1.12738E+03 -7.23649E+03  8.17797E+03 -2.05742E+04  4.71250E+03 -2.01463E+04 -9.80231E+03
 -1.18874E+04 -2.37858E+04  6.16868E+03 -2.77150E+04  1.88891E+04 -1.95530E+04  2.30449E+04 -1.80906E+03
  1.48466E+04  1.62276E+04 -1.69679E+03  2.33334E+04 -1.66545E+04  1.35920E+04 -2.36281E+04 -4.97480E+03
 -1.70330E+04 -2.09492E+04 -2.22356E+03 -2.85098E+04  1.25154E+04 -2.34447E+04  2.36309E+04 -1.21239E+04
  2.21485E+04 -1.93629E+02  1.60292E+04  5.23341E+03  8.98018E+03  1.30961E+03  1.20468E+04 -2.04632E+03
  2.23673E+04  2.86071E+03  2.52807E+04  1.83321E+04  1.75854E+04  3.73256E+04 -2.29120E+03  4.43768E+04
 -2.54221E+04  3.70076E+04 -4.20771E+04  1.92796E+04 -4.45363E+04 -3.60170E+03 -3.62439E+04 -2.60130E+04
 -1.43679E+04 -3.71463E+04  1.30426E+04 -3.27476E+04  2.80722E+04 -1.49603E+04  2.43721E+04  8.04475E+03
  8.79320E+03  1.85345E+04 -1.17800E+04  1.56942E+04 -2.00039E+04  2.51542E+03 -1.53627E+04 -1.29164E+04
 -6.32112E+02 -1.90592E+04  1.03505E+04 -1.44875E+04  1.36884E+04 -1.09979E+03  3.60386E+03  8.78859E+03
 -8.29434E+03  4.19320E+03 -9.52170E+03 -7.19884E+03 -1.93112E+03 -1.80983E+04  1.17187E+04 -2.03083E+04
  2.26274E+04 -1.08950E+04  2.61649E+04  2.68318E+03  2.25437E+04  1.83414E+04  1.06926E+04  2.91299E+04
 -5.89856E+03  3.14888E+04 -2.04112E+04  1.94356E+04 -2.23126E+04  4.11248E+03 -1.53838E+04 -6.02861E+03
 -6.45860E+03 -7.01578E+03 -6.27511E+02  6.40921E+02 -2.74452E+03  3.57685E+03 -7.56550E+03  5.30540E+03
 -1.40246E+04 -6.68829E+02 -1.47984E+04 -1.13387E+04 -5.97116E+03 -1.92903E+04  6.62078E+03 -1.56657E+04
  1.29206E+04 -6.24193E+03  8.99257E+03  4.38020E+03 -2.45761E+02  6.27996E+03 -7.92375E+03 -1.51620E+02
 -7.40332E+03 -1.00085E+04 -1.13950E+03 -1.53231E+04  9.29578E+03 -1.66526E+04  2.01203E+04 -8.77619E+03
  2.31107E+04  2.18410E+03  1.68593E+04  1.42793E+04  3.40023E+03  1.89750E+04 -9.55300E+03  1.51311E+04
 -1.29535E+04  4.38020E+03 -6.52002E+03 -3.50595E+03  2.40568E+03 -4.08031E+03  7.85551E+03 -1.04286E+03
  7.45455E+03  7.42030E+03  1.25786E+03  1.25750E+04 -8.86786E+03  1.19658E+04 -1.50721E+04  2.67608E+03
 -1.08388E+04 -8.50329E+03 -1.61611E+01 -1.33566E+04  8.70825E+03 -6.55220E+03  9.18952E+03  3.66866E+03
  2.00118E+03  1.01914E+04 -8.24904E+03  1.19011E+04 -1.36211E+04  5.38308E+03 -1.40667E+04 -5.39776E+03
 -7.79407E+03 -1.57696E+04  3.90063E+03 -1.77472E+04  1.53016E+04 -1.02648E+04  1.65112E+04  3.03241E+03
  1.00335E+04  1.34341E+04 -1.48671E+03  1.53732E+04 -1.19043E+04  8.67761E+03 -1.25411E+04 -1.00929E+03
 -1.03187E+04 -1.04276E+04 -1.58501E+03 -1.18674E+04  6.50107E+03 -9.36570E+03  7.64114E+03 -3.45713E+03
  4.95257E+03  2.12083E+03 -1.31892E+03  2.47178E+03 -7.69744E+02 -3.46013E+03  2.83657E+03 -7.44334E+03
  1.16967E+04 -4.66347E+03  1.56169E+04  1.53446E+03  1.49848E+04  1.04879E+04  9.67868E+03  2.00606E+04
 -4.86830E+03  2.35278E+04 -1.94758E+04  1.76766E+04 -2.50033E+04  3.49436E+03 -2.04322E+04 -8.51648E+03
 -1.01723E+04 -1.68138E+04 -4.49301E+02 -1.44286E+04  5.23294E+03 -8.07245E+03  5.13178E+03 -5.13551E+03
  3.91827E+03 -3.15575E+03  4.06220E+03 -4.08150E+03  5.83104E+03 -3.70515E+03  7.85328E+03 -1.40737E+03
  1.05806E+04  2.66726E+03  5.47282E+03  9.44345E+03 -2.31871E+03  1.11052E+04 -1.06638E+04  8.27436E+03
 -1.42729E+04 -1.82131E+03 -9.34928E+03 -9.63267E+03 -7.71651E+02 -1.53398E+04  8.37339E+03 -1.56830E+04
  1.62545E+04 -8.59132E+03  1.90700E+04  2.65736E+03  1.30128E+04  1.33617E+04  1.56373E+03  1.71220E+04
 -7.28260E+03  1.43438E+04 -1.04326E+04  4.83377E+03 -6.86027E+03 -1.84384E+03 -2.82258E+03 -1.95511E+03
 -1.34587E+03 -1.00719E+02 -2.66738E+03  3.08645E+03 -5.88627E+03  2.48201E+03 -9.61962E+03 -1.46015E+03
 -7.17772E+03 -9.89934E+03 -2.94880E+02 -1.44004E+04  8.50473E+03 -1.32518E+04  1.40640E+04 -4.26966E+03
  1.37869E+04  7.09410E+03  6.62240E+03  1.30385E+04 -3.10215E+03  1.43573E+04 -9.78027E+03  8.88637E+03
 -1.33810E+04  3.23254E+02 -1.02770E+04 -8.61587E+03 -1.10509E+03 -1.15394E+04  6.41912E+03 -8.89742E+03
  9.29498E+03 -3.07100E+03  6.35808E+03  2.07816E+03  1.71272E+03  4.35321E+03  1.66578E+03  2.02015E+03
  2.75810E+03  9.37540E+02  3.30675E+03  1.77060E+03  4.28539E+03  4.74492E+03  3.50918E+03  7.79538E+03
 -2.71365E+03  1.12496E+04 -9.69101E+03  1.14699E+04 -1.44357E+04  3.17111E+03 -1.50725E+04 -6.27565E+03
 -6.98279E+03 -1.39375E+04  2.24720E+03 -1.58476E+04  8.65183E+03 -9.78215E+03  1.20787E+04 -2.72655E+03
  9.02507E+03  5.32972E+03  1.76217E+03  8.68163E+03 -3.94132E+03  5.12186E+03 -5.89405E+03 -8.80136E+02
 -2.72400E+03 -5.37450E+03  3.40024E+03 -6.33292E+03  5.66591E+03 -3.11179E+03  5.87605E+03  1.28918E+03
  3.57525E+03  3.02340E+03  1.43614E+03  2.07723E+03 -9.37143E+02  1.92430E+03  1.68818E+03 -4.14547E+02
  2.04841E+03 -7.72607E+02  5.99467E+03  2.35942E+03  3.22957E+03  7.75508E+03 -1.14507E+03  9.99046E+03
 -7.05143E+03  7.01499E+03 -9.37816E+03  1.80956E+03 -8.21962E+03 -3.05120E+03 -3.40259E+03 -5.66617E+03
  9.50975E+02 -5.63671E+03  4.18902E+03 -2.46612E+03  3.40949E+03  3.03251E+03 -1.43826E+03  4.64954E+03
 -5.74901E+03  3.09064E+03 -6.75500E+03 -3.52446E+03 -3.51231E+03 -7.81028E+03  1.09930E+03 -7.91293E+03
  4.64203E+03 -4.56306E+03  5.57325E+03 -8.37380E+02  4.53462E+03  1.86545E+03  8.49074E+02  4.22089E+03
 -2.80971E+03  1.08285E+03 -3.41322E+03 -2.78924E+03  1.18135E+03 -6.16130E+03  7.11916E+03 -4.56595E+03
  9.27971E+03  5.31627E+02  8.58687E+03  6.45693E+03  2.71545E+03  9.73650E+03 -3.69357E+03  8.58781E+03
 -7.78894E+03  3.70303E+03 -8.49545E+03 -1.48682E+03 -4.18753E+03 -5.85835E+03  1.08568E+03 -5.93101E+03
  5.42390E+03 -3.09854E+03  4.78860E+03  2.77333E+03  1.52017E+03  5.11887E+03 -5.47634E+02  4.26230E+03
 -2.73113E+03  2.93616E+03 -2.19779E+03  7.37717E+02 -1.26004E+03  7.86014E+02 -1.91036E+03  2.28009E+03
 -2.09874E+03  3.85096E+03 -6.00833E+03  2.93574E+03 -9.02320E+03  1.79418E+02 -1.00965E+04 -6.18391E+03
 -5.49716E+03 -1.18703E+04  2.44592E+03 -1.39520E+04  8.69553E+03 -1.12713E+04  1.31523E+04 -4.43275E+03
  1.25918E+04  2.34236E+03  7.49181E+03  8.38350E+03  1.00925E+03  9.68568E+03 -3.90552E+03  7.18361E+03
 -5.41316E+03  2.62932E+03 -3.45398E+03 -1.38047E+03 -1.13000E+03 -4.26717E+02 -9.26206E+02 -2.58366E+02
 -2.12083E+03  2.74632E+02 -2.33974E+03 -4.19899E+02 -4.43632E+02 -2.30375E+03  3.75934E+02 -3.60863E+03
  4.14740E+03 -3.15574E+03  5.49754E+03  1.33055E+02  6.72637E+03  4.92465E+03  1.50206E+03  9.62530E+03
 -4.22964E+03  1.10450E+04 -9.96450E+03  6.77722E+03 -1.12270E+04 -9.03006E+02 -8.79309E+03 -7.36731E+03
 -3.67089E+03 -9.54462E+03  2.07789E+03 -8.46923E+03  6.29378E+03 -4.67327E+03  6.54990E+03  3.68294E+02
  3.35187E+03  3.07484E+03 -1.33140E+02  2.26697E+03 -1.80856E+03 -4.72875E+02  1.03937E+01 -1.88126E+03
  2.47531E+03 -1.29386E+03  3.42973E+03  9.48010E+02  2.78586E+03  3.71865E+03 -3.15156E+02  5.17218E+03
 -4.15131E+03  4.39221E+03 -6.68203E+03  3.59614E+02 -5.34109E+03 -4.32527E+03 -6.51406E+02 -7.68470E+03
  4.49411E+03 -6.51298E+03  7.06032E+03 -2.12853E+03  7.09437E+03  1.68506E+03  4.24336E+03  5.81692E+03
  6.53128E+02  6.28123E+03 -2.57744E+03  4.66830E+03 -4.08540E+03  2.79424E+03 -3.51776E+03  8.06981E+02
 -1.79396E+03 -1.70637E+02 -1.76531E+03  7.67239E+02 -3.33876E+03  1.29669E+03 -4.87089E+03 -1.02052E+03
 -4.19946E+03 -3.11064E+03 -1.21225E+03 -6.42004E+03  2.76856E+03 -6.70011E+03  5.33020E+03 -3.30227E+03
  6.41398E+03  8.51601E+02  3.08420E+03  4.52543E+03 -2.54866E+02  6.08267E+03 -4.72685E+03  4.21620E+03
