 $NMID ID='MM_0lb_SNR800_7hz_g45_37.RAW', FMTDAT='(8E13.5)'
 TRAMP=1., VOLUME=1. $END
  3.09687E+05  3.25683E+02  3.38057E+05  2.50918E+05  8.53725E+04  3.38711E+05 -1.32548E+05  2.51994E+05
 -1.91201E+05  8.39456E+04 -1.12863E+05 -3.20449E+04 -1.20000E+02 -5.07468E+04  5.33409E+04 -6.59579E+02
  3.57299E+04  5.27222E+04 -1.68681E+04  7.62636E+04 -6.14912E+04  6.49854E+04 -8.50702E+04  3.27987E+04
 -8.29290E+04 -1.18873E+04 -5.83280E+04 -5.20474E+04 -1.49458E+04 -7.19776E+04  2.85054E+04 -4.69846E+04
  4.14223E+04  3.00430E+03  1.72068E+04  4.91320E+04 -3.51247E+04  4.81718E+04 -6.84599E+04  1.24307E+02
 -5.52714E+04 -5.84956E+04 -7.47677E+03 -7.98968E+04  3.44702E+04 -5.74505E+04  5.02005E+04 -1.89786E+04
  4.55084E+04  1.19844E+04  3.35255E+04  2.69686E+04  1.62744E+04  3.08028E+04 -5.70947E+03  2.75299E+04
 -2.25051E+04  1.15064E+04 -1.78044E+04 -6.16255E+03  7.48833E+03 -7.46953E+03  2.33847E+04  1.39455E+04
  6.48116E+03  3.78761E+04 -3.44576E+04  3.76668E+04 -6.70155E+04  2.12985E+03 -5.93328E+04 -4.43695E+04
 -1.28824E+04 -6.72615E+04  4.19908E+04 -4.78878E+04  6.21393E+04 -1.89649E+03  3.77841E+04  3.51363E+04
 -5.21056E+03  4.02432E+04 -3.21177E+04  1.98388E+04 -3.41326E+04 -3.46910E+03 -1.97565E+04 -1.23972E+04
 -9.87828E+03 -1.60268E+04 -3.05569E+02 -2.03052E+04  8.86691E+03 -2.40249E+04  1.60366E+04 -1.28562E+04
  1.01140E+04  6.27537E+03 -1.11850E+04  1.25285E+04 -2.41434E+04 -7.11663E+03 -8.96372E+03 -3.88468E+04
  2.59853E+04 -4.79230E+04  5.31482E+04 -2.13103E+04  4.99954E+04  2.11862E+04  1.76930E+04  4.82537E+04
 -1.67780E+04  3.68879E+04 -2.87195E+04  3.07720E+03 -1.19652E+04 -3.03155E+04  2.16549E+04 -3.83734E+04
  4.58666E+04 -1.13599E+04  4.18108E+04  2.57155E+04  2.21190E+04  5.24939E+04 -8.26604E+03  5.77487E+04
 -3.69431E+04  3.99741E+04 -4.92720E+04  1.17705E+04 -4.91906E+04 -1.89896E+04 -2.72412E+04 -4.36632E+04
  7.74586E+03 -4.34540E+04  3.51965E+04 -1.73324E+04  3.32359E+04  1.15059E+04  6.06513E+03  2.16959E+04
 -1.41612E+04  1.02589E+04 -1.13652E+04 -7.68284E+03  5.85444E+03 -1.12043E+04  1.94230E+04  5.23246E+03
  1.49211E+04  2.24332E+04 -5.38870E+03  2.79201E+04 -2.33065E+04  1.50428E+04 -3.23897E+04 -2.62622E+03
 -2.67976E+04 -1.89875E+04 -1.32269E+04 -2.62966E+04  4.10107E+03 -2.79228E+04  2.11954E+04 -2.43753E+04
  3.41782E+04 -1.48531E+04  3.96775E+04  5.37953E+03  2.80898E+04  2.60053E+04  4.62141E+03  4.25785E+04
 -2.05333E+04  3.51642E+04 -3.16184E+04  1.24200E+04 -2.29754E+04 -1.03064E+04 -4.89994E+03 -1.25375E+04
  9.17082E+02 -7.35715E+02 -8.54642E+03  8.84071E+03 -2.18085E+04  5.27664E+03 -2.14218E+04 -1.03668E+04
 -1.22558E+04 -2.43775E+04  5.99430E+03 -2.95081E+04  1.99834E+04 -2.12067E+04  2.41578E+04 -1.82911E+03
  1.54520E+04  1.71681E+04 -1.76347E+03  2.48234E+04 -1.79964E+04  1.42110E+04 -2.53765E+04 -4.77904E+03
 -1.83933E+04 -2.22519E+04 -2.40825E+03 -2.96443E+04  1.30334E+04 -2.54256E+04  2.45884E+04 -1.27755E+04
  2.37824E+04 -9.02948E+02  1.71170E+04  5.60960E+03  9.39912E+03  1.32464E+03  1.34324E+04 -2.18496E+03
  2.38420E+04  3.05626E+03  2.72308E+04  1.93618E+04  1.89059E+04  4.02091E+04 -2.34709E+03  4.80585E+04
 -2.72622E+04  4.02048E+04 -4.56976E+04  2.11690E+04 -4.85291E+04 -3.53744E+03 -3.92857E+04 -2.87256E+04
 -1.55888E+04 -4.05424E+04  1.47996E+04 -3.57778E+04  3.07357E+04 -1.63280E+04  2.55385E+04  8.64259E+03
  8.50034E+03  2.04982E+04 -1.23386E+04  1.60894E+04 -2.16190E+04  2.87601E+03 -1.61045E+04 -1.38166E+04
 -3.45367E+02 -2.09049E+04  1.10314E+04 -1.53845E+04  1.42316E+04 -1.15114E+03  3.49559E+03  9.54664E+03
 -9.28144E+03  4.72806E+03 -1.07991E+04 -7.35908E+03 -2.82939E+03 -1.97710E+04  1.32080E+04 -2.20561E+04
  2.52821E+04 -1.27788E+04  2.94313E+04  3.14174E+03  2.53979E+04  2.03140E+04  1.18849E+04  3.30274E+04
 -6.77898E+03  3.42602E+04 -2.27239E+04  2.11419E+04 -2.57143E+04  4.33504E+03 -1.70765E+04 -6.46054E+03
 -7.00583E+03 -8.16142E+03 -4.56257E+02 -5.51210E-01 -3.37842E+03  3.73803E+03 -8.47393E+03  5.79659E+03
 -1.54485E+04 -1.20266E+03 -1.64725E+04 -1.31830E+04 -6.65033E+03 -2.12375E+04  6.88329E+03 -1.72806E+04
  1.44672E+04 -6.93015E+03  1.00995E+04  4.82810E+03 -2.65866E+02  7.24495E+03 -9.20860E+03 -1.31694E+01
 -8.51234E+03 -1.15030E+04 -1.50118E+03 -1.75363E+04  1.09411E+04 -1.82899E+04  2.28806E+04 -1.02858E+04
  2.64389E+04  3.10786E+03  1.89582E+04  1.64611E+04  3.69841E+03  2.16427E+04 -1.08119E+04  1.74529E+04
 -1.41319E+04  4.92488E+03 -7.10496E+03 -4.36553E+03  2.85714E+03 -4.97152E+03  9.19097E+03 -9.61216E+02
  8.48867E+03  7.75059E+03  1.34687E+03  1.45246E+04 -1.03524E+04  1.34104E+04 -1.70821E+04  3.11048E+03
 -1.28688E+04 -9.18517E+03 -1.54071E+02 -1.52338E+04  1.03163E+04 -7.87587E+03  1.08903E+04  4.18449E+03
  2.94719E+03  1.19596E+04 -8.74690E+03  1.34310E+04 -1.55878E+04  5.55272E+03 -1.61827E+04 -6.31071E+03
 -9.46359E+03 -1.81612E+04  4.66706E+03 -2.13516E+04  1.77647E+04 -1.25151E+04  1.97483E+04  3.23770E+03
  1.12682E+04  1.55827E+04 -1.85249E+03  1.83879E+04 -1.33214E+04  1.00315E+04 -1.49655E+04 -1.16901E+03
 -1.18944E+04 -1.22502E+04 -1.59669E+03 -1.40686E+04  7.61744E+03 -1.09731E+04  9.21754E+03 -3.78561E+03
  5.40543E+03  2.09151E+03 -1.36091E+03  1.57852E+03 -1.44472E+03 -4.34250E+03  3.23701E+03 -9.85173E+03
  1.40138E+04 -6.04755E+03  1.88038E+04  2.10862E+03  1.88019E+04  1.35656E+04  1.19413E+04  2.47601E+04
 -5.72798E+03  2.82416E+04 -2.32608E+04  2.07626E+04 -3.04190E+04  4.03622E+03 -2.43476E+04 -1.08721E+04
 -1.16388E+04 -2.01145E+04 -4.18228E+02 -1.71470E+04  6.19772E+03 -1.03390E+04  6.13821E+03 -6.20314E+03
  4.34084E+03 -4.01193E+03  4.21604E+03 -4.03407E+03  6.66768E+03 -4.78970E+03  9.41317E+03 -2.18867E+03
  1.32945E+04  2.66360E+03  7.21572E+03  1.10803E+04 -2.99589E+03  1.36190E+04 -1.33101E+04  1.05318E+04
 -1.76850E+04 -1.48335E+03 -1.15147E+04 -1.24462E+04 -2.01192E+03 -1.93588E+04  1.08283E+04 -1.89192E+04
  1.98080E+04 -1.00436E+04  2.30134E+04  2.98600E+03  1.54293E+04  1.65443E+04  2.33623E+03  2.13768E+04
 -9.36693E+03  1.70232E+04 -1.25791E+04  6.06547E+03 -8.58730E+03 -1.96278E+03 -3.79002E+03 -2.31257E+03
 -1.54383E+03  8.44875E+01 -2.58762E+03  2.89280E+03 -7.67164E+03  2.65887E+03 -1.22295E+04 -1.79303E+03
 -8.82548E+03 -1.21139E+04 -2.21682E+02 -1.78967E+04  1.05474E+04 -1.60353E+04  1.84253E+04 -5.64466E+03
  1.81321E+04  8.64211E+03  8.43551E+03  1.65731E+04 -3.92132E+03  1.83634E+04 -1.34834E+04  1.17562E+04
 -1.72024E+04  1.02560E+03 -1.29480E+04 -1.13975E+04 -1.35259E+03 -1.54387E+04  8.20035E+03 -1.11824E+04
  1.13561E+04 -4.06253E+03  8.11542E+03  3.12712E+03  2.78292E+03  5.13102E+03  1.55679E+03  2.60719E+03
  3.15963E+03  2.12200E+03  4.42940E+03  2.23386E+03  5.76123E+03  5.97662E+03  4.72562E+03  1.01840E+04
 -3.77235E+03  1.49081E+04 -1.27993E+04  1.43964E+04 -1.96458E+04  3.88389E+03 -1.96406E+04 -8.71643E+03
 -9.04604E+03 -1.83511E+04  2.76154E+03 -2.03446E+04  1.16502E+04 -1.32711E+04  1.50797E+04 -3.82002E+03
  1.12746E+04  7.15275E+03  2.68796E+03  1.07663E+04 -5.17889E+03  7.60620E+03 -7.90821E+03 -1.26196E+03
 -3.88327E+03 -8.20066E+03  4.45667E+03 -8.70491E+03  8.47229E+03 -3.98592E+03  7.76294E+03  1.59954E+03
  5.11094E+03  3.78549E+03  1.42115E+03  3.27127E+03 -9.07906E+02  2.69158E+03  1.47323E+03 -8.87581E+02
  3.39250E+03 -1.11860E+03  7.57863E+03  3.05763E+03  4.81683E+03  1.00471E+04 -1.94724E+03  1.37938E+04
 -9.25883E+03  9.25584E+03 -1.21196E+04  2.58211E+03 -1.09017E+04 -4.71097E+03 -4.49715E+03 -7.64873E+03
  1.36706E+03 -7.27351E+03  5.36876E+03 -3.61547E+03  4.23620E+03  3.66314E+03 -1.86178E+03  6.56624E+03
 -8.24810E+03  4.05597E+03 -9.44588E+03 -4.24007E+03 -5.63491E+03 -1.03566E+04  1.85724E+03 -1.12822E+04
  6.67250E+03 -6.67802E+03  8.19443E+03 -7.83813E+02  6.30321E+03  3.08771E+03  7.96016E+02  5.29738E+03
 -4.14913E+03  1.43381E+03 -5.36526E+03 -4.06755E+03  1.73611E+03 -8.28156E+03  9.57553E+03 -6.29592E+03
  1.29053E+04  6.78027E+02  1.20495E+04  8.82861E+03  3.54305E+03  1.31985E+04 -5.02658E+03  1.28156E+04
 -1.08167E+04  5.68673E+03 -1.10841E+04 -1.56387E+03 -6.62200E+03 -8.58000E+03  1.99063E+03 -8.22917E+03
  8.06393E+03 -4.09267E+03  7.26635E+03  3.06851E+03  2.30895E+03  7.24728E+03 -1.92440E+03  6.00570E+03
 -3.81993E+03  3.82429E+03 -3.13854E+03  1.57622E+03 -1.37435E+03  1.35522E+03 -1.92272E+03  2.16059E+03
 -3.35013E+03  4.80279E+03 -8.42427E+03  4.37017E+03 -1.33757E+04  1.24871E+02 -1.45870E+04 -9.08939E+03
 -7.71156E+03 -1.84561E+04  3.42958E+03 -2.06556E+04  1.26853E+04 -1.58468E+04  1.97906E+04 -6.08752E+03
  1.85163E+04  4.01816E+03  1.15094E+04  1.29099E+04  1.29264E+03  1.47901E+04 -5.72519E+03  1.09862E+04
 -7.73355E+03  3.57642E+03 -4.54822E+03 -1.61237E+03 -1.70674E+03 -1.60397E+03 -7.59181E+02  6.00724E+01
 -2.08858E+03  4.15350E+02 -2.85221E+03 -8.53464E+02 -1.45272E+03 -3.57762E+03  3.51110E+02 -4.77743E+03
  5.72777E+03 -4.52621E+03  8.87731E+03  2.43861E+02  9.82186E+03  8.03342E+03  3.00654E+03  1.43034E+04
 -7.08468E+03  1.66881E+04 -1.54515E+04  9.65283E+03 -1.76786E+04 -1.46747E+03 -1.33679E+04 -1.08837E+04
 -5.62010E+03 -1.49038E+04  3.61991E+03 -1.34069E+04  9.45854E+03 -7.69934E+03  9.61834E+03  4.69653E+02
  4.76232E+03  4.94954E+03 -7.90313E+02  3.88612E+03 -2.88880E+03 -5.75282E+02 -9.64765E+00 -3.18188E+03
  4.24970E+03 -1.74797E+03  5.93351E+03  2.05389E+03  3.55470E+03  5.59298E+03  2.16082E+02  7.99725E+03
 -6.42594E+03  6.51443E+03 -9.72180E+03  8.82912E+02 -9.11208E+03 -7.25965E+03 -1.59840E+03 -1.26311E+04
  7.01781E+03 -1.05303E+04  1.18688E+04 -3.25499E+03  1.14597E+04  3.32874E+03  6.54889E+03  9.33850E+03
  1.13109E+03  9.58187E+03 -4.42721E+03  7.97840E+03 -6.69906E+03  4.35077E+03 -5.49742E+03  5.04988E+02
 -3.29038E+03  1.00399E+02 -2.39446E+03  7.04877E+02 -5.18349E+03  1.71529E+03 -7.83107E+03 -1.78098E+03
 -7.14302E+03 -5.89545E+03 -2.13374E+03 -1.00371E+04  4.21273E+03 -1.04135E+04  8.96721E+03 -5.10379E+03
  9.82693E+03  1.30759E+03  5.87854E+03  7.52549E+03 -8.14857E+02  1.04787E+04 -7.73564E+03  6.59119E+03
