 $NMID ID='MM_0lb_SNR800_8hz_g45_31.RAW', FMTDAT='(8E13.5)'
 TRAMP=1., VOLUME=1. $END
  3.09472E+05  4.43201E+02  3.37625E+05  2.50977E+05  8.52539E+04  3.38217E+05 -1.32476E+05  2.52000E+05
 -1.91002E+05  8.41069E+04 -1.12857E+05 -3.22731E+04  1.69498E+02 -5.06976E+04  5.36730E+04 -7.34755E+02
  3.58325E+04  5.30722E+04 -1.65167E+04  7.59817E+04 -6.11666E+04  6.45740E+04 -8.54460E+04  3.29482E+04
 -8.23590E+04 -1.22127E+04 -5.82452E+04 -5.25040E+04 -1.53153E+04 -7.07609E+04  2.82114E+04 -4.69613E+04
  4.11851E+04  3.81244E+03  1.65896E+04  4.83817E+04 -3.50538E+04  4.79553E+04 -6.82619E+04  4.29280E+02
 -5.49530E+04 -5.78308E+04 -6.99745E+03 -7.88363E+04  3.51589E+04 -5.74271E+04  4.97017E+04 -1.84491E+04
  4.51703E+04  1.16012E+04  3.28227E+04  2.69542E+04  1.59055E+04  3.09189E+04 -5.70908E+03  2.79289E+04
 -2.24264E+04  1.19235E+04 -1.79330E+04 -5.72058E+03  7.20897E+03 -7.16963E+03  2.38956E+04  1.36317E+04
  7.38230E+03  3.79055E+04 -3.39911E+04  3.74284E+04 -6.61711E+04  2.30904E+03 -5.91316E+04 -4.48708E+04
 -1.27518E+04 -6.60949E+04  4.14068E+04 -4.75112E+04  6.18924E+04 -2.74949E+03  3.72126E+04  3.46469E+04
 -5.62183E+03  3.98441E+04 -3.20315E+04  1.89139E+04 -3.33442E+04 -3.37385E+03 -1.95324E+04 -1.23080E+04
 -9.57766E+03 -1.53164E+04 -4.74814E+02 -2.01114E+04  8.77522E+03 -2.36464E+04  1.58749E+04 -1.28346E+04
  1.02262E+04  6.03705E+03 -1.04982E+04  1.31479E+04 -2.32742E+04 -6.69448E+03 -8.81855E+03 -3.77531E+04
  2.54199E+04 -4.73958E+04  5.23834E+04 -2.11349E+04  4.86843E+04  2.08590E+04  1.77857E+04  4.74212E+04
 -1.67758E+04  3.63337E+04 -2.80877E+04  2.46872E+03 -1.17738E+04 -2.94371E+04  2.16704E+04 -3.74532E+04
  4.47803E+04 -1.11205E+04  4.09990E+04  2.52927E+04  2.16333E+04  5.17572E+04 -8.16484E+03  5.68403E+04
 -3.56433E+04  3.83333E+04 -4.79498E+04  1.14909E+04 -4.81762E+04 -1.85207E+04 -2.61097E+04 -4.22574E+04
  7.89363E+03 -4.22868E+04  3.45708E+04 -1.71001E+04  3.27252E+04  1.13481E+04  5.60539E+03  2.14317E+04
 -1.40284E+04  9.67097E+03 -1.11846E+04 -7.44567E+03  5.22272E+03 -1.10032E+04  1.88058E+04  5.44202E+03
  1.50033E+04  2.28508E+04 -4.92588E+03  2.76809E+04 -2.38910E+04  1.45807E+04 -3.21551E+04 -2.60670E+03
 -2.59036E+04 -1.85477E+04 -1.22033E+04 -2.62206E+04  4.67309E+03 -2.63181E+04  2.02120E+04 -2.34715E+04
  3.27429E+04 -1.46690E+04  3.86137E+04  4.95000E+03  2.74613E+04  2.49063E+04  4.76351E+03  4.17176E+04
 -2.01438E+04  3.43815E+04 -3.07453E+04  1.20966E+04 -2.27235E+04 -1.05282E+04 -4.77882E+03 -1.29574E+04
  7.54046E+02 -1.04532E+03 -8.11335E+03  8.73005E+03 -2.03085E+04  4.99518E+03 -2.07479E+04 -9.71493E+03
 -1.18276E+04 -2.41620E+04  6.33145E+03 -2.84100E+04  1.87566E+04 -2.02840E+04  2.31686E+04 -1.92607E+03
  1.51252E+04  1.70304E+04 -1.67478E+03  2.38151E+04 -1.66157E+04  1.37803E+04 -2.41843E+04 -5.15297E+03
 -1.76181E+04 -2.11719E+04 -2.06597E+03 -2.85462E+04  1.27719E+04 -2.34026E+04  2.41493E+04 -1.19884E+04
  2.25972E+04 -4.64444E+02  1.62489E+04  5.06898E+03  8.86166E+03  1.62917E+03  1.26328E+04 -2.13209E+03
  2.27681E+04  3.27735E+03  2.65204E+04  1.88792E+04  1.80286E+04  3.87269E+04 -2.77461E+03  4.54099E+04
 -2.58239E+04  3.81139E+04 -4.27640E+04  2.00178E+04 -4.64086E+04 -3.74035E+03 -3.73707E+04 -2.67745E+04
 -1.49962E+04 -3.82851E+04  1.35183E+04 -3.32870E+04  2.90349E+04 -1.54515E+04  2.49661E+04  7.85750E+03
  8.19824E+03  1.92532E+04 -1.23228E+04  1.60311E+04 -2.09709E+04  2.75695E+03 -1.59370E+04 -1.31154E+04
 -5.72046E+02 -1.98014E+04  1.08115E+04 -1.51671E+04  1.37773E+04 -1.24122E+03  3.80079E+03  9.05549E+03
 -8.82134E+03  4.57160E+03 -8.94034E+03 -7.02003E+03 -2.13214E+03 -1.85095E+04  1.24310E+04 -2.07555E+04
  2.40278E+04 -1.20649E+04  2.71857E+04  2.89691E+03  2.38946E+04  1.93113E+04  1.09263E+04  3.02276E+04
 -6.08246E+03  3.23260E+04 -2.12038E+04  2.00569E+04 -2.35461E+04  4.09682E+03 -1.62941E+04 -6.06278E+03
 -6.22219E+03 -7.47959E+03 -6.27359E+02  3.51063E+02 -3.36480E+03  3.21306E+03 -7.56935E+03  5.27128E+03
 -1.48733E+04 -1.11140E+03 -1.53695E+04 -1.23888E+04 -6.11370E+03 -1.96580E+04  6.44924E+03 -1.59286E+04
  1.35055E+04 -6.95429E+03  9.59573E+03  4.42625E+03 -4.07852E+02  6.85803E+03 -8.14564E+03 -1.04673E+02
 -7.92994E+03 -1.05569E+04 -1.25503E+03 -1.64147E+04  9.28186E+03 -1.74982E+04  2.11829E+04 -9.16332E+03
  2.46219E+04  2.33877E+03  1.75707E+04  1.53484E+04  3.37508E+03  2.03202E+04 -9.82030E+03  1.64290E+04
 -1.31934E+04  4.54909E+03 -6.58399E+03 -3.44350E+03  1.92498E+03 -4.69945E+03  8.56899E+03 -9.91749E+02
  7.95801E+03  7.28400E+03  1.52314E+03  1.33086E+04 -9.49559E+03  1.26908E+04 -1.65000E+04  3.09740E+03
 -1.15591E+04 -8.75915E+03  1.93319E+02 -1.43317E+04  8.79790E+03 -6.91483E+03  9.56230E+03  3.25839E+03
  2.39233E+03  1.10800E+04 -8.30313E+03  1.21721E+04 -1.42417E+04  5.42775E+03 -1.49638E+04 -5.28124E+03
 -8.67280E+03 -1.68836E+04  4.36015E+03 -1.92026E+04  1.62146E+04 -1.16291E+04  1.78455E+04  3.30649E+03
  1.07345E+04  1.40405E+04 -1.49852E+03  1.70218E+04 -1.21854E+04  9.14649E+03 -1.32134E+04 -1.42276E+03
 -1.10604E+04 -1.05735E+04 -1.97190E+03 -1.23579E+04  6.64810E+03 -9.96082E+03  8.14335E+03 -3.53867E+03
  5.05204E+03  2.27635E+03 -8.88641E+02  2.12049E+03 -8.34824E+02 -3.95513E+03  2.92255E+03 -8.33577E+03
  1.21126E+04 -5.81530E+03  1.74242E+04  1.64462E+03  1.70486E+04  1.22302E+04  1.08866E+04  2.24109E+04
 -5.41527E+03  2.57168E+04 -2.10070E+04  1.85331E+04 -2.75765E+04  3.68206E+03 -2.21164E+04 -9.88655E+03
 -1.04892E+04 -1.78684E+04 -2.05248E+02 -1.55797E+04  5.04752E+03 -9.20942E+03  5.58700E+03 -5.43318E+03
  3.65945E+03 -3.07566E+03  4.22276E+03 -4.57419E+03  5.98933E+03 -3.97050E+03  8.56376E+03 -1.94211E+03
  1.14932E+04  2.92330E+03  5.79831E+03  9.83054E+03 -2.65414E+03  1.25954E+04 -1.23340E+04  9.18150E+03
 -1.57312E+04 -1.34431E+03 -1.01266E+04 -1.11543E+04 -1.66112E+03 -1.71950E+04  9.31900E+03 -1.72374E+04
  1.76767E+04 -9.39022E+03  2.11564E+04  2.89313E+03  1.44898E+04  1.47488E+04  2.22815E+03  1.95786E+04
 -7.97966E+03  1.56822E+04 -1.14751E+04  5.38236E+03 -7.26293E+03 -1.90766E+03 -2.92867E+03 -2.11545E+03
 -1.89392E+03 -5.17039E+02 -2.34817E+03  3.35059E+03 -6.84544E+03  3.07424E+03 -1.11256E+04 -1.96929E+03
 -8.36580E+03 -1.07007E+04 -4.35871E+02 -1.61911E+04  1.00404E+04 -1.47791E+04  1.62230E+04 -4.60398E+03
  1.60117E+04  7.47419E+03  7.67052E+03  1.46679E+04 -3.48021E+03  1.60193E+04 -1.19171E+04  1.03259E+04
 -1.51071E+04  4.79334E+02 -1.17371E+04 -9.41095E+03 -1.47041E+03 -1.35019E+04  7.10952E+03 -9.90408E+03
  1.07686E+04 -3.23033E+03  6.96954E+03  2.68574E+03  2.58003E+03  5.17601E+03  1.19866E+03  1.91416E+03
  3.03015E+03  9.35789E+02  3.67001E+03  2.02300E+03  4.92187E+03  5.92466E+03  4.14441E+03  8.72110E+03
 -3.57262E+03  1.31471E+04 -1.12647E+04  1.29260E+04 -1.67037E+04  3.50326E+03 -1.73792E+04 -7.19078E+03
 -8.14992E+03 -1.68261E+04  2.02342E+03 -1.77860E+04  9.96432E+03 -1.18276E+04  1.36471E+04 -2.75967E+03
  1.06715E+04  6.66136E+03  2.42341E+03  1.00221E+04 -4.39922E+03  6.27810E+03 -7.04578E+03 -9.74612E+02
 -3.30901E+03 -6.81655E+03  3.86865E+03 -7.30027E+03  7.05803E+03 -3.53471E+03  6.56640E+03  1.28867E+03
  3.79125E+03  3.55966E+03  1.49911E+03  3.29706E+03 -9.96754E+02  2.42802E+03  2.06732E+03 -1.18517E+03
  2.72305E+03 -1.00958E+03  7.09121E+03  2.88500E+03  3.99450E+03  8.65854E+03 -1.72576E+03  1.21756E+04
 -8.18506E+03  7.88361E+03 -1.06056E+04  1.94637E+03 -9.80025E+03 -3.88432E+03 -3.93719E+03 -6.46587E+03
  8.85729E+02 -6.92377E+03  4.50635E+03 -2.93225E+03  3.72209E+03  3.33589E+03 -1.84568E+03  5.25172E+03
 -7.24949E+03  3.33139E+03 -8.10848E+03 -4.13630E+03 -4.31486E+03 -9.30255E+03  1.32692E+03 -9.49830E+03
  5.68402E+03 -5.90456E+03  6.99332E+03 -4.01894E+02  5.67288E+03  3.01447E+03  4.83176E+02  4.98027E+03
 -3.40067E+03  1.77091E+03 -4.01641E+03 -3.07385E+03  2.08972E+03 -7.58574E+03  8.62215E+03 -6.21352E+03
  1.11643E+04  9.73602E+02  1.00217E+04  7.52762E+03  3.60361E+03  1.21136E+04 -4.01037E+03  1.07517E+04
 -9.23345E+03  5.13179E+03 -9.39398E+03 -1.71673E+03 -5.31335E+03 -7.21547E+03  1.69518E+03 -7.05793E+03
  6.81971E+03 -3.05996E+03  6.05334E+03  2.61118E+03  1.46476E+03  6.48736E+03 -1.28932E+03  5.43289E+03
 -2.98156E+03  3.52763E+03 -2.86532E+03  1.12214E+03 -1.40517E+03  7.48757E+02 -1.77856E+03  2.16392E+03
 -3.22496E+03  4.52231E+03 -7.82878E+03  4.19140E+03 -1.10421E+04 -1.08423E+02 -1.25987E+04 -7.24658E+03
 -6.92930E+03 -1.54295E+04  2.86443E+03 -1.73673E+04  1.09654E+04 -1.34467E+04  1.64542E+04 -5.42139E+03
  1.52356E+04  3.44240E+03  9.50892E+03  1.08873E+04  1.05896E+03  1.20871E+04 -4.72181E+03  9.02495E+03
 -6.46159E+03  3.52066E+03 -4.36309E+03 -1.13188E+03 -1.09510E+03 -1.08578E+03 -6.89655E+02 -3.72062E+02
 -2.21752E+03  4.07332E+02 -2.31617E+03 -3.63515E+02 -6.52797E+02 -2.89920E+03  2.88399E+02 -4.49820E+03
  5.03286E+03 -4.08805E+03  7.28566E+03  7.42971E+02  8.17396E+03  6.87299E+03  2.57809E+03  1.26278E+04
 -5.84782E+03  1.37861E+04 -1.29984E+04  8.01591E+03 -1.45031E+04 -1.21813E+03 -1.14406E+04 -8.73953E+03
 -4.35807E+03 -1.23229E+04  3.17800E+03 -1.16099E+04  7.85681E+03 -6.20664E+03  8.25799E+03  2.75493E+02
  4.27038E+03  3.85148E+03 -2.21327E+02  3.62289E+03 -2.47700E+03  3.86973E+02  1.45873E+02 -2.60396E+03
  3.68864E+03 -1.87397E+03  4.76073E+03  1.39491E+03  3.35537E+03  4.98079E+03  4.73539E+02  6.47620E+03
 -5.47166E+03  5.46696E+03 -8.27689E+03  4.81506E+02 -7.22378E+03 -6.08876E+03 -7.52397E+02 -1.07654E+04
  5.53671E+03 -8.68288E+03  9.57247E+03 -2.95846E+03  9.38834E+03  2.59467E+03  5.17722E+03  7.98739E+03
  9.80234E+02  8.00327E+03 -3.03165E+03  6.87525E+03 -5.08876E+03  3.93032E+03 -4.14877E+03  7.10224E+02
 -3.14657E+03 -4.79432E+01 -1.96260E+03  1.24013E+03 -4.30380E+03  1.35549E+03 -6.49634E+03 -1.33987E+03
 -5.80659E+03 -4.82596E+03 -2.18199E+03 -8.23639E+03  3.36503E+03 -8.54427E+03  7.59566E+03 -4.15860E+03
  8.64097E+03  1.08923E+03  4.78919E+03  6.07043E+03 -5.64373E+02  8.44690E+03 -6.33109E+03  5.58759E+03
