 $NMID ID='MM_0lb_SNR800_20hz_g50_35.RAW', FMTDAT='(8E13.5)'
 TRAMP=1., VOLUME=1. $END
  3.09999E+05  2.09741E+01  3.36775E+05  2.50344E+05  8.44808E+04  3.37318E+05 -1.32687E+05  2.49984E+05
 -1.89842E+05  8.22933E+04 -1.11200E+05 -3.28642E+04  1.56753E+03 -5.02457E+04  5.37884E+04  2.67702E+02
  3.51836E+04  5.31343E+04 -1.69427E+04  7.47092E+04 -6.01826E+04  6.25539E+04 -8.25296E+04  3.13194E+04
 -7.95076E+04 -1.09944E+04 -5.61525E+04 -4.98638E+04 -1.49117E+04 -6.80755E+04  2.66398E+04 -4.47391E+04
  3.89659E+04  4.14201E+03  1.56416E+04  4.68178E+04 -3.37461E+04  4.62375E+04 -6.52847E+04 -5.54039E+02
 -5.18443E+04 -5.58277E+04 -6.23334E+03 -7.49931E+04  3.28410E+04 -5.31495E+04  4.59852E+04 -1.62014E+04
  4.12798E+04  1.09762E+04  3.04755E+04  2.40646E+04  1.57919E+04  2.82268E+04 -4.51939E+03  2.67117E+04
 -2.15862E+04  1.26310E+04 -1.90584E+04 -4.16095E+03  3.92021E+03 -7.41583E+03  2.11209E+04  1.08289E+04
  7.28859E+03  3.28596E+04 -3.03027E+04  3.38320E+04 -6.08989E+04  2.05449E+03 -5.50372E+04 -4.09670E+04
 -1.25393E+04 -6.04158E+04  3.77858E+04 -4.29505E+04  5.47899E+04 -2.12221E+03  3.16421E+04  3.02046E+04
 -6.79771E+03  3.27306E+04 -2.81866E+04  1.29738E+04 -2.72959E+04 -5.49695E+03 -1.39948E+04 -1.00634E+04
 -7.31201E+03 -1.10614E+04 -1.04208E+03 -1.64748E+04  6.27431E+03 -2.24479E+04  1.48257E+04 -1.41924E+04
  1.22645E+04  4.06001E+03 -5.85598E+03  1.30916E+04 -1.91968E+04 -1.87658E+03 -8.05981E+03 -2.99633E+04
  2.06860E+04 -3.98857E+04  4.39623E+04 -1.85745E+04  4.14801E+04  1.80384E+04  1.40084E+04  4.10027E+04
 -1.51079E+04  3.04146E+04 -2.28042E+04  9.60212E+02 -8.07990E+03 -2.61523E+04  2.05955E+04 -3.07522E+04
  3.75336E+04 -6.96661E+03  3.09509E+04  2.24360E+04  1.49731E+04  4.17166E+04 -7.84190E+03  4.42462E+04
 -2.78698E+04  2.92291E+04 -3.64702E+04  8.23460E+03 -3.74938E+04 -1.45492E+04 -2.06908E+04 -3.40445E+04
  6.84348E+03 -3.37866E+04  2.87625E+04 -1.23493E+04  2.65565E+04  1.05576E+04  2.98743E+03  1.76259E+04
 -1.30877E+04  7.20636E+03 -9.25498E+03 -7.82357E+03  6.04802E+03 -9.94128E+03  1.70909E+04  6.70151E+03
  1.24666E+04  2.14255E+04 -6.67625E+03  2.29348E+04 -2.10729E+04  8.60977E+03 -2.46209E+04 -6.45524E+03
 -1.61344E+04 -1.60947E+04 -5.08413E+03 -1.61633E+04  3.48000E+03 -1.38408E+04  1.18707E+04 -1.35327E+04
  2.03512E+04 -1.12563E+04  2.70572E+04  5.64941E+02  2.07204E+04  1.56439E+04  3.80530E+03  3.16473E+04
 -1.57235E+04  2.69533E+04 -2.54576E+04  9.34529E+03 -1.93151E+04 -1.04719E+04 -3.98820E+03 -1.38444E+04
  2.71010E+03 -4.17997E+03 -2.18548E+03  5.24860E+03 -1.21882E+04  5.28649E+03 -1.28050E+04 -4.41447E+03
 -8.45683E+03 -1.47154E+04  4.41140E+03 -1.86574E+04  1.23915E+04 -1.34019E+04  1.36808E+04 -1.60568E+03
  8.46691E+03  1.05106E+04 -6.15699E+02  1.51099E+04 -9.88321E+03  8.48095E+03 -1.46637E+04 -3.18936E+03
 -1.12243E+04 -1.33516E+04 -1.43569E+03 -1.82748E+04  8.50022E+03 -1.47022E+04  1.55650E+04 -6.90736E+03
  1.39721E+04  7.50268E+02  9.98403E+03  3.77599E+03  4.78052E+03  4.94733E+02  7.36704E+03 -1.52467E+03
  1.29780E+04  2.48519E+03  1.36534E+04  1.21504E+04  8.28766E+03  2.36697E+04 -3.11840E+03  2.48940E+04
 -1.47175E+04  1.89144E+04 -2.30206E+04  9.03863E+03 -2.30148E+04 -1.61792E+03 -2.00548E+04 -1.32144E+04
 -9.50157E+03 -1.88925E+04  6.29912E+03 -1.78270E+04  1.55782E+04 -1.03086E+04  1.47192E+04  3.46476E+03
  6.60853E+03  1.06237E+04 -6.63116E+03  9.91116E+03 -1.26536E+04  2.56741E+03 -9.97691E+03 -7.41637E+03
  1.99041E+02 -1.18823E+04  5.72276E+03 -9.00892E+03  7.42238E+03 -1.40815E+03  1.38019E+03  4.56766E+03
 -5.11035E+03  8.47607E+02 -3.17141E+03 -4.11939E+03  6.38631E+02 -9.61921E+03  7.59876E+03 -9.19338E+03
  1.11441E+04 -4.33987E+03  1.08710E+04  2.90232E+03  9.04582E+03  8.41941E+03  4.25536E+03  1.28242E+04
 -1.38896E+03  1.42977E+04 -8.62235E+03  9.13014E+03 -1.04555E+04  3.02586E+03 -7.69129E+03 -1.35620E+03
 -3.99656E+03 -3.10030E+03 -8.57840E+02  1.60976E+03 -2.15540E+03  1.88321E+03 -3.33931E+03  3.26565E+03
 -7.48319E+03 -5.97422E+02 -8.26144E+03 -6.72714E+03 -3.35827E+03 -1.08084E+04  3.09378E+03 -7.66289E+03
  6.57795E+03 -3.67338E+03  4.99275E+03  1.96940E+03  7.36107E+02  2.84879E+03 -2.76883E+03 -2.98443E+02
 -3.14017E+03 -4.62974E+03 -7.04395E+02 -6.60453E+03  3.58593E+03 -7.16500E+03  8.76448E+03 -3.34521E+03
  1.06365E+04  2.63265E+02  7.88428E+03  5.66770E+03  1.43726E+03  7.49823E+03 -4.84359E+03  7.61360E+03
 -6.30136E+03  2.45876E+03 -3.01393E+03 -1.01078E+03  1.07535E+03 -1.67098E+03  4.49329E+03 -9.80529E+02
  3.82344E+03  3.10797E+03  1.28776E+03  5.71140E+03 -4.31561E+03  5.97239E+03 -6.96738E+03  1.71685E+03
 -4.37915E+03 -3.06713E+03  2.47149E+02 -6.14318E+03  3.21525E+03 -2.97376E+03  3.01475E+03  7.65911E+02
  1.81072E+02  2.80020E+03 -3.80033E+03  4.25354E+03 -3.92284E+03  1.98173E+03 -3.83724E+03 -7.40102E+02
 -2.45469E+03 -4.94259E+03  9.00962E+02 -6.26980E+03  4.91232E+03 -4.08758E+03  5.41664E+03  6.01440E+02
  4.60191E+03  4.70623E+03  8.73615E+01  6.42718E+03 -4.53359E+03  3.82546E+03 -4.69590E+03 -2.75392E+02
 -5.36225E+03 -4.52155E+03 -1.43807E+03 -4.45960E+03  2.19961E+03 -4.29657E+03  2.55367E+03 -2.77157E+03
  2.59178E+03  7.95638E+01 -1.72159E+01  1.15773E+03  8.70220E+02  2.24738E+02 -8.90926E+01 -1.30375E+03
  3.07655E+03 -6.45287E+02  4.11898E+03  5.66860E+02  4.58632E+03  2.32662E+03  4.86823E+03  5.99578E+03
 -7.11665E+02  7.27703E+03 -6.49297E+03  5.68300E+03 -8.64040E+03  1.02934E+03 -6.62001E+03 -1.96026E+03
 -3.92857E+03 -5.67008E+03 -3.64747E+02 -4.63547E+03  1.93338E+03 -1.72566E+03  1.23166E+03 -2.15028E+03
  7.94766E+02 -1.43772E+03  2.09108E+03 -2.11596E+03  3.50221E+03 -1.39569E+03  3.28759E+03  5.11918E+02
  3.78571E+03  1.26707E+03  7.75975E+02  2.75866E+03 -1.58800E+03  2.03949E+03 -4.06450E+03  2.09043E+03
 -4.09330E+03 -1.07363E+03 -1.02387E+03 -2.87078E+03  6.69349E+02 -4.15483E+03  2.89585E+03 -4.36992E+03
  4.14167E+03 -2.64561E+03  5.69813E+03  2.15496E+01  4.44086E+03  3.51354E+03  8.44862E+02  5.21627E+03
 -1.62680E+03  5.55935E+03 -2.74806E+03  1.60635E+03 -1.65954E+03 -9.45798E+02 -2.06410E+02 -1.79506E+02
 -1.69003E+02  4.19818E+02 -9.42540E+02  1.83357E+03 -2.27874E+03  7.29491E+02 -3.29186E+03 -4.35718E+02
 -1.14451E+03 -3.39634E+03  7.29874E+02 -3.68266E+03  2.26109E+03 -3.55771E+03  2.70875E+03 -8.27423E+02
  3.37365E+03  2.09551E+03  1.65600E+03  2.52977E+03 -2.66354E+02  3.75926E+03 -1.97175E+03  2.08079E+03
 -2.88997E+03  4.08689E+02 -2.96648E+03 -2.09736E+03 -1.16146E+02 -2.61042E+03  1.13570E+03 -2.01292E+03
  2.02419E+03 -1.35806E+03  1.77513E+03  2.25944E+02  1.35918E+02  1.68126E+03  6.46699E+02  6.80178E+02
  1.67566E+03  4.02809E+02  1.04116E+03  9.96616E+02  7.87005E+02  2.09553E+03  1.37459E+03  1.38748E+03
 -1.13907E+03  2.52574E+03 -1.87226E+03  3.54388E+03 -2.19453E+03  1.39068E+03 -3.33351E+03 -2.34858E+01
 -1.17654E+03 -2.79752E+03  6.02360E+02 -3.65151E+03  1.33592E+03 -1.84665E+03  2.56578E+03 -8.68331E+02
  2.11117E+03  1.54075E+03 -3.54416E+01  1.40563E+03 -3.87934E+02  8.18353E+02 -4.03564E+02  8.21096E+01
 -2.42375E+02 -1.34667E+03  7.43921E+02 -9.30043E+02  1.24987E+03 -8.40636E+02  8.84295E+02  2.37707E+02
  6.33312E+02  1.23183E+02  7.98519E+02 -3.07845E+02 -1.97799E+02  5.54157E+02  1.47930E+03 -2.17543E+02
 -2.52204E+02 -2.24507E+02  1.45667E+03  5.37971E+02  3.05232E+02  1.83313E+03 -2.52664E+02  2.62785E+03
 -1.15953E+03  9.12991E+02 -1.38980E+03  4.46831E+02 -1.61063E+03 -5.28313E+02  2.32805E+01 -6.68748E+02
  1.00245E+02 -9.11275E+02  6.12188E+02 -7.01490E+02  2.37328E+02  1.38195E+03 -8.19647E+02  5.32974E+02
 -1.03474E+03  7.07526E+02 -7.57625E+02 -1.13142E+03 -6.75420E+02 -1.80934E+03 -9.08949E+01 -1.11393E+03
  2.84713E+02 -2.28470E+02  2.36022E+02  3.57562E+02  1.37027E+03 -3.56603E+02  1.51240E+02  9.34450E+02
  1.71516E+01  3.67703E+02 -9.69765E+02 -2.09161E+02  2.75500E+02 -3.67826E+02  1.40670E+03 -8.72539E+02
  6.48307E+02  3.48194E+02  2.43813E+03  4.52942E+02  1.00939E+03  1.04616E+03  4.47605E+01  1.37064E+03
 -1.12180E+03  7.07008E+01 -1.13285E+03 -1.49038E+02 -6.29536E+02 -9.76374E+02  2.75603E+02 -1.59231E+02
  1.18628E+03 -5.19402E+02  5.15409E+02  6.93574E+02  1.07040E+01  1.16066E+03  2.25999E+02  7.03687E+02
 -1.65897E+02  8.95059E+02 -3.28975E+02  8.88093E+01 -6.93878E+01  3.98667E+02 -7.76939E+02  4.93908E+02
 -4.16633E+02  9.67631E+02 -1.11957E+03  5.01086E+02 -1.01396E+03  1.98206E+02 -1.90583E+03 -7.31938E+02
 -5.57403E+02 -1.53593E+03  3.60366E+02 -2.25167E+03  6.89683E+02 -1.80029E+03  2.10012E+03 -9.54260E+02
  1.91900E+03 -1.86286E+02  8.04341E+02  1.26909E+03 -4.33041E+02  1.03588E+03 -1.64924E+02  1.05222E+03
 -7.38702E+02  5.86045E+02 -2.71514E+02 -9.03404E+01 -6.24975E+02  7.33411E+01 -7.24197E+02  1.28815E+02
 -9.82744E+02 -5.79999E+01 -8.57567E+02  1.15258E+01  2.66713E+02 -4.33510E+02 -2.26754E+02 -7.42073E+02
  1.19029E+03 -4.49493E+02 -5.25934E+00  2.18991E+02  9.37692E+02  7.43892E+02 -8.77772E+02  7.37103E+02
 -9.33286E+02  1.63324E+03 -1.12200E+03  1.00330E+03 -1.26313E+03 -3.29772E+02 -8.27320E+02 -1.12615E+03
 -6.50923E+02 -8.23555E+02 -1.04350E+02 -7.43260E+02  2.21834E+02 -5.48776E+02  3.99297E+02  1.15676E+02
  3.56069E+02 -8.94958E+00  2.35401E+02  4.16875E+02 -3.07512E+02  3.97588E+01 -2.69853E+02  4.93868E+01
  4.14697E+02  2.25461E+02 -2.52072E+01  2.77021E+02 -6.26385E+01  2.21521E+02  3.68605E+02 -9.03337E+01
 -2.90492E+02  3.86374E+02 -1.53275E+02  1.95135E+01 -3.53602E+02 -3.41824E+02 -9.90911E+01 -8.75119E+02
  2.82027E+02 -2.60306E+02  2.51447E+02  3.22370E+01  5.52266E+02 -5.13240E+02  1.33171E+02  4.85570E+02
  4.67525E+02  2.21661E+02 -1.93314E+02  5.15004E+02 -3.75959E+02  7.46753E+02 -3.79586E+01  1.30346E+01
 -2.44945E+01 -9.87716E+01 -4.22562E+02 -2.36090E+02 -2.47254E+02 -1.41783E+02 -4.28695E+02 -2.50092E+02
 -9.76784E+02  5.88083E+02 -2.95542E+02 -5.14479E+02  6.84810E+02 -1.43942E+03  5.17713E+02  1.30133E+02
  3.51049E+02 -1.70273E+02 -4.07674E+02  6.89245E+01  1.00475E+02  4.47616E+02 -2.29661E+02  6.26158E+02
