 $NMID ID='MM_0lb_SNR800_16hz_g45_75.RAW', FMTDAT='(8E13.5)'
 TRAMP=1., VOLUME=1. $END
  3.10062E+05  6.83135E+02  3.37471E+05  2.50579E+05  8.43090E+04  3.37661E+05 -1.32481E+05  2.50424E+05
 -1.90232E+05  8.31958E+04 -1.11293E+05 -3.26481E+04  1.24885E+03 -5.06488E+04  5.39771E+04 -2.73944E+02
  3.51284E+04  5.28381E+04 -1.69647E+04  7.49876E+04 -6.05939E+04  6.32461E+04 -8.35357E+04  3.18514E+04
 -8.00358E+04 -1.12919E+04 -5.65176E+04 -5.08459E+04 -1.47751E+04 -6.87770E+04  2.70415E+04 -4.53033E+04
  3.94122E+04  3.50734E+03  1.59140E+04  4.73053E+04 -3.43345E+04  4.67735E+04 -6.62076E+04 -3.97825E+02
 -5.27302E+04 -5.63526E+04 -6.20304E+03 -7.57166E+04  3.35914E+04 -5.40185E+04  4.70570E+04 -1.67091E+04
  4.25544E+04  1.10442E+04  3.12720E+04  2.49141E+04  1.59685E+04  2.88211E+04 -4.96884E+03  2.67208E+04
 -2.22348E+04  1.26641E+04 -1.90485E+04 -4.75045E+03  4.85970E+03 -7.22046E+03  2.13857E+04  1.13764E+04
  7.21880E+03  3.43629E+04 -3.13567E+04  3.47080E+04 -6.19723E+04  2.20908E+03 -5.60320E+04 -4.20551E+04
 -1.22411E+04 -6.22772E+04  3.87870E+04 -4.44107E+04  5.67031E+04 -2.26935E+03  3.27687E+04  3.14792E+04
 -6.15600E+03  3.46354E+04 -2.92606E+04  1.46893E+04 -2.90184E+04 -4.99835E+03 -1.57318E+04 -1.05110E+04
 -7.65924E+03 -1.23340E+04 -5.53688E+02 -1.73478E+04  6.70619E+03 -2.28537E+04  1.53372E+04 -1.35959E+04
  1.18321E+04  4.77446E+03 -7.45835E+03  1.30089E+04 -1.98657E+04 -3.15561E+03 -8.13229E+03 -3.19874E+04
  2.17683E+04 -4.17002E+04  4.62259E+04 -1.90912E+04  4.33610E+04  1.87915E+04  1.52048E+04  4.27627E+04
 -1.54847E+04  3.22054E+04 -2.42172E+04  1.37385E+03 -8.94135E+03 -2.69732E+04  2.08992E+04 -3.26051E+04
  3.89732E+04 -8.30195E+03  3.34631E+04  2.31610E+04  1.67964E+04  4.43173E+04 -7.98145E+03  4.77452E+04
 -2.99101E+04  3.14750E+04 -3.97283E+04  8.96191E+03 -4.01506E+04 -1.55612E+04 -2.24600E+04 -3.59246E+04
  7.17447E+03 -3.58938E+04  3.03448E+04 -1.38363E+04  2.81584E+04  1.06842E+04  3.51978E+03  1.83789E+04
 -1.31542E+04  8.14352E+03 -9.96436E+03 -7.89760E+03  5.65023E+03 -1.06429E+04  1.75970E+04  6.47184E+03
  1.29119E+04  2.16873E+04 -6.27204E+03  2.37639E+04 -2.17622E+04  1.05281E+04 -2.64093E+04 -5.66684E+03
 -1.84705E+04 -1.69197E+04 -6.76094E+03 -1.84750E+04  3.74302E+03 -1.70672E+04  1.41571E+04 -1.59883E+04
  2.33939E+04 -1.20323E+04  3.02110E+04  1.97426E+03  2.26113E+04  1.82065E+04  4.24575E+03  3.42854E+04
 -1.68085E+04  2.89977E+04 -2.68656E+04  9.76210E+03 -2.01194E+04 -1.01982E+04 -4.13172E+03 -1.36789E+04
  2.43112E+03 -3.41878E+03 -3.82632E+03  6.09767E+03 -1.44189E+04  5.10290E+03 -1.48064E+04 -5.90480E+03
 -9.43676E+03 -1.70267E+04  4.77009E+03 -2.10330E+04  1.36449E+04 -1.52908E+04  1.62205E+04 -1.41363E+03
  9.89294E+03  1.20525E+04 -8.78300E+02  1.72830E+04 -1.17061E+04  9.85290E+03 -1.71571E+04 -3.73943E+03
 -1.28271E+04 -1.53644E+04 -1.24097E+03 -2.06880E+04  9.52159E+03 -1.69663E+04  1.73980E+04 -8.21460E+03
  1.60304E+04  5.97719E+02  1.16420E+04  4.15698E+03  5.95165E+03  7.16669E+02  8.14412E+03 -1.43913E+03
  1.58548E+04  2.69722E+03  1.68648E+04  1.35786E+04  1.08043E+04  2.74209E+04 -2.80781E+03  3.02370E+04
 -1.75941E+04  2.39447E+04 -2.76417E+04  1.15722E+04 -2.88264E+04 -2.11226E+03 -2.42077E+04 -1.64961E+04
 -1.10333E+04 -2.37381E+04  8.21824E+03 -2.19397E+04  1.89186E+04 -1.16652E+04  1.73384E+04  4.93310E+03
  6.86546E+03  1.26291E+04 -7.71418E+03  1.16000E+04 -1.46477E+04  2.59970E+03 -1.16580E+04 -8.76155E+03
 -2.27050E+02 -1.38115E+04  6.71466E+03 -1.03094E+04  8.86937E+03 -1.26319E+03  1.82560E+03  5.62335E+03
 -6.12050E+03  1.59292E+03 -4.83124E+03 -5.29164E+03 -5.40406E+01 -1.15080E+04  8.68541E+03 -1.22284E+04
  1.40573E+04 -5.93593E+03  1.48951E+04  2.95189E+03  1.28013E+04  1.12794E+04  6.05755E+03  1.70769E+04
 -2.57194E+03  1.89989E+04 -1.17113E+04  1.19796E+04 -1.31742E+04  3.04455E+03 -9.59998E+03 -2.52336E+03
 -4.71289E+03 -4.14655E+03 -9.00585E+02  1.22984E+03 -1.96669E+03  2.48148E+03 -4.33947E+03  3.86068E+03
 -9.25956E+03 -4.57326E+02 -9.85607E+03 -8.19217E+03 -3.94038E+03 -1.31201E+04  4.21334E+03 -9.86532E+03
  8.47831E+03 -4.38368E+03  6.06929E+03  2.66124E+03  6.00561E+02  3.72779E+03 -4.27917E+03 -1.54349E+02
 -4.23862E+03 -6.22122E+03 -8.55479E+02 -8.72812E+03  4.99265E+03 -9.47054E+03  1.17322E+04 -4.87041E+03
  1.36040E+04  1.19839E+03  1.02536E+04  7.98321E+03  1.83079E+03  1.06288E+04 -6.11978E+03  9.76543E+03
 -7.79654E+03  3.37187E+03 -4.11593E+03 -1.55030E+03  1.70088E+03 -2.45015E+03  5.32396E+03 -8.64671E+02
  4.55912E+03  4.10090E+03  1.26023E+03  7.52077E+03 -5.28663E+03  7.38801E+03 -9.14778E+03  1.92183E+03
 -5.60194E+03 -4.38027E+03  1.67408E+02 -7.74001E+03  4.60323E+03 -3.90314E+03  4.58884E+03  1.26925E+03
  7.01292E+02  4.66221E+03 -4.90549E+03  6.12699E+03 -6.60900E+03  2.91560E+03 -6.29142E+03 -1.70955E+03
 -3.64270E+03 -7.93538E+03  1.75657E+03 -8.90301E+03  7.85482E+03 -5.74737E+03  8.33173E+03  1.08086E+03
  5.49192E+03  6.80259E+03 -1.11664E+02  8.53191E+03 -6.26690E+03  5.06215E+03 -6.55110E+03 -6.58743E+02
 -6.58113E+03 -6.08472E+03 -1.40303E+03 -6.16002E+03  3.35057E+03 -5.32953E+03  4.03853E+03 -3.24686E+03
  3.13432E+03  2.28199E+02 -3.39437E+02  1.40004E+03  6.47693E+02 -8.31894E+02  4.55967E+02 -2.72090E+03
  5.34365E+03 -1.78571E+03  6.87844E+03  1.02615E+03  7.36163E+03  4.58348E+03  6.24103E+03  9.37877E+03
 -1.69231E+03  1.13339E+04 -9.80821E+03  8.49601E+03 -1.24587E+04  1.67779E+03 -9.85576E+03 -3.88620E+03
 -5.47298E+03 -8.42196E+03 -4.88375E+02 -6.93570E+03  2.68215E+03 -3.37135E+03  2.16849E+03 -2.52860E+03
  1.78969E+03 -1.54674E+03  2.53442E+03 -2.74474E+03  3.83384E+03 -1.50775E+03  4.50499E+03  1.54247E+02
  5.35596E+03  1.30021E+03  2.16142E+03  4.41025E+03 -1.41943E+03  4.30226E+03 -5.31586E+03  3.63711E+03
 -6.41165E+03 -1.13904E+03 -3.22417E+03 -4.33496E+03  2.09134E+02 -6.90328E+03  4.47851E+03 -7.21655E+03
  6.79310E+03 -3.94845E+03  8.73852E+03  5.79965E+02  6.18818E+03  6.03153E+03  1.29736E+03  7.93501E+03
 -2.85657E+03  7.16911E+03 -4.35376E+03  1.99535E+03 -2.63464E+03 -1.19485E+03 -4.20858E+02 -8.79710E+02
 -7.32366E+02  2.80294E+02 -1.14784E+03  2.14074E+03 -3.29917E+03  1.05696E+03 -5.04729E+03 -6.65716E+02
 -2.66752E+03 -4.83450E+03  6.48422E+02 -5.78456E+03  3.88428E+03 -5.72103E+03  5.25863E+03 -1.52193E+03
  5.64456E+03  3.18530E+03  2.55822E+03  4.44217E+03 -1.20857E+03  6.10464E+03 -3.94475E+03  3.74262E+03
 -4.95258E+03  4.84520E+02 -4.37507E+03 -3.57728E+03 -5.41367E+02 -4.68201E+03  2.38168E+03 -3.72838E+03
  3.88722E+03 -1.64680E+03  2.34921E+03  8.73862E+02  8.38540E+02  1.95163E+03  9.18055E+02  7.05251E+02
  1.67857E+03  7.09811E+02  1.51725E+03  1.47742E+03  1.56935E+03  2.63897E+03  1.85547E+03  2.50411E+03
 -1.50423E+03  4.19103E+03 -3.79059E+03  4.95787E+03 -4.83915E+03  1.61077E+03 -5.96470E+03 -1.53123E+03
 -2.72701E+03 -5.13467E+03  7.37824E+02 -6.41726E+03  2.93826E+03 -3.83986E+03  4.69783E+03 -1.23377E+03
  3.40309E+03  2.45611E+03  6.32567E+02  3.00213E+03 -1.12415E+03  1.58190E+03 -1.78934E+03 -3.77795E+02
 -1.07253E+03 -2.40060E+03  1.73258E+03 -2.35815E+03  1.81655E+03 -1.67887E+03  2.13118E+03  4.37574E+02
  1.33493E+03  4.96075E+02  7.82933E+02  6.80776E+01 -5.32807E+02  8.73567E+02  1.86933E+03 -2.70035E+02
  5.15327E+02 -3.17015E+02  2.31568E+03  8.84390E+02  6.26452E+02  3.14016E+03 -6.04049E+02  4.06260E+03
 -2.32166E+03  2.10265E+03 -3.32018E+03  6.31836E+02 -3.21872E+03 -1.03578E+03 -7.29284E+02 -1.54793E+03
  1.71016E+02 -2.08184E+03  1.32461E+03 -9.31518E+02  1.05899E+03  1.55234E+03 -7.23957E+02  1.42379E+03
 -2.27245E+03  1.13533E+03 -2.04830E+03 -1.71819E+03 -9.44211E+02 -3.21544E+03  1.11459E+02 -2.22966E+03
  7.93148E+02 -1.13985E+03  1.77866E+03  1.65303E+02  1.73312E+03  2.91910E+02  5.50670E+02  1.83394E+03
 -3.25961E+02  2.90881E+01 -1.46003E+03 -6.90257E+02  9.19900E+02 -1.78670E+03  2.58154E+03 -1.65325E+03
  2.41775E+03  3.99077E+02  3.92088E+03  1.64499E+03  1.34037E+03  2.69431E+03 -7.68799E+02  2.83068E+03
 -2.14965E+03  8.48996E+02 -2.04572E+03 -3.55578E+02 -1.33637E+03 -1.96050E+03  7.52794E+02 -1.18487E+03
  1.73884E+03 -8.38261E+02  1.39084E+03  1.12168E+03  4.37731E+02  1.70757E+03  2.63201E+02  1.55235E+03
 -6.05648E+02  1.52917E+03 -6.78041E+02  1.97671E+02 -1.11294E+02  4.08211E+02 -5.10619E+02  9.34439E+02
 -7.26256E+02  1.38697E+03 -2.46707E+03  5.48959E+02 -2.82786E+03  7.61056E+01 -3.70789E+03 -2.18548E+03
 -1.91703E+03 -3.64769E+03  8.16791E+02 -4.61941E+03  1.94673E+03 -3.78584E+03  4.25355E+03 -1.47769E+03
  3.84955E+03  1.57244E+02  2.43852E+03  2.20926E+03 -4.25312E+02  2.59663E+03 -1.41927E+03  1.86415E+03
 -1.57372E+03  1.28437E+03 -8.27906E+02 -1.33867E+02 -5.21977E+02  6.96080E+01 -5.29102E+02  6.02284E+01
 -8.40311E+02 -5.51327E+01 -9.49181E+02 -6.56732E+01  1.52614E+02 -7.14416E+02 -3.53877E+02 -1.35924E+03
  1.70700E+03 -1.12701E+03  1.17170E+03  1.64360E+02  1.95727E+03  1.71984E+03  8.06840E+01  2.16018E+03
 -1.30876E+03  3.54020E+03 -2.88474E+03  1.79720E+03 -2.86834E+03 -3.75862E+02 -2.09228E+03 -1.90489E+03
 -1.39721E+03 -2.46530E+03  5.59205E+02 -2.06730E+03  1.11325E+03 -1.45834E+03  1.48830E+03  2.24622E+02
  1.06921E+03  4.02106E+02 -1.60871E+02  5.36632E+02 -4.94916E+02 -8.79500E+01 -3.02799E+01 -6.04146E+02
  6.99494E+02 -1.54944E+02  5.58926E+02  3.68235E+02  4.02760E+02  7.96302E+02  4.50688E+02  8.49688E+02
 -9.67632E+02  8.44758E+02 -1.39584E+03  4.30360E+02 -1.24159E+03 -1.02377E+03 -4.76031E+01 -1.75636E+03
  1.20740E+03 -1.33659E+03  1.31971E+03 -1.83886E+02  1.72641E+03 -4.05057E+02  9.23544E+02  1.41861E+03
  6.38941E+02  9.71186E+02 -4.39076E+02  1.16928E+03 -9.50498E+02  7.84998E+02 -3.98779E+02  3.93313E+02
 -3.78934E+02 -1.80276E+02 -6.91698E+02  2.63108E+02 -1.19326E+03  4.37979E+01 -1.18258E+03 -1.21181E+02
 -1.10785E+03 -1.83105E+02 -4.73433E+02 -1.40920E+03  9.02200E+02 -2.05092E+03  1.45986E+03 -5.41555E+02
  1.66600E+03  1.82261E+02  2.07458E+01  9.31547E+02 -3.84100E+02  1.45013E+03 -1.04167E+03  9.57148E+02
