 $NMID ID='MM_0lb_SNR800_7hz_g60_65.RAW', FMTDAT='(8E13.5)'
 TRAMP=1., VOLUME=1. $END
  3.09622E+05  6.10061E+02  3.38186E+05  2.50737E+05  8.56675E+04  3.38684E+05 -1.32941E+05  2.52062E+05
 -1.91205E+05  8.41671E+04 -1.12771E+05 -3.20823E+04 -3.69609E+02 -5.07229E+04  5.34980E+04 -5.43134E+02
  3.54090E+04  5.29280E+04 -1.65163E+04  7.59019E+04 -6.15320E+04  6.51618E+04 -8.57581E+04  3.30265E+04
 -8.30890E+04 -1.13350E+04 -5.89719E+04 -5.34100E+04 -1.50884E+04 -7.19957E+04  2.87452E+04 -4.73472E+04
  4.14844E+04  3.67757E+03  1.70523E+04  4.88660E+04 -3.51880E+04  4.81742E+04 -6.86373E+04  2.69855E+02
 -5.57242E+04 -5.81374E+04 -7.56441E+03 -7.99953E+04  3.51886E+04 -5.83385E+04  5.07112E+04 -1.89283E+04
  4.63697E+04  1.10981E+04  3.37255E+04  2.73959E+04  1.58709E+04  3.14367E+04 -6.07494E+03  2.79689E+04
 -2.29504E+04  1.17641E+04 -1.78352E+04 -5.90013E+03  7.76903E+03 -7.69216E+03  2.41083E+04  1.48039E+04
  6.34431E+03  3.88898E+04 -3.51343E+04  3.76566E+04 -6.75628E+04  1.67627E+03 -6.06702E+04 -4.54418E+04
 -1.27077E+04 -6.72566E+04  4.25011E+04 -4.87808E+04  6.26950E+04 -3.31741E+03  3.84501E+04  3.52915E+04
 -4.83545E+03  4.13049E+04 -3.30815E+04  2.03764E+04 -3.49342E+04 -3.02994E+03 -2.12653E+04 -1.22138E+04
 -1.01217E+04 -1.62608E+04 -5.03020E+02 -2.08607E+04  9.48447E+03 -2.36869E+04  1.64050E+04 -1.22452E+04
  1.08958E+04  6.30477E+03 -1.21181E+04  1.30883E+04 -2.43134E+04 -7.81557E+03 -8.47816E+03 -3.95354E+04
  2.61657E+04 -4.90389E+04  5.43399E+04 -2.14678E+04  5.07285E+04  2.13619E+04  1.84289E+04  4.90530E+04
 -1.71234E+04  3.76224E+04 -2.90237E+04  3.44159E+03 -1.28960E+04 -3.07970E+04  2.18697E+04 -3.89378E+04
  4.69163E+04 -1.21582E+04  4.32022E+04  2.52988E+04  2.33593E+04  5.39332E+04 -7.97303E+03  5.97023E+04
 -3.74611E+04  4.04276E+04 -5.11012E+04  1.21588E+04 -5.08114E+04 -1.97121E+04 -2.73431E+04 -4.44672E+04
  8.12674E+03 -4.47742E+04  3.58797E+04 -1.88992E+04  3.38123E+04  1.13827E+04  5.88879E+03  2.23056E+04
 -1.43645E+04  1.08595E+04 -1.17441E+04 -7.43759E+03  5.70599E+03 -1.19426E+04  1.88937E+04  5.34217E+03
  1.55456E+04  2.25813E+04 -5.05089E+03  2.90229E+04 -2.42497E+04  1.55304E+04 -3.40917E+04 -2.10910E+03
 -2.86746E+04 -1.90011E+04 -1.36436E+04 -2.78974E+04  4.54792E+03 -2.93615E+04  2.24413E+04 -2.56808E+04
  3.58290E+04 -1.47257E+04  4.08479E+04  6.31002E+03  2.89617E+04  2.79517E+04  4.63265E+03  4.48652E+04
 -2.08418E+04  3.59914E+04 -3.19300E+04  1.24378E+04 -2.30950E+04 -9.99330E+03 -5.08792E+03 -1.22657E+04
  2.30223E+02  1.67252E+02 -9.42878E+03  9.23195E+03 -2.25043E+04  5.25638E+03 -2.25122E+04 -1.13054E+04
 -1.30603E+04 -2.59491E+04  6.64090E+03 -3.10015E+04  2.10671E+04 -2.13189E+04  2.56754E+04 -2.07605E+03
  1.68267E+04  1.87639E+04 -1.80501E+03  2.62456E+04 -1.86564E+04  1.53893E+04 -2.70775E+04 -5.53908E+03
 -1.95357E+04 -2.34207E+04 -2.26514E+03 -3.11729E+04  1.43121E+04 -2.62150E+04  2.58823E+04 -1.38921E+04
  2.45866E+04 -5.72963E+02  1.77667E+04  5.61596E+03  1.02409E+04  1.58495E+03  1.37862E+04 -2.01599E+03
  2.49178E+04  2.69237E+03  2.94562E+04  2.00520E+04  2.02027E+04  4.23309E+04 -2.59970E+03  5.04544E+04
 -2.85401E+04  4.30547E+04 -4.83091E+04  2.23234E+04 -5.18134E+04 -3.93310E+03 -4.18930E+04 -3.07277E+04
 -1.67036E+04 -4.34792E+04  1.56587E+04 -3.77543E+04  3.19832E+04 -1.70649E+04  2.73996E+04  8.79935E+03
  8.50322E+03  2.17428E+04 -1.33669E+04  1.80344E+04 -2.24545E+04  2.35222E+03 -1.67582E+04 -1.44155E+04
 -3.16596E+02 -2.21285E+04  1.23278E+04 -1.62804E+04  1.51511E+04 -1.31624E+03  4.37116E+03  1.05928E+04
 -9.42195E+03  5.02584E+03 -1.16115E+04 -8.01733E+03 -3.04914E+03 -2.09659E+04  1.33745E+04 -2.33432E+04
  2.70196E+04 -1.39286E+04  3.15714E+04  3.43464E+03  2.78723E+04  2.16186E+04  1.26545E+04  3.51685E+04
 -7.19965E+03  3.68286E+04 -2.45605E+04  2.29520E+04 -2.72004E+04  4.78416E+03 -1.78831E+04 -7.34775E+03
 -7.67063E+03 -8.87425E+03 -8.39218E+02 -1.17336E+02 -3.47744E+03  3.93731E+03 -8.71274E+03  5.81839E+03
 -1.67131E+04 -1.19090E+03 -1.73145E+04 -1.36871E+04 -6.71353E+03 -2.24184E+04  7.67123E+03 -1.86291E+04
  1.56333E+04 -7.78641E+03  1.04290E+04  5.02570E+03 -7.00843E+02  7.26808E+03 -1.01298E+04 -1.64678E+02
 -9.74501E+03 -1.21528E+04 -9.05392E+02 -1.84028E+04  1.13323E+04 -1.97526E+04  2.45190E+04 -1.10456E+04
  2.80641E+04  3.20195E+03  2.04242E+04  1.74744E+04  3.74235E+03  2.28716E+04 -1.13002E+04  1.87501E+04
 -1.55753E+04  5.03908E+03 -7.92824E+03 -3.76108E+03  2.73553E+03 -5.70096E+03  9.55140E+03 -7.13255E+02
  8.79587E+03  8.42876E+03  1.10702E+03  1.56714E+04 -1.10596E+04  1.41657E+04 -1.91765E+04  3.43127E+03
 -1.32341E+04 -1.02502E+04  4.26282E+02 -1.62172E+04  1.09676E+04 -8.00088E+03  1.22098E+04  5.03344E+03
  3.32987E+03  1.29641E+04 -1.00179E+04  1.43002E+04 -1.70662E+04  6.78694E+03 -1.82144E+04 -6.63849E+03
 -9.97365E+03 -1.99596E+04  4.82204E+03 -2.34165E+04  1.94257E+04 -1.28205E+04  2.18790E+04  4.22185E+03
  1.30090E+04  1.70304E+04 -2.59969E+03  1.91986E+04 -1.49662E+04  1.05957E+04 -1.61045E+04 -2.17487E+03
 -1.24217E+04 -1.29760E+04 -1.81975E+03 -1.47871E+04  8.13968E+03 -1.22885E+04  9.83804E+03 -4.11792E+03
  5.40983E+03  2.97090E+03 -1.93582E+03  2.05235E+03 -1.54241E+03 -4.81977E+03  4.18331E+03 -1.02901E+04
  1.40457E+04 -6.75486E+03  2.10528E+04  2.41456E+03  1.99898E+04  1.46676E+04  1.23241E+04  2.70319E+04
 -7.02552E+03  3.02108E+04 -2.57221E+04  2.26381E+04 -3.26484E+04  4.28022E+03 -2.68568E+04 -1.16877E+04
 -1.33532E+04 -2.18427E+04 -3.95071E+02 -1.89192E+04  7.04556E+03 -1.11429E+04  6.63069E+03 -6.51429E+03
  5.14435E+03 -4.02246E+03  4.73518E+03 -4.63759E+03  6.96445E+03 -4.65206E+03  9.62254E+03 -1.95705E+03
  1.39056E+04  3.35663E+03  8.25534E+03  1.20420E+04 -2.76800E+03  1.56624E+04 -1.51336E+04  1.13924E+04
 -1.93729E+04 -1.75236E+03 -1.30927E+04 -1.35760E+04 -1.91785E+03 -2.12505E+04  1.11035E+04 -2.11147E+04
  2.17057E+04 -1.12027E+04  2.56154E+04  4.32788E+03  1.77059E+04  1.88610E+04  2.86050E+03  2.31292E+04
 -9.69494E+03  1.81807E+04 -1.37936E+04  6.31954E+03 -9.28093E+03 -2.30672E+03 -4.44990E+03 -3.00165E+03
 -1.82697E+03 -6.39770E+02 -2.83306E+03  3.82386E+03 -8.15445E+03  2.98148E+03 -1.30863E+04 -1.94903E+03
 -1.00658E+04 -1.29485E+04 -1.78249E+02 -1.92076E+04  1.19348E+04 -1.83441E+04  2.06300E+04 -5.65318E+03
  1.97993E+04  9.43962E+03  9.45474E+03  1.86984E+04 -4.20739E+03  2.01345E+04 -1.41916E+04  1.29683E+04
 -1.87874E+04  2.23451E+02 -1.43574E+04 -1.20201E+04 -1.65214E+03 -1.70709E+04  9.12409E+03 -1.25649E+04
  1.27635E+04 -3.97532E+03  8.50736E+03  3.65783E+03  3.63023E+03  6.01326E+03  2.35034E+03  2.96756E+03
  3.54993E+03  1.73652E+03  4.30972E+03  2.58801E+03  6.50543E+03  7.26175E+03  4.96935E+03  1.15417E+04
 -3.87983E+03  1.69579E+04 -1.44471E+04  1.59558E+04 -2.13599E+04  3.94335E+03 -2.18970E+04 -9.19896E+03
 -1.09677E+04 -2.13754E+04  2.85788E+03 -2.23343E+04  1.29351E+04 -1.43979E+04  1.73288E+04 -3.00727E+03
  1.34592E+04  8.09857E+03  3.28298E+03  1.20404E+04 -5.92828E+03  7.65617E+03 -9.10166E+03 -1.21610E+03
 -4.31695E+03 -8.92028E+03  5.08581E+03 -9.08383E+03  8.91335E+03 -4.55592E+03  8.38204E+03  2.05668E+03
  4.95567E+03  4.54782E+03  2.01088E+03  4.00152E+03 -5.15398E+02  2.56630E+03  1.79586E+03 -5.76869E+02
  3.87796E+03 -1.33955E+03  8.47748E+03  2.72684E+03  5.32506E+03  1.16075E+04 -1.70165E+03  1.47591E+04
 -9.98081E+03  1.04448E+04 -1.40110E+04  2.49362E+03 -1.20640E+04 -5.02779E+03 -5.53516E+03 -8.64082E+03
  1.14739E+03 -8.17161E+03  5.54861E+03 -3.90837E+03  4.53428E+03  4.36056E+03 -1.75887E+03  7.68189E+03
 -8.73340E+03  4.75938E+03 -9.77438E+03 -4.52847E+03 -6.29236E+03 -1.14574E+04  2.16322E+03 -1.23674E+04
  7.66934E+03 -7.42074E+03  9.56166E+03 -6.13921E+02  7.13703E+03  3.78053E+03  1.07872E+03  6.57163E+03
 -4.40695E+03  1.94260E+03 -5.53820E+03 -4.37284E+03  1.80508E+03 -9.49545E+03  1.10644E+04 -7.60104E+03
  1.42954E+04  8.22023E+02  1.34693E+04  9.50915E+03  4.20520E+03  1.48373E+04 -5.74492E+03  1.36615E+04
 -1.20143E+04  6.40492E+03 -1.27570E+04 -2.60009E+03 -6.92426E+03 -9.25771E+03  2.22793E+03 -9.50224E+03
  9.65105E+03 -4.29365E+03  7.99619E+03  4.10413E+03  2.42300E+03  8.11826E+03 -1.70103E+03  6.83934E+03
 -4.10513E+03  4.26584E+03 -3.42505E+03  1.95051E+03 -1.91354E+03  1.41791E+03 -1.89168E+03  2.50382E+03
 -3.89005E+03  5.84402E+03 -9.39395E+03  5.19066E+03 -1.47986E+04  4.71921E+02 -1.66293E+04 -1.00677E+04
 -8.69929E+03 -1.97919E+04  4.04284E+03 -2.28665E+04  1.46445E+04 -1.74425E+04  2.16933E+04 -6.58164E+03
  1.99268E+04  4.60242E+03  1.28853E+04  1.38891E+04  1.45638E+03  1.62166E+04 -6.57480E+03  1.19188E+04
 -8.80004E+03  4.43141E+03 -5.72620E+03 -1.98410E+03 -1.14988E+03 -1.67335E+03 -9.29405E+02 -3.69196E+02
 -2.53571E+03  3.35092E+02 -3.10607E+03 -3.49138E+02 -1.80751E+03 -3.36702E+03  7.21784E+02 -5.59966E+03
  6.98235E+03 -5.54186E+03  1.05665E+04 -3.48439E+02  1.13097E+04  8.31393E+03  3.44838E+03  1.63232E+04
 -7.65169E+03  1.80635E+04 -1.71255E+04  1.04335E+04 -1.98209E+04 -1.36542E+03 -1.45763E+04 -1.21093E+04
 -5.99903E+03 -1.69108E+04  4.53798E+03 -1.57347E+04  1.12793E+04 -8.46260E+03  1.10052E+04  1.91997E+02
  5.34949E+03  5.45906E+03 -5.53751E+02  4.55945E+03 -3.12221E+03 -7.12415E+02  1.89588E+02 -3.78788E+03
  4.79426E+03 -2.44075E+03  7.04307E+03  2.06958E+03  4.71831E+03  6.66370E+03 -4.16709E+01  8.88671E+03
 -7.49242E+03  7.36291E+03 -1.11641E+04  3.61541E+02 -1.02316E+04 -8.02926E+03 -1.47689E+03 -1.40313E+04
  8.01825E+03 -1.19158E+04  1.28911E+04 -3.66147E+03  1.32514E+04  3.70611E+03  7.69264E+03  1.02405E+04
  1.62883E+03  1.14880E+04 -4.28884E+03  8.76066E+03 -6.52746E+03  4.82998E+03 -5.80856E+03  7.34090E+01
 -3.42256E+03 -4.00308E+02 -2.57118E+03  1.71555E+03 -5.31192E+03  1.89003E+03 -8.73848E+03 -1.46536E+03
 -8.22046E+03 -6.68835E+03 -2.60411E+03 -1.11382E+04  4.83601E+03 -1.14771E+04  1.02755E+04 -5.66533E+03
  1.10470E+04  1.50918E+03  7.03113E+03  8.87390E+03 -6.25239E+02  1.16745E+04 -8.81137E+03  7.71038E+03
