 $NMID ID='MM_0lb_SNR800_15hz_g55_80.RAW', FMTDAT='(8E13.5)'
 TRAMP=1., VOLUME=1. $END
  3.09553E+05  3.54657E+02  3.37569E+05  2.50717E+05  8.48855E+04  3.37890E+05 -1.32678E+05  2.50697E+05
 -1.90097E+05  8.30691E+04 -1.11994E+05 -3.28779E+04  1.04985E+03 -5.06147E+04  5.37029E+04 -2.44457E+02
  3.49730E+04  5.28697E+04 -1.70092E+04  7.56379E+04 -6.10386E+04  6.33560E+04 -8.44198E+04  3.19924E+04
 -8.12665E+04 -1.17803E+04 -5.74864E+04 -5.11164E+04 -1.48663E+04 -6.96328E+04  2.74868E+04 -4.58388E+04
  3.99847E+04  3.51344E+03  1.61153E+04  4.81474E+04 -3.45933E+04  4.71870E+04 -6.69800E+04 -3.19745E+02
 -5.36472E+04 -5.67441E+04 -6.76114E+03 -7.69724E+04  3.38921E+04 -5.50573E+04  4.79708E+04 -1.72859E+04
  4.30110E+04  1.14343E+04  3.17398E+04  2.54340E+04  1.60901E+04  2.96640E+04 -5.08830E+03  2.71043E+04
 -2.21664E+04  1.22630E+04 -1.84288E+04 -5.12060E+03  5.57823E+03 -7.67674E+03  2.22209E+04  1.23820E+04
  7.05747E+03  3.52250E+04 -3.22556E+04  3.55768E+04 -6.32742E+04  2.51094E+03 -5.70461E+04 -4.25130E+04
 -1.24515E+04 -6.32170E+04  3.99684E+04 -4.55735E+04  5.84912E+04 -2.18210E+03  3.39651E+04  3.25056E+04
 -5.95739E+03  3.62069E+04 -3.00664E+04  1.59176E+04 -3.04487E+04 -4.24454E+03 -1.66669E+04 -1.09591E+04
 -8.16080E+03 -1.31729E+04 -5.32397E+02 -1.82201E+04  7.45205E+03 -2.28796E+04  1.52331E+04 -1.31256E+04
  1.15686E+04  5.35926E+03 -8.30355E+03  1.29570E+04 -2.12608E+04 -4.37392E+03 -8.35790E+03 -3.38473E+04
  2.29565E+04 -4.36291E+04  4.80525E+04 -1.97162E+04  4.51284E+04  1.92278E+04  1.59870E+04  4.41654E+04
 -1.56287E+04  3.35870E+04 -2.53827E+04  1.74708E+03 -9.94362E+03 -2.80304E+04  2.08327E+04 -3.39863E+04
  4.11943E+04 -8.97758E+03  3.59653E+04  2.37350E+04  1.79809E+04  4.62660E+04 -7.96174E+03  4.99979E+04
 -3.17953E+04  3.37310E+04 -4.18001E+04  9.75009E+03 -4.24403E+04 -1.63989E+04 -2.34422E+04 -3.80226E+04
  7.48306E+03 -3.78206E+04  3.15244E+04 -1.46135E+04  2.95256E+04  1.08579E+04  4.10751E+03  1.92549E+04
 -1.34238E+04  8.50580E+03 -1.05332E+04 -7.55357E+03  5.85183E+03 -1.07247E+04  1.81228E+04  6.08264E+03
  1.33020E+04  2.22866E+04 -5.93215E+03  2.51236E+04 -2.23193E+04  1.17072E+04 -2.80340E+04 -4.96013E+03
 -2.05028E+04 -1.74294E+04 -8.21764E+03 -2.02857E+04  3.89615E+03 -1.97537E+04  1.57622E+04 -1.82141E+04
  2.58742E+04 -1.29131E+04  3.21550E+04  2.76481E+03  2.35168E+04  1.98782E+04  4.18779E+03  3.61025E+04
 -1.77969E+04  3.02719E+04 -2.78659E+04  1.05451E+04 -2.05843E+04 -1.01197E+04 -4.26092E+03 -1.35536E+04
  1.97672E+03 -2.76271E+03 -4.76211E+03  6.73379E+03 -1.61472E+04  5.17920E+03 -1.64700E+04 -6.88194E+03
 -9.97875E+03 -1.90908E+04  5.06307E+03 -2.27584E+04  1.50796E+04 -1.62214E+04  1.79944E+04 -1.44887E+03
  1.12662E+04  1.32440E+04 -1.39107E+03  1.89227E+04 -1.29825E+04  1.06493E+04 -1.89885E+04 -3.77382E+03
 -1.37657E+04 -1.68196E+04 -1.92671E+03 -2.30091E+04  1.04943E+04 -1.88691E+04  1.88901E+04 -9.13571E+03
  1.77175E+04  4.55482E+02  1.27760E+04  4.50334E+03  6.57443E+03  8.32044E+02  9.26401E+03 -1.67597E+03
  1.73738E+04  3.05975E+03  1.89753E+04  1.48022E+04  1.24350E+04  2.99348E+04 -2.74524E+03  3.39884E+04
 -1.94659E+04  2.68370E+04 -3.13270E+04  1.33667E+04 -3.29928E+04 -2.02785E+03 -2.72311E+04 -1.87139E+04
 -1.18399E+04 -2.70539E+04  9.10112E+03 -2.42822E+04  2.12020E+04 -1.26127E+04  1.92863E+04  5.29600E+03
  7.12631E+03  1.39206E+04 -9.02754E+03  1.26065E+04 -1.63291E+04  2.62391E+03 -1.24161E+04 -1.01040E+04
 -1.43092E+02 -1.51323E+04  8.03004E+03 -1.13279E+04  1.00952E+04 -1.34455E+03  2.31161E+03  6.43463E+03
 -6.66568E+03  2.37053E+03 -5.74346E+03 -5.60625E+03 -3.04882E+02 -1.33181E+04  9.32003E+03 -1.38214E+04
  1.61089E+04 -7.36678E+03  1.74046E+04  3.25364E+03  1.51231E+04  1.31911E+04  7.35630E+03  1.97870E+04
 -2.77090E+03  2.15536E+04 -1.33793E+04  1.39235E+04 -1.59345E+04  2.93707E+03 -1.10187E+04 -3.54655E+03
 -5.07616E+03 -4.87241E+03 -7.43627E+02  1.10206E+03 -2.16096E+03  2.65245E+03 -4.83525E+03  4.32162E+03
 -1.05087E+04 -6.57330E+02 -1.08964E+04 -8.68379E+03 -4.29510E+03 -1.41858E+04  4.53270E+03 -1.11385E+04
  9.52948E+03 -5.01504E+03  6.71686E+03  2.95611E+03  4.14300E+02  4.30996E+03 -4.79413E+03  4.06824E+01
 -5.01275E+03 -6.94329E+03 -9.93994E+02 -1.02616E+04  5.67481E+03 -1.06075E+04  1.35749E+04 -5.70858E+03
  1.59518E+04  1.21580E+03  1.16930E+04  9.08159E+03  2.11972E+03  1.24140E+04 -6.89753E+03  1.08251E+04
 -8.95710E+03  3.26610E+03 -4.98075E+03 -1.73789E+03  1.65914E+03 -2.85505E+03  5.76669E+03 -9.85874E+02
  5.49129E+03  4.87047E+03  1.16888E+03  8.67045E+03 -5.90796E+03  8.46363E+03 -1.06118E+04  2.34779E+03
 -7.11846E+03 -5.55460E+03  1.79387E+02 -9.06207E+03  5.35656E+03 -4.76852E+03  5.59075E+03  1.49118E+03
  1.17604E+03  5.38903E+03 -5.49741E+03  6.93389E+03 -8.15819E+03  3.54968E+03 -7.79551E+03 -2.47688E+03
 -4.56534E+03 -9.33389E+03  2.27408E+03 -1.07521E+04  9.05707E+03 -6.53001E+03  9.84642E+03  1.81097E+03
  6.41233E+03  7.75058E+03 -1.98442E+02  9.89479E+03 -6.93356E+03  5.55131E+03 -7.85398E+03 -7.95785E+02
 -7.70219E+03 -7.15301E+03 -1.54324E+03 -7.54899E+03  3.94750E+03 -6.49419E+03  4.57175E+03 -3.21690E+03
  3.83190E+03  6.98874E+02 -3.47818E+02  1.34386E+03 -4.47767E+01 -1.27145E+03  8.83651E+02 -3.65968E+03
  6.24666E+03 -2.26750E+03  8.69824E+03  1.10575E+03  8.93415E+03  5.55121E+03  6.94835E+03  1.16995E+04
 -2.33577E+03  1.35406E+04 -1.14338E+04  9.80601E+03 -1.48413E+04  1.81987E+03 -1.16694E+04 -4.54643E+03
 -6.21996E+03 -9.95101E+03 -4.67469E+02 -8.27475E+03  3.25343E+03 -3.89770E+03  2.58654E+03 -3.24240E+03
  1.98676E+03 -2.07310E+03  2.69239E+03 -2.91575E+03  4.36950E+03 -2.30703E+03  4.82824E+03 -6.60600E+02
  6.28285E+03  1.54993E+03  2.60487E+03  5.11957E+03 -1.94616E+03  5.21048E+03 -6.90035E+03  4.46486E+03
 -7.76437E+03 -1.03362E+03 -4.00581E+03 -5.35146E+03  8.39588E+01 -8.52159E+03  4.71383E+03 -8.86785E+03
  8.16987E+03 -4.76786E+03  1.07576E+04  1.43780E+03  7.54989E+03  7.20548E+03  1.38401E+03  9.60434E+03
 -3.87121E+03  8.42622E+03 -5.31488E+03  2.88756E+03 -3.39093E+03 -1.23640E+03 -1.16988E+03 -1.18544E+03
 -5.83939E+02  1.90298E+02 -1.41783E+03  2.05647E+03 -3.49266E+03  1.32358E+03 -5.75445E+03 -4.41972E+02
 -3.39649E+03 -5.86279E+03  5.59387E+02 -7.43877E+03  4.49549E+03 -7.02643E+03  6.88443E+03 -2.18639E+03
  7.09918E+03  3.55166E+03  3.08981E+03  6.04782E+03 -1.41221E+03  7.68412E+03 -4.91330E+03  4.48321E+03
 -6.48608E+03  3.56921E+02 -5.37167E+03 -4.35360E+03 -3.22396E+02 -5.62072E+03  3.16428E+03 -4.36622E+03
  4.37562E+03 -1.65263E+03  3.05757E+03  1.02703E+03  1.15245E+03  2.32085E+03  8.94930E+02  1.09183E+03
  2.01464E+03  6.61118E+02  2.09535E+03  1.16430E+03  2.17378E+03  3.00995E+03  2.06188E+03  3.20282E+03
 -1.90540E+03  5.44668E+03 -4.59039E+03  6.35373E+03 -6.25946E+03  1.75316E+03 -7.33945E+03 -1.96169E+03
 -3.09857E+03 -6.73549E+03  1.09687E+03 -7.67518E+03  3.73431E+03 -5.11204E+03  5.58215E+03 -1.29098E+03
  4.29622E+03  2.77180E+03  8.31219E+02  3.94357E+03 -1.45341E+03  2.54374E+03 -2.54540E+03 -5.32349E+02
 -1.17261E+03 -2.56044E+03  1.79816E+03 -2.91427E+03  3.02290E+03 -1.53629E+03  2.60626E+03  5.29388E+02
  1.40142E+03  1.42803E+03  1.03757E+03  5.78958E+02 -4.28943E+02  9.07670E+02  1.69836E+03 -4.48460E+02
  4.09062E+02 -4.38809E+02  2.75793E+03  1.01806E+03  1.07682E+03  3.93757E+03 -7.99571E+02  4.66625E+03
 -3.13825E+03  2.69838E+03 -3.87106E+03  6.96944E+02 -3.52425E+03 -1.25746E+03 -7.11499E+02 -2.63871E+03
  7.28910E+02 -2.31800E+03  1.43834E+03 -1.09578E+03  1.63747E+03  1.86652E+03 -1.07820E+03  1.99111E+03
 -2.45614E+03  1.30659E+03 -2.42112E+03 -1.91444E+03 -1.35021E+03 -3.45200E+03  2.79719E+02 -3.19373E+03
  1.40635E+03 -1.24647E+03  1.94022E+03 -3.63967E+02  2.30284E+03  4.08725E+02  1.03338E+02  1.58670E+03
 -9.66554E+02  2.33102E+02 -1.54674E+03 -1.23235E+03  6.22834E+02 -2.13348E+03  2.94219E+03 -1.87811E+03
  2.99972E+03  7.06158E+02  4.34551E+03  2.02491E+03  1.58661E+03  3.24671E+03 -9.94384E+02  3.61120E+03
 -2.82665E+03  1.09501E+03 -2.94896E+03 -5.51461E+02 -1.64698E+03 -2.39660E+03  7.01883E+02 -1.79227E+03
  2.62319E+03 -9.32686E+02  1.73097E+03  1.35494E+03  6.37887E+02  2.19915E+03  6.32960E+01  1.96707E+03
 -9.91517E+02  1.60992E+03 -1.09787E+03  5.80188E+02 -4.00628E+02  2.51512E+02 -8.44459E+02  7.98639E+02
 -1.15385E+03  1.74831E+03 -2.82984E+03  8.79453E+02 -3.66843E+03  2.01278E+02 -4.18504E+03 -2.00851E+03
 -1.92073E+03 -4.77867E+03  1.10314E+03 -5.23510E+03  2.91259E+03 -4.37034E+03  5.29021E+03 -1.89909E+03
  4.38708E+03  3.26068E+02  2.70042E+03  3.19342E+03 -2.42265E+02  3.30258E+03 -1.20081E+03  2.70692E+03
 -1.88690E+03  9.13508E+02 -1.17756E+03 -3.88332E+02 -6.17399E+02 -3.23201E+02 -7.26715E+02  1.02581E+02
 -1.18849E+03 -1.41549E+01 -1.11071E+03  2.69473E+01 -9.82948E+00 -9.59448E+02 -6.63336E+02 -1.35072E+03
  1.81858E+03 -1.44699E+03  1.38536E+03  1.73521E+02  2.59612E+03  1.89667E+03 -4.43029E+01  3.35288E+03
 -1.88161E+03  4.41695E+03 -3.66130E+03  2.47915E+03 -3.96080E+03 -5.01718E+02 -2.70731E+03 -2.62511E+03
 -1.86414E+03 -2.89203E+03  9.09712E+02 -3.31354E+03  1.93732E+03 -1.69562E+03  1.67755E+03  2.52505E+02
  1.15572E+03  1.09415E+03 -3.23004E+01  7.90705E+02 -5.60163E+02 -2.42565E+02 -4.65782E+01 -5.69155E+02
  9.55757E+02 -2.62859E+02  9.95762E+02  4.19452E+02  7.47360E+02  8.31873E+02  2.93952E+02  1.27199E+03
 -1.53993E+03  1.39173E+03 -1.88401E+03  2.58127E+02 -1.67069E+03 -1.63772E+03  1.07172E+02 -2.29754E+03
  1.55964E+03 -1.91209E+03  1.79375E+03 -3.68437E+02  2.04490E+03 -2.09578E+02  9.50450E+02  1.64577E+03
  5.67911E+02  1.34651E+03 -6.45966E+02  1.62300E+03 -1.26654E+03  8.76858E+02 -1.11068E+03  1.75058E+02
 -3.56382E+02 -2.76924E+02 -8.63925E+02  2.46677E+02 -1.21159E+03  4.46791E+02 -1.67264E+03 -6.10789E+02
 -1.63825E+03 -6.22264E+02 -5.80143E+02 -2.16730E+03  1.31496E+03 -2.80524E+03  1.76063E+03 -6.76210E+02
  1.74129E+03 -1.64186E+02  2.29118E+02  1.49438E+03 -3.09169E+02  1.83565E+03 -1.26033E+03  1.38933E+03
