 $NMID ID='MM_0lb_SNR800_11hz_g60_80.RAW', FMTDAT='(8E13.5)'
 TRAMP=1., VOLUME=1. $END
  3.09811E+05  5.36330E+02  3.37912E+05  2.50548E+05  8.48059E+04  3.38646E+05 -1.32632E+05  2.51993E+05
 -1.90572E+05  8.38239E+04 -1.12381E+05 -3.24427E+04  2.43389E+02 -5.07476E+04  5.38784E+04 -7.25436E+02
  3.58721E+04  5.31262E+04 -1.65200E+04  7.61850E+04 -6.16967E+04  6.42343E+04 -8.50692E+04  3.24980E+04
 -8.20893E+04 -1.19070E+04 -5.82013E+04 -5.21634E+04 -1.52017E+04 -7.10265E+04  2.81904E+04 -4.69115E+04
  4.14127E+04  3.82280E+03  1.67140E+04  4.81981E+04 -3.53016E+04  4.79645E+04 -6.77893E+04  4.53678E+02
 -5.49294E+04 -5.73851E+04 -7.20914E+03 -7.90725E+04  3.46628E+04 -5.65546E+04  4.97159E+04 -1.85077E+04
  4.50800E+04  1.17221E+04  3.30441E+04  2.62670E+04  1.63300E+04  3.07847E+04 -5.55179E+03  2.72853E+04
 -2.25757E+04  1.20104E+04 -1.78078E+04 -5.60014E+03  6.91451E+03 -7.17365E+03  2.33706E+04  1.34277E+04
  7.35390E+03  3.72337E+04 -3.34594E+04  3.71469E+04 -6.56388E+04  2.06171E+03 -5.87250E+04 -4.42873E+04
 -1.23455E+04 -6.55845E+04  4.15359E+04 -4.71700E+04  6.06654E+04 -2.25954E+03  3.63331E+04  3.41755E+04
 -5.38261E+03  3.87911E+04 -3.16469E+04  1.86735E+04 -3.30643E+04 -3.43862E+03 -1.88122E+04 -1.18736E+04
 -9.62049E+03 -1.49198E+04 -8.69881E+02 -1.95044E+04  8.57464E+03 -2.34448E+04  1.55676E+04 -1.29432E+04
  1.08619E+04  5.85689E+03 -1.06211E+04  1.30312E+04 -2.33743E+04 -5.99454E+03 -8.44963E+03 -3.70950E+04
  2.50333E+04 -4.70655E+04  5.15449E+04 -2.07575E+04  4.78285E+04  2.03118E+04  1.71803E+04  4.64766E+04
 -1.63739E+04  3.59387E+04 -2.74154E+04  3.03527E+03 -1.10743E+04 -2.93973E+04  2.13970E+04 -3.65436E+04
  4.41009E+04 -1.07164E+04  3.94467E+04  2.48232E+04  2.11441E+04  5.05120E+04 -8.30278E+03  5.51827E+04
 -3.50897E+04  3.76060E+04 -4.67294E+04  1.07304E+04 -4.69759E+04 -1.82334E+04 -2.56188E+04 -4.16301E+04
  7.91351E+03 -4.15134E+04  3.41869E+04 -1.68733E+04  3.15819E+04  1.14242E+04  5.03166E+03  2.04969E+04
 -1.39050E+04  8.82534E+03 -1.11919E+04 -7.56615E+03  5.60658E+03 -1.12137E+04  1.88569E+04  5.74842E+03
  1.44293E+04  2.25925E+04 -5.29536E+03  2.65143E+04 -2.29382E+04  1.39120E+04 -3.09658E+04 -3.19186E+03
 -2.44113E+04 -1.82339E+04 -1.08190E+04 -2.47753E+04  4.60831E+03 -2.46248E+04  1.93271E+04 -2.21363E+04
  3.09910E+04 -1.41324E+04  3.68953E+04  4.27734E+03  2.68063E+04  2.35922E+04  4.69899E+03  4.07376E+04
 -1.96065E+04  3.31510E+04 -3.00104E+04  1.17285E+04 -2.22087E+04 -1.03128E+04 -4.75365E+03 -1.29986E+04
  5.55020E+02 -1.67250E+03 -6.42440E+03  8.27849E+03 -1.97123E+04  4.77087E+03 -1.97162E+04 -9.19477E+03
 -1.17118E+04 -2.27609E+04  6.16684E+03 -2.70956E+04  1.83126E+04 -1.91407E+04  2.20728E+04 -1.68165E+03
  1.43709E+04  1.56992E+04 -1.32235E+03  2.25524E+04 -1.57927E+04  1.26841E+04 -2.30480E+04 -4.53387E+03
 -1.64525E+04 -2.04493E+04 -2.02149E+03 -2.71728E+04  1.23219E+04 -2.25894E+04  2.26982E+04 -1.15738E+04
  2.14084E+04 -1.43839E+02  1.52780E+04  5.34004E+03  8.65877E+03  1.26858E+03  1.19048E+04 -2.10625E+03
  2.12528E+04  2.94074E+03  2.45043E+04  1.78459E+04  1.62786E+04  3.61975E+04 -2.58262E+03  4.21714E+04
 -2.41063E+04  3.50602E+04 -3.99506E+04  1.78660E+04 -4.26828E+04 -3.08406E+03 -3.45117E+04 -2.47304E+04
 -1.37041E+04 -3.53295E+04  1.22771E+04 -3.14761E+04  2.63225E+04 -1.48388E+04  2.30001E+04  7.42545E+03
  8.00561E+03  1.78708E+04 -1.07263E+04  1.48828E+04 -1.92618E+04  2.52912E+03 -1.47957E+04 -1.23066E+04
 -1.49534E+02 -1.83801E+04  1.00002E+04 -1.37163E+04  1.27700E+04 -1.13312E+03  3.06476E+03  8.39004E+03
 -8.44817E+03  3.65299E+03 -8.29571E+03 -6.63624E+03 -1.39448E+03 -1.67870E+04  1.17227E+04 -1.87985E+04
  2.21152E+04 -1.04166E+04  2.46221E+04  3.16596E+03  2.15046E+04  1.72745E+04  9.91771E+03  2.69950E+04
 -5.19811E+03  2.94449E+04 -1.92436E+04  1.82198E+04 -2.10310E+04  3.54947E+03 -1.45689E+04 -5.19019E+03
 -6.18405E+03 -6.71144E+03 -5.91369E+02  3.59806E+02 -2.99458E+03  3.23623E+03 -7.01035E+03  5.07444E+03
 -1.32870E+04 -7.96388E+02 -1.40612E+04 -1.07428E+04 -5.69976E+03 -1.86748E+04  5.69371E+03 -1.48242E+04
  1.19235E+04 -6.32030E+03  8.25992E+03  4.22272E+03 -3.15297E+02  5.73367E+03 -7.48848E+03  5.47553E+01
 -6.59069E+03 -9.57968E+03 -1.38074E+03 -1.41901E+04  8.05507E+03 -1.55573E+04  1.87388E+04 -8.27835E+03
  2.18021E+04  2.48243E+03  1.60175E+04  1.31104E+04  2.71088E+03  1.70948E+04 -8.97967E+03  1.42669E+04
 -1.16937E+04  4.16045E+03 -6.16954E+03 -3.15073E+03  2.34516E+03 -3.79721E+03  7.68861E+03 -1.01498E+03
  7.26591E+03  6.45190E+03  1.08260E+03  1.17979E+04 -8.49496E+03  1.14179E+04 -1.40276E+04  2.87814E+03
 -1.00112E+04 -7.50899E+03  4.64225E+02 -1.25861E+04  8.05309E+03 -6.37315E+03  8.49061E+03  2.66635E+03
  1.72274E+03  9.04388E+03 -7.59796E+03  1.06257E+04 -1.21192E+04  4.74805E+03 -1.26096E+04 -4.44997E+03
 -7.45337E+03 -1.41448E+04  3.69910E+03 -1.65380E+04  1.36762E+04 -9.76477E+03  1.56243E+04  2.46437E+03
  9.02305E+03  1.21494E+04 -1.54808E+03  1.47097E+04 -1.03254E+04  7.90998E+03 -1.18492E+04 -9.91478E+02
 -1.01597E+04 -9.39806E+03 -1.71156E+03 -1.07409E+04  5.86210E+03 -8.70094E+03  7.08952E+03 -3.38054E+03
  4.44678E+03  1.63831E+03 -1.08864E+03  1.79930E+03 -4.14075E+02 -2.59937E+03  1.85540E+03 -6.57915E+03
  1.03801E+04 -4.24592E+03  1.43622E+04  1.33223E+03  1.38207E+04  9.75374E+03  9.25442E+03  1.85806E+04
 -4.38744E+03  2.13203E+04 -1.76979E+04  1.55824E+04 -2.29493E+04  3.01224E+03 -1.83665E+04 -7.75030E+03
 -9.37481E+03 -1.50684E+04 -4.10651E+02 -1.34049E+04  4.82808E+03 -7.37029E+03  4.52284E+03 -4.48626E+03
  3.12976E+03 -2.69460E+03  3.97626E+03 -3.67464E+03  5.25136E+03 -3.12678E+03  7.24957E+03 -1.01514E+03
  9.93598E+03  2.29022E+03  4.98074E+03  8.33139E+03 -2.14912E+03  9.51188E+03 -1.05299E+04  7.85256E+03
 -1.27317E+04 -1.00554E+03 -8.25878E+03 -9.10990E+03 -1.28201E+03 -1.40178E+04  7.62630E+03 -1.36990E+04
  1.45378E+04 -7.16716E+03  1.69816E+04  2.17278E+03  1.15174E+04  1.18932E+04  1.93491E+03  1.62889E+04
 -6.37293E+03  1.25236E+04 -8.97927E+03  4.29822E+03 -6.17203E+03 -1.64598E+03 -2.47184E+03 -1.66321E+03
 -7.80007E+02 -3.66989E+02 -1.78493E+03  3.00966E+03 -5.39906E+03  2.37862E+03 -9.00590E+03 -1.16127E+03
 -6.47549E+03 -8.97216E+03 -1.81125E+02 -1.24394E+04  8.10454E+03 -1.15009E+04  1.29530E+04 -3.60006E+03
  1.22653E+04  6.09193E+03  5.72559E+03  1.10645E+04 -2.66918E+03  1.29912E+04 -9.17967E+03  7.85581E+03
 -1.19682E+04  4.90792E+02 -9.59916E+03 -7.47168E+03 -6.84962E+02 -1.07179E+04  5.44902E+03 -7.50215E+03
  7.81152E+03 -2.81135E+03  5.37211E+03  1.97534E+03  2.26404E+03  3.47632E+03  1.54265E+03  1.44276E+03
  2.49271E+03  6.71084E+02  2.79264E+03  1.86526E+03  3.44130E+03  4.67753E+03  3.87104E+03  6.28699E+03
 -2.65394E+03  1.00148E+04 -8.78417E+03  1.03110E+04 -1.26672E+04  2.19125E+03 -1.30815E+04 -5.09225E+03
 -6.53619E+03 -1.24889E+04  1.66757E+03 -1.40375E+04  7.88149E+03 -8.73221E+03  1.05559E+04 -2.14991E+03
  8.06195E+03  4.79782E+03  1.61748E+03  7.28502E+03 -3.33841E+03  4.64051E+03 -5.01395E+03 -7.93086E+02
 -2.49060E+03 -4.78913E+03  3.29859E+03 -5.45620E+03  4.94770E+03 -2.77521E+03  4.90867E+03  1.01300E+03
  2.75868E+03  2.23183E+03  1.53138E+03  1.73691E+03 -8.72896E+02  1.66873E+03  1.65347E+03 -1.47726E+02
  1.70065E+03 -3.07223E+02  5.24197E+03  1.70198E+03  2.80755E+03  6.82919E+03 -9.55291E+02  8.90625E+03
 -6.15604E+03  5.45655E+03 -7.88400E+03  1.67677E+03 -7.34564E+03 -2.97534E+03 -2.65736E+03 -4.73771E+03
  7.31518E+02 -4.67741E+03  3.16655E+03 -2.06584E+03  2.70143E+03  2.40635E+03 -1.27116E+03  4.00196E+03
 -5.38673E+03  2.30371E+03 -6.07532E+03 -3.12866E+03 -3.20888E+03 -7.06116E+03  9.10776E+02 -6.58611E+03
  4.02561E+03 -3.85536E+03  4.82359E+03 -3.71450E+02  4.06356E+03  2.04785E+03  4.34988E+02  3.41921E+03
 -2.15093E+03  9.59830E+02 -3.07583E+03 -2.39797E+03  1.29914E+03 -4.97651E+03  6.16233E+03 -4.19725E+03
  7.50789E+03  2.20463E+02  7.77259E+03  4.93477E+03  2.55492E+03  7.99947E+03 -2.51067E+03  7.38968E+03
 -6.39743E+03  3.25986E+03 -6.20449E+03 -9.80499E+02 -3.40036E+03 -5.30076E+03  1.30855E+03 -4.83475E+03
  4.66923E+03 -2.13994E+03  3.72231E+03  2.17778E+03  1.66800E+03  4.45385E+03 -7.28148E+02  3.87729E+03
 -1.83705E+03  2.54450E+03 -1.85734E+03  7.22772E+02 -7.73649E+02  1.18907E+03 -1.13116E+03  1.82897E+03
 -2.10661E+03  3.40809E+03 -5.51613E+03  2.48760E+03 -7.82660E+03  4.35184E+02 -8.61324E+03 -5.15783E+03
 -4.25724E+03 -1.04198E+04  2.35709E+03 -1.23793E+04  6.73093E+03 -9.42533E+03  1.11959E+04 -3.63327E+03
  1.03311E+04  2.11700E+03  6.19422E+03  6.96767E+03  2.54579E+02  8.30018E+03 -3.11364E+03  6.33085E+03
 -4.41774E+03  2.39094E+03 -2.49242E+03 -1.31412E+03 -1.08685E+03 -9.30303E+02 -2.03098E+02  3.04193E+01
 -1.81570E+03  4.04620E+01 -1.50980E+03 -2.29532E+02 -5.61251E+02 -2.16299E+03  5.08893E+02 -2.86801E+03
  4.15472E+03 -2.80518E+03  4.89505E+03  5.81028E+01  5.79784E+03  4.35287E+03  1.00045E+03  7.52356E+03
 -3.89689E+03  9.17808E+03 -8.35035E+03  4.89121E+03 -9.32994E+03 -1.09911E+03 -7.03287E+03 -6.14223E+03
 -3.11441E+03 -7.85544E+03  2.10706E+03 -6.69225E+03  4.71611E+03 -3.93840E+03  5.16043E+03  4.26511E+01
  2.77136E+03  2.22713E+03 -1.59503E+01  2.17797E+03 -1.52945E+03 -2.48168E+02 -1.58715E+02 -1.78063E+03
  2.24838E+03 -1.27036E+03  2.64272E+03  7.53664E+02  1.77407E+03  2.95138E+03  2.21782E+02  3.71266E+03
 -3.39442E+03  3.34425E+03 -5.16368E+03  5.81931E+02 -4.85336E+03 -3.96631E+03 -6.02603E+02 -6.50634E+03
  3.44108E+03 -5.08686E+03  5.45987E+03 -1.47152E+03  5.80156E+03  1.34228E+03  3.09113E+03  4.82352E+03
  6.75136E+02  4.66400E+03 -1.69306E+03  3.80393E+03 -3.39312E+03  2.39897E+03 -2.69377E+03  5.12211E+02
 -1.27373E+03  9.88687E+01 -1.42580E+03  8.99259E+02 -2.38939E+03  2.31575E+02 -3.71086E+03 -5.35029E+02
 -3.92556E+03 -2.59512E+03 -8.96418E+02 -4.92581E+03  2.55224E+03 -5.60450E+03  4.81404E+03 -2.29929E+03
  5.06521E+03  2.16522E+02  2.38709E+03  3.05989E+03 -2.25531E+02  4.83585E+03 -3.48773E+03  3.17430E+03
