 $NMID ID='MM_0lb_SNR800_13hz_g45_28.RAW', FMTDAT='(8E13.5)'
 TRAMP=1., VOLUME=1. $END
  3.09529E+05  4.10558E+02  3.37812E+05  2.50942E+05  8.48873E+04  3.37834E+05 -1.32673E+05  2.51105E+05
 -1.90191E+05  8.31652E+04 -1.11630E+05 -3.27335E+04  6.89996E+02 -5.04932E+04  5.38961E+04  2.04876E+01
  3.53359E+04  5.29474E+04 -1.65660E+04  7.55322E+04 -6.09900E+04  6.37070E+04 -8.44526E+04  3.20173E+04
 -8.09900E+04 -1.10155E+04 -5.70422E+04 -5.13613E+04 -1.50013E+04 -6.97173E+04  2.74659E+04 -4.59738E+04
  4.03441E+04  3.52994E+03  1.62658E+04  4.79566E+04 -3.43043E+04  4.73204E+04 -6.65361E+04 -1.87022E+02
 -5.34708E+04 -5.64321E+04 -7.00405E+03 -7.68855E+04  3.41322E+04 -5.47306E+04  4.79349E+04 -1.71175E+04
  4.34129E+04  1.15458E+04  3.20815E+04  2.55609E+04  1.57289E+04  2.95480E+04 -5.18265E+03  2.70632E+04
 -2.20887E+04  1.23398E+04 -1.86484E+04 -5.13747E+03  6.02032E+03 -7.64749E+03  2.27706E+04  1.25319E+04
  7.54880E+03  3.55459E+04 -3.22274E+04  3.58081E+04 -6.36670E+04  1.88685E+03 -5.73745E+04 -4.28673E+04
 -1.26177E+04 -6.37540E+04  3.99588E+04 -4.57950E+04  5.83882E+04 -2.07896E+03  3.44876E+04  3.23525E+04
 -5.81305E+03  3.64978E+04 -3.01270E+04  1.61530E+04 -3.06330E+04 -4.59623E+03 -1.70404E+04 -1.12429E+04
 -8.08293E+03 -1.36020E+04 -4.38325E+02 -1.84991E+04  7.93893E+03 -2.32263E+04  1.53589E+04 -1.30661E+04
  1.10314E+04  5.11878E+03 -8.32447E+03  1.27829E+04 -2.16023E+04 -4.72771E+03 -8.59639E+03 -3.42085E+04
  2.29224E+04 -4.36306E+04  4.87376E+04 -1.96079E+04  4.54222E+04  1.96181E+04  1.59295E+04  4.42412E+04
 -1.57340E+04  3.38517E+04 -2.55859E+04  1.66218E+03 -9.77214E+03 -2.79827E+04  2.08274E+04 -3.42419E+04
  4.14868E+04 -9.00514E+03  3.59208E+04  2.41308E+04  1.81846E+04  4.70351E+04 -7.81655E+03  5.09761E+04
 -3.23238E+04  3.44056E+04 -4.23623E+04  9.57717E+03 -4.31961E+04 -1.68112E+04 -2.37140E+04 -3.85447E+04
  7.17326E+03 -3.81633E+04  3.14844E+04 -1.48638E+04  2.94693E+04  1.11314E+04  4.14333E+03  1.94346E+04
 -1.36370E+04  8.43188E+03 -1.02230E+04 -7.59249E+03  6.10534E+03 -1.10275E+04  1.80401E+04  5.95038E+03
  1.36530E+04  2.21045E+04 -6.18215E+03  2.54185E+04 -2.25356E+04  1.17914E+04 -2.83158E+04 -4.24986E+03
 -2.12253E+04 -1.72819E+04 -8.93044E+03 -2.09416E+04  3.84135E+03 -2.01913E+04  1.63021E+04 -1.85925E+04
  2.65160E+04 -1.28720E+04  3.31440E+04  3.20640E+03  2.39469E+04  2.03793E+04  4.26982E+03  3.68804E+04
 -1.80167E+04  3.09755E+04 -2.83242E+04  1.07352E+04 -2.08216E+04 -1.04147E+04 -4.32433E+03 -1.36437E+04
  1.89169E+03 -2.55228E+03 -5.36307E+03  6.71489E+03 -1.64273E+04  5.13142E+03 -1.65956E+04 -7.12518E+03
 -1.01270E+04 -1.95391E+04  5.18901E+03 -2.32784E+04  1.58591E+04 -1.70726E+04  1.85902E+04 -1.67919E+03
  1.14261E+04  1.31846E+04 -1.03733E+03  1.95648E+04 -1.32637E+04  1.10039E+04 -1.94759E+04 -4.03058E+03
 -1.43456E+04 -1.75415E+04 -2.04594E+03 -2.31739E+04  1.01673E+04 -1.94208E+04  1.96001E+04 -9.40766E+03
  1.82672E+04  2.54938E+02  1.33153E+04  4.69084E+03  7.13528E+03  9.54845E+02  9.85533E+03 -2.01602E+03
  1.78594E+04  2.85010E+03  1.97767E+04  1.52833E+04  1.30460E+04  3.13576E+04 -3.19484E+03  3.55348E+04
 -2.05032E+04  2.87732E+04 -3.30572E+04  1.42927E+04 -3.46499E+04 -2.46831E+03 -2.86648E+04 -2.00881E+04
 -1.24062E+04 -2.86164E+04  9.89763E+03 -2.55174E+04  2.22490E+04 -1.33163E+04  1.99236E+04  5.81101E+03
  7.30412E+03  1.47778E+04 -8.98316E+03  1.31992E+04 -1.69553E+04  2.39544E+03 -1.31056E+04 -1.02922E+04
  7.38228E+01 -1.58684E+04  7.65161E+03 -1.17775E+04  1.04029E+04 -1.46047E+03  2.32460E+03  6.70998E+03
 -6.86078E+03  2.79147E+03 -6.46489E+03 -5.61717E+03 -1.75365E+02 -1.41185E+04  9.67925E+03 -1.46842E+04
  1.75720E+04 -8.10749E+03  1.88464E+04  2.79240E+03  1.65505E+04  1.40562E+04  7.64394E+03  2.13310E+04
 -3.37040E+03  2.30081E+04 -1.47765E+04  1.45898E+04 -1.64342E+04  3.47998E+03 -1.17239E+04 -3.79372E+03
 -5.07956E+03 -5.13230E+03 -7.40939E+02  1.26736E+03 -2.36974E+03  2.45387E+03 -5.37487E+03  4.30935E+03
 -1.07147E+04 -5.55868E+02 -1.16539E+04 -9.28780E+03 -4.67940E+03 -1.53814E+04  4.66903E+03 -1.16680E+04
  9.83926E+03 -4.93300E+03  7.44969E+03  3.13083E+03  4.15343E+02  4.47851E+03 -5.32799E+03 -5.33832E+02
 -5.25564E+03 -7.50691E+03 -9.45349E+02 -1.10059E+04  6.27706E+03 -1.19166E+04  1.43570E+04 -6.10867E+03
  1.71709E+04  1.43177E+03  1.25643E+04  1.02557E+04  2.44000E+03  1.37865E+04 -7.51565E+03  1.15674E+04
 -9.60129E+03  3.30788E+03 -5.31404E+03 -2.02038E+03  1.81109E+03 -3.49758E+03  6.14440E+03 -1.14927E+03
  5.64028E+03  5.15795E+03  1.38229E+03  8.96676E+03 -6.60305E+03  9.20450E+03 -1.18373E+04  2.39394E+03
 -7.53532E+03 -6.14012E+03  3.19446E+02 -9.95957E+03  6.29354E+03 -4.92773E+03  6.39795E+03  1.94014E+03
  1.28630E+03  6.85184E+03 -5.92772E+03  8.14231E+03 -8.81967E+03  3.35332E+03 -8.97385E+03 -2.76731E+03
 -5.48033E+03 -1.03319E+04  2.41001E+03 -1.23096E+04  1.01819E+04 -7.73473E+03  1.06515E+04  1.54999E+03
  7.08724E+03  8.79354E+03 -6.16512E+02  1.13405E+04 -7.91347E+03  6.61859E+03 -8.46430E+03 -9.89532E+02
 -8.12793E+03 -7.68644E+03 -1.48774E+03 -8.12673E+03  4.39686E+03 -7.02465E+03  4.92726E+03 -3.29961E+03
  3.86194E+03  6.95148E+02 -1.89613E+02  1.72522E+03  3.01683E+01 -1.19560E+03  1.43193E+03 -4.50284E+03
  7.17490E+03 -2.45626E+03  1.02675E+04  1.27767E+03  1.02166E+04  6.60816E+03  7.44023E+03  1.33830E+04
 -2.66084E+03  1.54446E+04 -1.33470E+04  1.12371E+04 -1.74050E+04  1.95144E+03 -1.38044E+04 -5.94121E+03
 -6.96229E+03 -1.12168E+04 -6.93997E+02 -9.37989E+03  3.33877E+03 -4.54264E+03  3.32663E+03 -3.86713E+03
  2.35582E+03 -1.99593E+03  2.90277E+03 -2.97095E+03  4.76491E+03 -2.11551E+03  5.67347E+03 -5.23448E+02
  7.56951E+03  1.53097E+03  3.42453E+03  6.23975E+03 -1.89551E+03  6.68412E+03 -7.62574E+03  5.18549E+03
 -9.26366E+03 -1.10649E+03 -5.09964E+03 -6.35442E+03 -5.87092E+01 -9.89224E+03  5.40445E+03 -9.71265E+03
  1.00778E+04 -5.53249E+03  1.22302E+04  1.08941E+03  8.72752E+03  8.20040E+03  1.74633E+03  1.11602E+04
 -4.58577E+03  9.44910E+03 -6.43515E+03  3.11173E+03 -4.12653E+03 -1.18695E+03 -1.23435E+03 -1.30503E+03
 -9.38017E+02 -4.98388E+01 -1.41587E+03  2.28499E+03 -4.05383E+03  1.59707E+03 -6.50550E+03 -7.67937E+02
 -3.86066E+03 -6.83124E+03  3.61795E+02 -8.83037E+03  5.04567E+03 -8.17658E+03  8.48301E+03 -2.80358E+03
  8.62564E+03  4.67782E+03  3.85459E+03  7.36469E+03 -2.06123E+03  8.84542E+03 -5.71728E+03  5.59786E+03
 -8.53393E+03  6.23772E+02 -6.34670E+03 -5.16329E+03 -9.37561E+02 -6.99515E+03  3.88668E+03 -5.19857E+03
  5.77349E+03 -2.00027E+03  3.91558E+03  1.30929E+03  1.34946E+03  2.79769E+03  1.14235E+03  8.88635E+02
  2.12964E+03  7.75699E+02  2.27474E+03  1.59682E+03  2.44410E+03  3.69794E+03  2.70721E+03  4.17984E+03
 -1.97992E+03  6.66390E+03 -6.02305E+03  7.32736E+03 -8.25988E+03  1.98935E+03 -9.24755E+03 -3.24485E+03
 -4.22659E+03 -8.33558E+03  1.19748E+03 -9.72875E+03  4.82474E+03 -6.07824E+03  6.76871E+03 -1.39653E+03
  5.58378E+03  3.06865E+03  1.55584E+03  4.98244E+03 -2.21985E+03  2.97528E+03 -3.18917E+03 -4.37839E+02
 -1.27314E+03 -3.60688E+03  1.97310E+03 -3.48411E+03  3.38759E+03 -1.93768E+03  3.20129E+03  6.26967E+02
  1.66676E+03  1.26166E+03  8.30573E+02  1.08174E+03 -4.45817E+02  1.01410E+03  1.38708E+03 -4.87386E+02
  1.16541E+03 -6.68014E+02  3.43731E+03  1.53136E+03  1.58781E+03  4.84236E+03 -8.16381E+02  6.00106E+03
 -4.07328E+03  3.57477E+03 -5.00326E+03  7.58857E+02 -4.84357E+03 -1.71631E+03 -1.82888E+03 -2.83644E+03
  5.50026E+02 -3.01279E+03  2.10009E+03 -1.69685E+03  1.35078E+03  1.84586E+03 -1.06096E+03  2.69785E+03
 -3.38987E+03  1.95781E+03 -3.70415E+03 -2.28380E+03 -1.87054E+03 -4.65927E+03  7.35488E+02 -4.25619E+03
  2.34390E+03 -2.03460E+03  2.96236E+03 -2.29004E+02  2.80655E+03  7.81421E+02  2.50452E+02  2.36665E+03
 -1.34698E+03  4.42912E+02 -1.84184E+03 -1.17006E+03  6.35088E+02 -2.80092E+03  4.03062E+03 -2.73809E+03
  4.44115E+03  4.51931E+02  5.18636E+03  3.09996E+03  1.60300E+03  4.89872E+03 -1.53244E+03  4.83449E+03
 -3.86125E+03  1.74561E+03 -4.35596E+03 -4.66898E+02 -2.12031E+03 -3.56121E+03  7.45783E+02 -2.77731E+03
  3.62322E+03 -1.57477E+03  2.45907E+03  1.52102E+03  7.20780E+02  2.87108E+03 -2.35567E+02  2.72189E+03
 -1.33423E+03  2.19667E+03 -1.17150E+03  5.09065E+02 -3.30328E+02  8.33366E+02 -9.66692E+02  1.29426E+03
 -1.25539E+03  2.46755E+03 -3.66515E+03  1.66130E+03 -4.75288E+03  3.43303E+00 -5.89976E+03 -3.34848E+03
 -2.82943E+03 -6.36981E+03  1.63468E+03 -7.47080E+03  4.58100E+03 -5.86428E+03  7.22468E+03 -2.57202E+03
  6.66487E+03  1.07406E+03  3.91731E+03  4.30988E+03  7.11320E+00  4.81890E+03 -2.03395E+03  3.79852E+03
 -2.84051E+03  1.51304E+03 -1.43196E+03 -3.89715E+02 -4.82401E+02 -2.53878E+02 -9.64375E+02  7.90556E+01
 -1.25781E+03 -1.49952E+02 -1.75079E+03 -2.29157E+01 -3.85315E+01 -1.51272E+03 -5.90458E+02 -2.02437E+03
  2.59607E+03 -1.80213E+03  2.55540E+03  7.26799E+01  3.71370E+03  2.66415E+03  2.62131E+02  4.43716E+03
 -2.40659E+03  5.76114E+03 -5.02720E+03  3.09052E+03 -5.82869E+03 -4.86792E+02 -4.25875E+03 -3.81383E+03
 -2.18938E+03 -4.91903E+03  1.10839E+03 -4.14565E+03  2.79202E+03 -2.09289E+03  2.88039E+03  4.96735E+02
  1.78156E+03  1.42680E+03 -3.59817E+02  1.18720E+03 -1.10855E+03 -2.26726E+02 -1.28593E+01 -1.13143E+03
  1.60313E+03 -6.67530E+02  1.57836E+03  6.17664E+02  9.70178E+02  1.65181E+03  1.31989E+02  1.91695E+03
 -1.84012E+03  2.16196E+03 -3.23923E+03  1.52898E+02 -2.86964E+03 -1.86630E+03 -2.73293E+02 -3.88765E+03
  1.76621E+03 -2.89450E+03  3.16878E+03 -5.76851E+02  3.50488E+03  1.81267E+02  2.01108E+03  2.62921E+03
  8.35934E+02  2.49423E+03 -1.15551E+03  2.32801E+03 -1.86525E+03  1.74176E+03 -1.19715E+03  2.69711E+02
 -6.05418E+02  1.09014E+02 -1.05767E+03  3.33265E+02 -1.80636E+03  3.05199E+02 -2.35477E+03 -5.98507E+02
 -2.55306E+03 -1.11125E+03 -8.26617E+02 -3.05550E+03  1.38868E+03 -3.19529E+03  2.57722E+03 -1.35783E+03
  2.97470E+03  4.90164E+02  1.34047E+03  1.79978E+03 -4.24318E+02  2.67525E+03 -2.22230E+03  2.07164E+03
