 $NMID ID='MM_0lb_SNR800_19hz_g45_23.RAW', FMTDAT='(8E13.5)'
 TRAMP=1., VOLUME=1. $END
  3.09722E+05  6.12463E+02  3.37452E+05  2.50184E+05  8.43370E+04  3.37210E+05 -1.32462E+05  2.50389E+05
 -1.89485E+05  8.21491E+04 -1.10814E+05 -3.25498E+04  1.64296E+03 -5.00175E+04  5.38112E+04  2.24820E+02
  3.47937E+04  5.26394E+04 -1.72222E+04  7.46744E+04 -6.04211E+04  6.23883E+04 -8.25834E+04  3.13290E+04
 -7.94868E+04 -1.11683E+04 -5.63382E+04 -4.98690E+04 -1.47716E+04 -6.80485E+04  2.65790E+04 -4.47753E+04
  3.89386E+04  4.07952E+03  1.55638E+04  4.70865E+04 -3.40347E+04  4.59534E+04 -6.53177E+04 -5.74416E+02
 -5.16538E+04 -5.56577E+04 -6.00042E+03 -7.50323E+04  3.30679E+04 -5.29754E+04  4.60240E+04 -1.60135E+04
  4.13110E+04  1.09398E+04  3.05666E+04  2.40313E+04  1.58343E+04  2.81792E+04 -4.39390E+03  2.66148E+04
 -2.12827E+04  1.30284E+04 -1.92236E+04 -4.32452E+03  4.15424E+03 -7.57027E+03  2.09044E+04  1.07810E+04
  7.48804E+03  3.32323E+04 -3.03490E+04  3.38306E+04 -6.07931E+04  2.16669E+03 -5.51882E+04 -4.09401E+04
 -1.24482E+04 -6.00644E+04  3.80659E+04 -4.32564E+04  5.49294E+04 -1.84523E+03  3.16538E+04  3.02034E+04
 -6.59727E+03  3.27287E+04 -2.80159E+04  1.28969E+04 -2.73609E+04 -5.61532E+03 -1.39783E+04 -1.00284E+04
 -7.04188E+03 -1.12003E+04 -1.10032E+03 -1.63146E+04  6.65601E+03 -2.25831E+04  1.46906E+04 -1.42660E+04
  1.21933E+04  4.08099E+03 -6.14014E+03  1.30151E+04 -1.87983E+04 -1.99357E+03 -7.85518E+03 -3.01321E+04
  2.05028E+04 -3.97726E+04  4.42668E+04 -1.85028E+04  4.15726E+04  1.80814E+04  1.42115E+04  4.13121E+04
 -1.51079E+04  3.07759E+04 -2.31714E+04  8.95126E+02 -8.35985E+03 -2.63201E+04  2.04694E+04 -3.07555E+04
  3.76773E+04 -7.25384E+03  3.07141E+04  2.24111E+04  1.51113E+04  4.21695E+04 -7.57688E+03  4.41267E+04
 -2.79600E+04  2.93397E+04 -3.64627E+04  7.99353E+03 -3.77468E+04 -1.48075E+04 -2.08527E+04 -3.38255E+04
  6.85039E+03 -3.34257E+04  2.88432E+04 -1.28348E+04  2.64791E+04  1.10044E+04  2.64894E+03  1.75085E+04
 -1.29203E+04  7.23318E+03 -9.75791E+03 -8.15274E+03  5.95115E+03 -9.90228E+03  1.71780E+04  6.53977E+03
  1.22875E+04  2.14059E+04 -6.83747E+03  2.30565E+04 -2.16265E+04  8.82966E+03 -2.47803E+04 -6.49056E+03
 -1.60146E+04 -1.61247E+04 -4.90636E+03 -1.60531E+04  3.74307E+03 -1.39213E+04  1.21527E+04 -1.37158E+04
  2.07282E+04 -1.10621E+04  2.73607E+04  9.05627E+02  2.11033E+04  1.58689E+04  4.28027E+03  3.19792E+04
 -1.55089E+04  2.71028E+04 -2.56398E+04  9.16579E+03 -1.93090E+04 -1.04170E+04 -4.10939E+03 -1.39960E+04
  2.84502E+03 -4.47140E+03 -2.19149E+03  5.13880E+03 -1.23871E+04  5.34506E+03 -1.31604E+04 -4.73332E+03
 -8.28425E+03 -1.50416E+04  4.32279E+03 -1.89221E+04  1.21782E+04 -1.35832E+04  1.40271E+04 -1.48681E+03
  8.62120E+03  1.05085E+04 -8.85163E+02  1.50281E+04 -1.01861E+04  8.59839E+03 -1.50519E+04 -3.27451E+03
 -1.11164E+04 -1.37773E+04 -1.24204E+03 -1.83550E+04  8.29028E+03 -1.51036E+04  1.56771E+04 -6.92810E+03
  1.41541E+04  7.23209E+02  1.01442E+04  3.93963E+03  4.86359E+03  5.81214E+02  7.15615E+03 -1.25561E+03
  1.31894E+04  2.47165E+03  1.39411E+04  1.23332E+04  8.35066E+03  2.38129E+04 -3.21387E+03  2.56262E+04
 -1.53959E+04  1.92567E+04 -2.34408E+04  9.23095E+03 -2.35956E+04 -2.00307E+03 -2.07187E+04 -1.35233E+04
 -9.90219E+03 -1.96857E+04  6.54165E+03 -1.81775E+04  1.58849E+04 -1.07668E+04  1.49511E+04  3.62930E+03
  6.34327E+03  1.07013E+04 -6.80501E+03  1.00732E+04 -1.27767E+04  2.72588E+03 -1.01939E+04 -7.43602E+03
  2.28779E+02 -1.19069E+04  6.39479E+03 -9.28302E+03  7.46927E+03 -1.10055E+03  1.10846E+03  4.80420E+03
 -5.15686E+03  1.24040E+03 -3.25665E+03 -4.18158E+03  9.61315E+02 -9.86956E+03  7.22891E+03 -9.49815E+03
  1.17488E+04 -4.31459E+03  1.11896E+04  2.80880E+03  9.58834E+03  9.19864E+03  4.46959E+03  1.33059E+04
 -1.42507E+03  1.52489E+04 -9.04735E+03  9.53772E+03 -1.07794E+04  2.94340E+03 -7.81319E+03 -1.61367E+03
 -4.44656E+03 -3.02134E+03 -1.10365E+03  1.58386E+03 -2.10983E+03  1.72322E+03 -3.40181E+03  3.52717E+03
 -7.90076E+03 -5.79268E+02 -8.48718E+03 -6.96318E+03 -3.45375E+03 -1.10878E+04  3.32644E+03 -7.91468E+03
  6.86014E+03 -3.84203E+03  4.99798E+03  1.99525E+03  5.96828E+02  2.89989E+03 -3.12345E+03 -1.13312E+02
 -3.28728E+03 -4.82281E+03 -5.10161E+02 -6.61487E+03  3.74680E+03 -7.24875E+03  9.64180E+03 -3.93863E+03
  1.13735E+04  4.92807E+02  8.69216E+03  5.45227E+03  1.68947E+03  8.25453E+03 -5.09668E+03  7.78170E+03
 -6.52239E+03  2.80661E+03 -3.30157E+03 -1.04240E+03  1.32060E+03 -1.86058E+03  4.69764E+03 -9.62060E+02
  3.89255E+03  3.26447E+03  9.95063E+02  6.10602E+03 -4.65373E+03  6.21377E+03 -7.64159E+03  1.81635E+03
 -4.59975E+03 -3.38527E+03  4.46744E+02 -6.32396E+03  3.37207E+03 -3.15034E+03  3.22582E+03  8.88823E+02
  3.88772E+02  2.86610E+03 -3.89137E+03  4.43787E+03 -4.55291E+03  2.52038E+03 -4.04884E+03 -1.17634E+03
 -2.61356E+03 -5.57042E+03  8.43524E+02 -6.64128E+03  5.14753E+03 -4.25693E+03  5.86493E+03  9.60210E+02
  4.42666E+03  4.94868E+03  4.88739E+02  6.75261E+03 -4.65940E+03  3.78233E+03 -5.11736E+03 -3.10276E+02
 -5.26867E+03 -4.76751E+03 -1.30706E+03 -4.72545E+03  2.11904E+03 -4.37020E+03  2.80369E+03 -2.90909E+03
  2.67792E+03  2.11083E+01 -5.37181E+01  1.11277E+03  7.36222E+02 -2.19882E+02  2.84049E+02 -1.54634E+03
  3.23938E+03 -4.65479E+02  4.69678E+03  7.14905E+02  5.17251E+03  2.48448E+03  5.03873E+03  6.44408E+03
 -1.20786E+03  7.50142E+03 -7.29129E+03  6.07809E+03 -8.93593E+03  1.06708E+03 -7.04346E+03 -2.47964E+03
 -3.99370E+03 -6.07040E+03 -5.85865E+02 -4.82465E+03  2.08447E+03 -1.96421E+03  1.82402E+03 -2.07954E+03
  1.30029E+03 -1.43905E+03  2.15926E+03 -2.20336E+03  3.84457E+03 -1.30077E+03  3.60375E+03  6.97108E+02
  3.92127E+03  1.13558E+03  1.08034E+03  3.28437E+03 -1.66091E+03  2.39140E+03 -4.23386E+03  2.52283E+03
 -4.30869E+03 -1.09187E+03 -1.61896E+03 -2.92947E+03  4.42475E+02 -4.56718E+03  2.85769E+03 -4.94810E+03
  4.61296E+03 -2.92242E+03  6.27766E+03 -4.84168E+01  4.42353E+03  3.76486E+03  1.02917E+03  5.48414E+03
 -1.77972E+03  5.57759E+03 -3.09143E+03  1.78594E+03 -1.74608E+03 -1.01097E+03 -3.79918E+02 -6.29980E+02
 -5.99315E+02  1.94062E+02 -8.58002E+02  1.93567E+03 -2.45353E+03  1.09204E+03 -3.74952E+03 -3.32832E+02
 -1.31781E+03 -3.88571E+03  9.51230E+02 -4.21009E+03  2.20659E+03 -4.09311E+03  3.21489E+03 -9.62590E+02
  3.50680E+03  2.53422E+03  1.61454E+03  3.16540E+03 -7.83236E+02  4.26693E+03 -2.43652E+03  2.27230E+03
 -3.15220E+03  5.95290E+02 -3.14428E+03 -2.30860E+03 -2.93580E+02 -2.95681E+03  1.49265E+03 -2.37196E+03
  2.29563E+03 -1.27033E+03  1.65512E+03  6.39134E+02  3.58347E+02  1.39560E+03  7.90042E+02  3.54533E+02
  1.59583E+03  5.73641E+02  9.24332E+02  9.75974E+02  9.86151E+02  2.22008E+03  1.49655E+03  1.29624E+03
 -1.03447E+03  2.81817E+03 -2.24670E+03  3.81750E+03 -2.53460E+03  1.28974E+03 -3.52200E+03 -3.77692E+02
 -1.71233E+03 -3.31080E+03  6.14324E+02 -4.55978E+03  1.91031E+03 -2.02227E+03  2.79154E+03 -7.13708E+02
  2.28823E+03  1.33725E+03  4.82891E+02  2.05429E+03 -6.89812E+02  1.07407E+03 -5.52565E+02 -1.90914E+02
 -4.60470E+02 -1.35310E+03  1.15707E+03 -1.37671E+03  1.00076E+03 -8.94609E+02  1.01024E+03  2.33108E+02
  7.27665E+02  1.43106E+02  8.09390E+02 -2.53163E+02 -1.38666E+02  4.93742E+02  1.52793E+03 -2.70573E+02
  1.18941E+02 -1.15089E+01  1.60706E+03  5.53660E+02  1.89952E+02  2.28828E+03 -3.21260E+02  2.49492E+03
 -1.67101E+03  8.32011E+02 -1.77378E+03  2.13879E+02 -2.08371E+03 -7.56714E+02  2.01319E+02 -9.18105E+02
  5.08947E+02 -1.14305E+03  8.34302E+02 -5.37606E+02  6.08108E+02  1.26355E+03 -7.07696E+02  7.85365E+02
 -1.41745E+03  8.52696E+02 -9.79218E+02 -1.40833E+03 -6.63284E+02 -1.99300E+03  1.73790E+02 -1.43340E+03
  4.44483E+02 -1.46843E+02  3.89506E+02  2.15551E+02  1.49389E+03 -1.47850E+02  3.69040E+02  1.20353E+03
 -4.12492E+02 -2.70350E+02 -9.99221E+02  6.60383E+01  4.44490E+02 -6.21935E+02  1.81726E+03 -7.12771E+02
  9.51728E+02  7.59500E+01  2.58206E+03  5.67229E+02  1.06571E+03  1.72485E+03 -3.44055E+02  1.54276E+03
 -1.57035E+03  8.06981E+01 -1.11272E+03 -2.65742E+02 -9.07236E+02 -1.63794E+03  3.80720E+02 -3.63850E+02
  1.32854E+03 -4.91541E+02  6.77623E+02  6.82506E+02  2.80966E+02  1.11229E+03  4.29204E+01  9.36279E+02
 -3.65313E+02  1.01733E+03 -2.69320E+02  1.78053E+02  1.96292E+02  4.46960E+02 -9.19975E+02  6.07438E+02
 -8.13213E+02  9.93913E+02 -1.70980E+03  6.65708E+02 -1.44435E+03  1.89551E+02 -2.28516E+03 -8.31088E+02
 -1.09795E+03 -2.25261E+03  4.19171E+02 -2.73563E+03  1.09372E+03 -2.29480E+03  2.44770E+03 -6.64076E+02
  2.09236E+03 -3.77444E+02  8.60591E+02  1.45155E+03 -4.53620E+02  1.24444E+03 -7.01138E+02  1.04977E+03
 -8.46537E+02  7.32322E+02 -4.71676E+02 -1.70449E+02 -3.15502E+02  3.72085E+02 -6.37198E+02  1.03481E+02
 -9.49773E+02 -6.57737E+01 -8.92067E+02 -6.85526E+01  4.82384E+02 -5.19792E+02 -2.21623E+02 -4.12562E+02
  1.05599E+03 -4.44168E+02  4.65942E+02 -1.62272E+01  1.10160E+03  8.96746E+02 -5.34495E+02  1.45222E+03
 -8.98056E+02  1.78422E+03 -1.59103E+03  1.21991E+03 -1.46561E+03 -1.45821E+02 -1.11660E+03 -1.23486E+03
 -8.36218E+02 -1.13096E+03  3.34867E+02 -1.09314E+03  4.45509E+02 -3.48210E+02  6.46022E+02  1.45346E+02
  3.78962E+02  2.64683E+02  1.72057E+02  8.83265E+01 -4.01720E+02 -5.31900E+01 -2.04510E+02 -4.19291E+02
  4.37669E+02  3.33540E+02  3.97433E+02  4.41690E+02 -1.81111E+02  5.23113E+02  2.65405E+02  9.30376E+01
 -8.71204E+02  6.48074E+02 -2.70942E+02  1.84093E+02 -4.40194E+02 -4.75296E+02  1.39328E+02 -9.13780E+02
  5.08804E+02 -5.84116E+02  4.36973E+02  3.01704E+01  7.08727E+02 -8.81497E+02  4.77355E+02  7.11405E+02
  3.64487E+02  4.36454E+02 -6.77149E+01  6.79334E+02 -4.03771E+02  6.92087E+02 -4.67318E+02  1.84220E+02
 -1.69355E+02 -2.16431E+02 -5.70172E+02  1.65759E+02 -5.82112E+02  6.04833E+01 -7.45270E+02 -1.67270E+02
 -9.95992E+02  3.32837E+02 -3.66146E+02 -9.06175E+02  5.80518E+02 -1.35041E+03  9.70309E+02 -1.35836E+01
  3.65453E+02  9.30087E+01 -4.84872E+02  4.42561E+02  1.32242E+02  9.23257E+02 -6.00971E+02  6.42900E+02
