 $NMID ID='MM_0lb_SNR800_13hz_g40_54.RAW', FMTDAT='(8E13.5)'
 TRAMP=1., VOLUME=1. $END
  3.09481E+05  3.80133E+02  3.37613E+05  2.50908E+05  8.46819E+04  3.37760E+05 -1.32547E+05  2.51124E+05
 -1.90348E+05  8.30076E+04 -1.11601E+05 -3.26447E+04  1.25356E+03 -5.04618E+04  5.37461E+04  1.08411E+02
  3.55110E+04  5.29811E+04 -1.64602E+04  7.54598E+04 -6.04531E+04  6.33680E+04 -8.38870E+04  3.16577E+04
 -8.11308E+04 -1.12906E+04 -5.71888E+04 -5.11115E+04 -1.49346E+04 -6.94882E+04  2.72544E+04 -4.56461E+04
  4.02081E+04  3.77576E+03  1.61559E+04  4.80352E+04 -3.41957E+04  4.70923E+04 -6.65836E+04 -3.42614E+02
 -5.34339E+04 -5.69263E+04 -6.78661E+03 -7.71424E+04  3.36036E+04 -5.50505E+04  4.77640E+04 -1.71800E+04
  4.34063E+04  1.12891E+04  3.18315E+04  2.53118E+04  1.58403E+04  2.94581E+04 -4.96036E+03  2.68691E+04
 -2.20998E+04  1.27565E+04 -1.89169E+04 -5.07080E+03  5.47490E+03 -7.83471E+03  2.21185E+04  1.22019E+04
  7.04899E+03  3.53056E+04 -3.21257E+04  3.53082E+04 -6.30975E+04  2.26735E+03 -5.71727E+04 -4.27600E+04
 -1.23005E+04 -6.30982E+04  3.97448E+04 -4.51033E+04  5.80890E+04 -2.35223E+03  3.36800E+04  3.22712E+04
 -6.08307E+03  3.61061E+04 -3.00304E+04  1.58745E+04 -3.01677E+04 -4.35435E+03 -1.67031E+04 -1.08738E+04
 -8.37727E+03 -1.30123E+04 -1.04695E+03 -1.81704E+04  7.45101E+03 -2.29507E+04  1.54129E+04 -1.34129E+04
  1.16877E+04  4.96571E+03 -8.16650E+03  1.28279E+04 -2.11981E+04 -4.24948E+03 -8.34880E+03 -3.35016E+04
  2.26345E+04 -4.33656E+04  4.81938E+04 -1.96252E+04  4.48695E+04  1.93152E+04  1.57230E+04  4.41568E+04
 -1.58961E+04  3.33519E+04 -2.51237E+04  2.09979E+03 -9.75699E+03 -2.76142E+04  2.10513E+04 -3.35346E+04
  4.09268E+04 -9.27276E+03  3.55969E+04  2.37923E+04  1.80274E+04  4.61684E+04 -8.24450E+03  4.99964E+04
 -3.15446E+04  3.41351E+04 -4.16662E+04  9.64713E+03 -4.24293E+04 -1.68492E+04 -2.37649E+04 -3.79661E+04
  7.18851E+03 -3.76679E+04  3.16654E+04 -1.48817E+04  2.89903E+04  1.08588E+04  3.64695E+03  1.90092E+04
 -1.33518E+04  8.42616E+03 -1.00089E+04 -7.69831E+03  5.83152E+03 -1.07082E+04  1.78071E+04  5.84735E+03
  1.32663E+04  2.23869E+04 -6.05382E+03  2.51128E+04 -2.25390E+04  1.17308E+04 -2.81393E+04 -5.00280E+03
 -2.07143E+04 -1.73128E+04 -8.62304E+03 -2.03346E+04  4.13182E+03 -1.93626E+04  1.61014E+04 -1.81213E+04
  2.60871E+04 -1.26105E+04  3.27756E+04  2.86342E+03  2.36974E+04  2.02066E+04  4.05560E+03  3.68584E+04
 -1.78385E+04  3.04181E+04 -2.80560E+04  1.05721E+04 -2.10823E+04 -1.01872E+04 -4.33119E+03 -1.33550E+04
  1.70011E+03 -2.45003E+03 -4.71952E+03  6.63588E+03 -1.61595E+04  4.99441E+03 -1.65053E+04 -7.09150E+03
 -1.00640E+04 -1.91619E+04  5.09472E+03 -2.31627E+04  1.50472E+04 -1.68934E+04  1.81542E+04 -1.87358E+03
  1.13230E+04  1.34398E+04 -9.39785E+02  1.93112E+04 -1.30846E+04  1.07218E+04 -1.92076E+04 -3.98306E+03
 -1.37904E+04 -1.73442E+04 -1.87325E+03 -2.28722E+04  1.01172E+04 -1.85586E+04  1.94307E+04 -9.37005E+03
  1.79356E+04  5.88944E+02  1.30123E+04  4.63662E+03  6.89337E+03  9.40787E+02  9.52014E+03 -1.51219E+03
  1.78590E+04  2.63076E+03  1.97267E+04  1.53137E+04  1.25549E+04  3.06749E+04 -2.96161E+03  3.45522E+04
 -2.01715E+04  2.75512E+04 -3.20342E+04  1.37250E+04 -3.36284E+04 -2.27341E+03 -2.78696E+04 -1.92526E+04
 -1.20406E+04 -2.77561E+04  9.33634E+03 -2.51074E+04  2.17290E+04 -1.26527E+04  1.94753E+04  5.99129E+03
  7.24015E+03  1.47054E+04 -9.31933E+03  1.28521E+04 -1.63631E+04  2.61209E+03 -1.25337E+04 -1.02275E+04
 -1.73415E+02 -1.52886E+04  8.28564E+03 -1.15204E+04  1.01629E+04 -1.44448E+03  2.57349E+03  6.66979E+03
 -6.97205E+03  2.54897E+03 -5.78228E+03 -5.63604E+03 -4.15216E+02 -1.38352E+04  9.59300E+03 -1.43266E+04
  1.64777E+04 -7.63678E+03  1.80796E+04  2.73331E+03  1.55805E+04  1.34119E+04  7.73972E+03  2.03223E+04
 -3.15686E+03  2.26070E+04 -1.42272E+04  1.41242E+04 -1.65157E+04  3.51251E+03 -1.13166E+04 -3.69991E+03
 -5.36222E+03 -5.12924E+03 -5.36303E+02  9.33566E+02 -2.36478E+03  2.42130E+03 -5.04836E+03  4.27203E+03
 -1.08217E+04 -7.20715E+02 -1.13780E+04 -9.29433E+03 -4.13451E+03 -1.47819E+04  4.98060E+03 -1.17364E+04
  9.49278E+03 -4.52958E+03  6.82635E+03  2.96508E+03  3.80868E+02  4.54776E+03 -5.34936E+03 -1.52183E+02
 -5.21220E+03 -7.06505E+03 -9.48130E+02 -1.09645E+04  6.06964E+03 -1.13361E+04  1.42588E+04 -6.14543E+03
  1.68378E+04  1.38617E+03  1.21446E+04  9.40737E+03  2.35451E+03  1.32618E+04 -7.06294E+03  1.12438E+04
 -9.61047E+03  3.30518E+03 -4.84677E+03 -2.19020E+03  1.66048E+03 -2.86172E+03  5.95768E+03 -1.19183E+03
  5.15211E+03  4.86906E+03  1.41823E+03  9.25496E+03 -6.74838E+03  8.67562E+03 -1.13257E+04  2.25842E+03
 -7.22431E+03 -5.58092E+03  2.98379E+02 -9.81265E+03  5.78046E+03 -4.93209E+03  5.79368E+03  2.18428E+03
  1.14119E+03  6.19303E+03 -5.60276E+03  7.61350E+03 -8.38110E+03  3.86775E+03 -8.69357E+03 -2.51354E+03
 -5.06207E+03 -1.02075E+04  2.36235E+03 -1.12247E+04  1.02331E+04 -7.26492E+03  1.07484E+04  1.46214E+03
  6.81668E+03  8.84766E+03 -6.37601E+02  1.08319E+04 -7.88433E+03  6.23658E+03 -8.32291E+03 -1.02632E+03
 -7.78206E+03 -7.73791E+03 -1.34668E+03 -7.83395E+03  4.14187E+03 -6.81194E+03  4.88531E+03 -3.24769E+03
  3.52104E+03  9.10853E+02 -5.85178E+02  1.52938E+03 -6.46557E+01 -1.80083E+03  1.02567E+03 -4.46247E+03
  6.89823E+03 -2.25166E+03  9.74185E+03  1.16013E+03  9.88688E+03  6.71333E+03  7.19288E+03  1.28571E+04
 -2.90278E+03  1.47551E+04 -1.25531E+04  1.09721E+04 -1.62819E+04  1.85221E+03 -1.33336E+04 -5.26949E+03
 -6.87810E+03 -1.07538E+04 -2.15343E+02 -8.96983E+03  3.38625E+03 -4.91955E+03  3.10920E+03 -3.34119E+03
  2.34188E+03 -1.74630E+03  2.98514E+03 -2.93332E+03  4.21498E+03 -2.08417E+03  5.31149E+03 -5.89973E+02
  7.06954E+03  1.66177E+03  3.25275E+03  5.92701E+03 -1.85194E+03  6.36202E+03 -7.50885E+03  5.21343E+03
 -8.78203E+03 -1.05996E+03 -4.92809E+03 -6.28565E+03 -7.95034E+00 -9.47130E+03  5.39380E+03 -9.46673E+03
  9.95105E+03 -5.60913E+03  1.19658E+04  1.11046E+03  8.72417E+03  8.23597E+03  1.65358E+03  1.09448E+04
 -4.34364E+03  9.12052E+03 -6.17983E+03  3.29558E+03 -4.28455E+03 -1.40808E+03 -1.65636E+03 -1.50186E+03
 -7.97668E+02  3.00603E+02 -1.41174E+03  2.17090E+03 -4.02508E+03  1.60703E+03 -6.72102E+03 -8.65146E+02
 -3.99388E+03 -6.65144E+03  5.04382E+02 -8.63728E+03  5.40350E+03 -8.20626E+03  7.93204E+03 -2.23925E+03
  8.07970E+03  4.34691E+03  3.93820E+03  7.65536E+03 -2.03107E+03  8.74895E+03 -5.94021E+03  5.20344E+03
 -7.84017E+03  5.10723E+02 -5.90830E+03 -5.01088E+03 -4.47250E+02 -6.53721E+03  3.61936E+03 -5.25728E+03
  5.21436E+03 -1.91730E+03  3.61763E+03  1.54200E+03  1.14068E+03  2.34474E+03  1.12712E+03  1.24153E+03
  2.28409E+03  9.64861E+02  2.04088E+03  1.67556E+03  2.42502E+03  3.57974E+03  1.95422E+03  4.26756E+03
 -2.22702E+03  6.44464E+03 -5.46082E+03  7.06666E+03 -7.62555E+03  2.02727E+03 -8.66552E+03 -2.76445E+03
 -3.84840E+03 -8.21066E+03  9.25543E+02 -8.91347E+03  4.76752E+03 -5.57416E+03  6.64009E+03 -1.69868E+03
  5.37141E+03  3.28499E+03  1.03047E+03  4.92808E+03 -1.87616E+03  2.84676E+03 -3.01099E+03 -3.05372E+02
 -1.65998E+03 -3.40949E+03  2.14242E+03 -3.35059E+03  3.16984E+03 -1.88901E+03  3.21251E+03  7.54769E+02
  1.83407E+03  1.30343E+03  1.12482E+03  6.07731E+02 -7.82688E+02  1.24632E+03  1.31597E+03 -6.18933E+02
  1.00205E+03 -2.98999E+02  3.08551E+03  1.22285E+03  1.33510E+03  4.53637E+03 -1.00913E+03  5.78575E+03
 -3.62254E+03  3.68295E+03 -4.78040E+03  9.20302E+02 -4.73543E+03 -1.81517E+03 -1.31791E+03 -2.81591E+03
  2.04658E+02 -3.16827E+03  1.82104E+03 -1.53043E+03  1.34192E+03  2.02424E+03 -9.64044E+02  2.52731E+03
 -3.54297E+03  1.68551E+03 -3.49572E+03 -2.24947E+03 -2.02136E+03 -4.40260E+03  6.79370E+02 -4.02165E+03
  2.07564E+03 -2.35969E+03  2.86424E+03 -1.01305E+02  2.99659E+03  5.14611E+02  3.42442E+02  2.17857E+03
 -1.22455E+03  4.32909E+02 -1.93539E+03 -1.18744E+03  1.08250E+03 -3.14032E+03  3.99741E+03 -2.41367E+03
  4.34159E+03  4.76575E+02  5.18350E+03  3.03517E+03  2.10373E+03  4.51624E+03 -1.37598E+03  4.71072E+03
 -4.01182E+03  1.94026E+03 -3.92846E+03 -7.57126E+02 -2.13498E+03 -3.16567E+03  6.34446E+02 -2.92220E+03
  3.16450E+03 -1.60612E+03  2.37970E+03  1.50262E+03  8.61412E+02  2.94103E+03 -3.26106E+02  2.67953E+03
 -1.19434E+03  1.87454E+03 -1.19008E+03  4.11715E+02 -5.81395E+02  5.79450E+02 -1.05959E+03  1.15914E+03
 -1.25186E+03  1.81344E+03 -3.74334E+03  1.22676E+03 -4.62974E+03  3.62900E+02 -6.02400E+03 -2.77706E+03
 -2.62990E+03 -6.50408E+03  1.16767E+03 -7.27911E+03  4.30036E+03 -5.94211E+03  7.28716E+03 -2.54484E+03
  6.38392E+03  1.10561E+03  3.91242E+03  4.26433E+03  3.48459E+02  4.77810E+03 -1.78562E+03  3.70918E+03
 -2.84747E+03  1.47167E+03 -1.74554E+03 -3.47857E+02 -6.46740E+02 -3.29805E+02 -7.09178E+02  6.14110E+01
 -9.60558E+02  3.53932E+02 -1.38635E+03  2.46639E+00  1.56252E+01 -1.35277E+03 -7.93949E+01 -2.07005E+03
  2.49163E+03 -1.69234E+03  2.45154E+03  1.32802E+02  3.32164E+03  2.59001E+03  6.55993E+02  4.81272E+03
 -2.28078E+03  5.50026E+03 -5.02269E+03  3.44240E+03 -5.61470E+03 -4.60968E+02 -4.31972E+03 -3.55053E+03
 -2.02629E+03 -4.86726E+03  9.28232E+02 -4.15706E+03  2.78749E+03 -2.65791E+03  2.93157E+03  1.06979E+02
  1.85470E+03  1.61061E+03 -4.19454E+02  1.25079E+03 -9.46106E+02 -2.01463E+02 -2.15390E+01 -8.77246E+02
  1.39365E+03 -4.40681E+02  1.80264E+03  8.27131E+02  1.03437E+03  1.78724E+03  4.60885E+01  2.02243E+03
 -1.98428E+03  1.89426E+03 -2.63352E+03  3.24386E+02 -2.72591E+03 -2.20635E+03 -4.08921E+02 -3.49680E+03
  2.35977E+03 -2.88429E+03  2.98402E+03 -1.11118E+03  3.24313E+03  1.85530E+02  1.77553E+03  2.97746E+03
  8.54789E+02  2.63179E+03 -9.28086E+02  2.38818E+03 -1.90731E+03  1.12553E+03 -1.18537E+03  9.55226E+01
 -7.79584E+02 -1.12430E+02 -1.12859E+03  2.34262E+02 -1.57025E+03  5.22518E+02 -2.28739E+03 -4.52957E+02
 -2.20241E+03 -1.11196E+03 -8.04856E+02 -3.02692E+03  1.35384E+03 -3.73058E+03  2.55442E+03 -1.17699E+03
  2.79660E+03  2.23712E+02  1.17586E+03  1.91503E+03 -2.54655E+02  2.59554E+03 -2.28459E+03  2.12900E+03
