 $NMID ID='MM_0lb_SNR800_19hz_g60_88.RAW', FMTDAT='(8E13.5)'
 TRAMP=1., VOLUME=1. $END
  3.09807E+05  5.90988E+02  3.37559E+05  2.50560E+05  8.45571E+04  3.37538E+05 -1.32419E+05  2.50564E+05
 -1.89990E+05  8.26712E+04 -1.11212E+05 -3.27417E+04  1.13962E+03 -5.03875E+04  5.37536E+04  2.09973E+02
  3.50698E+04  5.27672E+04 -1.69013E+04  7.53058E+04 -6.07015E+04  6.32265E+04 -8.35376E+04  3.16694E+04
 -8.06091E+04 -1.12565E+04 -5.67555E+04 -5.08445E+04 -1.49579E+04 -6.88152E+04  2.71881E+04 -4.52879E+04
  3.98316E+04  3.90046E+03  1.58208E+04  4.77342E+04 -3.40894E+04  4.68692E+04 -6.61705E+04 -4.54002E+02
 -5.25858E+04 -5.63567E+04 -6.63882E+03 -7.62111E+04  3.34075E+04 -5.40464E+04  4.72985E+04 -1.70171E+04
  4.26960E+04  1.12879E+04  3.13049E+04  2.48416E+04  1.59732E+04  2.90719E+04 -4.85273E+03  2.70013E+04
 -2.18709E+04  1.27170E+04 -1.89342E+04 -4.66833E+03  5.11836E+03 -7.77089E+03  2.16704E+04  1.15739E+04
  7.35987E+03  3.41752E+04 -3.12557E+04  3.49288E+04 -6.21956E+04  2.02239E+03 -5.60038E+04 -4.23179E+04
 -1.24666E+04 -6.20025E+04  3.86784E+04 -4.41959E+04  5.65691E+04 -2.21651E+03  3.28663E+04  3.13987E+04
 -6.21364E+03  3.43987E+04 -2.94612E+04  1.47580E+04 -2.88295E+04 -5.04659E+03 -1.55363E+04 -1.04760E+04
 -7.83744E+03 -1.23745E+04 -7.52818E+02 -1.74356E+04  7.12241E+03 -2.25128E+04  1.49904E+04 -1.34953E+04
  1.18018E+04  4.66473E+03 -7.10115E+03  1.29088E+04 -2.00575E+04 -3.01368E+03 -8.22458E+03 -3.17939E+04
  2.19042E+04 -4.18960E+04  4.64171E+04 -1.90868E+04  4.32572E+04  1.88696E+04  1.48009E+04  4.27402E+04
 -1.55897E+04  3.20692E+04 -2.41290E+04  1.31211E+03 -8.73526E+03 -2.72267E+04  2.07158E+04 -3.24867E+04
  3.94424E+04 -8.30228E+03  3.29778E+04  2.30228E+04  1.63524E+04  4.39471E+04 -8.01167E+03  4.74353E+04
 -2.98830E+04  3.13491E+04 -3.93666E+04  8.96385E+03 -3.98415E+04 -1.57241E+04 -2.22164E+04 -3.56822E+04
  7.22854E+03 -3.56720E+04  3.00672E+04 -1.34123E+04  2.77104E+04  1.06034E+04  3.29655E+03  1.82696E+04
 -1.31297E+04  7.55290E+03 -1.00845E+04 -7.74491E+03  5.84207E+03 -1.02174E+04  1.74712E+04  6.36463E+03
  1.29650E+04  2.18447E+04 -6.34643E+03  2.39157E+04 -2.20460E+04  1.00404E+04 -2.62831E+04 -5.67274E+03
 -1.79587E+04 -1.68407E+04 -6.77340E+03 -1.83223E+04  4.10540E+03 -1.63040E+04  1.35006E+04 -1.56721E+04
  2.29060E+04 -1.19002E+04  2.99010E+04  1.57494E+03  2.23173E+04  1.74254E+04  4.22065E+03  3.36857E+04
 -1.64122E+04  2.86536E+04 -2.66992E+04  9.55877E+03 -2.03000E+04 -1.05964E+04 -4.34486E+03 -1.37934E+04
  2.08119E+03 -3.74341E+03 -3.04473E+03  5.71883E+03 -1.36780E+04  5.27842E+03 -1.43839E+04 -5.52699E+03
 -8.95116E+03 -1.66201E+04  4.65163E+03 -2.02030E+04  1.34738E+04 -1.45596E+04  1.57217E+04 -1.55408E+03
  9.71692E+03  1.16547E+04 -8.27895E+02  1.65519E+04 -1.12490E+04  9.32693E+03 -1.63139E+04 -3.53828E+03
 -1.21411E+04 -1.51624E+04 -1.73756E+03 -2.00430E+04  9.43493E+03 -1.62799E+04  1.67533E+04 -7.76877E+03
  1.53418E+04  6.23005E+02  1.11384E+04  3.81290E+03  5.82917E+03  4.93556E+02  8.19912E+03 -1.38405E+03
  1.49889E+04  2.78323E+03  1.59027E+04  1.32363E+04  1.00636E+04  2.59930E+04 -3.17341E+03  2.84386E+04
 -1.66863E+04  2.19272E+04 -2.60059E+04  1.06324E+04 -2.68461E+04 -2.16286E+03 -2.27508E+04 -1.54865E+04
 -1.06110E+04 -2.21089E+04  7.38207E+03 -2.03495E+04  1.79118E+04 -1.13034E+04  1.61607E+04  3.80135E+03
  6.67943E+03  1.19121E+04 -7.35640E+03  1.07512E+04 -1.40832E+04  2.63175E+03 -1.06111E+04 -8.44173E+03
 -3.36423E+02 -1.31042E+04  6.53946E+03 -9.67120E+03  8.22241E+03 -1.42182E+03  1.68395E+03  5.01177E+03
 -5.94416E+03  1.50260E+03 -4.19728E+03 -4.73489E+03  1.27395E+02 -1.06982E+04  8.22347E+03 -1.10600E+04
  1.32438E+04 -5.10284E+03  1.30225E+04  2.85529E+03  1.13803E+04  1.04057E+04  5.38312E+03  1.51783E+04
 -1.96572E+03  1.68989E+04 -1.03818E+04  1.07038E+04 -1.20376E+04  2.81747E+03 -9.18038E+03 -2.28890E+03
 -4.59706E+03 -3.64128E+03 -6.79129E+02  1.36375E+03 -2.10855E+03  2.23583E+03 -3.89886E+03  3.70438E+03
 -8.54113E+03 -6.82298E+02 -8.99051E+03 -7.33503E+03 -3.76779E+03 -1.18024E+04  3.57506E+03 -8.98667E+03
  7.45685E+03 -4.16881E+03  5.48477E+03  2.15718E+03  4.28712E+02  3.11184E+03 -3.98731E+03  2.79419E+01
 -3.74041E+03 -5.55312E+03 -7.02395E+02 -7.51840E+03  4.08220E+03 -8.33509E+03  1.03164E+04 -4.16279E+03
  1.20497E+04  7.88219E+02  8.87369E+03  6.66051E+03  2.04230E+03  8.96651E+03 -5.39085E+03  8.44305E+03
 -7.21792E+03  2.83088E+03 -3.74164E+03 -1.53802E+03  1.45404E+03 -1.92739E+03  4.98046E+03 -9.29935E+02
  4.42953E+03  3.50892E+03  8.31480E+02  6.67269E+03 -4.76548E+03  6.92344E+03 -8.34905E+03  1.93624E+03
 -5.21400E+03 -4.16556E+03  4.13877E+02 -6.91917E+03  3.89354E+03 -3.44950E+03  3.78871E+03  1.14030E+03
  4.62211E+02  3.75938E+03 -4.14863E+03  4.78407E+03 -5.08097E+03  2.52263E+03 -4.78539E+03 -1.09393E+03
 -2.93483E+03 -6.30254E+03  1.28441E+03 -7.52514E+03  6.03467E+03 -4.96026E+03  6.66850E+03  1.03318E+03
  4.87276E+03  5.54149E+03  2.12145E+01  7.57327E+03 -5.16452E+03  4.08602E+03 -5.37286E+03  3.57988E+01
 -5.69446E+03 -5.35267E+03 -1.19208E+03 -5.08601E+03  2.48502E+03 -4.67144E+03  3.09329E+03 -2.97598E+03
  2.93746E+03  4.55515E+02  2.88060E+01  1.25711E+03  4.59494E+02 -2.29415E+02  1.59030E+01 -2.13082E+03
  3.91887E+03 -7.69240E+02  5.40082E+03  7.42443E+02  5.69770E+03  3.30106E+03  5.48781E+03  7.24278E+03
 -1.04216E+03  8.59667E+03 -7.91562E+03  6.84263E+03 -9.88180E+03  8.58003E+02 -7.92902E+03 -3.03529E+03
 -4.24469E+03 -6.51624E+03 -3.57065E+01 -5.47375E+03  2.30009E+03 -2.14285E+03  1.65086E+03 -2.11845E+03
  1.20941E+03 -1.54071E+03  2.32704E+03 -2.40374E+03  3.31069E+03 -1.32123E+03  3.53067E+03  2.99394E+02
  4.28773E+03  1.52470E+03  1.24244E+03  3.29505E+03 -1.54513E+03  2.99493E+03 -4.69641E+03  2.26407E+03
 -4.86571E+03 -1.20116E+03 -2.19367E+03 -3.23659E+03  1.89230E+02 -4.88545E+03  3.10015E+03 -5.35463E+03
  5.29576E+03 -3.27338E+03  6.75694E+03  3.91923E+02  4.79568E+03  4.24734E+03  9.20308E+02  5.68267E+03
 -2.02137E+03  6.14544E+03 -3.31903E+03  2.17022E+03 -1.63304E+03 -1.00877E+03 -3.86205E+02 -6.55860E+02
 -6.34947E+02  7.03188E+02 -1.19968E+03  1.62246E+03 -2.57043E+03  1.14291E+03 -3.90143E+03 -5.99768E+02
 -1.37452E+03 -3.84963E+03  8.71197E+02 -4.71723E+03  2.85543E+03 -4.28147E+03  3.36726E+03 -1.24417E+03
  3.92706E+03  2.33538E+03  1.44753E+03  3.31686E+03 -7.50183E+02  4.27801E+03 -2.59706E+03  2.62445E+03
 -3.80618E+03  6.76196E+02 -3.27578E+03 -2.11343E+03 -7.12378E+01 -3.31722E+03  1.44519E+03 -2.14659E+03
  2.81552E+03 -1.16086E+03  1.52473E+03  4.28213E+02  4.70183E+02  1.78449E+03  8.39290E+02  5.95279E+02
  1.49891E+03  6.38515E+02  1.44575E+03  1.01883E+03  1.21693E+03  2.12280E+03  1.02270E+03  1.69296E+03
 -1.13692E+03  3.11590E+03 -2.37092E+03  4.01600E+03 -2.74142E+03  1.23519E+03 -4.15329E+03 -2.21914E+02
 -1.76468E+03 -3.52283E+03  9.80925E+02 -4.54119E+03  1.76644E+03 -2.40604E+03  3.01179E+03 -7.29135E+02
  2.11017E+03  1.92967E+03  2.92683E+02  2.10387E+03 -5.66375E+02  1.09973E+03 -8.08271E+02 -2.43767E+02
 -5.26498E+02 -1.20331E+03  1.06349E+03 -1.32866E+03  1.30557E+03 -8.44363E+02  1.30531E+03  4.64077E+02
  7.71928E+02  4.27054E+02  7.98943E+02 -5.09042E+01 -3.34117E+02  6.04770E+02  1.54218E+03 -4.20668E+02
  2.27393E+02  1.09470E+02  1.79846E+03  3.97820E+02  4.84799E+02  2.00901E+03 -4.83523E+02  2.81191E+03
 -1.28825E+03  7.70447E+02 -1.73844E+03  3.83997E+02 -1.88695E+03 -6.68757E+02 -5.72818E+01 -7.80584E+02
  6.71663E+02 -6.85897E+02  7.83838E+02 -8.86452E+02  4.15503E+02  1.14397E+03 -6.99282E+02  1.00986E+03
 -1.52816E+03  6.23514E+02 -7.55819E+02 -1.34044E+03 -7.09084E+02 -1.96023E+03  1.37822E+02 -1.52533E+03
  4.00313E+02 -1.68405E+02  7.06460E+02  6.97971E+02  1.09870E+03 -4.11257E+01  4.24211E+02  1.04939E+03
 -1.59507E+02  1.22051E+02 -9.77863E+02 -7.09642E+01  6.93087E+02 -6.24188E+02  1.42152E+03 -1.15201E+03
  1.04388E+03  3.12459E+02  2.60885E+03  4.37367E+02  1.22200E+03  1.22030E+03  1.23871E+01  1.82385E+03
 -1.28936E+03  1.15377E+02 -1.11805E+03 -2.56551E+02 -6.60857E+02 -7.55193E+02  5.33552E+02 -3.52817E+02
  1.24399E+03 -3.68558E+02  4.02594E+02  6.14911E+02  9.43433E+01  1.00365E+03  1.48352E+02  1.11301E+03
 -2.30702E+02  1.08435E+03 -5.00533E+02  2.95722E+01 -5.48260E+01  7.38739E+02 -9.24166E+02  3.93994E+02
 -5.13163E+02  8.95278E+02 -1.75232E+03  1.56679E+02 -1.27390E+03  1.83389E+02 -2.14870E+03 -8.02475E+02
 -7.37874E+02 -1.52915E+03  7.91189E+02 -2.31188E+03  8.78357E+02 -2.29705E+03  2.38277E+03 -1.07836E+03
  1.90211E+03 -1.47736E+02  9.22233E+02  1.39006E+03 -7.28655E+02  1.06939E+03 -7.06924E+02  9.87761E+02
 -8.84524E+02  8.17868E+02 -4.99832E+02 -3.84847E+02 -2.24180E+02  5.75640E+02 -4.75221E+02 -3.19276E+02
 -1.03929E+03 -2.23775E+02 -8.25145E+02  7.50114E+01  1.33740E+02 -6.19724E+02 -4.75696E+02 -6.58175E+02
  1.05510E+03 -4.97882E+02 -4.68505E+00  7.34079E+01  8.18295E+02  7.54966E+02 -4.72353E+02  1.05376E+03
 -8.01953E+02  2.21225E+03 -1.43550E+03  1.07361E+03 -1.21807E+03 -4.28823E+02 -9.62870E+02 -1.12568E+03
 -5.95046E+02 -1.00441E+03  1.94888E+02 -8.81931E+02  4.90044E+02 -4.17317E+02  6.25380E+02  2.34453E+02
  5.58483E+02  3.55170E+02  2.76050E+02  1.36657E+02 -3.14147E+02 -1.39440E+02 -1.34884E+01 -1.46018E+02
  2.35540E+02  2.63385E+02  1.91923E+02  3.57111E+02 -3.02841E+01  3.49673E+02  4.94335E+02  9.19010E+01
 -4.06400E+02  4.72557E+02 -4.06475E+02  1.34539E+02 -4.64818E+02 -1.59078E+02  8.92812E+00 -9.15624E+02
  3.23712E+02 -4.89965E+02  1.21657E+02  1.50180E+02  5.28356E+02 -6.17981E+02  1.81185E+02  6.81058E+02
  2.05070E+02  3.04368E+02 -2.03856E+02  5.24591E+02 -6.83775E+02  4.42756E+02 -2.56292E+02  2.73357E+02
 -2.89632E+02 -9.45811E+01 -7.94774E+02 -1.51561E+02 -6.98146E+02  1.03121E+02 -5.45823E+02 -4.29037E+02
 -9.57588E+02  2.73837E+02 -1.54117E+02 -5.66107E+02  7.62769E+02 -1.21926E+03  3.92989E+02 -1.43153E+01
  5.60455E+02 -2.80021E+01 -3.18196E+02  6.38038E+01 -1.35138E+02  6.28602E+02 -2.32053E+02  5.39489E+02
