 $NMID ID='MM_0lb_SNR800_10hz_g55_37.RAW', FMTDAT='(8E13.5)'
 TRAMP=1., VOLUME=1. $END
  3.09699E+05  3.55280E+02  3.37705E+05  2.51203E+05  8.47118E+04  3.38631E+05 -1.32107E+05  2.51878E+05
 -1.90864E+05  8.35221E+04 -1.12341E+05 -3.25297E+04  2.89657E+02 -5.07842E+04  5.37254E+04 -4.81078E+02
  3.58375E+04  5.29026E+04 -1.66550E+04  7.64043E+04 -6.11468E+04  6.40183E+04 -8.54045E+04  3.27014E+04
 -8.23613E+04 -1.17380E+04 -5.80370E+04 -5.21447E+04 -1.49502E+04 -7.10111E+04  2.83307E+04 -4.64933E+04
  4.11611E+04  3.58291E+03  1.64458E+04  4.85807E+04 -3.48638E+04  4.80791E+04 -6.77628E+04  7.40918E+02
 -5.49302E+04 -5.78290E+04 -7.00885E+03 -7.87469E+04  3.47239E+04 -5.68683E+04  5.00012E+04 -1.80478E+04
  4.54735E+04  1.13585E+04  3.30190E+04  2.66680E+04  1.59846E+04  3.03563E+04 -5.76466E+03  2.79155E+04
 -2.25491E+04  1.21213E+04 -1.82470E+04 -5.61852E+03  6.82877E+03 -7.20045E+03  2.35788E+04  1.39102E+04
  7.35745E+03  3.77991E+04 -3.38270E+04  3.70064E+04 -6.61509E+04  2.27078E+03 -5.83916E+04 -4.41594E+04
 -1.25133E+04 -6.57825E+04  4.13923E+04 -4.72004E+04  6.09947E+04 -2.21910E+03  3.62816E+04  3.45230E+04
 -5.69538E+03  3.88928E+04 -3.18576E+04  1.85477E+04 -3.34082E+04 -3.56791E+03 -1.92463E+04 -1.14305E+04
 -9.53996E+03 -1.47657E+04 -6.54156E+02 -1.93830E+04  8.32289E+03 -2.35769E+04  1.58918E+04 -1.22450E+04
  1.04835E+04  6.11045E+03 -1.08390E+04  1.25114E+04 -2.32250E+04 -6.47634E+03 -8.61937E+03 -3.73001E+04
  2.45619E+04 -4.67046E+04  5.13128E+04 -2.04717E+04  4.86880E+04  2.05840E+04  1.67831E+04  4.67473E+04
 -1.64429E+04  3.58465E+04 -2.71561E+04  2.54226E+03 -1.13489E+04 -2.91219E+04  2.15223E+04 -3.68201E+04
  4.43837E+04 -1.09795E+04  3.98130E+04  2.47616E+04  2.10332E+04  5.05679E+04 -8.31892E+03  5.55809E+04
 -3.51545E+04  3.77557E+04 -4.67961E+04  1.08822E+04 -4.74395E+04 -1.85090E+04 -2.60025E+04 -4.14656E+04
  7.46660E+03 -4.19331E+04  3.37993E+04 -1.66931E+04  3.18621E+04  1.09346E+04  5.03067E+03  2.04892E+04
 -1.35027E+04  9.42521E+03 -1.11561E+04 -8.00680E+03  5.54236E+03 -1.09293E+04  1.90181E+04  5.47500E+03
  1.50476E+04  2.24070E+04 -5.07520E+03  2.73995E+04 -2.37812E+04  1.44599E+04 -3.12600E+04 -2.76304E+03
 -2.46778E+04 -1.85117E+04 -1.13118E+04 -2.49332E+04  4.35138E+03 -2.52319E+04  1.94363E+04 -2.23423E+04
  3.15267E+04 -1.44990E+04  3.75530E+04  4.57231E+03  2.68077E+04  2.40274E+04  4.42969E+03  4.06651E+04
 -1.96542E+04  3.35251E+04 -3.03159E+04  1.15309E+04 -2.20983E+04 -1.02163E+04 -4.95742E+03 -1.28905E+04
  9.21981E+02 -1.54155E+03 -7.46987E+03  8.21071E+03 -2.03105E+04  5.16287E+03 -2.01831E+04 -8.97601E+03
 -1.17067E+04 -2.28609E+04  6.27425E+03 -2.73652E+04  1.86424E+04 -1.91231E+04  2.24286E+04 -1.74666E+03
  1.42374E+04  1.57216E+04 -1.52823E+03  2.29888E+04 -1.63338E+04  1.33022E+04 -2.31195E+04 -4.70089E+03
 -1.65272E+04 -2.02904E+04 -2.37414E+03 -2.77907E+04  1.23548E+04 -2.31092E+04  2.28865E+04 -1.17134E+04
  2.18325E+04 -4.46999E+02  1.56678E+04  5.47976E+03  8.26011E+03  1.44410E+03  1.15879E+04 -1.99440E+03
  2.16357E+04  2.94099E+03  2.48090E+04  1.79718E+04  1.69941E+04  3.66876E+04 -2.81055E+03  4.28197E+04
 -2.47505E+04  3.54900E+04 -4.08965E+04  1.86007E+04 -4.33219E+04 -3.29147E+03 -3.50784E+04 -2.57787E+04
 -1.42374E+04 -3.61697E+04  1.24512E+04 -3.19245E+04  2.73925E+04 -1.51964E+04  2.35165E+04  7.31642E+03
  8.08255E+03  1.81176E+04 -1.13635E+04  1.52916E+04 -1.99641E+04  2.72912E+03 -1.52200E+04 -1.23365E+04
 -4.57147E+02 -1.93522E+04  1.02353E+04 -1.39586E+04  1.31022E+04 -1.14279E+03  3.09824E+03  8.24620E+03
 -8.58607E+03  4.08609E+03 -8.79627E+03 -6.50603E+03 -1.62662E+03 -1.77044E+04  1.18363E+04 -1.94241E+04
  2.21931E+04 -1.10348E+04  2.52553E+04  3.50918E+03  2.16500E+04  1.80931E+04  9.93423E+03  2.81830E+04
 -4.87546E+03  3.02302E+04 -1.94938E+04  1.88780E+04 -2.16791E+04  3.87839E+03 -1.48550E+04 -5.64927E+03
 -6.37351E+03 -6.97520E+03 -8.29967E+02  7.63404E+02 -3.08192E+03  3.28215E+03 -7.28743E+03  5.24599E+03
 -1.37032E+04 -9.46896E+02 -1.44246E+04 -1.15353E+04 -5.86006E+03 -1.87509E+04  6.28907E+03 -1.49933E+04
  1.29181E+04 -6.13885E+03  8.99122E+03  4.22573E+03 -2.43766E+02  6.08543E+03 -7.46494E+03  5.17662E+01
 -7.18900E+03 -9.68557E+03 -1.36322E+03 -1.48113E+04  8.47338E+03 -1.57114E+04  1.94208E+04 -8.60170E+03
  2.25918E+04  2.29022E+03  1.68856E+04  1.42627E+04  3.38347E+03  1.83935E+04 -9.10837E+03  1.48758E+04
 -1.19406E+04  4.40226E+03 -6.14125E+03 -3.23182E+03  2.38388E+03 -4.08580E+03  8.09058E+03 -9.28935E+02
  6.96690E+03  7.05460E+03  1.30527E+03  1.22779E+04 -8.49452E+03  1.18029E+04 -1.50843E+04  2.81701E+03
 -1.00489E+04 -7.72940E+03  4.52485E+02 -1.29177E+04  8.35637E+03 -6.74872E+03  8.83968E+03  3.38569E+03
  1.95735E+03  9.46495E+03 -7.80437E+03  1.11995E+04 -1.28492E+04  5.11365E+03 -1.30936E+04 -4.87623E+03
 -7.72304E+03 -1.49209E+04  3.59657E+03 -1.72333E+04  1.46109E+04 -1.03241E+04  1.57607E+04  3.02726E+03
  9.47502E+03  1.27281E+04 -1.23506E+03  1.50453E+04 -1.14958E+04  8.30227E+03 -1.18228E+04 -1.35418E+03
 -1.04360E+04 -9.99273E+03 -1.86677E+03 -1.10951E+04  6.07888E+03 -9.14662E+03  7.13778E+03 -3.96907E+03
  4.69048E+03  1.68047E+03 -9.00534E+02  1.58225E+03 -2.57786E+02 -3.06884E+03  2.50712E+03 -6.46595E+03
  1.12277E+04 -4.23792E+03  1.49409E+04  1.85927E+03  1.47505E+04  1.05192E+04  9.60502E+03  1.99514E+04
 -4.69868E+03  2.27948E+04 -1.88720E+04  1.69260E+04 -2.40965E+04  3.10388E+03 -1.99137E+04 -8.50400E+03
 -1.01948E+04 -1.60733E+04 -4.71421E+02 -1.37624E+04  4.98050E+03 -7.99176E+03  4.59186E+03 -4.79552E+03
  3.41922E+03 -2.87894E+03  3.61896E+03 -3.72905E+03  5.79492E+03 -3.77935E+03  8.01601E+03 -1.62814E+03
  1.03210E+04  2.34480E+03  5.44836E+03  8.87848E+03 -2.16312E+03  1.04299E+04 -1.09501E+04  8.24239E+03
 -1.38668E+04 -1.17052E+03 -9.07290E+03 -9.61906E+03 -1.16528E+03 -1.44736E+04  8.17779E+03 -1.47634E+04
  1.53381E+04 -7.94965E+03  1.83606E+04  2.58834E+03  1.27180E+04  1.26483E+04  1.77647E+03  1.71742E+04
 -6.74389E+03  1.31611E+04 -9.36628E+03  4.83166E+03 -6.61486E+03 -1.72790E+03 -2.83585E+03 -1.94289E+03
 -1.11924E+03 -1.47779E+01 -2.00150E+03  3.20042E+03 -5.64725E+03  2.25856E+03 -9.67193E+03 -1.14515E+03
 -6.82038E+03 -9.72973E+03  2.48951E+02 -1.38556E+04  8.45285E+03 -1.25711E+04  1.34254E+04 -3.49455E+03
  1.39990E+04  6.73747E+03  6.40170E+03  1.20064E+04 -2.81600E+03  1.41567E+04 -9.64568E+03  8.93300E+03
 -1.28583E+04  3.12404E+02 -1.02744E+04 -8.66878E+03 -6.61943E+02 -1.15227E+04  5.91390E+03 -8.77352E+03
  8.64756E+03 -2.81786E+03  5.81092E+03  2.30242E+03  1.83093E+03  4.33981E+03  1.36705E+03  2.10726E+03
  2.75877E+03  8.00355E+02  3.30951E+03  1.75258E+03  3.73803E+03  4.69262E+03  3.74874E+03  7.10769E+03
 -2.87472E+03  1.06799E+04 -9.19126E+03  1.07853E+04 -1.38969E+04  2.69231E+03 -1.45442E+04 -5.76943E+03
 -6.99406E+03 -1.36021E+04  2.10060E+03 -1.53716E+04  8.19207E+03 -9.34496E+03  1.12104E+04 -2.42395E+03
  8.97208E+03  5.61113E+03  2.40950E+03  8.07153E+03 -3.61720E+03  5.01485E+03 -5.80381E+03 -1.15967E+03
 -2.59260E+03 -5.99584E+03  3.52262E+03 -6.10207E+03  5.96549E+03 -2.87369E+03  5.58115E+03  1.17411E+03
  2.91552E+03  2.85954E+03  1.49254E+03  2.32916E+03 -6.76772E+02  1.53204E+03  1.36749E+03 -7.17593E+02
  2.02987E+03 -1.08265E+03  5.61649E+03  2.07823E+03  3.05475E+03  7.56638E+03 -1.53141E+03  9.69479E+03
 -6.46505E+03  6.63311E+03 -8.79677E+03  1.60144E+03 -7.62240E+03 -3.34556E+03 -3.09488E+03 -5.00512E+03
  7.78331E+02 -5.16057E+03  3.83117E+03 -2.41898E+03  2.95109E+03  2.66755E+03 -1.25332E+03  4.78553E+03
 -5.82019E+03  2.65602E+03 -6.75041E+03 -3.34059E+03 -3.45702E+03 -7.30963E+03  1.23265E+03 -7.57425E+03
  4.44862E+03 -4.33259E+03  5.39312E+03 -5.16154E+02  4.82197E+03  2.03635E+03  6.16417E+02  4.23748E+03
 -2.88704E+03  1.35446E+03 -3.16597E+03 -2.66584E+03  1.22586E+03 -5.88646E+03  6.65185E+03 -5.04917E+03
  8.66008E+03  6.26994E+02  8.57850E+03  5.49796E+03  2.31820E+03  8.89575E+03 -3.50737E+03  8.20941E+03
 -7.29560E+03  3.64033E+03 -7.35042E+03 -1.24909E+03 -3.53213E+03 -5.70884E+03  1.49490E+03 -5.70256E+03
  5.49478E+03 -2.96565E+03  4.40231E+03  2.62539E+03  1.52102E+03  5.16822E+03 -5.85567E+02  4.44367E+03
 -2.12998E+03  2.50129E+03 -2.17067E+03  1.10410E+03 -7.34941E+02  1.20324E+03 -1.63754E+03  1.95402E+03
 -2.03178E+03  3.33176E+03 -6.26722E+03  3.22135E+03 -8.88299E+03  4.95070E+02 -1.00351E+04 -6.01898E+03
 -5.29512E+03 -1.15200E+04  2.42038E+03 -1.39029E+04  8.41491E+03 -1.04275E+04  1.31504E+04 -3.87920E+03
  1.18905E+04  2.62916E+03  7.07927E+03  8.21766E+03  5.60590E+02  9.00658E+03 -3.84700E+03  6.94862E+03
 -4.91556E+03  2.74748E+03 -3.06540E+03 -9.57676E+02 -1.22785E+03 -7.48310E+02 -5.85951E+02 -9.49360E+01
 -1.31761E+03  2.02401E+02 -1.88068E+03 -4.13698E+02 -8.02959E+02 -1.88057E+03  2.11055E+02 -3.17960E+03
  4.17247E+03 -3.00740E+03  5.17731E+03 -1.44478E+02  6.52789E+03  5.09593E+03  1.65262E+03  9.39597E+03
 -4.35763E+03  1.03589E+04 -9.71497E+03  6.05230E+03 -1.08443E+04 -1.03125E+03 -8.21500E+03 -6.85561E+03
 -3.63221E+03 -9.07011E+03  2.07959E+03 -8.76394E+03  5.69471E+03 -4.52838E+03  6.23156E+03  7.09629E+02
  3.16811E+03  3.03892E+03 -5.86954E+02  2.55862E+03 -1.67222E+03 -2.49448E+01 -2.22108E+01 -1.98734E+03
  2.48370E+03 -1.03217E+03  3.73261E+03  9.69388E+02  2.13953E+03  3.45441E+03  1.71648E+02  4.47141E+03
 -4.04440E+03  3.98327E+03 -5.87343E+03  6.62077E+02 -5.77848E+03 -4.57601E+03 -5.40771E+02 -7.63842E+03
  4.34444E+03 -6.19965E+03  6.90856E+03 -2.03610E+03  6.89041E+03  1.30820E+03  3.66311E+03  5.53123E+03
  9.59928E+02  5.98756E+03 -2.57017E+03  4.92742E+03 -3.71311E+03  2.54022E+03 -3.03697E+03  2.29847E+01
 -1.89306E+03 -4.48617E+02 -1.77997E+03  5.30639E+02 -3.39559E+03  8.35507E+02 -4.80131E+03 -7.43077E+02
 -4.29118E+03 -2.75155E+03 -1.54801E+03 -6.29112E+03  2.88834E+03 -6.19291E+03  5.28274E+03 -3.06750E+03
  5.75187E+03  5.66838E+02  3.11105E+03  3.95683E+03  2.10483E+01  5.86039E+03 -4.35298E+03  4.03732E+03
