 $NMID ID='MM_0lb_SNR800_20hz_g40_42.RAW', FMTDAT='(8E13.5)'
 TRAMP=1., VOLUME=1. $END
  3.09787E+05  4.54008E+02  3.37230E+05  2.50207E+05  8.45202E+04  3.37257E+05 -1.32348E+05  2.49528E+05
 -1.89374E+05  8.18830E+04 -1.10501E+05 -3.30421E+04  1.82377E+03 -5.01886E+04  5.39513E+04  3.45231E+02
  3.47784E+04  5.24965E+04 -1.67317E+04  7.45180E+04 -5.99602E+04  6.24770E+04 -8.22894E+04  3.11446E+04
 -7.86759E+04 -1.10236E+04 -5.57824E+04 -4.97110E+04 -1.50032E+04 -6.73946E+04  2.63957E+04 -4.42369E+04
  3.85449E+04  4.04467E+03  1.52362E+04  4.67131E+04 -3.35078E+04  4.55451E+04 -6.45516E+04 -5.44001E+02
 -5.11420E+04 -5.54099E+04 -5.69263E+03 -7.43015E+04  3.26462E+04 -5.19676E+04  4.53930E+04 -1.58158E+04
  4.07908E+04  1.08406E+04  3.01231E+04  2.36322E+04  1.58941E+04  2.77517E+04 -4.37124E+03  2.65867E+04
 -2.15768E+04  1.30301E+04 -1.94834E+04 -3.84191E+03  3.68529E+03 -7.68639E+03  2.06989E+04  9.97316E+03
  7.46364E+03  3.21810E+04 -2.94880E+04  3.30652E+04 -5.98020E+04  2.27973E+03 -5.44953E+04 -4.02255E+04
 -1.21678E+04 -5.94044E+04  3.73188E+04 -4.22152E+04  5.40122E+04 -1.81608E+03  3.05702E+04  2.94473E+04
 -6.83429E+03  3.15212E+04 -2.74918E+04  1.19106E+04 -2.60099E+04 -5.75119E+03 -1.32875E+04 -9.42892E+03
 -6.84749E+03 -1.05842E+04 -1.35312E+03 -1.56467E+04  5.97822E+03 -2.25522E+04  1.45537E+04 -1.44155E+04
  1.26555E+04  3.46546E+03 -5.26765E+03  1.28682E+04 -1.82335E+04 -1.71116E+03 -7.95240E+03 -2.88176E+04
  1.98118E+04 -3.90108E+04  4.31205E+04 -1.82636E+04  4.02305E+04  1.76682E+04  1.34640E+04  4.04812E+04
 -1.48084E+04  2.99328E+04 -2.25750E+04  7.41283E+02 -7.45395E+03 -2.55663E+04  2.04239E+04 -2.97105E+04
  3.65885E+04 -6.42731E+03  2.93674E+04  2.21391E+04  1.41026E+04  4.04891E+04 -7.56359E+03  4.25892E+04
 -2.69420E+04  2.83641E+04 -3.50521E+04  7.84356E+03 -3.62309E+04 -1.42942E+04 -2.00780E+04 -3.28840E+04
  6.56809E+03 -3.24263E+04  2.78960E+04 -1.19190E+04  2.58129E+04  1.06336E+04  2.37121E+03  1.67088E+04
 -1.30892E+04  6.59448E+03 -9.21690E+03 -7.78497E+03  6.20409E+03 -9.58587E+03  1.68647E+04  6.65505E+03
  1.19622E+04  2.12964E+04 -6.98430E+03  2.27101E+04 -2.09732E+04  8.06672E+03 -2.35529E+04 -6.90919E+03
 -1.48976E+04 -1.57763E+04 -4.53259E+03 -1.50941E+04  3.44064E+03 -1.26003E+04  1.10896E+04 -1.24499E+04
  1.91300E+04 -1.13777E+04  2.62169E+04  3.09964E+02  2.01271E+04  1.47387E+04  4.07971E+03  3.06777E+04
 -1.52026E+04  2.63656E+04 -2.50295E+04  8.88929E+03 -1.89801E+04 -1.01862E+04 -3.79974E+03 -1.39857E+04
  2.72237E+03 -4.90447E+03 -1.64979E+03  4.63891E+03 -1.15449E+04  5.41510E+03 -1.19590E+04 -3.95405E+03
 -8.01860E+03 -1.39466E+04  4.09170E+03 -1.76727E+04  1.13122E+04 -1.31445E+04  1.27894E+04 -1.11406E+03
  7.85511E+03  9.80235E+03 -6.86203E+02  1.44211E+04 -9.24913E+03  7.83410E+03 -1.37234E+04 -3.18917E+03
 -1.03208E+04 -1.30756E+04 -1.64302E+03 -1.74598E+04  7.90397E+03 -1.38914E+04  1.45902E+04 -6.69655E+03
  1.31166E+04  9.20687E+02  9.49998E+03  3.53985E+03  4.68578E+03  3.04688E+02  6.43282E+03 -1.07483E+03
  1.26599E+04  2.46768E+03  1.29184E+04  1.15934E+04  7.60713E+03  2.22817E+04 -3.22937E+03  2.35475E+04
 -1.40466E+04  1.74347E+04 -2.14780E+04  8.19190E+03 -2.17076E+04 -1.38584E+03 -1.87202E+04 -1.19939E+04
 -9.38519E+03 -1.77351E+04  5.59132E+03 -1.67456E+04  1.48929E+04 -9.72814E+03  1.42271E+04  2.85721E+03
  6.34546E+03  9.72107E+03 -6.43511E+03  9.60068E+03 -1.20597E+04  2.58966E+03 -9.44818E+03 -7.28990E+03
  5.20549E+00 -1.11096E+04  5.25228E+03 -8.43158E+03  6.87489E+03 -1.46274E+03  1.11721E+03  4.33050E+03
 -5.08777E+03  7.66183E+02 -2.90222E+03 -4.19547E+03  1.33315E+03 -8.95639E+03  7.31575E+03 -8.50721E+03
  1.05468E+04 -3.54118E+03  9.56374E+03  2.58477E+03  8.25196E+03  8.08837E+03  4.00987E+03  1.15477E+04
 -9.07213E+02  1.37364E+04 -7.74975E+03  8.48312E+03 -9.47886E+03  2.80689E+03 -7.31744E+03 -1.32203E+03
 -3.93198E+03 -2.40269E+03 -9.33799E+02  1.44369E+03 -1.75503E+03  1.58170E+03 -3.11031E+03  3.27783E+03
 -7.12163E+03 -3.35915E+02 -8.00911E+03 -6.56023E+03 -3.55558E+03 -1.04867E+04  3.07638E+03 -7.26086E+03
  6.17720E+03 -3.32513E+03  4.54639E+03  1.87600E+03  6.58533E+02  2.66647E+03 -2.85742E+03 -1.49486E+02
 -2.97890E+03 -4.55420E+03 -7.72212E+02 -6.16401E+03  3.13895E+03 -6.72925E+03  8.46422E+03 -3.34111E+03
  9.94874E+03  4.19544E+02  7.70620E+03  5.13778E+03  1.61790E+03  7.36283E+03 -4.56183E+03  7.27753E+03
 -6.23013E+03  2.60366E+03 -3.06713E+03 -9.39364E+02  8.36448E+02 -1.32646E+03  4.44511E+03 -1.00246E+03
  3.80268E+03  2.72571E+03  1.22955E+03  5.52161E+03 -3.91796E+03  5.61815E+03 -6.94578E+03  1.69575E+03
 -4.23191E+03 -2.83549E+03  7.39693E+02 -6.03149E+03  2.82476E+03 -3.05392E+03  2.31733E+03  8.35221E+02
  2.01760E+02  2.13739E+03 -3.61754E+03  3.78681E+03 -4.05185E+03  2.14923E+03 -3.08995E+03 -7.75415E+02
 -2.30049E+03 -4.79124E+03  1.05254E+03 -5.63239E+03  4.75401E+03 -4.08319E+03  5.08485E+03  5.78142E+02
  3.87987E+03  4.29386E+03  3.16738E+02  6.16580E+03 -4.24421E+03  3.47455E+03 -4.36621E+03 -3.76031E+02
 -5.00501E+03 -4.41108E+03 -1.19418E+03 -4.53980E+03  2.05631E+03 -4.26308E+03  2.24076E+03 -2.66088E+03
  2.37976E+03 -4.15087E+01  2.87191E+02  9.04591E+02  6.43303E+02  2.55543E+01 -4.08856E+02 -1.41026E+03
  2.66430E+03 -4.10282E+02  4.19623E+03  4.29840E+02  4.59552E+03  2.15962E+03  4.73081E+03  5.64142E+03
 -9.45231E+02  6.68532E+03 -6.47381E+03  5.16530E+03 -8.11192E+03  1.05750E+03 -6.49244E+03 -1.97006E+03
 -3.50168E+03 -5.51021E+03 -5.39305E+02 -4.01099E+03  1.98534E+03 -1.51791E+03  1.36047E+03 -1.95571E+03
  1.08126E+03 -1.29141E+03  1.84143E+03 -2.25937E+03  3.26478E+03 -9.14650E+02  3.11611E+03  6.90102E+02
  4.06619E+03  1.09746E+03  5.69536E+02  2.62381E+03 -1.48404E+03  2.01204E+03 -3.87360E+03  1.79305E+03
 -3.96839E+03 -9.82686E+02 -1.17045E+03 -2.72249E+03  3.78869E+02 -4.00991E+03  2.64726E+03 -4.42708E+03
  4.14306E+03 -2.73207E+03  5.24116E+03 -9.51590E+01  4.01814E+03  3.34265E+03  9.67519E+02  4.77870E+03
 -1.68596E+03  5.18655E+03 -2.66078E+03  1.62277E+03 -1.22300E+03 -8.51174E+02 -4.53005E+02 -3.78242E+02
 -4.22852E+02  3.65203E+02 -1.16586E+03  1.86996E+03 -2.38117E+03  1.12009E+03 -3.24902E+03 -1.06393E+02
 -1.10020E+03 -3.40061E+03  8.22070E+02 -3.80479E+03  2.09612E+03 -3.50793E+03  2.55777E+03 -6.43488E+02
  3.19119E+03  1.85113E+03  1.49295E+03  2.27440E+03 -5.75669E+02  3.64249E+03 -1.87300E+03  2.12912E+03
 -3.00955E+03  7.07030E+02 -2.70590E+03 -1.81247E+03 -1.69626E+02 -2.57594E+03  1.19417E+03 -1.95168E+03
  2.08798E+03 -1.35988E+03  1.52788E+03  2.49659E+02  2.19743E+02  1.56526E+03  9.38947E+02  2.26050E+02
  1.49162E+03  7.86335E+02  1.08016E+03  1.07925E+03  8.31392E+02  1.66879E+03  1.30876E+03  1.15701E+03
 -1.03613E+03  2.04994E+03 -1.85549E+03  3.45560E+03 -1.99941E+03  1.14331E+03 -3.35820E+03  1.82147E+02
 -1.27461E+03 -2.55741E+03  4.76420E+02 -3.77640E+03  1.32861E+03 -1.84065E+03  2.37963E+03 -6.71770E+02
  1.99705E+03  1.52952E+03  4.12698E+02  1.85386E+03 -6.69088E+02  1.04932E+03 -6.02747E+02  4.52864E+01
 -2.86198E+02 -1.33187E+03  1.10219E+03 -1.25489E+03  9.65764E+02 -6.18797E+02  1.00541E+03  1.38861E+02
  5.42950E+02  8.21465E+01  8.35444E+02 -3.77369E+02 -2.71197E+02  5.08030E+02  1.44132E+03 -2.72756E+02
 -3.23293E+02  3.01524E+01  1.57253E+03  3.33578E+02 -3.69279E+01  1.81665E+03 -6.14633E+01  2.23801E+03
 -1.28769E+03  5.38230E+02 -1.24831E+03  3.14603E+02 -1.67781E+03 -4.40639E+02 -1.22849E+02 -4.47458E+02
  4.18034E+02 -1.13015E+03  8.74756E+02 -5.18250E+02  5.80484E+02  1.26211E+03 -7.84343E+02  8.51017E+02
 -1.11383E+03  6.31660E+02 -7.89938E+02 -1.05043E+03 -5.42394E+02 -1.60403E+03  7.05260E+01 -1.10792E+03
  1.27334E+02  1.81927E+01  1.50836E+02 -6.90505E+01  1.02029E+03 -3.43729E+02  5.30491E+02  1.03047E+03
 -1.48244E+02  2.91163E+02 -8.06826E+02 -8.37099E+01  4.49660E+02 -4.35166E+02  1.26354E+03 -3.46836E+02
  6.53651E+02  9.85219E+01  2.37389E+03  2.05106E+02  9.75868E+02  1.18421E+03 -1.59347E+02  1.34908E+03
 -1.14239E+03  3.10697E+02 -9.09016E+02 -1.13340E+02 -6.73925E+02 -1.10370E+03  2.52653E+02 -1.19160E+02
  1.10867E+03 -4.88612E+02  4.38525E+02  5.44257E+02  1.89508E+02  1.16485E+03  1.12734E+02  8.53002E+02
 -3.70723E+02  8.41011E+02 -3.51988E+02  3.77064E+02 -4.91947E+01  6.80030E+02 -7.81837E+02  3.71293E+02
 -2.78797E+02  8.13768E+02 -1.53269E+03  2.97718E+02 -1.28526E+03  2.52240E+02 -2.01797E+03 -4.13560E+02
 -1.11451E+03 -1.80395E+03  3.62353E+02 -2.27459E+03  4.42369E+02 -1.95967E+03  2.08694E+03 -7.46856E+02
  1.88820E+03 -3.15036E+02  9.96457E+02  1.24455E+03 -4.98606E+02  6.95120E+02 -5.63334E+02  9.00720E+02
 -8.20082E+02  7.06782E+02 -1.58438E+02  7.60415E+00 -2.45783E+02  5.48463E+01 -6.86391E+02 -6.14812E+01
 -1.17764E+03 -8.06513E+01 -6.43901E+02  1.80063E+02  7.09306E+02 -4.64216E+02 -3.86544E+02 -3.31084E+02
  1.17697E+03 -5.00927E+02  1.08085E+02 -1.20863E+02  9.24388E+02  4.91678E+02 -5.53113E+02  1.08783E+03
 -7.92029E+02  1.81870E+03 -1.40673E+03  8.22219E+02 -1.30794E+03 -2.71989E+02 -9.65198E+02 -8.87666E+02
 -6.52152E+02 -8.49574E+02  1.98467E+02 -8.75982E+02  2.95914E+02 -4.31672E+02  6.91313E+01  2.75187E+02
  5.19584E+02  2.24165E+02 -1.22924E+02  1.41264E+02 -2.62865E+02  2.11363E+02  8.13287E+01  7.13676E+01
  4.44848E+02  3.22248E+02  2.38718E+01  4.77483E+02 -3.87779E+01  3.89154E+02  5.00269E+02  7.66781E+01
 -2.98221E+02  4.04402E+02 -7.33986E+01  2.54692E+02 -6.34268E+02 -1.99952E+02  1.46899E+02 -8.41947E+02
  1.57542E+02 -2.76270E+02  2.48198E+02  9.40939E+01  7.78124E+02 -6.92708E+02  3.83959E+02  4.60671E+02
  5.30742E+02  2.71928E+02 -7.96554E+01  4.72827E+02 -3.33342E+02  5.86145E+02 -3.36652E+02  2.96218E+02
 -6.41424E+01 -8.93000E+01 -4.12036E+02 -1.71035E+01 -3.55454E+02  9.70125E+01 -8.15982E+02 -4.51114E+02
 -1.29040E+03  4.28995E+02 -2.64811E+02 -7.36746E+02  6.03325E+02 -1.67598E+03  4.61079E+02  3.62810E+01
  2.10009E+02 -4.71330E+01 -4.72463E+02  2.04759E+02 -7.77143E+01  5.01452E+02 -1.89935E+02  6.10011E+02
