 $NMID ID='MM_0lb_SNR800_12hz_g55_41.RAW', FMTDAT='(8E13.5)'
 TRAMP=1., VOLUME=1. $END
  3.09902E+05  4.41257E+02  3.37572E+05  2.50671E+05  8.45821E+04  3.38347E+05 -1.32551E+05  2.51488E+05
 -1.90946E+05  8.32892E+04 -1.11949E+05 -3.25736E+04  2.10775E+02 -5.05503E+04  5.40113E+04 -2.77219E+02
  3.53741E+04  5.27741E+04 -1.70094E+04  7.54650E+04 -6.07359E+04  6.39798E+04 -8.48992E+04  3.21724E+04
 -8.19517E+04 -1.15621E+04 -5.76683E+04 -5.19030E+04 -1.52686E+04 -7.05615E+04  2.80674E+04 -4.61775E+04
  4.05452E+04  3.86236E+03  1.66958E+04  4.81800E+04 -3.49236E+04  4.76490E+04 -6.75594E+04  2.96682E+02
 -5.44297E+04 -5.76701E+04 -6.86016E+03 -7.79309E+04  3.44750E+04 -5.61825E+04  4.89609E+04 -1.76040E+04
  4.45519E+04  1.12660E+04  3.23225E+04  2.64168E+04  1.59983E+04  3.00484E+04 -5.61103E+03  2.74362E+04
 -2.22910E+04  1.21356E+04 -1.83409E+04 -5.42297E+03  6.13134E+03 -7.33549E+03  2.29285E+04  1.33517E+04
  7.12228E+03  3.61579E+04 -3.29549E+04  3.64102E+04 -6.49169E+04  2.04582E+03 -5.79951E+04 -4.40751E+04
 -1.24845E+04 -6.46640E+04  4.09276E+04 -4.65699E+04  6.00426E+04 -2.38924E+03  3.52668E+04  3.37278E+04
 -5.48970E+03  3.76257E+04 -3.12906E+04  1.76730E+04 -3.21878E+04 -4.03670E+03 -1.78608E+04 -1.14276E+04
 -8.81398E+03 -1.43211E+04 -2.89428E+02 -1.90578E+04  8.12885E+03 -2.29819E+04  1.57880E+04 -1.30057E+04
  1.08497E+04  5.69294E+03 -9.62073E+03  1.28408E+04 -2.23453E+04 -5.78762E+03 -8.33770E+03 -3.59712E+04
  2.42004E+04 -4.53597E+04  5.02653E+04 -2.04833E+04  4.73017E+04  2.06210E+04  1.64767E+04  4.54742E+04
 -1.65130E+04  3.46956E+04 -2.68995E+04  2.23203E+03 -1.08602E+04 -2.86870E+04  2.13546E+04 -3.52134E+04
  4.29629E+04 -1.00422E+04  3.83097E+04  2.45134E+04  1.99430E+04  4.91314E+04 -8.20205E+03  5.35721E+04
 -3.34629E+04  3.62562E+04 -4.49503E+04  1.04111E+04 -4.54910E+04 -1.78226E+04 -2.50238E+04 -4.00475E+04
  7.66560E+03 -4.00944E+04  3.30150E+04 -1.61927E+04  3.07638E+04  1.09070E+04  4.64706E+03  1.97298E+04
 -1.36964E+04  9.08282E+03 -1.05450E+04 -7.54761E+03  5.57704E+03 -1.09988E+04  1.83961E+04  5.81484E+03
  1.40229E+04  2.24027E+04 -5.74242E+03  2.61242E+04 -2.29837E+04  1.30254E+04 -3.00041E+04 -3.70406E+03
 -2.31998E+04 -1.74548E+04 -1.01719E+04 -2.33118E+04  4.23497E+03 -2.30114E+04  1.78067E+04 -2.09364E+04
  2.92873E+04 -1.38514E+04  3.52480E+04  3.87350E+03  2.55851E+04  2.24575E+04  4.64802E+03  3.91945E+04
 -1.86781E+04  3.24576E+04 -2.92720E+04  1.10403E+04 -2.15575E+04 -1.00998E+04 -4.30544E+03 -1.32739E+04
  1.17189E+03 -1.53085E+03 -6.13162E+03  7.34537E+03 -1.84509E+04  5.41535E+03 -1.81854E+04 -8.35818E+03
 -1.10347E+04 -2.13575E+04  5.45439E+03 -2.55365E+04  1.72420E+04 -1.83668E+04  2.04101E+04 -1.50202E+03
  1.30130E+04  1.44995E+04 -1.34231E+03  2.11518E+04 -1.48682E+04  1.22406E+04 -2.13128E+04 -4.63041E+03
 -1.56301E+04 -1.89039E+04 -2.16118E+03 -2.58033E+04  1.16710E+04 -2.11390E+04  2.10819E+04 -1.09523E+04
  1.97396E+04 -1.15505E+02  1.41924E+04  4.68298E+03  7.78864E+03  9.65467E+02  1.06623E+04 -1.64538E+03
  1.95647E+04  2.76046E+03  2.25562E+04  1.67902E+04  1.50325E+04  3.39644E+04 -2.47929E+03  3.90289E+04
 -2.25013E+04  3.22374E+04 -3.65755E+04  1.65481E+04 -3.88637E+04 -2.56439E+03 -3.18630E+04 -2.26439E+04
 -1.31719E+04 -3.23253E+04  1.11822E+04 -2.86208E+04  2.46024E+04 -1.38177E+04  2.18922E+04  6.53206E+03
  7.81259E+03  1.67132E+04 -1.04575E+04  1.39900E+04 -1.85162E+04  2.29288E+03 -1.40821E+04 -1.13449E+04
 -2.39367E+02 -1.72098E+04  9.34112E+03 -1.28870E+04  1.14193E+04 -1.19360E+03  2.68211E+03  7.66478E+03
 -7.59939E+03  3.64216E+03 -7.52788E+03 -5.83454E+03 -1.23385E+03 -1.58037E+04  1.07308E+04 -1.69779E+04
  1.98571E+04 -9.59373E+03  2.20839E+04  3.43626E+03  1.90719E+04  1.56535E+04  8.96593E+03  2.46914E+04
 -4.58531E+03  2.64990E+04 -1.70849E+04  1.62169E+04 -1.90937E+04  3.66095E+03 -1.34124E+04 -4.63180E+03
 -5.95327E+03 -6.42760E+03 -8.86441E+02  6.01655E+02 -2.82589E+03  2.70617E+03 -6.21285E+03  4.91624E+03
 -1.21808E+04 -5.26418E+02 -1.32368E+04 -1.03549E+04 -5.24045E+03 -1.68743E+04  5.35502E+03 -1.32864E+04
  1.11256E+04 -5.75664E+03  7.82799E+03  3.63791E+03  7.86894E+01  5.42371E+03 -6.56351E+03 -2.89906E+02
 -6.17389E+03 -8.31820E+03 -1.00937E+03 -1.28694E+04  7.32094E+03 -1.37004E+04  1.67705E+04 -7.18895E+03
  1.94944E+04  1.71837E+03  1.45034E+04  1.14762E+04  2.83104E+03  1.59841E+04 -8.09920E+03  1.33604E+04
 -1.09504E+04  4.03104E+03 -5.35469E+03 -2.50626E+03  2.14004E+03 -3.71551E+03  7.07794E+03 -8.86403E+02
  6.34853E+03  5.89780E+03  1.31766E+03  1.02664E+04 -7.71403E+03  1.01390E+04 -1.28965E+04  2.68027E+03
 -8.56423E+03 -7.14883E+03  3.47359E+02 -1.13392E+04  7.17177E+03 -5.68469E+03  7.46292E+03  2.45815E+03
  1.84581E+03  7.94236E+03 -6.57995E+03  9.03029E+03 -1.04914E+04  3.96615E+03 -1.10856E+04 -3.77373E+03
 -6.15507E+03 -1.23886E+04  3.02578E+03 -1.42395E+04  1.22238E+04 -8.71290E+03  1.32063E+04  2.30974E+03
  8.17591E+03  1.08100E+04 -1.27389E+03  1.28359E+04 -9.69595E+03  7.03651E+03 -9.74165E+03 -8.45572E+02
 -9.00175E+03 -8.63241E+03 -1.70122E+03 -9.82774E+03  4.74266E+03 -7.81552E+03  5.99952E+03 -3.77791E+03
  4.32049E+03  1.40542E+03 -7.33028E+02  1.55941E+03 -3.59532E+02 -2.32956E+03  1.46448E+03 -5.63157E+03
  8.81545E+03 -3.33579E+03  1.23049E+04  1.00538E+03  1.19693E+04  8.15060E+03  8.34818E+03  1.60512E+04
 -3.66690E+03  1.84628E+04 -1.54952E+04  1.39695E+04 -2.04460E+04  2.42956E+03 -1.62225E+04 -6.95608E+03
 -8.53479E+03 -1.32337E+04 -5.28713E+02 -1.10640E+04  4.13171E+03 -6.35107E+03  4.14536E+03 -4.13429E+03
  2.97091E+03 -2.54255E+03  3.23072E+03 -3.54505E+03  4.68306E+03 -3.17941E+03  6.55857E+03 -9.77663E+02
  8.50388E+03  2.04260E+03  4.21428E+03  7.06296E+03 -1.82417E+03  7.95189E+03 -8.79533E+03  6.32157E+03
 -1.11943E+04 -5.83665E+02 -6.61606E+03 -7.50240E+03 -6.50141E+02 -1.18433E+04  6.98051E+03 -1.16071E+04
  1.19807E+04 -6.54477E+03  1.47198E+04  1.49490E+03  1.02648E+04  1.02910E+04  1.68649E+03  1.34938E+04
 -5.41785E+03  1.13587E+04 -8.00100E+03  3.63337E+03 -5.00820E+03 -1.33543E+03 -2.11740E+03 -1.54854E+03
 -1.03179E+03  2.39289E+02 -1.51217E+03  2.40607E+03 -4.74252E+03  1.86697E+03 -7.81912E+03 -1.17355E+03
 -5.17744E+03 -7.75514E+03  3.44659E+02 -1.08857E+04  6.56436E+03 -1.00444E+04  1.02659E+04 -2.97879E+03
  1.03284E+04  5.55574E+03  4.75764E+03  9.18974E+03 -1.80474E+03  1.09540E+04 -7.78821E+03  6.45157E+03
 -1.00137E+04  5.65890E+02 -8.06673E+03 -6.33263E+03 -8.28698E+02 -8.89694E+03  4.35062E+03 -6.57783E+03
  6.74069E+03 -2.09729E+03  4.61193E+03  1.73721E+03  1.22866E+03  3.34183E+03  1.34397E+03  1.54553E+03
  2.75108E+03  9.52652E+02  2.56873E+03  1.50185E+03  3.33435E+03  3.77774E+03  2.50136E+03  5.14630E+03
 -2.27389E+03  8.37582E+03 -7.22537E+03  8.18975E+03 -1.00433E+04  2.39431E+03 -1.09352E+04 -4.03924E+03
 -5.07704E+03 -1.05059E+04  1.84895E+03 -1.19257E+04  6.20711E+03 -7.49135E+03  8.85891E+03 -2.12426E+03
  6.51748E+03  4.08752E+03  1.48466E+03  5.95444E+03 -3.04071E+03  4.03289E+03 -4.10215E+03 -6.36034E+02
 -2.03086E+03 -4.01675E+03  2.80390E+03 -4.44807E+03  4.16845E+03 -2.28921E+03  4.16581E+03  7.89836E+02
  2.34493E+03  1.79212E+03  1.26004E+03  1.56423E+03 -4.11265E+02  1.80682E+03  1.54120E+03 -7.98485E+02
  1.54822E+03 -6.47912E+02  4.42537E+03  1.52636E+03  2.36172E+03  5.71917E+03 -1.07332E+03  7.55740E+03
 -4.85559E+03  4.62024E+03 -6.39062E+03  1.24080E+03 -5.68432E+03 -2.30660E+03 -2.22347E+03 -4.07148E+03
  8.53537E+02 -3.80147E+03  2.50708E+03 -2.13338E+03  2.15539E+03  2.20224E+03 -1.22453E+03  3.41906E+03
 -4.52676E+03  1.56660E+03 -4.71231E+03 -2.30224E+03 -2.42054E+03 -5.78312E+03  1.13060E+03 -5.44040E+03
  2.92102E+03 -3.03422E+03  3.81314E+03 -1.87065E+02  3.64747E+03  9.36927E+02  3.88752E+02  3.18794E+03
 -1.73274E+03  9.41671E+02 -2.80513E+03 -1.95401E+03  8.83707E+02 -4.10126E+03  4.74486E+03 -3.42853E+03
  5.70556E+03  5.40473E+02  6.54153E+03  3.61329E+03  2.36074E+03  6.41683E+03 -2.17963E+03  6.09711E+03
 -5.27802E+03  2.46462E+03 -5.39005E+03 -3.28308E+02 -2.86328E+03 -4.31452E+03  9.64432E+02 -3.69978E+03
  4.12180E+03 -2.23421E+03  2.97683E+03  1.63590E+03  9.33517E+02  3.38283E+03 -2.20133E+02  2.72103E+03
 -1.63217E+03  2.06385E+03 -1.38342E+03  7.14645E+02 -8.30018E+02  5.44056E+02 -1.09980E+03  1.13078E+03
 -1.76133E+03  2.46961E+03 -4.51145E+03  2.11316E+03 -6.09140E+03  2.28965E+02 -7.27826E+03 -3.89391E+03
 -3.70966E+03 -8.08945E+03  1.69036E+03 -9.70449E+03  5.38163E+03 -7.57431E+03  8.97560E+03 -2.91904E+03
  8.74878E+03  1.46290E+03  5.04805E+03  5.72493E+03 -6.73413E+01  6.47558E+03 -2.43664E+03  4.70418E+03
 -3.32284E+03  1.96319E+03 -2.21685E+03 -4.35912E+02 -4.73289E+02 -3.86717E+02 -6.38423E+02  2.48064E+02
 -1.81061E+03  1.15284E+02 -1.57894E+03 -1.72928E+02 -5.44457E+02 -1.45343E+03 -3.18477E+01 -2.36020E+03
  3.34948E+03 -2.12704E+03  3.23455E+03  2.08602E+02  4.23128E+03  3.36232E+03  3.44256E+02  6.21500E+03
 -2.94265E+03  7.42034E+03 -6.66707E+03  4.16778E+03 -7.30354E+03 -4.52102E+02 -5.54696E+03 -4.55467E+03
 -2.39691E+03 -5.86630E+03  1.27558E+03 -5.75588E+03  3.86250E+03 -2.91971E+03  3.54226E+03  6.93504E+01
  2.46553E+03  2.21413E+03 -3.09943E+01  1.88088E+03 -1.05910E+03  7.86283E+01  3.28222E+02 -1.11090E+03
  1.80055E+03 -6.49216E+02  2.27050E+03  7.99317E+02  1.42491E+03  2.38347E+03  2.17775E+02  2.85699E+03
 -2.48233E+03  2.89234E+03 -3.86875E+03  5.24991E+02 -3.45167E+03 -2.86069E+03 -4.19847E+02 -4.95430E+03
  2.88034E+03 -4.38014E+03  4.38947E+03 -1.15363E+03  4.79114E+03  6.56005E+02  2.61563E+03  3.64983E+03
  4.31071E+02  4.09677E+03 -1.69601E+03  2.54712E+03 -2.74132E+03  1.99074E+03 -2.23495E+03  3.91197E+02
 -1.08492E+03 -2.25181E+02 -1.19127E+03  2.68546E+02 -2.07546E+03  4.71875E+02 -2.80971E+03 -1.12464E+03
 -3.34997E+03 -1.91216E+03 -9.35185E+02 -3.83734E+03  1.82855E+03 -4.32356E+03  3.63570E+03 -1.88549E+03
  3.63887E+03  4.62898E+02  1.56595E+03  2.48134E+03 -1.90634E+02  4.14205E+03 -2.66333E+03  2.38155E+03
