 $NMID ID='MM_0lb_SNR800_10hz_g50_87.RAW', FMTDAT='(8E13.5)'
 TRAMP=1., VOLUME=1. $END
  3.09698E+05  3.01791E+02  3.37637E+05  2.51044E+05  8.52217E+04  3.38055E+05 -1.32720E+05  2.51315E+05
 -1.90798E+05  8.38338E+04 -1.12227E+05 -3.19624E+04  4.60014E+02 -5.03108E+04  5.37205E+04 -8.52939E+02
  3.55307E+04  5.28223E+04 -1.63744E+04  7.63476E+04 -6.09682E+04  6.42257E+04 -8.50165E+04  3.25164E+04
 -8.20554E+04 -1.13797E+04 -5.82221E+04 -5.22107E+04 -1.51322E+04 -7.06575E+04  2.78672E+04 -4.68848E+04
  4.07956E+04  4.06889E+03  1.64997E+04  4.83460E+04 -3.42393E+04  4.79667E+04 -6.78513E+04  3.48065E+02
 -5.45162E+04 -5.76087E+04 -6.98970E+03 -7.84241E+04  3.46023E+04 -5.62399E+04  4.95057E+04 -1.81744E+04
  4.48594E+04  1.15572E+04  3.25327E+04  2.64186E+04  1.60762E+04  3.00830E+04 -6.23499E+03  2.76290E+04
 -2.22648E+04  1.19793E+04 -1.77663E+04 -5.65645E+03  6.60913E+03 -7.50185E+03  2.32775E+04  1.38549E+04
  6.97410E+03  3.70669E+04 -3.34004E+04  3.67746E+04 -6.54111E+04  2.46125E+03 -5.86052E+04 -4.38778E+04
 -1.20792E+04 -6.52890E+04  4.09513E+04 -4.70716E+04  6.05461E+04 -2.21210E+03  3.63293E+04  3.37219E+04
 -5.63155E+03  3.88767E+04 -3.16322E+04  1.79274E+04 -3.30205E+04 -3.56603E+03 -1.88139E+04 -1.19525E+04
 -9.08293E+03 -1.47643E+04 -3.69503E+02 -1.98883E+04  8.35334E+03 -2.34818E+04  1.56830E+04 -1.28386E+04
  1.08426E+04  5.92463E+03 -9.96891E+03  1.24687E+04 -2.30390E+04 -6.28528E+03 -8.44542E+03 -3.65121E+04
  2.47578E+04 -4.64345E+04  5.10827E+04 -2.09893E+04  4.82858E+04  2.03211E+04  1.69850E+04  4.67904E+04
 -1.64902E+04  3.52360E+04 -2.69306E+04  2.20296E+03 -1.12240E+04 -2.90456E+04  2.15670E+04 -3.62134E+04
  4.36387E+04 -1.08020E+04  3.95652E+04  2.44867E+04  2.11830E+04  5.02588E+04 -8.34796E+03  5.45782E+04
 -3.49431E+04  3.76625E+04 -4.65323E+04  1.09284E+04 -4.66016E+04 -1.82005E+04 -2.55129E+04 -4.09839E+04
  7.94396E+03 -4.13421E+04  3.36768E+04 -1.66516E+04  3.13643E+04  1.12214E+04  4.63746E+03  2.05483E+04
 -1.37559E+04  9.30320E+03 -1.07053E+04 -7.45534E+03  5.78822E+03 -1.11836E+04  1.84826E+04  5.33061E+03
  1.42261E+04  2.27510E+04 -5.15817E+03  2.67139E+04 -2.30421E+04  1.35865E+04 -3.08534E+04 -2.98896E+03
 -2.44236E+04 -1.79319E+04 -1.10533E+04 -2.40379E+04  4.11472E+03 -2.44562E+04  1.92680E+04 -2.22823E+04
  3.07119E+04 -1.39374E+04  3.71208E+04  4.78402E+03  2.61535E+04  2.36526E+04  4.25896E+03  3.99931E+04
 -1.93939E+04  3.33288E+04 -2.99078E+04  1.17639E+04 -2.21292E+04 -1.02593E+04 -4.68810E+03 -1.29945E+04
  5.63696E+02 -1.47274E+03 -7.09305E+03  7.72998E+03 -1.93972E+04  4.84354E+03 -1.91850E+04 -9.23847E+03
 -1.19053E+04 -2.24129E+04  5.70154E+03 -2.66236E+04  1.81329E+04 -1.94352E+04  2.14224E+04 -2.07179E+03
  1.38228E+04  1.53778E+04 -1.17357E+03  2.24149E+04 -1.60243E+04  1.29269E+04 -2.27407E+04 -4.68303E+03
 -1.64247E+04 -2.04484E+04 -1.66707E+03 -2.73067E+04  1.18182E+04 -2.21929E+04  2.18983E+04 -1.15816E+04
  2.11585E+04 -8.26856E+01  1.54217E+04  4.95170E+03  8.08388E+03  1.32326E+03  1.15390E+04 -2.00622E+03
  2.07791E+04  3.09303E+03  2.41612E+04  1.77787E+04  1.68025E+04  3.60917E+04 -3.28817E+03  4.22510E+04
 -2.40326E+04  3.53005E+04 -3.96723E+04  1.82811E+04 -4.26593E+04 -3.26968E+03 -3.43283E+04 -2.43437E+04
 -1.34036E+04 -3.53451E+04  1.24011E+04 -3.09366E+04  2.68417E+04 -1.48982E+04  2.32825E+04  7.81800E+03
  8.08210E+03  1.79680E+04 -1.09323E+04  1.46085E+04 -1.93181E+04  2.67522E+03 -1.45981E+04 -1.23965E+04
 -8.49976E+01 -1.86100E+04  9.79303E+03 -1.37750E+04  1.29244E+04 -1.21517E+03  3.14766E+03  8.18085E+03
 -8.66683E+03  3.68967E+03 -8.38591E+03 -6.88671E+03 -1.47040E+03 -1.73232E+04  1.13595E+04 -1.87545E+04
  2.17253E+04 -1.01563E+04  2.46671E+04  3.11648E+03  2.15349E+04  1.78306E+04  9.71996E+03  2.74555E+04
 -5.31816E+03  2.93259E+04 -1.90548E+04  1.84223E+04 -2.11902E+04  3.77057E+03 -1.44162E+04 -5.36679E+03
 -6.25387E+03 -6.45011E+03 -6.90158E+02  2.80218E+02 -2.50512E+03  3.43182E+03 -6.74554E+03  5.43661E+03
 -1.32768E+04 -1.26037E+03 -1.42666E+04 -1.11130E+04 -5.61296E+03 -1.85534E+04  6.06438E+03 -1.48246E+04
  1.21212E+04 -5.60733E+03  8.60209E+03  4.01490E+03 -6.29413E+01  5.78907E+03 -7.41793E+03  9.72749E+01
 -6.89379E+03 -9.46687E+03 -8.71528E+02 -1.40251E+04  8.41720E+03 -1.53306E+04  1.88792E+04 -8.21072E+03
  2.19431E+04  2.15443E+03  1.60876E+04  1.30499E+04  2.88368E+03  1.75329E+04 -9.02998E+03  1.47938E+04
 -1.18139E+04  4.39094E+03 -6.26475E+03 -3.12174E+03  2.00738E+03 -4.37527E+03  7.62585E+03 -1.09745E+03
  6.99533E+03  6.52623E+03  1.17284E+03  1.19944E+04 -8.36660E+03  1.11097E+04 -1.45123E+04  2.58126E+03
 -9.91465E+03 -7.85877E+03  4.16529E+02 -1.28496E+04  8.03174E+03 -6.70511E+03  8.85839E+03  3.12477E+03
  1.92916E+03  9.29764E+03 -7.88217E+03  1.05833E+04 -1.21699E+04  4.79925E+03 -1.31235E+04 -4.60079E+03
 -7.46250E+03 -1.46978E+04  3.33705E+03 -1.63484E+04  1.41166E+04 -1.02578E+04  1.53115E+04  2.68577E+03
  9.19457E+03  1.20464E+04 -1.12328E+03  1.45451E+04 -1.05539E+04  7.94043E+03 -1.18117E+04 -1.32584E+03
 -1.01540E+04 -9.98603E+03 -1.75762E+03 -1.10686E+04  6.03148E+03 -9.22024E+03  7.16516E+03 -3.31846E+03
  4.75835E+03  1.82765E+03 -1.26390E+03  2.05322E+03 -8.05323E+02 -2.81509E+03  2.05301E+03 -6.88584E+03
  9.86739E+03 -4.29130E+03  1.44469E+04  1.59569E+03  1.41636E+04  9.97741E+03  9.53686E+03  1.91487E+04
 -4.35765E+03  2.21142E+04 -1.78832E+04  1.58227E+04 -2.31792E+04  3.30228E+03 -1.88418E+04 -8.21593E+03
 -9.62101E+03 -1.57827E+04  1.67837E+02 -1.33420E+04  4.81428E+03 -7.86340E+03  4.50080E+03 -4.90387E+03
  3.62411E+03 -3.14888E+03  3.91030E+03 -3.27318E+03  5.40159E+03 -3.14682E+03  7.36124E+03 -7.82703E+02
  1.00220E+04  2.34708E+03  5.02529E+03  8.65090E+03 -2.09308E+03  1.00941E+04 -1.06085E+04  7.78562E+03
 -1.36908E+04 -1.62588E+03 -8.41990E+03 -9.69535E+03 -1.21367E+03 -1.42741E+04  7.98190E+03 -1.38936E+04
  1.48100E+04 -8.01675E+03  1.77148E+04  2.52094E+03  1.26156E+04  1.26228E+04  1.96709E+03  1.59886E+04
 -6.55356E+03  1.29474E+04 -9.10298E+03  4.80661E+03 -6.44473E+03 -1.46820E+03 -2.50782E+03 -2.14147E+03
 -1.39408E+03  1.09008E+02 -1.76484E+03  2.65921E+03 -5.70927E+03  2.26483E+03 -9.09677E+03 -1.17200E+03
 -6.20979E+03 -9.16318E+03  9.04227E+00 -1.32315E+04  8.26977E+03 -1.18806E+04  1.29647E+04 -3.97122E+03
  1.27993E+04  6.27471E+03  6.15512E+03  1.16343E+04 -2.65592E+03  1.32058E+04 -9.36721E+03  8.41471E+03
 -1.25339E+04  5.57458E+02 -9.92854E+03 -8.06947E+03 -1.22082E+03 -1.08343E+04  5.79157E+03 -8.39026E+03
  8.35667E+03 -2.55373E+03  5.84155E+03  2.34653E+03  2.10377E+03  3.73043E+03  1.49380E+03  2.01650E+03
  2.51384E+03  9.20103E+02  3.31513E+03  2.09241E+03  3.92549E+03  4.77412E+03  3.44760E+03  6.94478E+03
 -2.80759E+03  1.05447E+04 -9.09050E+03  1.05443E+04 -1.34045E+04  2.54357E+03 -1.37532E+04 -5.77051E+03
 -6.50447E+03 -1.33592E+04  1.82890E+03 -1.46067E+04  7.65692E+03 -8.96373E+03  1.07335E+04 -2.15164E+03
  8.28095E+03  4.96056E+03  2.17991E+03  7.25059E+03 -3.72157E+03  4.68469E+03 -5.35061E+03 -1.31167E+03
 -2.61487E+03 -5.71632E+03  2.68221E+03 -5.97986E+03  5.68866E+03 -2.53735E+03  5.24369E+03  1.44460E+03
  2.96931E+03  2.60830E+03  1.40215E+03  2.19050E+03 -8.61954E+02  2.48737E+03  1.32527E+03 -2.68778E+02
  2.42898E+03 -9.06320E+02  5.34122E+03  2.40931E+03  2.71362E+03  7.11030E+03 -1.32618E+03  9.37687E+03
 -6.37459E+03  5.92020E+03 -8.44824E+03  1.54357E+03 -7.42008E+03 -3.43167E+03 -2.46299E+03 -5.01999E+03
  1.14800E+03 -5.13298E+03  3.55819E+03 -2.67741E+03  2.77132E+03  2.51145E+03 -1.40519E+03  4.50396E+03
 -5.34977E+03  2.82495E+03 -5.95096E+03 -3.05986E+03 -3.67579E+03 -7.36403E+03  1.36340E+03 -7.32386E+03
  4.56308E+03 -4.23718E+03  5.49213E+03 -6.47808E+02  4.54410E+03  1.99082E+03  5.10624E+02  3.92998E+03
 -2.49171E+03  1.32002E+03 -3.42072E+03 -2.46904E+03  1.03555E+03 -5.46401E+03  6.49015E+03 -4.42966E+03
  8.49587E+03  5.79369E+02  8.63898E+03  5.67278E+03  2.26300E+03  8.56698E+03 -3.12248E+03  7.70966E+03
 -7.21720E+03  3.68878E+03 -7.00422E+03 -1.09605E+03 -4.16982E+03 -6.14148E+03  1.68620E+03 -5.34417E+03
  5.14101E+03 -2.83069E+03  4.57074E+03  2.10147E+03  1.57456E+03  4.69797E+03 -9.65565E+02  4.28087E+03
 -2.13655E+03  2.91998E+03 -2.10450E+03  1.37458E+03 -1.02331E+03  6.74349E+02 -1.51916E+03  1.65249E+03
 -1.97019E+03  3.27938E+03 -5.62194E+03  3.07768E+03 -8.54381E+03  3.42465E+01 -9.67498E+03 -5.78309E+03
 -5.06568E+03 -1.07837E+04  2.30001E+03 -1.29929E+04  8.21959E+03 -1.02324E+04  1.22841E+04 -3.98730E+03
  1.12653E+04  2.33572E+03  7.01691E+03  7.66571E+03  1.58971E+02  9.04121E+03 -3.48801E+03  6.57212E+03
 -4.94523E+03  2.10663E+03 -3.10314E+03 -1.18347E+03 -1.27176E+03 -1.16025E+03 -5.61824E+02 -8.10025E+01
 -1.38120E+03  5.96703E+02 -2.49474E+03 -6.47241E+02 -6.95658E+02 -2.21891E+03  1.16217E+02 -3.34051E+03
  4.16007E+03 -2.36439E+03  5.13279E+03  2.55103E+02  6.16668E+03  4.56205E+03  1.71326E+03  8.64098E+03
 -4.13831E+03  1.05449E+04 -9.18742E+03  5.78038E+03 -1.07355E+04 -8.68986E+02 -7.70817E+03 -6.45487E+03
 -3.58519E+03 -9.12029E+03  2.18305E+03 -8.14009E+03  5.72602E+03 -3.84773E+03  5.60602E+03  3.53495E+02
  3.18117E+03  2.68089E+03 -3.05282E+02  2.21541E+03 -1.48740E+03 -1.18987E+02  2.31163E+02 -1.95546E+03
  2.70350E+03 -1.10667E+03  3.45474E+03  9.11225E+02  1.90887E+03  3.66993E+03 -2.17553E+02  4.60304E+03
 -4.19931E+03  3.86075E+03 -5.69883E+03  3.50205E+02 -5.12098E+03 -3.81349E+03 -8.61942E+02 -7.31208E+03
  4.30170E+03 -5.70560E+03  6.57507E+03 -1.79369E+03  6.81224E+03  1.49988E+03  4.01940E+03  5.33399E+03
  6.54147E+02  5.62841E+03 -1.92357E+03  5.02082E+03 -3.27536E+03  2.61303E+03 -2.91114E+03  7.21584E+02
 -1.57312E+03 -1.01076E+02 -1.61189E+03  7.74981E+02 -2.87180E+03  1.12160E+03 -4.88821E+03 -1.27218E+03
 -4.32703E+03 -2.84550E+03 -1.11388E+03 -5.54058E+03  2.65302E+03 -6.45614E+03  4.95367E+03 -2.93119E+03
  5.85655E+03  8.87453E+02  3.06062E+03  4.27707E+03 -3.74037E+02  5.88399E+03 -4.42617E+03  3.71597E+03
