 $NMID ID='MM_0lb_SNR800_15hz_g45_62.RAW', FMTDAT='(8E13.5)'
 TRAMP=1., VOLUME=1. $END
  3.09610E+05  1.49105E+02  3.37405E+05  2.50480E+05  8.47403E+04  3.37850E+05 -1.32570E+05  2.50638E+05
 -1.90096E+05  8.31561E+04 -1.11560E+05 -3.28930E+04  1.21886E+03 -5.05957E+04  5.40386E+04 -2.85663E+01
  3.52464E+04  5.26102E+04 -1.68741E+04  7.50620E+04 -6.08228E+04  6.31769E+04 -8.37764E+04  3.20965E+04
 -8.05371E+04 -1.12983E+04 -5.68362E+04 -5.09006E+04 -1.50977E+04 -6.90960E+04  2.70452E+04 -4.52489E+04
  3.96009E+04  3.49661E+03  1.59725E+04  4.77477E+04 -3.42496E+04  4.68090E+04 -6.60768E+04 -1.49521E+02
 -5.32039E+04 -5.66336E+04 -6.55100E+03 -7.64011E+04  3.36421E+04 -5.42253E+04  4.73948E+04 -1.67364E+04
  4.27712E+04  1.13840E+04  3.15289E+04  2.50158E+04  1.58321E+04  2.90769E+04 -5.18569E+03  2.70581E+04
 -2.21300E+04  1.26115E+04 -1.89888E+04 -4.71198E+03  4.81126E+03 -7.33557E+03  2.21738E+04  1.19400E+04
  7.08279E+03  3.43769E+04 -3.15121E+04  3.47940E+04 -6.25866E+04  2.18780E+03 -5.65662E+04 -4.21238E+04
 -1.22902E+04 -6.21931E+04  3.95095E+04 -4.46781E+04  5.73803E+04 -2.14337E+03  3.33097E+04  3.16517E+04
 -6.54444E+03  3.49722E+04 -2.95356E+04  1.50737E+04 -2.95586E+04 -4.72612E+03 -1.59002E+04 -1.05469E+04
 -8.02426E+03 -1.25937E+04 -5.05695E+02 -1.74559E+04  7.42184E+03 -2.29490E+04  1.51915E+04 -1.31369E+04
  1.16446E+04  4.76145E+03 -7.31939E+03  1.26798E+04 -2.09377E+04 -3.91654E+03 -8.46416E+03 -3.25794E+04
  2.24012E+04 -4.27585E+04  4.72115E+04 -1.90986E+04  4.41892E+04  1.88912E+04  1.53814E+04  4.32571E+04
 -1.58005E+04  3.26937E+04 -2.45052E+04  1.56234E+03 -8.93008E+03 -2.75075E+04  2.09226E+04 -3.31355E+04
  4.00861E+04 -8.50305E+03  3.41908E+04  2.33896E+04  1.72896E+04  4.52632E+04 -7.99795E+03  4.86200E+04
 -3.04814E+04  3.26684E+04 -4.06676E+04  9.05765E+03 -4.11408E+04 -1.63149E+04 -2.29220E+04 -3.70287E+04
  7.40711E+03 -3.64927E+04  3.07192E+04 -1.37381E+04  2.84083E+04  1.08197E+04  3.75901E+03  1.87279E+04
 -1.34831E+04  8.07954E+03 -1.00957E+04 -7.48100E+03  5.50812E+03 -1.02766E+04  1.75520E+04  6.02644E+03
  1.29486E+04  2.19531E+04 -5.89081E+03  2.44726E+04 -2.21375E+04  1.10161E+04 -2.72587E+04 -5.19761E+03
 -1.95236E+04 -1.70955E+04 -7.61556E+03 -1.94763E+04  3.83231E+03 -1.82672E+04  1.46565E+04 -1.70403E+04
  2.46647E+04 -1.21232E+04  3.09319E+04  2.14825E+03  2.29859E+04  1.85330E+04  4.09419E+03  3.51777E+04
 -1.75030E+04  2.94349E+04 -2.70581E+04  9.96843E+03 -2.06220E+04 -1.00840E+04 -4.05968E+03 -1.37004E+04
  2.19505E+03 -3.44909E+03 -4.07106E+03  6.18648E+03 -1.51695E+04  4.88191E+03 -1.54594E+04 -6.13089E+03
 -9.78183E+03 -1.75984E+04  4.97590E+03 -2.16256E+04  1.42479E+04 -1.56636E+04  1.71626E+04 -1.63725E+03
  1.07906E+04  1.23174E+04 -1.00900E+03  1.80942E+04 -1.23098E+04  1.01846E+04 -1.76454E+04 -4.05997E+03
 -1.33205E+04 -1.62151E+04 -1.55111E+03 -2.19248E+04  9.72738E+03 -1.77247E+04  1.80619E+04 -8.55750E+03
  1.69104E+04  4.63996E+02  1.20315E+04  4.17345E+03  6.39877E+03  8.47392E+02  8.87290E+03 -1.52753E+03
  1.64394E+04  2.72344E+03  1.76556E+04  1.43793E+04  1.15735E+04  2.82956E+04 -2.98930E+03  3.16371E+04
 -1.85056E+04  2.52160E+04 -2.95483E+04  1.27283E+04 -3.05472E+04 -2.12353E+03 -2.55957E+04 -1.76738E+04
 -1.12839E+04 -2.49896E+04  8.76477E+03 -2.32749E+04  2.00706E+04 -1.20849E+04  1.79138E+04  4.81362E+03
  7.01851E+03  1.33266E+04 -8.55089E+03  1.17388E+04 -1.53398E+04  2.76383E+03 -1.19216E+04 -9.43205E+03
 -3.47259E+02 -1.42321E+04  7.42282E+03 -1.11708E+04  9.53820E+03 -1.32617E+03  1.98687E+03  5.75496E+03
 -6.49472E+03  2.17929E+03 -5.18003E+03 -5.22084E+03 -6.54719E+01 -1.23486E+04  9.05732E+03 -1.28499E+04
  1.53109E+04 -6.67744E+03  1.58886E+04  2.93255E+03  1.37700E+04  1.20421E+04  6.44063E+03  1.82174E+04
 -2.64018E+03  2.04439E+04 -1.25944E+04  1.26358E+04 -1.42142E+04  3.63802E+03 -1.03902E+04 -3.07806E+03
 -4.95113E+03 -4.31427E+03 -8.64625E+02  1.24199E+03 -2.44607E+03  2.15265E+03 -4.65532E+03  3.86228E+03
 -9.76309E+03 -7.79339E+02 -1.06185E+04 -8.24134E+03 -4.04325E+03 -1.35713E+04  4.06488E+03 -1.04765E+04
  8.88736E+03 -4.49908E+03  6.25552E+03  2.53895E+03  3.27373E+02  4.14501E+03 -4.58841E+03 -4.62611E+01
 -4.72493E+03 -6.60709E+03 -6.71854E+02 -9.69818E+03  5.19549E+03 -1.02259E+04  1.26646E+04 -5.09837E+03
  1.47993E+04  1.28884E+03  1.09798E+04  8.21844E+03  2.00773E+03  1.15298E+04 -6.76812E+03  1.03971E+04
 -8.71697E+03  3.41247E+03 -4.26516E+03 -1.52626E+03  1.51203E+03 -2.71326E+03  5.47349E+03 -1.05158E+03
  5.09185E+03  4.35116E+03  1.28421E+03  8.22204E+03 -5.86315E+03  7.74408E+03 -9.86096E+03  2.21885E+03
 -6.35237E+03 -4.66542E+03  4.33628E+02 -8.31505E+03  5.16106E+03 -4.32239E+03  4.98220E+03  1.43730E+03
  9.06378E+02  4.86783E+03 -5.12891E+03  6.60963E+03 -6.97805E+03  3.06336E+03 -7.17719E+03 -2.10271E+03
 -4.08808E+03 -8.50046E+03  1.80612E+03 -1.01410E+04  8.25842E+03 -6.26260E+03  8.93330E+03  1.93027E+03
  5.98363E+03  7.41424E+03 -1.07114E+02  9.53835E+03 -6.45840E+03  5.24026E+03 -7.21540E+03 -7.36338E+02
 -6.99423E+03 -6.62852E+03 -1.36414E+03 -7.18624E+03  3.64223E+03 -5.85261E+03  3.93940E+03 -3.02075E+03
  3.78615E+03  6.21769E+02 -2.78460E+02  1.54975E+03  1.09964E+02 -9.95036E+02  4.75326E+02 -3.27919E+03
  5.93471E+03 -1.83193E+03  8.35919E+03  1.07151E+03  8.07974E+03  5.07905E+03  6.62622E+03  1.08887E+04
 -2.21789E+03  1.20787E+04 -1.07004E+04  9.34002E+03 -1.36998E+04  1.77798E+03 -1.11575E+04 -4.26390E+03
 -5.82124E+03 -9.12200E+03 -2.96375E+02 -7.46736E+03  3.07473E+03 -3.85829E+03  2.44422E+03 -3.13212E+03
  1.96678E+03 -1.96919E+03  2.72964E+03 -2.86004E+03  3.99413E+03 -2.05619E+03  4.76195E+03  4.42705E+01
  5.99030E+03  1.48328E+03  2.28644E+03  4.89532E+03 -1.77776E+03  5.04177E+03 -5.98628E+03  4.51315E+03
 -7.29845E+03 -1.11955E+03 -3.72645E+03 -5.12803E+03  3.03674E+02 -7.44863E+03  4.28706E+03 -8.03091E+03
  7.85687E+03 -4.44354E+03  1.00624E+04  9.45130E+02  6.86978E+03  6.33345E+03  1.47754E+03  8.87589E+03
 -3.43333E+03  7.64204E+03 -5.01525E+03  2.61609E+03 -2.95389E+03 -1.16961E+03 -8.29930E+02 -9.10635E+02
 -8.03632E+02  4.56702E+02 -9.25581E+02  2.23673E+03 -3.04372E+03  1.37035E+03 -5.26191E+03 -6.79535E+02
 -2.79657E+03 -5.63490E+03  5.75311E+02 -7.17549E+03  4.14633E+03 -6.51492E+03  6.29004E+03 -1.93697E+03
  6.74650E+03  3.44510E+03  2.90237E+03  5.68436E+03 -1.23897E+03  6.79131E+03 -4.20175E+03  4.09417E+03
 -6.04110E+03  8.21884E+02 -4.94909E+03 -3.90498E+03 -4.88321E+02 -5.21490E+03  2.65727E+03 -3.95039E+03
  3.98290E+03 -1.78130E+03  2.55221E+03  7.68988E+02  9.30929E+02  2.32603E+03  1.05023E+03  9.07780E+02
  1.88544E+03  5.79669E+02  1.55193E+03  1.13373E+03  1.90508E+03  2.79910E+03  1.82662E+03  3.42953E+03
 -1.96047E+03  4.93859E+03 -4.28022E+03  6.13622E+03 -5.60931E+03  1.65503E+03 -6.88399E+03 -1.66282E+03
 -2.83050E+03 -6.10546E+03  1.02232E+03 -7.71518E+03  3.17970E+03 -4.24078E+03  5.35579E+03 -9.21384E+02
  4.32446E+03  2.73671E+03  8.29808E+02  3.43183E+03 -1.40905E+03  2.02510E+03 -2.33275E+03 -3.78719E+02
 -1.39746E+03 -2.68581E+03  1.95342E+03 -2.59605E+03  2.34311E+03 -1.51621E+03  2.31736E+03  5.83389E+02
  1.25680E+03  8.25258E+02  7.96559E+02  4.98494E+02 -3.09922E+02  1.13201E+03  1.50694E+03 -1.46909E+02
  3.61253E+02 -3.30418E+02  2.84801E+03  8.46827E+02  9.33244E+02  3.43233E+03 -7.11830E+02  4.09276E+03
 -3.02298E+03  2.41832E+03 -4.06741E+03  7.72491E+02 -3.59015E+03 -1.46774E+03 -5.95745E+02 -2.26630E+03
  6.03021E+02 -2.31113E+03  1.44468E+03 -1.02517E+03  1.20776E+03  1.61611E+03 -9.69077E+02  2.21706E+03
 -2.49019E+03  8.45629E+02 -2.29639E+03 -1.88624E+03 -1.37317E+03 -3.40764E+03 -5.57323E+00 -3.01654E+03
  1.39643E+03 -1.51120E+03  1.90077E+03 -1.70450E+02  1.96970E+03  6.98839E+02  4.72855E+02  2.05511E+03
 -9.98431E+02  3.94785E+02 -1.47556E+03 -7.98485E+02  1.10803E+03 -1.92460E+03  2.86598E+03 -1.85968E+03
  3.16692E+03  2.56377E+02  4.08400E+03  1.98411E+03  1.73787E+03  3.38221E+03 -1.05772E+03  3.66777E+03
 -3.02064E+03  1.17823E+03 -2.72380E+03 -4.49676E+02 -1.40196E+03 -2.33124E+03  2.51096E+02 -1.63109E+03
  2.45051E+03 -1.15790E+03  1.79076E+03  8.40167E+02  4.46263E+02  2.19117E+03 -5.18167E+01  1.76325E+03
 -6.72446E+02  1.15098E+03 -8.21399E+02  5.78366E+02 -1.13756E+02  3.43127E+02 -1.11023E+03  5.59111E+02
 -7.43552E+02  1.44964E+03 -2.82227E+03  1.01726E+03 -3.36337E+03  4.05198E+02 -4.20206E+03 -1.92205E+03
 -2.07570E+03 -4.48522E+03  8.01974E+02 -5.07255E+03  2.52745E+03 -4.47198E+03  5.22629E+03 -1.79629E+03
  4.52031E+03  3.93773E+02  2.21975E+03  2.91264E+03 -4.76999E+02  3.57823E+03 -1.29330E+03  2.28034E+03
 -1.95365E+03  9.18875E+02 -1.00675E+03 -3.62279E+02 -5.51137E+02 -2.76869E+02 -5.89072E+02 -1.00149E+01
 -8.61373E+02 -2.67841E+02 -9.36650E+02 -1.39446E+02  4.31386E+01 -9.99715E+02 -1.17515E+02 -1.65005E+03
  1.79084E+03 -1.42132E+03  1.60504E+03  9.13788E+01  2.54740E+03  1.75464E+03 -3.74756E+01  3.15361E+03
 -1.75891E+03  3.77731E+03 -3.60395E+03  2.35049E+03 -3.99361E+03 -6.81042E+02 -2.80852E+03 -2.12454E+03
 -1.41396E+03 -3.16141E+03  6.78485E+02 -2.87891E+03  1.73293E+03 -1.60930E+03  1.85001E+03  8.74337E+01
  1.33488E+03  1.01141E+03 -4.03773E+01  8.24105E+02 -5.20030E+02 -1.46758E+02 -3.43154E+02 -5.40007E+02
  1.03102E+03 -7.05318E+01  1.02573E+03  4.50837E+02  7.01816E+02  1.21706E+03  5.00766E+02  1.46735E+03
 -1.13711E+03  1.40629E+03 -1.80127E+03  1.70948E+02 -1.89889E+03 -1.00425E+03 -2.83605E+02 -2.35358E+03
  1.20005E+03 -1.83674E+03  1.42900E+03 -4.97719E+02  1.91447E+03 -1.05493E+02  1.28244E+03  1.68108E+03
  5.40970E+02  1.58842E+03 -5.13658E+02  1.38728E+03 -1.09386E+03  7.59975E+02 -8.37234E+02  2.29203E+02
 -6.69040E+02 -8.11883E+01 -6.37998E+02  1.47558E+02 -1.36139E+03  4.25021E+02 -1.69413E+03 -1.20012E+02
 -1.68018E+03 -4.29029E+02 -6.85565E+02 -1.89639E+03  1.33392E+03 -2.66096E+03  1.74192E+03 -1.03552E+03
  1.92173E+03  3.44075E+02 -7.89072E+01  9.64139E+02 -3.06717E+01  2.01585E+03 -1.04599E+03  1.54145E+03
