 $NMID ID='MM_0lb_SNR800_19hz_g55_69.RAW', FMTDAT='(8E13.5)'
 TRAMP=1., VOLUME=1. $END
  3.09855E+05  5.45876E+02  3.37308E+05  2.50516E+05  8.46457E+04  3.37428E+05 -1.32589E+05  2.50241E+05
 -1.89918E+05  8.26624E+04 -1.10930E+05 -3.30497E+04  1.43495E+03 -5.02665E+04  5.37978E+04  9.19722E+01
  3.50062E+04  5.24814E+04 -1.70117E+04  7.49615E+04 -6.02599E+04  6.29088E+04 -8.34459E+04  3.17009E+04
 -8.00830E+04 -1.13023E+04 -5.66296E+04 -5.03650E+04 -1.48033E+04 -6.87280E+04  2.70604E+04 -4.49135E+04
  3.94257E+04  4.05398E+03  1.57967E+04  4.73977E+04 -3.39968E+04  4.66589E+04 -6.58061E+04 -3.06106E+02
 -5.25534E+04 -5.61560E+04 -6.26724E+03 -7.57092E+04  3.33647E+04 -5.37189E+04  4.66488E+04 -1.64264E+04
  4.21754E+04  1.09285E+04  3.11313E+04  2.47626E+04  1.58195E+04  2.86348E+04 -4.80783E+03  2.70370E+04
 -2.18723E+04  1.25447E+04 -1.89728E+04 -4.44839E+03  4.74767E+03 -7.35058E+03  2.14073E+04  1.12517E+04
  7.43143E+03  3.36394E+04 -3.09782E+04  3.43742E+04 -6.16501E+04  2.02395E+03 -5.58366E+04 -4.17731E+04
 -1.23576E+04 -6.14852E+04  3.86701E+04 -4.37628E+04  5.63060E+04 -2.18925E+03  3.24435E+04  3.09766E+04
 -6.46493E+03  3.38510E+04 -2.88388E+04  1.40059E+04 -2.86050E+04 -4.99993E+03 -1.50236E+04 -1.02100E+04
 -7.67699E+03 -1.17690E+04 -8.46286E+02 -1.70786E+04  7.16376E+03 -2.27341E+04  1.50323E+04 -1.35716E+04
  1.19464E+04  4.58389E+03 -6.76511E+03  1.30805E+04 -2.00501E+04 -3.15377E+03 -7.98814E+03 -3.10709E+04
  2.13373E+04 -4.13855E+04  4.56285E+04 -1.86212E+04  4.28580E+04  1.88078E+04  1.45529E+04  4.21898E+04
 -1.56704E+04  3.15821E+04 -2.41088E+04  1.11442E+03 -8.64079E+03 -2.68477E+04  2.07228E+04 -3.16575E+04
  3.85515E+04 -7.52759E+03  3.22402E+04  2.27462E+04  1.58377E+04  4.31783E+04 -7.83964E+03  4.61076E+04
 -2.89646E+04  3.09072E+04 -3.82842E+04  8.59118E+03 -3.97064E+04 -1.54438E+04 -2.15870E+04 -3.52874E+04
  7.07220E+03 -3.49257E+04  2.95851E+04 -1.31931E+04  2.73040E+04  1.08894E+04  3.36264E+03  1.79536E+04
 -1.30276E+04  7.49600E+03 -9.94285E+03 -7.54949E+03  6.02414E+03 -9.98295E+03  1.70085E+04  6.29163E+03
  1.24775E+04  2.15611E+04 -6.61756E+03  2.38321E+04 -2.17658E+04  9.46637E+03 -2.55860E+04 -5.81493E+03
 -1.74277E+04 -1.65142E+04 -6.03711E+03 -1.75854E+04  3.75649E+03 -1.55457E+04  1.31637E+04 -1.51965E+04
  2.17710E+04 -1.18559E+04  2.88847E+04  1.42558E+03  2.18667E+04  1.67866E+04  4.03900E+03  3.31119E+04
 -1.62045E+04  2.78276E+04 -2.60443E+04  9.77892E+03 -1.99391E+04 -1.03581E+04 -3.99008E+03 -1.37013E+04
  2.66361E+03 -4.00966E+03 -3.17771E+03  5.56077E+03 -1.33943E+04  5.27582E+03 -1.41230E+04 -5.37943E+03
 -8.87499E+03 -1.58043E+04  4.74007E+03 -1.97300E+04  1.29160E+04 -1.44105E+04  1.50386E+04 -1.52300E+03
  9.09098E+03  1.10545E+04 -8.64068E+02  1.61687E+04 -1.07325E+04  9.06768E+03 -1.57822E+04 -3.63821E+03
 -1.18267E+04 -1.44031E+04 -1.38116E+03 -1.96085E+04  9.13664E+03 -1.58081E+04  1.65239E+04 -7.32800E+03
  1.49621E+04  5.65805E+02  1.08532E+04  4.09534E+03  5.24644E+03  5.21133E+02  7.61879E+03 -1.29673E+03
  1.44272E+04  2.28704E+03  1.52673E+04  1.28382E+04  9.37834E+03  2.51132E+04 -3.07179E+03  2.73582E+04
 -1.62167E+04  2.11973E+04 -2.49325E+04  1.01539E+04 -2.59113E+04 -1.76410E+03 -2.19679E+04 -1.48159E+04
 -9.96026E+03 -2.08211E+04  6.86661E+03 -1.95545E+04  1.68339E+04 -1.09565E+04  1.59858E+04  3.99043E+03
  6.47650E+03  1.14147E+04 -7.38050E+03  1.07171E+04 -1.37031E+04  2.56070E+03 -1.04639E+04 -8.02958E+03
  8.00648E+01 -1.28948E+04  6.30735E+03 -9.49796E+03  8.13614E+03 -1.26530E+03  1.54024E+03  5.01903E+03
 -5.62826E+03  1.14502E+03 -3.80444E+03 -4.48672E+03  4.15956E+02 -1.06238E+04  7.74878E+03 -1.04675E+04
  1.27561E+04 -4.79068E+03  1.25555E+04  2.93289E+03  1.03626E+04  9.56457E+03  5.46634E+03  1.44630E+04
 -1.59811E+03  1.61152E+04 -9.91058E+03  1.03260E+04 -1.14237E+04  2.84338E+03 -8.87295E+03 -2.06325E+03
 -4.60600E+03 -3.35315E+03 -7.56869E+02  1.54623E+03 -2.10192E+03  1.81574E+03 -3.81262E+03  3.68797E+03
 -8.15051E+03 -7.71158E+01 -8.70491E+03 -7.14845E+03 -3.50156E+03 -1.18255E+04  3.54115E+03 -8.56951E+03
  7.08329E+03 -3.75568E+03  5.35073E+03  1.88077E+03  7.54377E+02  3.20584E+03 -3.83622E+03 -1.17013E+02
 -3.57390E+03 -5.37580E+03 -1.05362E+03 -7.56774E+03  4.10225E+03 -7.78107E+03  9.90454E+03 -4.04273E+03
  1.18858E+04  6.33885E+02  8.59360E+03  6.23745E+03  1.95308E+03  8.79465E+03 -5.41711E+03  8.56098E+03
 -6.97574E+03  2.76348E+03 -3.52165E+03 -1.38772E+03  1.39458E+03 -1.97414E+03  4.76042E+03 -1.08403E+03
  4.10791E+03  3.37958E+03  1.02357E+03  6.53223E+03 -4.57719E+03  6.37617E+03 -7.79526E+03  1.92383E+03
 -5.20694E+03 -3.53035E+03  3.00375E+02 -6.82317E+03  3.79693E+03 -3.34506E+03  3.57572E+03  1.01232E+03
  6.59969E+02  3.30102E+03 -4.17516E+03  4.72789E+03 -4.83198E+03  2.27269E+03 -4.41886E+03 -1.11303E+03
 -3.02745E+03 -5.96444E+03  1.09145E+03 -7.26215E+03  5.98377E+03 -4.73431E+03  6.27311E+03  7.40544E+02
  4.48299E+03  5.13422E+03  8.48281E+01  7.33150E+03 -5.10053E+03  4.13211E+03 -5.28327E+03 -6.31288E+02
 -5.89704E+03 -4.69623E+03 -1.46042E+03 -4.96154E+03  2.47703E+03 -4.74576E+03  2.75872E+03 -2.76635E+03
  2.99562E+03  2.12817E+02  4.92074E+01  1.34975E+03  5.42226E+02 -5.43765E+02  6.61227E+01 -1.81510E+03
  4.01415E+03 -3.21516E+02  5.10453E+03  5.18347E+02  5.45001E+03  3.04158E+03  5.32557E+03  6.74839E+03
 -1.12743E+03  8.49824E+03 -7.81574E+03  6.54900E+03 -9.60840E+03  8.94539E+02 -7.57539E+03 -2.30544E+03
 -4.08105E+03 -6.31228E+03 -5.23062E+02 -5.13635E+03  1.90288E+03 -1.95682E+03  1.84729E+03 -1.85179E+03
  1.15557E+03 -1.39500E+03  2.09974E+03 -2.27113E+03  3.69161E+03 -1.26061E+03  3.43526E+03  2.67805E+02
  4.30595E+03  1.31715E+03  1.14123E+03  3.41797E+03 -1.43942E+03  2.77177E+03 -4.49997E+03  2.65257E+03
 -5.03576E+03 -9.53568E+02 -1.67921E+03 -3.50109E+03  6.67575E+02 -4.67805E+03  3.31740E+03 -5.19692E+03
  5.10797E+03 -3.13332E+03  6.41972E+03  2.08710E+02  4.72778E+03  4.11031E+03  9.70523E+02  5.89450E+03
 -2.24819E+03  5.72578E+03 -3.32724E+03  1.72279E+03 -1.74191E+03 -8.82695E+02 -4.89352E+02 -5.45706E+02
 -4.04927E+02  1.87221E+02 -7.47897E+02  1.83127E+03 -2.63196E+03  1.22634E+03 -3.80642E+03 -2.14652E+02
 -1.54369E+03 -4.00620E+03  6.36317E+02 -4.55855E+03  2.67145E+03 -4.18320E+03  3.36658E+03 -9.70189E+02
  3.88323E+03  2.08351E+03  1.71233E+03  2.99565E+03 -5.21411E+02  4.18238E+03 -2.36952E+03  2.32887E+03
 -3.58579E+03  5.40592E+02 -3.31741E+03 -2.50998E+03 -2.41530E+01 -2.81893E+03  1.58413E+03 -2.14402E+03
  2.60262E+03 -1.26029E+03  1.59255E+03  4.76447E+02  5.26008E+02  1.73942E+03  5.29008E+02  4.48968E+02
  1.67753E+03  5.29816E+02  1.01673E+03  1.00503E+03  7.28052E+02  2.16709E+03  1.23226E+03  1.58984E+03
 -1.50344E+03  2.68341E+03 -2.34301E+03  3.67911E+03 -2.65346E+03  9.60868E+02 -3.78782E+03  5.61835E+01
 -1.79767E+03 -3.57952E+03  6.70298E+02 -4.46413E+03  1.62303E+03 -2.36276E+03  2.86778E+03 -1.13984E+03
  2.27313E+03  1.56903E+03  3.14742E+02  2.12535E+03 -7.08418E+02  1.00059E+03 -8.84422E+02 -2.48984E+02
 -4.64905E+02 -1.55827E+03  1.08715E+03 -1.25556E+03  1.24299E+03 -9.45197E+02  1.21386E+03  1.45123E+02
  5.93483E+02  1.96701E+02  8.02396E+02 -6.82913E+01 -1.33424E+02  9.79825E+02  2.03257E+03 -2.05418E+02
 -1.09302E+02  1.12667E+01  1.70025E+03  7.14862E+02  3.73038E+02  2.00319E+03 -6.67134E+01  2.82426E+03
 -1.28586E+03  8.65291E+02 -1.82335E+03  4.05296E+02 -2.09691E+03 -4.94825E+02 -1.45676E+02 -7.77819E+02
  4.91467E+02 -1.16122E+03  4.91229E+02 -4.94359E+02  4.24225E+02  1.29921E+03 -6.97561E+02  1.03453E+03
 -1.37932E+03  5.27551E+02 -1.11086E+03 -1.14503E+03 -9.00014E+02 -2.28735E+03  9.21407E+00 -1.48584E+03
  7.98558E+01 -3.79893E+01  7.73770E+02  7.36388E+01  9.41545E+02  4.65922E+00  2.99711E+02  9.29703E+02
 -4.10623E+02  5.06747E+01 -8.68745E+02  5.92852E+01  3.82613E+02 -8.01964E+02  1.64474E+03 -8.29920E+02
  9.11768E+02  2.64075E+02  2.45964E+03  4.45590E+02  8.37706E+02  1.36116E+03 -2.75978E+02  1.79153E+03
 -1.42307E+03 -9.14999E+01 -1.30086E+03 -5.09155E+02 -9.16123E+02 -1.42981E+03  1.53901E+02 -4.29521E+02
  1.18878E+03 -5.21775E+02  4.06248E+02  6.29286E+02  1.25206E+02  1.48979E+03  4.24498E+01  9.31384E+02
 -4.79847E+02  1.04826E+03 -6.54301E+02  3.67085E+02  3.22470E+02  3.66190E+02 -9.68788E+02  9.96461E+02
 -5.76686E+02  8.20276E+02 -1.62636E+03  1.61617E+02 -1.43611E+03  3.35229E+02 -2.21248E+03 -7.92269E+02
 -9.76966E+02 -1.85649E+03  4.53202E+02 -2.45950E+03  8.22424E+02 -1.85087E+03  2.18524E+03 -1.04391E+03
  2.29295E+03 -1.06700E+02  1.00144E+03  1.16288E+03 -3.68074E+02  1.13627E+03 -7.58840E+02  9.12377E+02
 -8.46519E+02  5.92068E+02 -6.31516E+02  5.20589E+01 -5.46233E+02  2.33032E+02 -6.44377E+02 -1.53925E+02
 -9.61649E+02 -2.64931E+02 -8.93801E+02  8.97541E+01  1.43802E+02 -5.50927E+02 -7.86107E+01 -7.99104E+02
  1.24236E+03 -5.09392E+02  3.04824E+02  1.77569E+02  1.07531E+03  1.11424E+03 -5.43596E+02  1.22033E+03
 -9.84329E+02  2.08023E+03 -1.41922E+03  1.21266E+03 -1.40717E+03 -1.62042E+02 -1.18882E+03 -1.00812E+03
 -7.39866E+02 -9.20958E+02  6.64305E+02 -6.65846E+02  5.10382E+02 -5.60387E+02  5.61529E+02  3.62541E+02
  5.63984E+02  3.25046E+02  3.02703E+01  2.70803E+02 -3.02716E+02 -9.56049E+01 -3.55669E+01 -3.87596E+01
  8.40870E+01  9.68098E+01  2.53372E-01  3.42330E+02  5.62176E+01 -3.73627E+01  5.80753E+02 -1.12506E+02
 -5.10504E+02  3.89749E+02 -4.95638E+02  2.90043E+02 -5.02443E+02 -2.99344E+02  3.11360E+01 -8.99307E+02
  5.17474E+02 -6.81407E+02  4.71838E+02  3.89164E+01  7.36285E+02 -5.03133E+02  3.25818E+02  6.75540E+02
  3.79491E+02  2.31331E+02 -2.63077E+02  4.79085E+02 -3.65884E+02  4.60401E+02 -4.08144E+02 -2.38341E+02
 -1.02109E+01  1.07680E+01 -4.79899E+02  2.93392E+01 -4.44195E+02  1.21338E+02 -5.87591E+02 -2.95454E+02
 -1.11704E+03  1.80697E+02 -5.57045E+02 -7.27446E+02  5.07528E+02 -1.25717E+03  4.12362E+02 -2.42169E+02
  6.05523E+02  1.37205E+02 -3.40812E+02 -2.87836E+00 -2.25620E+01  6.26188E+02 -3.09721E+02  6.35989E+02
