 $NMID ID='MM_0lb_SNR800_12hz_g40_28.RAW', FMTDAT='(8E13.5)'
 TRAMP=1., VOLUME=1. $END
  3.09974E+05  5.94323E+02  3.37966E+05  2.50617E+05  8.41565E+04  3.38126E+05 -1.32577E+05  2.50979E+05
 -1.90320E+05  8.30941E+04 -1.12027E+05 -3.22768E+04  1.04024E+03 -5.06627E+04  5.37877E+04 -3.28774E+01
  3.54564E+04  5.27785E+04 -1.68114E+04  7.56584E+04 -6.11649E+04  6.39563E+04 -8.40370E+04  3.20338E+04
 -8.11492E+04 -1.18362E+04 -5.72237E+04 -5.14507E+04 -1.53215E+04 -6.95943E+04  2.76915E+04 -4.59257E+04
  4.00114E+04  3.48891E+03  1.64263E+04  4.79812E+04 -3.44508E+04  4.73048E+04 -6.68518E+04 -2.63790E+02
 -5.36165E+04 -5.67175E+04 -7.03650E+03 -7.76217E+04  3.37886E+04 -5.53765E+04  4.80678E+04 -1.71312E+04
  4.40839E+04  1.13878E+04  3.18516E+04  2.56380E+04  1.59484E+04  2.93024E+04 -5.24813E+03  2.73166E+04
 -2.20739E+04  1.20820E+04 -1.83664E+04 -5.21196E+03  5.91919E+03 -7.31344E+03  2.25273E+04  1.25822E+04
  7.23742E+03  3.58955E+04 -3.23062E+04  3.59648E+04 -6.40335E+04  2.14102E+03 -5.75478E+04 -4.30128E+04
 -1.27396E+04 -6.37785E+04  4.03668E+04 -4.58358E+04  5.86084E+04 -2.04066E+03  3.45715E+04  3.25845E+04
 -5.96013E+03  3.65291E+04 -3.05097E+04  1.64788E+04 -3.10403E+04 -4.14674E+03 -1.69515E+04 -1.12559E+04
 -8.41640E+03 -1.35942E+04 -5.81852E+02 -1.87334E+04  7.71583E+03 -2.29459E+04  1.52602E+04 -1.34208E+04
  1.12180E+04  5.61369E+03 -9.05444E+03  1.25299E+04 -2.14991E+04 -5.25081E+03 -8.41136E+03 -3.43030E+04
  2.34401E+04 -4.38214E+04  4.88022E+04 -1.97358E+04  4.60011E+04  1.95029E+04  1.59870E+04  4.48827E+04
 -1.62627E+04  3.40111E+04 -2.58673E+04  2.20640E+03 -1.02921E+04 -2.82034E+04  2.14244E+04 -3.44019E+04
  4.16112E+04 -9.31645E+03  3.65429E+04  2.39723E+04  1.89363E+04  4.71759E+04 -7.85993E+03  5.17132E+04
 -3.22246E+04  3.47313E+04 -4.31495E+04  9.79230E+03 -4.34539E+04 -1.69514E+04 -2.38929E+04 -3.85509E+04
  7.58576E+03 -3.82757E+04  3.21676E+04 -1.50578E+04  2.95075E+04  1.10572E+04  4.32133E+03  1.93504E+04
 -1.37699E+04  8.67877E+03 -1.05328E+04 -7.49358E+03  5.73679E+03 -1.07051E+04  1.82739E+04  5.85748E+03
  1.35744E+04  2.22901E+04 -5.54753E+03  2.56345E+04 -2.27488E+04  1.22883E+04 -2.84462E+04 -4.10801E+03
 -2.16923E+04 -1.75785E+04 -9.24044E+03 -2.12491E+04  3.67420E+03 -2.06608E+04  1.66368E+04 -1.93338E+04
  2.75178E+04 -1.31836E+04  3.37482E+04  3.55974E+03  2.46657E+04  2.10165E+04  4.67416E+03  3.73703E+04
 -1.80717E+04  3.13076E+04 -2.84557E+04  1.05746E+04 -2.11332E+04 -1.06538E+04 -4.29567E+03 -1.33902E+04
  1.29866E+03 -2.41961E+03 -5.39275E+03  7.14321E+03 -1.71108E+04  5.02942E+03 -1.72102E+04 -7.38850E+03
 -1.07327E+04 -1.99023E+04  5.71410E+03 -2.36309E+04  1.56940E+04 -1.70124E+04  1.92463E+04 -1.81751E+03
  1.18135E+04  1.38360E+04 -1.17268E+03  1.96173E+04 -1.39170E+04  1.13171E+04 -1.99868E+04 -4.09334E+03
 -1.46080E+04 -1.81436E+04 -1.85928E+03 -2.40332E+04  1.07310E+04 -1.94717E+04  2.00708E+04 -1.00270E+04
  1.86562E+04  1.08339E+02  1.35733E+04  4.50356E+03  7.43782E+03  1.19885E+03  1.01043E+04 -1.87157E+03
  1.81141E+04  2.79984E+03  2.05257E+04  1.55730E+04  1.37137E+04  3.16788E+04 -2.84946E+03  3.64066E+04
 -2.11538E+04  2.93064E+04 -3.41067E+04  1.48945E+04 -3.57071E+04 -2.49920E+03 -2.90080E+04 -2.04416E+04
 -1.26169E+04 -2.93439E+04  1.05074E+04 -2.64707E+04  2.28492E+04 -1.32567E+04  2.05792E+04  5.78878E+03
  7.71855E+03  1.52810E+04 -9.61623E+03  1.32112E+04 -1.69209E+04  2.43114E+03 -1.32578E+04 -1.06832E+04
 -1.15505E+02 -1.63334E+04  8.53086E+03 -1.20886E+04  1.07807E+04 -1.60665E+03  2.33317E+03  7.14680E+03
 -7.72065E+03  3.00982E+03 -6.85475E+03 -6.05652E+03 -6.72753E+02 -1.46515E+04  9.78959E+03 -1.55304E+04
  1.79369E+04 -8.04671E+03  1.98126E+04  3.18874E+03  1.72655E+04  1.44643E+04  8.04703E+03  2.21973E+04
 -3.94820E+03  2.39405E+04 -1.52211E+04  1.52029E+04 -1.73352E+04  3.51464E+03 -1.20115E+04 -3.92788E+03
 -5.61783E+03 -5.47957E+03 -6.52546E+02  6.51823E+02 -2.76147E+03  2.82026E+03 -5.83263E+03  4.67984E+03
 -1.16682E+04 -9.61271E+02 -1.20423E+04 -9.79352E+03 -4.73378E+03 -1.60667E+04  4.74009E+03 -1.22420E+04
  1.01323E+04 -5.09378E+03  7.21418E+03  3.18296E+03 -1.72933E+02  4.66110E+03 -5.73610E+03 -1.21629E+02
 -5.82484E+03 -7.82856E+03 -8.25601E+02 -1.14978E+04  6.29010E+03 -1.23618E+04  1.54416E+04 -6.81719E+03
  1.82609E+04  1.62990E+03  1.29984E+04  1.06034E+04  2.19605E+03  1.42691E+04 -7.75923E+03  1.22142E+04
 -1.00743E+04  3.65559E+03 -5.25329E+03 -2.47247E+03  1.33785E+03 -3.39752E+03  6.71455E+03 -7.26292E+02
  5.60870E+03  5.20779E+03  7.82006E+02  9.68799E+03 -7.29392E+03  9.60340E+03 -1.20454E+04  2.40848E+03
 -8.26589E+03 -5.61207E+03  2.77162E+02 -1.06420E+04  6.64130E+03 -4.95706E+03  6.54629E+03  2.39327E+03
  1.35691E+03  6.96324E+03 -6.36982E+03  8.37378E+03 -9.54949E+03  3.69554E+03 -9.65993E+03 -3.33962E+03
 -5.88420E+03 -1.12274E+04  2.66861E+03 -1.31132E+04  1.11921E+04 -8.17282E+03  1.19912E+04  1.84612E+03
  7.82907E+03  9.25968E+03 -6.93229E+02  1.14857E+04 -8.46426E+03  6.61079E+03 -9.12730E+03 -6.60762E+02
 -8.45732E+03 -8.31899E+03 -1.47763E+03 -8.87851E+03  4.64037E+03 -7.51776E+03  5.31705E+03 -3.53982E+03
  4.07664E+03  1.26113E+03 -6.16977E+02  1.35104E+03  2.60104E+01 -1.82359E+03  1.37769E+03 -4.69788E+03
  7.95910E+03 -2.46953E+03  1.10779E+04  1.40712E+03  1.08258E+04  7.16126E+03  7.75793E+03  1.45754E+04
 -3.34698E+03  1.65515E+04 -1.41958E+04  1.24471E+04 -1.82338E+04  2.28297E+03 -1.46144E+04 -5.75965E+03
 -7.28090E+03 -1.18632E+04 -1.51164E+02 -9.86332E+03  3.69635E+03 -5.35257E+03  3.44879E+03 -3.51874E+03
  2.63600E+03 -2.23682E+03  3.13905E+03 -3.04912E+03  4.87784E+03 -2.29107E+03  6.43493E+03 -7.25285E+02
  7.96884E+03  1.46807E+03  3.44379E+03  6.41526E+03 -1.78894E+03  7.23721E+03 -7.92199E+03  5.93026E+03
 -9.92294E+03 -1.05204E+03 -5.45696E+03 -7.16835E+03 -3.54071E+02 -1.09898E+04  5.94505E+03 -1.04732E+04
  1.10981E+04 -6.29664E+03  1.32865E+04  1.34882E+03  9.25496E+03  9.12413E+03  1.75499E+03  1.22928E+04
 -4.67725E+03  1.05694E+04 -6.85088E+03  3.37811E+03 -4.77198E+03 -1.56425E+03 -1.80848E+03 -1.36072E+03
 -1.09797E+03  5.49904E+02 -1.52937E+03  2.73242E+03 -4.30909E+03  1.54135E+03 -7.46237E+03 -8.66838E+02
 -4.48426E+03 -7.01073E+03  1.48724E+02 -9.90677E+03  6.01343E+03 -9.44362E+03  9.06412E+03 -2.50241E+03
  9.38854E+03  4.76400E+03  4.60256E+03  8.80674E+03 -1.64368E+03  9.81851E+03 -6.67397E+03  6.41446E+03
 -8.69733E+03  8.13144E+02 -7.25205E+03 -5.47273E+03 -6.18571E+02 -7.86803E+03  4.25702E+03 -6.17606E+03
  6.05275E+03 -2.10244E+03  4.15522E+03  1.42425E+03  1.50426E+03  3.26055E+03  1.31875E+03  1.04012E+03
  2.30308E+03  8.06028E+02  2.26343E+03  1.90497E+03  2.45978E+03  3.48856E+03  2.60786E+03  4.94737E+03
 -2.07260E+03  7.65108E+03 -6.15178E+03  8.00167E+03 -9.37300E+03  2.18550E+03 -1.02955E+04 -3.69769E+03
 -4.67228E+03 -9.35699E+03  1.18097E+03 -1.07488E+04  5.54398E+03 -6.54925E+03  7.80939E+03 -1.87207E+03
  6.27381E+03  3.45149E+03  1.34676E+03  5.51229E+03 -2.60626E+03  3.60144E+03 -3.45957E+03 -4.07541E+02
 -1.71186E+03 -3.54080E+03  2.44681E+03 -4.02666E+03  3.69666E+03 -2.12568E+03  3.54986E+03  3.38736E+02
  1.92171E+03  1.90946E+03  1.08881E+03  1.35166E+03 -3.62046E+02  1.19573E+03  1.79070E+03 -1.96000E+02
  1.10925E+03 -3.77043E+02  3.89044E+03  1.31447E+03  1.78466E+03  5.17421E+03 -9.04456E+02  6.62515E+03
 -4.34472E+03  3.77824E+03 -6.00996E+03  9.45414E+02 -5.20572E+03 -1.98380E+03 -1.85038E+03 -3.57193E+03
  8.69620E+02 -3.63629E+03  2.56722E+03 -1.78218E+03  1.74180E+03  2.11831E+03 -1.46459E+03  2.76166E+03
 -3.81381E+03  2.00772E+03 -4.15085E+03 -2.38155E+03 -2.65047E+03 -5.00532E+03  4.79830E+02 -4.72692E+03
  2.74476E+03 -2.57672E+03  3.28129E+03 -6.08602E+02  3.29140E+03  1.26241E+03  4.87210E+02  2.94478E+03
 -1.58780E+03  5.03721E+02 -2.37730E+03 -1.48176E+03  8.99806E+02 -3.42360E+03  4.34020E+03 -2.93511E+03
  5.37772E+03  4.65028E+02  5.83419E+03  3.62181E+03  2.06106E+03  5.58546E+03 -1.86081E+03  5.39134E+03
 -4.70892E+03  1.81609E+03 -4.87992E+03 -8.44657E+02 -2.88384E+03 -3.87207E+03  9.34869E+02 -2.90049E+03
  3.73445E+03 -1.70628E+03  2.71616E+03  1.96539E+03  9.54251E+02  3.27289E+03 -1.79319E+02  2.69358E+03
 -1.53189E+03  1.87990E+03 -1.07645E+03  6.33741E+02 -4.62164E+02  6.21981E+02 -1.34488E+03  8.93134E+02
 -1.67465E+03  2.27495E+03 -3.99429E+03  1.79885E+03 -5.60457E+03  7.87305E+01 -6.36806E+03 -3.53633E+03
 -3.15272E+03 -7.74825E+03  1.55424E+03 -8.78360E+03  5.01854E+03 -6.59773E+03  8.20901E+03 -2.69347E+03
  7.66719E+03  1.21984E+03  4.47659E+03  5.32446E+03 -1.31278E+02  5.75396E+03 -2.16470E+03  4.35853E+03
 -3.07958E+03  1.75550E+03 -2.07849E+03 -8.35526E+02 -8.68625E+02 -2.17667E+02 -1.25177E+03  1.61131E+02
 -1.73166E+03 -2.20339E+02 -1.42324E+03  1.06202E+02 -4.96843E+02 -1.32483E+03  9.95487E+01 -2.34888E+03
  2.88733E+03 -1.89322E+03  3.29699E+03  2.96636E+02  4.16925E+03  2.95083E+03  7.51867E+02  5.41337E+03
 -3.00826E+03  6.83045E+03 -5.88263E+03  3.76056E+03 -6.80712E+03 -4.08644E+02 -4.59486E+03 -4.07825E+03
 -2.47010E+03 -5.82980E+03  1.47542E+03 -5.18582E+03  3.51113E+03 -2.97653E+03  3.42608E+03  2.27981E+02
  2.16839E+03  1.43829E+03 -1.55381E+02  1.54987E+03 -9.06067E+02 -2.09260E+02 -1.89957E+02 -1.37393E+03
  1.85745E+03 -3.08578E+02  1.81337E+03  5.80146E+02  1.33407E+03  2.09333E+03  3.42846E+02  2.70690E+03
 -2.43781E+03  2.41470E+03 -3.62272E+03  8.38847E+02 -3.51516E+03 -2.64401E+03 -7.00001E+02 -4.61641E+03
  2.36582E+03 -3.33636E+03  3.94195E+03 -1.11269E+03  4.10231E+03  4.02742E+02  2.24866E+03  3.09250E+03
  6.68825E+02  3.37197E+03 -1.27218E+03  2.55380E+03 -2.62704E+03  1.60471E+03 -1.66109E+03  4.40272E+02
 -9.10540E+02 -1.40477E+02 -1.10600E+03  2.24374E+02 -1.61197E+03  5.34937E+02 -2.63693E+03 -7.85405E+02
 -2.86985E+03 -1.26541E+03 -1.01280E+03 -3.59225E+03  2.10490E+03 -3.97012E+03  3.18456E+03 -1.84923E+03
  3.38270E+03  3.28736E+02  1.92415E+03  2.42963E+03 -3.89888E+01  3.54518E+03 -2.48097E+03  2.45022E+03
