 $NMID ID='MM_0lb_SNR800_16hz_g40_56.RAW', FMTDAT='(8E13.5)'
 TRAMP=1., VOLUME=1. $END
  3.09791E+05  2.96855E+02  3.37313E+05  2.50507E+05  8.43752E+04  3.37217E+05 -1.32463E+05  2.50536E+05
 -1.89809E+05  8.28749E+04 -1.11425E+05 -3.27127E+04  1.29898E+03 -5.02630E+04  5.37838E+04  8.28037E+01
  3.50330E+04  5.28755E+04 -1.72647E+04  7.50632E+04 -6.04538E+04  6.28363E+04 -8.34167E+04  3.17361E+04
 -8.02711E+04 -1.11119E+04 -5.68432E+04 -5.06043E+04 -1.51411E+04 -6.84775E+04  2.66531E+04 -4.51038E+04
  3.91329E+04  3.86410E+03  1.57228E+04  4.72956E+04 -3.41785E+04  4.65993E+04 -6.60639E+04 -3.06309E+02
 -5.22902E+04 -5.61793E+04 -6.34423E+03 -7.58507E+04  3.31973E+04 -5.36430E+04  4.69885E+04 -1.64821E+04
  4.21334E+04  1.12418E+04  3.07344E+04  2.46680E+04  1.54662E+04  2.86418E+04 -4.35964E+03  2.69916E+04
 -2.20507E+04  1.27943E+04 -1.91081E+04 -4.57865E+03  4.52957E+03 -7.70278E+03  2.18050E+04  1.13885E+04
  7.35964E+03  3.38815E+04 -3.10902E+04  3.46053E+04 -6.16006E+04  1.94825E+03 -5.59094E+04 -4.16375E+04
 -1.25870E+04 -6.13002E+04  3.85315E+04 -4.40821E+04  5.62817E+04 -2.03600E+03  3.28007E+04  3.12859E+04
 -6.47808E+03  3.40102E+04 -2.88107E+04  1.41137E+04 -2.84932E+04 -5.13283E+03 -1.49342E+04 -1.03122E+04
 -7.94086E+03 -1.22347E+04 -1.09421E+03 -1.73140E+04  6.93463E+03 -2.25111E+04  1.50801E+04 -1.35542E+04
  1.20113E+04  4.45975E+03 -6.78562E+03  1.30184E+04 -1.98797E+04 -2.92970E+03 -8.14025E+03 -3.13737E+04
  2.12354E+04 -4.15267E+04  4.56238E+04 -1.90871E+04  4.30133E+04  1.86536E+04  1.48479E+04  4.24567E+04
 -1.54875E+04  3.17935E+04 -2.41107E+04  1.53260E+03 -8.85147E+03 -2.68877E+04  2.05649E+04 -3.22395E+04
  3.89596E+04 -7.70762E+03  3.25282E+04  2.31366E+04  1.63362E+04  4.36948E+04 -7.75273E+03  4.68245E+04
 -2.94350E+04  3.10587E+04 -3.87678E+04  8.62329E+03 -3.97719E+04 -1.52641E+04 -2.19768E+04 -3.55152E+04
  7.02556E+03 -3.52198E+04  2.98630E+04 -1.33102E+04  2.75033E+04  1.09289E+04  3.18802E+03  1.82471E+04
 -1.32182E+04  7.56538E+03 -9.84088E+03 -7.81974E+03  6.07890E+03 -1.03099E+04  1.76482E+04  6.52594E+03
  1.29021E+04  2.17794E+04 -6.43470E+03  2.41534E+04 -2.19068E+04  9.78545E+03 -2.62823E+04 -5.59369E+03
 -1.82081E+04 -1.70140E+04 -6.34445E+03 -1.83025E+04  3.98512E+03 -1.64208E+04  1.33077E+04 -1.58497E+04
  2.30184E+04 -1.23371E+04  2.93528E+04  1.61851E+03  2.20204E+04  1.76264E+04  3.94854E+03  3.36306E+04
 -1.66721E+04  2.85064E+04 -2.67240E+04  9.72909E+03 -2.00717E+04 -1.03780E+04 -3.95368E+03 -1.39335E+04
  2.45344E+03 -3.56765E+03 -3.24021E+03  5.75725E+03 -1.40742E+04  5.23720E+03 -1.45013E+04 -5.72209E+03
 -9.22429E+03 -1.66192E+04  4.49789E+03 -2.08429E+04  1.34740E+04 -1.46618E+04  1.57488E+04 -1.52930E+03
  9.66563E+03  1.16493E+04 -6.47109E+02  1.68997E+04 -1.12430E+04  9.67007E+03 -1.66926E+04 -3.65297E+03
 -1.24405E+04 -1.56040E+04 -1.51621E+03 -2.04985E+04  9.43579E+03 -1.61033E+04  1.71673E+04 -8.17168E+03
  1.56327E+04  5.66197E+02  1.12977E+04  4.08498E+03  5.72462E+03  5.87660E+02  8.51951E+03 -1.59107E+03
  1.49779E+04  2.57735E+03  1.60935E+04  1.33902E+04  1.02338E+04  2.65521E+04 -3.27735E+03  2.92024E+04
 -1.72823E+04  2.27336E+04 -2.72163E+04  1.10244E+04 -2.80531E+04 -1.95883E+03 -2.37339E+04 -1.63436E+04
 -1.07019E+04 -2.30019E+04  7.58460E+03 -2.12013E+04  1.86015E+04 -1.16684E+04  1.66848E+04  4.31362E+03
  6.71444E+03  1.25707E+04 -7.69485E+03  1.13913E+04 -1.42414E+04  2.28462E+03 -1.12707E+04 -8.51264E+03
 -7.01759E+01 -1.35375E+04  6.89198E+03 -1.03073E+04  8.44970E+03 -1.65121E+03  1.67516E+03  5.38848E+03
 -6.23324E+03  1.74087E+03 -4.54366E+03 -4.84662E+03  6.06917E+01 -1.13551E+04  8.37620E+03 -1.16259E+04
  1.39003E+04 -5.75163E+03  1.41356E+04  2.82311E+03  1.22008E+04  1.08354E+04  5.88309E+03  1.65058E+04
 -2.20872E+03  1.84051E+04 -1.13466E+04  1.15640E+04 -1.28732E+04  3.19759E+03 -9.35480E+03 -2.51673E+03
 -4.52779E+03 -3.89034E+03 -7.81735E+02  1.16537E+03 -2.43578E+03  1.89430E+03 -4.49400E+03  3.85540E+03
 -8.76774E+03 -4.87127E+02 -9.80475E+03 -7.87490E+03 -3.98686E+03 -1.27343E+04  3.95129E+03 -9.52432E+03
  8.04027E+03 -4.24895E+03  5.94598E+03  2.60463E+03  4.07526E+02  3.40767E+03 -3.94449E+03 -2.73806E+01
 -3.94228E+03 -6.24078E+03 -9.58205E+02 -8.01913E+03  4.92133E+03 -9.12024E+03  1.16233E+04 -4.64145E+03
  1.37883E+04  7.52017E+02  1.00140E+04  7.13025E+03  2.29864E+03  1.04858E+04 -5.90134E+03  9.60694E+03
 -7.79927E+03  2.96239E+03 -4.29157E+03 -1.57973E+03  1.52882E+03 -2.33688E+03  5.17098E+03 -1.09227E+03
  4.75239E+03  3.96778E+03  1.05929E+03  7.43490E+03 -5.27949E+03  7.12145E+03 -8.88664E+03  2.06130E+03
 -6.03812E+03 -4.02723E+03  2.65299E+02 -7.84678E+03  4.68942E+03 -3.83364E+03  4.38431E+03  1.22916E+03
  6.96376E+02  4.35329E+03 -4.44077E+03  5.94035E+03 -6.24375E+03  2.86995E+03 -5.85032E+03 -1.61786E+03
 -3.45412E+03 -7.31504E+03  1.66356E+03 -8.65746E+03  7.41598E+03 -5.32872E+03  7.82871E+03  1.42369E+03
  5.45051E+03  6.50330E+03 -1.22879E+02  8.45504E+03 -5.87138E+03  5.05401E+03 -6.45945E+03 -5.99729E+02
 -6.54863E+03 -5.91138E+03 -1.71487E+03 -6.29829E+03  3.18866E+03 -5.39136E+03  3.71780E+03 -3.12222E+03
  2.86044E+03  2.35301E+02  2.07495E+02  1.49720E+03  4.36573E+02 -6.99729E+02  3.90400E+02 -2.79781E+03
  4.64732E+03 -1.30906E+03  6.46109E+03  6.86650E+02  7.23162E+03  4.49652E+03  6.10472E+03  9.29273E+03
 -1.74530E+03  1.09470E+04 -9.46651E+03  7.87070E+03 -1.22835E+04  1.41174E+03 -9.66695E+03 -3.29730E+03
 -5.36600E+03 -7.88252E+03 -4.87220E+02 -6.43248E+03  2.73267E+03 -3.14470E+03  2.01430E+03 -2.54257E+03
  1.46831E+03 -1.71866E+03  2.32415E+03 -2.68653E+03  3.91368E+03 -1.77776E+03  4.19120E+03  6.74345E+01
  5.35737E+03  1.55531E+03  1.94679E+03  3.89176E+03 -1.51800E+03  3.91060E+03 -5.60518E+03  3.55228E+03
 -6.32444E+03 -9.72224E+02 -3.19979E+03 -4.42074E+03  1.84323E+01 -6.57809E+03  3.95344E+03 -6.78043E+03
  6.73188E+03 -4.09474E+03  8.58054E+03  7.01742E+02  5.85416E+03  5.64620E+03  1.08834E+03  7.56671E+03
 -2.95430E+03  6.93789E+03 -4.25937E+03  2.35348E+03 -2.72691E+03 -8.34267E+02 -8.02052E+02 -1.06629E+03
 -6.66894E+02  4.74604E+02 -1.17618E+03  2.00924E+03 -3.14233E+03  1.07853E+03 -5.06898E+03 -4.21747E+02
 -2.50365E+03 -4.63404E+03  8.50557E+02 -5.85511E+03  3.77349E+03 -5.67308E+03  5.15747E+03 -1.74728E+03
  5.63298E+03  3.12562E+03  2.68312E+03  4.76056E+03 -8.59465E+02  5.49885E+03 -3.62914E+03  3.93669E+03
 -5.41563E+03  4.00831E+02 -4.75515E+03 -3.13900E+03 -1.47502E+02 -4.52364E+03  2.09766E+03 -3.34879E+03
  3.81057E+03 -1.44127E+03  2.41058E+03  5.60708E+02  7.65472E+02  2.07130E+03  8.42952E+02  9.17212E+02
  1.63360E+03  5.59380E+02  1.63929E+03  1.30989E+03  1.61868E+03  2.93316E+03  1.34446E+03  2.53892E+03
 -1.54089E+03  3.80954E+03 -3.52099E+03  4.90778E+03 -4.73520E+03  1.53815E+03 -5.77577E+03 -1.06886E+03
 -2.44973E+03 -5.32387E+03  7.97426E+02 -6.14827E+03  2.97461E+03 -3.99303E+03  4.49993E+03 -1.05846E+03
  3.49560E+03  2.44169E+03  6.68287E+02  3.00931E+03 -1.10745E+03  1.92663E+03 -1.80997E+03 -2.41897E+02
 -8.33622E+02 -2.03994E+03  1.67640E+03 -2.20424E+03  1.84038E+03 -1.25164E+03  1.91107E+03  4.49382E+02
  1.14863E+03  7.35387E+02  1.20872E+03  1.23306E+02 -2.89500E+02  1.01165E+03  1.38718E+03  7.79851E+00
  5.38626E+02 -2.42217E+02  2.41249E+03  8.63401E+02  6.48377E+02  3.22185E+03 -3.31692E+02  3.86356E+03
 -2.29680E+03  1.96233E+03 -3.07846E+03  4.14178E+02 -3.12051E+03 -1.08281E+03 -2.79858E+02 -1.65329E+03
  7.19748E+02 -2.12704E+03  1.40021E+03 -1.15767E+03  1.35493E+03  1.58769E+03 -7.73993E+02  1.78957E+03
 -1.97820E+03  1.54015E+03 -1.99707E+03 -1.68521E+03 -1.17565E+03 -2.91861E+03  2.38506E+02 -2.48653E+03
  9.82004E+02 -1.16726E+03  1.53433E+03  1.98427E+02  2.09290E+03 -6.80707E+01  3.14365E+02  1.56224E+03
 -6.91839E+02  1.39309E+02 -1.43643E+03 -7.34322E+02  6.57724E+02 -1.51308E+03  2.07237E+03 -1.62845E+03
  2.30316E+03  2.49349E+02  3.43712E+03  1.67003E+03  1.35629E+03  2.87315E+03 -5.49566E+02  2.66127E+03
 -2.34259E+03  4.95770E+02 -2.63069E+03 -4.22908E+02 -1.36138E+03 -1.79822E+03  4.91225E+02 -1.46347E+03
  2.17690E+03 -1.11231E+03  1.50665E+03  4.79695E+02  3.72246E+02  1.95378E+03  4.10393E+02  1.58397E+03
 -8.03334E+02  1.45816E+03 -7.69590E+02  2.35460E+02 -2.60406E+02  2.12341E+02 -1.09480E+03  6.32089E+02
 -9.15642E+02  1.42364E+03 -2.28686E+03  6.89628E+02 -2.60561E+03  2.45096E+02 -3.50967E+03 -1.72067E+03
 -1.77291E+03 -3.66966E+03  5.57352E+02 -4.35073E+03  2.07463E+03 -3.58256E+03  4.34537E+03 -1.43815E+03
  3.91226E+03  2.69606E+02  2.04471E+03  2.41501E+03 -6.22941E+02  2.40644E+03 -1.33635E+03  2.29434E+03
 -1.66905E+03  1.18820E+03 -8.15625E+02 -6.52926E+02 -5.57040E+02  7.99559E+01 -5.56548E+02 -3.77781E+01
 -1.24514E+03 -6.07673E+01 -1.06015E+03 -1.26552E+02  4.58733E+01 -1.06606E+03 -3.63086E+02 -1.38199E+03
  1.72183E+03 -7.70464E+02  1.14354E+03  2.23654E+02  2.15122E+03  1.84074E+03 -2.43580E+02  2.37745E+03
 -1.32755E+03  3.58709E+03 -2.79111E+03  2.19217E+03 -3.03977E+03 -3.73353E+02 -2.54450E+03 -1.96375E+03
 -1.10569E+03 -2.23148E+03  4.91281E+02 -2.24337E+03  1.01644E+03 -1.40067E+03  1.72520E+03  2.94155E+02
  1.09147E+03  6.49209E+02 -7.40149E+01  5.05060E+02 -4.73193E+02 -2.20370E+01  4.01735E+01 -2.77727E+02
  8.73266E+02  6.70222E+01  6.98525E+02  5.58697E+02  2.49147E+02  7.29054E+02  2.16846E+02  9.42104E+02
 -1.11443E+03  1.15626E+03 -1.08422E+03  1.85483E+02 -1.34355E+03 -1.06976E+03 -3.89903E+02 -1.90702E+03
  8.68187E+02 -1.46765E+03  1.29372E+03 -2.80786E+02  1.65937E+03 -3.28373E+02  8.64846E+02  1.27209E+03
  4.94849E+02  1.12823E+03 -4.05948E+02  1.08277E+03 -1.21590E+03  9.11364E+02 -5.51063E+02 -9.09446E+01
 -2.42122E+02  7.12921E+01 -7.30298E+02  2.29861E+02 -1.16973E+03  3.08447E+02 -1.05872E+03 -4.31583E+02
 -1.54378E+03 -2.63069E+02 -5.20223E+02 -1.65490E+03  1.20777E+03 -2.21262E+03  1.44975E+03 -7.49538E+02
  1.43039E+03  1.04028E+02  1.34315E+02  6.16774E+02 -5.28941E+01  1.65910E+03 -7.71662E+02  1.25567E+03
