 $NMID ID='MM_0lb_SNR800_14hz_g50_60.RAW', FMTDAT='(8E13.5)'
 TRAMP=1., VOLUME=1. $END
  3.09734E+05  3.07759E+02  3.37357E+05  2.50533E+05  8.46269E+04  3.37764E+05 -1.32401E+05  2.50894E+05
 -1.90155E+05  8.29045E+04 -1.11932E+05 -3.24196E+04  7.10034E+02 -5.04696E+04  5.39249E+04 -2.50780E+02
  3.53915E+04  5.27585E+04 -1.64902E+04  7.53050E+04 -6.06687E+04  6.34632E+04 -8.42534E+04  3.20734E+04
 -8.10282E+04 -1.16994E+04 -5.73327E+04 -5.13295E+04 -1.50885E+04 -6.96969E+04  2.72818E+04 -4.59141E+04
  4.01257E+04  3.69219E+03  1.64156E+04  4.77612E+04 -3.43335E+04  4.72867E+04 -6.69149E+04 -2.83628E+02
 -5.36246E+04 -5.67453E+04 -7.02237E+03 -7.71817E+04  3.39573E+04 -5.49069E+04  4.80800E+04 -1.72439E+04
  4.33951E+04  1.11005E+04  3.20301E+04  2.58175E+04  1.58295E+04  2.95225E+04 -5.35488E+03  2.73279E+04
 -2.20299E+04  1.24473E+04 -1.89605E+04 -5.03830E+03  5.72188E+03 -7.54816E+03  2.25467E+04  1.25112E+04
  7.24762E+03  3.51495E+04 -3.23286E+04  3.53827E+04 -6.32435E+04  2.23153E+03 -5.74376E+04 -4.29456E+04
 -1.23604E+04 -6.30919E+04  3.96463E+04 -4.51866E+04  5.82595E+04 -2.16798E+03  3.44053E+04  3.22532E+04
 -6.31793E+03  3.62293E+04 -2.99985E+04  1.57775E+04 -3.03943E+04 -4.43366E+03 -1.71511E+04 -1.09926E+04
 -7.85554E+03 -1.31158E+04 -4.27244E+02 -1.81004E+04  7.86629E+03 -2.29285E+04  1.54986E+04 -1.34154E+04
  1.16324E+04  4.90699E+03 -8.12572E+03  1.27644E+04 -2.10879E+04 -4.66438E+03 -8.62614E+03 -3.38057E+04
  2.29408E+04 -4.33589E+04  4.83032E+04 -1.93594E+04  4.55486E+04  1.92515E+04  1.60064E+04  4.44953E+04
 -1.57699E+04  3.34032E+04 -2.54893E+04  2.02169E+03 -1.00164E+04 -2.76590E+04  2.09320E+04 -3.39178E+04
  4.12322E+04 -8.82344E+03  3.56616E+04  2.35974E+04  1.82430E+04  4.65646E+04 -8.04437E+03  5.05385E+04
 -3.18830E+04  3.36740E+04 -4.20845E+04  9.57705E+03 -4.25571E+04 -1.68268E+04 -2.35922E+04 -3.79378E+04
  7.17867E+03 -3.79519E+04  3.16648E+04 -1.46812E+04  2.95682E+04  1.10230E+04  4.10080E+03  1.91833E+04
 -1.36185E+04  8.90465E+03 -1.01683E+04 -7.46786E+03  5.87542E+03 -1.06820E+04  1.79591E+04  5.77589E+03
  1.33669E+04  2.20758E+04 -5.76466E+03  2.50069E+04 -2.23225E+04  1.13964E+04 -2.84804E+04 -4.70380E+03
 -2.08785E+04 -1.71231E+04 -8.41376E+03 -2.02756E+04  4.13564E+03 -1.96505E+04  1.59261E+04 -1.82794E+04
  2.60933E+04 -1.29274E+04  3.29314E+04  3.17650E+03  2.39422E+04  2.00453E+04  4.33227E+03  3.61876E+04
 -1.77782E+04  3.03311E+04 -2.82028E+04  1.07925E+04 -2.08583E+04 -1.05036E+04 -4.18705E+03 -1.35523E+04
  1.63037E+03 -2.64438E+03 -4.98562E+03  6.49329E+03 -1.59466E+04  4.98007E+03 -1.64880E+04 -7.16009E+03
 -1.00714E+04 -1.85925E+04  5.41353E+03 -2.29439E+04  1.53273E+04 -1.66005E+04  1.80520E+04 -2.05486E+03
  1.12627E+04  1.31408E+04 -1.08813E+03  1.92872E+04 -1.30904E+04  1.08411E+04 -1.90587E+04 -4.11473E+03
 -1.40210E+04 -1.71586E+04 -1.67686E+03 -2.29720E+04  1.04061E+04 -1.89626E+04  1.92030E+04 -9.60268E+03
  1.80439E+04  2.46445E+02  1.26993E+04  4.19092E+03  6.95597E+03  9.93528E+02  9.40841E+03 -1.75892E+03
  1.73005E+04  2.66359E+03  1.94694E+04  1.53896E+04  1.26775E+04  3.03094E+04 -3.02029E+03  3.47327E+04
 -1.99160E+04  2.76285E+04 -3.20732E+04  1.40358E+04 -3.37916E+04 -2.16772E+03 -2.77191E+04 -1.95470E+04
 -1.17822E+04 -2.77797E+04  9.45627E+03 -2.51607E+04  2.14444E+04 -1.25850E+04  1.95518E+04  5.49802E+03
  7.12908E+03  1.46189E+04 -9.22626E+03  1.28583E+04 -1.65091E+04  2.27870E+03 -1.25184E+04 -1.01795E+04
  7.91859E+01 -1.57065E+04  8.31495E+03 -1.18101E+04  1.02573E+04 -1.34502E+03  2.29478E+03  6.52747E+03
 -6.96229E+03  2.32277E+03 -6.02093E+03 -5.39692E+03 -6.96307E+02 -1.36303E+04  9.40622E+03 -1.38573E+04
  1.68510E+04 -7.37922E+03  1.78598E+04  3.35137E+03  1.56555E+04  1.32871E+04  7.47343E+03  2.04966E+04
 -3.27333E+03  2.26740E+04 -1.42849E+04  1.42105E+04 -1.61586E+04  3.40259E+03 -1.14498E+04 -3.69448E+03
 -5.09062E+03 -5.18793E+03 -5.52831E+02  1.14270E+03 -2.45123E+03  2.66910E+03 -5.06649E+03  4.51432E+03
 -1.05864E+04 -1.00520E+03 -1.11490E+04 -9.11184E+03 -4.48109E+03 -1.48702E+04  4.78053E+03 -1.12676E+04
  9.50160E+03 -4.80433E+03  6.60298E+03  2.89988E+03  1.23323E+02  4.69799E+03 -5.20363E+03 -3.12243E+02
 -4.82829E+03 -7.27000E+03 -6.80485E+02 -1.07744E+04  6.09876E+03 -1.15217E+04  1.40169E+04 -5.82637E+03
  1.67952E+04  1.49401E+03  1.19358E+04  9.47102E+03  2.24114E+03  1.27652E+04 -7.06848E+03  1.11943E+04
 -9.19995E+03  3.42470E+03 -4.67041E+03 -2.26637E+03  1.65998E+03 -2.84097E+03  6.26103E+03 -9.89622E+02
  5.42250E+03  4.93829E+03  1.16731E+03  8.90666E+03 -6.51170E+03  8.64050E+03 -1.10737E+04  2.29603E+03
 -7.28478E+03 -5.44421E+03  1.62377E+02 -9.13846E+03  5.56342E+03 -4.70990E+03  5.56971E+03  1.73799E+03
  1.47335E+03  6.23213E+03 -5.73121E+03  7.36263E+03 -8.45052E+03  3.64792E+03 -8.08189E+03 -2.51423E+03
 -5.02215E+03 -1.00588E+04  2.46845E+03 -1.14643E+04  9.68731E+03 -7.16824E+03  1.06334E+04  1.86235E+03
  7.02364E+03  8.39059E+03 -6.00497E+02  1.05674E+04 -7.49487E+03  5.97628E+03 -8.06162E+03 -8.96724E+02
 -7.85029E+03 -7.02957E+03 -1.24282E+03 -8.08209E+03  4.60308E+03 -6.99021E+03  4.86184E+03 -3.04773E+03
  3.58296E+03  8.95618E+02 -2.77950E+02  1.64589E+03 -2.52654E+01 -1.40978E+03  5.73605E+02 -4.04042E+03
  6.81254E+03 -2.41271E+03  9.22792E+03  1.20781E+03  9.26952E+03  6.03225E+03  7.27993E+03  1.25738E+04
 -2.71458E+03  1.41602E+04 -1.23787E+04  1.06949E+04 -1.61035E+04  1.90924E+03 -1.31426E+04 -5.02657E+03
 -6.56524E+03 -1.05868E+04 -5.61680E+02 -8.41198E+03  3.14354E+03 -4.32883E+03  3.03627E+03 -3.16036E+03
  2.23201E+03 -2.32408E+03  2.85784E+03 -2.99866E+03  4.38012E+03 -1.99560E+03  5.26419E+03 -7.40393E+00
  6.81676E+03  1.76078E+03  3.08195E+03  5.53769E+03 -2.12467E+03  5.70046E+03 -7.18454E+03  4.78781E+03
 -8.67920E+03 -1.23271E+03 -4.63862E+03 -5.91545E+03 -3.96028E+02 -8.99403E+03  4.98659E+03 -9.25004E+03
  9.31705E+03 -5.12929E+03  1.12628E+04  8.60101E+02  7.89943E+03  7.25157E+03  1.17226E+03  1.01687E+04
 -3.97502E+03  9.04338E+03 -5.72232E+03  3.00674E+03 -3.67266E+03 -1.36571E+03 -1.29460E+03 -1.45281E+03
 -9.19452E+02  9.80543E+01 -1.15636E+03  1.95715E+03 -3.69962E+03  1.76990E+03 -6.59589E+03 -8.35199E+02
 -3.43034E+03 -6.36749E+03  4.45144E+02 -8.33795E+03  4.92452E+03 -7.46641E+03  7.67022E+03 -2.16650E+03
  7.63814E+03  4.09526E+03  3.42674E+03  6.95105E+03 -1.71972E+03  8.07539E+03 -5.04565E+03  5.10162E+03
 -7.71667E+03  5.35423E+02 -5.99413E+03 -4.70307E+03 -5.13026E+02 -6.58515E+03  3.24316E+03 -5.17180E+03
  4.86114E+03 -1.62543E+03  3.76603E+03  1.31107E+03  1.13205E+03  2.69105E+03  9.52198E+02  1.16747E+03
  1.97438E+03  7.67539E+02  2.08781E+03  1.33072E+03  2.27780E+03  3.18706E+03  2.19698E+03  3.96250E+03
 -1.66062E+03  5.47975E+03 -5.17779E+03  6.49628E+03 -7.45687E+03  1.86575E+03 -8.09101E+03 -2.75500E+03
 -3.28265E+03 -7.66958E+03  1.06112E+03 -8.73895E+03  4.40620E+03 -5.54610E+03  6.11648E+03 -1.60115E+03
  4.55414E+03  3.13643E+03  1.12175E+03  4.39731E+03 -2.05046E+03  2.54360E+03 -2.74970E+03 -4.50857E+02
 -1.41905E+03 -3.32725E+03  1.73833E+03 -3.30462E+03  3.29431E+03 -1.89395E+03  2.67671E+03  6.60156E+02
  1.80652E+03  1.28246E+03  8.27223E+02  4.71340E+02 -2.78118E+02  8.32993E+02  1.42580E+03 -5.12320E+02
  1.04516E+03 -2.57300E+02  3.44665E+03  1.26843E+03  1.31080E+03  4.33136E+03 -6.31202E+02  5.54880E+03
 -3.66628E+03  2.93436E+03 -4.74644E+03  8.33361E+02 -4.02888E+03 -1.72515E+03 -1.38853E+03 -2.82420E+03
  6.75076E+02 -2.75504E+03  2.13230E+03 -9.78851E+02  1.33769E+03  1.61786E+03 -1.01750E+03  2.29681E+03
 -2.97401E+03  1.55557E+03 -3.13723E+03 -2.07781E+03 -1.94283E+03 -4.16951E+03  6.04720E+02 -3.66486E+03
  1.87311E+03 -1.75027E+03  2.52432E+03 -2.53188E+02  2.59055E+03  3.44411E+02  6.05257E+02  2.11792E+03
 -1.12458E+03  5.63892E+02 -1.57724E+03 -8.29825E+02  9.68926E+02 -2.63920E+03  3.50701E+03 -2.05752E+03
  4.01529E+03  3.75804E+02  5.02621E+03  2.63819E+03  1.77203E+03  4.21558E+03 -1.19224E+03  3.88466E+03
 -3.51414E+03  1.07313E+03 -3.46955E+03 -7.12933E+02 -1.64580E+03 -2.97293E+03  7.93849E+02 -2.73426E+03
  2.88750E+03 -1.51737E+03  2.30643E+03  1.51119E+03  8.83976E+02  2.71827E+03 -1.76538E+02  1.89044E+03
 -1.18166E+03  1.74905E+03 -9.82567E+02  3.13726E+02 -6.29835E+01  6.18407E+02 -8.08682E+02  1.01137E+03
 -1.15913E+03  1.74664E+03 -3.12062E+03  1.19518E+03 -4.17463E+03 -6.13887E+01 -5.28193E+03 -2.40360E+03
 -2.26465E+03 -5.42512E+03  7.55595E+02 -6.34706E+03  3.50313E+03 -5.05341E+03  6.26342E+03 -1.90093E+03
  5.49261E+03  7.80091E+02  3.29327E+03  3.74806E+03 -2.11836E+02  4.06489E+03 -1.48899E+03  3.07705E+03
 -2.17783E+03  1.58219E+03 -1.57722E+03 -6.03994E+02 -7.48014E+02 -4.27590E+02 -7.95131E+02 -3.00914E+01
 -1.44160E+03 -1.62489E+01 -1.21245E+03  1.29836E+01 -3.12191E+02 -1.15076E+03 -2.80410E+02 -1.75420E+03
  2.36118E+03 -1.14241E+03  2.17318E+03  2.72001E+02  3.13814E+03  2.12107E+03  3.58231E+02  3.84966E+03
 -2.14058E+03  5.02507E+03 -4.36557E+03  2.68025E+03 -4.65387E+03 -4.48600E+02 -3.18914E+03 -2.90789E+03
 -1.53868E+03 -3.66195E+03  6.80637E+02 -3.14093E+03  2.23013E+03 -1.47556E+03  2.59851E+03 -4.36575E+01
  1.41659E+03  1.42812E+03  8.21197E+01  1.06907E+03 -7.69024E+02  2.32254E+01 -3.30218E+02 -5.33378E+02
  1.31485E+03 -2.85733E+02  1.12211E+03  5.29021E+02  5.50634E+02  1.50072E+03  3.16762E+02  1.45914E+03
 -1.78601E+03  1.73613E+03 -2.16108E+03  2.81421E+02 -2.34047E+03 -1.77722E+03  4.56840E+01 -3.15070E+03
  1.67961E+03 -2.32555E+03  2.31726E+03 -8.93772E+02  2.78313E+03 -6.03960E+01  1.24563E+03  2.49785E+03
  7.43280E+02  2.27545E+03 -7.47872E+02  1.97276E+03 -1.41473E+03  1.54904E+03 -1.19940E+03 -1.37373E+02
 -4.94802E+02  1.68711E+01 -6.74908E+02 -9.67469E-01 -1.41468E+03  2.97566E+02 -2.09690E+03 -5.32606E+02
 -2.08511E+03 -8.47778E+02 -7.52020E+02 -2.58399E+03  1.18820E+03 -3.00289E+03  1.86221E+03 -1.07433E+03
  2.13508E+03  2.90294E+02  6.89559E+02  1.41397E+03 -1.73034E+02  2.57706E+03 -1.30171E+03  1.96065E+03
