 $NMID ID='MM_0lb_SNR800_15hz_g45_68.RAW', FMTDAT='(8E13.5)'
 TRAMP=1., VOLUME=1. $END
  3.09901E+05  6.40875E+02  3.37697E+05  2.50488E+05  8.47558E+04  3.37440E+05 -1.32267E+05  2.50546E+05
 -1.90009E+05  8.28625E+04 -1.11774E+05 -3.26746E+04  9.66126E+02 -5.02164E+04  5.39318E+04  4.00470E+01
  3.52979E+04  5.26613E+04 -1.70145E+04  7.52942E+04 -6.08855E+04  6.32470E+04 -8.35920E+04  3.17456E+04
 -8.05126E+04 -1.13600E+04 -5.70504E+04 -5.10185E+04 -1.48476E+04 -6.93961E+04  2.73406E+04 -4.55290E+04
  3.96267E+04  3.65565E+03  1.57340E+04  4.74999E+04 -3.44967E+04  4.67821E+04 -6.63756E+04 -2.20796E+02
 -5.29921E+04 -5.63418E+04 -6.56896E+03 -7.63396E+04  3.39439E+04 -5.46029E+04  4.75008E+04 -1.67721E+04
  4.31015E+04  1.14456E+04  3.12012E+04  2.51250E+04  1.57846E+04  2.89600E+04 -5.19348E+03  2.68439E+04
 -2.19004E+04  1.22879E+04 -1.91237E+04 -4.90806E+03  5.19719E+03 -7.20515E+03  2.21087E+04  1.20565E+04
  7.65231E+03  3.46406E+04 -3.16131E+04  3.51287E+04 -6.26367E+04  2.33234E+03 -5.66696E+04 -4.20445E+04
 -1.21941E+04 -6.22853E+04  3.95062E+04 -4.47088E+04  5.73145E+04 -1.86495E+03  3.35935E+04  3.15490E+04
 -6.18712E+03  3.49102E+04 -2.94034E+04  1.48655E+04 -2.94100E+04 -4.68195E+03 -1.60482E+04 -1.07596E+04
 -7.71572E+03 -1.25775E+04 -7.55387E+02 -1.75294E+04  7.04039E+03 -2.29853E+04  1.54716E+04 -1.37912E+04
  1.18069E+04  4.94941E+03 -7.68103E+03  1.32248E+04 -2.04611E+04 -3.87170E+03 -8.20835E+03 -3.25238E+04
  2.20578E+04 -4.22099E+04  4.69988E+04 -1.93922E+04  4.41870E+04  1.88640E+04  1.50581E+04  4.36196E+04
 -1.57933E+04  3.25237E+04 -2.46767E+04  1.30471E+03 -9.18474E+03 -2.73038E+04  2.10745E+04 -3.29419E+04
  4.00593E+04 -8.53683E+03  3.40192E+04  2.36555E+04  1.73743E+04  4.49374E+04 -8.15456E+03  4.85948E+04
 -3.07010E+04  3.25646E+04 -4.07206E+04  9.38331E+03 -4.08772E+04 -1.61298E+04 -2.29906E+04 -3.67430E+04
  7.11352E+03 -3.61640E+04  3.08305E+04 -1.40948E+04  2.87523E+04  1.10096E+04  3.78598E+03  1.89407E+04
 -1.36325E+04  8.19096E+03 -1.03180E+04 -7.44441E+03  6.03312E+03 -1.04159E+04  1.77662E+04  6.19860E+03
  1.30749E+04  2.18180E+04 -6.33928E+03  2.43721E+04 -2.22159E+04  1.07529E+04 -2.70868E+04 -5.09099E+03
 -1.91073E+04 -1.71225E+04 -7.23326E+03 -1.95352E+04  4.20514E+03 -1.81936E+04  1.46351E+04 -1.70238E+04
  2.45535E+04 -1.25036E+04  3.12448E+04  2.22743E+03  2.30515E+04  1.90096E+04  4.28941E+03  3.48486E+04
 -1.71531E+04  2.96076E+04 -2.74621E+04  1.02227E+04 -2.06639E+04 -1.04453E+04 -4.55706E+03 -1.38562E+04
  2.26017E+03 -3.11602E+03 -3.93818E+03  6.22559E+03 -1.50966E+04  4.96862E+03 -1.53529E+04 -6.37755E+03
 -9.42847E+03 -1.77666E+04  5.16390E+03 -2.19380E+04  1.45189E+04 -1.60106E+04  1.69070E+04 -1.20333E+03
  1.04912E+04  1.24689E+04 -1.04870E+03  1.80675E+04 -1.20192E+04  9.82495E+03 -1.78178E+04 -3.71049E+03
 -1.28951E+04 -1.62821E+04 -1.94214E+03 -2.16242E+04  9.98497E+03 -1.76410E+04  1.80937E+04 -8.58344E+03
  1.67308E+04  2.66152E+02  1.21960E+04  4.22405E+03  5.97084E+03  8.26705E+02  8.92661E+03 -1.34820E+03
  1.59551E+04  2.96317E+03  1.77002E+04  1.46005E+04  1.14575E+04  2.86381E+04 -2.71777E+03  3.14916E+04
 -1.82865E+04  2.51889E+04 -2.96688E+04  1.24097E+04 -3.07845E+04 -2.06542E+03 -2.54569E+04 -1.76056E+04
 -1.11693E+04 -2.54677E+04  8.50129E+03 -2.30296E+04  1.96903E+04 -1.21101E+04  1.80868E+04  4.87124E+03
  6.83407E+03  1.32694E+04 -8.69116E+03  1.19291E+04 -1.52083E+04  2.61679E+03 -1.18162E+04 -9.11907E+03
 -4.36412E+02 -1.44428E+04  7.14160E+03 -1.08722E+04  9.42762E+03 -1.46046E+03  2.05974E+03  6.29752E+03
 -6.16852E+03  2.41951E+03 -5.11810E+03 -5.39342E+03 -3.14274E+01 -1.25438E+04  9.03040E+03 -1.24441E+04
  1.52278E+04 -6.82012E+03  1.61408E+04  2.87078E+03  1.38628E+04  1.18649E+04  6.36965E+03  1.84834E+04
 -2.73528E+03  2.00421E+04 -1.28815E+04  1.26641E+04 -1.42516E+04  3.39428E+03 -1.06432E+04 -3.19331E+03
 -5.37112E+03 -4.48662E+03 -8.50489E+02  1.13069E+03 -2.16945E+03  2.55691E+03 -4.49886E+03  4.02323E+03
 -9.75862E+03 -4.08402E+02 -1.05940E+04 -8.67557E+03 -4.03826E+03 -1.36392E+04  4.29207E+03 -1.05307E+04
  8.89608E+03 -4.73002E+03  6.09105E+03  2.94915E+03  3.25744E+02  3.76991E+03 -4.89341E+03 -1.28896E+02
 -4.32289E+03 -6.54206E+03 -1.03158E+03 -9.49037E+03  5.36258E+03 -1.03492E+04  1.25809E+04 -5.27322E+03
  1.47733E+04  1.32160E+03  1.10041E+04  8.60002E+03  2.11664E+03  1.14277E+04 -6.31802E+03  1.02443E+04
 -8.40600E+03  3.46114E+03 -4.51741E+03 -1.91964E+03  1.57428E+03 -2.37224E+03  5.72953E+03 -8.96859E+02
  5.19274E+03  4.39628E+03  1.14971E+03  7.85645E+03 -5.67327E+03  7.80633E+03 -9.93219E+03  1.80381E+03
 -6.40882E+03 -5.04775E+03  1.68543E+02 -8.24915E+03  5.09992E+03 -4.45641E+03  4.88434E+03  1.57503E+03
  9.19291E+02  5.22390E+03 -5.03617E+03  6.53693E+03 -6.99441E+03  3.33347E+03 -6.88797E+03 -2.16501E+03
 -4.03641E+03 -8.42298E+03  2.04962E+03 -9.81566E+03  8.35304E+03 -6.44856E+03  8.99085E+03  1.13102E+03
  5.96110E+03  6.93987E+03 -5.31502E+02  9.59480E+03 -6.78772E+03  5.14551E+03 -7.39900E+03 -5.40305E+02
 -6.99831E+03 -6.52666E+03 -1.73628E+03 -6.83724E+03  3.63857E+03 -5.89306E+03  4.02784E+03 -2.85412E+03
  3.12335E+03  6.50047E+02 -3.59031E+02  1.58300E+03  1.58602E+02 -8.44542E+02  7.13095E+02 -3.28611E+03
  5.81214E+03 -1.56235E+03  7.95184E+03  8.20419E+02  8.18165E+03  5.56456E+03  6.71966E+03  1.07367E+04
 -1.86994E+03  1.24245E+04 -1.09617E+04  9.45274E+03 -1.38584E+04  1.54434E+03 -1.09303E+04 -4.09377E+03
 -5.85187E+03 -9.25963E+03 -5.91143E+02 -7.58667E+03  2.93689E+03 -3.56821E+03  2.53839E+03 -2.96146E+03
  1.85169E+03 -1.63502E+03  2.70271E+03 -2.86744E+03  4.20756E+03 -1.79568E+03  4.91936E+03  1.44968E+02
  6.02195E+03  1.74393E+03  2.42568E+03  5.19418E+03 -1.52358E+03  5.07886E+03 -6.53399E+03  4.29339E+03
 -7.43156E+03 -1.17841E+03 -3.58324E+03 -5.10669E+03  2.84873E+02 -7.51161E+03  4.47455E+03 -7.95223E+03
  7.70205E+03 -4.54434E+03  9.97588E+03  5.84434E+02  6.74574E+03  6.68633E+03  1.19080E+03  8.71682E+03
 -3.66682E+03  8.20563E+03 -5.02600E+03  2.68496E+03 -3.20133E+03 -1.15440E+03 -1.43746E+03 -6.81005E+02
 -6.69313E+02  5.49674E+02 -1.12738E+03  2.11207E+03 -3.31099E+03  1.46026E+03 -5.45278E+03 -4.66365E+02
 -2.85951E+03 -5.77483E+03  6.33574E+02 -7.26586E+03  3.84537E+03 -6.54941E+03  6.46136E+03 -1.84606E+03
  6.76133E+03  3.69562E+03  2.94634E+03  5.85881E+03 -1.48025E+03  6.73540E+03 -4.55281E+03  4.14197E+03
 -6.29757E+03  5.68843E+02 -5.12045E+03 -3.93047E+03 -5.49367E+02 -5.54399E+03  2.80657E+03 -4.07304E+03
  4.27572E+03 -1.49407E+03  2.93769E+03  9.76295E+02  1.18897E+03  2.36944E+03  7.11282E+02  6.38328E+02
  2.13386E+03  6.03040E+02  1.75428E+03  1.54272E+03  1.94717E+03  2.90394E+03  2.03467E+03  3.14222E+03
 -1.93710E+03  5.11172E+03 -4.35079E+03  5.77041E+03 -5.86792E+03  1.78055E+03 -6.80940E+03 -2.23593E+03
 -3.04538E+03 -6.00048E+03  9.40957E+02 -7.48344E+03  2.95571E+03 -4.74658E+03  5.37910E+03 -1.18794E+03
  4.44424E+03  2.71248E+03  1.14684E+03  3.62931E+03 -1.71782E+03  2.36546E+03 -2.32411E+03 -3.01023E+02
 -1.07450E+03 -2.46303E+03  1.79500E+03 -2.65665E+03  2.38150E+03 -1.52781E+03  2.27678E+03  8.10708E+02
  1.27979E+03  1.08507E+03  9.91362E+02  3.18071E+02 -6.39873E+02  9.30532E+02  1.55767E+03 -3.96413E+02
  4.95225E+02 -3.71277E+02  2.88502E+03  9.58493E+02  1.30364E+03  3.30153E+03 -6.45277E+02  4.43125E+03
 -3.13988E+03  2.28578E+03 -3.57082E+03  7.90775E+02 -3.71824E+03 -1.37081E+03 -1.10114E+03 -1.93955E+03
  3.89187E+02 -1.95319E+03  1.76223E+03 -1.02425E+03  9.71677E+02  1.47386E+03 -9.27821E+02  1.66297E+03
 -2.48378E+03  1.26583E+03 -2.81312E+03 -1.48763E+03 -1.30224E+03 -3.46047E+03  1.28911E+02 -3.11956E+03
  1.26068E+03 -1.72180E+03  1.87903E+03  2.12653E+02  2.11328E+03  2.78231E+02  5.92698E+02  1.87106E+03
 -8.84604E+02  4.58024E+02 -1.64809E+03 -5.79629E+02  7.53303E+02 -2.20625E+03  3.06251E+03 -2.07547E+03
  3.12267E+03  5.48439E+02  3.81310E+03  2.05150E+03  1.67438E+03  3.32686E+03 -1.10160E+03  3.48245E+03
 -3.01089E+03  1.00763E+03 -3.12316E+03 -4.03529E+02 -1.63583E+03 -2.18495E+03  5.93990E+02 -1.60214E+03
  2.40436E+03 -1.32088E+03  1.67660E+03  1.08600E+03  4.10209E+02  2.01340E+03 -3.22146E+02  1.92111E+03
 -1.03356E+03  1.73407E+03 -5.04577E+02  1.95092E+02 -2.42065E+02  4.05625E+02 -1.27791E+03  7.41432E+02
 -8.92831E+02  1.59537E+03 -2.71894E+03  7.96439E+02 -3.46318E+03  1.84542E+02 -4.07095E+03 -2.07231E+03
 -1.93691E+03 -4.23183E+03  8.50034E+02 -5.29576E+03  2.67070E+03 -4.26866E+03  5.07025E+03 -1.78773E+03
  4.73633E+03  5.94770E+02  2.66521E+03  3.06175E+03 -4.07349E+02  3.07408E+03 -1.17805E+03  2.53304E+03
 -1.94531E+03  1.35446E+03 -1.25289E+03 -1.92687E+02 -5.43165E+02  2.90913E+02 -7.29528E+02  3.54766E+01
 -1.13008E+03 -2.29460E+02 -1.44206E+03 -1.48569E+02  1.13278E+02 -9.93379E+02  1.01866E+01 -1.46966E+03
  1.70077E+03 -9.91276E+02  1.48305E+03  2.49889E+02  2.60502E+03  1.83996E+03  1.58934E+02  2.91844E+03
 -1.38356E+03  4.08437E+03 -3.44407E+03  2.20689E+03 -3.94895E+03 -4.16715E+02 -2.61289E+03 -2.42508E+03
 -1.50749E+03 -3.24526E+03  5.77780E+02 -2.81932E+03  1.78479E+03 -1.23546E+03  1.94124E+03  2.23888E+02
  1.21967E+03  1.11288E+03 -1.93769E+02  9.18924E+02 -4.41122E+02  4.78642E+01 -3.63459E+02 -4.66179E+02
  9.10759E+02  1.03560E+02  1.08229E+03  5.26720E+02  5.27305E+02  9.27708E+02  5.71450E+02  1.09292E+03
 -1.27687E+03  1.43365E+03 -1.77380E+03  2.84556E+02 -1.86099E+03 -1.48846E+03 -2.02321E+02 -2.53603E+03
  1.33261E+03 -2.22543E+03  1.76073E+03 -3.96542E+02  2.22881E+03 -2.54725E+01  1.31548E+03  1.68660E+03
  1.85461E+02  1.66089E+03 -5.55232E+02  1.41283E+03 -1.12053E+03  7.90787E+02 -9.99713E+02  1.28134E+02
 -4.10452E+02 -8.92593E+01 -8.59057E+02  5.85199E+02 -1.44120E+03  5.92528E+02 -1.85381E+03 -3.99001E+02
 -2.07547E+03 -6.00549E+02 -7.05908E+02 -1.89050E+03  1.22737E+03 -2.40437E+03  1.80948E+03 -7.91251E+02
  1.69321E+03  2.12298E+02  2.60685E+02  1.08345E+03 -2.25319E+01  1.84946E+03 -1.30973E+03  1.33250E+03
