 $NMID ID='MM_0lb_SNR800_19hz_g40_14.RAW', FMTDAT='(8E13.5)'
 TRAMP=1., VOLUME=1. $END
  3.09792E+05  3.63959E+02  3.37298E+05  2.50315E+05  8.40045E+04  3.37126E+05 -1.32281E+05  2.49926E+05
 -1.89477E+05  8.23936E+04 -1.10638E+05 -3.30158E+04  1.73676E+03 -5.02910E+04  5.40843E+04  3.62987E+02
  3.51151E+04  5.28818E+04 -1.70626E+04  7.44905E+04 -6.02721E+04  6.23686E+04 -8.24168E+04  3.13474E+04
 -7.92661E+04 -1.11870E+04 -5.57803E+04 -4.97719E+04 -1.49065E+04 -6.77119E+04  2.61534E+04 -4.43190E+04
  3.86629E+04  4.04950E+03  1.55061E+04  4.68784E+04 -3.39806E+04  4.57468E+04 -6.48563E+04 -4.10597E+02
 -5.16509E+04 -5.53618E+04 -5.96359E+03 -7.44198E+04  3.26735E+04 -5.22687E+04  4.55993E+04 -1.61328E+04
  4.09845E+04  1.12137E+04  3.04534E+04  2.40385E+04  1.57227E+04  2.80573E+04 -4.40672E+03  2.65237E+04
 -2.15049E+04  1.29755E+04 -1.92882E+04 -4.44313E+03  3.88446E+03 -7.25683E+03  2.05663E+04  1.06706E+04
  7.62020E+03  3.24686E+04 -3.02034E+04  3.36138E+04 -6.04053E+04  2.21122E+03 -5.48230E+04 -4.07071E+04
 -1.24554E+04 -6.01254E+04  3.74458E+04 -4.25241E+04  5.44358E+04 -1.88741E+03  3.11799E+04  3.01782E+04
 -6.72117E+03  3.22579E+04 -2.80542E+04  1.26623E+04 -2.66162E+04 -5.61812E+03 -1.37374E+04 -9.77338E+03
 -7.13320E+03 -1.12898E+04 -8.95137E+02 -1.61426E+04  6.51608E+03 -2.22637E+04  1.48058E+04 -1.41133E+04
  1.26230E+04  3.98991E+03 -5.46936E+03  1.33798E+04 -1.85978E+04 -1.95325E+03 -7.90727E+03 -2.93235E+04
  2.03556E+04 -3.95171E+04  4.36965E+04 -1.80623E+04  4.13160E+04  1.78605E+04  1.41633E+04  4.08342E+04
 -1.50632E+04  3.02436E+04 -2.28403E+04  6.66355E+02 -8.02836E+03 -2.58189E+04  2.03664E+04 -3.00820E+04
  3.72417E+04 -7.02960E+03  3.05253E+04  2.27012E+04  1.45085E+04  4.14169E+04 -7.64033E+03  4.38291E+04
 -2.74934E+04  2.88117E+04 -3.61241E+04  8.07476E+03 -3.72049E+04 -1.46110E+04 -2.03890E+04 -3.32554E+04
  6.51595E+03 -3.29296E+04  2.83703E+04 -1.22523E+04  2.62780E+04  1.06873E+04  2.78364E+03  1.77846E+04
 -1.31010E+04  6.79832E+03 -9.31420E+03 -7.67814E+03  6.12599E+03 -9.98520E+03  1.70340E+04  6.53595E+03
  1.20270E+04  2.13127E+04 -6.83596E+03  2.31024E+04 -2.09939E+04  8.34609E+03 -2.43303E+04 -7.08447E+03
 -1.55172E+04 -1.62303E+04 -4.90925E+03 -1.58224E+04  4.01833E+03 -1.33630E+04  1.17229E+04 -1.34442E+04
  2.01515E+04 -1.12115E+04  2.69569E+04  6.68377E+02  2.04628E+04  1.53237E+04  4.04598E+03  3.14914E+04
 -1.56123E+04  2.66218E+04 -2.54295E+04  9.05818E+03 -1.94238E+04 -1.04654E+04 -3.53775E+03 -1.42753E+04
  2.67387E+03 -4.63982E+03 -2.42780E+03  5.12575E+03 -1.20796E+04  5.45995E+03 -1.26078E+04 -4.40004E+03
 -8.32884E+03 -1.43372E+04  4.24085E+03 -1.83714E+04  1.19191E+04 -1.33480E+04  1.37244E+04 -1.44613E+03
  8.22846E+03  1.04058E+04 -8.46909E+02  1.48123E+04 -9.67733E+03  8.39040E+03 -1.47479E+04 -3.30852E+03
 -1.08504E+04 -1.36265E+04 -1.45655E+03 -1.80522E+04  8.49584E+03 -1.43004E+04  1.54647E+04 -6.87994E+03
  1.39141E+04  6.24300E+02  9.80545E+03  3.69700E+03  4.67430E+03  5.46134E+02  7.13342E+03 -1.07443E+03
  1.28726E+04  2.73071E+03  1.39463E+04  1.20208E+04  8.24630E+03  2.35092E+04 -3.04187E+03  2.51825E+04
 -1.51210E+04  1.85318E+04 -2.25223E+04  9.00765E+03 -2.32597E+04 -1.84598E+03 -1.99106E+04 -1.33745E+04
 -9.52147E+03 -1.87079E+04  6.14221E+03 -1.77021E+04  1.54661E+04 -1.07369E+04  1.49439E+04  3.34604E+03
  6.52275E+03  1.04205E+04 -6.59980E+03  1.00626E+04 -1.25221E+04  2.65024E+03 -1.00003E+04 -7.51745E+03
  1.43234E+02 -1.16097E+04  5.74932E+03 -8.99240E+03  7.53038E+03 -1.22440E+03  1.41990E+03  4.72729E+03
 -5.48434E+03  1.14295E+03 -3.30941E+03 -4.41489E+03  7.76880E+02 -9.50191E+03  7.78661E+03 -9.45012E+03
  1.12962E+04 -4.16074E+03  1.05054E+04  2.89508E+03  9.12499E+03  8.92153E+03  4.27384E+03  1.27442E+04
 -1.47134E+03  1.47452E+04 -8.65989E+03  9.23883E+03 -1.04603E+04  2.77520E+03 -8.04785E+03 -1.61159E+03
 -4.52585E+03 -2.66397E+03 -5.35319E+02  1.61611E+03 -1.55857E+03  1.81079E+03 -3.23343E+03  3.50441E+03
 -7.43465E+03 -5.21635E+02 -8.08672E+03 -6.80544E+03 -3.42825E+03 -1.09286E+04  3.22447E+03 -7.84997E+03
  6.65812E+03 -3.16966E+03  4.96479E+03  1.86038E+03  6.44530E+02  2.92925E+03 -3.20915E+03 -8.18218E+01
 -3.06517E+03 -4.83463E+03 -8.22621E+02 -6.64992E+03  3.50492E+03 -7.22057E+03  9.24765E+03 -3.61545E+03
  1.05167E+04  5.23565E+02  7.92641E+03  5.65401E+03  1.48039E+03  7.85413E+03 -4.86996E+03  7.91334E+03
 -6.27212E+03  2.61900E+03 -3.30527E+03 -1.21059E+03  1.23078E+03 -1.78895E+03  4.55161E+03 -7.20819E+02
  3.75380E+03  2.87336E+03  1.21387E+03  6.13179E+03 -4.20138E+03  5.85457E+03 -7.33883E+03  1.88915E+03
 -4.50001E+03 -3.38220E+03  6.07944E+02 -6.07993E+03  3.13677E+03 -3.14831E+03  3.10957E+03  9.12451E+02
  3.09167E+02  3.07421E+03 -3.60862E+03  4.26304E+03 -4.48713E+03  2.23362E+03 -3.79972E+03 -8.31100E+02
 -2.40950E+03 -5.29347E+03  1.13404E+03 -6.36742E+03  5.29074E+03 -4.28613E+03  5.67810E+03  6.77701E+02
  4.31196E+03  4.80384E+03  2.41111E+01  6.62216E+03 -4.25477E+03  3.91333E+03 -4.79846E+03 -2.77780E+02
 -5.48856E+03 -4.77955E+03 -1.51555E+03 -4.51870E+03  2.02098E+03 -4.32397E+03  2.63971E+03 -2.72379E+03
  2.58184E+03  2.75285E+02  1.25859E+02  1.39514E+03  6.84426E+02 -1.27281E+01 -7.79973E+01 -1.67708E+03
  3.42100E+03 -4.33576E+02  4.64675E+03  6.19683E+02  5.18070E+03  2.52238E+03  4.92386E+03  6.35251E+03
 -8.79286E+02  7.61219E+03 -7.08515E+03  5.81281E+03 -8.74274E+03  9.51325E+02 -7.01233E+03 -2.41253E+03
 -3.78474E+03 -5.71684E+03 -4.97841E+02 -4.71167E+03  1.96848E+03 -1.82023E+03  1.36701E+03 -1.90251E+03
  1.07098E+03 -1.43850E+03  1.86375E+03 -2.11990E+03  3.43201E+03 -1.41927E+03  3.44916E+03  3.80277E+02
  4.09752E+03  1.06768E+03  9.24070E+02  2.91873E+03 -1.55902E+03  2.04235E+03 -3.95480E+03  2.31607E+03
 -4.61151E+03 -1.07148E+03 -1.40736E+03 -2.86104E+03  4.81074E+02 -4.56997E+03  2.92607E+03 -4.79698E+03
  4.64167E+03 -2.98862E+03  6.01996E+03  2.30506E+02  4.41204E+03  3.95677E+03  1.02770E+03  5.38370E+03
 -1.83610E+03  5.67962E+03 -2.90079E+03  1.93448E+03 -1.73318E+03 -1.18750E+03 -3.22671E+02 -6.04577E+02
 -4.03240E+02  4.01883E+02 -9.38827E+02  2.04237E+03 -2.36309E+03  9.25791E+02 -3.78340E+03 -4.18486E+02
 -1.13431E+03 -3.94719E+03  8.65257E+02 -4.41174E+03  2.35215E+03 -3.80691E+03  2.87122E+03 -9.65971E+02
  3.58446E+03  1.83809E+03  1.62937E+03  3.04715E+03 -4.81237E+02  4.11202E+03 -2.45630E+03  2.47759E+03
 -3.37926E+03  8.34936E+02 -3.00744E+03 -2.23515E+03 -2.74547E+02 -2.69586E+03  1.42801E+03 -2.09014E+03
  2.63839E+03 -1.38568E+03  1.54636E+03  2.72592E+02  3.51064E+02  1.44739E+03  7.12571E+02  4.94211E+02
  1.48702E+03  4.18082E+02  1.17825E+03  8.35394E+02  6.06977E+02  2.13978E+03  1.30376E+03  1.32355E+03
 -1.09727E+03  2.82238E+03 -2.18209E+03  3.86194E+03 -2.32749E+03  1.01497E+03 -3.84281E+03 -2.13937E+02
 -1.47956E+03 -3.40399E+03  5.40482E+02 -4.23504E+03  1.83799E+03 -2.24175E+03  2.78250E+03 -6.81082E+02
  2.22040E+03  1.60782E+03  4.70408E+02  2.13743E+03 -3.10266E+02  1.24633E+03 -8.58150E+02  1.63881E+02
 -4.41220E+02 -1.51347E+03  1.38659E+03 -1.29956E+03  1.26233E+03 -1.00703E+03  9.36091E+02  1.44783E+02
  4.07390E+02  3.53203E+02  8.28832E+02 -3.00107E+02 -2.08644E+02  8.06180E+02  1.53509E+03 -2.26241E+02
 -1.60004E+02  7.90976E+01  1.49242E+03  7.33504E+02  7.85184E+01  2.14528E+03 -3.12254E+02  2.47676E+03
 -1.34821E+03  7.68475E+02 -1.89547E+03  1.17300E+02 -2.11966E+03 -6.17631E+02  1.39091E+02 -7.61140E+02
  4.35187E+02 -1.09753E+03  9.06756E+02 -5.86388E+02  4.88226E+02  1.32419E+03 -7.09625E+02  1.12395E+03
 -1.30477E+03  6.57350E+02 -9.66345E+02 -1.17129E+03 -6.60255E+02 -1.95443E+03  2.96294E+02 -1.29962E+03
  7.16088E+02 -6.41528E+02  9.19823E+02  1.91904E+02  1.27996E+03 -3.42382E+02  5.29432E+02  1.12646E+03
 -3.19233E+02  3.73854E+02 -9.97208E+02 -2.16770E+02  5.81923E+02 -7.68156E+02  1.45481E+03 -9.08006E+02
  7.64619E+02  6.81807E+01  2.86643E+03  6.57673E+02  1.15431E+03  1.52214E+03 -2.29455E+02  1.45087E+03
 -1.38856E+03  2.63519E+02 -1.33381E+03  1.82035E+02 -6.82336E+02 -1.15084E+03  3.38039E+02 -3.50976E+02
  1.62888E+03 -7.04866E+02  5.05103E+02  6.12201E+02  5.20709E+01  1.21725E+03  1.58295E+02  9.18715E+02
 -5.51342E+02  1.17487E+03 -4.71305E+02  5.30733E+01  2.28768E+02  1.67116E+02 -6.42647E+02  3.55264E+02
 -3.97884E+02  1.20679E+03 -1.86146E+03  2.82137E+02 -1.52627E+03  1.81719E+02 -2.18624E+03 -6.61053E+02
 -9.77807E+02 -2.01417E+03  4.13506E+02 -2.47183E+03  1.04000E+03 -2.07061E+03  2.60149E+03 -1.11083E+03
  2.14878E+03 -1.30135E+02  8.80707E+02  1.42824E+03 -8.40334E+02  1.32697E+03 -4.35384E+02  1.01774E+03
 -8.93678E+02  8.37125E+02 -5.01329E+02 -2.69549E+02 -5.01796E+02  3.44971E+02 -5.48688E+02  5.86490E+01
 -1.16880E+03 -1.05028E+02 -1.11882E+03  5.50744E+01  1.33416E+02 -8.29754E+02 -3.55283E+02 -8.19490E+02
  1.23153E+03 -4.57479E+02  4.86906E+02  1.20896E+02  1.19024E+03  9.33723E+02 -5.85829E+02  1.07183E+03
 -8.57267E+02  2.03246E+03 -1.56607E+03  1.22806E+03 -1.32320E+03 -1.70792E+02 -1.14065E+03 -9.63009E+02
 -6.27958E+02 -1.29594E+03  2.21531E+02 -1.10960E+03  4.85898E+02 -5.62842E+02  7.84803E+02  2.58997E+02
  4.41229E+02  1.69577E+02  9.80156E+01  1.40055E+02 -2.33081E+02  1.02775E+02 -1.38810E+02 -3.10171E+02
  4.77054E+02  1.64773E+02  4.60350E+02  4.79843E+02  1.92948E+02  5.49691E+02  4.84396E+02  3.36594E+02
 -5.89728E+02  2.77235E+02 -6.39788E+02  2.98177E+02 -7.35648E+02 -4.06481E+02 -5.96279E+01 -8.93123E+02
  6.04375E+02 -4.92316E+02  2.18143E+02  1.48123E+02  7.66939E+02 -8.03887E+02  5.60047E+02  6.99931E+02
  3.93790E+02  6.15515E+02 -2.65707E+02  2.16822E+02 -5.83487E+02  5.80209E+02 -6.27780E+02  1.53581E+02
  2.56291E+02 -2.20508E+02 -5.13888E+02 -2.61740E+01 -3.74372E+02  2.58413E+02 -6.17204E+02 -5.33209E+02
 -1.19292E+03  1.95744E+02 -3.61062E+02 -6.89205E+02  6.29468E+02 -1.60424E+03  6.34685E+02 -2.35344E+02
  8.43200E+02 -6.53735E+01 -2.43935E+02 -1.65444E+01 -2.12297E+02  5.52056E+02 -3.11704E+02  7.09957E+02
