 $NMID ID='MM_0lb_SNR800_10hz_g50_39.RAW', FMTDAT='(8E13.5)'
 TRAMP=1., VOLUME=1. $END
  3.09864E+05  2.83434E+02  3.38125E+05  2.50725E+05  8.45616E+04  3.38478E+05 -1.32388E+05  2.51714E+05
 -1.90533E+05  8.40379E+04 -1.12443E+05 -3.27153E+04  7.59043E+02 -5.09634E+04  5.37981E+04 -2.06011E+02
  3.54766E+04  5.29158E+04 -1.69403E+04  7.58479E+04 -6.07601E+04  6.39757E+04 -8.50541E+04  3.22920E+04
 -8.19812E+04 -1.16275E+04 -5.81280E+04 -5.21637E+04 -1.53075E+04 -7.05386E+04  2.80599E+04 -4.65124E+04
  4.08007E+04  3.87629E+03  1.67920E+04  4.81965E+04 -3.46389E+04  4.79333E+04 -6.80043E+04  1.29923E+02
 -5.44691E+04 -5.78623E+04 -7.02961E+03 -7.83522E+04  3.45594E+04 -5.66669E+04  4.93670E+04 -1.80409E+04
  4.48460E+04  1.15416E+04  3.28141E+04  2.65712E+04  1.58148E+04  3.02041E+04 -5.62261E+03  2.76680E+04
 -2.26008E+04  1.16218E+04 -1.78551E+04 -5.09336E+03  6.87506E+03 -7.18573E+03  2.34730E+04  1.32994E+04
  7.56626E+03  3.69341E+04 -3.37474E+04  3.70389E+04 -6.51963E+04  1.78960E+03 -5.85051E+04 -4.40141E+04
 -1.27948E+04 -6.56519E+04  4.11646E+04 -4.69619E+04  6.04733E+04 -2.59492E+03  3.58935E+04  3.38528E+04
 -5.93887E+03  3.86153E+04 -3.17092E+04  1.82432E+04 -3.30025E+04 -4.04733E+03 -1.91816E+04 -1.17348E+04
 -9.40446E+03 -1.43253E+04 -2.27955E+02 -1.93212E+04  8.14677E+03 -2.31805E+04  1.58446E+04 -1.26934E+04
  1.03600E+04  5.94186E+03 -1.01949E+04  1.26701E+04 -2.29676E+04 -6.03874E+03 -8.40243E+03 -3.66453E+04
  2.47387E+04 -4.57915E+04  5.17052E+04 -2.07260E+04  4.80762E+04  2.01258E+04  1.68923E+04  4.67279E+04
 -1.71625E+04  3.52881E+04 -2.72025E+04  2.15270E+03 -1.12804E+04 -2.92051E+04  2.15156E+04 -3.62150E+04
  4.42026E+04 -1.05344E+04  3.94705E+04  2.46879E+04  2.10673E+04  5.02409E+04 -8.19777E+03  5.50926E+04
 -3.47763E+04  3.73199E+04 -4.64067E+04  1.08708E+04 -4.67234E+04 -1.82642E+04 -2.55205E+04 -4.09850E+04
  7.79958E+03 -4.11786E+04  3.37184E+04 -1.63487E+04  3.10476E+04  1.13881E+04  4.84882E+03  2.04081E+04
 -1.36641E+04  9.66313E+03 -1.12544E+04 -7.63010E+03  5.70504E+03 -1.09551E+04  1.86774E+04  5.36104E+03
  1.45231E+04  2.27953E+04 -5.56033E+03  2.65764E+04 -2.30939E+04  1.37887E+04 -3.08382E+04 -3.14284E+03
 -2.46874E+04 -1.78605E+04 -1.06587E+04 -2.38792E+04  4.22011E+03 -2.45816E+04  1.89786E+04 -2.20597E+04
  3.03924E+04 -1.36626E+04  3.69593E+04  4.22378E+03  2.62182E+04  2.34839E+04  4.80665E+03  4.01374E+04
 -1.95693E+04  3.32089E+04 -3.03106E+04  1.17633E+04 -2.19866E+04 -1.01446E+04 -4.59915E+03 -1.29675E+04
  1.41927E+03 -1.66700E+03 -6.79343E+03  8.06507E+03 -1.93029E+04  4.81311E+03 -1.92926E+04 -8.89542E+03
 -1.17623E+04 -2.25588E+04  5.95609E+03 -2.65257E+04  1.81284E+04 -1.90313E+04  2.18676E+04 -1.69678E+03
  1.36363E+04  1.53925E+04 -1.33716E+03  2.24763E+04 -1.58776E+04  1.25864E+04 -2.24123E+04 -4.42955E+03
 -1.65954E+04 -2.03874E+04 -2.18694E+03 -2.70467E+04  1.22608E+04 -2.22679E+04  2.19216E+04 -1.12975E+04
  2.11796E+04 -1.31155E+02  1.51333E+04  4.92405E+03  8.50075E+03  1.43304E+03  1.15086E+04 -1.89409E+03
  2.13494E+04  2.76968E+03  2.39888E+04  1.76439E+04  1.66291E+04  3.63613E+04 -2.55630E+03  4.21871E+04
 -2.43371E+04  3.46349E+04 -3.95533E+04  1.78638E+04 -4.18091E+04 -2.81199E+03 -3.42242E+04 -2.44807E+04
 -1.40720E+04 -3.53189E+04  1.23630E+04 -3.08574E+04  2.64588E+04 -1.49611E+04  2.31430E+04  7.78339E+03
  7.77668E+03  1.77130E+04 -1.10438E+04  1.49417E+04 -1.88218E+04  2.84831E+03 -1.46569E+04 -1.24168E+04
 -2.34661E+02 -1.85495E+04  1.01539E+04 -1.35208E+04  1.25845E+04 -1.74418E+03  2.95058E+03  8.38322E+03
 -8.35174E+03  3.86024E+03 -8.56396E+03 -7.07133E+03 -1.79764E+03 -1.70248E+04  1.13256E+04 -1.87303E+04
  2.14047E+04 -1.06367E+04  2.47150E+04  3.00193E+03  2.13022E+04  1.74148E+04  1.02100E+04  2.73200E+04
 -4.86092E+03  2.92672E+04 -1.86418E+04  1.76694E+04 -2.13684E+04  3.32726E+03 -1.46788E+04 -5.20439E+03
 -6.47029E+03 -6.59041E+03 -9.23146E+02  6.70577E+02 -2.87900E+03  3.16942E+03 -6.98846E+03  5.24387E+03
 -1.34418E+04 -9.07611E+02 -1.40569E+04 -1.14922E+04 -5.27252E+03 -1.84848E+04  5.99095E+03 -1.50268E+04
  1.22678E+04 -5.97858E+03  8.39121E+03  3.97734E+03 -3.91616E+02  5.52100E+03 -7.37698E+03 -3.21427E+02
 -6.59317E+03 -9.54274E+03 -9.41351E+02 -1.40067E+04  8.20684E+03 -1.51946E+04  1.87131E+04 -8.03001E+03
  2.15567E+04  2.35542E+03  1.64784E+04  1.35539E+04  3.24138E+03  1.75432E+04 -8.96387E+03  1.44171E+04
 -1.15491E+04  4.49123E+03 -6.22171E+03 -3.23491E+03  2.14249E+03 -4.19608E+03  7.57708E+03 -8.28678E+02
  6.95812E+03  6.22241E+03  1.05737E+03  1.20435E+04 -8.55914E+03  1.11208E+04 -1.43351E+04  2.68565E+03
 -1.00940E+04 -8.06557E+03  3.16847E+02 -1.21952E+04  8.07827E+03 -6.26751E+03  8.62067E+03  2.97412E+03
  2.19817E+03  8.86412E+03 -7.65540E+03  1.05771E+04 -1.22269E+04  4.67782E+03 -1.26702E+04 -4.42255E+03
 -7.38785E+03 -1.43579E+04  3.85529E+03 -1.68162E+04  1.41862E+04 -9.89149E+03  1.54386E+04  2.45422E+03
  9.27068E+03  1.22885E+04 -1.39185E+03  1.45758E+04 -1.07976E+04  8.22547E+03 -1.15916E+04 -1.31446E+03
 -1.01729E+04 -9.91381E+03 -1.75088E+03 -1.09105E+04  6.06810E+03 -8.82435E+03  7.37872E+03 -3.61375E+03
  4.59354E+03  1.79713E+03 -1.04989E+03  1.61757E+03 -5.48639E+02 -3.09371E+03  2.06331E+03 -6.68835E+03
  1.04708E+04 -4.20254E+03  1.50652E+04  1.77221E+03  1.39209E+04  9.86701E+03  9.31292E+03  1.88691E+04
 -4.61028E+03  2.20107E+04 -1.79173E+04  1.59788E+04 -2.35544E+04  3.17732E+03 -1.89526E+04 -8.04080E+03
 -9.54001E+03 -1.55838E+04 -1.48723E+02 -1.33638E+04  4.85140E+03 -7.58016E+03  5.06847E+03 -4.84038E+03
  3.34456E+03 -2.98973E+03  3.57416E+03 -3.86995E+03  5.37680E+03 -3.35414E+03  7.54735E+03 -1.31962E+03
  9.74470E+03  2.70749E+03  5.04849E+03  8.48415E+03 -2.29942E+03  1.02197E+04 -1.05167E+04  8.11367E+03
 -1.31039E+04 -1.19485E+03 -8.21578E+03 -9.22906E+03 -8.64899E+02 -1.38862E+04  7.71214E+03 -1.41144E+04
  1.50625E+04 -7.78066E+03  1.75821E+04  2.22864E+03  1.22437E+04  1.23458E+04  2.26065E+03  1.62611E+04
 -6.89312E+03  1.35546E+04 -9.36667E+03  4.67281E+03 -6.54173E+03 -1.62042E+03 -2.74802E+03 -2.19474E+03
 -1.22929E+03 -1.35671E+02 -1.70601E+03  2.84177E+03 -5.32037E+03  2.31697E+03 -9.03631E+03 -1.11394E+03
 -6.41360E+03 -9.16049E+03  4.50891E+02 -1.31909E+04  8.09441E+03 -1.17211E+04  1.35076E+04 -3.77459E+03
  1.26583E+04  6.44165E+03  6.00436E+03  1.18355E+04 -2.44633E+03  1.31882E+04 -9.27769E+03  8.24845E+03
 -1.26549E+04  4.85486E+02 -9.57286E+03 -8.01528E+03 -7.53654E+02 -1.10032E+04  5.71377E+03 -8.43748E+03
  8.32727E+03 -3.11446E+03  6.21880E+03  2.13706E+03  2.06615E+03  4.16233E+03  1.15403E+03  2.02986E+03
  2.41647E+03  1.17080E+03  3.06587E+03  1.44384E+03  3.81662E+03  5.00968E+03  3.57395E+03  6.85534E+03
 -2.66469E+03  1.02354E+04 -9.49383E+03  1.06478E+04 -1.34309E+04  2.93913E+03 -1.40186E+04 -5.79290E+03
 -6.79037E+03 -1.35506E+04  1.88947E+03 -1.47256E+04  8.04285E+03 -9.13593E+03  1.03166E+04 -2.40648E+03
  8.56673E+03  5.07723E+03  1.96040E+03  7.60378E+03 -3.75294E+03  5.04678E+03 -5.27121E+03 -6.08930E+02
 -2.53895E+03 -5.79310E+03  3.06072E+03 -5.68949E+03  5.33771E+03 -2.83670E+03  5.68157E+03  1.19270E+03
  2.93183E+03  2.94025E+03  1.59545E+03  2.33814E+03 -5.89741E+02  1.99477E+03  1.87149E+03 -1.02847E+03
  1.93815E+03 -8.23818E+02  5.91592E+03  2.18607E+03  3.35346E+03  7.07818E+03 -1.07128E+03  9.44661E+03
 -6.29200E+03  6.35920E+03 -8.63349E+03  1.38685E+03 -7.08920E+03 -2.70359E+03 -2.86281E+03 -4.80911E+03
  1.00407E+03 -5.53674E+03  3.08479E+03 -2.21063E+03  2.79222E+03  2.57668E+03 -1.06121E+03  4.23889E+03
 -5.57491E+03  2.81679E+03 -5.85517E+03 -3.23603E+03 -3.71055E+03 -7.21300E+03  1.06273E+03 -7.70243E+03
  4.62107E+03 -4.23436E+03  5.48299E+03 -9.21016E+02  4.51177E+03  2.22420E+03  9.53541E+02  4.06176E+03
 -2.65589E+03  1.29150E+03 -3.11832E+03 -2.04828E+03  1.22513E+03 -5.00113E+03  6.55084E+03 -4.52605E+03
  8.30339E+03  5.45666E+02  8.22598E+03  5.44629E+03  2.33171E+03  8.55178E+03 -3.06073E+03  8.15383E+03
 -6.93839E+03  3.39435E+03 -7.11366E+03 -1.34991E+03 -3.66415E+03 -5.81620E+03  1.66252E+03 -4.91972E+03
  5.11117E+03 -2.64169E+03  4.54371E+03  2.62600E+03  1.25506E+03  5.29402E+03 -8.79528E+02  4.47017E+03
 -1.87972E+03  2.86478E+03 -2.29664E+03  5.48136E+02 -9.13580E+02  4.77928E+02 -1.37255E+03  1.95563E+03
 -2.35670E+03  3.12010E+03 -5.64023E+03  3.22802E+03 -8.16695E+03 -2.39916E+02 -9.46179E+03 -5.21179E+03
 -5.24466E+03 -1.14004E+04  2.30892E+03 -1.27755E+04  7.72577E+03 -1.05797E+04  1.24205E+04 -3.83314E+03
  1.14531E+04  2.60915E+03  7.20334E+03  7.90586E+03  8.38429E+02  8.99501E+03 -3.46498E+03  6.42470E+03
 -5.06036E+03  2.54767E+03 -3.51420E+03 -9.62343E+02 -8.69283E+02 -9.96773E+02 -5.56421E+02 -2.82437E+02
 -1.82115E+03  3.09307E+02 -2.26154E+03 -2.21439E+02 -6.94782E+02 -2.19925E+03 -5.00500E+01 -3.27089E+03
  3.77546E+03 -2.85597E+03  5.13695E+03  1.07572E+01  6.12931E+03  4.99842E+03  1.77649E+03  9.03413E+03
 -4.40093E+03  1.02717E+04 -9.35863E+03  5.78882E+03 -1.06150E+04 -1.35570E+03 -7.75845E+03 -6.50263E+03
 -3.26640E+03 -8.81047E+03  2.19933E+03 -8.42120E+03  5.48158E+03 -4.64734E+03  5.94566E+03  3.48268E+02
  3.26418E+03  2.82137E+03  1.36358E+02  2.39193E+03 -1.75871E+03 -4.18979E+02  2.40482E+02 -2.02288E+03
  2.41684E+03 -1.30127E+03  3.69583E+03  1.28537E+03  2.27298E+03  3.47305E+03  4.45227E+01  4.56690E+03
 -3.96092E+03  4.04980E+03 -6.05703E+03  3.50518E+02 -5.64969E+03 -4.52757E+03 -1.03175E+03 -7.08986E+03
  4.17226E+03 -5.90177E+03  6.18392E+03 -1.67653E+03  6.77067E+03  1.15021E+03  3.72297E+03  5.69889E+03
  9.64581E+02  5.41807E+03 -2.18503E+03  4.86685E+03 -3.54818E+03  2.68245E+03 -3.20314E+03  2.16021E+02
 -1.32802E+03 -2.89543E+02 -1.77514E+03  7.53544E+02 -2.59519E+03  9.78552E+02 -4.76189E+03 -1.12390E+03
 -4.32822E+03 -2.68695E+03 -1.21367E+03 -6.05376E+03  2.70759E+03 -6.47102E+03  5.43598E+03 -2.92433E+03
  5.57531E+03  6.49096E+02  2.85653E+03  3.90512E+03 -7.02968E+02  5.58377E+03 -4.28795E+03  3.81688E+03
