 $NMID ID='MM_0lb_SNR800_12hz_g55_76.RAW', FMTDAT='(8E13.5)'
 TRAMP=1., VOLUME=1. $END
  3.09899E+05  3.39416E+02  3.38069E+05  2.50600E+05  8.48446E+04  3.38611E+05 -1.32458E+05  2.51549E+05
 -1.90686E+05  8.35538E+04 -1.12060E+05 -3.26558E+04  5.24619E+02 -5.07556E+04  5.35606E+04 -4.89364E+02
  3.55495E+04  5.30114E+04 -1.67230E+04  7.55861E+04 -6.10050E+04  6.42293E+04 -8.47351E+04  3.23864E+04
 -8.18070E+04 -1.13344E+04 -5.80462E+04 -5.19946E+04 -1.52400E+04 -7.04096E+04  2.78535E+04 -4.63474E+04
  4.08157E+04  3.76446E+03  1.63441E+04  4.80421E+04 -3.48589E+04  4.77168E+04 -6.74720E+04  4.24650E+01
 -5.39453E+04 -5.73188E+04 -7.16194E+03 -7.82619E+04  3.42723E+04 -5.59730E+04  4.90951E+04 -1.78038E+04
  4.43618E+04  1.14525E+04  3.25443E+04  2.61810E+04  1.60736E+04  3.01637E+04 -5.43487E+03  2.75444E+04
 -2.21919E+04  1.20956E+04 -1.83521E+04 -5.30230E+03  6.71991E+03 -7.49902E+03  2.26864E+04  1.31786E+04
  7.48299E+03  3.64355E+04 -3.26735E+04  3.60487E+04 -6.48801E+04  2.29029E+03 -5.81505E+04 -4.40862E+04
 -1.22786E+04 -6.45857E+04  4.11046E+04 -4.66130E+04  5.99477E+04 -2.56002E+03  3.58151E+04  3.36676E+04
 -5.92555E+03  3.79292E+04 -3.11340E+04  1.75741E+04 -3.17307E+04 -4.07362E+03 -1.81258E+04 -1.14874E+04
 -9.03616E+03 -1.43309E+04 -3.71717E+02 -1.89049E+04  8.20624E+03 -2.34134E+04  1.62307E+04 -1.28206E+04
  1.06835E+04  5.70962E+03 -9.58495E+03  1.27701E+04 -2.28477E+04 -5.63670E+03 -8.66041E+03 -3.57060E+04
  2.41717E+04 -4.54933E+04  5.01110E+04 -2.01566E+04  4.70045E+04  2.01360E+04  1.61865E+04  4.56334E+04
 -1.62376E+04  3.47809E+04 -2.66289E+04  2.32732E+03 -1.10075E+04 -2.89741E+04  2.13042E+04 -3.54010E+04
  4.28050E+04 -1.03153E+04  3.83491E+04  2.44903E+04  1.98530E+04  4.89578E+04 -8.35291E+03  5.36248E+04
 -3.39710E+04  3.64046E+04 -4.49252E+04  1.05043E+04 -4.54149E+04 -1.78363E+04 -2.49838E+04 -4.00294E+04
  7.56197E+03 -3.99692E+04  3.31195E+04 -1.61228E+04  3.05540E+04  1.08732E+04  4.78555E+03  1.99064E+04
 -1.36534E+04  8.80604E+03 -1.07708E+04 -7.41884E+03  5.77485E+03 -1.10442E+04  1.84013E+04  5.99280E+03
  1.40783E+04  2.20743E+04 -6.10642E+03  2.61668E+04 -2.33901E+04  1.32704E+04 -2.98549E+04 -3.85634E+03
 -2.32123E+04 -1.78069E+04 -1.00915E+04 -2.28107E+04  4.11937E+03 -2.27367E+04  1.76557E+04 -2.06286E+04
  2.90582E+04 -1.37918E+04  3.52619E+04  3.83509E+03  2.54937E+04  2.24579E+04  3.84129E+03  3.90063E+04
 -1.87075E+04  3.20465E+04 -2.92701E+04  1.13471E+04 -2.16226E+04 -1.00938E+04 -4.71469E+03 -1.34746E+04
  1.14108E+03 -1.69864E+03 -6.25595E+03  7.72410E+03 -1.84104E+04  5.03688E+03 -1.84464E+04 -8.44362E+03
 -1.14520E+04 -2.11162E+04  5.61402E+03 -2.51307E+04  1.70775E+04 -1.81946E+04  2.04822E+04 -1.94940E+03
  1.34260E+04  1.43911E+04 -1.19146E+03  2.12450E+04 -1.48225E+04  1.22654E+04 -2.15546E+04 -4.40923E+03
 -1.56089E+04 -1.92817E+04 -1.98558E+03 -2.54100E+04  1.16380E+04 -2.11342E+04  2.07000E+04 -1.04933E+04
  1.98259E+04 -9.13532E+01  1.45426E+04  4.57603E+03  7.76495E+03  1.30383E+03  1.10425E+04 -2.09515E+03
  2.00919E+04  2.79808E+03  2.22879E+04  1.68738E+04  1.51653E+04  3.39456E+04 -3.09700E+03  3.86917E+04
 -2.28736E+04  3.22031E+04 -3.67369E+04  1.64412E+04 -3.90699E+04 -2.89606E+03 -3.22578E+04 -2.25394E+04
 -1.34517E+04 -3.23978E+04  1.14378E+04 -2.84884E+04  2.45625E+04 -1.37838E+04  2.17477E+04  6.54856E+03
  7.43873E+03  1.65559E+04 -1.05595E+04  1.44507E+04 -1.82113E+04  2.28649E+03 -1.39739E+04 -1.14984E+04
  1.04350E+02 -1.69984E+04  9.03336E+03 -1.31723E+04  1.16839E+04 -1.31488E+03  2.78658E+03  7.77905E+03
 -7.60862E+03  2.71658E+03 -7.60843E+03 -6.10042E+03 -1.34201E+03 -1.57503E+04  1.08140E+04 -1.67072E+04
  1.98580E+04 -8.92899E+03  2.17318E+04  3.23991E+03  1.88498E+04  1.54892E+04  8.76218E+03  2.46797E+04
 -4.18620E+03  2.65353E+04 -1.68518E+04  1.62216E+04 -1.90080E+04  3.28130E+03 -1.26579E+04 -4.30113E+03
 -5.76599E+03 -5.94180E+03 -4.23923E+02  8.25378E+02 -2.91349E+03  3.41616E+03 -5.99421E+03  4.82992E+03
 -1.24084E+04 -5.92434E+02 -1.32381E+04 -1.03499E+04 -5.45045E+03 -1.69955E+04  5.54729E+03 -1.33841E+04
  1.09805E+04 -5.39767E+03  8.04437E+03  3.75511E+03  3.04154E+02  5.11262E+03 -6.58622E+03 -4.35623E+02
 -6.11469E+03 -8.47983E+03 -8.42850E+02 -1.31806E+04  7.24653E+03 -1.36364E+04  1.68232E+04 -7.16541E+03
  1.97369E+04  1.98356E+03  1.42651E+04  1.16303E+04  2.79109E+03  1.55037E+04 -8.33219E+03  1.30638E+04
 -1.08492E+04  4.07217E+03 -5.36687E+03 -3.13549E+03  1.59306E+03 -3.82507E+03  6.88125E+03 -1.11551E+03
  6.03277E+03  5.48084E+03  7.29916E+02  1.04220E+04 -7.10498E+03  1.03805E+04 -1.30991E+04  2.35013E+03
 -9.02357E+03 -6.78644E+03  3.47734E+02 -1.10456E+04  7.23031E+03 -5.56740E+03  7.13493E+03  2.52877E+03
  1.51194E+03  8.19680E+03 -6.89324E+03  9.12679E+03 -1.07102E+04  4.12726E+03 -1.09659E+04 -3.68417E+03
 -6.19053E+03 -1.22780E+04  3.03909E+03 -1.45186E+04  1.21654E+04 -8.63340E+03  1.35559E+04  2.57499E+03
  8.26340E+03  1.08240E+04 -1.22398E+03  1.29677E+04 -9.36754E+03  7.39390E+03 -1.03206E+04 -1.23975E+03
 -8.94900E+03 -8.61502E+03 -1.59815E+03 -9.51177E+03  5.38879E+03 -7.97363E+03  6.21850E+03 -3.28184E+03
  4.15580E+03  1.48428E+03 -7.83558E+02  1.39230E+03 -1.22771E+02 -2.18759E+03  1.77651E+03 -5.41892E+03
  8.88675E+03 -3.27357E+03  1.23728E+04  1.62564E+03  1.26228E+04  8.23831E+03  8.57638E+03  1.62153E+04
 -3.25341E+03  1.82854E+04 -1.55861E+04  1.35406E+04 -2.02955E+04  2.60967E+03 -1.61754E+04 -6.83287E+03
 -8.11816E+03 -1.33689E+04 -3.20132E+02 -1.09914E+04  3.94079E+03 -6.05953E+03  3.76501E+03 -3.77146E+03
  2.96741E+03 -2.71965E+03  3.91829E+03 -3.06792E+03  5.22274E+03 -2.96741E+03  6.24726E+03 -3.89167E+02
  8.22506E+03  1.79722E+03  4.01779E+03  7.28038E+03 -1.74877E+03  8.28362E+03 -9.12522E+03  6.41711E+03
 -1.11637E+04 -1.34922E+03 -6.57435E+03 -7.75382E+03 -3.56301E+02 -1.17977E+04  6.69797E+03 -1.18610E+04
  1.25673E+04 -6.87420E+03  1.46177E+04  1.83413E+03  1.05495E+04  1.04356E+04  1.65667E+03  1.31438E+04
 -5.68240E+03  1.09232E+04 -7.64904E+03  3.59477E+03 -5.11701E+03 -1.51682E+03 -2.05250E+03 -1.62085E+03
 -1.00700E+03  2.63900E+02 -1.80347E+03  2.65452E+03 -4.38875E+03  1.84760E+03 -7.79760E+03 -1.02767E+03
 -5.31322E+03 -8.05157E+03  3.10917E+02 -1.07442E+04  6.86363E+03 -1.02440E+04  1.05533E+04 -2.80216E+03
  1.06715E+04  5.54305E+03  5.06615E+03  9.50613E+03 -2.51466E+03  1.08236E+04 -7.59061E+03  6.63824E+03
 -9.85265E+03  3.82047E+02 -8.05497E+03 -6.39039E+03 -5.10256E+02 -8.80421E+03  4.60097E+03 -6.44508E+03
  6.62320E+03 -2.27586E+03  4.48193E+03  1.80734E+03  1.21212E+03  3.48614E+03  1.47780E+03  1.75445E+03
  2.23440E+03  5.84043E+02  2.76951E+03  1.79787E+03  3.29631E+03  3.83538E+03  2.88718E+03  5.86668E+03
 -2.32091E+03  8.55570E+03 -7.14573E+03  8.75520E+03 -1.04970E+04  2.30695E+03 -1.10936E+04 -4.39297E+03
 -5.11374E+03 -1.06789E+04  1.85363E+03 -1.15058E+04  6.05988E+03 -7.43135E+03  8.51392E+03 -2.04852E+03
  6.74804E+03  3.95895E+03  1.32352E+03  6.03997E+03 -3.03609E+03  3.80525E+03 -4.14162E+03 -4.60253E+02
 -1.81861E+03 -4.45932E+03  2.39930E+03 -4.41723E+03  4.19802E+03 -2.60769E+03  4.09213E+03  1.01198E+03
  2.47871E+03  2.10117E+03  1.16981E+03  1.76757E+03 -4.74663E+02  1.28604E+03  1.70929E+03 -3.49460E+02
  1.36671E+03 -6.54565E+02  4.25367E+03  1.60462E+03  2.28866E+03  5.57439E+03 -1.09902E+03  7.31573E+03
 -5.05730E+03  4.66377E+03 -6.34400E+03  1.10063E+03 -6.27353E+03 -2.35799E+03 -1.99783E+03 -3.84993E+03
  1.08589E+03 -4.18508E+03  2.85950E+03 -2.18790E+03  2.07667E+03  2.27607E+03 -1.04170E+03  3.53962E+03
 -4.25406E+03  2.40571E+03 -4.24653E+03 -2.68957E+03 -2.63647E+03 -5.56324E+03  1.00721E+03 -5.46210E+03
  3.04253E+03 -3.32138E+03  3.99410E+03 -2.52305E+02  3.48107E+03  1.22567E+03  8.03631E+02  2.94915E+03
 -2.05017E+03  9.99813E+02 -2.47279E+03 -1.81092E+03  9.48910E+02 -3.70692E+03  4.70694E+03 -3.51999E+03
  5.75018E+03  5.66335E+02  6.41012E+03  3.85438E+03  2.35823E+03  5.93867E+03 -2.15528E+03  5.92110E+03
 -5.04912E+03  2.32848E+03 -5.55849E+03 -6.10477E+02 -2.92664E+03 -4.45364E+03  1.18667E+03 -3.53075E+03
  4.34620E+03 -1.86404E+03  3.16248E+03  1.29212E+03  1.16862E+03  3.52347E+03 -5.09044E+02  3.18006E+03
 -1.59559E+03  2.24423E+03 -1.68818E+03  5.69161E+02 -4.40531E+02  7.37225E+02 -1.41012E+03  1.54394E+03
 -2.17092E+03  2.28267E+03 -4.30322E+03  2.06259E+03 -6.18723E+03  2.45739E+02 -7.18244E+03 -4.20610E+03
 -3.86650E+03 -8.17782E+03  1.64614E+03 -9.50820E+03  5.60619E+03 -7.56113E+03  8.85028E+03 -2.59899E+03
  8.58889E+03  1.35594E+03  5.26928E+03  5.70983E+03  4.10578E+01  6.17539E+03 -2.56851E+03  4.78881E+03
 -3.61708E+03  2.21239E+03 -2.38835E+03 -8.44105E+02 -1.01170E+03 -3.43542E+02 -3.82898E+02  1.77980E+02
 -1.30189E+03  2.18094E+02 -1.40795E+03 -1.81529E+02 -2.85977E+02 -1.94212E+03 -8.60052E+01 -2.06874E+03
  2.85867E+03 -2.20390E+03  3.37478E+03  3.02006E+02  4.13004E+03  2.96256E+03  6.04402E+02  6.17387E+03
 -3.14192E+03  7.16332E+03 -6.59146E+03  4.34537E+03 -7.58077E+03 -5.59164E+02 -5.71418E+03 -4.52025E+03
 -2.28467E+03 -6.03478E+03  1.74275E+03 -5.77131E+03  3.96600E+03 -2.86094E+03  3.76988E+03  1.17862E+02
  2.02859E+03  2.20814E+03 -7.56768E+01  2.22432E+03 -1.29528E+03  5.45074E+01  2.51502E+02 -1.32193E+03
  1.83064E+03 -5.03511E+02  2.43608E+03  7.05352E+02  1.43299E+03  2.36415E+03  5.80034E+02  3.09781E+03
 -2.73933E+03  2.82636E+03 -3.55869E+03  3.64896E+02 -3.55088E+03 -2.61958E+03 -6.35103E+02 -4.75093E+03
  2.77210E+03 -4.12345E+03  4.18926E+03 -1.00460E+03  4.27565E+03  5.56736E+02  2.27601E+03  3.29990E+03
  7.13979E+02  3.79952E+03 -1.49944E+03  3.15212E+03 -2.32913E+03  1.74428E+03 -1.61916E+03  1.85623E+02
 -1.32441E+03 -2.93207E+01 -1.32959E+03  3.44997E+02 -2.37163E+03  4.53297E+02 -3.20062E+03 -4.58380E+02
 -2.95333E+03 -1.78115E+03 -9.91692E+02 -3.92924E+03  1.88837E+03 -4.27021E+03  3.38923E+03 -1.68975E+03
  3.03096E+03  3.73888E+02  1.65913E+03  2.19862E+03 -2.67727E+02  3.63037E+03 -2.44237E+03  2.84085E+03
