 $NMID ID='MM_0lb_SNR800_14hz_g55_95.RAW', FMTDAT='(8E13.5)'
 TRAMP=1., VOLUME=1. $END
  3.09861E+05  3.25626E+02  3.37882E+05  2.50706E+05  8.47869E+04  3.37902E+05 -1.32504E+05  2.51177E+05
 -1.90207E+05  8.32817E+04 -1.11928E+05 -3.27783E+04  5.54283E+02 -5.10029E+04  5.37166E+04  4.34173E+01
  3.52749E+04  5.28438E+04 -1.67271E+04  7.55847E+04 -6.08810E+04  6.37494E+04 -8.43937E+04  3.21379E+04
 -8.15508E+04 -1.13047E+04 -5.77633E+04 -5.19293E+04 -1.50520E+04 -6.97355E+04  2.73866E+04 -4.58668E+04
  4.04361E+04  3.52658E+03  1.61593E+04  4.81447E+04 -3.42335E+04  4.74360E+04 -6.70160E+04 -3.28871E+02
 -5.36458E+04 -5.66602E+04 -7.08338E+03 -7.73253E+04  3.39444E+04 -5.55421E+04  4.86133E+04 -1.74282E+04
  4.35330E+04  1.11943E+04  3.18405E+04  2.54095E+04  1.58662E+04  2.97555E+04 -5.60369E+03  2.74924E+04
 -2.22916E+04  1.24016E+04 -1.81689E+04 -4.84740E+03  6.26718E+03 -7.29463E+03  2.25930E+04  1.25957E+04
  7.18676E+03  3.58699E+04 -3.25414E+04  3.57863E+04 -6.35894E+04  2.04367E+03 -5.71971E+04 -4.33950E+04
 -1.22928E+04 -6.39486E+04  4.00716E+04 -4.55112E+04  5.86215E+04 -2.08009E+03  3.46643E+04  3.25700E+04
 -5.85408E+03  3.65207E+04 -3.02906E+04  1.63576E+04 -3.09756E+04 -4.59070E+03 -1.70502E+04 -1.13328E+04
 -8.59246E+03 -1.34591E+04 -7.29081E+02 -1.84673E+04  7.67446E+03 -2.32578E+04  1.56530E+04 -1.30951E+04
  1.10181E+04  5.36283E+03 -8.53960E+03  1.27615E+04 -2.17532E+04 -4.95061E+03 -8.28387E+03 -3.43737E+04
  2.31941E+04 -4.43253E+04  4.90316E+04 -1.98256E+04  4.55667E+04  1.97256E+04  1.59212E+04  4.44998E+04
 -1.61913E+04  3.40882E+04 -2.57167E+04  2.04863E+03 -1.01933E+04 -2.81806E+04  2.09355E+04 -3.43465E+04
  4.15891E+04 -9.21138E+03  3.64066E+04  2.43097E+04  1.89063E+04  4.69745E+04 -8.01566E+03  5.13761E+04
 -3.22893E+04  3.47429E+04 -4.30075E+04  9.89222E+03 -4.35976E+04 -1.70979E+04 -2.42830E+04 -3.87752E+04
  7.13182E+03 -3.87495E+04  3.22373E+04 -1.52422E+04  2.98834E+04  1.04663E+04  4.51309E+03  1.93325E+04
 -1.34554E+04  8.74395E+03 -1.03787E+04 -7.33838E+03  5.88876E+03 -1.06700E+04  1.81504E+04  5.95138E+03
  1.37578E+04  2.19376E+04 -5.56572E+03  2.53718E+04 -2.27771E+04  1.18880E+04 -2.86208E+04 -4.66442E+03
 -2.14533E+04 -1.76962E+04 -9.09801E+03 -2.12028E+04  3.72306E+03 -2.06823E+04  1.63012E+04 -1.91734E+04
  2.71243E+04 -1.32910E+04  3.36009E+04  3.33904E+03  2.42486E+04  2.07226E+04  4.47849E+03  3.69834E+04
 -1.81173E+04  3.09184E+04 -2.80295E+04  1.07401E+04 -2.11176E+04 -1.02023E+04 -4.49402E+03 -1.32210E+04
  1.41553E+03 -2.36911E+03 -5.54471E+03  6.75564E+03 -1.67387E+04  4.97308E+03 -1.69839E+04 -7.32870E+03
 -1.07373E+04 -1.94212E+04  5.05834E+03 -2.37028E+04  1.58950E+04 -1.69401E+04  1.91067E+04 -1.75799E+03
  1.17201E+04  1.35050E+04 -1.16061E+03  1.93359E+04 -1.38725E+04  1.11184E+04 -1.95052E+04 -4.28108E+03
 -1.45342E+04 -1.76229E+04 -1.58777E+03 -2.36668E+04  1.06127E+04 -1.93132E+04  1.98165E+04 -9.83207E+03
  1.81905E+04  2.11125E+02  1.32420E+04  4.69199E+03  7.36859E+03  9.31073E+02  9.95577E+03 -1.67264E+03
  1.80492E+04  2.89081E+03  2.01162E+04  1.53788E+04  1.33966E+04  3.12715E+04 -2.81825E+03  3.54135E+04
 -2.02758E+04  2.89053E+04 -3.31480E+04  1.45796E+04 -3.46958E+04 -2.51053E+03 -2.89341E+04 -2.01966E+04
 -1.22143E+04 -2.84928E+04  1.02087E+04 -2.58982E+04  2.22037E+04 -1.31275E+04  1.98928E+04  5.78552E+03
  7.20507E+03  1.48178E+04 -9.47645E+03  1.32529E+04 -1.67142E+04  2.58327E+03 -1.26413E+04 -1.04083E+04
 -1.33254E+02 -1.55813E+04  8.18494E+03 -1.17492E+04  1.03886E+04 -1.54808E+03  2.65295E+03  6.91965E+03
 -7.30912E+03  2.69126E+03 -6.14588E+03 -5.70672E+03 -7.19526E+02 -1.41512E+04  1.04056E+04 -1.48885E+04
  1.75325E+04 -7.76622E+03  1.89230E+04  3.14155E+03  1.67544E+04  1.37570E+04  7.87971E+03  2.12732E+04
 -3.51103E+03  2.32181E+04 -1.47512E+04  1.40150E+04 -1.66588E+04  3.47233E+03 -1.16888E+04 -4.11002E+03
 -5.49207E+03 -5.25144E+03 -7.15037E+02  9.56469E+02 -2.25563E+03  2.90029E+03 -5.51310E+03  4.10000E+03
 -1.10228E+04 -8.28954E+02 -1.16103E+04 -9.45182E+03 -4.63929E+03 -1.55489E+04  4.96612E+03 -1.18624E+04
  1.02769E+04 -5.19572E+03  7.00516E+03  2.92855E+03 -5.79758E+01  4.68045E+03 -5.51002E+03 -7.49535E+01
 -5.40238E+03 -7.66771E+03 -1.05946E+03 -1.12155E+04  6.33351E+03 -1.19097E+04  1.47329E+04 -6.20885E+03
  1.71338E+04  1.37571E+03  1.25274E+04  1.01600E+04  2.52312E+03  1.32846E+04 -7.55409E+03  1.17470E+04
 -9.58132E+03  3.46607E+03 -4.89917E+03 -2.37359E+03  1.75760E+03 -3.32105E+03  6.32868E+03 -1.23758E+03
  5.71603E+03  4.89321E+03  1.12092E+03  9.03552E+03 -6.71928E+03  8.75368E+03 -1.11080E+04  2.32682E+03
 -7.43129E+03 -5.69557E+03  5.02123E+02 -9.80488E+03  6.23247E+03 -4.89749E+03  6.46841E+03  1.68191E+03
  1.09172E+03  6.11850E+03 -6.05033E+03  7.69798E+03 -8.54293E+03  3.61125E+03 -8.74914E+03 -3.03815E+03
 -5.06464E+03 -1.01099E+04  2.58984E+03 -1.19925E+04  1.02387E+04 -7.39523E+03  1.12822E+04  1.92140E+03
  7.11830E+03  8.71829E+03 -4.85456E+02  1.09333E+04 -7.89886E+03  6.17525E+03 -8.71192E+03 -7.23842E+02
 -7.91785E+03 -7.30878E+03 -1.71030E+03 -8.21556E+03  4.20589E+03 -6.70024E+03  5.19720E+03 -3.30704E+03
  3.88095E+03  8.71022E+02 -1.49160E+02  1.63174E+03 -9.05099E+00 -1.69582E+03  1.22259E+03 -3.74204E+03
  6.98577E+03 -2.58544E+03  9.73883E+03  1.03392E+03  9.71699E+03  6.25798E+03  7.72361E+03  1.32681E+04
 -2.51369E+03  1.49452E+04 -1.26008E+04  1.12391E+04 -1.64406E+04  2.06853E+03 -1.28005E+04 -5.13168E+03
 -6.76007E+03 -1.09065E+04 -4.87654E+02 -9.13751E+03  3.33213E+03 -4.66849E+03  2.94190E+03 -3.51903E+03
  2.16365E+03 -2.05618E+03  2.69820E+03 -3.03070E+03  4.24025E+03 -2.12759E+03  5.47434E+03 -2.28066E+02
  7.37608E+03  1.73954E+03  3.15200E+03  5.89269E+03 -1.80634E+03  6.17145E+03 -7.00554E+03  5.13860E+03
 -8.78022E+03 -1.20464E+03 -4.66364E+03 -5.96622E+03 -3.27960E+02 -9.49175E+03  5.17937E+03 -9.40456E+03
  9.71224E+03 -5.66810E+03  1.15315E+04  1.22546E+03  8.51717E+03  8.15286E+03  1.70312E+03  1.04641E+04
 -4.17514E+03  9.22819E+03 -5.67500E+03  2.94384E+03 -4.10247E+03 -1.02405E+03 -1.62259E+03 -1.16655E+03
 -6.03754E+02  3.65566E+02 -1.24462E+03  2.58100E+03 -4.24177E+03  1.34456E+03 -6.38827E+03 -8.65472E+02
 -3.79173E+03 -6.46203E+03  4.05829E+02 -8.38848E+03  5.18586E+03 -8.06983E+03  7.76375E+03 -2.32193E+03
  7.93412E+03  4.45377E+03  3.72762E+03  7.20787E+03 -1.61534E+03  8.26984E+03 -6.01204E+03  4.90612E+03
 -7.51296E+03  3.83308E+02 -6.18704E+03 -4.75813E+03 -6.19601E+02 -7.06007E+03  3.17759E+03 -4.79079E+03
  5.40236E+03 -1.89757E+03  3.70870E+03  1.38204E+03  1.14278E+03  2.80505E+03  9.34862E+02  1.05431E+03
  1.79421E+03  7.48055E+02  2.18135E+03  1.54131E+03  2.30690E+03  3.51317E+03  2.34113E+03  4.01409E+03
 -1.96269E+03  5.94535E+03 -5.34630E+03  6.88623E+03 -7.32023E+03  1.95612E+03 -8.76642E+03 -2.58128E+03
 -3.65237E+03 -7.84272E+03  1.22360E+03 -8.88326E+03  4.65752E+03 -5.42794E+03  6.69917E+03 -1.55273E+03
  4.91821E+03  3.39869E+03  9.16685E+02  4.81745E+03 -1.76708E+03  2.98507E+03 -2.99892E+03 -1.51384E+02
 -1.28690E+03 -3.28332E+03  2.43400E+03 -3.37258E+03  2.63484E+03 -1.72281E+03  3.04396E+03  6.67195E+02
  1.87969E+03  1.49475E+03  8.28168E+02  9.48984E+02 -5.27565E+02  1.18950E+03  1.61136E+03 -4.10018E+02
  8.70799E+02 -4.50652E+02  2.97970E+03  1.56001E+03  1.15324E+03  4.54285E+03 -7.58022E+02  5.55110E+03
 -3.36553E+03  2.99281E+03 -4.66576E+03  7.83680E+02 -4.21690E+03 -1.35076E+03 -1.32349E+03 -2.62536E+03
  4.77519E+02 -2.79546E+03  1.94371E+03 -1.29297E+03  1.32986E+03  1.92560E+03 -9.94767E+02  2.47596E+03
 -3.35518E+03  1.44239E+03 -3.11714E+03 -2.09217E+03 -1.87194E+03 -4.11393E+03  5.65150E+02 -3.94957E+03
  1.77968E+03 -1.94162E+03  2.78321E+03 -7.53134E+01  2.48974E+03  8.51641E+02  3.78166E+02  2.23674E+03
 -1.13582E+03  3.29664E+02 -2.00842E+03 -8.56659E+02  1.10377E+03 -2.63913E+03  3.59446E+03 -2.35085E+03
  4.00316E+03  2.99919E+02  4.98031E+03  2.49950E+03  1.61037E+03  4.37699E+03 -1.55505E+03  4.21538E+03
 -3.56063E+03  1.92127E+03 -3.99558E+03 -7.28325E+02 -2.00830E+03 -2.96187E+03  6.65288E+02 -2.40805E+03
  2.47588E+03 -1.50919E+03  1.93829E+03  1.27266E+03  1.07218E+03  2.70013E+03 -2.06640E+02  2.32748E+03
 -1.41606E+03  1.55434E+03 -9.58310E+02  2.36461E+02 -2.67883E+02  5.72494E+02 -8.67452E+02  9.68484E+02
 -1.22655E+03  1.75503E+03 -3.27754E+03  1.56380E+03 -4.00819E+03  2.61493E+02 -5.34160E+03 -2.88822E+03
 -2.66426E+03 -5.41493E+03  1.02605E+03 -6.56172E+03  3.58962E+03 -5.42016E+03  5.87885E+03 -1.75482E+03
  5.91149E+03  8.52246E+02  3.40392E+03  3.76540E+03 -1.65092E+02  4.28866E+03 -2.05833E+03  2.99260E+03
 -2.47607E+03  1.49472E+03 -1.52213E+03 -5.73660E+02 -5.42233E+02 -3.56958E+01 -5.68827E+02  1.51359E+02
 -1.40547E+03  2.13766E+02 -1.27880E+03 -1.14748E+02 -1.57264E+02 -1.21000E+03 -2.18266E+02 -1.69275E+03
  2.03008E+03 -1.14632E+03  2.30862E+03 -3.23509E+00  2.90696E+03  2.32318E+03  1.42821E+02  4.09297E+03
 -1.98556E+03  4.82720E+03 -4.43352E+03  2.74936E+03 -4.78149E+03 -5.63779E+02 -3.51181E+03 -3.17237E+03
 -1.83963E+03 -3.98311E+03  6.76021E+02 -3.85615E+03  2.21862E+03 -1.72360E+03  2.15159E+03  3.88292E+02
  1.81101E+03  1.25466E+03 -6.19739E+00  1.07691E+03 -4.21849E+02 -1.76532E+02 -1.30370E+02 -6.02761E+02
  1.01048E+03 -3.13148E+02  1.43287E+03  1.22500E+03  7.30722E+02  1.15363E+03  7.87721E+01  1.59264E+03
 -1.54510E+03  1.70278E+03 -2.50935E+03  5.13102E+02 -1.96180E+03 -1.78328E+03 -5.12570E+01 -3.37750E+03
  1.87621E+03 -2.51201E+03  2.32032E+03 -5.04082E+02  2.87164E+03  3.68329E+01  1.74531E+03  2.23036E+03
  5.59015E+02  1.89675E+03 -1.10214E+03  1.84989E+03 -1.54219E+03  1.44366E+03 -1.23849E+03  1.82003E+02
 -5.32547E+02 -4.45137E+02 -9.60390E+02  4.06032E+02 -1.34168E+03  2.83959E+02 -1.80128E+03 -5.04955E+02
 -1.99581E+03 -7.19224E+02 -4.52407E+02 -2.35016E+03  1.43868E+03 -3.03883E+03  2.12297E+03 -8.68200E+02
  2.53791E+03  2.46535E+02  4.65816E+02  1.61719E+03 -3.54382E+02  2.28808E+03 -1.28407E+03  1.54136E+03
