 $NMID ID='MM_0lb_SNR800_12hz_g60_12.RAW', FMTDAT='(8E13.5)'
 TRAMP=1., VOLUME=1. $END
  3.09736E+05  5.25484E+02  3.37693E+05  2.50472E+05  8.50594E+04  3.38478E+05 -1.32815E+05  2.51615E+05
 -1.90733E+05  8.37448E+04 -1.12262E+05 -3.24670E+04  5.90171E+02 -5.07212E+04  5.38086E+04 -5.02921E+02
  3.53131E+04  5.26181E+04 -1.65576E+04  7.57542E+04 -6.09635E+04  6.44482E+04 -8.49615E+04  3.22648E+04
 -8.20825E+04 -1.15910E+04 -5.78587E+04 -5.23206E+04 -1.50340E+04 -7.12364E+04  2.80319E+04 -4.66414E+04
  4.07615E+04  3.79057E+03  1.65097E+04  4.86206E+04 -3.48215E+04  4.75102E+04 -6.76918E+04  4.47732E+01
 -5.44840E+04 -5.77509E+04 -7.21243E+03 -7.85638E+04  3.43436E+04 -5.63417E+04  4.90688E+04 -1.84690E+04
  4.49677E+04  1.12980E+04  3.27710E+04  2.59761E+04  1.58550E+04  3.03095E+04 -5.58732E+03  2.78164E+04
 -2.22020E+04  1.22069E+04 -1.83658E+04 -5.70114E+03  6.49987E+03 -7.58631E+03  2.33622E+04  1.33931E+04
  7.10025E+03  3.68079E+04 -3.34383E+04  3.61638E+04 -6.52105E+04  2.06619E+03 -5.86592E+04 -4.41027E+04
 -1.26160E+04 -6.54446E+04  4.12090E+04 -4.70849E+04  6.05542E+04 -2.33856E+03  3.59406E+04  3.34878E+04
 -5.62407E+03  3.85294E+04 -3.12992E+04  1.78763E+04 -3.25863E+04 -3.96204E+03 -1.85471E+04 -1.14420E+04
 -9.29184E+03 -1.43681E+04 -3.18074E+02 -1.91764E+04  8.09157E+03 -2.32418E+04  1.56867E+04 -1.28813E+04
  1.08882E+04  5.55362E+03 -9.97090E+03  1.29085E+04 -2.25045E+04 -5.84382E+03 -8.30007E+03 -3.64307E+04
  2.43014E+04 -4.56460E+04  5.07463E+04 -2.07959E+04  4.76947E+04  2.01676E+04  1.69450E+04  4.63891E+04
 -1.63755E+04  3.50902E+04 -2.67899E+04  2.31039E+03 -1.08766E+04 -2.91736E+04  2.13087E+04 -3.62466E+04
  4.34257E+04 -1.01687E+04  3.88029E+04  2.44701E+04  2.02363E+04  4.96877E+04 -8.04992E+03  5.44904E+04
 -3.42618E+04  3.67071E+04 -4.57896E+04  1.06096E+04 -4.58703E+04 -1.79659E+04 -2.53920E+04 -4.06920E+04
  7.70558E+03 -4.04516E+04  3.32562E+04 -1.62583E+04  3.10361E+04  1.07474E+04  4.83478E+03  2.04927E+04
 -1.38273E+04  9.72473E+03 -1.09273E+04 -7.50721E+03  5.66076E+03 -1.11498E+04  1.83183E+04  5.69683E+03
  1.39971E+04  2.26756E+04 -5.33320E+03  2.66062E+04 -2.33045E+04  1.34618E+04 -3.03043E+04 -3.63980E+03
 -2.37111E+04 -1.82376E+04 -1.00188E+04 -2.32453E+04  4.19972E+03 -2.34651E+04  1.86403E+04 -2.16797E+04
  2.97992E+04 -1.36280E+04  3.65731E+04  3.99654E+03  2.55041E+04  2.30276E+04  4.47940E+03  3.95894E+04
 -1.93797E+04  3.25458E+04 -2.93846E+04  1.12441E+04 -2.17627E+04 -1.01935E+04 -4.72416E+03 -1.32380E+04
  8.78810E+02 -1.45475E+03 -6.54286E+03  7.98114E+03 -1.89365E+04  5.08453E+03 -1.89922E+04 -8.39170E+03
 -1.14293E+04 -2.20551E+04  5.84542E+03 -2.62339E+04  1.75055E+04 -1.86168E+04  2.08386E+04 -1.75718E+03
  1.33876E+04  1.49206E+04 -1.10260E+03  2.19698E+04 -1.54123E+04  1.24391E+04 -2.18660E+04 -4.69726E+03
 -1.57608E+04 -1.96771E+04 -1.91654E+03 -2.60900E+04  1.15505E+04 -2.17621E+04  2.18841E+04 -1.12353E+04
  2.03640E+04 -6.55433E+01  1.49308E+04  5.12755E+03  8.19619E+03  1.05244E+03  1.15390E+04 -1.70662E+03
  2.02212E+04  2.48925E+03  2.31248E+04  1.70712E+04  1.58742E+04  3.47937E+04 -2.99824E+03  4.04074E+04
 -2.34054E+04  3.32353E+04 -3.77784E+04  1.71153E+04 -4.03082E+04 -2.96880E+03 -3.27421E+04 -2.37391E+04
 -1.33357E+04 -3.34494E+04  1.17919E+04 -2.95180E+04  2.53675E+04 -1.42761E+04  2.20975E+04  6.72591E+03
  7.97701E+03  1.70505E+04 -1.06914E+04  1.46861E+04 -1.85546E+04  2.57196E+03 -1.45063E+04 -1.17402E+04
 -3.38465E+02 -1.79750E+04  9.66701E+03 -1.34142E+04  1.21921E+04 -1.41875E+03  2.88502E+03  7.95585E+03
 -8.29617E+03  3.63410E+03 -7.82982E+03 -6.59173E+03 -1.40261E+03 -1.59601E+04  1.08607E+04 -1.73035E+04
  2.02179E+04 -9.59954E+03  2.29431E+04  3.14067E+03  2.01052E+04  1.63030E+04  8.67747E+03  2.56950E+04
 -4.57432E+03  2.73689E+04 -1.76756E+04  1.73603E+04 -1.98975E+04  3.59251E+03 -1.36501E+04 -5.18488E+03
 -5.91424E+03 -6.05878E+03 -5.67809E+02  7.42565E+02 -2.65008E+03  2.85868E+03 -6.67428E+03  5.03919E+03
 -1.22238E+04 -6.60014E+02 -1.33428E+04 -1.06271E+04 -4.91362E+03 -1.73013E+04  5.70976E+03 -1.38644E+04
  1.18111E+04 -5.55523E+03  8.07933E+03  3.60624E+03  9.69306E+01  5.45357E+03 -6.84534E+03 -6.74911E+02
 -6.58387E+03 -9.01851E+03 -9.58395E+02 -1.35721E+04  7.79267E+03 -1.43920E+04  1.76911E+04 -7.39097E+03
  2.02911E+04  2.00064E+03  1.47896E+04  1.21744E+04  2.98694E+03  1.63917E+04 -8.16601E+03  1.34346E+04
 -1.14742E+04  3.86696E+03 -5.83575E+03 -3.01435E+03  1.95963E+03 -3.81559E+03  7.16703E+03 -1.08248E+03
  6.94765E+03  5.94275E+03  1.30344E+03  1.07980E+04 -7.83358E+03  1.00674E+04 -1.32191E+04  2.67674E+03
 -9.22140E+03 -7.10206E+03  6.06171E+01 -1.12750E+04  7.33714E+03 -5.74040E+03  7.97556E+03  2.88186E+03
  1.86527E+03  8.31887E+03 -7.05006E+03  9.71370E+03 -1.09362E+04  4.29788E+03 -1.14339E+04 -3.70462E+03
 -6.85483E+03 -1.31832E+04  2.59180E+03 -1.53392E+04  1.26700E+04 -9.03283E+03  1.38028E+04  2.18949E+03
  8.49758E+03  1.10818E+04 -1.02992E+03  1.31381E+04 -9.66003E+03  7.69842E+03 -1.05281E+04 -1.64950E+03
 -9.24652E+03 -9.02271E+03 -1.45744E+03 -1.00865E+04  5.14850E+03 -8.09555E+03  6.49067E+03 -3.55643E+03
  4.46913E+03  1.48879E+03 -4.01634E+02  2.02805E+03 -3.88358E+02 -2.57658E+03  1.67947E+03 -5.86765E+03
  9.11976E+03 -3.41694E+03  1.30037E+04  1.17446E+03  1.26024E+04  8.48299E+03  8.45084E+03  1.66607E+04
 -3.78374E+03  1.92437E+04 -1.63776E+04  1.39651E+04 -2.10699E+04  3.10732E+03 -1.68849E+04 -7.25717E+03
 -8.47640E+03 -1.35701E+04 -4.83571E+02 -1.15310E+04  4.30446E+03 -6.68855E+03  4.13136E+03 -3.81737E+03
  2.96413E+03 -2.69528E+03  3.23752E+03 -3.33491E+03  5.36118E+03 -3.04446E+03  6.94987E+03 -9.77718E+02
  8.76377E+03  1.77978E+03  4.29259E+03  7.70184E+03 -2.08093E+03  8.78175E+03 -9.10047E+03  6.96202E+03
 -1.15039E+04 -1.33912E+03 -6.83927E+03 -7.98740E+03 -5.01431E+02 -1.25834E+04  6.87614E+03 -1.24222E+04
  1.29112E+04 -6.84385E+03  1.52430E+04  2.15004E+03  1.08603E+04  1.04123E+04  1.80401E+03  1.38914E+04
 -5.47475E+03  1.13295E+04 -8.07009E+03  3.80172E+03 -5.31210E+03 -1.60058E+03 -2.26647E+03 -1.43757E+03
 -1.21526E+03 -1.64543E+02 -1.81699E+03  2.95279E+03 -4.64303E+03  1.99097E+03 -8.10698E+03 -1.15442E+03
 -5.03691E+03 -8.24737E+03  5.13662E+02 -1.12230E+04  7.00301E+03 -1.03905E+04  1.11276E+04 -3.13507E+03
  1.08707E+04  5.48548E+03  5.15243E+03  9.90144E+03 -2.41080E+03  1.09058E+04 -7.88537E+03  6.92779E+03
 -1.06247E+04  5.31958E+02 -8.44924E+03 -7.22291E+03 -5.27737E+02 -9.19851E+03  4.66826E+03 -6.93329E+03
  6.82823E+03 -2.09804E+03  4.51247E+03  1.92646E+03  1.35475E+03  3.33011E+03  1.56932E+03  1.62280E+03
  2.63241E+03  6.72098E+02  2.75448E+03  1.90290E+03  3.17819E+03  4.24624E+03  2.96180E+03  5.45885E+03
 -2.58757E+03  8.83230E+03 -7.12073E+03  8.90505E+03 -1.08943E+04  2.25736E+03 -1.15837E+04 -4.13705E+03
 -5.38240E+03 -1.03571E+04  1.86237E+03 -1.26263E+04  6.76784E+03 -7.77315E+03  9.08705E+03 -2.10255E+03
  6.75871E+03  3.99291E+03  1.03780E+03  6.24141E+03 -3.01311E+03  3.79974E+03 -4.38325E+03 -2.33479E+02
 -1.88369E+03 -4.74065E+03  2.71170E+03 -4.54947E+03  4.21676E+03 -2.42456E+03  4.27073E+03  1.14871E+03
  2.45345E+03  2.15578E+03  1.11449E+03  1.52994E+03 -6.45994E+02  1.33692E+03  1.58895E+03 -5.11640E+02
  1.71075E+03 -6.31941E+02  4.32993E+03  1.68176E+03  2.46896E+03  5.79946E+03 -1.13631E+03  7.91030E+03
 -5.01026E+03  4.63283E+03 -6.26254E+03  1.39424E+03 -6.20293E+03 -2.07747E+03 -1.84975E+03 -4.20017E+03
  5.63454E+02 -4.09401E+03  2.86361E+03 -1.62060E+03  2.27337E+03  2.41151E+03 -1.22112E+03  3.38235E+03
 -4.43971E+03  1.93628E+03 -4.72983E+03 -2.58736E+03 -2.75431E+03 -6.04964E+03  9.35659E+02 -5.61382E+03
  2.67256E+03 -3.35666E+03  3.78081E+03 -3.90158E+02  3.68780E+03  1.17910E+03  7.78692E+02  3.12004E+03
 -1.44601E+03  8.63658E+02 -2.24775E+03 -1.84064E+03  1.17958E+03 -4.32663E+03  5.14378E+03 -3.38229E+03
  6.17785E+03  3.98268E+02  6.37903E+03  4.55803E+03  1.93058E+03  6.45503E+03 -2.08402E+03  6.32006E+03
 -5.54684E+03  2.40710E+03 -5.58944E+03 -6.60282E+02 -2.54084E+03 -4.30366E+03  9.31148E+02 -3.93859E+03
  4.19627E+03 -1.91741E+03  3.56566E+03  1.58081E+03  1.21050E+03  3.47049E+03 -6.21768E+02  3.28745E+03
 -1.69345E+03  2.16537E+03 -1.38363E+03  6.44277E+02 -3.70877E+02  9.09154E+02 -1.09197E+03  1.25524E+03
 -1.56396E+03  2.84311E+03 -4.68198E+03  2.30213E+03 -6.42123E+03  2.05011E+02 -7.42674E+03 -4.71491E+03
 -3.76413E+03 -8.33889E+03  1.71471E+03 -9.78824E+03  5.79359E+03 -7.61323E+03  9.10181E+03 -3.24528E+03
  8.54706E+03  1.75878E+03  5.14727E+03  5.90162E+03  2.09686E+02  6.45787E+03 -2.38707E+03  5.04638E+03
 -3.89110E+03  2.07466E+03 -2.35160E+03 -6.03295E+02 -9.59886E+02 -1.83952E+02 -3.72477E+02  1.22942E+02
 -1.57047E+03 -1.78466E+02 -1.41024E+03 -4.27260E+02 -1.82320E+02 -1.68642E+03  6.88929E+01 -2.49269E+03
  3.33477E+03 -2.08199E+03  3.44332E+03 -1.49238E+02  4.72858E+03  3.29377E+03  6.26132E+02  6.27053E+03
 -2.93540E+03  7.40308E+03 -6.83868E+03  4.26853E+03 -7.32755E+03 -4.38795E+02 -5.51357E+03 -4.80056E+03
 -2.48051E+03 -5.93712E+03  1.52431E+03 -5.93086E+03  3.73455E+03 -3.24076E+03  4.22525E+03  1.15736E+02
  2.47977E+03  2.30455E+03 -8.57069E+01  1.93880E+03 -9.05129E+02  7.58469E+01 -2.37601E+02 -1.34811E+03
  2.13474E+03 -5.72124E+02  2.40851E+03  8.21976E+02  1.28115E+03  2.23643E+03  2.21701E+02  2.99852E+03
 -2.60028E+03  2.94750E+03 -3.95220E+03  6.27036E+02 -3.59229E+03 -2.72326E+03 -5.05797E+02 -4.91651E+03
  2.74915E+03 -4.13348E+03  4.54881E+03 -1.23895E+03  4.63145E+03  7.15683E+02  2.54972E+03  3.99058E+03
  4.05878E+02  3.87169E+03 -1.34452E+03  2.98003E+03 -2.24922E+03  2.31151E+03 -2.20641E+03  6.28878E+02
 -9.03054E+02 -3.01481E+02 -1.22519E+03  8.73947E+02 -1.90853E+03  9.82815E+02 -3.03484E+03 -7.64844E+02
 -2.89830E+03 -1.79141E+03 -8.10267E+02 -4.35454E+03  2.27397E+03 -4.52183E+03  3.34709E+03 -1.81313E+03
  3.81519E+03  4.64495E+02  1.54859E+03  2.70073E+03 -6.23694E+02  3.79065E+03 -2.75760E+03  2.53410E+03
