 $NMID ID='MM_0lb_SNR800_17hz_g55_46.RAW', FMTDAT='(8E13.5)'
 TRAMP=1., VOLUME=1. $END
  3.10171E+05  5.42628E+02  3.37640E+05  2.50442E+05  8.46254E+04  3.38131E+05 -1.32758E+05  2.50892E+05
 -1.90221E+05  8.29897E+04 -1.11576E+05 -3.28707E+04  1.03678E+03 -5.03923E+04  5.39374E+04  4.26087E+01
  3.56397E+04  5.27959E+04 -1.67705E+04  7.50156E+04 -6.04897E+04  6.32705E+04 -8.40702E+04  3.19420E+04
 -8.08481E+04 -1.16868E+04 -5.69277E+04 -5.09742E+04 -1.49295E+04 -6.91817E+04  2.71473E+04 -4.54427E+04
  3.97238E+04  3.97181E+03  1.61101E+04  4.76215E+04 -3.41116E+04  4.70028E+04 -6.63715E+04 -1.59803E+02
 -5.27322E+04 -5.63787E+04 -6.54711E+03 -7.66265E+04  3.36418E+04 -5.44753E+04  4.76304E+04 -1.68632E+04
  4.27594E+04  1.11342E+04  3.13209E+04  2.51248E+04  1.56869E+04  2.87838E+04 -5.31756E+03  2.69706E+04
 -2.19107E+04  1.25861E+04 -1.86980E+04 -4.83331E+03  5.22725E+03 -7.51468E+03  2.18913E+04  1.15267E+04
  7.33336E+03  3.45372E+04 -3.17624E+04  3.52168E+04 -6.25674E+04  2.03303E+03 -5.62883E+04 -4.21047E+04
 -1.23945E+04 -6.23475E+04  3.93470E+04 -4.41800E+04  5.72808E+04 -2.51310E+03  3.31364E+04  3.17803E+04
 -6.22648E+03  3.49973E+04 -2.94080E+04  1.48383E+04 -2.93281E+04 -4.50402E+03 -1.61756E+04 -1.06742E+04
 -8.04997E+03 -1.26324E+04 -7.76450E+02 -1.72608E+04  7.30546E+03 -2.28674E+04  1.51808E+04 -1.33540E+04
  1.18931E+04  4.72978E+03 -7.26894E+03  1.31041E+04 -2.03741E+04 -3.68434E+03 -8.12639E+03 -3.24683E+04
  2.19570E+04 -4.26637E+04  4.66209E+04 -1.92267E+04  4.38951E+04  1.88785E+04  1.52164E+04  4.32608E+04
 -1.55531E+04  3.25794E+04 -2.45447E+04  1.63713E+03 -9.10041E+03 -2.71742E+04  2.06602E+04 -3.28030E+04
  3.98700E+04 -8.61288E+03  3.38760E+04  2.34368E+04  1.71759E+04  4.48316E+04 -7.87787E+03  4.82245E+04
 -3.04829E+04  3.22982E+04 -4.02304E+04  9.29916E+03 -4.10356E+04 -1.60361E+04 -2.26656E+04 -3.64774E+04
  7.05776E+03 -3.63819E+04  3.07794E+04 -1.36298E+04  2.84270E+04  1.08174E+04  3.62359E+03  1.83943E+04
 -1.31689E+04  7.97019E+03 -9.89396E+03 -7.44892E+03  6.17046E+03 -1.05010E+04  1.76079E+04  6.19614E+03
  1.30017E+04  2.19196E+04 -6.12964E+03  2.42059E+04 -2.22711E+04  1.06738E+04 -2.66728E+04 -5.35927E+03
 -1.90040E+04 -1.71394E+04 -7.08057E+03 -1.89037E+04  4.17967E+03 -1.75214E+04  1.45741E+04 -1.63594E+04
  2.39159E+04 -1.23996E+04  3.05909E+04  1.79355E+03  2.29231E+04  1.83376E+04  4.35871E+03  3.46757E+04
 -1.68065E+04  2.90783E+04 -2.72386E+04  1.01355E+04 -2.03006E+04 -1.02541E+04 -4.05081E+03 -1.35196E+04
  2.12504E+03 -3.42257E+03 -3.86487E+03  6.10533E+03 -1.46570E+04  5.31171E+03 -1.52701E+04 -5.99073E+03
 -9.27017E+03 -1.72485E+04  4.95007E+03 -2.13654E+04  1.40342E+04 -1.53372E+04  1.65196E+04 -1.64149E+03
  1.03051E+04  1.21240E+04 -9.61094E+02  1.75993E+04 -1.17138E+04  9.87866E+03 -1.75909E+04 -3.71407E+03
 -1.28122E+04 -1.59998E+04 -1.53820E+03 -2.05642E+04  9.37469E+03 -1.72548E+04  1.75390E+04 -8.38116E+03
  1.62059E+04  4.03813E+02  1.16350E+04  4.03017E+03  5.92415E+03  6.04207E+02  8.67921E+03 -1.34673E+03
  1.57503E+04  2.66760E+03  1.72889E+04  1.39135E+04  1.09404E+04  2.74387E+04 -3.03056E+03  3.06419E+04
 -1.78107E+04  2.39402E+04 -2.81578E+04  1.18907E+04 -2.92810E+04 -2.38711E+03 -2.43766E+04 -1.69316E+04
 -1.10168E+04 -2.39803E+04  8.02519E+03 -2.17331E+04  1.87668E+04 -1.18701E+04  1.71146E+04  4.54053E+03
  6.80033E+03  1.26441E+04 -8.11319E+03  1.14451E+04 -1.48923E+04  2.53553E+03 -1.13920E+04 -9.04576E+03
 -2.07790E+02 -1.38835E+04  7.01463E+03 -1.02335E+04  9.07600E+03 -1.55346E+03  1.93933E+03  5.60939E+03
 -6.32570E+03  1.70016E+03 -4.70841E+03 -5.01737E+03  2.52016E+02 -1.16944E+04  8.63025E+03 -1.17967E+04
  1.42396E+04 -6.07550E+03  1.48583E+04  2.90609E+03  1.29566E+04  1.11640E+04  6.13432E+03  1.70673E+04
 -2.63670E+03  1.90177E+04 -1.18930E+04  1.15986E+04 -1.36030E+04  3.24658E+03 -9.67038E+03 -2.81352E+03
 -4.90424E+03 -4.23296E+03 -7.80137E+02  1.31471E+03 -2.19477E+03  2.18253E+03 -4.56012E+03  3.83689E+03
 -9.13341E+03 -6.80194E+02 -1.00558E+04 -8.30391E+03 -4.04692E+03 -1.30592E+04  4.21410E+03 -9.86608E+03
  8.16931E+03 -3.99956E+03  6.04514E+03  2.68801E+03  3.64376E+02  3.75545E+03 -4.34071E+03  4.08344E+00
 -4.22680E+03 -5.87282E+03 -7.42139E+02 -8.51393E+03  4.72643E+03 -9.53104E+03  1.16502E+04 -4.84557E+03
  1.39875E+04  9.22479E+02  1.04403E+04  7.41618E+03  2.20831E+03  1.05660E+04 -6.00806E+03  9.44154E+03
 -7.56369E+03  2.91824E+03 -4.11738E+03 -1.54549E+03  1.61580E+03 -2.43205E+03  5.49562E+03 -1.09375E+03
  4.52429E+03  3.78092E+03  8.89566E+02  7.35405E+03 -5.18137E+03  7.00494E+03 -9.51287E+03  1.97124E+03
 -5.56653E+03 -4.35829E+03  2.92396E+02 -7.88822E+03  4.35624E+03 -4.04020E+03  4.27416E+03  1.55729E+03
  1.00258E+03  4.26771E+03 -4.77939E+03  5.90860E+03 -6.46186E+03  3.21213E+03 -6.14543E+03 -1.78305E+03
 -3.76711E+03 -7.77237E+03  1.85513E+03 -8.90364E+03  7.52687E+03 -5.72803E+03  8.08210E+03  1.39394E+03
  5.57315E+03  6.74155E+03 -9.46361E+01  8.67236E+03 -5.99158E+03  5.05763E+03 -6.29857E+03 -4.28498E+02
 -6.59042E+03 -5.94430E+03 -1.64474E+03 -6.00870E+03  3.22749E+03 -5.18692E+03  3.50400E+03 -3.00950E+03
  3.21002E+03  8.03753E+02 -1.78890E+02  1.68981E+03  4.68833E+02 -6.23964E+02  1.17844E+02 -2.55595E+03
  4.80585E+03 -1.49435E+03  6.69028E+03  1.00797E+03  6.92125E+03  4.04595E+03  5.98025E+03  9.26684E+03
 -1.69721E+03  1.07299E+04 -9.47511E+03  8.30817E+03 -1.19200E+04  1.50962E+03 -9.58933E+03 -3.50049E+03
 -5.17546E+03 -8.19836E+03 -4.80217E+02 -6.60105E+03  2.32777E+03 -3.02272E+03  2.00860E+03 -2.64495E+03
  1.72206E+03 -1.95449E+03  2.27157E+03 -2.56689E+03  3.87363E+03 -1.79838E+03  3.90417E+03  2.45171E+02
  5.00597E+03  1.44364E+03  1.80843E+03  4.23991E+03 -1.39332E+03  3.82012E+03 -5.41332E+03  3.20462E+03
 -6.23243E+03 -9.03916E+02 -2.78165E+03 -4.14023E+03  5.70559E+02 -6.17688E+03  3.87712E+03 -6.57177E+03
  6.61570E+03 -3.88944E+03  8.39758E+03  8.52614E+02  5.84629E+03  5.34499E+03  9.65304E+02  7.73868E+03
 -2.95522E+03  6.96250E+03 -4.61373E+03  2.21702E+03 -2.48566E+03 -1.07540E+03 -7.58589E+02 -7.42810E+02
 -4.06391E+02  4.08421E+02 -1.19631E+03  2.23235E+03 -3.03400E+03  1.07680E+03 -4.66380E+03 -7.16152E+02
 -1.67972E+03 -4.86665E+03  6.09039E+02 -5.81589E+03  3.69840E+03 -5.55997E+03  4.54184E+03 -1.43282E+03
  5.32701E+03  2.91487E+03  2.18133E+03  4.40130E+03 -9.48731E+02  5.80415E+03 -3.73976E+03  3.42336E+03
 -5.11394E+03  4.04111E+02 -4.10743E+03 -3.17111E+03 -4.36822E+02 -4.07773E+03  1.88427E+03 -3.18228E+03
  3.61581E+03 -1.51726E+03  2.37692E+03  6.23562E+02  5.95448E+02  1.84777E+03  9.79553E+02  5.48812E+02
  1.76974E+03  8.19589E+02  1.66703E+03  9.32502E+02  1.17692E+03  2.36473E+03  1.69214E+03  2.65678E+03
 -1.53747E+03  3.79806E+03 -3.31603E+03  4.83887E+03 -4.55261E+03  1.57003E+03 -5.54505E+03 -1.15443E+03
 -2.44391E+03 -4.57327E+03  5.85281E+02 -6.08929E+03  2.51912E+03 -3.71122E+03  3.78732E+03 -1.21294E+03
  3.06176E+03  2.10824E+03  6.30076E+02  2.63963E+03 -1.06436E+03  1.67564E+03 -1.48969E+03 -2.04613E+02
 -7.56502E+02 -2.23415E+03  1.30622E+03 -2.12104E+03  1.95772E+03 -1.29752E+03  2.05383E+03  9.31552E+02
  1.01539E+03  6.94461E+02  8.86053E+02 -1.28574E+02 -4.46053E+02  8.05615E+02  1.66255E+03 -2.83174E+02
  3.80885E+02 -3.30893E+01  2.27014E+03  1.02194E+03  4.93446E+02  3.04747E+03 -4.65612E+02  3.36912E+03
 -1.98944E+03  1.66670E+03 -2.77533E+03  4.88939E+02 -2.45756E+03 -8.81226E+02 -4.92013E+02 -1.53574E+03
  4.00171E+02 -1.48328E+03  1.44391E+03 -1.02991E+03  8.55478E+02  1.14979E+03 -7.96315E+02  1.58799E+03
 -1.75019E+03  9.70186E+02 -1.58564E+03 -1.63056E+03 -9.73510E+02 -2.78707E+03  6.36823E+02 -2.20726E+03
  6.00391E+02 -8.55529E+02  1.19491E+03  1.05298E+02  1.75659E+03 -3.57884E+01  3.50331E+02  1.56517E+03
 -7.31801E+02  3.09762E+02 -1.17698E+03 -3.19839E+02  6.29039E+02 -1.17302E+03  2.08575E+03 -1.12864E+03
  1.82839E+03  5.39543E+01  3.21002E+03  1.32107E+03  1.39115E+03  2.05157E+03 -5.04434E+02  2.50090E+03
 -1.86313E+03  5.96233E+02 -1.93435E+03 -2.61520E+02 -1.21997E+03 -1.49545E+03  6.33102E+02 -1.13737E+03
  1.75147E+03 -1.20478E+03  1.29859E+03  9.37648E+02  9.00645E+01  1.52605E+03 -7.31894E+01  1.29584E+03
 -3.01426E+02  1.40566E+03 -7.04299E+02  3.89353E+02 -1.21991E+02  5.39828E+02 -9.24646E+02  7.06935E+02
 -6.76525E+02  9.68102E+02 -2.07196E+03  6.94684E+02 -2.33413E+03  2.43262E+02 -3.14672E+03 -1.50310E+03
 -1.23963E+03 -2.95205E+03  5.99152E+02 -3.63911E+03  1.52015E+03 -3.16115E+03  3.63238E+03 -1.13785E+03
  3.13427E+03 -1.58521E+02  1.75724E+03  2.03833E+03 -2.84839E+02  1.94400E+03 -5.72304E+02  1.88419E+03
 -1.45897E+03  1.07578E+03 -7.75332E+02 -7.27837E+01 -5.21740E+02  1.11727E+02 -3.57587E+02 -2.82497E+02
 -1.33666E+03  2.23945E+01 -8.54795E+02  3.11489E+02  2.72626E+02 -7.59621E+02 -3.46283E+02 -1.03630E+03
  1.57221E+03 -7.85400E+02  7.51759E+02 -1.73528E+00  1.30901E+03  1.19861E+03 -2.56948E+02  2.22709E+03
 -1.02612E+03  2.50155E+03 -2.20711E+03  2.11773E+03 -2.32248E+03 -1.94653E+02 -1.73943E+03 -1.49595E+03
 -9.32737E+02 -1.80301E+03  2.87086E+02 -1.78804E+03  1.15144E+03 -1.07961E+03  1.00869E+03 -4.30476E+01
  7.91978E+02  5.97159E+02  6.31387E+01  2.34540E+02 -5.88056E+02  1.99565E+00 -1.90968E+02 -4.76823E+02
  5.18203E+02  5.66979E+01  4.49935E+02  6.19578E+02  3.73492E+02  7.24904E+02  4.68107E+02  4.43025E+02
 -1.01763E+03  8.20037E+02 -8.55187E+02  7.81050E+01 -8.57951E+02 -1.24633E+03  1.22720E+02 -1.51559E+03
  6.51723E+02 -1.45062E+03  7.32313E+02 -2.44332E+02  1.23490E+03 -6.98261E+02  7.10292E+02  1.25163E+03
  2.27719E+02  6.91179E+02 -3.02314E+02  7.09752E+02 -8.61100E+02  7.65386E+02 -6.00445E+02  8.68191E+01
 -3.73658E+02 -1.99061E+01 -3.67374E+02  1.74278E+02 -7.80307E+02  4.19729E+02 -1.13822E+03 -2.57144E+02
 -1.41901E+03 -2.12065E+02 -4.40148E+02 -1.33400E+03  1.11595E+03 -1.61878E+03  8.48320E+02 -6.18664E+02
  1.11856E+03 -5.28861E+01 -2.70882E+02  2.51826E+02 -1.60999E+02  1.15976E+03 -8.17620E+02  9.26452E+02
