 $NMID ID='MM_0lb_SNR800_19hz_g40_17.RAW', FMTDAT='(8E13.5)'
 TRAMP=1., VOLUME=1. $END
  3.09548E+05  3.65580E+02  3.37148E+05  2.50392E+05  8.43516E+04  3.37381E+05 -1.32115E+05  2.49753E+05
 -1.89375E+05  8.19826E+04 -1.10579E+05 -3.30158E+04  2.03044E+03 -5.00302E+04  5.39288E+04  5.68908E+02
  3.48776E+04  5.29165E+04 -1.71299E+04  7.48563E+04 -6.01188E+04  6.22615E+04 -8.26742E+04  3.11425E+04
 -7.93615E+04 -1.09317E+04 -5.57876E+04 -4.96144E+04 -1.47729E+04 -6.78044E+04  2.65658E+04 -4.43547E+04
  3.88067E+04  4.28169E+03  1.52069E+04  4.69369E+04 -3.35334E+04  4.58631E+04 -6.47633E+04 -8.58084E+02
 -5.15123E+04 -5.55991E+04 -6.05506E+03 -7.46066E+04  3.31207E+04 -5.24008E+04  4.55467E+04 -1.59846E+04
  4.09616E+04  1.08662E+04  3.06300E+04  2.40809E+04  1.57807E+04  2.80852E+04 -4.47753E+03  2.68371E+04
 -2.16763E+04  1.28157E+04 -1.92951E+04 -4.15710E+03  3.79644E+03 -7.46398E+03  2.07079E+04  1.05210E+04
  7.62650E+03  3.25848E+04 -3.00118E+04  3.34681E+04 -6.02869E+04  2.16169E+03 -5.48330E+04 -4.07278E+04
 -1.25757E+04 -6.00053E+04  3.76176E+04 -4.25903E+04  5.46465E+04 -1.97371E+03  3.12036E+04  3.01214E+04
 -6.73419E+03  3.20949E+04 -2.79506E+04  1.24939E+04 -2.67585E+04 -5.42547E+03 -1.33659E+04 -9.93416E+03
 -7.19571E+03 -1.07218E+04 -1.24437E+03 -1.60466E+04  6.21514E+03 -2.28991E+04  1.48109E+04 -1.41917E+04
  1.25014E+04  3.97393E+03 -5.46692E+03  1.27538E+04 -1.86294E+04 -2.22871E+03 -8.02808E+03 -2.91566E+04
  1.98515E+04 -3.96397E+04  4.39294E+04 -1.84102E+04  4.12096E+04  1.80074E+04  1.38176E+04  4.08582E+04
 -1.52074E+04  3.04729E+04 -2.28464E+04  9.40062E+02 -7.79347E+03 -2.60018E+04  2.03782E+04 -3.02122E+04
  3.70538E+04 -7.00698E+03  3.02174E+04  2.26426E+04  1.46500E+04  4.13488E+04 -7.61938E+03  4.38799E+04
 -2.74564E+04  2.86425E+04 -3.59499E+04  7.91973E+03 -3.71580E+04 -1.44766E+04 -2.06032E+04 -3.36672E+04
  6.96131E+03 -3.31237E+04  2.87800E+04 -1.19773E+04  2.63958E+04  1.08131E+04  2.51508E+03  1.76171E+04
 -1.30595E+04  6.95250E+03 -9.20664E+03 -7.65723E+03  6.22536E+03 -9.78105E+03  1.70231E+04  6.68612E+03
  1.21004E+04  2.15125E+04 -6.93271E+03  2.29422E+04 -2.12164E+04  8.37351E+03 -2.42989E+04 -6.66225E+03
 -1.56502E+04 -1.59265E+04 -5.05197E+03 -1.57754E+04  3.35483E+03 -1.33794E+04  1.17491E+04 -1.32843E+04
  1.98942E+04 -1.11977E+04  2.69055E+04  6.80171E+02  2.05247E+04  1.52376E+04  4.09969E+03  3.15969E+04
 -1.56930E+04  2.67810E+04 -2.54913E+04  9.29015E+03 -1.90473E+04 -1.05488E+04 -3.71649E+03 -1.40214E+04
  3.09644E+03 -4.46325E+03 -2.14965E+03  4.97531E+03 -1.22779E+04  5.50423E+03 -1.26394E+04 -4.51843E+03
 -7.99474E+03 -1.47284E+04  4.11443E+03 -1.84639E+04  1.20349E+04 -1.32830E+04  1.37661E+04 -1.35411E+03
  8.74440E+03  1.03255E+04 -9.46506E+02  1.47006E+04 -9.20538E+03  8.10991E+03 -1.44131E+04 -3.25559E+03
 -1.08872E+04 -1.34669E+04 -1.55003E+03 -1.76678E+04  8.38035E+03 -1.43581E+04  1.52826E+04 -6.76784E+03
  1.38137E+04  8.97290E+02  1.00833E+04  3.77132E+03  4.90513E+03  4.88319E+02  6.81757E+03 -1.40340E+03
  1.27758E+04  2.56971E+03  1.34228E+04  1.21910E+04  8.23131E+03  2.33742E+04 -3.11364E+03  2.46039E+04
 -1.46383E+04  1.86656E+04 -2.27016E+04  8.74451E+03 -2.31914E+04 -1.83190E+03 -2.01164E+04 -1.28832E+04
 -9.85870E+03 -1.88783E+04  6.22324E+03 -1.78026E+04  1.54384E+04 -1.04738E+04  1.48993E+04  3.20662E+03
  6.42329E+03  1.02878E+04 -6.61047E+03  9.99136E+03 -1.25421E+04  2.57303E+03 -9.87990E+03 -7.36575E+03
  1.75044E+01 -1.18633E+04  5.76051E+03 -9.07174E+03  7.38648E+03 -1.10012E+03  1.18929E+03  4.52130E+03
 -5.33788E+03  1.13758E+03 -3.29847E+03 -4.54720E+03  9.49206E+02 -9.51413E+03  7.42492E+03 -9.28001E+03
  1.11503E+04 -3.91956E+03  1.08200E+04  2.78396E+03  9.53843E+03  8.95729E+03  4.56850E+03  1.24384E+04
 -1.26831E+03  1.46659E+04 -8.76207E+03  9.37333E+03 -1.04227E+04  2.76332E+03 -7.79145E+03 -1.58248E+03
 -4.51402E+03 -2.85514E+03 -7.03370E+02  1.70392E+03 -1.81370E+03  1.85979E+03 -3.40483E+03  3.61285E+03
 -7.56021E+03 -6.42569E+02 -8.48181E+03 -6.62861E+03 -3.61147E+03 -1.09596E+04  3.24274E+03 -8.05607E+03
  6.68643E+03 -3.86283E+03  4.85541E+03  1.77587E+03  5.20048E+02  2.85126E+03 -3.16942E+03 -4.05704E+00
 -3.10575E+03 -5.03547E+03 -5.60565E+02 -6.64168E+03  3.66994E+03 -7.20290E+03  9.14512E+03 -3.69551E+03
  1.10531E+04  4.33752E+02  8.01382E+03  5.55001E+03  1.86262E+03  7.84349E+03 -4.92830E+03  7.85934E+03
 -6.75784E+03  2.88991E+03 -3.27610E+03 -9.16509E+02  1.25975E+03 -1.86617E+03  4.47422E+03 -5.84383E+02
  3.94410E+03  3.06456E+03  8.84103E+02  5.84592E+03 -4.09632E+03  6.11377E+03 -7.55818E+03  1.70319E+03
 -4.54511E+03 -3.09562E+03  1.77110E+02 -6.33764E+03  3.71967E+03 -3.04253E+03  3.21385E+03  1.00415E+03
  3.55540E+02  3.01770E+03 -3.70255E+03  4.05366E+03 -4.06807E+03  2.18555E+03 -3.82258E+03 -7.85914E+02
 -2.60513E+03 -5.63828E+03  1.11414E+03 -6.26707E+03  5.13194E+03 -4.24973E+03  5.54945E+03  7.50517E+02
  4.23880E+03  4.72571E+03  1.87734E+02  6.76659E+03 -4.72373E+03  3.61960E+03 -4.65971E+03 -1.73634E+02
 -5.46521E+03 -5.03507E+03 -1.45185E+03 -4.45320E+03  2.53418E+03 -4.65100E+03  2.56892E+03 -2.64061E+03
  2.81674E+03 -1.22922E+02  2.36800E+02  1.66911E+03  5.04402E+02 -3.83369E+01 -1.66310E+02 -1.50634E+03
  3.74084E+03 -5.59978E+02  4.62665E+03  4.78077E+02  5.26256E+03  2.83259E+03  5.12648E+03  6.47113E+03
 -9.93116E+02  7.47871E+03 -7.06594E+03  6.01359E+03 -9.06105E+03  9.72562E+02 -7.17028E+03 -2.45435E+03
 -3.77613E+03 -5.85648E+03 -3.70094E+02 -4.38725E+03  1.76495E+03 -1.79502E+03  1.49639E+03 -1.90884E+03
  1.16207E+03 -1.37980E+03  2.06018E+03 -2.01480E+03  3.46977E+03 -1.19121E+03  3.61183E+03  5.30580E+02
  4.27328E+03  1.31238E+03  8.61750E+02  2.88930E+03 -1.24176E+03  2.44570E+03 -4.01622E+03  2.48801E+03
 -4.43711E+03 -1.19645E+03 -1.49164E+03 -2.98893E+03  5.29248E+02 -4.33876E+03  2.79073E+03 -4.90261E+03
  4.70637E+03 -2.77450E+03  5.98513E+03  1.74695E+02  4.43423E+03  3.70739E+03  1.17589E+03  5.49877E+03
 -1.91045E+03  5.35530E+03 -3.15318E+03  1.73337E+03 -1.60812E+03 -1.22133E+03 -3.07662E+02 -6.65089E+02
 -5.00643E+02  6.57422E+02 -9.13544E+02  1.90195E+03 -2.17092E+03  1.14748E+03 -3.89910E+03 -4.02656E+02
 -1.51491E+03 -4.11471E+03  7.89981E+02 -4.62954E+03  2.36907E+03 -4.18957E+03  3.05902E+03 -9.00176E+02
  3.92303E+03  2.38490E+03  1.51693E+03  2.81386E+03 -5.51006E+02  4.04859E+03 -2.03522E+03  2.20126E+03
 -3.55667E+03  6.83502E+02 -3.21945E+03 -2.47140E+03 -9.08401E+01 -2.90012E+03  1.29131E+03 -2.31867E+03
  2.32637E+03 -1.37132E+03  1.55320E+03  2.28671E+02  4.38351E+02  1.47615E+03  8.69434E+02  5.91398E+02
  1.80074E+03  3.71090E+02  9.65312E+02  9.14313E+02  1.11014E+03  1.86874E+03  1.22720E+03  1.49835E+03
 -9.84316E+02  2.81184E+03 -2.20414E+03  3.65866E+03 -2.49354E+03  1.09784E+03 -3.81919E+03 -1.13772E+02
 -1.63175E+03 -3.09844E+03  3.82805E+02 -4.65048E+03  1.65312E+03 -2.25511E+03  2.69223E+03 -9.80940E+02
  2.24851E+03  1.80545E+03  5.00104E+02  2.33990E+03 -6.43015E+02  1.15432E+03 -1.25818E+03  6.82261E+01
 -3.28254E+02 -1.32092E+03  1.24053E+03 -1.60451E+03  1.17818E+03 -9.64315E+02  1.16717E+03  2.45531E+02
  6.13896E+02  1.85378E+02  7.61066E+02 -3.92784E+02 -3.81032E+02  7.73224E+02  1.54629E+03 -1.59186E+02
 -4.94876E+01 -3.35224E+02  1.23706E+03  6.04888E+02  5.02033E+01  2.17904E+03 -2.99961E+02  2.66994E+03
 -1.60666E+03  8.77189E+02 -1.72638E+03  3.26585E+02 -2.01266E+03 -4.62388E+02 -2.90610E+01 -8.87394E+02
  1.20564E+02 -1.15068E+03  6.97218E+02 -7.10949E+02  2.69588E+02  1.12388E+03 -6.06257E+02  8.69349E+02
 -1.29742E+03  7.43134E+02 -1.10192E+03 -1.49747E+03 -4.26994E+02 -1.99733E+03  1.15007E+02 -1.31838E+03
  4.85062E+02 -4.96618E+02  5.28040E+02  7.92791E+01  1.16864E+03  1.44037E+02  3.94308E+02  9.90364E+02
 -3.10708E+02 -2.27213E+02 -8.71785E+02  7.38708E+01  7.08096E+02 -6.85050E+02  1.92806E+03 -6.97889E+02
  9.88718E+02  3.32116E+02  2.55838E+03  6.19965E+02  1.53705E+03  1.47766E+03 -2.71890E+02  1.52878E+03
 -1.45418E+03  1.01575E+02 -1.06158E+03 -5.46147E+01 -8.13249E+02 -1.23485E+03  7.22968E+02 -4.55966E+02
  1.41520E+03 -4.92494E+02  7.60475E+02  6.22863E+02 -9.79248E+01  1.28492E+03  3.94065E+01  9.94660E+02
 -2.47243E+02  9.90380E+02 -2.90003E+02  1.23065E+02  1.78681E+02  3.47967E+02 -7.37254E+02  5.72735E+02
 -8.85110E+02  1.19187E+03 -1.67398E+03  3.81947E+02 -1.51444E+03  1.61695E+02 -2.16122E+03 -1.07176E+03
 -9.74661E+02 -2.00453E+03  3.68977E+02 -2.64829E+03  7.88143E+02 -2.27219E+03  2.58301E+03 -1.16987E+03
  2.21697E+03 -2.30209E+02  7.98079E+02  1.12511E+03 -6.11263E+02  1.27090E+03 -6.24063E+02  1.29870E+03
 -9.69375E+02  7.06200E+02 -4.69088E+02  1.25315E+02 -5.68984E+02  1.61445E+02 -8.49134E+02  4.37603E+01
 -1.18758E+03 -2.38401E+02 -7.47848E+02  8.83142E+01  2.38252E+02 -5.13487E+02 -3.90666E+01 -7.96026E+02
  1.39548E+03 -5.27681E+02  3.80407E+02  9.84422E+01  1.27175E+03  8.40232E+02 -6.58344E+02  1.33345E+03
 -6.55123E+02  2.15437E+03 -1.55585E+03  1.23183E+03 -1.71811E+03  2.60280E+01 -1.32451E+03 -9.54154E+02
 -8.77699E+02 -1.29812E+03  1.47802E+02 -8.84422E+02  5.22843E+02 -6.74973E+02  5.90243E+02  1.07409E+02
  5.51992E+02  7.36700E+01  2.85518E+02  2.17603E+02 -2.51224E+02  3.03702E+01 -1.25728E+02  1.70892E+02
  2.02365E+02  2.20045E+02  4.69923E+02  4.86736E+02  2.18891E+02  3.12500E+02  4.54554E+02  3.89418E+02
 -5.68982E+02  4.87717E+02 -6.59068E+02  2.34508E+01 -6.87776E+02 -4.01104E+02  1.31223E+02 -8.69108E+02
  4.29699E+02 -6.36379E+02  1.65877E+02 -3.64108E+01  8.54820E+02 -6.44570E+02  5.95480E+02  5.61489E+02
  4.80531E+02  5.17226E+02 -1.98885E+02  6.63248E+02 -4.25425E+02  7.42797E+02 -2.91884E+02  9.40424E+01
 -3.10440E+02 -2.01445E+02 -3.98552E+02  9.38060E+01 -5.02016E+02  2.95892E+02 -7.08798E+02 -7.57697E+01
 -1.02385E+03  3.10954E+02 -2.76337E+02 -1.12963E+03  6.61302E+02 -1.30646E+03  7.70570E+02  3.77929E+01
  4.57097E+02  1.15034E+02 -3.66428E+02  2.08114E+02  8.76469E+01  6.76372E+02 -2.88542E+02  5.71766E+02
