 $NMID ID='MM_0lb_SNR800_13hz_g50_16.RAW', FMTDAT='(8E13.5)'
 TRAMP=1., VOLUME=1. $END
  3.09676E+05  2.88557E+02  3.37888E+05  2.50629E+05  8.47813E+04  3.38100E+05 -1.32907E+05  2.51448E+05
 -1.90457E+05  8.33916E+04 -1.12400E+05 -3.29968E+04  7.93563E+02 -5.06081E+04  5.37971E+04  2.67959E+02
  3.51636E+04  5.27395E+04 -1.67830E+04  7.54821E+04 -6.08667E+04  6.34665E+04 -8.42745E+04  3.21810E+04
 -8.11351E+04 -1.19357E+04 -5.75376E+04 -5.16630E+04 -1.50773E+04 -6.98566E+04  2.75869E+04 -4.61655E+04
  4.03871E+04  3.76379E+03  1.62842E+04  4.78314E+04 -3.44713E+04  4.75598E+04 -6.67062E+04 -3.44065E+02
 -5.36269E+04 -5.67539E+04 -6.86089E+03 -7.73219E+04  3.42882E+04 -5.54418E+04  4.82902E+04 -1.75220E+04
  4.40452E+04  1.13715E+04  3.19394E+04  2.55304E+04  1.61234E+04  2.94235E+04 -5.15797E+03  2.72382E+04
 -2.21350E+04  1.18983E+04 -1.87127E+04 -5.46683E+03  5.68560E+03 -7.59761E+03  2.24299E+04  1.24503E+04
  7.11878E+03  3.57395E+04 -3.27112E+04  3.61436E+04 -6.39085E+04  1.96337E+03 -5.75994E+04 -4.31626E+04
 -1.24436E+04 -6.39655E+04  4.00888E+04 -4.54965E+04  5.90039E+04 -2.41789E+03  3.50769E+04  3.27835E+04
 -5.86132E+03  3.68293E+04 -3.04107E+04  1.67896E+04 -3.08484E+04 -4.17878E+03 -1.72770E+04 -1.13099E+04
 -8.51136E+03 -1.34505E+04 -6.49837E+02 -1.83800E+04  7.81072E+03 -2.34596E+04  1.54643E+04 -1.32842E+04
  1.13850E+04  5.39406E+03 -8.76662E+03  1.28557E+04 -2.19687E+04 -5.25207E+03 -8.21782E+03 -3.43460E+04
  2.33770E+04 -4.41451E+04  4.89160E+04 -2.01636E+04  4.56575E+04  2.00622E+04  1.62445E+04  4.48080E+04
 -1.61991E+04  3.39728E+04 -2.57193E+04  1.98172E+03 -1.02830E+04 -2.82871E+04  2.10069E+04 -3.45015E+04
  4.20771E+04 -9.76577E+03  3.65487E+04  2.40262E+04  1.90591E+04  4.71777E+04 -8.14014E+03  5.15411E+04
 -3.24341E+04  3.47346E+04 -4.32245E+04  1.03244E+04 -4.36859E+04 -1.73563E+04 -2.39985E+04 -3.88353E+04
  7.43233E+03 -3.89748E+04  3.23232E+04 -1.51939E+04  3.00865E+04  1.09178E+04  4.36885E+03  1.98310E+04
 -1.36227E+04  8.68472E+03 -1.06362E+04 -7.96780E+03  5.88422E+03 -1.04827E+04  1.81348E+04  6.11203E+03
  1.35521E+04  2.20635E+04 -5.60937E+03  2.51849E+04 -2.28016E+04  1.18927E+04 -2.86409E+04 -4.32702E+03
 -2.15000E+04 -1.73835E+04 -9.16124E+03 -2.13251E+04  4.22495E+03 -2.08997E+04  1.66362E+04 -1.94789E+04
  2.70996E+04 -1.30722E+04  3.36641E+04  3.66840E+03  2.43779E+04  2.05289E+04  4.12062E+03  3.74518E+04
 -1.81594E+04  3.12618E+04 -2.87038E+04  1.09673E+04 -2.11725E+04 -9.90515E+03 -4.74015E+03 -1.32598E+04
  1.69018E+03 -2.74341E+03 -5.22577E+03  7.07934E+03 -1.71579E+04  4.91875E+03 -1.68915E+04 -7.59706E+03
 -1.05859E+04 -1.97509E+04  5.30592E+03 -2.39891E+04  1.61308E+04 -1.70651E+04  1.86573E+04 -1.64917E+03
  1.21111E+04  1.36316E+04 -8.83029E+02  2.01000E+04 -1.40054E+04  1.08249E+04 -1.97642E+04 -4.28527E+03
 -1.47511E+04 -1.79640E+04 -2.00998E+03 -2.41886E+04  1.07776E+04 -1.99456E+04  1.97328E+04 -9.92994E+03
  1.85940E+04  3.18270E+01  1.33976E+04  4.46993E+03  7.37364E+03  1.17025E+03  1.01728E+04 -1.41609E+03
  1.84426E+04  3.11066E+03  2.02630E+04  1.57453E+04  1.34876E+04  3.19968E+04 -3.09135E+03  3.60200E+04
 -2.08214E+04  2.94666E+04 -3.38231E+04  1.45342E+04 -3.57466E+04 -2.53423E+03 -2.92055E+04 -2.05986E+04
 -1.24178E+04 -2.95755E+04  1.03988E+04 -2.65309E+04  2.25696E+04 -1.32919E+04  2.02537E+04  6.04645E+03
  7.27823E+03  1.53895E+04 -9.50658E+03  1.29219E+04 -1.70968E+04  2.73749E+03 -1.29660E+04 -1.05142E+04
 -4.37517E+02 -1.61729E+04  8.41533E+03 -1.20473E+04  1.07849E+04 -1.32005E+03  2.37694E+03  6.93560E+03
 -7.28718E+03  2.90590E+03 -6.38876E+03 -6.01057E+03 -1.00706E+03 -1.44338E+04  1.00184E+04 -1.49904E+04
  1.78924E+04 -8.20887E+03  1.93995E+04  3.10732E+03  1.69301E+04  1.41211E+04  7.65771E+03  2.19207E+04
 -3.67871E+03  2.40972E+04 -1.53600E+04  1.50675E+04 -1.71924E+04  3.48462E+03 -1.21359E+04 -4.15095E+03
 -5.47555E+03 -5.53324E+03 -8.92462E+02  1.07689E+03 -2.15292E+03  2.55955E+03 -5.46570E+03  4.60998E+03
 -1.12722E+04 -9.24616E+02 -1.19002E+04 -9.43642E+03 -4.76578E+03 -1.58143E+04  5.19260E+03 -1.26586E+04
  1.03509E+04 -5.41767E+03  7.19082E+03  3.17864E+03  1.75567E+02  4.81161E+03 -5.69202E+03 -4.12891E+02
 -5.69018E+03 -8.03662E+03 -8.46007E+02 -1.16506E+04  6.45154E+03 -1.23489E+04  1.51258E+04 -6.29593E+03
  1.79230E+04  1.46285E+03  1.29355E+04  1.03157E+04  2.61915E+03  1.41667E+04 -7.62577E+03  1.17276E+04
 -9.61834E+03  3.71949E+03 -5.04258E+03 -2.23153E+03  1.53163E+03 -3.15503E+03  6.76785E+03 -1.04558E+03
  6.12382E+03  5.22299E+03  1.38319E+03  9.56491E+03 -6.77602E+03  8.91850E+03 -1.17120E+04  2.36317E+03
 -7.70974E+03 -6.16310E+03  2.33775E+02 -1.01648E+04  6.40174E+03 -5.22846E+03  6.32285E+03  2.26587E+03
  1.27405E+03  6.60495E+03 -6.10465E+03  8.24266E+03 -8.92328E+03  4.04596E+03 -9.09172E+03 -2.92425E+03
 -5.23886E+03 -1.08887E+04  2.88512E+03 -1.24489E+04  1.05925E+04 -7.73908E+03  1.16073E+04  2.12672E+03
  7.68844E+03  9.35819E+03 -5.47804E+02  1.13996E+04 -8.36888E+03  6.62519E+03 -9.16843E+03 -6.98659E+02
 -8.10455E+03 -7.82344E+03 -1.56198E+03 -8.78669E+03  4.35880E+03 -7.30265E+03  5.35956E+03 -3.15126E+03
  3.70200E+03  1.28691E+03 -3.22041E+02  1.65144E+03  1.03984E+02 -1.88211E+03  1.36239E+03 -4.18579E+03
  7.67407E+03 -2.71848E+03  1.05505E+04  1.28063E+03  1.05579E+04  7.21435E+03  7.51733E+03  1.38954E+04
 -2.72046E+03  1.60656E+04 -1.37340E+04  1.20687E+04 -1.76456E+04  1.98948E+03 -1.39394E+04 -5.62983E+03
 -7.22059E+03 -1.14583E+04 -5.01140E+02 -9.43033E+03  3.75406E+03 -5.25229E+03  3.20680E+03 -3.64650E+03
  2.31969E+03 -2.32079E+03  3.00130E+03 -3.24073E+03  4.41184E+03 -2.39236E+03  5.68719E+03 -6.86747E+02
  7.53768E+03  2.08035E+03  3.25134E+03  6.12616E+03 -1.54165E+03  6.76410E+03 -7.73795E+03  5.45525E+03
 -9.94921E+03 -1.18376E+03 -5.37257E+03 -6.49297E+03 -3.20183E+02 -1.04297E+04  5.97689E+03 -1.03450E+04
  1.04622E+04 -5.47969E+03  1.29361E+04  1.33626E+03  9.04626E+03  8.87484E+03  1.34841E+03  1.13125E+04
 -4.74021E+03  9.85215E+03 -6.63386E+03  3.26332E+03 -4.48398E+03 -1.29922E+03 -1.61623E+03 -1.29445E+03
 -1.24798E+03 -1.33264E+02 -1.31747E+03  2.46714E+03 -4.36181E+03  1.48906E+03 -7.08662E+03 -9.82547E+02
 -4.10715E+03 -6.63360E+03  3.62391E+01 -9.52087E+03  5.41815E+03 -8.96417E+03  8.62989E+03 -2.71771E+03
  8.80150E+03  4.48670E+03  4.08795E+03  7.68510E+03 -1.75745E+03  8.88996E+03 -6.12448E+03  5.60696E+03
 -8.63953E+03  5.03089E+02 -6.75506E+03 -5.22328E+03 -6.96489E+02 -7.45273E+03  3.75470E+03 -5.41957E+03
  5.80921E+03 -1.47018E+03  3.92231E+03  1.57188E+03  1.23297E+03  2.99422E+03  9.88667E+02  1.12831E+03
  2.17942E+03  1.18134E+03  2.17777E+03  1.53910E+03  2.66355E+03  3.52610E+03  2.69540E+03  4.21290E+03
 -2.29693E+03  6.84651E+03 -5.95565E+03  7.90168E+03 -8.52574E+03  1.72464E+03 -9.30681E+03 -3.24007E+03
 -4.42381E+03 -8.74389E+03  1.52958E+03 -9.74726E+03  4.83769E+03 -6.02463E+03  7.37680E+03 -1.84039E+03
  5.79222E+03  3.56337E+03  1.01794E+03  4.95211E+03 -2.53801E+03  3.08132E+03 -3.21588E+03 -5.84462E+02
 -1.68676E+03 -3.95657E+03  2.21280E+03 -4.10978E+03  3.51607E+03 -2.20865E+03  3.46072E+03  8.06468E+02
  1.68566E+03  1.27125E+03  1.43227E+03  8.34920E+02 -5.62645E+02  1.50990E+03  1.72909E+03 -2.15557E+02
  8.31371E+02 -4.45964E+02  3.66414E+03  1.43476E+03  1.67811E+03  4.55620E+03 -7.23599E+02  6.25990E+03
 -4.16053E+03  3.16923E+03 -5.53729E+03  1.13268E+03 -5.01735E+03 -1.72427E+03 -1.17015E+03 -2.87036E+03
  9.10206E+02 -3.14028E+03  2.02782E+03 -1.51000E+03  1.81901E+03  2.01535E+03 -9.57240E+02  2.90039E+03
 -3.85740E+03  1.62090E+03 -3.71164E+03 -2.26214E+03 -2.42681E+03 -4.66542E+03  5.52687E+02 -4.46535E+03
  2.14763E+03 -2.34515E+03  2.92680E+03  8.26828E+01  2.82315E+03  1.00673E+03  3.46876E+02  2.63896E+03
 -1.17023E+03  5.56688E+02 -2.23355E+03 -1.39107E+03  6.52768E+02 -2.80031E+03  4.20390E+03 -2.38002E+03
  4.59744E+03  3.20312E+02  5.64242E+03  2.90967E+03  1.98176E+03  4.75209E+03 -1.43307E+03  5.14992E+03
 -4.16126E+03  2.04089E+03 -4.60959E+03 -7.59821E+02 -2.21423E+03 -3.46181E+03  8.13672E+02 -2.78625E+03
  3.49329E+03 -1.42024E+03  2.70111E+03  1.59441E+03  8.21041E+02  2.98723E+03 -3.14553E+02  2.95504E+03
 -1.38551E+03  1.58601E+03 -1.01892E+03  2.58619E+02 -4.48952E+02  8.05738E+02 -9.04976E+02  1.29411E+03
 -1.42081E+03  2.19759E+03 -3.71804E+03  1.65362E+03 -4.94100E+03  8.48559E-01 -5.60274E+03 -3.31520E+03
 -2.86052E+03 -6.74717E+03  1.19740E+03 -7.71216E+03  4.50628E+03 -6.02453E+03  7.66425E+03 -2.54938E+03
  6.81253E+03  8.89566E+02  4.36388E+03  4.34375E+03 -2.34328E+02  4.81086E+03 -2.18165E+03  3.59086E+03
 -2.61460E+03  1.44969E+03 -1.89394E+03 -3.27003E+02 -6.80657E+02 -3.05946E+02 -5.88575E+02  5.84516E+01
 -1.26444E+03  4.62704E+02 -1.10562E+03 -1.53011E+02 -1.25493E+02 -1.44758E+03 -1.27267E+02 -1.96195E+03
  2.67179E+03 -1.26791E+03  2.47830E+03 -1.05744E+02  3.82159E+03  2.78687E+03  5.29554E+02  4.85519E+03
 -2.43756E+03  6.23481E+03 -5.25343E+03  3.29926E+03 -5.89967E+03 -6.27657E+02 -4.20271E+03 -3.57005E+03
 -2.25517E+03 -4.72512E+03  1.42623E+03 -4.50135E+03  3.02021E+03 -2.19158E+03  3.04786E+03  1.29436E+01
  1.80032E+03  1.30460E+03  6.45586E+00  1.46102E+03 -7.46237E+02  1.77979E+02 -1.75564E+01 -8.74044E+02
  1.73396E+03 -3.29074E+02  1.53894E+03  8.23501E+02  1.06491E+03  1.85812E+03  3.24203E+02  2.44280E+03
 -2.19311E+03  1.99972E+03 -3.12207E+03  1.22726E+02 -2.72112E+03 -2.23117E+03 -3.42649E+02 -3.94890E+03
  1.85572E+03 -3.43099E+03  3.15134E+03 -1.10241E+03  3.42844E+03  4.18269E+02  1.95069E+03  2.78606E+03
  5.20159E+02  2.97709E+03 -9.67683E+02  2.49594E+03 -1.75408E+03  1.73747E+03 -1.36159E+03  3.51974E+02
 -1.19107E+03 -1.98639E+02 -8.31008E+02  3.78531E+02 -1.55546E+03  6.30171E+02 -2.44242E+03 -4.68447E+02
 -2.83011E+03 -8.93081E+02 -5.91585E+02 -2.89942E+03  1.66892E+03 -3.73052E+03  2.40213E+03 -1.33309E+03
  2.82972E+03  6.01393E+02  1.18021E+03  1.81051E+03 -1.22822E+02  2.88191E+03 -2.15976E+03  1.97336E+03
