 $NMID ID='MM_0lb_SNR800_10hz_g55_96.RAW', FMTDAT='(8E13.5)'
 TRAMP=1., VOLUME=1. $END
  3.09894E+05  1.29293E+02  3.38038E+05  2.50903E+05  8.48727E+04  3.38512E+05 -1.32626E+05  2.51747E+05
 -1.90811E+05  8.41889E+04 -1.12415E+05 -3.25899E+04 -7.52574E+01 -5.06674E+04  5.38894E+04 -7.82765E+02
  3.57682E+04  5.27733E+04 -1.70052E+04  7.61595E+04 -6.09398E+04  6.44754E+04 -8.54126E+04  3.25771E+04
 -8.23533E+04 -1.14144E+04 -5.81384E+04 -5.22663E+04 -1.53024E+04 -7.08716E+04  2.81690E+04 -4.68667E+04
  4.05493E+04  3.85025E+03  1.68994E+04  4.84306E+04 -3.49902E+04  4.80954E+04 -6.81493E+04  1.99231E+01
 -5.45604E+04 -5.78809E+04 -7.44468E+03 -7.90853E+04  3.47244E+04 -5.68027E+04  4.98639E+04 -1.81973E+04
  4.53190E+04  1.17657E+04  3.27212E+04  2.66321E+04  1.58991E+04  3.05082E+04 -5.68239E+03  2.76318E+04
 -2.22800E+04  1.19850E+04 -1.82506E+04 -5.63529E+03  6.70852E+03 -7.56060E+03  2.35118E+04  1.35290E+04
  6.66659E+03  3.73136E+04 -3.39992E+04  3.70214E+04 -6.55485E+04  2.62894E+03 -5.86493E+04 -4.45064E+04
 -1.29239E+04 -6.57894E+04  4.17453E+04 -4.73108E+04  6.08653E+04 -2.47757E+03  3.65050E+04  3.39830E+04
 -5.61813E+03  3.92030E+04 -3.21197E+04  1.87373E+04 -3.33818E+04 -3.76625E+03 -1.90575E+04 -1.21095E+04
 -9.64300E+03 -1.46121E+04 -5.08046E+02 -1.91794E+04  8.22666E+03 -2.33308E+04  1.58256E+04 -1.27818E+04
  1.08536E+04  6.15114E+03 -1.01856E+04  1.30611E+04 -2.34912E+04 -6.45359E+03 -8.99506E+03 -3.71696E+04
  2.46879E+04 -4.64454E+04  5.17215E+04 -2.05816E+04  4.85139E+04  2.08901E+04  1.70751E+04  4.71323E+04
 -1.70080E+04  3.61488E+04 -2.74256E+04  2.46948E+03 -1.13696E+04 -2.96476E+04  2.15742E+04 -3.64132E+04
  4.46528E+04 -1.09061E+04  3.99548E+04  2.50335E+04  2.11779E+04  5.07985E+04 -8.14421E+03  5.56832E+04
 -3.49580E+04  3.80480E+04 -4.73362E+04  1.05526E+04 -4.73757E+04 -1.83115E+04 -2.58082E+04 -4.13381E+04
  7.71634E+03 -4.17125E+04  3.40358E+04 -1.65231E+04  3.14713E+04  1.10333E+04  5.10499E+03  2.08852E+04
 -1.37567E+04  9.51281E+03 -1.13025E+04 -7.67026E+03  5.80146E+03 -1.14767E+04  1.86873E+04  5.26245E+03
  1.42538E+04  2.29012E+04 -5.01920E+03  2.69206E+04 -2.34467E+04  1.41700E+04 -3.13873E+04 -2.87920E+03
 -2.52325E+04 -1.85823E+04 -1.12869E+04 -2.45538E+04  4.26388E+03 -2.48058E+04  1.94561E+04 -2.23178E+04
  3.14469E+04 -1.43803E+04  3.71705E+04  5.12893E+03  2.66843E+04  2.43189E+04  4.31102E+03  4.07942E+04
 -1.97013E+04  3.34952E+04 -3.03374E+04  1.18492E+04 -2.23358E+04 -1.01546E+04 -4.86180E+03 -1.31695E+04
  4.55782E+02 -1.27518E+03 -7.79238E+03  8.21292E+03 -1.99373E+04  5.13041E+03 -1.95158E+04 -9.11099E+03
 -1.21192E+04 -2.30015E+04  6.16472E+03 -2.69251E+04  1.82844E+04 -1.93927E+04  2.23744E+04 -1.75179E+03
  1.43058E+04  1.60454E+04 -1.49710E+03  2.29465E+04 -1.65711E+04  1.34588E+04 -2.29221E+04 -4.84641E+03
 -1.67366E+04 -2.08213E+04 -2.09214E+03 -2.75169E+04  1.22842E+04 -2.25513E+04  2.29161E+04 -1.18564E+04
  2.16459E+04 -1.74606E+02  1.53737E+04  5.24045E+03  7.71548E+03  1.18926E+03  1.17980E+04 -2.05328E+03
  2.16234E+04  2.91962E+03  2.50290E+04  1.84575E+04  1.68724E+04  3.71160E+04 -2.61822E+03  4.31535E+04
 -2.50301E+04  3.60251E+04 -4.05810E+04  1.88785E+04 -4.34687E+04 -3.19399E+03 -3.51845E+04 -2.52012E+04
 -1.40867E+04 -3.59752E+04  1.28560E+04 -3.16482E+04  2.70860E+04 -1.46987E+04  2.38270E+04  7.59831E+03
  7.98794E+03  1.82615E+04 -1.09185E+04  1.52441E+04 -1.97178E+04  2.63333E+03 -1.50115E+04 -1.25335E+04
 -5.02965E+02 -1.89345E+04  1.03820E+04 -1.39773E+04  1.31094E+04 -9.35550E+02  3.17761E+03  8.65945E+03
 -8.90741E+03  4.31939E+03 -9.06312E+03 -7.17446E+03 -1.52199E+03 -1.77804E+04  1.12621E+04 -1.92935E+04
  2.25792E+04 -1.05685E+04  2.53133E+04  3.08156E+03  2.19067E+04  1.80084E+04  9.93093E+03  2.80657E+04
 -5.25144E+03  2.99022E+04 -1.93687E+04  1.86007E+04 -2.19652E+04  3.35863E+03 -1.48973E+04 -5.45739E+03
 -6.41391E+03 -6.89682E+03 -8.46535E+02  8.39406E+02 -2.86285E+03  3.52918E+03 -7.16459E+03  5.43551E+03
 -1.35322E+04 -8.02898E+02 -1.44111E+04 -1.17528E+04 -5.65915E+03 -1.86799E+04  6.37595E+03 -1.53070E+04
  1.23891E+04 -6.77719E+03  8.90958E+03  4.25381E+03 -3.62941E+02  5.85908E+03 -7.58506E+03 -4.52229E+01
 -7.34775E+03 -9.51869E+03 -1.08193E+03 -1.45505E+04  8.37487E+03 -1.61201E+04  1.95361E+04 -8.39414E+03
  2.25700E+04  2.75709E+03  1.64398E+04  1.37666E+04  3.12912E+03  1.78234E+04 -9.48240E+03  1.48593E+04
 -1.24236E+04  4.48166E+03 -6.10199E+03 -3.33483E+03  2.23739E+03 -4.67352E+03  7.85344E+03 -1.00879E+03
  7.10358E+03  6.79242E+03  9.19010E+02  1.21542E+04 -9.09415E+03  1.16532E+04 -1.47410E+04  3.03283E+03
 -1.02701E+04 -8.11392E+03  3.80965E+02 -1.29516E+04  7.94690E+03 -6.06665E+03  9.12809E+03  3.16716E+03
  2.20668E+03  9.55621E+03 -7.77234E+03  1.11264E+04 -1.26674E+04  5.14742E+03 -1.32675E+04 -4.48384E+03
 -7.88422E+03 -1.55025E+04  3.87687E+03 -1.68475E+04  1.42690E+04 -9.94976E+03  1.61008E+04  2.78469E+03
  9.36771E+03  1.24005E+04 -1.28994E+03  1.52443E+04 -1.08785E+04  8.21363E+03 -1.27495E+04 -1.66549E+03
 -1.00923E+04 -1.00209E+04 -1.66082E+03 -1.14863E+04  6.02533E+03 -9.22519E+03  7.20656E+03 -3.53526E+03
  5.00474E+03  1.93686E+03 -1.02554E+03  1.86883E+03 -9.14508E+02 -3.22839E+03  2.15377E+03 -7.15652E+03
  1.11762E+04 -4.42084E+03  1.56217E+04  1.52325E+03  1.46918E+04  1.04899E+04  9.58806E+03  1.97617E+04
 -4.58878E+03  2.28393E+04 -1.86332E+04  1.65301E+04 -2.35981E+04  3.03424E+03 -1.94771E+04 -8.16896E+03
 -1.00788E+04 -1.60399E+04 -4.65319E+01 -1.36338E+04  4.97723E+03 -7.84982E+03  4.67628E+03 -5.22811E+03
  3.60306E+03 -2.78994E+03  3.99708E+03 -3.63374E+03  6.21730E+03 -3.51276E+03  7.49349E+03 -1.07587E+03
  1.00987E+04  2.13837E+03  5.60309E+03  8.70960E+03 -1.84439E+03  1.04999E+04 -1.08191E+04  7.67025E+03
 -1.40309E+04 -8.82839E+02 -8.56503E+03 -9.61220E+03 -1.06698E+03 -1.48689E+04  7.83337E+03 -1.48939E+04
  1.55918E+04 -8.43135E+03  1.83847E+04  2.28343E+03  1.26383E+04  1.28747E+04  2.05721E+03  1.63900E+04
 -6.64278E+03  1.33750E+04 -9.71838E+03  4.63638E+03 -6.62767E+03 -1.97329E+03 -2.59760E+03 -2.10980E+03
 -1.39720E+03 -1.33453E+02 -1.65206E+03  2.68556E+03 -5.68697E+03  2.50973E+03 -1.00352E+04 -1.08680E+03
 -6.93566E+03 -9.58579E+03  2.73452E+02 -1.37899E+04  8.62460E+03 -1.26837E+04  1.35596E+04 -3.70080E+03
  1.34662E+04  6.23963E+03  6.11476E+03  1.25269E+04 -2.75693E+03  1.40032E+04 -9.87092E+03  8.77101E+03
 -1.28728E+04  5.76502E+02 -1.01860E+04 -8.33045E+03 -1.20420E+03 -1.17294E+04  5.65644E+03 -8.04639E+03
  8.71248E+03 -2.71083E+03  5.59358E+03  2.40691E+03  2.09783E+03  3.86460E+03  1.21985E+03  1.99838E+03
  2.46162E+03  9.63543E+02  3.15792E+03  1.89110E+03  4.29176E+03  4.79539E+03  3.44462E+03  7.41939E+03
 -3.06977E+03  1.09266E+04 -9.30253E+03  1.06363E+04 -1.37905E+04  2.68205E+03 -1.46689E+04 -5.72497E+03
 -7.10067E+03 -1.36336E+04  2.17219E+03 -1.49481E+04  8.70405E+03 -9.35173E+03  1.12634E+04 -2.89102E+03
  8.71470E+03  5.31649E+03  1.74000E+03  7.90638E+03 -3.81460E+03  5.55890E+03 -5.31009E+03 -1.02367E+03
 -2.79251E+03 -5.86054E+03  3.16041E+03 -5.99848E+03  5.81035E+03 -2.67789E+03  4.80425E+03  1.34690E+03
  3.30811E+03  2.41810E+03  1.52825E+03  2.25853E+03 -5.42758E+02  1.67389E+03  1.75524E+03 -2.33116E+02
  1.63316E+03 -9.11509E+02  6.07669E+03  2.31841E+03  3.29154E+03  7.38032E+03 -9.61836E+02  9.59700E+03
 -6.40740E+03  6.61687E+03 -8.82043E+03  1.89448E+03 -7.72361E+03 -2.67665E+03 -3.22497E+03 -5.35065E+03
  4.37636E+02 -5.55333E+03  3.94720E+03 -2.36784E+03  2.88335E+03  2.76823E+03 -1.22786E+03  4.65727E+03
 -5.56317E+03  3.09943E+03 -6.48344E+03 -3.21800E+03 -3.81482E+03 -7.47044E+03  1.24214E+03 -7.58459E+03
  4.51503E+03 -4.47908E+03  5.37452E+03 -5.19450E+02  4.36774E+03  1.49815E+03  7.04167E+02  4.23721E+03
 -2.30904E+03  9.96138E+02 -3.57552E+03 -2.42039E+03  1.48696E+03 -5.59095E+03  6.47158E+03 -4.63313E+03
  8.81987E+03  7.78353E+02  8.34255E+03  5.88039E+03  2.28228E+03  8.93619E+03 -3.54984E+03  8.97153E+03
 -7.11497E+03  3.58431E+03 -7.57911E+03 -1.36145E+03 -3.86876E+03 -5.90733E+03  1.59686E+03 -5.19818E+03
  5.20722E+03 -2.40300E+03  4.88560E+03  2.38241E+03  1.57499E+03  4.95871E+03 -6.67399E+02  4.59109E+03
 -2.32370E+03  3.09352E+03 -2.38708E+03  8.86367E+02 -8.62269E+02  1.01768E+03 -1.41739E+03  1.58470E+03
 -2.32281E+03  3.46326E+03 -6.27960E+03  3.10426E+03 -9.08980E+03 -5.68841E+00 -1.03495E+04 -5.54538E+03
 -5.44259E+03 -1.17779E+04  2.55494E+03 -1.37905E+04  8.14812E+03 -1.04183E+04  1.25105E+04 -3.69871E+03
  1.19039E+04  2.21320E+03  7.51230E+03  8.17294E+03  6.03197E+02  9.16879E+03 -3.78442E+03  6.39566E+03
 -5.55608E+03  2.73987E+03 -3.01185E+03 -1.18346E+03 -9.97741E+02 -1.08396E+03 -5.14393E+02  3.09223E+02
 -1.85727E+03  1.43308E+02 -2.11761E+03 -3.40321E+02 -5.65493E+02 -2.01506E+03  2.99137E+02 -3.23055E+03
  4.06916E+03 -2.86844E+03  5.40104E+03 -1.51362E+02  6.57750E+03  4.54378E+03  1.49337E+03  8.83130E+03
 -4.06934E+03  1.08626E+04 -9.55353E+03  6.33807E+03 -1.08151E+04 -1.00760E+03 -8.16464E+03 -6.66922E+03
 -3.16859E+03 -9.58571E+03  2.21366E+03 -8.63166E+03  5.80170E+03 -4.76051E+03  5.87812E+03  4.58208E+02
  3.18181E+03  2.83219E+03 -3.12001E+02  2.34139E+03 -1.81065E+03 -2.42686E+02 -2.87254E+01 -2.35064E+03
  2.65754E+03 -1.01526E+03  3.66140E+03  1.16764E+03  2.39045E+03  3.52523E+03  3.25707E+01  4.58651E+03
 -3.58572E+03  4.23604E+03 -6.04126E+03  2.75164E+02 -5.48460E+03 -3.92362E+03 -6.35014E+02 -7.73439E+03
  4.04632E+03 -6.60165E+03  6.85107E+03 -1.80458E+03  6.90574E+03  1.69395E+03  3.66827E+03  5.51508E+03
  1.03031E+03  5.96043E+03 -2.25803E+03  5.14245E+03 -3.90396E+03  2.48622E+03 -3.08777E+03  5.91362E+02
 -1.88000E+03 -3.37392E+02 -1.83702E+03  6.12328E+02 -3.38652E+03  7.53685E+02 -4.43901E+03 -8.49978E+02
 -4.53252E+03 -2.85152E+03 -1.70055E+03 -5.92327E+03  2.97856E+03 -6.19803E+03  5.37250E+03 -3.03696E+03
  5.96517E+03  5.21343E+02  3.34376E+03  4.01324E+03 -4.56451E+02  6.19496E+03 -4.32693E+03  3.69813E+03
