 $NMID ID='MM_0lb_SNR800_16hz_g40_61.RAW', FMTDAT='(8E13.5)'
 TRAMP=1., VOLUME=1. $END
  3.09645E+05  3.33947E+02  3.37243E+05  2.50411E+05  8.42208E+04  3.37661E+05 -1.32561E+05  2.50492E+05
 -1.89840E+05  8.29547E+04 -1.11317E+05 -3.28064E+04  1.33379E+03 -5.02856E+04  5.38823E+04  1.24950E+02
  3.53004E+04  5.26940E+04 -1.69102E+04  7.49833E+04 -6.07588E+04  6.31591E+04 -8.31038E+04  3.20939E+04
 -7.99574E+04 -1.12139E+04 -5.65603E+04 -5.05971E+04 -1.50077E+04 -6.84935E+04  2.70207E+04 -4.50175E+04
  3.92888E+04  4.10498E+03  1.57994E+04  4.74927E+04 -3.40934E+04  4.69093E+04 -6.57219E+04 -2.71106E+02
 -5.22238E+04 -5.61266E+04 -6.56312E+03 -7.55537E+04  3.36550E+04 -5.35174E+04  4.67068E+04 -1.67892E+04
  4.20336E+04  1.10643E+04  3.10883E+04  2.45881E+04  1.58482E+04  2.85312E+04 -4.67817E+03  2.69028E+04
 -2.18136E+04  1.23890E+04 -1.90514E+04 -4.41963E+03  4.52872E+03 -7.39855E+03  2.14734E+04  1.12546E+04
  7.20600E+03  3.36934E+04 -3.08231E+04  3.44786E+04 -6.14607E+04  1.85836E+03 -5.60971E+04 -4.15082E+04
 -1.22510E+04 -6.14657E+04  3.85323E+04 -4.38381E+04  5.62265E+04 -2.02942E+03  3.26752E+04  3.09197E+04
 -6.30699E+03  3.39439E+04 -2.86575E+04  1.42705E+04 -2.82819E+04 -5.27984E+03 -1.50898E+04 -1.01527E+04
 -7.89035E+03 -1.19708E+04 -1.12852E+03 -1.70095E+04  6.87432E+03 -2.27481E+04  1.53028E+04 -1.36097E+04
  1.20120E+04  4.42803E+03 -6.84501E+03  1.31100E+04 -2.00645E+04 -2.91490E+03 -8.14285E+03 -3.15529E+04
  2.12840E+04 -4.13743E+04  4.60604E+04 -1.90318E+04  4.30343E+04  1.85294E+04  1.47963E+04  4.25590E+04
 -1.56460E+04  3.14390E+04 -2.38626E+04  1.42095E+03 -8.69234E+03 -2.70201E+04  2.05084E+04 -3.19998E+04
  3.89240E+04 -8.10870E+03  3.28989E+04  2.30958E+04  1.64216E+04  4.38609E+04 -7.96720E+03  4.69720E+04
 -2.93817E+04  3.12977E+04 -3.90172E+04  8.55729E+03 -3.95745E+04 -1.53755E+04 -2.20546E+04 -3.54654E+04
  6.84753E+03 -3.53614E+04  2.99986E+04 -1.34458E+04  2.75712E+04  1.09338E+04  2.89821E+03  1.81406E+04
 -1.33048E+04  7.63766E+03 -9.94799E+03 -7.94005E+03  5.48897E+03 -1.01476E+04  1.74076E+04  6.41815E+03
  1.27025E+04  2.16146E+04 -6.39192E+03  2.37955E+04 -2.18091E+04  9.84948E+03 -2.59714E+04 -5.83190E+03
 -1.83067E+04 -1.65572E+04 -6.65192E+03 -1.78078E+04  3.85306E+03 -1.60456E+04  1.36492E+04 -1.56641E+04
  2.29878E+04 -1.19884E+04  2.97410E+04  1.55817E+03  2.21100E+04  1.74694E+04  4.12049E+03  3.35491E+04
 -1.62414E+04  2.87429E+04 -2.64978E+04  9.97922E+03 -2.02485E+04 -1.01971E+04 -4.15585E+03 -1.37853E+04
  2.36085E+03 -3.77191E+03 -3.49881E+03  5.97658E+03 -1.42376E+04  4.95578E+03 -1.46155E+04 -5.46684E+03
 -9.06216E+03 -1.68601E+04  4.96303E+03 -2.06568E+04  1.33124E+04 -1.50271E+04  1.59274E+04 -1.56658E+03
  9.59539E+03  1.15676E+04 -1.03782E+03  1.67332E+04 -1.09952E+04  9.49652E+03 -1.68272E+04 -3.60938E+03
 -1.24024E+04 -1.52240E+04 -1.34104E+03 -2.03343E+04  9.00573E+03 -1.63419E+04  1.72828E+04 -7.85296E+03
  1.57728E+04  4.52562E+02  1.15365E+04  4.06093E+03  5.72846E+03  6.34863E+02  8.36827E+03 -1.39637E+03
  1.52010E+04  2.95800E+03  1.64758E+04  1.36891E+04  1.04129E+04  2.68366E+04 -3.09119E+03  2.91816E+04
 -1.72145E+04  2.27062E+04 -2.69976E+04  1.11301E+04 -2.80367E+04 -2.33153E+03 -2.36248E+04 -1.61884E+04
 -1.07612E+04 -2.30188E+04  7.92118E+03 -2.11181E+04  1.83119E+04 -1.16039E+04  1.68490E+04  4.23974E+03
  6.58222E+03  1.24759E+04 -7.86620E+03  1.11368E+04 -1.40948E+04  2.69123E+03 -1.11179E+04 -8.73181E+03
 -1.52408E+02 -1.34456E+04  6.64985E+03 -1.01387E+04  8.46705E+03 -1.07024E+03  1.67219E+03  5.50787E+03
 -5.90988E+03  1.44517E+03 -4.60951E+03 -5.06749E+03  4.48577E+02 -1.14657E+04  8.88038E+03 -1.13430E+04
  1.36699E+04 -5.51944E+03  1.43042E+04  2.90057E+03  1.22812E+04  1.05995E+04  5.93111E+03  1.62721E+04
 -2.35676E+03  1.82483E+04 -1.10622E+04  1.14411E+04 -1.29914E+04  3.23663E+03 -9.16060E+03 -2.41578E+03
 -4.73362E+03 -4.08393E+03 -6.74305E+02  1.55125E+03 -2.08413E+03  2.35918E+03 -4.05444E+03  3.89640E+03
 -8.87141E+03 -7.02425E+02 -9.47476E+03 -7.93412E+03 -4.22142E+03 -1.23782E+04  4.04911E+03 -9.63308E+03
  7.94885E+03 -4.21421E+03  5.76107E+03  2.35871E+03  4.06058E+02  3.38812E+03 -4.27581E+03 -6.88387E+01
 -4.23518E+03 -5.84973E+03 -9.03686E+02 -8.24615E+03  4.73442E+03 -9.32536E+03  1.14191E+04 -4.42610E+03
  1.32232E+04  6.30821E+02  1.02347E+04  7.42593E+03  2.11660E+03  9.98090E+03 -5.93736E+03  9.08961E+03
 -8.23071E+03  3.15055E+03 -4.19882E+03 -1.64871E+03  1.47709E+03 -2.47384E+03  5.62228E+03 -7.19175E+02
  4.48846E+03  3.65285E+03  1.07339E+03  7.15432E+03 -5.33462E+03  7.14714E+03 -8.84651E+03  1.87682E+03
 -5.60387E+03 -4.29286E+03  4.26802E+02 -7.73280E+03  4.25878E+03 -3.74890E+03  4.36816E+03  1.17398E+03
  7.11542E+02  4.38690E+03 -4.45100E+03  5.51921E+03 -6.05467E+03  2.64015E+03 -5.93791E+03 -1.57234E+03
 -3.48617E+03 -7.73564E+03  1.73824E+03 -8.48705E+03  7.36978E+03 -5.60397E+03  7.66288E+03  1.27139E+03
  5.52628E+03  6.42483E+03 -2.84820E+02  8.42465E+03 -5.94354E+03  4.67726E+03 -6.32678E+03 -4.24576E+02
 -6.44187E+03 -5.95661E+03 -1.47206E+03 -5.90465E+03  3.37722E+03 -5.59304E+03  3.59301E+03 -2.85578E+03
  3.10071E+03  4.07587E+02 -3.57835E+01  1.51056E+03  5.90084E+02 -8.35604E+02  4.53276E+02 -2.52068E+03
  4.96230E+03 -1.47039E+03  6.97434E+03  9.82765E+02  7.09980E+03  4.19654E+03  6.00321E+03  9.49799E+03
 -1.57565E+03  1.05166E+04 -9.37132E+03  8.04142E+03 -1.21845E+04  1.66774E+03 -9.79805E+03 -3.41960E+03
 -5.14636E+03 -7.99292E+03 -2.15728E+02 -6.71404E+03  2.60255E+03 -2.94819E+03  2.04163E+03 -2.50247E+03
  1.53372E+03 -1.70430E+03  2.20966E+03 -2.65265E+03  3.66341E+03 -1.60881E+03  4.19254E+03  3.54670E+02
  5.77010E+03  1.24523E+03  1.53371E+03  4.36601E+03 -1.61383E+03  4.22831E+03 -5.49888E+03  3.31688E+03
 -6.10756E+03 -1.20395E+03 -2.91560E+03 -4.51544E+03 -9.87473E+01 -6.34839E+03  3.79333E+03 -6.96788E+03
  6.86149E+03 -3.86456E+03  8.89048E+03  8.44991E+02  6.24325E+03  5.53674E+03  1.40154E+03  7.63801E+03
 -2.60806E+03  7.16259E+03 -4.07945E+03  2.29619E+03 -2.66209E+03 -1.12231E+03 -7.22554E+02 -5.93554E+02
 -8.01578E+02  3.48956E+02 -9.93488E+02  2.25043E+03 -3.01249E+03  1.37933E+03 -4.97771E+03 -7.82026E+02
 -2.60441E+03 -4.78422E+03  8.47538E+02 -6.19092E+03  3.78999E+03 -5.95659E+03  5.00023E+03 -1.28899E+03
  5.70263E+03  2.89352E+03  2.44910E+03  4.91001E+03 -9.92716E+02  5.91003E+03 -4.13791E+03  3.58189E+03
 -5.43734E+03  5.99815E+02 -4.28272E+03 -3.12538E+03 -6.58430E+02 -4.65033E+03  2.29245E+03 -3.18501E+03
  3.70615E+03 -1.44711E+03  2.45295E+03  8.14667E+02  4.32957E+02  2.15251E+03  1.00182E+03  8.19862E+02
  1.75189E+03  3.54998E+02  1.38306E+03  9.24215E+02  1.55947E+03  2.56309E+03  1.44292E+03  2.22143E+03
 -1.43871E+03  4.26508E+03 -3.56817E+03  4.82339E+03 -4.79899E+03  1.41219E+03 -5.71209E+03 -1.26650E+03
 -2.34637E+03 -5.29990E+03  9.84989E+02 -6.37123E+03  3.05989E+03 -3.71534E+03  4.54579E+03 -1.31228E+03
  3.63127E+03  2.15236E+03  6.05077E+02  3.16663E+03 -1.16742E+03  1.70006E+03 -1.88937E+03 -5.20912E+02
 -1.17471E+03 -2.20588E+03  1.41955E+03 -2.03616E+03  2.16946E+03 -1.22452E+03  2.01221E+03  5.48426E+02
  1.39129E+03  8.01685E+02  7.61449E+02  1.72954E+02 -2.80491E+02  9.30701E+02  1.63647E+03 -2.29278E+02
  3.39813E+02 -3.28698E+02  2.34767E+03  7.60798E+02  5.05867E+02  3.10131E+03 -2.22102E+02  3.88722E+03
 -2.32534E+03  1.93326E+03 -3.01605E+03  8.87329E+02 -2.99903E+03 -1.03725E+03 -5.09902E+02 -1.43954E+03
  4.81406E+02 -1.64631E+03  1.25097E+03 -1.15681E+03  1.08789E+03  1.26248E+03 -7.81568E+02  1.86736E+03
 -2.07076E+03  1.14498E+03 -1.61671E+03 -1.48297E+03 -1.02949E+03 -3.09328E+03  2.59089E+02 -2.34381E+03
  8.89845E+02 -1.02738E+03  1.51848E+03  9.65792E+01  1.86771E+03  1.63262E+02  5.02983E+02  1.68506E+03
 -7.76215E+02 -1.06447E+02 -1.66714E+03 -9.06429E+02  9.29172E+02 -1.42287E+03  2.75901E+03 -1.35340E+03
  2.37811E+03  4.44551E+02  3.79052E+03  1.53487E+03  1.44403E+03  2.77835E+03 -7.32081E+02  2.59257E+03
 -2.48844E+03  7.07782E+02 -2.34620E+03 -3.66420E+02 -1.37250E+03 -1.75277E+03  7.90344E+02 -1.19970E+03
  1.89131E+03 -7.42124E+02  1.57757E+03  9.08233E+02  2.11349E+02  2.03035E+03  5.78677E+01  1.68730E+03
 -7.83177E+02  1.33477E+03 -8.22743E+02  3.48752E+02 -1.12796E+02  4.10861E+02 -1.13403E+03  7.90045E+02
 -7.29047E+02  1.54823E+03 -2.75173E+03  7.24022E+02 -2.84949E+03  2.67292E+02 -3.60383E+03 -1.80146E+03
 -1.43840E+03 -3.72620E+03  5.96346E+02 -4.28894E+03  1.96655E+03 -3.84879E+03  4.26405E+03 -1.77926E+03
  3.85738E+03  2.08333E+02  1.89291E+03  2.05637E+03 -5.58033E+02  2.63636E+03 -1.14057E+03  2.09793E+03
 -1.54755E+03  1.23069E+03 -1.01247E+03 -1.87575E+02 -5.12359E+02  9.64614E+01 -1.11737E+03 -9.29935E+01
 -9.71421E+02 -9.21274E+01 -1.20161E+03  2.65397E+02  8.99654E+01 -7.01495E+02 -3.54207E+02 -1.22977E+03
  1.48887E+03 -1.10417E+03  1.03912E+03  2.99844E+02  1.92283E+03  1.96837E+03 -7.34988E+01  2.44238E+03
 -1.35017E+03  3.29432E+03 -2.64424E+03  2.06440E+03 -2.81707E+03  1.12559E+02 -1.84252E+03 -2.24615E+03
 -1.26258E+03 -2.53656E+03  5.42023E+02 -2.06027E+03  1.48715E+03 -1.27073E+03  1.81622E+03  3.27829E+02
  9.79042E+02  8.16841E+02 -5.27178E+01  6.77855E+02 -4.07716E+02  5.99653E+01 -2.18271E+01 -4.47444E+02
  9.02969E+02  3.42023E+01  8.36892E+02  4.12204E+02  5.54886E+02  1.01378E+03  7.73012E+01  8.81592E+02
 -1.12417E+03  7.81086E+02 -1.40914E+03  7.82042E+01 -1.25958E+03 -7.10919E+02 -7.24515E+01 -2.11876E+03
  8.84351E+02 -1.61116E+03  1.55070E+03 -3.03623E+02  1.74530E+03 -1.17806E+02  9.90466E+02  1.26049E+03
  5.92788E+02  1.36938E+03 -7.23509E+02  9.03258E+02 -8.98615E+02  8.09478E+02 -9.61992E+02  2.48130E+02
 -4.87905E+02 -2.47605E+02 -6.48930E+02  4.56167E+02 -1.08571E+03  1.83080E+02 -1.05682E+03 -2.00400E+02
 -1.45257E+03 -2.66900E+02 -5.27434E+02 -1.53484E+03  8.06038E+02 -2.32995E+03  1.39643E+03 -4.83792E+02
  1.65296E+03  1.76743E+02  3.10186E+02  3.25575E+02 -2.94621E+01  1.53001E+03 -1.02880E+03  1.15657E+03
