 $NMID ID='MM_0lb_SNR800_20hz_g50_60.RAW', FMTDAT='(8E13.5)'
 TRAMP=1., VOLUME=1. $END
  3.09816E+05 -1.59518E+02  3.37273E+05  2.50372E+05  8.45926E+04  3.37443E+05 -1.32661E+05  2.50344E+05
 -1.89756E+05  8.23062E+04 -1.10794E+05 -3.27471E+04  1.47293E+03 -5.02153E+04  5.39917E+04  1.35338E+02
  3.51237E+04  5.27325E+04 -1.69170E+04  7.48357E+04 -6.02564E+04  6.24372E+04 -8.29237E+04  3.11922E+04
 -7.96766E+04 -1.10867E+04 -5.60457E+04 -5.01377E+04 -1.47880E+04 -6.77724E+04  2.66332E+04 -4.46203E+04
  3.88650E+04  3.89763E+03  1.53781E+04  4.69756E+04 -3.39500E+04  4.61216E+04 -6.50021E+04 -6.67628E+02
 -5.18858E+04 -5.56821E+04 -6.14114E+03 -7.49953E+04  3.26640E+04 -5.29361E+04  4.59481E+04 -1.63029E+04
  4.14520E+04  1.07508E+04  3.04428E+04  2.42312E+04  1.58151E+04  2.80469E+04 -4.36006E+03  2.69388E+04
 -2.16472E+04  1.28188E+04 -1.93686E+04 -4.21311E+03  3.99709E+03 -7.65440E+03  2.12809E+04  1.08242E+04
  8.00714E+03  3.34267E+04 -3.02596E+04  3.39261E+04 -6.08855E+04  2.01544E+03 -5.53044E+04 -4.08552E+04
 -1.23173E+04 -6.05336E+04  3.80196E+04 -4.31417E+04  5.49235E+04 -1.98410E+03  3.15962E+04  3.02646E+04
 -6.62704E+03  3.26826E+04 -2.84010E+04  1.28575E+04 -2.74487E+04 -5.40234E+03 -1.41951E+04 -1.00323E+04
 -7.12352E+03 -1.12192E+04 -1.03361E+03 -1.62772E+04  6.38461E+03 -2.23532E+04  1.50243E+04 -1.40874E+04
  1.23364E+04  3.96659E+03 -5.86949E+03  1.32295E+04 -1.88908E+04 -2.16511E+03 -7.99161E+03 -2.96187E+04
  2.05203E+04 -4.03437E+04  4.42385E+04 -1.83668E+04  4.15369E+04  1.80309E+04  1.40516E+04  4.11625E+04
 -1.53901E+04  3.06575E+04 -2.30663E+04  1.08802E+03 -7.76611E+03 -2.60616E+04  2.05672E+04 -3.04970E+04
  3.75715E+04 -7.20748E+03  3.05321E+04  2.25093E+04  1.49416E+04  4.19204E+04 -7.78019E+03  4.44310E+04
 -2.79590E+04  2.92237E+04 -3.65976E+04  8.13572E+03 -3.76107E+04 -1.45527E+04 -2.10879E+04 -3.39791E+04
  6.83154E+03 -3.35991E+04  2.88665E+04 -1.24546E+04  2.65678E+04  1.09021E+04  2.92247E+03  1.79811E+04
 -1.30811E+04  7.20973E+03 -9.61821E+03 -7.52637E+03  5.74695E+03 -1.00189E+04  1.70365E+04  6.74034E+03
  1.21566E+04  2.15727E+04 -6.64287E+03  2.30228E+04 -2.12668E+04  8.66961E+03 -2.44139E+04 -6.59334E+03
 -1.58621E+04 -1.62187E+04 -5.37934E+03 -1.60917E+04  3.87619E+03 -1.40468E+04  1.16299E+04 -1.38191E+04
  2.01766E+04 -1.13624E+04  2.71361E+04  7.04357E+02  2.06490E+04  1.56580E+04  3.98243E+03  3.16990E+04
 -1.58809E+04  2.69585E+04 -2.53949E+04  9.28553E+03 -1.95036E+04 -1.02104E+04 -3.97082E+03 -1.41113E+04
  2.89115E+03 -4.43720E+03 -2.20958E+03  5.09772E+03 -1.20597E+04  5.01902E+03 -1.27534E+04 -4.42543E+03
 -8.23240E+03 -1.49771E+04  4.29729E+03 -1.88283E+04  1.19960E+04 -1.32716E+04  1.38408E+04 -1.48291E+03
  8.47489E+03  1.02479E+04 -8.63906E+02  1.52472E+04 -9.69127E+03  8.21478E+03 -1.48050E+04 -3.21530E+03
 -1.10444E+04 -1.35959E+04 -1.36796E+03 -1.83974E+04  8.24974E+03 -1.46686E+04  1.57505E+04 -6.59582E+03
  1.37148E+04  1.13360E+03  9.76620E+03  3.71162E+03  4.85436E+03  4.68557E+02  7.00286E+03 -1.26565E+03
  1.31214E+04  2.49632E+03  1.37921E+04  1.23583E+04  8.29432E+03  2.36720E+04 -3.33336E+03  2.49581E+04
 -1.47225E+04  1.87407E+04 -2.30945E+04  8.81893E+03 -2.32842E+04 -1.74165E+03 -2.01456E+04 -1.31582E+04
 -9.43080E+03 -1.90049E+04  6.01102E+03 -1.79582E+04  1.57809E+04 -1.04283E+04  1.47590E+04  3.19369E+03
  6.32336E+03  1.05220E+04 -6.47408E+03  9.90435E+03 -1.27015E+04  2.52331E+03 -1.00146E+04 -7.53295E+03
 -2.47047E+02 -1.16627E+04  5.67542E+03 -8.85426E+03  7.29889E+03 -1.36121E+03  1.26942E+03  4.92453E+03
 -5.26681E+03  1.30706E+03 -3.29858E+03 -4.10716E+03  6.70920E+02 -9.38859E+03  7.45859E+03 -9.03600E+03
  1.11324E+04 -4.07070E+03  1.04867E+04  2.68126E+03  9.21402E+03  8.82481E+03  4.56117E+03  1.28418E+04
 -1.19281E+03  1.44962E+04 -8.75106E+03  9.26759E+03 -1.01882E+04  2.73763E+03 -7.84637E+03 -1.78403E+03
 -4.30456E+03 -2.92367E+03 -7.51257E+02  1.84480E+03 -2.04002E+03  1.70520E+03 -3.18656E+03  3.23794E+03
 -7.20195E+03 -4.92940E+02 -8.51358E+03 -6.69329E+03 -3.19418E+03 -1.09849E+04  3.56089E+03 -7.85581E+03
  6.66676E+03 -3.47310E+03  5.20354E+03  1.99439E+03  3.59549E+02  2.51064E+03 -2.89161E+03 -1.60735E+02
 -2.90435E+03 -4.58242E+03 -7.59453E+02 -6.45851E+03  3.47866E+03 -7.04403E+03  8.89240E+03 -3.59309E+03
  1.07111E+04  4.74196E+02  7.96019E+03  5.42745E+03  1.55229E+03  7.58608E+03 -5.10753E+03  7.48744E+03
 -6.25624E+03  2.55544E+03 -3.11865E+03 -9.88591E+02  1.19532E+03 -1.77328E+03  4.45498E+03 -9.27243E+02
  3.73979E+03  3.04786E+03  9.98381E+02  6.14178E+03 -4.00306E+03  6.03783E+03 -7.29595E+03  1.82786E+03
 -4.31615E+03 -3.19472E+03  2.92190E+02 -6.00925E+03  3.30596E+03 -2.94227E+03  3.02524E+03  1.17822E+03
  3.86269E+02  2.81790E+03 -3.40474E+03  3.94198E+03 -4.18164E+03  2.24161E+03 -4.13499E+03 -8.89926E+02
 -2.55146E+03 -5.32385E+03  1.05492E+03 -6.06945E+03  5.03220E+03 -4.19705E+03  5.88121E+03  5.79418E+02
  4.02412E+03  4.73221E+03  3.50988E+02  6.48841E+03 -4.39388E+03  3.39493E+03 -4.58684E+03 -2.18904E+02
 -5.40041E+03 -4.25462E+03 -1.31279E+03 -4.37996E+03  2.30976E+03 -3.91039E+03  2.35236E+03 -2.99232E+03
  2.75151E+03  2.07947E+01  3.12438E+02  1.12749E+03  4.85806E+02  1.45071E+02 -2.00882E+01 -1.46990E+03
  3.11726E+03 -6.21512E+02  4.33146E+03  7.35958E+02  4.83068E+03  2.60464E+03  4.73299E+03  6.09011E+03
 -8.37954E+02  7.14362E+03 -6.75726E+03  5.54109E+03 -8.60095E+03  8.19908E+02 -6.42401E+03 -2.08691E+03
 -3.64906E+03 -5.76275E+03 -2.98004E+02 -4.35206E+03  1.76248E+03 -1.69377E+03  1.22956E+03 -1.70078E+03
  9.73656E+02 -9.89633E+02  1.99151E+03 -2.28818E+03  3.19299E+03 -1.31446E+03  3.36009E+03  6.44773E+02
  3.96582E+03  7.41944E+02  8.80534E+02  2.82224E+03 -1.48149E+03  2.04574E+03 -3.44235E+03  2.23931E+03
 -4.10623E+03 -1.20802E+03 -1.18157E+03 -2.72353E+03  5.41575E+02 -4.15291E+03  2.78468E+03 -4.77672E+03
  4.03337E+03 -2.81960E+03  5.62942E+03 -1.50969E+02  4.35759E+03  3.36303E+03  1.25465E+03  4.98346E+03
 -1.80769E+03  5.05344E+03 -2.62708E+03  1.51411E+03 -1.59868E+03 -1.10576E+03 -2.62187E+02 -6.51101E+02
 -3.64933E+02  2.72737E+02 -7.58836E+02  1.92042E+03 -2.38396E+03  6.86071E+02 -3.31570E+03 -1.96981E+02
 -7.54096E+02 -3.71995E+03  8.31290E+02 -3.82540E+03  2.32098E+03 -3.77104E+03  2.55880E+03 -1.04962E+03
  3.24778E+03  2.07293E+03  1.32445E+03  2.68581E+03 -4.95462E+02  3.74974E+03 -2.13506E+03  2.06260E+03
 -2.96894E+03  5.50689E+02 -2.79607E+03 -1.87498E+03 -1.60527E+02 -2.14236E+03  1.11687E+03 -2.05010E+03
  2.02117E+03 -1.22613E+03  1.58406E+03  4.70448E+02  2.21993E+02  1.44586E+03  7.93719E+02  3.66768E+02
  1.51827E+03  7.17218E+02  9.82779E+02  1.08451E+03  6.94000E+02  1.76258E+03  1.28736E+03  1.37466E+03
 -1.42341E+03  2.02950E+03 -1.78955E+03  3.57867E+03 -2.02413E+03  1.03776E+03 -3.23397E+03 -6.96255E+01
 -1.23544E+03 -2.59412E+03  4.83183E+02 -3.58994E+03  1.53516E+03 -1.80910E+03  2.19593E+03 -8.40698E+02
  1.91108E+03  1.57721E+03  4.68834E+02  1.67477E+03 -5.32405E+02  8.75841E+02 -6.55379E+02 -1.56666E+02
 -4.91939E+02 -1.35201E+03  1.14668E+03 -1.19752E+03  1.15377E+03 -8.82712E+02  9.24686E+02  1.49463E+02
  9.14235E+02  4.11863E+02  6.39238E+02 -4.83240E+02 -3.59452E+02  6.57086E+02  1.70384E+03 -1.27787E+02
 -3.60609E+00 -1.93821E+02  1.51558E+03  6.53209E+02 -2.09803E+01  1.92342E+03 -1.27871E+02  2.47103E+03
 -1.33564E+03  3.88045E+02 -1.27737E+03  3.85488E+02 -1.63758E+03 -6.16463E+02 -4.96221E+01 -9.05412E+02
  6.31554E+02 -7.27149E+02  8.29710E+02 -7.08790E+02  4.39034E+02  1.06774E+03 -6.80070E+02  8.33685E+02
 -1.10939E+03  6.21051E+02 -7.91162E+02 -1.33808E+03 -5.62677E+02 -1.80937E+03 -4.77207E+01 -1.01823E+03
  3.75946E+02 -2.38268E+02  5.01641E+02  3.09511E+02  1.37972E+03 -4.19728E+02  2.88754E+02  1.05021E+03
  6.65353E+01 -1.00089E+02 -7.54957E+02 -1.11297E+02  6.77344E+02 -2.27077E+02  1.28702E+03 -7.99635E+02
  9.89496E+02  1.51332E+02  2.50457E+03  2.86808E+02  9.71703E+02  9.81104E+02 -9.91280E-01  1.43765E+03
 -9.44277E+02 -1.14012E+01 -1.02297E+03 -2.11167E+02 -6.38532E+02 -1.19200E+03  6.24139E+01 -1.17504E+02
  1.11893E+03 -5.08702E+02  2.62454E+02  3.30289E+02  6.96173E+01  1.04315E+03  3.87371E+02  5.54091E+02
 -2.83502E+02  9.79187E+02 -4.62254E+02 -1.42976E+02  7.73946E+01  6.43854E+02 -5.68402E+02  4.10709E+02
 -4.72548E+02  8.18135E+02 -1.44038E+03  3.13555E+02 -9.49803E+02  3.20634E+02 -1.64710E+03 -8.68758E+02
 -4.82677E+02 -1.57916E+03  1.19847E+02 -2.06952E+03  2.56270E+02 -2.04673E+03  2.14395E+03 -7.83968E+02
  1.72963E+03 -2.43042E+02  8.04013E+02  1.23646E+03 -7.89035E+02  8.71043E+02 -7.12683E+02  7.85506E+02
 -8.40647E+02  7.21214E+02 -2.13685E+02 -3.10768E+02 -4.92947E+02  5.13560E+02 -5.91498E+02 -4.52674E+01
 -1.04321E+03  5.25147E+01 -9.06980E+02  2.82999E+02  3.03508E+02 -5.52372E+02 -5.66942E+02 -7.93652E+02
  1.12784E+03 -2.13784E+02  9.12733E+01  3.38890E+02  9.04685E+02  1.03498E+03 -4.31378E+02  6.91936E+02
 -5.20047E+02  1.75461E+03 -8.44058E+02  1.03104E+03 -1.13431E+03 -2.79926E+02 -9.20354E+02 -7.27806E+02
 -9.27240E+02 -8.23013E+02  4.32514E+02 -5.87381E+02  4.14923E+02 -2.59034E+02  2.22722E+02  3.64530E+02
  4.79976E+02  3.83545E+02  1.99253E+02  2.58801E+02 -1.91390E+02  6.86826E+00 -1.59684E+02  1.09856E+02
  1.78795E+02  9.89113E+01  1.88857E+02  4.75208E+02  4.20374E+01  1.23750E+02  4.02110E+02 -1.87782E+02
 -5.28222E+02  4.32410E+02 -4.40069E+02  9.88604E+01 -4.92521E+02 -1.44477E+02  2.35367E+02 -7.28852E+02
  3.73581E+02 -6.33245E+02  3.64573E+02  1.50251E+02  5.90128E+02 -5.19705E+02  3.09417E+02  8.64217E+02
  4.06760E+02  3.70841E+02 -1.68111E+01  1.51216E+02 -4.02286E+02  2.79752E+02 -1.15891E+02  4.70392E+01
 -1.86040E+02 -1.50522E+02 -3.53435E+02  2.12384E+02 -1.30949E+02  2.03433E+01 -4.95540E+02 -2.39775E+02
 -8.75624E+02  5.05046E+02 -3.48261E+02 -7.81287E+02  6.59145E+02 -1.34773E+03  5.22471E+02  5.13116E+01
  4.87333E+02 -5.56354E+01 -2.48141E+02 -6.77805E+01  5.30513E+01  5.93015E+02 -2.30638E+02  5.52297E+02
