 $NMID ID='MM_0lb_SNR800_17hz_g60_100.RAW', FMTDAT='(8E13.5)'
 TRAMP=1., VOLUME=1. $END
  3.09592E+05  1.03305E+02  3.37700E+05  2.50284E+05  8.48240E+04  3.37796E+05 -1.32470E+05  2.50969E+05
 -1.90049E+05  8.30783E+04 -1.11674E+05 -3.25280E+04  1.09076E+03 -5.06447E+04  5.37174E+04 -4.94445E+01
  3.54878E+04  5.27533E+04 -1.65574E+04  7.54373E+04 -6.08877E+04  6.32225E+04 -8.41019E+04  3.18886E+04
 -8.09600E+04 -1.14432E+04 -5.69658E+04 -5.13957E+04 -1.49235E+04 -6.92340E+04  2.76023E+04 -4.60330E+04
  4.00627E+04  4.07361E+03  1.60524E+04  4.76508E+04 -3.42699E+04  4.73321E+04 -6.64356E+04 -6.17869E+02
 -5.35738E+04 -5.68042E+04 -6.88286E+03 -7.71997E+04  3.35804E+04 -5.47257E+04  4.80262E+04 -1.72126E+04
  4.32207E+04  1.11804E+04  3.17208E+04  2.51595E+04  1.57169E+04  2.90058E+04 -5.34581E+03  2.70834E+04
 -2.18669E+04  1.25367E+04 -1.86651E+04 -4.88374E+03  5.20481E+03 -7.32180E+03  2.24027E+04  1.22457E+04
  7.36334E+03  3.49580E+04 -3.18817E+04  3.53173E+04 -6.31830E+04  2.19047E+03 -5.66834E+04 -4.27736E+04
 -1.24287E+04 -6.25941E+04  3.96803E+04 -4.50593E+04  5.79050E+04 -2.13442E+03  3.38080E+04  3.21452E+04
 -5.89082E+03  3.55243E+04 -2.96586E+04  1.52712E+04 -2.98833E+04 -4.61382E+03 -1.65085E+04 -1.07427E+04
 -8.11192E+03 -1.28391E+04 -7.82775E+02 -1.81712E+04  7.40725E+03 -2.28078E+04  1.56723E+04 -1.31988E+04
  1.12835E+04  4.86347E+03 -8.00718E+03  1.28651E+04 -2.10402E+04 -4.01288E+03 -8.27261E+03 -3.32223E+04
  2.21119E+04 -4.28671E+04  4.75535E+04 -1.94631E+04  4.44046E+04  1.93112E+04  1.52135E+04  4.37521E+04
 -1.58416E+04  3.34245E+04 -2.50021E+04  1.68565E+03 -9.56336E+03 -2.73035E+04  2.07597E+04 -3.33069E+04
  4.03686E+04 -8.64994E+03  3.47961E+04  2.36844E+04  1.74649E+04  4.55646E+04 -8.06064E+03  4.93737E+04
 -3.13645E+04  3.28226E+04 -4.11009E+04  9.29460E+03 -4.18204E+04 -1.64293E+04 -2.28356E+04 -3.72658E+04
  7.20793E+03 -3.72043E+04  3.08275E+04 -1.43674E+04  2.85136E+04  1.09030E+04  3.71885E+03  1.89728E+04
 -1.32599E+04  8.16591E+03 -1.01078E+04 -7.74395E+03  6.04634E+03 -1.08200E+04  1.77098E+04  6.21609E+03
  1.32969E+04  2.20358E+04 -6.04431E+03  2.47494E+04 -2.20529E+04  1.06755E+04 -2.71802E+04 -5.53699E+03
 -1.96274E+04 -1.70639E+04 -7.61484E+03 -1.95534E+04  3.90814E+03 -1.84307E+04  1.47809E+04 -1.70580E+04
  2.46376E+04 -1.24542E+04  3.15602E+04  2.39270E+03  2.31269E+04  1.92329E+04  4.08997E+03  3.53307E+04
 -1.74130E+04  2.99453E+04 -2.74519E+04  1.01675E+04 -2.06308E+04 -1.02824E+04 -4.20253E+03 -1.35241E+04
  1.81346E+03 -3.09103E+03 -4.49436E+03  6.32363E+03 -1.50730E+04  5.15233E+03 -1.54719E+04 -6.18841E+03
 -9.82657E+03 -1.77266E+04  5.18609E+03 -2.21706E+04  1.44614E+04 -1.57813E+04  1.71499E+04 -1.69391E+03
  1.05521E+04  1.22421E+04 -8.90148E+02  1.80353E+04 -1.23752E+04  1.01348E+04 -1.78273E+04 -3.81228E+03
 -1.33791E+04 -1.64027E+04 -1.44889E+03 -2.15003E+04  9.82746E+03 -1.76879E+04  1.85348E+04 -8.54360E+03
  1.67472E+04  4.70160E+02  1.22701E+04  4.13736E+03  6.51801E+03  6.12406E+02  8.58304E+03 -1.40817E+03
  1.63255E+04  2.60757E+03  1.79653E+04  1.41000E+04  1.16103E+04  2.83168E+04 -3.04442E+03  3.17717E+04
 -1.84866E+04  2.53218E+04 -2.92928E+04  1.23546E+04 -3.04127E+04 -2.36484E+03 -2.55172E+04 -1.74908E+04
 -1.15305E+04 -2.53792E+04  8.62839E+03 -2.28383E+04  1.93917E+04 -1.22187E+04  1.79316E+04  4.46110E+03
  7.01031E+03  1.29445E+04 -8.16821E+03  1.18226E+04 -1.55601E+04  2.66801E+03 -1.14697E+04 -9.32026E+03
 -1.63228E+02 -1.41417E+04  7.18657E+03 -1.09260E+04  9.37265E+03 -1.59454E+03  1.90482E+03  6.05707E+03
 -6.28291E+03  2.15132E+03 -5.10438E+03 -5.28773E+03 -1.93216E+02 -1.21798E+04  9.13220E+03 -1.23286E+04
  1.48516E+04 -6.37164E+03  1.57564E+04  3.07338E+03  1.34710E+04  1.17599E+04  6.41759E+03  1.78746E+04
 -2.82663E+03  1.95462E+04 -1.21657E+04  1.23110E+04 -1.39873E+04  3.19450E+03 -1.00660E+04 -2.81654E+03
 -4.99560E+03 -4.47805E+03 -6.66025E+02  1.13749E+03 -2.28673E+03  2.17359E+03 -4.39976E+03  4.32424E+03
 -9.53025E+03 -6.31161E+02 -1.00929E+04 -7.98386E+03 -4.01650E+03 -1.31536E+04  4.10861E+03 -1.04545E+04
  8.52797E+03 -4.46013E+03  6.52200E+03  2.57975E+03  2.73959E+02  3.71992E+03 -4.82118E+03 -3.62933E+01
 -4.37999E+03 -6.30366E+03 -7.77056E+02 -9.06792E+03  5.12719E+03 -9.64420E+03  1.21324E+04 -4.98794E+03
  1.43432E+04  8.06504E+02  1.04344E+04  7.91607E+03  1.75793E+03  1.08343E+04 -6.12528E+03  9.76161E+03
 -8.26551E+03  3.25775E+03 -4.18346E+03 -1.66321E+03  1.63179E+03 -2.57517E+03  5.28741E+03 -1.05417E+03
  5.03654E+03  3.93762E+03  1.13040E+03  7.51490E+03 -5.35620E+03  7.67544E+03 -9.69157E+03  2.16143E+03
 -6.06245E+03 -4.24068E+03  3.88086E+02 -7.98304E+03  4.61837E+03 -3.92632E+03  4.54326E+03  1.36949E+03
  5.88326E+02  4.56770E+03 -4.96450E+03  6.27905E+03 -6.78470E+03  3.03123E+03 -6.11592E+03 -1.74083E+03
 -4.01233E+03 -8.10426E+03  1.52817E+03 -9.05355E+03  7.80126E+03 -5.92140E+03  8.04341E+03  1.57849E+03
  5.67673E+03  6.82946E+03  2.45220E+01  9.02476E+03 -6.14551E+03  5.31706E+03 -6.59195E+03 -6.49741E+02
 -6.50505E+03 -6.03707E+03 -1.37426E+03 -6.35668E+03  3.06642E+03 -5.63027E+03  3.82882E+03 -2.93318E+03
  3.34383E+03  6.42812E+02 -5.41585E+01  1.33502E+03  3.43780E+02 -8.11066E+02  6.24711E+02 -2.78979E+03
  5.14894E+03 -1.44513E+03  7.25704E+03  8.32124E+02  7.38738E+03  4.32655E+03  6.31015E+03  9.45642E+03
 -2.03204E+03  1.10981E+04 -9.92606E+03  8.34691E+03 -1.24842E+04  1.31857E+03 -9.92792E+03 -3.42372E+03
 -5.02338E+03 -7.96240E+03 -6.25382E+02 -6.54711E+03  2.40018E+03 -3.02956E+03  1.91824E+03 -2.65762E+03
  1.65694E+03 -1.81489E+03  2.65476E+03 -2.44191E+03  3.82579E+03 -1.53134E+03  4.28033E+03  2.47152E+02
  5.42366E+03  1.49088E+03  2.17677E+03  4.35012E+03 -1.39018E+03  4.30199E+03 -5.65989E+03  3.58260E+03
 -6.76403E+03 -1.26111E+03 -3.30561E+03 -4.33818E+03 -1.41098E+02 -6.49927E+03  3.87820E+03 -6.92437E+03
  6.76053E+03 -4.35587E+03  8.53080E+03  8.19992E+02  6.37909E+03  5.63032E+03  1.12507E+03  7.75015E+03
 -2.77913E+03  7.04644E+03 -4.30647E+03  2.42220E+03 -2.55422E+03 -9.14380E+02 -6.17384E+02 -6.69939E+02
 -7.44512E+02  4.44424E+02 -1.30455E+03  2.24791E+03 -2.95699E+03  1.41790E+03 -5.19023E+03 -1.60942E+02
 -2.20095E+03 -4.94026E+03  5.04081E+02 -6.02995E+03  3.52896E+03 -5.29246E+03  4.98859E+03 -1.49913E+03
  5.53153E+03  3.14554E+03  2.49557E+03  4.60329E+03 -1.32115E+03  5.41715E+03 -3.45596E+03  3.64852E+03
 -5.45746E+03  4.85726E+02 -4.32834E+03 -3.37094E+03 -1.39168E+02 -4.63348E+03  2.16779E+03 -3.37302E+03
  3.65728E+03 -1.57912E+03  2.34840E+03  6.19650E+02  6.63034E+02  1.98899E+03  7.61649E+02  7.00223E+02
  1.84777E+03  8.98396E+02  1.23697E+03  9.71169E+02  1.43728E+03  2.49048E+03  1.34623E+03  2.28681E+03
 -1.75354E+03  3.72377E+03 -3.53932E+03  4.78489E+03 -4.47474E+03  1.45345E+03 -5.20884E+03 -1.13134E+03
 -2.43209E+03 -4.97602E+03  9.64036E+02 -6.37683E+03  2.94144E+03 -3.42418E+03  4.06973E+03 -1.14788E+03
  3.27467E+03  2.01012E+03  5.69138E+02  2.88562E+03 -9.53872E+02  1.65317E+03 -1.91658E+03 -1.55922E+02
 -1.13866E+03 -1.82555E+03  1.48593E+03 -2.15788E+03  1.76688E+03 -1.23133E+03  1.77380E+03  4.71551E+02
  1.03607E+03  5.98304E+02  9.73303E+02  1.52100E+01 -2.88904E+02  7.84992E+02  1.65576E+03 -3.84331E+02
  2.62739E+02 -4.43813E+02  2.08445E+03  9.19868E+02  9.73646E+02  2.87017E+03 -3.10154E+02  3.76350E+03
 -2.26788E+03  1.78259E+03 -2.58204E+03  4.64370E+02 -3.20285E+03 -8.55293E+02 -4.24514E+02 -1.53641E+03
  4.87074E+02 -1.58453E+03  1.32380E+03 -5.99896E+02  1.05066E+03  1.43545E+03 -5.07531E+02  1.33916E+03
 -2.06349E+03  1.13837E+03 -1.79255E+03 -1.69539E+03 -9.17204E+02 -2.85824E+03  3.10988E+02 -2.12173E+03
  6.60903E+02 -7.81649E+02  1.21004E+03 -3.58847E+02  1.60996E+03 -1.74294E+01  2.42975E+02  1.34566E+03
 -5.98938E+02  1.11928E+02 -1.25489E+03 -1.46803E+02  4.80453E+02 -1.02974E+03  2.26235E+03 -1.33680E+03
  2.00651E+03  1.79350E+02  3.39881E+03  1.11928E+03  9.93531E+02  2.25423E+03 -4.13980E+02  2.37617E+03
 -2.00666E+03  4.80889E+02 -2.22115E+03 -3.18606E+02 -1.01787E+03 -1.79632E+03  3.68149E+02 -8.27556E+02
  1.81708E+03 -1.05567E+03  1.03404E+03  6.57899E+02  3.75192E+02  1.66395E+03  1.40121E+02  1.60724E+03
 -6.83033E+02  9.94466E+02 -4.53482E+02  1.37693E+00 -5.50382E+01  4.45896E+02 -9.46881E+02  6.16609E+02
 -8.57202E+02  1.11248E+03 -2.39485E+03  6.61009E+02 -2.27328E+03  1.95803E+02 -3.10510E+03 -1.30631E+03
 -1.29281E+03 -3.16057E+03  6.32348E+02 -3.81932E+03  1.77398E+03 -2.95542E+03  3.65814E+03 -1.06465E+03
  2.87873E+03 -6.05702E+01  1.62845E+03  1.93152E+03 -5.42762E+02  1.98759E+03 -7.61500E+02  1.37405E+03
 -1.44684E+03  9.13317E+02 -1.13006E+03 -5.08645E+01 -5.39965E+02  3.51554E+02 -7.77977E+02 -6.27980E+01
 -1.17340E+03  3.37721E+01 -1.13473E+03 -1.50613E+02  3.18270E+02 -9.05160E+02 -2.58549E+02 -1.40620E+03
  1.34138E+03 -8.03490E+02  7.48011E+02  7.69324E+00  1.38655E+03  1.28807E+03 -2.36042E+02  1.94740E+03
 -9.71638E+02  2.61055E+03 -2.31783E+03  1.41723E+03 -2.31827E+03 -3.31677E+02 -1.89031E+03 -1.56329E+03
 -9.44195E+02 -1.74032E+03  4.86305E+02 -1.56908E+03  1.14204E+03 -8.90613E+02  1.12733E+03 -5.34674E+01
  7.55691E+02  5.87504E+02 -2.98478E+01  4.87344E+02 -3.85438E+02  1.16352E+02 -6.64910E+01 -4.92879E+02
  4.70499E+02  2.99699E+02  4.17392E+02  5.15705E+02  2.02766E+02  4.99011E+02  2.49152E+02  5.69962E+02
 -9.24973E+02  7.61189E+02 -1.04177E+03  2.76335E+01 -1.26346E+03 -6.27619E+02  1.73614E+02 -1.80041E+03
  9.06147E+02 -1.01285E+03  1.00678E+03 -8.05708E+01  1.34299E+03 -4.02870E+02  7.70904E+02  1.00788E+03
  3.91721E+02  7.69331E+02 -3.96180E+02  1.28416E+03 -5.53255E+02  1.14999E+03 -5.20280E+02  2.15179E+02
 -1.62691E+02 -4.48605E+01 -2.55539E+02  2.17381E+02 -8.20473E+02  3.06214E+02 -8.10636E+02 -2.50974E+02
 -1.32648E+03 -1.52499E+02 -2.62729E+02 -9.95280E+02  7.43699E+02 -1.60150E+03  8.53166E+02 -3.52540E+02
  9.48183E+02  1.09959E+02 -4.01567E+02  3.86702E+02 -1.27493E+02  1.05491E+03 -5.22781E+02  7.47627E+02
