 $NMID ID='MM_0lb_SNR800_15hz_g55_33.RAW', FMTDAT='(8E13.5)'
 TRAMP=1., VOLUME=1. $END
  3.09966E+05  4.76320E+02  3.37792E+05  2.50709E+05  8.48547E+04  3.37933E+05 -1.32887E+05  2.50912E+05
 -1.90294E+05  8.32922E+04 -1.11995E+05 -3.23075E+04  9.27831E+02 -5.08440E+04  5.37926E+04 -1.41683E+01
  3.54439E+04  5.29108E+04 -1.68012E+04  7.53534E+04 -6.10808E+04  6.40420E+04 -8.42214E+04  3.23765E+04
 -8.09677E+04 -1.15795E+04 -5.73189E+04 -5.14474E+04 -1.49375E+04 -6.97101E+04  2.77910E+04 -4.58305E+04
  4.01390E+04  3.94177E+03  1.64026E+04  4.75248E+04 -3.45437E+04  4.71372E+04 -6.69773E+04 -2.40508E+01
 -5.33120E+04 -5.68801E+04 -6.78226E+03 -7.69140E+04  3.41539E+04 -5.52910E+04  4.81206E+04 -1.73809E+04
  4.34612E+04  1.12252E+04  3.19750E+04  2.55065E+04  1.58313E+04  2.92893E+04 -5.31296E+03  2.73256E+04
 -2.21054E+04  1.22277E+04 -1.86075E+04 -4.85523E+03  5.92949E+03 -7.68088E+03  2.23582E+04  1.19247E+04
  7.52992E+03  3.55518E+04 -3.20562E+04  3.56866E+04 -6.33914E+04  2.13557E+03 -5.69640E+04 -4.29247E+04
 -1.23566E+04 -6.30324E+04  3.99385E+04 -4.55895E+04  5.83123E+04 -2.33326E+03  3.41525E+04  3.23906E+04
 -5.89936E+03  3.61273E+04 -3.01193E+04  1.62206E+04 -3.00976E+04 -4.38443E+03 -1.67143E+04 -1.09835E+04
 -8.56069E+03 -1.32116E+04 -7.91145E+02 -1.81265E+04  7.87598E+03 -2.30137E+04  1.56373E+04 -1.37439E+04
  1.14955E+04  5.69590E+03 -8.41370E+03  1.29592E+04 -2.10343E+04 -4.63340E+03 -8.65686E+03 -3.38024E+04
  2.28597E+04 -4.35368E+04  4.81813E+04 -1.96146E+04  4.50564E+04  1.94807E+04  1.54391E+04  4.42033E+04
 -1.58234E+04  3.32961E+04 -2.53338E+04  1.83142E+03 -1.00414E+04 -2.80280E+04  2.10894E+04 -3.41192E+04
  4.10927E+04 -9.03208E+03  3.54285E+04  2.37087E+04  1.79727E+04  4.62847E+04 -7.83039E+03  5.00974E+04
 -3.17268E+04  3.40606E+04 -4.19488E+04  9.39864E+03 -4.26501E+04 -1.66487E+04 -2.35428E+04 -3.80245E+04
  7.32516E+03 -3.78538E+04  3.13810E+04 -1.48261E+04  2.92284E+04  1.08007E+04  3.89429E+03  1.91137E+04
 -1.33424E+04  8.24131E+03 -1.01536E+04 -7.75982E+03  5.72847E+03 -1.04890E+04  1.80031E+04  5.79759E+03
  1.32971E+04  2.19474E+04 -5.82265E+03  2.50511E+04 -2.24638E+04  1.13171E+04 -2.79123E+04 -4.83002E+03
 -2.05386E+04 -1.73519E+04 -8.43599E+03 -2.08325E+04  4.26913E+03 -1.95407E+04  1.58587E+04 -1.78552E+04
  2.62414E+04 -1.27793E+04  3.22969E+04  2.54533E+03  2.37052E+04  2.00083E+04  4.41055E+03  3.60545E+04
 -1.76209E+04  3.03620E+04 -2.78331E+04  1.05816E+04 -2.07757E+04 -1.05241E+04 -4.40872E+03 -1.33934E+04
  2.05078E+03 -3.18570E+03 -4.66925E+03  6.65761E+03 -1.64214E+04  4.93844E+03 -1.65448E+04 -6.72131E+03
 -9.73039E+03 -1.88412E+04  5.17722E+03 -2.27457E+04  1.52523E+04 -1.63512E+04  1.80888E+04 -1.71695E+03
  1.14448E+04  1.30932E+04 -8.22399E+02  1.93316E+04 -1.29253E+04  1.08606E+04 -1.85204E+04 -3.87818E+03
 -1.38089E+04 -1.72644E+04 -1.73798E+03 -2.28870E+04  1.02217E+04 -1.85743E+04  1.89009E+04 -9.18163E+03
  1.74768E+04  5.16109E+02  1.28447E+04  4.47893E+03  6.55316E+03  6.18613E+02  9.33970E+03 -1.62010E+03
  1.73613E+04  2.98070E+03  1.90368E+04  1.48509E+04  1.22659E+04  3.00603E+04 -2.95389E+03  3.39193E+04
 -1.96039E+04  2.68672E+04 -3.10059E+04  1.35692E+04 -3.29073E+04 -2.60864E+03 -2.72706E+04 -1.90212E+04
 -1.19699E+04 -2.71864E+04  9.35617E+03 -2.45523E+04  2.10044E+04 -1.26117E+04  1.91676E+04  5.33176E+03
  7.09686E+03  1.42909E+04 -9.00410E+03  1.24410E+04 -1.60498E+04  2.52452E+03 -1.24737E+04 -1.01222E+04
  2.78151E+01 -1.53469E+04  7.72298E+03 -1.12952E+04  9.67647E+03 -1.33308E+03  2.21365E+03  6.51793E+03
 -6.45654E+03  2.17718E+03 -5.78190E+03 -5.16206E+03 -4.56658E+02 -1.28737E+04  9.68538E+03 -1.33682E+04
  1.62561E+04 -7.05796E+03  1.74054E+04  3.05147E+03  1.51513E+04  1.28805E+04  7.11841E+03  1.99742E+04
 -3.03126E+03  2.20581E+04 -1.33679E+04  1.38120E+04 -1.52587E+04  3.55859E+03 -1.09689E+04 -3.32973E+03
 -5.21873E+03 -4.50962E+03 -5.29664E+02  1.13483E+03 -2.37654E+03  2.59062E+03 -4.86632E+03  4.00621E+03
 -1.03251E+04 -7.92458E+02 -1.12753E+04 -9.27765E+03 -4.56899E+03 -1.43992E+04  4.59661E+03 -1.12798E+04
  9.23158E+03 -4.85032E+03  6.56507E+03  3.01334E+03  2.78688E+02  4.34434E+03 -5.18189E+03 -1.43788E+02
 -4.89523E+03 -7.19393E+03 -9.47419E+02 -1.02270E+04  5.60187E+03 -1.08525E+04  1.34061E+04 -5.69031E+03
  1.58868E+04  9.35970E+02  1.17868E+04  9.10231E+03  2.01466E+03  1.24549E+04 -6.65275E+03  1.06342E+04
 -8.97987E+03  3.21819E+03 -4.37426E+03 -1.96459E+03  1.55316E+03 -2.84041E+03  5.69861E+03 -9.94202E+02
  5.07732E+03  4.29891E+03  1.22113E+03  8.36233E+03 -6.29223E+03  8.23029E+03 -1.07020E+04  2.54197E+03
 -6.74180E+03 -5.04334E+03 -4.23673E+01 -9.09081E+03  5.61596E+03 -4.49303E+03  5.63053E+03  1.89319E+03
  9.90778E+02  5.49089E+03 -5.30859E+03  6.97952E+03 -7.89425E+03  3.26505E+03 -7.57448E+03 -2.41453E+03
 -4.55724E+03 -8.95067E+03  1.88494E+03 -1.09979E+04  8.95934E+03 -6.92442E+03  9.95774E+03  1.97818E+03
  6.41114E+03  7.68426E+03 -4.95665E+02  9.89934E+03 -7.04956E+03  5.84425E+03 -7.48471E+03 -8.65695E+02
 -7.46103E+03 -7.13709E+03 -1.41471E+03 -7.49662E+03  3.68828E+03 -6.23101E+03  4.21885E+03 -3.28791E+03
  3.75814E+03  5.46421E+02 -2.64291E+02  1.78485E+03  3.26813E+02 -1.34137E+03  8.73118E+02 -3.49106E+03
  6.06128E+03 -2.22923E+03  8.70527E+03  1.14063E+03  8.71228E+03  5.43892E+03  6.64376E+03  1.15183E+04
 -2.11302E+03  1.36349E+04 -1.15160E+04  9.96147E+03 -1.48586E+04  2.14322E+03 -1.17871E+04 -4.82052E+03
 -6.06399E+03 -9.96863E+03 -2.84952E+02 -8.21937E+03  3.19171E+03 -3.80060E+03  3.02095E+03 -3.25184E+03
  2.09437E+03 -1.96812E+03  2.66035E+03 -2.82201E+03  4.23853E+03 -1.96168E+03  5.11360E+03 -1.54024E+02
  6.50078E+03  1.50856E+03  2.42798E+03  5.68488E+03 -2.15981E+03  5.54542E+03 -6.55359E+03  4.52054E+03
 -8.03235E+03 -1.12878E+03 -3.91716E+03 -5.23579E+03 -1.02901E+02 -8.11371E+03  4.37721E+03 -8.28485E+03
  8.34642E+03 -5.28358E+03  1.04706E+04  1.01576E+03  7.06348E+03  6.97540E+03  1.39164E+03  9.58680E+03
 -3.61582E+03  8.36608E+03 -5.41389E+03  2.47673E+03 -3.29985E+03 -1.25841E+03 -9.75206E+02 -1.32222E+03
 -1.20855E+03  1.76648E+02 -1.55844E+03  1.94693E+03 -3.80435E+03  1.62760E+03 -5.92869E+03 -6.57416E+02
 -3.40813E+03 -6.01399E+03  6.61536E+02 -7.32329E+03  4.53975E+03 -6.90938E+03  6.46154E+03 -2.18919E+03
  7.00557E+03  3.65369E+03  2.94345E+03  6.17039E+03 -1.11472E+03  7.30982E+03 -4.84272E+03  4.34795E+03
 -6.86103E+03  6.67181E+02 -5.40114E+03 -4.17794E+03 -3.13172E+02 -5.84625E+03  2.89608E+03 -4.61514E+03
  4.49612E+03 -2.06587E+03  3.10824E+03  9.51377E+02  1.06231E+03  2.40241E+03  7.76034E+02  1.16180E+03
  2.06370E+03  9.70847E+02  1.83442E+03  1.19843E+03  1.90738E+03  3.23277E+03  2.23948E+03  3.42030E+03
 -1.70163E+03  5.13566E+03 -4.80787E+03  6.06237E+03 -6.07970E+03  1.81410E+03 -6.75586E+03 -1.94468E+03
 -3.15452E+03 -6.53156E+03  1.00088E+03 -7.89517E+03  4.00512E+03 -4.48324E+03  5.45499E+03 -1.28011E+03
  4.18080E+03  2.55518E+03  8.60356E+02  4.11141E+03 -1.45510E+03  2.31730E+03 -2.44991E+03 -2.72301E+02
 -1.12104E+03 -3.03354E+03  1.80608E+03 -2.66256E+03  2.55505E+03 -1.48510E+03  2.42390E+03  2.22267E+02
  1.61785E+03  1.20896E+03  9.15543E+02  5.71121E+02 -4.72437E+02  1.08297E+03  1.43698E+03 -5.24972E+02
  7.00539E+02 -6.02750E+02  2.84287E+03  1.22961E+03  8.16052E+02  3.95104E+03 -6.29655E+02  5.16755E+03
 -3.00345E+03  2.51269E+03 -4.09882E+03  7.71704E+02 -3.61271E+03 -1.00379E+03 -9.95888E+02 -2.26067E+03
  8.17117E+02 -2.27027E+03  1.66133E+03 -1.15309E+03  1.37082E+03  1.73385E+03 -9.91070E+02  2.17373E+03
 -2.86261E+03  1.28696E+03 -2.55544E+03 -1.80847E+03 -1.56318E+03 -3.48060E+03  4.35797E+02 -3.34978E+03
  1.13236E+03 -1.74088E+03  1.91721E+03 -6.43542E+01  2.20491E+03  1.34147E+02  5.87851E+02  2.02329E+03
 -7.16934E+02  2.90349E+02 -1.43379E+03 -9.18940E+02  5.22996E+02 -2.13150E+03  2.95057E+03 -1.42442E+03
  3.14640E+03  1.43485E+02  4.26105E+03  1.85561E+03  1.62510E+03  3.39146E+03 -6.70046E+02  3.62630E+03
 -3.17527E+03  1.13351E+03 -3.29144E+03 -2.80334E+02 -1.62190E+03 -2.52955E+03  4.47953E+02 -1.59229E+03
  2.56899E+03 -1.08977E+03  1.67921E+03  1.09791E+03  5.59548E+02  1.97898E+03 -9.25034E+01  2.04945E+03
 -8.09102E+02  1.54315E+03 -8.43175E+02  3.26968E+02 -2.06798E+02  4.78569E+02 -6.69861E+02  9.59739E+02
 -8.83643E+02  1.64138E+03 -2.79023E+03  1.39610E+03 -3.47529E+03  3.13818E+02 -4.38404E+03 -2.04823E+03
 -2.16836E+03 -4.50691E+03  8.73485E+02 -5.46615E+03  2.71042E+03 -4.34465E+03  5.39761E+03 -1.88732E+03
  4.73990E+03  2.21867E+02  2.71481E+03  3.27217E+03 -6.15470E+02  3.35593E+03 -1.18767E+03  2.84302E+03
 -2.11299E+03  1.62722E+03 -1.38837E+03 -4.43103E+02 -5.22163E+02  8.55345E+01 -5.76975E+02 -2.00060E+01
 -9.32500E+02  2.99101E+01 -1.28102E+03 -2.22960E+02 -2.38469E+02 -1.04509E+03 -2.78836E+02 -1.53286E+03
  1.97794E+03 -1.28101E+03  1.70804E+03  1.90842E+02  2.59314E+03  1.99421E+03 -7.65362E+01  3.07096E+03
 -1.58221E+03  4.23935E+03 -3.53805E+03  2.54262E+03 -3.88107E+03 -2.12683E+02 -2.74822E+03 -2.53764E+03
 -1.59178E+03 -3.24568E+03  8.93641E+02 -2.64244E+03  1.75395E+03 -1.59720E+03  1.44307E+03  1.14504E+02
  1.12589E+03  7.59338E+02 -1.75351E+02  1.00824E+03 -7.86393E+02 -1.67160E+02 -4.90655E+00 -7.62677E+02
  1.03454E+03  1.40575E+02  9.56113E+02  5.50474E+02  5.28152E+02  1.36455E+03  1.07921E+02  1.41574E+03
 -1.22718E+03  1.25425E+03 -2.05399E+03  4.78580E+01 -1.56674E+03 -1.18990E+03 -3.72222E+02 -2.24272E+03
  1.07393E+03 -1.78354E+03  1.92478E+03 -3.59758E+02  2.41158E+03  8.08041E+01  1.29122E+03  2.00670E+03
  6.49671E+02  1.67205E+03 -5.36911E+02  1.46292E+03 -1.25382E+03  1.32307E+03 -9.72069E+02  1.99159E+02
 -2.07018E+02 -2.06001E+02 -6.48874E+02  4.61947E+02 -1.29088E+03 -1.10483E+02 -1.56756E+03 -4.62198E+02
 -2.00618E+03 -5.35441E+02 -3.07573E+02 -2.03958E+03  1.14053E+03 -2.48510E+03  1.69104E+03 -9.36679E+02
  1.60142E+03  2.12128E+02  3.86787E+02  1.16224E+03 -2.62022E+02  1.62535E+03 -1.01603E+03  1.01136E+03
