 $NMID ID='MM_0lb_SNR800_7hz_g55_47.RAW', FMTDAT='(8E13.5)'
 TRAMP=1., VOLUME=1. $END
  3.09573E+05  6.45737E+01  3.37989E+05  2.50934E+05  8.49327E+04  3.38885E+05 -1.32648E+05  2.52247E+05
 -1.91282E+05  8.40061E+04 -1.12846E+05 -3.24713E+04  1.42938E+02 -5.08273E+04  5.36546E+04 -6.08674E+02
  3.61164E+04  5.27137E+04 -1.64747E+04  7.62283E+04 -6.12569E+04  6.49899E+04 -8.59543E+04  3.28327E+04
 -8.32729E+04 -1.17262E+04 -5.83498E+04 -5.29772E+04 -1.52410E+04 -7.16472E+04  2.86714E+04 -4.68562E+04
  4.16447E+04  3.84504E+03  1.70232E+04  4.87284E+04 -3.52057E+04  4.89016E+04 -6.88625E+04  4.10160E+02
 -5.57131E+04 -5.77118E+04 -7.38867E+03 -7.99771E+04  3.52722E+04 -5.76673E+04  5.07025E+04 -1.93604E+04
  4.56185E+04  1.13430E+04  3.35866E+04  2.72079E+04  1.63662E+04  3.08906E+04 -6.34235E+03  2.76668E+04
 -2.26014E+04  1.19902E+04 -1.82027E+04 -5.77998E+03  7.93703E+03 -7.37379E+03  2.40481E+04  1.42689E+04
  6.58716E+03  3.85589E+04 -3.48790E+04  3.75996E+04 -6.67834E+04  2.14521E+03 -5.98675E+04 -4.52633E+04
 -1.30503E+04 -6.71472E+04  4.25628E+04 -4.81331E+04  6.24206E+04 -2.82834E+03  3.77150E+04  3.52351E+04
 -5.36747E+03  4.12644E+04 -3.28066E+04  2.01261E+04 -3.43167E+04 -3.88294E+03 -2.04591E+04 -1.24577E+04
 -1.00512E+04 -1.52631E+04 -2.50308E+02 -2.05566E+04  8.58724E+03 -2.40469E+04  1.62213E+04 -1.21979E+04
  1.00870E+04  5.83901E+03 -1.14875E+04  1.23522E+04 -2.48199E+04 -7.77304E+03 -8.81513E+03 -3.90775E+04
  2.57698E+04 -4.83253E+04  5.39947E+04 -2.16643E+04  5.02199E+04  2.15052E+04  1.86049E+04  4.84109E+04
 -1.69878E+04  3.78231E+04 -2.87448E+04  3.11968E+03 -1.29259E+04 -3.05135E+04  2.19424E+04 -3.89340E+04
  4.63528E+04 -1.20430E+04  4.24716E+04  2.52234E+04  2.28051E+04  5.36948E+04 -8.31232E+03  5.90782E+04
 -3.67456E+04  4.06039E+04 -5.04359E+04  1.21234E+04 -5.02419E+04 -1.93990E+04 -2.71854E+04 -4.39878E+04
  8.05139E+03 -4.44896E+04  3.56396E+04 -1.81385E+04  3.33745E+04  1.07568E+04  5.83876E+03  2.18111E+04
 -1.43168E+04  1.04117E+04 -1.16769E+04 -7.82700E+03  5.58857E+03 -1.17591E+04  1.93836E+04  5.35307E+03
  1.55770E+04  2.31860E+04 -4.79946E+03  2.81903E+04 -2.44976E+04  1.61228E+04 -3.36377E+04 -2.25936E+03
 -2.82549E+04 -1.90694E+04 -1.32219E+04 -2.81703E+04  4.31773E+03 -2.91418E+04  2.24108E+04 -2.54472E+04
  3.49029E+04 -1.46927E+04  4.08988E+04  5.46566E+03  2.87228E+04  2.68835E+04  4.43840E+03  4.37815E+04
 -2.13046E+04  3.60957E+04 -3.22499E+04  1.24511E+04 -2.37070E+04 -1.06646E+04 -5.34541E+03 -1.22763E+04
  3.24560E+02 -4.38334E+02 -8.95546E+03  9.02146E+03 -2.21932E+04  4.90540E+03 -2.22242E+04 -1.07159E+04
 -1.32778E+04 -2.53541E+04  6.72687E+03 -3.02942E+04  2.06915E+04 -2.17852E+04  2.51083E+04 -1.79279E+03
  1.63241E+04  1.78242E+04 -1.77664E+03  2.56485E+04 -1.83075E+04  1.49355E+04 -2.59236E+04 -5.07018E+03
 -1.87521E+04 -2.27457E+04 -2.33043E+03 -3.03760E+04  1.41565E+04 -2.57772E+04  2.48757E+04 -1.36321E+04
  2.45526E+04 -8.18771E+02  1.76398E+04  5.16341E+03  9.89698E+03  1.59286E+03  1.37993E+04 -2.54796E+03
  2.49171E+04  3.46701E+03  2.84728E+04  2.02605E+04  2.02627E+04  4.15602E+04 -3.03524E+03  4.93506E+04
 -2.84786E+04  4.16170E+04 -4.71307E+04  2.21519E+04 -5.08755E+04 -3.89126E+03 -4.02994E+04 -2.97142E+04
 -1.57362E+04 -4.25392E+04  1.51863E+04 -3.67560E+04  3.17980E+04 -1.66895E+04  2.68183E+04  9.26326E+03
  8.62622E+03  2.15951E+04 -1.30586E+04  1.71622E+04 -2.24236E+04  2.95213E+03 -1.67601E+04 -1.43633E+04
 -2.84803E+02 -2.15023E+04  1.15644E+04 -1.59826E+04  1.52255E+04 -7.25686E+02  4.51991E+03  1.01225E+04
 -9.23831E+03  4.86890E+03 -1.10780E+04 -7.53751E+03 -2.96103E+03 -2.04938E+04  1.30272E+04 -2.25393E+04
  2.66111E+04 -1.34288E+04  3.05875E+04  3.61495E+03  2.68443E+04  2.13993E+04  1.24968E+04  3.38911E+04
 -6.63748E+03  3.55385E+04 -2.37209E+04  2.24843E+04 -2.63311E+04  4.22718E+03 -1.78108E+04 -7.22146E+03
 -7.42858E+03 -8.50064E+03 -4.65589E+02 -9.04670E-01 -3.10670E+03  4.10888E+03 -8.53905E+03  5.99468E+03
 -1.65769E+04 -1.46921E+03 -1.69830E+04 -1.36308E+04 -6.72469E+03 -2.17645E+04  7.29323E+03 -1.82206E+04
  1.49356E+04 -7.35898E+03  1.05871E+04  5.21825E+03 -6.80018E+02  6.82558E+03 -9.86440E+03 -1.48113E+02
 -8.87359E+03 -1.18029E+04 -1.43310E+03 -1.80891E+04  1.08310E+04 -1.89079E+04  2.38759E+04 -1.07880E+04
  2.78671E+04  3.00286E+03  2.00791E+04  1.73444E+04  3.42901E+03  2.29223E+04 -1.09457E+04  1.80608E+04
 -1.48283E+04  5.10211E+03 -7.91503E+03 -4.38180E+03  2.47202E+03 -5.89608E+03  9.21462E+03 -1.39819E+03
  8.51239E+03  8.44720E+03  1.15645E+03  1.50096E+04 -1.11362E+04  1.40044E+04 -1.83821E+04  2.93378E+03
 -1.28577E+04 -1.01463E+04 -6.76210E+01 -1.63994E+04  1.04456E+04 -8.53793E+03  1.12020E+04  4.41271E+03
  3.03603E+03  1.21074E+04 -9.36602E+03  1.35014E+04 -1.69034E+04  5.77166E+03 -1.70913E+04 -6.68952E+03
 -9.89556E+03 -1.95979E+04  4.65045E+03 -2.21597E+04  1.87426E+04 -1.33219E+04  2.05979E+04  3.64981E+03
  1.20193E+04  1.64020E+04 -2.95800E+03  1.89176E+04 -1.38211E+04  1.09779E+04 -1.54925E+04 -2.06254E+03
 -1.28144E+04 -1.20925E+04 -2.06936E+03 -1.44625E+04  7.44448E+03 -1.14391E+04  9.52407E+03 -3.96507E+03
  5.71938E+03  2.96611E+03 -1.25438E+03  2.22968E+03 -1.51420E+03 -4.17788E+03  3.82051E+03 -9.85755E+03
  1.42740E+04 -7.08466E+03  2.03599E+04  2.27478E+03  1.97209E+04  1.44555E+04  1.17908E+04  2.58691E+04
 -6.03870E+03  3.00086E+04 -2.44041E+04  2.17412E+04 -3.24860E+04  3.89477E+03 -2.58206E+04 -1.17757E+04
 -1.26924E+04 -2.09533E+04 -3.84907E+02 -1.84991E+04  6.04221E+03 -1.06522E+04  6.81391E+03 -6.11398E+03
  4.93700E+03 -3.21718E+03  4.56429E+03 -4.44381E+03  6.27260E+03 -4.57758E+03  9.58072E+03 -1.91360E+03
  1.31935E+04  3.17445E+03  7.91235E+03  1.19730E+04 -2.54205E+03  1.45172E+04 -1.42380E+04  1.11518E+04
 -1.91970E+04 -1.30757E+03 -1.28320E+04 -1.34820E+04 -2.21667E+03 -2.05275E+04  1.08673E+04 -1.99816E+04
  2.10881E+04 -1.13595E+04  2.47546E+04  3.79493E+03  1.68363E+04  1.78001E+04  2.56469E+03  2.23070E+04
 -9.61670E+03  1.77321E+04 -1.34380E+04  6.24274E+03 -9.47726E+03 -2.00178E+03 -4.13957E+03 -3.16796E+03
 -1.62137E+03  1.64940E+02 -2.82052E+03  3.45488E+03 -7.27092E+03  2.96817E+03 -1.26123E+04 -2.12438E+03
 -1.00049E+04 -1.24577E+04 -9.03520E+02 -1.88764E+04  1.16888E+04 -1.73795E+04  1.89839E+04 -5.24735E+03
  1.91154E+04  8.96865E+03  9.16721E+03  1.76986E+04 -3.41390E+03  1.97109E+04 -1.33979E+04  1.23224E+04
 -1.78190E+04  6.06896E+02 -1.38731E+04 -1.19719E+04 -1.47401E+03 -1.63120E+04  8.53643E+03 -1.18244E+04
  1.23115E+04 -3.29575E+03  9.05464E+03  3.20537E+03  3.38826E+03  5.24153E+03  2.05792E+03  3.06512E+03
  3.28367E+03  1.86763E+03  4.87258E+03  2.61367E+03  5.74546E+03  6.44748E+03  4.86050E+03  1.06285E+04
 -3.51810E+03  1.58655E+04 -1.39550E+04  1.51534E+04 -2.08117E+04  4.16510E+03 -2.04447E+04 -8.94506E+03
 -9.83939E+03 -2.00262E+04  3.18069E+03 -2.17521E+04  1.24434E+04 -1.40610E+04  1.65541E+04 -3.52226E+03
  1.28979E+04  7.68737E+03  2.84795E+03  1.17794E+04 -5.78981E+03  7.46958E+03 -8.34918E+03 -9.59453E+02
 -3.80963E+03 -8.51368E+03  4.85993E+03 -9.36149E+03  9.03801E+03 -4.20775E+03  7.76342E+03  1.60242E+03
  4.86117E+03  4.08422E+03  2.34099E+03  4.32222E+03 -6.76368E+02  2.87627E+03  1.14223E+03 -1.13451E+03
  3.14873E+03 -1.27840E+03  8.23874E+03  3.51883E+03  5.13204E+03  1.05267E+04 -1.49927E+03  1.46022E+04
 -9.84247E+03  9.26338E+03 -1.32854E+04  2.73752E+03 -1.23689E+04 -4.32213E+03 -5.22217E+03 -8.67498E+03
  9.83959E+02 -7.75410E+03  5.20706E+03 -3.66014E+03  4.66144E+03  3.63784E+03 -1.75764E+03  7.20718E+03
 -8.51189E+03  4.16993E+03 -9.33287E+03 -4.38427E+03 -5.29521E+03 -1.15208E+04  2.11426E+03 -1.18666E+04
  6.62889E+03 -6.80830E+03  8.61128E+03 -1.12636E+03  7.03747E+03  2.85100E+03  1.57062E+03  6.16065E+03
 -4.16481E+03  2.15407E+03 -4.99474E+03 -4.44430E+03  1.55222E+03 -9.52907E+03  1.05670E+04 -7.37429E+03
  1.35061E+04  6.10088E+02  1.32163E+04  9.51027E+03  3.94502E+03  1.45261E+04 -4.91932E+03  1.35164E+04
 -1.13289E+04  5.88632E+03 -1.21296E+04 -2.30696E+03 -6.76212E+03 -9.25684E+03  2.34841E+03 -8.70242E+03
  8.84931E+03 -4.22144E+03  7.49083E+03  3.65544E+03  2.30269E+03  7.79888E+03 -1.51937E+03  6.63127E+03
 -3.31110E+03  3.78765E+03 -3.45744E+03  1.60079E+03 -1.64467E+03  1.04408E+03 -2.13045E+03  2.83817E+03
 -3.70544E+03  5.21228E+03 -9.44206E+03  5.41211E+03 -1.44158E+04  6.49703E+02 -1.57955E+04 -9.49310E+03
 -8.37563E+03 -1.91165E+04  4.20248E+03 -2.24257E+04  1.39151E+04 -1.74770E+04  2.04775E+04 -6.45117E+03
  1.92459E+04  4.24385E+03  1.20724E+04  1.36459E+04  1.54201E+03  1.57018E+04 -5.38415E+03  1.13498E+04
 -8.94902E+03  4.12089E+03 -5.61333E+03 -1.59297E+03 -1.38743E+03 -1.39638E+03 -8.23123E+02  1.97630E+02
 -1.94170E+03  5.65563E+02 -3.41051E+03 -4.76567E+02 -1.37441E+03 -3.70713E+03  3.81642E+02 -5.62882E+03
  6.80676E+03 -4.97317E+03  9.57745E+03 -1.30308E+02  1.06990E+04  8.44943E+03  2.98965E+03  1.55131E+04
 -7.39643E+03  1.73543E+04 -1.60317E+04  9.90246E+03 -1.84893E+04 -1.26841E+03 -1.43263E+04 -1.13788E+04
 -5.81686E+03 -1.64034E+04  4.40966E+03 -1.43541E+04  1.06383E+04 -7.79170E+03  1.01856E+04  7.79667E+02
  5.57805E+03  6.07952E+03 -6.64707E+02  3.89427E+03 -2.88410E+03 -4.02876E+02  2.11655E+02 -4.02476E+03
  5.15551E+03 -2.40796E+03  6.78728E+03  1.83612E+03  4.48204E+03  6.51148E+03 -2.55459E+02  8.25668E+03
 -6.88596E+03  7.50421E+03 -1.14620E+04  7.32641E+02 -9.47763E+03 -7.49362E+03 -1.39227E+03 -1.34446E+04
  7.90914E+03 -1.15848E+04  1.29521E+04 -3.87279E+03  1.23081E+04  4.01018E+03  7.32859E+03  9.65302E+03
  1.41992E+03  1.11932E+04 -4.35223E+03  8.04868E+03 -6.53203E+03  4.70576E+03 -5.43777E+03  7.17017E+02
 -2.96444E+03  8.96002E+01 -3.07308E+03  2.06874E+03 -5.54292E+03  2.53670E+03 -8.57798E+03 -1.43697E+03
 -7.82052E+03 -6.50762E+03 -2.67359E+03 -1.06401E+04  4.69411E+03 -1.15280E+04  9.93623E+03 -5.32539E+03
  1.12605E+04  1.84151E+03  6.66674E+03  7.86892E+03 -1.20201E+03  1.07466E+04 -8.41560E+03  6.71394E+03
