 $NMID ID='MM_0lb_SNR800_8hz_g45_83.RAW', FMTDAT='(8E13.5)'
 TRAMP=1., VOLUME=1. $END
  3.09851E+05  5.49393E+02  3.37912E+05  2.50613E+05  8.47597E+04  3.38580E+05 -1.32711E+05  2.51923E+05
 -1.90921E+05  8.40115E+04 -1.13256E+05 -3.24779E+04  4.22366E+02 -5.08149E+04  5.34554E+04 -6.81657E+02
  3.53399E+04  5.30126E+04 -1.66260E+04  7.62166E+04 -6.09696E+04  6.44990E+04 -8.49676E+04  3.23403E+04
 -8.26099E+04 -1.19630E+04 -5.79551E+04 -5.25530E+04 -1.55552E+04 -7.10630E+04  2.82119E+04 -4.67803E+04
  4.08980E+04  4.03311E+03  1.68985E+04  4.85575E+04 -3.48582E+04  4.81868E+04 -6.86662E+04 -6.12609E+01
 -5.46741E+04 -5.79489E+04 -7.48884E+03 -7.90637E+04  3.46996E+04 -5.69275E+04  4.96640E+04 -1.81142E+04
  4.51817E+04  1.14508E+04  3.32033E+04  2.68768E+04  1.62771E+04  3.08388E+04 -5.97795E+03  2.81684E+04
 -2.23571E+04  1.16587E+04 -1.78293E+04 -5.90184E+03  7.08917E+03 -7.52521E+03  2.37090E+04  1.41823E+04
  6.48586E+03  3.78158E+04 -3.39059E+04  3.72321E+04 -6.61146E+04  2.52699E+03 -5.91061E+04 -4.48242E+04
 -1.26363E+04 -6.55779E+04  4.24527E+04 -4.75437E+04  6.14154E+04 -2.49215E+03  3.70453E+04  3.43281E+04
 -6.08998E+03  4.00353E+04 -3.20763E+04  1.92118E+04 -3.35003E+04 -3.53910E+03 -1.97128E+04 -1.22651E+04
 -9.76171E+03 -1.52769E+04 -3.25646E+02 -1.97979E+04  8.65952E+03 -2.35145E+04  1.56459E+04 -1.24897E+04
  1.05922E+04  6.37196E+03 -1.07243E+04  1.26685E+04 -2.36597E+04 -6.80692E+03 -8.79748E+03 -3.75699E+04
  2.53931E+04 -4.70847E+04  5.25102E+04 -2.09399E+04  4.91102E+04  2.14178E+04  1.74507E+04  4.74403E+04
 -1.69512E+04  3.67567E+04 -2.76437E+04  2.42052E+03 -1.23378E+04 -2.93789E+04  2.19921E+04 -3.70239E+04
  4.48715E+04 -1.16805E+04  4.10622E+04  2.50805E+04  2.14478E+04  5.15849E+04 -8.15342E+03  5.66949E+04
 -3.57630E+04  3.89453E+04 -4.83074E+04  1.08790E+04 -4.82008E+04 -1.89424E+04 -2.64289E+04 -4.20233E+04
  7.68402E+03 -4.21963E+04  3.40959E+04 -1.73900E+04  3.21558E+04  1.11031E+04  5.25344E+03  2.11376E+04
 -1.38835E+04  9.75890E+03 -1.11126E+04 -7.48552E+03  5.70900E+03 -1.14122E+04  1.87614E+04  5.66349E+03
  1.48447E+04  2.28411E+04 -4.96888E+03  2.73923E+04 -2.36702E+04  1.51012E+04 -3.19263E+04 -2.76736E+03
 -2.61434E+04 -1.82708E+04 -1.20107E+04 -2.51688E+04  4.57905E+03 -2.64221E+04  2.00314E+04 -2.34211E+04
  3.31509E+04 -1.42907E+04  3.82995E+04  5.22162E+03  2.77822E+04  2.50956E+04  4.54472E+03  4.17911E+04
 -2.01299E+04  3.44662E+04 -3.09878E+04  1.15656E+04 -2.22435E+04 -1.03227E+04 -5.04045E+03 -1.27138E+04
  7.18314E+02 -7.82581E+02 -7.78381E+03  8.24509E+03 -2.04220E+04  5.23228E+03 -2.06181E+04 -9.83009E+03
 -1.22289E+04 -2.36011E+04  6.17120E+03 -2.84466E+04  1.91186E+04 -1.99853E+04  2.30125E+04 -1.76629E+03
  1.52048E+04  1.65487E+04 -1.40562E+03  2.39241E+04 -1.67182E+04  1.34959E+04 -2.39542E+04 -4.80520E+03
 -1.75923E+04 -2.13472E+04 -1.99333E+03 -2.84799E+04  1.28844E+04 -2.36834E+04  2.33155E+04 -1.24321E+04
  2.23780E+04 -2.94019E+02  1.60522E+04  5.19973E+03  8.99617E+03  1.19902E+03  1.26160E+04 -2.38687E+03
  2.26508E+04  2.67740E+03  2.67097E+04  1.87325E+04  1.81534E+04  3.82535E+04 -2.41812E+03  4.55816E+04
 -2.59235E+04  3.84166E+04 -4.36415E+04  2.00063E+04 -4.64497E+04 -3.29851E+03 -3.72173E+04 -2.69702E+04
 -1.45948E+04 -3.85458E+04  1.38765E+04 -3.35679E+04  2.84748E+04 -1.55976E+04  2.47290E+04  8.07258E+03
  8.03545E+03  1.93540E+04 -1.22836E+04  1.57793E+04 -2.02007E+04  2.42263E+03 -1.55575E+04 -1.31476E+04
 -3.75138E+02 -1.98890E+04  1.06772E+04 -1.47074E+04  1.37741E+04 -1.27253E+03  3.77565E+03  9.42613E+03
 -8.60930E+03  4.70102E+03 -9.53147E+03 -7.26164E+03 -2.06765E+03 -1.88151E+04  1.24648E+04 -2.06248E+04
  2.37915E+04 -1.15795E+04  2.73124E+04  3.17751E+03  2.40774E+04  1.95981E+04  1.11038E+04  3.03493E+04
 -5.83201E+03  3.22649E+04 -2.12302E+04  2.02618E+04 -2.37996E+04  3.80220E+03 -1.64444E+04 -5.89060E+03
 -6.83551E+03 -7.42299E+03 -4.84433E+02  3.59399E+02 -2.92386E+03  3.27358E+03 -7.83042E+03  5.66034E+03
 -1.45252E+04 -1.28805E+03 -1.54465E+04 -1.21599E+04 -6.19194E+03 -1.98404E+04  6.74852E+03 -1.61490E+04
  1.28594E+04 -6.67156E+03  9.53071E+03  4.32521E+03 -8.46694E+02  6.76829E+03 -8.45982E+03 -3.72418E+02
 -8.11544E+03 -1.07042E+04 -1.00791E+03 -1.64318E+04  9.47836E+03 -1.71949E+04  2.12398E+04 -9.04895E+03
  2.47092E+04  2.33884E+03  1.81526E+04  1.49839E+04  3.78428E+03  2.01648E+04 -1.02064E+04  1.62594E+04
 -1.32275E+04  4.90321E+03 -6.54966E+03 -3.57357E+03  2.68341E+03 -4.58974E+03  8.58213E+03 -1.28846E+03
  7.79011E+03  7.35622E+03  1.00214E+03  1.33726E+04 -9.21595E+03  1.24147E+04 -1.63819E+04  2.77839E+03
 -1.13596E+04 -8.80568E+03 -1.75422E+02 -1.39664E+04  8.90912E+03 -7.48830E+03  9.84403E+03  3.70378E+03
  2.75399E+03  1.07873E+04 -8.37075E+03  1.21795E+04 -1.41958E+04  5.47736E+03 -1.53708E+04 -5.59513E+03
 -8.46559E+03 -1.67865E+04  4.32639E+03 -1.94243E+04  1.66018E+04 -1.10103E+04  1.78586E+04  3.81778E+03
  1.08419E+04  1.39147E+04 -1.47512E+03  1.64639E+04 -1.23372E+04  9.76832E+03 -1.32670E+04 -1.32224E+03
 -1.13574E+04 -1.08300E+04 -1.90972E+03 -1.25357E+04  7.19080E+03 -1.01612E+04  8.28746E+03 -3.56720E+03
  5.56547E+03  2.24599E+03 -1.02778E+03  2.23245E+03 -7.81416E+02 -3.80710E+03  3.00070E+03 -8.14432E+03
  1.20935E+04 -5.35550E+03  1.66774E+04  2.20956E+03  1.65932E+04  1.19627E+04  1.06472E+04  2.24957E+04
 -5.25077E+03  2.59496E+04 -2.13565E+04  1.88979E+04 -2.76248E+04  3.60053E+03 -2.19880E+04 -9.79953E+03
 -1.10079E+04 -1.80964E+04 -8.04616E+01 -1.54081E+04  5.53835E+03 -9.10609E+03  5.97509E+03 -5.21186E+03
  3.89170E+03 -3.12526E+03  3.94168E+03 -4.17814E+03  6.29241E+03 -3.85621E+03  8.62810E+03 -1.54978E+03
  1.12194E+04  2.90525E+03  6.34969E+03  1.02258E+04 -2.14722E+03  1.20155E+04 -1.17827E+04  9.15127E+03
 -1.58509E+04 -1.21184E+03 -1.01738E+04 -1.08834E+04 -1.49689E+03 -1.72863E+04  8.78285E+03 -1.65837E+04
  1.80153E+04 -9.51896E+03  2.10696E+04  3.08864E+03  1.47500E+04  1.47867E+04  2.37227E+03  1.92992E+04
 -8.30157E+03  1.52922E+04 -1.14807E+04  5.32017E+03 -7.98485E+03 -1.61361E+03 -3.66881E+03 -2.83444E+03
 -1.54431E+03 -2.61408E+02 -2.43823E+03  3.12371E+03 -6.76358E+03  2.54947E+03 -1.10282E+04 -1.75137E+03
 -8.03562E+03 -1.06707E+04 -3.05848E+02 -1.58086E+04  9.72529E+03 -1.47918E+04  1.60677E+04 -4.84181E+03
  1.56154E+04  7.18723E+03  7.65686E+03  1.43625E+04 -3.37789E+03  1.62526E+04 -1.19948E+04  1.01490E+04
 -1.57444E+04  7.72476E+02 -1.19122E+04 -9.85463E+03 -1.59963E+03 -1.32544E+04  7.17411E+03 -1.00166E+04
  1.00964E+04 -2.91283E+03  7.10081E+03  2.41997E+03  2.39767E+03  4.68313E+03  1.25144E+03  2.41558E+03
  2.98007E+03  8.57848E+02  3.82330E+03  1.88161E+03  4.80143E+03  5.47770E+03  4.33953E+03  8.55050E+03
 -3.19624E+03  1.33991E+04 -1.17343E+04  1.28758E+04 -1.69098E+04  3.43019E+03 -1.72439E+04 -7.24544E+03
 -8.50052E+03 -1.65748E+04  2.81535E+03 -1.82149E+04  1.03620E+04 -1.21160E+04  1.34023E+04 -3.14032E+03
  1.05874E+04  5.69453E+03  2.35740E+03  9.75442E+03 -5.13580E+03  6.30478E+03 -6.72700E+03 -1.44935E+03
 -3.43554E+03 -6.87725E+03  3.41769E+03 -7.49429E+03  7.29683E+03 -3.94285E+03  6.84055E+03  1.63425E+03
  3.94307E+03  3.18647E+03  1.55879E+03  2.93838E+03 -9.59558E+02  2.03495E+03  1.61996E+03 -7.65790E+02
  2.86624E+03 -6.88289E+02  6.84406E+03  2.61363E+03  3.94504E+03  9.25573E+03 -1.63273E+03  1.14640E+04
 -8.29030E+03  8.05148E+03 -1.05501E+04  2.03421E+03 -9.76471E+03 -3.69238E+03 -4.16275E+03 -6.39682E+03
  1.36142E+03 -6.79554E+03  4.72763E+03 -2.91987E+03  3.43883E+03  3.15130E+03 -1.48197E+03  5.78487E+03
 -6.77434E+03  3.06669E+03 -8.32364E+03 -3.67362E+03 -4.93591E+03 -9.17964E+03  1.53883E+03 -9.05914E+03
  5.76496E+03 -5.64619E+03  7.36709E+03 -8.59237E+02  5.82111E+03  2.67954E+03  6.63164E+02  4.52872E+03
 -3.25813E+03  1.62425E+03 -3.92185E+03 -3.43653E+03  1.63029E+03 -7.57515E+03  8.81083E+03 -5.73719E+03
  1.09763E+04  9.13184E+02  1.06264E+04  7.41555E+03  3.79664E+03  1.13771E+04 -4.22147E+03  1.08784E+04
 -9.60109E+03  4.53342E+03 -9.78399E+03 -1.54171E+03 -5.11490E+03 -6.90120E+03  1.78397E+03 -7.10271E+03
  6.91209E+03 -2.99775E+03  5.89585E+03  2.96756E+03  2.17869E+03  6.26359E+03 -1.13803E+03  5.61771E+03
 -2.93927E+03  3.65676E+03 -2.74491E+03  1.20636E+03 -1.39838E+03  1.12402E+03 -1.59660E+03  2.66894E+03
 -3.11772E+03  4.23003E+03 -7.59843E+03  3.99865E+03 -1.15325E+04  9.18148E+01 -1.26988E+04 -7.69427E+03
 -7.30298E+03 -1.50938E+04  3.04945E+03 -1.74780E+04  1.08250E+04 -1.37224E+04  1.67916E+04 -4.72774E+03
  1.55432E+04  3.14957E+03  9.37027E+03  1.05817E+04  1.08564E+03  1.21547E+04 -4.62554E+03  8.82335E+03
 -6.50611E+03  3.48345E+03 -4.59709E+03 -1.34707E+03 -1.51716E+03 -8.70137E+02 -6.58424E+02 -1.42426E+02
 -2.19091E+03  4.60143E+02 -2.24951E+03 -7.88957E+02 -9.23676E+02 -2.70345E+03  1.39810E+02 -4.43431E+03
  5.31178E+03 -3.56102E+03  7.55166E+03  2.43528E+00  8.37779E+03  6.68404E+03  2.13480E+03  1.18752E+04
 -5.84769E+03  1.42898E+04 -1.28005E+04  8.06108E+03 -1.46199E+04 -1.18424E+03 -1.12940E+04 -9.17728E+03
 -4.33872E+03 -1.23625E+04  3.00486E+03 -1.18387E+04  7.79374E+03 -6.05695E+03  8.06408E+03  2.88957E+02
  4.53975E+03  3.69967E+03 -7.40647E+02  3.61713E+03 -2.18111E+03 -4.00727E+02  1.90688E+02 -2.96157E+03
  4.04281E+03 -1.79266E+03  4.87219E+03  9.97038E+02  3.42716E+03  4.61332E+03  2.07347E+02  6.50752E+03
 -5.42655E+03  5.41075E+03 -8.48659E+03  3.43375E+02 -7.51825E+03 -6.29725E+03 -1.09006E+03 -1.02926E+04
  5.99336E+03 -8.93688E+03  9.59199E+03 -2.82212E+03  9.56171E+03  2.02007E+03  5.35303E+03  7.68354E+03
  1.21076E+03  8.08736E+03 -3.14062E+03  6.59009E+03 -5.21742E+03  3.77035E+03 -4.44853E+03  6.07723E+02
 -2.45177E+03 -2.48326E+02 -2.21833E+03  1.10009E+03 -4.01145E+03  1.46896E+03 -6.26732E+03 -1.47856E+03
 -6.18874E+03 -4.42327E+03 -2.15516E+03 -8.69660E+03  3.53195E+03 -8.73292E+03  7.72274E+03 -4.40941E+03
  8.15239E+03  1.37456E+03  4.80488E+03  6.30807E+03 -4.55109E+02  8.30937E+03 -6.47333E+03  5.22960E+03
