 $NMID ID='MM_0lb_SNR800_13hz_g50_46.RAW', FMTDAT='(8E13.5)'
 TRAMP=1., VOLUME=1. $END
  3.09755E+05  5.23083E+02  3.37385E+05  2.51024E+05  8.44014E+04  3.38078E+05 -1.32484E+05  2.51285E+05
 -1.90189E+05  8.32819E+04 -1.11848E+05 -3.26908E+04  7.76907E+02 -5.03890E+04  5.39056E+04 -2.00299E+02
  3.56399E+04  5.29373E+04 -1.63608E+04  7.54274E+04 -6.10601E+04  6.41080E+04 -8.43100E+04  3.21690E+04
 -8.14767E+04 -1.13353E+04 -5.73823E+04 -5.14475E+04 -1.50029E+04 -6.97844E+04  2.77340E+04 -4.61141E+04
  4.03646E+04  4.10679E+03  1.63856E+04  4.81451E+04 -3.41341E+04  4.74482E+04 -6.70348E+04  2.00537E+02
 -5.38594E+04 -5.72469E+04 -6.92003E+03 -7.71478E+04  3.37520E+04 -5.53123E+04  4.82654E+04 -1.74290E+04
  4.38556E+04  1.13645E+04  3.18168E+04  2.61160E+04  1.60998E+04  2.96331E+04 -5.28842E+03  2.75850E+04
 -2.24149E+04  1.20667E+04 -1.83848E+04 -5.15908E+03  6.12212E+03 -7.59248E+03  2.26964E+04  1.27207E+04
  7.32205E+03  3.56586E+04 -3.22854E+04  3.57259E+04 -6.39110E+04  2.31465E+03 -5.74370E+04 -4.29547E+04
 -1.24604E+04 -6.37608E+04  3.99330E+04 -4.56495E+04  5.91080E+04 -2.66873E+03  3.48265E+04  3.26417E+04
 -5.85449E+03  3.63674E+04 -3.07113E+04  1.65080E+04 -3.09471E+04 -4.09723E+03 -1.74154E+04 -1.12852E+04
 -8.33415E+03 -1.35079E+04 -7.66332E+02 -1.83959E+04  7.85454E+03 -2.29949E+04  1.58440E+04 -1.32889E+04
  1.11007E+04  5.35006E+03 -8.66189E+03  1.29124E+04 -2.17592E+04 -4.73511E+03 -8.44338E+03 -3.45226E+04
  2.35700E+04 -4.41593E+04  4.90696E+04 -1.97591E+04  4.60785E+04  1.97452E+04  1.61965E+04  4.48369E+04
 -1.59837E+04  3.41555E+04 -2.57382E+04  2.31570E+03 -1.03252E+04 -2.80511E+04  2.10724E+04 -3.41686E+04
  4.18917E+04 -9.73350E+03  3.67200E+04  2.40887E+04  1.88078E+04  4.74997E+04 -8.20146E+03  5.15452E+04
 -3.24745E+04  3.49698E+04 -4.33695E+04  9.92549E+03 -4.36625E+04 -1.70449E+04 -2.39063E+04 -3.92100E+04
  7.53820E+03 -3.87116E+04  3.21128E+04 -1.50464E+04  3.00128E+04  1.12736E+04  4.26425E+03  1.95342E+04
 -1.37306E+04  8.65676E+03 -1.09649E+04 -7.55971E+03  5.95034E+03 -1.06574E+04  1.80913E+04  6.03121E+03
  1.39170E+04  2.26556E+04 -5.74724E+03  2.52169E+04 -2.23203E+04  1.22445E+04 -2.86758E+04 -4.41397E+03
 -2.20575E+04 -1.74030E+04 -9.04086E+03 -2.16266E+04  4.02424E+03 -2.09933E+04  1.62965E+04 -1.93146E+04
  2.72609E+04 -1.33640E+04  3.37881E+04  3.28763E+03  2.44117E+04  2.10768E+04  4.44717E+03  3.76290E+04
 -1.82416E+04  3.04912E+04 -2.82270E+04  1.08693E+04 -2.12759E+04 -1.00334E+04 -4.69449E+03 -1.33415E+04
  1.67108E+03 -2.36088E+03 -5.74009E+03  7.13265E+03 -1.68787E+04  5.33514E+03 -1.66896E+04 -7.48637E+03
 -1.01805E+04 -2.00224E+04  5.24112E+03 -2.39657E+04  1.60270E+04 -1.73215E+04  1.92395E+04 -1.91968E+03
  1.17026E+04  1.35166E+04 -1.11492E+03  1.99975E+04 -1.37422E+04  1.10561E+04 -2.01298E+04 -4.03822E+03
 -1.47930E+04 -1.78186E+04 -1.87462E+03 -2.41567E+04  1.07413E+04 -1.99497E+04  1.98913E+04 -9.93147E+03
  1.86822E+04 -1.50500E+02  1.32977E+04  4.79967E+03  6.92786E+03  1.31772E+03  1.00104E+04 -1.65546E+03
  1.83847E+04  2.72243E+03  2.08895E+04  1.56027E+04  1.33948E+04  3.18981E+04 -2.79016E+03  3.60411E+04
 -2.10563E+04  2.92828E+04 -3.40138E+04  1.46544E+04 -3.55976E+04 -2.80707E+03 -2.94664E+04 -2.04925E+04
 -1.23392E+04 -2.93068E+04  1.02712E+04 -2.62124E+04  2.27863E+04 -1.33573E+04  2.00230E+04  5.90001E+03
  7.50564E+03  1.56225E+04 -9.60619E+03  1.30210E+04 -1.70628E+04  2.87616E+03 -1.30792E+04 -1.05377E+04
  6.19108E+01 -1.57454E+04  8.21950E+03 -1.22555E+04  1.09957E+04 -1.29309E+03  2.81688E+03  6.89557E+03
 -7.45284E+03  2.65997E+03 -6.71447E+03 -5.72012E+03 -6.20534E+02 -1.42601E+04  9.91825E+03 -1.55246E+04
  1.78334E+04 -8.23274E+03  1.97702E+04  3.15488E+03  1.70286E+04  1.39022E+04  7.69097E+03  2.20428E+04
 -3.67524E+03  2.39792E+04 -1.54407E+04  1.49519E+04 -1.70977E+04  3.51135E+03 -1.17903E+04 -3.91752E+03
 -5.54067E+03 -5.31480E+03 -7.68211E+02  8.06312E+02 -2.39536E+03  2.77279E+03 -5.63231E+03  4.57664E+03
 -1.09458E+04 -8.35839E+02 -1.21037E+04 -9.46097E+03 -4.73597E+03 -1.53460E+04  5.03815E+03 -1.24346E+04
  1.06295E+04 -5.11932E+03  7.39590E+03  3.36291E+03 -1.25885E+02  4.68352E+03 -5.74024E+03 -2.07614E+02
 -5.49791E+03 -7.67043E+03 -1.08556E+03 -1.14427E+04  6.72107E+03 -1.23164E+04  1.52698E+04 -6.46720E+03
  1.75882E+04  1.35504E+03  1.33694E+04  1.04520E+04  2.53136E+03  1.38683E+04 -7.54582E+03  1.18527E+04
 -9.79573E+03  3.69535E+03 -5.14865E+03 -2.41587E+03  1.77479E+03 -3.45164E+03  6.55098E+03 -1.16324E+03
  6.08649E+03  5.16061E+03  9.66506E+02  9.48058E+03 -6.52099E+03  9.44285E+03 -1.18124E+04  2.40274E+03
 -7.81068E+03 -6.33377E+03  3.64123E+02 -1.00521E+04  6.29573E+03 -5.26903E+03  6.85882E+03  2.09989E+03
  1.70452E+03  7.02921E+03 -6.03067E+03  8.30714E+03 -9.27715E+03  3.81161E+03 -9.18363E+03 -3.13739E+03
 -5.45055E+03 -1.07420E+04  2.63883E+03 -1.24870E+04  1.07661E+04 -7.47120E+03  1.14563E+04  1.73195E+03
  7.42105E+03  9.64069E+03 -4.40961E+02  1.14619E+04 -8.33385E+03  6.35107E+03 -9.18404E+03 -4.36567E+02
 -8.25147E+03 -7.76965E+03 -1.86969E+03 -8.53843E+03  4.37237E+03 -7.03628E+03  5.25557E+03 -3.53373E+03
  3.96233E+03  1.02543E+03 -4.37217E+02  1.71361E+03 -1.26070E+02 -2.03767E+03  1.59573E+03 -4.56826E+03
  7.26130E+03 -2.21444E+03  1.03010E+04  1.27597E+03  1.03910E+04  7.19573E+03  7.51964E+03  1.35834E+04
 -3.06837E+03  1.57422E+04 -1.34082E+04  1.20633E+04 -1.75553E+04  2.38704E+03 -1.41728E+04 -5.83368E+03
 -7.10452E+03 -1.11495E+04  3.87073E+01 -9.95673E+03  3.21117E+03 -4.96584E+03  3.37615E+03 -3.71715E+03
  2.38831E+03 -2.08962E+03  3.29101E+03 -2.94800E+03  4.71276E+03 -2.41937E+03  5.69079E+03 -3.97026E+02
  7.47864E+03  1.73992E+03  3.58861E+03  6.62691E+03 -2.16066E+03  7.08432E+03 -7.84746E+03  5.37865E+03
 -9.37068E+03 -1.58405E+03 -5.68698E+03 -6.64686E+03 -1.97459E+02 -1.01386E+04  5.82025E+03 -1.05190E+04
  1.06888E+04 -5.97238E+03  1.26680E+04  1.40774E+03  9.14700E+03  8.48194E+03  1.35343E+03  1.15259E+04
 -4.71049E+03  9.87495E+03 -6.47174E+03  3.19430E+03 -4.18746E+03 -1.35235E+03 -1.64395E+03 -1.14842E+03
 -7.68793E+02 -4.59551E+01 -1.54434E+03  2.53199E+03 -4.36258E+03  1.85363E+03 -6.67253E+03 -7.61596E+02
 -4.04272E+03 -6.81073E+03  2.49420E+02 -9.34763E+03  5.79924E+03 -8.49465E+03  8.71752E+03 -2.16379E+03
  8.77584E+03  4.36727E+03  4.19499E+03  7.47799E+03 -1.86933E+03  9.25112E+03 -6.23513E+03  5.64503E+03
 -8.67796E+03  5.16484E+02 -6.76513E+03 -5.49795E+03 -7.07938E+02 -7.48551E+03  3.66380E+03 -5.23396E+03
  5.75232E+03 -1.96407E+03  3.50659E+03  1.42109E+03  1.04275E+03  3.03210E+03  9.83082E+02  9.90051E+02
  2.24033E+03  6.92966E+02  2.50261E+03  1.61357E+03  2.28905E+03  3.56077E+03  2.27856E+03  4.38049E+03
 -1.81426E+03  6.50828E+03 -5.86949E+03  7.36823E+03 -8.18558E+03  1.83494E+03 -9.86215E+03 -2.94651E+03
 -4.15986E+03 -8.83294E+03  1.79451E+03 -9.89477E+03  4.88172E+03 -6.08940E+03  7.27501E+03 -1.79036E+03
  5.80720E+03  3.61874E+03  1.11677E+03  4.81630E+03 -2.03795E+03  2.84160E+03 -3.18966E+03 -9.10365E+01
 -1.57124E+03 -3.89509E+03  1.87409E+03 -3.87610E+03  3.32287E+03 -1.89654E+03  3.61166E+03  6.18438E+02
  1.98054E+03  1.43820E+03  1.13737E+03  1.03064E+03 -5.81637E+02  1.29123E+03  1.66526E+03 -7.01259E+02
  1.21348E+03 -4.53732E+02  3.59168E+03  1.29308E+03  1.69650E+03  5.13051E+03 -9.06216E+02  6.12476E+03
 -4.03563E+03  3.68321E+03 -5.42001E+03  1.40534E+03 -4.76981E+03 -1.80549E+03 -1.62736E+03 -3.17597E+03
  6.89243E+02 -3.46339E+03  1.85080E+03 -1.63294E+03  2.06321E+03  1.97511E+03 -1.15133E+03  2.99149E+03
 -3.86181E+03  1.82186E+03 -3.85057E+03 -2.28636E+03 -2.39010E+03 -4.84065E+03  3.82995E+02 -4.52685E+03
  2.49561E+03 -2.50937E+03  2.99534E+03 -2.84814E+02  2.77634E+03  1.03748E+03  2.55493E+02  2.62647E+03
 -1.42129E+03  5.36363E+02 -2.23533E+03 -1.23632E+03  1.00219E+03 -3.14234E+03  3.64982E+03 -2.76781E+03
  4.74472E+03  3.59313E+02  5.36186E+03  3.09120E+03  1.85309E+03  5.30608E+03 -1.49590E+03  4.80303E+03
 -4.33250E+03  1.80403E+03 -4.07017E+03 -5.78139E+02 -2.52901E+03 -3.53639E+03  7.40409E+02 -2.75406E+03
  3.31263E+03 -1.66427E+03  2.58072E+03  1.21927E+03  8.81512E+02  3.17254E+03 -4.06358E+02  2.31540E+03
 -8.05378E+02  1.95459E+03 -9.46497E+02  5.35056E+02 -4.31036E+02  5.00363E+02 -1.20841E+03  1.27564E+03
 -1.46827E+03  2.25275E+03 -3.83364E+03  1.79740E+03 -4.78200E+03  1.39910E+02 -5.69266E+03 -3.06313E+03
 -3.00604E+03 -6.74328E+03  1.13839E+03 -7.94731E+03  4.80452E+03 -6.14993E+03  7.47303E+03 -2.40779E+03
  6.90427E+03  7.79062E+02  4.29198E+03  4.77778E+03 -2.74395E+02  4.85111E+03 -2.20308E+03  3.95815E+03
 -2.84345E+03  1.61433E+03 -1.88512E+03 -6.84826E+02 -9.85785E+02 -2.06347E+02 -4.22862E+02 -1.33615E+02
 -1.78438E+03 -2.20049E+02 -9.65637E+02 -2.11680E+02 -3.22834E+02 -1.55555E+03  1.28816E+01 -1.83639E+03
  2.83406E+03 -1.71222E+03  2.44147E+03  4.52978E+00  3.73985E+03  2.77724E+03  4.27447E+02  4.66473E+03
 -2.42694E+03  5.77453E+03 -5.10191E+03  3.16463E+03 -5.99299E+03 -2.54991E+02 -4.87633E+03 -3.71399E+03
 -2.29085E+03 -4.87963E+03  9.96524E+02 -4.89668E+03  2.92138E+03 -2.13764E+03  3.09173E+03  3.45621E+02
  1.73166E+03  1.27110E+03 -2.46427E+02  1.23638E+03 -8.97508E+02  2.42636E+02  8.08499E+01 -1.08672E+03
  1.62123E+03 -2.09048E+02  1.77109E+03  8.91277E+02  6.81066E+02  1.91517E+03  1.17131E+02  1.93273E+03
 -2.10379E+03  2.21650E+03 -2.71836E+03  1.35542E+02 -2.94073E+03 -1.80384E+03 -2.41923E+01 -4.11308E+03
  2.03767E+03 -2.86443E+03  3.31633E+03 -1.10059E+03  3.55488E+03  2.77844E+02  1.84556E+03  3.10290E+03
  5.33614E+02  2.78498E+03 -1.00874E+03  2.42896E+03 -2.07458E+03  1.57686E+03 -1.17544E+03  2.16166E+02
 -1.06179E+03 -1.10460E+02 -8.25027E+02 -2.77870E+01 -1.59567E+03  3.53407E+02 -2.40093E+03 -9.21084E+02
 -2.76166E+03 -1.06292E+03 -8.83127E+02 -2.85428E+03  1.49127E+03 -3.62257E+03  2.99728E+03 -1.24116E+03
  3.04322E+03  3.43295E+02  1.16529E+03  1.76490E+03 -5.86827E+02  2.83502E+03 -2.04361E+03  2.11159E+03
