 $NMID ID='MM_0lb_SNR800_14hz_g55_87.RAW', FMTDAT='(8E13.5)'
 TRAMP=1., VOLUME=1. $END
  3.09585E+05  3.39545E+02  3.37679E+05  2.50698E+05  8.46713E+04  3.38056E+05 -1.32542E+05  2.51256E+05
 -1.90200E+05  8.34921E+04 -1.11999E+05 -3.24874E+04  7.62599E+02 -5.04980E+04  5.36873E+04 -1.14916E+02
  3.53941E+04  5.28031E+04 -1.67455E+04  7.53876E+04 -6.10877E+04  6.38286E+04 -8.43178E+04  3.21427E+04
 -8.12758E+04 -1.13753E+04 -5.74246E+04 -5.12064E+04 -1.50762E+04 -6.99353E+04  2.73682E+04 -4.60890E+04
  4.03120E+04  3.90136E+03  1.66002E+04  4.79420E+04 -3.42970E+04  4.73755E+04 -6.71356E+04 -2.49539E+02
 -5.39851E+04 -5.70744E+04 -7.21313E+03 -7.74378E+04  3.39039E+04 -5.53002E+04  4.80323E+04 -1.76136E+04
  4.36446E+04  1.13155E+04  3.20090E+04  2.56409E+04  1.59851E+04  2.94881E+04 -5.48060E+03  2.70321E+04
 -2.20361E+04  1.23849E+04 -1.85279E+04 -5.11853E+03  5.91770E+03 -7.29324E+03  2.29048E+04  1.24757E+04
  7.17350E+03  3.59171E+04 -3.22350E+04  3.60741E+04 -6.37250E+04  2.07731E+03 -5.71611E+04 -4.32307E+04
 -1.26349E+04 -6.37127E+04  4.01073E+04 -4.55883E+04  5.89362E+04 -2.26386E+03  3.47226E+04  3.26479E+04
 -5.77118E+03  3.67895E+04 -3.00599E+04  1.67912E+04 -3.08825E+04 -4.19891E+03 -1.74290E+04 -1.10353E+04
 -8.42242E+03 -1.34654E+04 -8.71639E+02 -1.84535E+04  7.72290E+03 -2.29650E+04  1.53780E+04 -1.35582E+04
  1.13260E+04  5.24913E+03 -8.75440E+03  1.25292E+04 -2.16529E+04 -4.57096E+03 -8.27059E+03 -3.42930E+04
  2.30529E+04 -4.38162E+04  4.89079E+04 -2.01002E+04  4.57758E+04  1.97683E+04  1.59808E+04  4.45448E+04
 -1.63787E+04  3.38070E+04 -2.58694E+04  1.63148E+03 -1.01870E+04 -2.79705E+04  2.11046E+04 -3.45527E+04
  4.18603E+04 -9.45512E+03  3.62189E+04  2.41602E+04  1.85240E+04  4.74226E+04 -7.56132E+03  5.13835E+04
 -3.24685E+04  3.46977E+04 -4.27647E+04  9.93053E+03 -4.36766E+04 -1.71633E+04 -2.39346E+04 -3.86100E+04
  7.39178E+03 -3.86124E+04  3.19512E+04 -1.51503E+04  2.97288E+04  1.08407E+04  4.43222E+03  1.91574E+04
 -1.32873E+04  8.86042E+03 -1.03731E+04 -7.60843E+03  5.90413E+03 -1.09104E+04  1.80925E+04  5.92289E+03
  1.35971E+04  2.21690E+04 -5.86347E+03  2.53921E+04 -2.21966E+04  1.19017E+04 -2.87009E+04 -4.76263E+03
 -2.16604E+04 -1.74349E+04 -8.83641E+03 -2.10584E+04  4.09326E+03 -2.05727E+04  1.66651E+04 -1.90351E+04
  2.74347E+04 -1.31735E+04  3.35120E+04  3.09688E+03  2.42091E+04  2.03683E+04  4.49441E+03  3.74070E+04
 -1.83702E+04  3.11534E+04 -2.84536E+04  1.08811E+04 -2.11083E+04 -1.02182E+04 -4.36472E+03 -1.36436E+04
  1.59583E+03 -2.71496E+03 -5.22869E+03  6.81741E+03 -1.68454E+04  5.24556E+03 -1.70063E+04 -7.60575E+03
 -1.02921E+04 -1.96748E+04  5.40029E+03 -2.40596E+04  1.56283E+04 -1.71087E+04  1.86402E+04 -1.64361E+03
  1.17633E+04  1.33808E+04 -1.17562E+03  1.95608E+04 -1.34373E+04  1.11437E+04 -1.93330E+04 -3.92427E+03
 -1.43022E+04 -1.76886E+04 -1.69518E+03 -2.36429E+04  1.07157E+04 -1.93780E+04  1.94500E+04 -9.37493E+03
  1.84826E+04  2.51096E+02  1.30810E+04  4.35453E+03  7.39012E+03  7.52195E+02  9.86746E+03 -1.90126E+03
  1.80388E+04  3.01670E+03  2.02377E+04  1.55699E+04  1.36691E+04  3.12549E+04 -2.86851E+03  3.54969E+04
 -2.07413E+04  2.89055E+04 -3.31293E+04  1.42990E+04 -3.44601E+04 -2.50031E+03 -2.86202E+04 -2.03667E+04
 -1.20824E+04 -2.87977E+04  1.01563E+04 -2.59128E+04  2.19265E+04 -1.32592E+04  2.01888E+04  5.68169E+03
  7.26766E+03  1.47443E+04 -9.23147E+03  1.29805E+04 -1.70771E+04  2.53414E+03 -1.26632E+04 -1.07271E+04
 -1.72616E+02 -1.56728E+04  8.33759E+03 -1.19732E+04  1.06142E+04 -1.32076E+03  2.58349E+03  6.83603E+03
 -7.02084E+03  2.77661E+03 -6.59879E+03 -5.79329E+03 -7.92892E+02 -1.37227E+04  9.59174E+03 -1.50562E+04
  1.72501E+04 -7.93384E+03  1.89706E+04  3.09526E+03  1.63920E+04  1.40509E+04  7.44581E+03  2.13579E+04
 -3.56133E+03  2.31291E+04 -1.47553E+04  1.44456E+04 -1.69664E+04  3.19534E+03 -1.18893E+04 -4.05157E+03
 -5.05757E+03 -5.06799E+03 -8.44474E+02  9.68531E+02 -2.91978E+03  2.74310E+03 -5.55331E+03  4.52749E+03
 -1.11708E+04 -8.84697E+02 -1.13077E+04 -9.16154E+03 -4.64337E+03 -1.51536E+04  4.69542E+03 -1.18358E+04
  9.71011E+03 -5.16395E+03  6.77075E+03  3.24646E+03 -3.38041E+01  4.31897E+03 -5.38007E+03 -3.88949E+02
 -5.20117E+03 -7.49366E+03 -1.18820E+03 -1.11096E+04  6.35378E+03 -1.20413E+04  1.43456E+04 -6.28174E+03
  1.69650E+04  1.99233E+03  1.30052E+04  1.01141E+04  2.50295E+03  1.33460E+04 -7.23364E+03  1.16326E+04
 -9.66503E+03  3.47558E+03 -4.89257E+03 -2.24514E+03  1.90309E+03 -3.07300E+03  6.42103E+03 -1.09522E+03
  5.48011E+03  5.19242E+03  1.14428E+03  8.90481E+03 -6.68363E+03  8.75656E+03 -1.13190E+04  2.31681E+03
 -7.53582E+03 -5.49079E+03  1.88037E+02 -9.51683E+03  5.80232E+03 -4.71883E+03  6.07880E+03  2.07598E+03
  1.22883E+03  6.39921E+03 -5.98893E+03  7.55616E+03 -8.60061E+03  3.43184E+03 -8.48877E+03 -2.96202E+03
 -5.13152E+03 -1.04962E+04  2.18111E+03 -1.16835E+04  1.00370E+04 -7.21986E+03  1.09751E+04  1.51196E+03
  6.85583E+03  8.69041E+03 -9.14758E+02  1.06366E+04 -7.94170E+03  5.89458E+03 -8.52959E+03 -1.16352E+03
 -7.76635E+03 -7.33823E+03 -1.56312E+03 -7.94513E+03  4.17652E+03 -6.87470E+03  5.04547E+03 -3.10837E+03
  3.97866E+03  1.07579E+03 -2.45004E+02  1.44329E+03 -1.33166E+02 -1.66583E+03  1.04497E+03 -4.29968E+03
  7.34519E+03 -2.20484E+03  9.74625E+03  8.84696E+02  9.84577E+03  6.42600E+03  7.43225E+03  1.28684E+04
 -2.73413E+03  1.49375E+04 -1.27610E+04  1.08663E+04 -1.64732E+04  2.28987E+03 -1.32640E+04 -5.10943E+03
 -7.11422E+03 -1.08427E+04 -3.28687E+02 -8.99425E+03  3.29510E+03 -4.51290E+03  3.01982E+03 -3.49636E+03
  1.96832E+03 -2.21687E+03  2.98595E+03 -2.87652E+03  4.47375E+03 -2.01569E+03  5.59855E+03 -2.76620E+02
  6.91699E+03  1.74674E+03  2.69551E+03  5.97394E+03 -1.98877E+03  6.27681E+03 -7.09257E+03  5.05309E+03
 -8.88893E+03 -1.15451E+03 -4.94713E+03 -6.18900E+03  4.55543E+01 -9.95750E+03  5.25965E+03 -9.26847E+03
  9.40741E+03 -5.28076E+03  1.19638E+04  1.24683E+03  7.84927E+03  7.76866E+03  1.67770E+03  1.07392E+04
 -4.21218E+03  9.03660E+03 -5.91023E+03  2.97910E+03 -4.11139E+03 -1.26145E+03 -1.51576E+03 -1.50366E+03
 -1.20239E+03  2.25691E+02 -1.60519E+03  2.38868E+03 -3.92511E+03  1.80574E+03 -6.47779E+03 -8.04569E+02
 -3.91679E+03 -6.39766E+03  4.13643E+02 -8.45055E+03  5.23215E+03 -7.77010E+03  7.65554E+03 -2.30477E+03
  7.99717E+03  4.33634E+03  3.57090E+03  7.30353E+03 -1.61003E+03  8.45327E+03 -5.50871E+03  5.22590E+03
 -7.66425E+03  5.08895E+02 -6.02088E+03 -4.91495E+03 -5.60145E+02 -6.78484E+03  3.54268E+03 -4.99676E+03
  4.95537E+03 -2.03526E+03  3.31296E+03  1.17345E+03  1.58293E+03  2.47857E+03  9.31011E+02  1.24882E+03
  2.12798E+03  6.30733E+02  1.94304E+03  1.40811E+03  2.41101E+03  3.46067E+03  2.27589E+03  3.89209E+03
 -1.90734E+03  6.05093E+03 -5.43357E+03  6.89067E+03 -7.45556E+03  2.07032E+03 -8.36702E+03 -2.82631E+03
 -3.77775E+03 -7.91092E+03  1.49360E+03 -9.19306E+03  4.43624E+03 -5.62749E+03  6.38607E+03 -1.79198E+03
  4.99605E+03  3.27532E+03  1.32463E+03  4.28578E+03 -1.86708E+03  2.69522E+03 -3.01458E+03 -6.16847E+02
 -1.57260E+03 -3.39618E+03  2.09648E+03 -3.43951E+03  2.94998E+03 -1.61954E+03  2.85101E+03  7.40949E+02
  1.66658E+03  1.48569E+03  9.63355E+02  7.89953E+02 -4.87898E+02  1.23690E+03  1.59954E+03 -1.31731E+02
  9.34360E+02 -2.19093E+02  3.28353E+03  1.38497E+03  1.28342E+03  4.39773E+03 -5.89590E+02  5.45477E+03
 -3.69386E+03  2.90787E+03 -4.83409E+03  7.71816E+02 -4.14867E+03 -1.58928E+03 -1.26169E+03 -2.57209E+03
  7.49328E+02 -2.79949E+03  1.73913E+03 -1.75985E+03  1.75875E+03  1.85961E+03 -1.29499E+03  2.08459E+03
 -3.08719E+03  1.61277E+03 -3.39805E+03 -2.00597E+03 -1.89295E+03 -3.97990E+03  5.53848E+02 -4.07741E+03
  2.04507E+03 -2.09765E+03  2.31063E+03 -2.16444E+02  2.59770E+03  7.58836E+02  4.61886E+02  2.20508E+03
 -8.55754E+02  3.55101E+02 -1.91207E+03 -1.20983E+03  7.77018E+02 -2.80631E+03  3.83011E+03 -1.83699E+03
  3.84443E+03  3.49785E+02  4.66736E+03  2.38296E+03  1.33323E+03  4.29542E+03 -1.30955E+03  4.36295E+03
 -3.67485E+03  1.30557E+03 -3.73894E+03 -1.76973E+02 -1.91735E+03 -2.64071E+03  4.20488E+02 -2.60935E+03
  2.95856E+03 -1.25075E+03  2.39373E+03  1.36542E+03  4.95832E+02  2.74508E+03 -9.45679E+01  2.23012E+03
 -9.62072E+02  1.97579E+03 -1.11661E+03  3.90880E+02 -2.56227E+02  6.19943E+02 -1.04820E+03  1.07408E+03
 -9.04527E+02  2.00209E+03 -3.42455E+03  1.42313E+03 -3.98071E+03  9.38033E+01 -5.01637E+03 -2.95736E+03
 -2.63478E+03 -5.63254E+03  1.16465E+03 -6.67718E+03  3.84230E+03 -5.23838E+03  6.38958E+03 -2.01707E+03
  5.90632E+03  6.09098E+02  3.03832E+03  3.77175E+03  3.10969E+01  3.89339E+03 -1.55539E+03  2.93006E+03
 -2.50870E+03  1.37287E+03 -1.40191E+03 -4.72991E+02 -8.60609E+02 -3.02564E+02 -4.03116E+02 -2.30876E+02
 -1.03375E+03  6.30788E+01 -1.34765E+03 -1.83947E+02 -2.31538E+02 -9.14659E+02 -2.45010E+02 -1.98258E+03
  2.01918E+03 -1.65370E+03  2.19150E+03  9.08438E+01  3.04480E+03  2.39703E+03  6.45040E+01  3.83247E+03
 -2.14741E+03  5.10340E+03 -4.57887E+03  2.93059E+03 -4.83716E+03 -1.79556E+02 -3.66519E+03 -3.35084E+03
 -1.73606E+03 -3.93919E+03  1.08626E+03 -3.66246E+03  2.56956E+03 -1.78724E+03  2.62223E+03  2.96540E+02
  1.91465E+03  1.38157E+03  7.53861E+00  1.07484E+03 -8.49223E+02  8.30957E+00  1.09186E+02 -8.68281E+02
  1.39302E+03 -1.89220E+02  1.33261E+03  5.98273E+02  9.12240E+02  1.55151E+03  3.44689E+02  1.47066E+03
 -1.84000E+03  1.76324E+03 -2.23493E+03  2.46592E+02 -2.13744E+03 -1.78053E+03 -1.65936E+02 -3.57488E+03
  1.73009E+03 -2.44894E+03  2.50751E+03 -7.86807E+02  2.67901E+03  1.74409E+02  1.45116E+03  2.25690E+03
  5.42148E+02  2.19069E+03 -7.94909E+02  1.97549E+03 -1.42248E+03  1.28464E+03 -1.26244E+03 -2.14259E+01
 -9.39159E+02 -2.31320E+02 -1.08677E+03  5.81983E+02 -1.56558E+03  4.31991E+02 -2.04139E+03 -6.06425E+02
 -2.05160E+03 -7.89349E+02 -9.09788E+02 -2.64549E+03  1.34893E+03 -3.02591E+03  2.35288E+03 -1.04161E+03
  2.51677E+03  3.11240E+02  7.38101E+02  1.40725E+03 -4.37581E+01  2.12219E+03 -1.70587E+03  1.76795E+03
