 $NMID ID='MM_0lb_SNR800_13hz_g55_55.RAW', FMTDAT='(8E13.5)'
 TRAMP=1., VOLUME=1. $END
  3.10002E+05  5.39189E+02  3.37671E+05  2.50760E+05  8.47997E+04  3.38047E+05 -1.32726E+05  2.51416E+05
 -1.90898E+05  8.34060E+04 -1.12189E+05 -3.25087E+04  5.78511E+02 -5.03816E+04  5.40427E+04 -2.81824E+02
  3.55596E+04  5.30253E+04 -1.66870E+04  7.54253E+04 -6.12115E+04  6.39282E+04 -8.48422E+04  3.25199E+04
 -8.18803E+04 -1.13911E+04 -5.74888E+04 -5.17995E+04 -1.51417E+04 -7.03098E+04  2.75023E+04 -4.58240E+04
  4.04131E+04  3.66791E+03  1.64272E+04  4.81179E+04 -3.42483E+04  4.74751E+04 -6.70222E+04 -4.91692E+02
 -5.37665E+04 -5.72909E+04 -7.01880E+03 -7.78821E+04  3.42906E+04 -5.53542E+04  4.87722E+04 -1.78825E+04
  4.42258E+04  1.12790E+04  3.22010E+04  2.63952E+04  1.59742E+04  2.99673E+04 -5.51121E+03  2.75948E+04
 -2.20452E+04  1.20995E+04 -1.82846E+04 -5.05972E+03  6.00739E+03 -7.24955E+03  2.28046E+04  1.27921E+04
  7.22357E+03  3.59784E+04 -3.29202E+04  3.61616E+04 -6.41955E+04  2.31694E+03 -5.75901E+04 -4.35275E+04
 -1.29512E+04 -6.39736E+04  4.03088E+04 -4.59437E+04  5.93739E+04 -2.45011E+03  3.50772E+04  3.32539E+04
 -5.49729E+03  3.75438E+04 -3.08337E+04  1.73313E+04 -3.15539E+04 -4.16353E+03 -1.78625E+04 -1.15152E+04
 -8.85678E+03 -1.42501E+04 -9.03417E+02 -1.88156E+04  7.90104E+03 -2.33605E+04  1.58172E+04 -1.28493E+04
  1.11583E+04  5.82582E+03 -8.97713E+03  1.29092E+04 -2.22721E+04 -5.09488E+03 -8.47555E+03 -3.48097E+04
  2.33499E+04 -4.47288E+04  4.96049E+04 -1.99183E+04  4.63868E+04  2.00491E+04  1.62255E+04  4.53524E+04
 -1.62287E+04  3.44351E+04 -2.62390E+04  2.07600E+03 -1.04055E+04 -2.86437E+04  2.11391E+04 -3.46956E+04
  4.24250E+04 -9.81829E+03  3.71148E+04  2.45892E+04  1.91678E+04  4.81422E+04 -8.07595E+03  5.24327E+04
 -3.29047E+04  3.54276E+04 -4.39810E+04  1.00857E+04 -4.47074E+04 -1.76195E+04 -2.43671E+04 -3.93888E+04
  7.44418E+03 -3.92288E+04  3.25582E+04 -1.53902E+04  3.02043E+04  1.07380E+04  4.62443E+03  1.99005E+04
 -1.32012E+04  8.56048E+03 -1.05021E+04 -7.81842E+03  5.81828E+03 -1.05664E+04  1.83872E+04  5.75972E+03
  1.39775E+04  2.23136E+04 -5.80786E+03  2.56149E+04 -2.23301E+04  1.21014E+04 -2.90815E+04 -4.33906E+03
 -2.22719E+04 -1.77079E+04 -9.54647E+03 -2.22127E+04  3.92942E+03 -2.19084E+04  1.69010E+04 -1.98561E+04
  2.83653E+04 -1.31123E+04  3.42586E+04  3.28510E+03  2.45679E+04  2.12910E+04  4.58974E+03  3.78355E+04
 -1.84202E+04  3.16393E+04 -2.88356E+04  1.09644E+04 -2.17347E+04 -1.00775E+04 -4.64492E+03 -1.32257E+04
  1.54788E+03 -1.96214E+03 -5.95105E+03  7.33269E+03 -1.75714E+04  5.05294E+03 -1.77477E+04 -7.66164E+03
 -1.05804E+04 -2.02706E+04  5.48844E+03 -2.43126E+04  1.61662E+04 -1.75069E+04  1.93519E+04 -1.85443E+03
  1.22675E+04  1.44297E+04 -1.26120E+03  2.03808E+04 -1.43634E+04  1.19449E+04 -2.05435E+04 -4.58326E+03
 -1.49910E+04 -1.84322E+04 -1.72857E+03 -2.46403E+04  1.11402E+04 -2.00441E+04  2.05127E+04 -1.03710E+04
  1.90571E+04  8.03656E+00  1.37022E+04  4.59144E+03  7.37207E+03  1.04259E+03  1.03837E+04 -1.69127E+03
  1.89324E+04  2.58124E+03  2.13472E+04  1.59377E+04  1.43151E+04  3.28117E+04 -3.01819E+03  3.74252E+04
 -2.16065E+04  3.05622E+04 -3.49826E+04  1.52706E+04 -3.71069E+04 -2.48193E+03 -3.04739E+04 -2.12816E+04
 -1.25903E+04 -3.04365E+04  1.04708E+04 -2.76400E+04  2.28638E+04 -1.33234E+04  2.09611E+04  6.26253E+03
  7.53013E+03  1.55542E+04 -9.81122E+03  1.31738E+04 -1.73982E+04  2.91476E+03 -1.31884E+04 -1.09363E+04
 -1.42319E+02 -1.62929E+04  8.86735E+03 -1.21651E+04  1.12719E+04 -1.10689E+03  2.44062E+03  7.27704E+03
 -7.46209E+03  3.24842E+03 -7.06147E+03 -6.09025E+03 -9.62696E+02 -1.50772E+04  1.01828E+04 -1.59131E+04
  1.86308E+04 -8.37190E+03  2.01976E+04  2.97753E+03  1.78575E+04  1.50000E+04  7.91774E+03  2.28833E+04
 -3.85657E+03  2.48127E+04 -1.59875E+04  1.55234E+04 -1.75338E+04  3.15587E+03 -1.24692E+04 -4.09303E+03
 -5.83879E+03 -5.75349E+03 -5.71422E+02  8.85365E+02 -2.53595E+03  3.02605E+03 -5.53092E+03  4.63831E+03
 -1.16513E+04 -6.22680E+02 -1.18328E+04 -9.89393E+03 -4.82104E+03 -1.58689E+04  5.27790E+03 -1.22711E+04
  1.04356E+04 -5.09488E+03  7.47020E+03  3.25082E+03 -3.54636E+02  5.14216E+03 -6.15881E+03  1.80832E+02
 -5.65022E+03 -7.76161E+03 -8.63036E+02 -1.19371E+04  6.97071E+03 -1.26745E+04  1.56023E+04 -6.58139E+03
  1.85497E+04  1.66559E+03  1.34705E+04  1.09087E+04  2.52844E+03  1.43568E+04 -7.91958E+03  1.25098E+04
 -1.02741E+04  4.01987E+03 -4.83638E+03 -2.57456E+03  2.07491E+03 -3.34922E+03  6.81568E+03 -5.34434E+02
  6.01491E+03  5.45550E+03  9.60177E+02  9.98723E+03 -6.93117E+03  9.55795E+03 -1.19887E+04  2.64040E+03
 -7.77938E+03 -6.03788E+03  2.74954E+02 -1.06638E+04  6.32197E+03 -5.13149E+03  6.95451E+03  2.48037E+03
  1.46051E+03  6.91984E+03 -6.48213E+03  8.44704E+03 -9.50854E+03  3.75720E+03 -9.59704E+03 -3.37566E+03
 -5.66962E+03 -1.13458E+04  2.83572E+03 -1.29836E+04  1.11622E+04 -7.97641E+03  1.21888E+04  2.18612E+03
  7.42459E+03  9.44679E+03 -9.39225E+02  1.18159E+04 -8.66537E+03  6.59067E+03 -9.35183E+03 -8.73728E+02
 -8.00293E+03 -8.17238E+03 -1.37776E+03 -8.85711E+03  4.39224E+03 -7.45095E+03  5.35809E+03 -3.10032E+03
  3.89854E+03  1.09030E+03 -6.89778E+02  1.48616E+03 -2.21730E+02 -1.91274E+03  1.23489E+03 -4.49160E+03
  7.85115E+03 -3.05861E+03  1.09004E+04  9.94781E+02  1.11522E+04  7.30843E+03  8.14337E+03  1.43092E+04
 -3.12231E+03  1.65057E+04 -1.41925E+04  1.23944E+04 -1.83914E+04  2.15329E+03 -1.43198E+04 -6.01736E+03
 -7.54648E+03 -1.18632E+04 -3.69353E+02 -9.74118E+03  3.49607E+03 -5.56303E+03  3.34355E+03 -3.59322E+03
  2.72410E+03 -2.42187E+03  2.94629E+03 -2.97415E+03  4.47449E+03 -2.61960E+03  5.88168E+03 -5.63074E+02
  7.78271E+03  2.01385E+03  3.73387E+03  6.66953E+03 -2.06310E+03  7.55960E+03 -7.72585E+03  5.54505E+03
 -1.00284E+04 -1.39154E+03 -5.80608E+03 -6.87408E+03 -9.96036E+02 -1.04933E+04  5.88134E+03 -1.05451E+04
  1.07949E+04 -5.69285E+03  1.30019E+04  1.32365E+03  9.19772E+03  9.07522E+03  1.83345E+03  1.20833E+04
 -4.65928E+03  1.01940E+04 -6.63134E+03  3.34312E+03 -4.75245E+03 -1.51175E+03 -1.87239E+03 -1.31334E+03
 -6.80368E+02  1.62737E+02 -1.69686E+03  2.64642E+03 -4.11361E+03  1.84574E+03 -7.05313E+03 -1.02670E+03
 -4.56950E+03 -7.00072E+03  2.83097E+02 -9.76502E+03  5.65883E+03 -9.30936E+03  8.99472E+03 -2.75524E+03
  9.63711E+03  4.51304E+03  4.21257E+03  7.94909E+03 -1.63974E+03  9.27381E+03 -6.87344E+03  6.10417E+03
 -8.69407E+03  7.53294E+02 -7.09040E+03 -5.54309E+03 -7.55665E+02 -7.76205E+03  3.96752E+03 -5.41253E+03
  5.68666E+03 -2.05981E+03  4.27894E+03  1.50359E+03  1.34536E+03  3.28509E+03  1.12465E+03  1.10242E+03
  2.19523E+03  8.40155E+02  2.63138E+03  1.58549E+03  2.91529E+03  3.53856E+03  2.44159E+03  4.78781E+03
 -2.22090E+03  7.23144E+03 -6.34906E+03  7.93522E+03 -8.56092E+03  2.49972E+03 -9.59114E+03 -3.34170E+03
 -4.43015E+03 -8.86845E+03  1.37424E+03 -1.04470E+04  5.51541E+03 -6.36107E+03  7.51747E+03 -1.58378E+03
  5.83234E+03  3.46744E+03  1.37986E+03  5.10741E+03 -2.68790E+03  3.33060E+03 -3.52750E+03 -5.19882E+02
 -1.85490E+03 -3.74595E+03  2.12758E+03 -3.82466E+03  3.57766E+03 -1.89459E+03  3.46356E+03  8.21690E+02
  1.87739E+03  1.64369E+03  1.15023E+03  9.49313E+02 -6.01958E+02  1.62652E+03  1.78412E+03 -5.67698E+02
  1.27024E+03 -5.37276E+02  3.87558E+03  1.66032E+03  1.87498E+03  4.79168E+03 -7.77407E+02  6.49383E+03
 -4.38795E+03  3.92141E+03 -5.61057E+03  8.76112E+02 -5.26278E+03 -1.71356E+03 -1.73228E+03 -2.87231E+03
  5.23598E+02 -3.42561E+03  2.14378E+03 -1.50260E+03  1.87103E+03  1.76307E+03 -1.03397E+03  3.11901E+03
 -3.33507E+03  1.61371E+03 -4.04495E+03 -2.37226E+03 -2.25473E+03 -4.72862E+03  9.60555E+02 -4.69422E+03
  2.38131E+03 -2.54724E+03  3.15186E+03 -2.88845E+02  2.85188E+03  7.84654E+02  7.51521E+02  2.94217E+03
 -1.12635E+03  7.90370E+02 -2.21142E+03 -1.20935E+03  1.18026E+03 -3.79608E+03  4.25985E+03 -2.59900E+03
  4.52845E+03  7.61848E+02  5.55360E+03  3.38620E+03  2.02345E+03  5.01326E+03 -1.58129E+03  5.20758E+03
 -4.36728E+03  1.96279E+03 -4.58432E+03 -4.41114E+02 -2.27981E+03 -3.66614E+03  1.00130E+03 -3.19139E+03
  3.83489E+03 -1.87423E+03  2.53609E+03  1.47442E+03  8.07628E+02  3.05888E+03 -1.91862E+02  2.65843E+03
 -1.39927E+03  2.05710E+03 -1.30730E+03  5.38837E+02 -1.95346E+02  2.95917E+02 -1.33000E+03  1.00518E+03
 -1.35459E+03  2.29215E+03 -4.08588E+03  1.66218E+03 -4.94960E+03  3.90018E+02 -5.90666E+03 -3.47960E+03
 -2.98444E+03 -6.60929E+03  1.68936E+03 -7.92331E+03  4.67115E+03 -6.69138E+03  7.44424E+03 -2.22058E+03
  7.08618E+03  1.19654E+03  4.03082E+03  4.61770E+03  9.55528E+00  4.80795E+03 -2.28452E+03  3.68806E+03
 -2.74564E+03  1.84885E+03 -1.74817E+03 -5.69047E+02 -7.61485E+02 -5.55287E+02 -5.40498E+02 -5.03909E+01
 -1.21792E+03  1.32014E+01 -1.30889E+03  2.98557E+01  2.83392E+01 -1.25893E+03 -3.82340E+01 -2.16834E+03
  2.74646E+03 -1.82350E+03  2.44130E+03  2.66504E+02  3.78639E+03  2.77416E+03  2.63265E+02  5.30845E+03
 -2.34019E+03  6.15709E+03 -5.55345E+03  3.29016E+03 -6.11246E+03 -4.67262E+02 -4.38126E+03 -3.56970E+03
 -1.97367E+03 -4.79763E+03  9.07527E+02 -4.56670E+03  2.99880E+03 -2.70818E+03  3.12453E+03  5.11162E+02
  1.66520E+03  1.42951E+03 -2.48607E+02  1.25931E+03 -1.14577E+03 -4.88692E+01 -2.66564E+02 -1.18779E+03
  1.62928E+03 -5.87588E+02  1.85807E+03  5.46935E+02  1.19293E+03  1.88726E+03  3.63637E+02  2.41887E+03
 -1.87997E+03  2.28989E+03 -2.92948E+03  1.14907E+02 -2.89181E+03 -2.15965E+03 -4.95311E+02 -3.67137E+03
  2.40128E+03 -3.04666E+03  3.09392E+03 -6.85745E+02  3.07337E+03  1.44831E+02  1.84640E+03  2.84696E+03
  5.69584E+02  3.00917E+03 -1.02770E+03  2.45410E+03 -1.74428E+03  1.25112E+03 -1.51919E+03  3.72095E+02
 -1.01901E+03 -3.43074E+02 -1.06629E+03  2.61064E+02 -1.82664E+03  5.57706E+02 -2.54227E+03 -4.44192E+02
 -2.59786E+03 -1.31380E+03 -8.25989E+02 -3.13068E+03  1.78619E+03 -3.64945E+03  2.92855E+03 -1.31974E+03
  2.85608E+03  4.06829E+02  1.18686E+03  2.00472E+03 -4.77943E+02  3.08829E+03 -2.34909E+03  2.17693E+03
