 $NMID ID='MM_0lb_SNR800_19hz_g60_6.RAW', FMTDAT='(8E13.5)'
 TRAMP=1., VOLUME=1. $END
  3.09788E+05  2.60794E+02  3.37374E+05  2.50504E+05  8.44806E+04  3.37850E+05 -1.32464E+05  2.50645E+05
 -1.90015E+05  8.29597E+04 -1.11694E+05 -3.29940E+04  9.97235E+02 -5.05057E+04  5.36119E+04 -2.78919E+01
  3.53239E+04  5.26694E+04 -1.65560E+04  7.55296E+04 -6.07258E+04  6.31176E+04 -8.38014E+04  3.17237E+04
 -8.04788E+04 -1.12180E+04 -5.67637E+04 -5.08918E+04 -1.53741E+04 -6.90215E+04  2.70363E+04 -4.53785E+04
  3.96594E+04  4.01053E+03  1.57087E+04  4.72779E+04 -3.40002E+04  4.68605E+04 -6.59668E+04 -3.46630E+02
 -5.27683E+04 -5.63291E+04 -6.91646E+03 -7.61885E+04  3.33736E+04 -5.39632E+04  4.75968E+04 -1.67010E+04
  4.26097E+04  1.13495E+04  3.13892E+04  2.47995E+04  1.57285E+04  2.87970E+04 -5.18838E+03  2.68436E+04
 -2.17508E+04  1.25972E+04 -1.89643E+04 -4.69704E+03  4.95168E+03 -7.76763E+03  2.18819E+04  1.17347E+04
  7.35980E+03  3.42012E+04 -3.12747E+04  3.46358E+04 -6.23467E+04  2.23382E+03 -5.62506E+04 -4.19780E+04
 -1.25927E+04 -6.18774E+04  3.89738E+04 -4.44093E+04  5.71559E+04 -2.45673E+03  3.32076E+04  3.14774E+04
 -6.51187E+03  3.46185E+04 -2.91396E+04  1.49155E+04 -2.89786E+04 -4.95515E+03 -1.55003E+04 -1.04853E+04
 -7.87708E+03 -1.22001E+04 -9.13701E+02 -1.72721E+04  7.35037E+03 -2.28425E+04  1.51646E+04 -1.37026E+04
  1.18548E+04  4.59837E+03 -7.20733E+03  1.31380E+04 -2.00103E+04 -3.40297E+03 -8.01410E+03 -3.20235E+04
  2.18146E+04 -4.18902E+04  4.62783E+04 -1.95576E+04  4.30935E+04  1.87643E+04  1.47750E+04  4.27332E+04
 -1.56180E+04  3.22354E+04 -2.43288E+04  1.48751E+03 -8.82165E+03 -2.68035E+04  2.06884E+04 -3.22427E+04
  3.95696E+04 -8.00436E+03  3.32735E+04  2.32197E+04  1.63250E+04  4.41864E+04 -7.84936E+03  4.72918E+04
 -2.96068E+04  3.15034E+04 -3.90847E+04  8.56980E+03 -4.03089E+04 -1.56308E+04 -2.22219E+04 -3.59016E+04
  6.85804E+03 -3.56974E+04  2.98588E+04 -1.31988E+04  2.76612E+04  1.06891E+04  3.54291E+03  1.84559E+04
 -1.33121E+04  7.67367E+03 -9.85168E+03 -7.53851E+03  6.14033E+03 -1.02062E+04  1.75376E+04  6.30346E+03
  1.27608E+04  2.19930E+04 -6.54763E+03  2.41999E+04 -2.18354E+04  9.96435E+03 -2.62157E+04 -5.96244E+03
 -1.82392E+04 -1.66516E+04 -6.86989E+03 -1.80931E+04  3.66296E+03 -1.64727E+04  1.36016E+04 -1.54698E+04
  2.28370E+04 -1.22689E+04  2.98515E+04  1.75249E+03  2.21142E+04  1.77596E+04  4.16830E+03  3.39822E+04
 -1.65528E+04  2.84828E+04 -2.65621E+04  9.85346E+03 -2.00247E+04 -1.05541E+04 -4.00474E+03 -1.36514E+04
  2.47458E+03 -3.43801E+03 -3.19931E+03  5.49872E+03 -1.40177E+04  5.05339E+03 -1.43284E+04 -5.65987E+03
 -9.06552E+03 -1.64634E+04  4.62099E+03 -2.04196E+04  1.34236E+04 -1.47468E+04  1.57477E+04 -1.64218E+03
  9.74629E+03  1.16511E+04 -8.58487E+02  1.66458E+04 -1.10685E+04  9.46305E+03 -1.63022E+04 -3.80865E+03
 -1.22790E+04 -1.47761E+04 -1.66289E+03 -2.01967E+04  9.07782E+03 -1.62125E+04  1.68893E+04 -8.22930E+03
  1.51441E+04  5.17455E+02  1.13973E+04  3.95433E+03  5.50072E+03  7.33031E+02  8.30055E+03 -1.29463E+03
  1.48644E+04  2.29246E+03  1.57198E+04  1.33050E+04  1.00274E+04  2.60660E+04 -3.05367E+03  2.84522E+04
 -1.67056E+04  2.20192E+04 -2.63144E+04  1.09444E+04 -2.68265E+04 -1.75385E+03 -2.30264E+04 -1.54913E+04
 -1.04521E+04 -2.20207E+04  7.56788E+03 -2.06015E+04  1.77374E+04 -1.12631E+04  1.64149E+04  3.99280E+03
  6.62417E+03  1.20470E+04 -7.78972E+03  1.07133E+04 -1.38196E+04  2.74899E+03 -1.10015E+04 -8.33109E+03
 -1.43668E+02 -1.29594E+04  6.38829E+03 -9.78549E+03  8.24685E+03 -1.34954E+03  1.63587E+03  5.37197E+03
 -5.86145E+03  1.55298E+03 -4.13331E+03 -4.87166E+03  4.41727E+02 -1.08529E+04  8.05316E+03 -1.07036E+04
  1.30611E+04 -5.20706E+03  1.29699E+04  3.03822E+03  1.12243E+04  1.02980E+04  5.15759E+03  1.50376E+04
 -1.92116E+03  1.69705E+04 -1.02923E+04  1.07146E+04 -1.20298E+04  3.02288E+03 -8.88272E+03 -2.45869E+03
 -4.41537E+03 -3.75937E+03 -6.91660E+02  1.46278E+03 -1.95643E+03  2.01318E+03 -3.95536E+03  3.72166E+03
 -8.10561E+03 -5.51953E+02 -9.01960E+03 -7.67199E+03 -3.69415E+03 -1.22589E+04  3.76396E+03 -9.13131E+03
  7.43895E+03 -3.94493E+03  5.58572E+03  2.38876E+03  6.17708E+02  3.47311E+03 -3.91205E+03 -1.89906E+02
 -3.46265E+03 -5.38048E+03 -6.59510E+02 -7.34921E+03  4.03953E+03 -8.29123E+03  1.04338E+04 -4.34488E+03
  1.23802E+04  6.53988E+02  9.13243E+03  6.60539E+03  1.79140E+03  9.12048E+03 -5.39700E+03  8.58957E+03
 -7.20728E+03  2.98231E+03 -4.04826E+03 -1.37882E+03  1.44094E+03 -1.91368E+03  5.26637E+03 -9.00677E+02
  4.48484E+03  3.39142E+03  1.25815E+03  6.65719E+03 -4.49382E+03  6.75045E+03 -7.93192E+03  1.91472E+03
 -5.10551E+03 -3.96997E+03  3.67666E+02 -7.13182E+03  3.96865E+03 -3.41159E+03  3.46691E+03  8.71364E+02
  6.59222E+02  3.48745E+03 -4.06314E+03  4.97099E+03 -4.88041E+03  2.33868E+03 -4.70183E+03 -1.12110E+03
 -3.06832E+03 -6.24372E+03  9.87030E+02 -7.42310E+03  6.15413E+03 -4.79364E+03  6.62938E+03  1.02826E+03
  4.76868E+03  5.58711E+03  1.30845E+02  7.29993E+03 -5.35270E+03  4.55307E+03 -5.40678E+03 -4.98565E+02
 -5.91095E+03 -5.49213E+03 -1.47031E+03 -5.14710E+03  2.38490E+03 -4.78648E+03  3.08058E+03 -2.78231E+03
  2.94530E+03  4.90961E+02 -2.59197E+01  1.29992E+03  7.93206E+02 -3.14641E+02  1.67337E+01 -1.94275E+03
  3.94952E+03 -1.09952E+03  5.64023E+03  4.74454E+02  5.69685E+03  3.23455E+03  5.41572E+03  7.68445E+03
 -1.22451E+03  8.87331E+03 -7.75959E+03  6.64805E+03 -1.00313E+04  1.27764E+03 -7.93958E+03 -2.30512E+03
 -4.38007E+03 -6.68053E+03 -3.07767E+02 -5.35570E+03  1.97937E+03 -2.02688E+03  1.86920E+03 -2.06341E+03
  1.46249E+03 -1.88446E+03  2.14813E+03 -2.57471E+03  3.55491E+03 -1.36309E+03  3.60343E+03  5.13551E+02
  4.36119E+03  1.11632E+03  1.31384E+03  3.48097E+03 -1.64985E+03  2.92557E+03 -4.50972E+03  2.79094E+03
 -5.02762E+03 -9.86005E+02 -2.16357E+03 -3.26004E+03  6.45992E+02 -4.75686E+03  3.18321E+03 -5.45604E+03
  4.96146E+03 -3.37771E+03  6.81675E+03  3.15479E+02  4.54506E+03  4.10896E+03  9.96508E+02  5.69895E+03
 -1.94868E+03  5.68624E+03 -3.31267E+03  1.99064E+03 -1.82151E+03 -1.31438E+03 -4.13118E+02 -5.96655E+02
 -5.47947E+02  3.35797E+02 -9.44054E+02  2.07507E+03 -2.47309E+03  1.28465E+03 -4.01406E+03 -3.27461E+02
 -1.53181E+03 -3.93992E+03  6.74146E+02 -4.33829E+03  2.72246E+03 -4.30347E+03  3.34684E+03 -1.22259E+03
  4.25638E+03  2.47507E+03  1.93666E+03  3.11537E+03 -6.06599E+02  4.28227E+03 -2.56829E+03  2.54054E+03
 -3.64970E+03  4.27393E+02 -3.60872E+03 -2.37779E+03 -3.23571E+02 -3.08736E+03  1.54400E+03 -2.17380E+03
  2.73440E+03 -1.28574E+03  1.72677E+03  3.53076E+02  4.77221E+02  1.77782E+03  8.74780E+02  2.99381E+02
  1.75264E+03  5.46778E+02  1.24615E+03  1.14314E+03  7.08930E+02  1.97555E+03  9.96139E+02  1.75567E+03
 -1.45327E+03  2.99734E+03 -2.55576E+03  3.91444E+03 -2.86454E+03  1.29420E+03 -3.77749E+03 -1.00155E+02
 -1.87934E+03 -3.28684E+03  6.53295E+02 -4.53812E+03  1.53218E+03 -2.53753E+03  2.94355E+03 -1.08525E+03
  2.40853E+03  1.47285E+03  3.17360E+02  2.04432E+03 -6.88052E+02  1.21142E+03 -9.67906E+02  6.25706E+01
 -4.35946E+02 -1.54989E+03  1.30320E+03 -1.53285E+03  1.39815E+03 -6.95820E+02  1.23306E+03  5.55684E+02
  7.25610E+02  2.12516E+02  5.54898E+02 -3.08616E+02 -2.99100E+02  4.60324E+02  1.39318E+03 -1.87993E+02
  4.90230E+01 -4.00489E+02  1.70379E+03  5.21409E+02  8.52770E+01  2.04619E+03 -1.90997E+02  2.83621E+03
 -1.57549E+03  9.13767E+02 -2.12750E+03  4.19202E+02 -2.20545E+03 -9.70052E+02  9.76002E+01 -1.11590E+03
  5.21538E+02 -1.03701E+03  5.97705E+02 -1.15757E+03  3.87102E+02  1.21817E+03 -7.89778E+02  1.21439E+03
 -1.27179E+03  7.13027E+02 -1.03531E+03 -1.12345E+03 -5.86750E+02 -2.01363E+03  6.00907E+01 -1.28526E+03
  3.70985E+02 -5.49566E+02  4.81462E+02  1.65382E+02  1.35402E+03 -3.41693E+02  2.70648E+02  1.00234E+03
 -1.52904E+01  9.70544E+01 -6.49621E+02  1.26231E+02  4.44074E+02 -6.47465E+02  1.70868E+03 -8.55138E+02
  9.01736E+02  2.94947E+02  2.77364E+03  4.78534E+02  1.09925E+03  1.29485E+03 -1.80586E+02  1.67702E+03
 -1.28278E+03  1.01010E+02 -1.26271E+03 -6.80566E+01 -7.33856E+02 -1.28240E+03  2.36039E+02 -2.46184E+02
  1.43315E+03 -5.06519E+02  6.25942E+02  7.86964E+02  2.56212E+02  9.78023E+02  1.59150E+02  1.01781E+03
 -4.74246E+02  1.08879E+03 -1.93397E+02  3.55398E+02  1.44174E+02  2.72043E+02 -1.11376E+03  4.80814E+02
 -2.46462E+02  8.65143E+02 -1.48224E+03  2.20913E+02 -1.40383E+03  1.71388E+02 -2.23835E+03 -7.22220E+02
 -7.70458E+02 -1.91818E+03  3.94519E+02 -2.38888E+03  8.89895E+02 -2.19203E+03  2.42369E+03 -8.56795E+02
  1.63997E+03 -2.45306E+02  1.13326E+03  1.16003E+03 -5.69535E+02  1.23363E+03 -5.84687E+02  8.14452E+02
 -7.86122E+02  6.77893E+02 -4.08235E+02  6.22513E+01 -3.24837E+02  1.99499E+02 -8.79109E+02  6.38797E+01
 -1.15604E+03 -1.92258E+01 -9.45067E+02  7.91451E+01  2.96595E+02 -4.87473E+02 -3.93364E+02 -7.36841E+02
  1.44376E+03 -6.52081E+02  1.94654E+02  1.40309E+02  7.96241E+02  6.08380E+02 -3.29702E+02  1.14592E+03
 -8.18588E+02  2.01248E+03 -1.44245E+03  9.37925E+02 -1.16361E+03 -1.05025E+02 -1.07866E+03 -1.13416E+03
 -6.12620E+02 -1.04702E+03 -1.85026E+02 -1.04822E+03  5.07676E+02 -6.85931E+02  2.89097E+02  3.34614E+01
  5.19893E+02  3.59842E+02 -6.82941E+01  2.99557E+02 -1.72978E+02  2.82964E+01  7.40630E+01 -4.89285E+01
  5.50246E+02  2.05636E+02  2.94587E+02  3.91268E+02 -2.80066E+02  5.34896E+02  4.06552E+02  1.55446E+02
 -5.97695E+02  5.12639E+02 -1.13921E+02  2.20412E+02 -5.32381E+02 -1.83022E+02  2.36761E+02 -9.82446E+02
  2.18401E+02 -4.40774E+02  3.58211E+02  2.25086E+02  9.31688E+02 -6.41555E+02  1.55151E+02  7.22240E+02
  6.40161E+02  3.60800E+02 -1.21365E+02  4.65143E+02 -2.69973E+02  4.04318E+02 -2.35027E+02  4.85782E+01
 -2.27153E+02 -1.51567E+02 -2.09687E+02  2.39813E+02 -7.96966E+02 -1.16532E+02 -5.48249E+02 -3.25683E+02
 -1.10976E+03  5.35949E+02 -2.74710E+02 -6.67302E+02  7.76240E+02 -1.38083E+03  6.51919E+02 -1.73294E+02
  4.10732E+02 -3.62249E+01 -2.80880E+02  1.96261E+02 -2.48529E+01  6.97083E+02 -1.36861E+02  8.81009E+02
