 $NMID ID='MM_0lb_SNR800_10hz_g50_15.RAW', FMTDAT='(8E13.5)'
 TRAMP=1., VOLUME=1. $END
  3.10043E+05  4.93720E+02  3.37906E+05  2.50546E+05  8.51560E+04  3.38169E+05 -1.32938E+05  2.51959E+05
 -1.91051E+05  8.34332E+04 -1.12707E+05 -3.22042E+04  4.04280E+02 -5.09851E+04  5.39363E+04 -3.76335E+02
  3.58487E+04  5.29528E+04 -1.66932E+04  7.58666E+04 -6.08701E+04  6.44615E+04 -8.49651E+04  3.23621E+04
 -8.18777E+04 -1.17766E+04 -5.82044E+04 -5.19408E+04 -1.47662E+04 -7.08813E+04  2.77273E+04 -4.63929E+04
  4.08821E+04  3.13450E+03  1.67424E+04  4.86660E+04 -3.51237E+04  4.80079E+04 -6.80710E+04  8.23323E+01
 -5.47152E+04 -5.76788E+04 -7.15347E+03 -7.87046E+04  3.42278E+04 -5.63630E+04  4.97130E+04 -1.79022E+04
  4.45850E+04  1.12121E+04  3.26265E+04  2.64117E+04  1.57242E+04  3.04352E+04 -5.18193E+03  2.76587E+04
 -2.22958E+04  1.23094E+04 -1.80119E+04 -5.34608E+03  7.02913E+03 -7.52990E+03  2.33300E+04  1.35760E+04
  7.20466E+03  3.70012E+04 -3.38310E+04  3.67737E+04 -6.53313E+04  2.09718E+03 -5.86528E+04 -4.41446E+04
 -1.28338E+04 -6.50761E+04  4.12169E+04 -4.68488E+04  5.99546E+04 -2.05988E+03  3.60192E+04  3.36279E+04
 -5.56597E+03  3.84960E+04 -3.13702E+04  1.84380E+04 -3.28361E+04 -3.52838E+03 -1.89478E+04 -1.16758E+04
 -9.23035E+03 -1.46896E+04 -1.58183E+02 -1.97280E+04  8.28813E+03 -2.32363E+04  1.59106E+04 -1.31005E+04
  1.06910E+04  5.88761E+03 -1.02645E+04  1.26288E+04 -2.30546E+04 -6.01238E+03 -8.21151E+03 -3.67057E+04
  2.44761E+04 -4.61547E+04  5.12266E+04 -2.08233E+04  4.77257E+04  2.00753E+04  1.70390E+04  4.67553E+04
 -1.68673E+04  3.54216E+04 -2.71854E+04  2.49734E+03 -1.13875E+04 -2.93800E+04  2.11593E+04 -3.62009E+04
  4.39948E+04 -1.07428E+04  3.92974E+04  2.43594E+04  2.08811E+04  5.01460E+04 -8.17302E+03  5.49162E+04
 -3.43359E+04  3.73577E+04 -4.64105E+04  1.05588E+04 -4.60982E+04 -1.79719E+04 -2.57127E+04 -4.13324E+04
  7.90251E+03 -4.12583E+04  3.38198E+04 -1.65054E+04  3.16337E+04  1.12284E+04  4.95432E+03  2.06221E+04
 -1.36903E+04  9.15489E+03 -1.07949E+04 -8.07813E+03  5.62329E+03 -1.12938E+04  1.89483E+04  5.63821E+03
  1.43582E+04  2.25765E+04 -5.72981E+03  2.65952E+04 -2.33033E+04  1.35433E+04 -3.08219E+04 -3.33312E+03
 -2.44981E+04 -1.83565E+04 -1.07139E+04 -2.42221E+04  4.22086E+03 -2.43683E+04  1.86457E+04 -2.18404E+04
  3.07260E+04 -1.40986E+04  3.67440E+04  4.74755E+03  2.67086E+04  2.39159E+04  3.85711E+03  4.02243E+04
 -1.95422E+04  3.32206E+04 -3.01872E+04  1.12889E+04 -2.22747E+04 -1.00502E+04 -4.80185E+03 -1.30333E+04
  9.91675E+02 -1.07405E+03 -7.01050E+03  8.14809E+03 -1.93482E+04  4.92312E+03 -1.96483E+04 -8.98906E+03
 -1.12429E+04 -2.23069E+04  6.19670E+03 -2.67438E+04  1.78707E+04 -1.89746E+04  2.12902E+04 -1.77917E+03
  1.39763E+04  1.54632E+04 -6.36037E+02  2.23299E+04 -1.58231E+04  1.29391E+04 -2.27188E+04 -4.73965E+03
 -1.69349E+04 -1.98977E+04 -2.36036E+03 -2.65670E+04  1.24804E+04 -2.22804E+04  2.27159E+04 -1.14408E+04
  2.13337E+04 -8.74963E+01  1.54261E+04  5.40335E+03  8.33477E+03  1.50141E+03  1.14396E+04 -1.78033E+03
  2.10814E+04  2.94406E+03  2.42955E+04  1.75851E+04  1.66507E+04  3.57753E+04 -2.90085E+03  4.19248E+04
 -2.38292E+04  3.50562E+04 -3.98085E+04  1.79775E+04 -4.26286E+04 -2.84495E+03 -3.43644E+04 -2.49863E+04
 -1.38158E+04 -3.52380E+04  1.24674E+04 -3.05705E+04  2.64556E+04 -1.49188E+04  2.34571E+04  7.82044E+03
  7.90454E+03  1.80185E+04 -1.11460E+04  1.50384E+04 -1.93179E+04  2.74018E+03 -1.48770E+04 -1.21094E+04
 -5.15541E+02 -1.82655E+04  9.61395E+03 -1.36271E+04  1.27489E+04 -1.30310E+03  2.99354E+03  7.77076E+03
 -8.10943E+03  4.06472E+03 -8.70374E+03 -6.93257E+03 -1.58786E+03 -1.72586E+04  1.19158E+04 -1.88559E+04
  2.14651E+04 -1.03203E+04  2.43203E+04  3.25071E+03  2.18639E+04  1.71336E+04  9.66091E+03  2.73036E+04
 -4.95942E+03  2.94460E+04 -1.95346E+04  1.77227E+04 -2.13497E+04  4.01391E+03 -1.47915E+04 -5.21795E+03
 -6.23643E+03 -6.67677E+03 -7.26769E+02  3.93354E+02 -2.71379E+03  2.97663E+03 -6.79102E+03  5.42573E+03
 -1.32083E+04 -5.65183E+02 -1.42661E+04 -1.11905E+04 -5.83472E+03 -1.79826E+04  6.00979E+03 -1.47314E+04
  1.20804E+04 -5.98026E+03  8.58668E+03  3.75246E+03 -8.58182E+01  5.74807E+03 -7.33526E+03  2.36074E+02
 -7.38212E+03 -9.76991E+03 -1.16801E+03 -1.46405E+04  8.49128E+03 -1.50242E+04  1.87561E+04 -8.75389E+03
  2.15959E+04  2.33451E+03  1.58555E+04  1.34937E+04  3.06944E+03  1.78752E+04 -9.11261E+03  1.44273E+04
 -1.17460E+04  4.41176E+03 -6.26386E+03 -3.07797E+03  1.92738E+03 -4.14137E+03  7.42645E+03 -1.11899E+03
  6.83106E+03  6.10629E+03  1.38031E+03  1.16894E+04 -8.54886E+03  1.10119E+04 -1.43689E+04  2.68159E+03
 -9.89543E+03 -7.75030E+03  3.59510E+02 -1.24021E+04  8.29831E+03 -6.24085E+03  8.66401E+03  3.12838E+03
  1.88863E+03  9.33166E+03 -7.67775E+03  1.08725E+04 -1.24271E+04  4.54688E+03 -1.28043E+04 -4.38061E+03
 -7.33465E+03 -1.38812E+04  3.56602E+03 -1.65202E+04  1.39994E+04 -9.54363E+03  1.56221E+04  2.43070E+03
  9.25834E+03  1.21606E+04 -1.51310E+03  1.50094E+04 -1.11880E+04  8.32907E+03 -1.14657E+04 -1.85805E+03
 -1.02606E+04 -9.82907E+03 -1.42002E+03 -1.13230E+04  5.92985E+03 -8.80299E+03  7.14714E+03 -3.52919E+03
  4.53534E+03  2.04709E+03 -8.53790E+02  2.21432E+03 -3.03878E+02 -3.31323E+03  1.84617E+03 -6.68954E+03
  1.04162E+04 -4.53773E+03  1.42140E+04  1.36645E+03  1.41139E+04  1.01201E+04  9.19039E+03  1.90587E+04
 -4.07491E+03  2.17053E+04 -1.80233E+04  1.60726E+04 -2.37838E+04  3.18085E+03 -1.88631E+04 -8.21251E+03
 -9.43363E+03 -1.57424E+04  3.60828E+01 -1.33231E+04  4.81542E+03 -7.43614E+03  4.73235E+03 -4.92149E+03
  3.31681E+03 -2.52682E+03  3.48358E+03 -3.81565E+03  4.92678E+03 -3.02481E+03  7.82554E+03 -1.04715E+03
  9.81913E+03  2.25314E+03  5.15784E+03  8.44760E+03 -2.11111E+03  1.00152E+04 -1.02520E+04  7.82728E+03
 -1.34859E+04 -1.05727E+03 -8.17140E+03 -9.14414E+03 -1.19718E+03 -1.43791E+04  8.02036E+03 -1.41309E+04
  1.50018E+04 -7.70003E+03  1.77847E+04  2.52509E+03  1.20122E+04  1.22884E+04  1.97167E+03  1.58199E+04
 -6.73361E+03  1.29078E+04 -9.33872E+03  4.42977E+03 -6.27535E+03 -1.44478E+03 -2.88207E+03 -2.11182E+03
 -1.73699E+03  1.05826E+02 -2.03476E+03  2.63032E+03 -6.06218E+03  2.24912E+03 -9.14452E+03 -1.51215E+03
 -5.96475E+03 -9.40209E+03  1.99870E+02 -1.32697E+04  8.25120E+03 -1.22956E+04  1.28548E+04 -3.58174E+03
  1.29308E+04  6.57112E+03  6.16959E+03  1.13856E+04 -2.49525E+03  1.32354E+04 -9.48251E+03  8.57334E+03
 -1.22667E+04  7.23916E+02 -8.96465E+03 -8.23107E+03 -1.15655E+03 -1.09668E+04  5.61684E+03 -7.92601E+03
  8.07976E+03 -2.67846E+03  5.58913E+03  1.72183E+03  2.28378E+03  4.19757E+03  1.45878E+03  2.12427E+03
  2.65737E+03  9.44770E+02  3.30831E+03  1.73488E+03  4.01672E+03  4.74190E+03  3.31165E+03  6.78007E+03
 -2.77428E+03  1.00693E+04 -9.04137E+03  1.05581E+04 -1.36937E+04  2.59973E+03 -1.38691E+04 -5.35916E+03
 -6.82219E+03 -1.33234E+04  2.25311E+03 -1.46614E+04  8.13953E+03 -9.07219E+03  1.08056E+04 -2.76011E+03
  8.64893E+03  5.11868E+03  1.95096E+03  7.77564E+03 -3.58035E+03  5.22675E+03 -5.48527E+03 -9.73902E+02
 -2.70888E+03 -5.72689E+03  3.08782E+03 -5.77540E+03  5.63462E+03 -2.54848E+03  5.23071E+03  7.79651E+02
  3.34922E+03  2.31917E+03  1.18315E+03  2.06228E+03 -5.61114E+02  2.18860E+03  1.69641E+03 -6.71753E+02
  2.23171E+03 -5.91328E+02  5.44028E+03  2.28698E+03  3.22025E+03  7.14036E+03 -1.18566E+03  9.16280E+03
 -6.53742E+03  5.91379E+03 -8.47194E+03  1.58118E+03 -7.59089E+03 -3.26148E+03 -2.78085E+03 -4.72150E+03
  7.04155E+02 -5.19882E+03  3.36765E+03 -2.63756E+03  2.90495E+03  2.85755E+03 -1.64368E+03  4.48124E+03
 -5.49695E+03  2.30378E+03 -6.55838E+03 -2.84027E+03 -3.40200E+03 -7.08724E+03  1.31520E+03 -7.34909E+03
  4.00127E+03 -3.85152E+03  5.16368E+03 -3.81964E+02  4.29129E+03  1.98882E+03  1.06360E+03  3.93478E+03
 -2.99509E+03  1.10650E+03 -3.05314E+03 -1.96590E+03  1.22345E+03 -5.48837E+03  6.91484E+03 -4.37102E+03
  8.34642E+03  5.99718E+02  8.25000E+03  5.53848E+03  3.34875E+03  8.36614E+03 -2.89690E+03  8.03487E+03
 -6.56506E+03  3.52045E+03 -7.32892E+03 -1.48322E+03 -4.01222E+03 -6.01288E+03  1.40389E+03 -4.88402E+03
  5.06942E+03 -2.58697E+03  4.55869E+03  1.96810E+03  1.27208E+03  4.76667E+03 -1.03819E+03  4.55232E+03
 -1.92977E+03  2.93202E+03 -2.12569E+03  9.52587E+02 -1.14371E+03  5.01499E+02 -1.19595E+03  1.73771E+03
 -2.13609E+03  3.43828E+03 -5.82900E+03  2.79386E+03 -8.34547E+03  1.89706E+02 -9.52097E+03 -5.60958E+03
 -4.78009E+03 -1.11664E+04  2.23451E+03 -1.27864E+04  7.86769E+03 -1.02269E+04  1.24042E+04 -4.05072E+03
  1.15490E+04  2.31088E+03  7.14355E+03  7.78518E+03  3.75204E+02  8.83230E+03 -3.48359E+03  6.64185E+03
 -4.84928E+03  2.05488E+03 -3.24396E+03 -1.02038E+03 -6.36076E+02 -4.01579E+02 -4.04707E+02  2.77477E+02
 -1.71499E+03  3.46088E+02 -2.13034E+03 -1.05619E+02 -3.90613E+02 -2.07570E+03  9.82580E+01 -3.49841E+03
  3.78508E+03 -3.02252E+03  5.23919E+03 -1.63906E+01  6.14064E+03  4.79659E+03  1.19327E+03  8.76073E+03
 -4.31657E+03  1.01121E+04 -9.33864E+03  5.76561E+03 -1.04476E+04 -9.67444E+02 -8.09775E+03 -6.45041E+03
 -3.30847E+03 -8.65752E+03  2.29656E+03 -8.27757E+03  5.50855E+03 -4.12771E+03  5.72838E+03  4.01338E+02
  3.34367E+03  2.77432E+03 -5.40942E+02  2.72575E+03 -1.67123E+03 -1.89522E+02 -6.94872E+01 -1.85630E+03
  2.75139E+03 -1.08565E+03  3.00283E+03  9.53550E+02  2.38222E+03  3.44704E+03  3.48659E+02  4.72157E+03
 -3.96616E+03  3.95228E+03 -5.83687E+03  5.54795E+02 -5.23486E+03 -4.24010E+03 -8.67363E+02 -7.34533E+03
  4.23783E+03 -6.35923E+03  6.37097E+03 -1.78221E+03  6.57398E+03  1.38730E+03  4.17670E+03  5.43849E+03
  1.14843E+03  5.93842E+03 -2.48960E+03  4.86860E+03 -3.34776E+03  2.40836E+03 -3.20151E+03  3.96096E+02
 -1.72935E+03 -2.90546E+02 -1.85924E+03  7.18907E+02 -3.03981E+03  1.17701E+03 -4.37981E+03 -1.11860E+03
 -4.55647E+03 -2.90383E+03 -1.53004E+03 -5.77142E+03  2.80378E+03 -6.21877E+03  5.12340E+03 -3.20164E+03
  5.86003E+03  6.21620E+02  3.15378E+03  3.99348E+03 -1.62760E+02  5.93899E+03 -4.32333E+03  3.45914E+03
