 $NMID ID='MM_0lb_SNR800_10hz_g40_47.RAW', FMTDAT='(8E13.5)'
 TRAMP=1., VOLUME=1. $END
  3.09877E+05  6.28242E+02  3.37555E+05  2.50562E+05  8.48567E+04  3.38113E+05 -1.32611E+05  2.51614E+05
 -1.90903E+05  8.38609E+04 -1.12191E+05 -3.25423E+04  3.49246E+02 -5.05152E+04  5.39581E+04 -1.32947E+02
  3.55472E+04  5.26853E+04 -1.67090E+04  7.59419E+04 -6.08045E+04  6.40894E+04 -8.44391E+04  3.25194E+04
 -8.16351E+04 -1.17747E+04 -5.79503E+04 -5.15228E+04 -1.49726E+04 -7.06049E+04  2.79733E+04 -4.62520E+04
  4.07338E+04  3.85080E+03  1.66614E+04  4.81943E+04 -3.46959E+04  4.79003E+04 -6.76034E+04 -1.15366E+02
 -5.43208E+04 -5.73123E+04 -7.15916E+03 -7.81103E+04  3.42651E+04 -5.60916E+04  4.94359E+04 -1.79763E+04
  4.46256E+04  1.14763E+04  3.22319E+04  2.62432E+04  1.62311E+04  2.99318E+04 -5.60069E+03  2.78111E+04
 -2.21759E+04  1.17139E+04 -1.85035E+04 -5.42628E+03  6.58155E+03 -7.72358E+03  2.29460E+04  1.31746E+04
  7.04609E+03  3.64034E+04 -3.29471E+04  3.65697E+04 -6.43770E+04  2.25896E+03 -5.79530E+04 -4.38284E+04
 -1.24981E+04 -6.45805E+04  4.09668E+04 -4.60790E+04  6.02326E+04 -2.76789E+03  3.54878E+04  3.31623E+04
 -5.75069E+03  3.79531E+04 -3.10610E+04  1.79551E+04 -3.23184E+04 -4.03744E+03 -1.80148E+04 -1.16935E+04
 -8.99377E+03 -1.40390E+04 -5.12494E+02 -1.90392E+04  7.81331E+03 -2.37723E+04  1.55961E+04 -1.23855E+04
  1.06592E+04  5.87846E+03 -9.66130E+03  1.29676E+04 -2.23951E+04 -5.67338E+03 -8.36515E+03 -3.60350E+04
  2.41345E+04 -4.55777E+04  5.04973E+04 -2.04973E+04  4.69383E+04  2.00258E+04  1.66271E+04  4.57345E+04
 -1.63313E+04  3.48085E+04 -2.63794E+04  2.80323E+03 -1.10937E+04 -2.85679E+04  2.15826E+04 -3.52076E+04
  4.30056E+04 -1.06381E+04  3.85264E+04  2.45563E+04  1.98592E+04  4.92452E+04 -8.12016E+03  5.34995E+04
 -3.37620E+04  3.66773E+04 -4.50365E+04  1.03438E+04 -4.56391E+04 -1.79169E+04 -2.50860E+04 -4.03088E+04
  8.01352E+03 -4.04170E+04  3.30386E+04 -1.65814E+04  3.11810E+04  1.09113E+04  5.01834E+03  2.02632E+04
 -1.39825E+04  9.25838E+03 -1.12536E+04 -7.34623E+03  5.81869E+03 -1.10392E+04  1.89184E+04  5.81486E+03
  1.43846E+04  2.22140E+04 -5.66054E+03  2.60678E+04 -2.34975E+04  1.34364E+04 -3.01858E+04 -3.78752E+03
 -2.33565E+04 -1.84833E+04 -1.04786E+04 -2.34602E+04  4.07165E+03 -2.32931E+04  1.82454E+04 -2.12713E+04
  2.97198E+04 -1.37289E+04  3.57906E+04  3.63260E+03  2.52536E+04  2.24502E+04  4.22203E+03  3.94114E+04
 -1.88489E+04  3.23974E+04 -2.95241E+04  1.11943E+04 -2.18937E+04 -1.01015E+04 -4.72724E+03 -1.34198E+04
  1.09248E+03 -1.57358E+03 -6.44076E+03  7.97957E+03 -1.89739E+04  4.86751E+03 -1.86053E+04 -8.32842E+03
 -1.09470E+04 -2.13298E+04  5.59417E+03 -2.59262E+04  1.76717E+04 -1.88198E+04  2.08171E+04 -1.58356E+03
  1.33241E+04  1.50080E+04 -9.18940E+02  2.14671E+04 -1.52941E+04  1.24490E+04 -2.19613E+04 -4.13031E+03
 -1.59211E+04 -1.96795E+04 -1.90384E+03 -2.57606E+04  1.17496E+04 -2.13250E+04  2.18148E+04 -1.12332E+04
  2.04058E+04 -5.30731E+02  1.46142E+04  4.61063E+03  8.02186E+03  1.23572E+03  1.12322E+04 -1.40184E+03
  2.06489E+04  2.81198E+03  2.29462E+04  1.68715E+04  1.53207E+04  3.47124E+04 -2.82808E+03  4.04565E+04
 -2.28881E+04  3.33521E+04 -3.79792E+04  1.66084E+04 -4.04871E+04 -2.63251E+03 -3.27159E+04 -2.34790E+04
 -1.35721E+04 -3.36905E+04  1.17953E+04 -2.97473E+04  2.56593E+04 -1.41335E+04  2.20450E+04  7.29327E+03
  7.80063E+03  1.71362E+04 -1.03356E+04  1.43875E+04 -1.89305E+04  2.66255E+03 -1.40930E+04 -1.15445E+04
 -3.75227E+02 -1.78696E+04  9.61344E+03 -1.33181E+04  1.22927E+04 -1.59605E+03  3.00289E+03  7.73706E+03
 -7.69735E+03  3.25537E+03 -8.09307E+03 -6.28017E+03 -1.37642E+03 -1.59834E+04  1.09353E+04 -1.76928E+04
  2.04650E+04 -9.75723E+03  2.28319E+04  2.94837E+03  1.98091E+04  1.67564E+04  9.41967E+03  2.56806E+04
 -4.79606E+03  2.79506E+04 -1.80184E+04  1.71033E+04 -2.01489E+04  3.30027E+03 -1.38745E+04 -4.80348E+03
 -6.01805E+03 -6.36083E+03 -9.37336E+02  5.73984E+02 -2.64714E+03  2.89486E+03 -6.48999E+03  5.09874E+03
 -1.26177E+04 -8.30955E+02 -1.35530E+04 -1.08074E+04 -5.50662E+03 -1.79877E+04  5.54536E+03 -1.36809E+04
  1.18120E+04 -5.43787E+03  8.47928E+03  3.89272E+03 -3.62425E+02  5.82621E+03 -6.71571E+03 -3.46375E+02
 -6.41356E+03 -8.93727E+03 -7.34373E+02 -1.37125E+04  8.00305E+03 -1.46860E+04  1.79273E+04 -7.83859E+03
  2.05992E+04  1.94759E+03  1.50073E+04  1.27555E+04  2.63707E+03  1.66173E+04 -8.62690E+03  1.38609E+04
 -1.16573E+04  4.60241E+03 -5.64653E+03 -3.14581E+03  2.37103E+03 -3.91180E+03  7.56877E+03 -1.02751E+03
  6.70827E+03  6.50004E+03  1.36392E+03  1.10259E+04 -8.08521E+03  1.07691E+04 -1.39610E+04  2.68949E+03
 -9.51787E+03 -7.29838E+03  2.75397E+02 -1.19096E+04  8.05198E+03 -5.98392E+03  7.72829E+03  3.03958E+03
  1.69488E+03  8.60498E+03 -7.41568E+03  1.04910E+04 -1.15764E+04  4.73032E+03 -1.18588E+04 -4.46628E+03
 -6.56289E+03 -1.36826E+04  3.12796E+03 -1.58669E+04  1.33376E+04 -9.50374E+03  1.43235E+04  2.65230E+03
  9.08124E+03  1.15743E+04 -1.24127E+03  1.39230E+04 -1.02136E+04  7.74354E+03 -1.08272E+04 -1.28019E+03
 -9.52644E+03 -9.08658E+03 -1.84406E+03 -1.05286E+04  5.35103E+03 -8.39175E+03  6.33044E+03 -3.24405E+03
  4.37691E+03  1.50634E+03 -7.84209E+02  1.82076E+03 -2.11711E+02 -2.69059E+03  2.25645E+03 -6.24667E+03
  9.71083E+03 -4.21507E+03  1.40244E+04  1.51625E+03  1.34020E+04  8.81015E+03  9.32112E+03  1.78897E+04
 -3.72763E+03  2.08993E+04 -1.66858E+04  1.54208E+04 -2.23841E+04  2.95557E+03 -1.78059E+04 -7.76105E+03
 -8.93585E+03 -1.45177E+04 -1.93243E+02 -1.23952E+04  4.13740E+03 -7.13383E+03  3.98336E+03 -4.78249E+03
  3.41341E+03 -3.04743E+03  4.05379E+03 -3.48395E+03  5.42204E+03 -3.22374E+03  7.35973E+03 -1.03790E+03
  9.13720E+03  1.91619E+03  4.87399E+03  8.20173E+03 -1.75111E+03  9.13785E+03 -9.57894E+03  7.57238E+03
 -1.30653E+04 -1.43368E+03 -7.50163E+03 -8.70275E+03 -8.95644E+02 -1.36634E+04  7.71035E+03 -1.35248E+04
  1.37510E+04 -7.44771E+03  1.64444E+04  2.16149E+03  1.17209E+04  1.14623E+04  1.78728E+03  1.46995E+04
 -6.23867E+03  1.22907E+04 -8.93347E+03  4.01900E+03 -5.95411E+03 -1.72622E+03 -2.43812E+03 -1.71951E+03
 -1.14742E+03  9.60956E+01 -2.29780E+03  2.97587E+03 -5.54477E+03  1.79042E+03 -8.98539E+03 -1.11086E+03
 -6.22790E+03 -8.69559E+03  4.41287E+02 -1.25345E+04  7.31815E+03 -1.14436E+04  1.22656E+04 -3.52139E+03
  1.19301E+04  5.89360E+03  5.61366E+03  1.08392E+04 -2.37315E+03  1.26118E+04 -9.18090E+03  8.05591E+03
 -1.14979E+04  5.84770E+02 -9.34058E+03 -7.31488E+03 -9.83915E+02 -1.04998E+04  5.23633E+03 -7.67335E+03
  7.40536E+03 -2.60288E+03  5.64242E+03  1.78210E+03  1.65734E+03  3.55938E+03  1.31171E+03  1.48961E+03
  2.45149E+03  1.13488E+03  3.32422E+03  1.40163E+03  3.66661E+03  4.35811E+03  3.12216E+03  6.51644E+03
 -2.27523E+03  9.65567E+03 -8.57628E+03  1.00083E+04 -1.23137E+04  2.71455E+03 -1.29520E+04 -4.95579E+03
 -6.30619E+03 -1.23977E+04  1.84342E+03 -1.39220E+04  7.62103E+03 -8.29295E+03  1.01239E+04 -2.09937E+03
  7.72189E+03  4.56266E+03  1.52684E+03  7.25435E+03 -3.63559E+03  4.48437E+03 -4.65682E+03 -1.23126E+03
 -2.42706E+03 -5.48830E+03  2.79055E+03 -5.20531E+03  4.70837E+03 -2.71850E+03  5.05288E+03  7.17829E+02
  3.16774E+03  2.62894E+03  1.26712E+03  2.01157E+03 -3.64976E+02  1.66302E+03  1.59207E+03 -6.49417E+02
  1.74982E+03 -9.40967E+02  4.94358E+03  1.95922E+03  2.94268E+03  6.85049E+03 -1.01111E+03  8.44819E+03
 -6.25067E+03  5.88904E+03 -7.57181E+03  1.80289E+03 -7.05290E+03 -2.75820E+03 -2.66420E+03 -4.74536E+03
  7.87575E+02 -4.66258E+03  3.25240E+03 -2.51281E+03  2.88890E+03  2.53393E+03 -1.45943E+03  3.83502E+03
 -4.83510E+03  2.33904E+03 -6.15677E+03 -2.73010E+03 -3.37006E+03 -6.88081E+03  7.49998E+02 -6.40784E+03
  3.83585E+03 -4.22896E+03  4.62401E+03 -5.25781E+02  4.24283E+03  1.99482E+03  5.60066E+02  3.79261E+03
 -2.48212E+03  1.12587E+03 -2.91222E+03 -1.92435E+03  1.34391E+03 -5.34416E+03  5.80034E+03 -4.21341E+03
  7.43145E+03  8.92832E+02  7.57709E+03  5.46771E+03  2.34620E+03  7.93359E+03 -2.98260E+03  8.20345E+03
 -6.43597E+03  3.19846E+03 -6.88944E+03 -1.28111E+03 -3.56516E+03 -5.32800E+03  1.06790E+03 -4.74738E+03
  5.07979E+03 -2.32970E+03  4.11759E+03  2.11833E+03  1.52033E+03  4.45642E+03 -7.16648E+02  3.96036E+03
 -2.52260E+03  2.91874E+03 -2.07635E+03  1.06236E+03 -1.00492E+03  8.61237E+02 -1.10575E+03  1.46527E+03
 -1.78871E+03  3.15625E+03 -5.30578E+03  2.81931E+03 -7.95428E+03  4.13469E+00 -9.23273E+03 -5.10184E+03
 -4.43601E+03 -1.06693E+04  2.16644E+03 -1.22499E+04  7.46080E+03 -9.64158E+03  1.12697E+04 -3.53889E+03
  1.08250E+04  1.92472E+03  6.55509E+03  7.21014E+03  4.56420E+02  8.51170E+03 -3.28225E+03  6.01744E+03
 -4.61379E+03  1.97507E+03 -2.54108E+03 -1.04934E+03 -9.85348E+02 -7.46895E+02 -5.81880E+02  1.33379E+02
 -1.38774E+03  2.14566E+01 -1.88454E+03 -6.55133E+01 -4.97443E+02 -1.98539E+03 -4.90478E+01 -3.50412E+03
  3.83524E+03 -3.14861E+03  4.85166E+03 -1.19658E+02  5.75825E+03  4.63602E+03  1.45549E+03  8.22248E+03
 -3.87485E+03  9.03263E+03 -8.54862E+03  5.32002E+03 -1.01411E+04 -8.98227E+02 -6.96251E+03 -6.17589E+03
 -3.23945E+03 -8.36772E+03  1.98045E+03 -7.40972E+03  5.40958E+03 -4.16240E+03  5.57559E+03  1.06306E+02
  2.98225E+03  2.50565E+03 -4.86747E+01  2.34015E+03 -1.70148E+03 -2.24748E+02 -2.34458E+02 -1.67145E+03
  2.57132E+03 -8.11713E+02  3.46132E+03  1.60018E+03  2.50023E+03  3.52874E+03  3.98060E+02  4.24779E+03
 -3.60153E+03  3.83189E+03 -5.27604E+03  4.13542E+02 -5.06942E+03 -3.63705E+03 -3.01104E+02 -6.86846E+03
  3.98483E+03 -5.81985E+03  5.92656E+03 -1.17208E+03  6.31990E+03  1.32080E+03  3.62387E+03  5.19459E+03
  9.27644E+02  5.32048E+03 -1.99072E+03  4.37608E+03 -3.48929E+03  2.56767E+03 -3.18433E+03  5.26634E+02
 -1.39484E+03 -7.24875E+01 -1.84862E+03  7.48984E+02 -2.78352E+03  1.17896E+03 -3.69042E+03 -8.27209E+02
 -4.06021E+03 -2.73363E+03 -1.31277E+03 -5.67681E+03  2.62380E+03 -5.59130E+03  4.73124E+03 -2.33568E+03
  5.58245E+03  5.67114E+02  2.83904E+03  3.52193E+03 -4.27646E+02  5.25028E+03 -4.29434E+03  3.71767E+03
