 $NMID ID='MM_0lb_SNR800_15hz_g55_23.RAW', FMTDAT='(8E13.5)'
 TRAMP=1., VOLUME=1. $END
  3.10041E+05  6.35449E+02  3.38011E+05  2.50601E+05  8.45524E+04  3.38089E+05 -1.32162E+05  2.51169E+05
 -1.90526E+05  8.29573E+04 -1.11442E+05 -3.27026E+04  8.97585E+02 -5.03487E+04  5.38050E+04 -1.36228E+02
  3.54355E+04  5.27420E+04 -1.69600E+04  7.55001E+04 -6.11284E+04  6.37714E+04 -8.42914E+04  3.17772E+04
 -8.12606E+04 -1.14967E+04 -5.74070E+04 -5.12604E+04 -1.48452E+04 -6.95281E+04  2.75098E+04 -4.56968E+04
  3.99734E+04  4.14247E+03  1.61255E+04  4.81370E+04 -3.40978E+04  4.74311E+04 -6.66616E+04 -1.89792E+02
 -5.32629E+04 -5.72374E+04 -6.59117E+03 -7.69291E+04  3.38697E+04 -5.50938E+04  4.82006E+04 -1.70491E+04
  4.33300E+04  1.12456E+04  3.17698E+04  2.56885E+04  1.59075E+04  2.94419E+04 -5.59384E+03  2.73568E+04
 -2.17616E+04  1.22759E+04 -1.87061E+04 -4.74422E+03  5.86247E+03 -7.56990E+03  2.27347E+04  1.22348E+04
  7.57487E+03  3.51540E+04 -3.24151E+04  3.55488E+04 -6.31587E+04  1.92210E+03 -5.71979E+04 -4.30684E+04
 -1.26874E+04 -6.35157E+04  3.97686E+04 -4.50733E+04  5.83539E+04 -2.29697E+03  3.40951E+04  3.23655E+04
 -6.07909E+03  3.62468E+04 -3.04337E+04  1.56573E+04 -3.02959E+04 -4.40459E+03 -1.68977E+04 -1.09865E+04
 -8.52851E+03 -1.31464E+04 -5.75401E+02 -1.81841E+04  7.59471E+03 -2.31331E+04  1.52228E+04 -1.33384E+04
  1.15981E+04  5.27269E+03 -8.05450E+03  1.30980E+04 -2.12731E+04 -4.31063E+03 -8.19977E+03 -3.39781E+04
  2.30254E+04 -4.36187E+04  4.81626E+04 -1.96879E+04  4.51936E+04  1.93794E+04  1.57529E+04  4.40428E+04
 -1.60860E+04  3.35079E+04 -2.53313E+04  1.50268E+03 -1.01501E+04 -2.78756E+04  2.07988E+04 -3.38655E+04
  4.13494E+04 -9.06486E+03  3.55712E+04  2.40230E+04  1.82778E+04  4.64836E+04 -7.98418E+03  5.06367E+04
 -3.17469E+04  3.36156E+04 -4.22038E+04  9.38754E+03 -4.25281E+04 -1.67769E+04 -2.34498E+04 -3.78805E+04
  7.26573E+03 -3.75304E+04  3.11375E+04 -1.44649E+04  2.91519E+04  1.09687E+04  4.18365E+03  1.90723E+04
 -1.36995E+04  8.19257E+03 -1.06409E+04 -7.40945E+03  5.97781E+03 -1.10124E+04  1.80474E+04  5.98882E+03
  1.34886E+04  2.23846E+04 -6.19584E+03  2.49615E+04 -2.22494E+04  1.15043E+04 -2.80067E+04 -4.96967E+03
 -2.03475E+04 -1.75316E+04 -8.66838E+03 -2.04426E+04  4.32948E+03 -1.94162E+04  1.56689E+04 -1.80471E+04
  2.61754E+04 -1.29388E+04  3.24466E+04  2.76496E+03  2.37204E+04  1.98936E+04  4.26848E+03  3.61630E+04
 -1.76048E+04  3.04613E+04 -2.78549E+04  1.03592E+04 -2.10879E+04 -1.00870E+04 -4.39552E+03 -1.35429E+04
  1.64095E+03 -2.68722E+03 -4.93626E+03  6.58690E+03 -1.61502E+04  5.13865E+03 -1.63401E+04 -7.02940E+03
 -1.03879E+04 -1.90018E+04  5.23424E+03 -2.29839E+04  1.50137E+04 -1.65520E+04  1.76468E+04 -1.56124E+03
  1.09716E+04  1.27878E+04 -9.87400E+02  1.89865E+04 -1.30525E+04  1.06133E+04 -1.90960E+04 -4.09607E+03
 -1.36827E+04 -1.70978E+04 -1.82639E+03 -2.28088E+04  1.02809E+04 -1.86839E+04  1.90533E+04 -9.20044E+03
  1.74031E+04  2.93447E+02  1.27772E+04  4.23113E+03  6.72866E+03  6.28924E+02  9.43585E+03 -1.48624E+03
  1.73099E+04  2.80224E+03  1.93778E+04  1.49263E+04  1.24291E+04  2.98656E+04 -2.94642E+03  3.39512E+04
 -1.95361E+04  2.68379E+04 -3.16162E+04  1.35578E+04 -3.30341E+04 -2.49530E+03 -2.73934E+04 -1.89436E+04
 -1.16784E+04 -2.68577E+04  9.38345E+03 -2.48603E+04  2.08513E+04 -1.27236E+04  1.89838E+04  5.37981E+03
  7.24945E+03  1.42251E+04 -8.71655E+03  1.27029E+04 -1.59405E+04  2.60934E+03 -1.23949E+04 -1.00159E+04
  3.02591E+01 -1.51272E+04  7.95182E+03 -1.12929E+04  9.75305E+03 -1.36968E+03  2.17352E+03  6.22357E+03
 -6.81910E+03  2.34698E+03 -5.89461E+03 -5.09951E+03 -2.89900E+02 -1.30658E+04  9.14153E+03 -1.40418E+04
  1.65580E+04 -7.14784E+03  1.72119E+04  2.69682E+03  1.48384E+04  1.29778E+04  6.96082E+03  1.97372E+04
 -3.03141E+03  2.16823E+04 -1.36910E+04  1.36454E+04 -1.56030E+04  3.50870E+03 -1.08650E+04 -3.07810E+03
 -5.35735E+03 -4.98038E+03 -4.25677E+02  1.20005E+03 -2.47422E+03  2.37321E+03 -5.35336E+03  4.08142E+03
 -1.03663E+04 -7.92419E+02 -1.09574E+04 -8.95574E+03 -4.33407E+03 -1.43900E+04  4.56086E+03 -1.12575E+04
  9.33936E+03 -4.81845E+03  6.52529E+03  3.13884E+03  1.70132E+02  4.10187E+03 -5.44104E+03 -3.54174E+02
 -5.00944E+03 -7.04464E+03 -8.32804E+02 -1.01185E+04  5.87723E+03 -1.09592E+04  1.36120E+04 -6.03203E+03
  1.60649E+04  1.30921E+03  1.14297E+04  9.09519E+03  2.29785E+03  1.22126E+04 -6.95869E+03  1.10504E+04
 -9.09036E+03  3.29059E+03 -4.52235E+03 -1.79358E+03  1.57216E+03 -2.75736E+03  5.68337E+03 -1.11422E+03
  5.18864E+03  4.73054E+03  9.83691E+02  8.77173E+03 -6.29295E+03  8.21348E+03 -1.02863E+04  1.97987E+03
 -7.02539E+03 -5.10705E+03  4.65411E+02 -8.86385E+03  5.54009E+03 -4.48623E+03  5.61207E+03  1.78279E+03
  1.21136E+03  5.66723E+03 -5.56095E+03  7.07188E+03 -8.02411E+03  3.19270E+03 -7.80845E+03 -2.64737E+03
 -4.31004E+03 -9.19143E+03  2.55450E+03 -1.08250E+04  9.19302E+03 -6.54101E+03  9.87129E+03  1.25512E+03
  6.40775E+03  8.05157E+03 -3.06792E+02  1.02196E+04 -7.26414E+03  5.80048E+03 -7.90987E+03 -8.22371E+02
 -7.35270E+03 -7.11652E+03 -1.50384E+03 -7.41115E+03  3.91564E+03 -5.91512E+03  4.58240E+03 -2.99280E+03
  3.58873E+03  1.11414E+03 -4.27523E+02  1.61968E+03  1.09195E+02 -1.41586E+03  9.36100E+02 -3.66268E+03
  6.02598E+03 -2.21191E+03  8.90240E+03  1.01466E+03  8.91178E+03  5.45830E+03  7.18869E+03  1.13415E+04
 -2.26504E+03  1.34798E+04 -1.16463E+04  9.97707E+03 -1.51019E+04  2.01840E+03 -1.18640E+04 -4.85970E+03
 -5.99718E+03 -9.86299E+03 -2.06113E+02 -8.12343E+03  3.28177E+03 -3.87790E+03  2.87307E+03 -3.04867E+03
  2.03019E+03 -1.90407E+03  2.67770E+03 -3.06590E+03  4.45072E+03 -1.98881E+03  4.80857E+03  1.34536E+02
  6.34373E+03  1.75150E+03  2.63016E+03  5.47585E+03 -1.59849E+03  5.50696E+03 -6.71549E+03  4.22020E+03
 -7.71116E+03 -1.01230E+03 -3.96035E+03 -5.31488E+03 -2.25672E+02 -7.85482E+03  4.77564E+03 -8.53429E+03
  8.65941E+03 -5.02873E+03  1.06538E+04  1.05967E+03  7.49806E+03  7.13204E+03  1.39104E+03  9.37905E+03
 -3.69577E+03  8.41885E+03 -5.20765E+03  2.70048E+03 -3.85454E+03 -1.53101E+03 -1.49946E+03 -7.12544E+02
 -7.31716E+02  1.39494E+02 -1.49231E+03  2.25574E+03 -3.64922E+03  1.32883E+03 -6.01292E+03 -5.59786E+02
 -3.06249E+03 -5.73862E+03  6.84634E+02 -7.47339E+03  4.48261E+03 -6.97053E+03  6.83332E+03 -2.00117E+03
  6.95192E+03  3.94182E+03  3.28941E+03  6.05854E+03 -1.39618E+03  7.22069E+03 -4.76489E+03  4.38591E+03
 -6.69995E+03  6.19913E+02 -5.33194E+03 -4.30491E+03 -4.81004E+02 -5.78561E+03  3.20342E+03 -4.46200E+03
  4.42601E+03 -1.80168E+03  3.29566E+03  1.05544E+03  1.10519E+03  2.01408E+03  8.87018E+02  9.73655E+02
  1.98633E+03  6.93163E+02  1.78197E+03  1.27148E+03  1.78604E+03  3.40015E+03  1.96151E+03  3.19763E+03
 -1.65918E+03  5.65391E+03 -4.40950E+03  6.50522E+03 -6.06611E+03  1.84960E+03 -7.16330E+03 -1.90634E+03
 -3.10554E+03 -6.76082E+03  1.04595E+03 -7.92470E+03  3.70936E+03 -4.67821E+03  5.44805E+03 -1.71389E+03
  4.54193E+03  2.74345E+03  6.49650E+02  3.81522E+03 -1.72754E+03  2.35668E+03 -2.34095E+03 -2.75898E+02
 -1.23023E+03 -2.93073E+03  1.50285E+03 -2.76265E+03  2.39551E+03 -1.37936E+03  2.33728E+03  7.13783E+02
  1.54246E+03  9.94072E+02  1.40683E+03  3.29000E+02 -3.47678E+02  1.20342E+03  1.60127E+03 -4.03105E+02
  5.49734E+02 -1.54191E+02  3.04136E+03  1.19484E+03  1.26633E+03  3.86849E+03 -4.62170E+02  4.56567E+03
 -2.89840E+03  2.36031E+03 -3.91421E+03  6.98378E+02 -3.53130E+03 -1.44960E+03 -8.68327E+02 -2.42714E+03
  6.90547E+02 -2.53768E+03  1.63713E+03 -1.14129E+03  1.51046E+03  1.80979E+03 -5.71017E+02  2.28181E+03
 -2.70191E+03  1.23820E+03 -2.60638E+03 -1.65804E+03 -1.39369E+03 -3.41902E+03  4.86628E+02 -3.26873E+03
  1.42992E+03 -1.69423E+03  1.62956E+03 -2.14520E+02  2.19135E+03  4.75515E+02  3.45602E+02  2.05557E+03
 -9.76852E+02  2.45101E+02 -1.37770E+03 -1.02216E+03  7.83016E+02 -2.40428E+03  3.05256E+03 -1.91708E+03
  3.30201E+03  1.45313E+02  4.18735E+03  2.23542E+03  1.68611E+03  3.43817E+03 -1.04004E+03  3.36247E+03
 -2.87971E+03  6.76276E+02 -3.25469E+03 -5.01815E+02 -1.81165E+03 -2.38226E+03  7.51204E+02 -1.83636E+03
  2.55736E+03 -1.21554E+03  1.75972E+03  8.28471E+02  2.88529E+02  2.13957E+03 -1.48323E+02  2.14289E+03
 -8.26877E+02  1.31695E+03 -7.66908E+02  5.08253E+02 -2.28268E+02  4.31797E+02 -1.16474E+03  9.82655E+02
 -9.47212E+02  1.70135E+03 -2.80751E+03  1.20642E+03 -3.60086E+03  7.23990E+00 -4.14162E+03 -2.18807E+03
 -2.04341E+03 -4.64779E+03  8.66824E+02 -5.63405E+03  2.47585E+03 -4.45080E+03  5.45821E+03 -1.55219E+03
  4.95751E+03  6.98459E+02  2.65776E+03  3.29853E+03 -4.74243E+02  3.14145E+03 -1.53515E+03  2.66460E+03
 -1.83249E+03  1.18487E+03 -1.08490E+03 -6.49713E+02 -4.78626E+02  1.42705E+00 -8.36309E+02  1.25317E+02
 -1.28733E+03  2.46405E+02 -9.51166E+02 -3.83690E+01  8.62987E+01 -9.35034E+02 -1.96236E+02 -1.70495E+03
  1.63936E+03 -1.49197E+03  1.71902E+03  3.02202E+02  2.45455E+03  1.64809E+03 -5.55495E+01  3.55800E+03
 -1.73316E+03  3.95029E+03 -3.48237E+03  2.44472E+03 -3.70657E+03 -4.30063E+02 -2.91368E+03 -2.32317E+03
 -1.60499E+03 -3.28015E+03  5.53795E+02 -2.78389E+03  1.87775E+03 -1.37126E+03  1.62847E+03  5.39564E+02
  1.36766E+03  1.15738E+03  2.13895E+02  1.10939E+03 -5.28984E+02  8.68651E+01 -7.51289E+01 -6.41467E+02
  7.85604E+02  2.64667E+02  1.15744E+03  6.82936E+02  5.39623E+02  1.13490E+03  3.74969E+02  8.57099E+02
 -1.46372E+03  1.11024E+03 -1.26018E+03  1.40136E+02 -1.70945E+03 -1.35039E+03 -2.16791E+00 -2.23951E+03
  9.98718E+02 -1.73288E+03  1.83495E+03 -4.56759E+02  2.12458E+03 -3.01902E+02  1.10644E+03  1.60137E+03
  7.71404E+02  1.33228E+03 -5.32208E+02  1.35648E+03 -1.24216E+03  9.62332E+02 -8.90007E+02  1.14601E+02
 -3.33046E+02 -1.39850E+02 -4.57858E+02  2.99384E+02 -1.19993E+03  3.45454E+02 -1.62731E+03 -3.18385E+02
 -1.84994E+03 -3.56855E+02 -2.80711E+02 -1.86472E+03  1.06769E+03 -2.66394E+03  1.49512E+03 -7.24342E+02
  1.84359E+03 -9.25478E+01  4.13671E+02  1.22442E+03 -2.72910E+02  1.47222E+03 -1.44686E+03  1.27266E+03
