 $NMID ID='MM_0lb_SNR800_19hz_g60_91.RAW', FMTDAT='(8E13.5)'
 TRAMP=1., VOLUME=1. $END
  3.09684E+05  2.11129E+02  3.37679E+05  2.50591E+05  8.45202E+04  3.38071E+05 -1.32480E+05  2.50497E+05
 -1.90116E+05  8.29584E+04 -1.11759E+05 -3.26358E+04  9.80693E+02 -5.01960E+04  5.38268E+04 -1.93336E+02
  3.52409E+04  5.28090E+04 -1.69344E+04  7.52029E+04 -6.07776E+04  6.32367E+04 -8.36993E+04  3.18602E+04
 -8.01964E+04 -1.12817E+04 -5.66638E+04 -5.08214E+04 -1.49048E+04 -6.88316E+04  2.69643E+04 -4.51659E+04
  3.94594E+04  3.94978E+03  1.57946E+04  4.74506E+04 -3.39331E+04  4.67682E+04 -6.59856E+04 -5.49869E+01
 -5.26724E+04 -5.65100E+04 -6.58149E+03 -7.60170E+04  3.35647E+04 -5.41670E+04  4.72678E+04 -1.70235E+04
  4.25498E+04  1.10752E+04  3.13473E+04  2.51897E+04  1.58879E+04  2.88405E+04 -4.90605E+03  2.71978E+04
 -2.17367E+04  1.25674E+04 -1.88608E+04 -4.59628E+03  4.97092E+03 -7.43597E+03  2.18151E+04  1.18815E+04
  7.16979E+03  3.42308E+04 -3.11743E+04  3.46501E+04 -6.23108E+04  2.37769E+03 -5.60501E+04 -4.19445E+04
 -1.24763E+04 -6.19448E+04  3.85936E+04 -4.41407E+04  5.67340E+04 -2.02906E+03  3.28246E+04  3.13670E+04
 -6.35382E+03  3.44986E+04 -2.91100E+04  1.46861E+04 -2.90947E+04 -4.85021E+03 -1.54638E+04 -1.06351E+04
 -7.95704E+03 -1.22749E+04 -8.80714E+02 -1.74790E+04  6.77205E+03 -2.26710E+04  1.52477E+04 -1.38302E+04
  1.19003E+04  4.73381E+03 -7.12686E+03  1.28874E+04 -2.00744E+04 -3.49825E+03 -7.88152E+03 -3.17675E+04
  2.18363E+04 -4.20299E+04  4.63150E+04 -1.88932E+04  4.35426E+04  1.87615E+04  1.47094E+04  4.28953E+04
 -1.54539E+04  3.19713E+04 -2.43260E+04  1.38617E+03 -8.91463E+03 -2.66966E+04  2.07520E+04 -3.23944E+04
  3.92456E+04 -7.89702E+03  3.29883E+04  2.30565E+04  1.64910E+04  4.40215E+04 -8.04550E+03  4.71547E+04
 -3.00803E+04  3.15983E+04 -3.92875E+04  8.68525E+03 -4.00575E+04 -1.56271E+04 -2.20749E+04 -3.59752E+04
  6.84565E+03 -3.56414E+04  3.01228E+04 -1.31213E+04  2.76670E+04  1.09922E+04  3.38822E+03  1.84468E+04
 -1.31086E+04  7.48354E+03 -9.91991E+03 -7.77882E+03  5.93726E+03 -1.03900E+04  1.73453E+04  6.33072E+03
  1.29229E+04  2.16637E+04 -6.18438E+03  2.39202E+04 -2.19353E+04  1.00783E+04 -2.59534E+04 -5.80931E+03
 -1.82445E+04 -1.65490E+04 -6.72972E+03 -1.80087E+04  3.98769E+03 -1.61692E+04  1.33387E+04 -1.60717E+04
  2.30166E+04 -1.20653E+04  2.96063E+04  1.53472E+03  2.18779E+04  1.74499E+04  4.11336E+03  3.37201E+04
 -1.65618E+04  2.81652E+04 -2.66482E+04  1.02547E+04 -2.01056E+04 -1.03616E+04 -3.97346E+03 -1.37994E+04
  2.27045E+03 -3.83084E+03 -3.18033E+03  5.81723E+03 -1.42304E+04  5.37916E+03 -1.41044E+04 -5.45237E+03
 -9.04038E+03 -1.64363E+04  4.42062E+03 -2.03899E+04  1.34052E+04 -1.48758E+04  1.57408E+04 -1.74115E+03
  9.76061E+03  1.16538E+04 -1.01770E+03  1.65649E+04 -1.12109E+04  9.35307E+03 -1.65795E+04 -3.55185E+03
 -1.21427E+04 -1.49182E+04 -1.58560E+03 -2.01271E+04  8.93950E+03 -1.63186E+04  1.67832E+04 -8.03154E+03
  1.53607E+04  6.36243E+02  1.12266E+04  4.18881E+03  5.53148E+03  7.10059E+02  7.90393E+03 -1.54295E+03
  1.47708E+04  2.75011E+03  1.58255E+04  1.34428E+04  9.85417E+03  2.62285E+04 -3.20899E+03  2.83457E+04
 -1.69591E+04  2.19169E+04 -2.63408E+04  1.03182E+04 -2.68077E+04 -2.11003E+03 -2.29945E+04 -1.54788E+04
 -1.06155E+04 -2.18390E+04  7.33729E+03 -2.05575E+04  1.77814E+04 -1.11204E+04  1.64540E+04  3.97387E+03
  6.56167E+03  1.22462E+04 -7.63990E+03  1.07290E+04 -1.37994E+04  2.32011E+03 -1.07499E+04 -8.36001E+03
  1.21249E+02 -1.31625E+04  6.48673E+03 -9.74587E+03  8.37218E+03 -1.29767E+03  1.80141E+03  5.28772E+03
 -5.76506E+03  1.53136E+03 -4.31998E+03 -4.66061E+03  1.01228E+03 -1.06682E+04  8.19285E+03 -1.09476E+04
  1.30929E+04 -5.18183E+03  1.33136E+04  3.17869E+03  1.12154E+04  1.03223E+04  5.58731E+03  1.51775E+04
 -1.89044E+03  1.69817E+04 -1.02157E+04  1.06482E+04 -1.19098E+04  2.94901E+03 -8.84743E+03 -2.12857E+03
 -4.66325E+03 -3.68460E+03 -7.74084E+02  1.63106E+03 -1.73324E+03  2.09668E+03 -3.89089E+03  3.52898E+03
 -8.40438E+03 -2.81702E+02 -9.23360E+03 -7.63498E+03 -3.71303E+03 -1.18628E+04  3.77008E+03 -9.13654E+03
  7.39631E+03 -4.09942E+03  5.52491E+03  2.10909E+03  4.62655E+02  3.17868E+03 -3.71188E+03  5.39033E+01
 -3.75013E+03 -5.39743E+03 -6.45397E+02 -7.72879E+03  4.21226E+03 -8.16115E+03  1.03808E+04 -4.37851E+03
  1.22146E+04  6.42908E+02  9.35070E+03  6.46344E+03  1.61047E+03  9.04783E+03 -5.55311E+03  8.41633E+03
 -7.07622E+03  2.69594E+03 -3.82319E+03 -1.43042E+03  1.44393E+03 -1.83185E+03  5.06415E+03 -1.15566E+03
  4.32086E+03  3.62694E+03  1.17458E+03  6.66723E+03 -4.70867E+03  6.72853E+03 -8.13454E+03  1.94606E+03
 -5.29835E+03 -3.81753E+03  2.27832E+02 -7.07941E+03  3.78165E+03 -3.48770E+03  3.77746E+03  9.27883E+02
  3.28977E+02  3.46992E+03 -4.05473E+03  5.00629E+03 -5.05288E+03  2.46660E+03 -4.57126E+03 -1.47706E+03
 -3.23186E+03 -6.15207E+03  9.63972E+02 -7.16881E+03  6.19235E+03 -4.68549E+03  6.82640E+03  1.04916E+03
  4.64373E+03  5.44441E+03  1.42971E+02  7.33803E+03 -5.22211E+03  4.69989E+03 -5.36516E+03 -6.90493E+02
 -5.82397E+03 -5.33400E+03 -1.34068E+03 -5.50576E+03  2.54431E+03 -4.95586E+03  2.84569E+03 -2.76508E+03
  2.96504E+03 -3.95274E+00  7.14788E+01  1.23983E+03  4.88202E+02 -4.05893E+02  6.45972E+01 -2.00514E+03
  3.93651E+03 -9.47380E+02  5.63730E+03  9.52292E+02  5.94647E+03  3.00199E+03  5.41988E+03  7.49670E+03
 -1.19296E+03  8.79518E+03 -7.82048E+03  6.60680E+03 -1.01196E+04  1.16171E+03 -8.26859E+03 -2.58210E+03
 -4.16199E+03 -6.46865E+03 -5.52579E+02 -5.21941E+03  2.44432E+03 -2.01381E+03  1.52211E+03 -2.22378E+03
  1.43757E+03 -1.17711E+03  2.31764E+03 -2.40655E+03  3.66660E+03 -1.33837E+03  3.53066E+03  7.02600E+02
  4.75776E+03  1.10119E+03  9.99784E+02  3.13914E+03 -1.81205E+03  3.11611E+03 -4.50131E+03  2.54182E+03
 -4.88208E+03 -1.29593E+03 -1.85145E+03 -3.52948E+03  4.41546E+02 -5.07815E+03  3.46832E+03 -5.22187E+03
  5.13029E+03 -3.36381E+03  6.81542E+03  2.01745E+02  4.94072E+03  4.32964E+03  9.89640E+02  5.88496E+03
 -2.21341E+03  5.77692E+03 -3.20127E+03  2.01983E+03 -1.86315E+03 -1.01852E+03 -2.26892E+02 -5.80421E+02
 -5.44687E+02  3.81366E+02 -1.04148E+03  2.05739E+03 -2.48653E+03  9.72591E+02 -4.02896E+03 -3.95222E+02
 -1.63264E+03 -3.94013E+03  8.11468E+02 -4.87043E+03  2.79633E+03 -4.25736E+03  3.51948E+03 -1.13991E+03
  4.05857E+03  2.36554E+03  1.78644E+03  3.30061E+03 -9.06854E+02  4.22871E+03 -2.60331E+03  2.54860E+03
 -3.70297E+03  5.35642E+02 -3.53234E+03 -2.40032E+03 -5.73585E+02 -3.06405E+03  1.41032E+03 -2.19973E+03
  2.72636E+03 -1.43376E+03  1.65536E+03  4.22437E+02  5.50348E+02  1.45948E+03  6.77287E+02  2.54715E+02
  1.59508E+03  4.00761E+02  1.32484E+03  7.77033E+02  1.08938E+03  2.21627E+03  1.30919E+03  1.62770E+03
 -1.33169E+03  2.93333E+03 -2.29612E+03  4.11245E+03 -2.57515E+03  1.15746E+03 -3.92967E+03 -2.87382E+02
 -1.59616E+03 -3.44398E+03  6.25514E+02 -4.56663E+03  1.49301E+03 -2.36604E+03  2.79311E+03 -1.02499E+03
  2.10900E+03  1.59587E+03  4.64954E+02  1.95929E+03 -7.12902E+02  1.28943E+03 -7.25945E+02 -5.65995E+01
 -3.47517E+02 -1.25922E+03  1.25753E+03 -1.61262E+03  8.91540E+02 -8.25720E+02  1.12117E+03  2.02477E+02
  5.55213E+02  1.92144E+02  7.36915E+02 -1.27467E+01 -1.70872E+02  8.92516E+02  1.59013E+03 -3.78743E+02
  8.05482E+01  1.11239E+02  1.88614E+03  5.76930E+02  9.26306E+01  2.05834E+03 -1.20967E+02  2.46939E+03
 -1.57335E+03  8.58424E+02 -1.63842E+03 -5.07710E+01 -1.98595E+03 -7.28081E+02 -1.43526E+02 -9.36460E+02
  4.95765E+02 -9.60480E+02  4.63438E+02 -3.20353E+02  7.60059E+02  9.09616E+02 -7.99441E+02  1.07790E+03
 -1.54172E+03  6.86877E+02 -7.91229E+02 -1.14643E+03 -7.28142E+02 -1.98834E+03  1.34087E+02 -1.35089E+03
  6.07158E+02 -5.61219E+02  5.70130E+02  1.35560E+02  1.34656E+03 -2.53816E+02  1.28058E+02  9.40816E+02
 -3.23872E+01 -1.22551E+02 -1.07908E+03 -1.75190E+02  5.73761E+02 -6.38080E+02  1.59873E+03 -6.79285E+02
  1.17441E+03  2.87782E+02  2.41599E+03  7.32105E+02  1.03725E+03  1.29561E+03 -2.12847E+02  1.70342E+03
 -1.17084E+03  5.73442E+01 -1.48031E+03 -2.18187E+02 -7.44767E+02 -1.08321E+03  3.34547E+02 -6.03235E+02
  1.17608E+03 -4.39591E+02  6.54592E+02  4.35830E+02  1.61694E+02  1.10820E+03  3.16249E+02  1.00521E+03
 -4.49361E+02  1.07127E+03 -4.71518E+02  1.99721E+02  3.42808E+02  4.27044E+02 -6.78076E+02  2.06007E+02
 -5.68118E+02  1.01339E+03 -1.73802E+03  3.04040E+02 -1.42799E+03  1.61714E+02 -2.01363E+03 -8.73038E+02
 -7.27391E+02 -1.97253E+03  4.67891E+02 -2.27983E+03  7.31997E+02 -2.01895E+03  1.84729E+03 -8.92675E+02
  2.09561E+03 -2.95088E+02  8.12963E+02  1.19100E+03 -6.90607E+02  9.18706E+02 -5.07320E+02  1.23307E+03
 -1.03922E+03  7.16314E+02 -5.42408E+02 -1.16922E+02 -4.76448E+02  9.72575E+01 -6.65087E+02  4.66229E+01
 -1.06393E+03 -1.46987E+02 -8.91249E+02  2.96910E+02  5.30477E+01 -6.88657E+02 -3.61762E+02 -7.32148E+02
  1.03355E+03 -6.17734E+02  4.25075E+02  3.27704E+02  8.63955E+02  6.18567E+02 -5.57031E+02  1.13636E+03
 -8.24123E+02  1.68142E+03 -1.36234E+03  9.70389E+02 -1.53958E+03 -3.06346E+02 -8.14166E+02 -9.51917E+02
 -9.59922E+02 -1.06276E+03  3.53297E+02 -7.99684E+02  3.16877E+02 -2.67528E+02  6.95201E+02 -3.21512E+01
  3.84801E+02  3.87507E+02 -8.97392E+01  4.69729E+02  5.47246E+01 -5.40666E+01 -2.43078E+02 -1.51647E+02
  3.64476E+02  4.58973E+02 -2.33102E+02  6.05122E+02  2.07121E+02  4.93621E+02  4.73670E+02  3.42239E+01
 -1.99070E+02  4.57111E+02 -5.26242E+02  4.41177E+01 -5.12453E+02 -5.77693E+02  1.53300E+02 -8.66395E+02
  3.40494E+02 -4.08425E+02  1.64889E+02  1.93068E+02  4.62234E+02 -5.89095E+02  4.38710E+02  5.40071E+02
  5.17195E+02  3.07341E+02 -1.91011E+01  3.52710E+02 -4.13168E+02  8.24239E+02 -2.10072E+02 -9.78401E+01
 -7.72255E+01 -2.67583E+02 -3.75472E+02  9.51799E+01 -5.87145E+02  3.55249E+00 -4.36664E+02  1.36248E+02
 -1.08595E+03  2.62981E+02 -5.46246E+02 -6.37443E+02  3.65828E+02 -1.24120E+03  6.17345E+02  3.16095E+01
  3.88827E+02 -4.07566E+01 -4.95429E+02 -1.09397E+02  2.06994E+02  2.85434E+02  1.09360E+01  7.39891E+02
