 $NMID ID='MM_0lb_SNR800_10hz_g40_58.RAW', FMTDAT='(8E13.5)'
 TRAMP=1., VOLUME=1. $END
  3.09634E+05  4.09364E+02  3.37781E+05  2.50749E+05  8.51104E+04  3.38100E+05 -1.32655E+05  2.51832E+05
 -1.90419E+05  8.36263E+04 -1.11859E+05 -3.25921E+04  7.78623E+02 -5.06934E+04  5.35768E+04 -1.20834E+02
  3.52981E+04  5.30525E+04 -1.70433E+04  7.58616E+04 -6.08172E+04  6.37450E+04 -8.49876E+04  3.27112E+04
 -8.21426E+04 -1.17580E+04 -5.79069E+04 -5.19001E+04 -1.47561E+04 -7.06594E+04  2.78671E+04 -4.65876E+04
  4.04914E+04  3.18102E+03  1.64734E+04  4.80106E+04 -3.53194E+04  4.75159E+04 -6.73852E+04  5.83739E+01
 -5.42931E+04 -5.74295E+04 -6.96865E+03 -7.83528E+04  3.45234E+04 -5.62102E+04  4.89772E+04 -1.80898E+04
  4.45511E+04  1.14850E+04  3.22940E+04  2.60351E+04  1.60097E+04  2.99243E+04 -5.69380E+03  2.73905E+04
 -2.21393E+04  1.26116E+04 -1.82713E+04 -5.42500E+03  6.28583E+03 -7.55361E+03  2.28671E+04  1.30669E+04
  6.98451E+03  3.66123E+04 -3.28198E+04  3.63724E+04 -6.47641E+04  2.38047E+03 -5.81170E+04 -4.39181E+04
 -1.27812E+04 -6.45584E+04  4.10593E+04 -4.65800E+04  5.96243E+04 -2.30817E+03  3.55495E+04  3.37441E+04
 -5.76890E+03  3.77399E+04 -3.10572E+04  1.76572E+04 -3.21583E+04 -3.42210E+03 -1.81267E+04 -1.15593E+04
 -8.64864E+03 -1.43168E+04 -4.94836E+02 -1.89750E+04  7.69842E+03 -2.33589E+04  1.58316E+04 -1.27844E+04
  1.10097E+04  5.73505E+03 -9.42760E+03  1.28171E+04 -2.24091E+04 -5.74741E+03 -8.53465E+03 -3.55475E+04
  2.39227E+04 -4.54991E+04  5.05142E+04 -1.99773E+04  4.67814E+04  2.01969E+04  1.66892E+04  4.59144E+04
 -1.62566E+04  3.51308E+04 -2.66506E+04  2.56487E+03 -1.09606E+04 -2.84649E+04  2.12372E+04 -3.56346E+04
  4.30862E+04 -1.03212E+04  3.87459E+04  2.43917E+04  2.02145E+04  4.93376E+04 -8.07306E+03  5.37130E+04
 -3.38694E+04  3.64396E+04 -4.53503E+04  1.04195E+04 -4.57665E+04 -1.77630E+04 -2.52288E+04 -4.06037E+04
  7.87415E+03 -4.03503E+04  3.33687E+04 -1.57546E+04  3.12112E+04  1.12578E+04  4.94837E+03  2.03097E+04
 -1.39076E+04  9.17113E+03 -1.07540E+04 -7.84440E+03  5.71733E+03 -1.13016E+04  1.85911E+04  5.94341E+03
  1.45824E+04  2.25059E+04 -5.49752E+03  2.62717E+04 -2.31072E+04  1.27500E+04 -2.99578E+04 -3.72506E+03
 -2.34100E+04 -1.81952E+04 -1.05351E+04 -2.33196E+04  4.30783E+03 -2.34700E+04  1.79760E+04 -2.07186E+04
  2.97494E+04 -1.39126E+04  3.62822E+04  4.08409E+03  2.55233E+04  2.26938E+04  4.18699E+03  3.91274E+04
 -1.93097E+04  3.24479E+04 -2.93970E+04  1.10795E+04 -2.19165E+04 -1.01788E+04 -4.61291E+03 -1.30502E+04
  1.29060E+03 -1.82110E+03 -6.47874E+03  7.42864E+03 -1.87223E+04  5.14756E+03 -1.85154E+04 -8.54727E+03
 -1.11139E+04 -2.15845E+04  5.77487E+03 -2.57174E+04  1.72926E+04 -1.90282E+04  2.08013E+04 -1.65332E+03
  1.31893E+04  1.50462E+04 -1.37274E+03  2.17585E+04 -1.50097E+04  1.25963E+04 -2.18552E+04 -4.76968E+03
 -1.59623E+04 -1.98050E+04 -1.78308E+03 -2.62186E+04  1.16668E+04 -2.12515E+04  2.12776E+04 -1.10637E+04
  2.01996E+04 -2.14224E+01  1.46793E+04  4.75034E+03  7.99300E+03  1.25041E+03  1.13689E+04 -1.86488E+03
  2.05240E+04  2.98419E+03  2.28841E+04  1.72615E+04  1.60497E+04  3.44333E+04 -2.65867E+03  4.01420E+04
 -2.35622E+04  3.32127E+04 -3.77635E+04  1.71249E+04 -4.01887E+04 -2.98601E+03 -3.28999E+04 -2.35031E+04
 -1.32592E+04 -3.34667E+04  1.19457E+04 -2.96978E+04  2.52410E+04 -1.42472E+04  2.24634E+04  7.18691E+03
  7.76852E+03  1.72763E+04 -1.03801E+04  1.40085E+04 -1.86765E+04  2.80582E+03 -1.42857E+04 -1.18031E+04
 -4.28070E+02 -1.78244E+04  9.48784E+03 -1.36115E+04  1.18264E+04 -1.48124E+03  2.83476E+03  8.02369E+03
 -8.29655E+03  3.38969E+03 -7.90150E+03 -6.74681E+03 -1.16186E+03 -1.63152E+04  1.07951E+04 -1.77578E+04
  2.02844E+04 -9.87381E+03  2.33210E+04  2.94606E+03  2.02830E+04  1.63815E+04  9.26509E+03  2.61473E+04
 -4.61718E+03  2.75762E+04 -1.78479E+04  1.71979E+04 -2.01365E+04  3.49322E+03 -1.35312E+04 -5.30518E+03
 -5.81221E+03 -6.45839E+03 -9.83682E+02  7.82727E+02 -2.31032E+03  2.92931E+03 -6.19814E+03  4.72418E+03
 -1.30722E+04 -1.32677E+03 -1.32545E+04 -1.09221E+04 -5.25760E+03 -1.73001E+04  5.89157E+03 -1.44104E+04
  1.18228E+04 -5.84476E+03  8.26702E+03  3.71186E+03 -4.28701E+01  5.06196E+03 -6.73893E+03  2.54999E+01
 -6.45746E+03 -9.06912E+03 -6.98313E+02 -1.37670E+04  7.68849E+03 -1.42340E+04  1.77046E+04 -7.79358E+03
  2.07491E+04  2.19438E+03  1.54616E+04  1.29741E+04  3.13713E+03  1.71307E+04 -8.29142E+03  1.39357E+04
 -1.16946E+04  4.29908E+03 -6.14667E+03 -3.05804E+03  1.88629E+03 -4.13611E+03  7.18529E+03 -1.10469E+03
  6.88738E+03  5.93182E+03  6.50210E+02  1.12412E+04 -8.17699E+03  1.13099E+04 -1.38572E+04  2.73080E+03
 -9.41599E+03 -7.31538E+03  5.10638E+02 -1.15929E+04  7.80091E+03 -6.21464E+03  7.95298E+03  3.26707E+03
  1.94936E+03  8.00336E+03 -7.27428E+03  1.03809E+04 -1.15364E+04  4.56122E+03 -1.18727E+04 -4.20908E+03
 -6.49351E+03 -1.34057E+04  3.36388E+03 -1.58237E+04  1.34093E+04 -9.92922E+03  1.46838E+04  2.56663E+03
  8.94598E+03  1.13729E+04 -1.38121E+03  1.41157E+04 -9.93522E+03  7.64610E+03 -1.10175E+04 -1.12338E+03
 -9.82619E+03 -9.13773E+03 -1.45659E+03 -1.04899E+04  5.66445E+03 -8.53408E+03  6.10317E+03 -3.40218E+03
  4.23837E+03  1.67769E+03 -7.75734E+02  1.54989E+03 -6.62887E+02 -2.97059E+03  2.04558E+03 -6.05050E+03
  9.61556E+03 -3.86717E+03  1.36736E+04  1.75301E+03  1.32931E+04  9.30294E+03  8.79286E+03  1.74603E+04
 -4.25591E+03  2.01751E+04 -1.68095E+04  1.51194E+04 -2.26317E+04  2.78532E+03 -1.75891E+04 -7.60194E+03
 -8.71993E+03 -1.40996E+04 -5.25654E+02 -1.21527E+04  4.87435E+03 -6.77882E+03  4.80678E+03 -4.10244E+03
  3.37074E+03 -2.74839E+03  3.84730E+03 -3.23476E+03  5.60423E+03 -2.76055E+03  7.36745E+03 -1.13829E+03
  9.33811E+03  1.75468E+03  4.63986E+03  8.14444E+03 -2.33782E+03  9.03719E+03 -9.51677E+03  7.49681E+03
 -1.22742E+04 -9.80134E+02 -8.06795E+03 -8.66464E+03 -1.25926E+03 -1.30131E+04  7.74785E+03 -1.37820E+04
  1.35991E+04 -7.53444E+03  1.61321E+04  2.33398E+03  1.15362E+04  1.20219E+04  1.77721E+03  1.49361E+04
 -6.15615E+03  1.24796E+04 -8.73072E+03  4.34983E+03 -6.05329E+03 -1.49626E+03 -2.18102E+03 -1.89773E+03
 -1.19103E+03 -2.17863E+02 -1.89714E+03  2.93941E+03 -5.39984E+03  2.29474E+03 -8.87391E+03 -1.44050E+03
 -5.94869E+03 -8.51783E+03 -3.86461E+01 -1.21258E+04  7.40643E+03 -1.16130E+04  1.20285E+04 -3.43902E+03
  1.20185E+04  6.05382E+03  5.91228E+03  1.06341E+04 -2.59777E+03  1.23952E+04 -8.97841E+03  7.58768E+03
 -1.14997E+04  8.10581E+02 -9.15140E+03 -7.00849E+03 -8.54653E+02 -1.05781E+04  5.14247E+03 -7.36413E+03
  7.67724E+03 -2.53126E+03  5.30438E+03  2.03699E+03  2.00130E+03  3.71764E+03  1.40501E+03  1.74813E+03
  2.38398E+03  1.10645E+03  2.82864E+03  2.01472E+03  3.64769E+03  4.36545E+03  3.23400E+03  6.06945E+03
 -2.56369E+03  1.00260E+04 -8.73628E+03  1.00701E+04 -1.25934E+04  2.56766E+03 -1.30711E+04 -4.66484E+03
 -6.21318E+03 -1.22985E+04  1.74777E+03 -1.39990E+04  7.37579E+03 -8.30999E+03  1.03483E+04 -2.39101E+03
  8.09872E+03  4.90122E+03  1.69082E+03  7.39203E+03 -3.23007E+03  4.41793E+03 -5.26982E+03 -5.40628E+02
 -2.65557E+03 -5.41008E+03  3.09365E+03 -5.48274E+03  5.63787E+03 -2.57734E+03  5.20954E+03  8.74951E+02
  2.91644E+03  2.37434E+03  1.02886E+03  1.68165E+03 -4.30185E+02  1.89931E+03  1.84791E+03 -2.38894E+02
  1.98494E+03 -6.17465E+02  5.19168E+03  1.68541E+03  2.39021E+03  6.75501E+03 -1.26985E+03  8.76985E+03
 -6.06783E+03  5.62529E+03 -7.89127E+03  1.42037E+03 -7.13070E+03 -2.50647E+03 -2.54478E+03 -4.94793E+03
  9.80389E+02 -4.82234E+03  3.36556E+03 -2.14988E+03  2.43700E+03  2.55283E+03 -1.65441E+03  4.16609E+03
 -5.22735E+03  2.30813E+03 -5.52119E+03 -3.28033E+03 -3.34318E+03 -6.50545E+03  1.13066E+03 -7.08011E+03
  4.20268E+03 -4.08235E+03  5.05739E+03 -9.05402E+01  4.30506E+03  1.63767E+03  6.56718E+02  4.03944E+03
 -2.27030E+03  9.25903E+02 -3.32758E+03 -2.18006E+03  1.53649E+03 -5.25914E+03  5.94167E+03 -4.13438E+03
  7.83355E+03  4.87357E+02  7.46718E+03  5.28727E+03  2.59420E+03  8.44656E+03 -2.87797E+03  7.62187E+03
 -6.62567E+03  3.24572E+03 -6.88467E+03 -1.30083E+03 -3.69680E+03 -5.20342E+03  1.26394E+03 -4.85315E+03
  4.81305E+03 -2.35955E+03  4.22289E+03  2.18549E+03  1.24802E+03  4.32415E+03 -3.06476E+02  3.79713E+03
 -1.97372E+03  2.05078E+03 -1.65478E+03  8.19196E+02 -8.31525E+02  7.06063E+02 -1.26132E+03  2.02718E+03
 -2.00264E+03  3.28599E+03 -5.65889E+03  2.85417E+03 -7.76501E+03  5.77528E+02 -9.15571E+03 -5.00256E+03
 -4.65012E+03 -1.05699E+04  2.09823E+03 -1.24468E+04  7.14743E+03 -9.84904E+03  1.15927E+04 -3.70641E+03
  1.11653E+04  2.20814E+03  6.31526E+03  7.61094E+03  2.78883E+02  8.10469E+03 -3.17890E+03  6.43650E+03
 -4.37256E+03  2.40831E+03 -2.45369E+03 -9.55816E+02 -8.73826E+02 -5.79250E+02 -4.68397E+02 -1.16701E+02
 -1.60942E+03  3.31085E+02 -1.63588E+03 -3.44445E+02 -6.56621E+02 -2.37259E+03  2.03318E+02 -2.85178E+03
  3.82499E+03 -2.31423E+03  4.87502E+03 -2.89957E+02  5.56531E+03  4.37846E+03  1.40681E+03  8.05147E+03
 -4.34805E+03  9.54695E+03 -8.72691E+03  5.43380E+03 -9.94261E+03 -1.00122E+03 -7.74101E+03 -5.91514E+03
 -3.45429E+03 -8.85101E+03  2.08860E+03 -7.96602E+03  5.31126E+03 -3.97580E+03  5.30440E+03  4.21166E+02
  3.15953E+03  2.61077E+03 -3.40309E+02  2.32561E+03 -1.29562E+03 -3.87767E+02 -4.98345E+00 -1.83334E+03
  2.55797E+03 -7.98788E+02  3.10196E+03  1.12169E+03  2.45112E+03  3.36086E+03  3.86473E+02  4.37185E+03
 -3.44615E+03  3.77950E+03 -5.60112E+03  5.91641E+02 -4.90561E+03 -3.97415E+03 -1.15119E+03 -6.70607E+03
  3.56103E+03 -5.68496E+03  6.17920E+03 -1.58437E+03  6.09370E+03  8.84168E+02  3.63772E+03  4.47617E+03
  9.00742E+02  5.19387E+03 -1.98797E+03  4.18957E+03 -3.57836E+03  2.19618E+03 -2.64863E+03  2.35298E+02
 -1.63203E+03  1.20599E+02 -1.72276E+03  1.12488E+03 -2.59897E+03  9.44122E+02 -4.25499E+03 -5.69779E+02
 -4.17952E+03 -2.67783E+03 -1.28476E+03 -5.95816E+03  2.86453E+03 -5.95087E+03  4.74493E+03 -2.64775E+03
  5.45242E+03  8.42315E+02  2.72668E+03  3.54010E+03 -1.73264E+02  5.57857E+03 -4.18117E+03  3.53126E+03
