 $NMID ID='MM_0lb_SNR800_20hz_g50_21.RAW', FMTDAT='(8E13.5)'
 TRAMP=1., VOLUME=1. $END
  3.09878E+05  2.40401E+02  3.37414E+05  2.50221E+05  8.45609E+04  3.37299E+05 -1.32510E+05  2.49826E+05
 -1.89577E+05  8.23505E+04 -1.11030E+05 -3.28139E+04  1.14113E+03 -5.01160E+04  5.41204E+04  2.31915E+02
  3.48470E+04  5.28741E+04 -1.67452E+04  7.48241E+04 -6.05752E+04  6.26730E+04 -8.29776E+04  3.14658E+04
 -7.97573E+04 -1.08759E+04 -5.60439E+04 -5.00659E+04 -1.51331E+04 -6.83417E+04  2.65560E+04 -4.46138E+04
  3.92501E+04  3.95613E+03  1.54102E+04  4.70337E+04 -3.37240E+04  4.61845E+04 -6.48398E+04 -5.25941E+02
 -5.15639E+04 -5.57504E+04 -6.13705E+03 -7.48279E+04  3.29282E+04 -5.29321E+04  4.59610E+04 -1.59973E+04
  4.12143E+04  1.11311E+04  3.06612E+04  2.42945E+04  1.59100E+04  2.80181E+04 -4.77275E+03  2.65516E+04
 -2.15062E+04  1.27791E+04 -1.89998E+04 -3.98601E+03  4.01855E+03 -7.34210E+03  2.09502E+04  1.07853E+04
  7.43078E+03  3.30819E+04 -3.03716E+04  3.37096E+04 -6.07872E+04  2.02229E+03 -5.51595E+04 -4.07887E+04
 -1.24460E+04 -6.06113E+04  3.77675E+04 -4.31175E+04  5.51741E+04 -1.89878E+03  3.14095E+04  3.01867E+04
 -6.63374E+03  3.26794E+04 -2.82361E+04  1.27247E+04 -2.69410E+04 -5.38440E+03 -1.40363E+04 -9.84621E+03
 -7.19295E+03 -1.09204E+04 -9.91997E+02 -1.62869E+04  6.25592E+03 -2.26452E+04  1.51468E+04 -1.39335E+04
  1.24378E+04  3.94206E+03 -6.14156E+03  1.33834E+04 -1.88208E+04 -2.00685E+03 -8.01375E+03 -2.98717E+04
  2.06863E+04 -3.98156E+04  4.42194E+04 -1.83612E+04  4.17379E+04  1.81689E+04  1.40731E+04  4.13327E+04
 -1.52295E+04  3.05849E+04 -2.34316E+04  1.07532E+03 -8.06887E+03 -2.63342E+04  2.06831E+04 -3.10621E+04
  3.76393E+04 -7.01961E+03  3.06940E+04  2.27407E+04  1.48563E+04  4.18719E+04 -7.42872E+03  4.42880E+04
 -2.79228E+04  2.91716E+04 -3.67837E+04  7.92835E+03 -3.74290E+04 -1.48413E+04 -2.05233E+04 -3.37143E+04
  6.76048E+03 -3.32399E+04  2.87396E+04 -1.23666E+04  2.65271E+04  1.05731E+04  3.05208E+03  1.73919E+04
 -1.32027E+04  7.14805E+03 -9.68545E+03 -7.63585E+03  6.11119E+03 -1.00137E+04  1.70194E+04  6.27795E+03
  1.21582E+04  2.16092E+04 -6.85756E+03  2.29587E+04 -2.14496E+04  9.08216E+03 -2.45205E+04 -6.69143E+03
 -1.57336E+04 -1.63280E+04 -5.07239E+03 -1.61241E+04  4.07556E+03 -1.35999E+04  1.17152E+04 -1.37238E+04
  2.03668E+04 -1.10809E+04  2.71275E+04  6.61550E+02  2.07919E+04  1.56066E+04  4.17685E+03  3.17405E+04
 -1.56650E+04  2.70136E+04 -2.56121E+04  9.25602E+03 -1.93149E+04 -1.06108E+04 -3.87257E+03 -1.38547E+04
  2.85228E+03 -4.15235E+03 -2.13172E+03  5.11616E+03 -1.24928E+04  5.69903E+03 -1.26748E+04 -4.29400E+03
 -8.37609E+03 -1.48348E+04  4.24854E+03 -1.84750E+04  1.21186E+04 -1.34542E+04  1.37070E+04 -1.55763E+03
  8.24358E+03  1.02332E+04 -9.32373E+02  1.51330E+04 -9.93746E+03  8.47235E+03 -1.47764E+04 -3.19984E+03
 -1.11961E+04 -1.34113E+04 -1.32432E+03 -1.83055E+04  8.30584E+03 -1.47853E+04  1.53833E+04 -6.64516E+03
  1.38852E+04  6.02596E+02  9.76196E+03  3.79925E+03  4.89899E+03  2.81576E+02  7.20663E+03 -1.27952E+03
  1.32228E+04  2.87024E+03  1.38989E+04  1.22779E+04  8.40433E+03  2.35644E+04 -3.21739E+03  2.47804E+04
 -1.50145E+04  1.88010E+04 -2.26596E+04  8.82562E+03 -2.31599E+04 -1.91033E+03 -2.01806E+04 -1.31509E+04
 -9.60623E+03 -1.88175E+04  6.25696E+03 -1.76687E+04  1.55659E+04 -1.03081E+04  1.47927E+04  3.41021E+03
  6.40979E+03  1.05169E+04 -6.59519E+03  1.02000E+04 -1.26340E+04  2.54831E+03 -1.00241E+04 -7.39683E+03
 -4.82607E+00 -1.18027E+04  5.66761E+03 -8.91543E+03  7.45926E+03 -1.41409E+03  1.08660E+03  4.45567E+03
 -5.27713E+03  1.14938E+03 -2.94023E+03 -4.30174E+03  8.46503E+02 -9.34703E+03  7.29320E+03 -9.27032E+03
  1.11442E+04 -4.14606E+03  1.08835E+04  2.80337E+03  9.50533E+03  8.65734E+03  4.31143E+03  1.27015E+04
 -1.12835E+03  1.43548E+04 -8.64283E+03  9.25400E+03 -1.01224E+04  2.84632E+03 -7.83175E+03 -1.41265E+03
 -4.47811E+03 -2.85742E+03 -8.64313E+02  1.64647E+03 -2.10933E+03  1.76977E+03 -3.03113E+03  3.49917E+03
 -7.38348E+03 -3.42832E+02 -8.29688E+03 -6.69895E+03 -3.43715E+03 -1.10480E+04  3.20053E+03 -7.67886E+03
  6.27448E+03 -3.71990E+03  4.95808E+03  1.56348E+03  6.31380E+02  2.62952E+03 -2.99406E+03 -2.31442E+02
 -2.94717E+03 -4.79828E+03 -1.04794E+03 -6.11322E+03  3.25658E+03 -6.76415E+03  8.87102E+03 -3.45915E+03
  1.06179E+04  2.24947E+02  8.23235E+03  5.39739E+03  1.54159E+03  7.92259E+03 -4.75304E+03  7.69020E+03
 -6.31325E+03  2.82132E+03 -3.20677E+03 -1.07996E+03  1.28699E+03 -1.74639E+03  4.38254E+03 -9.60082E+02
  3.71996E+03  2.89973E+03  1.09884E+03  5.88055E+03 -4.01931E+03  5.92516E+03 -7.07076E+03  1.64843E+03
 -4.17944E+03 -3.26735E+03  2.99576E+02 -6.24833E+03  2.88085E+03 -3.09820E+03  3.39398E+03  7.77560E+02
  4.01163E+02  2.60145E+03 -3.72176E+03  4.01527E+03 -4.28351E+03  2.00845E+03 -3.83225E+03 -6.32596E+02
 -2.41131E+03 -4.99888E+03  1.07502E+03 -6.01273E+03  5.06397E+03 -4.02951E+03  5.45839E+03  6.45774E+02
  4.29377E+03  4.42304E+03  3.72739E+02  6.45400E+03 -4.54458E+03  3.84576E+03 -4.64798E+03 -6.71082E+02
 -5.15054E+03 -4.64155E+03 -1.23922E+03 -4.20822E+03  2.07580E+03 -4.21018E+03  2.42832E+03 -2.91680E+03
  2.58023E+03  3.30832E+01  1.67198E+02  1.01981E+03  8.66696E+02 -3.60293E+01 -1.20163E+02 -1.43818E+03
  2.99258E+03 -3.01587E+01  4.60605E+03  5.62830E+02  4.65880E+03  2.54549E+03  4.96761E+03  5.91424E+03
 -9.88601E+02  7.08915E+03 -6.74973E+03  5.41374E+03 -8.38605E+03  1.06722E+03 -6.90120E+03 -2.13853E+03
 -3.56885E+03 -5.54504E+03 -4.71798E+02 -4.22609E+03  1.67114E+03 -1.57608E+03  1.49655E+03 -1.72434E+03
  1.09512E+03 -1.36628E+03  1.81693E+03 -2.25069E+03  3.11271E+03 -1.09597E+03  3.17847E+03  4.67624E+02
  4.03364E+03  9.61227E+02  9.19459E+02  3.05893E+03 -1.39845E+03  1.90555E+03 -3.82728E+03  2.06191E+03
 -4.35676E+03 -9.24263E+02 -9.07676E+02 -2.91615E+03  6.40043E+02 -4.12995E+03  2.78592E+03 -4.46943E+03
  4.17283E+03 -2.81846E+03  5.84442E+03  5.98584E+01  4.02442E+03  3.43768E+03  1.12146E+03  5.02363E+03
 -1.51984E+03  5.28299E+03 -2.75868E+03  1.90290E+03 -1.27725E+03 -9.30229E+02 -3.42185E+02 -5.47607E+02
 -3.56082E+02  6.11020E+02 -8.58774E+02  1.85922E+03 -2.14243E+03  8.92156E+02 -3.56781E+03 -3.79314E+02
 -1.14577E+03 -3.78213E+03  7.52848E+02 -3.58843E+03  2.19184E+03 -3.66110E+03  2.52402E+03 -8.49031E+02
  3.36587E+03  2.12152E+03  1.32031E+03  2.29718E+03 -6.75628E+02  3.83636E+03 -2.12563E+03  2.12354E+03
 -3.22079E+03  8.99478E+02 -2.98818E+03 -1.62322E+03 -1.97362E+02 -2.36438E+03  1.27285E+03 -1.88626E+03
  2.30891E+03 -1.48027E+03  1.53716E+03  8.52430E+01  1.77803E+02  1.26567E+03  5.41681E+02  6.18400E+02
  1.65523E+03  3.68727E+02  1.15300E+03  8.80284E+02  9.06211E+02  1.95990E+03  1.39007E+03  1.18647E+03
 -9.73740E+02  2.34266E+03 -1.63154E+03  3.37444E+03 -2.22330E+03  1.19839E+03 -3.57597E+03  2.31144E+01
 -1.49967E+03 -2.84058E+03  5.38949E+02 -3.89699E+03  1.19699E+03 -2.23000E+03  2.50188E+03 -7.09496E+02
  1.93697E+03  1.52828E+03  4.19391E+02  1.82424E+03 -5.09042E+02  1.03681E+03 -4.81887E+02  2.22405E+00
 -4.91571E+02 -1.17076E+03  1.29282E+03 -9.46450E+02  9.65807E+02 -7.14178E+02  9.59291E+02  3.04223E+02
  4.24984E+02  7.48705E+01  7.40674E+02 -4.96502E+02 -2.06313E+02  7.65877E+02  1.56008E+03 -7.65811E+01
 -4.47082E+02 -3.12826E+02  1.57626E+03  6.14824E+02 -7.72941E+01  2.12844E+03 -3.29873E+02  2.35223E+03
 -1.46358E+03  5.41241E+02 -1.61370E+03  2.04000E+02 -1.50411E+03 -5.16266E+02  1.54889E+02 -6.26760E+02
  2.70082E+02 -1.02328E+03  7.28146E+02 -6.30590E+02  4.18776E+02  1.13565E+03 -8.39916E+02  7.41339E+02
 -1.13001E+03  4.77307E+02 -7.82203E+02 -1.09006E+03 -5.38991E+02 -1.74221E+03  1.44727E+02 -1.13341E+03
  2.86463E+02 -2.79630E+02  4.93551E+02  1.57263E+02  1.39969E+03 -9.45588E+00  6.10606E+02  8.61596E+02
 -4.49581E+01  6.13543E+00 -9.31303E+02 -2.16757E+02  7.13458E+02 -4.45761E+02  1.26255E+03 -4.81426E+02
  5.58678E+02 -9.72299E+01  2.31187E+03  4.49642E+02  1.12316E+03  1.00763E+03 -3.65180E+02  1.30998E+03
 -8.22333E+02  1.16197E+02 -1.07648E+03  1.38608E+02 -5.22502E+02 -1.02718E+03  4.15464E+02 -4.40887E+02
  1.23245E+03 -5.08021E+02  2.66053E+02  5.17613E+02  2.02469E+00  1.10341E+03  9.87200E+01  7.80905E+02
 -2.86628E+02  9.55755E+02 -2.87616E+02  8.06756E+01  1.17549E+01  5.59251E+02 -8.46065E+02  3.64934E+02
 -7.49422E+02  1.01486E+03 -1.51466E+03  2.60710E+02 -1.02628E+03 -2.95297E+01 -1.99902E+03 -9.95508E+02
 -8.10584E+02 -1.96656E+03  2.84059E+02 -1.98239E+03  4.65207E+02 -1.99659E+03  1.73366E+03 -7.38339E+02
  1.64934E+03 -3.08739E+02  8.32734E+02  8.28923E+02 -6.05470E+02  1.00952E+03 -6.33531E+02  8.69976E+02
 -6.05031E+02  5.76284E+02  1.15521E+02  7.93296E+01 -3.99539E+02  1.30456E+02 -8.41440E+02 -3.22387E+02
 -1.02762E+03 -8.51336E+01 -6.99036E+02  2.62552E+02  2.35845E+02 -5.02398E+02 -4.70337E+02 -8.70341E+02
  9.37982E+02 -2.67705E+02  1.73149E+02  2.03772E+02  8.28376E+02  9.14622E+02 -4.55745E+02  1.00962E+03
 -8.03989E+02  1.81653E+03 -1.02594E+03  8.74451E+02 -1.21125E+03 -2.29462E+01 -1.02887E+03 -7.98340E+02
 -7.33811E+02 -6.81818E+02 -2.69279E+01 -8.01335E+02  4.38682E+02 -2.63444E+02  6.32811E+02  1.51384E+02
  3.12610E+02  3.74979E+02 -3.65755E+01  1.22040E+02 -4.73540E+02 -1.36674E+02  9.95515E+01  3.32136E+02
  3.63755E+02  1.94841E+02  1.07683E+02  1.86476E+02  7.69744E+01  3.59114E+02  5.06722E+02 -2.79313E+02
 -6.65200E+02  5.82525E+02 -7.40272E+00  2.71893E+02 -6.56621E+02 -2.70109E+02 -5.70626E+01 -7.05427E+02
  4.20322E+02 -2.21636E+02  3.22096E+02  5.11352E+01  6.35442E+02 -6.49771E+02  2.31772E+02  5.75592E+02
  4.61693E+02  5.09743E+02 -5.21606E+02  3.42194E+02 -3.49291E+02  5.00275E+02 -1.09276E+02  2.40961E+02
  9.99018E+01  8.11544E+01 -3.00635E+02 -1.08700E+02 -3.54991E+02  1.58198E+02 -6.86069E+02 -1.56216E+02
 -9.39166E+02  3.09425E+02 -3.61066E+02 -6.78566E+02  6.88584E+02 -1.33943E+03  4.43253E+02 -2.13059E+02
  5.09414E+02 -2.48939E+02 -6.49642E+02 -2.03979E+02 -3.03457E+02  7.31207E+02 -4.32771E+01  5.55168E+02
