 $NMID ID='MM_0lb_SNR800_20hz_g45_18.RAW', FMTDAT='(8E13.5)'
 TRAMP=1., VOLUME=1. $END
  3.09652E+05  4.85101E+02  3.37136E+05  2.50214E+05  8.43485E+04  3.36860E+05 -1.32425E+05  2.50046E+05
 -1.89375E+05  8.19190E+04 -1.10814E+05 -3.31363E+04  1.43373E+03 -5.03447E+04  5.40328E+04  1.08895E+02
  3.48970E+04  5.25589E+04 -1.69662E+04  7.46163E+04 -6.02000E+04  6.23674E+04 -8.23504E+04  3.13435E+04
 -7.88460E+04 -1.11519E+04 -5.58491E+04 -4.97939E+04 -1.50391E+04 -6.75316E+04  2.64887E+04 -4.44601E+04
  3.86010E+04  4.31140E+03  1.52813E+04  4.69765E+04 -3.37180E+04  4.56553E+04 -6.50840E+04 -5.55503E+02
 -5.13757E+04 -5.56441E+04 -6.23483E+03 -7.43329E+04  3.29697E+04 -5.25380E+04  4.55774E+04 -1.59434E+04
  4.11834E+04  1.10454E+04  3.04247E+04  2.42172E+04  1.58728E+04  2.79573E+04 -4.38267E+03  2.64013E+04
 -2.15343E+04  1.28476E+04 -1.95120E+04 -4.08454E+03  3.88519E+03 -7.62506E+03  2.07021E+04  1.03067E+04
  7.61741E+03  3.25894E+04 -2.98352E+04  3.34344E+04 -6.00863E+04  2.08956E+03 -5.47923E+04 -4.05829E+04
 -1.24730E+04 -5.98769E+04  3.75198E+04 -4.25227E+04  5.45091E+04 -2.06410E+03  3.10491E+04  2.97754E+04
 -6.60091E+03  3.20133E+04 -2.77140E+04  1.24862E+04 -2.68749E+04 -5.59463E+03 -1.34109E+04 -9.76100E+03
 -7.10379E+03 -1.07093E+04 -1.10388E+03 -1.60432E+04  6.43807E+03 -2.23160E+04  1.49704E+04 -1.40597E+04
  1.23942E+04  4.11241E+03 -5.54160E+03  1.28308E+04 -1.87593E+04 -1.77127E+03 -7.80126E+03 -2.93327E+04
  2.03268E+04 -3.94919E+04  4.34133E+04 -1.83512E+04  4.10334E+04  1.77348E+04  1.38598E+04  4.12452E+04
 -1.52129E+04  3.02560E+04 -2.25520E+04  7.65455E+02 -7.65506E+03 -2.57895E+04  2.01741E+04 -3.04807E+04
  3.69181E+04 -6.77437E+03  3.00055E+04  2.22940E+04  1.44188E+04  4.13974E+04 -7.84199E+03  4.33375E+04
 -2.72956E+04  2.84679E+04 -3.58060E+04  7.72622E+03 -3.65883E+04 -1.46280E+04 -2.06875E+04 -3.33908E+04
  6.68302E+03 -3.30571E+04  2.83578E+04 -1.22400E+04  2.60444E+04  1.07624E+04  2.32190E+03  1.70923E+04
 -1.28898E+04  6.88588E+03 -9.52356E+03 -7.77344E+03  5.83132E+03 -9.75130E+03  1.66591E+04  6.59359E+03
  1.19111E+04  2.13406E+04 -7.11952E+03  2.28542E+04 -2.10369E+04  8.10250E+03 -2.41281E+04 -6.68638E+03
 -1.53136E+04 -1.62926E+04 -4.85135E+03 -1.54299E+04  3.96119E+03 -1.32288E+04  1.14136E+04 -1.30007E+04
  1.99317E+04 -1.12191E+04  2.66394E+04  3.04228E+02  2.03814E+04  1.49765E+04  3.90870E+03  3.10797E+04
 -1.55951E+04  2.67587E+04 -2.51307E+04  8.80410E+03 -1.93012E+04 -1.04069E+04 -4.08415E+03 -1.42854E+04
  2.61872E+03 -4.53071E+03 -2.00913E+03  4.99714E+03 -1.20222E+04  5.46148E+03 -1.22154E+04 -4.41279E+03
 -8.30290E+03 -1.42858E+04  4.16936E+03 -1.82637E+04  1.17268E+04 -1.30722E+04  1.35772E+04 -1.24139E+03
  8.20280E+03  1.00283E+04 -6.73973E+02  1.45093E+04 -9.41419E+03  8.22149E+03 -1.42418E+04 -3.28269E+03
 -1.05807E+04 -1.30404E+04 -1.37411E+03 -1.78135E+04  8.00322E+03 -1.41718E+04  1.51568E+04 -6.46113E+03
  1.35739E+04  8.50993E+02  9.55872E+03  3.73703E+03  4.70206E+03  2.00712E+02  7.07674E+03 -1.26900E+03
  1.29740E+04  2.85877E+03  1.33004E+04  1.20913E+04  8.24164E+03  2.29894E+04 -3.19883E+03  2.45468E+04
 -1.46024E+04  1.81830E+04 -2.22029E+04  8.39092E+03 -2.22131E+04 -1.76029E+03 -1.94344E+04 -1.26103E+04
 -9.85075E+03 -1.81216E+04  5.92192E+03 -1.71924E+04  1.51187E+04 -1.02941E+04  1.45142E+04  3.01756E+03
  6.32206E+03  1.02865E+04 -6.56171E+03  9.87859E+03 -1.24599E+04  3.20652E+03 -9.91692E+03 -7.37427E+03
 -6.76794E+01 -1.14465E+04  5.66483E+03 -8.96310E+03  7.29036E+03 -1.40130E+03  1.20578E+03  4.57616E+03
 -4.98658E+03  6.81786E+02 -3.08127E+03 -4.44182E+03  7.57633E+02 -9.24029E+03  7.02908E+03 -8.90771E+03
  1.07948E+04 -3.89654E+03  1.03631E+04  2.65355E+03  8.87593E+03  8.32196E+03  4.36345E+03  1.21219E+04
 -1.14064E+03  1.38292E+04 -8.18652E+03  9.25812E+03 -9.96840E+03  3.10284E+03 -7.26499E+03 -1.34921E+03
 -4.33681E+03 -2.90586E+03 -7.70773E+02  1.93273E+03 -1.75534E+03  1.59063E+03 -3.03484E+03  3.03844E+03
 -7.18711E+03 -1.87576E+02 -8.07513E+03 -6.51972E+03 -3.12152E+03 -1.07125E+04  3.08083E+03 -7.69300E+03
  6.75992E+03 -3.39792E+03  4.89511E+03  1.71305E+03  8.44688E+02  2.67560E+03 -2.93981E+03 -1.03590E+02
 -3.04505E+03 -4.52342E+03 -8.83660E+02 -6.28116E+03  3.30560E+03 -6.58655E+03  8.77602E+03 -3.34366E+03
  1.03428E+04  5.21918E+02  7.75971E+03  5.47125E+03  1.62748E+03  7.43605E+03 -4.87669E+03  7.61693E+03
 -6.16833E+03  2.55201E+03 -3.06955E+03 -1.04743E+03  1.13299E+03 -1.74002E+03  4.61787E+03 -1.00642E+03
  3.64444E+03  2.78071E+03  1.04988E+03  5.41742E+03 -3.77568E+03  5.85074E+03 -7.08063E+03  1.73713E+03
 -4.14846E+03 -2.96827E+03  3.13601E+02 -6.03535E+03  3.20480E+03 -3.03526E+03  2.60729E+03  8.83645E+02
  2.26975E+02  2.59285E+03 -3.83893E+03  3.81405E+03 -4.00109E+03  2.22979E+03 -3.21525E+03 -8.72466E+02
 -2.29123E+03 -4.88436E+03  6.80285E+02 -5.85283E+03  5.03166E+03 -3.77373E+03  5.16267E+03  7.84939E+02
  3.91024E+03  4.39219E+03  1.60149E+02  6.46972E+03 -4.18368E+03  3.39183E+03 -4.48167E+03 -3.25419E+02
 -5.29969E+03 -4.38814E+03 -1.52149E+03 -4.51358E+03  2.06383E+03 -4.08032E+03  2.53009E+03 -2.59188E+03
  2.38321E+03  1.73020E+02  9.31084E+01  1.15160E+03  8.97209E+02 -1.29165E+02 -2.54533E+02 -1.37058E+03
  3.14061E+03 -3.82683E+02  3.95294E+03  6.70730E+02  4.80650E+03  2.38086E+03  4.62466E+03  5.67341E+03
 -9.50071E+02  6.92416E+03 -6.58328E+03  5.52750E+03 -8.10657E+03  7.47513E+02 -6.56401E+03 -1.71094E+03
 -3.47995E+03 -5.56275E+03 -3.38652E+02 -4.11881E+03  1.84363E+03 -1.58592E+03  1.33912E+03 -1.72074E+03
  1.28828E+03 -1.31690E+03  2.01627E+03 -2.35975E+03  3.32519E+03 -1.11581E+03  3.15884E+03  4.53592E+02
  4.12372E+03  8.56035E+02  8.52221E+02  2.82907E+03 -1.21431E+03  2.02999E+03 -3.98113E+03  2.02402E+03
 -3.95863E+03 -9.34826E+02 -1.02139E+03 -2.75422E+03  5.94543E+02 -3.97551E+03  2.71808E+03 -4.39770E+03
  4.20033E+03 -2.65936E+03  5.65864E+03 -1.29374E+02  4.21556E+03  3.25017E+03  1.31393E+03  5.09658E+03
 -1.80101E+03  5.14451E+03 -2.92876E+03  1.49783E+03 -1.14717E+03 -1.05189E+03 -1.97389E+02 -6.90153E+02
 -5.78536E+02  4.23891E+02 -8.52861E+02  1.84933E+03 -1.99508E+03  7.69178E+02 -3.80274E+03 -3.88545E+02
 -8.74357E+02 -3.43666E+03  1.14842E+03 -3.74621E+03  2.40076E+03 -3.40913E+03  2.28153E+03 -7.63626E+02
  3.00242E+03  1.91926E+03  1.24942E+03  2.10910E+03 -5.36230E+02  3.46165E+03 -1.99643E+03  2.23530E+03
 -2.70446E+03  7.90760E+02 -3.20800E+03 -1.72271E+03 -2.93587E+02 -2.68270E+03  1.14680E+03 -2.06592E+03
  1.95367E+03 -1.06573E+03  1.51632E+03  4.80058E+02  5.73627E+02  1.11633E+03  9.42826E+02  5.15987E+02
  1.48951E+03  5.80257E+02  1.10905E+03  1.02777E+03  8.19609E+02  1.92640E+03  8.86912E+02  1.23108E+03
 -1.23813E+03  2.34633E+03 -1.95616E+03  3.65645E+03 -1.96718E+03  9.61245E+02 -3.07405E+03  4.34037E+01
 -1.10654E+03 -2.65323E+03  4.07128E+02 -3.66965E+03  1.28451E+03 -2.07552E+03  2.61671E+03 -6.84317E+02
  2.01019E+03  1.60987E+03  2.22175E+02  1.69449E+03 -2.36666E+02  1.03204E+03 -5.08159E+02  1.67257E+02
 -2.84057E+02 -1.30511E+03  1.16084E+03 -1.10820E+03  1.00100E+03 -5.97537E+02  7.90952E+02  2.42472E+02
  7.37356E+02 -9.43061E+01  7.14069E+02 -5.13665E+02 -2.36540E+02  6.84847E+02  1.61796E+03 -1.68247E+02
 -2.39422E+02 -1.64089E+02  1.51266E+03  5.25789E+02  7.74316E+01  1.93560E+03 -4.27003E+02  2.40676E+03
 -1.17148E+03  9.34261E+02 -1.56493E+03  3.02716E+02 -1.67572E+03 -8.35122E+02 -3.37343E+01 -4.96438E+02
  3.40705E+02 -9.96106E+02  9.67842E+02 -6.96454E+02  3.27706E+02  1.29108E+03 -6.78737E+02  4.82040E+02
 -1.34882E+03  8.73857E+02 -6.96363E+02 -1.16846E+03 -5.44281E+02 -1.60619E+03 -7.49061E+01 -1.01591E+03
  3.05851E+02 -9.16717E+01  4.92003E+02  1.88805E+02  1.07064E+03 -2.99571E+00  4.72542E+02  7.37813E+02
 -1.13593E+02  1.35792E+02 -6.36246E+02  3.91337E+01  5.26906E+02 -7.86514E+02  1.11666E+03 -8.32381E+02
  6.14355E+02  4.09075E+02  2.46188E+03  3.09118E+02  9.53759E+02  1.10633E+03  9.42058E+01  1.25104E+03
 -1.11635E+03 -1.26603E+02 -9.36909E+02 -8.17870E+01 -5.29034E+02 -1.28952E+03  2.06635E+02 -2.53044E+02
  8.42841E+02 -8.50013E+02  4.51933E+02  6.52890E+02  8.41335E+01  1.07789E+03  1.87417E+02  1.06801E+03
 -2.49100E+02  9.71572E+02 -3.78966E+02  3.25209E+02  3.40264E+01  5.94964E+02 -7.68327E+02  3.61198E+02
 -4.78021E+02  9.84593E+02 -1.54598E+03  2.04021E+02 -1.53388E+03  2.41033E+01 -2.13112E+03 -6.00255E+02
 -7.25614E+02 -1.74936E+03  6.15276E+02 -2.18185E+03  5.05944E+02 -1.98840E+03  2.34275E+03 -7.13020E+02
  1.51799E+03 -4.32994E+02  6.47769E+02  1.14759E+03 -4.62766E+02  1.00627E+03 -5.36604E+02  9.57412E+02
 -6.87156E+02  7.79078E+02 -3.59496E+02 -2.65276E+02 -3.53252E+02  3.83602E+02 -5.55049E+02 -4.97810E+00
 -9.26676E+02 -3.57965E+02 -6.69345E+02  3.38439E+02  3.88392E+02 -5.50371E+02 -3.86256E+02 -7.69923E+02
  1.14706E+03 -6.22511E+02  1.24079E+02  1.50233E+02  1.10059E+03  9.09472E+02 -4.95065E+02  9.13777E+02
 -7.06240E+02  1.75258E+03 -9.95161E+02  7.96732E+02 -1.19563E+03 -2.40108E+02 -7.37790E+02 -9.90310E+02
 -8.71131E+02 -7.81215E+02  2.73622E+02 -5.80516E+02  4.90633E+02 -4.88378E+02  3.61053E+02  1.23201E+02
  3.92528E+02 -1.50580E+02  2.03619E+01  4.60785E+02 -4.59091E+02 -8.91552E+01 -1.83474E+02  1.61188E+00
  5.90774E+02  6.81337E-01 -1.83088E+00  2.96402E+02 -3.44252E+02  4.50248E+02  4.53068E+02  4.17096E+01
 -7.55983E+01  3.67179E+02 -3.99598E+02  2.84353E+01 -6.05334E+02 -2.46670E+02  1.70787E+02 -7.68049E+02
  3.77898E+02 -3.60954E+02  8.37768E+01  9.05413E+01  6.96908E+02 -6.37448E+02  1.43189E+02  5.90256E+02
  5.06598E+02  1.93998E+02 -9.32640E+01  1.91286E+02 -4.14068E+02  4.10667E+02 -1.95052E+02  7.33836E+01
  5.12438E+00  2.39625E+02 -3.00204E+02 -8.94801E+00 -6.68993E+02  2.69363E+01 -4.81689E+02 -2.78217E+02
 -9.65542E+02  4.84165E+02 -3.59631E+02 -6.41798E+02  6.97035E+02 -1.20498E+03  5.75169E+02 -9.74481E+01
  4.93772E+02  3.75985E+02 -2.32050E+02  1.16843E+02  2.50115E+02  6.88205E+02 -2.32092E+02  6.20653E+02
