 $NMID ID='MM_0lb_SNR800_11hz_g45_77.RAW', FMTDAT='(8E13.5)'
 TRAMP=1., VOLUME=1. $END
  3.09876E+05  5.47453E+02  3.37845E+05  2.50794E+05  8.43517E+04  3.38297E+05 -1.32508E+05  2.51535E+05
 -1.90602E+05  8.33460E+04 -1.12333E+05 -3.23998E+04  5.03944E+02 -5.05028E+04  5.35874E+04 -5.60216E+02
  3.56544E+04  5.31340E+04 -1.64367E+04  7.56932E+04 -6.07594E+04  6.41695E+04 -8.43044E+04  3.20179E+04
 -8.14782E+04 -1.16939E+04 -5.78118E+04 -5.20950E+04 -1.48850E+04 -7.02286E+04  2.76908E+04 -4.63044E+04
  4.05425E+04  3.92725E+03  1.62047E+04  4.84056E+04 -3.45327E+04  4.74540E+04 -6.73861E+04  3.34414E+02
 -5.43693E+04 -5.76248E+04 -7.12139E+03 -7.80369E+04  3.40503E+04 -5.60255E+04  4.86390E+04 -1.78055E+04
  4.40715E+04  1.17323E+04  3.23242E+04  2.59055E+04  1.56956E+04  3.03182E+04 -5.31811E+03  2.74409E+04
 -2.20064E+04  1.23579E+04 -1.79564E+04 -5.68273E+03  6.05452E+03 -7.46286E+03  2.28837E+04  1.31352E+04
  7.08473E+03  3.65350E+04 -3.30041E+04  3.66078E+04 -6.48703E+04  2.10069E+03 -5.82473E+04 -4.37546E+04
 -1.23649E+04 -6.45898E+04  4.09332E+04 -4.59372E+04  5.93726E+04 -2.53147E+03  3.57237E+04  3.32807E+04
 -5.80477E+03  3.76768E+04 -3.07224E+04  1.72329E+04 -3.14032E+04 -3.89862E+03 -1.77891E+04 -1.14099E+04
 -9.13815E+03 -1.41130E+04 -4.45186E+02 -1.89743E+04  7.89892E+03 -2.36420E+04  1.57272E+04 -1.31720E+04
  1.10498E+04  5.54393E+03 -9.60335E+03  1.27316E+04 -2.23784E+04 -5.55714E+03 -8.57393E+03 -3.52506E+04
  2.39455E+04 -4.48833E+04  4.99960E+04 -2.05731E+04  4.69254E+04  1.97598E+04  1.62269E+04  4.59745E+04
 -1.66636E+04  3.50884E+04 -2.65842E+04  2.31375E+03 -1.06309E+04 -2.88066E+04  2.11205E+04 -3.51895E+04
  4.30491E+04 -1.00842E+04  3.78727E+04  2.45205E+04  1.97816E+04  4.87479E+04 -7.98210E+03  5.32261E+04
 -3.33866E+04  3.57119E+04 -4.49001E+04  1.00107E+04 -4.48835E+04 -1.75743E+04 -2.47364E+04 -3.96508E+04
  7.81391E+03 -3.98067E+04  3.27458E+04 -1.56821E+04  3.04191E+04  1.06730E+04  5.05511E+03  1.97756E+04
 -1.38358E+04  9.03497E+03 -1.08657E+04 -7.23626E+03  6.07121E+03 -1.08112E+04  1.85875E+04  5.79288E+03
  1.40569E+04  2.26503E+04 -5.26190E+03  2.62214E+04 -2.32243E+04  1.28486E+04 -2.99822E+04 -3.86594E+03
 -2.27278E+04 -1.72205E+04 -9.83826E+03 -2.29914E+04  4.14373E+03 -2.26552E+04  1.79378E+04 -2.04265E+04
  2.87783E+04 -1.34847E+04  3.52559E+04  3.63637E+03  2.54523E+04  2.22302E+04  4.22221E+03  3.88417E+04
 -1.86846E+04  3.21578E+04 -2.93819E+04  1.15393E+04 -2.18758E+04 -1.03988E+04 -4.88123E+03 -1.31393E+04
  1.06374E+03 -1.71704E+03 -6.17408E+03  7.37904E+03 -1.80635E+04  5.04644E+03 -1.79762E+04 -8.17673E+03
 -1.07209E+04 -2.11594E+04  5.60070E+03 -2.54391E+04  1.65825E+04 -1.81514E+04  2.05556E+04 -1.70737E+03
  1.34449E+04  1.44814E+04 -8.17848E+02  2.09627E+04 -1.46812E+04  1.24427E+04 -2.11887E+04 -4.49515E+03
 -1.54725E+04 -1.87505E+04 -2.47208E+03 -2.51722E+04  1.11297E+04 -2.11969E+04  2.11016E+04 -1.07108E+04
  1.99748E+04  1.02473E+02  1.41048E+04  4.71676E+03  7.75408E+03  1.00533E+03  1.06815E+04 -1.93552E+03
  1.97502E+04  3.14275E+03  2.23088E+04  1.70230E+04  1.51709E+04  3.40352E+04 -2.32557E+03  3.93150E+04
 -2.28724E+04  3.25368E+04 -3.66347E+04  1.65304E+04 -3.90764E+04 -2.76629E+03 -3.19429E+04 -2.24512E+04
 -1.31012E+04 -3.22277E+04  1.13428E+04 -2.88921E+04  2.43663E+04 -1.40902E+04  2.19600E+04  6.71132E+03
  7.52654E+03  1.67812E+04 -9.90673E+03  1.38270E+04 -1.80625E+04  2.56551E+03 -1.34005E+04 -1.13099E+04
 -2.24347E+02 -1.73437E+04  9.20349E+03 -1.28075E+04  1.19250E+04 -9.60867E+02  3.02794E+03  7.75085E+03
 -7.75583E+03  3.38632E+03 -7.71572E+03 -6.03140E+03 -1.19338E+03 -1.57393E+04  1.07231E+04 -1.70382E+04
  1.96379E+04 -9.41713E+03  2.18006E+04  3.12744E+03  1.94072E+04  1.58772E+04  8.95164E+03  2.47992E+04
 -4.61027E+03  2.66195E+04 -1.70682E+04  1.64627E+04 -1.92505E+04  3.34173E+03 -1.34412E+04 -4.55806E+03
 -5.92701E+03 -5.95764E+03 -6.41419E+02  5.22275E+02 -2.55458E+03  2.77740E+03 -5.96236E+03  4.98665E+03
 -1.23935E+04 -7.11987E+02 -1.31090E+04 -1.03908E+04 -5.19534E+03 -1.73257E+04  5.68672E+03 -1.33518E+04
  1.10421E+04 -5.63025E+03  8.05207E+03  3.69819E+03 -1.40573E+02  5.22907E+03 -6.43292E+03 -1.71260E+00
 -5.91760E+03 -8.57069E+03 -1.12240E+03 -1.27152E+04  7.62183E+03 -1.35657E+04  1.69733E+04 -7.57048E+03
  1.96412E+04  2.08890E+03  1.46577E+04  1.15406E+04  2.73463E+03  1.57752E+04 -8.14875E+03  1.32789E+04
 -1.07402E+04  3.81558E+03 -5.54019E+03 -2.70220E+03  1.68510E+03 -3.47341E+03  7.25118E+03 -9.94913E+02
  6.45596E+03  5.86437E+03  1.39795E+03  1.03492E+04 -7.65087E+03  1.01342E+04 -1.33718E+04  2.49462E+03
 -9.00828E+03 -7.06007E+03  2.06812E+02 -1.14741E+04  7.37113E+03 -5.43895E+03  7.67416E+03  2.36183E+03
  1.63732E+03  7.78068E+03 -6.66363E+03  9.65159E+03 -1.09028E+04  4.27297E+03 -1.11598E+04 -4.01881E+03
 -5.99971E+03 -1.28964E+04  3.01502E+03 -1.49064E+04  1.23167E+04 -8.88216E+03  1.33412E+04  2.23380E+03
  8.63755E+03  1.08036E+04 -9.12751E+02  1.30868E+04 -9.49091E+03  7.53043E+03 -1.04050E+04 -8.60781E+02
 -9.07157E+03 -8.70633E+03 -1.58973E+03 -9.89393E+03  5.25612E+03 -8.21831E+03  6.07247E+03 -3.44190E+03
  4.51371E+03  1.58459E+03 -1.07867E+03  1.58687E+03 -2.45182E+02 -2.41091E+03  1.69012E+03 -5.62204E+03
  8.73721E+03 -3.61751E+03  1.27273E+04  1.27977E+03  1.25081E+04  8.74708E+03  8.73536E+03  1.61479E+04
 -4.15323E+03  1.91439E+04 -1.58784E+04  1.43454E+04 -2.04649E+04  2.93228E+03 -1.66163E+04 -6.75529E+03
 -8.46243E+03 -1.38305E+04 -5.02364E+02 -1.15299E+04  4.16768E+03 -6.27973E+03  3.72563E+03 -4.13511E+03
  2.87932E+03 -2.55649E+03  3.60268E+03 -3.37883E+03  5.11436E+03 -3.01880E+03  6.68107E+03 -1.10209E+03
  8.90855E+03  2.01511E+03  4.31476E+03  7.26206E+03 -1.76245E+03  8.13605E+03 -9.42172E+03  6.46636E+03
 -1.13385E+04 -1.40401E+03 -6.86904E+03 -8.09445E+03 -4.44222E+02 -1.26453E+04  6.71324E+03 -1.21635E+04
  1.27601E+04 -7.23614E+03  1.54438E+04  1.87075E+03  1.06690E+04  1.07890E+04  1.76239E+03  1.39265E+04
 -5.61194E+03  1.15779E+04 -8.15704E+03  3.67029E+03 -5.51801E+03 -1.51844E+03 -2.38275E+03 -1.55215E+03
 -1.46251E+03 -6.76551E+01 -1.77624E+03  2.57067E+03 -5.15234E+03  1.79922E+03 -8.18911E+03 -8.56056E+02
 -5.60734E+03 -8.26153E+03  1.44190E+02 -1.15346E+04  7.21932E+03 -1.05839E+04  1.10846E+04 -3.30750E+03
  1.11323E+04  5.54162E+03  5.20646E+03  9.64143E+03 -2.30996E+03  1.13329E+04 -8.00810E+03  7.28499E+03
 -1.09072E+04  5.21269E+02 -8.08444E+03 -7.10765E+03 -8.63445E+02 -9.10347E+03  5.00149E+03 -7.00311E+03
  6.97205E+03 -2.32539E+03  5.02276E+03  1.95382E+03  1.76625E+03  3.24609E+03  1.05404E+03  1.68676E+03
  2.64469E+03  1.21091E+03  2.76946E+03  1.64698E+03  3.39450E+03  3.86014E+03  2.93400E+03  6.01308E+03
 -2.36841E+03  9.09500E+03 -7.64268E+03  9.15859E+03 -1.09948E+04  2.31659E+03 -1.18958E+04 -3.96895E+03
 -5.64593E+03 -1.10283E+04  1.95598E+03 -1.22166E+04  6.89373E+03 -7.90576E+03  9.00088E+03 -1.72495E+03
  7.11291E+03  4.30295E+03  1.60490E+03  6.70344E+03 -3.23785E+03  3.99275E+03 -4.15955E+03 -9.28193E+02
 -2.16706E+03 -4.74958E+03  2.44175E+03 -4.98203E+03  4.38760E+03 -2.39867E+03  4.54249E+03  1.10049E+03
  2.40264E+03  2.29244E+03  1.67321E+03  1.84134E+03 -5.74922E+02  1.47148E+03  1.37895E+03 -3.69222E+02
  1.57161E+03 -3.85215E+02  4.77694E+03  1.72891E+03  2.65403E+03  6.32906E+03 -5.62597E+02  7.95924E+03
 -5.14428E+03  4.97045E+03 -7.19172E+03  1.28685E+03 -6.41803E+03 -2.44892E+03 -2.36949E+03 -4.60881E+03
  7.31209E+02 -4.22423E+03  2.70354E+03 -2.19917E+03  2.53339E+03  2.56313E+03 -1.05085E+03  3.49713E+03
 -4.57200E+03  2.37300E+03 -4.96387E+03 -2.96499E+03 -2.85525E+03 -6.00417E+03  8.87632E+02 -5.85482E+03
  3.21556E+03 -3.47724E+03  4.13997E+03 -6.28512E+02  3.88235E+03  1.31199E+03  3.91323E+02  3.27783E+03
 -1.92590E+03  9.63049E+02 -2.96514E+03 -2.02990E+03  1.27152E+03 -4.61846E+03  5.74784E+03 -3.38148E+03
  7.00113E+03  4.09863E+02  6.96300E+03  4.56162E+03  1.86205E+03  6.82717E+03 -2.29529E+03  6.86807E+03
 -5.47695E+03  3.10104E+03 -6.01965E+03 -8.74713E+02 -2.84805E+03 -4.23938E+03  1.24408E+03 -4.25322E+03
  4.65966E+03 -2.33937E+03  3.83804E+03  2.12425E+03  1.35883E+03  3.96480E+03 -6.16389E+02  3.56280E+03
 -1.53344E+03  2.01223E+03 -1.54776E+03  7.11802E+02 -8.38793E+02  4.74901E+02 -1.07407E+03  1.75518E+03
 -1.81767E+03  2.65766E+03 -5.02868E+03  2.40723E+03 -6.96183E+03  2.38896E+02 -7.45231E+03 -4.54384E+03
 -4.30249E+03 -9.24117E+03  1.90419E+03 -1.06639E+04  6.47265E+03 -8.42536E+03  1.03644E+04 -3.33471E+03
  9.19769E+03  1.57429E+03  5.58344E+03  6.56472E+03  2.59788E+02  7.42731E+03 -3.08170E+03  5.10806E+03
 -4.20980E+03  2.09842E+03 -2.49772E+03 -7.52840E+02 -1.13586E+03 -4.23093E+02 -8.00594E+02  1.28584E+01
 -1.45347E+03  4.17307E+02 -1.48278E+03 -2.72730E+02  1.45251E+01 -2.06968E+03 -8.30475E+01 -2.82293E+03
  3.56881E+03 -2.39670E+03  3.93778E+03  1.13033E+02  4.89848E+03  3.99644E+03  9.07399E+02  7.07187E+03
 -3.50825E+03  7.78812E+03 -7.33781E+03  5.14874E+03 -8.89196E+03 -2.72118E+02 -6.49381E+03 -5.45005E+03
 -2.80262E+03 -7.17437E+03  1.79503E+03 -6.52017E+03  4.41444E+03 -3.39897E+03  4.73906E+03  2.72873E+02
  3.16158E+03  2.02815E+03 -3.15278E+02  1.96143E+03 -1.42002E+03 -6.16402E+01 -4.79650E+01 -1.51888E+03
  2.44165E+03 -5.50487E+02  2.13586E+03  9.39729E+02  1.62731E+03  3.02305E+03  4.43926E+02  3.48803E+03
 -3.08429E+03  3.08932E+03 -4.65856E+03  1.03186E+02 -3.79158E+03 -3.24960E+03 -3.69053E+02 -5.77963E+03
  3.15631E+03 -4.62543E+03  5.00474E+03 -1.78325E+03  5.09586E+03  1.19152E+03  3.00847E+03  4.14639E+03
  1.08742E+03  4.39430E+03 -1.86516E+03  3.58042E+03 -2.97960E+03  1.94367E+03 -2.66832E+03  1.81813E+02
 -1.43941E+03 -4.41387E+02 -1.21248E+03  9.33191E+02 -2.63563E+03  8.44953E+02 -3.56773E+03 -1.08844E+03
 -3.77271E+03 -1.75141E+03 -8.59139E+02 -4.65884E+03  2.02086E+03 -5.03513E+03  3.67947E+03 -1.70765E+03
  4.58650E+03  4.79228E+02  2.23220E+03  3.11141E+03 -4.52845E+02  4.53730E+03 -3.07472E+03  2.50689E+03
