 $NMID ID='MM_0lb_SNR800_8hz_g40_71.RAW', FMTDAT='(8E13.5)'
 TRAMP=1., VOLUME=1. $END
  3.10231E+05  3.36810E+02  3.38042E+05  2.50614E+05  8.48110E+04  3.38951E+05 -1.32473E+05  2.51892E+05
 -1.91103E+05  8.37821E+04 -1.12848E+05 -3.22633E+04 -5.61919E+01 -5.05879E+04  5.35997E+04 -4.38778E+02
  3.55726E+04  5.30579E+04 -1.63769E+04  7.58425E+04 -6.13354E+04  6.47747E+04 -8.55717E+04  3.25438E+04
 -8.23842E+04 -1.13893E+04 -5.78006E+04 -5.25265E+04 -1.47141E+04 -7.08322E+04  2.82597E+04 -4.68347E+04
  4.12993E+04  3.80145E+03  1.67244E+04  4.86015E+04 -3.46290E+04  4.80052E+04 -6.82282E+04  2.42660E+02
 -5.50837E+04 -5.79094E+04 -7.21630E+03 -7.87986E+04  3.49215E+04 -5.68945E+04  5.00474E+04 -1.83818E+04
  4.54114E+04  1.12094E+04  3.27058E+04  2.64964E+04  1.57519E+04  3.05330E+04 -5.86302E+03  2.79256E+04
 -2.24074E+04  1.17294E+04 -1.77886E+04 -5.67146E+03  7.08925E+03 -7.47389E+03  2.35106E+04  1.38854E+04
  7.39357E+03  3.73715E+04 -3.38602E+04  3.72075E+04 -6.57254E+04  1.79483E+03 -5.86924E+04 -4.43628E+04
 -1.24768E+04 -6.55745E+04  4.13706E+04 -4.79393E+04  6.13479E+04 -2.33917E+03  3.70549E+04  3.46152E+04
 -5.16517E+03  3.96610E+04 -3.17431E+04  1.83363E+04 -3.34748E+04 -3.10206E+03 -1.92849E+04 -1.26285E+04
 -8.93402E+03 -1.50415E+04 -5.79005E+02 -1.97047E+04  8.48209E+03 -2.35406E+04  1.58183E+04 -1.26087E+04
  1.05329E+04  6.28024E+03 -1.09203E+04  1.23847E+04 -2.34600E+04 -7.05031E+03 -8.77048E+03 -3.76327E+04
  2.52168E+04 -4.67817E+04  5.21122E+04 -2.07767E+04  4.87434E+04  2.08381E+04  1.73818E+04  4.68221E+04
 -1.63591E+04  3.59988E+04 -2.76356E+04  2.84479E+03 -1.18570E+04 -2.95160E+04  2.15487E+04 -3.69551E+04
  4.51877E+04 -1.12356E+04  4.02828E+04  2.53682E+04  2.12877E+04  5.12615E+04 -8.44210E+03  5.62323E+04
 -3.54461E+04  3.87141E+04 -4.79124E+04  1.08386E+04 -4.73731E+04 -1.84300E+04 -2.65461E+04 -4.23064E+04
  8.14981E+03 -4.21734E+04  3.40806E+04 -1.67409E+04  3.22317E+04  1.12548E+04  5.10260E+03  2.08570E+04
 -1.41081E+04  1.00575E+04 -1.12079E+04 -7.67102E+03  5.69882E+03 -1.14402E+04  1.87036E+04  5.45787E+03
  1.50879E+04  2.25603E+04 -4.86297E+03  2.75089E+04 -2.32169E+04  1.41800E+04 -3.19593E+04 -2.49191E+03
 -2.54560E+04 -1.84066E+04 -1.19711E+04 -2.51474E+04  4.42403E+03 -2.59606E+04  2.00973E+04 -2.32940E+04
  3.18919E+04 -1.47003E+04  3.81128E+04  4.75710E+03  2.68715E+04  2.46836E+04  4.42780E+03  4.15498E+04
 -1.99909E+04  3.41581E+04 -3.06803E+04  1.18168E+04 -2.26099E+04 -1.04576E+04 -4.69651E+03 -1.26507E+04
  1.37434E+03 -1.18152E+03 -7.90205E+03  8.46586E+03 -2.05340E+04  4.65505E+03 -2.04022E+04 -9.52242E+03
 -1.19227E+04 -2.35783E+04  6.12638E+03 -2.82027E+04  1.87202E+04 -1.99192E+04  2.28597E+04 -1.75362E+03
  1.46761E+04  1.59515E+04 -1.23368E+03  2.31483E+04 -1.69017E+04  1.33243E+04 -2.35094E+04 -4.85752E+03
 -1.72802E+04 -2.12767E+04 -2.52152E+03 -2.79914E+04  1.27861E+04 -2.32609E+04  2.29932E+04 -1.21649E+04
  2.21152E+04 -1.84561E+02  1.57354E+04  5.30305E+03  8.76905E+03  1.82941E+03  1.24728E+04 -1.91902E+03
  2.23727E+04  3.05339E+03  2.56462E+04  1.83991E+04  1.78763E+04  3.79761E+04 -2.84898E+03  4.44980E+04
 -2.54006E+04  3.77293E+04 -4.23233E+04  1.92254E+04 -4.55598E+04 -3.47963E+03 -3.67023E+04 -2.65011E+04
 -1.46549E+04 -3.79178E+04  1.31968E+04 -3.34111E+04  2.83916E+04 -1.52102E+04  2.38627E+04  7.79736E+03
  8.50348E+03  1.90653E+04 -1.15507E+04  1.58693E+04 -2.08328E+04  2.16222E+03 -1.53536E+04 -1.32282E+04
 -3.15785E+02 -1.93071E+04  1.07982E+04 -1.45079E+04  1.32561E+04 -1.93096E+03  3.37440E+03  8.97612E+03
 -8.78390E+03  4.30015E+03 -8.88108E+03 -7.04829E+03 -1.83318E+03 -1.89074E+04  1.20940E+04 -2.05442E+04
  2.31517E+04 -1.16242E+04  2.68762E+04  3.23745E+03  2.33844E+04  1.90297E+04  1.09674E+04  2.95886E+04
 -5.49300E+03  3.16895E+04 -2.08199E+04  2.01414E+04 -2.34959E+04  3.95504E+03 -1.54610E+04 -6.03693E+03
 -6.89054E+03 -7.11048E+03 -7.07810E+02  6.44335E+02 -2.78118E+03  3.86461E+03 -7.77680E+03  5.47769E+03
 -1.41743E+04 -8.23744E+02 -1.50093E+04 -1.20461E+04 -5.83099E+03 -2.01027E+04  6.55553E+03 -1.59950E+04
  1.34527E+04 -6.31824E+03  9.20873E+03  4.45595E+03 -4.36790E+02  6.17770E+03 -7.96161E+03 -1.40267E+02
 -7.73278E+03 -1.01225E+04 -1.00418E+03 -1.59050E+04  9.45049E+03 -1.64363E+04  2.06892E+04 -9.13479E+03
  2.40444E+04  2.90975E+03  1.73782E+04  1.50359E+04  3.36902E+03  1.95837E+04 -9.96853E+03  1.60191E+04
 -1.27783E+04  4.41089E+03 -6.41723E+03 -3.47981E+03  2.42354E+03 -4.97412E+03  8.90400E+03 -1.29515E+03
  7.43320E+03  7.00401E+03  1.50668E+03  1.26699E+04 -8.86902E+03  1.25751E+04 -1.61805E+04  2.99813E+03
 -1.09627E+04 -8.82287E+03  2.44252E+02 -1.34744E+04  8.97165E+03 -6.70970E+03  9.44992E+03  3.64257E+03
  2.39867E+03  1.04848E+04 -8.28650E+03  1.19632E+04 -1.42511E+04  5.04384E+03 -1.42735E+04 -5.54151E+03
 -8.71799E+03 -1.65417E+04  4.28186E+03 -1.91433E+04  1.60747E+04 -1.09857E+04  1.74143E+04  3.02171E+03
  1.04923E+04  1.37189E+04 -1.55918E+03  1.67124E+04 -1.17561E+04  9.28361E+03 -1.30551E+04 -1.51569E+03
 -1.12144E+04 -1.08729E+04 -1.82016E+03 -1.24948E+04  6.52048E+03 -9.64336E+03  7.77817E+03 -3.83244E+03
  4.98433E+03  2.11053E+03 -1.01674E+03  2.02068E+03 -1.18292E+03 -3.41667E+03  2.93356E+03 -8.17025E+03
  1.19340E+04 -5.28924E+03  1.68296E+04  1.89912E+03  1.64429E+04  1.15409E+04  1.04381E+04  2.18775E+04
 -5.00289E+03  2.51346E+04 -2.04723E+04  1.82034E+04 -2.66483E+04  3.22344E+03 -2.14076E+04 -9.37861E+03
 -1.11280E+04 -1.79409E+04 -3.26257E+02 -1.50572E+04  4.91606E+03 -8.31346E+03  5.55568E+03 -5.46896E+03
  3.97925E+03 -3.36139E+03  4.06933E+03 -3.63152E+03  6.15523E+03 -4.04332E+03  8.33008E+03 -1.82006E+03
  1.10306E+04  2.81513E+03  6.56982E+03  9.71026E+03 -2.12662E+03  1.20051E+04 -1.24310E+04  9.26232E+03
 -1.54353E+04 -1.33393E+03 -1.01567E+04 -1.10659E+04 -9.84874E+02 -1.70305E+04  9.49222E+03 -1.66649E+04
  1.72714E+04 -9.31830E+03  2.04559E+04  2.49910E+03  1.41399E+04  1.44522E+04  2.60681E+03  1.87901E+04
 -7.92570E+03  1.53192E+04 -1.09748E+04  5.13786E+03 -7.71403E+03 -1.86469E+03 -2.96986E+03 -2.26099E+03
 -1.43424E+03 -4.13562E+02 -2.36433E+03  3.17779E+03 -6.64027E+03  2.69453E+03 -1.03368E+04 -1.56420E+03
 -7.35977E+03 -1.08783E+04 -2.66448E+02 -1.53934E+04  9.44791E+03 -1.44138E+04  1.53078E+04 -4.30001E+03
  1.51785E+04  7.80442E+03  7.28497E+03  1.38969E+04 -3.27984E+03  1.52099E+04 -1.12942E+04  9.74954E+03
 -1.46980E+04  7.12503E+02 -1.09718E+04 -9.36883E+03 -1.59290E+03 -1.33924E+04  6.77821E+03 -9.88122E+03
  9.60009E+03 -3.27144E+03  6.66126E+03  2.84558E+03  2.32393E+03  4.60510E+03  1.40307E+03  2.02629E+03
  3.01511E+03  1.20462E+03  3.85643E+03  1.78688E+03  5.12378E+03  5.48883E+03  3.75887E+03  8.67391E+03
 -3.04716E+03  1.22691E+04 -1.11397E+04  1.24364E+04 -1.67297E+04  3.26011E+03 -1.65623E+04 -7.26517E+03
 -7.92199E+03 -1.57401E+04  2.15945E+03 -1.77057E+04  9.77667E+03 -1.15479E+04  1.30774E+04 -3.21896E+03
  1.02496E+04  5.78361E+03  2.61444E+03  9.49021E+03 -4.44822E+03  6.06993E+03 -6.79325E+03 -9.24196E+02
 -3.22628E+03 -6.92781E+03  3.88111E+03 -7.25103E+03  6.64009E+03 -3.18386E+03  6.50133E+03  1.13563E+03
  4.02802E+03  3.35815E+03  1.15542E+03  3.06830E+03 -6.05552E+02  2.65440E+03  1.34980E+03 -8.43271E+02
  2.71409E+03 -1.08485E+03  6.74307E+03  2.50713E+03  3.78796E+03  8.87376E+03 -1.57047E+03  1.11342E+04
 -8.12709E+03  7.68057E+03 -1.06752E+04  2.08863E+03 -9.23450E+03 -3.63427E+03 -3.89100E+03 -6.82916E+03
  1.15397E+03 -6.77917E+03  3.98341E+03 -3.27371E+03  3.37450E+03  3.05725E+03 -1.92917E+03  5.49035E+03
 -6.48702E+03  2.53384E+03 -7.99178E+03 -4.14651E+03 -4.37237E+03 -8.92539E+03  1.40645E+03 -9.19945E+03
  5.41873E+03 -4.99446E+03  7.13848E+03 -1.07404E+03  5.15792E+03  2.19503E+03  1.02509E+03  5.13799E+03
 -3.13766E+03  1.39176E+03 -3.81847E+03 -3.42195E+03  1.37545E+03 -7.09311E+03  8.45689E+03 -5.80737E+03
  1.06315E+04  8.37426E+02  1.04886E+04  7.37046E+03  3.48413E+03  1.14050E+04 -4.18450E+03  1.06830E+04
 -9.24954E+03  4.69614E+03 -9.52374E+03 -1.43974E+03 -4.89747E+03 -7.52863E+03  1.54387E+03 -6.68219E+03
  6.98780E+03 -3.26891E+03  6.15088E+03  3.00009E+03  1.93423E+03  6.45278E+03 -1.07358E+03  5.09933E+03
 -2.93645E+03  3.22924E+03 -2.61920E+03  1.03284E+03 -1.36535E+03  1.22054E+03 -1.52084E+03  2.45552E+03
 -2.72773E+03  4.20042E+03 -7.47154E+03  4.02714E+03 -1.09226E+04  2.49767E+02 -1.19247E+04 -7.33653E+03
 -6.38046E+03 -1.44624E+04  2.98718E+03 -1.70506E+04  1.06560E+04 -1.32720E+04  1.58291E+04 -5.01794E+03
  1.48705E+04  3.41983E+03  9.59692E+03  1.03245E+04  8.73357E+02  1.19488E+04 -4.61539E+03  8.76240E+03
 -6.69203E+03  2.79384E+03 -4.11864E+03 -1.09256E+03 -1.14774E+03 -1.66858E+03 -7.13911E+02  1.94799E+02
 -1.63510E+03  2.07565E+02 -2.40187E+03 -4.73837E+02 -9.43169E+02 -2.40458E+03  2.87443E+02 -4.19322E+03
  4.83409E+03 -3.70375E+03  7.51455E+03 -1.58943E+02  7.90132E+03  6.45299E+03  2.20768E+03  1.18863E+04
 -5.13874E+03  1.35357E+04 -1.22174E+04  7.70524E+03 -1.41936E+04 -8.88476E+02 -1.05382E+04 -8.85265E+03
 -4.75176E+03 -1.26919E+04  2.89924E+03 -1.09807E+04  7.59971E+03 -6.17735E+03  7.76943E+03  1.91005E+02
  4.70082E+03  4.23346E+03 -4.66835E+02  2.90754E+03 -1.76552E+03 -8.04660E+01  5.08381E+02 -2.71530E+03
  3.60385E+03 -1.45338E+03  4.88242E+03  7.66618E+02  3.30859E+03  4.51291E+03  3.40178E+02  6.33729E+03
 -5.35626E+03  4.89238E+03 -7.93625E+03  8.12442E+02 -7.22109E+03 -5.79237E+03 -1.32638E+03 -9.96712E+03
  5.62370E+03 -8.03117E+03  8.98524E+03 -2.62817E+03  9.07735E+03  2.41602E+03  5.07434E+03  7.23952E+03
  1.02503E+03  8.07184E+03 -3.35164E+03  6.47385E+03 -4.90469E+03  3.43698E+03 -4.28032E+03  6.08085E+02
 -2.28451E+03  3.50060E+00 -2.19802E+03  7.95472E+02 -4.18767E+03  1.03083E+03 -6.29613E+03 -1.39851E+03
 -5.98163E+03 -4.23572E+03 -2.19811E+03 -7.76893E+03  3.74776E+03 -8.52880E+03  7.37782E+03 -4.32912E+03
  8.13286E+03  1.24874E+03  4.70827E+03  5.78828E+03 -8.85669E+02  8.47616E+03 -6.13680E+03  5.41972E+03
