 $NMID ID='MM_0lb_SNR800_20hz_g40_33.RAW', FMTDAT='(8E13.5)'
 TRAMP=1., VOLUME=1. $END
  3.09578E+05  2.20213E+02  3.37097E+05  2.50389E+05  8.41646E+04  3.36826E+05 -1.32269E+05  2.49910E+05
 -1.89563E+05  8.20713E+04 -1.10573E+05 -3.29783E+04  1.84874E+03 -5.01045E+04  5.40516E+04  4.48020E+02
  3.49364E+04  5.28775E+04 -1.70696E+04  7.47124E+04 -5.99345E+04  6.22926E+04 -8.22711E+04  3.09761E+04
 -7.87428E+04 -1.11981E+04 -5.56002E+04 -4.95744E+04 -1.49054E+04 -6.74217E+04  2.63675E+04 -4.42333E+04
  3.83281E+04  4.02377E+03  1.51501E+04  4.66797E+04 -3.37371E+04  4.56364E+04 -6.48377E+04 -6.52237E+02
 -5.13086E+04 -5.54842E+04 -5.88613E+03 -7.42030E+04  3.27572E+04 -5.21952E+04  4.53432E+04 -1.57074E+04
  4.07976E+04  1.11484E+04  3.00344E+04  2.37649E+04  1.59739E+04  2.77004E+04 -4.44700E+03  2.64209E+04
 -2.16006E+04  1.28322E+04 -1.93304E+04 -4.31735E+03  3.48232E+03 -7.76283E+03  2.06953E+04  1.02248E+04
  7.57987E+03  3.22011E+04 -2.94948E+04  3.31774E+04 -6.00782E+04  1.88116E+03 -5.45146E+04 -4.04228E+04
 -1.25800E+04 -5.95228E+04  3.73127E+04 -4.24041E+04  5.40937E+04 -1.56260E+03  3.03975E+04  2.96078E+04
 -6.87292E+03  3.13508E+04 -2.75961E+04  1.19830E+04 -2.62668E+04 -5.72109E+03 -1.33571E+04 -9.57719E+03
 -6.96811E+03 -1.07822E+04 -1.48765E+03 -1.58154E+04  6.20692E+03 -2.21771E+04  1.47719E+04 -1.40159E+04
  1.28426E+04  3.71579E+03 -5.04209E+03  1.31040E+04 -1.81334E+04 -1.34983E+03 -7.68390E+03 -2.84699E+04
  1.95663E+04 -3.90000E+04  4.31119E+04 -1.80933E+04  4.05106E+04  1.76111E+04  1.36542E+04  4.03520E+04
 -1.50811E+04  3.00962E+04 -2.23661E+04  5.69283E+02 -7.36544E+03 -2.54523E+04  2.03675E+04 -2.98103E+04
  3.65328E+04 -6.39244E+03  2.94321E+04  2.20860E+04  1.41129E+04  4.07154E+04 -7.49887E+03  4.26659E+04
 -2.68813E+04  2.79644E+04 -3.49389E+04  7.76897E+03 -3.59651E+04 -1.41116E+04 -2.03860E+04 -3.26889E+04
  6.82638E+03 -3.22787E+04  2.81379E+04 -1.17738E+04  2.55178E+04  1.05616E+04  2.18190E+03  1.71362E+04
 -1.27087E+04  7.03992E+03 -9.09310E+03 -7.87578E+03  5.92519E+03 -9.88615E+03  1.69017E+04  6.28699E+03
  1.15728E+04  2.11577E+04 -7.05931E+03  2.25261E+04 -2.10263E+04  8.23747E+03 -2.38942E+04 -6.98447E+03
 -1.51208E+04 -1.60000E+04 -4.31040E+03 -1.52713E+04  3.57035E+03 -1.25624E+04  1.10468E+04 -1.28480E+04
  1.93777E+04 -1.10960E+04  2.62612E+04  2.62661E+02  2.02583E+04  1.47524E+04  3.71778E+03  3.08039E+04
 -1.52671E+04  2.65529E+04 -2.51214E+04  8.99873E+03 -1.87186E+04 -1.04870E+04 -3.78850E+03 -1.39918E+04
  2.87856E+03 -4.79832E+03 -1.68821E+03  4.70991E+03 -1.14609E+04  5.10247E+03 -1.16881E+04 -3.99713E+03
 -8.13135E+03 -1.38241E+04  4.03935E+03 -1.76266E+04  1.12889E+04 -1.28384E+04  1.31818E+04 -1.41501E+03
  7.81438E+03  9.78292E+03 -6.34713E+02  1.43332E+04 -9.29619E+03  8.02098E+03 -1.38356E+04 -3.31893E+03
 -1.04821E+04 -1.31152E+04 -1.14863E+03 -1.73023E+04  8.09201E+03 -1.36850E+04  1.47959E+04 -6.33522E+03
  1.30082E+04  8.38235E+02  9.35215E+03  3.73966E+03  4.35634E+03  5.59800E+02  6.98894E+03 -1.06300E+03
  1.24960E+04  2.57529E+03  1.30354E+04  1.16686E+04  7.78387E+03  2.25721E+04 -3.31588E+03  2.36218E+04
 -1.39369E+04  1.76819E+04 -2.14260E+04  7.90561E+03 -2.15623E+04 -1.52640E+03 -1.89710E+04 -1.22622E+04
 -9.62413E+03 -1.75723E+04  5.56094E+03 -1.67407E+04  1.47668E+04 -1.03723E+04  1.40145E+04  2.94052E+03
  6.29774E+03  9.88013E+03 -6.51458E+03  9.60157E+03 -1.20392E+04  2.71813E+03 -9.51199E+03 -7.23872E+03
 -5.82237E+01 -1.14913E+04  5.69534E+03 -8.68444E+03  7.03445E+03 -1.43764E+03  1.13589E+03  4.02709E+03
 -4.74916E+03  7.77145E+02 -2.71222E+03 -4.24244E+03  8.33649E+02 -8.78038E+03  7.01342E+03 -8.49445E+03
  1.05524E+04 -3.51634E+03  9.89806E+03  2.64071E+03  8.11897E+03  7.79445E+03  4.29240E+03  1.15200E+04
 -8.69973E+02  1.35620E+04 -7.99996E+03  8.64797E+03 -9.43669E+03  2.86643E+03 -7.55476E+03 -1.28223E+03
 -4.11999E+03 -2.74519E+03 -6.84086E+02  1.62828E+03 -1.93046E+03  2.00357E+03 -2.93414E+03  3.50369E+03
 -7.30626E+03 -3.26140E+02 -8.00167E+03 -6.57692E+03 -3.39293E+03 -1.06499E+04  3.26202E+03 -7.46733E+03
  6.26338E+03 -3.41797E+03  4.86765E+03  1.92956E+03  8.90323E+02  2.62049E+03 -3.02369E+03  1.18982E+02
 -2.97444E+03 -4.37792E+03 -5.46186E+02 -6.07401E+03  3.01841E+03 -7.04759E+03  8.60819E+03 -3.22320E+03
  9.85541E+03  6.18086E+02  7.62509E+03  5.16615E+03  1.76274E+03  7.58534E+03 -4.88245E+03  7.37815E+03
 -6.25049E+03  2.72879E+03 -2.91044E+03 -9.32240E+02  1.13109E+03 -1.54290E+03  4.49748E+03 -1.02009E+03
  3.61967E+03  2.89065E+03  1.12465E+03  5.31572E+03 -3.93141E+03  5.67192E+03 -7.00291E+03  1.73392E+03
 -4.03919E+03 -2.97806E+03  3.05406E+02 -6.23193E+03  2.85290E+03 -2.91216E+03  2.94638E+03  9.12019E+02
  2.07277E+02  2.66129E+03 -3.74727E+03  3.59634E+03 -3.68472E+03  1.86590E+03 -3.31403E+03 -5.92087E+02
 -2.34324E+03 -4.71131E+03  7.81090E+02 -5.68021E+03  4.86888E+03 -4.02133E+03  5.18077E+03  7.23006E+02
  4.35780E+03  4.20014E+03  1.85006E+02  6.27024E+03 -4.39631E+03  3.43596E+03 -4.19551E+03 -3.14954E+02
 -5.13291E+03 -4.54517E+03 -1.28407E+03 -4.18792E+03  2.32571E+03 -4.05023E+03  2.06152E+03 -2.73741E+03
  2.75036E+03 -1.23981E+02  1.19656E+02  1.30694E+03  8.80466E+02  1.70118E+02 -1.11766E+02 -1.13797E+03
  2.72569E+03 -1.19895E+02  3.77482E+03  7.08865E+02  4.38786E+03  2.12561E+03  4.93953E+03  5.78786E+03
 -6.32630E+02  6.87442E+03 -6.27902E+03  5.08687E+03 -8.41987E+03  1.07332E+03 -6.19094E+03 -1.72368E+03
 -3.42005E+03 -5.42049E+03 -6.36796E+02 -4.00393E+03  1.84500E+03 -1.33086E+03  1.38897E+03 -1.89311E+03
  8.50410E+02 -1.47911E+03  2.19946E+03 -1.93465E+03  3.57363E+03 -1.15881E+03  3.12821E+03  3.15413E+02
  3.71391E+03  1.18047E+03  5.99141E+02  2.62922E+03 -1.48363E+03  2.06876E+03 -3.70974E+03  2.08806E+03
 -3.85518E+03 -9.60630E+02 -1.42177E+03 -2.58441E+03  6.71193E+02 -4.02760E+03  2.56554E+03 -4.14397E+03
  3.68156E+03 -2.67281E+03  5.56786E+03 -9.95416E+01  4.18520E+03  3.20192E+03  1.21656E+03  4.85514E+03
 -1.28941E+03  5.19017E+03 -2.78070E+03  1.78009E+03 -1.54141E+03 -1.00753E+03 -3.07178E+02 -5.56474E+02
 -3.98913E+02  5.38358E+02 -7.49366E+02  1.91998E+03 -1.97076E+03  9.44140E+02 -3.63305E+03 -2.22285E+01
 -1.02842E+03 -3.51273E+03  4.39542E+02 -3.79869E+03  2.19862E+03 -3.42323E+03  2.55785E+03 -6.43287E+02
  3.07861E+03  1.83122E+03  1.23684E+03  2.08420E+03 -7.59125E+02  3.28871E+03 -1.65203E+03  2.15576E+03
 -2.67042E+03  7.50112E+02 -2.64606E+03 -1.92823E+03 -1.60338E+02 -2.54584E+03  7.70162E+02 -2.05697E+03
  2.13052E+03 -1.45688E+03  1.32836E+03  6.99982E+01  3.29345E+02  1.36469E+03  8.14158E+02  4.58466E+02
  1.51206E+03  5.07119E+02  1.13161E+03  9.46920E+02  7.97892E+02  1.93228E+03  1.20446E+03  1.17773E+03
 -9.91141E+02  2.17651E+03 -1.63723E+03  3.43044E+03 -2.17143E+03  9.40336E+02 -3.17775E+03  1.88520E+02
 -1.35524E+03 -2.95056E+03  3.71527E+02 -3.62573E+03  1.22398E+03 -1.88890E+03  2.23470E+03 -7.18692E+02
  1.96482E+03  1.75579E+03  1.84773E+02  1.87821E+03 -4.25993E+02  9.73424E+02 -5.47488E+02  2.72022E+01
 -1.64653E+02 -1.17993E+03  1.11536E+03 -1.11381E+03  8.98737E+02 -8.01418E+02  7.70958E+02  1.88642E+02
  5.48054E+02  1.41776E+02  7.34885E+02 -4.92657E+02 -6.82786E+01  7.36060E+02  1.63865E+03 -4.38025E+02
 -8.46871E+01  1.27028E+01  1.67940E+03  3.92670E+02  2.39011E+02  1.81350E+03 -7.88611E+01  2.52077E+03
 -1.30822E+03  3.16652E+02 -1.60823E+03  2.09347E+02 -1.88003E+03 -4.26305E+02  9.71005E+00 -8.85160E+02
  4.54560E+02 -9.24776E+02  5.25652E+02 -3.35819E+02  5.71698E+02  1.14015E+03 -5.74929E+02  1.00085E+03
 -9.67453E+02  4.31069E+02 -7.43939E+02 -1.03666E+03 -3.84526E+02 -1.50102E+03  2.55354E+02 -1.20845E+03
  1.17586E+02 -3.27800E+02  3.84770E+02  6.86039E+01  1.17737E+03 -3.51382E+02  3.46344E+02  8.97994E+02
 -3.59401E+02 -9.60239E+01 -8.59051E+02  3.36701E+01  4.52755E+02 -6.67033E+02  1.53120E+03 -7.36073E+02
  5.98909E+02  2.64045E+02  2.21731E+03  2.57669E+02  1.10672E+03  9.41072E+02 -3.49774E+02  1.19218E+03
 -1.08563E+03  1.96850E+02 -1.29002E+03 -8.32289E+01 -5.48430E+02 -1.15578E+03  3.21003E+02 -2.42014E+02
  1.15775E+03 -1.85239E+02  5.08120E+02  4.66528E+02 -8.59091E+01  1.19696E+03  5.02891E+02  1.06325E+03
 -1.65162E+02  8.30259E+02 -1.09964E+02  1.07679E+02  1.57398E+02  2.35726E+02 -5.54613E+02  4.84946E+02
 -5.53726E+02  1.24291E+03 -1.32904E+03  1.83611E+02 -1.41721E+03  3.58139E+02 -1.91072E+03 -6.62866E+02
 -6.84003E+02 -1.67382E+03  1.56022E+02 -2.43245E+03  6.35191E+02 -1.93343E+03  2.02731E+03 -9.20699E+02
  1.92025E+03 -3.09849E+02  8.49193E+02  1.00899E+03 -7.52287E+02  1.00163E+03 -7.06757E+02  1.00247E+03
 -8.44852E+02  6.47780E+02 -4.85294E+02 -1.07101E+02 -6.21509E+02  5.65865E+02 -4.95033E+02  7.96815E+01
 -1.19494E+03  6.02286E+01 -7.47235E+02 -1.50151E+02  4.00459E+02 -5.85556E+02 -4.20548E+02 -6.07342E+02
  1.05623E+03 -4.82057E+02  5.89935E+01  1.07831E+02  8.10662E+02  6.16551E+02 -4.20717E+02  7.28698E+02
 -7.47594E+02  1.69974E+03 -1.18817E+03  1.11948E+03 -1.08658E+03 -1.65983E+01 -9.60011E+02 -9.62169E+02
 -6.80760E+02 -1.14922E+03  9.92421E+01 -9.98448E+02  2.99275E+02 -2.42038E+02  2.79012E+02  6.68925E+01
  5.12531E+02  3.21662E+02  2.14370E+02  3.86563E+02 -2.76641E+02  1.72876E+02  5.44456E+01 -2.69006E+02
  5.94092E+02  5.13712E+01  1.55487E+02  4.08410E+02 -1.19018E+02  4.37666E+02  5.90316E+02 -4.58294E+01
 -3.04272E+02  3.90600E+02 -2.32079E+02  2.83220E+02 -6.66700E+02 -3.08475E+02  1.22866E+02 -7.50297E+02
  4.64969E+02 -4.00921E+02  2.37110E+02 -1.86872E+02  6.49699E+02 -4.58233E+02  5.48825E+02  7.26606E+02
  5.33502E+02  1.39586E+02  3.89000E+01  3.13650E+02 -2.40055E+02  6.86860E+02 -2.42584E+02  4.40002E+01
 -2.25219E+02  2.34627E+01 -5.80597E+02 -4.48140E+01 -3.99982E+02  8.09156E+00 -4.58502E+02 -3.09184E+02
 -1.00509E+03  1.85388E+02 -4.64721E+02 -5.61195E+02  6.07401E+02 -1.24856E+03  2.78887E+02 -2.78541E+02
  5.12018E+02 -6.27553E+01 -2.61538E+02  1.05755E+02 -1.57077E+02  5.71642E+02 -1.89384E+02  5.51688E+02
