 $NMID ID='MM_0lb_SNR800_10hz_g45_32.RAW', FMTDAT='(8E13.5)'
 TRAMP=1., VOLUME=1. $END
  3.09354E+05  2.88955E+02  3.38183E+05  2.51057E+05  8.46166E+04  3.38047E+05 -1.32660E+05  2.51442E+05
 -1.90283E+05  8.35503E+04 -1.12002E+05 -3.22474E+04  2.46394E+02 -5.04534E+04  5.40034E+04 -2.48260E+02
  3.55827E+04  5.31970E+04 -1.68316E+04  7.58279E+04 -6.10934E+04  6.42161E+04 -8.48045E+04  3.25567E+04
 -8.21452E+04 -1.18931E+04 -5.76572E+04 -5.19555E+04 -1.48116E+04 -7.06241E+04  2.78237E+04 -4.65199E+04
  4.06092E+04  3.65540E+03  1.66551E+04  4.84138E+04 -3.47768E+04  4.82184E+04 -6.76059E+04  2.23940E+02
 -5.42476E+04 -5.75130E+04 -6.91542E+03 -7.83848E+04  3.43195E+04 -5.61274E+04  4.89156E+04 -1.78401E+04
  4.46741E+04  1.15151E+04  3.28072E+04  2.60033E+04  1.58941E+04  3.04738E+04 -5.61102E+03  2.73899E+04
 -2.23311E+04  1.20319E+04 -1.82647E+04 -5.72023E+03  6.48243E+03 -7.53605E+03  2.31444E+04  1.33508E+04
  7.18702E+03  3.72919E+04 -3.30961E+04  3.64893E+04 -6.50170E+04  2.15844E+03 -5.79563E+04 -4.39014E+04
 -1.26742E+04 -6.50084E+04  4.12189E+04 -4.65942E+04  6.01405E+04 -2.18886E+03  3.57605E+04  3.36449E+04
 -5.51038E+03  3.82347E+04 -3.15478E+04  1.78258E+04 -3.24492E+04 -4.46832E+03 -1.84789E+04 -1.18476E+04
 -9.23735E+03 -1.45484E+04 -8.22725E+02 -1.92150E+04  8.20956E+03 -2.33221E+04  1.56293E+04 -1.31109E+04
  1.03728E+04  6.23444E+03 -9.66568E+03  1.27603E+04 -2.27868E+04 -5.44663E+03 -8.56900E+03 -3.65419E+04
  2.46661E+04 -4.55052E+04  5.07039E+04 -2.05368E+04  4.75899E+04  2.03134E+04  1.70367E+04  4.63089E+04
 -1.66405E+04  3.54654E+04 -2.69325E+04  2.65736E+03 -1.10913E+04 -2.84436E+04  2.14244E+04 -3.62101E+04
  4.34019E+04 -1.00689E+04  3.87623E+04  2.47758E+04  2.03652E+04  4.94785E+04 -8.26769E+03  5.42137E+04
 -3.42671E+04  3.67281E+04 -4.59605E+04  1.04843E+04 -4.58795E+04 -1.79833E+04 -2.54492E+04 -4.08865E+04
  7.66309E+03 -4.07339E+04  3.35091E+04 -1.64191E+04  3.10525E+04  1.11973E+04  4.90612E+03  2.02810E+04
 -1.38985E+04  9.45069E+03 -1.08633E+04 -7.20979E+03  5.70530E+03 -1.07478E+04  1.90897E+04  5.75753E+03
  1.49640E+04  2.24429E+04 -5.45152E+03  2.65001E+04 -2.29209E+04  1.35940E+04 -3.05771E+04 -3.59224E+03
 -2.37328E+04 -1.79681E+04 -1.04073E+04 -2.38190E+04  4.59739E+03 -2.38982E+04  1.87115E+04 -2.16815E+04
  3.02644E+04 -1.42070E+04  3.64739E+04  4.16297E+03  2.60012E+04  2.29630E+04  4.22018E+03  4.03220E+04
 -1.91645E+04  3.28026E+04 -2.97203E+04  1.13340E+04 -2.18944E+04 -1.03786E+04 -4.93743E+03 -1.33502E+04
  5.91395E+02 -1.52665E+03 -6.82413E+03  7.77818E+03 -1.91221E+04  5.14435E+03 -1.91337E+04 -9.14480E+03
 -1.11754E+04 -2.19682E+04  5.46534E+03 -2.65382E+04  1.77109E+04 -1.87733E+04  2.17647E+04 -1.61908E+03
  1.37232E+04  1.53887E+04 -1.31783E+03  2.22548E+04 -1.56219E+04  1.25533E+04 -2.20081E+04 -4.63149E+03
 -1.63548E+04 -1.97204E+04 -1.69902E+03 -2.63320E+04  1.18715E+04 -2.21439E+04  2.19039E+04 -1.09275E+04
  2.08986E+04  1.73848E+02  1.49613E+04  5.44250E+03  8.23767E+03  9.62518E+02  1.20807E+04 -1.82801E+03
  2.03029E+04  2.72098E+03  2.35442E+04  1.73389E+04  1.58221E+04  3.54536E+04 -2.73840E+03  4.14734E+04
 -2.37801E+04  3.42886E+04 -3.89666E+04  1.78151E+04 -4.14010E+04 -2.52993E+03 -3.35998E+04 -2.38611E+04
 -1.36055E+04 -3.41108E+04  1.18210E+04 -2.98725E+04  2.58758E+04 -1.48952E+04  2.28306E+04  7.00277E+03
  7.94844E+03  1.74427E+04 -1.05578E+04  1.47583E+04 -1.87674E+04  2.53686E+03 -1.42938E+04 -1.18467E+04
 -2.50850E+02 -1.82853E+04  1.01043E+04 -1.36045E+04  1.28953E+04 -1.22447E+03  3.10298E+03  8.09040E+03
 -8.51651E+03  3.59630E+03 -8.27691E+03 -6.69539E+03 -1.31926E+03 -1.68493E+04  1.08966E+04 -1.80630E+04
  2.13276E+04 -1.00654E+04  2.35540E+04  3.05750E+03  2.08630E+04  1.68872E+04  9.51898E+03  2.65783E+04
 -4.81592E+03  2.81292E+04 -1.81682E+04  1.72645E+04 -2.06049E+04  3.71559E+03 -1.39719E+04 -5.00221E+03
 -5.95890E+03 -6.74796E+03 -8.50104E+02  8.09117E+02 -2.44981E+03  3.57411E+03 -6.99809E+03  4.80682E+03
 -1.30441E+04 -6.34484E+02 -1.39521E+04 -1.07612E+04 -5.46468E+03 -1.76210E+04  5.84031E+03 -1.45318E+04
  1.21231E+04 -6.16029E+03  8.35974E+03  3.95925E+03  3.19125E+01  5.69017E+03 -7.19308E+03 -4.60925E+02
 -6.42266E+03 -9.04801E+03 -6.58070E+02 -1.41145E+04  8.00414E+03 -1.49097E+04  1.79634E+04 -8.31173E+03
  2.13280E+04  2.11943E+03  1.53514E+04  1.26236E+04  2.85966E+03  1.73391E+04 -9.21509E+03  1.42110E+04
 -1.18125E+04  4.33505E+03 -5.82462E+03 -2.99013E+03  1.65117E+03 -3.89813E+03  7.56293E+03 -1.18274E+03
  6.61895E+03  6.22005E+03  1.33372E+03  1.12961E+04 -8.34186E+03  1.11916E+04 -1.38500E+04  2.64745E+03
 -9.63745E+03 -7.45546E+03 -9.24467E+01 -1.20306E+04  7.66896E+03 -6.34185E+03  8.22122E+03  2.71970E+03
  2.12439E+03  8.71925E+03 -7.46553E+03  1.01476E+04 -1.21708E+04  4.65557E+03 -1.20654E+04 -4.38990E+03
 -6.71303E+03 -1.39005E+04  3.79778E+03 -1.58182E+04  1.39742E+04 -9.67220E+03  1.51145E+04  2.94365E+03
  9.25706E+03  1.18622E+04 -1.63798E+03  1.42657E+04 -1.04958E+04  8.02939E+03 -1.11833E+04 -1.15657E+03
 -1.00330E+04 -9.18432E+03 -1.67468E+03 -1.06245E+04  5.96150E+03 -8.40698E+03  6.61299E+03 -3.60034E+03
  4.63854E+03  1.70378E+03 -9.05127E+02  1.90896E+03 -5.88337E+02 -2.69176E+03  2.63132E+03 -6.39437E+03
  9.99881E+03 -4.10583E+03  1.43400E+04  1.54945E+03  1.40056E+04  9.76576E+03  9.23495E+03  1.87107E+04
 -4.50046E+03  2.10395E+04 -1.77333E+04  1.54519E+04 -2.28875E+04  3.11330E+03 -1.87071E+04 -7.78377E+03
 -9.33011E+03 -1.52393E+04 -2.73499E+02 -1.28274E+04  4.66233E+03 -6.80337E+03  4.67930E+03 -4.37471E+03
  3.22329E+03 -2.77271E+03  3.70157E+03 -3.71692E+03  5.19818E+03 -3.07313E+03  7.51766E+03 -8.31112E+02
  9.29145E+03  2.29733E+03  5.10860E+03  8.37367E+03 -1.94275E+03  9.73024E+03 -1.02873E+04  7.65301E+03
 -1.28688E+04 -1.13409E+03 -8.12968E+03 -8.85665E+03 -1.22048E+03 -1.36531E+04  7.74270E+03 -1.39777E+04
  1.44121E+04 -8.06247E+03  1.71808E+04  2.06831E+03  1.16375E+04  1.17912E+04  1.67627E+03  1.52548E+04
 -6.07079E+03  1.23420E+04 -9.07108E+03  4.12040E+03 -6.13076E+03 -2.02413E+03 -2.91357E+03 -2.11367E+03
 -9.56957E+02 -1.95177E+02 -2.18208E+03  2.70488E+03 -5.30128E+03  2.26229E+03 -8.93161E+03 -1.59832E+03
 -6.27298E+03 -8.93876E+03  9.48474E+01 -1.24911E+04  7.66346E+03 -1.18467E+04  1.25097E+04 -3.88270E+03
  1.23066E+04  5.87107E+03  5.51167E+03  1.13363E+04 -2.55995E+03  1.27944E+04 -8.79348E+03  8.15439E+03
 -1.18580E+04  4.57552E+02 -9.07907E+03 -7.65278E+03 -1.00256E+03 -1.08959E+04  5.39204E+03 -8.32902E+03
  8.17168E+03 -2.66119E+03  5.57052E+03  2.11932E+03  1.82546E+03  3.91241E+03  1.03378E+03  1.99356E+03
  2.18106E+03  1.00157E+03  3.25614E+03  1.43899E+03  3.94981E+03  4.58471E+03  3.38482E+03  6.73796E+03
 -2.93727E+03  1.03039E+04 -8.77099E+03  1.01474E+04 -1.29253E+04  2.63044E+03 -1.34768E+04 -5.46551E+03
 -6.06817E+03 -1.28142E+04  1.78668E+03 -1.41288E+04  7.71686E+03 -9.07372E+03  1.05240E+04 -2.45792E+03
  8.22157E+03  4.65996E+03  1.63494E+03  7.46418E+03 -3.73979E+03  4.86025E+03 -5.05593E+03 -6.34366E+02
 -2.32184E+03 -5.56113E+03  3.15719E+03 -5.82652E+03  5.34804E+03 -2.50165E+03  5.33859E+03  7.47470E+02
  3.26942E+03  2.25332E+03  1.25390E+03  2.15202E+03 -5.55306E+02  1.94819E+03  1.51694E+03 -7.43783E+02
  1.80607E+03 -1.05781E+03  5.23256E+03  2.29979E+03  2.86588E+03  6.79149E+03 -1.03578E+03  9.09910E+03
 -6.14731E+03  5.94584E+03 -8.23681E+03  1.68632E+03 -7.02676E+03 -3.03184E+03 -2.80179E+03 -4.79343E+03
  8.57797E+02 -5.08120E+03  3.39715E+03 -2.45813E+03  2.86998E+03  2.64103E+03 -1.19764E+03  3.93824E+03
 -5.20010E+03  2.35409E+03 -6.05958E+03 -3.32807E+03 -3.28608E+03 -6.95439E+03  9.08715E+02 -7.30669E+03
  4.25186E+03 -4.04399E+03  4.81803E+03 -6.58393E+02  4.19169E+03  1.95988E+03  5.62559E+02  3.89037E+03
 -2.61503E+03  1.30253E+03 -3.24368E+03 -2.85138E+03  8.90786E+02 -5.56820E+03  6.27014E+03 -4.55616E+03
  7.71836E+03  7.53905E+02  8.19159E+03  5.44914E+03  2.62963E+03  8.82343E+03 -2.64614E+03  7.94668E+03
 -6.44728E+03  2.72190E+03 -6.69884E+03 -1.32224E+03 -3.69990E+03 -5.48045E+03  1.11727E+03 -4.99247E+03
  5.39830E+03 -2.84391E+03  4.48841E+03  2.31643E+03  1.43054E+03  4.66114E+03 -6.57323E+02  4.09350E+03
 -2.20351E+03  2.80076E+03 -1.72915E+03  6.27677E+02 -7.88698E+02  6.95805E+02 -1.58575E+03  1.84048E+03
 -2.08963E+03  3.03414E+03 -5.38829E+03  2.80503E+03 -8.43896E+03  4.36124E+02 -9.24841E+03 -5.38592E+03
 -4.66817E+03 -1.14731E+04  2.19592E+03 -1.22797E+04  7.50357E+03 -9.51131E+03  1.20871E+04 -3.85700E+03
  1.11835E+04  2.28589E+03  6.84905E+03  7.61919E+03  3.58652E+02  8.83295E+03 -3.39295E+03  6.36728E+03
 -5.07899E+03  2.53038E+03 -3.60257E+03 -7.06756E+02 -8.63330E+02 -9.68844E+02 -4.84551E+02 -2.00041E+01
 -1.62118E+03  3.16703E+02 -2.21170E+03 -1.68261E+02 -2.11625E+02 -2.28570E+03  2.78347E+02 -3.57372E+03
  3.54596E+03 -2.74679E+03  4.90485E+03 -3.78998E+01  6.13264E+03  4.38884E+03  1.71073E+03  8.28710E+03
 -4.00650E+03  9.97656E+03 -9.20384E+03  5.60892E+03 -1.04868E+04 -7.87036E+02 -7.94818E+03 -6.44674E+03
 -3.03905E+03 -8.89874E+03  2.55850E+03 -7.88597E+03  5.24725E+03 -4.23001E+03  5.75566E+03  3.91325E+02
  3.32377E+03  2.79916E+03 -4.82983E+02  2.51976E+03 -1.73752E+03  2.01302E+02 -1.66892E+02 -1.75092E+03
  2.68198E+03 -1.34733E+03  2.99940E+03  1.23889E+03  2.13344E+03  3.16178E+03  2.90279E+02  4.16539E+03
 -3.99327E+03  3.84681E+03 -5.23331E+03  1.26635E+02 -5.30809E+03 -4.20253E+03 -7.08799E+02 -6.98083E+03
  4.28132E+03 -5.90551E+03  6.23009E+03 -2.07522E+03  6.36700E+03  1.28895E+03  3.61772E+03  5.07322E+03
  3.82711E+02  5.31264E+03 -1.99453E+03  4.65199E+03 -3.73311E+03  2.44996E+03 -2.84514E+03  7.97258E+01
 -1.71791E+03 -5.93331E+02 -1.72480E+03  8.16731E+02 -2.82473E+03  8.78107E+02 -4.23667E+03 -1.07628E+03
 -4.16292E+03 -2.70481E+03 -1.36996E+03 -5.97532E+03  2.79950E+03 -6.11872E+03  4.79760E+03 -2.69311E+03
  5.46079E+03  7.20053E+02  2.53043E+03  3.85475E+03 -5.08965E+02  5.76514E+03 -4.07192E+03  3.66868E+03
