 $NMID ID='MM_0lb_SNR800_16hz_g50_70.RAW', FMTDAT='(8E13.5)'
 TRAMP=1., VOLUME=1. $END
  3.09919E+05  4.14635E+02  3.37653E+05  2.50683E+05  8.44946E+04  3.37832E+05 -1.32630E+05  2.50647E+05
 -1.90024E+05  8.26856E+04 -1.11137E+05 -3.27381E+04  7.74778E+02 -5.06191E+04  5.38003E+04  1.72293E+01
  3.52772E+04  5.28637E+04 -1.67335E+04  7.51360E+04 -6.06052E+04  6.32667E+04 -8.36176E+04  3.20806E+04
 -8.03818E+04 -1.13717E+04 -5.66087E+04 -5.06380E+04 -1.51163E+04 -6.88621E+04  2.70922E+04 -4.54528E+04
  3.97118E+04  3.80218E+03  1.61279E+04  4.74084E+04 -3.42279E+04  4.68187E+04 -6.63203E+04 -7.30085E+01
 -5.31029E+04 -5.65151E+04 -6.69563E+03 -7.62987E+04  3.36961E+04 -5.41767E+04  4.76155E+04 -1.68778E+04
  4.25583E+04  1.13962E+04  3.13204E+04  2.51659E+04  1.60713E+04  2.91391E+04 -4.90432E+03  2.72787E+04
 -2.19894E+04  1.25091E+04 -1.86533E+04 -4.51741E+03  5.05890E+03 -7.66597E+03  2.18597E+04  1.19593E+04
  7.46690E+03  3.47404E+04 -3.16376E+04  3.50650E+04 -6.25122E+04  2.07603E+03 -5.63955E+04 -4.20288E+04
 -1.23398E+04 -6.23220E+04  3.91836E+04 -4.46008E+04  5.71106E+04 -2.29966E+03  3.33874E+04  3.18384E+04
 -6.32968E+03  3.49626E+04 -2.93596E+04  1.52107E+04 -2.91514E+04 -4.74789E+03 -1.58866E+04 -1.08693E+04
 -8.06443E+03 -1.23738E+04 -9.74369E+02 -1.76528E+04  7.34684E+03 -2.30221E+04  1.52918E+04 -1.33350E+04
  1.17299E+04  4.99684E+03 -7.60118E+03  1.27976E+04 -2.02876E+04 -4.12456E+03 -8.57578E+03 -3.21619E+04
  2.19049E+04 -4.23993E+04  4.67871E+04 -1.90764E+04  4.41436E+04  1.88212E+04  1.49942E+04  4.34256E+04
 -1.57602E+04  3.24243E+04 -2.45283E+04  1.47145E+03 -9.17206E+03 -2.70772E+04  2.07211E+04 -3.24877E+04
  3.96666E+04 -8.29862E+03  3.40396E+04  2.35465E+04  1.70787E+04  4.50075E+04 -8.14372E+03  4.83348E+04
 -3.05453E+04  3.23288E+04 -4.02811E+04  8.93135E+03 -4.08534E+04 -1.61732E+04 -2.22558E+04 -3.67381E+04
  7.20569E+03 -3.61296E+04  3.03944E+04 -1.43697E+04  2.86071E+04  1.11236E+04  3.62170E+03  1.87623E+04
 -1.35301E+04  8.00221E+03 -9.93141E+03 -7.68572E+03  5.70334E+03 -1.10412E+04  1.76136E+04  6.17355E+03
  1.32169E+04  2.19631E+04 -6.32311E+03  2.43437E+04 -2.17490E+04  1.03970E+04 -2.69549E+04 -5.32409E+03
 -1.89612E+04 -1.71699E+04 -7.41216E+03 -1.88462E+04  3.49999E+03 -1.76997E+04  1.44466E+04 -1.65985E+04
  2.40929E+04 -1.23590E+04  3.09446E+04  2.19297E+03  2.27810E+04  1.87651E+04  4.07565E+03  3.48525E+04
 -1.72861E+04  2.93663E+04 -2.72612E+04  1.02265E+04 -2.03653E+04 -1.02185E+04 -4.52241E+03 -1.37835E+04
  2.07700E+03 -3.48936E+03 -3.78704E+03  6.15725E+03 -1.48265E+04  5.06749E+03 -1.53148E+04 -5.93559E+03
 -9.44555E+03 -1.76549E+04  4.95380E+03 -2.17849E+04  1.41703E+04 -1.58333E+04  1.67553E+04 -1.45216E+03
  1.04810E+04  1.24414E+04 -8.34875E+02  1.77250E+04 -1.21328E+04  9.98284E+03 -1.73117E+04 -3.61131E+03
 -1.29942E+04 -1.60378E+04 -1.76558E+03 -2.13378E+04  9.77035E+03 -1.72619E+04  1.80846E+04 -8.40091E+03
  1.64653E+04  5.66682E+02  1.19145E+04  4.35941E+03  6.01991E+03  8.24722E+02  8.97820E+03 -1.67517E+03
  1.59433E+04  2.82880E+03  1.69834E+04  1.43565E+04  1.13150E+04  2.79568E+04 -2.76410E+03  3.06491E+04
 -1.81330E+04  2.46060E+04 -2.86160E+04  1.20564E+04 -2.98376E+04 -2.22340E+03 -2.52238E+04 -1.74145E+04
 -1.11146E+04 -2.44529E+04  8.32473E+03 -2.26337E+04  1.92049E+04 -1.19601E+04  1.80964E+04  4.79826E+03
  7.06494E+03  1.27438E+04 -8.02884E+03  1.18423E+04 -1.48489E+04  2.47917E+03 -1.13633E+04 -9.27641E+03
 -1.25147E+02 -1.40256E+04  6.71059E+03 -1.01893E+04  9.25798E+03 -1.56916E+03  1.99999E+03  5.95808E+03
 -6.14277E+03  1.89013E+03 -5.03698E+03 -5.04919E+03  1.98670E+02 -1.20999E+04  9.00180E+03 -1.23312E+04
  1.47542E+04 -6.28447E+03  1.51128E+04  3.07119E+03  1.34212E+04  1.13886E+04  6.40728E+03  1.76905E+04
 -2.46751E+03  1.95249E+04 -1.19709E+04  1.24490E+04 -1.38221E+04  3.51646E+03 -1.01361E+04 -2.81140E+03
 -4.99800E+03 -4.47689E+03 -7.08970E+02  1.21138E+03 -2.20416E+03  2.38669E+03 -4.51558E+03  4.05316E+03
 -9.28933E+03 -5.71067E+02 -1.03157E+04 -8.45709E+03 -3.89851E+03 -1.32872E+04  4.07736E+03 -1.04538E+04
  8.91192E+03 -4.49745E+03  6.13649E+03  2.83250E+03  4.97975E+02  3.86779E+03 -4.45407E+03  3.79147E+01
 -4.36921E+03 -6.22648E+03 -7.31734E+02 -9.18920E+03  5.19631E+03 -9.76606E+03  1.20859E+04 -5.15075E+03
  1.44136E+04  1.01586E+03  1.08806E+04  8.13978E+03  1.91085E+03  1.07621E+04 -6.01986E+03  9.56925E+03
 -8.07061E+03  3.25165E+03 -4.22536E+03 -1.76117E+03  1.30031E+03 -2.33595E+03  5.38672E+03 -1.27313E+03
  4.90169E+03  4.20691E+03  1.19064E+03  7.43307E+03 -5.70222E+03  7.62896E+03 -9.54295E+03  1.95903E+03
 -6.22093E+03 -4.58061E+03  4.60571E+02 -8.05293E+03  4.57402E+03 -3.73238E+03  4.85303E+03  1.34213E+03
  7.79156E+02  4.89968E+03 -4.65928E+03  5.97621E+03 -6.60004E+03  2.94969E+03 -6.65493E+03 -1.97792E+03
 -3.90115E+03 -8.06833E+03  2.00276E+03 -9.34288E+03  8.22486E+03 -5.69395E+03  8.75926E+03  1.59059E+03
  5.69254E+03  6.90353E+03 -3.89847E+02  9.04404E+03 -6.39932E+03  4.84810E+03 -6.69711E+03 -5.30810E+02
 -6.42295E+03 -5.85917E+03 -1.67160E+03 -6.58404E+03  3.07664E+03 -5.79048E+03  3.76700E+03 -2.88606E+03
  3.16292E+03  7.33045E+02 -1.40397E+02  1.46892E+03  1.03788E+02 -7.07209E+02  5.21222E+02 -3.29771E+03
  5.36381E+03 -1.93368E+03  7.52767E+03  7.62326E+02  7.66415E+03  4.51942E+03  6.26925E+03  9.91211E+03
 -1.76229E+03  1.16718E+04 -9.96664E+03  8.96687E+03 -1.29362E+04  1.74095E+03 -9.95069E+03 -3.65172E+03
 -5.35980E+03 -8.62608E+03 -3.50581E+02 -6.76457E+03  2.77645E+03 -3.56650E+03  2.35030E+03 -2.13733E+03
  1.72735E+03 -1.82730E+03  2.34160E+03 -2.57829E+03  4.19954E+03 -2.25144E+03  4.28504E+03  5.02861E+01
  5.43027E+03  1.32616E+03  1.99174E+03  4.51704E+03 -1.43944E+03  4.32365E+03 -5.59592E+03  4.02715E+03
 -6.59659E+03 -1.12223E+03 -3.06413E+03 -4.73492E+03 -3.11417E+01 -6.95820E+03  3.97756E+03 -7.46116E+03
  6.82952E+03 -4.31548E+03  9.24363E+03  6.28907E+02  6.38130E+03  5.86416E+03  1.38574E+03  8.06323E+03
 -3.11634E+03  7.37851E+03 -4.56228E+03  2.59482E+03 -3.01137E+03 -1.15204E+03 -9.85281E+02 -7.12140E+02
 -6.75856E+02  3.90477E+02 -1.18958E+03  2.03894E+03 -3.22287E+03  1.47357E+03 -5.42298E+03 -7.10454E+02
 -2.52248E+03 -5.29900E+03  4.83584E+02 -6.62185E+03  3.89618E+03 -5.95042E+03  5.34843E+03 -1.49485E+03
  5.74836E+03  3.33386E+03  2.73167E+03  4.91114E+03 -1.50508E+03  6.33495E+03 -3.94891E+03  3.55682E+03
 -5.59367E+03  7.33431E+02 -4.51370E+03 -3.54428E+03 -5.42896E+02 -4.96880E+03  2.67121E+03 -3.48507E+03
  3.75754E+03 -1.68104E+03  2.37853E+03  7.73419E+02  7.59036E+02  2.11351E+03  1.32334E+03  5.27779E+02
  1.62637E+03  6.07043E+02  1.54114E+03  1.32292E+03  1.75477E+03  2.67202E+03  1.85147E+03  2.55946E+03
 -1.59979E+03  4.39451E+03 -3.95081E+03  5.29548E+03 -5.02966E+03  1.65586E+03 -5.95901E+03 -1.61482E+03
 -2.85215E+03 -5.25969E+03  9.90192E+02 -6.60036E+03  3.08854E+03 -3.60246E+03  4.30278E+03 -1.18519E+03
  3.75690E+03  2.45296E+03  3.88702E+02  3.50723E+03 -1.10263E+03  2.03305E+03 -1.83654E+03 -4.13311E+02
 -9.89077E+02 -2.54137E+03  1.46930E+03 -2.31979E+03  2.30550E+03 -1.51318E+03  2.06288E+03  3.75187E+02
  1.19232E+03  9.76644E+02  9.87241E+02  4.28891E+01 -4.70737E+02  8.12839E+02  1.42168E+03 -5.71007E+02
  4.86658E+02 -3.62992E+02  2.24412E+03  7.61399E+02  9.91617E+02  3.19220E+03 -3.16029E+02  3.87384E+03
 -2.39133E+03  1.88747E+03 -3.29717E+03  9.16755E+01 -3.20480E+03 -1.21713E+03 -9.35373E+02 -1.57023E+03
  4.06167E+02 -1.83689E+03  1.28193E+03 -1.00023E+03  9.37666E+02  1.29395E+03 -9.90178E+02  1.85176E+03
 -2.51116E+03  1.33263E+03 -1.95628E+03 -1.57712E+03 -1.18144E+03 -3.20827E+03  2.80419E+02 -2.01274E+03
  1.47878E+03 -1.17951E+03  1.53773E+03 -7.29909E+01  1.82237E+03  5.30642E+02  4.87412E+02  1.57430E+03
 -4.84508E+02  1.35997E+02 -1.33943E+03 -3.95893E+02  5.91914E+02 -1.71870E+03  2.12933E+03 -1.59912E+03
  2.38523E+03  5.36820E+01  3.48632E+03  1.44121E+03  1.50076E+03  2.87216E+03 -8.49563E+02  2.67092E+03
 -2.69223E+03  7.99912E+02 -2.43008E+03 -4.51011E+02 -1.54838E+03 -1.99491E+03  5.53680E+02 -1.40583E+03
  1.99387E+03 -9.42940E+02  1.45770E+03  9.45446E+02  6.54985E+02  2.04483E+03  3.05982E+02  1.67514E+03
 -6.78648E+02  1.40054E+03 -7.95597E+02  5.10308E+02 -1.65120E+02  2.88144E+02 -8.90644E+02  7.63246E+02
 -9.40642E+02  1.10883E+03 -2.38881E+03  7.58709E+02 -2.87754E+03  2.45613E+02 -3.52778E+03 -1.45730E+03
 -1.76595E+03 -3.72949E+03  6.76267E+02 -4.65508E+03  2.16448E+03 -3.52750E+03  4.45089E+03 -1.38236E+03
  3.67573E+03  2.16719E+02  2.34298E+03  2.38429E+03 -3.09977E+02  2.44064E+03 -9.20537E+02  2.22728E+03
 -1.43260E+03  9.75370E+02 -9.27293E+02 -1.17995E+02 -6.57573E+02  2.66699E+02 -7.53735E+02  1.69915E+02
 -1.07845E+03  4.77041E+01 -9.55396E+02  5.74579E+01  9.90160E+01 -6.11097E+02 -2.62442E+01 -1.32049E+03
  1.91630E+03 -8.66204E+02  9.09899E+02  1.52142E+02  1.62147E+03  1.33930E+03 -1.63469E+02  2.41021E+03
 -1.43001E+03  3.21157E+03 -3.06188E+03  2.18142E+03 -2.94219E+03 -3.62170E+02 -2.02299E+03 -2.02221E+03
 -1.47462E+03 -2.56612E+03  7.17145E+02 -2.10662E+03  1.33955E+03 -1.10568E+03  1.27944E+03  1.40546E+02
  8.30265E+02  7.12951E+02  7.75646E+01  8.36815E+02 -5.16390E+02 -1.51891E+02 -7.22717E+01 -5.61291E+02
  5.90293E+02 -5.45842E+01  6.63234E+02  6.27102E+02  4.95249E+02  8.32300E+02  5.23123E+02  1.05069E+03
 -1.04943E+03  1.27550E+03 -1.33302E+03  1.90135E+02 -1.61338E+03 -1.14399E+03 -2.55305E+02 -2.07930E+03
  8.80564E+02 -1.16127E+03  1.52990E+03 -3.06374E+02  1.68320E+03 -4.98813E+02  9.37248E+02  1.51678E+03
  4.00859E+02  1.40086E+03 -6.45060E+02  1.07248E+03 -9.24695E+02  1.23683E+03 -7.41193E+02 -2.08520E+01
 -2.21868E+02 -2.68695E+02 -7.09122E+02  8.61650E+01 -9.45014E+02  2.57918E+02 -1.48573E+03 -3.66798E+02
 -1.43007E+03 -1.81303E+02 -1.15949E+02 -1.79720E+03  9.17782E+02 -2.36491E+03  1.55182E+03 -7.65871E+02
  1.35304E+03  3.18297E+02  3.56223E+02  8.30053E+02 -9.27896E+01  1.47952E+03 -1.08606E+03  1.01100E+03
