 $NMID ID='MM_0lb_SNR800_12hz_g40_85.RAW', FMTDAT='(8E13.5)'
 TRAMP=1., VOLUME=1. $END
  3.09856E+05  2.40843E+02  3.37814E+05  2.50478E+05  8.47856E+04  3.38199E+05 -1.32438E+05  2.51054E+05
 -1.90405E+05  8.32551E+04 -1.11926E+05 -3.25517E+04  5.81582E+02 -5.03864E+04  5.37255E+04 -4.57641E+02
  3.53126E+04  5.27576E+04 -1.67726E+04  7.57003E+04 -6.10535E+04  6.39001E+04 -8.44712E+04  3.18896E+04
 -8.12687E+04 -1.14623E+04 -5.71088E+04 -5.16636E+04 -1.49334E+04 -7.00759E+04  2.76704E+04 -4.57725E+04
  4.00501E+04  4.02692E+03  1.66395E+04  4.76276E+04 -3.46452E+04  4.71372E+04 -6.68888E+04 -5.29563E+02
 -5.37300E+04 -5.69914E+04 -6.81019E+03 -7.74891E+04  3.39762E+04 -5.53913E+04  4.82224E+04 -1.77601E+04
  4.32901E+04  1.12104E+04  3.17743E+04  2.55153E+04  1.61199E+04  2.94670E+04 -5.55553E+03  2.71302E+04
 -2.21229E+04  1.24310E+04 -1.81459E+04 -4.93329E+03  5.78759E+03 -7.58854E+03  2.26200E+04  1.25818E+04
  7.12258E+03  3.56400E+04 -3.23801E+04  3.56564E+04 -6.38124E+04  2.34042E+03 -5.71993E+04 -4.27633E+04
 -1.28726E+04 -6.35346E+04  4.01303E+04 -4.58709E+04  5.86871E+04 -1.93020E+03  3.47371E+04  3.24234E+04
 -5.67299E+03  3.67030E+04 -3.03344E+04  1.64198E+04 -3.09976E+04 -4.63058E+03 -1.70503E+04 -1.07830E+04
 -8.46819E+03 -1.38990E+04 -5.02071E+02 -1.85041E+04  7.95177E+03 -2.31028E+04  1.54261E+04 -1.28592E+04
  1.13577E+04  5.21262E+03 -9.04059E+03  1.27099E+04 -2.15051E+04 -4.64371E+03 -8.18342E+03 -3.43040E+04
  2.33756E+04 -4.43334E+04  4.89223E+04 -1.95707E+04  4.55551E+04  1.95714E+04  1.62605E+04  4.46553E+04
 -1.61785E+04  3.42591E+04 -2.57482E+04  2.00654E+03 -9.84595E+03 -2.81231E+04  2.09170E+04 -3.43094E+04
  4.18404E+04 -9.09594E+03  3.62202E+04  2.43889E+04  1.87485E+04  4.77221E+04 -8.23250E+03  5.12593E+04
 -3.24663E+04  3.44620E+04 -4.30466E+04  9.74212E+03 -4.36205E+04 -1.70069E+04 -2.38583E+04 -3.86013E+04
  7.48438E+03 -3.85817E+04  3.21469E+04 -1.46810E+04  2.97466E+04  1.04055E+04  4.22002E+03  1.94874E+04
 -1.36300E+04  8.90825E+03 -1.04253E+04 -7.40667E+03  5.87399E+03 -1.08329E+04  1.84433E+04  5.92654E+03
  1.37598E+04  2.19956E+04 -5.84618E+03  2.53517E+04 -2.25010E+04  1.13274E+04 -2.82833E+04 -4.20085E+03
 -2.16266E+04 -1.76962E+04 -8.76701E+03 -2.11129E+04  4.50272E+03 -2.05878E+04  1.65714E+04 -1.90321E+04
  2.71706E+04 -1.31542E+04  3.37486E+04  3.41640E+03  2.44327E+04  2.10096E+04  4.57287E+03  3.75811E+04
 -1.83013E+04  3.13624E+04 -2.85642E+04  1.10809E+04 -2.09867E+04 -1.01719E+04 -4.66324E+03 -1.34168E+04
  1.75894E+03 -2.64534E+03 -5.47032E+03  7.18369E+03 -1.69866E+04  4.98617E+03 -1.71245E+04 -7.50852E+03
 -1.01459E+04 -1.95553E+04  5.37086E+03 -2.37042E+04  1.60618E+04 -1.67220E+04  1.90941E+04 -1.76526E+03
  1.20307E+04  1.36098E+04 -1.12703E+03  1.96777E+04 -1.36638E+04  1.12540E+04 -1.98121E+04 -4.09862E+03
 -1.46196E+04 -1.80538E+04 -1.78372E+03 -2.36148E+04  1.06579E+04 -1.97390E+04  1.99030E+04 -1.01902E+04
  1.87917E+04 -5.87746E+01  1.34161E+04  4.56493E+03  7.33348E+03  1.02206E+03  9.91821E+03 -1.69147E+03
  1.83885E+04  2.74470E+03  2.08817E+04  1.57784E+04  1.34987E+04  3.18491E+04 -2.95696E+03  3.67151E+04
 -2.11360E+04  2.93512E+04 -3.38865E+04  1.47820E+04 -3.58310E+04 -2.36626E+03 -2.98216E+04 -2.08797E+04
 -1.22847E+04 -2.98658E+04  1.03622E+04 -2.63267E+04  2.28597E+04 -1.33192E+04  2.05262E+04  6.13577E+03
  7.42589E+03  1.51959E+04 -9.33392E+03  1.32494E+04 -1.70467E+04  2.52015E+03 -1.30139E+04 -1.10014E+04
  5.53202E+01 -1.62460E+04  8.38499E+03 -1.20378E+04  1.09640E+04 -1.46771E+03  2.47268E+03  7.02242E+03
 -7.82989E+03  2.54086E+03 -6.60240E+03 -5.82972E+03 -8.10071E+02 -1.46755E+04  1.02589E+04 -1.51693E+04
  1.83557E+04 -8.12415E+03  1.95014E+04  2.60851E+03  1.70222E+04  1.45934E+04  8.38326E+03  2.25067E+04
 -3.43986E+03  2.41156E+04 -1.54146E+04  1.51013E+04 -1.73020E+04  3.72928E+03 -1.22720E+04 -4.12458E+03
 -5.55272E+03 -5.77511E+03 -5.80357E+02  7.27884E+02 -2.30884E+03  2.79720E+03 -5.68464E+03  4.67024E+03
 -1.10837E+04 -9.14223E+02 -1.21143E+04 -9.96811E+03 -4.76549E+03 -1.59155E+04  5.06122E+03 -1.23021E+04
  1.06892E+04 -5.43739E+03  7.37687E+03  3.29411E+03  3.74920E+02  4.45980E+03 -5.64138E+03 -1.02817E+02
 -5.51683E+03 -7.83806E+03 -1.16864E+03 -1.16019E+04  6.68736E+03 -1.24277E+04  1.54750E+04 -6.70527E+03
  1.82996E+04  1.74470E+03  1.29915E+04  1.07373E+04  2.61611E+03  1.42459E+04 -7.26786E+03  1.23109E+04
 -9.97371E+03  3.59651E+03 -5.09587E+03 -2.49573E+03  1.58128E+03 -3.01133E+03  6.82401E+03 -1.20944E+03
  5.72486E+03  4.91296E+03  9.23818E+02  9.49388E+03 -6.93689E+03  9.35933E+03 -1.19964E+04  2.35542E+03
 -8.01090E+03 -6.01545E+03  6.22419E+02 -1.03013E+04  6.37008E+03 -5.00467E+03  6.57980E+03  2.02485E+03
  1.41153E+03  6.57014E+03 -6.41837E+03  8.31107E+03 -9.95735E+03  3.62834E+03 -9.45275E+03 -3.24669E+03
 -5.71362E+03 -1.13176E+04  2.60735E+03 -1.30474E+04  1.08751E+04 -7.87715E+03  1.20735E+04  1.92798E+03
  7.16229E+03  9.33919E+03 -7.39533E+02  1.18052E+04 -8.33435E+03  6.63354E+03 -9.35741E+03 -1.47850E+03
 -8.26986E+03 -8.10902E+03 -1.45024E+03 -8.76673E+03  4.43333E+03 -7.51735E+03  5.65536E+03 -3.79942E+03
  4.01396E+03  9.91699E+02 -4.94974E+02  1.92941E+03 -5.54545E+01 -2.01474E+03  1.39596E+03 -4.61844E+03
  7.93637E+03 -2.69596E+03  1.07971E+04  1.18076E+03  1.08984E+04  7.34475E+03  8.06787E+03  1.42023E+04
 -2.99096E+03  1.66113E+04 -1.41311E+04  1.26896E+04 -1.83185E+04  2.41173E+03 -1.47038E+04 -5.81357E+03
 -7.38926E+03 -1.16610E+04 -4.02162E+02 -1.00145E+04  3.74277E+03 -5.40416E+03  3.99939E+03 -3.59843E+03
  2.68248E+03 -2.73860E+03  2.82396E+03 -3.23827E+03  4.89877E+03 -2.78443E+03  5.77301E+03 -6.19720E+02
  7.75684E+03  1.82138E+03  3.82340E+03  6.81483E+03 -1.84865E+03  7.62530E+03 -7.99156E+03  5.44231E+03
 -1.03233E+04 -1.04055E+03 -5.77227E+03 -7.15215E+03 -5.92285E+02 -1.06059E+04  6.10364E+03 -1.08399E+04
  1.08699E+04 -6.00352E+03  1.33346E+04  1.30523E+03  9.47966E+03  9.38924E+03  1.37660E+03  1.20614E+04
 -4.53824E+03  1.00636E+04 -6.90153E+03  3.32620E+03 -4.51437E+03 -1.59387E+03 -1.56735E+03 -1.37487E+03
 -9.72306E+02 -1.86015E+02 -1.45703E+03  2.34628E+03 -3.99057E+03  1.80539E+03 -7.31722E+03 -8.30932E+02
 -4.59722E+03 -7.08445E+03  9.88690E+00 -9.87820E+03  5.85819E+03 -9.07229E+03  9.36696E+03 -2.55128E+03
  9.44735E+03  4.94973E+03  4.59523E+03  8.48306E+03 -1.75598E+03  9.91418E+03 -7.01489E+03  5.84102E+03
 -8.90821E+03  5.98678E+02 -6.98063E+03 -5.72593E+03 -1.10761E+03 -7.67542E+03  4.24953E+03 -5.93984E+03
  6.21776E+03 -2.15547E+03  3.72623E+03  1.71814E+03  1.67726E+03  3.23985E+03  1.18641E+03  1.31487E+03
  2.13854E+03  1.05886E+03  2.31446E+03  1.28124E+03  2.97250E+03  3.78164E+03  2.64541E+03  4.66584E+03
 -2.06076E+03  6.74603E+03 -6.28702E+03  7.75950E+03 -9.41080E+03  2.18985E+03 -1.01920E+04 -3.57138E+03
 -4.75236E+03 -9.42245E+03  1.31328E+03 -1.07501E+04  5.57983E+03 -6.40016E+03  7.91148E+03 -1.84525E+03
  6.05440E+03  4.04678E+03  1.23107E+03  5.37132E+03 -2.31128E+03  3.60231E+03 -3.51325E+03 -2.63228E+02
 -1.58031E+03 -4.46722E+03  2.38740E+03 -4.14565E+03  3.65092E+03 -2.26738E+03  3.73246E+03  8.11544E+02
  2.30210E+03  1.81576E+03  7.84793E+02  1.17931E+03 -7.82273E+02  1.35651E+03  1.60401E+03 -5.65553E+02
  1.30994E+03 -6.44449E+02  4.21323E+03  1.52146E+03  2.17951E+03  5.11244E+03 -8.19954E+02  6.75036E+03
 -4.36879E+03  3.76185E+03 -5.85522E+03  1.22607E+03 -5.37905E+03 -2.09700E+03 -1.75484E+03 -3.48982E+03
  6.13938E+02 -3.63745E+03  2.32045E+03 -1.32079E+03  2.28637E+03  2.20314E+03 -1.15592E+03  3.00705E+03
 -3.95248E+03  1.55845E+03 -4.41747E+03 -2.64780E+03 -2.53518E+03 -5.10416E+03  7.73147E+02 -4.82035E+03
  2.55889E+03 -2.71347E+03  3.68989E+03 -8.78230E+01  3.29944E+03  1.19283E+03  4.83504E+02  2.89992E+03
 -1.82197E+03  2.24516E+02 -2.46596E+03 -1.37057E+03  1.07191E+03 -3.22543E+03  4.66844E+03 -2.99245E+03
  5.27643E+03  2.37625E+02  5.99247E+03  3.54416E+03  1.96576E+03  5.72757E+03 -1.69204E+03  5.38145E+03
 -4.65281E+03  2.11069E+03 -4.89972E+03 -9.46393E+02 -2.87378E+03 -3.99195E+03  1.24674E+03 -3.61382E+03
  3.73734E+03 -1.76562E+03  3.06192E+03  1.35176E+03  1.05816E+03  3.22240E+03 -3.32297E+02  3.00327E+03
 -1.27360E+03  2.13592E+03 -1.79775E+03  6.08487E+02 -4.66013E+02  9.36475E+02 -1.14381E+03  1.18230E+03
 -1.56913E+03  2.26597E+03 -4.47973E+03  1.97036E+03 -5.51031E+03  1.59534E+02 -6.46743E+03 -4.00640E+03
 -3.30041E+03 -7.56886E+03  1.62487E+03 -9.21996E+03  5.17248E+03 -6.89037E+03  7.99580E+03 -2.60076E+03
  7.49322E+03  1.31475E+03  4.40717E+03  5.11657E+03  1.62819E+02  5.56609E+03 -2.18889E+03  4.48469E+03
 -3.31237E+03  1.62274E+03 -2.08496E+03 -8.24460E+02 -6.37369E+02 -3.57990E+02 -5.58328E+02 -3.13304E+01
 -1.54629E+03 -1.73005E+02 -1.49495E+03 -1.64908E+02 -3.03328E+02 -1.52686E+03  2.63033E+02 -2.34212E+03
  2.74373E+03 -1.89527E+03  3.19822E+03 -3.27400E+01  4.12292E+03  3.24782E+03  7.69902E+02  5.65969E+03
 -2.93409E+03  6.83390E+03 -5.91565E+03  3.91294E+03 -6.83297E+03 -7.33150E+02 -5.28208E+03 -4.15079E+03
 -2.55539E+03 -5.83918E+03  1.27569E+03 -5.75103E+03  3.64321E+03 -2.74864E+03  3.69815E+03  1.68853E+02
  2.02163E+03  1.56144E+03 -2.77294E+02  1.56083E+03 -1.21130E+03 -1.45185E+02  2.58675E+02 -1.41169E+03
  1.62806E+03 -5.18371E+02  2.16545E+03  5.04752E+02  1.13370E+03  2.05533E+03  4.98186E+02  2.68184E+03
 -2.42935E+03  2.65785E+03 -3.51997E+03  2.28464E+02 -3.41377E+03 -2.63011E+03 -7.79322E+02 -4.92678E+03
  2.60640E+03 -3.74752E+03  4.10777E+03 -8.26979E+02  4.13041E+03  5.20800E+02  2.36456E+03  3.43351E+03
  3.71744E+02  3.40618E+03 -1.48838E+03  2.51481E+03 -2.42324E+03  1.77508E+03 -1.47991E+03  2.22711E+02
 -6.98151E+02  1.49171E+02 -1.23363E+03  4.66735E+02 -1.60352E+03  2.75667E+02 -2.74679E+03 -7.88944E+02
 -3.13673E+03 -1.68254E+03 -1.07147E+03 -3.73699E+03  1.84881E+03 -3.97027E+03  3.44225E+03 -1.71010E+03
  3.63286E+03  7.00114E+02  1.61824E+03  2.48643E+03 -4.26212E+02  3.62705E+03 -2.99160E+03  2.26160E+03
