 $NMID ID='MM_0lb_SNR800_20hz_g40_88.RAW', FMTDAT='(8E13.5)'
 TRAMP=1., VOLUME=1. $END
  3.09880E+05  4.47942E+02  3.37230E+05  2.50212E+05  8.42377E+04  3.36982E+05 -1.32591E+05  2.49938E+05
 -1.89238E+05  8.19942E+04 -1.10437E+05 -3.28374E+04  2.00572E+03 -5.02097E+04  5.42614E+04  5.75955E+02
  3.45664E+04  5.29656E+04 -1.70330E+04  7.45021E+04 -6.01519E+04  6.23449E+04 -8.24795E+04  3.12669E+04
 -7.85888E+04 -1.07299E+04 -5.56470E+04 -4.93573E+04 -1.46448E+04 -6.73751E+04  2.63225E+04 -4.44278E+04
  3.84475E+04  3.94590E+03  1.53185E+04  4.66975E+04 -3.37898E+04  4.57805E+04 -6.45321E+04 -9.78127E+02
 -5.13801E+04 -5.55193E+04 -6.13559E+03 -7.42100E+04  3.25196E+04 -5.22334E+04  4.53049E+04 -1.56701E+04
  4.05092E+04  1.10759E+04  3.02285E+04  2.38179E+04  1.57565E+04  2.75856E+04 -4.32962E+03  2.65160E+04
 -2.14583E+04  1.31648E+04 -1.93340E+04 -3.63321E+03  3.43351E+03 -7.53577E+03  2.06542E+04  1.02235E+04
  7.65990E+03  3.19936E+04 -2.97702E+04  3.31016E+04 -5.98423E+04  2.22559E+03 -5.44650E+04 -4.03968E+04
 -1.22306E+04 -5.94835E+04  3.72910E+04 -4.25053E+04  5.40076E+04 -1.63192E+03  3.05973E+04  2.93956E+04
 -6.89460E+03  3.14826E+04 -2.75218E+04  1.18643E+04 -2.58940E+04 -5.82387E+03 -1.34289E+04 -9.73223E+03
 -6.74279E+03 -1.06173E+04 -1.30882E+03 -1.56981E+04  6.20579E+03 -2.23453E+04  1.43995E+04 -1.44434E+04
  1.27777E+04  3.68652E+03 -5.08649E+03  1.31009E+04 -1.80780E+04 -1.37741E+03 -7.86968E+03 -2.87670E+04
  1.96221E+04 -3.89848E+04  4.30103E+04 -1.81537E+04  4.03907E+04  1.77409E+04  1.32409E+04  4.03050E+04
 -1.49698E+04  3.00220E+04 -2.23050E+04  5.92203E+02 -7.61397E+03 -2.54767E+04  2.04707E+04 -2.97381E+04
  3.66296E+04 -6.58132E+03  2.92166E+04  2.22239E+04  1.41574E+04  4.07852E+04 -7.57488E+03  4.28666E+04
 -2.68578E+04  2.79850E+04 -3.49063E+04  7.40631E+03 -3.62739E+04 -1.41045E+04 -2.05171E+04 -3.26771E+04
  6.57376E+03 -3.24201E+04  2.81469E+04 -1.19403E+04  2.56612E+04  1.06594E+04  2.47544E+03  1.69431E+04
 -1.29468E+04  6.85820E+03 -9.13328E+03 -7.33313E+03  5.95464E+03 -9.70395E+03  1.68907E+04  6.59298E+03
  1.20501E+04  2.09719E+04 -7.05158E+03  2.24242E+04 -2.08562E+04  8.14416E+03 -2.36753E+04 -6.95883E+03
 -1.49857E+04 -1.58314E+04 -4.62096E+03 -1.51039E+04  3.60608E+03 -1.23628E+04  1.11204E+04 -1.25502E+04
  1.90102E+04 -1.12016E+04  2.60515E+04  5.62394E+02  2.02736E+04  1.48359E+04  4.09657E+03  3.06118E+04
 -1.51330E+04  2.61982E+04 -2.51611E+04  9.00831E+03 -1.87998E+04 -1.04354E+04 -3.69346E+03 -1.41640E+04
  2.85323E+03 -4.63629E+03 -1.75668E+03  4.84601E+03 -1.15734E+04  5.33955E+03 -1.20534E+04 -3.92990E+03
 -7.91181E+03 -1.38528E+04  4.19262E+03 -1.80925E+04  1.15362E+04 -1.29603E+04  1.29603E+04 -1.43160E+03
  7.73563E+03  9.60274E+03 -7.38358E+02  1.42825E+04 -9.28753E+03  8.09460E+03 -1.37049E+04 -3.02734E+03
 -1.05339E+04 -1.29294E+04 -1.50163E+03 -1.74189E+04  7.91709E+03 -1.40604E+04  1.47773E+04 -6.41345E+03
  1.30901E+04  7.50109E+02  9.52380E+03  3.50853E+03  4.70276E+03  3.43824E+02  6.67898E+03 -1.53776E+03
  1.23498E+04  2.69987E+03  1.27834E+04  1.17265E+04  7.37505E+03  2.22434E+04 -3.11245E+03  2.34929E+04
 -1.39103E+04  1.75047E+04 -2.14920E+04  7.76388E+03 -2.16987E+04 -1.56207E+03 -1.86703E+04 -1.19238E+04
 -9.22565E+03 -1.75482E+04  5.56534E+03 -1.69459E+04  1.44464E+04 -1.03020E+04  1.38004E+04  3.06120E+03
  6.29731E+03  9.97100E+03 -6.39131E+03  9.61926E+03 -1.20378E+04  2.87656E+03 -9.39324E+03 -7.20220E+03
 -3.66608E+01 -1.13104E+04  5.52414E+03 -8.83668E+03  7.14046E+03 -1.44940E+03  1.10819E+03  4.53255E+03
 -4.95905E+03  7.34545E+02 -2.97299E+03 -4.05084E+03  1.16399E+03 -9.30898E+03  7.14674E+03 -8.63317E+03
  1.04993E+04 -3.70487E+03  9.79676E+03  2.75453E+03  8.44693E+03  8.17169E+03  4.33271E+03  1.18547E+04
 -9.61771E+02  1.36442E+04 -7.97518E+03  8.70374E+03 -9.54845E+03  2.81009E+03 -7.47018E+03 -1.30798E+03
 -3.97596E+03 -2.58172E+03 -7.42259E+02  1.67411E+03 -1.75981E+03  1.90286E+03 -2.97901E+03  3.38244E+03
 -7.24282E+03 -4.99237E+02 -7.81452E+03 -6.41775E+03 -3.02203E+03 -1.04074E+04  3.29106E+03 -7.25138E+03
  6.44208E+03 -3.40103E+03  4.81646E+03  1.61859E+03  7.82533E+02  2.62562E+03 -2.59649E+03  4.78295E+00
 -2.73598E+03 -4.46399E+03 -4.76700E+02 -6.10569E+03  3.10914E+03 -6.80802E+03  8.17768E+03 -3.39729E+03
  1.00909E+04  1.62918E+02  7.65672E+03  4.77712E+03  1.19088E+03  7.47300E+03 -4.69381E+03  7.29943E+03
 -6.20115E+03  2.60980E+03 -3.18565E+03 -1.11266E+03  1.24675E+03 -1.50254E+03  4.01063E+03 -9.74504E+02
  3.73493E+03  2.97736E+03  1.11126E+03  5.37481E+03 -3.86079E+03  5.55301E+03 -6.92258E+03  1.88223E+03
 -4.05276E+03 -2.91736E+03  3.58579E+02 -5.89422E+03  3.18498E+03 -2.67139E+03  2.85008E+03  7.96630E+02
  4.00829E+01  2.44997E+03 -3.56071E+03  3.80843E+03 -3.72016E+03  2.14114E+03 -3.22594E+03 -6.51279E+02
 -2.25849E+03 -4.79106E+03  7.96333E+02 -5.69309E+03  4.80941E+03 -3.82423E+03  4.98592E+03  8.94218E+02
  4.27183E+03  4.10654E+03  4.48276E+01  6.15929E+03 -4.22346E+03  3.97135E+03 -4.30941E+03 -3.31181E+02
 -5.12650E+03 -4.51292E+03 -1.41689E+03 -4.08130E+03  2.27432E+03 -4.03548E+03  2.43360E+03 -2.80936E+03
  2.27842E+03 -1.55835E+02  2.15209E+02  1.32157E+03  6.70096E+02  2.48208E+01 -8.73599E+01 -9.22713E+02
  2.84223E+03 -2.14045E+02  4.14133E+03  4.80770E+02  4.49547E+03  2.17251E+03  4.74862E+03  5.69827E+03
 -8.59491E+02  6.55590E+03 -6.13173E+03  5.29989E+03 -8.36454E+03  1.06993E+03 -6.46604E+03 -1.91015E+03
 -3.60819E+03 -5.14670E+03 -3.96273E+02 -4.27639E+03  1.88960E+03 -1.48122E+03  1.39624E+03 -1.83801E+03
  1.00074E+03 -1.42659E+03  1.95733E+03 -2.08568E+03  3.25962E+03 -8.54298E+02  3.08747E+03  7.63834E+02
  4.03783E+03  1.08235E+03  7.32389E+02  2.61629E+03 -1.58586E+03  1.80800E+03 -3.90054E+03  1.97954E+03
 -3.96455E+03 -9.77790E+02 -1.03182E+03 -2.65169E+03  5.58258E+02 -3.97675E+03  2.66198E+03 -4.30412E+03
  4.04239E+03 -2.57193E+03  5.31540E+03  2.94407E+02  3.92464E+03  3.05208E+03  8.62999E+02  4.99337E+03
 -1.55737E+03  4.98742E+03 -2.49983E+03  1.36854E+03 -1.52868E+03 -1.11435E+03 -2.00100E+02 -4.84414E+02
 -3.64117E+02  3.53950E+02 -7.66058E+02  1.94663E+03 -2.30008E+03  9.54421E+02 -3.49126E+03 -2.47299E+02
 -8.79610E+02 -3.38049E+03  9.29662E+02 -3.68769E+03  1.97462E+03 -3.84861E+03  2.44133E+03 -7.16325E+02
  3.24236E+03  1.65594E+03  1.39927E+03  2.47765E+03 -7.50164E+02  3.58173E+03 -2.02221E+03  2.09169E+03
 -2.82073E+03  4.84434E+02 -2.86737E+03 -2.05134E+03 -2.13872E+02 -2.48062E+03  1.18128E+03 -1.80938E+03
  2.15186E+03 -1.16881E+03  1.48079E+03  2.78184E+02  1.46764E+02  1.38556E+03  4.70569E+02  4.36344E+02
  1.69443E+03  2.96493E+02  9.72194E+02  8.64613E+02  8.16950E+02  1.73822E+03  1.43900E+03  1.23228E+03
 -1.00594E+03  2.25352E+03 -1.78657E+03  3.56190E+03 -2.09388E+03  8.89593E+02 -3.18099E+03  2.39369E+02
 -1.54599E+03 -2.65582E+03  4.81158E+02 -3.70880E+03  1.29298E+03 -2.06504E+03  2.25230E+03 -9.79551E+02
  2.14346E+03  1.30625E+03  8.28705E+01  1.67661E+03 -3.11931E+02  8.01603E+02 -7.82998E+02  1.66979E+02
 -4.55085E+02 -1.29968E+03  1.04560E+03 -1.12318E+03  9.76557E+02 -7.76626E+02  1.00560E+03  3.40608E+02
  6.60627E+02  1.04014E+02  7.13628E+02 -2.42342E+02 -2.93450E+02  5.38968E+02  1.79826E+03 -2.64304E+02
 -2.83258E+02 -1.01301E+02  1.60442E+03  4.39041E+02 -1.15779E+01  1.86100E+03 -1.94575E+02  2.35180E+03
 -1.39262E+03  6.32071E+02 -1.65495E+03  7.47278E+01 -1.61892E+03 -3.68432E+02 -5.94232E+01 -5.94415E+02
  4.96537E+02 -1.08813E+03  9.19782E+02 -6.82394E+02  4.55468E+02  1.02290E+03 -7.69832E+02  9.63501E+02
 -1.11704E+03  5.75199E+02 -8.68548E+02 -1.10310E+03 -5.12430E+02 -1.61072E+03  7.83724E+01 -1.05201E+03
  3.92663E+02 -5.10582E+02  4.54081E+02  3.52866E+02  1.15865E+03 -3.47437E+02  4.81955E+02  1.03350E+03
 -8.88384E+01  4.72089E-01 -7.18641E+02 -1.54401E+02  5.60501E+02 -5.89977E+02  1.21194E+03 -3.95960E+02
  7.95866E+02  1.47686E+02  2.56253E+03  1.47875E+02  9.29345E+02  1.02781E+03 -1.59071E+02  1.53020E+03
 -8.67963E+02  5.18004E+01 -1.24084E+03 -6.08921E+01 -7.28192E+02 -6.92328E+02  5.68870E+02 -2.66607E+02
  1.17713E+03 -6.07928E+02  7.69136E+02  8.70763E+02 -7.65438E+01  1.48590E+03  3.80209E+02  8.92480E+02
 -2.70230E+02  9.26252E+02 -5.07169E+02  2.25602E+02  9.33521E+01  4.76376E+02 -3.84000E+02  2.20930E+02
 -2.41063E+02  8.16380E+02 -1.33522E+03  4.05368E+02 -1.19525E+03  2.52291E+02 -2.03765E+03 -6.09543E+02
 -5.78856E+02 -1.80333E+03  4.35195E+02 -1.97577E+03  3.96415E+02 -2.04137E+03  2.06019E+03 -8.51654E+02
  1.84247E+03 -3.06377E+02  8.82546E+02  1.05845E+03 -6.32808E+02  8.70170E+02 -4.25167E+02  1.14061E+03
 -6.57224E+02  7.37605E+02 -3.49465E+02 -5.74312E+01 -3.65970E+02 -9.79902E+01 -9.41838E+02 -3.75518E+00
 -1.29429E+03  5.26411E+01 -8.01407E+02  1.40933E+02  1.17824E+02 -7.52176E+02 -4.12428E+02 -5.12274E+02
  1.14781E+03 -5.67618E+02  6.78400E+01  1.17335E+02  7.23206E+02  5.20354E+02 -6.01509E+02  8.67896E+02
 -7.84972E+02  1.76900E+03 -1.26446E+03  9.56532E+02 -1.38438E+03 -6.31541E+00 -8.06925E+02 -1.16645E+03
 -7.59707E+02 -9.35830E+02  8.95912E+01 -7.09048E+02  3.91970E+02 -3.66691E+02  1.97821E+02 -1.79863E+00
  3.29348E+02  1.96117E+02  1.27809E+02  2.14257E+02 -4.28813E+02  3.72453E+01 -5.45363E+01 -1.72390E+02
  5.30226E+02  2.92485E+02  1.98401E+02  3.76028E+02  1.21249E+01  2.97885E+02  2.83304E+02  1.91082E+02
 -7.52732E+02  3.12095E+02 -4.90167E+02  4.23684E+01 -4.78274E+02 -3.70978E+02  1.69334E+02 -7.80966E+02
  4.48198E+02 -4.10501E+02  3.76690E+02  1.30079E+02  8.24230E+02 -7.41241E+02  4.71662E+02  2.58885E+02
  4.30531E+02  2.87003E+02  9.57131E+01  2.49352E+02 -2.89632E+02  3.92385E+02 -1.73195E+02  6.31423E+01
  5.59694E+01  1.59990E+02 -5.61396E+02 -1.85023E+02 -3.44577E+02  3.73683E+01 -6.79657E+02 -2.52091E+02
 -9.05786E+02  2.65058E+02 -1.59392E+02 -9.57495E+02  7.53554E+02 -1.19836E+03  7.54514E+02 -7.78676E+01
  4.16336E+02  2.65827E+01 -4.88057E+02  1.80509E+02 -1.85745E+02  6.04438E+02 -1.76706E+02  2.11485E+02
