 $NMID ID='MM_0lb_SNR800_8hz_g40_48.RAW', FMTDAT='(8E13.5)'
 TRAMP=1., VOLUME=1. $END
  3.09945E+05  7.87714E+02  3.37901E+05  2.50679E+05  8.50565E+04  3.38728E+05 -1.32659E+05  2.51429E+05
 -1.90926E+05  8.37805E+04 -1.12358E+05 -3.22867E+04  2.82390E+02 -5.06168E+04  5.34895E+04 -2.31274E+02
  3.56424E+04  5.28963E+04 -1.67018E+04  7.58562E+04 -6.11453E+04  6.44924E+04 -8.55811E+04  3.25140E+04
 -8.21740E+04 -1.22370E+04 -5.84596E+04 -5.23039E+04 -1.50769E+04 -7.09383E+04  2.84392E+04 -4.67043E+04
  4.11630E+04  3.61398E+03  1.70036E+04  4.84433E+04 -3.51177E+04  4.83918E+04 -6.83587E+04  2.91148E+02
 -5.52389E+04 -5.76396E+04 -7.35420E+03 -7.92013E+04  3.49605E+04 -5.72146E+04  4.97619E+04 -1.80261E+04
  4.55506E+04  1.15684E+04  3.29067E+04  2.66944E+04  1.49867E+04  3.05388E+04 -5.46078E+03  2.80843E+04
 -2.27477E+04  1.21773E+04 -1.82911E+04 -5.84096E+03  7.10984E+03 -7.14768E+03  2.35988E+04  1.40618E+04
  7.07523E+03  3.74926E+04 -3.43340E+04  3.66410E+04 -6.63352E+04  2.14611E+03 -5.90571E+04 -4.43928E+04
 -1.28045E+04 -6.57189E+04  4.17398E+04 -4.76589E+04  6.11693E+04 -2.37667E+03  3.65353E+04  3.40951E+04
 -5.28739E+03  3.94061E+04 -3.17179E+04  1.86732E+04 -3.32752E+04 -3.75882E+03 -1.90772E+04 -1.17258E+04
 -9.35995E+03 -1.53736E+04 -5.68163E+02 -1.98067E+04  8.39445E+03 -2.34385E+04  1.65224E+04 -1.23190E+04
  1.02397E+04  6.06931E+03 -1.05573E+04  1.28074E+04 -2.33603E+04 -6.39738E+03 -8.42987E+03 -3.71429E+04
  2.51965E+04 -4.69387E+04  5.18040E+04 -2.09185E+04  4.83897E+04  2.08697E+04  1.73886E+04  4.72155E+04
 -1.63531E+04  3.61702E+04 -2.76321E+04  2.60371E+03 -1.21196E+04 -2.95015E+04  2.15747E+04 -3.67993E+04
  4.46481E+04 -1.13499E+04  4.04419E+04  2.50216E+04  2.16767E+04  5.09515E+04 -8.43284E+03  5.63713E+04
 -3.50194E+04  3.80204E+04 -4.76747E+04  1.10357E+04 -4.74547E+04 -1.85331E+04 -2.60979E+04 -4.22424E+04
  7.62876E+03 -4.23467E+04  3.40713E+04 -1.69552E+04  3.17435E+04  1.10876E+04  5.44512E+03  2.07902E+04
 -1.41868E+04  9.52449E+03 -1.12550E+04 -7.81819E+03  5.44587E+03 -1.17121E+04  1.93617E+04  5.57271E+03
  1.50146E+04  2.27491E+04 -5.31768E+03  2.68912E+04 -2.32991E+04  1.43140E+04 -3.13341E+04 -2.98541E+03
 -2.53740E+04 -1.86775E+04 -1.17475E+04 -2.56300E+04  3.99791E+03 -2.63182E+04  1.97856E+04 -2.34462E+04
  3.24955E+04 -1.44385E+04  3.82789E+04  4.78752E+03  2.73740E+04  2.46881E+04  4.71814E+03  4.17231E+04
 -1.93424E+04  3.40191E+04 -3.04241E+04  1.18962E+04 -2.26278E+04 -1.01427E+04 -4.94338E+03 -1.29911E+04
  6.24066E+02 -7.04650E+02 -7.55725E+03  8.53154E+03 -2.03872E+04  5.23901E+03 -2.04606E+04 -9.27261E+03
 -1.22660E+04 -2.36580E+04  5.93830E+03 -2.78121E+04  1.90865E+04 -1.98362E+04  2.28587E+04 -1.92353E+03
  1.45276E+04  1.56873E+04 -1.43290E+03  2.35434E+04 -1.67454E+04  1.34694E+04 -2.38809E+04 -4.97761E+03
 -1.72878E+04 -2.13548E+04 -2.36352E+03 -2.81612E+04  1.24935E+04 -2.39670E+04  2.34603E+04 -1.21937E+04
  2.18326E+04 -4.66735E+02  1.65585E+04  5.17114E+03  8.70944E+03  1.34796E+03  1.20148E+04 -1.99364E+03
  2.24473E+04  2.38984E+03  2.58632E+04  1.83997E+04  1.78176E+04  3.79132E+04 -2.65805E+03  4.49265E+04
 -2.56202E+04  3.74319E+04 -4.22311E+04  1.95962E+04 -4.55806E+04 -3.43574E+03 -3.66640E+04 -2.62562E+04
 -1.44797E+04 -3.77128E+04  1.33732E+04 -3.34517E+04  2.87189E+04 -1.53797E+04  2.43759E+04  8.02121E+03
  8.69836E+03  1.88556E+04 -1.17345E+04  1.58085E+04 -2.08235E+04  2.39348E+03 -1.51275E+04 -1.33364E+04
 -2.61355E+02 -1.94846E+04  9.83792E+03 -1.46084E+04  1.34154E+04 -1.50286E+03  3.43878E+03  8.51193E+03
 -8.44683E+03  4.40389E+03 -9.15356E+03 -7.02146E+03 -1.85225E+03 -1.89338E+04  1.21886E+04 -1.99932E+04
  2.34189E+04 -1.14659E+04  2.71962E+04  3.31542E+03  2.34523E+04  1.90246E+04  1.09114E+04  2.97554E+04
 -5.73071E+03  3.15118E+04 -2.11364E+04  1.92945E+04 -2.31547E+04  3.89666E+03 -1.55731E+04 -5.96899E+03
 -6.55880E+03 -7.61915E+03 -4.65780E+02  8.87675E+01 -2.87421E+03  3.13609E+03 -7.36586E+03  5.51912E+03
 -1.43491E+04 -1.18664E+03 -1.47652E+04 -1.19779E+04 -6.13909E+03 -1.95731E+04  6.57619E+03 -1.62892E+04
  1.29247E+04 -6.59213E+03  9.31674E+03  4.18972E+03 -1.60996E+02  6.41691E+03 -8.10789E+03 -2.08841E+02
 -7.99407E+03 -1.04572E+04 -1.38628E+03 -1.54591E+04  9.27904E+03 -1.72516E+04  2.04811E+04 -9.04530E+03
  2.40842E+04  2.17759E+03  1.75651E+04  1.47297E+04  3.37488E+03  1.97445E+04 -1.01587E+04  1.58850E+04
 -1.31913E+04  4.80753E+03 -6.53936E+03 -3.52817E+03  2.04404E+03 -5.00333E+03  8.34964E+03 -1.20510E+03
  7.76055E+03  7.59833E+03  1.28594E+03  1.28047E+04 -9.22595E+03  1.19513E+04 -1.62694E+04  2.86191E+03
 -1.10703E+04 -8.25098E+03  9.61617E+01 -1.36165E+04  9.27071E+03 -6.72009E+03  9.07706E+03  3.49963E+03
  2.71719E+03  1.06689E+04 -8.70564E+03  1.19818E+04 -1.43190E+04  5.14427E+03 -1.42861E+04 -5.17749E+03
 -8.49159E+03 -1.63364E+04  3.83158E+03 -1.87080E+04  1.62046E+04 -1.07667E+04  1.72245E+04  2.87259E+03
  1.04913E+04  1.37793E+04 -1.57649E+03  1.61565E+04 -1.16228E+04  8.92676E+03 -1.32877E+04 -1.05273E+03
 -1.09059E+04 -1.09798E+04 -1.33736E+03 -1.24739E+04  6.56497E+03 -9.98709E+03  8.03242E+03 -3.87722E+03
  5.40102E+03  2.30935E+03 -1.22771E+03  1.97590E+03 -7.57608E+02 -3.24499E+03  2.71028E+03 -7.50599E+03
  1.20782E+04 -5.12650E+03  1.68754E+04  1.90901E+03  1.59184E+04  1.16593E+04  1.06782E+04  2.19646E+04
 -5.35561E+03  2.45964E+04 -2.04431E+04  1.89228E+04 -2.67917E+04  3.71233E+03 -2.15378E+04 -9.55139E+03
 -1.06363E+04 -1.77138E+04 -2.84706E+02 -1.50767E+04  5.25070E+03 -9.14192E+03  5.17135E+03 -5.31636E+03
  4.35659E+03 -3.11128E+03  4.10156E+03 -3.96200E+03  5.97376E+03 -3.62668E+03  8.17249E+03 -1.53830E+03
  1.10744E+04  2.44474E+03  6.60985E+03  9.91956E+03 -2.49129E+03  1.19141E+04 -1.13376E+04  8.93795E+03
 -1.54762E+04 -1.38452E+03 -1.01388E+04 -1.04610E+04 -1.72165E+03 -1.63534E+04  9.22818E+03 -1.65381E+04
  1.73380E+04 -9.35622E+03  2.02220E+04  3.36129E+03  1.43394E+04  1.46638E+04  1.97113E+03  1.88607E+04
 -7.88195E+03  1.48731E+04 -1.10021E+04  5.68358E+03 -7.83878E+03 -1.75413E+03 -3.63138E+03 -2.22123E+03
 -9.82949E+02 -1.23937E+02 -2.67439E+03  2.93269E+03 -6.48412E+03  2.59220E+03 -1.07783E+04 -1.61429E+03
 -7.63201E+03 -1.07712E+04 -1.17947E+02 -1.56761E+04  9.55563E+03 -1.42533E+04  1.53240E+04 -4.62673E+03
  1.51618E+04  7.57064E+03  7.59313E+03  1.39211E+04 -3.06553E+03  1.55707E+04 -1.15450E+04  9.86720E+03
 -1.52525E+04  5.99446E+02 -1.12820E+04 -9.46835E+03 -1.48582E+03 -1.33866E+04  6.83794E+03 -9.63384E+03
  9.87634E+03 -3.43841E+03  6.73510E+03  2.61944E+03  2.33422E+03  5.03895E+03  1.40724E+03  2.01578E+03
  3.21317E+03  1.35660E+03  3.48619E+03  2.20970E+03  4.54455E+03  5.54714E+03  3.84857E+03  8.55011E+03
 -2.95493E+03  1.27451E+04 -1.15605E+04  1.24735E+04 -1.67436E+04  3.59789E+03 -1.69255E+04 -6.61530E+03
 -7.76257E+03 -1.61650E+04  2.42638E+03 -1.75518E+04  9.99185E+03 -1.08372E+04  1.29633E+04 -3.24501E+03
  1.02546E+04  5.90384E+03  2.35421E+03  9.45673E+03 -4.56319E+03  6.00825E+03 -6.28120E+03 -1.13499E+03
 -3.28269E+03 -7.10841E+03  3.69563E+03 -7.07313E+03  6.88081E+03 -3.10662E+03  6.61573E+03  1.32877E+03
  3.93831E+03  3.26139E+03  1.63502E+03  2.71499E+03 -6.88961E+02  2.04674E+03  1.45412E+03 -7.68040E+02
  2.76942E+03 -4.63393E+02  6.30856E+03  2.65196E+03  3.91651E+03  8.62560E+03 -1.09519E+03  1.16129E+04
 -8.11747E+03  7.36850E+03 -1.07915E+04  2.05383E+03 -9.17099E+03 -4.19780E+03 -3.82973E+03 -6.74796E+03
  8.75792E+02 -6.36497E+03  4.19439E+03 -2.59245E+03  3.47869E+03  3.28541E+03 -1.49287E+03  5.49190E+03
 -6.73235E+03  3.03018E+03 -7.75824E+03 -3.77183E+03 -4.63451E+03 -9.27992E+03  1.26331E+03 -9.23572E+03
  5.29418E+03 -5.59712E+03  6.60582E+03 -8.58365E+02  5.32155E+03  3.00088E+03  8.78480E+02  5.14529E+03
 -3.35449E+03  1.36587E+03 -4.26916E+03 -3.51029E+03  1.51881E+03 -7.37467E+03  7.92884E+03 -6.14917E+03
  1.06200E+04  6.83504E+02  1.01485E+04  7.69539E+03  2.91760E+03  1.14294E+04 -3.77194E+03  1.01095E+04
 -8.90863E+03  4.32568E+03 -9.29776E+03 -1.04393E+03 -5.04389E+03 -6.98990E+03  1.55562E+03 -6.71372E+03
  6.22038E+03 -3.53501E+03  6.03112E+03  2.93877E+03  2.06753E+03  6.01452E+03 -1.23187E+03  5.26627E+03
 -2.56841E+03  3.53775E+03 -2.66685E+03  6.35915E+02 -1.28445E+03  7.77032E+02 -1.86491E+03  2.47675E+03
 -3.09010E+03  4.48655E+03 -7.81399E+03  3.62164E+03 -1.06714E+04  1.09691E+02 -1.21455E+04 -7.36624E+03
 -6.84044E+03 -1.47445E+04  2.87672E+03 -1.69927E+04  1.10497E+04 -1.34040E+04  1.59881E+04 -5.12654E+03
  1.47582E+04  3.27803E+03  9.15367E+03  1.02590E+04  1.13991E+03  1.14614E+04 -5.08793E+03  8.72606E+03
 -6.44535E+03  3.15677E+03 -4.40772E+03 -9.44365E+02 -9.57288E+02 -7.72958E+02 -8.23125E+02 -5.09796E+01
 -1.71321E+03  9.57076E+01 -2.26466E+03 -3.86455E+02 -9.40865E+02 -2.84298E+03  4.23798E+02 -4.28335E+03
  5.40690E+03 -4.25987E+03  6.96072E+03  1.45230E+02  8.31781E+03  6.18035E+03  2.42004E+03  1.14860E+04
 -5.31494E+03  1.30674E+04 -1.24541E+04  7.22599E+03 -1.47286E+04 -8.73974E+02 -1.05703E+04 -8.89915E+03
 -4.06356E+03 -1.20103E+04  3.00022E+03 -1.12209E+04  7.49244E+03 -6.44160E+03  8.07782E+03 -3.03432E+01
  4.55603E+03  3.75388E+03 -5.12422E+02  3.48080E+03 -2.29648E+03 -1.33726E+02 -1.93710E+02 -2.58385E+03
  3.82410E+03 -1.79108E+03  4.51159E+03  1.52019E+03  3.53213E+03  4.65770E+03 -2.22820E+02  6.29000E+03
 -5.48027E+03  5.35672E+03 -7.98985E+03  1.49174E+02 -7.31994E+03 -5.77670E+03 -1.15369E+03 -9.87707E+03
  5.32920E+03 -8.07133E+03  9.21666E+03 -2.74355E+03  9.21745E+03  2.36557E+03  5.69700E+03  7.67998E+03
  1.25670E+03  8.22460E+03 -3.18369E+03  6.58098E+03 -5.14727E+03  3.73126E+03 -4.04875E+03  5.52594E+02
 -2.33324E+03  1.74813E+02 -1.99394E+03  1.02181E+03 -4.64629E+03  1.46331E+03 -5.83976E+03 -9.32364E+02
 -5.95746E+03 -3.95966E+03 -1.88582E+03 -7.97264E+03  3.88621E+03 -8.67276E+03  7.55927E+03 -3.83848E+03
  8.45458E+03  4.53307E+02  4.39544E+03  5.51656E+03 -7.06366E+02  8.12893E+03 -5.94411E+03  5.26603E+03
