 $NMID ID='MM_0lb_SNR800_15hz_g45_27.RAW', FMTDAT='(8E13.5)'
 TRAMP=1., VOLUME=1. $END
  3.09912E+05  3.36924E+02  3.37297E+05  2.50683E+05  8.44852E+04  3.37820E+05 -1.32577E+05  2.50800E+05
 -1.90032E+05  8.30209E+04 -1.11541E+05 -3.26627E+04  9.68279E+02 -5.04595E+04  5.38929E+04  2.27913E+01
  3.54068E+04  5.31724E+04 -1.70801E+04  7.50180E+04 -6.06769E+04  6.32923E+04 -8.35071E+04  3.21141E+04
 -8.05544E+04 -1.13389E+04 -5.63373E+04 -5.09814E+04 -1.45196E+04 -6.89693E+04  2.73117E+04 -4.51179E+04
  3.93290E+04  3.87866E+03  1.58496E+04  4.74841E+04 -3.43450E+04  4.68205E+04 -6.62336E+04 -7.75845E+02
 -5.32926E+04 -5.66146E+04 -6.57482E+03 -7.64407E+04  3.35354E+04 -5.46247E+04  4.72064E+04 -1.67821E+04
  4.26590E+04  1.11775E+04  3.12925E+04  2.51694E+04  1.56938E+04  2.91133E+04 -5.17627E+03  2.70706E+04
 -2.19009E+04  1.25869E+04 -1.86336E+04 -4.75253E+03  5.09322E+03 -7.70193E+03  2.19221E+04  1.18482E+04
  7.35108E+03  3.50140E+04 -3.11213E+04  3.49276E+04 -6.27542E+04  2.09887E+03 -5.65104E+04 -4.21210E+04
 -1.24892E+04 -6.24335E+04  3.91786E+04 -4.46864E+04  5.71192E+04 -2.09998E+03  3.35241E+04  3.14515E+04
 -6.11772E+03  3.54645E+04 -2.94526E+04  1.49838E+04 -2.96956E+04 -4.80182E+03 -1.60467E+04 -1.08292E+04
 -8.15478E+03 -1.26226E+04 -9.96999E+02 -1.76500E+04  7.09676E+03 -2.27234E+04  1.56105E+04 -1.33779E+04
  1.17495E+04  4.81686E+03 -7.92342E+03  1.28042E+04 -2.06050E+04 -3.65965E+03 -8.20919E+03 -3.27713E+04
  2.19832E+04 -4.24007E+04  4.69279E+04 -1.91418E+04  4.41459E+04  1.90845E+04  1.48696E+04  4.34672E+04
 -1.60748E+04  3.27285E+04 -2.46668E+04  1.60457E+03 -9.04820E+03 -2.74325E+04  2.08708E+04 -3.30373E+04
  4.03225E+04 -8.39541E+03  3.42101E+04  2.34012E+04  1.71620E+04  4.51750E+04 -7.96238E+03  4.85207E+04
 -3.05786E+04  3.26981E+04 -4.05090E+04  9.23214E+03 -4.12331E+04 -1.58917E+04 -2.24968E+04 -3.67383E+04
  7.29102E+03 -3.65606E+04  3.05338E+04 -1.38942E+04  2.86294E+04  1.08484E+04  3.62742E+03  1.87731E+04
 -1.33103E+04  7.91625E+03 -9.88579E+03 -7.76428E+03  5.90824E+03 -1.05649E+04  1.76746E+04  6.13477E+03
  1.30269E+04  2.18384E+04 -6.07138E+03  2.42391E+04 -2.21586E+04  1.05192E+04 -2.69590E+04 -5.33844E+03
 -1.94685E+04 -1.70025E+04 -7.44532E+03 -1.91605E+04  3.92376E+03 -1.80614E+04  1.47271E+04 -1.69624E+04
  2.46883E+04 -1.24602E+04  3.11510E+04  2.35959E+03  2.30529E+04  1.85739E+04  3.89510E+03  3.48841E+04
 -1.72230E+04  2.97647E+04 -2.72472E+04  9.95897E+03 -2.02164E+04 -1.05081E+04 -4.05158E+03 -1.36762E+04
  2.06777E+03 -3.35471E+03 -4.33925E+03  6.42872E+03 -1.50127E+04  5.06601E+03 -1.52441E+04 -6.52033E+03
 -9.26778E+03 -1.79135E+04  4.93881E+03 -2.17836E+04  1.41758E+04 -1.57630E+04  1.68593E+04 -1.44121E+03
  1.08271E+04  1.23369E+04 -7.70205E+02  1.82191E+04 -1.24237E+04  1.00800E+04 -1.80297E+04 -3.82712E+03
 -1.34108E+04 -1.61571E+04 -1.71223E+03 -2.17110E+04  9.79667E+03 -1.76549E+04  1.81973E+04 -8.92504E+03
  1.67161E+04  6.11006E+02  1.18139E+04  4.13815E+03  6.34734E+03  1.01765E+03  9.22695E+03 -1.63137E+03
  1.66379E+04  2.69513E+03  1.77145E+04  1.43700E+04  1.16044E+04  2.85410E+04 -2.76465E+03  3.15652E+04
 -1.85234E+04  2.51058E+04 -2.97207E+04  1.24261E+04 -3.06912E+04 -2.35170E+03 -2.56160E+04 -1.75160E+04
 -1.11919E+04 -2.53922E+04  9.12438E+03 -2.26953E+04  1.96744E+04 -1.23133E+04  1.79985E+04  5.01102E+03
  6.95256E+03  1.32981E+04 -8.36967E+03  1.17754E+04 -1.51920E+04  2.30714E+03 -1.18423E+04 -9.40370E+03
  6.90747E+01 -1.44603E+04  7.52587E+03 -1.05363E+04  9.39743E+03 -1.25478E+03  1.80051E+03  5.87521E+03
 -6.48238E+03  2.01164E+03 -4.93991E+03 -5.15968E+03 -2.13949E+01 -1.24822E+04  8.94920E+03 -1.27184E+04
  1.51255E+04 -6.65983E+03  1.60668E+04  2.72491E+03  1.40611E+04  1.20153E+04  6.66729E+03  1.85597E+04
 -2.85561E+03  2.03372E+04 -1.23824E+04  1.26019E+04 -1.45173E+04  3.45488E+03 -1.03195E+04 -3.27422E+03
 -5.30754E+03 -4.48122E+03 -9.45297E+02  1.23479E+03 -2.19051E+03  2.61541E+03 -4.64581E+03  4.30357E+03
 -9.63968E+03 -4.45278E+02 -1.01091E+04 -8.49154E+03 -4.14924E+03 -1.34378E+04  4.04931E+03 -1.03382E+04
  8.69114E+03 -4.56706E+03  6.48526E+03  2.49244E+03  2.63684E+02  3.69334E+03 -4.60847E+03 -2.39690E+02
 -4.46474E+03 -6.64725E+03 -8.66321E+02 -9.31666E+03  5.18665E+03 -1.03888E+04  1.30093E+04 -5.42441E+03
  1.48009E+04  8.74867E+02  1.09454E+04  8.60415E+03  2.45333E+03  1.15062E+04 -6.53093E+03  1.06129E+04
 -8.08116E+03  3.38047E+03 -4.30585E+03 -1.65385E+03  1.63803E+03 -2.55692E+03  5.85967E+03 -1.01726E+03
  4.95711E+03  4.34597E+03  1.14703E+03  7.97577E+03 -5.62661E+03  8.03415E+03 -9.69436E+03  2.00541E+03
 -6.39122E+03 -4.92434E+03  4.50373E+02 -8.51833E+03  5.30443E+03 -4.40007E+03  5.15776E+03  1.53242E+03
  6.17407E+02  5.09952E+03 -5.17211E+03  6.53592E+03 -6.98201E+03  3.24906E+03 -6.95189E+03 -2.12157E+03
 -4.15160E+03 -8.61745E+03  2.05683E+03 -9.63342E+03  8.50965E+03 -5.94750E+03  9.02990E+03  1.50766E+03
  6.38340E+03  7.55732E+03 -3.41862E+02  9.67928E+03 -6.63747E+03  5.23607E+03 -7.52944E+03 -7.42633E+02
 -6.82574E+03 -6.57201E+03 -1.18635E+03 -6.54910E+03  3.43587E+03 -5.83595E+03  4.21770E+03 -2.98029E+03
  3.12351E+03  7.14111E+02 -4.90688E+02  1.50111E+03  4.76119E+02 -1.06995E+03  7.09892E+02 -3.09239E+03
  5.86071E+03 -1.80876E+03  8.18696E+03  8.44746E+02  8.15027E+03  5.31991E+03  6.54659E+03  1.06298E+04
 -2.34616E+03  1.24918E+04 -1.08735E+04  9.73610E+03 -1.39386E+04  1.48976E+03 -1.12493E+04 -4.27141E+03
 -6.11862E+03 -9.23029E+03 -2.37867E+02 -7.66907E+03  2.92390E+03 -3.81627E+03  2.70280E+03 -2.94461E+03
  1.93811E+03 -1.94895E+03  2.59043E+03 -2.71237E+03  3.93577E+03 -1.77711E+03  4.74274E+03 -1.63357E+02
  5.77669E+03  1.53053E+03  2.42496E+03  4.74365E+03 -1.83257E+03  4.94995E+03 -6.20133E+03  4.16381E+03
 -7.34719E+03 -1.11224E+03 -3.23481E+03 -5.18355E+03 -1.91900E+02 -7.78087E+03  4.42668E+03 -7.92716E+03
  7.73424E+03 -4.84993E+03  9.94516E+03  7.49568E+02  7.25396E+03  6.70249E+03  1.49116E+03  9.01458E+03
 -3.50649E+03  7.71818E+03 -5.34561E+03  2.75374E+03 -3.39182E+03 -9.40860E+02 -1.02512E+03 -1.04494E+03
 -8.15117E+02  1.43219E+02 -1.31554E+03  2.32101E+03 -3.44390E+03  1.42142E+03 -5.51704E+03 -9.29166E+02
 -3.05683E+03 -5.44670E+03  6.91523E+02 -7.17009E+03  4.37918E+03 -6.51207E+03  6.29756E+03 -1.87511E+03
  6.70209E+03  3.44843E+03  3.02741E+03  5.66192E+03 -1.22494E+03  7.24927E+03 -4.52932E+03  4.49787E+03
 -6.22256E+03  5.99165E+02 -5.24287E+03 -4.02594E+03 -1.47121E+02 -5.08387E+03  2.89660E+03 -4.00481E+03
  4.01951E+03 -1.67373E+03  2.76126E+03  1.05271E+03  7.73973E+02  2.24163E+03  8.54094E+02  1.06572E+03
  2.04718E+03  8.70447E+02  1.98220E+03  1.30831E+03  1.81973E+03  2.78566E+03  1.77824E+03  3.38186E+03
 -1.86809E+03  5.19704E+03 -4.42566E+03  5.82067E+03 -5.87630E+03  1.58171E+03 -7.05136E+03 -1.95794E+03
 -2.95934E+03 -6.38757E+03  1.31780E+03 -7.14614E+03  3.81527E+03 -4.32676E+03  5.19865E+03 -1.26318E+03
  4.08505E+03  2.88245E+03  9.45949E+02  3.51875E+03 -1.40088E+03  2.11873E+03 -2.01715E+03 -1.57018E+02
 -1.25850E+03 -2.57822E+03  1.93380E+03 -2.75072E+03  2.70976E+03 -1.38296E+03  2.63277E+03  3.19643E+02
  1.47767E+03  5.67983E+02  7.78660E+02  5.56333E+02 -2.41986E+02  1.09024E+03  1.60779E+03 -4.21767E+02
  6.64439E+02 -2.41423E+02  2.91977E+03  7.38268E+02  9.87866E+02  3.49696E+03 -8.45776E+02  4.57636E+03
 -2.57818E+03  2.25070E+03 -3.88602E+03  6.05286E+02 -3.48931E+03 -1.62451E+03 -8.65531E+02 -2.18634E+03
  9.47109E+02 -2.07164E+03  1.80017E+03 -1.01498E+03  1.02134E+03  1.64689E+03 -8.65639E+02  1.93723E+03
 -2.37198E+03  1.13549E+03 -2.56568E+03 -1.69705E+03 -1.28791E+03 -3.36240E+03  5.26101E+02 -2.96571E+03
  1.58097E+03 -1.38563E+03  1.84761E+03  7.17648E+00  2.16775E+03  2.67410E+02  5.85266E+02  1.75599E+03
 -9.46082E+02  1.06836E+02 -1.39809E+03 -8.34201E+02  1.25826E+03 -2.06703E+03  3.07580E+03 -2.15721E+03
  2.95071E+03  4.51478E+02  3.91756E+03  1.84434E+03  1.77296E+03  3.33993E+03 -1.01227E+03  3.19375E+03
 -2.60569E+03  8.30172E+02 -2.65010E+03 -5.06997E+02 -1.73081E+03 -2.46267E+03  6.06185E+02 -1.59401E+03
  2.73399E+03 -1.46702E+03  1.89504E+03  1.02174E+03  3.17053E+02  2.23226E+03 -3.88597E+02  2.06683E+03
 -8.52914E+02  1.71737E+03 -1.04306E+03  2.36025E+02 -2.70583E+02  7.40220E+02 -8.39461E+02  9.42596E+02
 -8.66439E+02  1.41877E+03 -3.02365E+03  7.76914E+02 -3.60383E+03  2.07641E+02 -4.31701E+03 -2.00316E+03
 -2.06863E+03 -4.37784E+03  8.71821E+02 -5.17806E+03  2.80975E+03 -4.37951E+03  5.06303E+03 -1.89450E+03
  4.41640E+03  3.35102E+02  2.46045E+03  3.01099E+03 -2.17394E+02  3.21113E+03 -1.50742E+03  2.37761E+03
 -2.01058E+03  1.19794E+03 -9.46459E+02 -4.12384E+02 -3.99571E+02  2.25454E+02 -4.83702E+02  2.70970E+02
 -1.16802E+03  2.96613E+01 -1.10556E+03  2.65564E+01  1.06355E+02 -7.52082E+02 -2.06292E+02 -1.45054E+03
  1.79397E+03 -1.51123E+03  1.36413E+03  1.15518E+02  2.47356E+03  1.90170E+03  1.30858E+02  2.97029E+03
 -1.38092E+03  4.20570E+03 -3.51972E+03  2.18487E+03 -3.76259E+03 -4.59316E+02 -2.62809E+03 -2.48287E+03
 -1.46340E+03 -2.95906E+03  7.73827E+02 -2.68935E+03  1.58003E+03 -1.19880E+03  1.72914E+03  3.45578E+02
  1.25666E+03  1.03169E+03  1.82818E+02  6.25849E+02 -6.94257E+02 -9.93452E+01  1.58548E+02 -5.54027E+02
  9.10915E+02 -2.36013E+02  8.93132E+02  7.19776E+02  6.41861E+02  9.61005E+02  6.57097E+02  1.43235E+03
 -1.49920E+03  1.39983E+03 -1.81250E+03  6.92539E+01 -1.78282E+03 -1.25647E+03 -1.18004E+02 -2.52853E+03
  1.24526E+03 -2.06595E+03  1.84770E+03 -3.00784E+02  2.41826E+03 -1.76631E+02  1.28118E+03  1.75641E+03
  6.06651E+02  1.59912E+03 -4.16676E+02  1.44714E+03 -1.33954E+03  1.39856E+03 -9.19111E+02  3.67267E+02
 -3.63707E+02 -1.45893E+02 -9.46524E+02  3.13039E+02 -1.30413E+03  2.65882E+02 -1.71855E+03 -3.97645E+02
 -1.75642E+03 -3.50193E+02 -3.27429E+02 -1.84010E+03  1.09669E+03 -2.50225E+03  1.55054E+03 -7.00313E+02
  1.78261E+03  3.62803E+02  3.09702E+02  9.39141E+02 -2.28417E+02  1.73447E+03 -1.24532E+03  1.45371E+03
