 $NMID ID='MM_0lb_SNR800_12hz_g55_35.RAW', FMTDAT='(8E13.5)'
 TRAMP=1., VOLUME=1. $END
  3.09908E+05  2.38481E+02  3.37678E+05  2.50694E+05  8.48385E+04  3.38178E+05 -1.32823E+05  2.51579E+05
 -1.90608E+05  8.39409E+04 -1.12092E+05 -3.24208E+04  3.97790E+02 -5.05545E+04  5.39828E+04  1.94459E+01
  3.55253E+04  5.27584E+04 -1.68682E+04  7.58486E+04 -6.09518E+04  6.42280E+04 -8.45380E+04  3.22852E+04
 -8.18545E+04 -1.16589E+04 -5.78710E+04 -5.18764E+04 -1.51251E+04 -6.98792E+04  2.78260E+04 -4.64777E+04
  4.08091E+04  3.50819E+03  1.66002E+04  4.82223E+04 -3.43794E+04  4.78595E+04 -6.77093E+04 -2.96441E+02
 -5.41445E+04 -5.73422E+04 -7.11405E+03 -7.82266E+04  3.42005E+04 -5.60030E+04  4.91386E+04 -1.77921E+04
  4.46275E+04  1.10770E+04  3.25580E+04  2.60844E+04  1.60281E+04  3.00235E+04 -5.55234E+03  2.77230E+04
 -2.22547E+04  1.19922E+04 -1.82791E+04 -5.43125E+03  6.54462E+03 -7.32895E+03  2.30082E+04  1.29688E+04
  7.09560E+03  3.61221E+04 -3.35790E+04  3.65643E+04 -6.48470E+04  2.40849E+03 -5.79522E+04 -4.35862E+04
 -1.25558E+04 -6.47428E+04  4.09507E+04 -4.65239E+04  6.00460E+04 -2.19310E+03  3.55941E+04  3.38485E+04
 -5.81603E+03  3.82123E+04 -3.09325E+04  1.73413E+04 -3.19505E+04 -4.12188E+03 -1.81477E+04 -1.17179E+04
 -9.03246E+03 -1.39764E+04 -7.63654E+02 -1.88110E+04  8.01919E+03 -2.32728E+04  1.57566E+04 -1.30345E+04
  1.07737E+04  5.83578E+03 -9.55303E+03  1.27263E+04 -2.23716E+04 -5.62108E+03 -8.55830E+03 -3.56214E+04
  2.43702E+04 -4.51618E+04  5.01319E+04 -2.04505E+04  4.72095E+04  2.01730E+04  1.65657E+04  4.57255E+04
 -1.64557E+04  3.50472E+04 -2.66058E+04  2.21773E+03 -1.08521E+04 -2.92527E+04  2.11721E+04 -3.54299E+04
  4.31049E+04 -1.01250E+04  3.82483E+04  2.47786E+04  2.01099E+04  4.89645E+04 -7.90239E+03  5.33598E+04
 -3.36480E+04  3.63528E+04 -4.48711E+04  1.03256E+04 -4.50687E+04 -1.76508E+04 -2.49249E+04 -4.00210E+04
  7.76226E+03 -4.02387E+04  3.33805E+04 -1.60134E+04  3.09041E+04  1.09843E+04  4.85306E+03  2.01054E+04
 -1.35611E+04  8.96786E+03 -1.09122E+04 -7.39707E+03  5.65786E+03 -1.10706E+04  1.86210E+04  5.84638E+03
  1.43639E+04  2.20203E+04 -5.49087E+03  2.63209E+04 -2.27082E+04  1.31041E+04 -2.99545E+04 -3.79394E+03
 -2.30185E+04 -1.79772E+04 -9.95968E+03 -2.29543E+04  4.14483E+03 -2.28252E+04  1.81348E+04 -2.04636E+04
  2.95279E+04 -1.36846E+04  3.53775E+04  4.11989E+03  2.52045E+04  2.23089E+04  4.63487E+03  3.90101E+04
 -1.88846E+04  3.24259E+04 -2.92422E+04  1.09981E+04 -2.17587E+04 -1.04061E+04 -4.36121E+03 -1.31297E+04
  1.15563E+03 -1.96427E+03 -6.14941E+03  7.54185E+03 -1.83918E+04  5.49922E+03 -1.82918E+04 -8.45845E+03
 -1.08430E+04 -2.14167E+04  5.72238E+03 -2.51990E+04  1.72092E+04 -1.81518E+04  2.03834E+04 -1.69065E+03
  1.27894E+04  1.44248E+04 -9.40011E+02  2.15572E+04 -1.45132E+04  1.21806E+04 -2.12647E+04 -4.66969E+03
 -1.54650E+04 -1.87279E+04 -2.07633E+03 -2.57213E+04  1.13750E+04 -2.12425E+04  2.17686E+04 -1.11022E+04
  1.99634E+04  4.15459E+02  1.45447E+04  4.99352E+03  7.63919E+03  1.19275E+03  1.08604E+04 -1.77515E+03
  1.98088E+04  2.51933E+03  2.24928E+04  1.67251E+04  1.50955E+04  3.38080E+04 -2.81158E+03  3.91286E+04
 -2.25745E+04  3.21968E+04 -3.68195E+04  1.64279E+04 -3.92230E+04 -2.82429E+03 -3.19858E+04 -2.28206E+04
 -1.31254E+04 -3.23912E+04  1.16131E+04 -2.85462E+04  2.50714E+04 -1.39206E+04  2.14831E+04  6.64576E+03
  7.56279E+03  1.66906E+04 -1.05810E+04  1.39737E+04 -1.85070E+04  2.55550E+03 -1.41821E+04 -1.16252E+04
  1.33120E+02 -1.72093E+04  9.04574E+03 -1.27866E+04  1.17514E+04 -1.67881E+03  3.14969E+03  7.57329E+03
 -8.03027E+03  3.31908E+03 -7.39132E+03 -6.29826E+03 -8.96106E+02 -1.56482E+04  1.06153E+04 -1.66094E+04
  1.95931E+04 -9.67022E+03  2.20274E+04  3.16052E+03  1.90655E+04  1.59910E+04  9.05318E+03  2.43212E+04
 -4.60546E+03  2.65666E+04 -1.71771E+04  1.64521E+04 -1.89995E+04  3.64818E+03 -1.34245E+04 -4.66633E+03
 -5.91055E+03 -6.06126E+03 -7.36853E+02  5.75196E+02 -2.44874E+03  2.65285E+03 -6.48246E+03  4.94515E+03
 -1.25193E+04 -8.94052E+02 -1.30215E+04 -1.03252E+04 -5.29268E+03 -1.66490E+04  5.44965E+03 -1.37038E+04
  1.11176E+04 -5.49064E+03  7.81720E+03  3.52508E+03  2.80534E+02  5.36167E+03 -6.42188E+03  2.07112E+02
 -6.12448E+03 -8.34345E+03 -1.02825E+03 -1.31134E+04  7.51551E+03 -1.36579E+04  1.66304E+04 -7.36221E+03
  1.99304E+04  1.67091E+03  1.45682E+04  1.18550E+04  2.80351E+03  1.55889E+04 -8.46016E+03  1.33412E+04
 -1.09824E+04  3.85702E+03 -5.41489E+03 -2.84943E+03  1.81534E+03 -3.85206E+03  7.09286E+03 -1.39840E+03
  6.30142E+03  5.76915E+03  1.27962E+03  1.09197E+04 -7.37086E+03  1.01090E+04 -1.33018E+04  2.49753E+03
 -8.99371E+03 -6.97143E+03  7.09529E-01 -1.14778E+04  7.18110E+03 -5.48344E+03  7.21261E+03  2.45061E+03
  1.75757E+03  7.70872E+03 -7.18278E+03  9.17215E+03 -1.04178E+04  4.32914E+03 -1.06116E+04 -3.47911E+03
 -6.46149E+03 -1.24589E+04  2.98195E+03 -1.44013E+04  1.24955E+04 -8.68163E+03  1.34605E+04  2.29820E+03
  8.28244E+03  1.06552E+04 -8.96180E+02  1.27792E+04 -9.37050E+03  7.49166E+03 -1.03046E+04 -9.98569E+02
 -9.06245E+03 -8.61278E+03 -1.60734E+03 -9.50095E+03  5.21613E+03 -7.91587E+03  6.00647E+03 -3.55743E+03
  4.19088E+03  1.46930E+03 -3.64932E+02  1.79837E+03 -2.57518E+02 -2.24074E+03  1.89646E+03 -6.01781E+03
  8.92805E+03 -3.38192E+03  1.21818E+04  1.61256E+03  1.21337E+04  8.53364E+03  8.28365E+03  1.60895E+04
 -3.84233E+03  1.82847E+04 -1.56152E+04  1.37141E+04 -2.04157E+04  2.43852E+03 -1.62225E+04 -6.62669E+03
 -7.94702E+03 -1.30152E+04 -6.77337E+02 -1.11010E+04  4.03228E+03 -5.95587E+03  3.94634E+03 -4.54041E+03
  2.73419E+03 -2.77829E+03  3.01175E+03 -3.22156E+03  5.29773E+03 -2.88637E+03  6.60129E+03 -6.72432E+02
  8.90902E+03  2.20485E+03  4.28999E+03  7.09686E+03 -2.01216E+03  7.91257E+03 -9.02661E+03  6.40480E+03
 -1.09283E+04 -1.38476E+03 -6.72707E+03 -7.80437E+03 -6.41625E+02 -1.14624E+04  6.97716E+03 -1.15940E+04
  1.22841E+04 -6.60233E+03  1.48295E+04  1.84008E+03  1.05472E+04  1.02816E+04  1.86156E+03  1.34250E+04
 -5.42101E+03  1.10046E+04 -7.68369E+03  3.70670E+03 -5.42504E+03 -1.70634E+03 -1.78238E+03 -1.60419E+03
 -1.04695E+03  1.86344E+02 -1.73696E+03  2.34866E+03 -4.92441E+03  1.86585E+03 -7.59772E+03 -8.70484E+02
 -5.47651E+03 -7.91168E+03 -6.95030E+01 -1.08393E+04  6.74654E+03 -9.92522E+03  1.02831E+04 -3.03803E+03
  1.06824E+04  5.28811E+03  5.42570E+03  9.44055E+03 -2.27335E+03  1.09102E+04 -7.60417E+03  6.73136E+03
 -1.00736E+04  5.37082E+02 -7.79328E+03 -6.66226E+03 -8.29084E+02 -8.53308E+03  4.31083E+03 -6.64498E+03
  6.38413E+03 -2.16039E+03  4.76377E+03  1.69581E+03  1.54946E+03  3.31720E+03  1.13140E+03  1.36811E+03
  2.48466E+03  8.31525E+02  2.82815E+03  1.82224E+03  2.78808E+03  4.01095E+03  3.21194E+03  5.57956E+03
 -2.17913E+03  7.86766E+03 -7.51540E+03  8.85093E+03 -1.03525E+04  2.45754E+03 -1.13685E+04 -3.92045E+03
 -4.99941E+03 -1.09186E+04  1.56495E+03 -1.20207E+04  5.85977E+03 -7.31344E+03  8.61183E+03 -1.96184E+03
  6.83408E+03  4.17774E+03  1.42136E+03  5.80166E+03 -2.82541E+03  3.81789E+03 -4.14003E+03 -5.60817E+02
 -1.79120E+03 -4.53865E+03  2.69892E+03 -4.28575E+03  3.88884E+03 -1.93480E+03  4.09418E+03  7.56886E+02
  2.91883E+03  2.11526E+03  1.01641E+03  1.37001E+03 -7.11716E+02  1.71044E+03  1.86113E+03 -5.45962E+02
  1.22478E+03 -6.84329E+02  4.44359E+03  1.67681E+03  2.35954E+03  5.87168E+03 -1.09881E+03  7.66879E+03
 -5.02150E+03  5.06936E+03 -6.16917E+03  1.48400E+03 -6.12947E+03 -2.13055E+03 -1.66691E+03 -3.81909E+03
  5.52173E+02 -3.81888E+03  2.64545E+03 -1.75411E+03  1.96305E+03  2.07000E+03 -1.09123E+03  3.73651E+03
 -3.97044E+03  1.75846E+03 -4.56387E+03 -2.46357E+03 -2.97064E+03 -5.88914E+03  6.91660E+02 -5.35189E+03
  3.06219E+03 -3.13945E+03  4.28470E+03 -2.87330E+02  3.27850E+03  8.48792E+02  4.06624E+02  3.05865E+03
 -1.94903E+03  9.95779E+02 -2.36745E+03 -1.86931E+03  1.03249E+03 -3.96878E+03  5.11463E+03 -3.27614E+03
  5.82806E+03  2.37850E+02  6.42545E+03  3.70937E+03  2.05510E+03  6.27710E+03 -2.26878E+03  6.01730E+03
 -5.30350E+03  2.46909E+03 -5.22781E+03 -7.99206E+02 -2.64786E+03 -4.06323E+03  8.96686E+02 -3.44866E+03
  4.08757E+03 -1.82386E+03  2.90089E+03  1.88484E+03  1.09927E+03  3.72306E+03 -2.41536E+02  2.85663E+03
 -1.36703E+03  2.17160E+03 -1.36673E+03  2.17671E+02 -4.35527E+02  8.91541E+02 -1.29914E+03  1.28892E+03
 -1.66784E+03  2.77599E+03 -4.62325E+03  1.83303E+03 -6.22834E+03  2.12324E+02 -7.14860E+03 -4.09507E+03
 -3.75134E+03 -8.36904E+03  1.58560E+03 -9.12527E+03  5.24148E+03 -7.54210E+03  8.84640E+03 -2.83367E+03
  8.30960E+03  1.52609E+03  4.90299E+03  5.53964E+03  4.49265E+02  6.52547E+03 -2.44960E+03  4.70821E+03
 -3.87100E+03  1.81523E+03 -2.19993E+03 -1.09527E+03 -8.03239E+02  7.01211E+00 -8.55132E+02 -7.33508E+00
 -1.37637E+03  3.45736E+02 -1.42718E+03 -1.67976E+02 -2.81937E+01 -1.58031E+03 -1.98928E+00 -2.60582E+03
  2.91247E+03 -2.48540E+03  2.99783E+03  2.52602E+02  4.64010E+03  3.45766E+03  6.80537E+02  6.08625E+03
 -2.55356E+03  7.40688E+03 -6.48805E+03  4.32567E+03 -7.20704E+03 -6.10985E+02 -5.51245E+03 -4.40857E+03
 -2.45418E+03 -6.16520E+03  1.66256E+03 -5.51599E+03  4.00922E+03 -3.22787E+03  4.12902E+03  1.44190E+02
  2.26199E+03  1.81287E+03 -4.49365E+01  1.84207E+03 -1.27546E+03 -2.64813E+02  1.11553E+02 -1.32439E+03
  1.80865E+03 -4.58372E+02  2.20303E+03  7.53557E+02  1.45961E+03  2.59394E+03  8.64041E+01  3.28717E+03
 -2.52807E+03  2.45491E+03 -4.03682E+03  2.58152E+02 -3.58651E+03 -2.85785E+03 -3.57085E+02 -5.26073E+03
  2.72102E+03 -4.38544E+03  4.73113E+03 -1.26408E+03  4.15067E+03  1.18434E+03  2.74557E+03  3.67349E+03
  5.62109E+02  3.77848E+03 -1.17359E+03  3.26752E+03 -2.61811E+03  1.30610E+03 -1.70093E+03  1.93328E+02
 -1.21365E+03  9.39687E+01 -8.80188E+02  5.39683E+02 -2.33412E+03  6.51372E+02 -3.18506E+03 -9.12071E+02
 -2.96079E+03 -1.42130E+03 -1.39132E+03 -3.86302E+03  1.94935E+03 -4.67484E+03  3.54161E+03 -2.23777E+03
  3.80046E+03  4.22418E+02  1.76210E+03  2.57988E+03 -3.33802E+02  3.67302E+03 -3.31287E+03  2.20336E+03
