 $NMID ID='MM_0lb_SNR800_11hz_g45_22.RAW', FMTDAT='(8E13.5)'
 TRAMP=1., VOLUME=1. $END
  3.09678E+05  4.87613E+02  3.37727E+05  2.50935E+05  8.47812E+04  3.38263E+05 -1.32758E+05  2.51848E+05
 -1.90491E+05  8.31460E+04 -1.12096E+05 -3.24041E+04  5.46793E+02 -5.08007E+04  5.36962E+04 -1.29015E+02
  3.53240E+04  5.26927E+04 -1.65720E+04  7.56430E+04 -6.10026E+04  6.38032E+04 -8.46567E+04  3.22502E+04
 -8.15265E+04 -1.16171E+04 -5.76291E+04 -5.17476E+04 -1.51333E+04 -7.01658E+04  2.80577E+04 -4.65963E+04
  4.07075E+04  3.78798E+03  1.63862E+04  4.80971E+04 -3.45682E+04  4.74025E+04 -6.73914E+04  1.76106E+02
 -5.41515E+04 -5.70688E+04 -6.96064E+03 -7.82559E+04  3.42326E+04 -5.62023E+04  4.89022E+04 -1.77407E+04
  4.40154E+04  1.10670E+04  3.22610E+04  2.60185E+04  1.59275E+04  2.98248E+04 -5.52301E+03  2.76247E+04
 -2.20374E+04  1.23461E+04 -1.83496E+04 -5.10479E+03  5.93118E+03 -7.43593E+03  2.27845E+04  1.28976E+04
  7.14680E+03  3.64762E+04 -3.30980E+04  3.60313E+04 -6.48508E+04  2.27642E+03 -5.79551E+04 -4.35470E+04
 -1.26931E+04 -6.41560E+04  4.08062E+04 -4.65581E+04  5.94540E+04 -2.69622E+03  3.55452E+04  3.32178E+04
 -6.11857E+03  3.77923E+04 -3.06842E+04  1.73666E+04 -3.15677E+04 -3.89681E+03 -1.79237E+04 -1.14146E+04
 -9.13968E+03 -1.39623E+04 -9.79118E+02 -1.87834E+04  8.45778E+03 -2.33794E+04  1.53566E+04 -1.26215E+04
  1.09277E+04  5.82330E+03 -9.14553E+03  1.27133E+04 -2.23550E+04 -5.75389E+03 -8.49560E+03 -3.57539E+04
  2.40099E+04 -4.50267E+04  5.03760E+04 -2.01942E+04  4.69216E+04  2.01024E+04  1.62913E+04  4.57638E+04
 -1.64788E+04  3.46662E+04 -2.63902E+04  2.22427E+03 -1.07058E+04 -2.86317E+04  2.20102E+04 -3.54324E+04
  4.29074E+04 -9.97856E+03  3.77308E+04  2.42775E+04  1.98941E+04  4.89222E+04 -8.00515E+03  5.30633E+04
 -3.33999E+04  3.60334E+04 -4.45996E+04  1.04711E+04 -4.51798E+04 -1.75063E+04 -2.48955E+04 -3.97133E+04
  7.62828E+03 -3.97410E+04  3.28952E+04 -1.58966E+04  3.06696E+04  1.10640E+04  4.84522E+03  2.00228E+04
 -1.35886E+04  8.81433E+03 -1.04879E+04 -7.59350E+03  5.58716E+03 -1.11902E+04  1.83195E+04  5.93496E+03
  1.42319E+04  2.21758E+04 -5.46254E+03  2.58933E+04 -2.27516E+04  1.28024E+04 -2.96846E+04 -4.13478E+03
 -2.28908E+04 -1.78428E+04 -1.00098E+04 -2.29166E+04  3.88370E+03 -2.25958E+04  1.78204E+04 -2.04303E+04
  2.88122E+04 -1.35744E+04  3.51611E+04  3.85686E+03  2.56677E+04  2.21873E+04  4.16307E+03  3.88125E+04
 -1.89645E+04  3.22008E+04 -2.92526E+04  1.12782E+04 -2.15336E+04 -1.00466E+04 -4.40335E+03 -1.31726E+04
  1.55382E+03 -1.83159E+03 -6.06399E+03  7.26191E+03 -1.81438E+04  4.93429E+03 -1.82417E+04 -8.00603E+03
 -1.09162E+04 -2.13095E+04  5.49055E+03 -2.51813E+04  1.65929E+04 -1.82397E+04  2.03992E+04 -1.83713E+03
  1.30370E+04  1.48563E+04 -1.25890E+03  2.08656E+04 -1.51759E+04  1.20438E+04 -2.12627E+04 -4.35493E+03
 -1.54810E+04 -1.90312E+04 -2.06163E+03 -2.53068E+04  1.16276E+04 -2.10897E+04  2.13065E+04 -1.03333E+04
  1.95748E+04 -1.20273E+02  1.43317E+04  4.71230E+03  7.79088E+03  1.25182E+03  1.05410E+04 -1.77415E+03
  1.97376E+04  2.90159E+03  2.19752E+04  1.66972E+04  1.47185E+04  3.37379E+04 -2.93790E+03  3.94163E+04
 -2.26417E+04  3.18947E+04 -3.67346E+04  1.66358E+04 -3.92065E+04 -3.02228E+03 -3.18409E+04 -2.29012E+04
 -1.34346E+04 -3.24313E+04  1.12618E+04 -2.82886E+04  2.47588E+04 -1.40798E+04  2.16341E+04  6.31513E+03
  7.58747E+03  1.66903E+04 -1.03488E+04  1.43248E+04 -1.81169E+04  2.25525E+03 -1.40047E+04 -1.12622E+04
 -3.89449E+02 -1.72803E+04  9.15585E+03 -1.30843E+04  1.16098E+04 -1.25381E+03  3.17120E+03  7.80510E+03
 -7.53566E+03  3.21202E+03 -7.49486E+03 -6.16166E+03 -1.11275E+03 -1.55272E+04  1.07023E+04 -1.66156E+04
  1.97445E+04 -9.51143E+03  2.20051E+04  3.01571E+03  1.92634E+04  1.57907E+04  9.09482E+03  2.43919E+04
 -4.10845E+03  2.63212E+04 -1.70882E+04  1.66133E+04 -1.90202E+04  3.78383E+03 -1.32662E+04 -4.66676E+03
 -6.01592E+03 -6.05853E+03 -6.46806E+02  8.94647E+02 -2.46706E+03  2.95913E+03 -6.48505E+03  4.82140E+03
 -1.21034E+04 -7.93943E+02 -1.30668E+04 -1.02064E+04 -5.28716E+03 -1.71994E+04  5.55424E+03 -1.36560E+04
  1.14804E+04 -5.69441E+03  8.06419E+03  3.43101E+03  2.19258E+02  5.31795E+03 -6.53748E+03  8.15119E+01
 -5.94948E+03 -8.30250E+03 -7.34870E+02 -1.26007E+04  7.33294E+03 -1.37421E+04  1.65658E+04 -7.34326E+03
  1.99378E+04  1.86694E+03  1.47687E+04  1.16942E+04  3.14963E+03  1.58254E+04 -8.42542E+03  1.29099E+04
 -1.06618E+04  3.62989E+03 -5.96561E+03 -2.93876E+03  1.71231E+03 -3.56659E+03  6.98893E+03 -1.04038E+03
  6.35397E+03  6.15777E+03  8.28845E+02  1.05886E+04 -7.71366E+03  1.08069E+04 -1.33438E+04  1.91797E+03
 -9.08655E+03 -6.93713E+03  1.63879E+02 -1.12245E+04  6.88533E+03 -5.71576E+03  7.54861E+03  2.96948E+03
  1.93611E+03  7.93602E+03 -6.97037E+03  9.33677E+03 -1.12530E+04  3.88208E+03 -1.10686E+04 -3.57419E+03
 -6.16483E+03 -1.29456E+04  2.94915E+03 -1.47793E+04  1.25381E+04 -8.92987E+03  1.35702E+04  2.63021E+03
  8.50720E+03  1.07658E+04 -1.04398E+03  1.33967E+04 -9.37067E+03  7.48716E+03 -1.04956E+04 -8.64735E+02
 -9.10998E+03 -8.67919E+03 -1.54514E+03 -9.48763E+03  4.98429E+03 -8.10504E+03  6.33742E+03 -3.50309E+03
  4.44550E+03  1.31579E+03 -6.32010E+02  1.71519E+03 -4.11476E+02 -2.04578E+03  1.68009E+03 -5.94223E+03
  8.91026E+03 -3.66181E+03  1.22839E+04  1.75392E+03  1.24760E+04  8.88793E+03  8.60138E+03  1.67124E+04
 -3.78500E+03  1.88359E+04 -1.62722E+04  1.41108E+04 -2.06153E+04  2.81345E+03 -1.63484E+04 -7.25160E+03
 -8.60865E+03 -1.37596E+04 -4.93554E+02 -1.14127E+04  4.27334E+03 -6.06803E+03  4.04032E+03 -4.15974E+03
  2.72031E+03 -2.42066E+03  3.40958E+03 -3.22956E+03  5.24815E+03 -2.73458E+03  7.03500E+03 -6.81794E+02
  8.64883E+03  2.13547E+03  4.03228E+03  7.15890E+03 -2.32111E+03  8.20335E+03 -9.06085E+03  6.74115E+03
 -1.16635E+04 -1.30602E+03 -7.21681E+03 -7.93236E+03 -1.12035E+03 -1.24736E+04  6.96321E+03 -1.21742E+04
  1.27550E+04 -6.96726E+03  1.58404E+04  1.75523E+03  1.02825E+04  1.07811E+04  1.76761E+03  1.38506E+04
 -5.89178E+03  1.14870E+04 -7.87525E+03  3.71346E+03 -5.49002E+03 -1.40375E+03 -2.26130E+03 -1.48031E+03
 -1.29686E+03 -1.96305E+02 -1.82158E+03  2.45046E+03 -5.08166E+03  1.82735E+03 -8.07849E+03 -1.10833E+03
 -5.15194E+03 -8.19577E+03  2.75505E+02 -1.09479E+04  7.15227E+03 -1.02110E+04  1.11779E+04 -3.10543E+03
  1.11752E+04  5.10743E+03  5.06838E+03  9.88360E+03 -2.44894E+03  1.14448E+04 -7.87059E+03  7.03568E+03
 -1.07482E+04  4.00788E+02 -8.00326E+03 -7.14489E+03 -1.49834E+03 -9.38042E+03  4.85891E+03 -7.04854E+03
  6.98966E+03 -2.66824E+03  5.06663E+03  2.08538E+03  1.57094E+03  3.12120E+03  1.32963E+03  1.34019E+03
  2.62171E+03  1.09694E+03  2.81678E+03  1.66653E+03  3.36433E+03  4.29123E+03  3.05454E+03  6.45833E+03
 -2.26937E+03  8.65261E+03 -7.65422E+03  9.14921E+03 -1.12640E+04  2.04650E+03 -1.20643E+04 -4.52205E+03
 -5.47237E+03 -1.10751E+04  1.62867E+03 -1.22972E+04  7.03151E+03 -7.59735E+03  9.40471E+03 -2.12306E+03
  7.01580E+03  4.63190E+03  1.04641E+03  6.53740E+03 -3.36300E+03  4.03487E+03 -4.13299E+03 -9.02172E+02
 -2.00252E+03 -4.51300E+03  2.67925E+03 -4.99083E+03  4.55344E+03 -2.46422E+03  4.19244E+03  1.23173E+03
  2.41136E+03  2.33315E+03  1.20522E+03  1.44687E+03 -8.00289E+02  1.44554E+03  1.78877E+03  3.79973E+01
  1.68063E+03 -6.32688E+02  4.47523E+03  1.93517E+03  2.24474E+03  5.83400E+03 -5.30984E+02  8.18847E+03
 -5.25010E+03  5.14935E+03 -6.87969E+03  1.15566E+03 -6.30725E+03 -2.44409E+03 -2.22809E+03 -4.10378E+03
  6.99987E+02 -4.42819E+03  2.90953E+03 -2.11092E+03  2.36949E+03  2.37134E+03 -1.01085E+03  3.77219E+03
 -4.18921E+03  2.37070E+03 -4.93070E+03 -2.56820E+03 -2.44612E+03 -6.48339E+03  1.00483E+03 -5.86000E+03
  3.45208E+03 -2.97414E+03  4.43580E+03 -4.60857E+02  3.62486E+03  1.46648E+03  2.16367E+02  3.17722E+03
 -1.79937E+03  9.00478E+02 -2.40237E+03 -1.65215E+03  8.14543E+02 -4.49954E+03  5.50924E+03 -3.47977E+03
  6.66388E+03  3.04702E+01  6.95103E+03  4.27684E+03  2.62310E+03  7.00570E+03 -2.55358E+03  6.61036E+03
 -5.77908E+03  2.72751E+03 -5.94113E+03 -9.74670E+02 -2.99485E+03 -4.69859E+03  1.02863E+03 -4.20207E+03
  4.21933E+03 -2.01429E+03  3.43248E+03  2.09958E+03  1.12520E+03  3.93759E+03 -4.46959E+02  3.66029E+03
 -1.70737E+03  2.86799E+03 -1.85699E+03  7.60985E+02 -8.75362E+02  7.50925E+02 -1.62567E+03  1.19743E+03
 -1.86113E+03  2.72813E+03 -4.54412E+03  2.68316E+03 -7.16710E+03  2.14904E+02 -7.52029E+03 -4.51058E+03
 -4.03942E+03 -9.13538E+03  1.95682E+03 -1.07034E+04  6.22861E+03 -8.49096E+03  1.01486E+04 -3.64905E+03
  9.54128E+03  1.94635E+03  5.74243E+03  6.65467E+03  4.03482E+01  6.97092E+03 -2.58639E+03  5.20432E+03
 -3.69644E+03  1.97602E+03 -2.61074E+03 -8.91652E+02 -9.76996E+02 -7.29694E+02 -6.45996E+02 -9.38092E+01
 -1.34707E+03  1.75074E+02 -1.76138E+03 -4.51903E+02 -3.34106E+02 -2.07461E+03  1.74457E+02 -2.68150E+03
  3.04294E+03 -2.13106E+03  4.18698E+03  2.22509E+02  4.91862E+03  3.56352E+03  1.12128E+03  6.97442E+03
 -3.33128E+03  8.17082E+03 -7.62699E+03  4.79987E+03 -8.48081E+03 -6.89580E+02 -6.16597E+03 -5.18164E+03
 -2.71599E+03 -7.33654E+03  1.83839E+03 -6.59122E+03  4.36937E+03 -3.90410E+03  4.63207E+03  2.79141E+02
  2.41129E+03  2.26238E+03 -5.02483E+02  2.02350E+03 -1.46247E+03 -3.87019E+02  1.05429E+02 -1.57010E+03
  2.22907E+03 -6.93557E+02  2.73154E+03  7.64668E+02  1.89008E+03  2.56595E+03  2.40491E+02  3.40532E+03
 -2.49227E+03  3.20980E+03 -4.29675E+03  7.17873E+01 -4.41315E+03 -3.42637E+03 -3.89396E+02 -5.57710E+03
  3.19236E+03 -5.14670E+03  4.94461E+03 -1.49315E+03  5.45849E+03  8.43341E+02  3.12891E+03  4.37895E+03
  7.04327E+02  4.27381E+03 -1.30581E+03  3.65294E+03 -2.91876E+03  2.11989E+03 -2.73131E+03  3.79709E+02
 -1.48032E+03 -3.12257E+01 -1.73328E+03  6.20814E+02 -2.34169E+03  6.81138E+02 -3.41561E+03 -6.52104E+02
 -3.98880E+03 -1.83549E+03 -1.15236E+03 -4.60834E+03  2.36371E+03 -5.09029E+03  3.95840E+03 -2.13681E+03
  4.32501E+03  6.85107E+02  2.36984E+03  2.93073E+03 -3.33353E+02  4.15524E+03 -3.66680E+03  2.72945E+03
