 $NMID ID='MM_0lb_SNR800_16hz_g50_36.RAW', FMTDAT='(8E13.5)'
 TRAMP=1., VOLUME=1. $END
  3.09841E+05  5.53184E+01  3.37377E+05  2.50558E+05  8.45378E+04  3.37828E+05 -1.32350E+05  2.50929E+05
 -1.89769E+05  8.28601E+04 -1.11425E+05 -3.22671E+04  8.93508E+02 -5.04147E+04  5.39977E+04 -4.35811E+01
  3.50028E+04  5.27239E+04 -1.65238E+04  7.56063E+04 -6.07631E+04  6.29323E+04 -8.38729E+04  3.18353E+04
 -8.06867E+04 -1.12464E+04 -5.69481E+04 -5.06884E+04 -1.47447E+04 -6.92454E+04  2.69720E+04 -4.55859E+04
  3.97357E+04  3.97971E+03  1.55005E+04  4.78277E+04 -3.42002E+04  4.71239E+04 -6.61989E+04 -2.06240E+02
 -5.30298E+04 -5.63272E+04 -6.80704E+03 -7.67583E+04  3.34488E+04 -5.44102E+04  4.74138E+04 -1.69946E+04
  4.24130E+04  1.10491E+04  3.13353E+04  2.50601E+04  1.59369E+04  2.89170E+04 -4.80738E+03  2.72458E+04
 -2.21677E+04  1.24754E+04 -1.86858E+04 -4.51041E+03  5.09003E+03 -7.33059E+03  2.19789E+04  1.16856E+04
  7.56417E+03  3.48129E+04 -3.17655E+04  3.52116E+04 -6.28787E+04  2.63501E+03 -5.63941E+04 -4.20031E+04
 -1.22206E+04 -6.24713E+04  3.91738E+04 -4.45735E+04  5.74213E+04 -1.87177E+03  3.33514E+04  3.19435E+04
 -6.14301E+03  3.49173E+04 -2.93965E+04  1.50312E+04 -2.95796E+04 -4.90481E+03 -1.57222E+04 -1.10577E+04
 -7.86147E+03 -1.25250E+04 -7.37985E+02 -1.75185E+04  7.21614E+03 -2.26490E+04  1.52873E+04 -1.34181E+04
  1.14282E+04  5.03331E+03 -7.75191E+03  1.29129E+04 -2.06158E+04 -3.77169E+03 -8.25966E+03 -3.29242E+04
  2.20365E+04 -4.25247E+04  4.69266E+04 -1.92750E+04  4.38854E+04  1.90595E+04  1.52340E+04  4.34683E+04
 -1.57318E+04  3.24052E+04 -2.44664E+04  1.44157E+03 -9.11884E+03 -2.70300E+04  2.06892E+04 -3.26657E+04
  3.98377E+04 -8.46844E+03  3.37521E+04  2.33435E+04  1.70392E+04  4.49777E+04 -7.81835E+03  4.80523E+04
 -3.02894E+04  3.21306E+04 -4.04141E+04  8.89193E+03 -4.10535E+04 -1.56323E+04 -2.25534E+04 -3.66255E+04
  7.13926E+03 -3.66145E+04  3.04499E+04 -1.40381E+04  2.82421E+04  1.07773E+04  3.54226E+03  1.84885E+04
 -1.32589E+04  7.70025E+03 -1.00428E+04 -7.71798E+03  5.82647E+03 -1.03897E+04  1.75364E+04  6.08192E+03
  1.29450E+04  2.17543E+04 -6.33115E+03  2.42545E+04 -2.16740E+04  1.04551E+04 -2.67734E+04 -5.19587E+03
 -1.92813E+04 -1.69087E+04 -7.29111E+03 -1.90162E+04  3.82631E+03 -1.76217E+04  1.48463E+04 -1.64730E+04
  2.44715E+04 -1.23000E+04  3.06438E+04  1.86005E+03  2.31843E+04  1.85442E+04  4.17518E+03  3.49347E+04
 -1.70675E+04  2.94581E+04 -2.70426E+04  1.00198E+04 -2.00412E+04 -1.05602E+04 -4.10910E+03 -1.36109E+04
  2.21510E+03 -3.22736E+03 -4.17060E+03  6.26079E+03 -1.48143E+04  5.53404E+03 -1.53242E+04 -6.45971E+03
 -9.59298E+03 -1.74980E+04  5.01888E+03 -2.14293E+04  1.44143E+04 -1.57344E+04  1.69357E+04 -1.78633E+03
  1.03251E+04  1.22897E+04 -9.51839E+02  1.78507E+04 -1.19630E+04  9.83805E+03 -1.76640E+04 -3.90301E+03
 -1.32671E+04 -1.61195E+04 -1.79567E+03 -2.12416E+04  9.81348E+03 -1.73372E+04  1.77492E+04 -8.68560E+03
  1.67239E+04  1.53887E+02  1.18159E+04  4.01483E+03  6.10855E+03  7.62801E+02  8.77370E+03 -1.44574E+03
  1.58551E+04  2.88431E+03  1.76468E+04  1.42747E+04  1.12298E+04  2.78083E+04 -3.13278E+03  3.09773E+04
 -1.80547E+04  2.47126E+04 -2.88213E+04  1.16423E+04 -2.99428E+04 -2.41144E+03 -2.49165E+04 -1.70019E+04
 -1.07088E+04 -2.42999E+04  8.59131E+03 -2.24468E+04  1.95412E+04 -1.17090E+04  1.75947E+04  4.71374E+03
  7.27477E+03  1.29324E+04 -8.29879E+03  1.16684E+04 -1.51371E+04  2.44362E+03 -1.15079E+04 -9.06930E+03
  2.10170E+01 -1.40439E+04  7.10230E+03 -1.07840E+04  9.00519E+03 -1.36592E+03  2.10798E+03  6.12839E+03
 -6.23495E+03  1.89128E+03 -5.15450E+03 -5.03103E+03  1.00134E+02 -1.21709E+04  8.80088E+03 -1.22264E+04
  1.48595E+04 -6.15158E+03  1.55755E+04  2.85735E+03  1.32851E+04  1.13529E+04  6.46320E+03  1.76087E+04
 -2.53666E+03  1.95514E+04 -1.20460E+04  1.21626E+04 -1.39628E+04  2.83656E+03 -1.02290E+04 -2.81989E+03
 -4.80383E+03 -4.15562E+03 -9.74040E+02  1.38948E+03 -2.14850E+03  2.53359E+03 -4.63624E+03  3.85962E+03
 -9.79289E+03 -6.77441E+02 -1.02334E+04 -8.11820E+03 -4.13362E+03 -1.33986E+04  4.27907E+03 -1.00675E+04
  8.25653E+03 -4.11587E+03  6.07353E+03  2.70086E+03  2.81791E+02  3.85946E+03 -4.43055E+03 -2.48204E+02
 -4.28456E+03 -5.99946E+03 -8.53056E+02 -9.10492E+03  5.14297E+03 -9.69461E+03  1.22346E+04 -5.25559E+03
  1.43053E+04  1.06415E+03  1.06924E+04  8.14616E+03  1.87183E+03  1.08263E+04 -6.36300E+03  1.01977E+04
 -8.28040E+03  3.33589E+03 -4.44305E+03 -1.56387E+03  1.46901E+03 -2.27534E+03  5.34966E+03 -9.96938E+02
  4.57153E+03  4.16583E+03  1.14305E+03  7.64200E+03 -5.54437E+03  7.60208E+03 -9.57862E+03  1.93152E+03
 -5.91530E+03 -4.86669E+03 -8.01772E+01 -8.08962E+03  4.38315E+03 -4.03718E+03  4.80655E+03  1.45858E+03
  8.67574E+02  4.99112E+03 -5.20952E+03  6.07139E+03 -6.95990E+03  2.68472E+03 -6.30724E+03 -2.02028E+03
 -3.86620E+03 -8.30180E+03  1.92607E+03 -9.37451E+03  7.94920E+03 -6.07070E+03  8.55894E+03  1.70126E+03
  5.82483E+03  7.07443E+03  2.23988E+02  9.09429E+03 -6.43228E+03  5.27897E+03 -6.71280E+03 -8.52388E+02
 -6.67056E+03 -6.35093E+03 -1.50104E+03 -6.34719E+03  3.31797E+03 -5.44487E+03  3.82004E+03 -3.01307E+03
  3.42438E+03  6.21261E+02 -9.16799E+01  1.40143E+03  1.96338E+02 -8.84770E+02  7.67472E+02 -3.11358E+03
  5.52590E+03 -1.56878E+03  7.25448E+03  1.06119E+03  7.41449E+03  4.69578E+03  6.10640E+03  9.90136E+03
 -2.07736E+03  1.10567E+04 -1.01729E+04  8.62644E+03 -1.27251E+04  1.82393E+03 -1.01814E+04 -3.95648E+03
 -5.46602E+03 -8.62152E+03 -7.53861E+02 -7.13410E+03  2.56988E+03 -3.41327E+03  2.51908E+03 -2.81791E+03
  1.88109E+03 -1.27755E+03  2.43334E+03 -2.74934E+03  3.78009E+03 -1.66011E+03  4.46353E+03 -7.31092E+01
  5.71126E+03  1.44347E+03  2.05876E+03  4.69872E+03 -1.57759E+03  4.47239E+03 -5.72449E+03  3.92190E+03
 -6.91862E+03 -9.61905E+02 -3.23022E+03 -4.54706E+03 -1.12388E+01 -7.06876E+03  4.22452E+03 -7.32440E+03
  7.21194E+03 -4.59401E+03  9.31152E+03  9.04975E+02  6.54212E+03  5.79789E+03  1.51586E+03  8.32722E+03
 -3.04791E+03  7.61240E+03 -4.39476E+03  2.31486E+03 -2.43881E+03 -1.28520E+03 -7.12866E+02 -1.03411E+03
 -8.81362E+02  5.14865E+02 -1.03609E+03  2.12131E+03 -3.10152E+03  1.43191E+03 -5.17588E+03 -7.33348E+02
 -2.66461E+03 -5.06855E+03  7.57073E+02 -6.46846E+03  3.97660E+03 -5.81369E+03  5.38558E+03 -1.52652E+03
  5.94902E+03  3.28257E+03  2.70275E+03  4.80500E+03 -1.25065E+03  6.56135E+03 -4.15559E+03  3.74836E+03
 -5.37181E+03  7.83770E+02 -4.82109E+03 -3.35301E+03 -4.17316E+02 -4.76384E+03  2.35366E+03 -3.61845E+03
  3.88727E+03 -1.58659E+03  2.52402E+03  9.06457E+02  9.37579E+02  2.04002E+03  9.61028E+02  6.57711E+02
  1.81890E+03  4.19310E+02  1.59896E+03  1.26859E+03  1.72265E+03  2.50587E+03  1.69806E+03  2.98709E+03
 -1.37562E+03  4.45151E+03 -3.61950E+03  5.36484E+03 -4.80295E+03  1.41504E+03 -6.29642E+03 -1.25582E+03
 -2.59829E+03 -5.50076E+03  8.22236E+02 -6.67377E+03  3.01455E+03 -3.90779E+03  4.93344E+03 -1.37372E+03
  3.59336E+03  2.40873E+03  9.84610E+02  3.24971E+03 -1.55667E+03  1.84193E+03 -1.50651E+03 -1.80538E+02
 -9.09801E+02 -2.39784E+03  1.45222E+03 -2.67823E+03  1.95748E+03 -1.45168E+03  1.93173E+03  4.41510E+02
  1.40437E+03  6.03179E+02  9.16062E+02  1.86583E+02 -3.63692E+02  9.91810E+02  1.65096E+03 -1.56641E+02
  4.41986E+02 -3.96173E+02  2.31823E+03  1.01520E+03  6.98294E+02  2.87972E+03 -4.11639E+02  4.13317E+03
 -2.60649E+03  1.94341E+03 -3.27170E+03  5.45261E+02 -3.14004E+03 -1.18881E+03 -6.16638E+02 -1.72449E+03
  2.64191E+02 -1.92851E+03  1.47223E+03 -1.23547E+03  8.44818E+02  1.40260E+03 -7.30408E+02  1.81282E+03
 -2.27697E+03  1.22898E+03 -2.13747E+03 -1.65688E+03 -1.30584E+03 -3.01727E+03  5.19695E+02 -2.67216E+03
  1.23658E+03 -1.15701E+03  1.65659E+03 -6.76161E+01  1.67051E+03  3.43289E+02  2.10542E+02  1.58205E+03
 -7.30504E+02  2.16842E+02 -1.40131E+03 -5.95992E+02  9.31472E+02 -1.67024E+03  2.54972E+03 -1.37996E+03
  2.42073E+03  1.18820E+02  3.78939E+03  1.61045E+03  1.39325E+03  2.86438E+03 -6.87490E+02  2.88078E+03
 -2.31542E+03  8.09922E+02 -2.76897E+03 -3.78476E+02 -1.70134E+03 -2.06817E+03  5.42313E+02 -1.26533E+03
  1.83128E+03 -1.19680E+03  1.25311E+03  6.40950E+02  5.43608E+02  1.94071E+03  2.35440E+02  1.64655E+03
 -8.07411E+02  1.31720E+03 -3.48025E+02  2.99010E+02  1.95785E+02  5.69761E+02 -9.37421E+02  9.72868E+02
 -9.98713E+02  1.37121E+03 -2.31017E+03  7.85910E+02 -2.67382E+03  3.66785E+02 -3.54618E+03 -1.71994E+03
 -1.83176E+03 -3.75253E+03  5.60183E+02 -4.30540E+03  2.16077E+03 -3.62123E+03  4.25913E+03 -1.69469E+03
  4.16976E+03  9.59167E+01  2.11892E+03  2.63625E+03 -3.66984E+02  2.57225E+03 -9.32357E+02  2.07181E+03
 -1.43837E+03  1.04924E+03 -1.28897E+03 -3.84449E+02 -5.24053E+02 -4.57019E+01 -3.72633E+02  2.02455E+02
 -1.27500E+03  1.17009E+02 -1.18921E+03 -7.75459E+01  5.31262E+00 -7.28372E+02 -2.72741E+02 -7.82996E+02
  1.79518E+03 -1.03633E+03  9.71202E+02  2.30936E+02  1.65790E+03  1.51671E+03 -1.30002E+02  2.71086E+03
 -1.41103E+03  3.42071E+03 -2.74138E+03  1.69910E+03 -3.05001E+03 -2.35677E+02 -2.38194E+03 -1.96009E+03
 -1.20950E+03 -2.48073E+03  6.97893E+02 -2.17034E+03  1.33597E+03 -1.02851E+03  1.28943E+03  6.96636E+01
  8.64621E+02  5.94268E+02 -1.94290E+02  3.86184E+02 -5.64789E+02 -3.35492E+02 -5.66445E+02 -3.34859E+02
  7.87794E+02  9.50459E+01  7.55512E+02  6.74685E+02  3.33545E+02  8.98114E+02  5.08188E+02  9.27894E+02
 -1.03458E+03  1.02604E+03 -1.16549E+03  1.34775E+02 -1.27480E+03 -9.90932E+02  3.68207E+02 -2.05409E+03
  9.14700E+02 -1.35292E+03  1.41076E+03 -2.45553E+02  1.61323E+03 -2.94855E+02  1.01588E+03  1.38344E+03
  5.46687E+02  1.39394E+03 -4.04224E+02  1.10996E+03 -7.94270E+02  1.00583E+03 -7.81930E+02  7.89907E+01
 -2.12862E+02 -6.61790E+00 -5.34055E+02  3.56076E+02 -1.01519E+03  4.91507E+02 -1.19980E+03 -2.77548E+02
 -1.44437E+03  8.07304E+01 -1.96391E+02 -1.73085E+03  6.90106E+02 -1.84327E+03  1.25104E+03 -4.49292E+02
  1.26236E+03  3.55284E+02  2.62830E+02  8.10314E+02 -4.01379E+02  1.33371E+03 -5.73412E+02  1.30810E+03
