 $NMID ID='MM_0lb_SNR800_7hz_g55_58.RAW', FMTDAT='(8E13.5)'
 TRAMP=1., VOLUME=1. $END
  3.09707E+05  5.88646E+02  3.38104E+05  2.50769E+05  8.50801E+04  3.38808E+05 -1.33105E+05  2.52545E+05
 -1.91221E+05  8.40542E+04 -1.13639E+05 -3.22448E+04  1.77300E+02 -5.06809E+04  5.35756E+04 -1.03294E+03
  3.54882E+04  5.30018E+04 -1.66478E+04  7.61611E+04 -6.17244E+04  6.50073E+04 -8.59056E+04  3.30340E+04
 -8.36372E+04 -1.16734E+04 -5.86253E+04 -5.28973E+04 -1.51198E+04 -7.21076E+04  2.84025E+04 -4.69741E+04
  4.15059E+04  3.53211E+03  1.70684E+04  4.87478E+04 -3.57152E+04  4.89310E+04 -6.90034E+04  1.55305E+02
 -5.56539E+04 -5.85693E+04 -7.65008E+03 -7.97078E+04  3.51859E+04 -5.73679E+04  5.01047E+04 -1.89271E+04
  4.58737E+04  1.17495E+04  3.34861E+04  2.68527E+04  1.61392E+04  3.15236E+04 -6.04624E+03  2.81943E+04
 -2.28201E+04  1.16398E+04 -1.80561E+04 -5.95831E+03  8.09623E+03 -7.56388E+03  2.40569E+04  1.43810E+04
  7.21157E+03  3.87093E+04 -3.44517E+04  3.77855E+04 -6.73125E+04  1.96094E+03 -5.98226E+04 -4.56595E+04
 -1.27040E+04 -6.71339E+04  4.21039E+04 -4.84254E+04  6.25992E+04 -2.70075E+03  3.81071E+04  3.49524E+04
 -4.74247E+03  4.11595E+04 -3.26729E+04  2.02787E+04 -3.49790E+04 -3.08963E+03 -2.04872E+04 -1.29215E+04
 -1.00611E+04 -1.58635E+04  5.92834E+01 -2.04475E+04  8.73322E+03 -2.39730E+04  1.60418E+04 -1.23634E+04
  9.78471E+03  6.98748E+03 -1.12784E+04  1.25786E+04 -2.43084E+04 -7.48329E+03 -8.17386E+03 -3.93860E+04
  2.65003E+04 -4.83039E+04  5.41079E+04 -2.09797E+04  5.00721E+04  2.13550E+04  1.81885E+04  4.84794E+04
 -1.71244E+04  3.75327E+04 -2.83981E+04  3.14510E+03 -1.29502E+04 -2.99723E+04  2.21044E+04 -3.78175E+04
  4.61834E+04 -1.20890E+04  4.23608E+04  2.55930E+04  2.25243E+04  5.29847E+04 -8.72223E+03  5.88635E+04
 -3.71441E+04  4.09846E+04 -5.01148E+04  1.17759E+04 -4.98196E+04 -1.96181E+04 -2.75500E+04 -4.43495E+04
  7.76269E+03 -4.41523E+04  3.58766E+04 -1.85501E+04  3.34376E+04  1.07765E+04  5.82744E+03  2.19790E+04
 -1.40512E+04  1.02346E+04 -1.14033E+04 -7.72615E+03  5.19085E+03 -1.16383E+04  1.92565E+04  5.54276E+03
  1.55323E+04  2.28867E+04 -5.17064E+03  2.81718E+04 -2.39885E+04  1.59638E+04 -3.32707E+04 -1.96448E+03
 -2.81823E+04 -1.91359E+04 -1.35508E+04 -2.74266E+04  5.16291E+03 -2.86324E+04  2.21659E+04 -2.53138E+04
  3.52182E+04 -1.49015E+04  4.13569E+04  6.48070E+03  2.92556E+04  2.65674E+04  4.97559E+03  4.36249E+04
 -2.09216E+04  3.55053E+04 -3.19732E+04  1.27990E+04 -2.32200E+04 -1.00892E+04 -5.55485E+03 -1.28684E+04
  2.45612E+02  6.78645E+01 -9.15897E+03  9.43169E+03 -2.26007E+04  5.39841E+03 -2.25475E+04 -1.09916E+04
 -1.28742E+04 -2.59011E+04  6.33583E+03 -3.03313E+04  2.06773E+04 -2.17469E+04  2.50250E+04 -2.04219E+03
  1.58226E+04  1.78684E+04 -9.10372E+02  2.53520E+04 -1.88727E+04  1.52342E+04 -2.56965E+04 -5.28868E+03
 -1.87414E+04 -2.27442E+04 -2.53514E+03 -3.06110E+04  1.40818E+04 -2.58594E+04  2.53021E+04 -1.35500E+04
  2.46181E+04 -8.76691E+02  1.79144E+04  5.57683E+03  1.00580E+04  1.57843E+03  1.35654E+04 -2.27452E+03
  2.47494E+04  3.34705E+03  2.89113E+04  2.01991E+04  1.95833E+04  4.19801E+04 -2.73218E+03  4.97319E+04
 -2.83422E+04  4.18897E+04 -4.71939E+04  2.14745E+04 -5.10766E+04 -3.43506E+03 -4.10245E+04 -2.98962E+04
 -1.58654E+04 -4.24198E+04  1.49912E+04 -3.66732E+04  3.17779E+04 -1.70214E+04  2.68739E+04  9.01622E+03
  8.82234E+03  2.12616E+04 -1.31824E+04  1.71990E+04 -2.26229E+04  2.39008E+03 -1.62603E+04 -1.43401E+04
 -3.52676E+02 -2.16048E+04  1.20245E+04 -1.60890E+04  1.50466E+04 -1.32030E+03  3.68919E+03  9.92857E+03
 -9.49931E+03  5.41383E+03 -1.08942E+04 -7.42650E+03 -2.71867E+03 -2.07520E+04  1.32753E+04 -2.26760E+04
  2.63595E+04 -1.33692E+04  3.03076E+04  3.61537E+03  2.68245E+04  2.16832E+04  1.25067E+04  3.40487E+04
 -6.63597E+03  3.57421E+04 -2.39352E+04  2.23695E+04 -2.67131E+04  4.47544E+03 -1.76228E+04 -7.41616E+03
 -6.96048E+03 -9.00463E+03 -6.48479E+02  2.97873E+01 -3.03456E+03  4.30468E+03 -8.97202E+03  5.86238E+03
 -1.63524E+04 -1.18449E+03 -1.68955E+04 -1.36739E+04 -6.64129E+03 -2.24410E+04  7.65273E+03 -1.76707E+04
  1.44539E+04 -7.26917E+03  1.01441E+04  5.39160E+03 -2.79186E+02  7.33788E+03 -9.31469E+03 -2.34369E+02
 -9.45841E+03 -1.18646E+04 -1.08620E+03 -1.86444E+04  1.10455E+04 -1.94224E+04  2.39852E+04 -1.04462E+04
  2.76345E+04  2.89789E+03  2.04514E+04  1.69310E+04  4.03636E+03  2.29809E+04 -1.12242E+04  1.81012E+04
 -1.44151E+04  4.55684E+03 -7.66940E+03 -4.21436E+03  3.01753E+03 -5.38331E+03  9.83189E+03 -1.05356E+03
  8.87135E+03  8.07533E+03  1.34999E+03  1.46744E+04 -1.08949E+04  1.42958E+04 -1.81517E+04  2.92122E+03
 -1.30657E+04 -1.00982E+04  2.18547E+02 -1.55218E+04  1.00949E+04 -8.17671E+03  1.13172E+04  4.33620E+03
  3.08260E+03  1.26240E+04 -1.02071E+04  1.43062E+04 -1.69668E+04  6.50849E+03 -1.72720E+04 -6.07772E+03
 -9.40310E+03 -1.92187E+04  4.69564E+03 -2.26533E+04  1.93332E+04 -1.24957E+04  2.07419E+04  3.80523E+03
  1.19370E+04  1.62132E+04 -2.66788E+03  1.92086E+04 -1.40183E+04  1.08957E+04 -1.59161E+04 -1.71358E+03
 -1.28379E+04 -1.25657E+04 -1.36069E+03 -1.48422E+04  8.09732E+03 -1.14408E+04  9.87386E+03 -4.13014E+03
  5.80603E+03  2.93349E+03 -1.52693E+03  2.02186E+03 -1.60849E+03 -4.41167E+03  3.19069E+03 -9.95782E+03
  1.45554E+04 -6.58710E+03  2.05995E+04  2.10314E+03  1.94217E+04  1.42595E+04  1.19381E+04  2.66812E+04
 -6.14939E+03  3.01529E+04 -2.45560E+04  2.19575E+04 -3.20471E+04  3.61531E+03 -2.56802E+04 -1.16230E+04
 -1.27639E+04 -2.09846E+04 -3.14162E+02 -1.81133E+04  6.39163E+03 -1.06028E+04  7.08411E+03 -6.59487E+03
  4.95562E+03 -4.01664E+03  5.20910E+03 -4.94584E+03  6.75104E+03 -4.22131E+03  9.59275E+03 -2.13960E+03
  1.30432E+04  3.01332E+03  7.69487E+03  1.17192E+04 -2.42347E+03  1.45104E+04 -1.42487E+04  1.11893E+04
 -1.88963E+04 -1.42867E+03 -1.25862E+04 -1.30422E+04 -2.03371E+03 -2.04310E+04  1.08918E+04 -2.04926E+04
  2.12289E+04 -1.15202E+04  2.50060E+04  3.86679E+03  1.66961E+04  1.77457E+04  2.36094E+03  2.22198E+04
 -9.76947E+03  1.79171E+04 -1.32883E+04  6.28684E+03 -9.53695E+03 -1.64277E+03 -4.25933E+03 -2.75686E+03
 -1.90744E+03 -4.73680E+02 -3.10154E+03  3.57554E+03 -7.46060E+03  2.57202E+03 -1.27296E+04 -2.02450E+03
 -9.99597E+03 -1.23643E+04 -5.61941E+02 -1.89825E+04  1.13757E+04 -1.74385E+04  1.98526E+04 -5.47745E+03
  1.90791E+04  8.97913E+03  8.95068E+03  1.75091E+04 -3.49366E+03  1.92124E+04 -1.41995E+04  1.20229E+04
 -1.79785E+04  1.96215E+02 -1.38543E+04 -1.17194E+04 -1.47442E+03 -1.64043E+04  8.76809E+03 -1.23947E+04
  1.20261E+04 -3.46269E+03  8.67504E+03  3.25523E+03  3.43349E+03  5.87589E+03  2.08363E+03  3.14508E+03
  3.53175E+03  1.54026E+03  4.42988E+03  2.57760E+03  5.99467E+03  6.60632E+03  5.01579E+03  1.05232E+04
 -4.12050E+03  1.56130E+04 -1.41025E+04  1.49869E+04 -2.08592E+04  3.55509E+03 -2.08336E+04 -8.89055E+03
 -1.01492E+04 -1.95557E+04  2.70003E+03 -2.22257E+04  1.26316E+04 -1.41622E+04  1.70385E+04 -3.61452E+03
  1.25287E+04  7.03165E+03  2.90810E+03  1.16405E+04 -5.75898E+03  7.62541E+03 -8.07515E+03 -1.25946E+03
 -3.86047E+03 -8.38601E+03  4.41735E+03 -9.28167E+03  8.35285E+03 -4.28644E+03  8.31201E+03  1.36506E+03
  4.95439E+03  3.93406E+03  1.92657E+03  3.92079E+03 -1.12947E+03  2.83601E+03  2.23300E+03 -6.44931E+02
  3.15235E+03 -9.24235E+02  7.91558E+03  3.49353E+03  4.98544E+03  1.09956E+04 -1.49351E+03  1.49234E+04
 -1.04409E+04  1.02315E+04 -1.30244E+04  2.94154E+03 -1.16368E+04 -4.44345E+03 -5.10178E+03 -8.40943E+03
  7.45593E+02 -7.97656E+03  5.48334E+03 -3.80112E+03  4.55481E+03  3.69697E+03 -1.84872E+03  6.72204E+03
 -8.50418E+03  3.62423E+03 -1.01938E+04 -4.58963E+03 -5.60399E+03 -1.18396E+04  1.73320E+03 -1.15978E+04
  7.23924E+03 -7.22183E+03  8.88968E+03 -8.20382E+02  6.91520E+03  3.62594E+03  7.35885E+02  5.37520E+03
 -4.59566E+03  2.44983E+03 -5.56225E+03 -4.36338E+03  1.91082E+03 -9.25517E+03  1.09397E+04 -7.30777E+03
  1.38943E+04  1.44212E+03  1.28572E+04  9.37137E+03  4.22230E+03  1.43086E+04 -5.28338E+03  1.30796E+04
 -1.16760E+04  6.60022E+03 -1.24883E+04 -1.61207E+03 -6.46347E+03 -9.06979E+03  2.25147E+03 -8.83317E+03
  8.87282E+03 -4.31530E+03  7.66370E+03  3.98116E+03  2.57453E+03  7.44729E+03 -1.39363E+03  6.84821E+03
 -3.96821E+03  4.10339E+03 -3.35599E+03  1.28880E+03 -1.85981E+03  1.48679E+03 -2.31987E+03  2.43327E+03
 -3.82850E+03  5.23512E+03 -9.42427E+03  5.38512E+03 -1.43035E+04  3.51907E+02 -1.56038E+04 -1.03150E+04
 -8.98822E+03 -1.91033E+04  3.27641E+03 -2.26544E+04  1.43069E+04 -1.72392E+04  2.11281E+04 -6.34428E+03
  1.99028E+04  4.34613E+03  1.18678E+04  1.31003E+04  1.75367E+03  1.56225E+04 -6.39516E+03  1.14297E+04
 -8.42497E+03  3.69931E+03 -5.02845E+03 -1.65567E+03 -1.50162E+03 -1.46025E+03 -7.56335E+02 -4.99464E+02
 -2.28809E+03  6.24329E+02 -3.51130E+03 -1.03048E+03 -9.77073E+02 -3.69419E+03  5.83904E+02 -5.70285E+03
  7.12300E+03 -5.29378E+03  9.22573E+03 -2.21386E+02  1.09520E+04  8.09111E+03  3.20778E+03  1.59277E+04
 -7.45091E+03  1.73022E+04 -1.59357E+04  1.03242E+04 -1.90619E+04 -1.56792E+03 -1.41041E+04 -1.13802E+04
 -5.89591E+03 -1.61573E+04  3.85614E+03 -1.50709E+04  1.04262E+04 -7.90624E+03  1.08866E+04  5.54033E+02
  5.94957E+03  5.77183E+03 -6.83594E+02  4.18649E+03 -2.77837E+03 -5.39831E+02 -2.48429E+02 -4.23499E+03
  4.95023E+03 -2.52827E+03  6.49490E+03  1.70110E+03  4.68823E+03  6.05258E+03 -2.26218E+02  8.45917E+03
 -7.40642E+03  6.68884E+03 -1.05328E+04  1.12573E+03 -9.69102E+03 -7.57421E+03 -1.86558E+03 -1.28808E+04
  7.16352E+03 -1.16624E+04  1.24613E+04 -3.53363E+03  1.20514E+04  3.63628E+03  6.98171E+03  9.74349E+03
  1.09546E+03  1.12473E+04 -4.32603E+03  8.40715E+03 -6.36362E+03  4.74078E+03 -5.99721E+03  2.45978E+02
 -3.59141E+03 -7.34929E+02 -2.76626E+03  1.96841E+03 -5.83486E+03  2.14537E+03 -8.15317E+03 -1.44518E+03
 -8.12056E+03 -6.32188E+03 -2.85351E+03 -1.10972E+04  4.78725E+03 -1.10708E+04  9.91537E+03 -5.07944E+03
  1.05625E+04  1.38702E+03  6.29115E+03  7.58575E+03 -1.26410E+03  1.09802E+04 -8.32728E+03  6.88717E+03
