 $NMID ID='MM_0lb_SNR800_11hz_g55_24.RAW', FMTDAT='(8E13.5)'
 TRAMP=1., VOLUME=1. $END
  3.10029E+05  2.10740E+01  3.37735E+05  2.50844E+05  8.46408E+04  3.38319E+05 -1.32594E+05  2.51783E+05
 -1.90628E+05  8.35064E+04 -1.12363E+05 -3.25312E+04  2.71626E+02 -5.09135E+04  5.38687E+04 -3.56345E+02
  3.58040E+04  5.28167E+04 -1.66683E+04  7.58419E+04 -6.10619E+04  6.40812E+04 -8.49431E+04  3.21767E+04
 -8.18477E+04 -1.14714E+04 -5.80546E+04 -5.18598E+04 -1.49054E+04 -7.06791E+04  2.76997E+04 -4.62737E+04
  4.07148E+04  3.57630E+03  1.66235E+04  4.77326E+04 -3.45332E+04  4.78913E+04 -6.80023E+04 -6.82742E+01
 -5.44814E+04 -5.76675E+04 -7.24953E+03 -7.85559E+04  3.44020E+04 -5.64605E+04  4.95275E+04 -1.82555E+04
  4.45433E+04  1.14015E+04  3.29692E+04  2.61148E+04  1.55037E+04  3.02261E+04 -5.63222E+03  2.76335E+04
 -2.24017E+04  1.20752E+04 -1.81616E+04 -5.64999E+03  7.01940E+03 -7.61903E+03  2.32700E+04  1.36274E+04
  7.35892E+03  3.70960E+04 -3.34888E+04  3.66371E+04 -6.52567E+04  2.08512E+03 -5.84720E+04 -4.40154E+04
 -1.27945E+04 -6.51611E+04  4.14066E+04 -4.73946E+04  6.01357E+04 -2.48783E+03  3.59901E+04  3.40125E+04
 -5.77988E+03  3.87180E+04 -3.12986E+04  1.83734E+04 -3.22550E+04 -3.53986E+03 -1.85110E+04 -1.18492E+04
 -9.25303E+03 -1.45621E+04 -2.25360E+02 -1.91287E+04  8.59366E+03 -2.35478E+04  1.53656E+04 -1.26101E+04
  1.07153E+04  6.08874E+03 -9.68688E+03  1.28011E+04 -2.26092E+04 -6.26580E+03 -8.60883E+03 -3.64294E+04
  2.45257E+04 -4.58824E+04  5.08502E+04 -2.05394E+04  4.76279E+04  2.05642E+04  1.68079E+04  4.60584E+04
 -1.62882E+04  3.52938E+04 -2.72803E+04  2.52612E+03 -1.12083E+04 -2.88450E+04  2.12950E+04 -3.61980E+04
  4.35540E+04 -1.05089E+04  3.89000E+04  2.45388E+04  2.05297E+04  4.97261E+04 -8.77052E+03  5.45109E+04
 -3.44598E+04  3.69304E+04 -4.62647E+04  1.05676E+04 -4.61451E+04 -1.80275E+04 -2.51289E+04 -4.08530E+04
  7.90233E+03 -4.09292E+04  3.31946E+04 -1.61310E+04  3.10354E+04  1.14445E+04  4.92347E+03  2.02949E+04
 -1.39803E+04  9.41660E+03 -1.07979E+04 -7.72935E+03  5.59568E+03 -1.14630E+04  1.83254E+04  5.73288E+03
  1.44086E+04  2.25083E+04 -5.33642E+03  2.68377E+04 -2.34062E+04  1.35720E+04 -3.04988E+04 -3.27509E+03
 -2.42623E+04 -1.77572E+04 -1.05222E+04 -2.36953E+04  4.15908E+03 -2.38180E+04  1.88841E+04 -2.18235E+04
  3.05707E+04 -1.38568E+04  3.64780E+04  4.10726E+03  2.61060E+04  2.31401E+04  4.04457E+03  4.00338E+04
 -1.94228E+04  3.28294E+04 -2.97758E+04  1.12887E+04 -2.18326E+04 -9.94467E+03 -4.76600E+03 -1.29644E+04
  9.59125E+02 -1.36411E+03 -6.78717E+03  8.07843E+03 -1.90925E+04  5.23023E+03 -1.93451E+04 -8.73494E+03
 -1.16420E+04 -2.16938E+04  6.16247E+03 -2.64885E+04  1.75879E+04 -1.89312E+04  2.12943E+04 -1.05467E+03
  1.33227E+04  1.55423E+04 -1.19905E+03  2.20359E+04 -1.52537E+04  1.21579E+04 -2.17917E+04 -4.45144E+03
 -1.62489E+04 -1.97308E+04 -2.47335E+03 -2.61119E+04  1.22949E+04 -2.15801E+04  2.21807E+04 -1.11874E+04
  2.03646E+04  2.12042E+01  1.46508E+04  4.91895E+03  8.09365E+03  1.04862E+03  1.17494E+04 -1.83815E+03
  2.08298E+04  2.94759E+03  2.38520E+04  1.74698E+04  1.56200E+04  3.53945E+04 -2.71137E+03  4.12008E+04
 -2.34410E+04  3.38318E+04 -3.87078E+04  1.73284E+04 -4.11280E+04 -2.75892E+03 -3.35921E+04 -2.40509E+04
 -1.34977E+04 -3.45013E+04  1.17228E+04 -3.04760E+04  2.58782E+04 -1.42934E+04  2.22536E+04  7.19528E+03
  8.01288E+03  1.71564E+04 -1.04540E+04  1.45706E+04 -1.91572E+04  2.31367E+03 -1.40181E+04 -1.18571E+04
 -4.04237E+02 -1.82599E+04  9.74448E+03 -1.34480E+04  1.24214E+04 -1.26695E+03  2.72094E+03  8.03038E+03
 -8.07964E+03  3.57063E+03 -8.30946E+03 -6.30991E+03 -1.43486E+03 -1.65458E+04  1.11353E+04 -1.82451E+04
  2.04904E+04 -1.00177E+04  2.38594E+04  3.19723E+03  2.03386E+04  1.69157E+04  9.66840E+03  2.64310E+04
 -4.91169E+03  2.87860E+04 -1.81932E+04  1.76943E+04 -2.01234E+04  3.67795E+03 -1.40162E+04 -5.34185E+03
 -5.96724E+03 -6.49295E+03 -7.40261E+02  7.30557E+02 -2.51408E+03  3.39775E+03 -6.75205E+03  4.91092E+03
 -1.30684E+04 -7.02064E+02 -1.38148E+04 -1.05820E+04 -5.75366E+03 -1.77940E+04  5.92836E+03 -1.42059E+04
  1.16565E+04 -5.92277E+03  8.55356E+03  3.90940E+03 -4.95258E+02  5.22541E+03 -7.15393E+03 -2.73097E+02
 -6.88169E+03 -8.88188E+03 -1.06267E+03 -1.41884E+04  8.28707E+03 -1.47850E+04  1.84288E+04 -7.83039E+03
  2.11295E+04  2.51984E+03  1.56937E+04  1.25212E+04  3.10903E+03  1.72417E+04 -8.93260E+03  1.41635E+04
 -1.15850E+04  4.08735E+03 -5.78869E+03 -2.84569E+03  2.12152E+03 -3.88592E+03  7.46559E+03 -9.76562E+02
  6.64584E+03  6.35693E+03  9.92127E+02  1.14003E+04 -8.32739E+03  1.08205E+04 -1.40508E+04  2.43694E+03
 -1.00256E+04 -7.53192E+03  3.40041E+02 -1.21267E+04  7.66660E+03 -5.98097E+03  8.03107E+03  2.60808E+03
  1.76536E+03  8.60949E+03 -7.42919E+03  1.03314E+04 -1.21050E+04  4.54359E+03 -1.18138E+04 -3.87600E+03
 -7.11744E+03 -1.34854E+04  3.20376E+03 -1.57119E+04  1.33578E+04 -9.50379E+03  1.44915E+04  2.49909E+03
  8.58344E+03  1.13421E+04 -8.81634E+02  1.38918E+04 -1.05129E+04  7.75024E+03 -1.10583E+04 -1.08465E+03
 -9.74108E+03 -9.65697E+03 -1.69742E+03 -1.05144E+04  5.64423E+03 -8.75375E+03  6.86472E+03 -3.68535E+03
  4.35042E+03  1.58245E+03 -7.52007E+02  1.77284E+03 -2.85231E+02 -2.93330E+03  2.22018E+03 -5.84186E+03
  9.83236E+03 -4.00609E+03  1.37921E+04  1.81907E+03  1.33593E+04  9.34343E+03  9.29077E+03  1.76970E+04
 -4.11835E+03  2.06143E+04 -1.71980E+04  1.50815E+04 -2.22153E+04  2.79194E+03 -1.78780E+04 -7.57684E+03
 -9.14056E+03 -1.44463E+04 -2.68084E+02 -1.24816E+04  4.49379E+03 -6.59368E+03  4.27163E+03 -4.54848E+03
  3.12434E+03 -2.98723E+03  3.41204E+03 -3.55735E+03  5.34715E+03 -3.12828E+03  7.28956E+03 -1.09593E+03
  9.49485E+03  1.83693E+03  4.81340E+03  8.00527E+03 -2.14072E+03  9.30512E+03 -9.74171E+03  6.71648E+03
 -1.23629E+04 -1.33323E+03 -7.47434E+03 -8.67206E+03 -7.54475E+02 -1.31681E+04  7.22758E+03 -1.35005E+04
  1.36986E+04 -7.23906E+03  1.60295E+04  1.93439E+03  1.15359E+04  1.15165E+04  1.88133E+03  1.51697E+04
 -6.07699E+03  1.22116E+04 -8.88584E+03  4.13040E+03 -6.01019E+03 -1.34930E+03 -2.29101E+03 -1.85229E+03
 -1.09284E+03 -2.35088E+02 -2.30261E+03  3.08076E+03 -5.06995E+03  2.45411E+03 -9.00351E+03 -1.51039E+03
 -5.72726E+03 -8.46033E+03 -9.04115E+01 -1.22876E+04  7.42212E+03 -1.14509E+04  1.19840E+04 -3.04066E+03
  1.20148E+04  6.17507E+03  5.56517E+03  1.07221E+04 -2.18934E+03  1.21216E+04 -8.82252E+03  7.63322E+03
 -1.15063E+04  4.01864E+02 -8.70741E+03 -7.03151E+03 -9.50407E+02 -1.01036E+04  5.61780E+03 -7.66719E+03
  7.23553E+03 -2.58117E+03  5.04034E+03  2.00388E+03  2.05058E+03  3.31174E+03  1.40794E+03  1.65802E+03
  2.61901E+03  1.18712E+03  2.92485E+03  1.69167E+03  3.68744E+03  4.57354E+03  3.49076E+03  6.38115E+03
 -2.42042E+03  9.51356E+03 -8.40064E+03  9.82323E+03 -1.23207E+04  2.23656E+03 -1.24661E+04 -4.80997E+03
 -5.95583E+03 -1.20449E+04  1.94372E+03 -1.35960E+04  6.91400E+03 -8.44991E+03  9.66560E+03 -2.10098E+03
  7.89810E+03  4.87244E+03  1.57349E+03  7.26326E+03 -3.49326E+03  4.41528E+03 -4.35068E+03 -5.29723E+02
 -2.36387E+03 -5.12145E+03  2.90015E+03 -5.30441E+03  4.60913E+03 -2.42441E+03  4.46338E+03  9.45266E+02
  2.73312E+03  1.99847E+03  1.18682E+03  1.88578E+03 -6.52589E+02  1.68960E+03  1.86368E+03 -4.75794E+02
  1.58119E+03 -1.11927E+03  4.73771E+03  1.68974E+03  2.45989E+03  6.62767E+03 -1.16154E+03  8.41900E+03
 -5.55278E+03  5.57482E+03 -7.64504E+03  1.47846E+03 -6.77192E+03 -2.53233E+03 -2.36653E+03 -4.59435E+03
  5.58621E+02 -4.79261E+03  3.29955E+03 -2.33550E+03  2.64427E+03  2.24260E+03 -1.26013E+03  3.66274E+03
 -4.91081E+03  2.53170E+03 -5.36333E+03 -3.32877E+03 -3.26702E+03 -6.56985E+03  1.17994E+03 -6.62052E+03
  3.35477E+03 -3.82266E+03  4.76705E+03 -3.77873E+02  3.91974E+03  2.00046E+03  1.01175E+03  3.47306E+03
 -2.26976E+03  9.40901E+02 -3.25552E+03 -1.89776E+03  1.06820E+03 -4.88168E+03  5.87212E+03 -4.02097E+03
  7.38321E+03  7.80045E+02  7.47413E+03  4.94069E+03  2.45870E+03  7.80326E+03 -2.45633E+03  7.37624E+03
 -6.36390E+03  2.80189E+03 -6.69676E+03 -9.67878E+02 -3.78204E+03 -4.60965E+03  9.93038E+02 -4.42820E+03
  4.93109E+03 -2.06052E+03  4.17470E+03  1.72770E+03  1.49635E+03  4.23880E+03 -3.69282E+02  3.44993E+03
 -2.11717E+03  2.52657E+03 -1.84619E+03  8.74836E+02 -1.18228E+03  7.87213E+02 -1.58035E+03  1.93866E+03
 -2.09767E+03  3.03317E+03 -5.41877E+03  2.33211E+03 -7.81253E+03  1.37259E+02 -8.52557E+03 -4.69076E+03
 -4.07202E+03 -9.82758E+03  1.79476E+03 -1.13305E+04  7.11051E+03 -8.93198E+03  1.09892E+04 -3.35858E+03
  9.95756E+03  2.22214E+03  6.17767E+03  6.76584E+03  2.22013E+02  7.50974E+03 -3.01930E+03  5.61833E+03
 -4.61204E+03  2.49627E+03 -2.26182E+03 -7.30227E+02 -9.79115E+02 -5.83249E+02 -5.41893E+02 -2.79714E+02
 -1.63609E+03  4.29620E+02 -1.75648E+03 -3.60288E+02 -7.73233E+02 -2.02723E+03 -9.43642E+01 -3.03367E+03
  3.56142E+03 -2.51657E+03  4.20891E+03  1.05261E+02  5.31844E+03  4.27784E+03  1.23658E+03  7.45985E+03
 -3.71653E+03  8.59184E+03 -7.87626E+03  5.20026E+03 -8.78952E+03 -6.97203E+02 -6.66816E+03 -5.80096E+03
 -2.78697E+03 -7.63290E+03  2.13604E+03 -6.84377E+03  5.11720E+03 -3.69113E+03  4.73786E+03  1.20395E+02
  2.92899E+03  2.67403E+03 -4.42997E+02  2.45100E+03 -1.71051E+03 -1.00025E+02 -6.60670E+00 -1.54843E+03
  2.31979E+03 -7.22769E+02  2.71238E+03  1.21611E+03  1.86201E+03  2.86598E+03  2.58200E+02  3.40820E+03
 -3.55936E+03  3.60815E+03 -4.84897E+03  4.14332E+02 -4.18640E+03 -3.75935E+03 -6.30807E+02 -6.25216E+03
  3.64222E+03 -5.11395E+03  5.37365E+03 -1.71950E+03  5.89869E+03  1.41894E+03  3.68055E+03  4.70575E+03
  7.33039E+02  4.55214E+03 -1.71483E+03  3.84317E+03 -2.91736E+03  2.55731E+03 -2.59636E+03  2.16205E+02
 -1.00506E+03  5.59672E+01 -1.46918E+03  5.07788E+02 -2.71314E+03  7.38262E+02 -3.86355E+03 -7.66289E+02
 -3.37542E+03 -2.08237E+03 -1.02558E+03 -4.88930E+03  2.31580E+03 -5.46989E+03  4.20386E+03 -2.27764E+03
  4.65429E+03  7.06015E+02  2.30876E+03  3.20640E+03  7.13014E+00  4.65164E+03 -3.28342E+03  3.10068E+03
