 $NMID ID='MM_0lb_SNR800_19hz_g55_13.RAW', FMTDAT='(8E13.5)'
 TRAMP=1., VOLUME=1. $END
  3.09870E+05  5.34040E+02  3.37432E+05  2.50886E+05  8.45865E+04  3.37600E+05 -1.32374E+05  2.50448E+05
 -1.89853E+05  8.26092E+04 -1.11262E+05 -3.26628E+04  1.25603E+03 -5.05319E+04  5.36588E+04  2.05505E+02
  3.50736E+04  5.27982E+04 -1.66517E+04  7.51220E+04 -6.05310E+04  6.28931E+04 -8.33937E+04  3.17538E+04
 -8.01873E+04 -1.12597E+04 -5.66591E+04 -5.06705E+04 -1.49452E+04 -6.86134E+04  2.69783E+04 -4.51948E+04
  3.92947E+04  4.10980E+03  1.57346E+04  4.73879E+04 -3.39789E+04  4.62042E+04 -6.57209E+04 -5.48815E+02
 -5.24886E+04 -5.63236E+04 -6.51671E+03 -7.59054E+04  3.31584E+04 -5.39619E+04  4.67558E+04 -1.65762E+04
  4.22222E+04  1.10254E+04  3.10867E+04  2.47730E+04  1.56155E+04  2.86452E+04 -4.59499E+03  2.69068E+04
 -2.17013E+04  1.28505E+04 -1.88787E+04 -4.43563E+03  4.74570E+03 -7.47687E+03  2.14951E+04  1.14408E+04
  7.29565E+03  3.37883E+04 -3.08869E+04  3.42828E+04 -6.20238E+04  2.05748E+03 -5.58166E+04 -4.14979E+04
 -1.23189E+04 -6.15986E+04  3.86850E+04 -4.37034E+04  5.63167E+04 -2.00733E+03  3.26437E+04  3.09078E+04
 -6.17419E+03  3.37582E+04 -2.88980E+04  1.41019E+04 -2.82462E+04 -5.18797E+03 -1.48761E+04 -9.99510E+03
 -7.40299E+03 -1.19797E+04 -7.93196E+02 -1.69169E+04  6.87178E+03 -2.26336E+04  1.49340E+04 -1.38596E+04
  1.20456E+04  4.62911E+03 -6.86701E+03  1.29309E+04 -1.97221E+04 -2.96334E+03 -8.01748E+03 -3.12091E+04
  2.12172E+04 -4.10682E+04  4.55163E+04 -1.89657E+04  4.27594E+04  1.86226E+04  1.49131E+04  4.24124E+04
 -1.53849E+04  3.12583E+04 -2.36995E+04  1.31694E+03 -8.53311E+03 -2.67317E+04  2.04125E+04 -3.17835E+04
  3.85767E+04 -7.40013E+03  3.23329E+04  2.29064E+04  1.59308E+04  4.30680E+04 -7.81011E+03  4.59386E+04
 -2.92471E+04  3.06865E+04 -3.84908E+04  8.52244E+03 -3.89620E+04 -1.54483E+04 -2.19956E+04 -3.49863E+04
  6.95574E+03 -3.45750E+04  2.98404E+04 -1.32379E+04  2.73389E+04  1.08428E+04  3.26320E+03  1.80493E+04
 -1.32301E+04  7.34399E+03 -9.81378E+03 -7.76736E+03  5.59704E+03 -1.00643E+04  1.75188E+04  6.45164E+03
  1.25069E+04  2.18928E+04 -6.70484E+03  2.37706E+04 -2.14468E+04  9.46370E+03 -2.53834E+04 -5.94281E+03
 -1.73574E+04 -1.64021E+04 -6.02989E+03 -1.73628E+04  3.82915E+03 -1.54077E+04  1.30775E+04 -1.48479E+04
  2.19940E+04 -1.20993E+04  2.88801E+04  1.78380E+03  2.16164E+04  1.67673E+04  4.18602E+03  3.30312E+04
 -1.61419E+04  2.81792E+04 -2.60615E+04  9.67129E+03 -1.95235E+04 -1.01778E+04 -3.75905E+03 -1.40036E+04
  2.68762E+03 -3.88755E+03 -3.14372E+03  5.50531E+03 -1.35609E+04  5.39128E+03 -1.38585E+04 -4.96176E+03
 -8.95147E+03 -1.58961E+04  4.58021E+03 -1.97019E+04  1.29524E+04 -1.42643E+04  1.50699E+04 -1.34382E+03
  9.15685E+03  1.10523E+04 -7.91721E+02  1.60583E+04 -1.06311E+04  8.69473E+03 -1.56908E+04 -3.58103E+03
 -1.21437E+04 -1.43125E+04 -1.24747E+03 -1.92250E+04  8.76275E+03 -1.54810E+04  1.62911E+04 -7.40256E+03
  1.49482E+04  9.05645E+02  1.07521E+04  3.73220E+03  5.23749E+03  6.06207E+02  7.85417E+03 -1.14235E+03
  1.43704E+04  2.74523E+03  1.53146E+04  1.32787E+04  9.34023E+03  2.51660E+04 -3.04069E+03  2.73173E+04
 -1.60474E+04  2.10502E+04 -2.52744E+04  9.84469E+03 -2.55310E+04 -1.55712E+03 -2.19620E+04 -1.47053E+04
 -1.01176E+04 -2.11985E+04  6.68464E+03 -1.94788E+04  1.70920E+04 -1.09978E+04  1.60333E+04  3.96587E+03
  6.49175E+03  1.15447E+04 -7.27629E+03  1.06051E+04 -1.36290E+04  2.79768E+03 -1.06127E+04 -7.88204E+03
 -5.87970E+00 -1.26174E+04  6.24869E+03 -9.56492E+03  8.08835E+03 -1.51996E+03  1.43356E+03  4.98692E+03
 -5.82619E+03  1.41107E+03 -3.70965E+03 -4.95523E+03  4.83165E+02 -1.07438E+04  7.88181E+03 -1.03124E+04
  1.26513E+04 -4.68448E+03  1.24676E+04  2.75682E+03  1.10240E+04  9.87089E+03  5.25812E+03  1.46521E+04
 -1.60271E+03  1.63358E+04 -9.81669E+03  1.02874E+04 -1.17178E+04  2.95934E+03 -8.76605E+03 -1.99183E+03
 -4.69724E+03 -3.30083E+03 -9.61054E+02  1.45347E+03 -1.83217E+03  2.20815E+03 -3.64669E+03  3.66727E+03
 -8.25571E+03 -4.71527E+02 -8.59125E+03 -7.02149E+03 -3.42033E+03 -1.15522E+04  3.61321E+03 -8.66942E+03
  6.97089E+03 -4.01469E+03  5.28911E+03  1.93808E+03  6.62022E+02  3.00813E+03 -3.57859E+03 -3.39754E+02
 -3.55878E+03 -5.25084E+03 -8.35123E+02 -7.48379E+03  3.75111E+03 -8.01753E+03  9.98458E+03 -4.37117E+03
  1.18051E+04  4.34642E+02  8.62538E+03  6.40046E+03  1.54898E+03  8.81492E+03 -5.27881E+03  8.52514E+03
 -6.79234E+03  2.89573E+03 -3.74780E+03 -1.14680E+03  9.22465E+02 -1.93364E+03  4.85812E+03 -1.08327E+03
  4.25279E+03  3.40309E+03  1.15840E+03  6.52372E+03 -4.51375E+03  6.23438E+03 -7.83278E+03  1.86049E+03
 -4.80033E+03 -3.42944E+03  3.23609E+02 -6.91165E+03  3.79326E+03 -3.44556E+03  3.38609E+03  8.74559E+02
  4.64327E+02  3.20702E+03 -4.05617E+03  4.76206E+03 -5.08796E+03  2.40437E+03 -4.55673E+03 -1.18476E+03
 -2.72347E+03 -6.09143E+03  1.19055E+03 -7.03990E+03  6.18666E+03 -4.47901E+03  6.28997E+03  9.49926E+02
  4.53377E+03  5.44123E+03  2.34035E+02  7.23520E+03 -5.33875E+03  4.00836E+03 -5.41056E+03 -3.95610E+02
 -5.50038E+03 -5.15450E+03 -1.53848E+03 -4.88918E+03  2.69190E+03 -4.50366E+03  2.92197E+03 -3.08995E+03
  3.24193E+03  1.17845E+02 -6.64759E+01  1.16842E+03  5.56953E+02 -3.64772E+02  1.92868E+02 -1.52844E+03
  3.93401E+03 -7.06394E+02  5.31307E+03  5.28401E+02  5.45902E+03  3.05954E+03  5.22689E+03  7.18033E+03
 -1.15572E+03  8.67379E+03 -7.75656E+03  6.43562E+03 -1.00242E+04  1.01408E+03 -7.62103E+03 -2.59562E+03
 -4.19250E+03 -6.28355E+03 -5.74853E+02 -4.85341E+03  2.08681E+03 -2.19154E+03  1.61663E+03 -2.22059E+03
  1.24120E+03 -1.49954E+03  2.05457E+03 -2.20212E+03  3.40964E+03 -1.38992E+03  3.72898E+03  4.13142E+02
  4.61830E+03  1.11622E+03  1.26321E+03  3.44408E+03 -1.67997E+03  2.59858E+03 -4.33638E+03  2.40341E+03
 -4.75190E+03 -1.07594E+03 -1.72350E+03 -3.22843E+03  5.20549E+02 -4.78283E+03  3.15838E+03 -5.62548E+03
  4.91971E+03 -3.30564E+03  6.72291E+03  2.24315E+02  4.87037E+03  4.17312E+03  1.33034E+03  5.74764E+03
 -2.00151E+03  5.75815E+03 -2.91547E+03  1.75214E+03 -1.72007E+03 -1.01763E+03 -3.04830E+02 -3.71374E+02
 -6.84108E+02  1.58561E+02 -1.11923E+03  2.18880E+03 -2.55848E+03  1.02332E+03 -3.97937E+03 -2.15905E+02
 -1.48463E+03 -3.70220E+03  9.65090E+02 -4.28688E+03  2.61382E+03 -4.34727E+03  3.65252E+03 -1.02568E+03
  3.94540E+03  2.28981E+03  1.53486E+03  3.10314E+03 -7.67375E+02  4.35327E+03 -2.45028E+03  2.69345E+03
 -3.66918E+03  4.13075E+02 -3.07402E+03 -2.25748E+03 -2.45630E+02 -3.05744E+03  1.48413E+03 -2.51265E+03
  2.56852E+03 -1.41950E+03  1.60443E+03  3.81123E+02  5.19042E+02  1.58978E+03  6.07657E+02  2.29124E+02
  1.58250E+03  4.35414E+02  1.10821E+03  1.00933E+03  9.42294E+02  2.31922E+03  1.42551E+03  1.75461E+03
 -1.16452E+03  2.55040E+03 -2.03796E+03  4.07600E+03 -2.80137E+03  1.35401E+03 -4.13135E+03 -4.59222E+02
 -1.84275E+03 -3.27422E+03  5.91861E+02 -4.42540E+03  1.48661E+03 -2.16531E+03  2.60424E+03 -8.12513E+02
  2.51835E+03  1.87970E+03  2.97563E+02  2.18065E+03 -1.66841E+02  1.06953E+03 -9.05966E+02 -4.99735E+01
 -3.20306E+02 -1.46927E+03  1.15587E+03 -1.51837E+03  1.01829E+03 -8.75095E+02  1.18791E+03  2.69548E+02
  9.40650E+02  2.71651E+02  5.68900E+02 -3.98379E+02 -2.41602E+02  9.07931E+02  1.49629E+03  7.00755E+01
 -2.75870E+01 -2.07772E+02  1.57265E+03  4.79172E+02  2.01254E+02  2.38307E+03 -3.26706E+02  2.73365E+03
 -1.55666E+03  1.12652E+03 -1.93304E+03  3.46910E+02 -2.17754E+03 -5.28235E+02 -1.00144E+02 -7.13475E+02
  3.82302E+02 -1.36171E+03  8.64876E+02 -5.58332E+02  7.56976E+02  1.14653E+03 -6.58642E+02  9.82635E+02
 -1.30781E+03  8.39291E+02 -9.53180E+02 -1.24839E+03 -5.16162E+02 -1.79035E+03  1.51679E+02 -1.18186E+03
  2.22283E+02 -5.08783E+02  7.81503E+02  3.35595E+02  1.30123E+03 -2.44456E+02  3.81189E+02  1.03722E+03
 -2.96330E+02  3.40631E+02 -8.85732E+02 -3.54458E+02  5.27382E+02 -6.16315E+02  1.53358E+03 -9.19868E+02
  1.12178E+03  2.74453E+02  2.66537E+03  7.16211E+02  8.32711E+02  1.30976E+03 -9.07989E+01  1.64978E+03
 -1.22747E+03 -6.82490E+01 -1.34287E+03 -2.81497E+02 -7.40181E+02 -1.27000E+03  7.55762E+01 -5.18780E+02
  1.45393E+03 -5.19730E+02  8.37495E+02  5.03801E+02 -2.79633E+02  1.24560E+03  5.45011E+02  9.21496E+02
 -2.52019E+02  9.01172E+02 -3.78462E+02  3.18545E+02  2.01763E+02  3.60802E+02 -6.80616E+02  6.67553E+02
 -6.20877E+02  1.00284E+03 -1.46921E+03  3.67945E+02 -1.39312E+03  1.59884E+02 -2.32232E+03 -7.51564E+02
 -1.03357E+03 -2.17353E+03  4.52543E+02 -2.65178E+03  6.64698E+02 -2.16217E+03  2.41890E+03 -1.04249E+03
  1.97437E+03 -5.90491E+01  9.00669E+02  1.24468E+03 -8.29974E+02  1.23826E+03 -5.81490E+02  1.05853E+03
 -7.94180E+02  8.00136E+02 -4.01804E+02 -2.41563E+02 -5.84959E+02  2.79109E+02 -6.72595E+02 -3.16063E+01
 -9.39204E+02 -2.44697E+02 -7.55939E+02 -1.49455E+02  3.68671E+02 -4.85147E+02 -5.20094E+02 -8.18763E+02
  8.39712E+02 -6.58660E+02  2.78781E+02 -8.38720E+00  8.29126E+02  9.44592E+02 -3.16916E+02  1.06495E+03
 -9.57306E+02  2.03311E+03 -1.35029E+03  1.20115E+03 -1.33921E+03 -2.78130E+02 -9.16183E+02 -1.07293E+03
 -8.42094E+02 -1.11722E+03  1.99005E+02 -9.90766E+02  2.80428E+02 -2.48133E+02  2.54702E+02 -1.56010E+02
  8.81101E+02  1.69862E+02  1.70202E+02  2.46954E+02 -3.13114E+02  2.06287E+02 -2.63691E+02  3.38690E+00
  3.64217E+02  5.71923E+02  8.25542E+01  4.01708E+02 -2.38783E+01  3.11371E+02  2.34935E+02  1.83358E+02
 -6.11069E+02  3.08845E+02 -5.91443E+02  2.17193E+02 -8.92082E+02 -3.66879E+02  1.60573E+02 -9.41721E+02
  5.90788E+02 -6.59651E+02  5.09851E+02 -8.82726E+01  6.79403E+02 -8.02325E+02  4.35047E+02  7.77651E+02
  1.88647E+02  2.72194E+02 -1.91338E+02  4.58344E+02 -2.23579E+02  4.38445E+02 -2.13101E+02  2.53624E+02
 -9.74694E+00 -9.51909E+01 -4.11020E+02  2.39470E+01 -3.70188E+02 -1.01005E+02 -6.32577E+02 -2.26926E+02
 -8.31145E+02  2.16560E+02 -3.75176E+01 -1.01190E+03  5.92284E+02 -1.39393E+03  2.97427E+02 -1.19119E+02
  6.66944E+02 -2.39392E+01 -4.60633E+02  1.56659E+02 -7.56940E+01  6.10275E+02 -3.10914E+02  8.23093E+02
