 $NMID ID='MM_0lb_SNR800_17hz_g60_82.RAW', FMTDAT='(8E13.5)'
 TRAMP=1., VOLUME=1. $END
  3.09810E+05  2.45608E+02  3.37738E+05  2.50675E+05  8.46690E+04  3.38107E+05 -1.32439E+05  2.51099E+05
 -1.90125E+05  8.34830E+04 -1.11724E+05 -3.22885E+04  9.58822E+02 -5.04300E+04  5.39203E+04 -5.01031E+01
  3.52333E+04  5.28427E+04 -1.67850E+04  7.54052E+04 -6.06741E+04  6.34221E+04 -8.44358E+04  3.21864E+04
 -8.11471E+04 -1.13370E+04 -5.72124E+04 -5.11674E+04 -1.51377E+04 -6.93007E+04  2.73480E+04 -4.56221E+04
  3.99708E+04  3.66556E+03  1.62291E+04  4.75834E+04 -3.45132E+04  4.68874E+04 -6.67510E+04 -5.83407E+02
 -5.33804E+04 -5.68018E+04 -6.99572E+03 -7.68998E+04  3.35118E+04 -5.48247E+04  4.79245E+04 -1.75379E+04
  4.33123E+04  1.09856E+04  3.17493E+04  2.52223E+04  1.60262E+04  2.94226E+04 -5.15084E+03  2.72595E+04
 -2.21268E+04  1.25128E+04 -1.83664E+04 -4.91469E+03  5.76589E+03 -7.43636E+03  2.23328E+04  1.23490E+04
  7.82834E+03  3.50848E+04 -3.19945E+04  3.51126E+04 -6.31693E+04  2.11702E+03 -5.67901E+04 -4.26390E+04
 -1.26296E+04 -6.27834E+04  3.94833E+04 -4.49248E+04  5.81238E+04 -1.92330E+03  3.39402E+04  3.19004E+04
 -6.19493E+03  3.57472E+04 -2.95502E+04  1.54964E+04 -2.98689E+04 -4.22812E+03 -1.64145E+04 -1.09298E+04
 -8.24714E+03 -1.30495E+04 -6.88916E+02 -1.76302E+04  7.26848E+03 -2.29333E+04  1.52645E+04 -1.33668E+04
  1.17471E+04  4.98374E+03 -7.65411E+03  1.29676E+04 -2.08678E+04 -3.99667E+03 -8.37788E+03 -3.30220E+04
  2.23878E+04 -4.28967E+04  4.76311E+04 -1.95548E+04  4.45044E+04  1.92545E+04  1.53385E+04  4.36490E+04
 -1.59675E+04  3.34065E+04 -2.48478E+04  1.53152E+03 -9.68497E+03 -2.77607E+04  2.07616E+04 -3.34892E+04
  4.04466E+04 -8.95570E+03  3.46833E+04  2.32803E+04  1.74364E+04  4.56873E+04 -7.75381E+03  4.94238E+04
 -3.07499E+04  3.28001E+04 -4.12924E+04  9.46441E+03 -4.13920E+04 -1.61555E+04 -2.30200E+04 -3.73893E+04
  7.34187E+03 -3.68993E+04  3.09922E+04 -1.43685E+04  2.90401E+04  1.10033E+04  3.76388E+03  1.88497E+04
 -1.33206E+04  8.14884E+03 -1.02414E+04 -7.44436E+03  5.68629E+03 -1.03969E+04  1.80244E+04  6.36039E+03
  1.31011E+04  2.19889E+04 -6.10431E+03  2.46163E+04 -2.22756E+04  1.08709E+04 -2.72084E+04 -5.02152E+03
 -1.97742E+04 -1.70584E+04 -7.55448E+03 -1.93368E+04  4.09735E+03 -1.84573E+04  1.50192E+04 -1.69540E+04
  2.46154E+04 -1.24988E+04  3.13188E+04  2.01346E+03  2.30840E+04  1.91513E+04  3.90973E+03  3.55238E+04
 -1.73582E+04  2.96285E+04 -2.73909E+04  1.00711E+04 -2.06970E+04 -1.02749E+04 -4.36486E+03 -1.36334E+04
  1.93960E+03 -3.19382E+03 -4.18409E+03  6.14632E+03 -1.51999E+04  4.92817E+03 -1.57018E+04 -6.52578E+03
 -9.72099E+03 -1.78569E+04  4.65009E+03 -2.20278E+04  1.48953E+04 -1.60246E+04  1.69568E+04 -1.22301E+03
  1.08053E+04  1.25035E+04 -9.36585E+02  1.79986E+04 -1.23668E+04  9.93240E+03 -1.77648E+04 -3.61279E+03
 -1.32319E+04 -1.61266E+04 -1.60391E+03 -2.16414E+04  9.77302E+03 -1.75254E+04  1.79779E+04 -8.66549E+03
  1.66645E+04  6.17054E+02  1.18920E+04  3.89295E+03  6.31502E+03  6.75711E+02  9.09790E+03 -1.82221E+03
  1.64981E+04  2.62854E+03  1.78817E+04  1.41863E+04  1.14201E+04  2.85068E+04 -2.99121E+03  3.15945E+04
 -1.84097E+04  2.48428E+04 -2.91368E+04  1.24271E+04 -3.04219E+04 -2.12076E+03 -2.52245E+04 -1.76740E+04
 -1.11828E+04 -2.48944E+04  8.93687E+03 -2.30656E+04  1.95082E+04 -1.20661E+04  1.80415E+04  4.73081E+03
  7.11187E+03  1.31690E+04 -8.18028E+03  1.17235E+04 -1.54515E+04  2.34389E+03 -1.15027E+04 -9.11249E+03
 -1.56515E+02 -1.40448E+04  7.46568E+03 -1.08871E+04  9.23803E+03 -1.05589E+03  1.96437E+03  5.71486E+03
 -6.29863E+03  1.79205E+03 -5.29135E+03 -5.05963E+03 -7.48371E+01 -1.23490E+04  8.83139E+03 -1.26081E+04
  1.49756E+04 -6.32217E+03  1.54808E+04  2.93978E+03  1.36290E+04  1.14713E+04  6.34732E+03  1.79417E+04
 -2.52782E+03  1.96329E+04 -1.21315E+04  1.23904E+04 -1.39844E+04  3.17664E+03 -9.80943E+03 -2.94315E+03
 -5.02825E+03 -3.86587E+03 -9.20803E+02  9.17348E+02 -2.37075E+03  2.28885E+03 -4.76729E+03  4.14362E+03
 -9.20654E+03 -6.97802E+02 -1.03881E+04 -8.39620E+03 -4.35182E+03 -1.32368E+04  4.66422E+03 -1.00706E+04
  8.25192E+03 -4.30148E+03  6.13556E+03  2.15000E+03  2.66341E+02  3.71002E+03 -4.36497E+03 -1.39194E+02
 -4.37777E+03 -6.37295E+03 -9.60017E+02 -9.36285E+03  5.14209E+03 -9.95244E+03  1.24482E+04 -4.93850E+03
  1.43226E+04  8.65854E+02  1.06609E+04  7.96104E+03  2.06886E+03  1.09147E+04 -6.18024E+03  9.89284E+03
 -8.47698E+03  3.07551E+03 -3.89203E+03 -1.50101E+03  1.48696E+03 -2.26567E+03  5.65303E+03 -1.19565E+03
  4.62987E+03  4.02299E+03  1.15454E+03  7.36599E+03 -5.59286E+03  7.72352E+03 -9.44081E+03  2.11771E+03
 -5.93442E+03 -4.56043E+03  5.17388E+02 -8.20540E+03  4.97564E+03 -3.93677E+03  4.81419E+03  1.36236E+03
  8.96454E+02  4.82693E+03 -4.89264E+03  5.84874E+03 -6.80754E+03  2.80330E+03 -6.29869E+03 -2.10255E+03
 -4.15167E+03 -7.90213E+03  1.76936E+03 -9.15035E+03  7.69432E+03 -5.95917E+03  8.52789E+03  1.14535E+03
  5.70760E+03  6.57710E+03  6.35698E+01  8.64615E+03 -6.22785E+03  4.97913E+03 -6.67950E+03 -6.37305E+02
 -6.73544E+03 -6.05369E+03 -1.22765E+03 -6.36085E+03  3.12132E+03 -5.83584E+03  3.66296E+03 -3.29885E+03
  3.19043E+03  6.12163E+02 -2.17690E+02  1.43697E+03  4.23107E+02 -8.55653E+02  5.02489E+02 -2.82771E+03
  5.19840E+03 -1.48629E+03  7.09884E+03  9.47613E+02  7.21803E+03  4.49254E+03  6.08571E+03  9.37741E+03
 -2.10828E+03  1.08985E+04 -9.46822E+03  7.94973E+03 -1.26048E+04  1.56718E+03 -9.91251E+03 -3.51969E+03
 -5.49743E+03 -8.19975E+03 -4.33087E+02 -6.84973E+03  2.55229E+03 -3.12259E+03  2.38798E+03 -2.72389E+03
  1.79992E+03 -1.66149E+03  2.56537E+03 -2.60553E+03  3.91861E+03 -1.68675E+03  4.08589E+03  2.16378E+02
  5.54413E+03  1.24064E+03  1.73861E+03  4.40210E+03 -1.61161E+03  4.04820E+03 -5.58897E+03  3.57769E+03
 -6.51404E+03 -1.05906E+03 -2.82676E+03 -4.57475E+03  3.04881E+02 -6.81826E+03  4.07820E+03 -6.86043E+03
  6.79110E+03 -4.04490E+03  8.32701E+03  4.95411E+02  6.47889E+03  5.40043E+03  1.17740E+03  7.76704E+03
 -2.98455E+03  7.13498E+03 -4.20488E+03  2.29894E+03 -2.55944E+03 -9.47660E+02 -8.73652E+02 -8.70413E+02
 -5.17417E+02  3.31472E+02 -1.42951E+03  2.23993E+03 -2.84068E+03  1.15740E+03 -4.94815E+03 -5.15231E+02
 -2.38138E+03 -5.02704E+03  7.30520E+02 -5.94619E+03  3.59710E+03 -5.71533E+03  5.02160E+03 -1.44156E+03
  5.61023E+03  2.78597E+03  2.30706E+03  4.79182E+03 -1.42018E+03  5.57322E+03 -3.55154E+03  3.56530E+03
 -5.04502E+03  6.76338E+02 -4.31524E+03 -3.16459E+03 -2.44454E+02 -4.58679E+03  2.26824E+03 -3.32502E+03
  3.57762E+03 -1.53543E+03  2.23200E+03  6.94413E+02  6.96266E+02  2.05021E+03  8.12282E+02  6.44143E+02
  1.88715E+03  6.79205E+02  1.40272E+03  9.24787E+02  1.70350E+03  2.41909E+03  1.94891E+03  2.61175E+03
 -1.39802E+03  4.06389E+03 -3.55091E+03  5.21652E+03 -4.38259E+03  1.45455E+03 -5.67657E+03 -1.01954E+03
 -2.61367E+03 -4.90426E+03  1.14515E+03 -5.94340E+03  2.72427E+03 -3.59834E+03  4.19576E+03 -1.30864E+03
  3.19078E+03  2.24895E+03  6.82548E+02  2.72377E+03 -8.83051E+02  1.49154E+03 -1.38806E+03 -3.28701E+02
 -9.32170E+02 -2.07530E+03  1.72675E+03 -2.37079E+03  1.87718E+03 -1.02994E+03  1.99132E+03  5.39431E+02
  1.19887E+03  5.70191E+02  5.56077E+02 -3.67162E+01 -5.32010E+02  9.17471E+02  1.81611E+03 -1.73592E+02
  4.20315E+02 -1.86576E+02  2.38972E+03  1.13830E+03  7.90232E+02  2.93263E+03 -4.02955E+02  3.77505E+03
 -2.12262E+03  1.83464E+03 -2.85055E+03  4.63822E+02 -2.90606E+03 -1.39635E+03 -3.57583E+02 -1.65702E+03
  3.16029E+02 -1.90169E+03  1.11032E+03 -7.03271E+02  8.11919E+02  1.37119E+03 -6.22910E+02  1.60639E+03
 -2.12864E+03  1.10927E+03 -1.82388E+03 -1.70283E+03 -1.19320E+03 -2.86977E+03  2.83336E+02 -2.49221E+03
  6.33081E+02 -1.06595E+03  1.08862E+03 -9.96221E+01  1.42480E+03  3.17644E+02  5.63009E+02  1.27375E+03
 -3.88006E+02  1.55924E+02 -1.09688E+03 -4.44516E+02  8.21009E+02 -1.45616E+03  2.45317E+03 -1.22568E+03
  1.83259E+03  2.29913E+02  3.35108E+03  1.40550E+03  1.12050E+03  2.37780E+03 -7.09854E+02  2.34690E+03
 -2.10339E+03  4.06787E+02 -2.06211E+03 -3.55732E+02 -1.00774E+03 -1.67965E+03  4.26038E+02 -8.65712E+02
  1.72987E+03 -6.84099E+02  1.25594E+03  9.36951E+02  3.74089E+02  1.42634E+03 -1.41206E+02  1.13571E+03
 -4.80962E+02  1.30357E+03 -4.87419E+02  3.95582E+02  1.10683E+02  5.78896E+02 -8.43371E+02  1.09188E+03
 -7.54239E+02  1.17246E+03 -2.26106E+03  8.39419E+02 -2.61165E+03  9.53657E+01 -3.04312E+03 -1.56782E+03
 -1.40724E+03 -2.97930E+03  7.45450E+02 -3.57229E+03  1.55585E+03 -3.07291E+03  3.58547E+03 -1.22681E+03
  3.23625E+03 -1.27880E+02  1.53240E+03  1.90256E+03 -2.94767E+02  2.27211E+03 -1.10515E+03  1.67253E+03
 -1.06636E+03  1.00314E+03 -8.62754E+02 -1.23306E+02 -6.10756E+02  2.18321E+02 -6.22245E+02 -9.48186E+01
 -1.00753E+03 -2.23661E+02 -9.25875E+02 -1.18251E+02  7.84662E+01 -4.89923E+02 -4.72791E+02 -1.04388E+03
  1.74357E+03 -8.26661E+02  8.87983E+02 -2.05980E+02  1.61183E+03  1.43385E+03 -4.53159E+02  2.05666E+03
 -1.03638E+03  2.55221E+03 -2.16787E+03  1.79617E+03 -2.41690E+03 -3.75417E+02 -1.85392E+03 -1.47302E+03
 -8.81112E+02 -2.08427E+03  3.18653E+02 -1.85524E+03  8.56518E+02 -7.87306E+02  1.20827E+03  2.71887E+02
  9.22308E+02  8.01695E+02 -1.69382E+02  4.51363E+02 -4.14781E+02  4.04066E+01 -1.41821E+02 -2.78619E+02
  6.66919E+02  4.00531E+01  4.17542E+02  3.54494E+02  1.35237E+02  6.70496E+02  4.27872E+02  6.43375E+02
 -9.52597E+02  6.64291E+02 -6.06051E+02 -3.65242E+01 -1.13435E+03 -5.28119E+02 -1.62767E+02 -1.55962E+03
  5.86836E+02 -1.06088E+03  8.48459E+02 -7.27412E+01  1.23039E+03 -7.38542E+02  8.15223E+02  1.11972E+03
  3.58236E+02  9.18091E+02 -2.38507E+02  6.39803E+02 -6.29738E+02  6.83076E+02 -7.59610E+02  2.76786E+02
 -4.39609E+02  5.88544E+01 -6.12757E+02  1.24797E+02 -6.05242E+02  1.22281E+02 -9.37020E+02 -5.60975E+02
 -1.47277E+03 -1.45846E+02 -3.80390E+02 -1.27553E+03  6.48669E+02 -1.79814E+03  8.78007E+02 -3.67778E+02
  7.62848E+02  8.77751E+01 -3.84057E+02  5.39697E+02 -7.44110E+01  1.04778E+03 -6.90088E+02  9.68367E+02
