 $NMID ID='MM_0lb_SNR800_15hz_g50_44.RAW', FMTDAT='(8E13.5)'
 TRAMP=1., VOLUME=1. $END
  3.09831E+05  3.86177E+02  3.37675E+05  2.50533E+05  8.45251E+04  3.37635E+05 -1.32396E+05  2.51028E+05
 -1.90430E+05  8.30840E+04 -1.11898E+05 -3.28530E+04  9.47678E+02 -5.04325E+04  5.40317E+04 -1.16370E+02
  3.53211E+04  5.28090E+04 -1.70859E+04  7.53181E+04 -6.07204E+04  6.36073E+04 -8.40679E+04  3.19054E+04
 -8.09059E+04 -1.12263E+04 -5.69918E+04 -5.09156E+04 -1.49248E+04 -6.95218E+04  2.73230E+04 -4.56595E+04
  3.99160E+04  3.88152E+03  1.59323E+04  4.73688E+04 -3.40897E+04  4.69375E+04 -6.65149E+04 -3.59400E+02
 -5.30995E+04 -5.66441E+04 -6.85329E+03 -7.69101E+04  3.34404E+04 -5.49606E+04  4.76802E+04 -1.68968E+04
  4.32576E+04  1.12425E+04  3.14852E+04  2.52845E+04  1.60951E+04  2.93312E+04 -5.15711E+03  2.73823E+04
 -2.16959E+04  1.24095E+04 -1.85109E+04 -4.99278E+03  5.27729E+03 -7.33541E+03  2.20301E+04  1.19796E+04
  7.07475E+03  3.48790E+04 -3.19472E+04  3.51923E+04 -6.29332E+04  2.45907E+03 -5.68053E+04 -4.25286E+04
 -1.26832E+04 -6.30132E+04  3.97088E+04 -4.51358E+04  5.76706E+04 -2.31411E+03  3.37378E+04  3.19522E+04
 -5.86473E+03  3.54897E+04 -2.95708E+04  1.52264E+04 -3.00287E+04 -4.86677E+03 -1.62548E+04 -1.08929E+04
 -8.23176E+03 -1.29754E+04 -7.81079E+02 -1.78130E+04  7.23041E+03 -2.28587E+04  1.54933E+04 -1.33363E+04
  1.17005E+04  4.90540E+03 -8.05185E+03  1.30365E+04 -2.10154E+04 -4.14384E+03 -8.03467E+03 -3.32543E+04
  2.24462E+04 -4.28019E+04  4.75750E+04 -1.97380E+04  4.46979E+04  1.95628E+04  1.54120E+04  4.39537E+04
 -1.58747E+04  3.29520E+04 -2.51297E+04  1.63070E+03 -9.68505E+03 -2.76875E+04  2.10441E+04 -3.34911E+04
  4.05604E+04 -8.48387E+03  3.47691E+04  2.36532E+04  1.79350E+04  4.56423E+04 -7.79538E+03  4.96625E+04
 -3.12161E+04  3.28741E+04 -4.14185E+04  9.42586E+03 -4.16923E+04 -1.62149E+04 -2.30957E+04 -3.73797E+04
  7.14790E+03 -3.71946E+04  3.09801E+04 -1.40847E+04  2.86254E+04  1.10896E+04  4.18816E+03  1.90664E+04
 -1.35771E+04  8.47117E+03 -1.00536E+04 -7.64476E+03  5.94366E+03 -1.06017E+04  1.80755E+04  6.21888E+03
  1.33811E+04  2.21150E+04 -6.08905E+03  2.47901E+04 -2.23380E+04  1.08929E+04 -2.78177E+04 -4.97252E+03
 -1.98346E+04 -1.72974E+04 -8.09141E+03 -1.97017E+04  3.93597E+03 -1.87775E+04  1.54965E+04 -1.76705E+04
  2.51542E+04 -1.25053E+04  3.15515E+04  2.59450E+03  2.30672E+04  1.91362E+04  4.00249E+03  3.58048E+04
 -1.71294E+04  3.00743E+04 -2.76389E+04  1.05240E+04 -2.07259E+04 -1.04400E+04 -4.34214E+03 -1.33432E+04
  1.86690E+03 -3.07588E+03 -4.40710E+03  6.69458E+03 -1.57057E+04  5.16471E+03 -1.58289E+04 -6.60368E+03
 -9.86671E+03 -1.84508E+04  5.13557E+03 -2.24246E+04  1.47012E+04 -1.58131E+04  1.72668E+04 -1.55296E+03
  1.08015E+04  1.24765E+04 -6.92249E+02  1.84353E+04 -1.26616E+04  1.04825E+04 -1.84339E+04 -3.96905E+03
 -1.33791E+04 -1.62105E+04 -1.72010E+03 -2.22015E+04  1.02313E+04 -1.84115E+04  1.85119E+04 -9.12907E+03
  1.69373E+04  5.37803E+02  1.23733E+04  4.48075E+03  6.61729E+03  7.16783E+02  9.18999E+03 -1.82895E+03
  1.66627E+04  2.72588E+03  1.86053E+04  1.44071E+04  1.21228E+04  2.89632E+04 -2.88558E+03  3.26342E+04
 -1.92159E+04  2.63585E+04 -3.05274E+04  1.27819E+04 -3.16910E+04 -2.00834E+03 -2.64206E+04 -1.82657E+04
 -1.15617E+04 -2.59291E+04  8.75286E+03 -2.35922E+04  2.07259E+04 -1.21107E+04  1.84463E+04  4.83446E+03
  7.20737E+03  1.37651E+04 -8.45625E+03  1.21832E+04 -1.56068E+04  2.77172E+03 -1.20227E+04 -9.38473E+03
  8.04820E+00 -1.45773E+04  7.64392E+03 -1.10623E+04  9.59321E+03 -1.29454E+03  1.83863E+03  6.19241E+03
 -6.75209E+03  2.26637E+03 -5.69708E+03 -5.32972E+03 -3.41737E+02 -1.25867E+04  9.00763E+03 -1.34605E+04
  1.57094E+04 -6.74568E+03  1.67358E+04  2.84251E+03  1.45578E+04  1.25172E+04  6.75169E+03  1.89518E+04
 -2.92814E+03  2.09373E+04 -1.31443E+04  1.34230E+04 -1.44577E+04  3.38656E+03 -1.07800E+04 -3.00357E+03
 -5.07899E+03 -4.36228E+03 -1.01904E+03  1.17383E+03 -2.17786E+03  2.23996E+03 -4.82997E+03  3.97787E+03
 -1.02790E+04 -9.16495E+02 -1.06050E+04 -8.77564E+03 -4.10569E+03 -1.42179E+04  4.45557E+03 -1.10428E+04
  9.28188E+03 -4.67912E+03  6.77664E+03  2.90814E+03  2.59106E+01  3.97915E+03 -4.43699E+03  3.54519E+01
 -4.82765E+03 -6.65277E+03 -6.53742E+02 -9.70378E+03  5.32790E+03 -1.05132E+04  1.30341E+04 -5.26978E+03
  1.55328E+04  1.04868E+03  1.15721E+04  8.40083E+03  2.34448E+03  1.16107E+04 -6.60406E+03  1.06782E+04
 -8.71733E+03  3.39850E+03 -4.44088E+03 -1.78730E+03  1.57927E+03 -2.82274E+03  6.04635E+03 -1.11829E+03
  5.16526E+03  4.68173E+03  9.61373E+02  8.33224E+03 -5.74501E+03  8.16949E+03 -1.03215E+04  1.87061E+03
 -6.83918E+03 -4.83623E+03  2.43143E+02 -8.64162E+03  4.96359E+03 -4.28464E+03  5.53604E+03  1.54715E+03
  1.07136E+03  5.69781E+03 -5.19504E+03  6.68377E+03 -7.47297E+03  3.43420E+03 -7.24226E+03 -2.54289E+03
 -4.56618E+03 -8.93137E+03  1.95716E+03 -1.04902E+04  8.74308E+03 -6.30579E+03  9.19445E+03  1.54368E+03
  6.27955E+03  7.78245E+03 -1.93117E+02  9.73750E+03 -7.07771E+03  5.50801E+03 -7.52182E+03 -6.87093E+02
 -7.32192E+03 -7.09026E+03 -1.45121E+03 -7.32195E+03  3.84372E+03 -5.87681E+03  4.53440E+03 -3.04846E+03
  3.75185E+03  5.84421E+02 -5.39715E+02  1.52229E+03  2.29604E+02 -9.94483E+02  9.38241E+02 -3.52694E+03
  6.25329E+03 -1.59967E+03  8.43922E+03  1.03471E+03  8.55859E+03  5.39494E+03  6.67725E+03  1.09291E+04
 -2.02990E+03  1.26436E+04 -1.13870E+04  9.88477E+03 -1.42671E+04  1.97350E+03 -1.15715E+04 -4.42696E+03
 -6.03921E+03 -9.30022E+03 -3.12487E+02 -7.45166E+03  2.83157E+03 -3.97533E+03  2.64317E+03 -2.97822E+03
  2.06949E+03 -2.02657E+03  2.55555E+03 -2.95874E+03  4.28630E+03 -1.74804E+03  4.64175E+03 -9.72054E+01
  5.96755E+03  1.48198E+03  2.38023E+03  4.89977E+03 -1.72651E+03  5.35490E+03 -6.32797E+03  4.26008E+03
 -7.64399E+03 -1.44654E+03 -3.96573E+03 -5.33653E+03 -3.27290E+02 -7.99619E+03  4.59808E+03 -8.29587E+03
  8.28707E+03 -4.95163E+03  9.85378E+03  7.25674E+02  7.38260E+03  6.93496E+03  1.71038E+03  9.06131E+03
 -3.33982E+03  7.95233E+03 -5.17145E+03  2.69641E+03 -3.15619E+03 -1.23741E+03 -9.88907E+02 -9.89039E+02
 -4.88863E+02  2.03543E+02 -1.13794E+03  2.48443E+03 -3.68049E+03  1.51444E+03 -6.04734E+03 -1.11615E+03
 -2.75789E+03 -5.58689E+03  3.99015E+02 -7.41409E+03  4.24271E+03 -6.64577E+03  6.47188E+03 -2.15070E+03
  6.65861E+03  3.63276E+03  3.12217E+03  5.99116E+03 -1.46776E+03  7.08751E+03 -4.59794E+03  4.54908E+03
 -6.43857E+03  9.49966E+02 -5.17882E+03 -4.04290E+03 -2.81907E+02 -5.25179E+03  2.71779E+03 -4.55728E+03
  4.30868E+03 -1.60240E+03  2.89724E+03  1.25440E+03  9.94260E+02  2.12272E+03  3.22486E+02  8.74214E+02
  1.89057E+03  7.05537E+02  1.82302E+03  1.28212E+03  2.06320E+03  2.87550E+03  2.04002E+03  3.56409E+03
 -1.83683E+03  5.12225E+03 -4.45669E+03  6.04690E+03 -5.71527E+03  1.54102E+03 -7.10320E+03 -1.96078E+03
 -3.00007E+03 -6.41785E+03  9.13122E+02 -7.80271E+03  3.30753E+03 -4.70613E+03  5.27755E+03 -1.31712E+03
  4.31586E+03  2.71261E+03  1.02221E+03  4.00892E+03 -1.49218E+03  2.05890E+03 -2.25381E+03 -3.09175E+02
 -8.86633E+02 -2.82130E+03  1.56827E+03 -3.07878E+03  2.37318E+03 -1.51705E+03  2.58530E+03  6.14275E+02
  1.25955E+03  9.72368E+02  9.24115E+02  3.52309E+02 -5.37950E+02  1.00188E+03  1.28650E+03 -2.55342E+02
  5.53986E+02 -1.73804E+02  2.61308E+03  1.23185E+03  8.34963E+02  3.60403E+03 -4.14373E+02  4.72845E+03
 -2.88281E+03  2.40434E+03 -3.65430E+03  7.13590E+02 -3.55877E+03 -1.32966E+03 -1.12309E+03 -2.03835E+03
  4.68741E+02 -2.40776E+03  1.57485E+03 -1.02871E+03  1.02800E+03  1.63903E+03 -9.33160E+02  1.88320E+03
 -2.08878E+03  1.24492E+03 -2.49005E+03 -1.95424E+03 -1.26014E+03 -3.53332E+03  3.03079E+02 -3.14645E+03
  1.57919E+03 -1.43119E+03  2.12913E+03 -1.69468E+02  2.06176E+03  5.82076E+02  2.72092E+02  1.97665E+03
 -8.92198E+02  4.74453E+02 -1.71308E+03 -8.09977E+02  1.12001E+03 -2.16375E+03  3.17831E+03 -1.84512E+03
  2.75799E+03  4.72099E+02  4.50951E+03  2.03490E+03  1.70699E+03  3.63451E+03 -8.43142E+02  3.50601E+03
 -2.75512E+03  8.86485E+02 -2.88383E+03 -5.02726E+02 -1.51483E+03 -2.19474E+03  6.69297E+02 -1.69641E+03
  2.55326E+03 -1.02073E+03  1.71393E+03  1.44912E+03  5.57945E+02  2.24477E+03  3.98543E+01  1.99206E+03
 -7.05054E+02  1.40536E+03 -1.15772E+03  5.89006E+02 -3.09391E+02 -5.38030E+01 -8.82527E+02  7.20709E+02
 -9.27929E+02  1.54703E+03 -3.13728E+03  9.48351E+02 -3.42533E+03  8.49444E+01 -4.04891E+03 -2.09310E+03
 -2.16536E+03 -4.50826E+03  7.90242E+02 -5.31529E+03  2.96094E+03 -4.35935E+03  5.05911E+03 -1.55277E+03
  4.69355E+03  1.76434E+02  2.62669E+03  2.96697E+03  1.71612E+02  3.30209E+03 -1.35823E+03  2.44656E+03
 -1.94475E+03  1.03541E+03 -1.31369E+03 -1.03396E+02 -6.06389E+02  4.14836E+02 -6.05579E+02  5.57619E+01
 -1.33000E+03  7.26998E+01 -1.16562E+03 -1.26457E+02  1.06187E+02 -1.14893E+03 -3.60683E+02 -1.45946E+03
  2.02261E+03 -1.29841E+03  1.38203E+03 -8.19208E+01  2.28496E+03  1.74012E+03  1.24625E+02  3.03923E+03
 -1.60363E+03  3.90894E+03 -3.43494E+03  2.39648E+03 -4.08331E+03 -4.93668E+02 -2.64117E+03 -2.55388E+03
 -1.30718E+03 -3.17162E+03  6.01242E+02 -2.70769E+03  2.06593E+03 -1.25751E+03  1.84291E+03  1.67875E+02
  1.08293E+03  9.42653E+02  6.20050E+01  7.61266E+02 -5.25297E+02 -9.49432E+01 -1.14923E+02 -4.22498E+02
  8.83644E+02 -7.53638E+01  1.04998E+03  4.85881E+02  2.95861E+02  9.10076E+02  5.48556E+02  1.09866E+03
 -1.17391E+03  1.42657E+03 -1.73383E+03  4.25070E+02 -1.63304E+03 -1.20287E+03  4.91692E+01 -2.54422E+03
  1.30597E+03 -2.03546E+03  1.77451E+03 -1.12618E+02  2.39093E+03 -3.03172E+02  1.00997E+03  2.04418E+03
  4.09999E+02  1.66284E+03 -7.36950E+02  1.64153E+03 -1.08754E+03  9.80336E+02 -7.92385E+02  3.07407E+02
 -6.85738E+02 -3.60398E+02 -5.42595E+02 -4.74424E+00 -9.47519E+02  5.32333E+02 -1.59306E+03 -3.64443E+02
 -2.22186E+03 -4.17562E+02 -6.04917E+02 -1.81278E+03  1.02307E+03 -2.34947E+03  1.79716E+03 -9.78686E+02
  1.98842E+03  4.13583E+02  4.75908E+02  8.37566E+02 -3.02769E+02  1.84638E+03 -9.01753E+02  1.48931E+03
