 $NMID ID='MM_0lb_SNR800_7hz_g50_40.RAW', FMTDAT='(8E13.5)'
 TRAMP=1., VOLUME=1. $END
  3.09677E+05  6.15020E+02  3.38012E+05  2.50734E+05  8.48861E+04  3.38846E+05 -1.32439E+05  2.51874E+05
 -1.90886E+05  8.38239E+04 -1.12781E+05 -3.28676E+04 -2.72502E+02 -5.10379E+04  5.38868E+04 -2.23666E+02
  3.53826E+04  5.29177E+04 -1.70711E+04  7.64585E+04 -6.13787E+04  6.55927E+04 -8.57552E+04  3.27675E+04
 -8.29003E+04 -1.20208E+04 -5.87068E+04 -5.25880E+04 -1.49101E+04 -7.13958E+04  2.83008E+04 -4.75543E+04
  4.10926E+04  3.77557E+03  1.73402E+04  4.90041E+04 -3.43933E+04  4.85665E+04 -6.86928E+04  3.43135E+02
 -5.55603E+04 -5.81768E+04 -7.59687E+03 -7.98054E+04  3.51728E+04 -5.77552E+04  5.01103E+04 -1.88707E+04
  4.63569E+04  1.15069E+04  3.36622E+04  2.70105E+04  1.60653E+04  3.11059E+04 -6.27214E+03  2.77884E+04
 -2.28301E+04  1.21452E+04 -1.76003E+04 -6.05638E+03  7.61771E+03 -7.16086E+03  2.37668E+04  1.45080E+04
  7.77961E+03  3.85815E+04 -3.48322E+04  3.78930E+04 -6.71734E+04  2.05636E+03 -5.96594E+04 -4.52844E+04
 -1.27613E+04 -6.68752E+04  4.26951E+04 -4.78645E+04  6.28472E+04 -2.75836E+03  3.78010E+04  3.51381E+04
 -5.35172E+03  4.10869E+04 -3.24165E+04  1.96446E+04 -3.45079E+04 -3.20952E+03 -2.02072E+04 -1.25203E+04
 -9.79077E+03 -1.56272E+04 -3.67301E+02 -2.06170E+04  8.88391E+03 -2.36268E+04  1.57439E+04 -1.24411E+04
  9.62573E+03  6.42494E+03 -1.13653E+04  1.24888E+04 -2.43558E+04 -7.66404E+03 -8.50892E+03 -3.90252E+04
  2.60375E+04 -4.84608E+04  5.36232E+04 -2.14381E+04  4.99516E+04  2.12791E+04  1.78596E+04  4.82617E+04
 -1.72869E+04  3.70100E+04 -2.88411E+04  3.00373E+03 -1.21864E+04 -3.02264E+04  2.17760E+04 -3.81849E+04
  4.65380E+04 -1.15200E+04  4.29152E+04  2.54061E+04  2.26397E+04  5.28799E+04 -8.30284E+03  5.84828E+04
 -3.67146E+04  3.98115E+04 -5.01590E+04  1.16603E+04 -4.95911E+04 -1.94750E+04 -2.73269E+04 -4.37340E+04
  8.25233E+03 -4.38252E+04  3.52359E+04 -1.81130E+04  3.34703E+04  1.15408E+04  5.66495E+03  2.14299E+04
 -1.39005E+04  1.01407E+04 -1.16740E+04 -7.77289E+03  5.10313E+03 -1.17507E+04  1.96142E+04  6.01194E+03
  1.51681E+04  2.31492E+04 -5.20792E+03  2.82347E+04 -2.40170E+04  1.53776E+04 -3.31107E+04 -2.26198E+03
 -2.77252E+04 -1.88949E+04 -1.26546E+04 -2.68200E+04  4.36101E+03 -2.83790E+04  2.19140E+04 -2.45321E+04
  3.47971E+04 -1.53442E+04  4.05175E+04  6.02204E+03  2.84228E+04  2.64592E+04  4.46566E+03  4.30301E+04
 -2.06839E+04  3.55442E+04 -3.15268E+04  1.22208E+04 -2.31434E+04 -9.94028E+03 -5.12696E+03 -1.27508E+04
  4.92074E+02 -6.05860E+02 -9.26840E+03  9.14759E+03 -2.24500E+04  4.84500E+03 -2.18270E+04 -1.08864E+04
 -1.24202E+04 -2.52413E+04  6.15842E+03 -2.95896E+04  2.01956E+04 -2.14448E+04  2.49481E+04 -2.11754E+03
  1.59852E+04  1.73196E+04 -1.44880E+03  2.50164E+04 -1.83022E+04  1.46668E+04 -2.54590E+04 -5.01215E+03
 -1.83150E+04 -2.26845E+04 -2.57806E+03 -3.01909E+04  1.35573E+04 -2.54086E+04  2.48560E+04 -1.31650E+04
  2.38005E+04 -4.72537E+02  1.73540E+04  5.44589E+03  9.86601E+03  1.75055E+03  1.31136E+04 -2.26344E+03
  2.37575E+04  3.07167E+03  2.82181E+04  1.95759E+04  1.91324E+04  4.05336E+04 -2.62294E+03  4.83960E+04
 -2.81039E+04  4.11248E+04 -4.64227E+04  2.14270E+04 -4.97185E+04 -3.62086E+03 -4.04307E+04 -2.91324E+04
 -1.52549E+04 -4.17952E+04  1.46494E+04 -3.64306E+04  3.05852E+04 -1.62616E+04  2.64838E+04  9.11152E+03
  8.76001E+03  2.06041E+04 -1.28336E+04  1.68829E+04 -2.18939E+04  1.91133E+03 -1.67048E+04 -1.36160E+04
 -5.61543E+02 -2.09803E+04  1.17156E+04 -1.62381E+04  1.48615E+04 -1.61031E+03  3.86448E+03  9.16825E+03
 -9.40714E+03  4.82453E+03 -1.04114E+04 -7.75312E+03 -2.82634E+03 -1.98900E+04  1.31221E+04 -2.23103E+04
  2.59276E+04 -1.27331E+04  2.97133E+04  3.51308E+03  2.64059E+04  2.05579E+04  1.17694E+04  3.32602E+04
 -6.86500E+03  3.52838E+04 -2.30167E+04  2.16403E+04 -2.57120E+04  3.90140E+03 -1.70054E+04 -7.26812E+03
 -7.25393E+03 -8.64881E+03 -2.92851E+02 -4.57006E+02 -3.37384E+03  4.06451E+03 -8.69365E+03  6.13616E+03
 -1.60192E+04 -1.20645E+03 -1.63710E+04 -1.31655E+04 -6.52003E+03 -2.15329E+04  6.57515E+03 -1.73834E+04
  1.43302E+04 -7.19669E+03  1.04819E+04  4.78806E+03 -8.20124E+02  7.66862E+03 -9.08383E+03 -3.24416E+02
 -8.91343E+03 -1.13580E+04 -1.49455E+03 -1.86058E+04  1.12217E+04 -1.85514E+04  2.28899E+04 -1.04049E+04
  2.68245E+04  2.99412E+03  1.99994E+04  1.65971E+04  3.83475E+03  2.22625E+04 -1.08187E+04  1.76559E+04
 -1.42983E+04  5.00346E+03 -7.19394E+03 -4.37003E+03  2.52239E+03 -5.00056E+03  9.04984E+03 -7.29955E+02
  8.26354E+03  8.31144E+03  1.54593E+03  1.46003E+04 -1.06765E+04  1.36531E+04 -1.78738E+04  3.17886E+03
 -1.23449E+04 -9.63018E+03  8.97659E+01 -1.52308E+04  1.03478E+04 -8.09387E+03  1.09958E+04  3.89276E+03
  2.61026E+03  1.23173E+04 -9.29143E+03  1.37305E+04 -1.65157E+04  5.78561E+03 -1.66235E+04 -6.23620E+03
 -9.88403E+03 -1.86323E+04  4.86985E+03 -2.16017E+04  1.82711E+04 -1.25064E+04  2.01910E+04  3.35704E+03
  1.17949E+04  1.56558E+04 -1.72438E+03  1.86251E+04 -1.34396E+04  9.90360E+03 -1.52842E+04 -1.41907E+03
 -1.24147E+04 -1.22395E+04 -2.19029E+03 -1.41377E+04  7.29224E+03 -1.13341E+04  8.58717E+03 -3.82629E+03
  5.59459E+03  2.92518E+03 -1.78731E+03  2.16600E+03 -1.52269E+03 -4.48625E+03  3.68363E+03 -8.80458E+03
  1.39269E+04 -6.14772E+03  1.92750E+04  2.37196E+03  1.90523E+04  1.37481E+04  1.13732E+04  2.52719E+04
 -6.41093E+03  2.88222E+04 -2.34285E+04  2.14309E+04 -3.10603E+04  4.30133E+03 -2.51124E+04 -1.11022E+04
 -1.23971E+04 -2.04951E+04 -1.03496E+02 -1.72973E+04  6.20245E+03 -1.04886E+04  6.49185E+03 -5.89321E+03
  4.69431E+03 -3.22214E+03  4.46324E+03 -4.62180E+03  6.68830E+03 -4.01455E+03  9.56655E+03 -1.68262E+03
  1.32397E+04  2.84179E+03  7.69518E+03  1.13738E+04 -2.36885E+03  1.44540E+04 -1.36631E+04  1.04846E+04
 -1.82208E+04 -1.13688E+03 -1.23386E+04 -1.24247E+04 -2.11336E+03 -1.90528E+04  1.06262E+04 -1.89241E+04
  2.06278E+04 -1.06194E+04  2.41904E+04  3.59811E+03  1.60853E+04  1.70046E+04  2.63835E+03  2.16929E+04
 -9.86963E+03  1.73266E+04 -1.30480E+04  5.62502E+03 -9.13683E+03 -1.98360E+03 -3.86427E+03 -2.86023E+03
 -1.55281E+03 -1.51449E+02 -2.47152E+03  3.47186E+03 -7.21763E+03  2.90403E+03 -1.17290E+04 -1.76083E+03
 -9.38974E+03 -1.23936E+04 -3.64639E+02 -1.88575E+04  1.14120E+04 -1.67179E+04  1.85533E+04 -5.48500E+03
  1.86551E+04  8.77336E+03  9.16815E+03  1.69228E+04 -3.50912E+03  1.91000E+04 -1.36576E+04  1.17755E+04
 -1.80126E+04  8.28885E+02 -1.32734E+04 -1.12351E+04 -1.52896E+03 -1.55925E+04  8.15722E+03 -1.16934E+04
  1.17833E+04 -3.00091E+03  8.25753E+03  3.46983E+03  3.61577E+03  5.39099E+03  1.74147E+03  2.29290E+03
  2.56190E+03  1.51121E+03  4.77881E+03  2.06777E+03  5.88819E+03  6.33076E+03  5.14209E+03  1.06268E+04
 -3.71139E+03  1.48865E+04 -1.28517E+04  1.48092E+04 -1.98945E+04  4.11308E+03 -2.01314E+04 -8.90186E+03
 -9.90983E+03 -1.98770E+04  2.62044E+03 -2.13188E+04  1.24473E+04 -1.35800E+04  1.60032E+04 -3.85678E+03
  1.23179E+04  7.19529E+03  3.24541E+03  1.15374E+04 -5.32620E+03  6.94066E+03 -8.39234E+03 -1.35871E+03
 -3.93830E+03 -7.91560E+03  4.47051E+03 -8.84665E+03  8.14659E+03 -4.16053E+03  7.61771E+03  1.76940E+03
  4.84340E+03  4.34435E+03  1.72618E+03  3.95525E+03 -7.40848E+02  2.35331E+03  1.83213E+03 -9.78555E+02
  3.51599E+03 -1.28580E+03  7.80399E+03  3.49748E+03  5.10766E+03  1.07144E+04 -1.57376E+03  1.42220E+04
 -9.30101E+03  9.78342E+03 -1.31680E+04  2.48441E+03 -1.15551E+04 -4.48492E+03 -5.13380E+03 -8.10212E+03
  9.57430E+02 -8.05622E+03  5.26092E+03 -3.57275E+03  4.43403E+03  3.54275E+03 -1.82749E+03  6.67079E+03
 -8.19280E+03  4.19143E+03 -9.54873E+03 -4.91069E+03 -5.49853E+03 -1.13302E+04  1.75260E+03 -1.10704E+04
  6.91091E+03 -7.08786E+03  8.88746E+03 -8.00956E+02  6.85461E+03  3.00400E+03  8.39841E+02  5.67676E+03
 -4.31450E+03  1.78552E+03 -4.90379E+03 -4.11296E+03  1.84630E+03 -8.72403E+03  9.99021E+03 -7.65616E+03
  1.28769E+04  1.21420E+03  1.27393E+04  9.35987E+03  3.78303E+03  1.36019E+04 -5.15877E+03  1.29142E+04
 -1.11308E+04  5.69744E+03 -1.17437E+04 -2.26453E+03 -6.16271E+03 -8.48530E+03  2.34931E+03 -8.46883E+03
  8.15347E+03 -4.03409E+03  7.16261E+03  3.80444E+03  2.27890E+03  7.44660E+03 -1.20682E+03  6.38576E+03
 -3.94576E+03  3.60258E+03 -3.28597E+03  1.21355E+03 -1.58959E+03  1.48578E+03 -2.22048E+03  2.49272E+03
 -4.20906E+03  5.41991E+03 -8.91551E+03  4.68691E+03 -1.40456E+04  4.09867E+02 -1.51715E+04 -9.51258E+03
 -8.12242E+03 -1.85205E+04  3.38608E+03 -2.17747E+04  1.40583E+04 -1.62128E+04  2.04150E+04 -6.14153E+03
  1.87968E+04  4.12174E+03  1.13367E+04  1.24619E+04  1.35579E+03  1.49156E+04 -5.97615E+03  1.07776E+04
 -7.93945E+03  3.92997E+03 -5.13196E+03 -1.34154E+03 -1.44408E+03 -1.11229E+03 -7.17674E+02 -9.12153E+01
 -2.22892E+03  2.88378E+02 -3.15739E+03 -3.79582E+02 -7.75081E+02 -3.91532E+03  3.03735E+02 -5.20169E+03
  6.08177E+03 -5.00539E+03  9.32918E+03  1.31588E+02  1.01948E+04  8.32571E+03  2.82421E+03  1.49089E+04
 -6.58107E+03  1.65508E+04 -1.60056E+04  9.54504E+03 -1.80557E+04 -1.38532E+03 -1.35947E+04 -1.13328E+04
 -5.93710E+03 -1.54995E+04  4.34569E+03 -1.46822E+04  9.97900E+03 -8.32196E+03  9.41490E+03  5.37543E+02
  5.24572E+03  5.12009E+03 -6.36382E+02  4.70456E+03 -3.16243E+03 -3.71079E+02  5.64743E+01 -3.51865E+03
  4.49333E+03 -2.28264E+03  6.36370E+03  1.73550E+03  4.18670E+03  5.78039E+03 -1.40918E+02  8.48462E+03
 -6.75693E+03  6.87082E+03 -1.04069E+04  9.12626E+02 -9.39057E+03 -7.76384E+03 -1.63676E+03 -1.28176E+04
  7.34313E+03 -1.12343E+04  1.25345E+04 -3.43831E+03  1.22198E+04  3.49500E+03  6.69465E+03  9.27089E+03
  1.54489E+03  1.04652E+04 -3.84148E+03  8.64651E+03 -6.24411E+03  4.70492E+03 -5.74782E+03  7.19252E+02
 -3.03915E+03 -2.57121E+02 -3.21642E+03  1.68405E+03 -5.29729E+03  1.72110E+03 -7.97504E+03 -1.14784E+03
 -7.72792E+03 -6.23525E+03 -2.27315E+03 -1.09185E+04  4.78338E+03 -1.05751E+04  9.05081E+03 -5.66564E+03
  1.01027E+04  1.42097E+03  6.22595E+03  7.58262E+03 -7.45515E+02  1.08595E+04 -8.21605E+03  6.59476E+03
