 $NMID ID='MM_0lb_SNR800_8hz_g55_73.RAW', FMTDAT='(8E13.5)'
 TRAMP=1., VOLUME=1. $END
  3.09799E+05  3.85162E+02  3.38053E+05  2.50869E+05  8.50202E+04  3.38738E+05 -1.32447E+05  2.52234E+05
 -1.91146E+05  8.43038E+04 -1.12906E+05 -3.26052E+04 -1.52608E+02 -5.07558E+04  5.31539E+04 -7.12216E+02
  3.56430E+04  5.28223E+04 -1.66770E+04  7.65328E+04 -6.12445E+04  6.49655E+04 -8.57584E+04  3.24933E+04
 -8.26613E+04 -1.18418E+04 -5.86254E+04 -5.30616E+04 -1.51503E+04 -7.12478E+04  2.80670E+04 -4.69099E+04
  4.17781E+04  3.82713E+03  1.67635E+04  4.85040E+04 -3.48148E+04  4.84076E+04 -6.89035E+04  2.56494E+02
 -5.52003E+04 -5.79782E+04 -7.47242E+03 -7.94966E+04  3.45092E+04 -5.81084E+04  5.04568E+04 -1.84841E+04
  4.59191E+04  1.15969E+04  3.31677E+04  2.68663E+04  1.56264E+04  3.09254E+04 -5.71582E+03  2.80076E+04
 -2.21949E+04  1.21773E+04 -1.80559E+04 -5.94770E+03  7.72161E+03 -7.70063E+03  2.45227E+04  1.42838E+04
  7.35694E+03  3.82022E+04 -3.45085E+04  3.77106E+04 -6.66333E+04  2.34743E+03 -5.98456E+04 -4.53609E+04
 -1.25734E+04 -6.64025E+04  4.22885E+04 -4.85236E+04  6.19844E+04 -2.38992E+03  3.77621E+04  3.51268E+04
 -5.04888E+03  4.03369E+04 -3.24042E+04  1.93765E+04 -3.38188E+04 -3.32821E+03 -1.98465E+04 -1.19814E+04
 -9.72014E+03 -1.54694E+04 -1.83454E+02 -2.00914E+04  8.32919E+03 -2.37833E+04  1.60435E+04 -1.24961E+04
  9.81323E+03  6.76105E+03 -1.13369E+04  1.30147E+04 -2.45135E+04 -7.60752E+03 -8.57638E+03 -3.83689E+04
  2.56719E+04 -4.76717E+04  5.32440E+04 -2.10583E+04  4.95705E+04  2.12082E+04  1.79579E+04  4.77970E+04
 -1.66738E+04  3.69331E+04 -2.79187E+04  3.01743E+03 -1.20059E+04 -2.97158E+04  2.17811E+04 -3.77025E+04
  4.54577E+04 -1.15132E+04  4.17187E+04  2.51146E+04  2.21825E+04  5.22174E+04 -8.39270E+03  5.78844E+04
 -3.62707E+04  3.97601E+04 -4.93311E+04  1.14313E+04 -4.93213E+04 -1.86304E+04 -2.72982E+04 -4.33190E+04
  7.49480E+03 -4.32370E+04  3.53018E+04 -1.78555E+04  3.32465E+04  1.12574E+04  5.38364E+03  2.11865E+04
 -1.39274E+04  9.87409E+03 -1.14768E+04 -7.51822E+03  5.53013E+03 -1.17487E+04  1.94216E+04  4.50932E+03
  1.50656E+04  2.27319E+04 -4.71681E+03  2.74549E+04 -2.44404E+04  1.49646E+04 -3.26848E+04 -2.49011E+03
 -2.68921E+04 -1.88578E+04 -1.28801E+04 -2.67350E+04  4.44306E+03 -2.76273E+04  2.11287E+04 -2.45239E+04
  3.39789E+04 -1.48330E+04  3.99838E+04  5.91380E+03  2.81899E+04  2.58821E+04  4.41234E+03  4.25394E+04
 -2.04032E+04  3.49028E+04 -3.14333E+04  1.21523E+04 -2.29056E+04 -1.03945E+04 -5.11437E+03 -1.26070E+04
  3.13522E+02 -6.71646E+02 -8.92467E+03  8.37980E+03 -2.12281E+04  5.29328E+03 -2.12184E+04 -1.06961E+04
 -1.24869E+04 -2.47208E+04  6.36652E+03 -2.93238E+04  1.98529E+04 -2.02508E+04  2.41530E+04 -1.86206E+03
  1.54150E+04  1.70670E+04 -1.67517E+03  2.45836E+04 -1.78741E+04  1.38084E+04 -2.47822E+04 -5.17641E+03
 -1.83079E+04 -2.20381E+04 -2.21930E+03 -2.94007E+04  1.29140E+04 -2.50856E+04  2.46528E+04 -1.32144E+04
  2.39074E+04 -2.58590E+02  1.70144E+04  5.26737E+03  9.44613E+03  1.79939E+03  1.30519E+04 -2.58703E+03
  2.37688E+04  2.90385E+03  2.70845E+04  1.89558E+04  1.88645E+04  4.01980E+04 -2.75075E+03  4.70412E+04
 -2.66384E+04  4.05193E+04 -4.46740E+04  2.08802E+04 -4.85154E+04 -3.24811E+03 -3.89334E+04 -2.82971E+04
 -1.50264E+04 -4.01718E+04  1.42044E+04 -3.51265E+04  3.01576E+04 -1.63453E+04  2.53128E+04  8.70264E+03
  8.80221E+03  2.03710E+04 -1.22318E+04  1.60955E+04 -2.18383E+04  2.54427E+03 -1.63783E+04 -1.37296E+04
 -6.65288E+02 -2.06668E+04  1.09741E+04 -1.55483E+04  1.42853E+04 -1.20337E+03  4.16243E+03  9.56299E+03
 -9.46047E+03  4.39160E+03 -1.06861E+04 -7.30505E+03 -2.87471E+03 -1.95491E+04  1.26916E+04 -2.18390E+04
  2.50693E+04 -1.24393E+04  2.89480E+04  3.45630E+03  2.50735E+04  2.03753E+04  1.14517E+04  3.18177E+04
 -6.57953E+03  3.42919E+04 -2.24914E+04  2.10112E+04 -2.46619E+04  3.99712E+03 -1.65159E+04 -6.47984E+03
 -6.89715E+03 -8.15421E+03 -5.55847E+02  2.62319E+02 -3.11945E+03  3.85289E+03 -7.74746E+03  6.03860E+03
 -1.56095E+04 -1.12263E+03 -1.58526E+04 -1.29544E+04 -6.53218E+03 -2.06810E+04  6.87715E+03 -1.69149E+04
  1.40066E+04 -6.92632E+03  9.43270E+03  4.47448E+03 -2.92825E+02  7.04204E+03 -8.30309E+03 -2.18385E+02
 -8.25129E+03 -1.13895E+04 -1.13906E+03 -1.67288E+04  9.99353E+03 -1.79302E+04  2.19267E+04 -1.02363E+04
  2.57201E+04  2.93758E+03  1.84671E+04  1.60435E+04  3.81410E+03  2.11868E+04 -1.04199E+04  1.69859E+04
 -1.38976E+04  5.32077E+03 -7.81976E+03 -4.16706E+03  2.49205E+03 -5.28230E+03  9.10330E+03 -1.04051E+03
  7.86105E+03  7.56067E+03  1.07291E+03  1.43225E+04 -1.01684E+04  1.34647E+04 -1.71539E+04  2.72056E+03
 -1.20932E+04 -9.04005E+03  1.11937E+02 -1.46280E+04  9.51132E+03 -7.26916E+03  1.03930E+04  4.03453E+03
  2.52176E+03  1.13202E+04 -9.36582E+03  1.32629E+04 -1.53704E+04  6.03235E+03 -1.57921E+04 -5.65985E+03
 -8.59616E+03 -1.79275E+04  4.40929E+03 -2.03965E+04  1.74254E+04 -1.21759E+04  1.88512E+04  3.53303E+03
  1.11972E+04  1.53741E+04 -1.88564E+03  1.75886E+04 -1.27721E+04  9.89658E+03 -1.41611E+04 -1.12051E+03
 -1.16478E+04 -1.14261E+04 -1.78511E+03 -1.33558E+04  7.32392E+03 -1.06307E+04  8.73329E+03 -3.95160E+03
  5.28213E+03  2.49002E+03 -1.47306E+03  2.49603E+03 -4.97029E+02 -4.06170E+03  2.80118E+03 -8.98715E+03
  1.33229E+04 -5.68103E+03  1.88634E+04  2.34656E+03  1.78421E+04  1.25013E+04  1.12977E+04  2.35872E+04
 -5.37353E+03  2.75274E+04 -2.25151E+04  1.96817E+04 -2.95355E+04  4.04477E+03 -2.33759E+04 -1.03531E+04
 -1.19042E+04 -1.94940E+04 -4.55688E+02 -1.68176E+04  5.95443E+03 -9.83829E+03  5.99483E+03 -5.77452E+03
  4.34982E+03 -3.44780E+03  4.25569E+03 -4.13021E+03  6.53315E+03 -4.19984E+03  9.04637E+03 -2.02808E+03
  1.21432E+04  2.86181E+03  7.12478E+03  1.07177E+04 -2.37501E+03  1.36029E+04 -1.27154E+04  9.57704E+03
 -1.68900E+04 -1.53544E+03 -1.13524E+04 -1.19973E+04 -1.77210E+03 -1.83590E+04  1.01938E+04 -1.85505E+04
  1.88657E+04 -9.69593E+03  2.23465E+04  2.91306E+03  1.62890E+04  1.61046E+04  2.23742E+03  2.02720E+04
 -8.42162E+03  1.64919E+04 -1.19055E+04  6.07982E+03 -8.29070E+03 -1.95199E+03 -3.74774E+03 -2.99117E+03
 -1.78930E+03 -3.16872E+02 -2.57904E+03  2.98282E+03 -7.13955E+03  2.90193E+03 -1.19673E+04 -1.81967E+03
 -8.79000E+03 -1.12853E+04 -3.36261E+02 -1.65792E+04  1.06006E+04 -1.55946E+04  1.72795E+04 -4.84831E+03
  1.69309E+04  8.38929E+03  8.09709E+03  1.49327E+04 -3.76663E+03  1.69909E+04 -1.26782E+04  1.12266E+04
 -1.65252E+04 -2.07514E+02 -1.21334E+04 -1.03853E+04 -1.13040E+03 -1.40718E+04  7.73358E+03 -1.06241E+04
  1.12142E+04 -3.26546E+03  7.78297E+03  3.29701E+03  2.93036E+03  4.89105E+03  1.59685E+03  2.59970E+03
  2.84312E+03  1.82989E+03  4.19820E+03  2.21945E+03  4.99706E+03  5.76683E+03  4.71220E+03  9.73406E+03
 -3.84159E+03  1.41303E+04 -1.24004E+04  1.36188E+04 -1.85695E+04  3.37319E+03 -1.83137E+04 -8.01227E+03
 -8.98744E+03 -1.81953E+04  2.60655E+03 -1.96335E+04  1.06542E+04 -1.22742E+04  1.48255E+04 -3.22752E+03
  1.14248E+04  6.56482E+03  2.83465E+03  1.02355E+04 -5.05351E+03  6.28217E+03 -7.63477E+03 -8.94790E+02
 -3.58771E+03 -7.98483E+03  3.68607E+03 -8.12346E+03  7.33013E+03 -3.78172E+03  7.41990E+03  1.55495E+03
  4.73681E+03  3.37983E+03  1.85046E+03  3.40378E+03 -8.87589E+02  2.30074E+03  1.59933E+03 -8.88202E+02
  3.10926E+03 -7.85227E+02  7.44537E+03  2.63884E+03  3.84628E+03  9.22633E+03 -1.30565E+03  1.25825E+04
 -8.77207E+03  8.89522E+03 -1.20656E+04  2.49475E+03 -1.06620E+04 -4.22273E+03 -3.77283E+03 -6.87896E+03
  1.10693E+03 -7.58134E+03  4.75902E+03 -3.49928E+03  4.12966E+03  3.99179E+03 -1.37342E+03  6.19731E+03
 -7.44268E+03  3.55505E+03 -8.26046E+03 -3.72458E+03 -5.16049E+03 -9.99620E+03  1.79217E+03 -1.02735E+04
  5.83667E+03 -6.34516E+03  7.57094E+03 -1.16087E+03  6.12766E+03  2.96423E+03  1.51482E+03  5.34780E+03
 -3.50319E+03  2.05421E+03 -4.65049E+03 -3.70925E+03  1.68187E+03 -7.78773E+03  8.97311E+03 -6.56008E+03
  1.21229E+04  4.00353E+02  1.13507E+04  8.34100E+03  3.48637E+03  1.25061E+04 -4.63905E+03  1.16238E+04
 -9.93763E+03  5.49367E+03 -9.92453E+03 -1.34391E+03 -5.79099E+03 -7.59316E+03  2.00791E+03 -7.63386E+03
  7.77336E+03 -3.69415E+03  6.58390E+03  2.98635E+03  2.14421E+03  6.11883E+03 -1.20480E+03  5.91571E+03
 -3.48102E+03  3.63065E+03 -2.97902E+03  1.20053E+03 -1.75003E+03  9.68368E+02 -2.36382E+03  2.38947E+03
 -2.79401E+03  4.67266E+03 -7.92602E+03  4.38068E+03 -1.26233E+04  2.38376E+02 -1.36181E+04 -8.23305E+03
 -7.42546E+03 -1.65348E+04  3.67549E+03 -1.84295E+04  1.21285E+04 -1.49119E+04  1.78227E+04 -5.48550E+03
  1.70201E+04  3.24179E+03  1.03782E+04  1.12661E+04  1.14467E+03  1.32626E+04 -5.00174E+03  9.77918E+03
 -7.21148E+03  3.18658E+03 -4.94268E+03 -1.20402E+03 -1.38317E+03 -1.54761E+03 -6.47838E+02  4.34625E+01
 -1.82763E+03  5.94191E+02 -2.57026E+03 -2.25542E+02 -1.18954E+03 -2.60952E+03  7.54837E+02 -4.62862E+03
  5.53492E+03 -3.79351E+03  7.54293E+03  5.18491E+00  9.69206E+03  6.85825E+03  2.52855E+03  1.33086E+04
 -6.14533E+03  1.47026E+04 -1.37483E+04  8.41801E+03 -1.64154E+04 -1.81393E+03 -1.21670E+04 -9.58626E+03
 -5.25813E+03 -1.32174E+04  3.40321E+03 -1.21004E+04  8.16490E+03 -6.91909E+03  8.63590E+03  3.54315E+02
  4.49196E+03  4.30054E+03 -6.25686E+02  3.79840E+03 -2.73062E+03 -2.76070E+02  1.49748E+02 -3.00723E+03
  4.10991E+03 -2.07172E+03  5.52529E+03  1.72279E+03  3.25734E+03  5.23556E+03 -3.31294E+02  6.99555E+03
 -6.08028E+03  6.16189E+03 -9.31489E+03  4.73045E+02 -7.53888E+03 -6.33915E+03 -9.38131E+02 -1.07723E+04
  6.27683E+03 -9.65155E+03  1.04470E+04 -3.17702E+03  1.01484E+04  2.84093E+03  5.92010E+03  8.45568E+03
  1.33577E+03  8.80272E+03 -3.55999E+03  6.94303E+03 -5.59826E+03  4.37635E+03 -4.53662E+03 -5.25775E+00
 -2.64520E+03 -2.25633E+02 -2.34331E+03  1.26769E+03 -5.08504E+03  1.92914E+03 -6.52943E+03 -1.22127E+03
 -6.80716E+03 -4.75090E+03 -1.63594E+03 -9.05323E+03  4.27231E+03 -9.28162E+03  8.13955E+03 -4.35275E+03
  9.20930E+03  1.20522E+03  5.61566E+03  6.41510E+03 -4.54631E+02  9.01795E+03 -7.05928E+03  5.86092E+03
