 $NMID ID='MM_0lb_SNR800_16hz_g50_77.RAW', FMTDAT='(8E13.5)'
 TRAMP=1., VOLUME=1. $END
  3.09806E+05  6.50151E+02  3.37697E+05  2.50403E+05  8.46781E+04  3.37786E+05 -1.32541E+05  2.50754E+05
 -1.89950E+05  8.24510E+04 -1.11735E+05 -3.26815E+04  1.01119E+03 -5.03136E+04  5.38743E+04  4.42463E+01
  3.51816E+04  5.30194E+04 -1.67081E+04  7.52857E+04 -6.09480E+04  6.35357E+04 -8.35887E+04  3.18819E+04
 -8.02456E+04 -1.11891E+04 -5.67780E+04 -5.10391E+04 -1.50026E+04 -6.89154E+04  2.70012E+04 -4.54506E+04
  3.98333E+04  3.64394E+03  1.59035E+04  4.74474E+04 -3.41361E+04  4.70683E+04 -6.64045E+04 -3.45567E+02
 -5.31262E+04 -5.64944E+04 -6.78415E+03 -7.62888E+04  3.35298E+04 -5.42639E+04  4.72432E+04 -1.68463E+04
  4.28288E+04  1.14630E+04  3.12420E+04  2.51910E+04  1.57762E+04  2.88739E+04 -5.00001E+03  2.70582E+04
 -2.21823E+04  1.25693E+04 -1.90871E+04 -4.73373E+03  5.11036E+03 -7.50949E+03  2.18527E+04  1.20752E+04
  7.28682E+03  3.46213E+04 -3.13927E+04  3.49229E+04 -6.24811E+04  2.26698E+03 -5.63365E+04 -4.23445E+04
 -1.22770E+04 -6.21702E+04  3.93459E+04 -4.47922E+04  5.73928E+04 -2.19854E+03  3.30756E+04  3.15831E+04
 -6.06144E+03  3.49828E+04 -2.92989E+04  1.51298E+04 -2.93438E+04 -4.79947E+03 -1.56384E+04 -1.03720E+04
 -7.83258E+03 -1.24821E+04 -4.74842E+02 -1.75288E+04  7.32120E+03 -2.26839E+04  1.51399E+04 -1.33269E+04
  1.16928E+04  4.80732E+03 -7.58729E+03  1.28481E+04 -2.08114E+04 -3.82366E+03 -8.23823E+03 -3.22917E+04
  2.21756E+04 -4.22330E+04  4.70157E+04 -1.92452E+04  4.39958E+04  1.88570E+04  1.50329E+04  4.34721E+04
 -1.57544E+04  3.25981E+04 -2.47073E+04  1.43981E+03 -9.31918E+03 -2.72171E+04  2.08610E+04 -3.26944E+04
  4.01775E+04 -8.32283E+03  3.38476E+04  2.36332E+04  1.73313E+04  4.49460E+04 -7.75602E+03  4.82884E+04
 -3.05734E+04  3.21328E+04 -4.01483E+04  8.98655E+03 -4.11521E+04 -1.58398E+04 -2.25320E+04 -3.66155E+04
  7.31679E+03 -3.65007E+04  3.01530E+04 -1.40839E+04  2.83241E+04  1.07663E+04  3.45736E+03  1.86662E+04
 -1.31466E+04  8.06010E+03 -1.00311E+04 -7.39565E+03  5.67251E+03 -1.05975E+04  1.75255E+04  6.13519E+03
  1.31519E+04  2.18708E+04 -6.31658E+03  2.42366E+04 -2.19312E+04  1.07031E+04 -2.68898E+04 -5.48593E+03
 -1.91613E+04 -1.73779E+04 -7.42734E+03 -1.89081E+04  3.81052E+03 -1.77304E+04  1.48159E+04 -1.67921E+04
  2.41946E+04 -1.23424E+04  3.08792E+04  1.88660E+03  2.30171E+04  1.87291E+04  4.20499E+03  3.46992E+04
 -1.71169E+04  2.95143E+04 -2.70289E+04  9.86946E+03 -2.02035E+04 -1.02892E+04 -4.13126E+03 -1.36796E+04
  2.18691E+03 -3.35452E+03 -3.88370E+03  6.39201E+03 -1.51022E+04  4.95358E+03 -1.51286E+04 -6.51895E+03
 -9.43959E+03 -1.76912E+04  5.02304E+03 -2.15238E+04  1.44166E+04 -1.55794E+04  1.67856E+04 -1.82666E+03
  1.03782E+04  1.20336E+04 -1.02374E+03  1.77790E+04 -1.19252E+04  9.87343E+03 -1.73669E+04 -3.77801E+03
 -1.27319E+04 -1.58387E+04 -1.32821E+03 -2.12060E+04  9.82336E+03 -1.75085E+04  1.80992E+04 -8.60628E+03
  1.64633E+04  3.60704E+02  1.17061E+04  4.43312E+03  6.29163E+03  6.67737E+02  8.89894E+03 -1.46584E+03
  1.58109E+04  2.68282E+03  1.74671E+04  1.42581E+04  1.10332E+04  2.81763E+04 -2.78333E+03  3.10096E+04
 -1.80056E+04  2.42947E+04 -2.87471E+04  1.18807E+04 -2.98174E+04 -2.00363E+03 -2.51858E+04 -1.73519E+04
 -1.10104E+04 -2.45342E+04  8.00656E+03 -2.25241E+04  1.95032E+04 -1.18793E+04  1.79393E+04  4.67356E+03
  6.87813E+03  1.30668E+04 -8.31154E+03  1.17815E+04 -1.51347E+04  2.36816E+03 -1.15132E+04 -9.23356E+03
 -7.88002E+01 -1.39641E+04  7.29791E+03 -1.06096E+04  9.15929E+03 -1.36943E+03  1.88221E+03  5.86086E+03
 -6.37127E+03  2.15005E+03 -4.90016E+03 -5.47676E+03 -4.80826E+01 -1.21690E+04  8.81932E+03 -1.26256E+04
  1.48508E+04 -6.32980E+03  1.54283E+04  2.82669E+03  1.31577E+04  1.14828E+04  6.40192E+03  1.76135E+04
 -2.52432E+03  1.93460E+04 -1.21406E+04  1.20130E+04 -1.37775E+04  3.30788E+03 -9.65421E+03 -2.79436E+03
 -5.03378E+03 -4.49020E+03 -9.35951E+02  1.21367E+03 -2.15108E+03  2.51298E+03 -4.70341E+03  3.88194E+03
 -9.23800E+03 -2.42791E+02 -1.03406E+04 -8.44403E+03 -4.18826E+03 -1.34128E+04  4.25394E+03 -1.03308E+04
  8.41393E+03 -4.33768E+03  6.11888E+03  2.59367E+03  1.61991E+02  3.73447E+03 -4.58941E+03 -2.38547E+02
 -4.51892E+03 -6.34204E+03 -6.36587E+02 -9.08886E+03  5.13781E+03 -9.57386E+03  1.23682E+04 -4.75513E+03
  1.41778E+04  9.73731E+02  1.08124E+04  7.86911E+03  1.89192E+03  1.10318E+04 -6.09073E+03  1.00894E+04
 -8.08164E+03  3.29113E+03 -4.02965E+03 -1.75554E+03  1.67568E+03 -2.38617E+03  5.49093E+03 -1.11190E+03
  4.64012E+03  4.13019E+03  1.06547E+03  7.75973E+03 -5.58785E+03  7.95562E+03 -9.43209E+03  1.84689E+03
 -5.97379E+03 -4.53327E+03  1.56635E+02 -8.31122E+03  4.81309E+03 -4.00348E+03  4.63539E+03  1.95662E+03
  7.75685E+02  4.85067E+03 -4.49708E+03  5.84475E+03 -6.65403E+03  3.04487E+03 -6.60462E+03 -1.81537E+03
 -3.84725E+03 -8.39882E+03  1.82118E+03 -9.14423E+03  8.01420E+03 -5.88449E+03  8.68828E+03  1.77734E+03
  5.66420E+03  7.13917E+03 -2.75422E+02  8.97723E+03 -6.08542E+03  5.01020E+03 -6.52148E+03 -5.15846E+02
 -6.66642E+03 -6.21249E+03 -1.28308E+03 -6.46128E+03  3.06395E+03 -5.76383E+03  4.07243E+03 -2.83416E+03
  3.24803E+03  6.09747E+02 -4.20222E+02  1.34485E+03  3.91641E+02 -7.11999E+02  5.46058E+02 -3.18505E+03
  5.37284E+03 -1.47857E+03  7.17223E+03  1.27586E+03  7.21943E+03  4.71893E+03  6.21417E+03  9.92430E+03
 -1.83074E+03  1.18463E+04 -9.91210E+03  8.77867E+03 -1.28966E+04  1.86080E+03 -1.02910E+04 -3.80377E+03
 -5.48091E+03 -8.57106E+03 -6.35303E+02 -7.10656E+03  2.73109E+03 -3.22030E+03  2.21595E+03 -2.69530E+03
  1.48641E+03 -1.72790E+03  2.34756E+03 -2.60008E+03  3.86060E+03 -1.72393E+03  4.30844E+03  2.82186E+01
  5.73239E+03  1.42401E+03  1.75366E+03  4.42755E+03 -1.72696E+03  4.41298E+03 -5.53638E+03  3.82432E+03
 -6.94847E+03 -1.15703E+03 -3.12812E+03 -4.66958E+03  1.15177E+02 -6.69635E+03  4.00960E+03 -7.20606E+03
  7.11665E+03 -4.35975E+03  9.08240E+03  6.04299E+02  6.56001E+03  5.67311E+03  1.31165E+03  7.88469E+03
 -3.16439E+03  7.36148E+03 -4.74189E+03  2.15964E+03 -2.70441E+03 -1.23218E+03 -8.29736E+02 -9.89892E+02
 -6.30135E+02  1.27619E+02 -1.17097E+03  2.01849E+03 -3.25668E+03  9.90514E+02 -4.87864E+03 -4.87952E+02
 -2.58616E+03 -5.16688E+03  4.80804E+02 -6.36913E+03  3.45691E+03 -5.96566E+03  5.57045E+03 -1.76831E+03
  5.86272E+03  3.41743E+03  2.81758E+03  4.88296E+03 -1.21405E+03  6.36627E+03 -4.21985E+03  3.77674E+03
 -5.48540E+03  6.00108E+02 -4.47200E+03 -3.89212E+03 -1.63414E+02 -4.70782E+03  2.40065E+03 -3.47005E+03
  3.71060E+03 -1.74060E+03  2.62201E+03  9.24344E+02  7.50026E+02  2.22673E+03  1.05909E+03  4.98808E+02
  1.81592E+03  7.41671E+02  1.70749E+03  1.27482E+03  1.57582E+03  2.84948E+03  1.85829E+03  2.60385E+03
 -1.62704E+03  4.60315E+03 -3.87501E+03  5.39012E+03 -5.11957E+03  1.14072E+03 -5.94120E+03 -1.27828E+03
 -2.77566E+03 -5.54583E+03  9.91241E+02 -6.36877E+03  2.60989E+03 -3.87491E+03  4.44277E+03 -1.48117E+03
  3.56773E+03  2.53232E+03  6.45012E+02  3.05941E+03 -1.21812E+03  1.72148E+03 -1.76480E+03 -3.16444E+02
 -1.15967E+03 -2.29221E+03  1.82359E+03 -2.60373E+03  2.23390E+03 -1.26721E+03  2.48365E+03  5.86586E+02
  1.18652E+03  7.17428E+02  9.37377E+02  2.93897E+02 -2.45964E+02  8.70164E+02  1.46181E+03 -2.77178E+02
  5.19865E+02 -3.82333E+02  2.49784E+03  7.20362E+02  8.93861E+02  2.94544E+03 -3.37283E+02  3.73304E+03
 -2.57580E+03  1.71743E+03 -3.17453E+03  5.72575E+02 -3.23563E+03 -9.11806E+02 -5.95319E+02 -1.65083E+03
  5.27861E+02 -1.84150E+03  1.36162E+03 -9.05030E+02  1.38313E+03  1.49129E+03 -6.83360E+02  1.91372E+03
 -2.38491E+03  1.16095E+03 -1.75923E+03 -1.77974E+03 -1.14545E+03 -2.94347E+03  2.78901E+02 -2.67022E+03
  1.05798E+03 -1.23675E+03  1.61631E+03 -2.38031E+00  1.81960E+03  1.73627E+02  4.05474E+02  1.60587E+03
 -1.04546E+03  3.50634E+02 -1.25700E+03 -4.56638E+02  6.47104E+02 -1.48645E+03  2.41402E+03 -1.42813E+03
  2.32155E+03  4.15583E+02  3.82921E+03  1.80149E+03  1.41533E+03  2.90199E+03 -8.77241E+02  2.75473E+03
 -2.29715E+03  5.95642E+02 -2.61341E+03 -2.35300E+02 -1.26673E+03 -1.81234E+03  1.34300E+02 -1.58054E+03
  1.94092E+03 -9.89109E+02  1.41151E+03  7.64161E+02  2.72380E+02  1.68648E+03 -2.55725E+02  1.39210E+03
 -7.28894E+02  1.09400E+03 -6.69151E+02  4.56849E+02  1.39517E+02  6.95151E+02 -8.28755E+02  7.36789E+02
 -8.97839E+02  1.35185E+03 -2.43176E+03  8.46180E+02 -2.84981E+03 -1.14500E+02 -3.78830E+03 -1.69717E+03
 -1.51407E+03 -3.64719E+03  1.06569E+03 -4.24746E+03  2.14783E+03 -3.62886E+03  4.18171E+03 -1.67892E+03
  3.85585E+03  3.09817E+02  2.28668E+03  2.39461E+03 -2.70253E+02  2.44738E+03 -1.21305E+03  1.90125E+03
 -1.81460E+03  1.16835E+03 -8.13954E+02 -2.53331E+02 -6.49053E+02  8.04171E+01 -4.35280E+02  1.32508E+02
 -1.34357E+03 -4.57893E+01 -1.13447E+03  1.32869E+01  8.95475E+01 -7.86733E+02 -3.35168E+02 -1.25733E+03
  1.88393E+03 -6.66550E+02  1.32091E+03  1.94675E+02  2.04472E+03  1.52687E+03  1.12685E+02  2.71185E+03
 -1.34559E+03  3.25290E+03 -2.78770E+03  1.72122E+03 -3.02335E+03 -2.53455E+02 -2.37484E+03 -2.04940E+03
 -1.29605E+03 -2.75225E+03  6.90584E+02 -2.33837E+03  1.35474E+03 -1.32770E+03  1.22755E+03  3.70412E+02
  9.78711E+02  6.57047E+02  1.73263E+02  8.72077E+02 -6.78645E+02 -1.85326E+01 -2.65251E+02 -6.77325E+02
  9.47976E+02 -2.12798E+02  6.29124E+02  6.23084E+02  3.27253E+02  1.00234E+03  3.91160E+02  8.23243E+02
 -1.13121E+03  9.57655E+02 -1.04584E+03 -1.74469E+01 -1.67782E+03 -8.06680E+02  7.15003E+01 -1.95998E+03
  1.12870E+03 -1.40560E+03  1.60569E+03 -6.21905E+01  1.87133E+03 -2.70485E+02  1.16327E+03  1.48583E+03
  5.05723E+02  1.22098E+03 -7.05235E+02  1.00878E+03 -1.23564E+03  6.04300E+02 -7.66593E+02  3.47605E+02
 -4.54944E+02 -4.66632E+01 -5.66090E+02  3.60569E+02 -1.07484E+03  3.73106E+02 -1.34471E+03 -2.77999E+02
 -1.37164E+03 -2.08952E+02 -4.89140E+02 -1.52317E+03  1.00501E+03 -2.05134E+03  1.37085E+03 -6.18567E+02
  1.04121E+03  1.87361E+02  1.42421E+02  5.86629E+02 -3.44517E+02  1.33820E+03 -7.11666E+02  1.02528E+03
