 $NMID ID='MM_0lb_SNR800_19hz_g60_59.RAW', FMTDAT='(8E13.5)'
 TRAMP=1., VOLUME=1. $END
  3.09470E+05  4.42588E+02  3.37626E+05  2.50701E+05  8.46918E+04  3.37873E+05 -1.32589E+05  2.50856E+05
 -1.89942E+05  8.28389E+04 -1.11153E+05 -3.25076E+04  9.38462E+02 -5.03258E+04  5.38677E+04 -3.68504E+02
  3.51941E+04  5.29011E+04 -1.67209E+04  7.54551E+04 -6.07860E+04  6.32123E+04 -8.37369E+04  3.19461E+04
 -8.02672E+04 -1.14800E+04 -5.70050E+04 -5.06757E+04 -1.52208E+04 -6.88781E+04  2.71333E+04 -4.54932E+04
  3.98434E+04  3.75758E+03  1.58609E+04  4.75722E+04 -3.42840E+04  4.67719E+04 -6.58769E+04 -4.93410E+02
 -5.28808E+04 -5.65595E+04 -6.76056E+03 -7.62267E+04  3.34186E+04 -5.43744E+04  4.69560E+04 -1.69143E+04
  4.27072E+04  1.10620E+04  3.11033E+04  2.49146E+04  1.55966E+04  2.91490E+04 -5.13375E+03  2.70343E+04
 -2.18583E+04  1.26240E+04 -1.88080E+04 -4.80067E+03  5.21125E+03 -7.56330E+03  2.18152E+04  1.19222E+04
  7.23114E+03  3.42687E+04 -3.11289E+04  3.48408E+04 -6.21490E+04  2.25098E+03 -5.57822E+04 -4.19165E+04
 -1.24667E+04 -6.20502E+04  3.89025E+04 -4.43996E+04  5.66977E+04 -1.91800E+03  3.32918E+04  3.13487E+04
 -6.23314E+03  3.44621E+04 -2.93529E+04  1.46230E+04 -2.91196E+04 -4.71313E+03 -1.55838E+04 -1.05870E+04
 -7.93563E+03 -1.21203E+04 -8.00600E+02 -1.73708E+04  7.14124E+03 -2.27897E+04  1.53068E+04 -1.37791E+04
  1.20390E+04  4.92506E+03 -7.17063E+03  1.29464E+04 -2.03802E+04 -3.33207E+03 -7.98854E+03 -3.18539E+04
  2.17837E+04 -4.18864E+04  4.62200E+04 -1.92134E+04  4.29965E+04  1.89054E+04  1.47094E+04  4.28153E+04
 -1.55188E+04  3.19399E+04 -2.45876E+04  1.56153E+03 -9.02543E+03 -2.72233E+04  2.06162E+04 -3.22870E+04
  3.95709E+04 -8.18730E+03  3.33341E+04  2.31323E+04  1.64059E+04  4.41886E+04 -7.82314E+03  4.72245E+04
 -3.01262E+04  3.15851E+04 -3.89471E+04  8.90446E+03 -4.00708E+04 -1.56688E+04 -2.20225E+04 -3.55957E+04
  6.88547E+03 -3.54443E+04  3.04468E+04 -1.32601E+04  2.78887E+04  1.06911E+04  3.49083E+03  1.82200E+04
 -1.33267E+04  7.38414E+03 -9.83127E+03 -7.77781E+03  6.04401E+03 -1.03141E+04  1.72788E+04  6.37341E+03
  1.27643E+04  2.17562E+04 -6.47119E+03  2.37469E+04 -2.18527E+04  9.98509E+03 -2.62734E+04 -6.00030E+03
 -1.83814E+04 -1.66274E+04 -6.48376E+03 -1.81726E+04  3.99874E+03 -1.63730E+04  1.34979E+04 -1.56130E+04
  2.32329E+04 -1.22308E+04  2.94078E+04  1.55654E+03  2.19600E+04  1.74430E+04  3.94833E+03  3.39949E+04
 -1.67362E+04  2.83657E+04 -2.65980E+04  9.87409E+03 -1.99440E+04 -1.03292E+04 -4.34863E+03 -1.35247E+04
  2.25445E+03 -3.77502E+03 -3.48019E+03  5.60340E+03 -1.38586E+04  5.04356E+03 -1.43604E+04 -5.53166E+03
 -9.27274E+03 -1.66945E+04  4.43113E+03 -2.05634E+04  1.32321E+04 -1.47758E+04  1.55646E+04 -1.51238E+03
  9.26680E+03  1.15264E+04 -9.99523E+02  1.67033E+04 -1.10706E+04  9.06630E+03 -1.65471E+04 -3.41915E+03
 -1.22430E+04 -1.49286E+04 -1.48876E+03 -1.99828E+04  9.24996E+03 -1.62395E+04  1.68764E+04 -7.96335E+03
  1.55376E+04  6.10307E+02  1.12121E+04  3.90871E+03  5.63921E+03  5.35156E+02  8.24896E+03 -1.24645E+03
  1.48154E+04  2.49525E+03  1.60508E+04  1.31021E+04  1.00609E+04  2.62934E+04 -2.97376E+03  2.83486E+04
 -1.69631E+04  2.20288E+04 -2.65578E+04  1.04780E+04 -2.68925E+04 -1.76539E+03 -2.29668E+04 -1.53140E+04
 -1.03276E+04 -2.22621E+04  7.32956E+03 -2.02658E+04  1.75464E+04 -1.11456E+04  1.64068E+04  3.97943E+03
  6.73263E+03  1.19600E+04 -7.83364E+03  1.10961E+04 -1.39716E+04  2.54848E+03 -1.06545E+04 -8.35314E+03
 -1.07676E+02 -1.31937E+04  6.22009E+03 -1.00479E+04  8.15684E+03 -1.32464E+03  1.60670E+03  5.11397E+03
 -5.81839E+03  1.71212E+03 -4.34285E+03 -4.85452E+03  4.68874E+02 -1.11143E+04  8.01763E+03 -1.07520E+04
  1.33235E+04 -4.91129E+03  1.28529E+04  2.80066E+03  1.12504E+04  1.04275E+04  5.49022E+03  1.54331E+04
 -2.02267E+03  1.69902E+04 -1.02788E+04  1.05970E+04 -1.22306E+04  3.07678E+03 -8.92569E+03 -2.25496E+03
 -4.65773E+03 -3.65203E+03 -9.02863E+02  1.69081E+03 -2.03223E+03  2.06268E+03 -3.75049E+03  3.84094E+03
 -8.52553E+03 -3.77347E+02 -8.95391E+03 -7.55319E+03 -3.75750E+03 -1.20967E+04  3.62041E+03 -8.77972E+03
  7.57385E+03 -4.03604E+03  5.64514E+03  2.07750E+03  5.30818E+02  3.06149E+03 -3.56914E+03 -5.98837E+01
 -3.47266E+03 -5.27600E+03 -7.80800E+02 -7.61414E+03  4.30148E+03 -8.51662E+03  1.05603E+04 -4.01652E+03
  1.22364E+04  9.58806E+02  9.27048E+03  6.62797E+03  1.72425E+03  9.20406E+03 -5.42813E+03  8.54618E+03
 -7.35115E+03  2.63021E+03 -3.47625E+03 -1.35063E+03  1.29835E+03 -1.92815E+03  4.67291E+03 -1.18444E+03
  4.57118E+03  3.45717E+03  1.15309E+03  6.52724E+03 -4.85197E+03  6.72912E+03 -8.24213E+03  1.76686E+03
 -5.18270E+03 -3.70711E+03  4.15364E+02 -6.94160E+03  3.73318E+03 -3.44073E+03  3.81164E+03  1.35277E+03
  6.85514E+02  3.81364E+03 -4.06449E+03  5.01088E+03 -5.20771E+03  2.30541E+03 -4.93786E+03 -1.30072E+03
 -2.90976E+03 -6.31256E+03  1.42405E+03 -7.05501E+03  6.03845E+03 -4.92077E+03  6.72278E+03  1.07335E+03
  4.80596E+03  5.61616E+03  3.02018E+02  7.45266E+03 -5.15718E+03  4.57320E+03 -5.18325E+03 -3.74985E+02
 -5.64953E+03 -5.09033E+03 -1.22727E+03 -5.54621E+03  2.75620E+03 -4.80339E+03  3.01630E+03 -3.08911E+03
  2.96874E+03  1.60046E+02  5.50514E+01  1.08291E+03  5.41702E+02 -2.13536E+02 -9.64683E+01 -2.12968E+03
  3.86736E+03 -7.14412E+02  5.29006E+03  7.96172E+02  5.81228E+03  3.33380E+03  5.17753E+03  7.25492E+03
 -1.00240E+03  8.61718E+03 -7.83708E+03  6.72011E+03 -9.65517E+03  1.39231E+03 -8.18252E+03 -2.78872E+03
 -4.13391E+03 -6.62559E+03 -6.15021E+02 -5.29556E+03  1.76810E+03 -2.32381E+03  1.68272E+03 -2.12527E+03
  1.24807E+03 -1.52733E+03  2.23099E+03 -2.54487E+03  3.54822E+03 -1.39982E+03  3.68932E+03  4.04052E+02
  4.40695E+03  1.35996E+03  1.25652E+03  3.42866E+03 -1.47862E+03  2.87610E+03 -4.51016E+03  2.55588E+03
 -4.73424E+03 -1.06328E+03 -1.91397E+03 -3.27622E+03  5.56670E+02 -4.75174E+03  3.10909E+03 -5.34545E+03
  5.25521E+03 -3.15696E+03  6.61490E+03  3.26479E+02  4.73204E+03  4.16440E+03  1.28927E+03  6.08572E+03
 -2.05051E+03  5.81843E+03 -3.31367E+03  1.89334E+03 -1.95857E+03 -1.21158E+03 -7.54813E+02 -6.73058E+02
 -4.54833E+02  2.46058E+02 -9.51153E+02  1.70348E+03 -2.71261E+03  1.01277E+03 -4.08166E+03 -2.81690E+02
 -1.89529E+03 -3.87247E+03  1.01725E+03 -4.76943E+03  2.75054E+03 -4.39607E+03  3.59420E+03 -8.41992E+02
  3.68502E+03  2.40711E+03  1.56790E+03  3.42996E+03 -6.31447E+02  4.26143E+03 -2.27759E+03  2.64166E+03
 -3.88289E+03  7.20545E+02 -3.24856E+03 -2.31228E+03 -1.04496E+02 -2.97676E+03  1.64333E+03 -2.55516E+03
  2.60238E+03 -1.18241E+03  1.60501E+03  5.66030E+02  6.01694E+02  1.59022E+03  1.01128E+03  6.26916E+02
  1.60968E+03  4.25343E+02  1.26540E+03  8.70516E+02  1.15965E+03  2.15227E+03  1.33293E+03  1.72315E+03
 -1.34090E+03  2.65149E+03 -2.56930E+03  3.97241E+03 -2.95588E+03  1.18458E+03 -4.05120E+03 -4.61266E+02
 -1.55223E+03 -3.26678E+03  6.61601E+02 -4.44793E+03  1.85744E+03 -2.48616E+03  3.14774E+03 -9.00979E+02
  2.16002E+03  1.69002E+03  3.40775E+02  2.14356E+03 -7.40183E+02  1.19312E+03 -1.00616E+03  1.88270E+02
 -6.18600E+02 -1.63306E+03  1.16688E+03 -1.43772E+03  1.12979E+03 -8.78554E+02  1.01498E+03  4.54507E+02
  6.09898E+02  1.04207E+02  8.86851E+02 -2.21312E+02 -3.29264E+02  7.13523E+02  1.14619E+03 -1.61810E+02
 -5.24648E+01 -2.27353E+02  1.70143E+03  5.51972E+02  2.81681E+02  2.43888E+03 -2.98544E+02  2.42301E+03
 -1.70973E+03  7.17816E+02 -2.04595E+03  3.80430E+01 -2.00398E+03 -6.79285E+02  2.30847E+02 -7.59516E+02
  4.05769E+02 -1.29984E+03  7.57073E+02 -6.77800E+02  5.52064E+02  1.10847E+03 -9.51617E+02  7.51244E+02
 -1.44753E+03  6.13776E+02 -1.03305E+03 -1.25689E+03 -4.47149E+02 -2.14905E+03  6.92991E+01 -1.15948E+03
  3.02116E+02 -7.54087E+02  3.34850E+02  3.40044E+02  1.26122E+03 -2.28741E+02  5.80076E+02  1.00513E+03
 -2.47926E+02  3.74878E+01 -6.68148E+02 -4.63752E+02  7.06336E+02 -6.12826E+02  1.47292E+03 -8.30423E+02
  9.69672E+02  3.03267E+02  2.48995E+03  3.19698E+02  1.22558E+03  1.15963E+03 -2.56163E+02  1.70736E+03
 -1.07953E+03  3.26164E+01 -1.30713E+03 -1.20702E+02 -4.82262E+02 -1.25030E+03  2.17740E+02 -3.06394E+02
  1.26292E+03 -6.05597E+02  7.47431E+02  5.33168E+02  2.04205E+02  1.02284E+03  1.52826E+02  9.41719E+02
 -4.23394E+02  9.48686E+02 -4.82428E+02  1.63378E+02  1.36679E+01  3.92987E+02 -5.34388E+02  3.77939E+02
 -5.64150E+02  8.03585E+02 -1.70662E+03  2.48297E+02 -1.53174E+03  2.34205E+02 -1.99661E+03 -7.17142E+02
 -6.92593E+02 -1.93712E+03  5.36733E+02 -2.14427E+03  7.44573E+02 -1.90378E+03  2.65057E+03 -8.01113E+02
  1.82737E+03 -3.79443E+02  1.08665E+03  1.06292E+03 -7.02584E+02  1.19803E+03 -8.17647E+02  1.12622E+03
 -8.20016E+02  7.00445E+02 -2.58874E+02 -1.56572E+02 -4.75111E+02  1.75213E+02 -7.31046E+02  9.55007E+01
 -1.35901E+03 -1.54050E+02 -8.61213E+02  2.20148E+02  5.04743E+02 -5.43583E+02 -6.17943E+02 -7.83423E+02
  9.71144E+02 -6.61468E+02  3.85190E+02  2.88240E+01  8.75531E+02  8.51914E+02 -4.76749E+02  1.11220E+03
 -4.62653E+02  1.86292E+03 -1.35889E+03  9.83669E+02 -1.45846E+03 -2.14180E+02 -1.05025E+03 -1.11458E+03
 -7.62405E+02 -1.09827E+03  1.66577E+02 -8.07760E+02  3.49113E+02 -1.91049E+02  6.13276E+02  3.94927E+02
  8.96227E+02 -1.88591E+01  8.62907E+01  2.49146E+02 -1.45372E+02  2.86256E+02 -4.19486E+02 -2.90378E+02
  5.77125E+02  6.73832E+02 -2.45799E+01  6.53147E+02 -1.17422E+02  4.93449E+02  6.19743E+02  1.18476E+02
 -4.58377E+02  4.23305E+02 -3.18438E+02  1.96016E+02 -5.18465E+02 -2.61411E+02  1.35177E+02 -8.45851E+02
  5.00562E+02 -4.84200E+02  3.47292E+02 -3.98083E+02  7.38482E+02 -8.09103E+02  2.56215E+02  6.65069E+02
  5.17756E+02  6.09804E+02 -5.86414E+01  2.66802E+02 -2.27445E+02  4.02420E+02 -2.75032E+02  2.57084E+01
 -1.70879E+02  8.96593E+01 -7.53265E+02 -4.92255E+01 -4.34832E+02  1.85275E+02 -6.79389E+02  7.68158E+01
 -7.85413E+02  3.68407E+02 -2.61639E+02 -7.65111E+02  6.53348E+02 -1.27761E+03  7.31294E+02 -9.76495E+01
  3.11803E+02 -1.82645E+02 -5.39075E+02  1.72764E+02 -1.32904E+02  5.70642E+02 -2.07654E+02  6.16077E+02
