 $NMID ID='MM_0lb_SNR800_17hz_g50_11.RAW', FMTDAT='(8E13.5)'
 TRAMP=1., VOLUME=1. $END
  3.09934E+05  3.31771E+02  3.37646E+05  2.50373E+05  8.43223E+04  3.37637E+05 -1.32140E+05  2.50507E+05
 -1.89812E+05  8.27770E+04 -1.11124E+05 -3.26677E+04  1.03573E+03 -5.04918E+04  5.41001E+04  1.94026E+01
  3.51356E+04  5.26970E+04 -1.70402E+04  7.51213E+04 -6.06085E+04  6.31699E+04 -8.35440E+04  3.19211E+04
 -8.05107E+04 -1.11713E+04 -5.69173E+04 -5.05556E+04 -1.50587E+04 -6.88594E+04  2.72667E+04 -4.52255E+04
  3.96583E+04  3.84628E+03  1.54258E+04  4.72206E+04 -3.41274E+04  4.66150E+04 -6.58571E+04 -3.04342E+02
 -5.24418E+04 -5.62694E+04 -6.38182E+03 -7.62170E+04  3.35877E+04 -5.43768E+04  4.71836E+04 -1.67852E+04
  4.23546E+04  1.08967E+04  3.14513E+04  2.47941E+04  1.58044E+04  2.88369E+04 -4.83548E+03  2.68080E+04
 -2.18891E+04  1.26933E+04 -1.87918E+04 -4.63715E+03  4.81267E+03 -7.86419E+03  2.17794E+04  1.15133E+04
  7.61944E+03  3.38594E+04 -3.12223E+04  3.48058E+04 -6.19981E+04  2.10730E+03 -5.60946E+04 -4.19396E+04
 -1.24523E+04 -6.20509E+04  3.89482E+04 -4.41739E+04  5.66474E+04 -2.29132E+03  3.28545E+04  3.14508E+04
 -6.38485E+03  3.41406E+04 -2.89960E+04  1.43930E+04 -2.86883E+04 -5.11654E+03 -1.53688E+04 -1.04056E+04
 -7.93947E+03 -1.20962E+04 -6.99057E+02 -1.72517E+04  7.15217E+03 -2.27228E+04  1.52990E+04 -1.37752E+04
  1.19372E+04  4.63430E+03 -7.11892E+03  1.31344E+04 -1.98577E+04 -3.53941E+03 -7.99417E+03 -3.19510E+04
  2.14948E+04 -4.15250E+04  4.61482E+04 -1.92285E+04  4.32679E+04  1.89838E+04  1.47882E+04  4.25469E+04
 -1.56484E+04  3.21632E+04 -2.46804E+04  1.39863E+03 -9.01901E+03 -2.71258E+04  2.04508E+04 -3.22017E+04
  3.90810E+04 -8.11236E+03  3.29556E+04  2.30549E+04  1.66678E+04  4.42088E+04 -7.89119E+03  4.73979E+04
 -2.97158E+04  3.12047E+04 -3.90722E+04  8.60408E+03 -3.98845E+04 -1.55724E+04 -2.22189E+04 -3.58539E+04
  7.01214E+03 -3.59045E+04  3.02341E+04 -1.37768E+04  2.77383E+04  1.09786E+04  3.40293E+03  1.86288E+04
 -1.33100E+04  7.58265E+03 -9.93727E+03 -7.84323E+03  5.73367E+03 -1.06703E+04  1.73051E+04  6.19758E+03
  1.28491E+04  2.17935E+04 -6.66581E+03  2.41847E+04 -2.19083E+04  1.02610E+04 -2.62649E+04 -5.55222E+03
 -1.84802E+04 -1.67291E+04 -6.71159E+03 -1.82579E+04  3.90905E+03 -1.67661E+04  1.36882E+04 -1.58897E+04
  2.31399E+04 -1.19526E+04  2.99816E+04  1.97706E+03  2.25137E+04  1.78559E+04  4.09831E+03  3.38642E+04
 -1.62938E+04  2.86811E+04 -2.67987E+04  9.83918E+03 -2.02396E+04 -1.02523E+04 -4.50009E+03 -1.34699E+04
  2.23618E+03 -3.37968E+03 -3.43630E+03  6.00485E+03 -1.44768E+04  5.30500E+03 -1.46584E+04 -5.75718E+03
 -9.37387E+03 -1.67666E+04  4.74542E+03 -2.07722E+04  1.37083E+04 -1.50171E+04  1.59142E+04 -1.35376E+03
  9.95703E+03  1.18150E+04 -1.08995E+03  1.73213E+04 -1.13518E+04  9.43503E+03 -1.68690E+04 -3.47059E+03
 -1.22253E+04 -1.53447E+04 -1.64382E+03 -2.05312E+04  9.32469E+03 -1.65316E+04  1.70546E+04 -8.16433E+03
  1.54756E+04  4.24287E+02  1.12973E+04  4.08788E+03  5.72239E+03  6.59331E+02  8.60931E+03 -1.85495E+03
  1.53762E+04  2.63404E+03  1.63972E+04  1.36756E+04  1.04605E+04  2.69132E+04 -3.28360E+03  2.93158E+04
 -1.73551E+04  2.28490E+04 -2.73837E+04  1.11960E+04 -2.80711E+04 -1.77916E+03 -2.37781E+04 -1.58304E+04
 -1.10532E+04 -2.28315E+04  7.79300E+03 -2.15744E+04  1.83868E+04 -1.13680E+04  1.70163E+04  4.17178E+03
  6.78411E+03  1.22537E+04 -7.75068E+03  1.12999E+04 -1.45202E+04  2.61423E+03 -1.12362E+04 -8.65474E+03
  9.41149E+01 -1.35436E+04  6.69346E+03 -1.02667E+04  8.60272E+03 -1.34149E+03  1.81352E+03  5.47935E+03
 -5.81923E+03  1.68917E+03 -4.34927E+03 -5.07043E+03  3.27202E+01 -1.16161E+04  8.30081E+03 -1.14807E+04
  1.36886E+04 -5.75945E+03  1.41060E+04  2.81811E+03  1.22185E+04  1.09738E+04  5.88495E+03  1.63272E+04
 -2.44987E+03  1.80827E+04 -1.11197E+04  1.13034E+04 -1.29472E+04  2.86030E+03 -9.50298E+03 -2.31265E+03
 -4.86799E+03 -3.70801E+03 -8.18568E+02  1.31744E+03 -2.02658E+03  1.88467E+03 -4.00323E+03  3.70675E+03
 -8.79050E+03 -5.87841E+02 -9.40730E+03 -7.72042E+03 -4.11335E+03 -1.26249E+04  3.71412E+03 -9.53068E+03
  8.15141E+03 -3.71703E+03  5.82888E+03  2.55077E+03  5.34005E+02  3.51918E+03 -4.32218E+03 -5.38659E+02
 -3.92074E+03 -5.83944E+03 -8.71762E+02 -8.33648E+03  4.83970E+03 -9.06854E+03  1.11295E+04 -4.85278E+03
  1.35489E+04  8.37782E+02  9.88574E+03  7.29879E+03  1.90233E+03  9.97552E+03 -5.64392E+03  9.19543E+03
 -7.67539E+03  2.93075E+03 -4.02639E+03 -1.47320E+03  1.33537E+03 -2.19579E+03  5.37884E+03 -1.09971E+03
  4.40284E+03  3.76700E+03  1.02747E+03  7.10580E+03 -5.12880E+03  6.75878E+03 -8.93792E+03  2.11861E+03
 -5.75760E+03 -4.17246E+03  3.95651E+02 -7.45729E+03  4.51387E+03 -3.31947E+03  4.28709E+03  1.26117E+03
  4.99710E+02  3.99453E+03 -4.54333E+03  5.35214E+03 -6.09741E+03  2.59883E+03 -5.88735E+03 -1.50447E+03
 -3.55652E+03 -7.11891E+03  1.63153E+03 -8.35472E+03  6.87093E+03 -5.52954E+03  7.67635E+03  1.32916E+03
  5.24712E+03  6.15948E+03  1.33287E+02  8.36152E+03 -5.84384E+03  4.90104E+03 -6.45698E+03 -5.07746E+02
 -6.36347E+03 -5.77208E+03 -1.69995E+03 -5.90975E+03  3.26904E+03 -5.24684E+03  3.50342E+03 -3.18922E+03
  3.09079E+03  4.20875E+02 -7.74020E+01  1.36490E+03  2.28419E+02 -3.50200E+02  2.98515E+02 -2.22589E+03
  4.95046E+03 -1.06103E+03  6.47004E+03  8.79243E+02  7.07834E+03  3.96740E+03  5.82526E+03  8.62167E+03
 -1.80221E+03  1.01902E+04 -9.22098E+03  7.85353E+03 -1.16722E+04  1.48839E+03 -9.22544E+03 -3.44187E+03
 -4.76667E+03 -7.53743E+03 -4.33316E+02 -6.30661E+03  2.50384E+03 -2.82912E+03  2.34143E+03 -2.60348E+03
  1.61408E+03 -1.33127E+03  2.15397E+03 -2.50468E+03  3.81892E+03 -1.64478E+03  4.22300E+03 -1.38215E+01
  5.07884E+03  1.59767E+03  1.87214E+03  4.15209E+03 -1.34533E+03  3.34046E+03 -5.11809E+03  3.31232E+03
 -5.91045E+03 -6.74287E+02 -2.79531E+03 -4.07283E+03  2.31571E+02 -6.05062E+03  3.77305E+03 -6.67249E+03
  6.22130E+03 -3.70436E+03  7.87523E+03  7.88340E+02  5.74647E+03  5.24687E+03  1.32346E+03  7.09941E+03
 -2.85714E+03  6.69152E+03 -3.99656E+03  2.13924E+03 -2.16421E+03 -1.14377E+03 -8.47288E+02 -1.12843E+03
 -8.36930E+02  5.24518E+02 -1.08749E+03  2.15826E+03 -3.07442E+03  1.19151E+03 -4.67820E+03 -5.62481E+02
 -2.07228E+03 -4.65273E+03  7.27655E+02 -5.64753E+03  3.17330E+03 -5.24837E+03  4.43135E+03 -1.36147E+03
  4.87524E+03  2.73335E+03  2.30756E+03  4.19279E+03 -1.10492E+03  5.53171E+03 -3.36817E+03  3.26091E+03
 -4.81408E+03  3.31814E+02 -4.03161E+03 -2.97411E+03 -3.63333E+02 -4.21245E+03  1.93979E+03 -3.55325E+03
  3.17969E+03 -1.10776E+03  2.40040E+03  8.32363E+02  6.97104E+02  1.82989E+03  8.33094E+02  8.91716E+02
  1.85490E+03  6.92157E+02  1.45087E+03  1.04808E+03  1.36350E+03  2.47054E+03  1.63279E+03  2.40113E+03
 -1.41797E+03  3.81068E+03 -3.19810E+03  4.76602E+03 -4.16901E+03  1.56358E+03 -5.21797E+03 -8.12446E+02
 -2.21650E+03 -4.74909E+03  6.15802E+02 -5.82898E+03  2.78444E+03 -3.36028E+03  3.66895E+03 -1.28852E+03
  3.14686E+03  2.00338E+03  6.04594E+02  2.80904E+03 -1.24589E+03  1.80208E+03 -1.42442E+03 -3.64071E+02
 -9.87531E+02 -1.83444E+03  1.59541E+03 -1.96766E+03  1.75508E+03 -9.22416E+02  1.82529E+03  4.18378E+02
  1.09338E+03  2.66736E+02  9.42527E+02 -1.65505E+02 -4.42385E+01  8.09210E+02  1.57462E+03 -6.77425E+01
  2.11034E+01 -3.81036E+02  2.22960E+03  6.89034E+02  3.93119E+02  2.72160E+03 -4.82125E+02  3.63981E+03
 -2.15834E+03  1.67893E+03 -2.66291E+03  3.86235E+02 -2.63122E+03 -1.26329E+03 -3.38542E+02 -1.41175E+03
  8.11868E+02 -1.50618E+03  1.31785E+03 -8.55683E+02  8.69287E+02  1.57804E+03 -8.47282E+02  1.42413E+03
 -1.77386E+03  9.19154E+02 -1.87132E+03 -1.63791E+03 -8.23998E+02 -2.68426E+03  4.89334E+02 -2.20457E+03
  6.34902E+02 -6.80604E+02  1.11717E+03  1.29650E+02  1.74859E+03  1.10623E+02  5.36908E+02  1.28950E+03
 -2.89723E+02  1.30792E+02 -1.02534E+03 -3.69874E+02  5.79785E+02 -1.29216E+03  1.99453E+03 -1.27491E+03
  2.05062E+03  3.20366E+02  3.12978E+03  1.15454E+03  1.27059E+03  2.10167E+03 -7.06013E+02  2.55913E+03
 -1.98398E+03  4.16949E+02 -2.10381E+03 -2.78580E+02 -1.13128E+03 -1.50206E+03  5.76891E+02 -1.04124E+03
  1.87196E+03 -6.59450E+02  1.32602E+03  9.24915E+02  3.60619E+02  1.61650E+03  2.22809E+02  1.28266E+03
 -6.09373E+02  1.33733E+03 -9.10294E+01  1.90289E+02  6.28732E+01  5.72618E+02 -5.06749E+02  5.16003E+02
 -8.81393E+02  1.11889E+03 -2.14149E+03  6.88250E+02 -2.33055E+03 -1.58174E+01 -3.10474E+03 -1.30034E+03
 -1.39338E+03 -3.15299E+03  5.51337E+02 -3.67306E+03  1.63803E+03 -3.17872E+03  3.43131E+03 -1.46779E+03
  3.08427E+03  1.47919E+02  1.42853E+03  2.07905E+03 -5.46190E+02  1.92287E+03 -1.10965E+03  1.88031E+03
 -1.59031E+03  8.40040E+02 -8.36440E+02 -4.22511E+02 -4.13390E+02  9.12144E+01 -7.71826E+02  2.34215E+02
 -8.92288E+02 -1.33733E+02 -1.12169E+03  4.58875E+01  8.40001E+01 -7.91906E+02 -3.53102E+02 -1.02109E+03
  1.34993E+03 -7.16639E+02  8.07954E+02  7.81496E+01  1.53398E+03  1.23772E+03 -1.77031E+02  2.13103E+03
 -1.14639E+03  2.53304E+03 -2.11291E+03  1.53310E+03 -2.40639E+03 -3.06243E+02 -1.93773E+03 -1.52386E+03
 -8.68846E+02 -1.91173E+03  3.30522E+01 -1.88988E+03  9.82254E+02 -8.19830E+02  1.34983E+03  7.11685E+01
  8.59400E+02  4.26301E+02  3.90563E+02  5.18815E+02 -4.42762E+02  2.17410E+02 -2.15929E+02 -4.36805E+02
  7.49657E+02  6.12127E+01  5.69211E+02  5.68397E+02  1.10525E+02  8.70952E+02  2.44795E+02  6.65000E+02
 -9.37832E+02  1.01957E+03 -8.44761E+02  4.96390E+01 -1.35352E+03 -7.51422E+02  7.28314E+01 -1.69207E+03
  8.04702E+02 -8.44851E+02  9.07044E+02 -2.54224E+02  1.12669E+03 -5.10673E+02  3.27547E+02  1.37604E+03
  4.73860E+02  8.22032E+02 -3.02866E+02  8.93453E+02 -1.03222E+03  6.48382E+02 -6.73497E+02  5.80466E+01
 -4.50643E+01 -1.09993E+01 -5.44602E+02  3.28166E+02 -9.51928E+02  3.89596E+02 -1.15609E+03 -1.09880E+02
 -1.38299E+03 -2.38808E+01 -2.46465E+01 -1.37041E+03  9.55079E+02 -1.62519E+03  1.22606E+03 -5.07700E+02
  9.78588E+02  4.41418E+02 -7.10640E+01  4.92500E+02 -1.06774E+02  1.28994E+03 -4.64574E+02  8.76623E+02
