 $NMID ID='MM_0lb_SNR800_11hz_g40_1.RAW', FMTDAT='(8E13.5)'
 TRAMP=1., VOLUME=1. $END
  3.10286E+05  5.28105E+02  3.37210E+05  2.50669E+05  8.45718E+04  3.38297E+05 -1.32409E+05  2.51235E+05
 -1.90569E+05  8.36822E+04 -1.12260E+05 -3.25971E+04  6.22766E+02 -5.06364E+04  5.38729E+04 -4.85898E+02
  3.54555E+04  5.26294E+04 -1.68724E+04  7.55320E+04 -6.11689E+04  6.37265E+04 -8.44900E+04  3.23052E+04
 -8.12410E+04 -1.14714E+04 -5.76330E+04 -5.18000E+04 -1.52076E+04 -6.97322E+04  2.75967E+04 -4.59991E+04
  4.04808E+04  3.82189E+03  1.64014E+04  4.79883E+04 -3.43870E+04  4.75445E+04 -6.72467E+04 -3.41794E+02
 -5.38310E+04 -5.72562E+04 -7.02083E+03 -7.76807E+04  3.45280E+04 -5.55913E+04  4.81687E+04 -1.79727E+04
  4.42727E+04  1.15071E+04  3.21276E+04  2.58521E+04  1.58017E+04  2.98634E+04 -5.75642E+03  2.75710E+04
 -2.21914E+04  1.21622E+04 -1.89164E+04 -5.27598E+03  5.88460E+03 -7.39202E+03  2.26921E+04  1.26942E+04
  7.58436E+03  3.60726E+04 -3.26657E+04  3.61237E+04 -6.41894E+04  2.05358E+03 -5.77509E+04 -4.34237E+04
 -1.25701E+04 -6.39063E+04  4.04340E+04 -4.60618E+04  5.92634E+04 -1.96735E+03  3.50736E+04  3.29882E+04
 -5.80222E+03  3.70900E+04 -3.05295E+04  1.69358E+04 -3.16134E+04 -4.25319E+03 -1.74632E+04 -1.13821E+04
 -8.84955E+03 -1.38014E+04 -5.02361E+02 -1.86467E+04  7.50802E+03 -2.32402E+04  1.51213E+04 -1.30749E+04
  1.10391E+04  5.37166E+03 -9.00906E+03  1.29888E+04 -2.20548E+04 -5.14007E+03 -8.29605E+03 -3.55452E+04
  2.36641E+04 -4.47045E+04  4.97321E+04 -2.04382E+04  4.65391E+04  1.98198E+04  1.62275E+04  4.55684E+04
 -1.62621E+04  3.45952E+04 -2.62733E+04  2.05121E+03 -1.03927E+04 -2.86813E+04  2.10009E+04 -3.49516E+04
  4.22738E+04 -9.56817E+03  3.74593E+04  2.48000E+04  1.95022E+04  4.84842E+04 -8.06909E+03  5.26304E+04
 -3.31661E+04  3.56961E+04 -4.44833E+04  1.01159E+04 -4.45271E+04 -1.74041E+04 -2.46531E+04 -3.93891E+04
  7.64716E+03 -3.95964E+04  3.25886E+04 -1.56329E+04  3.00825E+04  1.14099E+04  4.53861E+03  1.99294E+04
 -1.35147E+04  8.91283E+03 -1.06347E+04 -7.69635E+03  5.74559E+03 -1.09518E+04  1.85448E+04  6.15792E+03
  1.43573E+04  2.20216E+04 -5.83496E+03  2.59525E+04 -2.27881E+04  1.27996E+04 -2.94644E+04 -4.04825E+03
 -2.25526E+04 -1.77555E+04 -9.57938E+03 -2.21975E+04  3.67412E+03 -2.22882E+04  1.76990E+04 -1.98110E+04
  2.85487E+04 -1.32383E+04  3.45298E+04  3.66443E+03  2.51257E+04  2.16498E+04  4.43781E+03  3.82155E+04
 -1.86093E+04  3.18114E+04 -2.84740E+04  1.12082E+04 -2.16631E+04 -1.03875E+04 -4.32469E+03 -1.32186E+04
  1.54072E+03 -2.45202E+03 -6.46370E+03  7.35775E+03 -1.77753E+04  5.43608E+03 -1.78610E+04 -7.63900E+03
 -1.07903E+04 -2.06187E+04  5.37776E+03 -2.46518E+04  1.68073E+04 -1.77035E+04  1.97860E+04 -1.90339E+03
  1.25462E+04  1.46261E+04 -1.32174E+03  2.07467E+04 -1.44201E+04  1.18355E+04 -2.08317E+04 -4.46795E+03
 -1.55524E+04 -1.88751E+04 -1.62196E+03 -2.53210E+04  1.12210E+04 -2.05868E+04  2.09297E+04 -1.04842E+04
  1.92461E+04  2.11478E+02  1.40986E+04  4.82978E+03  7.59222E+03  1.17929E+03  1.04426E+04 -2.09015E+03
  1.91272E+04  2.73368E+03  2.21517E+04  1.59809E+04  1.45544E+04  3.35303E+04 -2.88902E+03  3.81848E+04
 -2.20880E+04  3.14364E+04 -3.58771E+04  1.56851E+04 -3.79701E+04 -2.89212E+03 -3.09743E+04 -2.23230E+04
 -1.29049E+04 -3.15298E+04  1.08647E+04 -2.79418E+04  2.40380E+04 -1.35821E+04  2.12610E+04  6.39341E+03
  7.75420E+03  1.59766E+04 -9.66621E+03  1.39526E+04 -1.76636E+04  2.70904E+03 -1.37449E+04 -1.12723E+04
 -3.79675E+02 -1.68750E+04  9.02524E+03 -1.27722E+04  1.17553E+04 -1.55306E+03  2.64422E+03  7.39699E+03
 -7.57390E+03  3.69686E+03 -7.30423E+03 -6.56109E+03 -8.91608E+02 -1.51324E+04  1.08212E+04 -1.66210E+04
  1.91631E+04 -8.76775E+03  2.15259E+04  3.31828E+03  1.84281E+04  1.52725E+04  8.29450E+03  2.42142E+04
 -4.16633E+03  2.58012E+04 -1.67748E+04  1.63623E+04 -1.85984E+04  3.74236E+03 -1.31991E+04 -4.31082E+03
 -5.44825E+03 -5.54040E+03 -3.70040E+02  7.22844E+02 -2.79708E+03  3.00169E+03 -5.92189E+03  4.62192E+03
 -1.22415E+04 -8.51983E+02 -1.28830E+04 -1.04372E+04 -5.16625E+03 -1.66703E+04  5.53032E+03 -1.31589E+04
  1.11322E+04 -5.56507E+03  7.76602E+03  3.63860E+03  1.91788E+02  5.03447E+03 -6.29905E+03  1.27242E+02
 -6.26228E+03 -8.29289E+03 -1.31918E+03 -1.26261E+04  7.22756E+03 -1.33810E+04  1.67545E+04 -7.00622E+03
  1.91436E+04  1.94952E+03  1.44586E+04  1.15971E+04  2.72062E+03  1.53362E+04 -8.17570E+03  1.31999E+04
 -1.06873E+04  3.73479E+03 -5.46139E+03 -2.71267E+03  1.73824E+03 -3.55144E+03  6.92907E+03 -1.29794E+03
  6.79515E+03  5.90649E+03  9.76402E+02  1.02506E+04 -7.54137E+03  1.00767E+04 -1.30220E+04  2.50132E+03
 -9.00091E+03 -6.77803E+03  7.56369E+02 -1.10554E+04  6.99517E+03 -5.72675E+03  6.95003E+03  2.53664E+03
  1.26462E+03  7.57607E+03 -6.78195E+03  8.91146E+03 -1.08279E+04  4.09143E+03 -1.03471E+04 -3.86505E+03
 -6.39299E+03 -1.20227E+04  2.80280E+03 -1.41993E+04  1.18106E+04 -8.58288E+03  1.30948E+04  2.24309E+03
  8.20829E+03  1.07534E+04 -1.08855E+03  1.26074E+04 -9.38716E+03  7.45213E+03 -1.02265E+04 -7.06537E+02
 -8.83063E+03 -8.59908E+03 -1.73521E+03 -9.56894E+03  4.76746E+03 -7.90205E+03  6.08099E+03 -3.20803E+03
  4.30680E+03  1.07073E+03 -7.45753E+02  1.88879E+03 -2.06655E+02 -2.27943E+03  1.78338E+03 -5.52694E+03
  8.48989E+03 -3.75860E+03  1.24398E+04  1.52193E+03  1.23989E+04  8.39028E+03  8.18060E+03  1.60888E+04
 -3.77089E+03  1.84843E+04 -1.57119E+04  1.37578E+04 -1.99551E+04  2.34195E+03 -1.61156E+04 -6.86928E+03
 -8.07442E+03 -1.27534E+04 -3.98570E+02 -1.13367E+04  3.78632E+03 -5.91708E+03  3.94537E+03 -4.15035E+03
  3.25032E+03 -2.86063E+03  3.27234E+03 -3.13294E+03  4.92449E+03 -2.80886E+03  6.38217E+03 -5.25018E+02
  8.58408E+03  2.21171E+03  3.99935E+03  7.36736E+03 -2.04706E+03  8.19521E+03 -8.74013E+03  6.67603E+03
 -1.10099E+04 -1.26223E+03 -6.66840E+03 -7.62086E+03 -7.22684E+02 -1.18532E+04  6.94719E+03 -1.21956E+04
  1.23156E+04 -6.61692E+03  1.45299E+04  1.61048E+03  9.93803E+03  1.03369E+04  1.78443E+03  1.36644E+04
 -5.27928E+03  1.14473E+04 -7.99296E+03  3.94724E+03 -5.19559E+03 -1.41312E+03 -2.19228E+03 -1.67476E+03
 -1.00455E+03  2.09417E+02 -2.01960E+03  2.47864E+03 -4.67279E+03  1.88887E+03 -7.88506E+03 -9.98719E+02
 -4.93706E+03 -8.05904E+03  4.39413E+02 -1.09538E+04  6.75014E+03 -9.90807E+03  1.08094E+04 -3.19099E+03
  1.06676E+04  5.62263E+03  4.56140E+03  9.87454E+03 -2.15958E+03  1.10602E+04 -7.84378E+03  7.03691E+03
 -9.94899E+03  4.33465E+02 -8.17512E+03 -6.51929E+03 -9.80959E+02 -9.16521E+03  4.70770E+03 -6.85302E+03
  7.14476E+03 -2.49647E+03  4.48771E+03  1.55440E+03  1.69378E+03  3.26111E+03  1.15939E+03  1.09013E+03
  2.51770E+03  1.02591E+03  2.55355E+03  1.46167E+03  3.34487E+03  3.99638E+03  2.61847E+03  5.67425E+03
 -2.38300E+03  8.34853E+03 -7.42408E+03  9.14302E+03 -1.06829E+04  2.19875E+03 -1.13914E+04 -4.16554E+03
 -5.02145E+03 -1.07680E+04  1.69758E+03 -1.21483E+04  6.43249E+03 -7.32371E+03  9.05939E+03 -2.21185E+03
  6.72347E+03  3.77835E+03  1.48189E+03  6.58488E+03 -3.07823E+03  3.66207E+03 -4.56779E+03 -6.58635E+02
 -1.98280E+03 -4.32024E+03  2.84823E+03 -4.50764E+03  4.29581E+03 -2.10540E+03  4.17445E+03  6.94165E+02
  2.31445E+03  2.07022E+03  1.21291E+03  1.54193E+03 -8.20323E+02  1.47632E+03  1.82573E+03 -2.66790E+02
  1.49795E+03 -5.93699E+02  4.40114E+03  1.62480E+03  2.10747E+03  5.91582E+03 -9.57110E+02  7.54826E+03
 -5.29671E+03  4.70607E+03 -6.97783E+03  1.40909E+03 -6.07886E+03 -2.34256E+03 -1.72026E+03 -4.07319E+03
  8.53826E+02 -4.10963E+03  2.95758E+03 -1.99102E+03  2.10961E+03  1.89909E+03 -1.40797E+03  3.16901E+03
 -4.46661E+03  2.17209E+03 -4.68114E+03 -2.68370E+03 -2.65248E+03 -5.88642E+03  1.03315E+03 -5.38560E+03
  3.47275E+03 -3.14969E+03  3.92251E+03 -1.49429E+02  3.87718E+03  1.07119E+03  6.79025E+02  3.34889E+03
 -1.87208E+03  8.62931E+02 -2.47809E+03 -2.05143E+03  1.21191E+03 -3.93646E+03  5.31507E+03 -3.33217E+03
  6.27817E+03  4.69165E+02  7.01974E+03  4.22110E+03  2.27273E+03  6.83863E+03 -2.43943E+03  6.55614E+03
 -5.32441E+03  2.36862E+03 -5.63831E+03 -9.67403E+02 -3.01268E+03 -4.34825E+03  1.31398E+03 -3.59751E+03
  4.34222E+03 -2.49574E+03  3.68761E+03  2.08069E+03  1.27722E+03  3.85668E+03 -3.22961E+02  3.01206E+03
 -1.55777E+03  2.50649E+03 -1.77641E+03  4.86654E+02 -8.47103E+02  7.85467E+02 -1.06716E+03  1.62995E+03
 -1.56149E+03  2.76148E+03 -5.09518E+03  2.22971E+03 -6.73182E+03  2.01344E+02 -7.82860E+03 -4.29326E+03
 -4.43152E+03 -9.12462E+03  1.99332E+03 -1.04635E+04  6.25409E+03 -8.23459E+03  9.77930E+03 -3.25082E+03
  8.93894E+03  1.74407E+03  5.53820E+03  6.01478E+03  2.83385E+02  7.21396E+03 -3.05745E+03  5.11544E+03
 -3.84452E+03  2.17048E+03 -2.57261E+03 -9.40102E+02 -1.13602E+03 -7.61117E+02 -7.63907E+02 -3.88937E+02
 -1.69530E+03  2.61450E+02 -1.95474E+03 -3.46006E+02 -5.84131E+02 -1.49946E+03 -1.35408E+02 -2.65570E+03
  3.40844E+03 -2.13091E+03  3.95090E+03  1.90016E+02  4.54320E+03  3.52077E+03  9.27906E+02  6.83731E+03
 -3.27960E+03  7.99018E+03 -6.84810E+03  4.94124E+03 -8.53766E+03 -8.72359E+02 -6.01965E+03 -5.33029E+03
 -2.48563E+03 -6.61187E+03  1.69231E+03 -6.59392E+03  4.01002E+03 -3.65950E+03  4.55167E+03  1.56056E+02
  2.41884E+03  2.36087E+03  3.40609E+01  1.77487E+03 -1.41682E+03 -3.12663E+02  2.33518E+02 -1.56701E+03
  1.90228E+03 -1.12080E+03  2.39403E+03  9.18800E+02  1.89398E+03  2.51119E+03  4.35547E+02  3.51058E+03
 -2.67441E+03  3.13361E+03 -4.02516E+03  3.21220E+02 -4.38339E+03 -3.26110E+03 -4.60148E+02 -5.80312E+03
  3.34236E+03 -4.77314E+03  5.14336E+03 -1.88304E+03  4.80862E+03  1.13661E+03  3.02721E+03  3.89021E+03
  5.65293E+02  4.53165E+03 -1.50378E+03  3.52324E+03 -2.69505E+03  1.95652E+03 -1.93677E+03  3.02186E+02
 -1.28150E+03 -3.15260E+02 -1.42701E+03  7.50204E+02 -2.02841E+03  9.96120E+02 -3.50819E+03 -5.97856E+02
 -3.33449E+03 -2.06237E+03 -1.18421E+03 -4.28911E+03  2.08018E+03 -5.13353E+03  4.20533E+03 -2.02772E+03
  4.20069E+03  5.42123E+02  1.92983E+03  3.24856E+03 -4.19671E+02  4.34581E+03 -3.60977E+03  2.97596E+03
