 $NMID ID='MM_0lb_SNR800_10hz_g45_56.RAW', FMTDAT='(8E13.5)'
 TRAMP=1., VOLUME=1. $END
  3.09863E+05  6.26994E+02  3.38129E+05  2.50359E+05  8.51159E+04  3.38544E+05 -1.32560E+05  2.51733E+05
 -1.90689E+05  8.37964E+04 -1.12662E+05 -3.25226E+04  5.36942E+02 -5.05959E+04  5.36241E+04 -3.60403E+02
  3.51575E+04  5.27391E+04 -1.63731E+04  7.59466E+04 -6.10275E+04  6.40467E+04 -8.50920E+04  3.25496E+04
 -8.22344E+04 -1.14737E+04 -5.79369E+04 -5.18643E+04 -1.53258E+04 -7.06553E+04  2.80548E+04 -4.63144E+04
  4.05813E+04  4.32218E+03  1.66141E+04  4.84189E+04 -3.47858E+04  4.79332E+04 -6.78309E+04  1.89644E+02
 -5.44374E+04 -5.74385E+04 -7.09372E+03 -7.81788E+04  3.42301E+04 -5.63294E+04  4.87323E+04 -1.83251E+04
  4.49145E+04  1.16208E+04  3.27372E+04  2.59964E+04  1.58912E+04  3.03308E+04 -6.13388E+03  2.80359E+04
 -2.25109E+04  1.18617E+04 -1.79860E+04 -5.84060E+03  6.69644E+03 -7.40982E+03  2.32023E+04  1.33631E+04
  7.45591E+03  3.69243E+04 -3.36349E+04  3.63859E+04 -6.52466E+04  2.15383E+03 -5.84271E+04 -4.39744E+04
 -1.23672E+04 -6.49110E+04  4.09860E+04 -4.70135E+04  6.00981E+04 -2.90725E+03  3.59900E+04  3.36154E+04
 -5.68720E+03  3.82676E+04 -3.10361E+04  1.76278E+04 -3.23281E+04 -4.09079E+03 -1.85897E+04 -1.16203E+04
 -9.51839E+03 -1.47127E+04 -2.70732E+02 -1.91120E+04  8.02187E+03 -2.31156E+04  1.58744E+04 -1.27261E+04
  1.06805E+04  5.95117E+03 -9.97048E+03  1.31862E+04 -2.28780E+04 -6.04152E+03 -8.36254E+03 -3.63925E+04
  2.43690E+04 -4.58019E+04  5.03983E+04 -2.07563E+04  4.72778E+04  2.05427E+04  1.69845E+04  4.62712E+04
 -1.68343E+04  3.50613E+04 -2.66353E+04  2.10307E+03 -1.07167E+04 -2.90258E+04  2.15106E+04 -3.61821E+04
  4.31416E+04 -1.04935E+04  3.85241E+04  2.45509E+04  2.04111E+04  4.94364E+04 -8.39862E+03  5.44116E+04
 -3.41596E+04  3.67517E+04 -4.58249E+04  1.08244E+04 -4.58942E+04 -1.81484E+04 -2.54372E+04 -4.04837E+04
  7.65478E+03 -4.05484E+04  3.35885E+04 -1.69836E+04  3.14086E+04  1.10513E+04  4.66215E+03  2.01046E+04
 -1.35102E+04  9.07431E+03 -1.11381E+04 -7.80445E+03  5.96299E+03 -1.15252E+04  1.82783E+04  5.46991E+03
  1.44313E+04  2.26945E+04 -5.28786E+03  2.64804E+04 -2.36201E+04  1.35121E+04 -3.02809E+04 -3.37741E+03
 -2.40314E+04 -1.81065E+04 -1.06813E+04 -2.37376E+04  4.27845E+03 -2.39846E+04  1.86404E+04 -2.17142E+04
  3.04809E+04 -1.38066E+04  3.64401E+04  4.76263E+03  2.59246E+04  2.26419E+04  4.65595E+03  3.98310E+04
 -1.90321E+04  3.26766E+04 -2.91839E+04  1.11320E+04 -2.18935E+04 -1.00441E+04 -4.66861E+03 -1.29973E+04
  1.09354E+03 -1.34351E+03 -6.35908E+03  7.73563E+03 -1.86953E+04  5.19231E+03 -1.87718E+04 -8.35493E+03
 -1.12131E+04 -2.22224E+04  6.08750E+03 -2.62390E+04  1.76379E+04 -1.85152E+04  2.10690E+04 -1.82120E+03
  1.34876E+04  1.54582E+04 -8.62140E+02  2.18158E+04 -1.53903E+04  1.24787E+04 -2.23778E+04 -4.94484E+03
 -1.61788E+04 -1.96074E+04 -1.96476E+03 -2.65024E+04  1.22661E+04 -2.17371E+04  2.21363E+04 -1.11551E+04
  2.09675E+04 -8.11934E+01  1.50153E+04  5.37036E+03  8.35896E+03  1.11603E+03  1.12922E+04 -1.66995E+03
  2.02387E+04  2.86442E+03  2.32579E+04  1.72760E+04  1.59356E+04  3.51892E+04 -2.72007E+03  4.10456E+04
 -2.35086E+04  3.41241E+04 -3.89172E+04  1.80336E+04 -4.16706E+04 -3.08233E+03 -3.38539E+04 -2.41081E+04
 -1.39447E+04 -3.44349E+04  1.20228E+04 -3.01802E+04  2.60756E+04 -1.46015E+04  2.27359E+04  7.27074E+03
  7.83907E+03  1.78174E+04 -1.06294E+04  1.43632E+04 -1.87497E+04  2.82938E+03 -1.42918E+04 -1.19383E+04
 -2.75653E+02 -1.80156E+04  9.39665E+03 -1.34412E+04  1.19544E+04 -1.43725E+03  3.20338E+03  8.18108E+03
 -8.21987E+03  3.68392E+03 -8.29645E+03 -6.34022E+03 -1.47641E+03 -1.65264E+04  1.11642E+04 -1.83026E+04
  2.12423E+04 -1.02355E+04  2.38144E+04  2.97806E+03  2.09390E+04  1.71444E+04  9.33849E+03  2.64047E+04
 -4.65677E+03  2.83841E+04 -1.86007E+04  1.75072E+04 -2.06858E+04  3.68293E+03 -1.45167E+04 -5.32903E+03
 -6.09128E+03 -6.31827E+03 -8.09522E+02  4.32779E+02 -2.74337E+03  3.38711E+03 -6.52724E+03  4.68028E+03
 -1.29568E+04 -7.99388E+02 -1.35350E+04 -1.10629E+04 -5.61588E+03 -1.82152E+04  5.81040E+03 -1.46232E+04
  1.18714E+04 -6.08375E+03  8.63092E+03  4.06841E+03 -2.71323E+02  5.74396E+03 -7.28743E+03 -7.24834E+02
 -6.62118E+03 -8.93685E+03 -1.27694E+03 -1.39758E+04  8.44818E+03 -1.49873E+04  1.83220E+04 -8.26045E+03
  2.15316E+04  2.22726E+03  1.57577E+04  1.28568E+04  3.21301E+03  1.71657E+04 -8.84941E+03  1.41682E+04
 -1.15736E+04  4.24328E+03 -5.77565E+03 -3.24807E+03  2.33533E+03 -3.51534E+03  7.47866E+03 -8.41695E+02
  6.60156E+03  6.71909E+03  1.44474E+03  1.11541E+04 -8.19831E+03  1.10383E+04 -1.41396E+04  2.68630E+03
 -1.03791E+04 -7.49600E+03  1.93711E+02 -1.19735E+04  7.57195E+03 -6.69322E+03  8.59159E+03  3.26830E+03
  1.60479E+03  8.92400E+03 -7.39084E+03  1.01583E+04 -1.20579E+04  5.00314E+03 -1.21281E+04 -4.38692E+03
 -6.94008E+03 -1.41448E+04  3.42040E+03 -1.61610E+04  1.36630E+04 -9.63467E+03  1.46777E+04  2.47168E+03
  9.08315E+03  1.20754E+04 -7.10453E+02  1.45018E+04 -1.04107E+04  8.24880E+03 -1.13747E+04 -1.25813E+03
 -1.00050E+04 -9.68192E+03 -1.63494E+03 -1.04665E+04  5.61183E+03 -8.43490E+03  6.78382E+03 -3.20866E+03
  4.10301E+03  1.79162E+03 -9.31684E+02  1.64266E+03 -5.94689E+02 -3.00635E+03  1.93028E+03 -6.22952E+03
  1.01262E+04 -4.50412E+03  1.37611E+04  1.53852E+03  1.38007E+04  9.44146E+03  8.93597E+03  1.81659E+04
 -4.29891E+03  2.10261E+04 -1.70867E+04  1.52574E+04 -2.27688E+04  2.90927E+03 -1.81637E+04 -7.52707E+03
 -9.44136E+03 -1.49001E+04 -5.44261E+02 -1.31045E+04  4.81906E+03 -7.19479E+03  4.47268E+03 -4.86857E+03
  3.51723E+03 -2.77864E+03  3.58435E+03 -3.63772E+03  5.84598E+03 -3.22771E+03  7.50292E+03 -1.19674E+03
  9.43684E+03  2.11696E+03  4.98415E+03  8.22193E+03 -2.10729E+03  9.80614E+03 -9.86836E+03  7.37871E+03
 -1.30386E+04 -1.09894E+03 -8.05755E+03 -9.55809E+03 -9.10379E+02 -1.37529E+04  7.81352E+03 -1.39477E+04
  1.41697E+04 -7.52052E+03  1.71114E+04  2.06947E+03  1.15170E+04  1.19688E+04  1.98024E+03  1.53422E+04
 -5.96716E+03  1.27896E+04 -9.18482E+03  4.55762E+03 -6.04202E+03 -1.53286E+03 -2.34813E+03 -1.95241E+03
 -1.27695E+03 -9.31864E+00 -2.01718E+03  2.68895E+03 -5.74991E+03  2.36829E+03 -8.62174E+03 -1.09465E+03
 -6.18835E+03 -9.15515E+03 -2.46971E+02 -1.29654E+04  8.17621E+03 -1.13698E+04  1.25183E+04 -3.78394E+03
  1.22007E+04  6.20208E+03  6.28702E+03  1.10549E+04 -2.53717E+03  1.31435E+04 -9.09836E+03  7.95109E+03
 -1.18668E+04  6.59777E+01 -9.00298E+03 -7.58423E+03 -6.47640E+02 -1.05485E+04  5.12704E+03 -8.22216E+03
  8.18812E+03 -2.93565E+03  5.60745E+03  1.86815E+03  2.10757E+03  4.22658E+03  1.27215E+03  2.02058E+03
  2.74591E+03  1.25393E+03  3.54261E+03  1.69568E+03  3.81201E+03  4.14558E+03  3.28070E+03  6.42250E+03
 -2.65809E+03  1.07368E+04 -8.58309E+03  1.01041E+04 -1.28009E+04  2.97958E+03 -1.33697E+04 -5.72327E+03
 -6.45978E+03 -1.30818E+04  1.59042E+03 -1.41630E+04  7.63766E+03 -8.65709E+03  1.05695E+04 -2.38505E+03
  8.32166E+03  4.75047E+03  1.68791E+03  7.65457E+03 -3.53032E+03  4.44118E+03 -5.22278E+03 -1.11413E+03
 -2.15494E+03 -5.18325E+03  3.28185E+03 -5.77370E+03  5.10114E+03 -2.62097E+03  5.09243E+03  1.34514E+03
  2.96265E+03  2.66532E+03  1.34357E+03  1.71635E+03 -7.36570E+02  1.56385E+03  1.42526E+03 -5.74804E+02
  2.23937E+03 -8.19542E+02  5.34039E+03  1.87144E+03  3.12374E+03  7.01657E+03 -5.04469E+02  9.08358E+03
 -6.11618E+03  5.64457E+03 -8.28730E+03  1.58437E+03 -7.33859E+03 -2.95700E+03 -2.84177E+03 -4.92631E+03
  9.71656E+02 -4.92187E+03  3.19337E+03 -2.55470E+03  2.69847E+03  2.80776E+03 -1.20305E+03  4.14231E+03
 -5.50937E+03  2.87421E+03 -5.94764E+03 -3.10316E+03 -3.16699E+03 -7.27381E+03  5.26907E+02 -7.42950E+03
  3.85952E+03 -3.96561E+03  5.32395E+03 -4.45644E+02  4.49279E+03  1.89841E+03  7.33278E+02  4.01547E+03
 -2.27124E+03  1.15118E+03 -3.14561E+03 -2.56827E+03  1.50310E+03 -5.32296E+03  6.39753E+03 -4.25102E+03
  7.63006E+03  6.39978E+02  8.37321E+03  5.14995E+03  2.41647E+03  8.36902E+03 -3.06404E+03  7.71614E+03
 -6.74848E+03  3.46970E+03 -6.90068E+03 -1.21292E+03 -3.73611E+03 -5.67687E+03  1.14083E+03 -5.12691E+03
  5.49188E+03 -2.85236E+03  4.37524E+03  2.31330E+03  1.59025E+03  4.39027E+03 -8.47976E+02  4.00797E+03
 -1.79897E+03  2.31425E+03 -2.14040E+03  8.95576E+02 -1.03971E+03  9.77402E+02 -1.47711E+03  1.65725E+03
 -2.19657E+03  3.32937E+03 -5.88235E+03  3.04460E+03 -7.73271E+03  2.33634E+02 -9.23245E+03 -5.61735E+03
 -4.79013E+03 -1.10465E+04  2.13375E+03 -1.26324E+04  7.50980E+03 -1.00799E+04  1.17975E+04 -4.05703E+03
  1.11902E+04  2.12319E+03  6.88189E+03  7.70222E+03  4.83524E+02  8.15091E+03 -3.70427E+03  6.47551E+03
 -4.61058E+03  2.48872E+03 -3.07868E+03 -1.08795E+03 -7.93195E+02 -9.91460E+02 -4.01901E+02 -4.08404E+02
 -1.75063E+03  2.40770E+02 -1.83431E+03 -5.70506E+02 -3.80106E+02 -2.17433E+03  6.21632E+01 -3.45598E+03
  3.66728E+03 -2.78682E+03  5.17684E+03 -1.74964E+02  6.26533E+03  4.69151E+03  1.33043E+03  8.24276E+03
 -4.05945E+03  9.46451E+03 -8.84506E+03  5.59707E+03 -1.02315E+04 -6.16857E+02 -7.46595E+03 -6.70022E+03
 -3.46023E+03 -8.65048E+03  2.10264E+03 -8.27588E+03  5.30308E+03 -4.43968E+03  5.44519E+03  1.82863E+02
  3.52646E+03  3.00042E+03 -6.95966E+02  2.60433E+03 -1.71597E+03  6.33048E+01  1.80535E+02 -2.17118E+03
  2.51604E+03 -9.17808E+02  3.27919E+03  1.15853E+03  2.45777E+03  3.50567E+03  1.89944E+01  4.13954E+03
 -3.49264E+03  3.93746E+03 -5.65971E+03  8.14579E+02 -5.26410E+03 -3.87411E+03 -6.47693E+02 -6.91253E+03
  4.38830E+03 -5.59723E+03  6.67249E+03 -1.77498E+03  6.47300E+03  1.36688E+03  3.30656E+03  4.89127E+03
  6.38779E+02  5.58932E+03 -2.55028E+03  4.44696E+03 -3.68827E+03  2.77365E+03 -2.75612E+03  7.23457E+02
 -1.49338E+03 -7.33186E+00 -1.56590E+03  8.61549E+02 -2.86881E+03  1.05097E+03 -4.67028E+03 -1.15503E+03
 -4.12646E+03 -2.75399E+03 -1.62250E+03 -5.54118E+03  2.43240E+03 -6.11432E+03  5.03637E+03 -2.63189E+03
  5.46422E+03  9.12354E+02  3.13100E+03  4.12226E+03 -4.33030E+02  5.57430E+03 -4.22749E+03  3.77173E+03
