 $NMID ID='MM_0lb_SNR800_14hz_g55_70.RAW', FMTDAT='(8E13.5)'
 TRAMP=1., VOLUME=1. $END
  3.09695E+05  2.60981E+02  3.37620E+05  2.50937E+05  8.48666E+04  3.38360E+05 -1.32213E+05  2.51430E+05
 -1.90347E+05  8.33369E+04 -1.11907E+05 -3.27188E+04  8.28990E+02 -5.03870E+04  5.37916E+04 -3.87194E+01
  3.51154E+04  5.28163E+04 -1.67211E+04  7.54634E+04 -6.10529E+04  6.38619E+04 -8.42398E+04  3.22695E+04
 -8.15008E+04 -1.18199E+04 -5.73963E+04 -5.13488E+04 -1.50389E+04 -7.02676E+04  2.74111E+04 -4.58489E+04
  4.01384E+04  3.98825E+03  1.62790E+04  4.80394E+04 -3.46279E+04  4.74977E+04 -6.70380E+04  2.39268E+01
 -5.38523E+04 -5.71371E+04 -6.99581E+03 -7.73592E+04  3.41541E+04 -5.52284E+04  4.82540E+04 -1.76365E+04
  4.36007E+04  1.13398E+04  3.17596E+04  2.57919E+04  1.57647E+04  2.97160E+04 -5.58417E+03  2.73566E+04
 -2.22465E+04  1.24498E+04 -1.87130E+04 -5.04774E+03  5.72746E+03 -7.37335E+03  2.26421E+04  1.22248E+04
  7.21795E+03  3.59666E+04 -3.27285E+04  3.57323E+04 -6.39337E+04  1.82218E+03 -5.73565E+04 -4.29923E+04
 -1.23054E+04 -6.34136E+04  4.00054E+04 -4.57919E+04  5.92104E+04 -2.37934E+03  3.47025E+04  3.25811E+04
 -5.85788E+03  3.65974E+04 -3.04145E+04  1.65962E+04 -3.08282E+04 -4.48920E+03 -1.73827E+04 -1.12647E+04
 -8.52100E+03 -1.37074E+04 -9.34777E+02 -1.84892E+04  7.72532E+03 -2.30551E+04  1.57058E+04 -1.32255E+04
  1.12044E+04  5.36558E+03 -8.67020E+03  1.30027E+04 -2.15298E+04 -4.83586E+03 -8.23606E+03 -3.43218E+04
  2.36640E+04 -4.42664E+04  4.85412E+04 -1.99670E+04  4.58212E+04  1.99554E+04  1.60098E+04  4.48262E+04
 -1.64544E+04  3.41434E+04 -2.58190E+04  2.13818E+03 -1.01283E+04 -2.80743E+04  2.09540E+04 -3.42752E+04
  4.18586E+04 -9.30327E+03  3.62095E+04  2.40663E+04  1.86854E+04  4.74688E+04 -8.02496E+03  5.11071E+04
 -3.23884E+04  3.44926E+04 -4.30482E+04  9.79574E+03 -4.36111E+04 -1.71489E+04 -2.37428E+04 -3.85510E+04
  7.25979E+03 -3.84450E+04  3.20504E+04 -1.50828E+04  2.97725E+04  1.08656E+04  4.20683E+03  1.91989E+04
 -1.34832E+04  8.58398E+03 -1.01448E+04 -7.55294E+03  5.82282E+03 -1.08317E+04  1.82644E+04  5.80146E+03
  1.38242E+04  2.20526E+04 -5.89729E+03  2.53475E+04 -2.26472E+04  1.18005E+04 -2.85229E+04 -4.97182E+03
 -2.12925E+04 -1.73721E+04 -8.73763E+03 -2.11790E+04  3.92243E+03 -2.05337E+04  1.66262E+04 -1.84797E+04
  2.71612E+04 -1.30081E+04  3.35534E+04  2.90499E+03  2.43622E+04  2.08483E+04  4.42942E+03  3.70559E+04
 -1.78796E+04  3.10451E+04 -2.87234E+04  1.07399E+04 -2.08433E+04 -1.01367E+04 -4.57942E+03 -1.34790E+04
  1.72813E+03 -2.63805E+03 -5.32105E+03  6.94131E+03 -1.68900E+04  5.06481E+03 -1.69021E+04 -7.46443E+03
 -1.04356E+04 -1.96954E+04  5.25776E+03 -2.36238E+04  1.58598E+04 -1.67829E+04  1.85878E+04 -1.68884E+03
  1.20519E+04  1.38785E+04 -1.04891E+03  1.94606E+04 -1.37415E+04  1.11310E+04 -1.94947E+04 -4.27160E+03
 -1.44854E+04 -1.74170E+04 -1.84299E+03 -2.38686E+04  1.03868E+04 -1.92601E+04  1.99309E+04 -9.89016E+03
  1.83843E+04 -4.23557E+01  1.32152E+04  4.30151E+03  7.04602E+03  7.35226E+02  9.93486E+03 -1.63243E+03
  1.80322E+04  2.80343E+03  2.01186E+04  1.53010E+04  1.29293E+04  3.09067E+04 -2.73319E+03  3.56426E+04
 -2.04655E+04  2.85609E+04 -3.31842E+04  1.41923E+04 -3.50231E+04 -2.41766E+03 -2.86794E+04 -2.01965E+04
 -1.22909E+04 -2.86078E+04  9.92817E+03 -2.60247E+04  2.24348E+04 -1.34183E+04  1.99986E+04  5.92242E+03
  7.69299E+03  1.50848E+04 -9.19883E+03  1.28484E+04 -1.70264E+04  2.48068E+03 -1.29019E+04 -1.05808E+04
 -2.64353E+02 -1.57301E+04  8.05378E+03 -1.17300E+04  1.07230E+04 -1.20049E+03  2.32802E+03  6.87003E+03
 -7.25480E+03  2.44481E+03 -6.32326E+03 -5.49437E+03 -7.05490E+02 -1.42437E+04  9.68798E+03 -1.49720E+04
  1.72243E+04 -7.85906E+03  1.92135E+04  2.99675E+03  1.60498E+04  1.38649E+04  7.64693E+03  2.16653E+04
 -3.45101E+03  2.30406E+04 -1.45945E+04  1.44118E+04 -1.65197E+04  3.50651E+03 -1.18532E+04 -3.70065E+03
 -5.70576E+03 -5.37326E+03 -6.51227E+02  8.69347E+02 -2.50966E+03  2.65833E+03 -5.53032E+03  4.38115E+03
 -1.07017E+04 -6.05363E+02 -1.16016E+04 -9.23456E+03 -4.79294E+03 -1.56026E+04  5.31025E+03 -1.18064E+04
  9.95218E+03 -5.31498E+03  7.07871E+03  3.15370E+03 -4.03873E+01  4.49854E+03 -5.63612E+03 -1.35123E+02
 -5.38226E+03 -7.60962E+03 -7.19486E+02 -1.10831E+04  6.36473E+03 -1.18186E+04  1.46916E+04 -6.06936E+03
  1.72914E+04  1.64944E+03  1.25119E+04  9.77548E+03  2.69414E+03  1.34616E+04 -7.31176E+03  1.14262E+04
 -9.67778E+03  3.41999E+03 -5.13791E+03 -2.14579E+03  1.74971E+03 -3.23166E+03  6.51263E+03 -1.08198E+03
  5.49679E+03  5.20862E+03  1.14140E+03  9.13775E+03 -6.59595E+03  8.62887E+03 -1.15164E+04  2.35539E+03
 -7.40521E+03 -5.62339E+03  2.90046E+02 -9.38723E+03  6.27870E+03 -4.95521E+03  6.17293E+03  1.92363E+03
  1.20642E+03  6.16669E+03 -6.10846E+03  7.56566E+03 -8.71785E+03  3.55980E+03 -8.59726E+03 -2.88065E+03
 -5.10792E+03 -1.02118E+04  2.51987E+03 -1.18848E+04  1.02539E+04 -7.40594E+03  1.09689E+04  2.21113E+03
  6.91771E+03  8.74580E+03 -7.18591E+02  1.12533E+04 -7.84843E+03  6.09952E+03 -8.56026E+03 -9.41348E+02
 -8.03529E+03 -7.63588E+03 -1.74656E+03 -7.80664E+03  4.13249E+03 -6.83801E+03  4.96555E+03 -3.50738E+03
  3.74025E+03  9.28475E+02 -1.06194E+02  1.75510E+03  6.04317E+01 -1.52016E+03  1.45450E+03 -4.06372E+03
  7.07879E+03 -2.49258E+03  1.00707E+04  1.03884E+03  9.65831E+03  6.34380E+03  7.08898E+03  1.26806E+04
 -2.96964E+03  1.50615E+04 -1.25885E+04  1.13315E+04 -1.65821E+04  2.16454E+03 -1.31325E+04 -5.49924E+03
 -6.83678E+03 -1.08546E+04 -3.89125E+02 -8.91111E+03  3.49800E+03 -4.49976E+03  3.43143E+03 -3.30527E+03
  2.31820E+03 -2.29115E+03  2.95784E+03 -2.98140E+03  4.64967E+03 -2.06716E+03  5.86232E+03 -4.96443E+02
  7.09901E+03  2.10205E+03  3.44548E+03  5.82300E+03 -1.84279E+03  6.44197E+03 -7.17334E+03  5.33687E+03
 -8.65550E+03 -1.27373E+03 -5.05680E+03 -6.21997E+03 -4.72897E+02 -8.99941E+03  5.50776E+03 -9.69191E+03
  9.74396E+03 -5.79418E+03  1.16473E+04  1.21145E+03  8.17015E+03  7.97071E+03  1.65246E+03  1.05636E+04
 -4.01987E+03  9.23900E+03 -6.20755E+03  2.97360E+03 -4.13919E+03 -1.14569E+03 -1.58149E+03 -9.29196E+02
 -5.98002E+02 -3.32828E+01 -1.31936E+03  2.38307E+03 -3.99687E+03  1.47409E+03 -6.59782E+03 -9.72775E+02
 -4.02442E+03 -6.16874E+03  3.37564E+02 -8.45438E+03  4.99785E+03 -8.17342E+03  7.74998E+03 -2.25200E+03
  8.08290E+03  4.03404E+03  3.83384E+03  7.38204E+03 -1.76210E+03  8.33654E+03 -5.67479E+03  5.30838E+03
 -7.73581E+03  7.85285E+02 -6.08170E+03 -5.01807E+03 -6.58262E+02 -6.69161E+03  3.30316E+03 -4.95759E+03
  5.19816E+03 -2.13882E+03  3.58839E+03  1.21231E+03  1.21878E+03  2.66218E+03  1.11651E+03  7.75151E+02
  2.37484E+03  7.24003E+02  1.85624E+03  1.33252E+03  2.26761E+03  3.35837E+03  2.14608E+03  4.05996E+03
 -2.11507E+03  6.04998E+03 -5.19165E+03  6.91746E+03 -7.72863E+03  2.06724E+03 -8.38685E+03 -2.41273E+03
 -3.53547E+03 -7.98733E+03  1.16256E+03 -9.09285E+03  4.76549E+03 -5.24857E+03  6.40786E+03 -1.61951E+03
  4.93319E+03  3.39564E+03  9.96521E+02  4.61821E+03 -1.70524E+03  2.75039E+03 -2.76720E+03 -5.74198E+02
 -1.45125E+03 -3.35049E+03  2.23732E+03 -3.28034E+03  2.87400E+03 -1.71256E+03  2.94488E+03  9.53046E+02
  1.64735E+03  9.43436E+02  8.21382E+02  7.13331E+02 -3.58520E+02  1.22396E+03  1.64427E+03 -3.78213E+02
  7.35551E+02 -2.23606E+02  3.00543E+03  1.42517E+03  1.74731E+03  4.48522E+03 -6.59998E+02  5.56061E+03
 -3.87793E+03  3.06534E+03 -4.38989E+03  9.12948E+02 -4.27009E+03 -1.42818E+03 -1.29261E+03 -2.75860E+03
  6.52977E+02 -2.93302E+03  2.00231E+03 -1.43018E+03  1.62183E+03  2.15294E+03 -9.05048E+02  2.64720E+03
 -3.28853E+03  1.32889E+03 -3.29076E+03 -2.01291E+03 -1.65605E+03 -4.40556E+03  7.68152E+02 -3.77638E+03
  2.27448E+03 -2.19515E+03  2.42022E+03  2.75366E+02  2.28952E+03  7.80228E+02  3.06533E+02  2.37806E+03
 -1.33690E+03  2.78358E+02 -1.58620E+03 -1.01370E+03  8.88226E+02 -2.75789E+03  3.51438E+03 -2.13037E+03
  4.00855E+03  1.04365E+02  4.91750E+03  2.60503E+03  1.82907E+03  4.53807E+03 -1.02601E+03  4.47659E+03
 -3.15007E+03  1.31221E+03 -3.65873E+03 -4.34446E+02 -1.82915E+03 -2.87794E+03  8.19720E+02 -2.51703E+03
  3.12346E+03 -1.43017E+03  1.92707E+03  1.40384E+03  5.74612E+02  2.39595E+03 -8.20744E+01  2.47122E+03
 -1.08629E+03  1.59683E+03 -1.10333E+03  1.19207E+02 -2.99223E+02  5.95646E+02 -1.25110E+03  9.70062E+02
 -1.19166E+03  2.09622E+03 -3.25042E+03  1.30742E+03 -4.53032E+03  3.66347E+02 -4.83552E+03 -2.81120E+03
 -2.51113E+03 -5.67802E+03  1.13787E+03 -6.64432E+03  3.59584E+03 -5.21575E+03  6.26917E+03 -1.88402E+03
  5.80667E+03  5.12759E+02  3.14554E+03  3.63552E+03 -3.38754E+02  4.05659E+03 -1.55043E+03  3.09947E+03
 -2.51522E+03  1.18452E+03 -1.71644E+03 -5.05641E+02 -8.10432E+02 -6.22443E+01 -4.27810E+02  2.84764E+01
 -1.25767E+03  3.23593E+01 -1.16974E+03 -2.31544E+02 -7.58358E+01 -1.32295E+03 -8.02540E+01 -1.39442E+03
  2.10051E+03 -1.33881E+03  2.05511E+03 -3.63305E+01  2.86060E+03  2.54027E+03  3.17807E+01  3.79801E+03
 -2.15811E+03  5.17639E+03 -4.31904E+03  2.78203E+03 -4.69968E+03 -5.18108E+02 -3.57510E+03 -2.96605E+03
 -1.85618E+03 -4.36798E+03  1.04097E+03 -3.70278E+03  2.17928E+03 -1.78285E+03  2.27756E+03  5.96420E+01
  1.52368E+03  1.13580E+03  1.68969E+01  7.54151E+02 -9.41501E+02 -1.92226E+02 -2.50864E+01 -7.46755E+02
  1.25296E+03 -3.19735E+02  1.05903E+03  7.59286E+02  9.76548E+02  1.47965E+03  3.00692E+02  1.78400E+03
 -1.78000E+03  1.85782E+03 -2.41538E+03  3.70303E+02 -2.01964E+03 -1.88184E+03 -3.03748E+01 -3.12572E+03
  1.80506E+03 -2.59389E+03  2.39529E+03 -7.65850E+02  2.96831E+03  2.07479E+02  1.41536E+03  2.13338E+03
  8.84443E+02  2.09527E+03 -8.59775E+02  1.83401E+03 -1.43817E+03  1.34530E+03 -1.26519E+03 -2.90798E+01
 -8.29155E+02 -2.52928E+02 -6.44972E+02  3.33463E+02 -1.36878E+03  1.25814E+02 -2.10536E+03 -4.23459E+02
 -1.93363E+03 -6.05423E+02 -5.14734E+02 -2.34670E+03  1.52579E+03 -3.04349E+03  2.17976E+03 -1.33142E+03
  2.32485E+03  2.68582E+02  5.85183E+02  1.37934E+03 -4.45848E+02  2.71630E+03 -1.42719E+03  1.66477E+03
