 $NMID ID='MM_0lb_SNR800_18hz_g40_86.RAW', FMTDAT='(8E13.5)'
 TRAMP=1., VOLUME=1. $END
  3.09846E+05  2.44244E+02  3.37226E+05  2.50382E+05  8.42473E+04  3.37258E+05 -1.32682E+05  2.50258E+05
 -1.89808E+05  8.22203E+04 -1.10686E+05 -3.29405E+04  1.46326E+03 -5.01933E+04  5.37481E+04  3.90910E+02
  3.51261E+04  5.27128E+04 -1.68612E+04  7.48413E+04 -6.02170E+04  6.26390E+04 -8.28775E+04  3.14487E+04
 -7.92173E+04 -1.12907E+04 -5.61180E+04 -5.02728E+04 -1.51948E+04 -6.83447E+04  2.66022E+04 -4.46581E+04
  3.90268E+04  4.20737E+03  1.55957E+04  4.69406E+04 -3.36166E+04  4.60942E+04 -6.51244E+04 -6.87216E+02
 -5.16063E+04 -5.61478E+04 -6.16357E+03 -7.49278E+04  3.31878E+04 -5.29654E+04  4.61739E+04 -1.61238E+04
  4.14769E+04  1.11426E+04  3.05384E+04  2.43691E+04  1.58459E+04  2.83386E+04 -4.77426E+03  2.68464E+04
 -2.16940E+04  1.28781E+04 -1.93390E+04 -4.23446E+03  4.27898E+03 -7.49753E+03  2.11081E+04  1.08702E+04
  7.35744E+03  3.31580E+04 -3.01996E+04  3.36944E+04 -6.08297E+04  2.45781E+03 -5.52120E+04 -4.09570E+04
 -1.25330E+04 -6.04086E+04  3.78492E+04 -4.31751E+04  5.51444E+04 -1.89457E+03  3.14994E+04  3.01537E+04
 -6.67334E+03  3.27690E+04 -2.80720E+04  1.30941E+04 -2.70687E+04 -5.55419E+03 -1.43714E+04 -1.00192E+04
 -6.67975E+03 -1.13242E+04 -9.56898E+02 -1.66220E+04  6.49196E+03 -2.25339E+04  1.49491E+04 -1.38066E+04
  1.23981E+04  4.08871E+03 -5.74004E+03  1.31732E+04 -1.92324E+04 -2.26461E+03 -8.25820E+03 -3.01408E+04
  2.07104E+04 -4.03037E+04  4.44247E+04 -1.85103E+04  4.17930E+04  1.81317E+04  1.40803E+04  4.13251E+04
 -1.51469E+04  3.09702E+04 -2.31071E+04  1.03753E+03 -8.07029E+03 -2.61019E+04  2.04461E+04 -3.11072E+04
  3.77315E+04 -7.36276E+03  3.09951E+04  2.22651E+04  1.50439E+04  4.20038E+04 -8.04579E+03  4.48100E+04
 -2.80260E+04  2.97829E+04 -3.69065E+04  8.27290E+03 -3.80082E+04 -1.50200E+04 -2.10134E+04 -3.41064E+04
  6.95166E+03 -3.36017E+04  2.87902E+04 -1.26303E+04  2.66925E+04  1.09253E+04  2.94430E+03  1.75047E+04
 -1.29360E+04  7.45949E+03 -9.52125E+03 -7.86646E+03  5.84105E+03 -9.96214E+03  1.74299E+04  6.51455E+03
  1.20975E+04  2.15522E+04 -6.66124E+03  2.31870E+04 -2.14220E+04  8.77755E+03 -2.49071E+04 -6.49321E+03
 -1.65799E+04 -1.62779E+04 -5.59995E+03 -1.63240E+04  3.94029E+03 -1.45480E+04  1.21738E+04 -1.42684E+04
  2.08437E+04 -1.17300E+04  2.78847E+04  8.42744E+02  2.10052E+04  1.60827E+04  4.07376E+03  3.22147E+04
 -1.60725E+04  2.75752E+04 -2.57615E+04  9.59359E+03 -1.94523E+04 -1.05334E+04 -3.82683E+03 -1.41899E+04
  2.67153E+03 -4.38246E+03 -2.48092E+03  5.23727E+03 -1.28776E+04  5.15005E+03 -1.31074E+04 -4.90025E+03
 -8.72991E+03 -1.52359E+04  4.33443E+03 -1.91181E+04  1.23636E+04 -1.38119E+04  1.43273E+04 -1.56295E+03
  8.60260E+03  1.05607E+04 -5.95229E+02  1.58013E+04 -1.00472E+04  8.71025E+03 -1.48328E+04 -3.43513E+03
 -1.13949E+04 -1.40524E+04 -1.39570E+03 -1.88262E+04  8.45731E+03 -1.52562E+04  1.59951E+04 -7.32915E+03
  1.43097E+04  8.13112E+02  1.00541E+04  3.97189E+03  4.92679E+03  4.80206E+02  7.55128E+03 -1.29627E+03
  1.38981E+04  2.49093E+03  1.46569E+04  1.27068E+04  9.00956E+03  2.45125E+04 -3.13546E+03  2.61864E+04
 -1.54578E+04  2.00081E+04 -2.42567E+04  9.39656E+03 -2.47513E+04 -1.71494E+03 -2.12097E+04 -1.41066E+04
 -9.97027E+03 -2.01607E+04  6.61443E+03 -1.88695E+04  1.64761E+04 -1.06484E+04  1.55397E+04  3.71670E+03
  6.43516E+03  1.11069E+04 -7.12814E+03  1.02023E+04 -1.32634E+04  2.55131E+03 -1.04605E+04 -7.90501E+03
  1.57359E+02 -1.22363E+04  6.04418E+03 -9.45274E+03  7.56467E+03 -1.34206E+03  1.39405E+03  4.90488E+03
 -5.61265E+03  1.56842E+03 -3.61195E+03 -4.53394E+03  8.37237E+02 -1.02929E+04  7.86557E+03 -9.78745E+03
  1.22880E+04 -4.67445E+03  1.17758E+04  2.74762E+03  1.00824E+04  9.36648E+03  4.74238E+03  1.36198E+04
 -1.44536E+03  1.55448E+04 -9.32139E+03  1.02190E+04 -1.13198E+04  2.87005E+03 -8.24591E+03 -1.81600E+03
 -4.45958E+03 -3.40423E+03 -8.22103E+02  1.39088E+03 -1.85019E+03  1.81672E+03 -3.46003E+03  3.68864E+03
 -8.18419E+03 -2.92637E+02 -8.94516E+03 -7.17872E+03 -3.62201E+03 -1.14066E+04  3.62402E+03 -8.46508E+03
  7.02716E+03 -3.70354E+03  5.27870E+03  2.10383E+03  8.97929E+02  2.88930E+03 -3.18593E+03  1.28308E+01
 -3.42028E+03 -4.97073E+03 -9.91947E+02 -7.27321E+03  3.82441E+03 -7.85758E+03  9.85504E+03 -4.07027E+03
  1.17271E+04  7.85270E+02  8.88606E+03  6.03765E+03  1.70453E+03  8.87210E+03 -5.09227E+03  8.35599E+03
 -6.98670E+03  2.86314E+03 -3.29893E+03 -1.12306E+03  1.30792E+03 -1.71782E+03  4.57964E+03 -9.97802E+02
  3.87997E+03  3.12904E+03  1.11623E+03  6.19906E+03 -4.45192E+03  6.34616E+03 -7.91987E+03  1.97816E+03
 -4.95392E+03 -3.73807E+03  3.19525E+02 -6.76481E+03  3.94673E+03 -3.18660E+03  3.64230E+03  9.60014E+02
  9.75325E+01  3.37683E+03 -4.19957E+03  4.96861E+03 -4.62294E+03  2.42725E+03 -4.53821E+03 -9.29356E+02
 -2.93066E+03 -5.85178E+03  1.17855E+03 -6.85850E+03  5.96760E+03 -4.90745E+03  6.71026E+03  7.35833E+02
  4.55724E+03  5.25127E+03  7.00962E+01  7.25621E+03 -5.01910E+03  4.23154E+03 -5.64276E+03 -4.33090E+02
 -5.80331E+03 -4.98377E+03 -1.32143E+03 -5.00347E+03  2.36024E+03 -4.76013E+03  2.99829E+03 -2.71814E+03
  2.83126E+03  7.51020E+00 -6.65755E+01  1.52016E+03  6.29447E+02 -2.21538E+02  3.15815E+02 -2.00612E+03
  3.90165E+03 -5.28465E+02  5.15095E+03  5.56636E+02  5.63668E+03  3.08897E+03  5.30093E+03  6.99470E+03
 -1.53070E+03  8.43648E+03 -7.84135E+03  6.69183E+03 -9.85941E+03  9.97329E+02 -7.94106E+03 -2.46069E+03
 -4.26458E+03 -6.52833E+03 -4.25367E+02 -5.22611E+03  2.16368E+03 -2.24010E+03  1.72227E+03 -1.84480E+03
  1.11976E+03 -1.61157E+03  2.12033E+03 -2.36778E+03  3.44308E+03 -1.41130E+03  3.55521E+03  2.45144E+02
  4.64824E+03  1.34121E+03  1.26251E+03  3.54450E+03 -1.72818E+03  2.97008E+03 -4.26213E+03  2.75206E+03
 -4.86546E+03 -1.18828E+03 -1.81382E+03 -3.36273E+03  5.38263E+02 -5.08441E+03  2.91624E+03 -5.57062E+03
  5.21744E+03 -3.34939E+03  7.09818E+03  1.72689E+02  4.82073E+03  4.20109E+03  1.00516E+03  6.16343E+03
 -2.29196E+03  5.82813E+03 -3.23004E+03  1.82765E+03 -1.79648E+03 -1.16758E+03 -4.19972E+02 -7.98934E+02
 -3.71967E+02  7.88619E+02 -9.16382E+02  1.95074E+03 -2.20676E+03  1.03783E+03 -4.25266E+03 -6.17834E+02
 -1.85616E+03 -4.04740E+03  7.64451E+02 -4.80182E+03  2.83909E+03 -4.32607E+03  3.55078E+03 -9.58264E+02
  4.25755E+03  2.41631E+03  1.89520E+03  3.17480E+03 -7.86617E+02  4.61996E+03 -2.79102E+03  2.56451E+03
 -3.79647E+03  4.33959E+02 -3.61301E+03 -2.55966E+03  3.85877E+01 -3.37335E+03  1.59608E+03 -2.83203E+03
  2.80603E+03 -1.22328E+03  2.03507E+03  5.81279E+02  3.96798E+02  1.78626E+03  1.02312E+03  7.87312E+02
  1.76439E+03  7.09632E+02  1.32428E+03  8.11444E+02  1.00006E+03  2.50951E+03  1.27729E+03  2.00812E+03
 -1.28330E+03  2.77233E+03 -2.41849E+03  4.03811E+03 -3.09138E+03  1.53074E+03 -4.29360E+03 -5.09099E+02
 -1.53477E+03 -3.78652E+03  7.08710E+02 -4.67425E+03  2.12555E+03 -2.62244E+03  3.35673E+03 -8.93737E+02
  2.33663E+03  1.85477E+03  6.33912E+02  2.35445E+03 -8.39354E+02  1.23811E+03 -1.01391E+03 -1.34152E+02
 -6.60365E+02 -1.37160E+03  1.25424E+03 -1.45560E+03  1.56046E+03 -8.01814E+02  1.51793E+03  5.66705E+02
  1.12409E+03  4.20999E+02  7.76265E+02 -4.30060E+02 -5.69508E+01  8.12626E+02  1.66634E+03  5.77901E+01
  1.66783E+02 -1.26720E+02  1.84737E+03  6.72240E+02  5.30832E+02  2.37267E+03 -1.98779E+02  2.97660E+03
 -1.68866E+03  1.15223E+03 -2.07436E+03  3.45440E+02 -2.31968E+03 -8.53627E+02 -3.93539E+02 -9.65110E+02
  3.31525E+02 -1.32672E+03  8.27220E+02 -6.87920E+02  5.54514E+02  9.94710E+02 -8.83606E+02  1.39179E+03
 -1.51246E+03  9.56520E+02 -9.65742E+02 -1.34300E+03 -5.63660E+02 -2.33060E+03  1.94474E+02 -1.63699E+03
  3.94322E+02 -8.29081E+02  9.91262E+02  1.85821E+02  1.41950E+03  8.22998E+01  4.09306E+02  1.31071E+03
 -4.98323E+02  1.27484E+02 -9.01960E+02  2.40350E+01  9.32345E+02 -6.10813E+02  1.97661E+03 -7.31609E+02
  1.46601E+03  4.94645E+01  2.84136E+03  8.57678E+02  1.23757E+03  1.45208E+03 -4.64431E+02  1.96979E+03
 -1.84225E+03  2.54886E+02 -1.39274E+03  1.57807E+02 -9.80735E+02 -1.38185E+03  4.19138E+02 -6.36765E+02
  1.72911E+03 -7.07300E+02  1.05349E+03  5.43039E+02  2.16650E+02  1.44500E+03  1.92344E+02  1.28922E+03
 -4.53923E+02  1.22719E+03 -5.05243E+02  1.97962E+02  9.22431E+01  4.85004E+02 -6.12118E+02  6.36037E+02
 -8.50289E+02  8.17818E+02 -1.82013E+03  4.99140E+02 -1.77287E+03  7.04543E+01 -2.47974E+03 -8.80839E+02
 -9.57205E+02 -2.78212E+03  5.29304E+02 -3.05848E+03  1.26282E+03 -2.43125E+03  2.88977E+03 -8.31900E+02
  2.60116E+03 -4.35347E+01  1.26396E+03  1.73821E+03 -4.56399E+02  1.51904E+03 -7.30868E+02  1.40021E+03
 -1.16184E+03  9.33056E+02 -5.72415E+02 -1.97728E+01 -6.02223E+02  1.45053E+02 -6.13958E+02  2.95838E+02
 -1.13181E+03  1.86885E+01 -8.56378E+02 -6.40839E+00  1.55537E+02 -7.66873E+02 -6.87255E+01 -8.40446E+02
  1.00017E+03 -7.27572E+02  5.61142E+02  1.23930E+02  1.28113E+03  1.20339E+03 -3.67006E+02  1.49829E+03
 -6.61943E+02  2.56919E+03 -1.64479E+03  1.17254E+03 -1.89665E+03 -2.75900E+02 -1.39664E+03 -1.25424E+03
 -8.10717E+02 -1.40786E+03  1.54483E+02 -1.26857E+03  9.58710E+02 -7.21823E+02  8.12618E+02  3.31087E+02
  6.10356E+02  3.44678E+02 -2.15859E+01  5.59271E+02 -5.52890E+02 -5.58232E+01  2.34816E+02 -3.20255E+02
  5.38270E+02 -1.25020E+02  3.86919E+02  5.05191E+02  2.42533E+02  5.58974E+02  5.90987E+02  2.99050E+02
 -5.85719E+02  5.66544E+02 -8.23248E+02 -4.43205E+01 -1.05605E+03 -5.66943E+02  3.74880E+02 -1.56433E+03
  6.35863E+02 -9.71154E+02  4.17702E+02  1.23054E+02  1.06942E+03 -5.25622E+02  4.57580E+02  6.42161E+02
  6.48891E+02  5.89397E+02 -3.84301E+02  7.40192E+02 -8.41043E+02  7.06305E+02 -3.75825E+02  1.79950E+02
 -2.59301E+02 -8.23199E+01 -5.49660E+02  2.44239E+02 -6.25031E+02 -8.36304E+01 -9.70029E+02 -2.63604E+02
 -1.00474E+03  1.37798E+02 -1.66693E+02 -1.31654E+03  8.16058E+02 -1.47835E+03  8.26089E+02 -4.47822E+02
  8.81228E+02 -1.99383E+02 -3.04612E+02  5.03025E+02  2.31535E+02  1.24723E+03 -5.40075E+02  7.13977E+02
