 $NMID ID='MM_0lb_SNR800_16hz_g40_78.RAW', FMTDAT='(8E13.5)'
 TRAMP=1., VOLUME=1. $END
  3.10062E+05  3.13347E+02  3.37528E+05  2.50390E+05  8.45195E+04  3.37713E+05 -1.32758E+05  2.50399E+05
 -1.90208E+05  8.26736E+04 -1.11154E+05 -3.25352E+04  1.31975E+03 -4.99835E+04  5.37358E+04  1.78111E+02
  3.53444E+04  5.26068E+04 -1.67380E+04  7.49571E+04 -6.05705E+04  6.30102E+04 -8.33030E+04  3.17536E+04
 -8.00606E+04 -1.14360E+04 -5.64277E+04 -5.04613E+04 -1.49376E+04 -6.87230E+04  2.70315E+04 -4.50517E+04
  3.93461E+04  3.72959E+03  1.59406E+04  4.75975E+04 -3.40543E+04  4.66595E+04 -6.59540E+04 -8.56378E+02
 -5.23001E+04 -5.57864E+04 -6.43993E+03 -7.60374E+04  3.34188E+04 -5.36979E+04  4.64453E+04 -1.64567E+04
  4.20350E+04  1.12005E+04  3.10166E+04  2.47401E+04  1.57290E+04  2.89161E+04 -4.90791E+03  2.70476E+04
 -2.19197E+04  1.26365E+04 -1.87823E+04 -4.45563E+03  4.67390E+03 -7.39039E+03  2.17111E+04  1.10265E+04
  7.22175E+03  3.39587E+04 -3.11776E+04  3.47305E+04 -6.17639E+04  2.12845E+03 -5.58563E+04 -4.14405E+04
 -1.25442E+04 -6.15864E+04  3.90120E+04 -4.38229E+04  5.60856E+04 -2.05254E+03  3.24801E+04  3.12336E+04
 -6.47347E+03  3.38273E+04 -2.88136E+04  1.42506E+04 -2.83015E+04 -5.08349E+03 -1.50638E+04 -1.05270E+04
 -7.35742E+03 -1.17302E+04 -8.35475E+02 -1.68978E+04  6.94399E+03 -2.27053E+04  1.51603E+04 -1.35006E+04
  1.18423E+04  4.62511E+03 -6.80438E+03  1.29141E+04 -1.98077E+04 -3.31205E+03 -8.04902E+03 -3.14787E+04
  2.13284E+04 -4.13458E+04  4.57774E+04 -1.88372E+04  4.31308E+04  1.86760E+04  1.43968E+04  4.23955E+04
 -1.56347E+04  3.20010E+04 -2.40730E+04  1.29175E+03 -8.91338E+03 -2.66780E+04  2.04399E+04 -3.21002E+04
  3.91365E+04 -7.64334E+03  3.24404E+04  2.30385E+04  1.63550E+04  4.37004E+04 -7.85658E+03  4.68968E+04
 -2.95515E+04  3.09570E+04 -3.86766E+04  8.45317E+03 -3.95560E+04 -1.55271E+04 -2.21912E+04 -3.51642E+04
  6.97193E+03 -3.52219E+04  2.98195E+04 -1.30628E+04  2.77335E+04  1.04159E+04  3.40676E+03  1.82334E+04
 -1.35210E+04  7.68460E+03 -9.90959E+03 -7.39422E+03  5.95799E+03 -1.03165E+04  1.72869E+04  6.27311E+03
  1.26117E+04  2.21906E+04 -6.35004E+03  2.37420E+04 -2.18218E+04  1.01460E+04 -2.61716E+04 -5.57067E+03
 -1.81240E+04 -1.66013E+04 -6.67322E+03 -1.81289E+04  3.79733E+03 -1.61341E+04  1.35372E+04 -1.57619E+04
  2.27433E+04 -1.18853E+04  2.95076E+04  1.36796E+03  2.18418E+04  1.73253E+04  4.45040E+03  3.36539E+04
 -1.63930E+04  2.85539E+04 -2.64952E+04  9.69789E+03 -2.00144E+04 -1.02609E+04 -3.93929E+03 -1.36878E+04
  2.33513E+03 -3.69002E+03 -3.36978E+03  5.62932E+03 -1.40871E+04  5.18251E+03 -1.43327E+04 -5.92169E+03
 -9.09179E+03 -1.65622E+04  5.07716E+03 -2.03827E+04  1.33780E+04 -1.49213E+04  1.57240E+04 -1.35182E+03
  9.63152E+03  1.17183E+04 -9.13706E+02  1.68472E+04 -1.11508E+04  9.46715E+03 -1.63896E+04 -3.77907E+03
 -1.27775E+04 -1.51499E+04 -1.34940E+03 -2.01109E+04  9.39813E+03 -1.65701E+04  1.72050E+04 -8.24318E+03
  1.56729E+04  5.08769E+02  1.13370E+04  3.81207E+03  5.89282E+03  7.83165E+02  8.22908E+03 -1.36063E+03
  1.51588E+04  2.66937E+03  1.64995E+04  1.34776E+04  1.02474E+04  2.66740E+04 -2.87740E+03  2.94738E+04
 -1.71408E+04  2.28123E+04 -2.72824E+04  1.08159E+04 -2.81185E+04 -1.66255E+03 -2.37149E+04 -1.59109E+04
 -1.07668E+04 -2.26290E+04  7.71922E+03 -2.11739E+04  1.81653E+04 -1.17149E+04  1.72005E+04  3.99845E+03
  6.78955E+03  1.23597E+04 -7.87565E+03  1.13399E+04 -1.41245E+04  2.45661E+03 -1.12945E+04 -8.52253E+03
 -1.90248E+02 -1.35324E+04  6.80946E+03 -9.99110E+03  8.72504E+03 -1.55906E+03  1.97294E+03  5.33074E+03
 -5.79842E+03  2.07123E+03 -4.57744E+03 -5.14035E+03 -9.61883E+01 -1.15643E+04  8.18165E+03 -1.15603E+04
  1.39138E+04 -5.79903E+03  1.43049E+04  2.97754E+03  1.22868E+04  1.10503E+04  5.83452E+03  1.64720E+04
 -2.09944E+03  1.81703E+04 -1.14858E+04  1.17278E+04 -1.29425E+04  2.89821E+03 -9.51321E+03 -2.59739E+03
 -5.02857E+03 -3.84638E+03 -5.70298E+02  1.45363E+03 -2.06227E+03  2.27378E+03 -4.14795E+03  4.04241E+03
 -8.85022E+03 -4.57836E+02 -9.76052E+03 -7.87375E+03 -3.86442E+03 -1.25801E+04  4.05674E+03 -9.62738E+03
  7.91862E+03 -4.21836E+03  5.72146E+03  2.27468E+03  5.93524E+02  3.47457E+03 -4.17629E+03 -4.24322E+01
 -4.11788E+03 -5.46675E+03 -7.02181E+02 -8.41876E+03  4.87168E+03 -9.41007E+03  1.15955E+04 -4.49497E+03
  1.35621E+04  9.74938E+02  1.01496E+04  7.20172E+03  2.02530E+03  1.03335E+04 -5.81737E+03  9.26646E+03
 -7.52714E+03  3.06600E+03 -4.18725E+03 -1.72924E+03  1.27174E+03 -2.13133E+03  5.10005E+03 -1.00567E+03
  4.59472E+03  3.86659E+03  1.09995E+03  7.21805E+03 -5.21549E+03  7.23295E+03 -8.68937E+03  2.06283E+03
 -5.76800E+03 -4.40776E+03  3.21726E+02 -7.66160E+03  4.29456E+03 -3.91539E+03  4.46099E+03  1.23873E+03
  6.27232E+02  4.26831E+03 -4.62612E+03  5.56356E+03 -5.75872E+03  2.56453E+03 -5.90723E+03 -1.78977E+03
 -4.04159E+03 -7.35562E+03  1.42330E+03 -8.64818E+03  7.40387E+03 -5.56271E+03  7.96796E+03  1.29489E+03
  5.47417E+03  6.78360E+03  1.57290E+00  8.53950E+03 -5.96830E+03  4.86136E+03 -6.57367E+03 -3.16030E+02
 -6.47410E+03 -6.04343E+03 -1.51629E+03 -5.74870E+03  2.79653E+03 -5.33805E+03  3.69641E+03 -2.89106E+03
  3.04500E+03  2.22297E+02 -3.14688E+02  1.17617E+03  3.86699E+02 -5.47833E+02  5.34070E+02 -2.65935E+03
  5.01640E+03 -1.43219E+03  6.83091E+03  9.97000E+02  7.08012E+03  4.29268E+03  6.07869E+03  9.21363E+03
 -1.57333E+03  1.09518E+04 -9.64264E+03  8.11876E+03 -1.22037E+04  1.45189E+03 -9.72251E+03 -3.80120E+03
 -5.06876E+03 -7.94509E+03 -7.65190E+02 -6.51360E+03  2.41648E+03 -3.25493E+03  2.03714E+03 -2.41590E+03
  1.63008E+03 -1.75873E+03  2.51388E+03 -2.68804E+03  4.05720E+03 -1.65184E+03  4.06486E+03  1.21891E+02
  5.17528E+03  1.44698E+03  2.03663E+03  4.16469E+03 -1.97059E+03  4.14223E+03 -5.47124E+03  3.63699E+03
 -6.31356E+03 -1.39216E+03 -2.93379E+03 -4.20033E+03  2.60239E+02 -6.62314E+03  4.14683E+03 -6.53467E+03
  6.66992E+03 -4.39679E+03  8.48877E+03  5.61412E+02  6.24977E+03  5.53346E+03  1.31722E+03  7.61944E+03
 -3.12704E+03  7.12554E+03 -4.16911E+03  2.39628E+03 -2.69613E+03 -1.21818E+03 -9.76876E+02 -8.29012E+02
 -4.88180E+02  2.14153E+02 -1.01305E+03  2.08879E+03 -3.19001E+03  1.03452E+03 -4.75545E+03 -5.13872E+02
 -2.51725E+03 -5.09286E+03  6.78667E+02 -5.97415E+03  3.67345E+03 -5.85021E+03  5.09440E+03 -1.38206E+03
  5.68527E+03  3.10231E+03  2.50829E+03  4.81089E+03 -9.84914E+02  5.76810E+03 -3.79567E+03  3.65319E+03
 -5.57764E+03  4.39854E+02 -4.59856E+03 -3.48812E+03 -1.86630E+02 -4.26236E+03  2.29587E+03 -3.50474E+03
  3.90630E+03 -1.70609E+03  2.38583E+03  5.88243E+02  7.29863E+02  2.02021E+03  9.90029E+02  7.63368E+02
  1.71092E+03  7.39706E+02  1.69131E+03  1.23886E+03  1.21178E+03  2.84370E+03  1.85099E+03  2.69004E+03
 -1.52989E+03  4.48020E+03 -3.38624E+03  5.37839E+03 -4.88598E+03  1.60761E+03 -5.55241E+03 -1.40812E+03
 -2.79882E+03 -5.24213E+03  8.12046E+02 -6.73300E+03  3.04253E+03 -3.75276E+03  4.68888E+03 -1.12005E+03
  3.18100E+03  2.44811E+03  9.71985E+02  2.91931E+03 -1.22711E+03  1.60496E+03 -1.83256E+03 -7.74378E+01
 -7.25117E+02 -1.98711E+03  1.23069E+03 -1.95863E+03  1.87808E+03 -1.33951E+03  1.93800E+03  3.98975E+02
  9.92570E+02  8.46735E+02  9.18536E+02  5.39645E+01 -3.26450E+02  9.41431E+02  1.45561E+03 -2.95067E+02
  5.87549E+02 -3.27898E+02  2.53554E+03  7.83155E+02  3.29857E+02  3.27758E+03 -5.15854E+02  3.85284E+03
 -2.36083E+03  1.94650E+03 -2.94996E+03  4.00843E+02 -3.03845E+03 -9.83706E+02 -5.12326E+02 -1.64827E+03
  4.73608E+02 -2.05644E+03  1.39974E+03 -1.12802E+03  9.01474E+02  1.55427E+03 -7.70806E+02  1.78243E+03
 -2.24443E+03  1.13240E+03 -2.03099E+03 -1.14485E+03 -1.29273E+03 -2.84652E+03  1.79475E+02 -2.47623E+03
  1.14674E+03 -9.63905E+02  1.51678E+03  2.30554E+02  1.82979E+03  4.58186E+02  4.84516E+02  1.51982E+03
 -9.00559E+02  3.23943E+02 -1.47414E+03 -6.85947E+02  6.67171E+02 -1.40700E+03  2.67472E+03 -1.55291E+03
  2.23120E+03  3.32572E+02  3.21176E+03  1.54745E+03  1.48324E+03  2.79763E+03 -6.22210E+02  2.67151E+03
 -2.20492E+03  8.76340E+02 -2.49686E+03 -5.94724E+02 -1.35838E+03 -2.06130E+03  4.36531E+02 -1.41493E+03
  2.24602E+03 -9.20303E+02  1.30235E+03  8.92870E+02  5.15696E+02  1.76526E+03  1.48262E+02  1.92743E+03
 -6.76310E+02  1.71641E+03 -8.06792E+02  7.24452E+02 -2.06308E+02  3.43739E+02 -7.72791E+02  9.15016E+02
 -1.02634E+03  1.16153E+03 -2.43172E+03  6.23468E+02 -2.70824E+03  7.65628E+01 -3.63280E+03 -1.51530E+03
 -1.60570E+03 -3.63071E+03  8.59353E+02 -4.01575E+03  2.10850E+03 -3.77628E+03  4.30316E+03 -1.57317E+03
  3.62205E+03  2.86979E+01  2.19694E+03  2.69865E+03 -4.81067E+02  2.56600E+03 -1.12004E+03  2.13193E+03
 -1.45986E+03  9.21260E+02 -9.00332E+02 -3.05370E+02 -4.43076E+02  2.10702E+02 -8.02114E+02  3.68879E+01
 -1.41644E+03 -2.62463E+02 -1.24440E+03 -2.95480E+01  5.87029E+01 -6.93063E+02  1.36297E+02 -1.34616E+03
  1.62329E+03 -1.05585E+03  1.33102E+03  1.19212E+02  2.05272E+03  1.86219E+03 -4.95429E+01  2.46624E+03
 -1.52924E+03  3.38849E+03 -2.73975E+03  1.86975E+03 -3.30199E+03 -5.07875E+02 -2.26432E+03 -1.97532E+03
 -1.45542E+03 -2.36454E+03  5.99783E+02 -2.38486E+03  1.54328E+03 -1.06496E+03  1.37912E+03  1.30258E+02
  1.04348E+03  7.89305E+02 -1.69107E+02  5.87287E+02 -5.65602E+02 -3.45045E+01  8.62193E+01 -5.93349E+02
  9.00680E+02  9.56819E+01  8.51631E+02  4.96650E+02  3.10067E+02  9.62840E+02  3.61519E+02  7.80215E+02
 -9.64528E+02  9.36217E+02 -1.20175E+03  1.46119E+02 -1.25642E+03 -1.34737E+03 -1.76155E+02 -1.91054E+03
  1.07580E+03 -1.44436E+03  1.46644E+03  4.20851E+01  1.75718E+03 -2.01187E+02  1.07493E+03  1.45995E+03
  4.53156E+02  9.50448E+02 -1.63204E+02  1.09100E+03 -8.43479E+02  9.48114E+02 -5.43031E+02  1.61291E+02
 -1.80417E+02 -1.83070E+02 -5.33217E+02  1.36964E+02 -6.89113E+02  3.40601E+02 -1.49201E+03 -3.79260E+02
 -1.70840E+03  4.05216E+01 -2.94348E+02 -1.53748E+03  9.57108E+02 -1.95585E+03  1.19141E+03 -6.58340E+02
  1.02617E+03  1.72462E+02 -1.05260E+02  7.08362E+02  2.69362E+01  1.47819E+03 -8.54753E+02  1.16012E+03
