 $NMID ID='MM_0lb_SNR800_11hz_g40_65.RAW', FMTDAT='(8E13.5)'
 TRAMP=1., VOLUME=1. $END
  3.09741E+05  3.03367E+02  3.37495E+05  2.50396E+05  8.44498E+04  3.37929E+05 -1.32726E+05  2.51529E+05
 -1.90457E+05  8.36309E+04 -1.12401E+05 -3.29189E+04  9.40029E+02 -5.05161E+04  5.40519E+04 -5.50273E+02
  3.52775E+04  5.27109E+04 -1.65836E+04  7.55568E+04 -6.09586E+04  6.38598E+04 -8.43242E+04  3.21502E+04
 -8.15657E+04 -1.14792E+04 -5.76022E+04 -5.15534E+04 -1.48965E+04 -6.99191E+04  2.76288E+04 -4.63619E+04
  4.03031E+04  3.50470E+03  1.63683E+04  4.82881E+04 -3.43867E+04  4.73204E+04 -6.72122E+04 -1.04729E+02
 -5.36794E+04 -5.72801E+04 -6.85312E+03 -7.75614E+04  3.42259E+04 -5.57023E+04  4.92937E+04 -1.74581E+04
  4.40163E+04  1.15815E+04  3.24008E+04  2.58662E+04  1.60475E+04  2.99114E+04 -5.33857E+03  2.74154E+04
 -2.22417E+04  1.24117E+04 -1.84344E+04 -5.41492E+03  6.17732E+03 -7.27130E+03  2.29565E+04  1.29892E+04
  7.18227E+03  3.62180E+04 -3.26912E+04  3.58141E+04 -6.43798E+04  2.49590E+03 -5.79343E+04 -4.35866E+04
 -1.27293E+04 -6.41335E+04  4.05008E+04 -4.61663E+04  5.93187E+04 -2.04499E+03  3.48981E+04  3.27927E+04
 -6.10522E+03  3.74512E+04 -3.04093E+04  1.69250E+04 -3.16175E+04 -3.75613E+03 -1.76542E+04 -1.18446E+04
 -8.60071E+03 -1.38462E+04 -5.06302E+02 -1.84050E+04  8.13020E+03 -2.30989E+04  1.59469E+04 -1.30740E+04
  1.11388E+04  5.60029E+03 -9.06745E+03  1.34901E+04 -2.21614E+04 -5.14888E+03 -8.27628E+03 -3.54335E+04
  2.37658E+04 -4.49936E+04  4.97043E+04 -2.00202E+04  4.65829E+04  1.99871E+04  1.63331E+04  4.56972E+04
 -1.62532E+04  3.46562E+04 -2.62450E+04  1.68459E+03 -1.11273E+04 -2.84206E+04  2.13047E+04 -3.53815E+04
  4.21294E+04 -1.01755E+04  3.74742E+04  2.47673E+04  1.94712E+04  4.80805E+04 -7.97917E+03  5.25434E+04
 -3.32433E+04  3.55853E+04 -4.42105E+04  1.03289E+04 -4.43804E+04 -1.73333E+04 -2.45257E+04 -3.97691E+04
  7.20567E+03 -3.96398E+04  3.30387E+04 -1.55423E+04  3.05652E+04  1.11625E+04  4.52951E+03  2.00281E+04
 -1.34628E+04  9.14067E+03 -1.05386E+04 -7.25282E+03  5.59806E+03 -1.10083E+04  1.83305E+04  5.97672E+03
  1.40517E+04  2.21590E+04 -5.80504E+03  2.58904E+04 -2.26412E+04  1.26822E+04 -2.95130E+04 -3.96510E+03
 -2.26612E+04 -1.76788E+04 -9.65481E+03 -2.22763E+04  4.46359E+03 -2.19744E+04  1.73160E+04 -2.01249E+04
  2.84521E+04 -1.35936E+04  3.44597E+04  3.48589E+03  2.50746E+04  2.16028E+04  4.22432E+03  3.82427E+04
 -1.84584E+04  3.18312E+04 -2.89110E+04  1.09672E+04 -2.16588E+04 -1.05402E+04 -4.69283E+03 -1.29213E+04
  1.34547E+03 -2.12002E+03 -5.82417E+03  7.40770E+03 -1.77960E+04  5.46102E+03 -1.77597E+04 -8.12024E+03
 -1.06711E+04 -2.07405E+04  5.56211E+03 -2.50337E+04  1.65372E+04 -1.76263E+04  1.98204E+04 -1.77762E+03
  1.26828E+04  1.42499E+04 -1.08882E+03  2.05582E+04 -1.47073E+04  1.20227E+04 -2.11726E+04 -4.70667E+03
 -1.55761E+04 -1.85887E+04 -2.33866E+03 -2.50088E+04  1.11808E+04 -2.04568E+04  2.08356E+04 -1.01870E+04
  1.96685E+04  2.45055E+02  1.41679E+04  4.59999E+03  7.66467E+03  1.16643E+03  1.08097E+04 -1.90015E+03
  1.94821E+04  2.90478E+03  2.16602E+04  1.63727E+04  1.45630E+04  3.33159E+04 -2.95761E+03  3.83290E+04
 -2.15752E+04  3.09268E+04 -3.62031E+04  1.60341E+04 -3.78129E+04 -2.70649E+03 -3.10737E+04 -2.19193E+04
 -1.26289E+04 -3.16355E+04  1.09422E+04 -2.79507E+04  2.39447E+04 -1.41566E+04  2.14908E+04  6.13784E+03
  7.68284E+03  1.60488E+04 -1.00557E+04  1.37693E+04 -1.78290E+04  2.33038E+03 -1.38886E+04 -1.14196E+04
 -1.40290E+02 -1.69664E+04  8.59800E+03 -1.26801E+04  1.13362E+04 -1.71591E+03  2.69516E+03  7.60647E+03
 -7.89105E+03  2.88609E+03 -7.40314E+03 -6.14850E+03 -1.21978E+03 -1.50832E+04  1.04621E+04 -1.64821E+04
  1.92451E+04 -8.73915E+03  2.15054E+04  3.08687E+03  1.83896E+04  1.51775E+04  8.81322E+03  2.38743E+04
 -4.45385E+03  2.58222E+04 -1.69919E+04  1.63268E+04 -1.87913E+04  3.78797E+03 -1.28463E+04 -4.80275E+03
 -5.69073E+03 -5.76687E+03 -8.74073E+02  8.35024E+02 -2.64939E+03  2.69084E+03 -5.98621E+03  4.74505E+03
 -1.22224E+04 -7.08948E+02 -1.24710E+04 -1.02550E+04 -5.13579E+03 -1.67229E+04  5.44325E+03 -1.29975E+04
  1.07533E+04 -5.38798E+03  7.34107E+03  3.65904E+03 -1.55292E+02  5.27468E+03 -6.49550E+03 -1.46574E+02
 -6.17888E+03 -8.04547E+03 -8.86876E+02 -1.25397E+04  7.28456E+03 -1.36635E+04  1.64358E+04 -6.91422E+03
  1.92522E+04  1.91506E+03  1.43009E+04  1.12594E+04  2.18058E+03  1.58682E+04 -8.08161E+03  1.31326E+04
 -1.09408E+04  4.04804E+03 -5.52180E+03 -2.74531E+03  1.85754E+03 -3.28442E+03  7.33448E+03 -6.75988E+02
  6.39833E+03  5.83303E+03  1.23237E+03  1.04573E+04 -7.49218E+03  1.01318E+04 -1.25082E+04  2.45239E+03
 -8.52076E+03 -6.98908E+03 -1.48320E+02 -1.14144E+04  6.81776E+03 -5.61811E+03  7.08790E+03  2.51441E+03
  1.78981E+03  7.67679E+03 -6.76036E+03  9.06448E+03 -1.06808E+04  4.35772E+03 -1.04783E+04 -3.58795E+03
 -6.14079E+03 -1.24698E+04  2.83202E+03 -1.40687E+04  1.19679E+04 -8.45737E+03  1.32663E+04  2.22552E+03
  8.32900E+03  1.08624E+04 -9.55634E+02  1.24843E+04 -9.24776E+03  7.42661E+03 -1.02909E+04 -1.01304E+03
 -8.48032E+03 -8.29034E+03 -1.37412E+03 -9.34635E+03  5.23236E+03 -7.95709E+03  6.07325E+03 -3.66660E+03
  4.47144E+03  1.37931E+03 -6.61983E+02  1.84985E+03 -1.64714E+02 -2.32645E+03  1.25939E+03 -5.65769E+03
  8.44340E+03 -3.38036E+03  1.23502E+04  1.64085E+03  1.18958E+04  8.41495E+03  8.37727E+03  1.59398E+04
 -3.38710E+03  1.82674E+04 -1.56365E+04  1.36824E+04 -2.01769E+04  2.72960E+03 -1.58312E+04 -6.59144E+03
 -8.06913E+03 -1.30336E+04 -3.98490E+02 -1.09085E+04  3.89553E+03 -5.82409E+03  3.65619E+03 -4.00850E+03
  3.01232E+03 -2.52258E+03  2.97307E+03 -3.38598E+03  4.83566E+03 -2.80175E+03  6.51956E+03 -7.67110E+02
  8.64707E+03  1.54403E+03  4.21563E+03  7.37865E+03 -1.77594E+03  8.64106E+03 -8.80887E+03  6.61803E+03
 -1.08698E+04 -1.43080E+03 -6.55074E+03 -7.81992E+03 -6.69636E+02 -1.20573E+04  6.99218E+03 -1.19195E+04
  1.22226E+04 -7.05559E+03  1.50179E+04  1.78479E+03  1.04749E+04  1.02356E+04  1.45805E+03  1.35188E+04
 -5.72611E+03  1.09881E+04 -7.90884E+03  3.73218E+03 -5.40234E+03 -1.56382E+03 -2.01034E+03 -1.49505E+03
 -1.12709E+03  1.24347E+02 -1.81087E+03  2.56128E+03 -4.86171E+03  1.83840E+03 -7.80585E+03 -1.06631E+03
 -5.12753E+03 -7.60100E+03  2.74278E+02 -1.10132E+04  6.44950E+03 -1.02310E+04  1.09730E+04 -3.07596E+03
  1.10267E+04  5.60615E+03  5.23530E+03  9.49863E+03 -2.38746E+03  1.09397E+04 -7.35525E+03  6.79246E+03
 -1.01879E+04  4.32721E+02 -8.02104E+03 -6.29369E+03 -8.15056E+02 -9.07756E+03  4.40859E+03 -6.77972E+03
  7.22041E+03 -2.30039E+03  4.85135E+03  1.66009E+03  1.79475E+03  3.23129E+03  1.17248E+03  1.32853E+03
  2.40860E+03  8.67525E+02  2.84112E+03  1.87034E+03  3.11649E+03  4.12210E+03  3.08969E+03  5.58246E+03
 -2.49001E+03  8.32467E+03 -7.25255E+03  8.79264E+03 -1.11365E+04  2.51193E+03 -1.12511E+04 -3.93435E+03
 -5.66958E+03 -1.08573E+04  1.59378E+03 -1.21960E+04  6.59435E+03 -7.36864E+03  8.41000E+03 -2.06450E+03
  7.00923E+03  3.81737E+03  1.75295E+03  6.31026E+03 -3.36806E+03  3.74938E+03 -4.32002E+03 -5.62373E+02
 -1.89853E+03 -4.69369E+03  2.32132E+03 -4.86729E+03  4.12771E+03 -2.20395E+03  4.53779E+03  7.17539E+02
  2.17039E+03  1.60305E+03  1.20287E+03  1.81142E+03 -4.09023E+02  1.68239E+03  1.59862E+03 -3.73196E+02
  1.83439E+03 -5.18006E+02  4.71248E+03  1.59105E+03  2.08979E+03  5.89376E+03 -8.17201E+02  7.48091E+03
 -4.99994E+03  4.57294E+03 -7.09308E+03  1.51489E+03 -6.14674E+03 -2.32992E+03 -1.66665E+03 -4.05973E+03
  9.90175E+02 -4.11848E+03  2.79079E+03 -1.81312E+03  2.16716E+03  2.74243E+03 -1.37907E+03  3.54808E+03
 -4.91970E+03  2.25874E+03 -4.76351E+03 -2.34715E+03 -2.49343E+03 -6.06847E+03  6.57938E+02 -6.17834E+03
  3.09318E+03 -2.85943E+03  4.27276E+03 -4.52006E+02  3.79006E+03  1.38337E+03  9.04353E+02  3.41159E+03
 -1.84923E+03  9.34322E+02 -2.74099E+03 -2.01756E+03  8.96590E+02 -4.17742E+03  5.21908E+03 -3.66965E+03
  6.30383E+03  5.30153E+02  6.65429E+03  4.07273E+03  2.32686E+03  7.22122E+03 -2.38635E+03  6.49826E+03
 -5.48761E+03  2.54914E+03 -6.03000E+03 -7.20250E+02 -3.15163E+03 -4.27324E+03  1.18726E+03 -4.20536E+03
  4.54941E+03 -2.44272E+03  3.68238E+03  1.60577E+03  9.73914E+02  3.93149E+03 -5.00111E+02  3.09829E+03
 -1.33006E+03  2.57221E+03 -1.28338E+03  9.33149E+02 -6.83185E+02  7.06893E+02 -1.20110E+03  1.73060E+03
 -1.65921E+03  2.60523E+03 -4.82181E+03  2.22747E+03 -6.52052E+03 -1.21246E+02 -7.87438E+03 -4.16799E+03
 -4.05153E+03 -8.85695E+03  1.88620E+03 -1.03546E+04  6.08487E+03 -8.51240E+03  9.88394E+03 -3.36866E+03
  9.14867E+03  1.80911E+03  5.49420E+03  6.09393E+03 -6.96458E+01  6.96404E+03 -2.66954E+03  5.05469E+03
 -3.86389E+03  1.89861E+03 -2.41921E+03 -8.04894E+02 -8.01335E+02 -3.82148E+02 -2.01903E+02 -8.87868E+01
 -1.31081E+03  5.48069E+01 -1.82488E+03 -3.02924E+02 -6.13808E+02 -1.38609E+03  3.61282E+02 -2.68732E+03
  3.44858E+03 -2.07125E+03  4.18489E+03  2.32391E+02  4.96863E+03  3.51100E+03  1.00119E+03  6.84159E+03
 -3.28683E+03  8.13342E+03 -7.38308E+03  4.57512E+03 -8.03519E+03 -7.26691E+02 -5.90212E+03 -5.11898E+03
 -2.73666E+03 -6.93646E+03  1.82315E+03 -6.51237E+03  4.17250E+03 -3.17727E+03  4.76854E+03  3.05060E+02
  2.63409E+03  2.33406E+03 -2.78714E+02  2.10024E+03 -1.26036E+03 -1.98782E+02 -1.94667E+02 -1.92810E+03
  2.16117E+03 -8.68928E+02  2.41543E+03  1.10684E+03  1.56931E+03  2.74522E+03  4.28675E+02  3.20904E+03
 -3.03304E+03  3.13093E+03 -4.30950E+03  5.94461E+02 -3.95788E+03 -3.37719E+03 -6.47306E+02 -5.12237E+03
  3.06819E+03 -4.65831E+03  4.96609E+03 -1.35927E+03  5.30046E+03  9.08058E+02  2.89145E+03  3.90535E+03
  1.03162E+03  4.43824E+03 -1.55726E+03  3.72636E+03 -2.52695E+03  2.08848E+03 -2.20504E+03  3.20807E+02
 -1.12280E+03 -2.29070E+02 -1.48380E+03  9.70984E+02 -2.55473E+03  8.07751E+02 -3.58745E+03 -8.94262E+02
 -3.30568E+03 -1.84740E+03 -1.06585E+03 -4.21519E+03  2.34113E+03 -4.93062E+03  4.22787E+03 -1.98324E+03
  4.29579E+03  5.83377E+02  2.32523E+03  3.16520E+03 -5.08807E+02  4.51665E+03 -3.49878E+03  3.41587E+03
