 $NMID ID='MM_0lb_SNR800_12hz_g55_79.RAW', FMTDAT='(8E13.5)'
 TRAMP=1., VOLUME=1. $END
  3.09890E+05  4.37041E+02  3.37671E+05  2.50706E+05  8.48360E+04  3.38271E+05 -1.32479E+05  2.51568E+05
 -1.90550E+05  8.36290E+04 -1.12004E+05 -3.27059E+04  4.03344E+02 -5.07183E+04  5.34635E+04 -4.18868E+02
  3.53412E+04  5.27214E+04 -1.65959E+04  7.58621E+04 -6.10958E+04  6.40742E+04 -8.46854E+04  3.21910E+04
 -8.16576E+04 -1.19780E+04 -5.79043E+04 -5.16959E+04 -1.49593E+04 -7.04420E+04  2.75906E+04 -4.64278E+04
  4.07105E+04  3.89392E+03  1.68297E+04  4.80542E+04 -3.42820E+04  4.79430E+04 -6.73309E+04  2.36851E+02
 -5.41066E+04 -5.73550E+04 -6.90869E+03 -7.77962E+04  3.42777E+04 -5.60456E+04  4.86577E+04 -1.77432E+04
  4.42024E+04  1.11277E+04  3.25400E+04  2.62489E+04  1.55503E+04  3.02134E+04 -5.29391E+03  2.74297E+04
 -2.22835E+04  1.23259E+04 -1.84189E+04 -5.15172E+03  6.27593E+03 -7.03016E+03  2.28082E+04  1.28097E+04
  7.31877E+03  3.64989E+04 -3.33320E+04  3.62705E+04 -6.48424E+04  2.33331E+03 -5.80687E+04 -4.34324E+04
 -1.23308E+04 -6.47983E+04  4.05342E+04 -4.65644E+04  5.97341E+04 -2.65693E+03  3.58893E+04  3.34165E+04
 -5.86795E+03  3.77786E+04 -3.11132E+04  1.75508E+04 -3.17796E+04 -4.14229E+03 -1.80554E+04 -1.18805E+04
 -8.96990E+03 -1.41350E+04 -7.73630E+02 -1.86870E+04  8.09777E+03 -2.32961E+04  1.57924E+04 -1.29495E+04
  1.07039E+04  5.87691E+03 -9.53396E+03  1.27627E+04 -2.28634E+04 -5.52116E+03 -8.39509E+03 -3.57969E+04
  2.40582E+04 -4.53951E+04  5.06062E+04 -2.03323E+04  4.66887E+04  2.04964E+04  1.65728E+04  4.62096E+04
 -1.66764E+04  3.49960E+04 -2.67367E+04  2.15042E+03 -1.07758E+04 -2.86625E+04  2.13149E+04 -3.54557E+04
  4.28101E+04 -1.01916E+04  3.82604E+04  2.43752E+04  2.01113E+04  4.87874E+04 -8.02840E+03  5.34862E+04
 -3.36075E+04  3.58647E+04 -4.50557E+04  1.02210E+04 -4.55141E+04 -1.77266E+04 -2.49120E+04 -3.98016E+04
  7.83284E+03 -4.00136E+04  3.27963E+04 -1.60833E+04  3.09318E+04  1.11167E+04  4.42285E+03  2.02537E+04
 -1.40316E+04  9.29897E+03 -1.10761E+04 -7.31177E+03  5.40769E+03 -1.09795E+04  1.82828E+04  5.64600E+03
  1.44570E+04  2.25132E+04 -5.59976E+03  2.57226E+04 -2.30726E+04  1.30716E+04 -2.97862E+04 -3.83310E+03
 -2.30625E+04 -1.78226E+04 -1.00111E+04 -2.28049E+04  4.06101E+03 -2.26430E+04  1.78844E+04 -2.10819E+04
  2.93009E+04 -1.33379E+04  3.54502E+04  3.96360E+03  2.53285E+04  2.24218E+04  4.57584E+03  3.87961E+04
 -1.87467E+04  3.19042E+04 -2.93652E+04  1.10422E+04 -2.19027E+04 -1.01517E+04 -4.56514E+03 -1.33572E+04
  1.46653E+03 -1.92143E+03 -6.15154E+03  7.25651E+03 -1.83714E+04  4.91287E+03 -1.84956E+04 -7.95981E+03
 -1.08535E+04 -2.10778E+04  6.01264E+03 -2.52388E+04  1.71533E+04 -1.79561E+04  2.05502E+04 -1.37522E+03
  1.32203E+04  1.47804E+04 -1.11028E+03  2.08367E+04 -1.53013E+04  1.23293E+04 -2.14998E+04 -4.73707E+03
 -1.53128E+04 -1.92105E+04 -2.18926E+03 -2.54106E+04  1.15142E+04 -2.11322E+04  2.11641E+04 -1.08486E+04
  1.94592E+04  1.90492E+02  1.44177E+04  4.83217E+03  7.90333E+03  1.17707E+03  1.08976E+04 -1.99684E+03
  1.98007E+04  2.57002E+03  2.23977E+04  1.69617E+04  1.48451E+04  3.37740E+04 -2.83319E+03  3.92845E+04
 -2.25489E+04  3.22607E+04 -3.68081E+04  1.66375E+04 -3.90966E+04 -3.01954E+03 -3.18206E+04 -2.23378E+04
 -1.32219E+04 -3.23878E+04  1.14541E+04 -2.88002E+04  2.47125E+04 -1.38087E+04  2.17326E+04  6.96934E+03
  7.81265E+03  1.63075E+04 -1.00861E+04  1.39722E+04 -1.80707E+04  2.27040E+03 -1.36067E+04 -1.12507E+04
 -1.17149E+02 -1.73601E+04  9.15842E+03 -1.24988E+04  1.15529E+04 -1.23917E+03  2.62360E+03  7.72437E+03
 -7.77811E+03  3.30360E+03 -7.65018E+03 -6.61543E+03 -1.12900E+03 -1.57944E+04  1.05556E+04 -1.70177E+04
  1.95783E+04 -9.11555E+03  2.15699E+04  3.20832E+03  1.91665E+04  1.61208E+04  8.91564E+03  2.45948E+04
 -4.53317E+03  2.63084E+04 -1.71825E+04  1.67554E+04 -1.90204E+04  3.63697E+03 -1.32976E+04 -4.39510E+03
 -5.76428E+03 -5.92204E+03 -7.11405E+02  5.81019E+02 -2.61722E+03  3.04913E+03 -6.22352E+03  4.96999E+03
 -1.22803E+04 -8.79611E+02 -1.30629E+04 -1.04547E+04 -5.25120E+03 -1.70372E+04  5.75385E+03 -1.32334E+04
  1.09054E+04 -5.61642E+03  8.35721E+03  3.58556E+03 -1.49581E+02  5.39749E+03 -6.42791E+03  1.38201E+02
 -6.24080E+03 -8.47289E+03 -8.53787E+02 -1.31212E+04  7.73897E+03 -1.37590E+04  1.69002E+04 -7.33764E+03
  1.97989E+04  2.12682E+03  1.45035E+04  1.16759E+04  2.75817E+03  1.58401E+04 -8.46333E+03  1.33235E+04
 -1.08597E+04  4.21947E+03 -5.41670E+03 -2.88463E+03  2.04582E+03 -3.05766E+03  6.83427E+03 -1.17833E+03
  6.13730E+03  5.89689E+03  1.20064E+03  1.05764E+04 -7.72076E+03  1.02070E+04 -1.29064E+04  2.40613E+03
 -8.84460E+03 -6.62357E+03  4.61652E+02 -1.13155E+04  7.16734E+03 -5.84873E+03  7.18943E+03  2.42243E+03
  1.66384E+03  7.80396E+03 -6.95637E+03  9.60328E+03 -1.10263E+04  3.86256E+03 -1.04542E+04 -3.82585E+03
 -6.11261E+03 -1.23234E+04  2.82355E+03 -1.44787E+04  1.21175E+04 -8.88972E+03  1.35173E+04  2.52906E+03
  8.19618E+03  1.03967E+04 -1.00848E+03  1.28572E+04 -9.51445E+03  7.00685E+03 -1.03553E+04 -1.06456E+03
 -8.55262E+03 -8.62857E+03 -1.58205E+03 -9.46620E+03  5.20738E+03 -8.08219E+03  6.15503E+03 -3.35621E+03
  4.37849E+03  1.26742E+03 -5.63279E+02  1.74691E+03 -4.12743E+02 -2.29922E+03  1.79727E+03 -5.32220E+03
  8.53068E+03 -3.56619E+03  1.22944E+04  1.34434E+03  1.20489E+04  8.48699E+03  8.52098E+03  1.58659E+04
 -3.43003E+03  1.86795E+04 -1.57241E+04  1.34576E+04 -2.02147E+04  2.87407E+03 -1.62556E+04 -6.72649E+03
 -8.20771E+03 -1.34748E+04 -6.27825E+02 -1.12273E+04  3.86490E+03 -6.24690E+03  3.49545E+03 -4.00409E+03
  2.80809E+03 -2.57585E+03  3.13086E+03 -3.37672E+03  5.43638E+03 -2.77471E+03  6.28506E+03 -5.49969E+02
  8.32178E+03  1.86715E+03  4.40666E+03  6.91735E+03 -1.99265E+03  8.12000E+03 -8.78327E+03  6.15595E+03
 -1.08977E+04 -1.07778E+03 -6.57937E+03 -7.63579E+03 -7.42040E+02 -1.18809E+04  6.98637E+03 -1.18598E+04
  1.23589E+04 -6.95068E+03  1.48441E+04  1.57933E+03  1.01684E+04  9.92859E+03  1.81002E+03  1.32602E+04
 -5.34730E+03  1.10996E+04 -8.02407E+03  3.76829E+03 -4.95652E+03 -1.70217E+03 -1.83242E+03 -1.76269E+03
 -1.21065E+03 -2.64199E+02 -1.69053E+03  2.39113E+03 -4.66774E+03  1.77530E+03 -7.70963E+03 -1.39543E+03
 -5.41425E+03 -7.56482E+03  1.59899E+02 -1.06262E+04  6.84752E+03 -1.00431E+04  1.02889E+04 -3.01414E+03
  1.04786E+04  5.07627E+03  5.16190E+03  9.08763E+03 -2.45217E+03  1.10458E+04 -7.71161E+03  6.95334E+03
 -1.00190E+04  6.01513E+02 -8.19608E+03 -6.64220E+03 -8.32338E+02 -8.88958E+03  4.50856E+03 -6.62499E+03
  6.92906E+03 -2.08541E+03  4.53549E+03  1.77866E+03  1.62440E+03  3.44276E+03  1.22248E+03  1.48765E+03
  2.24014E+03  8.86509E+02  2.94497E+03  1.31842E+03  3.34965E+03  4.27165E+03  2.73990E+03  5.21833E+03
 -2.18516E+03  8.15020E+03 -7.32018E+03  8.55810E+03 -1.04953E+04  2.74969E+03 -1.12373E+04 -4.06043E+03
 -5.20389E+03 -1.06072E+04  1.53042E+03 -1.16291E+04  6.22678E+03 -7.09832E+03  8.57614E+03 -1.88498E+03
  6.46745E+03  3.97888E+03  1.58830E+03  5.81952E+03 -2.96255E+03  3.80623E+03 -4.08001E+03 -4.01177E+02
 -1.76127E+03 -4.64867E+03  2.58063E+03 -4.16668E+03  3.84647E+03 -2.37645E+03  4.01959E+03  9.05292E+02
  2.58550E+03  1.95449E+03  9.89700E+02  1.66221E+03 -8.53697E+02  1.56232E+03  1.69477E+03 -5.07275E+02
  1.75843E+03 -9.43351E+02  4.27599E+03  1.62304E+03  2.08482E+03  5.49381E+03 -9.34833E+02  7.46755E+03
 -5.05429E+03  4.63440E+03 -6.80497E+03  1.18707E+03 -5.91101E+03 -2.16642E+03 -1.88813E+03 -3.76599E+03
  4.50357E+02 -4.13784E+03  3.03674E+03 -2.21728E+03  2.38920E+03  2.13895E+03 -1.42588E+03  3.61280E+03
 -3.94985E+03  2.21099E+03 -4.70570E+03 -2.86907E+03 -2.61917E+03 -5.79881E+03  8.60149E+02 -5.50507E+03
  3.10938E+03 -3.23517E+03  3.85986E+03 -2.98988E+02  3.59163E+03  1.75372E+03  4.44458E+02  2.92739E+03
 -1.96199E+03  5.40804E+02 -2.58686E+03 -1.88753E+03  9.59482E+02 -3.64419E+03  5.18510E+03 -3.15611E+03
  6.13141E+03  5.32061E+02  6.08669E+03  4.02168E+03  2.40426E+03  6.06939E+03 -1.80574E+03  6.08139E+03
 -5.20954E+03  2.25876E+03 -5.63018E+03 -1.01386E+03 -3.05680E+03 -4.20080E+03  1.04921E+03 -3.63125E+03
  4.02300E+03 -2.17818E+03  2.59888E+03  1.71548E+03  1.13176E+03  3.42389E+03 -1.34647E+02  3.14051E+03
 -1.71136E+03  2.11836E+03 -1.95369E+03  8.18884E+02 -7.34255E+02  7.61401E+02 -1.40525E+03  1.55708E+03
 -1.50245E+03  2.42421E+03 -4.37944E+03  1.89675E+03 -6.25680E+03  3.09634E+02 -6.99546E+03 -4.10630E+03
 -3.50186E+03 -8.38581E+03  1.76388E+03 -9.77490E+03  5.62556E+03 -7.50658E+03  8.80330E+03 -3.08470E+03
  8.50676E+03  1.68948E+03  5.15075E+03  5.41348E+03  4.04091E+02  6.51330E+03 -2.57908E+03  4.86555E+03
 -3.66859E+03  1.99305E+03 -2.06134E+03 -9.34163E+02 -9.36598E+02 -4.19105E+02 -4.98861E+02 -1.23369E+02
 -1.26802E+03 -1.58386E+02 -1.72765E+03 -3.31686E+02 -3.82211E+02 -1.72573E+03  1.18301E+02 -2.60215E+03
  3.15856E+03 -2.09546E+03  3.55547E+03  1.09359E+02  4.47816E+03  3.89858E+03  8.11005E+02  6.08201E+03
 -2.66042E+03  7.58024E+03 -6.53181E+03  4.28897E+03 -7.24316E+03 -6.48360E+02 -5.47690E+03 -4.54504E+03
 -2.09523E+03 -5.98420E+03  1.53122E+03 -5.56357E+03  3.87348E+03 -3.05397E+03  3.57421E+03  5.27534E+02
  2.32705E+03  2.20143E+03 -2.82882E+01  1.63666E+03 -1.22049E+03 -1.50730E+01  9.61618E+01 -1.39552E+03
  1.68810E+03 -6.44699E+02  2.56102E+03  1.16998E+03  1.28376E+03  2.33183E+03  1.38128E+02  2.63567E+03
 -2.55899E+03  2.86627E+03 -3.70923E+03  8.85063E+01 -3.60957E+03 -2.88821E+03 -5.28386E+02 -4.66776E+03
  2.68465E+03 -4.35025E+03  4.29936E+03 -1.59386E+03  4.62407E+03  2.65528E+02  2.38042E+03  3.68671E+03
  6.14106E+02  3.43412E+03 -1.62841E+03  3.04797E+03 -2.08499E+03  1.80938E+03 -2.09694E+03  7.79651E+01
 -7.43449E+02 -2.25826E+02 -1.63270E+03  2.07029E+02 -1.76085E+03  3.13017E+02 -3.05609E+03 -5.51105E+02
 -2.99914E+03 -1.53638E+03 -1.20355E+03 -3.94201E+03  2.01951E+03 -4.49073E+03  3.49007E+03 -1.98265E+03
  3.46578E+03  7.24154E+02  1.54626E+03  2.57556E+03 -3.29250E+02  3.46441E+03 -2.83015E+03  2.42693E+03
