 $NMID ID='MM_0lb_SNR800_7hz_g60_38.RAW', FMTDAT='(8E13.5)'
 TRAMP=1., VOLUME=1. $END
  3.10088E+05  3.60634E+01  3.38248E+05  2.50815E+05  8.49506E+04  3.38738E+05 -1.33241E+05  2.52617E+05
 -1.91400E+05  8.45196E+04 -1.13056E+05 -3.26535E+04 -1.56403E+02 -5.09711E+04  5.38648E+04 -3.94574E+02
  3.62850E+04  5.28143E+04 -1.63055E+04  7.67477E+04 -6.17830E+04  6.50404E+04 -8.60417E+04  3.27015E+04
 -8.33687E+04 -1.21296E+04 -5.90569E+04 -5.30754E+04 -1.53006E+04 -7.16318E+04  2.85604E+04 -4.73869E+04
  4.21726E+04  3.59704E+03  1.71038E+04  4.88380E+04 -3.51851E+04  4.88273E+04 -6.90421E+04  6.99399E+02
 -5.54973E+04 -5.82726E+04 -7.67225E+03 -8.05279E+04  3.53414E+04 -5.85481E+04  5.05455E+04 -1.87436E+04
  4.61554E+04  1.18428E+04  3.39290E+04  2.72695E+04  1.60500E+04  3.15500E+04 -6.71045E+03  2.81897E+04
 -2.26808E+04  1.15985E+04 -1.79536E+04 -6.58819E+03  8.01219E+03 -7.87095E+03  2.43796E+04  1.47092E+04
  6.97338E+03  3.92427E+04 -3.48841E+04  3.83528E+04 -6.73027E+04  2.00619E+03 -5.95190E+04 -4.54017E+04
 -1.27814E+04 -6.76200E+04  4.29187E+04 -4.87505E+04  6.31661E+04 -2.55315E+03  3.81673E+04  3.56026E+04
 -5.46001E+03  4.15387E+04 -3.25347E+04  2.03720E+04 -3.50287E+04 -3.20355E+03 -2.11415E+04 -1.22435E+04
 -9.92487E+03 -1.59919E+04  6.56038E+00 -2.10461E+04  9.52664E+03 -2.38018E+04  1.58598E+04 -1.23618E+04
  9.85214E+03  7.51477E+03 -1.20478E+04  1.29476E+04 -2.47491E+04 -7.97987E+03 -8.40751E+03 -3.98161E+04
  2.66224E+04 -4.83036E+04  5.43073E+04 -2.17262E+04  5.06246E+04  2.20960E+04  1.82906E+04  4.88484E+04
 -1.68150E+04  3.74240E+04 -2.90389E+04  2.84878E+03 -1.29297E+04 -3.06909E+04  2.19110E+04 -3.89906E+04
  4.68488E+04 -1.21540E+04  4.30483E+04  2.57947E+04  2.31531E+04  5.39102E+04 -8.64257E+03  5.92961E+04
 -3.80057E+04  4.09836E+04 -5.08394E+04  1.19957E+04 -5.05804E+04 -1.94720E+04 -2.75909E+04 -4.48994E+04
  7.69967E+03 -4.44502E+04  3.63289E+04 -1.84792E+04  3.36987E+04  1.14499E+04  6.01880E+03  2.24481E+04
 -1.44802E+04  1.05207E+04 -1.19226E+04 -7.35303E+03  5.43140E+03 -1.20939E+04  1.93284E+04  5.15751E+03
  1.60119E+04  2.27635E+04 -4.11235E+03  2.84932E+04 -2.38014E+04  1.61974E+04 -3.34626E+04 -1.81807E+03
 -2.78482E+04 -1.91944E+04 -1.34755E+04 -2.79890E+04  3.99756E+03 -2.94643E+04  2.21511E+04 -2.61615E+04
  3.57395E+04 -1.49718E+04  4.14236E+04  6.66806E+03  2.86890E+04  2.74642E+04  4.82298E+03  4.45222E+04
 -2.11155E+04  3.55129E+04 -3.25205E+04  1.28978E+04 -2.34576E+04 -1.03152E+04 -5.24117E+03 -1.30629E+04
  1.70832E+02 -1.55047E+02 -9.14357E+03  8.93297E+03 -2.31708E+04  4.71355E+03 -2.23995E+04 -1.13652E+04
 -1.30018E+04 -2.59776E+04  6.61780E+03 -3.11537E+04  2.10366E+04 -2.21264E+04  2.52941E+04 -2.17112E+03
  1.70795E+04  1.81394E+04 -1.71791E+03  2.60105E+04 -1.90541E+04  1.47134E+04 -2.67193E+04 -5.42735E+03
 -1.89362E+04 -2.31253E+04 -2.19932E+03 -3.16469E+04  1.48827E+04 -2.62194E+04  2.58660E+04 -1.36523E+04
  2.47420E+04 -4.30092E+01  1.76626E+04  6.02990E+03  1.06372E+04  1.82244E+03  1.39059E+04 -2.54363E+03
  2.48678E+04  3.59055E+03  2.97284E+04  2.01871E+04  2.02653E+04  4.26492E+04 -2.67037E+03  5.07761E+04
 -2.86163E+04  4.29163E+04 -4.76967E+04  2.26074E+04 -5.16879E+04 -3.38160E+03 -4.15346E+04 -3.05274E+04
 -1.61606E+04 -4.32943E+04  1.53257E+04 -3.76019E+04  3.21408E+04 -1.71379E+04  2.73894E+04  9.26398E+03
  8.62979E+03  2.17338E+04 -1.29839E+04  1.75476E+04 -2.23956E+04  2.57208E+03 -1.72883E+04 -1.49859E+04
 -7.25122E+02 -2.20100E+04  1.18517E+04 -1.67300E+04  1.51744E+04 -1.13656E+03  4.86096E+03  9.95244E+03
 -9.80017E+03  5.08070E+03 -1.12047E+04 -8.16736E+03 -3.13285E+03 -2.11179E+04  1.40444E+04 -2.38566E+04
  2.69779E+04 -1.34995E+04  3.14575E+04  3.06780E+03  2.82383E+04  2.15668E+04  1.29414E+04  3.47930E+04
 -7.23871E+03  3.72069E+04 -2.41373E+04  2.26094E+04 -2.66773E+04  4.29790E+03 -1.81030E+04 -7.30868E+03
 -7.55614E+03 -8.88757E+03 -4.13171E+02 -2.00428E+02 -3.47315E+03  4.19813E+03 -8.62866E+03  5.62124E+03
 -1.64882E+04 -1.43065E+03 -1.67352E+04 -1.37244E+04 -7.46489E+03 -2.27211E+04  8.12920E+03 -1.88281E+04
  1.49186E+04 -7.90629E+03  1.10898E+04  5.17537E+03 -1.10570E+03  7.62654E+03 -9.46210E+03 -4.46172E+01
 -9.42555E+03 -1.20811E+04 -1.17452E+03 -1.92799E+04  1.13368E+04 -1.95828E+04  2.42029E+04 -1.07244E+04
  2.85608E+04  3.39880E+03  2.05532E+04  1.77014E+04  3.38667E+03  2.36992E+04 -1.17464E+04  1.83589E+04
 -1.54168E+04  5.45122E+03 -7.52079E+03 -3.92474E+03  2.71784E+03 -5.36483E+03  9.81864E+03 -1.14941E+03
  8.78510E+03  8.35824E+03  9.72360E+02  1.50175E+04 -1.06456E+04  1.47227E+04 -1.83291E+04  3.25308E+03
 -1.31907E+04 -9.84228E+03  4.55917E+01 -1.65522E+04  1.11655E+04 -8.12149E+03  1.17386E+04  4.69391E+03
  2.96138E+03  1.32446E+04 -1.07280E+04  1.44075E+04 -1.71877E+04  6.26083E+03 -1.78340E+04 -6.62179E+03
 -1.02666E+04 -2.01343E+04  5.24429E+03 -2.31556E+04  1.92921E+04 -1.32147E+04  2.11347E+04  3.66027E+03
  1.18560E+04  1.68413E+04 -2.03657E+03  1.93716E+04 -1.46772E+04  1.05652E+04 -1.62604E+04 -1.90493E+03
 -1.25805E+04 -1.31488E+04 -1.50050E+03 -1.57414E+04  7.87651E+03 -1.18792E+04  9.98112E+03 -4.18464E+03
  6.24591E+03  2.49214E+03 -2.16012E+03  2.53304E+03 -1.53390E+03 -5.17095E+03  3.45469E+03 -9.73574E+03
  1.44476E+04 -6.43385E+03  2.13064E+04  2.48773E+03  2.04466E+04  1.46753E+04  1.28618E+04  2.72360E+04
 -6.29720E+03  3.14391E+04 -2.53919E+04  2.23754E+04 -3.25618E+04  4.32765E+03 -2.65662E+04 -1.21854E+04
 -1.32721E+04 -2.18309E+04  3.96120E+01 -1.79867E+04  6.63841E+03 -1.08823E+04  6.81782E+03 -7.12660E+03
  5.26605E+03 -4.06300E+03  4.90556E+03 -4.71990E+03  6.93948E+03 -4.32336E+03  9.92740E+03 -2.83369E+03
  1.35698E+04  3.40163E+03  8.06050E+03  1.18464E+04 -2.51134E+03  1.54888E+04 -1.48513E+04  1.13187E+04
 -1.90608E+04 -1.51446E+03 -1.30848E+04 -1.35264E+04 -2.36884E+03 -2.07127E+04  1.11998E+04 -2.11149E+04
  2.17065E+04 -1.16974E+04  2.56675E+04  3.93185E+03  1.76206E+04  1.85938E+04  2.95442E+03  2.32002E+04
 -1.03441E+04  1.81802E+04 -1.37929E+04  6.71884E+03 -9.06974E+03 -1.64997E+03 -4.05917E+03 -2.84546E+03
 -2.17984E+03 -4.95994E+02 -2.99231E+03  3.30234E+03 -7.56374E+03  2.87754E+03 -1.31499E+04 -1.90476E+03
 -1.05279E+04 -1.30320E+04 -4.91128E+02 -1.91428E+04  1.24438E+04 -1.80091E+04  2.01163E+04 -5.68994E+03
  1.97591E+04  9.26727E+03  9.16575E+03  1.81888E+04 -4.42030E+03  2.03847E+04 -1.48505E+04  1.24170E+04
 -1.88399E+04  1.32061E+02 -1.39092E+04 -1.25546E+04 -2.08112E+03 -1.70261E+04  8.58709E+03 -1.27159E+04
  1.29385E+04 -3.73161E+03  9.28067E+03  4.39780E+03  3.26724E+03  5.94472E+03  1.57834E+03  2.77173E+03
  2.90801E+03  7.47562E+02  4.41409E+03  2.50865E+03  5.77710E+03  6.68331E+03  4.87583E+03  1.08398E+04
 -3.91652E+03  1.61209E+04 -1.46593E+04  1.59569E+04 -2.14715E+04  4.08538E+03 -2.19734E+04 -9.44589E+03
 -1.04795E+04 -2.06252E+04  2.68461E+03 -2.29098E+04  1.31331E+04 -1.41087E+04  1.74474E+04 -3.73039E+03
  1.29905E+04  7.45286E+03  3.06194E+03  1.19066E+04 -5.94995E+03  7.73953E+03 -8.94118E+03 -9.19535E+02
 -3.85333E+03 -9.41003E+03  4.67230E+03 -9.46256E+03  8.91704E+03 -4.93100E+03  8.56863E+03  1.78462E+03
  5.37815E+03  4.36631E+03  2.02541E+03  3.83001E+03 -4.78691E+02  2.88629E+03  1.66839E+03 -1.13891E+03
  3.36598E+03 -1.06202E+03  8.80246E+03  3.51979E+03  5.45421E+03  1.17346E+04 -1.78302E+03  1.48514E+04
 -1.00339E+04  1.08932E+04 -1.38294E+04  2.92649E+03 -1.18803E+04 -4.89739E+03 -5.28132E+03 -8.09428E+03
  8.51730E+02 -8.45546E+03  5.95953E+03 -4.30009E+03  5.30471E+03  3.99645E+03 -1.76624E+03  7.46857E+03
 -8.93268E+03  4.50088E+03 -1.03600E+04 -4.29346E+03 -6.51047E+03 -1.16327E+04  1.70933E+03 -1.21653E+04
  7.81225E+03 -7.10559E+03  8.89635E+03 -1.30447E+03  6.95928E+03  3.72518E+03  1.16855E+03  6.35116E+03
 -4.47860E+03  1.52408E+03 -5.57574E+03 -4.41050E+03  1.87645E+03 -9.91084E+03  1.11450E+04 -7.81359E+03
  1.47084E+04  9.51282E+02  1.31755E+04  9.58452E+03  4.10204E+03  1.49991E+04 -5.67861E+03  1.39052E+04
 -1.20778E+04  6.35831E+03 -1.22550E+04 -2.12731E+03 -7.35891E+03 -9.95772E+03  1.98244E+03 -9.26262E+03
  9.14019E+03 -4.20969E+03  7.67865E+03  3.80291E+03  3.06480E+03  8.17385E+03 -1.46635E+03  7.19593E+03
 -4.23547E+03  4.16322E+03 -3.70926E+03  1.17928E+03 -1.59915E+03  1.39117E+03 -1.84489E+03  3.20587E+03
 -3.61818E+03  6.14828E+03 -9.76170E+03  5.19032E+03 -1.50903E+04 -2.49517E+02 -1.63640E+04 -9.97894E+03
 -8.79889E+03 -1.96566E+04  4.11594E+03 -2.29632E+04  1.44683E+04 -1.75264E+04  2.15591E+04 -6.64290E+03
  2.05819E+04  4.13270E+03  1.28825E+04  1.38571E+04  1.59158E+03  1.61525E+04 -6.24064E+03  1.17898E+04
 -8.96609E+03  4.24639E+03 -5.35092E+03 -1.87261E+03 -1.73491E+03 -1.80435E+03 -1.16247E+03 -7.01278E-01
 -2.53064E+03  3.56493E+02 -3.39159E+03 -6.62337E+02 -1.83298E+03 -3.71241E+03  7.39086E+02 -6.01195E+03
  6.74236E+03 -5.04548E+03  1.04986E+04 -1.64204E+02  1.11846E+04  8.77432E+03  3.79918E+03  1.64669E+04
 -6.93522E+03  1.82735E+04 -1.66573E+04  1.06728E+04 -1.98509E+04 -1.78270E+03 -1.46780E+04 -1.19383E+04
 -5.80376E+03 -1.65749E+04  4.29843E+03 -1.59579E+04  1.09395E+04 -8.13724E+03  1.12382E+04  4.75449E+02
  5.59029E+03  5.29870E+03 -5.03636E+02  4.95583E+03 -3.10150E+03 -2.54916E+02  2.91355E+02 -3.64366E+03
  4.68581E+03 -2.55936E+03  6.37359E+03  2.01158E+03  4.46949E+03  6.68238E+03  4.71108E+02  9.03389E+03
 -8.15357E+03  7.91365E+03 -1.14017E+04  1.03261E+03 -9.98167E+03 -8.26642E+03 -2.11671E+03 -1.36529E+04
  8.18382E+03 -1.15766E+04  1.28785E+04 -3.87591E+03  1.29354E+04  3.37421E+03  7.40175E+03  9.91830E+03
  1.26851E+03  1.14318E+04 -4.72968E+03  9.35153E+03 -7.32848E+03  4.63997E+03 -5.63264E+03  6.59620E+02
 -2.97014E+03 -6.12941E+02 -3.21086E+03  1.76514E+03 -5.55908E+03  1.83351E+03 -8.32122E+03 -1.12456E+03
 -8.17803E+03 -6.20675E+03 -2.56939E+03 -1.15321E+04  5.23933E+03 -1.11353E+04  1.01487E+04 -5.64112E+03
  1.13477E+04  1.38249E+03  6.51686E+03  7.45451E+03 -5.78709E+02  1.17693E+04 -8.77654E+03  7.92404E+03
