 $NMID ID='MM_0lb_SNR800_8hz_g60_27.RAW', FMTDAT='(8E13.5)'
 TRAMP=1., VOLUME=1. $END
  3.09987E+05  2.41232E+02  3.37627E+05  2.50983E+05  8.55065E+04  3.38641E+05 -1.32898E+05  2.52200E+05
 -1.91282E+05  8.41513E+04 -1.12752E+05 -3.24124E+04 -2.83155E+02 -5.07813E+04  5.41880E+04 -6.87366E+02
  3.55951E+04  5.28259E+04 -1.67874E+04  7.68023E+04 -6.17524E+04  6.42821E+04 -8.57019E+04  3.28289E+04
 -8.26991E+04 -1.18970E+04 -5.83732E+04 -5.27591E+04 -1.49071E+04 -7.16551E+04  2.83542E+04 -4.75615E+04
  4.16248E+04  3.70694E+03  1.70206E+04  4.88919E+04 -3.48218E+04  4.85411E+04 -6.85935E+04  8.68493E+01
 -5.59449E+04 -5.82363E+04 -7.71872E+03 -8.00162E+04  3.47474E+04 -5.80592E+04  5.02250E+04 -1.83855E+04
  4.57894E+04  1.16192E+04  3.32349E+04  2.67744E+04  1.61688E+04  3.10703E+04 -5.98052E+03  2.81768E+04
 -2.26436E+04  1.16967E+04 -1.77765E+04 -6.02654E+03  7.79002E+03 -7.78430E+03  2.42907E+04  1.44157E+04
  7.18680E+03  3.81450E+04 -3.47979E+04  3.80697E+04 -6.69631E+04  1.57594E+03 -5.96496E+04 -4.52898E+04
 -1.24694E+04 -6.68240E+04  4.21173E+04 -4.82425E+04  6.22452E+04 -2.80400E+03  3.75848E+04  3.52757E+04
 -5.29172E+03  4.07402E+04 -3.27305E+04  2.00761E+04 -3.47276E+04 -3.36330E+03 -2.05847E+04 -1.22961E+04
 -9.81769E+03 -1.56093E+04 -3.22094E+02 -2.01400E+04  8.87198E+03 -2.35653E+04  1.60706E+04 -1.23524E+04
  1.00790E+04  6.92989E+03 -1.15347E+04  1.27868E+04 -2.38948E+04 -6.93658E+03 -8.43268E+03 -3.91981E+04
  2.63671E+04 -4.83219E+04  5.36504E+04 -2.11564E+04  5.04152E+04  2.10246E+04  1.75637E+04  4.81961E+04
 -1.68946E+04  3.72000E+04 -2.87711E+04  3.20799E+03 -1.27580E+04 -3.01820E+04  2.16619E+04 -3.81141E+04
  4.64998E+04 -1.16288E+04  4.24548E+04  2.59394E+04  2.26680E+04  5.26658E+04 -8.20408E+03  5.85730E+04
 -3.67058E+04  4.04706E+04 -4.96460E+04  1.16916E+04 -4.97035E+04 -1.91148E+04 -2.69714E+04 -4.40634E+04
  7.79309E+03 -4.40767E+04  3.51849E+04 -1.81473E+04  3.29285E+04  1.15343E+04  5.52826E+03  2.15459E+04
 -1.39153E+04  1.02646E+04 -1.19322E+04 -7.40686E+03  5.74949E+03 -1.19787E+04  1.91680E+04  5.13688E+03
  1.52963E+04  2.31135E+04 -4.98268E+03  2.82679E+04 -2.39402E+04  1.56507E+04 -3.34021E+04 -1.94693E+03
 -2.71155E+04 -1.88622E+04 -1.29884E+04 -2.70342E+04  4.21196E+03 -2.86476E+04  2.14806E+04 -2.50818E+04
  3.48612E+04 -1.49850E+04  4.05876E+04  5.75910E+03  2.84317E+04  2.62148E+04  4.26214E+03  4.31211E+04
 -2.08555E+04  3.53471E+04 -3.13630E+04  1.23416E+04 -2.34629E+04 -1.01908E+04 -5.24188E+03 -1.28336E+04
  3.30133E+02 -1.51765E+02 -8.55748E+03  8.89654E+03 -2.16650E+04  5.17381E+03 -2.14712E+04 -1.04507E+04
 -1.28232E+04 -2.51022E+04  6.79622E+03 -2.99667E+04  2.03530E+04 -2.08558E+04  2.43288E+04 -2.12646E+03
  1.54639E+04  1.72011E+04 -1.22400E+03  2.48456E+04 -1.81290E+04  1.45053E+04 -2.52247E+04 -5.32000E+03
 -1.81557E+04 -2.26256E+04 -2.52200E+03 -3.04664E+04  1.37594E+04 -2.52966E+04  2.48143E+04 -1.33805E+04
  2.36464E+04 -3.95201E+02  1.75777E+04  5.67071E+03  9.66789E+03  1.35411E+03  1.35790E+04 -2.15967E+03
  2.36594E+04  2.86678E+03  2.81542E+04  1.96698E+04  1.96215E+04  4.06121E+04 -2.48641E+03  4.89483E+04
 -2.77448E+04  4.08620E+04 -4.63103E+04  2.17259E+04 -4.93851E+04 -3.48549E+03 -3.97794E+04 -2.92287E+04
 -1.55779E+04 -4.17327E+04  1.48116E+04 -3.61578E+04  3.09017E+04 -1.62567E+04  2.58959E+04  8.72084E+03
  8.77154E+03  2.04815E+04 -1.25006E+04  1.69431E+04 -2.17034E+04  2.51996E+03 -1.63898E+04 -1.41699E+04
 -5.03781E+02 -2.11077E+04  1.13965E+04 -1.55983E+04  1.48819E+04 -1.36429E+03  3.84464E+03  9.46877E+03
 -9.51207E+03  4.72063E+03 -1.02608E+04 -7.76063E+03 -2.50991E+03 -2.03178E+04  1.32682E+04 -2.18552E+04
  2.54931E+04 -1.28493E+04  2.99231E+04  3.24114E+03  2.61909E+04  2.08596E+04  1.22432E+04  3.31615E+04
 -6.37549E+03  3.46769E+04 -2.33237E+04  2.12549E+04 -2.61264E+04  4.42191E+03 -1.70728E+04 -6.94703E+03
 -6.78804E+03 -8.44799E+03 -1.07338E+03  2.65184E+02 -3.16123E+03  3.65613E+03 -9.09285E+03  5.70246E+03
 -1.55977E+04 -1.28693E+03 -1.61216E+04 -1.28464E+04 -6.52095E+03 -2.12317E+04  6.94849E+03 -1.77301E+04
  1.40967E+04 -7.17555E+03  9.91041E+03  4.86078E+03 -1.43019E+02  7.17286E+03 -9.19470E+03 -3.26390E+02
 -8.57158E+03 -1.14625E+04 -1.38448E+03 -1.80911E+04  1.05534E+04 -1.85680E+04  2.27855E+04 -1.05642E+04
  2.66626E+04  2.78132E+03  1.96760E+04  1.63456E+04  3.03394E+03  2.17783E+04 -1.09194E+04  1.79779E+04
 -1.45734E+04  4.62397E+03 -7.35339E+03 -4.06047E+03  2.61698E+03 -5.02492E+03  9.10063E+03 -1.15157E+03
  8.24920E+03  7.85989E+03  1.52507E+03  1.46701E+04 -1.01266E+04  1.37370E+04 -1.77332E+04  3.15005E+03
 -1.24147E+04 -9.64575E+03 -2.98026E+01 -1.50784E+04  9.96271E+03 -7.68234E+03  1.11707E+04  4.48837E+03
  2.91397E+03  1.21509E+04 -9.54715E+03  1.30101E+04 -1.61819E+04  5.43449E+03 -1.70859E+04 -5.87419E+03
 -8.73997E+03 -1.79914E+04  4.56796E+03 -2.15671E+04  1.86192E+04 -1.23830E+04  1.92074E+04  3.54530E+03
  1.16926E+04  1.55119E+04 -1.66290E+03  1.78112E+04 -1.31463E+04  1.02327E+04 -1.49917E+04 -1.00462E+03
 -1.20176E+04 -1.17792E+04 -1.59563E+03 -1.41854E+04  7.12921E+03 -1.09572E+04  9.11937E+03 -3.86994E+03
  5.60262E+03  2.58280E+03 -1.66799E+03  2.03951E+03 -9.23067E+02 -4.45581E+03  3.19611E+03 -9.00130E+03
  1.36413E+04 -6.35524E+03  1.93070E+04  2.03937E+03  1.86319E+04  1.30760E+04  1.14821E+04  2.44254E+04
 -5.83353E+03  2.82194E+04 -2.32501E+04  2.08710E+04 -3.05608E+04  3.95800E+03 -2.40713E+04 -1.11883E+04
 -1.16466E+04 -2.01322E+04 -2.38512E+02 -1.72831E+04  6.44089E+03 -1.02582E+04  5.81871E+03 -6.16896E+03
  4.55370E+03 -3.86961E+03  4.55851E+03 -4.37381E+03  6.31602E+03 -3.84009E+03  9.65806E+03 -1.74183E+03
  1.25370E+04  3.03848E+03  7.47839E+03  1.12788E+04 -2.33677E+03  1.36689E+04 -1.32586E+04  1.02246E+04
 -1.75990E+04 -1.22804E+03 -1.16947E+04 -1.21407E+04 -2.15424E+03 -1.89076E+04  1.00214E+04 -1.90710E+04
  1.99567E+04 -1.02767E+04  2.28035E+04  3.50971E+03  1.57374E+04  1.65569E+04  2.68163E+03  2.07076E+04
 -8.81471E+03  1.67844E+04 -1.24698E+04  5.93735E+03 -8.61808E+03 -1.74276E+03 -4.02747E+03 -2.70706E+03
 -1.78649E+03 -5.05639E+02 -2.66960E+03  3.53681E+03 -6.78604E+03  2.51198E+03 -1.15396E+04 -2.14155E+03
 -9.22356E+03 -1.15037E+04 -2.24168E+02 -1.78236E+04  1.09153E+04 -1.62667E+04  1.77717E+04 -5.71254E+03
  1.78511E+04  8.50011E+03  8.63264E+03  1.63246E+04 -3.95446E+03  1.75906E+04 -1.32595E+04  1.11228E+04
 -1.69008E+04  2.16266E+02 -1.31399E+04 -1.06836E+04 -1.79412E+03 -1.50589E+04  7.74434E+03 -1.13245E+04
  1.12407E+04 -3.78145E+03  7.83178E+03  3.19624E+03  2.70876E+03  5.31665E+03  1.41262E+03  2.76166E+03
  2.87075E+03  9.80773E+02  4.46360E+03  2.09174E+03  5.14050E+03  6.10462E+03  4.71562E+03  1.00921E+04
 -2.84522E+03  1.44165E+04 -1.27894E+04  1.36961E+04 -1.93302E+04  3.78830E+03 -1.97499E+04 -7.92190E+03
 -9.66161E+03 -1.85658E+04  2.74220E+03 -1.98660E+04  1.12642E+04 -1.30099E+04  1.50974E+04 -3.46187E+03
  1.17422E+04  6.82423E+03  2.91170E+03  1.08538E+04 -4.94436E+03  6.90447E+03 -7.41790E+03 -8.44769E+02
 -3.28538E+03 -7.87885E+03  3.97261E+03 -7.98839E+03  7.73337E+03 -4.11396E+03  7.54796E+03  1.60725E+03
  4.52947E+03  3.86979E+03  1.37520E+03  3.34290E+03 -1.04502E+03  2.93894E+03  1.75063E+03 -6.80481E+02
  3.00681E+03 -1.06148E+03  7.58003E+03  2.77828E+03  4.49238E+03  9.76217E+03 -1.71691E+03  1.32816E+04
 -8.83282E+03  9.26061E+03 -1.23955E+04  2.36480E+03 -1.06746E+04 -4.23283E+03 -4.68738E+03 -7.62725E+03
  9.40213E+02 -7.21270E+03  4.25097E+03 -3.28311E+03  4.24505E+03  3.24547E+03 -1.59522E+03  6.27844E+03
 -7.70701E+03  3.48149E+03 -9.17704E+03 -4.39276E+03 -5.13478E+03 -9.82085E+03  1.59819E+03 -1.05842E+04
  6.59108E+03 -6.52949E+03  7.99958E+03 -7.29873E+02  5.98990E+03  3.12065E+03  5.65437E+02  5.79843E+03
 -3.45016E+03  1.80359E+03 -4.20491E+03 -3.77336E+03  1.50730E+03 -8.62419E+03  9.48784E+03 -6.76235E+03
  1.22989E+04  6.71777E+02  1.17737E+04  8.49254E+03  3.62942E+03  1.32053E+04 -4.28280E+03  1.21492E+04
 -1.01018E+04  5.58443E+03 -1.05716E+04 -1.66731E+03 -5.94169E+03 -8.47911E+03  1.90367E+03 -7.77888E+03
  7.58160E+03 -3.93796E+03  6.63339E+03  3.33732E+03  2.09317E+03  7.29759E+03 -1.17238E+03  5.79401E+03
 -3.22589E+03  3.85206E+03 -3.13933E+03  1.43429E+03 -1.37543E+03  1.51203E+03 -2.41597E+03  2.48413E+03
 -3.36999E+03  4.82985E+03 -8.54415E+03  4.89281E+03 -1.27960E+04  3.98380E+02 -1.40044E+04 -8.53258E+03
 -7.71441E+03 -1.73174E+04  3.44220E+03 -1.97438E+04  1.22052E+04 -1.51831E+04  1.84597E+04 -6.36855E+03
  1.70694E+04  4.00572E+03  1.10138E+04  1.18635E+04  1.19077E+03  1.31548E+04 -5.44986E+03  1.02833E+04
 -7.70698E+03  3.55224E+03 -4.88926E+03 -1.06332E+03 -1.66547E+03 -1.89349E+03 -6.34861E+02  1.78280E+02
 -2.08590E+03  3.92080E+02 -3.02478E+03 -5.65735E+02 -8.59549E+02 -3.18591E+03  4.05819E+02 -5.24681E+03
  5.30216E+03 -4.59818E+03  8.76179E+03  4.62795E+02  9.54850E+03  7.48231E+03  2.77043E+03  1.35548E+04
 -5.87900E+03  1.52242E+04 -1.45631E+04  9.07193E+03 -1.65377E+04 -1.34008E+03 -1.23561E+04 -9.70290E+03
 -4.97251E+03 -1.42333E+04  3.29217E+03 -1.30557E+04  8.81163E+03 -7.52636E+03  8.93569E+03  1.69380E+02
  4.62270E+03  4.35503E+03 -2.66536E+02  3.79857E+03 -2.52113E+03 -2.33620E+02  2.68365E+01 -3.40087E+03
  4.22863E+03 -2.04656E+03  5.43716E+03  1.45638E+03  3.70242E+03  5.28615E+03 -3.57474E+02  7.09576E+03
 -5.98059E+03  6.04287E+03 -9.55239E+03  8.81212E+02 -8.57454E+03 -6.38710E+03 -1.13400E+03 -1.17259E+04
  6.00968E+03 -9.79155E+03  1.06222E+04 -3.08384E+03  1.09779E+04  3.41515E+03  6.56014E+03  8.87484E+03
  1.09333E+03  8.86629E+03 -3.98695E+03  8.13878E+03 -5.84283E+03  4.14865E+03 -5.10493E+03  4.40500E+02
 -2.59189E+03 -4.25077E+02 -2.71612E+03  9.62700E+02 -5.40277E+03  1.94060E+03 -7.33315E+03 -8.37656E+02
 -6.50970E+03 -5.33778E+03 -1.65710E+03 -9.32448E+03  3.85976E+03 -9.75949E+03  8.01759E+03 -4.97918E+03
  1.00575E+04  8.72094E+02  5.22888E+03  7.01366E+03 -3.88348E+02  9.52754E+03 -7.02581E+03  6.18678E+03
