 $NMID ID='MM_0lb_SNR800_7hz_g60_8.RAW', FMTDAT='(8E13.5)'
 TRAMP=1., VOLUME=1. $END
  3.10177E+05  6.49282E+02  3.37997E+05  2.51255E+05  8.47564E+04  3.38858E+05 -1.32545E+05  2.52379E+05
 -1.90744E+05  8.41629E+04 -1.12886E+05 -3.23717E+04 -2.20467E+02 -5.04774E+04  5.35058E+04 -8.13382E+02
  3.57487E+04  5.22071E+04 -1.66537E+04  7.60915E+04 -6.08235E+04  6.49443E+04 -8.64207E+04  3.33165E+04
 -8.35758E+04 -1.25678E+04 -5.87964E+04 -5.30211E+04 -1.51116E+04 -7.24725E+04  2.89364E+04 -4.74878E+04
  4.20441E+04  3.93060E+03  1.71100E+04  4.91123E+04 -3.52534E+04  4.88242E+04 -6.90733E+04  2.96547E+02
 -5.61348E+04 -5.80730E+04 -7.56988E+03 -7.98293E+04  3.55953E+04 -5.82472E+04  5.07731E+04 -1.88124E+04
  4.64524E+04  1.18285E+04  3.35109E+04  2.68906E+04  1.58204E+04  3.18414E+04 -5.88009E+03  2.77369E+04
 -2.26107E+04  1.19574E+04 -1.75485E+04 -6.25919E+03  7.75010E+03 -7.41108E+03  2.41381E+04  1.47798E+04
  6.95282E+03  3.84468E+04 -3.46568E+04  3.81138E+04 -6.69751E+04  1.55176E+03 -6.02087E+04 -4.59456E+04
 -1.27659E+04 -6.75546E+04  4.27926E+04 -4.85264E+04  6.33215E+04 -2.67545E+03  3.81044E+04  3.56784E+04
 -4.48500E+03  4.13836E+04 -3.30164E+04  2.05200E+04 -3.48984E+04 -2.58926E+03 -2.11190E+04 -1.26129E+04
 -9.92109E+03 -1.64184E+04 -2.05340E+02 -2.03736E+04  8.97791E+03 -2.37431E+04  1.69196E+04 -1.23305E+04
  1.01372E+04  6.97954E+03 -1.13719E+04  1.26075E+04 -2.47863E+04 -8.20462E+03 -8.89590E+03 -3.94938E+04
  2.61838E+04 -4.88405E+04  5.45487E+04 -2.15863E+04  5.07967E+04  2.17274E+04  1.86695E+04  4.87305E+04
 -1.72495E+04  3.81112E+04 -2.91587E+04  3.20923E+03 -1.26861E+04 -3.06004E+04  2.16125E+04 -3.84002E+04
  4.67440E+04 -1.21878E+04  4.30782E+04  2.59447E+04  2.36457E+04  5.38698E+04 -8.67717E+03  5.94226E+04
 -3.81715E+04  4.08349E+04 -5.09457E+04  1.11660E+04 -5.09682E+04 -1.99020E+04 -2.76684E+04 -4.37599E+04
  8.28071E+03 -4.42368E+04  3.59818E+04 -1.82855E+04  3.38400E+04  1.14888E+04  5.85555E+03  2.21864E+04
 -1.41679E+04  1.05225E+04 -1.14655E+04 -7.64309E+03  5.60713E+03 -1.19132E+04  1.88927E+04  5.70474E+03
  1.52600E+04  2.31137E+04 -4.79509E+03  2.87689E+04 -2.38517E+04  1.59986E+04 -3.37042E+04 -1.99313E+03
 -2.82847E+04 -1.86134E+04 -1.36720E+04 -2.78557E+04  4.88380E+03 -2.90126E+04  2.25183E+04 -2.60476E+04
  3.56794E+04 -1.48590E+04  4.13508E+04  6.09278E+03  2.88711E+04  2.71728E+04  4.76784E+03  4.42452E+04
 -2.14428E+04  3.57738E+04 -3.22618E+04  1.27218E+04 -2.30814E+04 -9.96051E+03 -4.75924E+03 -1.31012E+04
 -4.14451E+02 -5.26273E+02 -9.25076E+03  9.14288E+03 -2.30454E+04  5.05694E+03 -2.29952E+04 -1.13913E+04
 -1.32912E+04 -2.60034E+04  6.76246E+03 -3.09060E+04  2.09038E+04 -2.15863E+04  2.53740E+04 -1.56158E+03
  1.66363E+04  1.75000E+04 -1.96368E+03  2.60112E+04 -1.90181E+04  1.50991E+04 -2.63783E+04 -5.38051E+03
 -1.91581E+04 -2.32271E+04 -2.58432E+03 -3.16920E+04  1.46390E+04 -2.59016E+04  2.54504E+04 -1.38482E+04
  2.45152E+04 -8.18195E+02  1.74106E+04  6.55155E+03  1.05410E+04  2.00992E+03  1.45372E+04 -2.19418E+03
  2.51106E+04  2.79892E+03  2.94984E+04  2.03672E+04  1.97262E+04  4.23055E+04 -2.56513E+03  5.08748E+04
 -2.87329E+04  4.23871E+04 -4.83857E+04  2.22271E+04 -5.17825E+04 -3.28941E+03 -4.15512E+04 -3.04794E+04
 -1.57830E+04 -4.34835E+04  1.58328E+04 -3.77751E+04  3.21849E+04 -1.69254E+04  2.76403E+04  9.02201E+03
  8.85614E+03  2.16678E+04 -1.32099E+04  1.73893E+04 -2.27681E+04  2.64207E+03 -1.68032E+04 -1.50215E+04
 -4.95044E+02 -2.18528E+04  1.20161E+04 -1.59426E+04  1.54847E+04 -1.44432E+03  4.42099E+03  1.03307E+04
 -1.00214E+04  5.42772E+03 -1.12826E+04 -7.93156E+03 -3.32413E+03 -2.13347E+04  1.35622E+04 -2.31415E+04
  2.65742E+04 -1.34664E+04  3.18311E+04  3.19520E+03  2.75831E+04  2.17258E+04  1.28432E+04  3.52900E+04
 -7.06663E+03  3.75043E+04 -2.47668E+04  2.29508E+04 -2.72988E+04  4.10635E+03 -1.82821E+04 -7.02436E+03
 -7.11081E+03 -9.59457E+03 -5.76648E+02  3.36378E+01 -3.04057E+03  4.38540E+03 -8.63050E+03  6.05418E+03
 -1.67663E+04 -1.18826E+03 -1.72815E+04 -1.40862E+04 -7.15006E+03 -2.29136E+04  7.98924E+03 -1.87794E+04
  1.51722E+04 -7.39554E+03  1.04233E+04  4.71230E+03 -6.94776E+02  7.42736E+03 -9.75891E+03  4.72947E+01
 -9.26864E+03 -1.18799E+04 -8.69377E+02 -1.88403E+04  1.11017E+04 -1.97504E+04  2.37574E+04 -1.05299E+04
  2.81846E+04  3.10739E+03  2.00215E+04  1.77308E+04  3.72889E+03  2.29604E+04 -1.17687E+04  1.87239E+04
 -1.52604E+04  5.47403E+03 -8.09922E+03 -4.35535E+03  1.94809E+03 -5.08778E+03  9.86582E+03 -1.53129E+03
  9.00614E+03  8.48713E+03  1.67734E+03  1.50306E+04 -1.07019E+04  1.47040E+04 -1.90086E+04  3.20912E+03
 -1.31202E+04 -1.03642E+04  3.04134E+02 -1.61503E+04  1.10256E+04 -7.70439E+03  1.15111E+04  4.44766E+03
  2.81683E+03  1.26413E+04 -1.01960E+04  1.44252E+04 -1.76033E+04  6.78878E+03 -1.79811E+04 -6.76379E+03
 -9.66357E+03 -1.99963E+04  5.30258E+03 -2.30626E+04  1.91778E+04 -1.33264E+04  2.12023E+04  4.13276E+03
  1.26283E+04  1.68301E+04 -1.84434E+03  1.95137E+04 -1.48032E+04  1.08721E+04 -1.64910E+04 -1.96936E+03
 -1.25856E+04 -1.29422E+04 -1.37163E+03 -1.49494E+04  7.85603E+03 -1.18661E+04  9.59177E+03 -3.78242E+03
  6.14163E+03  3.04063E+03 -1.66316E+03  2.56066E+03 -1.36018E+03 -4.80506E+03  4.06499E+03 -9.71846E+03
  1.52258E+04 -6.44114E+03  2.04446E+04  2.23843E+03  2.04141E+04  1.46865E+04  1.25678E+04  2.65791E+04
 -6.29554E+03  3.07350E+04 -2.52582E+04  2.27535E+04 -3.33955E+04  4.50133E+03 -2.65740E+04 -1.20170E+04
 -1.23703E+04 -2.20298E+04 -1.56570E+02 -1.91925E+04  6.82379E+03 -1.12491E+04  6.91377E+03 -6.89756E+03
  4.68293E+03 -4.17341E+03  4.70914E+03 -4.52151E+03  6.98954E+03 -4.73627E+03  1.01406E+04 -2.45400E+03
  1.35280E+04  2.72873E+03  8.51482E+03  1.21336E+04 -2.80767E+03  1.55828E+04 -1.48624E+04  1.16541E+04
 -1.90344E+04 -1.48905E+03 -1.34011E+04 -1.40872E+04 -2.14377E+03 -2.11749E+04  1.12739E+04 -2.07155E+04
  2.17165E+04 -1.14946E+04  2.54507E+04  4.07867E+03  1.75191E+04  1.82720E+04  2.39209E+03  2.36003E+04
 -9.55078E+03  1.82415E+04 -1.35422E+04  6.30355E+03 -9.59340E+03 -1.97592E+03 -4.21327E+03 -3.58165E+03
 -2.17022E+03  2.34984E+02 -2.60592E+03  3.35430E+03 -8.03316E+03  3.09186E+03 -1.36856E+04 -1.76680E+03
 -9.78925E+03 -1.29397E+04 -1.01664E+03 -1.98667E+04  1.23295E+04 -1.80958E+04  2.04627E+04 -5.78741E+03
  2.00333E+04  9.34136E+03  9.74478E+03  1.81491E+04 -4.11435E+03  2.03580E+04 -1.42683E+04  1.19144E+04
 -1.92158E+04  8.54568E+02 -1.40434E+04 -1.15383E+04 -2.04483E+03 -1.69521E+04  8.72446E+03 -1.22843E+04
  1.29914E+04 -3.82937E+03  8.70366E+03  4.01415E+03  2.87628E+03  6.29553E+03  1.60831E+03  2.85574E+03
  3.51465E+03  1.71090E+03  4.45574E+03  3.14137E+03  6.23287E+03  5.96757E+03  5.20101E+03  1.11202E+04
 -4.27395E+03  1.62118E+04 -1.43599E+04  1.57678E+04 -2.17047E+04  3.87187E+03 -2.16788E+04 -1.02829E+04
 -1.07057E+04 -2.07090E+04  2.81401E+03 -2.26060E+04  1.32962E+04 -1.44863E+04  1.71488E+04 -3.95860E+03
  1.29071E+04  7.28533E+03  2.54581E+03  1.21096E+04 -5.91963E+03  8.06502E+03 -8.75382E+03 -1.33711E+03
 -4.05713E+03 -8.76912E+03  4.63813E+03 -9.85485E+03  8.87724E+03 -4.46695E+03  8.38695E+03  2.34504E+03
  4.96587E+03  4.53078E+03  1.76837E+03  4.51661E+03 -8.26809E+02  2.80773E+03  1.61432E+03 -4.97857E+02
  3.71173E+03 -1.43743E+03  8.47764E+03  3.29366E+03  5.50414E+03  1.14043E+04 -1.59288E+03  1.48356E+04
 -1.02029E+04  1.05797E+04 -1.38335E+04  3.22197E+03 -1.20187E+04 -4.67666E+03 -4.94354E+03 -8.57376E+03
  1.51845E+03 -8.49964E+03  5.49080E+03 -4.10221E+03  4.85703E+03  3.76035E+03 -1.59872E+03  6.71421E+03
 -8.73671E+03  4.44804E+03 -1.07484E+04 -4.45365E+03 -5.81935E+03 -1.18349E+04  1.83418E+03 -1.22274E+04
  7.56852E+03 -7.29922E+03  9.28450E+03 -1.34874E+03  7.50498E+03  3.56895E+03  1.04463E+03  6.86273E+03
 -4.32537E+03  2.40669E+03 -5.69699E+03 -4.57792E+03  2.06875E+03 -9.44811E+03  1.10109E+04 -7.80836E+03
  1.43147E+04  7.50103E+02  1.32951E+04  9.49843E+03  4.02761E+03  1.51397E+04 -5.49743E+03  1.39421E+04
 -1.23691E+04  6.16121E+03 -1.24106E+04 -1.86779E+03 -6.95528E+03 -9.52298E+03  2.46062E+03 -9.53467E+03
  8.77218E+03 -4.30772E+03  7.99512E+03  3.97247E+03  2.34864E+03  8.08726E+03 -1.11952E+03  6.84856E+03
 -3.91809E+03  4.21988E+03 -3.27359E+03  1.43101E+03 -2.02661E+03  1.28717E+03 -1.85271E+03  2.49714E+03
 -3.93392E+03  5.44051E+03 -9.95004E+03  5.31613E+03 -1.52466E+04  1.70282E+02 -1.59500E+04 -9.65262E+03
 -8.83597E+03 -1.95749E+04  4.26928E+03 -2.30804E+04  1.46195E+04 -1.78086E+04  2.11996E+04 -6.86220E+03
  2.01559E+04  4.77934E+03  1.28693E+04  1.43244E+04  1.69358E+03  1.61512E+04 -5.88912E+03  1.16497E+04
 -8.33671E+03  4.36980E+03 -5.09869E+03 -1.86442E+03 -1.68429E+03 -2.00220E+03 -9.77968E+02 -1.26288E+02
 -2.01674E+03  7.30728E+02 -3.15342E+03 -8.36140E+02 -1.64802E+03 -3.61136E+03  6.12091E+02 -5.55118E+03
  7.19115E+03 -4.96450E+03  1.03790E+04 -2.77915E+02  1.12944E+04  8.23095E+03  3.64260E+03  1.61350E+04
 -7.17653E+03  1.82238E+04 -1.71135E+04  1.06096E+04 -1.97974E+04 -1.77640E+03 -1.46423E+04 -1.19681E+04
 -6.31238E+03 -1.69929E+04  4.29318E+03 -1.51173E+04  1.07186E+04 -7.79317E+03  1.05802E+04  2.34341E+02
  5.99718E+03  5.71804E+03 -7.61916E+02  4.64111E+03 -3.29002E+03 -1.17386E+02  3.73240E+01 -4.26635E+03
  5.33824E+03 -2.64448E+03  6.79204E+03  1.68038E+03  4.82226E+03  7.08069E+03  8.05098E+02  9.35919E+03
 -7.21114E+03  7.57278E+03 -1.12325E+04  6.57248E+02 -9.73000E+03 -8.61706E+03 -1.85410E+03 -1.44642E+04
  8.19470E+03 -1.20300E+04  1.32074E+04 -3.46758E+03  1.29767E+04  3.71103E+03  7.13664E+03  1.07937E+04
  1.12895E+03  1.08095E+04 -4.28010E+03  8.94106E+03 -6.75233E+03  4.93801E+03 -5.51861E+03  7.14680E+02
 -2.96215E+03 -3.17222E+02 -2.87526E+03  1.41368E+03 -5.80598E+03  2.07298E+03 -8.77385E+03 -1.33907E+03
 -7.96837E+03 -6.22509E+03 -2.18521E+03 -1.14641E+04  5.27049E+03 -1.17995E+04  1.09261E+04 -5.37010E+03
  1.15978E+04  1.17956E+03  6.70586E+03  8.04316E+03 -1.08305E+03  1.15509E+04 -8.76850E+03  7.77378E+03
