 $NMID ID='MM_0lb_SNR800_7hz_g40_47.RAW', FMTDAT='(8E13.5)'
 TRAMP=1., VOLUME=1. $END
  3.09615E+05  5.92175E+02  3.37825E+05  2.51035E+05  8.53246E+04  3.38810E+05 -1.32457E+05  2.51586E+05
 -1.90914E+05  8.41337E+04 -1.12666E+05 -3.24437E+04  6.04937E+01 -5.11355E+04  5.39510E+04 -5.49132E+02
  3.57902E+04  5.33939E+04 -1.63742E+04  7.65637E+04 -6.15641E+04  6.47867E+04 -8.56882E+04  3.23872E+04
 -8.25930E+04 -1.18016E+04 -5.83044E+04 -5.29775E+04 -1.53236E+04 -7.14789E+04  2.86799E+04 -4.72459E+04
  4.12463E+04  3.56936E+03  1.66379E+04  4.84142E+04 -3.49424E+04  4.86561E+04 -6.81915E+04  1.72274E+02
 -5.57421E+04 -5.80575E+04 -7.53382E+03 -7.99668E+04  3.50023E+04 -5.79076E+04  4.97420E+04 -1.86102E+04
  4.57856E+04  1.16973E+04  3.35379E+04  2.70379E+04  1.57283E+04  3.11906E+04 -5.55611E+03  2.77212E+04
 -2.22896E+04  1.19291E+04 -1.80052E+04 -5.74833E+03  7.11747E+03 -7.48707E+03  2.36910E+04  1.38057E+04
  7.77593E+03  3.78526E+04 -3.47361E+04  3.70142E+04 -6.59743E+04  2.08146E+03 -5.95513E+04 -4.47792E+04
 -1.23261E+04 -6.64083E+04  4.19833E+04 -4.81296E+04  6.17275E+04 -2.40649E+03  3.68813E+04  3.47478E+04
 -5.05620E+03  4.03786E+04 -3.25576E+04  1.92072E+04 -3.43265E+04 -3.61788E+03 -2.00327E+04 -1.18218E+04
 -9.46364E+03 -1.57515E+04 -2.73144E+02 -2.04668E+04  8.79029E+03 -2.34426E+04  1.60100E+04 -1.24347E+04
  1.02036E+04  5.99355E+03 -1.11175E+04  1.25916E+04 -2.37382E+04 -7.40434E+03 -8.75324E+03 -3.86037E+04
  2.54145E+04 -4.73943E+04  5.28444E+04 -2.14764E+04  4.94140E+04  2.12486E+04  1.77768E+04  4.80875E+04
 -1.66785E+04  3.67246E+04 -2.80972E+04  2.58986E+03 -1.21641E+04 -2.97885E+04  2.14620E+04 -3.76580E+04
  4.55616E+04 -1.13128E+04  4.15060E+04  2.55191E+04  2.21237E+04  5.21412E+04 -8.42381E+03  5.77093E+04
 -3.61375E+04  3.95171E+04 -4.87391E+04  1.17264E+04 -4.88671E+04 -1.88478E+04 -2.68811E+04 -4.31999E+04
  7.89187E+03 -4.30695E+04  3.52073E+04 -1.75375E+04  3.30317E+04  1.09257E+04  5.96719E+03  2.09953E+04
 -1.39907E+04  1.02543E+04 -1.13563E+04 -7.19424E+03  5.30998E+03 -1.14089E+04  1.91340E+04  5.53764E+03
  1.52975E+04  2.31245E+04 -4.90444E+03  2.71898E+04 -2.33504E+04  1.52574E+04 -3.21506E+04 -2.17224E+03
 -2.69981E+04 -1.90586E+04 -1.21487E+04 -2.64748E+04  4.59999E+03 -2.72256E+04  2.03874E+04 -2.43900E+04
  3.38296E+04 -1.48687E+04  3.92541E+04  5.53446E+03  2.72437E+04  2.57531E+04  4.75663E+03  4.22909E+04
 -2.04875E+04  3.50924E+04 -3.13496E+04  1.20506E+04 -2.28836E+04 -1.04079E+04 -5.22105E+03 -1.25037E+04
  5.66078E+02 -1.15137E+03 -8.41993E+03  9.01197E+03 -2.14302E+04  5.38399E+03 -2.09791E+04 -1.02715E+04
 -1.25636E+04 -2.50213E+04  6.51086E+03 -2.91831E+04  1.98015E+04 -2.10603E+04  2.39892E+04 -1.94862E+03
  1.56918E+04  1.73309E+04 -1.59499E+03  2.40903E+04 -1.73880E+04  1.47830E+04 -2.52341E+04 -4.83549E+03
 -1.85557E+04 -2.21016E+04 -2.58902E+03 -2.95226E+04  1.26852E+04 -2.46389E+04  2.46710E+04 -1.29269E+04
  2.35704E+04 -4.80643E+02  1.68965E+04  5.51163E+03  9.26125E+03  1.42620E+03  1.27730E+04 -2.35319E+03
  2.34017E+04  2.95402E+03  2.73352E+04  1.93830E+04  1.87396E+04  3.96470E+04 -2.52302E+03  4.71208E+04
 -2.69140E+04  3.97221E+04 -4.51533E+04  2.09548E+04 -4.77727E+04 -3.12952E+03 -3.88001E+04 -2.81828E+04
 -1.46779E+04 -4.01081E+04  1.45853E+04 -3.47885E+04  2.99531E+04 -1.58591E+04  2.54255E+04  8.69685E+03
  8.30942E+03  1.99670E+04 -1.22185E+04  1.65557E+04 -2.10143E+04  2.59704E+03 -1.60100E+04 -1.34969E+04
 -5.15919E+02 -2.03717E+04  1.14763E+04 -1.53646E+04  1.44483E+04 -1.61397E+03  3.64370E+03  9.58746E+03
 -9.45863E+03  4.57619E+03 -9.95555E+03 -7.34469E+03 -2.32391E+03 -1.98191E+04  1.26557E+04 -2.13963E+04
  2.52189E+04 -1.19929E+04  2.88901E+04  3.16445E+03  2.52506E+04  1.97812E+04  1.15092E+04  3.21211E+04
 -6.80533E+03  3.35519E+04 -2.23426E+04  2.10655E+04 -2.39977E+04  4.44510E+03 -1.67995E+04 -6.63495E+03
 -6.54281E+03 -8.07235E+03 -5.24944E+02  1.31929E+02 -2.85047E+03  3.60245E+03 -8.00231E+03  5.88690E+03
 -1.46705E+04 -1.05575E+03 -1.57204E+04 -1.26483E+04 -6.82461E+03 -2.08179E+04  6.90728E+03 -1.72947E+04
  1.40165E+04 -6.97562E+03  9.47721E+03  4.34179E+03 -7.64571E+02  6.82930E+03 -8.80260E+03 -2.04756E+02
 -8.55186E+03 -1.16270E+04 -1.15462E+03 -1.73732E+04  9.72908E+03 -1.78086E+04  2.25576E+04 -1.03479E+04
  2.64021E+04  3.01903E+03  1.88403E+04  1.58058E+04  3.91821E+03  2.10083E+04 -1.02895E+04  1.69393E+04
 -1.38724E+04  4.77165E+03 -6.90397E+03 -3.78762E+03  2.29675E+03 -4.94316E+03  9.03248E+03 -1.09124E+03
  8.31069E+03  7.92345E+03  1.09287E+03  1.39234E+04 -9.95381E+03  1.34845E+04 -1.66122E+04  3.33219E+03
 -1.21627E+04 -9.41644E+03  1.27558E+02 -1.54659E+04  1.03624E+04 -7.56219E+03  1.03894E+04  3.72705E+03
  2.87662E+03  1.16322E+04 -9.11950E+03  1.28276E+04 -1.57763E+04  5.52024E+03 -1.61475E+04 -6.34093E+03
 -9.02196E+03 -1.80797E+04  4.61082E+03 -2.04850E+04  1.73908E+04 -1.24619E+04  1.90680E+04  3.98839E+03
  1.07663E+04  1.52415E+04 -1.87401E+03  1.71488E+04 -1.31893E+04  9.92442E+03 -1.45026E+04 -1.58573E+03
 -1.14655E+04 -1.18231E+04 -1.88413E+03 -1.34652E+04  7.45767E+03 -1.04350E+04  8.80994E+03 -3.88070E+03
  5.32519E+03  2.75701E+03 -1.51980E+03  2.40362E+03 -1.37488E+03 -3.67065E+03  4.08466E+03 -8.96543E+03
  1.33559E+04 -5.79715E+03  1.87414E+04  2.02123E+03  1.77880E+04  1.27159E+04  1.16871E+04  2.39677E+04
 -6.00397E+03  2.75039E+04 -2.22786E+04  1.97534E+04 -2.92600E+04  3.93286E+03 -2.38038E+04 -1.09007E+04
 -1.17083E+04 -1.93115E+04 -1.95732E+01 -1.72832E+04  6.20221E+03 -9.54343E+03  6.05998E+03 -5.76518E+03
  4.49941E+03 -3.23356E+03  4.76087E+03 -4.23658E+03  5.98996E+03 -4.25342E+03  9.07092E+03 -1.39696E+03
  1.18258E+04  2.87836E+03  7.36111E+03  1.07142E+04 -2.35886E+03  1.35111E+04 -1.29576E+04  1.04786E+04
 -1.68180E+04 -1.31303E+03 -1.10342E+04 -1.19680E+04 -1.65838E+03 -1.80003E+04  9.98233E+03 -1.84142E+04
  1.93643E+04 -1.03525E+04  2.28949E+04  3.62400E+03  1.52779E+04  1.58878E+04  2.51113E+03  2.08523E+04
 -8.47011E+03  1.62736E+04 -1.28298E+04  6.09415E+03 -8.60671E+03 -1.95619E+03 -3.41846E+03 -2.32831E+03
 -1.69307E+03 -2.89313E+02 -2.49320E+03  3.01843E+03 -7.04223E+03  2.93483E+03 -1.18647E+04 -1.85048E+03
 -9.16254E+03 -1.15266E+04 -2.56380E+02 -1.69492E+04  1.04769E+04 -1.59661E+04  1.74678E+04 -5.42129E+03
  1.70196E+04  8.83572E+03  8.06782E+03  1.60662E+04 -3.56838E+03  1.71610E+04 -1.30277E+04  1.06774E+04
 -1.69582E+04  1.96481E+02 -1.27415E+04 -1.07835E+04 -1.77354E+03 -1.54057E+04  7.60260E+03 -1.07338E+04
  1.10941E+04 -3.33180E+03  7.87262E+03  3.00603E+03  3.10097E+03  5.29744E+03  1.55193E+03  2.48627E+03
  3.32788E+03  1.66472E+03  4.41842E+03  1.90798E+03  5.69085E+03  5.88039E+03  4.39747E+03  9.60984E+03
 -3.30693E+03  1.42929E+04 -1.29407E+04  1.39063E+04 -1.90363E+04  3.15356E+03 -1.92550E+04 -7.78142E+03
 -9.27652E+03 -1.82678E+04  2.50514E+03 -1.98535E+04  1.13186E+04 -1.26789E+04  1.50772E+04 -3.42473E+03
  1.13364E+04  6.66234E+03  2.67489E+03  1.06300E+04 -5.01789E+03  7.23444E+03 -7.55847E+03 -1.30131E+03
 -3.21298E+03 -7.87850E+03  4.29594E+03 -8.45763E+03  7.63085E+03 -3.96326E+03  7.70848E+03  1.26873E+03
  4.83457E+03  3.92128E+03  1.51254E+03  3.10541E+03 -8.03539E+02  2.39083E+03  1.89027E+03 -6.27187E+02
  3.07445E+03 -1.08904E+03  7.73480E+03  2.35787E+03  4.35350E+03  9.74495E+03 -1.31443E+03  1.30835E+04
 -8.84102E+03  8.77541E+03 -1.21356E+04  2.62007E+03 -1.03395E+04 -4.47471E+03 -4.11460E+03 -7.57728E+03
  1.40042E+03 -7.38897E+03  4.83076E+03 -2.94332E+03  4.16161E+03  3.36234E+03 -1.85253E+03  6.10492E+03
 -7.65904E+03  4.08094E+03 -8.70945E+03 -4.48771E+03 -5.21016E+03 -1.03296E+04  1.52785E+03 -1.07972E+04
  6.61435E+03 -6.28968E+03  7.43955E+03 -7.25545E+02  6.50347E+03  2.80349E+03  1.07335E+03  4.92560E+03
 -3.95364E+03  1.88671E+03 -4.50735E+03 -3.52123E+03  1.82181E+03 -8.29353E+03  9.24523E+03 -6.99492E+03
  1.22628E+04  1.02040E+03  1.14479E+04  8.44867E+03  3.66215E+03  1.29527E+04 -4.71299E+03  1.19804E+04
 -1.06190E+04  5.47691E+03 -1.13224E+04 -1.24806E+03 -6.11665E+03 -7.88008E+03  2.09498E+03 -7.97227E+03
  8.17579E+03 -3.54200E+03  7.07482E+03  3.61560E+03  2.07220E+03  7.16850E+03 -1.35834E+03  6.11034E+03
 -3.48716E+03  3.68422E+03 -3.38437E+03  8.80988E+02 -1.24736E+03  1.11260E+03 -1.87544E+03  2.48453E+03
 -3.25986E+03  5.02922E+03 -8.55262E+03  4.44975E+03 -1.35839E+04  5.95364E+02 -1.40984E+04 -8.93660E+03
 -8.01275E+03 -1.75541E+04  3.49577E+03 -1.99786E+04  1.31910E+04 -1.54076E+04  1.89714E+04 -6.18940E+03
  1.79623E+04  3.81050E+03  1.12407E+04  1.19767E+04  1.50824E+03  1.38084E+04 -5.38381E+03  9.86628E+03
 -7.78689E+03  3.94788E+03 -4.74219E+03 -1.38403E+03 -1.47107E+03 -1.31314E+03 -4.21614E+02  1.62259E+02
 -1.96051E+03  8.59213E+02 -2.88177E+03 -5.08463E+02 -1.32107E+03 -2.58214E+03  6.37440E+02 -5.09881E+03
  5.78341E+03 -4.48220E+03  8.36860E+03 -3.49769E+02  9.94226E+03  7.36092E+03  2.68000E+03  1.44984E+04
 -6.69028E+03  1.54598E+04 -1.53879E+04  9.29168E+03 -1.73924E+04 -1.62050E+03 -1.28115E+04 -1.03345E+04
 -4.80234E+03 -1.44078E+04  3.78826E+03 -1.34734E+04  9.14508E+03 -7.56176E+03  9.44551E+03  3.67252E+02
  4.92561E+03  5.04742E+03 -3.34253E+02  3.95538E+03 -2.92830E+03 -7.40440E+02  3.35990E+02 -3.04468E+03
  4.32420E+03 -1.94251E+03  5.32321E+03  1.76761E+03  3.69179E+03  5.59580E+03 -3.78145E+01  7.61386E+03
 -6.36091E+03  6.22408E+03 -9.87947E+03  9.07349E+02 -8.74113E+03 -6.41104E+03 -1.47447E+03 -1.21669E+04
  7.13080E+03 -1.00731E+04  1.15300E+04 -3.37893E+03  1.15382E+04  3.48718E+03  6.95046E+03  8.98128E+03
  1.00646E+03  9.86349E+03 -4.24180E+03  7.95573E+03 -6.09770E+03  3.91952E+03 -4.62712E+03  2.75475E+02
 -2.75590E+03 -2.92872E+02 -2.87398E+03  1.17652E+03 -4.94437E+03  1.67299E+03 -7.31125E+03 -1.30403E+03
 -7.21238E+03 -5.85818E+03 -1.93920E+03 -9.64093E+03  4.39175E+03 -1.00894E+04  8.86586E+03 -5.28942E+03
  9.54287E+03  1.27487E+03  5.57377E+03  7.29166E+03 -7.46001E+02  9.94440E+03 -7.44498E+03  6.22646E+03
