 $NMID ID='MM_0lb_SNR800_14hz_g45_96.RAW', FMTDAT='(8E13.5)'
 TRAMP=1., VOLUME=1. $END
  3.09773E+05  5.17269E+02  3.37786E+05  2.50640E+05  8.46822E+04  3.37679E+05 -1.32653E+05  2.50582E+05
 -1.90248E+05  8.30624E+04 -1.11677E+05 -3.27565E+04  8.33789E+02 -5.06494E+04  5.39091E+04 -2.67945E+02
  3.50429E+04  5.25897E+04 -1.69515E+04  7.54385E+04 -6.07104E+04  6.36014E+04 -8.40277E+04  3.20234E+04
 -8.06237E+04 -1.13412E+04 -5.72368E+04 -5.11517E+04 -1.49542E+04 -6.94748E+04  2.76504E+04 -4.59449E+04
  3.97197E+04  3.86336E+03  1.58746E+04  4.76594E+04 -3.44265E+04  4.71371E+04 -6.68154E+04 -2.66256E+02
 -5.31890E+04 -5.66250E+04 -6.61499E+03 -7.66241E+04  3.38304E+04 -5.51128E+04  4.77711E+04 -1.69661E+04
  4.32386E+04  1.17201E+04  3.13927E+04  2.52246E+04  1.58207E+04  2.94220E+04 -5.40837E+03  2.70761E+04
 -2.21187E+04  1.21770E+04 -1.88009E+04 -4.92474E+03  5.11507E+03 -7.37289E+03  2.20658E+04  1.21665E+04
  7.39184E+03  3.50649E+04 -3.20667E+04  3.53945E+04 -6.31889E+04  2.29642E+03 -5.69101E+04 -4.28027E+04
 -1.22615E+04 -6.32142E+04  3.97414E+04 -4.47030E+04  5.81446E+04 -2.16634E+03  3.39904E+04  3.19253E+04
 -6.21392E+03  3.56854E+04 -2.96014E+04  1.56204E+04 -2.98961E+04 -4.66769E+03 -1.64262E+04 -1.07987E+04
 -8.14226E+03 -1.27594E+04 -1.02364E+03 -1.77228E+04  7.56639E+03 -2.27713E+04  1.50615E+04 -1.34270E+04
  1.15644E+04  5.34090E+03 -8.08865E+03  1.29800E+04 -2.11072E+04 -4.40627E+03 -8.52419E+03 -3.32219E+04
  2.23469E+04 -4.32770E+04  4.79411E+04 -1.96649E+04  4.49951E+04  1.96253E+04  1.55234E+04  4.39750E+04
 -1.57960E+04  3.29682E+04 -2.50875E+04  1.84190E+03 -9.48663E+03 -2.73605E+04  2.06031E+04 -3.35858E+04
  4.07071E+04 -8.89613E+03  3.52441E+04  2.35372E+04  1.77545E+04  4.60740E+04 -7.71897E+03  4.98255E+04
 -3.15786E+04  3.35707E+04 -4.17321E+04  9.72168E+03 -4.21262E+04 -1.66618E+04 -2.31360E+04 -3.76638E+04
  7.17503E+03 -3.74813E+04  3.13949E+04 -1.43190E+04  2.90215E+04  1.08621E+04  3.91817E+03  1.89152E+04
 -1.34443E+04  8.29207E+03 -1.03821E+04 -7.91849E+03  5.66619E+03 -1.06220E+04  1.78833E+04  5.84727E+03
  1.34147E+04  2.21249E+04 -6.17567E+03  2.47010E+04 -2.22413E+04  1.15010E+04 -2.75609E+04 -5.33851E+03
 -2.05222E+04 -1.72289E+04 -7.95134E+03 -2.02303E+04  4.35901E+03 -1.90329E+04  1.52491E+04 -1.81121E+04
  2.56463E+04 -1.26232E+04  3.23135E+04  2.56208E+03  2.34969E+04  1.95160E+04  4.38001E+03  3.58395E+04
 -1.74498E+04  3.02524E+04 -2.75361E+04  1.02778E+04 -2.09310E+04 -1.06372E+04 -4.41079E+03 -1.35614E+04
  1.90787E+03 -2.78369E+03 -4.54140E+03  6.50503E+03 -1.58083E+04  5.05167E+03 -1.59198E+04 -6.79524E+03
 -1.01164E+04 -1.87434E+04  5.01139E+03 -2.28531E+04  1.52247E+04 -1.65171E+04  1.75674E+04 -1.67085E+03
  1.11786E+04  1.29408E+04 -1.13009E+03  1.86150E+04 -1.27192E+04  1.07861E+04 -1.88904E+04 -3.64923E+03
 -1.36789E+04 -1.68051E+04 -1.78338E+03 -2.30113E+04  1.03042E+04 -1.84433E+04  1.88197E+04 -8.93754E+03
  1.76741E+04  4.50805E+02  1.24765E+04  4.38597E+03  6.76282E+03  7.43604E+02  9.47549E+03 -1.69194E+03
  1.73767E+04  2.73308E+03  1.90221E+04  1.48188E+04  1.21538E+04  2.98031E+04 -2.87554E+03  3.32687E+04
 -1.94685E+04  2.66172E+04 -3.11711E+04  1.32703E+04 -3.27150E+04 -2.69020E+03 -2.67484E+04 -1.90292E+04
 -1.15157E+04 -2.66792E+04  9.16486E+03 -2.44771E+04  2.07515E+04 -1.25804E+04  1.87959E+04  5.23498E+03
  7.13826E+03  1.39641E+04 -8.42928E+03  1.24515E+04 -1.58408E+04  2.51220E+03 -1.21959E+04 -9.85724E+03
  2.09957E+02 -1.50319E+04  7.92531E+03 -1.11948E+04  1.01157E+04 -1.54421E+03  2.11164E+03  6.48028E+03
 -6.66987E+03  2.55957E+03 -5.60930E+03 -5.43950E+03 -2.72194E+02 -1.33504E+04  9.17984E+03 -1.35785E+04
  1.62877E+04 -7.21452E+03  1.74199E+04  3.03392E+03  1.49757E+04  1.28169E+04  6.94873E+03  1.97635E+04
 -2.79764E+03  2.11984E+04 -1.36019E+04  1.35574E+04 -1.55377E+04  2.93634E+03 -1.09149E+04 -3.61758E+03
 -5.02500E+03 -4.47751E+03 -6.78865E+02  1.18623E+03 -2.19241E+03  2.65487E+03 -4.88728E+03  4.31701E+03
 -1.04386E+04 -6.83669E+02 -1.10407E+04 -9.00824E+03 -4.61897E+03 -1.46925E+04  4.55934E+03 -1.08846E+04
  9.49328E+03 -4.66746E+03  6.66860E+03  3.14774E+03  4.86732E+02  4.57720E+03 -5.00076E+03 -2.32419E+02
 -5.21730E+03 -7.13525E+03 -1.07463E+03 -9.86121E+03  5.99212E+03 -1.11277E+04  1.36453E+04 -5.77355E+03
  1.58595E+04  1.11897E+03  1.18111E+04  9.43343E+03  2.22207E+03  1.23910E+04 -6.99223E+03  1.08296E+04
 -9.09850E+03  3.46546E+03 -4.98582E+03 -1.84271E+03  1.67458E+03 -3.18594E+03  5.98728E+03 -7.84711E+02
  5.36996E+03  4.50457E+03  1.17790E+03  8.65823E+03 -6.52669E+03  8.39781E+03 -1.05610E+04  2.29492E+03
 -6.97133E+03 -5.51302E+03  2.37655E+02 -9.57422E+03  5.65797E+03 -4.55605E+03  5.49967E+03  1.55611E+03
  1.33512E+03  6.03948E+03 -5.36788E+03  6.97766E+03 -8.08099E+03  3.38554E+03 -7.85555E+03 -2.41593E+03
 -4.57926E+03 -9.63844E+03  2.30823E+03 -1.09070E+04  8.89920E+03 -6.97719E+03  1.02616E+04  1.78601E+03
  6.45542E+03  7.94225E+03 -5.87870E+02  1.01166E+04 -7.12371E+03  5.89790E+03 -7.71558E+03 -1.10580E+03
 -7.76236E+03 -7.26323E+03 -1.59477E+03 -7.41796E+03  3.92206E+03 -6.27410E+03  4.35361E+03 -3.43514E+03
  3.54812E+03  8.42924E+02 -2.73777E+02  1.25352E+03  2.07909E+02 -1.56328E+03  9.05783E+02 -3.72295E+03
  6.32709E+03 -2.23785E+03  9.11869E+03  1.19054E+03  9.15988E+03  6.12427E+03  6.84580E+03  1.20088E+04
 -2.30889E+03  1.39640E+04 -1.18276E+04  1.03752E+04 -1.51275E+04  2.00554E+03 -1.18392E+04 -4.91356E+03
 -6.11626E+03 -1.02944E+04 -2.76697E+02 -8.35926E+03  3.45831E+03 -4.54630E+03  2.81826E+03 -2.88644E+03
  2.29192E+03 -2.21707E+03  2.62510E+03 -2.95679E+03  4.25921E+03 -2.19376E+03  5.04229E+03 -1.87294E+02
  6.68498E+03  1.37225E+03  3.01520E+03  5.66586E+03 -1.51825E+03  5.68305E+03 -6.77975E+03  4.55892E+03
 -8.23944E+03 -1.44679E+03 -4.42871E+03 -5.89422E+03  1.72851E+02 -8.61004E+03  4.91371E+03 -8.58356E+03
  8.95388E+03 -4.99013E+03  1.10992E+04  1.20934E+03  7.72132E+03  6.93174E+03  1.66270E+03  1.01000E+04
 -3.94711E+03  8.81344E+03 -5.83960E+03  2.90710E+03 -3.76284E+03 -1.02923E+03 -1.57942E+03 -9.95669E+02
 -9.31192E+02  3.08561E+02 -1.33277E+03  2.16853E+03 -3.81820E+03  1.49393E+03 -6.16323E+03 -1.06923E+03
 -3.61568E+03 -5.92646E+03  4.69333E+02 -7.84056E+03  4.70987E+03 -7.52140E+03  7.21568E+03 -1.78760E+03
  7.39922E+03  3.93527E+03  3.30048E+03  6.79418E+03 -1.65780E+03  7.78532E+03 -5.29375E+03  4.78688E+03
 -7.41197E+03  5.75048E+02 -5.84268E+03 -4.57428E+03 -3.56993E+02 -6.26495E+03  3.07491E+03 -4.61166E+03
  4.96571E+03 -1.70315E+03  3.22082E+03  9.70347E+02  8.31966E+02  2.31942E+03  1.19826E+03  7.67401E+02
  1.99215E+03  6.16695E+02  2.25831E+03  1.31253E+03  2.43220E+03  3.12339E+03  2.08937E+03  3.49778E+03
 -1.39660E+03  5.68119E+03 -5.14291E+03  6.55115E+03 -6.99587E+03  1.82441E+03 -7.72925E+03 -2.31200E+03
 -3.38550E+03 -7.12518E+03  1.11867E+03 -8.37976E+03  4.03547E+03 -5.28790E+03  6.08504E+03 -1.80332E+03
  4.72088E+03  3.20707E+03  6.06605E+02  3.97951E+03 -1.85454E+03  2.44145E+03 -2.54241E+03 -4.93675E+02
 -1.30982E+03 -3.28860E+03  1.78231E+03 -3.26901E+03  3.03768E+03 -1.71906E+03  2.97302E+03  8.51876E+02
  1.66492E+03  1.20065E+03  9.46087E+02  4.68334E+02 -5.41557E+02  1.29620E+03  1.77164E+03 -4.87563E+01
  5.71158E+02 -6.14256E+02  3.07405E+03  1.14236E+03  1.47487E+03  4.17122E+03 -3.39013E+02  5.32749E+03
 -3.13488E+03  2.92785E+03 -4.34306E+03  6.37950E+02 -3.64698E+03 -1.59020E+03 -9.41056E+02 -2.34196E+03
  1.89360E+02 -2.60818E+03  1.62588E+03 -1.29397E+03  1.43348E+03  1.52240E+03 -9.81461E+02  2.11859E+03
 -3.07565E+03  1.44957E+03 -2.94208E+03 -2.08839E+03 -1.66909E+03 -4.07096E+03  5.37934E+02 -3.39948E+03
  1.99949E+03 -2.12782E+03  2.43106E+03 -3.08401E+02  2.37848E+03  9.12341E+02  3.98200E+02  2.14013E+03
 -1.18249E+03  4.28534E+02 -1.75552E+03 -9.18785E+02  1.03242E+03 -2.17108E+03  3.60158E+03 -2.43387E+03
  3.53253E+03 -1.94128E+00  4.68828E+03  2.29735E+03  1.67262E+03  3.89416E+03 -1.62558E+03  4.16838E+03
 -3.51811E+03  1.34321E+03 -3.65038E+03 -2.28878E+02 -1.94338E+03 -3.16323E+03  6.46468E+02 -2.02742E+03
  3.00567E+03 -1.68801E+03  1.92924E+03  1.47050E+03  9.55272E+02  2.69637E+03 -3.60332E+02  2.25331E+03
 -8.97491E+02  1.60361E+03 -9.12937E+02  5.44652E+02 -2.30314E+02  6.99328E+02 -1.19980E+03  1.06349E+03
 -1.21247E+03  1.80398E+03 -3.24154E+03  1.54395E+03 -3.86141E+03 -1.96989E+02 -4.45375E+03 -2.40192E+03
 -2.35589E+03 -5.42850E+03  9.55468E+02 -6.38318E+03  3.55936E+03 -5.07739E+03  6.48548E+03 -1.98293E+03
  5.28830E+03  7.54793E+02  3.15599E+03  3.83223E+03 -3.25346E+01  3.97365E+03 -1.68222E+03  2.93521E+03
 -2.16783E+03  1.57390E+03 -1.32746E+03 -3.00453E+02 -7.36634E+02 -7.69469E+01 -5.57750E+02  2.80696E+02
 -1.34410E+03 -2.08043E+02 -1.03372E+03  2.19646E+01  1.33146E+01 -1.14438E+03 -9.32261E+01 -1.82986E+03
  2.06384E+03 -1.37268E+03  2.15703E+03  1.25980E+02  2.62608E+03  2.11063E+03  4.65196E+02  3.59686E+03
 -2.08984E+03  5.27662E+03 -4.32241E+03  2.94308E+03 -4.64686E+03 -3.72907E+02 -3.43584E+03 -2.53882E+03
 -1.70708E+03 -3.70075E+03  8.71293E+02 -3.53844E+03  2.55455E+03 -2.24026E+03  2.46590E+03  1.15507E+02
  1.64406E+03  1.51750E+03 -2.00542E+02  1.24657E+03 -1.07226E+03  1.28396E+02 -3.13338E+02 -9.56216E+02
  1.30650E+03 -1.14009E+02  1.41792E+03  4.71319E+02  8.13259E+02  1.64900E+03 -2.13014E+02  1.69727E+03
 -1.94243E+03  1.66097E+03 -2.27586E+03  2.65079E+02 -2.10629E+03 -1.63906E+03 -3.93523E+02 -2.93835E+03
  1.75826E+03 -2.63324E+03  2.75029E+03 -5.25212E+02  2.81562E+03  1.03464E+01  1.10217E+03  2.36414E+03
  5.48004E+02  2.41610E+03 -5.78292E+02  2.03340E+03 -1.57995E+03  1.41106E+03 -1.41657E+03 -1.93982E+01
 -6.99057E+02 -2.05891E+01 -1.13407E+03  3.82276E+02 -1.30419E+03  3.51150E+02 -2.26758E+03 -4.53596E+02
 -2.18137E+03 -8.44468E+02 -2.29626E+02 -2.28659E+03  1.37078E+03 -3.13415E+03  2.12362E+03 -1.13195E+03
  2.19134E+03  3.08723E+02  8.88759E+02  1.43624E+03 -2.60729E+02  2.45381E+03 -1.39623E+03  1.48876E+03
