 $NMID ID='MM_0lb_SNR800_13hz_g55_78.RAW', FMTDAT='(8E13.5)'
 TRAMP=1., VOLUME=1. $END
  3.09978E+05  3.62275E+02  3.37649E+05  2.50695E+05  8.47500E+04  3.38386E+05 -1.32434E+05  2.51209E+05
 -1.90636E+05  8.34793E+04 -1.12261E+05 -3.29094E+04  4.28754E+02 -5.06054E+04  5.40767E+04 -3.98323E+02
  3.56872E+04  5.30922E+04 -1.70436E+04  7.58247E+04 -6.08726E+04  6.40070E+04 -8.46396E+04  3.23243E+04
 -8.17314E+04 -1.15449E+04 -5.76730E+04 -5.20037E+04 -1.46364E+04 -7.06790E+04  2.75177E+04 -4.60163E+04
  4.04956E+04  3.79758E+03  1.64415E+04  4.82327E+04 -3.47991E+04  4.78291E+04 -6.72194E+04 -2.81444E+02
 -5.44752E+04 -5.72373E+04 -7.19514E+03 -7.80663E+04  3.40362E+04 -5.60140E+04  4.84900E+04 -1.78207E+04
  4.39318E+04  1.11887E+04  3.22386E+04  2.60126E+04  1.61789E+04  3.00630E+04 -5.66324E+03  2.73664E+04
 -2.19982E+04  1.24191E+04 -1.84939E+04 -5.26693E+03  6.13301E+03 -7.54245E+03  2.32284E+04  1.28584E+04
  7.37839E+03  3.63430E+04 -3.28791E+04  3.60147E+04 -6.42629E+04  1.93256E+03 -5.78785E+04 -4.34547E+04
 -1.28131E+04 -6.42322E+04  4.07584E+04 -4.59752E+04  5.95045E+04 -2.35152E+03  3.52627E+04  3.32266E+04
 -5.89007E+03  3.71311E+04 -3.07964E+04  1.70928E+04 -3.13896E+04 -4.11663E+03 -1.76806E+04 -1.13486E+04
 -8.85722E+03 -1.37690E+04 -7.85384E+02 -1.84051E+04  7.77839E+03 -2.29425E+04  1.58375E+04 -1.33734E+04
  1.11986E+04  5.54302E+03 -9.34000E+03  1.29557E+04 -2.21774E+04 -5.26282E+03 -8.61606E+03 -3.53036E+04
  2.36672E+04 -4.45665E+04  4.98823E+04 -2.04319E+04  4.65002E+04  1.97755E+04  1.64023E+04  4.52927E+04
 -1.62101E+04  3.46605E+04 -2.60144E+04  2.23349E+03 -1.05523E+04 -2.83541E+04  2.12272E+04 -3.49530E+04
  4.24644E+04 -9.98619E+03  3.72374E+04  2.40605E+04  1.92917E+04  4.81411E+04 -8.42927E+03  5.25195E+04
 -3.32181E+04  3.53164E+04 -4.41482E+04  1.03146E+04 -4.45978E+04 -1.74751E+04 -2.43168E+04 -3.94328E+04
  7.55696E+03 -3.94931E+04  3.24810E+04 -1.58213E+04  3.01082E+04  1.07848E+04  4.37257E+03  1.97897E+04
 -1.38009E+04  8.89114E+03 -1.07779E+04 -7.43639E+03  5.75660E+03 -1.08231E+04  1.79648E+04  6.01176E+03
  1.39845E+04  2.24713E+04 -5.61153E+03  2.54626E+04 -2.28623E+04  1.24302E+04 -2.91215E+04 -4.23067E+03
 -2.21681E+04 -1.76481E+04 -9.23694E+03 -2.22511E+04  4.34942E+03 -2.18434E+04  1.70061E+04 -1.95929E+04
  2.78961E+04 -1.33294E+04  3.42267E+04  3.45989E+03  2.52254E+04  2.16075E+04  4.09821E+03  3.80199E+04
 -1.84873E+04  3.16260E+04 -2.86906E+04  1.08309E+04 -2.13774E+04 -1.03005E+04 -4.32072E+03 -1.29279E+04
  1.16941E+03 -2.41750E+03 -5.85295E+03  7.19288E+03 -1.74950E+04  5.31527E+03 -1.76344E+04 -7.90718E+03
 -1.04625E+04 -2.05223E+04  5.31023E+03 -2.47621E+04  1.64682E+04 -1.75039E+04  1.98892E+04 -1.59059E+03
  1.23601E+04  1.36238E+04 -1.21152E+03  2.05143E+04 -1.42392E+04  1.15463E+04 -2.04718E+04 -4.14895E+03
 -1.49814E+04 -1.83575E+04 -1.74695E+03 -2.42499E+04  1.10198E+04 -2.03113E+04  2.04910E+04 -1.01553E+04
  1.89345E+04  1.80590E+02  1.36626E+04  5.09089E+03  7.46677E+03  1.00579E+03  1.04542E+04 -1.50221E+03
  1.88354E+04  3.06116E+03  2.10097E+04  1.61053E+04  1.39857E+04  3.25726E+04 -2.71526E+03  3.72392E+04
 -2.15720E+04  3.03718E+04 -3.50356E+04  1.54488E+04 -3.71218E+04 -2.58857E+03 -3.04672E+04 -2.08606E+04
 -1.24198E+04 -3.09753E+04  1.05631E+04 -2.71528E+04  2.33611E+04 -1.35457E+04  2.08462E+04  5.91816E+03
  7.16301E+03  1.57357E+04 -9.51112E+03  1.35032E+04 -1.74655E+04  2.76984E+03 -1.33998E+04 -1.13215E+04
 -2.42164E+02 -1.66827E+04  8.91957E+03 -1.17079E+04  1.13589E+04 -1.33784E+03  2.61544E+03  7.41208E+03
 -7.15087E+03  3.09750E+03 -6.89939E+03 -5.77133E+03 -6.59487E+02 -1.47598E+04  1.04114E+04 -1.58839E+04
  1.85125E+04 -8.36098E+03  2.02196E+04  3.05892E+03  1.77011E+04  1.47656E+04  8.10168E+03  2.31707E+04
 -4.02570E+03  2.48516E+04 -1.58177E+04  1.51020E+04 -1.78838E+04  3.69940E+03 -1.25104E+04 -4.14580E+03
 -5.65691E+03 -5.88370E+03 -6.75247E+02  9.06964E+02 -2.44445E+03  2.88119E+03 -5.67197E+03  4.60748E+03
 -1.16650E+04 -7.73068E+02 -1.23776E+04 -9.80074E+03 -4.98202E+03 -1.57782E+04  5.62436E+03 -1.27678E+04
  1.02850E+04 -5.34862E+03  7.22632E+03  3.20395E+03  1.56199E+02  4.89558E+03 -5.87794E+03 -8.75532E+01
 -5.97686E+03 -8.09140E+03 -8.92935E+02 -1.21636E+04  6.87453E+03 -1.27946E+04  1.56308E+04 -6.75693E+03
  1.83072E+04  1.59921E+03  1.37285E+04  1.12131E+04  2.37739E+03  1.45445E+04 -7.70039E+03  1.23504E+04
 -1.00206E+04  3.69308E+03 -5.47284E+03 -2.25840E+03  2.09101E+03 -3.33954E+03  6.73856E+03 -1.06356E+03
  6.00565E+03  5.16921E+03  1.16546E+03  9.94712E+03 -7.17307E+03  9.30344E+03 -1.22852E+04  2.17498E+03
 -8.21153E+03 -5.84243E+03  4.34341E+02 -1.07875E+04  6.61311E+03 -5.24717E+03  6.53378E+03  2.61364E+03
  1.25169E+03  6.80942E+03 -6.36952E+03  8.41352E+03 -9.66910E+03  3.82902E+03 -9.72587E+03 -3.01881E+03
 -5.69582E+03 -1.14291E+04  2.65514E+03 -1.28868E+04  1.16797E+04 -7.75678E+03  1.21969E+04  2.24578E+03
  7.49097E+03  9.70933E+03 -9.88079E+02  1.20179E+04 -8.41989E+03  6.28579E+03 -9.16755E+03 -1.04845E+03
 -8.23840E+03 -8.29595E+03 -1.52698E+03 -8.57707E+03  4.37465E+03 -7.31519E+03  5.54677E+03 -3.65968E+03
  3.98676E+03  1.05028E+03 -9.19769E+02  1.69320E+03 -4.29744E+02 -2.12490E+03  1.40420E+03 -4.80842E+03
  8.07618E+03 -2.88593E+03  1.11421E+04  1.21858E+03  1.09090E+04  7.32956E+03  7.85286E+03  1.41583E+04
 -3.14781E+03  1.67618E+04 -1.42923E+04  1.24175E+04 -1.81405E+04  2.08565E+03 -1.44961E+04 -5.86323E+03
 -7.41873E+03 -1.22054E+04 -5.47179E+02 -1.04127E+04  4.07123E+03 -5.35110E+03  3.53274E+03 -3.80092E+03
  2.75139E+03 -1.95872E+03  3.12994E+03 -3.32677E+03  4.81928E+03 -2.56809E+03  5.71900E+03 -5.60553E+02
  8.16729E+03  2.03395E+03  3.76706E+03  6.24829E+03 -2.13112E+03  6.91199E+03 -7.66074E+03  5.60752E+03
 -1.00292E+04 -9.62559E+02 -5.93877E+03 -6.97172E+03 -4.83059E+02 -1.05601E+04  6.13292E+03 -1.04615E+04
  1.10744E+04 -6.04727E+03  1.31509E+04  1.55705E+03  9.46728E+03  9.13104E+03  1.58831E+03  1.21004E+04
 -4.62582E+03  9.81716E+03 -6.83324E+03  3.46976E+03 -4.84403E+03 -1.44939E+03 -2.15476E+03 -1.51495E+03
 -8.02956E+02 -7.06184E+01 -1.52831E+03  2.65150E+03 -4.06193E+03  1.79218E+03 -7.22324E+03 -6.92294E+02
 -4.43312E+03 -7.39690E+03  2.93820E+02 -9.45142E+03  5.87669E+03 -8.72516E+03  9.10973E+03 -2.51643E+03
  9.46946E+03  4.70672E+03  4.19772E+03  8.43014E+03 -1.70161E+03  9.87371E+03 -6.73632E+03  5.61369E+03
 -8.79568E+03  5.47106E+02 -6.88316E+03 -5.69541E+03 -6.83325E+02 -7.94815E+03  4.22339E+03 -5.73110E+03
  6.00019E+03 -2.07556E+03  3.97627E+03  1.11291E+03  1.53773E+03  3.05882E+03  1.28388E+03  1.39437E+03
  2.02989E+03  9.55698E+02  2.03366E+03  1.43276E+03  2.82958E+03  3.70903E+03  2.47763E+03  4.94720E+03
 -2.12821E+03  7.13368E+03 -6.31421E+03  7.51214E+03 -8.68731E+03  2.59228E+03 -9.71682E+03 -3.13904E+03
 -4.07810E+03 -9.21050E+03  1.61397E+03 -1.02970E+04  5.29247E+03 -6.17286E+03  7.30769E+03 -1.68872E+03
  5.45645E+03  3.67785E+03  1.66483E+03  5.24312E+03 -2.42242E+03  3.17726E+03 -3.46726E+03  1.75668E+00
 -1.53326E+03 -3.57930E+03  2.30586E+03 -3.94453E+03  3.99759E+03 -2.00695E+03  3.28712E+03  1.04197E+03
  2.21752E+03  1.70444E+03  9.78507E+02  5.04857E+02 -4.98440E+02  1.23046E+03  1.60727E+03 -1.82491E+02
  1.49542E+03 -3.25949E+02  3.88462E+03  1.52263E+03  1.92199E+03  5.03419E+03 -6.37251E+02  6.29561E+03
 -4.23431E+03  4.05085E+03 -5.68500E+03  6.42208E+02 -5.01308E+03 -2.23196E+03 -1.37904E+03 -3.49017E+03
  6.55987E+02 -3.25970E+03  2.52070E+03 -1.53860E+03  1.93235E+03  2.18828E+03 -1.16922E+03  2.96303E+03
 -3.86621E+03  1.84541E+03 -3.66316E+03 -2.19812E+03 -2.09345E+03 -4.95570E+03  5.79597E+02 -4.97133E+03
  2.40129E+03 -2.60168E+03  2.80257E+03 -1.40153E+02  2.96264E+03  8.97058E+02  8.36976E+02  2.72435E+03
 -1.36697E+03  8.07340E+02 -2.12378E+03 -1.57978E+03  9.55472E+02 -3.41006E+03  4.19949E+03 -2.89362E+03
  4.60175E+03  2.01316E+02  5.79248E+03  3.30269E+03  1.96447E+03  5.35663E+03 -1.80198E+03  5.04886E+03
 -4.33181E+03  1.69048E+03 -4.27508E+03 -5.22130E+02 -1.98457E+03 -3.29720E+03  8.09539E+02 -3.08489E+03
  3.36502E+03 -1.72494E+03  2.49615E+03  1.31309E+03  9.80914E+02  3.12612E+03 -1.46400E+02  2.43356E+03
 -1.37842E+03  1.77154E+03 -1.65768E+03  5.72728E+02 -7.31073E+02  7.62208E+02 -1.20786E+03  1.33644E+03
 -1.49144E+03  2.27617E+03 -4.09659E+03  1.53771E+03 -5.32443E+03  3.13953E+02 -5.99155E+03 -3.07778E+03
 -2.98357E+03 -6.94031E+03  1.33529E+03 -8.01600E+03  4.37789E+03 -6.34724E+03  7.56989E+03 -2.33459E+03
  7.12155E+03  1.27790E+03  3.83459E+03  4.82988E+03  2.20658E+02  5.15677E+03 -2.16515E+03  4.10894E+03
 -2.95557E+03  1.78503E+03 -1.73800E+03 -5.29731E+02 -1.10598E+03 -2.98063E+02 -6.84441E+02 -1.61670E+02
 -1.05899E+03 -1.71991E+02 -1.14665E+03  1.71244E+02  3.08819E+01 -1.45507E+03 -1.17871E+02 -2.07457E+03
  2.41753E+03 -1.23784E+03  2.82185E+03 -7.80715E+01  3.87237E+03  3.04283E+03  5.63807E+02  4.99392E+03
 -2.39025E+03  6.21557E+03 -5.15271E+03  3.78684E+03 -6.04501E+03 -4.59831E+02 -4.51823E+03 -3.82145E+03
 -2.27893E+03 -4.87734E+03  1.33750E+03 -4.36877E+03  2.49625E+03 -2.35744E+03  3.37285E+03  3.08896E+02
  2.03423E+03  1.72555E+03 -2.33200E+02  1.52004E+03 -9.95709E+02 -1.80453E+02 -3.12785E+02 -8.93773E+02
  1.49324E+03 -3.50909E+02  1.79347E+03  1.08458E+03  6.24994E+02  1.88283E+03  2.72359E+02  2.02155E+03
 -1.61443E+03  2.09824E+03 -2.93425E+03  5.79305E+02 -2.81220E+03 -2.32529E+03 -3.94254E+02 -3.86385E+03
  2.39853E+03 -2.97971E+03  3.36568E+03 -1.05425E+03  3.87549E+03  4.33012E+02  1.92722E+03  2.88683E+03
  5.55720E+02  3.02532E+03 -7.57581E+02  2.59673E+03 -1.80473E+03  1.44503E+03 -1.22509E+03 -2.10544E+01
 -9.55149E+02 -2.28876E+02 -1.11008E+03  3.78179E+02 -1.82456E+03  3.12512E+02 -2.35826E+03 -6.20211E+02
 -2.48998E+03 -1.10311E+03 -8.13028E+02 -2.93292E+03  1.54109E+03 -3.90648E+03  2.39334E+03 -1.44434E+03
  2.99823E+03  3.04777E+02  1.31742E+03  1.89737E+03 -1.19990E+02  2.67528E+03 -2.54428E+03  2.54154E+03
