 $NMID ID='MM_0lb_SNR800_11hz_g55_75.RAW', FMTDAT='(8E13.5)'
 TRAMP=1., VOLUME=1. $END
  3.09394E+05  2.76597E+02  3.38108E+05  2.50676E+05  8.48132E+04  3.38539E+05 -1.32773E+05  2.51657E+05
 -1.90791E+05  8.34154E+04 -1.11950E+05 -3.24363E+04  6.26104E+02 -5.08223E+04  5.37113E+04 -7.31891E+02
  3.56649E+04  5.29103E+04 -1.66623E+04  7.61325E+04 -6.14311E+04  6.43865E+04 -8.50696E+04  3.26084E+04
 -8.23083E+04 -1.17879E+04 -5.78888E+04 -5.22066E+04 -1.51277E+04 -7.08083E+04  2.83156E+04 -4.62684E+04
  4.06436E+04  3.68076E+03  1.63295E+04  4.83445E+04 -3.49950E+04  4.79264E+04 -6.76271E+04 -1.43827E+02
 -5.46393E+04 -5.74746E+04 -7.30885E+03 -7.82081E+04  3.49980E+04 -5.65206E+04  4.89002E+04 -1.80642E+04
  4.46640E+04  1.16748E+04  3.24925E+04  2.63246E+04  1.57940E+04  3.06376E+04 -5.58710E+03  2.77864E+04
 -2.22820E+04  1.25445E+04 -1.83232E+04 -5.71779E+03  6.89505E+03 -7.84627E+03  2.31606E+04  1.31195E+04
  6.80690E+03  3.66838E+04 -3.38448E+04  3.67568E+04 -6.54559E+04  2.25786E+03 -5.81386E+04 -4.38600E+04
 -1.24979E+04 -6.51667E+04  4.11147E+04 -4.67443E+04  6.07501E+04 -2.08096E+03  3.60554E+04  3.37676E+04
 -5.63495E+03  3.88854E+04 -3.15870E+04  1.81707E+04 -3.25690E+04 -3.54770E+03 -1.82882E+04 -1.22509E+04
 -8.99469E+03 -1.49478E+04 -4.23635E+02 -1.91811E+04  8.18677E+03 -2.33148E+04  1.57316E+04 -1.26713E+04
  1.03231E+04  6.02578E+03 -9.66478E+03  1.32985E+04 -2.26386E+04 -5.86403E+03 -8.47358E+03 -3.62622E+04
  2.47962E+04 -4.56071E+04  5.10458E+04 -2.02112E+04  4.78648E+04  2.04564E+04  1.67536E+04  4.63147E+04
 -1.68463E+04  3.55556E+04 -2.72039E+04  2.53714E+03 -1.11447E+04 -2.86410E+04  2.16707E+04 -3.62180E+04
  4.32685E+04 -1.05709E+04  3.91771E+04  2.47536E+04  2.04076E+04  4.94926E+04 -8.42498E+03  5.44101E+04
 -3.46064E+04  3.73971E+04 -4.58629E+04  1.02426E+04 -4.60167E+04 -1.83413E+04 -2.53189E+04 -4.08969E+04
  7.55897E+03 -4.09876E+04  3.32180E+04 -1.62946E+04  3.14702E+04  1.10276E+04  4.73827E+03  1.99578E+04
 -1.38585E+04  9.51833E+03 -1.07115E+04 -7.70558E+03  6.02278E+03 -1.15346E+04  1.85643E+04  5.88055E+03
  1.49051E+04  2.23969E+04 -5.40350E+03  2.64742E+04 -2.32660E+04  1.34347E+04 -3.05554E+04 -3.52345E+03
 -2.41896E+04 -1.82644E+04 -1.08658E+04 -2.38084E+04  4.03041E+03 -2.37985E+04  1.86140E+04 -2.16153E+04
  3.05349E+04 -1.35742E+04  3.64380E+04  4.38948E+03  2.62039E+04  2.29636E+04  4.34286E+03  4.00286E+04
 -1.93378E+04  3.27481E+04 -2.95367E+04  1.10704E+04 -2.22293E+04 -1.03564E+04 -4.53573E+03 -1.26970E+04
  1.25256E+03 -1.35605E+03 -6.38152E+03  7.77026E+03 -1.89225E+04  4.86129E+03 -1.91675E+04 -8.96605E+03
 -1.17212E+04 -2.19841E+04  5.62447E+03 -2.63351E+04  1.79310E+04 -1.87986E+04  2.13246E+04 -1.60229E+03
  1.35929E+04  1.50846E+04 -8.54298E+02  2.21256E+04 -1.56152E+04  1.23617E+04 -2.20154E+04 -4.59879E+03
 -1.64577E+04 -1.98453E+04 -2.18285E+03 -2.65534E+04  1.18843E+04 -2.19108E+04  2.19989E+04 -1.09611E+04
  2.04636E+04 -3.13058E+02  1.51885E+04  4.67734E+03  7.99446E+03  1.31349E+03  1.11983E+04 -1.86759E+03
  2.04944E+04  2.83849E+03  2.35580E+04  1.74908E+04  1.60632E+04  3.56331E+04 -2.92785E+03  4.08366E+04
 -2.34749E+04  3.42307E+04 -3.88087E+04  1.72619E+04 -4.13990E+04 -2.83617E+03 -3.33663E+04 -2.40859E+04
 -1.37481E+04 -3.46423E+04  1.18766E+04 -3.00270E+04  2.58743E+04 -1.48323E+04  2.27845E+04  7.31896E+03
  7.89558E+03  1.73036E+04 -1.08948E+04  1.45731E+04 -1.88668E+04  2.52555E+03 -1.40105E+04 -1.23722E+04
 -2.19916E+02 -1.84605E+04  9.12950E+03 -1.34903E+04  1.27236E+04 -1.09034E+03  3.16036E+03  8.31548E+03
 -8.29513E+03  3.32595E+03 -8.45558E+03 -6.85515E+03 -1.52247E+03 -1.65768E+04  1.16092E+04 -1.79292E+04
  2.12878E+04 -9.76202E+03  2.34334E+04  3.45796E+03  2.06402E+04  1.69005E+04  9.60179E+03  2.63976E+04
 -4.91625E+03  2.81698E+04 -1.85026E+04  1.75921E+04 -2.02031E+04  3.89256E+03 -1.39477E+04 -5.31226E+03
 -6.17184E+03 -6.72859E+03 -5.38917E+02  4.21578E+02 -2.52778E+03  3.41753E+03 -6.40784E+03  4.94376E+03
 -1.32116E+04 -6.61112E+02 -1.36344E+04 -1.08425E+04 -5.37251E+03 -1.79573E+04  5.80080E+03 -1.38569E+04
  1.21177E+04 -6.02762E+03  8.28648E+03  3.65613E+03 -1.99124E+02  5.91434E+03 -6.95900E+03  3.57861E+01
 -6.51957E+03 -9.30236E+03 -9.90097E+02 -1.37739E+04  8.16748E+03 -1.52624E+04  1.77376E+04 -8.17245E+03
  2.08646E+04  2.01361E+03  1.54636E+04  1.29483E+04  2.75909E+03  1.65449E+04 -8.31421E+03  1.39316E+04
 -1.15200E+04  4.10667E+03 -6.16394E+03 -2.86623E+03  1.71830E+03 -3.65809E+03  7.71490E+03 -5.79563E+02
  6.91816E+03  6.41909E+03  1.16939E+03  1.11771E+04 -8.33959E+03  1.09698E+04 -1.41270E+04  2.70547E+03
 -9.76747E+03 -7.36723E+03  3.91167E+02 -1.21715E+04  7.65501E+03 -5.84835E+03  8.28086E+03  2.68559E+03
  2.18826E+03  8.82482E+03 -7.04939E+03  1.04676E+04 -1.15956E+04  4.50882E+03 -1.20290E+04 -4.13154E+03
 -6.79091E+03 -1.40672E+04  3.26480E+03 -1.59253E+04  1.33658E+04 -9.43624E+03  1.50423E+04  2.73980E+03
  8.92541E+03  1.16879E+04 -1.44798E+03  1.39187E+04 -1.02725E+04  7.80356E+03 -1.09678E+04 -1.17128E+03
 -9.31772E+03 -9.50971E+03 -1.69896E+03 -1.05747E+04  5.52335E+03 -8.53886E+03  6.83738E+03 -3.43568E+03
  4.51034E+03  1.75979E+03 -7.77735E+02  1.71401E+03 -5.31511E+02 -2.56596E+03  2.30036E+03 -6.66997E+03
  9.72721E+03 -4.13345E+03  1.36819E+04  1.55646E+03  1.29203E+04  9.15205E+03  8.98489E+03  1.76662E+04
 -4.00272E+03  2.03604E+04 -1.68662E+04  1.50415E+04 -2.21821E+04  3.00324E+03 -1.79394E+04 -7.44004E+03
 -9.12190E+03 -1.43479E+04 -3.87549E+02 -1.24941E+04  4.58269E+03 -6.78533E+03  4.15724E+03 -4.52518E+03
  3.10824E+03 -2.83942E+03  3.51215E+03 -3.42762E+03  5.60895E+03 -3.02453E+03  7.15226E+03 -1.31157E+03
  9.04147E+03  2.14105E+03  4.55013E+03  8.25744E+03 -2.09328E+03  9.10606E+03 -9.88335E+03  7.23033E+03
 -1.21285E+04 -1.43920E+03 -7.47716E+03 -8.21155E+03 -8.79484E+02 -1.34079E+04  7.26072E+03 -1.34952E+04
  1.38902E+04 -7.43597E+03  1.64245E+04  2.13138E+03  1.12727E+04  1.16813E+04  1.67783E+03  1.48757E+04
 -6.11273E+03  1.29090E+04 -8.83038E+03  4.10294E+03 -6.01206E+03 -1.75507E+03 -2.34815E+03 -2.16328E+03
 -9.94725E+02 -2.06486E+01 -1.85540E+03  2.76726E+03 -4.95264E+03  2.10678E+03 -8.71656E+03 -1.37980E+03
 -5.63152E+03 -8.60503E+03 -5.17486E+01 -1.22407E+04  7.81048E+03 -1.12783E+04  1.21395E+04 -3.55023E+03
  1.21608E+04  6.30333E+03  5.89579E+03  1.06851E+04 -2.52177E+03  1.21972E+04 -8.69366E+03  7.52028E+03
 -1.10500E+04  3.10128E+02 -8.85129E+03 -7.35635E+03 -9.62762E+02 -1.06186E+04  5.59941E+03 -7.30276E+03
  7.73849E+03 -2.37963E+03  5.20736E+03  1.91531E+03  1.81657E+03  3.50669E+03  1.12613E+03  1.65947E+03
  2.57211E+03  9.21084E+02  2.80509E+03  1.67031E+03  4.35148E+03  4.49072E+03  3.17477E+03  6.61111E+03
 -2.32535E+03  9.64160E+03 -8.14565E+03  9.54877E+03 -1.18359E+04  2.49092E+03 -1.25698E+04 -5.15244E+03
 -6.02763E+03 -1.20855E+04  2.22612E+03 -1.34874E+04  7.34472E+03 -8.42079E+03  9.83879E+03 -2.26470E+03
  7.93512E+03  4.24147E+03  1.31244E+03  6.84837E+03 -3.30974E+03  4.12319E+03 -4.75273E+03 -5.02996E+02
 -2.24438E+03 -5.32478E+03  3.01898E+03 -5.45219E+03  5.12330E+03 -2.62047E+03  4.97503E+03  1.08534E+03
  2.78275E+03  2.30339E+03  1.44998E+03  1.63855E+03 -8.96175E+02  1.67664E+03  1.75187E+03 -1.67422E+02
  1.94973E+03 -5.58934E+02  5.02327E+03  2.10723E+03  2.88645E+03  6.46442E+03 -6.34681E+02  8.24075E+03
 -6.03027E+03  5.47262E+03 -7.28978E+03  1.44595E+03 -6.87657E+03 -2.76375E+03 -2.24543E+03 -4.33094E+03
  8.38605E+02 -4.73860E+03  2.95162E+03 -2.31659E+03  2.71920E+03  2.34475E+03 -1.20299E+03  3.76860E+03
 -4.54818E+03  2.61627E+03 -5.41682E+03 -2.89600E+03 -2.98128E+03 -6.80134E+03  1.22950E+03 -6.57842E+03
  4.01636E+03 -3.62036E+03  4.75920E+03 -2.38030E+02  4.12624E+03  1.59838E+03  7.01109E+02  3.84230E+03
 -2.57157E+03  1.34484E+03 -2.73568E+03 -2.07707E+03  9.13779E+02 -4.59106E+03  5.92886E+03 -4.22522E+03
  6.95483E+03  8.43976E+02  7.20081E+03  4.71538E+03  2.72854E+03  7.53511E+03 -2.82982E+03  7.35281E+03
 -6.20911E+03  2.69080E+03 -6.33314E+03 -9.05391E+02 -3.41042E+03 -4.89087E+03  1.13556E+03 -4.62982E+03
  4.53406E+03 -2.22879E+03  3.80912E+03  1.90250E+03  1.62058E+03  4.23842E+03 -7.53662E+02  3.59585E+03
 -1.87976E+03  2.67484E+03 -1.68297E+03  4.88220E+02 -8.83630E+02  9.78174E+02 -1.49626E+03  1.62837E+03
 -1.93818E+03  2.88796E+03 -5.69994E+03  2.60131E+03 -7.55946E+03  3.76356E+02 -8.35880E+03 -4.65463E+03
 -4.20467E+03 -9.56759E+03  2.04688E+03 -1.10478E+04  6.85057E+03 -8.66501E+03  1.07380E+04 -3.40799E+03
  1.01358E+04  1.83916E+03  5.76761E+03  6.87822E+03 -2.36739E+02  7.34103E+03 -3.01141E+03  5.46342E+03
 -4.30948E+03  2.04966E+03 -2.41486E+03 -6.53857E+02 -9.29006E+02 -1.08057E+03 -6.47410E+02  2.65755E+01
 -1.75718E+03  3.72542E+02 -2.01741E+03 -1.01105E+02 -5.86259E+02 -1.91949E+03 -3.00564E+02 -3.00308E+03
  3.48216E+03 -2.59803E+03  4.36551E+03  1.66962E+02  5.20489E+03  3.86102E+03  9.74795E+02  7.36833E+03
 -3.59611E+03  8.62853E+03 -8.01083E+03  5.50076E+03 -9.08187E+03 -4.13659E+02 -6.84361E+03 -5.95634E+03
 -3.07208E+03 -7.76094E+03  1.86408E+03 -6.43672E+03  4.60305E+03 -3.65559E+03  4.77422E+03  2.24894E+02
  2.70168E+03  2.58135E+03 -3.98161E+02  2.47027E+03 -1.36749E+03 -1.44386E+02  4.10223E+02 -1.66516E+03
  2.12894E+03 -6.23289E+02  3.18344E+03  1.02494E+03  1.63745E+03  2.91635E+03  4.12886E+02  3.95578E+03
 -3.76024E+03  3.16173E+03 -4.90442E+03  2.78080E+02 -4.88079E+03 -3.16837E+03 -5.22775E+02 -6.23790E+03
  3.30197E+03 -4.94052E+03  5.48168E+03 -1.81727E+03  5.65406E+03  1.14630E+03  2.75960E+03  4.42782E+03
  7.89874E+02  4.74803E+03 -2.01804E+03  3.63368E+03 -3.15250E+03  2.22008E+03 -2.35999E+03  4.34398E+02
 -1.08535E+03  3.72363E+01 -1.52927E+03  6.25866E+02 -2.28288E+03  1.06085E+03 -3.79505E+03 -9.94072E+02
 -3.67618E+03 -2.29769E+03 -1.16073E+03 -4.97631E+03  2.39096E+03 -5.72106E+03  3.98151E+03 -1.98804E+03
  4.84801E+03  5.15430E+02  2.60244E+03  3.24747E+03 -2.34317E+02  4.89414E+03 -3.66586E+03  2.90593E+03
