 $NMID ID='MM_0lb_SNR800_16hz_g50_89.RAW', FMTDAT='(8E13.5)'
 TRAMP=1., VOLUME=1. $END
  3.09927E+05  2.62411E+02  3.37719E+05  2.50253E+05  8.45454E+04  3.37778E+05 -1.32679E+05  2.50903E+05
 -1.90176E+05  8.28852E+04 -1.11542E+05 -3.27923E+04  9.72230E+02 -5.04726E+04  5.40968E+04  1.50113E+02
  3.54433E+04  5.29103E+04 -1.68634E+04  7.50809E+04 -6.07237E+04  6.35366E+04 -8.35681E+04  3.18137E+04
 -8.02992E+04 -1.10938E+04 -5.67210E+04 -5.06861E+04 -1.49101E+04 -6.93410E+04  2.70726E+04 -4.54854E+04
  3.98693E+04  3.92553E+03  1.59689E+04  4.74604E+04 -3.42208E+04  4.70226E+04 -6.62730E+04 -3.78892E+02
 -5.26908E+04 -5.63773E+04 -6.56747E+03 -7.63143E+04  3.32462E+04 -5.45900E+04  4.72152E+04 -1.71027E+04
  4.27674E+04  1.13273E+04  3.15847E+04  2.49924E+04  1.56372E+04  2.89669E+04 -5.08686E+03  2.70215E+04
 -2.19390E+04  1.27183E+04 -1.86424E+04 -4.58647E+03  5.27232E+03 -7.62537E+03  2.18781E+04  1.15905E+04
  7.06812E+03  3.45450E+04 -3.13223E+04  3.51214E+04 -6.26119E+04  2.27790E+03 -5.64422E+04 -4.21245E+04
 -1.21384E+04 -6.23457E+04  3.92272E+04 -4.44004E+04  5.70086E+04 -2.05970E+03  3.35705E+04  3.17436E+04
 -6.10087E+03  3.51641E+04 -2.93117E+04  1.54687E+04 -2.91459E+04 -4.81201E+03 -1.58017E+04 -1.06395E+04
 -8.02237E+03 -1.26483E+04 -6.92413E+02 -1.74685E+04  6.88087E+03 -2.26520E+04  1.51376E+04 -1.39775E+04
  1.12082E+04  5.11035E+03 -7.68501E+03  1.29529E+04 -2.05602E+04 -3.58778E+03 -8.21120E+03 -3.24784E+04
  2.20557E+04 -4.24710E+04  4.69786E+04 -1.92678E+04  4.38547E+04  1.88781E+04  1.51308E+04  4.30613E+04
 -1.56705E+04  3.23168E+04 -2.47505E+04  1.79850E+03 -9.38470E+03 -2.72170E+04  2.08921E+04 -3.26150E+04
  3.98256E+04 -8.35367E+03  3.38624E+04  2.34167E+04  1.69003E+04  4.49607E+04 -7.63739E+03  4.83178E+04
 -3.04566E+04  3.24934E+04 -4.03325E+04  8.86743E+03 -4.09019E+04 -1.59535E+04 -2.23598E+04 -3.66236E+04
  7.25640E+03 -3.63134E+04  3.05902E+04 -1.38847E+04  2.82818E+04  1.07816E+04  3.67268E+03  1.84812E+04
 -1.34492E+04  7.83706E+03 -1.01012E+04 -7.47660E+03  5.82184E+03 -1.06107E+04  1.77866E+04  6.39568E+03
  1.31620E+04  2.17873E+04 -6.28392E+03  2.41018E+04 -2.21582E+04  1.01854E+04 -2.70839E+04 -5.19570E+03
 -1.89762E+04 -1.70265E+04 -7.32279E+03 -1.93500E+04  3.72603E+03 -1.78135E+04  1.45903E+04 -1.68291E+04
  2.39000E+04 -1.24211E+04  3.05707E+04  2.06630E+03  2.27194E+04  1.81822E+04  4.01157E+03  3.50726E+04
 -1.69378E+04  2.94880E+04 -2.71777E+04  1.01450E+04 -2.04319E+04 -1.01887E+04 -4.37032E+03 -1.38077E+04
  2.17221E+03 -3.34280E+03 -4.28991E+03  6.04135E+03 -1.48386E+04  5.22300E+03 -1.53463E+04 -6.29345E+03
 -9.72455E+03 -1.76274E+04  5.30419E+03 -2.15618E+04  1.40448E+04 -1.53285E+04  1.67075E+04 -1.72413E+03
  1.06485E+04  1.24160E+04 -9.16282E+02  1.78957E+04 -1.20101E+04  9.80308E+03 -1.75149E+04 -3.61677E+03
 -1.29600E+04 -1.58157E+04 -1.78888E+03 -2.12577E+04  9.54492E+03 -1.73311E+04  1.79353E+04 -8.66054E+03
  1.62567E+04  3.90696E+02  1.17478E+04  4.11120E+03  6.04378E+03  7.19521E+02  8.52013E+03 -1.45387E+03
  1.56647E+04  2.77990E+03  1.78476E+04  1.40940E+04  1.12827E+04  2.81921E+04 -2.89409E+03  3.10873E+04
 -1.78048E+04  2.44563E+04 -2.89063E+04  1.19869E+04 -2.93256E+04 -2.44534E+03 -2.50225E+04 -1.70693E+04
 -1.13239E+04 -2.45307E+04  8.08030E+03 -2.20360E+04  1.93756E+04 -1.19839E+04  1.76254E+04  4.88167E+03
  6.85036E+03  1.29270E+04 -8.05137E+03  1.16868E+04 -1.47211E+04  2.76131E+03 -1.13043E+04 -9.13283E+03
  3.18332E+01 -1.39564E+04  7.33361E+03 -1.06716E+04  9.11712E+03 -1.21869E+03  1.75484E+03  5.72965E+03
 -6.14719E+03  2.09044E+03 -4.82000E+03 -5.02143E+03  1.43951E+02 -1.21651E+04  8.86473E+03 -1.23434E+04
  1.45118E+04 -6.26210E+03  1.52363E+04  2.94707E+03  1.32201E+04  1.17937E+04  6.21124E+03  1.75645E+04
 -2.63465E+03  1.93324E+04 -1.23267E+04  1.21435E+04 -1.37497E+04  3.16922E+03 -9.99586E+03 -2.83229E+03
 -5.06667E+03 -4.17891E+03 -5.14694E+02  1.17143E+03 -2.19546E+03  2.53138E+03 -4.61394E+03  3.75176E+03
 -9.49812E+03 -3.57405E+02 -1.01170E+04 -8.41750E+03 -4.19149E+03 -1.31796E+04  4.32641E+03 -1.00258E+04
  8.43455E+03 -4.34688E+03  6.11557E+03  2.68705E+03  3.43147E+02  3.74202E+03 -4.49451E+03 -3.81458E+02
 -4.41153E+03 -6.19405E+03 -5.79549E+02 -8.99066E+03  5.08607E+03 -9.65921E+03  1.21362E+04 -4.81364E+03
  1.41779E+04  1.10446E+03  1.05849E+04  7.89064E+03  2.04401E+03  1.11704E+04 -6.04001E+03  9.63163E+03
 -8.13678E+03  3.44876E+03 -4.25874E+03 -1.54674E+03  1.34871E+03 -2.75125E+03  5.38665E+03 -9.17252E+02
  4.85541E+03  4.19745E+03  9.94028E+02  7.56786E+03 -5.28940E+03  7.31048E+03 -9.60043E+03  1.95491E+03
 -5.99554E+03 -4.87764E+03  2.85221E+02 -8.15980E+03  4.50759E+03 -4.07594E+03  4.71250E+03  1.72279E+03
  1.04875E+03  4.48081E+03 -5.15903E+03  6.21516E+03 -6.98876E+03  2.94836E+03 -6.58876E+03 -2.07177E+03
 -3.77894E+03 -8.33254E+03  1.77642E+03 -9.40955E+03  7.97451E+03 -5.93345E+03  8.60887E+03  1.39550E+03
  5.50243E+03  6.61356E+03 -4.99689E+02  9.15892E+03 -6.33555E+03  5.21074E+03 -6.63325E+03 -6.57919E+02
 -6.76110E+03 -6.31525E+03 -1.61346E+03 -6.86720E+03  3.24845E+03 -5.72397E+03  3.79036E+03 -3.21731E+03
  3.37725E+03  5.88777E+02 -1.79273E+02  1.36937E+03  1.04013E+02 -6.97642E+02  5.75912E+02 -3.15302E+03
  5.17450E+03 -1.38458E+03  7.48962E+03  1.00002E+03  7.19527E+03  4.60143E+03  5.86962E+03  9.44175E+03
 -1.73817E+03  1.15090E+04 -9.64854E+03  8.82212E+03 -1.31873E+04  1.52648E+03 -1.02119E+04 -3.81766E+03
 -5.55191E+03 -8.36529E+03 -3.03821E+02 -7.10741E+03  2.45832E+03 -3.36811E+03  2.37516E+03 -2.63771E+03
  1.64433E+03 -1.74882E+03  2.56100E+03 -2.48006E+03  4.08100E+03 -1.76633E+03  4.05595E+03  1.49746E+02
  5.66937E+03  1.51321E+03  2.08502E+03  4.57942E+03 -1.65093E+03  4.31312E+03 -5.67721E+03  3.76071E+03
 -6.67238E+03 -9.68068E+02 -3.37314E+03 -5.07386E+03  4.61791E+01 -7.09777E+03  4.54961E+03 -7.56563E+03
  7.30310E+03 -4.33578E+03  9.15692E+03  7.84416E+02  6.34613E+03  5.89183E+03  1.43761E+03  8.01272E+03
 -3.05235E+03  7.52384E+03 -4.78197E+03  2.36994E+03 -2.90003E+03 -1.11983E+03 -6.86277E+02 -5.43958E+02
 -5.17354E+02  2.87441E+02 -1.32029E+03  1.90318E+03 -3.19058E+03  1.40102E+03 -5.22771E+03 -5.53418E+02
 -2.81397E+03 -4.92351E+03  2.98848E+02 -6.46846E+03  3.78731E+03 -5.91117E+03  5.41651E+03 -1.41476E+03
  6.04633E+03  3.07751E+03  2.62013E+03  4.93256E+03 -8.86162E+02  6.38119E+03 -3.99859E+03  3.89767E+03
 -5.44050E+03  5.31293E+02 -4.82253E+03 -3.49883E+03 -4.30362E+02 -4.58891E+03  2.54674E+03 -3.62420E+03
  3.63421E+03 -1.80707E+03  2.71049E+03  7.46384E+02  8.47682E+02  2.43276E+03  8.35734E+02  4.41113E+02
  1.83325E+03  4.00647E+02  1.77832E+03  1.15277E+03  1.50249E+03  2.55064E+03  2.06438E+03  2.52149E+03
 -1.74292E+03  4.26195E+03 -4.07645E+03  5.38303E+03 -4.70525E+03  1.35168E+03 -5.68540E+03 -1.49738E+03
 -2.78110E+03 -5.30903E+03  6.70918E+02 -6.44649E+03  3.12810E+03 -4.13118E+03  4.44975E+03 -1.26735E+03
  3.93770E+03  2.34920E+03  3.26763E+02  3.44165E+03 -1.43025E+03  1.88583E+03 -2.05345E+03  1.00025E+02
 -8.30407E+02 -2.24083E+03  1.43195E+03 -2.52920E+03  2.55643E+03 -1.14917E+03  2.15839E+03  5.12784E+02
  9.03398E+02  1.01118E+03  7.96221E+02  3.94805E+02 -3.50141E+02  9.87213E+02  1.90446E+03 -3.61630E+02
  4.47733E+02 -6.98765E+02  2.06051E+03  1.05615E+03  7.98536E+02  3.21829E+03 -4.84416E+02  4.04746E+03
 -2.37882E+03  1.91231E+03 -3.21980E+03  6.38945E+02 -3.08925E+03 -1.34705E+03 -7.88588E+02 -1.84396E+03
  5.14924E+02 -1.77919E+03  1.21044E+03 -1.01000E+03  1.27998E+03  1.38992E+03 -1.16053E+03  1.81896E+03
 -2.32589E+03  1.12358E+03 -1.85666E+03 -1.63915E+03 -1.25835E+03 -3.08804E+03  1.17044E+02 -2.34491E+03
  1.09580E+03 -1.39913E+03  1.37373E+03  3.10734E+01  1.73698E+03  5.09646E+01  9.84034E+01  1.68960E+03
 -4.76742E+02  5.46459E+02 -1.18513E+03 -4.49733E+02  6.05029E+02 -1.47662E+03  2.51729E+03 -1.32478E+03
  2.37299E+03  5.08736E+02  3.80234E+03  1.77846E+03  1.59034E+03  2.85797E+03 -7.95957E+02  2.93038E+03
 -2.05685E+03  8.74072E+02 -2.46646E+03 -3.44242E+02 -1.28182E+03 -2.19266E+03  3.16618E+02 -1.33698E+03
  1.82838E+03 -1.20999E+03  1.26723E+03  1.16394E+03  2.31604E+02  1.98333E+03 -6.42468E+00  1.78683E+03
 -8.24521E+02  1.43235E+03 -4.28526E+02  3.13209E+02 -3.78333E+02  5.17556E+02 -7.07718E+02  8.38267E+02
 -7.80873E+02  1.37438E+03 -2.32403E+03  7.72681E+02 -2.74064E+03  5.21071E+02 -3.52540E+03 -1.98922E+03
 -1.44996E+03 -3.68846E+03  1.17411E+03 -4.68517E+03  2.09079E+03 -3.77545E+03  4.23234E+03 -1.50404E+03
  3.66396E+03  3.80243E+02  1.93205E+03  2.62166E+03 -6.28832E+02  2.59570E+03 -1.21896E+03  2.04240E+03
 -1.41097E+03  1.08518E+03 -1.02835E+03 -5.55448E+02 -5.05848E+02  2.36341E+02 -6.09217E+02 -4.39335E+00
 -1.01837E+03  5.23509E+01 -1.29557E+03  1.54304E+02  2.16739E+02 -9.47454E+02 -2.26778E+02 -1.20954E+03
  1.79109E+03 -1.00819E+03  1.36122E+03  6.31239E+01  2.06291E+03  1.56231E+03  1.81037E+01  2.47373E+03
 -1.44553E+03  3.57315E+03 -2.76756E+03  1.86689E+03 -3.10409E+03 -4.06466E+01 -2.25583E+03 -2.14525E+03
 -1.23666E+03 -2.67130E+03  4.03813E+02 -2.24985E+03  1.51270E+03 -1.00625E+03  1.17847E+03 -2.93188E+01
  9.38864E+02  9.04028E+02  1.26814E+02  4.64275E+02 -4.80610E+02  9.25206E+01  1.04824E+02 -4.43425E+02
  5.24934E+02  6.39451E+01  4.91159E+02  7.26756E+02  3.12238E+02  8.37292E+02  5.66893E+02  1.06282E+03
 -1.13577E+03  1.10955E+03 -1.36564E+03  1.28516E+02 -1.26097E+03 -9.94670E+02 -4.28976E+01 -1.96884E+03
  1.08025E+03 -1.62455E+03  1.19241E+03 -4.13176E+02  1.58657E+03 -4.05844E+02  8.88110E+02  1.41111E+03
  3.62977E+02  1.23630E+03 -3.77719E+02  1.42909E+03 -9.80665E+02  6.93273E+02 -5.20759E+02  3.08457E+02
 -3.69061E+02 -1.85191E+02 -6.66697E+02  5.13506E+00 -7.77835E+02  2.87925E+02 -1.32797E+03 -3.75929E+02
 -1.90258E+03  3.31106E+01 -4.78243E+02 -1.56972E+03  1.00401E+03 -1.99061E+03  1.33638E+03 -8.11892E+02
  1.26845E+03  1.45334E+01 -9.01448E+00  7.93171E+02 -3.57150E+02  1.36854E+03 -1.11916E+03  8.10656E+02
