 $NMID ID='MM_0lb_SNR800_20hz_g50_82.RAW', FMTDAT='(8E13.5)'
 TRAMP=1., VOLUME=1. $END
  3.09564E+05  1.85672E+02  3.37276E+05  2.50615E+05  8.45066E+04  3.37343E+05 -1.32654E+05  2.50197E+05
 -1.89480E+05  8.22539E+04 -1.11019E+05 -3.27832E+04  1.56596E+03 -5.01511E+04  5.39182E+04  2.85980E+02
  3.50874E+04  5.26762E+04 -1.71184E+04  7.49237E+04 -6.02021E+04  6.28453E+04 -8.28050E+04  3.13691E+04
 -7.94981E+04 -1.10892E+04 -5.59821E+04 -4.99943E+04 -1.51533E+04 -6.79791E+04  2.66535E+04 -4.48736E+04
  3.89160E+04  4.11777E+03  1.54665E+04  4.67137E+04 -3.39488E+04  4.62467E+04 -6.52729E+04 -2.74680E+02
 -5.17026E+04 -5.56030E+04 -6.06210E+03 -7.48238E+04  3.28052E+04 -5.28623E+04  4.61323E+04 -1.62374E+04
  4.15371E+04  1.12564E+04  3.07650E+04  2.40572E+04  1.56441E+04  2.80891E+04 -4.55246E+03  2.65624E+04
 -2.16316E+04  1.29284E+04 -1.92232E+04 -4.36094E+03  4.27492E+03 -7.59472E+03  2.08651E+04  1.06976E+04
  7.45266E+03  3.29083E+04 -2.99432E+04  3.36789E+04 -6.07639E+04  1.97443E+03 -5.48581E+04 -4.08741E+04
 -1.24038E+04 -6.06906E+04  3.80235E+04 -4.28538E+04  5.50964E+04 -1.95838E+03  3.14870E+04  3.02922E+04
 -6.27602E+03  3.26223E+04 -2.83208E+04  1.30277E+04 -2.70980E+04 -5.43435E+03 -1.39339E+04 -1.01590E+04
 -7.16452E+03 -1.11330E+04 -1.04842E+03 -1.63348E+04  6.31979E+03 -2.26143E+04  1.47951E+04 -1.42998E+04
  1.21185E+04  4.00337E+03 -5.98592E+03  1.29410E+04 -1.90862E+04 -1.95259E+03 -8.05495E+03 -2.98133E+04
  2.04811E+04 -4.00407E+04  4.41742E+04 -1.84886E+04  4.13124E+04  1.79737E+04  1.39391E+04  4.12399E+04
 -1.53135E+04  3.07118E+04 -2.32951E+04  7.75985E+02 -8.01316E+03 -2.62588E+04  2.03417E+04 -3.07376E+04
  3.76392E+04 -7.00522E+03  3.09293E+04  2.26379E+04  1.48586E+04  4.17930E+04 -7.88598E+03  4.44374E+04
 -2.76863E+04  2.90023E+04 -3.65351E+04  8.35578E+03 -3.76152E+04 -1.48843E+04 -2.10875E+04 -3.39280E+04
  6.78985E+03 -3.33297E+04  2.87617E+04 -1.22841E+04  2.61847E+04  1.07190E+04  2.74697E+03  1.73702E+04
 -1.31083E+04  6.90099E+03 -9.33944E+03 -7.71168E+03  5.94658E+03 -9.72840E+03  1.69564E+04  6.54080E+03
  1.24175E+04  2.14039E+04 -6.68705E+03  2.32159E+04 -2.11928E+04  8.63744E+03 -2.45987E+04 -6.48687E+03
 -1.58491E+04 -1.61264E+04 -5.01991E+03 -1.60232E+04  3.76922E+03 -1.38255E+04  1.18906E+04 -1.38334E+04
  2.05366E+04 -1.13936E+04  2.72885E+04  7.33297E+02  2.07432E+04  1.58267E+04  4.14577E+03  3.16610E+04
 -1.58627E+04  2.69990E+04 -2.54511E+04  9.41956E+03 -1.91853E+04 -1.03523E+04 -3.98593E+03 -1.40521E+04
  2.90120E+03 -4.17664E+03 -2.20824E+03  5.00584E+03 -1.23480E+04  5.42914E+03 -1.25525E+04 -4.44980E+03
 -8.27936E+03 -1.52012E+04  4.64712E+03 -1.86675E+04  1.20971E+04 -1.34459E+04  1.40518E+04 -1.59609E+03
  8.56847E+03  1.03686E+04 -7.28183E+02  1.50676E+04 -9.81489E+03  8.44784E+03 -1.47050E+04 -3.27533E+03
 -1.10318E+04 -1.35391E+04 -1.46475E+03 -1.80934E+04  8.42563E+03 -1.49005E+04  1.55447E+04 -6.89430E+03
  1.42141E+04  7.93678E+02  9.97810E+03  3.57086E+03  4.94950E+03  4.80566E+02  7.48357E+03 -1.06943E+03
  1.31822E+04  2.37946E+03  1.39370E+04  1.22205E+04  8.25167E+03  2.36132E+04 -3.04767E+03  2.46497E+04
 -1.50474E+04  1.91687E+04 -2.27048E+04  9.17104E+03 -2.32972E+04 -1.64206E+03 -2.00140E+04 -1.30838E+04
 -9.88649E+03 -1.88962E+04  6.24788E+03 -1.78391E+04  1.56772E+04 -1.03777E+04  1.46909E+04  3.38946E+03
  6.25327E+03  1.07526E+04 -6.62199E+03  1.01766E+04 -1.30715E+04  2.64508E+03 -9.99034E+03 -7.51771E+03
 -1.15494E+02 -1.16167E+04  5.63559E+03 -9.31385E+03  7.21993E+03 -1.23089E+03  1.02381E+03  4.70333E+03
 -5.27379E+03  8.74618E+02 -3.24411E+03 -4.43541E+03  7.00846E+02 -9.45259E+03  7.43863E+03 -9.44116E+03
  1.15663E+04 -4.15734E+03  1.06332E+04  2.55244E+03  9.22562E+03  8.59509E+03  4.53605E+03  1.27553E+04
 -1.16461E+03  1.46631E+04 -8.95050E+03  9.35606E+03 -1.03232E+04  2.65409E+03 -7.63531E+03 -1.54987E+03
 -4.38249E+03 -3.20585E+03 -9.00570E+02  1.55662E+03 -1.92513E+03  2.00989E+03 -3.44440E+03  3.48122E+03
 -7.50229E+03 -3.79296E+02 -8.26137E+03 -6.88537E+03 -3.56525E+03 -1.08254E+04  3.16780E+03 -7.86831E+03
  6.51204E+03 -3.35417E+03  4.91103E+03  1.88474E+03  5.16667E+02  2.53047E+03 -3.20510E+03 -7.01146E+00
 -2.66401E+03 -4.97446E+03 -8.54561E+02 -6.46219E+03  3.33479E+03 -7.24764E+03  8.91895E+03 -3.60781E+03
  1.06725E+04  3.64161E+02  8.07686E+03  5.45650E+03  1.82516E+03  7.73457E+03 -4.84051E+03  7.60545E+03
 -6.50410E+03  2.70921E+03 -3.20884E+03 -9.16186E+02  1.09312E+03 -1.38125E+03  4.26414E+03 -9.48679E+02
  3.92546E+03  3.08190E+03  1.08598E+03  5.89327E+03 -4.13592E+03  5.74454E+03 -7.18083E+03  1.58273E+03
 -4.31665E+03 -3.22579E+03  5.69305E+02 -5.90563E+03  3.53373E+03 -2.83205E+03  2.91065E+03  9.09987E+02
  1.87110E+02  2.98252E+03 -3.77261E+03  4.34365E+03 -4.20609E+03  2.21269E+03 -3.77210E+03 -1.05218E+03
 -2.57123E+03 -5.01315E+03  1.08452E+03 -5.81229E+03  5.16464E+03 -4.31122E+03  5.67334E+03  7.94676E+02
  3.91653E+03  4.57030E+03  4.11859E+02  6.43053E+03 -4.35219E+03  3.94054E+03 -4.74610E+03 -2.02340E+02
 -5.14284E+03 -4.42317E+03 -1.47371E+03 -4.14812E+03  1.95142E+03 -4.24578E+03  2.41702E+03 -2.85445E+03
  2.67105E+03  1.80232E+02  2.68105E+02  1.25074E+03  5.44015E+02 -9.26718E+00  6.87059E+01 -1.16976E+03
  3.36143E+03 -5.61238E+02  4.42096E+03  6.53277E+02  4.71148E+03  2.25385E+03  4.76998E+03  5.84202E+03
 -8.37796E+02  7.41649E+03 -6.63232E+03  5.60821E+03 -8.39472E+03  1.11345E+03 -6.45294E+03 -1.79191E+03
 -3.61515E+03 -5.63605E+03 -5.48276E+02 -4.29238E+03  1.88736E+03 -1.83762E+03  1.54111E+03 -2.01324E+03
  9.96431E+02 -1.35631E+03  2.06908E+03 -2.08462E+03  3.17885E+03 -8.87060E+02  3.40325E+03  6.95353E+02
  3.99028E+03  9.16928E+02  9.50368E+02  2.54540E+03 -1.35509E+03  2.09295E+03 -4.02693E+03  2.28327E+03
 -4.04653E+03 -1.30836E+03 -1.25381E+03 -2.66713E+03  6.60555E+02 -4.22702E+03  2.49210E+03 -4.17896E+03
  4.60266E+03 -2.96911E+03  5.57309E+03  6.70330E+01  4.37762E+03  3.22278E+03  7.76584E+02  4.84985E+03
 -1.64850E+03  5.23032E+03 -2.62097E+03  1.62093E+03 -1.36235E+03 -7.52254E+02 -6.28026E+02 -4.50629E+02
 -1.60810E+02  2.44534E+02 -9.47435E+02  1.66568E+03 -2.17647E+03  1.22327E+03 -3.57689E+03 -5.25842E+02
 -9.46201E+02 -3.60022E+03  9.39695E+02 -3.83931E+03  2.25029E+03 -3.79661E+03  2.82185E+03 -9.14092E+02
  3.15473E+03  1.91555E+03  1.66634E+03  2.50081E+03 -4.89120E+02  3.60615E+03 -2.08640E+03  2.02909E+03
 -2.91705E+03  7.85136E+02 -2.96792E+03 -1.91653E+03 -3.82140E+02 -2.57093E+03  1.28453E+03 -1.99021E+03
  2.15010E+03 -1.24113E+03  1.53406E+03  1.32867E+02  3.20299E+02  1.44578E+03  7.68918E+02  4.96162E+02
  1.73604E+03  3.58609E+02  9.30691E+02  8.18618E+02  7.40559E+02  2.04840E+03  1.28251E+03  1.00825E+03
 -1.23963E+03  2.18423E+03 -1.93401E+03  3.58611E+03 -1.83574E+03  1.04767E+03 -3.41288E+03 -8.96400E+00
 -1.27676E+03 -2.91849E+03  5.52882E+02 -3.92400E+03  1.21999E+03 -1.75741E+03  2.45262E+03 -9.66146E+02
  1.86839E+03  1.48021E+03  2.05722E+02  1.75413E+03 -2.73446E+02  7.30199E+02 -7.63416E+02 -1.60943E+02
 -6.15535E+02 -1.19772E+03  1.23041E+03 -1.33731E+03  8.79051E+02 -7.85691E+02  9.88584E+02  2.34292E+02
  5.57005E+02  1.89546E+02  7.17939E+02 -6.68204E+02 -2.90860E+02  5.69486E+02  1.38393E+03 -1.13166E+02
 -1.78727E+02 -1.43312E+02  1.72900E+03  3.04835E+02  1.90102E+02  1.76473E+03 -3.18721E+02  2.41179E+03
 -1.37205E+03  6.31761E+02 -1.41852E+03  2.40639E+02 -1.74737E+03 -6.93469E+02  2.68983E+02 -6.73082E+02
  2.84468E+02 -9.12893E+02  1.13258E+03 -5.86630E+02  5.98425E+02  1.02012E+03 -6.26008E+02  7.04793E+02
 -1.19594E+03  6.95958E+02 -5.55390E+02 -9.93850E+02 -4.59912E+02 -1.66913E+03  2.48274E+02 -9.79491E+02
  1.05774E+02 -3.32771E+02  5.16722E+02  2.26625E+02  1.01416E+03 -1.71039E+02  4.08518E+02  7.46011E+02
 -2.02217E+02  2.94341E+01 -6.83024E+02 -1.24291E+02  4.89739E+02 -2.72504E+02  1.16889E+03 -7.44494E+02
  9.69723E+02  1.40386E+02  2.20880E+03  1.92636E+02  8.83611E+02  1.46141E+03 -2.84396E+02  1.33724E+03
 -1.13716E+03 -1.88881E+01 -1.04016E+03  3.15249E+01 -5.80454E+02 -8.46139E+02  2.11221E+02 -2.82692E+02
  1.27909E+03 -5.93175E+02  4.21587E+02  2.53179E+02 -5.01643E+01  1.14511E+03  4.10952E+02  1.15636E+03
 -5.55834E+01  7.12431E+02 -3.27368E+02  9.93709E+01  4.35583E+01  2.75315E+02 -7.62297E+02  6.68563E+02
 -3.99343E+02  7.77561E+02 -1.58143E+03  4.52912E+02 -8.57915E+02  2.53052E+02 -1.73510E+03 -7.19696E+02
 -8.26796E+02 -1.73138E+03  2.05619E+02 -2.06483E+03  4.70277E+02 -1.84232E+03  2.03106E+03 -8.55114E+02
  1.80642E+03 -3.40454E+02  1.12421E+03  1.20923E+03 -6.13805E+02  1.05701E+03 -3.47242E+02  9.77323E+02
 -4.52146E+02  8.42504E+02 -7.08886E+01 -1.12525E+02 -4.12803E+02  5.18675E+02 -5.46137E+02  1.28993E+02
 -1.01504E+03 -2.62607E+02 -7.13204E+02  1.35754E+02  2.39329E+02 -5.31186E+02 -3.36071E+02 -8.04529E+02
  1.03593E+03 -2.18577E+02 -3.51418E+01  1.60192E+01  8.45696E+02  6.99298E+02 -6.16889E+02  8.37316E+02
 -7.51244E+02  1.68618E+03 -1.08780E+03  9.72490E+02 -1.07971E+03 -3.96698E+01 -9.91072E+02 -5.63603E+02
 -7.51839E+02 -8.95516E+02  2.06605E+02 -9.34191E+02  4.75630E+02 -3.57113E+02  2.88567E+02 -7.48771E+01
  5.93172E+02  3.10687E+02  9.74615E+01  3.67940E+02 -3.21482E+02 -6.60821E+01 -1.56410E+02  2.60940E+01
  3.44121E+02  2.98465E+02  2.17529E+02  5.19583E+01  1.17416E+02  3.66049E+02  5.92280E+02  7.14895E+01
 -4.02374E+02  4.28133E+02 -2.69277E+02  1.11412E+02 -7.70450E+02 -1.85929E+01  1.18698E+02 -5.80735E+02
  4.41890E+02 -9.54986E+01  2.76329E+02  1.95203E+02  8.90171E+02 -8.92543E+02  2.76079E+02  7.76730E+02
  4.63571E+02  3.93511E+01 -5.23396E+01  3.49842E+02 -2.77237E+02  4.63383E+02 -2.81159E+02  2.12190E+02
  1.72150E+02 -1.16229E+02 -5.02320E+02  1.15155E+02 -5.10882E+02  4.42037E-01 -4.18391E+02 -1.93698E+02
 -6.26402E+02  3.21433E+02 -2.34899E+02 -8.10475E+02  5.77698E+02 -1.43647E+03  1.74666E+02 -3.38459E+02
  3.57812E+02  5.48751E+01 -4.55788E+02 -1.47961E+02 -2.99555E+02  4.58171E+02 -2.84697E+02  5.21293E+02
