 $NMID ID='MM_0lb_SNR800_10hz_g45_15.RAW', FMTDAT='(8E13.5)'
 TRAMP=1., VOLUME=1. $END
  3.10003E+05 -1.86214E+02  3.37824E+05  2.50784E+05  8.49583E+04  3.38333E+05 -1.32247E+05  2.51553E+05
 -1.90692E+05  8.33898E+04 -1.12244E+05 -3.25728E+04  8.17246E+02 -5.07129E+04  5.37262E+04 -1.88876E+02
  3.56637E+04  5.24990E+04 -1.69227E+04  7.59412E+04 -6.11609E+04  6.45334E+04 -8.51217E+04  3.19169E+04
 -8.18051E+04 -1.13055E+04 -5.76156E+04 -5.21039E+04 -1.49409E+04 -7.07977E+04  2.77312E+04 -4.62675E+04
  4.05933E+04  3.81988E+03  1.63358E+04  4.86886E+04 -3.45114E+04  4.78838E+04 -6.76476E+04 -1.45525E+02
 -5.41583E+04 -5.72344E+04 -7.43262E+03 -7.82842E+04  3.42385E+04 -5.66764E+04  4.96658E+04 -1.80864E+04
  4.48948E+04  1.11379E+04  3.28341E+04  2.61515E+04  1.56736E+04  2.99689E+04 -5.79726E+03  2.77475E+04
 -2.23089E+04  1.22150E+04 -1.82642E+04 -5.76172E+03  6.39661E+03 -7.07667E+03  2.34579E+04  1.32141E+04
  7.21703E+03  3.69740E+04 -3.31599E+04  3.66581E+04 -6.49787E+04  2.24614E+03 -5.82688E+04 -4.39357E+04
 -1.21835E+04 -6.45035E+04  4.10702E+04 -4.66718E+04  6.06181E+04 -2.33191E+03  3.61513E+04  3.37654E+04
 -5.96710E+03  3.87775E+04 -3.10899E+04  1.77964E+04 -3.24497E+04 -3.93721E+03 -1.82601E+04 -1.18247E+04
 -8.97955E+03 -1.45031E+04 -7.36983E+02 -1.92206E+04  8.32690E+03 -2.30469E+04  1.57312E+04 -1.29201E+04
  1.06788E+04  5.75359E+03 -9.81961E+03  1.28915E+04 -2.27168E+04 -5.83893E+03 -8.73383E+03 -3.62501E+04
  2.45916E+04 -4.56422E+04  5.08727E+04 -2.04154E+04  4.72851E+04  2.05378E+04  1.66746E+04  4.61395E+04
 -1.61766E+04  3.52557E+04 -2.74981E+04  2.58018E+03 -1.10670E+04 -2.87451E+04  2.11605E+04 -3.59444E+04
  4.37007E+04 -1.08298E+04  3.88127E+04  2.46099E+04  2.01530E+04  4.98530E+04 -8.43905E+03  5.46268E+04
 -3.45052E+04  3.68682E+04 -4.58806E+04  1.08162E+04 -4.62508E+04 -1.78182E+04 -2.54782E+04 -4.07520E+04
  7.80108E+03 -4.06342E+04  3.34260E+04 -1.59950E+04  3.11492E+04  1.10494E+04  4.74428E+03  2.04080E+04
 -1.35484E+04  9.07820E+03 -1.06834E+04 -7.73708E+03  5.60482E+03 -1.09881E+04  1.86646E+04  5.73925E+03
  1.41544E+04  2.25851E+04 -5.45050E+03  2.67335E+04 -2.33487E+04  1.36997E+04 -3.02058E+04 -3.81548E+03
 -2.38101E+04 -1.79882E+04 -1.06922E+04 -2.37695E+04  4.36416E+03 -2.34159E+04  1.86637E+04 -2.16923E+04
  3.03290E+04 -1.37106E+04  3.63385E+04  4.48807E+03  2.60934E+04  2.30989E+04  4.70545E+03  3.96948E+04
 -1.92217E+04  3.27909E+04 -2.96963E+04  1.12402E+04 -2.15276E+04 -1.03850E+04 -4.94657E+03 -1.31129E+04
  1.28618E+03 -1.60951E+03 -6.49300E+03  7.97590E+03 -1.88615E+04  5.03905E+03 -1.88374E+04 -8.87969E+03
 -1.16740E+04 -2.22884E+04  5.88365E+03 -2.68008E+04  1.77212E+04 -1.86201E+04  2.08416E+04 -1.67087E+03
  1.39624E+04  1.55907E+04 -1.41066E+03  2.17011E+04 -1.54809E+04  1.22805E+04 -2.20555E+04 -4.54580E+03
 -1.63317E+04 -1.96935E+04 -2.23522E+03 -2.66585E+04  1.19506E+04 -2.18875E+04  2.19975E+04 -1.12216E+04
  2.03585E+04 -2.47103E+01  1.50367E+04  4.93390E+03  7.98955E+03  1.34461E+03  1.14151E+04 -2.14078E+03
  2.04346E+04  2.81332E+03  2.34964E+04  1.70904E+04  1.61175E+04  3.54779E+04 -3.03243E+03  4.13393E+04
 -2.36690E+04  3.39867E+04 -3.91033E+04  1.73101E+04 -4.11864E+04 -2.94970E+03 -3.35729E+04 -2.38623E+04
 -1.36812E+04 -3.40825E+04  1.22053E+04 -3.05160E+04  2.61026E+04 -1.47073E+04  2.23679E+04  7.14285E+03
  8.06655E+03  1.76720E+04 -1.10007E+04  1.49015E+04 -1.85523E+04  2.05281E+03 -1.44262E+04 -1.20485E+04
 -2.98599E+02 -1.84302E+04  9.60991E+03 -1.32222E+04  1.24554E+04 -1.05809E+03  2.86449E+03  8.44661E+03
 -8.14139E+03  3.40620E+03 -8.40448E+03 -6.68840E+03 -1.37568E+03 -1.63202E+04  1.13179E+04 -1.85577E+04
  2.12778E+04 -1.00652E+04  2.35191E+04  3.14312E+03  2.06743E+04  1.66948E+04  9.77773E+03  2.62975E+04
 -4.61791E+03  2.85687E+04 -1.85734E+04  1.77281E+04 -2.07667E+04  3.57272E+03 -1.43023E+04 -5.05123E+03
 -5.85302E+03 -6.59188E+03 -3.40853E+02  9.46554E+02 -2.51352E+03  3.09749E+03 -6.66787E+03  5.27551E+03
 -1.30956E+04 -1.14691E+03 -1.35467E+04 -1.12139E+04 -5.74226E+03 -1.75791E+04  6.34701E+03 -1.42403E+04
  1.15565E+04 -5.96993E+03  8.24793E+03  3.77356E+03 -4.07774E+02  6.04227E+03 -6.93020E+03  3.92698E+01
 -6.74967E+03 -9.21615E+03 -8.62758E+02 -1.41815E+04  8.06814E+03 -1.45938E+04  1.78712E+04 -7.64833E+03
  2.13304E+04  1.69844E+03  1.54583E+04  1.27087E+04  2.92798E+03  1.71084E+04 -8.90985E+03  1.43393E+04
 -1.19122E+04  3.51498E+03 -6.06139E+03 -3.46884E+03  2.34642E+03 -4.01138E+03  7.27348E+03 -1.08813E+03
  6.98159E+03  6.20955E+03  1.11892E+03  1.13261E+04 -8.29522E+03  1.09765E+04 -1.41992E+04  2.73999E+03
 -9.63949E+03 -7.90781E+03  2.61618E+02 -1.24480E+04  7.64573E+03 -6.13108E+03  8.14715E+03  3.02358E+03
  1.94875E+03  8.69271E+03 -7.47732E+03  1.03417E+04 -1.21508E+04  4.78002E+03 -1.21197E+04 -4.56726E+03
 -7.23217E+03 -1.40735E+04  3.45287E+03 -1.58727E+04  1.31999E+04 -9.99411E+03  1.49159E+04  2.19107E+03
  8.83909E+03  1.16703E+04 -1.10810E+03  1.40592E+04 -1.07002E+04  7.89831E+03 -1.15574E+04 -9.06889E+02
 -9.95663E+03 -9.66879E+03 -2.06607E+03 -1.10008E+04  5.75041E+03 -8.54413E+03  7.00686E+03 -3.36735E+03
  4.48535E+03  1.48670E+03 -1.24152E+03  1.91765E+03 -4.71243E+02 -2.78393E+03  2.24961E+03 -6.61686E+03
  1.01051E+04 -4.03204E+03  1.42764E+04  1.66558E+03  1.36403E+04  9.35282E+03  9.28615E+03  1.82786E+04
 -4.10269E+03  2.12526E+04 -1.76703E+04  1.56077E+04 -2.28762E+04  2.87359E+03 -1.79123E+04 -7.74182E+03
 -9.51044E+03 -1.51217E+04 -2.17525E+02 -1.29137E+04  4.65571E+03 -6.99479E+03  4.28617E+03 -4.51750E+03
  2.89986E+03 -2.95075E+03  3.73677E+03 -4.21770E+03  5.50132E+03 -3.44472E+03  7.15400E+03 -1.00281E+03
  9.62143E+03  2.01700E+03  5.32707E+03  8.13310E+03 -2.16021E+03  9.70315E+03 -9.90847E+03  7.51387E+03
 -1.27865E+04 -1.36086E+03 -7.98935E+03 -8.95067E+03 -1.11711E+03 -1.39642E+04  8.04628E+03 -1.38212E+04
  1.42243E+04 -7.70656E+03  1.68820E+04  2.35665E+03  1.14874E+04  1.22940E+04  1.85812E+03  1.54221E+04
 -6.07036E+03  1.24598E+04 -9.18197E+03  4.46211E+03 -6.18351E+03 -1.90088E+03 -2.58863E+03 -2.08137E+03
 -1.37896E+03  2.07436E+01 -2.19726E+03  2.77821E+03 -5.37249E+03  2.34850E+03 -8.62051E+03 -1.10200E+03
 -5.67163E+03 -8.58071E+03 -3.25714E+01 -1.29976E+04  7.57401E+03 -1.18811E+04  1.24545E+04 -3.51060E+03
  1.29066E+04  5.82382E+03  5.59256E+03  1.11610E+04 -2.74144E+03  1.27323E+04 -9.12858E+03  7.89086E+03
 -1.20576E+04  3.19675E+02 -9.10583E+03 -7.80793E+03 -1.07629E+03 -1.06294E+04  5.07779E+03 -7.72531E+03
  8.34731E+03 -2.90931E+03  5.44844E+03  1.82472E+03  1.78926E+03  3.90101E+03  1.26643E+03  1.52258E+03
  2.80411E+03  1.05354E+03  2.99911E+03  1.89800E+03  3.84134E+03  4.53780E+03  3.14763E+03  6.80501E+03
 -2.85121E+03  1.00831E+04 -8.65036E+03  1.02988E+04 -1.28342E+04  2.85601E+03 -1.36409E+04 -5.28297E+03
 -6.42843E+03 -1.29752E+04  1.78427E+03 -1.41297E+04  7.16714E+03 -8.85410E+03  1.05695E+04 -2.40130E+03
  8.22768E+03  5.00668E+03  1.77148E+03  7.88464E+03 -3.15959E+03  4.99904E+03 -5.47065E+03 -8.65616E+02
 -2.37386E+03 -5.37170E+03  3.31189E+03 -5.87735E+03  5.03811E+03 -2.85087E+03  5.18813E+03  1.27093E+03
  2.99374E+03  2.61536E+03  1.32303E+03  1.90138E+03 -8.28173E+02  1.74062E+03  1.86727E+03 -3.02336E+01
  2.11262E+03 -5.31711E+02  5.30795E+03  1.87555E+03  3.02862E+03  7.14064E+03 -1.46345E+03  9.03439E+03
 -6.14090E+03  6.24687E+03 -8.26298E+03  1.71555E+03 -7.61109E+03 -2.82730E+03 -3.11630E+03 -4.69432E+03
  6.68038E+02 -4.64638E+03  3.23358E+03 -2.49443E+03  2.61598E+03  2.21320E+03 -1.39483E+03  4.25435E+03
 -5.31304E+03  2.48719E+03 -6.03803E+03 -3.21254E+03 -3.39888E+03 -7.12946E+03  1.02499E+03 -7.19385E+03
  3.88959E+03 -3.94674E+03  5.00273E+03 -4.61466E+02  4.50649E+03  1.92649E+03  5.88915E+02  3.58950E+03
 -2.10941E+03  1.30502E+03 -3.16282E+03 -2.04233E+03  1.55982E+03 -5.28033E+03  6.68316E+03 -4.16477E+03
  7.73208E+03  6.89930E+02  8.13740E+03  5.25377E+03  2.77522E+03  8.26992E+03 -2.53705E+03  7.94413E+03
 -6.84647E+03  3.45858E+03 -7.13536E+03 -1.53632E+03 -3.55420E+03 -5.32740E+03  1.01498E+03 -4.65164E+03
  5.37022E+03 -2.16886E+03  4.23532E+03  2.37440E+03  1.53898E+03  4.30719E+03 -8.21861E+02  4.17195E+03
 -1.96312E+03  2.67919E+03 -1.48204E+03  3.08651E+02 -5.58364E+02  9.41030E+02 -1.62292E+03  1.49936E+03
 -1.86036E+03  3.48098E+03 -5.75960E+03  2.95149E+03 -8.29079E+03  4.01475E+02 -9.02939E+03 -5.56022E+03
 -4.92527E+03 -1.10834E+04  1.93851E+03 -1.28504E+04  7.64654E+03 -1.01984E+04  1.18614E+04 -3.53421E+03
  1.14638E+04  2.20809E+03  6.34238E+03  7.54159E+03  3.94632E+02  8.52696E+03 -3.33249E+03  6.26573E+03
 -4.57903E+03  2.40401E+03 -2.93809E+03 -8.09293E+02 -1.00013E+03 -5.59015E+02 -8.01675E+02 -4.43887E+01
 -1.44998E+03  2.79660E+02 -2.07767E+03 -4.94995E+02 -8.33474E+02 -2.19488E+03  4.23918E+02 -3.33472E+03
  3.92290E+03 -2.56774E+03  4.85757E+03 -1.04674E+02  6.04825E+03  4.54827E+03  1.82182E+03  8.81158E+03
 -3.84632E+03  9.72305E+03 -9.32886E+03  5.83677E+03 -1.02750E+04 -9.12642E+02 -7.51648E+03 -6.37532E+03
 -3.54612E+03 -8.69942E+03  2.20104E+03 -7.64470E+03  5.64162E+03 -3.89254E+03  5.46991E+03  5.13123E+02
  3.21884E+03  2.71319E+03 -3.65302E+02  2.38369E+03 -1.53480E+03 -2.19783E+02 -1.70541E+02 -1.69790E+03
  2.57105E+03 -1.11213E+03  3.57650E+03  1.30862E+03  2.52427E+03  3.12771E+03  4.19188E+02  4.70313E+03
 -3.78588E+03  3.76691E+03 -5.65999E+03  4.62758E+02 -5.22440E+03 -3.74262E+03 -6.49504E+02 -7.46084E+03
  4.03832E+03 -5.94565E+03  6.19200E+03 -1.42073E+03  6.09266E+03  1.28127E+03  3.86867E+03  5.34957E+03
  1.02816E+03  5.90422E+03 -1.58776E+03  4.49350E+03 -3.55901E+03  2.33592E+03 -2.72688E+03  4.55772E+02
 -1.46136E+03 -1.95607E+02 -1.65952E+03  9.17088E+02 -2.90905E+03  7.10798E+02 -4.39281E+03 -1.12369E+03
 -4.47868E+03 -2.85763E+03 -1.52050E+03 -5.53487E+03  2.92357E+03 -6.04290E+03  5.06545E+03 -2.93813E+03
  5.59367E+03  7.82891E+02  2.82514E+03  4.12279E+03 -2.71499E+02  5.51564E+03 -4.15306E+03  3.52131E+03
