 $NMID ID='MM_0lb_SNR800_18hz_g50_71.RAW', FMTDAT='(8E13.5)'
 TRAMP=1., VOLUME=1. $END
  3.10127E+05  2.70628E+02  3.37486E+05  2.50611E+05  8.45698E+04  3.37526E+05 -1.32213E+05  2.50395E+05
 -1.89772E+05  8.28157E+04 -1.11304E+05 -3.31272E+04  1.40624E+03 -5.02080E+04  5.39365E+04  1.44434E+02
  3.51485E+04  5.27761E+04 -1.71002E+04  7.50231E+04 -6.03270E+04  6.28032E+04 -8.30460E+04  3.15933E+04
 -7.97686E+04 -1.12107E+04 -5.65769E+04 -5.05082E+04 -1.48611E+04 -6.87181E+04  2.71007E+04 -4.50698E+04
  3.91238E+04  3.96367E+03  1.56287E+04  4.71018E+04 -3.41589E+04  4.62718E+04 -6.56765E+04 -5.07619E+02
 -5.22602E+04 -5.60666E+04 -6.40497E+03 -7.55937E+04  3.33990E+04 -5.35894E+04  4.65363E+04 -1.63393E+04
  4.22562E+04  1.10502E+04  3.09861E+04  2.45889E+04  1.58104E+04  2.86091E+04 -4.96323E+03  2.68738E+04
 -2.18312E+04  1.27408E+04 -1.92501E+04 -4.30709E+03  4.69868E+03 -7.58614E+03  2.14368E+04  1.12576E+04
  7.36558E+03  3.34437E+04 -3.07655E+04  3.43851E+04 -6.18802E+04  2.01327E+03 -5.57586E+04 -4.15516E+04
 -1.27001E+04 -6.17281E+04  3.85564E+04 -4.38104E+04  5.62957E+04 -2.10107E+03  3.24556E+04  3.11715E+04
 -6.36083E+03  3.39633E+04 -2.87652E+04  1.37622E+04 -2.82721E+04 -5.26174E+03 -1.51240E+04 -1.03685E+04
 -7.65773E+03 -1.18981E+04 -8.93612E+02 -1.69892E+04  7.01537E+03 -2.26592E+04  1.51776E+04 -1.36403E+04
  1.22653E+04  4.46424E+03 -6.86793E+03  1.32762E+04 -1.99664E+04 -2.87581E+03 -8.24693E+03 -3.11797E+04
  2.11533E+04 -4.12119E+04  4.56748E+04 -1.86725E+04  4.26898E+04  1.85373E+04  1.44686E+04  4.22532E+04
 -1.54091E+04  3.18068E+04 -2.37214E+04  1.34445E+03 -8.68898E+03 -2.66528E+04  2.06876E+04 -3.18154E+04
  3.88148E+04 -7.63466E+03  3.25631E+04  2.31184E+04  1.61164E+04  4.35387E+04 -7.99639E+03  4.60853E+04
 -2.90496E+04  3.05379E+04 -3.83286E+04  8.91959E+03 -3.93582E+04 -1.55058E+04 -2.17055E+04 -3.52206E+04
  6.91765E+03 -3.52213E+04  2.96692E+04 -1.30083E+04  2.71514E+04  1.10935E+04  3.16707E+03  1.79759E+04
 -1.33860E+04  7.53811E+03 -9.54155E+03 -7.63442E+03  6.00321E+03 -1.02360E+04  1.72961E+04  6.26957E+03
  1.26837E+04  2.16824E+04 -6.63947E+03  2.38262E+04 -2.19130E+04  9.48619E+03 -2.56178E+04 -6.05399E+03
 -1.74967E+04 -1.66556E+04 -5.91452E+03 -1.72658E+04  3.91486E+03 -1.54878E+04  1.33030E+04 -1.52875E+04
  2.22997E+04 -1.19263E+04  2.90733E+04  1.51276E+03  2.16669E+04  1.69690E+04  3.98837E+03  3.33131E+04
 -1.62981E+04  2.79065E+04 -2.63313E+04  9.61981E+03 -1.98487E+04 -1.02056E+04 -4.16610E+03 -1.39935E+04
  2.22605E+03 -3.64912E+03 -3.33175E+03  5.62347E+03 -1.36028E+04  5.17926E+03 -1.40188E+04 -5.03987E+03
 -8.76773E+03 -1.60929E+04  4.46958E+03 -2.02787E+04  1.30962E+04 -1.42985E+04  1.50955E+04 -1.76321E+03
  9.48446E+03  1.12832E+04 -1.22775E+03  1.66729E+04 -1.05496E+04  9.08038E+03 -1.60035E+04 -3.50983E+03
 -1.20194E+04 -1.47092E+04 -1.55420E+03 -2.00946E+04  8.65069E+03 -1.61014E+04  1.68132E+04 -7.77238E+03
  1.50706E+04  3.16222E+02  1.09368E+04  4.26950E+03  5.49944E+03  5.54863E+02  7.92125E+03 -1.59523E+03
  1.45560E+04  2.72209E+03  1.56311E+04  1.29473E+04  9.92312E+03  2.54129E+04 -2.97955E+03  2.77928E+04
 -1.67130E+04  2.14693E+04 -2.57014E+04  1.01151E+04 -2.66782E+04 -1.65410E+03 -2.26425E+04 -1.50743E+04
 -1.03099E+04 -2.17243E+04  7.21496E+03 -2.00604E+04  1.73865E+04 -1.09852E+04  1.59141E+04  3.98663E+03
  6.69929E+03  1.18863E+04 -7.41907E+03  1.05998E+04 -1.39090E+04  2.76028E+03 -1.06716E+04 -8.43258E+03
 -4.24502E+01 -1.28507E+04  6.17240E+03 -9.80463E+03  8.00620E+03 -1.20043E+03  1.48132E+03  5.24377E+03
 -5.37973E+03  1.64933E+03 -3.72400E+03 -4.98621E+03  4.26245E+02 -1.05761E+04  7.82418E+03 -1.07900E+04
  1.31697E+04 -5.13109E+03  1.29687E+04  2.67194E+03  1.13341E+04  1.02968E+04  5.25839E+03  1.48952E+04
 -1.97563E+03  1.69831E+04 -1.03046E+04  1.04977E+04 -1.19565E+04  2.98212E+03 -9.00542E+03 -2.36414E+03
 -4.84867E+03 -3.78428E+03 -7.36105E+02  1.37921E+03 -1.85840E+03  2.12738E+03 -3.84643E+03  3.57346E+03
 -8.49806E+03 -2.76211E+02 -9.15499E+03 -7.36413E+03 -3.80130E+03 -1.20246E+04  3.68684E+03 -8.66385E+03
  7.74014E+03 -4.20668E+03  5.25389E+03  2.44958E+03  7.05461E+02  3.52062E+03 -3.71375E+03 -2.75981E+02
 -3.53768E+03 -5.47438E+03 -1.11010E+03 -7.47811E+03  4.19668E+03 -8.27913E+03  1.03402E+04 -4.12348E+03
  1.21345E+04  9.58779E+02  9.10738E+03  6.51589E+03  1.94416E+03  9.15557E+03 -5.25083E+03  8.59268E+03
 -7.27283E+03  2.90795E+03 -3.72536E+03 -1.12235E+03  1.40666E+03 -2.20535E+03  4.89907E+03 -1.14934E+03
  4.35810E+03  3.68861E+03  8.26857E+02  6.38274E+03 -4.97377E+03  6.69863E+03 -8.41132E+03  1.85317E+03
 -5.55875E+03 -3.93855E+03  3.17622E+02 -6.91027E+03  3.98933E+03 -3.34188E+03  3.81988E+03  1.27515E+03
  4.93361E+02  3.70037E+03 -4.32241E+03  4.71807E+03 -5.39565E+03  2.45673E+03 -4.85202E+03 -1.10967E+03
 -3.03806E+03 -6.16596E+03  1.48294E+03 -7.44914E+03  6.58101E+03 -4.74436E+03  6.98452E+03  9.82778E+02
  4.91368E+03  5.66881E+03 -1.39747E+02  7.47682E+03 -5.50449E+03  4.30339E+03 -5.56885E+03 -3.80326E+02
 -5.85240E+03 -5.27467E+03 -1.44962E+03 -5.32886E+03  2.56144E+03 -4.79729E+03  3.24309E+03 -3.12109E+03
  2.91850E+03  3.07850E+02  9.93764E+01  1.13490E+03  5.53968E+02 -2.69560E+02  4.26489E+02 -1.91167E+03
  4.17482E+03 -8.73301E+02  5.52143E+03  9.38879E+02  5.86768E+03  3.45932E+03  5.16267E+03  7.92941E+03
 -1.45935E+03  9.08686E+03 -8.31852E+03  7.31667E+03 -1.05187E+04  1.63134E+03 -8.22102E+03 -2.87060E+03
 -4.59157E+03 -6.85772E+03 -3.04744E+02 -5.54696E+03  2.31352E+03 -2.28817E+03  1.90189E+03 -2.28276E+03
  1.12996E+03 -1.69151E+03  2.23099E+03 -2.18109E+03  3.58250E+03 -1.57701E+03  3.72427E+03  4.34552E+02
  4.53487E+03  1.40562E+03  1.30689E+03  3.66080E+03 -1.60093E+03  3.06342E+03 -4.50552E+03  2.61035E+03
 -5.34606E+03 -1.00674E+03 -2.17819E+03 -3.49582E+03  5.28392E+02 -5.51771E+03  3.48760E+03 -5.51525E+03
  5.58548E+03 -3.57835E+03  7.11061E+03  3.95598E+02  5.17003E+03  4.19522E+03  1.21688E+03  6.43812E+03
 -2.37233E+03  6.09607E+03 -3.80520E+03  1.95218E+03 -2.04911E+03 -1.02554E+03 -4.58119E+02 -8.44177E+02
 -3.71104E+02  6.13046E+02 -9.24873E+02  1.95619E+03 -2.78936E+03  1.10251E+03 -4.36951E+03 -1.96015E+02
 -1.97830E+03 -4.41718E+03  8.05326E+02 -5.02377E+03  2.74302E+03 -4.87658E+03  3.96988E+03 -1.26187E+03
  4.47300E+03  2.77359E+03  1.98692E+03  3.86262E+03 -5.13209E+02  4.96652E+03 -3.13621E+03  3.30401E+03
 -4.09094E+03  4.69917E+02 -3.47954E+03 -2.47661E+03 -1.03682E+02 -3.49299E+03  1.83692E+03 -2.82485E+03
  2.81938E+03 -1.28520E+03  1.80779E+03  7.68509E+02  3.72563E+02  1.82788E+03  7.76413E+02  6.30189E+02
  1.77641E+03  5.13000E+02  1.32364E+03  1.04390E+03  1.46254E+03  2.31069E+03  1.33644E+03  1.91973E+03
 -1.30197E+03  3.36300E+03 -2.71829E+03  4.36513E+03 -3.24803E+03  1.31835E+03 -4.40412E+03 -3.98178E+02
 -1.80639E+03 -3.83646E+03  7.73289E+02 -5.09352E+03  2.28328E+03 -2.69348E+03  3.19483E+03 -7.91443E+02
  2.46229E+03  2.05740E+03  5.28996E+02  2.32418E+03 -8.83602E+02  1.52013E+03 -1.16803E+03 -7.80438E+00
 -6.81832E+02 -1.79301E+03  1.34986E+03 -1.33864E+03  1.65362E+03 -8.88011E+02  1.49498E+03  4.07741E+02
  7.25423E+02  5.03260E+02  8.93889E+02 -1.91963E+02 -1.78502E+01  7.40390E+02  1.75746E+03 -2.00234E+02
 -6.59117E+01 -1.26809E+02  1.83403E+03  8.05760E+02  5.70069E+02  2.23146E+03 -1.58503E+02  3.13060E+03
 -1.76081E+03  1.35644E+03 -2.19347E+03  4.18007E+02 -2.34795E+03 -6.88905E+02 -5.81375E+02 -1.45150E+03
  3.40137E+02 -1.22402E+03  1.07972E+03 -1.16755E+03  7.31427E+02  1.13660E+03 -6.82816E+02  1.38998E+03
 -1.67015E+03  7.85574E+02 -1.35735E+03 -1.43466E+03 -7.96929E+02 -2.40687E+03  9.71257E+01 -1.58862E+03
  6.59711E+02 -6.29267E+02  1.05684E+03  2.83299E+02  1.17885E+03 -3.37342E+02  1.77543E+02  1.46753E+03
 -2.75752E+02  8.21056E+01 -1.17995E+03 -3.25436E+02  6.50592E+02 -9.17449E+02  1.65970E+03 -8.72049E+02
  1.45855E+03  1.46674E+02  2.52156E+03  1.05448E+03  1.17168E+03  1.70827E+03 -2.80827E+02  2.10006E+03
 -1.42365E+03  2.45490E+02 -1.72345E+03 -1.03947E+02 -7.77416E+02 -1.52664E+03  3.50602E+02 -6.27382E+02
  1.46909E+03 -8.13492E+02  6.83951E+02  7.73284E+02  3.21522E+02  1.16230E+03  5.21105E+02  9.37223E+02
 -4.94637E+02  1.42060E+03 -4.31163E+02 -6.60206E+01 -3.13770E+00  4.84737E+02 -5.50951E+02  4.50849E+02
 -5.20924E+02  1.04708E+03 -1.81781E+03  4.19119E+02 -1.63884E+03  2.38243E+02 -2.68721E+03 -1.18970E+03
 -1.06871E+03 -2.57853E+03  7.61813E+02 -2.84457E+03  1.36439E+03 -2.59491E+03  2.80973E+03 -9.06890E+02
  2.61937E+03 -2.95693E+02  1.34488E+03  1.45526E+03 -4.44670E+02  1.61085E+03 -6.62652E+02  1.39058E+03
 -1.26742E+03  7.09796E+02 -6.97764E+02 -3.21212E+02 -3.95459E+02  3.72258E+02 -6.96617E+02  4.90443E+01
 -1.19124E+03 -1.89840E+02 -7.31014E+02 -6.32102E+01  1.04805E+02 -7.43584E+02 -3.60719E+02 -9.79642E+02
  1.27984E+03 -7.71136E+02  6.92833E+02  2.94955E+02  1.39438E+03  1.01897E+03 -2.94980E+02  1.61514E+03
 -1.02684E+03  2.37860E+03 -1.79461E+03  1.39454E+03 -1.72138E+03 -4.39208E+02 -1.04430E+03 -1.37842E+03
 -9.29418E+02 -1.66907E+03  1.73584E+02 -1.52229E+03  4.93953E+02 -7.27616E+02  8.68615E+02 -1.69584E+02
  7.98842E+02  2.55104E+02 -1.31011E+02  4.10312E+02 -5.91971E+02 -2.29625E+01  4.18252E+01 -1.02572E+02
  8.28486E+02  3.06452E+02  3.47868E+02  5.03927E+02  1.70851E+02  6.23653E+02  3.15966E+02  3.14406E+02
 -5.40669E+02  6.14960E+02 -4.84303E+02  9.17673E+01 -9.35148E+02 -5.33204E+02 -1.10322E+02 -8.80277E+02
  6.52461E+02 -8.94168E+02  7.78859E+02 -1.36198E+02  1.01123E+03 -4.07975E+02  6.42793E+02  6.48503E+02
  1.92078E+02  7.21301E+02 -3.27281E+02  7.11046E+02 -4.56125E+02  5.32708E+02 -3.81819E+02  7.22728E+01
 -2.59314E+02 -5.43026E+00 -4.30406E+02  2.59056E+02 -4.61904E+02  2.68206E+01 -9.65533E+02 -3.56076E+02
 -1.01940E+03  1.98658E+02 -1.42043E+02 -1.05609E+03  7.98189E+02 -1.71323E+03  1.07165E+03 -3.84147E+02
  9.26970E+02 -1.45759E+02 -1.23685E+02  1.65372E+02 -8.35362E+01  9.19725E+02 -5.73721E+02  4.62542E+02
