 $NMID ID='MM_0lb_SNR800_8hz_g40_99.RAW', FMTDAT='(8E13.5)'
 TRAMP=1., VOLUME=1. $END
  3.09971E+05  3.63752E+01  3.38072E+05  2.50850E+05  8.48709E+04  3.38660E+05 -1.32604E+05  2.51662E+05
 -1.91184E+05  8.39092E+04 -1.12590E+05 -3.29394E+04  2.97156E+02 -5.08313E+04  5.42058E+04 -7.12501E+02
  3.52884E+04  5.31350E+04 -1.66189E+04  7.58253E+04 -6.15473E+04  6.44266E+04 -8.55751E+04  3.25454E+04
 -8.24054E+04 -1.16265E+04 -5.86277E+04 -5.19165E+04 -1.53675E+04 -7.09319E+04  2.81624E+04 -4.60774E+04
  4.09346E+04  3.59912E+03  1.70970E+04  4.88777E+04 -3.46263E+04  4.76095E+04 -6.81889E+04  5.93820E+01
 -5.45325E+04 -5.79371E+04 -7.37258E+03 -7.93049E+04  3.45446E+04 -5.70983E+04  4.96843E+04 -1.84195E+04
  4.53804E+04  1.10645E+04  3.30752E+04  2.65988E+04  1.56413E+04  3.06586E+04 -5.65419E+03  2.78526E+04
 -2.25053E+04  1.20965E+04 -1.80693E+04 -5.57592E+03  7.13070E+03 -6.94956E+03  2.36811E+04  1.33537E+04
  6.75985E+03  3.78191E+04 -3.37732E+04  3.68450E+04 -6.59145E+04  2.43912E+03 -5.87260E+04 -4.43938E+04
 -1.28343E+04 -6.60173E+04  4.13986E+04 -4.75687E+04  6.13246E+04 -2.71232E+03  3.69891E+04  3.41397E+04
 -5.28921E+03  3.99564E+04 -3.15491E+04  1.88986E+04 -3.31957E+04 -3.50075E+03 -1.89859E+04 -1.22397E+04
 -9.49410E+03 -1.54268E+04 -3.97203E+02 -2.04475E+04  8.38080E+03 -2.36636E+04  1.62238E+04 -1.25923E+04
  1.03224E+04  6.25828E+03 -1.03221E+04  1.31349E+04 -2.34189E+04 -6.87715E+03 -8.70898E+03 -3.75416E+04
  2.51194E+04 -4.65785E+04  5.21845E+04 -2.09567E+04  4.88519E+04  2.07725E+04  1.69996E+04  4.73251E+04
 -1.69004E+04  3.64246E+04 -2.79417E+04  2.71502E+03 -1.23538E+04 -2.98078E+04  2.16792E+04 -3.70010E+04
  4.52304E+04 -1.12031E+04  4.05494E+04  2.49084E+04  2.12688E+04  5.08001E+04 -8.49381E+03  5.63792E+04
 -3.58555E+04  3.82820E+04 -4.76482E+04  1.08475E+04 -4.77485E+04 -1.84653E+04 -2.64656E+04 -4.24027E+04
  7.56279E+03 -4.22870E+04  3.43725E+04 -1.70123E+04  3.25619E+04  1.09396E+04  5.42846E+03  2.05278E+04
 -1.42560E+04  9.38337E+03 -1.13836E+04 -7.75291E+03  5.86851E+03 -1.12907E+04  1.85664E+04  5.21166E+03
  1.50901E+04  2.26152E+04 -5.23104E+03  2.72186E+04 -2.34889E+04  1.42940E+04 -3.15963E+04 -2.94322E+03
 -2.58824E+04 -1.81553E+04 -1.14789E+04 -2.49988E+04  4.42465E+03 -2.57216E+04  2.00520E+04 -2.30003E+04
  3.23679E+04 -1.39964E+04  3.82226E+04  5.06140E+03  2.75149E+04  2.42388E+04  4.69308E+03  4.18637E+04
 -2.01039E+04  3.40647E+04 -3.06480E+04  1.16056E+04 -2.24442E+04 -9.98070E+03 -5.01168E+03 -1.27963E+04
  8.42722E+02 -1.27836E+03 -7.57866E+03  8.46519E+03 -2.02088E+04  4.79503E+03 -2.04024E+04 -9.63444E+03
 -1.22922E+04 -2.33424E+04  5.96291E+03 -2.83780E+04  1.85629E+04 -1.98006E+04  2.28904E+04 -1.70636E+03
  1.41814E+04  1.62270E+04 -1.49924E+03  2.36213E+04 -1.72075E+04  1.35338E+04 -2.39204E+04 -4.89118E+03
 -1.74637E+04 -2.09763E+04 -2.22148E+03 -2.81213E+04  1.27308E+04 -2.38534E+04  2.36223E+04 -1.20162E+04
  2.25248E+04 -8.09691E+02  1.60732E+04  5.05923E+03  8.94801E+03  1.24602E+03  1.27355E+04 -2.33591E+03
  2.24974E+04  3.19431E+03  2.60124E+04  1.86040E+04  1.73708E+04  3.81630E+04 -2.47902E+03  4.44382E+04
 -2.55299E+04  3.75323E+04 -4.23049E+04  1.95529E+04 -4.53326E+04 -3.37288E+03 -3.66833E+04 -2.68716E+04
 -1.42884E+04 -3.74340E+04  1.35397E+04 -3.30787E+04  2.85774E+04 -1.52672E+04  2.43581E+04  8.09599E+03
  8.33809E+03  1.89601E+04 -1.13576E+04  1.58802E+04 -2.05505E+04  2.65558E+03 -1.52026E+04 -1.31516E+04
 -2.57052E+02 -1.97843E+04  1.04231E+04 -1.44800E+04  1.36672E+04 -1.15194E+03  3.40189E+03  9.09885E+03
 -8.74866E+03  4.51375E+03 -9.05895E+03 -7.28605E+03 -1.85556E+03 -1.80911E+04  1.19564E+04 -1.97065E+04
  2.35897E+04 -1.11331E+04  2.64890E+04  3.47908E+03  2.33462E+04  1.91537E+04  1.10260E+04  3.01248E+04
 -5.60020E+03  3.18607E+04 -2.10445E+04  1.96099E+04 -2.32280E+04  4.21292E+03 -1.56185E+04 -6.08950E+03
 -6.69809E+03 -7.35535E+03 -4.92267E+02  7.43171E+02 -3.03538E+03  3.13068E+03 -7.64361E+03  5.31032E+03
 -1.44861E+04 -8.78320E+02 -1.50497E+04 -1.16955E+04 -5.99795E+03 -2.01495E+04  6.73267E+03 -1.55372E+04
  1.31000E+04 -6.42627E+03  9.00712E+03  4.54448E+03 -4.03690E+02  5.77508E+03 -8.28760E+03 -2.62260E+02
 -7.79930E+03 -1.02018E+04 -6.94923E+02 -1.56692E+04  9.09911E+03 -1.69087E+04  2.03090E+04 -8.70239E+03
  2.43600E+04  2.61508E+03  1.68957E+04  1.47515E+04  3.75596E+03  1.97331E+04 -9.99735E+03  1.59147E+04
 -1.30233E+04  4.66749E+03 -7.00976E+03 -3.28537E+03  2.28190E+03 -4.31398E+03  8.48816E+03 -9.48103E+02
  7.87442E+03  7.13332E+03  9.56622E+02  1.28850E+04 -9.40698E+03  1.26302E+04 -1.57086E+04  2.74342E+03
 -1.09707E+04 -8.39693E+03 -1.08388E+02 -1.37641E+04  8.95568E+03 -7.08191E+03  9.46799E+03  3.43652E+03
  2.48715E+03  1.01434E+04 -8.31925E+03  1.21584E+04 -1.42086E+04  5.17241E+03 -1.41502E+04 -5.37437E+03
 -8.57527E+03 -1.60506E+04  4.24154E+03 -1.88903E+04  1.61611E+04 -1.17024E+04  1.70705E+04  3.05096E+03
  1.02036E+04  1.37302E+04 -1.64025E+03  1.60901E+04 -1.22519E+04  9.24695E+03 -1.30831E+04 -1.81408E+03
 -1.11991E+04 -1.06287E+04 -1.54509E+03 -1.25174E+04  6.67440E+03 -9.78728E+03  8.01479E+03 -3.52945E+03
  5.14991E+03  1.83236E+03 -1.25876E+03  1.51835E+03 -9.29276E+01 -3.47762E+03  2.78620E+03 -7.81447E+03
  1.21482E+04 -5.21114E+03  1.66898E+04  1.75096E+03  1.63096E+04  1.14425E+04  1.01218E+04  2.21100E+04
 -5.08298E+03  2.51551E+04 -2.10326E+04  1.82586E+04 -2.66449E+04  3.72744E+03 -2.19037E+04 -9.06571E+03
 -1.06758E+04 -1.77445E+04 -7.80458E+02 -1.52682E+04  5.43230E+03 -8.73447E+03  5.25328E+03 -5.63021E+03
  4.09585E+03 -3.58113E+03  4.04273E+03 -3.74025E+03  5.91445E+03 -3.95857E+03  8.37385E+03 -1.38818E+03
  1.11250E+04  2.69037E+03  6.04579E+03  9.78523E+03 -2.29037E+03  1.21301E+04 -1.17200E+04  9.07921E+03
 -1.52771E+04 -9.98421E+02 -1.02967E+04 -1.06105E+04 -1.50613E+03 -1.67798E+04  9.23653E+03 -1.66555E+04
  1.69820E+04 -9.09235E+03  2.04715E+04  2.58024E+03  1.40217E+04  1.46828E+04  2.16052E+03  1.85856E+04
 -7.93790E+03  1.47562E+04 -1.11695E+04  4.82797E+03 -7.89281E+03 -1.75344E+03 -3.24877E+03 -1.89025E+03
 -1.50523E+03 -6.63843E+00 -2.38933E+03  3.18733E+03 -6.35121E+03  2.37311E+03 -1.05786E+04 -1.35452E+03
 -7.85447E+03 -1.06794E+04  6.57989E+01 -1.54767E+04  9.44272E+03 -1.45108E+04  1.56102E+04 -4.62515E+03
  1.58220E+04  7.49611E+03  7.59476E+03  1.39024E+04 -3.31067E+03  1.59332E+04 -1.15213E+04  9.88848E+03
 -1.47304E+04  4.02014E+02 -1.19242E+04 -9.45631E+03 -1.08224E+03 -1.32207E+04  6.70492E+03 -1.00561E+04
  1.01548E+04 -2.93701E+03  6.80781E+03  2.88189E+03  2.34689E+03  4.85655E+03  1.72554E+03  2.48056E+03
  2.81940E+03  9.78714E+02  3.71925E+03  1.85391E+03  4.92766E+03  5.26480E+03  3.81729E+03  8.45107E+03
 -3.45798E+03  1.24113E+04 -1.10379E+04  1.20171E+04 -1.65075E+04  3.33225E+03 -1.68571E+04 -7.21530E+03
 -8.14563E+03 -1.57137E+04  2.57954E+03 -1.72522E+04  1.00479E+04 -1.17792E+04  1.33289E+04 -3.12647E+03
  1.03313E+04  5.86379E+03  2.71547E+03  9.13007E+03 -4.64461E+03  5.86145E+03 -6.51926E+03 -4.21875E+02
 -3.14552E+03 -7.02008E+03  3.83546E+03 -7.17286E+03  7.10993E+03 -3.34391E+03  6.31279E+03  1.53769E+03
  4.01155E+03  3.43160E+03  1.53176E+03  2.52072E+03 -6.73040E+02  2.22063E+03  1.59768E+03 -1.11777E+03
  2.66688E+03 -6.41403E+02  6.86456E+03  2.49637E+03  4.02934E+03  8.83415E+03 -1.55041E+03  1.12168E+04
 -7.62070E+03  7.80951E+03 -1.04334E+04  1.88889E+03 -9.59540E+03 -3.59392E+03 -3.88280E+03 -6.51992E+03
  1.25516E+03 -6.26487E+03  4.52873E+03 -3.15987E+03  3.90172E+03  3.64347E+03 -1.79016E+03  5.43426E+03
 -6.88659E+03  3.03212E+03 -7.72816E+03 -3.81982E+03 -4.45919E+03 -9.24355E+03  1.54344E+03 -8.83875E+03
  5.52457E+03 -5.74641E+03  6.43623E+03 -5.59674E+02  5.73860E+03  2.90132E+03  4.47886E+02  4.96639E+03
 -2.82747E+03  1.56455E+03 -3.81799E+03 -3.09584E+03  1.73642E+03 -7.18560E+03  8.44591E+03 -5.66280E+03
  1.04243E+04  1.21346E+03  1.02414E+04  7.49229E+03  3.41948E+03  1.11068E+04 -3.68130E+03  1.09127E+04
 -8.74684E+03  4.84157E+03 -9.97541E+03 -1.25381E+03 -5.29247E+03 -7.17175E+03  1.89514E+03 -7.22918E+03
  6.86336E+03 -3.20823E+03  6.00335E+03  2.64922E+03  1.87278E+03  5.99298E+03 -1.04100E+03  5.22192E+03
 -3.22523E+03  3.37336E+03 -2.43999E+03  1.02630E+03 -9.09294E+02  1.01333E+03 -1.72046E+03  2.29829E+03
 -2.76310E+03  4.06553E+03 -7.58320E+03  4.00126E+03 -1.06963E+04  2.51451E+02 -1.25859E+04 -7.67168E+03
 -6.61105E+03 -1.48114E+04  2.87794E+03 -1.68993E+04  1.07207E+04 -1.30183E+04  1.62039E+04 -4.81951E+03
  1.47878E+04  3.11431E+03  9.44229E+03  1.07975E+04  9.96910E+02  1.17770E+04 -4.92985E+03  8.64484E+03
 -6.23212E+03  2.83368E+03 -4.01927E+03 -6.91798E+02 -1.58808E+03 -1.05049E+03 -9.72006E+02 -2.95227E+02
 -1.66832E+03  6.56664E+02 -2.08693E+03 -1.04121E+02 -1.10474E+03 -2.95951E+03  5.98232E+02 -4.04307E+03
  4.76311E+03 -3.84012E+03  6.83648E+03  8.10576E+01  7.82107E+03  6.26833E+03  2.40920E+03  1.15376E+04
 -5.74651E+03  1.33253E+04 -1.26955E+04  7.30979E+03 -1.42583E+04 -1.06205E+03 -1.06335E+04 -8.96383E+03
 -4.76948E+03 -1.23921E+04  3.01647E+03 -1.08272E+04  7.75800E+03 -6.41198E+03  7.94168E+03  2.92621E+02
  4.26709E+03  3.93194E+03 -8.26511E+02  3.04906E+03 -2.10608E+03 -2.14304E+02  2.48298E+02 -2.87294E+03
  3.73112E+03 -2.26127E+03  4.67632E+03  1.80953E+03  3.07227E+03  4.65927E+03  3.35799E+02  6.31050E+03
 -5.04470E+03  5.53650E+03 -7.95021E+03  5.36621E+02 -7.13051E+03 -5.62656E+03 -1.26500E+03 -9.80553E+03
  5.44020E+03 -8.82273E+03  9.39030E+03 -2.16238E+03  9.37351E+03  2.30833E+03  5.42460E+03  6.94798E+03
  9.07891E+02  7.73737E+03 -3.04378E+03  6.29617E+03 -4.98447E+03  3.05357E+03 -4.52041E+03  2.63019E+02
 -2.40797E+03 -3.34709E+02 -2.11789E+03  9.48450E+02 -4.39339E+03  1.58445E+03 -5.62255E+03 -1.66680E+03
 -6.00560E+03 -4.19619E+03 -1.86884E+03 -8.31883E+03  4.19952E+03 -8.22413E+03  7.08437E+03 -3.96626E+03
  8.02456E+03  8.90352E+02  4.84666E+03  6.06380E+03 -5.77976E+02  8.18172E+03 -6.17555E+03  5.44308E+03
