 $NMID ID='MM_0lb_SNR800_12hz_g55_19.RAW', FMTDAT='(8E13.5)'
 TRAMP=1., VOLUME=1. $END
  3.09774E+05  5.41977E+02  3.37811E+05  2.50946E+05  8.45467E+04  3.38349E+05 -1.32752E+05  2.51693E+05
 -1.90205E+05  8.33905E+04 -1.12154E+05 -3.22738E+04  1.05083E+02 -5.08133E+04  5.36409E+04 -5.00309E+02
  3.55075E+04  5.28308E+04 -1.65501E+04  7.60824E+04 -6.12487E+04  6.41953E+04 -8.48843E+04  3.22722E+04
 -8.19438E+04 -1.15481E+04 -5.75406E+04 -5.17761E+04 -1.53011E+04 -7.02787E+04  2.78605E+04 -4.61414E+04
  4.04402E+04  3.78882E+03  1.64301E+04  4.82967E+04 -3.45025E+04  4.79138E+04 -6.72932E+04  1.57376E+02
 -5.44154E+04 -5.75381E+04 -7.32708E+03 -7.79896E+04  3.46786E+04 -5.60925E+04  4.86838E+04 -1.78838E+04
  4.43815E+04  1.12890E+04  3.24639E+04  2.58685E+04  1.59992E+04  3.02004E+04 -5.63207E+03  2.73674E+04
 -2.22133E+04  1.23035E+04 -1.81250E+04 -5.04160E+03  6.25836E+03 -7.31519E+03  2.29044E+04  1.32329E+04
  7.10603E+03  3.65625E+04 -3.31242E+04  3.61756E+04 -6.47574E+04  2.10922E+03 -5.82958E+04 -4.38749E+04
 -1.27405E+04 -6.43578E+04  4.10025E+04 -4.64538E+04  6.01363E+04 -2.35756E+03  3.57080E+04  3.36500E+04
 -5.64010E+03  3.77461E+04 -3.08725E+04  1.75567E+04 -3.20925E+04 -3.79234E+03 -1.81963E+04 -1.16208E+04
 -8.94977E+03 -1.42057E+04 -5.72395E+02 -1.87484E+04  8.11476E+03 -2.32297E+04  1.57144E+04 -1.28250E+04
  1.11432E+04  5.44095E+03 -9.62453E+03  1.23128E+04 -2.23028E+04 -5.84841E+03 -8.81974E+03 -3.59988E+04
  2.39892E+04 -4.52897E+04  5.04361E+04 -2.04278E+04  4.68941E+04  2.05329E+04  1.64308E+04  4.57512E+04
 -1.61311E+04  3.48962E+04 -2.63715E+04  2.33686E+03 -1.06099E+04 -2.86544E+04  2.11743E+04 -3.54003E+04
  4.30765E+04 -1.02288E+04  3.81605E+04  2.43498E+04  1.99807E+04  4.90177E+04 -7.95913E+03  5.35281E+04
 -3.36085E+04  3.62092E+04 -4.50398E+04  1.01275E+04 -4.52350E+04 -1.79529E+04 -2.49450E+04 -4.02926E+04
  7.66910E+03 -4.00356E+04  3.31424E+04 -1.60270E+04  3.08035E+04  1.10055E+04  4.52800E+03  2.00855E+04
 -1.33562E+04  9.01804E+03 -1.11881E+04 -7.74100E+03  5.65216E+03 -1.11724E+04  1.82314E+04  5.77613E+03
  1.42759E+04  2.24998E+04 -5.34267E+03  2.66360E+04 -2.31546E+04  1.31792E+04 -2.99101E+04 -3.81782E+03
 -2.32323E+04 -1.77209E+04 -1.03997E+04 -2.28713E+04  4.36409E+03 -2.29116E+04  1.79872E+04 -2.04364E+04
  2.93399E+04 -1.33202E+04  3.57233E+04  3.74907E+03  2.54439E+04  2.24497E+04  4.75720E+03  3.90174E+04
 -1.87151E+04  3.25765E+04 -2.93941E+04  1.14175E+04 -2.16457E+04 -1.04187E+04 -4.66566E+03 -1.30358E+04
  1.11639E+03 -2.09847E+03 -6.56011E+03  7.50138E+03 -1.84074E+04  4.99735E+03 -1.84645E+04 -8.13094E+03
 -1.10613E+04 -2.10264E+04  5.70428E+03 -2.55625E+04  1.73048E+04 -1.79548E+04  2.05528E+04 -1.40752E+03
  1.31892E+04  1.45256E+04 -1.28566E+03  2.08227E+04 -1.47489E+04  1.20747E+04 -2.13116E+04 -4.53649E+03
 -1.56982E+04 -1.88016E+04 -2.05053E+03 -2.53923E+04  1.17520E+04 -2.11664E+04  2.09770E+04 -1.05667E+04
  1.96087E+04  1.23555E+01  1.42756E+04  5.05131E+03  7.90570E+03  1.02116E+03  1.08680E+04 -1.62313E+03
  2.00143E+04  2.80476E+03  2.25523E+04  1.65123E+04  1.47393E+04  3.39834E+04 -2.41809E+03  3.96653E+04
 -2.24812E+04  3.22425E+04 -3.70880E+04  1.66031E+04 -3.93065E+04 -2.92618E+03 -3.18963E+04 -2.26209E+04
 -1.30208E+04 -3.22717E+04  1.12727E+04 -2.89640E+04  2.47019E+04 -1.43415E+04  2.17383E+04  6.61667E+03
  7.68657E+03  1.65800E+04 -1.03761E+04  1.38103E+04 -1.83554E+04  2.80323E+03 -1.40668E+04 -1.13334E+04
 -1.15679E+02 -1.71380E+04  9.37434E+03 -1.31163E+04  1.17615E+04 -1.37203E+03  2.80596E+03  7.21255E+03
 -7.93372E+03  3.23689E+03 -7.58567E+03 -6.12178E+03 -9.13594E+02 -1.58108E+04  1.03318E+04 -1.68606E+04
  1.96607E+04 -9.66391E+03  2.19119E+04  3.16224E+03  1.92125E+04  1.57743E+04  8.82919E+03  2.42497E+04
 -4.18291E+03  2.66332E+04 -1.71966E+04  1.64311E+04 -1.90137E+04  3.75519E+03 -1.31290E+04 -4.59059E+03
 -5.66591E+03 -6.04064E+03 -6.45805E+02  8.35101E+02 -2.57251E+03  2.99745E+03 -5.93556E+03  4.80560E+03
 -1.25145E+04 -8.66796E+02 -1.31428E+04 -1.02796E+04 -5.21077E+03 -1.70976E+04  5.25513E+03 -1.34345E+04
  1.10459E+04 -5.73573E+03  7.95269E+03  3.75182E+03  3.83826E+02  5.22355E+03 -6.34587E+03 -7.68338E-01
 -6.10387E+03 -8.50362E+03 -8.58702E+02 -1.31022E+04  7.46651E+03 -1.40013E+04  1.68271E+04 -7.29249E+03
  1.94182E+04  1.70147E+03  1.44770E+04  1.18472E+04  2.54173E+03  1.53537E+04 -8.43978E+03  1.32528E+04
 -1.07552E+04  4.11217E+03 -5.80835E+03 -2.67778E+03  1.86548E+03 -3.42579E+03  6.94654E+03 -1.32365E+03
  6.22804E+03  5.47335E+03  1.26269E+03  1.04208E+04 -7.24131E+03  1.02570E+04 -1.29876E+04  2.77640E+03
 -8.77716E+03 -6.74527E+03  5.63959E+02 -1.08869E+04  7.16551E+03 -5.44927E+03  7.22644E+03  2.40932E+03
  1.50733E+03  7.65228E+03 -6.72781E+03  9.14143E+03 -1.03972E+04  4.24591E+03 -1.09624E+04 -3.73408E+03
 -6.03551E+03 -1.28424E+04  3.16011E+03 -1.42955E+04  1.21058E+04 -8.83255E+03  1.33909E+04  2.45348E+03
  8.14361E+03  1.05521E+04 -7.88993E+02  1.26355E+04 -9.17656E+03  7.20134E+03 -1.03507E+04 -1.11615E+03
 -9.09772E+03 -8.85641E+03 -1.66216E+03 -9.54965E+03  5.15380E+03 -8.03330E+03  5.97629E+03 -3.38949E+03
  3.98976E+03  1.10561E+03 -5.64324E+02  1.66726E+03 -1.51724E+02 -2.56067E+03  2.03279E+03 -5.67883E+03
  8.85922E+03 -3.57139E+03  1.22662E+04  1.44506E+03  1.21587E+04  8.29033E+03  8.51027E+03  1.63762E+04
 -4.10131E+03  1.83809E+04 -1.53831E+04  1.36034E+04 -2.02772E+04  2.94264E+03 -1.60037E+04 -6.69691E+03
 -8.18078E+03 -1.33814E+04 -4.29449E+02 -1.13223E+04  4.42083E+03 -6.18672E+03  4.03862E+03 -4.05677E+03
  2.91942E+03 -2.76412E+03  2.88700E+03 -3.07732E+03  5.03951E+03 -2.46704E+03  6.51344E+03 -4.72600E+02
  8.48246E+03  1.92896E+03  4.37493E+03  7.26284E+03 -2.23152E+03  8.25832E+03 -8.79880E+03  6.39093E+03
 -1.12925E+04 -1.46854E+03 -6.44584E+03 -7.70712E+03 -3.42320E+02 -1.19460E+04  6.85828E+03 -1.21081E+04
  1.23897E+04 -6.67879E+03  1.48139E+04  1.67467E+03  1.01362E+04  9.91621E+03  1.68644E+03  1.32002E+04
 -5.30343E+03  1.12895E+04 -7.62267E+03  3.90382E+03 -5.05050E+03 -1.12076E+03 -2.34682E+03 -1.80443E+03
 -8.59753E+02  1.15773E+02 -2.05873E+03  3.00368E+03 -4.86814E+03  2.20208E+03 -7.59293E+03 -1.22724E+03
 -5.02539E+03 -7.73407E+03  1.18013E+02 -1.07351E+04  6.82429E+03 -9.89690E+03  1.03225E+04 -2.92923E+03
  1.05547E+04  5.07180E+03  4.93452E+03  9.28120E+03 -1.87233E+03  1.07975E+04 -7.62264E+03  6.47833E+03
 -9.81347E+03  7.20669E+02 -7.30924E+03 -6.38921E+03 -9.31196E+02 -8.81138E+03  4.41417E+03 -6.46149E+03
  6.56191E+03 -2.24747E+03  4.24963E+03  1.48788E+03  1.59830E+03  3.24122E+03  1.38092E+03  1.36682E+03
  2.51889E+03  6.44872E+02  2.83933E+03  1.69133E+03  3.21610E+03  3.80577E+03  2.42859E+03  5.60155E+03
 -2.30505E+03  8.63026E+03 -7.12682E+03  8.72125E+03 -1.07601E+04  2.32355E+03 -1.12082E+04 -3.77980E+03
 -5.25767E+03 -1.04583E+04  1.44833E+03 -1.19842E+04  6.12480E+03 -7.09812E+03  8.74739E+03 -2.33227E+03
  6.81454E+03  4.44200E+03  1.64797E+03  5.92839E+03 -2.61348E+03  3.46477E+03 -3.85253E+03 -5.86543E+02
 -1.61840E+03 -4.80864E+03  2.67050E+03 -4.65825E+03  4.21879E+03 -1.99189E+03  4.20373E+03  1.23802E+03
  2.29443E+03  1.91204E+03  1.24513E+03  1.43479E+03 -5.45152E+02  1.76946E+03  1.36771E+03 -3.42920E+02
  1.68929E+03 -1.08659E+03  3.91757E+03  1.85918E+03  2.21946E+03  5.56885E+03 -4.51191E+02  7.31860E+03
 -4.84341E+03  4.79302E+03 -6.17406E+03  1.34067E+03 -5.75938E+03 -2.29880E+03 -1.84801E+03 -3.81716E+03
  7.40299E+02 -4.07368E+03  3.03007E+03 -1.78288E+03  2.38644E+03  2.29477E+03 -1.00755E+03  3.57139E+03
 -4.21910E+03  2.03305E+03 -4.74724E+03 -2.54462E+03 -2.58210E+03 -5.75283E+03  1.11710E+03 -5.72613E+03
  2.87375E+03 -3.46406E+03  3.74898E+03 -2.35183E+02  3.42991E+03  1.04655E+03  4.41817E+02  3.17999E+03
 -1.64502E+03  9.56017E+02 -2.13308E+03 -1.82550E+03  9.83933E+02 -4.00793E+03  4.55226E+03 -3.64668E+03
  6.23774E+03  4.62251E+02  6.64381E+03  4.16166E+03  2.20760E+03  6.22821E+03 -2.11756E+03  5.96594E+03
 -5.32772E+03  2.46531E+03 -5.49391E+03 -1.06937E+03 -2.91355E+03 -4.05474E+03  9.60175E+02 -3.65254E+03
  4.19261E+03 -1.92121E+03  3.01990E+03  1.60143E+03  1.22900E+03  3.63685E+03 -3.34426E+02  2.77784E+03
 -1.09888E+03  2.09858E+03 -1.26446E+03  6.45364E+02 -5.36034E+02  5.55873E+02 -1.07159E+03  1.45276E+03
 -1.34681E+03  2.41552E+03 -4.36046E+03  2.08894E+03 -5.88492E+03  3.45917E+02 -7.33195E+03 -3.62383E+03
 -3.83932E+03 -8.31973E+03  1.33157E+03 -9.32623E+03  5.71730E+03 -7.46490E+03  9.37312E+03 -2.98593E+03
  8.49176E+03  1.34247E+03  5.00215E+03  5.93974E+03  6.15847E+02  6.51070E+03 -2.69284E+03  5.04299E+03
 -3.47227E+03  1.71343E+03 -2.15970E+03 -8.20632E+02 -8.99177E+02 -6.22629E+02 -3.33656E+02  7.97483E+01
 -1.43392E+03 -9.22139E+01 -1.46515E+03 -2.22822E+02 -3.32861E+02 -1.72468E+03 -5.77567E+01 -2.39180E+03
  3.03158E+03 -2.16703E+03  3.55721E+03  1.00905E+02  4.51990E+03  3.37970E+03  8.31428E+02  6.10799E+03
 -2.97757E+03  7.41689E+03 -6.38959E+03  4.64491E+03 -7.43093E+03 -4.00240E+02 -5.30587E+03 -4.38033E+03
 -2.36228E+03 -6.24714E+03  1.61161E+03 -5.51309E+03  3.59453E+03 -3.06855E+03  4.10369E+03  1.00894E+02
  2.22000E+03  1.54600E+03 -1.77891E+02  1.60467E+03 -1.27039E+03 -3.05119E+02 -3.61496E+02 -1.22636E+03
  1.81370E+03 -5.13426E+02  1.77343E+03  9.98277E+02  9.63850E+02  2.35531E+03  3.92140E+02  3.18550E+03
 -2.75341E+03  2.51587E+03 -3.96973E+03 -1.24670E+02 -3.35789E+03 -2.82089E+03 -4.97582E+02 -5.02834E+03
  2.77666E+03 -4.03082E+03  4.17564E+03 -9.71917E+02  4.41574E+03  5.84592E+02  2.36672E+03  3.40764E+03
  5.28916E+02  3.53848E+03 -1.52705E+03  3.13044E+03 -2.30426E+03  1.79928E+03 -2.11592E+03  1.65120E+02
 -7.33965E+02 -1.57079E+02 -1.23000E+03  6.27727E+02 -2.14527E+03  5.72420E+02 -3.09179E+03 -8.41102E+02
 -2.88737E+03 -1.71946E+03 -9.10112E+02 -3.95285E+03  2.23973E+03 -4.27230E+03  3.66571E+03 -1.76688E+03
  3.73705E+03  8.39892E+02  1.94340E+03  2.96595E+03 -2.50033E+02  3.78721E+03 -2.52429E+03  2.33901E+03
