 $NMID ID='MM_0lb_SNR800_20hz_g60_1.RAW', FMTDAT='(8E13.5)'
 TRAMP=1., VOLUME=1. $END
  3.09969E+05  6.28761E+02  3.37610E+05  2.50502E+05  8.45467E+04  3.37247E+05 -1.32402E+05  2.50523E+05
 -1.90278E+05  8.27391E+04 -1.11490E+05 -3.26000E+04  1.30348E+03 -5.03293E+04  5.37057E+04  5.38560E+01
  3.49666E+04  5.24390E+04 -1.65616E+04  7.51044E+04 -6.06093E+04  6.32060E+04 -8.37088E+04  3.20314E+04
 -8.00898E+04 -1.12824E+04 -5.67777E+04 -5.04214E+04 -1.49670E+04 -6.87152E+04  2.71130E+04 -4.48969E+04
  3.94780E+04  3.83270E+03  1.57296E+04  4.75103E+04 -3.38844E+04  4.65428E+04 -6.57410E+04 -1.44432E+02
 -5.26530E+04 -5.61940E+04 -6.42158E+03 -7.59826E+04  3.34512E+04 -5.36083E+04  4.67543E+04 -1.68377E+04
  4.20867E+04  1.12213E+04  3.11937E+04  2.49570E+04  1.60807E+04  2.88969E+04 -4.93104E+03  2.69578E+04
 -2.17798E+04  1.27750E+04 -1.88721E+04 -4.70832E+03  4.87692E+03 -7.35100E+03  2.14887E+04  1.15837E+04
  7.34319E+03  3.40069E+04 -3.10049E+04  3.42323E+04 -6.23819E+04  2.34483E+03 -5.60307E+04 -4.19444E+04
 -1.24273E+04 -6.15834E+04  3.85858E+04 -4.39648E+04  5.62526E+04 -1.94153E+03  3.25805E+04  3.12074E+04
 -6.34925E+03  3.39826E+04 -2.87826E+04  1.39989E+04 -2.83667E+04 -4.90161E+03 -1.47422E+04 -1.02032E+04
 -7.57833E+03 -1.18484E+04 -7.40759E+02 -1.69836E+04  6.88470E+03 -2.28835E+04  1.50355E+04 -1.37933E+04
  1.20076E+04  4.68461E+03 -6.86849E+03  1.31838E+04 -2.00221E+04 -2.89278E+03 -8.20206E+03 -3.14288E+04
  2.15466E+04 -4.12296E+04  4.56434E+04 -1.89514E+04  4.28832E+04  1.86820E+04  1.45300E+04  4.22881E+04
 -1.56724E+04  3.19386E+04 -2.39431E+04  1.42590E+03 -8.58326E+03 -2.67127E+04  2.08451E+04 -3.17725E+04
  3.85937E+04 -7.67231E+03  3.24519E+04  2.28473E+04  1.59118E+04  4.35267E+04 -8.24046E+03  4.64409E+04
 -2.91046E+04  3.08190E+04 -3.83401E+04  8.40004E+03 -3.94710E+04 -1.52623E+04 -2.18179E+04 -3.52542E+04
  6.94154E+03 -3.51257E+04  2.94205E+04 -1.30421E+04  2.72853E+04  1.06675E+04  3.07382E+03  1.79853E+04
 -1.32168E+04  7.51945E+03 -9.90370E+03 -7.53416E+03  6.03771E+03 -1.01220E+04  1.74412E+04  6.30502E+03
  1.26065E+04  2.15994E+04 -6.84121E+03  2.36584E+04 -2.15870E+04  9.72370E+03 -2.55802E+04 -5.91975E+03
 -1.73808E+04 -1.65463E+04 -6.17798E+03 -1.72803E+04  3.99616E+03 -1.56455E+04  1.29142E+04 -1.48331E+04
  2.21456E+04 -1.18064E+04  2.86591E+04  1.36252E+03  2.17813E+04  1.66271E+04  4.36778E+03  3.27972E+04
 -1.63290E+04  2.80589E+04 -2.60508E+04  9.63046E+03 -1.96890E+04 -1.02390E+04 -3.94677E+03 -1.39034E+04
  2.37873E+03 -4.05758E+03 -2.77485E+03  5.51783E+03 -1.32693E+04  5.31264E+03 -1.36062E+04 -5.27855E+03
 -8.92089E+03 -1.59019E+04  4.34255E+03 -1.99006E+04  1.25915E+04 -1.41985E+04  1.46279E+04 -1.37544E+03
  9.18024E+03  1.11237E+04 -1.00999E+03  1.59876E+04 -1.06478E+04  8.98165E+03 -1.61286E+04 -3.30681E+03
 -1.16877E+04 -1.45121E+04 -1.39804E+03 -1.92145E+04  9.05587E+03 -1.55862E+04  1.62973E+04 -7.17575E+03
  1.47949E+04  9.20897E+02  1.04755E+04  3.70289E+03  5.68039E+03  2.89801E+02  7.58495E+03 -1.25905E+03
  1.41849E+04  2.58691E+03  1.48229E+04  1.29622E+04  9.40081E+03  2.49933E+04 -3.18308E+03  2.67445E+04
 -1.58022E+04  2.04850E+04 -2.48184E+04  9.94816E+03 -2.55352E+04 -2.02591E+03 -2.16818E+04 -1.45133E+04
 -1.04303E+04 -2.06246E+04  6.82947E+03 -1.91241E+04  1.68298E+04 -1.07859E+04  1.54958E+04  3.76374E+03
  6.51300E+03  1.12063E+04 -7.30283E+03  1.07391E+04 -1.36570E+04  2.50425E+03 -1.03208E+04 -8.14853E+03
 -6.27797E+01 -1.26321E+04  6.18918E+03 -9.44475E+03  7.66133E+03 -1.16021E+03  1.33516E+03  4.88267E+03
 -5.36803E+03  1.30885E+03 -3.65116E+03 -4.26634E+03  3.49485E+02 -1.01156E+04  8.15894E+03 -9.91683E+03
  1.20594E+04 -4.32315E+03  1.20485E+04  2.96382E+03  1.02544E+04  9.24616E+03  4.71439E+03  1.38133E+04
 -1.56470E+03  1.59392E+04 -9.70321E+03  1.00900E+04 -1.08583E+04  2.92232E+03 -8.13632E+03 -1.81580E+03
 -4.61472E+03 -3.21362E+03 -5.63051E+02  1.68478E+03 -1.96803E+03  2.05213E+03 -3.69752E+03  3.66433E+03
 -7.69408E+03 -5.07728E+02 -8.67451E+03 -7.06917E+03 -3.46908E+03 -1.15337E+04  3.39346E+03 -8.08270E+03
  7.00617E+03 -3.60015E+03  5.37160E+03  2.22283E+03  5.67160E+02  2.95457E+03 -3.31140E+03  1.78763E+00
 -3.34036E+03 -5.17974E+03 -5.04739E+02 -6.73832E+03  3.74341E+03 -7.84443E+03  9.36052E+03 -3.72540E+03
  1.11585E+04  5.49827E+02  8.55557E+03  6.10165E+03  1.75894E+03  8.30373E+03 -5.11989E+03  8.13688E+03
 -6.64684E+03  2.89313E+03 -3.60441E+03 -1.13440E+03  1.39705E+03 -1.88386E+03  4.52549E+03 -1.07786E+03
  3.95550E+03  3.06676E+03  8.50191E+02  6.05978E+03 -4.20967E+03  5.97683E+03 -7.67468E+03  1.50371E+03
 -4.61177E+03 -3.50041E+03  4.23656E+02 -6.65263E+03  3.43604E+03 -3.22390E+03  3.31310E+03  8.00056E+02
  6.42391E+02  3.20481E+03 -3.79925E+03  4.22679E+03 -4.46572E+03  1.96273E+03 -4.12846E+03 -1.00075E+03
 -2.51841E+03 -5.50046E+03  8.82904E+02 -6.52177E+03  5.46769E+03 -4.24987E+03  6.02351E+03  9.95874E+02
  4.36306E+03  4.81636E+03  3.42289E+02  6.92054E+03 -4.61226E+03  3.94835E+03 -4.94624E+03 -1.11369E+02
 -5.48755E+03 -4.97283E+03 -1.35580E+03 -4.67711E+03  2.16116E+03 -4.28249E+03  2.45546E+03 -2.72804E+03
  2.63514E+03  2.56807E+01  3.69177E+02  1.22297E+03  4.61176E+02  1.92778E+02  3.98742E+01 -1.49544E+03
  3.42254E+03 -6.43891E+02  4.56115E+03  5.52152E+02  4.93770E+03  2.52119E+03  5.19524E+03  6.72454E+03
 -7.19061E+02  7.49072E+03 -6.88157E+03  5.89382E+03 -9.07998E+03  9.51508E+02 -6.80732E+03 -2.48091E+03
 -3.60935E+03 -5.98968E+03 -4.27245E+02 -4.37740E+03  1.99867E+03 -1.90606E+03  1.48744E+03 -2.05053E+03
  1.30627E+03 -1.20345E+03  2.09362E+03 -2.12282E+03  3.43615E+03 -1.18379E+03  3.65353E+03  6.76201E+02
  4.29827E+03  1.23089E+03  1.11169E+03  2.91096E+03 -1.49753E+03  2.40232E+03 -4.09581E+03  2.41591E+03
 -4.21162E+03 -1.03760E+03 -1.11268E+03 -2.78041E+03  3.94602E+02 -4.03256E+03  2.58026E+03 -4.62238E+03
  4.34636E+03 -2.80398E+03  6.01384E+03  2.00017E+02  4.44230E+03  3.50808E+03  1.18027E+03  5.20189E+03
 -1.81718E+03  5.08003E+03 -3.02980E+03  1.72364E+03 -1.69688E+03 -1.19959E+03 -2.87481E+02 -4.89906E+02
 -8.11435E+02  2.52765E+02 -7.27130E+02  1.81142E+03 -2.34654E+03  1.13234E+03 -3.49366E+03 -1.67552E+02
 -1.31833E+03 -3.58313E+03  8.43644E+02 -4.20941E+03  2.33812E+03 -3.74569E+03  2.82604E+03 -1.01465E+03
  3.17168E+03  2.14044E+03  1.56674E+03  2.84949E+03 -7.73026E+02  3.85528E+03 -2.04847E+03  2.30536E+03
 -3.07553E+03  5.29421E+02 -2.72773E+03 -1.96415E+03 -1.94408E+02 -2.50644E+03  1.27856E+03 -2.03623E+03
  2.23264E+03 -1.04099E+03  1.34131E+03  3.40463E+02  3.46034E+02  1.28734E+03  7.12404E+02  4.62332E+02
  1.62448E+03  6.14653E+02  8.70761E+02  8.46173E+02  9.12152E+02  1.80425E+03  1.36134E+03  1.30051E+03
 -1.16073E+03  2.12159E+03 -1.78328E+03  3.41033E+03 -2.03402E+03  1.37773E+03 -3.15891E+03  2.96760E+01
 -1.40146E+03 -2.77691E+03  6.50264E+02 -3.90147E+03  1.40041E+03 -1.96308E+03  2.45539E+03 -7.71278E+02
  1.92642E+03  1.57154E+03  2.62395E+02  1.90799E+03 -4.43371E+02  9.50632E+02 -9.18997E+02  1.70968E+02
 -4.97579E+02 -1.19713E+03  1.00085E+03 -1.10777E+03  1.01910E+03 -5.98689E+02  9.41341E+02  4.95855E+02
  6.48634E+02  4.82478E+01  9.83793E+02 -5.07374E+02 -3.70046E+02  7.30011E+02  1.37746E+03  3.96846E+00
 -2.70229E+02 -8.43500E+01  1.50488E+03  5.41978E+02  2.77155E+02  1.89249E+03 -1.15340E+02  2.21797E+03
 -1.34076E+03  4.75413E+02 -1.47163E+03  1.68130E+02 -1.50615E+03 -4.84720E+02 -1.43709E+01 -5.19136E+02
  5.19281E+02 -9.13063E+02  4.87456E+02 -4.21822E+02  5.39127E+02  1.28378E+03 -7.89070E+02  6.78853E+02
 -1.06902E+03  7.52247E+02 -6.65541E+02 -1.24653E+03 -5.19624E+02 -1.66290E+03  1.22883E+01 -1.07203E+03
  3.62310E+02 -3.03299E+02  3.36102E+02  4.65074E+02  8.68490E+02 -4.87838E+02  3.36005E+02  8.36653E+02
 -2.85028E+02  7.26244E+01 -6.62086E+02 -2.51154E+01  4.17207E+02 -3.38410E+02  1.39096E+03 -5.10085E+02
  4.25783E+02  3.55394E+02  2.21101E+03  1.80887E+02  1.03984E+03  1.06416E+03 -5.61224E+01  1.35019E+03
 -9.46296E+02 -1.42421E+02 -7.79835E+02 -2.10072E+02 -4.46619E+02 -1.12098E+03  1.92946E+02 -8.37863E+01
  9.29874E+02 -5.07131E+02  5.49232E+02  3.53610E+02 -1.87393E+02  9.96426E+02  4.51176E+02  9.86760E+02
 -2.18785E+02  1.04596E+03  1.01591E+02 -2.30462E+01  8.65305E+01  4.05668E+02 -7.16378E+02  3.98278E+02
 -3.67436E+02  8.91726E+02 -1.54150E+03  1.38583E+02 -1.24691E+03  1.75792E+02 -1.64647E+03 -5.55169E+02
 -7.51404E+02 -1.52697E+03  4.06152E+02 -1.89742E+03  6.13042E+02 -2.08348E+03  1.96277E+03 -5.60340E+02
  1.52696E+03  5.07833E+01  7.27135E+02  7.55579E+02 -5.29549E+02  8.40797E+02 -4.97519E+02  1.00089E+03
 -3.67045E+02  5.75644E+02 -4.86773E+02  1.90518E+01 -3.35183E+02  5.06145E+02 -8.55348E+02  3.03148E+02
 -1.19390E+03  8.35842E+01 -6.49631E+02 -3.53476E+01  1.61597E+02 -5.67883E+02 -4.85662E+02 -6.69479E+02
  1.17572E+03 -5.18191E+02  6.76265E+01  3.11732E+02  6.97738E+02  7.00432E+02 -5.11048E+02  7.45574E+02
 -6.49794E+02  1.62383E+03 -9.82371E+02  7.87438E+02 -1.14790E+03 -7.73073E+01 -7.94952E+02 -8.85302E+02
 -8.64614E+02 -5.67278E+02  2.03767E+02 -6.78965E+02  3.05908E+02 -2.17457E+02  4.25142E-01  1.29191E+02
  4.69311E+02  3.67171E+01  9.16738E+01  9.31217E+01 -1.13346E+02  2.38587E+02  7.51237E+01 -1.23890E+02
  3.82888E+02  2.36389E+02 -1.89740E+02  3.00935E+02  7.23974E+01  3.13037E+02  3.22414E+02  1.08584E+02
 -2.13687E+02  6.78295E+02 -3.80720E+02  5.20420E+01 -4.10280E+02 -1.40633E+02  1.21671E+02 -6.42478E+02
  1.37281E+02 -2.32623E+02  3.51254E+02  1.77302E+02  4.01021E+02 -7.83159E+02  1.44230E+02  5.32951E+02
  4.20289E+02  5.85669E+01 -1.28561E+02  1.38493E+02 -2.39115E+02  3.39803E+02 -4.56879E+02 -4.68895E+01
 -2.76250E+02  1.40812E+01 -3.04692E+02  1.78685E+01 -1.89792E+02  2.63544E+01 -4.99098E+02 -2.11583E+02
 -7.43172E+02  3.46685E+02 -4.90723E+02 -5.51028E+02  4.07398E+02 -1.41980E+03  3.89275E+02 -1.09616E+02
  2.69172E+02 -7.17269E+01 -5.02952E+02 -1.64008E+02 -3.33088E+02  4.75437E+02 -1.72373E+02  4.65222E+02
