 $NMID ID='MM_0lb_SNR800_13hz_g60_6.RAW', FMTDAT='(8E13.5)'
 TRAMP=1., VOLUME=1. $END
  3.10141E+05  2.85473E+02  3.37663E+05  2.50756E+05  8.47878E+04  3.38225E+05 -1.32551E+05  2.51076E+05
 -1.91126E+05  8.36662E+04 -1.12362E+05 -3.25290E+04  6.40695E+02 -5.08396E+04  5.37807E+04 -3.84190E+02
  3.60713E+04  5.30258E+04 -1.67009E+04  7.59043E+04 -6.10833E+04  6.39613E+04 -8.49813E+04  3.23660E+04
 -8.20917E+04 -1.15547E+04 -5.78448E+04 -5.21231E+04 -1.54486E+04 -7.04774E+04  2.79867E+04 -4.59454E+04
  4.04227E+04  3.73719E+03  1.64831E+04  4.80179E+04 -3.46802E+04  4.78013E+04 -6.76400E+04  1.98846E+02
 -5.42051E+04 -5.73119E+04 -7.52807E+03 -7.81681E+04  3.45396E+04 -5.64886E+04  4.89320E+04 -1.81851E+04
  4.43752E+04  1.13368E+04  3.22313E+04  2.59686E+04  1.58603E+04  3.00811E+04 -5.40049E+03  2.72603E+04
 -2.22046E+04  1.24634E+04 -1.83680E+04 -5.16011E+03  6.22813E+03 -7.25006E+03  2.29454E+04  1.31910E+04
  7.36201E+03  3.65439E+04 -3.31384E+04  3.62332E+04 -6.45977E+04  2.16623E+03 -5.81804E+04 -4.39813E+04
 -1.24847E+04 -6.46561E+04  4.09043E+04 -4.66579E+04  6.00255E+04 -2.41242E+03  3.56415E+04  3.34670E+04
 -5.38396E+03  3.79217E+04 -3.08056E+04  1.70767E+04 -3.19659E+04 -4.03061E+03 -1.81394E+04 -1.13076E+04
 -8.99434E+03 -1.42530E+04 -5.73704E+02 -1.89729E+04  8.13843E+03 -2.33640E+04  1.59322E+04 -1.27793E+04
  1.09089E+04  5.91990E+03 -9.59918E+03  1.28111E+04 -2.23322E+04 -5.83497E+03 -8.43429E+03 -3.57738E+04
  2.38829E+04 -4.46511E+04  5.02915E+04 -2.04383E+04  4.69235E+04  2.02995E+04  1.65215E+04  4.56300E+04
 -1.65257E+04  3.48817E+04 -2.63767E+04  2.02289E+03 -1.03376E+04 -2.86574E+04  2.14807E+04 -3.53507E+04
  4.30198E+04 -9.86456E+03  3.83305E+04  2.47980E+04  1.97612E+04  4.84173E+04 -8.18920E+03  5.32968E+04
 -3.33393E+04  3.58775E+04 -4.50435E+04  1.04941E+04 -4.53566E+04 -1.77539E+04 -2.49732E+04 -3.98273E+04
  7.69978E+03 -3.97489E+04  3.28600E+04 -1.58674E+04  3.08168E+04  1.10503E+04  4.57534E+03  2.02220E+04
 -1.33893E+04  9.07045E+03 -1.09603E+04 -7.96013E+03  5.54101E+03 -1.12428E+04  1.84844E+04  5.94365E+03
  1.37842E+04  2.23460E+04 -5.62747E+03  2.63989E+04 -2.30835E+04  1.27479E+04 -2.96791E+04 -3.85936E+03
 -2.29840E+04 -1.80065E+04 -1.00212E+04 -2.27049E+04  4.29762E+03 -2.27540E+04  1.78740E+04 -2.06300E+04
  2.90716E+04 -1.36272E+04  3.54477E+04  4.06632E+03  2.55163E+04  2.19279E+04  4.40544E+03  3.85639E+04
 -1.86621E+04  3.21897E+04 -2.90448E+04  1.10506E+04 -2.12912E+04 -1.01254E+04 -4.37935E+03 -1.32279E+04
  1.36948E+03 -1.87276E+03 -5.94553E+03  7.30425E+03 -1.79785E+04  4.92796E+03 -1.80133E+04 -8.22726E+03
 -1.09286E+04 -2.08172E+04  5.51084E+03 -2.53111E+04  1.67026E+04 -1.80611E+04  2.03711E+04 -1.55415E+03
  1.28962E+04  1.48846E+04 -8.97299E+02  2.09260E+04 -1.42407E+04  1.18522E+04 -2.10344E+04 -4.25884E+03
 -1.54466E+04 -1.90175E+04 -2.22368E+03 -2.52558E+04  1.16505E+04 -2.12003E+04  2.10800E+04 -1.06890E+04
  1.99005E+04  1.27185E+02  1.40343E+04  4.95905E+03  7.71436E+03  9.72020E+02  1.09249E+04 -1.83397E+03
  1.94552E+04  2.73261E+03  2.18744E+04  1.68438E+04  1.45770E+04  3.34875E+04 -2.89806E+03  3.84799E+04
 -2.24411E+04  3.16683E+04 -3.60709E+04  1.58938E+04 -3.82545E+04 -2.64960E+03 -3.13608E+04 -2.21081E+04
 -1.29318E+04 -3.15679E+04  1.10524E+04 -2.80412E+04  2.42002E+04 -1.39198E+04  2.14075E+04  6.31719E+03
  7.55579E+03  1.65093E+04 -1.01584E+04  1.38948E+04 -1.78068E+04  2.66490E+03 -1.37584E+04 -1.13957E+04
 -3.54889E+02 -1.67684E+04  8.83218E+03 -1.23930E+04  1.14734E+04 -1.46754E+03  2.65187E+03  7.55066E+03
 -7.78418E+03  2.80719E+03 -7.12919E+03 -6.29608E+03 -1.08682E+03 -1.55724E+04  1.03214E+04 -1.65296E+04
  1.92147E+04 -8.84156E+03  2.13643E+04  3.31953E+03  1.85137E+04  1.56318E+04  8.98108E+03  2.36529E+04
 -4.23462E+03  2.56229E+04 -1.65077E+04  1.61999E+04 -1.85645E+04  3.55281E+03 -1.27858E+04 -4.29701E+03
 -5.70832E+03 -5.84552E+03 -5.22106E+02  6.48891E+02 -2.60027E+03  3.02580E+03 -5.80945E+03  4.71659E+03
 -1.19236E+04 -1.01898E+03 -1.26171E+04 -1.01477E+04 -5.30994E+03 -1.66381E+04  5.35204E+03 -1.29979E+04
  1.08567E+04 -5.51499E+03  7.80903E+03  3.64862E+03  3.69805E+02  5.29223E+03 -6.19955E+03 -8.05842E+01
 -5.91171E+03 -8.08227E+03 -6.70606E+02 -1.26230E+04  7.03800E+03 -1.32943E+04  1.61800E+04 -7.02535E+03
  1.93013E+04  1.77874E+03  1.38926E+04  1.15933E+04  2.35759E+03  1.51677E+04 -8.07132E+03  1.31394E+04
 -1.09479E+04  3.66557E+03 -5.75875E+03 -2.67334E+03  1.87770E+03 -3.25557E+03  6.82117E+03 -1.12924E+03
  6.47638E+03  5.40945E+03  1.27952E+03  1.01906E+04 -7.16330E+03  1.00230E+04 -1.24412E+04  2.24945E+03
 -8.63088E+03 -6.35781E+03  4.18744E+02 -1.11178E+04  6.74111E+03 -5.51086E+03  7.04141E+03  2.45297E+03
  1.26400E+03  7.39199E+03 -6.41216E+03  8.66094E+03 -1.05456E+04  3.98887E+03 -1.05343E+04 -3.48882E+03
 -5.96125E+03 -1.19544E+04  2.62711E+03 -1.37908E+04  1.16086E+04 -8.12646E+03  1.28080E+04  2.38386E+03
  7.68575E+03  1.02131E+04 -7.18518E+02  1.24538E+04 -9.13679E+03  6.98611E+03 -9.91058E+03 -1.22945E+03
 -8.54804E+03 -8.01860E+03 -1.68257E+03 -8.93805E+03  4.85762E+03 -7.64465E+03  6.24636E+03 -3.16686E+03
  4.12973E+03  1.44927E+03 -1.00485E+03  1.48103E+03  1.09889E+02 -1.90957E+03  1.54416E+03 -4.98602E+03
  8.35368E+03 -3.34240E+03  1.16792E+04  1.02164E+03  1.16995E+04  7.74089E+03  8.27616E+03  1.48787E+04
 -3.38497E+03  1.73315E+04 -1.44178E+04  1.31252E+04 -1.91589E+04  2.36803E+03 -1.55083E+04 -6.40410E+03
 -8.15294E+03 -1.25590E+04 -4.52809E+02 -1.07760E+04  3.97609E+03 -5.49762E+03  3.52009E+03 -3.59023E+03
  2.58739E+03 -2.51543E+03  3.37811E+03 -3.20549E+03  4.54296E+03 -2.38108E+03  5.78031E+03 -7.68705E+02
  8.26159E+03  1.81721E+03  3.82142E+03  6.64722E+03 -2.29716E+03  7.47554E+03 -8.52158E+03  5.94508E+03
 -1.04282E+04 -1.30520E+03 -6.27909E+03 -7.13893E+03 -6.98445E+02 -1.07958E+04  6.14152E+03 -1.09093E+04
  1.13521E+04 -6.40998E+03  1.36388E+04  1.85427E+03  9.98102E+03  9.54380E+03  1.34839E+03  1.22176E+04
 -5.06576E+03  1.08138E+04 -7.45784E+03  3.21457E+03 -4.74199E+03 -1.15274E+03 -1.83513E+03 -1.48000E+03
 -8.73423E+02  1.97715E+02 -1.55704E+03  2.62721E+03 -4.18150E+03  1.64396E+03 -7.11279E+03 -1.12087E+03
 -4.54015E+03 -7.37000E+03  2.37696E+02 -1.02022E+04  6.19984E+03 -9.09923E+03  9.42808E+03 -2.47096E+03
  9.67733E+03  4.87874E+03  4.56396E+03  8.64082E+03 -2.03568E+03  1.01010E+04 -6.53457E+03  6.11639E+03
 -9.33319E+03  4.01639E+02 -7.38152E+03 -6.09821E+03 -7.70078E+02 -7.79233E+03  4.36199E+03 -6.03282E+03
  6.59079E+03 -2.03520E+03  4.13440E+03  1.53377E+03  1.42224E+03  3.12583E+03  1.17170E+03  1.59344E+03
  2.10884E+03  7.07385E+02  1.97049E+03  1.10421E+03  2.53016E+03  3.45260E+03  2.39658E+03  4.85350E+03
 -2.18931E+03  7.49694E+03 -6.42750E+03  8.03111E+03 -9.07177E+03  2.18441E+03 -9.99947E+03 -3.61636E+03
 -4.71834E+03 -9.23040E+03  1.38390E+03 -1.06248E+04  5.78332E+03 -6.65216E+03  7.85717E+03 -1.71025E+03
  6.02495E+03  3.66516E+03  1.52558E+03  5.62118E+03 -2.31935E+03  3.41535E+03 -3.65232E+03 -2.36538E+02
 -2.16445E+03 -4.42720E+03  2.38463E+03 -4.08008E+03  3.50970E+03 -2.02721E+03  3.98219E+03  1.12352E+03
  2.00041E+03  1.65460E+03  1.21626E+03  9.10150E+02 -6.29246E+02  1.55857E+03  1.92832E+03 -2.63932E+02
  1.22439E+03 -2.98950E+02  3.63000E+03  1.74406E+03  2.02925E+03  5.18011E+03 -9.19866E+02  6.87536E+03
 -4.32346E+03  3.75257E+03 -5.58808E+03  1.13180E+03 -5.23374E+03 -1.87910E+03 -1.80392E+03 -3.40773E+03
  8.41445E+02 -3.45539E+03  2.49675E+03 -1.85608E+03  1.76231E+03  1.90700E+03 -9.76470E+02  2.88772E+03
 -3.85700E+03  1.64538E+03 -3.75679E+03 -2.76180E+03 -2.38119E+03 -4.84207E+03  6.40724E+02 -4.82882E+03
  2.51199E+03 -3.00261E+03  3.23899E+03 -1.08488E+02  3.09965E+03  9.23210E+02  8.11249E+02  2.70326E+03
 -1.52348E+03  5.96827E+02 -2.34254E+03 -1.51881E+03  1.20808E+03 -3.52250E+03  4.37610E+03 -3.23164E+03
  5.19467E+03  6.66159E+02  5.98200E+03  3.17783E+03  2.00181E+03  5.24163E+03 -1.88057E+03  5.23206E+03
 -4.84259E+03  2.23211E+03 -4.51353E+03 -6.19202E+02 -2.17757E+03 -3.77834E+03  8.09895E+02 -2.95412E+03
  3.58905E+03 -1.81843E+03  2.86433E+03  1.56174E+03  1.04839E+03  3.37585E+03 -1.37634E+02  2.80974E+03
 -1.59994E+03  2.15368E+03 -1.29377E+03  5.80015E+02 -8.95309E+02  8.27426E+02 -1.04286E+03  1.26292E+03
 -1.38771E+03  2.23954E+03 -3.90606E+03  1.62033E+03 -5.34086E+03  3.50986E+01 -6.26839E+03 -3.53291E+03
 -3.41561E+03 -7.00437E+03  1.44937E+03 -8.16042E+03  4.65800E+03 -6.68400E+03  7.89799E+03 -2.68822E+03
  7.02686E+03  1.32845E+03  4.20282E+03  4.83931E+03  4.59666E+02  5.39233E+03 -2.01182E+03  4.13765E+03
 -2.86003E+03  1.76216E+03 -1.64609E+03 -2.27514E+02 -7.94762E+02 -2.58279E+02 -5.50191E+02 -5.69432E+01
 -1.31299E+03 -3.19498E+01 -1.27207E+03 -2.47865E+02 -9.21952E+01 -1.22466E+03 -2.88993E+02 -2.22467E+03
  2.78155E+03 -2.07341E+03  3.04027E+03  2.37039E+02  3.46869E+03  2.76618E+03  3.26036E+02  5.41197E+03
 -2.79576E+03  6.16922E+03 -5.55900E+03  3.41824E+03 -6.32404E+03 -3.80405E+02 -4.73308E+03 -3.84774E+03
 -2.42681E+03 -5.30610E+03  1.17400E+03 -4.43843E+03  3.09617E+03 -2.39803E+03  3.35861E+03  1.09964E+02
  1.81757E+03  1.22687E+03 -2.15630E+02  1.42589E+03 -9.85453E+02 -2.44579E+02 -1.92505E+02 -8.87060E+02
  1.59806E+03 -4.27703E+02  1.99354E+03  9.38713E+02  1.27014E+03  2.20419E+03  1.20351E+02  2.16731E+03
 -2.37458E+03  2.18026E+03 -3.21902E+03  2.85640E+02 -3.10721E+03 -1.88127E+03 -2.69076E+02 -4.17497E+03
  2.35903E+03 -3.21929E+03  3.18624E+03 -1.12334E+03  3.56890E+03  7.52793E+02  1.91748E+03  2.93744E+03
  6.15717E+02  2.97278E+03 -1.11343E+03  2.57466E+03 -1.90562E+03  1.70231E+03 -1.42022E+03  1.35194E+02
 -8.47692E+02  2.50735E+02 -8.14689E+02  3.47865E+02 -1.70207E+03  5.86986E+02 -2.41767E+03 -7.35588E+02
 -2.61220E+03 -1.49043E+03 -5.43384E+02 -3.42932E+03  1.73961E+03 -3.44055E+03  2.43801E+03 -1.31590E+03
  2.72133E+03  4.34685E+02  1.54076E+03  1.73398E+03 -2.79347E+02  3.21986E+03 -2.47155E+03  2.13966E+03
