 $NMID ID='MM_0lb_SNR800_13hz_g40_17.RAW', FMTDAT='(8E13.5)'
 TRAMP=1., VOLUME=1. $END
  3.09842E+05  2.67440E+02  3.37793E+05  2.50495E+05  8.43692E+04  3.37967E+05 -1.32336E+05  2.50897E+05
 -1.90588E+05  8.29944E+04 -1.11461E+05 -3.27355E+04  6.48723E+02 -5.06942E+04  5.38694E+04  2.67771E+01
  3.54514E+04  5.28465E+04 -1.69223E+04  7.56317E+04 -6.05364E+04  6.33989E+04 -8.37809E+04  3.23446E+04
 -8.08703E+04 -1.11870E+04 -5.73103E+04 -5.15337E+04 -1.51313E+04 -6.95328E+04  2.75594E+04 -4.55436E+04
  3.98100E+04  4.22459E+03  1.62422E+04  4.74789E+04 -3.43431E+04  4.71134E+04 -6.66847E+04 -3.00599E+02
 -5.36583E+04 -5.66934E+04 -6.87906E+03 -7.70179E+04  3.35551E+04 -5.49089E+04  4.77977E+04 -1.71332E+04
  4.35429E+04  1.12115E+04  3.16435E+04  2.54498E+04  1.57801E+04  2.93175E+04 -4.97289E+03  2.69965E+04
 -2.21138E+04  1.23158E+04 -1.87739E+04 -5.12757E+03  5.44517E+03 -7.30498E+03  2.23541E+04  1.24166E+04
  7.24931E+03  3.52656E+04 -3.19946E+04  3.54841E+04 -6.32661E+04  1.97018E+03 -5.70256E+04 -4.27616E+04
 -1.26152E+04 -6.32520E+04  3.95869E+04 -4.54276E+04  5.81134E+04 -2.01143E+03  3.44304E+04  3.22320E+04
 -6.50391E+03  3.55959E+04 -3.00294E+04  1.56688E+04 -3.04471E+04 -4.39934E+03 -1.68897E+04 -1.06355E+04
 -8.56383E+03 -1.32617E+04 -8.86244E+02 -1.79274E+04  7.54246E+03 -2.27603E+04  1.54428E+04 -1.36779E+04
  1.12862E+04  4.97582E+03 -7.97610E+03  1.31826E+04 -2.10533E+04 -4.51507E+03 -8.64607E+03 -3.36636E+04
  2.29186E+04 -4.33155E+04  4.82064E+04 -1.93257E+04  4.51025E+04  1.96198E+04  1.55499E+04  4.43392E+04
 -1.60139E+04  3.33576E+04 -2.52622E+04  1.84741E+03 -9.79367E+03 -2.75264E+04  2.09241E+04 -3.39573E+04
  4.07720E+04 -8.87928E+03  3.55215E+04  2.39713E+04  1.83750E+04  4.63774E+04 -8.06099E+03  5.04973E+04
 -3.16329E+04  3.37507E+04 -4.18870E+04  9.31694E+03 -4.25750E+04 -1.67363E+04 -2.35225E+04 -3.80070E+04
  7.56327E+03 -3.77330E+04  3.13130E+04 -1.48771E+04  2.91116E+04  1.10869E+04  4.00548E+03  1.89828E+04
 -1.34434E+04  8.21406E+03 -1.01108E+04 -7.67651E+03  5.91731E+03 -1.04124E+04  1.77449E+04  6.00886E+03
  1.39606E+04  2.21701E+04 -6.17422E+03  2.50633E+04 -2.23768E+04  1.14400E+04 -2.74501E+04 -5.09151E+03
 -2.04928E+04 -1.69684E+04 -8.55412E+03 -2.05042E+04  3.92270E+03 -1.97407E+04  1.55480E+04 -1.80908E+04
  2.63208E+04 -1.28424E+04  3.25855E+04  2.85534E+03  2.35794E+04  1.98665E+04  4.37143E+03  3.62882E+04
 -1.79918E+04  2.98941E+04 -2.76608E+04  1.02823E+04 -2.08201E+04 -1.05564E+04 -4.37413E+03 -1.37600E+04
  1.90807E+03 -2.72239E+03 -5.00686E+03  6.47167E+03 -1.64361E+04  4.94472E+03 -1.65749E+04 -7.00749E+03
 -1.02380E+04 -1.88026E+04  5.21953E+03 -2.30072E+04  1.54373E+04 -1.67570E+04  1.83641E+04 -1.53614E+03
  1.14659E+04  1.33288E+04 -6.71484E+02  1.91098E+04 -1.32173E+04  1.08229E+04 -1.90370E+04 -4.13291E+03
 -1.39666E+04 -1.72460E+04 -2.06349E+03 -2.31534E+04  1.04072E+04 -1.86393E+04  1.96164E+04 -9.20715E+03
  1.78174E+04  3.78235E+02  1.28212E+04  4.85390E+03  6.83896E+03  1.05313E+03  1.01529E+04 -1.69214E+03
  1.76192E+04  2.74671E+03  1.94034E+04  1.53008E+04  1.28139E+04  3.02259E+04 -2.86966E+03  3.44726E+04
 -1.98770E+04  2.77374E+04 -3.18641E+04  1.40300E+04 -3.37214E+04 -2.70846E+03 -2.81172E+04 -1.94181E+04
 -1.21353E+04 -2.78382E+04  9.83293E+03 -2.49592E+04  2.14257E+04 -1.29162E+04  1.93186E+04  5.68398E+03
  7.45309E+03  1.45161E+04 -9.22345E+03  1.30572E+04 -1.62764E+04  2.87634E+03 -1.25824E+04 -1.03097E+04
  9.92188E+01 -1.57803E+04  8.15878E+03 -1.19472E+04  1.02351E+04 -1.17312E+03  2.18247E+03  6.53602E+03
 -7.04238E+03  2.67755E+03 -6.16407E+03 -5.50147E+03 -4.56386E+02 -1.38181E+04  9.53104E+03 -1.37786E+04
  1.68917E+04 -7.61881E+03  1.83951E+04  3.04520E+03  1.59833E+04  1.36961E+04  7.16422E+03  2.08271E+04
 -3.37068E+03  2.26334E+04 -1.44249E+04  1.38186E+04 -1.58587E+04  3.67653E+03 -1.15434E+04 -3.92556E+03
 -5.53428E+03 -5.14292E+03 -8.05315E+02  1.07440E+03 -2.52329E+03  2.91189E+03 -5.42757E+03  4.35487E+03
 -1.04251E+04 -3.45742E+02 -1.11953E+04 -9.13117E+03 -4.62323E+03 -1.49957E+04  4.80024E+03 -1.13435E+04
  9.90097E+03 -4.80291E+03  6.88111E+03  2.88775E+03  1.43527E+02  4.36225E+03 -5.02077E+03  1.64256E+02
 -5.46822E+03 -7.10919E+03 -7.31622E+02 -1.06922E+04  6.22770E+03 -1.12313E+04  1.44338E+04 -5.98563E+03
  1.65935E+04  1.13042E+03  1.24797E+04  9.77358E+03  2.17172E+03  1.33839E+04 -7.27705E+03  1.11649E+04
 -9.61801E+03  3.54462E+03 -4.79791E+03 -2.17055E+03  1.70708E+03 -2.68668E+03  5.96928E+03 -1.26101E+03
  5.53151E+03  4.83079E+03  1.09278E+03  8.58429E+03 -6.75593E+03  8.70357E+03 -1.09450E+04  2.09343E+03
 -7.43218E+03 -5.63263E+03  1.19828E+02 -9.51824E+03  5.81613E+03 -4.88951E+03  6.09020E+03  2.20213E+03
  8.89826E+02  6.75270E+03 -6.13843E+03  7.71632E+03 -8.58069E+03  3.63882E+03 -8.52732E+03 -2.98344E+03
 -5.01447E+03 -1.03480E+04  2.53926E+03 -1.16660E+04  9.81211E+03 -7.26520E+03  1.08032E+04  1.92154E+03
  6.86372E+03  8.64017E+03 -5.49338E+02  1.06896E+04 -7.95802E+03  6.18521E+03 -8.25114E+03 -6.59183E+02
 -7.73064E+03 -7.76753E+03 -1.74532E+03 -8.34400E+03  4.13894E+03 -6.66392E+03  4.99579E+03 -3.31727E+03
  3.70979E+03  9.14229E+02 -3.84852E+02  1.46140E+03  2.68172E+02 -1.41336E+03  9.39127E+02 -4.14662E+03
  7.13273E+03 -2.55575E+03  1.00396E+04  1.16833E+03  9.65389E+03  6.50270E+03  7.10796E+03  1.29527E+04
 -2.95941E+03  1.49522E+04 -1.26021E+04  1.12189E+04 -1.66998E+04  2.20719E+03 -1.31829E+04 -5.22099E+03
 -6.72836E+03 -1.10483E+04 -5.21193E+02 -8.90785E+03  3.29338E+03 -4.69124E+03  3.28199E+03 -3.02990E+03
  2.06065E+03 -2.21763E+03  2.79744E+03 -2.69223E+03  4.47873E+03 -2.25719E+03  5.42015E+03 -3.95346E+02
  7.22132E+03  1.65090E+03  2.98124E+03  6.03868E+03 -1.81071E+03  6.38105E+03 -7.13704E+03  5.14934E+03
 -8.73753E+03 -1.22107E+03 -5.03059E+03 -6.09533E+03 -6.27131E+01 -9.45565E+03  5.46239E+03 -9.74526E+03
  1.01029E+04 -5.67099E+03  1.18663E+04  1.16522E+03  8.14752E+03  8.12207E+03  1.52582E+03  1.05729E+04
 -4.37858E+03  9.11358E+03 -6.14642E+03  3.17704E+03 -4.02897E+03 -1.31698E+03 -1.63926E+03 -1.07640E+03
 -6.99353E+02  2.01547E+02 -1.34766E+03  2.56447E+03 -4.05008E+03  1.42414E+03 -6.64861E+03 -8.70784E+02
 -3.58232E+03 -6.15031E+03  3.99376E+02 -8.48909E+03  5.37717E+03 -8.02557E+03  8.22715E+03 -2.45305E+03
  8.35962E+03  4.25728E+03  4.16558E+03  7.08521E+03 -1.53074E+03  8.59375E+03 -5.92121E+03  5.22008E+03
 -7.94364E+03  5.60616E+02 -5.98448E+03 -4.95948E+03 -6.26832E+02 -6.91515E+03  3.53010E+03 -5.59700E+03
  5.39426E+03 -1.89961E+03  3.41981E+03  1.19327E+03  9.32726E+02  2.62680E+03  9.92324E+02  8.99912E+02
  2.09862E+03  4.19150E+02  2.28195E+03  1.38855E+03  2.51786E+03  3.28644E+03  2.51304E+03  4.29810E+03
 -1.84936E+03  6.56170E+03 -5.34397E+03  6.88158E+03 -7.86762E+03  1.93675E+03 -8.56072E+03 -2.60077E+03
 -4.10723E+03 -7.97157E+03  1.16506E+03 -9.48170E+03  4.90723E+03 -5.87630E+03  6.73649E+03 -1.44527E+03
  5.22283E+03  2.94067E+03  1.24405E+03  4.86495E+03 -2.26559E+03  2.83547E+03 -3.07886E+03 -2.13334E+02
 -1.55412E+03 -3.72757E+03  2.18601E+03 -3.44508E+03  3.46978E+03 -1.88210E+03  3.21022E+03  7.20819E+02
  1.83138E+03  1.36944E+03  1.01099E+03  8.77558E+02 -2.68123E+02  1.11551E+03  1.72088E+03 -3.11026E+02
  9.70165E+02 -3.65993E+02  3.32395E+03  1.05203E+03  1.89838E+03  4.50252E+03 -6.97326E+02  5.71368E+03
 -3.88146E+03  3.63634E+03 -4.86825E+03  1.15724E+03 -4.29478E+03 -1.67106E+03 -1.21062E+03 -3.20202E+03
  5.99712E+02 -3.27412E+03  2.33732E+03 -1.77638E+03  1.71506E+03  2.07776E+03 -1.01341E+03  2.62888E+03
 -3.08676E+03  1.62216E+03 -3.58595E+03 -1.83152E+03 -2.20412E+03 -4.52248E+03  3.94300E+02 -4.12741E+03
  2.28592E+03 -2.36679E+03  2.74847E+03 -3.97444E+02  2.95779E+03  8.12429E+02  5.21895E+02  2.51758E+03
 -1.12411E+03  5.02385E+02 -2.17681E+03 -1.28993E+03  1.00892E+03 -2.91536E+03  3.90492E+03 -2.58138E+03
  4.18593E+03  4.85238E+02  5.23729E+03  2.85743E+03  1.66001E+03  5.00125E+03 -1.43674E+03  4.97109E+03
 -4.20427E+03  1.54045E+03 -4.08105E+03 -7.05436E+02 -2.27422E+03 -3.38935E+03  3.66114E+02 -2.51219E+03
  3.11278E+03 -1.61893E+03  2.60144E+03  1.49513E+03  8.87983E+02  2.63757E+03 -5.89137E+02  2.43241E+03
 -1.32871E+03  1.76993E+03 -1.50760E+03  2.64616E+02 -5.53521E+02  6.02066E+02 -7.95911E+02  8.97106E+02
 -1.41037E+03  1.78405E+03 -3.85805E+03  1.64770E+03 -4.48261E+03  3.16358E+02 -5.59201E+03 -2.85024E+03
 -2.77784E+03 -6.11869E+03  1.21870E+03 -7.28416E+03  4.12757E+03 -5.90116E+03  7.29513E+03 -2.44811E+03
  6.59275E+03  1.06690E+03  3.76717E+03  4.10372E+03 -1.49265E+02  4.64068E+03 -1.90571E+03  3.68196E+03
 -2.88077E+03  1.65435E+03 -1.84514E+03 -3.55517E+02 -5.78938E+02 -1.95985E+02 -6.14627E+02  4.00702E+01
 -1.23484E+03  1.51441E+01 -1.51635E+03 -1.45549E+02  5.09438E+01 -1.05957E+03 -1.29259E+02 -1.84028E+03
  2.76503E+03 -1.40245E+03  2.53098E+03  4.38070E+02  3.28359E+03  2.77945E+03  4.27223E+02  4.34640E+03
 -2.49740E+03  5.71753E+03 -5.04203E+03  3.42234E+03 -5.53703E+03 -4.61549E+02 -3.84391E+03 -3.96087E+03
 -2.15888E+03 -4.54622E+03  9.71053E+02 -4.05267E+03  2.83593E+03 -2.16799E+03  2.99052E+03  2.81272E+02
  2.06255E+03  1.25110E+03 -1.78129E+02  1.36535E+03 -6.94907E+02  1.02560E+02 -1.19054E+02 -1.06499E+03
  1.10978E+03 -3.73947E+02  1.63133E+03  7.63820E+02  1.13773E+03  1.62479E+03  3.80777E+02  2.21230E+03
 -1.88221E+03  1.86455E+03 -2.59690E+03  2.39698E+02 -2.57692E+03 -2.06591E+03 -2.66047E+02 -3.86320E+03
  2.01878E+03 -3.15954E+03  2.98400E+03 -7.92797E+02  3.38373E+03  1.84815E+02  2.02168E+03  2.73842E+03
  6.32397E+02  2.43971E+03 -1.26469E+03  2.36874E+03 -1.85591E+03  1.65310E+03 -1.37739E+03  1.61358E+02
 -9.31830E+02 -1.25888E+02 -9.67377E+02  7.50268E+02 -1.75544E+03  5.91231E+02 -2.16705E+03 -7.09216E+02
 -2.80816E+03 -1.34824E+03 -7.95314E+02 -2.63856E+03  1.22043E+03 -3.85643E+03  2.77830E+03 -1.27920E+03
  3.14439E+03  1.63395E+02  1.26366E+03  1.84180E+03 -6.87585E+01  2.81805E+03 -2.03465E+03  1.78451E+03
