 $NMID ID='MM_0lb_SNR800_11hz_g40_8.RAW', FMTDAT='(8E13.5)'
 TRAMP=1., VOLUME=1. $END
  3.09848E+05  2.61633E+02  3.37681E+05  2.50826E+05  8.45506E+04  3.38088E+05 -1.33121E+05  2.51362E+05
 -1.90481E+05  8.29982E+04 -1.11588E+05 -3.24863E+04  3.26724E+02 -5.06049E+04  5.35477E+04 -6.34795E+02
  3.52718E+04  5.26428E+04 -1.68214E+04  7.58456E+04 -6.09452E+04  6.40401E+04 -8.50044E+04  3.22751E+04
 -8.14978E+04 -1.15958E+04 -5.72737E+04 -5.19493E+04 -1.48620E+04 -7.04491E+04  2.79592E+04 -4.62000E+04
  4.05256E+04  4.13044E+03  1.65043E+04  4.81579E+04 -3.43412E+04  4.73391E+04 -6.73112E+04 -2.60309E+02
 -5.36412E+04 -5.71977E+04 -6.74868E+03 -7.76745E+04  3.41764E+04 -5.55775E+04  4.82634E+04 -1.77121E+04
  4.39202E+04  1.11906E+04  3.23254E+04  2.58816E+04  1.57981E+04  2.98674E+04 -5.36623E+03  2.75274E+04
 -2.22488E+04  1.22610E+04 -1.89096E+04 -5.39283E+03  5.78223E+03 -7.37597E+03  2.26674E+04  1.25794E+04
  7.07518E+03  3.59158E+04 -3.26616E+04  3.62890E+04 -6.43649E+04  1.97090E+03 -5.75196E+04 -4.33887E+04
 -1.25119E+04 -6.41878E+04  4.01977E+04 -4.60512E+04  5.93280E+04 -2.34536E+03  3.56039E+04  3.28920E+04
 -6.12776E+03  3.72886E+04 -3.12884E+04  1.70012E+04 -3.11803E+04 -4.23462E+03 -1.78744E+04 -1.14976E+04
 -8.79345E+03 -1.37710E+04 -1.34261E+03 -1.88732E+04  7.78429E+03 -2.30051E+04  1.57809E+04 -1.31111E+04
  1.12113E+04  5.50116E+03 -9.15906E+03  1.30451E+04 -2.22789E+04 -5.12199E+03 -8.72523E+03 -3.52434E+04
  2.35947E+04 -4.48568E+04  4.95958E+04 -2.03233E+04  4.64095E+04  1.98052E+04  1.61684E+04  4.54439E+04
 -1.62255E+04  3.45603E+04 -2.62455E+04  2.32356E+03 -1.02717E+04 -2.86164E+04  2.12302E+04 -3.52833E+04
  4.23892E+04 -9.77008E+03  3.75671E+04  2.44358E+04  1.93440E+04  4.81444E+04 -8.36443E+03  5.24764E+04
 -3.32431E+04  3.53489E+04 -4.39809E+04  9.97071E+03 -4.44937E+04 -1.72780E+04 -2.44899E+04 -3.93875E+04
  7.40014E+03 -3.95116E+04  3.27433E+04 -1.58557E+04  3.00577E+04  1.09383E+04  4.51759E+03  1.99543E+04
 -1.38185E+04  8.80382E+03 -1.06740E+04 -7.27243E+03  6.04013E+03 -1.07646E+04  1.84778E+04  6.01466E+03
  1.40841E+04  2.22091E+04 -5.62407E+03  2.58561E+04 -2.27363E+04  1.28294E+04 -2.91966E+04 -4.09817E+03
 -2.24444E+04 -1.77778E+04 -9.59456E+03 -2.21077E+04  4.27063E+03 -2.18742E+04  1.74054E+04 -2.02917E+04
  2.83187E+04 -1.34056E+04  3.47631E+04  3.54076E+03  2.50180E+04  2.18464E+04  4.48120E+03  3.83657E+04
 -1.88331E+04  3.15975E+04 -2.88902E+04  1.10342E+04 -2.15449E+04 -1.02184E+04 -4.31244E+03 -1.33167E+04
  1.21664E+03 -2.20482E+03 -5.87866E+03  7.12120E+03 -1.78652E+04  5.03281E+03 -1.77813E+04 -8.24827E+03
 -1.07384E+04 -2.03863E+04  5.64879E+03 -2.50943E+04  1.67557E+04 -1.76867E+04  1.99939E+04 -1.70512E+03
  1.24387E+04  1.46843E+04 -1.27741E+03  2.06892E+04 -1.46411E+04  1.18118E+04 -2.09359E+04 -4.14365E+03
 -1.54913E+04 -1.87346E+04 -2.07212E+03 -2.52415E+04  1.11405E+04 -2.05640E+04  2.06670E+04 -1.05353E+04
  1.96496E+04  1.67472E+02  1.42526E+04  4.37969E+03  7.35783E+03  9.77663E+02  1.05040E+04 -2.19723E+03
  1.96050E+04  2.78426E+03  2.19779E+04  1.64350E+04  1.46831E+04  3.32009E+04 -2.84618E+03  3.85284E+04
 -2.20193E+04  3.12105E+04 -3.61765E+04  1.59568E+04 -3.82042E+04 -2.62751E+03 -3.11413E+04 -2.18457E+04
 -1.30838E+04 -3.15004E+04  1.09892E+04 -2.77900E+04  2.38761E+04 -1.37055E+04  2.12688E+04  6.08273E+03
  7.76351E+03  1.61472E+04 -9.88264E+03  1.36801E+04 -1.78364E+04  2.47746E+03 -1.37588E+04 -1.13530E+04
  7.81342E+01 -1.69801E+04  8.92442E+03 -1.27072E+04  1.14558E+04 -1.25597E+03  2.68319E+03  7.39771E+03
 -7.59560E+03  3.05438E+03 -7.28960E+03 -5.94963E+03 -1.32578E+03 -1.56038E+04  1.06411E+04 -1.64821E+04
  1.90513E+04 -8.90515E+03  2.12572E+04  3.00124E+03  1.83668E+04  1.52535E+04  8.65896E+03  2.40230E+04
 -4.36806E+03  2.58027E+04 -1.70404E+04  1.62349E+04 -1.85783E+04  3.41089E+03 -1.30334E+04 -4.16347E+03
 -5.87070E+03 -5.81490E+03 -1.03010E+03  8.73348E+02 -2.84315E+03  3.01977E+03 -6.20506E+03  4.91876E+03
 -1.22508E+04 -8.44736E+02 -1.24811E+04 -1.01390E+04 -5.35494E+03 -1.66742E+04  5.33691E+03 -1.28318E+04
  1.11722E+04 -5.62499E+03  7.58447E+03  3.34595E+03 -8.33976E+01  5.11578E+03 -6.35593E+03 -4.47803E+02
 -6.15230E+03 -8.16920E+03 -5.17113E+02 -1.24886E+04  7.19507E+03 -1.35044E+04  1.65349E+04 -7.25589E+03
  1.93799E+04  1.97107E+03  1.40797E+04  1.14979E+04  2.85941E+03  1.52734E+04 -7.95440E+03  1.29968E+04
 -1.07984E+04  4.18903E+03 -5.40971E+03 -2.77517E+03  1.89235E+03 -3.93841E+03  7.26833E+03 -7.19795E+02
  6.04707E+03  5.94741E+03  1.01271E+03  1.03185E+04 -7.82446E+03  9.74189E+03 -1.27322E+04  2.48469E+03
 -8.49549E+03 -6.86531E+03  7.10959E+02 -1.12853E+04  6.94842E+03 -5.75792E+03  6.99223E+03  2.58803E+03
  1.77941E+03  7.82210E+03 -6.65271E+03  9.08023E+03 -1.06428E+04  4.10145E+03 -1.04312E+04 -3.68193E+03
 -5.96951E+03 -1.23423E+04  3.23562E+03 -1.43568E+04  1.20914E+04 -8.80128E+03  1.32777E+04  2.33132E+03
  8.28228E+03  1.03048E+04 -6.81326E+02  1.27292E+04 -9.32928E+03  7.07651E+03 -1.02091E+04 -9.37291E+02
 -8.67943E+03 -8.78104E+03 -1.55068E+03 -9.26050E+03  5.26426E+03 -8.03009E+03  6.21124E+03 -3.47902E+03
  4.42147E+03  1.70048E+03 -8.97411E+02  1.64217E+03 -4.41023E+02 -2.11506E+03  2.16259E+03 -5.41909E+03
  8.46606E+03 -2.99418E+03  1.24588E+04  1.61243E+03  1.17551E+04  8.30587E+03  8.46697E+03  1.58096E+04
 -3.96005E+03  1.82911E+04 -1.55485E+04  1.36091E+04 -2.02003E+04  3.01411E+03 -1.60673E+04 -6.83367E+03
 -8.11057E+03 -1.31102E+04 -4.17948E+02 -1.12220E+04  4.02435E+03 -6.18312E+03  3.76423E+03 -4.34075E+03
  3.06439E+03 -3.00160E+03  3.28417E+03 -3.40627E+03  5.06416E+03 -2.91162E+03  6.52290E+03 -8.64854E+02
  8.55725E+03  1.77260E+03  4.39426E+03  7.35103E+03 -1.98916E+03  8.54679E+03 -8.76157E+03  6.44350E+03
 -1.12610E+04 -1.17175E+03 -6.51792E+03 -7.60224E+03 -5.97718E+02 -1.20931E+04  6.83417E+03 -1.23317E+04
  1.23500E+04 -6.76312E+03  1.50599E+04  1.94229E+03  1.02541E+04  1.06049E+04  1.87668E+03  1.32383E+04
 -5.27205E+03  1.11766E+04 -8.03689E+03  4.17779E+03 -5.17952E+03 -1.32232E+03 -2.18119E+03 -1.43708E+03
 -6.31945E+02  3.14487E+02 -1.68034E+03  2.32826E+03 -4.76513E+03  2.07815E+03 -7.83715E+03 -1.11658E+03
 -5.28290E+03 -7.94540E+03  4.42579E+02 -1.09208E+04  7.07885E+03 -9.81080E+03  1.03706E+04 -3.39723E+03
  1.07766E+04  5.27282E+03  5.19196E+03  9.44150E+03 -2.01379E+03  1.09571E+04 -7.75083E+03  6.65998E+03
 -1.02607E+04  6.82596E+02 -8.19814E+03 -6.58356E+03 -1.00890E+03 -8.75201E+03  4.89945E+03 -6.81147E+03
  6.78389E+03 -2.63198E+03  4.74048E+03  1.93861E+03  1.54721E+03  3.35911E+03  1.30245E+03  1.47202E+03
  2.29552E+03  7.18563E+02  2.52080E+03  1.63810E+03  2.99184E+03  4.04028E+03  2.81783E+03  5.35728E+03
 -2.50091E+03  8.44302E+03 -7.78241E+03  9.07792E+03 -1.06157E+04  2.21866E+03 -1.13079E+04 -4.23409E+03
 -5.42853E+03 -1.08171E+04  1.63915E+03 -1.23008E+04  6.54575E+03 -7.80127E+03  8.84642E+03 -2.10969E+03
  7.05903E+03  3.91535E+03  2.09310E+03  6.40438E+03 -2.80966E+03  4.11156E+03 -4.01732E+03 -6.76508E+02
 -2.06577E+03 -4.31142E+03  2.80420E+03 -4.96029E+03  4.22278E+03 -2.21435E+03  4.46663E+03  9.08052E+02
  2.41003E+03  2.24159E+03  1.21026E+03  1.30752E+03 -6.36196E+02  1.58809E+03  1.37564E+03 -3.29755E+02
  1.67023E+03 -7.07311E+02  4.37882E+03  1.64950E+03  2.09059E+03  5.84774E+03 -1.29826E+03  7.68973E+03
 -5.10691E+03  4.18788E+03 -6.97692E+03  1.26202E+03 -6.19217E+03 -2.54597E+03 -2.06674E+03 -3.94839E+03
  8.51884E+02 -4.06395E+03  2.87200E+03 -2.01845E+03  2.04640E+03  2.18154E+03 -1.01211E+03  3.40009E+03
 -4.43821E+03  1.94336E+03 -4.83820E+03 -2.52175E+03 -2.67845E+03 -5.81638E+03  9.75413E+02 -5.75799E+03
  3.16810E+03 -3.39824E+03  4.07096E+03 -7.32277E+02  3.57399E+03  1.35812E+03  8.63117E+02  3.17514E+03
 -2.06526E+03  1.16531E+03 -2.62427E+03 -2.05863E+03  1.23911E+03 -4.41123E+03  5.17021E+03 -3.38289E+03
  6.53513E+03  5.17180E+02  7.20853E+03  4.46912E+03  2.43471E+03  7.10322E+03 -2.16572E+03  6.61079E+03
 -5.16655E+03  2.18103E+03 -5.77924E+03 -8.38643E+02 -3.01186E+03 -4.30089E+03  9.97093E+02 -4.07800E+03
  4.53503E+03 -2.14877E+03  3.26982E+03  1.91158E+03  9.86973E+02  3.78839E+03 -7.87718E+02  3.53461E+03
 -1.92467E+03  2.33318E+03 -1.45615E+03  1.03321E+03 -6.72400E+02  6.50231E+02 -9.94940E+02  1.31955E+03
 -1.55394E+03  2.97833E+03 -4.85618E+03  2.09089E+03 -6.94561E+03  1.56785E+02 -7.72934E+03 -4.55020E+03
 -3.68427E+03 -8.81931E+03  1.74836E+03 -1.03685E+04  6.03863E+03 -8.31654E+03  9.66769E+03 -3.20536E+03
  8.94322E+03  1.57022E+03  5.44428E+03  6.24430E+03  2.31340E+02  6.78742E+03 -2.77016E+03  4.87493E+03
 -3.95284E+03  2.11932E+03 -2.23005E+03 -7.14549E+02 -8.92574E+02 -3.57920E+02 -6.91661E+02  1.98722E+02
 -1.67853E+03  3.20024E+02 -1.55105E+03 -1.13381E+02 -3.28878E+02 -1.62828E+03 -3.53583E+02 -2.57843E+03
  3.29849E+03 -2.38797E+03  4.30296E+03  1.49114E+02  4.97303E+03  3.95932E+03  9.69326E+02  7.03534E+03
 -3.41215E+03  8.10959E+03 -7.13558E+03  4.56659E+03 -8.01972E+03 -8.28846E+02 -6.26075E+03 -5.01661E+03
 -2.89649E+03 -7.02071E+03  2.10243E+03 -6.68697E+03  4.26786E+03 -3.69332E+03  4.41045E+03 -7.35256E+01
  2.53116E+03  2.26908E+03 -5.52111E+02  2.24113E+03 -1.56451E+03 -4.65950E+02  3.11934E+01 -1.27043E+03
  1.93565E+03 -7.74078E+02  2.31226E+03  1.22687E+03  1.25440E+03  2.81149E+03  3.91375E+02  3.25453E+03
 -3.20328E+03  3.12236E+03 -4.05944E+03  4.39645E+02 -3.96596E+03 -3.11884E+03 -3.10038E+02 -5.42580E+03
  3.01231E+03 -4.88342E+03  5.14423E+03 -1.31829E+03  5.25628E+03  9.65480E+02  2.97049E+03  4.35849E+03
  5.41903E+02  4.33177E+03 -1.85220E+03  3.85907E+03 -2.74242E+03  2.40143E+03 -2.22909E+03  4.56790E+02
 -1.56636E+03 -2.66615E+02 -1.28915E+03  7.30159E+02 -2.20038E+03  1.02320E+03 -3.53718E+03 -5.77167E+02
 -3.28189E+03 -2.03458E+03 -1.11936E+03 -4.49009E+03  2.47816E+03 -4.92928E+03  3.94176E+03 -2.04211E+03
  4.25966E+03  7.20257E+02  2.01923E+03  2.76874E+03 -2.44573E+01  4.48225E+03 -3.27544E+03  2.89655E+03
