 $NMID ID='MM_0lb_SNR800_12hz_g55_97.RAW', FMTDAT='(8E13.5)'
 TRAMP=1., VOLUME=1. $END
  3.09533E+05  1.43668E+02  3.37884E+05  2.50681E+05  8.47585E+04  3.38331E+05 -1.32762E+05  2.51707E+05
 -1.90684E+05  8.30705E+04 -1.12158E+05 -3.25873E+04  4.45503E+02 -5.05443E+04  5.39703E+04  1.05167E+02
  3.52889E+04  5.30947E+04 -1.71304E+04  7.56503E+04 -6.12210E+04  6.37522E+04 -8.46319E+04  3.22305E+04
 -8.22534E+04 -1.16744E+04 -5.78771E+04 -5.17587E+04 -1.53472E+04 -7.06244E+04  2.80255E+04 -4.67016E+04
  4.05954E+04  3.73611E+03  1.62392E+04  4.83151E+04 -3.46550E+04  4.78931E+04 -6.77319E+04 -2.68228E+02
 -5.43390E+04 -5.76190E+04 -7.02202E+03 -7.83851E+04  3.45855E+04 -5.64041E+04  4.93944E+04 -1.82420E+04
  4.44967E+04  1.15058E+04  3.25239E+04  2.60327E+04  1.60827E+04  3.02379E+04 -5.56811E+03  2.77508E+04
 -2.22245E+04  1.20914E+04 -1.82695E+04 -5.31287E+03  6.40370E+03 -7.27469E+03  2.32747E+04  1.31470E+04
  6.99576E+03  3.65429E+04 -3.32767E+04  3.65073E+04 -6.45988E+04  2.58123E+03 -5.78747E+04 -4.39893E+04
 -1.27626E+04 -6.46443E+04  4.04978E+04 -4.62548E+04  6.00275E+04 -2.32486E+03  3.58434E+04  3.35822E+04
 -5.57033E+03  3.82139E+04 -3.09679E+04  1.71888E+04 -3.17447E+04 -4.00613E+03 -1.80955E+04 -1.13950E+04
 -9.08659E+03 -1.45084E+04 -5.99347E+02 -1.90474E+04  7.72662E+03 -2.34504E+04  1.58801E+04 -1.25868E+04
  1.10902E+04  5.76998E+03 -9.52580E+03  1.29431E+04 -2.23494E+04 -5.72273E+03 -8.34410E+03 -3.59270E+04
  2.41117E+04 -4.53689E+04  5.04345E+04 -2.04345E+04  4.67213E+04  2.00208E+04  1.69648E+04  4.57232E+04
 -1.62007E+04  3.47953E+04 -2.64796E+04  2.25866E+03 -1.08959E+04 -2.87989E+04  2.10069E+04 -3.57054E+04
  4.28397E+04 -9.98325E+03  3.80498E+04  2.42851E+04  1.96540E+04  4.88409E+04 -7.92206E+03  5.35068E+04
 -3.38485E+04  3.62509E+04 -4.51624E+04  1.01453E+04 -4.54695E+04 -1.74560E+04 -2.48551E+04 -4.06174E+04
  7.43148E+03 -4.02134E+04  3.28047E+04 -1.62828E+04  3.07818E+04  1.08196E+04  4.68058E+03  1.95174E+04
 -1.35321E+04  9.49211E+03 -1.06848E+04 -7.81529E+03  5.77363E+03 -1.13632E+04  1.83840E+04  5.61002E+03
  1.41623E+04  2.23723E+04 -5.43168E+03  2.58871E+04 -2.28217E+04  1.33043E+04 -2.98733E+04 -3.53935E+03
 -2.31386E+04 -1.80616E+04 -1.02119E+04 -2.30734E+04  4.27758E+03 -2.25417E+04  1.78837E+04 -2.10516E+04
  2.91801E+04 -1.36560E+04  3.54434E+04  3.82753E+03  2.55287E+04  2.23921E+04  4.14846E+03  3.90353E+04
 -1.89228E+04  3.20935E+04 -2.93917E+04  1.11000E+04 -2.18137E+04 -1.01693E+04 -4.93236E+03 -1.31224E+04
  1.02774E+03 -2.12327E+03 -6.04330E+03  7.54717E+03 -1.77377E+04  5.54728E+03 -1.82845E+04 -8.33289E+03
 -1.06552E+04 -2.15125E+04  5.41267E+03 -2.52296E+04  1.69898E+04 -1.80932E+04  2.04522E+04 -1.65960E+03
  1.28424E+04  1.47351E+04 -1.04210E+03  2.13912E+04 -1.47232E+04  1.19521E+04 -2.13299E+04 -4.39122E+03
 -1.60853E+04 -1.89104E+04 -2.21330E+03 -2.52874E+04  1.15646E+04 -2.09635E+04  2.12330E+04 -1.06494E+04
  2.00592E+04  1.16770E+02  1.45048E+04  4.53404E+03  8.02705E+03  1.31170E+03  1.07023E+04 -1.58811E+03
  1.93582E+04  2.93508E+03  2.23923E+04  1.67965E+04  1.51797E+04  3.41185E+04 -3.26538E+03  3.91137E+04
 -2.24615E+04  3.18650E+04 -3.66848E+04  1.64861E+04 -3.89498E+04 -3.12910E+03 -3.17199E+04 -2.28346E+04
 -1.33290E+04 -3.22477E+04  1.12914E+04 -2.87980E+04  2.45041E+04 -1.39763E+04  2.19233E+04  6.93194E+03
  7.80498E+03  1.64935E+04 -1.02822E+04  1.41438E+04 -1.80376E+04  2.89175E+03 -1.40417E+04 -1.16340E+04
 -4.17688E+02 -1.71934E+04  8.89644E+03 -1.28952E+04  1.14022E+04 -1.41807E+03  3.03090E+03  7.59208E+03
 -7.89522E+03  3.66760E+03 -7.84502E+03 -6.33888E+03 -9.44208E+02 -1.53717E+04  1.10470E+04 -1.66439E+04
  1.99114E+04 -9.17081E+03  2.16784E+04  3.31395E+03  1.96817E+04  1.60353E+04  8.67833E+03  2.42393E+04
 -4.36260E+03  2.62662E+04 -1.70084E+04  1.65075E+04 -1.91750E+04  3.37405E+03 -1.33982E+04 -4.68277E+03
 -5.90095E+03 -5.74455E+03 -8.40341E+02  8.57097E+02 -2.68582E+03  2.96103E+03 -6.02746E+03  4.83589E+03
 -1.22361E+04 -7.54212E+02 -1.32927E+04 -1.04613E+04 -5.13239E+03 -1.72052E+04  5.55837E+03 -1.30868E+04
  1.08720E+04 -5.60570E+03  7.77034E+03  3.42091E+03  5.70707E+01  5.21608E+03 -6.53619E+03 -4.06351E+01
 -6.19849E+03 -9.00324E+03 -1.13499E+03 -1.29632E+04  6.97882E+03 -1.38321E+04  1.66752E+04 -6.93923E+03
  1.96128E+04  1.94946E+03  1.43137E+04  1.14842E+04  2.89950E+03  1.57251E+04 -8.29317E+03  1.32374E+04
 -1.10298E+04  3.90600E+03 -5.32434E+03 -2.61276E+03  2.20385E+03 -3.42571E+03  7.54254E+03 -1.16709E+03
  6.24700E+03  5.87103E+03  9.50392E+02  1.05511E+04 -7.55721E+03  1.05296E+04 -1.31759E+04  2.46423E+03
 -8.77286E+03 -6.90690E+03  1.45287E+02 -1.10896E+04  6.93173E+03 -5.88221E+03  7.53419E+03  2.83208E+03
  1.59302E+03  7.64441E+03 -6.90371E+03  9.31973E+03 -1.06646E+04  4.02626E+03 -1.07729E+04 -3.84398E+03
 -6.01009E+03 -1.26921E+04  3.00176E+03 -1.43461E+04  1.23254E+04 -8.69913E+03  1.32090E+04  2.41951E+03
  8.32436E+03  1.04902E+04 -8.59840E+02  1.23870E+04 -9.63259E+03  7.23913E+03 -1.00745E+04 -1.16456E+03
 -9.14001E+03 -8.60364E+03 -1.83449E+03 -9.56231E+03  5.02859E+03 -7.83549E+03  6.08019E+03 -3.47474E+03
  3.98243E+03  1.35708E+03 -7.06418E+02  1.62853E+03 -6.21484E+02 -2.06179E+03  1.76210E+03 -5.60833E+03
  8.61262E+03 -3.30127E+03  1.22720E+04  1.18305E+03  1.22287E+04  8.26826E+03  8.26675E+03  1.55653E+04
 -3.64934E+03  1.82584E+04 -1.56789E+04  1.32758E+04 -2.01002E+04  2.55556E+03 -1.60875E+04 -6.99857E+03
 -8.58068E+03 -1.33352E+04 -3.97059E+02 -1.13880E+04  3.92932E+03 -5.93262E+03  3.55323E+03 -4.24689E+03
  2.39345E+03 -2.49526E+03  3.17414E+03 -3.38772E+03  4.94210E+03 -2.92057E+03  6.43294E+03 -5.86803E+02
  8.42733E+03  2.13385E+03  4.00542E+03  7.18952E+03 -2.23619E+03  8.08370E+03 -8.81799E+03  6.50820E+03
 -1.13220E+04 -8.77177E+02 -6.49724E+03 -7.62033E+03 -7.77590E+02 -1.18063E+04  6.80959E+03 -1.19088E+04
  1.23586E+04 -7.00862E+03  1.45623E+04  1.91848E+03  1.03290E+04  9.85197E+03  1.42691E+03  1.33674E+04
 -5.66768E+03  1.12013E+04 -8.02847E+03  3.74856E+03 -5.29524E+03 -1.52439E+03 -2.13119E+03 -1.61015E+03
 -1.14394E+03  8.22643E+01 -1.90966E+03  2.44015E+03 -4.76605E+03  1.78854E+03 -8.21679E+03 -8.47658E+02
 -5.27165E+03 -7.77292E+03 -3.16197E+01 -1.09109E+04  6.33831E+03 -9.92418E+03  1.02439E+04 -2.90623E+03
  1.08586E+04  5.27562E+03  4.68885E+03  9.20325E+03 -2.42077E+03  1.09487E+04 -7.25122E+03  6.69008E+03
 -9.72694E+03  6.03539E+02 -7.91297E+03 -6.34552E+03 -7.87880E+02 -8.68360E+03  4.27325E+03 -6.45929E+03
  6.88819E+03 -2.37606E+03  4.84027E+03  1.34246E+03  1.62045E+03  3.02363E+03  1.32883E+03  1.79601E+03
  2.52002E+03  8.55368E+02  2.74439E+03  1.76905E+03  2.99405E+03  4.19376E+03  3.05002E+03  5.67358E+03
 -2.33032E+03  8.31313E+03 -6.98054E+03  8.99583E+03 -1.02975E+04  2.25861E+03 -1.12387E+04 -4.10940E+03
 -4.97976E+03 -1.05551E+04  1.81234E+03 -1.17644E+04  6.12975E+03 -7.21668E+03  8.68620E+03 -1.76531E+03
  6.52230E+03  4.26862E+03  1.40074E+03  5.94507E+03 -2.42060E+03  3.32805E+03 -4.14031E+03 -6.83751E+02
 -2.09215E+03 -4.31574E+03  2.28719E+03 -4.61771E+03  4.62665E+03 -2.16399E+03  4.08761E+03  1.14369E+03
  2.17057E+03  2.02288E+03  1.25855E+03  1.49307E+03 -6.15999E+02  1.39571E+03  1.96128E+03 -3.13480E+02
  1.74810E+03 -8.57926E+02  3.98401E+03  1.69435E+03  2.58154E+03  5.47897E+03 -8.97357E+02  7.49574E+03
 -4.94091E+03  4.84784E+03 -6.27631E+03  1.03350E+03 -6.02912E+03 -2.30854E+03 -2.04088E+03 -4.00493E+03
  8.63363E+02 -3.80757E+03  2.67725E+03 -1.88696E+03  2.35974E+03  1.99542E+03 -1.42159E+03  3.20728E+03
 -4.18004E+03  2.21540E+03 -4.74515E+03 -2.80290E+03 -2.79424E+03 -5.50421E+03  4.02620E+02 -5.48888E+03
  3.27307E+03 -3.18592E+03  3.67814E+03 -3.99322E+02  3.43658E+03  1.14053E+03  8.21169E+02  2.97597E+03
 -1.72880E+03  1.17185E+03 -2.88361E+03 -1.37915E+03  5.41083E+02 -3.95522E+03  4.57083E+03 -3.33713E+03
  6.07876E+03  4.56353E+02  6.28279E+03  3.90128E+03  2.08726E+03  6.63964E+03 -1.94390E+03  6.04478E+03
 -5.16669E+03  2.47817E+03 -5.22727E+03 -8.12677E+02 -3.05495E+03 -4.42841E+03  9.87453E+02 -3.68589E+03
  4.13376E+03 -2.05622E+03  2.93406E+03  2.07945E+03  9.68911E+02  3.54366E+03 -2.24613E+02  3.13333E+03
 -1.64779E+03  2.23738E+03 -1.65677E+03  9.37704E+02 -7.11284E+02  4.49274E+02 -9.82710E+02  1.86409E+03
 -1.45360E+03  2.55300E+03 -4.34227E+03  2.00799E+03 -6.22229E+03 -6.76121E-01 -7.21109E+03 -4.25540E+03
 -3.71815E+03 -8.27513E+03  1.84236E+03 -9.75798E+03  5.82767E+03 -7.50026E+03  9.37196E+03 -2.92096E+03
  8.05673E+03  1.10396E+03  4.59535E+03  5.77348E+03  1.98658E+02  5.89136E+03 -2.53430E+03  4.75079E+03
 -3.84079E+03  2.09149E+03 -2.03348E+03 -5.00729E+02 -8.92742E+02 -1.43098E+02 -7.73053E+02 -1.99721E+02
 -1.43863E+03  8.66583E+01 -1.43393E+03  5.49797E+01 -5.61245E+02 -1.29480E+03  4.18469E+02 -2.40892E+03
  2.86173E+03 -2.09685E+03  3.54116E+03  2.71853E+02  4.27409E+03  3.19530E+03  6.40540E+02  5.89833E+03
 -3.11983E+03  7.44682E+03 -6.84636E+03  4.33958E+03 -7.31056E+03 -3.44551E+02 -5.65531E+03 -4.64056E+03
 -2.36772E+03 -6.32607E+03  1.71925E+03 -5.69610E+03  3.50699E+03 -2.95363E+03  4.10201E+03  4.06727E+02
  2.31716E+03  1.83211E+03 -4.48171E+02  1.73472E+03 -1.58790E+03 -2.46618E+02 -1.18302E+02 -1.16402E+03
  1.78213E+03 -2.08407E+02  2.19670E+03  9.57159E+02  1.46032E+03  2.53906E+03 -1.19365E+02  3.10473E+03
 -2.12478E+03  2.83543E+03 -4.11169E+03  8.23358E+02 -3.48065E+03 -2.40956E+03 -1.65964E+02 -5.00920E+03
  2.78018E+03 -3.99635E+03  4.05637E+03 -1.24911E+03  4.14708E+03  6.28609E+02  2.62175E+03  3.51949E+03
  7.46822E+02  3.57554E+03 -1.57277E+03  3.02273E+03 -2.59786E+03  1.89374E+03 -1.94325E+03  2.97237E+02
 -8.86037E+02 -1.74575E+02 -1.44458E+03  6.34973E+02 -2.40022E+03  8.18705E+02 -2.67530E+03 -2.92964E+02
 -3.02836E+03 -1.32030E+03 -1.12425E+03 -4.23292E+03  1.64101E+03 -4.27868E+03  3.51141E+03 -1.84771E+03
  4.00548E+03  3.45261E+02  1.60900E+03  2.74949E+03 -4.28745E+02  3.82215E+03 -2.83162E+03  2.54464E+03
