 $NMID ID='MM_0lb_SNR800_20hz_g55_19.RAW', FMTDAT='(8E13.5)'
 TRAMP=1., VOLUME=1. $END
  3.09931E+05  4.90336E+02  3.37053E+05  2.50492E+05  8.45513E+04  3.37424E+05 -1.32706E+05  2.50376E+05
 -1.89680E+05  8.26394E+04 -1.11179E+05 -3.28108E+04  1.16952E+03 -5.05269E+04  5.37166E+04  1.84380E+02
  3.52154E+04  5.26925E+04 -1.69966E+04  7.50799E+04 -6.04522E+04  6.27374E+04 -8.29754E+04  3.15015E+04
 -7.98549E+04 -1.12187E+04 -5.64203E+04 -5.03909E+04 -1.48502E+04 -6.86004E+04  2.68696E+04 -4.47203E+04
  3.90332E+04  3.84477E+03  1.57216E+04  4.71277E+04 -3.39798E+04  4.65253E+04 -6.56003E+04 -4.39787E+02
 -5.21410E+04 -5.62123E+04 -6.36838E+03 -7.54413E+04  3.29132E+04 -5.31608E+04  4.64602E+04 -1.63814E+04
  4.16680E+04  1.11166E+04  3.10116E+04  2.44762E+04  1.55337E+04  2.83010E+04 -4.61895E+03  2.69752E+04
 -2.14997E+04  1.27201E+04 -1.93013E+04 -4.19923E+03  4.51616E+03 -7.56350E+03  2.13772E+04  1.11401E+04
  7.41319E+03  3.34899E+04 -3.05530E+04  3.40278E+04 -6.12811E+04  2.40846E+03 -5.55394E+04 -4.13423E+04
 -1.25234E+04 -6.10054E+04  3.82506E+04 -4.34354E+04  5.55414E+04 -1.97792E+03  3.18926E+04  3.08931E+04
 -6.73518E+03  3.33416E+04 -2.85951E+04  1.34386E+04 -2.79217E+04 -5.36083E+03 -1.47519E+04 -1.02350E+04
 -7.31995E+03 -1.13837E+04 -1.05820E+03 -1.70297E+04  6.71298E+03 -2.25668E+04  1.51742E+04 -1.37577E+04
  1.21056E+04  4.35289E+03 -6.30586E+03  1.32661E+04 -1.97649E+04 -2.42224E+03 -8.01176E+03 -3.04742E+04
  2.08400E+04 -4.09205E+04  4.50035E+04 -1.87456E+04  4.21204E+04  1.82958E+04  1.43613E+04  4.15852E+04
 -1.52666E+04  3.11625E+04 -2.34711E+04  1.21809E+03 -8.33339E+03 -2.63487E+04  2.04296E+04 -3.09931E+04
  3.82113E+04 -7.50563E+03  3.13138E+04  2.24664E+04  1.55207E+04  4.25576E+04 -7.75144E+03  4.52851E+04
 -2.86209E+04  2.99743E+04 -3.71390E+04  8.52245E+03 -3.84131E+04 -1.50310E+04 -2.12833E+04 -3.42732E+04
  6.66128E+03 -3.42375E+04  2.94626E+04 -1.27072E+04  2.65263E+04  1.07173E+04  2.97098E+03  1.78689E+04
 -1.32591E+04  7.28640E+03 -9.66053E+03 -7.64064E+03  5.79612E+03 -1.01532E+04  1.71116E+04  6.55414E+03
  1.24265E+04  2.15587E+04 -6.85740E+03  2.31624E+04 -2.13941E+04  9.33952E+03 -2.51428E+04 -6.28555E+03
 -1.66101E+04 -1.63665E+04 -5.60082E+03 -1.69333E+04  3.92040E+03 -1.45851E+04  1.23409E+04 -1.43942E+04
  2.10982E+04 -1.14006E+04  2.78545E+04  1.06661E+03  2.07783E+04  1.63343E+04  3.80761E+03  3.21409E+04
 -1.60583E+04  2.74030E+04 -2.60745E+04  9.15412E+03 -1.96321E+04 -1.03126E+04 -3.70160E+03 -1.38606E+04
  2.40880E+03 -4.07095E+03 -2.52871E+03  5.51879E+03 -1.29860E+04  5.09330E+03 -1.31952E+04 -4.77781E+03
 -8.70877E+03 -1.55419E+04  4.35086E+03 -1.90582E+04  1.22222E+04 -1.39381E+04  1.46504E+04 -1.38088E+03
  8.86267E+03  1.05773E+04 -9.15195E+02  1.54615E+04 -1.02029E+04  8.61544E+03 -1.53222E+04 -3.59844E+03
 -1.14153E+04 -1.41847E+04 -1.41883E+03 -1.84465E+04  8.53507E+03 -1.48715E+04  1.58332E+04 -6.84188E+03
  1.43047E+04  6.81992E+02  1.02236E+04  4.02294E+03  4.97037E+03  3.62153E+02  7.41261E+03 -1.35556E+03
  1.36264E+04  2.84309E+03  1.45854E+04  1.23721E+04  8.74485E+03  2.42764E+04 -3.06400E+03  2.58978E+04
 -1.53221E+04  1.96976E+04 -2.40919E+04  9.06812E+03 -2.40635E+04 -1.79179E+03 -2.10552E+04 -1.36957E+04
 -9.97820E+03 -1.95971E+04  6.54632E+03 -1.84633E+04  1.62157E+04 -1.04383E+04  1.49955E+04  3.73834E+03
  6.74640E+03  1.04539E+04 -6.78182E+03  1.02813E+04 -1.30092E+04  2.58381E+03 -1.01861E+04 -7.88459E+03
 -3.92416E+01 -1.21729E+04  6.01356E+03 -9.17356E+03  7.47302E+03 -1.40503E+03  1.33208E+03  4.83392E+03
 -5.18655E+03  1.35766E+03 -3.58724E+03 -4.40050E+03  7.72360E+02 -1.01551E+04  7.75415E+03 -9.44221E+03
  1.15165E+04 -4.40862E+03  1.13054E+04  2.66038E+03  9.70179E+03  9.03546E+03  4.38736E+03  1.33276E+04
 -1.62087E+03  1.52217E+04 -9.22698E+03  9.66470E+03 -1.07043E+04  2.78855E+03 -8.33787E+03 -1.74716E+03
 -4.81845E+03 -3.28587E+03 -9.97153E+02  1.48166E+03 -1.99466E+03  2.16659E+03 -3.41507E+03  3.49972E+03
 -7.72983E+03 -6.52285E+02 -8.32560E+03 -7.11538E+03 -3.37814E+03 -1.10568E+04  3.33184E+03 -8.08145E+03
  6.75087E+03 -3.56522E+03  5.19389E+03  1.90912E+03  5.69584E+02  3.00354E+03 -2.99040E+03  1.39066E+02
 -3.09978E+03 -4.87823E+03 -8.79627E+02 -7.02496E+03  3.52947E+03 -7.45575E+03  9.32861E+03 -3.65868E+03
  1.09758E+04  5.85600E+02  8.28163E+03  5.94827E+03  1.57324E+03  7.83151E+03 -5.13235E+03  7.87602E+03
 -6.59398E+03  2.52930E+03 -3.21259E+03 -1.27868E+03  1.02312E+03 -1.77013E+03  4.63280E+03 -1.01795E+03
  3.93706E+03  3.32506E+03  9.05131E+02  5.82212E+03 -3.93398E+03  6.20421E+03 -7.38099E+03  1.78504E+03
 -4.39118E+03 -3.37854E+03  1.82274E+02 -6.08175E+03  3.44188E+03 -3.13126E+03  2.95506E+03  7.32881E+02
  2.30909E+02  2.84505E+03 -3.76093E+03  4.16108E+03 -4.20375E+03  2.10760E+03 -3.78245E+03 -9.42137E+02
 -2.55401E+03 -5.52398E+03  1.16227E+03 -5.95796E+03  5.31006E+03 -4.37496E+03  5.79214E+03  1.01535E+03
  4.09694E+03  5.03710E+03  4.01151E+02  6.59034E+03 -4.70585E+03  3.83837E+03 -4.75154E+03 -3.00656E+02
 -5.41522E+03 -4.72665E+03 -1.31633E+03 -4.63661E+03  2.14045E+03 -4.44560E+03  2.34048E+03 -2.97828E+03
  2.47788E+03  1.46133E+02  3.98106E+02  1.18034E+03  6.02460E+02 -1.34848E+02 -1.50984E+02 -1.45278E+03
  3.31413E+03 -4.98672E+02  4.58878E+03  6.38148E+02  4.77558E+03  2.59518E+03  4.86008E+03  6.42643E+03
 -1.11026E+03  7.37700E+03 -6.75263E+03  5.75680E+03 -8.78387E+03  9.21581E+02 -6.83380E+03 -1.92073E+03
 -3.40136E+03 -5.83801E+03 -3.33122E+02 -4.56408E+03  1.87730E+03 -1.75880E+03  1.39715E+03 -1.75267E+03
  1.18274E+03 -1.65383E+03  1.90512E+03 -2.14256E+03  3.40748E+03 -1.17363E+03  3.48359E+03  4.50536E+02
  3.86671E+03  9.75833E+02  9.57622E+02  2.88866E+03 -1.33298E+03  2.27060E+03 -3.99696E+03  1.91104E+03
 -4.10665E+03 -1.03846E+03 -1.28772E+03 -2.70017E+03  5.71024E+02 -3.97832E+03  2.97157E+03 -4.62632E+03
  4.21848E+03 -2.88954E+03  5.79868E+03 -9.57730E+01  4.03423E+03  3.39197E+03  1.09735E+03  5.28940E+03
 -1.58386E+03  5.20789E+03 -2.93494E+03  1.71446E+03 -1.46060E+03 -1.09148E+03 -3.77420E+02 -3.58709E+02
 -3.01460E+02  5.09476E+02 -1.01942E+03  1.73413E+03 -2.31626E+03  8.53120E+02 -4.03769E+03 -3.03078E+02
 -8.54767E+02 -3.45475E+03  9.65543E+02 -3.69657E+03  2.26780E+03 -3.61110E+03  2.66138E+03 -9.27902E+02
  3.20999E+03  2.16606E+03  1.50330E+03  2.65293E+03 -3.23972E+02  3.71542E+03 -1.84163E+03  2.23484E+03
 -3.13933E+03  5.99056E+02 -2.53458E+03 -1.90099E+03 -1.64250E+02 -2.46229E+03  1.34324E+03 -1.89293E+03
  2.01111E+03 -9.20136E+02  1.18367E+03  7.23935E+00  3.00679E+02  1.27842E+03  7.85079E+02  3.91622E+02
  1.50304E+03  6.23309E+02  9.80513E+02  9.56155E+02  1.00709E+03  2.03219E+03  1.36419E+03  9.92756E+02
 -1.08724E+03  2.10932E+03 -1.63648E+03  3.49295E+03 -2.14226E+03  1.16332E+03 -3.12252E+03  1.56252E+02
 -1.22883E+03 -2.79987E+03  2.48778E+02 -3.80712E+03  1.25440E+03 -1.77780E+03  2.49515E+03 -6.83386E+02
  1.81435E+03  1.33658E+03  1.67700E+02  1.54953E+03 -4.43777E+02  7.69905E+02 -4.06605E+02  5.32989E+01
 -2.47011E+02 -1.16065E+03  8.93283E+02 -1.23096E+03  1.10740E+03 -9.15080E+02  1.03627E+03  1.18407E+02
  5.35725E+02  3.69348E+01  5.38376E+02 -3.85856E+02 -4.23765E+01  4.85454E+02  1.28672E+03 -5.74508E+02
 -1.08392E+02 -1.73648E+02  1.59868E+03  5.39491E+02  2.26335E+02  2.04873E+03 -6.34592E+01  2.13711E+03
 -1.43996E+03  5.40525E+02 -1.73721E+03  5.70415E+01 -1.40263E+03 -4.25318E+02  7.01568E+01 -5.86369E+02
  3.24026E+02 -9.73580E+02  5.44964E+02 -5.16941E+02  3.10049E+02  1.01442E+03 -6.79515E+02  8.69860E+02
 -1.03961E+03  4.99791E+02 -5.46750E+02 -1.27087E+03 -4.90638E+02 -1.52932E+03  1.05566E+01 -1.36060E+03
  2.83000E+02 -2.54784E+02  2.24765E+02  3.99323E+02  1.26560E+03 -4.04745E+02  3.25550E+02  6.17110E+02
 -7.04880E+01  1.15804E+02 -9.34104E+02 -1.16002E+02  5.13535E+02 -5.55750E+02  1.23285E+03 -6.34432E+02
  3.73575E+02  3.00897E+02  2.16590E+03  1.83886E+02  1.04856E+03  1.14843E+03 -5.08930E+01  1.47007E+03
 -9.69238E+02 -1.53789E+02 -9.37454E+02 -1.59554E+02 -7.30983E+02 -1.18845E+03  3.72576E+02 -1.41284E+02
  1.46565E+03 -7.02323E+02  4.95372E+02  3.40334E+02 -1.71516E+01  1.12862E+03  4.35705E+02  9.01064E+02
 -2.83566E+02  1.12848E+03 -4.34586E+02  1.50722E+02 -1.43560E+02  6.73081E+02 -4.56989E+02  3.72134E+02
 -4.73870E+02  1.07956E+03 -1.19874E+03  2.11593E+02 -1.15734E+03  2.20181E+02 -2.03731E+03 -4.89123E+02
 -1.06997E+03 -1.58820E+03  2.87707E+02 -2.16579E+03  5.33679E+02 -1.72874E+03  1.98136E+03 -9.56124E+02
  1.53771E+03 -4.62277E+02  6.50174E+02  1.12286E+03 -3.74039E+02  5.68640E+02 -4.59609E+02  7.13793E+02
 -5.88078E+02  4.42594E+02 -4.51714E+02 -3.46933E+02 -4.54560E+02  2.28009E+02 -4.88979E+02  1.26029E+02
 -1.34300E+03 -1.68772E+02 -9.83442E+02 -4.12177E+01  4.17075E+02 -4.39871E+02 -5.29497E+02 -6.13444E+02
  1.21014E+03 -5.11099E+02  1.51987E+02 -1.27438E+02  9.33677E+02  6.44544E+02 -6.76038E+02  8.15194E+02
 -9.05425E+02  1.78884E+03 -8.72296E+02  9.59993E+02 -1.13304E+03 -1.27725E+02 -8.79674E+02 -7.16547E+02
 -7.42800E+02 -7.81966E+02  1.07126E+01 -8.74326E+02  2.26423E+02 -2.25701E+02  3.64392E+02  2.72335E+02
  6.00232E+02  7.30471E+01  3.07068E+02  2.17123E+02 -3.55788E+02 -1.38062E+01 -1.24639E+02 -1.35429E+01
  4.38661E+02  4.25774E+02  9.51624E+01  5.54726E+02 -1.87122E+02  2.91415E+02  5.06566E+02 -2.38783E+00
 -3.42804E+02  4.41395E+02 -1.94549E+02  3.26926E+02 -2.61475E+02 -1.24638E+02  1.54687E+02 -7.64948E+02
  4.89491E+02 -6.00758E+02  1.70364E+02 -4.86297E+01  8.22291E+02 -8.46077E+02  8.80224E+01  4.07254E+02
  6.04358E+02  2.76363E+02 -1.16920E+02  4.53477E+02 -2.49510E+02  5.39266E+02 -4.23332E+02  9.68883E+01
  8.61319E+01 -1.54796E+02 -5.11966E+02  4.62684E+01 -4.41640E+02 -9.94127E+01 -5.51794E+02 -3.07728E+02
 -7.26321E+02  5.44645E+02 -2.34090E+02 -6.93797E+02  4.54348E+02 -1.14601E+03  2.50817E+02  3.50813E+01
  5.82805E+02  2.77566E+02 -4.36218E+02 -2.44716E+02 -8.72705E+00  3.60313E+02 -8.92250E+01  7.16728E+02
