 $NMID ID='MM_0lb_SNR800_10hz_g55_75.RAW', FMTDAT='(8E13.5)'
 TRAMP=1., VOLUME=1. $END
  3.10040E+05  2.84513E+02  3.37815E+05  2.50213E+05  8.50943E+04  3.38291E+05 -1.32450E+05  2.52220E+05
 -1.90874E+05  8.35413E+04 -1.12541E+05 -3.23684E+04  1.15112E+02 -5.06892E+04  5.38138E+04 -6.57287E+02
  3.58249E+04  5.30408E+04 -1.64564E+04  7.59045E+04 -6.12573E+04  6.43419E+04 -8.55913E+04  3.24475E+04
 -8.20672E+04 -1.20108E+04 -5.78875E+04 -5.27534E+04 -1.54083E+04 -7.09391E+04  2.83728E+04 -4.68148E+04
  4.07898E+04  4.15114E+03  1.64831E+04  4.87084E+04 -3.49692E+04  4.84898E+04 -6.80154E+04  1.83529E+02
 -5.50967E+04 -5.78757E+04 -6.96431E+03 -7.87772E+04  3.47761E+04 -5.66044E+04  4.94685E+04 -1.82709E+04
  4.50439E+04  1.12787E+04  3.26750E+04  2.69233E+04  1.55825E+04  3.09493E+04 -5.84379E+03  2.79126E+04
 -2.24402E+04  1.22518E+04 -1.82600E+04 -5.40283E+03  6.95405E+03 -7.54241E+03  2.31196E+04  1.38752E+04
  7.26715E+03  3.73177E+04 -3.35782E+04  3.70063E+04 -6.56061E+04  1.87066E+03 -5.83724E+04 -4.46057E+04
 -1.26835E+04 -6.57270E+04  4.13940E+04 -4.73391E+04  6.09521E+04 -2.22513E+03  3.66604E+04  3.42859E+04
 -5.64801E+03  3.93715E+04 -3.17686E+04  1.89188E+04 -3.27718E+04 -3.99476E+03 -1.95038E+04 -1.20786E+04
 -9.14587E+03 -1.49622E+04 -4.60812E+02 -1.93746E+04  8.39631E+03 -2.35225E+04  1.61801E+04 -1.28210E+04
  1.05823E+04  6.09609E+03 -1.04524E+04  1.25039E+04 -2.31600E+04 -6.52514E+03 -8.54912E+03 -3.71259E+04
  2.48730E+04 -4.65758E+04  5.15787E+04 -2.10198E+04  4.83663E+04  2.07213E+04  1.70347E+04  4.69770E+04
 -1.66588E+04  3.64423E+04 -2.74561E+04  2.66199E+03 -1.15577E+04 -2.92934E+04  2.19715E+04 -3.64111E+04
  4.39124E+04 -1.04589E+04  3.98518E+04  2.50345E+04  2.08027E+04  5.03473E+04 -8.61946E+03  5.55396E+04
 -3.48649E+04  3.81758E+04 -4.70286E+04  1.09904E+04 -4.71135E+04 -1.83548E+04 -2.60267E+04 -4.19255E+04
  7.74124E+03 -4.16121E+04  3.42861E+04 -1.72184E+04  3.18224E+04  1.09901E+04  5.25162E+03  2.11438E+04
 -1.39792E+04  9.76811E+03 -1.09862E+04 -7.43809E+03  5.77627E+03 -1.11226E+04  1.83274E+04  5.50156E+03
  1.49105E+04  2.23212E+04 -5.17320E+03  2.71145E+04 -2.32544E+04  1.35135E+04 -3.08997E+04 -3.07587E+03
 -2.55380E+04 -1.83827E+04 -1.12648E+04 -2.45459E+04  4.30304E+03 -2.51147E+04  1.94896E+04 -2.23932E+04
  3.15895E+04 -1.41264E+04  3.78123E+04  4.65194E+03  2.69523E+04  2.39435E+04  4.20553E+03  4.06030E+04
 -1.97369E+04  3.37455E+04 -3.02171E+04  1.15613E+04 -2.22706E+04 -1.02511E+04 -4.76508E+03 -1.29962E+04
  7.22213E+02 -1.23605E+03 -6.84376E+03  8.05346E+03 -2.01539E+04  5.26461E+03 -1.97551E+04 -9.35905E+03
 -1.16363E+04 -2.28916E+04  5.93826E+03 -2.76349E+04  1.86290E+04 -1.95411E+04  2.28219E+04 -1.77252E+03
  1.39246E+04  1.57300E+04 -1.15061E+03  2.27910E+04 -1.64008E+04  1.28662E+04 -2.30135E+04 -4.52987E+03
 -1.68364E+04 -2.04286E+04 -2.51603E+03 -2.73482E+04  1.26196E+04 -2.28756E+04  2.26207E+04 -1.19756E+04
  2.15162E+04 -9.43455E+01  1.56596E+04  4.92187E+03  8.78126E+03  1.07628E+03  1.21026E+04 -1.89842E+03
  2.16436E+04  2.79260E+03  2.46713E+04  1.82699E+04  1.69824E+04  3.68646E+04 -2.61337E+03  4.32009E+04
 -2.47053E+04  3.58391E+04 -4.08501E+04  1.83632E+04 -4.34721E+04 -2.94311E+03 -3.52763E+04 -2.56452E+04
 -1.36592E+04 -3.62406E+04  1.28864E+04 -3.16706E+04  2.69062E+04 -1.51527E+04  2.34806E+04  7.38595E+03
  7.91294E+03  1.82159E+04 -1.16249E+04  1.51115E+04 -1.93298E+04  2.63764E+03 -1.46878E+04 -1.23956E+04
 -5.23985E+02 -1.90863E+04  1.02849E+04 -1.41128E+04  1.31237E+04 -1.52053E+03  3.37264E+03  8.66915E+03
 -8.56690E+03  3.90010E+03 -8.81379E+03 -6.86435E+03 -1.99370E+03 -1.76391E+04  1.17244E+04 -1.92575E+04
  2.27857E+04 -1.08040E+04  2.55823E+04  3.05207E+03  2.17921E+04  1.77135E+04  1.01691E+04  2.80591E+04
 -5.48282E+03  3.02068E+04 -1.98394E+04  1.85665E+04 -2.18607E+04  3.75609E+03 -1.46017E+04 -5.83391E+03
 -6.60921E+03 -7.51791E+03 -8.40854E+02  7.54996E+02 -2.92486E+03  3.68301E+03 -7.36477E+03  5.52040E+03
 -1.39663E+04 -1.07664E+03 -1.41410E+04 -1.12914E+04 -5.77485E+03 -1.86861E+04  6.12230E+03 -1.53471E+04
  1.24073E+04 -6.02951E+03  8.87634E+03  4.11891E+03 -6.13146E+02  6.11208E+03 -7.48089E+03 -5.47541E+02
 -7.52928E+03 -9.58987E+03 -1.09879E+03 -1.51574E+04  8.66629E+03 -1.56907E+04  1.94108E+04 -8.44031E+03
  2.28532E+04  2.08254E+03  1.69144E+04  1.37654E+04  3.04076E+03  1.84118E+04 -8.87153E+03  1.48252E+04
 -1.23292E+04  3.99866E+03 -6.62274E+03 -3.49709E+03  2.14111E+03 -4.10452E+03  8.11124E+03 -6.52017E+02
  7.25008E+03  6.70579E+03  8.97622E+02  1.22923E+04 -8.37063E+03  1.19544E+04 -1.48940E+04  3.06428E+03
 -1.03418E+04 -7.92731E+03  1.41369E+01 -1.25865E+04  8.33590E+03 -6.80432E+03  8.93722E+03  2.85990E+03
  2.10967E+03  9.56967E+03 -8.12849E+03  1.11287E+04 -1.29532E+04  4.98001E+03 -1.32488E+04 -5.00076E+03
 -7.76780E+03 -1.52769E+04  3.84348E+03 -1.74074E+04  1.47931E+04 -1.02151E+04  1.60018E+04  2.63921E+03
  9.44978E+03  1.27840E+04 -1.32033E+03  1.54429E+04 -1.15603E+04  8.67357E+03 -1.21975E+04 -1.27085E+03
 -1.01887E+04 -9.91949E+03 -1.42056E+03 -1.17365E+04  5.92604E+03 -8.73753E+03  7.25908E+03 -3.68924E+03
  4.78403E+03  1.84750E+03 -9.86974E+02  1.64497E+03 -9.55771E+02 -3.22062E+03  2.34813E+03 -7.04332E+03
  1.06332E+04 -4.79279E+03  1.53998E+04  1.95125E+03  1.48379E+04  1.04962E+04  9.96299E+03  1.98752E+04
 -4.48210E+03  2.30401E+04 -1.89004E+04  1.68396E+04 -2.41748E+04  3.17306E+03 -1.95362E+04 -8.57197E+03
 -1.00389E+04 -1.60747E+04 -2.28186E+02 -1.36802E+04  5.08630E+03 -7.76162E+03  4.53441E+03 -5.12299E+03
  3.52038E+03 -3.23013E+03  3.78181E+03 -3.31075E+03  5.83998E+03 -3.47143E+03  7.40058E+03 -1.30979E+03
  1.02203E+04  2.34647E+03  5.48355E+03  8.74741E+03 -2.35390E+03  1.02602E+04 -1.07061E+04  8.30226E+03
 -1.36277E+04 -1.47767E+03 -8.91081E+03 -9.62719E+03 -1.16971E+03 -1.46832E+04  8.20900E+03 -1.49979E+04
  1.53278E+04 -8.26379E+03  1.84399E+04  2.54421E+03  1.29856E+04  1.26519E+04  2.15027E+03  1.65302E+04
 -6.58598E+03  1.34075E+04 -9.60364E+03  4.85342E+03 -7.20652E+03 -1.43120E+03 -2.87047E+03 -2.04494E+03
 -1.22259E+03 -2.92502E+02 -2.36775E+03  2.68593E+03 -5.58665E+03  2.57065E+03 -9.68560E+03 -1.44533E+03
 -6.82697E+03 -9.55056E+03 -6.26534E+01 -1.36828E+04  8.01195E+03 -1.28084E+04  1.33747E+04 -3.84491E+03
  1.38864E+04  6.36820E+03  6.25901E+03  1.21277E+04 -2.89802E+03  1.37467E+04 -9.91520E+03  8.40823E+03
 -1.26343E+04  4.62844E+02 -1.01141E+04 -8.39169E+03 -1.63920E+03 -1.14739E+04  5.47238E+03 -8.40441E+03
  9.13802E+03 -2.49349E+03  6.27510E+03  2.57002E+03  2.48426E+03  4.58064E+03  1.38415E+03  1.74006E+03
  2.51196E+03  9.41461E+02  3.17288E+03  1.73209E+03  4.16910E+03  4.55796E+03  3.80479E+03  7.27444E+03
 -2.91569E+03  1.03207E+04 -9.53577E+03  1.07785E+04 -1.36449E+04  3.21460E+03 -1.46040E+04 -5.30173E+03
 -6.62116E+03 -1.41124E+04  2.44059E+03 -1.48872E+04  8.48034E+03 -9.60272E+03  1.11575E+04 -2.66523E+03
  8.27416E+03  5.52438E+03  1.95892E+03  7.54117E+03 -4.25376E+03  5.32254E+03 -5.58246E+03 -9.20482E+02
 -2.78466E+03 -5.75424E+03  3.17192E+03 -5.82880E+03  5.84353E+03 -2.83352E+03  5.52944E+03  1.19314E+03
  3.10567E+03  2.81966E+03  1.44090E+03  2.34274E+03 -7.39533E+02  1.99618E+03  1.65437E+03 -2.05335E+02
  2.36916E+03 -7.65866E+02  5.56231E+03  2.25763E+03  2.96783E+03  7.55978E+03 -1.30400E+03  9.46151E+03
 -6.77444E+03  6.29156E+03 -8.95130E+03  1.92867E+03 -7.57693E+03 -2.98915E+03 -2.94391E+03 -5.21611E+03
  8.61127E+02 -5.46009E+03  3.66760E+03 -2.57748E+03  3.21632E+03  2.54001E+03 -1.00468E+03  4.47067E+03
 -5.69033E+03  2.92056E+03 -6.69124E+03 -3.46139E+03 -3.70454E+03 -7.35538E+03  8.96732E+02 -7.97354E+03
  4.29810E+03 -4.53210E+03  5.33275E+03 -6.76109E+02  4.42128E+03  2.07089E+03  3.83846E+02  3.86059E+03
 -2.50526E+03  1.18343E+03 -3.25715E+03 -2.57434E+03  1.33505E+03 -5.97963E+03  6.61067E+03 -4.82600E+03
  8.53223E+03  4.93376E+02  8.18737E+03  5.89813E+03  2.39182E+03  9.22990E+03 -3.05206E+03  8.24538E+03
 -7.40008E+03  3.81183E+03 -7.54886E+03 -1.31626E+03 -4.31534E+03 -5.87836E+03  1.41719E+03 -5.63548E+03
  5.70466E+03 -2.66784E+03  4.29706E+03  2.41718E+03  1.51149E+03  4.97685E+03 -5.36052E+02  4.14404E+03
 -2.11236E+03  3.08324E+03 -1.81213E+03  9.94255E+02 -7.91635E+02  1.19877E+03 -1.37403E+03  1.67139E+03
 -2.57401E+03  3.45563E+03 -6.05122E+03  3.35185E+03 -8.72819E+03  4.49917E+02 -1.00991E+04 -5.65086E+03
 -4.75649E+03 -1.12704E+04  2.60549E+03 -1.39804E+04  7.83400E+03 -1.02942E+04  1.27767E+04 -4.47429E+03
  1.19722E+04  2.31244E+03  7.15410E+03  7.95292E+03  6.17432E+02  9.65150E+03 -3.26052E+03  6.53568E+03
 -4.77954E+03  2.39974E+03 -3.37248E+03 -1.05385E+03 -1.31394E+03 -8.52394E+02 -5.07542E+02 -2.72312E+02
 -1.91856E+03  4.61069E+02 -2.35863E+03 -8.01845E+02 -2.79712E+02 -2.24330E+03  4.41703E+02 -3.39326E+03
  4.11352E+03 -2.84121E+03  5.34454E+03 -9.08365E+01  6.16669E+03  4.71626E+03  1.63929E+03  9.13559E+03
 -4.26925E+03  1.07520E+04 -9.66921E+03  6.46730E+03 -1.08879E+04 -4.84325E+02 -8.37637E+03 -7.12822E+03
 -3.04157E+03 -9.10176E+03  2.34617E+03 -8.28170E+03  5.81009E+03 -4.73703E+03  5.97127E+03  6.11887E+02
  3.05883E+03  2.82738E+03 -2.56903E+02  2.35984E+03 -1.59484E+03 -4.25950E+02 -4.46800E+01 -2.10670E+03
  2.88421E+03 -1.24231E+03  3.31878E+03  1.17814E+03  2.35729E+03  3.42166E+03  2.39145E+02  4.78497E+03
 -3.47466E+03  4.12284E+03 -5.94391E+03  4.31462E+02 -5.33638E+03 -4.37314E+03 -1.08197E+03 -7.49316E+03
  4.19064E+03 -5.93939E+03  7.09078E+03 -1.66059E+03  6.91603E+03  1.95653E+03  3.97346E+03  5.28975E+03
  5.08592E+02  5.74428E+03 -2.10644E+03  4.65116E+03 -3.93429E+03  2.78748E+03 -2.85966E+03  3.84508E+02
 -1.77987E+03 -2.51188E+02 -2.03254E+03  8.70146E+02 -3.08465E+03  9.93091E+02 -4.87061E+03 -7.57953E+02
 -4.65678E+03 -3.04623E+03 -1.42471E+03 -6.12600E+03  2.77547E+03 -6.74351E+03  5.30380E+03 -3.23876E+03
  6.23759E+03  9.40960E+02  3.00909E+03  4.30295E+03 -2.32847E+02  5.76068E+03 -4.38895E+03  3.89055E+03
