 $NMID ID='MM_0lb_SNR800_11hz_g60_84.RAW', FMTDAT='(8E13.5)'
 TRAMP=1., VOLUME=1. $END
  3.09731E+05  6.17293E+02  3.37636E+05  2.51090E+05  8.50712E+04  3.38322E+05 -1.32819E+05  2.51793E+05
 -1.90925E+05  8.36221E+04 -1.12365E+05 -3.19689E+04  4.76822E+02 -5.06156E+04  5.36989E+04 -4.08958E+02
  3.53099E+04  5.29926E+04 -1.64652E+04  7.62737E+04 -6.12500E+04  6.46394E+04 -8.52180E+04  3.19522E+04
 -8.27083E+04 -1.19827E+04 -5.79639E+04 -5.22454E+04 -1.51056E+04 -7.10713E+04  2.81355E+04 -4.68297E+04
  4.09917E+04  3.80448E+03  1.68964E+04  4.88894E+04 -3.47798E+04  4.79474E+04 -6.79215E+04  3.35961E+01
 -5.42410E+04 -5.74053E+04 -7.03640E+03 -7.85384E+04  3.46906E+04 -5.70762E+04  4.95217E+04 -1.81842E+04
  4.51707E+04  1.13724E+04  3.31310E+04  2.65383E+04  1.58800E+04  3.04282E+04 -5.76513E+03  2.75876E+04
 -2.22717E+04  1.23351E+04 -1.81020E+04 -5.64898E+03  6.96768E+03 -7.52934E+03  2.36732E+04  1.34979E+04
  7.04735E+03  3.73210E+04 -3.36440E+04  3.71384E+04 -6.56499E+04  1.96820E+03 -5.86304E+04 -4.41456E+04
 -1.27853E+04 -6.51348E+04  4.12463E+04 -4.75640E+04  6.09184E+04 -2.45523E+03  3.64193E+04  3.41706E+04
 -5.91050E+03  3.92888E+04 -3.18129E+04  1.86845E+04 -3.31613E+04 -4.00306E+03 -1.90645E+04 -1.20633E+04
 -9.21039E+03 -1.49404E+04 -6.46370E+02 -1.99170E+04  8.15876E+03 -2.35003E+04  1.55352E+04 -1.26381E+04
  1.06498E+04  6.31263E+03 -1.00075E+04  1.25702E+04 -2.35420E+04 -6.73365E+03 -8.49369E+03 -3.69735E+04
  2.49189E+04 -4.64587E+04  5.14096E+04 -2.10413E+04  4.82486E+04  2.09053E+04  1.69112E+04  4.63575E+04
 -1.67754E+04  3.53914E+04 -2.73401E+04  2.58958E+03 -1.14014E+04 -2.94531E+04  2.14682E+04 -3.64199E+04
  4.41938E+04 -1.08609E+04  3.93065E+04  2.50646E+04  2.11402E+04  5.01316E+04 -8.37293E+03  5.53396E+04
 -3.48742E+04  3.74956E+04 -4.70307E+04  1.08190E+04 -4.69217E+04 -1.86101E+04 -2.56216E+04 -4.15498E+04
  7.49659E+03 -4.16312E+04  3.37275E+04 -1.70938E+04  3.16538E+04  1.07304E+04  5.00986E+03  2.07227E+04
 -1.41589E+04  9.30961E+03 -1.09014E+04 -7.82949E+03  5.68135E+03 -1.13798E+04  1.85834E+04  5.60865E+03
  1.45775E+04  2.25559E+04 -5.37175E+03  2.71517E+04 -2.34401E+04  1.38873E+04 -3.11827E+04 -3.37808E+03
 -2.50948E+04 -1.81810E+04 -1.12285E+04 -2.41927E+04  4.44138E+03 -2.45501E+04  1.90744E+04 -2.21948E+04
  3.12149E+04 -1.39575E+04  3.71632E+04  4.71193E+03  2.60829E+04  2.36611E+04  4.01812E+03  4.04459E+04
 -1.92808E+04  3.30160E+04 -3.06305E+04  1.15906E+04 -2.23802E+04 -1.00943E+04 -4.71747E+03 -1.32942E+04
  8.44369E+02 -1.20666E+03 -7.28287E+03  8.05077E+03 -1.94906E+04  5.16927E+03 -1.93471E+04 -8.91071E+03
 -1.18949E+04 -2.24849E+04  6.12329E+03 -2.70458E+04  1.81659E+04 -1.89845E+04  2.14348E+04 -2.20599E+03
  1.38666E+04  1.57682E+04 -1.30670E+03  2.26137E+04 -1.59627E+04  1.27886E+04 -2.30667E+04 -4.92260E+03
 -1.66421E+04 -2.02766E+04 -1.92249E+03 -2.75240E+04  1.22010E+04 -2.22700E+04  2.22098E+04 -1.15356E+04
  2.11688E+04 -9.46654E+01  1.52862E+04  5.23116E+03  8.48529E+03  8.76888E+02  1.14836E+04 -1.82418E+03
  2.12013E+04  2.96038E+03  2.43640E+04  1.78355E+04  1.68043E+04  3.62626E+04 -2.89369E+03  4.24258E+04
 -2.43089E+04  3.54515E+04 -3.97148E+04  1.81199E+04 -4.27138E+04 -3.03557E+03 -3.42826E+04 -2.50156E+04
 -1.35211E+04 -3.50451E+04  1.23259E+04 -3.10664E+04  2.67440E+04 -1.44295E+04  2.31397E+04  7.27980E+03
  8.12211E+03  1.77179E+04 -1.11960E+04  1.46378E+04 -1.95217E+04  2.77710E+03 -1.47423E+04 -1.22826E+04
 -4.65060E+02 -1.87202E+04  9.85554E+03 -1.39834E+04  1.28373E+04 -1.41163E+03  3.29280E+03  8.40444E+03
 -7.96671E+03  3.92641E+03 -8.29220E+03 -6.61381E+03 -1.50022E+03 -1.73675E+04  1.13277E+04 -1.88676E+04
  2.14844E+04 -1.07411E+04  2.41645E+04  3.13148E+03  2.12545E+04  1.73425E+04  9.80162E+03  2.73370E+04
 -5.07978E+03  2.92058E+04 -1.89691E+04  1.78025E+04 -2.10024E+04  3.52623E+03 -1.45560E+04 -5.49642E+03
 -6.39148E+03 -7.00667E+03 -6.07563E+02  5.81556E+02 -2.51099E+03  3.57684E+03 -7.02359E+03  5.38874E+03
 -1.34446E+04 -8.58957E+02 -1.42720E+04 -1.10149E+04 -5.51947E+03 -1.85776E+04  6.09440E+03 -1.48479E+04
  1.23190E+04 -6.07935E+03  8.47186E+03  4.27920E+03  5.17350E+01  6.10047E+03 -7.27748E+03 -3.27802E+02
 -7.10244E+03 -9.51267E+03 -1.23661E+03 -1.43174E+04  8.42118E+03 -1.52057E+04  1.88544E+04 -8.50622E+03
  2.22003E+04  2.29078E+03  1.56380E+04  1.31079E+04  3.02367E+03  1.73218E+04 -8.88232E+03  1.47106E+04
 -1.17120E+04  4.18057E+03 -5.94853E+03 -3.35439E+03  2.14760E+03 -4.12865E+03  8.06479E+03 -6.87625E+02
  6.99867E+03  6.51369E+03  1.12132E+03  1.20268E+04 -8.32125E+03  1.14018E+04 -1.45799E+04  2.69234E+03
 -1.02246E+04 -7.33959E+03  1.72615E+02 -1.25215E+04  7.97343E+03 -6.43855E+03  8.63749E+03  3.25915E+03
  1.88284E+03  9.24500E+03 -7.49814E+03  1.03403E+04 -1.21042E+04  4.75487E+03 -1.19882E+04 -4.41139E+03
 -6.90837E+03 -1.41143E+04  3.55688E+03 -1.65358E+04  1.40091E+04 -9.73417E+03  1.50192E+04  2.27098E+03
  8.72539E+03  1.17967E+04 -9.65994E+02  1.44592E+04 -1.05016E+04  7.83873E+03 -1.17829E+04 -1.16484E+03
 -9.87538E+03 -9.51658E+03 -1.28304E+03 -1.11063E+04  5.79818E+03 -8.90934E+03  6.77959E+03 -3.37993E+03
  4.75954E+03  2.06767E+03 -8.18260E+02  2.08352E+03 -3.98046E+02 -3.06389E+03  2.40022E+03 -6.68544E+03
  9.83911E+03 -3.94986E+03  1.42976E+04  1.74475E+03  1.40950E+04  9.95628E+03  9.04643E+03  1.86960E+04
 -4.45575E+03  2.11950E+04 -1.78358E+04  1.56655E+04 -2.30231E+04  3.00253E+03 -1.84362E+04 -7.56335E+03
 -9.41226E+03 -1.51884E+04 -3.24334E+02 -1.34059E+04  4.16048E+03 -7.47410E+03  4.61895E+03 -4.56484E+03
  3.46277E+03 -2.75966E+03  3.95898E+03 -3.43768E+03  5.20679E+03 -3.09653E+03  7.21249E+03 -1.47983E+03
  9.59939E+03  1.75941E+03  4.70483E+03  8.46569E+03 -2.25971E+03  9.90182E+03 -9.93051E+03  7.56025E+03
 -1.30098E+04 -1.14263E+03 -8.16252E+03 -9.14721E+03 -9.66752E+02 -1.36749E+04  7.24986E+03 -1.37501E+04
  1.41011E+04 -7.47011E+03  1.70939E+04  2.35763E+03  1.21481E+04  1.22569E+04  1.67559E+03  1.52904E+04
 -6.07821E+03  1.27416E+04 -9.28757E+03  4.42073E+03 -5.85442E+03 -1.71026E+03 -2.59866E+03 -2.05087E+03
 -8.64225E+02  1.83567E+02 -2.22121E+03  2.71765E+03 -5.42294E+03  1.89990E+03 -8.69210E+03 -1.14456E+03
 -6.25612E+03 -9.14050E+03  1.76077E+02 -1.28529E+04  7.92758E+03 -1.17448E+04  1.26029E+04 -3.85116E+03
  1.20375E+04  5.91305E+03  5.73300E+03  1.10692E+04 -2.73735E+03  1.29795E+04 -8.66781E+03  8.23634E+03
 -1.18040E+04  7.73065E+02 -9.21982E+03 -7.91568E+03 -6.41439E+02 -1.05256E+04  5.44559E+03 -7.89269E+03
  7.64438E+03 -2.35883E+03  5.76630E+03  2.07624E+03  1.87074E+03  3.73677E+03  1.42261E+03  2.17164E+03
  2.70875E+03  1.43632E+03  3.52616E+03  1.46507E+03  3.65190E+03  4.56583E+03  3.07765E+03  6.46124E+03
 -2.56114E+03  9.98274E+03 -8.77469E+03  9.96686E+03 -1.24868E+04  2.85780E+03 -1.26778E+04 -4.98473E+03
 -6.51395E+03 -1.24775E+04  1.85564E+03 -1.38569E+04  7.45985E+03 -8.87550E+03  1.02518E+04 -2.23334E+03
  8.18079E+03  4.90757E+03  1.71257E+03  7.20915E+03 -3.72739E+03  4.40503E+03 -4.54389E+03 -6.03355E+02
 -2.48830E+03 -5.12407E+03  2.72795E+03 -5.44256E+03  4.72729E+03 -2.75818E+03  4.97016E+03  1.13642E+03
  3.05047E+03  2.18533E+03  1.43853E+03  2.18642E+03 -7.93149E+02  1.70498E+03  1.83911E+03 -3.61756E+02
  1.78735E+03 -8.13967E+02  5.14421E+03  2.16821E+03  2.79321E+03  6.63822E+03 -1.19500E+03  8.39200E+03
 -5.94840E+03  5.76251E+03 -8.12656E+03  1.34919E+03 -6.97417E+03 -2.70945E+03 -2.59774E+03 -4.54866E+03
  9.37829E+02 -5.11852E+03  3.42662E+03 -2.39724E+03  2.78948E+03  2.28403E+03 -1.52639E+03  4.20328E+03
 -5.14352E+03  2.83047E+03 -5.72221E+03 -2.64700E+03 -3.00701E+03 -6.39714E+03  8.67033E+02 -6.99283E+03
  3.92703E+03 -3.85853E+03  4.87726E+03 -4.43490E+02  4.12805E+03  1.65857E+03  6.19598E+02  3.22294E+03
 -2.19624E+03  1.17026E+03 -2.92188E+03 -2.17651E+03  1.40390E+03 -5.04279E+03  5.99781E+03 -3.85081E+03
  7.44817E+03  2.61897E+02  7.53478E+03  5.22752E+03  2.65909E+03  7.52447E+03 -2.53982E+03  7.49650E+03
 -6.39493E+03  3.02166E+03 -6.63973E+03 -9.70469E+02 -4.00798E+03 -5.18635E+03  1.26055E+03 -4.60156E+03
  4.42831E+03 -2.30293E+03  4.40041E+03  2.45470E+03  1.26255E+03  4.47065E+03 -8.88997E+02  3.54791E+03
 -2.24397E+03  3.07954E+03 -1.73366E+03  9.47974E+02 -7.85288E+02  9.67478E+02 -1.39349E+03  1.70717E+03
 -2.06258E+03  3.21825E+03 -5.08002E+03  2.76451E+03 -7.90271E+03  2.65444E+02 -8.93540E+03 -5.09947E+03
 -4.54749E+03 -1.04436E+04  2.11007E+03 -1.18181E+04  7.07298E+03 -9.15322E+03  1.08632E+04 -3.13090E+03
  1.06134E+04  1.99957E+03  6.13561E+03  7.19544E+03  6.17974E+02  7.69879E+03 -3.00194E+03  6.11437E+03
 -4.47633E+03  2.11121E+03 -2.31580E+03 -1.01875E+03 -1.10423E+03 -6.81999E+02 -6.25681E+02  1.41942E+02
 -1.78004E+03  1.59514E+02 -2.25994E+03 -4.39887E+02 -3.20083E+02 -2.13676E+03 -2.00000E+00 -3.01238E+03
  3.63421E+03 -2.26493E+03  4.73063E+03  4.86178E+01  5.61785E+03  3.97143E+03  1.23166E+03  7.74454E+03
 -3.67991E+03  8.89081E+03 -8.17769E+03  5.14135E+03 -9.43769E+03 -5.24973E+02 -6.90549E+03 -5.51535E+03
 -3.10963E+03 -7.91303E+03  2.10488E+03 -7.35623E+03  5.12635E+03 -3.62290E+03  4.89285E+03  2.91428E+02
  2.88249E+03  2.07111E+03 -2.44865E+02  2.33262E+03 -1.61078E+03 -3.56871E+02  2.72372E+02 -1.99337E+03
  2.07236E+03 -8.07440E+02  3.12003E+03  1.17311E+03  2.01107E+03  3.08079E+03  9.33378E+01  3.87410E+03
 -3.47607E+03  3.08359E+03 -5.02751E+03  4.91786E+02 -4.74840E+03 -3.58694E+03 -4.71472E+02 -6.26789E+03
  3.60221E+03 -5.57991E+03  5.55992E+03 -1.39629E+03  5.71679E+03  1.62463E+03  3.17259E+03  4.51449E+03
  3.67224E+02  4.91640E+03 -2.02086E+03  3.77096E+03 -3.43979E+03  2.54245E+03 -2.37032E+03  3.95981E+02
 -1.52598E+03 -3.24772E+02 -1.60721E+03  4.55692E+02 -2.95621E+03  7.49812E+02 -4.29509E+03 -9.77097E+02
 -3.49226E+03 -2.49281E+03 -9.99404E+02 -5.29068E+03  2.60930E+03 -5.34569E+03  4.51264E+03 -2.50222E+03
  4.99507E+03  7.00055E+02  2.51166E+03  3.41951E+03 -4.66167E+02  4.88682E+03 -3.73926E+03  3.11133E+03
