 $NMID ID='MM_0lb_SNR800_13hz_g60_12.RAW', FMTDAT='(8E13.5)'
 TRAMP=1., VOLUME=1. $END
  3.09875E+05  3.61997E+02  3.37753E+05  2.50677E+05  8.44855E+04  3.38291E+05 -1.32740E+05  2.51704E+05
 -1.90701E+05  8.37280E+04 -1.12180E+05 -3.23482E+04  5.69370E+02 -5.05954E+04  5.41821E+04 -1.62729E+02
  3.56833E+04  5.28549E+04 -1.66689E+04  7.57854E+04 -6.11073E+04  6.41458E+04 -8.47990E+04  3.23509E+04
 -8.17924E+04 -1.16134E+04 -5.74618E+04 -5.18228E+04 -1.47727E+04 -7.05001E+04  2.77259E+04 -4.64923E+04
  4.06805E+04  3.98958E+03  1.62304E+04  4.83942E+04 -3.46517E+04  4.73977E+04 -6.73564E+04  1.03623E+02
 -5.43090E+04 -5.75555E+04 -7.20878E+03 -7.81799E+04  3.44683E+04 -5.60993E+04  4.92243E+04 -1.76184E+04
  4.44123E+04  1.10830E+04  3.24368E+04  2.61289E+04  1.58568E+04  3.03250E+04 -5.49907E+03  2.75681E+04
 -2.21392E+04  1.20964E+04 -1.82737E+04 -5.28456E+03  6.41219E+03 -7.54330E+03  2.31853E+04  1.28551E+04
  7.26624E+03  3.67429E+04 -3.29049E+04  3.63757E+04 -6.49110E+04  2.13586E+03 -5.81537E+04 -4.35005E+04
 -1.26250E+04 -6.50474E+04  4.07155E+04 -4.66208E+04  5.96842E+04 -2.60618E+03  3.56516E+04  3.36781E+04
 -5.58549E+03  3.76537E+04 -3.08879E+04  1.74397E+04 -3.18879E+04 -3.99580E+03 -1.81089E+04 -1.13541E+04
 -9.08593E+03 -1.41522E+04 -7.41335E+02 -1.92093E+04  8.09541E+03 -2.33648E+04  1.56877E+04 -1.29928E+04
  1.04812E+04  5.98914E+03 -9.55720E+03  1.27877E+04 -2.25667E+04 -5.65170E+03 -8.30633E+03 -3.56334E+04
  2.43436E+04 -4.57111E+04  5.00275E+04 -2.03011E+04  4.70540E+04  2.02277E+04  1.68364E+04  4.59055E+04
 -1.64820E+04  3.50013E+04 -2.65890E+04  2.32309E+03 -1.09313E+04 -2.89265E+04  2.13782E+04 -3.54112E+04
  4.26633E+04 -1.00994E+04  3.81451E+04  2.44622E+04  1.94658E+04  4.86750E+04 -8.13853E+03  5.30572E+04
 -3.37051E+04  3.61452E+04 -4.47271E+04  1.00770E+04 -4.51458E+04 -1.77177E+04 -2.43684E+04 -3.99960E+04
  7.62758E+03 -4.00863E+04  3.28650E+04 -1.59214E+04  3.07658E+04  1.09798E+04  4.91198E+03  2.02911E+04
 -1.36021E+04  8.98362E+03 -1.08258E+04 -7.77283E+03  5.67942E+03 -1.12886E+04  1.80034E+04  5.95336E+03
  1.42223E+04  2.22755E+04 -5.85215E+03  2.60770E+04 -2.32136E+04  1.27646E+04 -3.01288E+04 -4.01656E+03
 -2.27202E+04 -1.78226E+04 -9.95182E+03 -2.27397E+04  4.03477E+03 -2.23937E+04  1.76622E+04 -2.04775E+04
  2.89369E+04 -1.36046E+04  3.52500E+04  3.92019E+03  2.55913E+04  2.21315E+04  4.61955E+03  3.89566E+04
 -1.88678E+04  3.13443E+04 -2.92488E+04  1.11169E+04 -2.11651E+04 -1.03452E+04 -4.79454E+03 -1.34566E+04
  1.38627E+03 -2.25561E+03 -5.99836E+03  7.13447E+03 -1.77466E+04  5.11296E+03 -1.79548E+04 -8.39470E+03
 -1.10589E+04 -2.10300E+04  5.61751E+03 -2.51087E+04  1.68148E+04 -1.80728E+04  2.00952E+04 -1.98108E+03
  1.28721E+04  1.45636E+04 -9.04486E+02  2.06184E+04 -1.46606E+04  1.21393E+04 -2.10315E+04 -4.40533E+03
 -1.53244E+04 -1.88033E+04 -1.86925E+03 -2.52852E+04  1.13440E+04 -2.06870E+04  2.10061E+04 -1.08113E+04
  1.99703E+04 -1.46571E+02  1.45344E+04  5.03464E+03  7.44107E+03  1.25915E+03  1.07208E+04 -1.70741E+03
  1.95173E+04  2.79744E+03  2.19792E+04  1.61874E+04  1.46969E+04  3.34866E+04 -2.55744E+03  3.86203E+04
 -2.19193E+04  3.13965E+04 -3.59769E+04  1.60878E+04 -3.82710E+04 -3.23841E+03 -3.11549E+04 -2.19463E+04
 -1.33518E+04 -3.19237E+04  1.10203E+04 -2.80667E+04  2.44814E+04 -1.40821E+04  2.15358E+04  6.40166E+03
  7.37628E+03  1.61743E+04 -1.02303E+04  1.37034E+04 -1.79347E+04  2.79537E+03 -1.37035E+04 -1.11937E+04
 -1.10527E+02 -1.65511E+04  8.91451E+03 -1.25532E+04  1.16964E+04 -1.25377E+03  2.86766E+03  7.48621E+03
 -7.62293E+03  3.29774E+03 -7.10039E+03 -6.34643E+03 -1.16466E+03 -1.53881E+04  1.03873E+04 -1.60388E+04
  1.94545E+04 -8.92395E+03  2.14002E+04  3.14140E+03  1.85721E+04  1.52758E+04  8.68956E+03  2.39422E+04
 -4.42934E+03  2.61164E+04 -1.66310E+04  1.60643E+04 -1.84030E+04  3.74040E+03 -1.31463E+04 -4.85348E+03
 -5.72770E+03 -5.82472E+03 -7.16318E+02  8.04943E+02 -2.59497E+03  2.87684E+03 -6.14858E+03  4.94819E+03
 -1.20306E+04 -7.45013E+02 -1.25653E+04 -9.89693E+03 -4.81117E+03 -1.64599E+04  5.37939E+03 -1.30868E+04
  1.04932E+04 -5.28519E+03  7.68410E+03  3.14603E+03  1.44226E+02  5.01249E+03 -5.89553E+03 -2.26151E+02
 -5.92302E+03 -7.93903E+03 -1.02038E+03 -1.22484E+04  7.09723E+03 -1.32355E+04  1.63893E+04 -6.78190E+03
  1.90494E+04  1.41325E+03  1.39821E+04  1.10795E+04  2.82137E+03  1.51749E+04 -7.62789E+03  1.31435E+04
 -1.04163E+04  4.16700E+03 -5.39750E+03 -2.62987E+03  1.96944E+03 -3.42130E+03  7.02967E+03 -8.06682E+02
  6.34530E+03  5.60580E+03  7.61045E+02  1.00704E+04 -7.38492E+03  1.01599E+04 -1.25439E+04  2.23566E+03
 -8.31561E+03 -6.42225E+03  1.90698E+02 -1.08833E+04  6.85063E+03 -5.50631E+03  7.13671E+03  2.53738E+03
  1.50163E+03  7.22486E+03 -6.54755E+03  8.73189E+03 -1.00493E+04  3.84103E+03 -9.96935E+03 -3.44795E+03
 -6.13341E+03 -1.18540E+04  2.89826E+03 -1.36558E+04  1.16124E+04 -8.28277E+03  1.30383E+04  2.24642E+03
  7.52486E+03  1.01595E+04 -7.40293E+02  1.23946E+04 -8.87855E+03  7.12145E+03 -9.85741E+03 -9.07287E+02
 -8.38278E+03 -8.58232E+03 -1.85456E+03 -9.11139E+03  4.75947E+03 -7.55749E+03  5.65540E+03 -3.30241E+03
  4.37516E+03  1.24028E+03 -5.99128E+02  1.52474E+03 -4.66586E+02 -2.37553E+03  1.46189E+03 -5.29589E+03
  8.15656E+03 -3.18212E+03  1.17727E+04  1.27915E+03  1.14250E+04  7.45802E+03  7.85883E+03  1.50253E+04
 -3.44716E+03  1.74483E+04 -1.46288E+04  1.29684E+04 -1.89759E+04  2.41951E+03 -1.51121E+04 -6.26806E+03
 -7.53347E+03 -1.24674E+04 -2.36908E+02 -1.05728E+04  3.68111E+03 -5.59765E+03  3.56743E+03 -4.28990E+03
  2.42614E+03 -2.16878E+03  2.97677E+03 -3.09192E+03  5.11665E+03 -2.63028E+03  6.03937E+03 -7.95404E+02
  7.93350E+03  2.13130E+03  3.77974E+03  6.52204E+03 -2.08310E+03  7.55363E+03 -8.06622E+03  6.17318E+03
 -1.05205E+04 -1.38704E+03 -6.17583E+03 -7.48592E+03 -6.59734E+02 -1.08366E+04  6.36470E+03 -1.12094E+04
  1.12938E+04 -6.20414E+03  1.34455E+04  1.67835E+03  9.76148E+03  9.26590E+03  1.50035E+03  1.22762E+04
 -5.17409E+03  1.07677E+04 -7.11929E+03  3.65210E+03 -4.88806E+03 -1.61066E+03 -1.99572E+03 -1.40975E+03
 -1.22913E+03  1.24952E+02 -1.93264E+03  2.17171E+03 -4.66991E+03  1.85166E+03 -7.48276E+03 -1.11338E+03
 -4.61099E+03 -7.62260E+03  3.10466E+02 -1.00065E+04  5.89979E+03 -9.34701E+03  9.46166E+03 -2.59733E+03
  9.45592E+03  5.09031E+03  3.87455E+03  8.38328E+03 -1.93997E+03  1.02307E+04 -6.77855E+03  6.15077E+03
 -9.04321E+03  8.30614E+02 -7.09080E+03 -6.00993E+03 -8.63310E+02 -8.25010E+03  3.89703E+03 -6.21314E+03
  6.31178E+03 -2.44115E+03  3.92504E+03  1.02673E+03  1.26807E+03  2.97882E+03  1.35199E+03  1.35993E+03
  2.41718E+03  1.03650E+03  2.87544E+03  1.50114E+03  2.78458E+03  3.99150E+03  2.65869E+03  4.81220E+03
 -2.20612E+03  7.14238E+03 -6.39648E+03  8.45196E+03 -9.52134E+03  2.16951E+03 -9.84160E+03 -3.40484E+03
 -4.75497E+03 -9.87196E+03  1.32117E+03 -1.06917E+04  5.62506E+03 -6.60690E+03  7.70605E+03 -1.85798E+03
  6.05588E+03  3.44999E+03  1.26788E+03  5.71126E+03 -2.61794E+03  3.65905E+03 -3.53676E+03 -4.36801E+02
 -1.74933E+03 -4.06112E+03  2.19513E+03 -4.19771E+03  3.75404E+03 -2.35287E+03  3.78495E+03  6.44726E+02
  2.17331E+03  1.70226E+03  1.09041E+03  1.08901E+03 -6.91307E+02  1.45568E+03  1.60327E+03 -1.96419E+02
  1.19225E+03 -3.46356E+02  3.79433E+03  1.45929E+03  1.56267E+03  4.89920E+03 -8.45607E+02  6.68232E+03
 -4.66413E+03  3.79079E+03 -5.90101E+03  1.31928E+03 -5.15201E+03 -2.18968E+03 -1.35109E+03 -3.51801E+03
  8.30315E+02 -3.85362E+03  2.34614E+03 -1.95563E+03  2.16841E+03  1.97592E+03 -7.94728E+02  2.80262E+03
 -3.60292E+03  1.71870E+03 -3.85773E+03 -1.96364E+03 -2.58143E+03 -4.86771E+03  7.26791E+02 -4.83116E+03
  2.52953E+03 -2.84575E+03  3.06641E+03  2.72055E+02  2.90644E+03  1.00527E+03  5.04360E+02  2.46869E+03
 -1.79895E+03  5.30747E+02 -1.93711E+03 -1.28418E+03  1.07916E+03 -3.23449E+03  4.70424E+03 -3.01651E+03
  4.98298E+03  2.69511E+02  6.02487E+03  3.11476E+03  2.00928E+03  5.46640E+03 -1.65241E+03  5.15022E+03
 -4.54081E+03  2.04933E+03 -4.86937E+03 -4.63471E+02 -2.30508E+03 -3.55734E+03  8.07769E+02 -3.21277E+03
  3.54471E+03 -1.35163E+03  2.81018E+03  1.53445E+03  8.40394E+02  3.01874E+03  1.66717E+02  2.87364E+03
 -1.20287E+03  2.35074E+03 -1.14712E+03  4.37100E+02 -4.87678E+02  6.73887E+02 -1.05181E+03  1.71784E+03
 -1.65589E+03  1.88235E+03 -3.56388E+03  2.02046E+03 -5.20289E+03  1.37191E+02 -6.35389E+03 -3.45848E+03
 -3.45685E+03 -7.05014E+03  1.29533E+03 -8.02786E+03  4.94667E+03 -6.81687E+03  8.07269E+03 -2.39149E+03
  7.36421E+03  1.10572E+03  4.20314E+03  4.90564E+03 -7.62764E+01  5.23799E+03 -2.43746E+03  3.99647E+03
 -2.96645E+03  1.74052E+03 -1.56184E+03 -5.57009E+02 -7.53799E+02 -1.48431E+02 -8.21008E+02 -3.81331E+02
 -1.56051E+03  6.21109E+01 -1.25778E+03 -7.29701E+01 -1.79775E+02 -1.42130E+03 -2.14536E+02 -2.45155E+03
  2.37915E+03 -1.73307E+03  3.03460E+03 -1.23671E+02  3.73306E+03  3.03663E+03  7.88658E+02  5.04225E+03
 -2.80757E+03  6.31018E+03 -5.36520E+03  3.11468E+03 -5.94110E+03 -4.86288E+02 -4.56099E+03 -3.99770E+03
 -2.43704E+03 -5.37038E+03  1.52169E+03 -4.73109E+03  3.16032E+03 -2.79058E+03  3.30550E+03  3.77375E+01
  1.82473E+03  1.68050E+03 -1.26968E+02  1.50984E+03 -8.68907E+02 -2.93084E+02  2.09083E+02 -9.81925E+02
  1.84090E+03 -8.35500E+02  1.75310E+03  9.74253E+02  9.15032E+02  1.74031E+03  2.81846E+02  2.33480E+03
 -2.30420E+03  2.37618E+03 -2.97860E+03  1.12811E+02 -3.01542E+03 -2.34008E+03 -4.56109E+02 -3.88901E+03
  2.03276E+03 -3.47646E+03  3.42687E+03 -5.91674E+02  3.42234E+03  5.63076E+02  2.07361E+03  2.69768E+03
  7.82200E+02  3.14835E+03 -1.29659E+03  2.39513E+03 -1.98138E+03  1.61824E+03 -1.71741E+03  2.60969E+02
 -7.88551E+02 -1.71937E+02 -1.02485E+03  5.40774E+02 -2.03696E+03  6.51813E+02 -2.75033E+03 -9.25442E+02
 -2.45529E+03 -1.30932E+03 -6.76521E+02 -3.28531E+03  1.85357E+03 -3.37446E+03  2.76867E+03 -1.43134E+03
  2.97641E+03  3.58451E+02  1.19108E+03  1.96558E+03  9.31896E+01  3.06450E+03 -2.52950E+03  2.26324E+03
