 $NMID ID='MM_0lb_SNR800_8hz_g40_70.RAW', FMTDAT='(8E13.5)'
 TRAMP=1., VOLUME=1. $END
  3.10178E+05  3.99335E+02  3.37366E+05  2.50699E+05  8.49444E+04  3.38530E+05 -1.32614E+05  2.52307E+05
 -1.90886E+05  8.36916E+04 -1.12548E+05 -3.24716E+04  4.34399E+02 -5.08626E+04  5.34393E+04 -3.62219E+02
  3.54297E+04  5.28181E+04 -1.66367E+04  7.62572E+04 -6.15159E+04  6.46667E+04 -8.50961E+04  3.20340E+04
 -8.26525E+04 -1.18982E+04 -5.83126E+04 -5.23944E+04 -1.52623E+04 -7.11804E+04  2.83619E+04 -4.66125E+04
  4.11623E+04  3.45482E+03  1.70113E+04  4.86313E+04 -3.51096E+04  4.86404E+04 -6.82944E+04  2.99696E+02
 -5.51564E+04 -5.77183E+04 -7.32629E+03 -7.90953E+04  3.48411E+04 -5.74366E+04  4.96742E+04 -1.82753E+04
  4.50179E+04  1.16705E+04  3.28533E+04  2.66743E+04  1.59925E+04  3.07315E+04 -6.07002E+03  2.76838E+04
 -2.22965E+04  1.19551E+04 -1.83881E+04 -5.82519E+03  7.08850E+03 -7.52953E+03  2.34795E+04  1.41950E+04
  7.30172E+03  3.75228E+04 -3.37126E+04  3.71425E+04 -6.57960E+04  2.18740E+03 -5.89095E+04 -4.47441E+04
 -1.30845E+04 -6.63764E+04  4.16160E+04 -4.71417E+04  6.09466E+04 -2.38150E+03  3.69091E+04  3.47696E+04
 -5.08748E+03  3.95441E+04 -3.20397E+04  1.90631E+04 -3.33237E+04 -3.48782E+03 -1.90572E+04 -1.19047E+04
 -9.74917E+03 -1.51525E+04 -2.31099E+02 -1.97036E+04  8.62926E+03 -2.39331E+04  1.62085E+04 -1.25941E+04
  1.07659E+04  6.27551E+03 -1.06404E+04  1.25594E+04 -2.35753E+04 -6.44172E+03 -8.59982E+03 -3.77646E+04
  2.51759E+04 -4.70307E+04  5.24197E+04 -2.10061E+04  4.88014E+04  2.11768E+04  1.74122E+04  4.72446E+04
 -1.70422E+04  3.62809E+04 -2.77117E+04  2.41155E+03 -1.18970E+04 -2.96376E+04  2.15079E+04 -3.69755E+04
  4.46202E+04 -1.09974E+04  4.05304E+04  2.49948E+04  2.14633E+04  5.11694E+04 -8.26948E+03  5.61204E+04
 -3.54039E+04  3.78732E+04 -4.78543E+04  1.08764E+04 -4.75954E+04 -1.85473E+04 -2.66002E+04 -4.20694E+04
  7.67821E+03 -4.19404E+04  3.43804E+04 -1.68964E+04  3.24036E+04  1.12859E+04  5.03813E+03  2.08934E+04
 -1.35940E+04  9.68546E+03 -1.13983E+04 -7.32131E+03  5.71363E+03 -1.09970E+04  1.87592E+04  5.06755E+03
  1.45948E+04  2.29496E+04 -5.01747E+03  2.71479E+04 -2.33972E+04  1.41627E+04 -3.16070E+04 -3.15315E+03
 -2.56986E+04 -1.85987E+04 -1.15378E+04 -2.56476E+04  4.20731E+03 -2.57168E+04  1.99969E+04 -2.30997E+04
  3.23618E+04 -1.43577E+04  3.80844E+04  4.99627E+03  2.72168E+04  2.46181E+04  4.08390E+03  4.17838E+04
 -2.00840E+04  3.41411E+04 -3.03115E+04  1.19800E+04 -2.22946E+04 -1.00239E+04 -4.96338E+03 -1.29778E+04
  6.89459E+02 -8.41567E+02 -7.95181E+03  8.35226E+03 -2.01345E+04  5.09657E+03 -1.99941E+04 -9.51225E+03
 -1.15556E+04 -2.35644E+04  6.11467E+03 -2.80377E+04  1.85078E+04 -2.01323E+04  2.28599E+04 -1.56303E+03
  1.46870E+04  1.64201E+04 -1.35682E+03  2.35812E+04 -1.69203E+04  1.36132E+04 -2.39893E+04 -5.21145E+03
 -1.75780E+04 -2.09272E+04 -1.94775E+03 -2.82511E+04  1.29731E+04 -2.34377E+04  2.32623E+04 -1.26239E+04
  2.25558E+04 -5.42057E+02  1.60315E+04  4.89083E+03  9.16314E+03  1.55405E+03  1.25692E+04 -2.18604E+03
  2.22879E+04  2.98536E+03  2.56929E+04  1.85579E+04  1.78550E+04  3.81690E+04 -2.52895E+03  4.48765E+04
 -2.59385E+04  3.74201E+04 -4.25965E+04  1.96020E+04 -4.56805E+04 -3.40808E+03 -3.66489E+04 -2.64332E+04
 -1.47164E+04 -3.76269E+04  1.32295E+04 -3.33092E+04  2.82892E+04 -1.49778E+04  2.48053E+04  7.89655E+03
  8.21838E+03  1.89211E+04 -1.19788E+04  1.55890E+04 -2.03630E+04  2.68611E+03 -1.53153E+04 -1.36124E+04
 -3.67204E+01 -1.94279E+04  1.05634E+04 -1.45094E+04  1.36182E+04 -1.09874E+03  3.65638E+03  8.59981E+03
 -8.25006E+03  4.75828E+03 -9.18791E+03 -7.24217E+03 -1.86859E+03 -1.85524E+04  1.25229E+04 -2.05121E+04
  2.31332E+04 -1.12169E+04  2.68827E+04  3.68585E+03  2.38667E+04  1.82380E+04  1.08536E+04  2.98770E+04
 -5.98966E+03  3.18047E+04 -2.09567E+04  1.97978E+04 -2.29477E+04  4.12132E+03 -1.54867E+04 -6.00072E+03
 -6.55272E+03 -7.75820E+03 -5.01753E+02  2.03456E+02 -3.33062E+03  3.27833E+03 -7.57154E+03  5.38056E+03
 -1.43709E+04 -1.17412E+03 -1.51774E+04 -1.23354E+04 -6.24310E+03 -1.94128E+04  6.72225E+03 -1.61869E+04
  1.29492E+04 -6.53890E+03  8.97969E+03  4.59863E+03 -4.03716E+02  6.40265E+03 -7.79207E+03 -1.51163E+02
 -8.05454E+03 -1.06691E+04 -1.15163E+03 -1.55730E+04  9.48899E+03 -1.70745E+04  2.03874E+04 -8.89926E+03
  2.40701E+04  1.89875E+03  1.76011E+04  1.46510E+04  2.89778E+03  1.96614E+04 -9.97585E+03  1.59609E+04
 -1.25020E+04  4.83601E+03 -6.78996E+03 -3.64554E+03  2.61270E+03 -4.92591E+03  8.25490E+03 -1.18273E+03
  7.67133E+03  7.09661E+03  1.46105E+03  1.29273E+04 -9.25918E+03  1.25154E+04 -1.59419E+04  2.96206E+03
 -1.09420E+04 -8.72824E+03  4.37685E+02 -1.36499E+04  8.99439E+03 -7.22526E+03  9.78651E+03  3.72891E+03
  1.91280E+03  1.03452E+04 -8.60330E+03  1.20381E+04 -1.40111E+04  5.12277E+03 -1.42800E+04 -5.66086E+03
 -8.58426E+03 -1.65432E+04  4.27804E+03 -1.88452E+04  1.59598E+04 -1.15515E+04  1.73945E+04  3.03679E+03
  1.01439E+04  1.34009E+04 -1.69894E+03  1.58356E+04 -1.22670E+04  8.99529E+03 -1.34369E+04 -1.27220E+03
 -1.11089E+04 -1.08881E+04 -1.45091E+03 -1.29218E+04  6.52834E+03 -1.03180E+04  8.03885E+03 -3.93522E+03
  4.86311E+03  2.58703E+03 -1.30574E+03  2.03656E+03 -8.44204E+02 -3.39889E+03  3.22142E+03 -8.11069E+03
  1.22143E+04 -5.08882E+03  1.65315E+04  1.77918E+03  1.63760E+04  1.16042E+04  1.05172E+04  2.15931E+04
 -5.34208E+03  2.50181E+04 -2.09002E+04  1.84368E+04 -2.70114E+04  3.46905E+03 -2.17810E+04 -9.44790E+03
 -1.08582E+04 -1.75107E+04  7.04262E+01 -1.46442E+04  4.92827E+03 -8.87544E+03  5.86802E+03 -5.44632E+03
  3.84636E+03 -3.19663E+03  4.17338E+03 -3.78643E+03  6.24856E+03 -3.70921E+03  8.59633E+03 -1.72389E+03
  1.08679E+04  2.78877E+03  6.46063E+03  9.91312E+03 -2.09828E+03  1.21153E+04 -1.23559E+04  9.02632E+03
 -1.54535E+04 -1.27289E+03 -1.00417E+04 -1.09002E+04 -1.45677E+03 -1.66192E+04  9.26757E+03 -1.67828E+04
  1.73950E+04 -9.10226E+03  2.03556E+04  2.95802E+03  1.42494E+04  1.46534E+04  2.09133E+03  1.83196E+04
 -8.33569E+03  1.48689E+04 -1.07840E+04  5.05340E+03 -7.47896E+03 -1.71811E+03 -3.29238E+03 -2.52547E+03
 -1.56595E+03 -1.04476E+02 -2.34498E+03  3.47923E+03 -6.50522E+03  2.51582E+03 -1.11312E+04 -1.76474E+03
 -7.88467E+03 -1.07720E+04 -1.62361E+02 -1.55263E+04  9.27594E+03 -1.45133E+04  1.53325E+04 -4.56483E+03
  1.54617E+04  7.38271E+03  7.11053E+03  1.36826E+04 -3.24331E+03  1.56321E+04 -1.11485E+04  9.81767E+03
 -1.52192E+04  8.16228E+02 -1.11570E+04 -9.63971E+03 -1.12704E+03 -1.32008E+04  6.98333E+03 -1.00928E+04
  1.01907E+04 -3.29720E+03  6.99083E+03  2.86607E+03  2.46356E+03  4.95693E+03  1.14043E+03  2.48193E+03
  3.02028E+03  1.43846E+03  3.54521E+03  2.00161E+03  4.40613E+03  5.22893E+03  4.12537E+03  8.24530E+03
 -3.18288E+03  1.29253E+04 -1.11653E+04  1.28775E+04 -1.62240E+04  3.57834E+03 -1.66162E+04 -6.54445E+03
 -8.17528E+03 -1.59817E+04  2.04771E+03 -1.78017E+04  9.77521E+03 -1.13564E+04  1.30657E+04 -3.41200E+03
  1.03888E+04  5.61601E+03  1.95854E+03  9.17318E+03 -4.28692E+03  5.70093E+03 -6.75095E+03 -1.04976E+03
 -3.11995E+03 -7.12365E+03  3.53962E+03 -6.96546E+03  6.37327E+03 -3.76201E+03  7.14272E+03  1.50582E+03
  4.19131E+03  3.43138E+03  1.67037E+03  2.98462E+03 -5.54962E+02  2.46476E+03  1.58862E+03 -3.60564E+02
  2.86189E+03 -1.08312E+03  6.89319E+03  2.54625E+03  4.09055E+03  8.64995E+03 -1.26723E+03  1.14022E+04
 -7.84658E+03  8.10438E+03 -1.08629E+04  1.83922E+03 -8.77235E+03 -3.77965E+03 -3.47856E+03 -6.91956E+03
  1.18465E+03 -6.60656E+03  4.44791E+03 -2.90184E+03  3.57429E+03  3.31602E+03 -1.97994E+03  5.01176E+03
 -6.82426E+03  3.21330E+03 -7.83510E+03 -3.70308E+03 -4.22385E+03 -8.80362E+03  1.31844E+03 -9.16953E+03
  5.40519E+03 -5.71490E+03  7.06549E+03 -5.41873E+02  5.49061E+03  2.41777E+03  5.55325E+02  4.69494E+03
 -3.74167E+03  1.34022E+03 -3.84683E+03 -3.22712E+03  1.38496E+03 -7.16118E+03  8.33871E+03 -5.94779E+03
  1.01055E+04  8.12488E+02  1.02687E+04  7.06936E+03  3.20979E+03  1.16074E+04 -4.22050E+03  1.05353E+04
 -9.03094E+03  4.75005E+03 -9.31200E+03 -1.53988E+03 -4.98544E+03 -6.75192E+03  1.46911E+03 -6.51268E+03
  6.93041E+03 -3.28335E+03  6.41039E+03  3.05147E+03  1.79510E+03  6.02404E+03 -6.60105E+02  5.00009E+03
 -2.87691E+03  3.53385E+03 -2.16090E+03  1.25462E+03 -9.35015E+02  1.49273E+03 -1.50902E+03  2.10854E+03
 -2.98876E+03  4.08193E+03 -7.20110E+03  3.79665E+03 -1.12375E+04  8.40041E+01 -1.20356E+04 -7.34589E+03
 -6.39666E+03 -1.46846E+04  2.51748E+03 -1.70043E+04  1.08317E+04 -1.32062E+04  1.62130E+04 -5.22874E+03
  1.51373E+04  3.17859E+03  8.93330E+03  1.03573E+04  7.81567E+02  1.15348E+04 -4.91887E+03  8.72883E+03
 -6.33368E+03  3.27593E+03 -4.13558E+03 -1.24723E+03 -1.31716E+03 -1.23387E+03 -6.05083E+02 -1.33364E+02
 -1.79596E+03  5.83838E+02 -2.46185E+03 -4.29232E+01 -8.08609E+02 -2.61894E+03  1.82865E+02 -4.29138E+03
  4.94238E+03 -3.56860E+03  6.81180E+03  6.82417E+01  8.43440E+03  6.68007E+03  2.56954E+03  1.18615E+04
 -5.29502E+03  1.33934E+04 -1.27684E+04  7.94859E+03 -1.42248E+04 -1.16176E+03 -1.06277E+04 -8.60638E+03
 -4.35638E+03 -1.22591E+04  3.26734E+03 -1.07616E+04  7.52436E+03 -5.88046E+03  8.08517E+03  2.77954E+02
  4.27820E+03  4.21476E+03 -4.70187E+02  3.40437E+03 -2.42331E+03 -1.34025E+02  3.86342E+01 -2.72411E+03
  3.72634E+03 -2.19773E+03  4.56194E+03  1.61316E+03  3.16162E+03  4.54803E+03  4.39370E+01  6.17374E+03
 -5.16038E+03  5.44405E+03 -7.40597E+03  7.24755E+02 -7.24146E+03 -5.83637E+03 -1.23513E+03 -9.66793E+03
  5.70651E+03 -8.21640E+03  9.09031E+03 -2.91407E+03  9.40229E+03  2.12952E+03  5.62374E+03  7.08782E+03
  1.07394E+03  7.77424E+03 -2.84195E+03  6.83088E+03 -5.12839E+03  3.22235E+03 -4.26598E+03  6.26255E+02
 -2.08398E+03  8.84565E+00 -1.95266E+03  1.19935E+03 -4.07873E+03  1.12784E+03 -6.12706E+03 -1.42340E+03
 -5.59082E+03 -4.58926E+03 -1.76548E+03 -8.54310E+03  3.89477E+03 -8.76250E+03  7.28674E+03 -4.04069E+03
  8.32331E+03  1.17723E+03  4.27769E+03  6.07502E+03 -5.52500E+02  8.56114E+03 -6.36733E+03  5.52202E+03
