 $NMID ID='MM_0lb_SNR800_10hz_g40_19.RAW', FMTDAT='(8E13.5)'
 TRAMP=1., VOLUME=1. $END
  3.10002E+05  5.73912E+02  3.37749E+05  2.50782E+05  8.46996E+04  3.38605E+05 -1.32686E+05  2.51596E+05
 -1.90654E+05  8.35359E+04 -1.11704E+05 -3.21653E+04  3.98051E+02 -5.09198E+04  5.35067E+04 -2.95781E+02
  3.54234E+04  5.28129E+04 -1.65174E+04  7.57263E+04 -6.08178E+04  6.39755E+04 -8.47499E+04  3.24210E+04
 -8.22605E+04 -1.13718E+04 -5.78215E+04 -5.20417E+04 -1.51464E+04 -7.03910E+04  2.77784E+04 -4.62993E+04
  4.07757E+04  3.86648E+03  1.64963E+04  4.83155E+04 -3.44137E+04  4.78694E+04 -6.76480E+04 -6.69945E+01
 -5.45508E+04 -5.73235E+04 -7.03441E+03 -7.81528E+04  3.44817E+04 -5.59821E+04  4.90449E+04 -1.77968E+04
  4.49000E+04  1.12205E+04  3.27786E+04  2.61717E+04  1.57317E+04  3.06872E+04 -5.57731E+03  2.76207E+04
 -2.23072E+04  1.25826E+04 -1.86340E+04 -5.63438E+03  6.26997E+03 -7.41086E+03  2.33146E+04  1.29472E+04
  7.06054E+03  3.66889E+04 -3.28106E+04  3.65724E+04 -6.47895E+04  2.06561E+03 -5.80410E+04 -4.38333E+04
 -1.25651E+04 -6.46972E+04  4.05861E+04 -4.64503E+04  5.97863E+04 -2.50891E+03  3.54082E+04  3.34914E+04
 -5.77274E+03  3.79524E+04 -3.11665E+04  1.73870E+04 -3.18539E+04 -3.66526E+03 -1.84132E+04 -1.17578E+04
 -9.15006E+03 -1.45749E+04 -6.10532E+02 -1.89142E+04  7.98436E+03 -2.33213E+04  1.53215E+04 -1.31613E+04
  1.06710E+04  5.90191E+03 -9.64760E+03  1.28463E+04 -2.28323E+04 -5.67763E+03 -8.24141E+03 -3.58022E+04
  2.44894E+04 -4.54745E+04  5.05049E+04 -2.00792E+04  4.71926E+04  2.03121E+04  1.66434E+04  4.54945E+04
 -1.61088E+04  3.48918E+04 -2.66468E+04  2.19203E+03 -1.06481E+04 -2.88970E+04  2.12572E+04 -3.57084E+04
  4.30036E+04 -1.03244E+04  3.82134E+04  2.45948E+04  1.99249E+04  4.90813E+04 -7.91257E+03  5.37971E+04
 -3.40044E+04  3.64494E+04 -4.51205E+04  1.04783E+04 -4.55943E+04 -1.76945E+04 -2.55031E+04 -4.03726E+04
  7.58128E+03 -4.02757E+04  3.31588E+04 -1.60843E+04  3.10520E+04  1.14409E+04  4.57753E+03  2.01112E+04
 -1.34496E+04  8.99695E+03 -1.08151E+04 -7.15480E+03  5.58055E+03 -1.10347E+04  1.83147E+04  5.84033E+03
  1.40675E+04  2.21803E+04 -5.46841E+03  2.61075E+04 -2.28638E+04  1.30715E+04 -3.01548E+04 -3.50762E+03
 -2.32171E+04 -1.83844E+04 -1.06465E+04 -2.28031E+04  3.88836E+03 -2.34512E+04  1.82505E+04 -2.09414E+04
  2.96069E+04 -1.38143E+04  3.58393E+04  4.00124E+03  2.55366E+04  2.28337E+04  4.25948E+03  3.90711E+04
 -1.91466E+04  3.22418E+04 -2.95891E+04  1.13562E+04 -2.13438E+04 -1.00771E+04 -4.42054E+03 -1.33199E+04
  1.05664E+03 -2.03022E+03 -6.78964E+03  7.56329E+03 -1.90103E+04  5.03821E+03 -1.89191E+04 -8.49624E+03
 -1.13774E+04 -2.14116E+04  5.87046E+03 -2.57581E+04  1.72318E+04 -1.86727E+04  2.12555E+04 -1.73555E+03
  1.32966E+04  1.52815E+04 -1.06805E+03  2.18173E+04 -1.50020E+04  1.20894E+04 -2.21232E+04 -4.51358E+03
 -1.61315E+04 -1.95553E+04 -2.23215E+03 -2.62220E+04  1.20595E+04 -2.13952E+04  2.14432E+04 -1.11067E+04
  2.03930E+04 -1.94866E+02  1.46718E+04  4.76348E+03  7.90625E+03  1.34768E+03  1.12015E+04 -2.18469E+03
  2.00540E+04  2.57931E+03  2.33536E+04  1.70145E+04  1.58045E+04  3.50386E+04 -2.75709E+03  4.02995E+04
 -2.34486E+04  3.33366E+04 -3.78418E+04  1.69542E+04 -3.99814E+04 -2.46753E+03 -3.29675E+04 -2.37522E+04
 -1.34595E+04 -3.35713E+04  1.21166E+04 -2.99215E+04  2.53132E+04 -1.46547E+04  2.24764E+04  6.66633E+03
  8.07710E+03  1.68601E+04 -1.10588E+04  1.40379E+04 -1.83628E+04  2.54153E+03 -1.40664E+04 -1.18014E+04
 -1.23086E+02 -1.81707E+04  9.80140E+03 -1.31706E+04  1.24511E+04 -1.36654E+03  3.32411E+03  8.03853E+03
 -8.01466E+03  3.73046E+03 -7.93600E+03 -6.32188E+03 -1.27702E+03 -1.60442E+04  1.10677E+04 -1.73092E+04
  2.06539E+04 -1.00047E+04  2.28569E+04  3.04262E+03  1.99687E+04  1.66127E+04  9.35639E+03  2.57398E+04
 -4.69500E+03  2.78067E+04 -1.80094E+04  1.71816E+04 -2.00595E+04  3.60484E+03 -1.39847E+04 -5.11300E+03
 -6.33355E+03 -6.18750E+03 -4.58542E+02  9.55803E+02 -2.73638E+03  2.88909E+03 -6.51269E+03  5.10318E+03
 -1.28389E+04 -8.42381E+02 -1.39436E+04 -1.07888E+04 -5.41558E+03 -1.78029E+04  6.05703E+03 -1.42783E+04
  1.19618E+04 -5.77877E+03  8.47742E+03  3.81610E+03 -1.85697E+02  5.58644E+03 -6.72698E+03 -2.34815E+02
 -6.64598E+03 -8.78065E+03 -9.87082E+02 -1.38064E+04  7.87794E+03 -1.43356E+04  1.79593E+04 -7.81142E+03
  2.06170E+04  2.20056E+03  1.50161E+04  1.29898E+04  2.94675E+03  1.68933E+04 -8.54950E+03  1.39954E+04
 -1.14709E+04  4.15954E+03 -6.05405E+03 -2.65163E+03  1.93781E+03 -4.03321E+03  7.37739E+03 -1.02700E+03
  6.75942E+03  6.07875E+03  1.00029E+03  1.08837E+04 -8.01579E+03  1.04599E+04 -1.36981E+04  2.66519E+03
 -9.24870E+03 -7.41467E+03  3.26838E+00 -1.23159E+04  7.43711E+03 -6.32089E+03  8.04556E+03  3.10537E+03
  1.91594E+03  8.49895E+03 -7.05569E+03  9.93695E+03 -1.13745E+04  4.32941E+03 -1.15570E+04 -3.81684E+03
 -6.89527E+03 -1.35064E+04  3.39492E+03 -1.58371E+04  1.32874E+04 -9.29141E+03  1.47516E+04  2.45467E+03
  9.10441E+03  1.13886E+04 -1.47459E+03  1.39526E+04 -1.00650E+04  7.62412E+03 -1.08450E+04 -9.83700E+02
 -9.60819E+03 -9.20200E+03 -1.78293E+03 -1.07213E+04  5.63754E+03 -8.27341E+03  6.72520E+03 -3.41948E+03
  4.39884E+03  1.47246E+03 -9.99160E+02  1.73555E+03 -6.73170E+02 -2.89160E+03  2.18413E+03 -6.10902E+03
  9.96740E+03 -4.23120E+03  1.34568E+04  1.39615E+03  1.33595E+04  9.01884E+03  8.79556E+03  1.76688E+04
 -4.21389E+03  2.06424E+04 -1.70873E+04  1.53111E+04 -2.23051E+04  2.89572E+03 -1.78352E+04 -7.49019E+03
 -8.97313E+03 -1.43182E+04 -4.56791E+02 -1.26394E+04  4.55867E+03 -7.09284E+03  4.58859E+03 -4.66149E+03
  3.41872E+03 -2.75378E+03  3.65360E+03 -3.68143E+03  5.35450E+03 -3.01258E+03  7.04222E+03 -8.17653E+02
  9.25275E+03  2.28919E+03  4.58734E+03  8.07442E+03 -2.49553E+03  9.57204E+03 -9.53219E+03  7.35811E+03
 -1.26000E+04 -1.33622E+03 -7.61117E+03 -8.95918E+03 -6.76139E+02 -1.31121E+04  7.38554E+03 -1.34509E+04
  1.39216E+04 -7.06569E+03  1.69001E+04  2.09220E+03  1.17196E+04  1.14542E+04  1.78135E+03  1.52942E+04
 -6.36831E+03  1.24086E+04 -8.57143E+03  4.28321E+03 -6.13844E+03 -1.75349E+03 -2.19167E+03 -1.99999E+03
 -9.96972E+02 -1.69937E+02 -1.72995E+03  2.98327E+03 -5.55696E+03  2.14265E+03 -8.76559E+03 -8.78595E+02
 -6.10237E+03 -8.99711E+03  9.49967E+01 -1.24881E+04  7.70204E+03 -1.13497E+04  1.23012E+04 -3.73205E+03
  1.22450E+04  6.05408E+03  5.55217E+03  1.09502E+04 -2.65644E+03  1.23251E+04 -8.84582E+03  7.75174E+03
 -1.15000E+04  9.73336E+01 -9.08224E+03 -7.51865E+03 -8.58977E+02 -1.05612E+04  5.67232E+03 -7.96014E+03
  8.23213E+03 -2.46719E+03  5.59968E+03  1.88382E+03  2.03509E+03  3.79373E+03  1.09241E+03  2.02755E+03
  2.45619E+03  8.86510E+02  2.43101E+03  1.56709E+03  4.02671E+03  4.69015E+03  3.26307E+03  6.33934E+03
 -2.75435E+03  9.53425E+03 -9.02837E+03  9.76366E+03 -1.24710E+04  2.69130E+03 -1.29957E+04 -4.64344E+03
 -5.79781E+03 -1.26381E+04  1.72655E+03 -1.38598E+04  7.48980E+03 -8.27960E+03  9.98600E+03 -2.25373E+03
  7.98875E+03  4.52284E+03  1.39081E+03  7.26830E+03 -3.63753E+03  4.57310E+03 -4.81959E+03 -7.87317E+02
 -2.20435E+03 -5.23719E+03  3.18610E+03 -5.64972E+03  4.83012E+03 -2.72618E+03  5.06204E+03  1.04550E+03
  2.96570E+03  2.53052E+03  1.14382E+03  1.90469E+03 -6.08429E+02  1.55465E+03  1.69242E+03 -8.04725E+02
  2.17155E+03 -7.28112E+02  4.99885E+03  1.78394E+03  2.79965E+03  6.56863E+03 -1.06952E+03  8.76936E+03
 -5.95937E+03  5.51827E+03 -7.91222E+03  1.62151E+03 -6.97187E+03 -2.77949E+03 -2.95280E+03 -4.82697E+03
  8.99821E+02 -5.04034E+03  3.32426E+03 -2.26815E+03  2.87237E+03  2.81365E+03 -1.56006E+03  4.37153E+03
 -4.99735E+03  2.54571E+03 -5.61102E+03 -2.72989E+03 -3.53757E+03 -7.14948E+03  8.99016E+02 -6.96088E+03
  3.99782E+03 -4.01517E+03  4.73162E+03 -1.77763E+02  4.09447E+03  1.85399E+03  8.15443E+02  3.76920E+03
 -2.39543E+03  1.17156E+03 -3.02945E+03 -2.23518E+03  9.15546E+02 -5.09239E+03  6.42330E+03 -4.05376E+03
  7.46642E+03  7.11760E+02  7.92242E+03  5.00667E+03  2.45787E+03  8.32717E+03 -2.90986E+03  7.61991E+03
 -6.16962E+03  3.57418E+03 -6.82981E+03 -8.57499E+02 -4.05065E+03 -4.95929E+03  1.37710E+03 -4.81695E+03
  5.06049E+03 -2.43305E+03  4.36561E+03  2.29756E+03  1.52901E+03  4.55224E+03 -5.17352E+02  3.89672E+03
 -2.55868E+03  2.62957E+03 -1.99358E+03  7.35716E+02 -5.56893E+02  8.67582E+02 -1.59001E+03  1.60970E+03
 -1.78596E+03  3.24566E+03 -5.34791E+03  2.85826E+03 -7.90350E+03  1.08584E+02 -8.83396E+03 -5.26748E+03
 -4.62739E+03 -1.06848E+04  2.17887E+03 -1.20546E+04  7.38008E+03 -9.80202E+03  1.11944E+04 -3.60233E+03
  1.06260E+04  1.64923E+03  6.42804E+03  7.02609E+03  4.89625E+02  8.36728E+03 -3.19827E+03  6.37468E+03
 -5.00230E+03  2.44709E+03 -2.83748E+03 -9.42674E+02 -1.02779E+03 -5.01737E+02 -8.87412E+02 -1.53404E+02
 -1.60661E+03  2.99008E+02 -1.97726E+03 -6.38354E+02 -2.50402E+02 -1.97973E+03  1.66047E+02 -3.15700E+03
  3.83309E+03 -2.72838E+03  4.91617E+03 -4.42742E+01  5.78519E+03  4.27221E+03  1.45668E+03  8.16215E+03
 -3.78073E+03  9.36222E+03 -8.74311E+03  5.60208E+03 -9.87471E+03 -7.83178E+02 -7.46654E+03 -6.40389E+03
 -3.28993E+03 -8.35510E+03  1.76486E+03 -7.58445E+03  5.30506E+03 -4.22298E+03  5.22851E+03  3.30635E+00
  3.07256E+03  2.82727E+03 -3.72832E+02  2.09907E+03 -1.94906E+03 -2.29146E+01 -2.69458E+02 -1.79352E+03
  2.63424E+03 -1.04008E+03  2.88331E+03  1.47983E+03  1.65769E+03  3.17274E+03  1.80831E+02  3.97903E+03
 -3.82387E+03  3.67160E+03 -5.19634E+03  3.19343E+02 -4.95281E+03 -3.47221E+03 -4.53756E+02 -7.07387E+03
  3.85809E+03 -5.51091E+03  6.24443E+03 -2.25081E+03  6.59548E+03  1.14297E+03  3.65755E+03  4.78902E+03
  8.02323E+02  5.20132E+03 -2.08595E+03  4.24517E+03 -3.51967E+03  2.44814E+03 -2.92031E+03  1.82092E+02
 -1.44696E+03 -4.48661E+01 -2.07010E+03  1.13214E+03 -2.80706E+03  8.73749E+02 -4.56695E+03 -1.04705E+03
 -3.86360E+03 -2.90622E+03 -1.28116E+03 -5.44794E+03  2.30141E+03 -5.95851E+03  4.89285E+03 -2.69797E+03
  5.50061E+03  6.65957E+02  2.96610E+03  3.79419E+03 -7.54598E+02  5.49896E+03 -3.56410E+03  3.12657E+03
