 $NMID ID='MM_0lb_SNR800_7hz_g40_40.RAW', FMTDAT='(8E13.5)'
 TRAMP=1., VOLUME=1. $END
  3.09500E+05  2.94329E+02  3.37992E+05  2.50830E+05  8.49324E+04  3.39077E+05 -1.32316E+05  2.52244E+05
 -1.90993E+05  8.38857E+04 -1.12708E+05 -3.18117E+04  1.89796E+02 -5.08418E+04  5.36553E+04 -6.28562E+02
  3.55720E+04  5.29430E+04 -1.66164E+04  7.65222E+04 -6.16975E+04  6.48718E+04 -8.52625E+04  3.27198E+04
 -8.27442E+04 -1.22984E+04 -5.82094E+04 -5.24740E+04 -1.53800E+04 -7.14302E+04  2.83467E+04 -4.75536E+04
  4.12360E+04  3.69518E+03  1.71358E+04  4.87431E+04 -3.47271E+04  4.85676E+04 -6.82455E+04  2.79333E+02
 -5.53313E+04 -5.77175E+04 -7.59186E+03 -7.92194E+04  3.48262E+04 -5.77370E+04  5.00012E+04 -1.79323E+04
  4.58896E+04  1.14445E+04  3.33266E+04  2.70247E+04  1.54503E+04  3.10334E+04 -6.09687E+03  2.76269E+04
 -2.23931E+04  1.18697E+04 -1.79421E+04 -6.05081E+03  7.31534E+03 -7.26118E+03  2.37910E+04  1.38832E+04
  6.95792E+03  3.81771E+04 -3.42742E+04  3.73026E+04 -6.61328E+04  2.39219E+03 -5.92004E+04 -4.47646E+04
 -1.31003E+04 -6.60568E+04  4.18789E+04 -4.81133E+04  6.12946E+04 -2.39099E+03  3.81020E+04  3.50370E+04
 -5.44920E+03  4.03424E+04 -3.18795E+04  1.94501E+04 -3.42753E+04 -3.11487E+03 -1.99554E+04 -1.19180E+04
 -9.63407E+03 -1.52879E+04 -5.96758E+02 -2.01868E+04  8.54593E+03 -2.32839E+04  1.57633E+04 -1.23911E+04
  1.01200E+04  6.27498E+03 -1.11520E+04  1.33843E+04 -2.40095E+04 -6.80287E+03 -8.75825E+03 -3.81417E+04
  2.55369E+04 -4.73713E+04  5.33144E+04 -2.12464E+04  4.97451E+04  2.09640E+04  1.79206E+04  4.78771E+04
 -1.69474E+04  3.67445E+04 -2.77630E+04  2.94373E+03 -1.22210E+04 -3.03188E+04  2.17059E+04 -3.76018E+04
  4.52978E+04 -1.16847E+04  4.13869E+04  2.53481E+04  2.23265E+04  5.22586E+04 -8.08239E+03  5.79641E+04
 -3.64986E+04  3.93336E+04 -4.89686E+04  1.16000E+04 -4.85744E+04 -1.85039E+04 -2.64312E+04 -4.31480E+04
  7.89305E+03 -4.32165E+04  3.48939E+04 -1.74884E+04  3.32577E+04  1.10670E+04  5.58240E+03  2.16474E+04
 -1.39069E+04  1.01265E+04 -1.12986E+04 -7.34786E+03  5.61878E+03 -1.17963E+04  1.93178E+04  5.35965E+03
  1.56769E+04  2.31901E+04 -5.10282E+03  2.75573E+04 -2.42359E+04  1.50170E+04 -3.24703E+04 -2.54378E+03
 -2.65666E+04 -1.84727E+04 -1.22940E+04 -2.60780E+04  4.35380E+03 -2.69833E+04  2.08633E+04 -2.43279E+04
  3.34481E+04 -1.44254E+04  3.95797E+04  5.47344E+03  2.82079E+04  2.56863E+04  4.32320E+03  4.28263E+04
 -2.02627E+04  3.49458E+04 -3.08990E+04  1.22929E+04 -2.27564E+04 -1.03269E+04 -4.83711E+03 -1.29470E+04
  5.65878E+02 -7.75884E+02 -8.57577E+03  8.47468E+03 -2.13784E+04  5.04827E+03 -2.08624E+04 -1.02704E+04
 -1.27425E+04 -2.44332E+04  6.45707E+03 -2.90415E+04  1.94288E+04 -2.07397E+04  2.40910E+04 -1.97434E+03
  1.53167E+04  1.68649E+04 -1.42634E+03  2.42710E+04 -1.75087E+04  1.43077E+04 -2.49428E+04 -5.23756E+03
 -1.78440E+04 -2.15643E+04 -2.74307E+03 -2.94374E+04  1.30945E+04 -2.46085E+04  2.46192E+04 -1.29575E+04
  2.31515E+04 -9.04416E+02  1.68503E+04  5.24380E+03  9.48857E+03  1.84059E+03  1.30434E+04 -2.57559E+03
  2.35887E+04  3.00001E+03  2.67963E+04  1.92198E+04  1.88202E+04  3.98327E+04 -2.72382E+03  4.67890E+04
 -2.67182E+04  3.97188E+04 -4.44841E+04  2.04428E+04 -4.76449E+04 -3.83328E+03 -3.85839E+04 -2.85648E+04
 -1.47717E+04 -3.98409E+04  1.40985E+04 -3.46862E+04  3.02815E+04 -1.58415E+04  2.58287E+04  8.37761E+03
  8.51997E+03  1.99875E+04 -1.23055E+04  1.63324E+04 -2.14033E+04  2.28996E+03 -1.60092E+04 -1.36416E+04
 -7.67124E+02 -2.06614E+04  1.15660E+04 -1.53645E+04  1.42003E+04 -1.36651E+03  4.42530E+03  9.50468E+03
 -9.35157E+03  4.97520E+03 -9.94428E+03 -7.26693E+03 -2.33268E+03 -1.97410E+04  1.25618E+04 -2.13867E+04
  2.46988E+04 -1.26066E+04  2.86439E+04  3.32474E+03  2.50393E+04  1.98467E+04  1.17312E+04  3.24193E+04
 -6.25469E+03  3.39598E+04 -2.24401E+04  2.09446E+04 -2.48810E+04  3.86314E+03 -1.65187E+04 -6.54367E+03
 -7.01281E+03 -8.20212E+03 -4.50667E+02  2.76726E+02 -2.82758E+03  4.44070E+03 -8.11895E+03  6.15957E+03
 -1.53691E+04 -7.64231E+02 -1.61461E+04 -1.31196E+04 -6.59542E+03 -2.06486E+04  6.81535E+03 -1.73233E+04
  1.41968E+04 -6.60250E+03  1.01696E+04  4.68007E+03 -5.55404E+02  7.26545E+03 -8.84770E+03 -3.16686E+02
 -8.67103E+03 -1.08387E+04 -1.03971E+03 -1.70177E+04  9.73600E+03 -1.83764E+04  2.17544E+04 -1.01482E+04
  2.59495E+04  2.54643E+03  1.93268E+04  1.59019E+04  3.69127E+03  2.12456E+04 -1.09135E+04  1.74458E+04
 -1.38865E+04  4.58021E+03 -7.41539E+03 -3.95538E+03  2.01774E+03 -5.10111E+03  8.75880E+03 -4.82886E+02
  7.85828E+03  7.96535E+03  5.74809E+02  1.41555E+04 -1.00709E+04  1.34136E+04 -1.71092E+04  2.68723E+03
 -1.18695E+04 -9.29626E+03  2.63772E+02 -1.47024E+04  9.54513E+03 -7.74315E+03  1.03496E+04  3.82961E+03
  2.71667E+03  1.12852E+04 -8.96934E+03  1.27871E+04 -1.57685E+04  5.61685E+03 -1.63110E+04 -5.85596E+03
 -8.96793E+03 -1.82357E+04  4.24895E+03 -2.03659E+04  1.72550E+04 -1.20297E+04  1.90536E+04  3.40167E+03
  1.14531E+04  1.50703E+04 -2.00759E+03  1.77112E+04 -1.28572E+04  9.48141E+03 -1.42558E+04 -1.40235E+03
 -1.19752E+04 -1.18830E+04 -1.93586E+03 -1.35371E+04  6.70982E+03 -1.05059E+04  8.52588E+03 -3.77379E+03
  5.37785E+03  2.53957E+03 -1.47181E+03  2.04344E+03 -7.60166E+02 -4.30668E+03  3.47111E+03 -8.94689E+03
  1.29870E+04 -5.31988E+03  1.88271E+04  2.14105E+03  1.82332E+04  1.30104E+04  1.15520E+04  2.40257E+04
 -5.43708E+03  2.78922E+04 -2.26037E+04  2.03580E+04 -2.95110E+04  3.92272E+03 -2.35297E+04 -1.02488E+04
 -1.19374E+04 -1.93965E+04 -3.29003E+02 -1.68185E+04  5.99551E+03 -1.00393E+04  5.88822E+03 -6.49442E+03
  3.90956E+03 -3.75918E+03  4.41546E+03 -3.97292E+03  6.68949E+03 -3.94126E+03  9.55376E+03 -2.02427E+03
  1.23343E+04  2.55274E+03  6.89700E+03  1.09283E+04 -2.57031E+03  1.35312E+04 -1.30856E+04  1.02209E+04
 -1.68987E+04 -1.12423E+03 -1.15563E+04 -1.25354E+04 -1.81724E+03 -1.80827E+04  1.00905E+04 -1.80856E+04
  1.97951E+04 -9.91285E+03  2.28931E+04  3.09382E+03  1.57496E+04  1.61955E+04  2.14584E+03  2.04344E+04
 -8.73034E+03  1.66466E+04 -1.23797E+04  5.85554E+03 -8.17212E+03 -1.49026E+03 -3.72431E+03 -2.35164E+03
 -1.76983E+03 -4.08672E+01 -2.73229E+03  2.98573E+03 -7.43435E+03  2.98101E+03 -1.16348E+04 -1.82717E+03
 -8.82195E+03 -1.14265E+04 -4.12671E+02 -1.71367E+04  1.06254E+04 -1.54979E+04  1.78022E+04 -5.04639E+03
  1.73017E+04  8.09783E+03  8.44786E+03  1.54981E+04 -3.35928E+03  1.79937E+04 -1.27133E+04  1.12019E+04
 -1.64694E+04  8.95059E+02 -1.29360E+04 -1.09100E+04 -1.34360E+03 -1.49022E+04  8.11098E+03 -1.10263E+04
  1.15002E+04 -3.03777E+03  7.84918E+03  3.14404E+03  2.92526E+03  4.96077E+03  1.18917E+03  2.60574E+03
  3.32720E+03  8.92171E+02  4.21752E+03  2.16350E+03  5.65317E+03  6.40019E+03  4.38874E+03  9.75729E+03
 -3.34686E+03  1.43384E+04 -1.27388E+04  1.36410E+04 -1.90436E+04  3.59336E+03 -1.90105E+04 -7.98354E+03
 -9.51752E+03 -1.80216E+04  2.50522E+03 -2.01933E+04  1.07174E+04 -1.26829E+04  1.47965E+04 -3.36128E+03
  1.19766E+04  7.20331E+03  2.53343E+03  1.07113E+04 -5.39681E+03  6.56265E+03 -7.97205E+03 -9.42886E+02
 -3.71488E+03 -7.77736E+03  3.91141E+03 -7.76050E+03  8.05290E+03 -3.77730E+03  7.23590E+03  1.85115E+03
  4.28445E+03  3.99369E+03  1.44333E+03  3.41082E+03 -6.42655E+02  2.17650E+03  2.01231E+03 -7.92852E+02
  3.29724E+03 -1.29844E+03  7.46636E+03  2.68061E+03  4.62302E+03  1.01862E+04 -1.62837E+03  1.31433E+04
 -9.26836E+03  8.66937E+03 -1.19256E+04  2.57146E+03 -1.01888E+04 -4.03896E+03 -4.50602E+03 -7.52684E+03
  1.39141E+03 -7.14103E+03  4.69456E+03 -3.50715E+03  4.09618E+03  3.05407E+03 -1.73344E+03  6.40427E+03
 -7.63655E+03  3.58266E+03 -8.96888E+03 -4.23713E+03 -4.57032E+03 -1.04677E+04  1.76013E+03 -1.06233E+04
  6.36860E+03 -7.00228E+03  7.80525E+03 -8.38535E+02  6.03283E+03  3.26761E+03  5.65505E+02  5.86928E+03
 -4.30275E+03  1.79519E+03 -4.38896E+03 -3.75381E+03  1.62827E+03 -8.43490E+03  9.42888E+03 -6.87362E+03
  1.25761E+04  1.56433E+03  1.15905E+04  8.50652E+03  3.65646E+03  1.32449E+04 -4.66815E+03  1.20810E+04
 -1.05029E+04  5.67025E+03 -1.09552E+04 -1.59648E+03 -6.03304E+03 -8.45560E+03  2.00026E+03 -8.41789E+03
  7.61803E+03 -3.90374E+03  7.20638E+03  3.38672E+03  2.23589E+03  7.01922E+03 -1.27072E+03  6.27350E+03
 -3.39333E+03  4.22899E+03 -3.24147E+03  1.77573E+03 -1.82481E+03  1.12561E+03 -1.94827E+03  2.11850E+03
 -3.21795E+03  4.72323E+03 -9.28252E+03  4.27969E+03 -1.33801E+04  2.62678E+02 -1.45040E+04 -8.60402E+03
 -7.83964E+03 -1.75349E+04  3.68415E+03 -1.99126E+04  1.28466E+04 -1.59284E+04  1.93084E+04 -5.60427E+03
  1.78158E+04  4.21611E+03  1.09536E+04  1.17721E+04  1.19926E+03  1.39506E+04 -6.05782E+03  1.05108E+04
 -7.66468E+03  3.73809E+03 -4.91727E+03 -1.32734E+03 -1.53657E+03 -1.77902E+03 -3.29861E+02  1.53832E+02
 -2.40200E+03  1.68078E+02 -2.96876E+03 -6.96660E+02 -1.46758E+03 -3.15855E+03  6.25351E+02 -4.88946E+03
  5.65924E+03 -4.64572E+03  8.46714E+03 -2.03487E+02  1.02430E+04  7.55797E+03  3.29549E+03  1.36658E+04
 -6.27516E+03  1.58434E+04 -1.48155E+04  9.24390E+03 -1.72062E+04 -1.04008E+03 -1.25954E+04 -9.91222E+03
 -5.14904E+03 -1.46488E+04  3.88491E+03 -1.36278E+04  9.00326E+03 -7.07889E+03  9.53687E+03  3.39224E+02
  4.98431E+03  4.57154E+03 -8.77357E+02  3.63870E+03 -2.86675E+03 -1.23402E+01 -2.36571E+02 -2.99233E+03
  4.10657E+03 -2.13436E+03  5.64768E+03  1.64342E+03  3.89741E+03  5.86125E+03 -2.73933E+01  7.79812E+03
 -5.87341E+03  6.26372E+03 -9.46399E+03  6.17675E+02 -8.41138E+03 -7.23316E+03 -1.09970E+03 -1.23488E+04
  6.88868E+03 -1.00454E+04  1.10603E+04 -3.89515E+03  1.16655E+04  3.11037E+03  6.78400E+03  8.58306E+03
  1.14159E+03  9.80432E+03 -3.66934E+03  8.05242E+03 -5.83950E+03  4.04308E+03 -5.30190E+03  5.05052E+02
 -2.99509E+03 -6.71865E+02 -3.20582E+03  1.31438E+03 -5.02368E+03  1.63512E+03 -7.30014E+03 -1.21287E+03
 -7.58934E+03 -5.58424E+03 -1.79866E+03 -1.03667E+04  4.53812E+03 -1.03976E+04  8.60654E+03 -5.23632E+03
  9.90336E+03  1.18586E+03  5.44226E+03  7.26383E+03 -1.92052E+02  9.93492E+03 -7.70171E+03  5.95737E+03
