 $NMID ID='MM_0lb_SNR800_15hz_g40_66.RAW', FMTDAT='(8E13.5)'
 TRAMP=1., VOLUME=1. $END
  3.09546E+05  5.05532E+02  3.37681E+05  2.50594E+05  8.43236E+04  3.37939E+05 -1.32550E+05  2.50589E+05
 -1.90170E+05  8.27847E+04 -1.11371E+05 -3.25217E+04  1.35850E+03 -5.05983E+04  5.40117E+04  1.52837E+02
  3.54831E+04  5.27515E+04 -1.70754E+04  7.50655E+04 -6.05474E+04  6.33201E+04 -8.34355E+04  3.18306E+04
 -8.01341E+04 -1.14587E+04 -5.66614E+04 -5.07338E+04 -1.49539E+04 -6.89339E+04  2.70570E+04 -4.50191E+04
  3.95179E+04  3.62261E+03  1.57136E+04  4.71697E+04 -3.41314E+04  4.68826E+04 -6.60177E+04 -2.94073E+02
 -5.28283E+04 -5.64013E+04 -6.56375E+03 -7.63170E+04  3.36968E+04 -5.40367E+04  4.70021E+04 -1.68085E+04
  4.24281E+04  1.09611E+04  3.13434E+04  2.48080E+04  1.58624E+04  2.89596E+04 -4.81531E+03  2.68201E+04
 -2.18020E+04  1.26836E+04 -1.89893E+04 -4.71588E+03  5.05265E+03 -7.35126E+03  2.20438E+04  1.16627E+04
  7.47875E+03  3.42708E+04 -3.15147E+04  3.48303E+04 -6.24521E+04  2.12386E+03 -5.62614E+04 -4.20140E+04
 -1.22997E+04 -6.20339E+04  3.90427E+04 -4.40732E+04  5.69898E+04 -1.86899E+03  3.29704E+04  3.15336E+04
 -6.11100E+03  3.46620E+04 -2.90833E+04  1.48166E+04 -2.92391E+04 -5.05420E+03 -1.53926E+04 -1.04101E+04
 -7.90333E+03 -1.23836E+04 -8.40362E+02 -1.72768E+04  7.40665E+03 -2.29597E+04  1.52070E+04 -1.34628E+04
  1.17102E+04  4.83871E+03 -7.05638E+03  1.29585E+04 -2.01806E+04 -3.22228E+03 -8.28155E+03 -3.23728E+04
  2.18711E+04 -4.20810E+04  4.65364E+04 -1.88422E+04  4.35836E+04  1.88013E+04  1.52115E+04  4.28865E+04
 -1.55918E+04  3.25237E+04 -2.45496E+04  1.05155E+03 -9.20760E+03 -2.71146E+04  2.09160E+04 -3.25463E+04
  3.98107E+04 -8.16881E+03  3.35774E+04  2.34467E+04  1.69837E+04  4.48093E+04 -8.17514E+03  4.77507E+04
 -3.01664E+04  3.18173E+04 -4.00262E+04  9.13123E+03 -4.08507E+04 -1.58549E+04 -2.25886E+04 -3.63093E+04
  6.81688E+03 -3.61973E+04  3.01999E+04 -1.36783E+04  2.79454E+04  1.09915E+04  3.45480E+03  1.85209E+04
 -1.33692E+04  7.80907E+03 -9.83345E+03 -7.61734E+03  5.81574E+03 -1.04511E+04  1.75233E+04  6.24899E+03
  1.29426E+04  2.18370E+04 -6.17607E+03  2.40931E+04 -2.19589E+04  1.07758E+04 -2.65093E+04 -5.64121E+03
 -1.89673E+04 -1.69391E+04 -7.06244E+03 -1.86212E+04  3.75945E+03 -1.76063E+04  1.45319E+04 -1.66396E+04
  2.40286E+04 -1.22419E+04  3.05203E+04  1.91504E+03  2.27079E+04  1.84448E+04  4.15824E+03  3.46822E+04
 -1.71648E+04  2.89817E+04 -2.72973E+04  9.98657E+03 -2.02039E+04 -1.03591E+04 -4.19583E+03 -1.36074E+04
  2.19907E+03 -3.56753E+03 -4.03561E+03  6.03497E+03 -1.47423E+04  5.29085E+03 -1.49950E+04 -6.07170E+03
 -9.62201E+03 -1.73267E+04  4.93893E+03 -2.13265E+04  1.39670E+04 -1.53555E+04  1.68467E+04 -1.69300E+03
  1.04543E+04  1.21677E+04 -1.13945E+03  1.75956E+04 -1.20604E+04  9.75824E+03 -1.73312E+04 -3.95006E+03
 -1.28387E+04 -1.59319E+04 -1.77704E+03 -2.12958E+04  9.62103E+03 -1.74316E+04  1.80964E+04 -8.56056E+03
  1.62041E+04  1.53656E+02  1.18060E+04  4.14733E+03  6.37228E+03  9.64152E+02  8.90293E+03 -1.70312E+03
  1.57991E+04  2.68554E+03  1.76334E+04  1.41272E+04  1.11200E+04  2.79545E+04 -3.09709E+03  3.08228E+04
 -1.81463E+04  2.42486E+04 -2.89206E+04  1.18380E+04 -2.94314E+04 -1.83007E+03 -2.49519E+04 -1.69284E+04
 -1.10874E+04 -2.43051E+04  8.19016E+03 -2.19993E+04  1.95525E+04 -1.20865E+04  1.74898E+04  4.56067E+03
  7.24092E+03  1.28193E+04 -8.34732E+03  1.18183E+04 -1.50162E+04  2.50621E+03 -1.15245E+04 -9.49130E+03
 -1.12962E+02 -1.41056E+04  7.22400E+03 -1.08422E+04  9.03405E+03 -1.25507E+03  1.79732E+03  5.74897E+03
 -6.17295E+03  1.96046E+03 -5.08252E+03 -5.11626E+03  2.08617E+02 -1.22242E+04  8.90943E+03 -1.27271E+04
  1.51228E+04 -6.34490E+03  1.56426E+04  2.82884E+03  1.31428E+04  1.16820E+04  6.29796E+03  1.77640E+04
 -2.32429E+03  1.97759E+04 -1.21736E+04  1.23653E+04 -1.38993E+04  3.23483E+03 -1.00252E+04 -2.78398E+03
 -5.07583E+03 -4.15437E+03 -9.29043E+02  1.19940E+03 -2.54859E+03  2.24081E+03 -4.47956E+03  4.08844E+03
 -9.58397E+03 -3.49418E+02 -1.00361E+04 -8.29416E+03 -3.97452E+03 -1.33482E+04  4.32213E+03 -1.02981E+04
  8.47142E+03 -4.50520E+03  6.33414E+03  2.75443E+03  6.85541E+02  3.79513E+03 -4.45904E+03 -2.67890E+02
 -4.08905E+03 -6.41663E+03 -1.06558E+03 -9.44623E+03  5.06438E+03 -9.79352E+03  1.23873E+04 -4.91057E+03
  1.44728E+04  9.28105E+02  1.05577E+04  8.11061E+03  2.12985E+03  1.10048E+04 -6.11165E+03  1.03416E+04
 -7.87787E+03  2.94609E+03 -4.17577E+03 -1.84304E+03  1.73830E+03 -2.24778E+03  5.71693E+03 -1.02505E+03
  5.09094E+03  4.21111E+03  1.07048E+03  7.81805E+03 -5.34952E+03  7.93536E+03 -9.52250E+03  1.86169E+03
 -6.20785E+03 -4.92661E+03  3.01488E+02 -8.41915E+03  4.66412E+03 -4.38879E+03  4.98658E+03  1.49241E+03
  8.68914E+02  4.84996E+03 -5.23709E+03  6.35467E+03 -6.66986E+03  2.99011E+03 -6.69179E+03 -1.75056E+03
 -4.14940E+03 -8.35824E+03  1.51427E+03 -9.50323E+03  8.17025E+03 -5.93777E+03  8.73310E+03  1.63247E+03
  5.89471E+03  7.21436E+03 -3.25292E+02  9.35438E+03 -6.52139E+03  4.80755E+03 -7.31177E+03 -8.07533E+02
 -6.87816E+03 -6.19082E+03 -1.57568E+03 -6.77974E+03  3.38092E+03 -5.77080E+03  3.97088E+03 -2.74178E+03
  3.39266E+03  7.06402E+02 -3.05901E+02  1.45047E+03  2.88568E+01 -6.70828E+02  5.68026E+02 -2.82332E+03
  5.44118E+03 -1.74931E+03  8.06256E+03  1.05757E+03  7.85980E+03  5.19545E+03  6.35524E+03  1.02722E+04
 -2.22802E+03  1.21537E+04 -1.02788E+04  9.15733E+03 -1.34628E+04  1.56923E+03 -1.08935E+04 -4.01347E+03
 -5.64535E+03 -8.86264E+03 -5.48157E+02 -7.11667E+03  2.61915E+03 -3.72267E+03  2.47844E+03 -2.71448E+03
  1.76666E+03 -1.79212E+03  2.59672E+03 -2.89452E+03  4.37596E+03 -2.02633E+03  4.58220E+03  1.71442E+02
  6.00201E+03  1.49471E+03  2.30058E+03  4.93486E+03 -1.67674E+03  4.53763E+03 -5.77994E+03  3.80274E+03
 -7.03793E+03 -1.22444E+03 -3.69796E+03 -5.02260E+03 -1.31396E+02 -7.33236E+03  4.27927E+03 -7.29923E+03
  7.20272E+03 -4.76724E+03  9.42572E+03  6.69443E+02  7.03762E+03  6.39412E+03  1.12179E+03  8.73600E+03
 -3.04041E+03  7.68383E+03 -4.86758E+03  2.78320E+03 -2.96050E+03 -1.35791E+03 -9.89583E+02 -1.05300E+03
 -3.26912E+02 -5.78657E+01 -1.42156E+03  2.27939E+03 -3.22257E+03  1.51354E+03 -5.47786E+03 -3.83925E+02
 -2.85029E+03 -5.45043E+03  9.24338E+02 -7.05326E+03  4.31375E+03 -6.52038E+03  6.01836E+03 -1.59065E+03
  6.33758E+03  3.34057E+03  3.01377E+03  5.59932E+03 -1.11622E+03  6.55045E+03 -4.54677E+03  3.94670E+03
 -5.52132E+03  5.17463E+02 -5.29682E+03 -3.87167E+03 -8.81369E+02 -4.94915E+03  2.49738E+03 -3.92430E+03
  4.00103E+03 -1.59226E+03  2.92387E+03  7.91129E+02  8.93413E+02  2.26480E+03  1.09127E+03  7.57612E+02
  1.97721E+03  5.69474E+02  1.70072E+03  1.26377E+03  1.83938E+03  2.73838E+03  1.82506E+03  2.78579E+03
 -1.93371E+03  5.02975E+03 -4.20329E+03  5.68613E+03 -5.65164E+03  1.48603E+03 -6.70663E+03 -1.78178E+03
 -3.16098E+03 -5.91416E+03  9.53252E+02 -7.11371E+03  3.75583E+03 -4.55483E+03  5.25226E+03 -9.16576E+02
  4.01811E+03  2.90221E+03  9.46109E+02  3.29588E+03 -1.73785E+03  2.06091E+03 -2.04540E+03 -1.68140E+02
 -8.15779E+02 -2.59385E+03  1.94616E+03 -2.38025E+03  2.30640E+03 -1.08188E+03  2.34389E+03  6.25171E+02
  1.32645E+03  8.60048E+02  1.04057E+03  9.26808E+01 -4.88760E+02  9.14694E+02  1.57944E+03 -1.86240E+02
  8.54561E+02 -1.55035E+02  2.90329E+03  1.14512E+03  1.18015E+03  3.73640E+03 -6.79672E+02  4.39489E+03
 -2.78095E+03  2.58467E+03 -3.65083E+03  7.46863E+02 -3.49150E+03 -1.25973E+03 -6.65058E+02 -1.94505E+03
  3.60857E+02 -2.07633E+03  1.36453E+03 -9.33078E+02  1.17379E+03  1.51869E+03 -6.49464E+02  2.01026E+03
 -2.16084E+03  1.12554E+03 -2.25133E+03 -1.93451E+03 -1.49291E+03 -3.16549E+03  5.43868E+02 -2.84358E+03
  1.36331E+03 -1.63903E+03  1.86765E+03  1.12253E+02  2.35051E+03  1.97050E+02  3.91836E+02  1.73896E+03
 -8.32339E+02  4.36314E+02 -1.46712E+03 -7.57023E+02  5.13436E+02 -1.94617E+03  2.74615E+03 -1.47586E+03
  2.77910E+03  2.21751E+02  3.99414E+03  1.98712E+03  1.31740E+03  3.29552E+03 -8.95870E+02  3.54339E+03
 -2.96370E+03  7.38915E+02 -2.89556E+03 -3.43054E+02 -1.59869E+03 -2.43307E+03  4.65888E+02 -1.68536E+03
  2.70343E+03 -1.21760E+03  1.57187E+03  1.24960E+03  4.63312E+02  2.01784E+03 -7.27012E+01  1.76263E+03
 -4.86693E+02  1.33078E+03 -9.11174E+02  2.58394E+02 -2.04704E+02  8.08134E+02 -9.28887E+02  3.14197E+02
 -8.54604E+02  1.37282E+03 -2.51727E+03  1.25769E+03 -3.17694E+03  2.38266E+02 -4.30131E+03 -2.00390E+03
 -1.99628E+03 -4.37881E+03  1.09535E+03 -5.16171E+03  2.61282E+03 -4.00956E+03  5.02470E+03 -1.54299E+03
  4.47178E+03  2.77292E+02  2.86587E+03  2.89968E+03 -7.28436E+01  3.09707E+03 -1.07353E+03  2.30942E+03
 -1.99973E+03  1.12093E+03 -1.28754E+03 -1.62028E+02 -5.50366E+02  1.94341E+02 -1.03540E+03 -6.75921E+01
 -9.71789E+02 -7.49945E+01 -1.10276E+03  9.00253E+01  2.44159E+02 -9.84595E+02 -1.13186E+02 -1.55331E+03
  1.97209E+03 -1.11874E+03  1.72369E+03  3.87769E+01  2.32587E+03  1.62826E+03 -6.79987E+01  3.19350E+03
 -1.64445E+03  4.18836E+03 -3.45082E+03  2.19687E+03 -3.71406E+03 -4.33620E+02 -2.71867E+03 -2.19614E+03
 -1.92906E+03 -3.07383E+03  2.45450E+02 -2.91334E+03  1.51172E+03 -1.53572E+03  1.80598E+03  9.99442E+01
  1.49169E+03  6.67202E+02  3.08117E+01  8.93053E+02 -4.58220E+02 -7.71263E+01  3.00225E+02 -6.61808E+02
  6.76655E+02 -2.21676E+00  6.22596E+02  4.67841E+02  7.41936E+02  1.10852E+03  5.73680E+02  1.23766E+03
 -1.27946E+03  1.36783E+03 -1.58514E+03  4.05842E+02 -1.67900E+03 -1.43388E+03  3.95247E+01 -2.38384E+03
  9.94290E+02 -1.98736E+03  1.89843E+03 -4.39210E+02  2.01740E+03 -4.27219E+02  1.15747E+03  1.59275E+03
  2.33176E+02  1.62185E+03 -3.10760E+02  1.23187E+03 -1.21381E+03  1.27648E+03 -8.19291E+02  4.59805E+02
 -5.32971E+02 -1.02766E+02 -8.06620E+02  1.20207E+02 -1.08111E+03  4.24677E+02 -1.57789E+03 -2.99394E+02
 -1.74543E+03 -1.97242E+02 -4.46908E+02 -1.84582E+03  1.06264E+03 -2.56048E+03  1.64132E+03 -9.36434E+02
  1.21348E+03  2.69471E+02  3.92894E+02  1.37448E+03  4.28693E+01  2.00289E+03 -9.20701E+02  1.21123E+03
