 $NMID ID='MM_0lb_SNR800_18hz_g60_81.RAW', FMTDAT='(8E13.5)'
 TRAMP=1., VOLUME=1. $END
  3.09598E+05  2.93774E+02  3.37783E+05  2.50625E+05  8.46955E+04  3.37801E+05 -1.32519E+05  2.50814E+05
 -1.90111E+05  8.28258E+04 -1.11557E+05 -3.26037E+04  9.08078E+02 -5.04181E+04  5.38237E+04 -1.32203E+02
  3.54258E+04  5.28404E+04 -1.67337E+04  7.52103E+04 -6.08680E+04  6.33501E+04 -8.40125E+04  3.18706E+04
 -8.05944E+04 -1.12260E+04 -5.68183E+04 -5.09276E+04 -1.46836E+04 -6.95124E+04  2.73531E+04 -4.54144E+04
  3.98410E+04  3.68073E+03  1.63527E+04  4.76350E+04 -3.40781E+04  4.68792E+04 -6.64115E+04 -3.68122E+02
 -5.28928E+04 -5.68346E+04 -6.65092E+03 -7.66219E+04  3.37375E+04 -5.48774E+04  4.71622E+04 -1.68039E+04
  4.30747E+04  1.13247E+04  3.17144E+04  2.54993E+04  1.56839E+04  2.92424E+04 -5.17485E+03  2.71444E+04
 -2.19143E+04  1.27576E+04 -1.85269E+04 -4.99620E+03  5.06288E+03 -7.52525E+03  2.18461E+04  1.15744E+04
  7.51652E+03  3.48265E+04 -3.16708E+04  3.52714E+04 -6.26939E+04  2.12846E+03 -5.64120E+04 -4.22357E+04
 -1.24937E+04 -6.24198E+04  3.93894E+04 -4.49106E+04  5.71188E+04 -2.05811E+03  3.33003E+04  3.18963E+04
 -6.10822E+03  3.50510E+04 -2.92946E+04  1.51843E+04 -2.93943E+04 -4.69858E+03 -1.58443E+04 -1.07740E+04
 -7.97716E+03 -1.28474E+04 -9.24632E+02 -1.74121E+04  7.19385E+03 -2.29605E+04  1.52498E+04 -1.35940E+04
  1.17242E+04  4.93591E+03 -7.72796E+03  1.29438E+04 -2.07321E+04 -3.69899E+03 -8.16488E+03 -3.27721E+04
  2.19559E+04 -4.22128E+04  4.68401E+04 -1.93742E+04  4.38879E+04  1.91764E+04  1.53390E+04  4.30887E+04
 -1.56893E+04  3.25039E+04 -2.47077E+04  1.71040E+03 -9.43148E+03 -2.72641E+04  2.08193E+04 -3.26993E+04
  3.98731E+04 -8.66128E+03  3.38222E+04  2.30996E+04  1.71679E+04  4.48952E+04 -7.96860E+03  4.83879E+04
 -3.02162E+04  3.21618E+04 -3.99323E+04  9.25031E+03 -4.08272E+04 -1.59526E+04 -2.25680E+04 -3.64534E+04
  7.18521E+03 -3.65541E+04  3.07187E+04 -1.39715E+04  2.81181E+04  1.10320E+04  3.51693E+03  1.86277E+04
 -1.30532E+04  7.88822E+03 -1.02375E+04 -7.68595E+03  5.91343E+03 -1.02774E+04  1.76660E+04  6.07435E+03
  1.30523E+04  2.18577E+04 -6.13967E+03  2.42846E+04 -2.20424E+04  1.06677E+04 -2.65337E+04 -5.44323E+03
 -1.88985E+04 -1.67934E+04 -6.92994E+03 -1.88109E+04  3.89705E+03 -1.74558E+04  1.41334E+04 -1.65018E+04
  2.40298E+04 -1.23247E+04  3.04412E+04  2.20802E+03  2.25956E+04  1.82477E+04  4.13896E+03  3.44601E+04
 -1.71881E+04  2.88896E+04 -2.70803E+04  9.97159E+03 -2.02694E+04 -1.03801E+04 -3.96894E+03 -1.35914E+04
  1.98223E+03 -3.60195E+03 -3.60760E+03  6.17795E+03 -1.43777E+04  5.07480E+03 -1.47509E+04 -6.03445E+03
 -9.42926E+03 -1.72776E+04  5.09087E+03 -2.09921E+04  1.40358E+04 -1.53693E+04  1.66859E+04 -1.75029E+03
  1.01662E+04  1.17078E+04 -7.34095E+02  1.73190E+04 -1.19043E+04  9.77646E+03 -1.69885E+04 -3.42937E+03
 -1.26783E+04 -1.56101E+04 -1.51092E+03 -2.07174E+04  9.51589E+03 -1.69093E+04  1.75143E+04 -8.43598E+03
  1.61604E+04  2.65767E+02  1.15651E+04  4.10812E+03  5.83124E+03  8.19071E+02  8.63885E+03 -1.31009E+03
  1.56199E+04  2.58177E+03  1.70515E+04  1.38882E+04  1.07817E+04  2.72486E+04 -2.81361E+03  2.98836E+04
 -1.74915E+04  2.33792E+04 -2.77077E+04  1.15014E+04 -2.89096E+04 -2.26680E+03 -2.40926E+04 -1.65419E+04
 -1.08691E+04 -2.37309E+04  7.96932E+03 -2.13788E+04  1.86262E+04 -1.18238E+04  1.71737E+04  4.65287E+03
  6.98419E+03  1.25341E+04 -7.55668E+03  1.14323E+04 -1.46617E+04  2.59614E+03 -1.08257E+04 -8.93648E+03
 -1.41748E+02 -1.35512E+04  7.09248E+03 -1.02754E+04  8.92131E+03 -1.13722E+03  1.80328E+03  5.53490E+03
 -6.13200E+03  1.68182E+03 -4.60228E+03 -5.23578E+03  1.55337E+02 -1.16250E+04  8.61078E+03 -1.19428E+04
  1.40129E+04 -5.50439E+03  1.41657E+04  2.52078E+03  1.24042E+04  1.09390E+04  5.93352E+03  1.63720E+04
 -2.35180E+03  1.82517E+04 -1.14344E+04  1.16059E+04 -1.29833E+04  3.11322E+03 -9.56210E+03 -2.55402E+03
 -4.89844E+03 -3.93755E+03 -1.03366E+03  1.12570E+03 -2.17002E+03  2.49070E+03 -4.38885E+03  3.92413E+03
 -9.08282E+03 -4.61102E+02 -9.65754E+03 -7.87252E+03 -4.15152E+03 -1.27840E+04  3.85003E+03 -9.39681E+03
  7.95326E+03 -4.03271E+03  5.78933E+03  2.47484E+03  7.51435E+02  3.48696E+03 -4.19782E+03 -1.51454E+02
 -3.88188E+03 -5.72089E+03 -9.60525E+02 -8.43151E+03  4.46336E+03 -8.72355E+03  1.11839E+04 -4.70858E+03
  1.35486E+04  9.28657E+02  9.90289E+03  6.95502E+03  2.09885E+03  1.00509E+04 -5.68277E+03  9.28470E+03
 -7.64819E+03  2.99853E+03 -4.17567E+03 -1.74805E+03  1.15569E+03 -2.30208E+03  5.27371E+03 -1.44082E+03
  4.75194E+03  4.02550E+03  9.64985E+02  7.08633E+03 -5.00460E+03  7.11839E+03 -8.68918E+03  1.80485E+03
 -5.28480E+03 -4.28623E+03  3.43730E+02 -7.51633E+03  4.40632E+03 -3.70034E+03  4.00758E+03  1.16339E+03
  4.29911E+02  3.90161E+03 -4.69268E+03  5.16987E+03 -6.19606E+03  2.66398E+03 -5.58325E+03 -1.58950E+03
 -3.60870E+03 -7.02836E+03  1.22389E+03 -8.29455E+03  7.04902E+03 -5.33300E+03  7.41749E+03  9.41893E+02
  5.40172E+03  6.12801E+03 -2.47543E+02  8.24698E+03 -5.36312E+03  4.63003E+03 -5.88596E+03 -4.25942E+02
 -6.29850E+03 -5.75748E+03 -1.30502E+03 -5.95192E+03  2.90358E+03 -5.10819E+03  3.46700E+03 -3.25424E+03
  3.08810E+03  3.30511E+02 -1.86939E+02  1.40896E+03  4.38198E+02 -5.50089E+02  3.62511E+02 -2.60328E+03
  4.62992E+03 -1.01642E+03  6.16147E+03  7.80026E+02  6.54535E+03  3.78348E+03  5.95757E+03  8.35733E+03
 -1.45911E+03  1.01681E+04 -8.91115E+03  7.60479E+03 -1.12031E+04  1.09208E+03 -8.71771E+03 -3.03718E+03
 -4.55242E+03 -7.67158E+03 -2.52229E+02 -5.97812E+03  2.25123E+03 -2.78783E+03  2.15398E+03 -2.49070E+03
  1.73718E+03 -1.63511E+03  2.16376E+03 -2.46324E+03  3.80557E+03 -1.40882E+03  3.95819E+03  2.71279E+02
  5.33983E+03  1.62086E+03  1.74517E+03  3.77567E+03 -1.70005E+03  3.32733E+03 -4.95818E+03  3.50366E+03
 -5.36191E+03 -1.21440E+03 -2.13872E+03 -3.76603E+03  2.83885E+02 -5.55351E+03  3.13949E+03 -6.03087E+03
  5.78413E+03 -3.77338E+03  7.36132E+03  4.24137E+02  5.38230E+03  5.00702E+03  1.07183E+03  6.66759E+03
 -2.48663E+03  6.33253E+03 -3.82504E+03  2.13853E+03 -2.03997E+03 -1.17178E+03 -8.56973E+02 -7.79571E+02
 -4.21318E+02  2.92007E+02 -1.10373E+03  2.23260E+03 -2.84635E+03  1.23922E+03 -4.55915E+03 -3.59143E+02
 -1.56431E+03 -4.37503E+03  7.02415E+02 -5.34950E+03  3.23140E+03 -4.91096E+03  4.19457E+03 -1.19306E+03
  4.62339E+03  2.73460E+03  2.14889E+03  3.91225E+03 -9.17988E+02  5.19895E+03 -3.29384E+03  3.16652E+03
 -4.27087E+03  6.81221E+02 -3.64529E+03 -2.79867E+03 -3.58291E+01 -3.45388E+03  1.76954E+03 -2.83712E+03
  2.87193E+03 -1.43207E+03  2.01153E+03  6.05473E+02  4.78244E+02  2.00088E+03  8.63020E+02  7.26968E+02
  1.48631E+03  6.73277E+02  1.27977E+03  1.10931E+03  1.22169E+03  2.25404E+03  1.52226E+03  2.08738E+03
 -1.23179E+03  3.35441E+03 -2.89662E+03  4.80792E+03 -3.44380E+03  1.41766E+03 -4.75490E+03 -8.32490E+02
 -2.12164E+03 -4.63221E+03  7.01443E+02 -5.30064E+03  2.26680E+03 -2.85971E+03  3.60458E+03 -1.12689E+03
  2.93918E+03  2.02916E+03  4.03223E+02  2.68765E+03 -9.62538E+02  1.37180E+03 -1.46752E+03 -2.88476E+02
 -6.92977E+02 -1.69150E+03  1.34885E+03 -1.36183E+03  1.63157E+03 -1.21281E+03  1.70503E+03 -6.58368E+01
  7.82631E+02  4.36721E+02  5.69293E+02 -2.11756E+02 -2.17478E+02  6.90597E+02  1.60528E+03 -1.56410E+02
  1.28069E+02 -1.65892E+02  1.95179E+03  5.45337E+02  2.55707E+02  2.75166E+03 -3.79696E+02  3.28165E+03
 -1.75061E+03  1.32210E+03 -2.31246E+03  3.52936E+02 -2.49161E+03 -6.52344E+02 -3.39957E+02 -1.02387E+03
  6.88968E+02 -1.44500E+03  6.92257E+02 -8.53873E+02  6.52871E+02  1.54754E+03 -6.98623E+02  1.33167E+03
 -1.88532E+03  7.73901E+02 -1.49978E+03 -1.02541E+03 -7.57226E+02 -2.13749E+03  2.69113E+01 -1.79740E+03
  4.38131E+02 -8.89732E+02  7.07570E+02  2.62883E+02  1.31659E+03 -1.68892E+02  2.32256E+02  1.30321E+03
 -5.00248E+02 -1.58467E+02 -1.07447E+03 -4.23507E+02  8.00825E+02 -1.02713E+03  1.73501E+03 -1.26356E+03
  1.76595E+03  8.52692E+01  3.08238E+03  1.11498E+03  1.15407E+03  1.90189E+03 -3.75217E+02  1.74828E+03
 -1.38224E+03  1.83778E+02 -1.73156E+03 -3.02724E+02 -9.19464E+02 -1.62160E+03  4.33460E+02 -8.14885E+02
  1.57926E+03 -6.73187E+02  6.85865E+02  9.24317E+02  1.44294E+02  1.30983E+03  5.02176E+02  9.23146E+02
 -3.63835E+02  8.71340E+02 -5.31790E+02  3.41493E+02  3.77422E+02  4.97862E+02 -8.76136E+02  8.02226E+02
 -5.17097E+02  1.00557E+03 -1.86736E+03  2.23883E+02 -1.74115E+03  3.50064E+02 -2.52609E+03 -1.17026E+03
 -1.23218E+03 -2.37072E+03  8.61221E+02 -3.13117E+03  7.32091E+02 -2.76673E+03  2.99252E+03 -7.87659E+02
  2.36798E+03  6.01291E+01  1.25501E+03  1.50477E+03 -6.90883E+02  1.48996E+03 -6.55869E+02  1.49412E+03
 -1.00762E+03  9.62422E+02 -5.97813E+02 -4.08553E+02 -3.98900E+02  3.17098E+02 -2.66877E+02 -6.45498E+01
 -1.03588E+03  2.40932E+01 -8.56159E+02 -1.48062E+02  7.91985E+01 -7.03634E+02 -5.27227E+02 -1.10280E+03
  1.32051E+03 -8.16346E+02  5.84834E+02  1.74872E+02  1.47986E+03  1.31259E+03 -3.70815E+02  1.53301E+03
 -8.56355E+02  2.32863E+03 -1.83296E+03  1.30679E+03 -1.77381E+03 -1.93638E+02 -1.24876E+03 -1.16159E+03
 -1.12174E+03 -1.46620E+03  2.36781E+02 -1.34230E+03  7.98219E+02 -3.90521E+02  7.65722E+02  3.45881E+02
  4.46368E+02  4.14555E+02  3.06610E+01  5.56503E+02 -6.83454E+01 -2.26243E+02 -3.64383E+01 -3.26577E+02
  5.16340E+02  4.30557E+02  4.54296E+02  6.59646E+02  2.54692E+02  5.37953E+02  2.47834E+02  5.05261E+02
 -8.11000E+02  6.56858E+02 -7.69623E+02 -1.90701E+02 -7.28929E+02 -2.91064E+02 -1.36416E+02 -1.20669E+03
  5.04244E+02 -8.66809E+02  5.30587E+02  4.68915E+01  9.37843E+02 -5.67196E+02  4.66615E+02  9.02861E+02
  4.17058E+02  5.38837E+02 -4.52929E+01  7.29005E+02 -7.37647E+02  7.17499E+02 -5.49836E+02  6.60475E+01
 -1.18515E+02  2.40940E+02 -7.28830E+02 -9.66235E+00 -7.20483E+02  2.41786E+02 -6.72366E+02 -2.15881E+01
 -1.02437E+03  1.18356E+02 -5.30124E+02 -9.71343E+02  3.74126E+02 -1.48900E+03  7.01379E+02 -1.52864E+02
  6.25982E+02 -1.77362E+02 -3.30002E+02  1.55556E+02  6.89304E+01  8.37976E+02 -5.96854E+02  9.09307E+02
