 $NMID ID='MM_0lb_SNR800_13hz_g40_12.RAW', FMTDAT='(8E13.5)'
 TRAMP=1., VOLUME=1. $END
  3.09980E+05  3.46457E+02  3.37347E+05  2.50472E+05  8.46921E+04  3.38165E+05 -1.32201E+05  2.51192E+05
 -1.90223E+05  8.29090E+04 -1.11754E+05 -3.25033E+04  6.23206E+02 -5.05134E+04  5.36445E+04 -3.31820E+02
  3.54092E+04  5.30068E+04 -1.69083E+04  7.55443E+04 -6.06716E+04  6.34398E+04 -8.42342E+04  3.19095E+04
 -8.08725E+04 -1.11688E+04 -5.68816E+04 -5.12065E+04 -1.53035E+04 -6.96078E+04  2.72044E+04 -4.59381E+04
  4.01403E+04  3.92615E+03  1.62636E+04  4.76871E+04 -3.40626E+04  4.70128E+04 -6.66977E+04 -1.87661E+02
 -5.32615E+04 -5.68302E+04 -6.40775E+03 -7.67848E+04  3.35418E+04 -5.49157E+04  4.79268E+04 -1.71588E+04
  4.33516E+04  1.12092E+04  3.17021E+04  2.53262E+04  1.59691E+04  2.97010E+04 -5.14718E+03  2.74710E+04
 -2.19158E+04  1.23422E+04 -1.87675E+04 -4.97051E+03  5.65261E+03 -7.55492E+03  2.23641E+04  1.22431E+04
  7.38896E+03  3.52520E+04 -3.20974E+04  3.55740E+04 -6.35197E+04  2.11221E+03 -5.68041E+04 -4.27167E+04
 -1.27584E+04 -6.29870E+04  3.98948E+04 -4.51514E+04  5.82667E+04 -2.06072E+03  3.41584E+04  3.21723E+04
 -5.83764E+03  3.61332E+04 -2.98867E+04  1.55632E+04 -3.02167E+04 -4.31013E+03 -1.65793E+04 -1.10164E+04
 -8.11142E+03 -1.30245E+04 -8.85360E+02 -1.81596E+04  7.33906E+03 -2.31452E+04  1.55706E+04 -1.36173E+04
  1.11430E+04  5.02695E+03 -8.20983E+03  1.28531E+04 -2.08429E+04 -4.30955E+03 -8.12926E+03 -3.38190E+04
  2.27752E+04 -4.32508E+04  4.76978E+04 -1.98239E+04  4.50346E+04  1.96693E+04  1.56536E+04  4.38395E+04
 -1.61121E+04  3.31803E+04 -2.54573E+04  1.64649E+03 -9.84440E+03 -2.77114E+04  2.06178E+04 -3.37222E+04
  4.10019E+04 -9.03998E+03  3.54658E+04  2.37560E+04  1.81376E+04  4.65312E+04 -8.05645E+03  5.02530E+04
 -3.18196E+04  3.35488E+04 -4.18059E+04  9.90268E+03 -4.25037E+04 -1.65381E+04 -2.36013E+04 -3.78092E+04
  7.34208E+03 -3.79407E+04  3.10391E+04 -1.48332E+04  2.92459E+04  1.10142E+04  3.99680E+03  1.94574E+04
 -1.36145E+04  8.59276E+03 -1.03604E+04 -7.82124E+03  6.06662E+03 -1.03386E+04  1.78901E+04  5.89021E+03
  1.34239E+04  2.19445E+04 -5.83654E+03  2.56121E+04 -2.22432E+04  1.15094E+04 -2.76013E+04 -4.51857E+03
 -2.08515E+04 -1.74687E+04 -8.53608E+03 -2.05105E+04  3.90755E+03 -1.96805E+04  1.57888E+04 -1.83844E+04
  2.64353E+04 -1.25653E+04  3.27406E+04  2.96926E+03  2.39783E+04  2.00299E+04  4.16210E+03  3.63803E+04
 -1.77516E+04  3.03120E+04 -2.80812E+04  1.06960E+04 -2.06431E+04 -1.04079E+04 -4.60798E+03 -1.34512E+04
  1.93263E+03 -2.67613E+03 -4.72429E+03  6.52089E+03 -1.62255E+04  5.02586E+03 -1.66119E+04 -6.73903E+03
 -1.00890E+04 -1.90066E+04  5.26169E+03 -2.33540E+04  1.49708E+04 -1.64147E+04  1.82017E+04 -1.47271E+03
  1.13046E+04  1.33296E+04 -1.20503E+03  1.89666E+04 -1.30889E+04  1.09207E+04 -1.88825E+04 -4.14860E+03
 -1.40462E+04 -1.71796E+04 -1.33847E+03 -2.28051E+04  1.02365E+04 -1.89818E+04  1.92381E+04 -9.52859E+03
  1.78878E+04  3.85236E+01  1.29247E+04  4.24487E+03  6.97089E+03  1.14220E+03  9.82749E+03 -1.59664E+03
  1.73937E+04  2.79494E+03  1.97386E+04  1.52154E+04  1.26949E+04  3.00799E+04 -2.65694E+03  3.44956E+04
 -1.98026E+04  2.78053E+04 -3.21428E+04  1.37501E+04 -3.37767E+04 -2.20347E+03 -2.78301E+04 -1.93133E+04
 -1.20679E+04 -2.80234E+04  9.51572E+03 -2.51672E+04  2.14521E+04 -1.26609E+04  1.92011E+04  5.55808E+03
  6.98213E+03  1.43940E+04 -8.96448E+03  1.26173E+04 -1.64689E+04  2.77585E+03 -1.22389E+04 -1.01250E+04
 -1.22277E+02 -1.56994E+04  8.20536E+03 -1.15119E+04  1.02787E+04 -1.40773E+03  2.16930E+03  6.45246E+03
 -6.81480E+03  2.96461E+03 -5.56602E+03 -5.62261E+03 -4.16964E+02 -1.33313E+04  9.79116E+03 -1.44021E+04
  1.68813E+04 -7.39513E+03  1.80249E+04  2.79403E+03  1.56743E+04  1.32512E+04  7.35274E+03  2.09925E+04
 -3.24435E+03  2.25198E+04 -1.45231E+04  1.40119E+04 -1.61766E+04  3.40032E+03 -1.13695E+04 -3.63498E+03
 -5.38755E+03 -5.00077E+03 -8.77637E+02  8.39672E+02 -2.65425E+03  2.84003E+03 -5.11150E+03  4.12308E+03
 -1.09061E+04 -5.75514E+02 -1.12185E+04 -9.56656E+03 -4.62208E+03 -1.48823E+04  4.68992E+03 -1.17232E+04
  9.34315E+03 -5.08687E+03  6.66396E+03  2.89857E+03  1.24219E+01  4.55102E+03 -5.15224E+03 -2.94941E+01
 -4.97363E+03 -7.25965E+03 -1.27618E+03 -1.06480E+04  6.31825E+03 -1.15324E+04  1.42464E+04 -5.98082E+03
  1.69461E+04  1.33392E+03  1.25048E+04  9.40853E+03  2.42462E+03  1.32315E+04 -7.18537E+03  1.10374E+04
 -9.47226E+03  3.52981E+03 -4.60832E+03 -2.30198E+03  1.78181E+03 -3.05192E+03  6.26135E+03 -9.05372E+02
  5.50598E+03  4.97745E+03  1.11243E+03  8.95666E+03 -6.55369E+03  8.99477E+03 -1.12331E+04  2.53750E+03
 -7.19421E+03 -5.61222E+03  4.99564E+02 -9.58356E+03  5.86288E+03 -4.85449E+03  5.94178E+03  2.39254E+03
  9.14491E+02  6.34014E+03 -5.71389E+03  7.56424E+03 -8.67348E+03  3.45016E+03 -8.37770E+03 -2.76863E+03
 -5.00506E+03 -1.00394E+04  2.51391E+03 -1.19989E+04  1.00485E+04 -7.53338E+03  1.07544E+04  1.87923E+03
  6.94269E+03  8.43979E+03 -7.54681E+02  1.07409E+04 -7.95153E+03  5.99615E+03 -8.61752E+03 -9.64977E+02
 -8.04728E+03 -7.37581E+03 -1.39618E+03 -7.73971E+03  3.93618E+03 -6.80084E+03  4.62295E+03 -3.16357E+03
  3.62901E+03  1.13010E+03 -5.45977E+02  1.69829E+03  1.52070E+02 -1.51837E+03  1.15449E+03 -4.24911E+03
  7.18246E+03 -2.46991E+03  1.00419E+04  1.31333E+03  9.75407E+03  6.58410E+03  7.46144E+03  1.31559E+04
 -3.06351E+03  1.50531E+04 -1.27471E+04  1.12645E+04 -1.64739E+04  2.28521E+03 -1.34131E+04 -5.22155E+03
 -6.75042E+03 -1.09804E+04 -2.48878E+02 -8.93614E+03  3.23579E+03 -4.51439E+03  2.98522E+03 -3.30517E+03
  2.43999E+03 -1.79320E+03  2.85075E+03 -3.22232E+03  4.77920E+03 -2.47674E+03  5.90137E+03 -1.46493E+02
  6.94128E+03  1.92958E+03  3.04705E+03  5.93203E+03 -1.70819E+03  6.52804E+03 -7.47570E+03  5.06801E+03
 -8.99033E+03 -1.09263E+03 -5.17468E+03 -5.98437E+03  2.46879E+01 -9.61693E+03  5.35878E+03 -9.66817E+03
  1.01255E+04 -5.26731E+03  1.21702E+04  1.31822E+03  8.41898E+03  7.66679E+03  1.75201E+03  1.07695E+04
 -4.08295E+03  9.39653E+03 -6.24464E+03  3.08773E+03 -3.97092E+03 -1.48483E+03 -1.46334E+03 -1.29883E+03
 -7.49257E+02  5.06273E+02 -1.26238E+03  2.50402E+03 -3.79012E+03  1.61318E+03 -6.65410E+03 -7.69481E+02
 -3.70584E+03 -6.41897E+03  3.88123E+02 -8.75177E+03  5.52940E+03 -8.06727E+03  7.92127E+03 -2.66893E+03
  8.20797E+03  4.13522E+03  3.89469E+03  7.18501E+03 -1.74253E+03  8.41532E+03 -5.95801E+03  5.13174E+03
 -7.61597E+03  8.40217E+02 -6.34344E+03 -4.90686E+03 -5.45483E+02 -6.65524E+03  3.57752E+03 -4.97356E+03
  5.14776E+03 -1.90190E+03  3.69388E+03  9.40214E+02  8.72411E+02  2.79091E+03  1.07500E+03  1.16759E+03
  2.07866E+03  5.73153E+02  2.35156E+03  1.41324E+03  2.42131E+03  3.25994E+03  2.37604E+03  4.26812E+03
 -1.66438E+03  6.05738E+03 -5.56932E+03  6.94930E+03 -7.79298E+03  1.85701E+03 -8.71728E+03 -2.95631E+03
 -3.79262E+03 -8.23416E+03  1.49078E+03 -9.33275E+03  5.15302E+03 -5.54705E+03  6.76550E+03 -1.80708E+03
  5.37153E+03  3.40302E+03  1.27998E+03  4.95946E+03 -2.19585E+03  2.80755E+03 -3.27512E+03 -2.28551E+02
 -1.63154E+03 -3.48175E+03  2.12391E+03 -3.40699E+03  2.94803E+03 -2.16682E+03  3.21205E+03  8.35211E+02
  1.85443E+03  1.38688E+03  1.17302E+03  9.60794E+02 -5.43044E+02  1.11033E+03  1.73456E+03 -4.26217E+02
  8.88992E+02 -5.81344E+02  3.64156E+03  1.47026E+03  1.77352E+03  4.57725E+03 -7.55257E+02  6.04986E+03
 -4.02114E+03  3.26885E+03 -5.20918E+03  8.86885E+02 -4.65471E+03 -1.47924E+03 -1.33501E+03 -2.86632E+03
  4.14260E+02 -2.99914E+03  2.00799E+03 -1.43048E+03  1.62723E+03  2.16911E+03 -1.03139E+03  2.36087E+03
 -3.40359E+03  1.91457E+03 -3.30903E+03 -2.15627E+03 -2.15393E+03 -4.35704E+03  4.67131E+02 -4.41056E+03
  2.29551E+03 -2.27311E+03  2.84947E+03 -1.57749E+02  2.48599E+03  9.71719E+02  5.42207E+02  2.52486E+03
 -1.32653E+03  5.55240E+02 -2.14011E+03 -1.52544E+03  6.07001E+02 -3.06991E+03  4.06259E+03 -2.67839E+03
  4.23894E+03  1.10697E+02  4.91653E+03  2.97237E+03  1.55860E+03  4.80286E+03 -1.79199E+03  4.88892E+03
 -3.95866E+03  1.69064E+03 -4.13510E+03 -1.88420E+02 -1.90362E+03 -3.43812E+03  8.18416E+02 -2.22095E+03
  3.11412E+03 -1.66524E+03  2.61945E+03  1.53884E+03  8.03195E+02  2.93326E+03 -2.66652E+02  2.65022E+03
 -8.02058E+02  2.16586E+03 -1.23616E+03  7.52362E+02 -3.59267E+02  5.43424E+02 -1.08110E+03  1.16716E+03
 -1.46110E+03  2.28091E+03 -3.42421E+03  1.51294E+03 -4.99060E+03  8.41091E+01 -5.81424E+03 -2.90998E+03
 -2.83465E+03 -6.16538E+03  1.29642E+03 -7.39597E+03  4.09958E+03 -6.03747E+03  7.25225E+03 -2.52755E+03
  6.29260E+03  1.19344E+03  3.88462E+03  4.17813E+03 -1.69332E+02  4.85899E+03 -2.05391E+03  3.66051E+03
 -3.16297E+03  1.05681E+03 -1.55459E+03 -4.03580E+02 -1.11748E+03 -2.29933E+02 -7.35925E+02 -1.57651E+02
 -1.17197E+03 -5.47086E+01 -1.21133E+03 -1.44342E+02 -8.80249E+01 -9.75773E+02 -4.27943E+02 -1.97405E+03
  2.08496E+03 -1.33281E+03  2.46644E+03  1.97771E+02  3.18200E+03  2.79496E+03  7.31320E+02  4.51600E+03
 -2.31100E+03  5.46654E+03 -4.94804E+03  3.15090E+03 -5.46366E+03 -1.46837E+02 -4.19321E+03 -3.46353E+03
 -1.92440E+03 -4.40574E+03  1.27729E+03 -3.95829E+03  2.60752E+03 -2.22527E+03  2.95699E+03  2.78761E+02
  1.82855E+03  1.38407E+03 -2.42028E+02  1.29237E+03 -9.62935E+02  1.13686E+02  5.40099E+01 -8.41711E+02
  1.37551E+03 -6.43984E+02  1.48194E+03  5.47768E+02  1.09967E+03  2.04731E+03  1.47124E+02  1.81843E+03
 -2.17395E+03  1.89486E+03 -2.96971E+03  1.06156E+02 -2.56488E+03 -1.95414E+03 -5.65914E+02 -3.64025E+03
  2.24766E+03 -3.04391E+03  3.16372E+03 -9.45527E+02  3.28952E+03  5.66085E+02  1.68388E+03  2.60189E+03
  6.17551E+02  2.49263E+03 -9.14908E+02  2.45908E+03 -1.84375E+03  1.77766E+03 -1.46096E+03  3.51729E+02
 -5.14054E+02  3.15270E+01 -1.03040E+03  3.35650E+02 -1.61012E+03  4.60849E+02 -2.23496E+03 -6.31205E+02
 -2.60961E+03 -7.73018E+02 -7.07352E+02 -3.03407E+03  1.24090E+03 -3.79518E+03  2.60728E+03 -1.19419E+03
  2.72407E+03  4.24994E+02  9.47403E+02  1.53926E+03 -4.70379E+01  2.95058E+03 -2.04735E+03  1.76611E+03
