 $NMID ID='MM_0lb_SNR800_19hz_g55_41.RAW', FMTDAT='(8E13.5)'
 TRAMP=1., VOLUME=1. $END
  3.09849E+05  4.34126E+02  3.37480E+05  2.50555E+05  8.45117E+04  3.37744E+05 -1.32211E+05  2.50472E+05
 -1.90053E+05  8.26089E+04 -1.11335E+05 -3.28281E+04  1.01802E+03 -5.04301E+04  5.38417E+04 -3.12917E+01
  3.51730E+04  5.29603E+04 -1.68622E+04  7.52619E+04 -6.06043E+04  6.28829E+04 -8.33439E+04  3.16190E+04
 -7.98382E+04 -1.12307E+04 -5.63935E+04 -5.08301E+04 -1.48505E+04 -6.85919E+04  2.71827E+04 -4.48538E+04
  3.91291E+04  3.99054E+03  1.59415E+04  4.73696E+04 -3.38912E+04  4.65859E+04 -6.57048E+04 -4.13627E+02
 -5.22511E+04 -5.59444E+04 -6.49864E+03 -7.55480E+04  3.33134E+04 -5.37769E+04  4.65979E+04 -1.65026E+04
  4.18931E+04  1.10916E+04  3.14298E+04  2.47367E+04  1.54549E+04  2.88192E+04 -4.63765E+03  2.68791E+04
 -2.18025E+04  1.24644E+04 -1.89110E+04 -4.76556E+03  4.87377E+03 -7.54811E+03  2.14385E+04  1.13551E+04
  7.39586E+03  3.36374E+04 -3.08104E+04  3.43068E+04 -6.15684E+04  2.02869E+03 -5.58368E+04 -4.16057E+04
 -1.26062E+04 -6.15208E+04  3.87589E+04 -4.37381E+04  5.60042E+04 -2.07504E+03  3.24470E+04  3.10299E+04
 -6.40301E+03  3.38543E+04 -2.87018E+04  1.41823E+04 -2.84065E+04 -5.06451E+03 -1.48351E+04 -1.03976E+04
 -7.70922E+03 -1.19517E+04 -9.52037E+02 -1.71111E+04  7.02721E+03 -2.27496E+04  1.49793E+04 -1.37721E+04
  1.23040E+04  4.43090E+03 -6.97821E+03  1.33861E+04 -1.97969E+04 -3.06517E+03 -7.89150E+03 -3.14737E+04
  2.11753E+04 -4.10979E+04  4.54094E+04 -1.87728E+04  4.28277E+04  1.85740E+04  1.44999E+04  4.21124E+04
 -1.56564E+04  3.17957E+04 -2.40121E+04  1.27263E+03 -8.59282E+03 -2.68299E+04  2.07659E+04 -3.14954E+04
  3.86228E+04 -7.54333E+03  3.23502E+04  2.28023E+04  1.61019E+04  4.33401E+04 -7.72407E+03  4.61221E+04
 -2.89866E+04  3.06390E+04 -3.82776E+04  8.51274E+03 -3.92318E+04 -1.54264E+04 -2.17238E+04 -3.51743E+04
  6.99291E+03 -3.49168E+04  2.95374E+04 -1.32871E+04  2.74844E+04  1.07043E+04  3.17043E+03  1.80596E+04
 -1.28692E+04  7.52186E+03 -9.69338E+03 -7.78599E+03  6.04412E+03 -1.01469E+04  1.74575E+04  6.36316E+03
  1.25249E+04  2.13238E+04 -6.79375E+03  2.38240E+04 -2.18493E+04  9.36852E+03 -2.56971E+04 -6.06354E+03
 -1.76316E+04 -1.65760E+04 -6.21604E+03 -1.74906E+04  3.86912E+03 -1.53650E+04  1.29945E+04 -1.51085E+04
  2.19869E+04 -1.15940E+04  2.85295E+04  1.52804E+03  2.17466E+04  1.69575E+04  4.03993E+03  3.32083E+04
 -1.63994E+04  2.82977E+04 -2.61470E+04  9.71762E+03 -1.98239E+04 -1.03172E+04 -4.07278E+03 -1.37971E+04
  2.55538E+03 -3.75323E+03 -2.85778E+03  5.49625E+03 -1.34209E+04  5.01382E+03 -1.36269E+04 -5.09045E+03
 -8.82031E+03 -1.62050E+04  4.69682E+03 -2.02200E+04  1.28772E+04 -1.41925E+04  1.52619E+04 -1.39965E+03
  9.03521E+03  1.10991E+04 -8.11742E+02  1.62093E+04 -1.08618E+04  9.29523E+03 -1.57846E+04 -3.41836E+03
 -1.16125E+04 -1.46629E+04 -1.34063E+03 -1.94806E+04  8.74200E+03 -1.55738E+04  1.64627E+04 -7.70807E+03
  1.49083E+04  5.85830E+02  1.04579E+04  3.87462E+03  5.32204E+03  4.03677E+02  7.98527E+03 -1.47004E+03
  1.43676E+04  2.32984E+03  1.54150E+04  1.29007E+04  9.60779E+03  2.52809E+04 -2.93150E+03  2.76437E+04
 -1.59346E+04  2.11295E+04 -2.50300E+04  9.86664E+03 -2.56512E+04 -1.98290E+03 -2.20158E+04 -1.48638E+04
 -1.04022E+04 -2.10195E+04  6.77939E+03 -1.96168E+04  1.69077E+04 -1.09070E+04  1.59716E+04  3.86583E+03
  6.45116E+03  1.14390E+04 -7.36517E+03  1.05951E+04 -1.37545E+04  2.45534E+03 -1.03495E+04 -8.20254E+03
 -6.56527E+01 -1.26079E+04  6.37906E+03 -9.57235E+03  8.21528E+03 -1.18906E+03  1.52792E+03  5.09985E+03
 -5.40050E+03  1.28025E+03 -4.10365E+03 -4.61928E+03  6.13795E+02 -1.04563E+04  7.88994E+03 -1.01397E+04
  1.26401E+04 -5.20771E+03  1.24313E+04  2.75748E+03  1.05423E+04  9.67342E+03  5.02705E+03  1.44625E+04
 -1.78058E+03  1.61333E+04 -9.92176E+03  1.03749E+04 -1.15969E+04  3.14013E+03 -8.89202E+03 -2.03595E+03
 -4.33256E+03 -3.32994E+03 -8.22561E+02  1.41835E+03 -1.88476E+03  2.15602E+03 -3.59407E+03  3.68192E+03
 -8.35484E+03 -4.46298E+02 -9.00948E+03 -7.22430E+03 -3.51876E+03 -1.17852E+04  3.67085E+03 -8.64078E+03
  7.21790E+03 -3.94883E+03  5.36670E+03  2.00023E+03  3.15049E+02  3.12313E+03 -3.62689E+03 -6.06798E+01
 -3.32696E+03 -5.23659E+03 -6.78924E+02 -7.07440E+03  3.93527E+03 -8.13754E+03  9.99809E+03 -4.08717E+03
  1.19844E+04  3.93892E+02  8.77175E+03  6.30660E+03  1.69651E+03  8.88773E+03 -5.34024E+03  8.36712E+03
 -7.31886E+03  2.88888E+03 -3.56525E+03 -1.25974E+03  1.00474E+03 -1.71973E+03  4.75085E+03 -9.86060E+02
  4.05624E+03  3.18428E+03  1.31419E+03  6.68919E+03 -4.70558E+03  6.80644E+03 -8.06154E+03  1.81948E+03
 -4.86641E+03 -3.71490E+03  2.11866E+02 -6.65205E+03  3.65345E+03 -3.23896E+03  3.20648E+03  9.45444E+02
  4.41421E+02  3.15238E+03 -3.98013E+03  4.79592E+03 -5.09523E+03  2.27992E+03 -4.57615E+03 -1.03899E+03
 -2.79712E+03 -5.94680E+03  1.12623E+03 -7.04439E+03  6.15430E+03 -4.65007E+03  6.62001E+03  1.18356E+03
  4.62183E+03  5.32385E+03  2.41455E+01  7.25995E+03 -5.12527E+03  4.32860E+03 -5.17313E+03 -3.37882E+02
 -5.78446E+03 -5.18648E+03 -1.33155E+03 -5.24154E+03  2.41185E+03 -4.70458E+03  2.63749E+03 -2.91660E+03
  2.62890E+03  2.24230E+02  2.92353E+02  1.04267E+03  6.07232E+02 -4.05662E+02  2.09644E+02 -1.44293E+03
  3.82002E+03 -4.69817E+02  5.27409E+03  8.78984E+02  5.32285E+03  2.83978E+03  5.24221E+03  7.13969E+03
 -9.73764E+02  8.52097E+03 -7.68213E+03  6.43871E+03 -9.93172E+03  1.01927E+03 -7.73222E+03 -2.54636E+03
 -4.05236E+03 -6.59398E+03 -3.61904E+02 -5.14336E+03  1.95996E+03 -2.39019E+03  1.79089E+03 -1.95966E+03
  1.15273E+03 -1.60636E+03  2.13658E+03 -2.45539E+03  3.56215E+03 -1.42124E+03  3.29461E+03  4.66228E+02
  4.36792E+03  1.31897E+03  1.09578E+03  3.13793E+03 -1.48355E+03  3.03480E+03 -4.22837E+03  2.58287E+03
 -4.93886E+03 -1.11996E+03 -1.69529E+03 -3.34174E+03  3.27128E+02 -4.77518E+03  3.14496E+03 -5.08586E+03
  4.76857E+03 -3.09998E+03  6.60371E+03  1.15318E+02  4.91665E+03  4.50866E+03  7.36272E+02  5.74286E+03
 -1.84855E+03  5.77189E+03 -3.09036E+03  1.90707E+03 -1.86336E+03 -1.21927E+03 -5.62748E+02 -3.75036E+02
 -5.80870E+02  6.51162E+02 -7.34772E+02  2.03309E+03 -2.45885E+03  9.82311E+02 -3.90310E+03 -5.63209E+02
 -1.49915E+03 -4.15845E+03  7.73751E+02 -4.51522E+03  2.52041E+03 -4.21136E+03  3.25084E+03 -1.08590E+03
  4.01728E+03  2.67491E+03  1.72860E+03  3.07018E+03 -8.04594E+02  3.95927E+03 -2.32394E+03  2.69153E+03
 -3.52951E+03  5.13252E+02 -3.46443E+03 -2.28127E+03 -1.57688E+02 -3.03221E+03  1.49696E+03 -2.51072E+03
  2.42768E+03 -1.23589E+03  1.63974E+03  3.89700E+02  3.39273E+02  1.59870E+03  8.32479E+02  4.11391E+02
  1.75742E+03  5.69828E+02  1.08869E+03  1.15905E+03  8.58566E+02  2.34021E+03  1.00364E+03  1.50688E+03
 -1.50625E+03  2.36726E+03 -2.45235E+03  3.95723E+03 -2.92636E+03  1.01788E+03 -4.07470E+03 -4.07027E+02
 -1.85760E+03 -3.37046E+03  6.30872E+02 -4.45642E+03  2.00063E+03 -2.41844E+03  2.94959E+03 -8.32970E+02
  2.41809E+03  1.62150E+03  2.66600E+02  2.01272E+03 -3.88310E+02  1.03322E+03 -6.89304E+02 -1.18807E+02
 -4.62860E+02 -1.36843E+03  9.90055E+02 -1.81831E+03  1.16672E+03 -8.44712E+02  1.18663E+03  8.44411E+01
  7.35919E+02  3.28176E+02  7.18602E+02 -2.38330E+02 -2.87472E+02  6.61441E+02  1.35327E+03 -1.32057E+02
 -1.84573E+02 -6.41914E+01  1.49902E+03  4.29286E+02  1.23696E+02  2.46350E+03 -4.61152E+02  2.57420E+03
 -1.33308E+03  8.18089E+02 -2.01070E+03  5.05133E+02 -1.90675E+03 -4.45614E+02 -3.43841E+02 -9.80303E+02
  4.90931E+02 -1.00600E+03  1.01003E+03 -6.62923E+02  6.73733E+02  1.18937E+03 -8.76670E+02  1.24036E+03
 -1.28419E+03  9.14959E+02 -8.86454E+02 -1.11376E+03 -6.04913E+02 -1.66677E+03  2.83139E+02 -1.52931E+03
  5.62004E+02 -5.53840E+02  5.41682E+02  4.07443E+02  1.48028E+03 -2.20457E+02  4.12718E+02  1.04486E+03
 -2.59159E+02  1.02431E+02 -7.63274E+02 -2.46223E+01  7.99395E+02 -6.64409E+02  1.79027E+03 -6.66890E+02
  1.21425E+03  2.85584E+01  2.43107E+03  4.78080E+02  1.18282E+03  1.53596E+03 -2.97994E+02  1.79102E+03
 -1.08036E+03  1.58194E+02 -1.34640E+03 -5.10276E+01 -8.44785E+02 -1.40048E+03  2.42425E+02 -3.32341E+02
  1.31476E+03 -8.12011E+02  7.08205E+02  8.75151E+02  3.49085E+01  9.47801E+02  3.63837E+02  1.03541E+03
 -1.08459E+02  1.03939E+03 -4.67229E+02  2.16458E+02 -2.40171E+02  1.17204E+02 -7.03613E+02  4.34852E+02
 -5.20572E+02  9.23616E+02 -1.69696E+03  3.03357E+02 -1.17512E+03  1.79747E+02 -2.15764E+03 -8.64376E+02
 -8.88443E+02 -2.01808E+03  3.87710E+02 -2.68297E+03  6.93265E+02 -2.11912E+03  2.36975E+03 -8.91354E+02
  2.08966E+03 -6.59787E+01  9.77854E+02  1.79321E+03 -9.28060E+02  1.14624E+03 -3.84259E+02  1.11761E+03
 -1.01361E+03  8.41927E+02 -2.08431E+02 -3.00601E+02 -6.96854E+02  3.03476E+02 -7.00248E+02  1.15513E+02
 -7.88408E+02 -3.55293E+02 -8.39352E+02 -3.97269E+01  3.49254E+02 -7.31697E+02 -4.83410E+02 -8.11606E+02
  1.03274E+03 -5.20545E+02  8.34480E+01  4.04492E+02  1.12992E+03  8.86848E+02 -3.56277E+02  9.86690E+02
 -6.38135E+02  1.90320E+03 -1.05036E+03  1.17750E+03 -1.45552E+03  7.39443E+01 -1.07340E+03 -1.17773E+03
 -3.57480E+02 -1.06905E+03  1.26215E+02 -1.00812E+03  4.41219E+02 -5.08206E+02  3.44267E+02 -7.25267E+01
  5.54508E+02  6.36565E+01 -1.01058E+02  3.76871E+02 -3.94895E+02  3.51610E+01 -1.75639E+02  7.90953E+01
  4.11917E+02  5.47330E+02  1.86230E+02  8.21842E+02 -1.90159E+01  1.04157E+02  6.83064E+02 -2.99118E+00
 -2.09558E+02  4.09888E+02 -3.65094E+02  3.96358E+02 -7.33630E+02 -4.72390E+02  1.53030E+02 -7.24418E+02
  5.20945E+02 -6.49559E+02  3.13334E+02  7.37002E+01  8.18911E+02 -7.38332E+02  3.66219E+02  6.70735E+02
  3.66362E+02  1.04383E+02 -5.57201E+01  1.71300E+02 -5.75986E+02  2.20316E+02 -2.65751E+02  1.70258E+02
 -4.74860E+01 -1.44333E+02 -2.24402E+02  4.03618E+02 -4.16424E+02  3.25418E+02 -6.23402E+02 -5.24092E+02
 -1.18936E+03  3.57825E+02 -4.05202E+02 -7.80024E+02  6.91365E+02 -1.27430E+03  5.73015E+02 -2.04339E+01
  6.71458E+02  6.44533E+01 -3.53223E+02  2.30998E+02 -1.42776E+02  7.17235E+02 -4.07739E+02  6.79721E+02
