 $NMID ID='MM_0lb_SNR800_13hz_g60_58.RAW', FMTDAT='(8E13.5)'
 TRAMP=1., VOLUME=1. $END
  3.09830E+05  4.08365E+02  3.37869E+05  2.50766E+05  8.46969E+04  3.38271E+05 -1.32780E+05  2.51619E+05
 -1.90377E+05  8.34415E+04 -1.12097E+05 -3.25176E+04  5.97280E+02 -5.02898E+04  5.37270E+04 -4.62360E+02
  3.58149E+04  5.28567E+04 -1.66240E+04  7.60428E+04 -6.10350E+04  6.37494E+04 -8.50041E+04  3.23732E+04
 -8.18406E+04 -1.18536E+04 -5.78079E+04 -5.20555E+04 -1.51855E+04 -7.01703E+04  2.79506E+04 -4.62827E+04
  4.07599E+04  3.59827E+03  1.64618E+04  4.82086E+04 -3.44820E+04  4.79702E+04 -6.73619E+04  7.38682E+01
 -5.43616E+04 -5.71114E+04 -7.08553E+03 -7.83514E+04  3.42107E+04 -5.60660E+04  4.86840E+04 -1.77748E+04
  4.43822E+04  1.12412E+04  3.24175E+04  2.61780E+04  1.58917E+04  2.98206E+04 -5.58807E+03  2.74926E+04
 -2.25752E+04  1.20143E+04 -1.82070E+04 -5.37583E+03  6.50290E+03 -7.59096E+03  2.28217E+04  1.33349E+04
  7.44411E+03  3.62052E+04 -3.32468E+04  3.59864E+04 -6.51191E+04  2.04422E+03 -5.78198E+04 -4.38867E+04
 -1.23118E+04 -6.48893E+04  4.11163E+04 -4.63148E+04  5.98624E+04 -2.24770E+03  3.53806E+04  3.36244E+04
 -5.97087E+03  3.80777E+04 -3.10122E+04  1.72225E+04 -3.20777E+04 -3.91595E+03 -1.82781E+04 -1.12611E+04
 -9.02686E+03 -1.44083E+04 -7.46304E+02 -1.90752E+04  8.11658E+03 -2.33798E+04  1.56435E+04 -1.28632E+04
  1.06731E+04  5.85640E+03 -9.26587E+03  1.27753E+04 -2.27030E+04 -5.72535E+03 -8.43879E+03 -3.56068E+04
  2.41259E+04 -4.49544E+04  5.00022E+04 -2.02465E+04  4.71934E+04  2.01470E+04  1.66650E+04  4.55642E+04
 -1.64359E+04  3.48483E+04 -2.67069E+04  2.30674E+03 -1.07101E+04 -2.88578E+04  2.14007E+04 -3.53473E+04
  4.30315E+04 -1.00075E+04  3.80017E+04  2.43153E+04  2.00772E+04  4.88841E+04 -8.17714E+03  5.32658E+04
 -3.37042E+04  3.61948E+04 -4.48894E+04  1.02631E+04 -4.48494E+04 -1.77338E+04 -2.46046E+04 -3.98578E+04
  7.48563E+03 -3.97060E+04  3.26462E+04 -1.62391E+04  3.07480E+04  1.12219E+04  4.50326E+03  1.98715E+04
 -1.36516E+04  9.00398E+03 -1.07918E+04 -7.81958E+03  5.51053E+03 -1.08371E+04  1.85214E+04  5.85378E+03
  1.42131E+04  2.25217E+04 -5.37457E+03  2.60109E+04 -2.25708E+04  1.25771E+04 -3.00510E+04 -3.81629E+03
 -2.30304E+04 -1.79051E+04 -1.02688E+04 -2.27301E+04  4.10074E+03 -2.26718E+04  1.75571E+04 -2.04985E+04
  2.87535E+04 -1.36470E+04  3.52025E+04  3.67213E+03  2.51948E+04  2.22118E+04  4.64850E+03  3.84985E+04
 -1.84449E+04  3.20513E+04 -2.88260E+04  1.12589E+04 -2.17910E+04 -1.04194E+04 -4.83109E+03 -1.28873E+04
  1.22928E+03 -2.12733E+03 -6.12159E+03  7.17796E+03 -1.81546E+04  4.96572E+03 -1.81108E+04 -8.12285E+03
 -1.09466E+04 -2.15268E+04  5.80730E+03 -2.52825E+04  1.67363E+04 -1.75667E+04  2.01756E+04 -1.96799E+03
  1.27695E+04  1.44178E+04 -1.24125E+03  2.11787E+04 -1.46439E+04  1.21084E+04 -2.09247E+04 -4.18623E+03
 -1.52083E+04 -1.88350E+04 -1.99229E+03 -2.53826E+04  1.13561E+04 -2.08108E+04  2.10166E+04 -1.02132E+04
  1.97727E+04 -7.78507E+01  1.43868E+04  4.62504E+03  7.77310E+03  1.03924E+03  1.09539E+04 -1.67244E+03
  1.94953E+04  2.77655E+03  2.16057E+04  1.60984E+04  1.46738E+04  3.36527E+04 -2.88414E+03  3.84057E+04
 -2.21535E+04  3.13825E+04 -3.60806E+04  1.58470E+04 -3.80687E+04 -2.82333E+03 -3.12433E+04 -2.25434E+04
 -1.29042E+04 -3.15202E+04  1.11323E+04 -2.77662E+04  2.42633E+04 -1.35809E+04  2.11387E+04  6.27542E+03
  7.22005E+03  1.61410E+04 -1.02811E+04  1.38703E+04 -1.80739E+04  2.18285E+03 -1.39709E+04 -1.15128E+04
 -1.21776E+02 -1.75739E+04  8.72515E+03 -1.25851E+04  1.15953E+04 -1.41792E+03  2.75468E+03  7.21030E+03
 -7.86781E+03  3.12274E+03 -7.33005E+03 -6.45537E+03 -7.61648E+02 -1.55163E+04  1.06183E+04 -1.63436E+04
  1.93634E+04 -8.96265E+03  2.13587E+04  3.26463E+03  1.87451E+04  1.52939E+04  8.71141E+03  2.37295E+04
 -4.16475E+03  2.58779E+04 -1.66115E+04  1.58094E+04 -1.84425E+04  3.62893E+03 -1.31690E+04 -4.20371E+03
 -6.05906E+03 -5.77413E+03 -9.00144E+02  9.48473E+02 -2.47042E+03  2.62059E+03 -6.02882E+03  4.63058E+03
 -1.21272E+04 -6.59162E+02 -1.25546E+04 -1.02887E+04 -4.96109E+03 -1.60895E+04  5.07283E+03 -1.27811E+04
  1.07146E+04 -5.11972E+03  7.83257E+03  3.19402E+03  1.52971E+02  5.24381E+03 -6.18465E+03 -1.44560E+02
 -5.99211E+03 -8.25975E+03 -1.28221E+03 -1.22756E+04  6.81051E+03 -1.33420E+04  1.61030E+04 -6.95410E+03
  1.88079E+04  1.90374E+03  1.38995E+04  1.13288E+04  2.47521E+03  1.51972E+04 -7.97376E+03  1.27168E+04
 -1.06420E+04  4.05260E+03 -5.14723E+03 -2.80806E+03  1.98318E+03 -3.47687E+03  6.91879E+03 -9.17405E+02
  6.17495E+03  5.84914E+03  1.31090E+03  1.01608E+04 -6.68932E+03  9.77440E+03 -1.27711E+04  2.54507E+03
 -8.43050E+03 -6.57359E+03  2.81481E+01 -1.08041E+04  7.04723E+03 -5.47468E+03  6.88323E+03  2.33370E+03
  1.47801E+03  7.73438E+03 -6.58921E+03  8.45684E+03 -1.02827E+04  4.35606E+03 -1.00755E+04 -3.41618E+03
 -5.89791E+03 -1.19617E+04  2.59941E+03 -1.36709E+04  1.14980E+04 -8.25893E+03  1.22874E+04  2.47496E+03
  7.75114E+03  9.90721E+03 -1.06002E+03  1.26817E+04 -8.89398E+03  6.81618E+03 -1.00707E+04 -1.04892E+03
 -8.40961E+03 -8.46917E+03 -1.50097E+03 -9.29380E+03  5.10463E+03 -7.69948E+03  5.89286E+03 -3.53460E+03
  4.14507E+03  1.12122E+03 -7.07999E+02  1.59644E+03 -3.11702E+02 -2.16755E+03  1.69697E+03 -4.73227E+03
  8.04433E+03 -2.77829E+03  1.16264E+04  1.18665E+03  1.15767E+04  7.75271E+03  8.45520E+03  1.54100E+04
 -3.38970E+03  1.70919E+04 -1.46286E+04  1.33037E+04 -1.91261E+04  2.19650E+03 -1.53367E+04 -6.55429E+03
 -7.39477E+03 -1.25067E+04 -6.11923E+02 -1.04558E+04  3.65786E+03 -5.60498E+03  3.84168E+03 -4.05578E+03
  2.82336E+03 -2.39851E+03  3.15212E+03 -3.07009E+03  4.87043E+03 -2.34401E+03  6.25916E+03 -5.11628E+02
  7.86067E+03  1.97621E+03  4.19875E+03  6.58792E+03 -2.25102E+03  7.72927E+03 -8.29530E+03  6.04934E+03
 -1.04662E+04 -1.29880E+03 -6.04671E+03 -7.14283E+03 -7.03158E+02 -1.14766E+04  6.43230E+03 -1.11435E+04
  1.12428E+04 -6.08811E+03  1.34466E+04  1.77923E+03  9.69355E+03  9.69921E+03  1.60146E+03  1.25390E+04
 -4.90612E+03  1.06250E+04 -7.27491E+03  3.79578E+03 -4.58267E+03 -1.25122E+03 -1.80775E+03 -1.33928E+03
 -7.37001E+02  2.57372E+02 -1.82137E+03  2.36863E+03 -4.68301E+03  1.75419E+03 -7.10090E+03 -9.40606E+02
 -4.54825E+03 -7.46566E+03  2.31505E+02 -1.01317E+04  6.26621E+03 -9.61420E+03  9.54232E+03 -2.89043E+03
  9.72164E+03  5.05065E+03  4.38830E+03  8.87966E+03 -1.81599E+03  9.72423E+03 -7.01968E+03  6.06960E+03
 -9.31374E+03  2.44043E+02 -7.23098E+03 -5.57761E+03 -7.38601E+02 -7.86034E+03  3.90377E+03 -6.31453E+03
  6.04181E+03 -2.10543E+03  4.27746E+03  1.76291E+03  1.70142E+03  2.85550E+03  1.09003E+03  1.56117E+03
  2.35208E+03  1.09099E+03  2.29974E+03  1.33334E+03  3.08564E+03  3.61217E+03  2.84825E+03  5.03884E+03
 -1.86371E+03  7.24858E+03 -6.53002E+03  8.00286E+03 -9.11270E+03  2.13416E+03 -9.97429E+03 -3.74859E+03
 -4.69217E+03 -9.23470E+03  1.39023E+03 -1.07548E+04  5.33706E+03 -6.56362E+03  7.94353E+03 -2.03663E+03
  5.96842E+03  3.28498E+03  1.39243E+03  5.46999E+03 -2.53278E+03  3.58687E+03 -3.53533E+03 -4.77999E+02
 -2.10394E+03 -4.17448E+03  2.35367E+03 -4.12686E+03  4.04316E+03 -2.24665E+03  3.60473E+03  8.06267E+02
  2.13910E+03  1.53510E+03  8.26997E+02  1.20964E+03 -5.20630E+02  1.34778E+03  1.78670E+03 -3.73611E+02
  8.75631E+02 -4.34198E+02  3.98296E+03  1.35355E+03  2.01318E+03  4.68231E+03 -9.78464E+02  6.82917E+03
 -4.45579E+03  3.77018E+03 -6.04948E+03  1.34463E+03 -5.44544E+03 -2.08122E+03 -1.30925E+03 -3.27731E+03
  4.10156E+02 -3.65398E+03  2.37718E+03 -1.51420E+03  1.75995E+03  2.26805E+03 -1.06399E+03  2.98079E+03
 -3.53085E+03  2.11800E+03 -4.03177E+03 -2.44076E+03 -2.57169E+03 -4.89002E+03  5.16721E+02 -4.80752E+03
  2.93003E+03 -2.45661E+03  3.06133E+03 -2.65706E+02  3.07668E+03  1.16814E+03  5.90937E+02  2.64527E+03
 -1.40853E+03  8.52585E+02 -2.14223E+03 -1.49241E+03  8.43707E+02 -3.31278E+03  4.33151E+03 -3.09011E+03
  5.18670E+03  7.50436E+02  5.48948E+03  3.57827E+03  2.05727E+03  5.32332E+03 -1.67963E+03  5.26428E+03
 -4.59963E+03  2.40138E+03 -4.50905E+03 -8.09423E+02 -2.40215E+03 -3.76113E+03  7.83834E+02 -2.87806E+03
  3.54612E+03 -1.65843E+03  2.93679E+03  1.14594E+03  8.23572E+02  2.85608E+03 -1.89598E+02  2.76086E+03
 -1.18698E+03  1.75579E+03 -1.17935E+03  3.47744E+02 -8.67434E+02  5.07289E+02 -1.23340E+03  1.10291E+03
 -1.41650E+03  2.01627E+03 -4.12904E+03  1.70319E+03 -5.42043E+03  4.33493E+02 -6.26776E+03 -3.14552E+03
 -3.43003E+03 -7.66587E+03  1.52188E+03 -8.48796E+03  4.89771E+03 -6.73766E+03  7.76679E+03 -2.62784E+03
  6.97633E+03  1.24183E+03  4.23882E+03  4.97399E+03  1.06065E+02  5.26739E+03 -2.09951E+03  3.75855E+03
 -2.96221E+03  1.78611E+03 -1.54809E+03 -7.93113E+02 -8.00151E+02 -3.87876E+02 -6.36241E+02 -4.04278E+01
 -1.27124E+03  2.95264E+02 -1.45711E+03 -2.51835E+01 -3.79080E+02 -1.59316E+03 -2.57481E+02 -1.92293E+03
  2.47112E+03 -1.71187E+03  2.87407E+03  1.09306E+02  3.93148E+03  2.63152E+03  3.60325E+02  5.08967E+03
 -2.74909E+03  6.24966E+03 -5.65925E+03  3.45328E+03 -6.32250E+03 -6.34944E+02 -4.29356E+03 -3.82618E+03
 -2.06488E+03 -5.14663E+03  1.33751E+03 -4.53556E+03  3.20062E+03 -2.52334E+03  3.06447E+03 -9.84943E+01
  1.76653E+03  1.10729E+03 -5.06065E+01  1.34895E+03 -8.66379E+02  1.36330E+01  8.86520E+01 -9.26430E+02
  1.30620E+03 -3.70484E+02  1.75456E+03  4.06141E+02  1.15799E+03  2.09895E+03  2.87162E+02  1.75353E+03
 -1.86867E+03  2.13373E+03 -3.07896E+03  2.19807E+02 -2.78607E+03 -2.04408E+03 -3.04503E+02 -3.90552E+03
  1.98753E+03 -3.25007E+03  3.60881E+03 -1.09098E+03  3.70924E+03  4.92841E+02  2.01718E+03  3.30494E+03
  7.62815E+02  3.13559E+03 -1.04144E+03  2.78340E+03 -2.03945E+03  1.83354E+03 -1.47963E+03  2.24647E+02
 -7.46023E+02 -3.18837E+02 -1.04932E+03  3.32439E+02 -1.91860E+03  7.36873E+02 -2.49720E+03 -8.64594E+02
 -2.48790E+03 -1.10016E+03 -7.04533E+02 -3.34763E+03  1.78448E+03 -3.85824E+03  2.85814E+03 -1.56251E+03
  2.71686E+03  5.00820E+02  1.14667E+03  2.13830E+03 -1.36156E+02  2.90372E+03 -2.22109E+03  2.34693E+03
