 $NMID ID='MM_0lb_SNR800_13hz_g50_63.RAW', FMTDAT='(8E13.5)'
 TRAMP=1., VOLUME=1. $END
  3.09630E+05  4.45900E+02  3.37908E+05  2.50422E+05  8.51200E+04  3.38301E+05 -1.32760E+05  2.51455E+05
 -1.90554E+05  8.33468E+04 -1.11969E+05 -3.26579E+04  1.02556E+03 -5.07035E+04  5.38631E+04 -3.22066E+02
  3.54174E+04  5.30150E+04 -1.66477E+04  7.53903E+04 -6.08564E+04  6.38787E+04 -8.43868E+04  3.22872E+04
 -8.14042E+04 -1.14978E+04 -5.76853E+04 -5.15514E+04 -1.50860E+04 -6.98783E+04  2.74972E+04 -4.58033E+04
  4.03366E+04  4.05588E+03  1.61167E+04  4.80919E+04 -3.40949E+04  4.77065E+04 -6.68566E+04 -2.38429E+02
 -5.37629E+04 -5.69640E+04 -7.03789E+03 -7.76592E+04  3.40033E+04 -5.57052E+04  4.85766E+04 -1.73893E+04
  4.40901E+04  1.13098E+04  3.19803E+04  2.59023E+04  1.57875E+04  2.95242E+04 -5.36899E+03  2.72708E+04
 -2.18502E+04  1.20517E+04 -1.83219E+04 -5.03538E+03  5.83113E+03 -7.01526E+03  2.28142E+04  1.28074E+04
  7.13974E+03  3.59110E+04 -3.25030E+04  3.60801E+04 -6.38004E+04  2.18865E+03 -5.74669E+04 -4.31632E+04
 -1.23199E+04 -6.36437E+04  4.00887E+04 -4.53926E+04  5.86398E+04 -2.32145E+03  3.45380E+04  3.29719E+04
 -5.93608E+03  3.65314E+04 -3.03526E+04  1.65961E+04 -3.10310E+04 -4.31913E+03 -1.71282E+04 -1.13907E+04
 -8.34720E+03 -1.35049E+04 -1.02969E+03 -1.82780E+04  7.82101E+03 -2.31792E+04  1.52203E+04 -1.32396E+04
  1.11941E+04  5.27210E+03 -8.92771E+03  1.28491E+04 -2.16296E+04 -4.88355E+03 -7.83407E+03 -3.43152E+04
  2.35367E+04 -4.39274E+04  4.88384E+04 -1.99247E+04  4.58178E+04  1.95296E+04  1.60682E+04  4.47727E+04
 -1.56481E+04  3.39289E+04 -2.57798E+04  1.85145E+03 -1.01743E+04 -2.81583E+04  2.09792E+04 -3.44715E+04
  4.17886E+04 -9.67047E+03  3.70986E+04  2.37423E+04  1.87563E+04  4.75475E+04 -8.07058E+03  5.16785E+04
 -3.24575E+04  3.49224E+04 -4.33694E+04  9.91336E+03 -4.38530E+04 -1.70123E+04 -2.38337E+04 -3.88842E+04
  7.17315E+03 -3.85876E+04  3.20437E+04 -1.52657E+04  2.99657E+04  1.10518E+04  4.33799E+03  1.97660E+04
 -1.36294E+04  8.48256E+03 -1.06360E+04 -7.36384E+03  5.83667E+03 -1.08803E+04  1.83606E+04  5.90483E+03
  1.35803E+04  2.22237E+04 -5.67604E+03  2.55644E+04 -2.25561E+04  1.23226E+04 -2.87169E+04 -4.39529E+03
 -2.19442E+04 -1.77530E+04 -9.03265E+03 -2.13667E+04  3.95825E+03 -2.10494E+04  1.65863E+04 -1.93652E+04
  2.73676E+04 -1.34975E+04  3.35234E+04  3.28903E+03  2.45028E+04  2.09835E+04  4.12953E+03  3.74467E+04
 -1.79667E+04  3.12105E+04 -2.85402E+04  1.05148E+04 -2.13475E+04 -1.04861E+04 -4.67410E+03 -1.34436E+04
  1.40808E+03 -2.59617E+03 -5.25248E+03  6.91368E+03 -1.70145E+04  5.25314E+03 -1.70154E+04 -7.47610E+03
 -1.07946E+04 -1.95607E+04  5.67046E+03 -2.41746E+04  1.59769E+04 -1.73213E+04  1.89695E+04 -1.88505E+03
  1.21469E+04  1.38331E+04 -1.06865E+03  1.99729E+04 -1.42305E+04  1.14886E+04 -2.03842E+04 -4.20839E+03
 -1.45967E+04 -1.83344E+04 -1.85645E+03 -2.39880E+04  1.11875E+04 -1.96520E+04  1.99845E+04 -1.03100E+04
  1.87330E+04  3.14824E+02  1.35011E+04  4.85751E+03  7.45792E+03  1.11366E+03  1.00655E+04 -1.81970E+03
  1.83453E+04  2.69807E+03  2.08651E+04  1.59350E+04  1.32994E+04  3.17884E+04 -2.77270E+03  3.62194E+04
 -2.12109E+04  2.91875E+04 -3.39745E+04  1.51338E+04 -3.53874E+04 -2.64074E+03 -2.95089E+04 -2.07303E+04
 -1.22830E+04 -2.96101E+04  1.00012E+04 -2.64336E+04  2.27045E+04 -1.31291E+04  2.02642E+04  5.68058E+03
  7.75885E+03  1.49823E+04 -9.30277E+03  1.29407E+04 -1.71042E+04  2.65442E+03 -1.31995E+04 -1.06519E+04
 -3.74313E+01 -1.61421E+04  8.55194E+03 -1.21283E+04  1.05818E+04 -1.13400E+03  2.30651E+03  7.34312E+03
 -7.05912E+03  2.68372E+03 -6.76311E+03 -5.85413E+03 -8.91550E+02 -1.43540E+04  9.93441E+03 -1.55551E+04
  1.79656E+04 -8.07434E+03  1.94332E+04  3.23728E+03  1.70120E+04  1.42975E+04  7.91050E+03  2.22168E+04
 -3.81668E+03  2.41205E+04 -1.53822E+04  1.47665E+04 -1.69141E+04  3.57024E+03 -1.21498E+04 -3.97864E+03
 -5.56893E+03 -5.14133E+03 -9.24145E+02  7.00420E+02 -2.44997E+03  2.91528E+03 -5.60829E+03  4.59574E+03
 -1.12332E+04 -8.21599E+02 -1.19131E+04 -9.77888E+03 -4.88404E+03 -1.54672E+04  5.27175E+03 -1.20213E+04
  1.02355E+04 -5.07648E+03  7.18933E+03  3.47731E+03 -8.24759E+01  4.88642E+03 -5.77033E+03 -2.76843E+02
 -5.93567E+03 -7.57825E+03 -9.49312E+02 -1.14821E+04  6.56208E+03 -1.20761E+04  1.49272E+04 -6.45491E+03
  1.77204E+04  1.45545E+03  1.31640E+04  1.07215E+04  2.63811E+03  1.41071E+04 -7.17316E+03  1.21072E+04
 -1.00527E+04  3.60264E+03 -4.89408E+03 -2.35346E+03  1.90152E+03 -2.64755E+03  6.69744E+03 -1.10514E+03
  6.00024E+03  5.33244E+03  1.10083E+03  9.44268E+03 -7.13745E+03  9.24002E+03 -1.20068E+04  2.51598E+03
 -7.53988E+03 -5.85072E+03  2.91327E+02 -1.02423E+04  6.48035E+03 -4.94878E+03  6.39976E+03  2.32889E+03
  1.46774E+03  6.89884E+03 -5.97900E+03  8.21220E+03 -9.35697E+03  3.60146E+03 -9.27958E+03 -3.24868E+03
 -5.67977E+03 -1.10733E+04  2.83783E+03 -1.27845E+04  1.07363E+04 -7.77898E+03  1.16074E+04  2.04583E+03
  7.49033E+03  9.11410E+03 -4.76506E+02  1.11072E+04 -8.43141E+03  6.21775E+03 -9.12888E+03 -1.17020E+03
 -7.93671E+03 -7.56518E+03 -1.72177E+03 -8.64778E+03  4.64522E+03 -6.87471E+03  5.47114E+03 -3.09350E+03
  4.12810E+03  1.06468E+03 -7.41939E+02  1.48385E+03  1.16299E+02 -1.76493E+03  1.35015E+03 -4.54163E+03
  7.61676E+03 -2.84332E+03  1.04610E+04  1.22649E+03  1.02457E+04  6.87978E+03  7.52314E+03  1.38226E+04
 -2.85131E+03  1.59851E+04 -1.34149E+04  1.16740E+04 -1.73483E+04  2.14720E+03 -1.41507E+04 -5.73544E+03
 -7.19085E+03 -1.14829E+04 -4.93894E+02 -9.67747E+03  3.48689E+03 -5.13734E+03  2.88887E+03 -3.82909E+03
  2.29080E+03 -2.05696E+03  3.01013E+03 -2.81971E+03  4.78930E+03 -2.29483E+03  5.88519E+03 -5.74336E+02
  7.72872E+03  1.79440E+03  3.46230E+03  6.11947E+03 -1.98868E+03  6.55638E+03 -7.88338E+03  5.66555E+03
 -9.33874E+03 -1.09726E+03 -5.36155E+03 -6.61163E+03 -1.63294E+02 -9.84152E+03  5.99758E+03 -1.03087E+04
  1.04245E+04 -5.88515E+03  1.26793E+04  1.31140E+03  8.94910E+03  8.83156E+03  1.74522E+03  1.14497E+04
 -4.71332E+03  9.78538E+03 -6.71836E+03  3.79024E+03 -4.34014E+03 -1.41975E+03 -1.50709E+03 -1.25613E+03
 -1.04645E+03  1.20523E+02 -1.63744E+03  2.45311E+03 -4.28885E+03  1.96682E+03 -6.80862E+03 -1.03019E+03
 -4.14495E+03 -6.50539E+03  2.84426E+01 -9.28862E+03  5.77015E+03 -8.68477E+03  8.83761E+03 -2.55678E+03
  8.73967E+03  4.60533E+03  3.96142E+03  7.69483E+03 -1.95503E+03  8.93141E+03 -5.95224E+03  5.64179E+03
 -8.44260E+03  6.02312E+02 -6.83595E+03 -5.34242E+03 -5.13701E+02 -7.42519E+03  3.75072E+03 -5.32040E+03
  5.69314E+03 -1.88931E+03  3.91043E+03  1.66046E+03  1.19456E+03  2.78909E+03  1.67405E+03  1.44709E+03
  1.82764E+03  1.20002E+03  2.33601E+03  1.32469E+03  2.49993E+03  3.37829E+03  2.45629E+03  4.73324E+03
 -1.89484E+03  6.83420E+03 -5.69077E+03  7.75356E+03 -8.60805E+03  1.91365E+03 -9.36225E+03 -3.31990E+03
 -4.43845E+03 -8.84528E+03  1.25243E+03 -9.67638E+03  5.31930E+03 -6.24878E+03  7.20974E+03 -1.58672E+03
  5.66762E+03  3.36159E+03  1.14113E+03  5.05024E+03 -2.06565E+03  2.99519E+03 -2.98200E+03 -2.98284E+02
 -1.62077E+03 -3.99982E+03  2.12004E+03 -3.90807E+03  3.39145E+03 -1.84648E+03  3.35356E+03  8.90002E+02
  2.26644E+03  1.10048E+03  1.23061E+03  1.00619E+03 -6.49423E+02  1.17715E+03  1.77027E+03 -7.07913E+02
  1.36639E+03 -5.10675E+02  4.02974E+03  1.21904E+03  1.41301E+03  4.77514E+03 -8.92832E+02  6.05306E+03
 -4.16686E+03  3.72818E+03 -5.19767E+03  9.25046E+02 -5.16517E+03 -1.72945E+03 -1.77680E+03 -2.81588E+03
  7.39410E+02 -3.26799E+03  1.97933E+03 -1.60054E+03  1.90597E+03  2.07222E+03 -9.37642E+02  2.81832E+03
 -3.39979E+03  1.50473E+03 -3.70632E+03 -2.32690E+03 -2.20795E+03 -4.74533E+03  7.54674E+02 -4.53076E+03
  2.30902E+03 -2.57698E+03  2.93646E+03 -1.34805E+02  3.19888E+03  6.29178E+02  4.37302E+02  2.70601E+03
 -1.59211E+03  7.37099E+02 -2.29980E+03 -1.34960E+03  1.20512E+03 -3.35470E+03  3.87635E+03 -2.49144E+03
  4.87014E+03  5.06996E+02  5.55632E+03  3.02575E+03  1.93809E+03  4.90933E+03 -1.78371E+03  4.93404E+03
 -4.07964E+03  1.88109E+03 -4.40118E+03 -6.39871E+02 -2.72693E+03 -3.59832E+03  9.63474E+02 -2.87237E+03
  3.49632E+03 -1.59919E+03  2.51791E+03  1.14268E+03  6.73495E+02  3.11048E+03 -8.48906E+01  2.79630E+03
 -1.29118E+03  1.84213E+03 -1.45862E+03  5.08546E+02 -6.57925E+02  8.30609E+02 -1.00025E+03  9.83963E+02
 -1.25340E+03  2.13477E+03 -3.86136E+03  1.75462E+03 -4.91145E+03  2.76811E+02 -6.00388E+03 -3.09203E+03
 -3.11521E+03 -6.71841E+03  1.39770E+03 -7.79317E+03  4.08551E+03 -6.00917E+03  7.28926E+03 -2.38044E+03
  6.97975E+03  1.33604E+03  4.27471E+03  4.46567E+03  1.29766E+02  4.88784E+03 -1.97483E+03  3.86060E+03
 -3.25252E+03  1.51663E+03 -1.58415E+03 -5.81370E+02 -6.93484E+02 -1.32152E+02 -6.09171E+02  1.07839E+01
 -1.22759E+03  4.61284E+01 -1.54785E+03 -2.28310E+02  1.33058E+00 -1.30284E+03 -1.79635E+02 -2.37119E+03
  2.50037E+03 -1.32022E+03  2.58789E+03  5.47745E+01  3.51267E+03  2.54120E+03  4.69061E+02  4.87454E+03
 -2.63941E+03  5.98353E+03 -5.50323E+03  3.55762E+03 -6.12390E+03 -4.54284E+02 -4.27378E+03 -3.55964E+03
 -1.95794E+03 -4.90295E+03  1.05990E+03 -4.35472E+03  2.71775E+03 -2.66320E+03  3.03416E+03  3.39031E+02
  1.70901E+03  1.27060E+03 -1.59641E+02  9.07415E+02 -8.33902E+02 -4.81622E+01  6.98592E+01 -1.45070E+03
  1.27382E+03 -5.51044E+02  1.47192E+03  8.89326E+02  9.84691E+02  1.77841E+03  4.83028E+02  2.18963E+03
 -1.90259E+03  2.48858E+03 -2.88956E+03  8.59581E+01 -2.95687E+03 -2.00990E+03 -3.91072E+02 -3.78727E+03
  2.10013E+03 -3.02626E+03  3.15659E+03 -1.07806E+03  3.63598E+03  1.79046E+02  1.97795E+03  2.78409E+03
  4.26408E+02  2.76404E+03 -1.31983E+03  2.47869E+03 -1.69473E+03  1.50867E+03 -1.80263E+03  2.28368E+02
 -1.03544E+03 -2.67487E+02 -1.25353E+03  2.12312E+02 -1.47422E+03  3.05921E+02 -2.18235E+03 -8.29427E+02
 -2.51673E+03 -1.22912E+03 -6.62643E+02 -3.17133E+03  1.66566E+03 -3.40174E+03  2.78821E+03 -1.50621E+03
  2.73382E+03  1.64222E+02  1.01341E+03  1.71305E+03 -4.21390E+02  2.90369E+03 -1.95514E+03  1.73254E+03
