 $NMID ID='MM_0lb_SNR800_10hz_g55_36.RAW', FMTDAT='(8E13.5)'
 TRAMP=1., VOLUME=1. $END
  3.10116E+05  3.75428E+02  3.37557E+05  2.50844E+05  8.50057E+04  3.38687E+05 -1.32345E+05  2.51707E+05
 -1.90715E+05  8.38064E+04 -1.12793E+05 -3.20755E+04 -3.38207E+01 -5.06293E+04  5.36230E+04 -8.08927E+02
  3.54486E+04  5.28258E+04 -1.68936E+04  7.60017E+04 -6.08001E+04  6.44789E+04 -8.52474E+04  3.22436E+04
 -8.21618E+04 -1.12708E+04 -5.77530E+04 -5.21068E+04 -1.52851E+04 -7.07608E+04  2.81331E+04 -4.66707E+04
  4.08339E+04  3.45292E+03  1.66518E+04  4.86778E+04 -3.45093E+04  4.81832E+04 -6.79969E+04 -5.42385E+01
 -5.48120E+04 -5.77167E+04 -7.27964E+03 -7.87249E+04  3.46693E+04 -5.71137E+04  4.97263E+04 -1.84717E+04
  4.48462E+04  1.15303E+04  3.29762E+04  2.68229E+04  1.59444E+04  3.03216E+04 -6.23765E+03  2.80909E+04
 -2.23941E+04  1.17952E+04 -1.79409E+04 -5.93103E+03  7.01199E+03 -7.41594E+03  2.35172E+04  1.34511E+04
  6.90702E+03  3.73523E+04 -3.43045E+04  3.74005E+04 -6.57173E+04  2.27770E+03 -5.90768E+04 -4.42261E+04
 -1.27737E+04 -6.56723E+04  4.17298E+04 -4.71463E+04  6.08354E+04 -2.79608E+03  3.64574E+04  3.41909E+04
 -5.62778E+03  3.90699E+04 -3.16454E+04  1.85021E+04 -3.32224E+04 -3.48688E+03 -1.90086E+04 -1.16928E+04
 -9.11508E+03 -1.48272E+04 -5.09541E+02 -1.93630E+04  8.19054E+03 -2.34410E+04  1.60361E+04 -1.25162E+04
  1.06325E+04  6.00491E+03 -1.03347E+04  1.30371E+04 -2.33670E+04 -6.79675E+03 -8.70399E+03 -3.69480E+04
  2.49173E+04 -4.66164E+04  5.18155E+04 -2.09590E+04  4.85500E+04  2.06885E+04  1.73134E+04  4.68744E+04
 -1.65632E+04  3.59948E+04 -2.72567E+04  2.52165E+03 -1.13409E+04 -2.95035E+04  2.13954E+04 -3.64977E+04
  4.42301E+04 -1.10455E+04  3.97440E+04  2.48589E+04  2.09539E+04  5.07243E+04 -8.09368E+03  5.54157E+04
 -3.49476E+04  3.80190E+04 -4.71138E+04  1.11209E+04 -4.70831E+04 -1.83836E+04 -2.57297E+04 -4.16998E+04
  7.64652E+03 -4.17287E+04  3.38903E+04 -1.71046E+04  3.22163E+04  1.11942E+04  5.19624E+03  2.05150E+04
 -1.33539E+04  9.65824E+03 -1.11159E+04 -7.45185E+03  5.75866E+03 -1.12139E+04  1.87129E+04  5.84453E+03
  1.49120E+04  2.26181E+04 -5.17888E+03  2.68852E+04 -2.32017E+04  1.40795E+04 -3.11623E+04 -3.31648E+03
 -2.49117E+04 -1.84917E+04 -1.12087E+04 -2.43694E+04  4.45394E+03 -2.50373E+04  1.94579E+04 -2.26442E+04
  3.12543E+04 -1.40956E+04  3.71801E+04  4.71212E+03  2.67987E+04  2.39845E+04  4.23971E+03  4.12572E+04
 -1.95414E+04  3.36776E+04 -3.02658E+04  1.17990E+04 -2.25753E+04 -1.03559E+04 -4.83875E+03 -1.29016E+04
  7.28582E+02 -1.12042E+03 -7.39036E+03  8.22699E+03 -1.95292E+04  5.16177E+03 -1.99362E+04 -9.34799E+03
 -1.14526E+04 -2.28285E+04  6.20700E+03 -2.71801E+04  1.84484E+04 -1.95830E+04  2.21571E+04 -1.91358E+03
  1.43743E+04  1.55872E+04 -1.10873E+03  2.28557E+04 -1.62912E+04  1.29593E+04 -2.30880E+04 -4.93804E+03
 -1.67900E+04 -2.08546E+04 -2.07502E+03 -2.81029E+04  1.24194E+04 -2.30814E+04  2.27513E+04 -1.18731E+04
  2.17339E+04 -1.39750E+01  1.54741E+04  5.13036E+03  8.68321E+03  1.60992E+03  1.16671E+04 -2.02709E+03
  2.17300E+04  2.60511E+03  2.52003E+04  1.79446E+04  1.64807E+04  3.69132E+04 -2.92441E+03  4.32081E+04
 -2.51232E+04  3.61607E+04 -4.06734E+04  1.86581E+04 -4.36856E+04 -3.26080E+03 -3.54775E+04 -2.53226E+04
 -1.43315E+04 -3.58798E+04  1.27956E+04 -3.16593E+04  2.73548E+04 -1.53140E+04  2.39276E+04  7.56098E+03
  7.50269E+03  1.79236E+04 -1.12275E+04  1.50638E+04 -1.97339E+04  2.57693E+03 -1.49968E+04 -1.27265E+04
 -1.94241E+02 -1.88602E+04  1.02694E+04 -1.41302E+04  1.31623E+04 -1.50769E+03  3.07624E+03  8.47845E+03
 -8.64527E+03  3.73429E+03 -8.59358E+03 -6.76026E+03 -2.35845E+03 -1.79078E+04  1.18401E+04 -1.90335E+04
  2.23836E+04 -1.07687E+04  2.51663E+04  3.35255E+03  2.21978E+04  1.78903E+04  1.02249E+04  2.80306E+04
 -4.83924E+03  3.03942E+04 -1.94374E+04  1.82378E+04 -2.20593E+04  4.08332E+03 -1.47498E+04 -5.65542E+03
 -6.51397E+03 -6.99743E+03 -5.72057E+02  6.03031E+02 -2.78323E+03  3.46044E+03 -6.77841E+03  5.26702E+03
 -1.39338E+04 -7.10193E+02 -1.43612E+04 -1.16266E+04 -5.32091E+03 -1.88480E+04  6.43999E+03 -1.51939E+04
  1.24355E+04 -6.19504E+03  8.91015E+03  4.13677E+03 -2.89591E+02  5.80055E+03 -7.71754E+03  1.07873E+02
 -7.70253E+03 -9.79782E+03 -6.35749E+02 -1.54800E+04  8.58751E+03 -1.58090E+04  1.91879E+04 -8.44031E+03
  2.28992E+04  2.25154E+03  1.66594E+04  1.38284E+04  3.10375E+03  1.83716E+04 -9.63688E+03  1.47830E+04
 -1.24775E+04  4.10867E+03 -6.33279E+03 -2.74288E+03  2.05911E+03 -3.82431E+03  8.07188E+03 -1.22143E+03
  7.38603E+03  6.78762E+03  9.78249E+02  1.23746E+04 -8.75800E+03  1.15800E+04 -1.49983E+04  2.85891E+03
 -1.03246E+04 -7.84596E+03  2.55939E+02 -1.29513E+04  8.35529E+03 -6.32522E+03  8.54978E+03  3.74085E+03
  1.95920E+03  1.00743E+04 -8.11269E+03  1.12499E+04 -1.31506E+04  4.87585E+03 -1.28339E+04 -4.79203E+03
 -7.63735E+03 -1.49852E+04  3.61478E+03 -1.74843E+04  1.47796E+04 -1.01678E+04  1.61105E+04  2.57155E+03
  9.38568E+03  1.26668E+04 -1.33005E+03  1.51163E+04 -1.13049E+04  8.89694E+03 -1.19141E+04 -1.41030E+03
 -1.01468E+04 -9.90391E+03 -1.71917E+03 -1.14431E+04  5.56227E+03 -9.61947E+03  7.64021E+03 -3.84553E+03
  4.66527E+03  2.03041E+03 -9.26947E+02  1.73241E+03 -4.41828E+02 -3.40825E+03  1.90041E+03 -7.06833E+03
  1.06436E+04 -4.70738E+03  1.51265E+04  1.68239E+03  1.47996E+04  1.03277E+04  9.60334E+03  1.96150E+04
 -4.56093E+03  2.23794E+04 -1.89559E+04  1.65775E+04 -2.45854E+04  3.23908E+03 -1.93515E+04 -8.39023E+03
 -9.46486E+03 -1.60199E+04 -2.96645E+02 -1.42115E+04  4.95866E+03 -7.69617E+03  4.52668E+03 -4.94699E+03
  3.63399E+03 -2.96547E+03  4.00010E+03 -3.68176E+03  5.44323E+03 -3.74052E+03  7.76304E+03 -1.15455E+03
  1.00101E+04  2.39519E+03  5.07008E+03  8.96550E+03 -1.99930E+03  1.06068E+04 -1.08666E+04  8.22360E+03
 -1.40223E+04 -1.16129E+03 -8.67542E+03 -9.61548E+03 -1.28709E+03 -1.50957E+04  7.84191E+03 -1.50590E+04
  1.56238E+04 -8.12210E+03  1.81298E+04  2.93124E+03  1.29798E+04  1.28042E+04  1.85231E+03  1.67327E+04
 -6.96898E+03  1.35008E+04 -9.49721E+03  4.95158E+03 -6.44516E+03 -1.82689E+03 -2.79712E+03 -1.93794E+03
 -1.43659E+03 -6.17570E+01 -1.81660E+03  2.83954E+03 -5.96770E+03  2.05337E+03 -9.53626E+03 -1.19720E+03
 -6.71690E+03 -9.17787E+03  4.44594E+01 -1.32684E+04  8.22260E+03 -1.28309E+04  1.34864E+04 -4.03580E+03
  1.33010E+04  6.47364E+03  6.21462E+03  1.23521E+04 -2.75976E+03  1.41845E+04 -9.96309E+03  8.75205E+03
 -1.26031E+04 -5.02933E+00 -9.76653E+03 -8.17022E+03 -1.14160E+03 -1.12700E+04  5.90776E+03 -8.37882E+03
  8.78410E+03 -2.92302E+03  5.80992E+03  2.28030E+03  2.18269E+03  4.13422E+03  1.08637E+03  2.01108E+03
  2.78876E+03  1.14872E+03  3.28586E+03  1.51979E+03  3.69883E+03  4.90522E+03  3.82329E+03  7.24022E+03
 -2.69318E+03  1.08133E+04 -9.18107E+03  1.06292E+04 -1.39413E+04  2.92579E+03 -1.44984E+04 -5.94091E+03
 -7.05205E+03 -1.37351E+04  2.06102E+03 -1.53448E+04  8.31651E+03 -9.89931E+03  1.14536E+04 -2.67797E+03
  9.07264E+03  5.34350E+03  1.98625E+03  8.23715E+03 -4.11850E+03  4.82793E+03 -5.17385E+03 -1.01187E+03
 -2.36813E+03 -6.23698E+03  3.48168E+03 -6.27612E+03  5.51385E+03 -2.97162E+03  5.52782E+03  1.00652E+03
  3.04068E+03  2.51927E+03  1.40069E+03  2.26739E+03 -9.99410E+02  1.85374E+03  1.30854E+03 -7.93339E+02
  2.16074E+03 -1.11611E+03  5.78650E+03  2.17389E+03  3.27862E+03  7.26717E+03 -1.23003E+03  9.80946E+03
 -6.38469E+03  6.43820E+03 -8.87626E+03  1.86818E+03 -8.33160E+03 -3.24331E+03 -2.98239E+03 -5.46343E+03
  9.80785E+02 -5.34740E+03  3.64229E+03 -2.68732E+03  3.28753E+03  2.52756E+03 -1.49079E+03  4.61994E+03
 -5.91704E+03  3.07732E+03 -6.49987E+03 -3.26267E+03 -3.48885E+03 -7.48829E+03  1.12803E+03 -7.36441E+03
  4.35054E+03 -4.35987E+03  5.92656E+03 -5.27514E+02  4.59275E+03  1.88790E+03  7.04920E+02  4.10106E+03
 -2.46018E+03  1.50392E+03 -3.34797E+03 -2.52538E+03  1.57766E+03 -5.78915E+03  7.04527E+03 -4.92252E+03
  8.46779E+03  1.04755E+03  8.44257E+03  5.89192E+03  2.99373E+03  8.96345E+03 -3.25215E+03  8.81446E+03
 -7.17163E+03  4.23484E+03 -6.99742E+03 -8.04996E+02 -4.12808E+03 -5.34668E+03  1.59098E+03 -5.54835E+03
  5.46357E+03 -3.04500E+03  4.72764E+03  2.78173E+03  1.82681E+03  4.64267E+03 -6.68234E+02  4.05836E+03
 -2.19433E+03  3.04383E+03 -2.24082E+03  8.13105E+02 -1.19329E+03  7.57114E+02 -1.38159E+03  1.95374E+03
 -2.03766E+03  3.38464E+03 -6.32655E+03  3.15027E+03 -8.76136E+03  3.90545E+01 -1.00480E+04 -5.80989E+03
 -5.54148E+03 -1.15006E+04  2.67619E+03 -1.35174E+04  7.97444E+03 -1.01762E+04  1.29641E+04 -3.99012E+03
  1.21026E+04  2.47960E+03  7.20554E+03  8.01276E+03  7.94298E+02  9.02498E+03 -3.44550E+03  7.01408E+03
 -5.14238E+03  2.54773E+03 -2.76189E+03 -8.43686E+02 -1.43843E+03 -8.07451E+02 -6.92467E+02 -3.80142E+02
 -1.95206E+03  2.36452E+02 -2.19389E+03 -5.51742E+01 -1.14298E+03 -1.94577E+03  4.77972E+02 -3.36522E+03
  4.37919E+03 -2.66433E+03  5.17892E+03 -4.15341E+01  6.77654E+03  5.19274E+03  1.47759E+03  8.82880E+03
 -4.14128E+03  1.03701E+04 -9.80467E+03  6.14152E+03 -1.07943E+04 -9.04618E+02 -8.11990E+03 -6.91651E+03
 -3.19398E+03 -9.10486E+03  2.55850E+03 -8.36783E+03  5.80801E+03 -4.73633E+03  5.83257E+03  4.11071E+02
  3.23735E+03  3.00789E+03 -3.51659E+02  2.62374E+03 -1.93043E+03  1.97560E+01 -1.11824E+02 -2.11339E+03
  3.01645E+03 -1.18517E+03  4.05414E+03  1.30393E+03  1.99444E+03  3.49166E+03  4.92167E+02  4.77140E+03
 -3.86131E+03  4.07686E+03 -5.77293E+03  7.05809E+02 -5.52180E+03 -4.45543E+03 -7.24857E+02 -7.35863E+03
  4.36421E+03 -6.24465E+03  6.68674E+03 -1.63133E+03  6.72672E+03  1.46894E+03  4.06690E+03  5.84206E+03
  9.64628E+02  5.77158E+03 -2.42170E+03  4.76999E+03 -4.00226E+03  2.77510E+03 -2.92909E+03  1.86704E+02
 -1.78660E+03  3.43955E+00 -1.54955E+03  8.71936E+02 -3.30394E+03  7.86232E+02 -4.69105E+03 -9.88174E+02
 -4.37560E+03 -2.66462E+03 -1.20258E+03 -6.38734E+03  2.67681E+03 -6.04619E+03  5.45457E+03 -2.85078E+03
  5.86625E+03  6.39730E+02  2.97757E+03  4.04957E+03 -7.36216E+02  6.17024E+03 -4.62913E+03  3.63851E+03
