 $NMID ID='MM_0lb_SNR800_20hz_g45_51.RAW', FMTDAT='(8E13.5)'
 TRAMP=1., VOLUME=1. $END
  3.09851E+05  4.41202E+02  3.37213E+05  2.50231E+05  8.43154E+04  3.37225E+05 -1.32274E+05  2.50102E+05
 -1.89612E+05  8.22477E+04 -1.10587E+05 -3.27921E+04  1.92553E+03 -5.01897E+04  5.40648E+04  3.09488E+02
  3.49150E+04  5.28584E+04 -1.69224E+04  7.45164E+04 -6.01872E+04  6.26391E+04 -8.25641E+04  3.13077E+04
 -7.92824E+04 -1.10566E+04 -5.59582E+04 -4.97315E+04 -1.48648E+04 -6.78451E+04  2.65216E+04 -4.46209E+04
  3.84575E+04  3.86549E+03  1.55930E+04  4.69269E+04 -3.37403E+04  4.60319E+04 -6.48589E+04 -5.23880E+02
 -5.14776E+04 -5.55034E+04 -6.07688E+03 -7.43576E+04  3.27670E+04 -5.26701E+04  4.57311E+04 -1.62197E+04
  4.06610E+04  1.10524E+04  3.06437E+04  2.40641E+04  1.56810E+04  2.78523E+04 -4.50105E+03  2.67094E+04
 -2.16248E+04  1.31722E+04 -1.93948E+04 -4.06474E+03  4.19239E+03 -7.19114E+03  2.08207E+04  1.05267E+04
  7.53583E+03  3.25093E+04 -3.01319E+04  3.34195E+04 -6.03324E+04  2.22010E+03 -5.46689E+04 -4.06003E+04
 -1.24808E+04 -5.97577E+04  3.75544E+04 -4.27224E+04  5.45117E+04 -1.79653E+03  3.11794E+04  2.99208E+04
 -6.69888E+03  3.20886E+04 -2.77623E+04  1.23957E+04 -2.67757E+04 -5.72348E+03 -1.37755E+04 -9.52020E+03
 -6.96085E+03 -1.08051E+04 -1.32735E+03 -1.59863E+04  6.37559E+03 -2.20763E+04  1.50208E+04 -1.39945E+04
  1.25413E+04  3.97249E+03 -5.46135E+03  1.31396E+04 -1.87144E+04 -1.77127E+03 -7.94831E+03 -2.90708E+04
  2.01538E+04 -3.94536E+04  4.37121E+04 -1.79426E+04  4.07972E+04  1.79942E+04  1.37254E+04  4.07079E+04
 -1.51487E+04  3.01334E+04 -2.29910E+04  6.87331E+02 -7.54309E+03 -2.59106E+04  2.02956E+04 -3.02217E+04
  3.70610E+04 -6.77624E+03  2.99674E+04  2.25987E+04  1.45516E+04  4.10589E+04 -7.41032E+03  4.34387E+04
 -2.73840E+04  2.86979E+04 -3.59405E+04  7.89115E+03 -3.69408E+04 -1.45732E+04 -2.06621E+04 -3.32820E+04
  6.74933E+03 -3.23990E+04  2.80608E+04 -1.19634E+04  2.62313E+04  1.05839E+04  2.82678E+03  1.73235E+04
 -1.28995E+04  6.89548E+03 -9.07664E+03 -7.88540E+03  6.13182E+03 -9.81102E+03  1.70924E+04  6.62680E+03
  1.21646E+04  2.14454E+04 -6.90301E+03  2.28079E+04 -2.11933E+04  8.56197E+03 -2.40205E+04 -6.98049E+03
 -1.53572E+04 -1.59951E+04 -4.72812E+03 -1.57039E+04  3.90225E+03 -1.30034E+04  1.11689E+04 -1.33988E+04
  1.98206E+04 -1.11863E+04  2.66131E+04  7.35504E+02  2.03461E+04  1.53480E+04  4.03610E+03  3.11858E+04
 -1.56564E+04  2.67395E+04 -2.49992E+04  9.01503E+03 -1.91521E+04 -1.03253E+04 -3.63438E+03 -1.40623E+04
  2.99901E+03 -4.70467E+03 -2.08357E+03  5.02224E+03 -1.19649E+04  5.35692E+03 -1.22795E+04 -4.14664E+03
 -8.34892E+03 -1.43082E+04  4.26973E+03 -1.81878E+04  1.19043E+04 -1.32652E+04  1.34261E+04 -1.46291E+03
  8.23891E+03  1.00652E+04 -8.09286E+02  1.46963E+04 -9.48722E+03  8.04973E+03 -1.44184E+04 -3.06566E+03
 -1.05594E+04 -1.32397E+04 -1.27711E+03 -1.77828E+04  7.98745E+03 -1.37935E+04  1.52486E+04 -6.84430E+03
  1.35588E+04  9.31218E+02  9.81941E+03  3.79817E+03  4.87207E+03  3.56113E+02  6.74981E+03 -1.12874E+03
  1.29840E+04  2.54424E+03  1.30114E+04  1.23541E+04  7.99351E+03  2.28179E+04 -3.23670E+03  2.42431E+04
 -1.44836E+04  1.77488E+04 -2.21978E+04  8.38277E+03 -2.22107E+04 -1.51633E+03 -1.94656E+04 -1.26018E+04
 -9.56668E+03 -1.81993E+04  5.68909E+03 -1.73512E+04  1.51735E+04 -1.00903E+04  1.43417E+04  3.05149E+03
  6.35218E+03  1.00593E+04 -6.40320E+03  9.87103E+03 -1.24712E+04  2.67453E+03 -9.53497E+03 -7.34263E+03
 -1.13878E+02 -1.15862E+04  5.54003E+03 -8.83322E+03  7.17326E+03 -1.33541E+03  1.22073E+03  4.48370E+03
 -4.97556E+03  1.00252E+03 -2.96895E+03 -4.31632E+03  1.12333E+03 -9.09377E+03  7.28764E+03 -8.85176E+03
  1.09201E+04 -4.00752E+03  1.01469E+04  2.83752E+03  8.73071E+03  8.31398E+03  4.07035E+03  1.19508E+04
 -9.53541E+02  1.38069E+04 -8.32697E+03  9.28117E+03 -9.92994E+03  2.84453E+03 -7.40512E+03 -1.67350E+03
 -4.43833E+03 -2.65957E+03 -7.90250E+02  1.84940E+03 -1.81313E+03  1.75133E+03 -3.06889E+03  3.49245E+03
 -7.39127E+03 -4.62028E+02 -8.05452E+03 -6.55931E+03 -3.13197E+03 -1.06336E+04  3.08065E+03 -7.62194E+03
  6.37770E+03 -3.45214E+03  4.75131E+03  1.96719E+03  8.33978E+02  2.66865E+03 -2.96244E+03  6.88111E+01
 -2.82320E+03 -4.83992E+03 -5.05737E+02 -6.27657E+03  3.35837E+03 -6.99368E+03  8.63025E+03 -3.47513E+03
  1.04623E+04  3.04690E+02  7.79322E+03  5.13021E+03  1.58075E+03  7.67300E+03 -4.74603E+03  7.21600E+03
 -6.39660E+03  2.68434E+03 -3.12681E+03 -8.54023E+02  1.20110E+03 -1.49769E+03  4.40611E+03 -8.48401E+02
  3.68174E+03  3.07084E+03  1.05147E+03  5.86088E+03 -4.12175E+03  5.67514E+03 -7.14493E+03  1.87595E+03
 -4.42029E+03 -3.08629E+03  5.52237E+01 -5.93359E+03  3.19617E+03 -2.99881E+03  2.88005E+03  5.90026E+02
  1.53729E+02  2.52505E+03 -3.46094E+03  4.15201E+03 -4.01656E+03  2.18723E+03 -3.18350E+03 -4.06064E+02
 -2.29334E+03 -4.71360E+03  1.14054E+03 -5.84010E+03  4.95739E+03 -3.88717E+03  5.34619E+03  8.55697E+02
  4.20885E+03  4.15605E+03  3.28729E+02  6.01802E+03 -4.36142E+03  3.75614E+03 -4.45412E+03 -3.22632E+02
 -5.16508E+03 -4.35336E+03 -1.29749E+03 -4.25928E+03  2.01555E+03 -4.10816E+03  2.33245E+03 -2.85032E+03
  2.73334E+03 -1.32717E+02  1.82446E+02  1.24414E+03  7.61285E+02 -1.38445E+01 -3.49968E+02 -1.17811E+03
  3.17377E+03 -4.86434E+02  4.05561E+03  4.99305E+02  4.67418E+03  2.25277E+03  4.84017E+03  5.57641E+03
 -9.54358E+02  6.98819E+03 -6.42023E+03  5.29617E+03 -8.17313E+03  7.69428E+02 -6.49533E+03 -1.81497E+03
 -3.48184E+03 -5.36504E+03 -3.39093E+02 -4.02983E+03  1.79543E+03 -1.76261E+03  1.52944E+03 -1.44807E+03
  8.86672E+02 -1.02378E+03  2.10560E+03 -2.52396E+03  3.37167E+03 -1.04432E+03  3.32039E+03  6.68762E+02
  4.11479E+03  1.05180E+03  7.44337E+02  3.06179E+03 -1.35253E+03  2.25107E+03 -3.50305E+03  2.19825E+03
 -3.85504E+03 -9.76478E+02 -9.98155E+02 -2.65167E+03  5.27795E+02 -3.92015E+03  2.77624E+03 -4.26235E+03
  3.96552E+03 -2.74236E+03  5.39558E+03  5.69785E+01  4.16622E+03  3.19741E+03  9.33182E+02  4.97431E+03
 -1.58183E+03  5.25842E+03 -2.66968E+03  1.44630E+03 -1.45645E+03 -5.69385E+02 -4.78814E+02 -4.54154E+02
 -3.88120E+02  4.31279E+02 -8.49938E+02  2.02940E+03 -2.10382E+03  7.82509E+02 -3.54957E+03 -4.23685E+01
 -1.12693E+03 -3.62744E+03  9.49807E+02 -3.52242E+03  2.10837E+03 -3.70349E+03  2.42761E+03 -9.74050E+02
  3.02198E+03  1.98194E+03  1.54285E+03  2.33449E+03 -5.64547E+02  3.75006E+03 -1.55555E+03  2.24221E+03
 -2.98815E+03  7.17834E+02 -2.84560E+03 -1.90088E+03 -1.34418E+02 -2.48805E+03  1.26092E+03 -1.89350E+03
  2.11042E+03 -1.33282E+03  1.31675E+03  2.61275E+02  5.27776E+01  1.50211E+03  6.20072E+02  3.23494E+02
  1.76599E+03  5.54998E+02  9.80794E+02  1.35196E+03  1.14305E+03  2.18285E+03  1.20315E+03  9.33780E+02
 -1.33232E+03  2.22539E+03 -1.94847E+03  3.48030E+03 -2.10652E+03  1.09131E+03 -3.12957E+03  1.87674E+01
 -1.31760E+03 -3.06453E+03  7.48851E+02 -3.92427E+03  1.00853E+03 -2.07345E+03  2.36684E+03 -5.30931E+02
  2.11374E+03  1.57802E+03  5.03763E+02  2.03480E+03 -3.39560E+02  8.16441E+02 -6.55809E+02 -3.23419E+01
 -4.56371E+02 -1.31761E+03  9.41839E+02 -9.99457E+02  8.90204E+02 -7.61376E+02  8.00581E+02  3.16828E+02
  8.62951E+02  6.92182E+01  5.96358E+02 -6.11435E+02 -4.96338E+02  6.29822E+02  1.50099E+03 -3.73396E+02
 -3.39594E+01 -2.08533E+01  1.52068E+03  5.93021E+02  2.05008E+02  2.10212E+03 -2.19622E+02  2.32624E+03
 -1.00419E+03  5.52969E+02 -1.40916E+03  2.62113E+02 -1.75920E+03 -7.27047E+02  1.93823E+01 -6.41102E+02
  3.21291E+02 -6.86221E+02  5.34214E+02 -6.66957E+02  3.92486E+02  1.18702E+03 -5.94277E+02  9.98057E+02
 -1.18529E+03  6.04024E+02 -6.94030E+02 -1.06135E+03 -3.80061E+02 -1.73997E+03  2.65299E+01 -1.16296E+03
  1.78585E+02 -3.45781E+02  3.82605E+02  3.30327E+02  1.26180E+03 -4.19093E+02  1.62348E+02  1.00879E+03
  7.44052E+01  9.55089E+01 -7.92882E+02 -5.34228E+01  4.84018E+02 -3.25303E+02  1.38172E+03 -5.03916E+02
  9.10294E+02  3.63589E+02  2.50562E+03  4.49874E+02  1.16805E+03  1.10609E+03 -4.73578E+01  1.63953E+03
 -8.89529E+02  1.20985E+02 -1.00962E+03  2.84443E+01 -5.31637E+02 -1.22771E+03  3.24416E+02 -2.68316E+02
  1.32189E+03 -5.95695E+02  3.28364E+02  7.09507E+02  1.40070E+02  1.07409E+03  1.95864E+02  6.18903E+02
 -8.87146E+01  1.10629E+03 -1.64669E+02  2.06204E+02  1.41767E+02  3.28825E+02 -7.59910E+02  4.15921E+02
 -4.01357E+02  7.13085E+02 -1.43664E+03  3.15056E+02 -9.25340E+02  6.56727E+01 -1.56305E+03 -6.23538E+02
 -9.77407E+02 -1.57135E+03  4.18226E+02 -2.16674E+03  4.71549E+02 -2.08409E+03  2.16451E+03 -9.29978E+02
  1.73119E+03 -2.08702E+02  8.69063E+02  1.11593E+03 -8.60531E+02  8.70257E+02 -5.13662E+02  1.01598E+03
 -8.40839E+02  6.60602E+02 -3.56924E+02 -1.37743E+02 -3.60444E+02  3.69591E+02 -8.26230E+02 -2.28843E+01
 -1.17141E+03 -1.88609E+02 -5.78900E+02  2.77283E+02  1.82532E+02 -2.90126E+02 -6.79565E+02 -8.01312E+02
  1.33186E+03 -5.48154E+02  1.66244E+02  1.65256E+02  6.20204E+02  1.03025E+03 -4.73373E+02  9.53142E+02
 -5.82494E+02  1.78850E+03 -1.06890E+03  8.46783E+02 -1.01296E+03 -1.08230E+02 -6.44263E+02 -1.01678E+03
 -6.93436E+02 -9.84185E+02  1.96882E+02 -7.04184E+02  1.24268E+02 -1.65538E+02  4.05908E+02  3.84023E+02
  6.13378E+02  6.15815E+01  7.03430E+01  5.66837E+02 -4.38768E+02  3.56855E+02 -1.47505E+02 -2.86075E+02
  1.12367E+02  3.83853E+02  1.63155E+02  1.26225E+02 -1.74126E+00  1.85086E+02  5.90700E+02 -1.82046E+00
 -4.04434E+02  7.24132E+02 -4.43684E+02 -1.99188E+01 -5.04416E+02 -3.00155E+02  2.98669E+02 -9.12985E+02
  4.26311E+02 -3.35727E+02  3.83493E+02  1.02550E+02  7.22558E+02 -6.33238E+02  3.13360E+02  4.13784E+02
  4.61601E+02  3.47161E+02 -8.44981E+01  2.67205E+02 -2.99358E+02  5.63325E+02 -4.51370E+02  9.70073E+01
  2.31350E+02 -2.16394E+02 -3.66417E+02  4.56565E+01 -6.74925E+02  2.13194E+02 -5.05721E+02 -2.78244E+02
 -1.04148E+03  6.06777E+02 -7.86852E+01 -8.60109E+02  6.00900E+02 -1.08926E+03  6.15581E+02 -6.90965E+01
  2.89782E+02  9.94286E+01 -2.78605E+02  1.67630E+02 -3.00817E+01  6.26932E+02  6.80178E+01  5.11364E+02
