 $NMID ID='MM_0lb_SNR800_15hz_g55_16.RAW', FMTDAT='(8E13.5)'
 TRAMP=1., VOLUME=1. $END
  3.10010E+05  4.28439E+02  3.37594E+05  2.50706E+05  8.44696E+04  3.37968E+05 -1.32652E+05  2.51081E+05
 -1.90265E+05  8.29174E+04 -1.11866E+05 -3.24238E+04  8.79696E+02 -5.04623E+04  5.39626E+04 -2.01260E+02
  3.56789E+04  5.29338E+04 -1.72817E+04  7.55022E+04 -6.09440E+04  6.37512E+04 -8.42009E+04  3.20367E+04
 -8.11087E+04 -1.12185E+04 -5.72535E+04 -5.13462E+04 -1.49765E+04 -6.95045E+04  2.73817E+04 -4.59581E+04
  4.00722E+04  4.05031E+03  1.62300E+04  4.75872E+04 -3.43826E+04  4.69686E+04 -6.68929E+04  7.23469E+01
 -5.30691E+04 -5.67943E+04 -6.68355E+03 -7.70738E+04  3.40180E+04 -5.48226E+04  4.82034E+04 -1.71767E+04
  4.35619E+04  1.16767E+04  3.17248E+04  2.56840E+04  1.63094E+04  2.93467E+04 -5.27809E+03  2.73981E+04
 -2.16914E+04  1.25704E+04 -1.84680E+04 -4.90915E+03  5.70648E+03 -7.32948E+03  2.22640E+04  1.24075E+04
  7.18063E+03  3.54648E+04 -3.23155E+04  3.54074E+04 -6.32612E+04  2.19647E+03 -5.68728E+04 -4.29500E+04
 -1.24350E+04 -6.35540E+04  3.97507E+04 -4.54222E+04  5.82176E+04 -2.02500E+03  3.41582E+04  3.25786E+04
 -6.01250E+03  3.61406E+04 -3.00212E+04  1.64397E+04 -3.03284E+04 -4.31289E+03 -1.68320E+04 -1.08856E+04
 -8.32401E+03 -1.32602E+04 -1.02766E+03 -1.82190E+04  7.57342E+03 -2.32064E+04  1.51777E+04 -1.34466E+04
  1.16093E+04  5.22623E+03 -8.26282E+03  1.29989E+04 -2.09864E+04 -4.32834E+03 -8.32985E+03 -3.37873E+04
  2.29157E+04 -4.38156E+04  4.81680E+04 -1.96571E+04  4.50787E+04  1.94268E+04  1.58126E+04  4.39514E+04
 -1.60185E+04  3.35102E+04 -2.51908E+04  2.00227E+03 -1.00782E+04 -2.76927E+04  2.11485E+04 -3.39281E+04
  4.10861E+04 -9.20890E+03  3.53596E+04  2.40441E+04  1.79792E+04  4.64412E+04 -7.75795E+03  5.02200E+04
 -3.19240E+04  3.36618E+04 -4.20232E+04  9.81826E+03 -4.23004E+04 -1.66516E+04 -2.36608E+04 -3.78166E+04
  7.39213E+03 -3.80037E+04  3.12884E+04 -1.45829E+04  2.90949E+04  1.06710E+04  3.94630E+03  1.91353E+04
 -1.32580E+04  8.40438E+03 -1.03523E+04 -7.70869E+03  5.77265E+03 -1.05892E+04  1.81685E+04  5.83036E+03
  1.34074E+04  2.19374E+04 -6.36749E+03  2.49605E+04 -2.22867E+04  1.13294E+04 -2.77303E+04 -4.86825E+03
 -2.03843E+04 -1.73268E+04 -8.21462E+03 -2.04032E+04  3.71836E+03 -1.94728E+04  1.58066E+04 -1.83794E+04
  2.60262E+04 -1.28232E+04  3.25479E+04  3.07770E+03  2.39508E+04  1.99123E+04  4.25258E+03  3.63565E+04
 -1.75740E+04  3.04411E+04 -2.78978E+04  1.08072E+04 -2.09235E+04 -1.04248E+04 -4.29467E+03 -1.34366E+04
  2.00673E+03 -2.70382E+03 -4.78226E+03  6.73424E+03 -1.57837E+04  4.95764E+03 -1.58505E+04 -6.68967E+03
 -9.92239E+03 -1.87311E+04  5.09700E+03 -2.30716E+04  1.51420E+04 -1.66611E+04  1.79247E+04 -1.81877E+03
  1.09692E+04  1.29712E+04 -1.11976E+03  1.85715E+04 -1.30556E+04  1.06249E+04 -1.88494E+04 -4.18939E+03
 -1.39285E+04 -1.71484E+04 -1.60700E+03 -2.27417E+04  1.01110E+04 -1.83033E+04  1.89039E+04 -9.21791E+03
  1.74969E+04  6.08519E+02  1.25573E+04  4.43661E+03  7.07315E+03  6.56708E+02  9.44577E+03 -1.62716E+03
  1.70571E+04  2.51018E+03  1.91640E+04  1.50348E+04  1.25324E+04  3.00016E+04 -2.87885E+03  3.36388E+04
 -1.95073E+04  2.70868E+04 -3.15943E+04  1.35211E+04 -3.25769E+04 -2.37033E+03 -2.72357E+04 -1.89389E+04
 -1.16253E+04 -2.71133E+04  9.09259E+03 -2.45237E+04  2.09499E+04 -1.26446E+04  1.93308E+04  5.54394E+03
  7.39615E+03  1.41556E+04 -9.01761E+03  1.25710E+04 -1.61042E+04  2.42744E+03 -1.23719E+04 -1.00322E+04
 -3.59568E+01 -1.52640E+04  7.84433E+03 -1.16089E+04  9.77162E+03 -1.45345E+03  2.13990E+03  6.48681E+03
 -6.98962E+03  2.47414E+03 -5.91165E+03 -5.52164E+03 -2.47984E+02 -1.32929E+04  9.43279E+03 -1.39959E+04
  1.63626E+04 -7.03876E+03  1.73499E+04  2.58785E+03  1.53509E+04  1.29908E+04  7.15937E+03  1.96886E+04
 -2.92041E+03  2.17005E+04 -1.36244E+04  1.38895E+04 -1.54879E+04  3.35123E+03 -1.09995E+04 -3.70371E+03
 -5.11761E+03 -5.07715E+03 -4.90612E+02  9.48426E+02 -2.46924E+03  2.44806E+03 -5.06077E+03  4.13531E+03
 -1.02880E+04 -6.72844E+02 -1.10778E+04 -9.03523E+03 -4.54604E+03 -1.45287E+04  4.72359E+03 -1.11752E+04
  9.20452E+03 -4.95240E+03  6.67742E+03  2.95910E+03  4.26012E+02  4.00040E+03 -5.19803E+03 -2.87532E+02
 -4.87196E+03 -6.68847E+03 -9.51316E+02 -1.02648E+04  5.89933E+03 -1.10164E+04  1.33577E+04 -6.02916E+03
  1.59850E+04  1.03803E+03  1.19221E+04  8.96595E+03  2.24419E+03  1.22028E+04 -6.75799E+03  1.07774E+04
 -9.31634E+03  3.39932E+03 -4.40008E+03 -2.20216E+03  1.71380E+03 -3.16320E+03  5.67705E+03 -8.62080E+02
  5.38298E+03  4.76256E+03  1.38193E+03  8.41327E+03 -5.97683E+03  8.31448E+03 -1.06505E+04  2.20498E+03
 -7.01573E+03 -5.39061E+03 -6.10766E+00 -8.87311E+03  5.71151E+03 -4.79642E+03  5.63361E+03  1.65177E+03
  1.02401E+03  5.62834E+03 -5.86184E+03  6.91374E+03 -7.75367E+03  3.25858E+03 -7.75054E+03 -2.44187E+03
 -4.51644E+03 -9.24858E+03  1.92112E+03 -1.08480E+04  9.16724E+03 -6.88734E+03  9.72420E+03  1.72885E+03
  6.53688E+03  7.93908E+03 -3.13929E+02  1.02966E+04 -7.15492E+03  5.68795E+03 -7.89049E+03 -8.27658E+02
 -7.40737E+03 -7.03847E+03 -1.46296E+03 -7.26049E+03  3.72251E+03 -6.50030E+03  4.53994E+03 -2.97400E+03
  3.33342E+03  5.94592E+02 -5.70657E+02  1.52587E+03  7.41302E+01 -1.07835E+03  9.85562E+02 -3.93585E+03
  6.12893E+03 -1.88434E+03  8.56902E+03  1.12510E+03  8.53015E+03  5.53450E+03  6.64681E+03  1.16668E+04
 -2.33644E+03  1.35235E+04 -1.16072E+04  1.00281E+04 -1.48803E+04  2.14754E+03 -1.18658E+04 -4.30750E+03
 -6.16452E+03 -9.83852E+03 -5.23413E+02 -8.10083E+03  2.88266E+03 -4.10443E+03  2.86095E+03 -3.19157E+03
  1.95411E+03 -2.01791E+03  3.02047E+03 -2.88459E+03  4.28466E+03 -1.86421E+03  4.96885E+03 -4.82131E+02
  6.46761E+03  1.60083E+03  2.65258E+03  5.39479E+03 -1.58598E+03  5.55263E+03 -6.29018E+03  4.50135E+03
 -7.81085E+03 -9.66875E+02 -4.25611E+03 -5.19323E+03  4.27958E+01 -8.29516E+03  5.02346E+03 -8.52190E+03
  8.59300E+03 -4.74944E+03  1.06445E+04  1.26665E+03  7.58684E+03  7.16255E+03  1.50780E+03  9.60241E+03
 -3.65659E+03  8.10425E+03 -5.68524E+03  2.86751E+03 -3.47175E+03 -1.06221E+03 -1.17168E+03 -1.24042E+03
 -6.37992E+02  5.05458E+02 -1.24464E+03  2.26513E+03 -3.37063E+03  1.74413E+03 -5.87698E+03 -7.24934E+02
 -3.21099E+03 -5.97138E+03  3.12993E+02 -7.71439E+03  4.60093E+03 -6.87578E+03  7.07513E+03 -1.87344E+03
  6.96166E+03  3.67493E+03  3.34873E+03  6.30599E+03 -1.63945E+03  7.44400E+03 -4.96948E+03  4.50728E+03
 -6.42463E+03  3.34807E+02 -5.48042E+03 -4.18056E+03 -1.56917E+02 -6.01650E+03  3.12023E+03 -4.74598E+03
  4.43597E+03 -1.79145E+03  3.02395E+03  1.23055E+03  1.09036E+03  2.18346E+03  1.35952E+03  7.23670E+02
  2.07253E+03  6.98828E+02  1.79843E+03  1.26686E+03  1.95681E+03  3.09082E+03  2.07691E+03  3.54555E+03
 -1.86374E+03  5.30707E+03 -4.51990E+03  5.96929E+03 -6.27687E+03  1.71750E+03 -7.33709E+03 -2.00163E+03
 -3.13549E+03 -6.84891E+03  8.82568E+02 -7.94409E+03  4.10988E+03 -4.61336E+03  5.47518E+03 -1.26181E+03
  4.46674E+03  2.79415E+03  1.08673E+03  3.96410E+03 -1.40264E+03  2.18188E+03 -2.55683E+03 -2.70956E+02
 -1.12527E+03 -2.86109E+03  1.55280E+03 -3.08862E+03  2.53103E+03 -1.49842E+03  2.66514E+03  4.49387E+02
  1.67845E+03  7.31308E+02  8.60432E+02  4.72058E+02 -8.19376E+02  9.95072E+02  1.74276E+03 -4.32163E+02
  5.04187E+02 -1.19028E+02  2.84490E+03  1.19654E+03  9.59884E+02  4.20677E+03 -4.66421E+02  5.11664E+03
 -3.18974E+03  2.55704E+03 -3.81680E+03  7.51044E+02 -3.40481E+03 -1.42702E+03 -1.08685E+03 -2.16416E+03
  6.49590E+02 -2.08662E+03  1.67272E+03 -1.29205E+03  1.11557E+03  1.74492E+03 -8.92358E+02  2.42082E+03
 -2.62762E+03  1.30971E+03 -2.39490E+03 -1.84760E+03 -1.45102E+03 -3.51837E+03  6.06583E+02 -3.27633E+03
  1.53208E+03 -1.72069E+03  1.94603E+03  1.50601E+02  2.20870E+03  5.41109E+02  2.99096E+02  1.95816E+03
 -9.42547E+02  3.84013E+02 -1.90455E+03 -6.24634E+02  9.56023E+02 -2.19542E+03  2.83939E+03 -2.01526E+03
  3.06531E+03  6.08185E+02  4.12918E+03  1.91197E+03  1.73775E+03  3.32819E+03 -1.17564E+03  3.43353E+03
 -2.90321E+03  1.13897E+03 -2.94398E+03 -7.76780E+02 -2.06159E+03 -2.70669E+03  5.12742E+02 -1.83556E+03
  2.68707E+03 -1.31891E+03  1.93003E+03  8.66177E+02  4.84094E+02  2.22184E+03  3.80306E+01  2.05774E+03
 -1.10569E+03  1.46697E+03 -9.03711E+02  3.91315E+02  9.80807E-01  6.89001E+02 -9.78471E+02  9.21783E+02
 -8.82621E+02  1.76384E+03 -3.00010E+03  1.14849E+03 -3.43434E+03  3.57508E+02 -4.22334E+03 -2.13165E+03
 -2.17563E+03 -4.68208E+03  1.17913E+03 -5.29278E+03  2.73903E+03 -4.24922E+03  5.06800E+03 -1.59333E+03
  4.71257E+03  5.35302E+02  2.68626E+03  3.33977E+03 -8.57003E+01  3.30931E+03 -1.51513E+03  2.95793E+03
 -1.78592E+03  1.13408E+03 -8.31018E+02 -5.17462E+02 -5.29950E+02 -1.92146E+02 -9.21002E+02 -1.64435E+02
 -1.44638E+03 -1.68859E+02 -1.15134E+03  5.44313E+01  7.73301E+01 -6.22700E+02 -2.09941E+02 -1.46879E+03
  2.02387E+03 -1.14812E+03  1.68795E+03  4.64264E+02  2.15850E+03  1.91397E+03  1.65848E+02  2.94405E+03
 -1.83341E+03  4.05387E+03 -3.32286E+03  2.48622E+03 -3.76057E+03 -1.75843E+02 -2.75147E+03 -2.20167E+03
 -1.68583E+03 -3.41861E+03  7.59217E+02 -2.72401E+03  1.66662E+03 -1.27435E+03  1.87301E+03  2.75147E+02
  1.21157E+03  7.71436E+02 -7.60713E+01  1.00536E+03 -1.01945E+03 -4.36254E+01  2.30392E+02 -8.04955E+02
  1.24708E+03 -1.07021E+02  1.03024E+03  6.07361E+02  7.51376E+02  7.59026E+02  8.22767E+00  9.39200E+02
 -1.25273E+03  1.43155E+03 -1.55105E+03  2.60605E+02 -1.78167E+03 -1.23365E+03 -3.31966E+02 -2.28749E+03
  1.45896E+03 -1.75481E+03  1.69815E+03 -2.66891E+02  1.98121E+03 -2.45051E+02  1.22390E+03  1.60186E+03
  5.86337E+02  1.16839E+03 -4.33001E+02  1.41124E+03 -1.18350E+03  9.60836E+02 -1.16455E+03  2.45961E+02
 -4.50168E+02  1.40950E+01 -7.12362E+02  3.74747E+02 -1.17821E+03  5.60746E+02 -1.63332E+03 -5.69243E+02
 -1.37849E+03 -5.55285E+02 -6.83438E+02 -1.93263E+03  1.34312E+03 -2.35721E+03  1.63787E+03 -9.46618E+02
  1.59386E+03  1.96743E+02  6.60220E+02  9.78942E+02 -2.58134E+02  1.67238E+03 -1.02900E+03  1.31040E+03
