 $NMID ID='MM_0lb_SNR800_11hz_g40_37.RAW', FMTDAT='(8E13.5)'
 TRAMP=1., VOLUME=1. $END
  3.10281E+05  3.13022E+02  3.37841E+05  2.50694E+05  8.45014E+04  3.38389E+05 -1.32816E+05  2.51363E+05
 -1.90579E+05  8.32717E+04 -1.11913E+05 -3.25092E+04  6.35240E+02 -5.04116E+04  5.39130E+04 -2.08978E+02
  3.57536E+04  5.31722E+04 -1.66214E+04  7.54214E+04 -6.11940E+04  6.39177E+04 -8.44042E+04  3.21154E+04
 -8.14006E+04 -1.14528E+04 -5.79233E+04 -5.15816E+04 -1.52000E+04 -6.99766E+04  2.74135E+04 -4.58904E+04
  4.06034E+04  3.44722E+03  1.61335E+04  4.79580E+04 -3.48003E+04  4.74655E+04 -6.71772E+04 -3.78319E+02
 -5.40150E+04 -5.71815E+04 -7.21631E+03 -7.76105E+04  3.43498E+04 -5.58929E+04  4.85703E+04 -1.79230E+04
  4.38344E+04  1.13476E+04  3.23511E+04  2.61206E+04  1.59167E+04  2.99778E+04 -5.50197E+03  2.73955E+04
 -2.22020E+04  1.20772E+04 -1.86611E+04 -5.00946E+03  6.27930E+03 -7.43712E+03  2.29832E+04  1.28024E+04
  7.51954E+03  3.60926E+04 -3.27318E+04  3.60839E+04 -6.45134E+04  2.53402E+03 -5.78883E+04 -4.34126E+04
 -1.24334E+04 -6.44863E+04  4.03961E+04 -4.57977E+04  5.92172E+04 -2.12192E+03  3.49722E+04  3.31664E+04
 -5.87818E+03  3.75769E+04 -3.05167E+04  1.68401E+04 -3.15178E+04 -4.29178E+03 -1.76092E+04 -1.13573E+04
 -8.58033E+03 -1.37484E+04 -8.26915E+02 -1.85285E+04  7.95472E+03 -2.35617E+04  1.51935E+04 -1.32888E+04
  1.15270E+04  5.60542E+03 -9.02272E+03  1.28446E+04 -2.18282E+04 -5.30325E+03 -8.38935E+03 -3.50708E+04
  2.34337E+04 -4.50017E+04  4.95461E+04 -2.02890E+04  4.63011E+04  2.01246E+04  1.60576E+04  4.52577E+04
 -1.64940E+04  3.41898E+04 -2.62589E+04  1.96156E+03 -1.02453E+04 -2.82729E+04  2.12116E+04 -3.50559E+04
  4.20345E+04 -9.81593E+03  3.74682E+04  2.40402E+04  1.95282E+04  4.83227E+04 -8.37207E+03  5.24130E+04
 -3.31870E+04  3.54527E+04 -4.39621E+04  9.69913E+03 -4.47229E+04 -1.75806E+04 -2.48417E+04 -3.95560E+04
  7.52038E+03 -3.97991E+04  3.25868E+04 -1.56350E+04  3.01318E+04  1.09764E+04  4.39137E+03  1.97566E+04
 -1.37129E+04  8.89501E+03 -1.07931E+04 -7.38004E+03  5.27477E+03 -1.13478E+04  1.84009E+04  5.66395E+03
  1.36068E+04  2.23230E+04 -5.92484E+03  2.58989E+04 -2.28503E+04  1.24224E+04 -2.93831E+04 -3.86571E+03
 -2.24073E+04 -1.77065E+04 -9.48630E+03 -2.20548E+04  4.28735E+03 -2.19912E+04  1.77052E+04 -2.03672E+04
  2.85101E+04 -1.34268E+04  3.49750E+04  3.71041E+03  2.52054E+04  2.17931E+04  4.23640E+03  3.77570E+04
 -1.83560E+04  3.16082E+04 -2.90706E+04  1.09447E+04 -2.14322E+04 -1.06076E+04 -4.86257E+03 -1.34094E+04
  1.18160E+03 -2.09422E+03 -6.01757E+03  7.07641E+03 -1.79771E+04  4.85387E+03 -1.77430E+04 -7.73143E+03
 -1.10967E+04 -2.04952E+04  5.40927E+03 -2.47594E+04  1.68964E+04 -1.78771E+04  2.01437E+04 -1.90420E+03
  1.26894E+04  1.41190E+04 -9.29088E+02  2.08126E+04 -1.43620E+04  1.21390E+04 -2.08316E+04 -4.54662E+03
 -1.52924E+04 -1.87008E+04 -2.27108E+03 -2.50608E+04  1.14943E+04 -2.05558E+04  2.06510E+04 -1.05213E+04
  1.96058E+04  4.66891E+01  1.43261E+04  4.48269E+03  7.64680E+03  1.48312E+03  1.01870E+04 -1.61859E+03
  1.93763E+04  2.69390E+03  2.18066E+04  1.62695E+04  1.45706E+04  3.32073E+04 -3.02502E+03  3.86764E+04
 -2.20943E+04  3.15404E+04 -3.58387E+04  1.62033E+04 -3.78503E+04 -2.59071E+03 -3.12847E+04 -2.20363E+04
 -1.25232E+04 -3.14999E+04  1.05847E+04 -2.76274E+04  2.43101E+04 -1.40772E+04  2.13336E+04  6.42133E+03
  7.05610E+03  1.60632E+04 -9.98802E+03  1.35557E+04 -1.80139E+04  2.59846E+03 -1.33852E+04 -1.14438E+04
 -2.00144E+02 -1.70120E+04  9.12568E+03 -1.29567E+04  1.13071E+04 -1.20042E+03  2.58463E+03  7.43728E+03
 -7.24159E+03  2.99726E+03 -6.88329E+03 -6.25199E+03 -1.07632E+03 -1.52863E+04  1.03238E+04 -1.67814E+04
  1.92085E+04 -9.23034E+03  2.14250E+04  3.47427E+03  1.84093E+04  1.53522E+04  8.74501E+03  2.36164E+04
 -4.32039E+03  2.56129E+04 -1.65880E+04  1.64095E+04 -1.87391E+04  3.61176E+03 -1.27788E+04 -4.37645E+03
 -5.81378E+03 -5.58627E+03 -5.21696E+02  5.02004E+02 -2.32626E+03  3.00538E+03 -6.14646E+03  4.48108E+03
 -1.18493E+04 -7.14603E+02 -1.27019E+04 -1.00179E+04 -5.03976E+03 -1.64672E+04  5.41265E+03 -1.28895E+04
  1.10230E+04 -5.11184E+03  7.95317E+03  3.76174E+03 -1.50386E+02  4.71998E+03 -6.07171E+03 -3.37788E+02
 -5.95656E+03 -8.33881E+03 -9.05098E+02 -1.23434E+04  7.57438E+03 -1.38269E+04  1.66590E+04 -7.15233E+03
  1.95342E+04  1.49795E+03  1.35908E+04  1.14610E+04  2.98014E+03  1.53280E+04 -8.10633E+03  1.31045E+04
 -1.04455E+04  3.85464E+03 -5.30692E+03 -2.59163E+03  2.31488E+03 -3.57291E+03  6.87021E+03 -8.34580E+02
  6.18231E+03  5.74857E+03  9.46275E+02  1.06619E+04 -7.49354E+03  1.02474E+04 -1.30274E+04  2.25922E+03
 -8.74837E+03 -6.90310E+03  2.36519E+02 -1.09004E+04  7.14904E+03 -5.25980E+03  7.64137E+03  2.53739E+03
  1.48860E+03  7.58858E+03 -6.72077E+03  9.25539E+03 -1.05679E+04  3.97235E+03 -1.04030E+04 -3.51851E+03
 -6.48987E+03 -1.23171E+04  2.78584E+03 -1.39822E+04  1.20225E+04 -8.51698E+03  1.28706E+04  2.24232E+03
  7.92117E+03  1.04710E+04 -1.25241E+03  1.27465E+04 -9.59910E+03  6.90506E+03 -9.98746E+03 -8.56490E+02
 -8.56584E+03 -8.70411E+03 -1.44199E+03 -9.33297E+03  4.81035E+03 -7.95242E+03  6.37524E+03 -3.55893E+03
  4.11329E+03  1.36594E+03 -7.37949E+02  1.70997E+03 -4.11945E+02 -2.35829E+03  1.65815E+03 -5.59500E+03
  8.97244E+03 -3.34633E+03  1.22578E+04  1.64253E+03  1.23616E+04  8.16328E+03  8.55348E+03  1.64192E+04
 -3.52651E+03  1.85235E+04 -1.54198E+04  1.34790E+04 -2.01641E+04  2.60459E+03 -1.63803E+04 -6.73874E+03
 -8.17048E+03 -1.29738E+04 -1.04165E+02 -1.13993E+04  4.01303E+03 -5.71774E+03  3.71085E+03 -4.35444E+03
  2.96353E+03 -2.91444E+03  3.04518E+03 -3.27104E+03  5.14319E+03 -2.70206E+03  6.77634E+03 -7.22686E+02
  8.28788E+03  2.08120E+03  4.39634E+03  7.22673E+03 -1.90401E+03  8.27262E+03 -9.17807E+03  6.51903E+03
 -1.10003E+04 -1.05691E+03 -6.71818E+03 -7.71808E+03 -6.43794E+02 -1.19411E+04  6.77620E+03 -1.18947E+04
  1.22801E+04 -6.71575E+03  1.50029E+04  1.81210E+03  1.06735E+04  1.03966E+04  1.66144E+03  1.32490E+04
 -5.20404E+03  1.15045E+04 -7.66314E+03  4.00802E+03 -5.06226E+03 -1.30929E+03 -2.19839E+03 -1.41585E+03
 -9.53656E+02 -1.15070E+01 -1.54013E+03  2.69715E+03 -4.71631E+03  1.79177E+03 -7.47604E+03 -8.49183E+02
 -4.87154E+03 -8.17325E+03  5.35537E+02 -1.10323E+04  7.02438E+03 -1.04420E+04  1.08724E+04 -3.13576E+03
  1.02890E+04  5.85310E+03  4.89705E+03  1.00150E+04 -2.07781E+03  1.10444E+04 -7.79704E+03  7.15669E+03
 -1.00858E+04  6.09028E+02 -7.92914E+03 -6.57476E+03 -4.64558E+02 -9.07675E+03  4.86817E+03 -6.72821E+03
  6.73216E+03 -1.88745E+03  4.64351E+03  1.77178E+03  1.78430E+03  3.44910E+03  1.00593E+03  1.42879E+03
  2.31779E+03  9.53024E+02  2.93880E+03  1.87330E+03  3.21349E+03  3.96650E+03  3.15101E+03  5.42177E+03
 -2.53768E+03  8.71233E+03 -7.58516E+03  8.87090E+03 -1.05956E+04  2.36509E+03 -1.14696E+04 -4.16879E+03
 -5.68467E+03 -1.07850E+04  1.97276E+03 -1.22847E+04  6.37244E+03 -7.52653E+03  8.76966E+03 -2.07410E+03
  7.06275E+03  4.13802E+03  1.46243E+03  6.05215E+03 -2.84473E+03  4.12014E+03 -4.29290E+03 -4.53871E+02
 -1.99664E+03 -4.42605E+03  2.71040E+03 -4.56079E+03  4.33055E+03 -2.39771E+03  4.39000E+03  1.29617E+03
  2.37767E+03  1.98967E+03  1.03175E+03  1.93541E+03 -1.00445E+03  1.82504E+03  1.70849E+03 -8.50803E+02
  1.33490E+03 -7.19865E+02  4.65379E+03  1.48461E+03  2.11722E+03  5.80306E+03 -1.16046E+03  7.39149E+03
 -5.32842E+03  5.06108E+03 -6.70250E+03  1.52947E+03 -6.11781E+03 -2.46310E+03 -2.04691E+03 -3.85663E+03
  7.29157E+02 -4.15897E+03  2.91305E+03 -1.93021E+03  2.42536E+03  2.50089E+03 -8.01208E+02  3.58536E+03
 -4.49666E+03  2.15094E+03 -5.10467E+03 -2.75047E+03 -2.87545E+03 -5.81992E+03  7.88330E+02 -5.93852E+03
  3.34249E+03 -3.47894E+03  4.00523E+03 -5.45370E+01  3.47338E+03  1.29149E+03  7.55251E+02  3.13487E+03
 -1.82734E+03  8.82597E+02 -2.86758E+03 -2.23605E+03  1.02687E+03 -4.41305E+03  5.16713E+03 -3.46299E+03
  6.31303E+03  3.48457E+02  7.05141E+03  4.43874E+03  1.98603E+03  6.65819E+03 -2.01777E+03  6.47920E+03
 -5.62836E+03  2.79430E+03 -5.71595E+03 -1.02891E+03 -3.21780E+03 -4.32108E+03  1.06587E+03 -3.75386E+03
  4.41974E+03 -2.29579E+03  3.39368E+03  2.36264E+03  1.63215E+03  3.90099E+03 -2.63889E+02  3.28436E+03
 -1.71270E+03  2.53139E+03 -1.71150E+03  6.66181E+02 -7.56178E+02  1.74048E+02 -1.31325E+03  1.22748E+03
 -2.12141E+03  2.92210E+03 -4.67898E+03  2.23091E+03 -7.26496E+03  1.15710E+02 -7.79084E+03 -4.53718E+03
 -4.22660E+03 -9.06257E+03  1.95527E+03 -1.03281E+04  6.10325E+03 -8.25918E+03  9.71868E+03 -3.09313E+03
  8.96876E+03  1.57234E+03  5.55736E+03  6.24471E+03  2.68270E+02  6.60802E+03 -2.64306E+03  4.95805E+03
 -3.66338E+03  1.64391E+03 -2.31680E+03 -8.24908E+02 -1.15336E+03 -4.23185E+02 -7.74374E+02 -6.98292E+01
 -1.49134E+03 -1.45549E+01 -1.48496E+03 -2.32508E+02 -6.38098E+01 -1.59197E+03  6.00351E+01 -2.80039E+03
  3.23942E+03 -1.67809E+03  4.17023E+03 -5.59969E+01  4.99326E+03  3.51532E+03  1.11399E+03  6.66397E+03
 -3.33660E+03  7.80065E+03 -7.38128E+03  4.44149E+03 -7.96956E+03 -9.01973E+02 -5.97240E+03 -5.34882E+03
 -2.66670E+03 -7.48261E+03  1.50989E+03 -5.93953E+03  4.50974E+03 -3.49574E+03  4.15563E+03  3.82817E+02
  2.20682E+03  2.00310E+03  1.69459E+01  2.08646E+03 -1.27376E+03 -3.52807E+02 -2.51350E+02 -1.36468E+03
  2.03937E+03 -8.23134E+02  2.76715E+03  1.39872E+03  1.32344E+03  2.41021E+03  2.21103E+02  3.45224E+03
 -3.49894E+03  3.28332E+03 -4.43277E+03  2.48078E+02 -3.95410E+03 -3.33697E+03 -5.54725E+02 -6.02347E+03
  2.93847E+03 -4.72245E+03  4.98816E+03 -1.53096E+03  5.30698E+03  9.83749E+02  2.79709E+03  4.30376E+03
  4.91060E+02  3.67720E+03 -1.69330E+03  3.46539E+03 -2.93248E+03  2.07625E+03 -1.75429E+03  2.41953E+02
 -1.22194E+03 -3.08562E+02 -1.11009E+03  2.72950E+02 -2.52345E+03  7.41917E+02 -3.36526E+03 -6.66029E+02
 -3.48644E+03 -1.93583E+03 -1.35281E+03 -4.44291E+03  2.19271E+03 -4.61222E+03  3.82855E+03 -2.15408E+03
  4.53602E+03  4.84949E+02  1.71548E+03  3.01105E+03 -4.78174E+02  4.41175E+03 -3.50893E+03  2.88203E+03
