 $NMID ID='MM_0lb_SNR800_11hz_g40_41.RAW', FMTDAT='(8E13.5)'
 TRAMP=1., VOLUME=1. $END
  3.09886E+05  2.52158E+02  3.37474E+05  2.50567E+05  8.47752E+04  3.38234E+05 -1.32736E+05  2.51223E+05
 -1.90598E+05  8.33424E+04 -1.11956E+05 -3.23560E+04  5.78888E+02 -5.03414E+04  5.39156E+04 -5.00327E+02
  3.56717E+04  5.27447E+04 -1.70181E+04  7.54938E+04 -6.10172E+04  6.38834E+04 -8.45248E+04  3.17645E+04
 -8.14819E+04 -1.15485E+04 -5.72353E+04 -5.16953E+04 -1.50666E+04 -7.00860E+04  2.78970E+04 -4.59359E+04
  4.02814E+04  3.77551E+03  1.65448E+04  4.81365E+04 -3.44994E+04  4.74321E+04 -6.72894E+04 -4.38202E+02
 -5.36852E+04 -5.73351E+04 -6.73468E+03 -7.72231E+04  3.42569E+04 -5.55475E+04  4.88234E+04 -1.76183E+04
  4.41201E+04  1.13563E+04  3.23813E+04  2.62548E+04  1.58068E+04  2.96780E+04 -5.36727E+03  2.75812E+04
 -2.21109E+04  1.24063E+04 -1.82403E+04 -5.53509E+03  6.03244E+03 -7.81316E+03  2.28121E+04  1.26798E+04
  7.36644E+03  3.63027E+04 -3.29723E+04  3.61419E+04 -6.43669E+04  2.04967E+03 -5.74447E+04 -4.36386E+04
 -1.25384E+04 -6.38102E+04  4.03241E+04 -4.63302E+04  5.93931E+04 -2.10063E+03  3.50700E+04  3.31830E+04
 -5.91833E+03  3.70892E+04 -3.09672E+04  1.68001E+04 -3.18062E+04 -3.94778E+03 -1.78111E+04 -1.15189E+04
 -8.91340E+03 -1.35739E+04 -6.73347E+02 -1.87804E+04  7.78929E+03 -2.33072E+04  1.55947E+04 -1.31093E+04
  1.11458E+04  5.62556E+03 -9.00268E+03  1.31671E+04 -2.23326E+04 -5.32194E+03 -8.22023E+03 -3.48949E+04
  2.36104E+04 -4.48835E+04  4.93584E+04 -2.03103E+04  4.63867E+04  2.01288E+04  1.61623E+04  4.53297E+04
 -1.61250E+04  3.42701E+04 -2.60680E+04  2.48527E+03 -1.04066E+04 -2.87409E+04  2.12350E+04 -3.50162E+04
  4.24882E+04 -1.02023E+04  3.76610E+04  2.42234E+04  1.93101E+04  4.85028E+04 -8.20870E+03  5.21746E+04
 -3.30284E+04  3.54503E+04 -4.45817E+04  1.00078E+04 -4.47429E+04 -1.76490E+04 -2.45927E+04 -3.96060E+04
  7.52606E+03 -3.97646E+04  3.26767E+04 -1.58261E+04  3.04720E+04  1.09841E+04  4.32367E+03  1.99553E+04
 -1.40223E+04  9.09451E+03 -1.08282E+04 -7.60335E+03  6.14124E+03 -1.10910E+04  1.81055E+04  5.54389E+03
  1.41805E+04  2.23792E+04 -5.67777E+03  2.61108E+04 -2.24685E+04  1.27164E+04 -2.96777E+04 -4.18048E+03
 -2.27181E+04 -1.76237E+04 -9.39968E+03 -2.20479E+04  4.27949E+03 -2.19251E+04  1.74086E+04 -2.01836E+04
  2.85114E+04 -1.37700E+04  3.47833E+04  4.11193E+03  2.51741E+04  2.17645E+04  4.10937E+03  3.84889E+04
 -1.86397E+04  3.14829E+04 -2.92829E+04  1.10106E+04 -2.12576E+04 -9.96116E+03 -4.63133E+03 -1.31017E+04
  1.65266E+03 -2.19242E+03 -6.08434E+03  7.12819E+03 -1.75954E+04  5.18075E+03 -1.81410E+04 -7.74655E+03
 -1.07957E+04 -2.10651E+04  5.31239E+03 -2.53565E+04  1.66293E+04 -1.80169E+04  2.01405E+04 -1.72976E+03
  1.26029E+04  1.42729E+04 -1.33306E+03  2.09836E+04 -1.46221E+04  1.18488E+04 -2.08391E+04 -4.43597E+03
 -1.50697E+04 -1.86859E+04 -2.26034E+03 -2.49694E+04  1.14008E+04 -2.09600E+04  2.08940E+04 -1.05018E+04
  1.95192E+04 -1.77417E+02  1.40240E+04  4.73141E+03  7.74240E+03  1.35569E+03  1.06494E+04 -1.87688E+03
  1.93227E+04  2.75828E+03  2.20647E+04  1.60571E+04  1.43219E+04  3.33996E+04 -2.89458E+03  3.83005E+04
 -2.18381E+04  3.14732E+04 -3.60913E+04  1.58234E+04 -3.77117E+04 -2.69843E+03 -3.14837E+04 -2.20384E+04
 -1.28645E+04 -3.13446E+04  1.09813E+04 -2.81462E+04  2.40544E+04 -1.38807E+04  2.11926E+04  6.42294E+03
  7.70062E+03  1.60381E+04 -1.03690E+04  1.38301E+04 -1.77643E+04  2.61065E+03 -1.34729E+04 -1.13826E+04
 -2.26666E+02 -1.71118E+04  9.16730E+03 -1.25027E+04  1.19014E+04 -1.40370E+03  2.76028E+03  7.48007E+03
 -7.58883E+03  3.28558E+03 -7.03302E+03 -5.77113E+03 -1.02748E+03 -1.53529E+04  1.06055E+04 -1.63929E+04
  1.94348E+04 -9.01396E+03  2.14092E+04  3.02318E+03  1.85526E+04  1.56761E+04  8.90747E+03  2.38498E+04
 -4.24950E+03  2.62315E+04 -1.67740E+04  1.59955E+04 -1.82326E+04  3.43559E+03 -1.32428E+04 -4.41809E+03
 -6.14961E+03 -6.04214E+03 -4.99536E+02  8.70979E+02 -2.45041E+03  2.61447E+03 -5.98209E+03  4.61671E+03
 -1.20715E+04 -4.37080E+02 -1.27322E+04 -1.04960E+04 -5.41054E+03 -1.67228E+04  5.15661E+03 -1.29700E+04
  1.09326E+04 -5.36247E+03  7.90039E+03  3.28559E+03  2.70681E+02  5.07258E+03 -6.25214E+03 -4.32534E+02
 -5.84450E+03 -8.06964E+03 -7.14880E+02 -1.24530E+04  7.45201E+03 -1.34016E+04  1.62947E+04 -6.99511E+03
  1.94073E+04  1.77542E+03  1.41711E+04  1.14568E+04  2.72656E+03  1.55104E+04 -7.95000E+03  1.28484E+04
 -1.05788E+04  3.74356E+03 -5.38514E+03 -2.85105E+03  1.86568E+03 -3.48175E+03  7.09958E+03 -1.03584E+03
  6.27733E+03  5.98766E+03  1.11042E+03  1.05529E+04 -7.13461E+03  9.95731E+03 -1.29205E+04  2.49438E+03
 -9.09810E+03 -6.68938E+03  3.59823E+01 -1.09839E+04  6.92809E+03 -5.77743E+03  7.24287E+03  2.70420E+03
  1.40957E+03  7.58520E+03 -6.70205E+03  9.40360E+03 -1.04998E+04  4.49999E+03 -1.04353E+04 -3.72668E+03
 -6.32731E+03 -1.22103E+04  2.72661E+03 -1.43762E+04  1.15363E+04 -8.57360E+03  1.32054E+04  2.09674E+03
  7.87850E+03  1.03014E+04 -9.89641E+02  1.29029E+04 -9.15333E+03  7.03002E+03 -1.05261E+04 -9.13579E+02
 -8.80221E+03 -8.80133E+03 -1.48487E+03 -9.35565E+03  5.17749E+03 -7.85736E+03  5.95689E+03 -3.33722E+03
  3.75303E+03  1.64440E+03 -6.93312E+02  1.59268E+03 -3.80111E+02 -2.41407E+03  1.45728E+03 -5.46842E+03
  8.85239E+03 -3.17691E+03  1.20262E+04  1.16318E+03  1.24524E+04  8.28327E+03  8.51904E+03  1.58464E+04
 -3.59113E+03  1.82692E+04 -1.52185E+04  1.35191E+04 -2.00295E+04  2.97078E+03 -1.62899E+04 -6.99209E+03
 -8.01041E+03 -1.31043E+04 -6.22154E+02 -1.13912E+04  4.05690E+03 -5.99183E+03  3.99922E+03 -4.20930E+03
  2.82533E+03 -2.65179E+03  3.23914E+03 -3.77736E+03  5.30467E+03 -2.80382E+03  6.60709E+03 -7.31806E+02
  8.23312E+03  2.12272E+03  4.45152E+03  7.46925E+03 -1.98534E+03  8.13337E+03 -8.69972E+03  6.12932E+03
 -1.12668E+04 -1.44461E+03 -6.60470E+03 -7.83050E+03 -4.11688E+02 -1.19525E+04  6.62143E+03 -1.19424E+04
  1.25303E+04 -6.89530E+03  1.50262E+04  2.01676E+03  1.05078E+04  1.02776E+04  1.42140E+03  1.32889E+04
 -5.34715E+03  1.11336E+04 -8.07252E+03  3.88727E+03 -4.98167E+03 -1.17719E+03 -2.48747E+03 -1.54879E+03
 -1.25594E+03 -1.09136E+02 -1.81226E+03  2.56580E+03 -5.05916E+03  1.73422E+03 -7.87971E+03 -1.25813E+03
 -5.26813E+03 -7.59379E+03  3.75649E+02 -1.10405E+04  6.51974E+03 -1.03211E+04  1.05254E+04 -3.03623E+03
  1.08578E+04  5.47844E+03  4.80411E+03  1.00200E+04 -2.09101E+03  1.09984E+04 -7.44457E+03  6.98134E+03
 -1.01922E+04  2.88099E+02 -8.32936E+03 -6.62228E+03 -8.11812E+02 -8.70500E+03  4.26335E+03 -6.88613E+03
  6.98050E+03 -2.02706E+03  4.47713E+03  1.45993E+03  1.57770E+03  3.18264E+03  1.34214E+03  1.14248E+03
  2.84688E+03  9.30269E+02  2.44415E+03  1.43474E+03  3.31518E+03  3.96061E+03  2.76121E+03  5.83577E+03
 -2.27137E+03  8.32590E+03 -7.27383E+03  8.94594E+03 -1.08695E+04  2.26221E+03 -1.16417E+04 -4.29843E+03
 -5.20942E+03 -1.07372E+04  1.54029E+03 -1.16723E+04  6.23892E+03 -7.48151E+03  8.73682E+03 -2.22865E+03
  6.88695E+03  4.00377E+03  1.08720E+03  6.23886E+03 -3.16534E+03  4.08573E+03 -4.58927E+03 -4.17052E+02
 -1.75415E+03 -4.49268E+03  2.93305E+03 -4.78160E+03  4.75318E+03 -2.42906E+03  4.32773E+03  7.27699E+02
  2.80795E+03  2.48120E+03  1.44034E+03  1.20375E+03 -6.30240E+02  1.80938E+03  1.58805E+03 -4.66974E+02
  1.47841E+03 -5.28571E+02  4.41275E+03  1.84800E+03  1.83760E+03  6.13623E+03 -7.52703E+02  7.86223E+03
 -5.24500E+03  4.76138E+03 -6.87387E+03  1.58908E+03 -6.16294E+03 -2.24368E+03 -2.14895E+03 -4.42496E+03
  8.11824E+02 -4.21600E+03  2.92495E+03 -2.20493E+03  2.48644E+03  2.30832E+03 -1.30552E+03  3.56460E+03
 -4.42913E+03  2.20949E+03 -4.94398E+03 -3.01168E+03 -3.13405E+03 -5.68584E+03  8.62942E+02 -5.52302E+03
  3.24835E+03 -3.21623E+03  4.16060E+03 -1.74090E+02  3.45115E+03  1.51892E+03  5.54702E+02  3.35129E+03
 -1.94774E+03  9.86016E+02 -2.87824E+03 -1.75506E+03  1.27052E+03 -4.12596E+03  5.73417E+03 -3.79415E+03
  6.78864E+03  2.58941E+02  6.97359E+03  4.32166E+03  2.29698E+03  7.00355E+03 -2.29588E+03  6.39587E+03
 -5.32648E+03  2.58947E+03 -5.52527E+03 -1.07119E+03 -3.19054E+03 -4.59888E+03  1.30078E+03 -3.90455E+03
  4.20015E+03 -2.38493E+03  3.66437E+03  1.93947E+03  1.43774E+03  4.16455E+03 -4.31966E+02  3.49691E+03
 -1.94534E+03  2.21361E+03 -1.30137E+03  4.90614E+02 -5.37145E+02  5.74721E+02 -1.22377E+03  1.27845E+03
 -1.40767E+03  2.78980E+03 -4.79907E+03  2.12614E+03 -6.86264E+03  1.97265E+02 -7.87989E+03 -4.41568E+03
 -4.45707E+03 -9.06532E+03  2.00754E+03 -1.02864E+04  5.97418E+03 -8.61204E+03  9.82402E+03 -3.24636E+03
  9.20956E+03  1.39038E+03  5.40604E+03  6.63964E+03  3.70466E+02  6.61240E+03 -2.58035E+03  5.22334E+03
 -3.99243E+03  2.09670E+03 -2.55213E+03 -1.02400E+03 -1.43204E+03 -6.34626E+02 -9.14845E+02  6.07598E+01
 -1.61127E+03  1.47350E+02 -1.70446E+03 -4.84186E+02 -4.02201E+02 -1.84004E+03  1.05972E+02 -2.96408E+03
  3.26562E+03 -2.50697E+03  4.23377E+03 -5.80564E+01  5.12464E+03  3.48435E+03  1.50421E+03  6.87917E+03
 -3.22748E+03  7.87648E+03 -7.39493E+03  4.46071E+03 -8.34574E+03 -4.05222E+02 -6.36474E+03 -4.87513E+03
 -2.37217E+03 -6.99979E+03  1.67972E+03 -6.34193E+03  4.30449E+03 -2.91926E+03  4.34927E+03  1.33529E+02
  2.69100E+03  2.16886E+03 -1.22417E+02  2.01064E+03 -1.43797E+03 -4.23550E+02  1.51953E+00 -1.74874E+03
  2.14436E+03 -6.55523E+02  2.54674E+03  1.14891E+03  1.51909E+03  2.82808E+03  3.65343E+02  3.34322E+03
 -2.75065E+03  3.16746E+03 -4.72373E+03  2.60590E+02 -4.47329E+03 -2.98823E+03 -3.83913E+02 -5.66834E+03
  3.24938E+03 -4.25722E+03  5.10028E+03 -1.16152E+03  5.09175E+03  8.25077E+02  2.92283E+03  3.95812E+03
  9.40177E+02  4.46484E+03 -1.37155E+03  3.80023E+03 -2.75120E+03  1.96456E+03 -2.03765E+03  2.86043E+02
 -1.05830E+03 -8.51020E+01 -1.10158E+03  7.05606E+02 -2.27110E+03  8.62467E+02 -3.28040E+03 -7.20806E+02
 -3.36506E+03 -2.10800E+03 -9.66044E+02 -4.50555E+03  2.16250E+03 -5.10127E+03  3.85075E+03 -1.89191E+03
  4.23337E+03  4.63737E+02  1.89785E+03  3.01246E+03 -7.29844E+01  4.37192E+03 -3.63658E+03  2.72988E+03
