 $NMID ID='MM_0lb_SNR800_8hz_g55_35.RAW', FMTDAT='(8E13.5)'
 TRAMP=1., VOLUME=1. $END
  3.09982E+05  5.04093E+02  3.38058E+05  2.50565E+05  8.54337E+04  3.39088E+05 -1.32848E+05  2.52093E+05
 -1.90935E+05  8.38436E+04 -1.12500E+05 -3.22576E+04  1.83074E+02 -5.07594E+04  5.35602E+04 -5.76324E+02
  3.59357E+04  5.29513E+04 -1.72990E+04  7.60455E+04 -6.13556E+04  6.48786E+04 -8.57398E+04  3.22273E+04
 -8.32428E+04 -1.13071E+04 -5.85147E+04 -5.23681E+04 -1.54549E+04 -7.10823E+04  2.81806E+04 -4.68496E+04
  4.14262E+04  3.75402E+03  1.68316E+04  4.90729E+04 -3.50144E+04  4.85360E+04 -6.83788E+04 -2.00910E+02
 -5.53633E+04 -5.80107E+04 -7.63640E+03 -7.97095E+04  3.51463E+04 -5.75601E+04  5.04421E+04 -1.89453E+04
  4.55297E+04  1.15070E+04  3.35099E+04  2.73502E+04  1.59979E+04  3.07501E+04 -5.94655E+03  2.81686E+04
 -2.25943E+04  1.20459E+04 -1.74818E+04 -6.02464E+03  7.27768E+03 -7.40762E+03  2.36584E+04  1.39260E+04
  7.21095E+03  3.77731E+04 -3.47754E+04  3.77149E+04 -6.65085E+04  2.07633E+03 -5.95091E+04 -4.49281E+04
 -1.25581E+04 -6.67302E+04  4.19975E+04 -4.83615E+04  6.23010E+04 -2.54765E+03  3.75101E+04  3.52202E+04
 -5.37950E+03  4.05948E+04 -3.23124E+04  1.93257E+04 -3.43978E+04 -3.15700E+03 -1.97652E+04 -1.24540E+04
 -1.02426E+04 -1.58723E+04 -3.97037E+02 -2.02342E+04  9.10737E+03 -2.31586E+04  1.57386E+04 -1.21656E+04
  1.00278E+04  6.48226E+03 -1.13064E+04  1.31023E+04 -2.42750E+04 -7.29841E+03 -8.74932E+03 -3.86530E+04
  2.54747E+04 -4.78063E+04  5.32852E+04 -2.12903E+04  4.98599E+04  2.09756E+04  1.80637E+04  4.80710E+04
 -1.71447E+04  3.70027E+04 -2.81583E+04  2.95330E+03 -1.24501E+04 -2.95361E+04  2.14281E+04 -3.78193E+04
  4.53811E+04 -1.14456E+04  4.19335E+04  2.56473E+04  2.24406E+04  5.27562E+04 -8.33401E+03  5.78287E+04
 -3.64177E+04  3.99919E+04 -4.95286E+04  1.17537E+04 -4.94432E+04 -1.87229E+04 -2.66321E+04 -4.33291E+04
  8.33516E+03 -4.31598E+04  3.51002E+04 -1.79112E+04  3.33251E+04  1.15289E+04  5.25658E+03  2.11683E+04
 -1.41281E+04  1.02553E+04 -1.16282E+04 -7.67370E+03  5.78148E+03 -1.17400E+04  1.89835E+04  5.46159E+03
  1.52983E+04  2.30492E+04 -4.86973E+03  2.77207E+04 -2.40728E+04  1.51068E+04 -3.29120E+04 -2.49617E+03
 -2.63804E+04 -1.85900E+04 -1.26799E+04 -2.66978E+04  4.12772E+03 -2.78594E+04  2.07644E+04 -2.43766E+04
  3.37362E+04 -1.43952E+04  3.95613E+04  5.44689E+03  2.79641E+04  2.56056E+04  4.64105E+03  4.25613E+04
 -2.04625E+04  3.45414E+04 -3.12753E+04  1.21841E+04 -2.31741E+04 -9.80915E+03 -5.12768E+03 -1.27131E+04
  3.62549E+02 -8.97786E+02 -8.75143E+03  8.59270E+03 -2.18808E+04  4.90717E+03 -2.10014E+04 -1.06468E+04
 -1.21612E+04 -2.47620E+04  6.25224E+03 -2.90377E+04  1.95378E+04 -2.08449E+04  2.39795E+04 -1.64203E+03
  1.56210E+04  1.73246E+04 -1.38513E+03  2.43387E+04 -1.75619E+04  1.38530E+04 -2.49701E+04 -4.68117E+03
 -1.85503E+04 -2.20496E+04 -2.38179E+03 -2.91507E+04  1.35116E+04 -2.47751E+04  2.43455E+04 -1.33902E+04
  2.33987E+04 -7.32857E+02  1.70394E+04  4.90322E+03  9.50409E+03  1.43643E+03  1.29365E+04 -2.09980E+03
  2.32703E+04  3.35711E+03  2.78029E+04  1.94619E+04  1.85699E+04  3.99959E+04 -2.55654E+03  4.74920E+04
 -2.72620E+04  3.94643E+04 -4.48484E+04  2.03858E+04 -4.82983E+04 -3.47873E+03 -3.88762E+04 -2.85719E+04
 -1.52515E+04 -4.01405E+04  1.45560E+04 -3.50807E+04  2.98382E+04 -1.59138E+04  2.60959E+04  8.65020E+03
  8.23866E+03  2.01115E+04 -1.26993E+04  1.65122E+04 -2.15561E+04  2.53085E+03 -1.62966E+04 -1.37496E+04
 -4.65723E+02 -2.05164E+04  1.11359E+04 -1.56484E+04  1.45444E+04 -1.40021E+03  4.04827E+03  9.75368E+03
 -9.11589E+03  4.82644E+03 -1.02638E+04 -7.37533E+03 -2.69098E+03 -1.98314E+04  1.27000E+04 -2.13287E+04
  2.48907E+04 -1.22524E+04  2.91522E+04  3.24536E+03  2.50905E+04  2.02247E+04  1.18716E+04  3.23306E+04
 -6.47535E+03  3.38969E+04 -2.23065E+04  2.06771E+04 -2.51190E+04  4.27322E+03 -1.71276E+04 -6.68686E+03
 -6.84755E+03 -8.02482E+03 -5.79976E+02 -1.58220E+02 -2.93644E+03  3.66868E+03 -8.55359E+03  5.52184E+03
 -1.54862E+04 -1.39167E+03 -1.62154E+04 -1.30166E+04 -6.59887E+03 -2.10552E+04  6.41856E+03 -1.74503E+04
  1.37996E+04 -6.84491E+03  9.72805E+03  4.83581E+03 -4.98616E+02  6.49910E+03 -8.65684E+03 -9.02598E+01
 -8.11293E+03 -1.13376E+04 -9.45574E+02 -1.76261E+04  9.92904E+03 -1.81360E+04  2.22136E+04 -9.55623E+03
  2.54552E+04  2.35609E+03  1.84846E+04  1.56856E+04  4.03992E+03  2.08481E+04 -1.06141E+04  1.71429E+04
 -1.38305E+04  5.14046E+03 -7.54525E+03 -3.44227E+03  2.21751E+03 -4.70890E+03  8.76881E+03 -8.75672E+02
  8.48065E+03  7.35990E+03  1.17705E+03  1.41465E+04 -1.01511E+04  1.32884E+04 -1.71413E+04  3.09641E+03
 -1.16077E+04 -9.11590E+03  2.34919E+02 -1.51619E+04  9.61922E+03 -7.49717E+03  1.03282E+04  3.81758E+03
  2.75850E+03  1.13237E+04 -8.92613E+03  1.29741E+04 -1.54809E+04  5.51507E+03 -1.61212E+04 -5.99109E+03
 -9.02410E+03 -1.75176E+04  4.51162E+03 -2.08387E+04  1.73145E+04 -1.21912E+04  1.91962E+04  3.81775E+03
  1.17523E+04  1.45588E+04 -2.10731E+03  1.70124E+04 -1.33566E+04  9.72577E+03 -1.44196E+04 -1.33324E+03
 -1.14027E+04 -1.15694E+04 -1.71700E+03 -1.35109E+04  7.13158E+03 -1.07239E+04  8.33769E+03 -3.92072E+03
  5.63885E+03  2.84412E+03 -1.14775E+03  2.00076E+03 -1.02684E+03 -4.39013E+03  3.13124E+03 -8.75466E+03
  1.35149E+04 -5.54895E+03  1.83391E+04  2.26683E+03  1.79460E+04  1.26369E+04  1.09703E+04  2.39199E+04
 -5.75998E+03  2.75354E+04 -2.24729E+04  2.03126E+04 -2.92008E+04  3.82203E+03 -2.36400E+04 -1.04590E+04
 -1.16029E+04 -1.95899E+04 -2.50159E+02 -1.67938E+04  5.48720E+03 -9.65106E+03  6.38536E+03 -6.07840E+03
  4.65349E+03 -3.11324E+03  4.23042E+03 -3.74347E+03  6.09807E+03 -4.29881E+03  9.00874E+03 -1.85142E+03
  1.19472E+04  2.64846E+03  6.90283E+03  1.10285E+04 -2.38634E+03  1.30196E+04 -1.25932E+04  9.93702E+03
 -1.74253E+04 -1.54853E+03 -1.09322E+04 -1.23428E+04 -1.97679E+03 -1.87911E+04  1.00784E+04 -1.78808E+04
  1.89979E+04 -1.02530E+04  2.27020E+04  2.95783E+03  1.56838E+04  1.59050E+04  2.13845E+03  2.05667E+04
 -8.39945E+03  1.61510E+04 -1.22231E+04  5.68478E+03 -8.60778E+03 -1.92700E+03 -3.45699E+03 -2.44193E+03
 -1.56922E+03  1.45287E+02 -2.67842E+03  3.67147E+03 -6.52483E+03  2.90706E+03 -1.16879E+04 -1.76721E+03
 -8.80526E+03 -1.12476E+04 -5.50133E+02 -1.64750E+04  1.08767E+04 -1.61753E+04  1.70507E+04 -4.89400E+03
  1.70782E+04  8.05449E+03  8.05412E+03  1.57633E+04 -3.57326E+03  1.72853E+04 -1.29933E+04  1.06041E+04
 -1.62545E+04  4.59798E+02 -1.25857E+04 -1.02441E+04 -1.48231E+03 -1.42712E+04  7.73090E+03 -1.07577E+04
  1.10087E+04 -3.40268E+03  7.92858E+03  3.49870E+03  2.92173E+03  4.69449E+03  1.68535E+03  2.22763E+03
  3.29367E+03  1.43346E+03  3.98519E+03  2.35999E+03  5.04721E+03  5.50695E+03  4.79517E+03  9.45614E+03
 -3.49030E+03  1.39438E+04 -1.24996E+04  1.38106E+04 -1.83996E+04  3.42550E+03 -1.84998E+04 -7.85665E+03
 -9.12633E+03 -1.79634E+04  2.48515E+03 -1.96645E+04  1.06804E+04 -1.28837E+04  1.43800E+04 -3.29691E+03
  1.14535E+04  6.46948E+03  2.51595E+03  1.00206E+04 -5.30497E+03  6.15104E+03 -8.08552E+03 -9.80478E+02
 -3.46458E+03 -7.56280E+03  4.12464E+03 -8.02929E+03  7.35377E+03 -3.93619E+03  7.35179E+03  1.60746E+03
  4.43314E+03  3.59011E+03  1.16554E+03  3.12629E+03 -7.34562E+02  1.95311E+03  1.46662E+03 -7.84456E+02
  3.03935E+03 -3.95292E+02  7.43197E+03  3.14643E+03  4.57992E+03  9.51655E+03 -1.96312E+03  1.27525E+04
 -8.64005E+03  8.28319E+03 -1.17999E+04  2.71012E+03 -1.02070E+04 -4.19729E+03 -4.31437E+03 -6.94825E+03
  1.21283E+03 -7.55822E+03  4.45633E+03 -3.39000E+03  4.04841E+03  3.36331E+03 -1.65988E+03  5.86453E+03
 -7.69377E+03  3.50695E+03 -8.83209E+03 -3.80606E+03 -5.04942E+03 -9.82438E+03  1.74565E+03 -1.02847E+04
  6.25408E+03 -5.84720E+03  8.02322E+03 -8.31515E+02  6.11766E+03  2.22289E+03  1.09450E+03  5.26968E+03
 -3.74597E+03  1.99704E+03 -4.89173E+03 -3.64770E+03  1.67565E+03 -7.72445E+03  9.34566E+03 -6.46298E+03
  1.22706E+04  6.41935E+02  1.10743E+04  8.20122E+03  3.64494E+03  1.28415E+04 -4.52798E+03  1.13276E+04
 -1.01054E+04  5.02409E+03 -1.01036E+04 -1.80975E+03 -5.64115E+03 -8.25268E+03  1.75519E+03 -7.65445E+03
  7.92556E+03 -3.14907E+03  6.48817E+03  3.25559E+03  2.01930E+03  6.63221E+03 -1.03914E+03  5.72395E+03
 -3.54890E+03  3.80981E+03 -3.34312E+03  1.36441E+03 -1.32602E+03  1.28904E+03 -1.43092E+03  2.41435E+03
 -2.94612E+03  4.39937E+03 -8.36329E+03  4.66534E+03 -1.23956E+04 -3.12799E+02 -1.37149E+04 -8.09408E+03
 -7.01412E+03 -1.64219E+04  3.06022E+03 -1.84447E+04  1.18590E+04 -1.47935E+04  1.77846E+04 -5.54597E+03
  1.67714E+04  3.69045E+03  1.03357E+04  1.11961E+04  1.15435E+03  1.29840E+04 -5.52898E+03  9.57220E+03
 -6.97155E+03  3.93181E+03 -4.39800E+03 -2.08201E+03 -1.30120E+03 -1.28774E+03 -9.46268E+02 -1.92909E+02
 -1.67927E+03  4.33481E+02 -3.04442E+03 -2.94547E+01 -7.93123E+02 -3.09613E+03  3.61333E+02 -4.93695E+03
  5.55359E+03 -4.37954E+03  8.51191E+03 -1.23313E+02  9.13823E+03  7.14017E+03  2.96985E+03  1.30862E+04
 -5.98080E+03  1.45071E+04 -1.40108E+04  8.26325E+03 -1.59189E+04 -1.45319E+03 -1.20959E+04 -9.63737E+03
 -5.02369E+03 -1.36428E+04  3.53603E+03 -1.23246E+04  8.70053E+03 -7.53692E+03  9.37048E+03  4.63642E+02
  4.89783E+03  4.22134E+03 -6.15764E+02  3.62341E+03 -2.47570E+03 -1.72184E+02  2.07394E+02 -3.19681E+03
  4.05561E+03 -2.38451E+03  5.60097E+03  1.36650E+03  3.53560E+03  5.34203E+03 -6.19198E+00  7.11813E+03
 -5.90703E+03  6.21565E+03 -9.11793E+03  6.50139E+02 -7.67476E+03 -6.29692E+03 -1.56690E+03 -1.15553E+04
  6.32303E+03 -9.21020E+03  1.08023E+04 -2.75204E+03  1.01748E+04  2.40905E+03  5.83411E+03  8.13238E+03
  6.03530E+02  8.59965E+03 -3.31458E+03  7.22368E+03 -5.10027E+03  3.67679E+03 -4.89550E+03  8.79872E+02
 -2.44756E+03 -1.04692E+02 -2.69342E+03  1.41398E+03 -4.44689E+03  1.71567E+03 -7.01936E+03 -1.48818E+03
 -6.23550E+03 -4.98804E+03 -2.17090E+03 -9.19279E+03  4.33738E+03 -9.02278E+03  7.75678E+03 -4.44323E+03
  8.81549E+03  9.78474E+02  5.07346E+03  6.23082E+03 -4.73517E+02  8.85134E+03 -6.66179E+03  5.96708E+03
