 $NMID ID='MM_0lb_SNR800_17hz_g45_1.RAW', FMTDAT='(8E13.5)'
 TRAMP=1., VOLUME=1. $END
  3.09788E+05  3.80793E+02  3.37205E+05  2.50438E+05  8.48547E+04  3.37149E+05 -1.32531E+05  2.50647E+05
 -1.89804E+05  8.28603E+04 -1.11077E+05 -3.31865E+04  1.41676E+03 -5.01428E+04  5.36853E+04  9.85650E+01
  3.51028E+04  5.27566E+04 -1.69281E+04  7.49355E+04 -6.06772E+04  6.27879E+04 -8.35099E+04  3.16286E+04
 -7.99021E+04 -1.10662E+04 -5.63290E+04 -5.02977E+04 -1.51094E+04 -6.84160E+04  2.73135E+04 -4.49652E+04
  3.92822E+04  3.73948E+03  1.57366E+04  4.73654E+04 -3.42144E+04  4.65192E+04 -6.56109E+04 -6.21104E+02
 -5.20038E+04 -5.63273E+04 -6.49631E+03 -7.56319E+04  3.34819E+04 -5.37303E+04  4.67890E+04 -1.66020E+04
  4.21985E+04  1.09029E+04  3.10151E+04  2.48066E+04  1.59593E+04  2.84303E+04 -4.78534E+03  2.66270E+04
 -2.17196E+04  1.26616E+04 -1.90891E+04 -4.43316E+03  4.67296E+03 -7.33317E+03  2.11250E+04  1.12103E+04
  7.48768E+03  3.37584E+04 -3.09932E+04  3.43732E+04 -6.15471E+04  2.02934E+03 -5.57019E+04 -4.14164E+04
 -1.25397E+04 -6.14874E+04  3.85514E+04 -4.39613E+04  5.63253E+04 -1.98556E+03  3.23555E+04  3.09357E+04
 -6.34360E+03  3.39234E+04 -2.89579E+04  1.39664E+04 -2.84837E+04 -5.26294E+03 -1.48739E+04 -1.02310E+04
 -7.45226E+03 -1.19335E+04 -1.21797E+03 -1.68889E+04  6.74634E+03 -2.27963E+04  1.48709E+04 -1.36912E+04
  1.21765E+04  4.49127E+03 -6.66819E+03  1.30294E+04 -1.97520E+04 -3.00161E+03 -8.11131E+03 -3.13336E+04
  2.14330E+04 -4.15703E+04  4.57004E+04 -1.87562E+04  4.28688E+04  1.85694E+04  1.44034E+04  4.21137E+04
 -1.53652E+04  3.17528E+04 -2.39142E+04  1.30164E+03 -8.87952E+03 -2.63977E+04  2.07074E+04 -3.17103E+04
  3.85751E+04 -7.82261E+03  3.26280E+04  2.29160E+04  1.60470E+04  4.36296E+04 -7.62972E+03  4.64791E+04
 -2.91845E+04  3.05991E+04 -3.86031E+04  8.82948E+03 -3.96048E+04 -1.55609E+04 -2.16122E+04 -3.53071E+04
  6.97353E+03 -3.47455E+04  2.98201E+04 -1.33594E+04  2.74721E+04  1.05618E+04  3.05761E+03  1.81967E+04
 -1.29869E+04  7.51653E+03 -9.74138E+03 -7.67833E+03  5.77919E+03 -1.00481E+04  1.72642E+04  6.36676E+03
  1.26686E+04  2.17071E+04 -6.56384E+03  2.36168E+04 -2.16760E+04  9.66557E+03 -2.58193E+04 -5.94129E+03
 -1.76359E+04 -1.66317E+04 -6.20024E+03 -1.77199E+04  3.98729E+03 -1.60456E+04  1.34391E+04 -1.55274E+04
  2.25923E+04 -1.17914E+04  2.93549E+04  1.63639E+03  2.19252E+04  1.72400E+04  4.51495E+03  3.33929E+04
 -1.67785E+04  2.82701E+04 -2.65781E+04  9.68640E+03 -1.97293E+04 -1.04401E+04 -3.76500E+03 -1.38641E+04
  2.44458E+03 -3.64018E+03 -3.12836E+03  5.59840E+03 -1.42096E+04  5.31025E+03 -1.39984E+04 -5.55020E+03
 -9.02291E+03 -1.64378E+04  4.77714E+03 -2.03327E+04  1.34963E+04 -1.47386E+04  1.56166E+04 -1.51777E+03
  9.60368E+03  1.15092E+04 -9.13326E+02  1.65720E+04 -1.11196E+04  9.22958E+03 -1.65062E+04 -3.73359E+03
 -1.22997E+04 -1.51907E+04 -1.58508E+03 -1.99191E+04  9.09265E+03 -1.64756E+04  1.70839E+04 -7.76246E+03
  1.53082E+04  6.24500E+02  1.12413E+04  3.90404E+03  5.37474E+03  3.27330E+02  8.00041E+03 -1.32658E+03
  1.44624E+04  2.61454E+03  1.58340E+04  1.33476E+04  1.00993E+04  2.61081E+04 -3.04627E+03  2.82665E+04
 -1.65881E+04  2.23580E+04 -2.61604E+04  1.06623E+04 -2.70132E+04 -1.93491E+03 -2.30571E+04 -1.54615E+04
 -1.05032E+04 -2.21095E+04  7.31845E+03 -2.02313E+04  1.76972E+04 -1.13640E+04  1.64693E+04  4.20256E+03
  6.58607E+03  1.16583E+04 -7.73741E+03  1.10894E+04 -1.40108E+04  2.58522E+03 -1.07776E+04 -8.38341E+03
 -3.62308E+02 -1.29363E+04  6.64568E+03 -9.77172E+03  8.78529E+03 -1.13610E+03  1.27019E+03  5.32787E+03
 -5.91110E+03  1.67649E+03 -3.98388E+03 -4.97269E+03  6.54022E+02 -1.12757E+04  8.41101E+03 -1.10547E+04
  1.34774E+04 -5.32741E+03  1.36568E+04  2.91827E+03  1.16843E+04  1.03214E+04  5.63001E+03  1.56855E+04
 -1.90025E+03  1.73497E+04 -1.07205E+04  1.11496E+04 -1.24996E+04  2.98837E+03 -9.15103E+03 -2.15261E+03
 -4.49788E+03 -3.69130E+03 -8.70558E+02  1.39371E+03 -2.31108E+03  1.93877E+03 -4.18568E+03  3.86403E+03
 -8.72481E+03 -5.88986E+02 -9.44395E+03 -7.59285E+03 -3.46424E+03 -1.21678E+04  3.95680E+03 -9.18630E+03
  7.77685E+03 -4.28178E+03  5.62527E+03  2.24158E+03  4.39893E+02  3.22643E+03 -3.70039E+03 -2.18348E+02
 -3.89517E+03 -6.10317E+03 -7.84278E+02 -8.12996E+03  4.27804E+03 -8.87755E+03  1.05361E+04 -4.31730E+03
  1.29646E+04  9.10977E+02  9.64622E+03  7.28174E+03  1.69261E+03  9.60161E+03 -5.82916E+03  8.85902E+03
 -7.29056E+03  3.02597E+03 -3.75827E+03 -1.55561E+03  1.34050E+03 -2.33980E+03  5.13483E+03 -9.20736E+02
  4.49775E+03  3.74060E+03  1.39356E+03  6.96473E+03 -4.98748E+03  7.07151E+03 -8.47026E+03  1.77280E+03
 -5.55254E+03 -3.79149E+03  2.96018E+02 -7.23575E+03  4.14158E+03 -3.56848E+03  4.09611E+03  1.31315E+03
  7.33760E+02  3.98849E+03 -4.49528E+03  5.53887E+03 -5.50934E+03  2.91148E+03 -5.17442E+03 -1.48996E+03
 -3.37480E+03 -6.62950E+03  1.54784E+03 -7.92526E+03  6.88780E+03 -5.32071E+03  7.64329E+03  1.29026E+03
  5.17277E+03  5.80832E+03  1.98375E+02  8.00485E+03 -5.48904E+03  4.26619E+03 -5.89146E+03 -7.54078E+02
 -6.13315E+03 -5.77951E+03 -1.38610E+03 -6.00639E+03  3.28084E+03 -5.27856E+03  3.45284E+03 -2.94144E+03
  2.92952E+03  3.76810E+02  6.27980E+01  1.41148E+03  3.90224E+02 -3.12867E+02  3.98351E+02 -2.39988E+03
  4.53188E+03 -1.08875E+03  6.33322E+03  7.97257E+02  6.34301E+03  3.75978E+03  5.84351E+03  8.39670E+03
 -1.48629E+03  1.00195E+04 -8.68622E+03  7.38223E+03 -1.11705E+04  1.53048E+03 -8.87336E+03 -3.12412E+03
 -4.75941E+03 -7.62556E+03 -1.91112E+02 -6.18430E+03  2.58547E+03 -2.66263E+03  2.06045E+03 -2.32323E+03
  1.42868E+03 -2.02959E+03  2.31573E+03 -2.24887E+03  3.71284E+03 -1.25696E+03  4.12191E+03  1.46245E+02
  4.83627E+03  9.53272E+02  1.50665E+03  3.97459E+03 -1.44550E+03  3.53451E+03 -4.98535E+03  3.17892E+03
 -5.74219E+03 -1.06360E+03 -2.59543E+03 -3.84597E+03  1.89794E+02 -5.78523E+03  3.68147E+03 -6.36390E+03
  6.19833E+03 -3.92696E+03  8.20218E+03  5.00112E+02  5.59467E+03  5.15478E+03  1.17669E+03  6.95111E+03
 -2.67326E+03  6.53182E+03 -3.90640E+03  2.34648E+03 -2.04082E+03 -1.05269E+03 -6.31665E+02 -7.42276E+02
 -4.29015E+02  2.61561E+02 -1.30047E+03  2.29373E+03 -2.86487E+03  1.20595E+03 -4.39847E+03 -4.83267E+02
 -2.21683E+03 -4.45224E+03  1.05177E+03 -5.46968E+03  3.36936E+03 -5.39060E+03  4.50090E+03 -1.47003E+03
  5.07573E+03  2.68979E+03  2.20047E+03  4.22893E+03 -1.00505E+03  5.25659E+03 -3.28663E+03  3.22041E+03
 -4.54461E+03  3.18254E+02 -4.01986E+03 -2.86575E+03 -3.27780E+02 -4.10015E+03  2.14401E+03 -3.31897E+03
  3.11551E+03 -1.44127E+03  2.40968E+03  5.35688E+02  5.69452E+02  2.14237E+03  1.02379E+03  6.65808E+02
  1.42235E+03  5.70996E+02  1.54712E+03  1.05599E+03  1.34240E+03  2.28830E+03  1.77109E+03  2.14118E+03
 -1.43479E+03  3.48527E+03 -3.41890E+03  4.71891E+03 -3.98426E+03  1.26369E+03 -5.12389E+03 -8.06410E+02
 -2.33940E+03 -4.50891E+03  6.43387E+02 -5.64421E+03  2.38663E+03 -3.16886E+03  3.81323E+03 -9.53343E+02
  2.83278E+03  2.13635E+03  3.87318E+02  2.69506E+03 -8.88591E+02  1.87965E+03 -1.34801E+03 -2.87047E+02
 -1.11017E+03 -1.75621E+03  1.53802E+03 -1.78381E+03  1.83827E+03 -1.27608E+03  1.49049E+03  1.43359E+02
  1.05762E+03  6.82975E+02  7.41495E+02  1.18641E+01 -3.36713E+02  7.97094E+02  1.72815E+03 -4.56566E+02
  2.74451E+02 -3.43502E+02  2.14837E+03  6.34234E+02  5.07970E+02  2.82974E+03 -7.05451E+02  3.27804E+03
 -2.14996E+03  1.38171E+03 -2.89967E+03  5.70123E+02 -2.76917E+03 -9.79893E+02 -3.27944E+02 -1.31078E+03
  3.28733E+02 -1.88008E+03  1.20544E+03 -8.41016E+02  1.04236E+03  1.43391E+03 -7.53646E+02  1.14184E+03
 -1.75999E+03  8.13510E+02 -1.56895E+03 -1.55405E+03 -1.21550E+03 -2.49071E+03  2.63450E+02 -2.32819E+03
  8.73881E+02 -8.25584E+02  1.28757E+03  8.88573E+01  1.53611E+03 -1.87372E+02  3.19747E+02  1.33433E+03
 -5.70341E+02  1.27891E+02 -1.32965E+03 -2.05020E+02  6.04579E+02 -1.17516E+03  2.23255E+03 -1.35706E+03
  1.72233E+03  2.01372E+02  3.15813E+03  1.23122E+03  1.36391E+03  2.22395E+03 -4.38976E+02  2.12112E+03
 -1.91336E+03  4.79791E+02 -1.92692E+03 -2.59165E+02 -1.24136E+03 -1.72606E+03  5.48537E+02 -1.00424E+03
  1.86923E+03 -4.77151E+02  1.12493E+03  8.87402E+02  5.18872E+02  1.70988E+03  5.44257E+02  1.41667E+03
 -7.41339E+02  1.34861E+03 -6.39398E+02  4.96233E+02 -2.40127E+02  4.24636E+02 -6.36725E+02  5.24405E+02
 -8.18123E+02  1.41654E+03 -2.16900E+03  4.78376E+02 -2.22033E+03  1.74576E+02 -2.87436E+03 -1.41969E+03
 -1.32370E+03 -3.16909E+03  6.29090E+02 -3.33789E+03  1.51551E+03 -3.18792E+03  3.71915E+03 -1.27427E+03
  3.12110E+03  2.86176E+02  1.97191E+03  1.73895E+03 -4.80998E+02  1.82854E+03 -9.90465E+02  1.50596E+03
 -1.03639E+03  8.10139E+02 -7.05465E+02 -1.57677E+02 -8.51527E+02  1.41253E+02 -7.12995E+02 -1.11097E+02
 -1.23567E+03 -1.63479E+02 -1.16127E+03  1.61323E+02  4.70382E+01 -9.28312E+02 -2.55054E+02 -1.31712E+03
  1.51021E+03 -6.90336E+02  1.08604E+03  3.43218E+02  1.62673E+03  1.26201E+03 -7.90508E+01  1.69097E+03
 -1.11631E+03  2.74134E+03 -2.31270E+03  1.56247E+03 -2.29934E+03 -1.55078E+02 -1.66880E+03 -1.77337E+03
 -9.60130E+02 -1.86557E+03  3.70336E+02 -1.65708E+03  1.10234E+03 -7.72981E+02  1.31444E+03  4.74576E+02
  8.77347E+02  4.15067E+02  1.97884E+02  7.05806E+02 -2.19872E+02 -2.89758E+02 -1.69459E+02 -3.85886E+02
  6.92975E+02  1.55400E+02  7.54672E+02  5.04158E+02  4.70313E+02  9.00659E+02  6.66860E+01  5.60987E+02
 -8.96986E+02  1.07995E+03 -1.20996E+03  2.39338E+02 -8.64844E+02 -7.87327E+02  1.12547E+02 -1.61509E+03
  6.68823E+02 -9.07007E+02  1.01735E+03 -3.19235E+02  1.24735E+03 -2.41863E+02  7.19876E+02  1.12571E+03
  6.11876E+02  8.17868E+02 -4.60610E+02  9.24147E+02 -4.35651E+02  8.61267E+02 -3.17973E+02  1.29796E+02
  5.06356E-01 -1.83676E+02 -5.77758E+02  2.96842E+02 -4.39148E+02  7.29976E+01 -1.31194E+03 -3.81400E+02
 -1.30037E+03 -8.82676E+01 -4.54876E+02 -1.31352E+03  7.41059E+02 -1.91350E+03  1.13020E+03 -6.23813E+02
  9.56001E+02  2.36016E+01  2.59939E+02  6.93888E+02 -1.69019E+02  1.26168E+03 -8.12276E+02  9.14374E+02
