 $NMID ID='MM_0lb_SNR800_13hz_g40_80.RAW', FMTDAT='(8E13.5)'
 TRAMP=1., VOLUME=1. $END
  3.09827E+05  4.41457E+02  3.37767E+05  2.50479E+05  8.49628E+04  3.37981E+05 -1.32620E+05  2.51184E+05
 -1.90205E+05  8.33266E+04 -1.11727E+05 -3.28283E+04  1.21861E+03 -5.04986E+04  5.38358E+04 -1.92062E+02
  3.53546E+04  5.28753E+04 -1.69263E+04  7.53597E+04 -6.08239E+04  6.33530E+04 -8.39694E+04  3.18667E+04
 -8.08312E+04 -1.13216E+04 -5.71412E+04 -5.14341E+04 -1.48607E+04 -6.95459E+04  2.74407E+04 -4.56116E+04
  3.98970E+04  3.74411E+03  1.64221E+04  4.78286E+04 -3.44313E+04  4.72561E+04 -6.64466E+04 -1.21967E+01
 -5.34879E+04 -5.66456E+04 -6.65374E+03 -7.68520E+04  3.39418E+04 -5.51698E+04  4.77162E+04 -1.73344E+04
  4.30732E+04  1.12939E+04  3.20896E+04  2.54053E+04  1.58390E+04  2.90723E+04 -5.35406E+03  2.74498E+04
 -2.23206E+04  1.26123E+04 -1.84671E+04 -5.06183E+03  5.88259E+03 -7.11964E+03  2.21409E+04  1.22522E+04
  7.34568E+03  3.53289E+04 -3.18906E+04  3.50804E+04 -6.32050E+04  1.91414E+03 -5.66793E+04 -4.26799E+04
 -1.26867E+04 -6.28295E+04  3.98371E+04 -4.53574E+04  5.82170E+04 -2.43976E+03  3.39439E+04  3.22641E+04
 -6.13077E+03  3.55837E+04 -2.97023E+04  1.59958E+04 -3.05011E+04 -4.68239E+03 -1.64378E+04 -1.08961E+04
 -8.29666E+03 -1.32024E+04 -7.02776E+02 -1.79786E+04  7.49397E+03 -2.29262E+04  1.51296E+04 -1.38556E+04
  1.15191E+04  5.28473E+03 -8.17601E+03  1.31011E+04 -2.10944E+04 -4.48974E+03 -8.13995E+03 -3.33757E+04
  2.28826E+04 -4.34178E+04  4.79280E+04 -1.97182E+04  4.51085E+04  1.95997E+04  1.57356E+04  4.44264E+04
 -1.57398E+04  3.28596E+04 -2.53439E+04  2.00668E+03 -9.83309E+03 -2.76449E+04  2.10207E+04 -3.33912E+04
  4.06783E+04 -9.19094E+03  3.51587E+04  2.38924E+04  1.80619E+04  4.63164E+04 -7.90883E+03  5.01841E+04
 -3.17804E+04  3.35160E+04 -4.15925E+04  9.37573E+03 -4.28885E+04 -1.65918E+04 -2.30427E+04 -3.81821E+04
  7.13910E+03 -3.75434E+04  3.14820E+04 -1.46246E+04  2.94559E+04  1.11673E+04  4.12326E+03  1.92402E+04
 -1.32951E+04  8.33758E+03 -1.00962E+04 -7.35328E+03  5.66663E+03 -1.08433E+04  1.81105E+04  5.95527E+03
  1.33324E+04  2.21249E+04 -5.89888E+03  2.48222E+04 -2.22772E+04  1.13904E+04 -2.81851E+04 -4.83188E+03
 -2.03454E+04 -1.70925E+04 -8.33634E+03 -2.06807E+04  3.77378E+03 -1.98893E+04  1.59266E+04 -1.81320E+04
  2.61296E+04 -1.28475E+04  3.22065E+04  2.92674E+03  2.41345E+04  1.96801E+04  4.24577E+03  3.65708E+04
 -1.76017E+04  3.02299E+04 -2.80175E+04  1.03351E+04 -2.08066E+04 -1.03194E+04 -4.30401E+03 -1.36033E+04
  1.40558E+03 -2.42644E+03 -4.64013E+03  6.85340E+03 -1.63246E+04  5.16817E+03 -1.61613E+04 -6.98768E+03
 -1.01750E+04 -1.91938E+04  5.24407E+03 -2.28930E+04  1.53167E+04 -1.67669E+04  1.82372E+04 -1.52910E+03
  1.14765E+04  1.34065E+04 -1.41273E+03  1.88945E+04 -1.31890E+04  1.09240E+04 -1.91068E+04 -4.01216E+03
 -1.40690E+04 -1.68701E+04 -1.93723E+03 -2.32709E+04  1.00027E+04 -1.88577E+04  1.90178E+04 -9.30222E+03
  1.76046E+04  1.09978E+02  1.26833E+04  4.50275E+03  6.76057E+03  8.74946E+02  9.47470E+03 -1.66163E+03
  1.75732E+04  2.62457E+03  1.96391E+04  1.50872E+04  1.24982E+04  3.04615E+04 -2.84492E+03  3.44671E+04
 -1.98964E+04  2.78413E+04 -3.21025E+04  1.39951E+04 -3.36154E+04 -2.51264E+03 -2.79945E+04 -1.93817E+04
 -1.21079E+04 -2.76562E+04  9.68479E+03 -2.52807E+04  2.15451E+04 -1.28243E+04  1.95842E+04  5.59180E+03
  7.04655E+03  1.43622E+04 -9.08342E+03  1.27562E+04 -1.62471E+04  2.81308E+03 -1.23427E+04 -1.03801E+04
 -1.63662E+02 -1.53628E+04  7.99882E+03 -1.18775E+04  1.04631E+04 -1.18165E+03  2.21088E+03  6.71380E+03
 -7.03024E+03  2.70874E+03 -6.15367E+03 -5.49291E+03 -6.96819E+02 -1.33379E+04  9.76235E+03 -1.45561E+04
  1.69245E+04 -7.75882E+03  1.82778E+04  3.05019E+03  1.58019E+04  1.31329E+04  7.55328E+03  2.07107E+04
 -3.21420E+03  2.23769E+04 -1.41044E+04  1.40294E+04 -1.61111E+04  3.53161E+03 -1.12429E+04 -3.55026E+03
 -5.31253E+03 -5.70065E+03 -6.95346E+02  1.25756E+03 -2.53706E+03  2.49315E+03 -5.26384E+03  4.26617E+03
 -1.09424E+04 -6.29470E+02 -1.12023E+04 -9.46789E+03 -4.53442E+03 -1.50169E+04  4.56826E+03 -1.13640E+04
  9.71746E+03 -4.64105E+03  6.92117E+03  2.62482E+03  4.29515E+02  4.50885E+03 -5.20194E+03 -2.23337E+02
 -5.04276E+03 -7.29070E+03 -9.00257E+02 -1.08355E+04  5.83119E+03 -1.17480E+04  1.42303E+04 -6.03063E+03
  1.68757E+04  1.47172E+03  1.24560E+04  9.51213E+03  2.19448E+03  1.31861E+04 -6.93024E+03  1.11644E+04
 -9.02096E+03  3.88853E+03 -4.85894E+03 -2.03679E+03  1.99750E+03 -3.03899E+03  6.22639E+03 -1.07323E+03
  5.34256E+03  4.70048E+03  1.08616E+03  9.26051E+03 -6.36244E+03  8.81862E+03 -1.12954E+04  2.42699E+03
 -7.08204E+03 -5.50959E+03  1.27529E+02 -9.39415E+03  5.86447E+03 -4.69387E+03  5.94912E+03  1.98045E+03
  1.25712E+03  6.13794E+03 -5.70152E+03  7.58986E+03 -8.44582E+03  3.82445E+03 -8.23395E+03 -2.99888E+03
 -5.22280E+03 -1.00743E+04  2.17497E+03 -1.14683E+04  9.86881E+03 -7.23297E+03  1.09278E+04  1.71683E+03
  6.86237E+03  8.60760E+03 -6.02001E+02  1.07947E+04 -7.86599E+03  6.13522E+03 -8.45489E+03 -7.92613E+02
 -8.01016E+03 -7.18031E+03 -1.51337E+03 -8.05762E+03  4.21509E+03 -6.64290E+03  4.77000E+03 -3.01252E+03
  3.55019E+03  1.11773E+03 -3.73727E+02  1.92440E+03 -2.57102E+02 -1.64749E+03  1.17851E+03 -4.24069E+03
  6.89772E+03 -2.47294E+03  9.78790E+03  1.06452E+03  9.77101E+03  6.42294E+03  7.33786E+03  1.31570E+04
 -2.56168E+03  1.49488E+04 -1.28515E+04  1.09921E+04 -1.63457E+04  2.30528E+03 -1.32919E+04 -5.16937E+03
 -6.67903E+03 -1.06995E+04 -5.20363E+02 -9.10635E+03  3.39123E+03 -4.56708E+03  3.05301E+03 -3.31702E+03
  2.59930E+03 -2.11771E+03  2.94809E+03 -3.33646E+03  4.47083E+03 -2.25842E+03  5.33785E+03  5.07878E+01
  6.81646E+03  1.70418E+03  3.36954E+03  6.09826E+03 -1.95878E+03  6.19848E+03 -7.34345E+03  5.31149E+03
 -9.27848E+03 -8.76587E+02 -4.90229E+03 -6.17502E+03 -5.01253E+02 -9.37602E+03  5.49739E+03 -9.26081E+03
  9.60426E+03 -5.56306E+03  1.18357E+04  1.28508E+03  8.75096E+03  8.22895E+03  1.55450E+03  1.07663E+04
 -4.39107E+03  9.16009E+03 -6.16055E+03  3.08303E+03 -4.04913E+03 -1.18046E+03 -1.66836E+03 -1.41922E+03
 -9.49849E+02  3.76749E+02 -1.41971E+03  2.28051E+03 -4.38700E+03  1.49118E+03 -6.54703E+03 -8.64777E+02
 -4.08310E+03 -6.93438E+03  3.20114E+02 -8.73440E+03  5.30318E+03 -8.02490E+03  8.24838E+03 -2.09172E+03
  8.20971E+03  4.03171E+03  3.66462E+03  7.38752E+03 -1.75828E+03  8.57582E+03 -5.93583E+03  5.57350E+03
 -7.83309E+03  7.49100E+02 -6.37799E+03 -5.14949E+03 -6.00503E+02 -6.60298E+03  3.49500E+03 -5.16537E+03
  5.51571E+03 -1.98098E+03  3.93670E+03  1.51927E+03  1.20257E+03  2.72701E+03  1.14156E+03  1.24015E+03
  2.24758E+03  8.20639E+02  1.93575E+03  1.51925E+03  2.52466E+03  3.24534E+03  2.26293E+03  4.27679E+03
 -2.14596E+03  6.54732E+03 -5.99185E+03  7.40560E+03 -7.79095E+03  2.06743E+03 -8.65807E+03 -2.82358E+03
 -4.05523E+03 -8.01752E+03  1.24589E+03 -9.07530E+03  4.78939E+03 -5.62680E+03  7.10063E+03 -1.36247E+03
  5.47338E+03  3.28169E+03  1.26019E+03  4.87251E+03 -2.09354E+03  2.65999E+03 -2.94675E+03 -6.40398E+02
 -1.65199E+03 -3.30470E+03  1.95183E+03 -3.68473E+03  3.28398E+03 -1.46362E+03  3.27780E+03  5.27636E+02
  2.22429E+03  1.45449E+03  9.39429E+02  6.49684E+02 -5.40350E+02  1.04748E+03  1.71580E+03 -4.00355E+02
  1.09856E+03 -5.10793E+02  3.49901E+03  1.28896E+03  1.53649E+03  4.56186E+03 -8.85503E+02  5.87585E+03
 -3.66990E+03  3.44309E+03 -5.27794E+03  1.14260E+03 -4.92805E+03 -1.57444E+03 -1.13291E+03 -2.85366E+03
  6.17155E+02 -2.94631E+03  2.10253E+03 -1.65581E+03  1.70801E+03  1.83880E+03 -1.03930E+03  2.62135E+03
 -3.39016E+03  1.64270E+03 -3.52191E+03 -2.00165E+03 -1.89688E+03 -4.58114E+03  4.30774E+02 -4.13930E+03
  2.11988E+03 -2.08820E+03  2.83551E+03 -1.73369E+02  2.74748E+03  8.30929E+02  5.36828E+02  2.55578E+03
 -1.36729E+03  6.04682E+02 -2.08133E+03 -1.34343E+03  8.78166E+02 -3.08840E+03  3.95001E+03 -2.42594E+03
  4.27053E+03  1.06705E+02  5.37649E+03  2.92188E+03  1.77221E+03  4.76237E+03 -1.71477E+03  4.67510E+03
 -3.87462E+03  1.56792E+03 -4.22573E+03 -3.69607E+02 -2.26803E+03 -2.92061E+03  7.54529E+02 -2.74605E+03
  3.04847E+03 -1.53649E+03  2.30460E+03  1.42485E+03  5.78632E+02  2.88213E+03  8.71979E+01  2.69432E+03
 -1.02541E+03  2.04224E+03 -1.24457E+03  4.69866E+02 -5.17111E+02  6.79730E+02 -1.15563E+03  8.54435E+02
 -1.49544E+03  1.91275E+03 -3.71547E+03  1.73553E+03 -4.59011E+03  1.96736E+02 -5.52239E+03 -3.09236E+03
 -2.73532E+03 -6.16226E+03  1.42947E+03 -7.04375E+03  4.15707E+03 -5.93735E+03  7.16289E+03 -2.47538E+03
  6.28352E+03  7.50896E+02  3.75205E+03  4.14018E+03 -3.32803E+02  4.82435E+03 -2.04961E+03  3.55499E+03
 -2.65112E+03  1.67997E+03 -2.07961E+03 -7.43869E+02 -8.09568E+02 -4.09619E+02 -5.47575E+02 -1.49080E+02
 -1.34998E+03 -2.46583E+02 -1.65942E+03 -7.02890E+01 -2.39723E+01 -1.26443E+03 -1.81107E+00 -1.80224E+03
  2.59591E+03 -1.66882E+03  2.67403E+03  8.19833E+01  3.29454E+03  2.79733E+03  3.92350E+02  4.25369E+03
 -2.39153E+03  5.80847E+03 -4.89207E+03  3.17496E+03 -5.74637E+03 -4.55217E+02 -4.42583E+03 -3.85640E+03
 -2.07935E+03 -4.88690E+03  9.67286E+02 -4.00683E+03  2.95573E+03 -2.01023E+03  3.03026E+03 -9.21807E+01
  1.83391E+03  1.44923E+03 -1.19351E+02  1.52877E+03 -7.46525E+02 -3.13518E+02  9.49373E+01 -8.15806E+02
  1.39328E+03 -2.89320E+02  1.67062E+03  1.30274E+03  8.34863E+02  1.78463E+03  1.52967E+02  1.91446E+03
 -2.04578E+03  2.04761E+03 -2.51116E+03  3.93745E+01 -2.53394E+03 -2.04547E+03 -3.92453E+02 -4.06230E+03
  2.19252E+03 -3.16600E+03  2.92196E+03 -5.60080E+02  3.79950E+03  2.15428E+02  1.93578E+03  2.45051E+03
  7.77638E+02  2.70144E+03 -9.85175E+02  2.01712E+03 -1.90845E+03  1.47939E+03 -1.73319E+03  4.71195E+02
 -8.15588E+02 -6.71539E+01 -7.61486E+02  5.91842E+02 -1.53098E+03  5.99318E+01 -2.44249E+03 -1.84289E+02
 -2.35165E+03 -8.43969E+02 -8.95711E+02 -3.28530E+03  1.82578E+03 -3.59793E+03  2.70047E+03 -1.56123E+03
  3.12353E+03  2.93468E+02  7.49032E+02  1.80755E+03 -5.00764E+02  2.81139E+03 -1.67530E+03  1.99711E+03
