 $NMID ID='MM_0lb_SNR800_14hz_g40_42.RAW', FMTDAT='(8E13.5)'
 TRAMP=1., VOLUME=1. $END
  3.09902E+05  5.73567E+02  3.37423E+05  2.50477E+05  8.48425E+04  3.37792E+05 -1.32516E+05  2.50622E+05
 -1.90352E+05  8.30295E+04 -1.11609E+05 -3.23836E+04  8.56542E+02 -5.05157E+04  5.38893E+04 -1.76830E+02
  3.51684E+04  5.24680E+04 -1.68619E+04  7.54031E+04 -6.04908E+04  6.35158E+04 -8.37315E+04  3.17388E+04
 -8.03175E+04 -1.11917E+04 -5.67689E+04 -5.05599E+04 -1.51529E+04 -6.92699E+04  2.72199E+04 -4.55093E+04
  4.00033E+04  4.02804E+03  1.59811E+04  4.76595E+04 -3.39807E+04  4.69532E+04 -6.63473E+04 -7.68199E+02
 -5.28547E+04 -5.65367E+04 -6.32773E+03 -7.67168E+04  3.37196E+04 -5.46337E+04  4.75788E+04 -1.69867E+04
  4.29259E+04  1.12305E+04  3.13646E+04  2.51733E+04  1.62139E+04  2.92819E+04 -5.26051E+03  2.71038E+04
 -2.19213E+04  1.24325E+04 -1.87066E+04 -4.73726E+03  5.42609E+03 -7.36158E+03  2.22249E+04  1.20725E+04
  7.39280E+03  3.48030E+04 -3.18531E+04  3.54008E+04 -6.26367E+04  2.32104E+03 -5.63731E+04 -4.23243E+04
 -1.22654E+04 -6.24353E+04  3.93736E+04 -4.47229E+04  5.76617E+04 -2.17049E+03  3.33203E+04  3.17158E+04
 -6.09763E+03  3.53489E+04 -2.96245E+04  1.54455E+04 -2.95511E+04 -4.71103E+03 -1.63184E+04 -1.08220E+04
 -8.16166E+03 -1.26792E+04 -7.21713E+02 -1.78741E+04  7.49224E+03 -2.31243E+04  1.54745E+04 -1.34928E+04
  1.13736E+04  4.88151E+03 -7.96270E+03  1.32435E+04 -2.05575E+04 -3.88835E+03 -8.36608E+03 -3.31434E+04
  2.24233E+04 -4.28562E+04  4.70182E+04 -1.94556E+04  4.45045E+04  1.89318E+04  1.50835E+04  4.37325E+04
 -1.57116E+04  3.27888E+04 -2.45692E+04  1.75569E+03 -9.49389E+03 -2.76163E+04  2.08498E+04 -3.30988E+04
  4.04599E+04 -8.21713E+03  3.44975E+04  2.33617E+04  1.74332E+04  4.54810E+04 -7.67356E+03  4.89248E+04
 -3.05594E+04  3.26881E+04 -4.09135E+04  9.31705E+03 -4.15478E+04 -1.63164E+04 -2.31979E+04 -3.71966E+04
  7.42435E+03 -3.70563E+04  3.08456E+04 -1.43227E+04  2.88125E+04  1.07862E+04  3.72487E+03  1.88950E+04
 -1.35339E+04  8.18467E+03 -1.01983E+04 -7.56445E+03  5.82249E+03 -1.03394E+04  1.78530E+04  6.22281E+03
  1.28836E+04  2.21311E+04 -6.12807E+03  2.44420E+04 -2.24353E+04  1.09635E+04 -2.72959E+04 -4.76720E+03
 -1.96385E+04 -1.71674E+04 -7.78745E+03 -1.95764E+04  3.70088E+03 -1.86264E+04  1.52394E+04 -1.71742E+04
  2.50464E+04 -1.25622E+04  3.15765E+04  2.44527E+03  2.31452E+04  1.89943E+04  4.11064E+03  3.53002E+04
 -1.74439E+04  2.98711E+04 -2.74739E+04  1.00927E+04 -2.05652E+04 -9.92643E+03 -4.59392E+03 -1.35135E+04
  1.85443E+03 -3.22077E+03 -4.33640E+03  6.50119E+03 -1.54564E+04  5.25610E+03 -1.55570E+04 -6.57622E+03
 -9.73622E+03 -1.84066E+04  4.82996E+03 -2.25970E+04  1.45475E+04 -1.62588E+04  1.75845E+04 -1.61990E+03
  1.08716E+04  1.27236E+04 -1.29936E+03  1.79950E+04 -1.26850E+04  1.06141E+04 -1.81683E+04 -3.84508E+03
 -1.35633E+04 -1.67598E+04 -1.78099E+03 -2.22248E+04  1.00967E+04 -1.82117E+04  1.86578E+04 -9.12303E+03
  1.69657E+04  5.51137E+00  1.23461E+04  4.22537E+03  6.51258E+03  5.37417E+02  9.22262E+03 -1.53498E+03
  1.68274E+04  2.74287E+03  1.81329E+04  1.46559E+04  1.21004E+04  2.88889E+04 -2.81260E+03  3.28636E+04
 -1.90315E+04  2.61468E+04 -3.06631E+04  1.28679E+04 -3.16805E+04 -2.22963E+03 -2.65216E+04 -1.82037E+04
 -1.13837E+04 -2.58714E+04  8.96492E+03 -2.34639E+04  2.01701E+04 -1.23801E+04  1.87640E+04  4.88835E+03
  7.29246E+03  1.36453E+04 -8.59493E+03  1.22073E+04 -1.58740E+04  2.29525E+03 -1.18787E+04 -9.88300E+03
 -3.91533E+02 -1.48483E+04  7.95816E+03 -1.13314E+04  9.81423E+03 -1.52891E+03  2.04668E+03  6.14073E+03
 -6.78021E+03  2.31544E+03 -5.72306E+03 -5.27580E+03 -1.33407E+02 -1.28033E+04  9.23332E+03 -1.33218E+04
  1.58633E+04 -6.94192E+03  1.67219E+04  2.99741E+03  1.43720E+04  1.23760E+04  6.71221E+03  1.90486E+04
 -3.16424E+03  2.13746E+04 -1.35354E+04  1.31545E+04 -1.52434E+04  3.21941E+03 -1.05476E+04 -3.51764E+03
 -5.14434E+03 -4.48766E+03 -5.60629E+02  1.21230E+03 -2.23238E+03  2.35745E+03 -5.10063E+03  4.21634E+03
 -1.01788E+04 -6.78409E+02 -1.07560E+04 -8.77947E+03 -4.61990E+03 -1.44252E+04  4.35139E+03 -1.09052E+04
  9.09982E+03 -4.79696E+03  6.85134E+03  2.60510E+03  5.58951E+01  4.16473E+03 -4.93135E+03 -1.37504E+02
 -4.90612E+03 -6.97843E+03 -9.26232E+02 -1.00531E+04  5.96868E+03 -1.05228E+04  1.32822E+04 -5.69442E+03
  1.54135E+04  1.44046E+03  1.12202E+04  9.11632E+03  2.18156E+03  1.21652E+04 -6.93584E+03  1.07198E+04
 -8.96765E+03  3.50002E+03 -4.81582E+03 -2.04863E+03  1.59247E+03 -2.85461E+03  6.04350E+03 -1.28890E+03
  5.28437E+03  4.42103E+03  1.10681E+03  8.10261E+03 -5.83715E+03  8.14753E+03 -1.03202E+04  2.17425E+03
 -6.69058E+03 -5.14143E+03  1.43318E+02 -9.16383E+03  5.42926E+03 -4.66541E+03  5.50007E+03  1.85614E+03
  9.67938E+02  5.44630E+03 -5.45704E+03  7.04521E+03 -7.77955E+03  3.15715E+03 -7.54411E+03 -2.44873E+03
 -4.50212E+03 -9.23132E+03  2.02954E+03 -1.06174E+04  8.68802E+03 -6.49216E+03  9.82592E+03  1.66124E+03
  6.54446E+03  7.63625E+03 -3.81927E+02  1.02187E+04 -7.37603E+03  5.83160E+03 -7.71205E+03 -7.71069E+02
 -7.13326E+03 -6.80091E+03 -1.42716E+03 -7.87236E+03  3.61711E+03 -6.16829E+03  4.52765E+03 -3.13423E+03
  3.54080E+03  6.93700E+02 -3.42031E+02  1.59792E+03  4.58055E+02 -1.58216E+03  9.02819E+02 -3.57114E+03
  6.31500E+03 -2.25141E+03  8.61268E+03  1.27565E+03  8.98761E+03  5.64389E+03  6.84759E+03  1.15872E+04
 -2.69369E+03  1.33916E+04 -1.15402E+04  1.00503E+04 -1.48357E+04  2.27796E+03 -1.17180E+04 -4.53627E+03
 -5.95389E+03 -9.79273E+03 -2.51287E+02 -8.39542E+03  3.01146E+03 -3.65955E+03  2.87047E+03 -3.34536E+03
  2.26704E+03 -1.88747E+03  2.46786E+03 -2.78316E+03  4.38701E+03 -2.02307E+03  5.23454E+03 -2.44130E+01
  6.20727E+03  1.58832E+03  2.65763E+03  5.59140E+03 -1.57245E+03  5.71796E+03 -6.81375E+03  4.57485E+03
 -7.97778E+03 -1.08650E+03 -4.36692E+03 -5.63724E+03 -6.16354E+01 -8.62290E+03  5.24497E+03 -8.56978E+03
  8.97755E+03 -5.07084E+03  1.03703E+04  7.56357E+02  7.64283E+03  7.22586E+03  1.39193E+03  9.43241E+03
 -3.66678E+03  8.80898E+03 -5.60022E+03  2.75423E+03 -3.41688E+03 -1.24711E+03 -1.22370E+03 -9.50514E+02
 -5.75066E+02  4.77794E+02 -1.22914E+03  2.39749E+03 -3.55742E+03  1.17523E+03 -5.88199E+03 -8.02973E+02
 -3.25642E+03 -5.53935E+03  3.61316E+02 -7.88647E+03  4.77897E+03 -7.29767E+03  6.99957E+03 -1.94666E+03
  7.17249E+03  3.44397E+03  3.61542E+03  6.69002E+03 -1.71592E+03  7.41231E+03 -4.93550E+03  4.64031E+03
 -7.02844E+03  8.36652E+02 -5.41103E+03 -4.64122E+03 -7.72407E+02 -6.01860E+03  3.12462E+03 -4.52043E+03
  4.68986E+03 -1.59863E+03  3.23517E+03  1.21107E+03  9.45127E+02  2.61962E+03  1.06216E+03  1.16489E+03
  2.19661E+03  6.53871E+02  1.69748E+03  1.31961E+03  1.86999E+03  3.28217E+03  2.18007E+03  3.68723E+03
 -2.00833E+03  5.52726E+03 -4.99643E+03  6.54845E+03 -6.73587E+03  1.74346E+03 -7.64735E+03 -2.04975E+03
 -3.16828E+03 -7.07544E+03  1.25519E+03 -8.22878E+03  4.00897E+03 -4.64161E+03  5.92336E+03 -1.46986E+03
  4.85844E+03  3.03842E+03  1.09051E+03  4.42425E+03 -1.75324E+03  2.71453E+03 -2.35660E+03 -2.41691E+02
 -1.33510E+03 -3.01891E+03  1.67545E+03 -2.84549E+03  2.78355E+03 -1.69543E+03  2.77609E+03  1.11510E+03
  1.61429E+03  1.11930E+03  8.08323E+02  6.86496E+02 -2.49556E+02  1.10608E+03  1.70120E+03 -2.30653E+02
  7.95985E+02 -1.81030E+02  3.07340E+03  1.21224E+03  1.07111E+03  3.97977E+03 -6.60339E+02  5.14515E+03
 -3.36140E+03  2.84401E+03 -4.06238E+03  8.79586E+02 -4.11718E+03 -1.62638E+03 -1.36595E+03 -2.34024E+03
  3.85359E+02 -2.39376E+03  1.61201E+03 -1.39193E+03  1.31828E+03  1.49569E+03 -9.90440E+02  2.26453E+03
 -2.94440E+03  1.54438E+03 -3.18105E+03 -2.06775E+03 -1.66616E+03 -4.02255E+03  3.23996E+02 -3.57282E+03
  1.65104E+03 -1.88421E+03  2.31154E+03  8.57411E+01  2.39996E+03  4.14360E+02  5.39388E+02  1.86327E+03
 -8.06781E+02  4.19890E+02 -1.89932E+03 -9.08313E+02  7.32284E+02 -2.46047E+03  3.47510E+03 -1.95991E+03
  3.80217E+03  3.85895E+02  4.56837E+03  2.32951E+03  1.68933E+03  4.01636E+03 -1.33634E+03  4.06028E+03
 -3.18348E+03  1.13486E+03 -3.36124E+03 -6.95710E+02 -2.04239E+03 -2.60819E+03  7.69665E+02 -2.35343E+03
  2.77403E+03 -1.34611E+03  2.18452E+03  1.38462E+03  5.84558E+02  2.54004E+03 -1.26356E+02  2.08830E+03
 -7.51765E+02  1.57836E+03 -1.13247E+03 -8.05832E+00 -3.45406E+02  6.96606E+02 -1.41994E+03  9.74262E+02
 -1.41948E+03  1.74598E+03 -3.17259E+03  1.31288E+03 -4.11072E+03  1.75164E+02 -4.82551E+03 -2.52846E+03
 -2.47770E+03 -5.24566E+03  8.66282E+02 -6.37946E+03  3.63211E+03 -5.06849E+03  5.94161E+03 -1.92736E+03
  5.59228E+03  2.19467E+02  2.99486E+03  3.50010E+03 -8.23692E+01  3.66252E+03 -1.63556E+03  2.87702E+03
 -2.50713E+03  1.22702E+03 -1.74804E+03 -3.96260E+02 -4.87796E+02 -4.34819E+01 -5.75620E+02  2.53698E+01
 -1.22651E+03 -3.05951E+01 -1.35511E+03  2.58868E+02  1.71561E+02 -1.09883E+03  1.01717E+02 -1.03587E+03
  2.14773E+03 -1.23435E+03  1.84698E+03  5.59058E+01  2.70476E+03  2.31342E+03  6.69971E+01  3.62938E+03
 -1.99465E+03  4.84326E+03 -3.97373E+03  2.73739E+03 -4.44766E+03 -6.83829E+02 -3.51034E+03 -2.99898E+03
 -1.82942E+03 -3.53901E+03  7.95197E+02 -3.48001E+03  2.29991E+03 -1.76643E+03  2.14954E+03  1.96876E+02
  1.45738E+03  1.25500E+03  2.12032E+02  1.02305E+03 -9.88518E+02 -1.13325E+02 -1.73294E+02 -8.34471E+02
  1.35386E+03 -2.64113E+02  9.70343E+02  7.25690E+02  6.01566E+02  1.55706E+03  3.41683E+02  1.68512E+03
 -1.50211E+03  1.70732E+03 -2.12075E+03  1.96941E+02 -2.21128E+03 -1.60536E+03 -1.93061E+02 -3.19574E+03
  1.73953E+03 -2.07893E+03  2.38353E+03 -4.53126E+02  2.52393E+03  9.57861E+01  1.31153E+03  2.28443E+03
  6.94784E+02  1.93528E+03 -7.85625E+02  1.68729E+03 -1.49213E+03  1.18937E+03 -1.03728E+03  4.14457E+02
 -5.65286E+02 -2.78092E+02 -1.06383E+03  3.92636E+02 -1.38849E+03  4.81709E+02 -2.01959E+03 -6.00438E+02
 -2.08448E+03 -8.13254E+02 -8.27965E+02 -2.37089E+03  1.43555E+03 -2.84876E+03  1.88589E+03 -8.61374E+02
  2.24487E+03  2.86723E+02  4.98737E+02  1.15313E+03 -1.45427E+02  2.17686E+03 -1.50845E+03  1.34635E+03
