 $NMID ID='MM_0lb_SNR800_20hz_g55_17.RAW', FMTDAT='(8E13.5)'
 TRAMP=1., VOLUME=1. $END
  3.09805E+05  4.96291E+02  3.37657E+05  2.50610E+05  8.42674E+04  3.37360E+05 -1.32530E+05  2.50431E+05
 -1.89901E+05  8.27139E+04 -1.11197E+05 -3.27184E+04  1.27100E+03 -5.01741E+04  5.40037E+04 -5.64418E+01
  3.52401E+04  5.28897E+04 -1.69098E+04  7.47405E+04 -6.04203E+04  6.31520E+04 -8.30834E+04  3.14045E+04
 -7.97365E+04 -1.10432E+04 -5.64787E+04 -5.04189E+04 -1.47683E+04 -6.85647E+04  2.69293E+04 -4.51035E+04
  3.90877E+04  3.77319E+03  1.56782E+04  4.72324E+04 -3.36950E+04  4.61818E+04 -6.53083E+04 -4.59360E+02
 -5.22931E+04 -5.61019E+04 -6.35358E+03 -7.53625E+04  3.30894E+04 -5.31471E+04  4.66733E+04 -1.65975E+04
  4.18867E+04  1.11283E+04  3.07415E+04  2.45066E+04  1.59280E+04  2.82978E+04 -4.83973E+03  2.68894E+04
 -2.19290E+04  1.29628E+04 -1.90421E+04 -4.28397E+03  4.63632E+03 -7.83688E+03  2.12165E+04  1.12204E+04
  7.29035E+03  3.33628E+04 -3.05578E+04  3.41334E+04 -6.10133E+04  1.91702E+03 -5.54684E+04 -4.12910E+04
 -1.23176E+04 -6.10346E+04  3.82384E+04 -4.33259E+04  5.56394E+04 -1.87268E+03  3.23270E+04  3.07402E+04
 -6.60613E+03  3.31956E+04 -2.86229E+04  1.33994E+04 -2.79914E+04 -5.27135E+03 -1.44618E+04 -1.00766E+04
 -7.28073E+03 -1.14963E+04 -9.84540E+02 -1.65817E+04  6.66479E+03 -2.27527E+04  1.50028E+04 -1.40626E+04
  1.21464E+04  4.12317E+03 -6.61184E+03  1.26626E+04 -1.91588E+04 -2.76374E+03 -7.73216E+03 -3.05637E+04
  2.06769E+04 -4.06418E+04  4.50514E+04 -1.87434E+04  4.20644E+04  1.81722E+04  1.41990E+04  4.16386E+04
 -1.55602E+04  3.09696E+04 -2.34374E+04  1.13483E+03 -8.28016E+03 -2.63279E+04  2.02161E+04 -3.10482E+04
  3.83972E+04 -7.48760E+03  3.15822E+04  2.27084E+04  1.53695E+04  4.27280E+04 -7.82683E+03  4.52738E+04
 -2.82643E+04  2.99194E+04 -3.75180E+04  8.57262E+03 -3.85932E+04 -1.49752E+04 -2.11874E+04 -3.42525E+04
  6.70793E+03 -3.37723E+04  2.91521E+04 -1.27465E+04  2.67513E+04  1.09374E+04  3.18615E+03  1.79778E+04
 -1.32300E+04  6.96204E+03 -9.47206E+03 -7.67084E+03  6.22169E+03 -1.05126E+04  1.72770E+04  6.54212E+03
  1.22275E+04  2.12991E+04 -6.66757E+03  2.34524E+04 -2.16220E+04  8.92717E+03 -2.50471E+04 -6.32644E+03
 -1.64135E+04 -1.63831E+04 -5.53052E+03 -1.66624E+04  3.84785E+03 -1.45637E+04  1.24573E+04 -1.44999E+04
  2.12213E+04 -1.16928E+04  2.80806E+04  1.07733E+03  2.11374E+04  1.62577E+04  3.90827E+03  3.23296E+04
 -1.60037E+04  2.75775E+04 -2.59268E+04  9.39037E+03 -1.95741E+04 -1.03559E+04 -3.95813E+03 -1.38141E+04
  2.81415E+03 -4.29612E+03 -2.70806E+03  5.45396E+03 -1.27722E+04  5.03299E+03 -1.34061E+04 -4.78181E+03
 -8.72447E+03 -1.51148E+04  4.44523E+03 -1.89979E+04  1.25206E+04 -1.38204E+04  1.44180E+04 -1.16392E+03
  8.63840E+03  1.04021E+04 -5.54892E+02  1.55117E+04 -9.94654E+03  8.66178E+03 -1.51937E+04 -3.46916E+03
 -1.13704E+04 -1.40550E+04 -1.53346E+03 -1.88455E+04  8.55647E+03 -1.52420E+04  1.58599E+04 -7.14400E+03
  1.40751E+04  6.63452E+02  1.03610E+04  3.83852E+03  4.92647E+03  4.57179E+02  7.45327E+03 -1.18514E+03
  1.36289E+04  2.83661E+03  1.43575E+04  1.26008E+04  9.03163E+03  2.43413E+04 -3.02467E+03  2.58730E+04
 -1.52415E+04  1.98155E+04 -2.35764E+04  9.49060E+03 -2.42718E+04 -1.97454E+03 -2.09401E+04 -1.37374E+04
 -1.00517E+04 -1.97407E+04  6.79003E+03 -1.85868E+04  1.59522E+04 -1.06319E+04  1.53505E+04  3.49297E+03
  5.99088E+03  1.07341E+04 -6.98583E+03  1.00259E+04 -1.31119E+04  2.57200E+03 -9.89598E+03 -7.64759E+03
 -1.39626E+02 -1.16772E+04  5.82456E+03 -9.32231E+03  7.55147E+03 -1.05248E+03  1.36793E+03  4.87915E+03
 -5.55015E+03  1.10666E+03 -3.53281E+03 -4.26243E+03  6.85233E+02 -9.95746E+03  7.55626E+03 -9.31556E+03
  1.18450E+04 -4.50376E+03  1.14609E+04  3.04307E+03  9.82456E+03  9.13486E+03  4.70814E+03  1.28798E+04
 -1.55558E+03  1.49876E+04 -8.82775E+03  9.79237E+03 -1.07172E+04  2.92144E+03 -8.09765E+03 -1.94044E+03
 -4.50217E+03 -2.91160E+03 -8.72230E+02  1.47096E+03 -1.87950E+03  1.86451E+03 -3.60451E+03  3.45444E+03
 -7.63144E+03 -5.00596E+02 -8.39387E+03 -7.04656E+03 -3.34035E+03 -1.12506E+04  3.60857E+03 -7.98818E+03
  6.95673E+03 -3.58981E+03  5.20563E+03  1.85226E+03  6.57612E+02  2.93861E+03 -3.12449E+03  5.75761E+01
 -3.17989E+03 -4.81532E+03 -7.04202E+02 -6.65065E+03  3.84252E+03 -7.47239E+03  9.31569E+03 -3.59081E+03
  1.10553E+04  4.82083E+02  8.11533E+03  5.61816E+03  1.76081E+03  8.30344E+03 -5.06472E+03  7.68739E+03
 -6.52745E+03  2.88899E+03 -3.39687E+03 -1.01823E+03  9.27624E+02 -1.96695E+03  4.46234E+03 -9.64860E+02
  3.76273E+03  3.00100E+03  1.03134E+03  6.02396E+03 -4.09175E+03  6.02470E+03 -7.24997E+03  1.91768E+03
 -4.70486E+03 -3.58381E+03  3.15277E+02 -6.43539E+03  3.30280E+03 -3.04515E+03  3.00387E+03  7.43915E+02
  1.84444E+02  2.69988E+03 -3.67704E+03  4.22472E+03 -4.32516E+03  2.32033E+03 -3.76185E+03 -8.77318E+02
 -2.82305E+03 -5.40197E+03  1.07156E+03 -6.55454E+03  5.24947E+03 -3.91583E+03  5.92277E+03  7.33911E+02
  4.15524E+03  5.07552E+03  4.81830E+02  6.57378E+03 -4.60198E+03  3.96236E+03 -4.84433E+03 -4.83697E+02
 -5.36665E+03 -4.68965E+03 -1.00036E+03 -4.42904E+03  2.33304E+03 -4.45352E+03  2.56302E+03 -2.83556E+03
  2.99946E+03  2.81419E+02  1.72299E+02  1.22739E+03  5.57209E+02 -8.54242E+00  2.72803E+01 -1.45814E+03
  3.22459E+03 -4.67419E+02  4.65402E+03  6.25276E+02  4.64772E+03  2.44252E+03  4.81541E+03  6.13490E+03
 -1.01524E+03  7.33656E+03 -6.99471E+03  5.62538E+03 -8.83367E+03  1.19896E+03 -6.81852E+03 -2.17723E+03
 -3.74921E+03 -5.89496E+03 -2.88569E+02 -4.57757E+03  1.92795E+03 -1.75187E+03  1.48051E+03 -1.90099E+03
  1.41547E+03 -1.23217E+03  2.28010E+03 -2.24413E+03  3.48268E+03 -1.09575E+03  3.14561E+03  3.21567E+02
  4.01264E+03  1.18872E+03  8.03151E+02  3.00055E+03 -1.74504E+03  2.42349E+03 -4.01248E+03  2.42888E+03
 -4.00376E+03 -9.37791E+02 -1.47221E+03 -2.81918E+03  7.42714E+02 -4.12890E+03  3.07424E+03 -4.77809E+03
  4.19086E+03 -3.00065E+03  5.59246E+03  5.90603E+01  4.32040E+03  3.54867E+03  1.23043E+03  5.29748E+03
 -1.56620E+03  5.21316E+03 -2.56787E+03  1.54278E+03 -1.47172E+03 -9.94479E+02 -4.59620E+02 -5.82576E+02
 -1.20239E+02  4.16614E+02 -7.78084E+02  2.27160E+03 -2.41267E+03  1.04788E+03 -3.82825E+03 -3.85083E+02
 -1.39666E+03 -3.49507E+03  1.07761E+03 -3.92480E+03  2.28601E+03 -3.81855E+03  2.77907E+03 -1.02087E+03
  3.36507E+03  2.04609E+03  1.48871E+03  2.72657E+03 -5.41147E+02  3.77301E+03 -2.24115E+03  1.96644E+03
 -3.09760E+03  6.57959E+02 -2.54515E+03 -2.01988E+03 -2.06073E+02 -2.49716E+03  1.10404E+03 -1.83713E+03
  2.49810E+03 -1.23370E+03  1.46487E+03  1.53880E+02  1.41628E+02  1.52964E+03  8.60410E+02  4.02208E+02
  1.62667E+03  6.57461E+02  7.59539E+02  8.07947E+02  7.43129E+02  1.90402E+03  1.28905E+03  1.13788E+03
 -9.85871E+02  2.41138E+03 -1.96967E+03  3.71635E+03 -2.31591E+03  1.24059E+03 -3.71275E+03  1.03973E+01
 -1.35077E+03 -2.95078E+03  7.53968E+02 -3.88722E+03  1.43099E+03 -1.95325E+03  2.46692E+03 -7.11665E+02
  1.89520E+03  1.58938E+03  4.02039E+02  1.87263E+03 -4.45928E+02  7.91972E+02 -3.77032E+02  2.55882E+01
 -4.49493E+02 -1.18650E+03  1.06973E+03 -1.16396E+03  1.10942E+03 -6.25254E+02  8.89592E+02  4.56295E+02
  4.31594E+02  1.25358E+02  7.55497E+02 -4.17023E+02 -3.45328E+02  5.87175E+02  1.76674E+03 -1.57600E+02
 -2.90530E+02 -2.10404E+02  1.50759E+03  6.79663E+02  2.15052E+02  1.78026E+03 -2.30772E+02  2.17171E+03
 -1.25845E+03  5.92447E+02 -1.61567E+03  2.56386E+02 -1.72802E+03 -2.84572E+02  1.80775E+02 -4.59434E+02
  4.51731E+02 -8.08373E+02  7.17972E+02 -5.17458E+02  2.64963E+02  1.11110E+03 -6.69716E+02  7.97429E+02
 -1.20925E+03  5.64258E+02 -7.36485E+02 -1.11809E+03 -3.35090E+02 -1.81066E+03  4.90107E+01 -9.36337E+02
  3.55457E+02 -1.08339E+02  1.89977E+02  2.21980E+02  1.22257E+03 -4.30580E+00  3.78650E+02  1.18998E+03
 -1.41576E+02 -2.08208E+01 -5.95982E+02  3.16286E+02  5.72597E+02 -5.29026E+02  1.31380E+03 -4.73357E+02
  6.65777E+02  1.71006E+02  2.35500E+03  1.02648E+02  9.86951E+02  9.95449E+02 -2.47935E+01  1.15218E+03
 -9.03743E+02  6.77984E+01 -9.82745E+02  1.64348E+02 -3.99270E+02 -9.35919E+02  2.61263E+02 -2.98234E+02
  1.23609E+03 -3.78131E+02  7.55168E+02  5.47815E+02  1.33153E+02  1.24960E+03  8.83522E+01  7.54659E+02
 -2.77988E+02  1.24671E+03 -1.81858E+02 -2.01673E+01 -3.72308E+01  3.66308E+02 -5.69176E+02  4.28174E+02
 -5.47645E+02  9.24592E+02 -1.61089E+03  4.20743E+02 -1.01733E+03 -2.61712E+01 -1.92470E+03 -9.81562E+02
 -5.51314E+02 -1.51116E+03  2.74736E+02 -1.74544E+03  6.18952E+02 -1.75657E+03  2.11403E+03 -7.40881E+02
  1.87567E+03 -3.07071E+02  8.01593E+02  1.15860E+03 -6.25005E+02  1.02574E+03 -4.01448E+02  8.12151E+02
 -8.62481E+02  5.57856E+02 -5.22507E+02 -3.72009E+02 -2.64872E+02  4.04685E+02 -7.73251E+02  1.51351E+02
 -1.17426E+03 -1.32734E+02 -7.61461E+02 -5.47040E+01  4.81583E+02 -2.11736E+02 -3.94641E+02 -9.28786E+02
  1.15723E+03 -3.34623E+02 -5.07297E+01  3.40123E+02  6.77314E+02  7.46387E+02 -4.99619E+02  8.37368E+02
 -8.11196E+02  1.78126E+03 -1.08476E+03  1.19049E+03 -1.26147E+03 -1.00205E+02 -6.32769E+02 -9.83139E+02
 -8.38716E+02 -7.26191E+02  1.49347E+02 -5.63300E+02 -3.90345E+01 -3.05233E+02  3.36525E+02  1.45721E+02
  1.92315E+02  5.88063E+01  4.10271E+02  1.67465E+02 -2.52755E+02 -4.63169E+01 -1.05797E+02 -1.96164E+02
  1.39384E+02  4.88802E+02  1.70327E+02  3.09889E+02 -2.17806E+02  2.71284E+02  4.50130E+02 -2.22980E+02
 -4.80927E+02  5.77845E+02 -2.13284E+02 -1.38366E+02 -4.77131E+02 -2.55461E+02  1.49012E+02 -8.73134E+02
  1.60076E+02 -3.53843E+02  2.62829E+02  1.99972E+02  6.67343E+02 -7.62222E+02  9.33742E+01  7.95430E+02
  2.62054E+02 -8.50072E+00 -2.69315E+02  1.19225E+02 -4.77970E+02  2.33885E+02 -4.42320E+02 -4.96395E+00
 -2.64850E+02 -2.03120E+02 -6.11472E+02 -3.00961E+01 -5.43076E+02  2.14237E+02 -4.92427E+02 -1.91735E+02
 -7.07326E+02  5.88882E+02 -3.00304E+02 -7.54090E+02  4.38114E+02 -1.10215E+03  7.08666E+02 -1.42758E+02
  5.56008E+02  6.43582E+01 -6.39457E+02  6.55036E+01 -1.25838E+02  4.05438E+02 -6.26624E+00  4.01770E+02
