 $NMID ID='MM_0lb_SNR800_12hz_g40_7.RAW', FMTDAT='(8E13.5)'
 TRAMP=1., VOLUME=1. $END
  3.09879E+05  3.33273E+02  3.37646E+05  2.50446E+05  8.45366E+04  3.38177E+05 -1.32802E+05  2.51016E+05
 -1.90567E+05  8.31855E+04 -1.11872E+05 -3.27205E+04  7.42846E+02 -5.03261E+04  5.36407E+04 -3.99520E+01
  3.52856E+04  5.25836E+04 -1.70411E+04  7.56759E+04 -6.05529E+04  6.39042E+04 -8.40945E+04  3.17517E+04
 -8.11402E+04 -1.14611E+04 -5.77389E+04 -5.11954E+04 -1.54359E+04 -7.01693E+04  2.75116E+04 -4.60740E+04
  3.98941E+04  3.89017E+03  1.62412E+04  4.80445E+04 -3.45612E+04  4.75015E+04 -6.66807E+04 -9.88128E+01
 -5.38363E+04 -5.65942E+04 -6.93478E+03 -7.75682E+04  3.40813E+04 -5.53366E+04  4.83350E+04 -1.76054E+04
  4.36204E+04  1.12726E+04  3.19142E+04  2.59742E+04  1.56762E+04  2.91315E+04 -5.54768E+03  2.75139E+04
 -2.20534E+04  1.20638E+04 -1.82224E+04 -4.88982E+03  5.89698E+03 -7.65395E+03  2.23795E+04  1.24703E+04
  7.16359E+03  3.57863E+04 -3.24653E+04  3.56634E+04 -6.35841E+04  2.10305E+03 -5.72976E+04 -4.33063E+04
 -1.28850E+04 -6.36977E+04  4.02396E+04 -4.56709E+04  5.86985E+04 -1.91150E+03  3.47019E+04  3.26345E+04
 -5.71446E+03  3.67128E+04 -2.99408E+04  1.65996E+04 -3.08919E+04 -4.30822E+03 -1.70567E+04 -1.10674E+04
 -8.57927E+03 -1.37113E+04 -3.42927E+02 -1.81746E+04  7.83487E+03 -2.30624E+04  1.55250E+04 -1.33173E+04
  1.11739E+04  5.42474E+03 -8.63739E+03  1.28217E+04 -2.15948E+04 -4.59578E+03 -8.22369E+03 -3.43802E+04
  2.35327E+04 -4.39904E+04  4.87940E+04 -1.98929E+04  4.57735E+04  2.01092E+04  1.59160E+04  4.47117E+04
 -1.62445E+04  3.38494E+04 -2.56020E+04  2.27060E+03 -9.93847E+03 -2.81640E+04  2.12471E+04 -3.43211E+04
  4.16066E+04 -9.36196E+03  3.65288E+04  2.37528E+04  1.91131E+04  4.70661E+04 -8.11321E+03  5.13357E+04
 -3.22911E+04  3.45097E+04 -4.30150E+04  9.80513E+03 -4.38681E+04 -1.72864E+04 -2.40853E+04 -3.87774E+04
  7.35445E+03 -3.87315E+04  3.19362E+04 -1.54295E+04  2.97446E+04  1.10604E+04  4.19463E+03  1.96901E+04
 -1.36395E+04  8.68380E+03 -1.05374E+04 -7.29497E+03  5.71990E+03 -1.09066E+04  1.81878E+04  5.94771E+03
  1.35558E+04  2.24528E+04 -5.87900E+03  2.54229E+04 -2.25164E+04  1.17652E+04 -2.86697E+04 -4.57094E+03
 -2.15740E+04 -1.80391E+04 -9.41562E+03 -2.14211E+04  3.69241E+03 -2.09883E+04  1.66654E+04 -1.92900E+04
  2.73098E+04 -1.29326E+04  3.34944E+04  3.55077E+03  2.45749E+04  2.07713E+04  4.12518E+03  3.73697E+04
 -1.80999E+04  3.10125E+04 -2.84847E+04  1.08556E+04 -2.08643E+04 -1.03151E+04 -4.55568E+03 -1.32371E+04
  1.68910E+03 -2.58809E+03 -5.22723E+03  6.94228E+03 -1.69351E+04  5.02500E+03 -1.69094E+04 -7.71586E+03
 -1.04797E+04 -1.96447E+04  5.28386E+03 -2.39827E+04  1.62847E+04 -1.70613E+04  1.91360E+04 -1.92007E+03
  1.16361E+04  1.39277E+04 -1.02103E+03  2.00518E+04 -1.36172E+04  1.13794E+04 -1.98278E+04 -4.11557E+03
 -1.48847E+04 -1.79284E+04 -1.89125E+03 -2.39193E+04  1.08257E+04 -1.99165E+04  1.99540E+04 -1.01866E+04
  1.86458E+04 -5.55886E+01  1.32605E+04  4.59990E+03  7.33506E+03  7.06490E+02  1.04163E+04 -1.89895E+03
  1.83803E+04  3.08720E+03  2.05014E+04  1.60081E+04  1.38283E+04  3.18310E+04 -2.88068E+03  3.63466E+04
 -2.09468E+04  2.96692E+04 -3.43121E+04  1.45776E+04 -3.58006E+04 -2.80748E+03 -2.95289E+04 -2.07649E+04
 -1.21372E+04 -2.96464E+04  1.03519E+04 -2.62391E+04  2.29318E+04 -1.35190E+04  2.06355E+04  5.76080E+03
  7.27051E+03  1.54548E+04 -9.27717E+03  1.32402E+04 -1.68086E+04  2.48754E+03 -1.27034E+04 -1.03605E+04
 -3.62641E+02 -1.60492E+04  8.34043E+03 -1.20061E+04  1.08421E+04 -1.10495E+03  2.54564E+03  7.19928E+03
 -7.35299E+03  2.82768E+03 -7.11842E+03 -5.85498E+03 -6.00477E+02 -1.43571E+04  1.00111E+04 -1.54421E+04
  1.83288E+04 -8.19379E+03  1.96788E+04  3.05068E+03  1.72733E+04  1.45941E+04  7.99731E+03  2.22996E+04
 -3.79759E+03  2.44253E+04 -1.51418E+04  1.51745E+04 -1.73791E+04  3.40981E+03 -1.19256E+04 -3.85009E+03
 -5.47250E+03 -5.47927E+03 -9.49352E+02  1.11743E+03 -2.65074E+03  3.13497E+03 -5.58704E+03  4.23839E+03
 -1.13326E+04 -6.72043E+02 -1.20213E+04 -9.78714E+03 -4.85873E+03 -1.57336E+04  5.21450E+03 -1.23037E+04
  1.00604E+04 -5.17748E+03  7.14182E+03  3.42921E+03 -1.72965E+02  4.86485E+03 -6.02726E+03  6.22532E+01
 -5.80445E+03 -8.16111E+03 -1.05268E+03 -1.16115E+04  6.60509E+03 -1.23253E+04  1.49516E+04 -6.74216E+03
  1.82448E+04  1.30204E+03  1.33684E+04  1.03669E+04  2.58173E+03  1.41582E+04 -7.57339E+03  1.23504E+04
 -1.01672E+04  3.64831E+03 -5.30144E+03 -2.17526E+03  1.81816E+03 -3.57112E+03  6.61795E+03 -9.70406E+02
  5.79156E+03  5.34027E+03  1.25139E+03  9.75582E+03 -6.89948E+03  9.44287E+03 -1.20484E+04  2.49109E+03
 -7.69636E+03 -6.19390E+03  9.79556E+01 -1.05144E+04  6.20872E+03 -5.00071E+03  6.78403E+03  1.99735E+03
  1.38172E+03  6.98737E+03 -6.45627E+03  7.96191E+03 -9.93917E+03  3.62335E+03 -9.60871E+03 -3.16597E+03
 -5.63330E+03 -1.12606E+04  2.59013E+03 -1.29187E+04  1.09626E+04 -7.84646E+03  1.19058E+04  1.86885E+03
  7.54752E+03  9.46897E+03 -1.60433E+02  1.19878E+04 -8.42827E+03  6.60811E+03 -9.16109E+03 -1.08011E+03
 -8.14795E+03 -8.04370E+03 -1.64122E+03 -8.57575E+03  4.84865E+03 -7.77709E+03  5.04266E+03 -3.16325E+03
  3.99993E+03  1.44252E+03 -5.02970E+02  1.61086E+03 -1.93196E+02 -1.68632E+03  1.53686E+03 -4.85890E+03
  7.78813E+03 -2.83067E+03  1.10551E+04  1.40251E+03  1.11195E+04  7.10992E+03  8.17214E+03  1.41212E+04
 -3.12875E+03  1.63334E+04 -1.38818E+04  1.26653E+04 -1.82281E+04  2.51915E+03 -1.47548E+04 -5.78652E+03
 -7.35111E+03 -1.18779E+04 -1.69830E+02 -9.94259E+03  3.69221E+03 -5.34555E+03  3.45454E+03 -3.79257E+03
  2.30577E+03 -2.15057E+03  2.86854E+03 -3.30843E+03  4.30256E+03 -2.53932E+03  5.80294E+03 -5.32200E+02
  7.92121E+03  1.72277E+03  3.62332E+03  6.26731E+03 -2.03988E+03  7.41353E+03 -7.98454E+03  5.44656E+03
 -9.83731E+03 -1.10407E+03 -5.90311E+03 -6.91678E+03 -3.37637E+02 -1.05641E+04  6.04818E+03 -1.04690E+04
  1.10326E+04 -6.43323E+03  1.34763E+04  1.31259E+03  9.56059E+03  9.51950E+03  1.69116E+03  1.22457E+04
 -4.74404E+03  1.01746E+04 -7.19897E+03  3.64214E+03 -4.47198E+03 -1.48512E+03 -2.20676E+03 -1.50969E+03
 -9.22160E+02  1.92505E+02 -1.55465E+03  2.13439E+03 -4.45436E+03  1.94836E+03 -7.24150E+03 -6.75638E+02
 -4.56805E+03 -7.01414E+03  5.98465E+02 -9.69618E+03  6.14485E+03 -9.08732E+03  9.27038E+03 -2.56175E+03
  9.59427E+03  4.60212E+03  4.16959E+03  8.22485E+03 -2.01206E+03  9.69996E+03 -6.63063E+03  6.25681E+03
 -8.97444E+03  7.82146E+02 -7.05298E+03 -5.82784E+03 -8.50728E+02 -7.86155E+03  4.25773E+03 -5.97062E+03
  6.30154E+03 -2.02729E+03  4.14403E+03  1.42310E+03  1.56838E+03  3.22340E+03  1.20091E+03  1.60138E+03
  2.39107E+03  8.33485E+02  2.30606E+03  1.37540E+03  2.66985E+03  3.78831E+03  2.72547E+03  4.94822E+03
 -2.47867E+03  7.19746E+03 -6.69308E+03  7.95762E+03 -9.32567E+03  2.43270E+03 -9.86538E+03 -3.46149E+03
 -4.62798E+03 -9.68584E+03  1.35506E+03 -1.06637E+04  5.57995E+03 -6.12976E+03  7.65040E+03 -1.62156E+03
  6.23501E+03  3.49574E+03  1.42066E+03  5.48494E+03 -2.32338E+03  3.45659E+03 -3.75148E+03 -6.86468E+02
 -1.84568E+03 -3.85352E+03  2.50657E+03 -4.05007E+03  4.00014E+03 -2.17185E+03  3.73173E+03  7.94416E+02
  2.15310E+03  1.64556E+03  1.48765E+03  1.26607E+03 -6.64279E+02  1.45059E+03  1.48934E+03 -2.85128E+02
  1.40964E+03 -6.31052E+02  4.14541E+03  1.51605E+03  2.03759E+03  5.28865E+03 -9.52434E+02  6.86245E+03
 -4.45630E+03  4.06952E+03 -5.90749E+03  9.38322E+02 -5.41824E+03 -1.93097E+03 -1.70505E+03 -3.86755E+03
  5.41093E+02 -3.52356E+03  2.38449E+03 -1.19670E+03  1.62502E+03  2.13843E+03 -9.63968E+02  3.03462E+03
 -3.88242E+03  1.47337E+03 -4.27642E+03 -2.30079E+03 -2.42015E+03 -4.83494E+03  9.23218E+02 -5.02330E+03
  2.76537E+03 -2.78309E+03  3.36533E+03 -3.29970E+02  3.09008E+03  9.96419E+02  4.80091E+02  2.61158E+03
 -1.43026E+03  7.26922E+02 -2.62261E+03 -1.27602E+03  1.37797E+03 -3.94967E+03  4.65269E+03 -3.06983E+03
  5.63620E+03  5.38197E+02  6.00532E+03  3.30273E+03  2.08290E+03  5.63374E+03 -1.94802E+03  5.57208E+03
 -4.73247E+03  2.19856E+03 -4.87485E+03 -6.09632E+02 -2.78868E+03 -3.91613E+03  8.32434E+02 -3.08296E+03
  3.44777E+03 -1.93641E+03  2.88673E+03  1.61286E+03  1.04573E+03  3.26935E+03 -7.70369E+01  3.11728E+03
 -1.44632E+03  2.24722E+03 -1.53969E+03  7.51096E+02 -5.32967E+02  6.23475E+02 -1.31805E+03  1.44051E+03
 -1.67769E+03  2.46083E+03 -4.33139E+03  1.97262E+03 -5.65997E+03  3.20094E+02 -6.73861E+03 -3.31971E+03
 -2.99645E+03 -7.52646E+03  1.52282E+03 -8.75889E+03  5.16247E+03 -6.44260E+03  8.06875E+03 -2.49559E+03
  7.78744E+03  1.16652E+03  4.25218E+03  4.96358E+03  2.32341E+02  5.81450E+03 -2.36589E+03  4.52781E+03
 -3.24826E+03  1.92611E+03 -1.98556E+03 -9.91740E+02 -6.58338E+02 -3.01268E+02 -6.39768E+02  2.13591E+02
 -1.39451E+03 -1.52487E+02 -1.65338E+03 -8.77965E+01 -2.12012E+02 -1.64933E+03 -2.91499E+02 -2.46199E+03
  2.72469E+03 -2.00324E+03  3.32011E+03  7.62974E+00  3.92722E+03  2.92552E+03  8.49016E+02  5.50561E+03
 -2.35483E+03  6.78268E+03 -6.06763E+03  3.89714E+03 -6.77717E+03 -7.75724E+02 -4.92712E+03 -4.50000E+03
 -2.47202E+03 -5.53589E+03  1.48508E+03 -5.09169E+03  3.32984E+03 -3.02302E+03  3.83434E+03  1.93750E+02
  2.13628E+03  1.45034E+03 -4.53107E+01  1.55096E+03 -6.81685E+02 -1.75423E+02  2.99165E+02 -1.18091E+03
  1.71177E+03 -7.47217E+02  1.98572E+03  6.53899E+02  1.27566E+03  2.38775E+03  2.27112E+02  2.82783E+03
 -2.33302E+03  2.60011E+03 -3.81735E+03  2.38644E+02 -3.38083E+03 -2.46936E+03 -4.08606E+02 -4.54431E+03
  2.46247E+03 -3.21960E+03  4.12130E+03 -7.11234E+02  4.12792E+03  3.50703E+02  2.42898E+03  3.12336E+03
  6.27151E+02  3.51029E+03 -1.35096E+03  2.79237E+03 -2.25102E+03  1.65792E+03 -2.00571E+03  4.07287E+02
 -5.38672E+02  7.66368E+01 -1.41590E+03  4.94643E+02 -1.92844E+03  4.31610E+02 -2.64507E+03 -4.73397E+02
 -2.95490E+03 -1.24184E+03 -9.84036E+02 -3.80207E+03  1.73357E+03 -4.20873E+03  3.10554E+03 -1.57250E+03
  3.44163E+03  2.00705E+02  1.62270E+03  2.56200E+03 -6.16476E+02  3.78997E+03 -2.41065E+03  2.19954E+03
