 $NMID ID='MM_0lb_SNR800_14hz_g55_23.RAW', FMTDAT='(8E13.5)'
 TRAMP=1., VOLUME=1. $END
  3.09864E+05  4.88280E+02  3.37908E+05  2.50812E+05  8.49197E+04  3.38031E+05 -1.32426E+05  2.51333E+05
 -1.90522E+05  8.31677E+04 -1.11918E+05 -3.24414E+04  8.70483E+02 -5.06168E+04  5.38719E+04 -4.21933E+01
  3.52734E+04  5.27385E+04 -1.68784E+04  7.56580E+04 -6.08808E+04  6.39589E+04 -8.43804E+04  3.22484E+04
 -8.11998E+04 -1.14873E+04 -5.71930E+04 -5.14670E+04 -1.52812E+04 -7.00005E+04  2.75514E+04 -4.59530E+04
  4.05381E+04  3.80278E+03  1.65196E+04  4.75158E+04 -3.46545E+04  4.73932E+04 -6.70065E+04 -3.11705E+01
 -5.37626E+04 -5.72025E+04 -6.57379E+03 -7.76024E+04  3.37423E+04 -5.52370E+04  4.83481E+04 -1.72161E+04
  4.35269E+04  1.11857E+04  3.20042E+04  2.52555E+04  1.57506E+04  2.96988E+04 -5.56472E+03  2.73120E+04
 -2.21616E+04  1.23073E+04 -1.82273E+04 -5.07278E+03  5.99282E+03 -7.58877E+03  2.25703E+04  1.25204E+04
  7.23950E+03  3.56289E+04 -3.24221E+04  3.59719E+04 -6.40531E+04  2.24215E+03 -5.75043E+04 -4.32734E+04
 -1.26666E+04 -6.35541E+04  4.03498E+04 -4.59066E+04  5.87199E+04 -2.44043E+03  3.48502E+04  3.30969E+04
 -6.08586E+03  3.67187E+04 -3.02609E+04  1.63041E+04 -3.11785E+04 -4.47436E+03 -1.70442E+04 -1.09113E+04
 -8.39556E+03 -1.36666E+04 -3.73233E+02 -1.85934E+04  7.83017E+03 -2.31957E+04  1.57523E+04 -1.31025E+04
  1.11458E+04  5.47920E+03 -8.68937E+03  1.27629E+04 -2.18937E+04 -4.64235E+03 -8.56900E+03 -3.44313E+04
  2.32997E+04 -4.44362E+04  4.87425E+04 -1.99919E+04  4.56223E+04  1.93926E+04  1.62018E+04  4.44926E+04
 -1.62819E+04  3.39600E+04 -2.57181E+04  1.94685E+03 -1.03045E+04 -2.82223E+04  2.11288E+04 -3.47481E+04
  4.18575E+04 -9.64471E+03  3.66944E+04  2.42962E+04  1.84800E+04  4.70985E+04 -7.66616E+03  5.12551E+04
 -3.26393E+04  3.47164E+04 -4.27662E+04  9.79427E+03 -4.35206E+04 -1.70253E+04 -2.36020E+04 -3.85431E+04
  7.52193E+03 -3.86169E+04  3.20192E+04 -1.52610E+04  2.97996E+04  1.09476E+04  3.88791E+03  1.93671E+04
 -1.37103E+04  8.78438E+03 -1.04994E+04 -7.49485E+03  5.78994E+03 -1.09045E+04  1.83082E+04  5.70021E+03
  1.36491E+04  2.18384E+04 -6.19805E+03  2.57820E+04 -2.24633E+04  1.19105E+04 -2.84983E+04 -4.53976E+03
 -2.15599E+04 -1.77636E+04 -9.03918E+03 -2.09004E+04  4.03325E+03 -2.06121E+04  1.62227E+04 -1.88027E+04
  2.71521E+04 -1.29990E+04  3.34813E+04  3.12959E+03  2.46095E+04  2.06843E+04  4.20552E+03  3.72578E+04
 -1.81422E+04  3.09351E+04 -2.81609E+04  1.04364E+04 -2.08108E+04 -1.06307E+04 -4.63888E+03 -1.31409E+04
  1.70136E+03 -2.93323E+03 -5.16146E+03  6.98094E+03 -1.69411E+04  5.35502E+03 -1.69577E+04 -7.33322E+03
 -1.03928E+04 -1.98463E+04  5.32201E+03 -2.36231E+04  1.55650E+04 -1.69346E+04  1.90384E+04 -1.73145E+03
  1.16486E+04  1.33776E+04 -1.14277E+03  1.93648E+04 -1.34483E+04  1.13084E+04 -1.99178E+04 -4.27771E+03
 -1.44961E+04 -1.73725E+04 -1.82621E+03 -2.37346E+04  1.06610E+04 -1.97875E+04  1.95801E+04 -9.60385E+03
  1.83999E+04  3.25812E+02  1.32787E+04  4.30529E+03  7.22957E+03  6.30673E+02  9.78177E+03 -1.61990E+03
  1.82889E+04  2.89365E+03  2.05052E+04  1.57565E+04  1.31830E+04  3.11242E+04 -2.96638E+03  3.55319E+04
 -2.05261E+04  2.87416E+04 -3.33721E+04  1.44190E+04 -3.47732E+04 -2.33616E+03 -2.87319E+04 -2.02969E+04
 -1.21630E+04 -2.87909E+04  9.94039E+03 -2.58631E+04  2.24609E+04 -1.34409E+04  1.97337E+04  5.57115E+03
  7.25746E+03  1.46711E+04 -9.37244E+03  1.26107E+04 -1.68437E+04  2.74060E+03 -1.25874E+04 -1.02573E+04
 -2.98546E+02 -1.56542E+04  8.29040E+03 -1.17957E+04  1.04846E+04 -1.40669E+03  2.57583E+03  6.57677E+03
 -7.17377E+03  3.15588E+03 -6.68584E+03 -5.77556E+03 -5.48347E+02 -1.39135E+04  9.67823E+03 -1.47798E+04
  1.72890E+04 -7.61995E+03  1.86148E+04  3.14200E+03  1.65145E+04  1.36519E+04  7.59069E+03  2.14299E+04
 -3.56589E+03  2.33429E+04 -1.44082E+04  1.43734E+04 -1.69262E+04  3.65607E+03 -1.16431E+04 -3.72673E+03
 -5.56406E+03 -5.05023E+03 -6.76385E+02  8.61862E+02 -1.97983E+03  2.82858E+03 -5.17093E+03  4.52949E+03
 -1.11778E+04 -5.76909E+02 -1.17018E+04 -9.34269E+03 -4.62069E+03 -1.54639E+04  4.97874E+03 -1.18993E+04
  1.00233E+04 -5.09621E+03  7.26586E+03  3.10740E+03  1.01270E+01  4.32778E+03 -5.39156E+03  1.07190E+00
 -5.22641E+03 -7.35030E+03 -8.80531E+02 -1.12589E+04  6.24137E+03 -1.16529E+04  1.48507E+04 -6.16515E+03
  1.71577E+04  1.59053E+03  1.28794E+04  9.86860E+03  2.56170E+03  1.34170E+04 -7.11356E+03  1.15935E+04
 -9.41101E+03  3.59579E+03 -4.96428E+03 -2.43090E+03  1.55905E+03 -2.84926E+03  6.66733E+03 -9.85720E+02
  5.62741E+03  4.75500E+03  1.32748E+03  9.21071E+03 -6.53451E+03  8.93047E+03 -1.14432E+04  2.06190E+03
 -7.61822E+03 -5.85477E+03  1.63671E+02 -9.72953E+03  5.71896E+03 -4.79277E+03  6.38162E+03  1.77512E+03
  1.33477E+03  6.19740E+03 -6.02925E+03  7.99814E+03 -8.74980E+03  3.09762E+03 -8.68270E+03 -2.79895E+03
 -4.94747E+03 -1.00961E+04  2.34459E+03 -1.23436E+04  9.89469E+03 -7.16864E+03  1.10635E+04  1.77263E+03
  7.16886E+03  8.55691E+03 -6.45031E+02  1.09944E+04 -7.92054E+03  6.42146E+03 -8.57853E+03 -6.54142E+02
 -7.95424E+03 -7.59033E+03 -1.74408E+03 -7.71045E+03  4.26651E+03 -6.85571E+03  5.03907E+03 -3.31857E+03
  4.10530E+03  1.05554E+03 -3.45325E+02  1.42791E+03 -1.43534E+02 -1.65803E+03  1.32710E+03 -4.23179E+03
  7.35304E+03 -2.45051E+03  9.99310E+03  1.07123E+03  9.97174E+03  6.58462E+03  7.31168E+03  1.29356E+04
 -3.00161E+03  1.47167E+04 -1.24573E+04  1.08114E+04 -1.64732E+04  2.23262E+03 -1.31245E+04 -5.32431E+03
 -6.75420E+03 -1.07656E+04 -2.80144E+02 -9.10087E+03  3.27288E+03 -4.58431E+03  3.26127E+03 -3.49155E+03
  2.67940E+03 -2.24351E+03  3.07045E+03 -3.25053E+03  4.49888E+03 -2.12122E+03  5.44701E+03 -3.97012E+02
  6.82084E+03  1.70170E+03  3.11024E+03  5.63977E+03 -1.72357E+03  6.38426E+03 -7.17366E+03  4.98997E+03
 -9.00602E+03 -1.08191E+03 -4.90304E+03 -5.88455E+03 -6.77336E+02 -9.42679E+03  5.38216E+03 -9.50032E+03
  9.64420E+03 -5.57297E+03  1.18356E+04  9.81469E+02  8.04337E+03  7.49189E+03  1.53229E+03  1.05218E+04
 -4.42449E+03  9.35747E+03 -6.08779E+03  3.23392E+03 -3.98549E+03 -1.44521E+03 -1.57107E+03 -1.04870E+03
 -1.05393E+03  3.38738E+02 -1.58478E+03  2.52531E+03 -3.85400E+03  1.42426E+03 -6.46281E+03 -5.99715E+02
 -3.55533E+03 -6.18141E+03  6.24449E+02 -8.36237E+03  5.08858E+03 -7.81833E+03  7.53051E+03 -2.10475E+03
  8.02820E+03  4.26413E+03  3.56051E+03  7.00744E+03 -1.71019E+03  8.59494E+03 -5.43802E+03  5.15207E+03
 -7.92068E+03  1.74355E+02 -6.04038E+03 -4.54409E+03 -5.19805E+02 -6.48101E+03  3.67465E+03 -5.17225E+03
  5.41322E+03 -2.24568E+03  3.42610E+03  1.28926E+03  1.00937E+03  2.94797E+03  1.33814E+03  1.01101E+03
  2.61035E+03  8.54012E+02  2.11100E+03  1.24495E+03  2.10844E+03  3.37406E+03  2.38618E+03  3.97648E+03
 -2.09264E+03  6.39754E+03 -5.11236E+03  6.76770E+03 -7.38150E+03  1.65738E+03 -8.57787E+03 -2.62615E+03
 -3.92943E+03 -8.07550E+03  1.21832E+03 -8.91746E+03  4.58468E+03 -5.43018E+03  6.12456E+03 -1.31787E+03
  5.09568E+03  3.14680E+03  1.20494E+03  4.70077E+03 -2.13234E+03  2.77835E+03 -3.02355E+03 -1.92705E+02
 -1.61578E+03 -3.27136E+03  2.13795E+03 -3.21310E+03  3.14063E+03 -1.92035E+03  2.82900E+03  7.68941E+02
  1.44723E+03  1.28048E+03  9.92776E+02  8.99541E+02 -5.56855E+02  1.27010E+03  1.63392E+03 -3.80874E+02
  8.08263E+02 -7.34962E+02  3.25904E+03  1.53770E+03  9.62759E+02  4.39731E+03 -7.83468E+02  5.45467E+03
 -3.26058E+03  3.15680E+03 -5.04616E+03  8.40657E+02 -4.32390E+03 -1.85652E+03 -1.48724E+03 -2.71868E+03
  2.60313E+02 -2.90484E+03  2.04226E+03 -1.45549E+03  1.80129E+03  1.87543E+03 -8.75374E+02  2.31641E+03
 -3.35681E+03  1.48575E+03 -3.35649E+03 -1.93270E+03 -1.80127E+03 -4.30526E+03  7.73581E+02 -3.99895E+03
  2.15357E+03 -2.22011E+03  2.50818E+03 -1.55614E+01  2.58409E+03  5.95437E+02  2.67687E+02  2.45076E+03
 -1.39369E+03  4.43664E+02 -1.88445E+03 -1.21031E+03  1.02456E+03 -2.72352E+03  3.63994E+03 -2.58769E+03
  4.11869E+03  6.42136E+02  4.70328E+03  2.81291E+03  1.96706E+03  4.42246E+03 -1.22374E+03  4.41265E+03
 -3.68821E+03  1.71218E+03 -3.81675E+03 -4.47410E+02 -1.75097E+03 -2.76288E+03  1.00146E+03 -2.30076E+03
  2.94746E+03 -1.55756E+03  2.24960E+03  1.16884E+03  8.92243E+02  2.87907E+03 -1.43218E+02  2.25208E+03
 -1.07026E+03  1.75116E+03 -9.93847E+02  2.51428E+02 -6.31656E+02  6.14651E+02 -1.30577E+03  7.46690E+02
 -1.18755E+03  1.94985E+03 -3.15078E+03  1.32013E+03 -4.38126E+03  2.82892E+02 -5.15243E+03 -2.55060E+03
 -2.32938E+03 -5.44356E+03  1.05361E+03 -6.81639E+03  3.96801E+03 -5.58748E+03  6.41906E+03 -2.02953E+03
  6.08133E+03  9.29594E+02  3.19244E+03  3.75147E+03 -7.69649E+01  4.22428E+03 -1.82998E+03  3.24262E+03
 -2.37712E+03  1.60939E+03 -1.42560E+03 -5.42983E+02 -9.01208E+02  1.00369E+02 -7.25887E+02 -2.76967E+02
 -1.40066E+03 -1.27308E+02 -1.01943E+03  3.58170E+01  1.23104E+02 -1.06815E+03 -1.15003E+02 -1.96300E+03
  2.38669E+03 -1.05937E+03  2.08596E+03  9.20226E+01  2.86052E+03  2.10243E+03  3.72672E+02  3.81408E+03
 -2.09933E+03  4.90412E+03 -4.20765E+03  2.69800E+03 -4.68239E+03 -2.27133E+02 -3.48207E+03 -3.18697E+03
 -1.91333E+03 -3.89755E+03  1.02059E+03 -3.70457E+03  2.43646E+03 -1.71320E+03  2.37551E+03  2.35938E+02
  1.60196E+03  9.67664E+02  5.57801E+01  1.03261E+03 -8.78917E+02 -3.44852E+02 -3.62559E+01 -1.00953E+03
  1.38643E+03 -4.34391E+02  9.97955E+02  7.45055E+02  7.40902E+02  1.22523E+03  4.49406E+02  1.71961E+03
 -1.51121E+03  1.59280E+03 -2.18735E+03 -1.46725E+02 -2.12607E+03 -1.65631E+03 -3.86592E+02 -3.37859E+03
  1.65920E+03 -2.48915E+03  2.40309E+03 -4.59949E+02  3.01694E+03  1.31024E+02  1.78815E+03  2.13571E+03
  6.73430E+02  2.25218E+03 -8.25335E+02  1.46489E+03 -1.33671E+03  1.13745E+03 -1.47031E+03  2.72884E+02
 -6.19323E+02 -2.89133E+02 -9.05027E+02  3.77536E+02 -1.36243E+03  3.32331E+02 -2.16989E+03 -3.79322E+02
 -2.25979E+03 -8.79733E+02 -6.24506E+02 -2.23870E+03  1.00471E+03 -3.07545E+03  1.91539E+03 -1.39585E+03
  2.10077E+03  3.30511E+02  8.37262E+02  1.33085E+03 -2.38542E+02  2.33650E+03 -1.95267E+03  1.72052E+03
