 $NMID ID='MM_0lb_SNR800_10hz_g60_17.RAW', FMTDAT='(8E13.5)'
 TRAMP=1., VOLUME=1. $END
  3.09982E+05  5.77747E+02  3.38075E+05  2.50702E+05  8.47738E+04  3.38817E+05 -1.32680E+05  2.52063E+05
 -1.90791E+05  8.40709E+04 -1.12855E+05 -3.25976E+04  4.68233E+02 -5.11507E+04  5.36477E+04 -4.65945E+02
  3.54160E+04  5.29358E+04 -1.67371E+04  7.61869E+04 -6.15088E+04  6.42912E+04 -8.54200E+04  3.22517E+04
 -8.26255E+04 -1.16449E+04 -5.79109E+04 -5.26614E+04 -1.48811E+04 -7.09946E+04  2.82017E+04 -4.71147E+04
  4.10451E+04  3.67018E+03  1.68644E+04  4.86022E+04 -3.50239E+04  4.80527E+04 -6.84936E+04  4.61059E+01
 -5.51565E+04 -5.77928E+04 -7.76696E+03 -7.89545E+04  3.48554E+04 -5.71773E+04  4.97991E+04 -1.83023E+04
  4.52711E+04  1.15713E+04  3.27255E+04  2.66276E+04  1.58548E+04  3.02791E+04 -5.87335E+03  2.76773E+04
 -2.26552E+04  1.18245E+04 -1.78756E+04 -5.30364E+03  7.21466E+03 -7.12213E+03  2.37641E+04  1.41163E+04
  7.14551E+03  3.76952E+04 -3.38222E+04  3.75642E+04 -6.57093E+04  2.26642E+03 -5.87271E+04 -4.47025E+04
 -1.24776E+04 -6.61467E+04  4.16149E+04 -4.74862E+04  6.11635E+04 -2.50531E+03  3.67923E+04  3.48046E+04
 -5.36251E+03  3.96369E+04 -3.17087E+04  1.91555E+04 -3.36095E+04 -3.51242E+03 -1.98330E+04 -1.19604E+04
 -9.52798E+03 -1.53191E+04 -6.73945E+02 -1.94443E+04  8.52694E+03 -2.36746E+04  1.57122E+04 -1.23850E+04
  1.02761E+04  6.04219E+03 -1.07788E+04  1.31277E+04 -2.30456E+04 -6.72119E+03 -8.42283E+03 -3.69244E+04
  2.48723E+04 -4.69643E+04  5.20185E+04 -2.12142E+04  4.92618E+04  2.10439E+04  1.74250E+04  4.68756E+04
 -1.69779E+04  3.59089E+04 -2.77244E+04  2.40305E+03 -1.17353E+04 -2.95139E+04  2.16626E+04 -3.68113E+04
  4.47736E+04 -1.10836E+04  4.08351E+04  2.49647E+04  2.13873E+04  5.10952E+04 -8.49825E+03  5.59732E+04
 -3.58169E+04  3.85347E+04 -4.74518E+04  1.12841E+04 -4.82263E+04 -1.88163E+04 -2.62472E+04 -4.22085E+04
  8.11495E+03 -4.18862E+04  3.37519E+04 -1.72753E+04  3.20715E+04  1.12538E+04  5.47887E+03  2.10340E+04
 -1.40207E+04  9.99220E+03 -1.11470E+04 -7.19631E+03  5.89001E+03 -1.17087E+04  1.92781E+04  5.43460E+03
  1.47963E+04  2.25280E+04 -5.13460E+03  2.73413E+04 -2.36486E+04  1.43778E+04 -3.15105E+04 -2.99424E+03
 -2.52460E+04 -1.87205E+04 -1.17503E+04 -2.55261E+04  4.39733E+03 -2.56548E+04  2.02464E+04 -2.31922E+04
  3.23248E+04 -1.38746E+04  3.82514E+04  5.15842E+03  2.67160E+04  2.47154E+04  4.76330E+03  4.08982E+04
 -2.01164E+04  3.38558E+04 -3.07240E+04  1.24134E+04 -2.23638E+04 -1.01104E+04 -4.66304E+03 -1.29620E+04
  7.94192E+02 -1.29938E+03 -7.13016E+03  8.31393E+03 -2.05842E+04  5.19801E+03 -2.05244E+04 -9.82912E+03
 -1.18643E+04 -2.34728E+04  6.35827E+03 -2.77977E+04  1.90471E+04 -1.99779E+04  2.30705E+04 -1.57036E+03
  1.44672E+04  1.64333E+04 -1.40054E+03  2.33882E+04 -1.71344E+04  1.36626E+04 -2.37296E+04 -4.98238E+03
 -1.69815E+04 -2.11827E+04 -2.37738E+03 -2.78926E+04  1.25805E+04 -2.33724E+04  2.32391E+04 -1.21450E+04
  2.21291E+04 -4.09447E+02  1.58984E+04  5.05018E+03  8.96548E+03  1.34760E+03  1.23621E+04 -1.99973E+03
  2.18858E+04  2.62712E+03  2.58740E+04  1.87469E+04  1.71387E+04  3.77126E+04 -2.56977E+03  4.45408E+04
 -2.54086E+04  3.69473E+04 -4.18768E+04  1.91866E+04 -4.47762E+04 -3.42912E+03 -3.64866E+04 -2.64964E+04
 -1.47438E+04 -3.73597E+04  1.32776E+04 -3.27950E+04  2.77438E+04 -1.55519E+04  2.39575E+04  7.97823E+03
  8.20268E+03  1.87930E+04 -1.11474E+04  1.53876E+04 -2.00902E+04  2.63034E+03 -1.57388E+04 -1.30229E+04
 -4.09272E+02 -1.96814E+04  1.03703E+04 -1.42892E+04  1.32200E+04 -1.08765E+03  3.60407E+03  8.87093E+03
 -8.21329E+03  4.18634E+03 -9.02237E+03 -6.96841E+03 -2.18791E+03 -1.83706E+04  1.20433E+04 -2.00399E+04
  2.27595E+04 -1.14554E+04  2.63340E+04  3.54861E+03  2.32172E+04  1.82738E+04  1.07098E+04  2.90730E+04
 -5.64477E+03  3.10528E+04 -2.03654E+04  1.94115E+04 -2.28086E+04  3.85055E+03 -1.50740E+04 -5.91039E+03
 -6.26461E+03 -7.04147E+03 -5.45369E+02  2.93323E+02 -3.02331E+03  3.30681E+03 -7.31528E+03  5.20951E+03
 -1.42050E+04 -1.14795E+03 -1.49744E+04 -1.19387E+04 -6.25074E+03 -1.95217E+04  6.62253E+03 -1.53032E+04
  1.26491E+04 -6.38282E+03  8.93837E+03  4.00739E+03 -4.92185E+02  6.15874E+03 -7.59021E+03 -9.92739E+01
 -7.56240E+03 -9.76994E+03 -1.51858E+03 -1.53623E+04  8.91441E+03 -1.60956E+04  1.97225E+04 -8.91324E+03
  2.33636E+04  2.57586E+03  1.68903E+04  1.44658E+04  3.60639E+03  1.90124E+04 -9.88357E+03  1.55282E+04
 -1.29635E+04  4.19846E+03 -6.58439E+03 -3.63489E+03  2.49974E+03 -4.26795E+03  8.03668E+03 -1.15899E+03
  7.52516E+03  6.96162E+03  1.42999E+03  1.24419E+04 -8.88563E+03  1.22884E+04 -1.52856E+04  2.85980E+03
 -1.07057E+04 -7.68867E+03  1.45919E+02 -1.29731E+04  8.93522E+03 -7.04229E+03  9.65850E+03  3.21199E+03
  2.42188E+03  9.78710E+03 -8.20339E+03  1.10689E+04 -1.32578E+04  5.11507E+03 -1.35787E+04 -4.82084E+03
 -8.07090E+03 -1.56679E+04  4.03275E+03 -1.77888E+04  1.49538E+04 -1.09987E+04  1.67480E+04  3.32604E+03
  1.00523E+04  1.34186E+04 -1.77152E+03  1.58470E+04 -1.15620E+04  8.67393E+03 -1.25045E+04 -1.08425E+03
 -1.03574E+04 -1.02203E+04 -1.85697E+03 -1.20066E+04  6.23967E+03 -9.68756E+03  7.74666E+03 -3.96962E+03
  5.18602E+03  2.24425E+03 -1.24936E+03  1.73292E+03 -5.35771E+02 -3.57233E+03  2.52312E+03 -7.55400E+03
  1.13631E+04 -4.61880E+03  1.60572E+04  1.47172E+03  1.55299E+04  1.08708E+04  1.01386E+04  2.08319E+04
 -4.91803E+03  2.32418E+04 -1.98201E+04  1.72177E+04 -2.51907E+04  3.70195E+03 -2.02474E+04 -8.81866E+03
 -1.01808E+04 -1.68038E+04 -6.63515E+02 -1.47126E+04  5.30423E+03 -8.02818E+03  4.71097E+03 -5.28479E+03
  4.13128E+03 -3.16629E+03  4.00584E+03 -3.84755E+03  5.65130E+03 -3.54420E+03  7.99667E+03 -1.15957E+03
  1.07352E+04  2.37091E+03  5.62760E+03  8.91129E+03 -2.02069E+03  1.11697E+04 -1.10931E+04  8.48872E+03
 -1.41866E+04 -1.61964E+03 -9.17335E+03 -1.01297E+04 -1.49774E+03 -1.58258E+04  8.53785E+03 -1.59351E+04
  1.61209E+04 -8.56546E+03  1.92831E+04  2.69763E+03  1.31406E+04  1.35119E+04  2.00549E+03  1.71849E+04
 -7.27707E+03  1.43725E+04 -1.03387E+04  4.78648E+03 -7.00378E+03 -1.82134E+03 -3.17909E+03 -2.49494E+03
 -1.97986E+03  2.65827E+02 -2.23984E+03  3.24949E+03 -5.79766E+03  2.43321E+03 -9.56216E+03 -1.79219E+03
 -7.22863E+03 -9.86700E+03 -3.71507E+02 -1.40835E+04  9.10304E+03 -1.36739E+04  1.44630E+04 -3.99822E+03
  1.38887E+04  6.93592E+03  6.53249E+03  1.27499E+04 -2.92246E+03  1.42359E+04 -1.03517E+04  9.10331E+03
 -1.34035E+04  3.60842E+02 -1.04733E+04 -8.45655E+03 -1.20034E+03 -1.20978E+04  6.40949E+03 -8.69333E+03
  8.74466E+03 -3.04809E+03  6.08390E+03  2.15726E+03  2.43460E+03  4.19135E+03  1.57361E+03  1.70973E+03
  2.96948E+03  7.84159E+02  3.18840E+03  1.70433E+03  4.15596E+03  4.86885E+03  3.61847E+03  7.28784E+03
 -2.83153E+03  1.10775E+04 -9.78679E+03  1.15473E+04 -1.47779E+04  2.86855E+03 -1.50689E+04 -6.26413E+03
 -6.82008E+03 -1.40634E+04  2.16805E+03 -1.57776E+04  8.77241E+03 -9.76109E+03  1.21708E+04 -2.72687E+03
  9.18617E+03  5.54285E+03  2.13555E+03  8.23838E+03 -3.73860E+03  5.05278E+03 -5.97310E+03 -9.54559E+02
 -2.68227E+03 -6.31811E+03  3.69864E+03 -6.07008E+03  6.05484E+03 -3.08896E+03  5.64469E+03  1.12609E+03
  3.70393E+03  2.87077E+03  9.91797E+02  2.43063E+03 -1.03381E+03  1.87646E+03  1.35240E+03 -6.09376E+02
  2.15589E+03 -1.00407E+03  6.06324E+03  2.51697E+03  3.29384E+03  7.39340E+03 -1.44349E+03  1.02426E+04
 -6.79086E+03  6.85958E+03 -9.13184E+03  2.22125E+03 -7.62695E+03 -3.19202E+03 -3.08400E+03 -6.11730E+03
  7.49775E+02 -5.44850E+03  3.53199E+03 -2.94938E+03  3.01557E+03  2.82611E+03 -1.13810E+03  4.62084E+03
 -6.04975E+03  2.87356E+03 -6.51372E+03 -3.06691E+03 -3.81374E+03 -8.06022E+03  7.95785E+02 -8.24867E+03
  4.14415E+03 -4.79347E+03  5.52873E+03 -6.23333E+02  4.72829E+03  2.00476E+03  7.67150E+02  4.32651E+03
 -3.05445E+03  1.27002E+03 -3.45479E+03 -2.62033E+03  1.14193E+03 -5.82410E+03  7.00698E+03 -4.84902E+03
  8.82506E+03  9.80480E+02  8.55180E+03  5.85283E+03  2.46425E+03  9.71823E+03 -3.33141E+03  8.70441E+03
 -7.34624E+03  3.99295E+03 -7.57836E+03 -1.10728E+03 -4.35304E+03 -5.63816E+03  1.49796E+03 -5.69734E+03
  5.86428E+03 -2.59136E+03  4.10772E+03  2.29275E+03  1.61179E+03  4.99060E+03 -6.33045E+02  4.47390E+03
 -2.13110E+03  2.87815E+03 -2.64343E+03  8.29951E+02 -1.08603E+03  7.55391E+02 -1.24764E+03  1.95071E+03
 -2.38339E+03  3.38631E+03 -6.55571E+03  3.10681E+03 -9.29161E+03  9.67119E+01 -1.04424E+04 -6.10012E+03
 -5.41155E+03 -1.21632E+04  2.83463E+03 -1.43061E+04  8.91391E+03 -1.09059E+04  1.32858E+04 -4.30645E+03
  1.25510E+04  2.52864E+03  7.49293E+03  8.82093E+03  8.82397E+02  9.74502E+03 -3.79392E+03  6.67188E+03
 -5.32410E+03  2.66272E+03 -3.44621E+03 -7.13803E+02 -1.34944E+03 -8.00802E+02 -4.61035E+02  2.88748E+00
 -1.71362E+03  2.36048E+02 -2.19497E+03 -7.53194E+02 -6.96299E+02 -2.41075E+03  7.16996E+02 -3.59674E+03
  4.13571E+03 -2.84804E+03  5.67464E+03 -1.21767E+02  6.48186E+03  5.23566E+03  1.78314E+03  9.61438E+03
 -4.41834E+03  1.08578E+04 -1.02493E+04  6.44012E+03 -1.15644E+04 -8.53960E+02 -8.63050E+03 -7.31932E+03
 -3.64811E+03 -9.63132E+03  2.54512E+03 -8.44788E+03  6.26902E+03 -4.97137E+03  6.02233E+03  3.77479E+02
  3.47459E+03  3.12867E+03 -4.34432E+02  2.62314E+03 -2.11318E+03 -5.39551E+02 -5.33637E+01 -2.26052E+03
  2.93867E+03 -1.52701E+03  3.30792E+03  1.36305E+03  2.32477E+03  3.65055E+03  1.83506E+02  4.62258E+03
 -3.93126E+03  4.34149E+03 -6.22051E+03  4.51003E+02 -5.35766E+03 -4.13423E+03 -9.86721E+02 -7.82466E+03
  4.35351E+03 -6.56514E+03  7.26008E+03 -1.95066E+03  6.97948E+03  1.51321E+03  4.17710E+03  5.65350E+03
  6.90200E+02  6.22014E+03 -2.41744E+03  4.64549E+03 -3.77636E+03  2.76878E+03 -3.51629E+03  5.34446E+02
 -1.47049E+03 -4.30494E+01 -2.01120E+03  5.67522E+02 -3.37970E+03  1.07604E+03 -4.47821E+03 -9.23068E+02
 -4.41619E+03 -3.05660E+03 -1.29241E+03 -6.15321E+03  2.54586E+03 -7.07163E+03  5.05406E+03 -3.21735E+03
  6.19063E+03  9.89709E+02  3.36562E+03  4.75837E+03 -5.72150E+02  5.97180E+03 -5.03952E+03  3.75421E+03
