 $NMID ID='MM_0lb_SNR800_12hz_g40_23.RAW', FMTDAT='(8E13.5)'
 TRAMP=1., VOLUME=1. $END
  3.09851E+05  1.96744E+02  3.37427E+05  2.50547E+05  8.45180E+04  3.37754E+05 -1.32743E+05  2.51284E+05
 -1.90664E+05  8.29871E+04 -1.11870E+05 -3.25538E+04  8.29086E+02 -5.05018E+04  5.37193E+04 -3.24798E+02
  3.53976E+04  5.30075E+04 -1.68175E+04  7.54917E+04 -6.08062E+04  6.35200E+04 -8.46258E+04  3.20219E+04
 -8.11866E+04 -1.14120E+04 -5.75303E+04 -5.12677E+04 -1.49567E+04 -6.98851E+04  2.76554E+04 -4.58383E+04
  4.02082E+04  4.09140E+03  1.60254E+04  4.78864E+04 -3.38147E+04  4.70893E+04 -6.71485E+04 -3.38755E+02
 -5.38023E+04 -5.69714E+04 -6.78225E+03 -7.74802E+04  3.41144E+04 -5.51757E+04  4.78441E+04 -1.71696E+04
  4.34026E+04  1.13490E+04  3.21392E+04  2.57451E+04  1.58521E+04  2.97327E+04 -5.39060E+03  2.73962E+04
 -2.19614E+04  1.23237E+04 -1.83002E+04 -4.81224E+03  5.80999E+03 -7.54270E+03  2.24194E+04  1.27209E+04
  7.24036E+03  3.57665E+04 -3.25517E+04  3.59954E+04 -6.36671E+04  2.43837E+03 -5.73284E+04 -4.29891E+04
 -1.27671E+04 -6.38441E+04  4.02782E+04 -4.53534E+04  5.86909E+04 -2.19175E+03  3.47299E+04  3.25382E+04
 -6.24575E+03  3.65969E+04 -3.01029E+04  1.64004E+04 -3.08801E+04 -4.49254E+03 -1.67708E+04 -1.10201E+04
 -8.65006E+03 -1.32007E+04 -7.27162E+02 -1.82926E+04  7.95598E+03 -2.32518E+04  1.57051E+04 -1.33778E+04
  1.12923E+04  5.70480E+03 -8.65322E+03  1.29657E+04 -2.16931E+04 -4.36787E+03 -8.69546E+03 -3.46841E+04
  2.30956E+04 -4.39254E+04  4.90337E+04 -2.00952E+04  4.58072E+04  1.93823E+04  1.60697E+04  4.46527E+04
 -1.57395E+04  3.38959E+04 -2.58897E+04  1.62567E+03 -9.97279E+03 -2.82083E+04  2.12986E+04 -3.45885E+04
  4.17403E+04 -9.38005E+03  3.63472E+04  2.37533E+04  1.89711E+04  4.71994E+04 -8.12862E+03  5.12610E+04
 -3.24375E+04  3.46372E+04 -4.27296E+04  1.00325E+04 -4.35990E+04 -1.72033E+04 -2.41212E+04 -3.86721E+04
  7.18354E+03 -3.85047E+04  3.23305E+04 -1.52506E+04  2.96672E+04  1.11602E+04  4.18486E+03  1.93490E+04
 -1.35882E+04  8.87832E+03 -1.02053E+04 -7.45342E+03  5.97170E+03 -1.08249E+04  1.81025E+04  5.58316E+03
  1.38430E+04  2.19944E+04 -6.03392E+03  2.55629E+04 -2.19657E+04  1.18009E+04 -2.87721E+04 -4.69257E+03
 -2.14080E+04 -1.74703E+04 -8.89187E+03 -2.12222E+04  4.34038E+03 -2.06383E+04  1.63207E+04 -1.90899E+04
  2.71504E+04 -1.29580E+04  3.33605E+04  3.11905E+03  2.43051E+04  2.07725E+04  4.04782E+03  3.75224E+04
 -1.79338E+04  3.09874E+04 -2.83412E+04  1.08717E+04 -2.12954E+04 -9.85835E+03 -4.34129E+03 -1.32552E+04
  1.54441E+03 -2.61818E+03 -5.32352E+03  7.06152E+03 -1.70647E+04  5.29393E+03 -1.73088E+04 -7.49983E+03
 -1.07284E+04 -2.00069E+04  5.25629E+03 -2.39024E+04  1.59319E+04 -1.70303E+04  1.91786E+04 -1.45175E+03
  1.22240E+04  1.40205E+04 -1.15418E+03  1.99353E+04 -1.38331E+04  1.11230E+04 -1.98306E+04 -4.29672E+03
 -1.43591E+04 -1.76522E+04 -1.82280E+03 -2.42418E+04  1.07326E+04 -1.97926E+04  1.97836E+04 -1.01665E+04
  1.87373E+04  1.75890E+02  1.33713E+04  4.61615E+03  7.07578E+03  7.95479E+02  1.00966E+04 -1.88057E+03
  1.82069E+04  2.72084E+03  2.05209E+04  1.55861E+04  1.38436E+04  3.20447E+04 -3.16317E+03  3.65102E+04
 -2.08523E+04  2.96707E+04 -3.37543E+04  1.46324E+04 -3.54834E+04 -2.72699E+03 -2.92420E+04 -2.06636E+04
 -1.25619E+04 -2.97382E+04  1.00749E+04 -2.62809E+04  2.29937E+04 -1.33750E+04  1.99505E+04  5.75667E+03
  7.40260E+03  1.54504E+04 -9.46685E+03  1.28857E+04 -1.68910E+04  2.76275E+03 -1.28801E+04 -1.04839E+04
 -1.55132E+02 -1.63526E+04  8.47596E+03 -1.21677E+04  1.07286E+04 -1.53719E+03  2.28121E+03  7.00008E+03
 -7.16964E+03  2.68950E+03 -6.61373E+03 -6.13347E+03 -8.20729E+02 -1.46144E+04  9.91159E+03 -1.52904E+04
  1.81068E+04 -8.23399E+03  1.96843E+04  3.40345E+03  1.71716E+04  1.44743E+04  8.15886E+03  2.24569E+04
 -3.65072E+03  2.43872E+04 -1.59140E+04  1.50506E+04 -1.73942E+04  3.32222E+03 -1.25174E+04 -4.06558E+03
 -5.86247E+03 -4.97381E+03 -3.97890E+02  8.17328E+02 -2.59388E+03  2.75529E+03 -5.53372E+03  4.93443E+03
 -1.16390E+04 -7.89448E+02 -1.21711E+04 -9.71921E+03 -4.45903E+03 -1.61059E+04  4.84680E+03 -1.22264E+04
  1.06386E+04 -5.33254E+03  7.47268E+03  3.18771E+03 -5.58256E+00  4.93909E+03 -5.97417E+03 -2.64616E+02
 -5.87237E+03 -7.82645E+03 -7.53724E+02 -1.16760E+04  6.89121E+03 -1.23059E+04  1.58025E+04 -6.74856E+03
  1.80074E+04  1.48935E+03  1.31644E+04  1.06086E+04  2.31800E+03  1.42987E+04 -7.71064E+03  1.23832E+04
 -9.58972E+03  3.59904E+03 -5.46801E+03 -2.31415E+03  1.70692E+03 -3.13903E+03  6.34830E+03 -1.33234E+03
  6.09327E+03  5.19173E+03  1.21597E+03  9.69965E+03 -6.91920E+03  9.63950E+03 -1.18731E+04  2.59485E+03
 -7.93144E+03 -6.28894E+03  4.29656E+02 -1.03248E+04  6.66872E+03 -5.28374E+03  6.56606E+03  2.00936E+03
  1.67304E+03  7.05673E+03 -6.03866E+03  8.59603E+03 -9.24645E+03  4.11307E+03 -9.62937E+03 -3.03640E+03
 -5.56949E+03 -1.13897E+04  3.00668E+03 -1.30302E+04  1.13826E+04 -7.91057E+03  1.19359E+04  1.94120E+03
  7.42115E+03  9.79616E+03 -6.87595E+02  1.17525E+04 -8.65790E+03  6.78041E+03 -9.20259E+03 -1.34314E+03
 -8.63059E+03 -8.14048E+03 -1.44096E+03 -8.98373E+03  4.64422E+03 -7.13357E+03  5.55693E+03 -3.57389E+03
  3.88193E+03  1.14499E+03 -6.56093E+02  1.83187E+03 -1.52045E+02 -1.99087E+03  1.63597E+03 -4.94244E+03
  7.91639E+03 -2.89363E+03  1.10811E+04  9.33994E+02  1.06496E+04  7.21721E+03  7.71593E+03  1.46668E+04
 -3.16604E+03  1.65047E+04 -1.43250E+04  1.22086E+04 -1.84188E+04  1.93853E+03 -1.45951E+04 -5.85376E+03
 -7.31924E+03 -1.21696E+04 -1.16163E+02 -9.95797E+03  3.62809E+03 -5.81684E+03  3.37703E+03 -3.94620E+03
  2.47177E+03 -2.36311E+03  3.15701E+03 -3.05209E+03  4.63488E+03 -2.69929E+03  6.10735E+03 -3.31231E+02
  7.90524E+03  2.09604E+03  3.52435E+03  6.52109E+03 -2.08329E+03  7.55124E+03 -8.00921E+03  5.74559E+03
 -1.03049E+04 -1.18684E+03 -5.73619E+03 -7.19262E+03 -2.09770E+02 -1.06093E+04  6.08638E+03 -1.10835E+04
  1.06089E+04 -6.09277E+03  1.33914E+04  1.60743E+03  9.09257E+03  9.10866E+03  1.65425E+03  1.17278E+04
 -4.90970E+03  9.76438E+03 -6.89406E+03  3.64780E+03 -4.86539E+03 -1.28682E+03 -1.62725E+03 -1.39893E+03
 -1.41623E+03 -1.55495E+01 -1.64275E+03  2.75343E+03 -4.46714E+03  1.93958E+03 -7.25222E+03 -1.19542E+03
 -4.56856E+03 -7.15439E+03  5.29944E+02 -9.67168E+03  5.92000E+03 -8.87647E+03  9.29310E+03 -2.35966E+03
  9.36670E+03  5.06881E+03  4.51280E+03  8.33753E+03 -1.89029E+03  9.53259E+03 -6.75684E+03  5.96296E+03
 -8.55693E+03  5.17678E+02 -6.82282E+03 -5.75203E+03 -8.26830E+02 -7.96682E+03  3.99916E+03 -5.90222E+03
  5.82280E+03 -2.20065E+03  4.13412E+03  1.56393E+03  1.62388E+03  3.05441E+03  1.30862E+03  1.66507E+03
  2.31290E+03  1.26478E+03  2.51749E+03  1.84821E+03  2.76544E+03  3.62915E+03  2.73422E+03  4.69647E+03
 -1.98929E+03  7.46173E+03 -6.71528E+03  7.67699E+03 -9.60701E+03  2.12528E+03 -9.91038E+03 -3.62985E+03
 -4.87130E+03 -9.28680E+03  1.06425E+03 -1.04176E+04  5.49704E+03 -6.33362E+03  7.43866E+03 -1.77197E+03
  5.71072E+03  3.54234E+03  1.21549E+03  5.37443E+03 -2.26517E+03  4.04479E+03 -3.87745E+03 -5.38384E+02
 -1.86496E+03 -4.13617E+03  2.48636E+03 -4.08997E+03  3.60085E+03 -1.77561E+03  3.86243E+03  9.76506E+02
  2.36548E+03  1.51861E+03  9.87489E+02  1.14428E+03 -7.31908E+02  1.33480E+03  1.53425E+03 -4.72248E+02
  1.38523E+03 -4.36513E+02  3.76983E+03  1.40394E+03  2.00895E+03  5.50528E+03 -9.18986E+02  6.59338E+03
 -4.46731E+03  4.42342E+03 -5.67442E+03  7.82641E+02 -5.47255E+03 -1.97662E+03 -1.83155E+03 -3.43997E+03
  1.07627E+03 -3.75001E+03  2.47878E+03 -1.58169E+03  1.68047E+03  1.91675E+03 -1.25153E+03  2.93271E+03
 -3.63241E+03  2.03581E+03 -3.92969E+03 -1.93317E+03 -2.27647E+03 -5.39853E+03  7.12677E+02 -4.93280E+03
  2.96947E+03 -2.49114E+03  3.55644E+03 -3.97780E+02  2.89894E+03  1.06385E+03  5.21387E+02  2.73175E+03
 -1.35235E+03  8.86267E+02 -2.00581E+03 -1.50275E+03  1.17906E+03 -3.70095E+03  4.70038E+03 -2.78132E+03
  4.68996E+03  6.98645E+02  5.84708E+03  3.31546E+03  1.90707E+03  5.64312E+03 -1.92677E+03  5.46497E+03
 -4.72759E+03  2.26113E+03 -5.25037E+03 -7.68254E+02 -2.47162E+03 -3.70648E+03  9.10522E+02 -3.21191E+03
  3.62509E+03 -1.77042E+03  2.89529E+03  1.62911E+03  1.17971E+03  3.58462E+03 -2.32988E+02  2.97323E+03
 -1.50489E+03  2.37302E+03 -1.55737E+03  3.53699E+02 -5.34063E+02  6.41070E+02 -9.77171E+02  1.03382E+03
 -1.69573E+03  2.88134E+03 -4.35509E+03  2.00840E+03 -5.58876E+03  2.01539E+02 -6.33645E+03 -3.55397E+03
 -3.54489E+03 -7.80221E+03  1.30087E+03 -8.75530E+03  5.02105E+03 -6.85124E+03  8.37753E+03 -2.60004E+03
  7.66185E+03  1.15979E+03  4.54031E+03  5.22546E+03 -8.68744E+00  5.71804E+03 -2.47064E+03  4.16305E+03
 -3.27262E+03  1.74887E+03 -2.10762E+03 -5.73654E+02 -5.44803E+02 -5.82108E+02 -6.27454E+02  2.20860E+02
 -1.35010E+03 -1.33861E+02 -1.50777E+03 -9.95623E+01 -5.05805E+02 -1.28079E+03 -5.92560E+01 -2.32535E+03
  2.55649E+03 -1.80715E+03  3.04824E+03 -2.07144E+02  3.95858E+03  3.35649E+03  6.92338E+02  5.58983E+03
 -2.62975E+03  6.66674E+03 -5.80209E+03  3.92669E+03 -6.68158E+03 -7.66339E+02 -4.68646E+03 -4.30726E+03
 -2.24785E+03 -5.68901E+03  1.30140E+03 -4.98994E+03  3.44264E+03 -2.82163E+03  3.40650E+03  6.56354E+02
  2.17792E+03  1.66521E+03 -2.14176E+02  1.77236E+03 -1.03894E+03 -1.08942E+02  3.28337E+02 -1.51681E+03
  2.06356E+03 -6.83006E+02  2.12993E+03  9.15841E+02  1.53812E+03  2.27209E+03  2.73124E+02  2.77140E+03
 -2.40417E+03  2.56308E+03 -3.42582E+03  3.41367E+02 -2.75869E+03 -2.78787E+03 -2.37281E+02 -4.55626E+03
  2.78650E+03 -3.99545E+03  3.91507E+03 -1.34172E+03  4.04402E+03  6.48450E+02  2.27929E+03  3.24770E+03
  9.45368E+02  3.26714E+03 -1.30083E+03  3.26683E+03 -2.31381E+03  1.86003E+03 -1.96797E+03  2.67966E+02
 -8.85913E+02 -5.23106E+01 -1.27382E+03  3.36901E+02 -2.09023E+03  3.25260E+02 -2.21576E+03 -5.62225E+02
 -2.78268E+03 -1.37093E+03 -9.33519E+02 -3.76752E+03  1.63189E+03 -3.99924E+03  2.90086E+03 -1.62884E+03
  3.68033E+03  1.87370E+02  1.13441E+03  2.57956E+03 -4.95306E+02  3.62269E+03 -2.58993E+03  2.31725E+03
