 $NMID ID='MM_0lb_SNR800_13hz_g60_95.RAW', FMTDAT='(8E13.5)'
 TRAMP=1., VOLUME=1. $END
  3.09654E+05  4.21553E+02  3.37889E+05  2.50502E+05  8.47306E+04  3.38109E+05 -1.32831E+05  2.51549E+05
 -1.90441E+05  8.37047E+04 -1.12301E+05 -3.24781E+04  8.02254E+02 -5.02874E+04  5.37313E+04 -7.06932E+02
  3.52312E+04  5.29455E+04 -1.66519E+04  7.56580E+04 -6.13432E+04  6.43106E+04 -8.45737E+04  3.23197E+04
 -8.19427E+04 -1.17396E+04 -5.76388E+04 -5.20995E+04 -1.51016E+04 -7.02254E+04  2.79557E+04 -4.59334E+04
  4.05159E+04  3.71860E+03  1.64506E+04  4.82422E+04 -3.46623E+04  4.75693E+04 -6.74068E+04 -6.08158E+00
 -5.42522E+04 -5.73759E+04 -7.03579E+03 -7.85143E+04  3.45874E+04 -5.63852E+04  4.88904E+04 -1.80621E+04
  4.42537E+04  1.14045E+04  3.23757E+04  2.61765E+04  1.60213E+04  2.98872E+04 -5.49784E+03  2.77133E+04
 -2.24584E+04  1.21557E+04 -1.84435E+04 -5.34946E+03  6.31697E+03 -7.78661E+03  2.30806E+04  1.31152E+04
  7.32532E+03  3.63819E+04 -3.33719E+04  3.62867E+04 -6.46083E+04  2.58028E+03 -5.84110E+04 -4.35882E+04
 -1.24490E+04 -6.47411E+04  4.09601E+04 -4.66129E+04  5.98762E+04 -2.31333E+03  3.58113E+04  3.34281E+04
 -5.82081E+03  3.82662E+04 -3.09766E+04  1.74024E+04 -3.20956E+04 -3.87865E+03 -1.79447E+04 -1.14830E+04
 -9.14796E+03 -1.36470E+04 -5.82330E+02 -1.93969E+04  7.94328E+03 -2.33518E+04  1.57818E+04 -1.28435E+04
  1.08366E+04  5.96285E+03 -9.38136E+03  1.29086E+04 -2.23501E+04 -5.50538E+03 -8.28080E+03 -3.55647E+04
  2.40422E+04 -4.49574E+04  5.01760E+04 -2.02393E+04  4.69086E+04  1.98906E+04  1.63836E+04  4.56328E+04
 -1.63680E+04  3.49499E+04 -2.66559E+04  2.43275E+03 -1.07796E+04 -2.88471E+04  2.14389E+04 -3.54029E+04
  4.28041E+04 -1.00467E+04  3.83261E+04  2.41786E+04  1.98419E+04  4.87252E+04 -8.26720E+03  5.29483E+04
 -3.37718E+04  3.63520E+04 -4.50274E+04  1.01433E+04 -4.49414E+04 -1.72875E+04 -2.46097E+04 -4.02817E+04
  7.80025E+03 -3.98359E+04  3.26009E+04 -1.59124E+04  3.03624E+04  1.08265E+04  4.48967E+03  1.98185E+04
 -1.38449E+04  8.91500E+03 -1.10817E+04 -7.79603E+03  5.70291E+03 -1.09971E+04  1.85320E+04  5.59642E+03
  1.40676E+04  2.23439E+04 -5.67931E+03  2.58266E+04 -2.26178E+04  1.25398E+04 -2.97198E+04 -3.77958E+03
 -2.27385E+04 -1.82555E+04 -9.44347E+03 -2.29544E+04  4.16156E+03 -2.26051E+04  1.78598E+04 -2.05798E+04
  2.89537E+04 -1.31316E+04  3.53492E+04  3.59055E+03  2.54022E+04  2.20766E+04  4.41348E+03  3.89399E+04
 -1.86840E+04  3.21323E+04 -2.88485E+04  1.10948E+04 -2.18157E+04 -9.97549E+03 -4.80591E+03 -1.31347E+04
  1.25848E+03 -1.74198E+03 -6.18806E+03  7.39467E+03 -1.85306E+04  5.12053E+03 -1.78104E+04 -8.47196E+03
 -1.09688E+04 -2.11530E+04  5.66990E+03 -2.49973E+04  1.68467E+04 -1.78715E+04  2.01990E+04 -1.74376E+03
  1.32396E+04  1.46069E+04 -1.10480E+03  2.09312E+04 -1.48598E+04  1.22866E+04 -2.10391E+04 -4.42519E+03
 -1.53593E+04 -1.88747E+04 -1.87102E+03 -2.52556E+04  1.12629E+04 -2.08436E+04  2.07902E+04 -1.03067E+04
  1.89412E+04  7.62450E+01  1.44743E+04  4.55019E+03  7.78971E+03  1.53638E+03  1.06984E+04 -1.92337E+03
  1.93146E+04  3.10230E+03  2.18068E+04  1.67479E+04  1.44597E+04  3.36524E+04 -2.77130E+03  3.86928E+04
 -2.18864E+04  3.12988E+04 -3.62799E+04  1.59823E+04 -3.81071E+04 -2.98461E+03 -3.15259E+04 -2.23536E+04
 -1.29432E+04 -3.15935E+04  1.09400E+04 -2.82134E+04  2.40963E+04 -1.36499E+04  2.13858E+04  6.72440E+03
  7.68078E+03  1.64432E+04 -9.99461E+03  1.44448E+04 -1.79147E+04  2.64888E+03 -1.35787E+04 -1.14936E+04
 -2.18826E+02 -1.68169E+04  9.16080E+03 -1.26343E+04  1.16010E+04 -1.37487E+03  3.12125E+03  7.83546E+03
 -7.71920E+03  3.26666E+03 -7.31297E+03 -6.52825E+03 -9.66819E+02 -1.54337E+04  1.01683E+04 -1.61716E+04
  1.94374E+04 -8.95360E+03  2.09515E+04  2.96026E+03  1.84617E+04  1.54907E+04  8.72557E+03  2.39671E+04
 -3.99445E+03  2.58124E+04 -1.66430E+04  1.62462E+04 -1.86070E+04  3.61016E+03 -1.32646E+04 -4.48466E+03
 -5.67485E+03 -5.87671E+03 -5.24797E+02  8.89180E+02 -2.89125E+03  2.88182E+03 -6.11421E+03  4.69920E+03
 -1.22943E+04 -7.75585E+02 -1.21256E+04 -1.00112E+04 -5.07616E+03 -1.63400E+04  5.73914E+03 -1.28029E+04
  1.10817E+04 -5.62888E+03  7.85052E+03  3.38088E+03  2.23067E+02  4.99829E+03 -5.88159E+03 -4.89902E+02
 -5.84321E+03 -8.03862E+03 -8.87995E+02 -1.23836E+04  6.95014E+03 -1.31660E+04  1.60500E+04 -7.06504E+03
  1.87615E+04  2.02168E+03  1.43504E+04  1.10857E+04  2.90277E+03  1.50628E+04 -8.17485E+03  1.25710E+04
 -1.06557E+04  3.72107E+03 -5.36261E+03 -2.83110E+03  1.97191E+03 -3.69826E+03  7.14861E+03 -9.70954E+02
  5.80123E+03  5.54465E+03  1.23859E+03  1.01872E+04 -7.29879E+03  9.74317E+03 -1.24456E+04  2.09637E+03
 -8.82996E+03 -6.42807E+03 -3.15673E+02 -1.07465E+04  6.66286E+03 -5.39403E+03  6.91131E+03  2.53115E+03
  1.57420E+03  7.63286E+03 -6.53178E+03  8.95694E+03 -9.96630E+03  4.05310E+03 -1.02712E+04 -3.54001E+03
 -6.13964E+03 -1.15863E+04  3.10440E+03 -1.37171E+04  1.15138E+04 -8.45848E+03  1.26176E+04  2.02501E+03
  7.55123E+03  1.02741E+04 -1.10454E+03  1.26646E+04 -9.00321E+03  6.61419E+03 -9.60606E+03 -7.37448E+02
 -9.05276E+03 -8.20001E+03 -1.43389E+03 -8.99819E+03  4.83237E+03 -7.50072E+03  5.65447E+03 -3.17699E+03
  4.25284E+03  1.32063E+03 -2.37812E+02  1.72887E+03 -3.73854E+02 -2.27654E+03  1.35077E+03 -5.10425E+03
  8.36410E+03 -3.22784E+03  1.15540E+04  1.36372E+03  1.17368E+04  7.47246E+03  8.13846E+03  1.53425E+04
 -3.42082E+03  1.73796E+04 -1.46201E+04  1.29569E+04 -1.89250E+04  2.59376E+03 -1.52052E+04 -6.60266E+03
 -7.74235E+03 -1.26238E+04 -4.13375E+02 -1.03466E+04  3.80787E+03 -5.86371E+03  3.86161E+03 -3.65842E+03
  2.42936E+03 -2.49404E+03  3.21133E+03 -3.03662E+03  4.82442E+03 -2.59602E+03  6.18091E+03 -7.12081E+02
  7.80649E+03  2.03928E+03  3.71622E+03  6.70913E+03 -1.83004E+03  7.77826E+03 -8.31243E+03  5.92296E+03
 -1.03376E+04 -9.03412E+02 -6.02445E+03 -7.29391E+03 -7.13212E+02 -1.09023E+04  6.37154E+03 -1.12271E+04
  1.15194E+04 -5.95057E+03  1.36862E+04  1.24951E+03  9.35928E+03  9.53104E+03  1.52456E+03  1.26378E+04
 -5.05101E+03  1.05573E+04 -7.39191E+03  3.62571E+03 -4.58028E+03 -1.38084E+03 -1.97752E+03 -1.60451E+03
 -1.13915E+03 -4.31124E+01 -2.00508E+03  2.46957E+03 -4.10709E+03  1.97443E+03 -7.28772E+03 -9.90069E+02
 -4.46615E+03 -7.28839E+03  2.51442E+02 -1.02094E+04  6.06585E+03 -9.23536E+03  9.73958E+03 -2.90367E+03
  9.64954E+03  4.90949E+03  4.33738E+03  8.45257E+03 -1.85474E+03  9.92279E+03 -7.02071E+03  6.33316E+03
 -9.08596E+03  5.47747E+02 -7.25209E+03 -5.74258E+03 -8.16269E+02 -8.27124E+03  4.16866E+03 -5.82711E+03
  6.05538E+03 -2.58242E+03  4.41591E+03  1.43887E+03  1.32865E+03  3.37688E+03  9.01700E+02  1.32321E+03
  2.38255E+03  1.04467E+03  2.38860E+03  1.61860E+03  3.00045E+03  3.68742E+03  2.58950E+03  4.92847E+03
 -2.02109E+03  7.74441E+03 -6.39648E+03  8.28717E+03 -9.43702E+03  2.03195E+03 -1.02041E+04 -3.67975E+03
 -4.54829E+03 -9.73591E+03  1.57267E+03 -1.09128E+04  5.49439E+03 -6.40062E+03  7.60302E+03 -2.14912E+03
  5.93363E+03  3.69297E+03  1.35812E+03  5.80172E+03 -2.45623E+03  3.75940E+03 -3.63668E+03 -2.76457E+02
 -1.79060E+03 -4.20190E+03  2.16567E+03 -4.43167E+03  3.83296E+03 -2.01485E+03  3.75158E+03  9.18670E+02
  2.20322E+03  1.64212E+03  1.10681E+03  1.15514E+03 -3.09908E+02  1.64145E+03  1.60700E+03 -6.17907E+02
  1.23485E+03 -3.76623E+02  4.17591E+03  1.52468E+03  1.70098E+03  4.95539E+03 -8.31637E+02  6.58623E+03
 -4.40077E+03  4.04528E+03 -5.78222E+03  1.03736E+03 -5.59825E+03 -1.91998E+03 -1.68813E+03 -3.27105E+03
  4.39257E+02 -3.85097E+03  2.45067E+03 -2.00692E+03  1.75680E+03  1.91815E+03 -9.29282E+02  3.00166E+03
 -3.47171E+03  1.94087E+03 -4.11340E+03 -2.48859E+03 -2.09861E+03 -4.83115E+03  4.47875E+02 -4.97756E+03
  2.75802E+03 -2.64029E+03  3.01819E+03 -1.76867E+02  3.11870E+03  1.07041E+03  4.30345E+02  2.67539E+03
 -1.65412E+03  4.58333E+02 -2.28391E+03 -1.46095E+03  1.00256E+03 -3.41024E+03  4.19939E+03 -2.72935E+03
  5.03137E+03  1.23825E+02  5.67052E+03  3.00412E+03  1.90750E+03  5.57193E+03 -1.69039E+03  5.27530E+03
 -4.64131E+03  1.95850E+03 -4.60072E+03 -8.35127E+02 -2.40817E+03 -3.58371E+03  6.45250E+02 -2.93808E+03
  3.76584E+03 -1.66928E+03  2.74917E+03  1.50032E+03  7.33922E+02  3.29529E+03 -1.38439E+02  2.70767E+03
 -1.49951E+03  2.03256E+03 -1.38345E+03  5.97081E+02 -5.77059E+02  4.63147E+02 -1.01216E+03  1.13803E+03
 -1.25914E+03  2.39181E+03 -3.87440E+03  1.70037E+03 -5.28800E+03  1.45572E+02 -6.12820E+03 -3.69889E+03
 -3.08599E+03 -7.03685E+03  1.13391E+03 -8.43186E+03  4.79729E+03 -6.74012E+03  7.89356E+03 -2.78419E+03
  7.21484E+03  1.17523E+03  4.25695E+03  4.98261E+03 -3.15259E+02  5.11430E+03 -2.32029E+03  4.14110E+03
 -2.97624E+03  1.81433E+03 -2.34956E+03 -2.32372E+02 -1.12583E+03 -1.84155E+02 -5.80454E+02  1.21030E+02
 -1.35827E+03 -4.65637E+01 -1.62659E+03 -1.07498E+00 -8.78042E+01 -1.40223E+03 -2.28982E+02 -2.27573E+03
  2.48351E+03 -1.42093E+03  2.67759E+03  1.41004E+02  3.91700E+03  2.69990E+03  7.76256E+02  5.01088E+03
 -2.58227E+03  6.05287E+03 -5.76491E+03  3.70215E+03 -5.98215E+03 -3.75378E+02 -4.67501E+03 -4.14193E+03
 -2.09077E+03 -5.24873E+03  1.19693E+03 -4.67382E+03  2.85507E+03 -2.70115E+03  3.35567E+03 -5.39662E+01
  2.07490E+03  1.50841E+03 -7.47056E+01  1.67383E+03 -1.03583E+03 -2.73873E+02  2.22664E+02 -1.08340E+03
  1.78863E+03 -6.02915E+02  1.97447E+03  4.75928E+02  1.17435E+03  2.02705E+03  3.80947E+02  2.45063E+03
 -2.00533E+03  2.36421E+03 -2.94612E+03  1.80380E+02 -2.61561E+03 -2.14412E+03 -1.35863E+02 -4.22192E+03
  2.19807E+03 -3.23713E+03  3.29471E+03 -5.61862E+02  3.89184E+03 -8.72765E+01  1.96154E+03  2.75596E+03
  6.67959E+02  2.87888E+03 -1.17753E+03  2.55222E+03 -2.01019E+03  1.62190E+03 -1.59981E+03  3.02191E+02
 -6.10602E+02 -1.37159E+02 -1.17885E+03  4.58385E+02 -1.55232E+03  5.69041E+02 -2.44432E+03 -5.07360E+02
 -2.84845E+03 -1.15201E+03 -1.19470E+03 -3.36972E+03  1.85010E+03 -3.50942E+03  2.79141E+03 -1.59985E+03
  2.77649E+03  4.63023E+02  9.85758E+02  2.12732E+03 -3.93172E+02  3.40973E+03 -2.19678E+03  2.10670E+03
