 $NMID ID='MM_0lb_SNR800_11hz_g60_98.RAW', FMTDAT='(8E13.5)'
 TRAMP=1., VOLUME=1. $END
  3.09770E+05  3.20587E+02  3.38088E+05  2.50747E+05  8.46579E+04  3.38859E+05 -1.32832E+05  2.51721E+05
 -1.90444E+05  8.37670E+04 -1.12566E+05 -3.18379E+04  4.37127E+02 -5.06127E+04  5.38399E+04 -5.20542E+02
  3.56057E+04  5.25576E+04 -1.65698E+04  7.57067E+04 -6.09426E+04  6.42753E+04 -8.56464E+04  3.25137E+04
 -8.21797E+04 -1.17381E+04 -5.82432E+04 -5.21817E+04 -1.49757E+04 -7.08038E+04  2.76637E+04 -4.68016E+04
  4.08144E+04  3.61264E+03  1.66646E+04  4.85528E+04 -3.46874E+04  4.81305E+04 -6.80467E+04  3.33716E+02
 -5.45639E+04 -5.74243E+04 -7.48367E+03 -7.84747E+04  3.48371E+04 -5.67620E+04  4.95637E+04 -1.82494E+04
  4.49480E+04  1.15569E+04  3.30017E+04  2.66028E+04  1.58511E+04  3.06803E+04 -5.74244E+03  2.78142E+04
 -2.23357E+04  1.19524E+04 -1.84559E+04 -5.88703E+03  6.90109E+03 -7.01806E+03  2.31734E+04  1.38831E+04
  7.23558E+03  3.73640E+04 -3.40394E+04  3.71103E+04 -6.56599E+04  2.15692E+03 -5.91110E+04 -4.44458E+04
 -1.24969E+04 -6.55310E+04  4.12295E+04 -4.70328E+04  6.06171E+04 -2.30077E+03  3.63899E+04  3.41887E+04
 -5.95879E+03  3.90712E+04 -3.14996E+04  1.84160E+04 -3.28038E+04 -4.13545E+03 -1.91565E+04 -1.23501E+04
 -9.71805E+03 -1.47040E+04 -7.20672E+02 -1.92398E+04  8.29569E+03 -2.34575E+04  1.58744E+04 -1.28218E+04
  1.06425E+04  6.28717E+03 -1.00384E+04  1.26032E+04 -2.33627E+04 -6.66495E+03 -8.71727E+03 -3.72160E+04
  2.52275E+04 -4.64608E+04  5.18235E+04 -2.02376E+04  4.79166E+04  2.06701E+04  1.70086E+04  4.64720E+04
 -1.67256E+04  3.56784E+04 -2.74825E+04  2.71966E+03 -1.13517E+04 -2.98672E+04  2.11375E+04 -3.63248E+04
  4.38247E+04 -1.04978E+04  3.99361E+04  2.48799E+04  2.06014E+04  5.06094E+04 -7.87622E+03  5.55929E+04
 -3.47399E+04  3.75952E+04 -4.68530E+04  1.12289E+04 -4.68243E+04 -1.82573E+04 -2.55593E+04 -4.12903E+04
  8.27034E+03 -4.16245E+04  3.41918E+04 -1.64949E+04  3.17127E+04  1.13602E+04  5.27212E+03  2.03378E+04
 -1.38006E+04  9.36811E+03 -1.09638E+04 -7.69613E+03  5.82544E+03 -1.10449E+04  1.86724E+04  5.50645E+03
  1.46344E+04  2.26219E+04 -5.24759E+03  2.63909E+04 -2.29937E+04  1.38848E+04 -3.10643E+04 -3.41731E+03
 -2.45107E+04 -1.83482E+04 -1.11992E+04 -2.46797E+04  4.53516E+03 -2.52484E+04  1.92616E+04 -2.22436E+04
  3.09854E+04 -1.42140E+04  3.71637E+04  4.68091E+03  2.63109E+04  2.35396E+04  4.44828E+03  4.06281E+04
 -1.99128E+04  3.33148E+04 -3.01218E+04  1.14970E+04 -2.20372E+04 -1.00547E+04 -4.48617E+03 -1.25728E+04
  8.85835E+02 -1.44507E+03 -6.92557E+03  7.98006E+03 -1.95040E+04  5.25535E+03 -1.95462E+04 -8.88835E+03
 -1.14364E+04 -2.28990E+04  6.27189E+03 -2.70259E+04  1.80225E+04 -1.94566E+04  2.20312E+04 -1.91652E+03
  1.37250E+04  1.54123E+04 -1.32001E+03  2.26247E+04 -1.62753E+04  1.29014E+04 -2.27422E+04 -4.43386E+03
 -1.65107E+04 -1.97585E+04 -2.31822E+03 -2.70628E+04  1.20454E+04 -2.26458E+04  2.24744E+04 -1.14495E+04
  2.07262E+04 -4.90405E+02  1.53178E+04  5.08383E+03  8.48538E+03  1.47135E+03  1.18201E+04 -2.07820E+03
  2.15257E+04  2.97358E+03  2.42935E+04  1.77372E+04  1.62986E+04  3.61581E+04 -2.54113E+03  4.21578E+04
 -2.43386E+04  3.51888E+04 -3.97553E+04  1.81653E+04 -4.24299E+04 -2.98534E+03 -3.45347E+04 -2.45556E+04
 -1.39772E+04 -3.49932E+04  1.27393E+04 -3.05312E+04  2.67077E+04 -1.48734E+04  2.33321E+04  7.39200E+03
  8.26431E+03  1.79670E+04 -1.11272E+04  1.49750E+04 -1.92918E+04  2.43181E+03 -1.43182E+04 -1.25180E+04
 -3.10662E+02 -1.86624E+04  9.94423E+03 -1.35513E+04  1.26398E+04 -1.43745E+03  3.01907E+03  8.44956E+03
 -8.65240E+03  3.97466E+03 -8.23846E+03 -6.32048E+03 -1.77421E+03 -1.71163E+04  1.13328E+04 -1.86660E+04
  2.16439E+04 -1.01526E+04  2.42843E+04  3.38638E+03  2.15710E+04  1.72028E+04  9.78108E+03  2.72071E+04
 -5.09116E+03  2.93571E+04 -1.89453E+04  1.81515E+04 -2.12920E+04  3.78776E+03 -1.50861E+04 -5.47606E+03
 -6.06541E+03 -7.21752E+03 -8.71791E+02  2.46267E+02 -3.07641E+03  2.97502E+03 -6.71455E+03  4.89825E+03
 -1.33450E+04 -8.66672E+02 -1.41760E+04 -1.12899E+04 -5.64920E+03 -1.81794E+04  6.29260E+03 -1.46642E+04
  1.23243E+04 -6.30977E+03  8.60710E+03  3.97207E+03 -5.66334E+02  5.55949E+03 -6.97271E+03 -4.25099E+02
 -7.01325E+03 -9.29192E+03 -1.21195E+03 -1.42187E+04  8.36962E+03 -1.53134E+04  1.86726E+04 -8.41493E+03
  2.20276E+04  2.20609E+03  1.62268E+04  1.28585E+04  2.71950E+03  1.78527E+04 -8.94269E+03  1.42394E+04
 -1.18182E+04  4.59474E+03 -6.04392E+03 -2.91987E+03  1.91731E+03 -3.98605E+03  7.66557E+03 -1.01202E+03
  6.66215E+03  6.50208E+03  9.84841E+02  1.19220E+04 -8.38564E+03  1.08817E+04 -1.40920E+04  2.61645E+03
 -9.99337E+03 -7.70654E+03 -1.15051E+02 -1.25727E+04  7.74498E+03 -6.10181E+03  8.29741E+03  3.08551E+03
  2.22821E+03  8.60195E+03 -7.45670E+03  1.05283E+04 -1.25551E+04  4.69794E+03 -1.25214E+04 -4.24640E+03
 -7.12963E+03 -1.42617E+04  3.49445E+03 -1.61118E+04  1.41661E+04 -9.76246E+03  1.50985E+04  2.72888E+03
  8.99739E+03  1.21081E+04 -9.56369E+02  1.47627E+04 -1.09939E+04  7.90628E+03 -1.17150E+04 -1.30008E+03
 -9.71129E+03 -9.89190E+03 -1.84347E+03 -1.07618E+04  5.51408E+03 -8.98764E+03  7.05380E+03 -3.35860E+03
  4.59828E+03  1.43402E+03 -1.08153E+03  1.54495E+03 -8.00114E+02 -2.76350E+03  2.59585E+03 -6.35084E+03
  9.94061E+03 -4.22384E+03  1.41776E+04  1.78673E+03  1.43001E+04  9.65870E+03  9.15008E+03  1.86620E+04
 -4.08801E+03  2.15300E+04 -1.80726E+04  1.54324E+04 -2.31752E+04  3.21307E+03 -1.84570E+04 -7.65597E+03
 -9.05029E+03 -1.50285E+04 -2.99177E+02 -1.28963E+04  4.49910E+03 -7.46428E+03  4.70524E+03 -4.80491E+03
  3.53339E+03 -3.23845E+03  3.58777E+03 -3.41090E+03  5.61492E+03 -3.27030E+03  7.22615E+03 -1.09833E+03
  9.63733E+03  2.14529E+03  4.82754E+03  8.48442E+03 -2.23321E+03  9.34171E+03 -1.03527E+04  7.44959E+03
 -1.27973E+04 -1.25397E+03 -8.19801E+03 -9.11025E+03 -1.05315E+03 -1.35642E+04  8.27079E+03 -1.36420E+04
  1.44055E+04 -7.95423E+03  1.73408E+04  2.07862E+03  1.23207E+04  1.21382E+04  2.19952E+03  1.56210E+04
 -6.49860E+03  1.30412E+04 -8.89669E+03  4.35953E+03 -6.33445E+03 -1.68766E+03 -2.70841E+03 -2.00104E+03
 -1.10348E+03  5.00584E+01 -2.13312E+03  2.72552E+03 -5.35890E+03  1.82430E+03 -8.96302E+03 -1.53575E+03
 -5.89543E+03 -8.91129E+03  2.57149E+02 -1.29682E+04  7.68183E+03 -1.18845E+04  1.25486E+04 -3.73151E+03
  1.26627E+04  6.18981E+03  5.47332E+03  1.11315E+04 -2.56754E+03  1.25496E+04 -8.96791E+03  7.73771E+03
 -1.20942E+04  8.87577E+02 -9.13423E+03 -7.17286E+03 -9.97428E+02 -1.06459E+04  5.65317E+03 -7.56091E+03
  8.06137E+03 -2.67847E+03  5.47060E+03  2.01785E+03  1.82582E+03  4.30498E+03  1.14674E+03  1.84199E+03
  2.40159E+03  1.20253E+03  2.84444E+03  1.67777E+03  3.75193E+03  4.60780E+03  3.12573E+03  6.40253E+03
 -2.78123E+03  9.63499E+03 -8.64248E+03  1.02557E+04 -1.23915E+04  2.66209E+03 -1.33203E+04 -5.30437E+03
 -6.16619E+03 -1.25884E+04  2.08239E+03 -1.38183E+04  7.67312E+03 -8.48281E+03  9.91144E+03 -2.38203E+03
  7.82757E+03  4.46905E+03  1.95085E+03  7.49980E+03 -3.47382E+03  4.80795E+03 -4.72340E+03 -4.09341E+02
 -2.43511E+03 -5.54637E+03  3.09815E+03 -5.50735E+03  5.06425E+03 -2.94078E+03  5.24217E+03  9.85878E+02
  2.79676E+03  2.46941E+03  1.40919E+03  2.12547E+03 -6.11693E+02  1.74610E+03  1.51606E+03 -2.73123E+02
  1.73339E+03 -8.85204E+02  5.06081E+03  1.81139E+03  2.68443E+03  6.73419E+03 -1.10072E+03  8.72379E+03
 -6.08887E+03  5.54368E+03 -8.00452E+03  1.42287E+03 -7.04703E+03 -2.82435E+03 -2.50777E+03 -4.99536E+03
  7.82888E+02 -4.68887E+03  3.30870E+03 -2.53753E+03  2.94220E+03  2.68392E+03 -1.19751E+03  4.22240E+03
 -4.76685E+03  2.40447E+03 -5.48602E+03 -2.98173E+03 -3.18699E+03 -6.63782E+03  1.00609E+03 -6.71129E+03
  4.25775E+03 -3.70993E+03  4.92653E+03 -5.92226E+02  4.17773E+03  1.56159E+03  6.33965E+02  3.68049E+03
 -2.09625E+03  7.47263E+02 -2.98103E+03 -2.28534E+03  1.39391E+03 -4.90630E+03  5.77756E+03 -4.30006E+03
  7.46575E+03  6.59247E+02  7.71558E+03  4.69600E+03  2.76799E+03  7.97768E+03 -2.42205E+03  7.77906E+03
 -6.14259E+03  2.79996E+03 -6.56509E+03 -7.67839E+02 -4.04772E+03 -5.61094E+03  1.54305E+03 -4.73713E+03
  5.04930E+03 -2.30317E+03  3.90645E+03  1.79309E+03  1.28297E+03  4.62923E+03 -3.70040E+02  3.80100E+03
 -1.81134E+03  2.80800E+03 -2.04254E+03  7.90670E+02 -5.72637E+02  8.68983E+02 -1.45557E+03  1.71178E+03
 -1.99295E+03  3.01240E+03 -5.84105E+03  2.57858E+03 -7.54998E+03 -3.22833E+01 -8.84547E+03 -5.06732E+03
 -4.27164E+03 -1.04406E+04  2.35309E+03 -1.16320E+04  7.62675E+03 -9.41718E+03  1.11139E+04 -3.91375E+03
  1.03539E+04  1.86763E+03  6.62749E+03  6.72672E+03  5.52809E+02  7.91266E+03 -2.86497E+03  5.80474E+03
 -4.63684E+03  2.37028E+03 -2.78370E+03 -1.28438E+03 -9.70801E+02 -6.86956E+02 -5.25814E+02 -6.60894E+01
 -1.88294E+03 -4.14818E+01 -1.78345E+03  5.78909E+01 -3.09240E+02 -1.79506E+03  4.30893E+02 -3.21663E+03
  3.77248E+03 -2.82475E+03  4.00363E+03  1.87681E+02  5.22206E+03  4.89367E+03  1.22885E+03  7.81610E+03
 -3.59175E+03  9.14666E+03 -8.36055E+03  5.54433E+03 -9.68175E+03 -9.79805E+02 -7.27614E+03 -6.05536E+03
 -2.86168E+03 -7.98679E+03  1.85586E+03 -7.42252E+03  4.35080E+03 -4.11358E+03  5.06837E+03  3.13049E+02
  2.83219E+03  2.31481E+03 -5.50204E+01  2.09118E+03 -1.54454E+03 -2.16727E+02  6.12758E+01 -1.90002E+03
  2.48704E+03 -1.06224E+03  2.96254E+03  7.23574E+02  1.85207E+03  2.67402E+03  1.71350E+02  4.11408E+03
 -3.30980E+03  3.39739E+03 -5.16055E+03  4.29998E+02 -4.49830E+03 -3.71784E+03 -7.99996E+02 -6.71447E+03
  3.26152E+03 -5.22438E+03  5.70574E+03 -1.45594E+03  5.59142E+03  1.25110E+03  3.20080E+03  4.67889E+03
  8.44684E+02  5.05599E+03 -1.87837E+03  4.40689E+03 -3.38800E+03  2.15300E+03 -2.52685E+03  4.52090E+02
 -1.33367E+03 -1.36864E+02 -1.65464E+03  2.64790E+02 -3.01117E+03  9.03031E+02 -3.59114E+03 -7.98530E+02
 -4.18078E+03 -2.20029E+03 -1.13088E+03 -5.03153E+03  2.32350E+03 -5.54645E+03  4.56120E+03 -2.32426E+03
  4.67400E+03  4.95039E+02  2.27573E+03  3.32678E+03 -1.67797E+02  4.87769E+03 -3.50476E+03  3.64594E+03
