 $NMID ID='MM_0lb_SNR800_7hz_g50_63.RAW', FMTDAT='(8E13.5)'
 TRAMP=1., VOLUME=1. $END
  3.09858E+05 -1.60669E+02  3.37740E+05  2.51020E+05  8.48819E+04  3.38679E+05 -1.32572E+05  2.52066E+05
 -1.90944E+05  8.37420E+04 -1.12848E+05 -3.25606E+04 -5.22481E+01 -5.06128E+04  5.32744E+04 -3.58566E+02
  3.60186E+04  5.29718E+04 -1.64573E+04  7.61580E+04 -6.15079E+04  6.47654E+04 -8.54153E+04  3.31037E+04
 -8.28069E+04 -1.20668E+04 -5.84261E+04 -5.29646E+04 -1.54023E+04 -7.16489E+04  2.84331E+04 -4.75325E+04
  4.13071E+04  3.48194E+03  1.71198E+04  4.89306E+04 -3.46338E+04  4.85809E+04 -6.82217E+04  2.03115E+01
 -5.55488E+04 -5.87579E+04 -7.00111E+03 -7.94272E+04  3.49313E+04 -5.77376E+04  5.04491E+04 -1.88918E+04
  4.59086E+04  1.19634E+04  3.29395E+04  2.75468E+04  1.60249E+04  3.08112E+04 -6.16784E+03  2.78335E+04
 -2.23975E+04  1.20860E+04 -1.78172E+04 -6.06048E+03  8.04391E+03 -7.08713E+03  2.43580E+04  1.37599E+04
  7.03753E+03  3.83946E+04 -3.49515E+04  3.82097E+04 -6.67812E+04  1.80888E+03 -5.94106E+04 -4.48257E+04
 -1.31656E+04 -6.68998E+04  4.22228E+04 -4.84078E+04  6.29629E+04 -2.74564E+03  3.77382E+04  3.54833E+04
 -5.23513E+03  4.06357E+04 -3.26147E+04  1.99709E+04 -3.46952E+04 -2.99401E+03 -2.03718E+04 -1.18636E+04
 -9.98788E+03 -1.56134E+04 -1.48085E+02 -1.97998E+04  8.65912E+03 -2.34275E+04  1.61726E+04 -1.22610E+04
  1.04647E+04  6.58383E+03 -1.15040E+04  1.26345E+04 -2.40996E+04 -7.90358E+03 -8.42736E+03 -3.88035E+04
  2.60521E+04 -4.82578E+04  5.37808E+04 -2.10862E+04  4.99896E+04  2.14887E+04  1.79698E+04  4.84158E+04
 -1.71583E+04  3.72803E+04 -2.84575E+04  3.26307E+03 -1.24563E+04 -2.97932E+04  2.17042E+04 -3.87089E+04
  4.56615E+04 -1.18116E+04  4.28372E+04  2.53116E+04  2.26318E+04  5.23435E+04 -8.92566E+03  5.84585E+04
 -3.67701E+04  4.01870E+04 -4.99411E+04  1.13532E+04 -4.96085E+04 -1.92979E+04 -2.74830E+04 -4.37778E+04
  7.99829E+03 -4.40257E+04  3.54550E+04 -1.83975E+04  3.32146E+04  1.05882E+04  5.32610E+03  2.16370E+04
 -1.42354E+04  1.03174E+04 -1.17837E+04 -7.48616E+03  5.57258E+03 -1.20184E+04  1.90758E+04  5.70299E+03
  1.52286E+04  2.31764E+04 -4.69777E+03  2.76346E+04 -2.34699E+04  1.58573E+04 -3.30722E+04 -2.60235E+03
 -2.73531E+04 -1.96872E+04 -1.31696E+04 -2.64888E+04  4.62558E+03 -2.81758E+04  2.16960E+04 -2.47546E+04
  3.41756E+04 -1.49637E+04  4.05223E+04  5.41472E+03  2.81272E+04  2.64280E+04  4.25222E+03  4.36961E+04
 -2.08742E+04  3.53770E+04 -3.10986E+04  1.20928E+04 -2.27707E+04 -1.02279E+04 -4.94119E+03 -1.26368E+04
  5.02534E+02 -7.12963E+02 -8.63688E+03  8.97074E+03 -2.19285E+04  4.90015E+03 -2.17481E+04 -1.10274E+04
 -1.27892E+04 -2.51394E+04  6.34914E+03 -3.01245E+04  2.03174E+04 -2.12170E+04  2.42764E+04 -1.85148E+03
  1.57595E+04  1.72355E+04 -1.10444E+03  2.52359E+04 -1.84298E+04  1.44095E+04 -2.54433E+04 -5.36195E+03
 -1.88733E+04 -2.19902E+04 -2.46645E+03 -3.01166E+04  1.36737E+04 -2.53986E+04  2.47438E+04 -1.31689E+04
  2.36581E+04 -1.70764E+02  1.74918E+04  4.98789E+03  9.83014E+03  1.49776E+03  1.31223E+04 -2.16552E+03
  2.41904E+04  2.41324E+03  2.82257E+04  1.98327E+04  1.94970E+04  4.08761E+04 -2.30374E+03  4.91901E+04
 -2.79691E+04  4.09969E+04 -4.61399E+04  2.20082E+04 -4.96555E+04 -3.82624E+03 -3.97322E+04 -2.91340E+04
 -1.56781E+04 -4.20721E+04  1.46025E+04 -3.60705E+04  3.07392E+04 -1.65347E+04  2.67152E+04  8.94100E+03
  8.78923E+03  2.05676E+04 -1.32641E+04  1.68505E+04 -2.20801E+04  2.84357E+03 -1.62156E+04 -1.38919E+04
 -2.69401E+02 -2.08322E+04  1.15682E+04 -1.59547E+04  1.46474E+04 -1.23558E+03  3.65264E+03  1.00327E+04
 -8.91347E+03  5.33268E+03 -1.02295E+04 -7.43385E+03 -2.65387E+03 -2.04254E+04  1.28763E+04 -2.21238E+04
  2.59474E+04 -1.29535E+04  3.04214E+04  3.27288E+03  2.59468E+04  2.11768E+04  1.24075E+04  3.33976E+04
 -6.59445E+03  3.56169E+04 -2.34006E+04  2.18410E+04 -2.58038E+04  4.32616E+03 -1.73336E+04 -7.16279E+03
 -7.23946E+03 -8.69581E+03 -3.54386E+02  1.77199E+02 -2.81598E+03  3.59905E+03 -8.58202E+03  6.25166E+03
 -1.58290E+04 -5.24646E+02 -1.64749E+04 -1.34528E+04 -6.02587E+03 -2.17880E+04  7.00102E+03 -1.76790E+04
  1.48558E+04 -7.00909E+03  1.00800E+04  4.71452E+03 -4.95771E+02  7.27388E+03 -9.02407E+03 -5.22060E+02
 -8.73764E+03 -1.16548E+04 -1.05500E+03 -1.76932E+04  1.08472E+04 -1.92675E+04  2.28337E+04 -1.03643E+04
  2.64550E+04  2.44308E+03  1.92830E+04  1.65373E+04  3.93874E+03  2.28923E+04 -1.06286E+04  1.78912E+04
 -1.39835E+04  5.25604E+03 -7.52748E+03 -4.48033E+03  2.89117E+03 -5.06183E+03  8.95061E+03 -1.09598E+03
  8.18478E+03  8.24580E+03  1.41548E+03  1.44505E+04 -1.03029E+04  1.37317E+04 -1.77641E+04  2.83081E+03
 -1.22054E+04 -9.68091E+03  1.36295E+02 -1.56756E+04  1.07152E+04 -8.25196E+03  1.14546E+04  4.33691E+03
  2.56946E+03  1.22731E+04 -9.46780E+03  1.39482E+04 -1.67283E+04  5.93752E+03 -1.67450E+04 -6.30343E+03
 -9.21320E+03 -1.89360E+04  4.94536E+03 -2.14656E+04  1.85372E+04 -1.29067E+04  1.97609E+04  3.29121E+03
  1.19108E+04  1.58640E+04 -2.19155E+03  1.87241E+04 -1.36807E+04  1.02903E+04 -1.52242E+04 -1.50677E+03
 -1.23297E+04 -1.18703E+04 -1.76749E+03 -1.41826E+04  7.99766E+03 -1.11091E+04  9.55221E+03 -3.93903E+03
  5.46212E+03  2.99748E+03 -1.07668E+03  2.04241E+03 -1.03857E+03 -4.16325E+03  3.58201E+03 -9.14272E+03
  1.40122E+04 -6.70443E+03  1.97896E+04  1.87634E+03  1.89678E+04  1.41469E+04  1.17443E+04  2.52839E+04
 -5.83778E+03  2.92048E+04 -2.39914E+04  2.15990E+04 -3.12675E+04  3.93032E+03 -2.46233E+04 -1.13174E+04
 -1.24601E+04 -2.06942E+04 -6.67896E+02 -1.78378E+04  5.75023E+03 -1.00411E+04  6.10987E+03 -6.54415E+03
  4.77261E+03 -3.78226E+03  4.38588E+03 -4.51216E+03  6.50751E+03 -4.38201E+03  9.69803E+03 -1.99535E+03
  1.30626E+04  3.08062E+03  7.20208E+03  1.18339E+04 -2.49551E+03  1.43242E+04 -1.36895E+04  1.11670E+04
 -1.78065E+04 -1.75822E+03 -1.22280E+04 -1.25010E+04 -1.79140E+03 -1.93839E+04  1.01973E+04 -1.96917E+04
  2.04179E+04 -1.05274E+04  2.39587E+04  3.19760E+03  1.70023E+04  1.75598E+04  2.78716E+03  2.16889E+04
 -9.73067E+03  1.73436E+04 -1.30825E+04  5.81958E+03 -9.18084E+03 -2.37186E+03 -4.32936E+03 -2.99559E+03
 -1.72647E+03 -3.42966E+02 -2.50054E+03  3.46832E+03 -7.74341E+03  2.87633E+03 -1.24165E+04 -1.85719E+03
 -9.51698E+03 -1.19897E+04 -3.97568E+02 -1.84827E+04  1.13686E+04 -1.69161E+04  1.88599E+04 -5.40324E+03
  1.83284E+04  8.82787E+03  8.84765E+03  1.67215E+04 -3.76077E+03  1.87335E+04 -1.35506E+04  1.15811E+04
 -1.75105E+04  5.29799E+02 -1.36699E+04 -1.15598E+04 -1.60025E+03 -1.60872E+04  7.69928E+03 -1.20315E+04
  1.23298E+04 -4.04882E+03  7.86164E+03  3.84214E+03  2.94209E+03  5.66435E+03  1.42485E+03  2.71091E+03
  3.52333E+03  1.73396E+03  4.34532E+03  1.85723E+03  5.56403E+03  6.40879E+03  4.48003E+03  1.07123E+04
 -3.91099E+03  1.53110E+04 -1.30241E+04  1.49895E+04 -2.01997E+04  3.34888E+03 -2.02465E+04 -9.25368E+03
 -9.80531E+03 -1.95944E+04  3.16010E+03 -2.14690E+04  1.19115E+04 -1.35124E+04  1.59533E+04 -4.11836E+03
  1.27933E+04  7.58679E+03  2.67971E+03  1.08511E+04 -6.05118E+03  7.60066E+03 -7.85224E+03 -1.52975E+03
 -4.07385E+03 -8.12755E+03  4.20743E+03 -8.40421E+03  8.28085E+03 -4.11852E+03  8.10110E+03  1.60066E+03
  5.00914E+03  4.29793E+03  2.36446E+03  3.71486E+03 -1.29401E+03  2.74956E+03  2.24864E+03 -1.04250E+03
  3.36326E+03 -1.14617E+03  8.28380E+03  3.23187E+03  4.88345E+03  1.04982E+04 -1.65949E+03  1.36097E+04
 -9.81292E+03  9.60806E+03 -1.29624E+04  2.56321E+03 -1.15552E+04 -4.70226E+03 -4.77856E+03 -7.81798E+03
  1.34560E+03 -7.75441E+03  5.11650E+03 -3.78953E+03  4.49135E+03  4.23500E+03 -2.23811E+03  6.79964E+03
 -8.55339E+03  4.23582E+03 -9.87207E+03 -4.39995E+03 -5.29072E+03 -1.10769E+04  1.24911E+03 -1.08513E+04
  6.72953E+03 -7.00416E+03  8.65976E+03 -1.15677E+03  6.32918E+03  2.83805E+03  9.71031E+02  6.02364E+03
 -4.38336E+03  1.93669E+03 -5.13933E+03 -4.35199E+03  1.65131E+03 -9.49995E+03  1.01949E+04 -7.48892E+03
  1.37037E+04  1.05540E+03  1.20534E+04  8.93299E+03  3.89198E+03  1.36237E+04 -4.92363E+03  1.30377E+04
 -1.13996E+04  5.86197E+03 -1.20745E+04 -1.85232E+03 -5.82884E+03 -8.71136E+03  1.55497E+03 -8.72949E+03
  8.54865E+03 -3.93515E+03  7.12119E+03  3.46941E+03  2.35141E+03  7.69783E+03 -1.47782E+03  6.32283E+03
 -4.05339E+03  3.88477E+03 -3.45279E+03  1.14603E+03 -1.69649E+03  9.63922E+02 -2.11679E+03  2.97426E+03
 -3.38309E+03  4.98013E+03 -9.05404E+03  4.75068E+03 -1.40916E+04  7.04534E+01 -1.54613E+04 -9.09791E+03
 -8.47285E+03 -1.91128E+04  3.81004E+03 -2.11171E+04  1.39529E+04 -1.63456E+04  2.00883E+04 -6.33636E+03
  1.90545E+04  3.81015E+03  1.20041E+04  1.25000E+04  1.31598E+03  1.52060E+04 -5.98207E+03  1.04165E+04
 -8.25120E+03  4.22641E+03 -5.27654E+03 -1.44925E+03 -1.37761E+03 -1.60139E+03 -6.56921E+02  6.97425E+01
 -2.48449E+03  6.01591E+02 -2.79398E+03 -9.58294E+02 -1.41304E+03 -3.26772E+03  7.62660E+02 -5.46242E+03
  6.09124E+03 -4.79855E+03  9.21361E+03 -1.74249E+02  1.05242E+04  7.93130E+03  3.17730E+03  1.50275E+04
 -6.97443E+03  1.69470E+04 -1.59518E+04  9.40841E+03 -1.79172E+04 -1.22604E+03 -1.32413E+04 -1.09553E+04
 -5.43712E+03 -1.53161E+04  3.85094E+03 -1.43164E+04  9.80389E+03 -7.42934E+03  1.02431E+04  6.16541E+02
  5.91116E+03  5.36382E+03 -1.20511E+03  4.34720E+03 -3.04224E+03 -8.06507E+02 -2.93843E+02 -3.34903E+03
  5.19798E+03 -2.10217E+03  6.38341E+03  1.52648E+03  4.17790E+03  5.78280E+03 -4.08623E+02  8.18646E+03
 -6.86701E+03  7.14787E+03 -1.04482E+04  6.07269E+02 -9.35492E+03 -7.73722E+03 -1.46921E+03 -1.25136E+04
  7.33751E+03 -1.04627E+04  1.20279E+04 -3.60065E+03  1.18906E+04  3.35098E+03  6.81036E+03  9.16142E+03
  1.47573E+03  1.07955E+04 -4.35678E+03  8.32647E+03 -7.06580E+03  4.90776E+03 -5.93983E+03  5.84403E+02
 -3.55359E+03 -5.90152E+01 -2.85467E+03  8.98923E+02 -5.78200E+03  1.62923E+03 -8.08912E+03 -1.46936E+03
 -7.15407E+03 -5.79816E+03 -2.49568E+03 -1.05206E+04  5.00518E+03 -1.07791E+04  9.22673E+03 -5.37860E+03
  1.06720E+04  1.33354E+03  5.63219E+03  7.62899E+03 -9.00499E+02  1.03995E+04 -8.07470E+03  6.84086E+03
