 $NMID ID='MM_0lb_SNR800_13hz_g55_66.RAW', FMTDAT='(8E13.5)'
 TRAMP=1., VOLUME=1. $END
  3.09432E+05  8.40179E+02  3.37695E+05  2.50924E+05  8.47785E+04  3.38012E+05 -1.32813E+05  2.51367E+05
 -1.90533E+05  8.35509E+04 -1.12177E+05 -3.24986E+04  4.00958E+02 -5.07579E+04  5.36271E+04 -3.88351E+02
  3.54283E+04  5.30343E+04 -1.70561E+04  7.57503E+04 -6.09900E+04  6.41740E+04 -8.42747E+04  3.21365E+04
 -8.14676E+04 -1.15686E+04 -5.74246E+04 -5.16175E+04 -1.51258E+04 -7.01145E+04  2.75701E+04 -4.60853E+04
  4.05160E+04  3.75087E+03  1.63064E+04  4.78288E+04 -3.45236E+04  4.75281E+04 -6.74409E+04  8.02201E+01
 -5.39708E+04 -5.74672E+04 -7.04137E+03 -7.77346E+04  3.43809E+04 -5.57739E+04  4.88449E+04 -1.76232E+04
  4.39520E+04  1.11865E+04  3.21016E+04  2.58141E+04  1.58224E+04  2.97031E+04 -5.11810E+03  2.75866E+04
 -2.23684E+04  1.22859E+04 -1.81613E+04 -5.36711E+03  6.41283E+03 -7.63174E+03  2.27916E+04  1.28200E+04
  7.09229E+03  3.60000E+04 -3.28999E+04  3.62173E+04 -6.40710E+04  2.37987E+03 -5.78203E+04 -4.34924E+04
 -1.24553E+04 -6.41385E+04  4.03711E+04 -4.60108E+04  5.92864E+04 -2.50371E+03  3.51372E+04  3.29494E+04
 -5.97021E+03  3.72176E+04 -3.07624E+04  1.69920E+04 -3.13821E+04 -4.43543E+03 -1.77192E+04 -1.15552E+04
 -8.73925E+03 -1.36353E+04 -5.84082E+02 -1.85084E+04  7.86816E+03 -2.28591E+04  1.54184E+04 -1.29720E+04
  1.10972E+04  5.66921E+03 -9.20149E+03  1.29208E+04 -2.19099E+04 -5.51588E+03 -8.62580E+03 -3.49076E+04
  2.37235E+04 -4.49600E+04  4.98351E+04 -1.97229E+04  4.62050E+04  1.97365E+04  1.63025E+04  4.49967E+04
 -1.62476E+04  3.46505E+04 -2.62148E+04  2.23532E+03 -1.08828E+04 -2.84610E+04  2.12577E+04 -3.48865E+04
  4.23451E+04 -9.72269E+03  3.72688E+04  2.38469E+04  1.95379E+04  4.82341E+04 -8.21816E+03  5.22122E+04
 -3.28944E+04  3.50624E+04 -4.41052E+04  1.04021E+04 -4.43265E+04 -1.72137E+04 -2.43170E+04 -3.95820E+04
  7.47042E+03 -3.92927E+04  3.25094E+04 -1.54011E+04  3.00671E+04  1.12135E+04  4.78755E+03  1.99063E+04
 -1.35692E+04  8.83143E+03 -1.07014E+04 -7.55697E+03  5.66318E+03 -1.07874E+04  1.83153E+04  5.81174E+03
  1.40585E+04  2.20783E+04 -5.60914E+03  2.59762E+04 -2.25785E+04  1.23741E+04 -2.90629E+04 -4.76799E+03
 -2.23064E+04 -1.78921E+04 -9.72319E+03 -2.21585E+04  4.09417E+03 -2.17387E+04  1.67386E+04 -1.99170E+04
  2.84347E+04 -1.30534E+04  3.44945E+04  3.22758E+03  2.46428E+04  2.16835E+04  4.44568E+03  3.81434E+04
 -1.83017E+04  3.14142E+04 -2.89269E+04  1.06914E+04 -2.15970E+04 -1.01848E+04 -4.44758E+03 -1.33766E+04
  1.66473E+03 -2.03038E+03 -5.79109E+03  7.00545E+03 -1.71956E+04  5.19663E+03 -1.75923E+04 -7.85223E+03
 -1.05518E+04 -2.03191E+04  5.45609E+03 -2.47713E+04  1.68946E+04 -1.76370E+04  1.96812E+04 -1.44221E+03
  1.24515E+04  1.44042E+04 -9.54241E+02  2.04011E+04 -1.41405E+04  1.14884E+04 -2.02501E+04 -4.35417E+03
 -1.50770E+04 -1.83422E+04 -1.95292E+03 -2.43186E+04  1.09939E+04 -2.04207E+04  2.05854E+04 -1.04164E+04
  1.92339E+04 -9.15473E+01  1.37160E+04  4.78137E+03  7.43370E+03  1.21627E+03  1.01786E+04 -1.85083E+03
  1.88084E+04  2.73272E+03  2.11060E+04  1.59804E+04  1.41784E+04  3.27576E+04 -3.09424E+03  3.74624E+04
 -2.09759E+04  3.03825E+04 -3.50453E+04  1.55623E+04 -3.68130E+04 -2.46021E+03 -3.03925E+04 -2.12438E+04
 -1.27627E+04 -3.03909E+04  1.03540E+04 -2.75000E+04  2.32841E+04 -1.36204E+04  2.09865E+04  6.15444E+03
  7.17645E+03  1.56702E+04 -9.65904E+03  1.36825E+04 -1.73517E+04  2.75635E+03 -1.30008E+04 -1.09627E+04
 -5.92320E+02 -1.63721E+04  8.85736E+03 -1.24062E+04  1.13077E+04 -1.45432E+03  2.47887E+03  7.16109E+03
 -7.41303E+03  3.17376E+03 -7.14238E+03 -6.38493E+03 -1.13096E+03 -1.50198E+04  1.05802E+04 -1.57705E+04
  1.85897E+04 -8.57826E+03  2.02767E+04  2.90322E+03  1.73999E+04  1.48562E+04  8.27340E+03  2.25105E+04
 -3.84931E+03  2.49580E+04 -1.56773E+04  1.56573E+04 -1.77559E+04  3.37511E+03 -1.23340E+04 -4.05684E+03
 -5.45064E+03 -5.91620E+03 -1.01869E+03  7.97505E+02 -2.53189E+03  2.88629E+03 -5.77789E+03  4.26256E+03
 -1.13593E+04 -8.46382E+02 -1.22375E+04 -1.03396E+04 -5.00252E+03 -1.64323E+04  5.12293E+03 -1.24916E+04
  1.04963E+04 -5.38055E+03  7.25074E+03  3.33453E+03  2.24989E+02  4.70048E+03 -5.76409E+03 -1.24966E+02
 -5.68573E+03 -8.08670E+03 -9.08867E+02 -1.22288E+04  6.84391E+03 -1.27467E+04  1.59301E+04 -6.85536E+03
  1.82543E+04  1.65427E+03  1.35331E+04  1.07829E+04  2.64121E+03  1.44296E+04 -8.08377E+03  1.24189E+04
 -1.03813E+04  3.82152E+03 -5.33423E+03 -2.31939E+03  1.67036E+03 -3.21544E+03  6.55695E+03 -8.95436E+02
  5.93952E+03  5.67501E+03  1.18708E+03  1.01167E+04 -6.90218E+03  9.36994E+03 -1.21863E+04  2.57109E+03
 -8.18604E+03 -6.30797E+03  3.71320E+02 -1.04366E+04  6.50262E+03 -5.50110E+03  6.57816E+03  2.50808E+03
  1.60506E+03  6.96745E+03 -6.50415E+03  8.59881E+03 -9.75575E+03  4.07351E+03 -9.68441E+03 -3.16580E+03
 -5.54809E+03 -1.13738E+04  2.51599E+03 -1.35568E+04  1.07368E+04 -8.12709E+03  1.23573E+04  1.88331E+03
  7.50075E+03  9.65207E+03 -8.39636E+02  1.17019E+04 -8.52377E+03  6.42433E+03 -9.09688E+03 -1.01889E+03
 -8.42906E+03 -7.99769E+03 -1.45842E+03 -8.93778E+03  4.85482E+03 -7.42849E+03  5.69224E+03 -3.44300E+03
  3.85547E+03  1.13772E+03 -4.20511E+02  1.46518E+03 -5.77944E+01 -1.98466E+03  1.32971E+03 -4.90026E+03
  7.93528E+03 -3.13293E+03  1.09004E+04  1.26600E+03  1.08705E+04  7.39149E+03  8.02555E+03  1.48825E+04
 -3.24386E+03  1.64702E+04 -1.41818E+04  1.24992E+04 -1.81199E+04  2.23360E+03 -1.45364E+04 -6.01306E+03
 -7.09935E+03 -1.19790E+04 -4.67118E+02 -9.88500E+03  4.01425E+03 -5.26156E+03  3.63365E+03 -3.75637E+03
  2.69016E+03 -2.12645E+03  3.28534E+03 -3.49552E+03  4.48907E+03 -2.47111E+03  6.09862E+03 -5.32430E+02
  7.63243E+03  1.83397E+03  3.62212E+03  6.49055E+03 -1.88598E+03  7.13880E+03 -7.80228E+03  5.50044E+03
 -9.69744E+03 -1.27041E+03 -5.44872E+03 -6.81735E+03 -5.94049E+02 -1.03838E+04  5.82633E+03 -1.04494E+04
  1.07661E+04 -6.06828E+03  1.29660E+04  1.57813E+03  9.15033E+03  9.14144E+03  1.57102E+03  1.17862E+04
 -4.91413E+03  1.00299E+04 -6.64787E+03  3.40082E+03 -4.44540E+03 -1.06943E+03 -1.92715E+03 -1.53582E+03
 -8.56927E+02 -7.61766E+01 -1.21446E+03  2.51970E+03 -4.45551E+03  1.89513E+03 -7.06191E+03 -1.01149E+03
 -4.39630E+03 -6.90397E+03  4.66350E+02 -9.76712E+03  5.93483E+03 -8.55205E+03  9.12713E+03 -2.79807E+03
  9.25700E+03  4.57124E+03  4.34144E+03  8.26520E+03 -2.00149E+03  9.41639E+03 -6.49150E+03  5.49262E+03
 -8.86514E+03  4.03335E+02 -6.97235E+03 -5.86802E+03 -4.65639E+02 -7.73558E+03  3.86193E+03 -5.73137E+03
  5.95122E+03 -2.37206E+03  4.15935E+03  1.37594E+03  1.08791E+03  2.92626E+03  1.31130E+03  1.48878E+03
  2.07787E+03  8.25158E+02  2.21107E+03  1.29028E+03  2.51727E+03  3.32511E+03  2.67287E+03  4.68654E+03
 -2.11308E+03  6.93324E+03 -6.26608E+03  7.74203E+03 -9.28661E+03  2.06272E+03 -9.99773E+03 -3.68582E+03
 -4.83060E+03 -9.10002E+03  1.57818E+03 -1.01648E+04  5.00938E+03 -6.08177E+03  7.52292E+03 -1.84531E+03
  6.00859E+03  3.35380E+03  1.14911E+03  5.31377E+03 -2.40799E+03  3.42257E+03 -3.55404E+03 -8.04956E+02
 -1.59213E+03 -3.86083E+03  2.15498E+03 -4.12320E+03  3.70304E+03 -2.32031E+03  3.24292E+03  6.47115E+02
  2.00981E+03  1.68480E+03  5.78355E+02  1.06686E+03 -5.09015E+02  1.30450E+03  1.44410E+03 -1.00428E+02
  1.17873E+03 -7.74133E+02  3.71805E+03  1.44093E+03  1.98339E+03  5.10328E+03 -7.08663E+02  6.23614E+03
 -4.25354E+03  3.68485E+03 -5.42145E+03  1.41870E+03 -5.09456E+03 -2.13238E+03 -1.50097E+03 -3.48535E+03
  8.02257E+02 -3.38862E+03  2.16845E+03 -1.47461E+03  1.65504E+03  2.03685E+03 -9.46553E+02  2.70665E+03
 -3.67022E+03  1.54627E+03 -3.82898E+03 -2.39593E+03 -2.38766E+03 -4.62050E+03  6.36183E+02 -4.32893E+03
  2.40243E+03 -2.45072E+03  3.13026E+03 -5.54909E+00  3.12231E+03  7.19597E+02  6.70625E+02  2.41496E+03
 -1.63540E+03  6.09787E+02 -2.09412E+03 -1.51558E+03  1.04277E+03 -3.50673E+03  4.35775E+03 -2.58113E+03
  4.67826E+03  3.77906E+02  5.62008E+03  3.33336E+03  1.99191E+03  5.23035E+03 -1.81457E+03  5.17326E+03
 -4.26144E+03  1.94362E+03 -4.26492E+03 -2.85977E+02 -2.32211E+03 -3.43187E+03  9.59824E+02 -2.88062E+03
  3.17649E+03 -1.40475E+03  2.72417E+03  1.26797E+03  1.04478E+03  3.34973E+03 -3.50009E+02  2.69888E+03
 -1.11232E+03  1.97428E+03 -1.30101E+03  8.85484E+02 -4.49524E+02  6.47857E+02 -1.04194E+03  1.11193E+03
 -1.71093E+03  2.31318E+03 -3.63792E+03  1.70585E+03 -5.50639E+03  2.04123E+02 -6.06215E+03 -3.42273E+03
 -2.95378E+03 -6.69591E+03  1.24432E+03 -8.07419E+03  4.33139E+03 -6.54037E+03  7.86788E+03 -2.18187E+03
  7.20785E+03  9.07999E+02  4.10587E+03  4.56322E+03 -5.41977E+01  5.25068E+03 -2.01177E+03  3.99638E+03
 -2.73436E+03  1.88966E+03 -1.88257E+03 -3.80732E+02 -5.65634E+02 -1.24883E+02 -6.38165E+02 -1.89084E+02
 -1.30316E+03 -2.44335E+02 -1.14004E+03 -5.35698E+01 -3.68511E+01 -1.29234E+03 -1.26453E+02 -1.89354E+03
  2.98069E+03 -1.91792E+03  2.76958E+03  8.60365E+01  3.31999E+03  2.89405E+03  2.94568E+02  4.67048E+03
 -2.93039E+03  6.10773E+03 -4.90199E+03  3.67660E+03 -6.13583E+03 -1.90276E+02 -4.38838E+03 -3.77391E+03
 -1.91247E+03 -5.10580E+03  1.03433E+03 -4.27398E+03  3.02626E+03 -2.51041E+03  3.06781E+03  2.51194E+02
  1.87582E+03  1.59316E+03 -4.56603E+02  1.29736E+03 -9.91388E+02  2.99258E+00  1.66765E+02 -6.98349E+02
  1.56582E+03 -2.45868E+02  1.42670E+03  1.11808E+03  1.32320E+03  2.18580E+03  1.08559E+03  2.51638E+03
 -2.50720E+03  1.87984E+03 -2.83022E+03  2.12720E+02 -3.00828E+03 -2.30377E+03 -4.93319E+02 -4.05585E+03
  2.06155E+03 -3.05289E+03  3.18942E+03 -7.99185E+02  3.12590E+03  3.69960E+02  2.05563E+03  2.81243E+03
  6.36206E+02  2.97617E+03 -1.24018E+03  2.20229E+03 -2.04146E+03  1.45107E+03 -1.67070E+03  4.28964E+02
 -9.57614E+02  3.75451E+01 -1.04419E+03  3.71673E+02 -1.97949E+03  4.22280E+02 -2.56265E+03 -1.90291E+02
 -2.56278E+03 -1.28904E+03 -7.85030E+02 -3.03591E+03  1.79084E+03 -3.67796E+03  2.38379E+03 -1.48313E+03
  3.22656E+03  4.49493E+02  8.70000E+02  1.60785E+03 -1.10434E+02  2.79502E+03 -2.20270E+03  2.31616E+03
