 $NMID ID='MM_0lb_SNR800_16hz_g60_72.RAW', FMTDAT='(8E13.5)'
 TRAMP=1., VOLUME=1. $END
  3.09953E+05  2.99180E+02  3.37724E+05  2.50714E+05  8.46923E+04  3.38041E+05 -1.32924E+05  2.51365E+05
 -1.90377E+05  8.31876E+04 -1.11620E+05 -3.27981E+04  7.25921E+02 -5.06691E+04  5.38316E+04 -9.28168E+01
  3.55285E+04  5.29224E+04 -1.67838E+04  7.52780E+04 -6.06342E+04  6.35543E+04 -8.41832E+04  3.18592E+04
 -8.11510E+04 -1.12712E+04 -5.74814E+04 -5.16648E+04 -1.49516E+04 -6.98492E+04  2.75756E+04 -4.60905E+04
  4.02274E+04  4.00729E+03  1.61061E+04  4.79113E+04 -3.44591E+04  4.69969E+04 -6.68313E+04 -2.68548E+02
 -5.36661E+04 -5.69411E+04 -6.71115E+03 -7.71812E+04  3.43707E+04 -5.52758E+04  4.80747E+04 -1.75074E+04
  4.35483E+04  1.13172E+04  3.16926E+04  2.54794E+04  1.58356E+04  2.94899E+04 -4.93388E+03  2.72026E+04
 -2.20606E+04  1.22804E+04 -1.87603E+04 -5.29056E+03  5.66473E+03 -7.38786E+03  2.23405E+04  1.24654E+04
  7.34190E+03  3.53190E+04 -3.21697E+04  3.55802E+04 -6.33079E+04  2.24811E+03 -5.71921E+04 -4.30799E+04
 -1.26136E+04 -6.33645E+04  3.99870E+04 -4.51907E+04  5.86728E+04 -2.26285E+03  3.42673E+04  3.25729E+04
 -6.26841E+03  3.63445E+04 -3.00069E+04  1.58079E+04 -3.01529E+04 -4.18995E+03 -1.67347E+04 -1.09656E+04
 -7.97030E+03 -1.33332E+04 -9.08407E+02 -1.83117E+04  7.48251E+03 -2.29038E+04  1.56922E+04 -1.32311E+04
  1.13053E+04  5.08744E+03 -8.34344E+03  1.28346E+04 -2.13232E+04 -4.19400E+03 -8.17919E+03 -3.36630E+04
  2.27257E+04 -4.35851E+04  4.81667E+04 -1.94808E+04  4.49780E+04  1.94946E+04  1.58888E+04  4.42371E+04
 -1.59546E+04  3.31391E+04 -2.53213E+04  1.49174E+03 -9.91448E+03 -2.75999E+04  2.06880E+04 -3.40774E+04
  4.12236E+04 -9.15692E+03  3.55541E+04  2.39120E+04  1.83191E+04  4.63005E+04 -7.91079E+03  4.98449E+04
 -3.17511E+04  3.36844E+04 -4.22679E+04  9.54412E+03 -4.26525E+04 -1.68351E+04 -2.36350E+04 -3.78791E+04
  7.41696E+03 -3.77031E+04  3.17990E+04 -1.44594E+04  2.91634E+04  1.11510E+04  4.12414E+03  1.88779E+04
 -1.32133E+04  8.52670E+03 -1.03078E+04 -7.69603E+03  5.66331E+03 -1.07327E+04  1.79227E+04  5.97797E+03
  1.34972E+04  2.20760E+04 -6.17116E+03  2.48768E+04 -2.22928E+04  1.11509E+04 -2.77724E+04 -4.77454E+03
 -2.03240E+04 -1.72883E+04 -8.29375E+03 -2.05238E+04  3.79524E+03 -1.95492E+04  1.58421E+04 -1.81614E+04
  2.58129E+04 -1.27375E+04  3.20671E+04  2.34016E+03  2.34141E+04  1.96284E+04  4.17984E+03  3.62839E+04
 -1.76002E+04  3.04633E+04 -2.79817E+04  1.05155E+04 -2.08600E+04 -1.04773E+04 -4.70979E+03 -1.33081E+04
  1.65704E+03 -3.23156E+03 -4.48857E+03  6.19351E+03 -1.59087E+04  4.99016E+03 -1.60027E+04 -6.61763E+03
 -1.01268E+04 -1.87025E+04  5.02073E+03 -2.31481E+04  1.50664E+04 -1.63346E+04  1.79837E+04 -1.22887E+03
  1.11371E+04  1.29148E+04 -1.03795E+03  1.87555E+04 -1.27724E+04  1.05219E+04 -1.86594E+04 -3.69377E+03
 -1.38937E+04 -1.69604E+04 -1.65469E+03 -2.25265E+04  1.00422E+04 -1.81507E+04  1.87755E+04 -8.75886E+03
  1.74695E+04  1.99000E+02  1.26729E+04  4.64731E+03  6.67806E+03  1.15366E+03  9.64541E+03 -1.86217E+03
  1.71692E+04  2.88687E+03  1.88458E+04  1.45446E+04  1.21005E+04  2.94420E+04 -2.72689E+03  3.33043E+04
 -1.93762E+04  2.64143E+04 -3.09526E+04  1.33356E+04 -3.25323E+04 -2.29387E+03 -2.68004E+04 -1.85155E+04
 -1.17103E+04 -2.66384E+04  8.93558E+03 -2.40241E+04  2.08645E+04 -1.28252E+04  1.90217E+04  5.05828E+03
  7.14253E+03  1.40915E+04 -8.56765E+03  1.22488E+04 -1.59159E+04  2.62542E+03 -1.21493E+04 -9.79418E+03
 -3.95691E+01 -1.50582E+04  7.85547E+03 -1.12969E+04  9.72153E+03 -1.64177E+03  2.31771E+03  6.49793E+03
 -6.35513E+03  2.61497E+03 -5.67468E+03 -5.36030E+03 -4.52341E+02 -1.30223E+04  9.39637E+03 -1.33216E+04
  1.59488E+04 -6.88723E+03  1.66229E+04  2.96834E+03  1.46183E+04  1.25905E+04  6.93844E+03  1.91683E+04
 -2.83308E+03  2.13341E+04 -1.34028E+04  1.32189E+04 -1.49287E+04  3.31696E+03 -1.07838E+04 -3.22072E+03
 -5.25554E+03 -4.71119E+03 -6.52141E+02  8.26631E+02 -2.30205E+03  2.54080E+03 -4.87031E+03  4.14437E+03
 -1.05011E+04 -5.88149E+02 -1.09631E+04 -8.72887E+03 -4.43214E+03 -1.42124E+04  4.38158E+03 -1.09389E+04
  9.12436E+03 -4.36804E+03  6.26882E+03  3.02777E+03  2.21956E+02  4.26128E+03 -5.05723E+03 -1.51344E+02
 -4.65125E+03 -6.61369E+03 -8.57780E+02 -9.66847E+03  5.35323E+03 -1.03805E+04  1.31831E+04 -5.38986E+03
  1.54338E+04  1.00322E+03  1.14102E+04  8.54556E+03  2.37055E+03  1.18800E+04 -6.63081E+03  1.01616E+04
 -8.79540E+03  3.48429E+03 -4.58382E+03 -1.83526E+03  1.48810E+03 -2.69871E+03  5.82286E+03 -1.09665E+03
  4.85909E+03  4.45595E+03  1.17583E+03  8.35674E+03 -5.96343E+03  7.93090E+03 -1.01155E+04  2.05946E+03
 -6.46679E+03 -5.22475E+03  5.12377E+02 -8.52607E+03  5.38668E+03 -4.18081E+03  5.18664E+03  1.76746E+03
  1.04308E+03  5.21877E+03 -5.47192E+03  6.79314E+03 -7.46137E+03  3.16223E+03 -7.21447E+03 -2.31176E+03
 -4.27985E+03 -8.82725E+03  2.08845E+03 -1.00669E+04  8.64321E+03 -6.26900E+03  9.08128E+03  1.56694E+03
  6.13682E+03  7.40867E+03 -3.52339E+02  9.42627E+03 -7.16704E+03  5.51268E+03 -6.97657E+03 -5.07815E+02
 -7.18632E+03 -7.04413E+03 -1.54924E+03 -6.85535E+03  3.51014E+03 -6.07814E+03  3.98017E+03 -3.45776E+03
  3.47983E+03  6.09874E+02 -1.28459E+02  1.48377E+03  2.84975E+02 -1.02402E+03  5.37653E+02 -3.44672E+03
  5.62520E+03 -2.06025E+03  7.82201E+03  7.86073E+02  7.95811E+03  5.04472E+03  6.61830E+03  1.08014E+04
 -2.05398E+03  1.25003E+04 -1.06713E+04  9.19449E+03 -1.40485E+04  1.75326E+03 -1.09190E+04 -4.45041E+03
 -5.48225E+03 -9.42767E+03 -6.50682E+02 -7.57711E+03  2.93935E+03 -3.70212E+03  2.78902E+03 -3.17074E+03
  1.63977E+03 -1.65318E+03  2.70089E+03 -2.50636E+03  4.00213E+03 -1.78238E+03  4.60842E+03  1.41323E+02
  5.59817E+03  1.63446E+03  2.04383E+03  4.81048E+03 -1.62464E+03  4.84914E+03 -6.05268E+03  3.98068E+03
 -7.39698E+03 -1.02293E+03 -3.76832E+03 -4.97109E+03  8.76656E+01 -7.91816E+03  4.34574E+03 -7.40954E+03
  7.68601E+03 -4.65858E+03  9.79747E+03  8.55580E+02  6.75962E+03  6.54542E+03  1.18187E+03  8.72493E+03
 -3.74632E+03  7.58302E+03 -5.13282E+03  2.77485E+03 -2.96748E+03 -1.08358E+03 -9.87553E+02 -8.30862E+02
 -9.50056E+02  4.39937E+02 -1.30941E+03  2.15895E+03 -3.35938E+03  1.32011E+03 -5.56347E+03 -5.28609E+02
 -2.63556E+03 -5.46681E+03  4.27728E+02 -6.98326E+03  4.41346E+03 -6.37597E+03  6.20614E+03 -2.30419E+03
  6.24050E+03  3.56028E+03  2.99084E+03  5.41424E+03 -1.27270E+03  6.89753E+03 -4.12356E+03  3.95758E+03
 -5.72006E+03  8.07780E+02 -4.95533E+03 -3.89507E+03 -6.60450E+02 -5.11641E+03  2.64448E+03 -4.13751E+03
  3.96170E+03 -1.77824E+03  2.56959E+03  8.17824E+02  7.45824E+02  2.14252E+03  1.15225E+03  9.70259E+02
  1.87617E+03  6.23653E+02  1.97671E+03  1.40462E+03  1.48813E+03  2.89872E+03  1.75972E+03  3.02589E+03
 -1.55688E+03  4.80347E+03 -4.07444E+03  5.81482E+03 -5.39041E+03  1.73557E+03 -6.04930E+03 -1.52128E+03
 -2.84009E+03 -5.91258E+03  6.77486E+02 -7.38463E+03  3.34014E+03 -4.06642E+03  5.21330E+03 -1.32192E+03
  3.51848E+03  2.64560E+03  9.64541E+02  3.33287E+03 -1.21765E+03  2.14613E+03 -2.05832E+03 -3.94500E+02
 -1.00967E+03 -2.36194E+03  1.72036E+03 -2.26181E+03  2.23956E+03 -1.43774E+03  2.02100E+03  3.89757E+02
  1.57871E+03  7.11040E+02  1.10054E+03  2.32672E+02 -3.06793E+02  8.60170E+02  1.60126E+03 -1.71586E+02
  6.57558E+02 -4.72319E+02  2.66411E+03  1.07338E+03  6.54846E+02  3.37678E+03 -8.35397E+02  4.16035E+03
 -2.72914E+03  2.28308E+03 -3.47265E+03  6.29571E+02 -3.21497E+03 -1.23149E+03 -7.86019E+02 -1.58610E+03
  4.23891E+02 -2.22410E+03  1.48039E+03 -8.25004E+02  1.22711E+03  1.60266E+03 -1.03892E+03  1.82287E+03
 -2.26574E+03  8.34048E+02 -2.42849E+03 -1.99714E+03 -1.47635E+03 -3.09480E+03  4.48711E+02 -2.51888E+03
  9.86748E+02 -1.27170E+03  1.50760E+03  3.23377E+02  1.65936E+03  2.17514E+02  3.48764E+02  1.69705E+03
 -8.13047E+02 -2.72748E+01 -1.46326E+03 -6.92767E+02  5.32697E+02 -1.54787E+03  2.97440E+03 -1.76279E+03
  2.68194E+03  1.79338E+02  3.76819E+03  1.48277E+03  1.17059E+03  3.13107E+03 -3.33543E+02  2.85708E+03
 -2.60124E+03  6.18751E+02 -2.64045E+03 -5.15172E+02 -1.37995E+03 -2.34662E+03  5.28950E+02 -1.65197E+03
  2.36801E+03 -1.06629E+03  1.30820E+03  7.91227E+02  5.67314E+02  1.82210E+03  3.43871E+02  1.52532E+03
 -3.72758E+02  1.57523E+03 -9.85728E+02  3.06090E+02 -8.70074E+01  4.01007E+02 -9.06937E+02  7.09227E+02
 -6.83282E+02  1.31825E+03 -2.75745E+03  8.20839E+02 -2.79337E+03  1.06491E+02 -3.50254E+03 -1.74339E+03
 -1.64970E+03 -3.68438E+03  9.19652E+02 -4.70888E+03  1.93798E+03 -3.56450E+03  3.99178E+03 -1.43272E+03
  3.90503E+03  2.70371E+02  1.97646E+03  2.64823E+03 -7.09348E+01  2.46106E+03 -1.37092E+03  2.27110E+03
 -1.44886E+03  9.90380E+02 -8.48606E+02 -4.60363E+02 -6.73245E+02  4.61232E+02 -6.56190E+02 -1.03342E+02
 -1.33202E+03 -2.58969E+02 -1.01460E+03 -3.94056E+00  1.27273E+02 -8.84314E+02 -5.05647E+02 -1.34465E+03
  1.53141E+03 -9.75897E+02  1.18821E+03  5.10725E+02  1.91853E+03  1.53899E+03 -1.15646E+02  2.58230E+03
 -1.54935E+03  3.23222E+03 -2.80407E+03  1.94371E+03 -2.99479E+03 -2.95949E+02 -2.28288E+03 -1.90148E+03
 -1.14605E+03 -2.47128E+03  2.19106E+02 -2.06752E+03  1.26597E+03 -1.19874E+03  1.47045E+03  3.22519E+02
  1.01209E+03  6.27998E+02  7.85112E+01  6.20307E+02 -4.28249E+02  1.53558E+02  1.41945E+02 -4.73398E+02
  1.01629E+03  9.66602E+01  8.81546E+02  7.04157E+02  4.31744E+02  9.87308E+02  4.54138E+02  8.10605E+02
 -8.01398E+02  8.52520E+02 -1.09952E+03  1.87686E+02 -1.24983E+03 -6.66717E+02  1.56997E+02 -2.01141E+03
  1.16219E+03 -1.48615E+03  1.39182E+03 -1.53666E+02  1.55913E+03 -6.39814E+02  1.17576E+03  1.39835E+03
  3.10944E+02  1.18298E+03 -3.97718E+02  9.70551E+02 -6.95860E+02  1.03115E+03 -9.13915E+02  5.34236E+01
 -3.57553E+02 -2.03785E+02 -8.25698E+02 -1.16537E+02 -9.75572E+02  2.83404E+02 -1.23491E+03 -2.78954E+02
 -1.58165E+03 -8.23366E+01 -2.75400E+02 -1.38905E+03  9.42657E+02 -2.13781E+03  1.55448E+03 -6.27550E+02
  1.15236E+03  4.81771E+02  1.73963E+02  9.41621E+02 -2.43837E+01  1.47043E+03 -9.10538E+02  1.00106E+03
