 $NMID ID='MM_0lb_SNR800_12hz_g40_65.RAW', FMTDAT='(8E13.5)'
 TRAMP=1., VOLUME=1. $END
  3.09620E+05  5.63873E+02  3.37794E+05  2.50498E+05  8.44692E+04  3.37834E+05 -1.32840E+05  2.51062E+05
 -1.90108E+05  8.32705E+04 -1.11840E+05 -3.25020E+04  7.68222E+02 -5.02248E+04  5.40289E+04 -5.51220E+02
  3.55138E+04  5.26604E+04 -1.66713E+04  7.55375E+04 -6.11154E+04  6.39081E+04 -8.43892E+04  3.23053E+04
 -8.10027E+04 -1.12953E+04 -5.74986E+04 -5.15225E+04 -1.50832E+04 -6.99549E+04  2.73050E+04 -4.58665E+04
  4.00074E+04  3.80607E+03  1.65365E+04  4.76139E+04 -3.47912E+04  4.74986E+04 -6.70778E+04 -3.39447E+02
 -5.37455E+04 -5.68495E+04 -6.86727E+03 -7.72995E+04  3.42144E+04 -5.53912E+04  4.86304E+04 -1.74228E+04
  4.37713E+04  1.15846E+04  3.22534E+04  2.57630E+04  1.58158E+04  2.98159E+04 -5.34947E+03  2.73638E+04
 -2.21080E+04  1.20644E+04 -1.88117E+04 -4.92685E+03  5.76821E+03 -7.16407E+03  2.22877E+04  1.23474E+04
  7.00896E+03  3.54795E+04 -3.24936E+04  3.57532E+04 -6.34559E+04  2.35079E+03 -5.72333E+04 -4.33605E+04
 -1.25204E+04 -6.35957E+04  4.03915E+04 -4.54899E+04  5.87396E+04 -2.47306E+03  3.47497E+04  3.27033E+04
 -6.13591E+03  3.69325E+04 -3.04861E+04  1.62951E+04 -3.07760E+04 -4.39271E+03 -1.71042E+04 -1.10782E+04
 -8.55407E+03 -1.36033E+04 -6.13702E+02 -1.81671E+04  7.72006E+03 -2.33498E+04  1.55962E+04 -1.29830E+04
  1.13661E+04  5.30431E+03 -8.84591E+03  1.31929E+04 -2.18568E+04 -4.78957E+03 -8.52783E+03 -3.43218E+04
  2.34185E+04 -4.38711E+04  4.90411E+04 -2.00744E+04  4.60338E+04  1.97107E+04  1.58303E+04  4.47724E+04
 -1.56536E+04  3.41101E+04 -2.55565E+04  1.87830E+03 -1.02811E+04 -2.80099E+04  2.10867E+04 -3.42872E+04
  4.15817E+04 -9.42386E+03  3.62713E+04  2.40459E+04  1.89161E+04  4.71828E+04 -8.27266E+03  5.14557E+04
 -3.25709E+04  3.46247E+04 -4.30076E+04  9.66934E+03 -4.35446E+04 -1.70106E+04 -2.43740E+04 -3.87808E+04
  7.56072E+03 -3.86012E+04  3.19559E+04 -1.48048E+04  2.94539E+04  1.12458E+04  4.49066E+03  1.97026E+04
 -1.35628E+04  8.49585E+03 -1.04781E+04 -7.77430E+03  5.93537E+03 -1.10542E+04  1.79630E+04  5.98937E+03
  1.39301E+04  2.23153E+04 -5.71235E+03  2.54351E+04 -2.25449E+04  1.21421E+04 -2.86356E+04 -4.47559E+03
 -2.17154E+04 -1.74715E+04 -9.56319E+03 -2.15031E+04  4.30397E+03 -2.05854E+04  1.64713E+04 -1.89223E+04
  2.70964E+04 -1.30068E+04  3.36907E+04  3.30734E+03  2.40914E+04  2.06291E+04  4.11917E+03  3.74477E+04
 -1.81624E+04  3.07267E+04 -2.82663E+04  1.08180E+04 -2.10125E+04 -9.85012E+03 -4.59989E+03 -1.36033E+04
  1.58650E+03 -2.44158E+03 -5.55554E+03  7.00053E+03 -1.70403E+04  5.61375E+03 -1.72435E+04 -7.37201E+03
 -1.03404E+04 -1.98092E+04  5.35954E+03 -2.41377E+04  1.60163E+04 -1.71677E+04  1.91018E+04 -1.70879E+03
  1.21546E+04  1.37815E+04 -1.47737E+03  1.98728E+04 -1.38577E+04  1.10780E+04 -2.00492E+04 -4.09288E+03
 -1.45891E+04 -1.79558E+04 -1.66454E+03 -2.42347E+04  1.09117E+04 -1.96718E+04  2.01425E+04 -9.80142E+03
  1.87839E+04  1.82691E+02  1.35709E+04  4.62262E+03  7.23662E+03  1.05220E+03  9.81698E+03 -1.59799E+03
  1.79599E+04  2.99811E+03  2.04255E+04  1.56966E+04  1.40594E+04  3.18871E+04 -2.95033E+03  3.65528E+04
 -2.09167E+04  2.95725E+04 -3.40849E+04  1.48183E+04 -3.58402E+04 -2.50840E+03 -2.93959E+04 -2.07639E+04
 -1.25995E+04 -2.95830E+04  9.88797E+03 -2.63237E+04  2.32337E+04 -1.34261E+04  2.03298E+04  5.89323E+03
  7.52877E+03  1.51852E+04 -9.62699E+03  1.32958E+04 -1.70724E+04  2.86332E+03 -1.32411E+04 -1.05968E+04
 -1.27232E+02 -1.58987E+04  8.98045E+03 -1.21690E+04  1.08939E+04 -1.26321E+03  2.83433E+03  7.12826E+03
 -7.59666E+03  2.87389E+03 -6.90851E+03 -6.07927E+03 -9.46431E+02 -1.43125E+04  1.03963E+04 -1.52280E+04
  1.82844E+04 -7.79867E+03  1.99063E+04  3.21108E+03  1.69748E+04  1.42732E+04  8.06173E+03  2.21048E+04
 -3.66896E+03  2.40320E+04 -1.53565E+04  1.51660E+04 -1.71377E+04  3.32788E+03 -1.21501E+04 -4.23787E+03
 -5.61027E+03 -5.46931E+03 -1.00520E+03  7.13598E+02 -2.61718E+03  2.47683E+03 -5.43770E+03  4.52550E+03
 -1.13637E+04 -1.10998E+03 -1.19062E+04 -9.84395E+03 -4.95929E+03 -1.54651E+04  5.26926E+03 -1.25720E+04
  1.04080E+04 -5.23393E+03  7.22526E+03  3.11492E+03  2.75548E+02  4.77481E+03 -5.79427E+03 -3.30659E+02
 -5.52940E+03 -7.92779E+03 -1.09361E+03 -1.20563E+04  6.75508E+03 -1.26589E+04  1.56321E+04 -6.58343E+03
  1.81357E+04  1.40751E+03  1.28922E+04  1.04716E+04  2.26894E+03  1.45275E+04 -7.20679E+03  1.23356E+04
 -9.96882E+03  3.63715E+03 -4.81916E+03 -2.28811E+03  1.74942E+03 -3.25185E+03  6.66486E+03 -6.76730E+02
  5.95259E+03  5.44626E+03  1.24309E+03  9.68812E+03 -6.57087E+03  9.43925E+03 -1.18627E+04  2.34001E+03
 -8.20485E+03 -6.22604E+03  4.30149E+01 -1.02526E+04  6.45719E+03 -5.04729E+03  7.05599E+03  2.51231E+03
  1.36677E+03  6.67978E+03 -6.49490E+03  8.48788E+03 -9.76773E+03  3.67130E+03 -9.60587E+03 -2.94964E+03
 -5.70946E+03 -1.15729E+04  2.69130E+03 -1.25246E+04  1.10400E+04 -7.82670E+03  1.20439E+04  1.93164E+03
  7.45912E+03  9.66701E+03 -6.78807E+02  1.17851E+04 -8.45003E+03  6.57137E+03 -9.16087E+03 -1.02110E+03
 -8.42800E+03 -7.88764E+03 -1.77056E+03 -8.58559E+03  4.95107E+03 -7.44338E+03  5.49185E+03 -3.77058E+03
  3.81859E+03  1.11084E+03 -6.22111E+02  1.37624E+03 -1.74426E+02 -1.72694E+03  1.57407E+03 -4.72131E+03
  7.59240E+03 -2.72316E+03  1.09305E+04  1.17803E+03  1.07337E+04  7.37394E+03  7.98810E+03  1.45180E+04
 -2.85785E+03  1.67206E+04 -1.38617E+04  1.22677E+04 -1.83225E+04  2.18553E+03 -1.44763E+04 -5.77451E+03
 -7.09966E+03 -1.22610E+04 -8.15769E+01 -1.02708E+04  4.02277E+03 -5.34766E+03  3.55734E+03 -3.44254E+03
  2.53566E+03 -2.44575E+03  3.31169E+03 -3.03489E+03  4.70869E+03 -2.51420E+03  6.05121E+03 -4.09283E+02
  7.81245E+03  2.07684E+03  3.70187E+03  6.56490E+03 -2.07714E+03  7.26919E+03 -8.14473E+03  5.86549E+03
 -9.92304E+03 -1.17441E+03 -5.95769E+03 -6.60258E+03 -2.73719E+02 -1.07180E+04  6.01837E+03 -1.07539E+04
  1.11330E+04 -6.49194E+03  1.33811E+04  1.39941E+03  9.51224E+03  9.38393E+03  1.66085E+03  1.18661E+04
 -4.73958E+03  1.05471E+04 -6.81010E+03  3.46882E+03 -4.77652E+03 -1.38093E+03 -1.86318E+03 -1.21858E+03
 -1.14126E+03  1.55463E+02 -1.45018E+03  2.85635E+03 -4.51999E+03  1.82900E+03 -6.99858E+03 -7.93434E+02
 -4.55786E+03 -7.23586E+03  2.17482E+02 -9.98623E+03  5.95238E+03 -9.06034E+03  9.17537E+03 -2.92608E+03
  9.51630E+03  5.13353E+03  4.50318E+03  8.45338E+03 -2.03336E+03  9.61634E+03 -6.58735E+03  6.07188E+03
 -8.88669E+03  2.77161E+02 -6.75808E+03 -5.69615E+03 -1.13393E+03 -7.58759E+03  4.46818E+03 -5.88481E+03
  6.44392E+03 -2.19772E+03  4.05982E+03  1.62663E+03  1.30671E+03  3.06113E+03  1.14727E+03  1.37009E+03
  2.22981E+03  9.16967E+02  2.48714E+03  1.33915E+03  2.77238E+03  3.64046E+03  2.79894E+03  4.90226E+03
 -2.00977E+03  7.42612E+03 -6.42804E+03  7.68233E+03 -9.09192E+03  1.78245E+03 -1.02512E+04 -3.53009E+03
 -4.43664E+03 -9.32849E+03  1.41203E+03 -1.05004E+04  5.79735E+03 -6.72845E+03  7.84903E+03 -2.07746E+03
  5.84473E+03  3.70838E+03  1.19331E+03  5.81865E+03 -2.66920E+03  3.73492E+03 -3.63193E+03 -7.40801E+02
 -1.73374E+03 -3.78432E+03  2.40372E+03 -4.19921E+03  3.65558E+03 -1.94916E+03  3.75909E+03  7.14688E+02
  2.11258E+03  1.80078E+03  1.07250E+03  1.25036E+03 -7.53420E+02  1.46981E+03  1.53680E+03 -7.74183E+02
  1.36856E+03 -4.15002E+02  4.08352E+03  1.57727E+03  1.47156E+03  5.44369E+03 -7.28617E+02  6.81244E+03
 -4.43535E+03  4.13247E+03 -5.45594E+03  9.52413E+02 -5.59306E+03 -1.88924E+03 -1.70747E+03 -3.51680E+03
  6.71866E+02 -3.74748E+03  2.29325E+03 -1.56821E+03  1.82568E+03  2.00463E+03 -4.90419E+02  2.95993E+03
 -3.79372E+03  1.55247E+03 -4.09791E+03 -2.42862E+03 -2.35843E+03 -5.14805E+03  6.03374E+02 -5.00211E+03
  2.88551E+03 -2.79370E+03  3.46289E+03 -3.80704E+02  3.19804E+03  8.39223E+02  3.71396E+02  2.65861E+03
 -1.52483E+03  4.16732E+02 -2.57312E+03 -1.42841E+03  1.46371E+03 -3.47619E+03  4.54497E+03 -2.85538E+03
  5.43504E+03  5.72351E+02  5.94245E+03  3.15044E+03  2.04253E+03  5.43706E+03 -2.14465E+03  5.29277E+03
 -4.85915E+03  2.15766E+03 -4.77101E+03 -1.01334E+03 -2.58576E+03 -4.19356E+03  8.14848E+02 -3.65874E+03
  3.67710E+03 -1.71228E+03  2.88557E+03  1.52688E+03  7.85462E+02  3.35570E+03 -2.83068E+02  2.89841E+03
 -1.37494E+03  2.22019E+03 -1.56449E+03  8.05611E+02 -4.76046E+02  8.85690E+02 -1.15309E+03  1.19329E+03
 -1.83663E+03  2.00399E+03 -4.06420E+03  1.86116E+03 -5.81657E+03  2.42508E+02 -6.40681E+03 -3.78981E+03
 -3.05575E+03 -7.52941E+03  1.33829E+03 -8.74926E+03  4.81425E+03 -6.90742E+03  8.30017E+03 -2.71948E+03
  7.84372E+03  1.68626E+03  4.66575E+03  5.29803E+03 -3.53061E+02  5.79999E+03 -2.50648E+03  4.38361E+03
 -3.07891E+03  1.28715E+03 -1.93948E+03 -4.12764E+02 -8.68509E+02 -5.80819E+02 -8.78140E+02 -6.66507E+01
 -1.55108E+03  1.59816E+01 -1.80468E+03 -2.10670E+02 -2.29059E+02 -1.64544E+03  2.03585E+02 -2.35526E+03
  2.71070E+03 -1.91098E+03  3.12848E+03 -2.07541E+01  3.67609E+03  2.99889E+03  9.44308E+02  5.65846E+03
 -2.59059E+03  6.67302E+03 -5.72338E+03  3.83165E+03 -6.67139E+03 -8.01502E+02 -5.19520E+03 -4.66118E+03
 -2.32191E+03 -5.40728E+03  1.61346E+03 -5.15044E+03  3.70503E+03 -2.85357E+03  3.46149E+03  1.67687E+02
  2.26409E+03  1.51294E+03  1.59626E+01  1.56292E+03 -1.26732E+03 -2.08466E+02  7.31124E+01 -1.06043E+03
  1.84569E+03 -4.77900E+02  1.91830E+03  1.11803E+03  1.29881E+03  2.04497E+03  6.73522E+02  2.50583E+03
 -2.32597E+03  2.61330E+03 -3.44316E+03  1.61609E+02 -3.10299E+03 -2.49761E+03 -5.44568E+02 -4.70919E+03
  2.83726E+03 -3.62441E+03  3.88456E+03 -1.03151E+03  4.09504E+03  3.56318E+02  2.30668E+03  3.09621E+03
  7.54645E+02  3.38507E+03 -1.55566E+03  2.82501E+03 -2.53278E+03  1.86974E+03 -2.10593E+03  3.82786E+02
 -1.28388E+03 -1.86557E+02 -8.61243E+02  4.73444E+02 -1.70787E+03  6.85529E+02 -2.58228E+03 -7.66809E+02
 -2.88270E+03 -1.34025E+03 -8.97099E+02 -3.44248E+03  1.86841E+03 -4.24569E+03  3.05835E+03 -1.80188E+03
  3.44759E+03  5.51230E+02  1.35222E+03  2.43263E+03 -2.56354E+02  3.66495E+03 -2.64491E+03  2.29219E+03
