 $NMID ID='MM_0lb_SNR800_8hz_g50_71.RAW', FMTDAT='(8E13.5)'
 TRAMP=1., VOLUME=1. $END
  3.10447E+05  8.99796E+02  3.38240E+05  2.50801E+05  8.49314E+04  3.38437E+05 -1.32658E+05  2.52300E+05
 -1.91157E+05  8.38377E+04 -1.12537E+05 -3.24183E+04  3.28475E+01 -5.06198E+04  5.36740E+04 -5.65984E+02
  3.57138E+04  5.30117E+04 -1.64621E+04  7.67730E+04 -6.11162E+04  6.45405E+04 -8.56246E+04  3.26618E+04
 -8.26621E+04 -1.19711E+04 -5.82450E+04 -5.23015E+04 -1.50890E+04 -7.10599E+04  2.85264E+04 -4.68589E+04
  4.14384E+04  3.75420E+03  1.69382E+04  4.84038E+04 -3.48593E+04  4.84981E+04 -6.84373E+04  7.20896E+02
 -5.55713E+04 -5.76988E+04 -7.32538E+03 -7.94173E+04  3.52773E+04 -5.76570E+04  4.97901E+04 -1.86141E+04
  4.57630E+04  1.19468E+04  3.29853E+04  2.67927E+04  1.58929E+04  3.08823E+04 -5.96271E+03  2.74993E+04
 -2.22952E+04  1.19796E+04 -1.83691E+04 -5.96772E+03  7.43264E+03 -6.83278E+03  2.37242E+04  1.39042E+04
  7.08312E+03  3.75419E+04 -3.46132E+04  3.72694E+04 -6.61901E+04  1.90756E+03 -5.88182E+04 -4.48361E+04
 -1.26529E+04 -6.62199E+04  4.18444E+04 -4.76655E+04  6.17578E+04 -2.73306E+03  3.74237E+04  3.46939E+04
 -5.48813E+03  4.03285E+04 -3.18943E+04  1.93241E+04 -3.35110E+04 -3.27859E+03 -1.96097E+04 -1.24494E+04
 -9.62477E+03 -1.55878E+04 -4.05645E+01 -2.00258E+04  8.64587E+03 -2.34749E+04  1.59654E+04 -1.26255E+04
  1.03817E+04  6.21353E+03 -1.09584E+04  1.24883E+04 -2.40107E+04 -6.86695E+03 -8.51970E+03 -3.82778E+04
  2.50331E+04 -4.76164E+04  5.30047E+04 -2.08391E+04  4.91133E+04  2.09074E+04  1.73996E+04  4.75844E+04
 -1.65958E+04  3.66856E+04 -2.81806E+04  2.92470E+03 -1.18765E+04 -2.98607E+04  2.17208E+04 -3.77606E+04
  4.52649E+04 -1.15933E+04  4.13273E+04  2.50032E+04  2.17749E+04  5.22113E+04 -8.67439E+03  5.73415E+04
 -3.63427E+04  3.92074E+04 -4.84797E+04  1.14321E+04 -4.86717E+04 -1.88231E+04 -2.64694E+04 -4.34627E+04
  7.68146E+03 -4.28187E+04  3.47823E+04 -1.74057E+04  3.26074E+04  1.12065E+04  5.49736E+03  2.11404E+04
 -1.37467E+04  9.73202E+03 -1.13405E+04 -7.87424E+03  5.58191E+03 -1.14334E+04  1.89335E+04  5.15494E+03
  1.47733E+04  2.27242E+04 -5.01312E+03  2.75006E+04 -2.36920E+04  1.47075E+04 -3.18998E+04 -2.75266E+03
 -2.64910E+04 -1.87127E+04 -1.27147E+04 -2.62768E+04  4.72095E+03 -2.70525E+04  2.05279E+04 -2.43396E+04
  3.31554E+04 -1.48307E+04  3.94013E+04  5.52727E+03  2.75874E+04  2.52199E+04  4.57927E+03  4.22299E+04
 -2.00848E+04  3.46325E+04 -3.11055E+04  1.19776E+04 -2.25752E+04 -1.02481E+04 -5.01331E+03 -1.30811E+04
  2.66319E+02 -8.40147E+02 -8.66619E+03  8.42603E+03 -2.11322E+04  5.11495E+03 -2.09919E+04 -1.01632E+04
 -1.26871E+04 -2.44180E+04  6.52692E+03 -2.86226E+04  1.90717E+04 -2.04333E+04  2.33029E+04 -1.95283E+03
  1.51391E+04  1.66502E+04 -1.23797E+03  2.41273E+04 -1.76075E+04  1.41385E+04 -2.42742E+04 -5.38799E+03
 -1.81747E+04 -2.13162E+04 -2.51865E+03 -2.88052E+04  1.30420E+04 -2.48385E+04  2.43929E+04 -1.31173E+04
  2.25768E+04 -2.41602E+02  1.67817E+04  4.97556E+03  9.34552E+03  1.43189E+03  1.25067E+04 -2.50239E+03
  2.37744E+04  2.47620E+03  2.67944E+04  1.85863E+04  1.82763E+04  3.96148E+04 -2.63436E+03  4.70143E+04
 -2.64425E+04  3.87137E+04 -4.36226E+04  2.06123E+04 -4.68846E+04 -3.39395E+03 -3.82574E+04 -2.82451E+04
 -1.50699E+04 -3.92560E+04  1.41935E+04 -3.45273E+04  2.93547E+04 -1.54950E+04  2.55287E+04  8.53520E+03
  8.14466E+03  1.93365E+04 -1.26534E+04  1.65296E+04 -2.07212E+04  2.87604E+03 -1.58815E+04 -1.33062E+04
  1.65731E+02 -2.06288E+04  1.09589E+04 -1.46643E+04  1.38572E+04 -1.12222E+03  3.31795E+03  9.48658E+03
 -9.18341E+03  4.63221E+03 -1.05512E+04 -7.04229E+03 -1.80634E+03 -1.93338E+04  1.24440E+04 -2.06312E+04
  2.44531E+04 -1.17992E+04  2.84665E+04  3.26263E+03  2.42315E+04  1.97001E+04  1.11338E+04  3.13658E+04
 -6.05471E+03  3.31459E+04 -2.17153E+04  2.02395E+04 -2.42163E+04  4.11627E+03 -1.59755E+04 -6.77469E+03
 -6.59534E+03 -7.94936E+03 -4.60913E+02  4.78518E+02 -3.20273E+03  3.72903E+03 -8.25226E+03  5.47052E+03
 -1.49648E+04 -1.20571E+03 -1.55453E+04 -1.25817E+04 -6.45008E+03 -2.08500E+04  6.90374E+03 -1.64335E+04
  1.38466E+04 -6.98989E+03  9.42077E+03  4.03333E+03 -5.84055E+02  6.70300E+03 -8.36934E+03 -2.93279E+02
 -8.02641E+03 -1.05095E+04 -1.13858E+03 -1.64066E+04  9.77541E+03 -1.80754E+04  2.15771E+04 -9.56812E+03
  2.50603E+04  3.06351E+03  1.82011E+04  1.53002E+04  3.88530E+03  2.05135E+04 -9.92296E+03  1.68270E+04
 -1.36716E+04  5.06052E+03 -6.88740E+03 -3.86688E+03  2.40030E+03 -4.74274E+03  8.22523E+03 -9.56969E+02
  7.61187E+03  7.47531E+03  1.00623E+03  1.39050E+04 -9.82983E+03  1.32433E+04 -1.65287E+04  2.54424E+03
 -1.17219E+04 -8.63665E+03  8.35752E+01 -1.47287E+04  9.43256E+03 -7.36509E+03  9.90569E+03  3.66924E+03
  2.31265E+03  1.10769E+04 -8.82103E+03  1.29177E+04 -1.50244E+04  6.02439E+03 -1.52974E+04 -5.75850E+03
 -8.65019E+03 -1.71493E+04  4.14671E+03 -1.94129E+04  1.67669E+04 -1.17083E+04  1.82718E+04  3.41085E+03
  1.09264E+04  1.42995E+04 -1.68013E+03  1.71222E+04 -1.25717E+04  9.11673E+03 -1.40440E+04 -1.22880E+03
 -1.16072E+04 -1.14019E+04 -1.98072E+03 -1.33720E+04  6.84031E+03 -1.01688E+04  8.80179E+03 -3.61649E+03
  5.53414E+03  2.43506E+03 -1.29187E+03  1.95781E+03 -1.46320E+03 -3.99742E+03  3.38336E+03 -8.53695E+03
  1.25828E+04 -5.85491E+03  1.78743E+04  1.56691E+03  1.75534E+04  1.25227E+04  1.06136E+04  2.29657E+04
 -5.62125E+03  2.64124E+04 -2.19029E+04  1.92807E+04 -2.81324E+04  3.86979E+03 -2.29714E+04 -1.01269E+04
 -1.12322E+04 -1.88838E+04 -8.89888E+02 -1.62224E+04  5.62104E+03 -9.23444E+03  5.71202E+03 -5.85062E+03
  4.07550E+03 -3.15600E+03  4.56431E+03 -3.95108E+03  6.21126E+03 -3.81019E+03  8.56938E+03 -1.92710E+03
  1.19133E+04  2.60368E+03  6.68194E+03  1.05434E+04 -2.66482E+03  1.26749E+04 -1.23634E+04  9.71899E+03
 -1.61520E+04 -1.53365E+03 -1.09196E+04 -1.13302E+04 -1.81717E+03 -1.79620E+04  9.39787E+03 -1.78465E+04
  1.82059E+04 -9.79260E+03  2.17039E+04  3.27017E+03  1.48886E+04  1.54918E+04  1.75860E+03  1.99790E+04
 -8.27159E+03  1.55365E+04 -1.17808E+04  5.43514E+03 -8.07987E+03 -1.62144E+03 -3.04471E+03 -2.39109E+03
 -1.68666E+03 -2.84373E+01 -2.48438E+03  3.09110E+03 -7.05741E+03  2.97079E+03 -1.11600E+04 -1.24420E+03
 -8.22480E+03 -1.08192E+04 -4.86076E+02 -1.66978E+04  9.88891E+03 -1.54796E+04  1.64119E+04 -4.92983E+03
  1.62454E+04  8.33595E+03  8.14812E+03  1.52943E+04 -3.33636E+03  1.67519E+04 -1.22632E+04  1.02881E+04
 -1.58339E+04  4.52476E+02 -1.19654E+04 -1.03951E+04 -8.29823E+02 -1.44096E+04  7.57278E+03 -1.04322E+04
  1.08920E+04 -3.17914E+03  7.05754E+03  2.78980E+03  2.89702E+03  5.22462E+03  1.58602E+03  2.45905E+03
  2.75680E+03  1.44545E+03  4.07539E+03  2.13318E+03  4.63501E+03  5.94555E+03  4.34476E+03  8.95146E+03
 -3.35017E+03  1.32243E+04 -1.16431E+04  1.33279E+04 -1.76991E+04  3.07959E+03 -1.78930E+04 -7.42503E+03
 -8.37255E+03 -1.71353E+04  2.68143E+03 -1.89083E+04  1.03852E+04 -1.17533E+04  1.42916E+04 -3.14634E+03
  1.06627E+04  6.04933E+03  2.47616E+03  9.79177E+03 -4.58127E+03  6.71824E+03 -7.17530E+03 -5.69632E+02
 -3.33978E+03 -7.27393E+03  4.14485E+03 -7.52898E+03  6.73633E+03 -3.32196E+03  7.39978E+03  1.33489E+03
  4.53743E+03  3.91825E+03  1.81702E+03  3.24371E+03 -1.01624E+03  1.85632E+03  1.60571E+03 -8.39545E+02
  3.04352E+03 -7.01911E+02  7.02082E+03  3.05131E+03  4.21708E+03  9.20505E+03 -1.42357E+03  1.23301E+04
 -8.25659E+03  8.60410E+03 -1.09996E+04  2.19553E+03 -9.99816E+03 -3.69835E+03 -3.78075E+03 -6.90915E+03
  8.90440E+02 -6.89754E+03  4.87902E+03 -3.39959E+03  3.87193E+03  3.26760E+03 -1.95644E+03  5.90241E+03
 -6.99026E+03  3.27317E+03 -8.08235E+03 -4.17166E+03 -4.39098E+03 -9.52677E+03  1.51399E+03 -1.00188E+04
  5.46620E+03 -5.85461E+03  7.08590E+03 -5.56651E+02  6.30428E+03  2.77895E+03  6.35066E+02  5.08644E+03
 -3.19588E+03  1.53183E+03 -4.11568E+03 -3.66533E+03  1.46711E+03 -7.28219E+03  8.97564E+03 -6.10044E+03
  1.15807E+04  1.32320E+03  1.04463E+04  8.12669E+03  3.30015E+03  1.18201E+04 -4.27906E+03  1.16596E+04
 -9.49348E+03  5.07520E+03 -9.91469E+03 -1.50557E+03 -5.29172E+03 -7.80076E+03  1.96113E+03 -7.34283E+03
  7.21253E+03 -3.77271E+03  6.25352E+03  2.90007E+03  2.41250E+03  6.88652E+03 -1.34552E+03  5.76493E+03
 -3.18407E+03  3.79325E+03 -3.26679E+03  1.17483E+03 -1.37368E+03  9.23863E+02 -1.86916E+03  2.18076E+03
 -3.28970E+03  4.68402E+03 -7.51998E+03  4.05129E+03 -1.17540E+04  2.04904E+02 -1.28662E+04 -7.51360E+03
 -7.04378E+03 -1.54307E+04  2.93785E+03 -1.77901E+04  1.15428E+04 -1.47534E+04  1.70579E+04 -5.67787E+03
  1.61199E+04  3.48214E+03  1.07002E+04  1.05942E+04  1.18122E+03  1.23004E+04 -4.73732E+03  9.40217E+03
 -7.24781E+03  3.15175E+03 -4.21731E+03 -1.13529E+03 -1.63708E+03 -9.92393E+02 -6.22908E+02  6.45225E+01
 -2.27104E+03  4.93401E+02 -2.53392E+03 -5.91024E+02 -1.01559E+03 -3.16693E+03  1.67626E+02 -4.74292E+03
  5.75638E+03 -3.77129E+03  7.45458E+03 -1.38806E+02  8.87649E+03  6.87433E+03  2.86612E+03  1.24748E+04
 -5.71197E+03  1.41601E+04 -1.32307E+04  8.26140E+03 -1.54423E+04 -1.18595E+03 -1.14805E+04 -9.31290E+03
 -4.66293E+03 -1.28231E+04  3.15252E+03 -1.21759E+04  8.10500E+03 -6.42534E+03  8.58555E+03  6.90711E+02
  4.43080E+03  4.47887E+03 -4.34375E+02  3.64077E+03 -2.44447E+03 -2.06351E+02  2.42771E+02 -2.88691E+03
  4.17136E+03 -2.65740E+03  5.33999E+03  1.08169E+03  3.18772E+03  5.36023E+03  2.55051E+02  6.97735E+03
 -5.67095E+03  5.63280E+03 -8.95757E+03  6.25717E+02 -7.32067E+03 -6.09692E+03 -8.53528E+02 -1.09523E+04
  6.13840E+03 -8.86777E+03  9.86119E+03 -2.70285E+03  9.72075E+03  2.20024E+03  5.91584E+03  7.66318E+03
  1.09729E+03  8.43051E+03 -3.40151E+03  6.70424E+03 -5.52490E+03  3.65534E+03 -4.79750E+03  7.50822E+02
 -2.19362E+03 -6.18130E+02 -2.79893E+03  1.14043E+03 -4.43711E+03  1.26371E+03 -6.38758E+03 -1.04705E+03
 -6.11897E+03 -4.80221E+03 -1.51293E+03 -8.88548E+03  3.81008E+03 -9.38928E+03  7.93784E+03 -4.56302E+03
  8.45389E+03  1.31276E+03  4.53011E+03  6.55834E+03 -3.68916E+02  8.45905E+03 -6.92050E+03  5.46287E+03
