 $NMID ID='MM_0lb_SNR800_11hz_g40_94.RAW', FMTDAT='(8E13.5)'
 TRAMP=1., VOLUME=1. $END
  3.09887E+05  6.72229E+02  3.37674E+05  2.50688E+05  8.45352E+04  3.38461E+05 -1.32437E+05  2.51182E+05
 -1.90091E+05  8.37226E+04 -1.12286E+05 -3.25746E+04  6.86888E+02 -5.06596E+04  5.36143E+04 -2.89250E+02
  3.54251E+04  5.28363E+04 -1.64202E+04  7.55191E+04 -6.07541E+04  6.40838E+04 -8.45658E+04  3.23254E+04
 -8.14925E+04 -1.16657E+04 -5.76828E+04 -5.14638E+04 -1.51444E+04 -7.05408E+04  2.81229E+04 -4.61654E+04
  4.06043E+04  3.75646E+03  1.60264E+04  4.80893E+04 -3.45558E+04  4.77516E+04 -6.73069E+04 -2.66983E+02
 -5.38358E+04 -5.71620E+04 -6.99474E+03 -7.76768E+04  3.41586E+04 -5.57149E+04  4.85435E+04 -1.71186E+04
  4.37453E+04  1.09186E+04  3.22033E+04  2.61318E+04  1.58930E+04  2.95542E+04 -5.40507E+03  2.75483E+04
 -2.24714E+04  1.21630E+04 -1.85581E+04 -5.37358E+03  6.23074E+03 -7.38619E+03  2.25967E+04  1.26474E+04
  7.09492E+03  3.57586E+04 -3.25896E+04  3.62108E+04 -6.43255E+04  2.30500E+03 -5.75649E+04 -4.36732E+04
 -1.23774E+04 -6.40019E+04  4.04497E+04 -4.59803E+04  5.94563E+04 -2.31983E+03  3.46262E+04  3.30145E+04
 -5.58992E+03  3.71999E+04 -3.08246E+04  1.72109E+04 -3.17142E+04 -3.88278E+03 -1.74918E+04 -1.12111E+04
 -8.81895E+03 -1.39885E+04 -2.75634E+02 -1.89499E+04  8.22058E+03 -2.33827E+04  1.58931E+04 -1.30238E+04
  1.11477E+04  5.26743E+03 -9.09214E+03  1.30988E+04 -2.20034E+04 -5.44221E+03 -8.64507E+03 -3.51204E+04
  2.38121E+04 -4.47288E+04  4.99249E+04 -2.00246E+04  4.64343E+04  2.01188E+04  1.64336E+04  4.53826E+04
 -1.57788E+04  3.45161E+04 -2.65335E+04  2.08394E+03 -1.04999E+04 -2.81144E+04  2.13162E+04 -3.47637E+04
  4.21822E+04 -9.87438E+03  3.76278E+04  2.42145E+04  1.94096E+04  4.81069E+04 -8.00973E+03  5.27615E+04
 -3.30527E+04  3.56382E+04 -4.44169E+04  1.01456E+04 -4.48008E+04 -1.75360E+04 -2.45420E+04 -3.91681E+04
  7.28314E+03 -3.94691E+04  3.23724E+04 -1.57439E+04  3.05428E+04  1.07091E+04  4.48862E+03  1.97075E+04
 -1.35471E+04  8.69201E+03 -1.08580E+04 -7.56933E+03  5.89427E+03 -1.05810E+04  1.81894E+04  5.79544E+03
  1.40749E+04  2.23195E+04 -5.49678E+03  2.58319E+04 -2.27561E+04  1.26418E+04 -2.92537E+04 -4.00015E+03
 -2.24714E+04 -1.76740E+04 -9.75679E+03 -2.25064E+04  4.16187E+03 -2.20602E+04  1.73934E+04 -2.01585E+04
  2.85927E+04 -1.31575E+04  3.43910E+04  3.53758E+03  2.52110E+04  2.17962E+04  3.89185E+03  3.84968E+04
 -1.85908E+04  3.17712E+04 -2.89493E+04  1.10651E+04 -2.13736E+04 -1.05762E+04 -4.84850E+03 -1.32531E+04
  1.21705E+03 -2.37594E+03 -6.10512E+03  7.18525E+03 -1.82206E+04  5.35481E+03 -1.78563E+04 -7.93986E+03
 -1.10211E+04 -2.05667E+04  5.74638E+03 -2.48585E+04  1.64147E+04 -1.73842E+04  2.01461E+04 -1.82848E+03
  1.26747E+04  1.41774E+04 -1.23265E+03  2.08249E+04 -1.44211E+04  1.18777E+04 -2.07907E+04 -4.35576E+03
 -1.52716E+04 -1.88052E+04 -1.66835E+03 -2.51224E+04  1.15630E+04 -2.06756E+04  2.11515E+04 -1.06504E+04
  1.95254E+04  9.73462E+01  1.43121E+04  4.73210E+03  7.65707E+03  1.26212E+03  1.07490E+04 -1.93373E+03
  1.91555E+04  2.37130E+03  2.18219E+04  1.63685E+04  1.44763E+04  3.33377E+04 -2.81325E+03  3.81201E+04
 -2.23154E+04  3.16465E+04 -3.55221E+04  1.58605E+04 -3.81038E+04 -2.58585E+03 -3.15634E+04 -2.20466E+04
 -1.30371E+04 -3.16252E+04  1.10499E+04 -2.77776E+04  2.43627E+04 -1.40088E+04  2.14568E+04  6.58081E+03
  7.83762E+03  1.61674E+04 -1.02598E+04  1.37906E+04 -1.79077E+04  2.72533E+03 -1.33128E+04 -1.11345E+04
 -2.20924E+02 -1.71569E+04  8.83830E+03 -1.25892E+04  1.14662E+04 -1.26423E+03  2.52770E+03  7.39261E+03
 -7.77446E+03  3.20053E+03 -7.19114E+03 -6.01946E+03 -1.26438E+03 -1.50612E+04  1.08655E+04 -1.62676E+04
  1.92931E+04 -8.87196E+03  2.13380E+04  3.53860E+03  1.87603E+04  1.57288E+04  8.58194E+03  2.42587E+04
 -4.35609E+03  2.56261E+04 -1.67598E+04  1.62275E+04 -1.88573E+04  3.82657E+03 -1.31512E+04 -4.47078E+03
 -5.42056E+03 -6.02553E+03 -7.73368E+02  1.14197E+03 -2.76116E+03  3.09423E+03 -6.02101E+03  5.13814E+03
 -1.20030E+04 -6.85499E+02 -1.30064E+04 -9.94979E+03 -5.10595E+03 -1.67497E+04  5.37451E+03 -1.31351E+04
  1.12907E+04 -5.58573E+03  7.85797E+03  3.31647E+03  3.28446E+02  5.24521E+03 -6.39169E+03 -5.84332E+01
 -5.80535E+03 -8.74114E+03 -8.87478E+02 -1.28015E+04  7.18355E+03 -1.36320E+04  1.64509E+04 -6.97613E+03
  1.95029E+04  1.48908E+03  1.42999E+04  1.16805E+04  2.77709E+03  1.53288E+04 -7.59027E+03  1.29642E+04
 -1.03253E+04  3.75276E+03 -5.23988E+03 -2.62868E+03  1.76784E+03 -3.54665E+03  6.95567E+03 -7.18982E+02
  6.42748E+03  6.01520E+03  1.33319E+03  1.06899E+04 -7.55651E+03  1.01401E+04 -1.24939E+04  2.44892E+03
 -8.22382E+03 -6.48686E+03  2.35070E+02 -1.11626E+04  7.09387E+03 -5.55356E+03  7.29758E+03  2.57880E+03
  1.22721E+03  7.91409E+03 -6.57033E+03  9.15572E+03 -1.06659E+04  3.90068E+03 -1.08050E+04 -4.07844E+03
 -6.24631E+03 -1.26492E+04  3.20459E+03 -1.43318E+04  1.21341E+04 -8.50823E+03  1.32471E+04  2.29692E+03
  7.70062E+03  1.06618E+04 -9.25406E+02  1.29394E+04 -9.52063E+03  7.18312E+03 -1.01602E+04 -1.20574E+03
 -9.17894E+03 -8.49210E+03 -1.85437E+03 -9.51202E+03  4.97341E+03 -7.77953E+03  6.30133E+03 -3.26321E+03
  4.21733E+03  1.20850E+03 -5.01134E+02  1.99671E+03 -3.81120E+02 -2.28486E+03  1.74374E+03 -5.78582E+03
  8.74211E+03 -3.45206E+03  1.21720E+04  1.55900E+03  1.20406E+04  7.97970E+03  8.53384E+03  1.62065E+04
 -3.66345E+03  1.82417E+04 -1.54264E+04  1.37408E+04 -2.01087E+04  2.80212E+03 -1.59338E+04 -6.87743E+03
 -8.10537E+03 -1.30428E+04 -2.68593E+02 -1.11222E+04  4.08871E+03 -6.22900E+03  3.99945E+03 -4.13073E+03
  3.17712E+03 -2.80162E+03  3.29536E+03 -3.47626E+03  4.79192E+03 -2.72589E+03  6.50517E+03 -8.76622E+02
  9.00590E+03  2.15977E+03  4.24124E+03  7.20711E+03 -2.06597E+03  8.18404E+03 -8.79785E+03  6.47361E+03
 -1.11614E+04 -1.37038E+03 -6.57484E+03 -7.51352E+03 -7.41897E+02 -1.18774E+04  6.56197E+03 -1.20579E+04
  1.23110E+04 -6.97723E+03  1.49466E+04  1.71450E+03  1.03738E+04  1.04706E+04  1.88215E+03  1.35282E+04
 -5.57838E+03  1.09962E+04 -7.90440E+03  3.92556E+03 -5.16236E+03 -1.47321E+03 -2.06250E+03 -1.45452E+03
 -1.28626E+03  1.99256E+02 -2.17640E+03  2.39724E+03 -4.75864E+03  1.84239E+03 -8.12531E+03 -9.01583E+02
 -5.20900E+03 -7.70594E+03  5.07318E+01 -1.07741E+04  6.72440E+03 -9.68906E+03  1.08136E+04 -3.10014E+03
  1.08266E+04  5.46291E+03  5.15451E+03  9.61278E+03 -1.90044E+03  1.10128E+04 -7.79043E+03  6.50701E+03
 -1.04549E+04  1.92122E+02 -7.87670E+03 -6.77656E+03 -9.61574E+02 -9.35345E+03  5.03582E+03 -6.53455E+03
  6.60261E+03 -2.33974E+03  4.92913E+03  1.53595E+03  2.03529E+03  3.46151E+03  1.15493E+03  1.61384E+03
  2.27274E+03  1.12038E+03  2.43276E+03  1.80550E+03  3.29247E+03  3.68485E+03  2.85993E+03  5.56884E+03
 -2.32205E+03  8.35253E+03 -7.62139E+03  9.01653E+03 -1.06419E+04  2.38824E+03 -1.15314E+04 -4.14571E+03
 -5.31025E+03 -1.10641E+04  1.61542E+03 -1.20439E+04  6.55764E+03 -7.48356E+03  8.83943E+03 -1.79968E+03
  6.89137E+03  4.37355E+03  1.51447E+03  6.24780E+03 -2.73261E+03  3.97739E+03 -4.37911E+03 -9.04427E+02
 -1.67051E+03 -4.81787E+03  2.35178E+03 -4.68112E+03  4.11629E+03 -2.21771E+03  4.28886E+03  1.01416E+03
  2.32207E+03  1.80124E+03  1.10962E+03  1.23482E+03 -4.37891E+02  1.53100E+03  1.20376E+03 -6.64311E+02
  1.30584E+03 -6.13348E+02  4.39287E+03  1.88567E+03  2.14641E+03  6.06290E+03 -8.07157E+02  7.80831E+03
 -4.86377E+03  4.88358E+03 -6.90266E+03  1.34663E+03 -6.05458E+03 -2.47995E+03 -2.19329E+03 -3.88909E+03
  5.97164E+02 -4.02728E+03  3.17740E+03 -2.08945E+03  2.49718E+03  2.45155E+03 -1.16559E+03  3.39440E+03
 -4.27227E+03  1.97133E+03 -4.72409E+03 -2.48963E+03 -2.98512E+03 -6.19378E+03  8.51306E+02 -5.85586E+03
  3.34178E+03 -3.63846E+03  4.02244E+03 -6.62801E+02  3.79335E+03  1.39077E+03  6.00955E+02  2.99785E+03
 -1.84680E+03  8.16582E+02 -2.69722E+03 -2.03594E+03  9.13453E+02 -4.11204E+03  5.06336E+03 -3.41128E+03
  6.44043E+03  4.31641E+02  6.78095E+03  4.12059E+03  2.26026E+03  6.79070E+03 -2.18730E+03  6.42015E+03
 -5.49540E+03  2.48348E+03 -5.81908E+03 -1.04779E+03 -3.14542E+03 -4.47309E+03  9.97666E+02 -3.80962E+03
  4.18999E+03 -2.51297E+03  3.59017E+03  1.87060E+03  1.08592E+03  4.08596E+03 -6.69789E+02  3.58930E+03
 -1.74964E+03  2.48266E+03 -1.61705E+03  7.55955E+02 -4.34715E+02  7.23854E+02 -1.20316E+03  1.80527E+03
 -1.78679E+03  2.70490E+03 -4.80692E+03  2.54323E+03 -6.59286E+03 -1.22615E+02 -7.68604E+03 -4.32038E+03
 -4.11188E+03 -9.01638E+03  1.74882E+03 -1.07290E+04  6.11980E+03 -8.12552E+03  9.80383E+03 -3.07437E+03
  9.07755E+03  1.59256E+03  5.40887E+03  6.33858E+03  4.24647E+02  7.03247E+03 -2.76794E+03  5.47129E+03
 -3.93178E+03  1.92162E+03 -2.61303E+03 -6.34644E+02 -1.04358E+03 -3.54377E+02 -5.03946E+02  1.43625E+02
 -1.54876E+03  1.80435E+02 -1.79423E+03 -3.54439E+02 -2.37296E+02 -1.67081E+03 -2.31312E+01 -2.68349E+03
  3.26334E+03 -2.25508E+03  4.04432E+03  3.26332E+02  4.55500E+03  3.75705E+03  9.89165E+02  6.73637E+03
 -3.18809E+03  7.94626E+03 -7.26970E+03  4.65876E+03 -7.96045E+03 -5.78648E+02 -5.84657E+03 -4.59206E+03
 -2.52327E+03 -6.92418E+03  1.25998E+03 -6.37047E+03  4.08226E+03 -3.38978E+03  4.37540E+03  4.28493E+02
  2.45232E+03  2.23745E+03  1.75379E+02  1.65096E+03 -1.52847E+03 -3.67506E+02  2.11889E+02 -1.80622E+03
  2.05803E+03 -3.29507E+02  2.59193E+03  8.61266E+02  1.82967E+03  2.75503E+03  3.78848E+02  3.30618E+03
 -3.00911E+03  3.00218E+03 -4.48851E+03  6.13194E+02 -3.85405E+03 -3.11540E+03 -5.71482E+02 -5.27221E+03
  3.03093E+03 -4.50346E+03  4.75219E+03 -1.33582E+03  5.19851E+03  9.35270E+02  2.70590E+03  3.90860E+03
  9.29055E+02  4.11985E+03 -1.44253E+03  3.72789E+03 -2.56744E+03  2.09769E+03 -2.44340E+03  1.42146E+02
 -9.80257E+02 -2.11462E+02 -1.59542E+03  6.03282E+02 -2.37598E+03  7.82743E+02 -3.34187E+03 -5.74878E+02
 -3.59326E+03 -2.13109E+03 -1.10796E+03 -4.68843E+03  2.29956E+03 -4.87526E+03  3.67905E+03 -2.06174E+03
  4.25299E+03  6.86500E+02  2.41267E+03  3.04008E+03 -5.84667E+02  4.40005E+03 -3.21715E+03  2.65841E+03
