 $NMID ID='MM_0lb_SNR800_10hz_g45_9.RAW', FMTDAT='(8E13.5)'
 TRAMP=1., VOLUME=1. $END
  3.09823E+05  1.22408E+02  3.37921E+05  2.50744E+05  8.47082E+04  3.38524E+05 -1.32713E+05  2.51721E+05
 -1.90583E+05  8.36764E+04 -1.12292E+05 -3.25786E+04  3.03812E+02 -5.06769E+04  5.35047E+04 -8.56970E+02
  3.54032E+04  5.31557E+04 -1.66426E+04  7.61929E+04 -6.14137E+04  6.42375E+04 -8.51080E+04  3.22930E+04
 -8.21177E+04 -1.16042E+04 -5.76345E+04 -5.18758E+04 -1.50415E+04 -7.06826E+04  2.83060E+04 -4.63508E+04
  4.04192E+04  4.05786E+03  1.64711E+04  4.83086E+04 -3.47418E+04  4.74507E+04 -6.76961E+04  1.71806E+02
 -5.46383E+04 -5.72842E+04 -7.57895E+03 -7.82399E+04  3.44867E+04 -5.62854E+04  4.90011E+04 -1.77278E+04
  4.41615E+04  1.15047E+04  3.25773E+04  2.61879E+04  1.62350E+04  3.02297E+04 -5.56515E+03  2.75435E+04
 -2.25804E+04  1.24621E+04 -1.81316E+04 -5.48639E+03  6.58547E+03 -7.47226E+03  2.33308E+04  1.35017E+04
  6.92705E+03  3.70761E+04 -3.34095E+04  3.66015E+04 -6.52524E+04  2.44607E+03 -5.80432E+04 -4.39503E+04
 -1.24442E+04 -6.51443E+04  4.09730E+04 -4.67452E+04  6.00494E+04 -2.42179E+03  3.60792E+04  3.36500E+04
 -5.71526E+03  3.81978E+04 -3.14234E+04  1.82346E+04 -3.23654E+04 -3.83052E+03 -1.86662E+04 -1.15066E+04
 -9.03947E+03 -1.42108E+04 -4.54727E+02 -1.91153E+04  8.07010E+03 -2.34631E+04  1.55410E+04 -1.21683E+04
  1.06734E+04  5.83303E+03 -9.82944E+03  1.28629E+04 -2.30689E+04 -6.14989E+03 -8.32796E+03 -3.62741E+04
  2.41896E+04 -4.58954E+04  5.07190E+04 -2.05955E+04  4.78822E+04  2.05779E+04  1.65605E+04  4.61915E+04
 -1.67302E+04  3.52276E+04 -2.68025E+04  2.36284E+03 -1.09355E+04 -2.90906E+04  2.15421E+04 -3.59055E+04
  4.34411E+04 -1.04189E+04  3.89230E+04  2.44937E+04  2.05749E+04  4.97450E+04 -8.47848E+03  5.42758E+04
 -3.43736E+04  3.71305E+04 -4.59152E+04  1.04769E+04 -4.58720E+04 -1.78012E+04 -2.51004E+04 -4.10464E+04
  7.48090E+03 -4.08070E+04  3.34826E+04 -1.61923E+04  3.13014E+04  1.13603E+04  4.83394E+03  2.04654E+04
 -1.34292E+04  8.99683E+03 -1.10329E+04 -7.62096E+03  5.67141E+03 -1.13867E+04  1.83238E+04  5.57717E+03
  1.42853E+04  2.25090E+04 -4.79813E+03  2.65396E+04 -2.31854E+04  1.36520E+04 -3.04578E+04 -3.14993E+03
 -2.37432E+04 -1.78840E+04 -1.09825E+04 -2.39523E+04  4.08848E+03 -2.39386E+04  1.87865E+04 -2.11162E+04
  3.04081E+04 -1.38572E+04  3.63357E+04  4.47490E+03  2.58712E+04  2.31737E+04  4.21894E+03  3.98309E+04
 -1.90669E+04  3.25480E+04 -2.95641E+04  1.17147E+04 -2.18331E+04 -1.06321E+04 -4.44921E+03 -1.28344E+04
  7.73205E+02 -1.62869E+03 -6.72607E+03  7.99208E+03 -1.88269E+04  5.04141E+03 -1.92459E+04 -8.68259E+03
 -1.12021E+04 -2.19966E+04  5.78273E+03 -2.61007E+04  1.74256E+04 -1.85412E+04  2.14001E+04 -1.90455E+03
  1.38274E+04  1.50928E+04 -1.33015E+03  2.21063E+04 -1.61123E+04  1.25832E+04 -2.21572E+04 -4.64010E+03
 -1.62561E+04 -1.98865E+04 -2.00637E+03 -2.64568E+04  1.22481E+04 -2.18082E+04  2.19441E+04 -1.09992E+04
  2.10344E+04 -3.27689E+02  1.48052E+04  4.90806E+03  8.28232E+03  1.23159E+03  1.12994E+04 -1.84541E+03
  2.05333E+04  2.95380E+03  2.35249E+04  1.74530E+04  1.59765E+04  3.57431E+04 -3.25930E+03  4.10740E+04
 -2.35093E+04  3.41970E+04 -3.89876E+04  1.74530E+04 -4.11223E+04 -2.90692E+03 -3.35912E+04 -2.41782E+04
 -1.37291E+04 -3.38268E+04  1.18822E+04 -3.00654E+04  2.58020E+04 -1.45271E+04  2.27924E+04  6.89691E+03
  7.69519E+03  1.73033E+04 -1.06592E+04  1.42833E+04 -1.89769E+04  2.54515E+03 -1.47376E+04 -1.23464E+04
  1.21764E+02 -1.77952E+04  9.65265E+03 -1.34475E+04  1.25464E+04 -1.58847E+03  3.02489E+03  8.38770E+03
 -8.24319E+03  3.85017E+03 -7.83119E+03 -6.68462E+03 -1.62355E+03 -1.64413E+04  1.11281E+04 -1.82890E+04
  2.08913E+04 -1.00556E+04  2.34169E+04  3.57523E+03  2.07004E+04  1.69290E+04  9.88674E+03  2.63274E+04
 -4.51758E+03  2.82369E+04 -1.89000E+04  1.76610E+04 -2.06525E+04  3.71949E+03 -1.42525E+04 -5.22525E+03
 -6.05385E+03 -6.74893E+03 -2.27868E+02  7.10166E+01 -2.86472E+03  3.50650E+03 -6.86075E+03  5.07571E+03
 -1.28689E+04 -1.02293E+03 -1.35430E+04 -1.09458E+04 -5.31973E+03 -1.82056E+04  6.19608E+03 -1.44392E+04
  1.16492E+04 -5.82024E+03  8.64794E+03  3.86521E+03 -2.51759E+02  5.60696E+03 -7.10817E+03  6.48496E+01
 -6.78825E+03 -9.38121E+03 -9.78847E+02 -1.39696E+04  8.02658E+03 -1.51021E+04  1.82857E+04 -7.96805E+03
  2.15445E+04  1.48306E+03  1.58249E+04  1.28246E+04  2.86529E+03  1.71474E+04 -8.74811E+03  1.41314E+04
 -1.15114E+04  4.13028E+03 -5.98948E+03 -3.02260E+03  2.06110E+03 -4.00898E+03  7.76024E+03 -8.24368E+02
  6.87381E+03  6.44220E+03  1.19151E+03  1.14770E+04 -8.16443E+03  1.07886E+04 -1.40069E+04  2.55111E+03
 -9.41756E+03 -7.20515E+03 -1.89724E+02 -1.19611E+04  7.99425E+03 -6.12560E+03  8.29992E+03  3.17198E+03
  1.74859E+03  8.77852E+03 -7.40157E+03  1.08396E+04 -1.23432E+04  4.27663E+03 -1.23519E+04 -4.45430E+03
 -7.18282E+03 -1.40170E+04  3.63081E+03 -1.60253E+04  1.38015E+04 -9.70559E+03  1.46422E+04  2.92130E+03
  8.81318E+03  1.17571E+04 -1.24660E+03  1.41305E+04 -1.04944E+04  8.12757E+03 -1.13478E+04 -1.24726E+03
 -9.57193E+03 -9.24384E+03 -1.70625E+03 -1.06134E+04  5.38734E+03 -8.61836E+03  6.94348E+03 -2.90045E+03
  4.40001E+03  1.82861E+03 -6.89950E+02  1.84327E+03 -4.43615E+02 -2.72179E+03  2.09911E+03 -6.27734E+03
  1.03356E+04 -4.33146E+03  1.38583E+04  1.28630E+03  1.36249E+04  9.06341E+03  9.22806E+03  1.86145E+04
 -4.73578E+03  2.13386E+04 -1.76815E+04  1.55210E+04 -2.30245E+04  3.04755E+03 -1.84863E+04 -7.64471E+03
 -9.03835E+03 -1.52656E+04 -6.16539E+02 -1.28459E+04  4.88027E+03 -6.77707E+03  4.32800E+03 -4.90389E+03
  3.14300E+03 -2.67515E+03  3.50467E+03 -3.11457E+03  5.35592E+03 -3.03498E+03  7.42933E+03 -9.24906E+02
  9.39215E+03  2.45055E+03  4.94916E+03  8.47025E+03 -2.29050E+03  9.70602E+03 -1.02488E+04  7.50488E+03
 -1.29157E+04 -9.55909E+02 -7.81174E+03 -8.94898E+03 -1.01588E+03 -1.36436E+04  7.58104E+03 -1.38934E+04
  1.45436E+04 -7.88514E+03  1.74092E+04  2.00324E+03  1.19858E+04  1.22468E+04  1.99972E+03  1.56346E+04
 -6.38267E+03  1.27005E+04 -9.12613E+03  4.42414E+03 -6.27375E+03 -1.75665E+03 -2.40141E+03 -1.44947E+03
 -1.01793E+03  9.54460E+01 -2.07922E+03  2.33523E+03 -5.37340E+03  2.07981E+03 -8.93635E+03 -1.35598E+03
 -6.16354E+03 -8.67609E+03 -4.92822E+00 -1.26484E+04  7.73944E+03 -1.22272E+04  1.22359E+04 -3.38477E+03
  1.27248E+04  6.26622E+03  5.92768E+03  1.14826E+04 -2.66226E+03  1.27147E+04 -9.30107E+03  8.14662E+03
 -1.14868E+04  2.73479E+02 -9.63159E+03 -7.62679E+03 -8.51776E+02 -1.07528E+04  5.32890E+03 -8.42874E+03
  8.01825E+03 -2.62102E+03  5.28610E+03  2.21018E+03  1.95369E+03  3.71593E+03  1.56395E+03  1.56526E+03
  2.69289E+03  1.02812E+03  3.27722E+03  1.54386E+03  3.87690E+03  4.36667E+03  3.52736E+03  6.48112E+03
 -2.43006E+03  9.65837E+03 -8.39012E+03  1.04080E+04 -1.30515E+04  2.27089E+03 -1.36853E+04 -4.87468E+03
 -6.21591E+03 -1.30193E+04  1.94574E+03 -1.42131E+04  7.33426E+03 -9.10769E+03  1.06087E+04 -2.21615E+03
  7.64038E+03  5.25497E+03  1.59362E+03  7.36205E+03 -3.69888E+03  4.50345E+03 -5.40285E+03 -9.58467E+02
 -2.47583E+03 -5.63910E+03  3.15026E+03 -5.93068E+03  5.42098E+03 -2.64180E+03  5.04612E+03  8.89708E+02
  2.93186E+03  2.27048E+03  1.04964E+03  1.76872E+03 -8.11031E+02  1.83583E+03  1.50928E+03 -3.03274E+02
  1.83045E+03 -1.17499E+03  5.66400E+03  2.23215E+03  2.70433E+03  6.57683E+03 -1.09075E+03  8.91602E+03
 -6.22308E+03  5.96042E+03 -8.22469E+03  1.73601E+03 -7.47998E+03 -2.85448E+03 -2.43027E+03 -5.09984E+03
  6.67536E+02 -5.38579E+03  3.56655E+03 -2.72794E+03  2.33858E+03  2.92512E+03 -1.47736E+03  4.61019E+03
 -5.33573E+03  2.56899E+03 -5.96351E+03 -3.13787E+03 -3.28868E+03 -6.75345E+03  1.26492E+03 -6.95350E+03
  3.96200E+03 -3.99910E+03  4.79515E+03 -4.48184E+02  4.09666E+03  1.92489E+03  3.88485E+02  3.73011E+03
 -2.39335E+03  1.19433E+03 -3.00861E+03 -2.33005E+03  9.09769E+02 -5.24188E+03  6.36359E+03 -4.35755E+03
  7.72310E+03  3.70589E+02  8.02224E+03  5.33547E+03  2.56871E+03  8.73809E+03 -3.10345E+03  7.74696E+03
 -7.01325E+03  3.13110E+03 -7.51641E+03 -1.12260E+03 -3.82655E+03 -5.21486E+03  1.18341E+03 -5.11476E+03
  4.75378E+03 -2.55542E+03  4.29985E+03  2.13567E+03  1.51333E+03  4.72533E+03 -4.87881E+02  3.73190E+03
 -2.14672E+03  2.70114E+03 -1.88556E+03  9.20605E+02 -9.78273E+02  6.99227E+02 -1.13032E+03  1.75936E+03
 -2.23274E+03  3.05790E+03 -5.14169E+03  2.77904E+03 -8.54108E+03  1.86978E+02 -9.25601E+03 -5.55272E+03
 -4.98588E+03 -1.07263E+04  2.17641E+03 -1.22666E+04  7.45596E+03 -9.89791E+03  1.15848E+04 -3.39148E+03
  1.10470E+04  2.25954E+03  6.96879E+03  7.24967E+03  6.89476E+02  8.47859E+03 -3.38850E+03  6.58175E+03
 -5.22779E+03  2.17243E+03 -2.91223E+03 -1.20595E+03 -8.55877E+02 -4.91058E+02 -7.69895E+02  2.74532E+02
 -1.81199E+03  2.18404E+02 -2.26898E+03 -6.80397E+02 -6.77464E+02 -2.04231E+03  2.13903E+02 -3.16655E+03
  3.76609E+03 -2.41419E+03  4.97394E+03  3.94614E+02  5.85619E+03  4.79633E+03  1.24721E+03  8.29738E+03
 -4.15786E+03  9.89442E+03 -9.14015E+03  5.61524E+03 -1.01530E+04 -8.42229E+02 -7.49344E+03 -6.23509E+03
 -3.15396E+03 -8.55234E+03  1.93791E+03 -7.53199E+03  5.23312E+03 -4.57895E+03  5.57542E+03  4.27696E+02
  2.93855E+03  2.79186E+03 -2.97389E+02  2.58011E+03 -1.34359E+03  3.60765E+01  3.90742E+02 -1.89163E+03
  2.99920E+03 -1.16065E+03  3.22778E+03  9.50308E+02  2.01415E+03  3.37742E+03  2.06579E+02  4.50919E+03
 -4.00594E+03  3.76103E+03 -5.59074E+03  2.16076E+02 -4.80845E+03 -3.94887E+03 -7.00938E+02 -7.46450E+03
  3.79349E+03 -6.11382E+03  6.00666E+03 -1.49765E+03  6.49781E+03  1.24021E+03  3.63554E+03  5.31555E+03
  9.07775E+02  5.21728E+03 -2.05332E+03  4.43441E+03 -3.84350E+03  2.65525E+03 -2.71798E+03  7.91788E+02
 -1.60067E+03 -9.25589E+01 -1.70134E+03  2.15686E+02 -3.26423E+03  1.16333E+03 -4.28029E+03 -6.28614E+02
 -4.43377E+03 -2.74837E+03 -1.79563E+03 -5.73939E+03  2.29264E+03 -6.18165E+03  5.25804E+03 -2.59142E+03
  5.40778E+03  9.42540E+02  2.57010E+03  3.89749E+03 -2.08043E+02  5.49119E+03 -4.16861E+03  3.67718E+03
