 $NMID ID='MM_0lb_SNR800_19hz_g40_10.RAW', FMTDAT='(8E13.5)'
 TRAMP=1., VOLUME=1. $END
  3.09850E+05  3.78361E+02  3.37266E+05  2.50329E+05  8.44294E+04  3.37034E+05 -1.32459E+05  2.50030E+05
 -1.89497E+05  8.22322E+04 -1.10657E+05 -3.29025E+04  1.80293E+03 -5.02963E+04  5.37941E+04  4.52093E+02
  3.48267E+04  5.30800E+04 -1.70345E+04  7.46872E+04 -6.02851E+04  6.23646E+04 -8.27444E+04  3.14133E+04
 -7.90902E+04 -1.11594E+04 -5.59047E+04 -4.98607E+04 -1.48779E+04 -6.75302E+04  2.63473E+04 -4.46079E+04
  3.85106E+04  3.80012E+03  1.51380E+04  4.69101E+04 -3.40756E+04  4.57971E+04 -6.49100E+04 -7.17084E+02
 -5.12520E+04 -5.54799E+04 -5.86945E+03 -7.44794E+04  3.29043E+04 -5.26270E+04  4.57778E+04 -1.59049E+04
  4.11357E+04  1.09155E+04  3.03830E+04  2.41234E+04  1.57942E+04  2.77095E+04 -4.64136E+03  2.64895E+04
 -2.16571E+04  1.28170E+04 -1.91770E+04 -4.12222E+03  3.49426E+03 -7.64143E+03  2.08650E+04  1.03817E+04
  7.53589E+03  3.24728E+04 -2.97029E+04  3.32834E+04 -6.05002E+04  2.03495E+03 -5.49425E+04 -4.06130E+04
 -1.25920E+04 -5.99543E+04  3.75966E+04 -4.30433E+04  5.47785E+04 -1.86592E+03  3.11687E+04  2.99651E+04
 -6.61538E+03  3.18769E+04 -2.79110E+04  1.23907E+04 -2.66335E+04 -5.54673E+03 -1.38359E+04 -9.88349E+03
 -6.88511E+03 -1.09090E+04 -1.16804E+03 -1.62743E+04  6.22873E+03 -2.23696E+04  1.49094E+04 -1.41501E+04
  1.21830E+04  3.86883E+03 -5.62435E+03  1.32285E+04 -1.88008E+04 -1.86263E+03 -8.07585E+03 -2.94655E+04
  1.98875E+04 -3.98601E+04  4.34831E+04 -1.81993E+04  4.11364E+04  1.79724E+04  1.37512E+04  4.08808E+04
 -1.51276E+04  3.02321E+04 -2.28199E+04  7.71833E+02 -7.50861E+03 -2.59704E+04  2.00643E+04 -3.04382E+04
  3.70590E+04 -6.85478E+03  3.03768E+04  2.20215E+04  1.43683E+04  4.14671E+04 -7.59403E+03  4.38085E+04
 -2.77123E+04  2.86570E+04 -3.62105E+04  8.06867E+03 -3.70894E+04 -1.43805E+04 -2.06047E+04 -3.35871E+04
  6.62543E+03 -3.30389E+04  2.85643E+04 -1.21674E+04  2.60396E+04  1.06676E+04  2.65788E+03  1.74059E+04
 -1.29855E+04  7.02893E+03 -9.52683E+03 -7.67600E+03  6.05040E+03 -1.00812E+04  1.69650E+04  6.59836E+03
  1.20037E+04  2.12609E+04 -6.82976E+03  2.28294E+04 -2.11615E+04  8.46315E+03 -2.43348E+04 -6.76191E+03
 -1.59700E+04 -1.62518E+04 -4.89853E+03 -1.59761E+04  3.64741E+03 -1.36073E+04  1.16789E+04 -1.33831E+04
  1.98839E+04 -1.13540E+04  2.69031E+04  7.45007E+02  2.06366E+04  1.53729E+04  4.04606E+03  3.15231E+04
 -1.57111E+04  2.70568E+04 -2.50388E+04  9.16977E+03 -1.92115E+04 -1.03304E+04 -4.00416E+03 -1.41950E+04
  2.90286E+03 -4.58630E+03 -1.99339E+03  4.84043E+03 -1.20049E+04  5.15693E+03 -1.26388E+04 -4.48337E+03
 -8.28260E+03 -1.44975E+04  4.66834E+03 -1.84775E+04  1.22485E+04 -1.32988E+04  1.37785E+04 -1.65436E+03
  8.25672E+03  1.02829E+04 -6.96391E+02  1.48044E+04 -9.71655E+03  8.26886E+03 -1.45913E+04 -3.37796E+03
 -1.09208E+04 -1.32434E+04 -1.41352E+03 -1.81420E+04  8.31344E+03 -1.43015E+04  1.55390E+04 -7.02787E+03
  1.38422E+04  7.94007E+02  9.97416E+03  3.68846E+03  4.71026E+03  5.55866E+02  7.13363E+03 -1.14049E+03
  1.31671E+04  2.58514E+03  1.34401E+04  1.21503E+04  8.31717E+03  2.35363E+04 -3.11652E+03  2.50205E+04
 -1.47514E+04  1.87292E+04 -2.25996E+04  8.61506E+03 -2.31069E+04 -1.80141E+03 -2.00917E+04 -1.32375E+04
 -9.82440E+03 -1.87179E+04  5.75590E+03 -1.78933E+04  1.52982E+04 -1.02373E+04  1.47790E+04  3.22182E+03
  6.36167E+03  1.04108E+04 -6.66189E+03  9.98628E+03 -1.26066E+04  2.61616E+03 -9.76720E+03 -7.65726E+03
  3.15723E+01 -1.14336E+04  5.99247E+03 -9.19371E+03  7.24093E+03 -1.26604E+03  1.36090E+03  4.53330E+03
 -5.21981E+03  1.09578E+03 -3.35366E+03 -4.36819E+03  1.15242E+03 -9.56219E+03  7.30322E+03 -9.07594E+03
  1.12636E+04 -3.99961E+03  1.08509E+04  2.46517E+03  9.25555E+03  8.90092E+03  4.39174E+03  1.29440E+04
 -1.42388E+03  1.45001E+04 -8.58914E+03  9.52504E+03 -1.03922E+04  2.86436E+03 -7.74402E+03 -1.44555E+03
 -4.46502E+03 -3.03603E+03 -8.78883E+02  1.58535E+03 -1.66687E+03  1.99855E+03 -3.25623E+03  3.57592E+03
 -7.51817E+03 -3.16269E+02 -8.37950E+03 -7.04921E+03 -3.39626E+03 -1.11352E+04  3.24508E+03 -7.99400E+03
  6.74258E+03 -3.59260E+03  5.11996E+03  2.09861E+03  6.77321E+02  2.70889E+03 -3.11773E+03  4.27018E+01
 -2.98132E+03 -4.75665E+03 -8.80182E+02 -6.67064E+03  3.32148E+03 -7.38909E+03  8.96282E+03 -3.71985E+03
  1.07746E+04  5.24132E+02  8.18144E+03  5.69274E+03  1.57681E+03  7.79488E+03 -5.19239E+03  7.93013E+03
 -6.52864E+03  2.49560E+03 -3.27701E+03 -9.92403E+02  1.32761E+03 -1.68193E+03  4.32676E+03 -9.24020E+02
  3.77493E+03  2.97827E+03  1.30589E+03  5.68734E+03 -4.03864E+03  6.10515E+03 -7.40939E+03  1.77184E+03
 -4.58735E+03 -3.23993E+03  2.53133E+02 -6.27268E+03  3.03944E+03 -3.01121E+03  3.10407E+03  9.16472E+02
  2.50494E+02  2.86415E+03 -4.01304E+03  4.20158E+03 -4.23738E+03  2.41504E+03 -3.87237E+03 -8.43711E+02
 -2.47986E+03 -5.42616E+03  1.02569E+03 -6.34651E+03  5.51169E+03 -4.09834E+03  5.55637E+03  6.74208E+02
  4.23510E+03  4.85606E+03  1.93765E+02  6.81814E+03 -4.69907E+03  3.75866E+03 -4.58939E+03 -5.91995E+02
 -5.41390E+03 -5.13113E+03 -1.42298E+03 -4.78567E+03  2.20649E+03 -4.40797E+03  2.70502E+03 -2.85945E+03
  2.59853E+03  1.76977E+02  3.11075E+02  1.36929E+03  5.08014E+02 -1.63408E+02 -6.22416E+01 -1.66281E+03
  3.38213E+03 -5.28776E+02  4.82673E+03  5.49184E+02  5.17025E+03  2.65948E+03  4.87390E+03  6.30681E+03
 -1.00143E+03  7.86415E+03 -7.12321E+03  6.09521E+03 -9.01418E+03  1.11750E+03 -6.91661E+03 -2.36097E+03
 -3.75917E+03 -5.87921E+03 -5.41805E+02 -4.47358E+03  1.96884E+03 -1.97829E+03  1.59675E+03 -1.84074E+03
  1.23742E+03 -1.52219E+03  2.03462E+03 -2.50935E+03  3.01754E+03 -1.48529E+03  3.31361E+03  6.44286E+02
  4.21681E+03  1.17762E+03  9.32240E+02  3.12819E+03 -1.48916E+03  2.40101E+03 -4.23038E+03  2.55642E+03
 -4.53154E+03 -8.80119E+02 -1.09435E+03 -2.95552E+03  4.16098E+02 -4.21211E+03  2.91180E+03 -4.75528E+03
  4.55996E+03 -3.05879E+03  6.01010E+03  6.79732E+00  4.45779E+03  3.92072E+03  1.30914E+03  5.12204E+03
 -1.63595E+03  5.55165E+03 -3.08131E+03  1.99193E+03 -1.88366E+03 -9.74952E+02 -5.04705E+02 -6.52304E+02
 -5.01787E+02  4.00469E+02 -7.92134E+02  2.07783E+03 -2.12221E+03  1.09549E+03 -3.74966E+03 -5.22292E+02
 -1.31973E+03 -3.81575E+03  8.27394E+02 -4.09639E+03  2.24366E+03 -3.87318E+03  2.85944E+03 -1.00673E+03
  3.66271E+03  2.16611E+03  1.82629E+03  3.16913E+03 -8.78629E+02  3.99161E+03 -2.27032E+03  2.34931E+03
 -3.45782E+03  4.23968E+02 -2.83359E+03 -2.01890E+03  1.30230E+02 -2.96244E+03  1.52655E+03 -2.23711E+03
  2.43650E+03 -1.45110E+03  1.50128E+03  3.79056E+02  3.28889E+02  1.32932E+03  6.76678E+02  5.41823E+02
  1.67591E+03  5.93647E+02  1.03468E+03  1.02112E+03  1.18646E+03  2.18770E+03  1.21979E+03  1.56304E+03
 -1.26031E+03  2.59643E+03 -2.15612E+03  3.84415E+03 -2.35258E+03  1.14649E+03 -3.84959E+03  5.28100E+00
 -1.34690E+03 -3.27883E+03  5.74845E+02 -4.30003E+03  1.73355E+03 -2.36393E+03  2.78727E+03 -6.61844E+02
  2.05787E+03  1.65756E+03  3.96711E+02  1.84310E+03 -6.58384E+02  8.70337E+02 -6.46207E+02  1.18806E+02
 -7.62414E+02 -1.08435E+03  9.46182E+02 -1.17777E+03  1.30428E+03 -8.09747E+02  1.12595E+03  2.94816E+01
  7.90547E+02 -3.92559E+01  9.28905E+02 -1.94979E+02 -1.08911E+02  4.34702E+02  1.63495E+03 -2.57159E+02
 -4.25905E+01 -2.79239E+02  1.84006E+03  4.20303E+02  2.34283E+01  2.16589E+03 -3.26926E+02  2.74368E+03
 -1.65905E+03  1.04265E+03 -1.80839E+03  7.09417E+01 -1.96518E+03 -7.05198E+02 -2.78822E+02 -9.12230E+02
  2.27868E+02 -1.23486E+03  9.88979E+02 -5.73198E+02  3.89076E+02  1.20705E+03 -5.83053E+02  1.04455E+03
 -1.32626E+03  5.65039E+02 -9.69132E+02 -1.16832E+03 -8.05302E+02 -2.01654E+03  4.11223E+01 -1.43352E+03
  3.10842E+02 -5.16721E+02  6.26498E+02  3.03866E+02  1.09685E+03  8.22749E+00  4.69097E+02  9.66870E+02
 -2.77056E+02  2.03332E+01 -9.23071E+02 -1.06216E+02  4.50088E+02 -9.58399E+02  1.75046E+03 -9.38142E+02
  1.11026E+03  9.63225E+01  2.36328E+03  6.92883E+02  9.85203E+02  1.48864E+03 -2.30099E+02  1.65473E+03
 -1.67503E+03  1.46761E+02 -1.44066E+03  1.94749E+01 -6.59820E+02 -1.16930E+03  3.00901E+02 -1.75608E+02
  1.20473E+03 -7.31674E+02  5.08618E+02  6.27584E+02  2.08984E+02  1.06537E+03  3.81721E+02  9.51522E+02
 -5.08475E+02  9.90659E+02 -4.73505E+02  1.29029E+02  2.90591E+02  2.80888E+02 -6.51365E+02  4.74383E+02
 -6.08287E+02  1.15099E+03 -1.80498E+03  7.43092E+02 -1.46829E+03  2.12542E+02 -2.40462E+03 -8.11470E+02
 -9.90890E+02 -1.89825E+03  5.67153E+02 -2.56687E+03  8.02303E+02 -2.29829E+03  2.65164E+03 -9.90043E+02
  2.11315E+03 -8.31901E+01  8.31773E+02  1.60715E+03 -6.19198E+02  1.28777E+03 -6.13187E+02  1.19773E+03
 -6.89727E+02  5.89291E+02 -4.51575E+02 -4.22969E+02 -3.68157E+02  4.84813E+02 -5.01401E+02 -1.69728E+02
 -9.73464E+02 -3.02304E+02 -7.64611E+02  2.15656E+02  2.50482E+02 -6.13058E+02 -3.07507E+02 -8.99356E+02
  1.37414E+03 -5.84696E+02  2.80749E+02  5.77769E+01  7.93663E+02  1.03456E+03 -5.09759E+02  1.24129E+03
 -9.86122E+02  1.84578E+03 -1.56745E+03  1.38469E+03 -1.78741E+03  3.38031E+00 -1.03569E+03 -1.27341E+03
 -9.81905E+02 -1.29291E+03  2.06925E+02 -1.08152E+03  4.98555E+02 -5.18201E+02  4.13317E+02  2.39582E+02
  6.03963E+02  2.55210E+02 -2.06710E+02  1.63986E+02 -3.77943E+02  1.78501E+02 -1.78043E+02 -8.64721E+01
  5.17857E+02  2.41705E+02  2.18967E+02  4.31675E+02 -1.55234E+02  2.84719E+02  5.42232E+02  2.90585E+02
 -4.19491E+02  3.85659E+02 -2.62580E+02  2.19734E+02 -7.58955E+02 -3.70367E+02  4.35619E+01 -1.24092E+03
  3.67076E+02 -4.82036E+02  2.42777E+02 -3.51815E+01  9.67636E+02 -4.59667E+02  3.11982E+02  7.08093E+02
  3.92684E+02  3.39197E+02 -2.33904E+02  4.70550E+02 -6.05844E+02  6.73501E+02 -2.59946E+02 -1.06618E+02
 -5.19848E+01 -7.95504E+01 -5.83053E+02  1.37255E+02 -6.09973E+02  5.84486E+01 -5.02224E+02 -4.42328E+02
 -8.43046E+02  5.02907E+02 -4.77082E+02 -1.18761E+03  5.77784E+02 -1.86739E+03  5.50629E+02 -2.96203E+02
  6.46562E+02 -8.63306E+00 -4.06381E+02  2.72393E+02  4.41848E+01  6.04251E+02 -1.67165E+02  5.93703E+02
