 $NMID ID='MM_0lb_SNR800_12hz_g55_94.RAW', FMTDAT='(8E13.5)'
 TRAMP=1., VOLUME=1. $END
  3.09699E+05  5.55773E+02  3.37877E+05  2.50488E+05  8.46293E+04  3.38241E+05 -1.32609E+05  2.51255E+05
 -1.90930E+05  8.37896E+04 -1.11998E+05 -3.27229E+04  7.60611E+02 -5.05174E+04  5.36756E+04 -3.33810E+02
  3.53091E+04  5.29719E+04 -1.66400E+04  7.56544E+04 -6.10053E+04  6.43078E+04 -8.50118E+04  3.23099E+04
 -8.21974E+04 -1.16809E+04 -5.78753E+04 -5.18277E+04 -1.51708E+04 -7.02821E+04  2.81486E+04 -4.60253E+04
  4.05265E+04  4.08799E+03  1.64772E+04  4.85759E+04 -3.47497E+04  4.78605E+04 -6.74470E+04 -5.24303E+01
 -5.42302E+04 -5.75093E+04 -7.44519E+03 -7.79772E+04  3.43369E+04 -5.61614E+04  4.92533E+04 -1.76776E+04
  4.46258E+04  1.16317E+04  3.23029E+04  2.58426E+04  1.59484E+04  3.01488E+04 -5.51133E+03  2.76712E+04
 -2.18060E+04  1.18770E+04 -1.84040E+04 -5.57512E+03  6.43521E+03 -7.30073E+03  2.33301E+04  1.27365E+04
  6.80400E+03  3.65742E+04 -3.28719E+04  3.63576E+04 -6.51447E+04  2.14061E+03 -5.79790E+04 -4.38796E+04
 -1.29153E+04 -6.46578E+04  4.10969E+04 -4.65267E+04  6.00241E+04 -2.43884E+03  3.52510E+04  3.37443E+04
 -5.62835E+03  3.79867E+04 -3.09245E+04  1.76803E+04 -3.20865E+04 -3.94215E+03 -1.82120E+04 -1.14895E+04
 -8.97784E+03 -1.38906E+04 -4.61645E+02 -1.90244E+04  7.90576E+03 -2.32349E+04  1.56404E+04 -1.27423E+04
  1.10785E+04  5.83375E+03 -9.41221E+03  1.29714E+04 -2.26522E+04 -5.55087E+03 -8.72602E+03 -3.57760E+04
  2.39480E+04 -4.52827E+04  5.02540E+04 -2.06434E+04  4.70457E+04  2.02968E+04  1.63705E+04  4.56844E+04
 -1.66347E+04  3.45641E+04 -2.66386E+04  2.31869E+03 -1.09244E+04 -2.91036E+04  2.11175E+04 -3.59211E+04
  4.32494E+04 -1.01917E+04  3.81315E+04  2.42477E+04  2.00283E+04  4.91136E+04 -8.10678E+03  5.37112E+04
 -3.41249E+04  3.60801E+04 -4.50811E+04  1.06638E+04 -4.50018E+04 -1.78916E+04 -2.50465E+04 -4.04014E+04
  7.53268E+03 -4.02197E+04  3.29139E+04 -1.60030E+04  3.09815E+04  1.11189E+04  4.46996E+03  2.00609E+04
 -1.37916E+04  9.00371E+03 -1.09269E+04 -7.78599E+03  5.70318E+03 -1.11335E+04  1.84021E+04  6.01059E+03
  1.42612E+04  2.23403E+04 -5.82822E+03  2.65348E+04 -2.31654E+04  1.29833E+04 -3.03018E+04 -3.56107E+03
 -2.29600E+04 -1.79929E+04 -1.01526E+04 -2.29873E+04  4.21302E+03 -2.29496E+04  1.79946E+04 -2.12444E+04
  2.94906E+04 -1.37342E+04  3.51669E+04  3.92323E+03  2.54487E+04  2.25549E+04  4.48402E+03  3.90429E+04
 -1.87686E+04  3.21700E+04 -2.92289E+04  1.07527E+04 -2.15993E+04 -1.00407E+04 -4.65285E+03 -1.31207E+04
  1.03488E+03 -2.25771E+03 -5.98251E+03  7.30421E+03 -1.82987E+04  5.17042E+03 -1.84900E+04 -8.15419E+03
 -1.11173E+04 -2.11289E+04  5.55803E+03 -2.51531E+04  1.67956E+04 -1.84547E+04  2.02365E+04 -1.95269E+03
  1.30635E+04  1.47433E+04 -1.16681E+03  2.12227E+04 -1.51728E+04  1.18541E+04 -2.11955E+04 -4.59851E+03
 -1.58583E+04 -1.90557E+04 -1.74267E+03 -2.58263E+04  1.15220E+04 -2.07784E+04  2.11359E+04 -1.07125E+04
  1.95672E+04 -9.94041E+00  1.44653E+04  4.52389E+03  7.77009E+03  1.03173E+03  1.09596E+04 -1.78663E+03
  1.98648E+04  3.13693E+03  2.23572E+04  1.66926E+04  1.52424E+04  3.38462E+04 -2.87599E+03  3.92038E+04
 -2.25348E+04  3.21026E+04 -3.68552E+04  1.63359E+04 -3.89081E+04 -3.17229E+03 -3.19930E+04 -2.21821E+04
 -1.30990E+04 -3.24211E+04  1.11919E+04 -2.83680E+04  2.47714E+04 -1.40156E+04  2.19562E+04  6.54235E+03
  7.58533E+03  1.61730E+04 -1.03251E+04  1.41806E+04 -1.80472E+04  2.53303E+03 -1.39506E+04 -1.13260E+04
 -2.53858E+02 -1.70502E+04  9.35581E+03 -1.32810E+04  1.15266E+04 -1.45120E+03  2.87585E+03  7.56622E+03
 -7.67132E+03  3.66670E+03 -7.69394E+03 -6.43498E+03 -1.08006E+03 -1.57686E+04  1.05883E+04 -1.68209E+04
  2.00478E+04 -9.62515E+03  2.20932E+04  2.97148E+03  1.89821E+04  1.60973E+04  8.88657E+03  2.48487E+04
 -4.41820E+03  2.64443E+04 -1.70307E+04  1.68015E+04 -1.89970E+04  3.76109E+03 -1.30425E+04 -4.76338E+03
 -5.40107E+03 -6.20700E+03 -3.90190E+02  8.05862E+02 -2.71124E+03  2.99026E+03 -6.13771E+03  4.84333E+03
 -1.19942E+04 -6.99570E+02 -1.27753E+04 -1.04901E+04 -5.34171E+03 -1.70119E+04  5.63941E+03 -1.33709E+04
  1.10727E+04 -5.75375E+03  8.10717E+03  3.53122E+03 -2.05385E+02  5.22876E+03 -6.64897E+03 -5.85486E+02
 -6.16727E+03 -8.43562E+03 -1.11248E+03 -1.30566E+04  7.40353E+03 -1.36529E+04  1.70983E+04 -7.01472E+03
  1.97660E+04  1.74642E+03  1.46768E+04  1.19420E+04  3.00210E+03  1.56440E+04 -8.30367E+03  1.29864E+04
 -1.10510E+04  3.99213E+03 -5.37869E+03 -2.98117E+03  1.62707E+03 -3.22053E+03  7.15716E+03 -6.91309E+02
  6.41739E+03  6.04736E+03  1.16205E+03  1.08754E+04 -7.20442E+03  1.04773E+04 -1.27695E+04  2.36201E+03
 -8.73422E+03 -6.91259E+03  3.16339E+02 -1.11629E+04  6.97027E+03 -5.53788E+03  7.72059E+03  2.48965E+03
  1.31494E+03  7.66008E+03 -6.85208E+03  9.38173E+03 -1.08396E+04  3.91300E+03 -1.11475E+04 -3.64322E+03
 -6.32448E+03 -1.26432E+04  2.91201E+03 -1.44337E+04  1.22108E+04 -8.79796E+03  1.32556E+04  1.98122E+03
  8.39443E+03  1.05742E+04 -9.05076E+02  1.27779E+04 -9.42052E+03  7.30965E+03 -1.00918E+04 -1.01950E+03
 -9.10871E+03 -8.53008E+03 -1.58793E+03 -9.51060E+03  4.80351E+03 -7.79636E+03  6.05205E+03 -3.45363E+03
  3.97668E+03  1.68907E+03 -1.02774E+03  1.42045E+03  7.92379E+00 -2.53382E+03  1.76389E+03 -6.01107E+03
  8.66935E+03 -3.23347E+03  1.26472E+04  1.42976E+03  1.21523E+04  8.33610E+03  8.24398E+03  1.59928E+04
 -3.71363E+03  1.85793E+04 -1.54182E+04  1.38397E+04 -2.03586E+04  2.64474E+03 -1.61397E+04 -6.84393E+03
 -8.17389E+03 -1.33490E+04 -3.00596E+02 -1.14360E+04  4.25931E+03 -5.83127E+03  4.00190E+03 -3.94445E+03
  2.86237E+03 -2.56800E+03  3.37173E+03 -3.40622E+03  5.02031E+03 -2.95275E+03  6.20525E+03 -5.69943E+02
  8.49617E+03  2.08611E+03  4.02663E+03  7.11436E+03 -2.05850E+03  8.01979E+03 -8.34970E+03  6.55627E+03
 -1.11267E+04 -1.10330E+03 -6.65707E+03 -7.84610E+03 -4.79919E+02 -1.16253E+04  6.39579E+03 -1.19068E+04
  1.22570E+04 -6.55712E+03  1.47567E+04  2.03135E+03  1.02526E+04  1.01081E+04  1.71299E+03  1.34081E+04
 -5.58987E+03  1.14631E+04 -7.71110E+03  3.99558E+03 -5.38948E+03 -1.72503E+03 -2.25600E+03 -1.46153E+03
 -1.01438E+03  1.59590E+02 -1.47567E+03  2.46312E+03 -4.54461E+03  1.98352E+03 -7.75748E+03 -6.01899E+02
 -5.45089E+03 -7.93049E+03  9.52563E+01 -1.09112E+04  6.65896E+03 -1.02961E+04  1.03729E+04 -3.07917E+03
  1.08113E+04  4.98221E+03  5.04553E+03  9.31687E+03 -2.13135E+03  1.08994E+04 -7.64233E+03  6.76291E+03
 -9.99950E+03  6.63432E+02 -7.69975E+03 -6.40006E+03 -9.29269E+02 -8.78340E+03  4.76050E+03 -6.37810E+03
  6.83654E+03 -2.11520E+03  4.93409E+03  1.94085E+03  1.85010E+03  3.32497E+03  1.09426E+03  1.69608E+03
  2.27619E+03  8.89317E+02  2.97259E+03  1.52964E+03  3.26839E+03  3.97939E+03  2.79666E+03  5.51975E+03
 -2.11243E+03  8.39435E+03 -6.87515E+03  8.64600E+03 -1.05013E+04  2.61753E+03 -1.09178E+04 -3.93990E+03
 -5.24901E+03 -1.06293E+04  1.75421E+03 -1.16411E+04  6.51122E+03 -7.37645E+03  8.60314E+03 -1.76320E+03
  6.36569E+03  3.99780E+03  1.48133E+03  6.39619E+03 -3.02476E+03  3.28173E+03 -3.98173E+03 -8.19992E+02
 -1.50928E+03 -4.59761E+03  2.38137E+03 -4.56689E+03  3.97547E+03 -2.15285E+03  4.28033E+03  1.13737E+03
  2.44017E+03  2.26603E+03  1.04529E+03  1.13687E+03 -7.69072E+02  1.56002E+03  1.48920E+03 -3.76056E+02
  1.11895E+03 -3.42843E+02  4.37270E+03  1.54939E+03  2.20010E+03  5.83859E+03 -6.99841E+02  7.60432E+03
 -4.99129E+03  4.32957E+03 -6.27274E+03  1.13681E+03 -5.69313E+03 -2.11212E+03 -2.02010E+03 -3.92236E+03
  6.44691E+02 -3.72121E+03  2.58556E+03 -2.07624E+03  2.36790E+03  2.02563E+03 -1.10883E+03  2.89537E+03
 -4.16293E+03  1.93220E+03 -4.55859E+03 -2.43565E+03 -2.75905E+03 -5.91331E+03  6.46445E+02 -5.63683E+03
  2.98296E+03 -2.67423E+03  3.69137E+03 -2.09462E+02  3.41173E+03  1.28088E+03  2.90274E+02  2.89684E+03
 -1.77460E+03  9.54568E+02 -2.69569E+03 -1.86119E+03  8.46358E+02 -4.22004E+03  5.16514E+03 -3.58952E+03
  5.57111E+03  3.40618E+02  6.04853E+03  4.31714E+03  1.79545E+03  6.10210E+03 -2.48955E+03  5.76461E+03
 -5.08538E+03  2.39016E+03 -5.76728E+03 -8.80575E+02 -2.70320E+03 -4.22673E+03  1.04280E+03 -3.22395E+03
  4.07691E+03 -1.46170E+03  3.08356E+03  1.77220E+03  1.19388E+03  3.66561E+03 -6.49156E+02  3.53379E+03
 -1.42189E+03  1.85279E+03 -1.54854E+03  2.15591E+02 -6.59548E+02  9.53783E+02 -1.08959E+03  1.47558E+03
 -2.00192E+03  2.48658E+03 -4.53146E+03  2.14794E+03 -6.40507E+03  8.12828E+01 -7.11964E+03 -4.11806E+03
 -3.86443E+03 -8.14094E+03  1.62753E+03 -9.76280E+03  5.65449E+03 -7.50506E+03  8.87819E+03 -3.00549E+03
  8.60996E+03  1.42886E+03  4.97017E+03  6.12055E+03 -1.65393E+02  6.14492E+03 -2.35359E+03  4.91601E+03
 -3.65675E+03  1.84288E+03 -2.02397E+03 -6.26576E+02 -7.85916E+02 -6.25101E+02 -4.14782E+02  5.18911E+01
 -1.72428E+03  3.30233E+02 -1.78077E+03  3.01199E+01  6.32359E+00 -1.52827E+03 -1.21475E+02 -2.26292E+03
  3.35606E+03 -2.28412E+03  3.68451E+03  2.40402E+02  4.39243E+03  3.20754E+03  8.53842E+02  6.20445E+03
 -3.20308E+03  7.41533E+03 -6.56355E+03  4.16026E+03 -7.50455E+03 -5.77305E+02 -5.30965E+03 -4.62349E+03
 -2.63298E+03 -6.16134E+03  1.82042E+03 -5.68565E+03  4.11655E+03 -2.88934E+03  3.87595E+03  2.04529E+02
  2.25138E+03  1.99302E+03 -2.55139E+02  2.12126E+03 -1.21668E+03 -6.99287E+01  1.06815E+01 -1.52486E+03
  2.15577E+03 -6.77160E+02  2.50106E+03  8.82551E+02  1.49005E+03  2.23593E+03  4.12557E+02  3.06994E+03
 -2.42732E+03  2.62128E+03 -3.51739E+03  1.97440E+02 -3.24554E+03 -2.48149E+03 -6.05860E+02 -5.37404E+03
  2.49039E+03 -4.02051E+03  4.18992E+03 -1.16398E+03  4.66262E+03  9.06757E+02  2.55373E+03  3.78609E+03
  9.74913E+02  3.60675E+03 -1.73148E+03  3.01590E+03 -2.63341E+03  1.71663E+03 -1.88810E+03  4.90622E+02
 -1.00024E+03  1.53844E+01 -1.16615E+03  7.43098E+02 -2.08298E+03  8.33216E+02 -3.08972E+03 -8.24366E+02
 -3.13318E+03 -1.45117E+03 -8.59286E+02 -3.68343E+03  1.94591E+03 -4.11541E+03  3.48499E+03 -1.79787E+03
  3.77241E+03  2.57394E+02  1.37874E+03  2.89791E+03 -5.79047E+02  3.78996E+03 -2.83624E+03  2.49104E+03
