 $NMID ID='MM_0lb_SNR800_16hz_g45_22.RAW', FMTDAT='(8E13.5)'
 TRAMP=1., VOLUME=1. $END
  3.09885E+05  1.60396E+02  3.37337E+05  2.50424E+05  8.44852E+04  3.37530E+05 -1.32617E+05  2.50925E+05
 -1.89876E+05  8.27145E+04 -1.11170E+05 -3.26784E+04  1.32448E+03 -5.05128E+04  5.42376E+04 -5.78368E+01
  3.51046E+04  5.30498E+04 -1.67419E+04  7.53962E+04 -6.03968E+04  6.30381E+04 -8.35161E+04  3.19323E+04
 -8.02715E+04 -1.12274E+04 -5.70296E+04 -5.05246E+04 -1.50102E+04 -6.89301E+04  2.70154E+04 -4.49879E+04
  3.93620E+04  3.64355E+03  1.58041E+04  4.73748E+04 -3.40546E+04  4.63813E+04 -6.58629E+04 -3.69753E+02
 -5.25852E+04 -5.65843E+04 -6.37378E+03 -7.58651E+04  3.35315E+04 -5.40361E+04  4.72882E+04 -1.64563E+04
  4.22126E+04  1.10466E+04  3.12832E+04  2.50745E+04  1.57435E+04  2.87959E+04 -4.94346E+03  2.70127E+04
 -2.19463E+04  1.26433E+04 -1.90115E+04 -4.37329E+03  4.68326E+03 -7.31896E+03  2.16047E+04  1.17469E+04
  7.45331E+03  3.41822E+04 -3.11216E+04  3.45241E+04 -6.21524E+04  2.29057E+03 -5.58303E+04 -4.19642E+04
 -1.23455E+04 -6.19328E+04  3.87243E+04 -4.45022E+04  5.66317E+04 -2.27695E+03  3.30733E+04  3.14897E+04
 -6.27040E+03  3.43675E+04 -2.92062E+04  1.44851E+04 -2.88011E+04 -4.93635E+03 -1.54227E+04 -1.03698E+04
 -7.84395E+03 -1.24310E+04 -1.06565E+03 -1.74925E+04  7.07944E+03 -2.28956E+04  1.51831E+04 -1.37782E+04
  1.19306E+04  4.45783E+03 -7.42051E+03  1.30642E+04 -2.04446E+04 -3.40598E+03 -8.24149E+03 -3.20231E+04
  2.18042E+04 -4.20340E+04  4.63695E+04 -1.94748E+04  4.34303E+04  1.89778E+04  1.46027E+04  4.29911E+04
 -1.56831E+04  3.23137E+04 -2.41724E+04  1.41932E+03 -8.94628E+03 -2.71217E+04  2.06941E+04 -3.24335E+04
  3.98231E+04 -8.05017E+03  3.34324E+04  2.32624E+04  1.65887E+04  4.45064E+04 -7.89950E+03  4.76941E+04
 -2.99098E+04  3.14804E+04 -3.95397E+04  9.02263E+03 -4.03313E+04 -1.57284E+04 -2.23615E+04 -3.61375E+04
  6.88962E+03 -3.57263E+04  3.02636E+04 -1.38077E+04  2.77711E+04  1.06617E+04  3.62977E+03  1.84123E+04
 -1.30506E+04  7.66626E+03 -1.01833E+04 -7.79950E+03  6.07237E+03 -1.03062E+04  1.73975E+04  6.35604E+03
  1.27030E+04  2.18451E+04 -6.43836E+03  2.40010E+04 -2.19358E+04  1.03638E+04 -2.65045E+04 -5.55079E+03
 -1.85113E+04 -1.65771E+04 -6.84520E+03 -1.86319E+04  3.87494E+03 -1.70641E+04  1.40699E+04 -1.62793E+04
  2.31867E+04 -1.19677E+04  3.06053E+04  1.99837E+03  2.22782E+04  1.80026E+04  4.35444E+03  3.42400E+04
 -1.65008E+04  2.89256E+04 -2.68773E+04  1.00558E+04 -2.03006E+04 -1.00807E+04 -4.48688E+03 -1.35379E+04
  2.53988E+03 -3.51630E+03 -3.74005E+03  6.20838E+03 -1.46906E+04  4.98602E+03 -1.48824E+04 -5.92459E+03
 -9.47811E+03 -1.72994E+04  4.75736E+03 -2.08304E+04  1.36891E+04 -1.49365E+04  1.63197E+04 -1.62022E+03
  1.02420E+04  1.17522E+04 -9.77491E+02  1.70478E+04 -1.15407E+04  9.72532E+03 -1.71643E+04 -3.72691E+03
 -1.27448E+04 -1.51957E+04 -1.40101E+03 -2.09110E+04  9.51830E+03 -1.70167E+04  1.77291E+04 -8.23455E+03
  1.58140E+04  6.90213E+02  1.16419E+04  4.18892E+03  5.94134E+03  7.08322E+02  8.49116E+03 -1.37534E+03
  1.53975E+04  2.61251E+03  1.67461E+04  1.37888E+04  1.09444E+04  2.72348E+04 -3.10759E+03  2.99285E+04
 -1.75317E+04  2.37901E+04 -2.78415E+04  1.13599E+04 -2.86990E+04 -2.32895E+03 -2.42793E+04 -1.63880E+04
 -1.11324E+04 -2.36518E+04  8.02315E+03 -2.19383E+04  1.89714E+04 -1.18835E+04  1.73352E+04  4.56550E+03
  6.86598E+03  1.28146E+04 -8.20104E+03  1.14571E+04 -1.48833E+04  2.69113E+03 -1.14298E+04 -8.80331E+03
 -1.60362E+02 -1.38952E+04  6.80457E+03 -1.03566E+04  8.61378E+03 -1.29410E+03  1.70444E+03  5.68266E+03
 -6.27092E+03  1.70335E+03 -4.45902E+03 -5.13531E+03  2.75088E+02 -1.14334E+04  8.77914E+03 -1.18682E+04
  1.41709E+04 -6.13755E+03  1.47040E+04  2.79576E+03  1.25308E+04  1.10693E+04  6.20501E+03  1.68681E+04
 -2.33708E+03  1.86593E+04 -1.15737E+04  1.19472E+04 -1.33147E+04  3.14663E+03 -9.55321E+03 -2.63371E+03
 -4.95293E+03 -4.17775E+03 -9.49622E+02  1.29098E+03 -2.40526E+03  2.53732E+03 -4.60419E+03  3.95439E+03
 -9.03536E+03 -3.64094E+02 -9.69470E+03 -8.21653E+03 -4.46797E+03 -1.28952E+04  4.05557E+03 -9.88305E+03
  8.15990E+03 -4.06130E+03  6.15668E+03  2.69149E+03  3.87748E+02  3.40511E+03 -4.38883E+03 -2.86678E+01
 -4.36967E+03 -5.92263E+03 -9.74738E+02 -8.74943E+03  4.84083E+03 -9.39911E+03  1.15274E+04 -4.98711E+03
  1.36680E+04  8.98906E+02  1.01458E+04  7.72689E+03  2.14348E+03  1.07544E+04 -6.12049E+03  9.60798E+03
 -7.74891E+03  3.20660E+03 -4.30951E+03 -1.81298E+03  1.44281E+03 -2.51639E+03  5.50703E+03 -8.43321E+02
  4.91453E+03  4.00965E+03  9.46723E+02  7.69520E+03 -5.37799E+03  7.64816E+03 -9.38606E+03  1.96722E+03
 -5.97670E+03 -4.27851E+03  4.16992E+02 -7.92829E+03  4.85065E+03 -3.93156E+03  4.58999E+03  1.44236E+03
  6.97122E+02  4.42479E+03 -4.74722E+03  6.06053E+03 -6.35133E+03  2.75234E+03 -6.10504E+03 -1.91333E+03
 -3.89807E+03 -7.62478E+03  1.34245E+03 -8.93310E+03  7.77678E+03 -5.53837E+03  8.04907E+03  1.31000E+03
  5.70397E+03  6.21670E+03  2.17954E+02  8.86506E+03 -6.60142E+03  4.79182E+03 -6.70524E+03 -5.22293E+02
 -6.56273E+03 -6.05315E+03 -1.41977E+03 -6.16446E+03  3.34725E+03 -5.62813E+03  3.64180E+03 -3.32754E+03
  3.25615E+03  8.09766E+02 -7.44006E+01  1.45273E+03  7.16491E+01 -7.25722E+02  6.74917E+02 -3.05655E+03
  5.35606E+03 -1.42458E+03  7.17056E+03  8.66229E+02  7.34938E+03  4.48633E+03  6.01386E+03  9.45012E+03
 -1.83982E+03  1.12682E+04 -9.65375E+03  8.36935E+03 -1.22351E+04  1.64806E+03 -9.87459E+03 -3.76507E+03
 -5.32378E+03 -8.22745E+03 -8.18586E+02 -6.69934E+03  2.72269E+03 -3.26000E+03  2.22433E+03 -2.66518E+03
  1.50757E+03 -1.54190E+03  2.46533E+03 -2.38675E+03  4.26470E+03 -1.85944E+03  4.29733E+03 -3.47252E+01
  5.57325E+03  1.44005E+03  1.76905E+03  4.46130E+03 -1.40730E+03  4.31551E+03 -5.65968E+03  3.78796E+03
 -6.41452E+03 -8.67398E+02 -2.98433E+03 -4.45557E+03  2.70065E+02 -6.49996E+03  3.88018E+03 -6.94514E+03
  6.96541E+03 -4.12648E+03  8.67222E+03  7.22003E+02  6.36205E+03  5.67572E+03  8.97600E+02  7.72521E+03
 -2.93980E+03  7.10086E+03 -4.63511E+03  2.47529E+03 -2.94255E+03 -1.15270E+03 -7.36068E+02 -3.71023E+02
 -5.81828E+02  3.73028E+02 -1.30270E+03  2.16791E+03 -2.99148E+03  1.26014E+03 -5.16663E+03 -5.23433E+02
 -2.50615E+03 -5.26949E+03  6.52303E+02 -6.15202E+03  3.69030E+03 -6.14710E+03  5.50292E+03 -1.30595E+03
  5.71846E+03  3.19318E+03  2.65875E+03  4.99663E+03 -1.35998E+03  6.56186E+03 -3.99574E+03  3.57074E+03
 -5.29528E+03  7.92747E+02 -4.43736E+03 -3.30594E+03 -1.90158E+02 -4.70492E+03  2.32891E+03 -3.51028E+03
  3.50054E+03 -1.65067E+03  2.62568E+03  7.00302E+02  8.43048E+02  2.02456E+03  7.40776E+02  5.59471E+02
  1.89418E+03  4.34749E+02  1.61535E+03  1.04641E+03  1.66805E+03  2.72508E+03  1.85706E+03  2.91000E+03
 -1.59413E+03  4.28462E+03 -3.71218E+03  5.24947E+03 -5.24556E+03  1.62144E+03 -5.72911E+03 -1.43687E+03
 -2.86211E+03 -5.51734E+03  9.03692E+02 -6.55794E+03  2.88446E+03 -3.59730E+03  4.56097E+03 -1.12906E+03
  3.41762E+03  2.09649E+03  8.43325E+02  3.57042E+03 -1.11187E+03  2.11593E+03 -1.68801E+03 -1.92335E+02
 -9.87024E+02 -2.11886E+03  1.58699E+03 -2.28087E+03  1.98782E+03 -1.19655E+03  2.12372E+03  3.68301E+02
  1.16367E+03  8.13211E+02  6.03439E+02  2.41785E+02 -2.96291E+02  9.74910E+02  1.44461E+03 -2.79379E+02
  2.99345E+02 -3.83657E+02  2.57766E+03  1.08707E+03  4.63921E+02  3.18197E+03 -6.07738E+02  4.18259E+03
 -2.23899E+03  2.07723E+03 -3.31931E+03  6.56833E+02 -2.98762E+03 -9.55662E+02 -4.59592E+02 -1.78591E+03
  5.79191E+02 -1.78309E+03  1.19625E+03 -1.10471E+03  9.64961E+02  1.57636E+03 -5.83719E+02  1.84306E+03
 -2.05381E+03  1.08029E+03 -2.06709E+03 -1.67489E+03 -1.46006E+03 -3.27153E+03  2.79519E+02 -2.41032E+03
  9.39728E+02 -1.11403E+03  1.62959E+03 -1.85328E+02  2.02079E+03  4.39385E+02  2.25318E+02  1.74439E+03
 -5.57175E+02  1.66993E+02 -1.39660E+03 -4.45589E+02  9.71239E+02 -1.65051E+03  2.29072E+03 -1.61884E+03
  2.39771E+03  4.41118E+02  3.70371E+03  1.84730E+03  1.23618E+03  2.81888E+03 -5.97454E+02  2.79359E+03
 -2.39489E+03  4.31204E+02 -2.29439E+03 -1.34069E+02 -1.26867E+03 -1.98590E+03  3.45441E+02 -1.03742E+03
  2.38345E+03 -9.61314E+02  1.31094E+03  1.00311E+03  4.61391E+02  2.03006E+03  4.63178E+01  1.65766E+03
 -6.75371E+02  1.13496E+03 -5.29349E+02  4.72366E+02  3.22494E+02  7.66471E+02 -9.20990E+02  7.29908E+02
 -1.20842E+03  1.38632E+03 -2.54118E+03  9.84965E+02 -2.55865E+03  5.55751E+01 -3.58907E+03 -1.85942E+03
 -1.32550E+03 -3.74847E+03  1.06526E+03 -4.56196E+03  2.13098E+03 -3.62039E+03  3.99742E+03 -1.68619E+03
  3.69588E+03  2.66661E+02  2.01129E+03  2.58949E+03 -3.79108E+02  2.51794E+03 -1.04826E+03  2.25960E+03
 -1.49285E+03  1.37731E+03 -8.21917E+02 -1.65991E+02 -6.29499E+02  2.31541E+02 -6.83220E+02 -2.23559E+01
 -1.13088E+03 -3.92163E+01 -9.94135E+02 -2.81321E+02  2.93673E+02 -9.34329E+02 -2.54968E+02 -8.57141E+02
  1.86011E+03 -8.11301E+02  8.43264E+02  1.41645E+02  2.06734E+03  1.77944E+03 -5.41370E+02  2.50715E+03
 -1.36761E+03  3.53769E+03 -2.82470E+03  1.98395E+03 -2.92642E+03 -2.66025E+02 -2.39721E+03 -2.34741E+03
 -1.43669E+03 -2.49916E+03  4.99594E+02 -2.24384E+03  1.05491E+03 -1.13405E+03  1.36218E+03  2.26110E+02
  1.27803E+03  4.62927E+02  5.94530E+00  5.04530E+02 -6.92458E+02  1.79478E+02  3.04613E+01 -6.83187E+02
  8.93949E+02 -7.56261E+01  4.95179E+02  4.59888E+02  3.42928E+02  8.35165E+02  5.06770E+02  8.67671E+02
 -1.06321E+03  9.79187E+02 -1.40019E+03  4.49271E+02 -1.53396E+03 -8.55829E+02 -1.41319E+02 -2.00744E+03
  9.94711E+02 -1.18941E+03  1.35154E+03 -1.95456E+02  2.03529E+03 -6.73028E+00  4.25331E+02  1.37013E+03
  6.44293E+02  1.07880E+03 -5.09828E+02  1.12812E+03 -1.04758E+03  5.69110E+02 -6.47347E+02  2.84225E+02
 -6.65840E+02 -9.05291E+01 -4.76699E+02  2.08442E+02 -9.42335E+02  4.36665E+02 -1.44263E+03 -1.87561E+02
 -1.67406E+03  9.05599E+01 -2.50984E+02 -1.41465E+03  9.98725E+02 -2.10636E+03  1.58309E+03 -7.76769E+02
  1.45331E+03  2.60723E+02  4.38608E+01  9.65463E+02  9.62883E+01  1.46792E+03 -9.44311E+02  1.01402E+03
