 $NMID ID='MM_0lb_SNR800_7hz_g45_10.RAW', FMTDAT='(8E13.5)'
 TRAMP=1., VOLUME=1. $END
  3.09867E+05  7.46023E+02  3.37681E+05  2.50985E+05  8.48780E+04  3.39056E+05 -1.32549E+05  2.51775E+05
 -1.90494E+05  8.36404E+04 -1.12680E+05 -3.21205E+04  1.47718E+02 -5.08802E+04  5.34285E+04 -5.28272E+02
  3.59252E+04  5.30055E+04 -1.63484E+04  7.61615E+04 -6.12267E+04  6.50461E+04 -8.58494E+04  3.21851E+04
 -8.29127E+04 -1.19012E+04 -5.88689E+04 -5.24493E+04 -1.53587E+04 -7.08579E+04  2.88410E+04 -4.71382E+04
  4.09052E+04  3.90128E+03  1.74280E+04  4.86121E+04 -3.49481E+04  4.86751E+04 -6.80991E+04  3.29693E+02
 -5.49477E+04 -5.81528E+04 -7.67634E+03 -7.92176E+04  3.51453E+04 -5.77348E+04  5.05782E+04 -1.82495E+04
  4.56960E+04  1.17977E+04  3.33188E+04  2.71119E+04  1.60880E+04  3.09005E+04 -6.38170E+03  2.75633E+04
 -2.20483E+04  1.17315E+04 -1.80348E+04 -5.75895E+03  7.89152E+03 -7.15008E+03  2.38814E+04  1.40914E+04
  7.23617E+03  3.82542E+04 -3.43401E+04  3.76137E+04 -6.64630E+04  2.50748E+03 -5.92601E+04 -4.49312E+04
 -1.29088E+04 -6.66332E+04  4.22006E+04 -4.79110E+04  6.21516E+04 -2.23504E+03  3.76025E+04  3.55636E+04
 -4.91094E+03  4.03756E+04 -3.20698E+04  1.94006E+04 -3.40133E+04 -3.12062E+03 -1.98177E+04 -1.21800E+04
 -9.79132E+03 -1.58642E+04 -1.09289E+02 -2.04919E+04  9.20064E+03 -2.33684E+04  1.64576E+04 -1.23864E+04
  1.01125E+04  6.73797E+03 -1.14884E+04  1.27630E+04 -2.42140E+04 -7.58486E+03 -8.94273E+03 -3.83670E+04
  2.60816E+04 -4.83531E+04  5.35828E+04 -2.15189E+04  4.94935E+04  2.10155E+04  1.78732E+04  4.77116E+04
 -1.65693E+04  3.72499E+04 -2.83606E+04  3.19406E+03 -1.20121E+04 -2.97602E+04  2.17433E+04 -3.77958E+04
  4.55295E+04 -1.18301E+04  4.18947E+04  2.54258E+04  2.23347E+04  5.25581E+04 -8.33955E+03  5.73116E+04
 -3.69543E+04  3.94679E+04 -4.94192E+04  1.11208E+04 -4.92878E+04 -1.93753E+04 -2.72252E+04 -4.34582E+04
  7.96999E+03 -4.33095E+04  3.53014E+04 -1.76664E+04  3.27311E+04  1.11819E+04  5.16696E+03  2.14447E+04
 -1.44813E+04  1.02016E+04 -1.09921E+04 -7.31437E+03  5.61397E+03 -1.14532E+04  1.91192E+04  5.56622E+03
  1.49852E+04  2.29184E+04 -4.99137E+03  2.78329E+04 -2.37177E+04  1.52560E+04 -3.24540E+04 -2.17887E+03
 -2.72989E+04 -1.89093E+04 -1.26225E+04 -2.67357E+04  4.54655E+03 -2.74516E+04  2.09536E+04 -2.45740E+04
  3.41142E+04 -1.48325E+04  4.01836E+04  6.20115E+03  2.83374E+04  2.61425E+04  4.30120E+03  4.26684E+04
 -2.05110E+04  3.47862E+04 -3.16951E+04  1.20919E+04 -2.34188E+04 -1.00358E+04 -5.17954E+03 -1.28689E+04
  3.43634E+02 -3.58442E+02 -8.25627E+03  9.26217E+03 -2.14703E+04  5.05534E+03 -2.19911E+04 -1.04460E+04
 -1.25534E+04 -2.53183E+04  6.70627E+03 -2.88278E+04  1.98117E+04 -2.11028E+04  2.46061E+04 -2.16515E+03
  1.57731E+04  1.67708E+04 -1.20749E+03  2.46834E+04 -1.78977E+04  1.44128E+04 -2.53405E+04 -4.77191E+03
 -1.84888E+04 -2.22550E+04 -2.36043E+03 -2.99681E+04  1.30889E+04 -2.54210E+04  2.49949E+04 -1.32325E+04
  2.35074E+04 -7.46475E+02  1.68449E+04  5.37437E+03  9.37029E+03  2.15478E+03  1.29639E+04 -1.71220E+03
  2.34709E+04  3.05252E+03  2.75856E+04  1.89888E+04  1.91187E+04  4.02843E+04 -2.44214E+03  4.82929E+04
 -2.68648E+04  3.99694E+04 -4.52537E+04  2.12286E+04 -4.94569E+04 -3.45292E+03 -3.84813E+04 -2.83901E+04
 -1.52493E+04 -4.07055E+04  1.49569E+04 -3.51297E+04  3.02567E+04 -1.60636E+04  2.58950E+04  8.59782E+03
  8.84128E+03  1.99998E+04 -1.23605E+04  1.69995E+04 -2.15874E+04  2.45444E+03 -1.63608E+04 -1.37426E+04
 -1.71558E+02 -2.13182E+04  1.16337E+04 -1.52889E+04  1.41635E+04 -1.77951E+03  3.79851E+03  9.21246E+03
 -9.58826E+03  4.84737E+03 -1.05294E+04 -7.48692E+03 -2.57745E+03 -1.99531E+04  1.30665E+04 -2.22064E+04
  2.52779E+04 -1.26722E+04  2.95384E+04  3.44836E+03  2.60817E+04  2.05861E+04  1.19931E+04  3.22458E+04
 -6.54111E+03  3.42998E+04 -2.27587E+04  2.17402E+04 -2.52423E+04  4.17146E+03 -1.64819E+04 -7.37673E+03
 -6.95859E+03 -8.15048E+03 -6.77384E+02  3.70622E+02 -2.81708E+03  3.87460E+03 -8.47611E+03  6.08892E+03
 -1.55931E+04 -9.19229E+02 -1.61110E+04 -1.30651E+04 -6.96163E+03 -2.11429E+04  7.01680E+03 -1.76291E+04
  1.43678E+04 -6.83801E+03  9.73014E+03  5.26173E+03 -6.07694E+02  6.36200E+03 -8.75479E+03 -8.13454E+01
 -8.64537E+03 -1.10575E+04 -1.19329E+03 -1.75203E+04  1.02270E+04 -1.82870E+04  2.25394E+04 -1.01975E+04
  2.59200E+04  2.87816E+03  1.93210E+04  1.64530E+04  3.66915E+03  2.15088E+04 -1.02152E+04  1.72462E+04
 -1.41732E+04  4.80618E+03 -7.29235E+03 -3.96296E+03  2.60357E+03 -5.22150E+03  8.90607E+03 -1.22553E+03
  7.93607E+03  7.81677E+03  1.45944E+03  1.40420E+04 -1.05638E+04  1.39407E+04 -1.71680E+04  2.99467E+03
 -1.21604E+04 -9.35338E+03  5.77347E+01 -1.50889E+04  1.00470E+04 -7.69213E+03  1.06129E+04  4.45690E+03
  2.07127E+03  1.16917E+04 -8.94568E+03  1.35759E+04 -1.62124E+04  6.09771E+03 -1.66484E+04 -5.76894E+03
 -8.87560E+03 -1.77526E+04  4.69090E+03 -2.09475E+04  1.77907E+04 -1.26417E+04  1.95408E+04  3.54638E+03
  1.14748E+04  1.53851E+04 -2.61831E+03  1.80787E+04 -1.32315E+04  9.58854E+03 -1.44773E+04 -1.93552E+03
 -1.20214E+04 -1.20444E+04 -1.76849E+03 -1.35053E+04  7.46541E+03 -1.10880E+04  9.10134E+03 -3.89493E+03
  5.51962E+03  2.75854E+03 -1.43606E+03  2.35104E+03 -1.27698E+03 -4.05485E+03  3.44652E+03 -9.13047E+03
  1.36144E+04 -6.19994E+03  1.91908E+04  1.91800E+03  1.82124E+04  1.33174E+04  1.10363E+04  2.44924E+04
 -6.18309E+03  2.82144E+04 -2.32909E+04  2.06376E+04 -2.98566E+04  3.75943E+03 -2.40570E+04 -1.06434E+04
 -1.23463E+04 -2.05329E+04 -6.59202E+01 -1.74065E+04  5.88296E+03 -1.04489E+04  5.80954E+03 -6.17569E+03
  4.35169E+03 -3.90418E+03  4.71795E+03 -4.57639E+03  6.09891E+03 -4.09489E+03  9.03298E+03 -1.92091E+03
  1.28927E+04  2.89911E+03  7.18077E+03  1.08966E+04 -2.51585E+03  1.37596E+04 -1.33830E+04  1.04155E+04
 -1.78574E+04 -1.62037E+03 -1.12093E+04 -1.29120E+04 -1.84661E+03 -1.89651E+04  1.03379E+04 -1.84250E+04
  1.97685E+04 -1.05666E+04  2.31111E+04  3.30223E+03  1.59566E+04  1.66421E+04  2.97372E+03  2.11226E+04
 -8.94772E+03  1.65862E+04 -1.23805E+04  5.99556E+03 -9.05153E+03 -2.14606E+03 -3.70334E+03 -3.11296E+03
 -1.61320E+03 -5.58897E+02 -3.13218E+03  3.58538E+03 -6.75782E+03  3.09660E+03 -1.16259E+04 -1.99555E+03
 -8.90209E+03 -1.20828E+04 -3.83989E+02 -1.79959E+04  1.10964E+04 -1.63174E+04  1.84743E+04 -5.02231E+03
  1.82641E+04  8.52791E+03  8.19993E+03  1.69155E+04 -3.67866E+03  1.82130E+04 -1.32098E+04  1.08422E+04
 -1.75621E+04  3.53964E+02 -1.30479E+04 -1.06401E+04 -1.32963E+03 -1.58126E+04  7.83790E+03 -1.16373E+04
  1.14972E+04 -2.97398E+03  8.24480E+03  2.84120E+03  2.61139E+03  5.68713E+03  1.58706E+03  2.55406E+03
  2.81338E+03  1.26890E+03  4.56232E+03  2.25850E+03  5.44243E+03  6.48375E+03  4.48910E+03  1.02994E+04
 -4.05969E+03  1.45246E+04 -1.30462E+04  1.41613E+04 -1.93509E+04  3.45060E+03 -1.98427E+04 -7.87671E+03
 -9.34010E+03 -1.93594E+04  2.85656E+03 -1.98792E+04  1.17437E+04 -1.30390E+04  1.54359E+04 -3.38220E+03
  1.17553E+04  7.04611E+03  2.58449E+03  1.06253E+04 -5.49198E+03  7.02154E+03 -8.24765E+03 -6.88790E+02
 -3.52567E+03 -8.44274E+03  4.74448E+03 -8.72462E+03  8.27755E+03 -4.27312E+03  7.56122E+03  1.71029E+03
  4.36489E+03  4.55452E+03  1.46142E+03  3.48806E+03 -5.89074E+02  2.75203E+03  1.42074E+03 -7.73259E+02
  3.54235E+03 -1.15415E+03  7.84543E+03  3.02448E+03  4.74937E+03  9.88923E+03 -1.71099E+03  1.37893E+04
 -9.31738E+03  9.06541E+03 -1.27077E+04  2.89595E+03 -1.10209E+04 -4.96849E+03 -4.86218E+03 -7.49703E+03
  1.25424E+03 -7.56806E+03  4.45057E+03 -3.44121E+03  4.15693E+03  3.27153E+03 -1.71124E+03  6.41802E+03
 -8.03439E+03  3.93749E+03 -9.49266E+03 -4.13197E+03 -5.31516E+03 -1.06123E+04  1.83808E+03 -1.12730E+04
  6.74111E+03 -6.39527E+03  8.36938E+03 -7.54311E+02  6.77649E+03  2.91794E+03  5.35783E+02  5.62273E+03
 -3.66447E+03  2.19161E+03 -4.78072E+03 -3.95528E+03  1.64164E+03 -8.12284E+03  9.68737E+03 -6.90688E+03
  1.27649E+04  1.35705E+03  1.20688E+04  9.21421E+03  4.19911E+03  1.34971E+04 -4.83609E+03  1.28412E+04
 -1.10457E+04  6.10841E+03 -1.15406E+04 -1.84628E+03 -6.42620E+03 -8.86069E+03  1.94703E+03 -8.45617E+03
  8.09129E+03 -3.78742E+03  6.92620E+03  2.68849E+03  2.50310E+03  7.20937E+03 -1.63278E+03  6.14444E+03
 -4.17879E+03  4.28215E+03 -3.21861E+03  1.03691E+03 -1.94576E+03  1.09010E+03 -1.85929E+03  3.03313E+03
 -2.75008E+03  5.02956E+03 -8.79475E+03  5.24366E+03 -1.33414E+04  5.81286E+02 -1.46101E+04 -9.24968E+03
 -8.10731E+03 -1.78532E+04  3.68715E+03 -2.08462E+04  1.29135E+04 -1.56671E+04  1.93628E+04 -6.04319E+03
  1.81354E+04  3.79638E+03  1.14656E+04  1.22958E+04  1.01185E+03  1.44658E+04 -5.43994E+03  1.02978E+04
 -7.95688E+03  3.53990E+03 -4.53959E+03 -1.80675E+03 -1.54607E+03 -1.45836E+03 -6.38511E+02  1.52913E+02
 -2.23571E+03  4.57862E+02 -2.96635E+03 -3.99255E+02 -1.12957E+03 -3.12166E+03  5.07340E+02 -5.39534E+03
  6.11272E+03 -4.64068E+03  8.48597E+03 -2.11052E+02  1.01176E+04  7.77281E+03  3.19879E+03  1.42621E+04
 -6.77540E+03  1.62044E+04 -1.49669E+04  9.25124E+03 -1.78892E+04 -1.11414E+03 -1.27616E+04 -1.06332E+04
 -5.42315E+03 -1.48715E+04  3.68842E+03 -1.31324E+04  9.40098E+03 -7.21260E+03  1.00129E+04  2.15389E+02
  5.04492E+03  4.97061E+03 -3.17653E+02  4.45105E+03 -2.98329E+03 -1.11502E+03  3.39772E+02 -3.23162E+03
  4.37639E+03 -2.71896E+03  6.28047E+03  1.79205E+03  3.95421E+03  5.77127E+03  5.87968E+01  7.56766E+03
 -6.72752E+03  6.78423E+03 -1.00707E+04  6.77815E+02 -8.89224E+03 -6.74120E+03 -1.27364E+03 -1.26317E+04
  6.98394E+03 -1.05737E+04  1.22867E+04 -3.09721E+03  1.13031E+04  3.29634E+03  6.73393E+03  9.03105E+03
  9.22880E+02  9.55188E+03 -4.03850E+03  8.15735E+03 -6.08612E+03  4.28495E+03 -5.10747E+03  8.35854E+02
 -3.24409E+03 -3.29558E+02 -2.80313E+03  1.06636E+03 -5.18108E+03  1.59051E+03 -7.83087E+03 -1.34009E+03
 -7.08874E+03 -5.88686E+03 -2.09679E+03 -1.03074E+04  4.20854E+03 -1.08436E+04  8.56757E+03 -4.98275E+03
  1.02848E+04  1.30068E+03  5.98668E+03  7.45901E+03 -8.27139E+02  1.05976E+04 -7.97132E+03  6.37995E+03
