 $NMID ID='MM_0lb_SNR800_9hz_g45_78.RAW', FMTDAT='(8E13.5)'
 TRAMP=1., VOLUME=1. $END
  3.10162E+05  5.08845E+02  3.37614E+05  2.50874E+05  8.49430E+04  3.38502E+05 -1.32527E+05  2.51994E+05
 -1.90932E+05  8.37392E+04 -1.12779E+05 -3.24701E+04  3.12322E+02 -5.08151E+04  5.38121E+04 -5.56332E+02
  3.57230E+04  5.29622E+04 -1.67005E+04  7.57151E+04 -6.11835E+04  6.42646E+04 -8.51845E+04  3.22774E+04
 -8.20539E+04 -1.12919E+04 -5.82767E+04 -5.22501E+04 -1.52973E+04 -7.09307E+04  2.76777E+04 -4.63333E+04
  4.07892E+04  3.47271E+03  1.66237E+04  4.84646E+04 -3.51423E+04  4.81812E+04 -6.77146E+04  2.61300E+02
 -5.53349E+04 -5.75678E+04 -7.70914E+03 -7.85430E+04  3.45065E+04 -5.68978E+04  4.97015E+04 -1.83116E+04
  4.54564E+04  1.11041E+04  3.26725E+04  2.68718E+04  1.58928E+04  3.00837E+04 -5.54426E+03  2.81155E+04
 -2.24667E+04  1.17439E+04 -1.81517E+04 -5.75321E+03  6.50790E+03 -7.51880E+03  2.36974E+04  1.35849E+04
  6.94337E+03  3.74596E+04 -3.36849E+04  3.70619E+04 -6.55108E+04  2.33014E+03 -5.84806E+04 -4.44235E+04
 -1.26852E+04 -6.53476E+04  4.13339E+04 -4.71100E+04  6.09076E+04 -2.46747E+03  3.65315E+04  3.42916E+04
 -5.29850E+03  3.88514E+04 -3.17137E+04  1.85416E+04 -3.24649E+04 -3.67184E+03 -1.91483E+04 -1.17422E+04
 -9.01519E+03 -1.48872E+04 -5.02922E+02 -1.94126E+04  8.50341E+03 -2.34200E+04  1.59072E+04 -1.27448E+04
  1.04652E+04  6.12086E+03 -9.88167E+03  1.28274E+04 -2.35184E+04 -6.69219E+03 -8.66128E+03 -3.74457E+04
  2.52115E+04 -4.67063E+04  5.13678E+04 -2.05560E+04  4.84243E+04  2.04102E+04  1.75114E+04  4.70413E+04
 -1.65389E+04  3.57424E+04 -2.77067E+04  2.82360E+03 -1.17905E+04 -2.93078E+04  2.14871E+04 -3.63061E+04
  4.43912E+04 -1.05794E+04  3.99395E+04  2.47235E+04  2.10144E+04  5.04504E+04 -8.33322E+03  5.55632E+04
 -3.54093E+04  3.79446E+04 -4.71327E+04  1.09128E+04 -4.71057E+04 -1.84137E+04 -2.63528E+04 -4.18992E+04
  8.18621E+03 -4.14123E+04  3.40808E+04 -1.65656E+04  3.17771E+04  1.14403E+04  5.27297E+03  2.07632E+04
 -1.42409E+04  9.68713E+03 -1.11527E+04 -7.60816E+03  5.31846E+03 -1.10271E+04  1.90044E+04  5.36016E+03
  1.46337E+04  2.23162E+04 -4.99395E+03  2.68277E+04 -2.33971E+04  1.37257E+04 -3.16486E+04 -3.21106E+03
 -2.48999E+04 -1.80008E+04 -1.14786E+04 -2.49077E+04  4.47255E+03 -2.48531E+04  1.94657E+04 -2.23561E+04
  3.14595E+04 -1.40167E+04  3.73332E+04  4.96038E+03  2.63708E+04  2.40597E+04  4.49893E+03  4.07636E+04
 -1.93979E+04  3.33177E+04 -2.97966E+04  1.13975E+04 -2.25371E+04 -1.00889E+04 -4.85142E+03 -1.32001E+04
  1.29028E+03 -1.45713E+03 -7.51023E+03  8.31518E+03 -1.98955E+04  5.32754E+03 -1.98013E+04 -9.53143E+03
 -1.16038E+04 -2.27041E+04  5.83692E+03 -2.72476E+04  1.84718E+04 -1.90772E+04  2.24194E+04 -1.80866E+03
  1.39980E+04  1.57304E+04 -9.86644E+02  2.24182E+04 -1.63157E+04  1.31647E+04 -2.30349E+04 -4.79828E+03
 -1.69580E+04 -2.04976E+04 -2.36754E+03 -2.78191E+04  1.26791E+04 -2.29025E+04  2.27185E+04 -1.19208E+04
  2.17491E+04 -4.05732E+01  1.56840E+04  5.15978E+03  8.66768E+03  1.33811E+03  1.19463E+04 -1.69077E+03
  2.17618E+04  2.64810E+03  2.49523E+04  1.79842E+04  1.70417E+04  3.70848E+04 -2.78433E+03  4.34068E+04
 -2.48686E+04  3.62627E+04 -4.10274E+04  1.87068E+04 -4.35946E+04 -3.06329E+03 -3.55954E+04 -2.52020E+04
 -1.43956E+04 -3.62611E+04  1.24021E+04 -3.18532E+04  2.71450E+04 -1.49740E+04  2.40981E+04  7.68202E+03
  8.20172E+03  1.83942E+04 -1.12534E+04  1.50102E+04 -1.97487E+04  2.30494E+03 -1.48173E+04 -1.28095E+04
 -6.00949E+02 -1.90881E+04  1.04219E+04 -1.41798E+04  1.29602E+04 -1.53637E+03  3.45510E+03  8.59755E+03
 -8.74874E+03  4.16354E+03 -9.09635E+03 -6.55861E+03 -1.86788E+03 -1.75615E+04  1.21255E+04 -1.90700E+04
  2.24457E+04 -1.05617E+04  2.56113E+04  3.23005E+03  2.23654E+04  1.80749E+04  1.04192E+04  2.81937E+04
 -5.35222E+03  3.03330E+04 -1.99807E+04  1.89947E+04 -2.17462E+04  3.73041E+03 -1.47313E+04 -5.80990E+03
 -6.67131E+03 -6.49188E+03 -5.27231E+02  9.07148E+02 -2.89061E+03  3.09230E+03 -7.51406E+03  5.42427E+03
 -1.41173E+04 -1.23130E+03 -1.46538E+04 -1.18764E+04 -5.42710E+03 -1.90723E+04  6.24007E+03 -1.54193E+04
  1.28516E+04 -6.56702E+03  8.71414E+03  4.24734E+03 -6.48610E+02  6.56068E+03 -7.54990E+03 -8.54258E+01
 -7.25248E+03 -9.81810E+03 -1.29808E+03 -1.50869E+04  8.77179E+03 -1.59528E+04  1.98980E+04 -8.55203E+03
  2.29186E+04  2.47582E+03  1.67759E+04  1.37312E+04  3.01427E+03  1.88773E+04 -9.09220E+03  1.52766E+04
 -1.22490E+04  4.36002E+03 -6.47710E+03 -3.05060E+03  2.49972E+03 -4.21399E+03  8.32405E+03 -1.18038E+03
  7.40897E+03  6.57311E+03  9.93528E+02  1.23950E+04 -8.95564E+03  1.16730E+04 -1.51275E+04  2.63144E+03
 -1.04621E+04 -7.80637E+03  1.49585E+02 -1.29004E+04  8.39023E+03 -6.27709E+03  9.09342E+03  3.42502E+03
  2.50879E+03  9.62376E+03 -7.98773E+03  1.14072E+04 -1.33262E+04  5.10050E+03 -1.35255E+04 -4.80148E+03
 -7.68591E+03 -1.57116E+04  3.82195E+03 -1.75388E+04  1.51870E+04 -1.03113E+04  1.64384E+04  2.92702E+03
  9.62560E+03  1.29379E+04 -1.72746E+03  1.53205E+04 -1.13683E+04  8.83083E+03 -1.24724E+04 -1.18884E+03
 -1.04682E+04 -1.06313E+04 -1.83523E+03 -1.14040E+04  5.96437E+03 -9.54207E+03  7.56040E+03 -3.91196E+03
  4.83881E+03  1.99405E+03 -6.56964E+02  2.52228E+03 -7.45735E+02 -3.45073E+03  2.25851E+03 -7.16634E+03
  1.10340E+04 -4.71707E+03  1.56003E+04  1.73910E+03  1.53025E+04  1.05027E+04  1.00069E+04  2.03742E+04
 -4.70030E+03  2.32383E+04 -1.92877E+04  1.67224E+04 -2.48721E+04  2.81901E+03 -2.05277E+04 -8.74292E+03
 -1.01327E+04 -1.62427E+04 -1.63379E+02 -1.43216E+04  4.82566E+03 -8.05351E+03  5.37192E+03 -5.44257E+03
  3.76643E+03 -3.35291E+03  3.87922E+03 -4.41306E+03  5.49357E+03 -3.55724E+03  8.00698E+03 -1.50382E+03
  1.06377E+04  2.51858E+03  5.59099E+03  9.12277E+03 -2.23676E+03  1.10192E+04 -1.08933E+04  8.53710E+03
 -1.43622E+04 -9.29511E+02 -9.00230E+03 -9.93244E+03 -1.70122E+03 -1.55954E+04  8.99298E+03 -1.55511E+04
  1.58151E+04 -8.34771E+03  1.90664E+04  2.74517E+03  1.34049E+04  1.35044E+04  1.72456E+03  1.71043E+04
 -6.96217E+03  1.43388E+04 -1.03941E+04  4.69143E+03 -6.77968E+03 -1.77941E+03 -2.66157E+03 -2.09022E+03
 -1.36505E+03 -5.99726E+02 -2.45816E+03  2.89291E+03 -5.97916E+03  2.67639E+03 -1.01009E+04 -1.83154E+03
 -7.05113E+03 -9.80917E+03  1.44958E+02 -1.43866E+04  9.11816E+03 -1.33668E+04  1.43273E+04 -4.31912E+03
  1.41815E+04  6.70762E+03  6.32606E+03  1.25244E+04 -2.68786E+03  1.42534E+04 -1.02938E+04  8.69196E+03
 -1.36789E+04  3.93149E+02 -1.00895E+04 -8.57688E+03 -1.28109E+03 -1.19625E+04  6.56840E+03 -9.16354E+03
  9.49535E+03 -2.50990E+03  6.51505E+03  2.37362E+03  2.32460E+03  4.53123E+03  1.41170E+03  1.72810E+03
  2.54109E+03  1.07252E+03  3.22332E+03  1.78004E+03  4.54207E+03  5.15063E+03  3.38454E+03  7.49063E+03
 -3.07479E+03  1.14805E+04 -1.03285E+04  1.09670E+04 -1.48387E+04  3.03293E+03 -1.52772E+04 -5.78868E+03
 -7.49088E+03 -1.46273E+04  2.15729E+03 -1.59238E+04  8.36256E+03 -1.02063E+04  1.18557E+04 -2.93592E+03
  9.33217E+03  5.86538E+03  1.80484E+03  8.55215E+03 -4.14986E+03  5.04464E+03 -5.74769E+03 -1.09547E+03
 -2.72995E+03 -6.49413E+03  3.39406E+03 -6.25638E+03  6.17072E+03 -3.02497E+03  5.74919E+03  1.56352E+03
  3.32415E+03  3.02474E+03  1.64099E+03  2.76280E+03 -1.04637E+03  1.92056E+03  1.69412E+03 -7.74978E+01
  2.27243E+03 -9.17978E+02  5.84096E+03  2.26417E+03  3.62683E+03  7.82395E+03 -1.13849E+03  9.88149E+03
 -7.09840E+03  7.20815E+03 -9.38481E+03  2.04106E+03 -8.35032E+03 -3.28196E+03 -3.13358E+03 -5.32011E+03
  1.14839E+03 -5.88544E+03  3.94267E+03 -2.77454E+03  3.26100E+03  2.62984E+03 -1.28628E+03  5.02867E+03
 -5.61894E+03  2.72334E+03 -7.15730E+03 -3.71818E+03 -4.08855E+03 -7.88994E+03  1.45410E+03 -8.08702E+03
  4.86212E+03 -5.08135E+03  5.79547E+03 -6.57375E+02  5.35896E+03  1.78340E+03  1.09008E+03  4.44114E+03
 -2.84876E+03  1.32909E+03 -3.41037E+03 -3.19740E+03  1.14735E+03 -5.90670E+03  7.12238E+03 -5.28086E+03
  9.46004E+03  8.82850E+02  9.09398E+03  6.22943E+03  2.87228E+03  9.82812E+03 -3.61799E+03  9.29965E+03
 -7.98313E+03  4.13773E+03 -7.72055E+03 -1.34433E+03 -4.38133E+03 -6.06844E+03  1.14292E+03 -5.57176E+03
  6.03507E+03 -2.84030E+03  5.27689E+03  2.78906E+03  1.82319E+03  5.39587E+03 -1.06702E+03  4.82865E+03
 -2.30892E+03  2.98212E+03 -2.33369E+03  8.66759E+02 -1.02675E+03  7.04417E+02 -1.97348E+03  2.16708E+03
 -2.42702E+03  3.66590E+03 -6.56543E+03  3.29855E+03 -9.68265E+03  7.90648E+01 -1.06406E+04 -6.49493E+03
 -5.72340E+03 -1.31365E+04  2.53418E+03 -1.50778E+04  8.94241E+03 -1.16124E+04  1.41731E+04 -4.87667E+03
  1.35778E+04  2.76466E+03  8.12993E+03  8.97848E+03  6.01864E+02  1.07308E+04 -4.10855E+03  7.38747E+03
 -5.57016E+03  2.71455E+03 -3.35995E+03 -1.13097E+03 -1.19271E+03 -8.91268E+02 -6.25254E+02 -4.21341E+02
 -2.20651E+03  3.69153E+02 -2.54398E+03 -5.12360E+02 -6.59902E+02 -2.29115E+03  1.61513E+02 -3.91343E+03
  4.52051E+03 -3.31735E+03  5.91041E+03 -1.55121E+02  7.07115E+03  5.39198E+03  2.02201E+03  1.02114E+04
 -4.98528E+03  1.15245E+04 -1.07567E+04  6.54580E+03 -1.25414E+04 -9.75480E+02 -9.05712E+03 -7.69511E+03
 -4.02189E+03 -1.00287E+04  2.85708E+03 -9.11051E+03  6.38007E+03 -5.04226E+03  6.71572E+03  4.82188E+02
  3.52774E+03  3.35925E+03 -4.10755E+02  2.68529E+03 -1.99602E+03  1.11519E+02 -1.35703E+02 -2.31530E+03
  3.12084E+03 -1.73764E+03  3.40984E+03  1.16479E+03  2.64853E+03  4.24319E+03  4.90957E+02  5.22804E+03
 -4.30490E+03  4.71247E+03 -6.63816E+03  7.47766E+02 -6.26997E+03 -4.97617E+03 -9.07179E+02 -8.46216E+03
  4.57121E+03 -7.77089E+03  8.13798E+03 -2.05216E+03  7.95838E+03  1.71802E+03  4.26258E+03  6.68984E+03
  7.86069E+02  6.54063E+03 -2.97756E+03  5.57398E+03 -4.53591E+03  2.98895E+03 -4.09664E+03  7.73398E+02
 -1.93588E+03 -5.68292E+02 -2.01763E+03  9.20417E+02 -3.44067E+03  1.37798E+03 -5.55619E+03 -1.22305E+03
 -5.12158E+03 -3.46485E+03 -1.43262E+03 -7.07389E+03  3.03375E+03 -6.69735E+03  6.09495E+03 -3.17534E+03
  6.89786E+03  4.93837E+02  3.71640E+03  4.73075E+03 -5.88779E+02  6.89542E+03 -4.86454E+03  4.83484E+03
