 $NMID ID='MM_0lb_SNR800_19hz_g45_26.RAW', FMTDAT='(8E13.5)'
 TRAMP=1., VOLUME=1. $END
  3.09924E+05  3.15819E+02  3.37061E+05  2.50431E+05  8.45236E+04  3.37163E+05 -1.32523E+05  2.50233E+05
 -1.89718E+05  8.22015E+04 -1.10615E+05 -3.28840E+04  1.42891E+03 -5.02023E+04  5.37498E+04  2.96286E+02
  3.50512E+04  5.26104E+04 -1.67388E+04  7.48900E+04 -6.01907E+04  6.25188E+04 -8.26871E+04  3.15911E+04
 -7.94439E+04 -1.10688E+04 -5.60974E+04 -4.99587E+04 -1.48850E+04 -6.78848E+04  2.64994E+04 -4.46123E+04
  3.90410E+04  3.83864E+03  1.55676E+04  4.69671E+04 -3.39279E+04  4.59486E+04 -6.51340E+04 -6.27622E+02
 -5.16475E+04 -5.53972E+04 -6.34738E+03 -7.47690E+04  3.29407E+04 -5.27321E+04  4.59438E+04 -1.62860E+04
  4.13398E+04  1.08297E+04  3.07355E+04  2.42581E+04  1.58061E+04  2.78468E+04 -4.71920E+03  2.63332E+04
 -2.17597E+04  1.28869E+04 -1.94915E+04 -4.21870E+03  4.06971E+03 -8.02080E+03  2.07918E+04  1.05805E+04
  7.53221E+03  3.30959E+04 -3.02808E+04  3.39240E+04 -6.09037E+04  1.96486E+03 -5.50701E+04 -4.08818E+04
 -1.20593E+04 -6.05683E+04  3.80859E+04 -4.32565E+04  5.49224E+04 -1.97034E+03  3.15220E+04  3.04167E+04
 -6.68249E+03  3.26744E+04 -2.80801E+04  1.29126E+04 -2.72958E+04 -5.35011E+03 -1.40790E+04 -9.93236E+03
 -7.20862E+03 -1.10272E+04 -1.01696E+03 -1.67521E+04  6.50858E+03 -2.24611E+04  1.48849E+04 -1.37539E+04
  1.21949E+04  4.15929E+03 -6.04392E+03  1.30922E+04 -1.91090E+04 -2.14009E+03 -7.69255E+03 -2.99325E+04
  2.04227E+04 -3.99316E+04  4.40745E+04 -1.83866E+04  4.14201E+04  1.78904E+04  1.37557E+04  4.13741E+04
 -1.53113E+04  3.06537E+04 -2.30489E+04  1.42573E+03 -8.03040E+03 -2.62834E+04  2.02292E+04 -3.08573E+04
  3.79064E+04 -7.15667E+03  3.09181E+04  2.24261E+04  1.48294E+04  4.19157E+04 -7.72299E+03  4.43459E+04
 -2.77785E+04  2.91131E+04 -3.63467E+04  8.01846E+03 -3.75770E+04 -1.48606E+04 -2.09781E+04 -3.37253E+04
  7.02119E+03 -3.35126E+04  2.88441E+04 -1.23068E+04  2.66528E+04  1.09150E+04  2.86505E+03  1.73310E+04
 -1.30155E+04  7.08182E+03 -9.35648E+03 -7.76255E+03  6.13903E+03 -9.93911E+03  1.71092E+04  6.47979E+03
  1.23165E+04  2.15879E+04 -6.61765E+03  2.32722E+04 -2.12358E+04  8.81878E+03 -2.45922E+04 -6.57638E+03
 -1.61625E+04 -1.62810E+04 -5.38980E+03 -1.61744E+04  3.68163E+03 -1.43294E+04  1.19663E+04 -1.39445E+04
  2.05681E+04 -1.16525E+04  2.74604E+04  6.66328E+02  2.07006E+04  1.59959E+04  4.02791E+03  3.18911E+04
 -1.60565E+04  2.69458E+04 -2.56554E+04  9.11770E+03 -1.94961E+04 -1.04956E+04 -3.97234E+03 -1.39441E+04
  2.63995E+03 -4.24016E+03 -2.04498E+03  5.13563E+03 -1.24103E+04  5.19808E+03 -1.30924E+04 -4.73502E+03
 -8.56984E+03 -1.51180E+04  4.37500E+03 -1.91415E+04  1.20123E+04 -1.36079E+04  1.40351E+04 -1.72374E+03
  8.56722E+03  1.05891E+04 -8.52590E+02  1.54285E+04 -1.01056E+04  8.44649E+03 -1.49136E+04 -3.45385E+03
 -1.12975E+04 -1.37835E+04 -1.48311E+03 -1.83599E+04  8.52625E+03 -1.50156E+04  1.57924E+04 -7.14026E+03
  1.40640E+04  7.31856E+02  1.01718E+04  3.73564E+03  4.74467E+03  3.89760E+02  7.29237E+03 -1.33974E+03
  1.32831E+04  2.68773E+03  1.41846E+04  1.23744E+04  8.56934E+03  2.40170E+04 -3.22766E+03  2.54945E+04
 -1.53211E+04  1.94713E+04 -2.34128E+04  9.21397E+03 -2.38327E+04 -1.51776E+03 -2.03739E+04 -1.33840E+04
 -9.92669E+03 -1.92294E+04  6.48058E+03 -1.84086E+04  1.58803E+04 -1.04193E+04  1.53103E+04  3.63162E+03
  6.41374E+03  1.07561E+04 -6.88873E+03  1.01891E+04 -1.30610E+04  2.75419E+03 -1.01620E+04 -7.48690E+03
  1.47794E+02 -1.21684E+04  5.93809E+03 -9.11238E+03  7.16725E+03 -1.42711E+03  1.29576E+03  4.63480E+03
 -5.68365E+03  1.17013E+03 -3.15758E+03 -4.58952E+03  8.98777E+02 -9.82154E+03  7.65592E+03 -9.51500E+03
  1.16398E+04 -4.36112E+03  1.13325E+04  2.79329E+03  9.54229E+03  9.05342E+03  4.78709E+03  1.33727E+04
 -1.33878E+03  1.51078E+04 -9.08679E+03  9.56732E+03 -1.07452E+04  2.83659E+03 -8.14375E+03 -1.50176E+03
 -4.54181E+03 -3.10981E+03 -8.30888E+02  1.56249E+03 -1.99875E+03  1.90582E+03 -3.26732E+03  3.04351E+03
 -7.52137E+03 -6.01422E+02 -8.49027E+03 -6.84081E+03 -3.36557E+03 -1.09184E+04  3.61066E+03 -8.18038E+03
  6.93980E+03 -3.48200E+03  5.18836E+03  2.22237E+03  5.12000E+02  2.84431E+03 -3.23062E+03 -1.75248E+02
 -3.33467E+03 -5.06836E+03 -7.84634E+02 -6.96919E+03  3.66814E+03 -7.80391E+03  9.59171E+03 -3.88250E+03
  1.12000E+04  6.23183E+02  8.17739E+03  5.66741E+03  1.85693E+03  8.07300E+03 -5.21055E+03  7.87595E+03
 -6.49163E+03  2.80909E+03 -3.34211E+03 -1.03201E+03  1.14477E+03 -1.62270E+03  4.54348E+03 -1.14546E+03
  4.00194E+03  3.34353E+03  9.65669E+02  6.07495E+03 -4.14599E+03  6.27411E+03 -7.81152E+03  1.64999E+03
 -4.81445E+03 -3.28684E+03  1.14709E+02 -6.48166E+03  3.25317E+03 -3.54352E+03  3.33380E+03  9.84695E+02
  3.90023E+02  3.06462E+03 -3.78386E+03  4.38844E+03 -4.63179E+03  2.39273E+03 -4.13814E+03 -8.75311E+02
 -2.60895E+03 -5.48606E+03  1.13741E+03 -6.51667E+03  5.45583E+03 -4.29431E+03  5.98588E+03  7.20774E+02
  4.26850E+03  4.84064E+03  2.21059E+02  7.28232E+03 -5.00909E+03  4.23420E+03 -4.78217E+03 -4.67982E+02
 -5.33358E+03 -5.03130E+03 -1.36512E+03 -4.80560E+03  2.30613E+03 -4.54010E+03  2.72465E+03 -2.91891E+03
  2.85181E+03  1.18764E+02 -6.43016E+01  1.32600E+03  3.13875E+02 -1.47432E+02  3.40810E+02 -1.69190E+03
  3.52713E+03 -4.53136E+02  4.78521E+03  5.94079E+02  4.93018E+03  2.73131E+03  5.30472E+03  6.67873E+03
 -1.28653E+03  7.77714E+03 -7.02817E+03  5.84190E+03 -9.17354E+03  9.32494E+02 -7.14796E+03 -2.27154E+03
 -3.95481E+03 -5.88348E+03 -1.78928E+02 -4.82274E+03  2.03697E+03 -1.86101E+03  1.58973E+03 -2.16561E+03
  1.15138E+03 -1.49286E+03  2.13796E+03 -2.10249E+03  3.55744E+03 -1.09310E+03  3.47132E+03  5.26337E+02
  4.14077E+03  1.14589E+03  1.15772E+03  3.31002E+03 -1.85110E+03  2.29100E+03 -4.15206E+03  2.51471E+03
 -4.55903E+03 -8.62687E+02 -1.57900E+03 -3.14238E+03  5.01382E+02 -4.46213E+03  3.05941E+03 -4.88736E+03
  4.45759E+03 -2.98379E+03  6.23646E+03 -7.22657E+01  4.72556E+03  4.06266E+03  1.19738E+03  5.36203E+03
 -1.93239E+03  5.67276E+03 -2.98402E+03  1.82691E+03 -1.89965E+03 -7.17971E+02 -2.19918E+02 -6.89080E+02
 -3.64970E+02  5.94128E+02 -9.78246E+02  2.12350E+03 -2.40684E+03  9.69589E+02 -3.78906E+03 -5.06367E+02
 -1.23147E+03 -3.82765E+03  9.02150E+02 -4.17378E+03  2.42972E+03 -4.02256E+03  3.32685E+03 -6.79844E+02
  3.83213E+03  2.35161E+03  1.46288E+03  2.95690E+03 -7.27705E+02  4.20336E+03 -2.41642E+03  2.51386E+03
 -3.53001E+03  5.25047E+02 -3.18202E+03 -2.35028E+03 -7.93641E+01 -3.02343E+03  1.53679E+03 -2.19907E+03
  2.44863E+03 -1.37665E+03  1.46926E+03  2.49157E+02  3.75879E+02  1.52109E+03  1.03429E+03  7.27551E+02
  1.66208E+03  5.97290E+02  1.02193E+03  9.91065E+02  9.13533E+02  2.17856E+03  1.19847E+03  1.38308E+03
 -1.30928E+03  2.87663E+03 -2.50090E+03  3.80367E+03 -2.38756E+03  1.17782E+03 -3.67715E+03 -4.30716E+02
 -1.32407E+03 -3.37946E+03  6.70985E+02 -4.44461E+03  1.68598E+03 -2.35365E+03  2.72120E+03 -8.93798E+02
  2.28255E+03  1.84245E+03  4.09120E+02  2.11060E+03 -5.16889E+02  1.12014E+03 -7.81512E+02 -2.78487E+01
 -6.00414E+02 -1.46416E+03  1.22729E+03 -1.38842E+03  1.14507E+03 -9.23634E+02  6.72662E+02  4.48594E+02
  8.82705E+02  9.25747E+01  7.61469E+02 -2.45511E+02 -2.83660E+02  6.68105E+02  1.54032E+03 -1.07821E+02
 -7.21948E+01  6.76880E+01  1.50809E+03  6.14275E+02  2.37733E+02  2.20556E+03 -3.28481E+02  2.78037E+03
 -1.55402E+03  7.24296E+02 -1.57519E+03  2.23515E+02 -2.08931E+03 -7.32723E+02 -1.86227E+02 -8.08662E+02
  3.02561E+02 -1.25431E+03  7.89596E+02 -5.43487E+02  5.59424E+02  8.51353E+02 -7.00678E+02  1.18147E+03
 -1.18045E+03  5.18725E+02 -1.16230E+03 -1.16911E+03 -6.15849E+02 -1.79448E+03  2.28458E+01 -1.15728E+03
  3.40577E+01 -1.29277E+02  4.45281E+02  2.86248E+02  1.14299E+03 -1.93156E+02  4.61792E+01  1.17566E+03
  1.58267E+01 -2.59872E+00 -6.63091E+02 -1.47514E+02  4.76893E+02 -7.18169E+02  1.64102E+03 -1.03955E+03
  8.69404E+02 -5.11763E+01  2.77578E+03  7.73105E+02  1.12762E+03  1.35381E+03 -3.56933E+02  1.41802E+03
 -1.40388E+03  3.51961E+02 -1.12878E+03 -1.09222E+02 -5.99192E+02 -1.07233E+03  5.11799E+02 -5.89647E+02
  1.61459E+03 -8.37699E+02  7.90828E+02  6.59194E+02  3.16411E+02  1.21322E+03  4.74822E+01  1.05083E+03
 -2.61757E+02  7.05621E+02 -7.03516E+02  2.28638E+02  3.02780E+02  2.18111E+02 -7.20941E+02  3.32558E+02
 -6.14571E+02  9.11053E+02 -1.77179E+03  3.78176E+02 -1.43728E+03  5.63334E+00 -2.16044E+03 -7.28903E+02
 -7.68252E+02 -2.25755E+03  6.93187E+02 -2.59394E+03  9.38701E+02 -2.31372E+03  2.54426E+03 -1.18301E+03
  2.26050E+03 -1.72989E+02  1.14861E+03  1.40576E+03 -7.71446E+02  1.37398E+03 -5.01876E+02  1.07260E+03
 -8.40172E+02  7.13012E+02 -5.09220E+02 -2.88159E+02 -7.11514E+02  7.90308E+01 -7.29819E+02  1.42419E+02
 -1.13020E+03 -1.90975E+02 -8.92725E+02 -8.43374E+01  2.38995E+02 -5.57519E+02 -4.52920E+02 -9.53642E+02
  1.27927E+03 -3.71720E+02  3.10028E+02  2.20875E+02  1.14857E+03  9.23199E+02 -2.38047E+02  1.30056E+03
 -9.13318E+02  2.06948E+03 -1.41780E+03  1.28818E+03 -1.46839E+03 -2.23713E+02 -9.77229E+02 -1.25849E+03
 -7.62892E+02 -1.08348E+03  2.55848E+02 -1.23261E+03  5.86085E+02 -4.29269E+02  5.95328E+02  3.28289E+02
  8.49848E+02  1.05352E+02  9.86631E+01  3.22134E+02 -2.50275E+02 -1.56126E+02  8.28477E+01  7.49794E+01
  5.04114E+02  2.42187E+02  3.09264E+02  7.22932E+02  2.21206E+01  2.61621E+02  5.10102E+02  2.36040E+01
 -3.74497E+02  3.68336E+02 -5.79279E+02  1.39360E+01 -7.32597E+02 -1.12306E+02  1.11451E+02 -1.09716E+03
  2.56402E+02 -5.78763E+02  4.35115E+02  1.58356E+02  1.00702E+03 -5.02411E+02  2.70121E+02  8.22679E+02
  4.55971E+02  4.29886E+02 -6.22426E+01  5.93214E+02 -3.35869E+02  3.81480E+02 -4.06428E+02  4.35202E+01
  2.92991E+01 -1.34898E+02 -2.36833E+02  1.18509E+02 -3.28009E+02  1.39491E+02 -8.16595E+02 -2.04456E+02
 -1.10479E+03  4.86439E+02 -3.19497E+02 -7.91211E+02  7.05606E+02 -1.26822E+03  7.49005E+02 -1.85330E+02
  7.95448E+02 -1.16461E+02 -2.75221E+02  3.66705E+02 -1.82466E+02  7.64467E+02 -1.41217E+01  4.54080E+02
