 $NMID ID='MM_0lb_SNR800_18hz_g60_18.RAW', FMTDAT='(8E13.5)'
 TRAMP=1., VOLUME=1. $END
  3.09775E+05  3.87700E+02  3.37713E+05  2.50798E+05  8.46294E+04  3.37986E+05 -1.32490E+05  2.50787E+05
 -1.90297E+05  8.30268E+04 -1.11659E+05 -3.26498E+04  9.45944E+02 -5.06340E+04  5.39337E+04 -2.11551E+02
  3.52352E+04  5.29411E+04 -1.67564E+04  7.54605E+04 -6.08183E+04  6.33811E+04 -8.38313E+04  3.18984E+04
 -8.06394E+04 -1.14385E+04 -5.70361E+04 -5.11858E+04 -1.50605E+04 -6.93622E+04  2.73646E+04 -4.56190E+04
  3.99361E+04  3.75216E+03  1.59051E+04  4.77209E+04 -3.40579E+04  4.67767E+04 -6.61758E+04 -3.14148E+01
 -5.31300E+04 -5.66538E+04 -6.54959E+03 -7.63472E+04  3.35575E+04 -5.44774E+04  4.75823E+04 -1.70375E+04
  4.29042E+04  1.14912E+04  3.13757E+04  2.50597E+04  1.58973E+04  2.90843E+04 -5.08074E+03  2.73211E+04
 -2.19609E+04  1.21828E+04 -1.87517E+04 -5.03552E+03  5.34391E+03 -7.70354E+03  2.20056E+04  1.21173E+04
  7.35613E+03  3.47530E+04 -3.15065E+04  3.51438E+04 -6.27311E+04  2.21263E+03 -5.66666E+04 -4.25502E+04
 -1.24346E+04 -6.24179E+04  3.91202E+04 -4.49917E+04  5.73167E+04 -2.46460E+03  3.33559E+04  3.17038E+04
 -6.24511E+03  3.51816E+04 -2.91322E+04  1.51601E+04 -2.92225E+04 -5.00428E+03 -1.59035E+04 -1.04916E+04
 -8.11248E+03 -1.24584E+04 -8.06104E+02 -1.74912E+04  6.99247E+03 -2.26816E+04  1.54458E+04 -1.35468E+04
  1.17766E+04  4.73927E+03 -7.27181E+03  1.28062E+04 -2.07446E+04 -4.07567E+03 -8.33062E+03 -3.24363E+04
  2.22386E+04 -4.25421E+04  4.67620E+04 -1.93943E+04  4.39108E+04  1.88355E+04  1.50210E+04  4.32990E+04
 -1.56285E+04  3.23244E+04 -2.43338E+04  1.40675E+03 -9.30054E+03 -2.74049E+04  2.10596E+04 -3.26357E+04
  3.98811E+04 -8.27432E+03  3.38668E+04  2.33309E+04  1.71356E+04  4.50605E+04 -7.89180E+03  4.81850E+04
 -3.02568E+04  3.24341E+04 -4.02271E+04  8.90546E+03 -4.10117E+04 -1.58933E+04 -2.27691E+04 -3.65846E+04
  6.93904E+03 -3.60975E+04  3.05073E+04 -1.41502E+04  2.80291E+04  1.07083E+04  3.79038E+03  1.84019E+04
 -1.33989E+04  7.97849E+03 -9.84795E+03 -7.35946E+03  5.60710E+03 -1.00698E+04  1.72976E+04  5.96100E+03
  1.30271E+04  2.18122E+04 -6.26086E+03  2.40015E+04 -2.18111E+04  1.04327E+04 -2.65644E+04 -5.32612E+03
 -1.89480E+04 -1.71600E+04 -7.20065E+03 -1.88900E+04  3.83183E+03 -1.72481E+04  1.40682E+04 -1.67191E+04
  2.39353E+04 -1.22216E+04  3.05639E+04  1.96939E+03  2.27379E+04  1.82306E+04  3.90416E+03  3.47092E+04
 -1.68167E+04  2.94581E+04 -2.66309E+04  9.92320E+03 -2.03793E+04 -1.04531E+04 -4.19865E+03 -1.37594E+04
  2.13036E+03 -3.45809E+03 -3.71743E+03  6.15593E+03 -1.45636E+04  4.95943E+03 -1.50075E+04 -6.37818E+03
 -9.39796E+03 -1.71582E+04  4.53709E+03 -2.10887E+04  1.38443E+04 -1.52713E+04  1.65373E+04 -1.76960E+03
  1.01089E+04  1.20879E+04 -7.93869E+02  1.72289E+04 -1.16207E+04  9.70119E+03 -1.70748E+04 -3.42725E+03
 -1.27183E+04 -1.54662E+04 -1.75487E+03 -2.08565E+04  9.19446E+03 -1.70030E+04  1.76274E+04 -8.01227E+03
  1.59648E+04  5.81957E+02  1.13790E+04  4.06089E+03  6.11635E+03  6.77573E+02  8.21919E+03 -1.66265E+03
  1.55774E+04  2.74945E+03  1.68473E+04  1.35997E+04  1.11038E+04  2.73006E+04 -3.06312E+03  2.98376E+04
 -1.75465E+04  2.34415E+04 -2.78480E+04  1.13727E+04 -2.87744E+04 -1.90927E+03 -2.42698E+04 -1.66599E+04
 -1.10553E+04 -2.33271E+04  8.25398E+03 -2.16086E+04  1.86560E+04 -1.16059E+04  1.70747E+04  4.20862E+03
  6.67201E+03  1.25347E+04 -7.76370E+03  1.12577E+04 -1.45902E+04  2.37070E+03 -1.11022E+04 -8.90859E+03
 -8.91969E+01 -1.38745E+04  6.67386E+03 -1.06481E+04  8.71778E+03 -1.45169E+03  1.69053E+03  5.63433E+03
 -6.30595E+03  1.68452E+03 -4.71248E+03 -4.70377E+03  1.00831E+02 -1.14572E+04  8.59638E+03 -1.20239E+04
  1.39585E+04 -5.84172E+03  1.43263E+04  2.72848E+03  1.20789E+04  1.08715E+04  5.66611E+03  1.64510E+04
 -2.34372E+03  1.84034E+04 -1.11729E+04  1.14521E+04 -1.29942E+04  3.44098E+03 -9.72591E+03 -2.60527E+03
 -4.89994E+03 -3.97125E+03 -6.89261E+02  1.17751E+03 -1.93057E+03  2.34683E+03 -4.20930E+03  3.72438E+03
 -9.08768E+03 -7.07977E+02 -9.67232E+03 -7.96849E+03 -4.02107E+03 -1.26583E+04  3.91962E+03 -9.72274E+03
  7.86144E+03 -4.11768E+03  5.90477E+03  2.51011E+03  6.38771E+02  3.43576E+03 -3.89740E+03 -4.66820E+01
 -3.98805E+03 -5.85639E+03 -1.04498E+03 -8.24870E+03  4.46769E+03 -8.93316E+03  1.14512E+04 -4.60928E+03
  1.31949E+04  1.23123E+03  1.00612E+04  7.05809E+03  1.92839E+03  1.01491E+04 -5.83495E+03  9.22818E+03
 -7.63395E+03  3.14693E+03 -3.67031E+03 -1.61621E+03  1.50658E+03 -2.06403E+03  5.08628E+03 -7.73686E+02
  4.60206E+03  4.21071E+03  7.21910E+02  7.39292E+03 -4.75934E+03  7.01541E+03 -8.62557E+03  1.97935E+03
 -5.58929E+03 -4.49183E+03  6.28559E+02 -7.49667E+03  4.60419E+03 -3.69026E+03  4.31163E+03  1.23963E+03
  6.91365E+02  4.24382E+03 -4.46755E+03  5.53949E+03 -5.67158E+03  2.76361E+03 -5.40960E+03 -1.18039E+03
 -3.45240E+03 -7.29711E+03  1.41043E+03 -8.24246E+03  7.03562E+03 -5.48785E+03  7.63495E+03  9.52686E+02
  4.90144E+03  5.96730E+03 -2.25811E+02  8.12877E+03 -5.64102E+03  4.52334E+03 -5.64502E+03 -5.09440E+02
 -6.49216E+03 -5.77896E+03 -1.40352E+03 -5.68219E+03  2.95537E+03 -5.26432E+03  3.67267E+03 -3.06550E+03
  3.38742E+03  3.67966E+01 -1.00114E+02  1.14574E+03  6.62464E+02 -5.52284E+02  3.18682E+02 -2.26979E+03
  4.30481E+03 -8.98269E+02  5.85414E+03  8.86525E+02  6.59957E+03  3.82814E+03  5.92355E+03  8.39280E+03
 -1.61194E+03  1.00371E+04 -8.85183E+03  7.56113E+03 -1.13881E+04  1.51745E+03 -8.77046E+03 -3.14957E+03
 -4.72703E+03 -7.34797E+03 -2.42447E+02 -5.97531E+03  2.42696E+03 -2.73784E+03  2.12347E+03 -2.39188E+03
  1.44909E+03 -1.50944E+03  2.14078E+03 -2.53753E+03  3.80983E+03 -1.67682E+03  3.92125E+03  1.41244E+02
  4.97386E+03  1.35715E+03  1.40173E+03  3.88682E+03 -1.81328E+03  3.50311E+03 -4.83790E+03  3.07137E+03
 -5.83687E+03 -1.24411E+03 -2.42848E+03 -3.64942E+03  1.72239E+02 -5.44583E+03  3.26204E+03 -6.10652E+03
  6.08229E+03 -3.71180E+03  7.63942E+03  3.58191E+02  5.48324E+03  4.96481E+03  1.09000E+03  6.65349E+03
 -2.35662E+03  6.56604E+03 -3.85051E+03  2.00818E+03 -2.10277E+03 -9.59230E+02 -6.12811E+02 -5.18852E+02
 -4.84044E+02  8.29811E+01 -9.04389E+02  1.91753E+03 -2.83130E+03  1.03129E+03 -4.55363E+03 -4.67825E+02
 -1.84550E+03 -4.47426E+03  7.51224E+02 -5.21040E+03  3.23237E+03 -4.92776E+03  4.17141E+03 -1.39616E+03
  4.64688E+03  2.55469E+03  2.25834E+03  3.87722E+03 -8.12527E+02  5.23765E+03 -3.20616E+03  3.02648E+03
 -4.26007E+03  5.83235E+02 -3.46252E+03 -2.64477E+03 -3.97000E+02 -3.73273E+03  1.64996E+03 -2.74580E+03
  3.12539E+03 -1.55405E+03  1.98801E+03  6.08812E+02  4.94090E+02  1.80847E+03  1.14473E+03  1.15727E+03
  1.99191E+03  7.26554E+02  1.35936E+03  1.00267E+03  1.58965E+03  2.25988E+03  1.62395E+03  1.78057E+03
 -1.25643E+03  3.27729E+03 -2.91825E+03  4.37579E+03 -3.70610E+03  1.56271E+03 -4.68346E+03 -5.22384E+02
 -1.80571E+03 -3.93143E+03  8.00009E+02 -5.24127E+03  2.29188E+03 -3.04273E+03  3.62030E+03 -1.15312E+03
  2.91535E+03  1.76402E+03  3.70780E+02  2.46122E+03 -7.68393E+02  1.37594E+03 -1.16302E+03 -1.08597E+02
 -7.28358E+02 -1.67165E+03  1.49971E+03 -1.80956E+03  1.31436E+03 -8.24167E+02  1.50069E+03  3.56408E+02
  1.06118E+03  5.13062E+02  1.05605E+03 -7.50922E+01 -2.94061E+02  5.91125E+02  1.56975E+03 -2.88018E+02
 -1.93070E+02 -2.94272E+02  2.08419E+03  8.09243E+02  4.93802E+02  2.58260E+03 -2.43920E+02  3.20877E+03
 -1.95212E+03  1.64288E+03 -2.56124E+03  3.30195E+02 -2.23891E+03 -6.59006E+02 -3.72643E+02 -1.03266E+03
  5.04486E+02 -1.34111E+03  9.30659E+02 -7.07007E+02  9.54726E+02  1.10949E+03 -1.18313E+03  1.22809E+03
 -1.34989E+03  7.77405E+02 -1.35199E+03 -1.30210E+03 -7.67082E+02 -2.28800E+03  4.24894E+01 -1.59122E+03
  6.96824E+02 -7.99912E+02  1.11946E+03  2.73267E+01  1.36112E+03 -2.44854E+02  2.11302E+02  1.15139E+03
 -5.02370E+02  2.62698E+02 -1.00295E+03 -1.80069E+02  5.58774E+02 -1.06503E+03  1.75982E+03 -9.82816E+02
  1.17953E+03  1.21947E+02  3.15413E+03  7.62711E+02  1.11827E+03  1.59750E+03 -4.74737E+02  1.77464E+03
 -1.64550E+03  4.29871E+02 -1.69786E+03 -2.65932E+02 -6.65446E+02 -1.58565E+03  3.14810E+02 -7.18566E+02
  1.60883E+03 -3.85156E+02  1.14560E+03  8.21576E+02  1.49282E+02  1.29345E+03  3.16679E+02  1.39590E+03
 -5.65145E+02  1.03427E+03 -4.77071E+02 -8.16217E+01  1.15533E+02  3.84397E+02 -7.34019E+02  5.64728E+02
 -4.40644E+02  1.13464E+03 -1.92736E+03  5.67958E+02 -1.88045E+03  3.49931E+02 -2.71044E+03 -9.58088E+02
 -9.41953E+02 -2.43107E+03  4.67967E+02 -2.99930E+03  1.06769E+03 -2.39641E+03  2.87055E+03 -1.16566E+03
  2.53007E+03  4.48171E+01  1.16834E+03  2.03162E+03 -7.90650E+02  1.23110E+03 -7.27413E+02  1.51666E+03
 -1.26398E+03  7.62354E+02 -8.07966E+02 -1.75237E+02 -5.59474E+02  3.15593E+02 -5.08120E+02 -1.62662E+02
 -1.12248E+03 -4.46166E+02 -9.04724E+02  7.00720E+01  7.82371E+01 -6.19765E+02 -3.14929E+02 -9.32632E+02
  1.58939E+03 -3.98978E+02  6.81223E+02 -1.64283E+02  1.10895E+03  9.85842E+02 -4.26065E+02  1.38838E+03
 -1.03438E+03  2.28307E+03 -1.67209E+03  1.17417E+03 -1.68395E+03 -3.24781E+02 -1.14732E+03 -1.47094E+03
 -7.89355E+02 -1.55152E+03  5.10276E+02 -1.01058E+03  4.51424E+02 -6.22941E+02  7.29599E+02 -2.90840E+02
  5.58492E+02  2.33898E+02  6.77252E+01  1.19437E+02 -3.16571E+02  1.89522E+01 -1.04800E+02 -4.46954E+01
  5.06671E+02  2.77179E+02  1.90184E+02  6.26915E+02 -1.36556E-01  3.60791E+02  2.81231E+02  3.53769E+01
 -5.64502E+02  7.94211E+02 -7.44868E+02  1.47040E+02 -7.55123E+02 -3.96031E+02  2.42300E-01 -1.24671E+03
  5.87099E+02 -6.57841E+02  5.00111E+02  1.69997E+02  1.06509E+03 -4.49273E+02  6.07829E+02  9.75016E+02
  4.70274E+02  6.64096E+02 -6.98408E+01  6.07879E+02 -6.89660E+02  5.17361E+02 -2.33324E+02  2.29979E+02
 -7.20087E+01 -2.42180E+02 -3.00003E+02  6.92509E+01 -3.40339E+02 -2.69566E+02 -7.58491E+02 -3.36631E+02
 -9.33802E+02  3.05362E+02 -2.95376E+02 -9.21334E+02  4.11916E+02 -1.52714E+03  9.20538E+02 -1.25009E+02
  6.61867E+02  8.93482E+01 -4.66758E+02  3.01785E+02 -2.65535E+02  6.78259E+02 -2.72369E+02  6.05223E+02
