 $NMID ID='MM_0lb_SNR800_14hz_g40_57.RAW', FMTDAT='(8E13.5)'
 TRAMP=1., VOLUME=1. $END
  3.09699E+05  4.02868E+02  3.37560E+05  2.50806E+05  8.46025E+04  3.37851E+05 -1.32601E+05  2.50711E+05
 -1.90386E+05  8.29669E+04 -1.11632E+05 -3.26135E+04  9.98704E+02 -5.04375E+04  5.37542E+04  1.49132E+01
  3.52484E+04  5.27272E+04 -1.68273E+04  7.52620E+04 -6.05769E+04  6.34252E+04 -8.36518E+04  3.17125E+04
 -8.07204E+04 -1.10184E+04 -5.69442E+04 -5.08963E+04 -1.49584E+04 -6.92588E+04  2.73219E+04 -4.54254E+04
  3.97210E+04  3.72811E+03  1.59856E+04  4.74187E+04 -3.41725E+04  4.66198E+04 -6.67592E+04 -1.97904E+01
 -5.31085E+04 -5.64464E+04 -6.81590E+03 -7.64859E+04  3.35073E+04 -5.43862E+04  4.72560E+04 -1.70674E+04
  4.32024E+04  1.10476E+04  3.12457E+04  2.51924E+04  1.59681E+04  2.90712E+04 -4.93692E+03  2.69457E+04
 -2.21101E+04  1.22316E+04 -1.87014E+04 -4.96433E+03  5.52689E+03 -7.52211E+03  2.20981E+04  1.18760E+04
  7.36049E+03  3.47159E+04 -3.17711E+04  3.49718E+04 -6.28813E+04  2.30286E+03 -5.65877E+04 -4.24170E+04
 -1.23282E+04 -6.23836E+04  3.91580E+04 -4.48769E+04  5.73354E+04 -2.23032E+03  3.34990E+04  3.18367E+04
 -6.13589E+03  3.53196E+04 -2.94028E+04  1.51242E+04 -2.97235E+04 -4.51543E+03 -1.61702E+04 -1.05935E+04
 -7.78483E+03 -1.24895E+04 -8.54048E+02 -1.77403E+04  7.19373E+03 -2.30002E+04  1.52595E+04 -1.34416E+04
  1.19450E+04  4.77653E+03 -7.57173E+03  1.26373E+04 -2.07392E+04 -3.77752E+03 -8.10990E+03 -3.31199E+04
  2.21109E+04 -4.27068E+04  4.69123E+04 -1.95835E+04  4.42624E+04  1.93260E+04  1.50489E+04  4.33531E+04
 -1.57098E+04  3.30972E+04 -2.50322E+04  1.68649E+03 -9.26704E+03 -2.77206E+04  2.11821E+04 -3.32562E+04
  4.01205E+04 -8.84041E+03  3.47441E+04  2.36120E+04  1.71875E+04  4.54309E+04 -8.04916E+03  4.88514E+04
 -3.07691E+04  3.26513E+04 -4.09709E+04  9.39297E+03 -4.11744E+04 -1.61235E+04 -2.28589E+04 -3.69841E+04
  7.30308E+03 -3.67792E+04  3.10861E+04 -1.39583E+04  2.87232E+04  1.08837E+04  3.69131E+03  1.87517E+04
 -1.34966E+04  7.91953E+03 -1.04836E+04 -7.82352E+03  6.12914E+03 -1.07290E+04  1.76369E+04  6.41808E+03
  1.30009E+04  2.19062E+04 -6.27942E+03  2.46798E+04 -2.18441E+04  1.11112E+04 -2.71767E+04 -5.13434E+03
 -1.94945E+04 -1.71572E+04 -7.74748E+03 -2.01126E+04  3.89865E+03 -1.85296E+04  1.51091E+04 -1.77223E+04
  2.50599E+04 -1.26343E+04  3.15440E+04  2.31058E+03  2.29185E+04  1.89538E+04  4.51898E+03  3.55275E+04
 -1.75342E+04  2.97136E+04 -2.75147E+04  1.01195E+04 -2.06032E+04 -9.97772E+03 -4.45564E+03 -1.35509E+04
  2.01679E+03 -2.89903E+03 -4.41991E+03  6.24165E+03 -1.58762E+04  5.03262E+03 -1.55154E+04 -6.59227E+03
 -9.77023E+03 -1.81249E+04  4.86818E+03 -2.20628E+04  1.48980E+04 -1.62163E+04  1.74484E+04 -1.77378E+03
  1.10321E+04  1.27304E+04 -8.49300E+02  1.82232E+04 -1.25737E+04  1.02949E+04 -1.82358E+04 -3.86709E+03
 -1.36233E+04 -1.65026E+04 -1.98621E+03 -2.20817E+04  1.01084E+04 -1.79524E+04  1.84148E+04 -8.74209E+03
  1.71123E+04  2.12388E+02  1.23073E+04  4.28215E+03  6.33017E+03  6.76306E+02  9.21293E+03 -1.74948E+03
  1.65745E+04  2.81296E+03  1.85301E+04  1.47300E+04  1.17116E+04  2.91463E+04 -3.00491E+03  3.26741E+04
 -1.93454E+04  2.60122E+04 -3.02888E+04  1.30114E+04 -3.16885E+04 -2.16936E+03 -2.63254E+04 -1.81831E+04
 -1.13844E+04 -2.60642E+04  8.87467E+03 -2.35307E+04  2.05431E+04 -1.24099E+04  1.88374E+04  4.84428E+03
  7.14120E+03  1.39326E+04 -8.64131E+03  1.20288E+04 -1.56368E+04  2.32743E+03 -1.21132E+04 -9.71091E+03
  2.27286E+00 -1.48308E+04  7.49766E+03 -1.12157E+04  9.74351E+03 -1.48982E+03  2.12415E+03  6.26100E+03
 -6.82418E+03  2.19668E+03 -5.42787E+03 -5.58496E+03 -1.42306E+02 -1.28241E+04  9.34477E+03 -1.30784E+04
  1.56969E+04 -6.92989E+03  1.67427E+04  3.06327E+03  1.45448E+04  1.24685E+04  6.94328E+03  1.91314E+04
 -2.93361E+03  2.09834E+04 -1.34967E+04  1.31658E+04 -1.51647E+04  3.50746E+03 -1.05429E+04 -3.23770E+03
 -5.05066E+03 -4.71065E+03 -7.81174E+02  8.63277E+02 -2.15350E+03  2.53894E+03 -4.79331E+03  4.14142E+03
 -1.00972E+04 -8.17595E+02 -1.07193E+04 -8.70840E+03 -4.32600E+03 -1.39223E+04  4.55139E+03 -1.07172E+04
  9.10030E+03 -4.53240E+03  6.42271E+03  2.90473E+03  4.14434E+02  3.74121E+03 -4.98722E+03 -2.39775E+02
 -4.99614E+03 -6.86532E+03 -7.75247E+02 -1.01608E+04  5.49237E+03 -1.07122E+04  1.33823E+04 -5.28752E+03
  1.56913E+04  1.25586E+03  1.16973E+04  8.79437E+03  2.12964E+03  1.22078E+04 -6.74878E+03  1.06788E+04
 -8.77097E+03  3.73113E+03 -4.53047E+03 -2.27794E+03  1.71160E+03 -2.52115E+03  5.96635E+03 -9.28987E+02
  5.11599E+03  4.80850E+03  1.31715E+03  8.35933E+03 -6.12153E+03  8.15423E+03 -1.05109E+04  1.83868E+03
 -6.87783E+03 -5.01845E+03  1.12950E+02 -8.69241E+03  5.43034E+03 -4.53517E+03  5.34723E+03  1.72444E+03
  1.13953E+03  5.26858E+03 -5.51773E+03  6.96203E+03 -7.54780E+03  3.22229E+03 -7.67776E+03 -2.32326E+03
 -4.65014E+03 -9.26451E+03  2.35113E+03 -1.05136E+04  9.04262E+03 -6.70735E+03  9.98050E+03  1.58271E+03
  6.23606E+03  8.03513E+03 -1.74827E+02  1.01208E+04 -7.07260E+03  5.82224E+03 -7.89153E+03 -9.63006E+02
 -7.50192E+03 -6.55275E+03 -1.54457E+03 -7.42408E+03  4.00433E+03 -6.04256E+03  4.41400E+03 -3.15868E+03
  3.47771E+03  9.12744E+02 -3.30580E+02  1.48367E+03  1.31232E+02 -1.19158E+03  8.75753E+02 -3.59734E+03
  5.85231E+03 -2.01137E+03  8.53192E+03  9.69606E+02  8.43861E+03  5.72458E+03  7.24297E+03  1.13208E+04
 -2.50574E+03  1.33858E+04 -1.15719E+04  1.01533E+04 -1.48700E+04  1.60260E+03 -1.17296E+04 -4.70651E+03
 -6.30854E+03 -9.69829E+03 -3.23500E+02 -8.12695E+03  3.30090E+03 -4.02968E+03  2.86126E+03 -3.11328E+03
  2.03415E+03 -1.85675E+03  2.50816E+03 -2.80319E+03  4.18324E+03 -2.13901E+03  5.14153E+03 -1.03217E+02
  6.38712E+03  1.59000E+03  2.58227E+03  5.41673E+03 -1.96857E+03  5.31509E+03 -6.51364E+03  4.53798E+03
 -8.47360E+03 -1.08146E+03 -4.10756E+03 -5.40560E+03  4.10623E+01 -8.31328E+03  5.29597E+03 -8.85163E+03
  8.76758E+03 -5.12406E+03  1.04535E+04  1.05639E+03  7.55199E+03  7.48756E+03  1.28206E+03  9.56051E+03
 -4.01628E+03  8.43157E+03 -5.62409E+03  2.93537E+03 -3.76008E+03 -1.43812E+03 -9.13056E+02 -8.11819E+02
 -6.92457E+02  1.36174E+02 -1.14504E+03  2.18998E+03 -3.38948E+03  1.53979E+03 -6.07848E+03 -5.71937E+02
 -3.46843E+03 -5.81406E+03  6.22778E+02 -7.62271E+03  4.80821E+03 -7.32016E+03  7.02049E+03 -1.91384E+03
  7.36767E+03  3.79169E+03  3.51959E+03  6.22681E+03 -1.23569E+03  7.75056E+03 -4.78635E+03  4.54284E+03
 -7.14654E+03  7.52879E+02 -5.68148E+03 -4.60245E+03 -4.70481E+02 -5.65616E+03  2.95299E+03 -4.27921E+03
  4.64199E+03 -1.98992E+03  3.22872E+03  7.56792E+02  1.13405E+03  2.54802E+03  9.64727E+02  9.88057E+02
  1.66888E+03  8.05341E+02  2.03959E+03  1.36749E+03  2.17656E+03  3.09759E+03  2.29087E+03  3.67129E+03
 -1.96316E+03  5.81427E+03 -4.75508E+03  6.56547E+03 -6.85668E+03  2.28273E+03 -7.43506E+03 -2.22390E+03
 -3.51963E+03 -7.05031E+03  1.04413E+03 -8.18872E+03  4.12778E+03 -5.06976E+03  5.79741E+03 -1.16414E+03
  4.57809E+03  2.82964E+03  1.08279E+03  4.32650E+03 -1.95491E+03  2.27694E+03 -2.49269E+03 -2.39834E+02
 -1.36394E+03 -2.85016E+03  1.98942E+03 -3.02058E+03  2.78018E+03 -1.76105E+03  2.77459E+03  8.36067E+02
  1.56020E+03  1.04661E+03  1.12512E+03  6.07401E+02 -4.18859E+02  1.16536E+03  1.51580E+03 -2.47110E+02
  9.19574E+02 -4.46417E+02  3.18166E+03  9.49204E+02  1.25389E+03  4.14534E+03 -4.63838E+02  4.98382E+03
 -3.17799E+03  2.90873E+03 -4.53884E+03  8.28305E+02 -4.05484E+03 -1.56578E+03 -1.09269E+03 -2.59306E+03
  5.39680E+02 -2.34670E+03  1.94745E+03 -1.23246E+03  1.21569E+03  1.76401E+03 -1.13982E+03  2.08430E+03
 -2.97991E+03  1.27187E+03 -2.89100E+03 -1.96714E+03 -1.88537E+03 -3.91745E+03  6.04443E+02 -3.38308E+03
  1.82694E+03 -1.85484E+03  2.02697E+03 -5.69047E+01  2.26938E+03  3.08086E+02  4.37429E+02  2.06398E+03
 -1.17108E+03  2.35163E+02 -1.49325E+03 -1.13132E+03  6.79970E+02 -2.33413E+03  3.28439E+03 -2.20555E+03
  3.59468E+03  5.92205E+02  4.73468E+03  2.35980E+03  1.57522E+03  3.61052E+03 -1.34749E+03  4.09461E+03
 -3.25811E+03  1.36921E+03 -3.43126E+03 -4.33617E+02 -1.70895E+03 -2.53286E+03  6.49757E+02 -1.84800E+03
  2.87539E+03 -1.60487E+03  2.01806E+03  1.09943E+03  8.34924E+02  2.50154E+03 -2.38822E+02  2.16352E+03
 -8.34148E+02  1.84183E+03 -9.68130E+02  5.64324E+01 -8.03536E+01  4.92754E+02 -9.99404E+02  9.38046E+02
 -1.27941E+03  1.79967E+03 -3.11040E+03  1.32399E+03 -3.91555E+03  9.84275E+01 -5.19316E+03 -2.64211E+03
 -2.27452E+03 -4.96047E+03  1.11999E+03 -6.15328E+03  3.28838E+03 -4.89905E+03  5.79437E+03 -1.80299E+03
  5.22620E+03  7.67917E+02  3.26844E+03  3.77859E+03  5.25167E+00  4.08615E+03 -1.81885E+03  3.01029E+03
 -2.42263E+03  1.23264E+03 -1.40403E+03 -6.10587E+02 -5.59676E+02 -1.94851E+02 -5.74364E+02 -2.22591E+02
 -1.34096E+03 -3.27551E+01 -1.33902E+03 -6.50163E+01 -2.64531E+02 -9.06959E+02 -5.74338E+02 -1.47981E+03
  2.33515E+03 -1.40565E+03  1.87015E+03  3.76061E+02  2.81538E+03  2.44350E+03  1.52148E+02  3.98482E+03
 -1.59398E+03  4.74683E+03 -4.01948E+03  2.85052E+03 -4.79455E+03 -3.11063E+02 -3.52514E+03 -3.04765E+03
 -1.69688E+03 -3.87028E+03  1.13107E+03 -3.40731E+03  2.33864E+03 -1.68933E+03  2.49775E+03  1.21693E+02
  1.36613E+03  8.09125E+02 -1.16998E+02  1.23382E+03 -5.74170E+02 -9.18849E+01  6.07230E+01 -9.12220E+02
  1.14433E+03 -1.17379E+02  1.11390E+03  6.75649E+02  7.41521E+02  1.45805E+03  4.36170E+02  1.54343E+03
 -1.62602E+03  1.53903E+03 -1.98008E+03  2.42004E+02 -2.30493E+03 -1.64524E+03 -1.27777E+02 -2.82066E+03
  1.66037E+03 -2.47398E+03  2.43696E+03 -2.68566E+02  2.55821E+03  2.88092E+02  1.43084E+03  2.36345E+03
  6.74244E+02  2.55212E+03 -4.68444E+02  1.74509E+03 -1.44354E+03  1.08010E+03 -1.42587E+03  3.06009E+02
 -8.12536E+02 -5.55470E+01 -1.37358E+03  3.22231E+02 -1.19651E+03  3.80035E+02 -2.18404E+03 -5.64807E+02
 -1.67627E+03 -8.33441E+02 -5.85496E+02 -2.34901E+03  1.11955E+03 -2.92996E+03  2.21144E+03 -1.10675E+03
  2.54351E+03  2.30634E+02  8.34609E+02  1.13916E+03  1.08297E+02  2.68476E+03 -1.66252E+03  1.35974E+03
