 $NMID ID='MM_0lb_SNR800_14hz_g45_35.RAW', FMTDAT='(8E13.5)'
 TRAMP=1., VOLUME=1. $END
  3.09943E+05  2.45139E+02  3.37469E+05  2.50900E+05  8.44118E+04  3.37494E+05 -1.32616E+05  2.50936E+05
 -1.89730E+05  8.31791E+04 -1.11549E+05 -3.27891E+04  1.08248E+03 -5.07471E+04  5.36155E+04  1.50940E+02
  3.53933E+04  5.29651E+04 -1.66826E+04  7.52345E+04 -6.07627E+04  6.34909E+04 -8.36596E+04  3.21412E+04
 -8.08456E+04 -1.15220E+04 -5.70733E+04 -5.12537E+04 -1.50221E+04 -6.95175E+04  2.74955E+04 -4.54592E+04
  3.99876E+04  3.63883E+03  1.61628E+04  4.77271E+04 -3.43202E+04  4.68181E+04 -6.67365E+04 -3.77570E+02
 -5.31741E+04 -5.68057E+04 -6.70862E+03 -7.67730E+04  3.39429E+04 -5.47348E+04  4.77556E+04 -1.70965E+04
  4.29776E+04  1.12428E+04  3.16050E+04  2.53232E+04  1.57134E+04  2.92950E+04 -5.12266E+03  2.71944E+04
 -2.23109E+04  1.23176E+04 -1.83840E+04 -4.88476E+03  5.21382E+03 -7.44847E+03  2.23602E+04  1.22407E+04
  7.32703E+03  3.51147E+04 -3.17865E+04  3.55852E+04 -6.29975E+04  2.18566E+03 -5.65644E+04 -4.23468E+04
 -1.23481E+04 -6.29866E+04  3.94705E+04 -4.49931E+04  5.75835E+04 -2.21851E+03  3.37940E+04  3.20213E+04
 -6.08799E+03  3.58718E+04 -2.97482E+04  1.54712E+04 -3.00479E+04 -4.59293E+03 -1.62321E+04 -1.12203E+04
 -8.26147E+03 -1.31207E+04 -8.22414E+02 -1.79628E+04  7.57975E+03 -2.31238E+04  1.57765E+04 -1.35059E+04
  1.17600E+04  5.17069E+03 -8.32933E+03  1.26862E+04 -2.10046E+04 -3.98061E+03 -8.52815E+03 -3.34079E+04
  2.21030E+04 -4.28568E+04  4.75501E+04 -1.96642E+04  4.46833E+04  1.95235E+04  1.56890E+04  4.38576E+04
 -1.60358E+04  3.30224E+04 -2.49371E+04  1.79564E+03 -9.84869E+03 -2.76578E+04  2.10625E+04 -3.34554E+04
  4.07845E+04 -8.85943E+03  3.54020E+04  2.38073E+04  1.76338E+04  4.58546E+04 -8.09746E+03  4.98876E+04
 -3.11473E+04  3.31114E+04 -4.15627E+04  9.47559E+03 -4.18273E+04 -1.65001E+04 -2.33526E+04 -3.76871E+04
  7.57613E+03 -3.74449E+04  3.16762E+04 -1.44706E+04  2.92172E+04  1.08634E+04  3.90074E+03  1.92869E+04
 -1.34956E+04  8.15866E+03 -1.00860E+04 -7.78673E+03  5.75486E+03 -1.06620E+04  1.78442E+04  6.02834E+03
  1.33301E+04  2.17440E+04 -6.03977E+03  2.44395E+04 -2.23898E+04  1.13239E+04 -2.76064E+04 -5.05140E+03
 -2.05381E+04 -1.70787E+04 -8.07338E+03 -2.03095E+04  4.17635E+03 -1.90632E+04  1.53872E+04 -1.78540E+04
  2.57353E+04 -1.26531E+04  3.21915E+04  2.66021E+03  2.35044E+04  1.97052E+04  4.27326E+03  3.61766E+04
 -1.73359E+04  3.00701E+04 -2.80137E+04  1.02596E+04 -2.09406E+04 -1.05606E+04 -4.44000E+03 -1.35466E+04
  1.83820E+03 -2.99744E+03 -4.72101E+03  6.55473E+03 -1.58342E+04  5.38058E+03 -1.61176E+04 -6.87204E+03
 -9.88839E+03 -1.85274E+04  5.37132E+03 -2.28926E+04  1.48903E+04 -1.62893E+04  1.74575E+04 -1.34723E+03
  1.13286E+04  1.29410E+04 -1.16684E+03  1.86027E+04 -1.29915E+04  1.08019E+04 -1.88912E+04 -3.91843E+03
 -1.37535E+04 -1.67001E+04 -1.64367E+03 -2.25855E+04  1.05855E+04 -1.83476E+04  1.89128E+04 -9.05112E+03
  1.75777E+04  1.87350E+02  1.29470E+04  4.09068E+03  6.56052E+03  9.04725E+02  9.22071E+03 -1.61984E+03
  1.67689E+04  2.58590E+03  1.88260E+04  1.49256E+04  1.25384E+04  3.01627E+04 -3.17358E+03  3.35117E+04
 -1.92344E+04  2.68101E+04 -3.11610E+04  1.33758E+04 -3.26687E+04 -2.61610E+03 -2.69527E+04 -1.90213E+04
 -1.18935E+04 -2.68124E+04  9.19406E+03 -2.43970E+04  2.11083E+04 -1.23419E+04  1.89199E+04  5.00824E+03
  7.17883E+03  1.37586E+04 -8.69312E+03  1.26147E+04 -1.60595E+04  2.66037E+03 -1.22939E+04 -9.80012E+03
 -2.00601E+02 -1.51268E+04  7.81007E+03 -1.14267E+04  9.82778E+03 -1.51197E+03  2.41904E+03  6.16779E+03
 -6.69489E+03  2.57342E+03 -5.49391E+03 -5.25344E+03 -2.50305E+02 -1.30084E+04  9.62627E+03 -1.37178E+04
  1.63115E+04 -7.01604E+03  1.71767E+04  3.02099E+03  1.48890E+04  1.29988E+04  7.10523E+03  1.97982E+04
 -3.28803E+03  2.20635E+04 -1.38218E+04  1.35575E+04 -1.53063E+04  3.27306E+03 -1.10518E+04 -3.36770E+03
 -5.06711E+03 -4.94940E+03 -8.62474E+02  1.26162E+03 -2.49904E+03  2.77047E+03 -5.01901E+03  4.25773E+03
 -1.05318E+04 -9.03476E+02 -1.10464E+04 -9.05506E+03 -4.31530E+03 -1.44011E+04  4.61859E+03 -1.11396E+04
  9.60600E+03 -4.65530E+03  6.63881E+03  3.01208E+03  3.34519E+02  4.23898E+03 -4.97866E+03 -2.52072E+02
 -4.94967E+03 -7.05878E+03 -7.26539E+02 -1.03787E+04  6.21770E+03 -1.10784E+04  1.34820E+04 -5.69241E+03
  1.60483E+04  9.74360E+02  1.15717E+04  9.31782E+03  2.56693E+03  1.24291E+04 -6.55360E+03  1.10449E+04
 -9.13088E+03  3.82316E+03 -4.59001E+03 -2.33068E+03  1.75637E+03 -2.88078E+03  6.17109E+03 -1.12711E+03
  5.31151E+03  4.59363E+03  1.04038E+03  8.85736E+03 -6.30382E+03  8.06316E+03 -1.06458E+04  2.06648E+03
 -6.87577E+03 -5.57384E+03 -6.22574E+01 -9.22981E+03  5.33297E+03 -4.31576E+03  5.82594E+03  1.64203E+03
  1.19937E+03  5.85041E+03 -5.95803E+03  7.22361E+03 -7.96381E+03  3.38911E+03 -7.95223E+03 -2.37375E+03
 -4.57338E+03 -9.21167E+03  2.37590E+03 -1.11365E+04  9.20558E+03 -7.21439E+03  1.01936E+04  1.43101E+03
  6.49396E+03  8.07105E+03 -5.01216E+02  1.03932E+04 -7.83433E+03  5.88390E+03 -8.10492E+03 -6.34738E+02
 -7.37092E+03 -7.20089E+03 -1.45849E+03 -7.37019E+03  3.92882E+03 -6.59696E+03  4.55941E+03 -3.24160E+03
  3.60303E+03  9.09096E+02 -2.31460E+02  1.33074E+03  8.37268E+00 -1.18567E+03  9.66284E+02 -3.56367E+03
  6.45848E+03 -2.25519E+03  9.07685E+03  1.06009E+03  9.00717E+03  6.07091E+03  7.00896E+03  1.21588E+04
 -2.79228E+03  1.37272E+04 -1.17820E+04  1.05662E+04 -1.56586E+04  2.25257E+03 -1.23547E+04 -4.76497E+03
 -6.14955E+03 -1.01428E+04 -1.90377E+02 -8.40659E+03  3.25213E+03 -4.18600E+03  2.73025E+03 -3.14601E+03
  2.20046E+03 -1.91765E+03  2.83959E+03 -2.99625E+03  4.21244E+03 -2.33377E+03  5.32132E+03 -2.97346E+02
  6.50203E+03  1.62601E+03  3.00697E+03  5.72386E+03 -1.83221E+03  5.71901E+03 -6.84505E+03  4.53722E+03
 -8.26319E+03 -1.08767E+03 -4.58382E+03 -5.61843E+03 -2.01543E+02 -8.44590E+03  5.07620E+03 -8.58125E+03
  8.93440E+03 -5.24193E+03  1.10775E+04  8.06489E+02  7.56246E+03  7.37971E+03  1.61107E+03  9.81728E+03
 -3.99540E+03  8.79760E+03 -5.59469E+03  2.78151E+03 -3.63003E+03 -1.02964E+03 -1.23690E+03 -8.44237E+02
 -9.05690E+02  4.20620E+02 -1.54811E+03  2.18541E+03 -3.63292E+03  1.37647E+03 -5.97899E+03 -6.74599E+02
 -3.48260E+03 -6.07707E+03  4.78043E+02 -7.95975E+03  5.06360E+03 -7.41978E+03  7.48042E+03 -1.92272E+03
  7.63545E+03  3.88014E+03  3.45493E+03  6.49592E+03 -1.47347E+03  7.80205E+03 -5.14358E+03  4.76764E+03
 -7.13520E+03  4.48859E+02 -5.60976E+03 -4.36777E+03 -3.55473E+02 -6.14077E+03  3.26385E+03 -4.86184E+03
  4.68012E+03 -1.99386E+03  3.18526E+03  1.05843E+03  1.22191E+03  2.32812E+03  8.40647E+02  8.99780E+02
  2.20135E+03  8.06319E+02  1.95527E+03  1.06571E+03  2.19612E+03  2.88695E+03  2.10933E+03  3.78563E+03
 -1.77982E+03  5.88482E+03 -5.07322E+03  6.10739E+03 -6.79995E+03  1.97228E+03 -7.87520E+03 -2.38176E+03
 -3.52913E+03 -7.41915E+03  1.18183E+03 -8.22016E+03  4.29388E+03 -5.09681E+03  6.02466E+03 -1.34141E+03
  4.96364E+03  2.99458E+03  1.21769E+03  4.01339E+03 -1.96405E+03  2.73015E+03 -3.05930E+03 -5.20391E+02
 -1.23620E+03 -2.91268E+03  1.77958E+03 -3.06313E+03  3.03678E+03 -2.00506E+03  2.62224E+03  5.70249E+02
  1.68610E+03  9.66110E+02  1.07009E+03  7.06622E+02 -5.00918E+02  1.18775E+03  1.75797E+03 -3.36803E+02
  9.17562E+02 -4.87064E+02  3.26808E+03  6.59661E+02  1.42498E+03  4.15752E+03 -6.57644E+02  5.22535E+03
 -3.29962E+03  2.53366E+03 -4.23682E+03  5.38564E+02 -4.18440E+03 -1.35956E+03 -1.24027E+03 -2.62563E+03
  7.58249E+02 -2.77458E+03  1.82744E+03 -1.22242E+03  1.36049E+03  1.99118E+03 -1.25516E+03  2.32282E+03
 -2.68981E+03  1.53059E+03 -2.96387E+03 -1.96741E+03 -1.78529E+03 -3.95121E+03  6.92930E+02 -3.82349E+03
  1.70442E+03 -1.95546E+03  2.34893E+03 -3.27431E+02  2.69144E+03  4.63135E+02  3.52299E+02  2.10790E+03
 -1.04895E+03  4.53772E+02 -1.71319E+03 -1.07497E+03  7.01784E+02 -2.36841E+03  3.37936E+03 -2.15732E+03
  3.78767E+03  6.02615E+02  4.43920E+03  2.27609E+03  1.77560E+03  3.95475E+03 -1.22992E+03  4.07389E+03
 -3.43202E+03  1.31209E+03 -3.56695E+03 -5.77187E+02 -2.03682E+03 -2.44049E+03  5.77769E+02 -2.24293E+03
  2.91198E+03 -1.80930E+03  2.35434E+03  1.04465E+03  8.97056E+02  2.59567E+03  4.81055E+00  2.15907E+03
 -9.23359E+02  1.77087E+03 -8.42382E+02  3.79446E+02  3.35031E+01  7.66540E+02 -1.06657E+03  7.66791E+02
 -1.15750E+03  2.24540E+03 -2.95598E+03  1.41387E+03 -4.14654E+03  6.67067E+01 -4.41543E+03 -2.83620E+03
 -2.55408E+03 -5.34470E+03  1.24293E+03 -6.51327E+03  3.15671E+03 -5.34400E+03  6.08827E+03 -2.08942E+03
  5.33990E+03  1.09303E+03  3.24762E+03  3.49414E+03  9.81145E+01  4.18359E+03 -1.30587E+03  3.01212E+03
 -2.24990E+03  1.39528E+03 -1.40472E+03 -8.34898E+02 -9.42516E+02 -2.80884E+01 -8.44332E+02  8.66047E+01
 -1.12514E+03  1.46697E+02 -1.44766E+03  2.23388E+02  2.66149E+01 -9.75555E+02 -2.36059E+02 -1.30904E+03
  2.04692E+03 -1.14452E+03  2.05135E+03  6.37206E+01  2.53808E+03  2.43801E+03  2.52181E+02  3.86298E+03
 -2.10499E+03  4.94713E+03 -4.09421E+03  2.86047E+03 -4.50197E+03 -3.56051E+02 -3.62421E+03 -3.08164E+03
 -1.60494E+03 -3.59432E+03  8.67654E+02 -3.58661E+03  2.21204E+03 -2.01574E+03  2.05421E+03  1.83189E-01
  1.47499E+03  1.29059E+03 -3.92251E+01  9.27993E+02 -8.46278E+02 -1.47125E+02 -2.07498E+02 -7.62029E+02
  1.08251E+03 -1.32914E+02  1.20266E+03  8.10912E+02  7.63723E+02  1.61191E+03  3.76548E+02  1.50103E+03
 -1.69741E+03  1.54598E+03 -1.97518E+03 -6.81724E+01 -2.35564E+03 -1.89575E+03 -3.23592E+02 -3.13696E+03
  1.87583E+03 -2.34315E+03  2.40592E+03 -7.90973E+02  2.47803E+03  3.71378E+02  1.48824E+03  1.92226E+03
  7.95290E+02  2.30707E+03 -1.05623E+03  2.14026E+03 -1.68357E+03  1.11751E+03 -1.04667E+03  1.52866E+02
 -9.18138E+02 -8.87298E+01 -9.15317E+02  2.56753E+02 -1.37401E+03  3.82258E+02 -1.82084E+03 -5.19671E+02
 -1.88455E+03 -3.69937E+02 -5.20022E+02 -2.46149E+03  1.71810E+03 -2.97701E+03  2.05362E+03 -1.09911E+03
  2.29459E+03  1.06098E+02  8.55295E+02  1.55102E+03 -1.79884E+02  2.39043E+03 -1.44565E+03  1.80250E+03
