 $NMID ID='MM_0lb_SNR800_9hz_g60_13.RAW', FMTDAT='(8E13.5)'
 TRAMP=1., VOLUME=1. $END
  3.09832E+05 -2.28687E+01  3.37881E+05  2.50766E+05  8.52599E+04  3.38575E+05 -1.32558E+05  2.52537E+05
 -1.90617E+05  8.37833E+04 -1.13020E+05 -3.24900E+04 -3.15243E+02 -5.06726E+04  5.38733E+04 -6.53089E+02
  3.55910E+04  5.31784E+04 -1.61165E+04  7.59934E+04 -6.15285E+04  6.46149E+04 -8.58644E+04  3.29526E+04
 -8.27460E+04 -1.13024E+04 -5.83909E+04 -5.25164E+04 -1.50405E+04 -7.16912E+04  2.83275E+04 -4.71490E+04
  4.12032E+04  3.04377E+03  1.71076E+04  4.88369E+04 -3.51376E+04  4.80765E+04 -6.84685E+04  1.81294E+02
 -5.51143E+04 -5.80172E+04 -7.47716E+03 -7.88264E+04  3.47414E+04 -5.72743E+04  5.02970E+04 -1.86133E+04
  4.57373E+04  1.16484E+04  3.32954E+04  2.68111E+04  1.58867E+04  3.09684E+04 -6.54800E+03  2.74198E+04
 -2.26551E+04  1.19503E+04 -1.78178E+04 -6.00317E+03  7.15547E+03 -7.20942E+03  2.37768E+04  1.39543E+04
  7.16419E+03  3.79175E+04 -3.42855E+04  3.71952E+04 -6.60954E+04  1.62420E+03 -5.92212E+04 -4.52450E+04
 -1.24281E+04 -6.64718E+04  4.21034E+04 -4.80855E+04  6.17543E+04 -2.40042E+03  3.71999E+04  3.51265E+04
 -5.52423E+03  4.03880E+04 -3.23529E+04  1.94903E+04 -3.42867E+04 -3.41436E+03 -1.94142E+04 -1.23614E+04
 -9.60537E+03 -1.53796E+04 -2.91279E+02 -2.00459E+04  8.68282E+03 -2.37088E+04  1.65126E+04 -1.23996E+04
  1.03467E+04  6.46569E+03 -1.06706E+04  1.29010E+04 -2.38370E+04 -6.95266E+03 -8.40460E+03 -3.83069E+04
  2.58108E+04 -4.80953E+04  5.28211E+04 -2.16157E+04  4.97397E+04  2.10933E+04  1.78016E+04  4.79829E+04
 -1.66828E+04  3.67999E+04 -2.82624E+04  2.66420E+03 -1.23919E+04 -2.97973E+04  2.16554E+04 -3.76945E+04
  4.54704E+04 -1.16850E+04  4.16432E+04  2.54911E+04  2.20630E+04  5.22597E+04 -8.39559E+03  5.70879E+04
 -3.62468E+04  3.93244E+04 -4.86708E+04  1.12132E+04 -4.87516E+04 -1.90588E+04 -2.66594E+04 -4.31455E+04
  7.83424E+03 -4.31501E+04  3.44078E+04 -1.81356E+04  3.21604E+04  1.12817E+04  5.83282E+03  2.12192E+04
 -1.42899E+04  9.80098E+03 -1.14577E+04 -7.33334E+03  5.79606E+03 -1.17054E+04  1.91601E+04  5.63708E+03
  1.50536E+04  2.33441E+04 -5.03556E+03  2.73780E+04 -2.34886E+04  1.52917E+04 -3.23757E+04 -2.45734E+03
 -2.64363E+04 -1.87592E+04 -1.25102E+04 -2.59297E+04  4.13365E+03 -2.69627E+04  2.12173E+04 -2.42761E+04
  3.36515E+04 -1.45671E+04  3.91256E+04  5.13085E+03  2.74316E+04  2.48774E+04  4.68957E+03  4.25048E+04
 -2.03197E+04  3.46370E+04 -3.16850E+04  1.21254E+04 -2.26945E+04 -1.01286E+04 -4.62298E+03 -1.27129E+04
  1.13821E+03 -7.98119E+02 -8.37197E+03  8.88874E+03 -2.10130E+04  4.97448E+03 -2.05566E+04 -1.01817E+04
 -1.26394E+04 -2.44082E+04  6.08190E+03 -2.88018E+04  1.97792E+04 -2.05299E+04  2.34562E+04 -1.87282E+03
  1.54159E+04  1.67488E+04 -1.30511E+03  2.41028E+04 -1.73130E+04  1.38676E+04 -2.47378E+04 -5.05770E+03
 -1.78935E+04 -2.18854E+04 -2.40192E+03 -2.91815E+04  1.30886E+04 -2.45939E+04  2.40241E+04 -1.29270E+04
  2.26235E+04  2.34273E+01  1.68913E+04  5.57654E+03  9.50559E+03  1.59252E+03  1.25712E+04 -2.26157E+03
  2.29367E+04  3.08333E+03  2.72084E+04  1.85767E+04  1.83676E+04  3.92348E+04 -3.06859E+03  4.63914E+04
 -2.66408E+04  3.91875E+04 -4.37686E+04  2.02368E+04 -4.70406E+04 -3.57422E+03 -3.78909E+04 -2.76933E+04
 -1.51958E+04 -3.94093E+04  1.45508E+04 -3.43006E+04  2.91232E+04 -1.63161E+04  2.52283E+04  8.15893E+03
  8.24488E+03  1.94226E+04 -1.22383E+04  1.57840E+04 -2.09643E+04  2.95778E+03 -1.58089E+04 -1.34208E+04
 -7.68466E+02 -2.00705E+04  1.09138E+04 -1.47060E+04  1.37309E+04 -1.18214E+03  3.80386E+03  9.11874E+03
 -9.40902E+03  4.44541E+03 -9.74048E+03 -7.10312E+03 -2.57379E+03 -1.91653E+04  1.23578E+04 -2.12378E+04
  2.47097E+04 -1.19773E+04  2.80874E+04  3.21174E+03  2.40347E+04  1.97290E+04  1.14399E+04  3.13168E+04
 -5.86924E+03  3.31365E+04 -2.16324E+04  2.08483E+04 -2.41858E+04  4.03484E+03 -1.65720E+04 -6.43775E+03
 -6.93628E+03 -7.85360E+03 -9.26202E+02  1.19838E+00 -3.22668E+03  3.54598E+03 -7.74951E+03  5.88910E+03
 -1.50162E+04 -1.51579E+03 -1.57002E+04 -1.23387E+04 -6.57692E+03 -2.03573E+04  7.07633E+03 -1.67501E+04
  1.38231E+04 -6.68150E+03  9.54531E+03  4.40784E+03 -2.39703E+02  6.50438E+03 -8.21147E+03 -2.46318E+01
 -7.53063E+03 -1.04754E+04 -1.36597E+03 -1.67599E+04  9.31246E+03 -1.72394E+04  2.11541E+04 -9.52249E+03
  2.49513E+04  2.29129E+03  1.81863E+04  1.56272E+04  3.44092E+03  2.00312E+04 -1.01545E+04  1.65314E+04
 -1.32718E+04  4.43891E+03 -7.22835E+03 -3.69066E+03  2.29552E+03 -4.44360E+03  8.94351E+03 -1.22657E+03
  7.69483E+03  7.60402E+03  1.04755E+03  1.30815E+04 -9.94590E+03  1.28734E+04 -1.64763E+04  2.85093E+03
 -1.11544E+04 -8.59537E+03 -5.07444E+01 -1.44134E+04  9.29862E+03 -7.16183E+03  1.00064E+04  3.56320E+03
  2.67010E+03  1.04192E+04 -9.06289E+03  1.27537E+04 -1.49453E+04  5.40632E+03 -1.50883E+04 -5.34812E+03
 -8.64716E+03 -1.67367E+04  4.41453E+03 -1.93730E+04  1.63826E+04 -1.12167E+04  1.78251E+04  3.20194E+03
  1.01658E+04  1.38703E+04 -2.14070E+03  1.68811E+04 -1.23202E+04  9.18831E+03 -1.34766E+04 -1.62063E+03
 -1.13591E+04 -1.14690E+04 -1.89552E+03 -1.29379E+04  6.91385E+03 -9.82272E+03  8.09853E+03 -3.72056E+03
  4.91301E+03  2.43008E+03 -1.39423E+03  1.99528E+03 -8.54135E+02 -3.73546E+03  3.03060E+03 -8.16844E+03
  1.23502E+04 -5.49180E+03  1.76458E+04  1.83223E+03  1.69810E+04  1.19279E+04  1.08220E+04  2.24281E+04
 -5.31531E+03  2.59324E+04 -2.09516E+04  1.85330E+04 -2.76383E+04  3.81975E+03 -2.23161E+04 -9.58164E+03
 -1.12897E+04 -1.80091E+04 -4.11354E+02 -1.59158E+04  5.42451E+03 -8.98379E+03  5.47717E+03 -5.28003E+03
  4.09422E+03 -3.27893E+03  4.30602E+03 -4.23676E+03  6.12197E+03 -3.89027E+03  8.63143E+03 -2.01792E+03
  1.17058E+04  2.44719E+03  6.44360E+03  1.00187E+04 -2.21764E+03  1.26045E+04 -1.22910E+04  9.30020E+03
 -1.60679E+04 -1.74799E+03 -1.02234E+04 -1.15265E+04 -1.65419E+03 -1.74398E+04  9.31047E+03 -1.73966E+04
  1.74825E+04 -9.28691E+03  2.10969E+04  3.14377E+03  1.47561E+04  1.47520E+04  2.75711E+03  1.95889E+04
 -8.16861E+03  1.55685E+04 -1.13720E+04  5.47481E+03 -7.38283E+03 -1.68914E+03 -3.32136E+03 -2.94764E+03
 -1.26657E+03 -5.15053E+02 -2.92351E+03  3.21632E+03 -6.42781E+03  2.77498E+03 -1.07968E+04 -1.39969E+03
 -8.00668E+03 -1.02859E+04 -4.28398E+02 -1.59292E+04  1.00580E+04 -1.46342E+04  1.59743E+04 -4.46057E+03
  1.55405E+04  7.28402E+03  7.27463E+03  1.45223E+04 -2.95182E+03  1.64815E+04 -1.15141E+04  9.88354E+03
 -1.49702E+04  3.62755E+02 -1.16408E+04 -9.93302E+03 -9.77400E+02 -1.36034E+04  6.95890E+03 -9.91184E+03
  1.07479E+04 -2.96026E+03  6.97806E+03  2.83616E+03  2.89379E+03  4.64728E+03  1.53236E+03  1.89088E+03
  3.27328E+03  1.14403E+03  3.95772E+03  2.22303E+03  4.85358E+03  5.78755E+03  4.04481E+03  8.69665E+03
 -3.48479E+03  1.26654E+04 -1.12231E+04  1.29145E+04 -1.63968E+04  3.25652E+03 -1.67916E+04 -6.84855E+03
 -8.16924E+03 -1.60797E+04  2.71871E+03 -1.73541E+04  1.02098E+04 -1.14541E+04  1.33153E+04 -3.36186E+03
  9.92469E+03  6.36042E+03  2.35831E+03  9.12433E+03 -4.87444E+03  5.99084E+03 -6.88129E+03 -1.01098E+03
 -2.84227E+03 -6.84248E+03  4.03891E+03 -7.13308E+03  6.66992E+03 -3.48025E+03  6.63623E+03  1.19845E+03
  4.31333E+03  3.44880E+03  1.69965E+03  2.86527E+03 -6.22665E+02  2.05515E+03  1.64964E+03 -3.24483E+02
  2.40602E+03 -1.06241E+03  6.41581E+03  3.02928E+03  3.97985E+03  8.72168E+03 -1.45873E+03  1.13756E+04
 -7.82273E+03  7.63487E+03 -1.08315E+04  1.87760E+03 -9.48313E+03 -3.67176E+03 -3.88598E+03 -6.56166E+03
  5.59392E+02 -6.88180E+03  4.29052E+03 -2.91032E+03  3.37074E+03  3.15731E+03 -1.80054E+03  5.34256E+03
 -6.83376E+03  3.25301E+03 -8.00052E+03 -4.09866E+03 -4.51085E+03 -8.97316E+03  1.53993E+03 -9.05777E+03
  5.17105E+03 -5.62802E+03  7.03386E+03 -8.20290E+02  5.36713E+03  2.25942E+03  7.63530E+02  4.81239E+03
 -3.51048E+03  1.32148E+03 -4.12322E+03 -3.39170E+03  1.38711E+03 -7.39561E+03  8.28135E+03 -5.89119E+03
  1.06341E+04  1.15007E+03  9.80235E+03  7.39244E+03  3.24550E+03  1.10971E+04 -3.99126E+03  1.02971E+04
 -8.93521E+03  4.21573E+03 -9.43037E+03 -1.50113E+03 -5.11894E+03 -7.16371E+03  1.63268E+03 -6.56060E+03
  6.48804E+03 -3.14870E+03  6.00880E+03  2.70713E+03  1.82063E+03  5.92727E+03 -1.14941E+03  5.51087E+03
 -2.86699E+03  3.07944E+03 -2.48634E+03  1.06559E+03 -1.33889E+03  8.17789E+02 -1.91672E+03  2.18038E+03
 -2.68597E+03  4.06399E+03 -7.38278E+03  3.98887E+03 -1.07894E+04  6.70447E+02 -1.23269E+04 -7.16342E+03
 -6.68263E+03 -1.45926E+04  2.84980E+03 -1.67560E+04  1.09377E+04 -1.28736E+04  1.60652E+04 -4.52104E+03
  1.49401E+04  3.02190E+03  9.58243E+03  1.01187E+04  9.77975E+02  1.19170E+04 -4.53194E+03  8.79786E+03
 -6.71356E+03  3.07786E+03 -3.59072E+03 -1.12363E+03 -1.06353E+03 -9.99220E+02 -8.79120E+02 -2.42120E+02
 -1.94243E+03  3.21701E+02 -2.71205E+03 -6.92524E+02 -8.96794E+02 -2.25588E+03  3.62027E+02 -4.27184E+03
  4.80578E+03 -3.50421E+03  7.15067E+03 -3.94161E+01  7.95511E+03  5.86261E+03  2.48230E+03  1.14221E+04
 -5.44626E+03  1.22941E+04 -1.23316E+04  7.42027E+03 -1.37078E+04 -1.40339E+03 -1.05641E+04 -8.51545E+03
 -4.20626E+03 -1.20525E+04  3.01804E+03 -1.06221E+04  7.56179E+03 -5.81506E+03  7.15715E+03  2.89718E+02
  3.78917E+03  3.65950E+03 -8.20883E+02  3.07028E+03 -2.12371E+03  1.30064E+01  2.76934E+02 -2.57306E+03
  3.70708E+03 -1.95537E+03  4.59582E+03  1.33756E+03  3.36656E+03  4.66292E+03 -1.93555E+02  5.74703E+03
 -4.60868E+03  5.45211E+03 -7.44730E+03  5.47091E+02 -6.88431E+03 -4.98947E+03 -9.34832E+02 -9.30533E+03
  4.81266E+03 -8.30278E+03  9.07396E+03 -2.80872E+03  8.88488E+03  1.96503E+03  5.03202E+03  7.16879E+03
  1.44563E+03  7.59083E+03 -2.92307E+03  5.80771E+03 -4.68755E+03  3.12144E+03 -3.92559E+03  1.00855E+03
 -1.89911E+03 -2.66740E+02 -2.26334E+03  1.04794E+03 -3.97462E+03  1.51188E+03 -6.15463E+03 -1.14474E+03
 -5.50605E+03 -4.55307E+03 -1.90674E+03 -7.59154E+03  3.09462E+03 -8.13425E+03  6.74589E+03 -3.70854E+03
  7.59565E+03  1.35172E+03  4.15189E+03  5.45185E+03 -1.25456E+02  7.99133E+03 -6.37415E+03  4.88355E+03
