 $NMID ID='MM_0lb_SNR800_13hz_g40_38.RAW', FMTDAT='(8E13.5)'
 TRAMP=1., VOLUME=1. $END
  3.09299E+05  3.92960E+02  3.37679E+05  2.50437E+05  8.47061E+04  3.37742E+05 -1.32204E+05  2.50965E+05
 -1.90400E+05  8.34058E+04 -1.11607E+05 -3.25839E+04  8.26405E+02 -5.04474E+04  5.40165E+04  4.11485E+01
  3.52669E+04  5.28567E+04 -1.71842E+04  7.55010E+04 -6.10883E+04  6.37352E+04 -8.42379E+04  3.18791E+04
 -8.09319E+04 -1.14572E+04 -5.70599E+04 -5.12433E+04 -1.49540E+04 -6.93147E+04  2.73966E+04 -4.56712E+04
  4.03502E+04  4.15234E+03  1.63430E+04  4.74788E+04 -3.42602E+04  4.71385E+04 -6.67544E+04 -3.08997E+02
 -5.31993E+04 -5.69567E+04 -6.84910E+03 -7.67968E+04  3.37242E+04 -5.48676E+04  4.79085E+04 -1.71447E+04
  4.32869E+04  1.13175E+04  3.15202E+04  2.55281E+04  1.58887E+04  2.92349E+04 -5.24098E+03  2.73944E+04
 -2.19941E+04  1.25729E+04 -1.87348E+04 -4.74328E+03  5.52051E+03 -7.51562E+03  2.22043E+04  1.19885E+04
  7.13307E+03  3.53035E+04 -3.21517E+04  3.54507E+04 -6.34003E+04  2.38945E+03 -5.67783E+04 -4.25633E+04
 -1.24800E+04 -6.29221E+04  3.99249E+04 -4.51216E+04  5.80203E+04 -2.27763E+03  3.39124E+04  3.22524E+04
 -6.17274E+03  3.61129E+04 -2.97399E+04  1.58536E+04 -3.01605E+04 -4.76516E+03 -1.65593E+04 -1.07510E+04
 -8.38882E+03 -1.28918E+04 -9.25944E+02 -1.78885E+04  7.43656E+03 -2.28179E+04  1.54950E+04 -1.35631E+04
  1.15459E+04  4.89542E+03 -8.32342E+03  1.27237E+04 -2.15550E+04 -4.37092E+03 -7.99446E+03 -3.36588E+04
  2.27046E+04 -4.33776E+04  4.76808E+04 -1.95307E+04  4.47822E+04  1.94015E+04  1.56023E+04  4.44250E+04
 -1.59230E+04  3.33547E+04 -2.50926E+04  1.93820E+03 -9.83892E+03 -2.78202E+04  2.09915E+04 -3.38933E+04
  4.14356E+04 -8.96755E+03  3.55179E+04  2.38547E+04  1.79869E+04  4.66335E+04 -7.78551E+03  5.01178E+04
 -3.14986E+04  3.38497E+04 -4.20023E+04  9.48898E+03 -4.24534E+04 -1.65591E+04 -2.33358E+04 -3.76475E+04
  7.49493E+03 -3.76373E+04  3.14527E+04 -1.47096E+04  2.91876E+04  1.10011E+04  4.33229E+03  1.95730E+04
 -1.32853E+04  8.16656E+03 -1.00868E+04 -7.50439E+03  5.68516E+03 -1.07148E+04  1.78656E+04  6.03616E+03
  1.33357E+04  2.20413E+04 -5.93435E+03  2.51529E+04 -2.23815E+04  1.15940E+04 -2.82205E+04 -4.78190E+03
 -2.09770E+04 -1.73499E+04 -8.64185E+03 -2.04883E+04  4.05717E+03 -1.98099E+04  1.56487E+04 -1.82650E+04
  2.56769E+04 -1.28814E+04  3.26870E+04  3.03895E+03  2.38483E+04  1.98068E+04  3.91976E+03  3.64525E+04
 -1.77585E+04  3.02767E+04 -2.81261E+04  1.05959E+04 -2.10217E+04 -1.05563E+04 -4.38425E+03 -1.35859E+04
  1.91881E+03 -2.60142E+03 -4.68184E+03  6.60587E+03 -1.60834E+04  5.06313E+03 -1.63730E+04 -6.74810E+03
 -1.02958E+04 -1.88087E+04  5.35543E+03 -2.32158E+04  1.52337E+04 -1.64804E+04  1.81182E+04 -1.66821E+03
  1.14636E+04  1.28402E+04 -1.01365E+03  1.90456E+04 -1.31224E+04  1.10708E+04 -1.89693E+04 -3.90277E+03
 -1.40849E+04 -1.71964E+04 -1.94288E+03 -2.28194E+04  1.00669E+04 -1.84395E+04  1.92921E+04 -9.34221E+03
  1.80036E+04  3.15044E+02  1.28487E+04  4.43681E+03  6.70887E+03  8.31811E+02  9.67809E+03 -1.59876E+03
  1.75094E+04  2.68643E+03  1.95163E+04  1.53663E+04  1.28173E+04  3.03200E+04 -2.88274E+03  3.42674E+04
 -1.99955E+04  2.76547E+04 -3.20292E+04  1.38022E+04 -3.40239E+04 -2.50301E+03 -2.78204E+04 -1.94539E+04
 -1.20364E+04 -2.78570E+04  9.36894E+03 -2.48857E+04  2.15268E+04 -1.27738E+04  1.91848E+04  5.25041E+03
  7.16747E+03  1.43451E+04 -8.89491E+03  1.27350E+04 -1.64860E+04  2.56738E+03 -1.26419E+04 -1.03037E+04
 -1.47285E+02 -1.54582E+04  8.12744E+03 -1.17596E+04  1.01647E+04 -1.13271E+03  2.46645E+03  6.52897E+03
 -6.98682E+03  2.47254E+03 -6.37580E+03 -5.43157E+03 -3.85283E+02 -1.40899E+04  9.30666E+03 -1.41786E+04
  1.68873E+04 -7.74999E+03  1.80210E+04  2.82584E+03  1.58097E+04  1.34221E+04  7.50138E+03  2.07828E+04
 -3.32084E+03  2.27510E+04 -1.42245E+04  1.39531E+04 -1.59299E+04  3.23084E+03 -1.14393E+04 -3.67858E+03
 -5.29572E+03 -4.78085E+03 -5.36740E+02  9.39032E+02 -2.68149E+03  2.59051E+03 -5.20571E+03  4.48521E+03
 -1.10850E+04 -9.39094E+02 -1.12063E+04 -9.17352E+03 -4.65376E+03 -1.50234E+04  4.61124E+03 -1.16030E+04
  9.92756E+03 -4.86559E+03  6.97395E+03  3.02397E+03  3.24835E+02  4.17540E+03 -5.31883E+03 -9.79027E+01
 -4.94961E+03 -7.36255E+03 -1.02103E+03 -1.05977E+04  6.17536E+03 -1.15108E+04  1.41930E+04 -5.71519E+03
  1.66463E+04  1.39521E+03  1.21942E+04  9.70669E+03  2.28298E+03  1.35124E+04 -7.14606E+03  1.14201E+04
 -9.30686E+03  3.58763E+03 -4.74008E+03 -2.22714E+03  1.64190E+03 -2.92137E+03  6.41595E+03 -1.07131E+03
  5.61082E+03  4.74276E+03  9.92476E+02  9.04753E+03 -6.05321E+03  8.96502E+03 -1.11519E+04  2.45891E+03
 -7.10135E+03 -5.42864E+03  5.92402E+01 -9.67367E+03  5.83343E+03 -4.62593E+03  6.20104E+03  1.92733E+03
  1.36594E+03  6.21117E+03 -5.78022E+03  7.69648E+03 -8.54779E+03  3.31578E+03 -8.61223E+03 -2.79697E+03
 -4.99532E+03 -9.93632E+03  2.58865E+03 -1.17167E+04  1.00113E+04 -7.30622E+03  1.06256E+04  1.70607E+03
  6.77932E+03  8.45023E+03 -5.79609E+02  1.04819E+04 -7.76383E+03  5.82632E+03 -8.40453E+03 -9.77310E+02
 -7.69976E+03 -7.48873E+03 -1.51258E+03 -7.98947E+03  4.43772E+03 -6.82831E+03  5.01333E+03 -3.26666E+03
  3.78614E+03  1.07853E+03 -6.97732E+02  1.51983E+03  2.85649E+02 -1.70182E+03  1.05524E+03 -4.31779E+03
  6.96466E+03 -2.11495E+03  9.52113E+03  1.06324E+03  9.75464E+03  6.51169E+03  7.15024E+03  1.29362E+04
 -2.99793E+03  1.49584E+04 -1.26246E+04  1.08168E+04 -1.67348E+04  2.24938E+03 -1.30157E+04 -5.40176E+03
 -6.89219E+03 -1.10802E+04  2.62039E+01 -8.93543E+03  3.27714E+03 -5.18659E+03  3.36227E+03 -3.37438E+03
  2.49374E+03 -2.41906E+03  3.06078E+03 -2.75366E+03  4.45709E+03 -2.56441E+03  5.62047E+03 -4.81853E+02
  7.11226E+03  1.83063E+03  3.19373E+03  6.03282E+03 -1.86792E+03  6.50871E+03 -6.94210E+03  5.18236E+03
 -8.98388E+03 -1.37511E+03 -4.92729E+03 -5.99072E+03 -2.62125E+02 -9.46173E+03  5.38614E+03 -9.64206E+03
  9.68817E+03 -5.48649E+03  1.23224E+04  1.46666E+03  8.48860E+03  8.26099E+03  1.26090E+03  1.04506E+04
 -4.28058E+03  9.56874E+03 -6.04304E+03  3.01958E+03 -3.83399E+03 -1.44340E+03 -1.62311E+03 -1.46621E+03
 -8.89236E+02  4.03997E+02 -1.59478E+03  2.56885E+03 -3.91536E+03  1.70915E+03 -6.31727E+03 -8.80113E+02
 -3.83773E+03 -6.40367E+03  3.46576E+02 -8.82313E+03  5.29684E+03 -8.21345E+03  8.14895E+03 -2.36515E+03
  8.33324E+03  4.60658E+03  3.87161E+03  7.24129E+03 -1.72586E+03  8.94554E+03 -5.93435E+03  5.37887E+03
 -7.78197E+03  6.78382E+02 -6.10980E+03 -5.22179E+03 -5.00687E+02 -6.76551E+03  2.93605E+03 -5.09578E+03
  5.32874E+03 -2.15853E+03  3.99122E+03  9.74934E+02  1.25973E+03  2.80403E+03  1.10957E+03  9.49151E+02
  2.19731E+03  6.66989E+02  2.17103E+03  1.20693E+03  2.52027E+03  3.44460E+03  2.45137E+03  4.20606E+03
 -1.88322E+03  6.50685E+03 -5.55870E+03  7.27843E+03 -7.95374E+03  1.83927E+03 -8.76918E+03 -2.46909E+03
 -4.02606E+03 -8.25686E+03  1.37765E+03 -9.31462E+03  5.02196E+03 -5.79116E+03  7.10201E+03 -1.27116E+03
  5.15486E+03  3.34632E+03  1.25137E+03  4.77694E+03 -2.24546E+03  2.81842E+03 -3.10059E+03 -5.75982E+02
 -1.71111E+03 -3.33252E+03  2.03198E+03 -3.68463E+03  3.35277E+03 -1.53941E+03  3.42227E+03  7.11242E+02
  1.87942E+03  1.69080E+03  1.24585E+03  1.32780E+03 -5.15368E+02  1.10412E+03  1.62361E+03 -2.17482E+02
  1.10373E+03 -4.79167E+02  3.28953E+03  1.33637E+03  1.71512E+03  4.83941E+03 -7.84673E+02  5.95001E+03
 -3.72919E+03  3.24174E+03 -5.09137E+03  1.08485E+03 -4.47271E+03 -1.68964E+03 -1.16708E+03 -2.96926E+03
  4.32991E+02 -2.88226E+03  2.25690E+03 -1.61828E+03  1.53643E+03  2.02514E+03 -1.19332E+03  2.27814E+03
 -3.30780E+03  1.52050E+03 -3.89664E+03 -2.01378E+03 -2.31067E+03 -4.44979E+03  5.70991E+02 -3.96245E+03
  2.26855E+03 -2.21132E+03  2.95891E+03 -6.81542E+01  2.92837E+03  1.16529E+03  3.92380E+02  2.39159E+03
 -1.28812E+03  3.42423E+02 -2.23666E+03 -8.25737E+02  1.08498E+03 -3.29582E+03  4.00774E+03 -2.56981E+03
  4.36599E+03  5.15096E+02  5.46142E+03  2.92694E+03  1.55539E+03  4.76490E+03 -1.68074E+03  4.49068E+03
 -4.04483E+03  1.82449E+03 -4.25414E+03 -6.56747E+02 -2.42240E+03 -3.27898E+03  6.16700E+02 -2.68943E+03
  3.16775E+03 -1.03350E+03  2.45595E+03  1.44835E+03  1.04864E+03  2.86006E+03 -6.33717E+02  2.51808E+03
 -1.03190E+03  1.75578E+03 -1.25182E+03  4.59704E+02 -2.76808E+02  5.93749E+02 -9.97839E+02  1.10755E+03
 -1.14520E+03  2.09818E+03 -3.92283E+03  1.70574E+03 -4.81687E+03  1.67686E+01 -5.68606E+03 -2.94676E+03
 -2.56456E+03 -6.03635E+03  1.45324E+03 -7.39621E+03  3.98549E+03 -5.66125E+03  7.00766E+03 -2.09812E+03
  6.77091E+03  9.24975E+02  3.71776E+03  4.45436E+03 -1.30802E+02  4.88695E+03 -1.90054E+03  3.25780E+03
 -2.87077E+03  1.37527E+03 -1.54190E+03 -2.66377E+02 -8.70494E+02 -2.46534E+02 -4.91329E+02 -4.10149E+02
 -1.38914E+03 -2.56957E+01 -1.11964E+03  4.30065E+01  1.14321E+02 -1.43917E+03  2.79252E+02 -1.55873E+03
  2.35060E+03 -2.10599E+03  2.88583E+03  2.05593E+02  3.06047E+03  2.55036E+03  2.20575E+02  4.17061E+03
 -2.42947E+03  5.69345E+03 -4.91153E+03  3.09895E+03 -5.78849E+03 -6.82470E+02 -4.07586E+03 -3.38378E+03
 -1.93415E+03 -4.40353E+03  1.29232E+03 -4.32078E+03  2.66917E+03 -1.99688E+03  2.81450E+03  9.43976E+01
  1.74230E+03  1.67111E+03 -5.89665E-03  1.10830E+03 -9.43731E+02 -2.57227E+01 -2.54652E+02 -1.35637E+03
  1.32721E+03 -5.46432E+02  1.65740E+03  7.63000E+02  1.08033E+03  1.92324E+03  4.54472E+02  2.12345E+03
 -2.16009E+03  2.29063E+03 -2.56033E+03  4.00941E+02 -2.86492E+03 -2.11877E+03 -3.69626E+02 -3.53660E+03
  2.34595E+03 -2.60731E+03  2.80001E+03 -1.02937E+03  3.19111E+03  2.67090E+02  2.04019E+03  2.52054E+03
  4.81747E+02  2.79377E+03 -1.29101E+03  2.28253E+03 -1.81411E+03  1.27137E+03 -1.74102E+03  1.50465E+02
 -6.37505E+02 -2.31875E+02 -1.26287E+03  1.32711E+02 -1.58813E+03  2.48158E+02 -2.43806E+03 -6.70984E+02
 -2.68301E+03 -8.55390E+02 -9.66979E+02 -2.73679E+03  2.05759E+03 -3.77439E+03  2.96271E+03 -1.16120E+03
  2.92204E+03  6.07064E+02  6.62654E+02  1.84967E+03 -2.32179E+02  2.88109E+03 -1.83709E+03  1.75894E+03
