 $NMID ID='MM_0lb_SNR800_19hz_g55_50.RAW', FMTDAT='(8E13.5)'
 TRAMP=1., VOLUME=1. $END
  3.09752E+05  3.43830E+02  3.37404E+05  2.50259E+05  8.45670E+04  3.37595E+05 -1.32296E+05  2.50685E+05
 -1.89785E+05  8.26594E+04 -1.11295E+05 -3.25905E+04  1.10941E+03 -5.03895E+04  5.38070E+04  1.68069E+02
  3.52038E+04  5.29647E+04 -1.70536E+04  7.50489E+04 -6.06419E+04  6.32365E+04 -8.34043E+04  3.16786E+04
 -8.01782E+04 -1.11853E+04 -5.63206E+04 -5.05859E+04 -1.52613E+04 -6.87284E+04  2.68664E+04 -4.50058E+04
  3.93141E+04  4.11620E+03  1.59391E+04  4.73762E+04 -3.41703E+04  4.65807E+04 -6.56427E+04 -3.11089E+02
 -5.24254E+04 -5.60925E+04 -6.74743E+03 -7.54556E+04  3.33486E+04 -5.36467E+04  4.68938E+04 -1.64302E+04
  4.20319E+04  1.09027E+04  3.10995E+04  2.46436E+04  1.59404E+04  2.85992E+04 -4.78489E+03  2.67331E+04
 -2.18895E+04  1.26897E+04 -1.92301E+04 -4.34116E+03  4.53836E+03 -7.70891E+03  2.16045E+04  1.10965E+04
  7.57861E+03  3.34603E+04 -3.10394E+04  3.42819E+04 -6.15696E+04  2.07065E+03 -5.59574E+04 -4.15373E+04
 -1.25555E+04 -6.15259E+04  3.85444E+04 -4.42700E+04  5.59099E+04 -2.25557E+03  3.23111E+04  3.08563E+04
 -6.33889E+03  3.38356E+04 -2.88997E+04  1.41245E+04 -2.83212E+04 -5.20788E+03 -1.48318E+04 -1.02686E+04
 -7.46611E+03 -1.19400E+04 -1.01407E+03 -1.68212E+04  7.00516E+03 -2.27931E+04  1.49770E+04 -1.37833E+04
  1.19883E+04  4.60629E+03 -6.67120E+03  1.30977E+04 -1.97186E+04 -3.01513E+03 -8.00232E+03 -3.11266E+04
  2.12900E+04 -4.10821E+04  4.55349E+04 -1.88674E+04  4.27168E+04  1.85948E+04  1.44531E+04  4.23050E+04
 -1.53692E+04  3.14659E+04 -2.37850E+04  1.41370E+03 -8.67139E+03 -2.65779E+04  2.05350E+04 -3.20657E+04
  3.89167E+04 -7.71397E+03  3.23127E+04  2.29858E+04  1.59802E+04  4.34273E+04 -7.86764E+03  4.62109E+04
 -2.92186E+04  3.09166E+04 -3.83283E+04  8.43599E+03 -3.90257E+04 -1.52917E+04 -2.15088E+04 -3.50190E+04
  6.91441E+03 -3.47619E+04  2.95794E+04 -1.30010E+04  2.75069E+04  1.09867E+04  3.22584E+03  1.80105E+04
 -1.30698E+04  7.70528E+03 -9.79893E+03 -7.57966E+03  5.58132E+03 -1.01830E+04  1.76600E+04  6.54185E+03
  1.25960E+04  2.15612E+04 -6.42105E+03  2.35208E+04 -2.15116E+04  9.68965E+03 -2.54761E+04 -6.20507E+03
 -1.71909E+04 -1.66321E+04 -6.00089E+03 -1.73793E+04  3.67915E+03 -1.55380E+04  1.30706E+04 -1.51331E+04
  2.19685E+04 -1.18763E+04  2.87305E+04  1.60138E+03  2.17461E+04  1.68345E+04  4.09801E+03  3.32599E+04
 -1.59793E+04  2.81606E+04 -2.61268E+04  9.71473E+03 -1.97612E+04 -1.04865E+04 -3.79473E+03 -1.38985E+04
  2.37230E+03 -4.02664E+03 -3.05206E+03  5.22249E+03 -1.33804E+04  5.39868E+03 -1.38861E+04 -5.32247E+03
 -9.13364E+03 -1.58935E+04  4.83598E+03 -1.99923E+04  1.28835E+04 -1.44306E+04  1.51551E+04 -1.41531E+03
  9.33656E+03  1.10092E+04 -1.01349E+03  1.60588E+04 -1.06443E+04  9.27826E+03 -1.60721E+04 -3.64197E+03
 -1.17602E+04 -1.44971E+04 -1.30566E+03 -1.96739E+04  8.80505E+03 -1.57228E+04  1.64002E+04 -7.53447E+03
  1.49048E+04  4.09443E+02  1.08913E+04  4.18030E+03  5.20798E+03  5.18416E+02  7.80033E+03 -1.34012E+03
  1.41079E+04  2.92444E+03  1.51714E+04  1.28121E+04  9.57537E+03  2.53834E+04 -3.00958E+03  2.71923E+04
 -1.63630E+04  2.09967E+04 -2.50681E+04  1.00044E+04 -2.58758E+04 -1.87231E+03 -2.18978E+04 -1.46262E+04
 -1.01107E+04 -2.12143E+04  7.10415E+03 -1.95709E+04  1.69819E+04 -1.10927E+04  1.58995E+04  3.86700E+03
  6.51186E+03  1.16501E+04 -7.38277E+03  1.05290E+04 -1.33242E+04  2.51574E+03 -1.06499E+04 -8.18786E+03
 -9.16797E+01 -1.26834E+04  6.22743E+03 -9.59676E+03  7.97682E+03 -1.34842E+03  1.65790E+03  5.24593E+03
 -5.68931E+03  1.21369E+03 -4.06708E+03 -4.88469E+03  3.93325E+02 -1.03403E+04  8.00482E+03 -1.03921E+04
  1.23980E+04 -4.83634E+03  1.22854E+04  2.74182E+03  1.08011E+04  9.91049E+03  5.37182E+03  1.45009E+04
 -1.68942E+03  1.64553E+04 -1.00925E+04  1.02458E+04 -1.14501E+04  2.78404E+03 -8.59867E+03 -2.13090E+03
 -4.37108E+03 -3.47634E+03 -7.01170E+02  1.77354E+03 -1.96364E+03  1.68958E+03 -3.72920E+03  3.46960E+03
 -7.94786E+03 -4.90205E+02 -8.95277E+03 -7.35365E+03 -3.68789E+03 -1.15369E+04  3.52230E+03 -8.75120E+03
  7.30531E+03 -3.85692E+03  5.43538E+03  2.30681E+03  8.54779E+02  3.41282E+03 -3.58941E+03 -1.72199E+02
 -3.66229E+03 -5.42064E+03 -9.02316E+02 -7.52541E+03  3.95372E+03 -7.99885E+03  1.01295E+04 -3.84688E+03
  1.16163E+04  7.52978E+02  8.68075E+03  6.04383E+03  1.49635E+03  8.77462E+03 -5.43339E+03  8.54530E+03
 -6.88088E+03  2.37770E+03 -3.52257E+03 -1.08861E+03  1.41892E+03 -1.85040E+03  4.87614E+03 -1.09951E+03
  4.31688E+03  3.29275E+03  1.23122E+03  6.20241E+03 -4.69375E+03  6.23006E+03 -7.99748E+03  1.58902E+03
 -4.65232E+03 -3.92572E+03  3.80356E+02 -6.89111E+03  3.57739E+03 -3.20281E+03  3.40891E+03  8.67451E+02
  3.74449E+02  3.35563E+03 -4.20847E+03  4.83936E+03 -4.99880E+03  2.33317E+03 -4.40816E+03 -1.25578E+03
 -2.73625E+03 -6.09795E+03  9.89810E+02 -6.77662E+03  5.99635E+03 -4.64216E+03  6.33129E+03  6.94242E+02
  4.64881E+03  5.54526E+03 -1.37399E+01  7.24231E+03 -5.36368E+03  4.22444E+03 -5.44060E+03 -3.44903E+02
 -5.41010E+03 -5.25852E+03 -1.22166E+03 -4.97928E+03  2.58839E+03 -4.58995E+03  2.91380E+03 -2.68221E+03
  2.98286E+03  1.16556E+02  6.34875E+01  1.19142E+03  6.14941E+02 -1.42236E+02  7.25124E+01 -1.62807E+03
  3.85784E+03 -6.27099E+02  5.16360E+03  4.73979E+02  5.76008E+03  3.16421E+03  5.05999E+03  7.09727E+03
 -1.18105E+03  8.39446E+03 -7.87725E+03  6.39422E+03 -9.78816E+03  1.15892E+03 -7.78130E+03 -2.37252E+03
 -4.24852E+03 -6.27957E+03 -4.66944E+02 -5.03868E+03  1.89874E+03 -2.12091E+03  1.84589E+03 -1.88083E+03
  1.16869E+03 -1.56852E+03  2.35118E+03 -2.26936E+03  3.57277E+03 -1.30065E+03  3.44198E+03  4.70324E+02
  4.16447E+03  1.20128E+03  9.82392E+02  3.33216E+03 -1.42953E+03  2.83293E+03 -4.35842E+03  2.33323E+03
 -5.07696E+03 -1.01090E+03 -1.67455E+03 -3.30674E+03  4.47642E+02 -4.71790E+03  3.01944E+03 -5.24797E+03
  4.90179E+03 -3.23177E+03  6.56113E+03  1.41682E+02  4.68160E+03  4.18605E+03  1.31054E+03  5.75019E+03
 -2.02347E+03  5.71814E+03 -3.37834E+03  1.80501E+03 -1.72907E+03 -9.85913E+02 -4.95894E+02 -5.76778E+02
 -4.82723E+02  4.47138E+02 -7.54763E+02  1.97648E+03 -2.52266E+03  1.30469E+03 -3.86763E+03 -3.00325E+02
 -1.43355E+03 -4.07599E+03  7.74037E+02 -4.54639E+03  2.66129E+03 -4.05039E+03  3.46263E+03 -1.00174E+03
  4.01749E+03  2.45847E+03  1.33953E+03  3.11496E+03 -8.11292E+02  3.97150E+03 -2.51547E+03  2.73756E+03
 -3.27707E+03  6.24480E+02 -3.66624E+03 -2.33103E+03 -8.97761E+01 -3.08182E+03  1.56670E+03 -2.26569E+03
  2.47537E+03 -1.33391E+03  1.55973E+03  1.17239E+02  3.14202E+02  1.60564E+03  9.20693E+02  4.00888E+02
  1.58398E+03  5.11904E+02  1.09075E+03  1.13722E+03  1.02574E+03  2.19992E+03  1.31254E+03  1.33840E+03
 -1.36980E+03  2.75845E+03 -2.39246E+03  3.92299E+03 -2.73925E+03  1.06207E+03 -3.74662E+03 -1.20026E+02
 -1.33935E+03 -3.22858E+03  7.08309E+02 -4.38785E+03  1.81269E+03 -2.41277E+03  2.92798E+03 -9.17207E+02
  2.14343E+03  1.56042E+03  2.68568E+02  2.01946E+03 -6.08730E+02  1.32706E+03 -1.03632E+03  2.02344E+02
 -6.47896E+02 -1.31807E+03  1.14072E+03 -1.54506E+03  9.94494E+02 -7.66377E+02  1.06584E+03  1.90747E+02
  6.42134E+02  4.25759E+02  6.15632E+02 -3.64823E+02 -1.69783E+02  4.79290E+02  1.56334E+03 -3.28008E+02
 -2.73082E+02 -3.14064E+01  1.75280E+03  2.88160E+02  3.41737E+02  2.26928E+03 -2.08518E+02  2.57902E+03
 -1.33524E+03  7.65385E+02 -2.15266E+03  4.92900E+02 -1.89578E+03 -8.20784E+02  6.34398E+01 -8.65898E+02
  4.60077E+02 -1.08053E+03  8.80834E+02 -5.83068E+02  4.44480E+02  1.12304E+03 -6.49725E+02  1.00913E+03
 -1.38152E+03  8.05407E+02 -1.19115E+03 -1.02986E+03 -7.34196E+02 -2.07148E+03  1.55483E+02 -1.50627E+03
  4.53060E+02 -5.21091E+02  4.52739E+02  1.78223E+02  1.09260E+03 -1.76842E+02  5.74665E+02  9.99672E+02
 -1.42932E+02 -5.78766E+01 -9.79353E+02 -2.70818E+02  6.18224E+02 -5.42628E+02  1.33096E+03 -7.63688E+02
  1.08834E+03  1.29751E+01  2.58678E+03  6.24561E+02  1.14222E+03  1.28463E+03 -1.99946E+02  1.65717E+03
 -1.37657E+03 -8.29761E+01 -1.17242E+03 -4.50427E+01 -8.35183E+02 -9.09762E+02  5.99595E+02 -1.47446E+02
  1.16727E+03 -5.18607E+02  4.52694E+02  6.93956E+02  3.23302E+02  1.24984E+03 -1.20578E+01  1.09554E+03
 -1.34584E+02  9.40745E+02 -5.34650E+02  2.04646E+02  1.90988E+02  1.43715E+02 -5.89319E+02  3.95897E+02
 -4.54079E+02  9.68704E+02 -1.49525E+03  4.27173E+02 -1.22252E+03 -1.73227E+02 -1.97925E+03 -8.35248E+02
 -1.08678E+03 -1.86202E+03  4.61008E+02 -2.01747E+03  9.09169E+02 -2.29332E+03  2.37636E+03 -7.49619E+02
  1.88435E+03 -1.46258E+02  9.26157E+02  1.51869E+03 -6.06282E+02  1.06948E+03 -5.90564E+02  1.05119E+03
 -9.80573E+02  7.68357E+02 -4.18083E+02 -1.61991E+02 -7.02407E+02  2.01759E+02 -6.77225E+02 -3.08433E+02
 -1.31231E+03 -2.57667E+02 -9.22512E+02  1.18501E+01  6.26080E+01 -3.81238E+02 -3.62598E+02 -6.25903E+02
  1.03255E+03 -3.79544E+02  2.57486E+02  2.06023E+02  9.81739E+02  7.68334E+02 -5.77317E+02  1.18929E+03
 -8.00428E+02  1.96928E+03 -1.22160E+03  9.82672E+02 -1.52122E+03 -1.51054E+02 -8.02107E+02 -1.00326E+03
 -8.10287E+02 -8.66064E+02  1.62827E+02 -1.11706E+03  6.17474E+02 -5.24986E+02  4.84215E+02  2.35550E+02
  5.99766E+02  4.57951E+02  5.62882E+01  7.66503E+01 -2.79760E+02  6.63566E+01 -9.95791E+01  1.30698E+02
  4.58406E+02  2.46131E+02  1.97146E+02  4.84046E+02 -6.20978E+00  5.40947E+02  4.10681E+02  1.05145E+02
 -4.78822E+02  6.51823E+02 -3.86051E+02  1.63088E+02 -8.87814E+02 -4.20536E+02  1.00113E+02 -9.26134E+02
  4.13775E+02 -5.19468E+02  2.44378E+02  2.01895E+02  4.82318E+02 -3.37806E+02  3.10594E+02  1.09487E+03
  5.18183E+02  2.54283E+02 -8.85220E+01  2.96072E+02 -5.40082E+02  5.22885E+02 -1.85478E+02  2.27592E+02
 -2.31819E+02  2.75868E+02 -2.55543E+02 -6.03008E+00 -7.10507E+02 -1.43693E+02 -4.58444E+02 -1.03308E+02
 -1.10098E+03  2.39649E+02 -3.24469E+02 -4.28184E+02  7.10515E+02 -1.38298E+03  6.06925E+02 -2.42683E+02
  4.12272E+02  2.03167E+02 -5.99288E+02 -3.48869E+02 -2.08897E+02  6.10391E+02 -2.22418E+02  6.35779E+02
