 $NMID ID='MM_0lb_SNR800_11hz_g55_37.RAW', FMTDAT='(8E13.5)'
 TRAMP=1., VOLUME=1. $END
  3.09946E+05  2.14324E+02  3.37917E+05  2.50643E+05  8.47157E+04  3.38068E+05 -1.32567E+05  2.51703E+05
 -1.90734E+05  8.35003E+04 -1.12244E+05 -3.25787E+04  7.62730E+02 -5.06963E+04  5.36033E+04 -6.35173E+02
  3.57139E+04  5.27586E+04 -1.63871E+04  7.58007E+04 -6.12702E+04  6.40671E+04 -8.52006E+04  3.20958E+04
 -8.18194E+04 -1.15663E+04 -5.79143E+04 -5.20773E+04 -1.54393E+04 -7.08541E+04  2.80188E+04 -4.63546E+04
  4.07619E+04  3.94261E+03  1.64488E+04  4.83352E+04 -3.46989E+04  4.81686E+04 -6.75115E+04  1.98124E+02
 -5.47188E+04 -5.76326E+04 -7.41616E+03 -7.83199E+04  3.44412E+04 -5.63715E+04  4.94352E+04 -1.74144E+04
  4.48251E+04  1.12743E+04  3.28132E+04  2.62780E+04  1.62017E+04  3.03827E+04 -5.50309E+03  2.74978E+04
 -2.27082E+04  1.21529E+04 -1.79693E+04 -5.87705E+03  6.75180E+03 -7.43528E+03  2.30724E+04  1.31877E+04
  6.90181E+03  3.69600E+04 -3.36231E+04  3.66917E+04 -6.50415E+04  2.12501E+03 -5.82053E+04 -4.39856E+04
 -1.25191E+04 -6.47016E+04  4.09506E+04 -4.69110E+04  6.05646E+04 -2.45994E+03  3.62291E+04  3.39484E+04
 -5.39713E+03  3.86567E+04 -3.13611E+04  1.81262E+04 -3.21075E+04 -3.56891E+03 -1.84574E+04 -1.17144E+04
 -9.56335E+03 -1.44674E+04 -5.59829E+02 -1.92535E+04  7.58847E+03 -2.31893E+04  1.57161E+04 -1.31396E+04
  1.09043E+04  5.91127E+03 -9.80484E+03  1.31325E+04 -2.26264E+04 -6.04808E+03 -8.34208E+03 -3.67900E+04
  2.44756E+04 -4.60504E+04  5.10648E+04 -2.06429E+04  4.72243E+04  2.05277E+04  1.70092E+04  4.60922E+04
 -1.66443E+04  3.50490E+04 -2.68054E+04  2.31653E+03 -1.10015E+04 -2.91634E+04  2.09442E+04 -3.57430E+04
  4.40031E+04 -1.07578E+04  3.93984E+04  2.48181E+04  2.08854E+04  4.96337E+04 -8.15189E+03  5.41198E+04
 -3.43516E+04  3.72927E+04 -4.59283E+04  1.08063E+04 -4.63946E+04 -1.77076E+04 -2.54641E+04 -4.09382E+04
  7.85865E+03 -4.13522E+04  3.33195E+04 -1.62309E+04  3.10493E+04  1.10870E+04  4.84706E+03  2.04231E+04
 -1.39472E+04  9.42772E+03 -1.10377E+04 -7.25687E+03  5.72441E+03 -1.10681E+04  1.90637E+04  5.53636E+03
  1.42226E+04  2.26361E+04 -5.40985E+03  2.64331E+04 -2.36605E+04  1.38794E+04 -3.09476E+04 -3.56522E+03
 -2.39827E+04 -1.83175E+04 -1.07033E+04 -2.38161E+04  4.15198E+03 -2.37711E+04  1.82768E+04 -2.16665E+04
  3.04377E+04 -1.39075E+04  3.65065E+04  4.67908E+03  2.61338E+04  2.33217E+04  4.64756E+03  3.99935E+04
 -1.90649E+04  3.28396E+04 -2.97606E+04  1.12403E+04 -2.18124E+04 -1.06481E+04 -4.53952E+03 -1.30484E+04
  9.09951E+02 -1.60069E+03 -7.13444E+03  7.71627E+03 -1.95197E+04  5.04709E+03 -1.94071E+04 -8.73242E+03
 -1.13202E+04 -2.19609E+04  5.59834E+03 -2.62383E+04  1.77037E+04 -1.90822E+04  2.11769E+04 -1.74680E+03
  1.34792E+04  1.53361E+04 -1.12313E+03  2.22426E+04 -1.54463E+04  1.27002E+04 -2.21981E+04 -4.66004E+03
 -1.62214E+04 -1.97154E+04 -2.24992E+03 -2.64845E+04  1.18554E+04 -2.18951E+04  2.17551E+04 -1.11145E+04
  2.08666E+04 -2.62088E+02  1.51460E+04  4.85610E+03  8.29535E+03  1.30584E+03  1.13875E+04 -1.98920E+03
  2.09094E+04  2.77740E+03  2.36830E+04  1.77091E+04  1.56350E+04  3.52322E+04 -2.66849E+03  4.10026E+04
 -2.38079E+04  3.39612E+04 -3.84876E+04  1.76473E+04 -4.12214E+04 -3.10134E+03 -3.39990E+04 -2.39958E+04
 -1.37267E+04 -3.43609E+04  1.20063E+04 -3.03887E+04  2.57888E+04 -1.46393E+04  2.24525E+04  7.02678E+03
  7.95209E+03  1.74082E+04 -1.10082E+04  1.44827E+04 -1.91570E+04  2.46393E+03 -1.42700E+04 -1.17835E+04
 -4.03350E+02 -1.79296E+04  9.82177E+03 -1.32811E+04  1.26765E+04 -1.27625E+03  3.19036E+03  8.10286E+03
 -8.21719E+03  3.44673E+03 -7.85415E+03 -6.61326E+03 -1.18259E+03 -1.68764E+04  1.11135E+04 -1.77791E+04
  2.09712E+04 -1.04928E+04  2.36112E+04  3.10397E+03  2.06356E+04  1.69736E+04  9.38173E+03  2.61407E+04
 -4.97929E+03  2.80901E+04 -1.83701E+04  1.74572E+04 -2.04951E+04  3.50214E+03 -1.43709E+04 -4.93278E+03
 -5.94715E+03 -6.45194E+03 -8.11899E+02  2.16995E+02 -2.65747E+03  3.10500E+03 -6.78369E+03  5.10117E+03
 -1.31920E+04 -9.61505E+02 -1.35059E+04 -1.09089E+04 -5.60632E+03 -1.81937E+04  6.13240E+03 -1.40816E+04
  1.17071E+04 -5.62946E+03  8.50890E+03  4.39136E+03 -3.82150E+02  5.33319E+03 -6.95677E+03 -4.24947E+02
 -7.14994E+03 -9.34622E+03 -1.30570E+03 -1.38180E+04  7.82830E+03 -1.45541E+04  1.78340E+04 -7.81546E+03
  2.12598E+04  2.17843E+03  1.53835E+04  1.31773E+04  3.09087E+03  1.68910E+04 -8.85237E+03  1.40335E+04
 -1.12973E+04  3.66570E+03 -6.27962E+03 -3.11034E+03  2.02395E+03 -3.70441E+03  7.96099E+03 -1.02561E+03
  6.87326E+03  6.49374E+03  1.23287E+03  1.17745E+04 -8.24750E+03  1.05639E+04 -1.37044E+04  2.79299E+03
 -9.72835E+03 -6.93441E+03  1.77549E+02 -1.17328E+04  7.71645E+03 -6.14349E+03  8.29609E+03  2.94434E+03
  1.82345E+03  8.67334E+03 -7.43239E+03  1.05148E+04 -1.20329E+04  4.29899E+03 -1.21485E+04 -4.49357E+03
 -6.67553E+03 -1.34499E+04  3.06736E+03 -1.58938E+04  1.30783E+04 -9.54331E+03  1.48032E+04  2.50296E+03
  8.71188E+03  1.16077E+04 -1.03756E+03  1.40293E+04 -1.00673E+04  7.89940E+03 -1.09888E+04 -9.39049E+02
 -9.60308E+03 -9.69010E+03 -1.73022E+03 -1.04877E+04  5.80258E+03 -8.40755E+03  6.40362E+03 -3.08502E+03
  4.68859E+03  1.47621E+03 -6.11638E+02  1.73095E+03 -8.38495E+02 -2.70660E+03  2.14633E+03 -6.43168E+03
  9.69494E+03 -4.33003E+03  1.40179E+04  1.78258E+03  1.32985E+04  9.31582E+03  9.23906E+03  1.75668E+04
 -4.04224E+03  2.04213E+04 -1.71633E+04  1.53151E+04 -2.19457E+04  2.90548E+03 -1.81608E+04 -7.66720E+03
 -8.97092E+03 -1.45693E+04 -4.23094E+02 -1.25534E+04  4.64645E+03 -6.64835E+03  4.49298E+03 -4.51683E+03
  3.34832E+03 -2.85599E+03  3.54713E+03 -3.69052E+03  5.53227E+03 -3.33919E+03  7.41129E+03 -1.09593E+03
  9.37078E+03  2.02615E+03  4.83729E+03  8.21166E+03 -1.99567E+03  9.41800E+03 -9.85689E+03  7.30940E+03
 -1.25995E+04 -8.79438E+02 -7.50624E+03 -8.84052E+03 -7.78255E+02 -1.33115E+04  7.62759E+03 -1.36038E+04
  1.39513E+04 -7.64225E+03  1.63707E+04  2.14109E+03  1.14547E+04  1.10917E+04  2.19516E+03  1.48287E+04
 -6.16465E+03  1.23812E+04 -8.63840E+03  4.53916E+03 -5.72821E+03 -1.39367E+03 -2.30040E+03 -1.71205E+03
 -1.16602E+03  1.05030E+01 -1.72523E+03  2.79774E+03 -5.09603E+03  2.14438E+03 -9.09261E+03 -1.35019E+03
 -5.90333E+03 -8.40475E+03  2.09756E+02 -1.19296E+04  7.61333E+03 -1.11227E+04  1.19858E+04 -3.35197E+03
  1.20950E+04  5.56480E+03  5.56731E+03  1.06730E+04 -2.42359E+03  1.25697E+04 -8.73257E+03  7.27553E+03
 -1.13738E+04  5.99742E+02 -8.72477E+03 -7.04078E+03 -6.18916E+02 -9.95551E+03  5.45420E+03 -7.41202E+03
  7.61815E+03 -2.74954E+03  5.20713E+03  1.93325E+03  1.94432E+03  3.54987E+03  9.75814E+02  1.82136E+03
  2.49923E+03  1.35245E+03  2.74503E+03  1.71214E+03  3.30992E+03  4.36777E+03  3.29412E+03  6.07591E+03
 -2.45106E+03  9.17769E+03 -8.33441E+03  9.82673E+03 -1.19782E+04  2.69306E+03 -1.26563E+04 -4.90618E+03
 -6.15822E+03 -1.20979E+04  1.82800E+03 -1.32823E+04  7.28979E+03 -8.45341E+03  9.60850E+03 -2.29280E+03
  7.70821E+03  4.47398E+03  1.99239E+03  6.92270E+03 -3.10584E+03  4.81569E+03 -4.67417E+03 -7.36407E+02
 -2.40569E+03 -5.01395E+03  3.07820E+03 -5.42032E+03  5.22661E+03 -2.56561E+03  4.80678E+03  1.25748E+03
  2.70640E+03  2.27129E+03  1.18493E+03  1.72216E+03 -8.29288E+02  1.64810E+03  1.67604E+03 -5.87688E+02
  1.75807E+03 -9.80089E+02  5.25714E+03  2.21801E+03  2.42633E+03  6.26756E+03 -8.80354E+02  8.68228E+03
 -5.61122E+03  5.40979E+03 -7.60894E+03  1.35211E+03 -6.80604E+03 -3.06607E+03 -2.17675E+03 -4.46914E+03
  7.62005E+02 -4.47960E+03  3.04198E+03 -2.61256E+03  2.80086E+03  2.30860E+03 -1.27784E+03  3.84503E+03
 -5.14396E+03  1.97873E+03 -5.37176E+03 -3.00031E+03 -2.89827E+03 -6.40465E+03  1.03326E+03 -6.55799E+03
  4.11313E+03 -3.48695E+03  4.30926E+03  2.90229E+00  4.19751E+03  1.56622E+03  3.12587E+02  3.65110E+03
 -2.37199E+03  8.35481E+02 -3.01136E+03 -2.51314E+03  1.28598E+03 -4.96473E+03  5.83951E+03 -4.03089E+03
  7.21636E+03  5.49666E+02  7.31841E+03  4.68004E+03  2.51467E+03  7.34751E+03 -3.02128E+03  7.02212E+03
 -6.51384E+03  3.42430E+03 -6.17967E+03 -5.86231E+02 -3.54891E+03 -4.96519E+03  1.09381E+03 -4.12499E+03
  5.10026E+03 -2.34929E+03  3.66268E+03  1.99678E+03  1.07867E+03  3.94285E+03 -3.76727E+02  3.58444E+03
 -2.02870E+03  2.38742E+03 -1.61990E+03  8.63229E+02 -4.53554E+02  4.51205E+02 -1.46633E+03  1.53394E+03
 -2.23326E+03  2.87363E+03 -5.28098E+03  2.68867E+03 -7.48540E+03  6.42771E+01 -8.13637E+03 -4.80631E+03
 -4.25615E+03 -9.75032E+03  1.94534E+03 -1.14376E+04  7.10474E+03 -8.70665E+03  1.09436E+04 -3.49524E+03
  9.99038E+03  2.20213E+03  5.88817E+03  6.92417E+03  5.53238E+02  7.49243E+03 -3.59827E+03  5.47277E+03
 -4.16279E+03  2.18908E+03 -2.71089E+03 -6.50865E+02 -1.02004E+03 -5.34008E+02 -5.31831E+02 -1.22022E+02
 -1.66680E+03 -1.48004E+02 -1.78035E+03 -3.18290E+02 -4.24171E+02 -1.75633E+03  1.88324E+01 -2.89673E+03
  3.57149E+03 -2.07818E+03  4.32041E+03  7.26059E+01  5.24117E+03  4.28632E+03  1.02274E+03  7.36335E+03
 -3.90414E+03  8.50604E+03 -7.90486E+03  4.88876E+03 -9.33769E+03 -6.42956E+02 -6.58420E+03 -5.76632E+03
 -2.52637E+03 -7.50028E+03  1.89266E+03 -7.10010E+03  4.96927E+03 -3.66015E+03  4.80843E+03  5.64934E+02
  2.78726E+03  2.33533E+03 -3.54226E+02  2.29521E+03 -1.62621E+03 -8.73907E+01  6.27895E+01 -1.69793E+03
  2.16322E+03 -4.15374E+02  2.60934E+03  6.68990E+02  1.83980E+03  2.97164E+03  5.61261E+02  3.46224E+03
 -3.40680E+03  3.31626E+03 -4.76715E+03  2.08424E+02 -4.34828E+03 -3.63225E+03 -7.08863E+02 -6.37712E+03
  3.21097E+03 -5.08465E+03  5.61947E+03 -1.36043E+03  5.73190E+03  9.43419E+02  3.05398E+03  4.54851E+03
  9.61655E+02  4.68080E+03 -2.17330E+03  3.70758E+03 -2.87541E+03  2.39707E+03 -2.54810E+03  4.02517E+02
 -1.45898E+03 -1.75056E+02 -1.11513E+03  6.41018E+02 -2.69144E+03  7.79921E+02 -3.76800E+03 -6.05808E+02
 -3.87644E+03 -2.32043E+03 -1.24244E+03 -4.75504E+03  2.09100E+03 -5.45271E+03  4.41339E+03 -2.64570E+03
  4.61151E+03  7.49555E+02  2.32349E+03  2.87127E+03 -6.32667E+02  4.77379E+03 -3.32007E+03  3.17576E+03
