 $NMID ID='MM_0lb_SNR800_19hz_g55_88.RAW', FMTDAT='(8E13.5)'
 TRAMP=1., VOLUME=1. $END
  3.09770E+05  4.69437E+02  3.37187E+05  2.50238E+05  8.42480E+04  3.37776E+05 -1.32442E+05  2.50292E+05
 -1.89814E+05  8.28226E+04 -1.11155E+05 -3.28157E+04  1.23807E+03 -5.02917E+04  5.41290E+04 -7.63267E+01
  3.51427E+04  5.29424E+04 -1.69312E+04  7.49950E+04 -6.03235E+04  6.25700E+04 -8.32875E+04  3.16510E+04
 -8.01981E+04 -1.13578E+04 -5.66195E+04 -5.06622E+04 -1.49458E+04 -6.84689E+04  2.67634E+04 -4.52329E+04
  3.91960E+04  4.11102E+03  1.57283E+04  4.72873E+04 -3.43667E+04  4.64315E+04 -6.58947E+04 -4.30576E+02
 -5.23402E+04 -5.63025E+04 -6.43013E+03 -7.59065E+04  3.32254E+04 -5.38957E+04  4.66137E+04 -1.63595E+04
  4.23609E+04  1.15182E+04  3.08840E+04  2.46177E+04  1.59370E+04  2.87164E+04 -4.92848E+03  2.69634E+04
 -2.15377E+04  1.24258E+04 -1.91708E+04 -4.34753E+03  4.58967E+03 -7.51562E+03  2.17164E+04  1.14133E+04
  7.25974E+03  3.38722E+04 -3.12138E+04  3.43205E+04 -6.15629E+04  2.17018E+03 -5.56048E+04 -4.16673E+04
 -1.25905E+04 -6.10889E+04  3.85870E+04 -4.38509E+04  5.61144E+04 -1.66203E+03  3.27818E+04  3.14138E+04
 -6.28601E+03  3.37606E+04 -2.86122E+04  1.40191E+04 -2.81277E+04 -4.83862E+03 -1.49494E+04 -1.03139E+04
 -7.47225E+03 -1.19234E+04 -1.26684E+03 -1.66788E+04  6.81944E+03 -2.27122E+04  1.49450E+04 -1.37201E+04
  1.19297E+04  4.54285E+03 -6.85912E+03  1.31186E+04 -1.96541E+04 -2.98475E+03 -8.30612E+03 -3.12795E+04
  2.11084E+04 -4.10451E+04  4.55217E+04 -1.87227E+04  4.24051E+04  1.83468E+04  1.42848E+04  4.21707E+04
 -1.51560E+04  3.14563E+04 -2.39289E+04  1.19392E+03 -8.59409E+03 -2.67902E+04  2.06484E+04 -3.17606E+04
  3.88156E+04 -7.60276E+03  3.22745E+04  2.29251E+04  1.59261E+04  4.37074E+04 -7.84228E+03  4.61813E+04
 -2.89075E+04  3.06196E+04 -3.83135E+04  8.63722E+03 -3.91597E+04 -1.54564E+04 -2.16220E+04 -3.53172E+04
  7.02632E+03 -3.48227E+04  2.95448E+04 -1.30510E+04  2.72508E+04  1.08872E+04  3.05194E+03  1.81866E+04
 -1.32776E+04  7.64635E+03 -9.64253E+03 -7.78226E+03  6.13807E+03 -1.03829E+04  1.72441E+04  6.35472E+03
  1.25203E+04  2.16834E+04 -6.60340E+03  2.34110E+04 -2.17126E+04  9.57165E+03 -2.57164E+04 -6.12965E+03
 -1.74721E+04 -1.65157E+04 -6.24315E+03 -1.71618E+04  3.67002E+03 -1.53631E+04  1.30279E+04 -1.46282E+04
  2.22188E+04 -1.19257E+04  2.88471E+04  1.47190E+03  2.15777E+04  1.69669E+04  4.03981E+03  3.29133E+04
 -1.60734E+04  2.83569E+04 -2.59294E+04  9.49487E+03 -1.98734E+04 -1.05013E+04 -4.15977E+03 -1.38749E+04
  2.46215E+03 -3.99867E+03 -2.88934E+03  5.59719E+03 -1.34263E+04  5.21927E+03 -1.38202E+04 -5.34532E+03
 -8.76493E+03 -1.57203E+04  4.67887E+03 -1.98200E+04  1.28836E+04 -1.43634E+04  1.49749E+04 -1.25726E+03
  9.43357E+03  1.10500E+04 -1.03553E+03  1.63537E+04 -1.10103E+04  9.02132E+03 -1.59052E+04 -3.60169E+03
 -1.16981E+04 -1.44159E+04 -1.34939E+03 -1.94760E+04  8.86970E+03 -1.59202E+04  1.66733E+04 -7.31572E+03
  1.49759E+04  7.18019E+02  1.07311E+04  3.68509E+03  5.10631E+03  5.80260E+02  7.78284E+03 -1.63475E+03
  1.40202E+04  2.82962E+03  1.54800E+04  1.28477E+04  9.51745E+03  2.54264E+04 -3.11504E+03  2.71914E+04
 -1.59140E+04  2.08113E+04 -2.53821E+04  1.01623E+04 -2.58946E+04 -1.73968E+03 -2.20062E+04 -1.44981E+04
 -1.04836E+04 -2.10325E+04  7.06157E+03 -1.97783E+04  1.68481E+04 -1.08765E+04  1.59537E+04  3.75368E+03
  6.55552E+03  1.15095E+04 -7.34697E+03  1.05388E+04 -1.36586E+04  2.47336E+03 -1.04863E+04 -8.24444E+03
 -3.15449E+02 -1.28903E+04  6.44870E+03 -9.49944E+03  8.19367E+03 -1.21107E+03  1.43189E+03  4.88765E+03
 -5.69195E+03  1.23305E+03 -3.89321E+03 -4.49066E+03  6.79251E+02 -1.05462E+04  8.14044E+03 -1.06015E+04
  1.25980E+04 -4.83771E+03  1.24866E+04  2.94638E+03  1.07791E+04  9.54506E+03  5.04096E+03  1.47765E+04
 -1.76971E+03  1.62516E+04 -9.97983E+03  1.03271E+04 -1.16231E+04  2.89431E+03 -8.73150E+03 -2.25141E+03
 -4.49957E+03 -3.23594E+03 -8.30106E+02  1.25188E+03 -1.93862E+03  2.12715E+03 -3.87999E+03  3.62978E+03
 -7.98566E+03 -6.86976E+02 -8.84521E+03 -7.01579E+03 -3.46788E+03 -1.19617E+04  3.29275E+03 -8.41014E+03
  7.01029E+03 -3.61219E+03  5.32074E+03  2.16309E+03  5.19537E+02  3.14509E+03 -3.29582E+03 -3.43767E+01
 -3.76439E+03 -5.20910E+03 -4.72272E+02 -7.45925E+03  4.11846E+03 -8.30601E+03  9.98867E+03 -3.99365E+03
  1.16229E+04  5.10449E+02  8.95077E+03  6.21196E+03  1.83782E+03  8.78947E+03 -5.23263E+03  8.42827E+03
 -6.93688E+03  2.77374E+03 -3.55533E+03 -1.42797E+03  1.51768E+03 -1.98674E+03  4.79052E+03 -7.52536E+02
  4.11440E+03  3.64524E+03  1.41138E+03  6.22230E+03 -4.68897E+03  6.38905E+03 -8.32818E+03  1.72270E+03
 -4.99577E+03 -3.92350E+03  3.33388E+02 -6.97269E+03  4.03100E+03 -2.81949E+03  3.37628E+03  1.11722E+03
  3.91947E+02  3.14899E+03 -4.05730E+03  4.78601E+03 -4.70832E+03  2.29552E+03 -4.60211E+03 -1.06177E+03
 -2.94196E+03 -6.01766E+03  1.33875E+03 -7.10067E+03  6.10763E+03 -4.54534E+03  6.70322E+03  1.00886E+03
  4.87850E+03  5.25524E+03 -1.59201E+02  7.42601E+03 -5.19428E+03  4.09287E+03 -5.24819E+03 -1.36982E+02
 -5.82090E+03 -5.17355E+03 -1.33639E+03 -4.91756E+03  2.76968E+03 -4.63162E+03  3.13656E+03 -2.49924E+03
  3.05375E+03  3.43244E+02 -2.26171E+01  1.10416E+03  5.07970E+02 -2.77693E+02  7.54990E+01 -1.63164E+03
  3.79264E+03 -4.81914E+02  5.27386E+03  5.30865E+02  5.58069E+03  2.85130E+03  5.34149E+03  7.21988E+03
 -1.27220E+03  8.46945E+03 -7.55281E+03  6.47266E+03 -9.84699E+03  1.77439E+03 -7.56989E+03 -2.54144E+03
 -4.24110E+03 -6.40901E+03 -4.23605E+02 -5.17697E+03  2.00348E+03 -1.93474E+03  1.54533E+03 -2.07694E+03
  1.27172E+03 -1.35768E+03  2.23266E+03 -2.25715E+03  3.49158E+03 -1.29109E+03  3.72568E+03  3.17672E+02
  4.65431E+03  1.19933E+03  1.11104E+03  3.60811E+03 -1.68186E+03  2.79270E+03 -4.26520E+03  2.43825E+03
 -4.85435E+03 -9.87364E+02 -1.46628E+03 -3.43364E+03  3.72261E+02 -4.64700E+03  3.14560E+03 -5.15158E+03
  5.11392E+03 -3.27019E+03  6.72640E+03 -3.60120E+01  4.64164E+03  4.38677E+03  1.08313E+03  5.89856E+03
 -1.96871E+03  5.70873E+03 -3.16412E+03  1.90067E+03 -1.68536E+03 -9.83667E+02 -4.67392E+02 -4.39649E+02
 -5.53679E+02  3.92172E+02 -7.54202E+02  1.68548E+03 -2.47080E+03  1.02650E+03 -3.74834E+03 -4.54273E+02
 -1.36256E+03 -4.09316E+03  9.15906E+02 -4.51231E+03  2.42351E+03 -4.44616E+03  3.38628E+03 -1.41867E+03
  4.15970E+03  2.36706E+03  1.66936E+03  3.17476E+03 -8.66574E+02  4.33589E+03 -2.64992E+03  2.17614E+03
 -3.65119E+03  6.07915E+02 -3.27147E+03 -2.24378E+03 -2.68022E+01 -2.83945E+03  1.22011E+03 -2.41198E+03
  2.76338E+03 -1.48963E+03  1.65125E+03  5.12216E+02  3.80266E+02  1.39447E+03  9.72281E+02  6.70877E+02
  1.85087E+03  3.02677E+02  1.29144E+03  9.15129E+02  7.42796E+02  2.13307E+03  1.51242E+03  1.70154E+03
 -1.26114E+03  2.67886E+03 -2.05949E+03  3.72966E+03 -2.79552E+03  1.18316E+03 -3.55338E+03 -3.45417E+02
 -1.53480E+03 -3.58875E+03  6.19813E+02 -4.32294E+03  1.74777E+03 -2.37842E+03  3.00845E+03 -7.15975E+02
  2.51560E+03  1.66890E+03  4.51182E+02  2.25470E+03 -5.73730E+02  1.30195E+03 -8.45420E+02 -1.06036E+02
 -2.89534E+02 -1.45239E+03  1.31679E+03 -1.40931E+03  1.12920E+03 -7.45136E+02  1.20954E+03  4.13929E+02
  6.94020E+02  1.84333E+02  8.86365E+02 -3.26828E+02 -5.40044E+02  8.29029E+02  1.22223E+03 -1.66804E+02
 -2.07125E+02 -4.57039E+02  1.75474E+03  8.22032E+02  3.54259E+02  1.97800E+03 -3.67354E+01  2.74116E+03
 -1.44738E+03  1.12079E+03 -1.88327E+03  1.69827E+02 -1.88941E+03 -6.11977E+02 -1.34132E+02 -5.86480E+02
  5.96641E+02 -1.18301E+03  6.22055E+02 -5.64925E+02  5.05326E+02  1.16112E+03 -7.11947E+02  1.09348E+03
 -1.13920E+03  5.48709E+02 -1.04316E+03 -1.50960E+03 -6.99061E+02 -2.15932E+03 -7.02252E+01 -1.28310E+03
  2.55399E+02 -5.06495E+02  5.65312E+02  1.92351E+00  1.41307E+03 -1.04484E+02  1.90006E+02  8.36629E+02
 -4.18148E+02 -9.23238E+01 -8.52547E+02 -2.40775E+02  5.55735E+02 -6.27611E+02  1.64407E+03 -8.39296E+02
  1.12487E+03 -9.48157E+01  2.59010E+03  7.77787E+02  1.07009E+03  1.27257E+03 -1.28466E+02  1.48664E+03
 -1.22324E+03  3.49044E+01 -1.13380E+03 -2.42006E+01 -6.40487E+02 -1.08454E+03  4.78581E+02 -2.60271E+02
  1.19610E+03 -6.05531E+02  2.14988E+02  5.40231E+02  9.78369E+01  1.12518E+03  3.37574E+02  1.02256E+03
 -1.99030E+02  1.45065E+03 -5.96263E+02  3.10306E+01  3.31175E+02  3.04752E+02 -4.02825E+02  5.73933E+02
 -6.80805E+02  8.38130E+02 -1.53052E+03  5.70828E+02 -1.32272E+03  3.01301E+02 -2.28729E+03 -9.05053E+02
 -1.00007E+03 -2.10360E+03  3.46932E+02 -2.27098E+03  8.79157E+02 -2.33306E+03  2.45542E+03 -7.20932E+02
  2.19565E+03 -1.78516E+02  1.06583E+03  1.50070E+03 -7.19343E+02  1.18824E+03 -6.85376E+02  1.37731E+03
 -9.05655E+02  4.68185E+02 -4.49114E+02 -2.96829E+02 -5.17746E+02  2.48573E+02 -8.32724E+02 -3.37594E+01
 -1.32279E+03 -1.67415E+02 -7.27054E+02  1.75041E+02  3.96989E+02 -5.99220E+02 -3.62018E+02 -1.05976E+03
  1.26501E+03 -6.50104E+02  2.33562E+02  1.79381E+02  1.05073E+03  6.91710E+02 -3.99763E+02  1.28871E+03
 -7.48961E+02  1.80464E+03 -1.56812E+03  1.13146E+03 -1.36771E+03 -2.27925E+02 -7.47399E+02 -1.16389E+03
 -6.80138E+02 -9.29118E+02  8.45256E+01 -1.08703E+03  3.94479E+02 -6.66370E+02  5.33396E+02  6.44670E+01
  9.20018E+02  1.68324E+02  1.68167E+02  1.15338E+02 -3.10542E+02  5.65378E+01  4.59043E+01 -1.30019E+02
  4.98236E+02  2.38608E+02  3.75299E+02  4.17176E+02 -2.24892E+02  3.86577E+02  5.95252E+02  9.04442E+01
 -6.70252E+02  7.34728E+02 -4.50404E+02  4.19378E+02 -6.41208E+02 -3.40540E+02  1.45937E+02 -8.41785E+02
  4.73806E+02 -5.12398E+02  1.99227E+02  1.73542E+02  8.20448E+02 -8.87419E+02  7.61696E+02  7.94341E+02
  5.57640E+02  4.96289E+02 -6.56145E+01  4.25826E+02 -3.84170E+02  5.19333E+02 -4.48087E+02  9.80151E+01
  5.14818E+01 -2.05722E+02 -4.78763E+02  1.42518E+02 -4.11851E+02  9.57297E+01 -4.25384E+02 -9.61143E+01
 -1.26712E+03  3.29175E+02 -1.66514E+02 -4.43466E+02  5.05242E+02 -1.59847E+03  7.38124E+02 -8.67508E+01
  3.85846E+02 -1.60301E+02 -5.49592E+02  1.13369E+02  1.46860E+02  5.53263E+02 -1.60649E+02  6.20726E+02
