 $NMID ID='MM_0lb_SNR800_18hz_g45_28.RAW', FMTDAT='(8E13.5)'
 TRAMP=1., VOLUME=1. $END
  3.09761E+05  4.38739E+02  3.37342E+05  2.50426E+05  8.41253E+04  3.37394E+05 -1.32491E+05  2.50297E+05
 -1.89546E+05  8.25752E+04 -1.10991E+05 -3.28481E+04  1.61385E+03 -5.04144E+04  5.38171E+04  3.92886E+02
  3.51302E+04  5.26460E+04 -1.70550E+04  7.50397E+04 -6.04572E+04  6.26411E+04 -8.28778E+04  3.16535E+04
 -7.96322E+04 -1.09921E+04 -5.63085E+04 -5.04127E+04 -1.50782E+04 -6.84469E+04  2.67070E+04 -4.46552E+04
  3.93851E+04  4.13128E+03  1.54240E+04  4.74035E+04 -3.37403E+04  4.60552E+04 -6.51877E+04 -5.12587E+02
 -5.23335E+04 -5.58110E+04 -6.14595E+03 -7.54978E+04  3.34487E+04 -5.30858E+04  4.61494E+04 -1.63390E+04
  4.17446E+04  1.12650E+04  3.10535E+04  2.45445E+04  1.58153E+04  2.80879E+04 -4.71269E+03  2.68052E+04
 -2.14523E+04  1.28071E+04 -1.90871E+04 -4.66831E+03  4.34500E+03 -7.53374E+03  2.11587E+04  1.09545E+04
  7.43620E+03  3.33444E+04 -3.07020E+04  3.41012E+04 -6.11657E+04  1.86831E+03 -5.53038E+04 -4.13037E+04
 -1.24010E+04 -6.08255E+04  3.79576E+04 -4.33594E+04  5.56992E+04 -1.90451E+03  3.20737E+04  3.03332E+04
 -6.80284E+03  3.32106E+04 -2.85958E+04  1.34319E+04 -2.74594E+04 -5.26143E+03 -1.47092E+04 -1.01860E+04
 -7.26224E+03 -1.17456E+04 -9.74110E+02 -1.66092E+04  6.57779E+03 -2.25126E+04  1.49090E+04 -1.38239E+04
  1.22893E+04  4.25844E+03 -6.27341E+03  1.29921E+04 -1.93831E+04 -2.55515E+03 -8.10866E+03 -3.04894E+04
  2.13743E+04 -4.05632E+04  4.46140E+04 -1.85677E+04  4.19873E+04  1.80061E+04  1.42121E+04  4.19743E+04
 -1.52984E+04  3.12781E+04 -2.35760E+04  1.28891E+03 -8.46597E+03 -2.65164E+04  2.05324E+04 -3.15900E+04
  3.79610E+04 -7.34021E+03  3.15193E+04  2.28710E+04  1.56694E+04  4.27420E+04 -7.89580E+03  4.53846E+04
 -2.85622E+04  2.99710E+04 -3.76867E+04  8.35997E+03 -3.85053E+04 -1.49472E+04 -2.14090E+04 -3.44899E+04
  6.77754E+03 -3.44174E+04  2.92376E+04 -1.29052E+04  2.67264E+04  1.09768E+04  3.19929E+03  1.79454E+04
 -1.30565E+04  7.25412E+03 -9.67790E+03 -7.51758E+03  5.95006E+03 -9.93363E+03  1.74951E+04  6.37316E+03
  1.24352E+04  2.17141E+04 -6.62354E+03  2.33493E+04 -2.15576E+04  9.32572E+03 -2.52720E+04 -6.28435E+03
 -1.70605E+04 -1.65786E+04 -5.80673E+03 -1.70036E+04  4.01298E+03 -1.51608E+04  1.26259E+04 -1.46233E+04
  2.15783E+04 -1.15887E+04  2.84579E+04  1.33722E+03  2.12569E+04  1.63720E+04  3.90407E+03  3.26430E+04
 -1.61971E+04  2.75639E+04 -2.58591E+04  9.51905E+03 -1.98323E+04 -1.03157E+04 -3.85796E+03 -1.37812E+04
  2.51853E+03 -3.94216E+03 -2.91443E+03  5.18012E+03 -1.31327E+04  5.23112E+03 -1.36693E+04 -5.14245E+03
 -8.42018E+03 -1.57130E+04  4.54129E+03 -1.94374E+04  1.26784E+04 -1.41216E+04  1.48805E+04 -1.55253E+03
  9.19951E+03  1.08498E+04 -5.70446E+02  1.60227E+04 -1.05001E+04  8.82059E+03 -1.58577E+04 -3.40314E+03
 -1.17024E+04 -1.42945E+04 -1.45087E+03 -1.92758E+04  8.65718E+03 -1.52935E+04  1.62395E+04 -7.42386E+03
  1.48116E+04  8.33186E+02  1.03285E+04  3.66201E+03  5.22073E+03  2.38243E+02  7.82662E+03 -1.25313E+03
  1.40907E+04  2.59147E+03  1.50678E+04  1.26394E+04  8.96733E+03  2.49853E+04 -3.26896E+03  2.70042E+04
 -1.58506E+04  2.05778E+04 -2.46373E+04  1.00249E+04 -2.53071E+04 -1.93488E+03 -2.16761E+04 -1.47092E+04
 -1.03169E+04 -2.10338E+04  6.84000E+03 -1.95063E+04  1.69063E+04 -1.09330E+04  1.56508E+04  3.56536E+03
  6.66113E+03  1.14459E+04 -7.06769E+03  1.04755E+04 -1.33561E+04  2.32430E+03 -1.02326E+04 -8.14748E+03
  6.13144E+01 -1.25475E+04  6.57976E+03 -9.44665E+03  8.21211E+03 -1.23791E+03  1.44335E+03  5.10251E+03
 -5.86528E+03  9.77886E+02 -3.93472E+03 -4.54943E+03  6.16439E+02 -1.04371E+04  7.91871E+03 -1.03002E+04
  1.23644E+04 -4.96331E+03  1.22663E+04  2.83438E+03  1.06589E+04  9.76513E+03  5.25626E+03  1.46439E+04
 -1.63023E+03  1.60600E+04 -9.94476E+03  1.06937E+04 -1.15044E+04  2.91553E+03 -8.60867E+03 -2.06305E+03
 -4.59943E+03 -3.32207E+03 -7.92482E+02  1.64840E+03 -2.01703E+03  1.79072E+03 -3.78943E+03  3.78075E+03
 -8.56993E+03 -3.97222E+02 -8.84742E+03 -7.43117E+03 -3.44646E+03 -1.15938E+04  3.57096E+03 -8.91629E+03
  7.23030E+03 -4.09876E+03  5.22691E+03  1.96764E+03  5.18102E+02  3.04113E+03 -3.43400E+03 -3.27481E+01
 -3.49809E+03 -5.12183E+03 -8.23691E+02 -7.36603E+03  4.02093E+03 -8.14406E+03  1.00335E+04 -4.16724E+03
  1.19579E+04  6.22562E+02  8.83594E+03  6.29811E+03  1.88612E+03  8.55112E+03 -5.43082E+03  8.63014E+03
 -7.02115E+03  2.96255E+03 -3.66646E+03 -1.38412E+03  1.36102E+03 -1.87898E+03  4.98459E+03 -8.83918E+02
  4.32040E+03  3.29587E+03  8.09743E+02  6.28765E+03 -4.47844E+03  6.41348E+03 -8.22518E+03  1.65482E+03
 -4.95712E+03 -3.74184E+03  2.51765E+02 -6.50483E+03  3.82357E+03 -3.12105E+03  3.60148E+03  9.26458E+02
  7.07978E+02  3.57634E+03 -4.35829E+03  5.14764E+03 -4.89887E+03  2.53069E+03 -4.88408E+03 -1.30947E+03
 -3.10413E+03 -6.33259E+03  1.13886E+03 -7.37035E+03  5.90868E+03 -4.94304E+03  6.79889E+03  8.07871E+02
  4.73940E+03  5.48731E+03  2.64554E+02  7.46602E+03 -5.08310E+03  4.37571E+03 -5.15995E+03 -6.20873E+02
 -5.72970E+03 -5.15429E+03 -1.46409E+03 -5.17682E+03  2.49444E+03 -4.72347E+03  3.07216E+03 -2.86349E+03
  3.02990E+03  2.10599E+01  3.64721E+02  1.25797E+03  4.02391E+02 -1.13549E+02  3.50692E+02 -2.11395E+03
  3.91103E+03 -8.20849E+02  5.34587E+03  8.66455E+02  5.58958E+03  3.30300E+03  5.31858E+03  7.59344E+03
 -1.32921E+03  8.82763E+03 -8.08038E+03  6.68960E+03 -1.01406E+04  1.15641E+03 -7.93070E+03 -2.65109E+03
 -4.32980E+03 -6.73331E+03 -4.02043E+02 -5.22887E+03  1.98608E+03 -2.03107E+03  1.78379E+03 -2.37006E+03
  9.72475E+02 -1.43846E+03  2.19691E+03 -2.30676E+03  3.35434E+03 -1.20497E+03  3.61114E+03  4.56103E+02
  4.63093E+03  1.27074E+03  1.23671E+03  3.33051E+03 -1.54068E+03  3.10937E+03 -4.52213E+03  2.79981E+03
 -5.24477E+03 -1.06962E+03 -1.96509E+03 -3.41485E+03  5.73945E+02 -5.12254E+03  3.35533E+03 -5.60298E+03
  5.20727E+03 -3.37756E+03  6.85365E+03  4.37149E+01  5.24701E+03  4.62337E+03  8.63268E+02  6.20371E+03
 -2.32660E+03  6.02030E+03 -3.52310E+03  1.80514E+03 -2.15023E+03 -1.18877E+03 -3.88504E+02 -4.14625E+02
 -4.34074E+02  3.13603E+02 -9.64325E+02  1.68830E+03 -2.74642E+03  1.09067E+03 -4.45338E+03 -2.84210E+02
 -1.85668E+03 -4.18970E+03  6.06877E+02 -4.74999E+03  3.08820E+03 -4.69643E+03  3.90711E+03 -1.29804E+03
  4.29292E+03  2.52862E+03  1.65846E+03  3.76857E+03 -8.78038E+02  4.81271E+03 -2.83540E+03  2.72311E+03
 -3.85303E+03  4.44890E+02 -3.68444E+03 -2.69678E+03 -2.54738E+02 -3.31310E+03  1.67293E+03 -2.77822E+03
  2.84214E+03 -1.33152E+03  2.02822E+03  5.23587E+02  5.24248E+02  1.69572E+03  9.21574E+02  5.45407E+02
  1.85663E+03  4.57899E+02  1.33483E+03  8.63861E+02  7.73582E+02  2.32982E+03  1.72892E+03  1.88217E+03
 -1.28278E+03  2.88871E+03 -2.68386E+03  4.21262E+03 -3.12015E+03  1.31976E+03 -4.17152E+03 -3.54903E+02
 -1.94124E+03 -4.08796E+03  4.52103E+02 -5.15907E+03  1.89857E+03 -2.80518E+03  3.15207E+03 -1.09595E+03
  2.52712E+03  1.73495E+03  3.93064E+02  2.44926E+03 -6.07869E+02  1.42925E+03 -1.08834E+03 -3.03854E+02
 -8.64695E+02 -1.80769E+03  1.32728E+03 -1.76104E+03  1.30422E+03 -1.05228E+03  1.41566E+03  3.99439E+02
  7.61606E+02  2.83908E+02  6.81978E+02 -3.11636E+02 -4.24633E+02  4.90371E+02  1.46728E+03 -9.78276E+01
  5.39987E+01 -5.12544E+02  1.66042E+03  5.82256E+02  4.23382E+02  2.61404E+03 -2.55479E+02  3.06565E+03
 -1.79035E+03  1.14965E+03 -2.10966E+03  3.10104E+02 -2.19690E+03 -7.66166E+02 -3.45280E+02 -9.50689E+02
  3.97296E+02 -1.53205E+03  9.09950E+02 -8.20888E+02  9.20946E+02  1.25879E+03 -8.60103E+02  1.32001E+03
 -1.49266E+03  6.98394E+02 -1.14442E+03 -1.27946E+03 -1.02107E+03 -1.97517E+03  2.40848E+02 -1.72752E+03
  4.65141E+02 -7.86786E+02  6.27309E+02  1.14346E+02  1.48978E+03  1.94496E+02  2.07124E+02  1.17758E+03
 -7.08665E+02 -3.16256E+01 -9.39665E+02 -2.36736E+02  3.83018E+02 -1.15108E+03  1.78298E+03 -1.38664E+03
  1.47867E+03  4.44311E+02  2.77653E+03  7.69257E+02  1.43062E+03  1.59128E+03 -2.33314E+02  2.13734E+03
 -1.60380E+03  3.88609E+02 -1.74286E+03 -3.94062E+02 -6.80211E+02 -1.58981E+03  4.55488E+02 -8.13754E+02
  1.74334E+03 -5.76147E+02  9.23100E+02  7.14293E+02  2.15031E+02  1.26069E+03  2.49888E+02  1.56623E+03
 -5.44946E+02  1.49083E+03 -4.19259E+02  2.22945E+02 -1.90900E+02  3.73868E+02 -9.08594E+02  6.98921E+02
 -8.04620E+02  1.22029E+03 -1.81925E+03  4.57582E+02 -1.95853E+03  4.06559E+01 -2.41784E+03 -1.01639E+03
 -9.13158E+02 -2.76935E+03  4.89169E+02 -2.94785E+03  1.12823E+03 -2.51985E+03  3.09384E+03 -1.00560E+03
  2.44065E+03  5.99036E+01  1.48853E+03  1.52874E+03 -7.67798E+02  1.62748E+03 -8.02630E+02  1.32118E+03
 -9.30310E+02  7.85406E+02 -4.37710E+02  1.42658E+01 -6.60806E+02  3.52454E+02 -7.00188E+02 -1.58349E+02
 -1.01837E+03  3.36586E+00 -1.04879E+03  3.71927E+01  4.37804E+02 -8.96128E+02 -9.99783E+01 -8.63248E+02
  1.41389E+03 -5.40295E+02  7.52836E+02  1.74801E+02  1.49796E+03  1.11366E+03 -3.90072E+02  1.60130E+03
 -1.04479E+03  2.55418E+03 -1.51670E+03  1.47103E+03 -2.18503E+03 -3.28721E+02 -1.59818E+03 -1.50221E+03
 -7.53826E+02 -1.54179E+03  2.44878E+02 -1.47451E+03  7.07195E+02 -5.74419E+02  5.18367E+02  4.25038E+02
  7.25812E+02  3.54067E+02 -1.03866E+02  3.86645E+02 -3.98466E+02  1.89857E+02  7.09085E+01 -4.86799E+02
  7.61816E+02  8.64316E+01  4.60052E+02  3.46826E+02  1.72525E+02  2.00263E+02  6.19451E+02  2.07051E+02
 -6.79864E+02  5.53290E+02 -7.31945E+02  1.68353E+02 -8.63111E+02 -5.11231E+02 -2.05937E+02 -1.33600E+03
  4.40624E+02 -5.41822E+02  5.43723E+02 -1.20129E+02  9.47379E+02 -4.86993E+02  5.22315E+02  1.03151E+03
  3.68577E+02  7.27949E+02 -1.60906E+02  7.00806E+02 -4.89595E+02  4.54339E+02 -5.93055E+02  1.75699E+02
 -2.72345E+02  1.95013E+02 -8.33374E+02  1.73991E+02 -5.92135E+02  1.97817E+02 -8.60939E+02 -3.43523E+02
 -9.39235E+02  3.13122E+02 -3.13134E+02 -1.11799E+03  5.90966E+02 -1.67413E+03  9.21502E+02 -2.05054E+02
  5.61223E+02  1.53010E+00 -3.96556E+02  4.18177E+02 -1.93963E+02  7.45525E+02 -5.12478E+02  7.10716E+02
