 $NMID ID='MM_0lb_SNR800_15hz_g55_20.RAW', FMTDAT='(8E13.5)'
 TRAMP=1., VOLUME=1. $END
  3.10221E+05  3.57654E+02  3.37727E+05  2.50520E+05  8.46433E+04  3.38008E+05 -1.33016E+05  2.51047E+05
 -1.90277E+05  8.30237E+04 -1.11968E+05 -3.27433E+04  7.96953E+02 -5.03168E+04  5.38481E+04 -6.55023E+01
  3.53111E+04  5.27691E+04 -1.67141E+04  7.55878E+04 -6.07516E+04  6.36748E+04 -8.43220E+04  3.21215E+04
 -8.10987E+04 -1.11922E+04 -5.71294E+04 -5.10834E+04 -1.49784E+04 -6.96726E+04  2.73696E+04 -4.57288E+04
  3.99956E+04  3.78836E+03  1.64693E+04  4.77270E+04 -3.43154E+04  4.73188E+04 -6.65024E+04 -3.16657E+02
 -5.34567E+04 -5.70255E+04 -6.54473E+03 -7.67054E+04  3.42352E+04 -5.52949E+04  4.79812E+04 -1.73641E+04
  4.35387E+04  1.11635E+04  3.19463E+04  2.53241E+04  1.57376E+04  3.01053E+04 -5.44530E+03  2.73429E+04
 -2.19028E+04  1.23418E+04 -1.85294E+04 -5.01897E+03  5.85323E+03 -7.74797E+03  2.24388E+04  1.26251E+04
  7.01508E+03  3.54177E+04 -3.21348E+04  3.55540E+04 -6.35026E+04  1.95140E+03 -5.69831E+04 -4.27903E+04
 -1.25647E+04 -6.33430E+04  4.00604E+04 -4.56524E+04  5.79652E+04 -2.44171E+03  3.44031E+04  3.25312E+04
 -5.88430E+03  3.62722E+04 -2.99621E+04  1.58492E+04 -3.02010E+04 -4.54069E+03 -1.67442E+04 -1.10443E+04
 -8.64920E+03 -1.30413E+04 -9.79605E+02 -1.78406E+04  7.34791E+03 -2.30386E+04  1.56043E+04 -1.34470E+04
  1.12283E+04  5.38817E+03 -8.23082E+03  1.31213E+04 -2.15196E+04 -4.59863E+03 -8.26765E+03 -3.38860E+04
  2.27064E+04 -4.33732E+04  4.80596E+04 -1.98193E+04  4.50321E+04  1.93597E+04  1.57649E+04  4.41465E+04
 -1.61335E+04  3.33716E+04 -2.52191E+04  1.81813E+03 -9.52926E+03 -2.79949E+04  2.13175E+04 -3.38428E+04
  4.07998E+04 -9.22813E+03  3.55587E+04  2.38645E+04  1.80523E+04  4.65291E+04 -8.07481E+03  5.01238E+04
 -3.16096E+04  3.40074E+04 -4.17896E+04  9.68507E+03 -4.28353E+04 -1.69128E+04 -2.35310E+04 -3.77912E+04
  7.37718E+03 -3.77349E+04  3.14092E+04 -1.47327E+04  2.90880E+04  1.05924E+04  3.82038E+03  1.92141E+04
 -1.32439E+04  8.11576E+03 -1.00501E+04 -7.65169E+03  6.15034E+03 -1.07627E+04  1.78850E+04  6.09022E+03
  1.35762E+04  2.24006E+04 -5.80384E+03  2.47825E+04 -2.25041E+04  1.16628E+04 -2.80588E+04 -4.88440E+03
 -2.06853E+04 -1.74357E+04 -8.50153E+03 -2.03734E+04  3.93967E+03 -1.95572E+04  1.59893E+04 -1.79790E+04
  2.60545E+04 -1.27993E+04  3.28724E+04  2.45841E+03  2.37263E+04  1.99078E+04  4.25519E+03  3.62941E+04
 -1.76023E+04  3.03490E+04 -2.74579E+04  1.04584E+04 -2.07649E+04 -1.02808E+04 -4.39035E+03 -1.34768E+04
  1.96353E+03 -2.63719E+03 -4.76450E+03  6.35155E+03 -1.63266E+04  4.87725E+03 -1.61548E+04 -6.92062E+03
 -1.00959E+04 -1.87292E+04  5.08315E+03 -2.29893E+04  1.51888E+04 -1.65726E+04  1.76953E+04 -1.63890E+03
  1.13603E+04  1.30558E+04 -1.19504E+03  1.90632E+04 -1.29580E+04  1.10042E+04 -1.89135E+04 -4.39194E+03
 -1.41440E+04 -1.66760E+04 -1.80981E+03 -2.28493E+04  1.02384E+04 -1.83794E+04  1.90534E+04 -9.38524E+03
  1.79805E+04  5.07465E+01  1.26859E+04  4.76383E+03  6.72466E+03  5.05149E+02  9.49788E+03 -1.55985E+03
  1.75287E+04  2.82350E+03  1.88742E+04  1.51018E+04  1.25867E+04  2.99332E+04 -2.72889E+03  3.36651E+04
 -1.96409E+04  2.70447E+04 -3.13992E+04  1.32975E+04 -3.28029E+04 -2.45229E+03 -2.73540E+04 -1.87544E+04
 -1.17128E+04 -2.74359E+04  9.09109E+03 -2.47333E+04  2.13927E+04 -1.25672E+04  1.91326E+04  5.36913E+03
  7.34218E+03  1.40127E+04 -8.92290E+03  1.24553E+04 -1.58423E+04  2.50459E+03 -1.24565E+04 -9.85692E+03
 -1.97794E+02 -1.49046E+04  7.76332E+03 -1.13619E+04  1.02531E+04 -1.79502E+03  2.32317E+03  6.52252E+03
 -6.81112E+03  2.35272E+03 -6.03769E+03 -5.52430E+03 -2.64464E+02 -1.32293E+04  9.29038E+03 -1.36167E+04
  1.65992E+04 -7.45848E+03  1.73432E+04  2.80921E+03  1.51204E+04  1.30466E+04  7.07641E+03  1.99247E+04
 -3.40731E+03  2.16935E+04 -1.37250E+04  1.39003E+04 -1.54575E+04  3.66122E+03 -1.11174E+04 -3.41969E+03
 -5.47957E+03 -4.81152E+03 -6.55070E+02  1.12325E+03 -2.13925E+03  2.42922E+03 -4.94589E+03  4.34822E+03
 -1.04982E+04 -7.74016E+02 -1.10346E+04 -9.15536E+03 -4.29638E+03 -1.46187E+04  4.91088E+03 -1.12992E+04
  9.04571E+03 -4.70642E+03  6.61230E+03  3.10720E+03  2.18890E+02  4.45207E+03 -5.43992E+03 -9.03382E+01
 -5.02673E+03 -7.10115E+03 -1.01281E+03 -1.01302E+04  5.75749E+03 -1.11931E+04  1.36203E+04 -5.93753E+03
  1.60091E+04  1.16231E+03  1.20465E+04  9.40244E+03  2.20657E+03  1.23959E+04 -6.78478E+03  1.08782E+04
 -8.67349E+03  3.37323E+03 -4.51975E+03 -2.08545E+03  1.67077E+03 -2.63576E+03  5.90547E+03 -1.14976E+03
  5.47465E+03  4.61998E+03  1.23661E+03  8.41881E+03 -6.04000E+03  8.08397E+03 -1.05095E+04  1.96560E+03
 -6.72207E+03 -5.35326E+03  4.63899E+02 -9.03149E+03  5.25483E+03 -4.14123E+03  5.47258E+03  1.79873E+03
  1.08777E+03  5.57980E+03 -5.30451E+03  7.21870E+03 -8.11111E+03  3.28423E+03 -8.06044E+03 -2.53242E+03
 -5.18612E+03 -9.42543E+03  1.93178E+03 -1.06123E+04  9.55109E+03 -6.74488E+03  1.00018E+04  1.38737E+03
  6.37353E+03  8.00403E+03 -2.26339E+02  9.95239E+03 -7.16244E+03  5.74768E+03 -7.66634E+03 -4.35812E+02
 -7.43488E+03 -6.87149E+03 -1.35213E+03 -7.08768E+03  3.76883E+03 -6.23630E+03  4.74268E+03 -3.02114E+03
  3.78071E+03  8.04175E+02 -1.45457E+02  1.65378E+03 -2.35655E+02 -1.43474E+03  8.07988E+02 -3.51924E+03
  6.32604E+03 -2.25787E+03  8.82148E+03  1.12323E+03  9.01713E+03  5.48411E+03  6.97143E+03  1.13104E+04
 -2.32562E+03  1.34331E+04 -1.14087E+04  9.97058E+03 -1.50487E+04  1.99465E+03 -1.17068E+04 -4.33379E+03
 -6.07287E+03 -9.96902E+03 -3.04268E+02 -7.86230E+03  3.04463E+03 -3.96161E+03  2.73560E+03 -2.94532E+03
  2.20889E+03 -1.50589E+03  2.50601E+03 -2.71451E+03  4.12836E+03 -1.99620E+03  4.87439E+03  6.29304E+01
  6.48427E+03  1.56651E+03  2.42390E+03  5.03391E+03 -1.93896E+03  5.44020E+03 -6.77192E+03  4.30785E+03
 -7.97563E+03 -1.32056E+03 -4.08828E+03 -5.57167E+03 -3.35039E+01 -8.18142E+03  5.12438E+03 -8.65315E+03
  8.41483E+03 -5.17266E+03  1.05316E+04  1.03625E+03  7.40848E+03  6.87069E+03  1.29561E+03  9.40827E+03
 -3.72955E+03  8.46248E+03 -5.55954E+03  2.73007E+03 -3.23074E+03 -1.59940E+03 -1.23998E+03 -1.14281E+03
 -5.41536E+02  8.17440E+01 -1.23145E+03  2.14547E+03 -3.50603E+03  1.56686E+03 -5.71020E+03 -5.77992E+02
 -2.99748E+03 -5.78518E+03  5.27907E+02 -7.72851E+03  4.74956E+03 -6.87708E+03  6.70076E+03 -2.03386E+03
  7.23691E+03  3.68527E+03  3.45670E+03  5.98335E+03 -1.20784E+03  7.35797E+03 -4.78762E+03  4.72738E+03
 -6.76556E+03  5.57536E+02 -5.68817E+03 -4.46568E+03 -3.26983E+02 -5.68383E+03  3.02887E+03 -4.24645E+03
  4.77819E+03 -1.65240E+03  2.94371E+03  8.08537E+02  1.11442E+03  2.46866E+03  7.53363E+02  1.08885E+03
  1.83753E+03  8.69677E+02  1.68089E+03  1.54873E+03  2.08914E+03  2.81563E+03  2.03176E+03  3.27296E+03
 -1.70789E+03  5.20368E+03 -4.63186E+03  6.18295E+03 -6.35668E+03  1.83650E+03 -7.16887E+03 -2.10358E+03
 -3.56032E+03 -6.43957E+03  9.96050E+02 -7.81395E+03  3.98464E+03 -4.83947E+03  5.45785E+03 -1.24581E+03
  4.18956E+03  2.70297E+03  8.79336E+02  3.81662E+03 -1.69289E+03  2.67559E+03 -2.47100E+03 -4.53005E+02
 -8.61330E+02 -2.70188E+03  2.10520E+03 -3.00558E+03  2.60186E+03 -1.57321E+03  2.50073E+03  6.08649E+02
  1.39825E+03  5.28112E+02  1.09053E+03  5.15185E+02 -3.99441E+02  1.27485E+03  1.60079E+03 -5.68370E+02
  4.46878E+02 -4.77470E+02  2.68753E+03  8.24208E+02  1.21322E+03  3.90139E+03 -7.21546E+02  5.06651E+03
 -2.93814E+03  2.58125E+03 -3.96746E+03  7.12235E+02 -3.93485E+03 -1.18860E+03 -8.78867E+02 -2.25963E+03
  5.30043E+02 -2.29957E+03  1.50634E+03 -9.66358E+02  1.09557E+03  1.90780E+03 -1.09725E+03  2.13517E+03
 -2.51444E+03  1.02779E+03 -2.72387E+03 -1.78270E+03 -1.07647E+03 -4.09564E+03  3.53872E+02 -3.41382E+03
  1.67951E+03 -1.62651E+03  2.02974E+03  1.26509E+02  2.34035E+03  5.95604E+02  3.68781E+02  1.79676E+03
 -8.74393E+02  6.36275E+02 -1.70682E+03 -7.91881E+02  8.07703E+02 -2.35157E+03  2.99747E+03 -1.79865E+03
  3.07905E+03  6.00052E+02  4.08519E+03  2.10245E+03  1.36210E+03  3.56596E+03 -1.05948E+03  3.54504E+03
 -2.94759E+03  8.29503E+02 -3.11466E+03 -5.40856E+01 -1.74098E+03 -2.59831E+03  5.00124E+02 -1.78155E+03
  2.23199E+03 -1.05007E+03  1.86855E+03  1.18353E+03  6.97480E+02  2.21831E+03 -4.97629E+00  2.36616E+03
 -5.59892E+02  1.33051E+03 -8.07842E+02  5.06059E+02 -6.78388E+02  4.58946E+02 -7.31090E+02  9.57167E+02
 -1.07080E+03  1.42283E+03 -2.66401E+03  1.26634E+03 -3.37924E+03  2.22242E+01 -4.30867E+03 -2.41942E+03
 -2.08636E+03 -4.47840E+03  8.88646E+02 -5.54064E+03  3.05094E+03 -4.66190E+03  4.83989E+03 -2.19249E+03
  4.74373E+03  4.13481E+02  2.78998E+03  2.91021E+03 -3.79754E+02  3.52831E+03 -1.26522E+03  2.68785E+03
 -2.06655E+03  8.63411E+02 -1.13851E+03 -3.27874E+02 -3.83370E+02  3.75688E+00 -9.40457E+02 -1.47543E+02
 -1.36523E+03 -1.73288E+01 -1.10538E+03  3.21238E+01  8.32171E+01 -6.91499E+02 -2.17592E+02 -1.74191E+03
  1.80032E+03 -9.42396E+02  1.63835E+03  1.20573E+02  2.15821E+03  1.66192E+03 -1.17636E+01  3.35846E+03
 -1.67849E+03  4.23068E+03 -3.37651E+03  2.18779E+03 -4.17953E+03 -3.95728E+02 -2.81725E+03 -2.37651E+03
 -1.40076E+03 -3.02641E+03  5.53559E+02 -3.09915E+03  2.04564E+03 -1.27024E+03  1.93422E+03 -2.74846E+02
  1.24275E+03  1.10374E+03  2.96019E+00  9.52520E+02 -5.96870E+02 -4.64691E+02 -3.44626E+01 -5.50627E+02
  1.02386E+03  1.82443E+02  9.84410E+02  5.46588E+02  2.46507E+02  1.22487E+03  1.71224E+02  1.11277E+03
 -9.99917E+02  1.44425E+03 -1.47961E+03 -5.69050E+01 -1.94833E+03 -1.08854E+03 -2.69299E+02 -2.51291E+03
  1.10181E+03 -1.74641E+03  2.00705E+03 -4.35717E+02  2.23059E+03 -4.95818E+01  1.38356E+03  1.96440E+03
  6.05080E+02  1.65810E+03 -6.05157E+02  1.38020E+03 -1.68983E+03  1.12885E+03 -1.04164E+03  2.44244E+02
 -6.16145E+02 -1.63663E+01 -7.23905E+02  2.37187E+02 -1.27155E+03  3.25051E+02 -1.25549E+03 -3.25321E+02
 -1.63137E+03 -8.46558E+02 -6.29831E+02 -2.00441E+03  1.10709E+03 -2.54508E+03  1.72035E+03 -7.64006E+02
  1.71914E+03  5.95034E+02  2.39739E+02  9.89852E+02 -3.59293E+02  1.98915E+03 -1.26285E+03  1.30940E+03
