 $NMID ID='MM_0lb_SNR800_8hz_g60_67.RAW', FMTDAT='(8E13.5)'
 TRAMP=1., VOLUME=1. $END
  3.09441E+05  2.91778E+02  3.37961E+05  2.50921E+05  8.51128E+04  3.39091E+05 -1.32890E+05  2.52468E+05
 -1.91130E+05  8.38091E+04 -1.12681E+05 -3.21951E+04 -2.03200E+02 -5.08279E+04  5.32940E+04 -5.93444E+02
  3.56404E+04  5.28576E+04 -1.63959E+04  7.65343E+04 -6.11009E+04  6.51061E+04 -8.61248E+04  3.28443E+04
 -8.30667E+04 -1.20050E+04 -5.87924E+04 -5.26121E+04 -1.52777E+04 -7.15923E+04  2.86486E+04 -4.74986E+04
  4.19626E+04  3.60639E+03  1.71609E+04  4.84710E+04 -3.49281E+04  4.85009E+04 -6.85864E+04  1.59507E+02
 -5.57595E+04 -5.80024E+04 -7.52663E+03 -7.99319E+04  3.51354E+04 -5.79542E+04  5.04628E+04 -1.84274E+04
  4.58913E+04  1.09966E+04  3.33157E+04  2.74536E+04  1.60846E+04  3.13645E+04 -5.78757E+03  2.82963E+04
 -2.30236E+04  1.22356E+04 -1.78145E+04 -5.94849E+03  7.66884E+03 -7.06472E+03  2.41717E+04  1.44325E+04
  6.98563E+03  3.83338E+04 -3.49012E+04  3.73201E+04 -6.68354E+04  2.09268E+03 -5.98896E+04 -4.57167E+04
 -1.30969E+04 -6.69883E+04  4.20024E+04 -4.83228E+04  6.28508E+04 -2.24937E+03  3.79653E+04  3.54044E+04
 -5.61279E+03  4.07274E+04 -3.26447E+04  1.98310E+04 -3.46836E+04 -3.23338E+03 -2.03230E+04 -1.23498E+04
 -1.01643E+04 -1.56647E+04 -1.27541E+02 -2.08653E+04  8.59814E+03 -2.36279E+04  1.59484E+04 -1.25563E+04
  1.03538E+04  6.81278E+03 -1.11962E+04  1.32295E+04 -2.42737E+04 -7.59566E+03 -8.59579E+03 -3.88771E+04
  2.61932E+04 -4.84110E+04  5.33460E+04 -2.17673E+04  5.01229E+04  2.10543E+04  1.78670E+04  4.85595E+04
 -1.72168E+04  3.73225E+04 -2.89044E+04  2.91771E+03 -1.24227E+04 -2.97630E+04  2.21629E+04 -3.84566E+04
  4.59920E+04 -1.15900E+04  4.25826E+04  2.58998E+04  2.23325E+04  5.27077E+04 -8.70792E+03  5.79207E+04
 -3.69806E+04  4.00392E+04 -4.97350E+04  1.14708E+04 -4.96426E+04 -1.94260E+04 -2.70958E+04 -4.41554E+04
  7.89495E+03 -4.43326E+04  3.56393E+04 -1.79434E+04  3.36125E+04  1.12935E+04  5.81013E+03  2.14761E+04
 -1.37430E+04  9.78836E+03 -1.14543E+04 -7.20739E+03  5.58409E+03 -1.19009E+04  1.96457E+04  5.26450E+03
  1.55407E+04  2.31618E+04 -4.73005E+03  2.79753E+04 -2.43079E+04  1.54213E+04 -3.28919E+04 -2.37568E+03
 -2.71962E+04 -1.93341E+04 -1.29319E+04 -2.71344E+04  4.64913E+03 -2.81911E+04  2.14547E+04 -2.49134E+04
  3.47180E+04 -1.48643E+04  4.03683E+04  5.76798E+03  2.87533E+04  2.61758E+04  4.80685E+03  4.33437E+04
 -2.07366E+04  3.55439E+04 -3.14158E+04  1.22511E+04 -2.30532E+04 -9.87260E+03 -5.16511E+03 -1.21651E+04
  3.20862E+02 -7.05104E+02 -8.86763E+03  8.98221E+03 -2.23373E+04  4.47731E+03 -2.19194E+04 -1.06206E+04
 -1.27231E+04 -2.50589E+04  6.26853E+03 -2.99084E+04  2.00286E+04 -2.15054E+04  2.45353E+04 -1.74170E+03
  1.56935E+04  1.72967E+04 -1.73721E+03  2.50542E+04 -1.83991E+04  1.44895E+04 -2.57820E+04 -5.08948E+03
 -1.83916E+04 -2.23135E+04 -2.42482E+03 -3.00966E+04  1.38093E+04 -2.53277E+04  2.49517E+04 -1.33401E+04
  2.38221E+04 -3.64005E+02  1.74580E+04  5.47940E+03  9.07582E+03  1.41488E+03  1.33720E+04 -2.71091E+03
  2.41389E+04  3.23699E+03  2.82999E+04  1.96014E+04  1.95681E+04  4.08048E+04 -2.48121E+03  4.89381E+04
 -2.76007E+04  4.09056E+04 -4.61665E+04  2.14762E+04 -4.94635E+04 -3.99705E+03 -3.97478E+04 -2.93397E+04
 -1.55561E+04 -4.12278E+04  1.46235E+04 -3.58772E+04  3.09926E+04 -1.62218E+04  2.63031E+04  8.77398E+03
  9.42187E+03  2.06751E+04 -1.29354E+04  1.72397E+04 -2.21628E+04  2.66356E+03 -1.63898E+04 -1.44238E+04
 -1.10493E+03 -2.12371E+04  1.17067E+04 -1.55376E+04  1.47744E+04 -1.43766E+03  3.94787E+03  9.96672E+03
 -9.46665E+03  5.04062E+03 -1.06618E+04 -7.91013E+03 -2.13867E+03 -1.98769E+04  1.30994E+04 -2.23390E+04
  2.57888E+04 -1.24878E+04  2.93203E+04  3.64428E+03  2.58575E+04  2.06034E+04  1.18278E+04  3.25758E+04
 -6.30405E+03  3.49341E+04 -2.31217E+04  2.15435E+04 -2.56050E+04  4.50948E+03 -1.75279E+04 -7.00871E+03
 -6.56611E+03 -8.48163E+03 -5.49388E+02  5.38803E+02 -3.25598E+03  3.84438E+03 -8.55529E+03  5.92618E+03
 -1.60715E+04 -8.21179E+02 -1.65136E+04 -1.30274E+04 -6.82202E+03 -2.13181E+04  6.86553E+03 -1.75677E+04
  1.42652E+04 -7.84151E+03  1.00418E+04  4.79283E+03 -8.95695E+02  6.85775E+03 -8.40949E+03 -1.68211E+02
 -8.57773E+03 -1.16256E+04 -1.18979E+03 -1.75918E+04  1.05108E+04 -1.91785E+04  2.30367E+04 -1.01084E+04
  2.65316E+04  3.29244E+03  1.96281E+04  1.69009E+04  3.63040E+03  2.19895E+04 -1.08197E+04  1.75679E+04
 -1.41055E+04  5.00703E+03 -6.96287E+03 -4.17075E+03  2.67665E+03 -5.08380E+03  8.88449E+03 -1.44135E+03
  7.83498E+03  8.19272E+03  9.86357E+02  1.42606E+04 -9.73451E+03  1.35569E+04 -1.72434E+04  2.95240E+03
 -1.22742E+04 -9.02537E+03  1.08141E+02 -1.48856E+04  9.57168E+03 -7.70337E+03  1.09032E+04  3.78591E+03
  2.87595E+03  1.20271E+04 -9.41840E+03  1.31988E+04 -1.60439E+04  6.05027E+03 -1.71660E+04 -6.30495E+03
 -9.42649E+03 -1.85582E+04  4.75859E+03 -2.07452E+04  1.80082E+04 -1.26663E+04  1.93430E+04  3.29957E+03
  1.11549E+04  1.58410E+04 -2.27610E+03  1.81613E+04 -1.34163E+04  1.01150E+04 -1.48362E+04 -1.27790E+03
 -1.23534E+04 -1.19997E+04 -2.03935E+03 -1.42477E+04  7.25689E+03 -1.08908E+04  8.98420E+03 -3.87647E+03
  5.53896E+03  2.97349E+03 -1.34158E+03  2.01456E+03 -1.15114E+03 -4.69400E+03  3.51990E+03 -8.87981E+03
  1.39240E+04 -6.60813E+03  1.89419E+04  1.75097E+03  1.90571E+04  1.32467E+04  1.15120E+04  2.49116E+04
 -6.07555E+03  2.83300E+04 -2.35950E+04  2.11697E+04 -3.02211E+04  3.76607E+03 -2.44684E+04 -1.08490E+04
 -1.18267E+04 -2.03157E+04 -3.81915E+02 -1.72197E+04  6.48884E+03 -1.00685E+04  6.00573E+03 -6.11262E+03
  4.32125E+03 -3.56497E+03  4.89064E+03 -4.47469E+03  6.14124E+03 -3.99777E+03  9.38500E+03 -1.77010E+03
  1.25510E+04  3.06638E+03  7.17562E+03  1.10146E+04 -2.91292E+03  1.37979E+04 -1.33272E+04  1.05547E+04
 -1.77200E+04 -1.63227E+03 -1.15925E+04 -1.29169E+04 -1.74228E+03 -1.89245E+04  1.05127E+04 -1.93588E+04
  1.99092E+04 -1.03961E+04  2.31212E+04  3.44148E+03  1.57639E+04  1.64347E+04  2.07917E+03  2.13359E+04
 -9.26630E+03  1.69680E+04 -1.23893E+04  6.41237E+03 -8.61228E+03 -1.92578E+03 -4.35781E+03 -2.56848E+03
 -1.75758E+03 -3.44967E+02 -2.21719E+03  3.25768E+03 -7.73775E+03  3.13096E+03 -1.23711E+04 -1.97066E+03
 -9.05601E+03 -1.17136E+04 -2.87417E+02 -1.77024E+04  1.10287E+04 -1.62860E+04  1.79699E+04 -5.05225E+03
  1.77391E+04  8.28263E+03  8.03493E+03  1.61067E+04 -3.92668E+03  1.76251E+04 -1.30512E+04  1.11720E+04
 -1.69436E+04  4.82583E+02 -1.29852E+04 -1.07692E+04 -1.67590E+03 -1.50453E+04  8.12734E+03 -1.14328E+04
  1.12780E+04 -3.29610E+03  7.71157E+03  2.91261E+03  2.76319E+03  5.25021E+03  1.61783E+03  2.20347E+03
  2.85470E+03  1.31608E+03  3.97358E+03  1.77071E+03  5.39033E+03  5.93913E+03  4.29704E+03  9.65560E+03
 -3.58888E+03  1.49104E+04 -1.28581E+04  1.37781E+04 -1.86976E+04  3.28920E+03 -1.95005E+04 -7.80896E+03
 -9.24857E+03 -1.88045E+04  3.22463E+03 -2.04852E+04  1.14611E+04 -1.31123E+04  1.55299E+04 -3.47714E+03
  1.16428E+04  6.67128E+03  2.61757E+03  1.09552E+04 -5.36772E+03  6.96014E+03 -7.15940E+03 -8.96241E+02
 -3.81168E+03 -7.98091E+03  4.96053E+03 -8.26940E+03  7.93570E+03 -3.99831E+03  7.90713E+03  1.34556E+03
  4.69108E+03  4.55087E+03  1.92449E+03  3.55466E+03 -9.96844E+02  2.70636E+03  1.61111E+03 -8.07191E+02
  3.29161E+03 -1.17445E+03  7.97456E+03  2.91262E+03  5.20867E+03  9.59787E+03 -1.41893E+03  1.35053E+04
 -8.98246E+03  9.04004E+03 -1.25834E+04  2.74929E+03 -1.08041E+04 -4.27470E+03 -4.31592E+03 -7.63272E+03
  9.24397E+02 -7.50208E+03  4.82032E+03 -3.43085E+03  4.22470E+03  3.72971E+03 -1.60658E+03  5.90457E+03
 -7.77019E+03  3.26897E+03 -9.16628E+03 -4.60475E+03 -5.39096E+03 -1.02767E+04  1.56574E+03 -1.04231E+04
  6.61070E+03 -6.57325E+03  7.86636E+03 -9.36340E+02  6.26639E+03  3.23101E+03  9.75046E+02  5.21544E+03
 -3.89378E+03  1.46037E+03 -4.64710E+03 -3.78907E+03  1.82156E+03 -8.44196E+03  9.60103E+03 -6.85916E+03
  1.25312E+04  4.10591E+02  1.11552E+04  8.53298E+03  3.72622E+03  1.32407E+04 -4.65819E+03  1.17483E+04
 -1.02919E+04  5.62387E+03 -1.12427E+04 -1.60592E+03 -6.36861E+03 -7.95310E+03  1.47661E+03 -8.06158E+03
  7.59944E+03 -3.33948E+03  6.37666E+03  3.28240E+03  2.82626E+03  7.29536E+03 -9.36578E+02  6.15277E+03
 -3.40285E+03  4.13108E+03 -3.03504E+03  1.24224E+03 -1.73754E+03  1.48613E+03 -1.97472E+03  2.36090E+03
 -3.15976E+03  5.05421E+03 -8.63160E+03  4.19317E+03 -1.23321E+04  4.07825E+02 -1.43816E+04 -8.40644E+03
 -7.70408E+03 -1.68914E+04  2.99330E+03 -1.99192E+04  1.26486E+04 -1.51191E+04  1.84451E+04 -5.27388E+03
  1.74732E+04  3.87302E+03  1.02593E+04  1.21979E+04  1.36733E+03  1.32713E+04 -5.23717E+03  1.03514E+04
 -7.49349E+03  3.15597E+03 -4.97384E+03 -1.52138E+03 -1.51312E+03 -1.37160E+03 -6.15059E+02  1.85606E+02
 -2.11066E+03  3.98770E+02 -2.93246E+03 -2.29182E+02 -1.04087E+03 -3.13594E+03  3.45005E+02 -4.82555E+03
  5.61776E+03 -4.29331E+03  8.38125E+03  6.21409E+01  9.43988E+03  7.14954E+03  3.02640E+03  1.36129E+04
 -6.35946E+03  1.54315E+04 -1.41856E+04  8.93256E+03 -1.66472E+04 -1.33727E+03 -1.30101E+04 -1.01169E+04
 -4.90513E+03 -1.41430E+04  3.58941E+03 -1.30032E+04  9.31693E+03 -6.99053E+03  9.54349E+03 -1.71947E+02
  5.03166E+03  4.27818E+03 -4.72754E+02  4.19402E+03 -2.60024E+03 -1.65830E+02 -2.47275E+02 -2.55384E+03
  4.45752E+03 -2.45269E+03  5.75236E+03  1.68000E+03  3.95490E+03  5.79377E+03  1.52029E+02  7.50772E+03
 -6.08894E+03  6.41469E+03 -9.73215E+03  1.06864E+03 -8.31261E+03 -6.93720E+03 -1.10152E+03 -1.14309E+04
  6.54023E+03 -9.63643E+03  1.08454E+04 -3.27755E+03  1.06320E+04  2.55385E+03  6.07159E+03  8.69443E+03
  1.70736E+03  9.13519E+03 -3.83890E+03  7.84971E+03 -5.79409E+03  3.82400E+03 -5.49720E+03  7.34255E+02
 -2.81533E+03 -6.35714E+02 -2.56180E+03  1.54394E+03 -5.00609E+03  1.81529E+03 -7.27953E+03 -1.84245E+03
 -6.68667E+03 -4.95338E+03 -2.16863E+03 -9.38621E+03  4.32056E+03 -9.63135E+03  8.31410E+03 -4.90782E+03
  9.86643E+03  1.25199E+03  5.11801E+03  6.74840E+03 -8.35516E+02  9.33924E+03 -7.33213E+03  6.12546E+03
