 $NMID ID='MM_0lb_SNR800_13hz_g40_42.RAW', FMTDAT='(8E13.5)'
 TRAMP=1., VOLUME=1. $END
  3.10117E+05  4.96510E+02  3.37525E+05  2.50502E+05  8.46511E+04  3.37984E+05 -1.32310E+05  2.50602E+05
 -1.90271E+05  8.27313E+04 -1.11771E+05 -3.30155E+04  9.51586E+02 -5.06956E+04  5.39679E+04  5.18121E-01
  3.52149E+04  5.29710E+04 -1.67185E+04  7.53104E+04 -6.08508E+04  6.32701E+04 -8.40410E+04  3.19967E+04
 -8.06497E+04 -1.15249E+04 -5.73132E+04 -5.12717E+04 -1.48363E+04 -6.96198E+04  2.74881E+04 -4.54377E+04
  4.01146E+04  3.99608E+03  1.60441E+04  4.80464E+04 -3.45716E+04  4.70859E+04 -6.66946E+04 -3.06034E+02
 -5.35444E+04 -5.66568E+04 -6.86426E+03 -7.67728E+04  3.40236E+04 -5.48388E+04  4.78146E+04 -1.72929E+04
  4.30246E+04  1.16228E+04  3.20583E+04  2.54311E+04  1.58447E+04  2.96596E+04 -5.39191E+03  2.74313E+04
 -2.20620E+04  1.21277E+04 -1.88525E+04 -4.75372E+03  5.77819E+03 -7.17444E+03  2.21487E+04  1.22089E+04
  7.16058E+03  3.46285E+04 -3.19823E+04  3.55276E+04 -6.32576E+04  2.31550E+03 -5.69863E+04 -4.28650E+04
 -1.26514E+04 -6.30419E+04  3.94306E+04 -4.51615E+04  5.82740E+04 -2.06962E+03  3.44173E+04  3.22344E+04
 -5.91302E+03  3.63239E+04 -2.98711E+04  1.58890E+04 -3.00084E+04 -4.36506E+03 -1.68204E+04 -1.07683E+04
 -8.46852E+03 -1.30396E+04 -9.63980E+02 -1.76714E+04  7.36246E+03 -2.32624E+04  1.54156E+04 -1.33784E+04
  1.15494E+04  5.29082E+03 -8.02171E+03  1.30677E+04 -2.12252E+04 -4.55476E+03 -8.47883E+03 -3.35019E+04
  2.28366E+04 -4.34588E+04  4.81525E+04 -1.99587E+04  4.48345E+04  1.91990E+04  1.59562E+04  4.43314E+04
 -1.59288E+04  3.37410E+04 -2.53846E+04  1.66304E+03 -9.75642E+03 -2.75111E+04  2.09142E+04 -3.40930E+04
  4.06966E+04 -8.86901E+03  3.55725E+04  2.33101E+04  1.79694E+04  4.66054E+04 -8.10653E+03  5.01035E+04
 -3.14350E+04  3.35597E+04 -4.21415E+04  9.39354E+03 -4.23256E+04 -1.66479E+04 -2.34975E+04 -3.78172E+04
  7.48156E+03 -3.75535E+04  3.15117E+04 -1.46545E+04  2.92398E+04  1.11693E+04  3.92572E+03  1.93052E+04
 -1.34610E+04  8.11833E+03 -1.04596E+04 -7.52552E+03  5.86406E+03 -1.04668E+04  1.79637E+04  6.26579E+03
  1.32638E+04  2.20200E+04 -5.89007E+03  2.48081E+04 -2.22205E+04  1.15622E+04 -2.80499E+04 -4.76839E+03
 -2.05464E+04 -1.73477E+04 -8.50901E+03 -2.02268E+04  3.96156E+03 -1.98964E+04  1.55197E+04 -1.81903E+04
  2.57940E+04 -1.28028E+04  3.24541E+04  2.84462E+03  2.40008E+04  1.99317E+04  4.16177E+03  3.65064E+04
 -1.79697E+04  3.01895E+04 -2.76475E+04  1.03827E+04 -2.06816E+04 -1.02341E+04 -4.64370E+03 -1.34979E+04
  1.90600E+03 -2.88737E+03 -4.55861E+03  6.76320E+03 -1.64202E+04  4.87342E+03 -1.66467E+04 -7.08590E+03
 -9.77023E+03 -1.86187E+04  5.08987E+03 -2.31921E+04  1.53760E+04 -1.67119E+04  1.79879E+04 -1.78885E+03
  1.15018E+04  1.30969E+04 -1.13957E+03  1.90345E+04 -1.30604E+04  1.08765E+04 -1.92548E+04 -4.19250E+03
 -1.41577E+04 -1.73618E+04 -1.97012E+03 -2.31670E+04  1.03622E+04 -1.88499E+04  1.90083E+04 -9.21947E+03
  1.80850E+04  2.96373E+02  1.30059E+04  4.09032E+03  6.73501E+03  9.79078E+02  9.53655E+03 -1.63228E+03
  1.70976E+04  2.60633E+03  1.95718E+04  1.51892E+04  1.30729E+04  3.02252E+04 -3.19236E+03  3.42231E+04
 -1.99031E+04  2.76059E+04 -3.19661E+04  1.37768E+04 -3.38031E+04 -2.02107E+03 -2.79312E+04 -1.93908E+04
 -1.20356E+04 -2.78386E+04  9.37766E+03 -2.50514E+04  2.15369E+04 -1.24640E+04  1.94844E+04  5.67790E+03
  7.30479E+03  1.47018E+04 -9.03454E+03  1.25447E+04 -1.61863E+04  2.47840E+03 -1.24796E+04 -9.82497E+03
 -1.02176E+02 -1.51558E+04  7.83606E+03 -1.18612E+04  1.02104E+04 -1.53034E+03  2.51516E+03  6.48238E+03
 -7.02530E+03  2.72871E+03 -5.87845E+03 -5.46067E+03 -1.72595E+02 -1.33530E+04  9.76475E+03 -1.39127E+04
  1.70298E+04 -7.43632E+03  1.83758E+04  3.24647E+03  1.63228E+04  1.33048E+04  7.37149E+03  2.05393E+04
 -3.32264E+03  2.27287E+04 -1.43857E+04  1.40517E+04 -1.59794E+04  3.03612E+03 -1.13846E+04 -3.79527E+03
 -5.35128E+03 -4.86379E+03 -4.01375E+02  9.06513E+02 -2.50260E+03  2.47716E+03 -4.70898E+03  4.07392E+03
 -1.06536E+04 -7.94342E+02 -1.13659E+04 -9.24112E+03 -4.48003E+03 -1.48774E+04  4.66799E+03 -1.13516E+04
  9.71952E+03 -4.66764E+03  6.90548E+03  3.21276E+03  3.62794E+02  4.50819E+03 -5.14369E+03  6.16739E+01
 -5.04967E+03 -7.12499E+03 -9.28799E+02 -1.07651E+04  6.21456E+03 -1.14902E+04  1.38388E+04 -6.20375E+03
  1.67814E+04  1.12005E+03  1.23067E+04  9.65129E+03  2.39309E+03  1.29128E+04 -6.94754E+03  1.14369E+04
 -9.33433E+03  3.52804E+03 -4.80465E+03 -1.98692E+03  1.89753E+03 -3.00286E+03  6.33044E+03 -9.59934E+02
  5.26260E+03  5.13718E+03  9.88213E+02  8.97626E+03 -6.53985E+03  8.31770E+03 -1.14739E+04  2.08558E+03
 -7.31819E+03 -5.62307E+03 -4.12830E+01 -9.71262E+03  6.07622E+03 -4.70874E+03  5.75680E+03  1.84786E+03
  1.11496E+03  5.67736E+03 -5.48247E+03  7.55212E+03 -8.37741E+03  3.49923E+03 -8.65014E+03 -2.85347E+03
 -5.05247E+03 -1.02523E+04  2.11539E+03 -1.20029E+04  9.96121E+03 -7.43995E+03  1.07969E+04  2.11028E+03
  6.78541E+03  8.58142E+03 -3.88128E+02  1.08198E+04 -7.86929E+03  6.06132E+03 -8.54201E+03 -7.41384E+02
 -7.85931E+03 -7.29077E+03 -1.40571E+03 -8.16094E+03  3.87757E+03 -6.53718E+03  5.14297E+03 -3.13345E+03
  3.81496E+03  1.09305E+03 -4.82183E+02  1.32409E+03 -2.88514E+01 -1.52831E+03  6.80739E+02 -4.53815E+03
  7.17286E+03 -2.59809E+03  1.00666E+04  1.18180E+03  9.85779E+03  6.54012E+03  7.40489E+03  1.30866E+04
 -2.82699E+03  1.47512E+04 -1.28622E+04  1.09796E+04 -1.63546E+04  2.19606E+03 -1.29726E+04 -5.64799E+03
 -6.63254E+03 -1.09293E+04 -5.53154E+02 -9.04350E+03  3.39717E+03 -5.11747E+03  2.86022E+03 -3.65442E+03
  2.29231E+03 -1.96708E+03  2.95869E+03 -2.77292E+03  4.65203E+03 -2.37308E+03  5.88421E+03 -1.02275E+02
  7.05003E+03  2.04367E+03  3.32518E+03  5.64840E+03 -1.90275E+03  6.44158E+03 -7.14743E+03  4.73834E+03
 -8.97903E+03 -1.12148E+03 -4.85088E+03 -6.15357E+03 -3.24779E+02 -9.54289E+03  5.35723E+03 -9.45804E+03
  9.69501E+03 -5.63129E+03  1.17793E+04  1.28108E+03  8.38813E+03  8.25728E+03  1.36178E+03  1.06260E+04
 -4.11681E+03  9.22409E+03 -6.28398E+03  3.23871E+03 -3.78285E+03 -1.25896E+03 -1.46801E+03 -1.36645E+03
 -1.28976E+03  3.24944E+02 -1.50614E+03  2.28196E+03 -4.03027E+03  1.70003E+03 -6.24566E+03 -7.41437E+02
 -3.84873E+03 -6.42738E+03  3.74216E+02 -8.62507E+03  5.24616E+03 -8.00771E+03  8.07408E+03 -2.31930E+03
  8.20863E+03  4.44274E+03  3.77488E+03  7.29350E+03 -1.53650E+03  8.63800E+03 -5.89207E+03  5.07829E+03
 -8.00182E+03  5.75398E+02 -6.39346E+03 -4.99968E+03 -6.64093E+02 -6.92983E+03  3.74393E+03 -5.41089E+03
  5.69691E+03 -2.06061E+03  3.36009E+03  1.33050E+03  1.39037E+03  2.69848E+03  9.27653E+02  1.25157E+03
  2.42852E+03  1.09472E+03  2.16051E+03  1.59690E+03  2.57256E+03  3.46968E+03  1.99663E+03  3.70993E+03
 -1.85040E+03  6.59202E+03 -5.59866E+03  7.33979E+03 -7.95053E+03  1.91010E+03 -8.87274E+03 -2.99181E+03
 -3.86870E+03 -7.97365E+03  1.24694E+03 -9.60533E+03  4.76799E+03 -5.32156E+03  6.61256E+03 -1.63454E+03
  5.22075E+03  3.34098E+03  1.03221E+03  4.97408E+03 -1.71152E+03  2.70438E+03 -2.92403E+03 -4.87693E+02
 -1.27438E+03 -3.52516E+03  2.15571E+03 -3.69309E+03  3.29640E+03 -2.04023E+03  3.38136E+03  8.94945E+02
  1.91158E+03  1.48929E+03  1.23737E+03  4.53577E+02 -6.00781E+02  1.53066E+03  1.47421E+03 -1.90641E+02
  1.02161E+03 -2.77427E+02  3.72495E+03  1.38038E+03  1.69875E+03  4.52508E+03 -5.99657E+02  6.07113E+03
 -3.76499E+03  3.22196E+03 -4.84838E+03  1.17588E+03 -4.80777E+03 -1.94858E+03 -1.60382E+03 -3.11823E+03
  7.19924E+02 -3.16931E+03  2.12330E+03 -1.53142E+03  1.66806E+03  1.75036E+03 -1.10098E+03  2.73424E+03
 -3.19323E+03  1.73298E+03 -3.28895E+03 -2.37319E+03 -1.94270E+03 -5.05404E+03  6.80142E+02 -4.24857E+03
  2.19536E+03 -2.39855E+03  2.73517E+03  5.66420E+01  2.62753E+03  7.85140E+02  4.79224E+02  2.31598E+03
 -1.23110E+03  4.72078E+02 -1.91699E+03 -1.04996E+03  9.66444E+02 -3.05179E+03  3.88234E+03 -2.32949E+03
  4.38116E+03  3.19458E+02  5.39805E+03  3.09096E+03  1.77070E+03  4.68223E+03 -1.61064E+03  4.78744E+03
 -4.02439E+03  1.84971E+03 -4.21024E+03 -6.66936E+02 -2.19348E+03 -3.37944E+03  7.08490E+02 -2.58748E+03
  3.39578E+03 -1.57817E+03  2.75454E+03  1.38766E+03  7.89267E+02  2.89200E+03 -1.10465E+02  2.60469E+03
 -9.34925E+02  1.83677E+03 -1.52376E+03  5.01113E+02 -3.04627E+02  4.37702E+02 -1.06410E+03  9.69666E+02
 -1.26416E+03  1.98228E+03 -3.66339E+03  1.51343E+03 -4.85914E+03  2.99228E+02 -5.32066E+03 -3.56070E+03
 -2.96282E+03 -5.97516E+03  1.58353E+03 -7.05624E+03  4.31526E+03 -5.79327E+03  6.76989E+03 -2.23298E+03
  6.70589E+03  9.90239E+02  3.81512E+03  4.00077E+03  7.88913E+01  4.61852E+03 -1.97483E+03  3.72486E+03
 -3.04512E+03  1.61489E+03 -1.64637E+03 -4.35774E+02 -7.53287E+02 -1.65855E+02 -5.84343E+02 -2.28109E+02
 -1.71931E+03  1.72850E+02 -1.39571E+03 -6.64296E+01  1.30308E+02 -1.34332E+03 -2.15396E+02 -2.02647E+03
  2.32463E+03 -1.76920E+03  2.07279E+03  5.63148E+01  3.21250E+03  2.72758E+03  4.94944E+02  4.61370E+03
 -2.37448E+03  5.98420E+03 -4.87895E+03  3.05758E+03 -5.75566E+03 -2.83117E+02 -4.25425E+03 -3.68694E+03
 -1.74164E+03 -4.74235E+03  1.24730E+03 -3.97500E+03  2.90208E+03 -2.12174E+03  2.96832E+03  2.75975E+02
  1.60681E+03  1.39252E+03 -3.90172E+02  1.39380E+03 -9.18529E+02 -5.84808E+01 -1.69093E+02 -1.10430E+03
  1.58762E+03 -5.64999E+02  1.43965E+03  9.14638E+02  8.16516E+02  1.72831E+03  3.26721E+02  2.10913E+03
 -2.03976E+03  2.17928E+03 -2.69687E+03  1.32118E+02 -2.84214E+03 -1.93226E+03 -2.11368E+02 -3.78783E+03
  1.75197E+03 -2.88512E+03  3.07946E+03 -9.78437E+02  3.75739E+03  5.85381E+02  2.23477E+03  2.54014E+03
  2.25505E+02  2.49054E+03 -1.10087E+03  2.56126E+03 -2.11742E+03  1.78815E+03 -1.59627E+03  4.57091E+02
 -3.90361E+02 -9.70194E+01 -7.93608E+02  3.08362E+02 -1.59380E+03  2.93326E+02 -2.50847E+03 -2.33892E+02
 -2.42023E+03 -1.00513E+03 -6.44098E+02 -2.89676E+03  1.86016E+03 -3.33093E+03  2.72367E+03 -1.64049E+03
  2.80859E+03  5.37468E+02  1.09956E+03  1.82367E+03 -2.31237E+02  3.03636E+03 -1.97124E+03  1.86099E+03
