 $NMID ID='MM_0lb_SNR800_8hz_g40_89.RAW', FMTDAT='(8E13.5)'
 TRAMP=1., VOLUME=1. $END
  3.09954E+05  2.90058E+02  3.38195E+05  2.51210E+05  8.48751E+04  3.38583E+05 -1.32726E+05  2.51663E+05
 -1.90840E+05  8.39623E+04 -1.12607E+05 -3.21935E+04  1.19607E+02 -5.08913E+04  5.34368E+04 -9.72449E+02
  3.55700E+04  5.28487E+04 -1.66918E+04  7.60610E+04 -6.13158E+04  6.43792E+04 -8.53636E+04  3.26943E+04
 -8.19887E+04 -1.17337E+04 -5.85325E+04 -5.27760E+04 -1.50741E+04 -7.09269E+04  2.84914E+04 -4.65025E+04
  4.06965E+04  3.29870E+03  1.66438E+04  4.89509E+04 -3.43195E+04  4.79206E+04 -6.78954E+04  9.84235E+01
 -5.51427E+04 -5.72989E+04 -6.97702E+03 -7.93544E+04  3.49442E+04 -5.67120E+04  4.97169E+04 -1.81299E+04
  4.50665E+04  1.15927E+04  3.31266E+04  2.68352E+04  1.61977E+04  3.04916E+04 -5.81628E+03  2.75532E+04
 -2.25280E+04  1.19903E+04 -1.82582E+04 -5.58754E+03  7.15439E+03 -7.12357E+03  2.33570E+04  1.35323E+04
  7.03604E+03  3.70229E+04 -3.34009E+04  3.70669E+04 -6.56543E+04  2.20171E+03 -5.88591E+04 -4.45155E+04
 -1.23402E+04 -6.55316E+04  4.14282E+04 -4.74659E+04  6.09118E+04 -2.56347E+03  3.69720E+04  3.45517E+04
 -5.42853E+03  3.91589E+04 -3.21765E+04  1.84611E+04 -3.34742E+04 -3.35036E+03 -1.89477E+04 -1.18151E+04
 -9.41754E+03 -1.53167E+04 -3.75220E+02 -1.98921E+04  8.31425E+03 -2.35588E+04  1.59370E+04 -1.26594E+04
  1.05338E+04  5.60155E+03 -1.07599E+04  1.31481E+04 -2.36102E+04 -6.34112E+03 -8.26582E+03 -3.74937E+04
  2.53299E+04 -4.66732E+04  5.24944E+04 -2.08928E+04  4.87545E+04  2.08465E+04  1.75403E+04  4.75230E+04
 -1.65182E+04  3.60664E+04 -2.76270E+04  2.59987E+03 -1.16843E+04 -2.94398E+04  2.16939E+04 -3.69038E+04
  4.47614E+04 -1.07425E+04  4.03220E+04  2.49708E+04  2.11195E+04  5.10312E+04 -8.14759E+03  5.64414E+04
 -3.56300E+04  3.84801E+04 -4.81404E+04  1.13603E+04 -4.75542E+04 -1.83777E+04 -2.64504E+04 -4.26834E+04
  7.92861E+03 -4.19490E+04  3.44354E+04 -1.71643E+04  3.20071E+04  1.10799E+04  5.85429E+03  2.08773E+04
 -1.42714E+04  1.00609E+04 -1.16148E+04 -7.76177E+03  5.43895E+03 -1.14969E+04  1.90537E+04  5.61014E+03
  1.44855E+04  2.25431E+04 -4.92732E+03  2.71307E+04 -2.35550E+04  1.47783E+04 -3.16871E+04 -2.99333E+03
 -2.55651E+04 -1.82963E+04 -1.15777E+04 -2.51891E+04  3.87631E+03 -2.54327E+04  2.01496E+04 -2.32187E+04
  3.25559E+04 -1.42811E+04  3.81788E+04  4.76417E+03  2.76455E+04  2.40684E+04  4.32520E+03  4.17348E+04
 -1.99194E+04  3.42732E+04 -3.07446E+04  1.21283E+04 -2.23346E+04 -1.03555E+04 -4.69986E+03 -1.25752E+04
  9.90271E+02 -9.64286E+02 -7.96427E+03  8.19180E+03 -2.03786E+04  5.00494E+03 -1.99474E+04 -9.43323E+03
 -1.20146E+04 -2.35125E+04  6.62015E+03 -2.82173E+04  1.90981E+04 -1.98941E+04  2.32477E+04 -1.79956E+03
  1.46693E+04  1.64221E+04 -1.19053E+03  2.34078E+04 -1.60520E+04  1.37425E+04 -2.34493E+04 -4.86813E+03
 -1.76254E+04 -2.09904E+04 -2.05958E+03 -2.82847E+04  1.22706E+04 -2.36914E+04  2.35026E+04 -1.19327E+04
  2.20934E+04 -3.02392E+02  1.60361E+04  5.08656E+03  9.00738E+03  1.43957E+03  1.19042E+04 -1.91095E+03
  2.26070E+04  3.02020E+03  2.59203E+04  1.82090E+04  1.74956E+04  3.79870E+04 -2.93419E+03  4.45663E+04
 -2.57206E+04  3.74877E+04 -4.22821E+04  1.94545E+04 -4.53537E+04 -3.12889E+03 -3.65955E+04 -2.66026E+04
 -1.47033E+04 -3.78147E+04  1.29206E+04 -3.27289E+04  2.81743E+04 -1.52755E+04  2.44709E+04  8.08712E+03
  8.37629E+03  1.85178E+04 -1.18221E+04  1.56921E+04 -2.06261E+04  2.96658E+03 -1.58755E+04 -1.33807E+04
 -5.44832E+02 -1.95795E+04  1.06468E+04 -1.47914E+04  1.33691E+04 -1.28027E+03  3.75061E+03  8.86215E+03
 -8.84855E+03  4.15841E+03 -9.66854E+03 -7.01122E+03 -1.67139E+03 -1.89504E+04  1.21200E+04 -2.03447E+04
  2.33810E+04 -1.13044E+04  2.65657E+04  3.48771E+03  2.35331E+04  1.90431E+04  1.06407E+04  2.98038E+04
 -5.73493E+03  3.17411E+04 -2.04152E+04  1.97272E+04 -2.30044E+04  4.11855E+03 -1.54741E+04 -5.95911E+03
 -6.64366E+03 -7.42362E+03 -7.70251E+02  4.08591E+02 -3.02975E+03  4.00628E+03 -7.85823E+03  5.45196E+03
 -1.45130E+04 -1.16824E+03 -1.49143E+04 -1.20893E+04 -5.80659E+03 -1.99235E+04  6.37096E+03 -1.58209E+04
  1.34421E+04 -6.06340E+03  9.06308E+03  4.22759E+03 -2.91277E+02  6.20195E+03 -8.29163E+03 -2.55601E+02
 -7.60284E+03 -1.05849E+04 -9.68182E+02 -1.60707E+04  9.55676E+03 -1.67157E+04  2.05177E+04 -9.46712E+03
  2.39838E+04  2.37148E+03  1.74748E+04  1.49483E+04  3.45737E+03  1.96295E+04 -9.89434E+03  1.55482E+04
 -1.31792E+04  4.84209E+03 -6.70034E+03 -3.56136E+03  2.08246E+03 -4.64789E+03  8.70703E+03 -1.07927E+03
  7.82968E+03  6.97196E+03  1.21296E+03  1.32509E+04 -9.10949E+03  1.21727E+04 -1.58441E+04  3.04086E+03
 -1.11625E+04 -8.39427E+03  9.05323E+02 -1.41302E+04  8.90702E+03 -6.53267E+03  9.39403E+03  3.36391E+03
  2.19148E+03  1.02984E+04 -8.76374E+03  1.24154E+04 -1.44599E+04  5.41202E+03 -1.45211E+04 -5.16072E+03
 -8.44411E+03 -1.66071E+04  4.08453E+03 -1.87100E+04  1.55182E+04 -1.11633E+04  1.79280E+04  2.82726E+03
  9.84492E+03  1.37540E+04 -1.62500E+03  1.64885E+04 -1.21497E+04  8.97319E+03 -1.33882E+04 -1.40918E+03
 -1.07902E+04 -1.08441E+04 -1.79381E+03 -1.26057E+04  6.65325E+03 -1.01217E+04  7.74932E+03 -3.58846E+03
  5.71610E+03  2.69077E+03 -5.13865E+02  2.23335E+03 -3.97765E+02 -3.56928E+03  2.81470E+03 -7.98433E+03
  1.21820E+04 -5.41767E+03  1.67365E+04  1.78283E+03  1.61411E+04  1.17760E+04  1.07733E+04  2.20211E+04
 -5.01164E+03  2.46184E+04 -2.06898E+04  1.86764E+04 -2.67656E+04  3.61193E+03 -2.16142E+04 -9.43263E+03
 -1.06310E+04 -1.77090E+04 -4.43184E+02 -1.53552E+04  5.23308E+03 -8.82336E+03  5.17026E+03 -5.54727E+03
  3.83006E+03 -3.06797E+03  4.25207E+03 -3.71746E+03  5.90802E+03 -3.70362E+03  8.39674E+03 -1.51812E+03
  1.10969E+04  2.63587E+03  6.54027E+03  9.89996E+03 -2.67489E+03  1.17454E+04 -1.12835E+04  8.81897E+03
 -1.57126E+04 -1.36634E+03 -1.00933E+04 -1.10595E+04 -1.60291E+03 -1.63493E+04  8.86218E+03 -1.68992E+04
  1.71025E+04 -9.06447E+03  2.06814E+04  2.93615E+03  1.41128E+04  1.44974E+04  2.13144E+03  1.88527E+04
 -7.87874E+03  1.51090E+04 -1.10336E+04  5.03265E+03 -7.51084E+03 -1.88336E+03 -3.17573E+03 -2.32977E+03
 -1.42653E+03 -4.58041E+02 -2.41526E+03  2.91854E+03 -6.38312E+03  2.52568E+03 -1.04918E+04 -1.49069E+03
 -7.73290E+03 -1.06795E+04  3.99710E+01 -1.53895E+04  9.09230E+03 -1.40109E+04  1.56269E+04 -4.40480E+03
  1.54789E+04  7.76200E+03  7.68794E+03  1.41196E+04 -2.96388E+03  1.56476E+04 -1.14379E+04  1.02631E+04
 -1.47552E+04  4.04656E+02 -1.11158E+04 -9.69310E+03 -1.40717E+03 -1.28164E+04  7.27523E+03 -9.87499E+03
  1.05477E+04 -3.33616E+03  6.69562E+03  2.83262E+03  2.24479E+03  4.61218E+03  1.29766E+03  1.98397E+03
  2.79755E+03  1.28985E+03  3.70920E+03  2.02037E+03  4.70144E+03  5.34202E+03  3.83114E+03  8.62654E+03
 -3.23426E+03  1.27884E+04 -1.07045E+04  1.26188E+04 -1.65366E+04  3.38235E+03 -1.70050E+04 -6.89152E+03
 -7.67110E+03 -1.59149E+04  2.17090E+03 -1.75183E+04  9.41154E+03 -1.13576E+04  1.31797E+04 -2.93327E+03
  1.01398E+04  5.73708E+03  2.25771E+03  9.16459E+03 -4.47484E+03  5.84171E+03 -6.98189E+03 -8.55026E+02
 -2.84082E+03 -6.68399E+03  3.54654E+03 -7.52027E+03  6.44659E+03 -3.60391E+03  6.34445E+03  1.54986E+03
  4.28770E+03  3.49896E+03  1.61337E+03  2.79422E+03 -6.67242E+02  2.33723E+03  1.51299E+03 -8.40343E+02
  2.40967E+03 -6.77999E+02  7.01748E+03  2.77921E+03  3.85124E+03  8.85636E+03 -1.27843E+03  1.16236E+04
 -7.77838E+03  7.73961E+03 -1.05023E+04  2.43006E+03 -9.48268E+03 -3.78348E+03 -3.50806E+03 -6.44630E+03
  1.04664E+03 -6.59956E+03  4.21495E+03 -2.95751E+03  3.55361E+03  2.86744E+03 -1.64060E+03  5.82165E+03
 -6.65277E+03  3.40791E+03 -7.70801E+03 -3.37153E+03 -4.02692E+03 -9.40662E+03  1.32687E+03 -8.76709E+03
  5.55564E+03 -6.04324E+03  6.49599E+03 -1.12658E+03  5.30355E+03  2.12711E+03  7.38144E+02  5.21186E+03
 -3.39781E+03  1.41126E+03 -4.48191E+03 -3.05897E+03  1.66908E+03 -7.41514E+03  8.20691E+03 -5.83884E+03
  1.09898E+04  7.90703E+02  1.02237E+04  6.81392E+03  3.82089E+03  1.11104E+04 -4.22774E+03  1.03170E+04
 -9.31415E+03  4.71567E+03 -9.84310E+03 -1.49293E+03 -5.41563E+03 -7.12604E+03  1.92159E+03 -6.99877E+03
  7.01747E+03 -3.51274E+03  6.05792E+03  2.24298E+03  1.94621E+03  6.08761E+03 -8.90777E+02  4.85891E+03
 -3.16837E+03  3.53195E+03 -2.70486E+03  1.25950E+03 -1.19384E+03  4.88950E+02 -1.78228E+03  2.20178E+03
 -2.72305E+03  4.40441E+03 -7.08877E+03  3.77265E+03 -1.10343E+04  8.57267E+00 -1.23479E+04 -7.21764E+03
 -6.50713E+03 -1.48571E+04  2.90423E+03 -1.68128E+04  1.08749E+04 -1.31477E+04  1.60471E+04 -4.82206E+03
  1.50369E+04  3.14489E+03  9.06592E+03  1.03470E+04  7.98300E+02  1.19640E+04 -4.52108E+03  8.55980E+03
 -6.44787E+03  3.35540E+03 -4.05116E+03 -1.61637E+03 -8.58122E+02 -8.43029E+02 -9.21296E+02  3.14188E+00
 -1.92366E+03  8.51842E+02 -2.37442E+03 -2.77440E+02 -8.22006E+02 -2.71879E+03  4.47100E+02 -4.39341E+03
  5.58338E+03 -3.95897E+03  6.97976E+03  2.91711E+01  7.96089E+03  6.02427E+03  2.33284E+03  1.17686E+04
 -5.38825E+03  1.33504E+04 -1.24573E+04  7.66743E+03 -1.42451E+04 -8.94900E+02 -1.07720E+04 -8.59575E+03
 -4.46289E+03 -1.22472E+04  2.68612E+03 -1.12496E+04  7.69238E+03 -6.19241E+03  7.74989E+03  2.31510E+02
  4.42940E+03  3.94074E+03 -9.55015E+02  3.84436E+03 -1.93889E+03 -2.37806E+02 -1.07316E+02 -2.83555E+03
  3.66290E+03 -1.47056E+03  4.81166E+03  1.55150E+03  3.15780E+03  4.63445E+03  1.02488E+02  6.16590E+03
 -4.90303E+03  5.42245E+03 -8.04021E+03  5.01993E+02 -7.57947E+03 -5.41267E+03 -1.51614E+03 -1.00265E+04
  5.89927E+03 -8.64421E+03  8.99179E+03 -2.86057E+03  8.91886E+03  2.43759E+03  5.25536E+03  7.18310E+03
  1.06409E+03  8.21094E+03 -3.15385E+03  6.69899E+03 -5.25063E+03  3.91881E+03 -3.71562E+03  2.38072E+02
 -2.48933E+03 -3.00195E+02 -2.15795E+03  6.46603E+02 -3.96534E+03  1.34672E+03 -5.82389E+03 -1.21196E+03
 -5.91047E+03 -4.69251E+03 -1.98744E+03 -7.96556E+03  3.62738E+03 -8.25812E+03  7.24769E+03 -4.09967E+03
  8.12356E+03  7.79155E+02  4.49775E+03  5.91972E+03 -7.11752E+02  8.21652E+03 -6.47586E+03  5.10180E+03
