 $NMID ID='MM_0lb_SNR800_10hz_g55_87.RAW', FMTDAT='(8E13.5)'
 TRAMP=1., VOLUME=1. $END
  3.09784E+05  5.01405E+02  3.37690E+05  2.50732E+05  8.48895E+04  3.38257E+05 -1.32830E+05  2.51750E+05
 -1.90980E+05  8.38136E+04 -1.12444E+05 -3.23848E+04  3.66675E+02 -5.11330E+04  5.39464E+04 -8.30479E+02
  3.54819E+04  5.30002E+04 -1.71461E+04  7.57051E+04 -6.12517E+04  6.44602E+04 -8.54825E+04  3.21595E+04
 -8.27026E+04 -1.18636E+04 -5.83643E+04 -5.22343E+04 -1.52297E+04 -7.10719E+04  2.81894E+04 -4.65183E+04
  4.11140E+04  3.65255E+03  1.67393E+04  4.85450E+04 -3.49512E+04  4.82212E+04 -6.77755E+04 -5.15475E+01
 -5.46103E+04 -5.78748E+04 -7.31091E+03 -7.91509E+04  3.48601E+04 -5.70210E+04  4.91213E+04 -1.84293E+04
  4.51587E+04  1.16539E+04  3.30619E+04  2.65845E+04  1.58587E+04  3.04277E+04 -5.90406E+03  2.73402E+04
 -2.26650E+04  1.21348E+04 -1.79972E+04 -5.71970E+03  6.89283E+03 -7.29810E+03  2.34492E+04  1.35987E+04
  6.94844E+03  3.76425E+04 -3.36209E+04  3.71816E+04 -6.58585E+04  2.24841E+03 -5.88057E+04 -4.43418E+04
 -1.27689E+04 -6.51833E+04  4.12453E+04 -4.72429E+04  6.11361E+04 -2.55932E+03  3.64489E+04  3.41916E+04
 -5.45599E+03  3.91796E+04 -3.18787E+04  1.88233E+04 -3.31335E+04 -3.35414E+03 -1.88226E+04 -1.20005E+04
 -9.46492E+03 -1.50887E+04 -7.26188E+02 -1.93779E+04  8.40755E+03 -2.35348E+04  1.59475E+04 -1.28795E+04
  1.07227E+04  6.18063E+03 -1.02201E+04  1.32400E+04 -2.33796E+04 -6.61759E+03 -9.05032E+03 -3.71940E+04
  2.46540E+04 -4.64538E+04  5.16375E+04 -2.06664E+04  4.83644E+04  2.02045E+04  1.73320E+04  4.68125E+04
 -1.66502E+04  3.59553E+04 -2.75579E+04  2.51600E+03 -1.13098E+04 -2.96509E+04  2.18317E+04 -3.65812E+04
  4.42934E+04 -1.10247E+04  3.97582E+04  2.48605E+04  2.07973E+04  5.05857E+04 -8.46312E+03  5.57150E+04
 -3.52097E+04  3.77827E+04 -4.68396E+04  1.13922E+04 -4.68167E+04 -1.85714E+04 -2.61213E+04 -4.20475E+04
  7.38273E+03 -4.18841E+04  3.41156E+04 -1.69656E+04  3.18971E+04  1.09549E+04  5.04671E+03  2.06629E+04
 -1.40726E+04  9.63243E+03 -1.12653E+04 -7.54123E+03  5.34059E+03 -1.14976E+04  1.86057E+04  5.52199E+03
  1.47117E+04  2.27339E+04 -5.34658E+03  2.64366E+04 -2.32886E+04  1.41450E+04 -3.12134E+04 -3.19108E+03
 -2.48701E+04 -1.86795E+04 -1.12258E+04 -2.44078E+04  3.90619E+03 -2.49794E+04  1.95639E+04 -2.27221E+04
  3.13657E+04 -1.39937E+04  3.77104E+04  4.55658E+03  2.66995E+04  2.38312E+04  4.45593E+03  4.09734E+04
 -1.99791E+04  3.33911E+04 -3.00338E+04  1.19352E+04 -2.25162E+04 -1.01401E+04 -4.91384E+03 -1.29080E+04
  8.77081E+02 -1.40788E+03 -7.31707E+03  8.38397E+03 -2.00437E+04  5.19257E+03 -1.99399E+04 -9.27574E+03
 -1.17480E+04 -2.28994E+04  6.20442E+03 -2.74353E+04  1.85948E+04 -1.91250E+04  2.22876E+04 -1.45518E+03
  1.40124E+04  1.56254E+04 -1.60644E+03  2.28058E+04 -1.65543E+04  1.31332E+04 -2.27846E+04 -4.65413E+03
 -1.67421E+04 -2.08410E+04 -2.10523E+03 -2.76850E+04  1.22448E+04 -2.25108E+04  2.26962E+04 -1.14286E+04
  2.11651E+04  2.08618E+02  1.54619E+04  5.34241E+03  8.34805E+03  1.21033E+03  1.18662E+04 -1.84344E+03
  2.15289E+04  2.63025E+03  2.48706E+04  1.76761E+04  1.67831E+04  3.67301E+04 -2.66568E+03  4.33325E+04
 -2.45044E+04  3.58902E+04 -4.08487E+04  1.84827E+04 -4.33453E+04 -2.97910E+03 -3.51881E+04 -2.49294E+04
 -1.41889E+04 -3.62906E+04  1.26336E+04 -3.16672E+04  2.68416E+04 -1.48483E+04  2.33313E+04  7.81394E+03
  7.99008E+03  1.81389E+04 -1.10949E+04  1.51799E+04 -1.97289E+04  2.45004E+03 -1.51754E+04 -1.23478E+04
 -1.72375E+02 -1.87541E+04  1.02100E+04 -1.41912E+04  1.29277E+04 -8.84082E+02  3.30314E+03  8.89229E+03
 -8.43308E+03  4.66006E+03 -8.49494E+03 -6.93267E+03 -1.54144E+03 -1.73349E+04  1.17949E+04 -1.91455E+04
  2.24895E+04 -1.04594E+04  2.48989E+04  3.65548E+03  2.20873E+04  1.76543E+04  1.07179E+04  2.81571E+04
 -5.31365E+03  3.00802E+04 -1.96566E+04  1.88603E+04 -2.20824E+04  3.88099E+03 -1.49107E+04 -5.56085E+03
 -6.28039E+03 -6.89689E+03 -6.00534E+02  7.10922E+02 -2.92714E+03  3.80701E+03 -7.02526E+03  5.70610E+03
 -1.34279E+04 -9.16672E+02 -1.43052E+04 -1.15755E+04 -5.75775E+03 -1.83844E+04  6.13774E+03 -1.54166E+04
  1.25037E+04 -6.46651E+03  9.24416E+03  4.16058E+03 -4.84121E+02  6.11057E+03 -7.67329E+03  1.88313E+02
 -7.33383E+03 -9.86836E+03 -7.38896E+02 -1.53537E+04  8.61617E+03 -1.59814E+04  1.94542E+04 -8.47235E+03
  2.24505E+04  2.37648E+03  1.64328E+04  1.34728E+04  2.76883E+03  1.82812E+04 -9.34777E+03  1.50659E+04
 -1.22046E+04  4.46846E+03 -5.99707E+03 -3.43391E+03  2.00078E+03 -4.17797E+03  7.96329E+03 -7.82170E+02
  7.26282E+03  6.83001E+03  1.44771E+03  1.18803E+04 -8.77821E+03  1.18662E+04 -1.51039E+04  2.61521E+03
 -1.01736E+04 -8.00029E+03  3.28106E+02 -1.27242E+04  8.66073E+03 -6.90499E+03  8.82417E+03  3.30929E+03
  2.26862E+03  9.56119E+03 -7.82493E+03  1.09403E+04 -1.26483E+04  5.03375E+03 -1.31276E+04 -5.08151E+03
 -7.74561E+03 -1.50328E+04  3.46647E+03 -1.75061E+04  1.44838E+04 -1.00929E+04  1.53919E+04  2.83526E+03
  9.49288E+03  1.25866E+04 -1.35467E+03  1.47548E+04 -1.11608E+04  8.52718E+03 -1.21663E+04 -1.30878E+03
 -1.00157E+04 -1.01369E+04 -1.74476E+03 -1.14403E+04  6.01502E+03 -9.05676E+03  7.43795E+03 -3.47132E+03
  4.92925E+03  2.39549E+03 -1.03141E+03  1.73683E+03 -4.79856E+02 -3.12271E+03  2.15573E+03 -6.77665E+03
  1.08249E+04 -4.40850E+03  1.52603E+04  1.61441E+03  1.50230E+04  1.02545E+04  9.71052E+03  1.94165E+04
 -4.60686E+03  2.27129E+04 -1.89311E+04  1.68879E+04 -2.43443E+04  3.33762E+03 -1.99156E+04 -9.04540E+03
 -9.65656E+03 -1.58158E+04 -2.26332E+02 -1.38754E+04  5.15874E+03 -7.50545E+03  4.89350E+03 -4.89205E+03
  3.80609E+03 -3.01276E+03  4.04654E+03 -3.75420E+03  5.59322E+03 -3.72766E+03  7.84011E+03 -9.36870E+02
  1.03874E+04  2.08005E+03  5.45906E+03  8.77094E+03 -2.01564E+03  1.05150E+04 -1.11096E+04  8.08980E+03
 -1.41046E+04 -1.12654E+03 -8.41087E+03 -9.68501E+03 -1.12367E+03 -1.46792E+04  8.45509E+03 -1.51428E+04
  1.51157E+04 -8.16229E+03  1.82716E+04  2.06567E+03  1.29523E+04  1.31508E+04  1.80025E+03  1.67533E+04
 -6.76354E+03  1.35030E+04 -9.49052E+03  4.87003E+03 -6.64454E+03 -1.68282E+03 -2.76712E+03 -2.09152E+03
 -1.82753E+03  1.69840E+02 -2.04463E+03  2.64029E+03 -5.83099E+03  2.51143E+03 -9.49671E+03 -1.50159E+03
 -6.48733E+03 -9.25831E+03  2.58808E+01 -1.36907E+04  8.44335E+03 -1.27582E+04  1.35323E+04 -3.50894E+03
  1.30818E+04  6.74689E+03  6.06923E+03  1.19397E+04 -2.56121E+03  1.36459E+04 -9.72025E+03  8.57113E+03
 -1.27781E+04  4.51540E+02 -1.00096E+04 -8.15541E+03 -7.06680E+02 -1.17572E+04  6.04252E+03 -8.30093E+03
  8.83697E+03 -2.96634E+03  5.95959E+03  2.11813E+03  2.30833E+03  4.13687E+03  1.76595E+03  1.99168E+03
  2.74764E+03  8.52885E+02  3.53329E+03  1.76374E+03  4.25606E+03  5.04173E+03  3.60701E+03  7.55184E+03
 -2.74492E+03  1.12028E+04 -9.53941E+03  1.08797E+04 -1.42911E+04  2.47479E+03 -1.44513E+04 -5.74193E+03
 -6.77580E+03 -1.36364E+04  1.96011E+03 -1.51422E+04  8.41100E+03 -9.58880E+03  1.12808E+04 -2.49652E+03
  8.64611E+03  5.38659E+03  2.00927E+03  8.17239E+03 -3.80459E+03  5.09676E+03 -5.61819E+03 -9.52029E+02
 -2.79998E+03 -6.01405E+03  3.34930E+03 -6.05936E+03  6.02362E+03 -3.07833E+03  5.17578E+03  1.36957E+03
  2.94255E+03  2.49046E+03  1.37035E+03  2.51074E+03 -4.31118E+02  1.78070E+03  1.90558E+03 -5.91940E+02
  2.11003E+03 -6.72643E+02  5.51356E+03  2.25064E+03  3.17019E+03  7.52149E+03 -1.38415E+03  9.59636E+03
 -6.79864E+03  6.24898E+03 -8.76015E+03  1.75133E+03 -7.55802E+03 -2.86843E+03 -2.81590E+03 -5.36662E+03
  1.22374E+03 -5.40499E+03  3.50089E+03 -2.29394E+03  2.30363E+03  2.23306E+03 -1.13515E+03  4.90423E+03
 -5.68100E+03  3.03202E+03 -6.56640E+03 -3.26488E+03 -3.57269E+03 -7.50978E+03  1.11206E+03 -7.49654E+03
  4.29011E+03 -4.57605E+03  5.39673E+03 -3.49740E+02  4.48232E+03  1.87403E+03  8.45412E+02  4.02924E+03
 -2.42741E+03  1.06370E+03 -3.46811E+03 -2.98311E+03  1.76148E+03 -6.04655E+03  6.52917E+03 -4.63451E+03
  8.60404E+03  6.18094E+02  8.50992E+03  6.01746E+03  2.76593E+03  8.81815E+03 -3.03196E+03  8.84186E+03
 -7.15660E+03  3.74360E+03 -7.60275E+03 -1.43543E+03 -4.03671E+03 -5.99218E+03  1.22190E+03 -5.24039E+03
  5.68828E+03 -2.64277E+03  4.85867E+03  2.63593E+03  1.47975E+03  5.01450E+03 -9.56690E+02  4.22219E+03
 -2.16800E+03  2.93741E+03 -2.25663E+03  6.89768E+02 -7.27414E+02  1.07884E+03 -1.61538E+03  1.67222E+03
 -2.58713E+03  4.28873E+03 -6.01914E+03  2.78726E+03 -8.97803E+03  2.76686E+02 -9.54062E+03 -5.72159E+03
 -5.38826E+03 -1.15119E+04  2.23085E+03 -1.38125E+04  8.05024E+03 -1.06275E+04  1.29086E+04 -4.31442E+03
  1.18915E+04  1.95730E+03  7.66856E+03  8.07711E+03  6.48550E+02  9.27563E+03 -4.12166E+03  6.92969E+03
 -4.88860E+03  2.70914E+03 -3.19945E+03 -9.06743E+02 -1.55259E+03 -8.77395E+02 -9.15660E+02 -3.37469E+02
 -1.62456E+03  1.58637E+02 -1.71573E+03 -5.52859E+02 -4.94597E+02 -2.11510E+03  2.65522E+02 -3.17898E+03
  4.59509E+03 -2.93841E+03  5.36386E+03  2.30837E+01  6.35425E+03  5.03446E+03  1.58976E+03  8.58399E+03
 -4.34815E+03  1.05614E+04 -9.57565E+03  6.38451E+03 -1.09280E+04 -1.03184E+03 -8.60980E+03 -7.05526E+03
 -3.70383E+03 -9.25733E+03  2.35471E+03 -8.55819E+03  5.71499E+03 -4.47221E+03  5.86140E+03  4.07694E+02
  3.48039E+03  3.03636E+03 -3.53303E+02  2.32093E+03 -1.81596E+03 -3.74238E+02  2.21733E+02 -2.18170E+03
  2.70167E+03 -1.26853E+03  3.35290E+03  1.28751E+03  2.22263E+03  3.66074E+03  2.23672E+02  4.49810E+03
 -4.37903E+03  4.42911E+03 -5.92947E+03  6.83000E+02 -5.05437E+03 -4.29039E+03 -9.16378E+02 -7.56984E+03
  4.25339E+03 -6.30705E+03  7.31315E+03 -1.90436E+03  6.84733E+03  1.46157E+03  3.73529E+03  5.62954E+03
  6.27078E+02  5.95875E+03 -2.17414E+03  4.75950E+03 -3.79131E+03  2.87078E+03 -3.41021E+03  5.77585E+02
 -1.79015E+03  8.38122E+01 -1.96682E+03  7.83252E+02 -2.96982E+03  1.08113E+03 -4.67253E+03 -9.26079E+02
 -4.05677E+03 -2.92315E+03 -1.46077E+03 -6.25052E+03  2.81231E+03 -6.59783E+03  5.79033E+03 -2.83683E+03
  6.18344E+03  6.42113E+02  3.19781E+03  4.20273E+03 -6.94632E+02  6.15946E+03 -4.41283E+03  3.95480E+03
