 $NMID ID='MM_0lb_SNR800_11hz_g50_90.RAW', FMTDAT='(8E13.5)'
 TRAMP=1., VOLUME=1. $END
  3.09709E+05  3.53904E+02  3.37864E+05  2.50672E+05  8.45965E+04  3.38084E+05 -1.32367E+05  2.51663E+05
 -1.90677E+05  8.38405E+04 -1.12310E+05 -3.25470E+04  8.39610E+02 -5.02719E+04  5.37157E+04 -3.29781E+02
  3.56263E+04  5.27577E+04 -1.63204E+04  7.57148E+04 -6.10351E+04  6.42942E+04 -8.45041E+04  3.23209E+04
 -8.15255E+04 -1.16568E+04 -5.76855E+04 -5.19713E+04 -1.51490E+04 -7.04450E+04  2.78790E+04 -4.64276E+04
  4.06992E+04  3.72932E+03  1.65638E+04  4.83910E+04 -3.48700E+04  4.80391E+04 -6.74735E+04  1.37439E+02
 -5.39305E+04 -5.70734E+04 -7.16084E+03 -7.84274E+04  3.43381E+04 -5.60073E+04  4.93336E+04 -1.80691E+04
  4.43647E+04  1.14690E+04  3.24145E+04  2.63401E+04  1.55653E+04  3.01496E+04 -5.73529E+03  2.75260E+04
 -2.24213E+04  1.24372E+04 -1.82144E+04 -5.54142E+03  6.61523E+03 -7.26113E+03  2.30203E+04  1.32663E+04
  7.11253E+03  3.67157E+04 -3.34143E+04  3.61807E+04 -6.48027E+04  2.21167E+03 -5.82490E+04 -4.37465E+04
 -1.26643E+04 -6.45661E+04  4.06708E+04 -4.63052E+04  5.97578E+04 -2.02038E+03  3.58056E+04  3.35964E+04
 -6.18756E+03  3.80046E+04 -3.13508E+04  1.77183E+04 -3.22516E+04 -4.02262E+03 -1.82210E+04 -1.17430E+04
 -9.45942E+03 -1.45918E+04 -7.17436E+02 -1.92014E+04  7.72387E+03 -2.36789E+04  1.53630E+04 -1.25742E+04
  1.09074E+04  5.73202E+03 -9.41125E+03  1.30494E+04 -2.25429E+04 -6.11054E+03 -8.35953E+03 -3.57485E+04
  2.41958E+04 -4.55413E+04  5.05680E+04 -2.05509E+04  4.74150E+04  2.05202E+04  1.68746E+04  4.60775E+04
 -1.64314E+04  3.51338E+04 -2.69385E+04  2.44177E+03 -1.10096E+04 -2.89157E+04  2.09994E+04 -3.56817E+04
  4.31681E+04 -1.01851E+04  3.87629E+04  2.43858E+04  1.98511E+04  4.94239E+04 -8.27138E+03  5.35349E+04
 -3.41091E+04  3.64577E+04 -4.55541E+04  1.06706E+04 -4.56135E+04 -1.77116E+04 -2.51485E+04 -4.04191E+04
  7.35066E+03 -4.00656E+04  3.30340E+04 -1.61668E+04  3.07383E+04  1.12220E+04  4.55749E+03  2.00798E+04
 -1.36092E+04  9.24142E+03 -1.09114E+04 -7.59952E+03  5.37306E+03 -1.14044E+04  1.86020E+04  5.60628E+03
  1.43072E+04  2.22316E+04 -5.21891E+03  2.63248E+04 -2.30735E+04  1.27964E+04 -3.01417E+04 -3.81334E+03
 -2.34983E+04 -1.80616E+04 -1.00804E+04 -2.33218E+04  4.31755E+03 -2.33640E+04  1.83029E+04 -2.11722E+04
  2.93593E+04 -1.34357E+04  3.61151E+04  4.03918E+03  2.54647E+04  2.24761E+04  4.46073E+03  3.93345E+04
 -1.89418E+04  3.25350E+04 -2.96376E+04  1.12946E+04 -2.19029E+04 -9.94020E+03 -4.67066E+03 -1.30269E+04
  9.44024E+02 -1.96124E+03 -6.39690E+03  7.84148E+03 -1.87923E+04  5.07792E+03 -1.87293E+04 -8.60306E+03
 -1.12332E+04 -2.14479E+04  5.45228E+03 -2.56357E+04  1.75229E+04 -1.81464E+04  2.08796E+04 -1.61102E+03
  1.33751E+04  1.48919E+04 -1.38288E+03  2.15087E+04 -1.47916E+04  1.21173E+04 -2.16714E+04 -4.77075E+03
 -1.62868E+04 -1.91218E+04 -2.39416E+03 -2.61965E+04  1.17245E+04 -2.14489E+04  2.15607E+04 -1.06792E+04
  1.98202E+04  4.30013E+01  1.48561E+04  4.70659E+03  8.15769E+03  1.43927E+03  1.11463E+04 -1.68030E+03
  1.99134E+04  2.49657E+03  2.28576E+04  1.69183E+04  1.55423E+04  3.43311E+04 -2.95748E+03  4.02149E+04
 -2.29953E+04  3.29790E+04 -3.78238E+04  1.69409E+04 -3.99888E+04 -2.61712E+03 -3.25996E+04 -2.32831E+04
 -1.30030E+04 -3.31584E+04  1.13739E+04 -2.96652E+04  2.53632E+04 -1.44790E+04  2.22794E+04  7.22269E+03
  7.45159E+03  1.70192E+04 -1.05525E+04  1.42382E+04 -1.85443E+04  2.70535E+03 -1.42610E+04 -1.19945E+04
 -1.59943E+01 -1.76499E+04  9.56843E+03 -1.34863E+04  1.22174E+04 -1.11575E+03  2.81724E+03  7.84011E+03
 -7.59686E+03  3.23367E+03 -8.00343E+03 -6.16953E+03 -9.12594E+02 -1.63224E+04  1.11377E+04 -1.70489E+04
  2.01688E+04 -9.39672E+03  2.29293E+04  3.01395E+03  1.96613E+04  1.65611E+04  9.27887E+03  2.51645E+04
 -4.71934E+03  2.75425E+04 -1.82071E+04  1.70244E+04 -1.99984E+04  3.57970E+03 -1.35934E+04 -4.52105E+03
 -5.79443E+03 -6.24637E+03 -5.21747E+02  4.70740E+02 -2.46101E+03  3.48311E+03 -6.68919E+03  4.97450E+03
 -1.20811E+04 -8.12070E+02 -1.32966E+04 -1.07747E+04 -5.37451E+03 -1.72806E+04  5.55740E+03 -1.35814E+04
  1.14961E+04 -5.85569E+03  7.79070E+03  3.70653E+03  1.41908E+01  5.65930E+03 -6.57202E+03 -3.25138E+02
 -6.55029E+03 -9.03688E+03 -1.31343E+03 -1.33821E+04  7.60159E+03 -1.43575E+04  1.76133E+04 -7.44520E+03
  2.04293E+04  1.82959E+03  1.50208E+04  1.21263E+04  3.41689E+03  1.67678E+04 -8.45326E+03  1.36240E+04
 -1.10754E+04  3.97586E+03 -6.04163E+03 -3.14340E+03  2.24003E+03 -3.69593E+03  7.24970E+03 -8.76367E+02
  6.48249E+03  6.37331E+03  1.38628E+03  1.08721E+04 -7.83947E+03  1.04536E+04 -1.34875E+04  2.41601E+03
 -9.10659E+03 -7.15246E+03  1.16533E+02 -1.17686E+04  7.62063E+03 -6.39918E+03  7.60635E+03  2.69417E+03
  1.66519E+03  7.84234E+03 -7.33529E+03  9.91716E+03 -1.12615E+04  4.03292E+03 -1.17405E+04 -3.94596E+03
 -6.87888E+03 -1.34215E+04  3.22761E+03 -1.54758E+04  1.30025E+04 -9.33944E+03  1.42860E+04  2.54443E+03
  8.49157E+03  1.09777E+04 -1.02632E+03  1.31643E+04 -9.57356E+03  7.87732E+03 -1.04903E+04 -1.36112E+03
 -9.68905E+03 -9.18816E+03 -1.71448E+03 -1.01954E+04  5.07996E+03 -8.41709E+03  6.35290E+03 -3.39587E+03
  4.85334E+03  1.59742E+03 -7.59353E+02  1.55040E+03 -6.42846E+02 -2.76046E+03  2.29857E+03 -6.07436E+03
  9.40111E+03 -3.83508E+03  1.33031E+04  1.48601E+03  1.29636E+04  9.25514E+03  8.89608E+03  1.71018E+04
 -3.84233E+03  1.97367E+04 -1.62366E+04  1.47224E+04 -2.14503E+04  2.90520E+03 -1.72592E+04 -7.03408E+03
 -8.87646E+03 -1.44311E+04 -6.19325E+02 -1.23015E+04  4.43977E+03 -6.61141E+03  3.93238E+03 -4.39997E+03
  3.00812E+03 -2.83913E+03  3.57794E+03 -3.46684E+03  5.08888E+03 -2.98875E+03  6.83789E+03 -6.83748E+02
  8.98044E+03  2.41487E+03  5.02344E+03  7.83274E+03 -1.98627E+03  8.80008E+03 -9.30476E+03  6.58942E+03
 -1.22822E+04 -1.17629E+03 -7.60595E+03 -8.01636E+03 -1.13610E+03 -1.29394E+04  7.20081E+03 -1.28331E+04
  1.33624E+04 -7.04024E+03  1.59448E+04  2.06598E+03  1.11523E+04  1.08547E+04  1.56151E+03  1.41885E+04
 -5.56543E+03  1.22443E+04 -8.41363E+03  4.31203E+03 -5.68330E+03 -1.56148E+03 -2.34617E+03 -1.68267E+03
 -1.28946E+03 -5.15545E+01 -1.86724E+03  2.56222E+03 -4.89894E+03  1.75091E+03 -8.44615E+03 -1.06588E+03
 -5.84036E+03 -8.31052E+03  1.02100E+02 -1.19852E+04  7.13313E+03 -1.08725E+04  1.16838E+04 -2.94438E+03
  1.11315E+04  5.77529E+03  5.38159E+03  1.02448E+04 -2.31745E+03  1.19453E+04 -8.59490E+03  7.31063E+03
 -1.10695E+04  8.01624E+02 -8.77921E+03 -6.82958E+03 -8.32593E+02 -1.01852E+04  5.29944E+03 -7.16757E+03
  7.46216E+03 -2.21472E+03  5.07187E+03  2.31041E+03  1.75461E+03  3.57169E+03  1.16404E+03  1.45038E+03
  2.50701E+03  8.51658E+02  2.99310E+03  1.51693E+03  3.42019E+03  4.70965E+03  3.21222E+03  6.07084E+03
 -2.46742E+03  9.00556E+03 -8.09780E+03  9.45235E+03 -1.20327E+04  2.89369E+03 -1.21418E+04 -4.31890E+03
 -6.02857E+03 -1.15324E+04  1.65718E+03 -1.27664E+04  7.06672E+03 -8.60651E+03  9.64876E+03 -1.76955E+03
  7.32299E+03  4.41632E+03  1.42010E+03  6.83502E+03 -3.01027E+03  4.24231E+03 -4.47132E+03 -5.29063E+02
 -2.08122E+03 -4.53056E+03  3.03756E+03 -5.28621E+03  4.93633E+03 -2.35401E+03  4.63522E+03  9.87124E+02
  2.64026E+03  2.20978E+03  1.20086E+03  1.88455E+03 -6.67979E+02  1.64002E+03  1.62009E+03 -7.18542E+02
  1.88793E+03 -6.25562E+02  5.14988E+03  1.51630E+03  2.60111E+03  6.26087E+03 -9.50588E+02  8.11165E+03
 -5.45697E+03  5.02335E+03 -6.69284E+03  1.49584E+03 -6.54436E+03 -2.45707E+03 -2.06138E+03 -4.28334E+03
  5.84542E+02 -4.36176E+03  3.12368E+03 -1.95493E+03  2.28516E+03  2.68344E+03 -1.20971E+03  3.94672E+03
 -4.81761E+03  2.15957E+03 -5.24080E+03 -2.89716E+03 -2.88573E+03 -6.09377E+03  1.12514E+03 -6.35582E+03
  3.77999E+03 -3.52010E+03  4.58878E+03 -2.78804E+02  4.11874E+03  1.54241E+03  6.64335E+02  3.42585E+03
 -2.21427E+03  8.21956E+02 -3.25836E+03 -2.17353E+03  1.48136E+03 -5.07863E+03  5.63149E+03 -3.60652E+03
  7.11342E+03  5.97976E+02  7.16954E+03  4.87468E+03  2.52874E+03  7.68041E+03 -2.08396E+03  6.49896E+03
 -5.84956E+03  3.35682E+03 -6.44251E+03 -9.83891E+02 -3.38374E+03 -4.60950E+03  1.10061E+03 -4.29817E+03
  5.08608E+03 -2.19918E+03  3.56528E+03  2.01174E+03  1.07179E+03  3.88998E+03 -1.14573E+03  3.55269E+03
 -1.56758E+03  2.69666E+03 -1.62434E+03  8.19939E+02 -6.00847E+02  9.89093E+02 -1.58243E+03  1.63907E+03
 -1.74208E+03  3.04462E+03 -4.79061E+03  2.64785E+03 -6.70464E+03  3.01025E+02 -8.00013E+03 -4.46277E+03
 -4.27902E+03 -9.18339E+03  1.87097E+03 -1.11631E+04  6.55972E+03 -8.67429E+03  1.05586E+04 -2.86457E+03
  9.73187E+03  1.78272E+03  5.87005E+03  6.71513E+03  3.09695E+02  7.35012E+03 -2.72746E+03  5.28087E+03
 -4.00752E+03  1.92499E+03 -2.17992E+03 -1.03078E+03 -8.27816E+02 -2.93509E+02 -4.41792E+02 -6.82949E+01
 -1.88515E+03  3.40269E+02 -1.75517E+03 -5.16179E+02 -4.34622E+02 -1.92575E+03 -2.07220E+02 -3.14382E+03
  3.64245E+03 -2.30355E+03  4.17214E+03 -6.79539E+01  5.28464E+03  4.05708E+03  1.21334E+03  6.90158E+03
 -3.63388E+03  8.26888E+03 -7.55539E+03  5.00069E+03 -8.72386E+03 -7.66812E+02 -6.38188E+03 -5.88916E+03
 -2.89532E+03 -6.97041E+03  1.69412E+03 -6.65711E+03  4.66885E+03 -3.70466E+03  4.57323E+03  3.87543E+02
  2.82030E+03  2.22091E+03 -5.92266E+02  2.27599E+03 -1.64573E+03 -2.29452E+02 -2.68618E+01 -1.60508E+03
  2.02691E+03 -1.04655E+03  2.88945E+03  1.11662E+03  1.51604E+03  3.01864E+03  3.82383E+01  3.80864E+03
 -3.22111E+03  3.18193E+03 -4.71982E+03  3.78199E+02 -4.18684E+03 -3.03970E+03 -7.55549E+02 -6.17122E+03
  3.52893E+03 -4.99805E+03  5.30584E+03 -1.59686E+03  5.34958E+03  1.07588E+03  3.20618E+03  4.41366E+03
  9.05953E+02  4.70488E+03 -1.49459E+03  4.11640E+03 -2.66356E+03  1.79507E+03 -2.58778E+03  6.70872E+02
 -1.08512E+03 -6.00264E+02 -1.50218E+03  5.39936E+02 -2.54279E+03  8.23087E+02 -3.67558E+03 -6.10002E+02
 -3.63223E+03 -2.14135E+03 -1.21351E+03 -4.67540E+03  2.42355E+03 -5.26526E+03  4.05524E+03 -2.01084E+03
  4.73961E+03  7.71919E+02  2.18898E+03  2.90702E+03 -2.75524E+02  4.76542E+03 -3.75868E+03  2.73021E+03
