 $NMID ID='MM_0lb_SNR800_16hz_g55_36.RAW', FMTDAT='(8E13.5)'
 TRAMP=1., VOLUME=1. $END
  3.09924E+05  3.95899E+02  3.37464E+05  2.50311E+05  8.47411E+04  3.37934E+05 -1.32610E+05  2.51149E+05
 -1.90080E+05  8.28682E+04 -1.11774E+05 -3.27530E+04  1.09347E+03 -5.05541E+04  5.37932E+04  2.74869E+02
  3.52947E+04  5.28454E+04 -1.70411E+04  7.53992E+04 -6.05640E+04  6.33410E+04 -8.36920E+04  3.16599E+04
 -8.05844E+04 -1.13894E+04 -5.72703E+04 -5.09454E+04 -1.50220E+04 -6.93421E+04  2.74048E+04 -4.59341E+04
  4.00070E+04  4.38074E+03  1.60956E+04  4.79143E+04 -3.42736E+04  4.70917E+04 -6.65678E+04 -3.89945E+02
 -5.32703E+04 -5.66312E+04 -7.00110E+03 -7.66412E+04  3.36374E+04 -5.45864E+04  4.74052E+04 -1.74592E+04
  4.30375E+04  1.12966E+04  3.16763E+04  2.53193E+04  1.57772E+04  2.91236E+04 -4.93456E+03  2.71483E+04
 -2.20877E+04  1.24570E+04 -1.87824E+04 -4.60406E+03  5.64539E+03 -7.97431E+03  2.22142E+04  1.21111E+04
  7.51036E+03  3.49763E+04 -3.23630E+04  3.52807E+04 -6.30841E+04  2.46525E+03 -5.63351E+04 -4.26333E+04
 -1.25957E+04 -6.28176E+04  3.95239E+04 -4.51838E+04  5.78060E+04 -2.34312E+03  3.41037E+04  3.22967E+04
 -6.09645E+03  3.54981E+04 -2.95044E+04  1.54752E+04 -2.98991E+04 -4.85970E+03 -1.63509E+04 -1.07587E+04
 -8.10932E+03 -1.28306E+04 -9.84910E+02 -1.80318E+04  7.07366E+03 -2.28788E+04  1.55848E+04 -1.35408E+04
  1.13437E+04  4.83792E+03 -7.93008E+03  1.27665E+04 -2.08073E+04 -3.76692E+03 -8.19460E+03 -3.30090E+04
  2.27894E+04 -4.29680E+04  4.75094E+04 -1.96556E+04  4.43141E+04  1.91491E+04  1.54511E+04  4.36618E+04
 -1.59041E+04  3.30432E+04 -2.50755E+04  1.11691E+03 -9.35060E+03 -2.75072E+04  2.11524E+04 -3.33075E+04
  4.06929E+04 -8.70788E+03  3.47515E+04  2.38589E+04  1.76042E+04  4.57758E+04 -7.77444E+03  4.92244E+04
 -3.09693E+04  3.29681E+04 -4.10046E+04  9.19388E+03 -4.16624E+04 -1.64179E+04 -2.27870E+04 -3.72467E+04
  7.00204E+03 -3.70891E+04  3.09807E+04 -1.40343E+04  2.87601E+04  1.11382E+04  3.86420E+03  1.87770E+04
 -1.33400E+04  8.15212E+03 -1.04577E+04 -7.78339E+03  5.82197E+03 -1.05765E+04  1.79026E+04  6.03987E+03
  1.32427E+04  2.18052E+04 -6.21067E+03  2.46935E+04 -2.21086E+04  1.10104E+04 -2.76138E+04 -5.04136E+03
 -1.99682E+04 -1.72674E+04 -7.73864E+03 -1.97792E+04  3.76455E+03 -1.85197E+04  1.47390E+04 -1.74490E+04
  2.50287E+04 -1.25093E+04  3.12908E+04  2.63848E+03  2.31159E+04  1.91058E+04  3.97186E+03  3.55828E+04
 -1.72868E+04  2.99941E+04 -2.76561E+04  1.03389E+04 -2.02613E+04 -1.04546E+04 -4.04657E+03 -1.36611E+04
  2.05780E+03 -2.84132E+03 -4.39079E+03  6.29673E+03 -1.54537E+04  5.50648E+03 -1.56411E+04 -6.13119E+03
 -9.70992E+03 -1.81160E+04  5.01243E+03 -2.22949E+04  1.44557E+04 -1.61763E+04  1.74568E+04 -1.64434E+03
  1.11162E+04  1.22501E+04 -9.86465E+02  1.82594E+04 -1.25543E+04  1.02505E+04 -1.80323E+04 -3.59208E+03
 -1.35428E+04 -1.65929E+04 -1.74809E+03 -2.17781E+04  1.01594E+04 -1.79206E+04  1.80897E+04 -8.93690E+03
  1.67715E+04  3.42414E+02  1.21878E+04  4.31662E+03  6.35036E+03  6.85921E+02  9.26491E+03 -1.74054E+03
  1.65546E+04  2.83501E+03  1.79051E+04  1.43225E+04  1.14935E+04  2.85352E+04 -2.61974E+03  3.19808E+04
 -1.84114E+04  2.54392E+04 -2.98949E+04  1.25803E+04 -3.08619E+04 -2.44492E+03 -2.55895E+04 -1.78683E+04
 -1.13959E+04 -2.54756E+04  8.43044E+03 -2.30783E+04  1.98275E+04 -1.20322E+04  1.80960E+04  5.06890E+03
  7.08773E+03  1.37584E+04 -8.17621E+03  1.18816E+04 -1.50573E+04  2.73956E+03 -1.17612E+04 -9.33985E+03
  9.46127E+01 -1.43721E+04  7.27100E+03 -1.09225E+04  9.33365E+03 -1.09660E+03  1.90407E+03  6.05528E+03
 -6.52016E+03  2.28494E+03 -5.37809E+03 -5.46026E+03  4.93534E+01 -1.25253E+04  9.01795E+03 -1.31105E+04
  1.53308E+04 -6.71897E+03  1.58739E+04  2.92160E+03  1.37244E+04  1.17393E+04  6.53985E+03  1.84549E+04
 -2.60890E+03  2.01068E+04 -1.25527E+04  1.27691E+04 -1.45065E+04  3.32007E+03 -1.06046E+04 -2.84622E+03
 -5.11506E+03 -4.34333E+03 -8.97630E+02  9.15879E+02 -2.39373E+03  2.48265E+03 -4.76503E+03  3.95846E+03
 -9.65554E+03 -7.04964E+02 -1.02108E+04 -8.52442E+03 -4.38131E+03 -1.36506E+04  4.33953E+03 -1.07238E+04
  8.50600E+03 -4.49935E+03  6.49438E+03  2.66030E+03  2.57178E+02  3.87288E+03 -4.62492E+03  1.63097E+02
 -4.64236E+03 -6.33272E+03 -1.20475E+03 -9.57175E+03  5.24913E+03 -1.01478E+04  1.27363E+04 -5.13369E+03
  1.47085E+04  1.31689E+03  1.07329E+04  8.11634E+03  2.04134E+03  1.15902E+04 -6.31789E+03  1.02930E+04
 -8.56692E+03  3.33016E+03 -4.23676E+03 -1.90648E+03  1.51121E+03 -2.56497E+03  5.62849E+03 -9.23062E+02
  4.67893E+03  4.31159E+03  1.32121E+03  7.89355E+03 -5.49317E+03  7.84328E+03 -9.77875E+03  2.12088E+03
 -6.33369E+03 -4.88233E+03  4.22688E+02 -8.64961E+03  4.90967E+03 -3.88946E+03  5.10857E+03  1.77580E+03
  1.01426E+03  5.09151E+03 -5.18554E+03  6.29189E+03 -7.21667E+03  3.10184E+03 -6.77109E+03 -2.22156E+03
 -4.00005E+03 -8.25914E+03  1.57943E+03 -9.98092E+03  8.20533E+03 -6.38666E+03  8.85873E+03  1.34175E+03
  5.91072E+03  7.18425E+03 -2.38510E+02  9.48267E+03 -6.80648E+03  5.14621E+03 -7.00798E+03 -6.34703E+02
 -7.25717E+03 -6.65480E+03 -1.43050E+03 -6.93873E+03  3.44103E+03 -5.77847E+03  3.81088E+03 -2.87706E+03
  3.27705E+03  4.64895E+02 -2.22400E+02  1.68205E+03  5.21880E+02 -9.12318E+02  8.89235E+02 -3.14696E+03
  5.75728E+03 -1.93013E+03  7.92049E+03  9.44787E+02  7.82412E+03  4.89581E+03  6.44428E+03  1.04916E+04
 -1.95960E+03  1.19791E+04 -1.03564E+04  8.94995E+03 -1.34404E+04  1.62674E+03 -1.07956E+04 -4.14264E+03
 -5.76190E+03 -8.66429E+03 -5.42008E+02 -7.18132E+03  2.60294E+03 -3.35070E+03  2.63871E+03 -2.72138E+03
  1.80653E+03 -1.79335E+03  2.50013E+03 -2.82939E+03  4.20040E+03 -1.68258E+03  4.92436E+03 -1.03973E+02
  5.98948E+03  1.89401E+03  2.20340E+03  4.74187E+03 -1.80224E+03  4.57213E+03 -5.68568E+03  3.69045E+03
 -7.45622E+03 -9.95211E+02 -3.47475E+03 -4.70051E+03  2.46599E+01 -7.09106E+03  4.35280E+03 -7.66393E+03
  7.73432E+03 -4.31567E+03  9.18368E+03  8.72326E+02  6.62550E+03  6.03794E+03  1.43572E+03  8.45444E+03
 -2.84014E+03  7.42012E+03 -4.94231E+03  2.52304E+03 -2.86228E+03 -1.05119E+03 -8.29122E+02 -8.09220E+02
 -5.83556E+02  5.27361E+02 -1.28510E+03  2.12865E+03 -3.69063E+03  1.51892E+03 -5.22339E+03 -4.23211E+02
 -2.62061E+03 -5.48791E+03  7.56736E+02 -6.63847E+03  3.85677E+03 -6.21493E+03  5.50103E+03 -2.06137E+03
  6.04617E+03  3.40613E+03  2.83013E+03  5.15754E+03 -1.20950E+03  6.49855E+03 -4.17951E+03  3.89196E+03
 -5.75940E+03  7.22284E+02 -4.71822E+03 -3.83317E+03 -4.52469E+02 -5.05749E+03  2.41341E+03 -3.54164E+03
  3.79573E+03 -1.76518E+03  2.41584E+03  9.31786E+02  6.10658E+02  2.19260E+03  1.03088E+03  1.09444E+03
  1.88556E+03  5.08881E+02  1.36338E+03  9.59146E+02  1.72734E+03  3.11690E+03  1.98575E+03  2.85601E+03
 -1.56018E+03  4.15432E+03 -3.83306E+03  5.38802E+03 -5.19572E+03  1.55721E+03 -6.49569E+03 -1.44546E+03
 -2.61314E+03 -5.75914E+03  8.35728E+02 -6.70896E+03  3.01640E+03 -4.14482E+03  4.60224E+03 -1.55565E+03
  3.59999E+03  2.68445E+03  1.01992E+03  3.42756E+03 -1.57298E+03  2.28726E+03 -1.99240E+03 -1.36352E+02
 -1.10193E+03 -2.31651E+03  1.75793E+03 -2.75479E+03  2.02107E+03 -1.30916E+03  2.28336E+03  3.45279E+02
  1.20514E+03  8.63353E+02  8.85893E+02  3.49928E+02 -7.35673E+02  1.02274E+03  1.58452E+03 -4.53175E+02
  2.78129E+02 -2.27266E+02  2.53991E+03  8.67709E+02  1.02320E+03  3.48449E+03 -5.11848E+02  4.21272E+03
 -2.60983E+03  2.32434E+03 -3.39148E+03  6.59233E+02 -3.25649E+03 -1.57320E+03 -7.54778E+02 -1.70146E+03
  3.10101E+02 -1.95063E+03  1.57163E+03 -1.19056E+03  1.14706E+03  1.47528E+03 -7.72130E+02  1.52812E+03
 -2.51382E+03  9.45567E+02 -2.14357E+03 -1.61983E+03 -1.38180E+03 -3.21382E+03  1.18547E+02 -2.79884E+03
  1.19643E+03 -1.39751E+03  1.76752E+03 -5.40743E+01  1.89142E+03  3.84297E+02  3.39578E+02  1.87494E+03
 -7.92032E+02  9.35216E+01 -1.52071E+03 -8.42924E+02  7.75259E+02 -1.61714E+03  2.79899E+03 -1.45448E+03
  2.56096E+03  2.60200E+02  3.79311E+03  1.66787E+03  1.49334E+03  3.16469E+03 -2.66567E+02  3.05357E+03
 -2.43312E+03  7.73048E+02 -2.52512E+03 -2.40940E+02 -1.20356E+03 -2.18880E+03  9.41480E+02 -1.19012E+03
  2.19250E+03 -8.90690E+02  1.37222E+03  6.43817E+02  4.91530E+02  2.08739E+03 -1.11964E+01  1.77774E+03
 -6.29483E+02  1.54690E+03 -6.79506E+02  5.61531E+02 -4.95983E+01  4.80908E+02 -8.01898E+02  7.78316E+02
 -6.73053E+02  1.47703E+03 -2.41548E+03  8.10143E+02 -3.14601E+03  2.95536E+02 -3.53473E+03 -1.86412E+03
 -1.82974E+03 -3.85342E+03  7.66373E+02 -4.66805E+03  2.31171E+03 -3.53028E+03  4.33577E+03 -1.44504E+03
  3.76765E+03  6.51486E+01  1.79492E+03  2.71609E+03 -3.18861E+02  2.69327E+03 -1.35375E+03  2.31070E+03
 -1.43521E+03  1.15848E+03 -1.00684E+03 -2.53607E+02 -2.48323E+02  1.05073E+02 -4.28407E+02  1.75210E+02
 -1.07108E+03 -2.78568E+02 -1.08112E+03 -1.44233E+02  4.37789E+01 -9.13116E+02 -3.79630E+02 -1.44677E+03
  1.68180E+03 -8.40830E+02  1.19992E+03  5.56762E+01  1.98332E+03  1.72103E+03 -4.04399E+01  2.52741E+03
 -1.63539E+03  3.30009E+03 -2.75204E+03  2.29296E+03 -3.09852E+03 -3.33376E+02 -2.22482E+03 -2.08946E+03
 -9.41919E+02 -2.80659E+03  4.27727E+02 -2.19361E+03  1.37938E+03 -1.19673E+03  1.23708E+03  1.48142E+02
  9.53129E+02  5.48109E+02 -1.61327E+02  5.09827E+02 -5.06434E+02 -6.02348E+01 -9.51520E+01 -4.08943E+02
  8.21227E+02  2.67742E+02  7.52966E+02  5.54275E+02  4.07280E+02  1.10921E+03  5.35461E+02  7.55484E+02
 -8.75878E+02  1.13712E+03 -1.28140E+03  1.27200E+02 -1.35247E+03 -8.71539E+02 -4.53492E+02 -2.03584E+03
  7.18735E+02 -1.40677E+03  1.43437E+03 -4.50667E+02  1.58680E+03 -3.57900E+02  8.84173E+02  1.60419E+03
  3.07703E+02  1.14578E+03 -3.07510E+02  1.01580E+03 -9.55471E+02  8.91290E+02 -9.24985E+02 -2.70358E+01
 -3.22643E+02 -2.46863E+02 -6.89744E+02  2.41822E+02 -9.86460E+02 -9.78821E+01 -1.42341E+03 -2.77120E+02
 -1.44163E+03 -4.36901E+02 -5.82867E+02 -1.65068E+03  1.20030E+03 -1.84308E+03  1.30750E+03 -8.02551E+02
  1.40355E+03  3.52907E+02 -1.25937E+01  4.88837E+02  1.46205E+02  1.24598E+03 -8.88161E+02  1.12905E+03
