 $NMID ID='MM_0lb_SNR800_20hz_g55_57.RAW', FMTDAT='(8E13.5)'
 TRAMP=1., VOLUME=1. $END
  3.09583E+05  3.05418E+02  3.37346E+05  2.50586E+05  8.45703E+04  3.37673E+05 -1.32337E+05  2.50174E+05
 -1.89835E+05  8.27010E+04 -1.11062E+05 -3.27001E+04  1.33920E+03 -5.03580E+04  5.39203E+04  1.23781E+02
  3.52442E+04  5.29338E+04 -1.68957E+04  7.48682E+04 -6.01596E+04  6.29471E+04 -8.30242E+04  3.15261E+04
 -7.98919E+04 -1.09821E+04 -5.60733E+04 -5.04647E+04 -1.50436E+04 -6.83717E+04  2.70893E+04 -4.47979E+04
  3.92243E+04  3.81532E+03  1.53520E+04  4.71710E+04 -3.39261E+04  4.62983E+04 -6.54487E+04 -4.37412E+02
 -5.23022E+04 -5.60057E+04 -6.39521E+03 -7.53054E+04  3.32546E+04 -5.32625E+04  4.65301E+04 -1.65864E+04
  4.18908E+04  1.12084E+04  3.10294E+04  2.45551E+04  1.56903E+04  2.83484E+04 -4.78075E+03  2.68570E+04
 -2.18707E+04  1.27396E+04 -1.90655E+04 -4.67720E+03  4.39481E+03 -7.73398E+03  2.14794E+04  1.11319E+04
  7.57544E+03  3.34733E+04 -3.05712E+04  3.42733E+04 -6.12943E+04  2.17502E+03 -5.55247E+04 -4.13314E+04
 -1.24960E+04 -6.10971E+04  3.81294E+04 -4.36843E+04  5.54665E+04 -2.15694E+03  3.19535E+04  3.07355E+04
 -6.47571E+03  3.30829E+04 -2.85607E+04  1.36459E+04 -2.79203E+04 -5.20555E+03 -1.46634E+04 -1.00529E+04
 -7.38701E+03 -1.11993E+04 -1.01133E+03 -1.68592E+04  6.62968E+03 -2.27415E+04  1.49456E+04 -1.37534E+04
  1.18439E+04  4.43253E+03 -6.30299E+03  1.31824E+04 -1.95756E+04 -2.36904E+03 -8.14762E+03 -3.04635E+04
  2.10426E+04 -4.07342E+04  4.51572E+04 -1.88920E+04  4.19701E+04  1.79560E+04  1.44820E+04  4.17436E+04
 -1.54386E+04  3.10032E+04 -2.35374E+04  8.77016E+02 -8.39359E+03 -2.65419E+04  2.05110E+04 -3.13337E+04
  3.80501E+04 -7.54811E+03  3.15061E+04  2.28814E+04  1.54452E+04  4.26604E+04 -7.58283E+03  4.50287E+04
 -2.81093E+04  3.00915E+04 -3.73229E+04  8.34284E+03 -3.83872E+04 -1.50078E+04 -2.11136E+04 -3.46103E+04
  6.90524E+03 -3.41244E+04  2.90911E+04 -1.27335E+04  2.67939E+04  1.06296E+04  3.04474E+03  1.78799E+04
 -1.33309E+04  7.17235E+03 -9.52632E+03 -7.45928E+03  6.00007E+03 -9.68089E+03  1.70805E+04  6.51669E+03
  1.22195E+04  2.18330E+04 -6.52404E+03  2.34262E+04 -2.13225E+04  9.08557E+03 -2.52151E+04 -6.44445E+03
 -1.64428E+04 -1.64163E+04 -5.58554E+03 -1.64542E+04  3.89658E+03 -1.47395E+04  1.25680E+04 -1.44710E+04
  2.11973E+04 -1.17893E+04  2.79676E+04  9.80247E+02  2.12621E+04  1.61715E+04  4.24234E+03  3.22718E+04
 -1.59627E+04  2.73602E+04 -2.57755E+04  9.43845E+03 -1.96355E+04 -1.01287E+04 -4.07067E+03 -1.40072E+04
  2.65181E+03 -4.22008E+03 -2.76406E+03  5.27073E+03 -1.29244E+04  5.41003E+03 -1.31803E+04 -4.82206E+03
 -8.63559E+03 -1.52916E+04  4.42150E+03 -1.91310E+04  1.25700E+04 -1.38032E+04  1.45889E+04 -1.49722E+03
  8.89662E+03  1.02417E+04 -6.97822E+02  1.55662E+04 -1.02615E+04  8.82526E+03 -1.52349E+04 -3.32317E+03
 -1.12922E+04 -1.40325E+04 -1.28187E+03 -1.87169E+04  8.52859E+03 -1.51819E+04  1.59581E+04 -7.15157E+03
  1.44243E+04  5.69091E+02  1.01825E+04  3.70229E+03  4.91432E+03  5.27036E+02  7.60703E+03 -1.13438E+03
  1.34887E+04  2.75564E+03  1.43960E+04  1.19734E+04  8.74785E+03  2.41191E+04 -3.02069E+03  2.60169E+04
 -1.55464E+04  1.98550E+04 -2.39184E+04  9.15561E+03 -2.41304E+04 -1.62989E+03 -2.08348E+04 -1.37142E+04
 -1.00138E+04 -1.96650E+04  6.63742E+03 -1.84165E+04  1.58693E+04 -1.08051E+04  1.50303E+04  3.66312E+03
  6.64519E+03  1.07185E+04 -6.64711E+03  1.00985E+04 -1.29029E+04  2.84647E+03 -1.03712E+04 -7.67571E+03
 -2.88824E+01 -1.22611E+04  6.11286E+03 -9.20988E+03  7.67065E+03 -1.32141E+03  1.37893E+03  4.81177E+03
 -5.25340E+03  1.08871E+03 -3.56132E+03 -4.34514E+03  6.88181E+02 -9.71621E+03  7.48294E+03 -9.81501E+03
  1.19097E+04 -4.11664E+03  1.11522E+04  2.91243E+03  9.76892E+03  9.05177E+03  4.78634E+03  1.33374E+04
 -1.31793E+03  1.49521E+04 -8.95764E+03  9.75622E+03 -1.06311E+04  2.75554E+03 -8.22570E+03 -1.61227E+03
 -4.33941E+03 -3.22026E+03 -6.56328E+02  1.61385E+03 -1.77943E+03  1.71735E+03 -3.34746E+03  3.36954E+03
 -7.45945E+03 -4.37860E+02 -8.33533E+03 -7.32083E+03 -3.34774E+03 -1.10795E+04  3.44878E+03 -8.23245E+03
  7.12572E+03 -3.76591E+03  4.97314E+03  1.98049E+03  6.73942E+02  2.96208E+03 -3.14607E+03 -2.08080E+01
 -2.97180E+03 -4.76813E+03 -7.40215E+02 -6.68896E+03  3.62822E+03 -7.46293E+03  9.49776E+03 -3.52778E+03
  1.10147E+04  5.88254E+02  8.10455E+03  5.45438E+03  1.67028E+03  8.15913E+03 -5.14559E+03  7.97434E+03
 -6.49833E+03  2.58184E+03 -3.33979E+03 -9.62428E+02  1.03199E+03 -1.67788E+03  4.61643E+03 -1.07458E+03
  4.01248E+03  3.11199E+03  1.02929E+03  5.88252E+03 -3.95894E+03  5.95643E+03 -7.38465E+03  1.76917E+03
 -4.65238E+03 -3.46966E+03  4.05204E+02 -6.36330E+03  3.22641E+03 -3.06990E+03  3.09573E+03  1.03913E+03
  5.44470E+02  2.91703E+03 -3.95749E+03  4.38067E+03 -4.14055E+03  2.37093E+03 -3.69842E+03 -6.16284E+02
 -2.54069E+03 -5.51850E+03  1.13498E+03 -6.31979E+03  5.28115E+03 -4.22552E+03  5.73974E+03  7.40248E+02
  4.53597E+03  4.76121E+03  1.51322E+02  6.54046E+03 -4.65593E+03  3.77865E+03 -4.99254E+03 -3.42857E+02
 -5.26458E+03 -4.57428E+03 -1.34493E+03 -4.48218E+03  2.35364E+03 -4.50237E+03  2.63186E+03 -2.73127E+03
  2.52363E+03  1.42626E+01  2.03923E+02  1.15184E+03  4.26851E+02 -3.62448E+01 -3.21583E+02 -1.46078E+03
  3.31632E+03 -2.68449E+02  4.50581E+03  6.57547E+02  4.69251E+03  2.96799E+03  4.82336E+03  6.15295E+03
 -1.22454E+03  7.33716E+03 -6.91089E+03  5.69573E+03 -8.63138E+03  1.17515E+03 -6.92086E+03 -2.07219E+03
 -3.83403E+03 -5.81803E+03 -3.21793E+02 -4.59383E+03  1.97054E+03 -1.70800E+03  1.52320E+03 -1.93486E+03
  1.05275E+03 -1.59006E+03  2.39501E+03 -2.07265E+03  3.76680E+03 -1.34308E+03  3.43786E+03  6.78014E+02
  3.81921E+03  1.02179E+03  6.56403E+02  3.04285E+03 -1.24242E+03  2.16965E+03 -4.06702E+03  2.34619E+03
 -4.10447E+03 -1.04823E+03 -1.25041E+03 -2.79755E+03  7.22548E+02 -4.39748E+03  2.75683E+03 -4.54225E+03
  4.26252E+03 -3.11512E+03  5.88414E+03 -6.44829E+01  4.11719E+03  3.57482E+03  1.10054E+03  5.31857E+03
 -1.68760E+03  5.17151E+03 -2.68209E+03  1.58673E+03 -1.56969E+03 -9.54010E+02 -2.53467E+02 -2.08631E+02
 -1.15509E+02  5.83988E+02 -6.13441E+02  1.90316E+03 -2.05874E+03  1.13913E+03 -3.83405E+03 -2.43976E+02
 -1.27617E+03 -3.84782E+03  1.19964E+03 -3.87640E+03  2.57243E+03 -3.70352E+03  2.86289E+03 -9.49689E+02
  3.39867E+03  1.74618E+03  1.52165E+03  2.56226E+03 -8.61372E+02  3.64255E+03 -1.97997E+03  2.27279E+03
 -3.13001E+03  4.68808E+02 -3.03922E+03 -1.90222E+03 -4.32496E+02 -2.51937E+03  1.27985E+03 -2.00641E+03
  2.08961E+03 -1.24973E+03  1.33238E+03  2.06411E+02  3.83235E+02  1.43319E+03  6.29435E+02  2.66372E+02
  1.54943E+03  6.44363E+02  1.04564E+03  1.09785E+03  6.15376E+02  2.04142E+03  1.13184E+03  1.43781E+03
 -1.35833E+03  2.56605E+03 -2.03825E+03  3.39571E+03 -2.24682E+03  1.05732E+03 -3.20170E+03  7.85145E+01
 -1.49588E+03 -2.91736E+03  4.20026E+02 -3.92330E+03  1.33456E+03 -1.95833E+03  2.27182E+03 -7.32025E+02
  1.97795E+03  1.54992E+03  2.27855E+02  1.83893E+03 -5.15452E+02  7.48922E+02 -6.54815E+02 -3.55007E+01
 -5.48718E+02 -1.19733E+03  1.31525E+03 -1.20251E+03  9.84161E+02 -7.82446E+02  1.04529E+03  3.56524E+01
  4.56289E+02  6.96566E+01  7.44209E+02 -5.77945E+02 -5.57878E+01  5.93047E+02  1.52693E+03 -1.54561E+02
 -1.51113E+02 -2.79356E+02  1.38709E+03  4.22092E+02  3.26597E+02  1.89810E+03 -2.43005E+02  2.34766E+03
 -1.25211E+03  7.53699E+02 -1.54692E+03  7.06202E+01 -1.72304E+03 -6.47472E+02  2.04887E+01 -9.25538E+02
  4.31137E+02 -7.98674E+02  6.26716E+02 -4.50843E+02  4.91116E+02  1.23647E+03 -8.08825E+02  9.21065E+02
 -1.20120E+03  4.36288E+02 -6.15635E+02 -8.34544E+02 -4.25001E+02 -1.61603E+03  1.94064E+02 -1.08361E+03
  2.43562E+02 -2.72329E+02  3.27581E+02  2.36939E+02  1.19633E+03 -5.11604E+01  2.86854E+02  9.85955E+02
 -2.41817E+02  1.42560E+02 -5.17644E+02 -6.58196E+01  5.60599E+02 -4.11730E+02  1.21194E+03 -5.39051E+02
  6.53482E+02  8.44902E+01  2.21493E+03  2.64222E+02  9.06958E+02  1.41427E+03 -1.11508E+02  1.50197E+03
 -8.51050E+02  8.29028E+01 -1.08324E+03 -1.42671E+02 -5.99169E+02 -1.10223E+03  3.37281E+02 -2.01079E+02
  1.06854E+03 -6.98625E+02  5.80863E+02  7.85704E+02  3.38838E+02  1.03684E+03  3.44467E+02  8.32777E+02
 -2.40850E+02  1.02952E+03 -2.68921E+02  3.44157E+02  8.87300E+00  3.77378E+02 -7.96838E+02  5.30092E+02
 -6.03271E+02  9.95910E+02 -1.35047E+03  2.85431E+02 -1.21505E+03  3.29282E+02 -1.80145E+03 -4.89559E+02
 -5.77635E+02 -1.64472E+03  2.13984E+02 -2.08573E+03  4.52720E+02 -1.99079E+03  1.93543E+03 -6.08131E+02
  1.45349E+03 -4.22604E+02  7.86785E+02  1.18217E+03 -1.01525E+03  7.30988E+02 -4.61772E+02  1.01061E+03
 -7.19673E+02  8.10910E+02 -4.53364E+02 -3.44697E+02 -5.08772E+02  2.74102E+02 -6.75023E+02  3.46608E+01
 -1.03303E+03  1.05396E+02 -8.46237E+02  5.35827E+01  4.17654E+02 -4.16191E+02 -5.86059E+02 -6.98725E+02
  1.25335E+03 -1.19652E+02  2.84544E+02 -1.29727E+01  7.41361E+02  4.89942E+02 -3.82299E+02  7.56562E+02
 -7.66408E+02  1.85421E+03 -1.16363E+03  9.98331E+02 -7.97180E+02 -1.57847E+02 -3.95024E+02 -7.24824E+02
 -8.67417E+02 -1.02688E+03  1.73039E+02 -6.41583E+02  2.05021E+02 -2.54090E+02  2.59467E+02 -2.51321E+01
  5.63311E+02  2.38140E+02  1.19829E+02  1.31864E+02  6.97497E+00  8.65521E+01 -2.02122E+02 -7.98318E+01
  2.30591E+02  2.27012E+01  1.99710E+02  4.64156E+02 -1.47398E+02  3.56166E+02  6.12211E+02 -1.51184E+01
 -2.20290E+02  4.21937E+02 -2.52899E+02 -5.47185E+00 -6.54994E+02 -3.29950E+01  3.29304E+02 -5.88310E+02
  3.20018E+02 -1.10772E+02  2.41085E+02  1.05506E+02  7.51404E+02 -1.03774E+03  1.27118E+02  4.89810E+02
  4.53856E+02  4.67993E+02  9.17140E+01 -6.47222E+01 -1.71424E+02  5.52093E+02 -1.99707E+02  1.70393E+02
 -1.25154E+01 -9.65754E+01 -3.78280E+02  1.48267E+02 -4.24222E+02  1.39543E+00 -4.90764E+02 -2.00412E+02
 -7.44154E+02  4.07335E+02 -4.56182E+02 -7.02579E+02  6.76894E+02 -1.24651E+03  6.22278E+02 -3.82766E+01
  2.39046E+02  1.19582E+02 -7.78147E+02  2.91676E+01  8.65692E+01  4.39022E+02 -2.57438E+02  5.51412E+02
