 $NMID ID='MM_0lb_SNR800_16hz_g45_17.RAW', FMTDAT='(8E13.5)'
 TRAMP=1., VOLUME=1. $END
  3.09915E+05  5.79726E+02  3.37600E+05  2.50799E+05  8.45824E+04  3.37750E+05 -1.32327E+05  2.50430E+05
 -1.90085E+05  8.28823E+04 -1.11276E+05 -3.27889E+04  1.14740E+03 -5.04195E+04  5.38197E+04 -3.96965E+01
  3.50414E+04  5.28558E+04 -1.71374E+04  7.49695E+04 -6.05812E+04  6.29436E+04 -8.35338E+04  3.16569E+04
 -8.03723E+04 -1.11890E+04 -5.68514E+04 -5.04944E+04 -1.49793E+04 -6.90308E+04  2.69364E+04 -4.56117E+04
  3.94432E+04  3.80690E+03  1.60863E+04  4.75713E+04 -3.41913E+04  4.68330E+04 -6.59406E+04 -3.21783E+02
 -5.25471E+04 -5.61661E+04 -6.58130E+03 -7.59066E+04  3.32659E+04 -5.39084E+04  4.70887E+04 -1.70290E+04
  4.21449E+04  1.15938E+04  3.13970E+04  2.48098E+04  1.55275E+04  2.86108E+04 -4.75640E+03  2.69701E+04
 -2.18706E+04  1.27213E+04 -1.90723E+04 -4.16471E+03  4.71782E+03 -7.58876E+03  2.17968E+04  1.15029E+04
  7.26078E+03  3.40087E+04 -3.13069E+04  3.46896E+04 -6.22596E+04  2.05014E+03 -5.62645E+04 -4.20076E+04
 -1.25014E+04 -6.17215E+04  3.89544E+04 -4.45379E+04  5.69389E+04 -1.88334E+03  3.30059E+04  3.14486E+04
 -6.40256E+03  3.44016E+04 -2.90507E+04  1.48383E+04 -2.89888E+04 -4.82826E+03 -1.55704E+04 -1.02230E+04
 -7.81560E+03 -1.21895E+04 -8.45689E+02 -1.72248E+04  6.90025E+03 -2.27496E+04  1.52302E+04 -1.36299E+04
  1.19820E+04  4.89115E+03 -7.23823E+03  1.27263E+04 -2.02964E+04 -3.40119E+03 -8.04530E+03 -3.21748E+04
  2.18373E+04 -4.20623E+04  4.60523E+04 -1.91290E+04  4.33034E+04  1.87778E+04  1.49644E+04  4.28448E+04
 -1.56271E+04  3.20888E+04 -2.40758E+04  1.40496E+03 -9.08066E+03 -2.68910E+04  2.04474E+04 -3.23714E+04
  3.94833E+04 -7.91757E+03  3.33866E+04  2.33858E+04  1.68921E+04  4.42268E+04 -7.73723E+03  4.79244E+04
 -3.00249E+04  3.17058E+04 -3.92091E+04  8.87082E+03 -4.04414E+04 -1.58418E+04 -2.20632E+04 -3.60791E+04
  7.10790E+03 -3.56892E+04  3.02841E+04 -1.33404E+04  2.77921E+04  1.06775E+04  3.54644E+03  1.82379E+04
 -1.30227E+04  7.63675E+03 -9.88554E+03 -7.55246E+03  6.13751E+03 -1.02455E+04  1.75906E+04  6.04771E+03
  1.27549E+04  2.17112E+04 -6.27328E+03  2.38906E+04 -2.16108E+04  1.01615E+04 -2.64667E+04 -5.69230E+03
 -1.84947E+04 -1.65675E+04 -6.86053E+03 -1.85372E+04  3.91789E+03 -1.69866E+04  1.40027E+04 -1.61364E+04
  2.32979E+04 -1.21029E+04  3.00235E+04  1.72213E+03  2.24572E+04  1.79807E+04  3.89133E+03  3.43461E+04
 -1.69880E+04  2.89620E+04 -2.68596E+04  9.93387E+03 -2.02961E+04 -1.02809E+04 -4.13239E+03 -1.35466E+04
  2.41637E+03 -3.46072E+03 -3.51966E+03  5.97933E+03 -1.47239E+04  5.31317E+03 -1.48106E+04 -5.69781E+03
 -9.03928E+03 -1.69182E+04  5.30602E+03 -2.10964E+04  1.36850E+04 -1.51765E+04  1.63498E+04 -1.33573E+03
  1.00996E+04  1.17097E+04 -9.16516E+02  1.71543E+04 -1.18653E+04  9.86204E+03 -1.72546E+04 -3.66275E+03
 -1.28362E+04 -1.55078E+04 -1.82590E+03 -2.07496E+04  9.23923E+03 -1.69785E+04  1.77875E+04 -8.28982E+03
  1.60769E+04  3.41379E+02  1.14810E+04  4.08299E+03  6.06069E+03  8.05433E+02  8.58977E+03 -1.28408E+03
  1.55119E+04  2.61943E+03  1.67135E+04  1.40126E+04  1.06952E+04  2.72465E+04 -2.96934E+03  3.02824E+04
 -1.77969E+04  2.37307E+04 -2.76354E+04  1.15162E+04 -2.88841E+04 -2.07763E+03 -2.41469E+04 -1.67299E+04
 -1.11080E+04 -2.36095E+04  8.04939E+03 -2.19485E+04  1.90508E+04 -1.16468E+04  1.70503E+04  4.54939E+03
  6.65999E+03  1.28696E+04 -7.92770E+03  1.15003E+04 -1.49801E+04  2.58226E+03 -1.14691E+04 -8.98279E+03
 -3.25772E+02 -1.37278E+04  6.99357E+03 -1.02967E+04  9.29117E+03 -1.34363E+03  2.08803E+03  5.78556E+03
 -6.09531E+03  2.08747E+03 -4.77446E+03 -5.11773E+03  1.10476E+02 -1.18028E+04  8.64331E+03 -1.20179E+04
  1.44501E+04 -5.72826E+03  1.43511E+04  2.84363E+03  1.27636E+04  1.13129E+04  5.97864E+03  1.68971E+04
 -2.40240E+03  1.89139E+04 -1.16528E+04  1.17892E+04 -1.34508E+04  3.14066E+03 -9.41139E+03 -2.52988E+03
 -5.08145E+03 -3.80077E+03 -5.25822E+02  1.48254E+03 -2.15902E+03  2.14310E+03 -4.30604E+03  3.95875E+03
 -9.02768E+03 -6.91399E+02 -9.76171E+03 -7.94933E+03 -3.98700E+03 -1.27941E+04  3.94467E+03 -9.99876E+03
  8.15505E+03 -4.06937E+03  6.08702E+03  2.45927E+03  4.89642E+02  3.57089E+03 -4.21008E+03 -1.47940E+01
 -4.02011E+03 -6.11897E+03 -9.88565E+02 -8.74391E+03  4.86526E+03 -9.61048E+03  1.16801E+04 -4.78277E+03
  1.39214E+04  8.77363E+02  1.03439E+04  7.65341E+03  2.12142E+03  1.04259E+04 -6.27055E+03  9.66384E+03
 -7.64914E+03  3.28463E+03 -4.01209E+03 -1.64485E+03  1.65184E+03 -2.14769E+03  5.40769E+03 -9.17767E+02
  5.07036E+03  4.07689E+03  9.11295E+02  7.38979E+03 -5.19963E+03  7.33154E+03 -9.10612E+03  2.27088E+03
 -6.06902E+03 -4.36670E+03  3.32337E+02 -7.89317E+03  4.63179E+03 -3.98513E+03  4.63831E+03  1.28013E+03
  5.36720E+02  4.59450E+03 -4.62631E+03  6.11137E+03 -6.50119E+03  2.36427E+03 -6.18053E+03 -1.99942E+03
 -3.72101E+03 -7.74100E+03  1.77086E+03 -8.89276E+03  7.75097E+03 -5.83730E+03  8.39837E+03  1.15244E+03
  5.56208E+03  6.77272E+03 -1.91086E+02  8.89864E+03 -6.14088E+03  4.54396E+03 -6.72384E+03 -4.33538E+02
 -6.83198E+03 -6.25811E+03 -1.22473E+03 -6.06011E+03  3.20870E+03 -5.44350E+03  3.96208E+03 -2.90131E+03
  3.37872E+03  2.90970E+02 -2.99796E+02  1.06901E+03  2.60064E+02 -7.11834E+02  3.65143E+02 -2.71321E+03
  5.07046E+03 -1.31173E+03  7.08989E+03  9.44669E+02  7.03074E+03  4.22953E+03  5.82175E+03  9.23182E+03
 -1.91046E+03  1.11893E+04 -9.79413E+03  8.37345E+03 -1.26419E+04  1.67000E+03 -1.01104E+04 -3.63316E+03
 -5.18255E+03 -8.19730E+03 -4.09306E+02 -6.61553E+03  2.65514E+03 -3.20561E+03  2.30787E+03 -2.41273E+03
  1.73916E+03 -1.72550E+03  2.55586E+03 -2.79139E+03  4.03163E+03 -1.90835E+03  4.39577E+03  5.48280E+00
  5.83342E+03  1.01569E+03  1.79490E+03  4.31178E+03 -1.64654E+03  4.16013E+03 -5.50506E+03  3.66649E+03
 -6.38948E+03 -1.23420E+03 -3.19733E+03 -4.59440E+03 -2.80317E+01 -6.55890E+03  4.41706E+03 -6.92308E+03
  7.04203E+03 -4.34461E+03  8.73855E+03  6.29836E+02  6.33186E+03  5.70380E+03  1.23824E+03  7.83530E+03
 -3.05790E+03  7.30363E+03 -4.41128E+03  2.38756E+03 -2.61215E+03 -1.09681E+03 -1.07027E+03 -8.68679E+02
 -5.66329E+02  3.10764E+02 -9.65686E+02  2.10584E+03 -2.91134E+03  1.29928E+03 -5.16961E+03 -8.61153E+02
 -2.26353E+03 -5.14017E+03  8.60225E+02 -6.26005E+03  3.81334E+03 -6.06796E+03  5.45037E+03 -1.58818E+03
  5.91896E+03  3.17513E+03  2.42116E+03  4.83904E+03 -1.04738E+03  6.12557E+03 -4.03193E+03  3.89121E+03
 -5.30887E+03  5.33870E+02 -4.56383E+03 -3.54909E+03 -4.69439E+02 -4.61402E+03  2.36184E+03 -3.52097E+03
  3.48005E+03 -1.64102E+03  2.40033E+03  5.51071E+02  7.39446E+02  1.98025E+03  8.67018E+02  7.15689E+02
  1.86505E+03  7.38916E+02  1.55488E+03  8.40438E+02  1.50632E+03  2.44607E+03  1.60460E+03  2.78350E+03
 -1.74432E+03  4.08282E+03 -3.85476E+03  5.26457E+03 -4.91618E+03  1.60870E+03 -5.89650E+03 -1.10783E+03
 -2.63669E+03 -5.59016E+03  8.26290E+02 -6.62552E+03  3.08689E+03 -3.60047E+03  4.73572E+03 -1.31554E+03
  3.45446E+03  2.31909E+03  4.53796E+02  3.30213E+03 -1.26212E+03  2.03726E+03 -1.84414E+03 -2.10402E+02
 -1.07415E+03 -1.95831E+03  1.57155E+03 -2.18711E+03  2.16418E+03 -1.21175E+03  2.04642E+03  3.12613E+02
  1.18313E+03  7.67768E+02  1.07474E+03  1.95565E+02 -3.65292E+02  1.00288E+03  1.70064E+03 -9.87612E+01
  6.77979E+02 -1.39320E+02  2.14960E+03  9.65951E+02  6.80783E+02  2.99086E+03 -6.40178E+02  3.99414E+03
 -2.33698E+03  1.91029E+03 -3.16041E+03  5.80471E+02 -2.86784E+03 -9.91700E+02 -5.31667E+02 -1.85222E+03
  8.84870E+01 -1.87868E+03  1.57197E+03 -1.08393E+03  1.23560E+03  1.22408E+03 -8.56018E+02  1.81797E+03
 -2.07726E+03  1.17448E+03 -2.22054E+03 -1.61975E+03 -1.06185E+03 -3.19464E+03  3.88017E+02 -2.53778E+03
  1.07273E+03 -1.28877E+03  1.68394E+03  3.09002E+01  2.13962E+03  1.87131E+02  3.65275E+02  1.46261E+03
 -5.45219E+02  3.06071E+02 -1.32823E+03 -4.62835E+02  8.13001E+02 -1.69984E+03  2.34308E+03 -1.41093E+03
  2.49589E+03  2.67148E+02  3.44403E+03  1.58246E+03  1.50990E+03  2.82521E+03 -8.80474E+02  2.85528E+03
 -2.40235E+03  7.19946E+02 -2.02579E+03 -1.47113E+02 -1.36888E+03 -2.05659E+03  3.46762E+02 -1.35272E+03
  1.94149E+03 -1.18382E+03  1.24337E+03  9.88496E+02  2.04227E+02  1.81974E+03  1.67883E+02  1.55030E+03
 -4.89493E+02  1.25604E+03 -7.00776E+02  1.56937E+02 -2.31047E+02  5.38100E+02 -8.17537E+02  6.76895E+02
 -6.69010E+02  1.32794E+03 -2.76997E+03  4.62740E+02 -2.57189E+03  5.68799E+01 -3.70585E+03 -1.65975E+03
 -1.87833E+03 -3.35787E+03  8.51183E+02 -4.69332E+03  1.59918E+03 -3.68044E+03  4.12942E+03 -1.42946E+03
  3.72198E+03  5.67154E+02  1.75156E+03  2.57362E+03 -5.15043E+02  2.63790E+03 -9.97319E+02  2.11852E+03
 -1.38773E+03  1.07734E+03 -9.26492E+02 -4.58286E+02 -4.44974E+02  1.84568E+02 -9.94658E+02 -4.63346E+00
 -1.55666E+03 -2.79082E+02 -1.06178E+03  5.68114E+01  2.53882E+02 -8.50269E+02 -2.76186E+02 -1.38727E+03
  1.58594E+03 -7.45302E+02  9.74409E+02  1.61171E+02  1.81341E+03  1.46421E+03 -6.58605E+01  2.53052E+03
 -1.30290E+03  3.34492E+03 -2.61205E+03  1.96158E+03 -2.90604E+03 -3.30777E+02 -2.20250E+03 -1.92771E+03
 -1.43845E+03 -2.25925E+03  5.39203E+02 -2.13690E+03  1.23787E+03 -9.37001E+02  1.43504E+03  8.89418E+01
  1.24910E+03  6.98543E+02  1.65750E+02  6.20066E+02 -7.65472E+02  1.03554E+01  4.73971E+01 -5.76199E+02
  7.48961E+02 -5.71044E+01  5.80372E+02  5.66640E+02  4.64509E+02  7.81153E+02  2.25837E+02  8.47284E+02
 -9.87129E+02  9.20480E+02 -1.20995E+03  3.85992E+01 -1.46970E+03 -1.07870E+03  1.44731E+02 -1.97991E+03
  1.05583E+03 -1.26586E+03  1.29370E+03 -4.68864E+02  1.84017E+03 -4.41530E+02  9.91631E+02  8.81790E+02
  5.37175E+02  1.08635E+03 -4.65374E+02  1.25146E+03 -6.92216E+02  7.41726E+02 -8.10148E+02  5.74852E+02
 -4.62531E+02 -8.84930E+00 -5.65507E+02  8.41082E+01 -7.49218E+02  8.37496E+01 -1.51147E+03 -3.06678E+02
 -1.51112E+03 -1.20870E+02 -7.00120E+02 -1.70787E+03  1.22055E+03 -2.09838E+03  1.42444E+03 -5.46457E+02
  1.31771E+03  1.37963E+01  8.89343E+01  6.95282E+02 -2.40927E+02  1.56598E+03 -1.21058E+03  1.31088E+03
