 $NMID ID='MM_0lb_SNR800_20hz_g60_54.RAW', FMTDAT='(8E13.5)'
 TRAMP=1., VOLUME=1. $END
  3.09564E+05  2.55211E+02  3.37709E+05  2.50625E+05  8.46645E+04  3.37718E+05 -1.32321E+05  2.50635E+05
 -1.90025E+05  8.28197E+04 -1.11344E+05 -3.25826E+04  1.37571E+03 -5.04390E+04  5.39018E+04  1.05131E+02
  3.51985E+04  5.27454E+04 -1.69855E+04  7.53672E+04 -6.03120E+04  6.30716E+04 -8.33572E+04  3.17257E+04
 -8.04802E+04 -1.15750E+04 -5.66283E+04 -5.02639E+04 -1.49381E+04 -6.88128E+04  2.68545E+04 -4.52381E+04
  3.95952E+04  3.99395E+03  1.57714E+04  4.73138E+04 -3.37744E+04  4.64066E+04 -6.59185E+04 -5.53589E+02
 -5.26014E+04 -5.59957E+04 -6.63395E+03 -7.57835E+04  3.32795E+04 -5.39476E+04  4.71584E+04 -1.66487E+04
  4.22194E+04  1.12957E+04  3.14393E+04  2.48220E+04  1.58089E+04  2.85071E+04 -4.86231E+03  2.67879E+04
 -2.16922E+04  1.27422E+04 -1.90062E+04 -4.60495E+03  4.60556E+03 -7.48604E+03  2.17601E+04  1.14499E+04
  7.21315E+03  3.41078E+04 -3.10576E+04  3.46275E+04 -6.17216E+04  2.14786E+03 -5.59552E+04 -4.15286E+04
 -1.24936E+04 -6.17139E+04  3.87239E+04 -4.39971E+04  5.61210E+04 -2.18500E+03  3.24392E+04  3.10912E+04
 -6.51876E+03  3.39422E+04 -2.92360E+04  1.40761E+04 -2.83333E+04 -5.05358E+03 -1.49948E+04 -1.02155E+04
 -7.57956E+03 -1.21047E+04 -8.19911E+02 -1.68461E+04  6.79041E+03 -2.26018E+04  1.49966E+04 -1.36056E+04
  1.21223E+04  4.51334E+03 -6.94073E+03  1.30070E+04 -1.98981E+04 -3.20084E+03 -8.29197E+03 -3.13019E+04
  2.12446E+04 -4.12503E+04  4.55193E+04 -1.90304E+04  4.26807E+04  1.88231E+04  1.45260E+04  4.23808E+04
 -1.54574E+04  3.15662E+04 -2.40158E+04  1.28131E+03 -8.75884E+03 -2.66476E+04  2.04455E+04 -3.15951E+04
  3.85966E+04 -7.66777E+03  3.24555E+04  2.30489E+04  1.60991E+04  4.35081E+04 -7.91159E+03  4.61539E+04
 -2.90969E+04  3.07519E+04 -3.81454E+04  8.77630E+03 -3.92744E+04 -1.51990E+04 -2.19094E+04 -3.51634E+04
  7.02167E+03 -3.48459E+04  2.97631E+04 -1.30134E+04  2.73898E+04  1.07341E+04  2.78441E+03  1.80245E+04
 -1.29877E+04  7.82807E+03 -9.80632E+03 -8.06808E+03  5.92683E+03 -1.01424E+04  1.74630E+04  6.22578E+03
  1.26144E+04  2.14167E+04 -6.50996E+03  2.35691E+04 -2.14616E+04  9.53070E+03 -2.56957E+04 -5.90878E+03
 -1.75342E+04 -1.65335E+04 -6.01383E+03 -1.73320E+04  3.61843E+03 -1.53588E+04  1.29018E+04 -1.51908E+04
  2.19822E+04 -1.16700E+04  2.87321E+04  1.29349E+03  2.14076E+04  1.67639E+04  4.18016E+03  3.29785E+04
 -1.63805E+04  2.76287E+04 -2.63031E+04  9.69204E+03 -1.99481E+04 -1.04716E+04 -3.99882E+03 -1.39995E+04
  2.46290E+03 -3.92299E+03 -2.76481E+03  5.37920E+03 -1.34482E+04  5.48993E+03 -1.38631E+04 -5.06476E+03
 -8.45093E+03 -1.58964E+04  4.59607E+03 -1.98323E+04  1.31216E+04 -1.39898E+04  1.47787E+04 -1.49573E+03
  9.28044E+03  1.10241E+04 -7.76268E+02  1.61136E+04 -1.04991E+04  9.28452E+03 -1.57060E+04 -3.87593E+03
 -1.17351E+04 -1.44224E+04 -1.62271E+03 -1.93641E+04  8.62855E+03 -1.55227E+04  1.61719E+04 -7.50143E+03
  1.49331E+04  4.19180E+02  1.04429E+04  3.78068E+03  5.13874E+03  5.29109E+02  7.68487E+03 -1.48009E+03
  1.39235E+04  2.67352E+03  1.51090E+04  1.30564E+04  9.11774E+03  2.50242E+04 -3.02575E+03  2.68346E+04
 -1.56998E+04  2.07761E+04 -2.47576E+04  9.71221E+03 -2.53820E+04 -2.01824E+03 -2.14933E+04 -1.43247E+04
 -1.03314E+04 -2.04249E+04  6.91862E+03 -1.91952E+04  1.67291E+04 -1.07413E+04  1.57159E+04  3.59925E+03
  6.69496E+03  1.11149E+04 -6.92194E+03  1.04082E+04 -1.35664E+04  2.63068E+03 -1.02591E+04 -7.99499E+03
 -2.58427E+02 -1.24583E+04  6.16311E+03 -9.43082E+03  7.89082E+03 -1.25236E+03  1.42827E+03  5.05336E+03
 -5.58527E+03  1.38096E+03 -3.82252E+03 -4.72655E+03  7.09505E+02 -1.04534E+04  7.80786E+03 -1.00531E+04
  1.21335E+04 -4.48812E+03  1.17942E+04  2.31095E+03  1.01232E+04  9.52242E+03  4.94893E+03  1.35777E+04
 -1.75539E+03  1.55416E+04 -9.57805E+03  1.01835E+04 -1.09562E+04  2.98407E+03 -8.28615E+03 -1.72632E+03
 -4.46134E+03 -3.41379E+03 -7.00587E+02  1.29307E+03 -2.03956E+03  1.81074E+03 -3.49732E+03  3.49592E+03
 -7.87369E+03 -3.89733E+02 -8.52585E+03 -7.00305E+03 -3.27843E+03 -1.12005E+04  3.55059E+03 -8.36214E+03
  7.17897E+03 -3.77862E+03  5.41292E+03  2.44924E+03  7.64914E+02  2.74496E+03 -3.27475E+03 -2.83495E+02
 -3.22419E+03 -4.90481E+03 -6.69923E+02 -7.04461E+03  3.77254E+03 -7.56327E+03  9.59786E+03 -3.66235E+03
  1.13804E+04  6.66182E+02  8.39544E+03  5.91289E+03  1.77340E+03  8.50101E+03 -5.16277E+03  7.88998E+03
 -6.93643E+03  2.68564E+03 -3.29897E+03 -1.15397E+03  1.52481E+03 -1.86717E+03  4.61688E+03 -9.99689E+02
  3.88943E+03  3.36457E+03  6.40447E+02  6.06466E+03 -4.30767E+03  5.90788E+03 -7.60964E+03  1.99293E+03
 -4.54817E+03 -3.42450E+03  3.48601E+02 -6.25011E+03  3.45047E+03 -3.32868E+03  3.33121E+03  7.69543E+02
  4.08640E+02  3.03089E+03 -4.03416E+03  4.53994E+03 -4.62869E+03  2.08193E+03 -4.05518E+03 -9.85137E+02
 -2.78266E+03 -5.72263E+03  9.82712E+02 -6.49927E+03  5.64478E+03 -4.40394E+03  5.71351E+03  1.12082E+03
  4.16751E+03  4.94187E+03  4.32307E+02  6.70159E+03 -4.78737E+03  3.96510E+03 -5.06615E+03 -6.15108E+02
 -5.37611E+03 -4.92868E+03 -1.25882E+03 -4.64112E+03  2.29472E+03 -4.48475E+03  2.52512E+03 -2.62076E+03
  2.71812E+03  1.54779E+02  1.42493E+02  1.37632E+03  5.70670E+02 -2.27632E+02  1.20324E+02 -1.52319E+03
  3.30904E+03 -4.46349E+02  4.70267E+03  6.23203E+02  5.11267E+03  2.44868E+03  5.27527E+03  6.37845E+03
 -1.11924E+03  7.64164E+03 -6.78603E+03  6.30004E+03 -8.91997E+03  1.19369E+03 -6.90016E+03 -2.15041E+03
 -3.85102E+03 -5.78989E+03 -3.89212E+02 -4.58518E+03  1.96274E+03 -1.89972E+03  1.72468E+03 -1.88380E+03
  1.31946E+03 -1.34788E+03  1.98836E+03 -2.25922E+03  3.51827E+03 -1.36610E+03  3.44930E+03  6.44544E+02
  4.13721E+03  1.15060E+03  9.81195E+02  3.09418E+03 -1.56513E+03  2.31606E+03 -3.92544E+03  2.41953E+03
 -4.21139E+03 -9.55666E+02 -1.44381E+03 -2.72080E+03  6.13641E+02 -4.45148E+03  2.86308E+03 -4.61195E+03
  4.48695E+03 -3.15341E+03  6.08054E+03  1.71641E+02  4.23717E+03  3.78211E+03  1.31460E+03  5.42829E+03
 -1.88658E+03  5.27760E+03 -2.62018E+03  1.53565E+03 -1.52988E+03 -9.57337E+02 -1.97125E+02 -5.64483E+02
 -4.22125E+02  2.99423E+02 -8.93539E+02  2.27138E+03 -2.32729E+03  8.32985E+02 -3.53591E+03  4.93051E+01
 -8.09641E+02 -3.57498E+03  9.93283E+02 -3.77398E+03  2.17724E+03 -3.80428E+03  2.84802E+03 -9.73851E+02
  3.35404E+03  2.25200E+03  1.39816E+03  2.67346E+03 -6.69997E+02  3.74270E+03 -1.86945E+03  2.21758E+03
 -2.79662E+03  8.28463E+02 -2.91039E+03 -1.76205E+03  2.04886E+00 -2.74080E+03  1.10255E+03 -2.19020E+03
  2.42782E+03 -1.27651E+03  1.22417E+03 -2.29076E+01  3.52855E+02  1.39958E+03  7.95357E+02  3.08452E+02
  1.73155E+03  6.94053E+02  1.28736E+03  1.12996E+03  1.09250E+03  1.90382E+03  1.11771E+03  1.14825E+03
 -1.05911E+03  2.27036E+03 -1.86615E+03  3.57698E+03 -2.11127E+03  1.02050E+03 -3.13681E+03  2.07529E+02
 -8.51662E+02 -2.82230E+03  4.67413E+02 -3.75211E+03  1.35316E+03 -1.96751E+03  2.33533E+03 -1.09385E+03
  2.24806E+03  1.53978E+03  2.25532E+02  1.79550E+03 -5.16403E+02  1.05091E+03 -8.29077E+02 -4.45085E+01
 -2.41708E+02 -1.35535E+03  1.13215E+03 -1.29902E+03  1.03811E+03 -8.47367E+02  9.30724E+02  2.63048E+02
  5.92080E+02  5.31223E+01  1.04335E+03 -6.71006E+02 -2.92423E+02  4.28651E+02  1.66442E+03 -4.73978E+01
 -1.04313E+02  3.78598E+01  1.55474E+03  4.80255E+02  2.61847E+02  2.09811E+03 -2.18509E+02  2.37936E+03
 -9.95142E+02  8.66248E+02 -1.30717E+03  1.47520E+02 -1.98173E+03 -4.21672E+02 -1.44110E+02 -4.73964E+02
  3.60999E+02 -7.22363E+02  5.80806E+02 -5.93927E+02  3.14567E+02  7.41405E+02 -9.89158E+02  7.07233E+02
 -1.10291E+03  6.08415E+02 -5.34710E+02 -1.38164E+03 -7.18638E+02 -1.80185E+03  1.69155E+02 -8.33443E+02
  7.83375E+01 -2.13916E+02  5.84956E+02  2.93005E+02  9.38515E+02 -4.02993E+02  2.15266E+02  8.62571E+02
 -9.65627E+01 -2.50583E+01 -7.13598E+02 -1.70108E+02  7.52505E+02 -3.82082E+02  1.61354E+03 -6.61078E+02
  5.94701E+02 -1.59725E+02  2.19696E+03  6.71178E+02  8.59122E+02  7.66651E+02 -3.32600E+02  1.41400E+03
 -1.26548E+03 -9.80737E+01 -1.18241E+03 -4.57635E+01 -4.72148E+02 -8.81454E+02  1.08338E+02 -5.97149E+01
  9.22272E+02 -6.43665E+02  4.13360E+02  7.73281E+02 -8.57194E+01  1.01891E+03  3.41065E+02  1.01003E+03
 -5.81880E+01  1.10070E+03 -1.92934E+02  3.49902E+02  1.07243E+02  3.11919E+02 -6.64812E+02  7.36807E+02
 -3.34493E+02  9.78943E+02 -1.28810E+03  4.11022E+02 -1.04226E+03  2.38267E+02 -1.64787E+03 -5.05958E+02
 -7.08314E+02 -1.51942E+03  4.71641E+02 -1.87422E+03  4.28657E+02 -1.80152E+03  1.81970E+03 -8.13801E+02
  1.39731E+03 -3.77643E+02  7.45300E+02  8.95552E+02 -9.05614E+02  7.43816E+02 -5.19167E+02  8.82238E+02
 -3.88861E+02  5.82387E+02 -3.08684E+02 -3.82207E+02 -4.29095E+02  5.59682E+02 -8.13171E+02  2.10015E+02
 -1.12466E+03 -4.01109E+01 -7.92335E+02  1.67431E+02  3.31736E+02 -5.49014E+02 -3.58737E+02 -9.93843E+02
  7.70379E+02 -2.83441E+02 -1.81659E+02 -1.58421E+02  8.78934E+02  7.06758E+02 -7.82422E+02  8.74637E+02
 -4.67582E+02  1.27878E+03 -1.28912E+03  1.02427E+03 -1.11073E+03 -4.26343E+02 -6.69729E+02 -9.81779E+02
 -8.26350E+02 -4.39999E+02 -1.16752E+02 -5.25601E+02  2.62242E+02 -3.04875E+02  2.10275E+02  3.58567E+02
  1.94926E+02  1.52121E+02 -1.19318E+02  2.49702E+02 -1.41353E+02  1.26761E+02  2.23869E+01 -9.33223E+01
  2.79439E+02  8.10268E+01  5.60059E+01  1.47566E+02  1.58853E+00  3.73635E+02  4.84966E+02  1.18995E+02
 -4.31370E+02  2.14210E+02 -1.57773E+02  7.27803E+01 -2.26538E+02 -2.03690E+02 -4.23934E+01 -7.90352E+02
  1.05461E+02 -3.04865E+02  1.63678E+02  1.15823E+02  1.72376E+02 -3.59633E+02  2.49652E+02  3.89138E+02
  2.24022E+02  2.79187E+00 -5.84334E+01  1.53496E+02 -2.12067E+02  3.50628E+02 -2.12783E+02  3.08212E+02
  5.81674E+00 -8.91919E+01 -6.24831E+02  1.89340E+02 -4.52890E+02  3.07502E+02 -4.53775E+02 -2.18761E+02
 -5.56043E+02  4.05968E+02 -3.45288E+02 -9.90148E+02  6.79229E+02 -9.45218E+02  6.82985E+02  5.44244E+01
  6.98048E+02  4.34170E+01 -7.15733E+02 -2.23533E+02 -4.49512E+01  3.48447E+02 -7.49699E+01  4.42617E+02
