 $NMID ID='MM_0lb_SNR800_8hz_g50_1.RAW', FMTDAT='(8E13.5)'
 TRAMP=1., VOLUME=1. $END
  3.09854E+05  2.05906E+02  3.38352E+05  2.51094E+05  8.50290E+04  3.38310E+05 -1.32773E+05  2.52528E+05
 -1.90938E+05  8.38217E+04 -1.12213E+05 -3.25302E+04  1.51789E+01 -5.06366E+04  5.39695E+04 -5.26760E+02
  3.55537E+04  5.26888E+04 -1.68891E+04  7.62387E+04 -6.14740E+04  6.40520E+04 -8.56671E+04  3.25796E+04
 -8.25000E+04 -1.19825E+04 -5.87122E+04 -5.26045E+04 -1.52342E+04 -7.11624E+04  2.82617E+04 -4.69114E+04
  4.13171E+04  4.02272E+03  1.68076E+04  4.88535E+04 -3.44282E+04  4.81161E+04 -6.85205E+04  6.26988E+01
 -5.51189E+04 -5.85229E+04 -7.21697E+03 -7.93818E+04  3.48594E+04 -5.71686E+04  4.99687E+04 -1.86227E+04
  4.54854E+04  1.18050E+04  3.31279E+04  2.65230E+04  1.55967E+04  3.13049E+04 -5.92800E+03  2.77086E+04
 -2.23752E+04  1.14452E+04 -1.78393E+04 -6.01188E+03  7.27679E+03 -7.60953E+03  2.36345E+04  1.39450E+04
  6.61018E+03  3.76327E+04 -3.40767E+04  3.72482E+04 -6.57238E+04  2.32932E+03 -5.94563E+04 -4.46338E+04
 -1.26154E+04 -6.68923E+04  4.19662E+04 -4.78041E+04  6.16684E+04 -2.54415E+03  3.67248E+04  3.45844E+04
 -5.69640E+03  3.99286E+04 -3.24436E+04  1.91299E+04 -3.42443E+04 -3.74154E+03 -1.98848E+04 -1.26821E+04
 -1.00148E+04 -1.56736E+04 -3.59416E+02 -1.95920E+04  8.79642E+03 -2.33361E+04  1.57183E+04 -1.24911E+04
  1.00048E+04  6.60336E+03 -1.13372E+04  1.28676E+04 -2.34890E+04 -6.47231E+03 -8.27571E+03 -3.82077E+04
  2.53849E+04 -4.76501E+04  5.33709E+04 -2.10753E+04  4.91587E+04  2.11331E+04  1.80094E+04  4.78388E+04
 -1.68568E+04  3.65181E+04 -2.79708E+04  2.27595E+03 -1.22268E+04 -2.96631E+04  2.11974E+04 -3.72728E+04
  4.54125E+04 -1.12798E+04  4.08494E+04  2.51503E+04  2.19537E+04  5.18687E+04 -8.52831E+03  5.71831E+04
 -3.65044E+04  3.89532E+04 -4.85075E+04  1.13793E+04 -4.85038E+04 -1.87513E+04 -2.63327E+04 -4.31609E+04
  7.91685E+03 -4.31304E+04  3.46710E+04 -1.76398E+04  3.27757E+04  1.12523E+04  5.64265E+03  2.10230E+04
 -1.40509E+04  1.02621E+04 -1.09360E+04 -7.54804E+03  5.94784E+03 -1.14146E+04  1.88704E+04  5.45898E+03
  1.47764E+04  2.28410E+04 -5.18362E+03  2.76960E+04 -2.33306E+04  1.48725E+04 -3.21538E+04 -3.04726E+03
 -2.61490E+04 -1.87461E+04 -1.22484E+04 -2.53896E+04  4.54587E+03 -2.70185E+04  2.07835E+04 -2.42905E+04
  3.30190E+04 -1.42006E+04  3.94671E+04  5.94647E+03  2.82404E+04  2.54334E+04  4.27191E+03  4.24219E+04
 -2.00259E+04  3.46511E+04 -3.09121E+04  1.20548E+04 -2.25702E+04 -1.03727E+04 -4.90172E+03 -1.23679E+04
  4.29557E+02 -1.24560E+03 -7.99729E+03  8.66640E+03 -2.08190E+04  5.13825E+03 -2.04735E+04 -9.91424E+03
 -1.24143E+04 -2.41379E+04  6.02444E+03 -2.87033E+04  1.95603E+04 -2.05060E+04  2.35726E+04 -2.16704E+03
  1.50335E+04  1.69336E+04 -1.55033E+03  2.42026E+04 -1.77403E+04  1.37857E+04 -2.47474E+04 -5.34641E+03
 -1.77156E+04 -2.17523E+04 -2.40859E+03 -2.94655E+04  1.32145E+04 -2.44325E+04  2.39372E+04 -1.27700E+04
  2.27567E+04 -5.06750E+02  1.62784E+04  5.58341E+03  9.22260E+03  1.78388E+03  1.28215E+04 -2.01584E+03
  2.30584E+04  2.86037E+03  2.66630E+04  1.87414E+04  1.86994E+04  3.91470E+04 -3.01001E+03  4.67104E+04
 -2.64703E+04  3.91610E+04 -4.40281E+04  1.98277E+04 -4.73399E+04 -3.43334E+03 -3.78518E+04 -2.72774E+04
 -1.49691E+04 -3.92526E+04  1.41138E+04 -3.43118E+04  2.95855E+04 -1.56260E+04  2.50830E+04  8.59525E+03
  8.70051E+03  1.92765E+04 -1.24003E+04  1.61522E+04 -2.07263E+04  2.74023E+03 -1.58818E+04 -1.38465E+04
 -3.93512E+02 -2.00002E+04  1.13223E+04 -1.48201E+04  1.41233E+04 -1.68493E+03  3.44683E+03  8.63605E+03
 -8.96939E+03  4.27549E+03 -1.01721E+04 -7.68179E+03 -1.79940E+03 -1.97864E+04  1.20506E+04 -2.09634E+04
  2.43228E+04 -1.16501E+04  2.78756E+04  3.37584E+03  2.45808E+04  1.97545E+04  1.11768E+04  3.14323E+04
 -6.15087E+03  3.31698E+04 -2.18010E+04  2.04654E+04 -2.40309E+04  4.22243E+03 -1.65090E+04 -6.31407E+03
 -6.72401E+03 -7.85807E+03 -7.05209E+02  2.19069E+02 -3.32659E+03  3.56678E+03 -7.79073E+03  5.34440E+03
 -1.49244E+04 -1.18699E+03 -1.55075E+04 -1.25902E+04 -6.36689E+03 -2.08062E+04  6.59901E+03 -1.71109E+04
  1.40084E+04 -6.80100E+03  9.90575E+03  4.17505E+03 -2.52576E+02  6.87483E+03 -8.73685E+03 -4.91222E+02
 -8.25311E+03 -1.05391E+04 -1.36895E+03 -1.63481E+04  9.70359E+03 -1.74710E+04  2.12346E+04 -9.52768E+03
  2.51247E+04  2.77282E+03  1.83838E+04  1.50984E+04  3.64688E+03  2.04048E+04 -1.02199E+04  1.66468E+04
 -1.35876E+04  4.86774E+03 -6.54422E+03 -3.72591E+03  2.41427E+03 -4.72365E+03  8.43395E+03 -1.12672E+03
  7.96704E+03  7.63194E+03  1.48727E+03  1.32576E+04 -9.85524E+03  1.29700E+04 -1.66349E+04  2.93966E+03
 -1.13417E+04 -9.10415E+03  2.24567E+02 -1.42307E+04  9.56364E+03 -7.45386E+03  1.06093E+04  3.80026E+03
  2.61187E+03  1.05353E+04 -8.83444E+03  1.25122E+04 -1.48150E+04  5.41910E+03 -1.56194E+04 -5.39293E+03
 -9.14963E+03 -1.74758E+04  4.44965E+03 -1.93826E+04  1.70186E+04 -1.14380E+04  1.87572E+04  3.19635E+03
  1.05764E+04  1.42114E+04 -1.88489E+03  1.73796E+04 -1.25513E+04  9.57835E+03 -1.39539E+04 -1.25986E+03
 -1.16168E+04 -1.11660E+04 -1.66360E+03 -1.30574E+04  6.83058E+03 -1.01708E+04  8.25211E+03 -3.54940E+03
  5.06128E+03  2.60640E+03 -1.45734E+03  1.90623E+03 -1.10537E+03 -3.81195E+03  3.26911E+03 -8.23392E+03
  1.28717E+04 -5.81240E+03  1.77519E+04  1.79685E+03  1.70660E+04  1.23558E+04  1.07413E+04  2.37752E+04
 -5.30569E+03  2.63249E+04 -2.20033E+04  1.91650E+04 -2.84757E+04  3.63524E+03 -2.26620E+04 -1.03553E+04
 -1.13965E+04 -1.92397E+04 -6.60898E+02 -1.63536E+04  5.97401E+03 -9.38679E+03  5.68962E+03 -5.75273E+03
  4.19492E+03 -3.59633E+03  4.50723E+03 -4.66884E+03  6.54426E+03 -3.80157E+03  8.78272E+03 -2.00317E+03
  1.14461E+04  2.73007E+03  6.46693E+03  1.05330E+04 -2.54134E+03  1.23016E+04 -1.25786E+04  9.84392E+03
 -1.58666E+04 -1.45213E+03 -1.06179E+04 -1.14803E+04 -1.48730E+03 -1.75386E+04  9.70840E+03 -1.76538E+04
  1.84631E+04 -9.61607E+03  2.16514E+04  2.96767E+03  1.47937E+04  1.54320E+04  2.26349E+03  1.95922E+04
 -8.23410E+03  1.60035E+04 -1.16452E+04  5.68766E+03 -8.40925E+03 -1.99428E+03 -3.64458E+03 -2.48542E+03
 -1.64035E+03  2.29226E+01 -2.70462E+03  3.31829E+03 -6.77101E+03  2.46048E+03 -1.11950E+04 -1.79401E+03
 -7.96825E+03 -1.08933E+04  1.62224E+02 -1.66145E+04  1.01485E+04 -1.53991E+04  1.64591E+04 -4.74059E+03
  1.65954E+04  7.57749E+03  7.82264E+03  1.50006E+04 -3.31628E+03  1.65732E+04 -1.24827E+04  1.07198E+04
 -1.56864E+04  2.10921E+02 -1.21509E+04 -1.04079E+04 -1.30710E+03 -1.38343E+04  7.16421E+03 -1.03198E+04
  1.05542E+04 -3.28355E+03  7.20294E+03  2.83641E+03  2.64977E+03  4.57754E+03  1.60438E+03  2.41705E+03
  3.28015E+03  1.14282E+03  3.69534E+03  1.75975E+03  5.10883E+03  5.05693E+03  4.55981E+03  8.80333E+03
 -3.46429E+03  1.32733E+04 -1.20153E+04  1.32200E+04 -1.74800E+04  3.24979E+03 -1.75211E+04 -7.47338E+03
 -8.74875E+03 -1.72893E+04  2.52350E+03 -1.85890E+04  1.02653E+04 -1.22244E+04  1.36541E+04 -3.53671E+03
  1.06260E+04  5.97041E+03  2.20687E+03  9.82485E+03 -4.96085E+03  6.35788E+03 -7.43246E+03 -1.27160E+03
 -3.30164E+03 -7.53855E+03  4.35464E+03 -7.12234E+03  7.12165E+03 -3.53520E+03  7.18598E+03  1.42851E+03
  4.37835E+03  3.43015E+03  1.39891E+03  3.52575E+03 -5.36983E+02  2.35517E+03  1.53084E+03 -3.90491E+02
  2.84848E+03 -1.26853E+03  6.67433E+03  2.58008E+03  4.18320E+03  9.23022E+03 -1.64475E+03  1.23604E+04
 -8.45310E+03  8.27868E+03 -1.11853E+04  2.74890E+03 -1.02205E+04 -4.25625E+03 -3.51920E+03 -6.73572E+03
  5.34229E+02 -6.66605E+03  4.88994E+03 -3.08620E+03  4.13691E+03  3.27429E+03 -1.96828E+03  6.32579E+03
 -7.50447E+03  3.68046E+03 -8.24605E+03 -3.90845E+03 -4.87219E+03 -9.76450E+03  1.23275E+03 -9.69612E+03
  5.82659E+03 -5.96702E+03  7.32607E+03 -9.57559E+02  6.14030E+03  2.60709E+03  1.12336E+03  5.22031E+03
 -3.04947E+03  1.69364E+03 -4.10893E+03 -3.78591E+03  1.37973E+03 -7.68658E+03  8.72166E+03 -6.40497E+03
  1.16149E+04  7.18975E+02  1.06401E+04  7.86651E+03  3.60492E+03  1.15851E+04 -4.73300E+03  1.10911E+04
 -9.56636E+03  5.05376E+03 -1.04733E+04 -1.67122E+03 -5.22974E+03 -7.85819E+03  1.97062E+03 -7.34795E+03
  7.26298E+03 -3.58169E+03  6.54560E+03  3.53642E+03  1.90255E+03  6.60901E+03 -1.15028E+03  5.46181E+03
 -2.67289E+03  3.82607E+03 -3.22000E+03  1.16144E+03 -1.52859E+03  1.34978E+03 -1.87361E+03  1.95795E+03
 -3.16084E+03  4.40476E+03 -7.81926E+03  4.34189E+03 -1.16351E+04  1.32581E+02 -1.31757E+04 -8.05038E+03
 -6.85999E+03 -1.56619E+04  2.85635E+03 -1.80322E+04  1.14279E+04 -1.39440E+04  1.76234E+04 -5.29423E+03
  1.61772E+04  3.66059E+03  1.03523E+04  1.11052E+04  1.38408E+03  1.25559E+04 -4.94882E+03  9.36302E+03
 -7.09818E+03  3.41390E+03 -4.29063E+03 -1.59479E+03 -1.51492E+03 -1.02754E+03 -4.40712E+02 -2.39080E+02
 -1.96406E+03  5.29511E+02 -2.62879E+03 -6.33740E+02 -7.84613E+02 -2.40327E+03  4.24352E+02 -4.72043E+03
  5.64673E+03 -3.89165E+03  7.75874E+03  7.64422E+01  8.93294E+03  6.68564E+03  2.26500E+03  1.25862E+04
 -5.51596E+03  1.43526E+04 -1.31853E+04  8.35157E+03 -1.51984E+04 -1.37311E+03 -1.13502E+04 -9.06098E+03
 -4.75113E+03 -1.27823E+04  3.09742E+03 -1.19761E+04  8.26357E+03 -6.51161E+03  8.45150E+03  4.79412E+02
  4.54834E+03  4.23945E+03 -7.36019E+02  3.59510E+03 -2.39649E+03 -6.64866E+02 -1.30873E+02 -3.27577E+03
  3.92327E+03 -2.12859E+03  5.43277E+03  1.59103E+03  3.46466E+03  4.87827E+03 -1.42873E+02  7.28830E+03
 -5.92210E+03  5.98364E+03 -8.85489E+03  7.98107E+02 -7.76131E+03 -6.35315E+03 -1.16708E+03 -1.06375E+04
  5.62748E+03 -9.02035E+03  9.82363E+03 -2.95967E+03  9.89189E+03  2.01550E+03  5.75109E+03  8.00017E+03
  1.07167E+03  8.88143E+03 -3.57368E+03  7.02990E+03 -5.26242E+03  4.05520E+03 -4.30436E+03  5.80807E+02
 -2.69730E+03 -4.89710E+02 -2.55934E+03  8.58155E+02 -4.81143E+03  1.24266E+03 -6.50639E+03 -1.22985E+03
 -6.03985E+03 -4.66419E+03 -2.07848E+03 -9.02821E+03  3.83431E+03 -9.22858E+03  7.75714E+03 -4.29825E+03
  9.40914E+03  1.16807E+03  4.61955E+03  6.17935E+03 -8.38595E+02  8.61074E+03 -6.71677E+03  5.66892E+03
