 $NMID ID='MM_0lb_SNR800_7hz_g45_1.RAW', FMTDAT='(8E13.5)'
 TRAMP=1., VOLUME=1. $END
  3.10138E+05  3.05979E+02  3.38030E+05  2.50769E+05  8.51803E+04  3.38546E+05 -1.32324E+05  2.51923E+05
 -1.91248E+05  8.39929E+04 -1.12675E+05 -3.26317E+04  4.18892E+02 -5.06996E+04  5.38762E+04 -4.07092E+02
  3.54842E+04  5.31839E+04 -1.67195E+04  7.58276E+04 -6.13712E+04  6.46598E+04 -8.55643E+04  3.28715E+04
 -8.25048E+04 -1.18831E+04 -5.88214E+04 -5.31670E+04 -1.52370E+04 -7.08801E+04  2.84563E+04 -4.70759E+04
  4.12143E+04  3.83104E+03  1.65869E+04  4.86167E+04 -3.45827E+04  4.85488E+04 -6.85862E+04  7.66374E+02
 -5.50954E+04 -5.84423E+04 -7.14900E+03 -8.01952E+04  3.49540E+04 -5.72809E+04  5.05419E+04 -1.87345E+04
  4.56969E+04  1.14078E+04  3.30883E+04  2.70422E+04  1.61356E+04  3.06481E+04 -5.90490E+03  2.78629E+04
 -2.24301E+04  1.16253E+04 -1.76130E+04 -5.90842E+03  7.20201E+03 -7.63888E+03  2.36881E+04  1.40145E+04
  7.24600E+03  3.83284E+04 -3.42724E+04  3.77794E+04 -6.62307E+04  2.17192E+03 -5.97041E+04 -4.51503E+04
 -1.25718E+04 -6.63317E+04  4.21556E+04 -4.78475E+04  6.25090E+04 -2.24699E+03  3.76854E+04  3.54517E+04
 -5.02697E+03  4.03871E+04 -3.23264E+04  1.97886E+04 -3.40523E+04 -2.76618E+03 -2.03567E+04 -1.23861E+04
 -9.74242E+03 -1.58329E+04 -4.71253E+02 -2.08276E+04  8.68119E+03 -2.34237E+04  1.59847E+04 -1.23689E+04
  1.01027E+04  6.35413E+03 -1.09933E+04  1.26845E+04 -2.39626E+04 -7.50411E+03 -8.61239E+03 -3.87017E+04
  2.56021E+04 -4.78603E+04  5.35048E+04 -2.13673E+04  4.95684E+04  2.13473E+04  1.78409E+04  4.79996E+04
 -1.69743E+04  3.68419E+04 -2.81880E+04  2.38603E+03 -1.26941E+04 -2.97779E+04  2.17595E+04 -3.80255E+04
  4.53900E+04 -1.18393E+04  4.16924E+04  2.54696E+04  2.25671E+04  5.26843E+04 -7.92484E+03  5.79697E+04
 -3.66918E+04  3.98200E+04 -4.89663E+04  1.12440E+04 -4.97053E+04 -1.95107E+04 -2.68592E+04 -4.30029E+04
  8.27501E+03 -4.38085E+04  3.53359E+04 -1.78060E+04  3.25184E+04  1.08573E+04  5.37827E+03  2.10590E+04
 -1.41112E+04  9.73736E+03 -1.17296E+04 -7.37256E+03  5.34438E+03 -1.15844E+04  1.89126E+04  5.17197E+03
  1.54601E+04  2.31243E+04 -4.84021E+03  2.81684E+04 -2.39280E+04  1.53749E+04 -3.30614E+04 -2.33096E+03
 -2.65403E+04 -1.85454E+04 -1.26456E+04 -2.64678E+04  4.36769E+03 -2.72046E+04  2.06774E+04 -2.46614E+04
  3.44672E+04 -1.50966E+04  4.00921E+04  5.84361E+03  2.84489E+04  2.61804E+04  4.68138E+03  4.28027E+04
 -2.05422E+04  3.47972E+04 -3.16624E+04  1.26498E+04 -2.32599E+04 -1.09913E+04 -5.04651E+03 -1.25680E+04
  1.16452E+02 -5.13524E+02 -8.44727E+03  8.95103E+03 -2.14107E+04  5.21657E+03 -2.13981E+04 -1.08804E+04
 -1.21650E+04 -2.48958E+04  6.39141E+03 -2.94627E+04  2.01315E+04 -2.10498E+04  2.42072E+04 -1.69736E+03
  1.58491E+04  1.68048E+04 -1.30266E+03  2.43697E+04 -1.77996E+04  1.45154E+04 -2.52447E+04 -5.32531E+03
 -1.86337E+04 -2.21205E+04 -2.06198E+03 -2.98599E+04  1.32431E+04 -2.50946E+04  2.40544E+04 -1.29530E+04
  2.34412E+04 -5.74773E+02  1.66221E+04  5.27891E+03  9.42597E+03  1.65915E+03  1.26763E+04 -2.47577E+03
  2.34298E+04  3.51319E+03  2.75372E+04  1.93898E+04  1.91352E+04  3.99998E+04 -2.61315E+03  4.74964E+04
 -2.76220E+04  4.04399E+04 -4.56721E+04  2.11394E+04 -4.89498E+04 -3.58831E+03 -3.92002E+04 -2.79638E+04
 -1.51938E+04 -4.03810E+04  1.46702E+04 -3.57000E+04  2.96697E+04 -1.63078E+04  2.62957E+04  8.36901E+03
  8.57621E+03  2.02744E+04 -1.26928E+04  1.64558E+04 -2.11822E+04  3.34879E+03 -1.61233E+04 -1.37918E+04
 -6.26911E+02 -2.05658E+04  1.11621E+04 -1.53161E+04  1.44872E+04 -8.80382E+02  3.64439E+03  9.30499E+03
 -9.33733E+03  4.91998E+03 -1.04082E+04 -7.62559E+03 -2.80959E+03 -1.98548E+04  1.30467E+04 -2.15056E+04
  2.49152E+04 -1.32256E+04  2.96414E+04  3.20250E+03  2.56811E+04  2.01685E+04  1.22232E+04  3.27448E+04
 -6.77585E+03  3.47591E+04 -2.31943E+04  2.12016E+04 -2.47933E+04  4.16974E+03 -1.69962E+04 -6.77537E+03
 -6.99557E+03 -7.95614E+03 -1.01274E+03  6.61838E+02 -3.13188E+03  3.83017E+03 -8.00821E+03  5.16238E+03
 -1.59895E+04 -1.56283E+03 -1.63253E+04 -1.31906E+04 -6.47743E+03 -2.11927E+04  7.37009E+03 -1.71264E+04
  1.43449E+04 -7.51136E+03  1.03971E+04  5.12552E+03 -5.74291E+02  6.74972E+03 -8.71969E+03 -5.04642E+02
 -8.87689E+03 -1.15666E+04 -1.31920E+03 -1.72464E+04  1.02600E+04 -1.86530E+04  2.19012E+04 -9.78806E+03
  2.61051E+04  2.51448E+03  1.90940E+04  1.63180E+04  4.21115E+03  2.14966E+04 -1.05993E+04  1.74475E+04
 -1.40902E+04  4.47667E+03 -7.41694E+03 -4.09853E+03  3.33280E+03 -4.73255E+03  8.91058E+03 -1.66431E+03
  8.13008E+03  7.74390E+03  1.31771E+03  1.40871E+04 -1.01467E+04  1.35703E+04 -1.78357E+04  2.84226E+03
 -1.20829E+04 -9.27979E+03  1.33913E+02 -1.53779E+04  9.84776E+03 -7.51804E+03  1.09302E+04  4.06869E+03
  2.79111E+03  1.19870E+04 -9.21125E+03  1.30674E+04 -1.58153E+04  6.21495E+03 -1.64209E+04 -5.96928E+03
 -9.04069E+03 -1.84454E+04  4.19739E+03 -2.09033E+04  1.76081E+04 -1.20655E+04  1.96677E+04  4.09729E+03
  1.12401E+04  1.56144E+04 -2.06278E+03  1.81315E+04 -1.37468E+04  1.00441E+04 -1.45024E+04 -1.22227E+03
 -1.19553E+04 -1.19821E+04 -2.27037E+03 -1.42650E+04  7.42776E+03 -1.07197E+04  9.02503E+03 -3.30566E+03
  5.10135E+03  2.62319E+03 -1.38737E+03  2.37729E+03 -1.53272E+03 -4.25209E+03  3.16527E+03 -8.68150E+03
  1.34179E+04 -6.02835E+03  1.92325E+04  2.19703E+03  1.84781E+04  1.33523E+04  1.20681E+04  2.49943E+04
 -6.25109E+03  2.81686E+04 -2.30675E+04  2.10260E+04 -3.04196E+04  3.95747E+03 -2.41785E+04 -1.09782E+04
 -1.19747E+04 -2.00051E+04 -4.98867E+02 -1.74550E+04  5.85500E+03 -9.66288E+03  6.39729E+03 -5.94613E+03
  4.79323E+03 -3.08896E+03  4.72103E+03 -3.87095E+03  6.59467E+03 -4.30542E+03  9.17298E+03 -1.82351E+03
  1.21196E+04  2.91530E+03  7.31882E+03  1.10298E+04 -2.75297E+03  1.38083E+04 -1.37277E+04  1.08222E+04
 -1.77083E+04 -1.42329E+03 -1.19548E+04 -1.24054E+04 -1.74120E+03 -1.94512E+04  1.06750E+04 -1.85937E+04
  1.98321E+04 -1.04728E+04  2.34369E+04  4.13176E+03  1.62635E+04  1.63253E+04  2.10858E+03  2.10142E+04
 -9.10617E+03  1.68541E+04 -1.24946E+04  5.99177E+03 -8.50487E+03 -1.92223E+03 -3.63408E+03 -2.84209E+03
 -1.14368E+03 -4.84176E+02 -2.42604E+03  3.16332E+03 -7.30098E+03  2.74030E+03 -1.19270E+04 -2.00865E+03
 -8.98629E+03 -1.21070E+04 -4.91103E+02 -1.78351E+04  1.09687E+04 -1.69660E+04  1.82648E+04 -5.19831E+03
  1.81659E+04  8.75658E+03  8.62792E+03  1.63734E+04 -4.05205E+03  1.86743E+04 -1.29791E+04  1.20980E+04
 -1.74338E+04  6.33470E+02 -1.35180E+04 -1.12380E+04 -1.56103E+03 -1.51919E+04  7.50321E+03 -1.14237E+04
  1.19409E+04 -3.49907E+03  7.92420E+03  3.23064E+03  2.79106E+03  5.41199E+03  1.46825E+03  2.35435E+03
  3.29033E+03  1.18131E+03  4.80567E+03  2.69595E+03  5.76089E+03  5.94675E+03  4.29996E+03  9.89919E+03
 -3.80800E+03  1.51509E+04 -1.28495E+04  1.43080E+04 -1.97805E+04  3.61422E+03 -1.99585E+04 -8.77341E+03
 -9.41219E+03 -1.87404E+04  2.82638E+03 -2.04095E+04  1.16299E+04 -1.26882E+04  1.57240E+04 -3.67483E+03
  1.20481E+04  7.01695E+03  2.71897E+03  1.08783E+04 -5.67642E+03  7.21858E+03 -8.05100E+03 -1.48364E+03
 -3.49582E+03 -8.23658E+03  4.46898E+03 -8.25922E+03  7.87123E+03 -3.89668E+03  7.77185E+03  1.79975E+03
  4.26036E+03  4.55539E+03  1.90255E+03  3.44600E+03 -1.16686E+03  2.46103E+03  1.39008E+03 -5.36278E+02
  2.84814E+03 -8.29528E+02  7.92542E+03  3.01686E+03  4.51173E+03  9.74746E+03 -1.79780E+03  1.32345E+04
 -9.54357E+03  9.58948E+03 -1.24769E+04  2.20264E+03 -1.11179E+04 -4.23999E+03 -4.33864E+03 -7.61643E+03
  1.20641E+03 -7.77477E+03  5.05583E+03 -3.61447E+03  4.54009E+03  3.25871E+03 -2.01753E+03  6.29543E+03
 -8.21690E+03  4.13642E+03 -9.67269E+03 -4.14627E+03 -5.42036E+03 -1.09839E+04  1.46576E+03 -1.11249E+04
  6.69780E+03 -6.55256E+03  8.13955E+03 -7.29401E+02  6.49920E+03  3.25481E+03  1.28305E+03  6.29297E+03
 -3.65306E+03  1.69803E+03 -4.88635E+03 -4.25746E+03  2.09443E+03 -8.44640E+03  9.98612E+03 -7.36827E+03
  1.28698E+04  9.12384E+02  1.13859E+04  8.87313E+03  3.62719E+03  1.33372E+04 -4.81530E+03  1.30534E+04
 -1.11469E+04  5.77243E+03 -1.13398E+04 -1.91086E+03 -5.99005E+03 -8.71189E+03  2.06175E+03 -8.49960E+03
  8.43157E+03 -3.74473E+03  6.82718E+03  3.64701E+03  2.47378E+03  7.30178E+03 -1.53861E+03  6.40510E+03
 -3.50215E+03  4.26638E+03 -3.50507E+03  1.60897E+03 -1.53315E+03  1.30590E+03 -1.88010E+03  2.55554E+03
 -3.24491E+03  4.76622E+03 -8.95794E+03  4.90772E+03 -1.34967E+04  5.40371E+01 -1.47319E+04 -8.77016E+03
 -7.73829E+03 -1.77169E+04  3.49812E+03 -2.04211E+04  1.35314E+04 -1.54356E+04  1.95705E+04 -6.02912E+03
  1.76123E+04  4.08356E+03  1.08297E+04  1.24745E+04  1.21186E+03  1.42266E+04 -5.30304E+03  1.01222E+04
 -7.69792E+03  4.08578E+03 -4.77311E+03 -1.39550E+03 -1.81059E+03 -1.57491E+03 -8.32208E+02 -3.74774E+02
 -2.12842E+03  2.32575E+01 -2.87280E+03 -9.42128E+02 -1.05198E+03 -3.58012E+03  3.58686E+02 -4.72784E+03
  5.95207E+03 -4.70174E+03  9.41502E+03  4.48071E+02  9.71154E+03  7.66358E+03  3.24095E+03  1.42705E+04
 -6.80825E+03  1.56823E+04 -1.55676E+04  9.51306E+03 -1.78017E+04 -1.45759E+03 -1.38225E+04 -1.08079E+04
 -5.81785E+03 -1.42907E+04  4.38963E+03 -1.36269E+04  9.34752E+03 -7.64168E+03  9.83884E+03  3.56761E+02
  5.23014E+03  4.62880E+03 -5.28073E+02  3.75743E+03 -2.70101E+03 -2.35441E+02  2.79338E+02 -3.67316E+03
  4.31071E+03 -1.78665E+03  6.62635E+03  1.57409E+03  4.32579E+03  5.90320E+03 -4.48819E+02  8.12401E+03
 -6.19775E+03  6.99616E+03 -1.01428E+04  8.85200E+02 -9.25661E+03 -7.28663E+03 -1.52853E+03 -1.22654E+04
  7.29829E+03 -1.03702E+04  1.21823E+04 -3.29916E+03  1.11556E+04  3.62516E+03  6.39437E+03  8.92280E+03
  7.70204E+02  1.02146E+04 -4.13921E+03  8.37460E+03 -6.40189E+03  4.71494E+03 -5.42463E+03  4.30966E+02
 -3.05041E+03 -2.04178E+02 -2.42574E+03  1.66362E+03 -4.64938E+03  1.71438E+03 -7.80764E+03 -1.64272E+03
 -7.26246E+03 -5.26961E+03 -2.27822E+03 -1.02966E+04  4.70275E+03 -1.06762E+04  8.83936E+03 -5.14141E+03
  1.03726E+04  1.66646E+03  6.17473E+03  7.35352E+03 -9.14275E+02  1.01389E+04 -7.80571E+03  6.69361E+03
