 $NMID ID='MM_0lb_SNR800_16hz_g45_35.RAW', FMTDAT='(8E13.5)'
 TRAMP=1., VOLUME=1. $END
  3.09987E+05  3.22766E+02  3.37205E+05  2.50329E+05  8.45936E+04  3.37642E+05 -1.32493E+05  2.50709E+05
 -1.89962E+05  8.26339E+04 -1.11414E+05 -3.27731E+04  1.53164E+03 -5.04824E+04  5.38615E+04 -7.45641E+01
  3.54665E+04  5.27515E+04 -1.66348E+04  7.52063E+04 -6.03776E+04  6.30977E+04 -8.35315E+04  3.16965E+04
 -8.00444E+04 -1.12160E+04 -5.64778E+04 -5.05370E+04 -1.47813E+04 -6.86068E+04  2.71564E+04 -4.52069E+04
  3.96377E+04  3.87095E+03  1.57181E+04  4.73804E+04 -3.40982E+04  4.65901E+04 -6.58282E+04 -2.81268E+02
 -5.24534E+04 -5.64027E+04 -6.39668E+03 -7.59065E+04  3.34791E+04 -5.40565E+04  4.70254E+04 -1.67607E+04
  4.22868E+04  1.12865E+04  3.13546E+04  2.46891E+04  1.56305E+04  2.89340E+04 -5.03809E+03  2.71414E+04
 -2.17148E+04  1.25511E+04 -1.90740E+04 -4.61417E+03  4.92757E+03 -7.50894E+03  2.18173E+04  1.14444E+04
  7.46826E+03  3.44192E+04 -3.12565E+04  3.44753E+04 -6.22934E+04  2.25869E+03 -5.62121E+04 -4.18575E+04
 -1.23920E+04 -6.19649E+04  3.89661E+04 -4.40518E+04  5.69709E+04 -2.07560E+03  3.30496E+04  3.14024E+04
 -6.25930E+03  3.47649E+04 -2.90078E+04  1.45696E+04 -2.90921E+04 -4.95639E+03 -1.52661E+04 -1.01826E+04
 -7.68861E+03 -1.21688E+04 -7.16459E+02 -1.72622E+04  7.04996E+03 -2.28060E+04  1.51236E+04 -1.34796E+04
  1.19659E+04  4.56040E+03 -7.07336E+03  1.30034E+04 -2.03157E+04 -3.38343E+03 -8.44001E+03 -3.20528E+04
  2.19944E+04 -4.20099E+04  4.66217E+04 -1.90128E+04  4.30461E+04  1.89061E+04  1.50243E+04  4.26491E+04
 -1.56964E+04  3.20830E+04 -2.45903E+04  1.20660E+03 -8.98363E+03 -2.69390E+04  2.06744E+04 -3.25454E+04
  3.96633E+04 -8.11021E+03  3.36110E+04  2.30507E+04  1.66797E+04  4.42968E+04 -7.68657E+03  4.75250E+04
 -2.99064E+04  3.14182E+04 -3.96301E+04  8.69706E+03 -4.03880E+04 -1.57047E+04 -2.19064E+04 -3.61080E+04
  7.32784E+03 -3.55036E+04  3.03305E+04 -1.39255E+04  2.84061E+04  1.10584E+04  3.21675E+03  1.84407E+04
 -1.33952E+04  8.42507E+03 -9.87945E+03 -7.59933E+03  5.96108E+03 -1.04797E+04  1.75716E+04  6.27060E+03
  1.26986E+04  2.18956E+04 -6.57815E+03  2.41572E+04 -2.20517E+04  1.02369E+04 -2.63357E+04 -5.58051E+03
 -1.84869E+04 -1.66858E+04 -6.95502E+03 -1.86091E+04  4.11324E+03 -1.68596E+04  1.39432E+04 -1.57669E+04
  2.36885E+04 -1.21435E+04  3.01018E+04  2.04361E+03  2.26105E+04  1.79202E+04  3.80269E+03  3.42634E+04
 -1.69416E+04  2.87880E+04 -2.69020E+04  9.79355E+03 -2.02863E+04 -1.02698E+04 -4.33447E+03 -1.35853E+04
  2.34716E+03 -3.33786E+03 -3.98251E+03  5.94610E+03 -1.46107E+04  5.34193E+03 -1.47651E+04 -5.82777E+03
 -9.15151E+03 -1.72548E+04  5.02624E+03 -2.09938E+04  1.38317E+04 -1.52700E+04  1.63592E+04 -1.68062E+03
  9.89232E+03  1.19067E+04 -1.17235E+03  1.71640E+04 -1.13596E+04  9.67713E+03 -1.70581E+04 -3.49508E+03
 -1.32077E+04 -1.54328E+04 -1.62981E+03 -2.11825E+04  9.12632E+03 -1.68669E+04  1.75442E+04 -8.23134E+03
  1.62481E+04  4.54208E+02  1.17012E+04  3.99492E+03  5.94584E+03  5.66876E+02  8.51959E+03 -1.46313E+03
  1.55227E+04  2.91747E+03  1.67394E+04  1.38564E+04  1.07012E+04  2.71270E+04 -3.07595E+03  3.01640E+04
 -1.77922E+04  2.36930E+04 -2.78612E+04  1.16515E+04 -2.88583E+04 -2.00478E+03 -2.41046E+04 -1.64423E+04
 -1.08374E+04 -2.36458E+04  7.99007E+03 -2.18371E+04  1.86610E+04 -1.15673E+04  1.70655E+04  4.61686E+03
  6.78595E+03  1.28744E+04 -7.85233E+03  1.14827E+04 -1.46869E+04  2.77039E+03 -1.12685E+04 -9.05232E+03
 -4.07135E+02 -1.37288E+04  7.04962E+03 -1.08019E+04  8.78549E+03 -1.43064E+03  1.65640E+03  5.50829E+03
 -6.07802E+03  1.77835E+03 -4.87265E+03 -5.10922E+03  2.46801E+02 -1.14638E+04  8.48332E+03 -1.18958E+04
  1.44233E+04 -5.81553E+03  1.47906E+04  2.98802E+03  1.26036E+04  1.12901E+04  5.87841E+03  1.67024E+04
 -2.27805E+03  1.90515E+04 -1.13290E+04  1.22188E+04 -1.34377E+04  3.24128E+03 -9.67646E+03 -2.81059E+03
 -5.03324E+03 -3.92332E+03 -7.83853E+02  1.38521E+03 -2.18577E+03  2.13256E+03 -4.06660E+03  3.89627E+03
 -9.00832E+03 -3.91694E+02 -9.88836E+03 -8.20556E+03 -4.11888E+03 -1.30140E+04  4.14596E+03 -9.79657E+03
  8.57214E+03 -4.27956E+03  6.15445E+03  2.89469E+03  8.92134E+01  3.71194E+03 -4.18672E+03  3.04922E+01
 -4.11460E+03 -6.12558E+03 -1.05680E+03 -8.63138E+03  5.05307E+03 -9.59900E+03  1.18618E+04 -5.05711E+03
  1.40042E+04  8.50939E+02  1.01298E+04  7.68855E+03  2.01800E+03  1.06433E+04 -6.08909E+03  9.33174E+03
 -8.18434E+03  2.87584E+03 -4.05397E+03 -1.92117E+03  1.27199E+03 -2.30457E+03  5.54728E+03 -8.50049E+02
  4.94948E+03  3.99161E+03  1.16329E+03  7.45651E+03 -5.25481E+03  7.37110E+03 -8.98518E+03  1.90801E+03
 -6.16099E+03 -4.65262E+03  3.57170E+02 -7.78889E+03  4.57309E+03 -3.91603E+03  4.61014E+03  1.19396E+03
  8.79281E+02  4.39865E+03 -4.63767E+03  6.18534E+03 -6.65938E+03  2.83795E+03 -6.18507E+03 -1.81854E+03
 -3.89690E+03 -7.79014E+03  1.28826E+03 -8.85576E+03  7.66603E+03 -5.60442E+03  7.98243E+03  1.57059E+03
  5.37185E+03  6.42869E+03 -2.88173E+02  8.72169E+03 -6.25554E+03  5.05248E+03 -6.41295E+03 -6.26675E+02
 -6.42516E+03 -6.30230E+03 -1.47673E+03 -6.38975E+03  3.20868E+03 -5.52884E+03  3.66918E+03 -3.06802E+03
  3.54221E+03  1.49297E+02 -1.07920E+01  1.46699E+03  5.53513E+02 -1.00322E+03  8.84906E+02 -2.93193E+03
  5.32564E+03 -1.22610E+03  6.91507E+03  1.00479E+03  7.40735E+03  4.25448E+03  6.15904E+03  9.53012E+03
 -1.81747E+03  1.12996E+04 -9.58512E+03  8.24361E+03 -1.26618E+04  1.58883E+03 -9.89952E+03 -3.97700E+03
 -5.13394E+03 -8.66382E+03 -4.26181E+02 -6.75548E+03  2.61706E+03 -3.31654E+03  2.27043E+03 -2.77613E+03
  1.59226E+03 -1.73252E+03  2.43806E+03 -2.35299E+03  4.08937E+03 -1.54479E+03  4.50165E+03 -7.25985E+01
  5.50076E+03  1.34200E+03  1.80438E+03  4.57729E+03 -1.42194E+03  4.34861E+03 -5.46560E+03  3.82804E+03
 -6.71156E+03 -1.10745E+03 -3.01765E+03 -4.52920E+03 -1.19958E+02 -6.87793E+03  3.91472E+03 -7.17586E+03
  7.18780E+03 -4.06342E+03  9.05383E+03  6.57299E+02  6.37033E+03  5.90078E+03  1.24007E+03  7.93125E+03
 -2.85498E+03  7.44708E+03 -4.89734E+03  2.09191E+03 -2.68680E+03 -1.09119E+03 -1.07306E+03 -8.26179E+02
 -6.79584E+02  4.03704E+02 -1.12666E+03  1.86829E+03 -3.37829E+03  1.48921E+03 -4.83853E+03 -6.39288E+02
 -2.69698E+03 -5.16248E+03  7.13065E+02 -6.39446E+03  4.00850E+03 -5.77626E+03  5.58313E+03 -1.59803E+03
  5.58259E+03  3.40782E+03  2.09039E+03  4.95870E+03 -1.03732E+03  6.34416E+03 -3.74071E+03  3.54529E+03
 -5.36934E+03  6.92238E+02 -4.40309E+03 -3.29737E+03 -4.47046E+02 -4.44033E+03  2.32760E+03 -3.88036E+03
  3.57944E+03 -1.53249E+03  2.41517E+03  8.40668E+02  8.37118E+02  2.09026E+03  8.59670E+02  9.75273E+02
  1.60667E+03  8.03329E+02  1.45622E+03  1.30521E+03  1.94390E+03  2.67310E+03  1.80492E+03  2.73903E+03
 -1.41933E+03  3.99538E+03 -3.35012E+03  4.90530E+03 -4.81750E+03  1.52805E+03 -5.80414E+03 -1.27510E+03
 -2.32917E+03 -5.30196E+03  7.85207E+02 -6.33814E+03  2.91263E+03 -3.66813E+03  4.34328E+03 -1.15450E+03
  3.62866E+03  2.01024E+03  8.47827E+02  3.22696E+03 -1.29473E+03  2.24179E+03 -1.87799E+03 -2.95307E+02
 -1.04241E+03 -2.35401E+03  1.70488E+03 -2.34939E+03  2.21921E+03 -1.30757E+03  1.93506E+03  4.86127E+02
  1.37037E+03  5.66685E+02  8.66163E+02  5.17584E+01 -5.19039E+02  1.10973E+03  1.51760E+03 -1.56763E+02
  2.92298E+02 -2.91648E+02  2.39124E+03  8.81514E+02  7.73263E+02  3.29172E+03 -1.80335E+02  3.82459E+03
 -2.59974E+03  1.76313E+03 -3.04911E+03  6.87700E+02 -3.07035E+03 -9.44305E+02 -7.00257E+02 -1.71455E+03
  5.01356E+02 -1.91636E+03  1.43388E+03 -1.10389E+03  1.19570E+03  1.81182E+03 -7.92369E+02  1.52645E+03
 -2.11959E+03  1.16601E+03 -2.12849E+03 -1.75651E+03 -1.28321E+03 -2.67172E+03  3.45356E+02 -2.74599E+03
  9.72773E+02 -1.38936E+03  1.52409E+03 -9.61758E+01  1.78140E+03  2.24959E+02  1.45358E+02  1.81048E+03
 -6.38678E+02  1.36337E+02 -1.23236E+03 -5.45096E+02  3.77669E+02 -1.69785E+03  2.87919E+03 -1.49496E+03
  2.36002E+03  2.95003E+02  3.48989E+03  1.29900E+03  1.44877E+03  2.73965E+03 -6.05044E+02  3.12817E+03
 -2.10985E+03  7.15851E+02 -2.47803E+03 -1.36307E+02 -1.44870E+03 -1.99502E+03  4.76730E+02 -1.42305E+03
  1.94955E+03 -9.88544E+02  1.08617E+03  7.64314E+02  3.93177E+02  2.11597E+03 -3.01337E+02  1.54802E+03
 -6.36127E+02  1.41542E+03 -7.52619E+02  5.32019E+02 -8.48104E+01  5.15201E+02 -8.40415E+02  8.46684E+02
 -7.68283E+02  1.25044E+03 -2.13759E+03  9.64243E+02 -2.94527E+03  4.91433E+02 -3.58631E+03 -1.55512E+03
 -1.67289E+03 -3.57628E+03  6.88879E+02 -4.25964E+03  2.18429E+03 -3.61644E+03  4.23876E+03 -1.69862E+03
  3.54109E+03  2.04494E+01  2.03743E+03  2.52793E+03 -2.61803E+02  2.24129E+03 -9.22654E+02  2.17148E+03
 -1.20676E+03  9.15012E+02 -1.17961E+03 -2.95686E+02 -8.92287E+02 -6.89017E+01 -6.87237E+02 -1.35765E+02
 -1.46145E+03 -1.87825E+02 -8.10342E+02  7.09509E+01  6.66447E+00 -8.58892E+02 -3.26068E+02 -1.38703E+03
  1.52228E+03 -1.05484E+03  8.13963E+02  3.97371E+02  2.06518E+03  1.63983E+03 -2.31523E+02  2.63002E+03
 -1.67462E+03  3.29086E+03 -2.81725E+03  1.88085E+03 -3.14411E+03 -1.46012E+02 -1.99749E+03 -2.31051E+03
 -1.25291E+03 -2.27829E+03  6.97935E+02 -2.13500E+03  1.55086E+03 -1.21562E+03  1.70992E+03  3.10556E+02
  1.27690E+03  8.47329E+02 -5.52754E+01  1.08931E+03 -7.11166E+02 -1.95753E+02 -8.96362E+01 -5.67873E+02
  8.05605E+02 -1.75975E+02  7.52869E+02  6.45753E+02  4.18771E+02  7.79727E+02  2.04651E+02  6.76348E+02
 -7.32983E+02  1.23190E+03 -1.18286E+03  3.16830E+02 -1.26144E+03 -1.04898E+03 -2.58889E+02 -2.20426E+03
  1.04380E+03 -1.40676E+03  1.36199E+03 -4.99029E+02  1.67838E+03 -3.16851E+01  1.07446E+03  1.32998E+03
  6.59412E+02  9.64254E+02 -4.23241E+02  1.45158E+03 -8.91638E+02  8.57317E+02 -5.06780E+02  2.61427E+02
 -4.20614E+02  8.11673E+01 -8.57005E+02  1.65898E+02 -1.09221E+03  2.78175E+02 -1.17994E+03 -1.90068E+02
 -1.57969E+03 -3.16957E+02 -4.43099E+02 -1.46965E+03  1.01495E+03 -2.12373E+03  1.44300E+03 -5.56104E+02
  1.26357E+03  3.79759E+02  2.35368E+02  8.59451E+02 -3.35581E+02  1.18587E+03 -7.38569E+02  9.45612E+02
