 $NMID ID='MM_0lb_SNR800_19hz_g60_14.RAW', FMTDAT='(8E13.5)'
 TRAMP=1., VOLUME=1. $END
  3.10010E+05  4.87906E+02  3.37435E+05  2.50455E+05  8.43588E+04  3.37634E+05 -1.32520E+05  2.50721E+05
 -1.89783E+05  8.28861E+04 -1.11340E+05 -3.23843E+04  1.35869E+03 -5.04247E+04  5.41809E+04 -2.28340E+01
  3.53159E+04  5.29859E+04 -1.69535E+04  7.51970E+04 -6.06717E+04  6.32001E+04 -8.34464E+04  3.18345E+04
 -8.06835E+04 -1.12314E+04 -5.67396E+04 -5.08806E+04 -1.50861E+04 -6.89400E+04  2.71528E+04 -4.54548E+04
  3.96028E+04  4.12593E+03  1.60537E+04  4.75576E+04 -3.39887E+04  4.68626E+04 -6.64429E+04 -2.28118E+02
 -5.25428E+04 -5.64700E+04 -6.51605E+03 -7.60068E+04  3.36927E+04 -5.44926E+04  4.70908E+04 -1.66675E+04
  4.24379E+04  1.12930E+04  3.11913E+04  2.51409E+04  1.57086E+04  2.88387E+04 -4.72403E+03  2.70445E+04
 -2.21257E+04  1.24577E+04 -1.90572E+04 -4.63899E+03  5.13432E+03 -7.29156E+03  2.16000E+04  1.16900E+04
  7.43937E+03  3.43362E+04 -3.14749E+04  3.46276E+04 -6.23015E+04  2.30295E+03 -5.61579E+04 -4.22171E+04
 -1.25361E+04 -6.21248E+04  3.89660E+04 -4.44547E+04  5.69396E+04 -2.18132E+03  3.30683E+04  3.14589E+04
 -6.44480E+03  3.47188E+04 -2.91811E+04  1.44668E+04 -2.89678E+04 -4.95167E+03 -1.54698E+04 -1.04427E+04
 -7.83170E+03 -1.24482E+04 -1.08252E+03 -1.73397E+04  7.03925E+03 -2.26390E+04  1.51519E+04 -1.35237E+04
  1.19253E+04  4.93028E+03 -7.09273E+03  1.30721E+04 -2.00044E+04 -3.15054E+03 -8.19818E+03 -3.16680E+04
  2.17157E+04 -4.16995E+04  4.60276E+04 -1.90879E+04  4.34057E+04  1.86783E+04  1.49108E+04  4.26876E+04
 -1.54015E+04  3.20176E+04 -2.42175E+04  1.38717E+03 -9.12889E+03 -2.67224E+04  2.04474E+04 -3.24420E+04
  3.92589E+04 -8.15027E+03  3.30875E+04  2.30891E+04  1.64924E+04  4.40885E+04 -7.90893E+03  4.71271E+04
 -2.96238E+04  3.13016E+04 -3.90467E+04  8.79876E+03 -3.98748E+04 -1.58039E+04 -2.22649E+04 -3.58377E+04
  6.60846E+03 -3.56187E+04  3.01166E+04 -1.33993E+04  2.79800E+04  1.07390E+04  3.56445E+03  1.82064E+04
 -1.32195E+04  7.63886E+03 -9.83432E+03 -7.60536E+03  5.84591E+03 -1.04990E+04  1.74397E+04  6.21982E+03
  1.29026E+04  2.18160E+04 -6.63094E+03  2.40717E+04 -2.18227E+04  9.87555E+03 -2.61525E+04 -5.59926E+03
 -1.82639E+04 -1.64049E+04 -6.51889E+03 -1.81913E+04  3.78015E+03 -1.64118E+04  1.38885E+04 -1.57854E+04
  2.27138E+04 -1.17470E+04  2.95992E+04  1.59788E+03  2.20989E+04  1.77873E+04  4.16851E+03  3.35079E+04
 -1.66204E+04  2.85182E+04 -2.61794E+04  9.73780E+03 -1.99997E+04 -1.06041E+04 -3.91220E+03 -1.38118E+04
  2.62702E+03 -3.68316E+03 -3.36887E+03  5.71261E+03 -1.40585E+04  5.35830E+03 -1.42511E+04 -5.49381E+03
 -8.87797E+03 -1.67473E+04  4.90382E+03 -2.02260E+04  1.32615E+04 -1.49092E+04  1.57222E+04 -1.46659E+03
  9.68613E+03  1.14431E+04 -9.21753E+02  1.66029E+04 -1.10177E+04  9.29210E+03 -1.66261E+04 -3.64791E+03
 -1.22256E+04 -1.49453E+04 -1.47413E+03 -2.02467E+04  9.18721E+03 -1.61131E+04  1.70087E+04 -7.51844E+03
  1.51607E+04  7.24182E+02  1.12202E+04  4.03124E+03  5.39235E+03  6.69977E+02  7.91565E+03 -1.52965E+03
  1.51239E+04  2.55268E+03  1.58860E+04  1.34519E+04  9.83973E+03  2.58390E+04 -3.12551E+03  2.84788E+04
 -1.67614E+04  2.19841E+04 -2.64421E+04  1.06961E+04 -2.67324E+04 -1.97209E+03 -2.26269E+04 -1.53556E+04
 -1.02335E+04 -2.21139E+04  7.35475E+03 -2.05211E+04  1.77376E+04 -1.11052E+04  1.64756E+04  3.99929E+03
  6.47829E+03  1.18826E+04 -7.40070E+03  1.09629E+04 -1.38782E+04  2.66570E+03 -1.04902E+04 -8.40208E+03
 -7.86564E+01 -1.30026E+04  6.30421E+03 -9.79296E+03  8.22890E+03 -1.39367E+03  1.63440E+03  5.03423E+03
 -5.51972E+03  1.81259E+03 -4.08460E+03 -4.84809E+03  5.42531E+02 -1.08965E+04  8.26208E+03 -1.09502E+04
  1.31548E+04 -5.43357E+03  1.29537E+04  2.86096E+03  1.13048E+04  1.00104E+04  5.36827E+03  1.49769E+04
 -1.88809E+03  1.72014E+04 -1.04148E+04  1.07051E+04 -1.21823E+04  3.00662E+03 -9.00592E+03 -2.34609E+03
 -4.59366E+03 -3.54128E+03 -8.37332E+02  1.37500E+03 -1.94288E+03  1.80979E+03 -3.71036E+03  3.77987E+03
 -8.59538E+03 -3.68473E+02 -9.29145E+03 -7.38534E+03 -3.71383E+03 -1.19280E+04  3.76324E+03 -8.97725E+03
  7.41908E+03 -3.92698E+03  5.68972E+03  2.48460E+03  6.95422E+02  3.03543E+03 -3.81526E+03 -2.59573E+02
 -3.47426E+03 -5.28586E+03 -9.04846E+02 -8.00693E+03  4.21239E+03 -8.32328E+03  1.02558E+04 -4.19415E+03
  1.23651E+04  7.90377E+02  9.08217E+03  6.65340E+03  1.88061E+03  8.99388E+03 -5.46805E+03  8.55194E+03
 -7.21756E+03  2.76825E+03 -3.55269E+03 -1.27398E+03  1.47075E+03 -1.74952E+03  4.93930E+03 -7.70576E+02
  3.92477E+03  3.50390E+03  9.99237E+02  6.51092E+03 -4.46303E+03  6.41408E+03 -8.15552E+03  1.95576E+03
 -5.17983E+03 -3.55558E+03  5.63655E+01 -7.11720E+03  3.88711E+03 -3.63851E+03  3.79411E+03  1.17370E+03
  4.73653E+02  3.53761E+03 -4.07145E+03  4.83031E+03 -4.97393E+03  2.60841E+03 -4.73209E+03 -1.34318E+03
 -3.14145E+03 -6.30945E+03  1.40455E+03 -7.42352E+03  6.34674E+03 -4.72348E+03  6.84482E+03  1.05126E+03
  4.76715E+03  5.70047E+03  8.23773E+01  7.57873E+03 -5.18434E+03  4.19140E+03 -5.25190E+03 -4.79662E+02
 -6.03684E+03 -5.30347E+03 -1.30683E+03 -5.40921E+03  2.67947E+03 -4.51321E+03  3.11267E+03 -2.90043E+03
  2.96610E+03  4.35017E+02 -1.03030E+02  1.28138E+03  4.51077E+02 -7.62585E+01  2.40010E+02 -1.77493E+03
  3.99466E+03 -9.01346E+02  5.27558E+03  5.72587E+02  5.89941E+03  3.03467E+03  5.40777E+03  7.21349E+03
 -1.37613E+03  8.65674E+03 -7.67551E+03  6.69261E+03 -1.02206E+04  1.34772E+03 -7.76668E+03 -2.73946E+03
 -4.55954E+03 -6.74446E+03 -4.61702E+02 -5.15497E+03  2.14315E+03 -1.92460E+03  1.90745E+03 -2.13516E+03
  1.23899E+03 -1.73665E+03  2.22116E+03 -2.27345E+03  3.52126E+03 -1.41061E+03  3.43461E+03  4.48941E+02
  4.57996E+03  1.11815E+03  1.21088E+03  3.32912E+03 -1.40519E+03  2.67598E+03 -4.39747E+03  2.29966E+03
 -4.90860E+03 -1.22106E+03 -1.81993E+03 -3.43700E+03  4.77162E+02 -5.07576E+03  3.18471E+03 -5.39115E+03
  5.27060E+03 -3.17257E+03  6.86223E+03  1.74773E+02  4.65998E+03  4.25411E+03  1.13934E+03  5.97292E+03
 -1.92786E+03  5.84649E+03 -3.32982E+03  1.97946E+03 -1.96575E+03 -9.63306E+02 -5.02277E+02 -5.79468E+02
 -7.34347E+02  3.04213E+02 -9.49110E+02  2.01402E+03 -2.95600E+03  8.39235E+02 -3.93461E+03 -4.57023E+02
 -1.46686E+03 -3.97896E+03  8.81731E+02 -4.55897E+03  2.63630E+03 -4.46204E+03  3.45828E+03 -1.07459E+03
  3.92707E+03  2.16728E+03  1.81385E+03  3.03837E+03 -5.45606E+02  4.20381E+03 -2.70852E+03  2.75336E+03
 -3.79212E+03  7.49312E+02 -3.28949E+03 -2.25755E+03 -1.38732E+02 -2.88198E+03  1.58089E+03 -2.42852E+03
  2.71774E+03 -1.21436E+03  1.94158E+03  4.43508E+02  2.15472E+02  1.59887E+03  5.83010E+02  4.97660E+02
  1.74661E+03  5.31542E+02  1.06735E+03  1.09404E+03  1.19173E+03  2.14427E+03  1.54695E+03  1.58288E+03
 -1.28696E+03  2.85601E+03 -2.38840E+03  4.06602E+03 -2.70856E+03  1.34851E+03 -4.12096E+03 -1.98992E+02
 -1.46241E+03 -3.44688E+03  7.56495E+02 -4.53910E+03  1.61628E+03 -2.59237E+03  3.09155E+03 -8.56993E+02
  2.47141E+03  1.76391E+03  3.51340E+02  1.67846E+03 -3.81865E+02  1.22674E+03 -9.59829E+02 -1.31452E+01
 -4.10498E+02 -1.31383E+03  9.74248E+02 -1.66045E+03  1.05396E+03 -7.41685E+02  1.13787E+03  2.63978E+02
  4.33261E+02  1.34548E+02  5.06991E+02 -3.03971E+02 -3.36566E+02  9.15915E+02  1.56447E+03 -3.25862E+02
 -2.38629E+02 -2.84098E+02  1.79212E+03  5.74677E+02  1.18401E+02  2.16193E+03 -2.94316E+02  2.72338E+03
 -1.34805E+03  1.10281E+03 -1.58975E+03  4.96242E+02 -2.11387E+03 -8.75032E+02 -3.41617E+01 -6.11982E+02
  2.98641E+02 -1.04181E+03  8.63965E+02 -6.40587E+02  4.22185E+02  1.29292E+03 -7.22627E+02  1.11706E+03
 -1.39025E+03  8.05282E+02 -9.63810E+02 -1.29194E+03 -7.46386E+02 -1.96752E+03  2.31937E+02 -1.44274E+03
  6.22219E+02 -5.93252E+02  5.34873E+02  8.37093E+01  1.15394E+03 -2.11769E+02  3.11548E+02  1.02343E+03
 -1.91588E+02  7.77059E+00 -6.55258E+02 -1.94305E+01  5.27809E+02 -5.88297E+02  1.79816E+03 -7.54842E+02
  9.67904E+02 -6.62124E+01  2.60841E+03  6.29759E+02  7.13013E+02  1.50807E+03 -4.60339E+02  1.85543E+03
 -1.17224E+03  2.52795E+02 -1.04859E+03 -7.53870E+01 -1.07707E+03 -1.14218E+03  3.95680E+02 -6.29631E+02
  1.50071E+03 -6.68879E+02  9.23955E+02  5.08076E+02  3.14076E+02  1.08011E+03  3.05791E+02  1.05109E+03
 -1.70866E+02  1.38153E+03 -5.19736E+02  1.51873E+02 -6.06804E+01  5.94772E+02 -5.09624E+02  4.91974E+02
 -5.84644E+02  9.90246E+02 -1.68459E+03  3.86151E+02 -1.46387E+03  1.74115E+02 -2.06948E+03 -7.87269E+02
 -1.03709E+03 -1.98476E+03  7.43741E+02 -2.37965E+03  5.99321E+02 -2.51136E+03  2.36791E+03 -9.30956E+02
  2.22643E+03 -2.60764E+02  9.88498E+02  1.22480E+03 -7.62243E+02  1.40276E+03 -6.91907E+02  1.18810E+03
 -8.45718E+02  6.09961E+02 -2.29861E+02 -6.59908E+01 -4.61358E+02  2.85324E+02 -7.25261E+02  2.84058E+01
 -1.14971E+03 -3.19496E+01 -8.78128E+02  2.26481E+01  2.88829E+02 -3.25502E+02 -4.94823E+02 -8.17549E+02
  9.83814E+02 -6.27392E+02 -1.29704E+01  1.65070E+02  8.01055E+02  8.68342E+02 -6.48901E+02  8.57259E+02
 -1.26728E+03  1.77962E+03 -1.14887E+03  1.10058E+03 -1.52606E+03 -2.96284E+02 -1.03241E+03 -1.05003E+03
 -9.89251E+02 -1.06235E+03 -2.75357E+01 -7.90709E+02  4.31624E+02 -3.12839E+02  4.13522E+02  2.52240E+02
  7.04976E+02  4.65658E+02 -1.36151E+02  2.53177E+02 -4.51925E+02 -2.11553E+02 -5.23470E+01 -6.67441E+00
  2.21847E+02  2.72338E+02 -4.92284E+01  3.68824E+02  5.13339E+00  5.36239E+02  5.94250E+02  1.79183E+02
 -8.98132E+01  4.31214E+02 -5.58389E+02 -1.46635E+02 -6.07305E+02 -3.77749E+02  4.01674E+01 -8.51696E+02
  4.37129E+02 -1.06380E+02  2.50712E+02  1.48675E+02  7.69117E+02 -6.76723E+02  4.39495E+02  9.35357E+02
  5.10739E+02  3.00875E+02 -1.35899E+02  6.28390E+02 -7.22260E+02  6.23713E+02 -1.86543E+02 -7.77299E+01
 -2.15448E+01 -6.57561E+01 -4.37216E+02  7.30042E+01 -3.76280E+02  3.04222E+02 -5.07803E+02 -1.56116E+02
 -9.75363E+02  1.56484E+02 -2.98003E+02 -7.53628E+02  6.39410E+02 -1.36258E+03  3.24622E+02 -2.33403E+02
  5.15960E+02  5.38958E+01 -5.62570E+02  2.85077E+02  1.03946E+01  5.75684E+02 -1.10579E+02  4.19436E+02
