 $NMID ID='MM_0lb_SNR800_19hz_g40_70.RAW', FMTDAT='(8E13.5)'
 TRAMP=1., VOLUME=1. $END
  3.09866E+05  3.48722E+02  3.37007E+05  2.50341E+05  8.41727E+04  3.37279E+05 -1.32441E+05  2.50024E+05
 -1.89306E+05  8.21101E+04 -1.10774E+05 -3.30464E+04  1.64560E+03 -5.01723E+04  5.41269E+04  4.57086E+02
  3.50191E+04  5.26976E+04 -1.69539E+04  7.46173E+04 -5.99796E+04  6.24834E+04 -8.24213E+04  3.12438E+04
 -7.89131E+04 -1.12658E+04 -5.58941E+04 -4.96290E+04 -1.46634E+04 -6.79153E+04  2.64011E+04 -4.47374E+04
  3.86858E+04  4.07477E+03  1.52011E+04  4.69410E+04 -3.39038E+04  4.60233E+04 -6.50901E+04 -6.20168E+02
 -5.16367E+04 -5.52706E+04 -6.02748E+03 -7.47805E+04  3.27114E+04 -5.25610E+04  4.56834E+04 -1.60434E+04
  4.08741E+04  1.08325E+04  3.04338E+04  2.41624E+04  1.58514E+04  2.79076E+04 -4.44059E+03  2.66029E+04
 -2.14090E+04  1.26852E+04 -1.92475E+04 -3.90594E+03  4.02789E+03 -7.55115E+03  2.09836E+04  1.03214E+04
  7.44726E+03  3.25656E+04 -3.02234E+04  3.33035E+04 -6.03748E+04  2.14972E+03 -5.49365E+04 -4.07524E+04
 -1.23832E+04 -6.00951E+04  3.75939E+04 -4.28899E+04  5.45567E+04 -1.80984E+03  3.11963E+04  2.99578E+04
 -6.87712E+03  3.21397E+04 -2.77865E+04  1.24929E+04 -2.67246E+04 -5.62541E+03 -1.36879E+04 -1.00177E+04
 -6.99197E+03 -1.08659E+04 -1.03661E+03 -1.61893E+04  6.55992E+03 -2.24227E+04  1.47104E+04 -1.38676E+04
  1.25506E+04  4.07441E+03 -5.37068E+03  1.30038E+04 -1.85981E+04 -1.74114E+03 -7.99982E+03 -2.93222E+04
  2.02159E+04 -3.94453E+04  4.35123E+04 -1.83662E+04  4.09904E+04  1.78674E+04  1.38859E+04  4.12336E+04
 -1.51776E+04  3.05417E+04 -2.27253E+04  7.89741E+02 -8.09463E+03 -2.60383E+04  2.01794E+04 -3.04473E+04
  3.69308E+04 -6.97997E+03  3.01655E+04  2.25945E+04  1.44664E+04  4.14698E+04 -7.73375E+03  4.38137E+04
 -2.72424E+04  2.88260E+04 -3.56566E+04  8.27290E+03 -3.70122E+04 -1.49419E+04 -2.07767E+04 -3.35820E+04
  6.84304E+03 -3.30486E+04  2.84468E+04 -1.20018E+04  2.61531E+04  1.07758E+04  2.54907E+03  1.72686E+04
 -1.28472E+04  6.89235E+03 -9.35968E+03 -7.75913E+03  6.16152E+03 -9.70862E+03  1.70469E+04  6.57719E+03
  1.20922E+04  2.15080E+04 -6.65766E+03  2.29617E+04 -2.12289E+04  8.93920E+03 -2.43894E+04 -6.78363E+03
 -1.55593E+04 -1.61113E+04 -5.05667E+03 -1.57660E+04  3.36442E+03 -1.35271E+04  1.17601E+04 -1.35024E+04
  1.98921E+04 -1.12681E+04  2.68028E+04  7.96916E+02  2.05258E+04  1.53134E+04  3.95602E+03  3.13816E+04
 -1.56615E+04  2.68987E+04 -2.52263E+04  9.00922E+03 -1.94020E+04 -1.05422E+04 -3.86815E+03 -1.41041E+04
  2.67326E+03 -4.41776E+03 -2.02379E+03  5.06178E+03 -1.20163E+04  5.08690E+03 -1.27066E+04 -4.48842E+03
 -8.03890E+03 -1.46325E+04  4.47343E+03 -1.85576E+04  1.21415E+04 -1.33846E+04  1.36215E+04 -1.46908E+03
  8.42326E+03  1.02978E+04 -8.40135E+02  1.50342E+04 -9.72130E+03  8.14470E+03 -1.41006E+04 -3.33402E+03
 -1.08324E+04 -1.35357E+04 -1.44269E+03 -1.82618E+04  8.05771E+03 -1.45399E+04  1.52636E+04 -6.63326E+03
  1.38660E+04  7.03592E+02  9.84166E+03  3.73817E+03  4.76934E+03  2.30421E+02  7.04100E+03 -1.27469E+03
  1.30514E+04  2.70529E+03  1.37096E+04  1.21876E+04  8.33824E+03  2.35167E+04 -2.96618E+03  2.46314E+04
 -1.49563E+04  1.86698E+04 -2.28151E+04  8.58444E+03 -2.32303E+04 -1.70113E+03 -2.02037E+04 -1.31247E+04
 -9.69792E+03 -1.88859E+04  6.09873E+03 -1.76975E+04  1.55452E+04 -1.03158E+04  1.45577E+04  3.32474E+03
  6.61927E+03  1.04185E+04 -6.60204E+03  9.87003E+03 -1.25869E+04  2.66758E+03 -9.48172E+03 -7.32494E+03
  2.15799E+01 -1.17651E+04  5.59753E+03 -9.04101E+03  7.40342E+03 -1.30350E+03  1.33251E+03  4.63129E+03
 -5.32270E+03  1.13639E+03 -3.23446E+03 -4.23622E+03  8.89705E+02 -9.64411E+03  7.31244E+03 -9.53714E+03
  1.13987E+04 -4.28372E+03  1.10228E+04  2.83419E+03  9.20244E+03  8.72339E+03  4.51977E+03  1.27891E+04
 -1.42015E+03  1.44297E+04 -8.75770E+03  9.55298E+03 -1.03818E+04  2.97476E+03 -8.00179E+03 -1.84660E+03
 -4.39704E+03 -2.90897E+03 -8.02611E+02  1.68933E+03 -1.81513E+03  1.82032E+03 -3.17793E+03  3.22777E+03
 -7.60678E+03 -3.02408E+02 -8.06574E+03 -6.89439E+03 -3.10319E+03 -1.08367E+04  3.10378E+03 -7.96758E+03
  6.72185E+03 -3.63085E+03  4.90421E+03  1.77917E+03  6.64509E+02  2.89995E+03 -3.21009E+03 -7.06481E+01
 -3.19607E+03 -4.84244E+03 -8.56323E+02 -6.55761E+03  3.32164E+03 -7.20230E+03  8.99790E+03 -3.85646E+03
  1.09008E+04  6.29125E+02  7.85380E+03  5.41802E+03  1.81019E+03  7.64911E+03 -5.02455E+03  7.85796E+03
 -6.52365E+03  2.80702E+03 -3.28666E+03 -7.93505E+02  9.52983E+02 -1.74217E+03  4.25412E+03 -1.04048E+03
  3.84015E+03  3.09346E+03  9.15873E+02  5.77551E+03 -3.87990E+03  5.98145E+03 -7.45876E+03  1.50578E+03
 -4.85047E+03 -3.32749E+03  3.06431E+02 -6.23111E+03  3.38548E+03 -3.27805E+03  3.31441E+03  8.23144E+02
  5.83332E+02  2.95807E+03 -3.71649E+03  4.09691E+03 -4.46031E+03  2.12394E+03 -4.09130E+03 -1.01898E+03
 -2.43989E+03 -5.43810E+03  9.04329E+02 -6.16097E+03  5.35647E+03 -4.33042E+03  5.42524E+03  8.98635E+02
  4.33154E+03  4.72231E+03 -3.61647E+01  6.53217E+03 -4.82902E+03  3.96896E+03 -4.72847E+03 -2.69047E+02
 -5.63155E+03 -4.91568E+03 -1.28660E+03 -4.60018E+03  2.33986E+03 -4.09209E+03  2.54229E+03 -2.71056E+03
  2.66868E+03  3.32693E+02  1.43656E+02  8.29123E+02  4.94835E+02 -4.33347E+01 -3.88341E+01 -1.82057E+03
  3.24210E+03 -5.40781E+02  4.68039E+03  5.05535E+02  5.10535E+03  2.63004E+03  4.93156E+03  6.55973E+03
 -1.13895E+03  7.56047E+03 -6.69512E+03  5.99395E+03 -9.04305E+03  1.22404E+03 -7.22787E+03 -2.15626E+03
 -3.93511E+03 -5.96953E+03 -2.42129E+02 -4.59166E+03  1.87607E+03 -2.06785E+03  1.65632E+03 -1.98343E+03
  7.68110E+02 -1.54265E+03  2.10721E+03 -2.06700E+03  3.37215E+03 -1.02228E+03  3.28193E+03  8.58238E+02
  4.04255E+03  1.10862E+03  9.10417E+02  3.14339E+03 -1.47561E+03  2.49583E+03 -4.00621E+03  2.00241E+03
 -4.51466E+03 -1.19774E+03 -1.40168E+03 -3.04043E+03  5.61215E+02 -4.21691E+03  2.93024E+03 -4.91000E+03
  4.74608E+03 -2.90706E+03  6.06344E+03  1.35629E+02  4.52469E+03  3.71094E+03  1.19253E+03  5.34709E+03
 -2.01211E+03  5.18806E+03 -2.93363E+03  1.85387E+03 -1.62963E+03 -8.69709E+02 -3.40667E+02 -5.97740E+02
 -4.30099E+02  4.08473E+02 -9.14524E+02  1.92570E+03 -2.56213E+03  1.13577E+03 -3.89175E+03 -4.83931E+02
 -1.29083E+03 -3.66766E+03  9.83160E+02 -3.92055E+03  2.28682E+03 -4.03866E+03  2.83044E+03 -1.08060E+03
  3.50207E+03  2.27156E+03  1.44376E+03  2.71226E+03 -8.76240E+02  4.03408E+03 -2.32413E+03  2.28880E+03
 -3.46611E+03  4.97959E+02 -3.35451E+03 -2.18462E+03 -3.07074E+02 -2.60193E+03  1.15523E+03 -2.18414E+03
  2.38299E+03 -1.25833E+03  1.51740E+03  5.76287E+02  5.77874E+02  1.48666E+03  8.59754E+02  3.71075E+02
  1.52387E+03  4.89836E+02  1.18382E+03  1.12149E+03  1.16256E+03  2.19389E+03  1.13052E+03  1.67147E+03
 -1.30562E+03  2.54374E+03 -2.28784E+03  3.92249E+03 -2.66937E+03  1.37040E+03 -3.75925E+03 -5.30770E+01
 -1.38963E+03 -3.54996E+03  7.63348E+02 -4.31706E+03  1.64695E+03 -2.33930E+03  2.95047E+03 -8.87025E+02
  2.15978E+03  1.88045E+03  2.49643E+02  1.98694E+03 -4.02262E+02  1.27041E+03 -8.97851E+02 -2.12399E+02
 -5.53258E+02 -1.12441E+03  1.30427E+03 -1.48578E+03  9.28856E+02 -9.93521E+02  1.06519E+03  2.20968E+02
  5.61388E+02  2.16461E+02  9.42368E+02 -3.72803E+02 -1.02001E+02  7.29776E+02  1.66692E+03 -3.50504E+02
 -6.59771E+01 -2.51562E+02  1.98542E+03  6.70909E+02  3.58645E+01  2.39824E+03 -5.43852E+02  2.56432E+03
 -1.62631E+03  6.56361E+02 -1.71627E+03  2.62226E+02 -2.15486E+03 -9.32853E+02 -1.63084E+02 -9.07153E+02
  5.93050E+02 -1.21437E+03  7.40078E+02 -5.09429E+02  4.25035E+02  1.29980E+03 -7.45925E+02  1.28629E+03
 -1.37785E+03  7.57347E+02 -1.09058E+03 -1.15888E+03 -6.54853E+02 -2.06766E+03  3.89712E+02 -1.42928E+03
  2.59038E+02 -4.84626E+02  7.09543E+02  1.70650E+02  1.47859E+03  8.71038E+01  2.48420E+02  1.29236E+03
 -3.33069E+02  2.73793E+01 -8.96811E+02 -2.22882E+02  7.68032E+02 -6.97434E+02  1.48155E+03 -4.51603E+02
  9.39343E+02 -8.94064E+01  2.52064E+03  5.82212E+02  1.10839E+03  1.36697E+03 -1.58748E+02  1.69574E+03
 -1.54426E+03  3.46128E+02 -1.29101E+03 -1.14848E+02 -7.72028E+02 -1.31652E+03  5.03784E+02 -2.54013E+02
  1.46892E+03 -7.43759E+02  3.96479E+02  7.45345E+02  1.80127E+02  1.03573E+03  2.95175E+02  1.19929E+03
 -1.81797E+02  1.25687E+03 -4.07418E+02  4.22555E+02 -5.34586E+01  4.47190E+02 -6.45251E+02  6.85776E+02
 -4.95787E+02  9.40030E+02 -1.60993E+03  2.67625E+02 -1.70776E+03  2.41777E+02 -2.16644E+03 -1.02473E+03
 -9.47957E+02 -2.10622E+03  4.13350E+02 -2.57735E+03  8.33293E+02 -2.20525E+03  2.48216E+03 -8.60050E+02
  2.17889E+03 -3.12066E+02  1.04852E+03  1.41022E+03 -6.14834E+02  1.14043E+03 -7.45419E+02  1.34297E+03
 -8.16225E+02  6.52427E+02 -1.38114E+02 -2.47271E+02 -5.75116E+02  4.38236E+02 -6.90062E+02 -5.93344E+01
 -1.39908E+03 -2.19041E+02 -8.96881E+02  7.76540E+01  2.36487E+02 -6.14278E+02 -5.48221E+02 -6.80969E+02
  1.28742E+03 -7.41406E+02  3.72136E+02 -1.06876E+02  1.15457E+03  9.66763E+02 -5.82606E+02  1.42655E+03
 -6.69596E+02  2.14280E+03 -1.48485E+03  1.05123E+03 -1.50359E+03 -3.52518E+02 -8.50152E+02 -1.17714E+03
 -8.23252E+02 -1.06646E+03  3.45243E+02 -1.19807E+03  3.92820E+02 -5.84376E+02  6.44334E+02  1.15928E+02
  5.96980E+02  1.99652E+02  4.57723E+01  1.96895E+02 -2.15918E+02  2.48563E+02 -1.22127E+02  2.14088E+00
  3.86541E+02  3.01088E+02  3.68632E+02  5.00934E+02  5.99821E+01  3.75591E+02  2.08229E+02  1.54124E+02
 -5.13866E+02  2.99659E+02 -1.32427E+02  6.61102E+01 -7.34959E+02 -4.54801E+02 -5.54686E+01 -1.24325E+03
  3.52744E+02 -5.37187E+02  4.12621E+02  5.20054E+01  9.36023E+02 -6.61208E+02  4.16759E+02  9.89852E+02
  3.16434E+02  2.32214E+02 -5.85761E+01  4.27830E+02 -5.22571E+02  6.32406E+02 -3.03523E+02  4.36881E+02
 -1.40228E+02 -9.23755E+01 -2.88273E+02 -8.11367E+01 -5.44883E+02  2.82072E+02 -7.29900E+02 -1.94728E+02
 -1.17519E+03  3.49377E+02 -1.43113E+02 -8.76056E+02  5.17732E+02 -1.30985E+03  5.73376E+02 -3.95278E+02
  5.41195E+02  4.98706E+01 -2.48229E+02  8.44771E+01 -8.37406E+01  7.86146E+02 -4.85484E+02  5.25887E+02
