 $NMID ID='MM_0lb_SNR800_15hz_g60_50.RAW', FMTDAT='(8E13.5)'
 TRAMP=1., VOLUME=1. $END
  3.09907E+05  2.09706E+02  3.37815E+05  2.50636E+05  8.44405E+04  3.38219E+05 -1.32614E+05  2.51361E+05
 -1.90337E+05  8.33499E+04 -1.12039E+05 -3.25272E+04  7.86037E+02 -5.04507E+04  5.39456E+04 -1.11172E+02
  3.56774E+04  5.28309E+04 -1.68588E+04  7.54639E+04 -6.08032E+04  6.39208E+04 -8.47122E+04  3.22636E+04
 -8.11425E+04 -1.13153E+04 -5.74858E+04 -5.14729E+04 -1.51615E+04 -6.97444E+04  2.74314E+04 -4.60336E+04
  4.02272E+04  3.65997E+03  1.62977E+04  4.79280E+04 -3.45386E+04  4.72479E+04 -6.73514E+04 -4.31666E+02
 -5.43013E+04 -5.71445E+04 -6.77173E+03 -7.75320E+04  3.40584E+04 -5.56747E+04  4.83731E+04 -1.76625E+04
  4.37833E+04  1.14721E+04  3.21644E+04  2.57457E+04  1.60003E+04  2.97033E+04 -5.43301E+03  2.74567E+04
 -2.20361E+04  1.21897E+04 -1.86145E+04 -5.05316E+03  6.04859E+03 -7.47731E+03  2.27098E+04  1.27844E+04
  7.17297E+03  3.59323E+04 -3.26105E+04  3.59753E+04 -6.38263E+04  2.11345E+03 -5.74465E+04 -4.32266E+04
 -1.28788E+04 -6.36906E+04  4.02828E+04 -4.55658E+04  5.87618E+04 -2.36735E+03  3.47643E+04  3.25066E+04
 -5.75971E+03  3.67977E+04 -3.06886E+04  1.63496E+04 -3.11313E+04 -4.51871E+03 -1.71334E+04 -1.11277E+04
 -8.56576E+03 -1.35750E+04 -9.04183E+02 -1.84304E+04  7.64539E+03 -2.30566E+04  1.52924E+04 -1.32015E+04
  1.17001E+04  5.38373E+03 -8.98220E+03  1.29395E+04 -2.16284E+04 -4.71319E+03 -8.50059E+03 -3.42993E+04
  2.33515E+04 -4.43209E+04  4.88344E+04 -2.01575E+04  4.60435E+04  1.96133E+04  1.61233E+04  4.44910E+04
 -1.62372E+04  3.35133E+04 -2.55709E+04  1.68466E+03 -1.00918E+04 -2.81226E+04  2.09552E+04 -3.43737E+04
  4.18458E+04 -9.55370E+03  3.64377E+04  2.37921E+04  1.86264E+04  4.73218E+04 -7.91744E+03  5.10703E+04
 -3.23242E+04  3.46089E+04 -4.31970E+04  9.91024E+03 -4.33432E+04 -1.68021E+04 -2.41036E+04 -3.84422E+04
  7.16490E+03 -3.87353E+04  3.19476E+04 -1.47629E+04  2.95535E+04  1.10912E+04  4.23484E+03  1.94041E+04
 -1.32756E+04  8.41522E+03 -1.05101E+04 -7.68853E+03  5.79354E+03 -1.08247E+04  1.80022E+04  5.81665E+03
  1.37101E+04  2.20981E+04 -6.06526E+03  2.55360E+04 -2.26703E+04  1.19984E+04 -2.87450E+04 -4.69962E+03
 -2.14082E+04 -1.76171E+04 -8.91663E+03 -2.12299E+04  4.34681E+03 -2.05128E+04  1.59618E+04 -1.89175E+04
  2.66554E+04 -1.31081E+04  3.32456E+04  3.03713E+03  2.46263E+04  2.05986E+04  4.37868E+03  3.71536E+04
 -1.82399E+04  3.07612E+04 -2.84580E+04  1.08371E+04 -2.09915E+04 -1.04902E+04 -4.34489E+03 -1.33681E+04
  1.30099E+03 -2.28419E+03 -5.17390E+03  6.73081E+03 -1.66188E+04  5.18804E+03 -1.68874E+04 -7.23641E+03
 -1.04207E+04 -1.93685E+04  5.31433E+03 -2.37874E+04  1.55688E+04 -1.66889E+04  1.87682E+04 -1.53395E+03
  1.18923E+04  1.33514E+04 -1.35080E+03  1.95861E+04 -1.32466E+04  1.10843E+04 -1.90319E+04 -4.10736E+03
 -1.41994E+04 -1.71685E+04 -1.93402E+03 -2.34520E+04  1.04865E+04 -1.93048E+04  1.96358E+04 -9.47173E+03
  1.84822E+04  2.14642E+02  1.31615E+04  4.21656E+03  6.74198E+03  1.10046E+03  9.70076E+03 -1.71968E+03
  1.80067E+04  2.45826E+03  1.94459E+04  1.55489E+04  1.31705E+04  3.10050E+04 -2.87799E+03  3.48019E+04
 -2.04741E+04  2.81072E+04 -3.25236E+04  1.41285E+04 -3.43674E+04 -2.40710E+03 -2.83874E+04 -2.00085E+04
 -1.24895E+04 -2.82841E+04  9.91531E+03 -2.52632E+04  2.19671E+04 -1.29542E+04  1.96014E+04  5.50799E+03
  7.22615E+03  1.46034E+04 -9.14201E+03  1.30550E+04 -1.63570E+04  2.80498E+03 -1.27015E+04 -1.02189E+04
 -2.58029E+02 -1.55499E+04  8.13151E+03 -1.16932E+04  1.02321E+04 -1.28622E+03  2.47184E+03  6.67463E+03
 -7.52667E+03  2.38203E+03 -6.00976E+03 -5.77808E+03 -5.99319E+02 -1.38680E+04  9.66801E+03 -1.42543E+04
  1.69586E+04 -7.62571E+03  1.83919E+04  3.08699E+03  1.59173E+04  1.34492E+04  7.66292E+03  2.07365E+04
 -3.38046E+03  2.26689E+04 -1.44314E+04  1.41647E+04 -1.60781E+04  3.23883E+03 -1.13235E+04 -3.87874E+03
 -5.28686E+03 -5.16221E+03 -6.27447E+02  1.07423E+03 -2.48566E+03  2.59305E+03 -5.44346E+03  4.36326E+03
 -1.05217E+04 -8.20647E+02 -1.14421E+04 -9.11037E+03 -4.68203E+03 -1.46347E+04  4.75617E+03 -1.15324E+04
  9.52478E+03 -5.24661E+03  6.97704E+03  2.99738E+03  2.56453E+02  4.22443E+03 -5.40190E+03  8.92692E+01
 -5.14535E+03 -7.05121E+03 -1.10159E+03 -1.05548E+04  5.87494E+03 -1.14988E+04  1.41300E+04 -6.08770E+03
  1.62038E+04  1.18118E+03  1.21284E+04  9.45331E+03  1.90390E+03  1.25610E+04 -6.47791E+03  1.12705E+04
 -9.46418E+03  3.51556E+03 -4.99414E+03 -1.97224E+03  1.96703E+03 -2.95193E+03  6.12412E+03 -1.09909E+03
  5.79487E+03  4.75503E+03  1.38332E+03  9.04597E+03 -6.39227E+03  8.51153E+03 -1.09075E+04  2.43292E+03
 -7.26657E+03 -5.54016E+03  2.02520E+01 -9.51848E+03  5.64708E+03 -4.37564E+03  5.97126E+03  1.82810E+03
  1.18390E+03  5.84048E+03 -6.01040E+03  7.32467E+03 -8.36366E+03  3.63247E+03 -8.26806E+03 -2.43271E+03
 -4.82572E+03 -9.75507E+03  2.20675E+03 -1.15049E+04  9.94721E+03 -6.97238E+03  1.01638E+04  1.58686E+03
  6.65608E+03  8.27537E+03 -4.39450E+02  1.03373E+04 -7.36054E+03  6.11701E+03 -8.25586E+03 -6.81924E+02
 -7.43249E+03 -7.54660E+03 -1.67149E+03 -7.48941E+03  4.11274E+03 -6.68885E+03  4.89602E+03 -3.33502E+03
  3.55088E+03  9.10283E+02 -3.85422E+02  1.45016E+03 -2.59345E+02 -1.34674E+03  1.03344E+03 -4.00805E+03
  6.65803E+03 -2.21048E+03  8.92081E+03  9.01198E+02  8.78880E+03  5.92007E+03  7.00034E+03  1.21859E+04
 -2.85105E+03  1.42192E+04 -1.22808E+04  1.05318E+04 -1.55966E+04  2.03117E+03 -1.25234E+04 -4.92079E+03
 -6.51629E+03 -1.04975E+04 -3.53134E+02 -8.50668E+03  3.05425E+03 -4.41123E+03  2.63391E+03 -2.97222E+03
  1.92188E+03 -1.82492E+03  2.54989E+03 -2.91215E+03  4.41123E+03 -2.27227E+03  5.02466E+03 -3.82534E+02
  6.66078E+03  1.60100E+03  2.91649E+03  5.40081E+03 -1.99698E+03  5.77653E+03 -6.65575E+03  4.70488E+03
 -8.20930E+03 -9.49511E+02 -4.30664E+03 -5.83313E+03 -4.37591E+02 -8.92199E+03  5.11095E+03 -9.13508E+03
  9.02634E+03 -4.81782E+03  1.10629E+04  1.35940E+03  7.76165E+03  7.02369E+03  1.47717E+03  9.72808E+03
 -3.76672E+03  8.26505E+03 -5.53767E+03  2.95088E+03 -3.42506E+03 -1.16065E+03 -1.24699E+03 -1.08777E+03
 -9.41606E+02  4.28424E+02 -1.42181E+03  2.69628E+03 -3.65011E+03  1.34049E+03 -6.08522E+03 -7.45140E+02
 -2.95818E+03 -6.53173E+03  6.05266E+02 -7.87176E+03  4.65868E+03 -7.39293E+03  7.09386E+03 -2.04715E+03
  7.21817E+03  3.77120E+03  3.38360E+03  6.21496E+03 -1.18115E+03  7.60763E+03 -4.96869E+03  4.45730E+03
 -7.04192E+03  5.14945E+02 -5.75460E+03 -4.56542E+03 -5.40623E+02 -5.93903E+03  2.77897E+03 -4.34854E+03
  4.50222E+03 -1.94912E+03  3.30721E+03  1.02014E+03  8.87156E+02  2.41844E+03  1.05761E+03  7.99143E+02
  2.16335E+03  8.63092E+02  1.98063E+03  1.44659E+03  2.23786E+03  3.02073E+03  1.97608E+03  3.63804E+03
 -1.92786E+03  5.57545E+03 -4.98220E+03  6.11839E+03 -6.51070E+03  1.74918E+03 -7.37792E+03 -2.15905E+03
 -3.07650E+03 -6.98150E+03  1.25540E+03 -7.84828E+03  4.20978E+03 -4.91855E+03  5.72587E+03 -1.36717E+03
  4.66609E+03  2.88651E+03  8.60264E+02  4.27363E+03 -1.52075E+03  2.66359E+03 -2.09807E+03 -4.11600E+02
 -1.56991E+03 -2.82276E+03  1.69214E+03 -2.93363E+03  2.54542E+03 -1.52329E+03  2.55321E+03  6.00840E+02
  1.65642E+03  1.10918E+03  1.04675E+03  3.44340E+02 -5.51415E+02  8.97902E+02  1.71402E+03 -4.47251E+02
  7.84626E+02 -3.37694E+02  3.02143E+03  1.20006E+03  1.26772E+03  3.93980E+03 -3.71962E+02  5.02296E+03
 -3.34538E+03  2.73508E+03 -4.10657E+03  8.40171E+02 -3.75523E+03 -1.53169E+03 -1.18792E+03 -2.40086E+03
  4.54196E+02 -2.42853E+03  1.66059E+03 -1.18936E+03  1.20989E+03  1.36429E+03 -1.18852E+03  2.04778E+03
 -2.79271E+03  1.24505E+03 -2.68839E+03 -2.04407E+03 -1.71831E+03 -3.63795E+03  2.94552E+02 -3.39423E+03
  1.54195E+03 -1.38398E+03  1.98425E+03  2.75347E+02  2.02384E+03  2.30045E+02  2.58864E+02  2.02018E+03
 -9.64627E+02  3.19461E+02 -1.32444E+03 -7.73842E+02  8.28744E+02 -2.35464E+03  3.04104E+03 -2.07376E+03
  3.19926E+03  2.10141E+02  4.49030E+03  1.95918E+03  1.58625E+03  3.52818E+03 -1.30740E+03  3.80423E+03
 -2.92005E+03  1.28290E+03 -3.25431E+03 -2.02865E+02 -1.88233E+03 -2.39570E+03  8.71374E+02 -1.73108E+03
  2.54169E+03 -1.26000E+03  2.09733E+03  1.11465E+03  7.10927E+02  2.35894E+03 -7.63618E+01  2.22185E+03
 -7.03949E+02  1.51360E+03 -8.81846E+02  2.15660E+02 -2.11318E+02  7.82537E+02 -1.12070E+03  1.21133E+03
 -1.12662E+03  1.79791E+03 -2.60584E+03  1.00927E+03 -3.54548E+03  4.99320E+02 -4.04905E+03 -2.26721E+03
 -2.10476E+03 -4.73795E+03  9.43103E+02 -5.39673E+03  2.86559E+03 -4.50815E+03  5.30614E+03 -2.07184E+03
  5.03321E+03  3.68097E+02  2.69083E+03  3.27313E+03 -2.93490E+02  3.44191E+03 -1.52700E+03  2.53097E+03
 -1.90164E+03  1.32866E+03 -1.09701E+03 -2.89433E+02 -7.06533E+02 -2.98675E+02 -8.16423E+02 -1.23545E+02
 -1.30072E+03 -3.63084E+01 -1.45191E+03 -5.17611E+01  1.94347E+02 -7.67277E+02 -1.67627E+02 -1.69604E+03
  1.97666E+03 -1.28027E+03  1.69108E+03  2.79043E+02  2.33309E+03  2.09305E+03  9.99999E+01  3.20304E+03
 -1.67483E+03  4.08074E+03 -3.43427E+03  2.41298E+03 -4.07796E+03 -4.40917E+02 -2.86035E+03 -2.45249E+03
 -1.50160E+03 -3.14412E+03  5.46203E+02 -2.86918E+03  1.72665E+03 -1.66709E+03  1.55618E+03  1.68732E+02
  1.54602E+03  8.14402E+02 -3.57908E+02  8.30061E+02 -7.78844E+02 -1.82522E+02 -5.21560E+01 -5.67747E+02
  8.75845E+02 -1.17936E+02  9.97868E+02  5.61030E+02  5.42010E+02  7.70542E+02  5.03107E+02  1.61064E+03
 -1.26591E+03  1.60817E+03 -1.37700E+03  1.20086E+02 -1.58782E+03 -1.42574E+03 -1.21741E+02 -2.32063E+03
  1.68879E+03 -1.74970E+03  2.14542E+03 -6.90924E+02  2.44775E+03 -3.86516E+02  1.12715E+03  2.03661E+03
  7.30296E+02  1.94221E+03 -3.91926E+02  1.22845E+03 -1.05423E+03  1.12240E+03 -1.06539E+03  2.39328E+02
 -3.68147E+02 -9.69227E+01 -8.54181E+02  2.14144E+02 -1.06601E+03  6.60208E+02 -1.56266E+03 -6.89460E+02
 -1.82562E+03 -5.75109E+02 -6.01699E+02 -1.99774E+03  1.05805E+03 -2.63133E+03  1.88209E+03 -7.41222E+02
  1.85463E+03 -3.57158E+00  2.54282E+02  1.15610E+03 -4.06095E+01  1.94390E+03 -1.32980E+03  1.28849E+03
