 $NMID ID='MM_0lb_SNR800_19hz_g55_29.RAW', FMTDAT='(8E13.5)'
 TRAMP=1., VOLUME=1. $END
  3.09592E+05  5.06726E+02  3.37235E+05  2.50675E+05  8.44095E+04  3.37452E+05 -1.32327E+05  2.50267E+05
 -1.90179E+05  8.27614E+04 -1.11020E+05 -3.29327E+04  1.28923E+03 -5.01115E+04  5.37600E+04 -1.02025E+02
  3.53099E+04  5.30230E+04 -1.68790E+04  7.48299E+04 -6.04248E+04  6.30888E+04 -8.33351E+04  3.17377E+04
 -8.00358E+04 -1.10778E+04 -5.64963E+04 -5.04435E+04 -1.48722E+04 -6.83780E+04  2.70222E+04 -4.50566E+04
  3.92758E+04  3.79637E+03  1.58985E+04  4.74421E+04 -3.38109E+04  4.61912E+04 -6.59215E+04 -6.59232E+02
 -5.26393E+04 -5.62075E+04 -6.37800E+03 -7.56474E+04  3.36055E+04 -5.37958E+04  4.66416E+04 -1.65582E+04
  4.24109E+04  1.10349E+04  3.09806E+04  2.47508E+04  1.57509E+04  2.87122E+04 -4.97850E+03  2.66687E+04
 -2.17549E+04  1.26667E+04 -1.89952E+04 -4.26415E+03  4.63916E+03 -7.62456E+03  2.13587E+04  1.13705E+04
  7.15922E+03  3.40645E+04 -3.08633E+04  3.44358E+04 -6.17336E+04  2.18730E+03 -5.56143E+04 -4.16292E+04
 -1.24266E+04 -6.14786E+04  3.87729E+04 -4.38516E+04  5.57411E+04 -1.94800E+03  3.23935E+04  3.09278E+04
 -6.69838E+03  3.40261E+04 -2.88961E+04  1.38749E+04 -2.82424E+04 -4.98152E+03 -1.50783E+04 -1.04116E+04
 -7.84790E+03 -1.21856E+04 -8.25364E+02 -1.71792E+04  6.94957E+03 -2.27231E+04  1.52042E+04 -1.37950E+04
  1.22496E+04  4.38312E+03 -6.70831E+03  1.29495E+04 -1.97975E+04 -2.86673E+03 -7.99905E+03 -3.13195E+04
  2.14804E+04 -4.11421E+04  4.51731E+04 -1.87959E+04  4.29044E+04  1.84394E+04  1.45323E+04  4.21458E+04
 -1.55322E+04  3.15985E+04 -2.39736E+04  1.06520E+03 -8.80903E+03 -2.66951E+04  2.03421E+04 -3.18095E+04
  3.86094E+04 -7.67639E+03  3.24969E+04  2.28558E+04  1.59941E+04  4.33008E+04 -7.99532E+03  4.62046E+04
 -2.90624E+04  3.07587E+04 -3.83587E+04  8.63211E+03 -3.93024E+04 -1.52318E+04 -2.14369E+04 -3.51207E+04
  6.57726E+03 -3.47918E+04  2.95459E+04 -1.32857E+04  2.73958E+04  1.11282E+04  3.29943E+03  1.79908E+04
 -1.31679E+04  7.49196E+03 -9.54103E+03 -7.78308E+03  5.98396E+03 -1.03456E+04  1.74826E+04  6.25715E+03
  1.27542E+04  2.16954E+04 -6.46650E+03  2.37377E+04 -2.15446E+04  9.52127E+03 -2.57054E+04 -6.13225E+03
 -1.74749E+04 -1.64115E+04 -5.96999E+03 -1.73813E+04  3.92985E+03 -1.56347E+04  1.30956E+04 -1.50008E+04
  2.21226E+04 -1.18710E+04  2.88223E+04  1.27540E+03  2.19214E+04  1.69217E+04  4.14336E+03  3.31700E+04
 -1.62295E+04  2.79566E+04 -2.62567E+04  9.33621E+03 -1.98580E+04 -1.04293E+04 -3.71999E+03 -1.41163E+04
  2.63498E+03 -4.17941E+03 -2.99168E+03  5.59678E+03 -1.33865E+04  5.30997E+03 -1.38899E+04 -5.13369E+03
 -8.63659E+03 -1.60988E+04  4.84937E+03 -1.98415E+04  1.30865E+04 -1.45150E+04  1.47806E+04 -1.67407E+03
  9.45224E+03  1.14153E+04 -9.49838E+02  1.62269E+04 -1.04214E+04  9.19578E+03 -1.56333E+04 -3.45102E+03
 -1.18496E+04 -1.45354E+04 -1.22229E+03 -1.93979E+04  8.74345E+03 -1.58098E+04  1.61936E+04 -7.71757E+03
  1.48798E+04  8.50022E+02  1.06402E+04  3.82752E+03  5.25001E+03  1.92560E+02  7.85765E+03 -1.42164E+03
  1.40291E+04  2.89678E+03  1.52460E+04  1.29893E+04  9.43008E+03  2.55367E+04 -3.14292E+03  2.73456E+04
 -1.63470E+04  2.08280E+04 -2.50550E+04  1.02684E+04 -2.61074E+04 -1.75261E+03 -2.21264E+04 -1.46326E+04
 -1.02762E+04 -2.11527E+04  7.01742E+03 -1.97090E+04  1.69803E+04 -1.10936E+04  1.59067E+04  3.65716E+03
  6.73044E+03  1.12630E+04 -7.37867E+03  1.05969E+04 -1.36735E+04  2.51258E+03 -1.02686E+04 -8.18006E+03
 -1.07400E+02 -1.24925E+04  6.23810E+03 -9.82827E+03  8.16082E+03 -1.29608E+03  1.61385E+03  5.18117E+03
 -5.38691E+03  1.30806E+03 -3.67582E+03 -4.72666E+03  5.59310E+02 -1.02274E+04  8.07841E+03 -1.04402E+04
  1.25807E+04 -4.82345E+03  1.24710E+04  2.78371E+03  1.04063E+04  9.43809E+03  5.15151E+03  1.43155E+04
 -1.87685E+03  1.64689E+04 -9.90621E+03  1.03489E+04 -1.14432E+04  2.91542E+03 -8.84478E+03 -1.85345E+03
 -4.74812E+03 -3.25989E+03 -8.89891E+02  1.23800E+03 -2.00818E+03  2.12625E+03 -3.79235E+03  3.59443E+03
 -8.20087E+03 -5.13593E+02 -8.79697E+03 -7.27873E+03 -3.48772E+03 -1.14497E+04  3.22081E+03 -8.61228E+03
  7.40377E+03 -3.61382E+03  5.24573E+03  2.08703E+03  7.59344E+02  3.14562E+03 -3.73857E+03 -5.95405E+01
 -3.57985E+03 -5.21399E+03 -8.68358E+02 -7.77648E+03  4.00927E+03 -8.32180E+03  1.01195E+04 -4.23171E+03
  1.17905E+04  6.53265E+02  8.88815E+03  6.06444E+03  1.83967E+03  8.71968E+03 -5.05421E+03  8.56139E+03
 -7.24150E+03  2.70990E+03 -3.62910E+03 -1.27281E+03  1.31873E+03 -1.92531E+03  4.81237E+03 -7.17783E+02
  4.24174E+03  3.46664E+03  1.02414E+03  6.59615E+03 -4.55007E+03  6.47742E+03 -7.93108E+03  1.52689E+03
 -4.99323E+03 -3.72535E+03  4.92836E+02 -6.61642E+03  3.63931E+03 -3.62178E+03  3.43479E+03  7.93638E+02
  4.88005E+02  3.53060E+03 -4.16937E+03  5.00094E+03 -4.63503E+03  2.57610E+03 -4.70687E+03 -1.00920E+03
 -2.69882E+03 -5.96778E+03  1.09295E+03 -6.96051E+03  6.04469E+03 -4.94611E+03  6.17953E+03  8.64931E+02
  5.04727E+03  5.37563E+03  3.34968E+02  7.18501E+03 -4.94545E+03  4.28177E+03 -5.07380E+03 -3.57514E+02
 -5.87873E+03 -5.23256E+03 -1.51851E+03 -4.74613E+03  2.57209E+03 -4.95023E+03  2.99531E+03 -2.87444E+03
  3.01865E+03  1.29568E+02 -1.74468E+02  1.35755E+03  3.34005E+02 -1.55622E+02  2.38166E+02 -1.92657E+03
  3.49540E+03 -6.94201E+02  5.19606E+03  7.64586E+02  5.45929E+03  2.83043E+03  5.30411E+03  7.38112E+03
 -1.26861E+03  8.41349E+03 -7.20856E+03  6.34915E+03 -9.83532E+03  1.19020E+03 -7.64128E+03 -2.50441E+03
 -4.33189E+03 -6.60834E+03 -6.49876E+02 -4.81889E+03  2.21910E+03 -2.12658E+03  1.74495E+03 -2.13641E+03
  1.22261E+03 -1.47236E+03  1.76706E+03 -2.35097E+03  3.37108E+03 -1.32082E+03  3.58368E+03  5.45840E+02
  4.50678E+03  9.90503E+02  1.20440E+03  3.42858E+03 -1.59557E+03  2.80405E+03 -4.38384E+03  2.68857E+03
 -4.70252E+03 -9.45885E+02 -1.63998E+03 -3.40936E+03  1.59661E+02 -4.91593E+03  2.82053E+03 -5.04111E+03
  5.09043E+03 -3.35575E+03  6.56959E+03  1.49056E+02  4.64428E+03  3.87693E+03  8.45695E+02  6.09072E+03
 -1.72689E+03  5.86773E+03 -3.25518E+03  1.93302E+03 -1.64347E+03 -9.63326E+02 -4.19022E+02 -1.64632E+02
 -5.35162E+02  1.23023E+02 -1.02805E+03  2.07366E+03 -2.44662E+03  9.13958E+02 -4.01343E+03 -3.20286E+02
 -1.08672E+03 -3.92421E+03  7.59033E+02 -4.23624E+03  2.75659E+03 -4.22388E+03  3.27409E+03 -1.14905E+03
  3.90399E+03  2.16780E+03  1.70663E+03  3.20088E+03 -6.73945E+02  4.16763E+03 -2.47152E+03  2.50403E+03
 -3.48012E+03  3.31131E+02 -3.16197E+03 -2.35637E+03 -7.84390E+01 -2.96171E+03  1.72638E+03 -2.24070E+03
  2.47321E+03 -1.63843E+03  1.73150E+03  1.68301E+02  6.55659E+02  1.65999E+03  7.02917E+02  5.99400E+02
  1.81807E+03  6.72970E+02  1.38429E+03  5.92011E+02  1.09437E+03  2.24280E+03  1.29240E+03  1.67972E+03
 -1.24498E+03  2.67219E+03 -2.24285E+03  3.82148E+03 -2.86777E+03  1.29681E+03 -3.86076E+03  3.96980E+01
 -1.32762E+03 -3.36833E+03  6.18126E+02 -4.54768E+03  1.86986E+03 -2.29789E+03  2.76564E+03 -7.73198E+02
  2.23190E+03  1.76465E+03  2.53126E+02  2.11380E+03 -7.17317E+02  1.02963E+03 -7.76205E+02 -1.56018E+01
 -6.02281E+02 -1.45726E+03  1.20916E+03 -1.40274E+03  1.30418E+03 -8.82183E+02  1.23608E+03  6.26397E+02
  7.27232E+02  9.71154E+01  4.48770E+02 -4.82931E+02 -2.97789E+02  7.83803E+02  1.45598E+03 -1.37232E+02
 -5.17987E+00 -2.89986E+02  1.79234E+03  6.28655E+02  1.64370E+02  2.00595E+03 -3.84564E+02  2.67230E+03
 -1.67240E+03  9.93117E+02 -1.97645E+03  1.00755E+02 -2.20906E+03 -7.48226E+02 -1.19839E+02 -8.58677E+02
  3.29661E+02 -1.22080E+03  7.25747E+02 -6.83937E+02  3.25579E+02  1.28079E+03 -3.87504E+02  1.09755E+03
 -1.56339E+03  6.49880E+02 -9.16937E+02 -1.02298E+03 -4.33220E+02 -2.06441E+03  1.50111E+02 -1.30985E+03
  3.58566E+02 -5.39682E+02  8.92296E+02  1.44786E+02  1.24521E+03 -6.00810E+01  4.17153E+02  1.15321E+03
 -1.21886E+02 -8.13696E+01 -8.71618E+02 -1.16809E+02  6.54634E+02 -5.55898E+02  1.52100E+03 -6.67471E+02
  1.06020E+03  1.41447E+02  2.72317E+03  5.21614E+02  1.06930E+03  1.30551E+03 -3.42098E+02  1.70980E+03
 -1.40581E+03  1.62654E+02 -1.40181E+03  1.12969E+02 -8.49909E+02 -1.26179E+03  3.20817E+02 -3.11061E+02
  1.27994E+03 -3.56078E+02  8.95409E+02  5.04292E+02  1.83979E+02  1.31534E+03  3.21691E+02  1.07256E+03
 -3.66632E+02  1.14084E+03 -2.33004E+02  3.86304E+02  1.51479E+02  3.22308E+02 -8.60329E+02  5.14351E+02
 -3.85091E+02  7.07116E+02 -1.61547E+03  3.83809E+02 -1.55564E+03  2.17681E+02 -2.23627E+03 -7.15299E+02
 -8.12356E+02 -1.99410E+03  3.71819E+02 -2.19565E+03  8.50637E+02 -2.23822E+03  2.17071E+03 -7.12944E+02
  2.05865E+03 -1.09690E+01  8.71792E+02  1.32477E+03 -6.02189E+02  1.04817E+03 -5.81674E+02  1.23886E+03
 -9.90050E+02  6.97382E+02 -3.63753E+02 -3.35375E+02 -3.94677E+02  3.67134E+02 -7.13415E+02  2.23890E+02
 -1.11034E+03 -1.84362E+02 -1.17130E+03 -1.54316E+01  1.00584E+02 -3.28913E+02 -3.17379E+02 -8.16374E+02
  1.22644E+03 -4.25031E+02  2.12788E+02  1.96361E+02  1.17956E+03  8.05885E+02 -3.61011E+02  1.06447E+03
 -1.06912E+03  1.97803E+03 -1.26465E+03  1.04427E+03 -1.37999E+03 -2.54464E+02 -1.03629E+03 -1.30341E+03
 -8.15023E+02 -9.24337E+02  2.81976E+02 -1.02992E+03  6.81550E+02 -6.42140E+02  3.76537E+02  1.54487E+02
  5.69892E+02  8.54273E+01  9.61888E+01  3.72613E+02 -2.94813E+02  7.58856E+01 -1.46136E+02 -9.46488E+01
  3.39607E+02  2.36180E+02 -1.61444E+02  3.95119E+02 -1.15623E+02  4.20496E+02  2.60013E+02 -3.17644E+01
 -7.50232E+02  5.25640E+02 -6.73950E+02  3.21102E+02 -8.39007E+02 -2.71542E+02  7.67955E+01 -1.04227E+03
  4.65856E+02 -4.93549E+02  3.52898E+02  1.64891E+02  7.07164E+02 -5.88421E+02  3.18213E+02  3.57681E+02
  6.38489E+02  5.44466E+01 -1.82059E+02  2.95613E+02 -3.55980E+02  5.33164E+02 -2.27176E+02  3.04111E+02
  2.02148E+02  1.18611E+01 -6.43517E+02 -3.34474E+01 -6.26501E+02 -2.28134E+02 -5.69266E+02 -9.60382E+01
 -9.90283E+02  5.45999E+02 -4.78663E+02 -6.76518E+02  4.10015E+02 -1.59923E+03  4.67570E+02 -1.50209E+02
  5.00331E+02 -1.65230E+02 -7.18701E+01  1.38520E+02  1.55175E+02  5.89722E+02 -4.02308E+02  8.25228E+02
