 $NMID ID='MM_0lb_SNR800_17hz_g45_51.RAW', FMTDAT='(8E13.5)'
 TRAMP=1., VOLUME=1. $END
  3.10025E+05  5.50985E+02  3.37352E+05  2.50363E+05  8.45050E+04  3.37623E+05 -1.32425E+05  2.50544E+05
 -1.89852E+05  8.26854E+04 -1.11134E+05 -3.28721E+04  1.44061E+03 -5.04472E+04  5.38506E+04 -2.05196E+02
  3.51307E+04  5.28636E+04 -1.68993E+04  7.50364E+04 -6.06760E+04  6.30037E+04 -8.31708E+04  3.13770E+04
 -8.00168E+04 -1.09905E+04 -5.64164E+04 -5.04534E+04 -1.46998E+04 -6.86060E+04  2.68516E+04 -4.48693E+04
  3.93521E+04  4.04591E+03  1.55698E+04  4.70330E+04 -3.39618E+04  4.64600E+04 -6.57553E+04 -5.23893E+02
 -5.24437E+04 -5.62543E+04 -6.18841E+03 -7.58357E+04  3.29604E+04 -5.37415E+04  4.64985E+04 -1.65716E+04
  4.21465E+04  1.09906E+04  3.12778E+04  2.45198E+04  1.58758E+04  2.85989E+04 -4.69941E+03  2.69684E+04
 -2.19516E+04  1.25338E+04 -1.89356E+04 -4.61177E+03  4.69506E+03 -7.47294E+03  2.11886E+04  1.12922E+04
  7.75615E+03  3.36477E+04 -3.08663E+04  3.45794E+04 -6.12210E+04  2.09710E+03 -5.57034E+04 -4.19281E+04
 -1.23216E+04 -6.14599E+04  3.83701E+04 -4.37997E+04  5.60714E+04 -1.92225E+03  3.22766E+04  3.08389E+04
 -6.29433E+03  3.40645E+04 -2.86356E+04  1.38880E+04 -2.84583E+04 -4.94866E+03 -1.48641E+04 -1.07709E+04
 -7.71541E+03 -1.19527E+04 -1.21291E+03 -1.68674E+04  6.91842E+03 -2.26781E+04  1.51201E+04 -1.38160E+04
  1.18606E+04  4.65323E+03 -6.62991E+03  1.33826E+04 -1.99302E+04 -3.04156E+03 -8.04033E+03 -3.11317E+04
  2.12323E+04 -4.13849E+04  4.59093E+04 -1.84893E+04  4.27028E+04  1.85408E+04  1.45964E+04  4.21201E+04
 -1.55989E+04  3.15823E+04 -2.39000E+04  1.14730E+03 -8.37932E+03 -2.68485E+04  2.08157E+04 -3.18349E+04
  3.84233E+04 -7.84692E+03  3.26036E+04  2.29692E+04  1.61259E+04  4.35945E+04 -7.85021E+03  4.64819E+04
 -2.94291E+04  3.08162E+04 -3.81348E+04  8.80835E+03 -3.92576E+04 -1.55382E+04 -2.18465E+04 -3.52024E+04
  6.90022E+03 -3.53506E+04  2.97922E+04 -1.32556E+04  2.75912E+04  1.06841E+04  3.04386E+03  1.83820E+04
 -1.30868E+04  7.47502E+03 -9.79564E+03 -7.78398E+03  6.00582E+03 -1.01701E+04  1.77723E+04  6.24095E+03
  1.26873E+04  2.18714E+04 -6.45505E+03  2.38360E+04 -2.17434E+04  9.54032E+03 -2.61234E+04 -5.93315E+03
 -1.75879E+04 -1.68521E+04 -6.13097E+03 -1.76801E+04  3.45726E+03 -1.59126E+04  1.35242E+04 -1.51624E+04
  2.25771E+04 -1.19144E+04  2.91657E+04  1.51314E+03  2.20724E+04  1.74032E+04  4.32939E+03  3.35375E+04
 -1.66125E+04  2.81079E+04 -2.67824E+04  9.67486E+03 -2.03028E+04 -1.06080E+04 -3.74215E+03 -1.37099E+04
  2.13155E+03 -3.72090E+03 -3.37025E+03  5.58864E+03 -1.37688E+04  5.15645E+03 -1.40607E+04 -5.57404E+03
 -9.01096E+03 -1.64381E+04  4.75556E+03 -2.03507E+04  1.29659E+04 -1.46793E+04  1.55214E+04 -1.65390E+03
  9.40259E+03  1.11829E+04 -9.21027E+02  1.64249E+04 -1.11598E+04  9.19886E+03 -1.63085E+04 -3.70667E+03
 -1.20967E+04 -1.50523E+04 -1.54934E+03 -2.01396E+04  8.76469E+03 -1.61654E+04  1.70022E+04 -8.15457E+03
  1.53325E+04  6.92591E+02  1.09632E+04  3.95674E+03  5.36240E+03  5.63705E+02  8.03502E+03 -1.53585E+03
  1.47967E+04  2.73045E+03  1.58182E+04  1.31650E+04  9.95300E+03  2.61777E+04 -3.18049E+03  2.83519E+04
 -1.65086E+04  2.20165E+04 -2.61425E+04  1.02230E+04 -2.70575E+04 -2.07118E+03 -2.29743E+04 -1.52022E+04
 -1.02348E+04 -2.23189E+04  7.52042E+03 -2.05472E+04  1.79433E+04 -1.15933E+04  1.64542E+04  3.96667E+03
  6.67060E+03  1.18541E+04 -7.33970E+03  1.09872E+04 -1.39457E+04  2.82050E+03 -1.07952E+04 -8.42973E+03
  3.10387E+01 -1.29421E+04  6.72536E+03 -1.01942E+04  8.39811E+03 -1.22901E+03  1.93636E+03  5.33933E+03
 -6.05638E+03  1.68955E+03 -4.25035E+03 -4.95384E+03  4.33687E+02 -1.08767E+04  8.34638E+03 -1.12092E+04
  1.33925E+04 -5.46229E+03  1.35275E+04  2.65999E+03  1.17697E+04  1.03662E+04  5.62423E+03  1.55556E+04
 -2.08755E+03  1.72714E+04 -1.08355E+04  1.12185E+04 -1.21460E+04  3.08627E+03 -9.35481E+03 -2.37320E+03
 -4.80526E+03 -3.77908E+03 -7.62007E+02  1.38318E+03 -2.10846E+03  1.95864E+03 -4.18176E+03  3.79890E+03
 -8.70028E+03 -6.99101E+02 -9.47094E+03 -7.55120E+03 -3.78425E+03 -1.24183E+04  3.80683E+03 -9.23814E+03
  7.62247E+03 -4.14209E+03  5.52435E+03  2.49140E+03  4.36308E+02  3.32108E+03 -3.86116E+03 -1.78981E+02
 -3.77613E+03 -5.65307E+03 -1.10678E+03 -8.00448E+03  4.77669E+03 -8.64078E+03  1.09811E+04 -4.14184E+03
  1.28616E+04  7.19069E+02  9.56871E+03  6.79836E+03  2.21765E+03  9.85448E+03 -5.68740E+03  9.22049E+03
 -7.37954E+03  3.14622E+03 -3.68882E+03 -1.49539E+03  1.48482E+03 -2.00269E+03  5.10484E+03 -9.99891E+02
  4.42841E+03  3.72490E+03  9.98161E+02  7.04076E+03 -4.90504E+03  6.94275E+03 -8.53003E+03  2.15564E+03
 -5.44781E+03 -4.21120E+03 -5.61051E+00 -7.22861E+03  4.12292E+03 -3.69021E+03  4.31636E+03  1.30452E+03
  6.71847E+02  3.99862E+03 -4.42573E+03  5.37580E+03 -5.50445E+03  2.42295E+03 -5.38476E+03 -1.55462E+03
 -3.57725E+03 -6.98732E+03  1.30678E+03 -8.25030E+03  6.96527E+03 -5.53248E+03  7.65757E+03  1.34616E+03
  5.29546E+03  6.15695E+03  8.69044E+00  8.10558E+03 -5.52690E+03  4.64299E+03 -6.00734E+03 -6.45651E+02
 -6.00052E+03 -5.86839E+03 -1.60655E+03 -5.34994E+03  2.90326E+03 -5.14153E+03  3.15904E+03 -3.01800E+03
  3.14103E+03  3.81963E+02 -3.77958E+00  1.34331E+03  6.80652E+02 -3.76771E+02  5.62807E+02 -2.44106E+03
  4.56326E+03 -1.25428E+03  6.13861E+03  1.05657E+03  6.64670E+03  3.69169E+03  5.93325E+03  8.34670E+03
 -1.62727E+03  1.00903E+04 -8.57540E+03  7.54247E+03 -1.12370E+04  1.47001E+03 -9.33170E+03 -3.10325E+03
 -4.83699E+03 -7.54902E+03 -3.38099E+02 -5.92616E+03  2.32858E+03 -2.61602E+03  2.02403E+03 -2.15763E+03
  1.56047E+03 -1.29001E+03  2.21071E+03 -2.57007E+03  3.54249E+03 -1.41162E+03  3.84915E+03  4.09467E+02
  5.20906E+03  1.37785E+03  1.33712E+03  4.04364E+03 -1.54410E+03  3.39253E+03 -4.75719E+03  3.14839E+03
 -5.97791E+03 -9.92309E+02 -2.35672E+03 -3.81269E+03  2.15928E+02 -6.01261E+03  3.63807E+03 -6.58608E+03
  5.93825E+03 -3.75341E+03  7.71210E+03  3.33896E+02  5.51673E+03  5.08719E+03  1.17152E+03  7.17871E+03
 -2.59654E+03  6.80667E+03 -3.89471E+03  2.22176E+03 -1.99888E+03 -1.12019E+03 -7.58469E+02 -5.74430E+02
 -6.24816E+02  4.34739E+02 -8.90631E+02  2.07703E+03 -2.79588E+03  1.23630E+03 -4.28559E+03 -3.88470E+02
 -2.17132E+03 -4.56542E+03  7.25071E+02 -5.21502E+03  3.14109E+03 -5.58658E+03  4.92348E+03 -1.55551E+03
  4.76407E+03  2.82923E+03  2.27788E+03  4.13758E+03 -8.83055E+02  5.09858E+03 -3.17632E+03  3.15147E+03
 -5.02749E+03  7.42703E+02 -4.00937E+03 -3.05687E+03 -5.89340E+02 -3.90897E+03  2.01811E+03 -3.13068E+03
  3.21062E+03 -1.32926E+03  2.12981E+03  4.14046E+02  8.11414E+02  1.76638E+03  9.53371E+02  9.23938E+02
  1.65780E+03  5.97964E+02  1.23516E+03  1.25322E+03  1.56467E+03  2.25032E+03  1.26856E+03  2.18617E+03
 -1.49845E+03  3.83640E+03 -3.01945E+03  4.71691E+03 -3.77215E+03  1.39600E+03 -4.95163E+03 -9.18809E+02
 -1.89322E+03 -4.38444E+03  9.56497E+02 -5.67669E+03  2.39268E+03 -2.96343E+03  3.97154E+03 -1.19322E+03
  2.98431E+03  2.20208E+03  5.07072E+02  2.67035E+03 -8.01616E+02  1.53812E+03 -1.33343E+03  7.69243E+01
 -6.74976E+02 -1.74739E+03  1.47394E+03 -2.08786E+03  1.54587E+03 -9.42203E+02  1.69144E+03  5.89609E+02
  1.47021E+03  5.99217E+02  9.30987E+02  7.68304E+01 -2.23791E+02  8.93179E+02  1.67315E+03 -1.95570E+02
  2.77400E+02 -2.53598E+02  2.14117E+03  6.90326E+02  3.03874E+02  2.58109E+03 -3.53779E+02  3.51690E+03
 -1.99285E+03  1.54857E+03 -2.64340E+03  4.01972E+02 -2.87652E+03 -6.59163E+02 -4.21348E+02 -1.38428E+03
  4.55004E+02 -1.45953E+03  9.31466E+02 -1.31074E+03  9.04596E+02  1.47256E+03 -7.75898E+02  1.59877E+03
 -1.65278E+03  8.07055E+02 -1.68740E+03 -1.76007E+03 -9.79123E+02 -2.26642E+03  3.49195E+02 -2.10729E+03
  8.34817E+02 -1.05696E+03  1.19087E+03 -2.22156E+02  1.69203E+03  1.41896E+02  5.31095E+02  1.29712E+03
 -3.97175E+02  2.46506E+02 -1.05938E+03 -7.90356E+02  6.90526E+02 -8.84040E+02  2.14892E+03 -1.47525E+03
  1.97880E+03  4.36071E+02  3.23253E+03  1.25313E+03  1.34674E+03  2.22596E+03 -6.50883E+02  2.32924E+03
 -1.61497E+03  4.51216E+02 -2.02907E+03 -2.90458E+02 -1.15273E+03 -1.78292E+03  5.27123E+02 -8.85560E+02
  1.83990E+03 -9.74441E+02  8.56787E+02  6.05496E+02  3.60242E+02  1.56762E+03  2.11093E+02  1.24551E+03
 -1.45558E+02  1.31151E+03 -6.86239E+02  9.40402E+01 -1.15249E+02  5.49475E+02 -5.98505E+02  6.89358E+02
 -7.77540E+02  8.29397E+02 -2.32070E+03  8.12536E+02 -2.17208E+03  1.49712E+02 -2.82081E+03 -1.43650E+03
 -1.57788E+03 -2.82465E+03  6.44458E+02 -3.80964E+03  1.31763E+03 -3.05593E+03  3.72494E+03 -1.34072E+03
  3.30377E+03  2.37765E+02  1.58151E+03  1.74115E+03 -6.06702E+02  2.00086E+03 -8.29051E+02  1.43623E+03
 -1.27904E+03  1.09510E+03 -7.60713E+02 -4.38712E+02 -5.59511E+02  1.19394E+02 -5.26207E+02  2.49673E+02
 -1.15855E+03 -1.11967E+02 -9.13542E+02  1.21137E+02  2.56904E+02 -7.89853E+02 -2.28070E+02 -1.00806E+03
  1.54654E+03 -8.11269E+02  7.11586E+02  2.02822E+02  1.44804E+03  1.20125E+03 -2.43216E+02  1.85168E+03
 -9.43928E+02  2.77668E+03 -2.18422E+03  1.39158E+03 -2.55277E+03 -1.37041E+02 -1.79397E+03 -1.97845E+03
 -7.90951E+02 -1.85842E+03  4.46436E+02 -1.86472E+03  9.11583E+02 -7.31011E+02  1.16901E+03 -5.18264E+01
  9.89700E+02  5.81547E+02  5.19364E+00  5.84118E+02 -4.26209E+02  7.92009E+00  2.35560E+02 -3.75998E+02
  7.36229E+02  5.97888E+01  5.67384E+02  5.01653E+02  3.46833E+02  3.37238E+02  5.28407E+02  7.26529E+02
 -7.92963E+02  1.12892E+03 -9.02184E+02  1.65043E+02 -9.64646E+02 -9.34198E+02  1.75771E+02 -1.55332E+03
  1.00402E+03 -1.19776E+03  7.54202E+02  1.01975E+02  1.38777E+03 -3.51550E+02  1.07198E+03  1.39703E+03
  3.77631E+02  6.47807E+02 -9.04986E+01  8.34073E+02 -7.41310E+02  8.29953E+02 -5.17061E+02  1.09496E+02
 -1.85153E+02 -2.12943E+02 -6.79876E+02  4.91755E+02 -1.02953E+03  2.56269E+02 -8.30455E+02 -5.16038E+02
 -1.02487E+03  9.99374E+01 -4.79571E+02 -1.11038E+03  7.21864E+02 -1.82110E+03  1.34631E+03 -4.66258E+02
  9.99508E+02 -8.87200E+01 -6.05827E+01  3.57821E+02 -2.73161E+02  1.08617E+03 -6.60071E+02  1.15645E+03
