 $NMID ID='MM_0lb_SNR800_12hz_g50_68.RAW', FMTDAT='(8E13.5)'
 TRAMP=1., VOLUME=1. $END
  3.09876E+05  6.59489E+02  3.37574E+05  2.50460E+05  8.46161E+04  3.38315E+05 -1.32853E+05  2.51445E+05
 -1.90390E+05  8.35819E+04 -1.11875E+05 -3.23588E+04  5.97041E+02 -5.07842E+04  5.35465E+04 -7.94164E+01
  3.52908E+04  5.27257E+04 -1.67778E+04  7.57492E+04 -6.08613E+04  6.37697E+04 -8.49825E+04  3.22937E+04
 -8.15443E+04 -1.16862E+04 -5.75620E+04 -5.14781E+04 -1.52596E+04 -6.97810E+04  2.75681E+04 -4.63224E+04
  4.03386E+04  3.58414E+03  1.65337E+04  4.82072E+04 -3.46705E+04  4.75547E+04 -6.71377E+04 -2.95084E+02
 -5.37789E+04 -5.75294E+04 -7.28918E+03 -7.76689E+04  3.39491E+04 -5.59785E+04  4.87518E+04 -1.75698E+04
  4.43931E+04  1.14707E+04  3.25035E+04  2.61076E+04  1.57511E+04  2.99725E+04 -5.60512E+03  2.78469E+04
 -2.21937E+04  1.22499E+04 -1.83550E+04 -5.43506E+03  6.35594E+03 -7.27361E+03  2.28438E+04  1.27039E+04
  7.02526E+03  3.61268E+04 -3.27511E+04  3.58070E+04 -6.41584E+04  2.11725E+03 -5.80473E+04 -4.37680E+04
 -1.24377E+04 -6.43762E+04  4.04388E+04 -4.64096E+04  5.93328E+04 -2.54933E+03  3.52601E+04  3.30796E+04
 -5.92092E+03  3.73983E+04 -3.04450E+04  1.72503E+04 -3.19298E+04 -4.08534E+03 -1.79903E+04 -1.13820E+04
 -8.73486E+03 -1.38524E+04 -3.57861E+02 -1.87825E+04  7.93912E+03 -2.34480E+04  1.58584E+04 -1.31910E+04
  1.08817E+04  5.37678E+03 -9.10293E+03  1.29718E+04 -2.21327E+04 -5.27773E+03 -8.36602E+03 -3.52435E+04
  2.33295E+04 -4.49393E+04  4.97168E+04 -2.03770E+04  4.66005E+04  2.00606E+04  1.61831E+04  4.55025E+04
 -1.60831E+04  3.44691E+04 -2.63886E+04  2.02997E+03 -1.10281E+04 -2.87070E+04  2.12697E+04 -3.52023E+04
  4.25207E+04 -9.83912E+03  3.74397E+04  2.39391E+04  1.89155E+04  4.83467E+04 -7.94743E+03  5.31587E+04
 -3.31839E+04  3.58171E+04 -4.41709E+04  9.93884E+03 -4.44750E+04 -1.78251E+04 -2.43106E+04 -3.97594E+04
  7.85646E+03 -3.93253E+04  3.22751E+04 -1.56981E+04  3.06628E+04  1.13080E+04  4.87243E+03  1.96721E+04
 -1.37982E+04  9.07599E+03 -1.08460E+04 -7.32269E+03  5.79999E+03 -1.10030E+04  1.82987E+04  5.97028E+03
  1.40943E+04  2.22424E+04 -5.84397E+03  2.57821E+04 -2.28105E+04  1.27694E+04 -2.96226E+04 -3.71699E+03
 -2.26876E+04 -1.78116E+04 -9.47057E+03 -2.23195E+04  4.07885E+03 -2.22162E+04  1.73388E+04 -1.97849E+04
  2.84136E+04 -1.34034E+04  3.49186E+04  3.41811E+03  2.50328E+04  2.18952E+04  4.58716E+03  3.79261E+04
 -1.87007E+04  3.21606E+04 -2.93251E+04  1.11250E+04 -2.14349E+04 -1.01182E+04 -4.54627E+03 -1.30676E+04
  1.03914E+03 -2.04872E+03 -5.98114E+03  7.15177E+03 -1.79966E+04  5.17684E+03 -1.74807E+04 -8.00724E+03
 -1.11062E+04 -2.06635E+04  5.70521E+03 -2.49307E+04  1.60982E+04 -1.76804E+04  1.99054E+04 -1.96845E+03
  1.26464E+04  1.41072E+04 -1.26476E+03  2.11923E+04 -1.45577E+04  1.16488E+04 -2.09010E+04 -4.02814E+03
 -1.53225E+04 -1.83766E+04 -1.80648E+03 -2.49323E+04  1.10120E+04 -2.03081E+04  2.07658E+04 -1.04010E+04
  1.96512E+04  2.44295E+02  1.40319E+04  4.95974E+03  7.60906E+03  1.29872E+03  1.04009E+04 -1.78633E+03
  1.90427E+04  2.98102E+03  2.17824E+04  1.62152E+04  1.45966E+04  3.33089E+04 -2.49421E+03  3.81226E+04
 -2.22026E+04  3.12238E+04 -3.56725E+04  1.58045E+04 -3.76733E+04 -2.86224E+03 -3.09355E+04 -2.20648E+04
 -1.30134E+04 -3.13995E+04  1.10366E+04 -2.80548E+04  2.40095E+04 -1.38740E+04  2.12164E+04  6.52651E+03
  7.52473E+03  1.58584E+04 -1.03533E+04  1.38918E+04 -1.75588E+04  2.87423E+03 -1.32317E+04 -1.14108E+04
 -4.83207E+02 -1.69175E+04  8.94682E+03 -1.22436E+04  1.13960E+04 -1.49002E+03  2.77364E+03  7.45626E+03
 -7.58583E+03  3.29156E+03 -7.26779E+03 -6.42978E+03 -1.01063E+03 -1.51989E+04  1.05057E+04 -1.61652E+04
  1.90979E+04 -8.62245E+03  2.10249E+04  2.82523E+03  1.90165E+04  1.50561E+04  8.50968E+03  2.35017E+04
 -4.16622E+03  2.56503E+04 -1.63173E+04  1.57980E+04 -1.84206E+04  3.39575E+03 -1.29629E+04 -4.33372E+03
 -6.03724E+03 -5.86009E+03 -6.95579E+02  9.51200E+02 -2.78020E+03  2.63362E+03 -6.27626E+03  4.35182E+03
 -1.18074E+04 -7.73889E+02 -1.25893E+04 -1.00522E+04 -5.07952E+03 -1.64603E+04  5.15335E+03 -1.27869E+04
  1.06329E+04 -5.62432E+03  7.80422E+03  3.39997E+03  2.54957E+02  5.10830E+03 -6.26621E+03 -3.32347E+01
 -6.08784E+03 -8.36803E+03 -1.00522E+03 -1.27212E+04  7.12543E+03 -1.31500E+04  1.62050E+04 -6.73242E+03
  1.92489E+04  1.66795E+03  1.42589E+04  1.12819E+04  2.82618E+03  1.51976E+04 -7.91834E+03  1.30609E+04
 -1.05576E+04  3.92028E+03 -5.38663E+03 -2.88259E+03  1.70494E+03 -3.60677E+03  6.75191E+03 -1.03614E+03
  6.11079E+03  5.62525E+03  1.49312E+03  9.94079E+03 -7.50922E+03  9.98007E+03 -1.26632E+04  2.29376E+03
 -8.51162E+03 -6.22310E+03  3.43050E+02 -1.08584E+04  7.08437E+03 -5.36649E+03  7.23386E+03  2.36246E+03
  1.70952E+03  7.72298E+03 -6.45302E+03  9.25458E+03 -1.02307E+04  4.06450E+03 -1.02375E+04 -3.34613E+03
 -6.33395E+03 -1.19422E+04  2.86627E+03 -1.37443E+04  1.20141E+04 -8.40715E+03  1.25711E+04  1.97783E+03
  8.01035E+03  9.95789E+03 -1.15420E+03  1.24843E+04 -8.85004E+03  7.25578E+03 -1.00769E+04 -8.83648E+02
 -8.88663E+03 -8.02700E+03 -1.62001E+03 -9.35499E+03  4.85378E+03 -7.74150E+03  5.75549E+03 -2.95655E+03
  3.81864E+03  1.70748E+03 -3.97916E+02  1.73570E+03  2.66358E+02 -2.11765E+03  1.21934E+03 -5.28123E+03
  8.49269E+03 -2.83921E+03  1.18144E+04  1.28750E+03  1.16715E+04  7.96829E+03  8.07527E+03  1.51827E+04
 -3.68648E+03  1.81865E+04 -1.48943E+04  1.32193E+04 -1.96093E+04  2.39061E+03 -1.56405E+04 -6.60973E+03
 -8.12531E+03 -1.28432E+04 -7.27018E+02 -1.07876E+04  4.30968E+03 -5.79324E+03  3.45614E+03 -3.72087E+03
  2.81515E+03 -2.49897E+03  3.03075E+03 -3.28354E+03  4.87650E+03 -2.63911E+03  6.25099E+03 -4.48227E+02
  8.18295E+03  1.89643E+03  3.96132E+03  6.99534E+03 -1.98712E+03  7.91013E+03 -8.25651E+03  6.51244E+03
 -1.06219E+04 -1.26558E+03 -6.18160E+03 -7.44406E+03 -3.21057E+02 -1.11006E+04  6.51119E+03 -1.14988E+04
  1.18439E+04 -6.66203E+03  1.42857E+04  1.65954E+03  1.00948E+04  9.84656E+03  1.52031E+03  1.26920E+04
 -5.19950E+03  1.09601E+04 -7.36514E+03  3.72328E+03 -4.98786E+03 -1.53197E+03 -2.24480E+03 -1.97794E+03
 -6.96264E+02  2.41954E+02 -1.68208E+03  2.60337E+03 -4.88468E+03  2.07930E+03 -7.63870E+03 -1.17311E+03
 -4.86917E+03 -7.68492E+03  1.89075E+02 -1.05237E+04  6.04741E+03 -9.47477E+03  1.00973E+04 -2.86008E+03
  1.02146E+04  5.24117E+03  4.42870E+03  9.14302E+03 -2.02098E+03  1.03007E+04 -7.28157E+03  6.38791E+03
 -9.48935E+03  4.21157E+02 -7.51637E+03 -5.79320E+03 -5.56711E+02 -8.55739E+03  4.52420E+03 -6.20157E+03
  6.55922E+03 -2.22602E+03  4.49990E+03  1.89184E+03  1.25690E+03  3.51896E+03  1.03539E+03  1.75013E+03
  2.57588E+03  1.01602E+03  2.07333E+03  1.76886E+03  2.92260E+03  3.96554E+03  2.94014E+03  5.34225E+03
 -2.03204E+03  7.83832E+03 -6.86987E+03  8.11207E+03 -9.74423E+03  2.69929E+03 -1.05012E+04 -3.47731E+03
 -4.98367E+03 -1.01086E+04  1.50344E+03 -1.12456E+04  6.05287E+03 -6.97256E+03  8.43201E+03 -2.02340E+03
  6.47827E+03  4.15623E+03  1.24997E+03  5.76309E+03 -2.23942E+03  3.62668E+03 -3.96302E+03 -7.31985E+02
 -2.18030E+03 -4.59522E+03  2.43931E+03 -4.20491E+03  4.31923E+03 -2.61606E+03  3.89101E+03  5.28308E+02
  2.20289E+03  1.58187E+03  1.57812E+03  1.40350E+03 -4.43636E+02  1.27230E+03  1.84046E+03  1.77288E+02
  1.35773E+03 -7.31807E+02  4.14558E+03  1.90764E+03  2.08495E+03  5.67745E+03 -6.90035E+02  6.72373E+03
 -4.65770E+03  4.37539E+03 -6.07474E+03  1.22682E+03 -5.83979E+03 -2.29319E+03 -2.04083E+03 -3.65201E+03
  6.40141E+02 -3.85098E+03  2.49158E+03 -2.16663E+03  1.95392E+03  2.12816E+03 -9.13958E+02  3.37594E+03
 -4.33908E+03  1.89406E+03 -4.37015E+03 -2.53553E+03 -2.48879E+03 -5.47432E+03  6.54329E+02 -5.32051E+03
  2.91367E+03 -2.94427E+03  3.42263E+03 -2.09695E+01  3.19374E+03  1.51419E+03  3.63616E+02  2.89406E+03
 -1.46026E+03  8.30002E+02 -2.31432E+03 -1.78483E+03  1.24738E+03 -3.85427E+03  4.86439E+03 -3.21792E+03
  5.27459E+03  5.83177E+02  6.32958E+03  3.83581E+03  2.14395E+03  6.19566E+03 -1.79717E+03  6.15435E+03
 -5.01055E+03  2.49243E+03 -5.20908E+03 -7.38091E+02 -2.78956E+03 -3.98196E+03  1.05221E+03 -3.33637E+03
  3.91522E+03 -1.85684E+03  3.22904E+03  1.69682E+03  1.15460E+03  3.36684E+03 -4.25068E+02  3.06528E+03
 -1.46681E+03  2.23311E+03 -1.86190E+03  8.22269E+02 -5.90738E+02  5.92296E+02 -8.30493E+02  1.75174E+03
 -1.77102E+03  2.24618E+03 -4.59659E+03  2.15065E+03 -5.47770E+03  8.78452E+01 -6.77156E+03 -4.02755E+03
 -3.27332E+03 -7.91252E+03  1.98003E+03 -9.45418E+03  5.16524E+03 -7.42799E+03  8.93788E+03 -2.67337E+03
  8.16336E+03  1.28893E+03  4.68614E+03  5.31501E+03  6.43459E+01  6.28460E+03 -2.58620E+03  4.60407E+03
 -3.64664E+03  1.80278E+03 -1.99681E+03 -7.99507E+02 -1.05353E+03 -1.98773E+02 -5.15243E+02  2.35024E+02
 -1.56845E+03  1.71631E+02 -1.61449E+03  2.44160E+01 -3.88290E+02 -1.15137E+03 -1.12630E+01 -2.60935E+03
  2.97704E+03 -2.09094E+03  3.44470E+03  7.77117E+00  4.17010E+03  3.59993E+03  3.74060E+02  6.03449E+03
 -3.17017E+03  7.52595E+03 -6.38541E+03  4.35865E+03 -7.22266E+03 -7.75476E+02 -5.07225E+03 -4.68230E+03
 -2.48929E+03 -6.10205E+03  1.11726E+03 -5.24558E+03  3.47221E+03 -2.87237E+03  3.41811E+03  1.96149E+02
  2.06947E+03  2.06692E+03 -3.94961E+02  1.40911E+03 -1.43431E+03 -1.95629E+02  3.10302E+01 -1.22949E+03
  2.15950E+03 -7.63524E+02  1.92129E+03  9.74941E+02  1.56190E+03  2.34075E+03  3.98586E+02  2.89358E+03
 -2.53133E+03  2.72589E+03 -3.60175E+03 -6.07334E+01 -3.37792E+03 -2.72660E+03 -3.57166E+02 -4.80221E+03
  2.59258E+03 -3.73448E+03  4.11991E+03 -1.17052E+03  4.46752E+03  8.80022E+02  2.41829E+03  3.73448E+03
  5.01887E+02  3.90554E+03 -1.49295E+03  2.76703E+03 -2.33000E+03  1.87544E+03 -1.86892E+03  3.82974E+02
 -1.00017E+03 -4.90200E+02 -1.41227E+03  5.33327E+02 -1.96798E+03  3.32147E+02 -2.93863E+03 -3.24030E+02
 -3.38952E+03 -1.57951E+03 -1.11438E+03 -3.90433E+03  2.01359E+03 -4.29077E+03  3.12597E+03 -2.09679E+03
  3.72900E+03  3.70354E+02  1.23545E+03  2.84178E+03 -3.46759E+02  3.44937E+03 -2.88875E+03  2.68543E+03
