 $NMID ID='MM_0lb_SNR800_15hz_g40_21.RAW', FMTDAT='(8E13.5)'
 TRAMP=1., VOLUME=1. $END
  3.09718E+05  5.10831E+02  3.37586E+05  2.50599E+05  8.44467E+04  3.37746E+05 -1.32708E+05  2.50527E+05
 -1.89690E+05  8.27675E+04 -1.11240E+05 -3.29343E+04  1.04461E+03 -5.05001E+04  5.39388E+04 -2.13096E+02
  3.50630E+04  5.27419E+04 -1.70763E+04  7.50882E+04 -6.08748E+04  6.28792E+04 -8.32573E+04  3.17817E+04
 -8.01481E+04 -1.10942E+04 -5.65062E+04 -5.04597E+04 -1.52585E+04 -6.90187E+04  2.69749E+04 -4.53481E+04
  3.96286E+04  3.86835E+03  1.57354E+04  4.76448E+04 -3.42274E+04  4.68167E+04 -6.60308E+04 -1.90033E+02
 -5.24711E+04 -5.59660E+04 -6.47468E+03 -7.58038E+04  3.32088E+04 -5.41608E+04  4.71562E+04 -1.69517E+04
  4.24326E+04  1.13073E+04  3.12977E+04  2.48369E+04  1.57771E+04  2.89148E+04 -4.78699E+03  2.69903E+04
 -2.21638E+04  1.29808E+04 -1.92058E+04 -4.54387E+03  5.02466E+03 -8.11481E+03  2.18866E+04  1.18043E+04
  7.19065E+03  3.42946E+04 -3.15926E+04  3.45977E+04 -6.23257E+04  2.17004E+03 -5.62916E+04 -4.21098E+04
 -1.21239E+04 -6.20490E+04  3.87002E+04 -4.41775E+04  5.69824E+04 -2.03554E+03  3.32271E+04  3.15418E+04
 -6.22648E+03  3.47085E+04 -2.90249E+04  1.48357E+04 -2.89396E+04 -4.92118E+03 -1.55999E+04 -1.03236E+04
 -7.79044E+03 -1.26935E+04 -4.52532E+02 -1.71719E+04  7.46216E+03 -2.26156E+04  1.53236E+04 -1.36081E+04
  1.20761E+04  4.75571E+03 -6.97665E+03  1.30475E+04 -2.00045E+04 -3.27866E+03 -8.31258E+03 -3.21704E+04
  2.18897E+04 -4.20388E+04  4.65375E+04 -1.90108E+04  4.34284E+04  1.85436E+04  1.49181E+04  4.30286E+04
 -1.57672E+04  3.20962E+04 -2.42131E+04  1.34681E+03 -8.85576E+03 -2.69761E+04  2.08714E+04 -3.26113E+04
  3.95828E+04 -8.23317E+03  3.34117E+04  2.32512E+04  1.69840E+04  4.46097E+04 -7.96189E+03  4.81397E+04
 -3.01937E+04  3.19130E+04 -4.01268E+04  8.99825E+03 -4.06897E+04 -1.58605E+04 -2.25755E+04 -3.62034E+04
  6.90471E+03 -3.61921E+04  3.04521E+04 -1.41778E+04  2.81830E+04  1.10508E+04  3.57424E+03  1.84828E+04
 -1.34128E+04  7.79756E+03 -9.84147E+03 -7.67622E+03  6.08076E+03 -1.05128E+04  1.76059E+04  6.38737E+03
  1.30900E+04  2.19146E+04 -6.42280E+03  2.43919E+04 -2.20958E+04  1.02995E+04 -2.65061E+04 -5.23941E+03
 -1.92107E+04 -1.71871E+04 -7.22258E+03 -1.89293E+04  4.09965E+03 -1.71027E+04  1.42823E+04 -1.66700E+04
  2.42550E+04 -1.22693E+04  3.06525E+04  2.07059E+03  2.25985E+04  1.83707E+04  4.01245E+03  3.47162E+04
 -1.68944E+04  2.91821E+04 -2.68317E+04  1.01925E+04 -2.01749E+04 -1.06669E+04 -4.28392E+03 -1.34806E+04
  2.35342E+03 -3.58955E+03 -4.06347E+03  6.21152E+03 -1.48693E+04  5.04607E+03 -1.49692E+04 -5.82400E+03
 -9.57301E+03 -1.75129E+04  4.86699E+03 -2.11981E+04  1.42464E+04 -1.56074E+04  1.64325E+04 -1.42173E+03
  1.03040E+04  1.21708E+04 -8.09262E+02  1.74197E+04 -1.18717E+04  9.98863E+03 -1.75391E+04 -3.30789E+03
 -1.28659E+04 -1.59633E+04 -1.47951E+03 -2.10777E+04  9.73902E+03 -1.71068E+04  1.80276E+04 -8.22173E+03
  1.63854E+04  3.75500E+02  1.17911E+04  3.74097E+03  6.40869E+03  9.00260E+02  8.80025E+03 -1.57589E+03
  1.56009E+04  2.68415E+03  1.73139E+04  1.40330E+04  1.11825E+04  2.79017E+04 -3.16831E+03  3.09177E+04
 -1.78878E+04  2.44738E+04 -2.87658E+04  1.18273E+04 -3.00024E+04 -2.05715E+03 -2.48035E+04 -1.72351E+04
 -1.10438E+04 -2.44315E+04  8.42572E+03 -2.22578E+04  1.93398E+04 -1.20478E+04  1.75866E+04  4.58701E+03
  7.27556E+03  1.30996E+04 -7.71693E+03  1.16363E+04 -1.51992E+04  2.83995E+03 -1.14006E+04 -9.27166E+03
 -1.90360E+02 -1.41204E+04  7.21622E+03 -1.06913E+04  9.53041E+03 -1.46650E+03  1.74417E+03  5.78067E+03
 -6.42716E+03  1.84673E+03 -4.92423E+03 -5.34221E+03  1.24315E+02 -1.21204E+04  9.05157E+03 -1.25078E+04
  1.49996E+04 -6.04776E+03  1.54459E+04  3.01455E+03  1.35001E+04  1.17026E+04  6.40317E+03  1.76957E+04
 -2.88460E+03  1.97521E+04 -1.22125E+04  1.24659E+04 -1.40876E+04  3.28421E+03 -9.93791E+03 -2.66147E+03
 -4.72257E+03 -4.47661E+03 -7.17497E+02  1.16048E+03 -1.88265E+03  2.28543E+03 -4.42958E+03  4.06374E+03
 -9.68408E+03 -6.71737E+02 -1.03006E+04 -8.58362E+03 -3.90340E+03 -1.37968E+04  4.06422E+03 -1.03267E+04
  8.47763E+03 -4.51587E+03  5.93440E+03  2.81512E+03  3.71861E+02  3.59680E+03 -4.39859E+03 -4.60890E+01
 -4.44864E+03 -6.46088E+03 -9.02737E+02 -9.28683E+03  5.16599E+03 -9.93112E+03  1.20657E+04 -5.04210E+03
  1.44587E+04  1.13611E+03  1.07052E+04  8.05113E+03  2.32583E+03  1.09931E+04 -5.97655E+03  1.02508E+04
 -8.30694E+03  3.22406E+03 -4.20653E+03 -1.51960E+03  1.67374E+03 -2.16008E+03  5.68645E+03 -1.34900E+03
  4.91694E+03  4.11484E+03  9.90822E+02  7.96058E+03 -5.37725E+03  7.85250E+03 -9.73958E+03  2.19383E+03
 -6.52780E+03 -4.89628E+03  4.46293E+02 -8.06831E+03  4.55264E+03 -4.35694E+03  4.72681E+03  1.48859E+03
  8.49330E+02  5.02981E+03 -4.97354E+03  6.40404E+03 -6.70860E+03  2.47957E+03 -6.98909E+03 -1.85092E+03
 -3.95650E+03 -8.22771E+03  1.88678E+03 -9.87251E+03  8.10940E+03 -6.18755E+03  8.89230E+03  1.08357E+03
  5.99488E+03  7.16750E+03 -1.04904E+02  9.31383E+03 -6.31654E+03  5.32577E+03 -6.80379E+03 -4.60176E+02
 -6.87193E+03 -6.35436E+03 -1.40994E+03 -6.50793E+03  3.38045E+03 -5.95000E+03  4.16111E+03 -3.12897E+03
  3.27726E+03  7.25288E+02 -1.36463E+02  1.28875E+03  1.74583E+02 -9.24468E+02  8.65625E+02 -3.22575E+03
  5.41645E+03 -1.84718E+03  7.80378E+03  7.88919E+02  7.81817E+03  5.03579E+03  6.36967E+03  1.03506E+04
 -2.06220E+03  1.19413E+04 -1.04342E+04  9.07361E+03 -1.34756E+04  1.85782E+03 -1.09227E+04 -3.87016E+03
 -5.72345E+03 -8.85241E+03 -5.52552E+02 -6.97315E+03  2.57973E+03 -3.64537E+03  2.63363E+03 -2.82006E+03
  1.63060E+03 -2.03576E+03  2.83020E+03 -2.60146E+03  4.03024E+03 -1.92028E+03  4.45522E+03 -2.76778E+02
  5.79354E+03  1.51080E+03  2.40614E+03  4.63250E+03 -1.90235E+03  4.70475E+03 -6.22183E+03  3.96780E+03
 -7.25796E+03 -1.04827E+03 -3.35750E+03 -4.99072E+03  1.49804E+02 -7.61580E+03  4.28040E+03 -7.95462E+03
  7.68080E+03 -4.50415E+03  9.38609E+03  9.70394E+02  6.70702E+03  6.50539E+03  1.23310E+03  8.58790E+03
 -3.15950E+03  7.40571E+03 -5.14620E+03  2.36512E+03 -3.06653E+03 -1.04787E+03 -8.20496E+02 -1.10573E+03
 -7.21203E+02  3.96444E+01 -8.71055E+02  2.17173E+03 -3.21449E+03  1.46890E+03 -5.44094E+03 -4.71288E+02
 -2.66383E+03 -5.45045E+03  7.98198E+02 -7.08962E+03  3.96520E+03 -6.41368E+03  6.22741E+03 -1.99323E+03
  6.13446E+03  3.21939E+03  3.19586E+03  5.57258E+03 -1.28888E+03  6.60991E+03 -4.21509E+03  3.94861E+03
 -6.10898E+03  7.69405E+02 -5.06524E+03 -4.03739E+03 -4.72022E+02 -5.12821E+03  2.49825E+03 -3.86789E+03
  3.94456E+03 -1.86555E+03  2.81149E+03  5.99708E+02  6.20841E+02  2.28633E+03  9.73515E+02  6.69841E+02
  1.99275E+03  7.84143E+02  1.93271E+03  1.43669E+03  1.70416E+03  3.03980E+03  1.98673E+03  2.78840E+03
 -1.43920E+03  4.71318E+03 -4.06124E+03  5.57806E+03 -5.65161E+03  1.42412E+03 -6.62507E+03 -1.49482E+03
 -3.03328E+03 -5.91273E+03  1.16716E+03 -7.31369E+03  3.74983E+03 -4.36156E+03  4.96038E+03 -1.30022E+03
  4.35265E+03  2.55526E+03  7.67139E+02  3.84873E+03 -1.42520E+03  2.14044E+03 -2.30709E+03 -2.49476E+02
 -1.36542E+03 -2.48298E+03  1.70081E+03 -2.55824E+03  2.25249E+03 -1.20357E+03  2.58885E+03  5.92017E+02
  1.50104E+03  8.12179E+02  9.82705E+02  4.37786E+02 -3.79154E+02  9.61842E+02  1.56685E+03 -2.56310E+02
  6.47705E+02 -3.38304E+02  2.43547E+03  9.01803E+02  9.12767E+02  3.46176E+03 -7.06759E+02  4.56739E+03
 -2.70129E+03  2.46644E+03 -3.95039E+03  8.09952E+02 -3.18947E+03 -1.23235E+03 -8.20605E+02 -2.32650E+03
  4.49487E+02 -2.26895E+03  1.64754E+03 -1.19746E+03  1.05380E+03  1.63054E+03 -7.25811E+02  1.94894E+03
 -2.41357E+03  1.26046E+03 -2.30986E+03 -1.82762E+03 -1.37437E+03 -3.79812E+03  5.19493E+01 -3.11609E+03
  1.43441E+03 -1.43235E+03  1.96279E+03 -8.63784E+01  2.24981E+03  2.90634E+02  8.41731E+01  1.89711E+03
 -9.40299E+02  2.75134E+02 -1.68768E+03 -8.81815E+02  7.46066E+02 -1.88719E+03  2.90626E+03 -1.87466E+03
  2.88560E+03  6.54442E+01  3.94130E+03  1.71138E+03  1.75139E+03  3.26049E+03 -8.88362E+02  3.26844E+03
 -2.92938E+03  1.24517E+03 -2.96343E+03 -3.12953E+02 -1.39117E+03 -2.29627E+03  1.88291E+02 -1.61068E+03
  2.33981E+03 -1.07855E+03  1.84110E+03  1.18524E+03  6.66078E+02  2.00370E+03  9.47565E+01  1.84533E+03
 -4.31883E+02  1.39815E+03 -7.33751E+02  4.01595E+02 -6.62616E+01  6.28062E+02 -7.02395E+02  8.28183E+02
 -1.27476E+03  1.67554E+03 -2.74424E+03  6.49745E+02 -3.17983E+03  2.76692E+02 -4.00292E+03 -2.19911E+03
 -1.79167E+03 -4.23751E+03  1.34310E+03 -5.01275E+03  2.52566E+03 -4.37028E+03  5.17378E+03 -1.78066E+03
  4.35606E+03  6.35639E+01  2.58503E+03  2.81563E+03 -2.50998E+02  2.92561E+03 -9.62193E+02  2.39602E+03
 -2.15667E+03  9.85805E+02 -1.08461E+03 -5.88210E+02 -6.45371E+02 -1.26885E+02 -5.52120E+02  1.38692E+02
 -1.10381E+03  2.17505E+02 -1.39061E+03 -3.69479E+02  1.49941E+02 -1.07501E+03 -5.18649E+02 -1.21886E+03
  2.14183E+03 -1.24948E+03  1.43160E+03  4.98769E+02  2.24255E+03  1.82593E+03 -1.84457E+02  3.16733E+03
 -1.64949E+03  3.90701E+03 -3.45253E+03  2.47995E+03 -3.78999E+03 -3.38190E+02 -2.80308E+03 -2.42334E+03
 -1.37416E+03 -2.92491E+03  7.01715E+02 -3.02997E+03  1.76666E+03 -1.36222E+03  1.54099E+03  1.80075E+02
  1.10220E+03  1.00662E+03  1.52390E+00  9.29623E+02 -3.42547E+02 -2.69113E+02 -3.02138E+02 -3.82132E+02
  9.68088E+02 -1.35920E+02  1.08307E+03  6.79634E+02  6.15897E+02  9.49808E+02  3.33340E+02  1.06107E+03
 -1.37298E+03  1.27478E+03 -1.47074E+03 -1.16606E+00 -1.78336E+03 -1.55198E+03  1.38523E+01 -2.15761E+03
  1.46410E+03 -2.11363E+03  1.92835E+03 -6.28457E+02  2.33497E+03  6.81914E+00  1.12964E+03  1.68930E+03
  4.20446E+02  1.73468E+03 -5.81402E+02  1.71102E+03 -1.44663E+03  7.80714E+02 -1.06661E+03  3.45711E+02
 -3.02729E+02  4.95737E+01 -4.99077E+02  7.49411E+01 -1.10265E+03  4.64791E+02 -1.61995E+03 -1.69724E+02
 -1.59052E+03 -3.60488E+02 -6.41254E+02 -1.95050E+03  1.08523E+03 -2.33188E+03  1.88242E+03 -1.00299E+03
  1.66509E+03  3.84126E+02  2.81639E+02  9.71246E+02  1.63466E+02  1.86476E+03 -1.00281E+03  1.34703E+03
