 $NMID ID='MM_0lb_SNR800_14hz_g60_86.RAW', FMTDAT='(8E13.5)'
 TRAMP=1., VOLUME=1. $END
  3.09718E+05  1.63381E+02  3.37788E+05  2.50607E+05  8.50260E+04  3.38220E+05 -1.32702E+05  2.51530E+05
 -1.90464E+05  8.34442E+04 -1.12185E+05 -3.24357E+04  8.34760E+02 -5.05754E+04  5.37726E+04 -2.44564E+02
  3.57945E+04  5.31280E+04 -1.66195E+04  7.58341E+04 -6.11150E+04  6.40184E+04 -8.47698E+04  3.24677E+04
 -8.16286E+04 -1.16597E+04 -5.80876E+04 -5.16768E+04 -1.52101E+04 -7.02798E+04  2.79296E+04 -4.62005E+04
  4.04905E+04  3.44339E+03  1.63096E+04  4.82222E+04 -3.46437E+04  4.76290E+04 -6.72294E+04 -3.37341E+02
 -5.44703E+04 -5.70924E+04 -7.27016E+03 -7.78225E+04  3.44333E+04 -5.56668E+04  4.85858E+04 -1.74849E+04
  4.41459E+04  1.16058E+04  3.20696E+04  2.59591E+04  1.63905E+04  3.01073E+04 -5.51836E+03  2.73881E+04
 -2.25494E+04  1.20851E+04 -1.84030E+04 -5.40933E+03  6.20911E+03 -7.29764E+03  2.27060E+04  1.27848E+04
  7.16395E+03  3.59753E+04 -3.26790E+04  3.60775E+04 -6.46568E+04  2.07118E+03 -5.77379E+04 -4.37827E+04
 -1.25642E+04 -6.43629E+04  4.05544E+04 -4.62242E+04  5.94096E+04 -2.04213E+03  3.52058E+04  3.33542E+04
 -5.59984E+03  3.76135E+04 -3.05694E+04  1.69715E+04 -3.18816E+04 -4.52372E+03 -1.76285E+04 -1.14593E+04
 -8.78627E+03 -1.35493E+04 -7.64083E+02 -1.86868E+04  7.86849E+03 -2.31694E+04  1.57670E+04 -1.30329E+04
  1.10613E+04  5.61462E+03 -9.08481E+03  1.27963E+04 -2.20191E+04 -5.10933E+03 -8.12926E+03 -3.49773E+04
  2.36843E+04 -4.42359E+04  4.94396E+04 -1.99511E+04  4.60092E+04  2.00467E+04  1.60194E+04  4.52604E+04
 -1.61900E+04  3.46590E+04 -2.59742E+04  1.81023E+03 -1.06825E+04 -2.83085E+04  2.13872E+04 -3.48910E+04
  4.19809E+04 -9.54035E+03  3.73500E+04  2.43541E+04  1.90014E+04  4.82297E+04 -8.16933E+03  5.21280E+04
 -3.30656E+04  3.52371E+04 -4.37388E+04  1.01632E+04 -4.43187E+04 -1.72251E+04 -2.43001E+04 -3.92355E+04
  7.24814E+03 -3.90466E+04  3.22141E+04 -1.51076E+04  3.00424E+04  1.08661E+04  4.30259E+03  1.95879E+04
 -1.34959E+04  8.99536E+03 -1.06357E+04 -7.52885E+03  6.20410E+03 -1.09531E+04  1.85747E+04  5.82119E+03
  1.38332E+04  2.25954E+04 -5.94016E+03  2.54577E+04 -2.21849E+04  1.24494E+04 -2.96072E+04 -4.40428E+03
 -2.18598E+04 -1.78614E+04 -8.88365E+03 -2.18155E+04  3.90108E+03 -2.15073E+04  1.69835E+04 -1.94978E+04
  2.79079E+04 -1.33633E+04  3.41824E+04  3.66344E+03  2.47586E+04  2.13108E+04  4.33914E+03  3.77604E+04
 -1.86552E+04  3.15349E+04 -2.91275E+04  1.08836E+04 -2.12504E+04 -1.01970E+04 -4.36773E+03 -1.31349E+04
  1.61055E+03 -2.61349E+03 -5.87766E+03  7.17263E+03 -1.71597E+04  5.11489E+03 -1.76165E+04 -7.45720E+03
 -1.04278E+04 -2.04336E+04  5.68482E+03 -2.44577E+04  1.63795E+04 -1.76374E+04  1.93834E+04 -1.75155E+03
  1.22253E+04  1.41333E+04 -1.40665E+03  2.02907E+04 -1.40160E+04  1.15634E+04 -2.02625E+04 -4.29889E+03
 -1.50621E+04 -1.80299E+04 -1.64942E+03 -2.43365E+04  1.07173E+04 -2.00443E+04  2.01285E+04 -1.00023E+04
  1.88874E+04  2.19285E+02  1.35753E+04  4.37800E+03  7.26483E+03  8.23629E+02  1.05295E+04 -1.78979E+03
  1.84781E+04  2.98582E+03  2.10214E+04  1.55413E+04  1.36453E+04  3.21267E+04 -3.19134E+03  3.67364E+04
 -2.11027E+04  3.00395E+04 -3.41705E+04  1.53936E+04 -3.63875E+04 -2.48757E+03 -2.97206E+04 -2.06883E+04
 -1.27924E+04 -3.02271E+04  1.05001E+04 -2.70482E+04  2.30050E+04 -1.34877E+04  2.03743E+04  5.89383E+03
  7.17470E+03  1.55211E+04 -9.55205E+03  1.34119E+04 -1.72360E+04  2.49118E+03 -1.29970E+04 -1.04976E+04
 -2.31110E+02 -1.62439E+04  8.55752E+03 -1.21826E+04  1.13540E+04 -1.15906E+03  2.44249E+03  6.98367E+03
 -7.31922E+03  3.08284E+03 -6.90545E+03 -6.06354E+03 -8.39383E+02 -1.48337E+04  1.00414E+04 -1.53449E+04
  1.82703E+04 -8.17855E+03  1.95421E+04  3.32953E+03  1.69924E+04  1.40700E+04  8.16646E+03  2.20769E+04
 -3.77401E+03  2.40212E+04 -1.52243E+04  1.49863E+04 -1.75906E+04  3.04365E+03 -1.22940E+04 -4.12580E+03
 -5.52845E+03 -5.28104E+03 -8.47639E+02  6.91762E+02 -2.32656E+03  2.65775E+03 -5.76471E+03  4.66232E+03
 -1.14230E+04 -6.84785E+02 -1.19258E+04 -9.53205E+03 -4.71833E+03 -1.58595E+04  5.04554E+03 -1.24403E+04
  1.00430E+04 -4.67396E+03  7.25834E+03  3.22777E+03  4.11905E+02  4.71334E+03 -5.64911E+03 -4.04138E+02
 -5.65646E+03 -7.88648E+03 -1.29108E+03 -1.13304E+04  6.40657E+03 -1.23049E+04  1.54518E+04 -6.61217E+03
  1.81168E+04  1.48685E+03  1.30000E+04  1.03266E+04  2.59937E+03  1.41610E+04 -7.42599E+03  1.19421E+04
 -9.93354E+03  3.74320E+03 -5.20351E+03 -2.30698E+03  1.77550E+03 -3.03685E+03  6.63526E+03 -9.90385E+02
  5.85127E+03  5.22030E+03  1.32474E+03  9.42819E+03 -6.76782E+03  9.14936E+03 -1.18670E+04  2.30884E+03
 -8.03995E+03 -5.98613E+03  4.03219E+02 -1.00258E+04  6.42738E+03 -5.11395E+03  6.29045E+03  2.07228E+03
  1.06778E+03  6.83551E+03 -5.84986E+03  8.43990E+03 -9.17591E+03  4.13703E+03 -9.21960E+03 -2.87848E+03
 -5.52741E+03 -1.10662E+04  2.25071E+03 -1.25496E+04  1.05369E+04 -7.72656E+03  1.10901E+04  2.09422E+03
  7.39612E+03  9.01863E+03 -6.32960E+02  1.12094E+04 -8.01687E+03  6.30980E+03 -8.77278E+03 -9.35902E+02
 -8.02615E+03 -7.82504E+03 -1.28641E+03 -8.32483E+03  4.39453E+03 -7.10065E+03  5.44098E+03 -3.54834E+03
  3.68627E+03  1.28580E+03 -1.19011E+02  2.04044E+03 -8.39787E+01 -1.76864E+03  1.12387E+03 -4.37562E+03
  7.36418E+03 -2.48465E+03  1.03071E+04  1.15545E+03  1.01431E+04  6.68034E+03  7.67681E+03  1.31810E+04
 -2.88975E+03  1.58226E+04 -1.35348E+04  1.14297E+04 -1.71844E+04  2.17005E+03 -1.40394E+04 -5.72323E+03
 -7.07770E+03 -1.11313E+04 -4.55174E+02 -9.65091E+03  3.71117E+03 -4.98095E+03  3.55197E+03 -3.56681E+03
  2.61179E+03 -2.00284E+03  3.15366E+03 -3.32061E+03  4.53698E+03 -2.39443E+03  5.70188E+03 -1.86897E+02
  7.56854E+03  1.68446E+03  3.05537E+03  6.04171E+03 -1.58240E+03  6.77078E+03 -8.06461E+03  4.97276E+03
 -9.11408E+03 -8.72864E+02 -5.02946E+03 -6.60255E+03 -2.04283E+02 -9.65271E+03  5.71028E+03 -9.91837E+03
  9.80808E+03 -5.88879E+03  1.24332E+04  1.10784E+03  8.69354E+03  8.64215E+03  1.47978E+03  1.10334E+04
 -4.39262E+03  9.62625E+03 -6.51498E+03  2.98578E+03 -4.12307E+03 -1.32619E+03 -1.69292E+03 -1.15770E+03
 -9.73718E+02 -3.61917E+01 -1.32743E+03  2.41520E+03 -3.95251E+03  1.58180E+03 -6.74081E+03 -9.02512E+02
 -3.82052E+03 -6.57785E+03  3.91711E+02 -8.93360E+03  5.48234E+03 -8.00048E+03  8.52456E+03 -2.33935E+03
  8.31504E+03  4.16860E+03  4.17113E+03  7.38017E+03 -1.44205E+03  8.59731E+03 -6.41795E+03  5.46394E+03
 -8.02206E+03  7.55543E+02 -6.19575E+03 -4.84412E+03 -7.22730E+02 -6.75791E+03  3.57899E+03 -5.23821E+03
  5.12931E+03 -1.93871E+03  3.90084E+03  1.24069E+03  1.05717E+03  2.80498E+03  1.06280E+03  1.22451E+03
  1.99627E+03  8.02225E+02  2.47904E+03  1.38655E+03  2.45091E+03  3.24276E+03  2.41610E+03  4.33082E+03
 -1.96170E+03  6.10475E+03 -5.60608E+03  6.92488E+03 -7.80587E+03  1.83781E+03 -8.70971E+03 -2.85696E+03
 -3.77439E+03 -8.23825E+03  1.10967E+03 -9.25046E+03  4.79966E+03 -5.62675E+03  6.76902E+03 -1.71649E+03
  5.50569E+03  3.15603E+03  1.13124E+03  4.80918E+03 -2.00871E+03  2.67667E+03 -2.79017E+03 -3.69699E+02
 -1.92831E+03 -3.54378E+03  1.94341E+03 -3.78067E+03  3.33783E+03 -1.90445E+03  2.94223E+03  8.37971E+02
  2.18724E+03  1.47057E+03  7.08298E+02  1.11860E+03 -6.72055E+02  1.28986E+03  1.58197E+03 -2.36522E+02
  7.52783E+02 -3.37290E+02  3.37231E+03  1.53442E+03  1.53931E+03  4.25688E+03 -4.47078E+02  5.61312E+03
 -3.70453E+03  3.31448E+03 -4.65156E+03  8.65134E+02 -4.61516E+03 -1.55782E+03 -1.40079E+03 -2.94412E+03
  1.99010E+02 -3.06915E+03  2.27876E+03 -1.42078E+03  1.41708E+03  1.84291E+03 -1.07732E+03  2.50720E+03
 -2.69858E+03  1.34666E+03 -3.10550E+03 -2.23432E+03 -1.80194E+03 -4.38091E+03  3.54203E+02 -3.86826E+03
  2.20330E+03 -2.10016E+03  2.64205E+03  6.75116E+01  2.73197E+03  8.88786E+02  3.70921E+02  2.51028E+03
 -1.21726E+03  4.97130E+02 -2.12510E+03 -9.45189E+02  9.76205E+02 -2.98121E+03  3.76342E+03 -2.87779E+03
  4.23626E+03  7.86698E+02  5.43542E+03  2.73778E+03  1.73735E+03  4.39108E+03 -1.30196E+03  4.26785E+03
 -3.62858E+03  1.41510E+03 -4.06609E+03 -7.78627E+02 -2.18444E+03 -2.82028E+03  8.01931E+02 -2.22310E+03
  3.09172E+03 -1.80682E+03  2.35762E+03  1.65417E+03  9.60821E+02  2.94681E+03 -1.38796E+02  2.47536E+03
 -1.02528E+03  1.70112E+03 -1.11541E+03  3.06890E+02 -2.10059E+02  3.92585E+02 -8.52607E+02  8.02298E+02
 -8.77956E+02  1.88116E+03 -3.33018E+03  1.60433E+03 -4.13958E+03  7.82716E+01 -5.08076E+03 -2.70592E+03
 -2.54331E+03 -5.86517E+03  1.10408E+03 -6.62479E+03  3.76584E+03 -5.58831E+03  6.47242E+03 -1.98791E+03
  5.68238E+03  8.83722E+02  3.26091E+03  4.24994E+03 -1.81198E+02  4.09709E+03 -1.74672E+03  3.12011E+03
 -2.77766E+03  1.32450E+03 -1.55188E+03 -3.25797E+02 -1.02218E+03  1.14150E+02 -4.41667E+02 -2.77752E+02
 -1.23139E+03 -3.36758E+01 -8.72812E+02 -3.04584E+01  7.46170E+01 -1.06210E+03 -2.25781E+02 -1.77417E+03
  2.01387E+03 -1.51250E+03  2.25459E+03  2.24537E+02  2.81798E+03  2.15089E+03  4.66100E+02  4.04275E+03
 -2.23291E+03  5.25071E+03 -4.35690E+03  2.93842E+03 -4.69203E+03 -6.53598E+02 -3.66439E+03 -2.72432E+03
 -1.87756E+03 -3.96939E+03  1.27904E+03 -3.80274E+03  2.75890E+03 -1.86764E+03  2.25878E+03  1.42260E+02
  1.77221E+03  1.32524E+03  2.55194E+02  1.17934E+03 -7.85667E+02 -1.10154E+02 -1.00881E+02 -1.00676E+03
  1.28277E+03 -1.40087E+02  1.31838E+03  6.24850E+02  7.65735E+02  1.27808E+03 -3.46998E+01  1.87139E+03
 -1.90811E+03  1.99365E+03 -2.32247E+03  2.16711E+02 -2.40195E+03 -1.66960E+03 -3.27563E+02 -3.20211E+03
  1.90198E+03 -2.65255E+03  2.50734E+03 -3.58388E+02  2.90531E+03 -1.70833E-01  1.47901E+03  2.29431E+03
  6.36265E+02  1.91541E+03 -8.80316E+02  1.85400E+03 -1.81063E+03  1.27305E+03 -1.18853E+03 -6.68287E+01
 -1.61004E+02 -6.51853E+01 -1.18176E+03  4.24444E+02 -1.72193E+03  3.40888E+02 -1.78010E+03 -6.34154E+02
 -2.34029E+03 -1.13869E+03 -5.71600E+02 -2.67296E+03  1.35667E+03 -3.05174E+03  2.29686E+03 -1.11436E+03
  2.35833E+03  3.30076E+02  8.66685E+02  1.84186E+03  1.10943E+02  2.44899E+03 -1.42575E+03  1.93312E+03
