 $NMID ID='MM_0lb_SNR800_7hz_g40_34.RAW', FMTDAT='(8E13.5)'
 TRAMP=1., VOLUME=1. $END
  3.09952E+05  1.04849E+02  3.37899E+05  2.51215E+05  8.42981E+04  3.38722E+05 -1.33089E+05  2.51776E+05
 -1.90639E+05  8.41677E+04 -1.12839E+05 -3.23731E+04  1.36677E+02 -5.07566E+04  5.35795E+04 -7.37692E+02
  3.56870E+04  5.28266E+04 -1.63130E+04  7.60882E+04 -6.15859E+04  6.47738E+04 -8.58749E+04  3.29763E+04
 -8.23274E+04 -1.22658E+04 -5.83010E+04 -5.26210E+04 -1.53303E+04 -7.10566E+04  2.88216E+04 -4.70491E+04
  4.13254E+04  3.51559E+03  1.71575E+04  4.91407E+04 -3.48347E+04  4.83854E+04 -6.83541E+04  6.88058E+02
 -5.55371E+04 -5.76396E+04 -7.25854E+03 -7.99039E+04  3.51721E+04 -5.70742E+04  5.04853E+04 -1.87780E+04
  4.60011E+04  1.17794E+04  3.33896E+04  2.69520E+04  1.57999E+04  3.09910E+04 -6.24984E+03  2.78294E+04
 -2.24986E+04  1.21115E+04 -1.78327E+04 -6.37920E+03  7.64193E+03 -6.91268E+03  2.37886E+04  1.37365E+04
  7.45513E+03  3.78703E+04 -3.50247E+04  3.72125E+04 -6.63996E+04  2.05451E+03 -5.90791E+04 -4.48335E+04
 -1.28876E+04 -6.64125E+04  4.19396E+04 -4.77008E+04  6.20026E+04 -2.42452E+03  3.71123E+04  3.48939E+04
 -5.68597E+03  3.97462E+04 -3.22764E+04  1.87735E+04 -3.43038E+04 -3.80626E+03 -1.98387E+04 -1.22862E+04
 -9.39371E+03 -1.56032E+04 -3.71660E+02 -1.98313E+04  8.83956E+03 -2.35577E+04  1.62222E+04 -1.25182E+04
  1.05564E+04  6.62100E+03 -1.10571E+04  1.32394E+04 -2.38303E+04 -7.04256E+03 -8.69387E+03 -3.84198E+04
  2.52294E+04 -4.78362E+04  5.28152E+04 -2.10489E+04  4.94093E+04  2.14127E+04  1.79991E+04  4.79027E+04
 -1.68125E+04  3.70710E+04 -2.84300E+04  2.61080E+03 -1.20527E+04 -3.00633E+04  2.18474E+04 -3.81180E+04
  4.57290E+04 -1.13807E+04  4.17524E+04  2.52614E+04  2.23504E+04  5.17408E+04 -8.32841E+03  5.74775E+04
 -3.60945E+04  4.00677E+04 -4.88244E+04  1.12989E+04 -4.85986E+04 -1.91435E+04 -2.70028E+04 -4.29307E+04
  7.90994E+03 -4.31024E+04  3.51787E+04 -1.78611E+04  3.25368E+04  1.15175E+04  5.67541E+03  2.14764E+04
 -1.39331E+04  1.04117E+04 -1.14328E+04 -7.60807E+03  5.89858E+03 -1.16732E+04  1.90546E+04  5.58844E+03
  1.55253E+04  2.25629E+04 -5.19160E+03  2.75366E+04 -2.35468E+04  1.53113E+04 -3.34823E+04 -2.50294E+03
 -2.71528E+04 -1.87748E+04 -1.28422E+04 -2.55133E+04  4.17353E+03 -2.74062E+04  2.09649E+04 -2.45315E+04
  3.39546E+04 -1.46120E+04  3.90855E+04  5.21975E+03  2.82608E+04  2.54556E+04  4.09961E+03  4.23166E+04
 -2.04211E+04  3.48075E+04 -3.13919E+04  1.21968E+04 -2.26535E+04 -9.76385E+03 -4.72918E+03 -1.28860E+04
  9.49509E+02 -7.21565E+02 -8.20463E+03  8.75069E+03 -2.10033E+04  5.35243E+03 -2.11634E+04 -1.05843E+04
 -1.20980E+04 -2.45461E+04  6.49398E+03 -2.92670E+04  1.93951E+04 -2.08052E+04  2.38372E+04 -1.64418E+03
  1.54620E+04  1.68621E+04 -1.84814E+03  2.43598E+04 -1.76334E+04  1.42950E+04 -2.48192E+04 -5.42939E+03
 -1.85001E+04 -2.17197E+04 -2.58092E+03 -2.90955E+04  1.36399E+04 -2.45114E+04  2.47268E+04 -1.24114E+04
  2.31732E+04 -6.79483E+02  1.68965E+04  5.63959E+03  9.51200E+03  1.66763E+03  1.26664E+04 -2.44361E+03
  2.32593E+04  2.89894E+03  2.76368E+04  1.92722E+04  1.91255E+04  3.98529E+04 -2.57928E+03  4.69037E+04
 -2.69584E+04  4.00751E+04 -4.48526E+04  2.07972E+04 -4.78920E+04 -3.42220E+03 -3.90612E+04 -2.84353E+04
 -1.51085E+04 -4.03089E+04  1.43880E+04 -3.50532E+04  2.95367E+04 -1.56570E+04  2.54583E+04  8.43450E+03
  8.49848E+03  2.03467E+04 -1.20442E+04  1.66231E+04 -2.11863E+04  2.89422E+03 -1.64978E+04 -1.33120E+04
 -9.02363E+02 -2.10070E+04  1.11153E+04 -1.51313E+04  1.40538E+04 -1.42690E+03  3.78744E+03  9.31532E+03
 -9.19834E+03  4.56897E+03 -9.98653E+03 -7.81773E+03 -2.45461E+03 -1.96713E+04  1.23055E+04 -2.14269E+04
  2.45400E+04 -1.24827E+04  2.82744E+04  3.15310E+03  2.51882E+04  2.00131E+04  1.17518E+04  3.18127E+04
 -6.85810E+03  3.36163E+04 -2.25919E+04  2.08481E+04 -2.47408E+04  4.17966E+03 -1.69088E+04 -6.17872E+03
 -6.93306E+03 -8.15669E+03 -9.61790E+02  1.98926E+02 -2.57669E+03  4.05184E+03 -7.96443E+03  5.76371E+03
 -1.51356E+04 -7.95882E+02 -1.58018E+04 -1.28279E+04 -6.90792E+03 -2.10802E+04  6.69013E+03 -1.74248E+04
  1.41594E+04 -7.31563E+03  9.71920E+03  4.51050E+03 -1.25338E+03  6.58478E+03 -8.76814E+03 -1.81429E+02
 -8.09302E+03 -1.08757E+04 -1.01683E+03 -1.75700E+04  9.99189E+03 -1.83930E+04  2.18692E+04 -9.99450E+03
  2.57859E+04  2.69108E+03  1.85493E+04  1.60685E+04  3.40464E+03  2.12550E+04 -1.07348E+04  1.67626E+04
 -1.37712E+04  4.74926E+03 -7.36225E+03 -3.65043E+03  2.32732E+03 -4.51878E+03  8.89889E+03 -8.47007E+02
  8.53859E+03  7.62877E+03  1.17805E+03  1.34562E+04 -1.03427E+04  1.35872E+04 -1.71878E+04  3.39329E+03
 -1.22944E+04 -9.29970E+03  4.63893E+02 -1.48141E+04  1.04090E+04 -7.82607E+03  1.07397E+04  4.22279E+03
  2.62064E+03  1.16128E+04 -9.30321E+03  1.30119E+04 -1.56535E+04  5.73289E+03 -1.61107E+04 -5.51630E+03
 -8.88015E+03 -1.81647E+04  4.24446E+03 -2.09407E+04  1.67234E+04 -1.23527E+04  1.93143E+04  3.38491E+03
  1.05842E+04  1.51641E+04 -1.92780E+03  1.75873E+04 -1.27628E+04  9.64724E+03 -1.44863E+04 -1.57248E+03
 -1.16896E+04 -1.15023E+04 -1.62418E+03 -1.34872E+04  7.38037E+03 -1.07168E+04  8.50371E+03 -3.62716E+03
  5.62516E+03  2.67880E+03 -9.33143E+02  2.31160E+03 -1.30175E+03 -3.98032E+03  3.21889E+03 -8.56134E+03
  1.34993E+04 -6.14655E+03  1.86404E+04  2.05956E+03  1.82389E+04  1.29453E+04  1.09725E+04  2.38476E+04
 -5.44419E+03  2.75566E+04 -2.29742E+04  2.03243E+04 -2.92085E+04  4.27400E+03 -2.39029E+04 -1.09894E+04
 -1.18915E+04 -1.91916E+04 -6.99862E+02 -1.70426E+04  5.89893E+03 -9.69160E+03  5.89162E+03 -6.04153E+03
  4.69623E+03 -3.67600E+03  4.92751E+03 -4.33353E+03  6.81702E+03 -4.34539E+03  9.46142E+03 -1.83469E+03
  1.25725E+04  2.58609E+03  7.63582E+03  1.11411E+04 -2.47577E+03  1.36029E+04 -1.32034E+04  9.75794E+03
 -1.69137E+04 -1.51908E+03 -1.16717E+04 -1.21328E+04 -1.69923E+03 -1.86558E+04  1.00069E+04 -1.85087E+04
  1.93073E+04 -9.68191E+03  2.27283E+04  3.28290E+03  1.56858E+04  1.63916E+04  2.46478E+03  2.05645E+04
 -8.68277E+03  1.66875E+04 -1.21635E+04  5.85264E+03 -8.76022E+03 -2.11682E+03 -3.36693E+03 -2.46877E+03
 -1.89567E+03 -6.53807E+02 -2.72274E+03  3.50902E+03 -7.21205E+03  2.87855E+03 -1.21965E+04 -2.04343E+03
 -8.76053E+03 -1.16980E+04 -7.82563E+00 -1.75302E+04  1.06739E+04 -1.59766E+04  1.74311E+04 -5.00323E+03
  1.74996E+04  8.02262E+03  8.12551E+03  1.56777E+04 -3.56321E+03  1.74795E+04 -1.23146E+04  1.10473E+04
 -1.64276E+04  4.57892E+02 -1.23120E+04 -1.06394E+04 -1.44775E+03 -1.45501E+04  7.72095E+03 -1.12855E+04
  1.12084E+04 -3.30038E+03  7.82743E+03  3.20498E+03  2.68159E+03  5.14731E+03  1.61193E+03  2.15622E+03
  3.05538E+03  1.17895E+03  4.42347E+03  2.05444E+03  5.56574E+03  5.67352E+03  4.51228E+03  1.00552E+04
 -3.46047E+03  1.45487E+04 -1.28063E+04  1.38180E+04 -1.89673E+04  3.39579E+03 -1.89441E+04 -7.90073E+03
 -9.60539E+03 -1.82265E+04  2.64440E+03 -2.02312E+04  1.12596E+04 -1.32732E+04  1.50957E+04 -3.23141E+03
  1.18639E+04  6.58188E+03  2.86592E+03  1.07849E+04 -4.98505E+03  7.02872E+03 -7.70422E+03 -6.42271E+02
 -3.40228E+03 -7.82993E+03  4.42004E+03 -8.19427E+03  7.78224E+03 -4.14476E+03  8.01618E+03  1.48313E+03
  4.43836E+03  4.00459E+03  1.34235E+03  3.06819E+03 -1.15786E+03  3.32110E+03  1.76869E+03 -5.63461E+02
  2.85102E+03 -1.07116E+03  7.43604E+03  2.99402E+03  4.38383E+03  9.84347E+03 -1.21631E+03  1.31263E+04
 -9.13540E+03  9.09188E+03 -1.18944E+04  2.24566E+03 -1.08280E+04 -4.14925E+03 -4.51231E+03 -7.85969E+03
  7.97738E+02 -7.42575E+03  4.72450E+03 -3.60241E+03  3.83014E+03  3.39758E+03 -1.52413E+03  6.40348E+03
 -7.82612E+03  3.70051E+03 -8.61225E+03 -4.11495E+03 -5.67983E+03 -1.00139E+04  1.67047E+03 -1.07448E+04
  6.19816E+03 -6.51896E+03  7.85423E+03 -1.20019E+03  5.81940E+03  2.87977E+03  6.77664E+02  5.40520E+03
 -3.53565E+03  1.92907E+03 -4.95894E+03 -3.51630E+03  1.95463E+03 -8.12521E+03  9.16545E+03 -6.93094E+03
  1.25238E+04  1.02757E+03  1.13341E+04  8.31249E+03  3.48911E+03  1.29555E+04 -4.91484E+03  1.24641E+04
 -1.05981E+04  5.57528E+03 -1.09626E+04 -2.02023E+03 -5.76482E+03 -8.48047E+03  2.24097E+03 -7.61459E+03
  7.71024E+03 -3.71772E+03  7.03450E+03  3.67277E+03  2.83854E+03  6.76324E+03 -1.67835E+03  6.25087E+03
 -3.65791E+03  3.27570E+03 -3.46184E+03  1.25578E+03 -1.37600E+03  1.49996E+03 -1.62147E+03  3.04382E+03
 -2.90837E+03  4.67610E+03 -8.65973E+03  5.06605E+03 -1.31949E+04  1.02097E+02 -1.43874E+04 -8.27093E+03
 -7.54532E+03 -1.70995E+04  3.43236E+03 -1.99183E+04  1.30310E+04 -1.49541E+04  1.91544E+04 -6.31324E+03
  1.78734E+04  3.97140E+03  1.10077E+04  1.24645E+04  1.65335E+03  1.41042E+04 -5.22289E+03  1.00216E+04
 -7.20397E+03  3.56261E+03 -4.94770E+03 -1.21366E+03 -1.50811E+03 -1.38317E+03 -9.78887E+02 -2.50525E+02
 -2.31998E+03  1.00186E+03 -2.61619E+03 -7.04857E+02 -1.16016E+03 -3.31641E+03  6.38900E+02 -4.89314E+03
  5.72451E+03 -4.48016E+03  8.95147E+03 -1.85637E+02  9.85305E+03  7.58798E+03  2.92769E+03  1.34772E+04
 -6.29930E+03  1.54388E+04 -1.48219E+04  9.09197E+03 -1.69015E+04 -1.37352E+03 -1.25797E+04 -1.05226E+04
 -5.12528E+03 -1.40915E+04  3.85783E+03 -1.33037E+04  9.01456E+03 -6.99325E+03  9.27391E+03  6.26316E+02
  4.96066E+03  3.98712E+03 -1.02839E+02  4.18649E+03 -2.72558E+03 -2.55557E+02 -1.65779E+01 -3.08600E+03
  4.44246E+03 -1.97760E+03  5.78588E+03  1.62249E+03  3.88818E+03  5.44781E+03 -2.01146E+02  7.43964E+03
 -6.16773E+03  6.47622E+03 -9.60865E+03  7.72267E+02 -8.94105E+03 -6.71355E+03 -1.27857E+03 -1.23177E+04
  6.84078E+03 -9.96127E+03  1.09401E+04 -3.29548E+03  1.09783E+04  3.54059E+03  6.36020E+03  8.85180E+03
  1.01424E+03  9.68529E+03 -3.59238E+03  7.97410E+03 -6.21642E+03  4.24463E+03 -5.33241E+03  2.50622E+02
 -2.98024E+03  1.94708E+02 -2.63787E+03  1.16936E+03 -4.94791E+03  1.45638E+03 -7.76722E+03 -1.60080E+03
 -6.75680E+03 -5.51361E+03 -2.36431E+03 -9.60399E+03  4.11643E+03 -1.04659E+04  8.37618E+03 -5.55831E+03
  9.46378E+03  1.21469E+03  5.69761E+03  7.51077E+03 -9.33255E+02  9.56911E+03 -7.46226E+03  5.95819E+03
