 $NMID ID='MM_0lb_SNR800_20hz_g40_35.RAW', FMTDAT='(8E13.5)'
 TRAMP=1., VOLUME=1. $END
  3.09900E+05  3.66839E+02  3.37215E+05  2.50313E+05  8.42009E+04  3.36820E+05 -1.32409E+05  2.49814E+05
 -1.89266E+05  8.20387E+04 -1.10348E+05 -3.29830E+04  1.64779E+03 -5.01516E+04  5.39961E+04  2.73060E+02
  3.50055E+04  5.27849E+04 -1.70860E+04  7.44050E+04 -6.02668E+04  6.23449E+04 -8.20394E+04  3.12329E+04
 -7.88132E+04 -1.10160E+04 -5.57269E+04 -4.96379E+04 -1.49864E+04 -6.74777E+04  2.61937E+04 -4.44197E+04
  3.84917E+04  4.00389E+03  1.52726E+04  4.67938E+04 -3.37175E+04  4.54835E+04 -6.44522E+04 -6.73522E+02
 -5.12959E+04 -5.53495E+04 -6.01997E+03 -7.41737E+04  3.25251E+04 -5.21891E+04  4.56869E+04 -1.56927E+04
  4.07640E+04  1.09159E+04  3.00382E+04  2.41263E+04  1.58757E+04  2.75944E+04 -4.31407E+03  2.63639E+04
 -2.13383E+04  1.30251E+04 -1.93421E+04 -3.69003E+03  3.62068E+03 -7.57927E+03  2.06183E+04  1.00415E+04
  7.64388E+03  3.21918E+04 -2.95252E+04  3.30242E+04 -5.99519E+04  2.20517E+03 -5.46234E+04 -4.04587E+04
 -1.23537E+04 -5.95553E+04  3.72880E+04 -4.21220E+04  5.37579E+04 -1.89301E+03  3.05765E+04  2.94538E+04
 -6.91806E+03  3.14618E+04 -2.75748E+04  1.20388E+04 -2.61203E+04 -5.71172E+03 -1.33191E+04 -9.28240E+03
 -7.07121E+03 -1.03521E+04 -1.28350E+03 -1.59800E+04  6.37766E+03 -2.21468E+04  1.47090E+04 -1.41529E+04
  1.27711E+04  3.80157E+03 -5.39223E+03  1.32483E+04 -1.81736E+04 -1.55811E+03 -7.66676E+03 -2.86796E+04
  1.97805E+04 -3.89165E+04  4.28678E+04 -1.81695E+04  4.06157E+04  1.78190E+04  1.36297E+04  4.05066E+04
 -1.50566E+04  2.98363E+04 -2.24151E+04  5.39596E+02 -7.57132E+03 -2.57367E+04  2.01993E+04 -2.98464E+04
  3.66340E+04 -6.09201E+03  2.92978E+04  2.23099E+04  1.40997E+04  4.08108E+04 -7.52581E+03  4.29698E+04
 -2.67423E+04  2.81186E+04 -3.53235E+04  7.55923E+03 -3.61401E+04 -1.41791E+04 -2.03441E+04 -3.28408E+04
  6.57546E+03 -3.22217E+04  2.83879E+04 -1.16225E+04  2.57592E+04  1.06045E+04  2.43546E+03  1.70828E+04
 -1.29028E+04  6.78669E+03 -9.24038E+03 -7.72137E+03  5.92497E+03 -9.82131E+03  1.69000E+04  6.87340E+03
  1.17902E+04  2.10968E+04 -6.71604E+03  2.24768E+04 -2.10238E+04  8.22268E+03 -2.39965E+04 -7.16929E+03
 -1.45943E+04 -1.59457E+04 -4.36766E+03 -1.53157E+04  3.70624E+03 -1.25131E+04  1.09071E+04 -1.25843E+04
  1.89985E+04 -1.11651E+04  2.62908E+04  4.08305E+02  2.03003E+04  1.49112E+04  4.28444E+03  3.07498E+04
 -1.53027E+04  2.64725E+04 -2.51910E+04  9.10125E+03 -1.91832E+04 -1.03701E+04 -3.62604E+03 -1.43176E+04
  3.21891E+03 -4.71773E+03 -1.82458E+03  5.20565E+03 -1.18145E+04  5.20168E+03 -1.21333E+04 -3.91277E+03
 -8.00428E+03 -1.42147E+04  4.38097E+03 -1.76460E+04  1.13339E+04 -1.29786E+04  1.32905E+04 -1.35820E+03
  8.09329E+03  9.80007E+03 -8.81267E+02  1.42592E+04 -9.49916E+03  7.99424E+03 -1.36591E+04 -3.24483E+03
 -1.05094E+04 -1.28359E+04 -1.27867E+03 -1.72790E+04  7.78266E+03 -1.39557E+04  1.49669E+04 -6.36804E+03
  1.32753E+04  7.93963E+02  9.28183E+03  3.49141E+03  4.48837E+03  3.77466E+02  6.87671E+03 -1.33370E+03
  1.25279E+04  2.81583E+03  1.29965E+04  1.19255E+04  7.75882E+03  2.25940E+04 -3.09952E+03  2.33806E+04
 -1.40503E+04  1.75029E+04 -2.13800E+04  8.04487E+03 -2.18832E+04 -1.55013E+03 -1.86570E+04 -1.20090E+04
 -9.44712E+03 -1.74574E+04  5.52361E+03 -1.64721E+04  1.48172E+04 -9.70839E+03  1.41980E+04  3.05517E+03
  6.29705E+03  9.65578E+03 -6.53806E+03  9.58197E+03 -1.24061E+04  2.60174E+03 -9.15303E+03 -7.09221E+03
 -1.97846E+02 -1.13147E+04  5.20543E+03 -8.88787E+03  7.20239E+03 -1.13024E+03  9.35787E+02  4.33652E+03
 -4.92512E+03  9.06845E+02 -2.79097E+03 -4.40921E+03  1.00084E+03 -8.82513E+03  7.11469E+03 -8.47566E+03
  1.04994E+04 -3.49633E+03  9.51271E+03  2.64223E+03  8.31818E+03  8.02235E+03  4.15049E+03  1.15808E+04
 -1.00854E+03  1.35222E+04 -8.12733E+03  8.65153E+03 -9.40529E+03  2.80355E+03 -7.37468E+03 -1.41328E+03
 -4.38444E+03 -2.59380E+03 -8.09542E+02  1.60363E+03 -1.68446E+03  1.65311E+03 -2.91174E+03  3.45302E+03
 -7.02296E+03 -4.35932E+02 -7.88397E+03 -6.61132E+03 -2.96917E+03 -1.04189E+04  3.19467E+03 -7.41739E+03
  6.36861E+03 -3.27201E+03  4.89827E+03  1.78644E+03  8.00072E+02  2.58792E+03 -2.74756E+03 -6.04743E+01
 -2.56576E+03 -4.42171E+03 -4.60620E+02 -5.89067E+03  3.14901E+03 -7.07629E+03  8.64735E+03 -3.23802E+03
  1.00138E+04  5.92754E+02  7.61128E+03  4.96672E+03  1.42175E+03  7.12197E+03 -4.74810E+03  7.34633E+03
 -6.05425E+03  2.52516E+03 -3.21260E+03 -9.10425E+02  1.12381E+03 -1.67036E+03  4.41573E+03 -9.26888E+02
  3.88081E+03  3.07260E+03  9.30785E+02  5.45718E+03 -3.77773E+03  5.46980E+03 -6.92892E+03  1.60611E+03
 -4.02822E+03 -3.12191E+03  3.05066E+02 -5.76903E+03  3.41843E+03 -2.63499E+03  2.75565E+03  6.78416E+02
  2.87162E+02  2.55373E+03 -3.49907E+03  3.98997E+03 -3.78072E+03  2.03978E+03 -3.06620E+03 -4.55762E+02
 -2.27104E+03 -4.75990E+03  7.18554E+02 -5.52634E+03  4.80547E+03 -3.83148E+03  4.99561E+03  8.63441E+02
  3.69836E+03  4.42723E+03  3.34121E+02  6.09287E+03 -4.37555E+03  3.54740E+03 -4.61563E+03 -3.81668E+02
 -5.32692E+03 -4.44158E+03 -1.33884E+03 -4.31517E+03  2.39685E+03 -4.07451E+03  2.26449E+03 -2.66966E+03
  2.60631E+03 -4.96860E+01  2.52904E+02  1.24591E+03  7.31633E+02  2.04277E+02 -3.57720E+02 -1.06257E+03
  3.19403E+03 -2.79624E+02  3.87254E+03  6.29178E+02  4.36710E+03  2.30085E+03  4.62364E+03  5.81760E+03
 -9.33097E+02  6.63198E+03 -6.20427E+03  5.20942E+03 -8.24902E+03  9.69626E+02 -6.32400E+03 -1.71199E+03
 -3.54765E+03 -5.31881E+03 -4.40670E+02 -4.38976E+03  1.71472E+03 -1.45231E+03  1.41329E+03 -1.79493E+03
  1.09442E+03 -1.64648E+03  2.19608E+03 -2.06371E+03  3.36644E+03 -1.01804E+03  3.12762E+03  5.66941E+02
  3.84397E+03  9.03447E+02  7.33988E+02  2.90449E+03 -1.50727E+03  1.77695E+03 -3.46204E+03  2.35154E+03
 -3.99825E+03 -9.61153E+02 -9.07127E+02 -2.64937E+03  7.34238E+02 -3.86935E+03  2.70602E+03 -4.50856E+03
  4.03509E+03 -2.73828E+03  5.60543E+03  9.33043E+01  4.26410E+03  3.07224E+03  1.10771E+03  4.86715E+03
 -1.66548E+03  5.06545E+03 -2.48256E+03  1.53854E+03 -1.46744E+03 -9.70093E+02 -3.99836E+02 -6.78299E+02
 -4.83913E+02  2.26698E+02 -5.84088E+02  1.91106E+03 -2.00341E+03  9.31123E+02 -3.52553E+03 -5.04582E+02
 -9.06412E+02 -3.47974E+03  8.80936E+02 -3.61735E+03  2.00782E+03 -3.63571E+03  2.57682E+03 -8.81412E+02
  2.98267E+03  2.18235E+03  1.14170E+03  2.42332E+03 -4.84761E+02  3.56950E+03 -1.83602E+03  1.91489E+03
 -3.10033E+03  5.35102E+02 -2.72350E+03 -1.73615E+03 -2.82258E+02 -2.33302E+03  1.01722E+03 -1.82093E+03
  2.15197E+03 -1.30541E+03  1.18598E+03  3.97707E+01  1.39257E+02  1.44470E+03  7.71196E+02  2.45170E+02
  1.70912E+03  4.67678E+02  1.23357E+03  8.97719E+02  8.96079E+02  1.98870E+03  1.30448E+03  8.86143E+02
 -1.00191E+03  2.22306E+03 -1.78573E+03  3.39044E+03 -2.12281E+03  1.29263E+03 -3.17812E+03 -1.77429E+02
 -1.22326E+03 -2.60963E+03  3.68492E+02 -3.85297E+03  1.31755E+03 -1.97824E+03  2.46545E+03 -7.24381E+02
  1.84866E+03  1.32468E+03  2.20338E+02  1.75755E+03 -6.09680E+02  7.24783E+02 -5.15133E+02 -8.06020E+01
 -3.21585E+02 -1.34294E+03  9.14260E+02 -1.32464E+03  8.11864E+02 -1.11946E+03  1.08282E+03  3.34178E+02
  5.20508E+02 -6.86570E+00  9.68302E+02 -7.27922E+02 -4.33323E+02  4.29462E+02  1.66200E+03 -2.84235E+02
 -1.59288E+02 -3.10681E+02  1.42502E+03  6.10013E+02  3.21762E+02  1.89116E+03 -2.53577E+02  2.28231E+03
 -1.42980E+03  5.71201E+02 -1.76727E+03  7.40284E+01 -1.87517E+03 -4.86931E+02  1.76099E+02 -8.84599E+02
  4.36326E+02 -1.21905E+03  4.27787E+02 -5.06879E+02  3.99311E+02  1.08966E+03 -6.22426E+02  7.99578E+02
 -1.42171E+03  4.69231E+02 -7.34474E+02 -1.32558E+03 -3.33089E+02 -2.12003E+03  2.60286E+02 -1.19774E+03
  4.64377E+02 -1.06884E+02  3.32312E+02 -6.00271E+01  1.15353E+03 -2.73577E+02  2.16372E+02  8.63836E+02
 -2.05560E+02 -9.09074E+01 -9.41353E+02 -8.41941E-01  5.96212E+02 -3.54567E+02  1.35053E+03 -4.41596E+02
  8.75998E+02  2.23245E+02  2.36791E+03  3.47523E+02  9.70180E+02  1.14788E+03 -1.92021E+02  1.46088E+03
 -1.08264E+03 -2.95336E+02 -1.17977E+03 -1.47792E+02 -7.26320E+02 -9.29040E+02  3.85065E+02  1.23292E+02
  1.21739E+03 -5.73981E+02  6.14241E+02  3.80197E+02  2.04662E+02  9.38676E+02  3.65031E+02  7.92631E+02
 -2.27791E+02  9.27580E+02 -6.41658E+02 -2.71675E+02  1.46508E+02  3.71671E+02 -8.30852E+02  3.48889E+02
 -3.50306E+02  8.28026E+02 -1.33591E+03  5.35981E+02 -1.31662E+03  1.15960E+02 -1.86989E+03 -7.14430E+02
 -1.12096E+03 -1.53517E+03  2.75417E+02 -2.24159E+03  7.55751E+02 -1.94153E+03  2.36371E+03 -7.25995E+02
  1.79625E+03 -7.01532E+01  9.51617E+02  1.13680E+03 -3.82904E+02  7.61652E+02 -5.68055E+02  7.76825E+02
 -4.14846E+02  6.39215E+02 -3.37779E+02 -2.89786E+02 -5.02138E+02  1.71337E+02 -7.02212E+02  1.64433E+02
 -8.99432E+02  4.83724E+01 -1.00925E+03  1.31360E+02  3.81534E+02 -4.12789E+02 -2.94231E+02 -6.28249E+02
  9.04602E+02 -3.26872E+02  1.67864E+02  1.75131E+02  1.00675E+03  6.21544E+02 -5.07871E+02  1.08143E+03
 -7.65857E+02  1.76032E+03 -1.35492E+03  9.82566E+02 -1.28473E+03 -1.55302E+02 -9.57698E+02 -1.02623E+03
 -6.95049E+02 -9.89462E+02  7.91845E+00 -6.13109E+02  1.56059E+02 -1.60782E+02  5.45444E+02  5.74870E+01
  7.05757E+02  2.14646E+02  3.40153E+02  1.82583E+02 -2.14294E+02 -6.79228E+01 -2.15998E+01 -1.08323E+02
  2.60589E+02  4.02781E+02  2.18904E+02  5.43865E+02 -2.22508E+02  2.59928E+02  3.28634E+02  2.92745E+01
 -6.52393E+02  5.74404E+02 -2.81441E+02  2.55058E+02 -6.25489E+02 -2.31009E+02  2.66767E+02 -9.01469E+02
  3.52904E+02 -6.96048E+02  2.70841E+02  2.38952E+01  5.45574E+02 -6.65436E+02  5.83953E+02  6.26457E+02
  3.47945E+02  2.73347E+02 -3.19647E+02  5.29754E+02 -3.68881E+02  5.80514E+02 -2.86882E+02  1.53865E+02
  1.29659E+02 -2.47318E+02 -3.30123E+02  2.50538E+02 -5.04317E+02 -5.73170E+01 -6.36906E+02  8.18325E+01
 -9.44770E+02  4.94154E+00 -2.97126E+02 -7.43440E+02  7.07609E+02 -1.29174E+03  8.56414E+02 -2.05803E+02
  3.51802E+02  1.09316E+02 -4.25786E+02 -6.25143E+01  1.82273E+02  6.17564E+02 -1.84244E+02  4.27087E+02
