 $NMID ID='MM_0lb_SNR800_12hz_g60_65.RAW', FMTDAT='(8E13.5)'
 TRAMP=1., VOLUME=1. $END
  3.09921E+05  3.75454E+02  3.37549E+05  2.50922E+05  8.48865E+04  3.38516E+05 -1.32803E+05  2.51561E+05
 -1.91035E+05  8.37066E+04 -1.12213E+05 -3.18216E+04  4.23459E+02 -5.04812E+04  5.39656E+04 -4.39045E+02
  3.53198E+04  5.28363E+04 -1.65784E+04  7.62034E+04 -6.12929E+04  6.40223E+04 -8.50608E+04  3.26022E+04
 -8.20251E+04 -1.18960E+04 -5.78459E+04 -5.21291E+04 -1.52364E+04 -7.06485E+04  2.79604E+04 -4.64216E+04
  4.10152E+04  3.90997E+03  1.66954E+04  4.82962E+04 -3.46738E+04  4.78109E+04 -6.79421E+04  1.55996E+01
 -5.44669E+04 -5.76986E+04 -7.00085E+03 -7.85515E+04  3.44946E+04 -5.64011E+04  4.93415E+04 -1.77460E+04
  4.48131E+04  1.15354E+04  3.25587E+04  2.64715E+04  1.60185E+04  2.99936E+04 -5.87092E+03  2.79254E+04
 -2.23662E+04  1.19734E+04 -1.80764E+04 -5.74122E+03  6.63262E+03 -7.77150E+03  2.33718E+04  1.36785E+04
  7.12801E+03  3.73658E+04 -3.33589E+04  3.64702E+04 -6.52902E+04  2.23882E+03 -5.81782E+04 -4.43770E+04
 -1.26641E+04 -6.49854E+04  4.09418E+04 -4.72190E+04  6.03996E+04 -2.45244E+03  3.61011E+04  3.36954E+04
 -5.67353E+03  3.86076E+04 -3.11097E+04  1.78243E+04 -3.24281E+04 -4.05346E+03 -1.82459E+04 -1.19058E+04
 -9.23330E+03 -1.46783E+04 -5.96040E+02 -1.93538E+04  8.43539E+03 -2.32466E+04  1.56656E+04 -1.27039E+04
  1.09980E+04  6.03978E+03 -9.79641E+03  1.29902E+04 -2.30293E+04 -6.05004E+03 -8.36033E+03 -3.64619E+04
  2.45461E+04 -4.57002E+04  5.09826E+04 -2.02261E+04  4.77577E+04  2.01919E+04  1.69293E+04  4.61880E+04
 -1.67666E+04  3.53668E+04 -2.69796E+04  2.24183E+03 -1.08741E+04 -2.92653E+04  2.14969E+04 -3.60085E+04
  4.35783E+04 -1.02374E+04  3.93997E+04  2.44071E+04  2.02686E+04  4.95891E+04 -8.13900E+03  5.40193E+04
 -3.42784E+04  3.69515E+04 -4.54303E+04  1.03284E+04 -4.57670E+04 -1.82972E+04 -2.52275E+04 -4.04817E+04
  7.88833E+03 -4.07302E+04  3.36810E+04 -1.62035E+04  3.11943E+04  1.12716E+04  4.78141E+03  2.05933E+04
 -1.37278E+04  9.28495E+03 -1.11008E+04 -7.61292E+03  5.69732E+03 -1.13048E+04  1.87972E+04  5.78459E+03
  1.42156E+04  2.23444E+04 -5.58288E+03  2.65182E+04 -2.30646E+04  1.35916E+04 -3.03392E+04 -3.99955E+03
 -2.36129E+04 -1.76650E+04 -1.06385E+04 -2.31811E+04  4.12824E+03 -2.34522E+04  1.83064E+04 -2.13765E+04
  3.02362E+04 -1.39005E+04  3.61887E+04  4.03469E+03  2.59838E+04  2.28219E+04  4.34278E+03  3.97960E+04
 -1.91091E+04  3.21601E+04 -2.96923E+04  1.11805E+04 -2.17520E+04 -9.83195E+03 -4.76419E+03 -1.33194E+04
  1.15401E+03 -2.11371E+03 -6.63333E+03  7.65057E+03 -1.85323E+04  5.12122E+03 -1.92499E+04 -8.40218E+03
 -1.13157E+04 -2.18939E+04  5.66599E+03 -2.58923E+04  1.73650E+04 -1.87222E+04  2.08799E+04 -1.83950E+03
  1.32657E+04  1.50646E+04 -7.04478E+02  2.17724E+04 -1.53904E+04  1.23429E+04 -2.21173E+04 -4.92129E+03
 -1.59157E+04 -1.98344E+04 -2.24307E+03 -2.63575E+04  1.21170E+04 -2.15671E+04  2.12460E+04 -1.12327E+04
  2.04064E+04  9.80431E+01  1.48634E+04  4.94189E+03  8.29838E+03  1.54187E+03  1.12983E+04 -1.85269E+03
  2.03832E+04  2.47645E+03  2.31572E+04  1.71871E+04  1.54850E+04  3.47767E+04 -2.62983E+03  4.04419E+04
 -2.33869E+04  3.33711E+04 -3.80311E+04  1.71015E+04 -4.08509E+04 -2.58718E+03 -3.30310E+04 -2.36774E+04
 -1.34882E+04 -3.31512E+04  1.17889E+04 -2.96271E+04  2.53724E+04 -1.43288E+04  2.24799E+04  6.87264E+03
  7.66804E+03  1.68811E+04 -1.04838E+04  1.44612E+04 -1.87887E+04  2.38087E+03 -1.43167E+04 -1.16435E+04
 -2.76819E+02 -1.75553E+04  9.56863E+03 -1.32752E+04  1.23109E+04 -1.23028E+03  3.21694E+03  7.89331E+03
 -7.87180E+03  3.42425E+03 -7.96422E+03 -6.31746E+03 -1.21061E+03 -1.64032E+04  1.12179E+04 -1.77901E+04
  2.03287E+04 -9.06122E+03  2.28235E+04  2.84389E+03  1.95482E+04  1.63513E+04  8.98535E+03  2.55189E+04
 -4.60435E+03  2.74278E+04 -1.77281E+04  1.72122E+04 -1.96405E+04  3.91848E+03 -1.35087E+04 -4.81018E+03
 -5.91014E+03 -5.90775E+03 -6.62237E+02  7.38498E+02 -2.86812E+03  2.86803E+03 -6.41841E+03  4.85050E+03
 -1.26938E+04 -7.33796E+02 -1.35835E+04 -1.10434E+04 -5.35525E+03 -1.74863E+04  5.56822E+03 -1.41216E+04
  1.13205E+04 -5.88506E+03  8.17352E+03  3.85796E+03  3.02186E+02  5.18949E+03 -6.78854E+03 -2.50115E+02
 -6.22816E+03 -8.88121E+03 -9.67893E+02 -1.33771E+04  7.89121E+03 -1.39702E+04  1.73455E+04 -7.49169E+03
  2.02421E+04  2.18856E+03  1.49126E+04  1.25055E+04  3.09970E+03  1.62699E+04 -8.50785E+03  1.35315E+04
 -1.13891E+04  4.14816E+03 -5.55163E+03 -3.04164E+03  2.17990E+03 -3.59318E+03  7.08926E+03 -1.14624E+03
  6.62534E+03  5.91487E+03  1.39346E+03  1.07797E+04 -7.71531E+03  1.02789E+04 -1.34344E+04  2.63196E+03
 -9.08144E+03 -6.92481E+03  1.17750E+02 -1.15936E+04  7.50283E+03 -6.21580E+03  7.66659E+03  2.32361E+03
  1.66428E+03  8.44286E+03 -7.07265E+03  9.82829E+03 -1.11793E+04  4.19949E+03 -1.17804E+04 -3.85566E+03
 -6.75653E+03 -1.29922E+04  3.32296E+03 -1.51079E+04  1.28164E+04 -9.21849E+03  1.38746E+04  2.18072E+03
  8.31694E+03  1.09665E+04 -9.89057E+02  1.34921E+04 -9.61596E+03  7.57734E+03 -1.06801E+04 -7.84871E+02
 -9.27657E+03 -9.01038E+03 -1.58279E+03 -1.00345E+04  5.08437E+03 -8.16483E+03  6.20647E+03 -3.67597E+03
  4.43530E+03  1.44104E+03 -1.01271E+03  1.95613E+03 -3.77281E+02 -2.45472E+03  1.61983E+03 -6.21468E+03
  8.87607E+03 -3.66695E+03  1.26466E+04  1.40975E+03  1.24745E+04  8.46052E+03  8.37819E+03  1.71388E+04
 -3.70917E+03  1.93546E+04 -1.60664E+04  1.41330E+04 -2.11838E+04  2.92670E+03 -1.68807E+04 -7.09869E+03
 -8.67391E+03 -1.37678E+04 -4.69488E+02 -1.21064E+04  3.89738E+03 -6.44882E+03  4.01005E+03 -4.31075E+03
  2.99919E+03 -2.34595E+03  3.45020E+03 -3.35455E+03  5.14335E+03 -2.96380E+03  6.83749E+03 -7.79883E+02
  8.85582E+03  2.22475E+03  4.63162E+03  7.56651E+03 -2.18209E+03  8.79180E+03 -9.09264E+03  6.77043E+03
 -1.17277E+04 -1.05377E+03 -6.81152E+03 -7.99547E+03 -2.53944E+02 -1.25522E+04  6.62829E+03 -1.22295E+04
  1.25775E+04 -7.10576E+03  1.56569E+04  1.79432E+03  1.03531E+04  1.06107E+04  1.85139E+03  1.38633E+04
 -5.63182E+03  1.15736E+04 -8.08670E+03  4.35042E+03 -5.45810E+03 -1.71030E+03 -2.32632E+03 -1.55362E+03
 -1.01502E+03  2.97394E+00 -1.79634E+03  2.57452E+03 -4.52634E+03  1.95593E+03 -8.17910E+03 -1.03747E+03
 -5.30329E+03 -7.93341E+03  4.17976E+02 -1.12034E+04  6.96810E+03 -1.02442E+04  1.11460E+04 -3.09949E+03
  1.08585E+04  5.36622E+03  5.23045E+03  9.88329E+03 -1.94607E+03  1.15285E+04 -7.83786E+03  7.14257E+03
 -1.05238E+04  5.48178E+02 -8.15789E+03 -6.90871E+03 -7.52307E+02 -9.31268E+03  4.97373E+03 -6.58433E+03
  7.41728E+03 -2.70631E+03  4.95185E+03  1.87441E+03  1.61952E+03  3.50143E+03  1.02930E+03  1.03086E+03
  2.44087E+03  1.14688E+03  2.94242E+03  1.72347E+03  3.39838E+03  3.86666E+03  2.73539E+03  5.77907E+03
 -2.28925E+03  8.76204E+03 -7.38971E+03  9.01659E+03 -1.10671E+04  2.47553E+03 -1.15528E+04 -4.47940E+03
 -5.62758E+03 -1.12188E+04  1.82739E+03 -1.21346E+04  6.49528E+03 -7.49916E+03  8.77521E+03 -1.72619E+03
  6.62389E+03  4.13004E+03  1.55709E+03  6.69076E+03 -3.06139E+03  3.94732E+03 -4.45618E+03 -5.85461E+02
 -2.06480E+03 -4.69999E+03  2.93719E+03 -4.83267E+03  4.30401E+03 -2.40215E+03  4.31966E+03  1.15231E+03
  2.40964E+03  2.09849E+03  1.62757E+03  1.27181E+03 -3.12486E+02  1.47873E+03  1.47655E+03 -2.23945E+02
  1.19231E+03 -8.00867E+02  4.43467E+03  1.51023E+03  2.04792E+03  6.03530E+03 -8.06110E+02  7.67009E+03
 -5.06756E+03  4.86067E+03 -6.88940E+03  1.11250E+03 -6.29386E+03 -2.44652E+03 -2.14123E+03 -3.66170E+03
  8.89576E+02 -3.98157E+03  2.95344E+03 -2.24932E+03  1.97182E+03  2.22443E+03 -1.28000E+03  3.60895E+03
 -4.38861E+03  1.98547E+03 -4.69837E+03 -2.64435E+03 -2.97626E+03 -6.08588E+03  5.29649E+02 -5.56261E+03
  3.24196E+03 -3.08568E+03  4.02550E+03 -3.78649E+02  3.77616E+03  1.32247E+03  7.24952E+02  2.86021E+03
 -1.89467E+03  1.02000E+03 -2.27585E+03 -1.61734E+03  1.02626E+03 -4.08714E+03  5.31904E+03 -3.34105E+03
  6.35964E+03  4.42835E+02  6.66053E+03  4.63147E+03  1.94400E+03  6.82408E+03 -2.05164E+03  6.41797E+03
 -5.49336E+03  2.43829E+03 -5.61797E+03 -6.99469E+02 -3.05132E+03 -4.15702E+03  1.38941E+03 -3.88700E+03
  4.11110E+03 -2.03241E+03  3.24366E+03  1.88828E+03  1.39265E+03  3.79305E+03 -6.99396E+02  3.11628E+03
 -1.78600E+03  2.52985E+03 -1.85061E+03  7.84280E+02 -4.36414E+02  7.99797E+02 -1.14791E+03  1.52550E+03
 -1.60642E+03  2.58829E+03 -4.61539E+03  2.15360E+03 -6.42584E+03  1.93185E+02 -7.36700E+03 -4.15286E+03
 -3.81716E+03 -8.43652E+03  1.69668E+03 -9.82193E+03  5.76689E+03 -7.76431E+03  9.22312E+03 -3.04308E+03
  8.94685E+03  1.51953E+03  5.13683E+03  6.04057E+03  1.94004E+02  6.68786E+03 -2.53190E+03  4.86414E+03
 -3.61269E+03  1.74671E+03 -2.31502E+03 -6.99537E+02 -7.58180E+02 -5.49676E+02 -4.13323E+02 -2.29677E+02
 -1.44071E+03 -1.02463E+02 -1.83398E+03 -1.55624E+02 -4.88953E+02 -1.63034E+03 -1.49556E+02 -2.35886E+03
  3.33998E+03 -2.07389E+03  3.68700E+03 -2.84704E+02  4.71040E+03  3.51058E+03  1.00072E+03  6.21589E+03
 -3.23883E+03  7.31935E+03 -6.35866E+03  4.37322E+03 -7.54907E+03 -5.18449E+02 -5.83774E+03 -4.96856E+03
 -2.73130E+03 -6.42503E+03  1.18547E+03 -6.19756E+03  3.65111E+03 -2.96140E+03  4.04827E+03  1.38908E+02
  2.16600E+03  1.93936E+03 -2.09093E+02  1.66640E+03 -1.12902E+03 -3.38523E+02 -2.43817E+01 -1.24766E+03
  2.08622E+03 -1.11807E+03  2.63450E+03  1.20884E+03  1.51011E+03  2.38576E+03  2.33570E+02  2.93199E+03
 -2.55142E+03  2.79295E+03 -3.43077E+03  3.19156E+02 -3.51238E+03 -2.74101E+03 -7.10714E+02 -5.27802E+03
  2.68417E+03 -4.07083E+03  4.62627E+03 -1.30989E+03  4.79542E+03  7.58271E+02  2.84396E+03  3.59380E+03
  8.91248E+02  3.98079E+03 -1.74471E+03  3.12603E+03 -2.22148E+03  1.63752E+03 -1.99881E+03  5.77392E+02
 -1.02514E+03 -5.05100E+02 -1.27469E+03  4.00369E+02 -2.13221E+03  3.86361E+02 -3.14938E+03 -6.92973E+02
 -2.86838E+03 -1.59073E+03 -1.02584E+03 -4.28452E+03  1.90391E+03 -4.42807E+03  3.49156E+03 -1.79821E+03
  3.92579E+03  2.97864E+02  2.16667E+03  2.55691E+03 -2.17812E+02  3.87235E+03 -3.14883E+03  2.94343E+03
