 $NMID ID='MM_0lb_SNR800_12hz_g40_29.RAW', FMTDAT='(8E13.5)'
 TRAMP=1., VOLUME=1. $END
  3.09912E+05  4.33027E+02  3.37355E+05  2.50593E+05  8.48424E+04  3.38093E+05 -1.32353E+05  2.51293E+05
 -1.90671E+05  8.30301E+04 -1.11731E+05 -3.24683E+04  4.86244E+02 -5.05329E+04  5.40064E+04 -1.47217E+02
  3.55079E+04  5.29068E+04 -1.66396E+04  7.53538E+04 -6.09034E+04  6.35473E+04 -8.43254E+04  3.22765E+04
 -8.14915E+04 -1.14168E+04 -5.72724E+04 -5.15164E+04 -1.48421E+04 -6.98152E+04  2.75141E+04 -4.62684E+04
  4.02411E+04  3.76228E+03  1.60399E+04  4.77190E+04 -3.39467E+04  4.73377E+04 -6.66179E+04 -4.32582E+02
 -5.37213E+04 -5.69518E+04 -6.50187E+03 -7.72674E+04  3.41175E+04 -5.51126E+04  4.81230E+04 -1.74764E+04
  4.37700E+04  1.13794E+04  3.22128E+04  2.56957E+04  1.55680E+04  2.94658E+04 -5.64592E+03  2.72267E+04
 -2.19561E+04  1.20463E+04 -1.87395E+04 -5.18076E+03  5.84725E+03 -7.60560E+03  2.22027E+04  1.25984E+04
  7.40147E+03  3.54011E+04 -3.27558E+04  3.57264E+04 -6.39391E+04  2.08809E+03 -5.75411E+04 -4.32299E+04
 -1.26526E+04 -6.39568E+04  4.01836E+04 -4.58947E+04  5.87759E+04 -2.37111E+03  3.49650E+04  3.28086E+04
 -5.99704E+03  3.69041E+04 -3.02522E+04  1.63677E+04 -3.09347E+04 -4.66737E+03 -1.68920E+04 -1.08809E+04
 -8.42496E+03 -1.31552E+04 -6.78006E+02 -1.85317E+04  7.96420E+03 -2.30626E+04  1.53797E+04 -1.29996E+04
  1.11234E+04  5.18052E+03 -8.68329E+03  1.31110E+04 -2.17379E+04 -4.78799E+03 -7.85733E+03 -3.46117E+04
  2.34248E+04 -4.41486E+04  4.89647E+04 -1.99128E+04  4.61422E+04  1.99458E+04  1.62264E+04  4.45812E+04
 -1.61212E+04  3.39056E+04 -2.57744E+04  1.98326E+03 -1.03827E+04 -2.79991E+04  2.08998E+04 -3.45616E+04
  4.15530E+04 -9.57739E+03  3.63481E+04  2.40606E+04  1.83937E+04  4.72998E+04 -7.99788E+03  5.13305E+04
 -3.21318E+04  3.46423E+04 -4.29571E+04  9.85275E+03 -4.35606E+04 -1.70379E+04 -2.40456E+04 -3.89963E+04
  7.41845E+03 -3.86408E+04  3.20777E+04 -1.52303E+04  2.98527E+04  1.13569E+04  4.11053E+03  1.94038E+04
 -1.34237E+04  8.74105E+03 -1.07513E+04 -7.62407E+03  5.83495E+03 -1.08380E+04  1.82103E+04  6.01335E+03
  1.39791E+04  2.22380E+04 -5.89043E+03  2.54947E+04 -2.23184E+04  1.22373E+04 -2.86013E+04 -4.67020E+03
 -2.13935E+04 -1.72156E+04 -9.11531E+03 -2.13675E+04  4.27760E+03 -2.09515E+04  1.65441E+04 -1.89923E+04
  2.75448E+04 -1.28146E+04  3.37363E+04  3.23449E+03  2.43534E+04  2.10397E+04  4.46174E+03  3.77220E+04
 -1.80876E+04  3.11290E+04 -2.84356E+04  1.08368E+04 -2.15203E+04 -1.05144E+04 -4.39400E+03 -1.35226E+04
  1.24693E+03 -2.67522E+03 -5.49549E+03  6.62196E+03 -1.67383E+04  5.24104E+03 -1.70932E+04 -7.47929E+03
 -1.06261E+04 -1.97640E+04  5.21531E+03 -2.39616E+04  1.62959E+04 -1.73199E+04  1.88329E+04 -1.99220E+03
  1.19091E+04  1.38430E+04 -1.14413E+03  2.00573E+04 -1.37118E+04  1.15743E+04 -2.00861E+04 -3.97507E+03
 -1.50265E+04 -1.80708E+04 -1.68793E+03 -2.41229E+04  1.10021E+04 -1.98560E+04  1.96367E+04 -9.86178E+03
  1.90247E+04 -8.11495E+01  1.32722E+04  4.55287E+03  7.28878E+03  6.75925E+02  1.00456E+04 -1.85243E+03
  1.82499E+04  2.65882E+03  2.06535E+04  1.57008E+04  1.34258E+04  3.17624E+04 -2.85113E+03  3.62636E+04
 -2.09974E+04  2.93490E+04 -3.41056E+04  1.48220E+04 -3.59910E+04 -2.55881E+03 -2.97646E+04 -2.09727E+04
 -1.23263E+04 -2.95699E+04  1.06260E+04 -2.65978E+04  2.27536E+04 -1.31947E+04  2.02235E+04  5.78191E+03
  7.58049E+03  1.54502E+04 -9.46252E+03  1.31795E+04 -1.68899E+04  2.55019E+03 -1.28114E+04 -1.07127E+04
 -2.74552E+02 -1.57777E+04  8.63517E+03 -1.19203E+04  1.10260E+04 -1.40756E+03  2.68799E+03  6.89235E+03
 -7.37040E+03  2.78732E+03 -6.55615E+03 -5.69011E+03 -8.34724E+02 -1.41762E+04  9.92992E+03 -1.53813E+04
  1.82077E+04 -8.25686E+03  1.95091E+04  2.91958E+03  1.69447E+04  1.42596E+04  8.26194E+03  2.19656E+04
 -3.84864E+03  2.42743E+04 -1.53237E+04  1.51380E+04 -1.71367E+04  3.44274E+03 -1.19758E+04 -4.11358E+03
 -5.75578E+03 -5.26140E+03 -7.29626E+02  7.70169E+02 -2.72500E+03  2.65039E+03 -5.68228E+03  4.48281E+03
 -1.13887E+04 -6.63459E+02 -1.18702E+04 -9.64042E+03 -4.80254E+03 -1.56700E+04  5.32371E+03 -1.25074E+04
  1.03411E+04 -5.18599E+03  7.63257E+03  2.96338E+03  2.55504E+02  4.95546E+03 -5.78579E+03 -2.60480E+02
 -5.46837E+03 -7.81152E+03 -8.10333E+02 -1.17681E+04  6.81123E+03 -1.23478E+04  1.55897E+04 -6.56975E+03
  1.82127E+04  1.41832E+03  1.33719E+04  1.05585E+04  2.56907E+03  1.41663E+04 -7.35019E+03  1.20889E+04
 -9.95251E+03  4.02091E+03 -5.51759E+03 -2.51825E+03  1.84206E+03 -3.37445E+03  6.78035E+03 -1.25235E+03
  6.05721E+03  4.90935E+03  1.14946E+03  9.63858E+03 -7.08084E+03  9.41051E+03 -1.22063E+04  2.28179E+03
 -7.93330E+03 -5.90307E+03  1.34411E+02 -1.00952E+04  6.82294E+03 -5.09973E+03  6.61625E+03  2.56385E+03
  1.40073E+03  6.92727E+03 -6.44049E+03  8.36355E+03 -9.56165E+03  3.76644E+03 -9.51798E+03 -3.19478E+03
 -5.61764E+03 -1.15172E+04  2.45618E+03 -1.31378E+04  1.12839E+04 -8.08163E+03  1.17251E+04  2.28866E+03
  7.47719E+03  9.60485E+03 -4.62876E+02  1.16128E+04 -8.62579E+03  6.68090E+03 -9.03522E+03 -1.18080E+03
 -8.66992E+03 -8.19619E+03 -1.69809E+03 -8.84982E+03  4.57647E+03 -7.14106E+03  5.14898E+03 -3.00951E+03
  3.70067E+03  1.10066E+03 -4.58116E+02  1.75287E+03 -2.00543E+02 -1.92095E+03  1.54429E+03 -4.82850E+03
  7.84530E+03 -3.05717E+03  1.10781E+04  1.22891E+03  1.08294E+04  7.50676E+03  7.70710E+03  1.43727E+04
 -3.24797E+03  1.66640E+04 -1.41443E+04  1.25279E+04 -1.80451E+04  2.07152E+03 -1.46243E+04 -6.32389E+03
 -7.53086E+03 -1.20175E+04 -5.24540E+02 -1.02444E+04  3.53407E+03 -5.13593E+03  3.47353E+03 -3.81210E+03
  2.75770E+03 -2.42537E+03  3.20910E+03 -3.30921E+03  4.84453E+03 -2.57589E+03  5.85814E+03 -3.76162E+02
  7.62473E+03  1.95017E+03  3.17188E+03  6.42375E+03 -2.06925E+03  7.35109E+03 -8.12618E+03  5.61235E+03
 -1.00828E+04 -9.11661E+02 -6.15090E+03 -7.00052E+03 -4.33752E+02 -1.05625E+04  6.20029E+03 -1.09092E+04
  1.08254E+04 -6.15946E+03  1.33560E+04  1.42676E+03  9.27959E+03  9.27267E+03  1.54956E+03  1.20163E+04
 -4.85206E+03  1.02393E+04 -7.15616E+03  3.82693E+03 -4.66218E+03 -1.47492E+03 -2.11339E+03 -1.23124E+03
 -1.21102E+03  1.47609E+02 -1.96856E+03  2.51533E+03 -4.66154E+03  1.75275E+03 -7.05604E+03 -1.18726E+03
 -4.17144E+03 -7.09837E+03  1.69985E+02 -9.96689E+03  5.94259E+03 -9.23597E+03  9.61493E+03 -2.92909E+03
  9.41005E+03  4.72187E+03  5.01666E+03  8.38553E+03 -2.01345E+03  1.01966E+04 -6.56792E+03  6.18161E+03
 -9.09766E+03  5.71315E+02 -7.06902E+03 -5.86379E+03 -6.57577E+02 -7.91193E+03  4.34209E+03 -6.17922E+03
  6.15087E+03 -2.19091E+03  3.77329E+03  1.63710E+03  9.17522E+02  2.99945E+03  1.28505E+03  1.40071E+03
  2.13523E+03  8.42760E+02  2.37667E+03  1.01987E+03  2.65437E+03  3.55677E+03  2.40059E+03  4.81333E+03
 -1.90310E+03  7.51453E+03 -6.54111E+03  7.92567E+03 -9.17524E+03  2.26267E+03 -1.02538E+04 -3.45853E+03
 -4.64318E+03 -9.08303E+03  1.39165E+03 -1.06406E+04  5.25848E+03 -6.42133E+03  7.49879E+03 -1.76139E+03
  5.72815E+03  3.49541E+03  1.25783E+03  5.30634E+03 -2.40129E+03  3.28991E+03 -3.98626E+03 -3.42099E+02
 -1.94923E+03 -3.96349E+03  2.43716E+03 -4.20541E+03  3.80460E+03 -2.34689E+03  4.00059E+03  1.03961E+03
  2.46463E+03  2.33524E+03  8.73651E+02  1.33690E+03 -4.65025E+02  1.38075E+03  1.84216E+03 -3.15051E+02
  1.25251E+03 -7.05045E+02  4.11319E+03  1.15113E+03  1.87246E+03  5.22152E+03 -5.06733E+02  6.63311E+03
 -4.52611E+03  3.65345E+03 -5.70031E+03  1.35630E+03 -5.65096E+03 -2.13934E+03 -1.87947E+03 -3.23543E+03
  4.92164E+02 -3.85752E+03  2.35645E+03 -1.90916E+03  2.04298E+03  2.07793E+03 -9.13460E+02  3.04537E+03
 -3.90884E+03  1.83167E+03 -4.09857E+03 -2.59005E+03 -2.15983E+03 -5.52445E+03  5.65313E+02 -4.94927E+03
  2.67042E+03 -2.59800E+03  3.09861E+03 -2.29007E+02  3.11965E+03  1.14208E+03  4.22237E+02  2.76527E+03
 -1.43270E+03  1.07975E+03 -2.63607E+03 -1.77275E+03  1.10231E+03 -3.59600E+03  4.58434E+03 -3.03041E+03
  4.84890E+03  1.99572E+02  5.93216E+03  3.55961E+03  1.65791E+03  5.73067E+03 -1.95470E+03  5.21988E+03
 -4.66996E+03  2.51926E+03 -5.16571E+03 -9.04994E+02 -2.57780E+03 -3.44035E+03  9.00345E+02 -3.27821E+03
  3.89380E+03 -1.78598E+03  3.15801E+03  1.58196E+03  1.08618E+03  3.36029E+03 -3.22430E+02  2.93860E+03
 -1.62850E+03  2.01760E+03 -1.28406E+03  6.57670E+02 -3.67073E+02  7.61857E+02 -1.72996E+03  1.48722E+03
 -1.82521E+03  2.18416E+03 -4.39093E+03  1.55996E+03 -5.62085E+03  1.11597E+02 -6.57041E+03 -3.74246E+03
 -3.36304E+03 -7.63699E+03  1.58012E+03 -8.79298E+03  4.98628E+03 -6.53084E+03  8.27283E+03 -2.64529E+03
  7.49884E+03  1.29680E+03  4.62863E+03  5.48488E+03  2.63669E+01  5.52531E+03 -2.41943E+03  4.36786E+03
 -3.18787E+03  2.05552E+03 -2.06838E+03 -5.68136E+02 -6.65017E+02 -2.94591E+02 -9.76461E+02 -1.22006E+02
 -1.16333E+03  2.85737E+02 -1.49475E+03 -7.48812E+01 -1.43769E+02 -1.90766E+03 -9.11247E+01 -2.03756E+03
  2.87457E+03 -2.12120E+03  3.04404E+03  3.25009E+02  4.14391E+03  3.26273E+03  5.89766E+02  5.63881E+03
 -2.86046E+03  6.70900E+03 -6.11318E+03  3.85984E+03 -6.75877E+03 -5.91628E+02 -5.29363E+03 -4.42287E+03
 -2.48236E+03 -5.71948E+03  1.36139E+03 -5.11278E+03  3.62407E+03 -2.74161E+03  3.56117E+03  2.56883E+02
  2.01160E+03  1.61922E+03 -8.72192E+00  1.83382E+03 -1.00155E+03  7.58028E+01 -7.09677E+01 -1.09150E+03
  1.79819E+03 -6.54713E+02  2.08324E+03  7.86948E+02  1.54920E+03  1.92358E+03  2.56153E+02  2.79776E+03
 -2.78163E+03  2.34880E+03 -3.48176E+03  1.68116E+02 -3.42255E+03 -2.63380E+03 -3.55962E+02 -4.79141E+03
  2.39821E+03 -3.91961E+03  4.34025E+03 -1.20613E+03  4.17678E+03  2.64044E+02  2.36988E+03  3.25853E+03
  5.50670E+02  3.25534E+03 -1.48983E+03  2.42531E+03 -2.58968E+03  1.55810E+03 -1.91453E+03  5.01339E+02
 -7.06491E+02  1.30553E+02 -1.26091E+03  6.28359E+02 -2.05140E+03  7.60405E+02 -2.83613E+03 -4.91578E+02
 -2.89160E+03 -1.40370E+03 -5.66412E+02 -3.69551E+03  1.89892E+03 -4.29791E+03  3.09006E+03 -1.48827E+03
  3.67897E+03  5.33555E+02  1.51401E+03  2.52411E+03  6.03885E+01  3.66967E+03 -2.40981E+03  2.36426E+03
