 $NMID ID='MM_0lb_SNR800_9hz_g60_50.RAW', FMTDAT='(8E13.5)'
 TRAMP=1., VOLUME=1. $END
  3.09872E+05  1.05942E+02  3.38184E+05  2.51037E+05  8.48762E+04  3.38771E+05 -1.32564E+05  2.51870E+05
 -1.90759E+05  8.41657E+04 -1.13411E+05 -3.22323E+04 -1.93088E+02 -5.08049E+04  5.34148E+04 -1.05672E+03
  3.59488E+04  5.30817E+04 -1.66169E+04  7.59328E+04 -6.12513E+04  6.43752E+04 -8.53733E+04  3.22771E+04
 -8.30821E+04 -1.16321E+04 -5.81642E+04 -5.24995E+04 -1.52513E+04 -7.11496E+04  2.81970E+04 -4.66358E+04
  4.12716E+04  3.86751E+03  1.70932E+04  4.90325E+04 -3.50925E+04  4.83760E+04 -6.80788E+04  1.97891E+02
 -5.54373E+04 -5.78524E+04 -7.45996E+03 -7.91398E+04  3.47416E+04 -5.74719E+04  5.01598E+04 -1.84810E+04
  4.57659E+04  1.16254E+04  3.31575E+04  2.65874E+04  1.57531E+04  3.07111E+04 -5.87151E+03  2.77293E+04
 -2.24415E+04  1.19394E+04 -1.75093E+04 -6.20778E+03  7.17589E+03 -7.70787E+03  2.38790E+04  1.40410E+04
  6.61959E+03  3.81243E+04 -3.44436E+04  3.71535E+04 -6.64473E+04  2.15032E+03 -5.89815E+04 -4.51489E+04
 -1.29732E+04 -6.61357E+04  4.20385E+04 -4.79291E+04  6.20073E+04 -2.85733E+03  3.69782E+04  3.46759E+04
 -5.49659E+03  4.02730E+04 -3.22586E+04  1.92178E+04 -3.41479E+04 -3.24967E+03 -2.00036E+04 -1.21438E+04
 -9.55337E+03 -1.58159E+04 -3.46063E+02 -2.00480E+04  8.66631E+03 -2.32933E+04  1.63945E+04 -1.21126E+04
  1.05336E+04  6.70835E+03 -1.09806E+04  1.30208E+04 -2.42106E+04 -6.87080E+03 -8.79044E+03 -3.83566E+04
  2.57982E+04 -4.76763E+04  5.26760E+04 -2.11352E+04  4.95905E+04  2.09147E+04  1.78569E+04  4.76143E+04
 -1.69633E+04  3.68740E+04 -2.78021E+04  3.46475E+03 -1.17343E+04 -3.00987E+04  2.16065E+04 -3.75863E+04
  4.55188E+04 -1.12853E+04  4.15112E+04  2.53901E+04  2.19501E+04  5.20710E+04 -8.37120E+03  5.74677E+04
 -3.60607E+04  3.93854E+04 -4.88729E+04  1.12677E+04 -4.87887E+04 -1.89987E+04 -2.69651E+04 -4.30765E+04
  7.57409E+03 -4.30491E+04  3.51680E+04 -1.72184E+04  3.27025E+04  1.11305E+04  5.93435E+03  2.10163E+04
 -1.38263E+04  9.99603E+03 -1.12174E+04 -7.60630E+03  5.52592E+03 -1.13026E+04  1.90723E+04  5.11204E+03
  1.50955E+04  2.25917E+04 -5.00458E+03  2.79312E+04 -2.36901E+04  1.46627E+04 -3.24349E+04 -2.25689E+03
 -2.65377E+04 -1.80015E+04 -1.25902E+04 -2.60017E+04  4.28580E+03 -2.69653E+04  2.08516E+04 -2.38071E+04
  3.31733E+04 -1.47916E+04  3.93575E+04  5.06427E+03  2.76863E+04  2.54241E+04  4.36837E+03  4.22879E+04
 -1.99675E+04  3.43781E+04 -3.08688E+04  1.20421E+04 -2.24709E+04 -1.03395E+04 -5.08013E+03 -1.32837E+04
  3.07702E+02 -5.25534E+02 -7.85157E+03  8.53472E+03 -2.08648E+04  4.70516E+03 -2.10980E+04 -9.84558E+03
 -1.27717E+04 -2.39841E+04  6.60861E+03 -2.85542E+04  1.95433E+04 -1.99032E+04  2.38288E+04 -1.79366E+03
  1.51330E+04  1.72868E+04 -1.54000E+03  2.41204E+04 -1.77842E+04  1.41368E+04 -2.46316E+04 -4.71551E+03
 -1.80085E+04 -2.19673E+04 -2.40975E+03 -2.93781E+04  1.34159E+04 -2.39441E+04  2.38188E+04 -1.25895E+04
  2.30093E+04 -5.11998E+02  1.66965E+04  5.56146E+03  9.66040E+03  1.41529E+03  1.27002E+04 -1.89477E+03
  2.28487E+04  2.82159E+03  2.69341E+04  1.90803E+04  1.85192E+04  3.94185E+04 -2.78970E+03  4.61933E+04
 -2.66225E+04  3.84791E+04 -4.36570E+04  2.08011E+04 -4.72145E+04 -3.22680E+03 -3.78746E+04 -2.81636E+04
 -1.49788E+04 -3.93335E+04  1.35487E+04 -3.40383E+04  2.94492E+04 -1.57077E+04  2.46640E+04  8.45326E+03
  8.32001E+03  1.97109E+04 -1.15294E+04  1.61648E+04 -2.09715E+04  2.13147E+03 -1.58194E+04 -1.29941E+04
 -6.22841E+02 -1.98133E+04  1.10120E+04 -1.47892E+04  1.40387E+04 -1.34983E+03  3.80846E+03  8.83335E+03
 -8.91095E+03  4.79856E+03 -9.60214E+03 -7.50026E+03 -1.77126E+03 -1.90766E+04  1.24940E+04 -2.09440E+04
  2.44223E+04 -1.23297E+04  2.80571E+04  3.71346E+03  2.45568E+04  1.95184E+04  1.10876E+04  3.08529E+04
 -5.93647E+03  3.32037E+04 -2.19356E+04  2.00201E+04 -2.39992E+04  3.82924E+03 -1.61440E+04 -6.47487E+03
 -7.06161E+03 -7.51693E+03 -9.13610E+02  4.36666E+02 -3.10115E+03  3.65491E+03 -8.02282E+03  5.81726E+03
 -1.50767E+04 -9.77442E+02 -1.53270E+04 -1.24549E+04 -6.43163E+03 -2.01348E+04  7.03054E+03 -1.65284E+04
  1.33838E+04 -6.86410E+03  1.00504E+04  4.73977E+03 -4.64551E+02  6.94812E+03 -8.17793E+03 -4.15867E+02
 -8.09511E+03 -1.08061E+04 -1.54035E+03 -1.65728E+04  1.01075E+04 -1.74301E+04  2.11978E+04 -9.33671E+03
  2.53332E+04  2.14473E+03  1.81570E+04  1.58946E+04  3.65303E+03  1.99064E+04 -1.02267E+04  1.63160E+04
 -1.37277E+04  4.87946E+03 -6.54308E+03 -3.96415E+03  2.74995E+03 -4.67852E+03  8.77062E+03 -7.47110E+02
  7.43461E+03  7.30854E+03  1.02460E+03  1.34589E+04 -9.58955E+03  1.27940E+04 -1.61531E+04  2.76577E+03
 -1.11876E+04 -8.68617E+03  2.06564E+02 -1.49606E+04  9.56719E+03 -7.44642E+03  1.00120E+04  3.60918E+03
  2.17028E+03  1.08133E+04 -8.85809E+03  1.24308E+04 -1.47616E+04  5.62055E+03 -1.46275E+04 -5.47731E+03
 -8.75666E+03 -1.67014E+04  4.10266E+03 -1.99290E+04  1.65020E+04 -1.13243E+04  1.84417E+04  3.08470E+03
  1.05376E+04  1.45701E+04 -1.75157E+03  1.66731E+04 -1.27077E+04  9.28738E+03 -1.33715E+04 -1.65677E+03
 -1.14178E+04 -1.12360E+04 -1.48227E+03 -1.28252E+04  6.32745E+03 -1.07266E+04  7.94059E+03 -3.34839E+03
  5.37452E+03  2.41096E+03 -1.46378E+03  2.03911E+03 -1.16702E+03 -3.60889E+03  2.96365E+03 -7.92248E+03
  1.23431E+04 -4.88092E+03  1.77973E+04  1.73793E+03  1.71434E+04  1.20952E+04  1.08734E+04  2.26758E+04
 -4.99686E+03  2.58864E+04 -2.16909E+04  1.91710E+04 -2.76978E+04  3.02190E+03 -2.20530E+04 -9.58098E+03
 -1.13751E+04 -1.81348E+04 -1.90382E+02 -1.56251E+04  5.51846E+03 -9.20343E+03  5.59546E+03 -5.55410E+03
  4.34275E+03 -3.55061E+03  4.34846E+03 -4.23683E+03  6.45116E+03 -4.18424E+03  8.36858E+03 -1.65770E+03
  1.17646E+04  2.78780E+03  6.24237E+03  9.87960E+03 -2.38140E+03  1.23050E+04 -1.24830E+04  9.02985E+03
 -1.56762E+04 -1.42549E+03 -9.96045E+03 -1.13909E+04 -1.91338E+03 -1.67669E+04  9.77505E+03 -1.69809E+04
  1.81226E+04 -9.46749E+03  2.08342E+04  2.43518E+03  1.44300E+04  1.57972E+04  2.49215E+03  1.88104E+04
 -8.27114E+03  1.57217E+04 -1.15089E+04  5.38834E+03 -7.60251E+03 -1.96809E+03 -3.49948E+03 -2.10895E+03
 -1.16001E+03 -2.97172E+02 -2.43868E+03  2.89522E+03 -6.88457E+03  2.84075E+03 -1.10210E+04 -1.30632E+03
 -8.04726E+03 -1.09820E+04 -2.38879E+02 -1.58259E+04  9.20614E+03 -1.45759E+04  1.61244E+04 -5.22861E+03
  1.59610E+04  8.04185E+03  7.14051E+03  1.42519E+04 -3.13765E+03  1.60279E+04 -1.16688E+04  1.01358E+04
 -1.50192E+04  2.98342E+02 -1.18466E+04 -9.74303E+03 -1.59638E+03 -1.34568E+04  7.35912E+03 -9.93893E+03
  1.04514E+04 -2.97882E+03  7.13742E+03  2.72034E+03  2.50047E+03  4.57989E+03  1.33286E+03  2.26247E+03
  3.22023E+03  1.33922E+03  4.01503E+03  2.16508E+03  4.87385E+03  5.31641E+03  3.96545E+03  8.58798E+03
 -3.21036E+03  1.29176E+04 -1.10849E+04  1.20581E+04 -1.67386E+04  3.39498E+03 -1.70027E+04 -6.90006E+03
 -8.11873E+03 -1.61030E+04  2.10478E+03 -1.80524E+04  1.01907E+04 -1.12118E+04  1.33089E+04 -3.02572E+03
  1.03965E+04  5.88992E+03  2.73285E+03  9.57587E+03 -4.93523E+03  5.95763E+03 -6.62700E+03 -8.28069E+02
 -2.93649E+03 -7.13852E+03  3.84650E+03 -7.14765E+03  6.66307E+03 -3.26282E+03  6.71722E+03  1.73036E+03
  4.35366E+03  3.52794E+03  1.47454E+03  3.13230E+03 -8.78479E+02  2.74501E+03  2.10875E+03 -7.70562E+02
  2.69054E+03 -1.14248E+03  6.84501E+03  2.69956E+03  3.86211E+03  8.90602E+03 -1.69491E+03  1.12854E+04
 -7.80153E+03  8.35940E+03 -1.03805E+04  2.04528E+03 -9.24158E+03 -4.16113E+03 -3.59402E+03 -6.46686E+03
  8.91344E+02 -6.35808E+03  4.54522E+03 -2.96133E+03  3.64817E+03  3.20313E+03 -1.26862E+03  5.40811E+03
 -6.84206E+03  3.49154E+03 -7.23337E+03 -4.03622E+03 -4.51284E+03 -9.22630E+03  1.61293E+03 -9.08315E+03
  5.81861E+03 -5.29904E+03  7.24226E+03 -4.72232E+02  5.59314E+03  2.75126E+03  1.36568E+03  4.80835E+03
 -3.34303E+03  1.80224E+03 -4.02629E+03 -3.31402E+03  1.38234E+03 -7.31682E+03  8.31170E+03 -5.88998E+03
  1.06030E+04  8.90039E+02  1.04289E+04  7.26028E+03  3.33267E+03  1.06917E+04 -4.09464E+03  1.00723E+04
 -8.90281E+03  4.43152E+03 -9.18462E+03 -1.04899E+03 -5.11525E+03 -7.03517E+03  1.47704E+03 -6.57478E+03
  6.96668E+03 -3.04690E+03  5.43495E+03  2.96475E+03  2.10547E+03  5.72985E+03 -7.57775E+02  5.42546E+03
 -2.81126E+03  3.38036E+03 -2.80587E+03  8.58861E+02 -1.51809E+03  1.28269E+03 -1.60551E+03  2.22181E+03
 -3.00313E+03  4.34061E+03 -7.37471E+03  4.05184E+03 -1.07647E+04  1.28526E+02 -1.24211E+04 -7.10428E+03
 -6.20023E+03 -1.44201E+04  3.19168E+03 -1.67099E+04  1.06948E+04 -1.31423E+04  1.57838E+04 -5.11623E+03
  1.48421E+04  3.20935E+03  9.36265E+03  1.03930E+04  8.14694E+02  1.15354E+04 -4.36741E+03  8.67998E+03
 -6.56759E+03  3.36608E+03 -3.91610E+03 -1.04910E+03 -1.34768E+03 -6.69513E+02 -4.69783E+02  1.42556E+02
 -1.91861E+03  1.36793E+02 -2.86874E+03 -5.16129E+02 -1.07999E+03 -2.46373E+03  7.62869E+00 -4.30833E+03
  4.98938E+03 -3.33589E+03  7.23115E+03  3.85937E+01  7.94130E+03  6.16038E+03  2.21333E+03  1.10126E+04
 -5.38608E+03  1.30759E+04 -1.23189E+04  7.66065E+03 -1.39522E+04 -1.41107E+03 -1.05013E+04 -8.67119E+03
 -4.37478E+03 -1.17567E+04  2.78656E+03 -1.08473E+04  7.92018E+03 -6.09984E+03  7.04102E+03  4.26500E+02
  4.11037E+03  3.78302E+03 -2.63850E+02  2.64091E+03 -2.20925E+03 -5.40135E+02  4.29847E+02 -2.60773E+03
  3.37559E+03 -1.21339E+03  4.15343E+03  1.83318E+03  3.37924E+03  4.24790E+03 -7.14756E+01  6.22103E+03
 -4.83380E+03  5.30284E+03 -7.75473E+03 -6.63583E+01 -6.94677E+03 -5.58304E+03 -9.85044E+02 -9.26772E+03
  4.93313E+03 -7.91433E+03  8.51842E+03 -2.12799E+03  8.60999E+03  2.47627E+03  4.72872E+03  7.24612E+03
  7.94743E+02  7.72941E+03 -2.80294E+03  6.11320E+03 -4.84360E+03  3.67571E+03 -4.19899E+03  3.43669E+02
 -1.89944E+03 -3.08537E+02 -2.23689E+03  7.88167E+02 -3.78169E+03  1.62941E+03 -5.64236E+03 -1.24055E+03
 -5.86729E+03 -4.12115E+03 -1.71083E+03 -7.81773E+03  3.34688E+03 -8.10577E+03  6.56954E+03 -3.68580E+03
  7.66917E+03  8.23540E+02  4.40191E+03  5.39471E+03 -4.29427E+02  7.78555E+03 -6.04563E+03  5.24637E+03
