 $NMID ID='MM_0lb_SNR800_13hz_g55_40.RAW', FMTDAT='(8E13.5)'
 TRAMP=1., VOLUME=1. $END
  3.09892E+05  3.61214E+02  3.37765E+05  2.50650E+05  8.45340E+04  3.38154E+05 -1.32964E+05  2.51462E+05
 -1.90641E+05  8.35589E+04 -1.11927E+05 -3.25110E+04  4.73784E+02 -5.04838E+04  5.37415E+04 -7.55294E+02
  3.53981E+04  5.31760E+04 -1.67080E+04  7.58883E+04 -6.09648E+04  6.36812E+04 -8.46848E+04  3.21387E+04
 -8.15115E+04 -1.13470E+04 -5.78126E+04 -5.18763E+04 -1.50725E+04 -7.05540E+04  2.78304E+04 -4.61908E+04
  4.04096E+04  3.98240E+03  1.64686E+04  4.81118E+04 -3.41445E+04  4.75149E+04 -6.74849E+04 -1.08584E+02
 -5.37973E+04 -5.72691E+04 -7.04607E+03 -7.77700E+04  3.39382E+04 -5.58091E+04  4.87590E+04 -1.75254E+04
  4.39109E+04  1.13524E+04  3.21800E+04  2.60468E+04  1.58584E+04  3.00942E+04 -5.78715E+03  2.76196E+04
 -2.21757E+04  1.20961E+04 -1.83345E+04 -5.34405E+03  6.10651E+03 -7.51763E+03  2.27781E+04  1.29552E+04
  7.29293E+03  3.61008E+04 -3.29315E+04  3.56729E+04 -6.41868E+04  1.98636E+03 -5.76641E+04 -4.36978E+04
 -1.26244E+04 -6.46188E+04  4.07004E+04 -4.60817E+04  5.93856E+04 -2.20343E+03  3.50080E+04  3.28981E+04
 -5.79851E+03  3.73940E+04 -3.08008E+04  1.70319E+04 -3.15106E+04 -4.08037E+03 -1.77368E+04 -1.11621E+04
 -8.74463E+03 -1.41317E+04 -6.56800E+02 -1.85294E+04  7.40889E+03 -2.29253E+04  1.56135E+04 -1.31017E+04
  1.11709E+04  5.36965E+03 -8.90300E+03  1.27677E+04 -2.23872E+04 -5.30522E+03 -8.57890E+03 -3.51023E+04
  2.40203E+04 -4.48097E+04  4.94932E+04 -2.01519E+04  4.63771E+04  1.99799E+04  1.63190E+04  4.53086E+04
 -1.61539E+04  3.45078E+04 -2.62109E+04  1.91915E+03 -1.03104E+04 -2.82724E+04  2.11440E+04 -3.51526E+04
  4.22905E+04 -9.65088E+03  3.73292E+04  2.41585E+04  1.91527E+04  4.80494E+04 -8.15411E+03  5.22388E+04
 -3.26823E+04  3.54562E+04 -4.39609E+04  1.00541E+04 -4.45731E+04 -1.74206E+04 -2.45987E+04 -3.94288E+04
  7.63079E+03 -3.94901E+04  3.26590E+04 -1.55760E+04  3.03714E+04  1.12770E+04  4.66299E+03  1.97753E+04
 -1.35728E+04  8.73289E+03 -1.06779E+04 -7.35046E+03  5.89233E+03 -1.10787E+04  1.83505E+04  6.00503E+03
  1.39527E+04  2.19071E+04 -5.50039E+03  2.58242E+04 -2.28459E+04  1.22401E+04 -2.92418E+04 -3.90229E+03
 -2.22468E+04 -1.76144E+04 -9.84485E+03 -2.19022E+04  4.08880E+03 -2.18178E+04  1.71629E+04 -2.00337E+04
  2.83125E+04 -1.33867E+04  3.47026E+04  3.52760E+03  2.50642E+04  2.13709E+04  4.11933E+03  3.80223E+04
 -1.83708E+04  3.17418E+04 -2.90344E+04  1.10455E+04 -2.13805E+04 -9.86755E+03 -4.58984E+03 -1.32140E+04
  1.16588E+03 -2.04083E+03 -5.78797E+03  7.31395E+03 -1.74327E+04  5.17174E+03 -1.74852E+04 -7.52878E+03
 -1.07415E+04 -2.01074E+04  5.26599E+03 -2.47749E+04  1.62512E+04 -1.80044E+04  1.95724E+04 -1.62016E+03
  1.24859E+04  1.43627E+04 -8.49003E+02  2.05205E+04 -1.41022E+04  1.16210E+04 -2.04914E+04 -4.15452E+03
 -1.45397E+04 -1.82945E+04 -2.17107E+03 -2.43358E+04  1.10328E+04 -2.02761E+04  2.04632E+04 -1.01270E+04
  1.89991E+04 -8.93330E+01  1.39656E+04  4.72740E+03  7.57631E+03  6.12425E+02  1.03044E+04 -2.26764E+03
  1.86580E+04  2.71553E+03  2.12528E+04  1.60907E+04  1.41216E+04  3.26736E+04 -3.00376E+03  3.73359E+04
 -2.13231E+04  3.04588E+04 -3.50676E+04  1.56174E+04 -3.70418E+04 -2.73328E+03 -3.02286E+04 -2.10672E+04
 -1.25875E+04 -3.02830E+04  1.06966E+04 -2.71117E+04  2.32098E+04 -1.35248E+04  2.09967E+04  6.13903E+03
  7.60022E+03  1.60778E+04 -9.80442E+03  1.35353E+04 -1.75935E+04  2.60925E+03 -1.32717E+04 -1.09933E+04
  3.53471E+02 -1.64709E+04  8.96774E+03 -1.25921E+04  1.11220E+04 -1.33463E+03  2.64911E+03  6.86638E+03
 -7.62174E+03  2.93555E+03 -6.77856E+03 -6.23361E+03 -9.33643E+02 -1.50885E+04  1.00997E+04 -1.58455E+04
  1.84811E+04 -8.33144E+03  1.99519E+04  2.55839E+03  1.77955E+04  1.46600E+04  8.49367E+03  2.29397E+04
 -3.79248E+03  2.50223E+04 -1.61255E+04  1.55825E+04 -1.79765E+04  3.72982E+03 -1.27465E+04 -4.10239E+03
 -5.88766E+03 -5.29843E+03 -7.06498E+02  1.07246E+03 -2.83952E+03  2.79189E+03 -6.13371E+03  4.83258E+03
 -1.15745E+04 -4.75839E+02 -1.22295E+04 -9.53584E+03 -4.84728E+03 -1.60511E+04  5.65834E+03 -1.27667E+04
  1.04572E+04 -5.32019E+03  7.67482E+03  3.20887E+03  9.31529E+00  5.11443E+03 -5.93892E+03 -4.85213E+01
 -5.88600E+03 -7.86867E+03 -8.77842E+02 -1.17332E+04  6.73445E+03 -1.28807E+04  1.56252E+04 -6.42830E+03
  1.85608E+04  1.81665E+03  1.34520E+04  1.05536E+04  2.57229E+03  1.47078E+04 -7.81141E+03  1.24035E+04
 -1.03997E+04  3.65727E+03 -5.28808E+03 -2.59205E+03  1.41286E+03 -3.34064E+03  6.67863E+03 -6.83883E+02
  6.10145E+03  5.48714E+03  1.08708E+03  9.99052E+03 -7.22172E+03  9.62646E+03 -1.20595E+04  2.30487E+03
 -7.98652E+03 -6.26533E+03  7.16357E+01 -1.05066E+04  6.82058E+03 -5.27246E+03  7.20702E+03  2.43135E+03
  1.19239E+03  7.23862E+03 -6.44274E+03  8.63332E+03 -9.59225E+03  3.84825E+03 -9.48297E+03 -3.39797E+03
 -5.61178E+03 -1.14378E+04  2.82018E+03 -1.29995E+04  1.11120E+04 -7.76875E+03  1.15512E+04  2.15294E+03
  7.30216E+03  9.97374E+03 -8.88055E+02  1.19709E+04 -8.65066E+03  6.74137E+03 -9.29283E+03 -9.67256E+02
 -8.29223E+03 -8.06666E+03 -1.78578E+03 -8.98323E+03  4.73479E+03 -7.37176E+03  5.56149E+03 -3.32744E+03
  3.92352E+03  1.45158E+03 -5.78108E+02  1.76176E+03 -1.51754E+02 -2.13509E+03  1.57352E+03 -4.65849E+03
  8.27927E+03 -3.03414E+03  1.12864E+04  1.15250E+03  1.08699E+04  7.10002E+03  7.97994E+03  1.44447E+04
 -3.59371E+03  1.66100E+04 -1.42468E+04  1.22474E+04 -1.85155E+04  2.19111E+03 -1.43900E+04 -5.87285E+03
 -7.22252E+03 -1.19695E+04 -2.22612E+02 -1.01790E+04  3.62092E+03 -5.33972E+03  3.33004E+03 -3.81341E+03
  2.67008E+03 -2.23304E+03  3.12274E+03 -3.18698E+03  4.91149E+03 -2.35675E+03  5.87466E+03 -6.88825E+02
  7.84962E+03  1.84083E+03  3.50652E+03  6.44996E+03 -1.91384E+03  7.09355E+03 -8.03575E+03  5.58250E+03
 -1.00992E+04 -9.57185E+02 -5.95632E+03 -7.17394E+03 -2.25776E+02 -1.05829E+04  5.96727E+03 -1.07107E+04
  1.09998E+04 -6.18356E+03  1.33476E+04  1.74495E+03  9.51888E+03  9.00664E+03  1.36798E+03  1.19631E+04
 -4.88967E+03  9.85191E+03 -6.83465E+03  3.47081E+03 -4.63858E+03 -1.18129E+03 -1.83360E+03 -1.32509E+03
 -8.85766E+02  2.11678E+02 -1.43565E+03  2.46716E+03 -4.19831E+03  1.93558E+03 -6.97772E+03 -1.09525E+03
 -4.32486E+03 -7.53407E+03  2.92693E+02 -9.09366E+03  5.95740E+03 -9.05458E+03  8.96317E+03 -2.81109E+03
  9.32573E+03  4.50208E+03  4.35662E+03  8.14496E+03 -1.94460E+03  9.67454E+03 -6.68955E+03  5.93363E+03
 -8.70968E+03  5.56464E+02 -7.34891E+03 -5.77090E+03 -6.42800E+02 -7.73408E+03  3.66997E+03 -5.91926E+03
  6.11693E+03 -2.28226E+03  3.95443E+03  1.29976E+03  1.16347E+03  2.84251E+03  9.69879E+02  1.31872E+03
  1.94652E+03  8.83126E+02  2.22947E+03  1.43095E+03  2.54564E+03  3.52819E+03  2.82196E+03  4.42795E+03
 -2.14946E+03  7.11525E+03 -6.39068E+03  7.48190E+03 -8.79435E+03  2.09869E+03 -9.79819E+03 -3.07306E+03
 -4.24600E+03 -9.07699E+03  1.50191E+03 -1.01791E+04  5.25958E+03 -6.19864E+03  7.23279E+03 -1.69180E+03
  5.57413E+03  3.38134E+03  1.36621E+03  5.12035E+03 -2.29813E+03  3.36839E+03 -3.55818E+03 -4.01772E+02
 -1.66288E+03 -3.76767E+03  2.56936E+03 -3.71571E+03  3.64254E+03 -2.11324E+03  3.52344E+03  9.89629E+02
  2.28552E+03  1.51187E+03  1.24364E+03  9.09421E+02 -3.53454E+02  1.29783E+03  1.45179E+03 -3.21414E+02
  7.13735E+02 -7.27331E+02  4.07075E+03  1.53517E+03  1.69932E+03  4.98859E+03 -9.41644E+02  6.23737E+03
 -4.27768E+03  3.95072E+03 -5.67539E+03  1.01884E+03 -4.96390E+03 -2.01273E+03 -1.69692E+03 -3.03274E+03
  7.23376E+02 -3.29661E+03  2.26506E+03 -1.25186E+03  1.61841E+03  1.82870E+03 -9.25472E+02  2.66701E+03
 -3.72868E+03  1.49141E+03 -4.01817E+03 -2.41263E+03 -1.78690E+03 -4.74400E+03  8.69736E+02 -4.54749E+03
  2.31753E+03 -2.29876E+03  3.37816E+03 -2.77933E+02  3.05097E+03  1.18382E+03  1.64705E+02  2.68861E+03
 -1.57868E+03  6.01657E+02 -2.25895E+03 -1.37861E+03  8.99723E+02 -3.22356E+03  4.23470E+03 -2.73103E+03
  4.91149E+03  4.73831E+02  5.87785E+03  3.16177E+03  2.08571E+03  5.22135E+03 -1.69011E+03  4.95897E+03
 -4.04493E+03  2.05636E+03 -4.30728E+03 -7.13733E+02 -2.47080E+03 -3.36525E+03  8.27484E+02 -3.00524E+03
  3.42640E+03 -1.54545E+03  2.87957E+03  1.15190E+03  7.55683E+02  3.08772E+03 -3.28608E+02  3.02163E+03
 -1.39846E+03  2.03653E+03 -1.34305E+03  5.43097E+02 -4.73688E+02  5.25645E+02 -9.12379E+02  8.87733E+02
 -1.29553E+03  2.33341E+03 -3.88049E+03  1.81731E+03 -5.21986E+03  2.41673E+02 -6.02990E+03 -3.53015E+03
 -2.88580E+03 -6.79932E+03  1.40145E+03 -8.01121E+03  4.22890E+03 -6.31283E+03  7.66457E+03 -2.15651E+03
  7.29711E+03  1.15459E+03  4.36188E+03  4.79306E+03 -5.59289E+01  5.08323E+03 -2.00780E+03  3.63874E+03
 -3.01425E+03  1.68911E+03 -1.76480E+03 -3.74339E+02 -4.58276E+02 -4.22128E+02 -3.45163E+02 -2.58086E+02
 -1.46332E+03  2.07595E+02 -1.23676E+03 -3.46957E+00 -8.65528E+01 -1.32199E+03 -3.29865E+02 -2.00894E+03
  2.51792E+03 -1.48424E+03  2.68826E+03  2.19454E+02  3.25343E+03  3.04575E+03  7.00611E+02  5.00862E+03
 -2.66352E+03  5.88049E+03 -5.48502E+03  3.66051E+03 -6.12411E+03 -7.05498E+02 -4.32528E+03 -3.66887E+03
 -1.78739E+03 -4.98294E+03  1.19941E+03 -4.40542E+03  3.22700E+03 -2.46955E+03  3.17557E+03  2.66934E+02
  1.74733E+03  1.09466E+03 -3.85949E+02  1.30240E+03 -9.54118E+02  1.41716E+02  9.60461E+01 -1.12671E+03
  1.30678E+03 -3.83988E+02  1.85591E+03  8.85105E+02  1.15084E+03  1.94123E+03  3.02294E+02  2.42582E+03
 -2.13430E+03  1.84731E+03 -3.11531E+03  1.08096E+02 -2.73870E+03 -2.28848E+03 -5.32313E+02 -3.77752E+03
  2.65921E+03 -3.41334E+03  3.21563E+03 -7.19945E+02  3.21034E+03  5.20473E+02  2.40224E+03  2.90841E+03
  5.70998E+02  3.13986E+03 -1.23509E+03  2.29558E+03 -2.03233E+03  1.49455E+03 -1.66475E+03  2.72403E+01
 -7.91608E+02 -3.60788E+02 -9.01497E+02  5.97619E+02 -1.45296E+03  6.23715E+02 -2.39581E+03 -4.80143E+02
 -2.44706E+03 -1.31388E+03 -1.01802E+03 -3.11115E+03  1.78067E+03 -3.69660E+03  2.77387E+03 -1.50342E+03
  2.99431E+03  3.71349E+02  1.50206E+03  2.13414E+03 -1.19256E+02  2.94828E+03 -2.61337E+03  2.17467E+03
