 $NMID ID='MM_0lb_SNR800_20hz_g45_22.RAW', FMTDAT='(8E13.5)'
 TRAMP=1., VOLUME=1. $END
  3.09724E+05  2.74021E+02  3.37176E+05  2.50288E+05  8.43475E+04  3.37341E+05 -1.32398E+05  2.49905E+05
 -1.89529E+05  8.19291E+04 -1.10792E+05 -3.29876E+04  1.64841E+03 -5.00214E+04  5.38633E+04  3.38298E+02
  3.46474E+04  5.29515E+04 -1.72270E+04  7.46296E+04 -6.00337E+04  6.24613E+04 -8.26012E+04  3.14425E+04
 -7.91513E+04 -1.08018E+04 -5.59802E+04 -4.96397E+04 -1.49136E+04 -6.78524E+04  2.64870E+04 -4.44296E+04
  3.86008E+04  3.81768E+03  1.53818E+04  4.70066E+04 -3.36618E+04  4.59402E+04 -6.48549E+04 -6.11092E+02
 -5.15920E+04 -5.55468E+04 -6.02273E+03 -7.45198E+04  3.26548E+04 -5.24234E+04  4.55851E+04 -1.55584E+04
  4.11633E+04  1.10137E+04  3.04107E+04  2.40077E+04  1.56231E+04  2.78468E+04 -4.48172E+03  2.64400E+04
 -2.15225E+04  1.26836E+04 -1.93729E+04 -3.84032E+03  3.86179E+03 -7.63597E+03  2.08813E+04  1.04786E+04
  7.26296E+03  3.24224E+04 -2.99650E+04  3.34002E+04 -6.02739E+04  1.96435E+03 -5.45550E+04 -4.06984E+04
 -1.26577E+04 -6.02175E+04  3.76009E+04 -4.26440E+04  5.44961E+04 -1.92301E+03  3.11519E+04  2.98672E+04
 -6.70856E+03  3.20753E+04 -2.80414E+04  1.22251E+04 -2.67474E+04 -5.76915E+03 -1.38429E+04 -9.66120E+03
 -6.97410E+03 -1.07490E+04 -1.01513E+03 -1.62313E+04  6.30887E+03 -2.22051E+04  1.50098E+04 -1.41657E+04
  1.25152E+04  3.75909E+03 -5.53071E+03  1.29640E+04 -1.86372E+04 -1.87249E+03 -7.81854E+03 -2.90780E+04
  2.02897E+04 -3.95641E+04  4.33593E+04 -1.82621E+04  4.07253E+04  1.78781E+04  1.40600E+04  4.07897E+04
 -1.50611E+04  3.03487E+04 -2.27350E+04  1.05414E+03 -7.73005E+03 -2.58981E+04  2.02821E+04 -3.04504E+04
  3.71221E+04 -6.78928E+03  3.01460E+04  2.23776E+04  1.44393E+04  4.14159E+04 -7.78310E+03  4.33963E+04
 -2.74360E+04  2.89670E+04 -3.57951E+04  7.92215E+03 -3.70635E+04 -1.45065E+04 -2.06181E+04 -3.31105E+04
  6.63409E+03 -3.29397E+04  2.85259E+04 -1.21988E+04  2.60116E+04  1.07048E+04  2.74937E+03  1.73397E+04
 -1.27987E+04  6.76849E+03 -9.16078E+03 -7.64268E+03  6.10934E+03 -9.96232E+03  1.71171E+04  6.46431E+03
  1.18715E+04  2.12219E+04 -7.02919E+03  2.27277E+04 -2.12262E+04  8.46182E+03 -2.40088E+04 -6.75072E+03
 -1.54674E+04 -1.60096E+04 -4.82678E+03 -1.54377E+04  3.95134E+03 -1.31254E+04  1.13766E+04 -1.30977E+04
  1.97430E+04 -1.08541E+04  2.66738E+04  3.83634E+02  2.06089E+04  1.49671E+04  3.76030E+03  3.10974E+04
 -1.53219E+04  2.67974E+04 -2.51364E+04  8.98571E+03 -1.93360E+04 -1.06452E+04 -3.74683E+03 -1.41167E+04
  2.72144E+03 -4.66811E+03 -2.05387E+03  4.95017E+03 -1.20381E+04  4.99036E+03 -1.25016E+04 -4.41282E+03
 -8.34957E+03 -1.42742E+04  4.23154E+03 -1.80897E+04  1.15707E+04 -1.31745E+04  1.35735E+04 -1.40161E+03
  8.22926E+03  1.00650E+04 -7.49883E+02  1.48347E+04 -9.24741E+03  8.08136E+03 -1.42116E+04 -3.33411E+03
 -1.06584E+04 -1.33699E+04 -1.44219E+03 -1.78401E+04  7.85106E+03 -1.41710E+04  1.51133E+04 -6.41072E+03
  1.35258E+04  6.10349E+02  9.86751E+03  3.67172E+03  4.79852E+03  2.89599E+02  6.94936E+03 -1.33373E+03
  1.27421E+04  2.51138E+03  1.32702E+04  1.18993E+04  7.86767E+03  2.31352E+04 -2.96945E+03  2.42316E+04
 -1.42722E+04  1.81225E+04 -2.21758E+04  8.39724E+03 -2.24211E+04 -1.39457E+03 -1.92902E+04 -1.24892E+04
 -9.57231E+03 -1.79958E+04  6.09516E+03 -1.72358E+04  1.51882E+04 -1.03595E+04  1.45839E+04  3.12982E+03
  6.34257E+03  1.04701E+04 -6.36154E+03  9.80841E+03 -1.23602E+04  2.50568E+03 -9.63873E+03 -6.96070E+03
  3.97904E+01 -1.14267E+04  5.45548E+03 -8.85958E+03  7.28566E+03 -1.21702E+03  1.23504E+03  4.69023E+03
 -5.16335E+03  8.09205E+02 -2.81439E+03 -4.15898E+03  9.69416E+02 -8.91812E+03  7.22926E+03 -8.73786E+03
  1.09172E+04 -4.18079E+03  1.01592E+04  2.61706E+03  8.79726E+03  8.49209E+03  4.05367E+03  1.21552E+04
 -1.21482E+03  1.43396E+04 -8.58864E+03  8.75630E+03 -9.74423E+03  2.78066E+03 -7.53678E+03 -1.52243E+03
 -4.35316E+03 -2.81974E+03 -1.08503E+03  1.86217E+03 -1.92447E+03  1.75699E+03 -3.40898E+03  3.42959E+03
 -7.02487E+03 -5.79824E+02 -8.23620E+03 -6.78742E+03 -3.30866E+03 -1.07743E+04  3.22791E+03 -7.46445E+03
  6.15308E+03 -3.58464E+03  4.83020E+03  1.99150E+03  8.38102E+02  2.75521E+03 -2.98908E+03 -1.14728E+02
 -2.89368E+03 -4.52977E+03 -7.91354E+02 -6.20709E+03  3.23179E+03 -6.94179E+03  8.70554E+03 -3.28549E+03
  1.07281E+04  6.17914E+02  7.77595E+03  4.81759E+03  1.55043E+03  7.33477E+03 -4.88042E+03  7.52686E+03
 -6.15264E+03  2.48232E+03 -3.16031E+03 -1.10843E+03  1.15343E+03 -1.72109E+03  4.29436E+03 -1.04736E+03
  3.62186E+03  3.06261E+03  1.07655E+03  5.66015E+03 -3.92981E+03  5.69806E+03 -6.86838E+03  1.79541E+03
 -4.06841E+03 -3.18366E+03  3.58697E+02 -5.98972E+03  3.19841E+03 -2.96674E+03  2.99327E+03  8.95413E+02
  3.40252E+02  2.55771E+03 -3.84696E+03  4.00375E+03 -3.72952E+03  1.99719E+03 -3.53703E+03 -7.81335E+02
 -2.39505E+03 -5.08653E+03  7.42591E+02 -5.59194E+03  4.78365E+03 -4.12008E+03  5.40205E+03  8.71355E+02
  3.85553E+03  4.62080E+03  4.65342E+02  6.18137E+03 -4.32438E+03  3.86706E+03 -4.55496E+03  5.26138E+01
 -5.33572E+03 -4.55183E+03 -1.39779E+03 -4.19636E+03  2.08446E+03 -4.02320E+03  2.24800E+03 -2.91240E+03
  2.54621E+03 -1.19027E+02  1.90330E+02  1.25697E+03  7.33459E+02  3.85497E+01 -1.30516E+02 -1.33025E+03
  2.99288E+03 -1.18728E+02  4.17094E+03  5.40221E+02  4.79842E+03  2.24993E+03  4.96047E+03  5.78618E+03
 -9.80591E+02  6.81047E+03 -6.39906E+03  5.21028E+03 -8.20871E+03  8.27639E+02 -6.81209E+03 -1.95154E+03
 -3.27728E+03 -5.50829E+03 -4.54148E+02 -4.03381E+03  1.67835E+03 -1.65010E+03  1.24605E+03 -1.96107E+03
  1.14913E+03 -1.33043E+03  2.12520E+03 -2.17038E+03  3.26346E+03 -1.08190E+03  3.17883E+03  5.95591E+02
  3.96793E+03  1.12071E+03  7.71729E+02  2.86253E+03 -1.51091E+03  1.86324E+03 -3.71019E+03  1.71167E+03
 -3.89623E+03 -1.13993E+03 -1.09545E+03 -2.72195E+03  7.09344E+02 -3.94845E+03  2.56827E+03 -4.66086E+03
  4.02681E+03 -2.51599E+03  5.37169E+03  4.77846E+00  3.92288E+03  3.16685E+03  1.23102E+03  4.83286E+03
 -1.60366E+03  5.01564E+03 -2.92897E+03  1.76788E+03 -1.39024E+03 -8.62440E+02 -5.72136E+02 -5.49333E+02
 -2.46645E+02  4.43365E+02 -8.86342E+02  1.99454E+03 -2.12018E+03  1.02196E+03 -3.73082E+03 -2.85116E+02
 -9.84773E+02 -3.45189E+03  1.19940E+03 -3.79827E+03  1.97316E+03 -3.68570E+03  2.78808E+03 -8.33207E+02
  2.97893E+03  2.04059E+03  1.40809E+03  2.46565E+03 -6.73284E+02  3.41627E+03 -1.82351E+03  2.35464E+03
 -2.95919E+03  7.28105E+02 -2.82212E+03 -2.02905E+03 -2.67891E+02 -2.54752E+03  1.16796E+03 -2.02214E+03
  2.12442E+03 -1.15889E+03  1.46905E+03  4.37788E+02  3.68805E+02  1.42968E+03  7.01651E+02  3.05601E+02
  1.87881E+03  5.31527E+02  1.02712E+03  9.73450E+02  8.07699E+02  1.90889E+03  1.05776E+03  1.24998E+03
 -1.21412E+03  2.48956E+03 -1.94263E+03  3.25798E+03 -2.09384E+03  1.01387E+03 -3.49630E+03 -1.61282E+01
 -1.17786E+03 -2.60280E+03  6.40345E+02 -3.67949E+03  1.43853E+03 -1.94169E+03  2.27096E+03 -1.16537E+03
  1.80380E+03  1.19708E+03  3.21690E+02  1.83175E+03 -3.21281E+02  8.78593E+02 -6.77887E+02 -2.11681E+01
 -4.08405E+02 -1.21481E+03  1.16734E+03 -1.42996E+03  8.53466E+02 -8.04342E+02  1.28874E+03  2.45042E+02
  7.90707E+02  2.32059E+02  7.43945E+02 -5.28656E+02 -2.75272E+02  6.94476E+02  1.44466E+03 -1.97647E+02
 -2.07676E+02 -2.57050E+02  1.15356E+03  3.16778E+02 -1.18309E+02  1.70162E+03 -1.67363E+02  2.39785E+03
 -1.44563E+03  8.11815E+02 -1.61932E+03  4.69363E+02 -1.50636E+03 -7.09906E+02 -4.29539E+01 -6.04129E+02
  1.62435E+02 -8.56511E+02  6.89782E+02 -6.55494E+02  4.66602E+02  1.35230E+03 -6.92092E+02  1.05018E+03
 -1.18320E+03  3.16711E+02 -9.40274E+02 -1.15903E+03 -1.48739E+02 -1.65190E+03  1.98471E+02 -9.69362E+02
  1.06243E+02 -3.13014E+02  6.23570E+02  1.34304E+02  1.03633E+03 -1.33593E+02  2.89657E+02  9.96832E+02
 -8.34246E+01 -1.56807E+01 -7.69339E+02  1.16941E+02  6.59550E+02 -4.81348E+02  1.29821E+03 -6.02617E+02
  7.69786E+02  1.04187E+02  2.42473E+03  3.83130E+02  9.15153E+02  1.34311E+03 -2.42226E+02  1.31083E+03
 -1.06547E+03 -2.48540E+02 -1.11972E+03  2.72755E+01 -3.94015E+02 -1.02190E+03  2.49612E+02 -1.94504E+02
  9.88878E+02 -6.53447E+02  4.35150E+02  5.32588E+02  3.39677E+01  9.90101E+02  2.53994E+02  8.72426E+02
 -4.11509E+01  1.05242E+03 -4.63256E+02  6.83361E+01  1.20860E+02  4.00354E+02 -5.66997E+02  4.39190E+02
 -3.69049E+02  9.46538E+02 -1.56369E+03  4.79794E+02 -1.35956E+03  1.39597E+02 -1.82299E+03 -7.82392E+02
 -9.86649E+02 -1.82132E+03  4.90932E+02 -2.20867E+03  4.21936E+02 -1.92500E+03  1.96441E+03 -7.80430E+02
  2.10788E+03 -5.28956E+02  7.71283E+02  8.77277E+02 -5.95363E+02  6.78570E+02 -4.46536E+02  7.24655E+02
 -7.60959E+02  7.07647E+02 -4.94934E+02 -3.92139E+02 -3.94962E+02  1.77235E+02 -6.80567E+02  1.02875E+02
 -8.85651E+02  1.40052E+02 -6.93885E+02  2.46964E+02  2.92220E+01 -3.56782E+02 -7.42172E+02 -5.39596E+02
  9.20702E+02 -4.85045E+02 -1.09641E+02  5.47431E+01  7.44355E+02  6.91887E+02 -6.64530E+02  1.17882E+03
 -7.74956E+02  1.41671E+03 -1.19645E+03  1.04416E+03 -1.20167E+03 -3.97628E+02 -1.01181E+03 -7.98353E+02
 -6.32866E+02 -7.92043E+02  9.43200E+01 -7.68393E+02  2.23551E+02 -2.75536E+02  1.20372E+02  1.30707E+02
  4.81143E+02  2.87584E+02  2.76486E+02  3.94612E+02 -1.45148E+02 -3.74672E+01 -5.21306E+00 -1.37597E+02
  4.31524E+02  3.72068E+02  2.81522E+02  5.58650E+02  1.13833E+02  1.74743E+02  1.77549E+02  1.55772E+01
 -4.36937E+02  5.08453E+02 -3.90557E+02  1.06028E+01 -5.01018E+02 -2.26963E+02 -1.22917E+02 -7.87388E+02
  4.00027E+02 -5.26962E+02  2.47123E+02  1.76615E+02  7.61268E+02 -3.90726E+02  2.78892E+02  8.44503E+02
  4.45757E+02  3.36657E+02 -2.06456E+01  6.38629E+02 -1.98052E+02  4.34289E+02 -1.30065E+02  3.87934E+02
  1.29159E+02 -9.99861E+01 -5.26947E+02  1.83861E+02 -4.38556E+02  3.16239E+01 -4.62865E+02 -2.01243E+02
 -9.61191E+02  4.62950E+02 -3.41505E+02 -7.27318E+02  4.83666E+02 -1.32735E+03  7.18083E+02 -1.17127E+02
  5.25899E+02  4.71798E+01 -3.48610E+02  6.56945E+01 -2.18963E+02  1.93521E+02 -8.65651E+01  6.89380E+02
