 $NMID ID='MM_0lb_SNR800_18hz_g60_11.RAW', FMTDAT='(8E13.5)'
 TRAMP=1., VOLUME=1. $END
  3.09709E+05  4.72367E+02  3.37420E+05  2.50718E+05  8.45091E+04  3.37819E+05 -1.32757E+05  2.50851E+05
 -1.89929E+05  8.29857E+04 -1.11706E+05 -3.30194E+04  1.24883E+03 -5.04321E+04  5.37304E+04  5.19299E+01
  3.51523E+04  5.30771E+04 -1.67379E+04  7.54064E+04 -6.06316E+04  6.34759E+04 -8.39932E+04  3.18964E+04
 -8.04704E+04 -1.13243E+04 -5.68565E+04 -5.10763E+04 -1.51017E+04 -6.93008E+04  2.72344E+04 -4.52724E+04
  3.95731E+04  3.73211E+03  1.60642E+04  4.76584E+04 -3.43878E+04  4.71380E+04 -6.63423E+04 -4.00044E+02
 -5.30778E+04 -5.64697E+04 -6.69154E+03 -7.64421E+04  3.36683E+04 -5.46738E+04  4.75931E+04 -1.72021E+04
  4.28920E+04  1.13284E+04  3.14648E+04  2.49698E+04  1.56676E+04  2.93415E+04 -5.09473E+03  2.73887E+04
 -2.18914E+04  1.25344E+04 -1.86942E+04 -4.71105E+03  5.00201E+03 -7.70813E+03  2.18675E+04  1.19173E+04
  7.35772E+03  3.47231E+04 -3.17903E+04  3.51585E+04 -6.27052E+04  2.17886E+03 -5.65243E+04 -4.21613E+04
 -1.24769E+04 -6.23012E+04  3.92256E+04 -4.47456E+04  5.69947E+04 -2.12704E+03  3.37710E+04  3.18004E+04
 -6.20532E+03  3.50360E+04 -2.94919E+04  1.48711E+04 -2.92201E+04 -4.63894E+03 -1.61316E+04 -1.05733E+04
 -8.31996E+03 -1.25066E+04 -8.58983E+02 -1.75768E+04  6.91962E+03 -2.27850E+04  1.52784E+04 -1.37561E+04
  1.18153E+04  4.69344E+03 -7.65890E+03  1.27426E+04 -2.03938E+04 -3.79225E+03 -8.27191E+03 -3.26399E+04
  2.21719E+04 -4.23825E+04  4.65892E+04 -1.92291E+04  4.38758E+04  1.91545E+04  1.49811E+04  4.33706E+04
 -1.55371E+04  3.26646E+04 -2.47015E+04  1.52830E+03 -9.03882E+03 -2.70761E+04  2.07050E+04 -3.29453E+04
  3.97858E+04 -8.25816E+03  3.40938E+04  2.33013E+04  1.67095E+04  4.49641E+04 -7.88711E+03  4.78894E+04
 -3.05227E+04  3.21612E+04 -4.01280E+04  9.09995E+03 -4.05829E+04 -1.61740E+04 -2.23752E+04 -3.68788E+04
  7.52838E+03 -3.65889E+04  3.04995E+04 -1.40072E+04  2.77798E+04  1.08588E+04  3.42142E+03  1.83758E+04
 -1.31683E+04  7.89460E+03 -1.01966E+04 -7.81167E+03  5.94643E+03 -1.03177E+04  1.74963E+04  6.12716E+03
  1.29697E+04  2.18928E+04 -6.08129E+03  2.42792E+04 -2.17935E+04  1.06695E+04 -2.69537E+04 -5.45987E+03
 -1.88474E+04 -1.68460E+04 -7.13533E+03 -1.85129E+04  3.89521E+03 -1.75623E+04  1.41957E+04 -1.65464E+04
  2.40190E+04 -1.22205E+04  3.03255E+04  1.83102E+03  2.24279E+04  1.82722E+04  4.11933E+03  3.45253E+04
 -1.70717E+04  2.88882E+04 -2.70388E+04  9.84056E+03 -2.01322E+04 -1.04851E+04 -4.21194E+03 -1.37587E+04
  2.03079E+03 -3.32643E+03 -3.90063E+03  5.87726E+03 -1.46331E+04  5.18369E+03 -1.49890E+04 -6.05435E+03
 -9.35100E+03 -1.70428E+04  4.74571E+03 -2.10489E+04  1.37659E+04 -1.53278E+04  1.64227E+04 -1.52650E+03
  1.02611E+04  1.19812E+04 -6.34285E+02  1.73406E+04 -1.17447E+04  9.76408E+03 -1.71373E+04 -3.58148E+03
 -1.27606E+04 -1.54998E+04 -1.33135E+03 -2.08571E+04  9.35821E+03 -1.70064E+04  1.72952E+04 -8.12748E+03
  1.59600E+04  4.58716E+02  1.16233E+04  4.33184E+03  5.94216E+03  6.35467E+02  8.26076E+03 -1.68757E+03
  1.56008E+04  2.80544E+03  1.68274E+04  1.38535E+04  1.05272E+04  2.73309E+04 -2.94003E+03  2.98734E+04
 -1.74680E+04  2.36452E+04 -2.72686E+04  1.16041E+04 -2.87362E+04 -2.02831E+03 -2.44085E+04 -1.64563E+04
 -1.08872E+04 -2.37040E+04  8.03994E+03 -2.14542E+04  1.86910E+04 -1.16093E+04  1.72957E+04  4.42674E+03
  6.87010E+03  1.26354E+04 -7.89961E+03  1.12330E+04 -1.44480E+04  2.54234E+03 -1.13464E+04 -8.61465E+03
 -9.66253E+01 -1.37334E+04  7.02471E+03 -1.03723E+04  8.84613E+03 -1.42001E+03  1.72376E+03  5.51131E+03
 -6.29031E+03  1.87524E+03 -4.54855E+03 -5.09251E+03  1.91239E+02 -1.12556E+04  8.70424E+03 -1.14272E+04
  1.40338E+04 -5.71075E+03  1.43455E+04  2.98191E+03  1.24969E+04  1.08593E+04  6.02742E+03  1.62283E+04
 -2.37218E+03  1.81806E+04 -1.14541E+04  1.15387E+04 -1.30630E+04  2.87630E+03 -9.79665E+03 -2.61678E+03
 -4.74351E+03 -3.54254E+03 -9.13693E+02  1.26353E+03 -1.95249E+03  2.22271E+03 -4.11653E+03  4.01090E+03
 -8.71994E+03 -3.85022E+02 -9.72284E+03 -7.93660E+03 -3.72079E+03 -1.25173E+04  4.22881E+03 -9.48889E+03
  8.03838E+03 -4.37572E+03  5.83755E+03  2.41953E+03  4.63236E+02  3.58499E+03 -3.83581E+03 -9.58585E+01
 -3.85821E+03 -5.67213E+03 -6.80931E+02 -8.48180E+03  4.57445E+03 -8.87437E+03  1.12115E+04 -4.72314E+03
  1.33855E+04  8.65905E+02  1.00502E+04  7.19351E+03  2.11399E+03  9.85466E+03 -5.80431E+03  8.88740E+03
 -7.74614E+03  3.08563E+03 -3.63118E+03 -1.51439E+03  1.39560E+03 -2.15795E+03  5.04093E+03 -1.11246E+03
  4.53337E+03  3.83253E+03  1.21489E+03  7.15441E+03 -5.08534E+03  7.22238E+03 -8.64125E+03  1.84351E+03
 -5.68753E+03 -4.08353E+03  5.26333E+02 -7.19704E+03  4.11916E+03 -3.68628E+03  4.32402E+03  1.12202E+03
  6.63917E+02  4.15418E+03 -4.46477E+03  5.25798E+03 -5.80992E+03  2.61478E+03 -5.47690E+03 -1.66249E+03
 -3.59616E+03 -7.02330E+03  1.87674E+03 -8.20050E+03  7.17801E+03 -5.41783E+03  7.30747E+03  1.12577E+03
  5.45315E+03  6.10575E+03 -6.98837E+01  7.94705E+03 -5.70795E+03  4.53355E+03 -6.30248E+03 -6.05651E+02
 -6.30877E+03 -5.81660E+03 -1.05730E+03 -6.14115E+03  3.10756E+03 -5.41682E+03  3.39980E+03 -3.06282E+03
  3.17835E+03  2.77888E+02 -2.60623E+02  1.12374E+03  5.69015E+02 -4.74640E+02  5.43959E+02 -2.29266E+03
  4.64662E+03 -1.21634E+03  6.09054E+03  9.57177E+02  6.36552E+03  4.11292E+03  5.71738E+03  8.65538E+03
 -1.74570E+03  9.88812E+03 -8.53614E+03  7.49936E+03 -1.12846E+04  1.36523E+03 -8.56427E+03 -2.92470E+03
 -4.72543E+03 -7.80625E+03 -3.95243E+02 -6.06220E+03  2.18902E+03 -2.89975E+03  2.14293E+03 -2.57478E+03
  1.47576E+03 -1.80304E+03  2.39520E+03 -2.22337E+03  3.53888E+03 -1.73326E+03  4.12760E+03  2.76950E+02
  4.98635E+03  8.70935E+02  1.39284E+03  3.80971E+03 -1.56740E+03  3.41233E+03 -4.72561E+03  2.97353E+03
 -5.51597E+03 -9.11789E+02 -2.45036E+03 -3.92453E+03  2.72664E+02 -6.12000E+03  3.53953E+03 -6.19120E+03
  5.80673E+03 -3.53778E+03  7.56752E+03  6.77230E+02  5.74847E+03  4.70865E+03  1.20449E+03  7.08095E+03
 -2.46304E+03  6.47285E+03 -3.68373E+03  2.22020E+03 -2.20833E+03 -8.58986E+02 -6.75924E+02 -7.31102E+02
 -2.91140E+02  6.11517E+02 -8.68335E+02  1.97150E+03 -2.55369E+03  1.23908E+03 -4.46019E+03 -2.82533E+02
 -2.00000E+03 -4.54257E+03  6.16735E+02 -5.32369E+03  2.97523E+03 -4.59758E+03  4.01978E+03 -1.15886E+03
  4.22911E+03  2.73578E+03  1.92536E+03  3.87231E+03 -9.56897E+02  4.91062E+03 -3.36118E+03  2.85267E+03
 -4.15618E+03  5.96478E+02 -3.88611E+03 -2.54880E+03 -1.85303E+02 -3.79555E+03  2.00279E+03 -2.71639E+03
  2.97431E+03 -1.34112E+03  2.19937E+03  2.09697E+02  7.34677E+02  1.84779E+03  1.19639E+03  4.55369E+02
  1.72989E+03  4.38852E+02  8.65798E+02  9.28105E+02  1.27749E+03  2.25798E+03  1.54787E+03  1.97501E+03
 -1.42396E+03  3.27111E+03 -2.87590E+03  4.42900E+03 -3.47952E+03  1.44158E+03 -4.94233E+03 -5.29314E+02
 -2.03637E+03 -3.97821E+03  8.83632E+02 -5.26579E+03  2.54100E+03 -2.84710E+03  3.56471E+03 -1.00253E+03
  2.75716E+03  1.95667E+03  5.14720E+02  2.76601E+03 -7.33843E+02  1.14952E+03 -1.10005E+03 -2.17623E+02
 -6.88258E+02 -1.78881E+03  1.61710E+03 -1.99309E+03  1.30454E+03 -1.30708E+03  1.36836E+03  6.24773E+02
  1.00125E+03  2.66945E+02  6.90830E+02  2.84652E+01 -1.28120E+02  5.58338E+02  1.59340E+03 -1.12353E+02
  1.75462E+02 -2.88034E+02  1.84361E+03  5.18068E+02  2.89192E+02  2.84261E+03 -2.51627E+02  2.98278E+03
 -1.95018E+03  9.51937E+02 -2.09233E+03  2.72612E+02 -2.74362E+03 -8.13550E+02 -1.58353E+02 -7.85278E+02
  4.02728E+02 -1.35235E+03  9.97715E+02 -1.01176E+03  3.27046E+02  1.03892E+03 -5.59095E+02  1.30797E+03
 -1.76721E+03  4.37537E+02 -1.14285E+03 -1.16615E+03 -5.20099E+02 -2.25704E+03  1.29541E+02 -1.64260E+03
  3.57386E+02 -4.60712E+02  8.57163E+02  2.47822E+02  1.43529E+03  4.70411E+01  1.18713E+01  1.04009E+03
 -4.79315E+02 -2.33784E+02 -1.30635E+03 -2.39307E+02  6.14895E+02 -9.08184E+02  2.22018E+03 -9.60860E+02
  1.36707E+03  3.37533E+02  2.99571E+03  8.18854E+02  1.03860E+03  1.97370E+03 -5.30836E+02  1.90581E+03
 -1.47993E+03  5.18638E+02 -1.69278E+03 -1.55751E+02 -1.01691E+03 -1.50117E+03  2.01609E+02 -5.79612E+02
  1.72225E+03 -6.91592E+02  1.00212E+03  6.47174E+02  1.38981E+02  1.28833E+03  1.60721E+02  1.09726E+03
 -2.81001E+02  1.11221E+03 -2.94892E+02  3.03070E+02 -9.70698E+01  2.31743E+02 -7.28168E+02  4.96993E+02
 -5.75938E+02  1.17490E+03 -2.13327E+03  4.15741E+02 -1.90037E+03  1.66450E+02 -2.37738E+03 -1.20563E+03
 -1.22609E+03 -2.41592E+03  5.33903E+02 -2.85112E+03  1.11827E+03 -2.58533E+03  3.07416E+03 -9.51820E+02
  2.41170E+03 -2.67005E+02  1.28900E+03  1.70847E+03 -7.08171E+02  1.40880E+03 -8.79639E+02  1.45422E+03
 -8.82763E+02  7.93127E+02 -3.91183E+02 -1.69602E+02 -4.04303E+02  4.07968E+02 -6.64136E+02  1.45409E+02
 -9.25891E+02 -4.60405E+01 -6.57874E+02  2.18725E+02  3.53968E+02 -4.89421E+02 -3.56047E+02 -8.86269E+02
  1.24827E+03 -6.85574E+02  3.37986E+02  1.51146E+02  1.10281E+03  1.02296E+03 -3.49850E+02  1.56744E+03
 -8.68555E+02  2.18124E+03 -1.39867E+03  1.33556E+03 -2.01288E+03 -3.36032E+02 -1.20539E+03 -1.30400E+03
 -8.63949E+02 -1.00500E+03 -1.40644E+02 -1.22072E+03  8.07415E+02 -5.62126E+02  7.65506E+02  3.08003E+02
  1.03403E+03  1.17980E+02  3.74757E+02  5.16551E+02 -1.36000E+02 -2.29866E+01 -5.67375E+01 -1.34254E+02
  4.73516E+02  2.49345E+01  4.28856E+02  7.20497E+02 -7.05283E+01  7.31429E+02  4.36625E+02  4.45170E+02
 -7.15916E+02  7.67047E+02 -6.45920E+02  1.03134E+02 -9.59372E+02 -6.39314E+02  1.95485E+01 -1.24811E+03
  5.55954E+02 -9.37821E+02  6.57852E+02 -2.59981E+01  1.07034E+03 -5.21323E+02  4.15840E+02  8.11471E+02
  3.83816E+02  3.75495E+02 -3.21480E+02  5.50303E+02 -8.54932E+02  7.91043E+02 -3.53165E+02  1.06747E+02
 -1.26459E+02 -7.78040E+01 -5.97583E+02  2.05784E+02 -5.56692E+02  1.95450E+02 -7.58948E+02 -3.12344E+02
 -9.51027E+02  3.04882E+02 -4.34636E+02 -1.41569E+03  7.00588E+02 -1.63051E+03  7.17700E+02 -8.38753E+01
  5.46364E+02  1.46499E+02 -2.22339E+02  2.33874E+02  8.96910E+01  7.47625E+02 -5.86185E+02  3.73444E+02
