 $NMID ID='MM_0lb_SNR800_15hz_g50_26.RAW', FMTDAT='(8E13.5)'
 TRAMP=1., VOLUME=1. $END
  3.09744E+05  4.20040E+02  3.37395E+05  2.50701E+05  8.46290E+04  3.37857E+05 -1.32602E+05  2.50974E+05
 -1.90430E+05  8.32609E+04 -1.11607E+05 -3.28636E+04  8.54555E+02 -5.03792E+04  5.37346E+04 -3.64219E+01
  3.53087E+04  5.29317E+04 -1.67460E+04  7.54070E+04 -6.07523E+04  6.35375E+04 -8.39415E+04  3.21590E+04
 -8.07545E+04 -1.15513E+04 -5.72130E+04 -5.11555E+04 -1.51338E+04 -6.94853E+04  2.73196E+04 -4.54168E+04
  4.00972E+04  3.93062E+03  1.58361E+04  4.77794E+04 -3.42657E+04  4.70177E+04 -6.69940E+04 -4.06583E+02
 -5.31350E+04 -5.68976E+04 -7.02066E+03 -7.66447E+04  3.38294E+04 -5.45598E+04  4.78116E+04 -1.71445E+04
  4.31163E+04  1.12851E+04  3.12886E+04  2.50904E+04  1.56583E+04  2.91619E+04 -5.21269E+03  2.71755E+04
 -2.18717E+04  1.25388E+04 -1.87399E+04 -5.16929E+03  5.27001E+03 -7.38687E+03  2.20612E+04  1.18881E+04
  7.17717E+03  3.49096E+04 -3.15152E+04  3.53422E+04 -6.29007E+04  2.14310E+03 -5.67392E+04 -4.27185E+04
 -1.26116E+04 -6.26888E+04  3.96055E+04 -4.53309E+04  5.76001E+04 -2.08993E+03  3.40900E+04  3.18703E+04
 -6.15290E+03  3.57175E+04 -3.00111E+04  1.52550E+04 -3.01006E+04 -4.52600E+03 -1.63212E+04 -1.09737E+04
 -8.27782E+03 -1.25399E+04 -8.34447E+02 -1.77840E+04  6.91214E+03 -2.27197E+04  1.52243E+04 -1.35424E+04
  1.16428E+04  5.14616E+03 -7.90810E+03  1.33240E+04 -2.10312E+04 -3.95683E+03 -8.33139E+03 -3.30588E+04
  2.25566E+04 -4.31280E+04  4.76503E+04 -1.92348E+04  4.44829E+04  1.93295E+04  1.55639E+04  4.36251E+04
 -1.56549E+04  3.27996E+04 -2.50049E+04  1.54600E+03 -9.64058E+03 -2.76611E+04  2.09068E+04 -3.32891E+04
  4.07545E+04 -8.72557E+03  3.46579E+04  2.36204E+04  1.79116E+04  4.59275E+04 -7.82624E+03  4.95801E+04
 -3.11349E+04  3.32251E+04 -4.11200E+04  9.40226E+03 -4.21187E+04 -1.67229E+04 -2.30446E+04 -3.73140E+04
  7.23741E+03 -3.70710E+04  3.12145E+04 -1.41641E+04  2.89069E+04  1.10340E+04  4.05337E+03  1.90409E+04
 -1.34056E+04  8.18357E+03 -1.03488E+04 -7.44574E+03  6.08549E+03 -1.07693E+04  1.80949E+04  5.97810E+03
  1.34083E+04  2.20480E+04 -6.24013E+03  2.49938E+04 -2.21261E+04  1.09361E+04 -2.75404E+04 -5.03053E+03
 -1.99707E+04 -1.72327E+04 -8.38068E+03 -2.00467E+04  4.05951E+03 -1.90679E+04  1.49737E+04 -1.76312E+04
  2.51192E+04 -1.26525E+04  3.15588E+04  2.41635E+03  2.34754E+04  1.92461E+04  4.35420E+03  3.58717E+04
 -1.75844E+04  2.99948E+04 -2.75416E+04  1.03989E+04 -2.06644E+04 -1.01012E+04 -4.43520E+03 -1.38937E+04
  1.80701E+03 -3.14869E+03 -4.64130E+03  6.56529E+03 -1.56107E+04  5.17838E+03 -1.59376E+04 -6.73290E+03
 -9.56832E+03 -1.81124E+04  5.22511E+03 -2.25817E+04  1.47913E+04 -1.58263E+04  1.72694E+04 -1.42292E+03
  1.10529E+04  1.27308E+04 -1.10945E+03  1.83941E+04 -1.26463E+04  1.04508E+04 -1.83216E+04 -3.96108E+03
 -1.36872E+04 -1.69013E+04 -1.47951E+03 -2.21120E+04  1.02467E+04 -1.80522E+04  1.85760E+04 -9.17856E+03
  1.75011E+04  3.23353E+02  1.21634E+04  4.49484E+03  6.53245E+03  1.15637E+03  9.18178E+03 -1.74157E+03
  1.65689E+04  2.70092E+03  1.85203E+04  1.45796E+04  1.21551E+04  2.90886E+04 -2.76763E+03  3.30944E+04
 -1.93943E+04  2.59073E+04 -3.04962E+04  1.29105E+04 -3.15583E+04 -2.37913E+03 -2.64178E+04 -1.81592E+04
 -1.15341E+04 -2.60984E+04  9.07784E+03 -2.33684E+04  2.04280E+04 -1.21732E+04  1.88362E+04  5.25240E+03
  7.18213E+03  1.35789E+04 -8.83383E+03  1.21149E+04 -1.53138E+04  2.49570E+03 -1.20636E+04 -9.49833E+03
 -1.98789E+02 -1.50811E+04  7.64613E+03 -1.10456E+04  9.70501E+03 -1.55708E+03  1.99582E+03  6.45851E+03
 -6.48808E+03  2.00594E+03 -5.64887E+03 -5.16198E+03 -3.01249E+02 -1.28027E+04  9.17331E+03 -1.33251E+04
  1.55859E+04 -6.66143E+03  1.69134E+04  2.87411E+03  1.43549E+04  1.23099E+04  6.68620E+03  1.88364E+04
 -2.94692E+03  2.06093E+04 -1.34949E+04  1.31386E+04 -1.48448E+04  3.34130E+03 -1.09052E+04 -3.26141E+03
 -4.89054E+03 -4.44767E+03 -7.81912E+02  1.38664E+03 -2.58898E+03  2.26864E+03 -4.97303E+03  4.30338E+03
 -9.91273E+03 -7.37019E+02 -1.07594E+04 -8.50206E+03 -4.68765E+03 -1.40176E+04  4.55991E+03 -1.06994E+04
  8.88774E+03 -4.72860E+03  6.42885E+03  2.81070E+03  1.77752E+02  4.13942E+03 -4.71945E+03 -1.39768E+02
 -4.84334E+03 -6.46180E+03 -9.35580E+02 -9.54176E+03  5.52379E+03 -1.06057E+04  1.31993E+04 -5.63906E+03
  1.56454E+04  1.34224E+03  1.13575E+04  8.73686E+03  2.06377E+03  1.18978E+04 -6.68211E+03  1.06381E+04
 -8.64472E+03  3.45260E+03 -4.28669E+03 -2.06031E+03  1.81321E+03 -2.79366E+03  6.11852E+03 -1.17982E+03
  5.24199E+03  4.69096E+03  9.85230E+02  8.43355E+03 -5.86343E+03  8.23428E+03 -1.04031E+04  2.19377E+03
 -6.75501E+03 -5.15599E+03  2.02514E+02 -8.41542E+03  5.20671E+03 -4.44245E+03  4.96589E+03  1.61436E+03
  9.78064E+02  5.19350E+03 -5.37717E+03  6.96414E+03 -7.52248E+03  3.33061E+03 -7.19070E+03 -2.16496E+03
 -4.19031E+03 -9.19344E+03  2.22801E+03 -1.03179E+04  8.86515E+03 -6.58096E+03  9.65846E+03  1.81967E+03
  6.27109E+03  7.64046E+03 -3.57273E+02  9.59683E+03 -6.79032E+03  5.49392E+03 -7.37734E+03 -7.64121E+02
 -7.24413E+03 -6.72751E+03 -1.53912E+03 -7.22243E+03  3.57048E+03 -5.99803E+03  4.56780E+03 -3.17421E+03
  3.60616E+03  7.49885E+02 -4.11037E+02  1.77188E+03  3.44057E+01 -1.01663E+03  8.63446E+02 -3.48776E+03
  5.97728E+03 -1.97015E+03  8.12336E+03  1.14959E+03  8.37601E+03  5.20014E+03  6.77575E+03  1.08878E+04
 -2.40030E+03  1.30833E+04 -1.12946E+04  9.74664E+03 -1.45477E+04  1.88895E+03 -1.13461E+04 -3.87741E+03
 -5.88845E+03 -9.84070E+03 -6.30691E+02 -7.87972E+03  3.06821E+03 -3.99270E+03  2.96941E+03 -2.99443E+03
  1.93380E+03 -1.90084E+03  2.93326E+03 -2.87468E+03  4.22120E+03 -1.73206E+03  4.58208E+03 -3.07639E+02
  6.34656E+03  1.46653E+03  2.75381E+03  5.08606E+03 -1.94289E+03  5.02845E+03 -6.46802E+03  4.51464E+03
 -7.88743E+03 -1.17983E+03 -4.24940E+03 -5.17143E+03  1.17285E+02 -7.93321E+03  4.53890E+03 -7.95897E+03
  8.40232E+03 -5.14033E+03  1.01982E+04  8.64306E+02  7.44822E+03  6.85187E+03  1.46133E+03  8.68177E+03
 -3.66336E+03  7.91985E+03 -5.26215E+03  2.69052E+03 -3.08869E+03 -9.17488E+02 -1.05927E+03 -1.23004E+03
 -7.58491E+02  1.65974E+02 -1.32319E+03  2.62561E+03 -3.27960E+03  1.31783E+03 -5.73498E+03 -9.95386E+02
 -3.12573E+03 -5.98671E+03  6.93348E+02 -6.84839E+03  4.33510E+03 -6.75129E+03  6.34932E+03 -1.91512E+03
  6.90735E+03  3.66396E+03  2.99876E+03  5.84741E+03 -1.39957E+03  6.97424E+03 -4.69893E+03  4.45036E+03
 -6.57618E+03  5.23394E+02 -5.34236E+03 -4.53155E+03 -3.88570E+02 -5.59566E+03  2.80922E+03 -4.16581E+03
  4.51037E+03 -1.56595E+03  3.25412E+03  1.08658E+03  8.16692E+02  2.30422E+03  1.11025E+03  1.07501E+03
  1.88888E+03  7.10574E+02  1.62823E+03  1.01802E+03  1.89689E+03  2.93609E+03  2.03908E+03  3.61559E+03
 -1.79047E+03  5.10156E+03 -4.21251E+03  5.83124E+03 -6.22844E+03  1.59506E+03 -7.20011E+03 -2.06147E+03
 -3.00122E+03 -6.34352E+03  1.08619E+03 -7.51819E+03  3.57068E+03 -4.64330E+03  5.26336E+03 -1.37480E+03
  4.01928E+03  2.70465E+03  9.72431E+02  3.74550E+03 -1.36783E+03  2.21817E+03 -1.92216E+03 -1.44251E+02
 -1.48112E+03 -2.54625E+03  1.85356E+03 -2.67420E+03  2.58027E+03 -1.29867E+03  2.51127E+03  7.33231E+02
  1.44062E+03  9.77031E+02  8.02778E+02  3.53663E+02 -5.79486E+02  1.16285E+03  1.66437E+03 -3.70307E+02
  7.57053E+02 -3.85916E+02  2.72196E+03  9.23868E+02  1.02632E+03  3.76900E+03 -4.04823E+02  4.90319E+03
 -2.78724E+03  2.13094E+03 -3.72259E+03  5.63819E+02 -3.73947E+03 -1.41523E+03 -1.03489E+03 -1.98051E+03
  6.73347E+02 -2.50578E+03  1.56188E+03 -1.05476E+03  1.54584E+03  1.89144E+03 -9.04521E+02  1.66226E+03
 -2.76442E+03  1.15064E+03 -2.66704E+03 -1.93458E+03 -1.40609E+03 -3.45621E+03  7.44397E+02 -3.04653E+03
  1.54735E+03 -1.45712E+03  2.08322E+03 -1.80238E+02  2.20682E+03  4.56137E+02  5.67159E+02  2.04854E+03
 -9.54510E+02  5.88746E+02 -1.71248E+03 -7.74133E+02  5.38681E+02 -2.10050E+03  3.13019E+03 -2.06000E+03
  3.21479E+03  5.27322E+02  4.35227E+03  1.68918E+03  1.67629E+03  3.22535E+03 -8.72832E+02  3.48342E+03
 -3.04870E+03  1.10307E+03 -2.99133E+03 -5.28962E+02 -2.04737E+03 -2.72304E+03  6.73157E+02 -1.87854E+03
  2.47078E+03 -1.15545E+03  1.95686E+03  1.31647E+03  6.51223E+02  2.26981E+03 -1.31246E+02  1.89022E+03
 -5.69574E+02  1.59756E+03 -9.05605E+02  3.06677E+02 -5.08205E+02  2.77854E+02 -7.68472E+02  9.54061E+02
 -9.01330E+02  1.58637E+03 -2.92959E+03  1.13531E+03 -3.69033E+03  4.56687E+02 -4.32986E+03 -2.20460E+03
 -2.20783E+03 -4.53920E+03  9.25705E+02 -5.63895E+03  2.94093E+03 -4.12550E+03  5.06113E+03 -1.80974E+03
  4.95283E+03  4.66566E+02  2.36736E+03  3.17646E+03 -2.55427E+02  3.00166E+03 -1.60598E+03  2.27896E+03
 -1.85439E+03  1.35826E+03 -9.18278E+02 -6.06129E+02 -3.11189E+02  2.63919E+02 -6.98609E+02  8.44498E+01
 -1.60166E+03 -1.60795E+02 -9.84585E+02 -1.15413E+02 -4.34287E+00 -1.31446E+03 -1.91064E+02 -1.44579E+03
  2.22299E+03 -9.75719E+02  1.49999E+03 -6.64286E+01  2.24606E+03  2.17834E+03 -2.65288E+01  2.99150E+03
 -1.99202E+03  3.90220E+03 -3.21036E+03  2.14655E+03 -3.90390E+03 -3.83686E+02 -2.73258E+03 -2.55182E+03
 -1.39230E+03 -3.11840E+03  7.11096E+02 -2.93997E+03  1.69231E+03 -1.51109E+03  1.94998E+03  1.65137E+02
  1.25691E+03  1.18901E+03  1.33734E+02  9.61665E+02 -7.40146E+02 -2.12309E+02  1.28821E+02 -2.47106E+02
  1.05915E+03 -7.16900E+01  1.08563E+03  5.94556E+02  2.07423E+02  9.93781E+02  9.87154E+01  1.26787E+03
 -1.44310E+03  1.13136E+03 -1.98052E+03  6.16241E+02 -1.86017E+03 -1.31415E+03 -3.58535E+02 -2.51228E+03
  1.15561E+03 -2.10994E+03  1.84736E+03 -5.20969E+02  2.03927E+03 -4.16715E+02  1.09002E+03  1.90023E+03
  5.12497E+02  1.51506E+03 -4.71907E+02  1.41565E+03 -1.19445E+03  1.06433E+03 -1.30539E+03 -1.28641E+01
 -2.45707E+02  3.35423E+01 -6.79533E+02  2.61004E+02 -9.83793E+02  4.22088E+01 -1.65182E+03 -4.16982E+02
 -1.64488E+03 -3.96654E+02 -3.78992E+01 -2.10790E+03  1.13845E+03 -2.49929E+03  1.90612E+03 -9.20838E+02
  1.69666E+03  2.44404E+02  2.47947E+02  9.07222E+02  1.12784E+02  2.05374E+03 -1.19895E+03  1.36760E+03
