 $NMID ID='MM_0lb_SNR800_15hz_g55_14.RAW', FMTDAT='(8E13.5)'
 TRAMP=1., VOLUME=1. $END
  3.09910E+05  4.21534E+02  3.37864E+05  2.50438E+05  8.47870E+04  3.38120E+05 -1.32776E+05  2.50997E+05
 -1.90320E+05  8.32526E+04 -1.11591E+05 -3.24694E+04  8.88217E+02 -5.08286E+04  5.37014E+04 -1.52577E+02
  3.54467E+04  5.27162E+04 -1.64639E+04  7.56303E+04 -6.08044E+04  6.34449E+04 -8.40885E+04  3.21360E+04
 -8.10546E+04 -1.16697E+04 -5.73744E+04 -5.13076E+04 -1.47825E+04 -6.97946E+04  2.77546E+04 -4.55028E+04
  4.03751E+04  3.97431E+03  1.63667E+04  4.77312E+04 -3.42783E+04  4.72489E+04 -6.68408E+04 -8.39011E+01
 -5.31105E+04 -5.72360E+04 -6.93692E+03 -7.72676E+04  3.37828E+04 -5.51956E+04  4.78168E+04 -1.71244E+04
  4.36174E+04  1.13126E+04  3.16341E+04  2.56773E+04  1.58294E+04  2.95289E+04 -5.28249E+03  2.72709E+04
 -2.17984E+04  1.25820E+04 -1.86572E+04 -4.62155E+03  5.70790E+03 -7.46370E+03  2.22854E+04  1.23999E+04
  7.23632E+03  3.54743E+04 -3.18513E+04  3.54038E+04 -6.38039E+04  2.42327E+03 -5.71904E+04 -4.26743E+04
 -1.23588E+04 -6.32391E+04  3.98629E+04 -4.52165E+04  5.85264E+04 -2.00853E+03  3.39905E+04  3.24036E+04
 -6.04086E+03  3.59150E+04 -2.98470E+04  1.59772E+04 -3.02878E+04 -4.70645E+03 -1.68367E+04 -1.09555E+04
 -8.17722E+03 -1.31254E+04 -6.92467E+02 -1.80385E+04  7.42769E+03 -2.29985E+04  1.52956E+04 -1.32243E+04
  1.11664E+04  5.06567E+03 -8.21774E+03  1.29752E+04 -2.13362E+04 -4.70559E+03 -7.96900E+03 -3.37247E+04
  2.29734E+04 -4.35772E+04  4.86183E+04 -1.98294E+04  4.51174E+04  1.94938E+04  1.57723E+04  4.41781E+04
 -1.58835E+04  3.37051E+04 -2.50948E+04  1.73115E+03 -9.93493E+03 -2.79547E+04  2.10072E+04 -3.37650E+04
  4.05455E+04 -8.92442E+03  3.57090E+04  2.39757E+04  1.81426E+04  4.64282E+04 -7.88746E+03  5.01054E+04
 -3.16120E+04  3.36238E+04 -4.17359E+04  9.43897E+03 -4.23126E+04 -1.67613E+04 -2.35174E+04 -3.78992E+04
  7.43750E+03 -3.78275E+04  3.12779E+04 -1.46833E+04  2.95223E+04  1.09456E+04  4.22232E+03  1.92515E+04
 -1.34020E+04  8.39117E+03 -1.02733E+04 -7.80888E+03  6.03581E+03 -1.05943E+04  1.77879E+04  6.00620E+03
  1.32569E+04  2.18343E+04 -6.17363E+03  2.50600E+04 -2.23520E+04  1.16211E+04 -2.80708E+04 -4.78735E+03
 -2.04427E+04 -1.71534E+04 -8.51177E+03 -2.04168E+04  3.63498E+03 -1.94359E+04  1.57801E+04 -1.84165E+04
  2.59830E+04 -1.29201E+04  3.24468E+04  2.55601E+03  2.34663E+04  1.94597E+04  4.43321E+03  3.64696E+04
 -1.75084E+04  3.03480E+04 -2.78624E+04  1.03012E+04 -2.11775E+04 -1.05462E+04 -4.11619E+03 -1.37493E+04
  1.88441E+03 -2.94201E+03 -4.78527E+03  6.64152E+03 -1.61294E+04  5.20039E+03 -1.61735E+04 -6.90621E+03
 -9.87151E+03 -1.87063E+04  5.15324E+03 -2.32238E+04  1.49564E+04 -1.65767E+04  1.79622E+04 -1.73592E+03
  1.11620E+04  1.31214E+04 -1.30378E+03  1.88006E+04 -1.27894E+04  1.09158E+04 -1.89164E+04 -3.95354E+03
 -1.39380E+04 -1.70520E+04 -1.79765E+03 -2.27434E+04  1.00627E+04 -1.88180E+04  1.90409E+04 -9.55092E+03
  1.78290E+04  2.14912E+02  1.28906E+04  4.48655E+03  6.39573E+03  6.96866E+02  9.41996E+03 -1.96636E+03
  1.74542E+04  2.81226E+03  1.90830E+04  1.49101E+04  1.25549E+04  3.01071E+04 -2.70757E+03  3.38963E+04
 -1.95505E+04  2.70217E+04 -3.13023E+04  1.37659E+04 -3.31834E+04 -2.32575E+03 -2.73468E+04 -1.89201E+04
 -1.17504E+04 -2.71672E+04  9.24406E+03 -2.42843E+04  2.09887E+04 -1.25026E+04  1.90859E+04  5.35876E+03
  7.35038E+03  1.40036E+04 -8.87438E+03  1.25752E+04 -1.62496E+04  2.53533E+03 -1.20787E+04 -9.85503E+03
 -1.73317E+02 -1.49770E+04  7.73347E+03 -1.11932E+04  1.00158E+04 -1.30781E+03  1.98362E+03  6.46082E+03
 -6.63854E+03  2.67062E+03 -5.66537E+03 -5.61130E+03 -5.26352E+01 -1.31918E+04  9.54597E+03 -1.37856E+04
  1.65040E+04 -6.94398E+03  1.78355E+04  3.01091E+03  1.52599E+04  1.31734E+04  7.04874E+03  1.96420E+04
 -3.14106E+03  2.17499E+04 -1.36436E+04  1.33910E+04 -1.56721E+04  3.05858E+03 -1.11312E+04 -3.20857E+03
 -5.24588E+03 -4.63437E+03 -7.82973E+02  8.52277E+02 -2.39830E+03  2.24202E+03 -5.16175E+03  4.22405E+03
 -1.02737E+04 -6.15185E+02 -1.08510E+04 -8.72892E+03 -4.50862E+03 -1.43910E+04  4.24171E+03 -1.13893E+04
  8.84475E+03 -4.97973E+03  6.89292E+03  2.98555E+03  3.36143E+02  4.17152E+03 -5.12544E+03 -4.65193E+01
 -4.70364E+03 -6.71258E+03 -8.15542E+02 -1.00208E+04  5.66202E+03 -1.07752E+04  1.33269E+04 -6.01506E+03
  1.61116E+04  1.23870E+03  1.15200E+04  9.10103E+03  2.45614E+03  1.22579E+04 -6.91223E+03  1.07706E+04
 -8.87475E+03  3.45681E+03 -4.69806E+03 -1.78665E+03  1.92195E+03 -2.87563E+03  6.24284E+03 -7.55197E+02
  5.33417E+03  4.60859E+03  9.86101E+02  8.50265E+03 -6.46202E+03  8.54884E+03 -1.08690E+04  1.83350E+03
 -7.00033E+03 -5.34013E+03  1.44581E+02 -8.72281E+03  5.73281E+03 -4.90627E+03  5.70936E+03  1.89657E+03
  1.06262E+03  5.19153E+03 -5.62311E+03  7.20142E+03 -7.72132E+03  3.50203E+03 -7.63799E+03 -2.19253E+03
 -4.92705E+03 -9.33508E+03  2.07958E+03 -1.07696E+04  9.24862E+03 -6.62794E+03  9.91401E+03  1.48371E+03
  6.63379E+03  8.26285E+03 -6.61415E+02  1.03029E+04 -7.11459E+03  5.74699E+03 -7.94710E+03 -7.99773E+02
 -7.36903E+03 -6.87114E+03 -1.46109E+03 -7.39464E+03  3.87639E+03 -6.38141E+03  4.59094E+03 -3.12380E+03
  3.48112E+03  7.85578E+02 -5.65300E+02  1.24214E+03  1.80435E+02 -1.26403E+03  9.54320E+02 -3.70834E+03
  6.65382E+03 -2.24579E+03  8.81971E+03  1.46187E+03  8.92481E+03  5.43267E+03  6.53272E+03  1.15157E+04
 -2.51449E+03  1.33963E+04 -1.13882E+04  1.02434E+04 -1.47044E+04  1.74181E+03 -1.20314E+04 -4.29308E+03
 -6.23754E+03 -9.94659E+03 -3.44325E+02 -8.08972E+03  3.10864E+03 -4.18254E+03  2.84101E+03 -3.27003E+03
  2.13631E+03 -1.95932E+03  2.67910E+03 -2.81467E+03  4.29520E+03 -2.11797E+03  4.84755E+03 -2.28366E+02
  6.39361E+03  1.71600E+03  2.59491E+03  5.20752E+03 -1.78716E+03  5.34863E+03 -6.31720E+03  4.16961E+03
 -8.01639E+03 -1.06604E+03 -3.78385E+03 -5.24708E+03  2.76934E+02 -8.37744E+03  4.90435E+03 -8.25702E+03
  8.60878E+03 -5.18352E+03  1.04788E+04  9.68167E+02  7.48504E+03  7.09958E+03  1.38406E+03  9.51235E+03
 -3.72412E+03  8.49795E+03 -5.37018E+03  2.93800E+03 -3.46672E+03 -1.10978E+03 -1.22754E+03 -8.92466E+02
 -7.69142E+02  2.27579E+02 -1.46535E+03  2.22350E+03 -3.79041E+03  1.23127E+03 -6.03356E+03 -5.82582E+02
 -3.18757E+03 -5.96272E+03  5.25601E+02 -7.41249E+03  4.63109E+03 -7.27342E+03  6.74071E+03 -2.19615E+03
  7.17347E+03  3.40762E+03  3.34084E+03  5.96168E+03 -1.26243E+03  7.05960E+03 -4.88078E+03  4.67090E+03
 -6.92066E+03  3.18257E+02 -5.57556E+03 -4.14758E+03 -2.71426E+02 -5.70101E+03  3.07397E+03 -4.46666E+03
  4.72233E+03 -1.94592E+03  3.13694E+03  7.25085E+02  9.11751E+02  2.34856E+03  9.93667E+02  7.63631E+02
  1.84581E+03  8.54099E+02  1.94249E+03  1.40704E+03  2.14443E+03  3.25415E+03  2.49616E+03  3.75773E+03
 -1.75483E+03  5.26090E+03 -4.50008E+03  5.88525E+03 -6.21029E+03  1.60607E+03 -7.20509E+03 -2.14443E+03
 -3.23013E+03 -6.66109E+03  1.01657E+03 -7.66688E+03  3.74174E+03 -4.76951E+03  5.68703E+03 -1.39858E+03
  4.44061E+03  2.86731E+03  1.18535E+03  3.69290E+03 -1.64893E+03  2.35906E+03 -2.44861E+03 -3.28923E+02
 -1.16975E+03 -3.05661E+03  1.72357E+03 -2.61766E+03  2.72526E+03 -1.62613E+03  2.57179E+03  6.96156E+02
  1.47719E+03  7.45604E+02  7.13414E+02  7.43063E+02 -6.17828E+02  1.18885E+03  1.53726E+03 -2.59100E+02
  4.83209E+02 -5.10072E+02  2.68794E+03  9.58203E+02  1.00640E+03  3.85312E+03 -5.97052E+02  4.79031E+03
 -2.86992E+03  2.53904E+03 -3.88359E+03  5.84141E+02 -3.94150E+03 -1.53964E+03 -7.34590E+02 -2.29605E+03
  4.34434E+02 -2.31212E+03  1.58526E+03 -1.05822E+03  1.04505E+03  1.60050E+03 -7.09077E+02  2.21402E+03
 -2.42050E+03  1.48751E+03 -2.56148E+03 -1.95312E+03 -1.35170E+03 -3.37810E+03  4.57934E+02 -3.28135E+03
  1.61665E+03 -1.60935E+03  1.76483E+03 -1.19326E+02  2.36304E+03  4.62621E+02  3.02840E+02  1.85229E+03
 -9.39373E+02  5.06740E+02 -1.56988E+03 -6.97082E+02  8.75669E+02 -1.99529E+03  3.13867E+03 -1.78163E+03
  2.96104E+03  4.21801E+02  4.07687E+03  2.38580E+03  1.33950E+03  3.33284E+03 -1.12676E+03  3.54376E+03
 -2.69956E+03  1.18688E+03 -2.95723E+03 -4.90599E+02 -1.58366E+03 -2.46563E+03  4.74225E+02 -2.06414E+03
  2.76432E+03 -9.99163E+02  1.59156E+03  8.86821E+02  5.06899E+02  2.18553E+03  2.12061E+02  1.95499E+03
 -9.64146E+02  1.55570E+03 -1.18765E+03  9.84229E+01  1.49550E+02  3.47538E+02 -8.94881E+02  9.79080E+02
 -9.10200E+02  1.86458E+03 -2.94211E+03  1.19631E+03 -3.30957E+03  9.80093E+01 -4.45380E+03 -2.19437E+03
 -1.99164E+03 -4.62134E+03  1.18734E+03 -5.37838E+03  2.53742E+03 -4.61305E+03  4.89513E+03 -1.58104E+03
  4.74497E+03  4.03057E+02  2.59020E+03  2.95923E+03 -3.80116E+02  3.23186E+03 -1.30154E+03  2.78988E+03
 -2.32289E+03  1.22766E+03 -1.22517E+03 -6.88702E+02 -4.34810E+02  1.59757E+01 -9.88111E+02  5.70890E+01
 -1.32420E+03  2.47675E+02 -9.72141E+02 -3.96714E+01 -1.04145E+02 -1.16626E+03 -1.88064E+02 -1.21103E+03
  1.77978E+03 -1.13847E+03  1.69344E+03 -6.65895E+01  2.19203E+03  2.12170E+03  4.04595E+02  3.19852E+03
 -1.78298E+03  4.28162E+03 -3.53208E+03  2.19856E+03 -3.80834E+03 -6.65069E+02 -3.07219E+03 -2.60536E+03
 -1.51377E+03 -3.27251E+03  7.98831E+02 -2.79438E+03  1.65169E+03 -1.18825E+03  1.46034E+03 -1.25775E+02
  1.28509E+03  1.30699E+03 -1.33840E+02  7.61181E+02 -4.49743E+02 -1.79223E+02 -6.72560E+01 -5.10956E+02
  8.21069E+02 -1.28210E+02  9.89249E+02  3.32759E+02  6.81238E+02  8.95560E+02  3.37636E+02  1.31172E+03
 -1.58097E+03  1.37978E+03 -1.73706E+03  3.32164E+02 -1.58531E+03 -1.55066E+03 -1.21106E+02 -2.64328E+03
  1.44023E+03 -1.67577E+03  1.66996E+03 -7.90684E+02  2.13628E+03 -8.28942E+01  1.30072E+03  1.74020E+03
  5.03245E+02  1.75856E+03 -2.88688E+02  1.62701E+03 -1.27192E+03  1.15135E+03 -1.12773E+03  3.89952E+02
 -2.97914E+02 -3.34563E+02 -6.28457E+02 -2.43185E+01 -1.20917E+03  1.42656E+02 -1.37424E+03 -5.40685E+02
 -1.84198E+03 -3.18485E+02 -4.50489E+02 -2.21778E+03  1.07660E+03 -2.73664E+03  1.77081E+03 -6.74231E+02
  2.00796E+03  9.39440E+01  5.01265E+02  1.06100E+03 -4.12876E+02  1.77019E+03 -1.17330E+03  1.44262E+03
