 $NMID ID='MM_0lb_SNR800_16hz_g40_15.RAW', FMTDAT='(8E13.5)'
 TRAMP=1., VOLUME=1. $END
  3.10014E+05  4.20203E+02  3.37484E+05  2.50430E+05  8.46277E+04  3.37597E+05 -1.32592E+05  2.50474E+05
 -1.89725E+05  8.25567E+04 -1.11024E+05 -3.28416E+04  1.07086E+03 -5.01761E+04  5.41347E+04  2.58047E+02
  3.51929E+04  5.27815E+04 -1.69569E+04  7.48468E+04 -6.03582E+04  6.30335E+04 -8.31443E+04  3.17361E+04
 -8.00075E+04 -1.11916E+04 -5.65989E+04 -5.03192E+04 -1.50202E+04 -6.87475E+04  2.68752E+04 -4.47378E+04
  3.91519E+04  3.68982E+03  1.54974E+04  4.73519E+04 -3.43254E+04  4.63898E+04 -6.60517E+04 -7.52761E+02
 -5.26606E+04 -5.61159E+04 -6.75269E+03 -7.58316E+04  3.31263E+04 -5.37019E+04  4.68692E+04 -1.65325E+04
  4.24080E+04  1.07492E+04  3.10708E+04  2.45735E+04  1.57837E+04  2.86938E+04 -4.78250E+03  2.68994E+04
 -2.20375E+04  1.26692E+04 -1.88950E+04 -4.44791E+03  4.75058E+03 -7.37630E+03  2.17266E+04  1.12368E+04
  7.47620E+03  3.41747E+04 -3.08983E+04  3.43421E+04 -6.16537E+04  2.14211E+03 -5.57286E+04 -4.15997E+04
 -1.22883E+04 -6.17814E+04  3.89329E+04 -4.37204E+04  5.64527E+04 -2.17377E+03  3.27400E+04  3.08603E+04
 -6.28190E+03  3.39800E+04 -2.88516E+04  1.42912E+04 -2.81785E+04 -5.01798E+03 -1.49163E+04 -1.03803E+04
 -7.56223E+03 -1.18950E+04 -1.09283E+03 -1.71016E+04  7.14235E+03 -2.25494E+04  1.53890E+04 -1.37439E+04
  1.17323E+04  4.54027E+03 -6.74498E+03  1.30732E+04 -1.98142E+04 -3.12320E+03 -8.23508E+03 -3.16323E+04
  2.14063E+04 -4.14324E+04  4.56056E+04 -1.90324E+04  4.27956E+04  1.87273E+04  1.48875E+04  4.26396E+04
 -1.52185E+04  3.19170E+04 -2.41171E+04  1.41153E+03 -8.85760E+03 -2.69974E+04  2.06293E+04 -3.19714E+04
  3.91885E+04 -8.08403E+03  3.27067E+04  2.29010E+04  1.62176E+04  4.37674E+04 -7.80576E+03  4.66239E+04
 -2.91648E+04  3.11360E+04 -3.89031E+04  8.40896E+03 -3.95997E+04 -1.56803E+04 -2.19669E+04 -3.56732E+04
  7.14836E+03 -3.54310E+04  2.98764E+04 -1.33613E+04  2.76669E+04  1.08504E+04  3.34537E+03  1.82517E+04
 -1.33496E+04  7.91211E+03 -9.67230E+03 -7.59763E+03  5.83854E+03 -1.01264E+04  1.78232E+04  6.40848E+03
  1.26888E+04  2.18342E+04 -6.64492E+03  2.40967E+04 -2.15802E+04  1.00050E+04 -2.61621E+04 -5.98612E+03
 -1.82185E+04 -1.65360E+04 -6.59757E+03 -1.79771E+04  4.01292E+03 -1.65242E+04  1.37257E+04 -1.58718E+04
  2.29910E+04 -1.19148E+04  2.96343E+04  1.32282E+03  2.20941E+04  1.74470E+04  4.26319E+03  3.38744E+04
 -1.66449E+04  2.85186E+04 -2.62994E+04  9.79580E+03 -1.98476E+04 -1.04754E+04 -4.31113E+03 -1.37447E+04
  2.36786E+03 -3.45489E+03 -3.35224E+03  5.59130E+03 -1.40789E+04  4.99417E+03 -1.43891E+04 -5.63515E+03
 -8.85910E+03 -1.64974E+04  4.74883E+03 -2.06146E+04  1.35520E+04 -1.50836E+04  1.58840E+04 -1.07878E+03
  9.85699E+03  1.16518E+04 -1.10192E+03  1.65895E+04 -1.12924E+04  9.24250E+03 -1.63935E+04 -3.79598E+03
 -1.24741E+04 -1.51300E+04 -1.51616E+03 -2.04654E+04  9.31911E+03 -1.67930E+04  1.70120E+04 -7.95634E+03
  1.56785E+04  6.78904E+02  1.10297E+04  4.29146E+03  5.84132E+03  6.91654E+02  8.19380E+03 -1.77415E+03
  1.49486E+04  2.57306E+03  1.64916E+04  1.33673E+04  1.02442E+04  2.67986E+04 -2.94907E+03  2.97337E+04
 -1.72250E+04  2.30107E+04 -2.70512E+04  1.10138E+04 -2.79603E+04 -1.89525E+03 -2.34364E+04 -1.60653E+04
 -1.08588E+04 -2.33231E+04  7.74139E+03 -2.08692E+04  1.83563E+04 -1.15740E+04  1.68661E+04  4.43708E+03
  7.00284E+03  1.24930E+04 -7.75729E+03  1.10148E+04 -1.42497E+04  2.61168E+03 -1.11132E+04 -8.18702E+03
  3.96444E+02 -1.34955E+04  6.72887E+03 -1.02095E+04  8.67091E+03 -1.52487E+03  1.73959E+03  5.72774E+03
 -6.18791E+03  1.68581E+03 -4.71438E+03 -5.00080E+03  2.07496E+01 -1.15643E+04  8.29840E+03 -1.15922E+04
  1.40662E+04 -5.71346E+03  1.41785E+04  2.94170E+03  1.20474E+04  1.07468E+04  5.82274E+03  1.62704E+04
 -1.98524E+03  1.82571E+04 -1.12554E+04  1.13515E+04 -1.30087E+04  3.11082E+03 -9.38991E+03 -2.41856E+03
 -4.91105E+03 -3.87439E+03 -7.05349E+02  1.15353E+03 -2.10778E+03  2.27008E+03 -4.15444E+03  3.77341E+03
 -8.98696E+03 -9.19205E+02 -9.90360E+03 -8.09550E+03 -3.79620E+03 -1.28565E+04  4.27918E+03 -9.69335E+03
  7.68574E+03 -4.32114E+03  5.97994E+03  2.28061E+03  6.89466E+02  3.22722E+03 -3.90226E+03 -4.61856E+02
 -4.00400E+03 -5.75229E+03 -1.07482E+03 -8.84569E+03  4.78226E+03 -9.22095E+03  1.13808E+04 -4.75211E+03
  1.35015E+04  9.58261E+02  9.95222E+03  7.35124E+03  1.95047E+03  1.01412E+04 -5.97028E+03  9.50590E+03
 -7.80123E+03  3.20615E+03 -4.19578E+03 -1.69310E+03  1.32207E+03 -2.22996E+03  5.38637E+03 -1.03500E+03
  4.71470E+03  3.78479E+03  9.48914E+02  7.22228E+03 -4.97346E+03  7.38772E+03 -9.06670E+03  2.05436E+03
 -5.83401E+03 -4.44212E+03  4.44768E+02 -7.73437E+03  4.44487E+03 -3.59732E+03  4.59370E+03  1.52541E+03
  1.03678E+03  4.43484E+03 -4.75345E+03  5.90215E+03 -6.28275E+03  2.74538E+03 -6.11843E+03 -1.72565E+03
 -3.66324E+03 -7.38028E+03  1.58198E+03 -8.72891E+03  7.41646E+03 -5.22998E+03  8.26336E+03  1.20971E+03
  5.38968E+03  6.34493E+03 -1.05223E+02  8.69762E+03 -6.07862E+03  5.04418E+03 -6.36092E+03 -6.28470E+02
 -6.53504E+03 -5.72020E+03 -1.44228E+03 -6.06608E+03  3.13716E+03 -5.17162E+03  3.63444E+03 -2.77871E+03
  3.56787E+03  6.01211E+02 -2.11622E+02  1.22760E+03  8.03047E+01 -7.42899E+02  6.12579E+02 -2.69088E+03
  4.98607E+03 -1.19057E+03  6.91282E+03  1.04840E+03  7.41024E+03  4.24195E+03  6.05323E+03  9.24959E+03
 -1.88503E+03  1.05919E+04 -9.38316E+03  8.06873E+03 -1.20951E+04  1.50967E+03 -9.65664E+03 -3.71488E+03
 -5.07748E+03 -7.83308E+03 -2.75339E+02 -6.29647E+03  2.28067E+03 -3.32097E+03  2.13020E+03 -2.59122E+03
  1.90308E+03 -1.73455E+03  2.09262E+03 -2.80822E+03  3.84792E+03 -1.75254E+03  4.02623E+03 -8.86198E+01
  5.64360E+03  1.40884E+03  1.68751E+03  4.28794E+03 -1.86232E+03  4.04793E+03 -5.42051E+03  3.40216E+03
 -6.66018E+03 -1.04541E+03 -3.11399E+03 -4.18204E+03  3.51252E+02 -6.67260E+03  4.05243E+03 -7.07886E+03
  6.80254E+03 -4.25801E+03  8.65711E+03  5.35281E+02  6.27633E+03  5.67867E+03  1.08695E+03  7.57111E+03
 -2.95899E+03  7.05682E+03 -4.28080E+03  2.35272E+03 -2.50590E+03 -1.05533E+03 -7.51020E+02 -7.90760E+02
 -6.27376E+02  7.08381E+02 -9.22746E+02  2.00064E+03 -3.03107E+03  1.48414E+03 -4.96241E+03 -6.12406E+02
 -2.37745E+03 -5.18820E+03  7.47513E+02 -5.81369E+03  3.63512E+03 -5.89636E+03  4.97919E+03 -1.59028E+03
  5.73436E+03  2.97936E+03  2.62421E+03  4.53635E+03 -1.02436E+03  5.71463E+03 -3.95769E+03  3.60611E+03
 -5.27213E+03  5.52573E+02 -4.20765E+03 -3.42646E+03 -3.75768E+02 -4.64265E+03  2.10683E+03 -3.42400E+03
  3.61421E+03 -1.45623E+03  2.63967E+03  7.16453E+02  9.02522E+02  2.09857E+03  1.00097E+03  5.61753E+02
  1.75676E+03  7.18086E+02  1.39965E+03  9.73581E+02  1.61992E+03  2.48584E+03  2.15795E+03  2.73547E+03
 -1.50189E+03  4.23500E+03 -3.61639E+03  5.35300E+03 -4.58368E+03  1.05959E+03 -5.75593E+03 -1.50787E+03
 -2.48191E+03 -5.32896E+03  7.08099E+02 -6.47622E+03  2.89761E+03 -3.88917E+03  4.35382E+03 -1.20592E+03
  3.39105E+03  2.26609E+03  4.84387E+02  3.25943E+03 -1.37656E+03  1.58834E+03 -1.54109E+03 -1.67748E+02
 -8.58790E+02 -2.25305E+03  1.68781E+03 -2.17313E+03  2.27707E+03 -1.65643E+03  1.74147E+03  6.93928E+02
  1.21108E+03  8.74100E+02  1.05703E+03  1.94682E+02 -3.81216E+02  7.92550E+02  1.54775E+03 -1.08532E+02
  2.87577E+02 -2.95260E+02  2.51688E+03  8.68537E+02  4.82147E+02  2.97750E+03 -5.63096E+02  3.66117E+03
 -2.45619E+03  1.52184E+03 -2.68911E+03  5.26338E+02 -2.87869E+03 -1.04300E+03 -4.50616E+02 -1.50481E+03
  3.79604E+02 -1.90077E+03  9.78468E+02 -7.80528E+02  9.68385E+02  1.63672E+03 -6.73818E+02  1.64492E+03
 -2.22073E+03  1.11137E+03 -1.96357E+03 -1.60297E+03 -1.36248E+03 -2.79600E+03  2.62524E+02 -2.66839E+03
  1.09216E+03 -1.17774E+03  1.69515E+03 -5.23831E+00  1.82938E+03  4.94975E+01  6.60743E+02  1.62904E+03
 -7.63824E+02  2.98365E+02 -1.34769E+03 -5.81248E+02  7.64540E+02 -1.47807E+03  2.62490E+03 -1.45370E+03
  2.14814E+03  2.32944E+02  3.63780E+03  1.66527E+03  1.22559E+03  2.52047E+03 -4.66176E+02  2.70649E+03
 -2.30004E+03  7.44451E+02 -2.57215E+03 -4.76499E+02 -1.12543E+03 -2.01314E+03  2.88531E+02 -1.39643E+03
  1.87504E+03 -1.15041E+03  1.43847E+03  1.02035E+03  2.62591E+02  1.79962E+03  5.16797E+01  1.67399E+03
 -6.70822E+02  1.33493E+03 -6.47985E+02  4.45000E+02  1.72234E+02  5.61830E+02 -7.89514E+02  1.14923E+03
 -8.85833E+02  1.42754E+03 -2.33597E+03  7.79106E+02 -2.37225E+03 -4.86064E+00 -3.51233E+03 -1.56988E+03
 -1.66536E+03 -3.80173E+03  8.97015E+02 -4.44764E+03  2.30914E+03 -3.61577E+03  3.88648E+03 -1.43415E+03
  3.54954E+03  2.74127E+02  2.14812E+03  2.53664E+03 -1.27552E+02  2.67018E+03 -1.21517E+03  1.92620E+03
 -1.42217E+03  1.10791E+03 -1.07732E+03  9.03933E+01 -7.22590E+02  1.40118E+01 -6.31809E+02  1.57123E+02
 -1.22665E+03  5.23781E+01 -1.10938E+03 -2.06413E+02  3.95385E+02 -5.55096E+02 -4.79352E+02 -9.65410E+02
  1.69900E+03 -6.81370E+02  9.49925E+02  6.64427E+00  1.67324E+03  1.40700E+03 -2.25532E+02  2.52047E+03
 -1.52251E+03  3.53233E+03 -2.97667E+03  1.86242E+03 -3.04398E+03 -4.72283E+02 -2.20921E+03 -2.12947E+03
 -1.56568E+03 -2.77904E+03  7.96315E+02 -2.05006E+03  1.53120E+03 -1.15705E+03  1.41296E+03  2.74651E+02
  8.92333E+02  5.08163E+02 -4.18563E+01  4.63244E+02 -4.91528E+02  2.30195E+02 -1.04554E+02 -3.98389E+02
  8.14700E+02 -3.74407E+01  8.29671E+02  7.28645E+02  1.09533E+02  6.05003E+02  3.17153E+02  6.22494E+02
 -9.37321E+02  1.15263E+03 -1.43652E+03  1.38526E+02 -1.23396E+03 -9.07278E+02 -1.44055E+02 -1.93600E+03
  1.03153E+03 -1.04309E+03  1.46956E+03 -5.85124E+02  1.70408E+03 -4.35493E+02  9.81755E+02  1.59984E+03
  6.12639E+02  1.11825E+03 -5.00791E+02  1.22810E+03 -7.31203E+02  7.43716E+02 -1.13984E+03  1.04050E+02
 -1.62072E+02  2.97840E+01 -5.82079E+02  3.29226E+02 -1.08535E+03  2.71261E+02 -1.25577E+03 -1.91334E+02
 -1.09174E+03 -2.58687E+02 -3.77503E+02 -1.73859E+03  1.13017E+03 -2.01775E+03  1.41907E+03 -7.95416E+02
  1.47914E+03  2.72344E+02  1.46423E+02  7.10594E+02 -1.21336E+02  1.45736E+03 -9.77641E+02  1.24151E+03
