 $NMID ID='MM_0lb_SNR800_10hz_g40_20.RAW', FMTDAT='(8E13.5)'
 TRAMP=1., VOLUME=1. $END
  3.09408E+05  3.07463E+02  3.37682E+05  2.51092E+05  8.50315E+04  3.38378E+05 -1.32671E+05  2.51500E+05
 -1.90639E+05  8.37520E+04 -1.12416E+05 -3.27319E+04  3.24727E+02 -5.06131E+04  5.41607E+04 -4.71862E+02
  3.54450E+04  5.29200E+04 -1.66437E+04  7.54821E+04 -6.11773E+04  6.40180E+04 -8.50945E+04  3.22010E+04
 -8.16276E+04 -1.14903E+04 -5.77522E+04 -5.17857E+04 -1.51242E+04 -7.03670E+04  2.82115E+04 -4.62562E+04
  4.06808E+04  3.17511E+03  1.63246E+04  4.82864E+04 -3.41447E+04  4.75508E+04 -6.77481E+04 -4.95024E+02
 -5.41640E+04 -5.76234E+04 -7.01473E+03 -7.84340E+04  3.41078E+04 -5.65559E+04  4.89224E+04 -1.78417E+04
  4.42376E+04  1.12714E+04  3.24454E+04  2.58229E+04  1.59470E+04  3.02401E+04 -6.03865E+03  2.77780E+04
 -2.23992E+04  1.20149E+04 -1.84266E+04 -5.27541E+03  6.33663E+03 -7.65807E+03  2.36549E+04  1.30718E+04
  7.06213E+03  3.62356E+04 -3.33672E+04  3.59826E+04 -6.52167E+04  2.36852E+03 -5.78708E+04 -4.39143E+04
 -1.28153E+04 -6.48190E+04  4.07491E+04 -4.65841E+04  5.99277E+04 -2.15047E+03  3.54876E+04  3.35719E+04
 -5.49011E+03  3.85368E+04 -3.10487E+04  1.76284E+04 -3.21887E+04 -3.98349E+03 -1.83691E+04 -1.15823E+04
 -9.44188E+03 -1.42476E+04 -6.96870E+02 -1.91687E+04  8.15791E+03 -2.34805E+04  1.57602E+04 -1.30271E+04
  1.09188E+04  5.72311E+03 -9.51590E+03  1.32147E+04 -2.23083E+04 -5.72587E+03 -8.69760E+03 -3.56692E+04
  2.41793E+04 -4.55831E+04  5.02746E+04 -2.01021E+04  4.71196E+04  1.98234E+04  1.68047E+04  4.60683E+04
 -1.66282E+04  3.46970E+04 -2.66465E+04  2.42912E+03 -1.11783E+04 -2.88325E+04  2.17619E+04 -3.57278E+04
  4.30950E+04 -9.83435E+03  3.86070E+04  2.46275E+04  2.02654E+04  4.92773E+04 -8.06626E+03  5.35014E+04
 -3.37152E+04  3.62447E+04 -4.54113E+04  1.05795E+04 -4.58007E+04 -1.77868E+04 -2.46734E+04 -4.05113E+04
  7.24653E+03 -4.04810E+04  3.31119E+04 -1.60444E+04  3.07082E+04  1.10426E+04  4.72197E+03  2.02132E+04
 -1.34755E+04  9.43659E+03 -1.10358E+04 -7.37295E+03  5.52919E+03 -1.13829E+04  1.86687E+04  5.73489E+03
  1.43072E+04  2.24979E+04 -5.71387E+03  2.62721E+04 -2.30768E+04  1.30066E+04 -3.05038E+04 -3.35617E+03
 -2.32820E+04 -1.76382E+04 -1.04994E+04 -2.28247E+04  3.68922E+03 -2.35699E+04  1.79959E+04 -2.09206E+04
  2.95943E+04 -1.39469E+04  3.58544E+04  3.93042E+03  2.59463E+04  2.23458E+04  4.37603E+03  3.90411E+04
 -1.90000E+04  3.25472E+04 -2.94761E+04  1.12291E+04 -2.15532E+04 -1.01064E+04 -4.74565E+03 -1.29819E+04
  1.82079E+03 -2.14180E+03 -6.51663E+03  7.63977E+03 -1.86147E+04  5.09552E+03 -1.85667E+04 -8.43944E+03
 -1.15655E+04 -2.16726E+04  6.06393E+03 -2.59349E+04  1.73361E+04 -1.85386E+04  2.09653E+04 -1.54977E+03
  1.32730E+04  1.49618E+04 -1.24224E+03  2.18209E+04 -1.52388E+04  1.23687E+04 -2.18873E+04 -4.26030E+03
 -1.61421E+04 -1.95889E+04 -2.17146E+03 -2.59963E+04  1.17728E+04 -2.19983E+04  2.12651E+04 -1.07151E+04
  2.06482E+04 -3.51091E+01  1.46679E+04  5.02009E+03  7.95182E+03  1.25988E+03  1.12937E+04 -1.81264E+03
  2.04402E+04  2.71997E+03  2.33179E+04  1.70653E+04  1.54484E+04  3.47642E+04 -2.64131E+03  4.04502E+04
 -2.33475E+04  3.30858E+04 -3.82797E+04  1.70799E+04 -4.03831E+04 -2.96343E+03 -3.29743E+04 -2.30732E+04
 -1.31831E+04 -3.34513E+04  1.17911E+04 -2.96318E+04  2.55872E+04 -1.44709E+04  2.25309E+04  6.56392E+03
  7.97194E+03  1.68989E+04 -1.04657E+04  1.45203E+04 -1.87762E+04  2.48006E+03 -1.41972E+04 -1.17837E+04
  2.18554E+02 -1.77424E+04  9.45041E+03 -1.33380E+04  1.20569E+04 -1.40741E+03  3.13707E+03  7.90995E+03
 -8.22330E+03  3.39494E+03 -7.78636E+03 -6.53328E+03 -1.69891E+03 -1.61909E+04  1.10247E+04 -1.77458E+04
  2.06489E+04 -9.68349E+03  2.27042E+04  3.20547E+03  1.98267E+04  1.63716E+04  9.62358E+03  2.58310E+04
 -5.09137E+03  2.75652E+04 -1.78877E+04  1.71551E+04 -1.98502E+04  3.83987E+03 -1.41220E+04 -5.04431E+03
 -5.99765E+03 -6.24301E+03 -6.64250E+02  7.21721E+02 -2.65486E+03  3.10546E+03 -6.63187E+03  4.99612E+03
 -1.28327E+04 -9.23101E+02 -1.34659E+04 -1.09414E+04 -4.94356E+03 -1.76474E+04  5.53151E+03 -1.38105E+04
  1.15760E+04 -5.89791E+03  7.99835E+03  3.95500E+03 -1.15089E+02  5.46357E+03 -7.04196E+03 -2.24170E+02
 -6.44346E+03 -8.94368E+03 -1.28930E+03 -1.37719E+04  8.14985E+03 -1.47260E+04  1.80879E+04 -7.57891E+03
  2.09901E+04  1.45259E+03  1.54517E+04  1.25595E+04  2.97654E+03  1.68373E+04 -8.87935E+03  1.41234E+04
 -1.13523E+04  3.81627E+03 -5.62564E+03 -3.21127E+03  2.37014E+03 -3.42304E+03  7.24323E+03 -8.15485E+02
  7.06730E+03  6.60272E+03  1.21598E+03  1.08376E+04 -7.89750E+03  1.05699E+04 -1.38764E+04  2.77624E+03
 -9.30746E+03 -6.96653E+03  2.74306E+02 -1.18809E+04  7.16283E+03 -5.57799E+03  7.56389E+03  2.81102E+03
  1.90592E+03  8.60558E+03 -7.03993E+03  1.01973E+04 -1.16024E+04  4.48685E+03 -1.17068E+04 -4.23964E+03
 -6.95038E+03 -1.37929E+04  2.81625E+03 -1.53956E+04  1.34846E+04 -9.49747E+03  1.45975E+04  2.81809E+03
  8.74088E+03  1.14223E+04 -1.15723E+03  1.37453E+04 -1.01151E+04  7.94468E+03 -1.14129E+04 -1.09095E+03
 -9.65282E+03 -9.42757E+03 -1.80260E+03 -1.06540E+04  5.45402E+03 -8.63251E+03  6.35959E+03 -3.29749E+03
  4.44227E+03  1.57691E+03 -1.10632E+03  1.98941E+03 -5.10035E+02 -2.87453E+03  2.05146E+03 -6.44207E+03
  9.84505E+03 -3.85179E+03  1.37145E+04  1.76156E+03  1.35686E+04  9.44457E+03  9.26355E+03  1.82741E+04
 -4.23061E+03  2.01669E+04 -1.72918E+04  1.48983E+04 -2.22417E+04  3.04932E+03 -1.73952E+04 -7.73002E+03
 -8.96775E+03 -1.49680E+04 -9.46472E+01 -1.26201E+04  4.33763E+03 -6.66602E+03  4.26953E+03 -4.72398E+03
  3.40442E+03 -2.68627E+03  3.50117E+03 -3.71067E+03  5.61476E+03 -3.33153E+03  7.22459E+03 -1.06643E+03
  9.10950E+03  2.12418E+03  4.80370E+03  8.49837E+03 -1.84639E+03  9.62580E+03 -9.94256E+03  7.56641E+03
 -1.23908E+04 -1.38545E+03 -7.60230E+03 -8.57125E+03 -8.37063E+02 -1.32282E+04  7.51350E+03 -1.36454E+04
  1.35383E+04 -7.70419E+03  1.67012E+04  2.23280E+03  1.15038E+04  1.14320E+04  1.78339E+03  1.47152E+04
 -6.49657E+03  1.28964E+04 -9.01599E+03  4.11057E+03 -5.72678E+03 -1.86961E+03 -2.31851E+03 -1.36709E+03
 -1.13930E+03 -1.52773E+02 -1.81970E+03  2.64299E+03 -5.42694E+03  2.16791E+03 -8.56122E+03 -1.21649E+03
 -5.91183E+03 -8.85567E+03  4.01201E+02 -1.26776E+04  7.49987E+03 -1.15107E+04  1.21098E+04 -3.34940E+03
  1.19188E+04  6.10046E+03  5.72842E+03  1.07335E+04 -2.00264E+03  1.25138E+04 -8.92982E+03  7.74862E+03
 -1.15399E+04  3.56104E+02 -8.89799E+03 -7.03332E+03 -1.03540E+03 -1.02576E+04  5.36455E+03 -7.59641E+03
  7.65185E+03 -2.37891E+03  5.41522E+03  2.18855E+03  1.81423E+03  3.65362E+03  1.36125E+03  1.56770E+03
  2.35187E+03  6.64070E+02  2.84653E+03  1.87330E+03  3.86769E+03  4.40196E+03  2.98607E+03  6.58687E+03
 -2.82208E+03  9.74407E+03 -8.42297E+03  1.01533E+04 -1.26610E+04  2.39859E+03 -1.29033E+04 -4.91907E+03
 -6.29505E+03 -1.25559E+04  2.17203E+03 -1.36668E+04  7.40602E+03 -8.72937E+03  1.00242E+04 -2.57856E+03
  7.93038E+03  4.65645E+03  1.95579E+03  7.12987E+03 -3.13657E+03  4.53636E+03 -5.07657E+03 -8.43317E+02
 -2.74617E+03 -5.56514E+03  2.74309E+03 -5.33028E+03  5.04430E+03 -2.26534E+03  5.07735E+03  1.17307E+03
  3.20497E+03  2.21141E+03  1.44527E+03  2.01421E+03 -4.86664E+02  1.66481E+03  1.86188E+03 -6.54445E+02
  1.72532E+03 -6.26076E+02  4.84256E+03  2.05871E+03  2.89128E+03  6.75518E+03 -8.98272E+02  9.20253E+03
 -6.23635E+03  5.86734E+03 -7.77583E+03  1.64248E+03 -7.04441E+03 -2.71767E+03 -2.76232E+03 -5.02372E+03
  5.65191E+02 -4.92353E+03  3.15043E+03 -2.01954E+03  2.75705E+03  2.58479E+03 -1.21347E+03  4.52311E+03
 -5.18971E+03  2.33006E+03 -5.96775E+03 -3.30569E+03 -3.55842E+03 -6.97692E+03  7.76939E+02 -6.82030E+03
  3.96632E+03 -4.15395E+03  4.81719E+03 -6.86373E+02  4.13831E+03  2.00943E+03  9.16934E+02  3.73372E+03
 -2.62012E+03  1.13157E+03 -2.89766E+03 -2.10501E+03  1.29264E+03 -5.23406E+03  6.06961E+03 -4.08879E+03
  7.65821E+03  8.28808E+02  7.90825E+03  4.88544E+03  2.44392E+03  8.23151E+03 -2.88909E+03  7.75503E+03
 -6.33851E+03  3.33720E+03 -6.87865E+03 -9.67700E+02 -3.96573E+03 -5.63873E+03  1.28232E+03 -4.79674E+03
  5.06831E+03 -2.20168E+03  4.05015E+03  2.23228E+03  1.23129E+03  4.27677E+03 -8.23426E+02  3.52478E+03
 -1.71451E+03  2.97102E+03 -1.87810E+03  4.52932E+02 -8.40322E+02  7.83470E+02 -1.50092E+03  1.69594E+03
 -1.71708E+03  3.12031E+03 -5.48413E+03  2.90652E+03 -7.96981E+03  4.16911E+02 -9.06930E+03 -5.29767E+03
 -4.74026E+03 -1.05892E+04  2.05494E+03 -1.22567E+04  7.28568E+03 -9.43819E+03  1.17019E+04 -3.61748E+03
  1.09152E+04  2.17690E+03  6.50996E+03  7.21954E+03  7.32638E+02  8.29855E+03 -3.22676E+03  6.34319E+03
 -5.02303E+03  2.39270E+03 -2.97509E+03 -9.08499E+02 -7.89434E+02 -1.00275E+03 -7.67333E+02 -1.09458E+02
 -1.62767E+03  1.37350E+00 -2.19301E+03 -3.55487E+02 -2.53305E+02 -1.84217E+03 -1.06056E+01 -2.99256E+03
  3.64055E+03 -2.52247E+03  5.09367E+03  1.58902E+02  5.86692E+03  4.83482E+03  1.56517E+03  7.88116E+03
 -3.94656E+03  9.43955E+03 -8.67957E+03  5.41830E+03 -9.97663E+03 -6.38105E+02 -7.31746E+03 -6.22248E+03
 -3.50379E+03 -8.42941E+03  2.06766E+03 -7.69715E+03  5.18812E+03 -4.06254E+03  5.39534E+03  7.54814E+01
  3.05707E+03  2.45546E+03 -3.47932E+02  2.45919E+03 -1.46527E+03 -3.27817E+02  8.81895E+00 -1.58611E+03
  2.42112E+03 -1.22533E+03  3.13264E+03  9.01858E+02  2.32235E+03  2.97212E+03  1.63591E+02  3.79802E+03
 -3.37164E+03  3.67483E+03 -5.20391E+03  3.00807E+02 -4.59955E+03 -3.63685E+03 -8.15753E+02 -6.83565E+03
  3.54747E+03 -5.69898E+03  6.02581E+03 -1.90565E+03  6.02900E+03  9.94242E+02  3.81965E+03  5.20466E+03
  1.05985E+03  5.09341E+03 -2.53879E+03  4.44335E+03 -3.85136E+03  2.21857E+03 -2.95628E+03  4.10524E+02
 -1.25537E+03 -6.14492E+02 -1.52128E+03  5.80791E+02 -2.66699E+03  9.08100E+02 -4.13528E+03 -1.02482E+03
 -4.42753E+03 -2.53453E+03 -1.35345E+03 -5.19227E+03  2.50763E+03 -6.01705E+03  4.78453E+03 -3.02353E+03
  5.16021E+03  1.01030E+03  2.63475E+03  3.86308E+03 -2.54365E+02  5.41684E+03 -3.94732E+03  3.73238E+03
