 $NMID ID='MM_0lb_SNR800_9hz_g40_33.RAW', FMTDAT='(8E13.5)'
 TRAMP=1., VOLUME=1. $END
  3.09483E+05  3.12495E+02  3.37995E+05  2.50592E+05  8.51238E+04  3.38674E+05 -1.32564E+05  2.51763E+05
 -1.90664E+05  8.38824E+04 -1.12544E+05 -3.22920E+04  6.63742E+02 -5.09919E+04  5.32388E+04 -2.02680E+02
  3.57151E+04  5.28439E+04 -1.67931E+04  7.60656E+04 -6.10546E+04  6.41738E+04 -8.50899E+04  3.24805E+04
 -8.20356E+04 -1.18650E+04 -5.77749E+04 -5.23401E+04 -1.55449E+04 -7.10912E+04  2.80903E+04 -4.64811E+04
  4.10957E+04  3.84929E+03  1.62181E+04  4.88513E+04 -3.47477E+04  4.78575E+04 -6.77827E+04  1.01272E+02
 -5.43632E+04 -5.74211E+04 -7.26024E+03 -7.83507E+04  3.49158E+04 -5.66869E+04  4.89210E+04 -1.80344E+04
  4.46060E+04  1.13023E+04  3.22363E+04  2.61747E+04  1.53969E+04  2.98462E+04 -5.51019E+03  2.75035E+04
 -2.24327E+04  1.20684E+04 -1.86310E+04 -5.41704E+03  6.75197E+03 -7.31523E+03  2.32557E+04  1.34737E+04
  7.02287E+03  3.73473E+04 -3.39290E+04  3.66209E+04 -6.52693E+04  2.33935E+03 -5.87068E+04 -4.42266E+04
 -1.28741E+04 -6.50011E+04  4.10930E+04 -4.64005E+04  6.08260E+04 -2.58868E+03  3.59935E+04  3.40937E+04
 -5.42351E+03  3.87197E+04 -3.13254E+04  1.84648E+04 -3.28397E+04 -3.53787E+03 -1.87363E+04 -1.15746E+04
 -9.43724E+03 -1.44791E+04 -7.83391E+02 -1.93485E+04  8.37804E+03 -2.35882E+04  1.61061E+04 -1.27428E+04
  1.05261E+04  5.98244E+03 -1.01790E+04  1.29578E+04 -2.27347E+04 -6.61132E+03 -8.69559E+03 -3.67768E+04
  2.45369E+04 -4.61916E+04  5.16798E+04 -2.03491E+04  4.76924E+04  2.04960E+04  1.73138E+04  4.62850E+04
 -1.65412E+04  3.52215E+04 -2.73765E+04  2.32371E+03 -1.13195E+04 -2.89861E+04  2.15865E+04 -3.62164E+04
  4.37744E+04 -1.08774E+04  3.94069E+04  2.44831E+04  2.06904E+04  4.99289E+04 -8.17288E+03  5.46057E+04
 -3.44672E+04  3.74630E+04 -4.67616E+04  1.07694E+04 -4.68091E+04 -1.84426E+04 -2.56108E+04 -4.11144E+04
  7.92437E+03 -4.14314E+04  3.38586E+04 -1.65070E+04  3.16478E+04  1.10931E+04  4.85607E+03  2.05014E+04
 -1.37979E+04  9.33451E+03 -1.12996E+04 -7.78659E+03  5.87076E+03 -1.15218E+04  1.86499E+04  5.50377E+03
  1.44326E+04  2.28952E+04 -5.56981E+03  2.68188E+04 -2.33182E+04  1.39332E+04 -3.08423E+04 -3.25067E+03
 -2.48462E+04 -1.82604E+04 -1.08820E+04 -2.41544E+04  4.33213E+03 -2.45255E+04  1.91104E+04 -2.22073E+04
  3.11433E+04 -1.38306E+04  3.70390E+04  4.68417E+03  2.62609E+04  2.38894E+04  4.65499E+03  4.05475E+04
 -1.97814E+04  3.32972E+04 -3.02553E+04  1.16688E+04 -2.21501E+04 -1.01706E+04 -5.28599E+03 -1.28223E+04
  5.85248E+02 -1.33623E+03 -6.85408E+03  8.26361E+03 -1.94843E+04  5.38560E+03 -1.94028E+04 -8.84252E+03
 -1.17919E+04 -2.24450E+04  5.50584E+03 -2.68029E+04  1.83843E+04 -1.90356E+04  2.17253E+04 -1.69077E+03
  1.41764E+04  1.55880E+04 -1.23551E+03  2.24907E+04 -1.55757E+04  1.28989E+04 -2.26633E+04 -4.48468E+03
 -1.69841E+04 -2.04344E+04 -2.32894E+03 -2.73100E+04  1.25532E+04 -2.25612E+04  2.27756E+04 -1.16635E+04
  2.10651E+04 -2.92508E+02  1.56271E+04  5.38930E+03  8.71345E+03  1.11507E+03  1.17055E+04 -2.10842E+03
  2.12142E+04  2.48780E+03  2.42833E+04  1.75729E+04  1.64107E+04  3.60358E+04 -2.66476E+03  4.26997E+04
 -2.46505E+04  3.52889E+04 -4.01161E+04  1.81874E+04 -4.27713E+04 -3.41479E+03 -3.49761E+04 -2.49297E+04
 -1.36873E+04 -3.54962E+04  1.27207E+04 -3.13839E+04  2.67580E+04 -1.45987E+04  2.33614E+04  7.18518E+03
  8.07102E+03  1.81819E+04 -1.14212E+04  1.51327E+04 -1.94182E+04  2.92678E+03 -1.48307E+04 -1.24257E+04
 -6.38915E+02 -1.87006E+04  1.00137E+04 -1.35084E+04  1.26349E+04 -1.71352E+03  3.42758E+03  8.28902E+03
 -8.66033E+03  4.32076E+03 -8.79707E+03 -6.46469E+03 -1.00397E+03 -1.73582E+04  1.16093E+04 -1.86846E+04
  2.17543E+04 -1.08036E+04  2.44014E+04  3.18259E+03  2.19261E+04  1.80568E+04  9.79102E+03  2.77947E+04
 -5.22254E+03  2.98679E+04 -1.94211E+04  1.80943E+04 -2.13964E+04  4.11553E+03 -1.47960E+04 -5.70321E+03
 -6.29761E+03 -6.96452E+03 -7.37452E+02  5.04495E+02 -2.85083E+03  3.25567E+03 -7.20861E+03  5.17720E+03
 -1.35669E+04 -1.03591E+03 -1.42918E+04 -1.12331E+04 -5.40299E+03 -1.88396E+04  5.91844E+03 -1.49699E+04
  1.28817E+04 -5.96136E+03  8.64425E+03  3.99195E+03 -5.37651E+01  5.67503E+03 -7.59943E+03 -9.50565E+01
 -7.12455E+03 -9.49198E+03 -1.13105E+03 -1.47391E+04  8.53671E+03 -1.55378E+04  1.96988E+04 -8.45595E+03
  2.22385E+04  2.19955E+03  1.62448E+04  1.36446E+04  3.20372E+03  1.79583E+04 -9.15371E+03  1.49158E+04
 -1.21177E+04  4.46376E+03 -6.40284E+03 -3.29564E+03  2.30385E+03 -4.28294E+03  8.11049E+03 -1.12823E+03
  6.79899E+03  6.92043E+03  8.95137E+02  1.22722E+04 -8.79915E+03  1.15981E+04 -1.49067E+04  2.86498E+03
 -1.01784E+04 -7.93381E+03 -9.15804E+00 -1.27873E+04  8.30444E+03 -7.05658E+03  8.90321E+03  3.17039E+03
  2.13849E+03  9.33162E+03 -7.70849E+03  1.11165E+04 -1.29729E+04  4.44541E+03 -1.33357E+04 -5.05726E+03
 -7.49598E+03 -1.47137E+04  3.53205E+03 -1.74998E+04  1.47675E+04 -1.01807E+04  1.56990E+04  2.85567E+03
  9.48109E+03  1.25108E+04 -1.63913E+03  1.48482E+04 -1.10738E+04  8.30065E+03 -1.21206E+04 -1.15033E+03
 -1.00885E+04 -1.01340E+04 -1.57308E+03 -1.13148E+04  6.04635E+03 -9.08649E+03  7.31563E+03 -3.82379E+03
  4.94531E+03  1.82123E+03 -6.98317E+02  1.71802E+03 -6.41209E+02 -3.32187E+03  2.35469E+03 -6.98041E+03
  1.12087E+04 -4.42367E+03  1.49334E+04  1.40401E+03  1.46479E+04  1.03093E+04  9.57869E+03  1.98496E+04
 -4.65924E+03  2.23353E+04 -1.86440E+04  1.68481E+04 -2.40846E+04  3.23677E+03 -1.96669E+04 -8.30642E+03
 -9.86794E+03 -1.60164E+04 -2.33501E+02 -1.40307E+04  4.73280E+03 -7.59720E+03  4.70773E+03 -5.08335E+03
  3.35285E+03 -2.33893E+03  4.09075E+03 -3.94185E+03  5.73395E+03 -3.23375E+03  8.00118E+03 -1.40858E+03
  1.03700E+04  2.12182E+03  5.44578E+03  8.61882E+03 -2.09249E+03  1.08032E+04 -1.08796E+04  8.19141E+03
 -1.39187E+04 -1.40988E+03 -8.72610E+03 -9.64891E+03 -1.13652E+03 -1.49345E+04  8.11886E+03 -1.52306E+04
  1.55327E+04 -8.20150E+03  1.84504E+04  2.33978E+03  1.24633E+04  1.33013E+04  2.09056E+03  1.65887E+04
 -7.01624E+03  1.35300E+04 -9.96016E+03  5.02711E+03 -6.55543E+03 -1.46274E+03 -2.90246E+03 -2.33466E+03
 -1.67976E+03  2.73955E+02 -1.98386E+03  3.13090E+03 -5.37762E+03  2.46085E+03 -9.45288E+03 -1.35913E+03
 -6.98180E+03 -9.65882E+03  1.12417E+02 -1.39522E+04  8.17248E+03 -1.27395E+04  1.39117E+04 -3.54186E+03
  1.34373E+04  6.62663E+03  6.17687E+03  1.23384E+04 -2.62383E+03  1.40519E+04 -9.94030E+03  8.79130E+03
 -1.30496E+04  5.26498E+02 -9.66398E+03 -8.13017E+03 -1.06592E+03 -1.15678E+04  5.71919E+03 -8.53024E+03
  9.16632E+03 -2.66191E+03  6.21342E+03  1.99261E+03  1.96976E+03  4.46795E+03  1.43019E+03  1.66566E+03
  3.00589E+03  1.26050E+03  3.64329E+03  2.25503E+03  3.84858E+03  5.01004E+03  3.64667E+03  7.58734E+03
 -3.20459E+03  1.09671E+04 -9.77920E+03  1.13705E+04 -1.40352E+04  3.10372E+03 -1.48595E+04 -5.46650E+03
 -6.75933E+03 -1.40202E+04  2.35642E+03 -1.54748E+04  8.39359E+03 -1.02281E+04  1.18086E+04 -2.64232E+03
  8.71930E+03  5.26170E+03  1.76603E+03  8.25055E+03 -3.89475E+03  5.43375E+03 -6.09826E+03 -1.08219E+03
 -3.07386E+03 -6.16191E+03  3.38791E+03 -6.16600E+03  5.57913E+03 -3.38436E+03  5.66200E+03  1.49615E+03
  3.14144E+03  3.26698E+03  1.38182E+03  2.41955E+03 -1.02289E+03  2.30468E+03  1.26743E+03 -3.23278E+02
  1.94881E+03 -1.00953E+03  5.71463E+03  2.24740E+03  3.32178E+03  7.65409E+03 -1.30263E+03  1.00149E+04
 -7.07410E+03  6.92789E+03 -9.36528E+03  1.68061E+03 -8.11696E+03 -3.18534E+03 -2.92213E+03 -5.64452E+03
  9.44134E+02 -5.45391E+03  3.70412E+03 -2.80594E+03  3.43675E+03  2.71739E+03 -1.47723E+03  4.45056E+03
 -5.87099E+03  3.21001E+03 -6.44851E+03 -3.55783E+03 -3.77314E+03 -8.04689E+03  8.02723E+02 -7.88398E+03
  4.51394E+03 -4.90829E+03  5.83372E+03 -7.37007E+02  4.58753E+03  2.09405E+03  3.84909E+02  4.37436E+03
 -2.78729E+03  1.51061E+03 -3.19527E+03 -2.96695E+03  1.26141E+03 -5.80282E+03  7.22247E+03 -4.67917E+03
  9.05214E+03  3.59298E+02  8.64912E+03  6.09977E+03  2.71135E+03  9.67238E+03 -3.16292E+03  8.76706E+03
 -7.53731E+03  3.84340E+03 -7.55922E+03 -1.15750E+03 -4.52234E+03 -5.81358E+03  1.28710E+03 -5.56520E+03
  5.95037E+03 -2.69872E+03  4.70164E+03  2.86503E+03  1.75351E+03  5.11729E+03 -3.66856E+02  4.47324E+03
 -2.33735E+03  2.90092E+03 -2.20409E+03  8.16894E+02 -1.12427E+03  9.52132E+02 -1.40951E+03  2.10548E+03
 -2.48832E+03  3.56376E+03 -6.51718E+03  2.96425E+03 -9.53568E+03  3.47911E+01 -1.04508E+04 -6.25863E+03
 -5.95828E+03 -1.25856E+04  2.40065E+03 -1.42863E+04  8.71016E+03 -1.14039E+04  1.37760E+04 -4.05888E+03
  1.28406E+04  2.43304E+03  8.04313E+03  8.63241E+03  2.95761E+02  9.48708E+03 -3.84413E+03  7.54461E+03
 -5.60273E+03  2.58059E+03 -3.38824E+03 -1.35190E+03 -1.05207E+03 -5.88670E+02 -4.04278E+02  7.93769E+01
 -1.75282E+03  4.77140E+02 -2.53779E+03  1.76784E+02 -5.70612E+02 -2.38670E+03  1.53756E+02 -3.75075E+03
  4.29454E+03 -3.13474E+03  6.05449E+03 -9.31693E+01  7.00477E+03  5.14543E+03  2.11303E+03  9.68220E+03
 -4.45859E+03  1.11306E+04 -1.04426E+04  6.52859E+03 -1.19102E+04 -1.06954E+03 -8.87512E+03 -7.59214E+03
 -4.28637E+03 -1.03437E+04  2.58119E+03 -9.03724E+03  6.52434E+03 -4.85145E+03  6.30989E+03  5.53975E+01
  3.91598E+03  3.27795E+03 -4.90837E+02  2.80154E+03 -2.13696E+03 -2.84601E+02 -1.10114E+02 -2.20982E+03
  3.31237E+03 -1.45220E+03  4.07596E+03  1.27283E+03  2.74094E+03  4.00419E+03  1.69580E+01  4.67319E+03
 -4.42139E+03  4.60253E+03 -6.47239E+03  9.14913E+02 -5.78880E+03 -5.18447E+03 -1.05654E+03 -8.21825E+03
  4.56235E+03 -7.36245E+03  7.69994E+03 -2.04260E+03  7.52661E+03  1.63415E+03  4.48872E+03  6.31307E+03
  1.09225E+03  6.39051E+03 -2.64799E+03  5.14379E+03 -4.49305E+03  2.90685E+03 -3.54468E+03  2.91334E+02
 -1.89897E+03 -2.64560E+02 -1.54682E+03  1.04094E+03 -3.66001E+03  1.39096E+03 -4.99866E+03 -6.15136E+02
 -4.98188E+03 -3.21493E+03 -1.25059E+03 -6.26287E+03  3.37307E+03 -6.81015E+03  6.18159E+03 -3.51332E+03
  6.99816E+03  6.80494E+02  3.60614E+03  4.86033E+03 -2.28046E+02  6.82658E+03 -4.84191E+03  4.30637E+03
