 $NMID ID='MM_0lb_SNR800_9hz_g40_87.RAW', FMTDAT='(8E13.5)'
 TRAMP=1., VOLUME=1. $END
  3.09842E+05  3.97748E+02  3.37964E+05  2.51002E+05  8.50784E+04  3.38221E+05 -1.32290E+05  2.52027E+05
 -1.90551E+05  8.40674E+04 -1.12454E+05 -3.24000E+04  2.64191E+02 -5.02355E+04  5.35798E+04 -4.38252E+02
  3.58320E+04  5.30236E+04 -1.68288E+04  7.60525E+04 -6.09883E+04  6.40617E+04 -8.50593E+04  3.24426E+04
 -8.23980E+04 -1.16517E+04 -5.80948E+04 -5.22705E+04 -1.50152E+04 -7.09934E+04  2.79014E+04 -4.65932E+04
  4.08632E+04  3.69917E+03  1.68455E+04  4.81711E+04 -3.46157E+04  4.79034E+04 -6.76684E+04  2.03820E+02
 -5.43041E+04 -5.78609E+04 -6.93800E+03 -7.85710E+04  3.46810E+04 -5.66719E+04  4.94652E+04 -1.82161E+04
  4.50376E+04  1.14069E+04  3.26520E+04  2.65499E+04  1.59139E+04  3.02273E+04 -5.70569E+03  2.76349E+04
 -2.23904E+04  1.18657E+04 -1.82589E+04 -5.69017E+03  6.65800E+03 -7.21860E+03  2.32746E+04  1.31186E+04
  7.26515E+03  3.72418E+04 -3.40169E+04  3.67842E+04 -6.56684E+04  2.35983E+03 -5.84312E+04 -4.40428E+04
 -1.26838E+04 -6.52481E+04  4.10079E+04 -4.68736E+04  6.06505E+04 -2.61233E+03  3.63930E+04  3.39725E+04
 -5.44467E+03  3.86529E+04 -3.16579E+04  1.79275E+04 -3.25317E+04 -3.54222E+03 -1.85950E+04 -1.21355E+04
 -9.22904E+03 -1.44824E+04 -6.09116E+02 -1.96248E+04  7.85675E+03 -2.37335E+04  1.58459E+04 -1.24049E+04
  1.09536E+04  5.75348E+03 -9.78208E+03  1.25157E+04 -2.30398E+04 -6.02880E+03 -9.09193E+03 -3.65146E+04
  2.44385E+04 -4.65802E+04  5.12773E+04 -2.09346E+04  4.80807E+04  2.09808E+04  1.72102E+04  4.67877E+04
 -1.66270E+04  3.55932E+04 -2.75098E+04  2.16410E+03 -1.16723E+04 -2.91933E+04  2.16994E+04 -3.60086E+04
  4.43766E+04 -1.07619E+04  3.95378E+04  2.50219E+04  2.06814E+04  4.99258E+04 -7.94935E+03  5.48445E+04
 -3.46361E+04  3.78480E+04 -4.65677E+04  1.06202E+04 -4.67246E+04 -1.79297E+04 -2.52138E+04 -4.15493E+04
  7.84749E+03 -4.12288E+04  3.38022E+04 -1.65993E+04  3.19763E+04  1.11408E+04  5.27775E+03  2.04486E+04
 -1.36078E+04  9.39005E+03 -1.09465E+04 -7.44941E+03  5.64167E+03 -1.12107E+04  1.88546E+04  5.76646E+03
  1.48115E+04  2.24169E+04 -5.50011E+03  2.71400E+04 -2.33862E+04  1.36328E+04 -3.08440E+04 -3.43070E+03
 -2.45785E+04 -1.83606E+04 -1.13485E+04 -2.39566E+04  4.29927E+03 -2.47353E+04  1.93412E+04 -2.17207E+04
  3.09223E+04 -1.40143E+04  3.73527E+04  4.21213E+03  2.64893E+04  2.32903E+04  4.58338E+03  4.03612E+04
 -1.95651E+04  3.39626E+04 -3.05047E+04  1.15372E+04 -2.21149E+04 -1.05542E+04 -5.10023E+03 -1.29738E+04
  1.06479E+03 -1.23759E+03 -7.18198E+03  7.69920E+03 -1.96321E+04  5.01306E+03 -1.92912E+04 -9.09359E+03
 -1.15880E+04 -2.24955E+04  5.73324E+03 -2.68515E+04  1.75546E+04 -1.89321E+04  2.14919E+04 -1.60082E+03
  1.38277E+04  1.54193E+04 -1.25806E+03  2.26446E+04 -1.61786E+04  1.31278E+04 -2.25834E+04 -4.59355E+03
 -1.65769E+04 -2.03420E+04 -2.00185E+03 -2.71586E+04  1.26216E+04 -2.26778E+04  2.22219E+04 -1.13098E+04
  2.12927E+04 -4.31780E+02  1.49918E+04  4.91253E+03  8.70642E+03  1.64704E+03  1.15401E+04 -1.72014E+03
  2.14525E+04  2.69073E+03  2.45044E+04  1.76857E+04  1.64202E+04  3.62426E+04 -2.69790E+03  4.24470E+04
 -2.43887E+04  3.52426E+04 -4.03603E+04  1.81574E+04 -4.26804E+04 -2.79874E+03 -3.49312E+04 -2.49324E+04
 -1.38196E+04 -3.58899E+04  1.26036E+04 -3.13349E+04  2.66154E+04 -1.51207E+04  2.34175E+04  7.37370E+03
  8.17518E+03  1.83018E+04 -1.11654E+04  1.51091E+04 -1.91819E+04  2.45392E+03 -1.45733E+04 -1.29368E+04
 -3.66026E+02 -1.85597E+04  1.01561E+04 -1.38447E+04  1.26573E+04 -1.55721E+03  3.27100E+03  8.13854E+03
 -8.44669E+03  3.94294E+03 -8.66368E+03 -6.66088E+03 -2.01546E+03 -1.72089E+04  1.14953E+04 -1.92556E+04
  2.18723E+04 -1.09115E+04  2.50213E+04  3.09667E+03  2.16525E+04  1.79956E+04  1.00373E+04  2.75426E+04
 -5.12426E+03  2.94172E+04 -1.95486E+04  1.85653E+04 -2.15220E+04  3.72720E+03 -1.46690E+04 -5.37064E+03
 -6.02556E+03 -7.07745E+03 -3.93332E+02  3.26825E+02 -3.22547E+03  3.08111E+03 -7.06627E+03  5.44067E+03
 -1.34552E+04 -7.52862E+02 -1.40823E+04 -1.14152E+04 -5.79782E+03 -1.86877E+04  6.55917E+03 -1.49804E+04
  1.21392E+04 -6.28993E+03  8.63618E+03  4.43982E+03 -1.97531E+02  5.86444E+03 -7.14693E+03 -2.90103E+02
 -7.51212E+03 -9.69025E+03 -6.50102E+02 -1.47779E+04  8.45243E+03 -1.59919E+04  1.89326E+04 -7.95994E+03
  2.22610E+04  2.04290E+03  1.60783E+04  1.30362E+04  2.95365E+03  1.80791E+04 -9.37765E+03  1.49066E+04
 -1.23506E+04  4.37325E+03 -6.29420E+03 -3.27539E+03  1.76597E+03 -4.56420E+03  7.73045E+03 -1.04298E+03
  7.06206E+03  6.37620E+03  9.94875E+02  1.20384E+04 -8.80532E+03  1.15137E+04 -1.45076E+04  3.24495E+03
 -1.02818E+04 -7.74077E+03  5.06412E+02 -1.27411E+04  8.27788E+03 -6.47076E+03  9.03696E+03  3.37062E+03
  2.06747E+03  9.35539E+03 -7.70259E+03  1.09666E+04 -1.27019E+04  5.10563E+03 -1.29400E+04 -4.76920E+03
 -7.62369E+03 -1.48266E+04  3.43112E+03 -1.71884E+04  1.46331E+04 -1.05053E+04  1.58537E+04  3.05484E+03
  9.15517E+03  1.28697E+04 -1.31045E+03  1.46723E+04 -1.10961E+04  7.90145E+03 -1.24789E+04 -1.22385E+03
 -1.04149E+04 -1.04080E+04 -1.64984E+03 -1.14757E+04  6.22646E+03 -9.09143E+03  7.43404E+03 -3.78202E+03
  4.71219E+03  2.30722E+03 -1.15517E+03  2.12074E+03 -5.50245E+02 -3.10857E+03  2.55161E+03 -7.30189E+03
  1.06893E+04 -4.17638E+03  1.54524E+04  1.81948E+03  1.49823E+04  1.00255E+04  9.78241E+03  1.99431E+04
 -4.55118E+03  2.26870E+04 -1.87616E+04  1.66500E+04 -2.43803E+04  3.39490E+03 -1.93139E+04 -8.23063E+03
 -9.29298E+03 -1.60037E+04 -6.69173E+02 -1.35077E+04  4.84086E+03 -7.63449E+03  5.07204E+03 -5.16235E+03
  3.39312E+03 -3.02549E+03  3.94239E+03 -3.95107E+03  5.66154E+03 -3.27892E+03  7.63244E+03 -1.18925E+03
  1.04341E+04  2.30600E+03  5.76841E+03  8.72944E+03 -2.26603E+03  1.04905E+04 -1.11412E+04  7.74549E+03
 -1.44064E+04 -1.28977E+03 -8.83444E+03 -9.55384E+03 -1.04955E+03 -1.52150E+04  8.14612E+03 -1.46919E+04
  1.52786E+04 -7.87181E+03  1.84429E+04  2.62330E+03  1.25665E+04  1.28980E+04  1.85374E+03  1.65171E+04
 -7.27825E+03  1.34831E+04 -9.88690E+03  4.58843E+03 -6.86679E+03 -1.94668E+03 -2.63915E+03 -2.04430E+03
 -1.19106E+03  8.95847E+00 -2.32728E+03  2.87744E+03 -5.98967E+03  2.32000E+03 -9.88970E+03 -1.26468E+03
 -7.00870E+03 -9.40738E+03  2.63223E+02 -1.34678E+04  8.58473E+03 -1.29051E+04  1.39781E+04 -3.95157E+03
  1.35447E+04  6.38179E+03  6.25691E+03  1.23615E+04 -2.63878E+03  1.39288E+04 -1.00547E+04  8.49517E+03
 -1.29452E+04  5.02266E+02 -9.79567E+03 -8.68065E+03 -9.89148E+02 -1.17858E+04  6.22647E+03 -8.65530E+03
  8.61824E+03 -3.09047E+03  6.21351E+03  2.18662E+03  1.85796E+03  4.25514E+03  1.50269E+03  2.22381E+03
  2.73594E+03  1.27525E+03  3.36201E+03  1.98467E+03  4.18958E+03  4.69350E+03  3.57012E+03  7.71766E+03
 -2.88726E+03  1.13584E+04 -9.47942E+03  1.10545E+04 -1.42950E+04  3.06185E+03 -1.48543E+04 -5.93217E+03
 -7.13373E+03 -1.43246E+04  1.98468E+03 -1.53770E+04  8.10676E+03 -9.91844E+03  1.14477E+04 -2.70018E+03
  9.06398E+03  5.24791E+03  2.42981E+03  8.31535E+03 -4.07192E+03  5.23729E+03 -5.71172E+03 -9.00010E+02
 -2.52292E+03 -5.95138E+03  3.59726E+03 -6.28638E+03  5.90390E+03 -2.99319E+03  5.53523E+03  1.28031E+03
  3.50394E+03  2.64099E+03  1.16134E+03  2.18353E+03 -7.20745E+02  1.66919E+03  1.65293E+03 -2.01301E+02
  2.52064E+03 -9.68571E+02  5.96547E+03  2.33406E+03  3.29947E+03  7.48639E+03 -1.51537E+03  9.81026E+03
 -6.83072E+03  6.82053E+03 -8.59241E+03  1.94510E+03 -8.13897E+03 -3.49690E+03 -3.19743E+03 -5.67188E+03
  1.31197E+03 -5.95582E+03  4.24168E+03 -2.62237E+03  2.97294E+03  2.82326E+03 -1.08076E+03  4.48410E+03
 -6.15899E+03  2.78652E+03 -6.93008E+03 -3.43008E+03 -4.08289E+03 -7.83182E+03  1.11885E+03 -7.86630E+03
  4.53560E+03 -4.78276E+03  5.83785E+03 -4.52812E+02  4.65061E+03  1.97413E+03  4.20902E+02  4.30573E+03
 -2.89095E+03  1.41841E+03 -3.54296E+03 -2.54854E+03  9.97856E+02 -6.12415E+03  6.86979E+03 -5.02421E+03
  9.07434E+03  8.79391E+02  8.92967E+03  6.33102E+03  3.23497E+03  9.74337E+03 -3.56179E+03  8.71137E+03
 -7.23261E+03  3.81238E+03 -8.04793E+03 -1.23802E+03 -4.09726E+03 -6.11976E+03  1.37041E+03 -5.79256E+03
  5.99274E+03 -2.60269E+03  4.84339E+03  2.90093E+03  1.23530E+03  5.17953E+03 -6.20562E+02  4.53417E+03
 -2.58400E+03  2.85782E+03 -2.39817E+03  1.34275E+03 -1.07059E+03  9.80222E+02 -1.08885E+03  1.95176E+03
 -2.79350E+03  3.17333E+03 -6.24701E+03  3.25001E+03 -9.28633E+03  1.67737E+02 -1.04541E+04 -6.34886E+03
 -5.65715E+03 -1.21623E+04  2.81494E+03 -1.46176E+04  8.84902E+03 -1.09568E+04  1.35269E+04 -4.40911E+03
  1.27666E+04  2.81840E+03  7.50729E+03  8.53571E+03  1.03079E+03  9.81927E+03 -3.95628E+03  7.42753E+03
 -5.30381E+03  2.82148E+03 -3.53156E+03 -5.52463E+02 -1.28749E+03 -1.22452E+03 -5.92130E+02 -2.85196E+02
 -1.85393E+03  5.46711E+02 -2.13719E+03 -9.08533E+02 -3.32331E+02 -2.22562E+03  2.49354E+02 -3.48816E+03
  4.49376E+03 -2.91712E+03  6.22833E+03 -1.24420E+02  7.12192E+03  5.05010E+03  2.32572E+03  9.82228E+03
 -4.79800E+03  1.13276E+04 -1.01785E+04  6.72423E+03 -1.19478E+04 -1.20198E+03 -8.66692E+03 -7.63969E+03
 -3.86242E+03 -1.00909E+04  2.60541E+03 -8.73330E+03  6.47472E+03 -5.32529E+03  6.40657E+03  9.55554E+01
  3.46218E+03  3.10124E+03 -2.78465E+02  3.01042E+03 -2.29746E+03 -4.19263E+02 -3.03831E+02 -2.52347E+03
  2.87553E+03 -1.12408E+03  3.70908E+03  1.20399E+03  2.40851E+03  4.14254E+03 -5.50349E+01  4.82390E+03
 -4.41977E+03  4.55464E+03 -6.73369E+03  4.64659E+02 -5.90249E+03 -4.72232E+03 -7.91734E+02 -8.48644E+03
  4.59526E+03 -6.53550E+03  7.48161E+03 -2.10791E+03  7.72509E+03  1.73016E+03  4.23121E+03  5.74393E+03
  1.21574E+03  6.66094E+03 -2.47996E+03  5.29065E+03 -4.26660E+03  2.61840E+03 -3.41053E+03  6.85330E+02
 -1.38944E+03 -1.51819E+02 -2.00352E+03  7.40030E+02 -3.51260E+03  1.27262E+03 -5.08571E+03 -9.82125E+02
 -4.90601E+03 -3.33721E+03 -1.51853E+03 -6.67895E+03  3.24226E+03 -7.12410E+03  6.12566E+03 -3.29704E+03
  6.54875E+03  1.14127E+03  3.61363E+03  4.41868E+03 -4.68953E+02  6.29000E+03 -5.00656E+03  4.17722E+03
