 $NMID ID='MM_0lb_SNR800_11hz_g60_69.RAW', FMTDAT='(8E13.5)'
 TRAMP=1., VOLUME=1. $END
  3.10307E+05  7.38691E+02  3.38066E+05  2.50918E+05  8.47806E+04  3.38461E+05 -1.32641E+05  2.51496E+05
 -1.90692E+05  8.35832E+04 -1.12526E+05 -3.29444E+04  4.53667E+02 -5.06252E+04  5.38188E+04 -2.63072E+02
  3.58430E+04  5.28062E+04 -1.65299E+04  7.59648E+04 -6.12430E+04  6.41862E+04 -8.54712E+04  3.23506E+04
 -8.24073E+04 -1.17786E+04 -5.85715E+04 -5.22078E+04 -1.50714E+04 -7.08071E+04  2.80906E+04 -4.66244E+04
  4.09084E+04  3.54104E+03  1.67357E+04  4.85371E+04 -3.46450E+04  4.82264E+04 -6.78265E+04 -2.64379E+02
 -5.51635E+04 -5.77684E+04 -7.26607E+03 -7.89072E+04  3.45739E+04 -5.69983E+04  4.98022E+04 -1.81657E+04
  4.47186E+04  1.17927E+04  3.31289E+04  2.65100E+04  1.58300E+04  3.04383E+04 -6.14210E+03  2.77040E+04
 -2.24931E+04  1.19309E+04 -1.81970E+04 -5.85174E+03  6.47105E+03 -7.57761E+03  2.34517E+04  1.34798E+04
  7.05289E+03  3.72796E+04 -3.38962E+04  3.70853E+04 -6.56045E+04  2.24463E+03 -5.84117E+04 -4.41717E+04
 -1.25848E+04 -6.53779E+04  4.17280E+04 -4.74325E+04  6.07834E+04 -2.60289E+03  3.64064E+04  3.41358E+04
 -5.54205E+03  3.92711E+04 -3.16583E+04  1.84026E+04 -3.27448E+04 -3.74412E+03 -1.89746E+04 -1.15349E+04
 -9.26442E+03 -1.46929E+04 -6.53577E+02 -2.00448E+04  8.31802E+03 -2.34554E+04  1.60644E+04 -1.24206E+04
  1.06370E+04  6.46390E+03 -1.01712E+04  1.28934E+04 -2.33277E+04 -6.23882E+03 -8.71643E+03 -3.71025E+04
  2.46769E+04 -4.63760E+04  5.13967E+04 -2.10094E+04  4.81287E+04  2.04853E+04  1.68917E+04  4.71693E+04
 -1.67913E+04  3.59594E+04 -2.70927E+04  2.61468E+03 -1.13565E+04 -2.89479E+04  2.15480E+04 -3.67730E+04
  4.37942E+04 -1.05349E+04  3.97519E+04  2.50956E+04  2.08192E+04  5.06086E+04 -8.02013E+03  5.55742E+04
 -3.49524E+04  3.78060E+04 -4.69815E+04  1.08950E+04 -4.69965E+04 -1.83083E+04 -2.58138E+04 -4.15453E+04
  7.99507E+03 -4.15486E+04  3.36017E+04 -1.68881E+04  3.15140E+04  1.09742E+04  5.09794E+03  2.02864E+04
 -1.37735E+04  9.18590E+03 -1.14973E+04 -7.55590E+03  5.80185E+03 -1.13785E+04  1.86063E+04  6.02757E+03
  1.48582E+04  2.26035E+04 -5.31493E+03  2.67492E+04 -2.33675E+04  1.36077E+04 -3.11853E+04 -3.27607E+03
 -2.48117E+04 -1.81378E+04 -1.12453E+04 -2.41859E+04  4.42019E+03 -2.50112E+04  1.90864E+04 -2.21774E+04
  3.12108E+04 -1.37376E+04  3.72227E+04  4.54900E+03  2.66579E+04  2.39408E+04  4.62104E+03  4.04993E+04
 -1.95100E+04  3.32966E+04 -2.98557E+04  1.15141E+04 -2.22907E+04 -9.87620E+03 -4.85308E+03 -1.31768E+04
  1.05949E+03 -1.40366E+03 -7.06397E+03  8.02994E+03 -1.99330E+04  4.97906E+03 -1.90564E+04 -9.05057E+03
 -1.15609E+04 -2.25396E+04  5.90555E+03 -2.70139E+04  1.83446E+04 -1.94400E+04  2.20350E+04 -1.80451E+03
  1.38928E+04  1.53756E+04 -9.87497E+02  2.25236E+04 -1.58533E+04  1.29998E+04 -2.29033E+04 -4.79473E+03
 -1.68110E+04 -2.01885E+04 -2.12054E+03 -2.70912E+04  1.21064E+04 -2.26651E+04  2.25831E+04 -1.15068E+04
  2.12384E+04 -2.57715E+02  1.53428E+04  5.30865E+03  8.25302E+03  1.51117E+03  1.16939E+04 -2.50091E+03
  2.11900E+04  2.78219E+03  2.38026E+04  1.76385E+04  1.64211E+04  3.64955E+04 -3.06900E+03  4.24614E+04
 -2.40770E+04  3.51340E+04 -4.02070E+04  1.82370E+04 -4.22843E+04 -2.82715E+03 -3.46647E+04 -2.51111E+04
 -1.38090E+04 -3.51860E+04  1.24506E+04 -3.09728E+04  2.67684E+04 -1.46474E+04  2.31897E+04  7.29338E+03
  7.99833E+03  1.78266E+04 -1.08215E+04  1.51172E+04 -1.92026E+04  2.34321E+03 -1.48780E+04 -1.22247E+04
 -3.31582E+02 -1.85891E+04  9.64955E+03 -1.34762E+04  1.28377E+04 -1.51126E+03  2.84487E+03  8.16935E+03
 -8.54384E+03  3.97986E+03 -8.62361E+03 -6.68955E+03 -1.56548E+03 -1.72970E+04  1.13583E+04 -1.86903E+04
  2.17748E+04 -1.03569E+04  2.44428E+04  3.58185E+03  2.14608E+04  1.76290E+04  9.90474E+03  2.72344E+04
 -5.19575E+03  2.94486E+04 -1.89171E+04  1.83076E+04 -2.07695E+04  3.61275E+03 -1.46261E+04 -5.41270E+03
 -6.50110E+03 -6.73201E+03 -6.73868E+02  5.62631E+02 -2.65646E+03  3.33939E+03 -7.22895E+03  5.23348E+03
 -1.34915E+04 -8.69861E+02 -1.36162E+04 -1.12809E+04 -5.68795E+03 -1.84131E+04  5.78910E+03 -1.52171E+04
  1.21960E+04 -6.28343E+03  9.04667E+03  4.25732E+03 -1.30291E+02  5.87054E+03 -7.47405E+03 -3.28789E+02
 -7.30025E+03 -9.03529E+03 -1.15090E+03 -1.43663E+04  8.42022E+03 -1.52899E+04  1.85063E+04 -8.02247E+03
  2.21321E+04  2.08534E+03  1.58732E+04  1.29401E+04  2.98180E+03  1.75676E+04 -8.82232E+03  1.44627E+04
 -1.19746E+04  4.09462E+03 -5.86207E+03 -3.23584E+03  2.11621E+03 -3.92005E+03  7.97065E+03 -1.15193E+03
  6.74803E+03  6.50909E+03  1.28781E+03  1.16199E+04 -8.43564E+03  1.12451E+04 -1.42462E+04  3.23594E+03
 -1.00172E+04 -7.41239E+03 -2.30026E+01 -1.26334E+04  8.23138E+03 -6.17600E+03  8.79536E+03  2.89957E+03
  2.24737E+03  8.88411E+03 -7.62960E+03  1.05033E+04 -1.23510E+04  5.06248E+03 -1.23856E+04 -4.25629E+03
 -7.48566E+03 -1.39317E+04  3.48408E+03 -1.62145E+04  1.42239E+04 -9.65578E+03  1.53639E+04  2.89758E+03
  9.15287E+03  1.22925E+04 -1.25702E+03  1.45039E+04 -1.08221E+04  7.84729E+03 -1.15392E+04 -1.37505E+03
 -9.84613E+03 -9.72533E+03 -1.73477E+03 -1.08931E+04  5.93725E+03 -8.50781E+03  6.96985E+03 -3.34178E+03
  4.75939E+03  1.55457E+03 -6.41740E+02  1.98495E+03 -9.13098E+02 -2.92582E+03  2.53568E+03 -6.32394E+03
  1.01162E+04 -4.33673E+03  1.41315E+04  1.68726E+03  1.41848E+04  9.72682E+03  9.10815E+03  1.82451E+04
 -4.01040E+03  2.12117E+04 -1.77432E+04  1.54639E+04 -2.30296E+04  2.69637E+03 -1.86640E+04 -7.99186E+03
 -9.34877E+03 -1.55212E+04 -1.18668E+02 -1.27600E+04  4.79983E+03 -7.08336E+03  4.62006E+03 -4.59102E+03
  3.66758E+03 -2.88365E+03  3.56895E+03 -3.73509E+03  5.58631E+03 -3.14780E+03  7.36932E+03 -1.11222E+03
  9.83747E+03  2.02699E+03  5.07674E+03  8.47943E+03 -2.26149E+03  9.73523E+03 -9.88077E+03  7.23961E+03
 -1.29561E+04 -1.28286E+03 -8.16153E+03 -9.08723E+03 -8.21296E+02 -1.41322E+04  7.54494E+03 -1.37478E+04
  1.45248E+04 -7.65827E+03  1.69931E+04  2.55704E+03  1.20952E+04  1.21449E+04  1.95722E+03  1.56497E+04
 -6.65254E+03  1.26372E+04 -8.92561E+03  4.12647E+03 -5.99275E+03 -2.03796E+03 -2.37675E+03 -1.63070E+03
 -1.37806E+03 -1.64338E+02 -1.81557E+03  2.75641E+03 -5.48990E+03  2.32608E+03 -9.22616E+03 -1.30045E+03
 -5.95722E+03 -9.18854E+03  6.78338E+01 -1.28774E+04  7.32599E+03 -1.13912E+04  1.24115E+04 -3.90617E+03
  1.21701E+04  6.13266E+03  5.81717E+03  1.12306E+04 -2.63741E+03  1.30741E+04 -9.32809E+03  7.92073E+03
 -1.19492E+04  5.30832E+02 -9.12586E+03 -7.44579E+03 -1.32381E+03 -1.06227E+04  5.15759E+03 -7.89499E+03
  8.13612E+03 -2.61296E+03  5.66258E+03  1.97607E+03  1.81696E+03  4.04234E+03  1.25833E+03  1.93675E+03
  2.63075E+03  9.10576E+02  3.12807E+03  2.03760E+03  3.50674E+03  4.89428E+03  3.56463E+03  6.81256E+03
 -2.75372E+03  9.87874E+03 -8.62712E+03  1.01840E+04 -1.28428E+04  2.34127E+03 -1.32463E+04 -5.09875E+03
 -6.10530E+03 -1.23053E+04  1.80021E+03 -1.37156E+04  7.86946E+03 -8.57602E+03  1.04710E+04 -2.33638E+03
  7.86890E+03  5.19831E+03  1.70318E+03  7.23071E+03 -3.39299E+03  4.55755E+03 -4.84200E+03 -6.38788E+02
 -2.38120E+03 -5.04558E+03  2.78804E+03 -5.66211E+03  4.83964E+03 -2.59695E+03  5.00855E+03  1.57470E+03
  3.21443E+03  2.52211E+03  1.27936E+03  1.89596E+03 -6.77587E+02  1.99813E+03  1.25175E+03 -5.30347E+02
  1.84088E+03 -9.35774E+02  4.66892E+03  1.88091E+03  2.52734E+03  6.98147E+03 -1.19670E+03  9.04324E+03
 -5.98589E+03  5.53936E+03 -8.04755E+03  1.22046E+03 -7.10733E+03 -2.54671E+03 -2.64744E+03 -4.58934E+03
  1.17989E+03 -5.00049E+03  3.34769E+03 -2.33275E+03  2.86929E+03  2.31736E+03 -1.69277E+03  4.45494E+03
 -5.08111E+03  2.40031E+03 -5.85264E+03 -3.14471E+03 -3.50081E+03 -6.54353E+03  4.63252E+02 -6.70131E+03
  4.10612E+03 -4.12493E+03  4.85334E+03 -2.83490E+02  4.45540E+03  1.65876E+03  6.77993E+02  3.49242E+03
 -2.50931E+03  1.11964E+03 -2.79264E+03 -2.28593E+03  1.00987E+03 -5.09731E+03  5.84826E+03 -4.19816E+03
  7.54350E+03  6.02469E+02  7.58900E+03  4.90284E+03  2.49377E+03  7.79104E+03 -2.86310E+03  7.30898E+03
 -6.20969E+03  3.08032E+03 -7.15233E+03 -1.06245E+03 -3.75254E+03 -5.64366E+03  9.49522E+02 -4.62779E+03
  5.06233E+03 -2.31243E+03  4.28852E+03  1.81136E+03  1.80040E+03  4.45125E+03 -4.80087E+02  3.93301E+03
 -1.60708E+03  2.51887E+03 -1.74014E+03  4.30237E+02 -8.34667E+02  1.01636E+03 -1.47285E+03  1.74427E+03
 -1.77783E+03  2.95154E+03 -5.37988E+03  2.55191E+03 -7.95054E+03  1.02032E+02 -9.03490E+03 -5.08195E+03
 -4.71906E+03 -1.01900E+04  2.24681E+03 -1.17099E+04  7.13668E+03 -8.79990E+03  1.11819E+04 -3.69916E+03
  1.05170E+04  2.15666E+03  6.56801E+03  6.74604E+03 -2.58196E+00  8.27385E+03 -3.65996E+03  6.51013E+03
 -4.44283E+03  1.97594E+03 -2.19975E+03 -8.13935E+02 -7.27345E+02 -6.69960E+02 -1.06041E+03 -1.72736E+02
 -1.76600E+03  2.23670E+02 -1.84900E+03 -2.64678E+02 -2.90287E+02 -1.97222E+03  3.88817E+02 -2.59207E+03
  3.68471E+03 -2.34295E+03  4.62975E+03  1.20017E+02  5.45377E+03  4.18635E+03  1.28934E+03  7.97027E+03
 -3.49872E+03  9.14965E+03 -8.17855E+03  5.39737E+03 -9.65310E+03 -4.26949E+02 -6.96061E+03 -6.07913E+03
 -2.91551E+03 -7.91241E+03  1.98618E+03 -7.15977E+03  4.97876E+03 -4.11623E+03  5.08737E+03  1.09852E+02
  2.96754E+03  2.47319E+03 -3.16880E+02  2.22676E+03 -1.30370E+03 -1.40595E+02 -8.39643E+01 -1.72076E+03
  2.58824E+03 -1.13481E+03  3.10386E+03  9.85555E+02  1.92147E+03  3.21964E+03  1.10023E+02  3.52128E+03
 -3.32892E+03  3.33167E+03 -5.10029E+03  5.99355E+02 -4.97958E+03 -3.59560E+03 -6.34873E+02 -6.42168E+03
  3.56874E+03 -5.23084E+03  5.39163E+03 -1.36751E+03  5.52368E+03  1.13879E+03  3.29946E+03  4.55861E+03
  8.72163E+02  5.13920E+03 -1.76388E+03  3.99693E+03 -2.88508E+03  2.44870E+03 -2.61621E+03  1.60313E+02
 -1.86507E+03 -4.41298E+02 -1.69447E+03  9.33438E+02 -2.62449E+03  7.49259E+02 -4.02223E+03 -9.18265E+02
 -3.74834E+03 -2.14918E+03 -1.09891E+03 -5.32266E+03  2.44330E+03 -5.27828E+03  4.56573E+03 -2.19505E+03
  5.13047E+03  7.78808E+02  2.34130E+03  3.04766E+03 -1.34819E+02  4.82354E+03 -3.66688E+03  3.28011E+03
