 $NMID ID='MM_0lb_SNR800_16hz_g45_62.RAW', FMTDAT='(8E13.5)'
 TRAMP=1., VOLUME=1. $END
  3.09830E+05  3.04024E+02  3.37620E+05  2.50369E+05  8.45778E+04  3.37471E+05 -1.32086E+05  2.50462E+05
 -1.89943E+05  8.28460E+04 -1.11002E+05 -3.26459E+04  1.46307E+03 -5.02049E+04  5.38535E+04  1.72014E+02
  3.50866E+04  5.29707E+04 -1.71220E+04  7.51214E+04 -6.06518E+04  6.32731E+04 -8.34452E+04  3.15756E+04
 -8.02292E+04 -1.10433E+04 -5.69372E+04 -5.09202E+04 -1.51673E+04 -6.88313E+04  2.66543E+04 -4.54305E+04
  3.93280E+04  3.93921E+03  1.58521E+04  4.72395E+04 -3.41512E+04  4.64506E+04 -6.60656E+04 -2.91338E+02
 -5.24615E+04 -5.63216E+04 -6.38761E+03 -7.59734E+04  3.38014E+04 -5.40876E+04  4.72230E+04 -1.64049E+04
  4.23907E+04  1.11275E+04  3.11206E+04  2.47742E+04  1.59480E+04  2.86802E+04 -4.87507E+03  2.69863E+04
 -2.18326E+04  1.24326E+04 -1.88113E+04 -4.30752E+03  4.76642E+03 -7.48065E+03  2.20291E+04  1.15207E+04
  7.15719E+03  3.40202E+04 -3.12569E+04  3.44694E+04 -6.22005E+04  2.15049E+03 -5.60643E+04 -4.18076E+04
 -1.26920E+04 -6.18356E+04  3.87569E+04 -4.43290E+04  5.65671E+04 -1.95742E+03  3.28763E+04  3.15452E+04
 -6.60471E+03  3.45434E+04 -2.90419E+04  1.46942E+04 -2.91924E+04 -4.91858E+03 -1.53596E+04 -1.03384E+04
 -7.76761E+03 -1.23586E+04 -9.68659E+02 -1.73213E+04  6.94809E+03 -2.31002E+04  1.52282E+04 -1.35904E+04
  1.19397E+04  4.76676E+03 -6.80261E+03  1.31567E+04 -2.01853E+04 -3.41700E+03 -8.47732E+03 -3.17265E+04
  2.19855E+04 -4.19422E+04  4.64023E+04 -1.90765E+04  4.35740E+04  1.87935E+04  1.48199E+04  4.29047E+04
 -1.54097E+04  3.21888E+04 -2.42320E+04  1.34989E+03 -8.82507E+03 -2.69967E+04  2.06381E+04 -3.26987E+04
  3.97143E+04 -8.25346E+03  3.33551E+04  2.32789E+04  1.67190E+04  4.42977E+04 -7.63065E+03  4.78222E+04
 -3.02272E+04  3.14456E+04 -3.96444E+04  8.86309E+03 -4.03078E+04 -1.59472E+04 -2.23587E+04 -3.58946E+04
  7.01258E+03 -3.54882E+04  2.99614E+04 -1.37524E+04  2.81097E+04  1.09874E+04  3.65490E+03  1.85551E+04
 -1.32709E+04  8.00494E+03 -9.89637E+03 -7.65611E+03  5.92349E+03 -1.02366E+04  1.74475E+04  6.31382E+03
  1.28113E+04  2.17914E+04 -6.27855E+03  2.43543E+04 -2.19157E+04  1.01678E+04 -2.63460E+04 -5.50030E+03
 -1.86821E+04 -1.64647E+04 -6.65756E+03 -1.82592E+04  3.74701E+03 -1.73127E+04  1.36845E+04 -1.62699E+04
  2.34538E+04 -1.22626E+04  3.00761E+04  1.99762E+03  2.23127E+04  1.81181E+04  3.92156E+03  3.43611E+04
 -1.68309E+04  2.90781E+04 -2.65756E+04  9.41138E+03 -2.01117E+04 -1.04623E+04 -4.28026E+03 -1.40563E+04
  2.36144E+03 -3.46482E+03 -3.68409E+03  6.08340E+03 -1.45065E+04  5.14239E+03 -1.47610E+04 -5.76169E+03
 -9.41837E+03 -1.73610E+04  4.69420E+03 -2.08805E+04  1.39473E+04 -1.50952E+04  1.63334E+04 -1.50639E+03
  1.04236E+04  1.17634E+04 -1.07544E+03  1.69720E+04 -1.14585E+04  9.73692E+03 -1.74376E+04 -3.72639E+03
 -1.30719E+04 -1.55294E+04 -1.78081E+03 -2.11242E+04  9.36868E+03 -1.70092E+04  1.70965E+04 -8.26278E+03
  1.59246E+04  3.87540E+02  1.12959E+04  3.95284E+03  5.75602E+03  8.95853E+02  8.65485E+03 -1.24576E+03
  1.56076E+04  2.51322E+03  1.67272E+04  1.38014E+04  1.08474E+04  2.73062E+04 -3.26885E+03  3.01166E+04
 -1.75355E+04  2.34533E+04 -2.78265E+04  1.17621E+04 -2.86171E+04 -2.02732E+03 -2.43787E+04 -1.66738E+04
 -1.07857E+04 -2.36645E+04  8.18468E+03 -2.17603E+04  1.87332E+04 -1.14372E+04  1.71573E+04  4.80364E+03
  6.86499E+03  1.27288E+04 -8.23359E+03  1.13749E+04 -1.48020E+04  2.53365E+03 -1.12947E+04 -9.13193E+03
 -7.49242E+01 -1.36355E+04  6.93925E+03 -1.03563E+04  9.10810E+03 -1.31809E+03  1.96588E+03  5.52372E+03
 -6.23358E+03  1.80253E+03 -4.73200E+03 -4.95950E+03  4.26452E+02 -1.18106E+04  8.75775E+03 -1.19009E+04
  1.44787E+04 -5.80469E+03  1.45551E+04  2.90524E+03  1.27322E+04  1.11813E+04  6.02654E+03  1.70819E+04
 -2.30075E+03  1.86183E+04 -1.17322E+04  1.19798E+04 -1.34874E+04  3.30135E+03 -1.00589E+04 -2.70050E+03
 -4.83522E+03 -4.14757E+03 -8.36263E+02  1.11447E+03 -2.15333E+03  2.21608E+03 -4.56229E+03  3.77027E+03
 -9.15213E+03 -3.40147E+02 -9.82012E+03 -8.22986E+03 -3.93493E+03 -1.31659E+04  3.98773E+03 -9.98727E+03
  8.47981E+03 -4.54263E+03  6.21339E+03  2.50413E+03  4.25231E+02  3.81910E+03 -4.38378E+03  1.14370E+02
 -4.09962E+03 -6.12425E+03 -8.75089E+02 -8.66878E+03  4.62254E+03 -9.59074E+03  1.16769E+04 -5.01426E+03
  1.40015E+04  6.07719E+02  1.03271E+04  7.71422E+03  2.34449E+03  1.05047E+04 -6.02317E+03  9.41828E+03
 -7.96087E+03  3.07113E+03 -4.27435E+03 -1.55756E+03  1.64423E+03 -2.31594E+03  5.36649E+03 -8.15656E+02
  4.73193E+03  4.00789E+03  1.28310E+03  7.52682E+03 -4.99493E+03  7.74752E+03 -9.11889E+03  1.70352E+03
 -5.73750E+03 -4.38703E+03  1.21727E+02 -7.80434E+03  4.43843E+03 -4.15419E+03  4.57206E+03  1.84695E+03
  6.95576E+02  4.68266E+03 -4.73536E+03  5.94129E+03 -6.43930E+03  3.04635E+03 -6.12470E+03 -1.88259E+03
 -3.74128E+03 -7.99402E+03  1.56227E+03 -9.09499E+03  7.67025E+03 -5.52878E+03  8.16690E+03  1.59332E+03
  5.50653E+03  6.65985E+03  1.81881E+01  8.94786E+03 -6.21818E+03  5.42236E+03 -6.63102E+03 -5.87173E+02
 -6.64651E+03 -5.95898E+03 -1.51798E+03 -6.39925E+03  3.13002E+03 -5.46556E+03  3.52784E+03 -2.54919E+03
  3.37706E+03  4.21038E+02 -1.43909E+02  1.55313E+03  3.03762E+02 -7.44012E+02  2.40856E+02 -2.92894E+03
  5.24473E+03 -1.55784E+03  7.14574E+03  8.21330E+02  7.31461E+03  4.45827E+03  6.24076E+03  9.71813E+03
 -1.50922E+03  1.10642E+04 -1.00387E+04  8.23579E+03 -1.27078E+04  1.81515E+03 -9.97059E+03 -3.43979E+03
 -5.13483E+03 -8.28080E+03 -4.33415E+02 -7.00899E+03  3.11146E+03 -2.98656E+03  2.42661E+03 -2.70097E+03
  1.56556E+03 -1.87383E+03  2.62543E+03 -2.67453E+03  4.13853E+03 -1.54745E+03  4.39215E+03 -4.35877E+01
  5.40178E+03  1.43662E+03  1.82799E+03  4.34242E+03 -1.65838E+03  4.04945E+03 -5.58436E+03  3.67333E+03
 -6.80570E+03 -1.21652E+03 -3.21031E+03 -4.74240E+03  1.02023E+02 -6.68406E+03  4.05602E+03 -7.05608E+03
  7.00949E+03 -3.79063E+03  8.61113E+03  5.69575E+02  6.40125E+03  5.96600E+03  1.15575E+03  7.76692E+03
 -3.13410E+03  7.43717E+03 -4.67874E+03  2.28914E+03 -2.83200E+03 -1.26440E+03 -8.06442E+02 -8.10172E+02
 -8.44117E+02  1.56533E+02 -9.76152E+02  1.93985E+03 -2.99394E+03  1.32917E+03 -4.88139E+03 -4.71008E+02
 -2.56317E+03 -5.00432E+03  6.88701E+02 -6.12882E+03  3.85183E+03 -5.97227E+03  5.30839E+03 -1.55407E+03
  5.50460E+03  3.29252E+03  2.36153E+03  4.96499E+03 -1.00605E+03  5.98963E+03 -3.78746E+03  4.16923E+03
 -5.33731E+03  4.49715E+02 -4.57170E+03 -3.41062E+03 -4.42018E+01 -4.45908E+03  2.24380E+03 -3.48155E+03
  3.56046E+03 -1.53438E+03  2.41869E+03  6.11980E+02  9.38565E+02  2.20373E+03  1.13108E+03  6.96601E+02
  1.92211E+03  5.82073E+02  1.39188E+03  9.88574E+02  1.88901E+03  2.71643E+03  1.67726E+03  2.48981E+03
 -1.37286E+03  4.26439E+03 -3.76200E+03  5.32503E+03 -4.82968E+03  1.47975E+03 -5.66866E+03 -1.44454E+03
 -2.21758E+03 -5.66871E+03  7.38787E+02 -6.38879E+03  3.01151E+03 -3.80301E+03  4.79998E+03 -1.18782E+03
  3.39736E+03  2.14277E+03  5.87761E+02  3.32093E+03 -1.15807E+03  1.99262E+03 -1.74133E+03 -4.59905E+02
 -9.31765E+02 -2.24059E+03  1.68963E+03 -2.09366E+03  2.12738E+03 -1.23777E+03  1.95506E+03  3.93475E+02
  1.16562E+03  5.84593E+02  8.52101E+02  3.74944E+02 -5.06311E+02  1.11647E+03  1.39424E+03 -4.80716E+01
  1.72123E+02 -1.73382E+02  2.34060E+03  9.92746E+02  5.55798E+02  3.29172E+03 -4.97429E+02  4.43290E+03
 -2.43219E+03  1.97344E+03 -3.37664E+03  4.76731E+02 -2.92601E+03 -1.20028E+03 -5.94735E+02 -1.51271E+03
  3.60171E+02 -1.91086E+03  1.57242E+03 -1.02538E+03  1.18382E+03  1.42136E+03 -9.19860E+02  1.54784E+03
 -2.31043E+03  1.16513E+03 -1.77893E+03 -1.89245E+03 -1.09824E+03 -3.09049E+03  2.59254E+02 -2.39796E+03
  1.50799E+03 -1.08632E+03  1.66013E+03 -2.82676E+02  1.88178E+03  2.17909E+02  2.67324E+02  1.69214E+03
 -7.65491E+02  1.17629E+02 -1.10210E+03 -6.51380E+02  6.59731E+02 -1.42094E+03  2.49808E+03 -1.53354E+03
  2.56819E+03 -1.86536E+01  3.70786E+03  1.50198E+03  1.49753E+03  2.65795E+03 -9.02840E+02  2.67696E+03
 -2.46758E+03  6.04469E+02 -2.56558E+03 -4.74839E+02 -1.17361E+03 -2.02934E+03  6.13958E+02 -1.22506E+03
  1.82147E+03 -9.91377E+02  1.55858E+03  5.48343E+02  1.29609E+02  1.80844E+03 -8.05756E+01  1.68350E+03
 -7.33171E+02  1.27546E+03 -4.25940E+02  4.72139E+02 -1.53113E+02  5.10443E+02 -8.72393E+02  6.75737E+02
 -7.48827E+02  1.25658E+03 -2.69132E+03  5.96825E+02 -2.74137E+03  1.99994E+02 -3.66217E+03 -1.59897E+03
 -1.75736E+03 -3.61524E+03  7.18100E+02 -4.46042E+03  2.25219E+03 -3.87431E+03  4.28991E+03 -1.16221E+03
  3.83921E+03  3.85516E+02  2.14303E+03  2.57119E+03 -3.62627E+02  2.63429E+03 -9.22023E+02  2.01143E+03
 -1.60839E+03  7.04538E+02 -1.06153E+03 -3.73717E+02 -6.01722E+02  1.15632E+02 -6.85693E+02  1.78036E+02
 -1.37547E+03  2.60818E+02 -9.79571E+02 -3.61665E+01  2.73181E+02 -6.87512E+02 -2.60710E+02 -1.13859E+03
  1.68094E+03 -9.11921E+02  1.24074E+03  1.14405E+01  1.88436E+03  1.72344E+03 -3.20652E+02  2.54039E+03
 -1.24380E+03  3.24366E+03 -2.61551E+03  2.09234E+03 -2.85099E+03 -2.27339E+02 -2.18451E+03 -1.98874E+03
 -1.31202E+03 -2.35741E+03  4.80470E+02 -2.20308E+03  1.34942E+03 -1.01646E+03  1.43125E+03  3.35214E+02
  1.16261E+03  8.12306E+02 -3.74412E+01  7.49946E+02 -6.20871E+02 -1.11351E+02 -1.73585E+02 -5.40511E+02
  8.49692E+02  1.60781E+01  6.15266E+02  6.55028E+02  5.46182E+02  9.44653E+02  5.03517E+02  9.63039E+02
 -8.73483E+02  9.55897E+02 -1.52837E+03 -3.14960E+01 -1.28467E+03 -1.13781E+03 -4.75416E+02 -2.00147E+03
  9.49768E+02 -1.31057E+03  1.30880E+03 -1.80128E+02  1.66899E+03  9.30291E+01  8.57936E+02  1.49645E+03
  2.29296E+02  1.54807E+03 -4.86014E+02  1.04510E+03 -1.10581E+03  1.14682E+03 -8.59267E+02  2.27093E+02
 -5.43822E+02 -2.35868E+02 -6.31011E+02  1.79990E+02 -8.93019E+02  2.16683E+02 -1.26917E+03 -4.47342E+02
 -1.56259E+03 -1.72940E+02 -5.58676E+02 -1.58431E+03  9.63246E+02 -2.07734E+03  1.18202E+03 -6.78458E+02
  1.46750E+03  4.00066E+01  2.64712E+02  7.58378E+02 -1.58091E+02  1.34489E+03 -9.78599E+02  1.15475E+03
