 $NMID ID='MM_0lb_SNR800_10hz_g45_63.RAW', FMTDAT='(8E13.5)'
 TRAMP=1., VOLUME=1. $END
  3.09476E+05  1.14241E+02  3.37945E+05  2.50993E+05  8.46373E+04  3.38633E+05 -1.32574E+05  2.51612E+05
 -1.90617E+05  8.37042E+04 -1.12222E+05 -3.24643E+04  7.90675E+02 -5.06220E+04  5.38736E+04 -2.79854E+02
  3.52615E+04  5.29055E+04 -1.65548E+04  7.59082E+04 -6.11793E+04  6.38722E+04 -8.48720E+04  3.22738E+04
 -8.17376E+04 -1.16097E+04 -5.80082E+04 -5.22281E+04 -1.49487E+04 -7.04810E+04  2.82019E+04 -4.63637E+04
  4.09368E+04  3.72155E+03  1.67862E+04  4.82570E+04 -3.45541E+04  4.78675E+04 -6.76266E+04  7.27326E+01
 -5.43884E+04 -5.70085E+04 -7.27783E+03 -7.82957E+04  3.43901E+04 -5.67270E+04  4.92912E+04 -1.80788E+04
  4.47701E+04  1.12957E+04  3.25102E+04  2.61284E+04  1.56139E+04  3.02578E+04 -5.92339E+03  2.75402E+04
 -2.22207E+04  1.21264E+04 -1.83106E+04 -5.36196E+03  7.05920E+03 -7.55403E+03  2.28003E+04  1.35618E+04
  6.97249E+03  3.66523E+04 -3.34459E+04  3.65183E+04 -6.48653E+04  2.13810E+03 -5.77982E+04 -4.40541E+04
 -1.24823E+04 -6.52352E+04  4.11378E+04 -4.66203E+04  6.01032E+04 -2.52549E+03  3.61797E+04  3.38472E+04
 -5.51936E+03  3.85629E+04 -3.10274E+04  1.79705E+04 -3.23572E+04 -4.17274E+03 -1.82122E+04 -1.16572E+04
 -9.62138E+03 -1.46308E+04 -6.74629E+02 -1.91175E+04  8.65873E+03 -2.34156E+04  1.57832E+04 -1.29231E+04
  1.07704E+04  5.48471E+03 -9.58980E+03  1.26630E+04 -2.27091E+04 -6.03899E+03 -8.42745E+03 -3.67167E+04
  2.45519E+04 -4.57289E+04  5.04165E+04 -2.05620E+04  4.76522E+04  2.01997E+04  1.65482E+04  4.61750E+04
 -1.62206E+04  3.53563E+04 -2.70831E+04  2.56429E+03 -1.10136E+04 -2.88515E+04  2.12680E+04 -3.61676E+04
  4.36577E+04 -1.08162E+04  3.90198E+04  2.45974E+04  2.03797E+04  4.95723E+04 -7.96361E+03  5.43132E+04
 -3.41671E+04  3.65538E+04 -4.58910E+04  1.07551E+04 -4.59222E+04 -1.80469E+04 -2.55541E+04 -4.05116E+04
  7.59745E+03 -4.09052E+04  3.33775E+04 -1.57600E+04  3.12889E+04  1.11432E+04  5.00309E+03  2.01637E+04
 -1.35779E+04  9.27740E+03 -1.11315E+04 -7.88966E+03  5.61637E+03 -1.14278E+04  1.84433E+04  5.70445E+03
  1.46592E+04  2.27579E+04 -5.36568E+03  2.64684E+04 -2.31650E+04  1.34964E+04 -3.07299E+04 -3.59349E+03
 -2.43021E+04 -1.79974E+04 -1.08274E+04 -2.36969E+04  3.76451E+03 -2.36897E+04  1.84321E+04 -2.12695E+04
  2.99922E+04 -1.37038E+04  3.64641E+04  4.01064E+03  2.60287E+04  2.29306E+04  4.18939E+03  4.00268E+04
 -1.94632E+04  3.28319E+04 -2.96307E+04  1.13057E+04 -2.18995E+04 -9.93841E+03 -4.74472E+03 -1.29850E+04
  9.58905E+02 -1.88345E+03 -6.86030E+03  7.86086E+03 -1.87292E+04  5.13050E+03 -1.89995E+04 -8.74560E+03
 -1.09677E+04 -2.23654E+04  5.99126E+03 -2.61729E+04  1.76538E+04 -1.87000E+04  2.12379E+04 -1.48131E+03
  1.39503E+04  1.52738E+04 -1.15004E+03  2.19606E+04 -1.58228E+04  1.26056E+04 -2.24611E+04 -4.37264E+03
 -1.61550E+04 -1.99459E+04 -1.99542E+03 -2.64156E+04  1.17504E+04 -2.22948E+04  2.17561E+04 -1.12551E+04
  2.05120E+04 -2.26673E+02  1.49065E+04  4.72748E+03  8.41920E+03  1.17757E+03  1.13434E+04 -1.96118E+03
  2.07595E+04  2.95186E+03  2.36487E+04  1.72488E+04  1.58509E+04  3.55907E+04 -2.75180E+03  4.09381E+04
 -2.36784E+04  3.40611E+04 -3.92971E+04  1.73916E+04 -4.15928E+04 -2.65355E+03 -3.35863E+04 -2.43967E+04
 -1.37492E+04 -3.41539E+04  1.22359E+04 -3.01204E+04  2.59916E+04 -1.45425E+04  2.27158E+04  7.20988E+03
  8.24310E+03  1.73444E+04 -1.05151E+04  1.44675E+04 -1.88703E+04  2.56386E+03 -1.44012E+04 -1.16598E+04
 -2.78873E+02 -1.82997E+04  9.77801E+03 -1.34620E+04  1.23784E+04 -1.45046E+03  3.11237E+03  7.93374E+03
 -7.98995E+03  3.60233E+03 -8.40912E+03 -6.69372E+03 -1.37801E+03 -1.67440E+04  1.13951E+04 -1.85237E+04
  2.09436E+04 -9.69836E+03  2.38828E+04  3.11133E+03  2.05607E+04  1.71191E+04  9.58997E+03  2.67578E+04
 -4.97825E+03  2.83441E+04 -1.86832E+04  1.76439E+04 -2.04603E+04  3.52581E+03 -1.42860E+04 -4.94747E+03
 -6.05692E+03 -6.48380E+03 -7.22623E+02  7.44588E+02 -2.65645E+03  2.84561E+03 -6.77413E+03  5.33547E+03
 -1.29447E+04 -6.93856E+02 -1.36798E+04 -1.07270E+04 -5.55286E+03 -1.82978E+04  5.98663E+03 -1.39883E+04
  1.16766E+04 -6.12355E+03  8.35436E+03  4.23889E+03 -1.57695E+02  5.82611E+03 -6.93858E+03  5.40821E+01
 -7.04106E+03 -9.32882E+03 -1.14367E+03 -1.40014E+04  8.05057E+03 -1.48072E+04  1.83006E+04 -7.72735E+03
  2.13035E+04  1.80186E+03  1.59997E+04  1.31085E+04  2.79709E+03  1.71506E+04 -8.77649E+03  1.41653E+04
 -1.18547E+04  4.10821E+03 -5.89917E+03 -2.82477E+03  1.84126E+03 -3.89609E+03  8.04464E+03 -1.03634E+03
  6.70945E+03  6.50556E+03  1.05294E+03  1.14607E+04 -8.14896E+03  1.08739E+04 -1.41061E+04  2.71243E+03
 -9.90611E+03 -7.37069E+03  2.56996E+02 -1.21968E+04  7.97689E+03 -6.15694E+03  8.25535E+03  2.95731E+03
  1.89540E+03  8.82747E+03 -7.62337E+03  1.01389E+04 -1.21058E+04  4.40816E+03 -1.22078E+04 -4.38721E+03
 -7.00040E+03 -1.42149E+04  3.41702E+03 -1.59538E+04  1.36004E+04 -9.93066E+03  1.53973E+04  2.76079E+03
  8.97779E+03  1.16837E+04 -1.12042E+03  1.40621E+04 -1.02388E+04  8.01257E+03 -1.14305E+04 -1.18115E+03
 -9.95386E+03 -9.49359E+03 -1.72678E+03 -1.04632E+04  5.91649E+03 -8.78908E+03  7.20323E+03 -3.41452E+03
  4.35612E+03  1.67411E+03 -1.17368E+03  1.90641E+03 -5.14585E+02 -2.82977E+03  2.30571E+03 -6.72256E+03
  1.00855E+04 -4.14395E+03  1.37637E+04  1.47552E+03  1.34858E+04  9.60976E+03  8.88085E+03  1.85240E+04
 -4.10632E+03  2.14720E+04 -1.75522E+04  1.55077E+04 -2.29206E+04  2.95602E+03 -1.83344E+04 -7.88404E+03
 -9.31086E+03 -1.47807E+04 -6.21111E+02 -1.27921E+04  4.56607E+03 -6.97964E+03  4.29110E+03 -4.63294E+03
  3.34450E+03 -2.45386E+03  3.41087E+03 -3.68112E+03  5.33312E+03 -2.85005E+03  7.21751E+03 -9.65189E+02
  1.01032E+04  2.13001E+03  5.02005E+03  7.98823E+03 -2.21459E+03  9.25274E+03 -1.04174E+04  7.52356E+03
 -1.28972E+04 -1.27469E+03 -7.87329E+03 -8.98983E+03 -7.05282E+02 -1.40772E+04  7.39372E+03 -1.37110E+04
  1.41109E+04 -7.64282E+03  1.72038E+04  2.33968E+03  1.15321E+04  1.18981E+04  1.91928E+03  1.55316E+04
 -6.51619E+03  1.27314E+04 -9.22670E+03  4.05276E+03 -6.13588E+03 -1.66777E+03 -2.07763E+03 -1.55756E+03
 -1.43004E+03  2.08187E+02 -2.10372E+03  2.78875E+03 -5.52448E+03  2.25307E+03 -8.93628E+03 -1.07624E+03
 -6.39062E+03 -9.00463E+03  2.66638E+02 -1.27364E+04  7.92643E+03 -1.17766E+04  1.23349E+04 -3.53750E+03
  1.25406E+04  6.49248E+03  6.20917E+03  1.12454E+04 -2.54710E+03  1.29478E+04 -9.27761E+03  7.96814E+03
 -1.19959E+04  3.45647E+02 -9.43349E+03 -7.92253E+03 -1.04773E+03 -1.07218E+04  5.55367E+03 -8.11926E+03
  8.12336E+03 -3.01619E+03  5.46671E+03  2.50194E+03  2.21069E+03  3.96760E+03  1.33882E+03  1.59728E+03
  2.26652E+03  1.40829E+03  2.82450E+03  1.29275E+03  3.90669E+03  4.64657E+03  3.47499E+03  6.91127E+03
 -2.43272E+03  9.90990E+03 -8.57424E+03  1.01196E+04 -1.30052E+04  2.89610E+03 -1.35371E+04 -5.36934E+03
 -6.76457E+03 -1.26597E+04  2.02061E+03 -1.40372E+04  7.61193E+03 -8.76645E+03  1.08856E+04 -2.44846E+03
  8.49901E+03  5.31271E+03  1.98160E+03  7.63573E+03 -3.62104E+03  4.49052E+03 -4.97236E+03 -8.32506E+02
 -1.92420E+03 -5.44158E+03  3.25519E+03 -5.79900E+03  5.24416E+03 -2.77214E+03  4.78125E+03  1.17258E+03
  2.82745E+03  2.19905E+03  9.76533E+02  1.77268E+03 -9.81388E+02  1.81849E+03  1.67953E+03 -6.03787E+02
  1.96300E+03 -7.29181E+02  5.14028E+03  2.04014E+03  2.96791E+03  6.81529E+03 -7.16015E+02  9.03764E+03
 -5.92341E+03  5.87438E+03 -8.54029E+03  1.56725E+03 -7.45563E+03 -3.24804E+03 -2.92046E+03 -5.32633E+03
  6.86792E+02 -4.86976E+03  3.03234E+03 -2.64710E+03  2.57587E+03  2.58687E+03 -1.37502E+03  4.13646E+03
 -5.49238E+03  2.37341E+03 -5.58774E+03 -3.19436E+03 -3.13169E+03 -7.00169E+03  1.09516E+03 -7.18349E+03
  3.65969E+03 -4.24388E+03  5.17671E+03 -5.86955E+02  4.43779E+03  2.24806E+03  2.69023E+02  3.58436E+03
 -2.61680E+03  1.23462E+03 -2.79932E+03 -2.00613E+03  1.49315E+03 -5.08427E+03  6.07447E+03 -4.27676E+03
  7.96937E+03  6.80643E+02  8.11010E+03  5.47481E+03  2.55858E+03  8.34734E+03 -3.34240E+03  7.76910E+03
 -6.44058E+03  3.03589E+03 -7.56158E+03 -6.98809E+02 -3.76314E+03 -5.32754E+03  1.56812E+03 -4.89285E+03
  5.54627E+03 -2.45462E+03  4.22713E+03  1.77032E+03  1.42878E+03  4.69390E+03 -8.84123E+02  3.53750E+03
 -2.24250E+03  2.78710E+03 -2.04888E+03  1.00143E+03 -7.83010E+02  8.12092E+02 -1.57519E+03  1.73133E+03
 -2.26062E+03  3.17257E+03 -5.44835E+03  2.60017E+03 -8.23907E+03  1.66883E+02 -9.25157E+03 -5.62340E+03
 -4.81609E+03 -1.09930E+04  2.21303E+03 -1.25261E+04  7.35049E+03 -1.00673E+04  1.18362E+04 -3.66942E+03
  1.10848E+04  2.41946E+03  7.43886E+03  7.84016E+03  6.72186E+02  8.73243E+03 -3.56419E+03  6.52217E+03
 -4.70798E+03  2.72639E+03 -2.65224E+03 -1.02619E+03 -1.02227E+03 -4.98336E+02 -6.48895E+02 -8.11492E+01
 -1.21116E+03 -9.80141E+01 -2.02077E+03 -4.54760E+02 -9.56848E+02 -2.34560E+03  1.12437E+02 -3.22559E+03
  3.79865E+03 -2.73505E+03  5.07545E+03 -1.57641E+02  5.89929E+03  4.37265E+03  1.39453E+03  8.00440E+03
 -4.24229E+03  9.91990E+03 -8.76734E+03  5.60762E+03 -1.01776E+04 -1.23876E+03 -7.53565E+03 -6.54719E+03
 -3.22795E+03 -8.88917E+03  1.84461E+03 -8.05220E+03  5.10688E+03 -4.26249E+03  5.84881E+03  1.92024E+02
  3.03439E+03  2.59458E+03 -3.85831E+02  2.43749E+03 -1.64518E+03 -2.08975E+02 -2.92360E+02 -1.85249E+03
  2.58686E+03 -9.26561E+02  2.97736E+03  1.23741E+03  2.15858E+03  3.36187E+03  3.11841E+02  4.47183E+03
 -3.59243E+03  3.98180E+03 -5.41193E+03  3.15142E+02 -5.13658E+03 -4.37697E+03 -7.72242E+02 -6.98064E+03
  3.68676E+03 -6.00146E+03  6.40626E+03 -1.87789E+03  6.04292E+03  1.62105E+03  3.80816E+03  5.13298E+03
  6.57381E+02  5.74351E+03 -1.90808E+03  4.46492E+03 -3.64763E+03  2.54004E+03 -3.10631E+03  4.82164E+02
 -1.26532E+03 -2.78071E+02 -1.96060E+03  6.10234E+02 -2.95081E+03  7.25505E+02 -4.33138E+03 -6.99555E+02
 -4.18971E+03 -2.87477E+03 -1.13660E+03 -5.63991E+03  3.22287E+03 -5.71040E+03  5.19192E+03 -2.27685E+03
  5.29856E+03  3.57001E+02  2.85366E+03  3.49122E+03 -2.22659E+02  5.79321E+03 -4.09252E+03  3.68514E+03
