 $NMID ID='MM_0lb_SNR800_14hz_g60_11.RAW', FMTDAT='(8E13.5)'
 TRAMP=1., VOLUME=1. $END
  3.09843E+05  2.49610E+02  3.37758E+05  2.51018E+05  8.48535E+04  3.37989E+05 -1.32342E+05  2.51398E+05
 -1.90533E+05  8.35562E+04 -1.11944E+05 -3.26430E+04  8.10460E+02 -5.08989E+04  5.36638E+04 -3.17433E+02
  3.55676E+04  5.28483E+04 -1.68002E+04  7.56461E+04 -6.07654E+04  6.41472E+04 -8.45813E+04  3.20674E+04
 -8.15769E+04 -1.14066E+04 -5.75864E+04 -5.19040E+04 -1.51253E+04 -7.03040E+04  2.77127E+04 -4.61773E+04
  4.07596E+04  3.36778E+03  1.63512E+04  4.80421E+04 -3.44001E+04  4.75586E+04 -6.75012E+04  9.11881E+00
 -5.40317E+04 -5.75549E+04 -7.09039E+03 -7.80032E+04  3.42449E+04 -5.55653E+04  4.87095E+04 -1.74686E+04
  4.40295E+04  1.14543E+04  3.22977E+04  2.62166E+04  1.57849E+04  2.96071E+04 -5.28304E+03  2.74284E+04
 -2.23038E+04  1.23660E+04 -1.85310E+04 -5.53860E+03  6.11326E+03 -7.20851E+03  2.29400E+04  1.28448E+04
  7.03129E+03  3.62054E+04 -3.26786E+04  3.60476E+04 -6.43592E+04  2.03669E+03 -5.77878E+04 -4.34657E+04
 -1.27479E+04 -6.44342E+04  4.04377E+04 -4.62333E+04  5.95409E+04 -2.69880E+03  3.54972E+04  3.31925E+04
 -6.06311E+03  3.73953E+04 -3.08420E+04  1.70974E+04 -3.11676E+04 -4.23708E+03 -1.73494E+04 -1.14230E+04
 -8.97126E+03 -1.39841E+04 -6.54436E+02 -1.83135E+04  8.14436E+03 -2.34113E+04  1.56430E+04 -1.29291E+04
  1.12613E+04  5.27633E+03 -9.08345E+03  1.29615E+04 -2.19999E+04 -5.26252E+03 -8.53241E+03 -3.51493E+04
  2.35435E+04 -4.49177E+04  4.96415E+04 -1.99981E+04  4.63543E+04  2.00949E+04  1.63789E+04  4.53343E+04
 -1.65344E+04  3.45555E+04 -2.63022E+04  2.06094E+03 -1.04586E+04 -2.83195E+04  2.12744E+04 -3.46499E+04
  4.21753E+04 -9.81093E+03  3.71636E+04  2.42206E+04  1.91569E+04  4.79876E+04 -8.33071E+03  5.25191E+04
 -3.31555E+04  3.52771E+04 -4.40389E+04  1.00180E+04 -4.44711E+04 -1.71779E+04 -2.41451E+04 -3.94192E+04
  7.47774E+03 -3.89683E+04  3.23917E+04 -1.56626E+04  3.02120E+04  1.09390E+04  4.53452E+03  1.96692E+04
 -1.35080E+04  8.58981E+03 -1.07588E+04 -7.75643E+03  5.79167E+03 -1.08444E+04  1.81171E+04  5.81109E+03
  1.40365E+04  2.21045E+04 -5.91002E+03  2.58779E+04 -2.27589E+04  1.23834E+04 -2.92258E+04 -4.12518E+03
 -2.23365E+04 -1.78486E+04 -9.59136E+03 -2.17291E+04  3.85790E+03 -2.14738E+04  1.70090E+04 -1.96948E+04
  2.77762E+04 -1.31097E+04  3.43523E+04  3.51308E+03  2.48121E+04  2.13126E+04  4.24282E+03  3.78607E+04
 -1.80178E+04  3.16132E+04 -2.85196E+04  1.08735E+04 -2.14871E+04 -1.02656E+04 -4.43836E+03 -1.33853E+04
  1.76714E+03 -2.27239E+03 -5.81330E+03  7.03017E+03 -1.72440E+04  4.88862E+03 -1.72451E+04 -7.77746E+03
 -1.05261E+04 -2.01592E+04  5.15884E+03 -2.46424E+04  1.65203E+04 -1.74055E+04  1.97097E+04 -1.74222E+03
  1.25294E+04  1.40086E+04 -1.10045E+03  2.04244E+04 -1.42995E+04  1.16404E+04 -2.03290E+04 -4.23570E+03
 -1.50304E+04 -1.79594E+04 -1.81663E+03 -2.42735E+04  1.09816E+04 -1.99643E+04  2.04127E+04 -1.00423E+04
  1.87416E+04  2.74583E+02  1.39386E+04  4.98265E+03  7.32436E+03  8.82473E+02  9.96902E+03 -1.85409E+03
  1.82914E+04  2.98452E+03  2.08806E+04  1.56553E+04  1.39646E+04  3.21522E+04 -3.11177E+03  3.66780E+04
 -2.13264E+04  2.99498E+04 -3.44114E+04  1.49904E+04 -3.60325E+04 -2.62435E+03 -2.99709E+04 -2.10503E+04
 -1.22215E+04 -2.96445E+04  1.02874E+04 -2.65756E+04  2.28180E+04 -1.36379E+04  2.07604E+04  5.97324E+03
  7.49899E+03  1.54765E+04 -9.74834E+03  1.30790E+04 -1.69864E+04  2.63981E+03 -1.35417E+04 -1.09599E+04
 -6.19595E+01 -1.62071E+04  8.99528E+03 -1.23899E+04  1.09116E+04 -1.34034E+03  2.73136E+03  6.92409E+03
 -7.25708E+03  2.82391E+03 -7.15348E+03 -5.96046E+03 -9.86465E+02 -1.47920E+04  9.73903E+03 -1.55002E+04
  1.80650E+04 -8.10414E+03  1.97059E+04  2.70423E+03  1.73770E+04  1.44239E+04  7.88944E+03  2.19874E+04
 -3.60264E+03  2.41687E+04 -1.56331E+04  1.47896E+04 -1.70156E+04  3.56870E+03 -1.19483E+04 -3.87962E+03
 -5.50250E+03 -5.45869E+03 -7.42716E+02  6.86052E+02 -2.65916E+03  2.59055E+03 -5.53964E+03  4.64606E+03
 -1.13947E+04 -8.92824E+02 -1.23978E+04 -9.59742E+03 -4.71246E+03 -1.57564E+04  4.99101E+03 -1.23517E+04
  1.03076E+04 -5.26843E+03  7.23216E+03  2.90565E+03  1.88213E+02  4.82253E+03 -5.96260E+03  2.62110E+01
 -5.70751E+03 -7.74593E+03 -1.06748E+03 -1.16256E+04  6.71333E+03 -1.19701E+04  1.53645E+04 -6.55139E+03
  1.76576E+04  1.66607E+03  1.30772E+04  1.01116E+04  2.20189E+03  1.38541E+04 -7.68709E+03  1.17960E+04
 -1.00146E+04  3.37989E+03 -5.38126E+03 -2.11361E+03  1.90823E+03 -3.24996E+03  6.85113E+03 -1.11231E+03
  5.84487E+03  5.09350E+03  1.26485E+03  9.43934E+03 -6.76013E+03  9.49260E+03 -1.18227E+04  2.16924E+03
 -7.81251E+03 -6.21365E+03  5.26367E+02 -1.02621E+04  5.94712E+03 -5.03135E+03  6.24849E+03  2.36751E+03
  1.59978E+03  6.72771E+03 -6.10147E+03  8.20097E+03 -9.18354E+03  3.56575E+03 -8.82947E+03 -3.05468E+03
 -5.58275E+03 -1.08141E+04  2.31307E+03 -1.23572E+04  1.07639E+04 -7.72076E+03  1.12866E+04  1.83690E+03
  7.27894E+03  9.06297E+03 -5.96822E+02  1.11887E+04 -8.14801E+03  6.48696E+03 -8.57345E+03 -6.54260E+02
 -8.38499E+03 -7.53180E+03 -1.26617E+03 -8.04414E+03  4.24248E+03 -7.20057E+03  5.19793E+03 -3.04639E+03
  4.07537E+03  9.87145E+02 -3.90221E+02  1.84602E+03  8.96082E+01 -1.56920E+03  1.22043E+03 -4.30611E+03
  7.23810E+03 -2.72009E+03  1.02860E+04  1.19400E+03  9.94669E+03  6.80893E+03  7.35615E+03  1.35704E+04
 -2.99683E+03  1.57324E+04 -1.35961E+04  1.20437E+04 -1.72026E+04  2.28753E+03 -1.37563E+04 -5.40641E+03
 -7.02826E+03 -1.15323E+04 -7.95264E+01 -9.46350E+03  3.91170E+03 -4.81542E+03  3.40400E+03 -3.49666E+03
  2.09315E+03 -2.28440E+03  2.77048E+03 -3.04528E+03  4.52652E+03 -2.52779E+03  5.62337E+03 -4.79853E+02
  7.05928E+03  1.75804E+03  3.08703E+03  5.98729E+03 -1.60295E+03  6.16692E+03 -7.77122E+03  5.09639E+03
 -9.41821E+03 -1.31511E+03 -5.18733E+03 -6.30260E+03 -5.01774E+02 -9.90408E+03  5.48257E+03 -1.01084E+04
  9.92749E+03 -5.53001E+03  1.23982E+04  1.11827E+03  8.51517E+03  8.29350E+03  1.66001E+03  1.11007E+04
 -4.11682E+03  9.29794E+03 -6.18049E+03  3.47552E+03 -4.18373E+03 -1.29678E+03 -1.48738E+03 -1.33179E+03
 -8.37815E+02  6.07017E+01 -1.86816E+03  2.37488E+03 -4.19030E+03  1.66714E+03 -6.51433E+03 -9.68308E+02
 -4.09464E+03 -6.72868E+03  3.63529E+02 -9.06019E+03  5.50186E+03 -8.22899E+03  8.22590E+03 -2.38128E+03
  8.43210E+03  4.26249E+03  3.73963E+03  7.54276E+03 -1.52048E+03  8.69788E+03 -6.25726E+03  5.35100E+03
 -7.87447E+03  6.85101E+02 -6.48305E+03 -5.07070E+03 -9.65186E+02 -7.18465E+03  3.65123E+03 -5.19831E+03
  5.54127E+03 -2.04548E+03  3.17563E+03  9.57675E+02  1.03237E+03  2.80055E+03  1.00683E+03  1.07123E+03
  1.90771E+03  9.62160E+02  2.32121E+03  1.35202E+03  2.54519E+03  3.11851E+03  2.34388E+03  4.36024E+03
 -2.12587E+03  6.41551E+03 -5.50201E+03  7.17277E+03 -7.58915E+03  2.07150E+03 -8.85170E+03 -2.89466E+03
 -3.91050E+03 -8.23756E+03  1.16488E+03 -9.41769E+03  5.01916E+03 -5.83217E+03  6.52057E+03 -1.45533E+03
  4.93637E+03  3.35004E+03  1.17328E+03  4.55246E+03 -2.04999E+03  2.89204E+03 -2.90962E+03 -3.17103E+02
 -1.45392E+03 -3.64379E+03  2.24937E+03 -3.83323E+03  3.07393E+03 -1.76029E+03  3.03371E+03  1.02453E+03
  1.53834E+03  1.22107E+03  9.37127E+02  1.00845E+03 -5.60671E+02  1.31317E+03  1.92934E+03 -4.89046E+02
  9.99621E+02 -4.90324E+02  3.23912E+03  1.01113E+03  1.35235E+03  4.28031E+03 -5.57417E+02  5.52018E+03
 -3.58342E+03  3.46883E+03 -5.07891E+03  1.05239E+03 -4.73866E+03 -1.79101E+03 -1.62721E+03 -2.60880E+03
  7.20622E+02 -3.06174E+03  1.71170E+03 -1.47996E+03  1.60473E+03  1.66394E+03 -6.55269E+02  2.47698E+03
 -3.35755E+03  1.51807E+03 -3.18965E+03 -2.18596E+03 -1.69931E+03 -4.42352E+03  2.09446E+02 -3.84154E+03
  1.86240E+03 -2.14552E+03  2.81726E+03 -2.15750E+02  2.92832E+03  4.35627E+02  3.09782E+02  2.28796E+03
 -1.42950E+03  5.76637E+02 -1.79532E+03 -1.39697E+03  8.68800E+02 -3.31096E+03  3.88169E+03 -2.29782E+03
  4.13028E+03 -1.57202E+01  5.31378E+03  2.74295E+03  1.95547E+03  4.76295E+03 -1.62064E+03  4.43254E+03
 -3.61667E+03  1.66928E+03 -3.73653E+03 -6.23367E+02 -2.18643E+03 -3.15890E+03  4.73095E+02 -2.52427E+03
  2.90081E+03 -1.33193E+03  2.10535E+03  1.10257E+03  8.62739E+02  2.55568E+03 -1.19293E+02  2.08912E+03
 -1.10041E+03  1.84881E+03 -1.02235E+03  6.28025E+02 -3.04653E+02  5.47859E+02 -8.60155E+02  1.12949E+03
 -1.13846E+03  2.03941E+03 -3.23775E+03  1.61566E+03 -4.70332E+03  7.62157E+01 -5.07633E+03 -2.92038E+03
 -2.93590E+03 -5.87657E+03  1.28508E+03 -6.81984E+03  3.69165E+03 -5.65503E+03  6.55736E+03 -2.39234E+03
  6.05532E+03  1.00847E+03  3.32586E+03  3.78802E+03 -2.64902E+02  4.36444E+03 -1.79319E+03  3.12406E+03
 -2.52842E+03  1.31148E+03 -1.29339E+03 -4.74319E+02 -9.34822E+02 -2.43633E+02 -2.31894E+02  6.13483E+01
 -1.69713E+03  1.75921E+02 -1.22150E+03  4.94541E+01 -1.30038E+02 -1.31381E+03 -3.44171E+02 -1.57404E+03
  1.98646E+03 -1.42625E+03  2.08095E+03 -1.41101E+02  2.81486E+03  2.23587E+03  2.72803E+02  4.35365E+03
 -2.02410E+03  5.12958E+03 -4.52810E+03  2.94123E+03 -4.99127E+03 -2.25244E+02 -3.79745E+03 -3.19232E+03
 -1.62311E+03 -4.04772E+03  9.36858E+02 -3.83792E+03  2.38156E+03 -2.09245E+03  2.41301E+03  4.89966E+02
  1.78566E+03  1.19794E+03 -7.06688E+01  1.17280E+03 -9.97503E+02  1.15507E+02  4.67443E+01 -6.13468E+02
  1.09547E+03 -2.82911E+02  1.25778E+03  1.02527E+03  7.88155E+02  1.49733E+03  1.57190E+02  1.67242E+03
 -1.67832E+03  1.93584E+03 -2.23841E+03  4.38847E+02 -2.34134E+03 -1.68019E+03 -4.03965E+02 -3.08873E+03
  1.80166E+03 -2.38894E+03  2.49013E+03 -6.80241E+02  2.84441E+03 -8.94769E+01  1.53568E+03  2.14183E+03
  4.83628E+02  2.10897E+03 -9.33142E+02  1.62694E+03 -1.59525E+03  1.26312E+03 -1.40562E+03  1.73193E+02
 -5.97203E+02 -4.42107E+02 -6.26989E+02  2.22949E+02 -1.27961E+03  1.14521E+02 -1.93009E+03 -6.46054E+02
 -2.14153E+03 -9.18246E+02 -9.93917E+02 -2.71640E+03  1.26999E+03 -3.00857E+03  2.05808E+03 -1.01882E+03
  2.31268E+03  2.81920E+02  7.26222E+02  1.28539E+03 -3.66508E+02  2.14264E+03 -1.59491E+03  1.82710E+03
