 $NMID ID='MM_0lb_SNR800_20hz_g40_77.RAW', FMTDAT='(8E13.5)'
 TRAMP=1., VOLUME=1. $END
  3.09953E+05  5.19874E+02  3.36972E+05  2.50003E+05  8.40009E+04  3.36944E+05 -1.32480E+05  2.49993E+05
 -1.89343E+05  8.21397E+04 -1.10674E+05 -3.31603E+04  2.03721E+03 -5.02955E+04  5.37921E+04  6.20323E+02
  3.47339E+04  5.29719E+04 -1.71866E+04  7.46301E+04 -5.98189E+04  6.21899E+04 -8.24773E+04  3.14753E+04
 -7.86639E+04 -1.08269E+04 -5.57862E+04 -4.96861E+04 -1.45731E+04 -6.75174E+04  2.62383E+04 -4.42303E+04
  3.84833E+04  3.92627E+03  1.52891E+04  4.67100E+04 -3.38605E+04  4.55179E+04 -6.42244E+04 -8.80494E+02
 -5.10522E+04 -5.51680E+04 -6.17492E+03 -7.37786E+04  3.26784E+04 -5.21966E+04  4.52737E+04 -1.57103E+04
  4.03438E+04  1.10423E+04  3.01238E+04  2.38574E+04  1.56820E+04  2.76848E+04 -4.29781E+03  2.61944E+04
 -2.12769E+04  1.29295E+04 -1.91593E+04 -4.04974E+03  3.77310E+03 -7.60191E+03  2.05945E+04  1.03609E+04
  7.60093E+03  3.21690E+04 -2.94891E+04  3.33026E+04 -6.00207E+04  2.34555E+03 -5.43135E+04 -4.02123E+04
 -1.26013E+04 -5.94151E+04  3.72762E+04 -4.22904E+04  5.37863E+04 -1.91461E+03  3.05551E+04  2.96902E+04
 -6.74956E+03  3.16954E+04 -2.74431E+04  1.18462E+04 -2.62639E+04 -5.83497E+03 -1.35273E+04 -9.35754E+03
 -6.90500E+03 -1.06065E+04 -8.92517E+02 -1.58395E+04  6.16482E+03 -2.24468E+04  1.48708E+04 -1.42982E+04
  1.25190E+04  3.83246E+03 -5.08772E+03  1.30791E+04 -1.83537E+04 -1.24326E+03 -7.97962E+03 -2.85841E+04
  1.98174E+04 -3.90929E+04  4.32642E+04 -1.78557E+04  4.03701E+04  1.76474E+04  1.36400E+04  4.05986E+04
 -1.51401E+04  2.98231E+04 -2.24468E+04  7.17177E+02 -7.50368E+03 -2.56760E+04  2.01848E+04 -2.99209E+04
  3.66467E+04 -6.43832E+03  2.95178E+04  2.21081E+04  1.41899E+04  4.07806E+04 -7.55127E+03  4.28738E+04
 -2.69034E+04  2.80971E+04 -3.49124E+04  7.54522E+03 -3.63031E+04 -1.41782E+04 -2.03129E+04 -3.29858E+04
  6.85833E+03 -3.23701E+04  2.78096E+04 -1.15908E+04  2.55164E+04  1.07792E+04  2.51568E+03  1.70749E+04
 -1.30352E+04  6.74636E+03 -9.30484E+03 -7.73508E+03  5.94673E+03 -9.83138E+03  1.70689E+04  6.68072E+03
  1.17048E+04  2.13499E+04 -7.03016E+03  2.25508E+04 -2.09537E+04  8.03760E+03 -2.36162E+04 -7.26473E+03
 -1.50438E+04 -1.56958E+04 -4.46544E+03 -1.49835E+04  3.90804E+03 -1.23594E+04  1.10499E+04 -1.27824E+04
  1.91271E+04 -1.11435E+04  2.57986E+04  3.57173E+02  1.98890E+04  1.48988E+04  3.81782E+03  3.05092E+04
 -1.56748E+04  2.62599E+04 -2.52095E+04  9.00861E+03 -1.91751E+04 -1.03650E+04 -3.60619E+03 -1.40401E+04
  3.22935E+03 -4.71436E+03 -1.80249E+03  4.60937E+03 -1.14428E+04  5.20941E+03 -1.19573E+04 -3.89703E+03
 -7.91738E+03 -1.38550E+04  4.37160E+03 -1.76782E+04  1.13504E+04 -1.29031E+04  1.30447E+04 -1.18930E+03
  8.02276E+03  9.88110E+03 -5.27919E+02  1.44709E+04 -9.09768E+03  7.82648E+03 -1.39170E+04 -3.30266E+03
 -1.06691E+04 -1.28677E+04 -1.27982E+03 -1.73410E+04  8.08896E+03 -1.39118E+04  1.50059E+04 -6.53155E+03
  1.33729E+04  8.75651E+02  9.41438E+03  3.65960E+03  4.66356E+03  4.92869E+02  6.65129E+03 -1.37730E+03
  1.27540E+04  2.64250E+03  1.29848E+04  1.18878E+04  7.66585E+03  2.26155E+04 -3.24704E+03  2.33455E+04
 -1.40963E+04  1.76260E+04 -2.14732E+04  8.15689E+03 -2.17174E+04 -1.35262E+03 -1.87232E+04 -1.24195E+04
 -9.29844E+03 -1.76605E+04  5.63882E+03 -1.68940E+04  1.46318E+04 -1.01280E+04  1.43538E+04  2.96727E+03
  6.20043E+03  1.01472E+04 -6.35783E+03  9.48697E+03 -1.23014E+04  2.39839E+03 -9.52190E+03 -7.19604E+03
  6.96953E+01 -1.13047E+04  5.37612E+03 -8.65537E+03  6.96602E+03 -1.25971E+03  1.11045E+03  4.46355E+03
 -5.18330E+03  8.29044E+02 -2.94773E+03 -3.99470E+03  8.99463E+02 -9.25825E+03  7.14567E+03 -8.79684E+03
  1.05785E+04 -3.69260E+03  9.63147E+03  2.43750E+03  8.60501E+03  8.07390E+03  4.10640E+03  1.18141E+04
 -1.07255E+03  1.37024E+04 -7.73976E+03  8.55993E+03 -9.40820E+03  2.74887E+03 -7.40057E+03 -1.20693E+03
 -4.27560E+03 -2.45926E+03 -8.60589E+02  1.58996E+03 -1.85439E+03  1.79732E+03 -3.21346E+03  3.34237E+03
 -7.23294E+03 -4.28068E+02 -7.95440E+03 -6.46212E+03 -3.49387E+03 -1.01906E+04  3.11488E+03 -7.31673E+03
  6.24856E+03 -3.17701E+03  4.62187E+03  1.88910E+03  6.56069E+02  2.47874E+03 -2.54454E+03  4.81032E+01
 -3.01958E+03 -4.45506E+03 -7.23465E+02 -6.08697E+03  3.08823E+03 -6.75149E+03  8.53507E+03 -3.20083E+03
  9.90828E+03  3.33485E+02  7.49774E+03  4.99432E+03  1.35957E+03  7.29737E+03 -4.92625E+03  7.30477E+03
 -5.98356E+03  2.59260E+03 -3.34037E+03 -7.28339E+02  1.23571E+03 -1.73727E+03  4.37109E+03 -1.03051E+03
  3.50399E+03  2.72642E+03  1.05402E+03  5.36375E+03 -3.75425E+03  5.38154E+03 -6.62577E+03  1.60939E+03
 -4.11796E+03 -2.99095E+03  2.43422E+02 -5.73819E+03  3.20477E+03 -2.69045E+03  2.89235E+03  6.01726E+02
  4.09314E+02  2.69271E+03 -3.68073E+03  3.78618E+03 -3.55567E+03  1.79682E+03 -3.20615E+03 -6.12637E+02
 -2.48113E+03 -4.53961E+03  5.57538E+02 -5.88118E+03  5.02038E+03 -3.94061E+03  5.28129E+03  8.26344E+02
  4.14063E+03  4.13874E+03  9.85982E+01  6.20121E+03 -4.27130E+03  3.45113E+03 -4.53630E+03 -1.62517E+02
 -4.90401E+03 -4.49515E+03 -1.15978E+03 -4.18234E+03  2.11118E+03 -3.94347E+03  2.35319E+03 -2.76260E+03
  2.62410E+03 -1.17323E+02  9.44710E+01  1.44387E+03  6.75882E+02  3.09531E+02  8.34722E+01 -1.14027E+03
  2.66367E+03 -2.10864E+02  3.81936E+03  3.80093E+02  4.20389E+03  1.85068E+03  4.59895E+03  5.72529E+03
 -1.10382E+03  6.93234E+03 -6.23295E+03  5.46705E+03 -8.17086E+03  8.06538E+02 -6.20924E+03 -1.86434E+03
 -3.50373E+03 -5.23378E+03 -2.95588E+02 -3.93907E+03  1.78165E+03 -1.66313E+03  1.32801E+03 -1.65172E+03
  7.80548E+02 -1.34639E+03  1.81175E+03 -2.25407E+03  3.70864E+03 -1.09548E+03  3.20373E+03  6.06682E+02
  3.93758E+03  1.17808E+03  7.81740E+02  2.76237E+03 -1.49892E+03  2.15490E+03 -3.94615E+03  2.00385E+03
 -3.93805E+03 -9.30090E+02 -1.20009E+03 -2.61762E+03  5.55013E+02 -4.00550E+03  2.61193E+03 -4.31775E+03
  4.12033E+03 -2.82812E+03  5.52294E+03 -6.57026E+01  3.93343E+03  3.40555E+03  1.03374E+03  4.75574E+03
 -1.33388E+03  5.17271E+03 -2.62055E+03  1.57096E+03 -1.19238E+03 -9.46422E+02 -2.16754E+02 -3.95529E+02
 -3.76586E+02  6.35991E+02 -7.69675E+02  1.86455E+03 -2.10985E+03  9.54431E+02 -3.45446E+03 -8.64103E+01
 -9.74582E+02 -3.39196E+03  1.00902E+03 -3.68288E+03  2.12898E+03 -3.49192E+03  2.40045E+03 -8.61113E+02
  3.22735E+03  1.92306E+03  1.25206E+03  2.34848E+03 -4.85696E+02  3.70371E+03 -1.92761E+03  2.18629E+03
 -2.75978E+03  5.26039E+02 -2.70956E+03 -1.92424E+03 -1.13454E+02 -1.97088E+03  1.14877E+03 -1.98020E+03
  2.16663E+03 -1.29923E+03  1.34164E+03  4.46861E+02  3.26205E+02  1.46702E+03  7.51320E+02  1.41746E+02
  1.62543E+03  3.26868E+02  1.09548E+03  9.35106E+02  7.08804E+02  2.01289E+03  1.18788E+03  1.44216E+03
 -1.02570E+03  2.37261E+03 -1.79807E+03  3.80495E+03 -1.88989E+03  1.12505E+03 -3.36391E+03 -2.39295E+00
 -1.19260E+03 -2.88745E+03  4.46849E+02 -3.85185E+03  1.51803E+03 -2.01108E+03  2.50022E+03 -8.16612E+02
  1.66460E+03  1.57422E+03  3.48087E+02  1.82926E+03 -5.61657E+02  6.98687E+02 -3.49768E+02  1.47313E+02
 -4.90062E+02 -1.10175E+03  1.08946E+03 -1.21924E+03  8.94247E+02 -5.55773E+02  9.46107E+02  1.64082E+02
  8.27148E+02  2.69272E+01  6.40055E+02 -5.86760E+02 -2.97747E+02  5.25471E+02  1.61162E+03 -2.63182E+02
 -1.89650E+02 -2.78172E+02  1.63131E+03  5.35075E+02 -1.91155E+00  1.89371E+03 -5.62850E+02  2.31989E+03
 -1.21735E+03  7.31476E+02 -1.44346E+03  2.67553E+02 -1.70485E+03 -5.90750E+02  1.54891E+02 -5.81330E+02
  3.62921E+02 -1.15372E+03  8.51155E+02 -3.50578E+02  4.60197E+02  1.17824E+03 -5.35498E+02  9.11576E+02
 -1.16340E+03  4.53245E+02 -6.86639E+02 -1.23508E+03 -6.23894E+02 -1.61908E+03 -1.46767E+02 -1.19348E+03
  1.54697E+02 -3.05715E+02  3.93611E+02  1.34289E+02  1.10482E+03 -2.84408E+01  3.37280E+02  9.83513E+02
 -5.42861E+02 -2.49793E+01 -7.97623E+02 -1.32031E+01  6.77127E+02 -6.27352E+02  1.33438E+03 -4.41357E+02
  6.76410E+02  1.89969E+02  2.44161E+03  1.47113E+02  1.32895E+03  1.46031E+03 -2.52054E+02  1.48144E+03
 -1.05674E+03 -3.24970E+01 -9.89763E+02  7.55109E+01 -4.74826E+02 -9.54939E+02  8.94816E+01 -4.81535E+01
  8.92593E+02 -2.41132E+02  5.68470E+02  6.16214E+02  1.88077E+01  9.38198E+02  3.18470E+02  9.71892E+02
 -1.82960E+02  1.08899E+03 -2.27452E+02  3.68803E+02 -4.93610E+01  2.91338E+02 -7.55335E+02  5.95337E+02
 -5.14455E+02  7.04594E+02 -1.62883E+03  4.91010E+02 -1.06352E+03  2.84845E+02 -1.86390E+03 -6.57250E+02
 -7.76418E+02 -1.63914E+03  3.83157E+02 -2.22931E+03  7.33901E+02 -2.12036E+03  2.27944E+03 -5.81031E+02
  1.81915E+03 -4.07971E+02  8.76538E+02  1.28021E+03 -7.08502E+02  1.01219E+03 -4.05853E+02  1.24025E+03
 -4.45844E+02  8.53762E+02 -2.70414E+02  7.43580E+01 -5.83879E+02  2.56594E+02 -7.89317E+02  5.98071E+01
 -9.12673E+02 -1.94769E+02 -8.23767E+02  2.16680E+02  5.47902E+02 -4.44865E+02 -1.75429E+02 -8.12240E+02
  9.63966E+02 -4.98542E+02  4.04971E+01  5.69005E+01  9.86985E+02  6.72385E+02 -4.58182E+02  8.45849E+02
 -7.60285E+02  1.52484E+03 -1.24862E+03  7.38489E+02 -1.17642E+03 -2.98015E+02 -8.74306E+02 -1.12620E+03
 -9.47140E+02 -1.07618E+03  1.84399E+02 -7.34288E+02  7.41682E+02 -3.92916E+02  3.49688E+02  8.12938E+01
  5.64220E+02  4.29973E+02  1.50145E+01  3.81263E+02 -3.78271E+02  4.92131E+01  3.12293E+01 -2.08300E+02
  4.87626E+02  1.28884E+02  1.16681E+02  5.99618E+02  5.53396E+01  3.27068E+02  3.04764E+02  1.96756E+02
 -5.26178E+02  5.51783E+02 -3.46849E+02  8.61841E+01 -4.70505E+02 -2.82763E+02 -4.63312E+01 -6.32104E+02
  4.26946E+02 -5.19696E+02  1.37145E+02  2.46039E+02  5.49265E+02 -9.19933E+02  2.35608E+02  5.04022E+02
  5.95355E+02  2.96271E+02 -7.66265E+01  5.88002E+02 -2.09291E+02  4.66033E+02 -5.37979E+01  3.01045E+02
 -1.65022E+02  1.04210E+02 -3.13199E+02  3.01673E+02 -2.68980E+02  1.39967E+02 -8.42567E+02 -3.59903E+02
 -9.30783E+02  5.21368E+02 -4.46809E+02 -8.43928E+02  4.68103E+02 -1.36040E+03  2.91982E+02  6.33628E+01
  4.42835E+02 -2.78644E+01 -4.83007E+02  9.50835E+01 -1.58762E+02  5.34593E+02 -6.02467E+01  7.66205E+02
