 $NMID ID='MM_0lb_SNR800_9hz_g55_32.RAW', FMTDAT='(8E13.5)'
 TRAMP=1., VOLUME=1. $END
  3.09484E+05  5.09115E+02  3.38378E+05  2.50671E+05  8.50037E+04  3.38422E+05 -1.32886E+05  2.52315E+05
 -1.91147E+05  8.41632E+04 -1.12974E+05 -3.19601E+04  3.10386E+02 -5.07540E+04  5.40261E+04 -7.15424E+02
  3.54927E+04  5.29001E+04 -1.67567E+04  7.64184E+04 -6.16128E+04  6.44925E+04 -8.58047E+04  3.22956E+04
 -8.25334E+04 -1.17850E+04 -5.82896E+04 -5.26887E+04 -1.52820E+04 -7.12436E+04  2.79607E+04 -4.63847E+04
  4.15845E+04  4.08191E+03  1.69170E+04  4.87711E+04 -3.53304E+04  4.82201E+04 -6.84479E+04 -3.94342E+02
 -5.50458E+04 -5.77250E+04 -7.34551E+03 -7.88943E+04  3.52685E+04 -5.70934E+04  4.98305E+04 -1.84821E+04
  4.55463E+04  1.12779E+04  3.31528E+04  2.68542E+04  1.58623E+04  3.05677E+04 -5.93041E+03  2.81394E+04
 -2.27823E+04  1.17838E+04 -1.79689E+04 -6.02037E+03  6.94156E+03 -7.20313E+03  2.36265E+04  1.41913E+04
  7.01697E+03  3.73620E+04 -3.38198E+04  3.74286E+04 -6.62064E+04  1.74837E+03 -5.92385E+04 -4.48974E+04
 -1.25914E+04 -6.60475E+04  4.16589E+04 -4.77282E+04  6.17123E+04 -2.52841E+03  3.73097E+04  3.45882E+04
 -5.55244E+03  3.99961E+04 -3.21105E+04  1.89589E+04 -3.34024E+04 -3.20945E+03 -1.95284E+04 -1.21469E+04
 -9.41862E+03 -1.54001E+04 -5.82471E+02 -1.99506E+04  8.40223E+03 -2.34269E+04  1.62932E+04 -1.25907E+04
  1.02314E+04  6.28857E+03 -1.11780E+04  1.28315E+04 -2.37307E+04 -6.76419E+03 -8.65814E+03 -3.81966E+04
  2.54044E+04 -4.68937E+04  5.24461E+04 -2.13534E+04  4.89932E+04  2.09502E+04  1.73055E+04  4.70921E+04
 -1.71546E+04  3.63949E+04 -2.79412E+04  2.60004E+03 -1.18562E+04 -2.94092E+04  2.16740E+04 -3.74478E+04
  4.51691E+04 -1.13698E+04  4.11250E+04  2.51755E+04  2.17785E+04  5.16877E+04 -8.57726E+03  5.65895E+04
 -3.59137E+04  3.85079E+04 -4.81202E+04  1.14769E+04 -4.81110E+04 -1.84528E+04 -2.64976E+04 -4.28293E+04
  8.06913E+03 -4.24433E+04  3.48355E+04 -1.69977E+04  3.25072E+04  1.11289E+04  5.51922E+03  2.11843E+04
 -1.40791E+04  9.90263E+03 -1.09990E+04 -6.95327E+03  5.56805E+03 -1.17346E+04  1.86995E+04  5.37532E+03
  1.52983E+04  2.27261E+04 -5.17147E+03  2.71614E+04 -2.35555E+04  1.47290E+04 -3.23020E+04 -2.85974E+03
 -2.58952E+04 -1.87585E+04 -1.19176E+04 -2.57227E+04  4.50450E+03 -2.63148E+04  2.01829E+04 -2.36362E+04
  3.29143E+04 -1.39897E+04  3.84603E+04  5.30654E+03  2.67301E+04  2.49047E+04  4.53817E+03  4.15254E+04
 -1.98763E+04  3.39178E+04 -3.10646E+04  1.16018E+04 -2.22117E+04 -1.03795E+04 -5.26947E+03 -1.31297E+04
  6.49450E+02 -1.28480E+03 -7.64704E+03  8.50204E+03 -2.04331E+04  4.76262E+03 -2.06791E+04 -9.24166E+03
 -1.20340E+04 -2.34815E+04  6.17536E+03 -2.78561E+04  1.92222E+04 -2.00814E+04  2.30756E+04 -1.54906E+03
  1.45253E+04  1.63105E+04 -1.28670E+03  2.38946E+04 -1.70063E+04  1.38939E+04 -2.41799E+04 -4.87728E+03
 -1.77829E+04 -2.13530E+04 -1.91168E+03 -2.86048E+04  1.27577E+04 -2.38690E+04  2.36145E+04 -1.21909E+04
  2.25227E+04 -2.13841E+02  1.59270E+04  5.11279E+03  9.06544E+03  1.23567E+03  1.27990E+04 -2.20511E+03
  2.30595E+04  2.82998E+03  2.61589E+04  1.86911E+04  1.78064E+04  3.87373E+04 -2.71853E+03  4.50364E+04
 -2.57817E+04  3.78854E+04 -4.31891E+04  1.98571E+04 -4.60199E+04 -3.13185E+03 -3.70187E+04 -2.65071E+04
 -1.49233E+04 -3.82959E+04  1.38322E+04 -3.34581E+04  2.86886E+04 -1.56129E+04  2.48757E+04  8.03454E+03
  8.22573E+03  1.90766E+04 -1.19883E+04  1.57399E+04 -2.03739E+04  3.18813E+03 -1.54499E+04 -1.28705E+04
 -3.77079E+01 -1.93159E+04  1.02638E+04 -1.43676E+04  1.36647E+04 -1.57903E+03  3.99318E+03  8.79701E+03
 -9.03019E+03  4.13638E+03 -1.00367E+04 -7.10964E+03 -2.42283E+03 -1.83594E+04  1.21986E+04 -2.05043E+04
  2.36770E+04 -1.17064E+04  2.72330E+04  3.40096E+03  2.37532E+04  1.86714E+04  1.05274E+04  3.04374E+04
 -5.40547E+03  3.20795E+04 -2.07162E+04  1.97554E+04 -2.31245E+04  3.83808E+03 -1.57488E+04 -6.49808E+03
 -6.71263E+03 -7.96747E+03 -6.15479E+02  4.37830E+02 -2.93907E+03  3.51779E+03 -7.86967E+03  5.31661E+03
 -1.44517E+04 -8.29166E+02 -1.49257E+04 -1.20537E+04 -6.44600E+03 -2.00755E+04  6.50629E+03 -1.63679E+04
  1.32344E+04 -7.19562E+03  9.74025E+03  4.31274E+03 -3.14830E+02  6.57855E+03 -8.10789E+03 -1.15894E+02
 -7.73899E+03 -1.05087E+04 -1.45575E+03 -1.61817E+04  9.61322E+03 -1.72180E+04  2.05868E+04 -9.13138E+03
  2.42233E+04  2.80249E+03  1.77138E+04  1.47057E+04  3.15815E+03  1.92695E+04 -1.04073E+04  1.60311E+04
 -1.29806E+04  4.55851E+03 -6.85710E+03 -3.62142E+03  2.70819E+03 -4.57417E+03  7.89576E+03 -1.05668E+03
  7.61270E+03  7.12649E+03  1.16510E+03  1.28132E+04 -9.43022E+03  1.27917E+04 -1.60621E+04  3.00421E+03
 -1.09005E+04 -8.40583E+03  1.40461E+02 -1.37293E+04  9.35632E+03 -7.19424E+03  9.60669E+03  3.59353E+03
  2.44406E+03  1.04430E+04 -8.13432E+03  1.17523E+04 -1.38927E+04  5.34855E+03 -1.47379E+04 -5.18681E+03
 -8.51131E+03 -1.60241E+04  3.83307E+03 -1.89504E+04  1.57085E+04 -1.13310E+04  1.75993E+04  3.25070E+03
  1.06114E+04  1.42356E+04 -1.90025E+03  1.59310E+04 -1.21550E+04  9.00788E+03 -1.33941E+04 -1.76593E+03
 -1.06970E+04 -1.06972E+04 -2.00681E+03 -1.18842E+04  6.30928E+03 -9.63647E+03  7.80003E+03 -3.67477E+03
  5.33307E+03  1.81828E+03 -1.06490E+03  1.98904E+03 -1.02853E+03 -3.77848E+03  1.95842E+03 -7.49468E+03
  1.16197E+04 -5.27799E+03  1.66284E+04  1.95027E+03  1.62551E+04  1.15798E+04  1.07094E+04  2.14672E+04
 -5.04599E+03  2.49855E+04 -2.08879E+04  1.84968E+04 -2.71136E+04  3.70690E+03 -2.16337E+04 -9.66801E+03
 -1.08011E+04 -1.79313E+04 -2.45147E+02 -1.53793E+04  5.68505E+03 -8.49887E+03  5.29698E+03 -5.56511E+03
  4.00453E+03 -3.13232E+03  3.86499E+03 -4.33645E+03  6.38193E+03 -3.55889E+03  8.28475E+03 -1.44969E+03
  1.11536E+04  2.39185E+03  5.85515E+03  1.01196E+04 -2.21331E+03  1.20495E+04 -1.15481E+04  8.70969E+03
 -1.49954E+04 -9.97004E+02 -1.03775E+04 -1.09126E+04 -1.31593E+03 -1.62714E+04  8.96989E+03 -1.61159E+04
  1.73356E+04 -8.61603E+03  2.03545E+04  2.17733E+03  1.41786E+04  1.44094E+04  2.15805E+03  1.82858E+04
 -7.61826E+03  1.45854E+04 -1.07959E+04  5.16696E+03 -7.07509E+03 -1.84317E+03 -2.96823E+03 -2.34884E+03
 -1.70921E+03 -3.84996E+00 -2.21253E+03  3.07944E+03 -6.30738E+03  2.41745E+03 -1.04277E+04 -1.40187E+03
 -7.37230E+03 -1.05485E+04 -5.25750E+02 -1.49623E+04  9.16153E+03 -1.39471E+04  1.49929E+04 -4.52320E+03
  1.53391E+04  7.58577E+03  6.87334E+03  1.39915E+04 -3.11982E+03  1.56845E+04 -1.12204E+04  9.98946E+03
 -1.45730E+04  5.01186E+02 -1.06386E+04 -9.19313E+03 -1.61283E+03 -1.31544E+04  6.80617E+03 -9.48587E+03
  9.71618E+03 -3.07251E+03  6.97190E+03  2.73030E+03  2.78798E+03  4.48975E+03  1.45232E+03  2.27730E+03
  3.17371E+03  9.94516E+02  4.21607E+03  1.74619E+03  4.32554E+03  5.14308E+03  4.11236E+03  8.35601E+03
 -3.10951E+03  1.20588E+04 -1.10507E+04  1.24151E+04 -1.59714E+04  3.00254E+03 -1.64980E+04 -6.57236E+03
 -7.51195E+03 -1.58803E+04  2.03393E+03 -1.69584E+04  9.82928E+03 -1.07928E+04  1.31107E+04 -2.86260E+03
  9.79833E+03  6.05107E+03  2.05728E+03  9.07963E+03 -4.15158E+03  5.43014E+03 -6.96024E+03 -9.93674E+02
 -3.05206E+03 -7.02427E+03  3.77198E+03 -6.92318E+03  7.02193E+03 -3.40616E+03  6.13880E+03  1.38324E+03
  3.73646E+03  3.51848E+03  1.64123E+03  2.64432E+03 -6.89470E+02  1.86762E+03  1.65737E+03 -6.47981E+02
  2.76510E+03 -6.76876E+02  6.75853E+03  2.24647E+03  3.63280E+03  8.37570E+03 -1.57909E+03  1.12462E+04
 -7.40352E+03  7.36101E+03 -1.02604E+04  2.15036E+03 -9.19866E+03 -3.46813E+03 -3.27554E+03 -6.27172E+03
  8.73593E+02 -5.94881E+03  4.37299E+03 -3.56432E+03  3.36381E+03  2.93354E+03 -1.47290E+03  5.44146E+03
 -6.66275E+03  3.30318E+03 -7.29097E+03 -3.11845E+03 -4.19103E+03 -8.36816E+03  1.56379E+03 -8.76374E+03
  5.39915E+03 -4.95155E+03  6.74967E+03 -6.05436E+02  5.39325E+03  2.46653E+03  6.01492E+02  4.59011E+03
 -3.41890E+03  1.83275E+03 -3.74468E+03 -3.09396E+03  1.20179E+03 -6.45253E+03  8.01630E+03 -5.64338E+03
  1.01737E+04  5.70762E+02  9.78076E+03  6.82489E+03  3.21189E+03  1.06903E+04 -3.92336E+03  9.96718E+03
 -8.39984E+03  4.65907E+03 -8.96415E+03 -1.71469E+03 -5.08673E+03 -6.89331E+03  1.50293E+03 -6.34362E+03
  6.64954E+03 -2.70790E+03  5.24235E+03  2.81581E+03  1.96623E+03  5.45734E+03 -7.58818E+02  4.98736E+03
 -2.58383E+03  3.50971E+03 -2.51729E+03  1.10587E+03 -1.10321E+03  1.11743E+03 -1.51390E+03  2.09428E+03
 -2.74005E+03  4.30240E+03 -7.48550E+03  3.38707E+03 -1.05441E+04  2.68530E+02 -1.18112E+04 -7.00533E+03
 -6.33607E+03 -1.36140E+04  2.73649E+03 -1.59816E+04  1.00102E+04 -1.27131E+04  1.53779E+04 -4.45529E+03
  1.40607E+04  2.71330E+03  8.45533E+03  1.00604E+04  1.27972E+03  1.11910E+04 -4.59230E+03  8.19469E+03
 -6.12240E+03  2.93101E+03 -3.79559E+03 -1.05157E+03 -9.37296E+02 -8.95911E+02 -8.66733E+02  1.29609E+02
 -1.97144E+03  4.62397E+02 -2.14237E+03 -2.51154E+02 -1.10884E+03 -2.20300E+03  3.88812E+02 -4.07533E+03
  4.71684E+03 -3.77879E+03  6.99479E+03 -1.47452E+02  7.58733E+03  5.77317E+03  2.12507E+03  1.08070E+04
 -5.10750E+03  1.22168E+04 -1.17789E+04  7.41049E+03 -1.31388E+04 -1.58119E+03 -9.68046E+03 -8.35955E+03
 -4.22928E+03 -1.15757E+04  2.68866E+03 -1.03011E+04  7.23202E+03 -5.41849E+03  7.51898E+03  2.90764E+02
  3.36999E+03  4.01556E+03 -3.81053E+02  3.07934E+03 -1.99593E+03 -3.37632E+02  2.20264E+02 -2.84668E+03
  3.25107E+03 -1.34688E+03  4.57118E+03  1.38973E+03  2.42404E+03  4.02538E+03  5.12268E+02  5.74357E+03
 -5.05827E+03  4.82720E+03 -7.22419E+03  7.15099E+02 -6.39037E+03 -5.07814E+03 -1.08085E+03 -9.27678E+03
  5.30013E+03 -7.64180E+03  8.22223E+03 -2.59814E+03  8.57601E+03  2.28655E+03  4.66156E+03  6.83268E+03
  7.66648E+02  7.41855E+03 -3.13356E+03  6.00447E+03 -4.73085E+03  3.50993E+03 -3.76400E+03  5.11473E+02
 -2.14189E+03 -5.11838E+02 -2.23665E+03  7.66262E+02 -3.75031E+03  1.57889E+03 -5.48615E+03 -9.53679E+02
 -5.27936E+03 -4.25116E+03 -1.65384E+03 -6.95219E+03  3.45068E+03 -7.89342E+03  6.67986E+03 -3.73960E+03
  7.01667E+03  1.08630E+03  4.06209E+03  5.05307E+03 -8.22815E+02  7.53847E+03 -5.60658E+03  4.49963E+03
