 $NMID ID='MM_0lb_SNR800_11hz_g45_35.RAW', FMTDAT='(8E13.5)'
 TRAMP=1., VOLUME=1. $END
  3.09890E+05  6.92489E+01  3.38211E+05  2.50871E+05  8.49248E+04  3.38276E+05 -1.32733E+05  2.51342E+05
 -1.90621E+05  8.36177E+04 -1.12288E+05 -3.24976E+04  8.70391E+02 -5.07389E+04  5.36288E+04 -3.51485E+02
  3.53590E+04  5.28805E+04 -1.64947E+04  7.54579E+04 -6.09357E+04  6.38236E+04 -8.50357E+04  3.19948E+04
 -8.16725E+04 -1.16856E+04 -5.78917E+04 -5.18059E+04 -1.50266E+04 -6.99662E+04  2.79122E+04 -4.61391E+04
  4.06239E+04  3.82316E+03  1.63945E+04  4.82285E+04 -3.44497E+04  4.76530E+04 -6.74821E+04 -6.08523E+01
 -5.40031E+04 -5.74324E+04 -7.19352E+03 -7.82334E+04  3.43737E+04 -5.57206E+04  4.87055E+04 -1.77844E+04
  4.42976E+04  1.12365E+04  3.25234E+04  2.59344E+04  1.60472E+04  2.97701E+04 -5.90548E+03  2.74268E+04
 -2.22280E+04  1.24986E+04 -1.81208E+04 -5.69178E+03  6.09639E+03 -7.47335E+03  2.26929E+04  1.31483E+04
  6.78931E+03  3.61444E+04 -3.31832E+04  3.61529E+04 -6.45902E+04  1.74735E+03 -5.78558E+04 -4.37903E+04
 -1.27186E+04 -6.46458E+04  4.06008E+04 -4.64853E+04  6.00313E+04 -2.47543E+03  3.57371E+04  3.34005E+04
 -5.71762E+03  3.78506E+04 -3.08563E+04  1.73679E+04 -3.17416E+04 -4.03667E+03 -1.78916E+04 -1.15866E+04
 -8.83428E+03 -1.41908E+04 -7.99164E+02 -1.88547E+04  8.08327E+03 -2.32601E+04  1.57915E+04 -1.27982E+04
  1.12046E+04  5.58964E+03 -9.15750E+03  1.27922E+04 -2.22305E+04 -5.74436E+03 -8.75443E+03 -3.56509E+04
  2.42305E+04 -4.49133E+04  5.03851E+04 -2.03264E+04  4.68459E+04  2.03272E+04  1.66559E+04  4.58810E+04
 -1.66325E+04  3.49385E+04 -2.64276E+04  2.16552E+03 -1.06625E+04 -2.86965E+04  2.11297E+04 -3.50339E+04
  4.27133E+04 -1.01219E+04  3.78816E+04  2.41822E+04  1.95755E+04  4.86591E+04 -8.29457E+03  5.32020E+04
 -3.36790E+04  3.60571E+04 -4.46449E+04  1.04628E+04 -4.49349E+04 -1.73471E+04 -2.49191E+04 -3.96442E+04
  7.50074E+03 -3.95775E+04  3.27387E+04 -1.57425E+04  3.03065E+04  1.11705E+04  4.90912E+03  1.98276E+04
 -1.35770E+04  9.14968E+03 -1.07637E+04 -7.17230E+03  5.52704E+03 -1.13622E+04  1.82276E+04  5.73667E+03
  1.40643E+04  2.25413E+04 -5.66460E+03  2.62333E+04 -2.26670E+04  1.29572E+04 -2.97460E+04 -3.89940E+03
 -2.28819E+04 -1.76055E+04 -1.00061E+04 -2.27600E+04  4.37020E+03 -2.27148E+04  1.77541E+04 -2.05449E+04
  2.94284E+04 -1.35435E+04  3.50674E+04  4.08122E+03  2.54334E+04  2.19075E+04  4.45858E+03  3.86818E+04
 -1.86843E+04  3.18617E+04 -2.92516E+04  1.10997E+04 -2.14709E+04 -1.04105E+04 -4.58312E+03 -1.34190E+04
  1.22100E+03 -1.75396E+03 -6.47589E+03  7.70793E+03 -1.83149E+04  5.06973E+03 -1.82305E+04 -8.52570E+03
 -1.10774E+04 -2.08401E+04  5.91662E+03 -2.54891E+04  1.68968E+04 -1.77550E+04  2.04205E+04 -1.90128E+03
  1.28739E+04  1.46057E+04 -1.04799E+03  2.08523E+04 -1.48504E+04  1.21225E+04 -2.13392E+04 -4.78615E+03
 -1.57266E+04 -1.90590E+04 -1.87605E+03 -2.54548E+04  1.15332E+04 -2.09694E+04  2.14026E+04 -1.11325E+04
  1.98413E+04  5.39904E+01  1.45016E+04  4.70003E+03  7.66167E+03  8.07650E+02  1.06144E+04 -2.26324E+03
  1.92794E+04  2.97735E+03  2.22792E+04  1.63602E+04  1.49937E+04  3.42674E+04 -2.66927E+03  3.90730E+04
 -2.26937E+04  3.22253E+04 -3.65537E+04  1.63574E+04 -3.92520E+04 -2.86124E+03 -3.18811E+04 -2.25191E+04
 -1.29005E+04 -3.22571E+04  1.17800E+04 -2.86686E+04  2.48961E+04 -1.39526E+04  2.16284E+04  6.51482E+03
  7.67757E+03  1.64005E+04 -1.05409E+04  1.39142E+04 -1.81891E+04  2.77266E+03 -1.41126E+04 -1.13778E+04
 -2.68127E+02 -1.73869E+04  9.47761E+03 -1.28436E+04  1.18838E+04 -1.64408E+03  2.90938E+03  7.54148E+03
 -7.94663E+03  3.59627E+03 -7.71251E+03 -6.13216E+03 -1.14780E+03 -1.55508E+04  1.08854E+04 -1.68189E+04
  1.98401E+04 -9.02793E+03  2.22589E+04  3.38998E+03  1.93376E+04  1.59930E+04  8.99296E+03  2.46408E+04
 -4.30042E+03  2.64690E+04 -1.74285E+04  1.63529E+04 -1.90203E+04  3.65626E+03 -1.31771E+04 -4.58113E+03
 -6.12970E+03 -6.14318E+03 -2.25509E+02  8.18577E+02 -2.44894E+03  3.43986E+03 -6.17486E+03  4.70644E+03
 -1.24119E+04 -7.72182E+02 -1.33293E+04 -1.04129E+04 -5.08569E+03 -1.71642E+04  5.53696E+03 -1.36252E+04
  1.07724E+04 -5.68690E+03  7.79457E+03  3.48100E+03  1.96511E+02  5.21543E+03 -6.42713E+03 -2.23310E+02
 -6.26348E+03 -8.84902E+03 -1.02813E+03 -1.29372E+04  7.38411E+03 -1.39688E+04  1.72458E+04 -7.64412E+03
  1.99409E+04  1.94347E+03  1.46514E+04  1.22823E+04  3.04907E+03  1.57785E+04 -8.23796E+03  1.36616E+04
 -1.08928E+04  3.72150E+03 -5.59469E+03 -2.43123E+03  1.84251E+03 -3.82362E+03  6.93001E+03 -1.12392E+03
  5.95579E+03  5.86777E+03  9.63363E+02  1.05240E+04 -7.46664E+03  1.03538E+04 -1.32672E+04  2.34468E+03
 -8.83334E+03 -6.92235E+03  5.36459E+02 -1.13865E+04  7.05463E+03 -5.75361E+03  7.47359E+03  2.51561E+03
  1.25893E+03  7.63825E+03 -6.82984E+03  9.60348E+03 -1.10073E+04  3.98141E+03 -1.11964E+04 -3.74178E+03
 -6.13540E+03 -1.27394E+04  3.33422E+03 -1.47655E+04  1.27759E+04 -9.25891E+03  1.35282E+04  2.33607E+03
  8.36343E+03  1.08236E+04 -8.10469E+02  1.29233E+04 -9.40886E+03  7.20308E+03 -1.05832E+04 -1.14044E+03
 -8.97037E+03 -8.98524E+03 -1.50053E+03 -9.97615E+03  5.35821E+03 -7.92932E+03  6.12834E+03 -3.65763E+03
  4.31944E+03  1.58778E+03 -7.68059E+02  1.87539E+03 -5.02301E+02 -2.32442E+03  2.07233E+03 -6.26506E+03
  9.01752E+03 -3.49029E+03  1.26302E+04  1.33215E+03  1.22028E+04  8.62483E+03  8.56248E+03  1.63021E+04
 -4.03266E+03  1.88730E+04 -1.60278E+04  1.39844E+04 -2.05300E+04  2.70961E+03 -1.65654E+04 -7.38814E+03
 -8.72396E+03 -1.34215E+04 -5.19093E+02 -1.15687E+04  4.31818E+03 -6.11708E+03  4.14922E+03 -3.98475E+03
  2.89501E+03 -2.57547E+03  3.36228E+03 -3.61871E+03  5.12034E+03 -3.14755E+03  6.86437E+03 -9.16066E+02
  8.47626E+03  2.09417E+03  4.32253E+03  7.42435E+03 -2.08795E+03  8.25689E+03 -9.01767E+03  6.57235E+03
 -1.13110E+04 -1.32341E+03 -7.11558E+03 -8.13955E+03 -5.59660E+02 -1.24600E+04  6.80833E+03 -1.25503E+04
  1.29435E+04 -6.94939E+03  1.52292E+04  2.05183E+03  1.07052E+04  1.08018E+04  1.36279E+03  1.43533E+04
 -5.59909E+03  1.14165E+04 -8.29451E+03  3.98996E+03 -5.30183E+03 -1.49869E+03 -2.33689E+03 -1.75720E+03
 -1.03326E+03  2.73594E+01 -1.90017E+03  2.58511E+03 -4.84540E+03  1.93588E+03 -8.22247E+03 -1.05835E+03
 -5.47201E+03 -7.97711E+03  7.50175E+01 -1.14652E+04  6.97976E+03 -1.03300E+04  1.13100E+04 -3.23608E+03
  1.12139E+04  5.42984E+03  5.20792E+03  9.82284E+03 -2.03942E+03  1.12781E+04 -7.65318E+03  7.19761E+03
 -1.05933E+04  5.41471E+02 -8.47644E+03 -6.87781E+03 -8.57385E+02 -9.30431E+03  4.65778E+03 -6.70210E+03
  6.73646E+03 -2.48654E+03  4.68446E+03  1.92487E+03  1.72374E+03  3.62454E+03  1.08604E+03  1.31630E+03
  2.19474E+03  9.45825E+02  2.74362E+03  1.39891E+03  3.17599E+03  4.27464E+03  3.12899E+03  5.58712E+03
 -2.37673E+03  8.80627E+03 -7.46049E+03  9.07836E+03 -1.11016E+04  2.54502E+03 -1.18969E+04 -4.19554E+03
 -5.67465E+03 -1.09737E+04  1.46811E+03 -1.26390E+04  7.05224E+03 -7.72514E+03  9.15427E+03 -1.95271E+03
  7.35776E+03  3.60016E+03  1.30293E+03  6.35391E+03 -3.18057E+03  4.07724E+03 -4.03736E+03 -6.52104E+02
 -2.08886E+03 -4.93900E+03  2.54373E+03 -4.43456E+03  4.45730E+03 -2.48777E+03  4.59651E+03  1.08898E+03
  2.68141E+03  2.32740E+03  7.52600E+02  1.40633E+03 -6.03308E+02  1.49530E+03  1.31190E+03 -6.12909E+02
  1.87897E+03 -1.00209E+03  4.71656E+03  1.79234E+03  1.94131E+03  5.83873E+03 -9.96491E+02  7.76545E+03
 -5.31003E+03  4.73754E+03 -7.23285E+03  1.38600E+03 -6.19827E+03 -2.18578E+03 -2.57914E+03 -4.01320E+03
  8.90645E+02 -4.09282E+03  2.77923E+03 -2.09460E+03  2.20155E+03  2.23436E+03 -8.48998E+02  3.75811E+03
 -4.59684E+03  2.20221E+03 -5.06277E+03 -3.02806E+03 -2.79576E+03 -5.98056E+03  2.56473E+02 -5.95380E+03
  3.29036E+03 -3.59793E+03  4.46890E+03 -3.47336E+02  3.80647E+03  1.75215E+03  5.73505E+02  3.31746E+03
 -2.02243E+03  1.43012E+03 -3.08854E+03 -2.25388E+03  1.24640E+03 -3.85322E+03  5.34559E+03 -3.74357E+03
  6.46968E+03  3.86042E+02  6.82240E+03  4.67880E+03  2.42258E+03  6.81099E+03 -2.45731E+03  6.78536E+03
 -5.96002E+03  2.96514E+03 -6.09892E+03 -7.24012E+02 -3.02627E+03 -4.60004E+03  9.74992E+02 -4.03101E+03
  4.60387E+03 -1.83439E+03  3.69760E+03  2.09606E+03  9.06211E+02  4.11290E+03 -4.27939E+02  3.77300E+03
 -1.81111E+03  2.08451E+03 -1.55254E+03  6.62823E+02 -8.10597E+02  1.00191E+03 -1.15409E+03  1.40186E+03
 -1.85812E+03  2.60377E+03 -5.04983E+03  2.64979E+03 -6.77853E+03  1.31534E+02 -7.79606E+03 -4.41992E+03
 -4.01015E+03 -9.48252E+03  1.76280E+03 -1.09565E+04  6.39398E+03 -8.28889E+03  9.93501E+03 -3.08081E+03
  9.14621E+03  1.52798E+03  5.52442E+03  6.03570E+03  3.93544E+02  7.37000E+03 -2.76439E+03  5.25047E+03
 -3.84335E+03  2.14672E+03 -2.60382E+03 -7.21269E+02 -9.26850E+02 -3.69042E+02 -8.52341E+02 -4.01124E+01
 -1.27451E+03  2.73044E+02 -1.85944E+03 -3.05631E+02 -4.78558E+02 -1.50131E+03  4.76020E+02 -2.47955E+03
  3.60040E+03 -2.52204E+03  4.27651E+03  1.10831E+02  5.06566E+03  3.68953E+03  1.03985E+03  6.99531E+03
 -3.64719E+03  8.25626E+03 -7.02371E+03  4.80511E+03 -8.36029E+03 -8.21739E+02 -6.46247E+03 -5.26129E+03
 -2.92159E+03 -7.10390E+03  2.18748E+03 -6.55125E+03  4.07184E+03 -3.62628E+03  4.36423E+03  2.76250E+02
  2.44609E+03  2.34499E+03  8.33241E+01  1.58970E+03 -1.35775E+03 -4.81427E+02  9.30941E+01 -1.48794E+03
  2.38863E+03 -7.76997E+02  2.57561E+03  9.90917E+02  1.70802E+03  2.68965E+03  7.15728E+02  3.13860E+03
 -2.85318E+03  3.05176E+03 -4.54347E+03  5.06625E+02 -4.21585E+03 -3.31810E+03 -8.19029E+02 -5.94571E+03
  3.04303E+03 -4.75758E+03  4.99145E+03 -1.69291E+03  4.94834E+03  8.68834E+02  2.97127E+03  4.14086E+03
  6.62404E+02  4.59886E+03 -1.60934E+03  3.43519E+03 -2.78285E+03  2.00173E+03 -2.45230E+03  3.51354E+02
 -1.39912E+03 -1.57063E+01 -1.03295E+03  6.73388E+02 -2.34304E+03  8.90705E+02 -3.59734E+03 -5.70857E+02
 -3.46000E+03 -2.10950E+03 -1.04324E+03 -4.44804E+03  2.24527E+03 -5.42108E+03  4.27412E+03 -2.28547E+03
  4.52832E+03  4.93420E+02  1.92292E+03  3.25488E+03 -3.38781E+02  4.35492E+03 -3.20143E+03  2.73481E+03
