 $NMID ID='MM_0lb_SNR800_14hz_g55_19.RAW', FMTDAT='(8E13.5)'
 TRAMP=1., VOLUME=1. $END
  3.09561E+05  6.41057E+02  3.37873E+05  2.50371E+05  8.48771E+04  3.38103E+05 -1.32671E+05  2.51330E+05
 -1.90043E+05  8.30996E+04 -1.12186E+05 -3.25102E+04  8.57691E+02 -5.04283E+04  5.35028E+04 -4.23111E+02
  3.52714E+04  5.27993E+04 -1.65560E+04  7.57573E+04 -6.11261E+04  6.38777E+04 -8.45066E+04  3.19151E+04
 -8.13720E+04 -1.12279E+04 -5.76421E+04 -5.14230E+04 -1.50929E+04 -6.99406E+04  2.74124E+04 -4.61427E+04
  4.02028E+04  3.67133E+03  1.65036E+04  4.79374E+04 -3.44157E+04  4.70766E+04 -6.68527E+04 -1.24874E+02
 -5.39303E+04 -5.72016E+04 -7.20159E+03 -7.75698E+04  3.42824E+04 -5.55063E+04  4.83634E+04 -1.73447E+04
  4.37311E+04  1.15541E+04  3.21216E+04  2.55676E+04  1.59982E+04  2.98374E+04 -5.34142E+03  2.74080E+04
 -2.21153E+04  1.21936E+04 -1.82627E+04 -5.19698E+03  6.09935E+03 -7.30798E+03  2.25674E+04  1.28863E+04
  7.10359E+03  3.56303E+04 -3.25486E+04  3.57454E+04 -6.42029E+04  2.05352E+03 -5.71172E+04 -4.28712E+04
 -1.23802E+04 -6.34940E+04  4.02070E+04 -4.55794E+04  5.87312E+04 -2.26818E+03  3.47313E+04  3.25293E+04
 -5.80352E+03  3.69647E+04 -3.05066E+04  1.64497E+04 -3.10334E+04 -4.36248E+03 -1.76801E+04 -1.12414E+04
 -8.82659E+03 -1.33517E+04 -6.31033E+02 -1.83368E+04  8.07513E+03 -2.33273E+04  1.55558E+04 -1.30443E+04
  1.13018E+04  5.65205E+03 -8.88483E+03  1.26802E+04 -2.16444E+04 -4.64744E+03 -8.35810E+03 -3.45701E+04
  2.34028E+04 -4.44071E+04  4.87893E+04 -2.01012E+04  4.57054E+04  1.95888E+04  1.57912E+04  4.47958E+04
 -1.60730E+04  3.37770E+04 -2.57778E+04  1.86909E+03 -1.05790E+04 -2.79485E+04  2.10731E+04 -3.42502E+04
  4.17420E+04 -9.67898E+03  3.66410E+04  2.38832E+04  1.86755E+04  4.73954E+04 -8.08893E+03  5.14027E+04
 -3.23157E+04  3.48208E+04 -4.27660E+04  9.97963E+03 -4.35300E+04 -1.72050E+04 -2.38065E+04 -3.87770E+04
  7.43180E+03 -3.84627E+04  3.19609E+04 -1.51738E+04  2.95908E+04  1.13202E+04  4.27071E+03  1.94350E+04
 -1.34082E+04  8.30123E+03 -1.06231E+04 -7.70738E+03  5.56882E+03 -1.03772E+04  1.83564E+04  5.82656E+03
  1.35164E+04  2.18038E+04 -6.15645E+03  2.53361E+04 -2.23549E+04  1.19047E+04 -2.85789E+04 -3.94924E+03
 -2.15086E+04 -1.75572E+04 -8.95592E+03 -2.11605E+04  4.00442E+03 -2.02240E+04  1.64681E+04 -1.88935E+04
  2.71429E+04 -1.30726E+04  3.32734E+04  3.29266E+03  2.40632E+04  2.08430E+04  4.50841E+03  3.71691E+04
 -1.84012E+04  3.09379E+04 -2.81930E+04  1.06419E+04 -2.12641E+04 -1.02520E+04 -4.86611E+03 -1.36830E+04
  1.67939E+03 -2.77199E+03 -5.15581E+03  6.76785E+03 -1.69981E+04  5.46951E+03 -1.68117E+04 -7.38571E+03
 -1.01233E+04 -1.93688E+04  5.34581E+03 -2.36698E+04  1.54562E+04 -1.70534E+04  1.88267E+04 -1.80876E+03
  1.19385E+04  1.34875E+04 -1.36564E+03  1.95912E+04 -1.35675E+04  1.09468E+04 -1.96798E+04 -4.18171E+03
 -1.45723E+04 -1.78840E+04 -1.83855E+03 -2.38857E+04  1.07647E+04 -1.96184E+04  1.96810E+04 -9.34611E+03
  1.85011E+04  1.13875E+02  1.30191E+04  4.74267E+03  7.23166E+03  9.66464E+02  1.01799E+04 -1.34475E+03
  1.76697E+04  2.91449E+03  1.98084E+04  1.56101E+04  1.31484E+04  3.09750E+04 -2.96002E+03  3.52726E+04
 -2.04824E+04  2.86125E+04 -3.31505E+04  1.45878E+04 -3.47471E+04 -2.53409E+03 -2.87158E+04 -1.99739E+04
 -1.22088E+04 -2.87317E+04  9.99456E+03 -2.56765E+04  2.22642E+04 -1.30584E+04  1.98364E+04  5.82668E+03
  7.39208E+03  1.47137E+04 -9.25011E+03  1.29975E+04 -1.67772E+04  2.50705E+03 -1.32254E+04 -1.04092E+04
 -5.21666E+00 -1.56076E+04  8.32657E+03 -1.19249E+04  1.03627E+04 -1.69088E+03  2.25034E+03  6.52867E+03
 -7.33215E+03  2.79288E+03 -6.43825E+03 -5.79660E+03 -6.07327E+02 -1.44525E+04  9.94400E+03 -1.52090E+04
  1.74287E+04 -7.72000E+03  1.92863E+04  2.86101E+03  1.63128E+04  1.37849E+04  7.68919E+03  2.16272E+04
 -3.74829E+03  2.31042E+04 -1.47599E+04  1.44813E+04 -1.67302E+04  3.32657E+03 -1.18896E+04 -3.65446E+03
 -5.40489E+03 -5.20789E+03 -8.50468E+02  1.41463E+03 -2.58424E+03  2.65774E+03 -5.44197E+03  4.21995E+03
 -1.10145E+04 -5.28837E+02 -1.13912E+04 -9.30461E+03 -4.71346E+03 -1.50797E+04  5.07565E+03 -1.18595E+04
  9.70450E+03 -5.19887E+03  7.09732E+03  3.40152E+03  2.85387E+02  4.33728E+03 -5.43515E+03 -1.99495E+02
 -5.31463E+03 -7.72445E+03 -9.16802E+02 -1.12274E+04  6.43099E+03 -1.15405E+04  1.42410E+04 -6.59082E+03
  1.69427E+04  1.50645E+03  1.25607E+04  9.94512E+03  2.40797E+03  1.34407E+04 -7.35573E+03  1.14372E+04
 -9.40302E+03  3.66948E+03 -5.14742E+03 -2.20764E+03  1.46932E+03 -3.13211E+03  6.36417E+03 -1.17824E+03
  5.64385E+03  5.14401E+03  8.88411E+02  9.20933E+03 -6.37923E+03  8.90908E+03 -1.13145E+04  2.40356E+03
 -7.42422E+03 -5.65362E+03  1.97081E+02 -9.61202E+03  6.32066E+03 -4.98548E+03  6.05824E+03  1.65719E+03
  1.24178E+03  6.12058E+03 -5.76863E+03  7.86165E+03 -8.62111E+03  3.62004E+03 -8.30994E+03 -2.86942E+03
 -5.18513E+03 -1.02020E+04  2.45928E+03 -1.16871E+04  1.00630E+04 -7.18297E+03  1.09917E+04  1.94322E+03
  6.95524E+03  8.79757E+03 -5.81601E+02  1.07971E+04 -8.30193E+03  6.38129E+03 -8.64845E+03 -8.04630E+02
 -7.76909E+03 -7.31759E+03 -1.40277E+03 -7.95498E+03  4.11484E+03 -6.86073E+03  4.76842E+03 -3.41623E+03
  3.77671E+03  8.70932E+02 -2.38003E+02  1.34689E+03 -2.83266E+02 -1.65823E+03  1.26936E+03 -4.26437E+03
  6.93797E+03 -2.54159E+03  1.01152E+04  1.27813E+03  9.73608E+03  6.37354E+03  7.42836E+03  1.30080E+04
 -3.22142E+03  1.48407E+04 -1.25661E+04  1.10777E+04 -1.69350E+04  1.78473E+03 -1.33772E+04 -5.04424E+03
 -6.79937E+03 -1.09424E+04 -4.56802E+02 -9.05567E+03  3.71449E+03 -4.84067E+03  3.15797E+03 -3.18003E+03
  2.30145E+03 -2.25049E+03  2.78678E+03 -3.09997E+03  4.38713E+03 -2.28356E+03  5.51828E+03 -3.33177E+02
  7.15500E+03  2.04600E+03  2.65849E+03  5.78499E+03 -1.72934E+03  6.26241E+03 -7.00790E+03  5.07263E+03
 -8.81772E+03 -1.05660E+03 -4.93498E+03 -6.21501E+03 -4.18176E+02 -9.22218E+03  5.89871E+03 -9.62230E+03
  9.47364E+03 -5.21258E+03  1.18810E+04  1.08559E+03  8.51571E+03  7.81766E+03  1.54362E+03  1.07813E+04
 -4.34251E+03  9.22753E+03 -5.97298E+03  3.08273E+03 -4.23015E+03 -1.48047E+03 -1.33503E+03 -1.15144E+03
 -1.15454E+03  4.40396E+02 -1.32625E+03  2.55058E+03 -3.67592E+03  1.45803E+03 -6.36146E+03 -8.53507E+02
 -3.88097E+03 -6.45849E+03  7.67409E+02 -8.47446E+03  5.19673E+03 -8.04914E+03  7.79424E+03 -2.18029E+03
  8.34081E+03  4.15257E+03  3.72313E+03  7.01467E+03 -1.49434E+03  8.30099E+03 -5.62859E+03  5.03659E+03
 -7.85905E+03  5.47875E+02 -6.25397E+03 -4.87249E+03 -6.00626E+02 -6.56745E+03  3.51750E+03 -5.16362E+03
  5.12398E+03 -1.70144E+03  3.71204E+03  1.19947E+03  1.01712E+03  2.69323E+03  9.59666E+02  1.24825E+03
  2.15529E+03  6.80701E+02  1.66504E+03  1.47078E+03  2.39900E+03  3.38455E+03  2.55874E+03  4.30398E+03
 -1.97982E+03  6.22784E+03 -5.48936E+03  7.03478E+03 -7.64432E+03  2.18123E+03 -8.25752E+03 -2.90461E+03
 -3.67498E+03 -7.70526E+03  9.18890E+02 -8.69317E+03  4.29182E+03 -5.19610E+03  6.54200E+03 -1.60725E+03
  5.09322E+03  3.15115E+03  8.28369E+02  4.56450E+03 -1.95586E+03  2.94556E+03 -2.94203E+03 -5.51026E+02
 -1.16535E+03 -3.58518E+03  1.80764E+03 -3.42753E+03  2.83871E+03 -1.84840E+03  3.07859E+03  6.83751E+02
  1.75404E+03  1.53492E+03  1.09425E+03  7.29512E+02 -6.01933E+02  1.32107E+03  1.64162E+03 -2.85670E+02
  1.08347E+03 -5.64342E+02  3.33532E+03  1.36852E+03  1.59812E+03  4.22965E+03 -7.27169E+02  5.56000E+03
 -3.62314E+03  3.21280E+03 -4.65867E+03  9.42659E+02 -4.37416E+03 -1.24967E+03 -1.25123E+03 -3.07805E+03
  5.73948E+02 -2.63284E+03  2.11784E+03 -1.56963E+03  1.42914E+03  1.77244E+03 -1.01332E+03  2.26758E+03
 -3.12336E+03  1.53507E+03 -3.05864E+03 -1.83580E+03 -1.54827E+03 -4.12808E+03  7.53828E+02 -3.82431E+03
  1.62498E+03 -1.91249E+03  2.45762E+03 -2.85483E+02  2.55770E+03  6.93820E+02  3.69648E+02  1.98455E+03
 -1.21967E+03  7.21081E+02 -1.73369E+03 -9.61167E+02  8.71480E+02 -2.70475E+03  3.59403E+03 -2.38078E+03
  3.72938E+03 -1.25432E+01  4.91328E+03  2.46831E+03  1.65418E+03  4.43303E+03 -1.36695E+03  4.38953E+03
 -3.50440E+03  1.41417E+03 -3.93363E+03 -4.96504E+02 -1.91342E+03 -3.01341E+03  5.79248E+02 -2.18020E+03
  2.88144E+03 -1.30072E+03  2.12224E+03  1.15892E+03  7.35060E+02  2.51327E+03 -1.87194E+02  2.30978E+03
 -1.08587E+03  1.74209E+03 -9.98906E+02  4.60434E+02 -3.20751E+02  4.89890E+02 -9.10188E+02  9.64158E+02
 -1.23533E+03  2.01021E+03 -3.46954E+03  1.55505E+03 -4.01511E+03  2.36675E+02 -5.23234E+03 -2.73523E+03
 -2.35786E+03 -5.65382E+03  1.06972E+03 -6.75050E+03  3.55764E+03 -5.15092E+03  6.16799E+03 -1.91551E+03
  5.71555E+03  8.45385E+02  3.19193E+03  3.62515E+03  2.21980E+00  4.64574E+03 -1.74026E+03  3.44268E+03
 -2.44309E+03  1.41973E+03 -1.42894E+03 -5.02506E+02 -9.57406E+02 -9.90584E+01 -4.04116E+02 -1.99934E+02
 -9.73241E+02  5.38390E+01 -1.52884E+03  6.96484E+01  7.55435E+01 -1.17790E+03 -2.74128E+02 -1.99533E+03
  1.99915E+03 -1.63848E+03  2.19274E+03  1.74550E+02  2.84814E+03  2.44140E+03  3.06090E+02  3.90174E+03
 -2.23378E+03  5.27461E+03 -4.13213E+03  3.01532E+03 -4.94798E+03 -1.83825E+02 -3.28706E+03 -2.84191E+03
 -2.13508E+03 -3.97883E+03  9.43683E+02 -3.60935E+03  2.32134E+03 -1.73526E+03  2.40633E+03  4.49720E+02
  1.51909E+03  1.52051E+03  1.87165E+02  1.13536E+03 -6.97313E+02 -2.09788E+02  2.62897E+02 -8.36721E+02
  1.53756E+03 -2.52201E+02  1.21969E+03  8.04433E+02  7.18366E+02  1.39439E+03  5.16677E+02  1.91289E+03
 -1.67911E+03  1.83103E+03 -2.63073E+03  6.98994E+02 -1.93244E+03 -1.81385E+03 -3.93592E+02 -3.23990E+03
  1.60730E+03 -2.70541E+03  2.37498E+03 -6.96278E+02  2.86283E+03  4.70333E+02  1.68409E+03  2.37719E+03
  3.17189E+02  2.11293E+03 -7.24066E+02  1.70711E+03 -1.40689E+03  9.53975E+02 -1.38624E+03  2.22217E+02
 -6.96891E+02 -4.19520E+02 -8.55301E+02  7.78592E+02 -1.16323E+03  2.41753E+02 -1.83572E+03 -1.70225E+02
 -1.79615E+03 -6.06584E+02 -7.07896E+02 -2.27295E+03  1.34756E+03 -2.93784E+03  2.11850E+03 -1.26072E+03
  2.30652E+03  9.01564E+01  8.53704E+02  1.54688E+03 -1.92235E+02  2.44984E+03 -1.59996E+03  1.60481E+03
