 $NMID ID='MM_0lb_SNR800_17hz_g45_95.RAW', FMTDAT='(8E13.5)'
 TRAMP=1., VOLUME=1. $END
  3.09874E+05  1.83957E+02  3.37669E+05  2.50489E+05  8.45684E+04  3.37365E+05 -1.32346E+05  2.50681E+05
 -1.89645E+05  8.27735E+04 -1.11242E+05 -3.28778E+04  1.43747E+03 -5.01078E+04  5.40546E+04  9.10632E+01
  3.54072E+04  5.28869E+04 -1.71230E+04  7.52334E+04 -6.04790E+04  6.28901E+04 -8.31051E+04  3.17782E+04
 -8.01938E+04 -1.10406E+04 -5.64519E+04 -5.04297E+04 -1.47752E+04 -6.87402E+04  2.68183E+04 -4.49886E+04
  3.93681E+04  3.93811E+03  1.56927E+04  4.70235E+04 -3.39284E+04  4.65100E+04 -6.59974E+04 -5.35357E+02
 -5.24388E+04 -5.60214E+04 -6.46700E+03 -7.55715E+04  3.33549E+04 -5.36765E+04  4.66015E+04 -1.66276E+04
  4.19535E+04  1.12982E+04  3.10886E+04  2.48836E+04  1.57798E+04  2.83233E+04 -4.85192E+03  2.66031E+04
 -2.15050E+04  1.28290E+04 -1.89102E+04 -4.45917E+03  4.61594E+03 -7.58161E+03  2.14021E+04  1.09982E+04
  7.67516E+03  3.33374E+04 -3.09621E+04  3.42948E+04 -6.16417E+04  2.49520E+03 -5.60624E+04 -4.16245E+04
 -1.24283E+04 -6.11138E+04  3.85121E+04 -4.35918E+04  5.62726E+04 -2.20546E+03  3.25316E+04  3.11247E+04
 -6.37362E+03  3.37876E+04 -2.86312E+04  1.38811E+04 -2.82593E+04 -5.03227E+03 -1.50330E+04 -1.03049E+04
 -7.59562E+03 -1.20238E+04 -1.00123E+03 -1.70223E+04  6.92349E+03 -2.26042E+04  1.50044E+04 -1.41867E+04
  1.19787E+04  4.53438E+03 -6.62455E+03  1.27820E+04 -1.99043E+04 -3.28781E+03 -7.95013E+03 -3.13474E+04
  2.12291E+04 -4.10480E+04  4.57980E+04 -1.88714E+04  4.28485E+04  1.84447E+04  1.42716E+04  4.20833E+04
 -1.52703E+04  3.15777E+04 -2.40261E+04  1.18515E+03 -8.76091E+03 -2.66227E+04  2.06227E+04 -3.20085E+04
  3.87697E+04 -7.96441E+03  3.26340E+04  2.29320E+04  1.59833E+04  4.35475E+04 -8.01166E+03  4.65157E+04
 -2.92766E+04  3.09621E+04 -3.84978E+04  8.87096E+03 -3.92689E+04 -1.52919E+04 -2.19321E+04 -3.54005E+04
  6.75497E+03 -3.53653E+04  2.97148E+04 -1.30460E+04  2.74748E+04  1.09188E+04  3.19454E+03  1.82029E+04
 -1.32096E+04  7.34216E+03 -9.73063E+03 -7.83983E+03  6.10393E+03 -1.02723E+04  1.74518E+04  6.27514E+03
  1.25610E+04  2.17693E+04 -6.65552E+03  2.39220E+04 -2.16499E+04  9.78583E+03 -2.57790E+04 -5.66425E+03
 -1.77234E+04 -1.65382E+04 -6.18464E+03 -1.77449E+04  3.72361E+03 -1.58704E+04  1.35738E+04 -1.55751E+04
  2.23699E+04 -1.18788E+04  2.93492E+04  1.48384E+03  2.22800E+04  1.72171E+04  4.05333E+03  3.32770E+04
 -1.65559E+04  2.80714E+04 -2.63408E+04  9.67235E+03 -1.99462E+04 -1.02417E+04 -4.13075E+03 -1.39492E+04
  2.46640E+03 -3.78250E+03 -3.26247E+03  5.48755E+03 -1.36414E+04  5.31053E+03 -1.42634E+04 -5.47675E+03
 -8.88207E+03 -1.64224E+04  4.77492E+03 -2.03361E+04  1.32262E+04 -1.46743E+04  1.54744E+04 -1.89151E+03
  9.51190E+03  1.14563E+04 -8.09083E+02  1.66637E+04 -1.11972E+04  9.35305E+03 -1.65614E+04 -3.55909E+03
 -1.21096E+04 -1.47268E+04 -1.66291E+03 -2.00352E+04  9.24551E+03 -1.61934E+04  1.67772E+04 -7.78394E+03
  1.54012E+04  7.54484E+02  1.10090E+04  4.01425E+03  5.43675E+03  4.05673E+02  8.06729E+03 -1.24160E+03
  1.50160E+04  2.60047E+03  1.60277E+04  1.34429E+04  1.02816E+04  2.58118E+04 -2.92068E+03  2.83976E+04
 -1.68311E+04  2.21552E+04 -2.63522E+04  1.07009E+04 -2.73664E+04 -1.62845E+03 -2.29908E+04 -1.54109E+04
 -1.05759E+04 -2.21486E+04  7.50589E+03 -2.04441E+04  1.77208E+04 -1.11627E+04  1.64856E+04  3.91915E+03
  6.64420E+03  1.17735E+04 -7.73427E+03  1.12540E+04 -1.44171E+04  2.65862E+03 -1.07873E+04 -8.23858E+03
 -2.99289E+02 -1.30704E+04  6.49709E+03 -1.00629E+04  8.45109E+03 -1.31732E+03  1.49417E+03  5.41215E+03
 -5.97640E+03  1.54447E+03 -4.45692E+03 -5.10784E+03  5.05984E+02 -1.08800E+04  8.02089E+03 -1.08341E+04
  1.33170E+04 -5.38828E+03  1.33149E+04  3.19385E+03  1.16733E+04  1.06936E+04  5.62505E+03  1.57722E+04
 -1.86115E+03  1.76521E+04 -1.05994E+04  1.10360E+04 -1.22929E+04  3.16575E+03 -9.12266E+03 -2.02457E+03
 -5.07224E+03 -3.69950E+03 -8.05218E+02  1.27971E+03 -2.04623E+03  2.14559E+03 -4.00255E+03  3.52061E+03
 -8.54255E+03 -7.37266E+02 -9.44390E+03 -7.76068E+03 -3.74430E+03 -1.23765E+04  3.92612E+03 -9.25875E+03
  7.71597E+03 -4.18402E+03  5.63137E+03  2.22629E+03  3.72064E+02  3.29575E+03 -3.86471E+03 -1.47192E+02
 -3.82786E+03 -5.71942E+03 -1.00366E+03 -8.03984E+03  4.80796E+03 -8.38220E+03  1.11749E+04 -4.51393E+03
  1.28441E+04  1.09759E+03  9.57168E+03  6.89930E+03  1.87751E+03  9.84513E+03 -5.61565E+03  8.87750E+03
 -7.46813E+03  2.93787E+03 -3.80801E+03 -1.63415E+03  1.50005E+03 -2.26571E+03  5.23791E+03 -1.01143E+03
  4.58548E+03  3.68289E+03  9.06241E+02  7.14855E+03 -4.71382E+03  7.03580E+03 -8.60007E+03  1.65363E+03
 -5.02566E+03 -4.12560E+03  4.54562E+02 -7.43119E+03  4.22495E+03 -3.84505E+03  4.08219E+03  1.09505E+03
  8.64564E+02  3.93807E+03 -4.63263E+03  5.05254E+03 -5.65226E+03  2.86272E+03 -5.42706E+03 -1.60906E+03
 -3.40394E+03 -6.97021E+03  1.32653E+03 -8.26595E+03  7.17155E+03 -5.00253E+03  7.48976E+03  1.13301E+03
  5.11528E+03  6.21064E+03 -1.80350E+02  7.90269E+03 -5.54749E+03  4.41064E+03 -6.08753E+03 -3.89704E+02
 -6.01612E+03 -5.46210E+03 -1.28320E+03 -5.66733E+03  2.78702E+03 -5.12242E+03  3.16986E+03 -3.03531E+03
  2.79885E+03  9.00753E+01 -3.43917E+01  1.46539E+03  7.18728E+02 -4.90779E+02  4.71386E+02 -2.41804E+03
  4.38463E+03 -1.15889E+03  6.39164E+03  9.58014E+02  6.66155E+03  3.70521E+03  5.78852E+03  8.22044E+03
 -1.55710E+03  9.87296E+03 -8.98196E+03  7.65439E+03 -1.13743E+04  1.35969E+03 -8.91953E+03 -3.27092E+03
 -4.57574E+03 -7.64713E+03 -4.34807E+02 -5.87002E+03  2.38856E+03 -2.66065E+03  1.86498E+03 -2.49323E+03
  1.37860E+03 -1.77166E+03  2.21681E+03 -2.58187E+03  3.98259E+03 -1.60060E+03  3.90465E+03  2.02909E+01
  4.91548E+03  1.28320E+03  1.79746E+03  4.04931E+03 -1.59773E+03  3.54393E+03 -4.83425E+03  3.19530E+03
 -5.75281E+03 -1.17621E+03 -2.23679E+03 -3.95435E+03  3.67416E+02 -6.22810E+03  4.06719E+03 -6.09648E+03
  6.18204E+03 -3.98334E+03  7.90727E+03  4.60662E+02  6.02078E+03  5.05119E+03  1.33015E+03  7.06941E+03
 -2.78996E+03  6.42707E+03 -3.74311E+03  2.13693E+03 -2.33824E+03 -1.09423E+03 -7.11197E+02 -6.49726E+02
 -4.14051E+02  3.50688E+02 -8.30995E+02  1.84775E+03 -3.09292E+03  1.35412E+03 -4.65111E+03 -5.74710E+02
 -2.16942E+03 -4.34292E+03  6.94640E+02 -5.71115E+03  3.43548E+03 -5.08752E+03  4.59153E+03 -1.34895E+03
  4.81741E+03  2.92113E+03  2.28388E+03  3.96837E+03 -1.12428E+03  5.42027E+03 -3.25924E+03  3.22850E+03
 -4.36676E+03  5.13525E+02 -3.94119E+03 -3.05248E+03 -4.25802E+02 -4.19541E+03  2.01246E+03 -2.91426E+03
  3.16705E+03 -1.48582E+03  2.23931E+03  7.86092E+02  7.50430E+02  1.98754E+03  1.18819E+03  6.05305E+02
  1.76326E+03  5.73500E+02  1.44516E+03  1.06899E+03  1.37818E+03  2.41136E+03  1.47198E+03  2.31543E+03
 -1.34040E+03  3.97841E+03 -3.10403E+03  4.57559E+03 -3.94042E+03  1.37931E+03 -5.33911E+03 -9.14105E+02
 -2.16010E+03 -4.58365E+03  1.03335E+03 -5.56916E+03  2.55306E+03 -3.36827E+03  3.83406E+03 -1.22745E+03
  3.05448E+03  2.16501E+03  3.90436E+02  2.61397E+03 -1.01376E+03  1.52379E+03 -1.50325E+03 -6.76127E+01
 -8.62241E+02 -1.82209E+03  1.37070E+03 -1.92543E+03  1.79554E+03 -1.03473E+03  1.79525E+03  5.07715E+02
  1.23202E+03  7.54691E+02  7.71786E+02 -2.37739E+02 -3.01289E+02  6.65927E+02  1.83269E+03 -3.39949E+02
 -1.10784E+01 -1.04705E+02  2.42030E+03  9.35396E+02  7.46656E+02  2.81690E+03 -3.98048E+02  3.52180E+03
 -2.18225E+03  1.70575E+03 -2.69742E+03  7.67874E+02 -2.57104E+03 -6.88597E+02 -4.39306E+02 -1.08800E+03
  2.03471E+01 -1.50796E+03  9.38976E+02 -8.32113E+02  8.08895E+02  1.11610E+03 -8.23455E+02  1.36389E+03
 -2.13715E+03  1.43748E+03 -1.60849E+03 -1.22520E+03 -1.09350E+03 -2.88843E+03 -9.06065E+01 -2.03137E+03
  9.86100E+02 -1.03155E+03  1.22929E+03  4.07106E+02  1.51522E+03  2.50353E+01  3.01558E+02  1.14585E+03
 -7.83700E+02  4.38047E+02 -9.64142E+02 -4.34202E+02  4.57789E+02 -1.31436E+03  2.38909E+03 -1.27026E+03
  2.05350E+03  1.87685E+02  3.13979E+03  1.17351E+03  1.16327E+03  2.26892E+03 -6.18794E+02  2.27940E+03
 -1.81239E+03  6.17874E+02 -1.70387E+03  1.78504E+02 -1.09964E+03 -1.72956E+03  7.00353E+02 -1.10611E+03
  2.17818E+03 -6.77692E+02  1.19792E+03  8.93683E+02  1.42096E+02  1.45687E+03  3.45769E+02  1.14358E+03
 -3.07431E+02  1.45052E+03 -6.02556E+02 -5.70516E+01 -2.16095E+01  5.99037E+02 -7.77397E+02  6.40734E+02
 -8.96809E+02  1.18476E+03 -2.10331E+03  6.20845E+02 -2.30055E+03  1.21976E+02 -3.00540E+03 -1.62346E+03
 -1.50390E+03 -2.78664E+03  8.06628E+02 -3.63952E+03  1.49934E+03 -3.29592E+03  3.25794E+03 -9.82969E+02
  3.12982E+03  7.63834E+01  1.72418E+03  2.17475E+03 -5.92398E+02  2.06198E+03 -8.03259E+02  1.78322E+03
 -1.14255E+03  7.68267E+02 -8.41179E+02 -4.25614E+02 -3.43151E+02  3.72818E+02 -6.55882E+02  9.37197E+01
 -1.33168E+03 -1.31670E+02 -8.68122E+02 -2.29027E+01  2.78580E+02 -6.28754E+02 -4.89622E+02 -8.41137E+02
  1.61830E+03 -7.90324E+02  1.05235E+03  2.73272E+02  1.52854E+03  1.34269E+03 -3.37939E+02  1.96038E+03
 -1.09986E+03  2.93174E+03 -2.37012E+03  1.39948E+03 -2.43393E+03 -2.98585E+02 -1.88668E+03 -1.56454E+03
 -1.04965E+03 -2.39045E+03  4.12243E+02 -1.74172E+03  1.17641E+03 -1.04292E+03  1.06026E+03  1.04411E+02
  6.55729E+02  4.67744E+02  1.51890E+02  3.95109E+02 -3.28988E+02  1.07425E+01 -8.48746E+01 -1.90991E+02
  5.56246E+02  1.64104E+02  4.37912E+02  4.42834E+02  1.94132E+02  5.17865E+02  5.04981E+02  8.01071E+02
 -1.17925E+03  5.53802E+02 -1.07735E+03  4.48272E+01 -1.06012E+03 -7.41822E+02  2.97959E+02 -1.33781E+03
  9.32489E+02 -1.09876E+03  9.51936E+02 -4.58094E+01  1.36059E+03 -4.94007E+02  7.21814E+02  1.12068E+03
  6.21364E+02  1.12519E+03 -3.98027E+02  1.08002E+03 -7.16684E+02  9.04918E+02 -5.51403E+02  1.03573E+02
 -1.14395E+02 -7.64515E+01 -5.30600E+02  2.81781E+02 -7.29848E+02  1.64592E+02 -1.11452E+03 -4.33133E+02
 -1.30378E+03 -2.85580E+02 -5.13338E+02 -1.43213E+03  8.68248E+02 -1.55196E+03  1.05193E+03 -3.68073E+02
  9.25399E+02  3.39818E+02 -2.08538E+02  6.65960E+02 -1.71599E+02  9.83727E+02 -9.99755E+02  8.97127E+02
