 $NMID ID='MM_0lb_SNR800_19hz_g50_50.RAW', FMTDAT='(8E13.5)'
 TRAMP=1., VOLUME=1. $END
  3.09918E+05  2.39383E+02  3.37623E+05  2.50636E+05  8.45336E+04  3.37383E+05 -1.32418E+05  2.50214E+05
 -1.89413E+05  8.24351E+04 -1.11127E+05 -3.28290E+04  1.31713E+03 -5.02676E+04  5.40968E+04 -1.13274E+02
  3.51528E+04  5.28596E+04 -1.69648E+04  7.50745E+04 -6.03133E+04  6.26887E+04 -8.29778E+04  3.11980E+04
 -7.98196E+04 -1.12940E+04 -5.66195E+04 -5.02223E+04 -1.50420E+04 -6.82897E+04  2.64448E+04 -4.50167E+04
  3.94658E+04  4.13754E+03  1.55922E+04  4.69168E+04 -3.37239E+04  4.61481E+04 -6.52068E+04 -4.37344E+02
 -5.23256E+04 -5.59714E+04 -6.33250E+03 -7.51390E+04  3.31702E+04 -5.30942E+04  4.64508E+04 -1.63253E+04
  4.17769E+04  1.09916E+04  3.07911E+04  2.44152E+04  1.56159E+04  2.82240E+04 -4.62622E+03  2.68981E+04
 -2.16138E+04  1.27138E+04 -1.92417E+04 -4.41481E+03  4.19758E+03 -7.62730E+03  2.12952E+04  1.11090E+04
  7.38107E+03  3.32432E+04 -3.05825E+04  3.42009E+04 -6.10042E+04  2.08762E+03 -5.55227E+04 -4.11687E+04
 -1.24723E+04 -6.11814E+04  3.82253E+04 -4.35934E+04  5.55637E+04 -1.83465E+03  3.18852E+04  3.03198E+04
 -6.55640E+03  3.32408E+04 -2.87135E+04  1.35353E+04 -2.79767E+04 -5.53097E+03 -1.45170E+04 -1.01714E+04
 -7.46447E+03 -1.16138E+04 -1.06371E+03 -1.65392E+04  6.68917E+03 -2.26131E+04  1.49382E+04 -1.39982E+04
  1.21674E+04  4.00210E+03 -6.18484E+03  1.28179E+04 -1.94121E+04 -2.50588E+03 -7.91669E+03 -3.04979E+04
  2.09046E+04 -4.07106E+04  4.48152E+04 -1.85399E+04  4.22078E+04  1.82279E+04  1.44282E+04  4.19667E+04
 -1.48617E+04  3.12634E+04 -2.33052E+04  8.35880E+02 -8.25097E+03 -2.64770E+04  2.04301E+04 -3.10731E+04
  3.81213E+04 -7.59208E+03  3.16242E+04  2.29137E+04  1.52222E+04  4.26527E+04 -7.94967E+03  4.51896E+04
 -2.85037E+04  2.99700E+04 -3.72131E+04  8.32223E+03 -3.83736E+04 -1.53116E+04 -2.12802E+04 -3.42712E+04
  6.96264E+03 -3.41281E+04  2.91610E+04 -1.26748E+04  2.67727E+04  1.05732E+04  2.88580E+03  1.75749E+04
 -1.31990E+04  7.37727E+03 -9.55615E+03 -7.69744E+03  5.89571E+03 -9.97279E+03  1.73364E+04  6.49926E+03
  1.20854E+04  2.14108E+04 -6.45886E+03  2.35562E+04 -2.18758E+04  9.09174E+03 -2.50694E+04 -6.61817E+03
 -1.67883E+04 -1.61380E+04 -5.80884E+03 -1.65132E+04  3.83848E+03 -1.47672E+04  1.24444E+04 -1.44844E+04
  2.15329E+04 -1.15707E+04  2.85219E+04  1.20151E+03  2.09807E+04  1.62345E+04  4.06096E+03  3.24903E+04
 -1.61555E+04  2.73862E+04 -2.58412E+04  9.32565E+03 -1.94973E+04 -1.02997E+04 -3.78494E+03 -1.38636E+04
  2.74328E+03 -3.98497E+03 -2.52733E+03  5.66281E+03 -1.29644E+04  5.32385E+03 -1.33459E+04 -4.76521E+03
 -8.67107E+03 -1.53517E+04  4.57756E+03 -1.93837E+04  1.25529E+04 -1.42699E+04  1.46949E+04 -1.51022E+03
  8.94830E+03  1.07586E+04 -9.49061E+02  1.57482E+04 -1.01358E+04  8.78074E+03 -1.53299E+04 -3.46296E+03
 -1.15132E+04 -1.41295E+04 -1.60778E+03 -1.87444E+04  8.58559E+03 -1.53044E+04  1.58576E+04 -7.32068E+03
  1.43143E+04  6.96731E+02  1.06890E+04  3.86717E+03  5.35417E+03  5.46066E+02  7.54304E+03 -1.55170E+03
  1.37537E+04  2.56869E+03  1.46416E+04  1.25855E+04  8.98885E+03  2.45687E+04 -3.13995E+03  2.64742E+04
 -1.56275E+04  2.00435E+04 -2.43524E+04  9.47874E+03 -2.43929E+04 -1.71022E+03 -2.10868E+04 -1.38097E+04
 -9.68877E+03 -2.02234E+04  6.57990E+03 -1.88929E+04  1.63426E+04 -1.08106E+04  1.55610E+04  3.58013E+03
  6.55012E+03  1.13296E+04 -6.88583E+03  1.05011E+04 -1.28983E+04  2.58346E+03 -1.02320E+04 -7.79000E+03
  4.90883E+00 -1.23492E+04  6.24539E+03 -9.23130E+03  7.71668E+03 -1.07508E+03  1.51074E+03  5.02520E+03
 -5.47387E+03  1.24486E+03 -3.68838E+03 -4.50375E+03  7.86122E+02 -1.02116E+04  7.77721E+03 -9.81319E+03
  1.22713E+04 -4.52872E+03  1.18419E+04  2.74728E+03  1.00960E+04  9.16427E+03  4.69614E+03  1.39718E+04
 -1.74832E+03  1.57287E+04 -9.54708E+03  1.02433E+04 -1.09596E+04  2.98304E+03 -8.30100E+03 -1.73476E+03
 -4.59290E+03 -3.24367E+03 -1.10359E+03  1.30084E+03 -1.84574E+03  1.57591E+03 -3.49066E+03  3.70274E+03
 -7.93537E+03 -6.11025E+02 -8.93009E+03 -7.13257E+03 -3.56724E+03 -1.13200E+04  3.42070E+03 -8.15749E+03
  7.27537E+03 -3.68621E+03  5.14976E+03  2.20593E+03  7.47056E+02  2.80168E+03 -3.34067E+03 -6.37737E+01
 -3.20810E+03 -5.25475E+03 -8.08162E+02 -6.91217E+03  3.61234E+03 -7.60343E+03  9.71896E+03 -3.77802E+03
  1.14484E+04  4.98736E+02  8.60683E+03  6.12866E+03  1.95779E+03  8.52918E+03 -5.45949E+03  7.69487E+03
 -6.66363E+03  2.69687E+03 -3.19270E+03 -9.27843E+02  1.43078E+03 -1.68215E+03  4.54232E+03 -1.00173E+03
  4.14697E+03  3.42420E+03  8.92948E+02  6.18936E+03 -4.48561E+03  6.51863E+03 -7.63656E+03  1.59157E+03
 -4.97457E+03 -3.70529E+03  2.34706E+02 -6.67752E+03  3.47513E+03 -3.27230E+03  3.27264E+03  9.37430E+02
  3.03144E+02  2.96812E+03 -3.91931E+03  4.59093E+03 -4.51014E+03  1.95879E+03 -4.23417E+03 -9.54058E+02
 -2.91533E+03 -6.00809E+03  1.10796E+03 -6.89002E+03  5.72085E+03 -4.50594E+03  6.06480E+03  8.25845E+02
  4.60668E+03  5.24780E+03  1.38715E+02  7.08066E+03 -4.71219E+03  4.25285E+03 -4.77843E+03 -1.48207E+02
 -5.70381E+03 -5.39498E+03 -1.44233E+03 -4.98679E+03  2.46270E+03 -4.39110E+03  2.82563E+03 -3.05751E+03
  2.75051E+03  4.49597E+02 -2.58807E+01  1.22546E+03  5.22804E+02 -7.85043E+01  3.39235E+01 -1.73863E+03
  3.55545E+03 -6.04882E+02  5.05092E+03  5.87537E+02  5.35542E+03  3.08231E+03  5.12272E+03  6.76161E+03
 -1.14448E+03  7.91349E+03 -7.43188E+03  6.06005E+03 -9.39382E+03  1.11058E+03 -7.57211E+03 -2.50387E+03
 -4.05030E+03 -6.32770E+03 -3.89389E+02 -4.82810E+03  1.87000E+03 -2.45001E+03  1.97614E+03 -1.84250E+03
  1.18505E+03 -1.46283E+03  2.08282E+03 -2.32344E+03  3.37141E+03 -1.05561E+03  3.43224E+03  7.60013E+02
  4.31005E+03  1.23852E+03  6.27540E+02  3.48393E+03 -1.63815E+03  2.40551E+03 -4.42372E+03  2.62197E+03
 -4.60464E+03 -1.00068E+03 -1.61594E+03 -3.25649E+03  4.03310E+02 -4.66795E+03  3.03355E+03 -5.30530E+03
  4.82579E+03 -3.25105E+03  6.41334E+03  4.56955E+01  4.65694E+03  4.26165E+03  1.12288E+03  5.57407E+03
 -1.77955E+03  5.59105E+03 -3.14243E+03  1.82021E+03 -1.76517E+03 -7.88600E+02 -3.35309E+02 -1.92598E+02
 -4.96241E+02  6.37277E+02 -9.00394E+02  1.77695E+03 -2.52403E+03  9.95771E+02 -3.82290E+03 -5.47125E+02
 -9.07766E+02 -3.89513E+03  7.34098E+02 -4.32027E+03  2.28639E+03 -4.47362E+03  3.21842E+03 -1.12718E+03
  3.65238E+03  2.21856E+03  1.68210E+03  3.16351E+03 -7.11945E+02  3.94142E+03 -2.41767E+03  2.41742E+03
 -3.53407E+03  6.24169E+02 -3.23356E+03 -2.42048E+03 -8.87527E+00 -2.83904E+03  1.39328E+03 -2.19910E+03
  2.63671E+03 -1.34830E+03  1.77639E+03  3.50848E+02  4.65876E+02  1.49140E+03  9.54558E+02  4.64450E+02
  1.29831E+03  5.13105E+02  1.01569E+03  1.10533E+03  1.27159E+03  2.06148E+03  1.28223E+03  1.54630E+03
 -1.06476E+03  2.62890E+03 -2.41197E+03  3.65598E+03 -2.80041E+03  1.09038E+03 -3.92234E+03 -1.11557E+02
 -1.55174E+03 -3.23935E+03  8.29486E+02 -4.29688E+03  1.56623E+03 -2.35606E+03  2.78505E+03 -8.28263E+02
  2.10118E+03  1.73147E+03  3.38406E+02  2.36389E+03 -3.21661E+02  1.10556E+03 -8.68142E+02 -1.56050E+02
 -3.88630E+02 -1.41741E+03  1.25824E+03 -1.37344E+03  1.24482E+03 -1.17767E+03  1.24987E+03  3.87650E+02
  5.90152E+02  3.45104E+02  6.70945E+02 -5.25736E+02 -2.45109E+02  5.16664E+02  1.30415E+03 -1.09267E+02
 -6.76078E+01 -6.67334E+01  1.57179E+03  3.66881E+02  2.25684E+02  1.92113E+03 -3.23500E+02  2.66201E+03
 -1.41381E+03  1.06156E+03 -1.69532E+03  4.34856E+02 -1.94010E+03 -5.64730E+02 -6.87776E+01 -8.08421E+02
  2.56246E+02 -1.42880E+03  1.15754E+03 -7.13526E+02  5.21138E+02  1.14966E+03 -7.56033E+02  1.12011E+03
 -1.43172E+03  3.58840E+02 -1.22436E+03 -1.31247E+03 -5.33260E+02 -2.04369E+03  8.35359E+01 -1.28447E+03
  3.13571E+02 -3.01488E+02  5.83107E+02  4.44986E+01  1.32166E+03 -2.88275E+02  3.82593E+02  8.77653E+02
 -1.88592E+01 -3.20123E+02 -9.93994E+02 -8.98168E+01  7.66449E+02 -6.52528E+02  1.92741E+03 -5.71829E+02
  1.21398E+03  2.16167E+02  2.74442E+03  5.55816E+02  1.12518E+03  1.39608E+03 -4.03144E+02  1.58802E+03
 -1.22384E+03 -4.65382E+01 -1.48337E+03 -1.19266E+02 -6.84810E+02 -1.27198E+03  1.13017E+02 -2.33481E+02
  1.29654E+03 -2.94909E+02  7.00195E+02  3.35856E+02  9.34644E+01  1.32464E+03  4.21157E+02  8.85278E+02
 -4.10883E+02  1.18881E+03 -7.31502E+02  2.21579E+02  1.32284E+01  2.15325E+02 -5.67076E+02  4.01799E+02
 -4.69172E+02  9.91219E+02 -1.59136E+03  2.64578E+02 -1.40084E+03  1.38518E+02 -2.18930E+03 -7.98392E+02
 -1.04092E+03 -2.05342E+03  2.86607E+02 -2.57692E+03  6.98336E+02 -2.02995E+03  2.44175E+03 -7.07454E+02
  2.13904E+03 -1.93298E+02  8.96882E+02  1.46698E+03 -4.38652E+02  1.48258E+03 -6.53619E+02  9.03051E+02
 -8.34772E+02  6.05566E+02 -5.22272E+02 -2.23537E+02 -4.40617E+02  2.41438E+02 -7.02560E+02  2.72890E+01
 -1.20475E+03 -2.61805E+02 -9.17705E+02  3.99127E+02  2.32180E+02 -6.96319E+02 -1.80594E+02 -6.68608E+02
  1.18245E+03 -4.60345E+02  3.23041E+02  9.24686E+01  1.01412E+03  8.58651E+02 -6.39835E+02  1.24799E+03
 -1.17874E+03  1.87462E+03 -1.28489E+03  8.89484E+02 -1.30673E+03 -1.21678E+02 -9.38731E+02 -1.02063E+03
 -5.71254E+02 -1.04715E+03  7.54629E+01 -1.02439E+03  5.20585E+02 -3.83932E+02  3.92311E+02 -4.67608E+01
  8.07351E+02  6.76264E+01  9.89972E+01  1.26413E+02 -3.28094E+02 -2.24112E+02  1.23368E+02 -1.93160E+02
  2.33421E+02  9.85489E+01  2.76007E+02  4.64544E+02  1.60409E+01  2.53568E+02  4.70912E+02  3.92442E+02
 -4.23284E+02  6.06475E+02 -7.09913E+02  6.25451E+00 -6.04833E+02 -1.91016E+02  7.35485E+01 -1.16647E+03
  5.78714E+02 -3.71773E+02  1.97007E+02  3.05787E+01  7.71888E+02 -7.00613E+02  2.29583E+02  6.24840E+02
  5.91257E+02  3.14783E+02 -3.27226E+02  3.66376E+02 -2.19948E+02  4.16162E+02 -4.41246E+02  7.18343E+01
 -3.75596E+02 -6.68533E+01 -4.65206E+02  1.71091E+02 -4.10045E+02  1.01601E+02 -7.51723E+02 -2.07734E+02
 -9.11447E+02  4.26272E+01 -1.88043E+02 -9.66272E+02  8.95671E+02 -1.55460E+03  6.50670E+02 -3.27230E+02
  6.72024E+02 -2.94438E+01 -1.94786E+02  3.04906E+02 -1.94305E+01  4.66293E+02 -7.38560E+01  6.37736E+02
