 $NMID ID='MM_0lb_SNR800_10hz_g50_58.RAW', FMTDAT='(8E13.5)'
 TRAMP=1., VOLUME=1. $END
  3.09712E+05  4.19258E+02  3.38135E+05  2.50660E+05  8.52258E+04  3.38468E+05 -1.32780E+05  2.51614E+05
 -1.91017E+05  8.39428E+04 -1.12731E+05 -3.18370E+04  5.90736E+02 -5.07042E+04  5.38287E+04 -3.69111E+02
  3.49479E+04  5.28788E+04 -1.65296E+04  7.64050E+04 -6.15234E+04  6.41570E+04 -8.50263E+04  3.22375E+04
 -8.18610E+04 -1.16810E+04 -5.82163E+04 -5.21032E+04 -1.51165E+04 -7.06809E+04  2.80353E+04 -4.64664E+04
  4.09181E+04  3.84983E+03  1.67917E+04  4.83821E+04 -3.44179E+04  4.78194E+04 -6.78368E+04  2.26964E+02
 -5.46446E+04 -5.81760E+04 -7.38148E+03 -7.85409E+04  3.45079E+04 -5.67017E+04  4.93555E+04 -1.75964E+04
  4.48760E+04  1.12568E+04  3.26648E+04  2.61827E+04  1.58788E+04  3.03932E+04 -5.71084E+03  2.75314E+04
 -2.25402E+04  1.23674E+04 -1.82699E+04 -5.79677E+03  6.99753E+03 -7.38416E+03  2.31728E+04  1.35858E+04
  7.11697E+03  3.70748E+04 -3.37917E+04  3.68848E+04 -6.50422E+04  1.81069E+03 -5.86166E+04 -4.42957E+04
 -1.26936E+04 -6.53378E+04  4.12315E+04 -4.68506E+04  6.07316E+04 -2.45750E+03  3.64025E+04  3.37245E+04
 -5.67717E+03  3.86153E+04 -3.13884E+04  1.85940E+04 -3.29109E+04 -3.51651E+03 -1.84768E+04 -1.18029E+04
 -9.09061E+03 -1.48950E+04 -7.58624E+02 -1.92801E+04  7.97560E+03 -2.34115E+04  1.58286E+04 -1.26748E+04
  1.06643E+04  6.30742E+03 -9.74622E+03  1.29179E+04 -2.30441E+04 -6.51621E+03 -8.98419E+03 -3.67893E+04
  2.45897E+04 -4.59277E+04  5.11466E+04 -2.05174E+04  4.81543E+04  2.05857E+04  1.68949E+04  4.64562E+04
 -1.65044E+04  3.53378E+04 -2.71451E+04  2.43667E+03 -1.14723E+04 -2.91152E+04  2.18608E+04 -3.64655E+04
  4.37020E+04 -1.08605E+04  3.91606E+04  2.46549E+04  2.10323E+04  4.99421E+04 -8.24638E+03  5.50671E+04
 -3.44036E+04  3.76252E+04 -4.63869E+04  1.05674E+04 -4.65883E+04 -1.82278E+04 -2.56811E+04 -4.15714E+04
  7.75077E+03 -4.09763E+04  3.36870E+04 -1.70073E+04  3.13636E+04  1.10633E+04  5.04246E+03  2.06632E+04
 -1.41667E+04  9.42851E+03 -1.11332E+04 -7.41191E+03  5.64500E+03 -1.14509E+04  1.84662E+04  5.69181E+03
  1.45490E+04  2.25922E+04 -5.38317E+03  2.63018E+04 -2.27481E+04  1.36627E+04 -3.11900E+04 -3.37102E+03
 -2.44888E+04 -1.82494E+04 -1.11336E+04 -2.36312E+04  4.26335E+03 -2.46686E+04  1.91324E+04 -2.21363E+04
  3.12797E+04 -1.37834E+04  3.71833E+04  4.44367E+03  2.64418E+04  2.33876E+04  4.21061E+03  4.02332E+04
 -1.90999E+04  3.31616E+04 -3.03266E+04  1.15388E+04 -2.23433E+04 -1.04609E+04 -4.55086E+03 -1.32819E+04
  8.51965E+02 -1.44930E+03 -7.20547E+03  8.04190E+03 -1.95731E+04  4.89279E+03 -1.94838E+04 -9.08745E+03
 -1.12706E+04 -2.26939E+04  5.91808E+03 -2.66054E+04  1.81997E+04 -1.93043E+04  2.16142E+04 -1.79431E+03
  1.39072E+04  1.54244E+04 -1.27718E+03  2.30379E+04 -1.56692E+04  1.30205E+04 -2.22669E+04 -4.62920E+03
 -1.64329E+04 -2.04207E+04 -2.12458E+03 -2.69650E+04  1.22870E+04 -2.18665E+04  2.20580E+04 -1.15544E+04
  2.07684E+04 -1.81087E+01  1.51344E+04  5.25443E+03  8.19667E+03  1.28946E+03  1.12936E+04 -1.73961E+03
  2.08864E+04  2.78076E+03  2.45615E+04  1.79064E+04  1.63878E+04  3.60930E+04 -2.99893E+03  4.21623E+04
 -2.40857E+04  3.44543E+04 -3.97884E+04  1.75514E+04 -4.22911E+04 -3.00040E+03 -3.40803E+04 -2.49421E+04
 -1.41273E+04 -3.52557E+04  1.19574E+04 -3.07960E+04  2.68468E+04 -1.52354E+04  2.31532E+04  7.01547E+03
  7.88062E+03  1.76468E+04 -1.11440E+04  1.47566E+04 -1.94859E+04  2.99480E+03 -1.50824E+04 -1.19844E+04
 -1.16563E+02 -1.80073E+04  1.02802E+04 -1.34557E+04  1.27033E+04 -1.18900E+03  3.02580E+03  8.24642E+03
 -8.28014E+03  3.44077E+03 -8.42781E+03 -6.45119E+03 -1.26833E+03 -1.71461E+04  1.11123E+04 -1.85960E+04
  2.21214E+04 -1.05137E+04  2.40440E+04  3.28653E+03  2.10049E+04  1.75498E+04  9.97561E+03  2.74343E+04
 -5.01631E+03  2.92629E+04 -1.89685E+04  1.82198E+04 -2.11441E+04  3.58902E+03 -1.44147E+04 -5.13501E+03
 -6.00068E+03 -6.63418E+03 -4.10537E+02  2.35644E+02 -3.12083E+03  3.13046E+03 -6.84980E+03  5.24525E+03
 -1.33169E+04 -1.20541E+03 -1.39628E+04 -1.09925E+04 -5.29279E+03 -1.84984E+04  6.09885E+03 -1.47910E+04
  1.20491E+04 -6.13255E+03  8.93148E+03  4.16772E+03  1.11300E+02  5.74814E+03 -7.25342E+03 -2.75939E+02
 -7.09963E+03 -9.49638E+03 -1.27587E+03 -1.47095E+04  8.70254E+03 -1.52608E+04  1.88291E+04 -8.13744E+03
  2.18908E+04  2.02717E+03  1.63122E+04  1.35806E+04  3.13474E+03  1.71381E+04 -9.00810E+03  1.49482E+04
 -1.15686E+04  4.25399E+03 -6.26351E+03 -3.10294E+03  2.49948E+03 -4.17173E+03  7.86672E+03 -1.27838E+03
  7.09375E+03  6.71770E+03  1.07134E+03  1.15266E+04 -8.18873E+03  1.12814E+04 -1.46833E+04  2.42747E+03
 -9.61893E+03 -7.75844E+03  3.69072E+01 -1.26647E+04  7.77479E+03 -6.16408E+03  8.71232E+03  2.98076E+03
  2.07264E+03  8.82637E+03 -8.03311E+03  1.10119E+04 -1.29034E+04  5.05385E+03 -1.24652E+04 -4.45280E+03
 -6.94395E+03 -1.46157E+04  3.42288E+03 -1.66628E+04  1.43360E+04 -9.85641E+03  1.54106E+04  2.93995E+03
  9.15224E+03  1.22341E+04 -1.65289E+03  1.46173E+04 -1.07876E+04  7.66262E+03 -1.18478E+04 -1.17582E+03
 -1.00382E+04 -9.79327E+03 -1.85880E+03 -1.13216E+04  5.81646E+03 -8.93053E+03  6.63483E+03 -3.75333E+03
  4.47400E+03  1.75234E+03 -1.34912E+03  2.33210E+03 -5.27153E+02 -3.12307E+03  2.45005E+03 -6.76282E+03
  1.05758E+04 -4.28488E+03  1.45877E+04  1.54603E+03  1.44681E+04  9.96660E+03  9.43702E+03  1.90196E+04
 -4.38697E+03  2.20522E+04 -1.83182E+04  1.65227E+04 -2.32916E+04  2.95722E+03 -1.92086E+04 -8.19319E+03
 -9.52425E+03 -1.54358E+04 -8.30921E+02 -1.31211E+04  4.61159E+03 -7.21647E+03  4.73411E+03 -4.64620E+03
  3.36318E+03 -2.64958E+03  3.62009E+03 -3.69732E+03  5.53014E+03 -3.22395E+03  7.46853E+03 -1.31198E+03
  9.99298E+03  2.40846E+03  5.25619E+03  8.52989E+03 -2.60137E+03  1.05301E+04 -1.05048E+04  7.63865E+03
 -1.34560E+04 -1.36290E+03 -8.12337E+03 -9.54168E+03 -9.47811E+02 -1.41909E+04  8.00403E+03 -1.43308E+04
  1.45465E+04 -8.10723E+03  1.81359E+04  2.37526E+03  1.22302E+04  1.26638E+04  1.60648E+03  1.57081E+04
 -6.39860E+03  1.31912E+04 -9.14362E+03  4.61881E+03 -6.31501E+03 -1.40239E+03 -2.65182E+03 -2.02179E+03
 -1.30065E+03  3.44984E+02 -1.89449E+03  2.76911E+03 -5.97113E+03  1.75862E+03 -9.33446E+03 -1.51612E+03
 -6.45004E+03 -9.25313E+03  1.47937E+02 -1.28543E+04  8.35696E+03 -1.18738E+04  1.34563E+04 -3.84838E+03
  1.32659E+04  6.26090E+03  5.85173E+03  1.14226E+04 -2.52881E+03  1.31734E+04 -9.26390E+03  8.28153E+03
 -1.24521E+04  7.03477E+02 -9.41773E+03 -8.01045E+03 -1.20057E+03 -1.08639E+04  5.63823E+03 -8.15048E+03
  8.46063E+03 -2.36635E+03  5.82562E+03  2.32049E+03  2.44718E+03  4.14473E+03  1.43098E+03  1.58542E+03
  3.00534E+03  1.11357E+03  3.12035E+03  1.68632E+03  3.99897E+03  4.67355E+03  3.32814E+03  7.13776E+03
 -2.70820E+03  1.05581E+04 -9.62995E+03  1.04405E+04 -1.32339E+04  2.79412E+03 -1.42165E+04 -5.49440E+03
 -6.74472E+03 -1.31429E+04  2.33615E+03 -1.47262E+04  8.17439E+03 -9.47261E+03  1.09949E+04 -2.49869E+03
  8.57193E+03  5.41905E+03  1.93123E+03  7.51441E+03 -3.79702E+03  4.49301E+03 -5.41292E+03 -4.08126E+02
 -2.70562E+03 -5.54722E+03  3.30117E+03 -5.40447E+03  5.42263E+03 -3.28301E+03  5.41974E+03  1.28093E+03
  3.14183E+03  2.31553E+03  1.17295E+03  2.37493E+03 -7.59914E+02  1.83504E+03  1.45683E+03 -7.04985E+02
  2.48859E+03 -5.59984E+02  5.34972E+03  2.23803E+03  3.29894E+03  6.86067E+03 -1.18760E+03  9.16808E+03
 -6.22258E+03  6.07001E+03 -8.20245E+03  2.00858E+03 -7.48976E+03 -3.16496E+03 -2.92016E+03 -5.00327E+03
  1.28864E+03 -5.23772E+03  3.21028E+03 -2.52924E+03  2.65981E+03  2.69296E+03 -1.68075E+03  4.38226E+03
 -5.66092E+03  2.77350E+03 -6.36151E+03 -2.91585E+03 -3.66057E+03 -7.36018E+03  1.12485E+03 -7.15996E+03
  4.05203E+03 -4.01307E+03  4.97257E+03 -6.03239E+02  4.37238E+03  1.45577E+03  5.52503E+02  3.60422E+03
 -2.85426E+03  1.33044E+03 -3.16269E+03 -2.12110E+03  1.19048E+03 -5.64541E+03  6.62067E+03 -4.52075E+03
  8.16987E+03  9.15711E+02  8.12278E+03  5.56348E+03  2.44357E+03  8.70037E+03 -3.10263E+03  8.19396E+03
 -6.84382E+03  3.27860E+03 -7.49565E+03 -1.21192E+03 -4.21374E+03 -5.55934E+03  1.45255E+03 -5.17383E+03
  5.48916E+03 -2.73119E+03  4.35863E+03  2.25156E+03  1.53922E+03  5.24849E+03 -4.55217E+02  3.94498E+03
 -2.23522E+03  2.55582E+03 -2.07257E+03  8.74910E+02 -6.88443E+02  9.21721E+02 -1.56514E+03  1.46882E+03
 -2.18390E+03  3.48198E+03 -5.54258E+03  3.03247E+03 -8.51422E+03 -1.11845E+02 -9.67023E+03 -5.49371E+03
 -4.94626E+03 -1.15405E+04  1.86169E+03 -1.32418E+04  7.85745E+03 -1.03746E+04  1.19808E+04 -3.92749E+03
  1.16003E+04  2.32078E+03  6.75080E+03  7.91787E+03  8.46805E+02  8.82152E+03 -3.53457E+03  6.67319E+03
 -4.95522E+03  2.79252E+03 -2.60737E+03 -9.57434E+02 -8.81393E+02 -4.98552E+02 -4.74455E+02  1.97139E+01
 -1.43925E+03  6.07194E+02 -1.71316E+03 -2.74295E+02 -3.71322E+02 -2.36885E+03  3.03034E+00 -3.39156E+03
  4.19793E+03 -2.56526E+03  5.16576E+03  9.56965E+01  6.36564E+03  4.86344E+03  1.33891E+03  8.81931E+03
 -4.43966E+03  1.02503E+04 -9.27753E+03  5.89063E+03 -1.04929E+04 -1.07979E+03 -7.89864E+03 -6.60064E+03
 -3.18228E+03 -8.95455E+03  2.10047E+03 -8.40614E+03  5.47588E+03 -4.71786E+03  5.82716E+03 -6.96071E+00
  2.83253E+03  3.01412E+03 -2.02524E+02  2.29732E+03 -1.53365E+03 -2.07533E+00 -2.17930E+02 -2.14043E+03
  2.73591E+03 -1.21478E+03  3.61158E+03  1.06815E+03  1.89061E+03  3.53759E+03  5.28817E+02  4.51725E+03
 -3.39608E+03  3.84561E+03 -5.66121E+03  7.32931E+02 -5.58753E+03 -4.22949E+03 -1.01840E+03 -7.08747E+03
  4.16363E+03 -5.85571E+03  6.75417E+03 -1.82901E+03  6.97016E+03  1.34547E+03  3.75281E+03  5.08768E+03
  6.86888E+02  5.56687E+03 -2.19224E+03  4.40592E+03 -3.58299E+03  2.92046E+03 -2.72230E+03  1.73132E+02
 -1.30935E+03 -1.54615E+02 -1.43824E+03  4.24456E+02 -2.78096E+03  1.32490E+03 -4.20012E+03 -7.73741E+02
 -4.26093E+03 -3.11854E+03 -1.71393E+03 -5.80488E+03  3.00397E+03 -6.14892E+03  5.18950E+03 -2.56390E+03
  5.76889E+03  5.72571E+02  2.86864E+03  3.81731E+03 -3.80061E+02  5.58902E+03 -4.57206E+03  3.81233E+03
