 $NMID ID='MM_0lb_SNR800_8hz_g45_20.RAW', FMTDAT='(8E13.5)'
 TRAMP=1., VOLUME=1. $END
  3.09925E+05  5.60767E+02  3.37872E+05  2.50630E+05  8.49540E+04  3.38274E+05 -1.32853E+05  2.52194E+05
 -1.90630E+05  8.40010E+04 -1.12456E+05 -3.20806E+04 -1.84745E+02 -5.10334E+04  5.38911E+04 -5.65583E+02
  3.59090E+04  5.30168E+04 -1.66254E+04  7.61876E+04 -6.11725E+04  6.40783E+04 -8.55541E+04  3.28334E+04
 -8.22585E+04 -1.15244E+04 -5.80331E+04 -5.25913E+04 -1.47138E+04 -7.10297E+04  2.79176E+04 -4.67379E+04
  4.13676E+04  3.89630E+03  1.68935E+04  4.83879E+04 -3.50485E+04  4.82129E+04 -6.84832E+04 -2.53997E+02
 -5.51226E+04 -5.81320E+04 -7.51726E+03 -7.87002E+04  3.47656E+04 -5.70217E+04  5.02585E+04 -1.92162E+04
  4.58609E+04  1.18548E+04  3.27829E+04  2.64248E+04  1.60220E+04  3.06767E+04 -5.90414E+03  2.79401E+04
 -2.24244E+04  1.20255E+04 -1.84040E+04 -5.39528E+03  7.15447E+03 -7.36857E+03  2.34809E+04  1.35704E+04
  7.09653E+03  3.73705E+04 -3.42011E+04  3.72779E+04 -6.61388E+04  2.35422E+03 -5.93071E+04 -4.44121E+04
 -1.22030E+04 -6.60816E+04  4.16436E+04 -4.77601E+04  6.14318E+04 -2.29996E+03  3.72671E+04  3.44281E+04
 -5.15536E+03  3.97575E+04 -3.19328E+04  1.90557E+04 -3.38084E+04 -3.77948E+03 -1.98399E+04 -1.19639E+04
 -9.30318E+03 -1.52868E+04 -3.60248E+01 -2.00394E+04  8.92502E+03 -2.35230E+04  1.59005E+04 -1.23684E+04
  1.04119E+04  6.37192E+03 -1.09048E+04  1.28896E+04 -2.39034E+04 -6.74296E+03 -8.46489E+03 -3.76244E+04
  2.53075E+04 -4.71765E+04  5.22868E+04 -2.08559E+04  4.90009E+04  2.09445E+04  1.72370E+04  4.72984E+04
 -1.68288E+04  3.63136E+04 -2.75954E+04  2.92244E+03 -1.17621E+04 -3.00178E+04  2.15136E+04 -3.70640E+04
  4.50646E+04 -1.15725E+04  4.10492E+04  2.51764E+04  2.19240E+04  5.17301E+04 -8.64619E+03  5.67192E+04
 -3.58370E+04  3.89930E+04 -4.82241E+04  1.08627E+04 -4.84408E+04 -1.87142E+04 -2.67084E+04 -4.22991E+04
  8.12427E+03 -4.26911E+04  3.41808E+04 -1.69462E+04  3.23723E+04  1.09656E+04  5.56765E+03  2.09281E+04
 -1.37061E+04  1.00831E+04 -1.11347E+04 -7.47454E+03  5.39184E+03 -1.14393E+04  1.91408E+04  5.41261E+03
  1.48068E+04  2.27862E+04 -5.31558E+03  2.72226E+04 -2.35092E+04  1.45520E+04 -3.23615E+04 -2.55605E+03
 -2.63239E+04 -1.85529E+04 -1.17326E+04 -2.53935E+04  4.38478E+03 -2.65530E+04  2.04665E+04 -2.36126E+04
  3.27433E+04 -1.44587E+04  3.87660E+04  5.56791E+03  2.76221E+04  2.51062E+04  4.81554E+03  4.15330E+04
 -2.00930E+04  3.40863E+04 -3.09946E+04  1.19509E+04 -2.27534E+04 -9.76007E+03 -4.82593E+03 -1.30190E+04
  1.08699E+03 -6.72793E+02 -7.74054E+03  8.18565E+03 -2.05548E+04  5.05695E+03 -2.08163E+04 -9.58021E+03
 -1.24819E+04 -2.34912E+04  6.22516E+03 -2.84665E+04  1.92434E+04 -2.04079E+04  2.32648E+04 -1.96801E+03
  1.51283E+04  1.64486E+04 -1.45390E+03  2.39013E+04 -1.70391E+04  1.39315E+04 -2.40765E+04 -4.58212E+03
 -1.72951E+04 -2.13477E+04 -1.97501E+03 -2.89543E+04  1.31419E+04 -2.36294E+04  2.34488E+04 -1.24993E+04
  2.23052E+04 -5.15851E+02  1.64632E+04  5.39036E+03  8.45018E+03  1.43935E+03  1.29171E+04 -2.23223E+03
  2.28592E+04  2.92858E+03  2.60956E+04  1.87293E+04  1.83433E+04  3.82948E+04 -2.64469E+03  4.55628E+04
 -2.56884E+04  3.81846E+04 -4.33234E+04  1.91889E+04 -4.62819E+04 -3.42956E+03 -3.72943E+04 -2.71468E+04
 -1.44487E+04 -3.82244E+04  1.40524E+04 -3.34245E+04  2.86224E+04 -1.58104E+04  2.50969E+04  8.16706E+03
  8.45288E+03  1.90805E+04 -1.19026E+04  1.61072E+04 -2.09056E+04  2.35109E+03 -1.55545E+04 -1.30804E+04
 -3.76062E+02 -1.98991E+04  1.07236E+04 -1.46172E+04  1.39075E+04 -1.43331E+03  3.79754E+03  9.02577E+03
 -8.93406E+03  4.63582E+03 -9.23330E+03 -7.64517E+03 -1.63868E+03 -1.89205E+04  1.20508E+04 -2.10348E+04
  2.40928E+04 -1.15876E+04  2.74994E+04  3.51295E+03  2.43661E+04  1.93354E+04  1.17878E+04  3.05092E+04
 -5.64630E+03  3.23095E+04 -2.11191E+04  2.00667E+04 -2.32620E+04  3.93340E+03 -1.57583E+04 -6.37597E+03
 -6.72422E+03 -7.67584E+03 -1.96231E+02  3.69688E+02 -2.81399E+03  4.07405E+03 -7.60143E+03  5.52758E+03
 -1.45092E+04 -1.29010E+03 -1.51623E+04 -1.17419E+04 -6.24877E+03 -1.97439E+04  6.29943E+03 -1.64782E+04
  1.30339E+04 -6.93387E+03  9.38120E+03  4.03510E+03 -5.96196E+01  6.31916E+03 -8.41247E+03  2.60081E+02
 -8.35518E+03 -1.04884E+04 -7.72518E+02 -1.63261E+04  9.66838E+03 -1.73047E+04  2.08550E+04 -9.39709E+03
  2.45513E+04  2.74918E+03  1.80885E+04  1.50850E+04  3.62602E+03  2.01084E+04 -1.00724E+04  1.61339E+04
 -1.34435E+04  5.04902E+03 -6.91304E+03 -3.44921E+03  2.20098E+03 -4.46890E+03  8.63783E+03 -1.08384E+03
  7.78965E+03  7.39354E+03  7.61203E+02  1.32497E+04 -9.17699E+03  1.29397E+04 -1.58744E+04  3.00490E+03
 -1.16264E+04 -8.82314E+03  2.11911E+02 -1.41479E+04  9.51326E+03 -7.04493E+03  9.85500E+03  3.60668E+03
  2.77944E+03  1.08357E+04 -8.72421E+03  1.20556E+04 -1.47888E+04  5.66566E+03 -1.48721E+04 -5.09489E+03
 -8.93699E+03 -1.64158E+04  4.32127E+03 -1.95041E+04  1.65817E+04 -1.11677E+04  1.78976E+04  2.99229E+03
  1.05770E+04  1.41501E+04 -1.25963E+03  1.68914E+04 -1.26956E+04  9.37119E+03 -1.35376E+04 -1.56058E+03
 -1.12438E+04 -1.11500E+04 -1.87956E+03 -1.29903E+04  7.04104E+03 -1.02514E+04  8.45654E+03 -3.48438E+03
  5.13930E+03  2.11201E+03 -9.35085E+02  2.01867E+03 -9.61079E+02 -3.89603E+03  2.99061E+03 -8.16234E+03
  1.19061E+04 -5.44358E+03  1.74907E+04  2.09747E+03  1.64626E+04  1.16762E+04  1.09140E+04  2.28258E+04
 -5.18618E+03  2.58891E+04 -2.15035E+04  1.87497E+04 -2.72953E+04  3.68709E+03 -2.22181E+04 -9.82583E+03
 -1.10538E+04 -1.86738E+04 -3.25760E+02 -1.56280E+04  5.94658E+03 -8.81779E+03  5.72925E+03 -5.67468E+03
  4.22619E+03 -3.63995E+03  4.14710E+03 -4.14692E+03  6.19119E+03 -4.16011E+03  8.61694E+03 -1.87633E+03
  1.10897E+04  2.51654E+03  6.46540E+03  9.93361E+03 -2.43958E+03  1.23138E+04 -1.19858E+04  8.93937E+03
 -1.55232E+04 -9.79006E+02 -1.08477E+04 -1.12250E+04 -1.33990E+03 -1.74882E+04  9.04106E+03 -1.67278E+04
  1.77580E+04 -9.37507E+03  2.11131E+04  2.72902E+03  1.51735E+04  1.50764E+04  2.20747E+03  1.92761E+04
 -8.39191E+03  1.53391E+04 -1.12879E+04  5.54685E+03 -8.11392E+03 -2.10774E+03 -3.56449E+03 -1.95263E+03
 -1.92253E+03 -1.60609E+02 -1.97417E+03  3.26816E+03 -7.00395E+03  2.18282E+03 -1.08092E+04 -1.33537E+03
 -8.10457E+03 -1.08815E+04  1.75636E+02 -1.60360E+04  9.44271E+03 -1.46618E+04  1.60991E+04 -4.30295E+03
  1.59145E+04  7.87545E+03  7.56715E+03  1.44333E+04 -3.00819E+03  1.63443E+04 -1.20686E+04  9.65055E+03
 -1.52903E+04  3.05888E+02 -1.15014E+04 -9.93831E+03 -1.27023E+03 -1.37263E+04  7.18270E+03 -1.02807E+04
  9.96395E+03 -2.96050E+03  6.99725E+03  2.81889E+03  2.37303E+03  4.80927E+03  1.75918E+03  2.28891E+03
  2.78292E+03  1.31325E+03  3.73348E+03  2.17766E+03  4.81065E+03  5.40871E+03  4.34162E+03  8.53756E+03
 -3.12137E+03  1.27745E+04 -1.13846E+04  1.28539E+04 -1.70600E+04  3.45349E+03 -1.73728E+04 -7.28870E+03
 -8.51229E+03 -1.68452E+04  2.11869E+03 -1.83982E+04  9.80536E+03 -1.17079E+04  1.38171E+04 -2.95499E+03
  1.08549E+04  6.29058E+03  2.34256E+03  9.46011E+03 -4.78132E+03  6.28043E+03 -6.90521E+03 -8.88786E+02
 -3.05374E+03 -7.03712E+03  3.77374E+03 -7.65838E+03  6.95897E+03 -3.26749E+03  6.73573E+03  1.81254E+03
  3.98794E+03  3.77992E+03  1.97478E+03  2.91585E+03 -8.53341E+02  2.79176E+03  1.85939E+03 -7.83492E+02
  2.80041E+03 -7.93618E+02  7.32730E+03  2.85670E+03  3.94512E+03  9.10647E+03 -1.37321E+03  1.12755E+04
 -8.63198E+03  7.85477E+03 -1.13424E+04  2.16364E+03 -9.52710E+03 -3.64474E+03 -3.74839E+03 -6.70364E+03
  9.43467E+02 -6.67612E+03  4.35734E+03 -2.97763E+03  3.42937E+03  3.23965E+03 -1.59968E+03  6.12155E+03
 -6.92426E+03  3.17583E+03 -8.30036E+03 -4.01871E+03 -4.54164E+03 -9.37379E+03  1.69725E+03 -9.14690E+03
  5.74549E+03 -5.54102E+03  6.45673E+03 -7.45439E+02  5.58382E+03  2.60669E+03  8.70188E+02  4.77748E+03
 -3.98938E+03  1.40945E+03 -4.25821E+03 -3.76859E+03  1.14513E+03 -7.50604E+03  8.51344E+03 -6.10958E+03
  1.15183E+04  9.28266E+02  1.00387E+04  7.86285E+03  4.07510E+03  1.15054E+04 -4.13948E+03  1.06298E+04
 -9.48999E+03  5.01189E+03 -9.39413E+03 -1.21392E+03 -5.11166E+03 -7.22932E+03  1.42145E+03 -6.99227E+03
  6.84930E+03 -3.21444E+03  5.78615E+03  2.95374E+03  1.85627E+03  6.35970E+03 -9.36658E+02  5.48155E+03
 -3.36573E+03  3.64646E+03 -2.96583E+03  1.09075E+03 -9.61730E+02  1.27511E+03 -1.62931E+03  2.27997E+03
 -2.91620E+03  4.30282E+03 -7.44373E+03  3.80414E+03 -1.14093E+04  3.47348E+02 -1.28003E+04 -7.36515E+03
 -6.73614E+03 -1.48695E+04  3.19182E+03 -1.81228E+04  1.09311E+04 -1.35996E+04  1.64905E+04 -5.28204E+03
  1.50961E+04  3.19062E+03  9.99576E+03  1.02435E+04  9.17712E+02  1.18425E+04 -4.79159E+03  8.67335E+03
 -7.10765E+03  3.02560E+03 -3.98900E+03 -1.40617E+03 -1.23343E+03 -1.34058E+03 -9.62493E+02 -1.99383E+02
 -2.25062E+03  4.87986E+02 -2.38810E+03 -4.32595E+02 -1.38688E+03 -2.67539E+03  3.32954E+02 -4.57977E+03
  4.95767E+03 -3.87282E+03  6.83807E+03  6.99290E+01  8.61682E+03  6.34694E+03  2.76917E+03  1.22098E+04
 -5.74880E+03  1.34307E+04 -1.28516E+04  8.10831E+03 -1.47023E+04 -1.39788E+03 -1.10183E+04 -8.64946E+03
 -4.52476E+03 -1.23328E+04  2.79592E+03 -1.14347E+04  7.82137E+03 -6.19084E+03  8.11219E+03  3.49460E+02
  4.62879E+03  4.18934E+03 -2.50550E+02  3.44901E+03 -2.05803E+03  3.93222E+00 -2.53717E+01 -3.07255E+03
  3.82431E+03 -1.74699E+03  4.81231E+03  1.45755E+03  3.20930E+03  4.83973E+03 -1.24844E+02  6.32748E+03
 -5.39031E+03  5.72727E+03 -8.57276E+03  4.60551E+02 -7.35311E+03 -5.69802E+03 -1.55095E+03 -1.00650E+04
  5.88336E+03 -8.57080E+03  9.75757E+03 -3.33384E+03  9.51836E+03  2.78352E+03  5.63574E+03  7.84817E+03
  1.22762E+03  8.61689E+03 -3.07537E+03  6.61663E+03 -5.57688E+03  3.32949E+03 -4.01379E+03  5.25497E+02
 -2.45871E+03 -6.65274E+02 -2.52839E+03  1.43919E+03 -4.55076E+03  1.55406E+03 -6.08464E+03 -1.13814E+03
 -6.20748E+03 -4.70286E+03 -1.95820E+03 -8.53578E+03  3.51557E+03 -8.97874E+03  7.50948E+03 -4.57207E+03
  8.64334E+03  1.25483E+03  4.78633E+03  5.91146E+03 -1.00712E+03  8.37798E+03 -6.28203E+03  5.34970E+03
