 $NMID ID='MM_0lb_SNR800_17hz_g40_75.RAW', FMTDAT='(8E13.5)'
 TRAMP=1., VOLUME=1. $END
  3.09730E+05  4.94852E+02  3.37236E+05  2.50366E+05  8.43960E+04  3.37234E+05 -1.32658E+05  2.50412E+05
 -1.89744E+05  8.26111E+04 -1.10958E+05 -3.27879E+04  1.41453E+03 -5.02140E+04  5.39476E+04  2.45052E+02
  3.49910E+04  5.27270E+04 -1.70612E+04  7.50258E+04 -6.05527E+04  6.26657E+04 -8.29395E+04  3.17176E+04
 -7.97029E+04 -1.12694E+04 -5.64235E+04 -5.04145E+04 -1.50250E+04 -6.81121E+04  2.69286E+04 -4.48004E+04
  3.90359E+04  4.09076E+03  1.55673E+04  4.71203E+04 -3.39815E+04  4.62776E+04 -6.53893E+04 -5.10586E+02
 -5.21804E+04 -5.61899E+04 -6.32574E+03 -7.53645E+04  3.30193E+04 -5.33181E+04  4.64177E+04 -1.64884E+04
  4.17957E+04  1.11610E+04  3.06413E+04  2.44550E+04  1.58716E+04  2.84287E+04 -4.62150E+03  2.65430E+04
 -2.18231E+04  1.28537E+04 -1.89593E+04 -3.92448E+03  4.34669E+03 -7.60999E+03  2.13567E+04  1.11066E+04
  7.49670E+03  3.32616E+04 -3.06760E+04  3.40250E+04 -6.16056E+04  2.22239E+03 -5.58011E+04 -4.14589E+04
 -1.24895E+04 -6.09160E+04  3.83714E+04 -4.37170E+04  5.60854E+04 -2.29178E+03  3.19460E+04  3.08172E+04
 -6.26123E+03  3.31993E+04 -2.86421E+04  1.34920E+04 -2.79780E+04 -5.35264E+03 -1.46417E+04 -1.05135E+04
 -7.56210E+03 -1.14802E+04 -7.67990E+02 -1.67302E+04  6.93220E+03 -2.27249E+04  1.49368E+04 -1.39198E+04
  1.20602E+04  4.25213E+03 -6.57252E+03  1.33544E+04 -1.95128E+04 -2.68806E+03 -8.37950E+03 -3.06567E+04
  2.10527E+04 -4.07611E+04  4.54358E+04 -1.89063E+04  4.23822E+04  1.82377E+04  1.45538E+04  4.19120E+04
 -1.54130E+04  3.13527E+04 -2.36985E+04  1.13033E+03 -8.49406E+03 -2.64027E+04  2.04483E+04 -3.16848E+04
  3.85064E+04 -7.30694E+03  3.17253E+04  2.27667E+04  1.59838E+04  4.30822E+04 -7.68622E+03  4.57983E+04
 -2.89801E+04  3.00887E+04 -3.77901E+04  8.23004E+03 -3.89615E+04 -1.51062E+04 -2.16893E+04 -3.50895E+04
  6.80674E+03 -3.45505E+04  2.94199E+04 -1.28799E+04  2.72047E+04  1.09215E+04  3.08430E+03  1.78130E+04
 -1.31368E+04  7.11961E+03 -9.58258E+03 -7.87622E+03  6.06260E+03 -9.95540E+03  1.72178E+04  6.24776E+03
  1.23819E+04  2.16897E+04 -6.70328E+03  2.34699E+04 -2.14004E+04  9.49117E+03 -2.56529E+04 -5.73622E+03
 -1.71158E+04 -1.64907E+04 -5.75750E+03 -1.71213E+04  3.88203E+03 -1.53816E+04  1.29047E+04 -1.49121E+04
  2.22165E+04 -1.18015E+04  2.87193E+04  1.26486E+03  2.16272E+04  1.67678E+04  4.32685E+03  3.27605E+04
 -1.63843E+04  2.81814E+04 -2.63566E+04  9.88173E+03 -1.98867E+04 -1.05104E+04 -3.94447E+03 -1.37653E+04
  2.39038E+03 -4.00693E+03 -2.88460E+03  5.70685E+03 -1.35010E+04  5.14861E+03 -1.36860E+04 -5.19244E+03
 -9.26584E+03 -1.61589E+04  4.53596E+03 -1.96913E+04  1.30398E+04 -1.42484E+04  1.50243E+04 -1.41217E+03
  9.42613E+03  1.12304E+04 -8.40896E+02  1.63790E+04 -1.07857E+04  8.96098E+03 -1.58048E+04 -3.17833E+03
 -1.19916E+04 -1.46366E+04 -1.44413E+03 -1.95116E+04  8.87509E+03 -1.57813E+04  1.65334E+04 -7.74328E+03
  1.53133E+04  5.44727E+02  1.07968E+04  4.02867E+03  5.57984E+03  5.11855E+02  7.93865E+03 -1.28802E+03
  1.44794E+04  2.52241E+03  1.55543E+04  1.31289E+04  9.64089E+03  2.51765E+04 -3.32546E+03  2.77272E+04
 -1.58816E+04  2.14209E+04 -2.55295E+04  1.02103E+04 -2.62253E+04 -1.98547E+03 -2.22719E+04 -1.49301E+04
 -1.05138E+04 -2.12262E+04  7.40646E+03 -2.00526E+04  1.70848E+04 -1.11478E+04  1.61683E+04  3.98033E+03
  6.54613E+03  1.16912E+04 -7.48612E+03  1.08783E+04 -1.38867E+04  2.30622E+03 -1.07558E+04 -8.25503E+03
 -1.87841E+02 -1.28678E+04  6.66811E+03 -9.71913E+03  8.17669E+03 -1.64862E+03  1.42388E+03  4.98064E+03
 -5.73327E+03  1.54663E+03 -4.07422E+03 -4.91432E+03  6.04034E+02 -1.05233E+04  8.08679E+03 -1.06017E+04
  1.30595E+04 -5.03744E+03  1.27451E+04  2.71198E+03  1.12732E+04  1.01020E+04  5.45250E+03  1.51223E+04
 -2.00789E+03  1.67825E+04 -1.03751E+04  1.07663E+04 -1.19243E+04  2.83012E+03 -9.04662E+03 -2.21974E+03
 -4.77088E+03 -3.50541E+03 -8.23321E+02  1.36512E+03 -2.29956E+03  2.10805E+03 -4.02355E+03  3.58652E+03
 -8.56147E+03 -5.31863E+02 -9.33878E+03 -7.56092E+03 -3.72068E+03 -1.21643E+04  3.96905E+03 -9.23744E+03
  7.50196E+03 -4.20350E+03  5.56488E+03  2.32042E+03  5.39565E+02  3.18518E+03 -3.46658E+03  2.16235E+02
 -3.66859E+03 -5.40130E+03 -1.27104E+03 -7.61857E+03  4.16553E+03 -8.56736E+03  1.06220E+04 -4.44716E+03
  1.26063E+04  8.08502E+02  9.38775E+03  6.81151E+03  1.70710E+03  9.64874E+03 -5.50458E+03  8.73419E+03
 -7.42609E+03  2.86635E+03 -3.68081E+03 -1.13434E+03  1.26007E+03 -1.97200E+03  4.89981E+03 -8.32396E+02
  4.31283E+03  3.63026E+03  1.01486E+03  6.90137E+03 -4.59863E+03  6.99564E+03 -8.08239E+03  1.80965E+03
 -5.43940E+03 -4.08083E+03  4.17414E+02 -7.24026E+03  3.96557E+03 -3.54204E+03  4.03854E+03  1.32064E+03
  4.78261E+02  3.89463E+03 -4.42391E+03  5.13670E+03 -5.57679E+03  2.70654E+03 -5.01589E+03 -1.28376E+03
 -3.56151E+03 -6.61422E+03  1.33135E+03 -7.92248E+03  6.55224E+03 -5.26988E+03  7.24487E+03  1.33923E+03
  5.14905E+03  5.52117E+03  1.30808E+01  8.06611E+03 -5.44081E+03  4.62783E+03 -6.03015E+03 -4.71293E+02
 -5.84945E+03 -5.49480E+03 -1.45694E+03 -5.61120E+03  2.79477E+03 -4.81628E+03  3.30612E+03 -3.02049E+03
  2.86558E+03  1.79227E+02 -2.34311E+02  1.29374E+03  4.76707E+02 -3.74442E+02  1.05261E+02 -2.19189E+03
  4.38834E+03 -1.11473E+03  6.06537E+03  6.42511E+02  6.49329E+03  3.58709E+03  5.88981E+03  8.25217E+03
 -1.44840E+03  9.61633E+03 -8.30327E+03  7.55644E+03 -1.11519E+04  1.32874E+03 -8.54679E+03 -3.10281E+03
 -4.65874E+03 -7.56867E+03 -5.46060E+02 -5.79291E+03  2.39432E+03 -2.58397E+03  2.04001E+03 -2.17798E+03
  1.59486E+03 -1.60850E+03  2.37852E+03 -2.55781E+03  3.71212E+03 -1.53338E+03  3.85744E+03  3.86130E+02
  4.85011E+03  1.29900E+03  1.61232E+03  3.63806E+03 -1.60062E+03  3.36935E+03 -5.12597E+03  3.34730E+03
 -5.43818E+03 -1.24833E+03 -2.47638E+03 -3.86326E+03  3.31845E+02 -5.59336E+03  3.68083E+03 -6.05038E+03
  5.79463E+03 -3.76959E+03  7.73468E+03  5.99978E+02  5.48701E+03  4.85684E+03  1.21851E+03  6.80955E+03
 -2.64835E+03  6.46694E+03 -4.00571E+03  2.14740E+03 -2.37150E+03 -1.04653E+03 -6.73300E+02 -8.03775E+02
 -3.81318E+02  2.83328E+02 -9.91099E+02  2.11973E+03 -2.61924E+03  1.29576E+03 -4.56990E+03 -4.47645E+02
 -1.98662E+03 -4.56340E+03  7.51545E+02 -5.33218E+03  3.19976E+03 -4.81988E+03  4.14799E+03 -1.36169E+03
  5.05373E+03  2.75167E+03  2.06745E+03  4.08082E+03 -1.14570E+03  5.04725E+03 -2.99652E+03  3.03981E+03
 -4.21298E+03  6.99409E+02 -3.59545E+03 -3.09452E+03 -1.53176E+02 -3.58220E+03  1.97806E+03 -2.77175E+03
  3.03047E+03 -1.28584E+03  2.12236E+03  5.98700E+02  9.31644E+02  2.21068E+03  1.07028E+03  3.79625E+02
  1.80470E+03  5.19254E+02  1.42622E+03  1.02015E+03  1.20213E+03  2.41936E+03  1.30331E+03  1.88733E+03
 -1.49042E+03  3.20964E+03 -2.96070E+03  4.44208E+03 -3.87744E+03  1.19672E+03 -4.90870E+03 -9.10989E+02
 -2.08930E+03 -4.26303E+03  6.96459E+02 -5.64775E+03  2.51486E+03 -3.22596E+03  3.91721E+03 -9.34180E+02
  2.88476E+03  2.06081E+03  6.73948E+02  2.97431E+03 -1.00463E+03  1.56872E+03 -1.41591E+03 -4.12203E+02
 -5.05392E+02 -2.17317E+03  1.33593E+03 -1.91656E+03  1.82772E+03 -9.62586E+02  1.56645E+03  6.93067E+02
  1.24073E+03  5.69536E+02  5.38280E+02  8.20817E+00 -3.78268E+02  1.02928E+03  1.86578E+03 -2.69664E+02
  1.80214E+02 -3.34494E+01  2.04921E+03  7.66625E+02  7.58535E+02  2.62043E+03 -1.80495E+02  3.50216E+03
 -2.02911E+03  1.76576E+03 -2.68655E+03  4.33270E+02 -2.57206E+03 -1.18255E+03 -5.39164E+02 -1.29969E+03
  2.89529E+02 -1.63115E+03  1.10365E+03 -8.69927E+02  8.22041E+02  1.27784E+03 -6.52265E+02  1.37322E+03
 -1.88424E+03  7.13616E+02 -1.62005E+03 -1.10528E+03 -1.25920E+03 -2.66462E+03  1.02901E+02 -2.02873E+03
  7.47192E+02 -9.45837E+02  1.09726E+03  2.30054E+02  1.74867E+03 -2.60675E+00  3.39094E+02  1.34583E+03
 -4.70397E+02 -8.58142E+01 -1.11553E+03 -3.56237E+02  6.18845E+02 -1.00942E+03  1.98441E+03 -1.15335E+03
  1.66633E+03  3.22533E+02  3.25475E+03  1.17833E+03  1.45167E+03  2.25500E+03 -6.11635E+02  2.47203E+03
 -1.80114E+03  6.01361E+02 -2.06226E+03 -9.66788E+01 -1.24546E+03 -1.66295E+03  2.85319E+02 -9.81275E+02
  1.87916E+03 -1.10282E+03  1.05344E+03  6.65029E+02  3.47673E+02  1.48733E+03  1.72107E+02  1.40150E+03
 -7.25049E+02  1.11489E+03 -6.71907E+02  4.13739E+02  1.74561E+02  2.54231E+02 -9.76687E+02  6.04954E+02
 -8.28999E+02  1.38520E+03 -2.21746E+03  7.17442E+02 -2.44754E+03  2.20198E+02 -2.84610E+03 -1.62876E+03
 -1.43614E+03 -2.95186E+03  4.49344E+02 -3.65451E+03  1.76624E+03 -2.80288E+03  3.33012E+03 -1.19552E+03
  2.90242E+03 -3.32883E+02  1.59875E+03  1.68023E+03 -4.52599E+02  2.18170E+03 -9.09049E+02  1.62895E+03
 -1.15696E+03  1.08898E+03 -6.76309E+02  6.06255E+01 -5.60994E+02  1.72144E+02 -6.17874E+02  1.89781E+01
 -9.26593E+02 -4.65777E+01 -1.07562E+03  2.34553E+01  3.52836E+02 -7.06265E+02 -5.29546E+02 -1.11944E+03
  1.20575E+03 -9.83919E+02  1.01504E+03  3.05209E+02  1.52622E+03  1.24749E+03  1.75275E+01  2.01050E+03
 -8.67645E+02  2.99277E+03 -1.94039E+03  1.53849E+03 -2.44922E+03 -7.58240E+01 -1.59302E+03 -1.43267E+03
 -1.28312E+03 -1.84474E+03  4.90750E+02 -2.17906E+03  1.10938E+03 -1.11602E+03  1.02298E+03 -1.20599E+01
  1.05946E+03  3.83640E+02 -6.04958E+01  5.67846E+02 -5.78232E+02  1.64282E+02 -6.13582E+01 -3.31840E+02
  8.09614E+02  2.08688E+02  5.67305E+02  4.87315E+02  1.26726E+02  6.54984E+02  1.11645E+01  5.75205E+02
 -1.04985E+03  7.89972E+02 -1.12245E+03  1.36822E+02 -1.22658E+03 -6.81328E+02  5.02543E+01 -1.61399E+03
  6.13245E+02 -1.02112E+03  8.50271E+02 -3.27216E+02  1.43528E+03 -4.27627E+02  7.78702E+02  9.86425E+02
  5.57507E+02  1.23116E+03 -4.68318E+02  1.10262E+03 -8.07412E+02  1.20645E+03 -4.65039E+02  3.76790E+02
 -1.58864E+02 -2.93346E+02 -5.11433E+02  3.80146E+02 -7.81295E+02 -5.25515E+01 -1.26055E+03 -1.86236E+02
 -1.15864E+03  6.36718E+01 -6.44557E+02 -1.14011E+03  7.79510E+02 -1.76372E+03  1.07289E+03 -3.80547E+02
  9.34740E+02  2.76109E+02 -2.26765E+02  4.43436E+02 -2.90419E+02  1.20752E+03 -6.88602E+02  8.93909E+02
