 $NMID ID='MM_0lb_SNR800_15hz_g60_26.RAW', FMTDAT='(8E13.5)'
 TRAMP=1., VOLUME=1. $END
  3.10024E+05  1.96678E+02  3.37713E+05  2.50384E+05  8.48654E+04  3.38112E+05 -1.32609E+05  2.51443E+05
 -1.90354E+05  8.34907E+04 -1.11920E+05 -3.25818E+04  6.75149E+02 -5.04153E+04  5.36537E+04 -2.83621E+02
  3.55820E+04  5.26538E+04 -1.68301E+04  7.53488E+04 -6.06781E+04  6.34738E+04 -8.43657E+04  3.21910E+04
 -8.13926E+04 -1.16483E+04 -5.74371E+04 -5.14571E+04 -1.53762E+04 -6.97018E+04  2.77575E+04 -4.58918E+04
  4.04317E+04  3.75071E+03  1.61147E+04  4.83182E+04 -3.44176E+04  4.71859E+04 -6.70996E+04 -5.84110E+02
 -5.35811E+04 -5.71165E+04 -6.73064E+03 -7.73527E+04  3.42885E+04 -5.54216E+04  4.83397E+04 -1.76680E+04
  4.41905E+04  1.16028E+04  3.21900E+04  2.58672E+04  1.58602E+04  2.98426E+04 -5.21881E+03  2.75305E+04
 -2.21476E+04  1.19347E+04 -1.83157E+04 -4.89253E+03  5.81427E+03 -7.35364E+03  2.25640E+04  1.25286E+04
  7.18656E+03  3.58147E+04 -3.24850E+04  3.64196E+04 -6.42303E+04  2.43571E+03 -5.74254E+04 -4.34045E+04
 -1.24472E+04 -6.36268E+04  4.01814E+04 -4.60089E+04  5.88239E+04 -2.30322E+03  3.45424E+04  3.27060E+04
 -5.82482E+03  3.67135E+04 -3.01967E+04  1.67060E+04 -3.09928E+04 -4.31839E+03 -1.72635E+04 -1.08806E+04
 -8.71931E+03 -1.35957E+04 -7.82182E+02 -1.84485E+04  7.80267E+03 -2.28015E+04  1.55422E+04 -1.30532E+04
  1.12472E+04  5.63614E+03 -8.45970E+03  1.30916E+04 -2.16887E+04 -4.83334E+03 -8.46228E+03 -3.45215E+04
  2.31306E+04 -4.43345E+04  4.90292E+04 -1.98462E+04  4.60324E+04  1.93739E+04  1.61126E+04  4.46953E+04
 -1.57911E+04  3.39361E+04 -2.60884E+04  2.07224E+03 -1.02561E+04 -2.81019E+04  2.11377E+04 -3.42767E+04
  4.16286E+04 -9.32244E+03  3.62988E+04  2.40432E+04  1.86403E+04  4.70799E+04 -8.44023E+03  5.10314E+04
 -3.21253E+04  3.42655E+04 -4.27845E+04  9.75354E+03 -4.34822E+04 -1.66273E+04 -2.36675E+04 -3.89682E+04
  7.39694E+03 -3.87263E+04  3.19011E+04 -1.50039E+04  2.97345E+04  1.10802E+04  4.71788E+03  1.96224E+04
 -1.34966E+04  8.61970E+03 -1.02024E+04 -7.54396E+03  5.98246E+03 -1.06263E+04  1.81952E+04  5.58103E+03
  1.36017E+04  2.19427E+04 -5.84938E+03  2.50763E+04 -2.26331E+04  1.21684E+04 -2.83393E+04 -4.41519E+03
 -2.15730E+04 -1.76582E+04 -8.86834E+03 -2.13163E+04  4.20778E+03 -2.02981E+04  1.62735E+04 -1.87122E+04
  2.71069E+04 -1.28547E+04  3.31714E+04  3.06790E+03  2.43460E+04  2.05618E+04  4.26251E+03  3.70087E+04
 -1.78639E+04  3.08733E+04 -2.85752E+04  1.04889E+04 -2.12050E+04 -9.98544E+03 -4.43925E+03 -1.35441E+04
  1.76098E+03 -2.73273E+03 -5.35757E+03  6.55480E+03 -1.64222E+04  5.12821E+03 -1.70508E+04 -7.24702E+03
 -1.04216E+04 -1.92285E+04  5.30849E+03 -2.37007E+04  1.56716E+04 -1.67639E+04  1.86150E+04 -1.66718E+03
  1.16345E+04  1.33490E+04 -1.13720E+03  1.93016E+04 -1.34815E+04  1.10947E+04 -1.96812E+04 -4.00982E+03
 -1.42170E+04 -1.75573E+04 -1.94494E+03 -2.34271E+04  1.06187E+04 -1.90733E+04  1.94667E+04 -9.55313E+03
  1.83188E+04  2.56269E+02  1.28494E+04  4.75237E+03  6.97224E+03  9.50964E+02  9.88946E+03 -1.54919E+03
  1.76420E+04  2.74911E+03  2.00525E+04  1.52462E+04  1.29693E+04  3.07003E+04 -2.95761E+03  3.47127E+04
 -2.05475E+04  2.82696E+04 -3.26833E+04  1.43951E+04 -3.45261E+04 -2.58586E+03 -2.84679E+04 -1.96581E+04
 -1.18695E+04 -2.80568E+04  9.49339E+03 -2.55310E+04  2.17421E+04 -1.28732E+04  1.96709E+04  5.83020E+03
  7.42132E+03  1.45755E+04 -9.35119E+03  1.31301E+04 -1.65880E+04  2.40581E+03 -1.26776E+04 -1.03905E+04
  2.24767E+01 -1.52567E+04  8.15174E+03 -1.17100E+04  1.04653E+04 -1.63275E+03  2.61904E+03  6.55823E+03
 -6.77767E+03  2.62100E+03 -6.09887E+03 -5.26390E+03 -2.62217E+02 -1.35289E+04  9.80521E+03 -1.45619E+04
  1.71277E+04 -7.70461E+03  1.84160E+04  3.22375E+03  1.57638E+04  1.35844E+04  7.34734E+03  2.05912E+04
 -3.19328E+03  2.21835E+04 -1.41252E+04  1.39274E+04 -1.66286E+04  3.25105E+03 -1.13457E+04 -3.36524E+03
 -5.39447E+03 -4.90177E+03 -7.16269E+02  1.38526E+03 -2.68602E+03  2.62836E+03 -5.34198E+03  4.42747E+03
 -1.09892E+04 -4.10635E+02 -1.13226E+04 -9.41660E+03 -4.64785E+03 -1.46889E+04  4.64202E+03 -1.11409E+04
  9.82996E+03 -5.04965E+03  6.88706E+03  2.86994E+03  2.03083E+02  4.09642E+03 -5.68659E+03 -4.59280E+01
 -5.16025E+03 -7.16785E+03 -6.88825E+02 -1.06918E+04  6.11130E+03 -1.14043E+04  1.38073E+04 -6.11128E+03
  1.64325E+04  1.53332E+03  1.23298E+04  9.56787E+03  2.63145E+03  1.27880E+04 -7.04206E+03  1.10914E+04
 -9.47475E+03  3.18360E+03 -4.71275E+03 -1.69155E+03  1.54753E+03 -2.94765E+03  6.11446E+03 -9.19364E+02
  5.29251E+03  4.88756E+03  1.19872E+03  8.84914E+03 -6.25297E+03  8.63113E+03 -1.08381E+04  2.28474E+03
 -7.20570E+03 -5.54188E+03  1.58088E+02 -9.36577E+03  5.74431E+03 -4.75463E+03  5.89522E+03  1.86713E+03
  8.53670E+02  6.17969E+03 -5.90593E+03  7.47670E+03 -8.10340E+03  3.58301E+03 -8.36169E+03 -2.52553E+03
 -4.68602E+03 -9.88641E+03  2.25329E+03 -1.13779E+04  9.78545E+03 -6.87389E+03  1.04628E+04  1.73592E+03
  6.39351E+03  8.35945E+03 -4.00677E+02  1.07320E+04 -7.24157E+03  6.31965E+03 -8.07244E+03 -9.01401E+02
 -7.70424E+03 -6.89326E+03 -1.81489E+03 -7.63772E+03  3.97284E+03 -6.55666E+03  4.59764E+03 -3.08935E+03
  3.76733E+03  7.29656E+02 -1.87686E+02  1.51534E+03  2.68323E+02 -1.16521E+03  1.03232E+03 -4.26958E+03
  6.60210E+03 -2.28836E+03  8.96080E+03  1.03406E+03  9.22310E+03  5.62717E+03  7.27562E+03  1.21803E+04
 -2.34488E+03  1.39017E+04 -1.21359E+04  1.06894E+04 -1.56455E+04  2.05861E+03 -1.27234E+04 -5.09472E+03
 -6.25615E+03 -1.02494E+04 -4.33734E+02 -8.24199E+03  3.39366E+03 -4.13560E+03  2.90870E+03 -3.22654E+03
  2.02891E+03 -2.14558E+03  2.84531E+03 -2.74141E+03  4.33895E+03 -2.32610E+03  5.11346E+03 -2.22117E+02
  6.72335E+03  1.66036E+03  2.74533E+03  5.41734E+03 -1.83437E+03  6.06007E+03 -6.60904E+03  4.58524E+03
 -8.22282E+03 -9.66593E+02 -4.42702E+03 -5.55913E+03 -7.74122E+01 -8.62932E+03  5.27943E+03 -8.44591E+03
  8.81039E+03 -4.63803E+03  1.09772E+04  1.09539E+03  7.68667E+03  7.57688E+03  1.30128E+03  9.96480E+03
 -3.69098E+03  8.55879E+03 -5.40726E+03  2.77478E+03 -3.49201E+03 -1.37958E+03 -1.27791E+03 -8.50354E+02
 -5.74683E+02  5.51220E+02 -1.25196E+03  2.43454E+03 -3.65717E+03  1.15088E+03 -6.02400E+03 -1.00589E+03
 -3.26895E+03 -6.00416E+03  5.67287E+02 -8.11397E+03  5.12766E+03 -7.30547E+03  6.86738E+03 -1.79729E+03
  7.31554E+03  3.60597E+03  3.51888E+03  6.34309E+03 -1.55257E+03  7.74402E+03 -4.90753E+03  4.68357E+03
 -6.92447E+03  4.44388E+02 -5.63722E+03 -4.23360E+03 -5.23865E+02 -6.33677E+03  3.07184E+03 -4.61917E+03
  4.62495E+03 -1.79596E+03  3.01255E+03  8.30788E+02  9.70333E+02  2.50178E+03  8.40237E+02  1.02501E+03
  2.23844E+03  4.22104E+02  1.78166E+03  1.19733E+03  2.09325E+03  3.16975E+03  2.02649E+03  3.77207E+03
 -1.93333E+03  5.39412E+03 -4.74176E+03  6.29370E+03 -6.90984E+03  1.83179E+03 -7.32138E+03 -1.90478E+03
 -3.53495E+03 -6.99608E+03  1.18987E+03 -7.89929E+03  3.72379E+03 -4.94277E+03  5.50998E+03 -1.31138E+03
  4.25015E+03  2.90857E+03  1.04468E+03  4.07628E+03 -1.83781E+03  2.61587E+03 -2.59922E+03 -1.21064E+02
 -1.26739E+03 -2.97786E+03  2.04917E+03 -2.96144E+03  2.41950E+03 -1.66708E+03  2.37412E+03  3.60340E+02
  1.37184E+03  1.05779E+03  6.07226E+02  6.98247E+02 -9.18326E+02  1.42514E+03  1.56765E+03  4.54300E+01
  5.16810E+02 -3.00636E+02  2.84667E+03  9.10220E+02  1.37293E+03  3.94811E+03 -5.63559E+02  5.28754E+03
 -3.19503E+03  2.69377E+03 -3.99689E+03  6.53083E+02 -3.63544E+03 -1.40650E+03 -1.16209E+03 -2.51577E+03
  3.92196E+02 -2.19896E+03  1.78997E+03 -1.35355E+03  9.75068E+02  1.49354E+03 -1.14547E+03  2.28075E+03
 -2.92079E+03  1.36920E+03 -2.84539E+03 -1.77306E+03 -1.66482E+03 -3.89124E+03  3.86054E+02 -2.98028E+03
  1.51655E+03 -1.68993E+03  2.24697E+03  1.61302E+02  2.00396E+03  3.70811E+02  4.57249E+02  2.05485E+03
 -9.11456E+02  3.70518E+02 -1.70818E+03 -1.08311E+03  7.84776E+02 -2.13195E+03  3.00881E+03 -2.21738E+03
  3.41050E+03  3.43917E+02  4.17762E+03  2.03886E+03  1.77086E+03  3.58151E+03 -1.19498E+03  3.68808E+03
 -3.05554E+03  1.29141E+03 -3.15990E+03 -7.10667E+02 -1.51755E+03 -2.68140E+03  3.26124E+02 -1.76512E+03
  2.77322E+03 -9.86139E+02  1.94816E+03  1.27524E+03  6.56990E+02  2.17310E+03 -5.77663E+01  2.01482E+03
 -8.87943E+02  1.18282E+03 -8.95472E+02  2.94297E+02 -2.74001E+02  4.54825E+02 -1.03609E+03  8.09719E+02
 -1.21077E+03  1.51883E+03 -2.60069E+03  1.58224E+03 -3.38149E+03  2.28321E+02 -4.33391E+03 -2.46709E+03
 -2.15921E+03 -4.79627E+03  8.04017E+02 -5.49843E+03  2.98048E+03 -4.54466E+03  5.34997E+03 -1.67653E+03
  4.61576E+03  4.21336E+02  2.70687E+03  3.20720E+03 -4.39998E+02  3.52655E+03 -1.26927E+03  2.77667E+03
 -2.02959E+03  1.11777E+03 -1.03768E+03 -5.38367E+02 -7.24553E+02  8.86529E+01 -7.32121E+02 -2.21141E+02
 -1.07970E+03 -1.62785E+02 -1.26766E+03  1.28001E+01  5.92517E+01 -8.69818E+02 -1.15919E+02 -1.18124E+03
  2.12071E+03 -1.49645E+03  1.78989E+03  5.77036E+01  2.16064E+03  2.25506E+03  1.01816E+02  3.12601E+03
 -2.09691E+03  4.49670E+03 -3.57176E+03  2.32289E+03 -3.88715E+03 -1.50985E+02 -2.86368E+03 -2.58658E+03
 -1.65057E+03 -3.14825E+03  6.16342E+02 -2.89740E+03  1.77676E+03 -1.30500E+03  1.77703E+03  3.17516E+02
  1.16062E+03  9.72742E+02 -6.20507E+01  9.36947E+02 -7.08459E+02 -2.17147E+02  2.26460E+02 -7.46067E+02
  1.12860E+03 -4.03168E+02  9.03802E+02  9.56934E+02  6.20101E+02  1.06947E+03  3.26340E+02  1.00230E+03
 -1.27871E+03  1.51327E+03 -1.62130E+03  1.68373E+02 -1.94238E+03 -1.26232E+03 -3.52557E+02 -2.35693E+03
  1.16206E+03 -1.81014E+03  1.79186E+03 -3.49002E+02  2.17517E+03 -3.73292E+01  1.26530E+03  1.81107E+03
  4.60287E+02  1.76792E+03 -5.74527E+02  1.35780E+03 -1.38764E+03  1.34926E+03 -1.25017E+03  4.47696E+02
 -3.36044E+02 -3.00673E+02 -8.49199E+02  2.84190E+02 -1.09657E+03  4.04212E+02 -1.62662E+03 -2.12047E+02
 -1.79406E+03 -6.53166E+02 -6.90689E+02 -1.97790E+03  1.01610E+03 -2.68027E+03  1.67927E+03 -6.34124E+02
  1.71577E+03 -7.20114E+01  4.77082E+02  8.60456E+02 -1.87610E+02  2.01463E+03 -1.22100E+03  1.65409E+03
