 $NMID ID='MM_0lb_SNR800_12hz_g60_67.RAW', FMTDAT='(8E13.5)'
 TRAMP=1., VOLUME=1. $END
  3.09733E+05  4.14197E+02  3.37808E+05  2.50757E+05  8.48652E+04  3.38559E+05 -1.32767E+05  2.51564E+05
 -1.90903E+05  8.36442E+04 -1.12172E+05 -3.23364E+04  4.87647E+02 -5.06456E+04  5.39618E+04 -2.33983E+02
  3.55004E+04  5.29263E+04 -1.69281E+04  7.62032E+04 -6.10174E+04  6.44869E+04 -8.53530E+04  3.23119E+04
 -8.19331E+04 -1.16761E+04 -5.81694E+04 -5.24218E+04 -1.51554E+04 -7.06886E+04  2.78879E+04 -4.65318E+04
  4.10973E+04  3.57062E+03  1.63939E+04  4.85353E+04 -3.49608E+04  4.79086E+04 -6.80742E+04  1.08616E+02
 -5.43144E+04 -5.76413E+04 -7.36782E+03 -7.80134E+04  3.44815E+04 -5.60462E+04  4.92624E+04 -1.81768E+04
  4.45021E+04  1.16727E+04  3.26583E+04  2.61515E+04  1.57691E+04  3.03939E+04 -5.66318E+03  2.74148E+04
 -2.23126E+04  1.23456E+04 -1.83066E+04 -5.47613E+03  6.79132E+03 -7.38889E+03  2.28990E+04  1.29668E+04
  7.40286E+03  3.71525E+04 -3.33105E+04  3.65101E+04 -6.50526E+04  2.18873E+03 -5.81541E+04 -4.40965E+04
 -1.27487E+04 -6.51561E+04  4.10795E+04 -4.68601E+04  6.04332E+04 -2.58258E+03  3.62354E+04  3.35627E+04
 -5.19070E+03  3.87544E+04 -3.12790E+04  1.78089E+04 -3.21356E+04 -3.92193E+03 -1.86244E+04 -1.14794E+04
 -9.11897E+03 -1.46417E+04 -4.48339E+02 -1.90894E+04  8.18807E+03 -2.35613E+04  1.60347E+04 -1.27903E+04
  1.08271E+04  6.07478E+03 -9.78084E+03  1.28414E+04 -2.28302E+04 -5.74354E+03 -8.30271E+03 -3.58474E+04
  2.41696E+04 -4.57970E+04  5.10126E+04 -2.03385E+04  4.72077E+04  2.03985E+04  1.67917E+04  4.62656E+04
 -1.63694E+04  3.53294E+04 -2.71100E+04  2.16786E+03 -1.06458E+04 -2.87612E+04  2.09871E+04 -3.58668E+04
  4.34134E+04 -1.04246E+04  3.89599E+04  2.46852E+04  2.04188E+04  4.96435E+04 -8.28345E+03  5.43902E+04
 -3.39008E+04  3.63166E+04 -4.58080E+04  1.07463E+04 -4.58327E+04 -1.79050E+04 -2.52993E+04 -4.06979E+04
  7.52338E+03 -4.08463E+04  3.29816E+04 -1.64579E+04  3.13606E+04  1.09827E+04  5.04331E+03  2.01408E+04
 -1.38452E+04  9.68506E+03 -1.12691E+04 -7.49632E+03  5.72651E+03 -1.11051E+04  1.87759E+04  5.37413E+03
  1.40741E+04  2.28338E+04 -5.52648E+03  2.61649E+04 -2.30498E+04  1.31383E+04 -3.02361E+04 -3.49346E+03
 -2.40995E+04 -1.80871E+04 -1.06927E+04 -2.41129E+04  3.94026E+03 -2.42837E+04  1.83478E+04 -2.15121E+04
  3.02645E+04 -1.38713E+04  3.64238E+04  4.28952E+03  2.60255E+04  2.26939E+04  4.76598E+03  3.96187E+04
 -1.94216E+04  3.20775E+04 -2.96656E+04  1.16495E+04 -2.16717E+04 -1.03679E+04 -4.47420E+03 -1.32353E+04
  1.10764E+03 -1.82561E+03 -6.82866E+03  7.98635E+03 -1.87960E+04  5.07310E+03 -1.89030E+04 -8.66352E+03
 -1.13951E+04 -2.17014E+04  5.73142E+03 -2.62130E+04  1.75117E+04 -1.84552E+04  2.10157E+04 -1.75534E+03
  1.33671E+04  1.53268E+04 -1.66064E+03  2.18340E+04 -1.50354E+04  1.22254E+04 -2.16833E+04 -4.72383E+03
 -1.59718E+04 -1.94717E+04 -1.94744E+03 -2.62266E+04  1.16630E+04 -2.15524E+04  2.15640E+04 -1.10699E+04
  2.04788E+04 -2.36010E+02  1.45447E+04  5.05223E+03  7.73508E+03  1.18016E+03  1.14719E+04 -2.35649E+03
  2.02247E+04  2.86911E+03  2.34747E+04  1.73238E+04  1.52011E+04  3.51547E+04 -2.79366E+03  3.99635E+04
 -2.31205E+04  3.33208E+04 -3.78012E+04  1.70603E+04 -4.07294E+04 -3.18786E+03 -3.28204E+04 -2.33817E+04
 -1.36421E+04 -3.35819E+04  1.17089E+04 -2.93580E+04  2.52985E+04 -1.44066E+04  2.24903E+04  6.81489E+03
  7.49382E+03  1.72058E+04 -1.05339E+04  1.41286E+04 -1.85974E+04  2.58604E+03 -1.39176E+04 -1.17350E+04
 -4.70316E+02 -1.74039E+04  9.72232E+03 -1.33021E+04  1.21341E+04 -1.02485E+03  2.94008E+03  7.89741E+03
 -7.98561E+03  3.69110E+03 -7.44799E+03 -6.39659E+03 -1.45038E+03 -1.65419E+04  1.10460E+04 -1.74374E+04
  2.01816E+04 -9.91988E+03  2.30785E+04  3.12786E+03  1.98229E+04  1.65685E+04  9.18505E+03  2.52097E+04
 -4.46362E+03  2.78230E+04 -1.78696E+04  1.69777E+04 -1.99835E+04  3.48004E+03 -1.37245E+04 -4.73205E+03
 -6.03368E+03 -6.38882E+03 -2.99855E+02  5.38844E+02 -2.83865E+03  3.26072E+03 -6.27924E+03  5.00749E+03
 -1.32220E+04 -7.28110E+02 -1.28698E+04 -1.10107E+04 -5.32907E+03 -1.77604E+04  5.58920E+03 -1.37469E+04
  1.11406E+04 -5.65250E+03  7.91021E+03  3.89933E+03  4.03733E+01  5.63189E+03 -6.39790E+03  4.26263E+01
 -6.62696E+03 -8.81623E+03 -8.18802E+02 -1.33131E+04  7.71931E+03 -1.40822E+04  1.75741E+04 -8.14289E+03
  2.04871E+04  2.13551E+03  1.45161E+04  1.21560E+04  2.95349E+03  1.65488E+04 -8.71665E+03  1.33852E+04
 -1.11347E+04  3.86151E+03 -5.90682E+03 -3.03934E+03  2.36947E+03 -3.94227E+03  7.28626E+03 -8.86314E+02
  6.47474E+03  6.06840E+03  1.35395E+03  1.10660E+04 -8.00670E+03  1.03587E+04 -1.32815E+04  2.58976E+03
 -9.01495E+03 -6.69425E+03  1.75569E+02 -1.14059E+04  7.53083E+03 -5.97046E+03  7.65863E+03  2.85794E+03
  1.60729E+03  8.10858E+03 -7.06650E+03  9.82232E+03 -1.09302E+04  4.37960E+03 -1.15075E+04 -4.02703E+03
 -6.47691E+03 -1.28142E+04  3.18428E+03 -1.47658E+04  1.26614E+04 -9.18420E+03  1.39465E+04  2.23528E+03
  8.58554E+03  1.08930E+04 -1.19266E+03  1.30943E+04 -9.51964E+03  7.45705E+03 -1.05176E+04 -1.23720E+03
 -9.10152E+03 -9.26844E+03 -1.75773E+03 -9.88439E+03  5.46003E+03 -7.88586E+03  6.22939E+03 -3.44110E+03
  4.35993E+03  1.77057E+03 -7.11940E+02  1.86848E+03 -5.84049E+02 -2.55989E+03  1.76432E+03 -5.94021E+03
  9.31669E+03 -3.93954E+03  1.30115E+04  1.24569E+03  1.27412E+04  8.32076E+03  8.29306E+03  1.68761E+04
 -4.11784E+03  1.93207E+04 -1.62081E+04  1.40860E+04 -2.11146E+04  2.45283E+03 -1.70729E+04 -6.61768E+03
 -8.75883E+03 -1.36161E+04 -4.43722E+02 -1.20777E+04  4.39855E+03 -6.20995E+03  4.19914E+03 -4.35250E+03
  3.24413E+03 -2.58709E+03  3.23548E+03 -3.60949E+03  5.07750E+03 -2.67013E+03  6.44712E+03 -1.11965E+03
  8.75298E+03  1.98353E+03  4.29580E+03  7.54960E+03 -2.29290E+03  8.82379E+03 -9.07565E+03  6.44270E+03
 -1.14517E+04 -1.54369E+03 -7.36795E+03 -7.94224E+03 -5.79576E+02 -1.21226E+04  6.78957E+03 -1.25097E+04
  1.30602E+04 -7.15003E+03  1.60596E+04  1.90836E+03  1.09414E+04  1.07529E+04  2.01700E+03  1.38324E+04
 -5.74810E+03  1.18256E+04 -7.94545E+03  3.94059E+03 -5.45403E+03 -1.51625E+03 -2.25110E+03 -1.53612E+03
 -1.18042E+03  4.20409E+02 -2.23717E+03  2.46323E+03 -4.87785E+03  2.11021E+03 -8.12998E+03 -8.48210E+02
 -5.55795E+03 -7.73553E+03  4.69090E+02 -1.13218E+04  6.90764E+03 -1.01353E+04  1.06138E+04 -2.97361E+03
  1.09335E+04  5.47917E+03  5.08368E+03  9.95763E+03 -2.28296E+03  1.14782E+04 -7.92900E+03  6.93686E+03
 -1.03796E+04  4.50923E+02 -7.96050E+03 -6.52185E+03 -8.18116E+02 -9.13556E+03  4.87383E+03 -7.08014E+03
  7.06727E+03 -2.38907E+03  4.59670E+03  2.05073E+03  1.64568E+03  3.25665E+03  9.80981E+02  1.86997E+03
  2.66387E+03  8.97879E+02  2.86260E+03  1.91108E+03  3.58269E+03  3.78451E+03  3.05484E+03  5.63168E+03
 -2.88963E+03  8.48031E+03 -7.54642E+03  9.09213E+03 -1.09922E+04  2.58852E+03 -1.15955E+04 -4.34263E+03
 -5.41742E+03 -1.09804E+04  1.68015E+03 -1.22607E+04  6.62563E+03 -7.51337E+03  8.78457E+03 -1.84377E+03
  7.25404E+03  4.02189E+03  1.58992E+03  6.46573E+03 -2.75220E+03  3.65191E+03 -4.21220E+03 -5.62210E+02
 -2.11103E+03 -4.20110E+03  2.65502E+03 -4.59631E+03  4.09201E+03 -2.20675E+03  4.49574E+03  9.00816E+02
  2.45501E+03  1.99099E+03  1.48898E+03  1.41970E+03 -4.76753E+02  1.63866E+03  1.73724E+03 -4.04049E+02
  1.65667E+03 -4.59961E+02  4.45114E+03  1.75209E+03  2.26923E+03  5.78485E+03 -8.22633E+02  7.63680E+03
 -4.86872E+03  4.90624E+03 -6.91970E+03  1.13471E+03 -5.73749E+03 -2.38202E+03 -2.55245E+03 -4.12624E+03
  5.63326E+02 -3.93007E+03  2.74743E+03 -2.00687E+03  2.01043E+03  2.40265E+03 -1.45784E+03  3.57584E+03
 -4.20597E+03  2.08745E+03 -4.85056E+03 -2.99947E+03 -2.66605E+03 -5.71793E+03  8.53360E+02 -5.84577E+03
  2.91319E+03 -3.16041E+03  3.94764E+03 -5.91089E+02  3.47005E+03  1.07578E+03  4.22381E+02  3.26963E+03
 -2.01222E+03  1.25395E+03 -2.35911E+03 -1.70873E+03  1.01578E+03 -3.94646E+03  5.16337E+03 -3.62962E+03
  6.20074E+03  5.11442E+02  6.59761E+03  4.11759E+03  2.12705E+03  6.58055E+03 -2.13494E+03  6.42888E+03
 -5.49961E+03  2.41248E+03 -5.51871E+03 -1.02686E+03 -3.26407E+03 -4.37578E+03  8.34484E+02 -3.91345E+03
  4.18750E+03 -1.73745E+03  3.37529E+03  1.76275E+03  1.42373E+03  3.66100E+03 -3.09971E+02  3.50297E+03
 -1.99704E+03  1.97072E+03 -1.36992E+03  5.04975E+02 -7.54280E+02  9.50958E+02 -1.01177E+03  1.40137E+03
 -2.21993E+03  2.43795E+03 -4.38826E+03  1.93640E+03 -5.95616E+03 -3.40568E+01 -7.49453E+03 -4.15599E+03
 -3.69902E+03 -8.68262E+03  1.39540E+03 -1.01184E+04  5.90584E+03 -7.87252E+03  9.59470E+03 -3.15678E+03
  8.44004E+03  1.50663E+03  4.86339E+03  6.00857E+03  1.93572E+02  6.39517E+03 -2.77283E+03  4.96609E+03
 -3.77776E+03  1.88677E+03 -2.28402E+03 -7.80184E+02 -9.05506E+02 -4.66310E+02 -1.02097E+03 -3.53206E+02
 -1.75483E+03  3.22137E+01 -1.59461E+03 -1.22577E+02 -4.83440E+02 -1.73640E+03 -8.39745E+01 -2.78533E+03
  3.14976E+03 -2.08126E+03  3.72440E+03  4.35592E+01  4.31097E+03  3.61394E+03  1.43451E+03  6.38545E+03
 -2.92582E+03  7.27163E+03 -6.74850E+03  4.51570E+03 -7.56005E+03 -6.75139E+02 -5.52957E+03 -4.82469E+03
 -2.62256E+03 -6.59228E+03  1.57721E+03 -5.84023E+03  3.93339E+03 -3.16430E+03  4.04846E+03  8.74945E+01
  2.27614E+03  2.03111E+03  3.22160E+02  1.75492E+03 -1.12700E+03  5.87025E+01 -1.97953E+02 -1.22016E+03
  1.78863E+03 -3.39801E+02  2.05855E+03  4.57721E+02  1.64951E+03  2.53536E+03  3.43497E+02  3.20463E+03
 -2.78204E+03  3.09877E+03 -3.91095E+03  4.54447E+02 -3.52715E+03 -2.51005E+03 -8.52660E+02 -5.33528E+03
  2.76422E+03 -3.98342E+03  4.24973E+03 -1.03526E+03  4.91476E+03  6.50154E+02  2.70566E+03  4.01054E+03
  5.33212E+02  3.85443E+03 -1.32742E+03  3.32162E+03 -2.56795E+03  1.73203E+03 -2.33860E+03  5.00625E+02
 -1.24699E+03 -4.96455E+01 -1.39421E+03  4.39063E+02 -1.98671E+03  7.01708E+02 -3.01522E+03 -6.97054E+02
 -3.32967E+03 -1.65764E+03 -4.81989E+02 -3.83439E+03  1.92293E+03 -4.52213E+03  3.79571E+03 -1.94780E+03
  3.51820E+03  2.86365E+02  1.73542E+03  2.45116E+03 -7.92058E+01  3.86868E+03 -2.44365E+03  2.32220E+03
