 $NMID ID='MM_0lb_SNR800_10hz_g60_90.RAW', FMTDAT='(8E13.5)'
 TRAMP=1., VOLUME=1. $END
  3.09960E+05  2.63237E+02  3.37540E+05  2.50655E+05  8.49557E+04  3.38516E+05 -1.32529E+05  2.52188E+05
 -1.90831E+05  8.36768E+04 -1.12626E+05 -3.25805E+04 -6.95181E+01 -5.07740E+04  5.39605E+04 -8.26958E+02
  3.56852E+04  5.26928E+04 -1.65031E+04  7.60198E+04 -6.13561E+04  6.44234E+04 -8.53371E+04  3.26591E+04
 -8.27450E+04 -1.12937E+04 -5.84668E+04 -5.25415E+04 -1.56327E+04 -7.10079E+04  2.81610E+04 -4.63932E+04
  4.15119E+04  3.68099E+03  1.68037E+04  4.83264E+04 -3.49404E+04  4.84713E+04 -6.83149E+04 -1.06405E+02
 -5.49639E+04 -5.80646E+04 -7.25114E+03 -7.92908E+04  3.50481E+04 -5.72959E+04  4.98920E+04 -1.87432E+04
  4.51913E+04  1.18674E+04  3.27115E+04  2.67390E+04  1.57930E+04  3.07873E+04 -5.99333E+03  2.77363E+04
 -2.23733E+04  1.17757E+04 -1.79190E+04 -5.92733E+03  7.15155E+03 -7.55422E+03  2.35301E+04  1.38200E+04
  7.32723E+03  3.77471E+04 -3.41445E+04  3.75392E+04 -6.58632E+04  2.14738E+03 -5.93027E+04 -4.47386E+04
 -1.23251E+04 -6.58219E+04  4.18418E+04 -4.79143E+04  6.12792E+04 -2.25634E+03  3.65425E+04  3.46642E+04
 -5.26419E+03  3.96765E+04 -3.15579E+04  1.91340E+04 -3.34723E+04 -3.49569E+03 -1.96724E+04 -1.19574E+04
 -9.83129E+03 -1.52808E+04 -2.98892E+02 -1.96811E+04  8.55958E+03 -2.31547E+04  1.59147E+04 -1.22084E+04
  1.05469E+04  6.36334E+03 -1.05928E+04  1.30253E+04 -2.36779E+04 -6.65020E+03 -8.61013E+03 -3.78268E+04
  2.53715E+04 -4.69438E+04  5.21569E+04 -2.10063E+04  4.88717E+04  2.07143E+04  1.74767E+04  4.70548E+04
 -1.67262E+04  3.62311E+04 -2.79258E+04  2.51897E+03 -1.14304E+04 -2.97770E+04  2.18600E+04 -3.76692E+04
  4.47018E+04 -1.16370E+04  4.03445E+04  2.50059E+04  2.14938E+04  5.13686E+04 -8.47306E+03  5.65556E+04
 -3.53215E+04  3.87398E+04 -4.78855E+04  1.12485E+04 -4.78540E+04 -1.88374E+04 -2.67222E+04 -4.22662E+04
  7.96592E+03 -4.21467E+04  3.41944E+04 -1.73451E+04  3.19438E+04  1.11636E+04  5.25661E+03  2.09534E+04
 -1.39629E+04  9.57173E+03 -1.13626E+04 -7.43448E+03  5.63168E+03 -1.15578E+04  1.88266E+04  5.78104E+03
  1.46130E+04  2.27264E+04 -5.13102E+03  2.75289E+04 -2.34917E+04  1.43060E+04 -3.15652E+04 -2.66716E+03
 -2.55092E+04 -1.84036E+04 -1.17485E+04 -2.51637E+04  4.37102E+03 -2.57724E+04  1.99599E+04 -2.32849E+04
  3.23932E+04 -1.39413E+04  3.86478E+04  5.24275E+03  2.71465E+04  2.46906E+04  4.61834E+03  4.12505E+04
 -1.96154E+04  3.38608E+04 -3.08479E+04  1.18385E+04 -2.20650E+04 -1.01197E+04 -5.00573E+03 -1.30873E+04
  7.57431E+02 -1.33007E+03 -7.61227E+03  8.28244E+03 -2.06630E+04  5.16708E+03 -2.01747E+04 -9.82902E+03
 -1.18636E+04 -2.36795E+04  6.53633E+03 -2.78353E+04  1.84657E+04 -1.98505E+04  2.27145E+04 -1.50875E+03
  1.40470E+04  1.60293E+04 -1.29922E+03  2.35275E+04 -1.68883E+04  1.36276E+04 -2.35506E+04 -4.99319E+03
 -1.72879E+04 -2.09203E+04 -2.32067E+03 -2.84672E+04  1.23058E+04 -2.34759E+04  2.29197E+04 -1.21116E+04
  2.17853E+04 -3.30427E+02  1.60969E+04  5.16072E+03  8.72413E+03  1.38788E+03  1.21475E+04 -2.15362E+03
  2.18750E+04  2.59142E+03  2.54648E+04  1.86474E+04  1.71560E+04  3.79992E+04 -2.44578E+03  4.44177E+04
 -2.52027E+04  3.70673E+04 -4.18047E+04  1.92598E+04 -4.48308E+04 -3.18565E+03 -3.60554E+04 -2.63209E+04
 -1.46003E+04 -3.73988E+04  1.32368E+04 -3.26485E+04  2.79724E+04 -1.49814E+04  2.40739E+04  8.26546E+03
  8.21212E+03  1.88658E+04 -1.15578E+04  1.63181E+04 -2.01515E+04  2.62712E+03 -1.53286E+04 -1.31148E+04
 -2.21426E+02 -1.93958E+04  1.04691E+04 -1.43992E+04  1.33288E+04 -9.38389E+02  2.92947E+03  8.82033E+03
 -8.82111E+03  4.41550E+03 -9.31630E+03 -6.68350E+03 -2.21383E+03 -1.82393E+04  1.20369E+04 -1.98545E+04
  2.27876E+04 -1.11387E+04  2.64200E+04  3.16336E+03  2.29488E+04  1.84738E+04  1.03884E+04  2.93409E+04
 -5.56775E+03  3.10608E+04 -2.04265E+04  1.91306E+04 -2.26841E+04  3.69943E+03 -1.56793E+04 -5.68020E+03
 -6.81418E+03 -7.48108E+03 -4.62798E+02  7.26927E+02 -2.72958E+03  3.13157E+03 -7.20202E+03  5.48236E+03
 -1.41476E+04 -1.06393E+03 -1.49026E+04 -1.18274E+04 -6.19287E+03 -1.91119E+04  6.10224E+03 -1.60253E+04
  1.27005E+04 -6.58502E+03  9.11973E+03  4.02403E+03 -4.99460E+02  6.03013E+03 -7.81342E+03  1.55712E+02
 -7.69417E+03 -9.99046E+03 -1.21103E+03 -1.53578E+04  9.11716E+03 -1.61895E+04  1.99380E+04 -8.33002E+03
  2.36463E+04  2.94781E+03  1.69230E+04  1.42595E+04  3.22676E+03  1.86944E+04 -9.21168E+03  1.54231E+04
 -1.27183E+04  4.60363E+03 -6.37971E+03 -3.35424E+03  2.17450E+03 -4.69540E+03  7.64641E+03 -9.61091E+02
  7.48849E+03  6.53321E+03  1.29049E+03  1.26993E+04 -9.33316E+03  1.21215E+04 -1.53454E+04  2.62895E+03
 -1.04493E+04 -8.56510E+03  1.38001E+02 -1.32851E+04  8.06669E+03 -7.17514E+03  9.70659E+03  2.94784E+03
  2.07190E+03  1.00166E+04 -7.94648E+03  1.14572E+04 -1.35926E+04  5.33322E+03 -1.41074E+04 -4.90579E+03
 -7.95234E+03 -1.53540E+04  4.14218E+03 -1.76981E+04  1.53802E+04 -1.07273E+04  1.65122E+04  3.09593E+03
  9.71689E+03  1.29752E+04 -1.70919E+03  1.56097E+04 -1.16268E+04  8.71360E+03 -1.26224E+04 -1.13431E+03
 -1.09596E+04 -1.07542E+04 -1.57249E+03 -1.16719E+04  5.83224E+03 -9.64104E+03  7.84538E+03 -3.56516E+03
  4.99477E+03  1.91965E+03 -7.73595E+02  1.74754E+03 -7.68026E+02 -3.40751E+03  2.56320E+03 -7.28809E+03
  1.12351E+04 -4.85361E+03  1.54962E+04  1.79431E+03  1.52918E+04  1.09615E+04  9.87769E+03  2.01922E+04
 -4.77388E+03  2.32667E+04 -1.96252E+04  1.70829E+04 -2.53619E+04  3.47071E+03 -2.03917E+04 -8.41010E+03
 -9.68265E+03 -1.65591E+04  3.66318E+01 -1.46490E+04  5.03232E+03 -8.32530E+03  5.38098E+03 -4.99627E+03
  3.61226E+03 -2.82419E+03  3.87114E+03 -4.17580E+03  5.75444E+03 -3.41977E+03  8.16048E+03 -1.21567E+03
  1.04974E+04  2.59591E+03  5.65029E+03  9.04802E+03 -1.48122E+03  1.03032E+04 -1.11778E+04  8.40114E+03
 -1.41719E+04 -1.78300E+03 -9.21016E+03 -1.04399E+04 -1.46835E+03 -1.54925E+04  8.59537E+03 -1.53090E+04
  1.62048E+04 -8.66898E+03  1.90780E+04  2.65800E+03  1.34261E+04  1.30787E+04  2.08582E+03  1.76464E+04
 -7.13797E+03  1.42551E+04 -1.00600E+04  4.74554E+03 -6.92940E+03 -1.63236E+03 -2.87279E+03 -2.34832E+03
 -1.47868E+03 -2.90669E+02 -2.20819E+03  2.83664E+03 -5.92095E+03  2.44050E+03 -1.01185E+04 -1.40213E+03
 -7.06758E+03 -9.80477E+03 -7.19098E+01 -1.43148E+04  8.73649E+03 -1.31925E+04  1.40731E+04 -4.17383E+03
  1.40171E+04  6.64693E+03  6.48773E+03  1.23124E+04 -2.87826E+03  1.36833E+04 -1.01731E+04  8.75235E+03
 -1.34246E+04  3.57636E+02 -1.08188E+04 -8.19791E+03 -1.07436E+03 -1.19899E+04  6.28195E+03 -8.77897E+03
  8.61498E+03 -3.16956E+03  5.99485E+03  2.28910E+03  2.16354E+03  4.33571E+03  1.32570E+03  2.01344E+03
  2.90924E+03  1.36899E+03  3.26959E+03  1.75845E+03  4.44028E+03  4.70310E+03  3.62237E+03  7.51343E+03
 -2.75142E+03  1.17308E+04 -9.64296E+03  1.09403E+04 -1.49079E+04  3.06550E+03 -1.48690E+04 -6.49606E+03
 -7.34596E+03 -1.44375E+04  1.87302E+03 -1.57793E+04  8.65966E+03 -1.00508E+04  1.17282E+04 -3.02091E+03
  9.00665E+03  5.25057E+03  2.35182E+03  8.42099E+03 -4.48020E+03  5.34316E+03 -5.82045E+03 -6.18806E+02
 -2.84745E+03 -6.26921E+03  3.23479E+03 -6.64194E+03  6.17032E+03 -2.77310E+03  5.74038E+03  1.40624E+03
  3.33143E+03  2.68954E+03  1.49301E+03  2.42152E+03 -5.52551E+02  2.36060E+03  2.26567E+03 -7.40505E+02
  2.37636E+03 -7.75400E+02  5.84233E+03  2.49897E+03  3.03244E+03  7.36158E+03 -1.14088E+03  1.00362E+04
 -6.96065E+03  6.50847E+03 -9.26857E+03  1.41504E+03 -7.92590E+03 -3.34803E+03 -2.72856E+03 -5.47202E+03
  1.25126E+03 -5.70779E+03  3.80998E+03 -2.76166E+03  2.93758E+03  2.83814E+03 -1.39258E+03  4.41975E+03
 -6.07905E+03  2.80587E+03 -6.60062E+03 -3.56172E+03 -3.99300E+03 -8.15235E+03  1.35088E+03 -7.90141E+03
  4.65701E+03 -5.00771E+03  5.86849E+03 -7.27530E+02  4.50042E+03  2.05878E+03  2.79175E+02  4.38621E+03
 -2.83678E+03  1.04620E+03 -3.72687E+03 -3.03310E+03  1.21348E+03 -6.05397E+03  6.64493E+03 -5.10319E+03
  8.84617E+03  3.20074E+02  8.79443E+03  5.88496E+03  2.77421E+03  9.07023E+03 -3.33910E+03  8.59105E+03
 -7.67959E+03  3.91274E+03 -7.99132E+03 -1.32809E+03 -4.26401E+03 -5.93717E+03  1.44195E+03 -5.60963E+03
  5.75404E+03 -3.22835E+03  5.07578E+03  2.75290E+03  2.10722E+03  4.99758E+03 -8.96353E+02  4.24172E+03
 -2.55472E+03  3.22309E+03 -2.09228E+03  1.14002E+03 -6.04238E+02  1.03582E+03 -1.40838E+03  1.66865E+03
 -2.47708E+03  3.71640E+03 -6.46490E+03  3.21330E+03 -9.10022E+03  1.73686E+02 -1.03890E+04 -6.35278E+03
 -5.41658E+03 -1.19957E+04  2.60491E+03 -1.40879E+04  8.66773E+03 -1.09928E+04  1.37240E+04 -4.28600E+03
  1.21854E+04  2.47157E+03  7.60553E+03  8.11822E+03  1.86382E+02  9.55925E+03 -3.90234E+03  6.96914E+03
 -5.65075E+03  2.72663E+03 -3.32406E+03 -1.52045E+03 -7.78405E+02 -6.59715E+02 -9.80974E+02 -1.14847E+02
 -1.77672E+03 -7.38395E+01 -1.90402E+03 -1.19740E+02 -6.82747E+02 -2.39948E+03  2.48164E+02 -3.89906E+03
  4.39075E+03 -3.27075E+03  5.54423E+03  2.32243E+02  6.91495E+03  5.55977E+03  1.70879E+03  9.21894E+03
 -4.53521E+03  1.10239E+04 -1.00860E+04  6.20699E+03 -1.15256E+04 -1.25696E+03 -8.47638E+03 -7.24235E+03
 -3.55543E+03 -9.20543E+03  2.15280E+03 -8.98056E+03  6.46358E+03 -4.51162E+03  6.44823E+03  3.15736E+02
  3.40180E+03  3.12080E+03 -5.62219E+02  2.60693E+03 -1.55387E+03 -1.78465E+02 -3.75883E+01 -2.12045E+03
  2.69200E+03 -1.17665E+03  3.46558E+03  1.24478E+03  2.62040E+03  3.91586E+03  2.66303E+02  4.45263E+03
 -3.97300E+03  4.31751E+03 -6.17128E+03  6.30017E+02 -5.56242E+03 -4.65668E+03 -8.19917E+02 -7.87002E+03
  4.53027E+03 -6.39987E+03  7.48320E+03 -1.83988E+03  7.20718E+03  1.64896E+03  4.30499E+03  6.08218E+03
  1.17155E+03  6.13702E+03 -2.51479E+03  4.82898E+03 -3.79508E+03  2.64152E+03 -3.05968E+03  5.83861E+02
 -1.69809E+03 -4.16908E+02 -2.07688E+03  9.11526E+02 -3.16901E+03  7.88405E+02 -4.48526E+03 -1.02113E+03
 -4.76430E+03 -2.99702E+03 -1.61149E+03 -6.16319E+03  3.13366E+03 -6.99506E+03  5.19006E+03 -2.89426E+03
  6.17235E+03  6.17422E+02  3.08186E+03  4.56035E+03 -6.82274E+02  6.24008E+03 -4.64677E+03  4.03100E+03
