 $NMID ID='MM_0lb_SNR800_16hz_g50_64.RAW', FMTDAT='(8E13.5)'
 TRAMP=1., VOLUME=1. $END
  3.09989E+05  3.47007E+02  3.37488E+05  2.50541E+05  8.45468E+04  3.38066E+05 -1.32264E+05  2.50940E+05
 -1.90052E+05  8.30750E+04 -1.11535E+05 -3.26753E+04  1.30583E+03 -5.04733E+04  5.40361E+04 -9.73945E+01
  3.50697E+04  5.28385E+04 -1.69068E+04  7.53669E+04 -6.04635E+04  6.33431E+04 -8.38564E+04  3.18624E+04
 -8.06789E+04 -1.10153E+04 -5.67583E+04 -5.06729E+04 -1.51357E+04 -6.95636E+04  2.72959E+04 -4.56028E+04
  3.98699E+04  3.93228E+03  1.58033E+04  4.75232E+04 -3.39540E+04  4.65665E+04 -6.63125E+04 -5.24282E+02
 -5.32832E+04 -5.63136E+04 -6.56191E+03 -7.64323E+04  3.32324E+04 -5.43880E+04  4.73042E+04 -1.70144E+04
  4.26885E+04  1.10887E+04  3.16065E+04  2.49942E+04  1.56836E+04  2.91752E+04 -5.02368E+03  2.72333E+04
 -2.19497E+04  1.26710E+04 -1.88283E+04 -4.98165E+03  5.01340E+03 -7.47385E+03  2.19837E+04  1.17329E+04
  7.42646E+03  3.46568E+04 -3.15707E+04  3.48706E+04 -6.29337E+04  2.26991E+03 -5.65202E+04 -4.26309E+04
 -1.24749E+04 -6.24527E+04  3.90745E+04 -4.46930E+04  5.70445E+04 -2.13581E+03  3.33563E+04  3.17967E+04
 -6.15954E+03  3.47691E+04 -2.93795E+04  1.51098E+04 -2.96943E+04 -4.93874E+03 -1.57882E+04 -1.07137E+04
 -7.96682E+03 -1.25897E+04 -6.96832E+02 -1.72614E+04  7.29847E+03 -2.28865E+04  1.51912E+04 -1.38216E+04
  1.17095E+04  4.85923E+03 -7.30361E+03  1.29663E+04 -2.04758E+04 -3.51281E+03 -8.51484E+03 -3.24005E+04
  2.18446E+04 -4.22863E+04  4.68145E+04 -1.94339E+04  4.39104E+04  1.88508E+04  1.51207E+04  4.30725E+04
 -1.58704E+04  3.24638E+04 -2.47642E+04  1.51013E+03 -9.32129E+03 -2.72838E+04  2.10014E+04 -3.29044E+04
  4.00477E+04 -8.41221E+03  3.37717E+04  2.35284E+04  1.69729E+04  4.48717E+04 -8.20745E+03  4.80895E+04
 -3.03548E+04  3.21568E+04 -4.03604E+04  8.98182E+03 -4.08954E+04 -1.58634E+04 -2.26802E+04 -3.63159E+04
  6.96755E+03 -3.64617E+04  3.05919E+04 -1.41226E+04  2.83240E+04  1.07965E+04  3.50394E+03  1.85346E+04
 -1.34377E+04  7.82116E+03 -1.00207E+04 -7.63107E+03  5.76086E+03 -1.04821E+04  1.75953E+04  5.92919E+03
  1.30341E+04  2.18091E+04 -6.05981E+03  2.43751E+04 -2.21708E+04  1.07005E+04 -2.67547E+04 -5.23850E+03
 -1.89746E+04 -1.69699E+04 -7.36899E+03 -1.87956E+04  3.95084E+03 -1.75479E+04  1.47466E+04 -1.65376E+04
  2.42761E+04 -1.21396E+04  3.06753E+04  1.99898E+03  2.27810E+04  1.84086E+04  4.24550E+03  3.47520E+04
 -1.69772E+04  2.90352E+04 -2.69839E+04  1.00804E+04 -2.04636E+04 -1.03433E+04 -4.08559E+03 -1.35675E+04
  1.86079E+03 -3.36805E+03 -4.12235E+03  6.03194E+03 -1.48277E+04  5.13572E+03 -1.51739E+04 -6.27514E+03
 -9.32880E+03 -1.74515E+04  4.64682E+03 -2.13629E+04  1.41537E+04 -1.52061E+04  1.68951E+04 -1.49405E+03
  1.05998E+04  1.19763E+04 -1.12979E+03  1.75439E+04 -1.20341E+04  1.01828E+04 -1.74613E+04 -3.96245E+03
 -1.29531E+04 -1.57703E+04 -1.59769E+03 -2.12467E+04  9.84635E+03 -1.76512E+04  1.78601E+04 -8.80424E+03
  1.62189E+04  2.56142E+02  1.19363E+04  4.26317E+03  5.90435E+03  7.16615E+02  8.64047E+03 -1.33506E+03
  1.61115E+04  2.78657E+03  1.73780E+04  1.41835E+04  1.12736E+04  2.79001E+04 -3.04623E+03  3.11706E+04
 -1.81186E+04  2.45270E+04 -2.86888E+04  1.20697E+04 -2.98848E+04 -2.29830E+03 -2.50223E+04 -1.71821E+04
 -1.11532E+04 -2.42983E+04  8.52188E+03 -2.23386E+04  1.94123E+04 -1.15869E+04  1.73343E+04  4.59525E+03
  7.12062E+03  1.28300E+04 -8.17981E+03  1.19298E+04 -1.48272E+04  2.65827E+03 -1.16739E+04 -9.43323E+03
  5.49052E+01 -1.40828E+04  7.28138E+03 -1.07838E+04  9.15489E+03 -1.31522E+03  1.93249E+03  5.69898E+03
 -6.07993E+03  1.66750E+03 -5.02246E+03 -5.13269E+03  4.82767E+01 -1.20094E+04  8.92005E+03 -1.22670E+04
  1.48536E+04 -6.28787E+03  1.53763E+04  3.03098E+03  1.30174E+04  1.14536E+04  6.00718E+03  1.75714E+04
 -2.52666E+03  1.94656E+04 -1.20880E+04  1.20857E+04 -1.37843E+04  2.71491E+03 -1.00530E+04 -2.91959E+03
 -5.02733E+03 -4.21143E+03 -8.11596E+02  1.22974E+03 -2.23983E+03  2.08724E+03 -4.77955E+03  4.12392E+03
 -9.62019E+03 -5.90453E+02 -9.90788E+03 -8.32491E+03 -4.43730E+03 -1.32389E+04  4.27848E+03 -1.01870E+04
  8.72526E+03 -4.07275E+03  6.21480E+03  2.75651E+03  3.35239E+02  3.54721E+03 -4.37474E+03 -1.83226E+02
 -4.25991E+03 -6.37533E+03 -7.26257E+02 -9.04698E+03  5.00860E+03 -9.59564E+03  1.20767E+04 -5.20189E+03
  1.43219E+04  1.13034E+03  1.09147E+04  7.79412E+03  2.18788E+03  1.10009E+04 -6.33201E+03  9.95393E+03
 -8.22743E+03  3.33617E+03 -3.97341E+03 -1.77714E+03  1.23569E+03 -2.59287E+03  5.56094E+03 -1.03721E+03
  4.86807E+03  4.39197E+03  8.79263E+02  7.44488E+03 -5.24181E+03  7.78215E+03 -9.49250E+03  2.06671E+03
 -6.11603E+03 -4.80065E+03  3.25788E+02 -8.58238E+03  4.84550E+03 -3.93774E+03  4.43929E+03  1.30504E+03
  1.00881E+03  4.71842E+03 -5.20186E+03  6.42439E+03 -6.66492E+03  2.96849E+03 -6.63616E+03 -1.88374E+03
 -3.80012E+03 -7.78917E+03  1.86824E+03 -9.40870E+03  7.93300E+03 -6.41534E+03  8.65420E+03  1.31405E+03
  5.83373E+03  7.22926E+03 -5.09256E+02  9.03055E+03 -6.59278E+03  5.07657E+03 -6.82777E+03 -5.81596E+02
 -6.83900E+03 -6.35840E+03 -1.22838E+03 -6.73735E+03  3.58125E+03 -5.86417E+03  3.42540E+03 -2.98150E+03
  3.39131E+03  6.31215E+02 -3.87850E+02  1.23825E+03  1.06077E+02 -8.85837E+02  7.26625E+02 -2.83547E+03
  5.20352E+03 -1.32777E+03  7.31066E+03  8.04654E+02  7.31706E+03  4.36499E+03  6.15097E+03  9.99078E+03
 -1.92817E+03  1.12838E+04 -1.00279E+04  8.95431E+03 -1.32865E+04  1.79021E+03 -1.04528E+04 -3.69228E+03
 -5.69929E+03 -8.42395E+03 -4.55754E+02 -7.09036E+03  2.95979E+03 -3.27191E+03  2.11831E+03 -2.66485E+03
  1.69185E+03 -1.66972E+03  2.64227E+03 -2.75784E+03  3.59466E+03 -1.56341E+03  4.70115E+03 -9.27584E+01
  5.65951E+03  1.31981E+03  1.74594E+03  4.40532E+03 -1.78457E+03  4.80642E+03 -5.86342E+03  3.79882E+03
 -6.57760E+03 -1.19780E+03 -3.03794E+03 -4.64287E+03  1.20765E+02 -7.18575E+03  4.25821E+03 -6.83855E+03
  7.23346E+03 -4.26934E+03  9.07679E+03  6.59268E+02  6.32913E+03  6.05876E+03  1.10752E+03  8.01094E+03
 -3.02112E+03  7.28395E+03 -4.81001E+03  2.58703E+03 -2.79920E+03 -1.04067E+03 -8.10202E+02 -7.97957E+02
 -4.52245E+02  3.20109E+02 -1.22466E+03  2.17990E+03 -2.86464E+03  1.37747E+03 -5.31173E+03 -8.19511E+02
 -2.88399E+03 -5.03281E+03  5.09061E+02 -6.25466E+03  3.73882E+03 -6.03510E+03  5.32202E+03 -1.64002E+03
  5.62096E+03  3.22975E+03  3.03162E+03  5.27217E+03 -1.19657E+03  6.19017E+03 -3.91934E+03  3.63432E+03
 -5.43849E+03  4.82119E+02 -4.43313E+03 -3.71713E+03 -2.18964E+02 -4.67851E+03  2.39812E+03 -4.02439E+03
  3.63852E+03 -1.70057E+03  2.65293E+03  1.01541E+03  1.01631E+03  2.05690E+03  9.20631E+02  9.00300E+02
  1.97883E+03  7.22178E+02  1.56930E+03  1.47820E+03  1.96116E+03  2.51871E+03  1.64969E+03  2.84527E+03
 -1.56697E+03  4.43003E+03 -3.71545E+03  5.49149E+03 -5.22524E+03  1.77012E+03 -5.84191E+03 -1.31963E+03
 -2.54359E+03 -5.58320E+03  1.25636E+03 -6.44446E+03  3.24233E+03 -3.87958E+03  4.65921E+03 -1.34169E+03
  3.62479E+03  2.17419E+03  7.43652E+02  3.14258E+03 -1.34197E+03  1.94171E+03 -1.98123E+03 -1.49157E+02
 -9.13282E+02 -2.07410E+03  1.57991E+03 -2.42953E+03  2.26436E+03 -1.29521E+03  2.13591E+03  3.14116E+02
  1.30486E+03  8.12026E+02  9.20859E+02  2.22064E+02 -3.91323E+02  9.67811E+02  1.52495E+03 -1.67802E+02
  4.86205E+02 -1.97507E+02  2.29680E+03  8.08205E+02  8.45618E+02  3.01302E+03 -5.61202E+02  4.27246E+03
 -2.35610E+03  2.01107E+03 -3.47955E+03  4.45992E+02 -3.25779E+03 -1.39588E+03 -5.63428E+02 -1.56512E+03
  7.51692E+02 -2.28751E+03  1.49189E+03 -1.00606E+03  9.98872E+02  1.67011E+03 -1.33366E+03  1.52613E+03
 -2.21137E+03  1.07870E+03 -2.04398E+03 -1.57343E+03 -7.76029E+02 -2.86356E+03  3.91997E+02 -2.23131E+03
  1.57221E+03 -1.47159E+03  1.39545E+03  3.63155E+02  1.74653E+03  4.56294E+02  1.62250E+02  1.64342E+03
 -3.60884E+02  2.99004E+00 -1.38738E+03 -5.22850E+02  6.64750E+02 -1.67614E+03  2.58849E+03 -1.55806E+03
  2.55514E+03  2.37957E+02  3.57298E+03  1.96127E+03  1.06172E+03  2.68128E+03 -8.75612E+02  2.76310E+03
 -2.28888E+03  8.04547E+02 -2.46943E+03 -3.02011E+02 -1.61120E+03 -1.91107E+03  4.72229E+02 -1.36755E+03
  1.95480E+03 -1.26968E+03  1.40362E+03  1.00281E+03  5.46385E+02  1.77150E+03 -1.64487E+01  1.63175E+03
 -8.34286E+02  1.70992E+03 -6.00494E+02  4.53829E+02 -8.89603E+01  3.52676E+02 -9.24491E+02  9.00374E+02
 -7.59148E+02  1.50602E+03 -2.33872E+03  1.20157E+03 -2.97664E+03  4.80438E+02 -3.42789E+03 -1.61453E+03
 -1.98758E+03 -3.56156E+03  9.16586E+02 -4.22653E+03  2.10798E+03 -3.66554E+03  4.43406E+03 -1.62554E+03
  4.04462E+03  1.43436E+02  2.21625E+03  2.55874E+03 -3.92371E+02  2.66508E+03 -9.89959E+02  1.91504E+03
 -1.83559E+03  7.42276E+02 -9.23167E+02 -3.24452E+02 -4.70499E+02 -2.18970E+02 -5.24806E+02  1.13150E+02
 -1.36859E+03 -1.95285E+02 -1.16836E+03 -2.41968E+01  4.04319E+02 -9.34582E+02 -1.30485E+02 -1.36664E+03
  1.53948E+03 -1.07463E+03  1.42280E+03  3.51703E+02  1.78766E+03  1.36377E+03 -1.32841E+02  2.55061E+03
 -1.22840E+03  3.47517E+03 -2.58492E+03  1.91207E+03 -3.00954E+03 -3.77416E+02 -2.12540E+03 -1.97334E+03
 -1.32060E+03 -2.50799E+03  5.88461E+02 -2.26251E+03  1.51191E+03 -1.11000E+03  1.19718E+03  1.39398E+02
  9.86537E+02  5.79708E+02 -1.94600E+01  5.84566E+02 -4.83287E+02  5.03147E+00 -1.43752E+02 -2.37266E+02
  6.57897E+02  6.24911E+00  6.61761E+02  5.68733E+02  2.31158E+02  8.09788E+02  5.24083E+02  1.03350E+03
 -1.27627E+03  8.52910E+02 -1.58498E+03  3.15052E+02 -1.69395E+03 -9.77860E+02 -7.71537E+00 -1.93837E+03
  1.03702E+03 -1.38428E+03  1.20362E+03 -7.08651E+01  1.91251E+03 -3.97146E+02  8.91047E+02  1.36183E+03
  3.41989E+02  1.12864E+03 -5.81604E+02  1.17443E+03 -1.09164E+03  8.54757E+02 -8.17281E+02  3.78814E+02
 -2.58884E+02 -1.12638E+02 -6.69095E+02  2.40842E+02 -8.98311E+02  1.09358E+02 -1.12956E+03 -6.53735E+02
 -1.23217E+03 -1.64973E+02 -5.62208E+02 -1.28562E+03  7.02984E+02 -2.00021E+03  1.25471E+03 -4.11909E+02
  1.30466E+03  2.51059E+02  4.61051E+01  6.52516E+02 -1.25763E+02  1.54643E+03 -5.72370E+02  8.71532E+02
