 $NMID ID='MM_0lb_SNR800_9hz_g45_63.RAW', FMTDAT='(8E13.5)'
 TRAMP=1., VOLUME=1. $END
  3.09675E+05  3.34404E+02  3.38168E+05  2.50651E+05  8.49293E+04  3.38550E+05 -1.32522E+05  2.51421E+05
 -1.90977E+05  8.36889E+04 -1.12387E+05 -3.22209E+04  5.24185E+02 -5.10196E+04  5.37756E+04 -4.14812E+02
  3.56321E+04  5.25841E+04 -1.66775E+04  7.58626E+04 -6.09880E+04  6.40005E+04 -8.48631E+04  3.25247E+04
 -8.20966E+04 -1.13412E+04 -5.80142E+04 -5.26000E+04 -1.54835E+04 -7.11093E+04  2.79560E+04 -4.69488E+04
  4.10508E+04  3.52049E+03  1.70433E+04  4.85051E+04 -3.53216E+04  4.82029E+04 -6.75720E+04  3.57750E+02
 -5.46866E+04 -5.78236E+04 -7.25639E+03 -7.85898E+04  3.46666E+04 -5.69227E+04  4.98274E+04 -1.82059E+04
  4.45709E+04  1.16595E+04  3.28094E+04  2.63565E+04  1.59460E+04  3.04942E+04 -5.86495E+03  2.77479E+04
 -2.25641E+04  1.19985E+04 -1.80904E+04 -5.39218E+03  6.68283E+03 -7.17939E+03  2.32118E+04  1.36165E+04
  6.72911E+03  3.72910E+04 -3.33952E+04  3.72251E+04 -6.56809E+04  2.39226E+03 -5.84591E+04 -4.42923E+04
 -1.29602E+04 -6.59761E+04  4.10742E+04 -4.73662E+04  6.09868E+04 -1.98869E+03  3.65508E+04  3.40639E+04
 -5.87088E+03  3.89667E+04 -3.15692E+04  1.85988E+04 -3.34989E+04 -3.60366E+03 -1.89584E+04 -1.20480E+04
 -9.31494E+03 -1.48269E+04 -2.22293E+02 -1.98209E+04  8.59813E+03 -2.36398E+04  1.57458E+04 -1.25287E+04
  1.05659E+04  5.95658E+03 -1.04298E+04  1.21429E+04 -2.30686E+04 -6.66178E+03 -8.87250E+03 -3.68660E+04
  2.48133E+04 -4.64368E+04  5.12772E+04 -2.09109E+04  4.87476E+04  2.06420E+04  1.71488E+04  4.67024E+04
 -1.65806E+04  3.58018E+04 -2.78826E+04  2.82776E+03 -1.13076E+04 -2.93344E+04  2.15491E+04 -3.67763E+04
  4.43077E+04 -1.10416E+04  4.00168E+04  2.44115E+04  2.08497E+04  5.03803E+04 -8.39119E+03  5.52997E+04
 -3.47025E+04  3.81889E+04 -4.74504E+04  1.13096E+04 -4.72589E+04 -1.84958E+04 -2.59900E+04 -4.14984E+04
  7.95855E+03 -4.13852E+04  3.38665E+04 -1.65441E+04  3.19976E+04  1.15154E+04  4.98168E+03  2.05260E+04
 -1.44158E+04  9.67389E+03 -1.13494E+04 -7.54496E+03  6.09880E+03 -1.16225E+04  1.84818E+04  6.00561E+03
  1.45677E+04  2.26811E+04 -5.35945E+03  2.69939E+04 -2.35260E+04  1.39123E+04 -3.13141E+04 -3.00481E+03
 -2.49933E+04 -1.79634E+04 -1.15355E+04 -2.44364E+04  4.31859E+03 -2.48217E+04  1.95590E+04 -2.27357E+04
  3.13817E+04 -1.42010E+04  3.72525E+04  4.48099E+03  2.69129E+04  2.41561E+04  4.56313E+03  4.08511E+04
 -1.95942E+04  3.33897E+04 -3.06109E+04  1.12795E+04 -2.19388E+04 -1.03527E+04 -5.27272E+03 -1.30066E+04
  8.55755E+02 -1.24485E+03 -6.80085E+03  8.30486E+03 -1.96396E+04  5.32718E+03 -1.97198E+04 -9.33664E+03
 -1.15750E+04 -2.28561E+04  6.05402E+03 -2.70781E+04  1.81689E+04 -1.96605E+04  2.19601E+04 -1.77257E+03
  1.41794E+04  1.55788E+04 -1.79350E+03  2.26843E+04 -1.64209E+04  1.29430E+04 -2.33973E+04 -4.98155E+03
 -1.67469E+04 -2.03450E+04 -2.14955E+03 -2.77732E+04  1.26062E+04 -2.30603E+04  2.32093E+04 -1.13480E+04
  2.18902E+04 -3.15258E+02  1.55399E+04  4.82910E+03  8.22858E+03  1.22248E+03  1.22830E+04 -1.88618E+03
  2.17601E+04  3.27562E+03  2.47470E+04  1.82375E+04  1.68931E+04  3.71062E+04 -2.76615E+03  4.33860E+04
 -2.49043E+04  3.57674E+04 -4.09892E+04  1.88738E+04 -4.34532E+04 -3.16802E+03 -3.52988E+04 -2.52922E+04
 -1.45641E+04 -3.63498E+04  1.25769E+04 -3.17807E+04  2.69918E+04 -1.49241E+04  2.37857E+04  7.75610E+03
  8.19609E+03  1.81882E+04 -1.14424E+04  1.56327E+04 -1.98231E+04  2.43382E+03 -1.52203E+04 -1.24802E+04
 -5.31808E+02 -1.90067E+04  1.02607E+04 -1.40737E+04  1.25731E+04 -1.19376E+03  3.03011E+03  8.65285E+03
 -8.65132E+03  4.12554E+03 -8.96939E+03 -7.05508E+03 -1.75348E+03 -1.80811E+04  1.17593E+04 -1.96499E+04
  2.22732E+04 -1.09894E+04  2.57892E+04  3.49347E+03  2.21425E+04  1.82655E+04  1.04676E+04  2.86127E+04
 -5.13830E+03  3.04216E+04 -1.98552E+04  1.86655E+04 -2.18000E+04  3.98708E+03 -1.52746E+04 -5.67962E+03
 -6.20869E+03 -7.10947E+03 -8.49430E+02  8.65295E+02 -2.88045E+03  3.41600E+03 -6.95360E+03  5.89989E+03
 -1.41424E+04 -1.29755E+03 -1.45374E+04 -1.14135E+04 -6.06303E+03 -1.87435E+04  6.37039E+03 -1.51785E+04
  1.29522E+04 -6.64920E+03  8.73330E+03  4.02794E+03 -1.39439E+01  6.26801E+03 -7.78448E+03 -2.35648E+02
 -7.10591E+03 -9.83379E+03 -9.48525E+02 -1.49617E+04  8.56742E+03 -1.58377E+04  1.99469E+04 -8.62021E+03
  2.27925E+04  2.36466E+03  1.68477E+04  1.37997E+04  3.09612E+03  1.82373E+04 -9.27327E+03  1.52205E+04
 -1.25166E+04  4.57068E+03 -6.58252E+03 -3.15265E+03  2.11478E+03 -4.37326E+03  8.14354E+03 -1.11478E+03
  7.04740E+03  6.96846E+03  1.13320E+03  1.24467E+04 -8.96496E+03  1.21602E+04 -1.51879E+04  2.62446E+03
 -1.04814E+04 -8.14463E+03  1.65883E+02 -1.32280E+04  8.69078E+03 -6.52372E+03  9.02027E+03  3.17058E+03
  2.13633E+03  9.91480E+03 -8.37371E+03  1.10637E+04 -1.35694E+04  5.15659E+03 -1.35882E+04 -4.83159E+03
 -7.60490E+03 -1.55063E+04  4.11118E+03 -1.74310E+04  1.52232E+04 -1.06659E+04  1.64672E+04  2.99758E+03
  9.71441E+03  1.27972E+04 -1.54429E+03  1.54991E+04 -1.12168E+04  8.85403E+03 -1.26261E+04 -9.97787E+02
 -1.07608E+04 -1.00262E+04 -1.78349E+03 -1.19323E+04  6.75535E+03 -9.38415E+03  7.35763E+03 -3.48589E+03
  4.77368E+03  2.04432E+03 -9.93549E+02  1.62358E+03 -5.35972E+02 -3.56584E+03  2.47407E+03 -7.25013E+03
  1.09751E+04 -5.07981E+03  1.56125E+04  1.61338E+03  1.45485E+04  1.06723E+04  1.00979E+04  2.04346E+04
 -5.00435E+03  2.31234E+04 -1.90023E+04  1.71895E+04 -2.52361E+04  3.26803E+03 -2.01275E+04 -8.51825E+03
 -1.02763E+04 -1.68046E+04 -2.95289E+02 -1.41879E+04  5.19365E+03 -7.87582E+03  5.06418E+03 -5.29496E+03
  3.60210E+03 -3.10722E+03  3.89799E+03 -3.66897E+03  6.05537E+03 -3.34813E+03  7.86989E+03 -1.57080E+03
  1.05740E+04  2.46756E+03  5.59382E+03  9.29466E+03 -2.69756E+03  1.11156E+04 -1.16021E+04  7.92806E+03
 -1.42958E+04 -1.32174E+03 -9.25354E+03 -1.00642E+04 -1.19511E+03 -1.56430E+04  8.43928E+03 -1.51110E+04
  1.58863E+04 -8.63718E+03  1.93389E+04  2.62410E+03  1.30849E+04  1.37502E+04  2.34898E+03  1.73091E+04
 -6.87861E+03  1.42883E+04 -1.01031E+04  5.06497E+03 -7.35438E+03 -1.60242E+03 -3.05613E+03 -2.18219E+03
 -1.41747E+03 -5.29675E+02 -2.62243E+03  3.34793E+03 -6.07668E+03  2.45595E+03 -9.72778E+03 -1.74018E+03
 -7.22078E+03 -9.86433E+03  2.76816E+02 -1.40175E+04  8.79833E+03 -1.28622E+04  1.39443E+04 -4.59267E+03
  1.43280E+04  7.31397E+03  6.55422E+03  1.28745E+04 -2.66057E+03  1.43689E+04 -1.01856E+04  9.05095E+03
 -1.34462E+04  4.50417E+02 -1.04381E+04 -8.58479E+03 -1.13167E+03 -1.16890E+04  6.38424E+03 -8.86888E+03
  9.06533E+03 -2.57023E+03  6.42722E+03  2.33503E+03  2.52554E+03  4.67939E+03  1.53093E+03  2.32731E+03
  2.74141E+03  9.42680E+02  3.20680E+03  1.88633E+03  4.34192E+03  5.04260E+03  3.89691E+03  7.47384E+03
 -3.16808E+03  1.16611E+04 -1.04608E+04  1.13475E+04 -1.46465E+04  2.92080E+03 -1.57611E+04 -6.04270E+03
 -7.29582E+03 -1.47993E+04  2.29416E+03 -1.60336E+04  8.80739E+03 -1.02347E+04  1.19005E+04 -2.49472E+03
  9.42156E+03  5.19506E+03  2.19143E+03  8.02641E+03 -4.32596E+03  5.69110E+03 -6.00963E+03 -9.00984E+02
 -3.15098E+03 -6.23216E+03  3.53063E+03 -6.65303E+03  6.18297E+03 -3.13981E+03  5.70891E+03  1.51349E+03
  3.51149E+03  2.95948E+03  1.62340E+03  2.18638E+03 -1.09204E+03  2.03480E+03  1.81048E+03 -1.78195E+02
  2.61507E+03 -5.20323E+02  5.95036E+03  2.56013E+03  3.13193E+03  7.83922E+03 -1.16627E+03  1.04717E+04
 -7.32021E+03  6.68229E+03 -9.41508E+03  1.61168E+03 -9.11574E+03 -3.01267E+03 -3.20072E+03 -5.92917E+03
  7.20606E+02 -6.02593E+03  3.99154E+03 -2.76693E+03  3.06585E+03  2.77953E+03 -1.24965E+03  5.12093E+03
 -6.07447E+03  3.03208E+03 -7.12079E+03 -3.76261E+03 -3.98725E+03 -8.41961E+03  1.14179E+03 -8.07423E+03
  4.72475E+03 -5.03737E+03  5.81105E+03 -6.57983E+02  5.04506E+03  1.85403E+03  6.53212E+02  4.50829E+03
 -2.72635E+03  1.31544E+03 -3.47787E+03 -3.28457E+03  1.24975E+03 -6.04733E+03  7.38831E+03 -5.26416E+03
  9.27031E+03  1.33651E+03  9.17464E+03  6.21953E+03  2.74920E+03  1.00201E+04 -3.64994E+03  9.55497E+03
 -7.85931E+03  4.08851E+03 -8.68504E+03 -8.81284E+02 -4.55606E+03 -6.05374E+03  1.50032E+03 -5.93584E+03
  6.05688E+03 -2.92881E+03  5.23547E+03  2.23196E+03  1.87554E+03  5.53865E+03 -8.52162E+02  4.46351E+03
 -2.67890E+03  3.09405E+03 -2.38399E+03  9.97555E+02 -1.15364E+03  1.04535E+03 -1.63228E+03  1.91964E+03
 -2.16077E+03  3.82704E+03 -6.51992E+03  3.24636E+03 -9.77868E+03  4.59936E+02 -1.11097E+04 -6.38927E+03
 -5.83231E+03 -1.32537E+04  2.56139E+03 -1.48108E+04  8.97224E+03 -1.16805E+04  1.42524E+04 -4.59477E+03
  1.28447E+04  3.08450E+03  7.63541E+03  8.85187E+03  1.03047E+03  9.99720E+03 -3.75504E+03  7.34317E+03
 -4.88217E+03  3.13483E+03 -3.40293E+03 -9.68055E+02 -1.35424E+03 -1.22964E+03 -6.36429E+02 -1.92856E+02
 -1.69211E+03  4.09246E+02 -2.53228E+03 -3.67345E+02 -6.82940E+02 -2.30732E+03  4.84514E+02 -3.60026E+03
  4.26560E+03 -3.59859E+03  6.32590E+03  4.11987E+01  6.98943E+03  5.18417E+03  2.06656E+03  1.00082E+04
 -4.64147E+03  1.18019E+04 -1.06355E+04  6.89709E+03 -1.24323E+04 -1.05471E+03 -9.36296E+03 -7.85809E+03
 -3.89674E+03 -1.05718E+04  2.36556E+03 -9.47588E+03  6.49116E+03 -5.34167E+03  6.99857E+03  2.06096E+02
  3.88985E+03  3.47262E+03 -4.25168E+02  3.02505E+03 -2.02050E+03 -2.43056E+02  8.10029E+01 -2.20691E+03
  3.37479E+03 -1.21128E+03  3.98046E+03  9.80247E+02  2.74537E+03  3.98054E+03  4.91154E+01  5.19206E+03
 -4.54601E+03  4.51885E+03 -7.24743E+03  6.81598E+02 -6.28299E+03 -4.84218E+03 -6.89918E+02 -8.83490E+03
  4.96904E+03 -6.99314E+03  7.95767E+03 -2.01927E+03  7.54273E+03  1.58991E+03  4.46288E+03  6.42859E+03
  1.24833E+03  6.51123E+03 -2.89448E+03  5.38507E+03 -4.16009E+03  2.96996E+03 -3.87891E+03  4.20740E+02
 -2.25058E+03 -3.86640E+02 -1.87510E+03  6.73609E+02 -3.34775E+03  1.00119E+03 -5.11900E+03 -9.41050E+02
 -5.07027E+03 -3.19490E+03 -1.80332E+03 -6.77643E+03  3.70002E+03 -7.72134E+03  5.93516E+03 -3.38130E+03
  7.10119E+03  7.46848E+02  3.68253E+03  4.47894E+03 -6.26230E+02  6.86045E+03 -5.10628E+03  4.44320E+03
