 $NMID ID='MM_0lb_SNR800_11hz_g60_29.RAW', FMTDAT='(8E13.5)'
 TRAMP=1., VOLUME=1. $END
  3.09759E+05  1.06244E+02  3.37677E+05  2.50612E+05  8.48431E+04  3.38390E+05 -1.32778E+05  2.51801E+05
 -1.90570E+05  8.35874E+04 -1.12278E+05 -3.27183E+04  2.74092E+02 -5.07982E+04  5.34690E+04 -3.40476E+02
  3.56715E+04  5.26513E+04 -1.64135E+04  7.57773E+04 -6.13684E+04  6.47467E+04 -8.50832E+04  3.23759E+04
 -8.22047E+04 -1.16102E+04 -5.79467E+04 -5.21199E+04 -1.54153E+04 -7.10979E+04  2.79419E+04 -4.68317E+04
  4.11417E+04  3.49697E+03  1.65209E+04  4.84149E+04 -3.48766E+04  4.83220E+04 -6.80103E+04 -1.06530E+02
 -5.46401E+04 -5.75774E+04 -7.28647E+03 -7.88778E+04  3.43303E+04 -5.68548E+04  4.96093E+04 -1.82593E+04
  4.47158E+04  1.20372E+04  3.25357E+04  2.64639E+04  1.60834E+04  3.05293E+04 -5.83367E+03  2.77476E+04
 -2.24559E+04  1.21042E+04 -1.81571E+04 -5.83831E+03  6.85999E+03 -7.45633E+03  2.36834E+04  1.35202E+04
  7.05009E+03  3.73759E+04 -3.38305E+04  3.69781E+04 -6.54966E+04  2.21649E+03 -5.86020E+04 -4.45544E+04
 -1.20980E+04 -6.53592E+04  4.14950E+04 -4.68799E+04  6.07068E+04 -2.36007E+03  3.64819E+04  3.39899E+04
 -5.49181E+03  3.91118E+04 -3.16746E+04  1.83849E+04 -3.31169E+04 -3.77032E+03 -1.90834E+04 -1.20782E+04
 -9.39941E+03 -1.48294E+04 -6.10371E+02 -1.93566E+04  8.62376E+03 -2.33137E+04  1.61397E+04 -1.25293E+04
  1.07840E+04  6.04419E+03 -1.02125E+04  1.29243E+04 -2.30302E+04 -6.47303E+03 -8.46617E+03 -3.72379E+04
  2.47153E+04 -4.65354E+04  5.14468E+04 -2.03987E+04  4.84934E+04  2.11757E+04  1.71085E+04  4.67188E+04
 -1.64506E+04  3.58621E+04 -2.71232E+04  2.51154E+03 -1.14576E+04 -2.92912E+04  2.18014E+04 -3.62999E+04
  4.42240E+04 -1.06422E+04  3.98139E+04  2.47224E+04  2.09251E+04  5.07282E+04 -8.70706E+03  5.47594E+04
 -3.50554E+04  3.77661E+04 -4.69842E+04  1.07960E+04 -4.68691E+04 -1.86158E+04 -2.56986E+04 -4.13661E+04
  7.69887E+03 -4.16118E+04  3.37581E+04 -1.70690E+04  3.17436E+04  1.13295E+04  4.96679E+03  2.04931E+04
 -1.41860E+04  9.44820E+03 -1.13645E+04 -7.11059E+03  5.37053E+03 -1.14724E+04  1.80638E+04  5.63557E+03
  1.47540E+04  2.29095E+04 -5.57649E+03  2.67426E+04 -2.32328E+04  1.41329E+04 -3.09045E+04 -3.29357E+03
 -2.46660E+04 -1.82898E+04 -1.12781E+04 -2.45105E+04  4.37326E+03 -2.48540E+04  1.89848E+04 -2.23563E+04
  3.10615E+04 -1.40147E+04  3.68739E+04  4.48545E+03  2.68976E+04  2.35270E+04  4.76338E+03  4.04930E+04
 -1.95790E+04  3.35332E+04 -2.99825E+04  1.16896E+04 -2.22574E+04 -1.02079E+04 -5.01851E+03 -1.31380E+04
  1.00020E+03 -1.40227E+03 -6.84350E+03  7.96564E+03 -1.95482E+04  4.79415E+03 -1.93052E+04 -9.33052E+03
 -1.18519E+04 -2.26227E+04  5.99031E+03 -2.70032E+04  1.81941E+04 -1.94381E+04  2.15183E+04 -1.42976E+03
  1.39580E+04  1.57360E+04 -1.23717E+03  2.25344E+04 -1.56571E+04  1.33147E+04 -2.26628E+04 -4.77755E+03
 -1.64609E+04 -2.00587E+04 -2.32384E+03 -2.73990E+04  1.24623E+04 -2.26906E+04  2.27633E+04 -1.16496E+04
  2.13093E+04 -3.37836E+02  1.57313E+04  4.97052E+03  8.87654E+03  1.22786E+03  1.17230E+04 -2.43162E+03
  2.09975E+04  2.96588E+03  2.42990E+04  1.77380E+04  1.68392E+04  3.66080E+04 -2.96666E+03  4.24469E+04
 -2.44099E+04  3.49342E+04 -3.98101E+04  1.80358E+04 -4.27659E+04 -3.16977E+03 -3.43497E+04 -2.45169E+04
 -1.38562E+04 -3.52569E+04  1.26011E+04 -3.11585E+04  2.66604E+04 -1.48970E+04  2.30884E+04  7.14828E+03
  7.69655E+03  1.79929E+04 -1.09691E+04  1.49300E+04 -1.93631E+04  2.80727E+03 -1.45865E+04 -1.23178E+04
 -1.57415E+02 -1.84962E+04  9.95412E+03 -1.38404E+04  1.29433E+04 -1.34951E+03  3.21631E+03  8.37179E+03
 -8.59227E+03  4.00169E+03 -8.77508E+03 -7.03452E+03 -1.59319E+03 -1.71622E+04  1.14635E+04 -1.84362E+04
  2.11663E+04 -1.04552E+04  2.45255E+04  3.23111E+03  2.12250E+04  1.74996E+04  9.64681E+03  2.71631E+04
 -4.95423E+03  2.93247E+04 -1.88437E+04  1.77863E+04 -2.14419E+04  4.02153E+03 -1.47223E+04 -5.45246E+03
 -6.03474E+03 -6.66167E+03 -5.84375E+02  7.80109E+02 -2.80866E+03  3.21986E+03 -7.09459E+03  5.26383E+03
 -1.34816E+04 -9.72020E+02 -1.45990E+04 -1.08888E+04 -5.60610E+03 -1.82678E+04  6.13401E+03 -1.45799E+04
  1.19665E+04 -6.21020E+03  8.73466E+03  4.14902E+03 -2.31394E+02  5.93519E+03 -6.86419E+03 -2.45432E+02
 -7.07152E+03 -9.69678E+03 -1.08033E+03 -1.43877E+04  8.26970E+03 -1.54664E+04  1.85180E+04 -8.35816E+03
  2.24111E+04  1.91623E+03  1.58277E+04  1.33253E+04  2.90507E+03  1.74885E+04 -9.13625E+03  1.43952E+04
 -1.23171E+04  3.96032E+03 -5.96207E+03 -2.91317E+03  2.39568E+03 -4.13104E+03  7.88659E+03 -1.20661E+03
  6.99651E+03  6.45943E+03  9.46516E+02  1.18034E+04 -8.64091E+03  1.11414E+04 -1.43376E+04  2.50142E+03
 -9.77665E+03 -7.49957E+03  4.79225E+02 -1.21921E+04  8.05710E+03 -6.38694E+03  8.43564E+03  2.91632E+03
  2.34257E+03  9.31605E+03 -7.56253E+03  1.02100E+04 -1.21687E+04  5.09684E+03 -1.25812E+04 -4.42952E+03
 -7.48040E+03 -1.45609E+04  3.48319E+03 -1.62389E+04  1.40388E+04 -1.00276E+04  1.53198E+04  2.73161E+03
  8.91124E+03  1.20267E+04 -1.60909E+03  1.40451E+04 -1.05739E+04  8.10834E+03 -1.18720E+04 -1.04625E+03
 -9.66909E+03 -9.49420E+03 -1.68290E+03 -1.08106E+04  5.76832E+03 -8.79407E+03  7.05609E+03 -3.62220E+03
  4.64847E+03  1.71629E+03 -7.09223E+02  1.65312E+03 -6.10155E+02 -3.04716E+03  2.52293E+03 -6.24224E+03
  1.02016E+04 -4.13789E+03  1.44872E+04  1.70442E+03  1.40869E+04  1.00347E+04  9.72914E+03  1.87356E+04
 -4.38320E+03  2.13516E+04 -1.77126E+04  1.59691E+04 -2.32152E+04  3.33434E+03 -1.85600E+04 -7.96608E+03
 -9.37552E+03 -1.55336E+04 -5.86802E+02 -1.28534E+04  4.65939E+03 -7.18851E+03  4.60737E+03 -4.58621E+03
  3.41924E+03 -2.74469E+03  3.50273E+03 -3.68348E+03  5.32346E+03 -3.23328E+03  7.27897E+03 -1.05573E+03
  9.83259E+03  2.10329E+03  5.01237E+03  8.45927E+03 -1.98206E+03  9.76375E+03 -1.02682E+04  7.83689E+03
 -1.29642E+04 -1.46982E+03 -7.94783E+03 -8.57713E+03 -1.29529E+03 -1.40051E+04  7.56195E+03 -1.37256E+04
  1.43405E+04 -7.55471E+03  1.74189E+04  2.61723E+03  1.18187E+04  1.22230E+04  2.04670E+03  1.59202E+04
 -6.76249E+03  1.30351E+04 -9.26748E+03  4.34546E+03 -6.19193E+03 -1.52666E+03 -2.22072E+03 -1.79125E+03
 -1.09381E+03  2.31366E+02 -2.18363E+03  2.73100E+03 -5.13594E+03  1.84440E+03 -9.11116E+03 -1.11159E+03
 -6.21783E+03 -8.60605E+03  4.67161E+02 -1.25413E+04  7.89349E+03 -1.18574E+04  1.21474E+04 -3.91227E+03
  1.24515E+04  6.57189E+03  6.00802E+03  1.09174E+04 -2.51250E+03  1.30773E+04 -8.67497E+03  7.87174E+03
 -1.16496E+04  6.20887E+02 -8.98768E+03 -7.89755E+03 -9.70359E+02 -1.05103E+04  5.49115E+03 -7.98844E+03
  7.84729E+03 -2.47008E+03  5.60825E+03  2.30816E+03  2.16862E+03  4.36097E+03  1.29217E+03  1.88903E+03
  2.55704E+03  9.47996E+02  2.78543E+03  1.69559E+03  4.00171E+03  4.68670E+03  3.26689E+03  6.58676E+03
 -2.91051E+03  9.94813E+03 -8.64509E+03  9.94552E+03 -1.27532E+04  2.49252E+03 -1.36105E+04 -5.40398E+03
 -6.13806E+03 -1.22610E+04  1.88930E+03 -1.38429E+04  7.46972E+03 -8.64637E+03  9.86962E+03 -2.38693E+03
  8.23779E+03  4.41436E+03  1.80874E+03  7.49845E+03 -3.68779E+03  4.83635E+03 -4.94678E+03 -6.08551E+02
 -2.16919E+03 -5.15126E+03  3.02618E+03 -5.47141E+03  4.92261E+03 -2.37390E+03  4.99387E+03  8.22899E+02
  3.31332E+03  2.44324E+03  1.27139E+03  1.70277E+03 -7.81166E+02  1.58938E+03  1.08821E+03 -4.58020E+02
  2.08962E+03 -7.06428E+02  5.11288E+03  2.00838E+03  2.63516E+03  6.34327E+03 -1.31928E+03  9.04182E+03
 -5.87858E+03  5.65970E+03 -7.74818E+03  1.61262E+03 -7.12717E+03 -2.97738E+03 -2.95909E+03 -4.81254E+03
  9.91699E+02 -4.90693E+03  3.03905E+03 -2.70625E+03  2.62997E+03  2.39849E+03 -1.25729E+03  4.33375E+03
 -5.17694E+03  2.34833E+03 -5.94386E+03 -2.69809E+03 -3.55685E+03 -6.90668E+03  9.94044E+02 -6.77899E+03
  3.95565E+03 -3.70274E+03  4.61156E+03 -1.86947E+02  4.19575E+03  2.14688E+03  7.47316E+02  3.30650E+03
 -2.32779E+03  1.04973E+03 -3.09086E+03 -1.93323E+03  1.34170E+03 -4.88547E+03  6.09477E+03 -4.16097E+03
  7.48328E+03  2.09442E+02  7.42011E+03  4.91103E+03  2.37318E+03  7.95741E+03 -2.73522E+03  7.49436E+03
 -6.41200E+03  3.30496E+03 -6.76939E+03 -1.26587E+03 -3.77928E+03 -4.81299E+03  1.05655E+03 -4.69179E+03
  4.99140E+03 -2.17256E+03  4.27917E+03  1.94362E+03  1.37325E+03  4.48692E+03 -5.54737E+02  3.91808E+03
 -1.76074E+03  2.07278E+03 -1.82589E+03  5.09743E+02 -7.99045E+02  8.19687E+02 -1.04381E+03  1.67022E+03
 -1.80865E+03  3.06826E+03 -5.59801E+03  2.93584E+03 -7.51679E+03  1.69744E+02 -8.98877E+03 -4.63847E+03
 -4.56827E+03 -1.01067E+04  2.07299E+03 -1.22291E+04  7.07811E+03 -9.10462E+03  1.12564E+04 -3.35073E+03
  1.07138E+04  1.78576E+03  6.33142E+03  7.15968E+03  4.65470E+02  7.68268E+03 -3.38075E+03  6.27740E+03
 -4.44048E+03  2.10057E+03 -2.74453E+03 -1.23320E+03 -1.23794E+03 -4.91425E+02 -5.35206E+02 -1.93077E+02
 -1.35397E+03  2.22823E+02 -2.02182E+03 -3.89831E+02 -1.51977E+02 -1.93516E+03  1.37048E+02 -2.85493E+03
  3.35115E+03 -2.84443E+03  4.54306E+03 -6.10749E+01  5.34132E+03  4.39377E+03  1.05284E+03  7.75855E+03
 -3.98639E+03  9.02973E+03 -8.27691E+03  5.37378E+03 -9.46913E+03 -7.54277E+02 -6.96214E+03 -5.81130E+03
 -3.12544E+03 -7.88376E+03  1.99015E+03 -7.24131E+03  4.56483E+03 -3.78293E+03  5.10349E+03  2.64236E+02
  2.61600E+03  2.36950E+03 -4.54593E+02  2.22610E+03 -1.79309E+03  3.85091E+02  1.07880E+02 -1.53459E+03
  2.27909E+03 -9.44338E+02  2.94697E+03  1.21642E+03  2.12618E+03  2.96537E+03  3.05617E+02  3.70949E+03
 -2.98763E+03  3.42699E+03 -4.99671E+03  3.58025E+02 -4.71113E+03 -3.84133E+03 -8.06405E+02 -5.78368E+03
  3.40933E+03 -4.99707E+03  5.47659E+03 -1.78662E+03  5.75558E+03  8.40639E+02  2.84488E+03  4.53043E+03
  4.60065E+02  4.81735E+03 -2.19596E+03  4.46180E+03 -3.39418E+03  2.07709E+03 -2.26690E+03  2.79970E+02
 -1.03673E+03 -5.38873E+02 -1.46432E+03  2.04836E+02 -2.55826E+03  8.19242E+02 -3.76371E+03 -9.12500E+02
 -3.70404E+03 -2.41096E+03 -1.00171E+03 -4.86985E+03  1.96802E+03 -5.37807E+03  4.58029E+03 -2.48816E+03
  5.02965E+03  5.28320E+02  2.28732E+03  3.15231E+03 -2.95681E+02  4.97862E+03 -3.45264E+03  3.45626E+03
