 $NMID ID='MM_0lb_SNR800_8hz_g40_61.RAW', FMTDAT='(8E13.5)'
 TRAMP=1., VOLUME=1. $END
  3.09873E+05  7.46650E+02  3.37801E+05  2.50964E+05  8.49005E+04  3.38693E+05 -1.32619E+05  2.51681E+05
 -1.90774E+05  8.36533E+04 -1.12613E+05 -3.24706E+04  1.43010E+02 -5.08490E+04  5.35966E+04 -5.53265E+02
  3.50809E+04  5.25658E+04 -1.65888E+04  7.65172E+04 -6.14367E+04  6.43474E+04 -8.55724E+04  3.24789E+04
 -8.25449E+04 -1.15446E+04 -5.83269E+04 -5.27297E+04 -1.52758E+04 -7.05497E+04  2.79347E+04 -4.65293E+04
  4.11530E+04  3.72645E+03  1.71059E+04  4.91717E+04 -3.43525E+04  4.79863E+04 -6.81214E+04  2.64906E+01
 -5.43798E+04 -5.78570E+04 -7.44127E+03 -7.88848E+04  3.48553E+04 -5.67531E+04  4.95986E+04 -1.82142E+04
  4.50621E+04  1.19554E+04  3.31816E+04  2.64604E+04  1.58458E+04  3.03552E+04 -6.11223E+03  2.78454E+04
 -2.29219E+04  1.21176E+04 -1.85406E+04 -5.58313E+03  6.80888E+03 -7.64277E+03  2.35368E+04  1.37847E+04
  7.07202E+03  3.79766E+04 -3.40587E+04  3.72921E+04 -6.60375E+04  2.02111E+03 -5.87121E+04 -4.43537E+04
 -1.27726E+04 -6.55942E+04  4.19424E+04 -4.76269E+04  6.14101E+04 -2.68903E+03  3.68707E+04  3.46241E+04
 -5.90154E+03  3.97616E+04 -3.17125E+04  1.89122E+04 -3.34626E+04 -3.54147E+03 -1.95458E+04 -1.23584E+04
 -9.58315E+03 -1.52966E+04 -1.60482E+02 -1.93192E+04  8.45837E+03 -2.34942E+04  1.56668E+04 -1.25261E+04
  1.07964E+04  6.26551E+03 -1.04390E+04  1.30393E+04 -2.36231E+04 -6.23622E+03 -8.78234E+03 -3.77845E+04
  2.49678E+04 -4.67955E+04  5.22095E+04 -2.07985E+04  4.86640E+04  2.08579E+04  1.77467E+04  4.69905E+04
 -1.66340E+04  3.62382E+04 -2.78971E+04  2.56009E+03 -1.15732E+04 -2.95637E+04  2.16643E+04 -3.71100E+04
  4.43018E+04 -1.09683E+04  4.10030E+04  2.50750E+04  2.15345E+04  5.13555E+04 -7.81028E+03  5.60868E+04
 -3.58243E+04  3.81537E+04 -4.77047E+04  1.08881E+04 -4.78943E+04 -1.82410E+04 -2.61591E+04 -4.21870E+04
  7.80584E+03 -4.20566E+04  3.45009E+04 -1.72044E+04  3.20261E+04  1.11751E+04  5.43187E+03  2.07813E+04
 -1.41214E+04  9.88494E+03 -1.12569E+04 -7.84093E+03  5.06117E+03 -1.15248E+04  1.86973E+04  5.68173E+03
  1.50382E+04  2.25991E+04 -4.97220E+03  2.69760E+04 -2.39461E+04  1.46086E+04 -3.18354E+04 -2.76208E+03
 -2.56495E+04 -1.83899E+04 -1.19303E+04 -2.55042E+04  4.36733E+03 -2.61201E+04  1.98639E+04 -2.33240E+04
  3.20177E+04 -1.42366E+04  3.84672E+04  4.89380E+03  2.72037E+04  2.49593E+04  3.88265E+03  4.13600E+04
 -1.94932E+04  3.40367E+04 -3.00109E+04  1.16257E+04 -2.25724E+04 -1.02636E+04 -5.04419E+03 -1.29421E+04
  8.48560E+02 -9.13503E+02 -7.88742E+03  8.58350E+03 -2.02709E+04  4.91903E+03 -2.04792E+04 -9.50804E+03
 -1.22079E+04 -2.32816E+04  6.25365E+03 -2.80404E+04  1.85404E+04 -1.99729E+04  2.27503E+04 -1.53998E+03
  1.46287E+04  1.61685E+04 -1.42029E+03  2.34632E+04 -1.69226E+04  1.31500E+04 -2.37812E+04 -5.03898E+03
 -1.72460E+04 -2.12195E+04 -2.29885E+03 -2.80591E+04  1.29381E+04 -2.35456E+04  2.32076E+04 -1.24645E+04
  2.25114E+04 -6.29656E+02  1.61545E+04  5.10765E+03  8.86731E+03  1.44322E+03  1.28103E+04 -2.69773E+03
  2.25654E+04  2.86130E+03  2.59370E+04  1.87251E+04  1.76223E+04  3.81289E+04 -2.52169E+03  4.44029E+04
 -2.55973E+04  3.73383E+04 -4.23611E+04  1.94843E+04 -4.53313E+04 -3.56248E+03 -3.65889E+04 -2.61978E+04
 -1.47660E+04 -3.76004E+04  1.31457E+04 -3.30978E+04  2.84202E+04 -1.58060E+04  2.46627E+04  8.03305E+03
  7.83772E+03  1.88471E+04 -1.20075E+04  1.57900E+04 -2.06654E+04  1.79021E+03 -1.54558E+04 -1.30078E+04
  2.04119E+02 -1.97042E+04  1.09138E+04 -1.50699E+04  1.34472E+04 -1.41100E+03  3.39271E+03  9.19402E+03
 -9.27081E+03  4.51170E+03 -9.58866E+03 -7.23197E+03 -1.76446E+03 -1.86266E+04  1.23720E+04 -2.01984E+04
  2.34427E+04 -1.15211E+04  2.63168E+04  3.72365E+03  2.34873E+04  1.84834E+04  1.07921E+04  2.98675E+04
 -5.61985E+03  3.13747E+04 -2.09975E+04  1.94545E+04 -2.33886E+04  4.53370E+03 -1.57802E+04 -5.97409E+03
 -6.97933E+03 -7.19978E+03 -7.94421E+02  3.34014E+02 -3.13179E+03  3.57853E+03 -7.81416E+03  5.51258E+03
 -1.42890E+04 -7.35885E+02 -1.47728E+04 -1.24292E+04 -5.92639E+03 -1.97904E+04  6.62117E+03 -1.62028E+04
  1.37462E+04 -6.13673E+03  9.08116E+03  4.34220E+03 -4.50228E+02  6.56881E+03 -8.10495E+03  8.53919E+01
 -7.85716E+03 -9.88344E+03 -8.60139E+02 -1.56600E+04  9.00683E+03 -1.65383E+04  2.06281E+04 -8.97630E+03
  2.40098E+04  2.31091E+03  1.79949E+04  1.51433E+04  2.99828E+03  1.93767E+04 -9.67929E+03  1.59622E+04
 -1.30526E+04  4.44391E+03 -6.57376E+03 -3.42258E+03  2.37118E+03 -4.43573E+03  8.07944E+03 -9.74761E+02
  7.75556E+03  7.29678E+03  1.40598E+03  1.26548E+04 -9.59111E+03  1.28422E+04 -1.57617E+04  2.79508E+03
 -1.09855E+04 -8.41562E+03 -1.82089E+02 -1.41426E+04  9.08828E+03 -7.06661E+03  9.78241E+03  3.68661E+03
  2.42689E+03  1.02614E+04 -8.21874E+03  1.21673E+04 -1.39924E+04  5.18048E+03 -1.47132E+04 -5.47788E+03
 -8.60987E+03 -1.62991E+04  4.22250E+03 -1.88067E+04  1.57589E+04 -1.10158E+04  1.73741E+04  3.05359E+03
  1.02289E+04  1.37528E+04 -1.22726E+03  1.63789E+04 -1.20383E+04  9.03260E+03 -1.32521E+04 -9.61964E+02
 -1.10907E+04 -1.08132E+04 -2.06393E+03 -1.25611E+04  6.70974E+03 -9.96009E+03  7.87601E+03 -3.86123E+03
  5.10865E+03  2.16257E+03 -1.14899E+03  2.12311E+03 -9.49027E+02 -3.59069E+03  3.00380E+03 -8.18551E+03
  1.19195E+04 -5.43675E+03  1.68514E+04  2.04373E+03  1.64028E+04  1.18961E+04  1.02149E+04  2.14875E+04
 -4.95490E+03  2.53071E+04 -2.06447E+04  1.83145E+04 -2.68246E+04  3.15732E+03 -2.15971E+04 -9.29457E+03
 -1.11950E+04 -1.75921E+04 -5.35065E+02 -1.50520E+04  5.43304E+03 -8.56049E+03  5.08059E+03 -5.79438E+03
  4.04155E+03 -3.41823E+03  3.99045E+03 -4.05399E+03  5.81272E+03 -3.52837E+03  8.62001E+03 -2.02505E+03
  1.14700E+04  2.63582E+03  6.61000E+03  9.93862E+03 -2.19172E+03  1.19782E+04 -1.16498E+04  9.45319E+03
 -1.55283E+04 -1.49304E+03 -9.63743E+03 -1.11541E+04 -1.74838E+03 -1.68420E+04  8.89545E+03 -1.62908E+04
  1.75320E+04 -8.90932E+03  2.05588E+04  2.74287E+03  1.41407E+04  1.46774E+04  2.25974E+03  1.86907E+04
 -7.65115E+03  1.47740E+04 -1.09894E+04  5.55875E+03 -7.74975E+03 -2.10230E+03 -3.28576E+03 -2.33664E+03
 -1.35465E+03  2.08460E+01 -2.35037E+03  3.37827E+03 -6.49640E+03  2.33124E+03 -1.08479E+04 -1.61105E+03
 -7.85906E+03 -1.03933E+04 -1.89400E+02 -1.55607E+04  9.54343E+03 -1.41324E+04  1.56150E+04 -4.61801E+03
  1.53554E+04  7.33861E+03  7.26793E+03  1.43339E+04 -3.01939E+03  1.57563E+04 -1.14189E+04  1.00348E+04
 -1.53364E+04  5.98917E+02 -1.15116E+04 -9.58834E+03 -1.26381E+03 -1.33044E+04  6.83455E+03 -9.53808E+03
  9.65664E+03 -3.44465E+03  6.68918E+03  2.40624E+03  2.71826E+03  4.82910E+03  1.85321E+03  2.25906E+03
  3.13203E+03  8.80463E+02  3.73084E+03  2.14621E+03  4.74536E+03  5.18557E+03  3.98842E+03  8.49141E+03
 -3.31483E+03  1.22567E+04 -1.14253E+04  1.25507E+04 -1.68853E+04  3.32928E+03 -1.69996E+04 -6.98764E+03
 -7.67135E+03 -1.62613E+04  2.35662E+03 -1.81778E+04  1.00864E+04 -1.12328E+04  1.35700E+04 -3.17861E+03
  9.84037E+03  5.77695E+03  2.27074E+03  9.07600E+03 -4.39965E+03  5.88685E+03 -6.87213E+03 -5.04088E+02
 -3.07168E+03 -7.09012E+03  3.78344E+03 -6.68100E+03  6.91112E+03 -3.77422E+03  6.20914E+03  1.30181E+03
  3.68446E+03  3.41676E+03  1.55959E+03  3.02411E+03 -7.78999E+02  1.91290E+03  1.75997E+03 -6.93528E+02
  2.38323E+03 -1.20188E+03  6.59766E+03  2.69253E+03  3.89756E+03  9.05630E+03 -1.60933E+03  1.16300E+04
 -8.10359E+03  7.78197E+03 -1.05557E+04  2.21017E+03 -9.44721E+03 -4.05798E+03 -3.31265E+03 -6.57678E+03
  1.05731E+03 -6.11109E+03  4.47340E+03 -3.32781E+03  3.70895E+03  3.32034E+03 -2.02661E+03  5.44782E+03
 -7.12851E+03  3.18465E+03 -7.93529E+03 -3.87407E+03 -4.28345E+03 -9.49077E+03  1.48697E+03 -8.94097E+03
  5.49936E+03 -5.73745E+03  6.33826E+03 -5.21934E+02  5.52521E+03  2.56810E+03  8.62119E+02  4.95921E+03
 -3.30774E+03  1.63804E+03 -4.07698E+03 -3.62501E+03  1.52262E+03 -7.11136E+03  8.28314E+03 -5.51159E+03
  1.05959E+04  7.71809E+02  1.03422E+04  7.21961E+03  3.28125E+03  1.12691E+04 -4.20860E+03  1.06656E+04
 -9.02768E+03  4.76877E+03 -8.87258E+03 -1.37238E+03 -4.81668E+03 -7.11499E+03  1.39602E+03 -6.80453E+03
  6.69018E+03 -3.24164E+03  5.77094E+03  2.81607E+03  2.40858E+03  5.46012E+03 -1.24973E+03  4.95964E+03
 -2.49747E+03  3.75782E+03 -2.88535E+03  1.34463E+03 -1.37968E+03  1.10798E+03 -1.54150E+03  1.98557E+03
 -3.04107E+03  4.05500E+03 -7.81762E+03  3.41626E+03 -1.06457E+04 -1.52053E+02 -1.23691E+04 -7.27043E+03
 -6.59861E+03 -1.49333E+04  2.74077E+03 -1.68243E+04  1.04301E+04 -1.32415E+04  1.62770E+04 -4.41499E+03
  1.48855E+04  3.44686E+03  9.46419E+03  1.04017E+04  6.19267E+02  1.15427E+04 -4.49832E+03  8.98178E+03
 -6.35375E+03  3.27970E+03 -4.26472E+03 -9.88953E+02 -1.20121E+03 -1.10494E+03 -8.91445E+02 -2.41225E+01
 -2.07956E+03 -1.08620E+02 -1.87535E+03 -4.60996E+02 -8.47601E+02 -2.85731E+03  8.45589E+02 -3.82430E+03
  5.45822E+03 -4.04741E+03  7.19169E+03 -2.96075E+01  8.63713E+03  6.25324E+03  2.89874E+03  1.17175E+04
 -5.63520E+03  1.37381E+04 -1.26944E+04  7.68433E+03 -1.43617E+04 -1.07438E+03 -1.06281E+04 -8.95784E+03
 -4.48401E+03 -1.18906E+04  2.94902E+03 -1.16915E+04  7.67512E+03 -6.08540E+03  7.62381E+03  7.74539E+02
  4.44264E+03  3.87739E+03 -6.22815E+02  3.30009E+03 -2.23214E+03 -3.78526E+02  4.67133E+01 -2.80905E+03
  3.88319E+03 -1.49323E+03  4.60463E+03  1.57648E+03  2.97954E+03  4.12844E+03  4.20986E+01  6.69500E+03
 -4.97602E+03  5.67136E+03 -7.96240E+03  2.65150E+02 -6.92499E+03 -5.81774E+03 -1.04370E+03 -1.00113E+04
  5.86637E+03 -8.54192E+03  9.22126E+03 -2.45360E+03  9.09137E+03  2.69871E+03  5.15264E+03  7.46826E+03
  1.09420E+03  8.02578E+03 -3.08123E+03  6.38005E+03 -5.14408E+03  3.24652E+03 -4.11373E+03  8.02510E+02
 -2.36791E+03 -3.14706E+02 -2.25169E+03  9.38442E+02 -3.74988E+03  1.63944E+03 -6.18249E+03 -1.31821E+03
 -6.33940E+03 -4.41601E+03 -1.83183E+03 -7.87055E+03  3.86588E+03 -8.05487E+03  7.53617E+03 -4.08620E+03
  7.83036E+03  1.05472E+03  4.04691E+03  5.58940E+03 -7.79271E+02  8.51267E+03 -5.94746E+03  5.31863E+03
