 $NMID ID='MM_0lb_SNR800_15hz_g50_49.RAW', FMTDAT='(8E13.5)'
 TRAMP=1., VOLUME=1. $END
  3.09800E+05  5.08331E+02  3.37647E+05  2.50330E+05  8.49152E+04  3.37840E+05 -1.32702E+05  2.50859E+05
 -1.90263E+05  8.29916E+04 -1.11621E+05 -3.23516E+04  9.47873E+02 -5.03289E+04  5.40777E+04 -4.42672E+01
  3.53640E+04  5.26430E+04 -1.67979E+04  7.54444E+04 -6.06719E+04  6.35623E+04 -8.39500E+04  3.20089E+04
 -8.06049E+04 -1.12894E+04 -5.71398E+04 -5.08231E+04 -1.49563E+04 -6.95300E+04  2.75611E+04 -4.57782E+04
  4.00876E+04  3.92648E+03  1.59453E+04  4.77746E+04 -3.43277E+04  4.69428E+04 -6.65746E+04 -3.65997E+02
 -5.35203E+04 -5.67034E+04 -6.71945E+03 -7.67753E+04  3.37175E+04 -5.48863E+04  4.77180E+04 -1.71649E+04
  4.30672E+04  1.14499E+04  3.17710E+04  2.52680E+04  1.58179E+04  2.91962E+04 -5.27975E+03  2.69574E+04
 -2.16153E+04  1.22978E+04 -1.85129E+04 -4.85627E+03  5.49901E+03 -7.53285E+03  2.24176E+04  1.21346E+04
  7.91666E+03  3.49641E+04 -3.18097E+04  3.53214E+04 -6.29648E+04  2.32271E+03 -5.67820E+04 -4.24462E+04
 -1.26276E+04 -6.28005E+04  3.94591E+04 -4.49512E+04  5.77763E+04 -2.16567E+03  3.37440E+04  3.15426E+04
 -6.14313E+03  3.55609E+04 -2.95732E+04  1.55901E+04 -2.97538E+04 -4.76617E+03 -1.66140E+04 -1.05903E+04
 -8.20596E+03 -1.26214E+04 -8.54430E+02 -1.77854E+04  7.35348E+03 -2.30878E+04  1.52449E+04 -1.33304E+04
  1.13374E+04  4.92840E+03 -7.87763E+03  1.30744E+04 -2.09328E+04 -4.24276E+03 -8.38158E+03 -3.30168E+04
  2.24461E+04 -4.28783E+04  4.73813E+04 -1.96354E+04  4.45778E+04  1.91328E+04  1.53830E+04  4.39384E+04
 -1.58072E+04  3.29407E+04 -2.50400E+04  1.82163E+03 -9.80401E+03 -2.76254E+04  2.07739E+04 -3.33119E+04
  4.06475E+04 -8.55390E+03  3.48184E+04  2.35132E+04  1.75859E+04  4.56104E+04 -8.13414E+03  4.93501E+04
 -3.15087E+04  3.29736E+04 -4.11299E+04  9.46625E+03 -4.20947E+04 -1.65247E+04 -2.30732E+04 -3.74480E+04
  7.20530E+03 -3.71698E+04  3.06389E+04 -1.44502E+04  2.87663E+04  1.09875E+04  3.74226E+03  1.89975E+04
 -1.33436E+04  7.97945E+03 -9.90918E+03 -7.85461E+03  6.04133E+03 -1.06775E+04  1.78899E+04  6.02766E+03
  1.30480E+04  2.20609E+04 -6.10685E+03  2.46500E+04 -2.24669E+04  1.09727E+04 -2.74137E+04 -5.15450E+03
 -2.00217E+04 -1.70981E+04 -7.86075E+03 -1.97349E+04  3.92738E+03 -1.87063E+04  1.49669E+04 -1.76096E+04
  2.52348E+04 -1.27659E+04  3.17290E+04  2.25890E+03  2.33799E+04  1.93127E+04  4.07385E+03  3.54899E+04
 -1.74350E+04  2.98019E+04 -2.75923E+04  1.01141E+04 -2.07434E+04 -1.06512E+04 -4.50464E+03 -1.35833E+04
  2.03986E+03 -3.28228E+03 -4.35782E+03  6.38355E+03 -1.57879E+04  5.36718E+03 -1.57999E+04 -6.56523E+03
 -9.85460E+03 -1.85704E+04  5.30987E+03 -2.24987E+04  1.48849E+04 -1.62529E+04  1.73728E+04 -1.61988E+03
  1.06574E+04  1.26334E+04 -9.98250E+02  1.86315E+04 -1.26176E+04  1.04594E+04 -1.80978E+04 -4.04217E+03
 -1.36224E+04 -1.65177E+04 -1.56788E+03 -2.19771E+04  9.91620E+03 -1.80382E+04  1.85175E+04 -8.93801E+03
  1.71563E+04  3.70378E+02  1.24338E+04  4.57206E+03  6.45486E+03  6.64121E+02  8.68795E+03 -1.27793E+03
  1.68569E+04  2.61797E+03  1.84662E+04  1.46308E+04  1.18824E+04  2.90831E+04 -2.98121E+03  3.27866E+04
 -1.91531E+04  2.57197E+04 -3.04147E+04  1.31620E+04 -3.17656E+04 -2.09543E+03 -2.63902E+04 -1.81372E+04
 -1.18076E+04 -2.61231E+04  9.13744E+03 -2.36144E+04  2.03916E+04 -1.23748E+04  1.83437E+04  5.05538E+03
  6.83085E+03  1.38194E+04 -8.82842E+03  1.25775E+04 -1.56997E+04  2.67782E+03 -1.18155E+04 -1.00029E+04
 -2.44639E+02 -1.46697E+04  7.73566E+03 -1.10679E+04  9.75023E+03 -1.48898E+03  2.09549E+03  6.27039E+03
 -6.53905E+03  2.17722E+03 -5.51977E+03 -5.16476E+03 -5.61774E+02 -1.29395E+04  9.00385E+03 -1.32963E+04
  1.58831E+04 -6.89704E+03  1.68486E+04  2.96191E+03  1.43594E+04  1.25603E+04  6.78026E+03  1.88774E+04
 -3.16826E+03  2.07287E+04 -1.32283E+04  1.30427E+04 -1.48051E+04  3.27808E+03 -1.07726E+04 -3.23172E+03
 -5.14882E+03 -4.54138E+03 -8.43746E+02  1.25634E+03 -2.15528E+03  2.50707E+03 -4.83020E+03  3.72446E+03
 -1.01073E+04 -6.27307E+02 -1.09412E+04 -8.41839E+03 -4.46241E+03 -1.41688E+04  4.53365E+03 -1.09670E+04
  9.02949E+03 -4.49587E+03  6.60621E+03  2.36521E+03  2.49697E+02  4.34737E+03 -4.79735E+03 -2.04092E+02
 -4.94550E+03 -6.69969E+03 -8.69259E+02 -9.89391E+03  5.29554E+03 -1.07098E+04  1.30061E+04 -5.71374E+03
  1.53350E+04  9.43108E+02  1.12201E+04  8.50846E+03  2.22594E+03  1.19068E+04 -6.30087E+03  1.06055E+04
 -8.69183E+03  3.44691E+03 -4.52575E+03 -2.16562E+03  1.61585E+03 -2.65938E+03  5.84501E+03 -1.29625E+03
  5.19236E+03  4.71203E+03  8.98443E+02  8.44664E+03 -5.88584E+03  8.00328E+03 -1.03736E+04  2.10154E+03
 -6.44186E+03 -4.62476E+03  3.84929E+02 -8.91183E+03  5.42660E+03 -4.13508E+03  5.27149E+03  1.64131E+03
  9.41054E+02  5.33037E+03 -5.14275E+03  6.63664E+03 -7.51968E+03  3.32318E+03 -7.29867E+03 -2.19513E+03
 -4.39040E+03 -8.54342E+03  1.87127E+03 -1.02602E+04  8.79169E+03 -6.17334E+03  9.26274E+03  1.66083E+03
  6.12546E+03  7.74201E+03 -2.63876E+02  1.01177E+04 -6.98301E+03  5.77509E+03 -7.75609E+03 -5.61057E+02
 -7.37838E+03 -6.65515E+03 -1.39822E+03 -7.18552E+03  3.31111E+03 -6.40570E+03  4.22544E+03 -2.79052E+03
  3.50330E+03  7.72347E+02 -1.76993E+02  1.52195E+03  4.85048E+01 -1.07405E+03  8.56504E+02 -3.48983E+03
  6.02135E+03 -1.76896E+03  8.37620E+03  1.12087E+03  8.44322E+03  5.20427E+03  6.58396E+03  1.11898E+04
 -2.39865E+03  1.31826E+04 -1.12685E+04  9.65802E+03 -1.44190E+04  1.73316E+03 -1.15298E+04 -4.48097E+03
 -5.83970E+03 -9.26760E+03 -1.26835E+02 -7.81776E+03  2.77841E+03 -3.79179E+03  2.52413E+03 -3.06114E+03
  1.88674E+03 -2.10858E+03  2.58494E+03 -2.57948E+03  4.02853E+03 -1.93335E+03  4.88367E+03 -5.99082E+01
  6.07239E+03  1.45667E+03  2.32468E+03  5.20177E+03 -1.77121E+03  5.12005E+03 -6.02601E+03  4.40178E+03
 -7.69257E+03 -1.23636E+03 -3.80294E+03 -5.33134E+03 -2.23742E+02 -7.91366E+03  4.59092E+03 -8.02186E+03
  8.12128E+03 -4.74993E+03  1.03402E+04  8.63594E+02  7.04486E+03  6.85362E+03  1.10396E+03  9.27275E+03
 -3.71525E+03  8.30086E+03 -5.36423E+03  2.64092E+03 -3.41926E+03 -8.64537E+02 -1.18225E+03 -1.14626E+03
 -7.79994E+02  1.82326E+02 -1.51366E+03  1.98126E+03 -3.40439E+03  1.56346E+03 -5.77239E+03 -5.30534E+02
 -3.02221E+03 -5.51076E+03  5.45312E+02 -7.38359E+03  4.44493E+03 -6.90851E+03  6.51602E+03 -2.03209E+03
  6.73312E+03  3.77914E+03  3.43571E+03  5.73744E+03 -1.23460E+03  7.18823E+03 -4.52452E+03  4.29006E+03
 -6.21063E+03  5.62697E+02 -5.05147E+03 -3.93803E+03 -1.95384E+02 -5.18013E+03  2.89315E+03 -4.05648E+03
  4.14681E+03 -2.13149E+03  2.73262E+03  1.13302E+03  6.74209E+02  2.00084E+03  8.05815E+02  7.20487E+02
  1.82762E+03  5.45430E+02  1.68299E+03  1.13936E+03  1.94732E+03  3.05034E+03  2.02751E+03  3.27693E+03
 -1.53995E+03  5.11591E+03 -4.48934E+03  6.17030E+03 -6.26887E+03  1.90719E+03 -6.94226E+03 -1.67034E+03
 -3.05107E+03 -6.61971E+03  1.03928E+03 -7.42269E+03  3.52431E+03 -4.43435E+03  5.37165E+03 -1.31081E+03
  4.16761E+03  2.77516E+03  8.40625E+02  3.52385E+03 -1.78665E+03  2.22042E+03 -2.11597E+03 -3.30831E+02
 -1.28597E+03 -2.95397E+03  1.91003E+03 -2.64726E+03  2.75883E+03 -1.51991E+03  2.28396E+03  8.81526E+02
  1.10791E+03  1.09152E+03  9.82076E+02  4.44388E+02 -2.47299E+02  1.07894E+03  1.76136E+03 -2.12212E+02
  5.13948E+02 -2.50463E+02  2.72969E+03  9.37030E+02  9.39401E+02  3.81644E+03 -6.33043E+02  4.66847E+03
 -3.11317E+03  2.19942E+03 -3.97096E+03  9.85344E+02 -3.53717E+03 -1.39576E+03 -9.17871E+02 -2.16710E+03
  2.95089E+02 -2.29828E+03  1.53341E+03 -1.45491E+03  1.19905E+03  1.64083E+03 -1.18607E+03  2.22566E+03
 -2.36607E+03  1.32816E+03 -2.62218E+03 -2.04241E+03 -1.48150E+03 -3.42373E+03  2.61824E+02 -3.31002E+03
  1.64724E+03 -1.71371E+03  1.84688E+03  4.41704E+02  1.99407E+03  5.06527E+02  5.81391E+02  1.62524E+03
 -9.01186E+02  1.73621E+02 -1.52486E+03 -7.51941E+02  8.80210E+02 -2.25162E+03  3.20381E+03 -1.89180E+03
  2.85225E+03  3.60536E+02  4.31049E+03  1.97553E+03  1.39927E+03  3.73487E+03 -9.02507E+02  3.53978E+03
 -2.94431E+03  1.08846E+03 -3.13936E+03 -2.84431E+02 -1.88921E+03 -2.43621E+03  6.52293E+02 -1.81854E+03
  2.37050E+03 -1.18921E+03  1.73675E+03  9.47089E+02  6.50928E+02  2.14739E+03  2.02889E+02  2.12722E+03
 -9.18655E+02  1.59164E+03 -8.55557E+02  3.37667E+02 -6.53341E+01  9.69534E+02 -7.87248E+02  1.05752E+03
 -1.05935E+03  1.23077E+03 -2.84804E+03  1.13813E+03 -3.45153E+03  2.64816E+02 -4.04245E+03 -2.18587E+03
 -2.13921E+03 -4.35887E+03  7.95808E+02 -5.61045E+03  2.74433E+03 -4.32793E+03  5.25463E+03 -2.02642E+03
  4.76151E+03  3.36782E+02  2.57464E+03  3.09886E+03 -2.37862E+02  3.29166E+03 -1.38785E+03  2.62236E+03
 -1.81270E+03  9.42686E+02 -8.20756E+02 -5.96668E+02 -5.91200E+02  7.77610E+01 -6.37960E+02  1.55777E+02
 -1.45805E+03 -4.90872E+01 -1.21047E+03 -1.14258E+02 -2.53120E+01 -9.34165E+02 -5.40608E+01 -1.23255E+03
  1.66320E+03 -1.35340E+03  1.32582E+03  1.42414E+02  2.35347E+03  2.02813E+03  1.34230E+02  3.09412E+03
 -1.48023E+03  4.03637E+03 -3.33466E+03  2.21727E+03 -3.72464E+03 -5.30120E+02 -2.67540E+03 -2.51215E+03
 -1.29259E+03 -3.10477E+03  9.16493E+02 -2.91725E+03  1.79038E+03 -1.60648E+03  1.93907E+03  4.68604E+01
  1.42740E+03  1.05857E+03  1.97295E+01  8.89051E+02 -6.84801E+02  4.55490E+01  1.59947E+02 -6.80796E+02
  1.34483E+03 -1.09118E+02  9.64740E+02  6.63408E+02  3.82586E+02  9.47123E+02  3.92946E+02  1.40445E+03
 -1.20789E+03  1.59722E+03 -1.79850E+03  1.30970E+02 -1.85950E+03 -1.17875E+03 -1.07269E+02 -2.36196E+03
  1.24595E+03 -1.65310E+03  1.99246E+03 -5.42200E+02  2.10687E+03  4.66761E+01  1.09556E+03  1.56225E+03
  4.79272E+02  1.91719E+03 -5.03104E+02  1.70644E+03 -1.35489E+03  1.44448E+03 -1.04996E+03  4.70393E+02
 -3.03795E+02  7.48090E+00 -7.95746E+02  1.22797E+02 -9.90829E+02  2.69059E+02 -1.86021E+03 -4.28807E+02
 -1.64588E+03 -3.37464E+02 -5.65415E+02 -2.32636E+03  1.17361E+03 -2.96569E+03  1.63000E+03 -5.70445E+02
  1.83527E+03 -1.39213E+02  4.62335E+02  1.13847E+03 -4.64684E+01  1.97380E+03 -1.01424E+03  1.45962E+03
