 $NMID ID='MM_0lb_SNR800_7hz_g40_81.RAW', FMTDAT='(8E13.5)'
 TRAMP=1., VOLUME=1. $END
  3.09772E+05  6.37300E+02  3.37815E+05  2.50588E+05  8.48424E+04  3.38778E+05 -1.32766E+05  2.52324E+05
 -1.91034E+05  8.46321E+04 -1.12750E+05 -3.23449E+04  3.92209E+02 -5.12695E+04  5.39913E+04 -2.05930E+02
  3.58553E+04  5.24970E+04 -1.63516E+04  7.60464E+04 -6.13834E+04  6.47607E+04 -8.51295E+04  3.26414E+04
 -8.30035E+04 -1.15429E+04 -5.80180E+04 -5.25483E+04 -1.50073E+04 -7.15296E+04  2.81531E+04 -4.70650E+04
  4.16057E+04  3.08617E+03  1.69078E+04  4.89449E+04 -3.51470E+04  4.85873E+04 -6.81070E+04  2.84994E+01
 -5.51321E+04 -5.78245E+04 -7.82134E+03 -7.94558E+04  3.49881E+04 -5.73907E+04  5.01438E+04 -1.84905E+04
  4.58668E+04  1.16534E+04  3.31590E+04  2.73165E+04  1.57370E+04  3.09340E+04 -6.33469E+03  2.76095E+04
 -2.26646E+04  1.18859E+04 -1.82363E+04 -5.77220E+03  7.01721E+03 -7.39460E+03  2.37922E+04  1.40709E+04
  6.96256E+03  3.78397E+04 -3.42314E+04  3.76808E+04 -6.66507E+04  2.22036E+03 -5.97598E+04 -4.48588E+04
 -1.30389E+04 -6.65895E+04  4.21022E+04 -4.79817E+04  6.19400E+04 -2.92244E+03  3.72299E+04  3.55458E+04
 -5.58264E+03  4.04511E+04 -3.22118E+04  1.97180E+04 -3.44301E+04 -3.42067E+03 -2.00540E+04 -1.23569E+04
 -1.05115E+04 -1.53448E+04 -4.78257E+02 -2.02483E+04  9.17250E+03 -2.37196E+04  1.59804E+04 -1.26035E+04
  1.04797E+04  6.40904E+03 -1.15915E+04  1.27019E+04 -2.44664E+04 -7.30086E+03 -8.98306E+03 -3.86771E+04
  2.54680E+04 -4.83511E+04  5.34676E+04 -2.15062E+04  4.96776E+04  2.10428E+04  1.77984E+04  4.74764E+04
 -1.70354E+04  3.62150E+04 -2.86075E+04  2.85519E+03 -1.21762E+04 -3.00771E+04  2.17866E+04 -3.76331E+04
  4.56876E+04 -1.14112E+04  4.16343E+04  2.53795E+04  2.20857E+04  5.20090E+04 -8.16928E+03  5.74828E+04
 -3.66818E+04  3.95205E+04 -4.86482E+04  1.14357E+04 -4.88959E+04 -1.93856E+04 -2.68900E+04 -4.35093E+04
  8.02487E+03 -4.34994E+04  3.45187E+04 -1.81653E+04  3.27138E+04  1.14092E+04  5.25453E+03  2.10660E+04
 -1.35797E+04  1.00919E+04 -1.13043E+04 -7.57589E+03  5.40579E+03 -1.16555E+04  1.90655E+04  5.71575E+03
  1.49708E+04  2.24927E+04 -5.37517E+03  2.73748E+04 -2.38724E+04  1.51710E+04 -3.21417E+04 -2.52546E+03
 -2.69553E+04 -1.87825E+04 -1.21877E+04 -2.61276E+04  4.73941E+03 -2.75613E+04  2.05582E+04 -2.40206E+04
  3.39296E+04 -1.45674E+04  3.93429E+04  5.94029E+03  2.79920E+04  2.53762E+04  4.89645E+03  4.25396E+04
 -2.01307E+04  3.48368E+04 -3.16337E+04  1.23243E+04 -2.31419E+04 -1.01443E+04 -4.99010E+03 -1.23375E+04
  2.46704E+02 -9.22635E+02 -8.55600E+03  8.29303E+03 -2.14377E+04  5.46628E+03 -2.12747E+04 -1.04046E+04
 -1.26574E+04 -2.45615E+04  6.22966E+03 -2.91805E+04  1.99695E+04 -2.07435E+04  2.35690E+04 -1.70658E+03
  1.54948E+04  1.62355E+04 -1.70432E+03  2.41278E+04 -1.80850E+04  1.41117E+04 -2.43901E+04 -5.33316E+03
 -1.79534E+04 -2.19941E+04 -2.63438E+03 -2.93305E+04  1.29200E+04 -2.40253E+04  2.40027E+04 -1.26612E+04
  2.27977E+04 -1.90031E+02  1.65558E+04  5.45945E+03  9.26206E+03  1.99008E+03  1.29254E+04 -2.32797E+03
  2.32196E+04  2.54359E+03  2.65629E+04  1.90034E+04  1.90053E+04  3.96279E+04 -2.63056E+03  4.75394E+04
 -2.67768E+04  3.98725E+04 -4.48329E+04  2.04155E+04 -4.77952E+04 -3.73126E+03 -3.84296E+04 -2.79378E+04
 -1.55759E+04 -3.99931E+04  1.40574E+04 -3.51410E+04  3.00823E+04 -1.62389E+04  2.58971E+04  8.53818E+03
  8.40262E+03  2.01370E+04 -1.19990E+04  1.64384E+04 -2.14936E+04  2.50673E+03 -1.60429E+04 -1.34760E+04
 -7.87202E+02 -2.03292E+04  1.12390E+04 -1.53352E+04  1.42901E+04 -1.47920E+03  4.06922E+03  9.45030E+03
 -9.25225E+03  5.00923E+03 -1.01093E+04 -7.34981E+03 -2.64509E+03 -1.96489E+04  1.26126E+04 -2.16386E+04
  2.47983E+04 -1.23626E+04  2.88344E+04  3.53515E+03  2.49833E+04  1.98185E+04  1.16496E+04  3.18775E+04
 -6.20329E+03  3.36622E+04 -2.24260E+04  2.12189E+04 -2.44401E+04  4.04457E+03 -1.68721E+04 -6.37562E+03
 -7.02457E+03 -7.94164E+03 -1.30067E+03 -1.08290E+02 -3.32972E+03  3.74367E+03 -8.24253E+03  5.60295E+03
 -1.53890E+04 -1.14794E+03 -1.57154E+04 -1.29458E+04 -6.23084E+03 -2.06582E+04  6.87664E+03 -1.75538E+04
  1.38299E+04 -6.77513E+03  1.02137E+04  4.78652E+03 -7.02759E+02  6.83194E+03 -9.20778E+03  7.92683E+01
 -8.06048E+03 -1.10998E+04 -1.09233E+03 -1.68843E+04  1.03857E+04 -1.81742E+04  2.12114E+04 -9.97176E+03
  2.61734E+04  2.83442E+03  1.90852E+04  1.58578E+04  3.07009E+03  2.11986E+04 -1.06937E+04  1.68733E+04
 -1.39951E+04  4.75754E+03 -7.56424E+03 -3.95834E+03  2.49039E+03 -5.17880E+03  8.79118E+03 -1.42161E+03
  8.35647E+03  7.76085E+03  1.50453E+03  1.41900E+04 -1.01454E+04  1.30511E+04 -1.69757E+04  3.45886E+03
 -1.19887E+04 -9.17008E+03 -1.51293E+02 -1.51753E+04  9.66914E+03 -7.63932E+03  1.03502E+04  3.69297E+03
  2.70266E+03  1.16612E+04 -8.81765E+03  1.29501E+04 -1.53326E+04  5.98247E+03 -1.62686E+04 -5.90358E+03
 -8.93807E+03 -1.82686E+04  4.94057E+03 -2.03129E+04  1.73490E+04 -1.16653E+04  1.90962E+04  2.93045E+03
  1.09609E+04  1.50701E+04 -1.63303E+03  1.79290E+04 -1.28811E+04  1.00997E+04 -1.44451E+04 -2.03097E+03
 -1.17942E+04 -1.20493E+04 -1.76976E+03 -1.37892E+04  7.12823E+03 -1.04600E+04  8.41414E+03 -3.71987E+03
  5.17353E+03  2.27002E+03 -1.54094E+03  2.60308E+03 -1.45153E+03 -4.25136E+03  3.06496E+03 -8.70943E+03
  1.34558E+04 -6.14835E+03  1.86447E+04  2.05094E+03  1.78793E+04  1.24913E+04  1.14751E+04  2.41054E+04
 -5.49273E+03  2.74745E+04 -2.29003E+04  2.04381E+04 -2.93983E+04  4.29290E+03 -2.40507E+04 -1.09482E+04
 -1.22568E+04 -1.99189E+04 -4.52324E+02 -1.69341E+04  5.90051E+03 -1.01030E+04  6.62251E+03 -5.91719E+03
  4.44651E+03 -3.72949E+03  4.29935E+03 -3.80322E+03  6.53261E+03 -4.19600E+03  9.00423E+03 -1.83423E+03
  1.25372E+04  3.02649E+03  7.14067E+03  1.08249E+04 -2.09116E+03  1.34753E+04 -1.27316E+04  9.87036E+03
 -1.69448E+04 -1.82333E+03 -1.08709E+04 -1.20029E+04 -1.57373E+03 -1.84018E+04  9.92862E+03 -1.82128E+04
  1.91753E+04 -9.83903E+03  2.28518E+04  3.29361E+03  1.56574E+04  1.62854E+04  2.71317E+03  2.07568E+04
 -8.90186E+03  1.65328E+04 -1.22533E+04  5.78515E+03 -8.44552E+03 -1.93865E+03 -3.75344E+03 -2.65328E+03
 -1.41902E+03  1.16407E+02 -3.02830E+03  3.57924E+03 -7.18270E+03  3.02594E+03 -1.20011E+04 -1.66319E+03
 -9.25255E+03 -1.15652E+04 -4.47502E+02 -1.73698E+04  1.09896E+04 -1.61446E+04  1.79461E+04 -4.97742E+03
  1.73405E+04  8.10690E+03  8.35645E+03  1.59162E+04 -3.95924E+03  1.80178E+04 -1.28023E+04  1.11224E+04
 -1.66355E+04  7.39187E+02 -1.27373E+04 -1.06463E+04 -1.67544E+03 -1.48421E+04  7.64325E+03 -1.11169E+04
  1.14037E+04 -3.54503E+03  8.03661E+03  2.71699E+03  3.02361E+03  4.87061E+03  2.02613E+03  2.77432E+03
  2.81307E+03  1.14035E+03  4.20883E+03  1.80829E+03  4.98949E+03  6.01155E+03  4.31199E+03  1.00165E+04
 -3.88818E+03  1.38858E+04 -1.30306E+04  1.42265E+04 -1.85347E+04  3.74498E+03 -1.91300E+04 -8.00028E+03
 -9.18288E+03 -1.84900E+04  2.69157E+03 -2.01822E+04  1.12252E+04 -1.29479E+04  1.52106E+04 -3.36484E+03
  1.13309E+04  6.73843E+03  2.96878E+03  1.07086E+04 -5.38248E+03  6.69906E+03 -7.50385E+03 -1.45031E+03
 -3.62568E+03 -7.62874E+03  4.48881E+03 -8.19915E+03  7.70832E+03 -3.73601E+03  7.30904E+03  1.89235E+03
  4.21408E+03  3.33068E+03  1.67190E+03  3.51548E+03 -9.46407E+02  2.37500E+03  1.61647E+03 -5.73313E+02
  3.14423E+03 -9.39722E+02  7.64913E+03  3.07193E+03  4.38939E+03  9.98302E+03 -1.83677E+03  1.34148E+04
 -9.04450E+03  8.77575E+03 -1.22373E+04  2.24645E+03 -1.04501E+04 -4.41170E+03 -4.76451E+03 -6.96866E+03
  7.26799E+02 -7.59628E+03  4.84310E+03 -3.31963E+03  3.82279E+03  3.22682E+03 -1.87146E+03  6.55282E+03
 -8.15303E+03  3.47085E+03 -9.10184E+03 -4.17288E+03 -5.45980E+03 -1.06046E+04  1.83868E+03 -1.08009E+04
  5.96962E+03 -6.82616E+03  7.88684E+03 -6.25376E+02  6.14119E+03  2.95496E+03  5.02130E+02  5.88064E+03
 -4.12676E+03  1.63142E+03 -4.30919E+03 -3.94235E+03  1.60702E+03 -8.13660E+03  9.37661E+03 -6.55908E+03
  1.21980E+04  2.33908E+02  1.19244E+04  8.59266E+03  3.71929E+03  1.29086E+04 -4.56393E+03  1.17623E+04
 -1.02900E+04  5.32153E+03 -1.09403E+04 -2.11039E+03 -5.86199E+03 -8.00780E+03  2.22596E+03 -7.93295E+03
  7.88839E+03 -3.47956E+03  6.75046E+03  3.23968E+03  2.01668E+03  6.92578E+03 -1.65098E+03  6.22473E+03
 -3.58820E+03  3.76106E+03 -3.28180E+03  1.71076E+03 -1.23791E+03  1.52272E+03 -1.96944E+03  2.71437E+03
 -3.05857E+03  4.80143E+03 -8.42225E+03  4.56699E+03 -1.29278E+04  3.61380E+02 -1.43286E+04 -8.83688E+03
 -7.58739E+03 -1.74875E+04  3.12420E+03 -2.02543E+04  1.26680E+04 -1.55260E+04  1.83539E+04 -6.01822E+03
  1.74593E+04  3.74746E+03  1.07241E+04  1.19724E+04  1.28174E+03  1.37335E+04 -5.91824E+03  1.06526E+04
 -7.57768E+03  3.57079E+03 -4.65531E+03 -1.74072E+03 -1.77762E+03 -1.78544E+03 -1.13335E+03 -3.33885E+02
 -1.91048E+03  5.76356E+02 -2.77190E+03 -7.22574E+02 -1.49396E+03 -2.79003E+03  5.75924E+02 -5.23193E+03
  6.24785E+03 -4.55996E+03  8.76412E+03 -1.49390E+02  9.70647E+03  7.82147E+03  3.17414E+03  1.38144E+04
 -6.78743E+03  1.60451E+04 -1.46861E+04  9.23843E+03 -1.68811E+04 -1.08101E+03 -1.25515E+04 -1.03198E+04
 -4.48887E+03 -1.44064E+04  3.54167E+03 -1.36089E+04  8.51327E+03 -7.04606E+03  9.54563E+03  3.03878E+02
  5.52143E+03  4.16956E+03 -4.66074E+02  4.07061E+03 -2.55160E+03 -3.32378E+02  7.91703E+02 -3.50032E+03
  4.93936E+03 -1.87423E+03  5.83754E+03  1.80424E+03  4.05478E+03  5.65902E+03  3.10209E+02  7.98478E+03
 -5.89119E+03  6.75659E+03 -1.00015E+04  1.94439E+02 -8.38732E+03 -7.12055E+03 -1.19542E+03 -1.23307E+04
  6.97784E+03 -1.01567E+04  1.12360E+04 -3.19898E+03  1.14848E+04  2.92206E+03  6.33205E+03  8.61296E+03
  1.29260E+03  9.89763E+03 -3.92053E+03  7.60437E+03 -6.32655E+03  3.88247E+03 -5.60780E+03  4.45512E+02
 -3.06271E+03 -1.88408E+02 -2.82884E+03  1.28677E+03 -4.97598E+03  1.52536E+03 -7.40986E+03 -1.78536E+03
 -7.33058E+03 -5.28811E+03 -2.39824E+03 -9.22644E+03  4.26696E+03 -1.00289E+04  8.50941E+03 -4.95056E+03
  9.79050E+03  1.12299E+03  5.49461E+03  7.02002E+03 -6.18141E+02  1.01027E+04 -7.49112E+03  6.68087E+03
