 $NMID ID='MM_0lb_SNR800_16hz_g45_67.RAW', FMTDAT='(8E13.5)'
 TRAMP=1., VOLUME=1. $END
  3.09840E+05  4.59068E+02  3.37546E+05  2.50391E+05  8.48123E+04  3.37729E+05 -1.32495E+05  2.50443E+05
 -1.90032E+05  8.26606E+04 -1.11471E+05 -3.28244E+04  1.00210E+03 -5.02687E+04  5.38870E+04  9.71576E+01
  3.52079E+04  5.27649E+04 -1.72152E+04  7.51694E+04 -6.04996E+04  6.30250E+04 -8.35119E+04  3.15708E+04
 -8.02787E+04 -1.13033E+04 -5.66671E+04 -5.04233E+04 -1.47574E+04 -6.87923E+04  2.68387E+04 -4.53282E+04
  3.95470E+04  3.97245E+03  1.59987E+04  4.74476E+04 -3.39872E+04  4.68094E+04 -6.60930E+04 -4.43634E+02
 -5.23863E+04 -5.63320E+04 -6.45871E+03 -7.58970E+04  3.36381E+04 -5.40685E+04  4.72916E+04 -1.65981E+04
  4.27088E+04  1.13678E+04  3.12563E+04  2.47128E+04  1.59124E+04  2.87173E+04 -4.76256E+03  2.69468E+04
 -2.19515E+04  1.25360E+04 -1.88746E+04 -4.41630E+03  4.89287E+03 -7.73573E+03  2.17275E+04  1.17827E+04
  7.29163E+03  3.41987E+04 -3.12151E+04  3.50157E+04 -6.22743E+04  1.91840E+03 -5.60454E+04 -4.20360E+04
 -1.26319E+04 -6.17092E+04  3.88892E+04 -4.40016E+04  5.65615E+04 -1.84727E+03  3.30397E+04  3.12478E+04
 -6.32092E+03  3.41304E+04 -2.92020E+04  1.44112E+04 -2.84391E+04 -4.89853E+03 -1.56377E+04 -1.06304E+04
 -7.83201E+03 -1.20769E+04 -8.03226E+02 -1.72820E+04  6.97014E+03 -2.27464E+04  1.53537E+04 -1.38787E+04
  1.20341E+04  4.77654E+03 -7.10632E+03  1.29212E+04 -2.00027E+04 -3.31260E+03 -8.13960E+03 -3.18931E+04
  2.15770E+04 -4.17479E+04  4.62711E+04 -1.92118E+04  4.36054E+04  1.88201E+04  1.46848E+04  4.29551E+04
 -1.55765E+04  3.22294E+04 -2.44155E+04  1.41373E+03 -9.00223E+03 -2.68258E+04  2.09511E+04 -3.26463E+04
  3.95593E+04 -8.07655E+03  3.35034E+04  2.32173E+04  1.67616E+04  4.44538E+04 -8.11133E+03  4.76599E+04
 -3.00369E+04  3.14166E+04 -3.94947E+04  8.88216E+03 -4.04328E+04 -1.56121E+04 -2.21991E+04 -3.58257E+04
  7.02561E+03 -3.59488E+04  3.02468E+04 -1.36890E+04  2.79465E+04  1.08198E+04  3.52125E+03  1.83395E+04
 -1.31604E+04  8.17201E+03 -1.00207E+04 -7.63689E+03  6.01479E+03 -1.03866E+04  1.75167E+04  6.18015E+03
  1.28652E+04  2.19442E+04 -6.29036E+03  2.40798E+04 -2.19410E+04  1.01593E+04 -2.68040E+04 -5.37725E+03
 -1.82151E+04 -1.66539E+04 -6.76268E+03 -1.85216E+04  3.65041E+03 -1.69905E+04  1.38541E+04 -1.57881E+04
  2.33020E+04 -1.19553E+04  3.00890E+04  2.17839E+03  2.24423E+04  1.78034E+04  4.12189E+03  3.41325E+04
 -1.68483E+04  2.90654E+04 -2.66922E+04  9.88280E+03 -2.01104E+04 -1.02730E+04 -4.13526E+03 -1.36361E+04
  2.27636E+03 -3.56254E+03 -3.84434E+03  5.74908E+03 -1.44230E+04  5.25939E+03 -1.46920E+04 -6.13201E+03
 -9.29802E+03 -1.68396E+04  4.70960E+03 -2.11609E+04  1.35060E+04 -1.50424E+04  1.60595E+04 -1.55460E+03
  1.00704E+04  1.18409E+04 -7.67629E+02  1.72404E+04 -1.14770E+04  9.76488E+03 -1.71323E+04 -3.78263E+03
 -1.26216E+04 -1.53984E+04 -1.42702E+03 -2.08707E+04  9.59604E+03 -1.71021E+04  1.74798E+04 -8.01330E+03
  1.61839E+04  7.44956E+02  1.17795E+04  4.10780E+03  5.94357E+03  9.31705E+02  8.69551E+03 -1.45376E+03
  1.51656E+04  2.78182E+03  1.66752E+04  1.38398E+04  1.08823E+04  2.72218E+04 -3.12771E+03  2.97180E+04
 -1.77494E+04  2.38307E+04 -2.77622E+04  1.16549E+04 -2.87653E+04 -2.16330E+03 -2.43008E+04 -1.62996E+04
 -1.09439E+04 -2.38277E+04  7.97693E+03 -2.15934E+04  1.88321E+04 -1.15720E+04  1.71366E+04  4.63948E+03
  6.93552E+03  1.27644E+04 -7.75484E+03  1.14479E+04 -1.48134E+04  2.32967E+03 -1.13954E+04 -9.10402E+03
  7.14044E+01 -1.37097E+04  6.89602E+03 -1.02440E+04  8.87894E+03 -1.38457E+03  1.85397E+03  5.55332E+03
 -6.24940E+03  1.95993E+03 -4.64453E+03 -5.19191E+03  1.19462E+02 -1.18779E+04  8.63231E+03 -1.21845E+04
  1.40655E+04 -5.83025E+03  1.44451E+04  2.78512E+03  1.27906E+04  1.12407E+04  5.90569E+03  1.66857E+04
 -2.52434E+03  1.90141E+04 -1.18945E+04  1.19165E+04 -1.34898E+04  3.05590E+03 -9.98897E+03 -2.67972E+03
 -4.81957E+03 -4.12371E+03 -8.71878E+02  1.39521E+03 -2.21797E+03  2.51879E+03 -4.33131E+03  3.85898E+03
 -9.35409E+03 -3.68044E+02 -1.02951E+04 -8.39116E+03 -4.20026E+03 -1.30556E+04  4.45551E+03 -9.84055E+03
  8.17694E+03 -4.49527E+03  5.75202E+03  2.26792E+03  5.93745E+02  3.64278E+03 -4.56984E+03 -9.10551E+01
 -4.03425E+03 -6.10685E+03 -7.35281E+02 -8.90140E+03  4.99263E+03 -9.34020E+03  1.19524E+04 -5.04189E+03
  1.40437E+04  4.94051E+02  1.02450E+04  7.60941E+03  2.12586E+03  1.06615E+04 -6.09232E+03  9.53767E+03
 -7.95885E+03  3.26289E+03 -4.18600E+03 -1.58664E+03  1.20093E+03 -2.34749E+03  5.34877E+03 -1.01866E+03
  4.67848E+03  4.10926E+03  1.02198E+03  7.60594E+03 -5.17632E+03  7.45707E+03 -8.86733E+03  1.90864E+03
 -6.16460E+03 -4.42693E+03  3.16968E+02 -7.99085E+03  4.34976E+03 -3.85271E+03  4.47179E+03  1.26053E+03
  8.73286E+02  4.48436E+03 -4.58834E+03  5.98711E+03 -6.34308E+03  3.13033E+03 -5.96930E+03 -1.71697E+03
 -3.81038E+03 -7.55367E+03  1.52578E+03 -8.96886E+03  7.30272E+03 -5.72505E+03  8.19177E+03  1.55688E+03
  5.57542E+03  6.80733E+03  2.66553E+00  8.65426E+03 -6.23323E+03  5.25474E+03 -6.79705E+03 -3.83352E+02
 -6.64961E+03 -6.17433E+03 -1.37174E+03 -6.19232E+03  3.42794E+03 -5.56950E+03  3.64726E+03 -2.85704E+03
  3.31018E+03  4.94302E+02 -2.03611E+02  1.77628E+03  2.86533E+02 -5.51218E+02  7.91486E+02 -2.59457E+03
  5.10259E+03 -1.30236E+03  7.37528E+03  7.83970E+02  7.49335E+03  4.35845E+03  6.13024E+03  9.69567E+03
 -1.76508E+03  1.10245E+04 -9.62392E+03  8.44250E+03 -1.24768E+04  1.48781E+03 -1.02039E+04 -3.52775E+03
 -5.36632E+03 -8.13316E+03 -5.42610E+02 -6.87736E+03  2.69847E+03 -3.12849E+03  2.45693E+03 -2.65985E+03
  1.68654E+03 -1.75894E+03  2.56266E+03 -2.66071E+03  4.15961E+03 -1.71800E+03  4.29135E+03  2.25103E+02
  5.53943E+03  1.46751E+03  1.69704E+03  4.50765E+03 -1.38578E+03  4.11963E+03 -5.72912E+03  3.55558E+03
 -6.37291E+03 -1.14650E+03 -2.93963E+03 -4.39431E+03  1.26901E+02 -6.62792E+03  3.98194E+03 -7.19276E+03
  6.91692E+03 -4.20817E+03  8.74691E+03  8.26151E+02  6.12325E+03  5.78565E+03  1.17438E+03  7.91454E+03
 -2.97705E+03  7.22338E+03 -4.20524E+03  2.12461E+03 -2.51184E+03 -1.02530E+03 -8.41195E+02 -9.89158E+02
 -6.50525E+02  1.51436E+02 -1.09856E+03  1.84031E+03 -2.92283E+03  1.41366E+03 -5.42781E+03 -6.11489E+02
 -2.30541E+03 -4.88429E+03  8.60764E+02 -6.39915E+03  3.32184E+03 -5.67444E+03  5.38614E+03 -1.75797E+03
  5.80782E+03  2.94995E+03  2.49784E+03  4.80644E+03 -1.06883E+03  6.01924E+03 -4.01808E+03  3.55374E+03
 -5.31634E+03  4.43378E+02 -4.57491E+03 -3.34981E+03 -4.91516E+02 -4.55993E+03  2.27796E+03 -3.52835E+03
  3.31608E+03 -1.68140E+03  2.70403E+03  8.54753E+02  6.34559E+02  2.01105E+03  8.98726E+02  6.16557E+02
  1.96451E+03  4.56868E+02  1.42883E+03  1.27989E+03  1.71088E+03  2.74765E+03  1.59033E+03  2.56856E+03
 -1.67631E+03  4.13230E+03 -3.67146E+03  5.12401E+03 -4.82589E+03  1.56927E+03 -5.87238E+03 -1.45288E+03
 -2.76331E+03 -5.53846E+03  1.04547E+03 -6.67271E+03  3.07219E+03 -3.70565E+03  4.54024E+03 -1.09886E+03
  3.72060E+03  2.37093E+03  4.03077E+02  3.31592E+03 -1.18812E+03  2.18121E+03 -1.96622E+03  1.24071E+02
 -9.96600E+02 -2.32622E+03  1.50865E+03 -2.20165E+03  2.04264E+03 -1.40230E+03  2.26520E+03  4.13599E+02
  1.00706E+03  8.15275E+02  7.53148E+02 -4.48532E+01 -4.09458E+02  7.00828E+02  1.42682E+03 -1.77000E+02
  5.69845E+02 -3.95536E+02  2.12558E+03  1.02791E+03  6.79991E+02  3.03459E+03 -6.30422E+02  3.86835E+03
 -2.39802E+03  1.69895E+03 -3.20129E+03  5.09629E+02 -3.01261E+03 -1.16307E+03 -4.88174E+02 -1.29787E+03
  4.99097E+02 -1.90971E+03  1.17414E+03 -1.00405E+03  1.36916E+03  1.35500E+03 -8.77787E+02  1.79277E+03
 -2.09789E+03  1.17450E+03 -2.13607E+03 -1.80779E+03 -1.22563E+03 -3.56338E+03  1.77353E+02 -2.56269E+03
  1.45152E+03 -1.27980E+03  1.41815E+03  1.73953E+02  2.08702E+03  1.79431E+02  3.37048E+02  1.43048E+03
 -7.75800E+02  1.77788E+02 -1.31968E+03 -6.21852E+02  4.60529E+02 -1.37487E+03  2.25920E+03 -1.43617E+03
  2.52717E+03  1.33209E+01  3.38633E+03  1.40823E+03  1.19942E+03  2.95232E+03 -1.09369E+03  2.77105E+03
 -2.32134E+03  8.69976E+02 -2.32683E+03 -2.28138E+02 -1.37334E+03 -2.04009E+03  1.41852E+02 -1.42296E+03
  1.95752E+03 -1.39399E+03  1.27045E+03  9.43172E+02  2.79781E+02  1.97387E+03  7.27186E+01  1.58743E+03
 -5.02202E+02  1.30734E+03 -7.62842E+02  3.09903E+02 -2.82242E+02  3.67039E+02 -8.14403E+02  7.00082E+02
 -1.03412E+03  1.65108E+03 -2.24069E+03  5.84443E+02 -2.83200E+03  1.87725E+02 -3.52602E+03 -1.54472E+03
 -1.91805E+03 -3.67976E+03  8.35201E+02 -4.33220E+03  2.33948E+03 -3.84834E+03  4.22963E+03 -1.74930E+03
  3.61795E+03  1.66691E+02  2.05302E+03  2.64205E+03 -3.17791E+02  2.27993E+03 -1.20919E+03  1.99405E+03
 -1.43964E+03  1.27911E+03 -8.45366E+02 -4.25706E+02 -5.32528E+02  1.37305E+02 -9.49087E+02 -2.61346E+02
 -1.46963E+03 -1.06147E+02 -1.35331E+03 -1.84801E+02  6.59362E+01 -9.37655E+02 -3.36942E+02 -1.17126E+03
  1.49353E+03 -1.08888E+03  6.78864E+02  8.62417E+01  1.87153E+03  1.31400E+03 -1.63821E+02  2.63409E+03
 -1.34607E+03  3.43954E+03 -2.90704E+03  2.22437E+03 -2.79015E+03  4.71247E+01 -2.20070E+03 -2.02296E+03
 -1.03306E+03 -2.45895E+03  7.04739E+02 -2.16874E+03  1.43633E+03 -1.02219E+03  1.46225E+03  1.11712E+02
  9.51728E+02  6.87867E+02  1.22325E+02  7.51755E+02 -5.68197E+02  2.63811E+02  2.69789E+02 -2.91997E+02
  1.10869E+03  4.45368E+01  7.88481E+02  6.96055E+02  3.05795E+02  7.38145E+02  4.98796E+02  9.39441E+02
 -6.13603E+02  7.60580E+02 -1.18453E+03 -1.14659E+02 -1.57406E+03 -9.87231E+02 -4.19119E+01 -2.31990E+03
  1.11756E+03 -1.31985E+03  1.05337E+03 -5.51709E+02  1.96924E+03 -1.11964E+02  9.68562E+02  1.19937E+03
  4.06343E+02  1.51708E+03 -4.68248E+02  1.08678E+03 -9.27457E+02  8.22286E+02 -6.99672E+02  1.00010E+02
 -2.22184E+02 -1.47410E+02 -4.75357E+02  4.37954E+02 -1.22647E+03  6.49590E+02 -1.14255E+03 -3.10043E+02
 -1.44958E+03 -1.00187E+02 -4.75879E+02 -1.67870E+03  1.11520E+03 -2.24074E+03  1.40058E+03 -5.59529E+02
  1.37527E+03 -5.26893E+01  1.34106E+02  8.69574E+02 -1.03746E+02  1.34976E+03 -1.19236E+03  1.25695E+03
