 $NMID ID='MM_0lb_SNR800_8hz_g50_88.RAW', FMTDAT='(8E13.5)'
 TRAMP=1., VOLUME=1. $END
  3.09956E+05  7.97318E+02  3.37775E+05  2.50962E+05  8.50243E+04  3.38440E+05 -1.33124E+05  2.51788E+05
 -1.90946E+05  8.38610E+04 -1.12696E+05 -3.19482E+04 -1.56372E+02 -5.06742E+04  5.39571E+04 -4.31660E+02
  3.55768E+04  5.30009E+04 -1.66081E+04  7.61618E+04 -6.13182E+04  6.43976E+04 -8.54916E+04  3.22404E+04
 -8.29920E+04 -1.22096E+04 -5.82539E+04 -5.26651E+04 -1.53684E+04 -7.10349E+04  2.79494E+04 -4.69145E+04
  4.15169E+04  3.36904E+03  1.71446E+04  4.91331E+04 -3.49735E+04  4.82919E+04 -6.84788E+04  1.55351E+02
 -5.47629E+04 -5.80618E+04 -7.48724E+03 -7.94251E+04  3.54598E+04 -5.73369E+04  4.99174E+04 -1.84117E+04
  4.54765E+04  1.14017E+04  3.30589E+04  2.71001E+04  1.55425E+04  3.09606E+04 -6.30931E+03  2.81432E+04
 -2.25730E+04  1.20084E+04 -1.76097E+04 -5.55982E+03  7.23405E+03 -7.51917E+03  2.36708E+04  1.38860E+04
  7.47154E+03  3.73974E+04 -3.39284E+04  3.74544E+04 -6.66130E+04  2.20811E+03 -5.90919E+04 -4.43832E+04
 -1.26195E+04 -6.62780E+04  4.20770E+04 -4.82653E+04  6.26151E+04 -2.46246E+03  3.78044E+04  3.49087E+04
 -5.31850E+03  4.00715E+04 -3.17096E+04  1.92845E+04 -3.38457E+04 -3.42020E+03 -1.99638E+04 -1.21641E+04
 -9.54129E+03 -1.54694E+04 -3.93119E+02 -2.04746E+04  8.96159E+03 -2.36628E+04  1.58781E+04 -1.25607E+04
  1.00265E+04  6.20746E+03 -1.11422E+04  1.25225E+04 -2.38639E+04 -7.09139E+03 -9.06603E+03 -3.84783E+04
  2.52937E+04 -4.70373E+04  5.28026E+04 -2.09857E+04  4.93846E+04  2.13373E+04  1.76538E+04  4.74656E+04
 -1.67693E+04  3.69173E+04 -2.76534E+04  2.60488E+03 -1.19646E+04 -2.97886E+04  2.13178E+04 -3.76704E+04
  4.50917E+04 -1.15046E+04  4.12670E+04  2.54551E+04  2.20950E+04  5.19124E+04 -8.04581E+03  5.74811E+04
 -3.65532E+04  3.91105E+04 -4.88714E+04  1.13938E+04 -4.87558E+04 -1.89735E+04 -2.66527E+04 -4.32075E+04
  8.01020E+03 -4.29822E+04  3.48899E+04 -1.75220E+04  3.23942E+04  1.13550E+04  5.54363E+03  2.11981E+04
 -1.42549E+04  9.93141E+03 -1.13052E+04 -7.71632E+03  5.57795E+03 -1.17071E+04  1.89202E+04  5.48006E+03
  1.49946E+04  2.30672E+04 -5.04152E+03  2.76851E+04 -2.35389E+04  1.47800E+04 -3.24384E+04 -2.56692E+03
 -2.68585E+04 -1.86936E+04 -1.25932E+04 -2.61711E+04  4.96437E+03 -2.70159E+04  2.08502E+04 -2.36829E+04
  3.31908E+04 -1.49900E+04  3.91120E+04  5.20077E+03  2.74176E+04  2.50950E+04  4.56682E+03  4.22562E+04
 -2.01412E+04  3.44350E+04 -3.15271E+04  1.16335E+04 -2.27061E+04 -1.04434E+04 -4.86998E+03 -1.28714E+04
  5.73706E+02 -7.81457E+02 -8.62989E+03  8.41646E+03 -2.12265E+04  4.61717E+03 -2.09122E+04 -9.73803E+03
 -1.26094E+04 -2.41065E+04  6.33861E+03 -2.87504E+04  1.92792E+04 -2.03148E+04  2.37542E+04 -1.46816E+03
  1.52363E+04  1.68608E+04 -1.05352E+03  2.42008E+04 -1.75057E+04  1.40645E+04 -2.48147E+04 -5.34500E+03
 -1.82695E+04 -2.18309E+04 -1.76563E+03 -2.87901E+04  1.31662E+04 -2.47110E+04  2.37818E+04 -1.26415E+04
  2.30254E+04 -6.00575E+02  1.67706E+04  5.71918E+03  9.33597E+03  1.75767E+03  1.25325E+04 -1.83271E+03
  2.26841E+04  3.02209E+03  2.66283E+04  1.85947E+04  1.87350E+04  3.95050E+04 -2.62503E+03  4.64417E+04
 -2.66732E+04  3.90059E+04 -4.37492E+04  2.05190E+04 -4.70771E+04 -3.21281E+03 -3.82321E+04 -2.77131E+04
 -1.48002E+04 -3.94963E+04  1.38464E+04 -3.43129E+04  2.95592E+04 -1.59760E+04  2.50498E+04  8.32331E+03
  8.41844E+03  1.97415E+04 -1.21378E+04  1.58976E+04 -2.08198E+04  2.74767E+03 -1.60914E+04 -1.32341E+04
  1.44645E+02 -1.99996E+04  1.12058E+04 -1.47286E+04  1.41093E+04 -1.31104E+03  3.53150E+03  9.05049E+03
 -9.02911E+03  4.70934E+03 -9.97710E+03 -6.90741E+03 -1.78523E+03 -1.89794E+04  1.23040E+04 -2.09352E+04
  2.45017E+04 -1.21207E+04  2.82831E+04  3.15914E+03  2.41875E+04  1.95370E+04  1.11037E+04  3.09185E+04
 -6.01815E+03  3.30205E+04 -2.15386E+04  2.04540E+04 -2.42980E+04  3.65110E+03 -1.61495E+04 -6.49931E+03
 -6.50951E+03 -7.67366E+03 -4.39135E+02  4.52107E+02 -3.00956E+03  3.66379E+03 -8.17872E+03  5.35323E+03
 -1.54050E+04 -1.13467E+03 -1.58123E+04 -1.23601E+04 -5.90802E+03 -2.02746E+04  6.77723E+03 -1.65040E+04
  1.38136E+04 -7.37754E+03  9.22583E+03  5.01622E+03 -6.06488E+02  6.29007E+03 -8.90103E+03 -3.33195E+02
 -8.43879E+03 -1.04487E+04 -1.17576E+03 -1.67869E+04  9.71395E+03 -1.81035E+04  2.14486E+04 -9.55347E+03
  2.57866E+04  2.63281E+03  1.82093E+04  1.54202E+04  3.77199E+03  2.03021E+04 -1.01271E+04  1.64156E+04
 -1.34490E+04  4.87886E+03 -7.08765E+03 -3.41540E+03  2.82845E+03 -4.85906E+03  8.55591E+03 -1.09285E+03
  7.99130E+03  7.41530E+03  1.10134E+03  1.32521E+04 -9.99957E+03  1.30189E+04 -1.65363E+04  2.80916E+03
 -1.18729E+04 -9.22777E+03  2.16032E+02 -1.48328E+04  9.51989E+03 -7.05848E+03  1.01810E+04  3.88109E+03
  2.46181E+03  1.10673E+04 -8.70740E+03  1.31940E+04 -1.47443E+04  5.51465E+03 -1.53126E+04 -5.14003E+03
 -8.56038E+03 -1.76182E+04  4.15561E+03 -1.98637E+04  1.72736E+04 -1.17339E+04  1.81555E+04  3.30888E+03
  1.08227E+04  1.51328E+04 -1.67022E+03  1.73861E+04 -1.27842E+04  1.00805E+04 -1.40594E+04 -1.02100E+03
 -1.14814E+04 -1.09639E+04 -1.87054E+03 -1.32839E+04  6.75786E+03 -1.02591E+04  8.27959E+03 -3.69574E+03
  5.36370E+03  2.05725E+03 -1.19193E+03  2.14099E+03 -1.35121E+03 -3.86558E+03  3.28420E+03 -8.93067E+03
  1.27006E+04 -5.78204E+03  1.82473E+04  2.03040E+03  1.72916E+04  1.22677E+04  1.07479E+04  2.32873E+04
 -5.92026E+03  2.62129E+04 -2.19603E+04  1.93759E+04 -2.87924E+04  3.39655E+03 -2.29143E+04 -9.85861E+03
 -1.14477E+04 -1.85861E+04 -2.70617E+02 -1.59101E+04  5.58121E+03 -8.87903E+03  5.91874E+03 -5.80955E+03
  4.39575E+03 -3.22701E+03  4.25929E+03 -4.34243E+03  6.35996E+03 -3.93851E+03  8.27038E+03 -1.94435E+03
  1.13751E+04  2.49249E+03  6.90337E+03  1.03955E+04 -2.20456E+03  1.32320E+04 -1.22773E+04  9.48367E+03
 -1.63093E+04 -1.68597E+03 -1.06451E+04 -1.13707E+04 -1.77519E+03 -1.79970E+04  9.77201E+03 -1.73846E+04
  1.84520E+04 -1.00313E+04  2.21139E+04  3.00642E+03  1.47211E+04  1.49506E+04  2.52353E+03  1.94939E+04
 -8.34312E+03  1.60810E+04 -1.19039E+04  5.68157E+03 -8.06418E+03 -1.94913E+03 -3.31569E+03 -2.53960E+03
 -1.30675E+03 -1.32545E+02 -2.72978E+03  2.90302E+03 -6.59489E+03  3.21640E+03 -1.11382E+04 -2.15926E+03
 -8.15613E+03 -1.08711E+04 -1.31254E+02 -1.65344E+04  1.04384E+04 -1.49767E+04  1.67651E+04 -4.79891E+03
  1.64368E+04  8.23688E+03  8.00912E+03  1.48896E+04 -3.34383E+03  1.68599E+04 -1.22236E+04  1.04493E+04
 -1.56171E+04  8.82311E+02 -1.19939E+04 -1.01815E+04 -1.64015E+03 -1.37219E+04  7.87165E+03 -1.02926E+04
  1.05773E+04 -3.21795E+03  7.30157E+03  2.89886E+03  3.11332E+03  4.91548E+03  1.61933E+03  2.26805E+03
  3.06393E+03  1.43417E+03  3.89448E+03  1.96086E+03  4.56956E+03  5.79875E+03  4.00971E+03  9.02772E+03
 -3.68237E+03  1.32967E+04 -1.17539E+04  1.32075E+04 -1.81298E+04  3.51837E+03 -1.77591E+04 -7.61057E+03
 -8.86260E+03 -1.68306E+04  2.49436E+03 -1.89920E+04  1.03921E+04 -1.18760E+04  1.40372E+04 -3.17548E+03
  1.09595E+04  6.25982E+03  2.13414E+03  9.90264E+03 -5.11952E+03  6.47749E+03 -7.48298E+03 -1.26308E+03
 -2.94452E+03 -7.49189E+03  3.98794E+03 -7.24864E+03  7.14514E+03 -3.80576E+03  7.16558E+03  1.63077E+03
  3.96826E+03  3.94275E+03  1.76816E+03  2.84022E+03 -8.28467E+02  2.36194E+03  1.68889E+03 -4.99003E+02
  2.71143E+03 -1.11756E+03  6.91780E+03  2.83747E+03  4.42110E+03  9.22334E+03 -1.71674E+03  1.22183E+04
 -8.09679E+03  8.16514E+03 -1.14713E+04  2.80419E+03 -9.76384E+03 -4.01000E+03 -4.54482E+03 -7.32934E+03
  1.52383E+03 -6.72475E+03  4.35482E+03 -3.45016E+03  4.08510E+03  3.58690E+03 -1.20005E+03  5.94345E+03
 -7.19788E+03  3.31010E+03 -8.45608E+03 -3.82486E+03 -4.87393E+03 -9.59676E+03  1.67410E+03 -9.91481E+03
  5.78663E+03 -5.81476E+03  7.63926E+03 -7.36562E+02  5.29272E+03  2.37011E+03  4.51039E+02  5.06168E+03
 -3.89239E+03  1.86395E+03 -4.26422E+03 -3.78449E+03  1.66317E+03 -7.49840E+03  8.81368E+03 -6.21490E+03
  1.12445E+04  1.01713E+03  1.07654E+04  7.70730E+03  3.36416E+03  1.20393E+04 -4.59785E+03  1.12826E+04
 -9.77438E+03  5.24211E+03 -9.85088E+03 -1.69968E+03 -5.47295E+03 -7.54556E+03  1.85719E+03 -7.09228E+03
  6.90291E+03 -3.30088E+03  6.22101E+03  2.77054E+03  2.12397E+03  6.37571E+03 -1.71208E+03  6.05671E+03
 -3.22044E+03  4.11332E+03 -3.06452E+03  1.47563E+03 -1.54660E+03  1.11740E+03 -1.82572E+03  1.86996E+03
 -3.41611E+03  4.36299E+03 -7.31802E+03  4.03264E+03 -1.15880E+04  2.82764E+02 -1.33595E+04 -8.08628E+03
 -7.01081E+03 -1.59829E+04  2.93870E+03 -1.83373E+04  1.15840E+04 -1.42254E+04  1.72554E+04 -5.40071E+03
  1.61077E+04  3.43097E+03  1.00743E+04  1.13604E+04  1.48774E+03  1.30195E+04 -4.88739E+03  9.10122E+03
 -6.90083E+03  3.70002E+03 -4.24306E+03 -1.36368E+03 -1.58968E+03 -1.19297E+03 -8.94074E+02 -2.08613E+02
 -1.75687E+03  2.65010E+02 -2.15559E+03 -2.27452E+02 -8.00644E+02 -3.01972E+03  5.22571E+02 -4.37493E+03
  5.61200E+03 -4.18211E+03  7.63963E+03 -7.43800E+01  8.87937E+03  6.62987E+03  2.67744E+03  1.25592E+04
 -6.07960E+03  1.43554E+04 -1.36386E+04  8.17867E+03 -1.55653E+04 -8.90783E+02 -1.15110E+04 -9.11956E+03
 -4.43385E+03 -1.27157E+04  3.60115E+03 -1.23111E+04  8.34937E+03 -6.49071E+03  8.24831E+03  2.54653E+02
  4.71335E+03  4.01077E+03 -5.98718E+02  3.51546E+03 -2.40104E+03 -2.70306E+02  1.07711E+02 -3.53954E+03
  3.90476E+03 -1.73885E+03  4.80728E+03  1.28906E+03  2.98976E+03  5.12794E+03  2.11864E+02  6.49219E+03
 -5.45486E+03  6.24772E+03 -8.57425E+03  2.88390E+02 -7.07391E+03 -5.69831E+03 -1.16064E+03 -1.08700E+04
  5.78570E+03 -9.06462E+03  1.03371E+04 -2.64828E+03  9.81330E+03  2.18001E+03  5.65145E+03  7.78389E+03
  1.42602E+03  8.71442E+03 -3.26012E+03  6.69740E+03 -5.06365E+03  3.82241E+03 -4.72750E+03  6.40500E+02
 -2.45581E+03 -4.33184E+02 -2.43181E+03  1.15490E+03 -4.48050E+03  1.55416E+03 -6.79541E+03 -9.27701E+02
 -6.23545E+03 -4.09974E+03 -1.93671E+03 -8.73967E+03  4.00045E+03 -9.02994E+03  7.55974E+03 -3.90932E+03
  8.67602E+03  4.72667E+02  4.84324E+03  6.33688E+03 -9.48559E+02  8.57976E+03 -6.77214E+03  5.42119E+03
