 $NMID ID='MM_0lb_SNR800_13hz_g40_40.RAW', FMTDAT='(8E13.5)'
 TRAMP=1., VOLUME=1. $END
  3.09911E+05  6.57679E+01  3.37754E+05  2.50610E+05  8.43047E+04  3.38198E+05 -1.32626E+05  2.50900E+05
 -1.90242E+05  8.27366E+04 -1.11760E+05 -3.29042E+04  8.77023E+02 -5.02291E+04  5.40319E+04 -1.26633E+02
  3.55267E+04  5.30970E+04 -1.68693E+04  7.52870E+04 -6.09543E+04  6.34607E+04 -8.40217E+04  3.19213E+04
 -8.11282E+04 -1.15587E+04 -5.70676E+04 -5.10861E+04 -1.47873E+04 -6.96963E+04  2.71829E+04 -4.58447E+04
  3.97830E+04  3.91166E+03  1.58792E+04  4.77131E+04 -3.43037E+04  4.68889E+04 -6.63449E+04 -3.41445E+02
 -5.33300E+04 -5.68101E+04 -6.65947E+03 -7.69092E+04  3.37284E+04 -5.48711E+04  4.78433E+04 -1.72397E+04
  4.35073E+04  1.14463E+04  3.18806E+04  2.54621E+04  1.58704E+04  2.92316E+04 -4.99460E+03  2.72950E+04
 -2.22332E+04  1.22575E+04 -1.88131E+04 -4.63041E+03  5.61122E+03 -7.59226E+03  2.25097E+04  1.24088E+04
  7.49370E+03  3.53973E+04 -3.17345E+04  3.53910E+04 -6.31970E+04  2.07669E+03 -5.71069E+04 -4.25760E+04
 -1.26810E+04 -6.31562E+04  3.96404E+04 -4.49833E+04  5.80080E+04 -2.22927E+03  3.40622E+04  3.25853E+04
 -6.08730E+03  3.58510E+04 -2.98067E+04  1.55985E+04 -3.01125E+04 -4.27110E+03 -1.66013E+04 -1.10694E+04
 -8.29843E+03 -1.28115E+04 -9.96733E+02 -1.80423E+04  7.29342E+03 -2.30641E+04  1.56022E+04 -1.34951E+04
  1.16912E+04  5.44345E+03 -8.31242E+03  1.28289E+04 -2.10948E+04 -4.04184E+03 -8.25446E+03 -3.38112E+04
  2.27374E+04 -4.34425E+04  4.78666E+04 -1.94356E+04  4.49165E+04  1.95184E+04  1.57307E+04  4.40791E+04
 -1.59019E+04  3.37468E+04 -2.52446E+04  1.58792E+03 -9.58887E+03 -2.81067E+04  2.07025E+04 -3.37210E+04
  4.11652E+04 -8.48138E+03  3.54756E+04  2.38456E+04  1.81357E+04  4.65749E+04 -8.04001E+03  5.02365E+04
 -3.17593E+04  3.36132E+04 -4.20738E+04  9.55206E+03 -4.26353E+04 -1.65458E+04 -2.33271E+04 -3.79182E+04
  7.40965E+03 -3.77089E+04  3.15506E+04 -1.45352E+04  2.89829E+04  1.06751E+04  4.04499E+03  1.91847E+04
 -1.34052E+04  8.40414E+03 -1.04502E+04 -7.76335E+03  5.89323E+03 -1.08577E+04  1.79771E+04  6.02508E+03
  1.33426E+04  2.23226E+04 -5.95176E+03  2.50504E+04 -2.23912E+04  1.13303E+04 -2.78880E+04 -4.72044E+03
 -2.08750E+04 -1.73202E+04 -8.03348E+03 -2.04824E+04  3.83340E+03 -1.92902E+04  1.57668E+04 -1.81198E+04
  2.60012E+04 -1.26754E+04  3.25723E+04  3.22885E+03  2.36954E+04  1.98401E+04  4.35130E+03  3.64686E+04
 -1.76920E+04  3.01140E+04 -2.80300E+04  1.02241E+04 -2.08807E+04 -1.03387E+04 -4.21991E+03 -1.34532E+04
  1.71916E+03 -2.53581E+03 -5.03282E+03  6.88127E+03 -1.55763E+04  5.21005E+03 -1.62699E+04 -7.06615E+03
 -1.00744E+04 -1.89601E+04  5.25409E+03 -2.30832E+04  1.51062E+04 -1.64307E+04  1.79961E+04 -1.63666E+03
  1.13567E+04  1.34755E+04 -8.23191E+02  1.91689E+04 -1.30393E+04  1.07224E+04 -1.92594E+04 -4.19587E+03
 -1.38036E+04 -1.70001E+04 -1.93781E+03 -2.31529E+04  1.02089E+04 -1.86989E+04  1.93468E+04 -9.08309E+03
  1.75880E+04  3.61688E+02  1.30288E+04  4.63545E+03  6.90150E+03  1.09694E+03  9.84928E+03 -1.39933E+03
  1.78271E+04  2.90143E+03  1.94372E+04  1.52882E+04  1.29055E+04  3.03297E+04 -3.30043E+03  3.45948E+04
 -2.01576E+04  2.80032E+04 -3.20319E+04  1.42397E+04 -3.36944E+04 -2.56958E+03 -2.77678E+04 -1.93049E+04
 -1.24431E+04 -2.79223E+04  9.51620E+03 -2.49718E+04  2.14303E+04 -1.29024E+04  1.95679E+04  5.38270E+03
  7.38924E+03  1.47124E+04 -8.96721E+03  1.26944E+04 -1.62623E+04  2.42383E+03 -1.21653E+04 -1.01211E+04
 -1.44366E+02 -1.55532E+04  7.90874E+03 -1.16705E+04  1.02641E+04 -1.36977E+03  2.40205E+03  6.70921E+03
 -6.88822E+03  2.74846E+03 -5.90154E+03 -5.42489E+03 -6.50603E+02 -1.36409E+04  9.65143E+03 -1.46476E+04
  1.67754E+04 -7.43204E+03  1.81743E+04  3.24031E+03  1.61481E+04  1.32609E+04  7.52956E+03  2.04502E+04
 -3.54698E+03  2.24433E+04 -1.41783E+04  1.42228E+04 -1.65391E+04  3.56258E+03 -1.14043E+04 -3.55778E+03
 -5.39708E+03 -4.96545E+03 -5.98036E+02  1.20591E+03 -2.23050E+03  2.62752E+03 -5.28243E+03  4.10018E+03
 -1.08587E+04 -6.49421E+02 -1.09718E+04 -9.49190E+03 -4.74946E+03 -1.48908E+04  4.65234E+03 -1.17426E+04
  9.58375E+03 -5.41423E+03  6.78630E+03  2.77314E+03  2.26524E+02  4.35334E+03 -5.20237E+03 -1.44121E+02
 -5.27861E+03 -7.41887E+03 -9.60834E+02 -1.10895E+04  6.24659E+03 -1.15827E+04  1.41668E+04 -6.07849E+03
  1.68490E+04  1.48244E+03  1.23141E+04  9.54991E+03  2.39037E+03  1.29596E+04 -7.05355E+03  1.13066E+04
 -9.41944E+03  3.59740E+03 -4.72616E+03 -2.23175E+03  1.88374E+03 -3.17050E+03  6.55418E+03 -8.70290E+02
  5.58832E+03  5.21002E+03  1.05843E+03  8.89354E+03 -6.42431E+03  8.63013E+03 -1.13227E+04  2.64378E+03
 -7.42851E+03 -5.82289E+03  3.95682E+02 -9.75335E+03  5.85380E+03 -4.81872E+03  5.87447E+03  2.14656E+03
  1.18286E+03  5.81909E+03 -6.07015E+03  7.91011E+03 -8.62026E+03  3.63878E+03 -8.68217E+03 -2.71443E+03
 -5.20864E+03 -1.03093E+04  2.16657E+03 -1.21187E+04  9.83058E+03 -7.43074E+03  1.08538E+04  1.76286E+03
  6.97999E+03  8.67638E+03 -5.90141E+02  1.10151E+04 -7.47395E+03  6.21451E+03 -8.42609E+03 -8.76836E+02
 -7.63404E+03 -7.40489E+03 -1.35789E+03 -8.11884E+03  3.96655E+03 -6.69059E+03  4.91060E+03 -3.15888E+03
  3.68423E+03  1.02511E+03 -5.93354E+02  1.61865E+03 -1.26089E+02 -1.58670E+03  9.83241E+02 -4.20038E+03
  6.84792E+03 -2.44194E+03  9.78006E+03  1.07797E+03  9.52525E+03  6.40045E+03  6.96908E+03  1.33508E+04
 -2.53617E+03  1.50693E+04 -1.27235E+04  1.12459E+04 -1.61993E+04  2.01053E+03 -1.33490E+04 -5.30985E+03
 -6.97012E+03 -1.07606E+04 -5.85879E+02 -8.85796E+03  3.18138E+03 -4.50393E+03  3.10284E+03 -3.82018E+03
  2.20182E+03 -2.23326E+03  2.80267E+03 -3.11467E+03  4.59423E+03 -2.29506E+03  5.91864E+03 -6.17184E+02
  7.01229E+03  1.70736E+03  2.97299E+03  5.45898E+03 -1.83335E+03  6.32926E+03 -7.41992E+03  4.87215E+03
 -8.95051E+03 -9.34584E+02 -5.16013E+03 -6.31100E+03 -4.30522E+02 -9.37350E+03  5.67508E+03 -9.58460E+03
  9.69330E+03 -5.36248E+03  1.20440E+04  1.10844E+03  8.68664E+03  8.16789E+03  1.88360E+03  1.08746E+04
 -4.22408E+03  9.75604E+03 -5.96119E+03  3.12657E+03 -4.09439E+03 -1.18321E+03 -1.84376E+03 -1.56937E+03
 -7.21103E+02  1.98720E+02 -1.34395E+03  2.17649E+03 -4.02016E+03  1.83776E+03 -6.43466E+03 -1.09086E+03
 -3.90096E+03 -6.25889E+03  1.29274E+02 -8.67028E+03  5.22300E+03 -7.82161E+03  8.09457E+03 -2.53232E+03
  8.61035E+03  4.20195E+03  3.63330E+03  7.47075E+03 -1.57989E+03  8.38159E+03 -5.68686E+03  5.28304E+03
 -7.86789E+03  6.16111E+02 -6.09008E+03 -5.08054E+03 -5.23008E+02 -7.13254E+03  3.34925E+03 -4.97693E+03
  5.03685E+03 -2.30132E+03  3.59779E+03  1.30603E+03  1.31870E+03  2.88024E+03  1.10868E+03  1.27821E+03
  2.08769E+03  7.86271E+02  2.08750E+03  1.24073E+03  2.75328E+03  3.25880E+03  2.24441E+03  4.15609E+03
 -1.99965E+03  6.50341E+03 -5.47486E+03  7.26042E+03 -7.88062E+03  1.66657E+03 -9.08852E+03 -2.56131E+03
 -4.10662E+03 -8.12403E+03  1.33447E+03 -9.48160E+03  4.62673E+03 -5.64382E+03  6.81793E+03 -1.57869E+03
  5.17186E+03  2.93642E+03  1.08299E+03  4.61274E+03 -1.90474E+03  2.84626E+03 -3.06213E+03 -2.25822E+02
 -1.67571E+03 -3.26658E+03  2.35137E+03 -3.36250E+03  3.19459E+03 -2.10412E+03  3.08015E+03  8.11946E+02
  1.86565E+03  1.43107E+03  9.73112E+02  1.00207E+03 -5.15061E+02  1.32756E+03  1.45033E+03 -4.38875E+02
  1.01329E+03 -3.81222E+02  3.45471E+03  1.38374E+03  1.50477E+03  4.65909E+03 -4.56641E+02  5.71108E+03
 -3.83736E+03  3.13558E+03 -5.18580E+03  8.87087E+02 -4.52177E+03 -1.75562E+03 -1.21955E+03 -2.81481E+03
  5.07838E+02 -3.16545E+03  2.18224E+03 -1.30407E+03  1.88135E+03  2.08020E+03 -1.57841E+03  2.81959E+03
 -3.25337E+03  1.27153E+03 -3.59335E+03 -1.98761E+03 -1.90762E+03 -4.57447E+03  6.67716E+02 -4.25875E+03
  2.26536E+03 -2.14063E+03  2.97281E+03  3.50301E+01  2.63108E+03  6.29571E+02  3.72158E+02  2.84465E+03
 -1.22786E+03  5.06971E+02 -1.97709E+03 -1.42613E+03  1.09109E+03 -2.88716E+03  3.96756E+03 -2.26493E+03
  4.28975E+03  4.39567E+02  5.05687E+03  2.84971E+03  1.83613E+03  5.06136E+03 -1.26902E+03  4.71048E+03
 -3.93302E+03  1.39469E+03 -3.94265E+03 -5.23734E+02 -2.15656E+03 -3.18425E+03  8.68134E+02 -2.64905E+03
  3.07902E+03 -1.66356E+03  2.45472E+03  1.18786E+03  4.87702E+02  2.82054E+03 -1.43702E+02  2.52118E+03
 -1.06129E+03  2.11027E+03 -9.97194E+02  6.39397E+02 -2.81026E+02  6.26583E+02 -1.09352E+03  1.29995E+03
 -1.60782E+03  2.18888E+03 -3.37553E+03  1.59357E+03 -4.67505E+03  1.83060E+02 -5.52850E+03 -2.86794E+03
 -2.76475E+03 -6.07996E+03  1.24742E+03 -7.18133E+03  4.11398E+03 -5.70639E+03  7.08496E+03 -2.38319E+03
  6.12351E+03  7.87247E+02  3.93698E+03  4.35404E+03  3.08179E+01  4.67702E+03 -1.75581E+03  3.61825E+03
 -2.65558E+03  1.71414E+03 -1.52459E+03 -5.08749E+02 -5.31191E+02 -1.91343E+02 -8.71917E+02 -2.62381E+02
 -1.54200E+03  1.36253E+02 -1.34766E+03 -1.87370E+02 -1.10459E+02 -1.40890E+03 -3.94752E+02 -1.70464E+03
  2.77071E+03 -1.65145E+03  2.33079E+03  2.22585E+01  3.47498E+03  2.86710E+03  1.44136E+02  4.64109E+03
 -2.46280E+03  5.48723E+03 -4.97390E+03  3.42468E+03 -5.40235E+03 -2.59753E+02 -3.91192E+03 -3.31272E+03
 -2.10053E+03 -4.46253E+03  9.47308E+02 -3.94216E+03  2.73845E+03 -2.26183E+03  2.63019E+03  3.41679E+02
  1.69978E+03  1.33366E+03 -1.15508E+02  1.40481E+03 -6.74549E+02 -2.21667E+02 -6.18731E+01 -9.22939E+02
  1.57675E+03 -1.33971E+02  1.38692E+03  6.41409E+02  1.16295E+03  1.77792E+03  6.18803E+02  2.08344E+03
 -1.77978E+03  2.04686E+03 -2.73966E+03  2.69049E+02 -2.44005E+03 -2.26726E+03 -3.88504E+02 -3.80043E+03
  2.02399E+03 -2.97020E+03  3.11594E+03 -6.93138E+02  3.37112E+03  7.34285E+02  1.71837E+03  3.06108E+03
  7.75593E+02  2.59521E+03 -1.12812E+03  2.21728E+03 -1.83121E+03  1.51068E+03 -1.35552E+03 -2.33402E+00
 -7.40068E+02 -3.13116E+02 -1.16107E+03  6.07306E+02 -1.72051E+03  8.18163E+02 -2.63363E+03 -6.81142E+02
 -2.70091E+03 -1.33897E+03 -6.64636E+02 -3.02576E+03  1.61661E+03 -3.43594E+03  2.75628E+03 -1.41629E+03
  2.74929E+03  5.97273E+02  1.01037E+03  2.10212E+03 -2.86090E+02  2.85212E+03 -1.63897E+03  1.70493E+03
