 $NMID ID='MM_0lb_SNR800_15hz_g50_47.RAW', FMTDAT='(8E13.5)'
 TRAMP=1., VOLUME=1. $END
  3.10027E+05  2.07400E+02  3.37474E+05  2.50544E+05  8.45345E+04  3.37636E+05 -1.32632E+05  2.50921E+05
 -1.90140E+05  8.27448E+04 -1.12032E+05 -3.25965E+04  1.12757E+03 -5.06024E+04  5.39427E+04  3.28659E+01
  3.54833E+04  5.29273E+04 -1.67331E+04  7.55011E+04 -6.09823E+04  6.36825E+04 -8.40268E+04  3.20261E+04
 -8.05480E+04 -1.12974E+04 -5.72529E+04 -5.09315E+04 -1.52321E+04 -6.95434E+04  2.72115E+04 -4.56270E+04
  3.99428E+04  3.63018E+03  1.60513E+04  4.76311E+04 -3.41255E+04  4.68599E+04 -6.62550E+04 -5.79756E+02
 -5.32338E+04 -5.70962E+04 -6.56045E+03 -7.68942E+04  3.36880E+04 -5.47724E+04  4.77051E+04 -1.71809E+04
  4.31661E+04  1.12488E+04  3.15275E+04  2.53556E+04  1.59637E+04  2.90840E+04 -4.89256E+03  2.68948E+04
 -2.20278E+04  1.24597E+04 -1.87214E+04 -4.85392E+03  5.38509E+03 -7.46400E+03  2.21258E+04  1.20655E+04
  7.30849E+03  3.47983E+04 -3.21012E+04  3.53386E+04 -6.25899E+04  2.03286E+03 -5.66387E+04 -4.26622E+04
 -1.24840E+04 -6.26250E+04  3.95941E+04 -4.47229E+04  5.76842E+04 -2.01805E+03  3.39176E+04  3.19026E+04
 -6.13656E+03  3.59454E+04 -2.95590E+04  1.54749E+04 -3.01208E+04 -4.66197E+03 -1.63214E+04 -1.06076E+04
 -8.29896E+03 -1.29660E+04 -6.16621E+02 -1.75258E+04  7.33413E+03 -2.33498E+04  1.51681E+04 -1.35291E+04
  1.15932E+04  5.04713E+03 -7.76200E+03  1.29534E+04 -2.07572E+04 -4.03851E+03 -8.40841E+03 -3.33843E+04
  2.24037E+04 -4.31546E+04  4.75544E+04 -1.97100E+04  4.45063E+04  1.93368E+04  1.52693E+04  4.35019E+04
 -1.58873E+04  3.31540E+04 -2.50815E+04  1.68554E+03 -9.62195E+03 -2.76200E+04  2.08798E+04 -3.33899E+04
  4.04374E+04 -8.56649E+03  3.50988E+04  2.35992E+04  1.78184E+04  4.54913E+04 -8.09738E+03  4.93899E+04
 -3.11681E+04  3.31565E+04 -4.14901E+04  9.28577E+03 -4.16990E+04 -1.63856E+04 -2.32678E+04 -3.74735E+04
  7.04241E+03 -3.70785E+04  3.10859E+04 -1.43954E+04  2.89241E+04  1.07544E+04  3.86151E+03  1.87335E+04
 -1.34806E+04  8.33990E+03 -1.04118E+04 -7.34699E+03  6.01646E+03 -1.04613E+04  1.79025E+04  6.11291E+03
  1.32321E+04  2.19680E+04 -6.48187E+03  2.47826E+04 -2.24076E+04  1.11317E+04 -2.76485E+04 -4.81695E+03
 -1.99295E+04 -1.70313E+04 -7.99172E+03 -1.98051E+04  4.07301E+03 -1.87983E+04  1.52569E+04 -1.74535E+04
  2.53393E+04 -1.26999E+04  3.17588E+04  2.40455E+03  2.36176E+04  1.93729E+04  4.30467E+03  3.56019E+04
 -1.75502E+04  2.97913E+04 -2.74433E+04  1.02422E+04 -2.04657E+04 -1.03386E+04 -4.19877E+03 -1.36501E+04
  1.63179E+03 -3.03809E+03 -4.51277E+03  6.51014E+03 -1.54102E+04  5.37974E+03 -1.58101E+04 -6.77241E+03
 -9.61677E+03 -1.83843E+04  4.98211E+03 -2.22404E+04  1.50572E+04 -1.59612E+04  1.75065E+04 -1.56931E+03
  1.07016E+04  1.25254E+04 -1.23305E+03  1.81018E+04 -1.29324E+04  1.04376E+04 -1.82010E+04 -3.70613E+03
 -1.32470E+04 -1.64425E+04 -1.80825E+03 -2.19338E+04  1.03967E+04 -1.84211E+04  1.87558E+04 -9.12947E+03
  1.69898E+04  2.08627E+02  1.22741E+04  4.52242E+03  6.26502E+03  8.49271E+02  9.19374E+03 -1.87553E+03
  1.66453E+04  2.77966E+03  1.83935E+04  1.44206E+04  1.22415E+04  2.91430E+04 -3.07729E+03  3.26634E+04
 -1.90154E+04  2.61209E+04 -3.04121E+04  1.29313E+04 -3.21912E+04 -1.92595E+03 -2.64998E+04 -1.82713E+04
 -1.15768E+04 -2.59246E+04  8.65508E+03 -2.37871E+04  2.04041E+04 -1.20632E+04  1.82060E+04  5.00123E+03
  7.06342E+03  1.37061E+04 -8.97777E+03  1.21776E+04 -1.53758E+04  3.01270E+03 -1.19545E+04 -9.70518E+03
 -3.34350E+02 -1.49393E+04  7.47548E+03 -1.13052E+04  9.86614E+03 -1.28040E+03  1.92567E+03  6.03074E+03
 -6.51404E+03  2.12196E+03 -5.49607E+03 -5.05630E+03 -2.53626E+01 -1.30295E+04  9.22477E+03 -1.34030E+04
  1.61746E+04 -6.96974E+03  1.64585E+04  3.29342E+03  1.44448E+04  1.25660E+04  6.54595E+03  1.91420E+04
 -2.61616E+03  2.10158E+04 -1.31743E+04  1.27163E+04 -1.45840E+04  3.39677E+03 -1.07591E+04 -3.11964E+03
 -5.16294E+03 -4.28899E+03 -6.41290E+02  1.24998E+03 -1.98760E+03  2.42037E+03 -4.80699E+03  4.11585E+03
 -1.02487E+04 -2.23562E+02 -1.08905E+04 -8.90161E+03 -4.47272E+03 -1.40001E+04  4.61832E+03 -1.08502E+04
  9.20074E+03 -4.94835E+03  6.66072E+03  2.81340E+03  3.11942E+02  4.31068E+03 -4.95200E+03  1.37305E+01
 -4.89073E+03 -6.75854E+03 -6.34043E+02 -9.78985E+03  5.40436E+03 -1.08573E+04  1.31694E+04 -5.48427E+03
  1.51825E+04  1.44582E+03  1.15179E+04  8.67503E+03  1.85477E+03  1.17146E+04 -6.49537E+03  1.06816E+04
 -8.73375E+03  3.34082E+03 -4.57427E+03 -1.70785E+03  1.52634E+03 -2.84146E+03  6.02891E+03 -1.21279E+03
  4.85408E+03  4.40240E+03  1.27657E+03  8.30863E+03 -5.66477E+03  8.35597E+03 -1.02494E+04  2.13373E+03
 -6.71249E+03 -5.21834E+03  3.05553E+02 -8.52189E+03  5.34216E+03 -4.24678E+03  4.95079E+03  1.64157E+03
  1.26408E+03  5.16561E+03 -5.33684E+03  6.83560E+03 -7.45101E+03  2.87439E+03 -7.47037E+03 -2.02660E+03
 -4.40469E+03 -8.74891E+03  1.92448E+03 -1.03652E+04  8.97254E+03 -6.49257E+03  9.56349E+03  1.43894E+03
  6.35808E+03  7.35464E+03 -2.55457E+02  9.70449E+03 -7.14488E+03  5.75017E+03 -7.30848E+03 -7.52811E+02
 -7.32713E+03 -6.57946E+03 -1.60976E+03 -6.69977E+03  3.51208E+03 -5.98626E+03  4.40515E+03 -2.88481E+03
  3.49247E+03  5.62152E+02 -2.38451E+02  1.39137E+03  2.99846E+01 -1.44655E+03  1.04666E+03 -3.51873E+03
  5.79986E+03 -1.85173E+03  8.02681E+03  1.31965E+03  8.63323E+03  5.22585E+03  6.66121E+03  1.12671E+04
 -2.26214E+03  1.28279E+04 -1.11223E+04  9.71904E+03 -1.43585E+04  1.70505E+03 -1.13190E+04 -4.33921E+03
 -5.83897E+03 -9.42878E+03 -5.52602E+02 -7.66052E+03  3.13933E+03 -4.01743E+03  2.67681E+03 -3.01917E+03
  1.97681E+03 -1.69070E+03  2.87072E+03 -2.78727E+03  4.55137E+03 -1.73936E+03  4.97721E+03  9.44470E+01
  6.31978E+03  1.38591E+03  2.13860E+03  5.18232E+03 -1.39016E+03  5.36493E+03 -6.50243E+03  4.25765E+03
 -7.63274E+03 -1.44665E+03 -4.01267E+03 -5.02283E+03  6.58566E+00 -7.97653E+03  4.54870E+03 -8.40460E+03
  8.05838E+03 -4.64035E+03  1.01986E+04  8.88216E+02  7.45905E+03  6.95804E+03  1.23653E+03  9.08420E+03
 -3.30232E+03  8.20780E+03 -5.28249E+03  2.60644E+03 -3.26214E+03 -1.24744E+03 -1.25771E+03 -9.40758E+02
 -6.82573E+02  2.20360E+02 -1.56598E+03  2.53791E+03 -3.89138E+03  1.49048E+03 -6.02200E+03 -4.63378E+02
 -3.12204E+03 -5.61325E+03  6.54971E+02 -7.20276E+03  4.33980E+03 -6.80147E+03  6.67687E+03 -2.07350E+03
  6.62959E+03  3.35460E+03  3.14886E+03  5.99216E+03 -1.32824E+03  7.24395E+03 -4.63004E+03  4.61375E+03
 -6.27806E+03  5.34492E+02 -5.35156E+03 -4.06463E+03 -6.97236E+02 -5.55127E+03  3.00099E+03 -4.11766E+03
  4.48095E+03 -1.71540E+03  2.73564E+03  1.04144E+03  9.81968E+02  2.57128E+03  1.02730E+03  9.42262E+02
  1.99158E+03  8.43809E+02  1.92145E+03  1.24142E+03  1.70226E+03  2.72503E+03  2.13437E+03  3.34444E+03
 -1.56628E+03  5.03947E+03 -4.43655E+03  6.25575E+03 -5.91822E+03  1.90723E+03 -7.20468E+03 -1.98027E+03
 -2.96474E+03 -6.30965E+03  1.02492E+03 -7.51124E+03  3.87067E+03 -4.66476E+03  5.26876E+03 -1.25790E+03
  4.03313E+03  2.64125E+03  8.90595E+02  3.92254E+03 -1.74062E+03  2.28035E+03 -2.02573E+03 -3.03522E+02
 -1.14966E+03 -2.93950E+03  1.91570E+03 -2.63489E+03  2.43244E+03 -1.62395E+03  2.82669E+03  6.79858E+02
  1.36392E+03  9.94314E+02  9.86903E+02  4.20577E+02 -2.69722E+02  1.13007E+03  1.51060E+03 -4.10814E+02
  5.70145E+02 -3.09416E+02  2.94839E+03  1.03986E+03  1.02798E+03  3.66396E+03 -6.93821E+02  4.61032E+03
 -2.67317E+03  2.55108E+03 -3.80153E+03  4.23753E+02 -3.73074E+03 -1.26518E+03 -8.05335E+02 -2.13789E+03
  5.09090E+02 -2.17464E+03  1.68829E+03 -1.19075E+03  1.23399E+03  1.81399E+03 -8.06294E+02  2.19861E+03
 -2.59197E+03  9.37915E+02 -2.54708E+03 -1.75273E+03 -1.48302E+03 -3.51162E+03  4.85258E+02 -3.18372E+03
  1.43171E+03 -1.50906E+03  1.74109E+03 -2.36717E+02  1.96096E+03  1.42156E+02  4.49234E+02  1.71238E+03
 -9.26238E+02  5.07896E+02 -1.69773E+03 -8.37459E+02  4.15170E+02 -1.95729E+03  3.24363E+03 -1.52346E+03
  2.83228E+03  4.63368E+02  4.32970E+03  1.98913E+03  1.52970E+03  3.40147E+03 -9.49925E+02  3.53190E+03
 -3.13779E+03  8.46886E+02 -2.93453E+03 -2.24951E+02 -1.65156E+03 -2.63583E+03  6.58405E+02 -1.66244E+03
  2.37592E+03 -1.34495E+03  1.77741E+03  1.11690E+03  4.86119E+02  2.28884E+03  1.38876E+01  2.20870E+03
 -9.31340E+02  1.69305E+03 -6.61620E+02  2.86299E+02 -2.58153E+02  4.69599E+02 -5.35914E+02  8.40524E+02
 -1.19716E+03  1.37872E+03 -2.87046E+03  8.80792E+02 -3.25730E+03  2.64932E+02 -4.32463E+03 -2.10359E+03
 -1.98425E+03 -4.49681E+03  9.66918E+02 -5.48610E+03  2.80691E+03 -4.32943E+03  5.23003E+03 -1.62843E+03
  4.48953E+03  4.81780E+02  2.54354E+03  3.03328E+03 -2.56128E+01  3.53388E+03 -1.23528E+03  2.27986E+03
 -1.71475E+03  1.08806E+03 -1.17384E+03 -7.15968E+02 -8.93912E+02  4.11090E+01 -6.27788E+02 -1.71363E+02
 -9.42654E+02  1.28991E+02 -1.06190E+03 -4.63469E+01  2.77468E+02 -1.15118E+03 -2.34665E+02 -1.37464E+03
  1.73727E+03 -1.00340E+03  1.43596E+03 -4.14464E+01  1.93550E+03  2.04244E+03  1.57266E+01  3.08418E+03
 -1.95406E+03  4.07651E+03 -3.15919E+03  2.19570E+03 -3.73083E+03 -2.66718E+02 -2.78539E+03 -2.38255E+03
 -1.78610E+03 -3.00580E+03  8.29975E+02 -2.93179E+03  1.72678E+03 -1.49520E+03  1.89267E+03  5.06947E+01
  1.38878E+03  9.20016E+02  1.57837E+02  8.79957E+02 -5.04262E+02 -1.81060E+02  1.91152E+02 -5.79835E+02
  1.05236E+03  1.52096E+02  8.09698E+02  8.76008E+02  5.35833E+02  1.00906E+03  2.68260E+02  1.42587E+03
 -9.24592E+02  1.39933E+03 -1.92631E+03  5.60490E+02 -1.96635E+03 -1.10386E+03 -1.60023E+02 -2.67134E+03
  1.29516E+03 -1.76676E+03  1.92075E+03 -3.99402E+02  1.95524E+03 -1.42880E+02  1.26755E+03  1.83376E+03
  5.66838E+02  1.91482E+03 -6.88734E+02  1.57421E+03 -9.76033E+02  8.00735E+02 -8.25802E+02  3.67156E+02
 -5.41120E+02 -1.12570E+02 -7.78685E+02  6.61339E+01 -7.77311E+02  1.69894E+02 -1.47261E+03 -3.95523E+02
 -1.73235E+03 -2.96763E+02 -5.43583E+02 -2.31343E+03  1.08800E+03 -2.53532E+03  1.38541E+03 -7.15048E+02
  1.59709E+03  8.87020E+01  2.57965E+02  8.22965E+02  1.46762E+02  1.74908E+03 -7.60942E+02  9.98770E+02
