 $NMID ID='MM_0lb_SNR800_16hz_g55_65.RAW', FMTDAT='(8E13.5)'
 TRAMP=1., VOLUME=1. $END
  3.09908E+05  5.76454E+02  3.37593E+05  2.50733E+05  8.47086E+04  3.37925E+05 -1.32462E+05  2.50909E+05
 -1.89870E+05  8.31935E+04 -1.11816E+05 -3.24392E+04  8.95005E+02 -5.06114E+04  5.35152E+04 -9.68830E+01
  3.54077E+04  5.30280E+04 -1.68822E+04  7.56733E+04 -6.04835E+04  6.32223E+04 -8.41969E+04  3.19545E+04
 -8.08569E+04 -1.15875E+04 -5.71436E+04 -5.12519E+04 -1.50721E+04 -6.92129E+04  2.75641E+04 -4.56344E+04
  3.99282E+04  3.78574E+03  1.64602E+04  4.75765E+04 -3.46746E+04  4.70412E+04 -6.67986E+04 -3.22273E+02
 -5.32449E+04 -5.66698E+04 -6.80637E+03 -7.68282E+04  3.37565E+04 -5.48769E+04  4.79233E+04 -1.65916E+04
  4.34145E+04  1.13648E+04  3.20768E+04  2.51085E+04  1.61016E+04  2.91096E+04 -4.92053E+03  2.74465E+04
 -2.19040E+04  1.25236E+04 -1.84601E+04 -4.78868E+03  5.44870E+03 -7.58017E+03  2.23088E+04  1.20754E+04
  7.41277E+03  3.49547E+04 -3.19837E+04  3.53875E+04 -6.28332E+04  2.13714E+03 -5.67411E+04 -4.24348E+04
 -1.25416E+04 -6.29003E+04  3.90640E+04 -4.48165E+04  5.76640E+04 -2.22136E+03  3.36078E+04  3.21144E+04
 -6.10666E+03  3.56218E+04 -2.96841E+04  1.54280E+04 -3.00103E+04 -4.71206E+03 -1.64349E+04 -1.08388E+04
 -8.06409E+03 -1.27314E+04 -6.57881E+02 -1.77618E+04  7.21811E+03 -2.24761E+04  1.52308E+04 -1.38220E+04
  1.13432E+04  4.68264E+03 -7.92052E+03  1.29663E+04 -2.08572E+04 -4.12745E+03 -8.25663E+03 -3.31943E+04
  2.23856E+04 -4.28702E+04  4.75912E+04 -1.95062E+04  4.44131E+04  1.92530E+04  1.54509E+04  4.36038E+04
 -1.55967E+04  3.29081E+04 -2.52808E+04  1.67514E+03 -9.20791E+03 -2.75182E+04  2.12173E+04 -3.34543E+04
  4.05103E+04 -8.59401E+03  3.47522E+04  2.37815E+04  1.72605E+04  4.56476E+04 -7.82175E+03  4.92849E+04
 -3.05246E+04  3.29571E+04 -4.10878E+04  9.59122E+03 -4.15914E+04 -1.61319E+04 -2.27831E+04 -3.70595E+04
  7.31628E+03 -3.69431E+04  3.12373E+04 -1.43833E+04  2.87836E+04  1.09081E+04  3.52753E+03  1.91069E+04
 -1.33263E+04  7.95083E+03 -9.99223E+03 -7.87267E+03  5.85722E+03 -1.05886E+04  1.79675E+04  6.42324E+03
  1.33284E+04  2.21683E+04 -6.41863E+03  2.47478E+04 -2.21012E+04  1.11231E+04 -2.73778E+04 -5.16341E+03
 -1.96068E+04 -1.70812E+04 -7.86369E+03 -1.96139E+04  4.02149E+03 -1.86557E+04  1.50151E+04 -1.75981E+04
  2.50571E+04 -1.25427E+04  3.17097E+04  2.42243E+03  2.32591E+04  1.91736E+04  4.07367E+03  3.53682E+04
 -1.74023E+04  2.98933E+04 -2.71716E+04  1.03081E+04 -2.02737E+04 -1.04180E+04 -4.23228E+03 -1.36160E+04
  1.91786E+03 -3.29395E+03 -4.15995E+03  6.36860E+03 -1.53236E+04  5.14136E+03 -1.54137E+04 -6.44529E+03
 -9.81294E+03 -1.81854E+04  5.17837E+03 -2.20540E+04  1.48038E+04 -1.59578E+04  1.71137E+04 -1.51014E+03
  1.07591E+04  1.24256E+04 -9.44994E+02  1.80037E+04 -1.25850E+04  1.02040E+04 -1.81865E+04 -3.68874E+03
 -1.34453E+04 -1.60780E+04 -1.67307E+03 -2.18790E+04  9.95029E+03 -1.77885E+04  1.81203E+04 -8.86170E+03
  1.69167E+04  5.22405E+02  1.22980E+04  4.36304E+03  6.41223E+03  7.77866E+02  9.06806E+03 -1.43441E+03
  1.65040E+04  2.57443E+03  1.83370E+04  1.46144E+04  1.16940E+04  2.88540E+04 -2.79494E+03  3.19339E+04
 -1.88104E+04  2.52778E+04 -2.97395E+04  1.27207E+04 -3.07661E+04 -2.33590E+03 -2.60180E+04 -1.77104E+04
 -1.13370E+04 -2.54621E+04  8.57798E+03 -2.31943E+04  2.02851E+04 -1.22215E+04  1.82403E+04  4.79551E+03
  7.00978E+03  1.33247E+04 -8.18773E+03  1.21105E+04 -1.52920E+04  2.57481E+03 -1.18019E+04 -9.38524E+03
  1.27665E+02 -1.43689E+04  7.23329E+03 -1.08740E+04  9.19859E+03 -1.15092E+03  2.01289E+03  6.14733E+03
 -6.50941E+03  1.96140E+03 -5.27355E+03 -5.41921E+03 -1.34233E+02 -1.24838E+04  8.90489E+03 -1.29005E+04
  1.54841E+04 -6.70923E+03  1.58705E+04  2.64948E+03  1.42672E+04  1.21850E+04  6.43044E+03  1.81338E+04
 -2.76062E+03  2.02981E+04 -1.25199E+04  1.25603E+04 -1.41267E+04  2.98459E+03 -1.06216E+04 -3.10197E+03
 -5.49092E+03 -4.40826E+03 -6.12044E+02  1.11037E+03 -2.32680E+03  2.42045E+03 -4.61002E+03  4.16566E+03
 -9.31991E+03 -7.02178E+02 -1.04613E+04 -8.34052E+03 -4.43202E+03 -1.37003E+04  4.26680E+03 -1.07378E+04
  8.79833E+03 -4.46818E+03  6.38974E+03  2.50174E+03  4.71859E+02  3.78554E+03 -4.60812E+03 -2.20557E+02
 -4.33102E+03 -6.56911E+03 -8.46002E+02 -9.61642E+03  5.38456E+03 -1.01401E+04  1.26575E+04 -5.13684E+03
  1.48368E+04  1.01054E+03  1.05910E+04  8.28261E+03  2.27341E+03  1.13826E+04 -6.21402E+03  1.03315E+04
 -8.13561E+03  3.19463E+03 -4.30485E+03 -1.57085E+03  1.80805E+03 -2.30236E+03  5.50835E+03 -1.22537E+03
  4.85301E+03  4.34183E+03  1.33019E+03  7.86128E+03 -5.79924E+03  8.07196E+03 -1.00378E+04  2.14182E+03
 -6.53976E+03 -4.85398E+03  2.37355E+02 -8.64368E+03  4.98282E+03 -4.30598E+03  4.67013E+03  1.62318E+03
  1.10850E+03  4.73218E+03 -5.22811E+03  6.37023E+03 -6.96976E+03  3.22934E+03 -6.57414E+03 -2.12327E+03
 -4.19992E+03 -8.57872E+03  2.08422E+03 -9.62779E+03  8.16303E+03 -6.16926E+03  8.71292E+03  1.57472E+03
  5.90751E+03  6.90192E+03 -4.88125E+02  9.30129E+03 -6.59460E+03  5.02762E+03 -7.15200E+03 -3.88990E+02
 -7.16958E+03 -6.24689E+03 -1.30229E+03 -6.62874E+03  3.48256E+03 -5.76300E+03  3.90092E+03 -3.16081E+03
  3.40950E+03  8.65287E+02 -2.22722E+02  1.46596E+03  5.26723E+02 -8.71031E+02  7.70953E+02 -3.31951E+03
  5.53884E+03 -1.73209E+03  7.56484E+03  8.50891E+02  7.64647E+03  5.00259E+03  6.57159E+03  1.01502E+04
 -1.79208E+03  1.17429E+04 -1.03975E+04  9.02392E+03 -1.34694E+04  1.72184E+03 -1.05927E+04 -4.13104E+03
 -5.84797E+03 -9.02100E+03 -1.84394E+02 -7.33535E+03  2.85108E+03 -3.53167E+03  2.66689E+03 -2.89254E+03
  1.84866E+03 -1.83444E+03  2.55060E+03 -2.88046E+03  3.85879E+03 -2.07488E+03  4.40794E+03  1.99009E+02
  5.70703E+03  1.46173E+03  1.86360E+03  4.92432E+03 -1.76867E+03  4.92273E+03 -6.10915E+03  3.87408E+03
 -7.05082E+03 -7.55914E+02 -3.12223E+03 -4.98575E+03  4.49911E+01 -7.50876E+03  4.37788E+03 -7.34164E+03
  7.35883E+03 -4.42254E+03  9.30745E+03  1.07620E+03  6.41821E+03  6.14678E+03  1.14109E+03  8.31322E+03
 -3.03228E+03  7.46266E+03 -4.58177E+03  2.81736E+03 -3.10712E+03 -1.46582E+03 -9.70204E+02 -9.69860E+02
 -5.87424E+02  7.69250E+01 -1.27052E+03  2.14043E+03 -3.11653E+03  1.39199E+03 -5.34640E+03 -8.27442E+02
 -2.82736E+03 -5.24465E+03  7.28962E+02 -6.68845E+03  3.91538E+03 -6.21314E+03  5.92441E+03 -1.61147E+03
  6.01929E+03  3.29394E+03  2.75855E+03  5.10260E+03 -8.00019E+02  6.43243E+03 -3.99150E+03  4.08720E+03
 -5.57673E+03  7.52542E+02 -4.66594E+03 -3.72905E+03 -1.44338E+02 -4.94251E+03  2.86261E+03 -3.75005E+03
  3.91098E+03 -1.59219E+03  2.52619E+03  9.65481E+02  8.57795E+02  2.20638E+03  7.75038E+02  6.62956E+02
  1.74128E+03  6.41797E+02  1.44196E+03  1.18327E+03  1.62817E+03  2.88957E+03  1.98138E+03  2.66294E+03
 -1.43287E+03  4.49798E+03 -4.04521E+03  5.43035E+03 -5.09102E+03  1.80433E+03 -6.47566E+03 -1.31700E+03
 -2.76806E+03 -5.61424E+03  7.03888E+02 -6.73369E+03  3.00238E+03 -4.08634E+03  4.45630E+03 -1.20372E+03
  3.69722E+03  2.57524E+03  3.51569E+02  3.21558E+03 -1.33640E+03  2.18700E+03 -1.86354E+03  1.71848E+02
 -9.34160E+02 -2.30190E+03  1.28841E+03 -2.34036E+03  1.94660E+03 -1.43196E+03  2.09590E+03  7.08233E+02
  1.12024E+03  7.70186E+02  1.01101E+03  3.32922E+02 -4.50559E+02  9.05858E+02  1.67743E+03 -5.32203E+01
  6.52807E+01 -2.05839E+02  2.75830E+03  1.03326E+03  9.39556E+02  3.64020E+03 -3.43659E+02  4.10997E+03
 -2.48958E+03  2.11920E+03 -3.38706E+03  5.03877E+02 -3.04007E+03 -1.41511E+03 -8.40531E+02 -1.48788E+03
  4.04277E+02 -2.12311E+03  1.23710E+03 -9.29433E+02  1.18926E+03  1.57417E+03 -6.42808E+02  1.82829E+03
 -1.99697E+03  1.06285E+03 -2.07512E+03 -1.62043E+03 -1.01529E+03 -3.23349E+03  2.76725E+02 -2.60711E+03
  1.29507E+03 -1.23325E+03  1.53861E+03 -3.37371E+02  2.05281E+03  1.27669E+02  5.74881E+02  1.76341E+03
 -7.93034E+02  3.15806E+02 -1.47024E+03 -7.60787E+02  6.20140E+02 -1.79017E+03  2.43700E+03 -1.56097E+03
  2.58908E+03  4.74525E+02  3.66667E+03  1.78470E+03  1.40535E+03  2.99721E+03 -6.41815E+02  2.67349E+03
 -2.63634E+03  4.38123E+02 -2.43009E+03 -4.50276E+02 -1.44553E+03 -2.25078E+03  5.98096E+02 -1.30327E+03
  2.19732E+03 -7.94943E+02  1.49622E+03  1.16187E+03  1.70080E+02  2.03312E+03  1.33949E+02  1.34778E+03
 -5.71038E+02  1.47872E+03 -6.13753E+02  5.59901E+02 -3.62488E+02  1.68231E+02 -8.42403E+02  7.09309E+02
 -9.53982E+02  1.35106E+03 -2.69277E+03  8.47368E+02 -2.69191E+03  1.97268E+02 -3.54134E+03 -2.04091E+03
 -1.96536E+03 -3.74917E+03  7.03813E+02 -4.73145E+03  2.27756E+03 -3.36271E+03  4.45613E+03 -1.26624E+03
  3.82592E+03  4.20131E+02  2.45941E+03  2.35455E+03 -3.12822E+02  2.82380E+03 -9.16182E+02  2.42218E+03
 -1.53211E+03  7.51658E+02 -9.49069E+02 -5.32717E+02 -2.49850E+02 -1.12932E+02 -2.96139E+02 -2.66142E+00
 -1.17492E+03 -2.95200E+00 -1.04454E+03 -2.62641E+02  2.14320E+02 -1.00983E+03 -1.41868E+02 -1.13605E+03
  1.76396E+03 -8.37608E+02  1.05937E+03  2.21273E+02  1.60224E+03  1.84405E+03 -6.39913E+02  2.46917E+03
 -1.48890E+03  3.42272E+03 -3.06974E+03  2.22538E+03 -3.19433E+03 -2.69831E+02 -2.39478E+03 -2.26091E+03
 -1.29397E+03 -2.38914E+03  3.74829E+02 -2.21789E+03  1.47476E+03 -1.01138E+03  1.36845E+03 -1.18916E+02
  7.54486E+02  7.03174E+02 -2.49936E+02  4.51425E+02 -5.36624E+02  9.37564E+01  4.89082E+01 -2.81601E+02
  1.11549E+03 -1.53360E+02  7.64104E+02  5.96440E+02  3.54440E+02  9.04834E+02  2.00925E+02  9.39963E+02
 -1.12659E+03  9.47362E+02 -1.29111E+03  3.09656E+02 -1.35273E+03 -8.04781E+02  8.55614E+01 -1.64176E+03
  1.02974E+03 -1.62179E+03  1.28806E+03 -2.22920E+02  1.73310E+03 -4.22075E+02  9.45222E+02  1.41223E+03
  6.50946E+02  1.38742E+03 -1.30530E+02  1.21000E+03 -6.67858E+02  9.70675E+02 -6.45806E+02  1.14497E+02
 -2.54425E+02 -8.65896E+01 -1.00778E+03  4.28436E+01 -1.02576E+03  5.14017E+02 -1.14277E+03 -4.50369E+02
 -1.59133E+03 -1.70564E+02 -4.26202E+02 -1.40056E+03  7.68783E+02 -1.91698E+03  1.48152E+03 -9.17158E+02
  1.52828E+03  1.65080E+02  2.43202E+01  7.28097E+02  5.64401E+01  1.58443E+03 -1.02177E+03  1.06297E+03
