 $NMID ID='MM_0lb_SNR800_15hz_g45_61.RAW', FMTDAT='(8E13.5)'
 TRAMP=1., VOLUME=1. $END
  3.09742E+05  4.11662E+02  3.37666E+05  2.50571E+05  8.46409E+04  3.37591E+05 -1.32465E+05  2.50417E+05
 -1.90165E+05  8.30509E+04 -1.11200E+05 -3.26589E+04  1.15730E+03 -5.05817E+04  5.38933E+04 -3.51334E+01
  3.57742E+04  5.27424E+04 -1.67574E+04  7.50426E+04 -6.04664E+04  6.28823E+04 -8.37288E+04  3.18478E+04
 -8.06685E+04 -1.15369E+04 -5.67862E+04 -5.07633E+04 -1.48974E+04 -6.92168E+04  2.70127E+04 -4.56844E+04
  4.01350E+04  3.91008E+03  1.56886E+04  4.75484E+04 -3.45193E+04  4.66661E+04 -6.63214E+04 -1.51601E+02
 -5.27366E+04 -5.65261E+04 -6.40550E+03 -7.64807E+04  3.34396E+04 -5.44686E+04  4.74211E+04 -1.69566E+04
  4.27315E+04  1.13249E+04  3.16098E+04  2.51559E+04  1.61044E+04  2.87135E+04 -5.19541E+03  2.70761E+04
 -2.17935E+04  1.24263E+04 -1.90776E+04 -4.70811E+03  5.08713E+03 -7.79105E+03  2.18631E+04  1.18744E+04
  7.41831E+03  3.44432E+04 -3.18667E+04  3.50078E+04 -6.26113E+04  2.27113E+03 -5.65390E+04 -4.23387E+04
 -1.23189E+04 -6.25199E+04  3.91768E+04 -4.45262E+04  5.72295E+04 -2.27813E+03  3.33066E+04  3.18902E+04
 -5.96197E+03  3.50059E+04 -2.90731E+04  1.54014E+04 -2.91045E+04 -4.93264E+03 -1.59345E+04 -1.07918E+04
 -8.26718E+03 -1.25902E+04 -8.83464E+02 -1.73520E+04  7.04029E+03 -2.26620E+04  1.53420E+04 -1.36364E+04
  1.20693E+04  4.70573E+03 -7.41199E+03  1.30470E+04 -2.02271E+04 -3.74436E+03 -8.16139E+03 -3.25668E+04
  2.19731E+04 -4.27520E+04  4.71673E+04 -1.93711E+04  4.41378E+04  1.93293E+04  1.50947E+04  4.34501E+04
 -1.58055E+04  3.25165E+04 -2.46178E+04  1.22819E+03 -9.28835E+03 -2.76191E+04  2.07725E+04 -3.28707E+04
  4.00147E+04 -8.68916E+03  3.43626E+04  2.33650E+04  1.70646E+04  4.53314E+04 -7.79837E+03  4.86684E+04
 -3.09637E+04  3.26025E+04 -4.05970E+04  9.13788E+03 -4.13858E+04 -1.59058E+04 -2.26569E+04 -3.66810E+04
  7.08148E+03 -3.67019E+04  3.08236E+04 -1.43833E+04  2.83188E+04  1.08821E+04  3.55918E+03  1.86182E+04
 -1.33326E+04  7.85126E+03 -1.02768E+04 -7.55150E+03  5.99844E+03 -1.06815E+04  1.77202E+04  6.27069E+03
  1.32315E+04  2.17985E+04 -6.13799E+03  2.43697E+04 -2.20327E+04  1.07086E+04 -2.70837E+04 -5.13658E+03
 -1.93653E+04 -1.71193E+04 -7.56710E+03 -1.94042E+04  4.08678E+03 -1.82215E+04  1.48150E+04 -1.68547E+04
  2.45033E+04 -1.25410E+04  3.09745E+04  2.34425E+03  2.29116E+04  1.89414E+04  4.38624E+03  3.47820E+04
 -1.73771E+04  2.94937E+04 -2.75425E+04  1.03049E+04 -2.07314E+04 -1.05074E+04 -4.24745E+03 -1.37820E+04
  2.34062E+03 -3.47362E+03 -4.13545E+03  6.37806E+03 -1.51281E+04  5.21703E+03 -1.53585E+04 -6.40182E+03
 -9.86388E+03 -1.76714E+04  4.97175E+03 -2.16431E+04  1.44968E+04 -1.59977E+04  1.69882E+04 -1.29310E+03
  1.06798E+04  1.24192E+04 -1.18217E+03  1.79150E+04 -1.22317E+04  9.93050E+03 -1.80212E+04 -4.10814E+03
 -1.31947E+04 -1.63832E+04 -1.70265E+03 -2.18003E+04  9.80266E+03 -1.78695E+04  1.82488E+04 -8.47420E+03
  1.67887E+04  4.40228E+02  1.23238E+04  4.17654E+03  6.36992E+03  6.88731E+02  8.71265E+03 -1.53272E+03
  1.64551E+04  2.64277E+03  1.78668E+04  1.44629E+04  1.15691E+04  2.84821E+04 -3.21515E+03  3.18279E+04
 -1.83818E+04  2.54935E+04 -2.95591E+04  1.26278E+04 -3.07689E+04 -2.06391E+03 -2.53808E+04 -1.76029E+04
 -1.14683E+04 -2.50741E+04  8.52898E+03 -2.29256E+04  1.98490E+04 -1.21406E+04  1.81244E+04  4.85444E+03
  7.07236E+03  1.32646E+04 -8.32130E+03  1.18989E+04 -1.53965E+04  2.73644E+03 -1.18756E+04 -9.32866E+03
 -2.63757E+02 -1.43602E+04  7.41373E+03 -1.09239E+04  9.07302E+03 -1.08332E+03  1.98904E+03  6.21979E+03
 -6.30075E+03  2.05864E+03 -5.38386E+03 -5.48247E+03 -4.37554E+01 -1.26942E+04  8.83101E+03 -1.30222E+04
  1.50985E+04 -6.60958E+03  1.61022E+04  2.91380E+03  1.36421E+04  1.20661E+04  6.65216E+03  1.81875E+04
 -2.90999E+03  2.00849E+04 -1.27604E+04  1.29468E+04 -1.42176E+04  3.12448E+03 -1.03960E+04 -3.13786E+03
 -4.93958E+03 -4.47233E+03 -6.69001E+02  9.86890E+02 -2.00582E+03  2.28121E+03 -4.73577E+03  4.36475E+03
 -9.54275E+03 -6.77789E+02 -1.04944E+04 -8.54949E+03 -4.19926E+03 -1.40438E+04  4.15469E+03 -1.05527E+04
  8.60039E+03 -4.69813E+03  6.20348E+03  2.36366E+03  4.21578E+02  4.20107E+03 -4.72323E+03 -1.91873E+02
 -4.37217E+03 -6.45721E+03 -8.58546E+02 -9.55738E+03  5.38606E+03 -1.01489E+04  1.30696E+04 -5.05577E+03
  1.48015E+04  1.05834E+03  1.10169E+04  8.20813E+03  1.88302E+03  1.13791E+04 -6.46787E+03  1.01672E+04
 -8.66959E+03  3.37797E+03 -4.22533E+03 -1.83634E+03  1.26048E+03 -2.88103E+03  5.58155E+03 -9.88906E+02
  5.02529E+03  4.41388E+03  1.37247E+03  8.25388E+03 -5.44730E+03  7.77671E+03 -9.95659E+03  1.74495E+03
 -6.59086E+03 -4.88378E+03  1.66913E+02 -8.36443E+03  5.19063E+03 -4.06661E+03  5.28621E+03  1.88461E+03
  1.03524E+03  5.04154E+03 -5.05359E+03  6.25630E+03 -7.37294E+03  3.14634E+03 -6.85034E+03 -2.15673E+03
 -4.38227E+03 -8.76146E+03  1.86968E+03 -1.00488E+04  8.34671E+03 -6.34144E+03  9.24072E+03  1.56396E+03
  5.80957E+03  7.08245E+03 -4.70933E+02  9.58008E+03 -6.88905E+03  5.34556E+03 -7.45316E+03 -7.74355E+02
 -7.08862E+03 -6.74806E+03 -1.50076E+03 -6.75827E+03  3.63415E+03 -6.23546E+03  4.25983E+03 -3.27658E+03
  3.64850E+03  5.72474E+02 -3.85063E+01  1.35054E+03  5.88352E+01 -9.41591E+02  6.22651E+02 -3.33926E+03
  5.51449E+03 -2.08291E+03  8.19064E+03  8.41611E+02  8.06548E+03  5.20211E+03  6.62298E+03  1.07871E+04
 -2.03419E+03  1.23703E+04 -1.06664E+04  9.24476E+03 -1.38644E+04  1.74111E+03 -1.12069E+04 -3.98969E+03
 -6.05629E+03 -9.13007E+03 -4.57715E+02 -7.61034E+03  2.84255E+03 -3.97466E+03  2.35318E+03 -2.90305E+03
  1.98507E+03 -1.75693E+03  2.86087E+03 -2.86791E+03  3.79367E+03 -2.08642E+03  4.94224E+03  1.43397E+02
  6.24296E+03  1.50314E+03  2.52919E+03  4.83814E+03 -1.62463E+03  5.35005E+03 -6.09757E+03  3.84080E+03
 -7.42361E+03 -9.27113E+02 -3.84259E+03 -4.86243E+03  1.92605E+02 -7.45018E+03  4.55101E+03 -8.04573E+03
  7.92674E+03 -4.48264E+03  1.00100E+04  6.10255E+02  7.05090E+03  6.71194E+03  1.36210E+03  8.87090E+03
 -3.24292E+03  7.69070E+03 -4.84904E+03  2.89200E+03 -3.34947E+03 -1.14279E+03 -1.40357E+03 -7.68648E+02
 -7.90345E+02  5.19680E+02 -1.55916E+03  2.32646E+03 -3.28166E+03  1.39883E+03 -5.43335E+03 -5.15616E+02
 -2.85263E+03 -5.73135E+03  6.29384E+02 -7.21953E+03  4.22653E+03 -6.44119E+03  6.13295E+03 -1.61148E+03
  6.64095E+03  3.51711E+03  2.96755E+03  5.81064E+03 -1.35915E+03  6.61774E+03 -4.31475E+03  4.17213E+03
 -5.98403E+03  6.66904E+02 -5.29246E+03 -4.07078E+03 -6.63201E+02 -5.36343E+03  2.82861E+03 -3.92803E+03
  4.29113E+03 -1.61313E+03  2.69975E+03  1.00145E+03  7.55862E+02  2.23977E+03  1.01806E+03  9.92735E+02
  2.07126E+03  6.39539E+02  1.66400E+03  1.32387E+03  2.03362E+03  2.61310E+03  1.98934E+03  3.11033E+03
 -1.58051E+03  5.29154E+03 -4.32842E+03  5.87116E+03 -5.95269E+03  1.94045E+03 -6.62566E+03 -1.77479E+03
 -2.62694E+03 -5.83284E+03  9.21241E+02 -7.47428E+03  3.55037E+03 -4.32862E+03  5.26250E+03 -1.54451E+03
  4.29060E+03  2.57350E+03  4.44964E+02  3.73040E+03 -1.41363E+03  2.16597E+03 -2.07868E+03 -2.18433E+02
 -1.41754E+03 -2.84318E+03  1.87729E+03 -2.46144E+03  2.58551E+03 -1.65086E+03  2.34740E+03  5.88882E+02
  1.27426E+03  9.94755E+02  9.44048E+02  3.69349E+02 -2.63478E+02  9.08332E+02  1.70064E+03 -7.04534E+01
  5.42979E+02 -4.01149E+02  2.95376E+03  9.51450E+02  1.46270E+03  3.89569E+03 -4.68122E+02  4.65540E+03
 -2.97519E+03  2.30673E+03 -3.44854E+03  7.72319E+02 -3.41324E+03 -1.06962E+03 -1.05598E+03 -2.07890E+03
  8.34987E+02 -2.15779E+03  1.54342E+03 -1.49403E+03  1.15242E+03  1.28557E+03 -8.53058E+02  1.88737E+03
 -2.58990E+03  1.43101E+03 -2.59618E+03 -1.71334E+03 -1.04162E+03 -3.29393E+03  3.89246E+02 -3.08642E+03
  1.64033E+03 -1.77469E+03  2.14636E+03 -1.21567E+02  2.15923E+03  3.53471E+02  4.25052E+02  1.83177E+03
 -9.75079E+02  4.38622E+02 -1.71497E+03 -9.69212E+02  9.17270E+02 -1.92955E+03  3.05023E+03 -1.97420E+03
  2.93823E+03  4.61330E+02  4.30472E+03  2.19692E+03  1.59252E+03  3.27076E+03 -1.09700E+03  3.48869E+03
 -2.96332E+03  1.26901E+03 -3.01124E+03 -4.54516E+02 -1.34592E+03 -2.23338E+03  5.79327E+02 -1.84014E+03
  2.46848E+03 -1.40923E+03  1.66449E+03  1.13189E+03  3.67459E+02  2.33113E+03  1.92037E+02  1.78100E+03
 -1.06141E+03  1.52224E+03 -6.82420E+02  5.35046E+02 -3.27639E+02  8.53801E+02 -8.80277E+02  8.15140E+02
 -9.48680E+02  1.73426E+03 -2.77710E+03  8.01417E+02 -3.06130E+03  1.63149E+02 -3.84859E+03 -2.20011E+03
 -2.13227E+03 -4.33646E+03  1.03755E+03 -5.29505E+03  2.68066E+03 -4.19405E+03  5.01337E+03 -1.97341E+03
  4.72003E+03  5.83071E+02  2.61393E+03  3.52106E+03 -3.68978E+01  3.47171E+03 -1.09028E+03  2.31604E+03
 -1.68998E+03  1.17387E+03 -1.15686E+03 -4.98283E+02 -2.65413E+02  5.19953E+01 -6.41073E+02  2.20031E+01
 -1.17323E+03  2.06211E+02 -1.08929E+03 -5.16590E+01  1.35247E+02 -7.64574E+02 -4.61217E+02 -1.35810E+03
  1.77761E+03 -1.14260E+03  1.76893E+03  4.05315E+01  2.28266E+03  2.00192E+03  1.77210E+02  3.31585E+03
 -1.66210E+03  4.02416E+03 -3.53688E+03  2.20375E+03 -3.80921E+03 -4.29387E+02 -2.73860E+03 -2.68265E+03
 -1.34879E+03 -3.19685E+03  1.14789E+03 -2.99107E+03  1.87218E+03 -1.39373E+03  1.68339E+03  3.55657E+02
  1.15003E+03  8.05650E+02 -2.06229E+02  9.84539E+02 -6.58435E+02 -1.10559E+02 -4.10231E+02 -5.28046E+02
  1.15321E+03 -1.97006E+02  1.08330E+03  5.83811E+02  3.48126E+02  1.20457E+03  3.41615E+02  1.10658E+03
 -1.40739E+03  1.59920E+03 -1.70732E+03  3.82514E+02 -1.70351E+03 -1.33487E+03 -1.94947E+02 -2.43251E+03
  1.08405E+03 -1.87578E+03  1.68797E+03 -2.34782E+02  2.23093E+03  1.43504E+02  1.02766E+03  1.86130E+03
  7.18922E+02  1.48527E+03 -5.19613E+02  1.61204E+03 -1.35984E+03  1.02681E+03 -1.08930E+03 -3.85254E+01
 -4.09633E+02 -6.59869E+00 -9.81330E+02  2.75291E+02 -8.75402E+02  5.65913E+02 -1.78274E+03 -3.77914E+02
 -1.90981E+03 -5.93464E+02 -7.59450E+02 -1.81252E+03  1.04702E+03 -2.51056E+03  1.72809E+03 -5.37695E+02
  1.81398E+03  7.36692E+01  6.32331E+02  1.21149E+03 -2.19958E+02  1.66306E+03 -1.10170E+03  1.49656E+03
