 $NMID ID='MM_0lb_SNR800_14hz_g45_16.RAW', FMTDAT='(8E13.5)'
 TRAMP=1., VOLUME=1. $END
  3.10063E+05  3.69218E+02  3.37580E+05  2.50700E+05  8.46585E+04  3.37829E+05 -1.32633E+05  2.51082E+05
 -1.90448E+05  8.29717E+04 -1.11853E+05 -3.26748E+04  8.55805E+02 -5.02215E+04  5.40518E+04  9.81387E+01
  3.55330E+04  5.28486E+04 -1.70647E+04  7.53731E+04 -6.07477E+04  6.33853E+04 -8.39147E+04  3.21159E+04
 -8.08436E+04 -1.15134E+04 -5.71239E+04 -5.08832E+04 -1.49736E+04 -6.96213E+04  2.73834E+04 -4.58903E+04
  3.99747E+04  3.91462E+03  1.62250E+04  4.76647E+04 -3.45869E+04  4.72232E+04 -6.66985E+04 -1.60669E+02
 -5.31967E+04 -5.68017E+04 -6.67454E+03 -7.69605E+04  3.36024E+04 -5.48547E+04  4.79711E+04 -1.72215E+04
  4.32070E+04  1.09404E+04  3.15461E+04  2.55903E+04  1.58541E+04  2.89606E+04 -5.60886E+03  2.71104E+04
 -2.19765E+04  1.25166E+04 -1.87107E+04 -5.05974E+03  5.32322E+03 -7.83337E+03  2.19934E+04  1.21346E+04
  7.72038E+03  3.51043E+04 -3.18818E+04  3.49084E+04 -6.30728E+04  2.35637E+03 -5.69185E+04 -4.24838E+04
 -1.23878E+04 -6.30388E+04  3.92278E+04 -4.49029E+04  5.77142E+04 -2.26622E+03  3.39889E+04  3.19478E+04
 -6.37268E+03  3.56043E+04 -2.96743E+04  1.55936E+04 -2.99533E+04 -4.64244E+03 -1.66813E+04 -1.06677E+04
 -8.07747E+03 -1.30749E+04 -4.91800E+02 -1.78142E+04  7.56736E+03 -2.31011E+04  1.52823E+04 -1.32393E+04
  1.16681E+04  5.17249E+03 -7.85669E+03  1.30072E+04 -2.14708E+04 -4.00017E+03 -8.48600E+03 -3.34863E+04
  2.26482E+04 -4.32607E+04  4.77062E+04 -1.98367E+04  4.50434E+04  1.89578E+04  1.57443E+04  4.41660E+04
 -1.55401E+04  3.31663E+04 -2.50675E+04  1.96150E+03 -9.65067E+03 -2.76380E+04  2.06859E+04 -3.36618E+04
  4.06795E+04 -8.79695E+03  3.52696E+04  2.35595E+04  1.79350E+04  4.59206E+04 -7.87470E+03  4.95348E+04
 -3.13410E+04  3.32762E+04 -4.11225E+04  9.65699E+03 -4.17458E+04 -1.67494E+04 -2.35328E+04 -3.75989E+04
  7.12148E+03 -3.74151E+04  3.16763E+04 -1.44776E+04  2.89416E+04  1.09578E+04  3.93878E+03  1.91052E+04
 -1.34314E+04  8.31870E+03 -1.03455E+04 -7.75272E+03  6.11632E+03 -1.07696E+04  1.80938E+04  6.01321E+03
  1.35155E+04  2.19362E+04 -5.87254E+03  2.47069E+04 -2.23293E+04  1.12370E+04 -2.77777E+04 -5.03229E+03
 -2.02847E+04 -1.74139E+04 -8.14849E+03 -2.02059E+04  4.12152E+03 -1.89481E+04  1.56285E+04 -1.79103E+04
  2.58869E+04 -1.27592E+04  3.19917E+04  2.92383E+03  2.37431E+04  1.95591E+04  4.30220E+03  3.57966E+04
 -1.74198E+04  2.99184E+04 -2.77311E+04  1.02521E+04 -2.08424E+04 -1.02332E+04 -4.37413E+03 -1.34018E+04
  1.96691E+03 -2.91125E+03 -4.52247E+03  6.49623E+03 -1.59389E+04  5.10014E+03 -1.61315E+04 -6.83654E+03
 -1.00816E+04 -1.87418E+04  5.15171E+03 -2.24559E+04  1.50334E+04 -1.63233E+04  1.77055E+04 -1.55534E+03
  1.12730E+04  1.30505E+04 -1.08616E+03  1.86614E+04 -1.25800E+04  1.04861E+04 -1.86146E+04 -4.02807E+03
 -1.38346E+04 -1.68508E+04 -1.41934E+03 -2.26235E+04  1.03319E+04 -1.84398E+04  1.89807E+04 -9.12578E+03
  1.73069E+04  3.54851E+02  1.29542E+04  4.37036E+03  6.63282E+03  7.05680E+02  9.43815E+03 -1.51075E+03
  1.69701E+04  2.73812E+03  1.88579E+04  1.50844E+04  1.23913E+04  2.96683E+04 -2.91394E+03  3.35087E+04
 -1.94659E+04  2.66749E+04 -3.11119E+04  1.32935E+04 -3.25845E+04 -2.70238E+03 -2.69756E+04 -1.87411E+04
 -1.16618E+04 -2.70351E+04  9.06830E+03 -2.42862E+04  2.08396E+04 -1.27964E+04  1.87783E+04  5.41604E+03
  7.05197E+03  1.39172E+04 -9.09248E+03  1.24368E+04 -1.58307E+04  2.53401E+03 -1.21413E+04 -9.88118E+03
 -1.58046E+02 -1.55855E+04  7.83147E+03 -1.14258E+04  9.84415E+03 -1.15691E+03  2.31534E+03  6.17764E+03
 -6.72803E+03  2.39686E+03 -5.75094E+03 -5.51835E+03 -1.76505E+02 -1.28968E+04  9.47307E+03 -1.37642E+04
  1.63775E+04 -7.21780E+03  1.76238E+04  3.18103E+03  1.48884E+04  1.30307E+04  7.18918E+03  1.98036E+04
 -2.82031E+03  2.16406E+04 -1.36606E+04  1.37218E+04 -1.57911E+04  3.53703E+03 -1.08810E+04 -3.08862E+03
 -5.04039E+03 -4.68325E+03 -4.90115E+02  1.18649E+03 -2.37138E+03  2.33997E+03 -4.84201E+03  4.15230E+03
 -1.02529E+04 -1.05804E+03 -1.10681E+04 -8.89790E+03 -4.45069E+03 -1.43257E+04  4.52054E+03 -1.07837E+04
  9.44550E+03 -4.71080E+03  6.48924E+03  2.90344E+03  5.51500E+02  4.18721E+03 -4.92231E+03 -2.78837E+01
 -4.62297E+03 -6.76207E+03 -8.98276E+02 -1.07196E+04  5.75124E+03 -1.10440E+04  1.38958E+04 -5.59098E+03
  1.62494E+04  1.39274E+03  1.21562E+04  8.88950E+03  2.09830E+03  1.23425E+04 -6.71866E+03  1.07778E+04
 -8.93508E+03  3.56350E+03 -4.66824E+03 -2.15802E+03  1.49560E+03 -2.76721E+03  6.14864E+03 -1.34830E+03
  5.60818E+03  4.42713E+03  1.14839E+03  8.68681E+03 -6.49431E+03  8.37604E+03 -1.07079E+04  2.16862E+03
 -7.06478E+03 -5.38542E+03  4.64619E+02 -9.09520E+03  5.66768E+03 -4.52359E+03  5.63342E+03  1.80501E+03
  8.54902E+02  5.86480E+03 -5.51573E+03  7.13856E+03 -7.81406E+03  3.23546E+03 -7.55164E+03 -2.32437E+03
 -4.64036E+03 -9.29255E+03  2.19693E+03 -1.12267E+04  9.25788E+03 -6.85562E+03  9.89256E+03  1.78847E+03
  6.71764E+03  8.36926E+03 -3.64364E+02  1.04517E+04 -7.18626E+03  5.82083E+03 -7.82912E+03 -6.15605E+02
 -7.39820E+03 -6.92075E+03 -1.79854E+03 -7.43721E+03  4.03786E+03 -6.35192E+03  4.55884E+03 -3.30584E+03
  3.59934E+03  7.09709E+02 -4.84569E+02  1.24782E+03  4.76294E+02 -1.26109E+03  8.03282E+02 -3.75669E+03
  6.61788E+03 -2.05589E+03  9.35887E+03  1.09156E+03  9.15953E+03  5.50028E+03  7.03089E+03  1.19469E+04
 -2.64539E+03  1.38648E+04 -1.22226E+04  1.05263E+04 -1.53678E+04  2.08561E+03 -1.23642E+04 -4.66319E+03
 -6.51627E+03 -1.01578E+04 -2.69596E+02 -8.50128E+03  3.26509E+03 -4.45410E+03  2.99385E+03 -3.18753E+03
  2.30471E+03 -2.12974E+03  2.72627E+03 -3.07977E+03  4.36082E+03 -1.87002E+03  5.28251E+03 -1.95328E+02
  6.55373E+03  1.39640E+03  2.55983E+03  5.63575E+03 -1.82928E+03  5.79530E+03 -6.71580E+03  4.67506E+03
 -8.50211E+03 -9.86368E+02 -4.69490E+03 -5.77872E+03 -3.04832E+01 -8.71129E+03  5.21417E+03 -8.90491E+03
  9.23880E+03 -5.06720E+03  1.10829E+04  1.05776E+03  7.80696E+03  7.66546E+03  1.39917E+03  1.01514E+04
 -3.78803E+03  8.59333E+03 -5.70748E+03  2.91682E+03 -3.63956E+03 -1.34237E+03 -8.47722E+02 -1.28504E+03
 -7.32540E+02 -1.16957E+02 -1.21545E+03  2.21957E+03 -3.61222E+03  1.82582E+03 -5.92334E+03 -5.11096E+02
 -3.36451E+03 -5.86713E+03  1.01269E+03 -8.13531E+03  4.60032E+03 -7.50842E+03  7.05150E+03 -2.13342E+03
  7.61434E+03  4.00081E+03  3.34196E+03  6.58726E+03 -1.46305E+03  7.48889E+03 -5.29649E+03  4.54365E+03
 -7.09465E+03  7.22641E+02 -5.88747E+03 -4.68641E+03 -2.26126E+02 -6.16216E+03  3.13840E+03 -5.00775E+03
  4.60891E+03 -1.85382E+03  3.13231E+03  1.13262E+03  1.07527E+03  2.26308E+03  8.07140E+02  9.49896E+02
  2.17223E+03  5.72487E+02  1.96220E+03  1.50658E+03  2.22578E+03  3.03638E+03  2.13752E+03  3.73547E+03
 -1.85794E+03  5.67195E+03 -4.96602E+03  6.47776E+03 -7.24903E+03  1.48742E+03 -7.92075E+03 -1.95146E+03
 -3.35195E+03 -7.14178E+03  1.12338E+03 -8.30044E+03  4.56667E+03 -4.95303E+03  5.93857E+03 -1.40298E+03
  4.56661E+03  3.08451E+03  1.19180E+03  4.17443E+03 -1.85101E+03  2.70873E+03 -2.81927E+03 -4.76816E+02
 -1.63838E+03 -3.06174E+03  2.15750E+03 -3.08762E+03  2.78463E+03 -1.94725E+03  2.88776E+03  7.15375E+02
  1.38599E+03  1.11834E+03  7.58834E+02  7.33623E+02 -1.74760E+02  1.24466E+03  1.53266E+03 -2.54915E+02
  6.67134E+02 -2.92227E+02  3.16382E+03  9.97047E+02  1.22592E+03  3.91301E+03 -6.52304E+02  5.38704E+03
 -3.61003E+03  2.93744E+03 -4.26058E+03  5.97398E+02 -3.74636E+03 -1.27547E+03 -8.86150E+02 -2.76544E+03
  7.07758E+02 -2.54278E+03  1.61335E+03 -9.84365E+02  1.41938E+03  1.55403E+03 -8.12138E+02  2.09623E+03
 -2.94500E+03  1.52733E+03 -2.96115E+03 -1.90349E+03 -1.57474E+03 -3.89732E+03  1.59963E+02 -3.68754E+03
  1.75307E+03 -1.72505E+03  2.37900E+03 -1.74615E+02  2.55251E+03  3.72399E+02  7.96934E+02  2.38041E+03
 -1.33609E+03  3.75396E+02 -1.57349E+03 -1.25046E+03  6.48861E+02 -2.47990E+03  3.19897E+03 -2.17597E+03
  3.77173E+03  6.81380E+01  4.40738E+03  2.48650E+03  1.29857E+03  3.97767E+03 -1.31975E+03  3.96685E+03
 -3.13021E+03  1.26783E+03 -3.52739E+03 -7.82406E+02 -1.74909E+03 -2.94624E+03  4.85279E+02 -2.15009E+03
  2.74283E+03 -1.28167E+03  2.03167E+03  1.22491E+03  5.18419E+02  2.48519E+03 -2.39017E+02  2.27856E+03
 -1.07357E+03  1.86899E+03 -1.18484E+03  2.55526E+02 -2.26475E+02  4.35773E+02 -1.15621E+03  7.63981E+02
 -1.12323E+03  1.83702E+03 -3.41275E+03  1.11831E+03 -4.06657E+03 -1.67486E+02 -5.12959E+03 -2.68179E+03
 -2.47512E+03 -5.59268E+03  1.13697E+03 -6.39923E+03  3.35549E+03 -5.33255E+03  6.27977E+03 -1.99341E+03
  5.46752E+03  7.22595E+02  3.23425E+03  3.69031E+03 -2.72809E+02  3.95447E+03 -1.50392E+03  2.80315E+03
 -1.97089E+03  1.43170E+03 -1.25302E+03 -5.06827E+02 -8.11441E+02 -2.36332E+02 -9.68818E+02  1.52814E+02
 -1.51246E+03  1.75564E+02 -1.39802E+03 -1.89953E+02  9.72278E+01 -1.22501E+03  3.00812E+01 -1.72623E+03
  2.35151E+03 -1.27181E+03  1.96148E+03  7.12558E+00  2.77428E+03  2.17154E+03  1.68382E+02  3.84317E+03
 -2.15027E+03  4.61736E+03 -4.28348E+03  3.15024E+03 -4.58566E+03 -2.69268E+02 -3.31217E+03 -3.19186E+03
 -1.91240E+03 -4.04466E+03  9.43471E+02 -3.53171E+03  2.29700E+03 -1.87584E+03  2.00677E+03  2.23078E+02
  1.50138E+03  1.42926E+03 -6.01852E+00  8.71645E+02 -9.53922E+02 -4.68594E+00  2.69454E+02 -9.52572E+02
  1.01230E+03 -2.95507E+02  1.48468E+03  5.77369E+02  4.82333E+02  1.35006E+03  1.14267E+02  1.55519E+03
 -1.52459E+03  1.80205E+03 -2.30622E+03  3.02078E+02 -1.97588E+03 -1.85266E+03 -2.12716E+02 -3.15284E+03
  1.68285E+03 -2.24154E+03  2.35024E+03 -6.16737E+02  2.87857E+03  4.71254E+01  1.39709E+03  2.40845E+03
  2.36477E+02  2.37016E+03 -9.54532E+02  1.93105E+03 -1.26445E+03  1.13700E+03 -9.38275E+02  2.82685E+02
 -6.50801E+02 -6.01086E+01 -7.85297E+02  3.65892E+02 -8.59261E+02  8.82544E+02 -2.06664E+03 -4.06131E+02
 -2.45369E+03 -6.21135E+02 -6.00252E+02 -2.57253E+03  1.52150E+03 -2.93996E+03  2.11339E+03 -1.06516E+03
  2.46582E+03  2.92665E+02  4.56809E+02  1.45903E+03 -3.73446E+02  2.37006E+03 -1.50102E+03  1.60804E+03
