 $NMID ID='MM_0lb_SNR800_12hz_g55_56.RAW', FMTDAT='(8E13.5)'
 TRAMP=1., VOLUME=1. $END
  3.09765E+05  3.47911E+02  3.38010E+05  2.50486E+05  8.47897E+04  3.38118E+05 -1.32516E+05  2.51396E+05
 -1.90373E+05  8.34124E+04 -1.12239E+05 -3.22858E+04  6.39278E+02 -5.04400E+04  5.36635E+04 -1.23684E+02
  3.53750E+04  5.27526E+04 -1.70773E+04  7.57698E+04 -6.06584E+04  6.41862E+04 -8.48164E+04  3.23270E+04
 -8.21065E+04 -1.16110E+04 -5.74743E+04 -5.21186E+04 -1.49716E+04 -7.02156E+04  2.81458E+04 -4.65272E+04
  4.09227E+04  3.51584E+03  1.64760E+04  4.83390E+04 -3.47632E+04  4.74077E+04 -6.77373E+04  2.26182E+01
 -5.43361E+04 -5.74802E+04 -6.86292E+03 -7.80575E+04  3.41441E+04 -5.58250E+04  4.91817E+04 -1.80113E+04
  4.42059E+04  1.13560E+04  3.24991E+04  2.58851E+04  1.59867E+04  3.02538E+04 -5.68219E+03  2.73355E+04
 -2.22333E+04  1.23466E+04 -1.83445E+04 -5.35048E+03  5.84391E+03 -7.71198E+03  2.28409E+04  1.32096E+04
  7.39606E+03  3.65457E+04 -3.30722E+04  3.64194E+04 -6.46783E+04  2.02802E+03 -5.79678E+04 -4.39518E+04
 -1.29097E+04 -6.42550E+04  4.05413E+04 -4.62718E+04  6.01277E+04 -2.43521E+03  3.55947E+04  3.38725E+04
 -5.33544E+03  3.77822E+04 -3.12140E+04  1.77914E+04 -3.23110E+04 -3.93264E+03 -1.81487E+04 -1.18205E+04
 -8.90184E+03 -1.40594E+04 -6.90956E+02 -1.93473E+04  8.06552E+03 -2.33149E+04  1.55622E+04 -1.30851E+04
  1.09078E+04  5.79090E+03 -9.25703E+03  1.29044E+04 -2.25709E+04 -5.61013E+03 -8.91634E+03 -3.59091E+04
  2.42557E+04 -4.53491E+04  5.00566E+04 -2.04554E+04  4.69048E+04  2.05148E+04  1.64245E+04  4.55993E+04
 -1.60193E+04  3.51171E+04 -2.67142E+04  2.07518E+03 -1.06723E+04 -2.85471E+04  2.11610E+04 -3.58442E+04
  4.32395E+04 -1.04261E+04  3.80733E+04  2.45476E+04  2.01425E+04  4.89279E+04 -8.10347E+03  5.34478E+04
 -3.37031E+04  3.64149E+04 -4.48048E+04  1.06232E+04 -4.51825E+04 -1.78364E+04 -2.44236E+04 -4.05423E+04
  7.61826E+03 -4.01806E+04  3.30019E+04 -1.59422E+04  3.06412E+04  1.10473E+04  4.78445E+03  2.01187E+04
 -1.33885E+04  9.52022E+03 -1.06764E+04 -7.44888E+03  5.48041E+03 -1.12957E+04  1.84065E+04  5.71828E+03
  1.42583E+04  2.20762E+04 -5.30394E+03  2.59211E+04 -2.28037E+04  1.29828E+04 -2.99158E+04 -3.60536E+03
 -2.31619E+04 -1.81167E+04 -1.03043E+04 -2.26234E+04  4.00034E+03 -2.29470E+04  1.78577E+04 -2.06322E+04
  2.88660E+04 -1.33704E+04  3.53469E+04  3.66710E+03  2.56738E+04  2.22353E+04  4.41916E+03  3.90819E+04
 -1.90302E+04  3.22329E+04 -2.96810E+04  1.15072E+04 -2.17296E+04 -1.01665E+04 -4.53784E+03 -1.32376E+04
  1.06986E+03 -1.69758E+03 -6.49566E+03  7.75513E+03 -1.82780E+04  5.42824E+03 -1.83390E+04 -8.47586E+03
 -1.10822E+04 -2.12014E+04  5.84208E+03 -2.53928E+04  1.70754E+04 -1.84154E+04  2.04757E+04 -1.58395E+03
  1.27467E+04  1.48220E+04 -1.11220E+03  2.13815E+04 -1.48849E+04  1.24009E+04 -2.15022E+04 -4.41048E+03
 -1.57318E+04 -1.90679E+04 -1.62660E+03 -2.58243E+04  1.13299E+04 -2.12087E+04  2.13340E+04 -1.08004E+04
  1.99296E+04 -2.63811E+02  1.43430E+04  5.07227E+03  8.28412E+03  1.38891E+03  1.08731E+04 -1.70518E+03
  1.95473E+04  2.70205E+03  2.23603E+04  1.66917E+04  1.49427E+04  3.39373E+04 -2.70596E+03  3.93072E+04
 -2.26517E+04  3.21596E+04 -3.66759E+04  1.66034E+04 -3.88679E+04 -2.70551E+03 -3.19969E+04 -2.25827E+04
 -1.28578E+04 -3.23558E+04  1.15205E+04 -2.92166E+04  2.43391E+04 -1.42804E+04  2.18355E+04  6.49680E+03
  7.77836E+03  1.67371E+04 -1.04354E+04  1.39027E+04 -1.82079E+04  2.55757E+03 -1.35365E+04 -1.11231E+04
 -3.08121E+02 -1.72423E+04  8.88522E+03 -1.28121E+04  1.16247E+04 -1.56471E+03  2.38463E+03  7.55164E+03
 -7.79889E+03  3.07392E+03 -7.64485E+03 -6.44493E+03 -1.11812E+03 -1.56554E+04  1.06345E+04 -1.68291E+04
  1.97963E+04 -9.52999E+03  2.16833E+04  3.55443E+03  1.87932E+04  1.59030E+04  8.98379E+03  2.49211E+04
 -4.06175E+03  2.65279E+04 -1.72523E+04  1.60608E+04 -1.93528E+04  3.60918E+03 -1.32125E+04 -4.72861E+03
 -6.07682E+03 -6.52744E+03 -6.26084E+02  9.05354E+02 -2.46826E+03  3.06908E+03 -6.34175E+03  4.82796E+03
 -1.26903E+04 -8.41421E+02 -1.27369E+04 -1.02077E+04 -5.05088E+03 -1.70466E+04  5.59855E+03 -1.35443E+04
  1.12496E+04 -5.68645E+03  7.79948E+03  3.85062E+03  2.42246E+02  5.10587E+03 -6.73514E+03 -2.29196E+02
 -6.21188E+03 -8.62980E+03 -9.28217E+02 -1.27455E+04  7.30311E+03 -1.39689E+04  1.66454E+04 -7.41217E+03
  2.00335E+04  1.61346E+03  1.42196E+04  1.20037E+04  3.01032E+03  1.55546E+04 -7.95464E+03  1.31233E+04
 -1.04968E+04  4.04532E+03 -5.72610E+03 -2.82593E+03  2.23194E+03 -3.60902E+03  6.96097E+03 -1.02236E+03
  6.19396E+03  5.71500E+03  1.35417E+03  1.07068E+04 -7.80763E+03  1.02152E+04 -1.29290E+04  2.68203E+03
 -8.98487E+03 -6.89185E+03  1.53470E+02 -1.09501E+04  7.43599E+03 -5.65103E+03  7.44680E+03  2.67033E+03
  1.82856E+03  7.96561E+03 -7.09065E+03  8.84988E+03 -1.09040E+04  4.41343E+03 -1.11659E+04 -3.53746E+03
 -6.56388E+03 -1.25495E+04  3.03532E+03 -1.46045E+04  1.20298E+04 -8.80315E+03  1.34066E+04  2.30677E+03
  8.32005E+03  1.06945E+04 -9.52867E+02  1.30039E+04 -9.00965E+03  6.89576E+03 -1.00815E+04 -7.74050E+02
 -8.76065E+03 -8.57461E+03 -1.59016E+03 -9.33332E+03  4.85512E+03 -8.00229E+03  6.20961E+03 -3.30009E+03
  3.88577E+03  1.65436E+03 -3.68653E+02  1.71753E+03 -2.45094E+02 -2.15163E+03  1.94786E+03 -5.43201E+03
  8.84662E+03 -3.34737E+03  1.23718E+04  1.39228E+03  1.23469E+04  8.29794E+03  8.61818E+03  1.59276E+04
 -3.68272E+03  1.87693E+04 -1.56435E+04  1.37693E+04 -2.03211E+04  2.61909E+03 -1.59553E+04 -7.08148E+03
 -7.97104E+03 -1.32155E+04 -4.43657E+02 -1.12849E+04  3.95744E+03 -5.85840E+03  4.14502E+03 -3.97424E+03
  3.08068E+03 -2.51125E+03  3.45159E+03 -3.30736E+03  4.95246E+03 -2.73147E+03  6.18058E+03 -7.93987E+02
  8.67912E+03  2.02908E+03  4.04457E+03  7.33330E+03 -1.76837E+03  8.13774E+03 -8.85425E+03  6.46060E+03
 -1.11583E+04 -1.16059E+03 -6.46835E+03 -7.59844E+03 -4.72208E+02 -1.19248E+04  6.83656E+03 -1.22237E+04
  1.20315E+04 -6.59606E+03  1.46236E+04  1.59382E+03  1.00835E+04  1.02181E+04  2.01520E+03  1.35269E+04
 -5.79433E+03  1.10908E+04 -8.07136E+03  3.99716E+03 -5.02154E+03 -1.45731E+03 -2.39638E+03 -1.53051E+03
 -1.07060E+03 -2.17616E+02 -1.72898E+03  2.71484E+03 -4.72924E+03  1.80381E+03 -7.76353E+03 -9.10441E+02
 -5.59928E+03 -7.93153E+03  4.20690E+02 -1.08051E+04  6.50648E+03 -9.87668E+03  1.06136E+04 -3.15618E+03
  1.07245E+04  5.58341E+03  4.84211E+03  9.65296E+03 -2.02275E+03  1.09998E+04 -7.62938E+03  7.13517E+03
 -9.86747E+03  4.06072E+02 -8.22115E+03 -6.40752E+03 -4.27781E+02 -8.84621E+03  4.78802E+03 -6.62251E+03
  6.62525E+03 -2.61097E+03  4.63082E+03  1.86258E+03  1.83431E+03  3.43590E+03  1.12311E+03  1.42104E+03
  2.36445E+03  7.77970E+02  2.78861E+03  1.82060E+03  3.17603E+03  3.69642E+03  3.14556E+03  5.43218E+03
 -2.55640E+03  8.36161E+03 -7.13681E+03  8.98414E+03 -1.02085E+04  2.28292E+03 -1.10907E+04 -4.09863E+03
 -5.32557E+03 -1.05359E+04  1.43814E+03 -1.16626E+04  6.33613E+03 -7.35300E+03  8.59602E+03 -1.79650E+03
  6.74285E+03  4.08328E+03  1.63533E+03  5.92135E+03 -2.68485E+03  3.90431E+03 -3.96592E+03 -5.88222E+02
 -1.75309E+03 -4.51127E+03  2.16716E+03 -4.17151E+03  4.44803E+03 -2.11214E+03  4.04305E+03  8.07849E+02
  2.37474E+03  2.14218E+03  1.31030E+03  1.44050E+03 -6.37476E+02  1.37258E+03  1.39324E+03 -4.87170E+02
  1.53591E+03 -9.28757E+02  4.18558E+03  2.13461E+03  2.56434E+03  5.45916E+03 -1.03886E+03  7.22000E+03
 -4.67579E+03  4.41252E+03 -6.52514E+03  1.25892E+03 -5.86474E+03 -2.39001E+03 -1.85826E+03 -3.90559E+03
  1.07224E+03 -3.98112E+03  2.56886E+03 -1.86069E+03  2.21848E+03  2.03909E+03 -9.79638E+02  3.32995E+03
 -4.09354E+03  1.85131E+03 -4.62054E+03 -2.36395E+03 -2.35566E+03 -5.83439E+03  7.61968E+02 -5.42421E+03
  2.74835E+03 -3.39446E+03  3.97032E+03 -1.13731E+02  3.53447E+03  8.61614E+02  9.00957E+02  3.44998E+03
 -2.30624E+03  1.08944E+03 -2.42268E+03 -1.61679E+03  1.05548E+03 -3.83367E+03  5.14629E+03 -3.18975E+03
  5.95523E+03  5.43023E+02  6.74715E+03  3.81824E+03  1.97559E+03  6.53346E+03 -2.16744E+03  6.14867E+03
 -5.19956E+03  2.33328E+03 -5.51384E+03 -1.01765E+03 -2.83979E+03 -4.41183E+03  1.23167E+03 -3.63432E+03
  4.01545E+03 -1.93390E+03  2.92738E+03  1.96852E+03  1.06288E+03  3.51262E+03 -3.42778E+02  3.03067E+03
 -1.53529E+03  2.07946E+03 -1.76469E+03  5.37107E+02 -3.22564E+02  7.61268E+02 -1.43477E+03  1.46233E+03
 -1.72353E+03  2.38137E+03 -4.75696E+03  2.06340E+03 -6.23231E+03  1.25497E+02 -7.47359E+03 -4.08360E+03
 -3.51618E+03 -8.21604E+03  1.86410E+03 -9.85910E+03  5.42039E+03 -7.44564E+03  9.07507E+03 -2.83478E+03
  8.27485E+03  1.55845E+03  5.37540E+03  5.51617E+03  2.52082E+02  6.27757E+03 -2.86435E+03  4.59516E+03
 -3.83571E+03  1.70570E+03 -2.18283E+03 -9.00013E+02 -6.71594E+02 -2.96867E+02 -6.32197E+02 -1.49209E+01
 -1.71862E+03  1.22718E+02 -1.30015E+03 -8.47143E+01 -3.94204E+01 -1.91726E+03 -1.45748E+02 -2.59282E+03
  2.74417E+03 -2.19209E+03  3.55794E+03  2.31312E+02  4.02538E+03  3.35881E+03  7.53243E+02  6.20188E+03
 -2.77730E+03  7.26601E+03 -6.68521E+03  3.98983E+03 -7.17768E+03 -5.52742E+02 -5.35724E+03 -4.76624E+03
 -2.30981E+03 -6.32968E+03  1.24676E+03 -5.87182E+03  3.82405E+03 -2.99254E+03  4.04470E+03  1.67638E+02
  2.13580E+03  1.84204E+03 -2.62686E+02  1.79479E+03 -1.33957E+03 -7.22567E+00  1.13167E+02 -1.52798E+03
  1.87509E+03 -1.01674E+03  2.37162E+03  1.04235E+03  1.39324E+03  2.43857E+03  3.36421E+02  2.75767E+03
 -2.60501E+03  2.90532E+03 -4.17153E+03  7.41737E+02 -3.44205E+03 -2.64512E+03 -1.04473E+02 -5.03410E+03
  3.09954E+03 -3.92867E+03  4.04737E+03 -1.31916E+03  4.34672E+03  7.58699E+02  2.26107E+03  3.80015E+03
  8.67929E+02  4.14549E+03 -1.75069E+03  3.04571E+03 -2.25777E+03  1.72795E+03 -1.88440E+03  3.45870E+02
 -1.01399E+03  3.86807E+02 -1.51395E+03  1.58417E+02 -2.19252E+03  3.78980E+02 -2.90655E+03 -7.01450E+02
 -3.34951E+03 -1.47849E+03 -7.17725E+02 -3.87068E+03  1.80785E+03 -4.34310E+03  3.24407E+03 -1.93429E+03
  3.98814E+03  5.98112E+02  1.80920E+03  2.34090E+03 -2.97468E+02  3.23502E+03 -2.87518E+03  2.22261E+03
