 $NMID ID='MM_0lb_SNR800_19hz_g45_36.RAW', FMTDAT='(8E13.5)'
 TRAMP=1., VOLUME=1. $END
  3.09759E+05  4.62038E+02  3.37112E+05  2.50473E+05  8.42952E+04  3.37270E+05 -1.32526E+05  2.50114E+05
 -1.89565E+05  8.23994E+04 -1.10839E+05 -3.27948E+04  1.32496E+03 -5.02480E+04  5.39565E+04  1.00332E+02
  3.48837E+04  5.27892E+04 -1.71668E+04  7.50012E+04 -6.02464E+04  6.27870E+04 -8.27670E+04  3.15645E+04
 -7.93655E+04 -1.11331E+04 -5.60430E+04 -5.00087E+04 -1.47739E+04 -6.81233E+04  2.68495E+04 -4.44100E+04
  3.89371E+04  3.85928E+03  1.53997E+04  4.68066E+04 -3.39841E+04  4.60102E+04 -6.50450E+04 -3.33527E+02
 -5.18216E+04 -5.56676E+04 -6.14466E+03 -7.50980E+04  3.29549E+04 -5.31734E+04  4.60411E+04 -1.64279E+04
  4.13534E+04  1.09824E+04  3.07531E+04  2.41816E+04  1.58216E+04  2.80646E+04 -4.55993E+03  2.67388E+04
 -2.16522E+04  1.27017E+04 -1.92080E+04 -4.37432E+03  3.81003E+03 -7.67294E+03  2.09998E+04  1.05328E+04
  7.58500E+03  3.26217E+04 -3.04775E+04  3.38209E+04 -6.07588E+04  2.13129E+03 -5.50579E+04 -4.09831E+04
 -1.24436E+04 -6.03937E+04  3.76681E+04 -4.30749E+04  5.50257E+04 -1.90397E+03  3.15122E+04  3.03016E+04
 -6.58648E+03  3.26252E+04 -2.80780E+04  1.30050E+04 -2.71689E+04 -5.57889E+03 -1.42153E+04 -1.01061E+04
 -7.40066E+03 -1.11505E+04 -1.36890E+03 -1.61757E+04  6.41020E+03 -2.23616E+04  1.49240E+04 -1.40016E+04
  1.23742E+04  3.99398E+03 -5.89328E+03  1.29873E+04 -1.88720E+04 -2.12474E+03 -8.05633E+03 -2.98002E+04
  2.07351E+04 -4.01946E+04  4.40798E+04 -1.82469E+04  4.14631E+04  1.86665E+04  1.40301E+04  4.14595E+04
 -1.51795E+04  3.05270E+04 -2.32879E+04  8.00958E+02 -7.79541E+03 -2.63680E+04  2.05360E+04 -3.06629E+04
  3.74890E+04 -7.27372E+03  3.10934E+04  2.25898E+04  1.50005E+04  4.18744E+04 -7.82875E+03  4.45401E+04
 -2.80205E+04  2.90963E+04 -3.65712E+04  8.20786E+03 -3.75967E+04 -1.48157E+04 -2.10254E+04 -3.39870E+04
  6.59635E+03 -3.35717E+04  2.87731E+04 -1.24655E+04  2.64615E+04  1.06121E+04  2.82387E+03  1.77391E+04
 -1.28381E+04  6.77955E+03 -9.71190E+03 -7.80198E+03  5.99201E+03 -9.97189E+03  1.71095E+04  6.44758E+03
  1.21249E+04  2.11948E+04 -6.88032E+03  2.30531E+04 -2.14537E+04  8.98271E+03 -2.45754E+04 -6.69934E+03
 -1.62931E+04 -1.61787E+04 -5.10524E+03 -1.62298E+04  3.75524E+03 -1.40880E+04  1.20263E+04 -1.37665E+04
  2.04436E+04 -1.16624E+04  2.75482E+04  1.06860E+03  2.09390E+04  1.59769E+04  3.86677E+03  3.17843E+04
 -1.55323E+04  2.71318E+04 -2.55070E+04  9.27803E+03 -1.94062E+04 -1.05602E+04 -3.66202E+03 -1.41088E+04
  2.88635E+03 -4.20512E+03 -2.46133E+03  5.29380E+03 -1.26034E+04  5.42412E+03 -1.29856E+04 -4.90688E+03
 -8.47041E+03 -1.49381E+04  4.10096E+03 -1.88283E+04  1.21346E+04 -1.37961E+04  1.40865E+04 -1.58365E+03
  8.78305E+03  1.06186E+04 -1.04080E+03  1.50905E+04 -9.97964E+03  8.41126E+03 -1.47919E+04 -3.19121E+03
 -1.11781E+04 -1.36685E+04 -1.48414E+03 -1.84883E+04  8.47276E+03 -1.50411E+04  1.57109E+04 -7.11295E+03
  1.40877E+04  5.56241E+02  1.02985E+04  3.76539E+03  5.26546E+03  3.41033E+02  7.35443E+03 -1.62095E+03
  1.32994E+04  2.74936E+03  1.42018E+04  1.23842E+04  8.61781E+03  2.41555E+04 -3.29449E+03  2.55241E+04
 -1.53017E+04  1.95120E+04 -2.34772E+04  9.26822E+03 -2.36924E+04 -1.56327E+03 -2.06709E+04 -1.37418E+04
 -9.84931E+03 -1.94103E+04  6.36729E+03 -1.83746E+04  1.58306E+04 -1.05875E+04  1.50383E+04  3.39128E+03
  6.32211E+03  1.06950E+04 -6.71374E+03  1.02887E+04 -1.26650E+04  2.81346E+03 -1.01815E+04 -7.75028E+03
 -2.67881E+02 -1.21311E+04  6.04029E+03 -9.12522E+03  7.63622E+03 -1.29151E+03  1.28317E+03  4.78681E+03
 -5.41177E+03  1.17101E+03 -3.51808E+03 -4.51881E+03  8.21768E+02 -9.87776E+03  7.58298E+03 -9.38210E+03
  1.18910E+04 -4.42276E+03  1.11851E+04  2.71025E+03  9.53771E+03  8.99761E+03  4.69218E+03  1.32139E+04
 -1.32438E+03  1.50406E+04 -9.28144E+03  9.91958E+03 -1.06863E+04  2.60422E+03 -7.91142E+03 -1.66506E+03
 -4.33758E+03 -3.00531E+03 -7.89297E+02  1.74007E+03 -2.14333E+03  2.05392E+03 -3.44352E+03  3.49498E+03
 -7.70877E+03 -6.34417E+02 -8.17908E+03 -6.71363E+03 -3.29214E+03 -1.10346E+04  3.27859E+03 -8.09606E+03
  6.76864E+03 -3.51851E+03  5.21001E+03  2.27970E+03  7.60542E+02  3.15648E+03 -3.44989E+03 -5.26194E+02
 -3.24148E+03 -4.63118E+03 -8.51703E+02 -7.05400E+03  3.60833E+03 -7.59398E+03  9.73021E+03 -3.77730E+03
  1.12593E+04  6.57671E+02  8.24914E+03  5.94504E+03  1.84788E+03  8.33421E+03 -5.10201E+03  7.93548E+03
 -6.73979E+03  2.67936E+03 -3.39682E+03 -9.36573E+02  1.12745E+03 -1.83479E+03  4.52229E+03 -9.09728E+02
  3.96501E+03  3.19663E+03  8.86512E+02  6.05154E+03 -4.15767E+03  6.17077E+03 -7.32606E+03  1.58285E+03
 -4.66526E+03 -3.32696E+03  3.21432E+02 -6.35045E+03  3.47910E+03 -3.08809E+03  3.23659E+03  8.54899E+02
  3.53780E+02  3.10789E+03 -3.92305E+03  4.34270E+03 -4.47331E+03  2.26048E+03 -4.01616E+03 -1.02998E+03
 -2.74836E+03 -5.44571E+03  1.05218E+03 -6.61633E+03  5.67290E+03 -4.42349E+03  5.90882E+03  1.05943E+03
  4.18991E+03  4.72781E+03  2.71722E+02  6.74354E+03 -4.80394E+03  3.86391E+03 -5.11911E+03 -1.46033E+02
 -5.30058E+03 -5.13924E+03 -1.58580E+03 -5.10837E+03  2.40633E+03 -4.28081E+03  2.81601E+03 -2.95314E+03
  2.64943E+03  1.61750E+01 -1.20033E+01  1.24656E+03  5.37628E+02 -4.47058E+02  2.57916E+00 -1.66459E+03
  3.54619E+03 -5.87430E+02  4.78195E+03  6.25913E+02  5.04025E+03  2.69059E+03  5.12961E+03  6.44028E+03
 -1.01053E+03  7.60408E+03 -7.27760E+03  5.93844E+03 -9.18955E+03  1.11219E+03 -7.06733E+03 -2.46174E+03
 -3.83520E+03 -5.96945E+03 -1.81922E+02 -4.57810E+03  1.93160E+03 -2.23937E+03  1.43397E+03 -1.87926E+03
  1.42308E+03 -1.51256E+03  2.23589E+03 -2.30175E+03  3.59196E+03 -1.37481E+03  3.38194E+03  1.43743E+02
  4.35839E+03  1.10777E+03  1.22241E+03  2.81737E+03 -1.59219E+03  2.57261E+03 -4.14910E+03  2.49882E+03
 -4.69041E+03 -1.01776E+03 -1.56473E+03 -2.80319E+03  5.25334E+02 -4.66866E+03  2.96482E+03 -5.13751E+03
  4.71069E+03 -2.78780E+03  6.34633E+03  2.33642E+02  4.70791E+03  3.98736E+03  1.20421E+03  5.65163E+03
 -2.01300E+03  5.50764E+03 -3.06953E+03  1.74948E+03 -1.70933E+03 -9.36150E+02 -6.48869E+02 -4.44478E+02
 -6.48970E+02  5.83189E+02 -6.60393E+02  1.98690E+03 -2.51312E+03  9.48084E+02 -3.56311E+03 -4.29736E+02
 -1.39067E+03 -3.76006E+03  7.54214E+02 -4.46263E+03  2.42012E+03 -4.16271E+03  3.32772E+03 -1.00826E+03
  3.59806E+03  2.25715E+03  1.59109E+03  3.43279E+03 -6.13253E+02  4.05532E+03 -2.24046E+03  2.72841E+03
 -3.25528E+03  5.96940E+02 -3.03456E+03 -2.40984E+03 -3.75546E+02 -3.03010E+03  1.54732E+03 -2.33862E+03
  2.50036E+03 -1.09830E+03  1.55871E+03  2.33155E+02  4.15138E+02  1.40957E+03  8.27246E+02  3.60783E+02
  1.62700E+03  5.66860E+02  9.90406E+02  8.37830E+02  9.54801E+02  1.97571E+03  1.25636E+03  1.60609E+03
 -1.19382E+03  2.66846E+03 -2.11681E+03  3.77442E+03 -2.40447E+03  1.37022E+03 -3.75749E+03 -3.44230E+02
 -1.68952E+03 -3.46454E+03  8.88767E+02 -4.35084E+03  1.80600E+03 -2.31289E+03  2.93975E+03 -8.86072E+02
  2.10432E+03  1.61545E+03  3.61380E+02  2.50922E+03 -5.00325E+02  1.10575E+03 -1.01010E+03 -2.52581E+02
 -2.07229E+02 -1.56620E+03  9.51199E+02 -1.47788E+03  1.21231E+03 -9.77597E+02  1.10166E+03  8.32619E+02
  8.56500E+02 -6.53162E+01  7.13809E+02 -1.57938E+02 -3.39484E+02  7.73753E+02  1.44490E+03  1.31686E+02
 -3.78776E+01 -1.43317E+02  1.63336E+03  2.92912E+02  1.70921E+02  2.28386E+03 -3.31670E+02  2.30205E+03
 -1.49874E+03  8.20375E+02 -1.70945E+03  4.84795E+02 -2.04136E+03 -8.27699E+02 -2.42117E+00 -6.63715E+02
  2.36432E+02 -1.03790E+03  6.17923E+02 -5.82799E+02  6.07587E+02  1.20070E+03 -3.03630E+02  9.56788E+02
 -1.37934E+03  7.24761E+02 -9.58649E+02 -1.27064E+03 -4.61409E+02 -2.10857E+03  1.07234E+02 -1.29943E+03
  1.58268E+02 -4.56132E+02  4.53942E+02  3.47717E+02  1.38887E+03 -1.77196E+02  3.42243E+02  1.21542E+03
 -2.30244E+02  1.48654E+02 -7.28418E+02  5.69153E+01  5.69736E+02 -6.87754E+02  1.26643E+03 -4.39538E+02
  9.25922E+02  2.36839E+02  2.64118E+03  2.83822E+02  9.86519E+02  1.55211E+03 -2.59744E+02  1.70976E+03
 -1.18102E+03  2.90287E+01 -1.14926E+03 -1.21624E+02 -7.10468E+02 -1.30342E+03  6.28666E+02 -2.87537E+02
  1.42982E+03 -1.14505E+03  9.56113E+02  6.13345E+02  2.88982E+02  9.09289E+02  3.33370E+02  1.10842E+03
 -3.97033E+02  7.98877E+02 -4.54035E+02  1.07839E+02 -1.18643E+02  4.52469E+02 -7.28356E+02  6.03587E+02
 -6.03665E+02  9.98981E+02 -1.86884E+03  4.95600E+02 -1.71875E+03  2.30316E+02 -2.17865E+03 -9.77846E+02
 -1.33612E+03 -2.12311E+03  2.09209E+02 -2.46289E+03  6.49427E+02 -2.26260E+03  2.63369E+03 -7.48555E+02
  2.21990E+03  7.13346E+01  1.24776E+03  1.27956E+03 -4.75721E+02  1.13299E+03 -5.53631E+02  9.92591E+02
 -8.76797E+02  9.21933E+02 -6.07289E+02 -2.24477E+02 -5.23517E+02  4.93512E+02 -7.55416E+02 -2.15752E+02
 -1.10027E+03  1.81317E+02 -7.89263E+02 -6.10520E+01  2.12068E+02 -6.43388E+02 -3.66840E+02 -8.26921E+02
  1.17251E+03 -3.66609E+02  3.26312E+02  4.20616E+02  9.46103E+02  8.03080E+02 -6.48003E+02  1.30692E+03
 -8.52022E+02  1.97876E+03 -1.18255E+03  1.11216E+03 -1.60602E+03 -1.38164E+02 -9.45307E+02 -1.31662E+03
 -1.01403E+03 -1.05437E+03  2.36107E+02 -8.53577E+02  3.87444E+02 -4.45776E+02  3.22117E+02  3.08403E+02
  7.25854E+02  1.44459E+02  3.90886E+02  1.60788E+02 -1.85849E+02 -8.09195E+01  3.29047E+01 -2.82155E+02
  2.45823E+02 -1.11483E+02  1.42271E+02  5.72106E+02 -2.23215E+02  2.06995E+02  3.17127E+02  1.78019E+02
 -6.38167E+02  4.14901E+02 -5.36297E+02  5.28634E+01 -6.41269E+02 -4.45805E+02  1.53349E+02 -1.13457E+03
  5.67996E+02 -3.94364E+02  2.28326E+02 -1.00174E+02  7.17393E+02 -6.13678E+02  6.23435E+02  5.39081E+02
  4.57113E+02  5.38480E+02 -6.41166E+01  3.30525E+02 -3.29924E+02  6.72933E+02 -2.42392E+02  2.33801E+02
 -9.96159E+01  8.09998E+01 -5.36788E+02  2.42787E+02 -8.03307E+02 -1.20169E+02 -5.08053E+02 -2.51448E+02
 -1.21697E+03  3.16944E+02 -2.41773E+02 -9.77983E+02  8.57141E+02 -1.47897E+03  6.11872E+02 -2.94766E+01
  5.85117E+02  9.37537E+01 -6.36960E+02 -1.67032E+02  6.25325E+01  7.67564E+02 -2.10512E+02  7.36122E+02
