 $NMID ID='MM_0lb_SNR800_13hz_g45_10.RAW', FMTDAT='(8E13.5)'
 TRAMP=1., VOLUME=1. $END
  3.09802E+05  5.55910E+02  3.37852E+05  2.50797E+05  8.45874E+04  3.37990E+05 -1.32397E+05  2.51315E+05
 -1.90525E+05  8.32443E+04 -1.11920E+05 -3.25029E+04  5.06821E+02 -5.05106E+04  5.34308E+04 -3.06024E+02
  3.54787E+04  5.26579E+04 -1.66769E+04  7.54237E+04 -6.06557E+04  6.38077E+04 -8.39987E+04  3.18995E+04
 -8.11267E+04 -1.15797E+04 -5.71937E+04 -5.12925E+04 -1.50368E+04 -6.98585E+04  2.77006E+04 -4.58055E+04
  4.02956E+04  4.04102E+03  1.60063E+04  4.76752E+04 -3.42150E+04  4.72319E+04 -6.70085E+04 -4.29138E+02
 -5.36125E+04 -5.69754E+04 -6.98073E+03 -7.74173E+04  3.40347E+04 -5.51144E+04  4.79058E+04 -1.72982E+04
  4.37816E+04  1.13830E+04  3.20194E+04  2.57109E+04  1.60232E+04  2.94658E+04 -5.46750E+03  2.71969E+04
 -2.21112E+04  1.23270E+04 -1.86333E+04 -5.08010E+03  5.79707E+03 -7.25026E+03  2.26325E+04  1.23275E+04
  7.55875E+03  3.51913E+04 -3.23190E+04  3.55264E+04 -6.35047E+04  2.30547E+03 -5.74487E+04 -4.24145E+04
 -1.22808E+04 -6.35203E+04  3.96416E+04 -4.53714E+04  5.85882E+04 -2.28978E+03  3.45650E+04  3.27153E+04
 -6.25130E+03  3.63380E+04 -3.03820E+04  1.62450E+04 -3.05963E+04 -4.43478E+03 -1.69407E+04 -1.08544E+04
 -8.59719E+03 -1.36170E+04 -7.54400E+02 -1.85122E+04  7.70389E+03 -2.29381E+04  1.53781E+04 -1.29422E+04
  1.13686E+04  5.41011E+03 -8.55109E+03  1.31305E+04 -2.14530E+04 -4.53525E+03 -8.18725E+03 -3.41897E+04
  2.31860E+04 -4.38532E+04  4.82825E+04 -1.96147E+04  4.53221E+04  1.93423E+04  1.59110E+04  4.44887E+04
 -1.60699E+04  3.37446E+04 -2.57241E+04  2.09052E+03 -9.72707E+03 -2.81896E+04  2.10093E+04 -3.40003E+04
  4.10963E+04 -9.57326E+03  3.58249E+04  2.39297E+04  1.83860E+04  4.66949E+04 -8.15504E+03  5.09656E+04
 -3.22438E+04  3.42828E+04 -4.28123E+04  9.52954E+03 -4.31170E+04 -1.66901E+04 -2.37900E+04 -3.84687E+04
  7.51612E+03 -3.81601E+04  3.14211E+04 -1.46059E+04  2.94761E+04  1.10667E+04  4.43449E+03  1.90831E+04
 -1.34774E+04  8.37099E+03 -1.03628E+04 -7.57324E+03  5.51026E+03 -1.03890E+04  1.81057E+04  5.95967E+03
  1.32765E+04  2.23214E+04 -5.85581E+03  2.52214E+04 -2.24727E+04  1.19153E+04 -2.82153E+04 -4.53984E+03
 -2.11821E+04 -1.71793E+04 -8.69049E+03 -2.09295E+04  4.05607E+03 -2.03727E+04  1.62763E+04 -1.85002E+04
  2.68531E+04 -1.28846E+04  3.29615E+04  2.87927E+03  2.43149E+04  2.02973E+04  4.11165E+03  3.68732E+04
 -1.79869E+04  3.08360E+04 -2.81040E+04  1.04642E+04 -2.09742E+04 -1.02743E+04 -4.32548E+03 -1.35259E+04
  1.60418E+03 -2.31669E+03 -5.47564E+03  6.73450E+03 -1.67817E+04  5.08924E+03 -1.69650E+04 -7.24183E+03
 -1.05382E+04 -1.91707E+04  5.55545E+03 -2.36123E+04  1.55902E+04 -1.68851E+04  1.88647E+04 -2.07422E+03
  1.18460E+04  1.34208E+04 -9.92167E+02  1.95138E+04 -1.34087E+04  1.12085E+04 -1.95161E+04 -4.13022E+03
 -1.40962E+04 -1.73893E+04 -1.75940E+03 -2.34877E+04  1.04048E+04 -1.92369E+04  1.93611E+04 -9.61803E+03
  1.82450E+04  1.23535E+02  1.28578E+04  4.70351E+03  6.85147E+03  9.60923E+02  9.67372E+03 -1.72018E+03
  1.82665E+04  2.78885E+03  1.99552E+04  1.51388E+04  1.32892E+04  3.11313E+04 -2.94839E+03  3.50223E+04
 -2.02175E+04  2.85047E+04 -3.29346E+04  1.43215E+04 -3.45472E+04 -2.46373E+03 -2.85629E+04 -2.03408E+04
 -1.21059E+04 -2.83036E+04  9.69827E+03 -2.60856E+04  2.21796E+04 -1.30221E+04  2.00622E+04  5.87613E+03
  7.46578E+03  1.48526E+04 -9.32670E+03  1.28666E+04 -1.69107E+04  2.42345E+03 -1.24164E+04 -1.02363E+04
 -4.29408E+02 -1.59502E+04  8.17827E+03 -1.18876E+04  1.08428E+04 -1.64854E+03  2.26446E+03  6.36798E+03
 -7.11283E+03  2.86579E+03 -6.49743E+03 -5.74003E+03 -5.51516E+02 -1.37980E+04  9.56532E+03 -1.47938E+04
  1.70340E+04 -7.64898E+03  1.84743E+04  3.08209E+03  1.67081E+04  1.36915E+04  7.81779E+03  2.12527E+04
 -3.39358E+03  2.31608E+04 -1.48912E+04  1.44057E+04 -1.65926E+04  3.43565E+03 -1.16906E+04 -3.67008E+03
 -5.55497E+03 -5.69098E+03 -7.52840E+02  1.18502E+03 -2.51076E+03  2.96044E+03 -5.62402E+03  4.57029E+03
 -1.11297E+04 -4.60551E+02 -1.15402E+04 -9.51393E+03 -4.75668E+03 -1.50156E+04  5.20011E+03 -1.20034E+04
  9.89422E+03 -5.01662E+03  7.09579E+03  3.07757E+03  5.37177E+02  4.61205E+03 -5.40421E+03 -4.65315E+02
 -5.44465E+03 -7.45975E+03 -1.02763E+03 -1.09996E+04  6.18862E+03 -1.22885E+04  1.45903E+04 -6.14383E+03
  1.71360E+04  1.53635E+03  1.25343E+04  1.02443E+04  2.33052E+03  1.33046E+04 -7.34111E+03  1.13965E+04
 -9.85216E+03  3.47483E+03 -4.78858E+03 -2.25656E+03  1.43136E+03 -3.26225E+03  6.61926E+03 -8.66505E+02
  5.51014E+03  5.35124E+03  1.65912E+03  9.49312E+03 -6.46359E+03  8.98522E+03 -1.10904E+04  2.37809E+03
 -7.73469E+03 -5.48676E+03  4.30369E+02 -9.92840E+03  6.05922E+03 -4.83275E+03  6.13210E+03  1.98064E+03
  1.22973E+03  6.17190E+03 -6.08176E+03  7.83790E+03 -9.07962E+03  3.39828E+03 -8.78480E+03 -2.71510E+03
 -5.41248E+03 -1.05646E+04  2.60207E+03 -1.20925E+04  1.00571E+04 -7.58695E+03  1.12480E+04  2.22034E+03
  7.10435E+03  8.87410E+03 -8.37488E+02  1.10142E+04 -7.72626E+03  6.26680E+03 -8.81384E+03 -9.92789E+02
 -7.84366E+03 -7.68791E+03 -1.56801E+03 -8.11101E+03  4.39969E+03 -6.56865E+03  5.16977E+03 -3.15206E+03
  3.72026E+03  1.38691E+03 -6.83761E+02  1.33077E+03  2.86012E+02 -1.58096E+03  1.00425E+03 -4.49776E+03
  7.28426E+03 -2.68750E+03  1.04196E+04  1.33563E+03  1.00904E+04  6.86318E+03  7.46935E+03  1.35823E+04
 -2.82271E+03  1.57896E+04 -1.33962E+04  1.14043E+04 -1.71729E+04  2.06662E+03 -1.34455E+04 -5.46338E+03
 -6.96851E+03 -1.13145E+04 -3.16195E+02 -9.06074E+03  3.33445E+03 -5.15697E+03  3.35237E+03 -3.45206E+03
  2.56303E+03 -2.11009E+03  2.98340E+03 -3.02407E+03  4.33220E+03 -2.27452E+03  5.59087E+03 -8.60369E+02
  6.88868E+03  1.97694E+03  2.97866E+03  6.39451E+03 -2.22670E+03  6.73218E+03 -7.23271E+03  5.32018E+03
 -8.86347E+03 -6.87366E+02 -4.89740E+03 -6.48195E+03 -3.49536E+02 -9.93347E+03  6.05883E+03 -9.91020E+03
  1.01752E+04 -5.55243E+03  1.25577E+04  1.51810E+03  8.66907E+03  8.19835E+03  1.74069E+03  1.10980E+04
 -4.24654E+03  9.28156E+03 -6.56060E+03  3.45101E+03 -4.22510E+03 -1.06763E+03 -9.56032E+02 -1.16994E+03
 -1.13610E+03  2.47076E+02 -1.42083E+03  2.46975E+03 -3.68242E+03  2.02533E+03 -6.91892E+03 -8.08948E+02
 -4.20882E+03 -6.99989E+03  6.94277E+02 -9.09950E+03  5.40004E+03 -8.45591E+03  8.20701E+03 -2.44745E+03
  8.38829E+03  4.47536E+03  4.02916E+03  7.76646E+03 -1.76517E+03  8.98440E+03 -6.02364E+03  5.46383E+03
 -8.04392E+03  5.33727E+02 -6.68581E+03 -5.35483E+03 -3.98916E+02 -6.73278E+03  3.71806E+03 -5.01462E+03
  5.64374E+03 -2.01924E+03  3.80850E+03  1.61357E+03  1.33368E+03  2.72425E+03  1.19768E+03  1.21707E+03
  2.06748E+03  9.93737E+02  2.05084E+03  1.32357E+03  2.41026E+03  3.33350E+03  2.13842E+03  4.27597E+03
 -2.26041E+03  6.73961E+03 -5.60212E+03  7.41458E+03 -8.14991E+03  1.85649E+03 -9.19970E+03 -2.95127E+03
 -4.11171E+03 -8.48250E+03  1.10189E+03 -9.72105E+03  4.62792E+03 -5.96212E+03  6.74275E+03 -1.77467E+03
  5.29139E+03  3.25239E+03  8.70938E+02  4.61042E+03 -2.03280E+03  3.19931E+03 -3.33610E+03 -1.28168E+02
 -1.64151E+03 -3.39815E+03  2.06058E+03 -3.63252E+03  3.46528E+03 -1.81712E+03  3.15103E+03  8.35493E+02
  2.10219E+03  1.34493E+03  1.18606E+03  9.84911E+02 -6.97973E+02  9.66540E+02  1.66954E+03 -7.43862E+02
  1.17397E+03 -3.39322E+02  3.67825E+03  1.52521E+03  1.46210E+03  4.52489E+03 -7.62631E+02  6.10796E+03
 -3.72631E+03  3.64377E+03 -4.98262E+03  8.68686E+02 -4.62660E+03 -1.71508E+03 -1.46445E+03 -3.22921E+03
  7.03782E+02 -3.12342E+03  2.30085E+03 -1.60359E+03  1.54130E+03  2.24575E+03 -7.98032E+02  2.61116E+03
 -3.33198E+03  1.63408E+03 -3.14135E+03 -2.14599E+03 -1.87608E+03 -4.43605E+03  3.88324E+02 -3.92920E+03
  2.29632E+03 -2.40719E+03  2.91080E+03 -2.25218E+02  2.55776E+03  1.10075E+03  1.93227E+02  2.46082E+03
 -1.28349E+03  7.54167E+02 -2.23944E+03 -8.92223E+02  8.44337E+02 -3.12252E+03  4.07174E+03 -2.69479E+03
  4.59711E+03  7.08892E+01  5.33676E+03  3.00221E+03  1.65215E+03  5.06955E+03 -1.29586E+03  4.66355E+03
 -4.05692E+03  2.09538E+03 -4.17177E+03 -4.51140E+02 -2.35310E+03 -3.58623E+03  6.33215E+02 -2.69095E+03
  3.40458E+03 -1.59466E+03  2.61016E+03  1.36258E+03  8.25941E+02  3.07253E+03 -2.43252E+02  3.01568E+03
 -1.07867E+03  1.79143E+03 -1.25006E+03  5.55751E+02 -4.56864E+02  3.63387E+02 -1.28588E+03  1.00908E+03
 -1.34969E+03  2.27712E+03 -3.84706E+03  1.46974E+03 -5.21130E+03  7.83314E+01 -5.82959E+03 -3.06953E+03
 -2.78549E+03 -6.34003E+03  1.45095E+03 -7.42294E+03  4.09305E+03 -5.99330E+03  7.18979E+03 -2.46429E+03
  6.56458E+03  8.50387E+02  3.99767E+03  4.76275E+03  1.61406E+02  4.76716E+03 -2.25455E+03  3.62060E+03
 -2.73710E+03  1.55937E+03 -1.64919E+03 -5.47301E+02 -4.48994E+02  9.95086E+00 -4.69478E+02 -2.72056E+02
 -1.71511E+03 -1.09691E+01 -1.35657E+03 -1.95062E+02 -1.03306E+02 -1.33521E+03 -3.29222E+02 -1.71028E+03
  2.71757E+03 -1.19619E+03  2.53573E+03  1.45403E+02  3.46890E+03  2.75826E+03  5.64463E+02  4.55520E+03
 -2.15544E+03  6.01040E+03 -5.49859E+03  3.10495E+03 -5.72335E+03 -5.04675E+02 -4.08730E+03 -3.43912E+03
 -2.01361E+03 -4.74940E+03  1.28312E+03 -4.08575E+03  2.55359E+03 -2.69214E+03  2.90979E+03 -1.12491E+02
  1.91390E+03  1.72762E+03  1.68657E+02  1.30035E+03 -1.29054E+03  2.07553E+02 -2.88533E+02 -9.81709E+02
  1.31849E+03 -5.20827E+02  1.53998E+03  6.27554E+02  9.79769E+02  1.80195E+03 -1.24693E+02  2.34721E+03
 -2.02336E+03  2.06882E+03 -3.09027E+03  3.60886E+02 -2.73670E+03 -2.11830E+03 -2.25460E+02 -3.68930E+03
  2.03273E+03 -2.75650E+03  3.12066E+03 -8.21064E+02  3.39291E+03  5.78214E+02  1.85999E+03  2.61958E+03
  4.50042E+02  3.07108E+03 -1.11716E+03  2.30372E+03 -1.72665E+03  1.40413E+03 -1.64556E+03  1.80663E+02
 -7.86019E+02 -2.66401E+02 -8.98155E+02  6.19298E+02 -1.65297E+03  7.06724E+02 -2.52405E+03 -4.59681E+02
 -2.38554E+03 -1.14570E+03 -7.76331E+02 -3.03339E+03  1.40810E+03 -3.18079E+03  2.64090E+03 -1.41420E+03
  2.95634E+03  2.66707E+02  1.22694E+03  1.79936E+03 -4.84687E+02  3.14369E+03 -1.98890E+03  2.09665E+03
