 $NMID ID='MM_0lb_SNR800_15hz_g55_62.RAW', FMTDAT='(8E13.5)'
 TRAMP=1., VOLUME=1. $END
  3.09504E+05  2.63452E+02  3.37672E+05  2.50600E+05  8.49221E+04  3.38261E+05 -1.32486E+05  2.51238E+05
 -1.90119E+05  8.30428E+04 -1.11808E+05 -3.23901E+04  8.17649E+02 -5.06204E+04  5.37679E+04  3.88342E+01
  3.54010E+04  5.30224E+04 -1.68133E+04  7.54866E+04 -6.09763E+04  6.36867E+04 -8.41653E+04  3.20633E+04
 -8.09027E+04 -1.14261E+04 -5.72034E+04 -5.14962E+04 -1.48895E+04 -6.94421E+04  2.73742E+04 -4.59271E+04
  4.00434E+04  3.70768E+03  1.64803E+04  4.81033E+04 -3.47113E+04  4.75073E+04 -6.66627E+04 -7.90517E+00
 -5.30867E+04 -5.67075E+04 -7.06601E+03 -7.70240E+04  3.38528E+04 -5.52770E+04  4.83511E+04 -1.75056E+04
  4.39093E+04  1.17958E+04  3.20289E+04  2.52832E+04  1.57207E+04  2.96076E+04 -5.45328E+03  2.77558E+04
 -2.21798E+04  1.24399E+04 -1.83294E+04 -5.08545E+03  5.65689E+03 -7.19017E+03  2.24093E+04  1.29172E+04
  7.22362E+03  3.50928E+04 -3.22924E+04  3.55732E+04 -6.34265E+04  2.16945E+03 -5.72734E+04 -4.30397E+04
 -1.20360E+04 -6.31710E+04  4.01147E+04 -4.54792E+04  5.82028E+04 -2.08956E+03  3.42842E+04  3.25269E+04
 -6.05365E+03  3.64950E+04 -2.98947E+04  1.63344E+04 -3.03479E+04 -4.35059E+03 -1.67390E+04 -1.08218E+04
 -8.30332E+03 -1.28297E+04 -7.49882E+02 -1.77946E+04  7.74164E+03 -2.30228E+04  1.52888E+04 -1.33816E+04
  1.17202E+04  4.94491E+03 -8.06877E+03  1.31094E+04 -2.12690E+04 -4.22838E+03 -8.31479E+03 -3.38235E+04
  2.31321E+04 -4.32564E+04  4.82449E+04 -1.97296E+04  4.48950E+04  1.94347E+04  1.56589E+04  4.42528E+04
 -1.57695E+04  3.34037E+04 -2.55295E+04  1.61502E+03 -9.69531E+03 -2.76809E+04  2.10080E+04 -3.37937E+04
  4.09523E+04 -8.93723E+03  3.54643E+04  2.41476E+04  1.79023E+04  4.66005E+04 -7.65950E+03  5.04751E+04
 -3.15744E+04  3.40617E+04 -4.19205E+04  9.22367E+03 -4.24250E+04 -1.67498E+04 -2.36483E+04 -3.81922E+04
  7.49171E+03 -3.77139E+04  3.15654E+04 -1.48288E+04  2.91462E+04  1.06875E+04  3.82647E+03  1.90995E+04
 -1.35892E+04  8.40355E+03 -1.04652E+04 -7.42223E+03  5.95048E+03 -1.09204E+04  1.81556E+04  6.27100E+03
  1.37405E+04  2.21090E+04 -6.06566E+03  2.49674E+04 -2.23864E+04  1.15475E+04 -2.80837E+04 -4.85546E+03
 -2.06638E+04 -1.74353E+04 -8.11822E+03 -2.01546E+04  3.88303E+03 -1.96476E+04  1.54954E+04 -1.81581E+04
  2.58208E+04 -1.28595E+04  3.25665E+04  2.62540E+03  2.39949E+04  1.98333E+04  4.33153E+03  3.63118E+04
 -1.77228E+04  3.06122E+04 -2.78477E+04  1.06504E+04 -2.09921E+04 -1.01420E+04 -4.33087E+03 -1.33909E+04
  1.54785E+03 -2.81103E+03 -4.68383E+03  6.69871E+03 -1.59683E+04  5.03530E+03 -1.57902E+04 -6.72435E+03
 -9.99281E+03 -1.88349E+04  5.12541E+03 -2.29168E+04  1.52269E+04 -1.64890E+04  1.80987E+04 -1.43290E+03
  1.13994E+04  1.29574E+04 -1.22575E+03  1.91776E+04 -1.25216E+04  1.10124E+04 -1.89568E+04 -4.35500E+03
 -1.38586E+04 -1.70332E+04 -1.57077E+03 -2.26496E+04  1.03041E+04 -1.85596E+04  1.87518E+04 -9.36375E+03
  1.75673E+04  3.18417E+02  1.30646E+04  4.15795E+03  6.75700E+03  9.68839E+02  9.27837E+03 -1.66827E+03
  1.72500E+04  2.49380E+03  1.90987E+04  1.51713E+04  1.24484E+04  3.00027E+04 -3.02717E+03  3.36413E+04
 -1.94795E+04  2.71146E+04 -3.13819E+04  1.32093E+04 -3.28174E+04 -2.30495E+03 -2.72682E+04 -1.88730E+04
 -1.19042E+04 -2.71962E+04  9.45536E+03 -2.43711E+04  2.11935E+04 -1.25941E+04  1.89618E+04  5.28947E+03
  7.06338E+03  1.41710E+04 -9.12590E+03  1.25015E+04 -1.58755E+04  2.48767E+03 -1.21485E+04 -9.73660E+03
  5.07031E+01 -1.48566E+04  7.83524E+03 -1.13876E+04  1.00768E+04 -1.36652E+03  2.16343E+03  6.52372E+03
 -6.69009E+03  2.28147E+03 -6.05287E+03 -5.76972E+03 -4.57076E+02 -1.32129E+04  9.29889E+03 -1.39258E+04
  1.64211E+04 -7.17047E+03  1.74638E+04  2.90467E+03  1.52089E+04  1.31802E+04  7.11647E+03  1.97005E+04
 -3.37103E+03  2.19257E+04 -1.37873E+04  1.32647E+04 -1.56050E+04  2.97106E+03 -1.09114E+04 -3.14186E+03
 -5.27034E+03 -4.75243E+03 -4.64589E+02  9.21284E+02 -2.12825E+03  2.47284E+03 -4.72470E+03  4.52760E+03
 -1.04090E+04 -9.23360E+02 -1.04508E+04 -8.79792E+03 -4.27406E+03 -1.41773E+04  4.40498E+03 -1.10508E+04
  9.44782E+03 -4.66711E+03  6.79271E+03  2.64505E+03  2.06395E+02  4.31676E+03 -4.92747E+03 -1.88499E+02
 -4.89883E+03 -7.16734E+03 -9.12518E+02 -1.03774E+04  5.57448E+03 -1.07811E+04  1.34510E+04 -5.76824E+03
  1.60700E+04  1.12228E+03  1.16366E+04  9.25313E+03  2.20171E+03  1.21541E+04 -6.92173E+03  1.09864E+04
 -9.18657E+03  3.17318E+03 -4.52386E+03 -2.10637E+03  2.02963E+03 -2.62413E+03  5.66878E+03 -8.46104E+02
  5.33160E+03  4.72195E+03  1.12222E+03  8.40766E+03 -6.11527E+03  8.27357E+03 -1.06419E+04  2.08575E+03
 -6.82409E+03 -5.05924E+03  2.02198E+02 -8.79722E+03  5.52102E+03 -4.27252E+03  5.63550E+03  1.76895E+03
  9.54339E+02  5.68227E+03 -5.40343E+03  7.04019E+03 -7.55551E+03  3.10550E+03 -7.69258E+03 -2.32033E+03
 -4.38903E+03 -9.18384E+03  2.49848E+03 -1.08174E+04  8.97107E+03 -6.32132E+03  1.00069E+04  1.57826E+03
  6.31976E+03  7.79453E+03 -5.48053E+02  9.79939E+03 -7.00739E+03  5.45574E+03 -7.58686E+03 -5.47070E+02
 -7.43768E+03 -6.85620E+03 -1.62108E+03 -7.36681E+03  3.90411E+03 -6.18956E+03  4.52124E+03 -3.23669E+03
  3.39101E+03  5.60516E+02 -2.93757E+02  1.38073E+03 -2.02828E+02 -1.47119E+03  1.16322E+03 -3.83585E+03
  6.52017E+03 -2.27228E+03  8.50576E+03  1.14079E+03  8.73001E+03  5.59979E+03  6.36427E+03  1.14843E+04
 -2.16812E+03  1.31965E+04 -1.16447E+04  9.89990E+03 -1.48882E+04  1.85710E+03 -1.21165E+04 -4.85889E+03
 -6.32902E+03 -9.80930E+03 -3.09020E+02 -7.99681E+03  2.85451E+03 -4.21959E+03  3.03216E+03 -3.22049E+03
  1.99854E+03 -2.04283E+03  2.51307E+03 -2.87322E+03  4.39762E+03 -1.88422E+03  4.84692E+03 -1.01988E+02
  6.63571E+03  1.80357E+03  2.60527E+03  5.21880E+03 -1.34724E+03  5.40948E+03 -6.36004E+03  4.45081E+03
 -8.02578E+03 -9.96886E+02 -4.28717E+03 -5.25303E+03 -6.45518E+00 -8.24887E+03  4.41161E+03 -8.31188E+03
  8.54445E+03 -4.80523E+03  1.04194E+04  8.65291E+02  7.46900E+03  6.96458E+03  1.29599E+03  9.64249E+03
 -3.73236E+03  8.31948E+03 -4.87988E+03  2.64863E+03 -3.64403E+03 -1.33079E+03 -1.03842E+03 -1.23907E+03
 -8.33748E+02  4.08406E+02 -1.20619E+03  2.38751E+03 -3.66946E+03  1.28504E+03 -5.44290E+03 -5.91434E+02
 -2.98541E+03 -5.82813E+03  4.47845E+02 -7.33875E+03  4.37365E+03 -7.06756E+03  6.39615E+03 -2.07884E+03
  7.09736E+03  3.56053E+03  3.22653E+03  6.13083E+03 -1.24478E+03  7.39158E+03 -4.98106E+03  4.30810E+03
 -6.49438E+03  5.91419E+02 -5.10147E+03 -4.13823E+03 -4.66384E+02 -5.71228E+03  3.08249E+03 -4.35230E+03
  4.38935E+03 -1.67819E+03  3.05276E+03  1.08335E+03  7.72328E+02  2.69047E+03  1.09937E+03  1.21583E+03
  1.63268E+03  7.47980E+02  1.67497E+03  1.07903E+03  2.23933E+03  2.99498E+03  1.93438E+03  3.48645E+03
 -1.67768E+03  5.16427E+03 -4.32760E+03  5.99004E+03 -6.38309E+03  1.49765E+03 -7.31280E+03 -2.06105E+03
 -3.35420E+03 -6.70143E+03  9.32382E+02 -7.84438E+03  3.80289E+03 -4.56396E+03  5.73894E+03 -1.48970E+03
  4.24107E+03  2.72582E+03  5.89897E+02  4.03068E+03 -1.62719E+03  2.45357E+03 -2.45851E+03 -3.99583E+01
 -1.47870E+03 -2.82612E+03  1.76632E+03 -2.77830E+03  2.36857E+03 -1.66268E+03  2.47391E+03  4.06481E+02
  1.41239E+03  7.35954E+02  1.04958E+03  4.34525E+02 -7.18770E+02  1.06629E+03  1.77208E+03 -3.23091E+02
  5.86294E+02 -2.25257E+02  3.04511E+03  1.00573E+03  9.41532E+02  3.92423E+03 -4.65392E+02  5.07811E+03
 -2.99882E+03  2.66054E+03 -4.38265E+03  9.28016E+02 -3.83229E+03 -1.51024E+03 -8.88018E+02 -2.12997E+03
  8.11946E+02 -2.41590E+03  1.68441E+03 -1.32965E+03  1.30384E+03  1.39609E+03 -8.12220E+02  1.96313E+03
 -2.20367E+03  1.17274E+03 -2.98736E+03 -1.73247E+03 -1.53413E+03 -3.73991E+03  1.47959E+02 -3.11588E+03
  1.58451E+03 -1.57967E+03  1.72858E+03 -4.67718E+02  2.58293E+03  8.09243E+02  1.23586E+02  2.11346E+03
 -1.01877E+03  2.66516E+02 -1.45431E+03 -9.08276E+02  6.41560E+02 -2.17061E+03  2.89231E+03 -1.82948E+03
  3.02425E+03  3.02537E+02  4.50484E+03  1.69143E+03  1.42903E+03  3.49132E+03 -1.20201E+03  3.57366E+03
 -2.67024E+03  1.35664E+03 -2.74674E+03 -2.65336E+02 -1.65914E+03 -2.45258E+03  5.12180E+02 -2.01710E+03
  2.25725E+03 -1.19279E+03  2.22626E+03  1.02204E+03  4.73770E+02  2.17875E+03  2.32505E+02  1.69839E+03
 -4.96321E+02  1.39276E+03 -6.42272E+02  4.71979E+02 -3.44484E+02  4.47998E+02 -5.81938E+02  7.90490E+02
 -1.02995E+03  1.37515E+03 -3.07477E+03  1.02474E+03 -3.59008E+03 -3.38110E+01 -4.29164E+03 -2.42707E+03
 -1.81790E+03 -4.34640E+03  9.20330E+02 -5.51264E+03  2.80837E+03 -4.40359E+03  5.20878E+03 -1.78467E+03
  4.69344E+03  1.79096E+02  2.88796E+03  3.17487E+03 -1.76184E+02  3.20885E+03 -1.71570E+03  2.65838E+03
 -1.89678E+03  9.79895E+02 -1.37525E+03 -7.69251E+02 -7.06002E+02  3.21617E+02 -7.60792E+02 -1.56800E+02
 -1.21378E+03  3.27214E+01 -8.90575E+02 -4.26306E+01  4.99569E+01 -9.73694E+02 -1.15786E+02 -1.55861E+03
  1.91377E+03 -1.24191E+03  1.69438E+03  3.97864E+02  2.30311E+03  2.01289E+03 -6.17553E+01  3.24250E+03
 -1.54531E+03  4.30548E+03 -3.31702E+03  2.44944E+03 -3.77309E+03 -3.38016E+02 -2.57319E+03 -2.73746E+03
 -1.81767E+03 -3.28746E+03  4.74679E+02 -2.98436E+03  1.62423E+03 -1.35483E+03  1.86982E+03  4.15189E+02
  1.43147E+03  9.18600E+02 -2.06026E+02  6.50170E+02 -5.79019E+02 -2.36249E+02 -6.10113E+01 -5.30247E+02
  9.95920E+02 -1.45096E+02  1.15023E+03  7.36484E+02  2.97886E+02  1.07713E+03  5.81155E+02  1.20203E+03
 -1.31354E+03  1.36530E+03 -2.09607E+03  5.70811E+02 -1.79352E+03 -1.33330E+03 -3.50308E+01 -2.60026E+03
  1.24953E+03 -1.93241E+03  1.97242E+03 -3.14942E+02  2.29715E+03  4.61605E+01  1.30181E+03  1.61429E+03
  5.37404E+02  1.52388E+03 -6.97376E+02  1.44234E+03 -1.13299E+03  1.35517E+03 -6.20708E+02  6.33577E+01
 -5.77978E+02 -3.74355E+02 -7.24097E+02  8.44553E+01 -1.20620E+03  4.14376E+02 -1.66654E+03 -6.59706E+02
 -1.70858E+03 -3.13960E+02 -3.58597E+02 -2.04858E+03  1.07234E+03 -2.43583E+03  1.59944E+03 -9.06469E+02
  1.62252E+03  1.80118E+02  2.72320E+02  7.01535E+02 -5.49623E+01  1.83134E+03 -1.11852E+03  1.17855E+03
