 $NMID ID='MM_0lb_SNR800_14hz_g40_75.RAW', FMTDAT='(8E13.5)'
 TRAMP=1., VOLUME=1. $END
  3.09759E+05  4.96017E+02  3.37530E+05  2.50429E+05  8.50265E+04  3.37797E+05 -1.32225E+05  2.50887E+05
 -1.90125E+05  8.28467E+04 -1.11247E+05 -3.28301E+04  8.61482E+02 -5.01532E+04  5.38547E+04 -1.28429E+02
  3.48353E+04  5.29303E+04 -1.68860E+04  7.54291E+04 -6.06480E+04  6.34389E+04 -8.39027E+04  3.18802E+04
 -8.04430E+04 -1.11382E+04 -5.69113E+04 -5.10845E+04 -1.48936E+04 -6.91251E+04  2.74866E+04 -4.54152E+04
  4.00056E+04  3.69536E+03  1.58177E+04  4.75128E+04 -3.42344E+04  4.71266E+04 -6.62121E+04 -3.19076E+02
 -5.28728E+04 -5.68540E+04 -6.92667E+03 -7.65856E+04  3.35977E+04 -5.45322E+04  4.74809E+04 -1.70074E+04
  4.27223E+04  1.11846E+04  3.16674E+04  2.51099E+04  1.55744E+04  2.93851E+04 -5.03681E+03  2.73190E+04
 -2.18440E+04  1.23681E+04 -1.87542E+04 -4.76022E+03  5.22499E+03 -7.39769E+03  2.21782E+04  1.20904E+04
  7.26644E+03  3.45971E+04 -3.17928E+04  3.51165E+04 -6.26453E+04  2.31215E+03 -5.67447E+04 -4.20866E+04
 -1.26905E+04 -6.25162E+04  3.94498E+04 -4.49075E+04  5.77162E+04 -2.52317E+03  3.33687E+04  3.17309E+04
 -6.13259E+03  3.51091E+04 -2.94259E+04  1.51554E+04 -2.96759E+04 -4.91038E+03 -1.60899E+04 -1.06806E+04
 -7.83128E+03 -1.26392E+04 -9.40517E+02 -1.78068E+04  7.81024E+03 -2.30434E+04  1.53603E+04 -1.30883E+04
  1.19219E+04  4.67166E+03 -7.77296E+03  1.29982E+04 -2.07121E+04 -3.96482E+03 -8.45501E+03 -3.29353E+04
  2.23569E+04 -4.25556E+04  4.74588E+04 -1.94058E+04  4.43611E+04  1.91178E+04  1.54564E+04  4.35781E+04
 -1.59658E+04  3.26405E+04 -2.47159E+04  1.80075E+03 -9.36449E+03 -2.74696E+04  2.10605E+04 -3.31600E+04
  4.01864E+04 -8.59696E+03  3.45179E+04  2.36809E+04  1.74208E+04  4.54405E+04 -7.95183E+03  4.87308E+04
 -3.08638E+04  3.31100E+04 -4.10956E+04  9.06779E+03 -4.14896E+04 -1.66133E+04 -2.29008E+04 -3.71426E+04
  7.59330E+03 -3.68977E+04  3.08648E+04 -1.44156E+04  2.86518E+04  1.11761E+04  3.85101E+03  1.88261E+04
 -1.33580E+04  8.18247E+03 -1.00851E+04 -7.58698E+03  5.78796E+03 -1.05480E+04  1.77126E+04  6.24980E+03
  1.34381E+04  2.20714E+04 -6.37839E+03  2.45512E+04 -2.18867E+04  1.09231E+04 -2.76703E+04 -5.12911E+03
 -1.96766E+04 -1.72059E+04 -7.95064E+03 -1.93509E+04  4.07622E+03 -1.86790E+04  1.49209E+04 -1.74174E+04
  2.52708E+04 -1.23243E+04  3.14339E+04  2.34336E+03  2.33000E+04  1.92302E+04  4.19966E+03  3.54957E+04
 -1.71625E+04  2.96327E+04 -2.76448E+04  1.02551E+04 -2.09540E+04 -1.01126E+04 -4.41189E+03 -1.34008E+04
  1.89033E+03 -3.13036E+03 -4.41143E+03  6.45776E+03 -1.54696E+04  5.16449E+03 -1.56694E+04 -6.56270E+03
 -1.00240E+04 -1.82421E+04  5.09912E+03 -2.21740E+04  1.45887E+04 -1.60957E+04  1.75859E+04 -1.44128E+03
  1.06573E+04  1.29867E+04 -1.03277E+03  1.83752E+04 -1.25721E+04  1.03749E+04 -1.82158E+04 -3.90819E+03
 -1.32766E+04 -1.66256E+04 -1.84501E+03 -2.22900E+04  9.91924E+03 -1.79202E+04  1.85758E+04 -9.01820E+03
  1.73516E+04  5.25475E+02  1.21597E+04  4.07279E+03  6.61321E+03  1.10731E+03  8.87826E+03 -1.58080E+03
  1.67047E+04  2.80985E+03  1.80801E+04  1.46293E+04  1.17932E+04  2.91063E+04 -3.25977E+03  3.24978E+04
 -1.89343E+04  2.60048E+04 -3.01440E+04  1.28641E+04 -3.18632E+04 -2.34179E+03 -2.64687E+04 -1.84050E+04
 -1.15572E+04 -2.63709E+04  9.05659E+03 -2.37045E+04  2.05749E+04 -1.22246E+04  1.88181E+04  4.69825E+03
  7.48859E+03  1.36754E+04 -8.38774E+03  1.23337E+04 -1.57079E+04  2.55057E+03 -1.18742E+04 -9.57049E+03
 -1.90975E+02 -1.48373E+04  7.61730E+03 -1.12449E+04  9.78558E+03 -1.38402E+03  2.40029E+03  6.04668E+03
 -6.60871E+03  2.46201E+03 -5.49899E+03 -5.46687E+03 -2.48068E+02 -1.28792E+04  9.24747E+03 -1.34725E+04
  1.59040E+04 -7.08250E+03  1.66400E+04  3.03805E+03  1.46833E+04  1.27939E+04  6.79696E+03  1.92723E+04
 -3.10721E+03  2.13975E+04 -1.33175E+04  1.31720E+04 -1.44954E+04  3.13563E+03 -1.07689E+04 -2.91671E+03
 -4.97541E+03 -4.66897E+03 -7.53924E+02  1.09043E+03 -2.19662E+03  2.28621E+03 -4.75334E+03  4.44824E+03
 -9.99556E+03 -5.87172E+02 -1.06756E+04 -8.64734E+03 -4.44272E+03 -1.41457E+04  4.44122E+03 -1.06676E+04
  8.97048E+03 -4.59848E+03  6.41863E+03  2.99149E+03  1.92695E+02  3.85248E+03 -4.93360E+03 -3.26334E+02
 -4.91703E+03 -6.95314E+03 -7.18327E+02 -9.84956E+03  6.02110E+03 -1.07028E+04  1.29631E+04 -5.91764E+03
  1.57096E+04  1.31829E+03  1.15962E+04  8.57972E+03  2.24720E+03  1.23965E+04 -6.70652E+03  1.06755E+04
 -8.42521E+03  3.32682E+03 -4.71737E+03 -2.09473E+03  1.49879E+03 -2.66918E+03  6.11743E+03 -9.54291E+02
  4.92149E+03  4.92547E+03  8.24255E+02  8.58712E+03 -6.13850E+03  8.27148E+03 -1.05142E+04  1.89155E+03
 -6.65820E+03 -4.87355E+03  3.31500E+02 -8.72170E+03  5.20611E+03 -4.30889E+03  5.38560E+03  1.54270E+03
  9.71986E+02  5.75888E+03 -5.47346E+03  6.90859E+03 -7.45577E+03  3.20742E+03 -7.64131E+03 -2.29223E+03
 -4.39650E+03 -9.14373E+03  1.93720E+03 -1.06999E+04  9.16755E+03 -6.46442E+03  9.74272E+03  2.03300E+03
  6.30160E+03  8.07569E+03 -2.25779E+02  1.01953E+04 -7.18028E+03  5.65394E+03 -7.64514E+03 -7.81015E+02
 -7.45839E+03 -6.81442E+03 -1.50792E+03 -7.43197E+03  3.55390E+03 -6.26181E+03  4.32516E+03 -3.10085E+03
  3.53681E+03  9.87004E+02 -3.31496E+02  1.71724E+03  7.24458E+01 -9.45444E+02  8.82245E+02 -3.80662E+03
  6.38929E+03 -1.87376E+03  8.47802E+03  9.44508E+02  8.58134E+03  5.70491E+03  6.89488E+03  1.14734E+04
 -2.65695E+03  1.30241E+04 -1.12233E+04  1.01146E+04 -1.51028E+04  1.59634E+03 -1.21587E+04 -4.64781E+03
 -5.90673E+03 -9.83720E+03 -3.96198E+02 -8.11462E+03  3.03548E+03 -4.52409E+03  2.96722E+03 -3.06632E+03
  1.87282E+03 -2.01960E+03  2.57405E+03 -2.84540E+03  4.16821E+03 -2.14014E+03  4.99515E+03  4.35480E+01
  6.33728E+03  1.44333E+03  2.30870E+03  5.07678E+03 -1.73820E+03  5.36551E+03 -6.62463E+03  4.57227E+03
 -7.99284E+03 -8.05778E+02 -3.84765E+03 -5.56771E+03 -2.34139E+02 -8.41405E+03  5.25724E+03 -8.60908E+03
  8.58947E+03 -5.11502E+03  1.03294E+04  8.85639E+02  7.56911E+03  6.83369E+03  1.52948E+03  9.60596E+03
 -3.93784E+03  8.40083E+03 -6.01053E+03  2.70381E+03 -3.15161E+03 -1.31766E+03 -1.54251E+03 -1.16648E+03
 -7.14740E+02  2.35829E+02 -1.36098E+03  2.07941E+03 -3.56321E+03  1.24465E+03 -5.78823E+03 -6.85665E+02
 -3.29434E+03 -5.97243E+03  6.04742E+02 -7.66548E+03  4.67948E+03 -7.33840E+03  7.19260E+03 -2.20733E+03
  7.28693E+03  3.76360E+03  3.40300E+03  6.32369E+03 -1.53043E+03  7.80975E+03 -5.35597E+03  4.80303E+03
 -6.91393E+03  4.92730E+02 -5.76342E+03 -4.20035E+03 -2.77311E+02 -6.03513E+03  2.99359E+03 -4.60362E+03
  4.97604E+03 -1.96343E+03  3.19692E+03  9.60318E+02  7.70986E+02  2.34929E+03  8.20024E+02  9.55969E+02
  2.13667E+03  7.61114E+02  2.21085E+03  1.17724E+03  2.18270E+03  3.03931E+03  2.22116E+03  3.44903E+03
 -1.63274E+03  6.07134E+03 -4.78778E+03  6.27242E+03 -6.47668E+03  1.73902E+03 -7.57997E+03 -2.19802E+03
 -3.46615E+03 -7.10875E+03  1.34021E+03 -8.32461E+03  4.10460E+03 -5.07826E+03  5.63323E+03 -1.34076E+03
  4.55270E+03  3.11613E+03  1.27565E+03  3.94916E+03 -2.26772E+03  2.66275E+03 -2.24239E+03 -5.37382E+02
 -1.10668E+03 -2.65583E+03  1.87985E+03 -2.72191E+03  2.78052E+03 -1.71426E+03  2.63910E+03  6.54074E+02
  1.75868E+03  1.22274E+03  7.79734E+02  4.57560E+02 -6.56386E+02  1.29633E+03  1.84235E+03 -3.06879E+02
  6.22774E+02 -6.78227E+02  3.25152E+03  1.21622E+03  1.26615E+03  4.12574E+03 -6.70669E+02  4.93274E+03
 -3.42446E+03  2.79259E+03 -4.21423E+03  7.39024E+02 -3.97734E+03 -1.70859E+03 -7.72414E+02 -2.50996E+03
  3.16715E+02 -2.45510E+03  1.73784E+03 -1.44661E+03  1.72417E+03  1.84479E+03 -9.33531E+02  2.21484E+03
 -2.97202E+03  1.57014E+03 -3.25442E+03 -2.13632E+03 -1.89074E+03 -3.96760E+03  3.84726E+02 -3.56323E+03
  1.88557E+03 -1.86003E+03  2.38028E+03 -1.83929E+02  2.23536E+03  6.18709E+02  5.37181E+02  1.95915E+03
 -1.21746E+03  7.46438E+02 -1.58339E+03 -1.18825E+03  5.34777E+02 -2.39686E+03  3.30148E+03 -1.87877E+03
  3.76165E+03  2.71342E+02  4.54195E+03  2.39961E+03  1.58420E+03  3.80441E+03 -1.19754E+03  3.84657E+03
 -3.50074E+03  1.06167E+03 -3.70966E+03 -4.46405E+02 -1.79199E+03 -2.94236E+03  7.37667E+02 -2.17047E+03
  2.79940E+03 -1.29541E+03  1.81628E+03  1.11659E+03  4.51226E+02  2.63100E+03 -6.49200E+01  2.28701E+03
 -6.63620E+02  1.48911E+03 -1.06730E+03  2.35542E+02 -4.69633E+02  8.75553E+02 -1.07310E+03  1.10751E+03
 -1.20282E+03  1.73958E+03 -3.19214E+03  1.34574E+03 -4.27360E+03  2.73619E+02 -5.17677E+03 -2.66025E+03
 -2.48691E+03 -5.48871E+03  9.09635E+02 -6.12216E+03  3.41137E+03 -4.82275E+03  6.16849E+03 -2.07740E+03
  5.37540E+03  7.52216E+02  2.98402E+03  3.66197E+03 -6.74646E+02  3.96600E+03 -1.36446E+03  2.87672E+03
 -2.44151E+03  1.41013E+03 -1.33672E+03 -5.43677E+02 -6.58083E+02 -1.59051E+02 -5.53019E+02 -6.24060E+00
 -1.37273E+03  5.02645E+01 -1.16510E+03 -5.75008E+01 -2.52469E+02 -1.32902E+03 -5.11331E+02 -1.54070E+03
  2.15545E+03 -1.55178E+03  2.09681E+03  5.07394E+01  2.65235E+03  2.57424E+03 -2.01662E+02  3.69490E+03
 -1.94191E+03  5.05049E+03 -4.20451E+03  2.72602E+03 -4.47025E+03 -4.59762E+02 -3.26391E+03 -2.83692E+03
 -1.62081E+03 -4.05866E+03  1.12525E+03 -3.54881E+03  2.00680E+03 -1.77113E+03  1.82764E+03  2.84816E+02
  1.70463E+03  9.14714E+02  1.78212E+02  1.14313E+03 -7.95265E+02  5.46782E+00  6.50522E+01 -4.95856E+02
  9.09996E+02 -2.90045E+02  1.07504E+03  7.43892E+02  8.21297E+02  1.51654E+03  3.71432E+02  1.70097E+03
 -1.66808E+03  1.49645E+03 -2.22150E+03  4.91883E+02 -2.23725E+03 -1.56900E+03 -3.30316E+02 -2.89029E+03
  1.55927E+03 -2.26033E+03  2.58749E+03 -5.66959E+02  2.72653E+03 -2.62756E+02  1.56332E+03  2.03114E+03
  2.40904E+02  2.10696E+03 -8.77484E+02  1.84120E+03 -1.34242E+03  1.31326E+03 -1.44608E+03 -2.48244E+02
 -7.11389E+02 -1.26193E+02 -8.04523E+02  3.28046E+02 -1.38546E+03  3.28095E+02 -2.00460E+03 -6.95381E+02
 -2.10635E+03 -8.83936E+02 -8.19189E+02 -2.23170E+03  1.50200E+03 -2.97537E+03  1.88513E+03 -1.11669E+03
  2.36429E+03  4.45110E+02  7.05233E+02  1.36814E+03 -1.47456E+02  2.44422E+03 -1.41723E+03  1.97990E+03
