 $NMID ID='MM_0lb_SNR800_8hz_g60_15.RAW', FMTDAT='(8E13.5)'
 TRAMP=1., VOLUME=1. $END
  3.09814E+05  1.30883E+02  3.37708E+05  2.50858E+05  8.51376E+04  3.39076E+05 -1.32677E+05  2.52139E+05
 -1.91233E+05  8.41846E+04 -1.13206E+05 -3.24526E+04 -1.84331E+02 -5.07228E+04  5.37531E+04 -6.92063E+02
  3.61448E+04  5.31418E+04 -1.64761E+04  7.62903E+04 -6.15729E+04  6.51862E+04 -8.59405E+04  3.30354E+04
 -8.30123E+04 -1.19241E+04 -5.86710E+04 -5.28896E+04 -1.51982E+04 -7.12514E+04  2.82534E+04 -4.71572E+04
  4.19376E+04  3.41976E+03  1.68344E+04  4.91033E+04 -3.53746E+04  4.88218E+04 -6.85218E+04 -9.57600E+01
 -5.56678E+04 -5.85550E+04 -7.78734E+03 -7.95026E+04  3.49792E+04 -5.76566E+04  5.05698E+04 -1.87524E+04
  4.57417E+04  1.13070E+04  3.36222E+04  2.74214E+04  1.60419E+04  3.13127E+04 -6.20007E+03  2.77794E+04
 -2.26974E+04  1.17758E+04 -1.75232E+04 -6.27315E+03  7.33615E+03 -7.40659E+03  2.40361E+04  1.43402E+04
  6.90617E+03  3.84838E+04 -3.48033E+04  3.78942E+04 -6.69126E+04  2.34890E+03 -6.00755E+04 -4.49859E+04
 -1.27804E+04 -6.65061E+04  4.26186E+04 -4.86845E+04  6.25096E+04 -2.88064E+03  3.72216E+04  3.50986E+04
 -4.95087E+03  4.11164E+04 -3.25448E+04  2.00914E+04 -3.46812E+04 -2.99212E+03 -2.03431E+04 -1.24346E+04
 -9.98953E+03 -1.57453E+04 -5.89100E+02 -2.01441E+04  8.88658E+03 -2.37947E+04  1.63200E+04 -1.22982E+04
  1.03141E+04  6.79896E+03 -1.15427E+04  1.26603E+04 -2.43965E+04 -6.99774E+03 -8.73705E+03 -3.85418E+04
  2.66680E+04 -4.81243E+04  5.35021E+04 -2.15433E+04  5.01200E+04  2.11288E+04  1.78086E+04  4.82893E+04
 -1.69395E+04  3.71486E+04 -2.87879E+04  3.01528E+03 -1.22956E+04 -2.99698E+04  2.24778E+04 -3.83486E+04
  4.60539E+04 -1.22468E+04  4.23578E+04  2.53588E+04  2.27189E+04  5.28256E+04 -8.65103E+03  5.86863E+04
 -3.71387E+04  3.99246E+04 -4.99730E+04  1.18630E+04 -4.96918E+04 -1.94096E+04 -2.74000E+04 -4.40671E+04
  7.69632E+03 -4.36624E+04  3.57400E+04 -1.78525E+04  3.30419E+04  1.12921E+04  6.09242E+03  2.16608E+04
 -1.38349E+04  1.01332E+04 -1.12504E+04 -7.54063E+03  5.58989E+03 -1.18321E+04  1.96394E+04  5.27692E+03
  1.55538E+04  2.31448E+04 -4.92781E+03  2.78554E+04 -2.41263E+04  1.54573E+04 -3.29032E+04 -2.45135E+03
 -2.74788E+04 -1.88136E+04 -1.32084E+04 -2.66913E+04  4.36678E+03 -2.84535E+04  2.13402E+04 -2.48395E+04
  3.43041E+04 -1.47382E+04  4.05549E+04  5.85836E+03  2.86882E+04  2.58611E+04  4.84075E+03  4.33175E+04
 -2.09434E+04  3.48957E+04 -3.18081E+04  1.24287E+04 -2.34606E+04 -1.01309E+04 -5.07423E+03 -1.23388E+04
  1.41138E+02 -4.71689E+02 -9.09689E+03  9.36653E+03 -2.20547E+04  5.31209E+03 -2.17607E+04 -1.05829E+04
 -1.29462E+04 -2.53597E+04  6.34559E+03 -2.97914E+04  2.04239E+04 -2.13406E+04  2.49579E+04 -1.45185E+03
  1.59618E+04  1.74275E+04 -1.08392E+03  2.53928E+04 -1.81887E+04  1.43357E+04 -2.58189E+04 -5.38175E+03
 -1.84371E+04 -2.28947E+04 -2.29970E+03 -3.01410E+04  1.38121E+04 -2.55029E+04  2.48978E+04 -1.34666E+04
  2.35982E+04 -6.73947E+02  1.73254E+04  5.53038E+03  9.50811E+03  1.59504E+03  1.33430E+04 -2.53589E+03
  2.40197E+04  3.07292E+03  2.78033E+04  1.98084E+04  1.91196E+04  4.10484E+04 -2.44627E+03  4.87416E+04
 -2.74859E+04  4.10239E+04 -4.60643E+04  2.15954E+04 -4.97795E+04 -3.77390E+03 -3.99012E+04 -2.91512E+04
 -1.56240E+04 -4.11285E+04  1.48111E+04 -3.57844E+04  3.06876E+04 -1.66630E+04  2.61943E+04  9.25900E+03
  8.32764E+03  2.04091E+04 -1.27351E+04  1.69480E+04 -2.17749E+04  2.48240E+03 -1.62890E+04 -1.42238E+04
 -5.79345E+01 -2.11456E+04  1.13674E+04 -1.50033E+04  1.45791E+04 -1.34532E+03  4.47118E+03  9.72395E+03
 -9.38145E+03  4.68649E+03 -1.05686E+04 -7.49927E+03 -2.66010E+03 -2.00217E+04  1.28068E+04 -2.24657E+04
  2.55898E+04 -1.28984E+04  2.93095E+04  3.20291E+03  2.62515E+04  2.12209E+04  1.19238E+04  3.30631E+04
 -6.43934E+03  3.48442E+04 -2.29848E+04  2.19666E+04 -2.53349E+04  4.28855E+03 -1.71557E+04 -6.66880E+03
 -7.20680E+03 -8.20900E+03 -6.54473E+02  2.94781E+02 -3.07599E+03  3.81572E+03 -8.01041E+03  5.87971E+03
 -1.57229E+04 -1.16999E+03 -1.59605E+04 -1.32766E+04 -6.57554E+03 -2.13549E+04  7.30486E+03 -1.74577E+04
  1.40584E+04 -7.04927E+03  1.02428E+04  4.79911E+03 -7.62357E+01  6.62095E+03 -8.97966E+03 -3.24465E+02
 -8.52064E+03 -1.15115E+04 -1.26557E+03 -1.75653E+04  1.02398E+04 -1.83556E+04  2.27572E+04 -1.00299E+04
  2.68511E+04  2.79353E+03  1.92238E+04  1.64684E+04  3.54872E+03  2.21163E+04 -1.04322E+04  1.76146E+04
 -1.41581E+04  5.11469E+03 -7.09031E+03 -4.33955E+03  2.46309E+03 -5.07362E+03  9.42199E+03 -8.15076E+02
  8.35354E+03  8.05965E+03  1.03374E+03  1.43460E+04 -1.02811E+04  1.36901E+04 -1.74093E+04  3.02276E+03
 -1.24001E+04 -9.57912E+03  1.65335E+02 -1.49601E+04  9.86333E+03 -7.69771E+03  1.09321E+04  3.54684E+03
  2.57914E+03  1.17092E+04 -8.87988E+03  1.31806E+04 -1.62623E+04  6.24194E+03 -1.67943E+04 -5.91615E+03
 -9.51439E+03 -1.83454E+04  4.90337E+03 -2.11163E+04  1.82605E+04 -1.24925E+04  1.95983E+04  3.19429E+03
  1.13143E+04  1.53882E+04 -1.93477E+03  1.78449E+04 -1.38589E+04  9.57075E+03 -1.50489E+04 -1.81189E+03
 -1.19635E+04 -1.19190E+04 -1.90401E+03 -1.43032E+04  7.79994E+03 -1.10367E+04  9.46808E+03 -3.32265E+03
  5.80909E+03  3.05084E+03 -1.29266E+03  2.47082E+03 -1.33021E+03 -4.15198E+03  3.31510E+03 -8.75135E+03
  1.31333E+04 -6.14451E+03  1.92171E+04  2.03822E+03  1.84091E+04  1.33610E+04  1.16512E+04  2.43710E+04
 -6.30369E+03  2.81955E+04 -2.27853E+04  2.06597E+04 -3.01744E+04  3.94247E+03 -2.42143E+04 -1.07668E+04
 -1.19927E+04 -2.03011E+04 -6.78433E+02 -1.69795E+04  6.24549E+03 -1.01342E+04  6.18683E+03 -6.22422E+03
  4.26303E+03 -3.77821E+03  4.29325E+03 -4.64352E+03  6.63515E+03 -4.30886E+03  9.98986E+03 -2.18687E+03
  1.23416E+04  2.82173E+03  7.49095E+03  1.13819E+04 -2.22679E+03  1.34241E+04 -1.34846E+04  1.00649E+04
 -1.72266E+04 -1.48411E+03 -1.20510E+04 -1.23128E+04 -1.93161E+03 -1.91082E+04  1.01736E+04 -1.85405E+04
  1.96737E+04 -1.10308E+04  2.34905E+04  3.00745E+03  1.61177E+04  1.66955E+04  2.73135E+03  2.08980E+04
 -9.48079E+03  1.66634E+04 -1.24974E+04  6.19492E+03 -8.72706E+03 -1.95219E+03 -3.69905E+03 -2.91942E+03
 -1.96822E+03 -7.76362E+02 -2.64558E+03  3.07245E+03 -7.24969E+03  2.89189E+03 -1.25229E+04 -2.18650E+03
 -9.39366E+03 -1.18015E+04 -4.41312E+02 -1.75151E+04  1.12740E+04 -1.61798E+04  1.78786E+04 -4.81154E+03
  1.77299E+04  8.57664E+03  8.13273E+03  1.59575E+04 -3.33907E+03  1.78575E+04 -1.27928E+04  1.14129E+04
 -1.68954E+04  7.29110E+02 -1.28231E+04 -1.10879E+04 -1.21194E+03 -1.53256E+04  7.85882E+03 -1.16913E+04
  1.14062E+04 -3.33432E+03  8.12891E+03  3.14552E+03  2.56528E+03  5.29477E+03  1.72700E+03  2.77743E+03
  3.16570E+03  1.65210E+03  4.67704E+03  1.71079E+03  5.42122E+03  5.99936E+03  4.26626E+03  9.82787E+03
 -3.59308E+03  1.42915E+04 -1.25795E+04  1.44088E+04 -1.88606E+04  4.04949E+03 -1.89399E+04 -8.13372E+03
 -9.39303E+03 -1.83680E+04  2.88279E+03 -2.03218E+04  1.08185E+04 -1.29094E+04  1.52658E+04 -3.59057E+03
  1.15842E+04  6.77213E+03  2.90541E+03  1.08750E+04 -5.55126E+03  6.82167E+03 -7.83547E+03 -1.38516E+03
 -3.61028E+03 -7.80259E+03  4.28871E+03 -8.66539E+03  8.04023E+03 -4.09052E+03  7.45899E+03  2.01252E+03
  4.79708E+03  4.17999E+03  1.72928E+03  3.42938E+03 -1.13395E+03  2.28172E+03  1.75093E+03 -8.21225E+02
  2.81773E+03 -8.97856E+02  7.28165E+03  3.16186E+03  4.78987E+03  9.93756E+03 -1.28884E+03  1.34589E+04
 -8.92847E+03  8.79582E+03 -1.19516E+04  2.30375E+03 -1.09254E+04 -4.56753E+03 -4.07478E+03 -7.66595E+03
  7.75073E+02 -7.68343E+03  5.13134E+03 -3.15522E+03  4.40011E+03  3.49192E+03 -1.79952E+03  6.46984E+03
 -7.67416E+03  3.76891E+03 -9.06518E+03 -4.12459E+03 -4.90166E+03 -9.92771E+03  1.65172E+03 -1.05684E+04
  6.31858E+03 -6.31133E+03  8.06413E+03 -8.91508E+02  6.45979E+03  2.89453E+03  1.06452E+03  5.46051E+03
 -3.96192E+03  1.70755E+03 -4.59644E+03 -3.87556E+03  1.71087E+03 -8.59653E+03  9.40527E+03 -6.58645E+03
  1.23985E+04  2.81691E+02  1.14675E+04  8.21198E+03  3.61478E+03  1.27630E+04 -4.43542E+03  1.17025E+04
 -1.01605E+04  5.49443E+03 -1.08055E+04 -1.62711E+03 -6.29262E+03 -7.90470E+03  2.24136E+03 -8.24640E+03
  8.14824E+03 -3.93076E+03  6.34843E+03  3.59819E+03  2.52229E+03  7.49356E+03 -1.62558E+03  6.53828E+03
 -3.22059E+03  3.88474E+03 -2.61503E+03  1.90622E+03 -1.78202E+03  1.20625E+03 -1.97038E+03  2.81211E+03
 -3.39709E+03  5.31603E+03 -8.13899E+03  4.32514E+03 -1.28313E+04  1.76710E+02 -1.41006E+04 -8.87391E+03
 -6.97518E+03 -1.70933E+04  3.07890E+03 -1.93488E+04  1.26303E+04 -1.51248E+04  1.87350E+04 -5.68801E+03
  1.71008E+04  3.35571E+03  1.05467E+04  1.15348E+04  1.25270E+03  1.39825E+04 -5.85070E+03  1.04619E+04
 -7.53856E+03  3.59445E+03 -5.11359E+03 -1.74009E+03 -1.60306E+03 -1.47254E+03 -3.54038E+02 -5.79737E+01
 -2.14352E+03  3.65059E+02 -2.16146E+03 -1.27822E+02 -1.42349E+03 -3.29919E+03  3.05446E+02 -4.90170E+03
  5.30446E+03 -4.11096E+03  7.86544E+03 -3.10689E+02  9.75422E+03  7.15203E+03  2.76187E+03  1.33900E+04
 -6.48371E+03  1.52205E+04 -1.42906E+04  9.05556E+03 -1.66914E+04 -8.83423E+02 -1.21426E+04 -1.00222E+04
 -5.00665E+03 -1.40628E+04  3.39041E+03 -1.29638E+04  9.09917E+03 -6.96869E+03  8.54090E+03 -6.26722E+01
  4.88853E+03  4.70884E+03 -1.91025E+01  4.09579E+03 -2.18974E+03 -2.94183E+02  2.67877E+01 -3.03951E+03
  4.19702E+03 -2.16444E+03  5.72796E+03  1.55776E+03  3.67637E+03  5.27679E+03  2.45020E+02  7.41861E+03
 -6.14723E+03  6.42346E+03 -9.41779E+03  8.66541E+02 -8.50965E+03 -6.83827E+03 -1.85248E+03 -1.14435E+04
  6.64172E+03 -9.25409E+03  1.07779E+04 -3.08883E+03  1.08318E+04  3.30388E+03  6.05707E+03  8.35210E+03
  9.83658E+02  9.17220E+03 -3.30414E+03  7.45027E+03 -5.63376E+03  3.99394E+03 -4.91781E+03  4.94631E+02
 -2.82871E+03 -2.66952E+02 -2.52193E+03  7.57573E+02 -4.86775E+03  1.97558E+03 -7.11885E+03 -1.14260E+03
 -7.04516E+03 -5.24747E+03 -2.02011E+03 -9.25296E+03  4.13866E+03 -9.30642E+03  7.87015E+03 -4.52805E+03
  9.35633E+03  7.67281E+02  5.14529E+03  7.17642E+03 -8.65995E+02  9.47210E+03 -7.55680E+03  6.02820E+03
