 $NMID ID='MM_0lb_SNR800_7hz_g55_32.RAW', FMTDAT='(8E13.5)'
 TRAMP=1., VOLUME=1. $END
  3.09787E+05  5.91401E+02  3.37409E+05  2.51048E+05  8.51065E+04  3.38756E+05 -1.32462E+05  2.52747E+05
 -1.91141E+05  8.36939E+04 -1.13324E+05 -3.22253E+04  6.91394E+01 -5.06750E+04  5.34971E+04 -5.75369E+02
  3.60310E+04  5.32541E+04 -1.63663E+04  7.63836E+04 -6.12210E+04  6.49397E+04 -8.59144E+04  3.28653E+04
 -8.30336E+04 -1.16423E+04 -5.86269E+04 -5.26007E+04 -1.51784E+04 -7.13487E+04  2.85477E+04 -4.76825E+04
  4.18535E+04  3.64133E+03  1.70035E+04  4.89507E+04 -3.48193E+04  4.89342E+04 -6.88167E+04 -6.18963E+01
 -5.57491E+04 -5.81290E+04 -7.99810E+03 -8.00038E+04  3.45676E+04 -5.75892E+04  5.06483E+04 -1.90713E+04
  4.62082E+04  1.13887E+04  3.37081E+04  2.71446E+04  1.60299E+04  3.07343E+04 -5.99906E+03  2.80074E+04
 -2.29144E+04  1.20097E+04 -1.83261E+04 -6.11186E+03  7.48052E+03 -6.95796E+03  2.37601E+04  1.42558E+04
  7.24986E+03  3.85416E+04 -3.46987E+04  3.78393E+04 -6.67952E+04  2.16605E+03 -5.95745E+04 -4.56599E+04
 -1.32090E+04 -6.68534E+04  4.22854E+04 -4.80026E+04  6.26153E+04 -2.37308E+03  3.80775E+04  3.56080E+04
 -5.80537E+03  4.12677E+04 -3.24912E+04  1.96962E+04 -3.49250E+04 -3.36171E+03 -1.99191E+04 -1.26272E+04
 -1.01227E+04 -1.58960E+04 -2.56599E+02 -2.05990E+04  8.59660E+03 -2.34435E+04  1.66062E+04 -1.24987E+04
  1.05074E+04  6.80192E+03 -1.15763E+04  1.26265E+04 -2.46875E+04 -7.32287E+03 -8.61807E+03 -3.91653E+04
  2.62130E+04 -4.83928E+04  5.38363E+04 -2.13316E+04  5.06292E+04  2.15936E+04  1.78181E+04  4.81776E+04
 -1.70952E+04  3.70928E+04 -2.88149E+04  2.96962E+03 -1.24715E+04 -2.99531E+04  2.21222E+04 -3.86437E+04
  4.63405E+04 -1.19703E+04  4.33046E+04  2.52572E+04  2.35018E+04  5.34108E+04 -8.77393E+03  5.88251E+04
 -3.77330E+04  4.03620E+04 -4.99522E+04  1.15277E+04 -5.02177E+04 -2.00166E+04 -2.73473E+04 -4.41110E+04
  8.32686E+03 -4.46577E+04  3.56100E+04 -1.84273E+04  3.37664E+04  1.15600E+04  6.26872E+03  2.10602E+04
 -1.39886E+04  1.03802E+04 -1.21992E+04 -7.30542E+03  5.36647E+03 -1.20859E+04  1.94076E+04  5.89314E+03
  1.55167E+04  2.33602E+04 -4.94343E+03  2.84783E+04 -2.34504E+04  1.60564E+04 -3.33123E+04 -1.78633E+03
 -2.78754E+04 -1.90859E+04 -1.34587E+04 -2.77588E+04  4.74901E+03 -2.88937E+04  2.19424E+04 -2.57147E+04
  3.48816E+04 -1.51643E+04  4.12027E+04  6.09629E+03  2.85226E+04  2.67746E+04  4.52557E+03  4.43072E+04
 -2.10435E+04  3.57945E+04 -3.16608E+04  1.22958E+04 -2.34881E+04 -1.01929E+04 -5.59288E+03 -1.20785E+04
  3.78022E+02 -1.23317E+01 -8.90294E+03  9.25882E+03 -2.21808E+04  5.21859E+03 -2.23221E+04 -1.06483E+04
 -1.24576E+04 -2.61662E+04  6.68085E+03 -2.98900E+04  2.03791E+04 -2.15084E+04  2.51147E+04 -1.97030E+03
  1.62807E+04  1.71777E+04 -1.58529E+03  2.56719E+04 -1.86314E+04  1.48182E+04 -2.61160E+04 -5.32215E+03
 -1.90777E+04 -2.28890E+04 -2.38009E+03 -3.05379E+04  1.40240E+04 -2.57308E+04  2.51852E+04 -1.39451E+04
  2.41557E+04 -6.40342E+02  1.75440E+04  5.44707E+03  1.03954E+04  1.47566E+03  1.35587E+04 -1.87039E+03
  2.43518E+04  2.72587E+03  2.86977E+04  2.02574E+04  1.94440E+04  4.14588E+04 -2.28136E+03  4.98952E+04
 -2.87324E+04  4.20558E+04 -4.71446E+04  2.18381E+04 -5.05546E+04 -3.84805E+03 -4.05398E+04 -2.97352E+04
 -1.59348E+04 -4.26461E+04  1.51843E+04 -3.68995E+04  3.11863E+04 -1.62775E+04  2.72860E+04  8.86941E+03
  8.12423E+03  2.11236E+04 -1.32535E+04  1.72122E+04 -2.19249E+04  2.91364E+03 -1.65059E+04 -1.46123E+04
 -4.13913E+02 -2.13928E+04  1.19558E+04 -1.60879E+04  1.51332E+04 -1.35464E+03  4.10795E+03  9.55802E+03
 -9.60347E+03  4.93347E+03 -1.09893E+04 -8.15719E+03 -2.94208E+03 -2.07395E+04  1.35610E+04 -2.25937E+04
  2.62941E+04 -1.38361E+04  3.11310E+04  3.90431E+03  2.68249E+04  2.13900E+04  1.29013E+04  3.32811E+04
 -6.90016E+03  3.63302E+04 -2.39339E+04  2.21933E+04 -2.62820E+04  4.30249E+03 -1.78300E+04 -7.33004E+03
 -7.26017E+03 -8.14712E+03 -6.04804E+02 -4.88130E+01 -2.97371E+03  3.82829E+03 -8.70925E+03  6.12365E+03
 -1.64880E+04 -4.82911E+02 -1.66046E+04 -1.33933E+04 -6.77251E+03 -2.24281E+04  7.49300E+03 -1.82681E+04
  1.54042E+04 -7.46710E+03  1.05643E+04  4.94141E+03 -6.27250E+02  7.59655E+03 -9.15428E+03 -2.96337E+02
 -9.04966E+03 -1.12691E+04 -1.49688E+03 -1.82527E+04  1.07660E+04 -1.86921E+04  2.34560E+04 -1.06465E+04
  2.75552E+04  2.71674E+03  2.00064E+04  1.68704E+04  3.71978E+03  2.31671E+04 -1.08898E+04  1.75580E+04
 -1.49676E+04  5.12649E+03 -7.08939E+03 -4.32988E+03  2.83504E+03 -5.43818E+03  9.70381E+03 -1.00075E+03
  8.93071E+03  8.25658E+03  1.29868E+03  1.50076E+04 -1.03793E+04  1.38091E+04 -1.79947E+04  2.88370E+03
 -1.26267E+04 -9.52275E+03  3.72761E+02 -1.59158E+04  1.06374E+04 -8.82009E+03  1.11819E+04  3.94692E+03
  3.01400E+03  1.25205E+04 -9.79957E+03  1.37398E+04 -1.64989E+04  5.79332E+03 -1.78061E+04 -5.98690E+03
 -9.64705E+03 -1.93868E+04  5.11620E+03 -2.20299E+04  1.86973E+04 -1.29558E+04  2.06476E+04  3.93731E+03
  1.20958E+04  1.59501E+04 -2.14672E+03  1.87312E+04 -1.41117E+04  1.10928E+04 -1.53212E+04 -1.72346E+03
 -1.24553E+04 -1.29479E+04 -1.86611E+03 -1.44407E+04  8.09069E+03 -1.17278E+04  9.12526E+03 -3.72664E+03
  5.82155E+03  2.84744E+03 -1.49639E+03  2.37757E+03 -1.62043E+03 -4.39257E+03  3.92610E+03 -9.66039E+03
  1.42775E+04 -6.39089E+03  2.06027E+04  2.57537E+03  1.91689E+04  1.44403E+04  1.20780E+04  2.58698E+04
 -5.78102E+03  2.97804E+04 -2.45068E+04  2.22951E+04 -3.15553E+04  4.53200E+03 -2.55425E+04 -1.18842E+04
 -1.26996E+04 -2.10824E+04 -2.65866E+02 -1.82490E+04  6.16079E+03 -1.04488E+04  6.42706E+03 -6.49918E+03
  4.20906E+03 -3.91946E+03  4.51124E+03 -4.44414E+03  7.08218E+03 -4.43534E+03  9.78090E+03 -2.11545E+03
  1.33839E+04  3.20632E+03  7.52482E+03  1.19138E+04 -2.62047E+03  1.48944E+04 -1.42037E+04  1.15985E+04
 -1.84858E+04 -1.28135E+03 -1.23100E+04 -1.29288E+04 -2.46718E+03 -2.08487E+04  1.11670E+04 -1.99005E+04
  2.06836E+04 -1.08045E+04  2.44882E+04  3.37367E+03  1.71040E+04  1.77135E+04  2.30318E+03  2.26902E+04
 -9.80026E+03  1.77088E+04 -1.37142E+04  6.32734E+03 -9.45658E+03 -1.78422E+03 -4.30144E+03 -2.82675E+03
 -1.95655E+03 -9.89047E+01 -2.42683E+03  3.13406E+03 -7.60205E+03  3.02832E+03 -1.29034E+04 -1.45146E+03
 -9.84101E+03 -1.27002E+04 -2.14223E+02 -1.90189E+04  1.17704E+04 -1.78309E+04  1.93734E+04 -5.74682E+03
  1.93396E+04  8.79542E+03  8.92975E+03  1.76369E+04 -3.79092E+03  1.90528E+04 -1.39583E+04  1.20962E+04
 -1.82216E+04  8.75249E+02 -1.36783E+04 -1.15406E+04 -1.72028E+03 -1.63011E+04  8.45598E+03 -1.19762E+04
  1.23655E+04 -3.77074E+03  8.23116E+03  3.66577E+03  3.41405E+03  5.44107E+03  1.87631E+03  2.99470E+03
  2.96621E+03  9.98468E+02  4.95586E+03  2.46288E+03  5.96129E+03  6.44751E+03  4.57838E+03  1.01535E+04
 -4.01542E+03  1.56396E+04 -1.42427E+04  1.52120E+04 -2.06152E+04  3.63220E+03 -2.09141E+04 -9.13829E+03
 -1.03671E+04 -2.07189E+04  3.22874E+03 -2.17420E+04  1.25519E+04 -1.43977E+04  1.67467E+04 -4.09168E+03
  1.24224E+04  7.59050E+03  2.83011E+03  1.18254E+04 -5.96019E+03  7.39724E+03 -8.71276E+03 -1.62566E+03
 -4.33368E+03 -8.33723E+03  4.78900E+03 -9.08307E+03  8.05698E+03 -4.36608E+03  7.78259E+03  1.71823E+03
  4.99728E+03  4.30928E+03  1.81941E+03  3.79319E+03 -1.08527E+03  2.35376E+03  1.63565E+03 -6.31438E+02
  3.78936E+03 -1.29326E+03  7.87635E+03  3.37955E+03  4.82656E+03  1.09049E+04 -1.70201E+03  1.42912E+04
 -9.75568E+03  9.81669E+03 -1.39182E+04  3.17593E+03 -1.15259E+04 -4.56816E+03 -4.56256E+03 -8.20676E+03
  1.62516E+03 -8.24144E+03  5.68525E+03 -3.68186E+03  4.56290E+03  3.98609E+03 -1.89572E+03  7.01034E+03
 -8.95191E+03  4.11323E+03 -9.99699E+03 -4.75057E+03 -6.06061E+03 -1.18983E+04  1.91033E+03 -1.15860E+04
  7.22786E+03 -7.28555E+03  8.96228E+03 -1.19038E+03  7.23014E+03  3.65099E+03  8.99293E+02  5.65904E+03
 -4.07723E+03  2.40026E+03 -5.02075E+03 -4.56594E+03  1.73280E+03 -9.53395E+03  1.04854E+04 -7.74728E+03
  1.38986E+04  8.82139E+02  1.28387E+04  9.71164E+03  4.15827E+03  1.40697E+04 -5.11878E+03  1.34745E+04
 -1.11082E+04  6.71734E+03 -1.23897E+04 -2.13969E+03 -6.84564E+03 -9.09925E+03  2.18344E+03 -8.76945E+03
  8.88808E+03 -4.20359E+03  7.94722E+03  3.98483E+03  2.58347E+03  7.99821E+03 -1.19164E+03  6.78474E+03
 -4.00375E+03  3.93691E+03 -3.37879E+03  1.66565E+03 -1.41155E+03  8.43411E+02 -1.75203E+03  2.71693E+03
 -3.12601E+03  5.97568E+03 -9.71553E+03  5.33395E+03 -1.43262E+04  3.22801E+02 -1.58093E+04 -9.78857E+03
 -8.61061E+03 -1.86316E+04  3.90043E+03 -2.19996E+04  1.41038E+04 -1.67657E+04  2.05899E+04 -6.48152E+03
  1.95393E+04  4.19527E+03  1.19260E+04  1.29926E+04  1.54840E+03  1.57108E+04 -6.13560E+03  1.11111E+04
 -8.54165E+03  4.23272E+03 -4.97212E+03 -1.80358E+03 -1.65788E+03 -1.45439E+03 -7.78819E+02 -3.47178E+02
 -2.57717E+03  2.56731E+02 -3.34309E+03 -4.30142E+02 -2.10027E+03 -3.64158E+03  1.00842E+03 -4.82940E+03
  6.70952E+03 -4.95090E+03  9.99137E+03 -6.28456E+02  1.06972E+04  8.16126E+03  3.56034E+03  1.55204E+04
 -7.19112E+03  1.69458E+04 -1.63538E+04  1.01726E+04 -1.90981E+04 -1.36081E+03 -1.42602E+04 -1.16993E+04
 -5.56934E+03 -1.64078E+04  4.36872E+03 -1.47672E+04  1.06156E+04 -7.95301E+03  1.04309E+04  7.82851E+02
  5.91566E+03  5.45577E+03 -2.59815E+02  4.82138E+03 -3.00174E+03 -4.14181E+02  1.59394E+01 -3.86771E+03
  4.92006E+03 -2.66588E+03  6.12367E+03  1.96819E+03  4.71617E+03  6.28483E+03 -4.04918E+02  8.33316E+03
 -7.15372E+03  6.92095E+03 -1.06897E+04  4.82106E+02 -9.28252E+03 -8.01308E+03 -1.33077E+03 -1.39137E+04
  7.65385E+03 -1.15150E+04  1.29978E+04 -3.97622E+03  1.25170E+04  3.92355E+03  7.11281E+03  9.42558E+03
  1.43598E+03  1.05702E+04 -3.93671E+03  8.29053E+03 -7.00915E+03  4.68841E+03 -5.46851E+03  3.01601E+02
 -3.26855E+03 -3.58252E+02 -2.93921E+03  8.11567E+02 -5.52830E+03  2.05174E+03 -7.99244E+03 -1.20970E+03
 -7.81521E+03 -5.83743E+03 -2.49346E+03 -1.06219E+04  4.94178E+03 -1.09651E+04  9.64209E+03 -5.78701E+03
  1.08687E+04  1.37977E+03  6.43678E+03  7.84041E+03 -8.95011E+02  1.12315E+04 -8.33325E+03  7.28662E+03
