 $NMID ID='MM_0lb_SNR800_15hz_g40_64.RAW', FMTDAT='(8E13.5)'
 TRAMP=1., VOLUME=1. $END
  3.09846E+05  2.95007E+02  3.37539E+05  2.50621E+05  8.46067E+04  3.37722E+05 -1.32296E+05  2.50371E+05
 -1.89891E+05  8.30230E+04 -1.11344E+05 -3.26208E+04  1.02427E+03 -5.03952E+04  5.38983E+04  3.89881E+01
  3.49497E+04  5.29290E+04 -1.69913E+04  7.50220E+04 -6.08024E+04  6.29478E+04 -8.35353E+04  3.19375E+04
 -7.99528E+04 -1.08812E+04 -5.64627E+04 -5.08910E+04 -1.50559E+04 -6.88930E+04  2.69594E+04 -4.54594E+04
  3.96517E+04  3.51395E+03  1.58329E+04  4.76448E+04 -3.41869E+04  4.67532E+04 -6.60992E+04 -4.00556E+02
 -5.26858E+04 -5.63927E+04 -6.56979E+03 -7.62697E+04  3.34422E+04 -5.44424E+04  4.70730E+04 -1.69325E+04
  4.27331E+04  1.10303E+04  3.13404E+04  2.49336E+04  1.58291E+04  2.87472E+04 -4.86063E+03  2.69821E+04
 -2.17207E+04  1.25902E+04 -1.90280E+04 -4.60581E+03  4.86335E+03 -7.48024E+03  2.19356E+04  1.17599E+04
  7.33634E+03  3.40115E+04 -3.15252E+04  3.46639E+04 -6.20846E+04  2.06264E+03 -5.62163E+04 -4.19938E+04
 -1.24503E+04 -6.21604E+04  3.91258E+04 -4.43087E+04  5.70453E+04 -2.07105E+03  3.30561E+04  3.13910E+04
 -6.34955E+03  3.44772E+04 -2.89708E+04  1.47955E+04 -2.91063E+04 -4.90440E+03 -1.53445E+04 -1.03850E+04
 -7.84797E+03 -1.23297E+04 -9.66875E+02 -1.71350E+04  6.89585E+03 -2.27212E+04  1.53771E+04 -1.35952E+04
  1.16314E+04  4.80735E+03 -7.31130E+03  1.32628E+04 -2.03082E+04 -3.14517E+03 -8.20153E+03 -3.23548E+04
  2.17696E+04 -4.18973E+04  4.67398E+04 -1.95422E+04  4.35861E+04  1.91897E+04  1.50103E+04  4.27041E+04
 -1.55951E+04  3.22420E+04 -2.42107E+04  1.44132E+03 -9.00061E+03 -2.70970E+04  2.06385E+04 -3.25735E+04
  3.99427E+04 -8.30131E+03  3.36877E+04  2.31944E+04  1.67307E+04  4.45875E+04 -7.93940E+03  4.79307E+04
 -3.01947E+04  3.16507E+04 -3.97450E+04  9.14084E+03 -4.03818E+04 -1.60709E+04 -2.28188E+04 -3.61976E+04
  7.02574E+03 -3.63402E+04  3.03991E+04 -1.36375E+04  2.79576E+04  1.08416E+04  3.37434E+03  1.87110E+04
 -1.33281E+04  7.61901E+03 -1.00038E+04 -7.53106E+03  6.25971E+03 -1.04104E+04  1.75921E+04  6.29186E+03
  1.28746E+04  2.20155E+04 -6.39258E+03  2.41525E+04 -2.19884E+04  1.05229E+04 -2.65839E+04 -5.31076E+03
 -1.86387E+04 -1.69575E+04 -7.15331E+03 -1.87179E+04  3.65919E+03 -1.75572E+04  1.40398E+04 -1.65869E+04
  2.39137E+04 -1.23621E+04  3.05670E+04  2.02769E+03  2.27274E+04  1.82761E+04  4.35485E+03  3.46735E+04
 -1.70077E+04  2.94607E+04 -2.71092E+04  1.00527E+04 -2.04177E+04 -1.03769E+04 -4.17322E+03 -1.36905E+04
  2.21124E+03 -3.60463E+03 -3.46053E+03  6.26958E+03 -1.46628E+04  5.41126E+03 -1.52845E+04 -6.06097E+03
 -9.62273E+03 -1.74667E+04  5.13632E+03 -2.14863E+04  1.40259E+04 -1.53124E+04  1.67600E+04 -1.68790E+03
  1.04296E+04  1.23534E+04 -8.79655E+02  1.78149E+04 -1.19776E+04  9.98666E+03 -1.73703E+04 -3.52996E+03
 -1.30990E+04 -1.57533E+04 -1.75644E+03 -2.15259E+04  9.74292E+03 -1.71632E+04  1.77325E+04 -8.67936E+03
  1.62844E+04  4.13354E+02  1.16935E+04  4.14052E+03  5.93669E+03  6.59704E+02  9.14632E+03 -1.22061E+03
  1.59517E+04  2.77003E+03  1.70642E+04  1.41664E+04  1.10968E+04  2.75679E+04 -2.77979E+03  3.07237E+04
 -1.83721E+04  2.42974E+04 -2.89745E+04  1.20396E+04 -2.99094E+04 -2.32568E+03 -2.47342E+04 -1.72163E+04
 -1.12824E+04 -2.42034E+04  8.22673E+03 -2.24955E+04  1.92473E+04 -1.16820E+04  1.78337E+04  4.50238E+03
  6.97243E+03  1.29771E+04 -8.31972E+03  1.14386E+04 -1.51303E+04  2.56348E+03 -1.15499E+04 -9.06446E+03
  2.80265E+00 -1.39314E+04  7.16650E+03 -1.05331E+04  9.04981E+03 -9.35251E+02  2.11385E+03  5.88570E+03
 -6.12434E+03  2.25266E+03 -4.76534E+03 -5.21201E+03 -1.08951E+02 -1.20597E+04  8.65328E+03 -1.25632E+04
  1.45829E+04 -6.41402E+03  1.53875E+04  2.85221E+03  1.29343E+04  1.18288E+04  6.64051E+03  1.75005E+04
 -2.75865E+03  1.96133E+04 -1.21902E+04  1.24648E+04 -1.42075E+04  3.18179E+03 -1.01739E+04 -2.74698E+03
 -5.18718E+03 -4.02932E+03 -8.38606E+02  1.20484E+03 -2.19099E+03  2.41951E+03 -4.45290E+03  4.02197E+03
 -9.82760E+03 -7.38055E+02 -1.02406E+04 -8.29644E+03 -4.39277E+03 -1.34730E+04  4.24578E+03 -1.03085E+04
  8.60830E+03 -4.35564E+03  6.28646E+03  2.59408E+03  6.44118E+02  3.69599E+03 -4.57209E+03  1.46662E+02
 -4.36000E+03 -6.34212E+03 -8.90322E+02 -9.04064E+03  5.00626E+03 -1.00129E+04  1.21724E+04 -5.05903E+03
  1.46827E+04  1.13616E+03  1.06340E+04  8.30259E+03  2.30651E+03  1.10077E+04 -6.20734E+03  1.01173E+04
 -8.18879E+03  2.95400E+03 -4.10703E+03 -1.98340E+03  1.50521E+03 -2.57871E+03  5.67701E+03 -1.24380E+03
  4.77532E+03  4.20305E+03  1.08342E+03  7.62564E+03 -5.53642E+03  7.65498E+03 -9.75135E+03  1.92109E+03
 -6.43374E+03 -4.84238E+03  2.70437E+02 -8.21308E+03  4.88415E+03 -4.61409E+03  4.74289E+03  1.48255E+03
  7.34416E+02  5.03722E+03 -5.32927E+03  6.37325E+03 -6.76722E+03  3.06939E+03 -6.70608E+03 -2.10176E+03
 -4.02947E+03 -8.25520E+03  1.86295E+03 -9.55194E+03  8.36853E+03 -6.27079E+03  8.77610E+03  1.48246E+03
  5.69331E+03  7.24617E+03 -1.55961E+02  9.24191E+03 -6.51616E+03  5.36055E+03 -7.10515E+03 -6.35905E+02
 -7.09997E+03 -6.24223E+03 -1.62794E+03 -6.39099E+03  3.24595E+03 -5.74912E+03  3.99197E+03 -2.96537E+03
  3.29374E+03  7.79285E+02 -2.12982E+02  1.60149E+03  3.66236E+02 -9.06986E+02  6.58613E+02 -3.08176E+03
  5.40963E+03 -1.80055E+03  7.55190E+03  8.81046E+02  8.05248E+03  4.99452E+03  6.18588E+03  1.03771E+04
 -1.99890E+03  1.18613E+04 -1.06628E+04  8.65067E+03 -1.34802E+04  1.77022E+03 -1.05230E+04 -4.14350E+03
 -5.64426E+03 -8.90764E+03 -6.98375E+02 -6.91237E+03  2.85471E+03 -3.84285E+03  2.41201E+03 -2.93175E+03
  1.74826E+03 -2.02851E+03  2.29932E+03 -2.79292E+03  3.83344E+03 -1.45297E+03  4.30084E+03 -2.39475E+01
  6.22018E+03  1.01280E+03  2.11849E+03  4.54344E+03 -1.73144E+03  4.84038E+03 -6.07225E+03  3.58753E+03
 -7.01936E+03 -1.15892E+03 -3.39507E+03 -4.66963E+03  2.78944E+02 -7.21772E+03  4.33092E+03 -7.69714E+03
  7.79713E+03 -4.35053E+03  9.59578E+03  7.81762E+02  6.53180E+03  6.29590E+03  1.42417E+03  8.43093E+03
 -3.38434E+03  7.52185E+03 -5.02562E+03  2.71976E+03 -3.39844E+03 -1.16467E+03 -1.14092E+03 -8.94369E+02
 -6.24450E+02  2.13889E+02 -1.29264E+03  2.17772E+03 -3.39279E+03  1.35662E+03 -5.36277E+03 -6.20819E+02
 -2.54435E+03 -5.40664E+03  5.41815E+02 -7.00827E+03  4.05040E+03 -6.54722E+03  5.87654E+03 -2.01898E+03
  6.44940E+03  3.43451E+03  3.02162E+03  5.39612E+03 -1.46818E+03  6.89765E+03 -4.38660E+03  4.12179E+03
 -5.77595E+03  6.72659E+02 -5.12514E+03 -3.85552E+03 -4.47030E+02 -4.95652E+03  2.53640E+03 -4.09850E+03
  4.26928E+03 -1.71948E+03  2.82823E+03  8.05486E+02  5.86402E+02  2.34514E+03  8.02212E+02  8.73267E+02
  1.69294E+03  5.41616E+02  1.63504E+03  1.24983E+03  1.70635E+03  2.72368E+03  2.10633E+03  2.92674E+03
 -1.59241E+03  5.04042E+03 -4.12310E+03  5.75571E+03 -5.90245E+03  1.51077E+03 -6.82479E+03 -1.85900E+03
 -3.07208E+03 -6.08792E+03  1.10095E+03 -7.27109E+03  3.55008E+03 -4.18937E+03  5.34659E+03 -1.40776E+03
  3.65776E+03  2.62606E+03  1.01538E+03  3.56201E+03 -1.40391E+03  2.33043E+03 -2.13775E+03 -3.30114E+02
 -9.09958E+02 -2.49889E+03  1.69156E+03 -2.32973E+03  2.19441E+03 -1.38229E+03  2.52181E+03  5.43878E+02
  1.56044E+03  9.01239E+02  1.24635E+03  3.65573E+02 -2.71233E+02  6.39611E+02  1.66421E+03 -6.36720E+02
  2.26333E+02 -2.71699E+02  2.50756E+03  1.06639E+03  7.80574E+02  3.42685E+03 -6.30469E+02  4.51176E+03
 -3.02572E+03  2.41483E+03 -3.55090E+03  6.99138E+02 -3.48362E+03 -1.28989E+03 -7.81595E+02 -2.10867E+03
  3.76741E+02 -1.99817E+03  1.64328E+03 -1.09515E+03  1.08164E+03  1.61053E+03 -5.75561E+02  2.09784E+03
 -2.33088E+03  1.07574E+03 -2.23681E+03 -1.92791E+03 -1.69268E+03 -3.36187E+03  4.35769E+02 -2.61656E+03
  1.45515E+03 -1.58754E+03  1.66571E+03 -1.53403E+02  2.04817E+03  4.59610E+02  3.97457E+02  1.80154E+03
 -6.38917E+02  1.24205E+02 -1.78846E+03 -8.21037E+02  5.83279E+02 -2.20134E+03  2.75821E+03 -1.84177E+03
  2.74207E+03  2.94311E+02  3.79241E+03  1.89647E+03  1.51921E+03  3.32154E+03 -8.74946E+02  3.48141E+03
 -2.76918E+03  1.09108E+03 -2.84170E+03 -4.34537E+02 -1.38989E+03 -2.20212E+03  2.87977E+02 -1.55193E+03
  2.52429E+03 -1.16930E+03  1.63169E+03  1.45335E+03  7.16094E+02  1.74062E+03  2.79306E+01  1.83695E+03
 -6.35972E+02  1.59271E+03 -6.41599E+02  4.95207E+02 -1.50637E+02  4.97347E+02 -5.63866E+02  7.39465E+02
 -1.18052E+03  1.44192E+03 -2.71492E+03  1.25422E+03 -3.22385E+03  6.80483E+01 -4.09477E+03 -1.91602E+03
 -1.98782E+03 -4.38496E+03  1.02238E+03 -5.33455E+03  2.93358E+03 -3.99732E+03  4.91194E+03 -1.71634E+03
  4.58298E+03  3.89143E+02  2.70116E+03  2.98310E+03 -3.86197E+02  3.00947E+03 -1.41607E+03  2.67841E+03
 -1.75951E+03  1.37684E+03 -9.93759E+02 -4.92726E+02 -5.30285E+02  1.48352E+02 -7.56071E+02 -3.53710E+01
 -1.23567E+03  1.04270E+01 -1.18616E+03 -1.06634E+01  9.84294E+00 -6.94524E+02 -2.86533E+02 -1.57994E+03
  1.56877E+03 -1.01868E+03  1.59737E+03  2.07510E+02  2.35003E+03  1.89838E+03 -4.43738E+01  3.09783E+03
 -1.91463E+03  3.82346E+03 -3.47364E+03  2.37418E+03 -3.77792E+03 -5.06898E+02 -2.74650E+03 -2.32579E+03
 -1.48611E+03 -3.19328E+03  8.07463E+02 -2.69824E+03  1.74635E+03 -1.26719E+03  2.04137E+03 -7.22177E+00
  1.58315E+03  9.48705E+02 -7.03309E+01  9.26897E+02 -5.31295E+02 -9.24463E+01 -1.88828E+02 -7.20608E+02
  1.00685E+03 -1.14428E+02  1.06775E+03  8.77528E+02  5.54739E+02  1.11736E+03  1.28776E+02  1.13018E+03
 -1.31563E+03  1.56744E+03 -1.63821E+03  2.58165E+02 -1.84895E+03 -1.06142E+03  2.00547E+02 -2.42830E+03
  1.53473E+03 -1.79644E+03  2.06071E+03 -4.91922E+02  2.12396E+03 -3.16279E+02  1.21600E+03  1.53045E+03
  6.64643E+02  1.82105E+03 -5.99102E+02  1.45339E+03 -1.15652E+03  9.18321E+02 -1.16745E+03  1.63786E+02
 -3.18911E+02 -2.08287E+01 -6.94833E+02  3.87797E+02 -8.53887E+02  2.12821E+02 -1.39653E+03 -4.69437E+02
 -1.49431E+03 -3.83271E+02 -6.13862E+02 -1.61732E+03  1.05682E+03 -2.35222E+03  1.74545E+03 -9.25310E+02
  1.66188E+03  1.36307E+02  6.05470E+02  1.17243E+03 -4.51164E+02  1.71139E+03 -1.27009E+03  1.30627E+03
