 $NMID ID='MM_0lb_SNR800_10hz_g60_73.RAW', FMTDAT='(8E13.5)'
 TRAMP=1., VOLUME=1. $END
  3.10041E+05  9.02984E+01  3.37579E+05  2.51017E+05  8.49173E+04  3.38776E+05 -1.32472E+05  2.51753E+05
 -1.90874E+05  8.34364E+04 -1.12751E+05 -3.23497E+04  1.89062E+02 -5.04709E+04  5.35699E+04 -6.76568E+02
  3.54367E+04  5.27284E+04 -1.68303E+04  7.60737E+04 -6.14953E+04  6.45949E+04 -8.56880E+04  3.26761E+04
 -8.20536E+04 -1.15540E+04 -5.82065E+04 -5.27843E+04 -1.53448E+04 -7.08138E+04  2.81242E+04 -4.71153E+04
  4.13511E+04  3.60821E+03  1.72328E+04  4.85601E+04 -3.53829E+04  4.82732E+04 -6.78517E+04  2.82925E+02
 -5.53411E+04 -5.76988E+04 -7.44474E+03 -7.90347E+04  3.49242E+04 -5.72360E+04  4.99964E+04 -1.81617E+04
  4.57295E+04  1.14758E+04  3.29083E+04  2.70219E+04  1.59570E+04  3.08642E+04 -5.69417E+03  2.77929E+04
 -2.27449E+04  1.19602E+04 -1.78674E+04 -6.22987E+03  7.29140E+03 -7.37717E+03  2.35925E+04  1.38829E+04
  7.16089E+03  3.76928E+04 -3.42669E+04  3.72615E+04 -6.60330E+04  2.10775E+03 -5.91455E+04 -4.48962E+04
 -1.25207E+04 -6.62439E+04  4.19265E+04 -4.73798E+04  6.13111E+04 -2.82859E+03  3.65802E+04  3.44476E+04
 -5.35403E+03  3.93825E+04 -3.19409E+04  1.87791E+04 -3.33100E+04 -3.67754E+03 -1.94360E+04 -1.22586E+04
 -9.18205E+03 -1.56749E+04 -6.27247E+02 -1.95105E+04  8.75610E+03 -2.36046E+04  1.57831E+04 -1.23509E+04
  1.04064E+04  6.19550E+03 -1.04978E+04  1.32113E+04 -2.35033E+04 -7.06956E+03 -8.42785E+03 -3.77368E+04
  2.54005E+04 -4.68256E+04  5.22567E+04 -2.11333E+04  4.89270E+04  2.10334E+04  1.71551E+04  4.73183E+04
 -1.67166E+04  3.62402E+04 -2.79534E+04  3.02813E+03 -1.18960E+04 -2.94929E+04  2.15345E+04 -3.73798E+04
  4.46888E+04 -1.12287E+04  4.03407E+04  2.50776E+04  2.10791E+04  5.13631E+04 -7.96752E+03  5.65493E+04
 -3.56257E+04  3.84833E+04 -4.82884E+04  1.13482E+04 -4.83162E+04 -1.83856E+04 -2.60636E+04 -4.23841E+04
  7.42746E+03 -4.20511E+04  3.39268E+04 -1.74123E+04  3.20728E+04  1.09617E+04  5.25376E+03  2.14304E+04
 -1.40148E+04  1.01107E+04 -1.13421E+04 -7.23670E+03  5.62561E+03 -1.13258E+04  1.87677E+04  5.38597E+03
  1.48307E+04  2.25463E+04 -4.92313E+03  2.71714E+04 -2.32183E+04  1.42971E+04 -3.16668E+04 -2.77724E+03
 -2.56313E+04 -1.83054E+04 -1.19769E+04 -2.54412E+04  4.80934E+03 -2.57624E+04  2.01829E+04 -2.28991E+04
  3.24038E+04 -1.43133E+04  3.85095E+04  4.66901E+03  2.75222E+04  2.44013E+04  4.50339E+03  4.14613E+04
 -1.97109E+04  3.37044E+04 -3.02847E+04  1.20921E+04 -2.22556E+04 -1.01696E+04 -4.92198E+03 -1.27966E+04
  6.00299E+02 -1.08223E+03 -7.77333E+03  8.43068E+03 -2.04280E+04  4.73654E+03 -2.00563E+04 -9.49190E+03
 -1.22016E+04 -2.32114E+04  6.21852E+03 -2.77475E+04  1.85585E+04 -1.99762E+04  2.27980E+04 -1.95067E+03
  1.46331E+04  1.60912E+04 -1.73074E+03  2.37350E+04 -1.65549E+04  1.32705E+04 -2.37330E+04 -5.02306E+03
 -1.69611E+04 -2.09586E+04 -2.11561E+03 -2.80958E+04  1.26386E+04 -2.37133E+04  2.31020E+04 -1.21120E+04
  2.22032E+04 -7.78742E+01  1.60038E+04  5.04756E+03  8.79700E+03  1.64530E+03  1.20424E+04 -2.00513E+03
  2.21425E+04  3.44179E+03  2.59136E+04  1.83190E+04  1.71136E+04  3.78675E+04 -2.72239E+03  4.41970E+04
 -2.52390E+04  3.71369E+04 -4.21932E+04  1.93316E+04 -4.45985E+04 -3.59984E+03 -3.62040E+04 -2.62384E+04
 -1.43687E+04 -3.73459E+04  1.29210E+04 -3.24099E+04  2.80592E+04 -1.50992E+04  2.40431E+04  7.93397E+03
  7.84893E+03  1.86571E+04 -1.13348E+04  1.56224E+04 -1.98738E+04  2.75676E+03 -1.53170E+04 -1.30819E+04
 -5.72420E+02 -1.94893E+04  1.01966E+04 -1.45729E+04  1.35092E+04 -1.14140E+03  3.44197E+03  8.95423E+03
 -8.56239E+03  3.95877E+03 -9.28485E+03 -6.86727E+03 -1.68625E+03 -1.76737E+04  1.19841E+04 -2.00662E+04
  2.27737E+04 -1.11971E+04  2.60899E+04  3.57216E+03  2.29765E+04  1.84878E+04  1.03541E+04  2.93993E+04
 -5.68383E+03  3.07776E+04 -2.06795E+04  1.93466E+04 -2.25670E+04  4.02877E+03 -1.53124E+04 -5.79207E+03
 -6.51818E+03 -7.03542E+03 -4.11444E+02  5.65718E+02 -2.72863E+03  3.37976E+03 -7.49773E+03  5.65486E+03
 -1.44305E+04 -1.07826E+03 -1.45726E+04 -1.15463E+04 -5.87375E+03 -1.91526E+04  6.43584E+03 -1.57769E+04
  1.27883E+04 -6.47430E+03  8.95122E+03  4.17862E+03 -2.75687E+02  6.64138E+03 -7.90012E+03  4.27783E+01
 -7.49218E+03 -1.01113E+04 -1.04164E+03 -1.54932E+04  9.24019E+03 -1.64781E+04  2.00719E+04 -8.71244E+03
  2.32682E+04  2.83262E+03  1.67494E+04  1.42617E+04  3.38333E+03  1.87328E+04 -9.78674E+03  1.56529E+04
 -1.25333E+04  4.12306E+03 -6.38190E+03 -3.17665E+03  1.84238E+03 -4.07740E+03  8.35764E+03 -1.58180E+03
  7.52765E+03  6.87682E+03  1.18099E+03  1.24093E+04 -9.12377E+03  1.19344E+04 -1.51532E+04  2.41358E+03
 -1.08127E+04 -7.90601E+03  4.25876E+02 -1.29612E+04  8.77473E+03 -6.63545E+03  9.11699E+03  2.98945E+03
  1.98119E+03  1.00799E+04 -8.34714E+03  1.13245E+04 -1.34830E+04  4.65300E+03 -1.37043E+04 -4.90945E+03
 -8.09253E+03 -1.56950E+04  4.08834E+03 -1.77242E+04  1.50750E+04 -1.06846E+04  1.65210E+04  3.00124E+03
  9.75829E+03  1.29855E+04 -1.71474E+03  1.58226E+04 -1.14625E+04  9.01000E+03 -1.27089E+04 -1.20779E+03
 -1.03493E+04 -1.01767E+04 -2.03400E+03 -1.23572E+04  6.04215E+03 -9.56142E+03  7.99681E+03 -3.15596E+03
  4.94833E+03  2.06904E+03 -1.06685E+03  1.80152E+03 -1.16511E+03 -3.18006E+03  2.35764E+03 -7.60769E+03
  1.13309E+04 -4.86332E+03  1.57650E+04  2.17552E+03  1.53970E+04  1.09577E+04  1.01606E+04  2.01690E+04
 -4.46563E+03  2.33915E+04 -1.91740E+04  1.73820E+04 -2.50500E+04  3.31378E+03 -2.06555E+04 -9.00657E+03
 -1.01699E+04 -1.72119E+04 -4.82107E+02 -1.45521E+04  5.24800E+03 -7.93877E+03  5.28859E+03 -5.81332E+03
  3.90913E+03 -3.49510E+03  3.75624E+03 -3.89105E+03  5.95346E+03 -3.32743E+03  8.06078E+03 -1.74588E+03
  1.04297E+04  2.15300E+03  5.56839E+03  8.93949E+03 -2.19706E+03  1.12022E+04 -1.10717E+04  8.22135E+03
 -1.43572E+04 -1.46297E+03 -9.22593E+03 -1.04305E+04 -1.25010E+03 -1.52854E+04  8.39899E+03 -1.54697E+04
  1.62858E+04 -8.63072E+03  1.94315E+04  2.75862E+03  1.34162E+04  1.36146E+04  1.84481E+03  1.71018E+04
 -7.37484E+03  1.38657E+04 -1.04095E+04  4.60491E+03 -7.18883E+03 -1.81287E+03 -3.10029E+03 -2.07557E+03
 -1.74651E+03 -2.21919E+02 -2.18401E+03  2.84467E+03 -6.41671E+03  2.24492E+03 -9.77554E+03 -1.67752E+03
 -6.74225E+03 -9.55091E+03  2.23189E+02 -1.42658E+04  8.83569E+03 -1.28892E+04  1.44010E+04 -4.24496E+03
  1.38709E+04  6.90773E+03  6.97034E+03  1.32556E+04 -3.01686E+03  1.46762E+04 -1.03445E+04  8.57189E+03
 -1.33968E+04  5.75572E+02 -1.01363E+04 -8.37402E+03 -1.35525E+03 -1.14178E+04  6.19182E+03 -9.06773E+03
  9.23518E+03 -3.25842E+03  6.19164E+03  2.35760E+03  2.45898E+03  4.10241E+03  1.47922E+03  1.78754E+03
  2.57784E+03  1.24227E+03  3.54517E+03  2.08943E+03  3.86547E+03  4.86032E+03  3.88790E+03  7.91551E+03
 -2.86374E+03  1.12240E+04 -9.89636E+03  1.12343E+04 -1.48612E+04  2.94059E+03 -1.49687E+04 -6.08462E+03
 -7.07982E+03 -1.44310E+04  1.97134E+03 -1.58529E+04  8.45145E+03 -1.00969E+04  1.18364E+04 -3.04457E+03
  9.28775E+03  5.69678E+03  2.19792E+03  8.26104E+03 -3.97576E+03  4.97343E+03 -5.73340E+03 -1.07112E+03
 -2.66829E+03 -6.05616E+03  3.33336E+03 -6.19176E+03  5.65603E+03 -3.08001E+03  5.59769E+03  1.22439E+03
  3.36374E+03  2.97029E+03  1.47602E+03  2.26278E+03 -9.59540E+02  2.25165E+03  1.05504E+03 -9.94689E+02
  2.42242E+03 -5.65963E+02  5.86518E+03  2.54484E+03  3.34238E+03  7.92678E+03 -1.33622E+03  1.05374E+04
 -7.05893E+03  5.80628E+03 -9.17928E+03  2.13915E+03 -8.19624E+03 -3.22437E+03 -2.55759E+03 -5.58865E+03
  1.18777E+03 -5.31685E+03  3.68010E+03 -2.76831E+03  3.27214E+03  2.77837E+03 -1.43016E+03  4.75238E+03
 -6.09338E+03  2.61243E+03 -6.70160E+03 -3.37463E+03 -3.60469E+03 -7.56246E+03  1.30205E+03 -7.91466E+03
  4.49962E+03 -4.55971E+03  6.20891E+03 -5.09919E+02  4.71163E+03  1.89635E+03  5.40900E+02  4.04205E+03
 -2.94848E+03  1.09709E+03 -3.75216E+03 -2.35460E+03  1.29091E+03 -5.71894E+03  6.76966E+03 -4.82271E+03
  8.70147E+03  7.79896E+02  8.75386E+03  6.10957E+03  2.58153E+03  9.59791E+03 -3.40529E+03  8.75342E+03
 -7.62406E+03  3.69959E+03 -8.54350E+03 -1.24308E+03 -4.35600E+03 -6.19382E+03  1.42519E+03 -5.66082E+03
  5.70832E+03 -2.91713E+03  4.53102E+03  2.22636E+03  1.87271E+03  4.78653E+03 -8.76810E+02  4.70896E+03
 -2.29179E+03  3.12002E+03 -2.27675E+03  1.41857E+03 -1.43571E+03  9.84841E+02 -1.41523E+03  1.70351E+03
 -2.55472E+03  3.51115E+03 -6.40727E+03  3.26069E+03 -9.10950E+03  2.44565E+02 -1.02267E+04 -6.05779E+03
 -5.23732E+03 -1.24323E+04  2.61469E+03 -1.38903E+04  8.79396E+03 -1.11229E+04  1.34535E+04 -4.23119E+03
  1.26398E+04  2.47220E+03  7.84846E+03  8.44251E+03  6.04840E+02  9.43765E+03 -3.85544E+03  7.17910E+03
 -5.46842E+03  2.32397E+03 -3.31669E+03 -1.15878E+03 -1.26867E+03 -1.23716E+03 -1.01403E+03 -1.56375E+02
 -1.60838E+03  4.22603E+02 -2.21840E+03 -4.03566E+02 -4.24408E+02 -2.11646E+03 -3.87114E+01 -3.32343E+03
  4.34101E+03 -2.81338E+03  5.84860E+03 -4.68259E+01  6.90599E+03  5.08472E+03  1.67031E+03  9.89627E+03
 -4.31230E+03  1.06302E+04 -9.75320E+03  6.58160E+03 -1.16406E+04 -5.79357E+02 -8.49485E+03 -6.93518E+03
 -3.81244E+03 -9.95429E+03  2.68839E+03 -8.75679E+03  6.01435E+03 -4.51392E+03  6.44494E+03  6.75607E+01
  3.36868E+03  3.02999E+03 -3.71706E+02  2.57403E+03 -2.12531E+03  6.11238E+01 -8.94747E+01 -2.00184E+03
  3.29212E+03 -1.37746E+03  3.78787E+03  1.30453E+03  2.83252E+03  3.88179E+03  1.18648E+02  4.50943E+03
 -4.25800E+03  4.05918E+03 -6.33763E+03  5.62078E+02 -5.35607E+03 -4.48136E+03 -1.24941E+03 -7.77711E+03
  4.17813E+03 -6.94757E+03  7.21267E+03 -2.26606E+03  7.34538E+03  2.08976E+03  4.21395E+03  5.84406E+03
  8.75334E+02  6.03761E+03 -2.14007E+03  5.02455E+03 -4.31844E+03  2.68928E+03 -3.26949E+03  2.44982E+02
 -1.59498E+03 -2.50697E+02 -1.91234E+03  8.00988E+02 -3.24133E+03  8.99879E+02 -4.95492E+03 -1.01430E+03
 -4.60592E+03 -3.18069E+03 -1.87423E+03 -6.51100E+03  3.33217E+03 -6.43923E+03  5.64059E+03 -3.13876E+03
  6.35135E+03  9.81563E+02  3.19574E+03  3.97187E+03 -2.18634E+02  5.98525E+03 -4.41272E+03  3.80676E+03
