 $NMID ID='MM_0lb_SNR800_7hz_g50_90.RAW', FMTDAT='(8E13.5)'
 TRAMP=1., VOLUME=1. $END
  3.09817E+05  2.02922E+02  3.38335E+05  2.50511E+05  8.54349E+04  3.38417E+05 -1.32981E+05  2.52225E+05
 -1.91256E+05  8.40877E+04 -1.12272E+05 -3.23207E+04  2.83012E+02 -5.09138E+04  5.35653E+04 -7.56552E+02
  3.59571E+04  5.30525E+04 -1.69373E+04  7.64025E+04 -6.15972E+04  6.51251E+04 -8.58126E+04  3.29180E+04
 -8.28939E+04 -1.18292E+04 -5.88203E+04 -5.27275E+04 -1.46695E+04 -7.10637E+04  2.86948E+04 -4.71777E+04
  4.13488E+04  3.66062E+03  1.67621E+04  4.92365E+04 -3.51869E+04  4.87658E+04 -6.86574E+04  3.38652E+02
 -5.50350E+04 -5.81773E+04 -7.20817E+03 -7.98550E+04  3.50405E+04 -5.76527E+04  5.06980E+04 -1.88191E+04
  4.59883E+04  1.19761E+04  3.39636E+04  2.66712E+04  1.57310E+04  3.07585E+04 -6.19666E+03  2.77397E+04
 -2.25537E+04  1.21121E+04 -1.75581E+04 -6.38678E+03  7.61591E+03 -7.19814E+03  2.36468E+04  1.43106E+04
  6.88433E+03  3.82417E+04 -3.45776E+04  3.79673E+04 -6.69945E+04  2.08526E+03 -5.89879E+04 -4.47812E+04
 -1.24632E+04 -6.66185E+04  4.22417E+04 -4.82816E+04  6.25739E+04 -2.66033E+03  3.79924E+04  3.49416E+04
 -5.31428E+03  4.10704E+04 -3.25974E+04  1.96917E+04 -3.46558E+04 -3.55645E+03 -2.01480E+04 -1.23588E+04
 -1.02874E+04 -1.60013E+04 -3.19830E+01 -2.03273E+04  9.57918E+03 -2.36245E+04  1.63177E+04 -1.21474E+04
  9.94063E+03  6.77365E+03 -1.15545E+04  1.27928E+04 -2.48826E+04 -7.16998E+03 -8.74725E+03 -3.87195E+04
  2.58553E+04 -4.83456E+04  5.34131E+04 -2.12981E+04  4.98690E+04  2.17057E+04  1.78072E+04  4.83985E+04
 -1.70922E+04  3.73026E+04 -2.82477E+04  2.78245E+03 -1.27211E+04 -3.00750E+04  2.12274E+04 -3.81568E+04
  4.62119E+04 -1.19481E+04  4.25778E+04  2.50687E+04  2.31627E+04  5.31476E+04 -8.31888E+03  5.83089E+04
 -3.68829E+04  4.06618E+04 -4.96986E+04  1.11584E+04 -4.98477E+04 -1.91734E+04 -2.71685E+04 -4.38200E+04
  8.16649E+03 -4.38281E+04  3.52690E+04 -1.80753E+04  3.30006E+04  1.17831E+04  5.92686E+03  2.19100E+04
 -1.37822E+04  1.01600E+04 -1.13181E+04 -7.84918E+03  5.57946E+03 -1.13540E+04  1.92810E+04  5.21786E+03
  1.56636E+04  2.30636E+04 -4.61861E+03  2.79377E+04 -2.36148E+04  1.49894E+04 -3.28614E+04 -1.87888E+03
 -2.71197E+04 -1.88201E+04 -1.35082E+04 -2.65832E+04  5.34960E+03 -2.80592E+04  2.16546E+04 -2.50233E+04
  3.46740E+04 -1.50790E+04  4.02267E+04  5.47286E+03  2.79205E+04  2.59983E+04  4.59438E+03  4.33944E+04
 -2.07422E+04  3.53395E+04 -3.14096E+04  1.19726E+04 -2.32132E+04 -1.04024E+04 -5.14090E+03 -1.26237E+04
  4.57021E+02 -3.60134E+02 -8.59719E+03  9.19312E+03 -2.21255E+04  5.19151E+03 -2.19106E+04 -1.07172E+04
 -1.26774E+04 -2.53895E+04  6.72570E+03 -3.00527E+04  2.00648E+04 -2.17450E+04  2.45592E+04 -1.71392E+03
  1.60453E+04  1.75964E+04 -1.45209E+03  2.50315E+04 -1.82376E+04  1.46247E+04 -2.57949E+04 -5.21752E+03
 -1.86748E+04 -2.27846E+04 -2.84216E+03 -2.99229E+04  1.35487E+04 -2.53950E+04  2.48453E+04 -1.34317E+04
  2.40281E+04 -9.82611E+02  1.71600E+04  5.28784E+03  9.79096E+03  1.78928E+03  1.35005E+04 -2.13691E+03
  2.41349E+04  2.68887E+03  2.81839E+04  1.96623E+04  1.94446E+04  4.09816E+04 -2.43858E+03  4.88215E+04
 -2.76229E+04  4.11293E+04 -4.61806E+04  2.15268E+04 -5.00193E+04 -3.28218E+03 -4.03862E+04 -2.89942E+04
 -1.54744E+04 -4.14581E+04  1.49184E+04 -3.57492E+04  3.09249E+04 -1.69053E+04  2.64169E+04  9.31336E+03
  8.45440E+03  2.05194E+04 -1.23270E+04  1.69154E+04 -2.16368E+04  2.53347E+03 -1.62950E+04 -1.39596E+04
 -1.15393E+02 -2.09654E+04  1.17486E+04 -1.55003E+04  1.44953E+04 -1.58458E+03  4.70268E+03  1.00702E+04
 -1.01709E+04  4.72644E+03 -1.08536E+04 -7.33986E+03 -2.70097E+03 -2.01434E+04  1.29188E+04 -2.23298E+04
  2.53294E+04 -1.26620E+04  2.98840E+04  3.29546E+03  2.59628E+04  2.09737E+04  1.18553E+04  3.31119E+04
 -6.46805E+03  3.50913E+04 -2.31884E+04  2.19747E+04 -2.59775E+04  4.26673E+03 -1.76324E+04 -7.14552E+03
 -6.82870E+03 -8.22295E+03 -4.70931E+02  6.52321E+02 -2.73858E+03  4.11620E+03 -8.47300E+03  6.32067E+03
 -1.57789E+04 -9.13015E+02 -1.64312E+04 -1.34073E+04 -6.42980E+03 -2.16487E+04  7.43936E+03 -1.73282E+04
  1.45037E+04 -7.13347E+03  1.02729E+04  4.70277E+03 -6.44983E+02  7.11594E+03 -9.26066E+03 -2.72986E+02
 -8.66087E+03 -1.13344E+04 -1.72573E+03 -1.76255E+04  1.10936E+04 -1.87121E+04  2.33919E+04 -1.01682E+04
  2.74646E+04  2.99185E+03  1.97750E+04  1.65183E+04  3.72331E+03  2.21256E+04 -1.11481E+04  1.79646E+04
 -1.44427E+04  5.18200E+03 -7.63419E+03 -4.32437E+03  2.34551E+03 -5.38709E+03  9.38769E+03 -7.67458E+02
  8.05509E+03  8.35385E+03  1.37746E+03  1.47313E+04 -1.03500E+04  1.39207E+04 -1.77720E+04  3.17104E+03
 -1.24831E+04 -9.91670E+03 -4.32329E+01 -1.53453E+04  1.05856E+04 -7.90447E+03  1.13519E+04  3.95136E+03
  2.65884E+03  1.19073E+04 -9.16886E+03  1.36063E+04 -1.65214E+04  5.90388E+03 -1.68472E+04 -5.90491E+03
 -9.78216E+03 -1.91488E+04  4.70140E+03 -2.22797E+04  1.81320E+04 -1.28474E+04  2.03973E+04  3.35884E+03
  1.20546E+04  1.53712E+04 -1.79219E+03  1.87443E+04 -1.37822E+04  1.01154E+04 -1.51984E+04 -1.68081E+03
 -1.19671E+04 -1.21113E+04 -1.74125E+03 -1.43318E+04  7.73729E+03 -1.12189E+04  9.33997E+03 -4.14816E+03
  5.65711E+03  2.93420E+03 -1.68897E+03  1.96185E+03 -1.44509E+03 -4.60646E+03  3.34902E+03 -9.66004E+03
  1.41157E+04 -6.05680E+03  1.94281E+04  2.68958E+03  1.87002E+04  1.32860E+04  1.17786E+04  2.55956E+04
 -5.91191E+03  2.84790E+04 -2.39168E+04  2.10046E+04 -3.09942E+04  4.04683E+03 -2.53338E+04 -1.13248E+04
 -1.25788E+04 -2.01157E+04 -4.58816E+02 -1.78284E+04  6.30505E+03 -1.03954E+04  6.13249E+03 -6.27180E+03
  4.52510E+03 -3.85632E+03  4.49526E+03 -4.14656E+03  6.69110E+03 -4.16672E+03  9.65980E+03 -1.80045E+03
  1.29482E+04  3.17143E+03  7.53252E+03  1.15447E+04 -3.05147E+03  1.38367E+04 -1.39780E+04  1.06039E+04
 -1.78053E+04 -1.14127E+03 -1.19227E+04 -1.27528E+04 -2.04567E+03 -1.97752E+04  1.10029E+04 -1.95083E+04
  2.05208E+04 -1.06156E+04  2.36608E+04  4.03999E+03  1.63909E+04  1.73425E+04  2.38617E+03  2.22669E+04
 -9.26968E+03  1.72784E+04 -1.24862E+04  5.78682E+03 -8.92603E+03 -1.79734E+03 -4.13755E+03 -3.07223E+03
 -1.65144E+03 -1.66843E+02 -2.93960E+03  2.83650E+03 -7.83980E+03  3.09981E+03 -1.24810E+04 -1.77558E+03
 -9.34411E+03 -1.22425E+04 -8.55443E+02 -1.79255E+04  1.14905E+04 -1.70531E+04  1.87336E+04 -5.52797E+03
  1.79992E+04  9.27660E+03  8.03070E+03  1.71541E+04 -3.75236E+03  1.90013E+04 -1.38164E+04  1.14996E+04
 -1.73396E+04  6.46015E+01 -1.33721E+04 -1.17773E+04 -1.59459E+03 -1.58276E+04  8.09089E+03 -1.18344E+04
  1.20014E+04 -3.05309E+03  8.18110E+03  3.71572E+03  3.15005E+03  5.21662E+03  1.32556E+03  2.63849E+03
  3.37292E+03  1.81144E+03  4.17100E+03  2.15029E+03  5.99825E+03  6.33647E+03  4.40464E+03  1.07173E+04
 -3.85769E+03  1.51394E+04 -1.33921E+04  1.42626E+04 -2.00277E+04  3.64332E+03 -2.04735E+04 -8.61493E+03
 -9.49267E+03 -1.91962E+04  2.68226E+03 -2.12331E+04  1.24776E+04 -1.35863E+04  1.60653E+04 -3.66648E+03
  1.23659E+04  6.82758E+03  2.57208E+03  1.09430E+04 -5.63382E+03  7.08255E+03 -8.23728E+03 -1.25289E+03
 -3.94196E+03 -8.45428E+03  4.26547E+03 -8.73922E+03  8.17605E+03 -4.31258E+03  7.99629E+03  1.91224E+03
  4.43934E+03  3.88366E+03  1.82264E+03  3.52325E+03 -4.21148E+02  2.28462E+03  1.56437E+03 -7.41708E+02
  3.01450E+03 -1.30279E+03  7.59569E+03  3.23868E+03  4.46207E+03  1.00511E+04 -2.26696E+03  1.36491E+04
 -9.61396E+03  9.77061E+03 -1.28426E+04  2.36294E+03 -1.13243E+04 -4.10323E+03 -4.87960E+03 -7.74246E+03
  5.62423E+02 -8.17685E+03  5.22919E+03 -3.31964E+03  4.22570E+03  3.30771E+03 -1.61201E+03  6.84920E+03
 -8.52070E+03  4.44930E+03 -1.01744E+04 -4.70104E+03 -5.31345E+03 -1.14541E+04  1.64405E+03 -1.11715E+04
  7.05727E+03 -6.67406E+03  8.46626E+03 -7.29551E+02  6.16515E+03  3.48668E+03  7.81233E+02  5.71883E+03
 -4.18528E+03  1.95554E+03 -5.13799E+03 -4.21542E+03  2.26983E+03 -8.93665E+03  9.55471E+03 -7.03402E+03
  1.33624E+04  9.65121E+02  1.19951E+04  9.03047E+03  3.57436E+03  1.39607E+04 -4.90230E+03  1.33226E+04
 -1.15650E+04  5.41960E+03 -1.19358E+04 -2.23775E+03 -6.33920E+03 -8.99272E+03  1.80559E+03 -8.55177E+03
  8.45020E+03 -3.95062E+03  7.93174E+03  3.73812E+03  2.28678E+03  7.70790E+03 -1.35502E+03  6.30644E+03
 -3.99666E+03  4.15309E+03 -3.41502E+03  1.69637E+03 -2.11313E+03  1.32677E+03 -1.87231E+03  2.81892E+03
 -3.78389E+03  5.45239E+03 -9.34901E+03  5.06207E+03 -1.40142E+04  7.36689E+01 -1.53284E+04 -9.19511E+03
 -8.08431E+03 -1.81072E+04  3.97263E+03 -2.19341E+04  1.33843E+04 -1.60161E+04  1.98690E+04 -5.43676E+03
  1.89531E+04  4.27564E+03  1.18467E+04  1.28993E+04  1.60829E+03  1.46501E+04 -5.99093E+03  1.09913E+04
 -8.29362E+03  4.11191E+03 -6.12975E+03 -1.48507E+03 -1.94438E+03 -1.33206E+03 -3.76389E+02 -2.14441E+02
 -2.29516E+03  2.06475E+02 -2.70302E+03 -2.28922E+02 -1.49493E+03 -3.50475E+03  6.05659E+02 -5.59600E+03
  6.02540E+03 -4.65623E+03  9.60258E+03  2.87166E+02  1.01397E+04  8.52386E+03  3.19305E+03  1.53939E+04
 -6.86485E+03  1.69367E+04 -1.56772E+04  9.83979E+03 -1.85174E+04 -1.20636E+03 -1.40067E+04 -1.12708E+04
 -5.29390E+03 -1.55460E+04  3.81208E+03 -1.36720E+04  9.37324E+03 -7.59974E+03  1.02243E+04  5.63481E+02
  5.53481E+03  5.07039E+03 -3.55384E+02  4.71159E+03 -2.80914E+03 -6.98209E+02  1.42457E+02 -3.52902E+03
  4.93449E+03 -2.73522E+03  6.43678E+03  1.61650E+03  4.60852E+03  5.97823E+03 -7.14272E+02  8.54229E+03
 -6.72323E+03  6.85013E+03 -1.06852E+04  5.16806E+02 -9.29044E+03 -7.72831E+03 -1.39161E+03 -1.27018E+04
  7.08355E+03 -1.07226E+04  1.21202E+04 -3.45147E+03  1.23109E+04  3.43559E+03  6.84338E+03  9.65429E+03
  7.79739E+02  1.06273E+04 -3.79190E+03  8.24958E+03 -6.61416E+03  4.19559E+03 -5.26391E+03  6.38143E+02
 -2.87586E+03 -1.22672E+02 -2.86163E+03  1.20049E+03 -5.02014E+03  1.70043E+03 -7.97060E+03 -2.05903E+03
 -7.41187E+03 -6.42977E+03 -2.57324E+03 -1.03632E+04  4.27302E+03 -1.06029E+04  9.20422E+03 -4.80222E+03
  1.00803E+04  9.32442E+02  5.88499E+03  7.74204E+03 -6.81689E+02  1.04429E+04 -8.06897E+03  6.56674E+03
