 $NMID ID='MM_0lb_SNR800_15hz_g50_20.RAW', FMTDAT='(8E13.5)'
 TRAMP=1., VOLUME=1. $END
  3.09909E+05  1.58734E+02  3.37418E+05  2.50710E+05  8.50101E+04  3.37940E+05 -1.32472E+05  2.50989E+05
 -1.90034E+05  8.30696E+04 -1.11753E+05 -3.25792E+04  1.15438E+03 -5.01880E+04  5.39407E+04 -2.09988E+02
  3.53132E+04  5.26986E+04 -1.68231E+04  7.52352E+04 -6.04800E+04  6.34593E+04 -8.39532E+04  3.18605E+04
 -8.09300E+04 -1.11959E+04 -5.70573E+04 -5.11621E+04 -1.51132E+04 -6.92501E+04  2.74178E+04 -4.53208E+04
  3.97242E+04  3.76587E+03  1.59628E+04  4.77498E+04 -3.43591E+04  4.71720E+04 -6.64777E+04 -4.35641E+02
 -5.32390E+04 -5.67747E+04 -6.94936E+03 -7.68012E+04  3.36389E+04 -5.46898E+04  4.75997E+04 -1.68504E+04
  4.29766E+04  1.14199E+04  3.13872E+04  2.51529E+04  1.56779E+04  2.91418E+04 -4.94166E+03  2.70841E+04
 -2.16743E+04  1.26241E+04 -1.89356E+04 -4.92438E+03  5.75098E+03 -7.67983E+03  2.22169E+04  1.21776E+04
  7.31375E+03  3.50779E+04 -3.17523E+04  3.53364E+04 -6.28350E+04  2.21210E+03 -5.67829E+04 -4.27296E+04
 -1.26117E+04 -6.26746E+04  3.96057E+04 -4.50183E+04  5.78277E+04 -2.33361E+03  3.39610E+04  3.21069E+04
 -6.03601E+03  3.57033E+04 -2.95633E+04  1.54577E+04 -2.99971E+04 -4.57937E+03 -1.64448E+04 -1.13205E+04
 -8.11947E+03 -1.31545E+04 -6.04999E+02 -1.76479E+04  7.55312E+03 -2.31403E+04  1.53140E+04 -1.35928E+04
  1.16614E+04  4.66395E+03 -7.99202E+03  1.28036E+04 -2.06682E+04 -4.02176E+03 -8.43352E+03 -3.27600E+04
  2.22412E+04 -4.31339E+04  4.75501E+04 -1.93536E+04  4.48099E+04  1.92527E+04  1.52696E+04  4.39463E+04
 -1.56404E+04  3.30702E+04 -2.49539E+04  1.66127E+03 -9.72880E+03 -2.75492E+04  2.11495E+04 -3.33693E+04
  4.08399E+04 -8.80316E+03  3.50532E+04  2.32257E+04  1.78483E+04  4.54360E+04 -7.68031E+03  4.92466E+04
 -3.10998E+04  3.31459E+04 -4.12598E+04  9.23418E+03 -4.18579E+04 -1.64678E+04 -2.30353E+04 -3.72910E+04
  7.26683E+03 -3.69321E+04  3.11904E+04 -1.42871E+04  2.86608E+04  1.12687E+04  3.71590E+03  1.89744E+04
 -1.30573E+04  8.39112E+03 -9.98948E+03 -7.59337E+03  5.97110E+03 -1.04577E+04  1.79404E+04  6.21014E+03
  1.34989E+04  2.22465E+04 -5.87992E+03  2.43146E+04 -2.21724E+04  1.09109E+04 -2.77638E+04 -4.80427E+03
 -1.99777E+04 -1.71949E+04 -7.69928E+03 -1.98642E+04  4.07545E+03 -1.88059E+04  1.51198E+04 -1.74112E+04
  2.51242E+04 -1.27953E+04  3.16415E+04  2.50089E+03  2.33286E+04  1.93011E+04  4.15348E+03  3.55790E+04
 -1.74026E+04  2.98262E+04 -2.75009E+04  1.03825E+04 -2.06120E+04 -9.91008E+03 -3.92505E+03 -1.36051E+04
  1.79542E+03 -3.21218E+03 -4.15358E+03  6.36244E+03 -1.56628E+04  5.12477E+03 -1.60411E+04 -6.59542E+03
 -9.69495E+03 -1.82556E+04  4.98741E+03 -2.22429E+04  1.47542E+04 -1.59781E+04  1.75784E+04 -1.71269E+03
  1.09642E+04  1.24825E+04 -1.00702E+03  1.82191E+04 -1.27958E+04  1.07170E+04 -1.83010E+04 -3.83730E+03
 -1.37737E+04 -1.65526E+04 -1.40431E+03 -2.19751E+04  1.05917E+04 -1.83182E+04  1.86285E+04 -8.48679E+03
  1.72674E+04  4.62550E+02  1.22928E+04  4.32769E+03  6.25058E+03  1.05944E+03  9.23732E+03 -1.45522E+03
  1.67970E+04  2.86116E+03  1.86431E+04  1.45929E+04  1.19693E+04  2.92555E+04 -2.72512E+03  3.28349E+04
 -1.88899E+04  2.62350E+04 -3.04032E+04  1.27784E+04 -3.17423E+04 -2.23155E+03 -2.64010E+04 -1.82156E+04
 -1.15534E+04 -2.60665E+04  8.94389E+03 -2.35701E+04  2.04296E+04 -1.22967E+04  1.86672E+04  5.10041E+03
  7.02646E+03  1.34519E+04 -8.24346E+03  1.19940E+04 -1.53924E+04  2.68687E+03 -1.19744E+04 -9.79299E+03
 -2.67752E+02 -1.47734E+04  7.59617E+03 -1.12146E+04  1.01033E+04 -9.75950E+02  2.23205E+03  6.22796E+03
 -6.45589E+03  2.38708E+03 -5.46177E+03 -5.49985E+03  1.36404E+02 -1.26136E+04  9.26444E+03 -1.32163E+04
  1.59232E+04 -6.60576E+03  1.68164E+04  3.00188E+03  1.45504E+04  1.23444E+04  6.98064E+03  1.89173E+04
 -2.69841E+03  2.06795E+04 -1.30863E+04  1.35577E+04 -1.48875E+04  3.20029E+03 -1.07653E+04 -3.49642E+03
 -5.12690E+03 -4.55307E+03 -6.11052E+02  1.04357E+03 -2.42255E+03  2.48373E+03 -4.85764E+03  4.34990E+03
 -1.02045E+04 -8.00822E+02 -1.08706E+04 -8.98241E+03 -4.32486E+03 -1.38649E+04  4.58618E+03 -1.09556E+04
  8.91646E+03 -4.75655E+03  6.60104E+03  2.89554E+03  2.54087E+02  4.21469E+03 -4.66885E+03  8.51354E+01
 -4.78225E+03 -6.54332E+03 -3.58147E+02 -9.50851E+03  5.50170E+03 -1.05216E+04  1.28713E+04 -5.44792E+03
  1.53150E+04  1.20463E+03  1.13908E+04  8.87445E+03  2.04749E+03  1.17331E+04 -6.40296E+03  1.07014E+04
 -8.90880E+03  3.25014E+03 -4.34134E+03 -1.43164E+03  1.75413E+03 -2.57697E+03  6.08956E+03 -7.73022E+02
  5.42913E+03  4.85477E+03  1.27969E+03  8.46243E+03 -5.98970E+03  8.20203E+03 -1.03764E+04  1.91772E+03
 -6.69988E+03 -5.03449E+03  1.19026E+02 -8.82310E+03  5.48670E+03 -4.55854E+03  5.44884E+03  1.51418E+03
  8.06498E+02  5.09565E+03 -5.30620E+03  6.72549E+03 -7.40279E+03  3.25591E+03 -7.30474E+03 -2.43064E+03
 -4.43468E+03 -8.90817E+03  1.76347E+03 -1.04223E+04  8.56432E+03 -6.83945E+03  9.77560E+03  1.56537E+03
  6.47230E+03  7.74601E+03 -3.11390E+02  9.75275E+03 -6.74928E+03  5.53603E+03 -7.44130E+03 -8.52188E+02
 -7.30249E+03 -6.75929E+03 -1.50716E+03 -7.13348E+03  3.75442E+03 -5.97402E+03  4.12888E+03 -2.95868E+03
  3.55716E+03  9.72497E+02 -3.77175E+02  1.37138E+03  6.75988E+01 -1.32445E+03  4.95893E+02 -3.63867E+03
  6.24049E+03 -1.89566E+03  8.46829E+03  1.18751E+03  8.28588E+03  5.46962E+03  6.44583E+03  1.11637E+04
 -2.07337E+03  1.26322E+04 -1.13140E+04  9.48376E+03 -1.46151E+04  2.06134E+03 -1.17879E+04 -4.38914E+03
 -5.84956E+03 -9.52356E+03 -5.05276E+02 -7.96254E+03  2.80342E+03 -3.99366E+03  2.82160E+03 -2.58653E+03
  1.91364E+03 -1.96766E+03  2.45533E+03 -2.80638E+03  3.99290E+03 -1.83574E+03  4.59230E+03 -1.69088E+01
  5.99997E+03  1.46262E+03  2.58364E+03  5.02410E+03 -1.66011E+03  5.15948E+03 -6.51402E+03  4.30358E+03
 -7.79360E+03 -1.20002E+03 -3.88176E+03 -5.45644E+03 -1.20903E+02 -7.92502E+03  4.93084E+03 -8.44367E+03
  8.36403E+03 -4.62610E+03  1.01192E+04  6.42255E+02  7.23433E+03  6.96596E+03  1.60199E+03  9.17102E+03
 -3.51208E+03  8.35639E+03 -5.38699E+03  2.46945E+03 -3.03852E+03 -1.41055E+03 -9.77992E+02 -8.70045E+02
 -8.09634E+02  5.47305E+02 -1.34508E+03  2.23595E+03 -3.35794E+03  1.41876E+03 -5.70144E+03 -5.15793E+02
 -3.12769E+03 -5.32708E+03  5.62590E+02 -7.11136E+03  4.27116E+03 -7.04499E+03  6.30704E+03 -2.10080E+03
  6.88530E+03  3.94106E+03  3.31219E+03  5.77213E+03 -1.58267E+03  7.24807E+03 -4.56814E+03  4.31738E+03
 -6.15928E+03  7.31627E+02 -5.28365E+03 -4.20713E+03 -4.85513E+02 -5.46476E+03  2.98828E+03 -4.30616E+03
  4.54461E+03 -1.76740E+03  3.13527E+03  1.06861E+03  1.14120E+03  2.38112E+03  8.87998E+02  7.91307E+02
  2.01610E+03  4.96960E+02  1.97753E+03  1.25978E+03  1.92261E+03  2.71615E+03  2.14959E+03  3.02610E+03
 -1.75025E+03  5.18777E+03 -4.42097E+03  5.86675E+03 -5.76768E+03  1.84786E+03 -6.73543E+03 -1.90258E+03
 -3.02171E+03 -6.42575E+03  1.04116E+03 -7.35280E+03  3.79259E+03 -4.33990E+03  5.10296E+03 -1.55241E+03
  4.09200E+03  2.34221E+03  4.81645E+02  3.87683E+03 -1.35365E+03  2.24344E+03 -2.49873E+03 -1.80670E+02
 -1.01153E+03 -2.66414E+03  2.00708E+03 -2.72897E+03  2.57741E+03 -1.69320E+03  2.24541E+03  6.09503E+02
  1.52458E+03  1.17993E+03  1.06079E+03  4.81176E+02 -2.56767E+02  8.55082E+02  1.54213E+03 -3.60767E+02
  6.95812E+02 -4.82047E+02  2.67948E+03  1.16785E+03  9.80823E+02  3.74950E+03 -4.12115E+02  4.71437E+03
 -3.09551E+03  2.25757E+03 -3.98076E+03  7.62755E+02 -3.42432E+03 -1.51588E+03 -8.97411E+02 -2.35597E+03
  4.40416E+02 -2.35324E+03  1.61358E+03 -1.19880E+03  1.29810E+03  1.79279E+03 -6.03582E+02  2.24610E+03
 -2.39381E+03  1.05176E+03 -2.58254E+03 -2.12663E+03 -1.38403E+03 -3.22879E+03  1.93587E+02 -3.13679E+03
  1.77763E+03 -1.58305E+03  1.96593E+03  4.32015E+01  2.33661E+03  4.51791E+02  5.19825E+02  1.63194E+03
 -8.24942E+02  3.81112E+02 -1.50611E+03 -7.67562E+02  6.36320E+02 -1.98274E+03  2.84665E+03 -1.78100E+03
  2.89947E+03  1.83482E+02  4.09002E+03  1.66842E+03  1.50289E+03  3.84595E+03 -1.21990E+03  3.36903E+03
 -2.83658E+03  1.20044E+03 -3.28047E+03 -8.39162E+02 -1.39707E+03 -2.22158E+03  3.64379E+02 -1.61567E+03
  2.49043E+03 -1.20977E+03  1.70749E+03  9.76646E+02  6.15365E+02  2.02295E+03  6.08935E+01  1.75528E+03
 -7.15386E+02  1.35311E+03 -6.36771E+02  5.26864E+02 -1.96120E+02  7.26877E+02 -8.92312E+02  6.99480E+02
 -1.01580E+03  1.68426E+03 -2.83162E+03  9.92740E+02 -3.40366E+03  1.86819E+02 -4.20883E+03 -2.16268E+03
 -2.00597E+03 -4.79813E+03  1.03623E+03 -5.44495E+03  2.89013E+03 -4.35638E+03  5.42947E+03 -1.64870E+03
  4.56773E+03  6.57290E+02  2.70745E+03  3.35373E+03 -3.13266E+02  3.31061E+03 -1.39302E+03  2.40344E+03
 -1.97143E+03  1.04468E+03 -1.24904E+03 -4.50005E+02 -5.99470E+02  1.58306E+02 -7.55698E+02  2.43475E+02
 -1.00136E+03 -3.13584E+02 -1.15291E+03  2.06213E+02 -2.20391E+01 -8.48484E+02 -4.95763E+02 -1.40997E+03
  1.96739E+03 -1.09781E+03  1.65165E+03  2.79334E+02  2.47074E+03  1.65528E+03  2.71954E+02  3.12623E+03
 -1.53656E+03  3.74530E+03 -3.37568E+03  2.36820E+03 -3.63072E+03 -3.89420E+02 -2.99967E+03 -2.67206E+03
 -1.70405E+03 -3.06493E+03  6.22241E+02 -2.87184E+03  1.73470E+03 -1.58363E+03  1.95745E+03  1.54268E+02
  1.21981E+03  1.07105E+03 -1.08656E+02  1.06054E+03 -6.02707E+02 -3.33877E+01 -1.61077E+02 -5.65677E+02
  8.27806E+02 -1.91476E+02  1.06673E+03  5.28674E+02  6.85827E+02  1.24568E+03  5.30231E+02  1.36007E+03
 -1.22972E+03  1.05336E+03 -1.33359E+03  2.64725E+02 -1.69116E+03 -1.07210E+03 -1.45780E+02 -2.66478E+03
  1.13212E+03 -2.19344E+03  1.86488E+03 -6.06656E+02  2.36760E+03 -9.97907E+01  1.45774E+03  1.69144E+03
  3.44647E+02  1.60626E+03 -7.37141E+02  1.61809E+03 -1.34642E+03  1.16018E+03 -8.31651E+02  5.81068E+02
 -4.56548E+02 -5.56678E+00 -9.74204E+02  4.17894E+02 -9.75865E+02  4.19964E+02 -1.51479E+03 -3.38246E+02
 -1.98455E+03 -4.28981E+02 -5.96409E+02 -1.98426E+03  9.87142E+02 -2.23747E+03  1.81021E+03 -8.24388E+02
  1.50062E+03  3.82576E+02  3.26135E+02  1.43591E+03 -1.21492E+02  1.72028E+03 -1.36842E+03  1.85065E+03
