 $NMID ID='MM_0lb_SNR800_15hz_g40_60.RAW', FMTDAT='(8E13.5)'
 TRAMP=1., VOLUME=1. $END
  3.10004E+05  2.67452E+02  3.37393E+05  2.50392E+05  8.41687E+04  3.37760E+05 -1.32684E+05  2.50687E+05
 -1.89864E+05  8.27713E+04 -1.10995E+05 -3.27712E+04  1.19456E+03 -5.06392E+04  5.37038E+04 -5.19574E+01
  3.50570E+04  5.27017E+04 -1.69581E+04  7.52624E+04 -6.05387E+04  6.33247E+04 -8.34891E+04  3.18171E+04
 -8.05383E+04 -1.13326E+04 -5.67047E+04 -5.07342E+04 -1.47791E+04 -6.90485E+04  2.72152E+04 -4.51358E+04
  3.96144E+04  3.95668E+03  1.58791E+04  4.76930E+04 -3.40558E+04  4.65367E+04 -6.59206E+04 -3.99495E+02
 -5.26929E+04 -5.63038E+04 -6.69961E+03 -7.65146E+04  3.34337E+04 -5.41584E+04  4.72490E+04 -1.69413E+04
  4.23937E+04  1.12072E+04  3.14541E+04  2.51100E+04  1.60169E+04  2.89816E+04 -5.09068E+03  2.70332E+04
 -2.17679E+04  1.24905E+04 -1.86675E+04 -4.68152E+03  4.95352E+03 -7.59858E+03  2.17788E+04  1.14340E+04
  7.30529E+03  3.41858E+04 -3.13255E+04  3.46843E+04 -6.24438E+04  2.31084E+03 -5.59499E+04 -4.22796E+04
 -1.25665E+04 -6.22458E+04  3.89493E+04 -4.43830E+04  5.70835E+04 -2.12994E+03  3.33530E+04  3.16118E+04
 -6.43825E+03  3.45550E+04 -2.92113E+04  1.47464E+04 -2.90396E+04 -5.03738E+03 -1.60068E+04 -1.05513E+04
 -8.15182E+03 -1.21138E+04 -5.59676E+02 -1.72589E+04  7.05151E+03 -2.26372E+04  1.51081E+04 -1.35736E+04
  1.18867E+04  4.59452E+03 -7.51815E+03  1.29505E+04 -2.01717E+04 -3.21956E+03 -8.18584E+03 -3.23724E+04
  2.18725E+04 -4.22085E+04  4.65133E+04 -1.91223E+04  4.36973E+04  1.88775E+04  1.53247E+04  4.30605E+04
 -1.56836E+04  3.22381E+04 -2.46155E+04  1.54058E+03 -8.95538E+03 -2.74515E+04  2.10808E+04 -3.25151E+04
  3.98796E+04 -8.35779E+03  3.38593E+04  2.34289E+04  1.69119E+04  4.44585E+04 -7.75727E+03  4.78691E+04
 -3.02246E+04  3.19785E+04 -3.98713E+04  9.00637E+03 -4.03922E+04 -1.59219E+04 -2.25692E+04 -3.62894E+04
  7.07728E+03 -3.62281E+04  3.02891E+04 -1.39824E+04  2.84378E+04  1.07190E+04  3.35780E+03  1.86917E+04
 -1.29150E+04  7.78811E+03 -1.00927E+04 -7.71583E+03  5.97440E+03 -1.02487E+04  1.74776E+04  5.63042E+03
  1.28389E+04  2.19647E+04 -6.02422E+03  2.42182E+04 -2.18993E+04  1.06633E+04 -2.69593E+04 -5.23755E+03
 -1.88947E+04 -1.70477E+04 -7.12929E+03 -1.88180E+04  3.73314E+03 -1.74400E+04  1.40786E+04 -1.69266E+04
  2.37411E+04 -1.20626E+04  3.02775E+04  2.33534E+03  2.26317E+04  1.83068E+04  4.27749E+03  3.46801E+04
 -1.68993E+04  2.91739E+04 -2.68073E+04  1.01240E+04 -2.00876E+04 -1.04394E+04 -4.15315E+03 -1.33886E+04
  1.98850E+03 -3.60606E+03 -3.94553E+03  6.05315E+03 -1.48295E+04  5.21712E+03 -1.47528E+04 -6.23586E+03
 -9.52135E+03 -1.75476E+04  4.88508E+03 -2.14892E+04  1.42833E+04 -1.52537E+04  1.65810E+04 -1.55261E+03
  1.02080E+04  1.21087E+04 -8.34893E+02  1.76439E+04 -1.17810E+04  1.00801E+04 -1.73242E+04 -3.93444E+03
 -1.28182E+04 -1.57738E+04 -1.56901E+03 -2.15791E+04  9.61146E+03 -1.74745E+04  1.76422E+04 -8.54678E+03
  1.63671E+04  5.97373E+02  1.18486E+04  4.24448E+03  5.99348E+03  7.48411E+02  8.77395E+03 -1.73695E+03
  1.60457E+04  3.12761E+03  1.73701E+04  1.40178E+04  1.13474E+04  2.79984E+04 -2.95928E+03  3.07221E+04
 -1.81695E+04  2.42735E+04 -2.86615E+04  1.21301E+04 -2.94880E+04 -2.26849E+03 -2.48649E+04 -1.71631E+04
 -1.13735E+04 -2.44917E+04  8.40221E+03 -2.22734E+04  1.97032E+04 -1.20787E+04  1.79526E+04  4.61525E+03
  6.81259E+03  1.28500E+04 -7.94131E+03  1.19480E+04 -1.51852E+04  2.53872E+03 -1.14668E+04 -9.38559E+03
 -6.60901E+01 -1.39843E+04  7.17404E+03 -1.07505E+04  8.82742E+03 -1.42399E+03  1.77369E+03  5.55498E+03
 -6.40584E+03  2.17106E+03 -5.18375E+03 -5.04491E+03 -1.16259E+00 -1.21977E+04  9.02972E+03 -1.25026E+04
  1.48982E+04 -6.22377E+03  1.55887E+04  2.65351E+03  1.33219E+04  1.16327E+04  6.25033E+03  1.76066E+04
 -2.88658E+03  1.95470E+04 -1.21118E+04  1.21998E+04 -1.40781E+04  3.08855E+03 -1.02930E+04 -2.95581E+03
 -4.83137E+03 -4.42258E+03 -8.26272E+02  1.09355E+03 -2.29738E+03  2.39679E+03 -4.68356E+03  3.91249E+03
 -9.41446E+03 -4.88165E+02 -1.02346E+04 -8.40755E+03 -4.22302E+03 -1.33647E+04  4.42996E+03 -1.00902E+04
  8.52205E+03 -4.68766E+03  5.89161E+03  2.61050E+03  3.83082E+02  4.11887E+03 -4.28820E+03 -1.33720E+02
 -4.05487E+03 -6.56761E+03 -9.12084E+02 -9.29245E+03  5.08503E+03 -9.77850E+03  1.25054E+04 -5.07628E+03
  1.46158E+04  9.61781E+02  1.06488E+04  8.06266E+03  2.30359E+03  1.11520E+04 -6.14578E+03  1.00540E+04
 -7.95689E+03  3.10749E+03 -4.23418E+03 -1.90817E+03  1.63707E+03 -2.47155E+03  5.59641E+03 -7.77612E+02
  4.85884E+03  3.97522E+03  8.88793E+02  7.95228E+03 -5.44594E+03  7.64261E+03 -9.68937E+03  2.34334E+03
 -6.34496E+03 -5.01486E+03  3.78538E+02 -8.23123E+03  5.02372E+03 -4.13074E+03  4.72713E+03  1.40614E+03
  6.98517E+02  4.68384E+03 -4.77418E+03  6.23716E+03 -7.12654E+03  3.18229E+03 -6.72406E+03 -1.96466E+03
 -4.16462E+03 -8.04988E+03  1.57089E+03 -9.50209E+03  8.17696E+03 -5.85137E+03  9.01785E+03  1.51584E+03
  6.02814E+03  7.00819E+03 -3.45188E+01  9.40583E+03 -6.48297E+03  4.88318E+03 -7.05224E+03 -5.22320E+02
 -6.67530E+03 -6.09736E+03 -1.34258E+03 -6.58260E+03  3.34179E+03 -5.72704E+03  3.89187E+03 -2.99208E+03
  3.39396E+03  8.94751E+02 -7.38045E+01  1.47308E+03  3.12539E+02 -9.17658E+02  4.28558E+02 -2.98621E+03
  5.48835E+03 -1.73701E+03  7.81152E+03  5.68575E+02  8.00034E+03  5.00957E+03  6.13661E+03  1.01340E+04
 -2.23255E+03  1.21774E+04 -1.03374E+04  8.90025E+03 -1.33161E+04  1.73863E+03 -1.08275E+04 -4.01744E+03
 -5.38311E+03 -8.89813E+03 -6.10805E+02 -7.05569E+03  2.61965E+03 -3.84651E+03  2.75993E+03 -2.88343E+03
  1.98120E+03 -1.71021E+03  2.47881E+03 -2.71860E+03  3.88629E+03 -2.22246E+03  4.48926E+03 -3.39920E+02
  5.96224E+03  1.64839E+03  2.24400E+03  4.70343E+03 -1.87084E+03  4.68443E+03 -5.94415E+03  3.70956E+03
 -6.94559E+03 -1.03326E+03 -3.68496E+03 -4.82468E+03  6.85096E+01 -7.53842E+03  4.13379E+03 -7.84066E+03
  7.79136E+03 -4.19968E+03  9.30726E+03  7.38859E+02  6.58130E+03  6.39892E+03  1.39836E+03  8.51407E+03
 -3.10742E+03  7.81627E+03 -5.04510E+03  2.44375E+03 -3.20465E+03 -1.01203E+03 -1.27124E+03 -1.15643E+03
 -5.20573E+02  1.76243E+02 -1.37046E+03  2.00093E+03 -3.22946E+03  1.35256E+03 -5.37099E+03 -1.00219E+03
 -2.73573E+03 -5.17336E+03  5.00423E+02 -6.88365E+03  4.22808E+03 -6.32899E+03  6.35769E+03 -1.77436E+03
  6.37483E+03  3.62718E+03  2.92653E+03  5.46416E+03 -1.27400E+03  6.62580E+03 -4.36944E+03  3.82325E+03
 -5.93418E+03  6.29934E+02 -4.81030E+03 -4.10873E+03 -3.50847E+02 -5.28560E+03  2.69277E+03 -3.91311E+03
  4.10126E+03 -1.52333E+03  2.72167E+03  1.09610E+03  9.53318E+02  1.84682E+03  7.60216E+02  9.82143E+02
  1.78564E+03  5.28619E+02  1.89281E+03  1.14922E+03  1.68315E+03  2.78904E+03  1.95773E+03  3.02202E+03
 -1.61407E+03  4.56972E+03 -4.27584E+03  5.65252E+03 -5.73293E+03  1.44562E+03 -6.74501E+03 -1.66006E+03
 -2.73300E+03 -6.05264E+03  8.61544E+02 -7.24255E+03  3.83679E+03 -4.23321E+03  5.22431E+03 -1.41785E+03
  3.87039E+03  2.89979E+03  9.72024E+02  3.49597E+03 -1.38434E+03  2.11813E+03 -2.11250E+03 -2.52972E+02
 -1.10034E+03 -2.48286E+03  1.34608E+03 -2.57184E+03  2.44345E+03 -1.38466E+03  2.47594E+03  4.84537E+02
  1.28154E+03  9.44255E+02  7.91977E+02  4.36363E+02 -2.16416E+02  8.97604E+02  1.38938E+03 -3.85286E+02
  5.36577E+02 -2.89407E+02  2.77049E+03  1.15950E+03  6.55412E+02  3.39986E+03 -2.75870E+02  4.55233E+03
 -2.53168E+03  2.18226E+03 -3.70711E+03  5.49957E+02 -3.55799E+03 -1.30498E+03 -7.64964E+02 -1.78872E+03
  6.35635E+02 -2.16939E+03  1.38396E+03 -1.10184E+03  1.24220E+03  1.74971E+03 -8.96490E+02  1.76578E+03
 -2.60706E+03  1.13505E+03 -2.52583E+03 -1.95419E+03 -1.50693E+03 -3.26691E+03  4.56533E+02 -3.00768E+03
  1.64380E+03 -1.55849E+03  1.60100E+03 -6.88696E+01  1.93793E+03  2.69999E+02  4.09644E+02  1.87294E+03
 -9.22740E+02  3.76041E+02 -1.32687E+03 -4.80256E+02  7.64677E+02 -1.78240E+03  3.09043E+03 -1.62156E+03
  2.73272E+03  3.93446E+02  3.83198E+03  1.51062E+03  1.52126E+03  3.50631E+03 -8.94342E+02  3.32964E+03
 -2.79875E+03  1.14860E+03 -2.73775E+03 -3.88446E+02 -1.42468E+03 -2.38866E+03  2.60446E+02 -1.86503E+03
  2.03941E+03 -9.08665E+02  2.19383E+03  1.15123E+03  5.00165E+02  2.05713E+03  4.44806E+01  1.88379E+03
 -9.40531E+02  1.53321E+03 -6.76205E+02  1.50774E+02 -1.99801E+02  3.47891E+02 -1.13593E+03  8.84901E+02
 -9.37067E+02  1.43818E+03 -2.84927E+03  1.00624E+03 -3.61348E+03  1.15413E+02 -4.05440E+03 -2.19093E+03
 -1.92078E+03 -4.62720E+03  1.10554E+03 -5.27405E+03  2.86077E+03 -4.13166E+03  5.19104E+03 -1.67672E+03
  4.75318E+03  3.91559E+02  2.61516E+03  2.86830E+03 -3.11391E+02  3.08896E+03 -1.18618E+03  2.36945E+03
 -1.87054E+03  1.20975E+03 -8.49020E+02 -3.78130E+02 -7.18666E+02 -4.14871E+01 -6.91208E+02 -6.60380E+01
 -1.07533E+03 -2.70256E+02 -1.21767E+03  8.26144E+01  3.35160E+01 -7.08405E+02 -8.23345E+01 -1.29917E+03
  1.82653E+03 -1.02547E+03  1.32315E+03  2.10333E+02  2.39650E+03  1.65592E+03  2.18219E+02  3.20063E+03
 -1.60224E+03  4.06712E+03 -3.45179E+03  2.55106E+03 -3.64413E+03 -2.12512E+01 -2.63020E+03 -2.24897E+03
 -1.72275E+03 -3.28252E+03  8.02026E+02 -2.66996E+03  1.67668E+03 -1.46306E+03  1.53377E+03  1.17564E+01
  1.19276E+03  7.15252E+02  9.80774E+00  8.55074E+02 -4.71326E+02  1.10322E+02  1.46942E+02 -4.44124E+02
  1.30619E+03 -8.50188E+01  9.58037E+02  8.28928E+02  4.99572E+02  1.16062E+03  1.95543E+02  1.12932E+03
 -1.33745E+03  1.33570E+03 -1.65910E+03 -1.52367E+02 -1.73478E+03 -1.39128E+03 -1.69029E+02 -2.18593E+03
  1.41955E+03 -1.98024E+03  1.83823E+03 -2.49756E+02  2.24084E+03 -2.05514E+02  1.32267E+03  1.90523E+03
  6.09997E+02  1.77095E+03 -6.13105E+02  1.63843E+03 -1.34118E+03  1.05090E+03 -1.11240E+03  1.27589E+02
 -4.56463E+02 -1.88017E+02 -7.72858E+02  2.76646E+02 -1.21393E+03  1.63694E+02 -1.50506E+03 -7.49724E+02
 -1.40162E+03 -2.67571E+02 -7.17303E+02 -1.95260E+03  1.06763E+03 -2.42945E+03  1.61510E+03 -1.03538E+03
  1.67081E+03  2.26103E+02  5.34822E+02  1.08974E+03 -1.11838E+02  1.55572E+03 -1.04431E+03  1.21726E+03
