 $NMID ID='MM_0lb_SNR800_20hz_g50_92.RAW', FMTDAT='(8E13.5)'
 TRAMP=1., VOLUME=1. $END
  3.09518E+05  1.14754E+02  3.37085E+05  2.50394E+05  8.43574E+04  3.37497E+05 -1.32556E+05  2.50298E+05
 -1.89762E+05  8.24233E+04 -1.10841E+05 -3.27961E+04  1.81325E+03 -5.01862E+04  5.38604E+04  1.03904E+02
  3.50105E+04  5.26983E+04 -1.69004E+04  7.49146E+04 -6.03254E+04  6.29011E+04 -8.29919E+04  3.16768E+04
 -7.94870E+04 -1.10879E+04 -5.59622E+04 -4.98686E+04 -1.47566E+04 -6.77888E+04  2.67395E+04 -4.44819E+04
  3.91241E+04  3.96353E+03  1.53309E+04  4.68377E+04 -3.38057E+04  4.60551E+04 -6.51970E+04 -5.16321E+02
 -5.17737E+04 -5.56168E+04 -6.04617E+03 -7.48460E+04  3.28636E+04 -5.29518E+04  4.59574E+04 -1.60442E+04
  4.13208E+04  1.10095E+04  3.04453E+04  2.43437E+04  1.58792E+04  2.79714E+04 -4.42488E+03  2.66280E+04
 -2.15663E+04  1.28120E+04 -1.91052E+04 -4.18876E+03  3.73583E+03 -7.70198E+03  2.10707E+04  1.06408E+04
  7.82263E+03  3.28307E+04 -3.02458E+04  3.37433E+04 -6.10911E+04  2.19376E+03 -5.48526E+04 -4.13135E+04
 -1.22967E+04 -6.05271E+04  3.77689E+04 -4.32399E+04  5.50276E+04 -2.00718E+03  3.17676E+04  3.02677E+04
 -6.64743E+03  3.25009E+04 -2.81215E+04  1.30142E+04 -2.71173E+04 -5.62951E+03 -1.40139E+04 -9.87434E+03
 -7.21025E+03 -1.08432E+04 -1.10117E+03 -1.64617E+04  6.44173E+03 -2.26603E+04  1.52283E+04 -1.38041E+04
  1.25444E+04  4.24890E+03 -5.76554E+03  1.32150E+04 -1.90342E+04 -2.29813E+03 -7.95430E+03 -2.98033E+04
  2.03840E+04 -4.02702E+04  4.40438E+04 -1.83284E+04  4.17636E+04  1.79581E+04  1.38967E+04  4.12581E+04
 -1.49220E+04  3.05725E+04 -2.31957E+04  8.21866E+02 -7.91989E+03 -2.60320E+04  2.05431E+04 -3.06121E+04
  3.80039E+04 -7.09521E+03  3.06920E+04  2.26977E+04  1.48216E+04  4.17897E+04 -7.78929E+03  4.43758E+04
 -2.79285E+04  2.92999E+04 -3.64751E+04  8.24931E+03 -3.76218E+04 -1.48539E+04 -2.08512E+04 -3.40380E+04
  6.70320E+03 -3.34089E+04  2.87539E+04 -1.23159E+04  2.63401E+04  1.06698E+04  2.86231E+03  1.72400E+04
 -1.30298E+04  7.02659E+03 -9.33067E+03 -7.67101E+03  6.01953E+03 -9.81882E+03  1.72370E+04  6.53253E+03
  1.21137E+04  2.14754E+04 -6.77147E+03  2.28785E+04 -2.10519E+04  8.69903E+03 -2.43002E+04 -6.33997E+03
 -1.60494E+04 -1.60551E+04 -5.00726E+03 -1.58453E+04  3.69368E+03 -1.36828E+04  1.17874E+04 -1.36520E+04
  2.00622E+04 -1.13269E+04  2.72951E+04  5.97524E+02  2.06751E+04  1.57338E+04  3.86206E+03  3.16714E+04
 -1.56830E+04  2.70946E+04 -2.55323E+04  9.42895E+03 -1.94100E+04 -1.01537E+04 -3.79817E+03 -1.42444E+04
  2.49441E+03 -4.45683E+03 -2.12106E+03  4.99765E+03 -1.25102E+04  5.17087E+03 -1.25353E+04 -4.42701E+03
 -8.60126E+03 -1.46910E+04  4.30497E+03 -1.86211E+04  1.18238E+04 -1.33742E+04  1.38983E+04 -1.79376E+03
  8.61209E+03  1.03025E+04 -8.78204E+02  1.50443E+04 -9.68491E+03  8.20579E+03 -1.45698E+04 -3.33785E+03
 -1.12448E+04 -1.33593E+04 -1.30813E+03 -1.81780E+04  8.24567E+03 -1.48473E+04  1.56318E+04 -6.88886E+03
  1.39015E+04  7.52494E+02  1.03850E+04  3.91331E+03  4.87780E+03  4.12886E+02  7.29452E+03 -1.45513E+03
  1.31726E+04  2.78699E+03  1.39760E+04  1.22465E+04  8.33702E+03  2.36397E+04 -3.29400E+03  2.49400E+04
 -1.48036E+04  1.91068E+04 -2.28153E+04  9.06350E+03 -2.31633E+04 -1.84330E+03 -2.01171E+04 -1.29221E+04
 -9.82679E+03 -1.91187E+04  6.10587E+03 -1.79544E+04  1.56040E+04 -1.04212E+04  1.49756E+04  3.25720E+03
  6.57060E+03  1.05384E+04 -6.96504E+03  1.01858E+04 -1.26762E+04  2.82763E+03 -1.00045E+04 -7.34457E+03
  1.34068E+02 -1.19016E+04  5.92893E+03 -8.94089E+03  7.51891E+03 -1.22572E+03  1.04758E+03  4.47354E+03
 -5.37838E+03  9.12799E+02 -3.21740E+03 -4.36585E+03  9.15069E+02 -9.54750E+03  7.49379E+03 -9.29475E+03
  1.13291E+04 -4.17204E+03  1.06784E+04  2.61634E+03  9.35781E+03  8.64428E+03  4.49903E+03  1.25644E+04
 -1.37660E+03  1.46484E+04 -8.44779E+03  9.09669E+03 -1.03757E+04  2.82060E+03 -7.96127E+03 -1.92714E+03
 -4.32170E+03 -2.84342E+03 -5.87671E+02  1.42512E+03 -2.08518E+03  1.86038E+03 -3.51285E+03  3.42966E+03
 -7.29605E+03 -5.30287E+02 -8.32842E+03 -6.84721E+03 -3.38188E+03 -1.09445E+04  3.40169E+03 -7.77590E+03
  6.72697E+03 -3.43408E+03  4.92623E+03  2.09875E+03  7.16668E+02  2.68463E+03 -3.01440E+03  3.22482E+01
 -2.99517E+03 -4.74694E+03 -8.12514E+02 -6.49086E+03  3.50351E+03 -7.26666E+03  9.10957E+03 -3.67673E+03
  1.07640E+04  6.19175E+02  7.69184E+03  5.43787E+03  1.73178E+03  7.82812E+03 -4.87128E+03  7.60378E+03
 -6.51323E+03  2.56092E+03 -3.26993E+03 -9.05631E+02  1.18824E+03 -1.27283E+03  4.58162E+03 -7.63016E+02
  4.20940E+03  3.19972E+03  9.66054E+02  5.95990E+03 -3.90374E+03  5.69971E+03 -7.21318E+03  1.66468E+03
 -4.53730E+03 -3.37334E+03  3.82182E+02 -6.22949E+03  3.34844E+03 -2.92612E+03  2.89885E+03  8.84040E+02
  2.83050E+02  2.73837E+03 -3.80131E+03  4.23020E+03 -3.98624E+03  2.14243E+03 -3.59901E+03 -6.63476E+02
 -2.34281E+03 -5.06066E+03  1.29127E+03 -6.17465E+03  4.92785E+03 -4.15869E+03  5.61008E+03  8.20325E+02
  3.97507E+03  4.46402E+03  2.45179E+02  6.32064E+03 -4.38765E+03  3.85309E+03 -4.68427E+03 -2.30588E+02
 -5.19897E+03 -4.63290E+03 -1.50834E+03 -4.38625E+03  2.14774E+03 -4.23578E+03  2.32380E+03 -2.86445E+03
  2.53255E+03  1.88674E+00  9.14075E+01  1.21398E+03  7.26248E+02 -1.20875E+02  4.12588E+01 -9.49386E+02
  3.22123E+03 -6.82635E+02  4.34522E+03  7.97381E+02  4.74967E+03  2.70180E+03  5.04441E+03  5.78511E+03
 -1.03341E+03  7.37385E+03 -6.83072E+03  5.48387E+03 -8.46769E+03  1.14784E+03 -6.59630E+03 -2.20153E+03
 -3.87225E+03 -5.77720E+03 -4.58166E+02 -4.25713E+03  1.90469E+03 -1.51857E+03  1.37145E+03 -1.82521E+03
  1.17937E+03 -1.29956E+03  1.91222E+03 -2.18752E+03  3.33947E+03 -1.10472E+03  3.37483E+03  7.98643E+02
  4.01934E+03  1.11678E+03  8.04577E+02  3.13456E+03 -1.59539E+03  2.26607E+03 -3.69465E+03  2.44322E+03
 -4.06278E+03 -1.02214E+03 -9.81925E+02 -2.81905E+03  5.90188E+02 -4.22824E+03  2.63538E+03 -4.65302E+03
  4.08915E+03 -2.82821E+03  5.76461E+03  1.24817E+02  4.33597E+03  3.45655E+03  1.01276E+03  5.06593E+03
 -1.64343E+03  5.21403E+03 -2.68644E+03  1.73049E+03 -1.29042E+03 -9.02824E+02 -1.87795E+02 -1.67729E+02
  1.95654E+00  4.81677E+02 -9.25955E+02  2.16836E+03 -2.10418E+03  8.77953E+02 -3.30708E+03 -2.20135E+02
 -1.07793E+03 -3.46780E+03  6.20160E+02 -3.73634E+03  1.97822E+03 -3.51648E+03  2.65936E+03 -8.42766E+02
  3.19960E+03  2.31880E+03  1.52955E+03  2.63079E+03 -5.90506E+02  3.57983E+03 -2.32213E+03  2.25043E+03
 -2.84000E+03  5.55532E+02 -2.89991E+03 -1.93613E+03 -3.18047E+02 -2.50535E+03  1.17459E+03 -1.90592E+03
  2.23522E+03 -1.25418E+03  1.18629E+03  2.73035E+02  1.31550E+02  1.42702E+03  6.59574E+02  3.75791E+02
  1.64642E+03  3.48826E+02  1.08258E+03  1.00186E+03  8.36233E+02  1.87761E+03  1.19528E+03  1.02939E+03
 -8.91977E+02  2.43633E+03 -2.21060E+03  3.42215E+03 -1.94266E+03  1.17319E+03 -3.15508E+03 -2.70802E+02
 -1.22660E+03 -2.84753E+03  5.39313E+02 -3.93442E+03  1.01994E+03 -1.92875E+03  2.15415E+03 -6.55024E+02
  1.81315E+03  1.29057E+03  1.55724E+02  1.68641E+03 -4.58327E+02  8.58571E+02 -8.09236E+02 -2.57587E+02
 -5.14153E+02 -1.25356E+03  9.66561E+02 -1.21028E+03  1.04405E+03 -8.37154E+02  9.78435E+02  3.42921E+02
  4.57068E+02 -3.43591E+01  8.82461E+02 -6.13117E+02 -1.42630E+02  7.30096E+02  1.52797E+03 -4.11589E+01
 -3.53440E+02 -2.30804E+02  1.48653E+03  7.44955E+02 -1.23944E+02  2.03168E+03 -4.40620E+02  2.38222E+03
 -1.47694E+03  7.36531E+02 -1.50287E+03  1.48157E+02 -1.62634E+03 -4.04739E+02  7.48188E+01 -8.88677E+02
  4.24584E+02 -8.96999E+02  5.15396E+02 -4.73178E+02  3.34245E+02  1.13414E+03 -4.44902E+02  6.63853E+02
 -9.73834E+02  4.51531E+02 -9.25891E+02 -1.35706E+03 -2.15003E+02 -1.60099E+03 -5.71297E+01 -1.11484E+03
 -7.10162E+01 -1.43481E+02  4.28102E+02  3.11603E+02  1.21200E+03 -1.84610E+02  1.18505E+02  1.12720E+03
 -3.05017E+02 -3.36619E+01 -6.14578E+02 -2.99076E+02  5.35315E+02 -6.50170E+02  1.39938E+03 -5.74221E+02
  8.37273E+02  8.34818E+01  2.54246E+03  4.67174E+02  1.12167E+03  1.04197E+03  1.02462E+02  1.28593E+03
 -1.16108E+03  3.81532E+01 -1.10103E+03 -6.83646E+01 -1.89472E+02 -9.38860E+02 -4.24416E+01  2.47156E+01
  1.20692E+03 -4.17317E+02  4.40199E+02  7.25739E+02 -3.25224E+02  1.23621E+03  4.03984E+02  8.64335E+02
 -4.30680E+02  1.03282E+03 -2.89644E+02 -1.06528E+02  3.02440E+02  4.90037E+02 -4.06973E+02  3.66922E+02
 -4.79298E+02  9.27405E+02 -1.28414E+03  4.49802E+02 -1.23142E+03  2.43106E+02 -2.05076E+03 -5.93575E+02
 -8.54135E+02 -1.59001E+03  2.22360E+02 -2.26879E+03  5.91247E+02 -1.69965E+03  2.00723E+03 -7.80280E+02
  1.97783E+03 -4.32342E+02  8.04290E+02  9.77646E+02 -5.86489E+02  1.00477E+03 -2.31803E+02  6.19291E+02
 -5.82245E+02  7.29975E+02 -2.91530E+02 -1.75663E+02 -5.49660E+02  4.73016E+02 -4.85998E+02  8.61020E+01
 -1.13551E+03 -2.27106E+02 -7.42239E+02  4.63122E+02  5.78994E+01 -5.78795E+02 -3.42707E+02 -5.93272E+02
  1.02291E+03 -3.64512E+02  1.13491E+02  3.21126E+02  1.01501E+03  5.14441E+02 -5.43965E+02  8.07681E+02
 -7.89314E+02  1.55366E+03 -9.71523E+02  9.89254E+02 -1.37150E+03 -4.73749E+02 -7.74063E+02 -9.78521E+02
 -8.62350E+02 -8.64559E+02  2.69487E+02 -8.53674E+02  3.19645E+02 -4.45970E+02  2.30940E+02  1.94318E+02
  4.92510E+02  4.91545E+01  3.12485E+02  1.62652E+02 -2.78436E+02  7.35509E+01  1.72573E+02  6.52321E+01
  2.11463E+02  1.49956E+02  1.49803E+02  7.40634E+02 -2.64711E+02  1.43815E+02  5.28820E+02 -2.87900E+02
 -2.64578E+02  7.29188E+02 -2.16499E+02  8.23939E+01 -4.36830E+02 -3.75681E+02  2.99065E+02 -7.13104E+02
  2.25541E+02 -4.64675E+02  1.87852E+01  1.72396E+02  7.35477E+02 -6.06357E+02  3.01756E+02  4.35715E+02
  1.16109E+02  3.77105E+02 -8.60129E+01  2.34781E+02 -5.76096E+02  4.51347E+02 -2.46961E+02 -1.72847E+02
  4.18668E+01  3.28135E+01 -1.54880E+02  1.97585E+02 -5.33117E+02  1.82964E+02 -4.01600E+02 -1.71343E+02
 -1.07539E+03  5.37216E+02 -4.04079E+02 -6.58305E+02  6.26701E+02 -1.29338E+03  4.44493E+02 -1.46836E+02
  4.03567E+02  2.38110E+01 -5.73795E+02  4.93145E+01 -2.11977E+02  7.48385E+02 -2.05539E+01  4.83030E+02
