 $NMID ID='MM_0lb_SNR800_11hz_g45_68.RAW', FMTDAT='(8E13.5)'
 TRAMP=1., VOLUME=1. $END
  3.10025E+05  4.64767E+02  3.37963E+05  2.50587E+05  8.49773E+04  3.38335E+05 -1.32438E+05  2.51520E+05
 -1.90843E+05  8.32791E+04 -1.12252E+05 -3.29131E+04  3.60161E+02 -5.07609E+04  5.33597E+04 -6.86664E+02
  3.56280E+04  5.27030E+04 -1.70213E+04  7.54979E+04 -6.10445E+04  6.37384E+04 -8.46472E+04  3.24926E+04
 -8.19689E+04 -1.11223E+04 -5.79191E+04 -5.20541E+04 -1.54660E+04 -7.03083E+04  2.75104E+04 -4.64250E+04
  4.01984E+04  3.79981E+03  1.65843E+04  4.79737E+04 -3.45376E+04  4.76063E+04 -6.75771E+04 -3.73710E+01
 -5.44811E+04 -5.73696E+04 -7.03536E+03 -7.79010E+04  3.43958E+04 -5.61170E+04  4.85534E+04 -1.75582E+04
  4.44057E+04  1.14960E+04  3.25246E+04  2.57208E+04  1.58125E+04  2.99503E+04 -5.68197E+03  2.75069E+04
 -2.26862E+04  1.20791E+04 -1.85135E+04 -5.18159E+03  6.35105E+03 -7.54981E+03  2.26497E+04  1.28329E+04
  7.40858E+03  3.64187E+04 -3.32802E+04  3.62434E+04 -6.43176E+04  2.06948E+03 -5.76479E+04 -4.34923E+04
 -1.22370E+04 -6.40405E+04  4.04365E+04 -4.64685E+04  5.98360E+04 -2.34723E+03  3.53194E+04  3.31316E+04
 -5.65619E+03  3.77129E+04 -3.08886E+04  1.73235E+04 -3.17358E+04 -3.98101E+03 -1.80187E+04 -1.16460E+04
 -8.64433E+03 -1.37217E+04 -4.96620E+02 -1.87517E+04  8.17479E+03 -2.32289E+04  1.55418E+04 -1.33134E+04
  1.10540E+04  5.65968E+03 -9.50183E+03  1.27993E+04 -2.25027E+04 -5.59781E+03 -8.13737E+03 -3.55365E+04
  2.38732E+04 -4.50699E+04  4.97409E+04 -2.02412E+04  4.70907E+04  1.95601E+04  1.60802E+04  4.52893E+04
 -1.65830E+04  3.46553E+04 -2.64256E+04  2.00934E+03 -1.07277E+04 -2.88012E+04  2.11301E+04 -3.55674E+04
  4.28830E+04 -9.59350E+03  3.77647E+04  2.39254E+04  1.96353E+04  4.87290E+04 -8.28129E+03  5.34182E+04
 -3.34492E+04  3.60454E+04 -4.48294E+04  1.04723E+04 -4.49381E+04 -1.75951E+04 -2.47037E+04 -3.99481E+04
  7.39620E+03 -3.97186E+04  3.30545E+04 -1.57094E+04  3.03466E+04  1.12345E+04  4.51189E+03  1.99303E+04
 -1.32515E+04  9.31399E+03 -1.10803E+04 -7.65064E+03  5.66684E+03 -1.13426E+04  1.84090E+04  5.90667E+03
  1.38122E+04  2.27584E+04 -5.51755E+03  2.60587E+04 -2.28850E+04  1.29224E+04 -2.98808E+04 -4.35875E+03
 -2.30117E+04 -1.77373E+04 -9.96936E+03 -2.28120E+04  4.07013E+03 -2.26940E+04  1.77606E+04 -2.05668E+04
  2.90417E+04 -1.33347E+04  3.54280E+04  3.82712E+03  2.56794E+04  2.23722E+04  4.15529E+03  3.88403E+04
 -1.85943E+04  3.21804E+04 -2.93405E+04  1.11642E+04 -2.16429E+04 -1.01726E+04 -4.79434E+03 -1.29822E+04
  8.78077E+02 -1.78593E+03 -5.81313E+03  7.33794E+03 -1.79848E+04  5.33577E+03 -1.79775E+04 -8.32995E+03
 -1.12400E+04 -2.09329E+04  5.69782E+03 -2.54235E+04  1.71844E+04 -1.82913E+04  2.05759E+04 -1.87686E+03
  1.30517E+04  1.45355E+04 -1.24545E+03  2.10892E+04 -1.46877E+04  1.19651E+04 -2.10154E+04 -4.09211E+03
 -1.56723E+04 -1.87185E+04 -2.01838E+03 -2.54255E+04  1.14669E+04 -2.09485E+04  2.10180E+04 -1.04686E+04
  1.97395E+04 -1.24710E+02  1.39627E+04  4.97017E+03  7.80078E+03  9.03064E+02  1.08661E+04 -1.82311E+03
  1.94502E+04  2.97694E+03  2.23875E+04  1.73153E+04  1.49558E+04  3.43641E+04 -2.64036E+03  3.92082E+04
 -2.21132E+04  3.18193E+04 -3.68748E+04  1.64167E+04 -3.89686E+04 -2.73217E+03 -3.19234E+04 -2.21410E+04
 -1.31810E+04 -3.20360E+04  1.08526E+04 -2.83548E+04  2.44891E+04 -1.39867E+04  2.12671E+04  6.56629E+03
  7.48306E+03  1.67033E+04 -1.03045E+04  1.40948E+04 -1.79389E+04  2.36421E+03 -1.35748E+04 -1.15385E+04
 -1.29947E+02 -1.77636E+04  8.94765E+03 -1.28888E+04  1.17756E+04 -1.14785E+03  2.78690E+03  7.35471E+03
 -7.77929E+03  3.40213E+03 -7.98727E+03 -5.78844E+03 -1.09185E+03 -1.56850E+04  1.04867E+04 -1.70532E+04
  2.00090E+04 -9.45938E+03  2.19130E+04  3.08325E+03  1.93531E+04  1.62506E+04  8.71507E+03  2.46494E+04
 -4.07970E+03  2.66412E+04 -1.72603E+04  1.65296E+04 -1.89827E+04  3.53762E+03 -1.35479E+04 -5.10530E+03
 -5.68202E+03 -5.98441E+03 -5.33031E+02  3.87543E+02 -2.37357E+03  2.65162E+03 -6.05206E+03  4.74209E+03
 -1.23773E+04 -9.60479E+02 -1.27380E+04 -1.02132E+04 -5.51248E+03 -1.71348E+04  5.41183E+03 -1.38596E+04
  1.13503E+04 -5.65872E+03  7.90939E+03  3.68690E+03  7.72213E+01  5.49644E+03 -6.25851E+03 -8.53892E+01
 -6.31135E+03 -8.63761E+03 -1.24343E+03 -1.31957E+04  7.71204E+03 -1.38850E+04  1.68255E+04 -7.21328E+03
  1.96493E+04  2.01473E+03  1.45996E+04  1.18681E+04  3.15236E+03  1.59224E+04 -8.27389E+03  1.31522E+04
 -1.06230E+04  3.52020E+03 -5.69908E+03 -2.57568E+03  1.88756E+03 -3.92826E+03  7.07937E+03 -7.43826E+02
  6.56961E+03  5.75398E+03  1.14918E+03  1.04787E+04 -7.57228E+03  1.05514E+04 -1.32753E+04  2.69509E+03
 -8.72613E+03 -6.98576E+03  5.12205E+02 -1.13640E+04  7.40555E+03 -5.83041E+03  7.57412E+03  2.63672E+03
  1.51203E+03  7.85738E+03 -7.05624E+03  9.92940E+03 -1.10370E+04  4.19735E+03 -1.08517E+04 -3.96594E+03
 -6.29289E+03 -1.28445E+04  3.09990E+03 -1.45206E+04  1.28499E+04 -9.27668E+03  1.34869E+04  2.47840E+03
  8.22188E+03  1.08141E+04 -8.51486E+02  1.30443E+04 -9.78582E+03  7.08364E+03 -1.05716E+04 -1.38328E+03
 -9.14371E+03 -8.74298E+03 -1.80361E+03 -1.01178E+04  5.03455E+03 -8.03538E+03  6.25906E+03 -3.08795E+03
  4.48634E+03  1.32740E+03 -1.19726E+03  1.75954E+03 -5.68516E+02 -2.07122E+03  2.06577E+03 -5.72070E+03
  9.10078E+03 -3.91330E+03  1.24678E+04  1.21755E+03  1.29441E+04  8.23678E+03  8.39520E+03  1.69041E+04
 -3.71127E+03  1.89653E+04 -1.59694E+04  1.40381E+04 -2.11389E+04  2.70380E+03 -1.63601E+04 -6.87480E+03
 -8.44931E+03 -1.37618E+04 -4.09621E+02 -1.15097E+04  4.17526E+03 -6.43395E+03  3.96494E+03 -4.47917E+03
  2.99744E+03 -2.67704E+03  3.01840E+03 -3.53689E+03  4.79167E+03 -2.76188E+03  6.85019E+03 -8.70778E+02
  8.71207E+03  2.21533E+03  4.16384E+03  7.41402E+03 -2.33697E+03  8.50812E+03 -9.39093E+03  6.50858E+03
 -1.18158E+04 -1.42951E+03 -7.08416E+03 -8.05448E+03 -1.03502E+03 -1.22695E+04  7.04338E+03 -1.25771E+04
  1.25986E+04 -6.90850E+03  1.49243E+04  1.63239E+03  1.07046E+04  1.05309E+04  1.78947E+03  1.40278E+04
 -6.10506E+03  1.14115E+04 -8.50390E+03  3.84930E+03 -5.60843E+03 -1.39894E+03 -2.55697E+03 -1.58187E+03
 -1.45388E+03  2.58783E+02 -1.86421E+03  2.74534E+03 -4.83625E+03  2.49093E+03 -8.23533E+03 -1.07234E+03
 -5.36013E+03 -7.87966E+03  5.64670E+02 -1.13577E+04  6.88318E+03 -1.05108E+04  1.11358E+04 -2.76083E+03
  1.11681E+04  5.64344E+03  4.97331E+03  1.00414E+04 -2.42104E+03  1.10957E+04 -8.30916E+03  7.24675E+03
 -1.10751E+04  4.43964E+02 -8.21420E+03 -7.01394E+03 -1.05406E+03 -9.38253E+03  4.84401E+03 -7.15245E+03
  7.31965E+03 -2.51047E+03  4.98538E+03  2.00948E+03  1.65474E+03  3.34675E+03  8.55343E+02  1.48354E+03
  2.36681E+03  1.06856E+03  2.73437E+03  1.97135E+03  3.37651E+03  4.31398E+03  3.12582E+03  5.81347E+03
 -2.14321E+03  8.91087E+03 -7.55060E+03  8.93454E+03 -1.10508E+04  2.39130E+03 -1.14298E+04 -4.55123E+03
 -5.32106E+03 -1.13780E+04  1.55749E+03 -1.25906E+04  6.90844E+03 -7.72476E+03  9.41850E+03 -2.03112E+03
  7.24826E+03  4.38961E+03  1.81658E+03  6.64807E+03 -3.03022E+03  3.78143E+03 -4.17157E+03 -5.23417E+02
 -2.03663E+03 -4.87302E+03  2.96572E+03 -4.74417E+03  4.53261E+03 -2.39691E+03  4.54229E+03  1.20232E+03
  2.51867E+03  1.72691E+03  1.30336E+03  1.22807E+03 -7.56662E+02  1.51411E+03  1.89802E+03 -8.43399E+02
  1.66506E+03 -5.61413E+02  4.50630E+03  1.71950E+03  2.38535E+03  6.44445E+03 -1.11393E+03  7.58201E+03
 -5.35759E+03  4.91879E+03 -7.32098E+03  1.34278E+03 -6.45393E+03 -2.64214E+03 -2.25066E+03 -4.08357E+03
  8.79008E+02 -4.43378E+03  2.93472E+03 -2.04965E+03  2.10700E+03  2.33239E+03 -1.15067E+03  3.64075E+03
 -4.73280E+03  1.83420E+03 -5.10954E+03 -2.90330E+03 -2.85985E+03 -5.63100E+03  6.38324E+02 -6.00940E+03
  3.51185E+03 -3.23636E+03  4.42434E+03 -3.63017E+02  3.83443E+03  1.11181E+03  5.31320E+02  3.30138E+03
 -2.03103E+03  8.21640E+02 -2.74285E+03 -2.13066E+03  1.17446E+03 -4.31674E+03  5.74920E+03 -3.60731E+03
  6.67145E+03  1.25634E+02  6.97038E+03  4.85404E+03  2.05120E+03  7.22951E+03 -2.15642E+03  6.71311E+03
 -5.63513E+03  2.69547E+03 -6.00435E+03 -5.42020E+02 -3.53857E+03 -4.68041E+03  1.06593E+03 -3.97229E+03
  4.32784E+03 -1.96581E+03  3.58459E+03  1.92922E+03  8.68548E+02  4.02506E+03 -2.18373E+02  3.59119E+03
 -1.89047E+03  2.43544E+03 -1.80273E+03  6.66151E+02 -5.85021E+02  7.47748E+02 -1.02779E+03  1.36386E+03
 -1.59090E+03  3.02280E+03 -4.80071E+03  2.35041E+03 -6.87103E+03  4.05793E+02 -8.04065E+03 -5.04403E+03
 -3.98186E+03 -8.93014E+03  1.86004E+03 -1.02480E+04  6.42606E+03 -8.34512E+03  9.67826E+03 -3.34480E+03
  9.47678E+03  1.48686E+03  5.82505E+03  6.22225E+03  2.01757E+02  6.79064E+03 -2.70137E+03  5.13273E+03
 -4.08023E+03  2.15014E+03 -2.48045E+03 -6.58431E+02 -7.35620E+02 -6.51949E+02 -7.28506E+02 -2.37207E+02
 -1.55156E+03  8.23148E+01 -1.56885E+03 -4.83090E+02 -5.27195E+02 -1.50886E+03  5.57390E+01 -3.00353E+03
  3.39503E+03 -1.99728E+03  3.95861E+03 -1.82218E+02  4.84784E+03  3.65126E+03  1.19776E+03  6.89371E+03
 -3.75812E+03  8.23184E+03 -7.03089E+03  4.52207E+03 -8.56887E+03 -8.71965E+02 -6.59381E+03 -5.14718E+03
 -2.89789E+03 -7.44796E+03  1.99759E+03 -6.03738E+03  4.54792E+03 -3.67732E+03  4.55013E+03  4.00009E+02
  2.83627E+03  2.27939E+03 -4.60462E+02  1.98582E+03 -1.45111E+03 -3.33190E+02 -1.05517E+02 -1.80978E+03
  2.14340E+03 -7.54544E+02  2.56062E+03  8.48922E+02  1.74004E+03  2.90500E+03  3.45843E+02  3.72535E+03
 -3.07425E+03  2.95644E+03 -4.61736E+03  5.88510E+02 -4.31359E+03 -3.12933E+03 -6.25122E+02 -5.93868E+03
  3.06203E+03 -4.83147E+03  5.07822E+03 -1.55902E+03  5.67039E+03  1.13124E+03  2.98902E+03  4.02340E+03
  1.16184E+03  4.25353E+03 -1.71492E+03  3.72046E+03 -2.94383E+03  2.22282E+03 -2.11294E+03  2.36636E+02
 -1.33500E+03 -2.01972E+02 -1.64438E+03  7.67527E+02 -2.59756E+03  6.02831E+02 -3.55734E+03 -7.29367E+02
 -3.67052E+03 -1.66323E+03 -1.29574E+03 -4.67018E+03  2.67085E+03 -5.17061E+03  3.90631E+03 -2.48647E+03
  4.19144E+03  6.56636E+02  2.61925E+03  2.90700E+03 -4.37384E+02  4.60143E+03 -3.41845E+03  2.77621E+03
