 $NMID ID='MM_0lb_SNR800_12hz_g40_55.RAW', FMTDAT='(8E13.5)'
 TRAMP=1., VOLUME=1. $END
  3.10194E+05  6.06111E+02  3.37526E+05  2.50784E+05  8.47898E+04  3.37735E+05 -1.32647E+05  2.51347E+05
 -1.90092E+05  8.29148E+04 -1.11672E+05 -3.27095E+04  8.39520E+02 -5.02929E+04  5.36573E+04 -3.10210E+02
  3.56825E+04  5.30531E+04 -1.65326E+04  7.56295E+04 -6.11344E+04  6.36073E+04 -8.47745E+04  3.17190E+04
 -8.13359E+04 -1.12714E+04 -5.74077E+04 -5.15973E+04 -1.49554E+04 -6.96279E+04  2.73770E+04 -4.61474E+04
  4.04180E+04  3.59436E+03  1.61072E+04  4.79465E+04 -3.47066E+04  4.75383E+04 -6.67517E+04  1.99822E+01
 -5.34999E+04 -5.67969E+04 -6.71969E+03 -7.71141E+04  3.40951E+04 -5.52226E+04  4.82769E+04 -1.69966E+04
  4.37248E+04  1.12771E+04  3.18800E+04  2.57751E+04  1.60182E+04  2.93369E+04 -5.41286E+03  2.75130E+04
 -2.21502E+04  1.19920E+04 -1.85580E+04 -5.25558E+03  6.06103E+03 -7.27750E+03  2.27805E+04  1.26243E+04
  7.30835E+03  3.58018E+04 -3.22319E+04  3.56977E+04 -6.36110E+04  1.94004E+03 -5.71122E+04 -4.33010E+04
 -1.23437E+04 -6.33596E+04  3.97357E+04 -4.57480E+04  5.88223E+04 -2.24329E+03  3.48405E+04  3.26390E+04
 -5.86492E+03  3.63898E+04 -3.01627E+04  1.65537E+04 -3.08815E+04 -4.46005E+03 -1.71053E+04 -1.08794E+04
 -8.46737E+03 -1.33824E+04 -7.74952E+02 -1.86590E+04  7.60825E+03 -2.29266E+04  1.53214E+04 -1.31662E+04
  1.13569E+04  5.54644E+03 -8.89724E+03  1.29119E+04 -2.18180E+04 -4.89776E+03 -8.03954E+03 -3.42910E+04
  2.30941E+04 -4.42836E+04  4.85630E+04 -1.95421E+04  4.55444E+04  1.95793E+04  1.61790E+04  4.47726E+04
 -1.57690E+04  3.36007E+04 -2.59378E+04  2.04596E+03 -1.06012E+04 -2.79990E+04  2.08028E+04 -3.44592E+04
  4.19557E+04 -9.35383E+03  3.66027E+04  2.39430E+04  1.84542E+04  4.70130E+04 -8.02672E+03  5.14061E+04
 -3.25393E+04  3.46454E+04 -4.29340E+04  9.60887E+03 -4.37423E+04 -1.70122E+04 -2.39969E+04 -3.87240E+04
  7.43969E+03 -3.87393E+04  3.19811E+04 -1.50212E+04  2.99806E+04  1.09714E+04  4.17850E+03  1.93755E+04
 -1.35462E+04  8.71650E+03 -1.05564E+04 -7.51124E+03  5.85937E+03 -1.06439E+04  1.82624E+04  5.99959E+03
  1.35684E+04  2.21900E+04 -5.84427E+03  2.52813E+04 -2.22404E+04  1.19317E+04 -2.83439E+04 -4.33304E+03
 -2.16695E+04 -1.78440E+04 -9.12243E+03 -2.11541E+04  4.08685E+03 -2.07886E+04  1.66970E+04 -1.93825E+04
  2.72942E+04 -1.33847E+04  3.37152E+04  2.96316E+03  2.45286E+04  2.10106E+04  4.40316E+03  3.71425E+04
 -1.81947E+04  3.12225E+04 -2.82985E+04  1.11458E+04 -2.09821E+04 -1.04783E+04 -4.56917E+03 -1.32031E+04
  1.51031E+03 -2.15752E+03 -5.36945E+03  7.17867E+03 -1.67906E+04  4.86350E+03 -1.71839E+04 -7.42097E+03
 -1.01930E+04 -1.96317E+04  5.58046E+03 -2.41503E+04  1.63065E+04 -1.68668E+04  1.93828E+04 -2.14124E+03
  1.18784E+04  1.37198E+04 -1.38648E+03  1.99519E+04 -1.36835E+04  1.16154E+04 -1.98411E+04 -4.34232E+03
 -1.46940E+04 -1.81353E+04 -1.79824E+03 -2.40238E+04  1.06567E+04 -1.98497E+04  2.02371E+04 -9.74449E+03
  1.87700E+04 -6.76629E+01  1.33933E+04  4.49160E+03  7.09518E+03  9.41047E+02  1.00594E+04 -1.46703E+03
  1.85343E+04  2.86254E+03  2.06977E+04  1.59926E+04  1.36225E+04  3.18345E+04 -3.13184E+03  3.59799E+04
 -2.10800E+04  2.89905E+04 -3.38164E+04  1.47972E+04 -3.57634E+04 -2.55319E+03 -2.91247E+04 -2.07149E+04
 -1.28660E+04 -2.97586E+04  1.02045E+04 -2.65319E+04  2.29342E+04 -1.34494E+04  2.03496E+04  6.08709E+03
  7.21021E+03  1.54550E+04 -9.09557E+03  1.31818E+04 -1.67185E+04  2.30045E+03 -1.33644E+04 -1.05529E+04
 -7.67512E+01 -1.61093E+04  8.31451E+03 -1.19968E+04  1.07136E+04 -1.41212E+03  2.55288E+03  7.06383E+03
 -7.29847E+03  3.09884E+03 -6.68109E+03 -5.93149E+03 -7.11412E+02 -1.46183E+04  1.02212E+04 -1.54712E+04
  1.82064E+04 -8.53004E+03  1.96980E+04  3.00835E+03  1.72611E+04  1.44081E+04  7.96059E+03  2.20568E+04
 -4.11632E+03  2.40227E+04 -1.55075E+04  1.53284E+04 -1.74395E+04  3.61955E+03 -1.22052E+04 -4.14509E+03
 -5.65228E+03 -5.44467E+03 -1.12962E+03  1.13956E+03 -2.51785E+03  2.73011E+03 -5.89113E+03  4.99577E+03
 -1.12469E+04 -6.89942E+02 -1.19739E+04 -9.56257E+03 -5.03109E+03 -1.56562E+04  5.11528E+03 -1.25807E+04
  1.03867E+04 -5.06886E+03  7.51767E+03  3.26971E+03  7.03662E+01  4.55592E+03 -5.95272E+03  1.76762E+02
 -5.67220E+03 -7.83375E+03 -6.87007E+02 -1.15413E+04  6.51828E+03 -1.24912E+04  1.53851E+04 -6.66412E+03
  1.76531E+04  1.86283E+03  1.33759E+04  1.02564E+04  2.37576E+03  1.41799E+04 -7.72329E+03  1.19307E+04
 -9.85096E+03  3.81488E+03 -4.88489E+03 -2.74010E+03  1.86706E+03 -3.34234E+03  6.59331E+03 -9.27033E+02
  5.87909E+03  5.27691E+03  1.11225E+03  9.58624E+03 -7.05409E+03  9.33965E+03 -1.21858E+04  2.25801E+03
 -7.98185E+03 -6.11043E+03  4.99592E+02 -1.03572E+04  6.34654E+03 -5.20700E+03  6.43005E+03  2.33865E+03
  1.60274E+03  6.74548E+03 -6.33353E+03  8.53486E+03 -9.40929E+03  3.80090E+03 -9.47938E+03 -3.24932E+03
 -5.89582E+03 -1.09747E+04  2.42363E+03 -1.29667E+04  1.10565E+04 -7.89497E+03  1.19591E+04  2.10520E+03
  7.45067E+03  9.68280E+03 -8.00830E+02  1.18930E+04 -8.66895E+03  6.77772E+03 -9.28402E+03 -7.81660E+02
 -8.66504E+03 -8.15465E+03 -1.68783E+03 -8.67822E+03  4.68777E+03 -7.07909E+03  5.34130E+03 -3.21516E+03
  4.12658E+03  1.24495E+03 -3.94909E+02  1.66411E+03 -1.56954E+02 -1.93234E+03  1.37834E+03 -4.99176E+03
  8.04871E+03 -2.72551E+03  1.11829E+04  1.34200E+03  1.09119E+04  7.38298E+03  7.67274E+03  1.44402E+04
 -3.49013E+03  1.66755E+04 -1.42638E+04  1.26083E+04 -1.80592E+04  2.81125E+03 -1.46840E+04 -6.03941E+03
 -7.56339E+03 -1.20329E+04 -7.55844E+02 -9.79190E+03  3.47765E+03 -5.12764E+03  3.41731E+03 -3.27475E+03
  2.54614E+03 -2.54775E+03  2.90667E+03 -3.09041E+03  4.84493E+03 -2.51736E+03  6.00727E+03 -2.60259E+02
  7.94989E+03  2.00319E+03  3.50377E+03  6.23193E+03 -1.66918E+03  7.33051E+03 -7.95581E+03  5.79950E+03
 -9.89012E+03 -1.32637E+03 -5.71330E+03 -7.11040E+03 -1.78000E+02 -1.04547E+04  6.05430E+03 -1.07183E+04
  1.10506E+04 -6.25133E+03  1.35579E+04  1.67537E+03  9.36800E+03  9.01355E+03  1.58013E+03  1.25085E+04
 -5.12749E+03  1.02184E+04 -6.93699E+03  3.44181E+03 -4.90100E+03 -1.34189E+03 -1.65333E+03 -1.41890E+03
 -1.07676E+03  4.08501E+02 -1.67985E+03  2.23035E+03 -4.76666E+03  1.87826E+03 -7.38046E+03 -1.12446E+03
 -4.30798E+03 -7.18252E+03  3.76076E+01 -9.46769E+03  6.07390E+03 -8.92953E+03  9.20747E+03 -2.49037E+03
  9.55798E+03  4.86727E+03  4.27206E+03  8.25904E+03 -1.78357E+03  9.88431E+03 -6.79892E+03  5.83412E+03
 -9.11151E+03  7.74917E+02 -6.95979E+03 -5.79377E+03 -5.79292E+02 -7.84980E+03  3.80657E+03 -5.85031E+03
  6.40555E+03 -2.08624E+03  4.04121E+03  1.41748E+03  1.21328E+03  3.30725E+03  1.20580E+03  1.08025E+03
  2.21109E+03  9.86443E+02  2.33428E+03  1.41205E+03  2.52294E+03  3.80575E+03  2.36969E+03  4.61124E+03
 -2.27962E+03  7.20837E+03 -6.55784E+03  7.95712E+03 -9.31546E+03  1.92065E+03 -1.02512E+04 -3.31396E+03
 -4.63549E+03 -9.44296E+03  1.58680E+03 -1.09552E+04  5.47995E+03 -6.91785E+03  7.91388E+03 -1.93688E+03
  6.33797E+03  3.65028E+03  1.52857E+03  5.24912E+03 -2.43026E+03  3.38635E+03 -3.52615E+03 -8.64062E+02
 -1.92110E+03 -4.32145E+03  2.26638E+03 -3.87730E+03  4.03967E+03 -2.11672E+03  3.57811E+03  1.17836E+03
  2.17201E+03  1.96509E+03  1.52043E+03  1.06697E+03 -5.87640E+02  1.41048E+03  1.44985E+03 -1.31575E+02
  1.04109E+03 -5.69456E+02  3.92816E+03  1.64557E+03  1.86094E+03  5.40056E+03 -9.97057E+02  6.54282E+03
 -4.47504E+03  4.11817E+03 -5.66755E+03  1.13653E+03 -5.11042E+03 -2.02015E+03 -1.84980E+03 -3.30173E+03
  8.15273E+02 -3.68067E+03  2.44528E+03 -1.51105E+03  2.13842E+03  2.10284E+03 -1.08749E+03  3.06223E+03
 -3.33127E+03  1.67622E+03 -4.06866E+03 -2.76047E+03 -2.35107E+03 -5.05421E+03  6.53616E+02 -4.71409E+03
  2.81767E+03 -2.88848E+03  3.31188E+03 -2.17447E+01  3.11557E+03  1.05557E+03  5.10365E+02  2.82695E+03
 -1.99599E+03  1.15577E+03 -2.14342E+03 -1.96024E+03  1.07742E+03 -3.73276E+03  4.36123E+03 -2.62952E+03
  5.62162E+03  5.02544E+02  5.80585E+03  3.67450E+03  2.13407E+03  5.91797E+03 -1.72217E+03  5.56370E+03
 -4.29303E+03  2.07546E+03 -5.09543E+03 -7.33359E+02 -2.59679E+03 -3.69684E+03  9.17257E+02 -3.22601E+03
  3.79909E+03 -2.26895E+03  3.07977E+03  1.72073E+03  1.22379E+03  3.04374E+03 -3.79495E+02  2.93751E+03
 -1.47499E+03  2.00567E+03 -1.30418E+03  1.01984E+03 -4.80497E+02  7.34594E+02 -1.59296E+03  1.20199E+03
 -1.33232E+03  2.18661E+03 -4.28263E+03  2.05196E+03 -5.78507E+03  8.51395E+01 -6.26917E+03 -3.84481E+03
 -3.54195E+03 -7.61616E+03  1.55392E+03 -8.93196E+03  5.26457E+03 -7.23342E+03  8.42716E+03 -2.95951E+03
  7.61035E+03  9.92263E+02  4.42662E+03  5.09995E+03  1.74872E+02  5.88763E+03 -2.15127E+03  4.30578E+03
 -3.59835E+03  1.88090E+03 -2.08707E+03 -6.27355E+02 -5.67351E+02 -9.02768E+01 -8.24479E+02 -8.06995E+01
 -1.21639E+03 -1.31330E+02 -1.47319E+03  2.59811E+02 -1.89711E+02 -1.31762E+03 -1.28461E+02 -2.23319E+03
  3.13113E+03 -1.99020E+03  3.30624E+03 -1.08598E+02  3.77920E+03  3.44827E+03  6.26889E+02  5.75385E+03
 -2.92667E+03  6.90498E+03 -5.88949E+03  3.78852E+03 -6.88042E+03 -9.86669E+02 -5.12181E+03 -4.06134E+03
 -2.48415E+03 -5.68298E+03  1.47298E+03 -5.24955E+03  3.29089E+03 -2.86448E+03  3.63467E+03  1.80023E+02
  2.18485E+03  1.86872E+03 -2.52611E+02  1.78939E+03 -9.69060E+02  3.39943E+01  1.97401E+02 -1.26697E+03
  1.58958E+03 -5.44319E+02  1.96612E+03  7.28516E+02  1.37777E+03  2.15219E+03  3.38503E+02  2.76871E+03
 -2.52206E+03  2.32741E+03 -3.45370E+03  3.38137E+02 -3.36661E+03 -2.32618E+03 -4.73579E+02 -4.88949E+03
  2.57621E+03 -3.72524E+03  3.80381E+03 -1.05620E+03  3.95375E+03  6.05624E+02  2.21843E+03  3.31498E+03
  2.52441E+02  3.64346E+03 -1.69208E+03  2.85639E+03 -1.73676E+03  1.68802E+03 -1.99310E+03  3.56077E+02
 -9.53581E+02 -3.63454E+02 -1.09404E+03  6.08943E+02 -2.01345E+03  3.53057E+02 -2.79591E+03 -3.95325E+02
 -2.63522E+03 -1.38991E+03 -1.00703E+03 -3.84317E+03  1.93548E+03 -3.93377E+03  3.24908E+03 -1.84291E+03
  3.69538E+03  4.45533E+02  2.23613E+03  2.38116E+03 -4.89235E+01  3.48185E+03 -2.62598E+03  2.42127E+03
