 $NMID ID='MM_0lb_SNR800_9hz_g45_86.RAW', FMTDAT='(8E13.5)'
 TRAMP=1., VOLUME=1. $END
  3.10041E+05  5.73519E+02  3.38036E+05  2.50969E+05  8.49973E+04  3.38762E+05 -1.32545E+05  2.52108E+05
 -1.90897E+05  8.36678E+04 -1.12699E+05 -3.24982E+04  2.45420E+02 -5.07710E+04  5.35935E+04 -5.76126E+02
  3.55785E+04  5.24555E+04 -1.66591E+04  7.58758E+04 -6.14787E+04  6.43904E+04 -8.54874E+04  3.21385E+04
 -8.22923E+04 -1.16218E+04 -5.80541E+04 -5.19911E+04 -1.51369E+04 -7.05304E+04  2.80296E+04 -4.67485E+04
  4.08981E+04  3.81386E+03  1.71126E+04  4.83617E+04 -3.46078E+04  4.84348E+04 -6.83474E+04  1.89024E+02
 -5.45785E+04 -5.75255E+04 -7.06938E+03 -7.82191E+04  3.45437E+04 -5.67199E+04  4.97529E+04 -1.82887E+04
  4.51863E+04  1.16518E+04  3.28848E+04  2.67622E+04  1.56954E+04  3.03344E+04 -5.84237E+03  2.79562E+04
 -2.27473E+04  1.21554E+04 -1.78648E+04 -5.54631E+03  6.86252E+03 -7.70895E+03  2.32862E+04  1.36088E+04
  7.17004E+03  3.72079E+04 -3.36558E+04  3.71487E+04 -6.55711E+04  2.23811E+03 -5.83957E+04 -4.42255E+04
 -1.33046E+04 -6.54367E+04  4.12816E+04 -4.69043E+04  6.11565E+04 -2.30700E+03  3.64595E+04  3.42526E+04
 -5.39611E+03  3.90170E+04 -3.13525E+04  1.85009E+04 -3.28891E+04 -3.42895E+03 -1.87028E+04 -1.19620E+04
 -9.42226E+03 -1.50192E+04 -2.32230E+02 -1.97974E+04  8.55685E+03 -2.36204E+04  1.58474E+04 -1.26468E+04
  1.03541E+04  6.02520E+03 -1.00517E+04  1.32102E+04 -2.28981E+04 -6.38553E+03 -8.42829E+03 -3.69008E+04
  2.49551E+04 -4.64356E+04  5.11501E+04 -2.04799E+04  4.81962E+04  2.04096E+04  1.72418E+04  4.68776E+04
 -1.68689E+04  3.59143E+04 -2.74005E+04  2.77878E+03 -1.17602E+04 -2.95139E+04  2.15382E+04 -3.66195E+04
  4.40828E+04 -1.08928E+04  4.00604E+04  2.47459E+04  2.07612E+04  5.08947E+04 -8.64668E+03  5.54559E+04
 -3.49164E+04  3.78777E+04 -4.69588E+04  1.13053E+04 -4.69059E+04 -1.83848E+04 -2.59750E+04 -4.19382E+04
  8.21793E+03 -4.17999E+04  3.41009E+04 -1.68082E+04  3.16758E+04  1.12331E+04  5.09347E+03  2.07269E+04
 -1.41013E+04  9.42896E+03 -1.11865E+04 -7.71510E+03  5.77112E+03 -1.14839E+04  1.84973E+04  5.65732E+03
  1.42953E+04  2.28783E+04 -5.18114E+03  2.70137E+04 -2.35552E+04  1.37026E+04 -3.10478E+04 -3.25338E+03
 -2.44761E+04 -1.83603E+04 -1.13902E+04 -2.47052E+04  4.42328E+03 -2.49047E+04  1.94589E+04 -2.27500E+04
  3.14582E+04 -1.39752E+04  3.72919E+04  4.62204E+03  2.65214E+04  2.39765E+04  3.99397E+03  4.07711E+04
 -1.93915E+04  3.37649E+04 -3.02971E+04  1.19313E+04 -2.20471E+04 -1.04018E+04 -5.03466E+03 -1.25928E+04
  7.64909E+02 -8.36445E+02 -7.51056E+03  7.77242E+03 -1.97286E+04  4.67998E+03 -2.00654E+04 -9.22221E+03
 -1.18407E+04 -2.28486E+04  5.96791E+03 -2.69750E+04  1.85314E+04 -1.96824E+04  2.19167E+04 -1.97399E+03
  1.42652E+04  1.61363E+04 -1.07086E+03  2.24165E+04 -1.64870E+04  1.31450E+04 -2.30590E+04 -4.58830E+03
 -1.69447E+04 -2.09587E+04 -2.61032E+03 -2.74389E+04  1.27059E+04 -2.28210E+04  2.29749E+04 -1.17394E+04
  2.15898E+04 -4.84869E+02  1.55661E+04  5.04511E+03  8.76343E+03  1.35475E+03  1.22129E+04 -1.97861E+03
  2.19490E+04  3.14440E+03  2.47547E+04  1.83917E+04  1.69657E+04  3.66043E+04 -2.54721E+03  4.31849E+04
 -2.48063E+04  3.60245E+04 -4.07772E+04  1.86100E+04 -4.37128E+04 -3.17381E+03 -3.56743E+04 -2.53373E+04
 -1.43480E+04 -3.63646E+04  1.29030E+04 -3.19221E+04  2.74989E+04 -1.49007E+04  2.39454E+04  7.42192E+03
  7.98850E+03  1.83859E+04 -1.14989E+04  1.54579E+04 -1.96554E+04  2.14384E+03 -1.51512E+04 -1.25850E+04
 -2.82540E+02 -1.86336E+04  1.02491E+04 -1.35525E+04  1.31394E+04 -1.40700E+03  3.22305E+03  8.96068E+03
 -8.52185E+03  4.19151E+03 -8.98965E+03 -6.67765E+03 -1.57940E+03 -1.75568E+04  1.18950E+04 -1.93499E+04
  2.24955E+04 -1.09367E+04  2.53276E+04  3.48270E+03  2.24900E+04  1.80350E+04  1.07994E+04  2.84816E+04
 -4.90909E+03  3.02268E+04 -2.00169E+04  1.91126E+04 -2.18146E+04  4.42634E+03 -1.49087E+04 -6.04192E+03
 -6.20823E+03 -7.32545E+03 -4.27888E+02  7.78244E+02 -2.75689E+03  3.39206E+03 -7.03011E+03  5.18460E+03
 -1.36665E+04 -9.47432E+02 -1.44328E+04 -1.17138E+04 -5.63941E+03 -1.92417E+04  6.40058E+03 -1.54217E+04
  1.31342E+04 -6.36803E+03  8.90153E+03  4.47651E+03 -2.86348E+00  5.66611E+03 -7.92169E+03 -3.69000E+02
 -7.48431E+03 -9.89825E+03 -1.18769E+03 -1.52744E+04  9.16102E+03 -1.61153E+04  1.96686E+04 -8.99703E+03
  2.30048E+04  2.56311E+03  1.66290E+04  1.40294E+04  2.94612E+03  1.84497E+04 -9.73152E+03  1.51343E+04
 -1.24582E+04  4.43001E+03 -6.60278E+03 -3.01591E+03  2.03087E+03 -4.20705E+03  7.98119E+03 -6.92753E+02
  7.10754E+03  6.69111E+03  1.19677E+03  1.24904E+04 -9.15702E+03  1.19097E+04 -1.53912E+04  3.10433E+03
 -1.01689E+04 -8.24561E+03  6.50414E+02 -1.30116E+04  8.35332E+03 -6.88256E+03  9.12318E+03  3.32202E+03
  2.17332E+03  9.88846E+03 -7.76970E+03  1.14094E+04 -1.30269E+04  4.97400E+03 -1.35679E+04 -4.87470E+03
 -7.70138E+03 -1.53014E+04  3.89449E+03 -1.76213E+04  1.46651E+04 -1.02266E+04  1.59781E+04  3.04670E+03
  9.95132E+03  1.28671E+04 -1.56020E+03  1.52001E+04 -1.14242E+04  8.91732E+03 -1.22151E+04 -8.71361E+02
 -1.04594E+04 -1.04464E+04 -1.96739E+03 -1.15060E+04  6.09093E+03 -9.12547E+03  7.30415E+03 -3.50534E+03
  4.89976E+03  2.14947E+03 -1.15345E+03  2.23628E+03 -6.85247E+02 -2.87950E+03  2.42105E+03 -7.22688E+03
  1.16612E+04 -4.94458E+03  1.57425E+04  1.90657E+03  1.49620E+04  1.07480E+04  1.01363E+04  2.02136E+04
 -4.98511E+03  2.33985E+04 -1.92828E+04  1.71774E+04 -2.46825E+04  3.33191E+03 -2.03279E+04 -8.89066E+03
 -9.65556E+03 -1.63783E+04 -3.45702E+02 -1.44784E+04  5.27416E+03 -8.05463E+03  4.86981E+03 -5.14559E+03
  3.53943E+03 -2.86644E+03  3.69221E+03 -3.61617E+03  6.02048E+03 -3.61091E+03  8.48277E+03 -1.42018E+03
  1.05024E+04  2.59178E+03  5.73916E+03  8.77865E+03 -2.30755E+03  1.09011E+04 -1.12079E+04  8.25126E+03
 -1.42025E+04 -1.30682E+03 -9.22809E+03 -9.94040E+03 -1.30926E+03 -1.54184E+04  8.00079E+03 -1.52069E+04
  1.55842E+04 -8.73366E+03  1.89700E+04  2.26492E+03  1.33109E+04  1.30179E+04  1.71776E+03  1.76836E+04
 -7.36064E+03  1.41566E+04 -1.05150E+04  4.79350E+03 -7.10426E+03 -1.63134E+03 -2.66651E+03 -2.11675E+03
 -1.14280E+03  3.91337E+02 -2.22152E+03  2.49696E+03 -5.88679E+03  2.67952E+03 -9.73933E+03 -1.40385E+03
 -6.93813E+03 -9.85511E+03  3.15743E+02 -1.44762E+04  8.58663E+03 -1.26862E+04  1.38943E+04 -4.17575E+03
  1.39413E+04  7.00365E+03  6.82565E+03  1.29568E+04 -2.69447E+03  1.45318E+04 -1.03472E+04  9.30348E+03
 -1.34477E+04  5.10642E+02 -1.08328E+04 -8.67504E+03 -1.23356E+03 -1.22199E+04  6.04272E+03 -8.92421E+03
  8.50317E+03 -2.98091E+03  5.90908E+03  2.36010E+03  2.04713E+03  4.15881E+03  9.11038E+02  2.30560E+03
  2.71089E+03  1.19215E+03  3.68682E+03  1.70679E+03  4.64966E+03  5.07973E+03  3.66133E+03  7.85679E+03
 -3.05998E+03  1.13798E+04 -9.89506E+03  1.14825E+04 -1.46934E+04  3.06426E+03 -1.60314E+04 -6.01102E+03
 -7.57197E+03 -1.46671E+04  2.13107E+03 -1.63284E+04  8.93389E+03 -1.03512E+04  1.20604E+04 -2.49433E+03
  8.70183E+03  5.06967E+03  2.17299E+03  8.55954E+03 -3.96023E+03  5.21779E+03 -5.94265E+03 -9.26907E+02
 -2.97388E+03 -6.05048E+03  3.20575E+03 -6.76321E+03  6.09947E+03 -2.73458E+03  5.68283E+03  1.17420E+03
  3.34752E+03  2.89298E+03  1.38932E+03  2.52038E+03 -9.28559E+02  1.97570E+03  1.87570E+03 -5.54222E+02
  2.70703E+03 -9.95926E+02  5.71933E+03  2.34432E+03  3.42242E+03  7.87556E+03 -1.21245E+03  1.05225E+04
 -7.15285E+03  6.46939E+03 -9.51438E+03  1.95763E+03 -8.54246E+03 -3.62418E+03 -3.60783E+03 -5.65073E+03
  6.53488E+02 -5.65121E+03  3.59783E+03 -2.66610E+03  3.37359E+03  3.15456E+03 -1.54233E+03  4.69718E+03
 -6.29432E+03  2.50251E+03 -6.90840E+03 -3.45813E+03 -3.95287E+03 -7.93711E+03  1.43431E+03 -8.13409E+03
  5.19546E+03 -4.97205E+03  5.97778E+03 -7.70950E+02  4.83289E+03  1.74865E+03  6.35352E+02  4.24873E+03
 -3.15542E+03  1.69783E+03 -3.87393E+03 -2.90199E+03  1.70847E+03 -6.33662E+03  7.27356E+03 -4.87707E+03
  9.51657E+03  4.88960E+02  9.13300E+03  6.05782E+03  2.48397E+03  9.52449E+03 -3.80099E+03  9.08464E+03
 -8.19629E+03  3.68040E+03 -8.22479E+03 -7.71762E+02 -4.34730E+03 -6.06812E+03  1.18066E+03 -5.91871E+03
  6.04684E+03 -2.61685E+03  5.52472E+03  2.33980E+03  1.83853E+03  5.59075E+03 -9.34851E+02  4.92486E+03
 -2.76566E+03  2.80382E+03 -2.70858E+03  1.09965E+03 -1.35697E+03  9.56186E+02 -1.05083E+03  2.05458E+03
 -2.28381E+03  3.69886E+03 -6.33795E+03  3.03175E+03 -9.79021E+03  3.00316E+02 -1.11621E+04 -6.70528E+03
 -5.58082E+03 -1.31420E+04  2.83516E+03 -1.47953E+04  9.24387E+03 -1.16725E+04  1.40331E+04 -4.74337E+03
  1.29303E+04  2.65619E+03  7.58956E+03  8.93812E+03  4.78455E+02  1.00710E+04 -4.12693E+03  7.80682E+03
 -5.72202E+03  3.01057E+03 -3.55064E+03 -9.65899E+02 -1.36788E+03 -7.15553E+02 -6.59482E+02 -5.73296E+02
 -1.90441E+03 -2.48097E+02 -2.50664E+03 -3.67117E+02 -4.43775E+02 -2.40377E+03  1.72911E+02 -3.91099E+03
  4.38465E+03 -3.19581E+03  5.92087E+03 -4.79736E+02  6.74003E+03  5.07778E+03  1.75115E+03  1.02897E+04
 -4.63059E+03  1.16215E+04 -1.11876E+04  7.18746E+03 -1.24670E+04 -1.03426E+03 -9.28423E+03 -7.64018E+03
 -3.75403E+03 -1.04182E+04  2.84303E+03 -9.78076E+03  6.39592E+03 -5.19106E+03  6.47147E+03  7.20396E+01
  3.75340E+03  3.13171E+03 -2.66725E+02  2.73655E+03 -1.65775E+03 -3.31034E+02 -7.87108E+01 -2.15618E+03
  3.03456E+03 -1.30109E+03  3.91913E+03  1.39066E+03  2.74953E+03  3.80562E+03 -2.84204E+02  5.47188E+03
 -4.58740E+03  4.83175E+03 -6.54593E+03  4.72920E+02 -5.98114E+03 -5.13927E+03 -8.49136E+02 -8.55615E+03
  4.62737E+03 -7.39848E+03  8.01458E+03 -2.01678E+03  7.81525E+03  2.07943E+03  4.61566E+03  6.37354E+03
  8.69133E+02  6.96047E+03 -2.69409E+03  5.38956E+03 -4.26058E+03  2.99467E+03 -3.86098E+03  5.56885E+02
 -1.97082E+03  1.05031E+01 -2.20974E+03  1.00093E+03 -3.20846E+03  9.28008E+02 -4.96807E+03 -1.03651E+03
 -5.39511E+03 -3.52257E+03 -1.88424E+03 -6.83176E+03  3.19633E+03 -7.26832E+03  6.20679E+03 -3.51863E+03
  6.62241E+03  9.98249E+02  3.50154E+03  5.10380E+03 -5.94419E+02  6.79834E+03 -5.50708E+03  4.29603E+03
