 $NMID ID='MM_0lb_SNR800_12hz_g45_57.RAW', FMTDAT='(8E13.5)'
 TRAMP=1., VOLUME=1. $END
  3.09804E+05  2.25362E+02  3.37633E+05  2.50683E+05  8.44531E+04  3.38002E+05 -1.32646E+05  2.51534E+05
 -1.90121E+05  8.36824E+04 -1.12279E+05 -3.22430E+04  8.02146E+02 -5.06242E+04  5.36878E+04 -3.82226E+02
  3.55263E+04  5.29724E+04 -1.63351E+04  7.58572E+04 -6.11485E+04  6.38540E+04 -8.43172E+04  3.20749E+04
 -8.12184E+04 -1.16297E+04 -5.72139E+04 -5.13836E+04 -1.50995E+04 -6.98493E+04  2.76566E+04 -4.57629E+04
  4.04483E+04  3.76261E+03  1.63939E+04  4.81858E+04 -3.44547E+04  4.69855E+04 -6.70952E+04 -7.22731E+01
 -5.37986E+04 -5.71946E+04 -6.85446E+03 -7.77309E+04  3.40061E+04 -5.54012E+04  4.84228E+04 -1.76468E+04
  4.38234E+04  1.16721E+04  3.21784E+04  2.59218E+04  1.56732E+04  2.98528E+04 -5.42807E+03  2.72965E+04
 -2.23796E+04  1.21862E+04 -1.86056E+04 -5.30901E+03  5.71826E+03 -7.13474E+03  2.26012E+04  1.26133E+04
  7.15137E+03  3.54805E+04 -3.26104E+04  3.59433E+04 -6.38076E+04  2.17458E+03 -5.74936E+04 -4.34162E+04
 -1.24312E+04 -6.39906E+04  4.03696E+04 -4.56657E+04  5.90611E+04 -2.04808E+03  3.54739E+04  3.30775E+04
 -6.07509E+03  3.73285E+04 -3.09557E+04  1.71698E+04 -3.14518E+04 -4.21569E+03 -1.75289E+04 -1.11946E+04
 -8.98637E+03 -1.36424E+04 -6.60037E+02 -1.85394E+04  7.87913E+03 -2.31393E+04  1.55005E+04 -1.31325E+04
  1.10274E+04  5.05056E+03 -9.07052E+03  1.28623E+04 -2.20197E+04 -5.03097E+03 -8.30277E+03 -3.45744E+04
  2.36287E+04 -4.49729E+04  4.94460E+04 -1.99815E+04  4.60944E+04  1.96273E+04  1.58182E+04  4.49816E+04
 -1.60202E+04  3.42129E+04 -2.60923E+04  1.80015E+03 -1.02608E+04 -2.79974E+04  2.10864E+04 -3.46889E+04
  4.20692E+04 -9.68566E+03  3.69320E+04  2.42340E+04  1.92653E+04  4.74187E+04 -7.91810E+03  5.19439E+04
 -3.28395E+04  3.54318E+04 -4.36680E+04  9.92709E+03 -4.42304E+04 -1.74509E+04 -2.42915E+04 -3.92375E+04
  7.20751E+03 -3.90431E+04  3.22779E+04 -1.52376E+04  3.05995E+04  1.11618E+04  4.37018E+03  1.98513E+04
 -1.34932E+04  8.61179E+03 -1.07320E+04 -7.61314E+03  5.56019E+03 -1.11514E+04  1.82776E+04  5.83996E+03
  1.34748E+04  2.21293E+04 -5.75823E+03  2.55795E+04 -2.27569E+04  1.20908E+04 -2.91653E+04 -3.88701E+03
 -2.21164E+04 -1.76420E+04 -9.49404E+03 -2.15525E+04  4.26445E+03 -2.14561E+04  1.67375E+04 -1.96032E+04
  2.80205E+04 -1.35160E+04  3.39483E+04  3.54323E+03  2.46706E+04  2.11353E+04  4.43607E+03  3.80275E+04
 -1.81440E+04  3.14827E+04 -2.85231E+04  1.12824E+04 -2.13837E+04 -1.04342E+04 -4.75667E+03 -1.32831E+04
  1.23972E+03 -2.09550E+03 -5.76580E+03  7.03482E+03 -1.71438E+04  4.94688E+03 -1.77721E+04 -7.75882E+03
 -1.05521E+04 -1.98357E+04  5.59597E+03 -2.45123E+04  1.61201E+04 -1.72428E+04  1.97381E+04 -1.60962E+03
  1.20613E+04  1.41321E+04 -1.39179E+03  2.00820E+04 -1.40672E+04  1.17024E+04 -2.04024E+04 -4.86364E+03
 -1.47836E+04 -1.81202E+04 -1.56315E+03 -2.45341E+04  1.05665E+04 -2.05904E+04  2.04130E+04 -9.97776E+03
  1.90698E+04  1.22252E+01  1.35510E+04  4.66491E+03  7.33639E+03  9.51169E+02  1.01846E+04 -1.89039E+03
  1.88070E+04  2.96195E+03  2.13125E+04  1.58382E+04  1.41850E+04  3.24153E+04 -2.64538E+03  3.71133E+04
 -2.15304E+04  3.02509E+04 -3.48023E+04  1.53478E+04 -3.69006E+04 -3.06268E+03 -3.02294E+04 -2.13299E+04
 -1.25256E+04 -3.04748E+04  1.05037E+04 -2.72216E+04  2.30490E+04 -1.34873E+04  2.08667E+04  6.25904E+03
  7.11694E+03  1.53614E+04 -9.89178E+03  1.37278E+04 -1.73202E+04  2.38594E+03 -1.34167E+04 -1.11709E+04
 -9.70733E+01 -1.65464E+04  8.58168E+03 -1.23097E+04  1.10964E+04 -1.25438E+03  2.45355E+03  7.19364E+03
 -7.06139E+03  2.69823E+03 -6.89572E+03 -6.17380E+03 -8.15211E+02 -1.47755E+04  1.02815E+04 -1.58064E+04
  1.82148E+04 -8.53620E+03  2.07245E+04  2.87259E+03  1.75458E+04  1.47327E+04  8.38351E+03  2.30015E+04
 -3.66571E+03  2.49216E+04 -1.61284E+04  1.53513E+04 -1.78445E+04  3.27068E+03 -1.29346E+04 -4.51632E+03
 -5.42195E+03 -5.53445E+03 -6.42782E+02  9.18360E+02 -2.46925E+03  3.10328E+03 -5.44379E+03  4.69800E+03
 -1.15813E+04 -6.44625E+02 -1.21218E+04 -9.97524E+03 -4.88168E+03 -1.59653E+04  4.93589E+03 -1.24095E+04
  1.08372E+04 -5.44022E+03  7.44275E+03  3.42671E+03  1.56665E+02  4.43930E+03 -6.14678E+03 -3.26209E+02
 -5.75994E+03 -8.18931E+03 -9.59493E+02 -1.20010E+04  6.99818E+03 -1.29377E+04  1.56688E+04 -6.74752E+03
  1.86797E+04  1.62263E+03  1.36495E+04  1.11459E+04  2.36214E+03  1.45890E+04 -7.77004E+03  1.24716E+04
 -1.03411E+04  3.80357E+03 -5.45690E+03 -2.48025E+03  1.88753E+03 -3.27365E+03  6.69026E+03 -1.17210E+03
  6.03209E+03  5.26096E+03  1.02922E+03  1.01026E+04 -7.32199E+03  9.49171E+03 -1.22594E+04  2.28892E+03
 -8.33411E+03 -6.33175E+03  3.08236E+02 -1.04651E+04  6.60140E+03 -5.56481E+03  6.75669E+03  1.98425E+03
  1.27082E+03  7.25944E+03 -6.16722E+03  8.93028E+03 -9.94801E+03  4.51772E+03 -1.00663E+04 -3.28229E+03
 -5.86758E+03 -1.18712E+04  2.86912E+03 -1.33206E+04  1.13585E+04 -8.33210E+03  1.22051E+04  2.45310E+03
  8.01207E+03  9.73406E+03 -7.95201E+02  1.20050E+04 -8.99648E+03  6.82881E+03 -9.61766E+03 -7.15632E+02
 -8.46293E+03 -8.58439E+03 -1.70672E+03 -8.85899E+03  4.49202E+03 -7.59087E+03  5.51503E+03 -3.44252E+03
  4.23332E+03  9.89127E+02 -5.18735E+02  2.04828E+03 -2.04407E+02 -1.90933E+03  1.38942E+03 -4.59404E+03
  7.95194E+03 -2.99962E+03  1.12806E+04  1.07650E+03  1.09318E+04  7.42209E+03  8.09088E+03  1.50847E+04
 -3.41694E+03  1.73562E+04 -1.46647E+04  1.28577E+04 -1.87439E+04  2.36592E+03 -1.50184E+04 -6.36638E+03
 -7.79903E+03 -1.22384E+04 -7.25039E+01 -1.04448E+04  3.87612E+03 -5.60648E+03  3.60514E+03 -3.64366E+03
  2.81844E+03 -2.36038E+03  3.12205E+03 -3.23519E+03  4.84886E+03 -2.57681E+03  6.06258E+03 -7.36381E+02
  8.27936E+03  2.00496E+03  3.69814E+03  6.60205E+03 -1.62150E+03  7.47044E+03 -8.21384E+03  5.97358E+03
 -1.05293E+04 -1.27196E+03 -5.98086E+03 -7.39126E+03 -3.89872E+02 -1.08006E+04  6.46184E+03 -1.09085E+04
  1.14384E+04 -6.16994E+03  1.41505E+04  1.60481E+03  9.87363E+03  9.32692E+03  1.43259E+03  1.25909E+04
 -4.69913E+03  1.08122E+04 -7.37035E+03  3.61328E+03 -4.53797E+03 -1.45848E+03 -1.99783E+03 -1.40272E+03
 -9.57603E+02  7.14041E+01 -1.99908E+03  2.50891E+03 -4.72227E+03  1.85361E+03 -7.27482E+03 -9.24908E+02
 -4.94380E+03 -7.25154E+03  6.35925E+02 -1.00589E+04  6.08640E+03 -9.29869E+03  9.46306E+03 -3.01998E+03
  9.73167E+03  4.64534E+03  4.42534E+03  8.70922E+03 -1.86667E+03  1.02562E+04 -7.33936E+03  6.30585E+03
 -9.01321E+03  3.10779E+02 -7.27480E+03 -5.72144E+03 -9.31229E+02 -8.05334E+03  4.07690E+03 -6.09631E+03
  6.37188E+03 -1.90669E+03  4.21340E+03  1.47652E+03  1.14365E+03  3.30649E+03  9.01310E+02  1.36757E+03
  2.22838E+03  7.81227E+02  2.47726E+03  1.21485E+03  2.68785E+03  3.61516E+03  3.01440E+03  5.02522E+03
 -2.11976E+03  7.65732E+03 -6.84752E+03  8.25219E+03 -9.64354E+03  2.08476E+03 -1.01880E+04 -3.43068E+03
 -4.62201E+03 -9.93898E+03  9.89805E+02 -1.07693E+04  5.97491E+03 -7.03984E+03  7.90719E+03 -2.00416E+03
  5.98870E+03  3.81379E+03  1.36519E+03  5.42270E+03 -2.26194E+03  3.31917E+03 -3.72970E+03 -3.97075E+02
 -1.83643E+03 -4.08853E+03  2.33302E+03 -4.37823E+03  4.04062E+03 -2.08366E+03  3.93734E+03  8.89048E+02
  2.37817E+03  2.14703E+03  1.19603E+03  9.27575E+02 -5.56851E+02  1.18637E+03  1.72740E+03 -4.42235E+02
  1.31799E+03 -5.66906E+02  3.98212E+03  1.77810E+03  1.83335E+03  5.24993E+03 -5.79780E+02  6.75973E+03
 -4.28632E+03  4.08203E+03 -6.34533E+03  1.41212E+03 -5.39819E+03 -2.06099E+03 -1.64147E+03 -3.76749E+03
  6.39166E+02 -3.67538E+03  2.70304E+03 -1.75482E+03  2.17768E+03  2.05097E+03 -8.59757E+02  2.93514E+03
 -3.83776E+03  1.93502E+03 -4.52016E+03 -2.13925E+03 -2.35351E+03 -5.40218E+03  6.16949E+02 -5.05537E+03
  2.81121E+03 -2.95928E+03  3.53961E+03 -3.30970E+02  2.90485E+03  1.08233E+03  3.51612E+02  2.80802E+03
 -1.59950E+03  6.00247E+02 -2.55795E+03 -1.80274E+03  1.03081E+03 -3.43177E+03  4.90818E+03 -3.10280E+03
  5.58944E+03  6.13273E+02  6.06968E+03  3.51291E+03  2.18358E+03  5.77523E+03 -2.18637E+03  5.64271E+03
 -4.66863E+03  2.21193E+03 -4.61398E+03 -8.51111E+02 -2.72513E+03 -4.26890E+03  1.03915E+03 -3.37665E+03
  3.90965E+03 -1.63634E+03  3.12370E+03  1.60895E+03  1.10335E+03  3.19977E+03 -9.15782E+02  3.03011E+03
 -1.40013E+03  1.95554E+03 -1.59792E+03  6.12392E+02 -6.37108E+02  8.88810E+02 -1.33778E+03  8.21504E+02
 -2.05464E+03  2.54207E+03 -3.94565E+03  2.07229E+03 -5.70305E+03  1.70359E+02 -6.62229E+03 -3.51886E+03
 -3.39276E+03 -7.70961E+03  1.55160E+03 -8.81146E+03  5.13236E+03 -7.05924E+03  8.72465E+03 -2.81599E+03
  7.87373E+03  1.08396E+03  4.71362E+03  5.21666E+03  1.72147E+02  6.04632E+03 -2.38625E+03  4.34124E+03
 -3.20348E+03  1.56246E+03 -1.88979E+03 -8.22171E+02 -8.62458E+02 -1.92734E+02 -9.32837E+02 -2.22271E+02
 -1.28299E+03 -3.79233E+01 -1.79621E+03 -1.26262E+02 -5.86715E+01 -1.61862E+03 -1.01326E+02 -2.25918E+03
  2.86339E+03 -1.87242E+03  3.47152E+03  1.55653E+01  4.17315E+03  3.12706E+03  8.70409E+02  5.81168E+03
 -3.09564E+03  7.03266E+03 -6.47425E+03  4.32180E+03 -6.97849E+03 -3.50450E+02 -5.39817E+03 -4.39703E+03
 -2.38565E+03 -5.82854E+03  1.70095E+03 -5.47805E+03  3.43563E+03 -2.50907E+03  3.21531E+03  3.75321E+02
  2.18857E+03  1.98621E+03 -2.16942E+02  1.38038E+03 -1.05334E+03 -2.23502E+02  1.58548E+02 -1.14851E+03
  1.55104E+03 -5.01432E+02  1.99859E+03  1.21366E+03  1.05409E+03  2.13415E+03  4.80813E+02  2.74579E+03
 -2.28597E+03  2.35590E+03 -3.76899E+03  3.51644E+02 -3.23176E+03 -2.70799E+03  1.73750E+02 -4.63920E+03
  2.50570E+03 -3.81639E+03  4.25804E+03 -1.16724E+03  3.94310E+03  9.57106E+02  2.50353E+03  3.47621E+03
  4.22467E+02  3.59434E+03 -1.09985E+03  2.89027E+03 -2.38139E+03  1.86066E+03 -1.92106E+03  7.52480E+02
 -8.51158E+02 -2.51983E+02 -1.15108E+03  4.91958E+02 -1.89789E+03  6.20918E+02 -2.41382E+03 -6.93025E+02
 -2.90709E+03 -1.85405E+03 -9.42705E+02 -3.81336E+03  1.86608E+03 -4.12749E+03  3.24502E+03 -1.68648E+03
  3.69794E+03  6.18419E+02  1.37490E+03  2.44236E+03 -3.65525E+02  3.68380E+03 -2.56722E+03  2.62035E+03
