 $NMID ID='MM_0lb_SNR800_9hz_g40_25.RAW', FMTDAT='(8E13.5)'
 TRAMP=1., VOLUME=1. $END
  3.09854E+05 -1.43811E+02  3.38081E+05  2.50548E+05  8.50427E+04  3.38388E+05 -1.32910E+05  2.51813E+05
 -1.90615E+05  8.35776E+04 -1.12570E+05 -3.23797E+04  1.59845E+02 -5.09207E+04  5.36661E+04 -3.49981E+02
  3.56607E+04  5.30786E+04 -1.66399E+04  7.62126E+04 -6.07026E+04  6.41577E+04 -8.50224E+04  3.27519E+04
 -8.20250E+04 -1.18049E+04 -5.81689E+04 -5.22132E+04 -1.52022E+04 -7.05621E+04  2.80040E+04 -4.64798E+04
  4.07189E+04  3.74627E+03  1.70060E+04  4.81358E+04 -3.42654E+04  4.80922E+04 -6.84564E+04 -1.62263E+02
 -5.50728E+04 -5.75095E+04 -7.42720E+03 -7.89237E+04  3.43354E+04 -5.68264E+04  4.97812E+04 -1.81478E+04
  4.54885E+04  1.15890E+04  3.23127E+04  2.59883E+04  1.58614E+04  3.03460E+04 -5.61172E+03  2.74600E+04
 -2.19786E+04  1.20150E+04 -1.79035E+04 -5.52273E+03  6.87344E+03 -7.55384E+03  2.32797E+04  1.36894E+04
  6.62166E+03  3.72771E+04 -3.35073E+04  3.69915E+04 -6.56849E+04  2.27012E+03 -5.83435E+04 -4.40952E+04
 -1.21072E+04 -6.50517E+04  4.12993E+04 -4.69967E+04  6.02088E+04 -2.56187E+03  3.63096E+04  3.38496E+04
 -5.50703E+03  3.88645E+04 -3.15779E+04  1.81369E+04 -3.23313E+04 -4.02839E+03 -1.88669E+04 -1.19095E+04
 -9.15998E+03 -1.49038E+04 -6.12231E+02 -1.95509E+04  8.51959E+03 -2.34703E+04  1.56785E+04 -1.25677E+04
  1.06313E+04  6.02529E+03 -1.02486E+04  1.29752E+04 -2.28098E+04 -5.89952E+03 -8.74804E+03 -3.65114E+04
  2.51193E+04 -4.62274E+04  5.13317E+04 -2.03871E+04  4.78174E+04  2.09449E+04  1.70588E+04  4.65362E+04
 -1.64766E+04  3.59091E+04 -2.72401E+04  2.63339E+03 -1.13754E+04 -2.91904E+04  2.15436E+04 -3.62406E+04
  4.40090E+04 -1.05423E+04  3.92933E+04  2.43013E+04  2.09915E+04  4.96357E+04 -7.92354E+03  5.51338E+04
 -3.44445E+04  3.77740E+04 -4.61481E+04  1.06937E+04 -4.65875E+04 -1.79948E+04 -2.55825E+04 -4.09448E+04
  8.19298E+03 -4.13386E+04  3.38047E+04 -1.68291E+04  3.16634E+04  1.13878E+04  5.52264E+03  2.05601E+04
 -1.40208E+04  9.41741E+03 -1.11603E+04 -7.39323E+03  5.62222E+03 -1.15187E+04  1.84562E+04  6.03405E+03
  1.45226E+04  2.26175E+04 -5.27721E+03  2.69433E+04 -2.30486E+04  1.38783E+04 -3.09522E+04 -3.34291E+03
 -2.45113E+04 -1.82491E+04 -1.12168E+04 -2.41108E+04  4.23026E+03 -2.42407E+04  1.88863E+04 -2.20238E+04
  3.11084E+04 -1.37092E+04  3.71642E+04  4.66684E+03  2.66227E+04  2.34496E+04  4.40613E+03  4.02516E+04
 -1.96087E+04  3.33702E+04 -3.02080E+04  1.15219E+04 -2.18127E+04 -1.01322E+04 -4.37857E+03 -1.25804E+04
  8.46030E+02 -1.77135E+03 -7.28934E+03  8.04282E+03 -1.99416E+04  4.70379E+03 -1.92463E+04 -9.01217E+03
 -1.18358E+04 -2.27870E+04  6.30912E+03 -2.67921E+04  1.82745E+04 -1.94979E+04  2.22320E+04 -1.41479E+03
  1.41221E+04  1.54326E+04 -1.41750E+03  2.24488E+04 -1.61973E+04  1.29161E+04 -2.29232E+04 -4.45977E+03
 -1.65891E+04 -2.01765E+04 -2.04084E+03 -2.70202E+04  1.20524E+04 -2.28073E+04  2.25027E+04 -1.17145E+04
  2.09601E+04 -2.38668E+02  1.52077E+04  5.16519E+03  8.41231E+03  9.84165E+02  1.20055E+04 -1.99065E+03
  2.15132E+04  2.76840E+03  2.42146E+04  1.76527E+04  1.64357E+04  3.63793E+04 -2.70915E+03  4.29404E+04
 -2.43755E+04  3.49067E+04 -4.00032E+04  1.83051E+04 -4.26440E+04 -3.09785E+03 -3.46590E+04 -2.49695E+04
 -1.41212E+04 -3.54012E+04  1.25197E+04 -3.10912E+04  2.65608E+04 -1.48381E+04  2.32641E+04  7.31875E+03
  8.20944E+03  1.79078E+04 -1.13669E+04  1.49967E+04 -1.96332E+04  2.48257E+03 -1.51735E+04 -1.23842E+04
  1.47727E+02 -1.88019E+04  9.80027E+03 -1.37555E+04  1.27720E+04 -1.85481E+03  3.28286E+03  8.08035E+03
 -8.56301E+03  3.80070E+03 -8.23466E+03 -6.57405E+03 -1.31794E+03 -1.73206E+04  1.13848E+04 -1.86919E+04
  2.18805E+04 -1.08152E+04  2.50917E+04  3.17090E+03  2.12743E+04  1.76759E+04  1.05583E+04  2.74686E+04
 -5.03721E+03  2.94372E+04 -1.90550E+04  1.82678E+04 -2.16045E+04  3.93418E+03 -1.46438E+04 -5.66426E+03
 -6.51030E+03 -6.60038E+03 -5.66659E+02  3.03881E+02 -3.02624E+03  3.60230E+03 -6.90514E+03  5.37435E+03
 -1.35807E+04 -1.14624E+03 -1.42385E+04 -1.13689E+04 -5.37507E+03 -1.87447E+04  5.73041E+03 -1.50204E+04
  1.21626E+04 -6.15266E+03  8.58400E+03  3.98706E+03 -3.24677E+02  5.95648E+03 -7.29719E+03 -4.14187E+02
 -7.17697E+03 -9.47977E+03 -1.22552E+03 -1.43359E+04  8.88045E+03 -1.55783E+04  1.90121E+04 -8.26783E+03
  2.25833E+04  2.13298E+03  1.61429E+04  1.33356E+04  2.66612E+03  1.81335E+04 -9.01830E+03  1.44377E+04
 -1.21173E+04  4.31501E+03 -6.12520E+03 -3.48275E+03  2.00325E+03 -3.94584E+03  7.70586E+03 -7.40227E+02
  7.07303E+03  6.82311E+03  1.12948E+03  1.19848E+04 -8.18768E+03  1.13661E+04 -1.49656E+04  2.60333E+03
 -1.01062E+04 -8.03043E+03  2.01218E+02 -1.24677E+04  7.93743E+03 -6.87362E+03  8.54628E+03  3.29509E+03
  2.31265E+03  9.84492E+03 -7.83812E+03  1.10078E+04 -1.29915E+04  5.07145E+03 -1.28164E+04 -4.58630E+03
 -7.85277E+03 -1.48740E+04  4.00605E+03 -1.74416E+04  1.44883E+04 -9.99804E+03  1.59322E+04  2.67810E+03
  9.19592E+03  1.24665E+04 -1.58842E+03  1.50212E+04 -1.11222E+04  8.29917E+03 -1.21203E+04 -1.17982E+03
 -1.02328E+04 -9.98089E+03 -2.16074E+03 -1.13909E+04  5.91540E+03 -8.96743E+03  7.47640E+03 -3.83392E+03
  5.01396E+03  1.62911E+03 -1.06557E+03  1.78858E+03 -6.29367E+02 -3.36721E+03  2.21605E+03 -6.84809E+03
  1.08442E+04 -4.83124E+03  1.55184E+04  1.72839E+03  1.46348E+04  1.00218E+04  9.82544E+03  1.94132E+04
 -4.37010E+03  2.26929E+04 -1.87045E+04  1.65882E+04 -2.40823E+04  3.28487E+03 -1.94857E+04 -8.81239E+03
 -9.96131E+03 -1.64141E+04  3.99531E+00 -1.39690E+04  4.69922E+03 -7.98167E+03  5.23430E+03 -5.12930E+03
  3.70532E+03 -2.86054E+03  3.53222E+03 -3.84054E+03  5.58391E+03 -3.53309E+03  7.72455E+03 -1.17411E+03
  1.03385E+04  2.07690E+03  5.51352E+03  8.84339E+03 -2.35844E+03  1.07316E+04 -1.07621E+04  8.06780E+03
 -1.37234E+04 -1.30250E+03 -8.84737E+03 -9.70720E+03 -1.51805E+03 -1.47146E+04  8.04110E+03 -1.48577E+04
  1.55587E+04 -8.62692E+03  1.88488E+04  2.36782E+03  1.28510E+04  1.27184E+04  2.28174E+03  1.65123E+04
 -6.93385E+03  1.34134E+04 -9.97127E+03  4.87108E+03 -7.03085E+03 -1.68754E+03 -2.94998E+03 -2.09497E+03
 -1.57309E+03 -3.65498E+02 -2.20522E+03  2.80996E+03 -6.02053E+03  2.37391E+03 -9.60167E+03 -1.25057E+03
 -6.40395E+03 -9.19519E+03 -2.99218E+02 -1.36101E+04  8.98227E+03 -1.28484E+04  1.38210E+04 -3.55702E+03
  1.37003E+04  6.81056E+03  6.92573E+03  1.23506E+04 -2.94570E+03  1.43835E+04 -1.00973E+04  8.84242E+03
 -1.30876E+04  6.85746E+02 -1.03451E+04 -8.59383E+03 -1.07052E+03 -1.17223E+04  5.73195E+03 -8.35938E+03
  8.52307E+03 -3.02515E+03  6.14412E+03  2.50688E+03  2.12441E+03  4.08964E+03  1.50623E+03  1.83299E+03
  3.06030E+03  1.45075E+03  3.48227E+03  1.94330E+03  4.35563E+03  4.72281E+03  3.62194E+03  7.50887E+03
 -3.05039E+03  1.10858E+04 -9.64721E+03  1.09925E+04 -1.45313E+04  3.21231E+03 -1.47470E+04 -5.97281E+03
 -7.28700E+03 -1.40579E+04  2.12776E+03 -1.57608E+04  8.94310E+03 -1.00195E+04  1.18536E+04 -2.57229E+03
  9.02725E+03  5.16073E+03  1.80982E+03  8.11124E+03 -3.97722E+03  5.19724E+03 -5.70500E+03 -5.87124E+02
 -2.54936E+03 -6.26645E+03  2.78217E+03 -6.36006E+03  5.82230E+03 -2.68852E+03  5.84885E+03  1.56197E+03
  3.30203E+03  2.97116E+03  1.55799E+03  2.52304E+03 -5.93921E+02  1.77549E+03  1.62076E+03 -6.04456E+02
  2.02471E+03 -1.01715E+03  5.88164E+03  2.25841E+03  3.44716E+03  7.93175E+03 -1.22383E+03  1.02717E+04
 -7.12379E+03  6.33865E+03 -9.03745E+03  1.51525E+03 -8.09362E+03 -3.51872E+03 -3.02448E+03 -5.74568E+03
  7.23050E+02 -5.66075E+03  3.41273E+03 -2.82344E+03  3.20959E+03  2.65305E+03 -1.42108E+03  4.73839E+03
 -5.89205E+03  2.97412E+03 -6.69104E+03 -3.54048E+03 -3.78052E+03 -7.57094E+03  1.12336E+03 -8.02702E+03
  4.73695E+03 -4.86309E+03  5.40073E+03 -4.29263E+02  4.66152E+03  2.10342E+03  6.83624E+02  4.31962E+03
 -3.05620E+03  1.39127E+03 -2.99386E+03 -2.83410E+03  1.76301E+03 -6.42882E+03  7.33287E+03 -4.89403E+03
  9.15887E+03  6.18469E+02  8.85121E+03  6.29218E+03  2.88125E+03  9.48759E+03 -3.24119E+03  9.26188E+03
 -7.52056E+03  4.18515E+03 -8.09374E+03 -1.29000E+03 -4.26255E+03 -5.87042E+03  1.62301E+03 -5.86434E+03
  5.87607E+03 -2.92452E+03  5.08869E+03  1.96541E+03  1.70467E+03  5.34262E+03 -1.05965E+03  4.33921E+03
 -2.34104E+03  3.24864E+03 -2.34840E+03  9.25219E+02 -8.07332E+02  1.11488E+03 -1.71415E+03  1.98418E+03
 -2.18682E+03  3.43517E+03 -6.17498E+03  3.19025E+03 -9.19609E+03  3.44197E+02 -1.05309E+04 -6.17690E+03
 -5.61962E+03 -1.21945E+04  2.45494E+03 -1.45433E+04  8.75172E+03 -1.13771E+04  1.38070E+04 -4.69131E+03
  1.27767E+04  2.39880E+03  7.81464E+03  8.81796E+03  4.83560E+02  9.87143E+03 -4.01286E+03  6.88851E+03
 -5.51036E+03  3.04687E+03 -3.44602E+03 -1.05006E+03 -8.79265E+02 -7.43264E+02 -4.63236E+02  2.30283E+02
 -1.70654E+03  7.46024E+01 -2.59815E+03 -3.05192E+02 -6.55558E+02 -2.39266E+03  3.62288E+02 -3.51505E+03
  4.41725E+03 -3.12540E+03  6.04425E+03 -1.48635E+02  6.93446E+03  5.15134E+03  1.92557E+03  9.63728E+03
 -4.77037E+03  1.13710E+04 -1.04959E+04  6.02166E+03 -1.21965E+04 -1.11059E+03 -8.91072E+03 -7.41812E+03
 -3.73958E+03 -1.02802E+04  2.71221E+03 -9.05901E+03  6.31468E+03 -5.28706E+03  6.22247E+03  4.94465E+02
  3.69675E+03  3.06563E+03 -2.55062E+02  2.76607E+03 -1.76942E+03 -1.75036E+02  4.07330E+02 -2.10220E+03
  3.21708E+03 -1.39716E+03  4.06843E+03  1.25633E+03  2.46476E+03  3.73818E+03  3.69318E+01  5.16068E+03
 -4.42349E+03  4.56018E+03 -6.40244E+03  4.90922E+02 -5.94943E+03 -4.67778E+03 -1.13116E+03 -8.43300E+03
  4.55839E+03 -6.83677E+03  7.65275E+03 -2.33539E+03  7.84984E+03  1.70349E+03  4.59988E+03  6.16798E+03
  7.69066E+02  6.33155E+03 -2.80212E+03  5.34940E+03 -4.12337E+03  3.05949E+03 -3.41761E+03  2.86077E+02
 -2.04801E+03 -2.25921E+02 -2.20163E+03  9.49051E+02 -3.43627E+03  1.36131E+03 -4.83486E+03 -1.24731E+03
 -4.88372E+03 -3.15015E+03 -1.71331E+03 -6.57104E+03  3.22498E+03 -7.36529E+03  5.74819E+03 -3.04759E+03
  6.64274E+03  7.61284E+02  3.81820E+03  4.79726E+03 -8.15489E+02  6.84836E+03 -5.55205E+03  4.18972E+03
