 $NMID ID='MM_0lb_SNR800_14hz_g50_32.RAW', FMTDAT='(8E13.5)'
 TRAMP=1., VOLUME=1. $END
  3.09767E+05  3.44886E+02  3.37453E+05  2.50233E+05  8.43903E+04  3.38194E+05 -1.32675E+05  2.51372E+05
 -1.90316E+05  8.28873E+04 -1.11669E+05 -3.28170E+04  8.90770E+02 -5.03766E+04  5.34847E+04 -3.37454E+02
  3.53072E+04  5.27335E+04 -1.68442E+04  7.57166E+04 -6.03211E+04  6.31356E+04 -8.40905E+04  3.19761E+04
 -8.06181E+04 -1.13956E+04 -5.71923E+04 -5.12519E+04 -1.49473E+04 -7.00081E+04  2.73884E+04 -4.58874E+04
  4.05376E+04  4.04242E+03  1.60112E+04  4.81672E+04 -3.42282E+04  4.73602E+04 -6.70132E+04 -1.87067E+02
 -5.34454E+04 -5.67950E+04 -6.77699E+03 -7.72708E+04  3.38772E+04 -5.47046E+04  4.82753E+04 -1.71865E+04
  4.37887E+04  1.09668E+04  3.19296E+04  2.57131E+04  1.56975E+04  2.96639E+04 -5.33277E+03  2.74399E+04
 -2.19981E+04  1.21739E+04 -1.84729E+04 -4.61763E+03  5.75615E+03 -7.45694E+03  2.25357E+04  1.19036E+04
  7.54024E+03  3.51818E+04 -3.21658E+04  3.55725E+04 -6.37589E+04  2.44456E+03 -5.73486E+04 -4.28955E+04
 -1.24389E+04 -6.31703E+04  3.97369E+04 -4.54178E+04  5.85828E+04 -2.26164E+03  3.45843E+04  3.25648E+04
 -6.06506E+03  3.61238E+04 -3.00721E+04  1.58704E+04 -3.05229E+04 -4.64136E+03 -1.66949E+04 -1.08377E+04
 -8.39853E+03 -1.31699E+04 -3.52113E+02 -1.78913E+04  7.31706E+03 -2.31492E+04  1.53036E+04 -1.31496E+04
  1.13082E+04  5.21640E+03 -8.64779E+03  1.25238E+04 -2.13941E+04 -4.23019E+03 -8.49368E+03 -3.35552E+04
  2.30489E+04 -4.36710E+04  4.80160E+04 -1.95202E+04  4.52626E+04  1.93491E+04  1.61484E+04  4.42473E+04
 -1.59586E+04  3.35433E+04 -2.57734E+04  1.65171E+03 -9.76134E+03 -2.77477E+04  2.09189E+04 -3.41575E+04
  4.12193E+04 -9.02361E+03  3.56376E+04  2.35583E+04  1.80077E+04  4.67110E+04 -8.07536E+03  5.07476E+04
 -3.15655E+04  3.38413E+04 -4.23115E+04  9.57679E+03 -4.29867E+04 -1.68643E+04 -2.35288E+04 -3.78194E+04
  7.40252E+03 -3.78230E+04  3.13517E+04 -1.50016E+04  2.93810E+04  1.08417E+04  4.07645E+03  1.93626E+04
 -1.35765E+04  8.27876E+03 -1.01579E+04 -7.26216E+03  5.78744E+03 -1.06507E+04  1.78271E+04  5.93138E+03
  1.36774E+04  2.23509E+04 -6.02466E+03  2.52666E+04 -2.24627E+04  1.18861E+04 -2.81830E+04 -4.73900E+03
 -2.04256E+04 -1.74626E+04 -8.34533E+03 -2.04185E+04  4.22810E+03 -1.98806E+04  1.63577E+04 -1.84160E+04
  2.61080E+04 -1.32239E+04  3.27862E+04  2.86982E+03  2.41228E+04  1.97714E+04  4.13540E+03  3.65066E+04
 -1.78141E+04  3.04802E+04 -2.78970E+04  1.05159E+04 -2.08237E+04 -1.00195E+04 -4.50159E+03 -1.34710E+04
  1.92544E+03 -2.46237E+03 -4.92159E+03  6.72638E+03 -1.64695E+04  5.03713E+03 -1.65664E+04 -7.16820E+03
 -1.02594E+04 -1.86017E+04  5.04870E+03 -2.32241E+04  1.53638E+04 -1.69291E+04  1.85148E+04 -1.48670E+03
  1.17932E+04  1.31629E+04 -8.91807E+02  1.90279E+04 -1.32450E+04  1.09453E+04 -1.94655E+04 -3.85210E+03
 -1.40279E+04 -1.71440E+04 -2.08832E+03 -2.29750E+04  1.03692E+04 -1.89839E+04  1.91192E+04 -9.41110E+03
  1.77926E+04  2.22222E+02  1.30268E+04  4.23030E+03  6.69723E+03  1.13061E+03  9.77311E+03 -1.78256E+03
  1.73881E+04  2.67592E+03  1.91969E+04  1.52688E+04  1.26291E+04  3.03294E+04 -3.06264E+03  3.41304E+04
 -1.99978E+04  2.78026E+04 -3.20366E+04  1.40591E+04 -3.38155E+04 -2.38641E+03 -2.75686E+04 -1.93948E+04
 -1.20056E+04 -2.76970E+04  9.52729E+03 -2.48083E+04  2.15929E+04 -1.30228E+04  1.94195E+04  5.70285E+03
  7.25531E+03  1.44957E+04 -8.92030E+03  1.30164E+04 -1.65155E+04  2.75049E+03 -1.24022E+04 -1.01403E+04
 -3.49929E+02 -1.54695E+04  8.09781E+03 -1.15466E+04  1.03023E+04 -1.26932E+03  2.28389E+03  6.53778E+03
 -6.92826E+03  2.56840E+03 -6.24903E+03 -5.69527E+03 -4.11726E+02 -1.36706E+04  9.18337E+03 -1.39824E+04
  1.70347E+04 -7.32213E+03  1.77953E+04  2.86092E+03  1.57853E+04  1.32149E+04  7.20250E+03  2.02958E+04
 -3.37157E+03  2.22191E+04 -1.42894E+04  1.36719E+04 -1.62163E+04  3.36214E+03 -1.13237E+04 -3.43809E+03
 -5.64658E+03 -4.87520E+03 -9.48211E+02  1.11645E+03 -2.30446E+03  2.47947E+03 -4.93111E+03  4.66130E+03
 -1.05829E+04 -6.91882E+02 -1.11228E+04 -9.07429E+03 -4.58524E+03 -1.49791E+04  4.78119E+03 -1.15850E+04
  9.54797E+03 -5.18477E+03  6.77002E+03  3.22246E+03 -5.19458E+01  4.40287E+03 -4.69991E+03 -6.59440E+01
 -5.09060E+03 -7.21472E+03 -6.64477E+02 -1.08319E+04  6.41258E+03 -1.13836E+04  1.41507E+04 -5.93665E+03
  1.67606E+04  1.54651E+03  1.20061E+04  9.57587E+03  2.19759E+03  1.29892E+04 -6.90615E+03  1.14128E+04
 -9.31112E+03  3.64733E+03 -4.74826E+03 -2.15045E+03  1.70966E+03 -3.18858E+03  6.20164E+03 -1.05045E+03
  5.28785E+03  4.75024E+03  1.17333E+03  8.67643E+03 -6.66386E+03  8.81216E+03 -1.09728E+04  2.08885E+03
 -7.15488E+03 -5.54698E+03  3.42525E+02 -9.65946E+03  5.48374E+03 -4.74558E+03  5.80344E+03  1.97715E+03
  1.28629E+03  5.93305E+03 -5.67118E+03  7.65799E+03 -8.51630E+03  3.52308E+03 -8.36587E+03 -3.17523E+03
 -5.29184E+03 -9.56562E+03  2.42437E+03 -1.13531E+04  9.65172E+03 -6.87000E+03  1.02722E+04  1.80779E+03
  6.83407E+03  8.01155E+03 -3.93714E+02  1.05009E+04 -7.52460E+03  5.82035E+03 -8.13390E+03 -6.20129E+02
 -7.98740E+03 -7.19314E+03 -1.67731E+03 -7.42678E+03  4.10023E+03 -6.32232E+03  4.95746E+03 -3.38784E+03
  3.57097E+03  1.05628E+03 -7.45837E+02  1.60865E+03 -8.39125E+01 -1.54066E+03  1.12504E+03 -3.95833E+03
  6.76446E+03 -2.25460E+03  9.12479E+03  1.06497E+03  9.39150E+03  6.17979E+03  7.22503E+03  1.22154E+04
 -2.74225E+03  1.43786E+04 -1.22181E+04  1.05749E+04 -1.59354E+04  2.05957E+03 -1.25698E+04 -4.69050E+03
 -6.55967E+03 -1.04122E+04 -3.31526E+02 -8.40571E+03  3.10527E+03 -4.27087E+03  2.73477E+03 -3.31811E+03
  2.23669E+03 -2.03641E+03  3.01806E+03 -3.03043E+03  4.33610E+03 -2.05057E+03  5.57328E+03 -2.07042E+02
  6.86036E+03  1.71648E+03  2.86191E+03  5.72497E+03 -1.67175E+03  6.35191E+03 -6.89406E+03  4.84433E+03
 -8.57697E+03 -1.25774E+03 -4.65158E+03 -5.83530E+03 -1.63309E+02 -9.07633E+03  5.30072E+03 -9.78745E+03
  9.48562E+03 -5.29899E+03  1.15691E+04  1.16599E+03  8.08846E+03  7.64884E+03  1.66933E+03  1.04224E+04
 -3.96360E+03  9.07537E+03 -6.02121E+03  2.82216E+03 -4.03936E+03 -1.17861E+03 -1.29043E+03 -1.06774E+03
 -9.86526E+02  1.74082E+02 -1.36370E+03  2.30637E+03 -3.78260E+03  1.60294E+03 -6.25765E+03 -9.33925E+02
 -3.43071E+03 -6.56162E+03  6.41247E+02 -8.24756E+03  4.65425E+03 -7.68202E+03  7.66575E+03 -2.43803E+03
  7.68091E+03  4.01743E+03  3.50839E+03  6.82384E+03 -1.48757E+03  8.10413E+03 -5.18750E+03  5.25124E+03
 -7.01628E+03  9.82331E+02 -6.04124E+03 -4.47576E+03 -4.20182E+02 -6.65816E+03  3.38753E+03 -4.49320E+03
  5.18281E+03 -1.74415E+03  3.57899E+03  1.01226E+03  1.18287E+03  2.43447E+03  1.14088E+03  1.34036E+03
  2.44467E+03  7.29567E+02  1.82137E+03  1.47320E+03  2.08630E+03  3.15162E+03  2.11532E+03  3.93298E+03
 -2.10308E+03  5.99620E+03 -5.47096E+03  6.75055E+03 -7.28788E+03  1.67355E+03 -8.20158E+03 -2.47192E+03
 -3.34987E+03 -7.42278E+03  1.11030E+03 -8.56908E+03  4.22488E+03 -5.13739E+03  6.57249E+03 -1.51953E+03
  4.71939E+03  2.81452E+03  8.87602E+02  4.43106E+03 -1.79897E+03  2.68322E+03 -2.75673E+03 -5.95958E+02
 -1.76350E+03 -3.03426E+03  2.00498E+03 -3.28976E+03  2.94326E+03 -2.12284E+03  2.84545E+03  8.50294E+02
  1.74855E+03  1.33441E+03  8.19030E+02  5.36873E+02 -3.73938E+02  1.33035E+03  1.51009E+03 -3.49344E+02
  8.63037E+02 -3.52054E+02  3.57594E+03  1.23436E+03  1.52816E+03  4.37721E+03 -5.27730E+02  5.51779E+03
 -3.28991E+03  3.11692E+03 -4.87769E+03  7.69354E+02 -4.04385E+03 -1.31907E+03 -1.05336E+03 -2.56666E+03
  5.90518E+02 -2.48735E+03  2.02284E+03 -1.35228E+03  1.54558E+03  2.03606E+03 -9.49301E+02  2.69241E+03
 -3.11367E+03  1.54943E+03 -3.11878E+03 -1.74371E+03 -1.84502E+03 -4.07275E+03  5.00922E+02 -3.63483E+03
  1.96861E+03 -1.83185E+03  2.36138E+03 -5.84348E+01  2.58340E+03  1.01061E+03  4.48503E+02  2.09990E+03
 -8.44645E+02  7.88528E+02 -1.80135E+03 -1.19034E+03  9.19732E+02 -2.38730E+03  3.49874E+03 -2.33692E+03
  4.11687E+03  5.19019E+02  4.58470E+03  2.56489E+03  1.81849E+03  4.42652E+03 -1.63832E+03  4.40042E+03
 -3.58448E+03  1.59310E+03 -3.52156E+03 -3.83362E+02 -2.05216E+03 -3.00018E+03  7.76660E+02 -2.30767E+03
  2.98906E+03 -1.51766E+03  2.19464E+03  1.06867E+03  6.50190E+02  2.53196E+03 -2.25134E+02  2.27401E+03
 -9.20936E+02  1.86271E+03 -1.10672E+03  6.58047E+02 -2.87413E+02  7.20197E+02 -1.03341E+03  1.17294E+03
 -1.16236E+03  1.91953E+03 -2.77489E+03  1.13653E+03 -4.04152E+03  2.63370E+02 -4.93142E+03 -2.49852E+03
 -2.45283E+03 -5.49031E+03  1.11889E+03 -6.78528E+03  3.67806E+03 -4.89724E+03  6.13362E+03 -1.94575E+03
  5.43887E+03  6.59508E+02  3.50567E+03  3.66680E+03 -7.68643E+01  4.44766E+03 -1.60292E+03  3.14477E+03
 -1.99723E+03  1.44489E+03 -1.44321E+03 -4.86909E+02 -8.44540E+02 -2.45049E+02 -8.11546E+02 -3.36117E+02
 -1.29427E+03 -9.32529E+01 -1.51522E+03  3.43779E+01 -4.66853E+01 -1.18252E+03 -1.51168E+02 -1.76345E+03
  2.26483E+03 -1.44440E+03  2.18898E+03  2.76894E+02  2.71996E+03  2.40235E+03  1.54177E+02  3.94978E+03
 -2.00905E+03  4.88864E+03 -4.38499E+03  2.78558E+03 -4.91136E+03 -4.49944E+02 -3.53465E+03 -3.34720E+03
 -1.75279E+03 -4.05197E+03  7.89272E+02 -3.48697E+03  2.17013E+03 -1.65671E+03  2.39846E+03  2.66189E+02
  1.36280E+03  1.02923E+03 -1.91900E+02  1.08308E+03 -9.89297E+02  1.11195E+02  2.36124E+02 -8.35601E+02
  1.32118E+03 -4.15501E+02  1.08831E+03  8.64477E+02  1.07961E+03  1.57912E+03  5.58461E+02  1.67229E+03
 -1.41302E+03  1.77304E+03 -2.16395E+03  3.82122E+02 -2.27890E+03 -1.47800E+03 -3.42892E+02 -3.31203E+03
  1.54648E+03 -2.30350E+03  2.53165E+03 -4.75028E+02  3.12349E+03  1.40698E+02  1.47807E+03  2.26161E+03
  5.73088E+02  2.22202E+03 -8.36580E+02  1.69884E+03 -1.40336E+03  1.21186E+03 -1.09406E+03  6.70220E+01
 -7.64253E+02  3.14520E+01 -7.92661E+02  3.02877E+02 -9.62862E+02  5.67051E+02 -2.31400E+03 -5.29415E+02
 -2.04008E+03 -7.88439E+02 -7.22541E+02 -2.50947E+03  1.32504E+03 -3.19773E+03  2.46723E+03 -1.21612E+03
  2.47932E+03  5.71854E+02  9.11706E+02  1.36797E+03 -6.09131E+01  2.43170E+03 -1.84728E+03  1.47760E+03
