 $NMID ID='MM_0lb_SNR800_12hz_g55_8.RAW', FMTDAT='(8E13.5)'
 TRAMP=1., VOLUME=1. $END
  3.09587E+05  5.51860E+02  3.37843E+05  2.50369E+05  8.46018E+04  3.38180E+05 -1.32435E+05  2.51176E+05
 -1.90565E+05  8.37287E+04 -1.12113E+05 -3.26765E+04  5.99677E+02 -5.08922E+04  5.38207E+04  8.08737E+00
  3.53613E+04  5.28498E+04 -1.65049E+04  7.58495E+04 -6.12574E+04  6.42334E+04 -8.49265E+04  3.21664E+04
 -8.13552E+04 -1.16597E+04 -5.78865E+04 -5.17663E+04 -1.49339E+04 -7.07015E+04  2.77963E+04 -4.62190E+04
  4.07619E+04  4.12551E+03  1.62740E+04  4.84164E+04 -3.46560E+04  4.79742E+04 -6.74426E+04 -6.76096E+00
 -5.41796E+04 -5.74218E+04 -7.20528E+03 -7.78820E+04  3.46212E+04 -5.63674E+04  4.86210E+04 -1.80276E+04
  4.42455E+04  1.15716E+04  3.27609E+04  2.60935E+04  1.58195E+04  3.01771E+04 -5.31028E+03  2.72318E+04
 -2.24401E+04  1.20561E+04 -1.82053E+04 -5.14499E+03  6.41636E+03 -7.37297E+03  2.29316E+04  1.30383E+04
  6.78173E+03  3.65791E+04 -3.32635E+04  3.60592E+04 -6.47873E+04  2.02458E+03 -5.82310E+04 -4.37918E+04
 -1.26541E+04 -6.43244E+04  4.07826E+04 -4.63236E+04  5.99517E+04 -2.38019E+03  3.53837E+04  3.33390E+04
 -5.77788E+03  3.79192E+04 -3.10418E+04  1.75201E+04 -3.18242E+04 -3.95069E+03 -1.80719E+04 -1.14478E+04
 -9.12072E+03 -1.41203E+04 -6.14480E+02 -1.86242E+04  8.22232E+03 -2.32732E+04  1.56485E+04 -1.32089E+04
  1.11282E+04  5.40321E+03 -9.70907E+03  1.27629E+04 -2.22787E+04 -5.85092E+03 -8.41776E+03 -3.58902E+04
  2.42587E+04 -4.51394E+04  5.03796E+04 -2.01344E+04  4.72013E+04  1.99023E+04  1.66855E+04  4.56730E+04
 -1.61404E+04  3.49528E+04 -2.65324E+04  2.18279E+03 -1.06750E+04 -2.84414E+04  2.15550E+04 -3.54879E+04
  4.30074E+04 -1.00592E+04  3.79977E+04  2.44921E+04  1.99197E+04  4.91958E+04 -7.96917E+03  5.34905E+04
 -3.33815E+04  3.63399E+04 -4.46991E+04  1.07745E+04 -4.52051E+04 -1.73404E+04 -2.47474E+04 -4.02533E+04
  7.53002E+03 -4.01608E+04  3.30673E+04 -1.56389E+04  3.08097E+04  1.12739E+04  4.60206E+03  2.01824E+04
 -1.34643E+04  8.94271E+03 -1.11427E+04 -7.38801E+03  5.61577E+03 -1.11566E+04  1.83455E+04  5.88446E+03
  1.42610E+04  2.23467E+04 -5.79550E+03  2.60021E+04 -2.24418E+04  1.28120E+04 -2.95858E+04 -4.03025E+03
 -2.30523E+04 -1.78730E+04 -1.01210E+04 -2.31335E+04  3.92926E+03 -2.27826E+04  1.82084E+04 -2.05969E+04
  2.91043E+04 -1.36881E+04  3.57192E+04  3.92978E+03  2.52723E+04  2.22205E+04  4.24553E+03  3.91335E+04
 -1.87036E+04  3.23391E+04 -2.94108E+04  1.11963E+04 -2.16427E+04 -1.04167E+04 -4.42592E+03 -1.32913E+04
  1.22049E+03 -1.88460E+03 -6.39526E+03  7.44412E+03 -1.84343E+04  5.01657E+03 -1.86119E+04 -8.40021E+03
 -1.10289E+04 -2.15729E+04  5.57471E+03 -2.53468E+04  1.73116E+04 -1.83614E+04  2.04875E+04 -1.74310E+03
  1.23402E+04  1.46141E+04 -1.40219E+03  2.15876E+04 -1.47405E+04  1.21006E+04 -2.15288E+04 -4.49456E+03
 -1.57528E+04 -1.91553E+04 -2.13861E+03 -2.57340E+04  1.17162E+04 -2.10620E+04  2.13523E+04 -1.08047E+04
  1.99594E+04 -1.89775E+02  1.46686E+04  4.54000E+03  8.03051E+03  1.28857E+03  1.06486E+04 -1.96406E+03
  1.96710E+04  2.91993E+03  2.22849E+04  1.65944E+04  1.50756E+04  3.40303E+04 -3.01748E+03  3.90785E+04
 -2.23921E+04  3.21969E+04 -3.67870E+04  1.64669E+04 -3.89297E+04 -2.75616E+03 -3.17183E+04 -2.27865E+04
 -1.29406E+04 -3.23289E+04  1.11792E+04 -2.86305E+04  2.45129E+04 -1.38293E+04  2.18432E+04  6.50920E+03
  7.43500E+03  1.65821E+04 -1.03658E+04  1.38661E+04 -1.83062E+04  2.61364E+03 -1.39750E+04 -1.14195E+04
 -1.31662E+02 -1.72197E+04  8.92101E+03 -1.31730E+04  1.20709E+04 -1.18484E+03  2.83638E+03  7.62676E+03
 -7.53745E+03  3.27741E+03 -7.40694E+03 -6.08883E+03 -8.71736E+02 -1.57268E+04  1.05002E+04 -1.67491E+04
  1.98797E+04 -9.19149E+03  2.16247E+04  3.26474E+03  1.93261E+04  1.56677E+04  9.14760E+03  2.45004E+04
 -4.26415E+03  2.63849E+04 -1.70639E+04  1.65579E+04 -1.89697E+04  3.81478E+03 -1.33141E+04 -4.84456E+03
 -5.58474E+03 -6.08520E+03 -6.22186E+02  6.26202E+02 -2.27519E+03  3.13034E+03 -6.11042E+03  4.47899E+03
 -1.24095E+04 -1.26002E+03 -1.30389E+04 -1.05361E+04 -5.39931E+03 -1.69153E+04  5.46409E+03 -1.34321E+04
  1.11872E+04 -5.46995E+03  7.91989E+03  3.64980E+03 -3.75671E+02  5.34494E+03 -6.14448E+03 -3.33393E+02
 -6.30039E+03 -8.26063E+03 -1.06225E+03 -1.29733E+04  7.52100E+03 -1.36091E+04  1.67925E+04 -7.41328E+03
  1.97702E+04  1.85719E+03  1.46079E+04  1.15574E+04  2.60002E+03  1.56316E+04 -8.36215E+03  1.30522E+04
 -1.10947E+04  4.03498E+03 -5.68726E+03 -2.61041E+03  2.01127E+03 -3.83111E+03  6.86621E+03 -1.24699E+03
  6.13774E+03  5.47914E+03  8.80697E+02  1.05760E+04 -7.90613E+03  1.02668E+04 -1.28914E+04  2.45961E+03
 -8.58379E+03 -6.86027E+03  2.24659E+02 -1.12842E+04  7.02355E+03 -5.85517E+03  7.22508E+03  2.14874E+03
  1.86034E+03  7.84733E+03 -6.74160E+03  9.38725E+03 -1.07749E+04  4.37773E+03 -1.08068E+04 -3.75628E+03
 -6.03517E+03 -1.25524E+04  3.33234E+03 -1.44564E+04  1.23278E+04 -8.83780E+03  1.31919E+04  2.05876E+03
  8.00832E+03  1.06186E+04 -9.86434E+02  1.28727E+04 -9.62605E+03  7.26657E+03 -9.89067E+03 -9.60347E+02
 -9.02053E+03 -8.59720E+03 -1.44174E+03 -9.53560E+03  5.26439E+03 -7.78288E+03  6.08363E+03 -3.43046E+03
  4.29251E+03  1.49656E+03 -9.50769E+02  1.44223E+03 -1.91467E+02 -2.59367E+03  1.55886E+03 -5.68431E+03
  8.72604E+03 -3.29796E+03  1.22722E+04  1.45514E+03  1.22096E+04  8.58591E+03  8.44677E+03  1.62124E+04
 -3.53868E+03  1.86246E+04 -1.55695E+04  1.34721E+04 -2.02356E+04  2.46154E+03 -1.63204E+04 -6.72481E+03
 -8.28837E+03 -1.33411E+04 -2.85265E+02 -1.12249E+04  3.68920E+03 -6.13787E+03  4.22385E+03 -4.03832E+03
  2.69811E+03 -2.48270E+03  3.15481E+03 -3.30686E+03  5.00002E+03 -2.73202E+03  6.64438E+03 -6.63232E+02
  8.27191E+03  2.00390E+03  4.10102E+03  7.13960E+03 -2.21328E+03  7.79704E+03 -9.13316E+03  6.36189E+03
 -1.08086E+04 -1.21510E+03 -6.48588E+03 -7.77253E+03 -7.45392E+02 -1.17613E+04  6.36730E+03 -1.19601E+04
  1.24403E+04 -6.67774E+03  1.46706E+04  1.82797E+03  1.00957E+04  1.01291E+04  1.84870E+03  1.35663E+04
 -5.57808E+03  1.10200E+04 -7.52424E+03  3.80710E+03 -5.14611E+03 -1.47361E+03 -1.73515E+03 -1.82538E+03
 -9.08601E+02  2.85054E+02 -1.76073E+03  2.43890E+03 -5.28460E+03  1.67881E+03 -7.69284E+03 -9.24654E+02
 -5.02839E+03 -7.72887E+03  9.69347E+01 -1.08042E+04  6.60363E+03 -1.03087E+04  1.03708E+04 -3.12165E+03
  1.07444E+04  5.26028E+03  4.84627E+03  9.45621E+03 -2.03644E+03  1.07851E+04 -7.42183E+03  6.80107E+03
 -1.00252E+04  4.89974E+02 -7.86359E+03 -6.17976E+03 -8.91619E+02 -8.51263E+03  4.50359E+03 -6.47002E+03
  6.92160E+03 -1.93565E+03  4.48057E+03  1.76189E+03  1.52181E+03  3.12628E+03  1.61574E+03  1.53237E+03
  2.23070E+03  1.12674E+03  2.75335E+03  1.63164E+03  3.38272E+03  3.92831E+03  2.74520E+03  5.67729E+03
 -2.02835E+03  8.21247E+03 -6.84253E+03  8.68683E+03 -1.02292E+04  2.68014E+03 -1.12815E+04 -3.76301E+03
 -5.46480E+03 -1.05360E+04  1.60881E+03 -1.18024E+04  6.38958E+03 -7.48455E+03  8.47393E+03 -1.86612E+03
  6.41294E+03  4.31812E+03  1.21112E+03  5.90433E+03 -2.63563E+03  3.95809E+03 -3.89195E+03 -5.21509E+02
 -1.96871E+03 -4.41531E+03  2.71739E+03 -4.63477E+03  4.29742E+03 -2.12758E+03  4.02908E+03  1.06489E+03
  2.43771E+03  1.98531E+03  1.04899E+03  1.69458E+03 -7.40230E+02  1.66441E+03  1.50049E+03 -4.04831E+02
  1.13576E+03 -4.85315E+02  4.27143E+03  2.01746E+03  1.85576E+03  5.73627E+03 -7.77342E+02  7.21815E+03
 -4.66210E+03  4.59345E+03 -6.79563E+03  9.15659E+02 -5.82691E+03 -2.25851E+03 -2.32505E+03 -3.68518E+03
  7.71573E+02 -4.01285E+03  2.55813E+03 -1.70006E+03  2.02681E+03  2.05956E+03 -1.13986E+03  3.46523E+03
 -4.20091E+03  1.94369E+03 -4.55314E+03 -2.60670E+03 -2.54137E+03 -5.69379E+03  1.08772E+03 -5.83720E+03
  3.24202E+03 -3.02923E+03  3.75069E+03 -4.16057E+02  3.79895E+03  1.12397E+03  4.46749E+02  2.99010E+03
 -1.77543E+03  6.51883E+02 -2.26779E+03 -2.21293E+03  1.28544E+03 -3.83690E+03  4.88590E+03 -3.20067E+03
  5.94447E+03  6.60254E+02  6.19305E+03  4.20151E+03  2.56250E+03  6.63053E+03 -2.18090E+03  6.06896E+03
 -5.34170E+03  2.48117E+03 -5.32406E+03 -1.16025E+03 -2.54454E+03 -4.32306E+03  1.55216E+03 -3.95267E+03
  4.08574E+03 -2.29514E+03  3.32232E+03  1.76864E+03  1.19564E+03  3.50409E+03 -2.45291E+02  3.40890E+03
 -1.76610E+03  1.98534E+03 -1.47713E+03  5.06956E+02 -4.07723E+02  5.00320E+02 -1.10205E+03  1.66307E+03
 -1.71028E+03  2.50878E+03 -4.73945E+03  2.14625E+03 -6.15246E+03  2.94710E+02 -7.37845E+03 -4.12387E+03
 -3.59077E+03 -8.30351E+03  1.40208E+03 -9.44888E+03  5.67007E+03 -7.29548E+03  9.24640E+03 -2.44779E+03
  8.17267E+03  9.58253E+02  5.24085E+03  5.79615E+03  1.36713E+02  5.95047E+03 -2.78069E+03  4.69510E+03
 -3.84804E+03  2.00893E+03 -1.93938E+03 -5.25157E+02 -5.87009E+02 -6.04119E+01 -6.62424E+02  1.86719E+02
 -1.45152E+03  4.80906E+00 -1.58074E+03 -1.54265E+02 -1.43910E+02 -1.26491E+03 -2.11076E+02 -2.21757E+03
  3.19203E+03 -2.01342E+03  3.81186E+03  8.22821E+01  4.55576E+03  3.38163E+03  7.10693E+02  6.14521E+03
 -2.95480E+03  7.43766E+03 -6.48122E+03  4.14774E+03 -7.43318E+03 -6.74763E+02 -5.40339E+03 -4.53597E+03
 -2.19639E+03 -6.21228E+03  1.42385E+03 -5.74848E+03  3.57545E+03 -2.97735E+03  3.92415E+03 -1.22957E+02
  1.83903E+03  2.00987E+03  1.01231E+01  2.14373E+03 -1.31445E+03  5.36188E+01  1.81375E+02 -1.04719E+03
  1.71271E+03 -5.81903E+02  2.47183E+03  1.08554E+03  1.41294E+03  2.24166E+03  2.95200E+02  3.43030E+03
 -2.88529E+03  2.72730E+03 -3.81505E+03  1.44902E+02 -3.60063E+03 -2.78079E+03 -6.06792E+02 -5.03253E+03
  2.86465E+03 -3.84760E+03  4.19186E+03 -1.20890E+03  4.48179E+03  4.60603E+02  2.86810E+03  3.70555E+03
  7.60800E+02  3.66071E+03 -1.16387E+03  3.01991E+03 -2.11373E+03  1.83235E+03 -1.95503E+03  2.61005E+02
 -7.66732E+02 -3.25694E+02 -1.73941E+03  4.06394E+02 -1.72736E+03  4.74416E+02 -3.12552E+03 -4.13990E+02
 -3.23688E+03 -1.66540E+03 -1.02295E+03 -4.00981E+03  1.92445E+03 -4.18179E+03  3.61339E+03 -1.53050E+03
  3.70499E+03  1.98595E+02  1.80570E+03  2.69418E+03  3.05996E+01  3.84811E+03 -3.11276E+03  2.46127E+03
