 $NMID ID='MM_0lb_SNR800_13hz_g40_26.RAW', FMTDAT='(8E13.5)'
 TRAMP=1., VOLUME=1. $END
  3.09786E+05  6.50308E+02  3.37408E+05  2.50626E+05  8.45239E+04  3.37874E+05 -1.32436E+05  2.51318E+05
 -1.90308E+05  8.28970E+04 -1.11659E+05 -3.25486E+04  9.90929E+02 -5.03838E+04  5.35495E+04 -2.56527E+02
  3.53390E+04  5.29681E+04 -1.67674E+04  7.56004E+04 -6.06188E+04  6.33203E+04 -8.41658E+04  3.17877E+04
 -8.08460E+04 -1.12545E+04 -5.71542E+04 -5.13678E+04 -1.52538E+04 -6.96252E+04  2.75207E+04 -4.57680E+04
  3.98904E+04  3.65230E+03  1.60365E+04  4.81935E+04 -3.44106E+04  4.73722E+04 -6.65547E+04 -4.49641E+02
 -5.34403E+04 -5.68377E+04 -6.59494E+03 -7.71562E+04  3.39791E+04 -5.48206E+04  4.78457E+04 -1.73759E+04
  4.32214E+04  1.15208E+04  3.18824E+04  2.55705E+04  1.56893E+04  2.96140E+04 -4.92507E+03  2.72572E+04
 -2.22691E+04  1.23280E+04 -1.84072E+04 -4.84077E+03  5.72643E+03 -7.55468E+03  2.23132E+04  1.22255E+04
  7.26316E+03  3.52577E+04 -3.17740E+04  3.54383E+04 -6.32010E+04  2.14835E+03 -5.67488E+04 -4.26912E+04
 -1.27200E+04 -6.30594E+04  3.98467E+04 -4.51323E+04  5.81991E+04 -2.33049E+03  3.44311E+04  3.21174E+04
 -6.06725E+03  3.62513E+04 -2.98129E+04  1.60919E+04 -3.00248E+04 -4.69318E+03 -1.66509E+04 -1.10301E+04
 -8.03989E+03 -1.32387E+04 -9.48567E+02 -1.82905E+04  7.54000E+03 -2.30533E+04  1.56315E+04 -1.34026E+04
  1.15064E+04  5.14379E+03 -8.34712E+03  1.30949E+04 -2.10710E+04 -4.48619E+03 -8.64847E+03 -3.35681E+04
  2.27584E+04 -4.36230E+04  4.78183E+04 -1.95800E+04  4.50706E+04  1.94391E+04  1.58107E+04  4.43829E+04
 -1.59001E+04  3.35779E+04 -2.52140E+04  1.87334E+03 -9.76184E+03 -2.77842E+04  2.06398E+04 -3.41142E+04
  4.09009E+04 -8.91109E+03  3.51214E+04  2.36981E+04  1.80859E+04  4.64545E+04 -7.93333E+03  5.04153E+04
 -3.14309E+04  3.35464E+04 -4.15163E+04  9.87995E+03 -4.23731E+04 -1.68745E+04 -2.35234E+04 -3.78790E+04
  7.22132E+03 -3.78339E+04  3.13059E+04 -1.46910E+04  2.90414E+04  1.08802E+04  3.94318E+03  1.90772E+04
 -1.34769E+04  8.46264E+03 -1.05718E+04 -7.32041E+03  5.83960E+03 -1.05980E+04  1.78814E+04  5.98403E+03
  1.36558E+04  2.20459E+04 -6.02816E+03  2.48459E+04 -2.23352E+04  1.15910E+04 -2.76781E+04 -4.79465E+03
 -2.07741E+04 -1.73972E+04 -8.50233E+03 -2.01682E+04  3.88607E+03 -1.96671E+04  1.59316E+04 -1.84213E+04
  2.59060E+04 -1.27105E+04  3.29107E+04  2.94642E+03  2.37294E+04  2.03378E+04  3.70099E+03  3.63859E+04
 -1.76335E+04  3.01477E+04 -2.79070E+04  1.06314E+04 -2.08994E+04 -1.03351E+04 -4.39555E+03 -1.33429E+04
  1.81803E+03 -2.76060E+03 -4.73509E+03  6.84987E+03 -1.60471E+04  5.20617E+03 -1.61796E+04 -6.89717E+03
 -1.00072E+04 -1.88738E+04  4.99335E+03 -2.31540E+04  1.56057E+04 -1.69957E+04  1.78719E+04 -1.56415E+03
  1.11205E+04  1.31253E+04 -1.21031E+03  1.91747E+04 -1.27888E+04  1.07878E+04 -1.92640E+04 -4.04723E+03
 -1.41044E+04 -1.68310E+04 -1.94948E+03 -2.29742E+04  1.03606E+04 -1.90444E+04  1.92657E+04 -9.25670E+03
  1.78567E+04  3.36378E+02  1.29025E+04  4.38462E+03  6.53300E+03  8.23707E+02  1.00435E+04 -1.67941E+03
  1.72172E+04  3.06182E+03  1.96165E+04  1.55303E+04  1.28519E+04  3.03231E+04 -2.93022E+03  3.43698E+04
 -2.00964E+04  2.72613E+04 -3.19359E+04  1.36733E+04 -3.35890E+04 -2.37948E+03 -2.77323E+04 -1.91484E+04
 -1.21081E+04 -2.77436E+04  9.75480E+03 -2.53645E+04  2.14835E+04 -1.29652E+04  1.96893E+04  5.05900E+03
  7.19538E+03  1.41156E+04 -9.22931E+03  1.27956E+04 -1.61584E+04  2.37840E+03 -1.23927E+04 -1.02509E+04
 -1.60181E+02 -1.52894E+04  8.03733E+03 -1.15864E+04  1.01547E+04 -1.43052E+03  2.24955E+03  6.66659E+03
 -6.97952E+03  2.56239E+03 -6.11922E+03 -5.27154E+03 -5.19548E+02 -1.38993E+04  9.72460E+03 -1.45352E+04
  1.69941E+04 -7.50380E+03  1.82344E+04  3.06828E+03  1.59568E+04  1.36538E+04  7.33936E+03  2.07635E+04
 -3.45676E+03  2.29410E+04 -1.41966E+04  1.40911E+04 -1.59670E+04  3.63466E+03 -1.12450E+04 -3.74018E+03
 -5.46056E+03 -5.05667E+03 -8.68516E+02  1.09971E+03 -2.59678E+03  2.25101E+03 -5.10479E+03  4.37949E+03
 -1.05789E+04 -9.80278E+02 -1.14429E+04 -9.26693E+03 -4.43374E+03 -1.49114E+04  5.00168E+03 -1.15892E+04
  9.71279E+03 -4.90067E+03  6.52061E+03  3.12769E+03  3.64002E+02  4.30425E+03 -5.31682E+03 -2.29053E+01
 -4.97972E+03 -7.21879E+03 -1.12495E+03 -1.06445E+04  6.14812E+03 -1.15622E+04  1.47394E+04 -6.09835E+03
  1.68444E+04  9.52307E+02  1.20449E+04  9.26026E+03  2.69348E+03  1.30879E+04 -7.16054E+03  1.11309E+04
 -9.33321E+03  3.87238E+03 -4.92717E+03 -2.04521E+03  2.07880E+03 -2.62783E+03  5.97774E+03 -9.47479E+02
  5.70346E+03  5.26881E+03  1.12577E+03  8.92066E+03 -6.77288E+03  8.75667E+03 -1.11693E+04  2.47397E+03
 -7.57375E+03 -5.67841E+03  4.20233E+02 -9.77741E+03  5.67124E+03 -4.67052E+03  6.23351E+03  2.09320E+03
  1.17031E+03  6.18378E+03 -5.94871E+03  7.37733E+03 -8.39150E+03  3.53443E+03 -9.02477E+03 -2.84631E+03
 -5.07092E+03 -1.00549E+04  2.24570E+03 -1.17883E+04  1.00459E+04 -7.33374E+03  1.08256E+04  1.30811E+03
  6.96237E+03  8.55891E+03 -5.81175E+02  1.12652E+04 -7.88477E+03  6.37157E+03 -8.30856E+03 -8.11458E+02
 -7.87101E+03 -7.26178E+03 -1.43096E+03 -8.03718E+03  4.33463E+03 -6.88956E+03  4.93557E+03 -3.33774E+03
  3.71339E+03  1.01665E+03 -2.47118E+02  1.81940E+03 -3.22092E+02 -1.72484E+03  9.87478E+02 -4.38612E+03
  6.89915E+03 -2.35825E+03  9.93896E+03  1.20309E+03  9.70465E+03  6.29511E+03  7.33232E+03  1.27936E+04
 -2.75865E+03  1.51604E+04 -1.26512E+04  1.10486E+04 -1.66095E+04  2.09106E+03 -1.30558E+04 -5.11082E+03
 -6.74428E+03 -1.10837E+04 -4.77418E+02 -9.02047E+03  3.30630E+03 -4.68105E+03  3.32205E+03 -3.59410E+03
  2.49041E+03 -2.00886E+03  2.85418E+03 -2.59958E+03  4.25229E+03 -2.29003E+03  5.40948E+03 -2.50626E+02
  6.95112E+03  2.03947E+03  3.02052E+03  5.64792E+03 -1.89721E+03  6.09132E+03 -7.40571E+03  5.16815E+03
 -9.06585E+03 -1.45440E+03 -4.89678E+03 -6.32628E+03 -2.93782E+02 -9.46259E+03  5.38812E+03 -9.46739E+03
  9.69545E+03 -5.65064E+03  1.16923E+04  1.20089E+03  8.46982E+03  8.03460E+03  1.85557E+03  1.03517E+04
 -4.39081E+03  9.51832E+03 -6.23169E+03  3.36839E+03 -3.99220E+03 -1.19919E+03 -1.42152E+03 -1.37422E+03
 -1.25039E+03 -4.62649E+01 -1.35773E+03  1.86059E+03 -3.94835E+03  1.52187E+03 -6.54561E+03 -6.26934E+02
 -3.91249E+03 -6.74671E+03  5.78913E+02 -8.85221E+03  5.22142E+03 -7.97154E+03  8.05001E+03 -2.27063E+03
  8.35779E+03  4.06878E+03  3.60869E+03  7.50807E+03 -1.66396E+03  8.55144E+03 -5.76114E+03  5.09110E+03
 -7.92348E+03  5.83257E+02 -6.29781E+03 -4.73489E+03 -2.61576E+02 -6.80588E+03  3.88522E+03 -5.16880E+03
  5.15914E+03 -2.11744E+03  3.51328E+03  1.18366E+03  9.79604E+02  3.03139E+03  1.06680E+03  7.13229E+02
  2.16965E+03  7.70006E+02  2.10312E+03  1.51516E+03  2.50854E+03  3.56917E+03  2.18174E+03  4.08388E+03
 -2.03041E+03  6.45410E+03 -5.39911E+03  7.09899E+03 -7.85235E+03  2.09676E+03 -8.75918E+03 -2.91719E+03
 -3.65098E+03 -8.48754E+03  1.37232E+03 -9.16561E+03  4.53552E+03 -5.40212E+03  6.69183E+03 -1.77095E+03
  5.35327E+03  3.49319E+03  7.26933E+02  4.94826E+03 -1.80256E+03  3.08541E+03 -3.07901E+03 -6.90179E+02
 -1.33853E+03 -3.75557E+03  2.26147E+03 -3.63775E+03  2.98682E+03 -1.88691E+03  3.09538E+03  6.60928E+02
  1.52958E+03  1.51817E+03  7.81475E+02  9.05455E+02 -4.13079E+02  1.02120E+03  1.71628E+03 -4.12000E+02
  8.84995E+02 -5.97981E+02  3.69782E+03  1.40855E+03  1.91909E+03  4.86420E+03 -9.29357E+02  5.97089E+03
 -3.66023E+03  3.14701E+03 -4.91812E+03  7.20005E+02 -5.14342E+03 -1.74568E+03 -1.58900E+03 -2.98920E+03
  4.87113E+02 -3.05390E+03  1.93879E+03 -1.51342E+03  1.72081E+03  1.91553E+03 -9.10546E+02  2.37587E+03
 -3.23952E+03  1.59458E+03 -3.29142E+03 -1.92506E+03 -1.90632E+03 -4.30752E+03  5.77908E+02 -4.37366E+03
  2.04295E+03 -1.95783E+03  2.51996E+03 -6.81489E+01  2.96199E+03  7.56304E+02  3.02195E+02  2.20406E+03
 -1.38903E+03  5.82976E+02 -1.91725E+03 -1.44544E+03  8.58556E+02 -2.73997E+03  4.13018E+03 -2.53544E+03
  4.42057E+03  3.26383E+02  5.06470E+03  2.85858E+03  1.69712E+03  5.17459E+03 -1.25539E+03  4.58368E+03
 -3.80647E+03  1.64198E+03 -4.09911E+03 -3.16761E+02 -2.37718E+03 -3.43136E+03  6.74538E+02 -2.80464E+03
  3.22415E+03 -1.69152E+03  2.52807E+03  1.04550E+03  9.89752E+02  2.70940E+03  2.61993E+00  2.46867E+03
 -1.48606E+03  1.96770E+03 -1.18479E+03  2.49643E+02 -7.24551E+02  6.98637E+02 -1.17573E+03  1.19185E+03
 -1.40381E+03  2.06025E+03 -3.47174E+03  1.35223E+03 -5.04504E+03  2.57097E+02 -5.40325E+03 -2.67263E+03
 -2.78829E+03 -6.23309E+03  1.17438E+03 -7.05329E+03  4.20681E+03 -6.07861E+03  7.01642E+03 -2.38977E+03
  6.17370E+03  1.09369E+03  3.64914E+03  4.19454E+03  1.30457E+02  4.90918E+03 -2.02174E+03  3.45436E+03
 -2.59165E+03  1.34539E+03 -1.66078E+03 -5.14831E+02 -7.75530E+02 -3.89242E+01 -5.79031E+02  4.01133E+02
 -1.25385E+03  1.19708E+02 -1.27177E+03 -5.34756E+01 -1.62338E+02 -1.39008E+03 -8.05202E+01 -1.92088E+03
  2.64914E+03 -1.49256E+03  2.68823E+03  2.55495E+02  3.21579E+03  2.95627E+03  1.97945E+02  4.18931E+03
 -2.47402E+03  5.48661E+03 -5.18669E+03  3.31352E+03 -5.29445E+03 -2.69647E+02 -4.15285E+03 -3.33188E+03
 -1.95573E+03 -4.55523E+03  9.49776E+02 -4.09145E+03  2.68562E+03 -2.14433E+03  2.59993E+03  1.70156E+02
  1.60550E+03  1.34533E+03 -2.20598E+02  1.25026E+03 -7.74413E+02 -3.76540E+02  4.22822E+01 -9.93009E+02
  1.48415E+03 -7.21079E+02  1.71167E+03  8.22425E+02  7.62568E+02  1.85211E+03  1.52128E+01  1.93947E+03
 -2.03558E+03  2.29148E+03 -2.71789E+03  1.63216E+02 -2.70471E+03 -1.89041E+03 -1.37291E+02 -3.79772E+03
  2.05380E+03 -3.27723E+03  2.82673E+03 -9.25933E+02  3.34115E+03 -2.01374E+01  1.88145E+03  2.38970E+03
  8.30523E+02  2.60778E+03 -1.18612E+03  2.65635E+03 -1.95718E+03  1.39518E+03 -1.33146E+03  1.33973E+02
 -5.42258E+02 -2.01606E+02 -1.01301E+03  1.64759E+02 -1.40078E+03  7.67193E+02 -2.22678E+03 -3.52961E+02
 -2.29373E+03 -1.27900E+03 -9.60368E+02 -2.83926E+03  1.48191E+03 -3.62265E+03  2.51129E+03 -1.54349E+03
  2.62806E+03  7.99766E+02  1.17810E+03  1.87076E+03 -3.62043E+02  2.83971E+03 -2.03566E+03  1.89305E+03
