 $NMID ID='MM_0lb_SNR800_9hz_g50_19.RAW', FMTDAT='(8E13.5)'
 TRAMP=1., VOLUME=1. $END
  3.09944E+05  5.69054E+01  3.37798E+05  2.50385E+05  8.49721E+04  3.38880E+05 -1.32506E+05  2.51588E+05
 -1.90770E+05  8.39802E+04 -1.12400E+05 -3.21830E+04  5.52764E+02 -5.04164E+04  5.35681E+04 -4.94215E+02
  3.58675E+04  5.29096E+04 -1.68793E+04  7.62119E+04 -6.14679E+04  6.47476E+04 -8.51660E+04  3.24383E+04
 -8.25410E+04 -1.15301E+04 -5.83400E+04 -5.24719E+04 -1.50870E+04 -7.10314E+04  2.83032E+04 -4.68796E+04
  4.15617E+04  3.47505E+03  1.67225E+04  4.87100E+04 -3.49124E+04  4.79940E+04 -6.84499E+04 -1.58360E+02
 -5.50145E+04 -5.77034E+04 -7.60411E+03 -7.92549E+04  3.42968E+04 -5.72662E+04  4.98978E+04 -1.79308E+04
  4.53245E+04  1.13936E+04  3.30862E+04  2.64607E+04  1.59595E+04  3.06110E+04 -5.74829E+03  2.73334E+04
 -2.26703E+04  1.17570E+04 -1.81420E+04 -5.30512E+03  7.26418E+03 -7.54098E+03  2.36015E+04  1.38324E+04
  7.35715E+03  3.75937E+04 -3.42325E+04  3.74427E+04 -6.58054E+04  2.19695E+03 -5.86340E+04 -4.46926E+04
 -1.27357E+04 -6.57913E+04  4.12541E+04 -4.76024E+04  6.11039E+04 -2.99002E+03  3.66532E+04  3.45299E+04
 -5.43649E+03  3.92817E+04 -3.17367E+04  1.88734E+04 -3.33716E+04 -3.50511E+03 -1.94284E+04 -1.19180E+04
 -9.59147E+03 -1.54379E+04 -2.77749E+02 -1.97563E+04  8.28314E+03 -2.41116E+04  1.59050E+04 -1.22970E+04
  1.05455E+04  5.93835E+03 -1.07710E+04  1.34338E+04 -2.34038E+04 -6.65795E+03 -8.57424E+03 -3.75434E+04
  2.55140E+04 -4.65881E+04  5.19880E+04 -2.10647E+04  4.89433E+04  2.07009E+04  1.74195E+04  4.70548E+04
 -1.65832E+04  3.58484E+04 -2.74850E+04  2.59307E+03 -1.17871E+04 -2.94746E+04  2.14659E+04 -3.70164E+04
  4.45345E+04 -1.07753E+04  4.07876E+04  2.47235E+04  2.14033E+04  5.09015E+04 -8.34625E+03  5.62477E+04
 -3.53589E+04  3.79016E+04 -4.72606E+04  1.10333E+04 -4.75527E+04 -1.84466E+04 -2.62018E+04 -4.24918E+04
  8.08115E+03 -4.20191E+04  3.39151E+04 -1.71282E+04  3.20629E+04  1.15561E+04  5.02261E+03  2.09834E+04
 -1.40631E+04  9.42886E+03 -1.10769E+04 -7.76465E+03  5.39167E+03 -1.12939E+04  1.88805E+04  5.74646E+03
  1.47136E+04  2.27227E+04 -5.23434E+03  2.67932E+04 -2.31825E+04  1.42965E+04 -3.16403E+04 -2.96900E+03
 -2.56113E+04 -1.88252E+04 -1.17775E+04 -2.47604E+04  4.53850E+03 -2.56190E+04  2.02093E+04 -2.32204E+04
  3.21501E+04 -1.40698E+04  3.82696E+04  5.25796E+03  2.70569E+04  2.41493E+04  4.50328E+03  4.13806E+04
 -1.97798E+04  3.43270E+04 -3.06867E+04  1.20578E+04 -2.23502E+04 -1.02295E+04 -4.92220E+03 -1.29067E+04
  6.46436E+02 -1.60582E+03 -7.85161E+03  8.39833E+03 -2.05125E+04  4.78239E+03 -2.00241E+04 -9.74380E+03
 -1.20384E+04 -2.32457E+04  6.07661E+03 -2.77502E+04  1.86877E+04 -1.98170E+04  2.26790E+04 -1.50665E+03
  1.46619E+04  1.60235E+04 -1.80798E+03  2.32481E+04 -1.64461E+04  1.37471E+04 -2.34212E+04 -4.82126E+03
 -1.73079E+04 -2.10174E+04 -2.09776E+03 -2.78004E+04  1.28631E+04 -2.32821E+04  2.34867E+04 -1.20798E+04
  2.18350E+04 -5.45893E+02  1.62212E+04  5.15522E+03  8.73252E+03  1.90387E+03  1.20262E+04 -2.02382E+03
  2.18524E+04  3.21674E+03  2.55572E+04  1.82063E+04  1.73920E+04  3.72769E+04 -2.25363E+03  4.43895E+04
 -2.52104E+04  3.69940E+04 -4.17576E+04  1.91229E+04 -4.44380E+04 -3.43604E+03 -3.62601E+04 -2.62505E+04
 -1.41388E+04 -3.72444E+04  1.32783E+04 -3.24398E+04  2.75150E+04 -1.48104E+04  2.39810E+04  7.91123E+03
  8.15060E+03  1.82540E+04 -1.15375E+04  1.56109E+04 -2.01119E+04  2.48215E+03 -1.56940E+04 -1.29145E+04
 -3.46593E+02 -1.98118E+04  1.00309E+04 -1.42889E+04  1.34220E+04 -1.55829E+03  3.41789E+03  8.86067E+03
 -8.35434E+03  3.85802E+03 -9.22580E+03 -6.87662E+03 -2.11433E+03 -1.81300E+04  1.20700E+04 -1.95740E+04
  2.27092E+04 -1.11945E+04  2.59533E+04  3.22891E+03  2.23754E+04  1.84397E+04  1.04951E+04  2.89421E+04
 -6.15231E+03  3.12835E+04 -2.05441E+04  1.87514E+04 -2.24681E+04  3.87091E+03 -1.57821E+04 -5.87974E+03
 -6.67484E+03 -7.33059E+03 -4.89757E+02  1.51522E+02 -2.76631E+03  3.62760E+03 -7.38587E+03  5.18878E+03
 -1.40924E+04 -1.29555E+03 -1.47975E+04 -1.22109E+04 -6.46984E+03 -1.91995E+04  6.27525E+03 -1.57235E+04
  1.27561E+04 -6.14531E+03  9.42358E+03  4.04536E+03 -4.42905E+02  6.25177E+03 -7.83374E+03 -2.92939E+02
 -7.71300E+03 -1.02695E+04 -1.08300E+03 -1.55800E+04  8.70234E+03 -1.61555E+04  2.03124E+04 -9.16453E+03
  2.36928E+04  2.79005E+03  1.73532E+04  1.42351E+04  2.97108E+03  1.90512E+04 -9.30598E+03  1.54697E+04
 -1.27333E+04  4.68919E+03 -6.65303E+03 -3.64371E+03  2.50789E+03 -4.65260E+03  8.30405E+03 -1.40636E+03
  7.42206E+03  7.16576E+03  1.46662E+03  1.26015E+04 -9.03672E+03  1.20373E+04 -1.56157E+04  2.73944E+03
 -1.08446E+04 -8.35133E+03  2.42273E+02 -1.35024E+04  9.10896E+03 -6.85384E+03  9.66140E+03  3.05120E+03
  2.17614E+03  9.84368E+03 -8.09103E+03  1.19713E+04 -1.36828E+04  5.02227E+03 -1.42839E+04 -5.04769E+03
 -7.98022E+03 -1.61951E+04  3.93511E+03 -1.84139E+04  1.54691E+04 -1.03613E+04  1.70021E+04  3.15588E+03
  9.76221E+03  1.30226E+04 -1.62228E+03  1.60233E+04 -1.20568E+04  8.92412E+03 -1.28822E+04 -1.18525E+03
 -1.04172E+04 -1.05110E+04 -1.73230E+03 -1.22482E+04  6.41826E+03 -9.62984E+03  7.74768E+03 -4.07581E+03
  5.07074E+03  2.21543E+03 -1.01711E+03  1.97076E+03 -1.04813E+03 -3.83530E+03  2.56329E+03 -7.38492E+03
  1.11240E+04 -4.62546E+03  1.58764E+04  1.97808E+03  1.55376E+04  1.10870E+04  1.05698E+04  2.09784E+04
 -4.91612E+03  2.42004E+04 -1.96196E+04  1.72592E+04 -2.58962E+04  3.40785E+03 -2.02922E+04 -9.11950E+03
 -1.01969E+04 -1.72503E+04 -2.85750E+02 -1.46661E+04  5.11448E+03 -8.27824E+03  5.31693E+03 -4.80373E+03
  4.07666E+03 -3.20219E+03  4.00808E+03 -3.90170E+03  6.18360E+03 -3.39868E+03  8.07553E+03 -1.82729E+03
  1.05809E+04  2.75906E+03  6.03171E+03  9.35984E+03 -2.22681E+03  1.15001E+04 -1.10909E+04  8.72440E+03
 -1.48140E+04 -1.37562E+03 -9.20469E+03 -1.04790E+04 -1.25355E+03 -1.60164E+04  8.93024E+03 -1.57330E+04
  1.66443E+04 -8.63318E+03  1.96118E+04  2.94408E+03  1.32815E+04  1.38635E+04  1.59306E+03  1.78843E+04
 -7.51868E+03  1.42568E+04 -1.03642E+04  4.96415E+03 -7.00651E+03 -1.77004E+03 -3.25198E+03 -1.99957E+03
 -1.33588E+03 -4.80914E+02 -2.18486E+03  2.87398E+03 -6.26956E+03  2.52892E+03 -1.04366E+04 -1.29103E+03
 -7.23041E+03 -1.07994E+04 -1.27036E+02 -1.54270E+04  9.10884E+03 -1.33830E+04  1.48097E+04 -4.49630E+03
  1.47970E+04  7.25232E+03  6.81762E+03  1.30743E+04 -2.70171E+03  1.49679E+04 -1.05909E+04  9.32423E+03
 -1.41203E+04  8.41946E+02 -1.08647E+04 -9.18955E+03 -1.09162E+03 -1.25381E+04  6.80891E+03 -9.45067E+03
  9.43700E+03 -3.44742E+03  6.72338E+03  2.73693E+03  2.44754E+03  4.82323E+03  1.52838E+03  2.19247E+03
  3.21212E+03  1.14568E+03  3.47895E+03  1.82935E+03  4.33768E+03  5.18737E+03  3.77199E+03  8.15074E+03
 -3.30171E+03  1.16739E+04 -1.07048E+04  1.16868E+04 -1.54998E+04  3.13842E+03 -1.59535E+04 -6.55227E+03
 -7.40001E+03 -1.49044E+04  1.94865E+03 -1.65065E+04  9.26881E+03 -1.02224E+04  1.25378E+04 -3.36373E+03
  9.68248E+03  5.78355E+03  2.40700E+03  8.75542E+03 -4.36313E+03  5.65563E+03 -6.17616E+03 -5.73180E+02
 -2.87693E+03 -6.39563E+03  3.61726E+03 -6.55927E+03  6.36035E+03 -3.04398E+03  6.14456E+03  1.82103E+03
  3.62990E+03  2.88990E+03  1.30776E+03  2.50952E+03 -6.45480E+02  2.22980E+03  1.59857E+03 -4.55984E+02
  2.54442E+03 -1.21282E+03  5.91345E+03  2.85791E+03  3.68650E+03  8.31807E+03 -1.49343E+03  1.08698E+04
 -7.09222E+03  6.72794E+03 -9.70425E+03  2.07817E+03 -9.07735E+03 -3.71532E+03 -3.20087E+03 -5.96925E+03
  8.92664E+02 -6.11202E+03  3.53111E+03 -3.08569E+03  3.18609E+03  3.30913E+03 -1.01585E+03  4.75771E+03
 -6.27101E+03  2.70695E+03 -7.17246E+03 -3.43549E+03 -4.32166E+03 -8.30041E+03  1.30626E+03 -8.23330E+03
  4.72648E+03 -4.67338E+03  6.37069E+03 -8.21533E+02  5.38595E+03  2.15656E+03  6.52518E+02  4.59440E+03
 -2.94953E+03  1.21669E+03 -3.89301E+03 -2.93382E+03  1.36922E+03 -6.83930E+03  7.60921E+03 -5.29886E+03
  9.37511E+03  4.18914E+02  9.46236E+03  6.76745E+03  3.05594E+03  9.95621E+03 -3.40678E+03  9.51993E+03
 -8.01133E+03  3.96554E+03 -8.47546E+03 -1.29671E+03 -4.48147E+03 -6.72400E+03  1.57248E+03 -6.33748E+03
  6.12163E+03 -3.11162E+03  5.14871E+03  2.57328E+03  1.96648E+03  5.42990E+03 -1.04295E+03  4.77253E+03
 -2.74641E+03  2.93727E+03 -2.34357E+03  1.09862E+03 -7.20222E+02  9.98377E+02 -8.90872E+02  1.88885E+03
 -2.93082E+03  3.76551E+03 -6.97963E+03  3.22252E+03 -9.89857E+03  2.93706E+02 -1.13417E+04 -6.86896E+03
 -5.89165E+03 -1.30018E+04  2.89093E+03 -1.52152E+04  9.37820E+03 -1.20422E+04  1.51286E+04 -4.58823E+03
  1.38423E+04  2.79249E+03  8.17082E+03  9.36484E+03  1.12812E+03  1.02498E+04 -4.04447E+03  7.79558E+03
 -5.37339E+03  2.77880E+03 -3.87702E+03 -1.08558E+03 -1.34382E+03 -1.16657E+03 -8.07681E+02  2.13090E+02
 -1.49608E+03  3.14989E+01 -2.40780E+03 -1.22734E+02 -1.06771E+03 -2.72999E+03  4.69054E+02 -3.61420E+03
  4.55097E+03 -3.20840E+03  6.15175E+03  7.60855E+01  7.35534E+03  5.98235E+03  1.74200E+03  1.02983E+04
 -5.04837E+03  1.20019E+04 -1.15538E+04  7.10667E+03 -1.29065E+04 -9.54975E+02 -9.37767E+03 -7.91111E+03
 -4.07641E+03 -1.07111E+04  2.79133E+03 -1.01316E+04  6.82815E+03 -5.17877E+03  7.21769E+03  1.86831E+02
  3.89508E+03  3.68233E+03 -4.19867E+02  2.87499E+03 -1.92791E+03 -3.99443E+02 -1.20865E+02 -1.96208E+03
  3.32592E+03 -1.51172E+03  4.19478E+03  1.08353E+03  2.79825E+03  4.05492E+03  3.19716E+01  5.20277E+03
 -4.64690E+03  4.57650E+03 -7.27878E+03  3.90999E+02 -6.09995E+03 -5.32540E+03 -8.38727E+02 -8.93854E+03
  4.71878E+03 -7.19703E+03  8.41358E+03 -2.46370E+03  8.03544E+03  1.73382E+03  4.80820E+03  6.65874E+03
  9.33034E+02  7.01364E+03 -3.03668E+03  5.59295E+03 -4.71945E+03  3.10125E+03 -4.01547E+03  5.79395E+02
 -2.19089E+03 -7.92509E+02 -1.85119E+03  7.95141E+02 -3.72742E+03  1.35214E+03 -5.65121E+03 -9.72140E+02
 -5.49150E+03 -3.77538E+03 -1.45719E+03 -6.78617E+03  3.53760E+03 -7.40530E+03  6.28902E+03 -3.45341E+03
  6.94096E+03  1.06488E+03  3.94143E+03  4.70661E+03 -6.41465E+02  7.19546E+03 -5.27427E+03  4.63163E+03
