 $NMID ID='MM_0lb_SNR800_8hz_g55_21.RAW', FMTDAT='(8E13.5)'
 TRAMP=1., VOLUME=1. $END
  3.09622E+05  7.53739E+02  3.38537E+05  2.50680E+05  8.46588E+04  3.38474E+05 -1.32635E+05  2.52414E+05
 -1.90582E+05  8.39280E+04 -1.12791E+05 -3.21571E+04  4.03367E+02 -5.08110E+04  5.36981E+04 -7.51319E+02
  3.58757E+04  5.24008E+04 -1.67537E+04  7.62592E+04 -6.18087E+04  6.43874E+04 -8.55504E+04  3.25653E+04
 -8.30538E+04 -1.18140E+04 -5.84347E+04 -5.27124E+04 -1.53644E+04 -7.15272E+04  2.79769E+04 -4.70951E+04
  4.10379E+04  3.20539E+03  1.69941E+04  4.84548E+04 -3.47199E+04  4.86137E+04 -6.87430E+04  3.94507E+01
 -5.55468E+04 -5.80130E+04 -7.31042E+03 -7.94487E+04  3.52428E+04 -5.74867E+04  5.05675E+04 -1.85088E+04
  4.58794E+04  1.16005E+04  3.32375E+04  2.65794E+04  1.55710E+04  3.11816E+04 -6.17690E+03  2.78654E+04
 -2.27716E+04  1.17159E+04 -1.79929E+04 -6.12415E+03  7.67853E+03 -7.52045E+03  2.39897E+04  1.40591E+04
  7.34854E+03  3.86792E+04 -3.42258E+04  3.77940E+04 -6.65391E+04  2.05793E+03 -5.96137E+04 -4.51907E+04
 -1.25497E+04 -6.68141E+04  4.21594E+04 -4.82540E+04  6.20948E+04 -2.80602E+03  3.73813E+04  3.46660E+04
 -5.63391E+03  3.98927E+04 -3.24730E+04  1.96318E+04 -3.43378E+04 -3.32998E+03 -2.01294E+04 -1.19948E+04
 -9.70273E+03 -1.56940E+04 -5.75409E+02 -2.06756E+04  8.39948E+03 -2.35717E+04  1.59400E+04 -1.19794E+04
  1.03548E+04  6.59461E+03 -1.10150E+04  1.25733E+04 -2.40806E+04 -7.36036E+03 -8.85522E+03 -3.82373E+04
  2.59108E+04 -4.80836E+04  5.30904E+04 -2.12569E+04  4.94143E+04  2.10345E+04  1.77772E+04  4.74819E+04
 -1.70330E+04  3.71307E+04 -2.81766E+04  3.09983E+03 -1.18573E+04 -2.97740E+04  2.17176E+04 -3.80420E+04
  4.54717E+04 -1.14113E+04  4.20851E+04  2.46353E+04  2.26944E+04  5.27804E+04 -8.15578E+03  5.79497E+04
 -3.64920E+04  3.94964E+04 -4.92855E+04  1.14808E+04 -4.87059E+04 -1.85906E+04 -2.69743E+04 -4.32215E+04
  7.98455E+03 -4.34365E+04  3.50338E+04 -1.80958E+04  3.26937E+04  1.12588E+04  5.65831E+03  2.14731E+04
 -1.42681E+04  1.02646E+04 -1.13344E+04 -7.71824E+03  5.36985E+03 -1.16148E+04  1.90132E+04  5.32970E+03
  1.49539E+04  2.30121E+04 -5.07986E+03  2.77942E+04 -2.37418E+04  1.47200E+04 -3.29166E+04 -2.26387E+03
 -2.70569E+04 -1.89015E+04 -1.25164E+04 -2.60426E+04  3.83883E+03 -2.71258E+04  2.09119E+04 -2.42490E+04
  3.39128E+04 -1.44482E+04  3.96807E+04  5.21929E+03  2.82286E+04  2.57213E+04  4.33236E+03  4.29348E+04
 -2.08260E+04  3.53405E+04 -3.15844E+04  1.17712E+04 -2.27375E+04 -1.04939E+04 -4.96982E+03 -1.23218E+04
  3.27814E+02 -6.69984E+02 -8.32584E+03  9.02092E+03 -2.13108E+04  4.90123E+03 -2.14379E+04 -1.03439E+04
 -1.23665E+04 -2.47161E+04  6.43958E+03 -2.91871E+04  1.98440E+04 -2.06229E+04  2.41298E+04 -1.82600E+03
  1.56535E+04  1.68798E+04 -1.47282E+03  2.45762E+04 -1.79331E+04  1.43570E+04 -2.49051E+04 -5.22362E+03
 -1.80532E+04 -2.17066E+04 -1.72647E+03 -2.94928E+04  1.33408E+04 -2.50537E+04  2.45467E+04 -1.30108E+04
  2.28532E+04 -6.78595E+02  1.69805E+04  5.56315E+03  9.37192E+03  1.64686E+03  1.29052E+04 -1.88620E+03
  2.33544E+04  2.83659E+03  2.76162E+04  1.94568E+04  1.88734E+04  4.02057E+04 -2.60350E+03  4.75344E+04
 -2.67835E+04  4.01961E+04 -4.44883E+04  2.07057E+04 -4.86320E+04 -3.98111E+03 -3.91806E+04 -2.83915E+04
 -1.57812E+04 -4.03767E+04  1.43166E+04 -3.51464E+04  3.01838E+04 -1.59630E+04  2.57253E+04  8.54770E+03
  8.76591E+03  1.99777E+04 -1.24021E+04  1.65925E+04 -2.16576E+04  2.04479E+03 -1.65029E+04 -1.39264E+04
 -7.44044E+02 -2.07679E+04  1.13503E+04 -1.57407E+04  1.43004E+04 -1.37052E+03  3.97172E+03  9.47637E+03
 -9.24337E+03  4.60574E+03 -9.82372E+03 -6.81418E+03 -2.52472E+03 -1.92834E+04  1.27189E+04 -2.14870E+04
  2.47249E+04 -1.25747E+04  2.88084E+04  3.24279E+03  2.53226E+04  2.03878E+04  1.13519E+04  3.24236E+04
 -6.01222E+03  3.37296E+04 -2.22354E+04  2.08354E+04 -2.45961E+04  4.14959E+03 -1.64553E+04 -7.06879E+03
 -6.71556E+03 -7.58611E+03 -5.17890E+02  3.55658E+02 -3.17491E+03  3.28318E+03 -8.59411E+03  5.98111E+03
 -1.58735E+04 -9.40573E+02 -1.60581E+04 -1.29918E+04 -6.57118E+03 -2.04738E+04  7.08944E+03 -1.72225E+04
  1.41695E+04 -6.83176E+03  1.00758E+04  4.14758E+03 -7.23705E+02  6.63774E+03 -8.89323E+03 -5.73364E+02
 -8.16100E+03 -1.09202E+04 -1.24651E+03 -1.71846E+04  1.02893E+04 -1.85090E+04  2.19429E+04 -9.56212E+03
  2.56176E+04  2.59633E+03  1.86028E+04  1.61709E+04  3.47841E+03  2.06501E+04 -1.07190E+04  1.67373E+04
 -1.36887E+04  4.50470E+03 -7.44849E+03 -4.09471E+03  2.47014E+03 -5.06746E+03  8.90020E+03 -1.25249E+03
  7.97179E+03  7.92105E+03  1.68342E+03  1.33451E+04 -1.01488E+04  1.31255E+04 -1.70148E+04  3.00591E+03
 -1.21742E+04 -9.26782E+03  5.35121E+02 -1.50352E+04  9.48402E+03 -7.76316E+03  1.06120E+04  3.97237E+03
  2.53808E+03  1.08090E+04 -8.84374E+03  1.28463E+04 -1.53334E+04  5.64585E+03 -1.60811E+04 -5.61333E+03
 -9.08759E+03 -1.77210E+04  4.92802E+03 -2.02640E+04  1.78446E+04 -1.17247E+04  1.91651E+04  3.23591E+03
  1.10647E+04  1.49167E+04 -1.96425E+03  1.75076E+04 -1.31588E+04  9.56389E+03 -1.50933E+04 -1.56116E+03
 -1.16158E+04 -1.12761E+04 -1.99103E+03 -1.39640E+04  7.36688E+03 -1.09866E+04  8.41315E+03 -3.61945E+03
  5.36050E+03  2.30831E+03 -1.07886E+03  1.89951E+03 -9.22078E+02 -4.05787E+03  3.44720E+03 -8.73658E+03
  1.33631E+04 -5.99481E+03  1.83004E+04  1.84323E+03  1.79711E+04  1.29506E+04  1.14335E+04  2.38128E+04
 -5.93978E+03  2.75369E+04 -2.23539E+04  1.99661E+04 -2.95349E+04  4.13716E+03 -2.33229E+04 -1.06801E+04
 -1.21096E+04 -1.93805E+04 -2.39323E+02 -1.70010E+04  5.74798E+03 -9.77848E+03  6.29433E+03 -6.07373E+03
  4.53384E+03 -3.70250E+03  4.09718E+03 -4.31893E+03  6.63008E+03 -4.24627E+03  9.22455E+03 -2.17346E+03
  1.21808E+04  3.17972E+03  6.96175E+03  1.04129E+04 -2.47778E+03  1.29302E+04 -1.29816E+04  9.82537E+03
 -1.66184E+04 -1.17475E+03 -1.08908E+04 -1.17480E+04 -1.69445E+03 -1.83302E+04  1.00093E+04 -1.81667E+04
  1.88268E+04 -9.64630E+03  2.26075E+04  3.69563E+03  1.55200E+04  1.60523E+04  2.40313E+03  2.06776E+04
 -8.98915E+03  1.65987E+04 -1.20868E+04  5.81103E+03 -9.02162E+03 -1.63200E+03 -3.49716E+03 -2.52752E+03
 -1.36407E+03 -5.94676E+01 -2.81191E+03  3.24706E+03 -6.76232E+03  2.55728E+03 -1.17235E+04 -1.27624E+03
 -8.47756E+03 -1.16368E+04 -8.24418E+01 -1.70984E+04  1.03543E+04 -1.58261E+04  1.68012E+04 -4.81726E+03
  1.70048E+04  7.99212E+03  7.88565E+03  1.57914E+04 -3.35657E+03  1.75423E+04 -1.25297E+04  1.09639E+04
 -1.60810E+04  4.09944E+02 -1.28504E+04 -1.08138E+04 -1.46162E+03 -1.47582E+04  7.67273E+03 -1.07677E+04
  1.08783E+04 -3.57856E+03  7.58333E+03  3.21789E+03  2.41881E+03  5.17946E+03  1.42283E+03  2.50054E+03
  2.70870E+03  1.32429E+03  4.20563E+03  2.37443E+03  5.85472E+03  5.79852E+03  4.63718E+03  9.39196E+03
 -3.51468E+03  1.40941E+04 -1.20575E+04  1.37208E+04 -1.85305E+04  3.75205E+03 -1.80243E+04 -8.23453E+03
 -8.65004E+03 -1.78197E+04  2.83395E+03 -1.96680E+04  1.13420E+04 -1.23073E+04  1.49434E+04 -3.00275E+03
  1.12208E+04  6.62652E+03  2.80887E+03  1.03952E+04 -4.73791E+03  6.99969E+03 -7.67097E+03 -1.42779E+03
 -3.27132E+03 -7.73581E+03  4.01782E+03 -8.00530E+03  8.07336E+03 -4.18961E+03  7.47500E+03  1.33531E+03
  4.45626E+03  3.74189E+03  1.68835E+03  2.90538E+03 -8.53290E+02  2.48797E+03  1.68908E+03 -5.43568E+02
  3.00341E+03 -8.21067E+02  7.56736E+03  3.13472E+03  4.34311E+03  9.41447E+03 -1.44883E+03  1.26517E+04
 -8.91101E+03  8.85007E+03 -1.17603E+04  2.64572E+03 -1.00641E+04 -3.66806E+03 -3.47058E+03 -7.05721E+03
  1.12690E+03 -7.13417E+03  4.66347E+03 -3.44619E+03  4.18358E+03  3.81471E+03 -1.48729E+03  5.84107E+03
 -7.26315E+03  3.51285E+03 -8.49041E+03 -4.09154E+03 -4.58527E+03 -1.02595E+04  1.56735E+03 -1.04266E+04
  6.24370E+03 -5.70297E+03  7.52705E+03 -6.51435E+02  5.97921E+03  2.91406E+03  8.94274E+02  5.28066E+03
 -3.58035E+03  1.71591E+03 -4.20645E+03 -3.60466E+03  1.62241E+03 -7.91751E+03  9.05128E+03 -6.36313E+03
  1.18294E+04  1.04856E+03  1.14014E+04  8.27067E+03  3.64980E+03  1.21092E+04 -4.36436E+03  1.15041E+04
 -9.83311E+03  5.04668E+03 -1.10172E+04 -1.30124E+03 -5.70954E+03 -7.99833E+03  1.74494E+03 -7.46327E+03
  7.56371E+03 -3.78107E+03  6.25865E+03  3.15246E+03  1.91034E+03  6.98187E+03 -1.42763E+03  5.64731E+03
 -3.05491E+03  4.32230E+03 -3.06546E+03  1.05327E+03 -1.43263E+03  1.20430E+03 -1.84087E+03  2.53270E+03
 -3.25660E+03  4.72590E+03 -8.32997E+03  4.25664E+03 -1.25611E+04  2.74185E+02 -1.38014E+04 -8.36439E+03
 -7.62563E+03 -1.64800E+04  3.16052E+03 -1.85162E+04  1.18145E+04 -1.48288E+04  1.80152E+04 -5.38313E+03
  1.67839E+04  3.47579E+03  1.04316E+04  1.15003E+04  1.16515E+03  1.31135E+04 -5.11171E+03  9.61277E+03
 -7.58775E+03  3.50188E+03 -4.12081E+03 -1.49377E+03 -1.43590E+03 -9.31937E+02 -1.19234E+03  4.96108E+02
 -2.28437E+03  5.55091E+01 -2.64492E+03 -6.49863E+02 -1.27512E+03 -3.08962E+03  7.16985E+02 -4.58411E+03
  5.37088E+03 -4.44155E+03  8.16232E+03 -3.97241E+02  9.40995E+03  6.97623E+03  2.75121E+03  1.28162E+04
 -6.01883E+03  1.42952E+04 -1.39487E+04  8.81500E+03 -1.56066E+04 -1.47430E+03 -1.18768E+04 -9.67470E+03
 -5.49969E+03 -1.36344E+04  3.32055E+03 -1.19715E+04  8.31685E+03 -7.09404E+03  8.80712E+03  2.91516E+02
  4.80101E+03  4.30379E+03 -7.98830E+02  3.60709E+03 -2.47590E+03 -6.20022E+02  8.36686E+01 -3.26443E+03
  3.77892E+03 -2.15263E+03  5.28399E+03  1.70408E+03  3.44861E+03  5.26156E+03  2.61355E+02  6.82281E+03
 -6.06514E+03  6.10219E+03 -8.94310E+03  4.15307E+02 -8.30187E+03 -6.13097E+03 -1.79630E+03 -1.12984E+04
  6.00402E+03 -9.36920E+03  1.04492E+04 -3.43696E+03  1.00824E+04  2.36769E+03  6.08074E+03  7.86768E+03
  9.85288E+02  8.90878E+03 -3.46748E+03  7.35477E+03 -5.72867E+03  3.43757E+03 -4.89018E+03  7.60923E+02
 -2.60387E+03 -1.21205E+02 -2.38696E+03  1.25212E+03 -4.66805E+03  1.34398E+03 -6.69698E+03 -1.18928E+03
 -6.51853E+03 -5.09225E+03 -2.54198E+03 -9.22436E+03  4.06340E+03 -9.46631E+03  8.01804E+03 -4.41658E+03
  8.95800E+03  1.36536E+03  5.19692E+03  6.11491E+03 -4.57284E+02  9.05207E+03 -6.99096E+03  6.08468E+03
