 $NMID ID='MM_0lb_SNR800_16hz_g45_55.RAW', FMTDAT='(8E13.5)'
 TRAMP=1., VOLUME=1. $END
  3.10140E+05  1.54734E+02  3.37500E+05  2.50475E+05  8.45794E+04  3.37522E+05 -1.32636E+05  2.50523E+05
 -1.90046E+05  8.25478E+04 -1.11551E+05 -3.27043E+04  1.33129E+03 -5.03058E+04  5.36951E+04 -3.15715E+01
  3.51990E+04  5.28408E+04 -1.68240E+04  7.50196E+04 -6.06386E+04  6.31590E+04 -8.33494E+04  3.17539E+04
 -8.01178E+04 -1.11787E+04 -5.68213E+04 -5.07227E+04 -1.49436E+04 -6.87873E+04  2.73063E+04 -4.52900E+04
  3.93510E+04  3.78825E+03  1.56764E+04  4.73237E+04 -3.44650E+04  4.66895E+04 -6.60548E+04 -4.24432E+02
 -5.27043E+04 -5.62536E+04 -6.53818E+03 -7.60800E+04  3.36548E+04 -5.40278E+04  4.70580E+04 -1.67508E+04
  4.24491E+04  1.10210E+04  3.11746E+04  2.50194E+04  1.55545E+04  2.89416E+04 -4.93070E+03  2.68480E+04
 -2.17902E+04  1.26150E+04 -1.89508E+04 -4.51003E+03  5.03801E+03 -7.54799E+03  2.17561E+04  1.15853E+04
  7.41898E+03  3.40233E+04 -3.10587E+04  3.46182E+04 -6.22458E+04  2.09402E+03 -5.60777E+04 -4.20972E+04
 -1.22330E+04 -6.17565E+04  3.90548E+04 -4.41915E+04  5.66756E+04 -2.15311E+03  3.29059E+04  3.12330E+04
 -6.32243E+03  3.41662E+04 -2.91476E+04  1.45554E+04 -2.90535E+04 -4.75038E+03 -1.49733E+04 -1.04316E+04
 -8.00323E+03 -1.21278E+04 -9.82291E+02 -1.73567E+04  6.93902E+03 -2.28072E+04  1.53381E+04 -1.34722E+04
  1.17744E+04  4.73745E+03 -7.34391E+03  1.29253E+04 -2.00189E+04 -3.54593E+03 -8.50659E+03 -3.19195E+04
  2.15584E+04 -4.19191E+04  4.60715E+04 -1.94090E+04  4.35926E+04  1.88240E+04  1.48839E+04  4.28083E+04
 -1.57264E+04  3.24652E+04 -2.45147E+04  1.23257E+03 -9.15996E+03 -2.70851E+04  2.07639E+04 -3.22886E+04
  3.95665E+04 -8.08069E+03  3.32021E+04  2.31697E+04  1.68635E+04  4.42606E+04 -7.95104E+03  4.75725E+04
 -3.02031E+04  3.18018E+04 -3.92014E+04  8.92304E+03 -4.04925E+04 -1.56866E+04 -2.22735E+04 -3.63536E+04
  7.07471E+03 -3.58541E+04  3.02618E+04 -1.37083E+04  2.75770E+04  1.08011E+04  3.44953E+03  1.85867E+04
 -1.30978E+04  7.52727E+03 -9.90095E+03 -7.90217E+03  5.85998E+03 -1.04946E+04  1.77236E+04  6.29534E+03
  1.26925E+04  2.17944E+04 -6.29823E+03  2.42032E+04 -2.19292E+04  1.01799E+04 -2.68384E+04 -5.56459E+03
 -1.87160E+04 -1.65311E+04 -6.65877E+03 -1.83881E+04  3.91768E+03 -1.68801E+04  1.38561E+04 -1.61323E+04
  2.33525E+04 -1.21591E+04  2.99036E+04  1.96916E+03  2.25615E+04  1.80581E+04  4.04932E+03  3.43900E+04
 -1.67751E+04  2.89624E+04 -2.66224E+04  9.90665E+03 -2.01790E+04 -1.05475E+04 -3.98715E+03 -1.38012E+04
  2.38194E+03 -3.36254E+03 -3.62706E+03  6.09408E+03 -1.43546E+04  5.06551E+03 -1.46813E+04 -5.97388E+03
 -9.40851E+03 -1.69848E+04  4.76403E+03 -2.11146E+04  1.37962E+04 -1.51077E+04  1.62007E+04 -1.69488E+03
  9.83932E+03  1.16913E+04 -1.11775E+03  1.70216E+04 -1.15473E+04  9.60656E+03 -1.70525E+04 -3.85141E+03
 -1.26291E+04 -1.53817E+04 -1.36286E+03 -2.07607E+04  9.46988E+03 -1.71493E+04  1.72993E+04 -8.37209E+03
  1.61012E+04  3.96717E+02  1.15922E+04  4.13184E+03  5.82089E+03  6.19728E+02  8.54034E+03 -1.53869E+03
  1.54976E+04  2.69661E+03  1.71053E+04  1.38898E+04  1.07507E+04  2.70705E+04 -2.87531E+03  3.01439E+04
 -1.79700E+04  2.36122E+04 -2.80923E+04  1.16384E+04 -2.89218E+04 -2.07301E+03 -2.43750E+04 -1.64116E+04
 -1.10873E+04 -2.35251E+04  8.08479E+03 -2.16884E+04  1.88700E+04 -1.15982E+04  1.73395E+04  4.45012E+03
  6.68801E+03  1.25352E+04 -8.12439E+03  1.14670E+04 -1.46106E+04  2.82800E+03 -1.11185E+04 -8.79468E+03
 -3.02346E+02 -1.38966E+04  6.78164E+03 -1.03669E+04  8.94404E+03 -1.40198E+03  1.76948E+03  5.45245E+03
 -6.18787E+03  2.09415E+03 -5.05168E+03 -4.93895E+03  4.94555E+01 -1.17482E+04  8.71822E+03 -1.19118E+04
  1.42839E+04 -5.99970E+03  1.45655E+04  3.00539E+03  1.27434E+04  1.12052E+04  6.00138E+03  1.69448E+04
 -2.50754E+03  1.86538E+04 -1.16669E+04  1.20991E+04 -1.32723E+04  3.47123E+03 -9.50987E+03 -2.90895E+03
 -4.78657E+03 -4.08130E+03 -7.04130E+02  1.42602E+03 -1.90346E+03  2.27579E+03 -4.38597E+03  3.84284E+03
 -9.17601E+03 -6.40731E+02 -9.87983E+03 -7.95063E+03 -3.87505E+03 -1.30578E+04  3.97685E+03 -9.98224E+03
  8.20072E+03 -4.42461E+03  6.03073E+03  2.43225E+03  5.90133E+02  3.45591E+03 -4.42312E+03 -1.26623E+02
 -4.11433E+03 -5.98925E+03 -8.38254E+02 -8.82553E+03  5.14875E+03 -9.41696E+03  1.16277E+04 -4.78018E+03
  1.36817E+04  8.90950E+02  1.00978E+04  7.41670E+03  2.19265E+03  1.05693E+04 -5.92686E+03  9.67691E+03
 -8.11752E+03  3.20292E+03 -3.90910E+03 -1.72831E+03  1.42604E+03 -2.31657E+03  5.45298E+03 -8.28048E+02
  4.54912E+03  3.68945E+03  9.98285E+02  7.74561E+03 -5.18160E+03  7.40274E+03 -9.74551E+03  1.97717E+03
 -6.01428E+03 -4.48381E+03  1.65525E+02 -7.77312E+03  4.66008E+03 -3.72405E+03  4.58662E+03  1.55803E+03
  9.01417E+02  4.47830E+03 -4.65554E+03  6.06891E+03 -6.23991E+03  2.82765E+03 -6.39389E+03 -1.84437E+03
 -3.70640E+03 -7.49457E+03  1.44095E+03 -9.15470E+03  7.59733E+03 -5.94518E+03  8.23623E+03  1.35319E+03
  5.45208E+03  6.82765E+03  1.18161E+02  8.69672E+03 -6.15506E+03  5.16935E+03 -6.60884E+03 -5.94987E+02
 -6.65260E+03 -5.96693E+03 -1.46328E+03 -6.23881E+03  3.03966E+03 -5.55700E+03  3.61987E+03 -3.06874E+03
  3.19349E+03  4.71183E+02 -5.46465E+01  1.18583E+03  3.44709E+02 -5.67767E+02  6.61260E+02 -2.77766E+03
  5.29362E+03 -1.62885E+03  7.07121E+03  6.57741E+02  7.46643E+03  4.59211E+03  6.01842E+03  9.43133E+03
 -1.80663E+03  1.10315E+04 -9.56036E+03  8.55451E+03 -1.22785E+04  1.34068E+03 -9.91133E+03 -3.66625E+03
 -4.99157E+03 -8.18813E+03 -6.61496E+02 -6.46955E+03  2.69546E+03 -3.04679E+03  2.23393E+03 -2.64340E+03
  2.00814E+03 -1.82384E+03  2.52744E+03 -2.79242E+03  4.09807E+03 -1.67920E+03  4.14013E+03  3.60634E+02
  5.43669E+03  1.47373E+03  1.92228E+03  4.50027E+03 -1.77200E+03  4.45844E+03 -5.59503E+03  3.51044E+03
 -6.38972E+03 -8.90623E+02 -3.02082E+03 -4.50144E+03  8.81094E+01 -6.64102E+03  4.11130E+03 -7.01422E+03
  6.99524E+03 -4.07522E+03  8.93730E+03  8.08843E+02  6.19534E+03  5.77049E+03  1.44532E+03  7.84447E+03
 -2.96643E+03  7.18128E+03 -4.70925E+03  2.49801E+03 -2.95723E+03 -1.16649E+03 -9.55217E+02 -8.36874E+02
 -4.43382E+02  2.68864E+02 -1.08010E+03  2.37901E+03 -3.41413E+03  1.49445E+03 -5.00149E+03 -4.54610E+02
 -2.45987E+03 -4.65537E+03  8.68812E+02 -6.47783E+03  3.70699E+03 -5.86816E+03  5.14551E+03 -1.46772E+03
  5.87674E+03  3.12896E+03  2.42834E+03  4.52636E+03 -1.09923E+03  6.17382E+03 -3.76347E+03  3.69048E+03
 -5.04426E+03  7.06148E+02 -4.46509E+03 -3.33933E+03 -3.38078E+02 -4.62946E+03  2.29068E+03 -3.33078E+03
  3.59937E+03 -1.72670E+03  2.57907E+03  9.66567E+02  7.10046E+02  1.79123E+03  9.47514E+02  9.86158E+02
  1.85433E+03  4.67819E+02  2.07389E+03  1.24398E+03  1.59996E+03  2.73195E+03  1.55126E+03  2.66753E+03
 -1.28327E+03  4.24115E+03 -3.78617E+03  5.39784E+03 -4.81608E+03  1.51550E+03 -5.71267E+03 -1.16593E+03
 -2.49816E+03 -5.27728E+03  8.10425E+02 -6.36646E+03  2.89426E+03 -3.71093E+03  4.55772E+03 -1.22256E+03
  3.68691E+03  2.21519E+03  5.11531E+02  3.04708E+03 -1.07971E+03  1.88059E+03 -1.82884E+03 -2.62813E+02
 -9.51249E+02 -2.14540E+03  1.80563E+03 -2.32469E+03  1.83915E+03 -1.58492E+03  1.83799E+03  6.67667E+02
  1.27741E+03  6.73898E+02  1.03651E+03  1.78915E+02 -2.86937E+02  6.74173E+02  1.36621E+03 -3.19991E+02
  5.86225E+02 -2.63181E+02  2.39563E+03  8.38462E+02  8.13390E+02  3.28646E+03 -3.05096E+02  3.82231E+03
 -2.24671E+03  1.69815E+03 -3.26641E+03  8.52007E+02 -3.12345E+03 -1.33697E+03 -9.03257E+02 -1.69374E+03
  4.30391E+02 -1.87084E+03  1.48896E+03 -1.06985E+03  1.14089E+03  1.60364E+03 -6.92879E+02  1.77117E+03
 -2.15228E+03  1.18947E+03 -2.15300E+03 -1.46544E+03 -1.03851E+03 -2.88448E+03  3.10499E+02 -2.51227E+03
  1.11276E+03 -9.65572E+02  1.42970E+03 -1.04662E+02  1.62059E+03  2.62646E+02  2.00651E+02  1.38994E+03
 -9.27845E+02  4.68732E+02 -1.19933E+03 -3.30193E+02  6.76297E+02 -1.63925E+03  3.10463E+03 -1.59551E+03
  2.33380E+03  1.74393E+02  3.69436E+03  1.55461E+03  1.33009E+03  2.90010E+03 -5.50072E+02  2.93770E+03
 -2.62739E+03  6.52945E+02 -2.29797E+03 -3.17794E+02 -1.73258E+03 -1.82363E+03  5.33659E+02 -1.23554E+03
  1.91854E+03 -9.46608E+02  1.25791E+03  8.04258E+02  1.83126E+02  1.84956E+03  1.18064E+02  1.20247E+03
 -2.93748E+02  1.15054E+03 -5.11120E+02  3.35578E+02 -2.74070E+02  6.45555E+02 -1.00772E+03  9.10300E+02
 -7.07190E+02  1.50319E+03 -2.50516E+03  9.95484E+02 -2.65549E+03 -3.26105E+01 -3.39923E+03 -1.65450E+03
 -1.79421E+03 -3.75786E+03  9.04507E+02 -4.43775E+03  1.90607E+03 -3.71947E+03  4.15877E+03 -1.03962E+03
  3.86112E+03  4.61654E+02  2.28615E+03  2.55696E+03 -4.85734E+02  3.00147E+03 -1.35405E+03  1.95631E+03
 -1.51064E+03  1.04206E+03 -9.16368E+02 -4.36759E+02 -5.97145E+02  2.48688E+02 -5.96140E+02  5.92097E+01
 -9.74971E+02 -2.06592E+01 -8.30388E+02  3.53319E+00  3.64496E+02 -7.00364E+02 -3.58847E+02 -1.29491E+03
  1.66727E+03 -6.39766E+02  1.16867E+03  1.16236E+02  1.88464E+03  1.55505E+03 -6.41508E+01  2.70220E+03
 -1.43020E+03  3.64645E+03 -2.75381E+03  2.12347E+03 -3.00985E+03 -2.67883E+02 -2.38967E+03 -2.28551E+03
 -1.32321E+03 -2.17829E+03  5.02523E+02 -2.21650E+03  1.44757E+03 -9.09758E+02  1.37750E+03 -1.95699E+01
  1.15334E+03  8.09742E+02  8.35344E+00  5.69720E+02 -5.06523E+02 -3.11015E+01  1.73823E+02 -2.92570E+02
  6.90746E+02 -6.49170E+01  1.02476E+03  7.10899E+02  2.61379E+02  8.54509E+02  7.33576E+02  1.03864E+03
 -1.14504E+03  1.31190E+03 -1.00014E+03  1.78544E+02 -1.14953E+03 -1.01504E+03 -1.23988E+02 -1.57094E+03
  9.70523E+02 -1.75428E+03  1.07647E+03 -2.34689E+02  1.75173E+03 -1.42232E+02  1.07143E+03  1.57258E+03
  1.39373E+02  1.39749E+03 -7.27255E+02  1.07007E+03 -9.35962E+02  7.70138E+02 -9.18021E+02 -3.18496E+02
 -2.99728E+01 -2.20472E+02 -6.57405E+02  4.26464E+02 -9.22335E+02  2.47254E+02 -1.30204E+03 -2.69010E+02
 -1.29502E+03 -3.30780E+02 -2.26626E+02 -1.48775E+03  7.63162E+02 -2.05304E+03  1.48164E+03 -6.97570E+02
  1.22353E+03  7.95457E+01  2.13118E+02  8.93229E+02 -4.74587E+01  1.29591E+03 -1.12550E+03  1.39823E+03
