 $NMID ID='MM_0lb_SNR800_17hz_g60_39.RAW', FMTDAT='(8E13.5)'
 TRAMP=1., VOLUME=1. $END
  3.09868E+05  3.65248E+02  3.37571E+05  2.50605E+05  8.49151E+04  3.38177E+05 -1.32596E+05  2.50990E+05
 -1.90147E+05  8.30844E+04 -1.11687E+05 -3.25442E+04  8.84392E+02 -5.01018E+04  5.40858E+04  3.73917E+02
  3.51689E+04  5.25491E+04 -1.68733E+04  7.54122E+04 -6.06816E+04  6.36736E+04 -8.41432E+04  3.19135E+04
 -8.09300E+04 -1.13747E+04 -5.71282E+04 -5.11462E+04 -1.49700E+04 -6.94808E+04  2.74961E+04 -4.56890E+04
  3.97298E+04  3.85980E+03  1.62036E+04  4.74765E+04 -3.44203E+04  4.70120E+04 -6.64871E+04 -2.57502E+02
 -5.33792E+04 -5.65970E+04 -6.54864E+03 -7.69915E+04  3.38358E+04 -5.46084E+04  4.76193E+04 -1.70625E+04
  4.33028E+04  1.12875E+04  3.16821E+04  2.51359E+04  1.57015E+04  2.95214E+04 -5.10405E+03  2.71391E+04
 -2.19249E+04  1.24137E+04 -1.85920E+04 -4.92371E+03  5.32843E+03 -7.24043E+03  2.22288E+04  1.22318E+04
  7.24591E+03  3.52407E+04 -3.18036E+04  3.52735E+04 -6.30253E+04  2.24579E+03 -5.69544E+04 -4.24415E+04
 -1.22797E+04 -6.28831E+04  3.95757E+04 -4.49608E+04  5.77922E+04 -2.22940E+03  3.40940E+04  3.18391E+04
 -6.29471E+03  3.57171E+04 -2.97020E+04  1.53629E+04 -2.97836E+04 -4.88219E+03 -1.65350E+04 -1.07518E+04
 -8.03584E+03 -1.29884E+04 -7.20833E+02 -1.80025E+04  7.36483E+03 -2.30677E+04  1.52423E+04 -1.32135E+04
  1.16658E+04  5.07320E+03 -7.86667E+03  1.32581E+04 -2.08960E+04 -4.14692E+03 -8.30813E+03 -3.31175E+04
  2.24295E+04 -4.29916E+04  4.73805E+04 -1.94563E+04  4.44277E+04  1.94339E+04  1.52943E+04  4.37661E+04
 -1.56521E+04  3.30749E+04 -2.50809E+04  1.72461E+03 -9.64345E+03 -2.75638E+04  2.06738E+04 -3.36922E+04
  4.04000E+04 -8.68296E+03  3.49829E+04  2.38021E+04  1.77428E+04  4.56498E+04 -7.97016E+03  4.94472E+04
 -3.10845E+04  3.29011E+04 -4.11589E+04  9.54448E+03 -4.18369E+04 -1.64015E+04 -2.28751E+04 -3.69390E+04
  7.30107E+03 -3.69875E+04  3.10277E+04 -1.40087E+04  2.89958E+04  1.07295E+04  3.87856E+03  1.86018E+04
 -1.36604E+04  8.17179E+03 -1.01538E+04 -7.67652E+03  5.69492E+03 -1.05932E+04  1.77179E+04  6.10360E+03
  1.31025E+04  2.18490E+04 -6.37403E+03  2.44736E+04 -2.20224E+04  1.09750E+04 -2.74285E+04 -5.13755E+03
 -1.98319E+04 -1.70288E+04 -7.66758E+03 -1.99593E+04  3.68051E+03 -1.83412E+04  1.47206E+04 -1.76137E+04
  2.49571E+04 -1.24691E+04  3.16333E+04  2.55592E+03  2.29288E+04  1.88189E+04  4.16959E+03  3.53573E+04
 -1.72874E+04  2.94349E+04 -2.72492E+04  1.00603E+04 -2.04105E+04 -1.03884E+04 -4.18853E+03 -1.36916E+04
  1.71484E+03 -3.29135E+03 -4.27830E+03  6.44854E+03 -1.53472E+04  5.18386E+03 -1.57453E+04 -6.14659E+03
 -9.52579E+03 -1.83088E+04  4.87993E+03 -2.20112E+04  1.48526E+04 -1.56086E+04  1.70190E+04 -1.37861E+03
  1.08038E+04  1.23337E+04 -1.10881E+03  1.81539E+04 -1.22065E+04  1.00080E+04 -1.82538E+04 -3.86670E+03
 -1.32248E+04 -1.64119E+04 -1.67145E+03 -2.16861E+04  9.87687E+03 -1.79950E+04  1.80152E+04 -8.62806E+03
  1.66181E+04  4.19799E+02  1.22724E+04  4.15914E+03  6.60969E+03  9.59380E+02  9.03665E+03 -1.49068E+03
  1.61999E+04  2.74051E+03  1.78414E+04  1.43264E+04  1.14422E+04  2.83796E+04 -3.22518E+03  3.16416E+04
 -1.83556E+04  2.48492E+04 -2.93918E+04  1.25437E+04 -3.04324E+04 -2.11368E+03 -2.54746E+04 -1.72355E+04
 -1.15754E+04 -2.51164E+04  8.55992E+03 -2.24796E+04  1.98198E+04 -1.22001E+04  1.76297E+04  4.86006E+03
  7.21852E+03  1.29775E+04 -8.44799E+03  1.18282E+04 -1.51959E+04  2.64483E+03 -1.14981E+04 -9.31811E+03
 -8.31388E+01 -1.39842E+04  7.04020E+03 -1.10267E+04  9.35532E+03 -1.47224E+03  1.95004E+03  6.05446E+03
 -6.60647E+03  1.85655E+03 -5.00541E+03 -5.30354E+03  1.01292E+02 -1.20002E+04  8.74250E+03 -1.24303E+04
  1.51951E+04 -6.36766E+03  1.55397E+04  2.83369E+03  1.32843E+04  1.17427E+04  6.53675E+03  1.80435E+04
 -2.58341E+03  2.00989E+04 -1.21926E+04  1.23421E+04 -1.42225E+04  3.03832E+03 -1.00624E+04 -2.68689E+03
 -4.88750E+03 -4.36648E+03 -9.55487E+02  1.32736E+03 -1.96893E+03  2.42995E+03 -4.75323E+03  3.95360E+03
 -9.58236E+03 -4.66942E+02 -9.89732E+03 -8.43172E+03 -4.05796E+03 -1.31356E+04  4.12122E+03 -9.95388E+03
  8.41378E+03 -4.21550E+03  6.42300E+03  2.38529E+03  4.98918E+02  3.70544E+03 -4.10053E+03 -9.25806E+01
 -4.06449E+03 -6.18257E+03 -5.24726E+02 -9.06128E+03  5.01512E+03 -9.92219E+03  1.18763E+04 -5.12614E+03
  1.40928E+04  1.34579E+03  1.06610E+04  8.03392E+03  2.10593E+03  1.06538E+04 -6.31419E+03  9.88248E+03
 -8.22806E+03  3.01565E+03 -4.25785E+03 -2.13187E+03  1.33614E+03 -2.47750E+03  5.62068E+03 -6.53151E+02
  4.67419E+03  4.17655E+03  1.34532E+03  7.48142E+03 -5.53310E+03  7.52025E+03 -9.59114E+03  1.89390E+03
 -6.18791E+03 -4.50728E+03  3.80794E+02 -8.02848E+03  4.74246E+03 -3.89519E+03  4.99688E+03  1.58882E+03
  6.19404E+02  4.71811E+03 -5.18933E+03  6.02928E+03 -6.35781E+03  3.09179E+03 -6.49584E+03 -1.81063E+03
 -4.12996E+03 -7.76597E+03  1.79152E+03 -9.29483E+03  7.59738E+03 -5.91897E+03  8.44780E+03  1.64505E+03
  5.59812E+03  6.74436E+03 -1.55189E+02  8.50929E+03 -6.04253E+03  5.10886E+03 -6.51502E+03 -4.51602E+02
 -6.53588E+03 -6.07789E+03 -1.37254E+03 -6.22175E+03  3.37035E+03 -5.45115E+03  3.92027E+03 -2.79044E+03
  3.32298E+03  5.77307E+02 -1.50561E+01  1.47857E+03  4.39765E+02 -7.22905E+02  4.51171E+02 -3.02456E+03
  5.13702E+03 -1.51573E+03  7.30873E+03  7.90859E+02  7.25986E+03  4.54918E+03  6.16996E+03  9.25370E+03
 -2.10268E+03  1.11824E+04 -9.94650E+03  8.33344E+03 -1.24756E+04  1.97463E+03 -1.01155E+04 -3.52061E+03
 -5.27367E+03 -8.13372E+03 -4.26996E+02 -6.80791E+03  2.89341E+03 -2.87880E+03  2.32194E+03 -2.89036E+03
  1.56869E+03 -1.77170E+03  2.41872E+03 -2.77505E+03  3.58941E+03 -1.51022E+03  4.05877E+03  1.51646E+02
  5.57254E+03  1.18297E+03  2.19813E+03  4.32652E+03 -1.73179E+03  4.55798E+03 -5.55899E+03  3.47169E+03
 -6.44912E+03 -1.11918E+03 -3.15618E+03 -4.39632E+03  2.23507E+01 -6.72467E+03  4.17028E+03 -6.67342E+03
  7.31618E+03 -4.08131E+03  8.54589E+03  4.68459E+02  6.18544E+03  5.71286E+03  1.16605E+03  7.82736E+03
 -2.75740E+03  7.00372E+03 -4.48940E+03  2.23834E+03 -2.63238E+03 -8.20923E+02 -6.27625E+02 -8.74928E+02
 -7.85005E+02  4.13737E+02 -1.34393E+03  2.22128E+03 -2.83277E+03  1.26512E+03 -4.97851E+03 -1.02646E+03
 -2.36990E+03 -5.00070E+03  7.15518E+02 -6.06105E+03  3.56037E+03 -5.69236E+03  5.18376E+03 -1.43214E+03
  5.44900E+03  2.62371E+03  2.42919E+03  4.46837E+03 -1.07672E+03  5.86970E+03 -3.87410E+03  3.51393E+03
 -5.16282E+03  8.07710E+02 -4.70269E+03 -2.98382E+03 -2.93735E+02 -4.12047E+03  1.85652E+03 -3.35275E+03
  3.69489E+03 -1.79189E+03  2.40683E+03  4.82287E+02  8.95952E+02  1.84854E+03  7.03618E+02  6.35339E+02
  1.71989E+03  5.21950E+02  1.86057E+03  1.00563E+03  1.46044E+03  2.59675E+03  1.67139E+03  2.42170E+03
 -1.63742E+03  3.88758E+03 -3.13149E+03  4.86680E+03 -4.32529E+03  1.44966E+03 -5.30319E+03 -1.13108E+03
 -2.28255E+03 -4.81577E+03  1.01836E+03 -6.31361E+03  2.51449E+03 -3.45716E+03  4.03867E+03 -1.16678E+03
  3.14727E+03  2.37714E+03  6.88948E+02  3.09269E+03 -1.12575E+03  1.72056E+03 -1.59811E+03 -3.49783E+02
 -8.49356E+02 -2.03518E+03  1.49652E+03 -2.25270E+03  1.74743E+03 -1.16552E+03  1.77872E+03  4.92326E+02
  1.42205E+03  5.68780E+02  7.34794E+02  1.45711E+02 -4.34007E+02  9.50610E+02  9.36960E+02 -9.26003E+01
  3.65024E+02 -2.89946E+02  2.29509E+03  6.18921E+02  7.59977E+02  2.84470E+03 -2.94011E+02  3.39994E+03
 -2.30388E+03  1.77310E+03 -2.90453E+03  5.93859E+02 -2.48777E+03 -1.10472E+03 -5.12765E+02 -1.64473E+03
  6.44587E+02 -1.56843E+03  1.01524E+03 -9.92225E+02  9.99992E+02  1.45615E+03 -7.01950E+02  1.35437E+03
 -1.88217E+03  9.99570E+02 -1.70148E+03 -1.40656E+03 -9.67511E+02 -2.61947E+03  4.80585E+02 -2.13813E+03
  1.04777E+03 -8.45385E+02  1.33223E+03  1.18309E+02  1.72629E+03 -5.25551E+01  3.57982E+02  1.47325E+03
 -3.50131E+02  1.97723E+02 -1.28581E+03 -1.96755E+02  4.91329E+02 -1.44478E+03  2.17126E+03 -1.19475E+03
  1.76177E+03  5.09244E+02  3.71968E+03  1.10305E+03  1.10992E+03  2.45987E+03 -2.65152E+02  2.17471E+03
 -2.03378E+03  3.66540E+02 -2.07676E+03 -2.28099E+02 -1.01030E+03 -1.67743E+03  4.23248E+02 -1.03690E+03
  1.67081E+03 -9.89568E+02  9.36557E+02  6.19299E+02  2.55145E+02  1.63178E+03  3.50327E+02  1.31274E+03
 -5.83306E+02  1.19536E+03 -5.40413E+02  4.51497E+02  5.00318E+01  4.27040E+02 -1.14349E+03  7.85016E+02
 -8.37648E+02  1.33134E+03 -2.27322E+03  5.11172E+02 -2.00033E+03  5.05896E+01 -2.96230E+03 -1.18727E+03
 -1.36568E+03 -3.14012E+03  4.05297E+02 -3.78168E+03  1.54063E+03 -3.04298E+03  3.75041E+03 -1.29593E+03
  2.97019E+03  1.00525E+02  1.75128E+03  2.24993E+03 -4.12374E+02  2.03894E+03 -9.40255E+02  1.57381E+03
 -1.20717E+03  7.79991E+02 -8.36300E+02 -2.66660E+02 -3.12812E+02 -1.14281E+02 -8.21255E+02  2.02826E+02
 -1.05520E+03  3.19856E+01 -8.26604E+02 -1.89580E+02  3.26853E+02 -8.34627E+02 -3.24996E+02 -1.08624E+03
  1.46349E+03 -7.87724E+02  5.24685E+02  1.97113E+02  1.35586E+03  1.25559E+03 -3.24436E+02  2.03726E+03
 -1.15905E+03  2.43516E+03 -1.85552E+03  1.82352E+03 -2.36200E+03 -4.50051E+02 -1.70048E+03 -1.50167E+03
 -1.17858E+03 -1.91861E+03  4.72238E+02 -1.41961E+03  1.31723E+03 -9.78351E+02  9.90710E+02  1.11736E+02
  9.65855E+02  5.81288E+02  6.11103E+01  3.83130E+02 -3.76356E+02 -1.82617E+02  2.55249E+02 -3.66550E+02
  8.71290E+02  9.85205E+01  5.60148E+02  7.43040E+02  3.03212E+01  3.04985E+02  6.30355E+02  3.60755E+02
 -1.35176E+03  7.45413E+02 -7.56005E+02 -5.56617E+01 -1.02091E+03 -8.98423E+02  1.45027E+02 -1.36143E+03
  1.01259E+03 -1.06509E+03  1.01245E+03 -2.25947E+02  1.05770E+03 -2.74841E+02  3.13497E+02  1.23752E+03
  1.95432E+02  8.64309E+02 -2.55675E+02  6.53761E+02 -5.79521E+02  8.69717E+02 -4.42370E+02  7.12462E+01
 -5.29885E+02  7.51311E+00 -6.30304E+02  2.04802E+02 -7.74135E+02  2.47120E+02 -9.45344E+02  4.33241E+01
 -1.11117E+03  5.94638E+02 -2.11184E+02 -1.16767E+03  9.07585E+02 -1.66477E+03  9.22282E+02 -2.91735E+02
  9.27578E+02  2.07901E+02 -9.53066E+01  4.61484E+02 -1.62323E+02  8.67442E+02 -4.93265E+02  7.77122E+02
