 $NMID ID='MM_0lb_SNR800_9hz_g40_68.RAW', FMTDAT='(8E13.5)'
 TRAMP=1., VOLUME=1. $END
  3.09855E+05  3.01305E+02  3.38070E+05  2.50708E+05  8.49416E+04  3.38237E+05 -1.32642E+05  2.51943E+05
 -1.91284E+05  8.35461E+04 -1.12403E+05 -3.22509E+04  4.35663E+02 -5.06862E+04  5.40803E+04 -5.25846E+02
  3.51142E+04  5.25538E+04 -1.65399E+04  7.62930E+04 -6.13059E+04  6.45750E+04 -8.49312E+04  3.24401E+04
 -8.22551E+04 -1.16582E+04 -5.84922E+04 -5.21673E+04 -1.51320E+04 -7.07844E+04  2.78697E+04 -4.61406E+04
  4.08144E+04  3.60815E+03  1.62930E+04  4.87092E+04 -3.46966E+04  4.77527E+04 -6.79337E+04 -1.92099E+02
 -5.45536E+04 -5.77279E+04 -7.32104E+03 -7.82311E+04  3.48154E+04 -5.65417E+04  4.94486E+04 -1.76978E+04
  4.49339E+04  1.17542E+04  3.31081E+04  2.61885E+04  1.59684E+04  3.03780E+04 -5.52373E+03  2.77322E+04
 -2.24042E+04  1.22140E+04 -1.83257E+04 -6.08390E+03  6.50661E+03 -7.69264E+03  2.32988E+04  1.33509E+04
  7.15758E+03  3.70652E+04 -3.35054E+04  3.65103E+04 -6.54599E+04  2.14933E+03 -5.86043E+04 -4.41482E+04
 -1.29498E+04 -6.56178E+04  4.13183E+04 -4.73241E+04  6.04507E+04 -2.59982E+03  3.63333E+04  3.39592E+04
 -5.70038E+03  3.89494E+04 -3.09637E+04  1.83750E+04 -3.28888E+04 -3.41372E+03 -1.89758E+04 -1.19364E+04
 -9.49890E+03 -1.47069E+04 -3.35071E+02 -1.89197E+04  8.07648E+03 -2.34328E+04  1.55755E+04 -1.24899E+04
  1.05980E+04  5.53964E+03 -1.03232E+04  1.30912E+04 -2.28590E+04 -5.73641E+03 -9.06479E+03 -3.67946E+04
  2.45386E+04 -4.61246E+04  5.12077E+04 -2.05128E+04  4.79323E+04  2.04363E+04  1.68021E+04  4.59183E+04
 -1.70957E+04  3.54985E+04 -2.71880E+04  2.89827E+03 -1.15557E+04 -2.92823E+04  2.13137E+04 -3.67673E+04
  4.34393E+04 -1.06084E+04  3.94796E+04  2.50349E+04  2.05087E+04  5.01938E+04 -8.25186E+03  5.50651E+04
 -3.48159E+04  3.71804E+04 -4.63096E+04  1.05853E+04 -4.66460E+04 -1.80356E+04 -2.56143E+04 -4.15249E+04
  7.66386E+03 -4.10607E+04  3.40206E+04 -1.64573E+04  3.18576E+04  1.11171E+04  4.89970E+03  2.08350E+04
 -1.40994E+04  9.46501E+03 -1.12404E+04 -7.42093E+03  5.75372E+03 -1.12224E+04  1.89489E+04  5.78495E+03
  1.47819E+04  2.24850E+04 -5.62378E+03  2.68018E+04 -2.32014E+04  1.38084E+04 -3.07618E+04 -2.97472E+03
 -2.44100E+04 -1.81776E+04 -1.11947E+04 -2.40936E+04  4.27369E+03 -2.45626E+04  1.92007E+04 -2.23415E+04
  3.07919E+04 -1.36756E+04  3.70747E+04  4.40300E+03  2.63522E+04  2.34479E+04  4.53286E+03  4.04900E+04
 -1.95937E+04  3.30337E+04 -3.00223E+04  1.12056E+04 -2.21628E+04 -1.05771E+04 -4.72920E+03 -1.28698E+04
  1.29001E+03 -1.08778E+03 -7.16671E+03  7.93089E+03 -1.93894E+04  5.10102E+03 -1.95789E+04 -8.68288E+03
 -1.14018E+04 -2.26135E+04  5.96893E+03 -2.67936E+04  1.83264E+04 -1.90571E+04  2.19225E+04 -1.28882E+03
  1.37237E+04  1.55315E+04 -1.31369E+03  2.24572E+04 -1.59994E+04  1.33388E+04 -2.27615E+04 -4.80390E+03
 -1.66422E+04 -2.03692E+04 -2.58761E+03 -2.71346E+04  1.21715E+04 -2.24244E+04  2.31013E+04 -1.18838E+04
  2.11495E+04 -2.95328E+02  1.48260E+04  5.27389E+03  8.63010E+03  1.11359E+03  1.16415E+04 -2.24351E+03
  2.11888E+04  2.84089E+03  2.44803E+04  1.79888E+04  1.67638E+04  3.64805E+04 -2.61735E+03  4.23349E+04
 -2.42283E+04  3.52317E+04 -4.01087E+04  1.81822E+04 -4.28593E+04 -2.85492E+03 -3.47303E+04 -2.50507E+04
 -1.37274E+04 -3.56587E+04  1.23485E+04 -3.14735E+04  2.69087E+04 -1.47237E+04  2.33543E+04  7.15515E+03
  7.97070E+03  1.80230E+04 -1.11360E+04  1.56070E+04 -1.92807E+04  2.42575E+03 -1.47371E+04 -1.25342E+04
 -5.71346E+02 -1.87552E+04  1.02899E+04 -1.39778E+04  1.27110E+04 -1.18348E+03  3.46317E+03  8.48758E+03
 -8.10352E+03  3.83427E+03 -8.75901E+03 -6.34373E+03 -1.61053E+03 -1.74138E+04  1.16617E+04 -1.86777E+04
  2.19878E+04 -1.04509E+04  2.48111E+04  3.18963E+03  2.21881E+04  1.77676E+04  9.91348E+03  2.76379E+04
 -5.19188E+03  2.99477E+04 -1.93337E+04  1.83670E+04 -2.15163E+04  4.19161E+03 -1.46495E+04 -5.58935E+03
 -6.01724E+03 -7.03450E+03 -1.85024E+02  3.88622E+02 -2.77825E+03  3.24798E+03 -6.60733E+03  5.25974E+03
 -1.33036E+04 -1.19675E+03 -1.44942E+04 -1.10528E+04 -5.77264E+03 -1.86146E+04  5.97084E+03 -1.49560E+04
  1.24762E+04 -6.17955E+03  8.84076E+03  3.76925E+03 -4.59654E+02  6.33429E+03 -7.59440E+03 -2.14538E+02
 -6.94200E+03 -9.31798E+03 -1.44780E+03 -1.48513E+04  8.59729E+03 -1.59833E+04  1.90487E+04 -8.48488E+03
  2.28083E+04  2.22915E+03  1.61862E+04  1.33894E+04  3.19981E+03  1.81367E+04 -8.99065E+03  1.47381E+04
 -1.21298E+04  4.76388E+03 -6.22277E+03 -3.48101E+03  1.88641E+03 -4.63640E+03  8.02662E+03 -1.06452E+03
  7.09207E+03  6.45944E+03  1.24644E+03  1.22261E+04 -8.81388E+03  1.13663E+04 -1.48003E+04  2.97223E+03
 -1.05174E+04 -7.94576E+03  3.36070E+02 -1.31117E+04  8.26610E+03 -7.12747E+03  8.52383E+03  3.03625E+03
  1.69943E+03  9.66833E+03 -7.85442E+03  1.10834E+04 -1.29563E+04  4.90348E+03 -1.33247E+04 -4.73494E+03
 -7.91141E+03 -1.44402E+04  3.58441E+03 -1.70439E+04  1.45120E+04 -1.01296E+04  1.61256E+04  2.76745E+03
  9.39078E+03  1.26846E+04 -1.11152E+03  1.54481E+04 -1.07669E+04  8.56452E+03 -1.17878E+04 -1.21850E+03
 -1.03022E+04 -9.60207E+03 -1.60922E+03 -1.12020E+04  6.11715E+03 -8.72190E+03  7.32204E+03 -3.55187E+03
  4.72741E+03  2.19454E+03 -9.91832E+02  1.91924E+03 -8.72001E+02 -3.01652E+03  1.86341E+03 -6.92112E+03
  1.06618E+04 -4.55355E+03  1.48169E+04  1.62828E+03  1.53188E+04  1.05938E+04  9.70926E+03  1.97424E+04
 -4.32426E+03  2.27878E+04 -1.88636E+04  1.63671E+04 -2.44720E+04  3.32521E+03 -1.94403E+04 -8.04159E+03
 -9.86572E+03 -1.60361E+04 -1.52253E+02 -1.33820E+04  4.75321E+03 -7.62464E+03  4.52105E+03 -4.92131E+03
  3.45181E+03 -2.94727E+03  3.90945E+03 -4.18540E+03  5.61939E+03 -3.16766E+03  7.49220E+03 -1.47557E+03
  1.02291E+04  2.19328E+03  5.50158E+03  8.66290E+03 -2.30874E+03  1.06477E+04 -1.08089E+04  8.21045E+03
 -1.39211E+04 -1.50379E+03 -8.79901E+03 -1.01191E+04 -1.33981E+03 -1.53628E+04  8.32445E+03 -1.46996E+04
  1.55304E+04 -8.44659E+03  1.83805E+04  2.78418E+03  1.25453E+04  1.26327E+04  2.33400E+03  1.68835E+04
 -6.85738E+03  1.30733E+04 -9.76763E+03  4.82274E+03 -6.67503E+03 -1.88354E+03 -2.71157E+03 -1.91170E+03
 -1.45090E+03 -1.92326E+02 -2.09817E+03  3.21198E+03 -5.92816E+03  2.25000E+03 -9.29661E+03 -1.30558E+03
 -7.09382E+03 -9.36351E+03 -1.75132E+02 -1.38537E+04  8.41460E+03 -1.30116E+04  1.37448E+04 -4.04584E+03
  1.38466E+04  6.84101E+03  6.43904E+03  1.20282E+04 -2.97230E+03  1.40204E+04 -9.91118E+03  8.92642E+03
 -1.27263E+04  2.76092E+02 -1.00472E+04 -8.31926E+03 -1.08245E+03 -1.14384E+04  5.69751E+03 -8.77146E+03
  8.78748E+03 -2.47780E+03  5.84190E+03  2.00576E+03  2.01659E+03  4.08911E+03  1.51251E+03  1.86487E+03
  2.69935E+03  1.12583E+03  3.53378E+03  2.04624E+03  4.03822E+03  4.98992E+03  3.56956E+03  7.48351E+03
 -2.73501E+03  1.09266E+04 -9.51920E+03  1.14471E+04 -1.47503E+04  2.69214E+03 -1.52909E+04 -6.28128E+03
 -7.30290E+03 -1.40733E+04  2.48118E+03 -1.58036E+04  9.04886E+03 -9.83843E+03  1.10217E+04 -2.34622E+03
  9.04412E+03  5.23306E+03  1.88746E+03  8.32023E+03 -4.09008E+03  5.13840E+03 -5.63475E+03 -9.44637E+02
 -3.02504E+03 -5.78279E+03  3.65839E+03 -6.02380E+03  5.92587E+03 -3.14035E+03  5.72312E+03  1.36634E+03
  3.28097E+03  2.85830E+03  1.23360E+03  2.41226E+03 -9.49187E+02  1.81751E+03  1.77080E+03 -4.68653E+02
  2.16614E+03 -9.46137E+02  5.62414E+03  1.98434E+03  3.36887E+03  7.84432E+03 -1.64386E+03  1.01027E+04
 -6.78971E+03  6.48721E+03 -8.98326E+03  1.72291E+03 -8.26023E+03 -2.97497E+03 -2.92578E+03 -5.47955E+03
  8.80147E+02 -5.50027E+03  3.99532E+03 -2.74024E+03  2.85350E+03  2.96668E+03 -1.52177E+03  4.54207E+03
 -5.79400E+03  2.88908E+03 -6.64935E+03 -3.51213E+03 -3.55196E+03 -7.95509E+03  1.20363E+03 -8.01854E+03
  4.62951E+03 -5.04926E+03  5.53284E+03 -5.73202E+02  4.91775E+03  1.93593E+03  6.93921E+02  4.25747E+03
 -2.20912E+03  1.44699E+03 -3.74932E+03 -2.60393E+03  1.12787E+03 -6.06462E+03  7.02110E+03 -5.29476E+03
  9.21591E+03  5.54254E+02  9.12582E+03  6.37190E+03  2.88276E+03  9.77953E+03 -3.03405E+03  8.43394E+03
 -7.63627E+03  3.56073E+03 -8.00086E+03 -8.22786E+02 -3.92658E+03 -6.00432E+03  1.12196E+03 -6.03877E+03
  5.91761E+03 -2.90660E+03  4.82750E+03  2.42463E+03  1.47522E+03  5.29017E+03 -6.35754E+02  4.42358E+03
 -2.79349E+03  2.65301E+03 -2.49284E+03  1.07419E+03 -1.16344E+03  1.05849E+03 -1.90979E+03  1.87322E+03
 -2.15943E+03  3.93166E+03 -6.69482E+03  3.08236E+03 -9.29822E+03  2.81938E+02 -1.03297E+04 -6.03186E+03
 -5.61816E+03 -1.26319E+04  2.66912E+03 -1.45927E+04  8.98904E+03 -1.12556E+04  1.35293E+04 -4.55906E+03
  1.26737E+04  2.69218E+03  7.98688E+03  8.61969E+03  7.25585E+02  9.48228E+03 -4.11542E+03  7.46923E+03
 -5.69579E+03  2.86860E+03 -3.38230E+03 -1.27167E+03 -1.62035E+03 -7.67945E+02 -8.14607E+02  1.48048E+02
 -1.80336E+03  3.30037E+02 -2.43697E+03 -3.34060E+02 -5.94773E+02 -2.13524E+03 -7.21791E+01 -3.64292E+03
  4.21997E+03 -3.05014E+03  5.71866E+03 -2.82553E+02  6.62880E+03  4.94850E+03  1.91506E+03  9.79952E+03
 -4.47418E+03  1.11506E+04 -1.02050E+04  6.40436E+03 -1.18647E+04 -7.67171E+02 -8.74562E+03 -7.03105E+03
 -4.16876E+03 -9.98329E+03  3.15409E+03 -9.34851E+03  6.45163E+03 -4.96789E+03  6.20756E+03  1.08604E+02
  3.54715E+03  3.08308E+03 -2.52204E+02  2.25070E+03 -1.83642E+03 -1.94914E+02  1.85596E+02 -2.27630E+03
  3.23212E+03 -1.37813E+03  3.81825E+03  9.75866E+02  2.84809E+03  4.14789E+03  3.61493E+02  4.94646E+03
 -4.49308E+03  4.65327E+03 -6.95173E+03  3.27107E+02 -5.61620E+03 -4.56870E+03 -8.47841E+02 -7.83393E+03
  4.78595E+03 -6.91037E+03  7.81772E+03 -2.20339E+03  7.66762E+03  1.75110E+03  4.30094E+03  6.14033E+03
  9.44351E+02  6.66322E+03 -2.70378E+03  5.35253E+03 -4.43611E+03  2.91206E+03 -3.33255E+03  2.80765E+02
 -1.48539E+03 -5.38291E+02 -1.79862E+03  1.02680E+03 -3.64580E+03  1.09974E+03 -4.86913E+03 -6.09984E+02
 -5.21479E+03 -3.41201E+03 -1.52489E+03 -6.74284E+03  2.79864E+03 -7.33646E+03  5.73798E+03 -3.48327E+03
  6.90036E+03  6.11241E+02  3.51060E+03  4.88098E+03 -7.11548E+02  6.77843E+03 -5.12719E+03  4.42990E+03
