 $NMID ID='MM_0lb_SNR800_11hz_g45_11.RAW', FMTDAT='(8E13.5)'
 TRAMP=1., VOLUME=1. $END
  3.09703E+05  3.36745E+02  3.38055E+05  2.50751E+05  8.45032E+04  3.37958E+05 -1.32553E+05  2.51173E+05
 -1.90344E+05  8.36620E+04 -1.12451E+05 -3.23965E+04  1.16695E+03 -5.09669E+04  5.39161E+04 -4.29584E+02
  3.54720E+04  5.28373E+04 -1.67036E+04  7.57529E+04 -6.10924E+04  6.41819E+04 -8.45272E+04  3.20500E+04
 -8.15342E+04 -1.12689E+04 -5.75931E+04 -5.21269E+04 -1.52735E+04 -7.05490E+04  2.75565E+04 -4.61632E+04
  4.06251E+04  3.69228E+03  1.62849E+04  4.81070E+04 -3.49621E+04  4.80156E+04 -6.74180E+04  8.52018E+01
 -5.42323E+04 -5.71546E+04 -6.93085E+03 -7.80406E+04  3.44237E+04 -5.61332E+04  4.90186E+04 -1.79729E+04
  4.42052E+04  1.11829E+04  3.27296E+04  2.61665E+04  1.59778E+04  2.99414E+04 -5.53541E+03  2.75102E+04
 -2.24615E+04  1.21742E+04 -1.85474E+04 -5.21780E+03  5.89246E+03 -7.40560E+03  2.32804E+04  1.29237E+04
  7.46212E+03  3.64782E+04 -3.29724E+04  3.62725E+04 -6.48058E+04  2.07453E+03 -5.77312E+04 -4.36368E+04
 -1.24428E+04 -6.46032E+04  4.06613E+04 -4.63785E+04  5.96051E+04 -2.55425E+03  3.56576E+04  3.33147E+04
 -5.72771E+03  3.74871E+04 -3.06789E+04  1.76579E+04 -3.20142E+04 -4.06779E+03 -1.79123E+04 -1.14255E+04
 -9.10016E+03 -1.41348E+04 -8.23188E+02 -1.88311E+04  8.14563E+03 -2.35330E+04  1.57773E+04 -1.27906E+04
  1.07712E+04  5.94372E+03 -9.16433E+03  1.25286E+04 -2.20821E+04 -5.66412E+03 -8.64304E+03 -3.53823E+04
  2.40899E+04 -4.56337E+04  5.00196E+04 -2.02719E+04  4.67978E+04  2.00736E+04  1.63411E+04  4.57291E+04
 -1.62463E+04  3.49423E+04 -2.64429E+04  2.26296E+03 -1.04595E+04 -2.84860E+04  2.13008E+04 -3.54819E+04
  4.29266E+04 -1.00546E+04  3.75609E+04  2.43397E+04  1.97115E+04  4.87205E+04 -8.16809E+03  5.30649E+04
 -3.35350E+04  3.59858E+04 -4.44633E+04  1.02134E+04 -4.48475E+04 -1.78426E+04 -2.48561E+04 -3.99755E+04
  7.53246E+03 -3.94680E+04  3.30532E+04 -1.60985E+04  3.00662E+04  1.09410E+04  4.43755E+03  2.02717E+04
 -1.38542E+04  8.83866E+03 -1.06990E+04 -7.30303E+03  5.67237E+03 -1.11788E+04  1.84573E+04  6.19520E+03
  1.44995E+04  2.27941E+04 -5.61526E+03  2.60502E+04 -2.26081E+04  1.29246E+04 -2.96740E+04 -4.04922E+03
 -2.27133E+04 -1.79172E+04 -9.80176E+03 -2.26062E+04  4.64963E+03 -2.24736E+04  1.79892E+04 -2.08752E+04
  2.91262E+04 -1.37644E+04  3.51829E+04  3.65746E+03  2.53239E+04  2.22620E+04  4.41121E+03  3.89885E+04
 -1.85852E+04  3.21749E+04 -2.92578E+04  1.08543E+04 -2.17699E+04 -1.05149E+04 -4.50129E+03 -1.33713E+04
  1.31198E+03 -2.06302E+03 -6.39920E+03  7.29804E+03 -1.82316E+04  5.51829E+03 -1.82073E+04 -8.23311E+03
 -1.10905E+04 -2.09231E+04  5.68383E+03 -2.54283E+04  1.68104E+04 -1.83333E+04  2.01767E+04 -1.93540E+03
  1.29603E+04  1.47092E+04 -9.18490E+02  2.11906E+04 -1.45391E+04  1.18047E+04 -2.14637E+04 -4.33670E+03
 -1.55587E+04 -1.89470E+04 -1.90361E+03 -2.56933E+04  1.13972E+04 -2.06592E+04  2.09427E+04 -1.07510E+04
  1.98294E+04 -1.71106E+02  1.41032E+04  4.78551E+03  7.89358E+03  1.18036E+03  1.08154E+04 -1.93480E+03
  1.94859E+04  2.75162E+03  2.25741E+04  1.67640E+04  1.50800E+04  3.41483E+04 -2.46063E+03  3.91087E+04
 -2.25451E+04  3.21221E+04 -3.67422E+04  1.62133E+04 -3.92146E+04 -2.68531E+03 -3.18233E+04 -2.24685E+04
 -1.31146E+04 -3.26422E+04  1.11299E+04 -2.86331E+04  2.43705E+04 -1.39526E+04  2.19656E+04  6.67584E+03
  7.27906E+03  1.67230E+04 -1.00265E+04  1.39372E+04 -1.81598E+04  2.49848E+03 -1.40970E+04 -1.14560E+04
  1.20765E+02 -1.70075E+04  9.13419E+03 -1.29170E+04  1.18748E+04 -1.31638E+03  2.83433E+03  7.76075E+03
 -7.44515E+03  3.41475E+03 -7.66783E+03 -6.40092E+03 -1.15017E+03 -1.60124E+04  1.06366E+04 -1.71714E+04
  1.95349E+04 -9.22617E+03  2.20348E+04  2.79365E+03  1.94531E+04  1.56597E+04  8.88671E+03  2.48985E+04
 -4.39174E+03  2.69033E+04 -1.71676E+04  1.63067E+04 -1.92893E+04  3.82364E+03 -1.32537E+04 -4.62474E+03
 -5.82889E+03 -5.79308E+03 -6.81089E+02  7.97424E+02 -2.79086E+03  3.07350E+03 -6.35595E+03  5.16253E+03
 -1.25745E+04 -8.86602E+02 -1.29139E+04 -1.04405E+04 -5.60296E+03 -1.70474E+04  5.33105E+03 -1.31643E+04
  1.12639E+04 -5.71833E+03  7.76157E+03  3.24699E+03  4.10875E+01  5.57547E+03 -6.32591E+03 -8.97433E+01
 -6.13016E+03 -8.88303E+03 -1.19542E+03 -1.26712E+04  7.23370E+03 -1.39432E+04  1.70132E+04 -7.30225E+03
  1.98589E+04  1.98669E+03  1.45839E+04  1.19711E+04  2.29486E+03  1.57343E+04 -8.30190E+03  1.34826E+04
 -1.07911E+04  3.90897E+03 -5.63454E+03 -3.03123E+03  2.13240E+03 -3.45042E+03  7.24491E+03 -9.35195E+02
  6.47833E+03  5.89696E+03  9.36299E+02  1.03307E+04 -7.69239E+03  1.05452E+04 -1.30173E+04  2.56254E+03
 -9.04960E+03 -6.89812E+03  6.93066E+01 -1.10984E+04  7.27728E+03 -5.87535E+03  7.51934E+03  2.63592E+03
  1.61976E+03  7.79355E+03 -7.01282E+03  9.72606E+03 -1.05070E+04  4.64982E+03 -1.07404E+04 -3.80022E+03
 -6.19331E+03 -1.26134E+04  3.14735E+03 -1.47821E+04  1.23886E+04 -8.87091E+03  1.36215E+04  2.47857E+03
  8.58575E+03  1.07221E+04 -9.42023E+02  1.30720E+04 -9.85630E+03  7.36117E+03 -1.02571E+04 -1.53539E+03
 -9.20158E+03 -8.73009E+03 -1.43634E+03 -9.64737E+03  5.06679E+03 -8.07758E+03  6.30355E+03 -3.49349E+03
  4.42797E+03  1.12366E+03 -7.50933E+02  1.44298E+03 -2.84314E+02 -2.29062E+03  1.83581E+03 -5.90319E+03
  8.91907E+03 -3.50449E+03  1.24456E+04  1.45046E+03  1.23030E+04  8.53538E+03  8.68279E+03  1.66734E+04
 -3.97332E+03  1.90226E+04 -1.56957E+04  1.35857E+04 -2.06953E+04  2.49758E+03 -1.65108E+04 -6.98900E+03
 -8.35700E+03 -1.34524E+04 -4.01997E+02 -1.18342E+04  4.12070E+03 -6.65487E+03  4.23901E+03 -4.25055E+03
  3.01896E+03 -2.79797E+03  3.38209E+03 -3.17982E+03  5.14342E+03 -2.74762E+03  6.84609E+03 -5.40215E+02
  8.76219E+03  2.01215E+03  4.26393E+03  7.56645E+03 -2.08254E+03  8.60921E+03 -9.50443E+03  6.56750E+03
 -1.14690E+04 -1.36186E+03 -6.63226E+03 -8.00625E+03 -8.46990E+02 -1.19115E+04  6.95080E+03 -1.22341E+04
  1.25738E+04 -6.79065E+03  1.54635E+04  1.98649E+03  1.08412E+04  1.07225E+04  1.74250E+03  1.41370E+04
 -5.99931E+03  1.13115E+04 -8.24938E+03  4.19862E+03 -5.51661E+03 -1.15324E+03 -2.01528E+03 -1.76008E+03
 -7.33071E+02 -1.75070E+02 -2.07196E+03  2.24355E+03 -4.95598E+03  1.65003E+03 -8.29052E+03 -8.78258E+02
 -5.95915E+03 -8.00885E+03 -7.62928E+01 -1.15296E+04  7.07260E+03 -1.05176E+04  1.08998E+04 -3.30600E+03
  1.12384E+04  5.63823E+03  5.18322E+03  1.00958E+04 -2.51248E+03  1.16015E+04 -7.94228E+03  6.98243E+03
 -1.08337E+04  5.56304E+02 -7.93726E+03 -6.93723E+03 -6.77044E+02 -9.21474E+03  4.41768E+03 -6.71770E+03
  6.83101E+03 -2.43681E+03  4.74030E+03  1.83812E+03  1.76660E+03  3.79494E+03  9.92231E+02  1.60948E+03
  2.24074E+03  1.11321E+03  2.73234E+03  1.78769E+03  3.73009E+03  4.35548E+03  2.70865E+03  5.94666E+03
 -2.50185E+03  8.63762E+03 -7.74290E+03  9.06886E+03 -1.12301E+04  2.35559E+03 -1.21564E+04 -4.30063E+03
 -5.67091E+03 -1.10997E+04  1.63257E+03 -1.22958E+04  6.42597E+03 -7.51279E+03  9.22338E+03 -2.35223E+03
  7.17451E+03  4.32256E+03  1.37170E+03  6.54765E+03 -3.29970E+03  4.20845E+03 -4.34364E+03 -8.20807E+02
 -2.16743E+03 -4.55182E+03  2.83545E+03 -5.22058E+03  4.61328E+03 -2.62383E+03  4.30586E+03  8.50326E+02
  2.62001E+03  2.12235E+03  9.27541E+02  1.68312E+03 -6.39702E+02  1.48035E+03  1.84635E+03 -2.82742E+02
  1.82212E+03 -4.16724E+02  4.53237E+03  1.85208E+03  2.06448E+03  6.43381E+03 -8.45103E+02  8.20958E+03
 -5.29582E+03  4.50208E+03 -7.10744E+03  1.31091E+03 -6.08484E+03 -2.27677E+03 -2.09375E+03 -4.22574E+03
  8.72781E+02 -4.13046E+03  2.91245E+03 -2.04964E+03  2.42745E+03  2.17840E+03 -1.30933E+03  3.35882E+03
 -4.73009E+03  2.16492E+03 -5.03696E+03 -2.52158E+03 -2.71032E+03 -6.04998E+03  9.16950E+02 -6.06001E+03
  3.21353E+03 -3.43032E+03  4.27281E+03 -5.34268E+02  3.76071E+03  1.25403E+03  4.08156E+02  3.62443E+03
 -2.16709E+03  1.25982E+03 -2.96688E+03 -1.66216E+03  1.38485E+03 -4.51479E+03  5.66736E+03 -3.85021E+03
  6.79717E+03  3.50658E+02  6.88575E+03  3.98914E+03  2.48800E+03  6.94706E+03 -2.63239E+03  6.75923E+03
 -5.60510E+03  2.54196E+03 -6.10332E+03 -9.38411E+02 -2.86903E+03 -4.92615E+03  1.01695E+03 -3.90612E+03
  4.78091E+03 -2.04167E+03  3.33746E+03  2.02886E+03  1.28501E+03  3.91718E+03 -6.86828E+02  3.32336E+03
 -1.51391E+03  2.05806E+03 -1.86375E+03  7.16539E+02 -6.85320E+02  4.72302E+02 -1.24551E+03  1.47354E+03
 -1.98524E+03  2.61812E+03 -5.06372E+03  2.19212E+03 -6.84358E+03 -1.44811E+02 -8.28419E+03 -4.66015E+03
 -4.20128E+03 -8.91922E+03  1.87626E+03 -1.08743E+04  6.51929E+03 -8.46306E+03  1.02776E+04 -3.48807E+03
  9.39396E+03  1.56492E+03  5.59890E+03  6.73938E+03  4.18700E+02  7.05593E+03 -3.07794E+03  5.27923E+03
 -3.83088E+03  2.26438E+03 -2.49585E+03 -8.43306E+02 -1.13759E+03 -3.27871E+02 -5.51062E+02 -9.33721E+01
 -1.66340E+03 -1.86597E+01 -1.78518E+03 -4.96255E+02 -5.67258E+02 -2.15166E+03 -1.70400E+02 -2.87808E+03
  3.08512E+03 -2.20054E+03  4.18509E+03  1.48103E+02  5.20743E+03  3.84108E+03  1.07819E+03  6.93750E+03
 -3.24775E+03  8.49791E+03 -7.76225E+03  4.65856E+03 -8.41454E+03 -6.93575E+02 -6.33497E+03 -5.39738E+03
 -2.62020E+03 -7.21377E+03  1.61426E+03 -6.39754E+03  4.53598E+03 -3.66317E+03  4.62324E+03  4.35862E+02
  2.77417E+03  2.13340E+03 -4.00819E+01  2.13556E+03 -1.54552E+03 -3.44950E+02 -2.09922E+01 -1.55135E+03
  2.24936E+03 -9.49946E+02  2.26988E+03  8.41058E+02  1.93284E+03  2.71678E+03 -1.45307E+02  3.46787E+03
 -3.02604E+03  2.99878E+03 -4.64860E+03  4.22106E+02 -4.36494E+03 -3.29949E+03 -3.96317E+02 -5.68064E+03
  3.04252E+03 -5.23991E+03  5.26993E+03 -1.29968E+03  5.16953E+03  1.24695E+03  3.17654E+03  4.00005E+03
  3.23289E+02  4.77008E+03 -1.79214E+03  3.77876E+03 -2.72892E+03  2.09747E+03 -2.37090E+03  3.88132E+02
 -1.59646E+03 -2.15650E+02 -1.13945E+03  4.88819E+02 -2.33582E+03  5.27794E+02 -3.54641E+03 -7.44411E+02
 -3.64191E+03 -2.28654E+03 -1.22490E+03 -4.65877E+03  2.32538E+03 -4.86341E+03  4.29934E+03 -2.64077E+03
  4.31556E+03  2.93073E+02  1.90402E+03  3.15176E+03 -1.19014E+02  4.55638E+03 -3.32392E+03  2.79182E+03
