 $NMID ID='MM_0lb_SNR800_10hz_g60_70.RAW', FMTDAT='(8E13.5)'
 TRAMP=1., VOLUME=1. $END
  3.09649E+05  4.61980E+02  3.38000E+05  2.50558E+05  8.48256E+04  3.38694E+05 -1.32875E+05  2.51895E+05
 -1.91042E+05  8.37513E+04 -1.12619E+05 -3.20880E+04  4.60821E+02 -5.08696E+04  5.39751E+04 -1.46250E+02
  3.56463E+04  5.26324E+04 -1.64952E+04  7.59985E+04 -6.11196E+04  6.41225E+04 -8.53137E+04  3.29480E+04
 -8.26626E+04 -1.18514E+04 -5.84165E+04 -5.21866E+04 -1.52337E+04 -7.07681E+04  2.82020E+04 -4.68787E+04
  4.12294E+04  3.86908E+03  1.62908E+04  4.86465E+04 -3.47073E+04  4.82807E+04 -6.82095E+04  3.99430E+00
 -5.47596E+04 -5.79582E+04 -7.30848E+03 -7.97428E+04  3.44865E+04 -5.71797E+04  4.95378E+04 -1.83243E+04
  4.50841E+04  1.17265E+04  3.26994E+04  2.68596E+04  1.58423E+04  3.08281E+04 -6.02450E+03  2.76697E+04
 -2.22205E+04  1.20102E+04 -1.80340E+04 -5.52488E+03  7.74207E+03 -7.76024E+03  2.39083E+04  1.38430E+04
  6.82219E+03  3.78469E+04 -3.35695E+04  3.67118E+04 -6.59584E+04  2.20710E+03 -5.89819E+04 -4.45517E+04
 -1.24268E+04 -6.61385E+04  4.13890E+04 -4.75927E+04  6.19141E+04 -2.51899E+03  3.71198E+04  3.41995E+04
 -5.29543E+03  3.96293E+04 -3.17716E+04  1.93531E+04 -3.37760E+04 -3.81642E+03 -1.95681E+04 -1.18521E+04
 -9.74224E+03 -1.54310E+04 -2.66436E+02 -1.98530E+04  8.46461E+03 -2.34869E+04  1.58280E+04 -1.25153E+04
  1.05239E+04  6.27256E+03 -1.03005E+04  1.28164E+04 -2.36304E+04 -6.90634E+03 -8.54172E+03 -3.76116E+04
  2.53259E+04 -4.73804E+04  5.23626E+04 -2.06001E+04  4.86548E+04  2.01350E+04  1.71589E+04  4.69350E+04
 -1.68532E+04  3.59163E+04 -2.79391E+04  2.83068E+03 -1.18375E+04 -2.95384E+04  2.20537E+04 -3.70777E+04
  4.46426E+04 -1.12997E+04  4.08208E+04  2.50132E+04  2.16107E+04  5.09907E+04 -8.43882E+03  5.64349E+04
 -3.56042E+04  3.84337E+04 -4.73320E+04  1.11870E+04 -4.77802E+04 -1.88690E+04 -2.60652E+04 -4.22258E+04
  7.78830E+03 -4.20990E+04  3.43573E+04 -1.72477E+04  3.23687E+04  1.10799E+04  5.02154E+03  2.10441E+04
 -1.39554E+04  9.95087E+03 -1.09564E+04 -7.55298E+03  5.32844E+03 -1.18046E+04  1.87173E+04  5.49906E+03
  1.51507E+04  2.31295E+04 -5.24347E+03  2.70779E+04 -2.33778E+04  1.45429E+04 -3.17408E+04 -2.91397E+03
 -2.51238E+04 -1.83804E+04 -1.18679E+04 -2.48329E+04  4.45877E+03 -2.62262E+04  2.00378E+04 -2.32829E+04
  3.25924E+04 -1.46133E+04  3.80352E+04  4.82524E+03  2.71900E+04  2.47523E+04  4.32114E+03  4.13144E+04
 -1.99155E+04  3.41065E+04 -3.04675E+04  1.17670E+04 -2.26662E+04 -9.97983E+03 -4.84919E+03 -1.29626E+04
  8.14157E+02 -8.86269E+02 -7.64406E+03  8.44287E+03 -2.04864E+04  4.95208E+03 -2.03545E+04 -9.53329E+03
 -1.18786E+04 -2.33121E+04  6.50770E+03 -2.79827E+04  1.88155E+04 -1.93410E+04  2.25145E+04 -1.62272E+03
  1.45153E+04  1.61923E+04 -1.40717E+03  2.33166E+04 -1.70976E+04  1.31992E+04 -2.37783E+04 -4.64859E+03
 -1.72270E+04 -2.12555E+04 -2.07291E+03 -2.81227E+04  1.26937E+04 -2.36283E+04  2.32299E+04 -1.23137E+04
  2.17981E+04  9.80780E+00  1.59665E+04  5.37595E+03  8.67652E+03  1.21034E+03  1.21793E+04 -2.11982E+03
  2.20759E+04  2.92853E+03  2.58622E+04  1.82115E+04  1.78241E+04  3.80937E+04 -2.22136E+03  4.49303E+04
 -2.56639E+04  3.68203E+04 -4.17749E+04  1.90688E+04 -4.51292E+04 -3.33621E+03 -3.62723E+04 -2.60495E+04
 -1.45429E+04 -3.75155E+04  1.31819E+04 -3.26155E+04  2.78244E+04 -1.55103E+04  2.40616E+04  7.63765E+03
  8.04117E+03  1.84985E+04 -1.14553E+04  1.56120E+04 -2.01796E+04  2.86016E+03 -1.52932E+04 -1.27806E+04
  6.38985E-01 -1.94016E+04  1.03067E+04 -1.42867E+04  1.32269E+04 -1.47684E+03  3.69590E+03  8.98733E+03
 -8.28934E+03  4.09335E+03 -9.35542E+03 -6.53585E+03 -2.02002E+03 -1.79680E+04  1.17592E+04 -1.99152E+04
  2.27836E+04 -1.11684E+04  2.62821E+04  3.36832E+03  2.30571E+04  1.79504E+04  1.08690E+04  2.94600E+04
 -5.67855E+03  3.11527E+04 -2.02586E+04  1.92702E+04 -2.27060E+04  3.88970E+03 -1.54567E+04 -6.00260E+03
 -6.60857E+03 -7.25096E+03 -8.22436E+02  6.64054E+02 -3.04610E+03  3.68087E+03 -7.40507E+03  5.03968E+03
 -1.41490E+04 -9.07391E+02 -1.51234E+04 -1.17827E+04 -5.97582E+03 -1.87859E+04  6.97966E+03 -1.55048E+04
  1.26386E+04 -6.42247E+03  9.14800E+03  4.01678E+03  5.73913E+01  6.30174E+03 -7.83622E+03 -1.71061E+02
 -7.43335E+03 -9.90526E+03 -1.06097E+03 -1.55200E+04  9.20845E+03 -1.63646E+04  2.02792E+04 -8.94652E+03
  2.34685E+04  2.34782E+03  1.72799E+04  1.43859E+04  3.08614E+03  1.89232E+04 -9.43383E+03  1.52884E+04
 -1.27876E+04  4.24439E+03 -6.75821E+03 -3.43103E+03  1.70310E+03 -4.23287E+03  7.99926E+03 -1.05146E+03
  7.00234E+03  7.14174E+03  1.34882E+03  1.22425E+04 -9.10664E+03  1.18343E+04 -1.54597E+04  2.34789E+03
 -1.07262E+04 -8.05186E+03  1.39674E+02 -1.31277E+04  8.80075E+03 -7.35091E+03  9.12534E+03  3.27786E+03
  2.39778E+03  1.02654E+04 -8.41250E+03  1.16246E+04 -1.32607E+04  5.12911E+03 -1.39149E+04 -5.14714E+03
 -7.53919E+03 -1.57774E+04  3.85933E+03 -1.79473E+04  1.51446E+04 -1.04826E+04  1.64544E+04  2.82739E+03
  9.56917E+03  1.30861E+04 -1.59169E+03  1.54721E+04 -1.15652E+04  8.68315E+03 -1.26434E+04 -1.25554E+03
 -1.01872E+04 -1.04020E+04 -1.63935E+03 -1.13047E+04  6.22835E+03 -9.40306E+03  7.24660E+03 -3.46508E+03
  5.06064E+03  2.13323E+03 -1.04700E+03  2.07090E+03 -6.26063E+02 -3.42907E+03  2.71467E+03 -7.54879E+03
  1.07725E+04 -4.47176E+03  1.54674E+04  1.38412E+03  1.53892E+04  1.06417E+04  1.01216E+04  2.05663E+04
 -5.06640E+03  2.38033E+04 -1.94675E+04  1.73888E+04 -2.54374E+04  3.42700E+03 -2.05282E+04 -8.57964E+03
 -1.02769E+04 -1.69586E+04 -5.65482E+02 -1.41218E+04  5.31201E+03 -8.11185E+03  5.28729E+03 -4.92364E+03
  3.91876E+03 -3.01592E+03  3.90423E+03 -4.40262E+03  5.90279E+03 -3.16895E+03  7.92764E+03 -8.80144E+02
  1.03747E+04  2.48412E+03  5.56030E+03  9.43268E+03 -2.35347E+03  1.10326E+04 -1.14144E+04  8.10120E+03
 -1.42756E+04 -1.11720E+03 -9.37508E+03 -1.00571E+04 -1.59415E+03 -1.58112E+04  8.52377E+03 -1.57364E+04
  1.60195E+04 -8.40406E+03  1.92592E+04  2.66073E+03  1.33014E+04  1.32513E+04  2.00014E+03  1.72725E+04
 -6.80120E+03  1.36506E+04 -9.94127E+03  5.09305E+03 -7.31157E+03 -1.39301E+03 -3.02463E+03 -1.95311E+03
 -1.66792E+03 -1.19781E+02 -2.23981E+03  2.58263E+03 -6.29497E+03  2.40859E+03 -9.81866E+03 -1.52343E+03
 -6.70236E+03 -9.66233E+03 -1.17209E+02 -1.41818E+04  8.94156E+03 -1.29545E+04  1.36495E+04 -3.68637E+03
  1.42164E+04  6.75346E+03  6.47448E+03  1.27003E+04 -2.82942E+03  1.41875E+04 -1.05568E+04  8.80083E+03
 -1.33952E+04  3.17966E+02 -1.05468E+04 -8.37492E+03 -1.45898E+03 -1.19356E+04  5.71926E+03 -8.90722E+03
  8.99136E+03 -2.78932E+03  6.01838E+03  2.53876E+03  2.02363E+03  4.34898E+03  1.07746E+03  1.83767E+03
  2.77617E+03  7.87729E+02  3.74507E+03  1.63535E+03  4.30653E+03  4.93058E+03  3.79824E+03  8.00509E+03
 -3.10455E+03  1.13765E+04 -9.86312E+03  1.11920E+04 -1.45686E+04  2.61777E+03 -1.50244E+04 -5.91830E+03
 -6.69145E+03 -1.41116E+04  2.17623E+03 -1.54155E+04  8.87875E+03 -1.02008E+04  1.19973E+04 -2.62511E+03
  8.81420E+03  5.28595E+03  1.90219E+03  8.15394E+03 -3.87463E+03  5.20526E+03 -6.00022E+03 -8.33081E+02
 -2.76136E+03 -6.28850E+03  3.10070E+03 -6.40466E+03  5.72417E+03 -3.29886E+03  6.19925E+03  1.14680E+03
  3.32793E+03  3.20753E+03  1.32405E+03  2.59139E+03 -1.06840E+03  1.90863E+03  1.69556E+03 -6.05877E+02
  2.28111E+03 -8.50736E+02  5.85142E+03  2.12800E+03  3.54063E+03  7.72685E+03 -1.32211E+03  9.84946E+03
 -6.91617E+03  6.61464E+03 -9.00733E+03  2.55980E+03 -8.39595E+03 -3.07910E+03 -2.69154E+03 -5.77356E+03
  1.05716E+03 -5.82811E+03  3.52577E+03 -2.49907E+03  3.53672E+03  2.69668E+03 -1.25781E+03  4.56715E+03
 -6.22712E+03  3.11745E+03 -6.59085E+03 -3.44183E+03 -3.53505E+03 -7.80940E+03  9.44192E+02 -7.88080E+03
  4.45646E+03 -4.65867E+03  5.55566E+03 -3.38523E+02  4.91207E+03  2.26449E+03  4.50399E+02  4.11896E+03
 -2.29321E+03  1.30289E+03 -3.50572E+03 -2.80720E+03  1.42674E+03 -6.29535E+03  7.02619E+03 -5.21971E+03
  9.00817E+03  4.86037E+02  8.64210E+03  6.01002E+03  2.76915E+03  9.72054E+03 -3.22760E+03  8.85900E+03
 -7.88047E+03  3.83453E+03 -7.98601E+03 -1.30462E+03 -4.66180E+03 -6.15618E+03  1.26233E+03 -5.68185E+03
  5.81903E+03 -3.08508E+03  4.78687E+03  2.31472E+03  1.61106E+03  5.02642E+03 -7.21638E+02  4.67809E+03
 -2.14512E+03  3.22630E+03 -2.01788E+03  1.02743E+03 -9.42013E+02  5.83825E+02 -1.16025E+03  1.79520E+03
 -2.30080E+03  3.84423E+03 -6.03061E+03  3.00530E+03 -9.49440E+03 -2.07738E+01 -1.01636E+04 -5.91526E+03
 -5.21947E+03 -1.21512E+04  2.30935E+03 -1.38312E+04  9.04936E+03 -1.09062E+04  1.35224E+04 -4.11807E+03
  1.28592E+04  2.35069E+03  7.84718E+03  8.42774E+03  9.60672E+02  9.69154E+03 -3.88768E+03  7.23052E+03
 -5.30313E+03  2.72938E+03 -3.66215E+03 -1.14947E+03 -1.39937E+03 -6.50334E+02 -5.53942E+02 -1.03726E+01
 -1.82146E+03  2.43410E+02 -2.80378E+03 -2.00811E+02 -7.19529E+02 -2.57601E+03  5.24226E+02 -3.40189E+03
  4.79879E+03 -2.72276E+03  5.68238E+03  1.32811E+02  6.58429E+03  5.48040E+03  1.74310E+03  9.41696E+03
 -4.56687E+03  1.10818E+04 -1.02676E+04  6.17951E+03 -1.17071E+04 -1.21899E+03 -8.08557E+03 -7.19161E+03
 -3.41200E+03 -9.37073E+03  2.64014E+03 -8.97742E+03  5.73667E+03 -4.83390E+03  6.20625E+03  2.37069E+02
  3.61376E+03  3.02388E+03 -2.25440E+02  2.32214E+03 -1.53630E+03 -2.65730E+02  2.24570E+02 -2.38656E+03
  2.76637E+03 -1.22022E+03  3.48874E+03  1.32060E+03  2.52334E+03  3.97669E+03 -7.18704E+01  4.80289E+03
 -4.13202E+03  4.32223E+03 -5.99948E+03  1.65189E+02 -5.63230E+03 -4.46757E+03 -7.98338E+02 -7.66006E+03
  4.38236E+03 -6.55900E+03  6.89190E+03 -2.29099E+03  7.05302E+03  1.60815E+03  4.26956E+03  5.64838E+03
  1.14859E+03  6.30105E+03 -2.23656E+03  5.42264E+03 -3.77982E+03  2.60430E+03 -3.05452E+03  6.36147E+02
 -1.39631E+03 -2.39359E+02 -1.56287E+03  1.07273E+03 -3.22210E+03  7.15511E+02 -4.56758E+03 -9.89533E+02
 -4.79501E+03 -3.13544E+03 -1.44668E+03 -6.42996E+03  2.59502E+03 -6.33013E+03  5.61689E+03 -2.93095E+03
  6.20182E+03  5.52384E+02  3.31772E+03  4.21878E+03 -8.91466E+02  5.94074E+03 -4.63342E+03  3.94978E+03
