 $NMID ID='MM_0lb_SNR800_17hz_g60_57.RAW', FMTDAT='(8E13.5)'
 TRAMP=1., VOLUME=1. $END
  3.09648E+05  5.34072E+02  3.37605E+05  2.50508E+05  8.48971E+04  3.38321E+05 -1.32453E+05  2.51315E+05
 -1.90457E+05  8.30810E+04 -1.11881E+05 -3.26172E+04  8.23428E+02 -5.01472E+04  5.36362E+04 -2.94371E+02
  3.53700E+04  5.29694E+04 -1.67386E+04  7.55542E+04 -6.05630E+04  6.38385E+04 -8.41151E+04  3.19690E+04
 -8.06816E+04 -1.13303E+04 -5.69910E+04 -5.09509E+04 -1.50280E+04 -6.93224E+04  2.75360E+04 -4.55137E+04
  3.99314E+04  3.79994E+03  1.61728E+04  4.76577E+04 -3.43302E+04  4.71019E+04 -6.65569E+04 -4.48110E+02
 -5.33719E+04 -5.66845E+04 -6.85566E+03 -7.70501E+04  3.35591E+04 -5.48400E+04  4.80474E+04 -1.72929E+04
  4.31868E+04  1.14130E+04  3.21084E+04  2.53458E+04  1.57075E+04  2.93645E+04 -5.46572E+03  2.70492E+04
 -2.21539E+04  1.23922E+04 -1.87646E+04 -5.02700E+03  5.39415E+03 -7.47069E+03  2.24146E+04  1.20880E+04
  7.46164E+03  3.49556E+04 -3.18790E+04  3.54567E+04 -6.28818E+04  2.08681E+03 -5.65925E+04 -4.24968E+04
 -1.27178E+04 -6.26641E+04  3.97920E+04 -4.52307E+04  5.76701E+04 -2.10869E+03  3.39143E+04  3.21152E+04
 -6.34421E+03  3.56948E+04 -2.98045E+04  1.56487E+04 -2.98642E+04 -4.78430E+03 -1.65678E+04 -1.06033E+04
 -8.22398E+03 -1.29288E+04 -7.52132E+02 -1.77477E+04  7.35240E+03 -2.28468E+04  1.54582E+04 -1.34482E+04
  1.14474E+04  5.08700E+03 -7.74842E+03  1.28726E+04 -2.09129E+04 -4.06377E+03 -8.51636E+03 -3.28977E+04
  2.25222E+04 -4.31165E+04  4.75359E+04 -1.97972E+04  4.46425E+04  1.89022E+04  1.55893E+04  4.36705E+04
 -1.58130E+04  3.30106E+04 -2.50255E+04  1.53342E+03 -9.64756E+03 -2.76985E+04  2.09756E+04 -3.32074E+04
  4.07116E+04 -8.72309E+03  3.48030E+04  2.33083E+04  1.76992E+04  4.56618E+04 -7.83692E+03  4.90788E+04
 -3.10086E+04  3.28635E+04 -4.10988E+04  9.41412E+03 -4.16591E+04 -1.64470E+04 -2.31103E+04 -3.71909E+04
  7.47055E+03 -3.66164E+04  3.09988E+04 -1.45098E+04  2.91176E+04  1.11048E+04  4.00184E+03  1.87906E+04
 -1.33372E+04  8.14754E+03 -1.02355E+04 -7.61066E+03  5.89389E+03 -1.05757E+04  1.79700E+04  6.30291E+03
  1.32467E+04  2.18186E+04 -5.88774E+03  2.43342E+04 -2.21472E+04  1.09492E+04 -2.73588E+04 -5.22194E+03
 -1.94064E+04 -1.72078E+04 -7.88271E+03 -1.95656E+04  4.00349E+03 -1.83323E+04  1.50193E+04 -1.72088E+04
  2.47554E+04 -1.22367E+04  3.15219E+04  2.46344E+03  2.29765E+04  1.87922E+04  4.30884E+03  3.53065E+04
 -1.73072E+04  2.94356E+04 -2.75697E+04  1.02421E+04 -2.05612E+04 -1.03635E+04 -4.42298E+03 -1.37182E+04
  2.20576E+03 -3.08952E+03 -4.47552E+03  6.45959E+03 -1.54979E+04  5.21127E+03 -1.53947E+04 -6.49287E+03
 -9.66523E+03 -1.80820E+04  5.00715E+03 -2.21857E+04  1.44180E+04 -1.56498E+04  1.71036E+04 -1.21728E+03
  1.06489E+04  1.24551E+04 -1.13075E+03  1.79787E+04 -1.22318E+04  1.02740E+04 -1.79088E+04 -3.80781E+03
 -1.35936E+04 -1.58599E+04 -1.52377E+03 -2.15628E+04  9.90939E+03 -1.78856E+04  1.81336E+04 -8.85168E+03
  1.68223E+04  5.54060E+02  1.18878E+04  4.06921E+03  6.08532E+03  8.87168E+02  9.11295E+03 -1.73834E+03
  1.63363E+04  2.63741E+03  1.77544E+04  1.42916E+04  1.13776E+04  2.84278E+04 -3.01585E+03  3.15868E+04
 -1.84625E+04  2.47376E+04 -2.91623E+04  1.24293E+04 -3.04277E+04 -2.28593E+03 -2.56124E+04 -1.74089E+04
 -1.11576E+04 -2.48470E+04  8.64006E+03 -2.29595E+04  1.95676E+04 -1.20213E+04  1.79117E+04  4.93371E+03
  7.06760E+03  1.29293E+04 -8.15871E+03  1.19385E+04 -1.52255E+04  2.43319E+03 -1.18221E+04 -9.18332E+03
 -2.39183E+02 -1.44738E+04  7.13328E+03 -1.09576E+04  9.27243E+03 -1.04878E+03  1.78357E+03  5.86499E+03
 -6.34793E+03  2.21496E+03 -4.91263E+03 -5.19107E+03  1.27341E+02 -1.20752E+04  9.10826E+03 -1.26483E+04
  1.50679E+04 -6.28186E+03  1.56799E+04  2.87420E+03  1.33843E+04  1.18464E+04  6.64985E+03  1.77581E+04
 -2.47493E+03  1.95726E+04 -1.23121E+04  1.22673E+04 -1.40824E+04  3.24315E+03 -1.03652E+04 -2.69423E+03
 -5.04483E+03 -4.13408E+03 -9.42284E+02  1.22051E+03 -2.02082E+03  2.06983E+03 -4.70946E+03  4.16035E+03
 -9.51476E+03 -9.20033E+02 -1.02030E+04 -7.88339E+03 -4.19361E+03 -1.33249E+04  4.38110E+03 -1.03438E+04
  8.40231E+03 -4.69871E+03  6.37920E+03  2.47218E+03  2.22952E+02  3.96484E+03 -4.53393E+03 -2.15945E+02
 -4.34559E+03 -6.29453E+03 -8.22040E+02 -8.98168E+03  5.26444E+03 -9.54737E+03  1.20211E+04 -5.06258E+03
  1.43311E+04  8.76790E+02  1.06462E+04  8.10161E+03  1.99287E+03  1.11005E+04 -6.43483E+03  9.45135E+03
 -8.31050E+03  3.23268E+03 -4.43746E+03 -1.53829E+03  1.48326E+03 -2.14856E+03  5.56362E+03 -1.07273E+03
  4.83468E+03  4.00955E+03  1.00847E+03  7.67492E+03 -5.56924E+03  7.66937E+03 -9.56182E+03  1.95425E+03
 -6.04177E+03 -4.69882E+03  1.67416E+02 -8.02913E+03  4.87798E+03 -3.86964E+03  4.51579E+03  1.48352E+03
  6.95365E+02  4.51573E+03 -4.80248E+03  6.15098E+03 -6.50582E+03  3.02397E+03 -6.37563E+03 -1.77244E+03
 -3.76330E+03 -7.97559E+03  1.70154E+03 -8.98586E+03  7.66734E+03 -6.01853E+03  8.51853E+03  1.29645E+03
  5.87127E+03  6.73667E+03 -9.27726E+01  8.60435E+03 -6.51212E+03  4.99213E+03 -6.74843E+03 -9.12861E+02
 -6.36492E+03 -6.15321E+03 -1.25141E+03 -6.36351E+03  3.43944E+03 -5.88854E+03  3.61126E+03 -2.75511E+03
  3.17955E+03  3.66282E+02 -1.81655E+02  1.39907E+03  3.61553E+02 -5.98219E+02  7.52852E+02 -2.89759E+03
  5.12103E+03 -1.43891E+03  7.11188E+03  8.48076E+02  7.14396E+03  4.74068E+03  5.99034E+03  9.24595E+03
 -1.65692E+03  1.11341E+04 -1.00691E+04  8.42154E+03 -1.25337E+04  1.40677E+03 -9.71001E+03 -3.50842E+03
 -5.44425E+03 -8.43438E+03 -2.68486E+02 -6.55142E+03  2.54854E+03 -3.24280E+03  2.21464E+03 -2.57397E+03
  1.56294E+03 -1.80614E+03  2.36437E+03 -2.65562E+03  3.62791E+03 -1.74438E+03  4.47472E+03 -1.37123E+01
  5.40237E+03  1.56035E+03  1.99845E+03  4.25213E+03 -1.61390E+03  3.92456E+03 -5.68933E+03  3.43121E+03
 -6.47794E+03 -1.30480E+03 -3.12314E+03 -4.43129E+03  1.66844E+02 -6.45696E+03  3.72976E+03 -6.93290E+03
  6.96301E+03 -4.05753E+03  8.40974E+03  4.75989E+02  6.01310E+03  5.59870E+03  1.28301E+03  7.33838E+03
 -2.76636E+03  6.82321E+03 -4.68722E+03  2.17304E+03 -2.65282E+03 -1.18623E+03 -6.82524E+02 -9.06108E+02
 -5.70722E+02  4.21618E+02 -1.18801E+03  2.16305E+03 -2.97224E+03  1.26893E+03 -4.50930E+03 -4.99348E+02
 -2.61241E+03 -5.07681E+03  7.67062E+02 -6.15971E+03  3.59489E+03 -5.29005E+03  5.12671E+03 -1.71213E+03
  5.36473E+03  2.95323E+03  2.20839E+03  4.75843E+03 -1.04088E+03  5.57804E+03 -3.59937E+03  3.54134E+03
 -4.82168E+03  6.90389E+02 -4.14485E+03 -3.32691E+03 -1.73827E+02 -4.59619E+03  2.06834E+03 -3.46816E+03
  3.74407E+03 -1.79199E+03  2.10855E+03  8.19434E+02  7.22563E+02  2.11852E+03  9.03042E+02  7.78877E+02
  1.51256E+03  7.50676E+02  1.45188E+03  1.15204E+03  1.36536E+03  2.59195E+03  1.83975E+03  2.52445E+03
 -1.56943E+03  4.03219E+03 -3.44134E+03  5.02852E+03 -4.48929E+03  1.33935E+03 -5.33613E+03 -9.01977E+02
 -2.10684E+03 -4.88882E+03  1.01943E+03 -6.04148E+03  2.78599E+03 -3.35536E+03  4.35722E+03 -1.21802E+03
  3.43423E+03  2.22833E+03  7.59628E+02  3.17752E+03 -1.28974E+03  1.80016E+03 -1.58098E+03 -9.77318E+01
 -8.59029E+02 -2.04519E+03  1.38652E+03 -2.29994E+03  1.84112E+03 -1.08341E+03  1.81132E+03  2.67580E+02
  1.41409E+03  6.44534E+02  9.75877E+02  7.43119E+01 -4.60002E+02  7.61375E+02  1.43367E+03 -1.71323E+02
  3.52056E+02 -5.39661E+02  1.98525E+03  1.00605E+03  6.86762E+02  3.01086E+03 -5.44136E+02  3.65714E+03
 -2.15051E+03  1.47838E+03 -2.72804E+03  4.05387E+02 -2.80681E+03 -9.59499E+02 -6.05774E+02 -1.42401E+03
  5.23358E+02 -1.64143E+03  1.14144E+03 -1.09183E+03  1.11368E+03  1.18378E+03 -6.57640E+02  1.17354E+03
 -2.17980E+03  7.48892E+02 -1.93451E+03 -1.17517E+03 -1.10816E+03 -2.68737E+03  5.53422E+02 -2.21918E+03
  8.44566E+02 -8.17774E+02  1.17547E+03  8.93223E+01  1.77504E+03  3.45987E+01  4.55518E+02  1.49603E+03
 -7.48027E+02  4.84109E+01 -1.27950E+03 -2.95105E+02  7.34303E+02 -1.44203E+03  2.02471E+03 -1.43638E+03
  1.94300E+03  4.95183E+01  3.56019E+03  1.42329E+03  1.09285E+03  2.29080E+03 -6.36157E+02  2.34794E+03
 -2.13333E+03  9.41885E+02 -1.99105E+03 -5.51150E+02 -1.05421E+03 -1.68881E+03  1.79717E+02 -9.76558E+02
  1.99636E+03 -9.36507E+02  9.62714E+02  6.23838E+02  5.35216E+02  1.26960E+03  2.03072E+02  1.54405E+03
 -6.31755E+02  1.18546E+03 -6.56637E+02  1.65752E+02 -2.44112E+02  2.56316E+02 -4.78050E+02  6.47995E+02
 -7.27729E+02  1.38145E+03 -2.13548E+03  7.46333E+02 -2.36123E+03 -6.17422E+01 -3.07076E+03 -1.40077E+03
 -1.36482E+03 -2.87008E+03  6.73167E+02 -3.81692E+03  1.73742E+03 -3.23112E+03  3.61913E+03 -1.31812E+03
  3.11027E+03  9.32186E+01  1.66129E+03  2.13278E+03 -2.37998E+02  2.11939E+03 -8.90806E+02  1.80251E+03
 -1.45857E+03  9.39715E+02 -5.26167E+02 -3.37259E+02 -5.19365E+02  1.92206E+02 -6.84545E+02  2.34971E+02
 -6.55842E+02 -5.59255E+01 -8.75463E+02  9.98070E+01  5.25747E+02 -9.79382E+02 -2.36442E+02 -8.36407E+02
  1.57386E+03 -9.58014E+02  1.11415E+03  1.29848E+02  1.43982E+03  1.39373E+03 -3.03364E+02  1.73307E+03
 -1.23459E+03  2.75252E+03 -2.37425E+03  1.65225E+03 -2.47422E+03 -2.97583E+02 -1.93503E+03 -1.64065E+03
 -1.17464E+03 -1.94295E+03  6.49680E+02 -1.70066E+03  8.54658E+02 -1.04029E+03  9.67308E+02 -1.34587E+02
  1.11218E+03  4.93006E+02 -8.70942E+01  3.21847E+02 -3.40684E+02  6.92893E+00 -4.82344E+02 -1.59784E+02
  7.20369E+02  7.84515E+00  2.96712E+02  3.35535E+02  3.52901E+02  8.83789E+02  5.96197E+02  4.87322E+02
 -9.80431E+02  8.51426E+02 -7.99773E+02  3.34433E+02 -1.13245E+03 -1.00015E+03  4.29662E+01 -1.52946E+03
  6.53383E+02 -1.05872E+03  1.00981E+03 -1.87243E+02  1.24743E+03 -6.10394E+02  4.95715E+02  1.18501E+03
  4.35877E+02  6.92461E+02 -5.52062E+02  8.42167E+02 -9.11768E+02  8.21891E+02 -6.44050E+02  8.67194E+01
  2.84385E+01 -2.06186E+01 -5.06252E+02  2.57571E+02 -5.14229E+02  2.91019E+02 -1.08483E+03 -4.59424E+02
 -1.06897E+03  6.40099E+01 -2.26229E+02 -1.40961E+03  1.00272E+03 -1.82232E+03  7.24691E+02 -3.94015E+02
  1.22956E+03  4.02654E+02 -1.87866E+02  4.45851E+02  8.29905E+00  1.03930E+03 -5.86080E+02  8.00943E+02
