 $NMID ID='MM_0lb_SNR800_19hz_g40_81.RAW', FMTDAT='(8E13.5)'
 TRAMP=1., VOLUME=1. $END
  3.09835E+05  4.64956E+02  3.36926E+05  2.50287E+05  8.42070E+04  3.37429E+05 -1.32258E+05  2.49886E+05
 -1.89264E+05  8.21287E+04 -1.10628E+05 -3.26668E+04  1.75307E+03 -5.01962E+04  5.39308E+04  3.19036E+02
  3.50234E+04  5.25272E+04 -1.69813E+04  7.49355E+04 -6.01565E+04  6.25031E+04 -8.25950E+04  3.15680E+04
 -7.88978E+04 -1.09241E+04 -5.58870E+04 -4.98772E+04 -1.48028E+04 -6.78488E+04  2.67023E+04 -4.44450E+04
  3.83396E+04  4.05746E+03  1.54817E+04  4.67752E+04 -3.38128E+04  4.57790E+04 -6.48443E+04 -8.14948E+02
 -5.15166E+04 -5.55063E+04 -5.95672E+03 -7.44246E+04  3.27229E+04 -5.24277E+04  4.56403E+04 -1.61839E+04
  4.10087E+04  1.14674E+04  3.02261E+04  2.38988E+04  1.59676E+04  2.78270E+04 -4.51777E+03  2.65132E+04
 -2.12297E+04  1.28972E+04 -1.90296E+04 -3.93648E+03  3.75795E+03 -7.66487E+03  2.09975E+04  1.04673E+04
  7.53193E+03  3.23029E+04 -2.98368E+04  3.34769E+04 -6.04964E+04  2.25249E+03 -5.48480E+04 -4.07722E+04
 -1.25368E+04 -6.01548E+04  3.76245E+04 -4.29728E+04  5.44481E+04 -1.86744E+03  3.12545E+04  2.98504E+04
 -6.78090E+03  3.17624E+04 -2.79445E+04  1.26774E+04 -2.67233E+04 -5.51613E+03 -1.37490E+04 -9.80419E+03
 -6.92869E+03 -1.09611E+04 -1.21403E+03 -1.58710E+04  6.21431E+03 -2.22587E+04  1.48141E+04 -1.40961E+04
  1.27060E+04  3.90809E+03 -5.59630E+03  1.32793E+04 -1.87241E+04 -1.76042E+03 -8.16481E+03 -2.94890E+04
  2.01906E+04 -3.96576E+04  4.36784E+04 -1.82994E+04  4.09654E+04  1.77834E+04  1.39428E+04  4.07478E+04
 -1.51356E+04  3.05302E+04 -2.26075E+04  9.68504E+02 -7.51837E+03 -2.58929E+04  2.02885E+04 -3.03464E+04
  3.70300E+04 -6.95553E+03  3.02006E+04  2.20055E+04  1.45105E+04  4.11418E+04 -7.66759E+03  4.37598E+04
 -2.76971E+04  2.86357E+04 -3.58488E+04  8.11229E+03 -3.70965E+04 -1.43694E+04 -2.05982E+04 -3.37354E+04
  6.76584E+03 -3.33851E+04  2.83159E+04 -1.21869E+04  2.59039E+04  1.07016E+04  2.57249E+03  1.74255E+04
 -1.31410E+04  6.70530E+03 -9.70683E+03 -7.81924E+03  6.04824E+03 -1.00971E+04  1.71427E+04  6.81793E+03
  1.20417E+04  2.15472E+04 -6.83659E+03  2.29570E+04 -2.10293E+04  8.50292E+03 -2.42614E+04 -6.83318E+03
 -1.55636E+04 -1.62328E+04 -5.16429E+03 -1.59078E+04  3.62713E+03 -1.33072E+04  1.17938E+04 -1.34978E+04
  1.99798E+04 -1.12470E+04  2.69039E+04  6.88077E+02  2.02745E+04  1.54507E+04  3.99268E+03  3.13173E+04
 -1.55223E+04  2.68632E+04 -2.51108E+04  8.87843E+03 -1.92807E+04 -1.03480E+04 -4.02354E+03 -1.40559E+04
  2.94500E+03 -4.16284E+03 -2.19855E+03  5.29412E+03 -1.23484E+04  5.17713E+03 -1.25825E+04 -4.49984E+03
 -8.19186E+03 -1.46945E+04  4.28572E+03 -1.84014E+04  1.17680E+04 -1.32443E+04  1.38121E+04 -1.27162E+03
  8.14550E+03  1.04339E+04 -9.36586E+02  1.48901E+04 -9.80927E+03  8.56458E+03 -1.46817E+04 -3.39678E+03
 -1.09806E+04 -1.37800E+04 -1.32543E+03 -1.79233E+04  8.19141E+03 -1.41119E+04  1.50655E+04 -7.00007E+03
  1.36481E+04  6.91092E+02  1.00328E+04  3.62329E+03  4.69524E+03  5.03076E+02  7.10402E+03 -1.35395E+03
  1.29625E+04  2.60107E+03  1.36238E+04  1.20987E+04  8.56220E+03  2.33524E+04 -3.21294E+03  2.48056E+04
 -1.50846E+04  1.88828E+04 -2.26359E+04  8.74184E+03 -2.30318E+04 -1.92414E+03 -1.98418E+04 -1.30038E+04
 -9.66987E+03 -1.87216E+04  6.20098E+03 -1.79013E+04  1.55602E+04 -1.04819E+04  1.48827E+04  3.25302E+03
  6.43302E+03  1.05361E+04 -6.51264E+03  9.78619E+03 -1.27692E+04  2.58952E+03 -9.68401E+03 -7.36357E+03
 -1.60855E+02 -1.18039E+04  5.71480E+03 -8.95499E+03  7.18529E+03 -1.27313E+03  1.17672E+03  4.92642E+03
 -5.42204E+03  7.82402E+02 -3.08972E+03 -4.66478E+03  9.72548E+02 -9.58121E+03  7.43906E+03 -9.21556E+03
  1.13269E+04 -4.05128E+03  1.07338E+04  2.83879E+03  9.27510E+03  8.52072E+03  4.61709E+03  1.28377E+04
 -1.35493E+03  1.49021E+04 -8.66428E+03  9.26718E+03 -1.03618E+04  2.92146E+03 -7.89803E+03 -1.55070E+03
 -4.73155E+03 -2.92883E+03 -7.95934E+02  1.57502E+03 -1.97493E+03  1.83982E+03 -3.48811E+03  3.47447E+03
 -7.54495E+03 -6.27213E+02 -8.51357E+03 -6.87715E+03 -3.66271E+03 -1.10729E+04  3.22413E+03 -8.06843E+03
  6.82308E+03 -3.61774E+03  4.89669E+03  1.94371E+03  4.83030E+02  2.75317E+03 -2.90594E+03 -5.32894E+01
 -2.82996E+03 -4.75849E+03 -6.80984E+02 -6.92481E+03  3.47953E+03 -7.27459E+03  9.41755E+03 -3.69903E+03
  1.10632E+04  3.75815E+02  7.92786E+03  5.65096E+03  2.02160E+03  7.99787E+03 -4.97791E+03  7.72320E+03
 -6.53423E+03  2.49062E+03 -3.57262E+03 -1.04542E+03  1.40900E+03 -1.47423E+03  4.33034E+03 -1.16802E+03
  3.84169E+03  3.19959E+03  1.03657E+03  5.72706E+03 -4.01187E+03  5.92367E+03 -7.12696E+03  1.66232E+03
 -4.35982E+03 -3.40162E+03  3.72178E+02 -5.88155E+03  3.28819E+03 -3.01843E+03  3.23494E+03  9.63493E+02
  3.36814E+02  3.01626E+03 -3.74820E+03  4.12423E+03 -4.16110E+03  2.36261E+03 -3.83122E+03 -7.86830E+02
 -2.53570E+03 -5.43231E+03  9.59392E+02 -6.39662E+03  5.49166E+03 -4.48944E+03  5.78120E+03  6.50595E+02
  4.04666E+03  4.77409E+03  2.35579E+02  6.82434E+03 -4.60497E+03  3.72650E+03 -4.84118E+03 -5.63279E+02
 -5.68346E+03 -4.80106E+03 -1.09754E+03 -4.61636E+03  2.23633E+03 -4.61138E+03  2.44445E+03 -3.17725E+03
  3.04313E+03  1.08680E+02  8.45179E+01  1.32672E+03  3.50494E+02  1.88403E+02  3.27779E+01 -2.08166E+03
  3.44255E+03 -5.83248E+02  4.76161E+03  6.55169E+02  5.13469E+03  2.56110E+03  5.00661E+03  6.42943E+03
 -7.95682E+02  7.61452E+03 -6.92206E+03  5.77205E+03 -9.15459E+03  1.17482E+03 -6.93043E+03 -2.45360E+03
 -3.89273E+03 -6.14051E+03 -4.24714E+02 -4.71801E+03  2.07193E+03 -1.63742E+03  1.38828E+03 -2.06606E+03
  1.31406E+03 -1.09869E+03  2.13124E+03 -2.10387E+03  3.43286E+03 -1.20654E+03  3.34264E+03  6.04508E+02
  4.24100E+03  7.94337E+02  9.64433E+02  3.40220E+03 -1.44065E+03  2.32982E+03 -3.86306E+03  2.20989E+03
 -4.47713E+03 -8.76117E+02 -1.65029E+03 -2.96471E+03  3.10661E+02 -4.41597E+03  2.85202E+03 -5.13330E+03
  4.32840E+03 -3.01961E+03  5.99410E+03  8.64001E+01  4.53910E+03  3.76633E+03  1.14009E+03  5.41767E+03
 -1.96444E+03  5.38529E+03 -3.24916E+03  1.67435E+03 -1.76113E+03 -8.44264E+02 -2.85761E+02 -5.10900E+02
 -5.24306E+02  4.50571E+02 -8.14745E+02  1.72481E+03 -2.34795E+03  1.00823E+03 -4.06958E+03 -1.22874E+02
 -1.33588E+03 -3.90735E+03  8.10731E+02 -4.21077E+03  2.38025E+03 -4.30645E+03  3.27617E+03 -9.36407E+02
  3.34718E+03  2.18633E+03  1.62119E+03  2.83923E+03 -7.18806E+02  3.78458E+03 -2.34704E+03  2.28531E+03
 -3.27291E+03  8.90691E+02 -2.87367E+03 -2.25086E+03 -2.51173E+02 -2.93671E+03  1.34417E+03 -2.30963E+03
  2.70662E+03 -1.33327E+03  1.45821E+03  4.22760E+02  6.31595E+02  1.39889E+03  6.88502E+02  3.89399E+02
  1.56775E+03  3.39513E+02  1.20886E+03  8.60441E+02  9.02833E+02  2.23101E+03  1.22818E+03  1.53468E+03
 -1.32568E+03  2.64461E+03 -2.30943E+03  3.86528E+03 -2.50319E+03  1.06844E+03 -3.89053E+03 -2.93063E+02
 -1.46419E+03 -3.21732E+03  6.22849E+02 -3.95968E+03  2.00167E+03 -2.33860E+03  2.80765E+03 -1.06527E+03
  2.32177E+03  1.58807E+03  6.26645E+02  1.97113E+03 -7.41413E+02  9.74039E+02 -8.36134E+02 -1.40977E+02
 -4.03041E+02 -1.23840E+03  1.21940E+03 -1.22400E+03  1.26468E+03 -9.17899E+02  1.43678E+03  3.96348E+02
  7.87546E+02  1.56045E+02  7.58998E+02 -1.08515E+02 -4.80788E+02  4.29646E+02  1.32653E+03 -3.98678E+02
 -2.45158E+01 -1.26946E+02  1.65328E+03  4.55529E+02 -1.52762E+02  2.03240E+03 -4.05516E+02  2.57804E+03
 -1.23938E+03  7.43422E+02 -2.05047E+03  6.78970E+01 -1.70073E+03 -6.41586E+02 -1.93031E+02 -9.78939E+02
  3.06614E+02 -1.11493E+03  8.50638E+02 -7.08514E+02  3.30592E+02  1.30337E+03 -9.47374E+02  1.16643E+03
 -1.44826E+03  7.57909E+02 -1.03163E+03 -9.82134E+02 -6.53180E+02 -1.98707E+03  3.30475E+02 -1.38073E+03
  2.55917E+02 -2.67272E+02  5.21351E+02  2.52086E+02  1.53887E+03 -8.82991E+01  4.48644E+02  8.45112E+02
 -5.86476E+02  7.15766E+01 -1.05351E+03 -2.08304E+02  6.23106E+02 -5.70709E+02  1.67472E+03 -5.06081E+02
  9.54170E+02  1.24602E+02  2.53205E+03  2.96877E+02  1.00723E+03  1.24903E+03 -4.18575E+01  1.63159E+03
 -1.32821E+03  3.23243E+02 -1.20128E+03 -3.22576E+01 -5.04991E+02 -1.24135E+03  2.47902E+02 -8.44459E+02
  1.22822E+03 -3.33143E+02  6.55788E+02  9.05176E+02 -9.86597E+01  1.30709E+03  2.34164E+02  9.14321E+02
 -3.77098E+02  9.26910E+02 -5.47686E+02  2.34998E+02  2.85360E+02  2.88336E+02 -7.00776E+02  5.18606E+02
 -5.69361E+02  7.96793E+02 -1.25318E+03  2.34522E+02 -1.52408E+03  3.37359E+02 -1.99623E+03 -7.80437E+02
 -1.07968E+03 -2.05425E+03  7.11447E+02 -2.98491E+03  8.80449E+02 -2.30231E+03  2.69292E+03 -7.07423E+02
  2.29125E+03 -1.67621E+02  1.02555E+03  1.28981E+03 -4.02589E+02  1.39670E+03 -5.59652E+02  1.28513E+03
 -7.39105E+02  6.59644E+02 -6.18796E+02 -2.18138E+02 -5.02233E+02  3.34926E+02 -5.60787E+02  2.30873E+01
 -1.11217E+03  1.02861E+02 -8.08166E+02  2.87180E+02  2.61454E+02 -7.55304E+02 -5.92434E+02 -8.54975E+02
  1.19124E+03 -6.86793E+02 -1.29916E+02  9.98054E+01  9.21908E+02  1.06985E+03 -4.08213E+02  1.34313E+03
 -8.32209E+02  2.22514E+03 -1.40363E+03  1.10584E+03 -1.41096E+03 -1.64446E+02 -1.14821E+03 -1.00425E+03
 -7.99383E+02 -1.29589E+03  3.82020E+02 -9.48344E+02  4.92619E+02 -1.82996E+02  4.83038E+02  4.11050E+02
  6.06253E+02  6.89624E+01  2.85206E+02  2.93260E+02 -3.95245E+02  1.83704E+02 -3.03065E+01 -9.26658E+01
  1.77568E+02  2.05571E+02  1.31790E+02  6.75467E+02  2.30239E+02  3.33145E+02  4.69346E+02  2.26549E+02
 -5.17164E+02  8.37083E+02 -4.24804E+02  9.34387E+01 -6.02947E+02 -1.98380E+01  8.74582E+01 -1.10156E+03
  5.32645E+02 -5.21875E+02  2.36659E+02 -2.59335E+02  7.10755E+02 -6.47584E+02  5.26061E+02  6.30483E+02
  2.15817E+02  4.44475E+02 -3.55840E+02  6.92598E+02 -7.02556E+02  6.98771E+02 -4.75225E+02  1.83673E+02
 -1.47978E+02 -2.87430E+02 -5.24840E+02  1.88317E+02 -4.31684E+02  2.93777E+02 -1.16000E+03 -4.24121E+02
 -9.58681E+02  1.85276E+02 -2.52437E+02 -8.39698E+02  7.25437E+02 -1.39433E+03  8.29092E+02 -4.08299E+02
  6.60235E+02 -3.48122E+01 -3.66345E+02  9.93868E+01 -2.69271E+01  6.97183E+02 -2.53504E+02  5.89598E+02
