 $NMID ID='MM_0lb_SNR800_20hz_g50_80.RAW', FMTDAT='(8E13.5)'
 TRAMP=1., VOLUME=1. $END
  3.09794E+05  3.65181E+02  3.37035E+05  2.50330E+05  8.42737E+04  3.37378E+05 -1.32510E+05  2.50373E+05
 -1.89539E+05  8.23982E+04 -1.10539E+05 -3.30905E+04  1.45502E+03 -5.04830E+04  5.36523E+04  7.14547E+01
  3.49905E+04  5.28846E+04 -1.69346E+04  7.48463E+04 -6.02063E+04  6.28114E+04 -8.28004E+04  3.14711E+04
 -7.96474E+04 -1.10087E+04 -5.60744E+04 -4.97003E+04 -1.48559E+04 -6.82409E+04  2.70415E+04 -4.44405E+04
  3.87377E+04  3.89342E+03  1.57150E+04  4.67983E+04 -3.36837E+04  4.61426E+04 -6.50149E+04 -7.32417E+02
 -5.18276E+04 -5.58021E+04 -6.28407E+03 -7.48238E+04  3.29943E+04 -5.29613E+04  4.57485E+04 -1.60767E+04
  4.11796E+04  1.08742E+04  3.03336E+04  2.41250E+04  1.57731E+04  2.82819E+04 -4.54675E+03  2.67592E+04
 -2.16557E+04  1.28128E+04 -1.93112E+04 -4.11446E+03  4.02000E+03 -7.49201E+03  2.10181E+04  1.07433E+04
  7.28427E+03  3.29650E+04 -3.02430E+04  3.37985E+04 -6.06935E+04  2.10089E+03 -5.52065E+04 -4.07553E+04
 -1.21667E+04 -6.05810E+04  3.78964E+04 -4.29274E+04  5.51107E+04 -1.93324E+03  3.12598E+04  3.02384E+04
 -6.57332E+03  3.27811E+04 -2.81554E+04  1.27229E+04 -2.73542E+04 -5.28085E+03 -1.39562E+04 -1.00604E+04
 -7.16208E+03 -1.15248E+04 -1.33682E+03 -1.63705E+04  6.56659E+03 -2.25513E+04  1.49079E+04 -1.39652E+04
  1.21584E+04  4.20458E+03 -6.00683E+03  1.31047E+04 -1.89599E+04 -2.23652E+03 -7.88411E+03 -2.99081E+04
  2.05605E+04 -4.00212E+04  4.39123E+04 -1.82608E+04  4.13776E+04  1.83268E+04  1.40667E+04  4.13253E+04
 -1.54873E+04  3.07807E+04 -2.30631E+04  8.21451E+02 -7.92587E+03 -2.59793E+04  2.03882E+04 -3.07342E+04
  3.78592E+04 -7.21633E+03  3.07436E+04  2.26078E+04  1.50210E+04  4.20868E+04 -7.73561E+03  4.41419E+04
 -2.79432E+04  2.92031E+04 -3.63844E+04  8.10901E+03 -3.74691E+04 -1.46616E+04 -2.09208E+04 -3.39527E+04
  6.62775E+03 -3.34556E+04  2.89120E+04 -1.22981E+04  2.64995E+04  1.08857E+04  3.01784E+03  1.74814E+04
 -1.29351E+04  6.85666E+03 -9.62504E+03 -7.73878E+03  5.90619E+03 -1.01620E+04  1.70582E+04  6.66896E+03
  1.19919E+04  2.12251E+04 -6.68494E+03  2.30222E+04 -2.12733E+04  8.86020E+03 -2.47097E+04 -6.59667E+03
 -1.57827E+04 -1.61191E+04 -4.94663E+03 -1.61480E+04  4.04460E+03 -1.38816E+04  1.18836E+04 -1.35600E+04
  2.02390E+04 -1.16310E+04  2.73185E+04  7.95018E+02  2.06577E+04  1.58484E+04  4.17272E+03  3.15160E+04
 -1.54993E+04  2.73138E+04 -2.55945E+04  9.25762E+03 -1.95038E+04 -1.05109E+04 -4.06435E+03 -1.39254E+04
  2.66830E+03 -4.44894E+03 -2.24823E+03  5.21909E+03 -1.26701E+04  5.21510E+03 -1.27860E+04 -4.57655E+03
 -8.41562E+03 -1.46457E+04  4.19299E+03 -1.86580E+04  1.21577E+04 -1.34884E+04  1.39077E+04 -1.50761E+03
  8.49271E+03  1.04586E+04 -9.82012E+02  1.53473E+04 -9.85738E+03  8.30368E+03 -1.47763E+04 -3.04374E+03
 -1.12208E+04 -1.35067E+04 -1.39142E+03 -1.81480E+04  8.08613E+03 -1.46926E+04  1.55351E+04 -7.01353E+03
  1.36020E+04  6.29782E+02  9.95675E+03  3.68067E+03  4.73816E+03  3.70483E+02  7.19608E+03 -1.13265E+03
  1.32846E+04  2.56306E+03  1.35851E+04  1.22464E+04  8.54596E+03  2.34616E+04 -3.23482E+03  2.52216E+04
 -1.50564E+04  1.91090E+04 -2.27982E+04  8.84827E+03 -2.31644E+04 -1.70739E+03 -2.01025E+04 -1.32499E+04
 -9.47169E+03 -1.88831E+04  6.14544E+03 -1.80796E+04  1.53203E+04 -1.01317E+04  1.48153E+04  3.42136E+03
  6.42590E+03  1.07294E+04 -6.73442E+03  9.88032E+03 -1.30159E+04  2.86444E+03 -9.98821E+03 -7.40437E+03
  5.35490E+01 -1.18849E+04  5.83525E+03 -8.73843E+03  7.22475E+03 -1.15909E+03  1.31751E+03  4.64609E+03
 -5.13406E+03  1.00205E+03 -3.05696E+03 -4.24817E+03  8.16895E+02 -9.53874E+03  7.42732E+03 -8.94613E+03
  1.14971E+04 -4.16698E+03  1.08205E+04  2.71034E+03  9.20001E+03  8.57506E+03  4.66760E+03  1.28268E+04
 -1.19646E+03  1.45179E+04 -8.87785E+03  9.37296E+03 -1.04465E+04  2.95274E+03 -7.74624E+03 -1.38496E+03
 -4.46119E+03 -2.95118E+03 -6.92872E+02  1.74621E+03 -1.71081E+03  2.02617E+03 -3.31171E+03  3.47061E+03
 -7.45636E+03 -6.37699E+02 -8.21611E+03 -6.73548E+03 -3.32564E+03 -1.06247E+04  3.26954E+03 -8.09493E+03
  6.83262E+03 -3.73814E+03  4.60224E+03  1.92523E+03  8.05534E+02  2.40229E+03 -3.08583E+03  9.66798E+01
 -2.94497E+03 -4.87845E+03 -8.03529E+02 -6.44931E+03  3.32866E+03 -7.44967E+03  9.28580E+03 -3.40495E+03
  1.04400E+04  2.88264E+02  8.00832E+03  5.53054E+03  1.62069E+03  7.58669E+03 -5.12008E+03  7.86809E+03
 -6.49254E+03  2.66719E+03 -3.44154E+03 -1.12972E+03  1.18315E+03 -1.71370E+03  4.64439E+03 -8.62326E+02
  3.95679E+03  2.79744E+03  1.22186E+03  5.87497E+03 -3.89443E+03  6.18658E+03 -7.16070E+03  1.67306E+03
 -4.30162E+03 -3.02498E+03  1.92398E+02 -5.95786E+03  3.37488E+03 -2.76185E+03  3.26658E+03  1.07103E+03
  3.76389E+02  2.82224E+03 -3.62037E+03  4.36429E+03 -4.26290E+03  2.28819E+03 -3.70859E+03 -8.86666E+02
 -2.54726E+03 -5.01188E+03  1.01738E+03 -5.86784E+03  5.29383E+03 -4.11864E+03  5.38523E+03  9.66486E+02
  4.24565E+03  4.29812E+03  2.82514E+02  6.54893E+03 -4.45373E+03  3.73042E+03 -4.72208E+03 -2.87854E+02
 -5.48635E+03 -4.51854E+03 -1.45385E+03 -4.57539E+03  2.40280E+03 -4.41923E+03  2.37686E+03 -2.83133E+03
  2.44740E+03  1.85579E+02  2.43346E+02  1.03648E+03  6.92822E+02  5.29614E+01 -1.34331E+02 -1.56568E+03
  3.29114E+03 -1.97080E+02  4.00887E+03  5.17770E+02  4.64715E+03  2.23657E+03  4.66084E+03  5.65373E+03
 -1.17059E+03  7.24073E+03 -6.57423E+03  5.58694E+03 -8.49309E+03  9.47995E+02 -6.65127E+03 -1.99512E+03
 -3.58993E+03 -5.40578E+03 -5.78202E+02 -4.22990E+03  1.78088E+03 -1.62256E+03  1.35762E+03 -1.81641E+03
  9.95738E+02 -1.31494E+03  1.94859E+03 -2.29926E+03  3.37535E+03 -1.28628E+03  3.36597E+03  6.55298E+02
  4.05468E+03  1.14133E+03  6.31367E+02  2.76565E+03 -1.56026E+03  1.97527E+03 -4.06857E+03  1.90418E+03
 -4.05839E+03 -1.07634E+03 -1.11542E+03 -2.84445E+03  4.81788E+02 -3.99872E+03  2.81828E+03 -4.43121E+03
  3.96386E+03 -2.86037E+03  5.72933E+03 -2.72013E+01  4.00392E+03  3.43607E+03  7.56208E+02  5.19188E+03
 -1.69715E+03  5.11192E+03 -2.33871E+03  1.44778E+03 -1.34536E+03 -8.97172E+02 -1.18682E+02 -1.97381E+02
 -3.25059E+02  2.94379E+02 -6.99550E+02  2.12465E+03 -2.13580E+03  6.99542E+02 -3.89875E+03 -4.87208E+02
 -1.01567E+03 -3.59158E+03  9.56039E+02 -3.88040E+03  2.15270E+03 -3.81487E+03  2.72193E+03 -7.60343E+02
  3.27906E+03  1.96840E+03  1.38333E+03  2.66105E+03 -5.74677E+02  3.59106E+03 -2.07308E+03  2.29296E+03
 -3.21810E+03  8.33736E+02 -2.75301E+03 -1.83274E+03  9.97548E+01 -2.33349E+03  1.47824E+03 -2.05073E+03
  2.31624E+03 -1.24854E+03  1.16416E+03  3.65870E+02  1.04922E+02  1.40302E+03  6.90151E+02  1.93956E+02
  1.70400E+03  5.53370E+02  9.50627E+02  6.83938E+02  8.93350E+02  1.97913E+03  1.17411E+03  1.29549E+03
 -9.72032E+02  2.39884E+03 -1.88639E+03  3.49702E+03 -2.16667E+03  8.46560E+02 -3.26689E+03  5.52816E+02
 -1.40524E+03 -2.76849E+03  4.42053E+02 -3.84377E+03  1.28240E+03 -2.00289E+03  2.55417E+03 -6.48418E+02
  1.89830E+03  1.45571E+03  3.10023E+02  1.78591E+03 -3.82686E+02  8.74800E+02 -7.08638E+02  3.70984E+01
 -5.24833E+02 -1.20239E+03  1.08853E+03 -1.41371E+03  1.06407E+03 -7.59002E+02  1.29754E+03  2.07910E+02
  4.96723E+02  1.94720E+02  8.83999E+02 -1.86062E+02 -1.26013E+02  4.28450E+02  1.62410E+03 -6.31214E+01
  2.55927E+02 -2.57277E+02  1.52457E+03  5.91213E+02 -9.42342E+01  2.19050E+03 -5.09954E+01  2.39994E+03
 -1.49670E+03  8.09172E+02 -1.53588E+03  1.55071E+02 -1.45766E+03 -5.28718E+02  9.93051E+01 -5.95345E+02
  2.96202E+02 -8.53194E+02  8.85698E+02 -8.58549E+02  4.70664E+02  1.18211E+03 -6.54589E+02  8.57301E+02
 -1.02118E+03  6.55377E+02 -6.08741E+02 -1.06262E+03 -4.61602E+02 -1.44968E+03  5.32791E+01 -1.37065E+03
  1.25857E+02 -3.41877E+02  6.72378E+02  1.78129E+02  1.00092E+03 -1.77722E+02  3.19453E+02  9.70447E+02
 -2.28136E+01 -6.47184E+01 -1.07691E+03 -7.71066E+01  6.43068E+02 -5.77283E+02  1.21602E+03 -5.54362E+02
  4.84769E+02  1.64308E+02  2.42904E+03  1.86239E+02  1.11726E+03  1.10764E+03 -6.36013E+01  1.47730E+03
 -9.56887E+02 -9.20314E+01 -1.04286E+03 -1.04482E+02 -5.99306E+02 -1.11834E+03  2.68642E+02 -5.31359E+01
  1.07986E+03 -5.53627E+02  5.04401E+02  3.86557E+02  1.23028E+01  9.01933E+02  4.70476E+02  7.78645E+02
 -1.46958E+00  9.87882E+02 -1.31304E+02  1.42801E+02  2.26395E+02  2.90004E+02 -7.00570E+02  5.95476E+02
 -5.18949E+02  6.71434E+02 -1.49378E+03  2.87924E+02 -1.37551E+03  9.69117E+01 -1.79329E+03 -4.76923E+02
 -9.35562E+02 -1.30940E+03  6.18612E+02 -2.00502E+03  6.21987E+02 -1.94369E+03  2.32324E+03 -8.62316E+02
  1.77319E+03 -4.49945E+02  6.53766E+02  7.91858E+02 -5.48604E+02  9.47482E+02 -7.36253E+02  9.37008E+02
 -7.55776E+02  5.15286E+02 -1.24063E+02 -8.75721E+01 -5.79931E+02  3.39275E+02 -5.42472E+02 -1.22935E+01
 -1.23109E+03  2.28719E+02 -8.55913E+02  7.27554E+01  3.39662E+02 -6.35795E+02 -4.40447E+02 -7.26601E+02
  7.48203E+02 -6.04229E+02  2.21082E+02  3.35786E+02  9.29919E+02  5.02757E+02 -5.39300E+02  1.04336E+03
 -1.01821E+03  1.71951E+03 -1.03588E+03  1.04041E+03 -1.30354E+03  4.56970E+01 -8.94847E+02 -9.16369E+02
 -7.26023E+02 -9.23661E+02  2.00522E+02 -8.41155E+02  3.56725E+02 -3.38236E+02  2.93977E+02 -5.08011E+01
  5.31868E+02  1.41168E+02  7.29235E+01  8.22109E+01 -5.38173E+01 -2.92552E+02 -1.94506E+02 -2.17256E+02
  2.15220E+02  7.67204E+01  2.22146E+02  3.26475E+02 -2.64029E+02  2.73792E+02  4.07622E+02 -1.05576E+02
 -2.46610E+02  3.69781E+02 -3.64762E+02 -1.25987E+01 -4.34203E+02 -2.24793E+02  1.55997E+02 -5.11884E+02
  4.71146E+02 -3.09149E+02 -4.44724E-01  1.34935E+02  6.31378E+02 -6.50857E+02  1.84675E+02  7.86714E+02
  1.38000E+02  2.63712E+02  1.64345E+02  1.29160E+02 -4.76014E+02  4.52628E+02  3.06224E+00  1.44069E+02
 -1.03217E+02 -7.07386E+01 -3.79780E+02  8.58042E+00 -4.94562E+02 -1.47864E+02 -3.61872E+02 -3.39603E+02
 -7.39071E+02  3.25737E+02 -2.66758E+02 -6.51413E+02  6.23919E+02 -1.26605E+03  3.16655E+02 -9.49179E+01
  3.88378E+02 -5.89428E+01 -2.76113E+02  1.07373E+02  7.92575E+01  4.08895E+02 -2.46508E+02  5.92835E+02
