 $NMID ID='MM_0lb_SNR800_20hz_g45_52.RAW', FMTDAT='(8E13.5)'
 TRAMP=1., VOLUME=1. $END
  3.09902E+05  4.13552E+02  3.37312E+05  2.49950E+05  8.41886E+04  3.36995E+05 -1.32578E+05  2.49898E+05
 -1.89466E+05  8.22536E+04 -1.10582E+05 -3.27842E+04  1.46234E+03 -5.02056E+04  5.39138E+04  3.00248E+02
  3.46742E+04  5.28862E+04 -1.73224E+04  7.45319E+04 -6.02779E+04  6.23887E+04 -8.23673E+04  3.14830E+04
 -7.92160E+04 -1.11289E+04 -5.57200E+04 -4.98014E+04 -1.47828E+04 -6.75723E+04  2.64852E+04 -4.45085E+04
  3.86210E+04  3.81448E+03  1.51441E+04  4.68594E+04 -3.40645E+04  4.59918E+04 -6.49400E+04 -5.56353E+02
 -5.13352E+04 -5.54227E+04 -5.88701E+03 -7.45847E+04  3.26417E+04 -5.22830E+04  4.56946E+04 -1.61251E+04
  4.09781E+04  1.10685E+04  3.01674E+04  2.39423E+04  1.55767E+04  2.80075E+04 -4.27124E+03  2.66837E+04
 -2.17156E+04  1.29259E+04 -1.92917E+04 -4.03215E+03  3.81187E+03 -7.66639E+03  2.08721E+04  1.06133E+04
  7.47545E+03  3.25618E+04 -2.96930E+04  3.33772E+04 -6.03464E+04  2.26477E+03 -5.45473E+04 -4.06074E+04
 -1.25027E+04 -5.98449E+04  3.74193E+04 -4.28721E+04  5.47348E+04 -1.84418E+03  3.12367E+04  2.98140E+04
 -6.85586E+03  3.19854E+04 -2.79028E+04  1.26169E+04 -2.66643E+04 -5.72125E+03 -1.35913E+04 -9.59918E+03
 -6.99618E+03 -1.06619E+04 -1.19897E+03 -1.61692E+04  6.17057E+03 -2.23509E+04  1.49061E+04 -1.41292E+04
  1.25547E+04  3.91719E+03 -5.58721E+03  1.30784E+04 -1.84024E+04 -1.83852E+03 -7.99193E+03 -2.92727E+04
  1.98632E+04 -3.95985E+04  4.35326E+04 -1.83649E+04  4.07562E+04  1.77149E+04  1.38473E+04  4.10106E+04
 -1.48736E+04  3.04591E+04 -2.26162E+04  5.14633E+02 -7.60456E+03 -2.59493E+04  2.03483E+04 -3.03334E+04
  3.69442E+04 -6.72282E+03  3.02427E+04  2.26265E+04  1.45306E+04  4.14216E+04 -7.62923E+03  4.34322E+04
 -2.74374E+04  2.83244E+04 -3.55836E+04  7.82327E+03 -3.68331E+04 -1.43647E+04 -2.04423E+04 -3.31245E+04
  6.69334E+03 -3.27344E+04  2.86077E+04 -1.18207E+04  2.61132E+04  1.06204E+04  2.71137E+03  1.72686E+04
 -1.29898E+04  7.22928E+03 -9.38989E+03 -7.81514E+03  5.86023E+03 -9.75738E+03  1.67340E+04  6.51309E+03
  1.18968E+04  2.17017E+04 -6.67681E+03  2.28177E+04 -2.12892E+04  8.64478E+03 -2.42686E+04 -6.71489E+03
 -1.52371E+04 -1.59528E+04 -4.70694E+03 -1.54452E+04  3.67630E+03 -1.30096E+04  1.14104E+04 -1.31591E+04
  1.97325E+04 -1.14947E+04  2.66327E+04  6.29952E+02  2.06097E+04  1.49692E+04  3.88899E+03  3.09658E+04
 -1.55919E+04  2.68713E+04 -2.50567E+04  9.23893E+03 -1.88040E+04 -1.05915E+04 -3.64537E+03 -1.39780E+04
  2.98329E+03 -4.62761E+03 -1.84335E+03  4.96948E+03 -1.18763E+04  5.22157E+03 -1.23276E+04 -4.07042E+03
 -8.00765E+03 -1.42540E+04  4.46262E+03 -1.80903E+04  1.19247E+04 -1.31554E+04  1.35463E+04 -1.59582E+03
  8.14023E+03  1.02777E+04 -6.48086E+02  1.46369E+04 -9.44823E+03  8.05224E+03 -1.44256E+04 -3.23216E+03
 -1.05166E+04 -1.32204E+04 -1.34647E+03 -1.78363E+04  8.15132E+03 -1.42534E+04  1.52740E+04 -6.49169E+03
  1.37877E+04  6.66545E+02  9.54561E+03  3.56385E+03  4.55895E+03  5.49341E+02  6.87372E+03 -1.08844E+03
  1.28521E+04  2.66533E+03  1.34922E+04  1.18086E+04  8.16693E+03  2.29752E+04 -2.85525E+03  2.43149E+04
 -1.43148E+04  1.82665E+04 -2.22826E+04  8.46948E+03 -2.22570E+04 -1.31706E+03 -1.95294E+04 -1.25672E+04
 -9.42735E+03 -1.83596E+04  5.80078E+03 -1.70620E+04  1.50283E+04 -1.04937E+04  1.43685E+04  3.16760E+03
  6.49710E+03  1.00559E+04 -6.50790E+03  9.76560E+03 -1.20637E+04  2.49530E+03 -9.96814E+03 -7.35415E+03
 -5.10618E+01 -1.14158E+04  5.34391E+03 -8.92536E+03  6.74267E+03 -1.16903E+03  1.07164E+03  4.40353E+03
 -5.20041E+03  1.09583E+03 -2.97410E+03 -4.18951E+03  9.84232E+02 -9.00890E+03  7.67312E+03 -8.81721E+03
  1.07626E+04 -4.21028E+03  1.04663E+04  2.68738E+03  9.00553E+03  8.53578E+03  4.23941E+03  1.22360E+04
 -1.22470E+03  1.42716E+04 -8.35643E+03  9.31890E+03 -9.71937E+03  2.96226E+03 -7.58499E+03 -1.28686E+03
 -4.32969E+03 -2.80068E+03 -8.79118E+02  1.55878E+03 -2.16246E+03  1.94656E+03 -3.02944E+03  3.41272E+03
 -7.47332E+03 -4.76315E+02 -8.02493E+03 -6.49060E+03 -3.36307E+03 -1.03178E+04  3.26811E+03 -7.70430E+03
  6.50242E+03 -3.48705E+03  4.58427E+03  2.00378E+03  5.16982E+02  2.70810E+03 -2.95019E+03  1.06376E+02
 -2.80633E+03 -4.62403E+03 -8.20527E+02 -6.28290E+03  3.41416E+03 -6.96580E+03  8.84319E+03 -3.57568E+03
  1.02993E+04  2.87095E+02  7.68820E+03  5.29675E+03  1.53495E+03  7.50411E+03 -4.58895E+03  7.38969E+03
 -6.14350E+03  2.61413E+03 -3.10294E+03 -1.01138E+03  1.31131E+03 -1.55473E+03  4.45476E+03 -1.16189E+03
  3.79346E+03  2.89037E+03  1.12934E+03  5.76116E+03 -4.06352E+03  5.88599E+03 -7.10849E+03  1.69495E+03
 -4.13547E+03 -3.06048E+03  4.68435E+02 -6.11201E+03  3.23383E+03 -2.95534E+03  2.83399E+03  1.02757E+03
 -8.34603E+01  2.62234E+03 -3.30811E+03  3.88071E+03 -3.91689E+03  2.26094E+03 -3.30463E+03 -6.87560E+02
 -2.18590E+03 -5.15156E+03  8.14213E+02 -6.03987E+03  4.99819E+03 -3.87701E+03  5.66844E+03  8.34934E+02
  4.08292E+03  4.26944E+03  2.42225E+02  6.28625E+03 -4.11627E+03  3.76767E+03 -4.54769E+03 -2.35781E+02
 -5.23227E+03 -4.66753E+03 -1.47845E+03 -4.40215E+03  2.18497E+03 -4.28946E+03  2.31155E+03 -2.79258E+03
  2.56924E+03 -1.05011E+01 -2.41556E+00  1.06600E+03  5.12281E+02  1.21901E+02 -1.21691E+02 -1.05879E+03
  3.29947E+03 -2.29572E+02  4.09133E+03  4.44417E+02  4.69026E+03  2.39426E+03  5.02194E+03  6.11269E+03
 -7.36034E+02  7.17081E+03 -6.64049E+03  5.77164E+03 -8.24103E+03  8.99928E+02 -6.63991E+03 -1.81896E+03
 -3.51270E+03 -5.59715E+03 -2.20148E+02 -4.16624E+03  1.87352E+03 -1.43772E+03  1.34778E+03 -2.14005E+03
  9.05565E+02 -1.20806E+03  1.81212E+03 -2.29988E+03  3.38817E+03 -9.02511E+02  3.23731E+03  5.79223E+02
  4.06767E+03  9.47678E+02  8.13777E+02  2.59242E+03 -1.45197E+03  2.00629E+03 -3.55657E+03  2.04467E+03
 -3.84477E+03 -7.91490E+02 -1.11185E+03 -2.86987E+03  9.10169E+02 -4.03533E+03  2.43770E+03 -4.23289E+03
  4.08117E+03 -2.83456E+03  5.65758E+03 -1.28569E+02  3.94264E+03  3.29448E+03  7.51273E+02  4.91168E+03
 -1.60787E+03  4.81653E+03 -2.65797E+03  1.52310E+03 -1.30395E+03 -9.39143E+02 -1.50017E+02 -2.87043E+02
 -1.67824E+02  5.57799E+02 -6.47318E+02  1.91285E+03 -2.11374E+03  1.25295E+03 -3.79345E+03 -4.12831E+02
 -1.34300E+03 -3.52037E+03  1.01520E+03 -3.64341E+03  2.06081E+03 -3.55748E+03  2.69017E+03 -1.05373E+03
  2.90926E+03  1.95471E+03  1.05025E+03  2.54679E+03 -4.73800E+02  3.44126E+03 -2.07105E+03  2.09071E+03
 -3.23718E+03  6.31782E+02 -2.67530E+03 -1.97484E+03 -1.08046E+02 -2.55385E+03  1.14349E+03 -1.97871E+03
  2.35393E+03 -1.22649E+03  1.57779E+03  1.13959E+02  2.68840E+02  1.53579E+03  7.72140E+02  2.97930E+02
  1.47741E+03  5.24438E+02  1.20010E+03  8.77704E+02  9.73672E+02  2.27511E+03  1.14672E+03  1.10063E+03
 -1.27215E+03  2.59358E+03 -1.74750E+03  3.58828E+03 -2.15123E+03  1.36286E+03 -3.20096E+03 -1.64808E+01
 -1.34091E+03 -2.71711E+03  5.99036E+02 -3.65272E+03  1.37066E+03 -1.86180E+03  2.48900E+03 -6.60978E+02
  1.85002E+03  1.47897E+03  5.08963E+02  1.83412E+03 -4.71338E+02  9.05311E+02 -6.84345E+02  3.41009E+01
 -4.29091E+02 -8.89940E+02  9.97348E+02 -9.38923E+02  1.03129E+03 -7.04546E+02  8.87893E+02  3.26957E+02
  4.79817E+02 -1.61707E+02  5.56951E+02 -3.89618E+02 -2.22708E+02  7.91757E+02  1.50045E+03 -1.92446E+02
 -5.80585E+01 -1.44380E+02  1.30816E+03  7.12288E+02  5.81996E+01  1.88280E+03 -3.71119E+02  2.46219E+03
 -1.07001E+03  7.64839E+02 -1.53931E+03  6.35479E+01 -1.63056E+03 -8.94413E+02  3.72429E+02 -6.36256E+02
  2.49814E+02 -1.05060E+03  7.63605E+02 -5.54737E+02  3.79664E+02  1.21989E+03 -5.82720E+02  1.00842E+03
 -1.13908E+03  6.86699E+02 -6.31788E+02 -1.09876E+03 -2.61740E+02 -1.86324E+03  1.85305E+00 -1.05456E+03
  1.18190E+02 -1.83617E+02  4.28262E+02  2.49405E+02  1.11351E+03 -3.55192E+02  2.43209E+02  9.92447E+02
 -3.24356E+02 -3.41007E+02 -5.48466E+02 -9.24292E+00  5.11813E+02 -4.61311E+02  1.34932E+03 -6.76774E+02
  5.15660E+02  1.36773E+02  2.25419E+03  5.44711E+02  1.06902E+03  1.05784E+03 -6.73314E+01  1.31312E+03
 -9.37945E+02  8.79391E+01 -8.46902E+02  7.29358E+00 -5.74484E+02 -9.01386E+02  3.55539E+02  5.90466E+01
  1.23446E+03 -4.31739E+02  4.90374E+02  3.34693E+02  2.62798E+02  9.77121E+02  3.14425E+02  8.34073E+02
 -2.52571E+02  8.72044E+02 -2.57392E+02  2.46222E+02  3.00232E+02  4.51155E+02 -8.26041E+02  4.73984E+02
 -6.37244E+02  9.59661E+02 -1.51356E+03  3.58335E+02 -1.36541E+03  2.51209E+02 -1.71908E+03 -5.34725E+02
 -4.45696E+02 -1.59540E+03  3.34252E+02 -2.27104E+03  5.93757E+02 -1.93558E+03  1.87728E+03 -7.72383E+02
  1.77028E+03 -3.76194E+02  1.01414E+03  1.31991E+03 -6.75708E+02  9.47796E+02 -4.93279E+02  9.91676E+02
 -5.72055E+02  8.39012E+02 -4.18094E+02 -5.47473E+02 -4.84021E+02  4.29083E+02 -5.86286E+02 -1.45046E+02
 -1.24961E+03 -9.87543E+01 -8.25137E+02  6.05932E+01  4.92242E+02 -5.76254E+02 -3.95844E+02 -7.23014E+02
  1.04476E+03 -5.56544E+02  4.31787E+02  1.30562E+02  7.87860E+02  6.66742E+02 -5.51143E+02  1.11100E+03
 -6.22247E+02  2.01056E+03 -1.25564E+03  1.11273E+03 -1.45045E+03 -1.11666E+02 -6.89327E+02 -8.21753E+02
 -6.71945E+02 -8.18380E+02  1.34363E+02 -5.92001E+02  3.32819E+02 -1.19242E+02  5.65075E+02  1.42687E+02
  4.26560E+02  2.71433E+02  2.11414E+02  7.05262E+01 -1.03212E+02  1.54982E+01 -8.60975E+01 -2.53518E+01
  2.81315E+02  1.89135E+02  3.31894E+02  6.76714E+02 -2.46411E+01  3.21375E+02  5.41391E+02  2.12125E+02
 -3.29783E+02  5.01655E+02 -1.20675E+02 -1.41848E+01 -4.32387E+02 -1.57905E+02 -3.63390E+01 -7.44645E+02
  4.60141E+02 -5.19477E+02  1.99736E+02 -1.10379E+02  8.07455E+02 -8.18943E+02  2.85282E+02  3.78188E+02
  3.29496E+02  3.09451E+02  3.21046E+01  4.11976E+02 -4.99297E+02  9.13104E+02 -1.65815E+02  3.90786E+02
  6.40009E+00 -2.14897E+02 -4.30283E+02  1.12333E+02 -3.86873E+02  1.45429E+02 -6.53397E+02 -3.08340E+02
 -1.08146E+03  5.48432E+02 -1.17325E+02 -7.77657E+02  7.23189E+02 -1.42101E+03  6.24584E+02 -8.40413E+01
  4.77476E+02  6.89515E+01 -2.39457E+02  8.33109E+01  4.56437E+00  3.85341E+02 -3.38602E+02  5.76665E+02
