 $NMID ID='MM_0lb_SNR800_7hz_g50_4.RAW', FMTDAT='(8E13.5)'
 TRAMP=1., VOLUME=1. $END
  3.09539E+05  6.44462E+02  3.38318E+05  2.50728E+05  8.50485E+04  3.38546E+05 -1.33284E+05  2.52305E+05
 -1.91801E+05  8.44103E+04 -1.13214E+05 -3.25629E+04  5.40385E+02 -5.07190E+04  5.37331E+04 -7.40344E+02
  3.59689E+04  5.27315E+04 -1.63850E+04  7.61490E+04 -6.15227E+04  6.47216E+04 -8.60665E+04  3.30308E+04
 -8.31919E+04 -1.21390E+04 -5.83623E+04 -5.24482E+04 -1.50523E+04 -7.14553E+04  2.89115E+04 -4.75080E+04
  4.18543E+04  3.45082E+03  1.70795E+04  4.87963E+04 -3.51268E+04  4.82439E+04 -6.86049E+04  3.85932E+02
 -5.52987E+04 -5.84247E+04 -7.17013E+03 -7.96085E+04  3.49410E+04 -5.80062E+04  5.04286E+04 -1.88800E+04
  4.61687E+04  1.13173E+04  3.35602E+04  2.69464E+04  1.61685E+04  3.13263E+04 -5.82885E+03  2.77047E+04
 -2.29495E+04  1.17365E+04 -1.76900E+04 -6.15461E+03  7.16593E+03 -7.51987E+03  2.40030E+04  1.43887E+04
  6.75404E+03  3.84877E+04 -3.48521E+04  3.74085E+04 -6.65233E+04  2.24639E+03 -5.94815E+04 -4.49623E+04
 -1.27057E+04 -6.70192E+04  4.24688E+04 -4.84178E+04  6.27485E+04 -2.59139E+03  3.78953E+04  3.50777E+04
 -5.15426E+03  4.02327E+04 -3.23033E+04  2.00544E+04 -3.46783E+04 -2.75761E+03 -2.03210E+04 -1.25806E+04
 -1.00637E+04 -1.59375E+04 -4.47698E+02 -2.02153E+04  8.80072E+03 -2.36495E+04  1.59960E+04 -1.19162E+04
  1.00704E+04  7.18488E+03 -1.12256E+04  1.29107E+04 -2.39879E+04 -7.54539E+03 -8.76950E+03 -3.85946E+04
  2.62431E+04 -4.80238E+04  5.37708E+04 -2.14554E+04  5.00004E+04  2.13057E+04  1.82480E+04  4.87189E+04
 -1.63460E+04  3.76218E+04 -2.84553E+04  2.53138E+03 -1.24797E+04 -3.00209E+04  2.21093E+04 -3.88684E+04
  4.59801E+04 -1.19135E+04  4.17754E+04  2.57895E+04  2.27562E+04  5.29034E+04 -8.30759E+03  5.86409E+04
 -3.70699E+04  4.02026E+04 -4.94148E+04  1.22226E+04 -4.95827E+04 -1.93548E+04 -2.71077E+04 -4.35648E+04
  8.07642E+03 -4.38622E+04  3.53255E+04 -1.82961E+04  3.31912E+04  1.10556E+04  5.33924E+03  2.18411E+04
 -1.40635E+04  1.01085E+04 -1.15088E+04 -8.02035E+03  5.64312E+03 -1.22175E+04  1.86988E+04  5.11142E+03
  1.50247E+04  2.32467E+04 -4.63992E+03  2.79953E+04 -2.37228E+04  1.54205E+04 -3.33763E+04 -2.18145E+03
 -2.73957E+04 -1.89537E+04 -1.35845E+04 -2.67930E+04  4.28154E+03 -2.80201E+04  2.18847E+04 -2.47440E+04
  3.50648E+04 -1.47980E+04  3.99941E+04  6.36696E+03  2.84886E+04  2.63360E+04  5.03375E+03  4.35657E+04
 -2.09267E+04  3.51252E+04 -3.13011E+04  1.24898E+04 -2.32565E+04 -1.04484E+04 -4.79969E+03 -1.24507E+04
  4.55818E+02 -1.33724E+02 -9.11851E+03  8.67926E+03 -2.23036E+04  5.12616E+03 -2.19002E+04 -1.08309E+04
 -1.26273E+04 -2.49599E+04  6.65960E+03 -3.01306E+04  2.04944E+04 -2.07236E+04  2.49461E+04 -1.64092E+03
  1.58009E+04  1.72656E+04 -1.41794E+03  2.48446E+04 -1.79643E+04  1.42662E+04 -2.58926E+04 -5.00384E+03
 -1.87396E+04 -2.30740E+04 -2.80936E+03 -3.06855E+04  1.33874E+04 -2.51448E+04  2.50700E+04 -1.36721E+04
  2.38671E+04 -7.23731E+02  1.71576E+04  5.30350E+03  9.50888E+03  1.90327E+03  1.29901E+04 -2.52328E+03
  2.41703E+04  2.59216E+03  2.81362E+04  1.93288E+04  1.94641E+04  4.06704E+04 -2.47496E+03  4.87889E+04
 -2.80568E+04  4.12994E+04 -4.62013E+04  2.14133E+04 -4.98685E+04 -3.77060E+03 -3.95700E+04 -2.92428E+04
 -1.56191E+04 -4.15721E+04  1.52878E+04 -3.60733E+04  3.04478E+04 -1.60597E+04  2.66217E+04  8.69820E+03
  8.91958E+03  2.11255E+04 -1.24464E+04  1.70870E+04 -2.18806E+04  2.32841E+03 -1.68007E+04 -1.42750E+04
 -5.14443E+02 -2.06792E+04  1.14490E+04 -1.54868E+04  1.49568E+04 -8.10424E+02  4.18735E+03  9.76168E+03
 -9.55563E+03  4.78323E+03 -1.06326E+04 -7.83345E+03 -2.11259E+03 -2.01557E+04  1.24529E+04 -2.20670E+04
  2.53960E+04 -1.30219E+04  2.95334E+04  3.82928E+03  2.63620E+04  2.09598E+04  1.18303E+04  3.32967E+04
 -6.68028E+03  3.54691E+04 -2.33094E+04  2.21278E+04 -2.57484E+04  4.06838E+03 -1.74159E+04 -6.98067E+03
 -7.04471E+03 -8.36336E+03 -8.56505E+02  5.79652E+02 -3.04723E+03  4.15874E+03 -8.17851E+03  6.18530E+03
 -1.58146E+04 -4.57332E+02 -1.64874E+04 -1.33241E+04 -6.49763E+03 -2.18068E+04  7.78412E+03 -1.77464E+04
  1.47960E+04 -6.92333E+03  1.03192E+04  4.48402E+03 -4.92181E+02  7.42452E+03 -9.47483E+03 -4.32377E+02
 -8.34712E+03 -1.11146E+04 -1.27634E+03 -1.77652E+04  1.02296E+04 -1.86550E+04  2.28527E+04 -1.00582E+04
  2.64374E+04  2.41142E+03  1.98102E+04  1.66940E+04  3.09486E+03  2.20771E+04 -1.08722E+04  1.74608E+04
 -1.45393E+04  4.33179E+03 -7.39311E+03 -3.71998E+03  2.40489E+03 -5.16943E+03  9.32030E+03 -7.39627E+02
  8.37963E+03  8.14423E+03  8.72213E+02  1.46845E+04 -1.04226E+04  1.38200E+04 -1.73472E+04  3.31033E+03
 -1.29512E+04 -9.15095E+03  3.13504E+02 -1.57526E+04  1.02875E+04 -7.60718E+03  1.13913E+04  4.21729E+03
  3.10994E+03  1.20942E+04 -9.33017E+03  1.36853E+04 -1.59739E+04  6.39513E+03 -1.65451E+04 -6.46758E+03
 -9.39824E+03 -1.91372E+04  5.33010E+03 -2.10040E+04  1.86036E+04 -1.26272E+04  2.01877E+04  3.49587E+03
  1.18852E+04  1.61208E+04 -2.69433E+03  1.83405E+04 -1.33390E+04  1.02228E+04 -1.50437E+04 -1.66561E+03
 -1.19100E+04 -1.22536E+04 -2.07263E+03 -1.40352E+04  7.42454E+03 -1.07302E+04  9.27127E+03 -3.96641E+03
  5.56055E+03  2.34261E+03 -1.43770E+03  2.07612E+03 -1.02588E+03 -4.52602E+03  3.92459E+03 -9.44911E+03
  1.41135E+04 -6.44149E+03  1.97535E+04  1.89719E+03  1.91950E+04  1.37907E+04  1.19995E+04  2.50567E+04
 -5.94482E+03  2.85861E+04 -2.38559E+04  2.11919E+04 -3.10172E+04  4.49791E+03 -2.52502E+04 -1.05643E+04
 -1.26012E+04 -2.08141E+04  1.42647E+02 -1.82157E+04  6.06257E+03 -1.06557E+04  6.21934E+03 -6.15902E+03
  4.77260E+03 -3.27228E+03  4.68461E+03 -4.51326E+03  6.79706E+03 -4.17657E+03  9.84483E+03 -1.69817E+03
  1.31005E+04  2.96331E+03  7.63298E+03  1.16632E+04 -2.58115E+03  1.40894E+04 -1.41102E+04  1.08985E+04
 -1.83732E+04 -1.61293E+03 -1.23400E+04 -1.26580E+04 -2.38408E+03 -1.96375E+04  1.09534E+04 -1.94423E+04
  2.07385E+04 -1.07615E+04  2.39759E+04  3.36909E+03  1.62754E+04  1.73778E+04  2.64619E+03  2.18827E+04
 -9.41651E+03  1.71260E+04 -1.31217E+04  6.05793E+03 -8.71805E+03 -1.80908E+03 -3.71140E+03 -2.55539E+03
 -1.74583E+03 -1.80546E+02 -2.57347E+03  3.42637E+03 -7.19501E+03  2.64198E+03 -1.18784E+04 -1.99949E+03
 -9.02649E+03 -1.24114E+04 -1.14053E+02 -1.80769E+04  1.11946E+04 -1.66692E+04  1.89050E+04 -4.96625E+03
  1.84945E+04  8.42904E+03  8.70509E+03  1.67840E+04 -4.12919E+03  1.90008E+04 -1.39963E+04  1.20954E+04
 -1.80913E+04  3.20173E+02 -1.29701E+04 -1.14501E+04 -1.22711E+03 -1.61332E+04  8.14777E+03 -1.13051E+04
  1.18800E+04 -3.52434E+03  8.43071E+03  3.45751E+03  3.12420E+03  5.69949E+03  2.26627E+03  2.69458E+03
  3.20213E+03  1.13617E+03  4.35854E+03  2.21479E+03  6.33202E+03  6.80965E+03  4.46389E+03  1.08248E+04
 -3.39763E+03  1.48883E+04 -1.29420E+04  1.43742E+04 -2.01652E+04  3.78403E+03 -1.98184E+04 -9.01810E+03
 -9.85222E+03 -1.95845E+04  2.87719E+03 -2.14652E+04  1.17957E+04 -1.42905E+04  1.56391E+04 -3.83031E+03
  1.25778E+04  7.44840E+03  3.07442E+03  1.09970E+04 -5.29382E+03  7.18679E+03 -7.73168E+03 -7.81501E+02
 -3.52772E+03 -8.48173E+03  4.44393E+03 -8.94048E+03  8.31485E+03 -3.79873E+03  8.09256E+03  1.91594E+03
  5.10434E+03  4.66414E+03  1.66510E+03  3.60895E+03 -1.31842E+03  2.62908E+03  1.82152E+03 -8.63323E+02
  3.44796E+03 -1.47321E+03  7.83936E+03  2.88478E+03  4.61208E+03  1.03591E+04 -1.70277E+03  1.37086E+04
 -9.42824E+03  9.25012E+03 -1.32152E+04  3.03319E+03 -1.11717E+04 -4.98108E+03 -4.73153E+03 -8.29521E+03
  1.30236E+03 -8.50398E+03  5.34667E+03 -3.70972E+03  4.24944E+03  4.24114E+03 -1.99992E+03  6.95062E+03
 -8.49736E+03  4.35903E+03 -9.74298E+03 -4.68774E+03 -5.43880E+03 -1.09018E+04  2.47242E+03 -1.10893E+04
  7.06597E+03 -6.76400E+03  8.46924E+03 -1.15533E+03  6.79184E+03  3.32786E+03  6.53792E+02  6.03124E+03
 -4.41935E+03  2.04236E+03 -4.81629E+03 -4.18725E+03  1.76288E+03 -8.98210E+03  9.71615E+03 -6.75777E+03
  1.34380E+04  1.33818E+03  1.20583E+04  9.24016E+03  4.15385E+03  1.36287E+04 -5.22292E+03  1.33395E+04
 -1.12509E+04  6.17688E+03 -1.17818E+04 -1.93685E+03 -6.76935E+03 -8.69332E+03  2.23361E+03 -8.74655E+03
  8.30567E+03 -4.38965E+03  7.25510E+03  3.92078E+03  2.84271E+03  7.54212E+03 -1.65853E+03  6.46522E+03
 -3.83357E+03  4.27530E+03 -3.30450E+03  1.15722E+03 -1.81775E+03  1.03016E+03 -2.42385E+03  2.81308E+03
 -3.39431E+03  4.76699E+03 -8.98176E+03  5.02725E+03 -1.38056E+04  3.82094E+02 -1.57064E+04 -9.55229E+03
 -7.94319E+03 -1.84938E+04  3.94530E+03 -2.17261E+04  1.35068E+04 -1.65533E+04  2.03023E+04 -6.00757E+03
  1.93960E+04  4.12933E+03  1.16855E+04  1.24529E+04  1.70586E+03  1.48698E+04 -6.16008E+03  1.09320E+04
 -8.13057E+03  3.72070E+03 -4.96415E+03 -1.96219E+03 -1.58831E+03 -1.04987E+03 -8.55020E+02 -3.79278E+02
 -2.50680E+03  7.11252E+02 -3.05788E+03 -7.60711E+02 -1.29773E+03 -3.74548E+03  6.63742E+02 -5.60556E+03
  6.84657E+03 -4.39638E+03  9.55679E+03 -3.81283E+02  1.02562E+04  8.11586E+03  3.31193E+03  1.48793E+04
 -6.60678E+03  1.69080E+04 -1.56753E+04  9.69178E+03 -1.83446E+04 -1.28260E+03 -1.31890E+04 -1.05554E+04
 -5.49003E+03 -1.57976E+04  3.83361E+03 -1.41424E+04  9.95163E+03 -7.88636E+03  1.00238E+04  3.90399E+00
  5.72163E+03  4.96929E+03 -8.07487E+02  4.51213E+03 -2.83022E+03 -1.46383E+02  5.83266E+02 -4.02544E+03
  4.38523E+03 -2.40235E+03  6.28800E+03  1.81280E+03  4.44642E+03  5.73203E+03 -1.79485E+02  8.22075E+03
 -6.64652E+03  6.81363E+03 -1.03043E+04  6.23862E+02 -9.36067E+03 -7.59550E+03 -1.79764E+03 -1.27135E+04
  7.36184E+03 -1.06990E+04  1.20126E+04 -3.13658E+03  1.17568E+04  3.18684E+03  6.84669E+03  9.45749E+03
  1.25572E+03  1.04104E+04 -3.85919E+03  8.50382E+03 -6.12330E+03  4.04617E+03 -5.74741E+03  7.66418E+02
 -3.02199E+03 -2.01870E+02 -3.00537E+03  1.70361E+03 -5.13358E+03  2.05903E+03 -8.15328E+03 -1.41779E+03
 -7.62751E+03 -6.26974E+03 -2.02103E+03 -1.04875E+04  4.83614E+03 -1.04759E+04  8.94138E+03 -5.26971E+03
  1.05469E+04  1.71492E+03  6.26583E+03  7.36232E+03 -6.37591E+02  1.08229E+04 -8.57805E+03  6.94586E+03
