 $NMID ID='MM_0lb_SNR800_14hz_g50_67.RAW', FMTDAT='(8E13.5)'
 TRAMP=1., VOLUME=1. $END
  3.09949E+05  5.08357E+02  3.37966E+05  2.50589E+05  8.49011E+04  3.38028E+05 -1.32575E+05  2.51336E+05
 -1.90075E+05  8.31946E+04 -1.11713E+05 -3.22277E+04  1.00875E+03 -5.02975E+04  5.37160E+04  1.34065E+02
  3.54531E+04  5.26122E+04 -1.69990E+04  7.52260E+04 -6.08362E+04  6.38593E+04 -8.42412E+04  3.19641E+04
 -8.12479E+04 -1.14896E+04 -5.71102E+04 -5.12851E+04 -1.51209E+04 -6.94454E+04  2.73019E+04 -4.58104E+04
  3.99591E+04  3.62060E+03  1.62148E+04  4.78063E+04 -3.44120E+04  4.71691E+04 -6.67226E+04 -4.36960E+02
 -5.31471E+04 -5.67794E+04 -6.88790E+03 -7.70455E+04  3.38673E+04 -5.51067E+04  4.81683E+04 -1.72946E+04
  4.34470E+04  1.10247E+04  3.18330E+04  2.56554E+04  1.61480E+04  2.94951E+04 -5.28664E+03  2.73878E+04
 -2.20550E+04  1.22571E+04 -1.86154E+04 -5.01177E+03  5.80211E+03 -7.88640E+03  2.25948E+04  1.18978E+04
  7.64994E+03  3.52281E+04 -3.23958E+04  3.55284E+04 -6.36798E+04  2.44189E+03 -5.70992E+04 -4.27929E+04
 -1.24270E+04 -6.29212E+04  3.97498E+04 -4.54884E+04  5.84491E+04 -2.16824E+03  3.43180E+04  3.25213E+04
 -5.92929E+03  3.59397E+04 -3.02499E+04  1.59384E+04 -3.03616E+04 -4.53337E+03 -1.68507E+04 -1.08810E+04
 -8.36575E+03 -1.32509E+04 -7.19439E+02 -1.83959E+04  7.46919E+03 -2.29500E+04  1.52868E+04 -1.35710E+04
  1.14903E+04  5.40299E+03 -8.36327E+03  1.27996E+04 -2.14214E+04 -4.61912E+03 -8.16562E+03 -3.36160E+04
  2.28727E+04 -4.37825E+04  4.82088E+04 -1.96849E+04  4.49047E+04  1.97099E+04  1.59558E+04  4.42024E+04
 -1.58151E+04  3.34627E+04 -2.52715E+04  2.08614E+03 -9.95117E+03 -2.78954E+04  2.08653E+04 -3.38622E+04
  4.12151E+04 -8.91289E+03  3.57546E+04  2.35612E+04  1.82298E+04  4.67674E+04 -8.30183E+03  5.04546E+04
 -3.17851E+04  3.38963E+04 -4.20177E+04  9.42698E+03 -4.26723E+04 -1.67248E+04 -2.36427E+04 -3.79573E+04
  7.26270E+03 -3.80231E+04  3.14456E+04 -1.49341E+04  2.96390E+04  1.09121E+04  4.10110E+03  1.93508E+04
 -1.34920E+04  8.22480E+03 -1.06262E+04 -7.55126E+03  5.31776E+03 -1.06674E+04  1.79901E+04  6.19089E+03
  1.29572E+04  2.20273E+04 -6.02553E+03  2.50480E+04 -2.22575E+04  1.14534E+04 -2.83511E+04 -5.05108E+03
 -2.08075E+04 -1.74258E+04 -8.23049E+03 -2.02931E+04  3.89801E+03 -1.96989E+04  1.60361E+04 -1.84096E+04
  2.62933E+04 -1.28083E+04  3.27689E+04  2.46625E+03  2.39475E+04  2.02538E+04  4.21915E+03  3.64488E+04
 -1.77079E+04  3.02096E+04 -2.82333E+04  1.04192E+04 -2.10148E+04 -1.06061E+04 -4.27919E+03 -1.36994E+04
  1.63733E+03 -2.82560E+03 -5.09973E+03  6.64337E+03 -1.63511E+04  5.04238E+03 -1.65641E+04 -6.85646E+03
 -1.01418E+04 -1.91968E+04  5.53044E+03 -2.33790E+04  1.56140E+04 -1.65497E+04  1.85085E+04 -1.65563E+03
  1.13375E+04  1.32232E+04 -1.19995E+03  1.90744E+04 -1.31899E+04  1.07869E+04 -1.93303E+04 -4.31076E+03
 -1.40460E+04 -1.68416E+04 -1.88638E+03 -2.29878E+04  1.03895E+04 -1.89078E+04  1.91922E+04 -9.19281E+03
  1.77224E+04  6.01309E+01  1.29657E+04  4.45489E+03  6.78740E+03  7.64040E+02  9.42331E+03 -1.64589E+03
  1.75230E+04  2.77830E+03  1.95933E+04  1.51694E+04  1.27772E+04  3.01791E+04 -2.87509E+03  3.46119E+04
 -1.97717E+04  2.77813E+04 -3.20750E+04  1.39231E+04 -3.36006E+04 -2.27999E+03 -2.77241E+04 -1.94124E+04
 -1.16677E+04 -2.77643E+04  9.93486E+03 -2.49805E+04  2.15925E+04 -1.26669E+04  1.91467E+04  5.56456E+03
  7.22287E+03  1.43840E+04 -9.27098E+03  1.25921E+04 -1.62136E+04  2.16300E+03 -1.23437E+04 -1.01627E+04
 -3.36906E+02 -1.54364E+04  7.77920E+03 -1.17097E+04  1.04664E+04 -1.06573E+03  1.90060E+03  6.98354E+03
 -6.89604E+03  2.50513E+03 -6.12027E+03 -5.95603E+03 -2.48845E+02 -1.36583E+04  9.61202E+03 -1.45002E+04
  1.67267E+04 -7.55170E+03  1.80632E+04  3.35058E+03  1.57450E+04  1.34101E+04  7.44148E+03  2.04543E+04
 -3.14729E+03  2.24618E+04 -1.39787E+04  1.38146E+04 -1.57797E+04  3.21282E+03 -1.15544E+04 -3.65497E+03
 -5.33752E+03 -4.76312E+03 -9.47101E+02  1.36785E+03 -2.24936E+03  2.79371E+03 -5.11768E+03  4.43381E+03
 -1.08989E+04 -7.62114E+02 -1.10316E+04 -9.28319E+03 -4.37629E+03 -1.48931E+04  4.99304E+03 -1.11445E+04
  9.77759E+03 -4.81653E+03  6.71079E+03  3.36811E+03  6.27178E+01  4.63788E+03 -4.97161E+03 -1.94703E+02
 -5.11826E+03 -7.15852E+03 -7.03044E+02 -1.04426E+04  5.90817E+03 -1.12685E+04  1.41859E+04 -5.96553E+03
  1.68558E+04  1.30112E+03  1.20861E+04  9.24065E+03  2.40250E+03  1.29157E+04 -6.93451E+03  1.12775E+04
 -8.95218E+03  3.55458E+03 -4.71952E+03 -2.13426E+03  1.71605E+03 -2.98324E+03  6.13596E+03 -8.25837E+02
  5.53122E+03  5.00534E+03  1.22292E+03  8.92024E+03 -6.22309E+03  8.52781E+03 -1.08678E+04  2.13198E+03
 -7.45172E+03 -5.39586E+03  2.88459E+02 -9.29627E+03  5.73206E+03 -4.79485E+03  5.66590E+03  1.96132E+03
  1.11295E+03  6.16323E+03 -5.75345E+03  7.44607E+03 -8.24355E+03  3.36272E+03 -8.20714E+03 -2.93093E+03
 -4.53562E+03 -1.01969E+04  2.28947E+03 -1.15193E+04  9.55912E+03 -7.16934E+03  1.04624E+04  1.97116E+03
  6.70364E+03  8.27479E+03 -1.90393E+02  1.04827E+04 -7.62100E+03  5.83598E+03 -8.05990E+03 -4.96453E+02
 -7.52979E+03 -7.35609E+03 -1.65286E+03 -7.73514E+03  4.00251E+03 -6.72973E+03  4.97539E+03 -3.24277E+03
  3.66220E+03  1.06470E+03 -4.14714E+02  1.55264E+03 -2.82492E+00 -1.51041E+03  1.11842E+03 -3.74811E+03
  6.89374E+03 -2.31786E+03  9.31612E+03  1.16760E+03  9.31745E+03  6.19170E+03  6.96049E+03  1.22593E+04
 -2.52693E+03  1.45261E+04 -1.24421E+04  1.08147E+04 -1.61538E+04  1.94796E+03 -1.26886E+04 -4.95478E+03
 -6.46538E+03 -1.05205E+04 -7.50324E+02 -8.80416E+03  3.26337E+03 -4.70248E+03  2.93995E+03 -3.37620E+03
  2.20014E+03 -2.29938E+03  2.66886E+03 -3.26782E+03  4.34064E+03 -2.29062E+03  5.56674E+03 -1.23197E+02
  6.81287E+03  1.74340E+03  2.78968E+03  5.71210E+03 -2.02788E+03  6.26069E+03 -6.91200E+03  4.74622E+03
 -8.38581E+03 -1.16870E+03 -4.46213E+03 -5.67718E+03 -3.47783E+01 -9.09300E+03  5.21899E+03 -8.80786E+03
  9.45495E+03 -5.06488E+03  1.15440E+04  1.19246E+03  8.11296E+03  7.85397E+03  1.67541E+03  1.01979E+04
 -4.09601E+03  8.99652E+03 -5.85588E+03  2.98282E+03 -3.33714E+03 -1.23465E+03 -1.69329E+03 -1.26319E+03
 -8.17071E+02 -2.25163E+02 -1.53344E+03  2.29757E+03 -4.06056E+03  1.62996E+03 -6.35087E+03 -8.25985E+02
 -3.50266E+03 -6.51884E+03  4.97469E+02 -7.96356E+03  5.18987E+03 -7.70558E+03  7.19352E+03 -2.17086E+03
  7.81342E+03  3.91322E+03  3.70121E+03  6.65446E+03 -1.66646E+03  7.90359E+03 -5.58248E+03  4.72161E+03
 -7.53588E+03  6.19240E+02 -5.98612E+03 -4.64802E+03 -5.97431E+02 -6.20075E+03  3.25884E+03 -5.10816E+03
  4.92968E+03 -1.92464E+03  3.45140E+03  1.28796E+03  9.99010E+02  2.70405E+03  1.51101E+03  1.15419E+03
  2.04836E+03  7.85709E+02  1.79971E+03  1.54945E+03  1.91894E+03  3.05952E+03  2.40487E+03  3.88836E+03
 -1.76264E+03  6.00513E+03 -4.93477E+03  6.82489E+03 -7.09790E+03  2.08944E+03 -8.06467E+03 -2.46900E+03
 -3.63056E+03 -7.79428E+03  1.15528E+03 -8.56097E+03  4.83761E+03 -5.45969E+03  6.60279E+03 -1.56618E+03
  4.82252E+03  2.86229E+03  9.54492E+02  4.40593E+03 -1.98307E+03  2.92242E+03 -2.59538E+03 -4.93128E+02
 -1.39607E+03 -3.15412E+03  2.14338E+03 -3.19353E+03  2.82002E+03 -1.89425E+03  2.83214E+03  7.22266E+02
  1.51556E+03  9.23950E+02  1.35983E+03  7.61785E+02 -6.07565E+02  1.20480E+03  1.64691E+03 -5.71563E+02
  1.12509E+03 -2.42818E+02  3.42822E+03  1.04539E+03  1.51760E+03  4.14885E+03 -8.93946E+02  5.17650E+03
 -3.40259E+03  2.95834E+03 -4.71036E+03  9.38395E+02 -4.08793E+03 -1.73285E+03 -9.85429E+02 -2.17710E+03
  5.20294E+02 -2.91274E+03  1.79303E+03 -1.70428E+03  1.16022E+03  1.80121E+03 -8.78004E+02  2.49393E+03
 -2.91418E+03  1.46755E+03 -3.10914E+03 -2.31491E+03 -1.93495E+03 -4.07651E+03  4.57669E+02 -3.80342E+03
  1.63550E+03 -1.86860E+03  2.24805E+03  6.81318E+01  2.60886E+03  8.54557E+02  3.15755E+02  2.09643E+03
 -1.16813E+03  4.40392E+02 -1.90019E+03 -9.43094E+02  7.41210E+02 -2.75745E+03  3.75171E+03 -2.20961E+03
  3.90801E+03  2.04914E+02  4.55967E+03  2.63385E+03  2.06863E+03  4.08968E+03 -1.36219E+03  4.30497E+03
 -3.59140E+03  1.41631E+03 -3.61829E+03 -5.18783E+02 -1.66078E+03 -3.10023E+03  4.40059E+02 -2.31355E+03
  2.90720E+03 -1.23891E+03  2.37469E+03  1.23383E+03  3.32610E+02  2.28016E+03 -3.06450E+02  2.21392E+03
 -6.98493E+02  1.53782E+03 -1.00697E+03  3.27084E+02 -1.73633E+02  5.48142E+02 -9.73001E+02  7.53320E+02
 -1.15601E+03  1.60991E+03 -3.20020E+03  1.46096E+03 -4.19983E+03  4.32151E+02 -5.39605E+03 -2.62919E+03
 -2.49298E+03 -5.56425E+03  1.08614E+03 -6.36886E+03  3.39354E+03 -5.24059E+03  5.83572E+03 -2.04745E+03
  5.73445E+03  7.29492E+02  3.03358E+03  3.92920E+03 -2.62922E+02  4.19224E+03 -1.58905E+03  3.36974E+03
 -2.47450E+03  9.34957E+02 -1.63026E+03 -2.43675E+02 -5.34973E+02 -5.72438E+01 -5.18891E+02  1.42397E+02
 -1.44088E+03  2.19007E+02 -1.34500E+03 -4.50351E+01 -7.89072E+01 -1.32212E+03 -2.59143E+02 -1.87393E+03
  2.21261E+03 -1.04458E+03  1.74189E+03  3.58549E+02  2.80613E+03  2.15954E+03  2.28806E+02  3.92749E+03
 -1.90376E+03  4.84199E+03 -4.26823E+03  2.62740E+03 -4.77605E+03 -5.56710E+02 -3.39169E+03 -3.01460E+03
 -2.28379E+03 -3.84319E+03  9.91782E+02 -3.56981E+03  1.98439E+03 -1.90054E+03  2.17475E+03  1.12705E+02
  1.39160E+03  1.24105E+03 -1.63163E+01  7.62246E+02 -8.56331E+02  8.09881E-02 -1.84225E+02 -1.01585E+03
  9.88138E+02 -2.19579E+02  1.24289E+03  7.22823E+02  5.55061E+02  1.51870E+03  1.80847E+02  1.57178E+03
 -1.53505E+03  1.50546E+03 -2.15062E+03  4.82904E+01 -2.56379E+03 -1.58121E+03 -2.02836E+02 -3.08319E+03
  1.72273E+03 -2.41817E+03  2.74405E+03 -6.91190E+02  2.84291E+03 -8.57284E+00  1.51655E+03  2.38918E+03
  4.98783E+02  2.33390E+03 -9.08788E+02  2.10526E+03 -1.63131E+03  1.39059E+03 -1.22961E+03  1.87777E+02
 -4.67091E+02 -3.47312E+02 -7.33201E+02  2.07126E+02 -1.42889E+03  2.03018E+02 -2.35704E+03 -2.23602E+02
 -2.58695E+03 -6.97801E+02 -3.77508E+02 -2.46998E+03  1.35474E+03 -3.04374E+03  2.06554E+03 -1.12769E+03
  2.20768E+03 -1.59280E+02  8.69902E+02  1.31469E+03 -4.54015E+02  2.23307E+03 -1.88043E+03  1.69007E+03
