 $NMID ID='MM_0lb_SNR800_8hz_g60_46.RAW', FMTDAT='(8E13.5)'
 TRAMP=1., VOLUME=1. $END
  3.09678E+05  3.73630E+02  3.38127E+05  2.50679E+05  8.52742E+04  3.39015E+05 -1.32662E+05  2.52001E+05
 -1.91018E+05  8.45109E+04 -1.13211E+05 -3.24609E+04  3.14104E+02 -5.04301E+04  5.35916E+04 -6.37121E+02
  3.55660E+04  5.27680E+04 -1.67903E+04  7.62426E+04 -6.16424E+04  6.47740E+04 -8.56775E+04  3.34138E+04
 -8.28771E+04 -1.18568E+04 -5.85101E+04 -5.26940E+04 -1.53453E+04 -7.14993E+04  2.84043E+04 -4.73250E+04
  4.15513E+04  3.63284E+03  1.72802E+04  4.92648E+04 -3.51475E+04  4.86916E+04 -6.91401E+04  6.60763E+02
 -5.57210E+04 -5.82489E+04 -6.93049E+03 -7.98904E+04  3.50642E+04 -5.79698E+04  5.07728E+04 -1.90396E+04
  4.61904E+04  1.14895E+04  3.34141E+04  2.72395E+04  1.63896E+04  3.11022E+04 -6.08752E+03  2.81690E+04
 -2.24788E+04  1.16195E+04 -1.76106E+04 -5.80769E+03  7.62946E+03 -7.23974E+03  2.41651E+04  1.44664E+04
  6.91008E+03  3.86871E+04 -3.47062E+04  3.76036E+04 -6.67959E+04  2.21325E+03 -6.03520E+04 -4.52202E+04
 -1.24634E+04 -6.72753E+04  4.24812E+04 -4.82172E+04  6.25128E+04 -2.04785E+03  3.82176E+04  3.56963E+04
 -5.19950E+03  4.05206E+04 -3.23934E+04  2.01419E+04 -3.41759E+04 -2.85660E+03 -2.06668E+04 -1.21178E+04
 -1.02655E+04 -1.60186E+04 -1.60325E+02 -2.01845E+04  9.05950E+03 -2.35190E+04  1.60691E+04 -1.22936E+04
  9.61735E+03  6.19072E+03 -1.16951E+04  1.28214E+04 -2.40981E+04 -7.73135E+03 -8.90719E+03 -3.89487E+04
  2.61895E+04 -4.80463E+04  5.35420E+04 -2.13323E+04  5.04033E+04  2.11127E+04  1.80281E+04  4.82129E+04
 -1.76459E+04  3.71379E+04 -2.85968E+04  3.06849E+03 -1.24731E+04 -3.02835E+04  2.17428E+04 -3.82657E+04
  4.59606E+04 -1.18095E+04  4.23654E+04  2.56016E+04  2.25784E+04  5.30014E+04 -8.43927E+03  5.82891E+04
 -3.71336E+04  4.07858E+04 -4.93831E+04  1.19217E+04 -4.97118E+04 -1.93467E+04 -2.74616E+04 -4.39952E+04
  7.74218E+03 -4.38481E+04  3.54395E+04 -1.81970E+04  3.27109E+04  1.11058E+04  5.47040E+03  2.12413E+04
 -1.40926E+04  9.86626E+03 -1.18993E+04 -7.69573E+03  5.64869E+03 -1.16840E+04  1.92757E+04  5.30361E+03
  1.54682E+04  2.28119E+04 -4.78157E+03  2.78633E+04 -2.39052E+04  1.55803E+04 -3.29336E+04 -2.06345E+03
 -2.71567E+04 -1.88487E+04 -1.29825E+04 -2.65724E+04  4.32876E+03 -2.78776E+04  2.15790E+04 -2.53694E+04
  3.48386E+04 -1.47328E+04  4.03238E+04  5.79800E+03  2.88408E+04  2.62218E+04  4.49330E+03  4.32669E+04
 -2.03679E+04  3.57198E+04 -3.14318E+04  1.24766E+04 -2.33476E+04 -1.00006E+04 -5.26165E+03 -1.28588E+04
  1.46498E+02 -2.12413E+02 -8.83555E+03  9.15141E+03 -2.21687E+04  4.77846E+03 -2.23358E+04 -1.07361E+04
 -1.24459E+04 -2.54272E+04  6.43281E+03 -2.94449E+04  1.99580E+04 -2.12198E+04  2.46439E+04 -1.69999E+03
  1.59470E+04  1.74842E+04 -2.04888E+03  2.50700E+04 -1.77642E+04  1.44780E+04 -2.57377E+04 -5.16929E+03
 -1.86644E+04 -2.22425E+04 -2.31200E+03 -2.98975E+04  1.32643E+04 -2.54602E+04  2.47493E+04 -1.32054E+04
  2.36425E+04 -6.89632E+02  1.67366E+04  5.70380E+03  9.15159E+03  1.71771E+03  1.26973E+04 -2.65823E+03
  2.41952E+04  2.82537E+03  2.77451E+04  1.99336E+04  1.93057E+04  4.10632E+04 -2.26897E+03  4.82410E+04
 -2.77233E+04  4.10199E+04 -4.56877E+04  2.14991E+04 -4.91242E+04 -3.84427E+03 -3.98458E+04 -2.91023E+04
 -1.54977E+04 -4.11883E+04  1.46563E+04 -3.57815E+04  3.06583E+04 -1.65238E+04  2.59535E+04  8.65932E+03
  8.41844E+03  2.01653E+04 -1.32060E+04  1.70655E+04 -2.19167E+04  2.35154E+03 -1.63801E+04 -1.39631E+04
 -3.41017E+02 -2.10469E+04  1.14024E+04 -1.55118E+04  1.42678E+04 -1.52875E+03  3.87296E+03  9.69771E+03
 -9.64495E+03  5.27054E+03 -1.03136E+04 -7.50570E+03 -2.76990E+03 -1.98852E+04  1.32997E+04 -2.24437E+04
  2.58758E+04 -1.24564E+04  3.00338E+04  2.98319E+03  2.62065E+04  2.09076E+04  1.15120E+04  3.31162E+04
 -6.10304E+03  3.51627E+04 -2.34135E+04  2.16496E+04 -2.56138E+04  4.34250E+03 -1.70936E+04 -6.82140E+03
 -6.81160E+03 -7.82464E+03 -5.80269E+02  1.59396E+02 -3.09391E+03  3.70702E+03 -7.95725E+03  6.20203E+03
 -1.57853E+04 -1.28742E+03 -1.64068E+04 -1.30123E+04 -6.53859E+03 -2.15980E+04  7.22757E+03 -1.76112E+04
  1.47322E+04 -7.06170E+03  1.00598E+04  4.83741E+03 -1.11081E+03  7.33721E+03 -9.15451E+03 -5.30665E+02
 -9.18482E+03 -1.14101E+04 -1.33869E+03 -1.74244E+04  9.82916E+03 -1.87559E+04  2.26217E+04 -1.01583E+04
  2.64974E+04  3.05627E+03  1.91303E+04  1.62691E+04  3.60208E+03  2.21830E+04 -1.09856E+04  1.76482E+04
 -1.42516E+04  4.75996E+03 -7.40544E+03 -4.32653E+03  2.60907E+03 -5.07508E+03  9.01040E+03 -8.61780E+02
  8.39096E+03  8.14098E+03  5.32799E+02  1.45111E+04 -1.05828E+04  1.34607E+04 -1.75324E+04  3.21371E+03
 -1.24889E+04 -9.65046E+03  1.00535E+02 -1.55518E+04  1.03056E+04 -8.03512E+03  1.07662E+04  3.85806E+03
  2.75488E+03  1.15258E+04 -8.91735E+03  1.35464E+04 -1.65508E+04  5.90263E+03 -1.70004E+04 -6.40445E+03
 -9.35872E+03 -1.84517E+04  4.63474E+03 -2.06727E+04  1.76631E+04 -1.24437E+04  1.96782E+04  3.25043E+03
  1.16468E+04  1.55993E+04 -1.98171E+03  1.79317E+04 -1.39327E+04  1.01557E+04 -1.53249E+04 -1.50128E+03
 -1.21563E+04 -1.21001E+04 -1.66498E+03 -1.39191E+04  7.16473E+03 -1.04068E+04  9.08211E+03 -3.95847E+03
  5.65206E+03  3.08059E+03 -1.78294E+03  1.82752E+03 -1.08728E+03 -4.14610E+03  3.38974E+03 -8.74621E+03
  1.36775E+04 -6.15761E+03  1.91490E+04  1.92960E+03  1.85139E+04  1.35419E+04  1.14181E+04  2.48247E+04
 -5.90091E+03  2.82733E+04 -2.33593E+04  2.06426E+04 -3.04419E+04  3.41024E+03 -2.47731E+04 -1.06005E+04
 -1.25546E+04 -2.00003E+04 -3.90033E+02 -1.71697E+04  5.45050E+03 -1.04285E+04  6.13947E+03 -6.51314E+03
  4.84670E+03 -3.64434E+03  4.95284E+03 -3.84303E+03  6.54538E+03 -4.41293E+03  9.25283E+03 -2.04679E+03
  1.23193E+04  2.80670E+03  7.61651E+03  1.15181E+04 -2.12072E+03  1.43276E+04 -1.33525E+04  1.02150E+04
 -1.69979E+04 -1.69162E+03 -1.18166E+04 -1.25673E+04 -1.73449E+03 -1.90049E+04  1.02200E+04 -1.87928E+04
  1.97359E+04 -1.01196E+04  2.34279E+04  3.14728E+03  1.57900E+04  1.65789E+04  2.45546E+03  2.07308E+04
 -8.86975E+03  1.68692E+04 -1.23517E+04  5.77032E+03 -8.60706E+03 -1.73555E+03 -3.76430E+03 -2.14850E+03
 -1.70247E+03 -3.75047E+01 -2.64359E+03  3.34084E+03 -7.35925E+03  2.89708E+03 -1.18396E+04 -1.83995E+03
 -9.07972E+03 -1.19899E+04 -3.76693E+02 -1.79364E+04  1.10835E+04 -1.65543E+04  1.77927E+04 -5.00532E+03
  1.70203E+04  8.76050E+03  8.45456E+03  1.62409E+04 -3.48643E+03  1.80629E+04 -1.25888E+04  1.13050E+04
 -1.66632E+04  5.69693E+02 -1.30752E+04 -1.09420E+04 -1.69168E+03 -1.49386E+04  7.70691E+03 -1.15384E+04
  1.13826E+04 -3.40987E+03  7.94903E+03  3.02121E+03  2.69421E+03  5.09330E+03  1.68534E+03  2.54670E+03
  3.14260E+03  1.35876E+03  4.60265E+03  1.97146E+03  5.62334E+03  6.05441E+03  4.24035E+03  9.78765E+03
 -4.02319E+03  1.48791E+04 -1.29278E+04  1.41324E+04 -1.91862E+04  3.61233E+03 -1.95477E+04 -8.41642E+03
 -9.44210E+03 -1.82965E+04  3.11473E+03 -1.98437E+04  1.13549E+04 -1.29289E+04  1.53166E+04 -3.24042E+03
  1.21003E+04  7.10971E+03  2.91107E+03  1.06356E+04 -5.11481E+03  7.26174E+03 -8.04013E+03 -1.30975E+03
 -3.77113E+03 -7.94686E+03  4.33103E+03 -8.58620E+03  7.44096E+03 -3.69523E+03  7.52318E+03  2.00925E+03
  4.38700E+03  3.93913E+03  1.21518E+03  3.35230E+03 -1.19766E+03  2.10660E+03  2.28232E+03 -5.87251E+02
  3.46591E+03 -1.24475E+03  7.40835E+03  3.11032E+03  4.22636E+03  1.00867E+04 -1.84401E+03  1.31580E+04
 -9.48916E+03  8.82596E+03 -1.25202E+04  2.34610E+03 -1.03659E+04 -4.17437E+03 -4.27594E+03 -7.53637E+03
  7.82876E+02 -7.81313E+03  4.47941E+03 -3.48463E+03  4.36547E+03  3.32578E+03 -1.74069E+03  6.62213E+03
 -7.93411E+03  3.71752E+03 -9.22326E+03 -4.44250E+03 -5.37214E+03 -1.04372E+04  1.70878E+03 -1.07032E+04
  6.47182E+03 -6.54146E+03  7.85920E+03 -8.67068E+02  6.24343E+03  3.11894E+03  8.89015E+02  5.22009E+03
 -3.36025E+03  1.74103E+03 -4.80616E+03 -3.79430E+03  1.93927E+03 -8.68755E+03  9.67735E+03 -6.36656E+03
  1.26325E+04  6.09658E+02  1.13302E+04  8.75051E+03  3.55633E+03  1.28509E+04 -4.29461E+03  1.22293E+04
 -1.03248E+04  5.43327E+03 -1.07053E+04 -1.57271E+03 -6.26614E+03 -8.36414E+03  2.08973E+03 -7.76490E+03
  7.68794E+03 -3.84370E+03  6.92242E+03  3.50704E+03  2.86782E+03  7.17345E+03 -1.19250E+03  6.40136E+03
 -3.02131E+03  4.29714E+03 -2.81745E+03  1.57503E+03 -1.05436E+03  1.18722E+03 -1.94400E+03  2.46312E+03
 -3.23103E+03  4.84061E+03 -8.65085E+03  4.36746E+03 -1.28630E+04  3.67671E+02 -1.42140E+04 -8.65015E+03
 -7.06372E+03 -1.70469E+04  3.50460E+03 -2.00386E+04  1.23427E+04 -1.52198E+04  1.84888E+04 -5.51084E+03
  1.71593E+04  3.99097E+03  1.06138E+04  1.16424E+04  1.02733E+03  1.32189E+04 -5.12901E+03  9.86500E+03
 -7.31984E+03  3.81870E+03 -4.80498E+03 -1.35983E+03 -1.69192E+03 -1.45380E+03 -3.11930E+02 -5.73494E+02
 -2.05015E+03  1.68344E+02 -2.60231E+03 -8.32298E+02 -1.48049E+03 -3.40249E+03  8.16105E+02 -5.12648E+03
  5.97417E+03 -4.62009E+03  8.60782E+03 -3.82988E+01  9.45099E+03  7.38395E+03  3.32288E+03  1.37891E+04
 -6.54814E+03  1.50749E+04 -1.43464E+04  9.02520E+03 -1.67638E+04 -1.26782E+03 -1.22392E+04 -9.76870E+03
 -4.98453E+03 -1.46230E+04  3.22444E+03 -1.27131E+04  9.30350E+03 -6.60122E+03  8.89611E+03  2.82087E+02
  4.78249E+03  4.35049E+03 -1.20459E+03  3.92320E+03 -2.09143E+03 -6.57487E+02  6.80723E+01 -3.16540E+03
  3.66280E+03 -1.79766E+03  5.67879E+03  1.81451E+03  3.52984E+03  5.32274E+03  1.06833E+02  7.17568E+03
 -5.89486E+03  6.72173E+03 -9.30260E+03  7.10467E+02 -8.57489E+03 -6.71806E+03 -1.65517E+03 -1.16973E+04
  6.19670E+03 -9.84909E+03  1.11069E+04 -3.52729E+03  1.10027E+04  2.36584E+03  6.38848E+03  8.50948E+03
  9.04450E+02  9.12313E+03 -3.90374E+03  7.63493E+03 -5.97172E+03  4.15642E+03 -5.04353E+03  7.08547E+02
 -2.71756E+03  3.06614E+01 -2.18658E+03  6.38539E+02 -5.18308E+03  1.74702E+03 -6.64089E+03 -1.03983E+03
 -6.36888E+03 -5.28163E+03 -2.51535E+03 -9.27377E+03  3.80301E+03 -9.93936E+03  8.54022E+03 -4.59673E+03
  9.44014E+03  1.22945E+03  5.46497E+03  6.61339E+03 -5.84312E+02  9.25730E+03 -7.23506E+03  5.67948E+03
