 $NMID ID='MM_0lb_SNR800_20hz_g55_27.RAW', FMTDAT='(8E13.5)'
 TRAMP=1., VOLUME=1. $END
  3.10044E+05  3.51848E+02  3.37420E+05  2.50509E+05  8.46885E+04  3.37504E+05 -1.32579E+05  2.50304E+05
 -1.90185E+05  8.23263E+04 -1.11088E+05 -3.26629E+04  1.39564E+03 -5.04956E+04  5.37016E+04  2.20965E+02
  3.50818E+04  5.28544E+04 -1.70812E+04  7.48596E+04 -6.05586E+04  6.27580E+04 -8.31401E+04  3.16938E+04
 -7.98561E+04 -1.09578E+04 -5.64561E+04 -5.03402E+04 -1.51485E+04 -6.81121E+04  2.70323E+04 -4.50373E+04
  3.92300E+04  3.85709E+03  1.58686E+04  4.70538E+04 -3.37554E+04  4.63771E+04 -6.56805E+04 -5.97996E+02
 -5.22579E+04 -5.60227E+04 -6.39479E+03 -7.56636E+04  3.32598E+04 -5.33070E+04  4.66055E+04 -1.61095E+04
  4.20352E+04  1.08059E+04  3.05951E+04  2.44808E+04  1.58801E+04  2.84079E+04 -4.68654E+03  2.69152E+04
 -2.15667E+04  1.30174E+04 -1.89413E+04 -4.17927E+03  4.57799E+03 -7.41917E+03  2.12813E+04  1.10643E+04
  7.20424E+03  3.33126E+04 -3.07138E+04  3.40771E+04 -6.13154E+04  2.18893E+03 -5.54329E+04 -4.14450E+04
 -1.25159E+04 -6.08687E+04  3.82342E+04 -4.35236E+04  5.56190E+04 -2.02713E+03  3.17726E+04  3.06419E+04
 -6.64903E+03  3.34172E+04 -2.83190E+04  1.35584E+04 -2.78356E+04 -5.59165E+03 -1.46583E+04 -1.02180E+04
 -7.67132E+03 -1.14403E+04 -1.35313E+03 -1.68209E+04  6.74585E+03 -2.24625E+04  1.47513E+04 -1.39966E+04
  1.22186E+04  4.42685E+03 -6.09739E+03  1.30028E+04 -1.94216E+04 -2.47374E+03 -8.25864E+03 -3.06578E+04
  2.09997E+04 -4.06273E+04  4.48575E+04 -1.88843E+04  4.20166E+04  1.83779E+04  1.40956E+04  4.17114E+04
 -1.54927E+04  3.12409E+04 -2.32877E+04  1.03701E+03 -8.24623E+03 -2.65905E+04  2.04095E+04 -3.13582E+04
  3.79963E+04 -7.42651E+03  3.15381E+04  2.26811E+04  1.52946E+04  4.23917E+04 -7.46107E+03  4.52789E+04
 -2.86084E+04  3.02179E+04 -3.73989E+04  8.55982E+03 -3.85566E+04 -1.49932E+04 -2.15354E+04 -3.46879E+04
  6.94710E+03 -3.43093E+04  2.90502E+04 -1.25619E+04  2.70993E+04  1.05410E+04  3.10174E+03  1.76051E+04
 -1.30993E+04  7.25411E+03 -9.67524E+03 -7.82471E+03  6.09004E+03 -1.01195E+04  1.75870E+04  6.41636E+03
  1.23054E+04  2.15148E+04 -6.63699E+03  2.31819E+04 -2.12949E+04  8.99567E+03 -2.49929E+04 -6.28357E+03
 -1.69064E+04 -1.66100E+04 -5.62556E+03 -1.65103E+04  4.05409E+03 -1.47600E+04  1.25089E+04 -1.41928E+04
  2.12858E+04 -1.16802E+04  2.79446E+04  1.15071E+03  2.11633E+04  1.61183E+04  3.98226E+03  3.21610E+04
 -1.62225E+04  2.75706E+04 -2.58260E+04  9.41866E+03 -1.95210E+04 -1.03279E+04 -4.33608E+03 -1.40549E+04
  2.66062E+03 -4.38916E+03 -2.72245E+03  5.22602E+03 -1.27889E+04  5.34601E+03 -1.30932E+04 -4.69991E+03
 -8.67304E+03 -1.54300E+04  4.52870E+03 -1.90513E+04  1.25728E+04 -1.38761E+04  1.43764E+04 -1.54638E+03
  8.59084E+03  1.07198E+04 -9.32026E+02  1.52718E+04 -9.99319E+03  8.57259E+03 -1.53381E+04 -3.44634E+03
 -1.12886E+04 -1.36585E+04 -1.35029E+03 -1.88583E+04  8.50889E+03 -1.49541E+04  1.62045E+04 -7.20324E+03
  1.43191E+04  5.67503E+02  1.03563E+04  3.77645E+03  5.14605E+03  3.95293E+02  7.44416E+03 -1.15698E+03
  1.35392E+04  2.77253E+03  1.44560E+04  1.23860E+04  8.65436E+03  2.42660E+04 -2.98192E+03  2.58759E+04
 -1.51765E+04  1.95868E+04 -2.39096E+04  9.26834E+03 -2.42518E+04 -1.89555E+03 -2.06987E+04 -1.36884E+04
 -1.00658E+04 -1.94287E+04  6.37376E+03 -1.84922E+04  1.63003E+04 -1.05650E+04  1.52446E+04  3.58236E+03
  6.41814E+03  1.07952E+04 -6.65750E+03  1.02645E+04 -1.31578E+04  2.71914E+03 -1.01539E+04 -7.50322E+03
 -1.32364E+02 -1.20987E+04  5.81643E+03 -9.30554E+03  7.60063E+03 -1.41908E+03  1.28430E+03  4.53523E+03
 -5.28546E+03  1.24398E+03 -3.54334E+03 -4.45395E+03  7.02071E+02 -9.86911E+03  7.81799E+03 -9.48633E+03
  1.14540E+04 -4.36408E+03  1.12477E+04  2.63676E+03  9.85889E+03  8.98894E+03  4.70685E+03  1.31765E+04
 -1.47951E+03  1.53184E+04 -9.13736E+03  9.58014E+03 -1.08491E+04  2.87151E+03 -8.11368E+03 -1.62227E+03
 -4.34556E+03 -2.87865E+03 -9.24524E+02  1.51909E+03 -1.96619E+03  1.86508E+03 -3.12498E+03  3.51066E+03
 -7.72498E+03 -5.78318E+02 -8.48422E+03 -7.05013E+03 -3.29481E+03 -1.12495E+04  3.34576E+03 -8.04370E+03
  6.68802E+03 -3.95222E+03  5.22561E+03  1.93664E+03  7.79046E+02  2.86601E+03 -3.01523E+03 -3.14099E+02
 -3.12034E+03 -5.03096E+03 -6.47334E+02 -6.71039E+03  3.45433E+03 -7.51510E+03  9.49578E+03 -3.77272E+03
  1.07272E+04  4.64157E+02  8.44193E+03  5.89315E+03  1.29841E+03  8.11464E+03 -5.18876E+03  7.86153E+03
 -6.38787E+03  2.77390E+03 -3.20561E+03 -1.05815E+03  1.14393E+03 -1.76004E+03  4.46097E+03 -1.15277E+03
  3.86375E+03  2.87587E+03  1.17350E+03  5.89694E+03 -4.16005E+03  6.10816E+03 -7.52216E+03  1.56638E+03
 -4.70640E+03 -3.20009E+03  4.35141E+02 -6.34256E+03  3.40852E+03 -3.17486E+03  3.36174E+03  9.68362E+02
  2.79532E+02  3.07111E+03 -3.80673E+03  4.28987E+03 -4.35454E+03  1.96479E+03 -3.69753E+03 -1.07788E+03
 -2.41043E+03 -5.28709E+03  1.01355E+03 -6.28265E+03  5.33719E+03 -4.26671E+03  5.86237E+03  7.63447E+02
  4.39163E+03  4.69910E+03  3.58007E+02  6.89830E+03 -4.36582E+03  3.92210E+03 -4.84837E+03 -3.68925E+02
 -5.48802E+03 -5.00648E+03 -1.16053E+03 -4.76136E+03  2.60963E+03 -4.41733E+03  2.44810E+03 -2.80385E+03
  2.58965E+03  3.65173E+02 -1.11757E+02  1.37809E+03  6.59574E+02 -4.20421E+00 -3.50738E+01 -1.19490E+03
  3.06643E+03 -6.73104E+02  4.57943E+03  8.30983E+02  5.01601E+03  2.51058E+03  4.71438E+03  6.09788E+03
 -9.11692E+02  7.44260E+03 -6.94143E+03  5.79494E+03 -8.51247E+03  1.07613E+03 -6.85976E+03 -2.25195E+03
 -3.84790E+03 -5.60030E+03 -4.00134E+02 -4.56493E+03  1.83733E+03 -1.55706E+03  1.31926E+03 -1.98572E+03
  1.31694E+03 -1.46154E+03  1.97020E+03 -2.23825E+03  3.41208E+03 -1.16398E+03  3.11970E+03  4.67465E+02
  3.99760E+03  1.17976E+03  6.28659E+02  3.20158E+03 -1.40277E+03  2.21205E+03 -4.05711E+03  2.01600E+03
 -4.12538E+03 -9.30134E+02 -1.17176E+03 -2.85691E+03  7.71574E+02 -4.27037E+03  2.68886E+03 -4.34566E+03
  4.25240E+03 -2.65118E+03  5.75384E+03 -1.21543E+02  4.38472E+03  3.50712E+03  1.03781E+03  5.47257E+03
 -1.74498E+03  5.33005E+03 -2.74749E+03  1.60971E+03 -1.75609E+03 -1.09446E+03 -1.82258E+02 -3.78134E+02
 -3.08412E+02  2.22954E+02 -8.93468E+02  2.11548E+03 -2.29990E+03  9.29257E+02 -3.71497E+03 -3.17343E+02
 -1.19824E+03 -3.61845E+03  8.94314E+02 -4.03549E+03  2.25818E+03 -3.70148E+03  2.73679E+03 -9.66738E+02
  3.30056E+03  2.04591E+03  1.37700E+03  2.55229E+03 -6.55194E+02  3.46809E+03 -1.80663E+03  2.14544E+03
 -2.90861E+03  5.19018E+02 -2.76362E+03 -1.85076E+03  1.51449E+02 -2.52694E+03  1.31469E+03 -1.77983E+03
  2.46921E+03 -1.24295E+03  1.65566E+03  3.11991E+02  3.00023E+02  1.54834E+03  9.48939E+02  5.12750E+02
  1.62822E+03  5.86673E+02  1.15833E+03  9.63076E+02  9.97024E+02  1.98232E+03  1.01926E+03  1.33301E+03
 -1.04656E+03  2.19745E+03 -2.17251E+03  3.70226E+03 -2.32284E+03  9.59443E+02 -3.42722E+03 -4.24577E+01
 -1.24367E+03 -2.70198E+03  6.26451E+02 -3.72406E+03  1.31038E+03 -1.98808E+03  2.35151E+03 -8.27484E+02
  1.90571E+03  1.47936E+03  5.28287E+02  1.58541E+03 -4.20212E+02  8.11182E+02 -7.13689E+02 -2.92084E+02
 -3.97906E+02 -1.06109E+03  1.14394E+03 -1.17608E+03  1.14331E+03 -7.14593E+02  1.10189E+03  4.31523E+02
  2.97705E+02  1.50800E+02  8.87033E+02 -5.63621E+02 -1.03548E+02  6.20070E+02  1.72966E+03 -1.48787E+02
 -2.47168E+02 -5.47989E+01  1.29054E+03  6.29969E+02 -1.93646E+02  1.66080E+03 -1.33840E+02  2.15718E+03
 -1.16739E+03  6.74513E+02 -1.34101E+03  2.36740E+02 -1.79024E+03 -2.89235E+02 -2.33259E+02 -5.24265E+02
  4.39341E+02 -9.11423E+02  6.89510E+02 -6.79747E+02  5.67291E+02  1.09081E+03 -3.22814E+02  7.48486E+02
 -1.44028E+03  7.25850E+02 -8.39284E+02 -1.25961E+03 -4.30176E+02 -1.78784E+03  4.97479E+01 -1.25196E+03
  1.65811E+02 -4.52689E+02  3.19952E+02  8.55173E+01  9.55956E+02 -3.30118E+02  1.30180E+02  5.84682E+02
 -3.72493E+02 -7.30431E+00 -8.17397E+02 -1.53179E+02  3.45176E+02 -3.65615E+02  1.35238E+03 -8.19982E+02
  7.72132E+02  1.43469E+02  2.22804E+03  5.45397E+02  9.34188E+02  1.09721E+03  9.35967E+00  1.28976E+03
 -1.27875E+03 -7.84487E+01 -9.10767E+02 -6.73002E+01 -3.21984E+02 -8.96969E+02  5.26573E+01 -3.12865E+02
  1.13502E+03 -4.58039E+02  3.08675E+02  6.64162E+02 -8.79818E+01  1.00184E+03  4.38156E+02  1.13832E+03
 -2.95100E+02  1.22679E+03 -4.16339E+02  1.79973E+02 -2.99222E+01  3.09378E+02 -7.72772E+02  2.56318E+02
 -6.29440E+02  8.03363E+02 -1.48643E+03  1.33852E+02 -1.02544E+03  1.36755E+02 -1.83268E+03 -5.23435E+02
 -8.87750E+02 -1.91003E+03  5.38945E+02 -1.79114E+03  4.63224E+02 -1.90601E+03  1.96752E+03 -9.40315E+02
  1.52629E+03 -2.90716E+02  5.68153E+02  1.18220E+03 -5.28138E+02  8.81668E+02 -4.52496E+02  1.00578E+03
 -7.37320E+02  8.19147E+02 -2.75526E+02 -3.60441E+02 -4.88466E+02  5.93015E+02 -4.60064E+02  1.08852E+02
 -1.06176E+03 -9.29576E+01 -5.61881E+02 -6.83254E+01  2.63414E+02 -3.80016E+02 -3.57421E+02 -8.50790E+02
  1.16217E+03 -5.51659E+02 -1.42162E+01 -3.37074E+01  8.08933E+02  5.13076E+02 -7.37315E+02  8.43330E+02
 -6.23029E+02  1.54157E+03 -9.93122E+02  8.81980E+02 -1.13046E+03 -9.07200E+01 -6.61789E+02 -8.82158E+02
 -6.65338E+02 -1.09454E+03 -8.89304E+00 -6.52926E+02  5.89967E+02 -3.68617E+02  6.56554E+02  1.76715E+02
  6.49733E+02  2.64471E+02  2.75600E+02  3.45506E+02 -4.14833E+02  5.59002E+01 -2.67534E+02 -2.40954E+02
  2.89188E+02  3.55590E+02  1.55763E+01  8.72764E+01 -7.11738E+01  3.77122E+02  5.62770E+02 -9.10320E+01
 -3.72093E+02  3.90708E+02 -1.26171E+02  5.71123E+01 -4.40501E+02 -1.40232E+02  3.79510E+02 -6.82111E+02
  3.00966E+02 -2.21800E+02  1.62890E+02 -4.64137E+01  7.36113E+02 -6.56631E+02  2.76724E+02  4.70682E+02
  1.89947E+02 -2.50765E+01 -2.38951E+02  1.15228E+02 -4.62741E+02  2.84925E+02 -3.30232E+02  7.96681E+01
 -1.24458E+02  2.20078E+02 -3.36072E+02  1.19353E+02 -2.17296E+02  3.43863E+02 -5.66543E+02 -5.56585E+02
 -8.17732E+02  5.49041E+02 -3.84139E+01 -7.46291E+02  3.64266E+02 -1.43546E+03  2.06772E+02  2.16755E+02
  6.18569E+02 -1.50034E+02 -4.82106E+02  1.78641E+01 -3.63200E+02  4.05112E+02 -8.09440E+00  4.88976E+02
