 $NMID ID='MM_0lb_SNR800_18hz_g55_61.RAW', FMTDAT='(8E13.5)'
 TRAMP=1., VOLUME=1. $END
  3.09930E+05  2.52072E+02  3.37469E+05  2.50633E+05  8.44526E+04  3.37794E+05 -1.32555E+05  2.50551E+05
 -1.90140E+05  8.27635E+04 -1.11505E+05 -3.28282E+04  1.06854E+03 -5.05896E+04  5.40848E+04  1.28508E+02
  3.53963E+04  5.26623E+04 -1.70445E+04  7.49184E+04 -6.07355E+04  6.31417E+04 -8.36379E+04  3.20229E+04
 -8.03670E+04 -1.14422E+04 -5.71097E+04 -5.09188E+04 -1.48893E+04 -6.89764E+04  2.68321E+04 -4.50596E+04
  3.95520E+04  3.72761E+03  1.58803E+04  4.72350E+04 -3.41134E+04  4.66636E+04 -6.62061E+04 -5.20285E+02
 -5.27459E+04 -5.63139E+04 -6.41586E+03 -7.60653E+04  3.35087E+04 -5.39341E+04  4.69785E+04 -1.68471E+04
  4.23093E+04  1.13780E+04  3.11451E+04  2.48793E+04  1.54691E+04  2.87504E+04 -4.83810E+03  2.70068E+04
 -2.22134E+04  1.24375E+04 -1.87214E+04 -4.71678E+03  4.93095E+03 -7.23052E+03  2.15616E+04  1.13723E+04
  7.20103E+03  3.42474E+04 -3.14801E+04  3.48132E+04 -6.20214E+04  2.20274E+03 -5.60406E+04 -4.20080E+04
 -1.24751E+04 -6.18269E+04  3.88603E+04 -4.39718E+04  5.68903E+04 -2.04967E+03  3.25958E+04  3.15419E+04
 -6.33253E+03  3.43302E+04 -2.90491E+04  1.44356E+04 -2.89919E+04 -4.76735E+03 -1.56834E+04 -1.05857E+04
 -7.80276E+03 -1.24937E+04 -9.98750E+02 -1.72927E+04  6.93296E+03 -2.27726E+04  1.51650E+04 -1.37726E+04
  1.16685E+04  4.76459E+03 -7.15992E+03  1.30967E+04 -2.01268E+04 -3.30387E+03 -8.31179E+03 -3.19382E+04
  2.17745E+04 -4.16972E+04  4.61536E+04 -1.88413E+04  4.31420E+04  1.87901E+04  1.47403E+04  4.28114E+04
 -1.56937E+04  3.19517E+04 -2.40526E+04  1.45017E+03 -8.90686E+03 -2.69208E+04  2.05117E+04 -3.22688E+04
  3.91592E+04 -8.09041E+03  3.31405E+04  2.30852E+04  1.63732E+04  4.40978E+04 -7.65695E+03  4.73235E+04
 -3.00487E+04  3.16119E+04 -3.90762E+04  8.74685E+03 -4.01720E+04 -1.56021E+04 -2.20453E+04 -3.57257E+04
  7.04996E+03 -3.55556E+04  3.01820E+04 -1.35352E+04  2.75011E+04  1.07114E+04  3.54600E+03  1.82613E+04
 -1.32317E+04  7.41894E+03 -1.01447E+04 -7.59328E+03  5.94308E+03 -1.03455E+04  1.78082E+04  6.25006E+03
  1.26596E+04  2.19618E+04 -6.51713E+03  2.38937E+04 -2.16290E+04  1.01004E+04 -2.62029E+04 -5.56324E+03
 -1.79332E+04 -1.68908E+04 -6.86208E+03 -1.83778E+04  3.62943E+03 -1.63647E+04  1.35098E+04 -1.59163E+04
  2.27975E+04 -1.18407E+04  3.00402E+04  1.77173E+03  2.22156E+04  1.74056E+04  4.23269E+03  3.37248E+04
 -1.68631E+04  2.87812E+04 -2.67891E+04  9.91479E+03 -2.00655E+04 -1.02361E+04 -4.09307E+03 -1.38363E+04
  2.31013E+03 -3.76042E+03 -3.44639E+03  5.98127E+03 -1.39866E+04  5.32438E+03 -1.41904E+04 -5.64926E+03
 -9.10225E+03 -1.64963E+04  4.74943E+03 -2.07690E+04  1.33460E+04 -1.49332E+04  1.58415E+04 -1.04906E+03
  9.75656E+03  1.18638E+04 -9.90709E+02  1.67248E+04 -1.13131E+04  9.68454E+03 -1.66821E+04 -3.53324E+03
 -1.24400E+04 -1.52130E+04 -1.31893E+03 -2.02796E+04  9.35376E+03 -1.63276E+04  1.70125E+04 -7.81998E+03
  1.52515E+04  9.75389E+02  1.09397E+04  4.09488E+03  5.83548E+03  8.93716E+02  8.32261E+03 -1.29526E+03
  1.53451E+04  2.86153E+03  1.63551E+04  1.36263E+04  1.02095E+04  2.64554E+04 -3.24360E+03  2.88712E+04
 -1.71927E+04  2.24407E+04 -2.66760E+04  1.08161E+04 -2.71260E+04 -2.01553E+03 -2.30692E+04 -1.58255E+04
 -1.05425E+04 -2.23481E+04  7.35893E+03 -2.05636E+04  1.79662E+04 -1.17060E+04  1.64422E+04  4.11552E+03
  6.54847E+03  1.20516E+04 -7.83161E+03  1.11772E+04 -1.44946E+04  2.83795E+03 -1.09363E+04 -8.58595E+03
 -1.07043E+02 -1.32395E+04  6.64216E+03 -1.02631E+04  8.51306E+03 -1.69081E+03  1.76689E+03  5.36625E+03
 -5.93009E+03  1.56766E+03 -4.39087E+03 -4.97674E+03  3.09468E+02 -1.11427E+04  8.17140E+03 -1.11625E+04
  1.36665E+04 -5.70485E+03  1.33304E+04  2.86611E+03  1.14415E+04  1.04220E+04  5.90159E+03  1.57705E+04
 -2.24853E+03  1.74586E+04 -1.07039E+04  1.14200E+04 -1.26367E+04  3.02401E+03 -9.02388E+03 -2.09639E+03
 -4.80419E+03 -3.87236E+03 -8.34587E+02  1.62748E+03 -1.94533E+03  2.02890E+03 -3.91394E+03  3.86771E+03
 -8.69162E+03 -4.69712E+02 -9.27569E+03 -7.68629E+03 -3.89927E+03 -1.24020E+04  3.57401E+03 -9.22691E+03
  7.54427E+03 -4.28083E+03  5.18378E+03  2.04823E+03  6.50489E+02  3.24523E+03 -3.87080E+03 -2.58252E+02
 -3.56992E+03 -5.68551E+03 -9.71957E+02 -8.07800E+03  4.34097E+03 -8.65747E+03  1.08575E+04 -4.52161E+03
  1.30136E+04  6.10690E+02  9.34095E+03  6.40015E+03  1.73479E+03  9.50386E+03 -5.45045E+03  8.84550E+03
 -7.25780E+03  2.86027E+03 -3.82338E+03 -1.41731E+03  1.19592E+03 -2.12179E+03  5.04281E+03 -9.17301E+02
  4.42271E+03  3.47745E+03  1.15105E+03  7.10380E+03 -4.62992E+03  6.47614E+03 -8.44275E+03  1.97280E+03
 -5.54031E+03 -4.04679E+03  2.32752E+01 -7.10455E+03  3.85380E+03 -3.75018E+03  3.99746E+03  9.35335E+02
  6.15029E+02  4.19197E+03 -4.24016E+03  5.17078E+03 -5.55845E+03  2.37538E+03 -5.15289E+03 -1.57480E+03
 -3.45273E+03 -6.71658E+03  1.30801E+03 -7.89877E+03  6.68790E+03 -5.18875E+03  7.35175E+03  9.47056E+02
  4.79320E+03  5.78309E+03  9.79101E+01  7.95426E+03 -5.89584E+03  4.54735E+03 -5.78833E+03 -3.84347E+02
 -5.95404E+03 -5.85521E+03 -1.25794E+03 -5.38054E+03  2.70344E+03 -4.98569E+03  2.86093E+03 -2.75182E+03
  2.85475E+03  5.13122E+02 -2.10289E+02  1.44861E+03  4.77668E+02 -8.70986E+02  5.05611E+02 -1.89352E+03
  4.26851E+03 -1.05611E+03  6.15996E+03  7.26048E+02  6.54677E+03  3.55537E+03  5.59645E+03  8.21917E+03
 -1.68200E+03  9.47746E+03 -8.51249E+03  6.88808E+03 -1.10319E+04  1.43402E+03 -8.68946E+03 -2.84946E+03
 -4.53879E+03 -7.11069E+03 -4.55353E+02 -5.72333E+03  2.56633E+03 -2.20547E+03  2.10215E+03 -2.28859E+03
  1.58196E+03 -1.53685E+03  2.08008E+03 -2.27340E+03  3.84094E+03 -1.47964E+03  3.95350E+03  3.34638E+02
  4.91741E+03  1.51817E+03  1.04282E+03  3.84793E+03 -1.74101E+03  3.32485E+03 -4.66712E+03  3.23070E+03
 -5.24843E+03 -1.11631E+03 -2.17124E+03 -3.43562E+03  2.08219E+02 -5.38907E+03  3.74064E+03 -6.01252E+03
  5.65767E+03 -3.60564E+03  7.18757E+03  3.88098E+02  5.39215E+03  4.57835E+03  1.22584E+03  6.49668E+03
 -2.64688E+03  6.10696E+03 -3.87587E+03  2.15212E+03 -2.02152E+03 -1.20947E+03 -5.18557E+02 -8.11275E+02
 -5.57135E+02  6.44057E+02 -9.55742E+02  1.97635E+03 -2.61598E+03  1.38362E+03 -4.26403E+03 -2.39399E+02
 -1.89717E+03 -4.46982E+03  9.26781E+02 -4.90139E+03  2.91403E+03 -5.12367E+03  3.65972E+03 -1.31638E+03
  4.78532E+03  2.62280E+03  1.96439E+03  3.75963E+03 -7.39106E+02  4.96893E+03 -2.97858E+03  2.97981E+03
 -4.44295E+03  7.09324E+02 -3.43730E+03 -2.75078E+03 -3.19230E+02 -3.67943E+03  1.47475E+03 -2.59130E+03
  2.82989E+03 -1.31617E+03  2.19139E+03  6.78102E+02  5.65194E+02  1.46122E+03  7.48029E+02  4.11002E+02
  1.85460E+03  7.16595E+02  1.30709E+03  1.23613E+03  1.28021E+03  2.47488E+03  1.37204E+03  2.16581E+03
 -1.39809E+03  3.04674E+03 -2.66910E+03  4.18629E+03 -3.14136E+03  1.61738E+03 -4.65331E+03 -7.36197E+02
 -1.74467E+03 -4.32591E+03  8.52573E+02 -5.30319E+03  2.14336E+03 -2.92648E+03  3.61033E+03 -1.12568E+03
  2.73771E+03  1.87733E+03  3.40172E+02  2.58484E+03 -5.97980E+02  1.49953E+03 -1.13319E+03  1.01555E+02
 -3.87971E+02 -1.61899E+03  1.22864E+03 -1.64439E+03  1.60934E+03 -1.16666E+03  1.46951E+03  2.04151E+02
  8.26597E+02  1.39290E+02  8.04967E+02 -3.32234E+02 -2.25668E+02  8.59533E+02  1.52668E+03 -3.19908E+02
  3.40404E+02 -1.59683E+02  2.00599E+03  7.97497E+02  6.24077E+02  2.46256E+03 -7.61376E+02  2.93122E+03
 -1.81777E+03  1.15349E+03 -2.07677E+03  2.95899E+02 -2.68707E+03 -4.28452E+02 -3.19913E+01 -1.07768E+03
  1.95916E+02 -1.58194E+03  9.59585E+02 -7.47628E+02  9.42998E+02  1.00711E+03 -8.40891E+02  1.45262E+03
 -1.81673E+03  8.31270E+02 -1.50789E+03 -1.21426E+03 -7.72052E+02 -2.51988E+03  5.26600E+01 -1.71339E+03
  6.41883E+02 -9.39753E+02  8.01482E+02  4.07200E+02  1.28118E+03  1.27141E+02  5.98408E+02  1.23063E+03
 -2.49574E+02  7.83181E+01 -7.21467E+02 -4.42748E+02  7.41893E+02 -8.31978E+02  1.57741E+03 -1.15483E+03
  1.15754E+03  7.28171E+01  2.96956E+03  8.20667E+02  9.17741E+02  1.50117E+03 -5.30417E+02  2.14694E+03
 -1.47105E+03  2.89002E+02 -1.38220E+03 -2.08528E+02 -9.84984E+02 -1.36064E+03  3.87999E+02 -7.75910E+02
  1.33063E+03 -9.03978E+02  6.36387E+02  3.89920E+02  2.77181E+02  1.27029E+03  3.58769E+02  1.11549E+03
 -2.90026E+02  1.02579E+03 -3.78751E+02  5.37640E+02  1.35487E+02  6.10539E+02 -9.41488E+02  8.52521E+02
 -6.63026E+02  1.02445E+03 -2.30913E+03  7.88323E+02 -2.01462E+03  3.11159E+01 -2.58739E+03 -1.05881E+03
 -1.06743E+03 -2.65679E+03  6.98397E+02 -2.75619E+03  1.24104E+03 -2.82280E+03  2.87279E+03 -7.95158E+02
  2.55941E+03 -3.05325E+01  1.21515E+03  1.59536E+03 -4.39609E+02  1.85730E+03 -5.40519E+02  1.28961E+03
 -1.28906E+03  5.18941E+02 -5.82558E+02 -2.49620E+02 -3.18297E+02  2.56288E+02 -5.46398E+02 -5.31028E+01
 -8.85433E+02  2.53247E+01 -7.13658E+02  1.37712E+02  2.68308E+02 -7.25597E+02 -4.50315E+02 -5.24727E+02
  1.33235E+03 -6.50954E+02  3.92951E+02  1.33582E+02  1.14449E+03  1.18979E+03 -4.14005E+02  1.64840E+03
 -8.50622E+02  2.33183E+03 -1.64624E+03  1.30000E+03 -1.83314E+03 -4.46501E+02 -1.27078E+03 -1.46020E+03
 -8.31794E+02 -1.18427E+03  5.07764E+02 -1.49943E+03  9.41476E+02 -4.61306E+02  7.91540E+02  1.73744E+02
  8.70937E+02  2.67890E+01  8.90960E+01  4.13173E+02 -6.91609E+01  1.12462E+02 -7.35666E+01 -5.16458E+02
  2.99825E+02  3.62299E+01  4.71788E+02  5.64756E+02  5.36765E+01  5.98403E+02  4.85249E+02  2.36186E+02
 -5.95934E+02  7.43002E+02 -8.45622E+02 -8.52212E+01 -8.83411E+02 -6.57293E+02 -9.99958E+01 -1.31875E+03
  4.76848E+02 -8.75156E+02  4.87996E+02  2.54538E+02  1.10291E+03 -4.46751E+02  6.89181E+02  8.03994E+02
  6.26002E+02  6.19377E+02 -1.12590E+02  9.01350E+02 -5.54737E+02  6.93055E+02 -2.17121E+02  9.79405E+01
  6.24770E+01  1.30156E+02 -4.48208E+02 -8.00230E+01 -5.71754E+02  2.70799E+02 -8.20555E+02 -2.85462E+02
 -8.64895E+02  2.58201E+02 -3.92689E+02 -6.53939E+02  8.12565E+02 -1.67262E+03  7.51211E+02 -3.41465E+02
  4.65902E+02 -8.25138E+01 -1.58339E+02  4.03269E+02 -2.39913E+02  9.04044E+02 -4.25343E+02  5.83844E+02
