 $NMID ID='MM_0lb_SNR800_10hz_g50_49.RAW', FMTDAT='(8E13.5)'
 TRAMP=1., VOLUME=1. $END
  3.09921E+05  3.85011E+02  3.37311E+05  2.50952E+05  8.47300E+04  3.38197E+05 -1.32747E+05  2.51678E+05
 -1.91232E+05  8.39404E+04 -1.12588E+05 -3.21956E+04  2.19041E+02 -5.04066E+04  5.32641E+04 -4.95060E+02
  3.56181E+04  5.30128E+04 -1.67241E+04  7.57487E+04 -6.10747E+04  6.42030E+04 -8.47269E+04  3.26197E+04
 -8.20411E+04 -1.16239E+04 -5.82483E+04 -5.22475E+04 -1.52764E+04 -7.05117E+04  2.80222E+04 -4.66020E+04
  4.08302E+04  3.81260E+03  1.65752E+04  4.87538E+04 -3.44626E+04  4.80184E+04 -6.78403E+04 -4.31937E+01
 -5.49182E+04 -5.72801E+04 -7.28668E+03 -7.84533E+04  3.48378E+04 -5.68023E+04  4.95115E+04 -1.79604E+04
  4.50100E+04  1.13621E+04  3.29425E+04  2.64473E+04  1.57530E+04  3.01423E+04 -6.16450E+03  2.75841E+04
 -2.25104E+04  1.23144E+04 -1.82230E+04 -5.62004E+03  6.96193E+03 -7.68722E+03  2.28243E+04  1.30623E+04
  7.23883E+03  3.69712E+04 -3.35537E+04  3.61809E+04 -6.54088E+04  1.59740E+03 -5.83257E+04 -4.45442E+04
 -1.30344E+04 -6.56404E+04  4.09310E+04 -4.69371E+04  6.06295E+04 -2.33970E+03  3.58105E+04  3.38836E+04
 -5.67537E+03  3.88705E+04 -3.13770E+04  1.81726E+04 -3.28243E+04 -3.84120E+03 -1.89792E+04 -1.18226E+04
 -9.21643E+03 -1.46546E+04 -3.25025E+02 -1.95072E+04  8.53352E+03 -2.36333E+04  1.61524E+04 -1.26619E+04
  1.08481E+04  5.96081E+03 -1.00036E+04  1.32292E+04 -2.31112E+04 -6.34644E+03 -8.22769E+03 -3.63037E+04
  2.46864E+04 -4.65948E+04  5.12824E+04 -2.06828E+04  4.78497E+04  2.09946E+04  1.71465E+04  4.62452E+04
 -1.65668E+04  3.52779E+04 -2.74425E+04  2.39951E+03 -1.13142E+04 -2.92464E+04  2.13721E+04 -3.62074E+04
  4.37183E+04 -1.05887E+04  3.94993E+04  2.45383E+04  2.07433E+04  5.04717E+04 -7.92888E+03  5.49756E+04
 -3.49761E+04  3.75986E+04 -4.67454E+04  1.07882E+04 -4.66962E+04 -1.82870E+04 -2.55172E+04 -4.14053E+04
  7.46639E+03 -4.11696E+04  3.40466E+04 -1.66017E+04  3.14073E+04  1.09324E+04  5.07621E+03  2.06023E+04
 -1.39511E+04  9.36772E+03 -1.10933E+04 -7.75155E+03  5.77789E+03 -1.11344E+04  1.86859E+04  5.99632E+03
  1.42463E+04  2.24442E+04 -5.46000E+03  2.65482E+04 -2.33166E+04  1.34544E+04 -3.08882E+04 -3.26249E+03
 -2.41055E+04 -1.82684E+04 -1.07508E+04 -2.38802E+04  4.69208E+03 -2.43135E+04  1.92624E+04 -2.23006E+04
  3.06275E+04 -1.41927E+04  3.67204E+04  4.97737E+03  2.62302E+04  2.35960E+04  4.57910E+03  4.02880E+04
 -1.91333E+04  3.33977E+04 -3.00405E+04  1.15284E+04 -2.21118E+04 -1.02959E+04 -5.03568E+03 -1.31643E+04
  1.27339E+03 -1.72794E+03 -6.99513E+03  7.99692E+03 -1.96703E+04  5.24252E+03 -1.95958E+04 -9.41434E+03
 -1.17081E+04 -2.22089E+04  5.94717E+03 -2.71131E+04  1.78897E+04 -1.87962E+04  2.17984E+04 -1.53926E+03
  1.39363E+04  1.52518E+04 -1.37766E+03  2.24022E+04 -1.57409E+04  1.30588E+04 -2.24335E+04 -4.60285E+03
 -1.65793E+04 -2.02609E+04 -2.21928E+03 -2.68693E+04  1.23526E+04 -2.20945E+04  2.22749E+04 -1.11530E+04
  2.11900E+04  3.53468E+01  1.53714E+04  5.21588E+03  8.51544E+03  1.07476E+03  1.17468E+04 -2.33565E+03
  2.15192E+04  2.74305E+03  2.45278E+04  1.69237E+04  1.66047E+04  3.58948E+04 -2.59677E+03  4.21878E+04
 -2.40701E+04  3.49206E+04 -3.95086E+04  1.80572E+04 -4.23381E+04 -3.16197E+03 -3.46969E+04 -2.48931E+04
 -1.40526E+04 -3.49963E+04  1.25945E+04 -3.10209E+04  2.63981E+04 -1.50112E+04  2.31505E+04  7.19836E+03
  7.76099E+03  1.73239E+04 -1.09503E+04  1.50344E+04 -1.94515E+04  2.25168E+03 -1.46374E+04 -1.20832E+04
 -2.89790E+02 -1.86494E+04  9.91980E+03 -1.34782E+04  1.27515E+04 -1.39187E+03  2.78286E+03  8.40781E+03
 -8.42145E+03  3.73247E+03 -8.08200E+03 -6.48809E+03 -1.66570E+03 -1.72764E+04  1.18906E+04 -1.84775E+04
  2.15863E+04 -1.04523E+04  2.47487E+04  3.45420E+03  2.13348E+04  1.70403E+04  1.00718E+04  2.74671E+04
 -4.65485E+03  2.90303E+04 -1.87516E+04  1.80718E+04 -2.13979E+04  3.74482E+03 -1.44757E+04 -5.27798E+03
 -6.14992E+03 -6.78472E+03 -7.57256E+02  7.50578E+02 -2.80144E+03  3.36702E+03 -7.11148E+03  5.44676E+03
 -1.32243E+04 -1.01914E+03 -1.41215E+04 -1.11932E+04 -5.57640E+03 -1.79297E+04  5.87724E+03 -1.49142E+04
  1.19965E+04 -6.28471E+03  8.83038E+03  4.10940E+03 -1.79946E+01  5.70902E+03 -7.17835E+03  8.74838E+01
 -7.07875E+03 -9.78237E+03 -1.30448E+03 -1.48109E+04  8.58048E+03 -1.50841E+04  1.86045E+04 -8.11452E+03
  2.18778E+04  2.28475E+03  1.59094E+04  1.34693E+04  3.13537E+03  1.76596E+04 -9.08615E+03  1.45769E+04
 -1.20357E+04  4.34178E+03 -6.17601E+03 -2.97727E+03  2.28251E+03 -4.10767E+03  7.66783E+03 -8.91829E+02
  7.41436E+03  6.38695E+03  1.11527E+03  1.18085E+04 -8.30388E+03  1.12416E+04 -1.43678E+04  2.95978E+03
 -1.00693E+04 -7.53666E+03 -2.45065E+02 -1.25673E+04  8.05380E+03 -6.22421E+03  8.77808E+03  3.02009E+03
  1.83464E+03  8.95350E+03 -7.68202E+03  1.07406E+04 -1.25753E+04  5.08008E+03 -1.24693E+04 -4.74819E+03
 -7.48608E+03 -1.46395E+04  3.37326E+03 -1.67164E+04  1.43278E+04 -9.86448E+03  1.51823E+04  2.84374E+03
  9.06884E+03  1.22946E+04 -1.31393E+03  1.51793E+04 -1.10000E+04  8.43712E+03 -1.19159E+04 -1.19479E+03
 -1.01212E+04 -1.01315E+04 -1.50167E+03 -1.11523E+04  5.70478E+03 -9.23988E+03  7.20726E+03 -3.47197E+03
  4.57992E+03  1.90399E+03 -8.00232E+02  1.85467E+03 -6.47994E+02 -2.91675E+03  2.14778E+03 -6.60763E+03
  1.02315E+04 -4.50291E+03  1.48378E+04  1.47600E+03  1.39803E+04  9.92503E+03  9.61304E+03  1.91832E+04
 -4.39775E+03  2.15480E+04 -1.82626E+04  1.61462E+04 -2.33400E+04  2.81222E+03 -1.90557E+04 -8.07263E+03
 -9.68208E+03 -1.55044E+04 -5.43039E+02 -1.35720E+04  4.91261E+03 -7.11163E+03  4.84866E+03 -4.70172E+03
  3.30161E+03 -2.87621E+03  3.59882E+03 -3.22094E+03  5.64762E+03 -3.39918E+03  7.55363E+03 -1.35406E+03
  9.68492E+03  2.04164E+03  5.36867E+03  8.40942E+03 -2.04843E+03  1.01893E+04 -1.02603E+04  7.66726E+03
 -1.32434E+04 -1.37004E+03 -8.25997E+03 -8.94709E+03 -1.16558E+03 -1.45467E+04  7.63915E+03 -1.43026E+04
  1.50036E+04 -7.87481E+03  1.73043E+04  2.26877E+03  1.19749E+04  1.23010E+04  1.95745E+03  1.59430E+04
 -6.44594E+03  1.28030E+04 -9.23841E+03  4.55799E+03 -6.42244E+03 -1.33481E+03 -2.30816E+03 -2.36851E+03
 -1.29953E+03 -3.78812E+02 -2.39905E+03  3.04154E+03 -5.63436E+03  2.23855E+03 -9.32669E+03 -1.26072E+03
 -6.13997E+03 -8.98104E+03  1.63792E+02 -1.30935E+04  8.04900E+03 -1.24313E+04  1.29410E+04 -3.96280E+03
  1.33951E+04  5.97714E+03  6.21775E+03  1.17859E+04 -2.87030E+03  1.33447E+04 -9.59850E+03  8.16905E+03
 -1.24904E+04  2.73412E+02 -9.77780E+03 -7.73782E+03 -1.36966E+03 -1.08832E+04  5.66681E+03 -7.90342E+03
  8.17945E+03 -2.68369E+03  5.26732E+03  2.44346E+03  1.93335E+03  4.19532E+03  1.49746E+03  1.67173E+03
  2.57111E+03  1.03371E+03  3.21551E+03  1.61521E+03  4.04862E+03  4.62066E+03  3.21312E+03  7.26243E+03
 -2.45462E+03  1.03769E+04 -8.97007E+03  1.03313E+04 -1.33700E+04  2.84199E+03 -1.38949E+04 -5.69390E+03
 -6.94884E+03 -1.34467E+04  1.89472E+03 -1.49403E+04  7.84282E+03 -9.35857E+03  1.12571E+04 -2.37915E+03
  8.52144E+03  4.88513E+03  2.28406E+03  7.45532E+03 -3.78088E+03  4.57446E+03 -5.33040E+03 -9.36020E+02
 -2.55340E+03 -5.79277E+03  3.14005E+03 -5.68078E+03  5.52619E+03 -3.08192E+03  4.77137E+03  1.21580E+03
  3.47634E+03  2.57784E+03  1.21613E+03  1.86749E+03 -5.95385E+02  1.78860E+03  1.57168E+03 -7.15987E+02
  1.93211E+03 -6.94619E+02  5.51526E+03  2.33198E+03  2.50419E+03  7.21365E+03 -1.40480E+03  9.66448E+03
 -6.57231E+03  6.11355E+03 -8.58177E+03  1.99283E+03 -7.78265E+03 -2.64008E+03 -3.02214E+03 -4.94223E+03
  4.71107E+02 -5.17701E+03  3.91500E+03 -2.23420E+03  2.64720E+03  2.81770E+03 -1.16038E+03  4.86894E+03
 -5.33632E+03  2.50089E+03 -6.16754E+03 -3.25109E+03 -3.69175E+03 -6.99624E+03  8.65020E+02 -7.12970E+03
  4.25720E+03 -4.57967E+03  5.61269E+03 -5.00944E+02  4.61785E+03  1.50228E+03  6.12583E+02  3.57841E+03
 -2.58476E+03  1.58861E+03 -3.25488E+03 -2.65610E+03  8.56929E+02 -5.43314E+03  6.64381E+03 -4.53122E+03
  8.31200E+03  8.10854E+02  8.49436E+03  5.88756E+03  2.61319E+03  8.72284E+03 -3.27804E+03  8.26825E+03
 -6.89003E+03  3.30790E+03 -6.95213E+03 -1.20930E+03 -3.79824E+03 -6.03272E+03  1.75710E+03 -5.20335E+03
  5.40772E+03 -2.30462E+03  4.19209E+03  2.34802E+03  1.32299E+03  4.91766E+03 -1.02718E+03  4.22398E+03
 -2.22164E+03  3.07249E+03 -1.99075E+03  7.05105E+02 -1.19676E+03  6.50152E+02 -1.39794E+03  1.66489E+03
 -2.25813E+03  3.33340E+03 -5.65177E+03  2.96414E+03 -8.78456E+03  9.78366E+01 -9.70439E+03 -5.38027E+03
 -4.97938E+03 -1.17531E+04  2.42405E+03 -1.32878E+04  7.82595E+03 -1.04089E+04  1.24866E+04 -3.84382E+03
  1.14302E+04  3.00854E+03  7.02423E+03  8.01279E+03  7.61501E+02  8.54575E+03 -3.40468E+03  6.50945E+03
 -4.65906E+03  2.23815E+03 -3.34409E+03 -6.85951E+02 -1.03953E+03 -9.96300E+02 -5.80704E+02 -4.63747E+02
 -1.65330E+03  3.34239E+02 -1.96998E+03 -4.31922E+02 -1.11111E+02 -2.10037E+03  1.11042E+02 -3.42931E+03
  3.82562E+03 -2.80606E+03  5.26109E+03  2.27553E+02  5.94317E+03  4.77035E+03  1.57899E+03  8.69338E+03
 -4.48019E+03  1.00641E+04 -8.88417E+03  5.82334E+03 -1.04485E+04 -8.60647E+02 -7.94131E+03 -6.31797E+03
 -2.95472E+03 -8.95478E+03  2.34018E+03 -7.86762E+03  5.37936E+03 -4.42394E+03  5.64522E+03  1.23749E+02
  3.26120E+03  2.89731E+03 -5.57123E+02  2.51583E+03 -1.63406E+03 -3.27407E+01  9.23400E+01 -1.73755E+03
  2.36036E+03 -8.84678E+02  3.21095E+03  1.19442E+03  2.20696E+03  3.27945E+03  2.81046E+02  4.47942E+03
 -3.78112E+03  3.61671E+03 -5.90658E+03  6.70280E+02 -5.21034E+03 -4.26168E+03 -7.59938E+02 -7.15461E+03
  4.11619E+03 -5.82471E+03  6.96678E+03 -2.07210E+03  6.67144E+03  1.51849E+03  3.46981E+03  5.59172E+03
  7.82018E+02  5.55671E+03 -2.23178E+03  4.71497E+03 -3.42660E+03  2.49244E+03 -2.93989E+03  5.03617E+02
 -1.73497E+03 -1.53464E+02 -1.73586E+03  5.84632E+02 -3.22429E+03  1.12681E+03 -4.68579E+03 -9.74147E+02
 -4.29341E+03 -2.79999E+03 -1.41601E+03 -5.69301E+03  2.61029E+03 -6.52310E+03  5.43991E+03 -2.66435E+03
  5.63075E+03  7.69869E+02  2.55688E+03  3.77905E+03 -4.60172E+02  5.61490E+03 -4.02578E+03  4.09431E+03
