 $NMID ID='MM_0lb_SNR800_10hz_g60_1.RAW', FMTDAT='(8E13.5)'
 TRAMP=1., VOLUME=1. $END
  3.09589E+05  4.93370E+02  3.37975E+05  2.51052E+05  8.46759E+04  3.38884E+05 -1.32664E+05  2.52367E+05
 -1.90817E+05  8.38446E+04 -1.12527E+05 -3.21113E+04  2.26930E+02 -5.10251E+04  5.38895E+04 -4.82210E+02
  3.53497E+04  5.27174E+04 -1.68664E+04  7.57692E+04 -6.12116E+04  6.46741E+04 -8.59478E+04  3.26023E+04
 -8.27155E+04 -1.18486E+04 -5.78809E+04 -5.23950E+04 -1.51558E+04 -7.13138E+04  2.82107E+04 -4.67721E+04
  4.10796E+04  4.01912E+03  1.64704E+04  4.85694E+04 -3.45782E+04  4.81072E+04 -6.83472E+04  5.33203E+02
 -5.50296E+04 -5.81621E+04 -6.86207E+03 -7.89877E+04  3.55490E+04 -5.75391E+04  5.02786E+04 -1.84740E+04
  4.53149E+04  1.16195E+04  3.28950E+04  2.67854E+04  1.58993E+04  3.07765E+04 -5.83674E+03  2.79294E+04
 -2.22379E+04  1.19646E+04 -1.79155E+04 -5.58442E+03  7.08733E+03 -7.02600E+03  2.36003E+04  1.41523E+04
  7.13382E+03  3.79349E+04 -3.43218E+04  3.71881E+04 -6.61797E+04  1.94247E+03 -5.90090E+04 -4.47648E+04
 -1.25041E+04 -6.56282E+04  4.15489E+04 -4.72065E+04  6.13764E+04 -2.39651E+03  3.63831E+04  3.43404E+04
 -5.47808E+03  3.92586E+04 -3.21472E+04  1.92685E+04 -3.34209E+04 -3.23755E+03 -1.98451E+04 -1.19484E+04
 -9.45545E+03 -1.52247E+04 -7.07166E+02 -1.97776E+04  8.52410E+03 -2.34648E+04  1.59999E+04 -1.25350E+04
  1.04835E+04  6.84285E+03 -1.06979E+04  1.29236E+04 -2.38947E+04 -7.47458E+03 -8.57595E+03 -3.73577E+04
  2.48169E+04 -4.68166E+04  5.24670E+04 -2.12348E+04  4.90805E+04  2.08080E+04  1.74699E+04  4.77581E+04
 -1.66354E+04  3.59643E+04 -2.77468E+04  2.42181E+03 -1.19281E+04 -2.97510E+04  2.16681E+04 -3.71489E+04
  4.47814E+04 -1.11951E+04  4.09569E+04  2.50295E+04  2.12424E+04  5.13238E+04 -8.29278E+03  5.63071E+04
 -3.51077E+04  3.84033E+04 -4.81758E+04  1.12284E+04 -4.77333E+04 -1.85041E+04 -2.64001E+04 -4.23272E+04
  7.60277E+03 -4.23686E+04  3.42894E+04 -1.72706E+04  3.22952E+04  1.11980E+04  5.36254E+03  2.10401E+04
 -1.38612E+04  1.00150E+04 -1.11814E+04 -7.53738E+03  5.99265E+03 -1.14932E+04  1.87329E+04  5.21612E+03
  1.46384E+04  2.27675E+04 -5.06438E+03  2.73332E+04 -2.34985E+04  1.43774E+04 -3.16906E+04 -3.04736E+03
 -2.58405E+04 -1.87982E+04 -1.12486E+04 -2.49164E+04  4.61857E+03 -2.60416E+04  2.01044E+04 -2.29452E+04
  3.19668E+04 -1.43413E+04  3.79985E+04  4.77018E+03  2.73401E+04  2.45850E+04  4.28521E+03  4.14489E+04
 -1.98934E+04  3.40281E+04 -3.05150E+04  1.17902E+04 -2.26069E+04 -1.02857E+04 -4.98302E+03 -1.26366E+04
  1.05342E+03 -1.01903E+03 -7.19553E+03  8.49792E+03 -2.01215E+04  5.03338E+03 -2.05131E+04 -9.41600E+03
 -1.20664E+04 -2.33083E+04  6.38926E+03 -2.80184E+04  1.93531E+04 -1.96658E+04  2.29131E+04 -1.99873E+03
  1.46994E+04  1.60783E+04 -1.29069E+03  2.34436E+04 -1.65320E+04  1.32755E+04 -2.34795E+04 -5.00260E+03
 -1.75902E+04 -2.10573E+04 -2.22803E+03 -2.78173E+04  1.29376E+04 -2.35051E+04  2.33946E+04 -1.20402E+04
  2.20352E+04 -6.87209E+01  1.55070E+04  5.22841E+03  8.88050E+03  1.58869E+03  1.20854E+04 -2.21274E+03
  2.20613E+04  2.72147E+03  2.56694E+04  1.79694E+04  1.76614E+04  3.78875E+04 -2.38189E+03  4.45402E+04
 -2.55293E+04  3.68937E+04 -4.16054E+04  1.93830E+04 -4.47383E+04 -3.23370E+03 -3.60007E+04 -2.61568E+04
 -1.45547E+04 -3.70807E+04  1.34930E+04 -3.28450E+04  2.75953E+04 -1.56018E+04  2.45921E+04  7.77220E+03
  8.30073E+03  1.88173E+04 -1.19401E+04  1.57432E+04 -2.04034E+04  2.79574E+03 -1.52420E+04 -1.30747E+04
  2.27381E+01 -1.93004E+04  1.02358E+04 -1.40144E+04  1.34966E+04 -1.50824E+03  3.02261E+03  9.32535E+03
 -8.76720E+03  3.99859E+03 -9.05053E+03 -7.05239E+03 -1.77314E+03 -1.80122E+04  1.17533E+04 -1.97691E+04
  2.31973E+04 -1.12317E+04  2.61174E+04  3.32051E+03  2.28194E+04  1.84394E+04  1.07650E+04  2.91410E+04
 -5.97715E+03  3.10838E+04 -2.02702E+04  1.93888E+04 -2.27521E+04  4.09063E+03 -1.52625E+04 -5.80154E+03
 -6.24860E+03 -7.52448E+03 -7.73984E+02  8.24944E+02 -3.00038E+03  3.45122E+03 -7.21192E+03  5.47725E+03
 -1.42245E+04 -6.13699E+02 -1.52098E+04 -1.16531E+04 -5.84872E+03 -1.96245E+04  6.55252E+03 -1.61073E+04
  1.24902E+04 -6.41523E+03  9.26560E+03  3.80218E+03 -2.98702E+02  6.13903E+03 -7.82544E+03 -1.89879E+02
 -7.42957E+03 -1.03495E+04 -9.88062E+02 -1.55163E+04  9.06486E+03 -1.66368E+04  2.00795E+04 -8.68610E+03
  2.34713E+04  2.52313E+03  1.71442E+04  1.42389E+04  3.31102E+03  1.94528E+04 -9.71282E+03  1.53889E+04
 -1.27307E+04  4.40996E+03 -6.30202E+03 -3.54649E+03  2.38909E+03 -4.21318E+03  8.06702E+03 -1.27245E+03
  7.95719E+03  6.66339E+03  1.36310E+03  1.28354E+04 -9.51303E+03  1.20262E+04 -1.58804E+04  2.95809E+03
 -1.06166E+04 -8.36411E+03  4.79191E+02 -1.32929E+04  8.45926E+03 -7.04812E+03  9.71986E+03  3.39184E+03
  1.99738E+03  9.83005E+03 -8.26712E+03  1.14357E+04 -1.32324E+04  4.63334E+03 -1.35371E+04 -5.06624E+03
 -7.71190E+03 -1.59144E+04  3.65097E+03 -1.80101E+04  1.52018E+04 -1.07803E+04  1.67073E+04  2.92505E+03
  1.00101E+04  1.33346E+04 -1.47615E+03  1.56519E+04 -1.14692E+04  8.77786E+03 -1.21927E+04 -1.08151E+03
 -1.04883E+04 -1.05175E+04 -1.67826E+03 -1.19474E+04  6.16060E+03 -9.54185E+03  7.49485E+03 -3.65336E+03
  4.63554E+03  1.73289E+03 -1.34552E+03  1.98497E+03 -8.47275E+02 -3.09383E+03  2.84512E+03 -7.26765E+03
  1.10189E+04 -4.38753E+03  1.58055E+04  1.76515E+03  1.50070E+04  1.05239E+04  1.02006E+04  2.04176E+04
 -4.89210E+03  2.33839E+04 -1.93906E+04  1.75418E+04 -2.52277E+04  3.33489E+03 -2.01572E+04 -9.01599E+03
 -1.02850E+04 -1.67994E+04 -5.99770E+02 -1.42910E+04  5.08263E+03 -7.83600E+03  5.16896E+03 -5.28613E+03
  3.70148E+03 -2.91220E+03  4.13168E+03 -3.98411E+03  5.85308E+03 -3.04862E+03  7.55508E+03 -1.46746E+03
  1.02028E+04  2.16302E+03  5.91338E+03  8.92143E+03 -2.24326E+03  1.08885E+04 -1.08999E+04  8.12436E+03
 -1.49486E+04 -1.79077E+03 -9.31043E+03 -9.86340E+03 -1.18556E+03 -1.55512E+04  8.38279E+03 -1.54034E+04
  1.61660E+04 -8.52712E+03  1.89223E+04  2.33268E+03  1.34474E+04  1.31911E+04  1.91865E+03  1.74748E+04
 -7.27354E+03  1.37177E+04 -1.00899E+04  4.05418E+03 -7.32012E+03 -1.51636E+03 -2.72753E+03 -2.29328E+03
 -1.45208E+03 -2.45643E+02 -2.62533E+03  2.84950E+03 -6.03971E+03  2.84006E+03 -9.76416E+03 -1.02800E+03
 -6.86437E+03 -9.58628E+03  2.90267E+02 -1.38151E+04  9.00621E+03 -1.32549E+04  1.42456E+04 -3.93361E+03
  1.41489E+04  7.26143E+03  6.49098E+03  1.28896E+04 -2.93682E+03  1.44880E+04 -1.05267E+04  8.94983E+03
 -1.39934E+04  5.80140E+02 -1.02148E+04 -8.41379E+03 -1.36461E+03 -1.19009E+04  6.33864E+03 -8.77597E+03
  9.11426E+03 -2.64050E+03  6.18217E+03  2.75050E+03  2.01591E+03  3.87019E+03  1.27380E+03  2.03911E+03
  2.36789E+03  1.22443E+03  3.29556E+03  1.94611E+03  4.59471E+03  5.28012E+03  3.80825E+03  7.40189E+03
 -2.64652E+03  1.12448E+04 -9.78964E+03  1.14405E+04 -1.42621E+04  3.08557E+03 -1.46505E+04 -6.14082E+03
 -6.96919E+03 -1.44232E+04  2.07166E+03 -1.57886E+04  8.85485E+03 -1.02990E+04  1.17295E+04 -2.33679E+03
  9.07429E+03  5.24995E+03  2.04562E+03  8.16666E+03 -3.78779E+03  5.12319E+03 -6.03155E+03 -7.62928E+02
 -2.83299E+03 -6.38176E+03  3.25293E+03 -6.35872E+03  5.91622E+03 -3.13352E+03  5.76014E+03  1.69959E+03
  3.48732E+03  2.74740E+03  1.33118E+03  2.39112E+03 -1.05105E+03  1.91086E+03  1.62670E+03 -9.00380E+02
  2.48089E+03 -7.60175E+02  5.92837E+03  2.02252E+03  3.16953E+03  7.54814E+03 -1.24439E+03  1.00660E+04
 -7.16067E+03  6.41611E+03 -8.94097E+03  2.09259E+03 -8.30050E+03 -3.01341E+03 -3.42269E+03 -5.53877E+03
  9.95341E+02 -6.19917E+03  3.59950E+03 -2.52218E+03  3.21577E+03  2.75270E+03 -9.60887E+02  4.46437E+03
 -5.98670E+03  2.76763E+03 -6.47465E+03 -3.23829E+03 -4.25707E+03 -7.96090E+03  1.50939E+03 -7.81718E+03
  4.50344E+03 -4.47002E+03  5.89544E+03 -6.06008E+02  4.60459E+03  2.01553E+03  7.35667E+02  4.09758E+03
 -2.97476E+03  1.26892E+03 -3.81024E+03 -2.95901E+03  1.46658E+03 -5.71666E+03  7.42868E+03 -4.74011E+03
  9.07362E+03  1.04777E+03  8.70796E+03  6.15090E+03  2.91077E+03  9.76493E+03 -3.13057E+03  8.66673E+03
 -7.66358E+03  3.59359E+03 -7.77683E+03 -9.79157E+02 -4.12528E+03 -5.75735E+03  1.13167E+03 -5.66306E+03
  5.55517E+03 -2.59782E+03  5.03845E+03  2.54546E+03  2.09402E+03  5.11747E+03 -6.39481E+02  4.66846E+03
 -2.75202E+03  2.65203E+03 -2.34531E+03  1.01960E+03 -1.13633E+03  1.30166E+03 -1.64161E+03  2.12350E+03
 -2.11830E+03  3.52182E+03 -6.35125E+03  3.27787E+03 -9.47832E+03  5.19280E+02 -1.06292E+04 -6.24516E+03
 -4.86624E+03 -1.24431E+04  2.23546E+03 -1.40274E+04  8.92183E+03 -1.12945E+04  1.37604E+04 -3.73096E+03
  1.21278E+04  2.34620E+03  7.85302E+03  8.21123E+03  7.54961E+02  9.96287E+03 -4.14008E+03  7.06733E+03
 -5.23562E+03  2.79005E+03 -3.72745E+03 -9.16898E+02 -8.51796E+02 -8.50540E+02 -6.62613E+02  2.01611E+02
 -1.36765E+03  1.38901E+02 -1.91970E+03 -6.74025E+01 -7.25349E+02 -1.88365E+03  5.51288E+02 -3.29431E+03
  4.02264E+03 -2.85844E+03  5.63872E+03  3.54877E+02  6.84575E+03  4.89608E+03  2.20799E+03  9.03915E+03
 -4.67429E+03  1.07640E+04 -1.01019E+04  5.99196E+03 -1.12897E+04 -1.08464E+03 -8.72233E+03 -6.95539E+03
 -3.69963E+03 -9.40937E+03  2.35811E+03 -8.91242E+03  5.90957E+03 -4.80322E+03  6.19274E+03  3.05745E+02
  3.59997E+03  3.26717E+03 -2.64620E+02  2.77612E+03 -1.33635E+03 -1.40003E+02  2.75121E+02 -2.32868E+03
  2.96055E+03 -1.13673E+03  4.04553E+03  1.57332E+03  2.12817E+03  3.59817E+03 -9.26732E+01  4.86877E+03
 -3.87123E+03  4.19414E+03 -6.28484E+03  2.54466E+02 -5.74982E+03 -4.92022E+03 -1.02162E+03 -7.87867E+03
  4.50762E+03 -6.53008E+03  7.09890E+03 -1.87244E+03  7.67995E+03  1.61550E+03  4.18833E+03  5.81087E+03
  5.05241E+02  5.81446E+03 -2.54316E+03  4.83649E+03 -4.21412E+03  3.01322E+03 -3.53810E+03  1.79473E+02
 -1.32955E+03 -1.09075E+02 -1.46350E+03  7.00555E+02 -3.26927E+03  1.32211E+03 -4.64498E+03 -1.02529E+03
 -4.43788E+03 -3.16927E+03 -1.85901E+03 -6.04618E+03  2.71564E+03 -6.76621E+03  5.60194E+03 -2.62883E+03
  6.30141E+03  1.17794E+03  3.03691E+03  4.45945E+03 -5.84120E+02  6.38248E+03 -4.84909E+03  3.67213E+03
