 $NMID ID='MM_0lb_SNR800_10hz_g45_25.RAW', FMTDAT='(8E13.5)'
 TRAMP=1., VOLUME=1. $END
  3.09913E+05  1.52093E+02  3.38142E+05  2.50736E+05  8.45043E+04  3.37984E+05 -1.32456E+05  2.51446E+05
 -1.90635E+05  8.33648E+04 -1.12261E+05 -3.25721E+04  4.64905E+02 -5.07084E+04  5.37700E+04 -3.36279E+02
  3.56885E+04  5.28717E+04 -1.65127E+04  7.60749E+04 -6.11034E+04  6.40700E+04 -8.50827E+04  3.22427E+04
 -8.22829E+04 -1.21335E+04 -5.80196E+04 -5.20857E+04 -1.49688E+04 -7.04099E+04  2.79761E+04 -4.66541E+04
  4.07820E+04  3.83981E+03  1.64409E+04  4.82782E+04 -3.49812E+04  4.79910E+04 -6.77838E+04  2.84810E+01
 -5.43414E+04 -5.75926E+04 -7.34427E+03 -7.82269E+04  3.44880E+04 -5.68775E+04  4.96863E+04 -1.80250E+04
  4.48455E+04  1.16146E+04  3.24296E+04  2.63191E+04  1.60070E+04  3.03223E+04 -5.82351E+03  2.76541E+04
 -2.22511E+04  1.19930E+04 -1.82820E+04 -5.41465E+03  6.79310E+03 -7.64264E+03  2.30436E+04  1.28914E+04
  6.97383E+03  3.68514E+04 -3.34674E+04  3.60858E+04 -6.49370E+04  2.00666E+03 -5.81497E+04 -4.38382E+04
 -1.27315E+04 -6.50410E+04  4.09864E+04 -4.66516E+04  6.02496E+04 -2.64428E+03  3.56384E+04  3.40461E+04
 -5.78339E+03  3.85564E+04 -3.12667E+04  1.77746E+04 -3.25171E+04 -3.58275E+03 -1.88279E+04 -1.14679E+04
 -8.93698E+03 -1.48069E+04 -5.72618E+02 -1.92836E+04  8.17563E+03 -2.30249E+04  1.56684E+04 -1.28251E+04
  1.08792E+04  5.97596E+03 -1.00422E+04  1.26797E+04 -2.30459E+04 -6.16537E+03 -8.62472E+03 -3.62549E+04
  2.46338E+04 -4.55363E+04  5.09187E+04 -2.05184E+04  4.77088E+04  2.05930E+04  1.75350E+04  4.62716E+04
 -1.67304E+04  3.52952E+04 -2.70148E+04  2.49538E+03 -1.14099E+04 -2.89161E+04  2.12598E+04 -3.58885E+04
  4.35672E+04 -1.04180E+04  3.85677E+04  2.47300E+04  2.02231E+04  4.95053E+04 -8.77022E+03  5.41318E+04
 -3.42906E+04  3.69718E+04 -4.56576E+04  1.06344E+04 -4.57452E+04 -1.76311E+04 -2.52635E+04 -4.09976E+04
  7.24236E+03 -4.07436E+04  3.33623E+04 -1.64001E+04  3.12896E+04  1.10484E+04  4.96093E+03  2.04164E+04
 -1.32370E+04  9.18710E+03 -1.10524E+04 -7.54216E+03  5.32056E+03 -1.13380E+04  1.84299E+04  5.98910E+03
  1.46338E+04  2.28156E+04 -5.39901E+03  2.64165E+04 -2.32115E+04  1.34633E+04 -3.04986E+04 -3.24614E+03
 -2.39452E+04 -1.80096E+04 -1.03848E+04 -2.38891E+04  4.06491E+03 -2.38197E+04  1.84581E+04 -2.15352E+04
  3.00478E+04 -1.40811E+04  3.64378E+04  3.92050E+03  2.57429E+04  2.29338E+04  4.58368E+03  3.98703E+04
 -1.94195E+04  3.26685E+04 -2.98375E+04  1.10799E+04 -2.20970E+04 -1.03704E+04 -4.85291E+03 -1.33641E+04
  1.02846E+03 -1.69576E+03 -6.77992E+03  7.40513E+03 -1.85182E+04  5.07979E+03 -1.87444E+04 -8.58521E+03
 -1.13105E+04 -2.17903E+04  5.99107E+03 -2.60600E+04  1.78146E+04 -1.92057E+04  2.11468E+04 -1.69606E+03
  1.37711E+04  1.51947E+04 -1.15347E+03  2.20892E+04 -1.53808E+04  1.25309E+04 -2.18862E+04 -4.74024E+03
 -1.60718E+04 -1.98528E+04 -2.10483E+03 -2.67180E+04  1.22057E+04 -2.18406E+04  2.18270E+04 -1.12754E+04
  2.06059E+04 -1.38169E+01  1.48646E+04  5.21084E+03  8.15712E+03  1.38638E+03  1.13940E+04 -1.87564E+03
  2.04200E+04  2.52425E+03  2.33323E+04  1.71695E+04  1.60281E+04  3.53039E+04 -2.81612E+03  4.11627E+04
 -2.39749E+04  3.37947E+04 -3.88427E+04  1.76824E+04 -4.15603E+04 -3.33050E+03 -3.38038E+04 -2.39931E+04
 -1.36098E+04 -3.42513E+04  1.17826E+04 -3.02790E+04  2.59092E+04 -1.43758E+04  2.26268E+04  6.58525E+03
  7.83161E+03  1.77105E+04 -1.09630E+04  1.46523E+04 -1.91288E+04  2.61814E+03 -1.46648E+04 -1.17480E+04
 -3.16871E+02 -1.76949E+04  9.55930E+03 -1.39906E+04  1.21118E+04 -1.19388E+03  3.45873E+03  8.03544E+03
 -8.13656E+03  3.55199E+03 -8.13330E+03 -6.84499E+03 -1.30997E+03 -1.65284E+04  1.11065E+04 -1.82364E+04
  2.09344E+04 -1.03218E+04  2.38714E+04  3.12722E+03  2.05151E+04  1.63890E+04  9.69712E+03  2.62838E+04
 -4.89373E+03  2.83836E+04 -1.84446E+04  1.77343E+04 -2.05323E+04  4.07192E+03 -1.41461E+04 -5.26037E+03
 -5.96575E+03 -6.87645E+03 -3.94388E+02  6.83985E+02 -2.66428E+03  3.43403E+03 -6.79264E+03  5.16772E+03
 -1.31139E+04 -9.04399E+02 -1.37376E+04 -1.11300E+04 -5.31669E+03 -1.81958E+04  6.16594E+03 -1.45328E+04
  1.16847E+04 -5.62747E+03  8.38268E+03  3.72914E+03 -3.28389E+02  5.43606E+03 -6.80116E+03  8.77076E+01
 -6.76858E+03 -9.27968E+03 -1.05734E+03 -1.36909E+04  8.33445E+03 -1.51487E+04  1.85577E+04 -7.64846E+03
  2.15463E+04  2.07080E+03  1.54340E+04  1.28991E+04  3.34705E+03  1.73134E+04 -8.75827E+03  1.42687E+04
 -1.16752E+04  4.58624E+03 -5.88613E+03 -3.11239E+03  1.86614E+03 -4.20375E+03  7.68065E+03 -1.31005E+03
  6.92298E+03  6.37499E+03  1.29927E+03  1.15952E+04 -8.13003E+03  1.12447E+04 -1.38052E+04  2.97091E+03
 -9.40404E+03 -7.29433E+03  2.04143E+02 -1.21397E+04  8.17199E+03 -6.16580E+03  8.60026E+03  3.37729E+03
  1.61016E+03  8.85366E+03 -7.44984E+03  1.03638E+04 -1.20859E+04  4.29078E+03 -1.22014E+04 -4.07856E+03
 -6.70696E+03 -1.43504E+04  3.62728E+03 -1.63457E+04  1.38088E+04 -9.73458E+03  1.48672E+04  2.42043E+03
  9.11129E+03  1.16912E+04 -1.15359E+03  1.43729E+04 -1.07121E+04  7.55518E+03 -1.16509E+04 -1.37454E+03
 -9.67159E+03 -9.43279E+03 -1.76815E+03 -1.11017E+04  5.75276E+03 -8.89733E+03  6.50839E+03 -3.52664E+03
  4.25086E+03  1.75903E+03 -9.77583E+02  1.74073E+03 -6.50587E+02 -2.79581E+03  2.48675E+03 -6.37544E+03
  9.82492E+03 -4.25043E+03  1.39157E+04  1.29938E+03  1.37358E+04  9.59665E+03  9.04019E+03  1.85898E+04
 -4.06136E+03  2.09139E+04 -1.71994E+04  1.57561E+04 -2.26636E+04  2.63693E+03 -1.81843E+04 -7.67356E+03
 -9.16287E+03 -1.48096E+04 -5.26548E+02 -1.29087E+04  4.58353E+03 -7.24594E+03  4.51622E+03 -4.35139E+03
  3.53016E+03 -3.09358E+03  3.34106E+03 -3.47285E+03  5.70090E+03 -3.18124E+03  7.42844E+03 -1.00418E+03
  9.26202E+03  2.37324E+03  5.14875E+03  7.85164E+03 -2.03908E+03  9.70851E+03 -1.03520E+04  7.47065E+03
 -1.28342E+04 -1.20854E+03 -7.69402E+03 -8.90795E+03 -1.05110E+03 -1.36622E+04  7.64575E+03 -1.36738E+04
  1.40572E+04 -7.58768E+03  1.70405E+04  1.80229E+03  1.20475E+04  1.20925E+04  2.07350E+03  1.54068E+04
 -6.67908E+03  1.29489E+04 -9.46595E+03  4.57365E+03 -5.99173E+03 -1.46038E+03 -2.57201E+03 -2.03903E+03
 -1.41487E+03  7.60047E+01 -1.90829E+03  2.58401E+03 -5.31786E+03  2.13755E+03 -8.86185E+03 -1.17388E+03
 -6.08230E+03 -9.17803E+03  3.47937E+02 -1.29518E+04  7.84776E+03 -1.18521E+04  1.26961E+04 -3.44619E+03
  1.21829E+04  6.22150E+03  5.63766E+03  1.11337E+04 -2.66777E+03  1.29487E+04 -8.88374E+03  7.94955E+03
 -1.24531E+04  7.52579E+02 -9.02834E+03 -7.40863E+03 -9.14335E+02 -1.04561E+04  5.48062E+03 -7.50366E+03
  8.50115E+03 -2.39234E+03  5.68932E+03  2.17681E+03  2.00851E+03  3.76612E+03  1.41707E+03  1.90622E+03
  2.46073E+03  1.39841E+03  3.47999E+03  1.87835E+03  3.91047E+03  4.84702E+03  3.40521E+03  6.75192E+03
 -2.74031E+03  9.90813E+03 -8.86194E+03  1.03970E+04 -1.29403E+04  2.77697E+03 -1.32377E+04 -5.05282E+03
 -6.44374E+03 -1.27745E+04  2.12348E+03 -1.42290E+04  7.82700E+03 -8.85739E+03  1.04898E+04 -2.48304E+03
  8.13914E+03  4.57952E+03  1.61051E+03  7.70418E+03 -3.20160E+03  4.53326E+03 -5.41304E+03 -6.35639E+02
 -2.31719E+03 -5.31150E+03  3.05943E+03 -5.48079E+03  4.97971E+03 -2.43562E+03  4.92334E+03  9.48218E+02
  3.00420E+03  2.48419E+03  1.34526E+03  2.06581E+03 -4.93797E+02  1.74902E+03  1.53087E+03 -5.99108E+02
  2.08902E+03 -7.47197E+02  5.50379E+03  2.24257E+03  3.00599E+03  7.05380E+03 -1.48739E+03  9.20764E+03
 -6.19197E+03  5.68811E+03 -8.03395E+03  1.77751E+03 -7.44402E+03 -2.79882E+03 -2.62192E+03 -5.10791E+03
  6.58296E+02 -5.15940E+03  3.06327E+03 -2.50006E+03  2.66281E+03  2.45666E+03 -1.54525E+03  4.35218E+03
 -5.56800E+03  2.41609E+03 -5.56391E+03 -2.96734E+03 -3.36934E+03 -6.70338E+03  8.54295E+02 -6.91301E+03
  3.94170E+03 -4.40912E+03  5.49133E+03 -2.47700E+02  4.51244E+03  1.93416E+03  5.28160E+02  3.78071E+03
 -2.34326E+03  1.37563E+03 -3.24259E+03 -2.00388E+03  9.89574E+02 -5.58182E+03  6.66800E+03 -4.24020E+03
  8.10054E+03  4.80470E+02  7.90608E+03  5.75413E+03  2.54982E+03  8.31875E+03 -2.94168E+03  7.72053E+03
 -6.55147E+03  3.55728E+03 -6.93955E+03 -9.82963E+02 -3.95681E+03 -5.49616E+03  1.36722E+03 -4.78424E+03
  5.55170E+03 -2.44703E+03  4.12121E+03  2.07332E+03  1.47631E+03  4.05885E+03 -6.62030E+02  3.87430E+03
 -2.40903E+03  2.94437E+03 -1.88196E+03  8.79731E+02 -1.19045E+03  8.46479E+02 -9.23226E+02  1.55223E+03
 -2.33509E+03  3.35560E+03 -5.52941E+03  2.87453E+03 -8.21942E+03  2.09682E+02 -9.36135E+03 -5.58578E+03
 -4.61772E+03 -1.11728E+04  2.10314E+03 -1.25348E+04  7.49746E+03 -9.73941E+03  1.17958E+04 -4.18081E+03
  1.09708E+04  1.99729E+03  6.59052E+03  7.60546E+03  4.56683E+02  8.21896E+03 -3.27640E+03  6.29704E+03
 -4.93055E+03  2.54702E+03 -3.01805E+03 -7.33244E+02 -9.88830E+02 -5.12939E+02 -6.36030E+02 -1.30365E+02
 -2.10906E+03  3.84697E+02 -2.09044E+03 -2.44662E+02 -6.40295E+02 -1.97255E+03  2.02424E+02 -3.20974E+03
  3.91303E+03 -2.73065E+03  4.55477E+03  9.06011E+01  6.11726E+03  4.47141E+03  1.37675E+03  8.12637E+03
 -3.98342E+03  9.42852E+03 -9.02253E+03  5.52205E+03 -1.02325E+04 -8.16064E+02 -8.13562E+03 -6.23461E+03
 -3.37221E+03 -8.66537E+03  2.20870E+03 -7.85357E+03  5.28507E+03 -4.25900E+03  5.74091E+03  3.00390E+02
  3.32240E+03  2.65546E+03 -3.89771E+02  2.47519E+03 -1.74529E+03 -2.28082E+02  4.97657E+01 -2.19610E+03
  2.43634E+03 -1.28307E+03  3.43915E+03  9.62331E+02  2.38145E+03  3.23870E+03  5.77093E+01  4.56910E+03
 -3.94200E+03  3.80593E+03 -5.43080E+03  5.54250E+02 -5.45961E+03 -4.12767E+03 -6.60742E+02 -7.12107E+03
  4.50791E+03 -6.01282E+03  6.27006E+03 -1.84537E+03  6.17845E+03  1.32448E+03  3.68036E+03  5.03314E+03
  5.21647E+02  5.51636E+03 -2.11856E+03  4.32128E+03 -3.65543E+03  2.62797E+03 -2.77333E+03  1.64814E+02
 -1.40093E+03 -2.14448E+02 -1.47311E+03  8.50681E+02 -2.99359E+03  9.05764E+02 -4.22558E+03 -6.85607E+02
 -4.19376E+03 -3.30972E+03 -1.08307E+03 -5.42427E+03  2.92379E+03 -5.79160E+03  5.04838E+03 -2.74165E+03
  5.43002E+03  5.94653E+02  2.82260E+03  4.12555E+03 -4.43647E+02  5.81044E+03 -4.09081E+03  3.66322E+03
