 $NMID ID='MM_0lb_SNR800_12hz_g55_37.RAW', FMTDAT='(8E13.5)'
 TRAMP=1., VOLUME=1. $END
  3.09702E+05  2.81847E+02  3.37939E+05  2.50808E+05  8.44106E+04  3.37997E+05 -1.32896E+05  2.51556E+05
 -1.90713E+05  8.34456E+04 -1.12397E+05 -3.26393E+04  7.74888E+02 -5.08198E+04  5.35841E+04 -3.85190E+02
  3.56862E+04  5.28160E+04 -1.64718E+04  7.60429E+04 -6.09312E+04  6.38257E+04 -8.51521E+04  3.22844E+04
 -8.18649E+04 -1.17482E+04 -5.79320E+04 -5.21491E+04 -1.49911E+04 -7.04298E+04  2.75229E+04 -4.62778E+04
  4.04156E+04  3.61942E+03  1.63039E+04  4.82188E+04 -3.47021E+04  4.75749E+04 -6.75857E+04  5.26310E+01
 -5.41418E+04 -5.73552E+04 -7.30345E+03 -7.82164E+04  3.42686E+04 -5.63204E+04  4.90782E+04 -1.77656E+04
  4.40745E+04  1.15411E+04  3.23582E+04  2.55533E+04  1.62150E+04  3.00194E+04 -5.78515E+03  2.77231E+04
 -2.22447E+04  1.20730E+04 -1.84384E+04 -5.17928E+03  6.59875E+03 -7.63851E+03  2.30018E+04  1.30987E+04
  6.96993E+03  3.69239E+04 -3.29029E+04  3.68312E+04 -6.50156E+04  2.04554E+03 -5.80287E+04 -4.39467E+04
 -1.28182E+04 -6.47448E+04  4.08100E+04 -4.64875E+04  5.97131E+04 -2.04795E+03  3.57183E+04  3.33625E+04
 -5.79464E+03  3.79825E+04 -3.12154E+04  1.75925E+04 -3.19195E+04 -4.03114E+03 -1.81646E+04 -1.14634E+04
 -8.99369E+03 -1.40872E+04 -7.87737E+02 -1.95625E+04  8.26547E+03 -2.34185E+04  1.58726E+04 -1.34026E+04
  1.10762E+04  5.72697E+03 -9.57289E+03  1.31299E+04 -2.28170E+04 -5.55633E+03 -8.66411E+03 -3.57766E+04
  2.39700E+04 -4.55735E+04  5.02467E+04 -1.99842E+04  4.70790E+04  2.03604E+04  1.66813E+04  4.55942E+04
 -1.66515E+04  3.50668E+04 -2.66265E+04  1.98244E+03 -1.09583E+04 -2.88111E+04  2.12143E+04 -3.53977E+04
  4.30885E+04 -1.00533E+04  3.82904E+04  2.42688E+04  1.99642E+04  4.90544E+04 -8.28152E+03  5.33825E+04
 -3.36229E+04  3.60666E+04 -4.48410E+04  1.07521E+04 -4.52206E+04 -1.74276E+04 -2.48363E+04 -3.97892E+04
  7.49882E+03 -4.02163E+04  3.30339E+04 -1.60343E+04  3.10333E+04  1.09820E+04  4.68709E+03  2.03089E+04
 -1.39703E+04  9.34842E+03 -1.06153E+04 -7.72754E+03  5.85586E+03 -1.11648E+04  1.83563E+04  5.82208E+03
  1.41293E+04  2.24408E+04 -5.37022E+03  2.60250E+04 -2.28851E+04  1.31296E+04 -2.99692E+04 -3.97366E+03
 -2.31767E+04 -1.79718E+04 -1.00167E+04 -2.27097E+04  3.99512E+03 -2.31871E+04  1.81262E+04 -2.06929E+04
  2.88791E+04 -1.39418E+04  3.55353E+04  3.79074E+03  2.51502E+04  2.21347E+04  3.78845E+03  3.87511E+04
 -1.87839E+04  3.20471E+04 -2.93830E+04  1.11108E+04 -2.19339E+04 -9.84723E+03 -4.70034E+03 -1.28472E+04
  1.38196E+03 -1.81007E+03 -6.66668E+03  7.21033E+03 -1.83106E+04  4.95024E+03 -1.86064E+04 -8.38948E+03
 -1.12625E+04 -2.11909E+04  5.82318E+03 -2.51472E+04  1.73823E+04 -1.78948E+04  2.04320E+04 -1.52181E+03
  1.29594E+04  1.47642E+04 -1.31601E+03  2.10502E+04 -1.45906E+04  1.21376E+04 -2.15869E+04 -4.20303E+03
 -1.56525E+04 -1.87562E+04 -2.08865E+03 -2.59219E+04  1.13595E+04 -2.14048E+04  2.09973E+04 -1.08755E+04
  1.97316E+04  1.77076E+02  1.41643E+04  4.95531E+03  8.09494E+03  1.41879E+03  1.09762E+04 -1.77796E+03
  1.99328E+04  2.74116E+03  2.26605E+04  1.66298E+04  1.51611E+04  3.42324E+04 -2.72517E+03  3.90546E+04
 -2.26061E+04  3.20991E+04 -3.68936E+04  1.63902E+04 -3.90425E+04 -2.70019E+03 -3.21924E+04 -2.28160E+04
 -1.31831E+04 -3.25764E+04  1.12371E+04 -2.86801E+04  2.47401E+04 -1.40063E+04  2.15270E+04  6.79266E+03
  7.81937E+03  1.65196E+04 -1.03688E+04  1.40248E+04 -1.82440E+04  2.63345E+03 -1.37234E+04 -1.16731E+04
 -3.36298E+02 -1.77180E+04  9.08039E+03 -1.29357E+04  1.20769E+04 -8.65036E+02  2.86171E+03  7.69864E+03
 -8.09942E+03  3.26439E+03 -7.47232E+03 -6.36461E+03 -1.18412E+03 -1.55121E+04  1.08659E+04 -1.70133E+04
  1.94189E+04 -9.39587E+03  2.20563E+04  3.16024E+03  1.90253E+04  1.59821E+04  8.98618E+03  2.44020E+04
 -4.51674E+03  2.63268E+04 -1.68516E+04  1.61617E+04 -1.92391E+04  4.02002E+03 -1.30918E+04 -4.54317E+03
 -5.92016E+03 -5.68278E+03 -9.04961E+02  8.40790E+02 -2.30123E+03  2.58761E+03 -6.61015E+03  4.96844E+03
 -1.20946E+04 -6.33412E+02 -1.27556E+04 -1.05250E+04 -4.84465E+03 -1.67310E+04  5.43035E+03 -1.35410E+04
  1.10454E+04 -5.75115E+03  7.66671E+03  3.24443E+03 -2.53328E+02  5.20289E+03 -6.22978E+03 -2.58208E+02
 -6.31742E+03 -8.65679E+03 -1.46239E+03 -1.32332E+04  7.33831E+03 -1.35150E+04  1.68394E+04 -7.40388E+03
  1.94091E+04  1.94597E+03  1.40019E+04  1.13782E+04  2.43077E+03  1.56172E+04 -7.85928E+03  1.33198E+04
 -1.05382E+04  3.97850E+03 -5.27518E+03 -2.64952E+03  1.95136E+03 -3.58341E+03  7.19151E+03 -7.46058E+02
  6.56155E+03  5.60446E+03  1.23447E+03  1.07115E+04 -7.68128E+03  1.02671E+04 -1.29063E+04  2.56596E+03
 -8.95254E+03 -6.98684E+03  4.84239E+02 -1.10305E+04  7.25398E+03 -5.68050E+03  7.23595E+03  2.61704E+03
  1.72925E+03  7.85418E+03 -6.89987E+03  9.68914E+03 -1.07461E+04  4.36197E+03 -1.05991E+04 -3.95948E+03
 -6.49104E+03 -1.24553E+04  2.57476E+03 -1.45234E+04  1.25700E+04 -8.78779E+03  1.32648E+04  2.28675E+03
  8.24868E+03  1.05737E+04 -1.01092E+03  1.29092E+04 -9.63205E+03  7.39557E+03 -1.02185E+04 -1.02813E+03
 -9.20469E+03 -8.97112E+03 -1.77533E+03 -9.76493E+03  5.02145E+03 -7.87981E+03  6.20775E+03 -3.47410E+03
  4.18211E+03  1.33570E+03 -5.87245E+02  1.66479E+03 -1.39231E+02 -2.37971E+03  1.49852E+03 -5.65637E+03
  8.94579E+03 -3.23722E+03  1.19817E+04  1.32897E+03  1.23432E+04  8.20448E+03  8.31674E+03  1.60543E+04
 -3.59026E+03  1.80237E+04 -1.53085E+04  1.35837E+04 -1.97567E+04  2.44965E+03 -1.60362E+04 -6.72945E+03
 -8.14374E+03 -1.34740E+04  5.39738E+01 -1.12913E+04  4.28558E+03 -6.20082E+03  3.54777E+03 -4.09776E+03
  3.39858E+03 -2.45592E+03  3.39411E+03 -3.21093E+03  5.12159E+03 -2.79675E+03  6.59713E+03 -7.91055E+02
  8.17633E+03  2.02138E+03  4.06998E+03  7.21977E+03 -1.72309E+03  8.41267E+03 -9.02771E+03  6.36645E+03
 -1.13256E+04 -9.04190E+02 -6.75842E+03 -7.85026E+03 -7.02794E+02 -1.16706E+04  6.53224E+03 -1.21467E+04
  1.23732E+04 -6.42305E+03  1.48961E+04  1.98609E+03  1.02375E+04  1.03956E+04  1.83038E+03  1.34944E+04
 -5.87064E+03  1.16265E+04 -7.76168E+03  3.92623E+03 -4.96414E+03 -1.37669E+03 -2.19137E+03 -1.51544E+03
 -6.62303E+02 -1.70724E+01 -1.41922E+03  2.59935E+03 -4.40714E+03  2.05950E+03 -7.72729E+03 -1.09661E+03
 -5.15027E+03 -8.04066E+03  2.19038E+02 -1.05934E+04  6.71133E+03 -1.01140E+04  9.94301E+03 -2.95184E+03
  1.07102E+04  5.31564E+03  5.02071E+03  9.00355E+03 -2.13854E+03  1.03928E+04 -7.38765E+03  6.48109E+03
 -9.66297E+03  3.30884E+02 -7.56499E+03 -6.41119E+03 -6.08177E+02 -8.65727E+03  4.32422E+03 -6.55748E+03
  7.03036E+03 -2.26409E+03  4.49879E+03  1.59521E+03  1.72347E+03  3.42937E+03  1.00484E+03  1.65460E+03
  2.46996E+03  5.74366E+02  2.64274E+03  1.42002E+03  3.24989E+03  3.83193E+03  3.01658E+03  5.40636E+03
 -2.27512E+03  8.39957E+03 -7.24097E+03  8.90441E+03 -1.03526E+04  2.48027E+03 -1.08202E+04 -4.01927E+03
 -5.31824E+03 -1.04249E+04  1.80422E+03 -1.17736E+04  6.02597E+03 -7.47527E+03  8.27657E+03 -2.30145E+03
  6.82674E+03  4.14118E+03  1.66793E+03  6.09532E+03 -2.60076E+03  3.74083E+03 -3.96060E+03 -4.26795E+02
 -1.75426E+03 -4.18117E+03  2.79926E+03 -4.59418E+03  4.08518E+03 -2.11224E+03  4.22011E+03  1.12193E+03
  2.46421E+03  1.93125E+03  1.19205E+03  1.54904E+03 -3.77170E+02  1.72283E+03  1.57422E+03 -5.03575E+02
  1.44741E+03 -5.22579E+02  4.39786E+03  1.58152E+03  2.12308E+03  5.56566E+03 -9.50905E+02  7.35315E+03
 -4.78336E+03  4.22737E+03 -6.23332E+03  1.17657E+03 -6.13090E+03 -2.54546E+03 -1.93928E+03 -3.89035E+03
  1.06468E+03 -4.03303E+03  2.83182E+03 -2.13471E+03  2.03696E+03  2.20749E+03 -1.11238E+03  3.31395E+03
 -4.03196E+03  1.70365E+03 -4.37038E+03 -2.41361E+03 -2.43043E+03 -5.95726E+03  7.69457E+02 -5.73596E+03
  3.16303E+03 -3.27955E+03  4.03957E+03 -1.65308E+02  3.88156E+03  1.33360E+03  5.64592E+02  2.95623E+03
 -1.58777E+03  6.48193E+02 -2.38109E+03 -1.64609E+03  1.12240E+03 -4.14310E+03  5.20786E+03 -3.46513E+03
  5.76898E+03  5.22180E+02  6.25906E+03  4.11146E+03  1.89532E+03  6.41363E+03 -2.07877E+03  6.25591E+03
 -5.06943E+03  2.44926E+03 -5.28042E+03 -8.03298E+02 -2.93376E+03 -4.41808E+03  1.18956E+03 -3.85455E+03
  3.91642E+03 -1.47671E+03  3.52229E+03  1.75393E+03  1.19954E+03  3.48326E+03 -9.70686E+02  2.93784E+03
 -1.47931E+03  2.26190E+03 -1.73485E+03  7.02634E+02 -5.35413E+02  6.83015E+02 -9.66457E+02  1.13538E+03
 -2.18137E+03  2.59718E+03 -4.32485E+03  2.24015E+03 -6.47316E+03  1.08651E+02 -7.44415E+03 -4.36330E+03
 -3.46415E+03 -8.23219E+03  1.66288E+03 -9.41031E+03  5.85887E+03 -7.30310E+03  9.54664E+03 -3.22362E+03
  8.51316E+03  1.43698E+03  5.05579E+03  5.69090E+03  2.78772E+02  6.25848E+03 -2.48618E+03  4.88291E+03
 -3.98277E+03  2.04559E+03 -2.19851E+03 -6.18380E+02 -1.17531E+03  1.74295E+02 -6.24844E+02  1.36291E+01
 -1.69270E+03  2.17814E+02 -1.52279E+03 -2.93211E+02 -2.85239E+02 -2.27971E+03  4.13830E+00 -2.75635E+03
  3.38274E+03 -1.91366E+03  3.50096E+03 -1.71561E+02  4.13834E+03  3.41307E+03  6.31915E+02  6.26465E+03
 -2.79258E+03  7.24463E+03 -6.68108E+03  3.93925E+03 -7.53892E+03 -7.86520E+02 -5.40216E+03 -4.69999E+03
 -2.25370E+03 -5.88900E+03  1.54083E+03 -5.61005E+03  3.97706E+03 -3.17529E+03  4.03118E+03  1.78979E+02
  1.72617E+03  2.12691E+03 -9.74928E+01  1.70501E+03 -1.11845E+03 -1.53150E+02 -2.49877E+02 -1.54161E+03
  1.90432E+03 -4.05990E+02  2.11282E+03  1.06665E+03  1.57236E+03  2.21042E+03  9.08974E+01  2.86250E+03
 -2.59599E+03  2.90019E+03 -3.92739E+03  2.45410E+02 -3.51087E+03 -3.24511E+03 -5.75024E+02 -4.73757E+03
  2.74436E+03 -3.73333E+03  4.56425E+03 -1.12499E+03  4.07968E+03  6.93927E+02  2.61131E+03  3.50837E+03
  8.77248E+02  3.92774E+03 -1.37188E+03  2.99579E+03 -2.66754E+03  1.68536E+03 -1.75550E+03  3.10301E+02
 -1.21024E+03 -1.03908E+02 -7.64681E+02  4.67115E+02 -2.06829E+03  7.74738E+02 -3.15454E+03 -8.33752E+02
 -3.19679E+03 -1.73115E+03 -8.95183E+02 -4.02247E+03  2.02244E+03 -4.71006E+03  3.70249E+03 -1.87008E+03
  3.41906E+03  3.42295E+02  1.65976E+03  2.92383E+03 -7.96702E+01  4.00411E+03 -2.76163E+03  2.74562E+03
