 $NMID ID='MM_0lb_SNR800_14hz_g40_77.RAW', FMTDAT='(8E13.5)'
 TRAMP=1., VOLUME=1. $END
  3.09542E+05  4.51625E+02  3.37211E+05  2.50526E+05  8.45081E+04  3.37828E+05 -1.32886E+05  2.51042E+05
 -1.90063E+05  8.31749E+04 -1.11629E+05 -3.29234E+04  9.94550E+02 -5.01364E+04  5.39579E+04 -5.85100E+01
  3.54717E+04  5.30134E+04 -1.66538E+04  7.53477E+04 -6.05561E+04  6.33112E+04 -8.38424E+04  3.18930E+04
 -8.07397E+04 -1.13794E+04 -5.68023E+04 -5.12255E+04 -1.48610E+04 -6.93152E+04  2.71267E+04 -4.55672E+04
  4.00536E+04  4.05950E+03  1.61451E+04  4.76462E+04 -3.43359E+04  4.69057E+04 -6.64046E+04 -1.07645E+02
 -5.29344E+04 -5.64472E+04 -6.56680E+03 -7.65679E+04  3.34764E+04 -5.47235E+04  4.74790E+04 -1.71100E+04
  4.29506E+04  1.12978E+04  3.16202E+04  2.52955E+04  1.61846E+04  2.87848E+04 -4.84391E+03  2.69742E+04
 -2.20227E+04  1.25585E+04 -1.91033E+04 -4.49667E+03  5.20810E+03 -7.67520E+03  2.20000E+04  1.21118E+04
  7.46426E+03  3.46439E+04 -3.15884E+04  3.51493E+04 -6.29215E+04  2.34321E+03 -5.61913E+04 -4.24492E+04
 -1.23173E+04 -6.19243E+04  3.93168E+04 -4.49233E+04  5.71908E+04 -2.21258E+03  3.37077E+04  3.18810E+04
 -6.15097E+03  3.52836E+04 -2.97945E+04  1.50275E+04 -2.96925E+04 -4.63267E+03 -1.63482E+04 -1.04609E+04
 -7.93863E+03 -1.26988E+04 -6.30146E+02 -1.76606E+04  7.20108E+03 -2.26965E+04  1.56581E+04 -1.33851E+04
  1.15895E+04  5.19926E+03 -7.81776E+03  1.35136E+04 -2.09282E+04 -3.99138E+03 -8.32440E+03 -3.27066E+04
  2.22917E+04 -4.30665E+04  4.71817E+04 -1.93665E+04  4.42340E+04  1.92424E+04  1.51225E+04  4.37273E+04
 -1.59838E+04  3.28387E+04 -2.47710E+04  1.58450E+03 -9.57429E+03 -2.71634E+04  2.10581E+04 -3.32371E+04
  4.01640E+04 -8.57124E+03  3.49023E+04  2.33866E+04  1.75672E+04  4.52799E+04 -7.74091E+03  4.90179E+04
 -3.05879E+04  3.29275E+04 -4.08747E+04  9.41426E+03 -4.16963E+04 -1.62261E+04 -2.30941E+04 -3.72810E+04
  7.23773E+03 -3.71202E+04  3.08784E+04 -1.42777E+04  2.86845E+04  1.11329E+04  3.89597E+03  1.88200E+04
 -1.34887E+04  7.92437E+03 -1.00660E+04 -7.50359E+03  6.00820E+03 -1.02531E+04  1.79528E+04  6.49736E+03
  1.33558E+04  2.19120E+04 -6.14623E+03  2.45928E+04 -2.20791E+04  1.10536E+04 -2.72564E+04 -5.06705E+03
 -1.97818E+04 -1.72539E+04 -7.55518E+03 -1.96706E+04  3.92596E+03 -1.84689E+04  1.48373E+04 -1.75291E+04
  2.53868E+04 -1.27384E+04  3.14951E+04  2.53192E+03  2.32004E+04  1.93305E+04  4.39792E+03  3.55907E+04
 -1.74368E+04  2.98483E+04 -2.75141E+04  1.04376E+04 -2.06549E+04 -1.01833E+04 -4.31617E+03 -1.36291E+04
  1.73419E+03 -3.13799E+03 -4.15243E+03  6.21794E+03 -1.52411E+04  5.06182E+03 -1.56221E+04 -6.57842E+03
 -9.97675E+03 -1.83197E+04  4.98155E+03 -2.21333E+04  1.49278E+04 -1.64725E+04  1.76388E+04 -1.22480E+03
  1.09260E+04  1.26470E+04 -9.59960E+02  1.83972E+04 -1.23905E+04  1.03933E+04 -1.82346E+04 -3.64846E+03
 -1.34784E+04 -1.66202E+04 -1.26621E+03 -2.20604E+04  1.00969E+04 -1.79661E+04  1.84555E+04 -8.82399E+03
  1.69746E+04  5.23274E+02  1.23612E+04  4.27369E+03  6.32872E+03  9.20490E+02  9.36097E+03 -1.66376E+03
  1.67802E+04  2.77164E+03  1.82486E+04  1.46671E+04  1.20513E+04  2.88014E+04 -3.06012E+03  3.23221E+04
 -1.89933E+04  2.59670E+04 -3.01462E+04  1.28209E+04 -3.15911E+04 -1.82356E+03 -2.66618E+04 -1.78385E+04
 -1.14331E+04 -2.61732E+04  9.01025E+03 -2.37464E+04  2.03444E+04 -1.23645E+04  1.84029E+04  4.94177E+03
  7.22554E+03  1.35719E+04 -8.68915E+03  1.22358E+04 -1.54965E+04  2.73492E+03 -1.21060E+04 -9.66930E+03
 -4.19914E+02 -1.45429E+04  7.60944E+03 -1.12724E+04  9.70664E+03 -1.43776E+03  2.39241E+03  6.10311E+03
 -6.76868E+03  2.42594E+03 -5.62815E+03 -5.25737E+03 -3.39637E+01 -1.24749E+04  9.12127E+03 -1.36140E+04
  1.59640E+04 -6.88650E+03  1.65455E+04  3.09278E+03  1.46174E+04  1.22998E+04  6.92694E+03  1.91854E+04
 -2.70489E+03  2.12772E+04 -1.31433E+04  1.34547E+04 -1.52400E+04  3.34762E+03 -1.05648E+04 -3.07849E+03
 -5.04529E+03 -4.62620E+03 -6.07207E+02  1.20044E+03 -2.51405E+03  2.29285E+03 -5.21773E+03  4.21062E+03
 -1.01758E+04 -8.10875E+02 -1.07153E+04 -8.66147E+03 -4.41012E+03 -1.42901E+04  4.08036E+03 -1.09461E+04
  9.09472E+03 -4.65159E+03  6.56398E+03  2.86421E+03  1.07900E+02  3.93352E+03 -4.91567E+03 -2.39320E+01
 -4.90317E+03 -7.07111E+03 -9.76606E+02 -1.00105E+04  5.68462E+03 -1.07990E+04  1.34951E+04 -5.58338E+03
  1.56910E+04  1.50088E+03  1.16956E+04  8.69921E+03  2.33940E+03  1.20448E+04 -6.91205E+03  1.05471E+04
 -8.94617E+03  3.09799E+03 -4.47976E+03 -2.02010E+03  1.63859E+03 -2.68522E+03  5.75666E+03 -9.57238E+02
  4.95357E+03  4.59961E+03  9.48624E+02  8.49924E+03 -5.78048E+03  8.62744E+03 -1.05015E+04  1.92206E+03
 -6.66872E+03 -5.27098E+03  2.69803E+02 -8.82750E+03  5.40932E+03 -4.38739E+03  5.51223E+03  1.69398E+03
  9.49454E+02  5.39340E+03 -5.50164E+03  7.03037E+03 -7.53129E+03  3.18019E+03 -7.43231E+03 -2.30553E+03
 -4.65651E+03 -9.29652E+03  2.04403E+03 -1.08799E+04  9.17402E+03 -6.59954E+03  9.75217E+03  1.60857E+03
  6.28539E+03  7.99898E+03 -3.45095E+02  9.98910E+03 -7.20869E+03  5.83110E+03 -7.64172E+03 -7.05437E+02
 -7.17769E+03 -7.03109E+03 -1.64940E+03 -7.64851E+03  3.43461E+03 -6.22823E+03  4.38858E+03 -3.33143E+03
  3.50470E+03  8.99859E+02 -3.32066E+02  1.52047E+03 -1.40345E+02 -1.30310E+03  1.01456E+03 -3.68960E+03
  6.28025E+03 -2.08551E+03  9.03648E+03  8.96937E+02  8.78611E+03  5.45496E+03  7.01393E+03  1.15878E+04
 -2.54999E+03  1.33526E+04 -1.15587E+04  9.85014E+03 -1.50470E+04  1.81584E+03 -1.15512E+04 -4.30674E+03
 -6.22455E+03 -1.00258E+04 -2.47892E+02 -7.99151E+03  3.13108E+03 -4.32403E+03  2.86340E+03 -2.87020E+03
  2.30744E+03 -1.73494E+03  2.86965E+03 -2.65901E+03  4.17289E+03 -1.97078E+03  5.15227E+03 -2.81648E+02
  6.53671E+03  1.90031E+03  2.42781E+03  5.42945E+03 -1.90549E+03  5.47634E+03 -6.39233E+03  4.26486E+03
 -7.76995E+03 -8.82284E+02 -4.22198E+03 -5.41282E+03 -4.74173E+02 -8.26351E+03  4.91425E+03 -8.45202E+03
  8.55679E+03 -5.10842E+03  1.09973E+04  9.43062E+02  7.73176E+03  7.13517E+03  1.59402E+03  9.52715E+03
 -3.61085E+03  8.49458E+03 -5.56614E+03  2.63992E+03 -3.42877E+03 -1.49315E+03 -1.31943E+03 -1.53127E+03
 -6.76213E+02  1.60418E+02 -1.42817E+03  2.26024E+03 -3.23888E+03  1.56315E+03 -5.88401E+03 -7.05104E+02
 -3.10581E+03 -6.24898E+03  5.93992E+02 -8.11486E+03  4.63072E+03 -7.08794E+03  7.08678E+03 -1.95633E+03
  7.21025E+03  3.36418E+03  3.47044E+03  6.59729E+03 -1.21441E+03  7.56500E+03 -4.97682E+03  4.51755E+03
 -7.07251E+03  6.59265E+02 -5.39495E+03 -4.31938E+03 -5.41910E+02 -6.01082E+03  3.15927E+03 -4.29915E+03
  4.70610E+03 -1.79499E+03  3.15844E+03  1.16689E+03  1.12377E+03  2.54650E+03  9.65481E+02  8.54379E+02
  1.81182E+03  5.85907E+02  1.92887E+03  1.47804E+03  2.10553E+03  3.19735E+03  2.28584E+03  3.42177E+03
 -1.77013E+03  5.80970E+03 -4.45408E+03  6.58592E+03 -6.77628E+03  1.80361E+03 -7.60806E+03 -2.41114E+03
 -3.26779E+03 -7.23140E+03  1.14832E+03 -8.04238E+03  3.95836E+03 -5.17006E+03  5.64258E+03 -1.18268E+03
  4.68287E+03  3.00618E+03  8.16527E+02  4.09606E+03 -1.56547E+03  2.61703E+03 -2.85542E+03 -3.01459E+02
 -1.52687E+03 -3.10723E+03  1.65244E+03 -2.83636E+03  2.77561E+03 -1.60691E+03  2.79253E+03  5.59731E+02
  1.55060E+03  1.14621E+03  1.28052E+03  2.78541E+02 -4.04184E+02  1.19045E+03  1.71950E+03 -3.23424E+02
  4.26683E+02 -6.01090E+02  3.33542E+03  1.13982E+03  1.24004E+03  4.17298E+03 -6.26939E+02  5.16848E+03
 -3.29350E+03  2.95991E+03 -4.28183E+03  6.12322E+02 -4.12378E+03 -1.16068E+03 -9.06926E+02 -2.05828E+03
  8.11784E+02 -2.64991E+03  1.90929E+03 -1.49102E+03  1.31322E+03  1.87450E+03 -9.87857E+02  2.43128E+03
 -2.62042E+03  9.73083E+02 -2.70252E+03 -2.08310E+03 -1.60487E+03 -3.85973E+03  5.93952E+02 -3.88513E+03
  1.51822E+03 -1.90380E+03  2.26586E+03 -5.56421E+01  2.49491E+03  6.53279E+02  4.29417E+02  1.95217E+03
 -1.07216E+03  2.54101E+02 -1.68315E+03 -1.21405E+03  1.03267E+03 -2.37673E+03  3.56893E+03 -2.03434E+03
  3.28391E+03  2.48409E+02  4.57506E+03  2.64425E+03  1.56347E+03  3.80274E+03 -1.08996E+03  4.00752E+03
 -3.25959E+03  1.39016E+03 -3.41547E+03 -3.53311E+02 -1.92726E+03 -2.62739E+03  5.30793E+02 -2.26543E+03
  2.64562E+03 -1.38030E+03  1.90502E+03  1.39663E+03  4.93196E+02  2.44550E+03 -9.45175E+01  2.11873E+03
 -1.06950E+03  1.56190E+03 -6.72094E+02  4.25975E+02 -4.20768E+02  8.04144E+02 -1.06561E+03  9.09567E+02
 -1.10437E+03  2.10059E+03 -3.46492E+03  1.24937E+03 -4.10397E+03  3.44295E+02 -4.86755E+03 -2.43406E+03
 -2.22347E+03 -5.62717E+03  9.96015E+02 -6.46455E+03  3.35696E+03 -4.78669E+03  5.98466E+03 -2.03348E+03
  5.35635E+03  6.24183E+02  2.98004E+03  3.54313E+03 -1.58544E+02  3.84043E+03 -1.84860E+03  3.15916E+03
 -2.37193E+03  1.39342E+03 -9.94440E+02 -4.10062E+02 -5.36960E+02  2.62632E+02 -7.36189E+02 -7.99536E+01
 -1.33643E+03  2.06225E+01 -1.34129E+03  2.49963E+02 -2.78894E+02 -1.10729E+03 -3.80151E+02 -1.51430E+03
  1.92784E+03 -1.23174E+03  2.01247E+03  9.89094E+01  2.85201E+03  2.41605E+03  2.75594E+02  3.85159E+03
 -2.22790E+03  4.85574E+03 -4.20076E+03  2.59070E+03 -4.74931E+03 -1.80521E+02 -3.34647E+03 -3.06652E+03
 -2.08272E+03 -3.66921E+03  7.67744E+02 -3.67478E+03  1.89337E+03 -1.89418E+03  2.48402E+03 -2.18487E+02
  1.61625E+03  9.01607E+02  7.65836E+01  7.73414E+02 -1.09931E+03 -1.68330E+02 -1.67999E+02 -1.08629E+03
  1.34609E+03 -3.02587E+02  1.42709E+03  8.78628E+02  8.48810E+02  1.23035E+03  3.77221E+02  1.65785E+03
 -1.75655E+03  1.95712E+03 -2.22510E+03  1.97708E+02 -2.15130E+03 -1.69310E+03  2.62196E+01 -2.81079E+03
  1.57200E+03 -2.26430E+03  2.28829E+03 -6.37744E+02  2.77075E+03 -6.44583E+00  1.60788E+03  2.46331E+03
  6.86044E+02  2.20155E+03 -7.52382E+02  1.57968E+03 -1.31987E+03  1.05959E+03 -1.29124E+03  2.16568E+02
 -6.78342E+02 -1.10106E+02 -8.72462E+02  1.39726E+02 -1.46809E+03  6.55674E+02 -2.11800E+03 -3.24570E+02
 -2.13961E+03 -6.86320E+02 -5.38220E+02 -2.48895E+03  1.32216E+03 -3.12295E+03  2.06403E+03 -1.12127E+03
  2.07454E+03  3.21611E+02  5.80967E+02  1.59563E+03 -1.38571E+02  2.36279E+03 -1.42714E+03  1.91719E+03
