 $NMID ID='MM_0lb_SNR800_17hz_g40_28.RAW', FMTDAT='(8E13.5)'
 TRAMP=1., VOLUME=1. $END
  3.09767E+05  3.58527E+02  3.37360E+05  2.50479E+05  8.41332E+04  3.37278E+05 -1.32402E+05  2.50193E+05
 -1.89919E+05  8.25618E+04 -1.10729E+05 -3.31981E+04  1.39409E+03 -5.05288E+04  5.38509E+04  3.81124E+02
  3.53458E+04  5.30133E+04 -1.67984E+04  7.49108E+04 -6.04255E+04  6.25568E+04 -8.32946E+04  3.18327E+04
 -7.99430E+04 -1.08772E+04 -5.66181E+04 -5.02595E+04 -1.48248E+04 -6.83483E+04  2.66329E+04 -4.49052E+04
  3.88447E+04  4.06257E+03  1.58115E+04  4.71755E+04 -3.39487E+04  4.63537E+04 -6.54514E+04 -4.60635E+02
 -5.19101E+04 -5.59689E+04 -6.38348E+03 -7.51622E+04  3.32324E+04 -5.35092E+04  4.64029E+04 -1.61808E+04
  4.16155E+04  1.08472E+04  3.07921E+04  2.44460E+04  1.57462E+04  2.83540E+04 -4.57151E+03  2.68601E+04
 -2.16332E+04  1.26584E+04 -1.90941E+04 -4.24338E+03  4.33879E+03 -7.38833E+03  2.09877E+04  1.06125E+04
  7.39459E+03  3.35006E+04 -3.04623E+04  3.41238E+04 -6.13803E+04  2.12781E+03 -5.56020E+04 -4.13918E+04
 -1.24038E+04 -6.08828E+04  3.83848E+04 -4.39723E+04  5.56462E+04 -1.90450E+03  3.22982E+04  3.05956E+04
 -6.65623E+03  3.32969E+04 -2.83948E+04  1.35679E+04 -2.78612E+04 -5.39552E+03 -1.46750E+04 -1.01569E+04
 -7.54435E+03 -1.17048E+04 -9.76320E+02 -1.68785E+04  6.59899E+03 -2.24158E+04  1.52436E+04 -1.41034E+04
  1.20853E+04  4.40076E+03 -6.30059E+03  1.28625E+04 -1.95563E+04 -2.64575E+03 -8.24200E+03 -3.06323E+04
  2.10047E+04 -4.08280E+04  4.49742E+04 -1.84686E+04  4.24295E+04  1.86195E+04  1.43058E+04  4.19185E+04
 -1.53698E+04  3.14197E+04 -2.36195E+04  1.04250E+03 -8.51171E+03 -2.63346E+04  2.05055E+04 -3.12866E+04
  3.83042E+04 -7.42380E+03  3.19887E+04  2.29132E+04  1.56495E+04  4.30716E+04 -7.69926E+03  4.58597E+04
 -2.88603E+04  3.03274E+04 -3.77373E+04  8.48321E+03 -3.86376E+04 -1.50372E+04 -2.14744E+04 -3.49945E+04
  6.84871E+03 -3.45700E+04  2.94593E+04 -1.28038E+04  2.69860E+04  1.06951E+04  3.09852E+03  1.78818E+04
 -1.30966E+04  7.14138E+03 -9.57272E+03 -7.60637E+03  5.76221E+03 -1.01738E+04  1.75686E+04  6.63102E+03
  1.24696E+04  2.17585E+04 -6.53543E+03  2.35445E+04 -2.17983E+04  9.57336E+03 -2.54212E+04 -6.46463E+03
 -1.71792E+04 -1.67401E+04 -6.08361E+03 -1.72841E+04  3.61148E+03 -1.53195E+04  1.29011E+04 -1.49993E+04
  2.17974E+04 -1.22185E+04  2.88631E+04  1.18848E+03  2.18676E+04  1.66717E+04  4.30361E+03  3.27990E+04
 -1.65570E+04  2.80580E+04 -2.62759E+04  9.37829E+03 -1.98047E+04 -1.03263E+04 -3.77815E+03 -1.38159E+04
  2.45142E+03 -3.93186E+03 -3.20499E+03  5.42438E+03 -1.32699E+04  5.25803E+03 -1.40816E+04 -5.11768E+03
 -8.58890E+03 -1.58944E+04  4.66230E+03 -1.97998E+04  1.32303E+04 -1.44223E+04  1.50887E+04 -1.48225E+03
  9.31460E+03  1.14002E+04 -8.82221E+02  1.61565E+04 -1.03487E+04  9.08132E+03 -1.56846E+04 -3.48536E+03
 -1.21424E+04 -1.45326E+04 -1.29964E+03 -1.94709E+04  9.06086E+03 -1.58584E+04  1.64636E+04 -7.44525E+03
  1.49035E+04  8.27043E+02  1.08001E+04  4.08064E+03  5.45895E+03  2.86640E+02  7.80855E+03 -1.66986E+03
  1.44613E+04  2.81820E+03  1.53511E+04  1.29226E+04  9.65112E+03  2.56884E+04 -3.24116E+03  2.76253E+04
 -1.62344E+04  2.14580E+04 -2.57634E+04  1.02469E+04 -2.63536E+04 -1.97457E+03 -2.22508E+04 -1.50592E+04
 -1.04608E+04 -2.13629E+04  6.92392E+03 -2.00283E+04  1.71141E+04 -1.09032E+04  1.60122E+04  3.76715E+03
  6.76408E+03  1.14580E+04 -7.59944E+03  1.08377E+04 -1.37075E+04  2.83470E+03 -1.07625E+04 -8.33082E+03
 -2.77798E+02 -1.29137E+04  6.42021E+03 -9.82236E+03  8.13910E+03 -1.23808E+03  1.37097E+03  5.24251E+03
 -5.60843E+03  1.43639E+03 -4.06438E+03 -4.85028E+03  8.16612E+02 -1.06991E+04  8.16412E+03 -1.07716E+04
  1.30104E+04 -5.25094E+03  1.30217E+04  2.65773E+03  1.14195E+04  9.98010E+03  5.11412E+03  1.53179E+04
 -1.98590E+03  1.67625E+04 -1.04711E+04  1.11341E+04 -1.21205E+04  3.01231E+03 -8.84442E+03 -1.91588E+03
 -4.82869E+03 -3.64088E+03 -6.69377E+02  1.32482E+03 -2.03404E+03  2.07992E+03 -4.00433E+03  3.87524E+03
 -8.57022E+03 -6.94206E+02 -8.93417E+03 -7.48402E+03 -3.72854E+03 -1.19957E+04  3.87947E+03 -9.18962E+03
  7.57704E+03 -3.85345E+03  5.37538E+03  2.32181E+03  6.31447E+02  3.36371E+03 -3.82138E+03  4.26830E+01
 -3.64891E+03 -5.50858E+03 -4.33323E+02 -7.67629E+03  4.38712E+03 -8.48252E+03  1.05571E+04 -4.46045E+03
  1.24364E+04  8.79776E+02  9.17159E+03  6.59228E+03  1.74678E+03  9.23910E+03 -5.25244E+03  8.84418E+03
 -7.54969E+03  2.74371E+03 -3.86991E+03 -1.50316E+03  1.33638E+03 -2.31502E+03  5.05878E+03 -1.01856E+03
  4.25586E+03  3.72155E+03  7.33109E+02  6.68048E+03 -4.87960E+03  6.62315E+03 -8.36074E+03  2.12259E+03
 -5.35395E+03 -4.11141E+03  5.97420E+01 -7.30644E+03  4.10655E+03 -3.28825E+03  3.83359E+03  1.25652E+03
  4.08706E+02  3.81978E+03 -4.50943E+03  5.20098E+03 -5.26923E+03  2.67759E+03 -4.94343E+03 -1.24556E+03
 -3.52519E+03 -6.47645E+03  1.09934E+03 -7.47707E+03  6.66016E+03 -4.89067E+03  7.34321E+03  9.56498E+02
  4.97274E+03  5.78885E+03 -1.60589E+02  8.07195E+03 -5.55723E+03  4.57867E+03 -5.61093E+03 -4.74824E+02
 -5.98577E+03 -5.35963E+03 -1.22753E+03 -5.63121E+03  2.94298E+03 -5.11987E+03  3.33445E+03 -2.88829E+03
  2.70761E+03  5.13061E+02 -1.79354E+02  1.28188E+03  3.80815E+02 -5.59962E+02  1.92939E+02 -2.41880E+03
  4.45209E+03 -1.02257E+03  6.04029E+03  6.97469E+02  6.43351E+03  3.80660E+03  5.59920E+03  8.33539E+03
 -1.49367E+03  9.45279E+03 -8.54418E+03  7.51457E+03 -1.10070E+04  1.56843E+03 -8.34620E+03 -3.02040E+03
 -4.66753E+03 -6.96577E+03 -3.20090E+02 -5.94375E+03  2.21685E+03 -2.36830E+03  2.10728E+03 -2.37917E+03
  1.55102E+03 -1.65033E+03  2.24885E+03 -2.49345E+03  3.93481E+03 -1.44951E+03  4.04656E+03  2.06224E+02
  4.94153E+03  1.20685E+03  1.41935E+03  3.56777E+03 -1.82770E+03  3.51729E+03 -4.81017E+03  3.23094E+03
 -5.79158E+03 -1.01635E+03 -2.52437E+03 -4.06616E+03  1.75772E+02 -5.81003E+03  3.71156E+03 -6.02133E+03
  5.92758E+03 -3.78273E+03  7.99640E+03  5.25430E+02  5.49482E+03  4.83186E+03  1.19135E+03  6.76776E+03
 -2.30860E+03  6.44025E+03 -3.76983E+03  1.95781E+03 -2.23904E+03 -1.13613E+03 -4.14675E+02 -8.40790E+02
 -5.26901E+02  1.93364E+02 -1.02113E+03  1.98650E+03 -2.69405E+03  1.10246E+03 -4.36719E+03 -5.02126E+02
 -2.41917E+03 -4.52538E+03  9.09257E+02 -5.55136E+03  3.28294E+03 -5.07347E+03  4.52277E+03 -1.66041E+03
  4.81666E+03  3.11189E+03  2.23971E+03  3.91189E+03 -6.77533E+02  5.09053E+03 -3.33461E+03  2.96325E+03
 -4.22607E+03  4.90829E+02 -3.62849E+03 -2.83350E+03 -2.73344E+01 -3.93739E+03  1.85625E+03 -3.07171E+03
  3.21229E+03 -1.73998E+03  1.73941E+03  6.04395E+02  5.10480E+02  1.90772E+03  9.41632E+02  5.53012E+02
  1.85368E+03  5.19072E+02  1.27679E+03  9.24190E+02  1.43443E+03  2.42360E+03  1.43275E+03  2.00339E+03
 -1.31503E+03  3.63483E+03 -3.17286E+03  4.48396E+03 -4.01149E+03  1.28150E+03 -5.15168E+03 -7.06779E+02
 -1.91953E+03 -4.80437E+03  7.18512E+02 -5.53976E+03  2.28858E+03 -3.17810E+03  3.76709E+03 -1.08469E+03
  3.01125E+03  1.96651E+03  4.35257E+02  2.49547E+03 -8.57053E+02  1.57509E+03 -1.45329E+03 -1.12760E+02
 -9.07696E+02 -2.01789E+03  1.57432E+03 -1.87665E+03  1.90117E+03 -1.14007E+03  1.51199E+03  4.84129E+02
  1.10489E+03  6.38199E+02  6.10111E+02 -2.32771E+01 -3.94745E+02  8.81230E+02  1.56467E+03 -3.64430E+02
  1.10842E+02 -9.16473E+01  2.21241E+03  7.45681E+02  2.31728E+02  2.57712E+03 -3.61251E+02  3.42856E+03
 -2.02842E+03  1.40589E+03 -2.45337E+03  3.14140E+02 -2.63091E+03 -8.00311E+02 -7.22964E+02 -1.51067E+03
  3.14560E+02 -1.32103E+03  1.23679E+03 -1.06695E+03  7.49495E+02  1.03563E+03 -8.09203E+02  1.14428E+03
 -1.84154E+03  8.38604E+02 -1.50480E+03 -1.45198E+03 -1.04555E+03 -2.50421E+03  2.44695E+02 -2.05107E+03
  8.35330E+02 -7.63293E+02  1.08072E+03  2.70850E+01  1.79459E+03 -1.00839E+02  2.87447E+02  1.48891E+03
 -4.13225E+02  1.50324E+02 -1.08574E+03 -2.54117E+02  4.70115E+02 -1.19533E+03  2.12073E+03 -1.43652E+03
  2.07614E+03  3.18220E+02  3.23523E+03  1.40018E+03  1.20758E+03  2.37118E+03 -5.87841E+02  2.62816E+03
 -1.85745E+03  3.11515E+02 -1.90856E+03 -3.51543E+02 -1.05137E+03 -1.68579E+03  3.19583E+02 -9.35151E+02
  1.82349E+03 -1.01777E+03  1.22758E+03  6.00595E+02  3.63934E+02  1.64592E+03  1.85289E+02  1.28779E+03
 -6.46451E+02  1.24329E+03 -3.20542E+02  1.62731E+02  8.33252E+01  1.55518E+02 -7.33506E+02  8.61948E+02
 -7.04352E+02  1.32918E+03 -2.14605E+03  1.03407E+03 -1.84478E+03  9.62890E+01 -3.14183E+03 -1.34016E+03
 -1.49842E+03 -3.11211E+03  7.50796E+02 -3.46161E+03  1.42966E+03 -2.98717E+03  3.43702E+03 -1.38872E+03
  3.08539E+03 -6.02138E+01  1.71419E+03  2.02153E+03 -5.11966E+02  2.32834E+03 -8.00826E+02  1.61213E+03
 -1.27624E+03  7.99482E+02 -8.17550E+02 -1.89661E+02 -5.79546E+02  3.29432E+02 -5.36968E+02 -2.62340E+02
 -1.30000E+03  7.62703E+01 -8.09710E+02 -2.67977E+02  3.96035E+01 -6.35732E+02 -3.30497E+02 -1.07959E+03
  1.54071E+03 -7.80624E+02  7.89263E+02  1.21085E+02  1.55642E+03  1.07982E+03 -1.47929E+02  2.12215E+03
 -1.26366E+03  2.91224E+03 -2.28278E+03  1.77622E+03 -2.28081E+03 -2.46832E+02 -1.63261E+03 -1.64752E+03
 -1.21761E+03 -1.92247E+03  5.01348E+02 -1.75841E+03  9.62526E+02 -8.76056E+02  1.32563E+03  6.19607E+01
  8.60488E+02  3.13377E+02  4.42515E+01  5.53696E+02 -5.95316E+02 -2.76331E+02 -1.52401E+02 -2.21868E+02
  5.42658E+02  1.56987E+02  2.43673E+02  5.43960E+02  2.34712E+02  4.17954E+02  3.54524E+02  4.90134E+02
 -9.12690E+02  6.88387E+02 -8.20159E+02 -2.55227E+02 -1.30299E+03 -8.26127E+02  8.78275E+00 -1.37510E+03
  8.96349E+02 -1.11967E+03  8.54532E+02 -1.16052E+02  1.43622E+03 -7.35537E+02  7.97971E+02  1.17179E+03
  8.07226E+02  7.56116E+02 -2.69611E+02  8.60313E+02 -6.63074E+02  4.88947E+02 -4.66352E+02  2.90180E+02
 -2.07297E+02 -6.86698E+01 -4.51890E+02  5.24168E+02 -9.82163E+02  3.19396E+02 -1.09896E+03 -2.78887E+02
 -1.33873E+03 -8.12322E+01 -4.92462E+02 -1.10792E+03  9.30239E+02 -1.75509E+03  1.00135E+03  2.58222E+00
  1.33326E+03  2.63967E+02 -2.29216E+02  6.86103E+02 -6.18901E+01  1.44667E+03 -6.70916E+02  9.66736E+02
