 $NMID ID='MM_0lb_SNR800_20hz_g60_8.RAW', FMTDAT='(8E13.5)'
 TRAMP=1., VOLUME=1. $END
  3.10005E+05  1.93557E+02  3.37377E+05  2.50500E+05  8.44407E+04  3.37975E+05 -1.32378E+05  2.50741E+05
 -1.89910E+05  8.26567E+04 -1.11402E+05 -3.27673E+04  1.24070E+03 -5.03528E+04  5.37237E+04 -1.32172E+02
  3.51268E+04  5.26744E+04 -1.69775E+04  7.49228E+04 -6.05666E+04  6.30624E+04 -8.32452E+04  3.17318E+04
 -8.01399E+04 -1.11978E+04 -5.68813E+04 -5.07139E+04 -1.50539E+04 -6.88185E+04  2.70780E+04 -4.50147E+04
  3.94577E+04  3.80336E+03  1.57651E+04  4.75148E+04 -3.38647E+04  4.68853E+04 -6.60243E+04 -2.75721E+02
 -5.26042E+04 -5.60327E+04 -6.50721E+03 -7.57131E+04  3.36627E+04 -5.38860E+04  4.67251E+04 -1.66358E+04
  4.24649E+04  1.11912E+04  3.13936E+04  2.48392E+04  1.57033E+04  2.88619E+04 -4.87673E+03  2.68024E+04
 -2.19212E+04  1.26291E+04 -1.88292E+04 -4.50493E+03  4.69540E+03 -7.54098E+03  2.16325E+04  1.13792E+04
  7.75315E+03  3.40934E+04 -3.10911E+04  3.45428E+04 -6.19396E+04  2.25809E+03 -5.58948E+04 -4.14295E+04
 -1.23204E+04 -6.16189E+04  3.85853E+04 -4.40357E+04  5.64249E+04 -2.15646E+03  3.24230E+04  3.09787E+04
 -6.14864E+03  3.38980E+04 -2.89986E+04  1.41621E+04 -2.82728E+04 -5.19930E+03 -1.52437E+04 -1.04280E+04
 -7.58528E+03 -1.18786E+04 -1.20700E+03 -1.69643E+04  6.72983E+03 -2.29145E+04  1.50471E+04 -1.34894E+04
  1.18903E+04  4.67314E+03 -6.72862E+03  1.29989E+04 -1.99818E+04 -2.95110E+03 -7.97821E+03 -3.14706E+04
  2.14665E+04 -4.11969E+04  4.55801E+04 -1.86240E+04  4.27949E+04  1.86083E+04  1.48154E+04  4.25441E+04
 -1.52816E+04  3.16455E+04 -2.40588E+04  1.42440E+03 -8.59392E+03 -2.65527E+04  2.06566E+04 -3.17535E+04
  3.86551E+04 -7.63638E+03  3.23164E+04  2.27763E+04  1.63339E+04  4.34735E+04 -7.72800E+03  4.63253E+04
 -2.93204E+04  3.06882E+04 -3.86199E+04  8.45342E+03 -3.91852E+04 -1.52504E+04 -2.20052E+04 -3.53385E+04
  7.23307E+03 -3.51135E+04  2.95382E+04 -1.31346E+04  2.71790E+04  1.08270E+04  3.22220E+03  1.80065E+04
 -1.33814E+04  7.48908E+03 -9.57890E+03 -7.66222E+03  6.21916E+03 -1.02613E+04  1.73995E+04  6.42516E+03
  1.26321E+04  2.16400E+04 -6.49619E+03  2.36289E+04 -2.15590E+04  9.56079E+03 -2.54923E+04 -6.15164E+03
 -1.71389E+04 -1.65738E+04 -6.23097E+03 -1.74296E+04  3.61596E+03 -1.54132E+04  1.29918E+04 -1.50223E+04
  2.18416E+04 -1.18535E+04  2.88465E+04  1.63466E+03  2.15688E+04  1.70578E+04  4.15292E+03  3.28442E+04
 -1.62845E+04  2.81622E+04 -2.58964E+04  9.36805E+03 -1.97146E+04 -9.99865E+03 -4.05984E+03 -1.39356E+04
  2.39708E+03 -3.91723E+03 -3.02357E+03  5.58209E+03 -1.35152E+04  5.28669E+03 -1.39011E+04 -5.14700E+03
 -8.70282E+03 -1.57880E+04  4.63508E+03 -1.95967E+04  1.28571E+04 -1.43597E+04  1.50287E+04 -1.56189E+03
  9.24696E+03  1.08344E+04 -6.87102E+02  1.60653E+04 -1.03042E+04  9.00438E+03 -1.58188E+04 -3.32669E+03
 -1.15548E+04 -1.44801E+04 -1.32755E+03 -1.92706E+04  8.81024E+03 -1.58050E+04  1.64378E+04 -7.56437E+03
  1.46883E+04  5.74122E+02  1.06402E+04  4.04959E+03  5.28325E+03  6.02279E+02  7.57563E+03 -1.47157E+03
  1.39063E+04  2.84972E+03  1.49539E+04  1.26692E+04  9.17532E+03  2.49470E+04 -2.77849E+03  2.68525E+04
 -1.58332E+04  2.06444E+04 -2.49843E+04  9.79174E+03 -2.49633E+04 -1.72948E+03 -2.15834E+04 -1.44552E+04
 -1.01335E+04 -2.07929E+04  6.75337E+03 -1.92853E+04  1.67270E+04 -1.09083E+04  1.58140E+04  3.70946E+03
  6.11913E+03  1.12882E+04 -7.03229E+03  1.06023E+04 -1.31979E+04  2.50598E+03 -1.05429E+04 -8.10513E+03
 -1.32173E+02 -1.24753E+04  6.19974E+03 -9.53972E+03  8.14158E+03 -1.38442E+03  1.54931E+03  5.26209E+03
 -5.56290E+03  1.52537E+03 -3.85193E+03 -4.30960E+03  7.30106E+02 -1.03096E+04  7.97075E+03 -9.97027E+03
  1.21802E+04 -4.61993E+03  1.18658E+04  2.72506E+03  1.00543E+04  9.77402E+03  4.86461E+03  1.39199E+04
 -1.41553E+03  1.58462E+04 -9.50942E+03  9.90995E+03 -1.11603E+04  2.86948E+03 -8.46697E+03 -1.66573E+03
 -4.52829E+03 -3.38689E+03 -7.29675E+02  1.32238E+03 -1.93264E+03  2.06060E+03 -3.67331E+03  3.47271E+03
 -7.89493E+03 -2.11794E+02 -8.84960E+03 -7.16346E+03 -3.56895E+03 -1.14506E+04  3.55798E+03 -8.23752E+03
  7.15420E+03 -3.81069E+03  5.01857E+03  2.05009E+03  4.84123E+02  3.20187E+03 -3.40543E+03 -6.44547E+01
 -3.02820E+03 -5.03948E+03 -7.13332E+02 -7.39864E+03  3.90622E+03 -7.54761E+03  9.39977E+03 -3.96548E+03
  1.13321E+04  6.16655E+02  8.59196E+03  5.79812E+03  1.76508E+03  8.38541E+03 -5.01953E+03  7.85165E+03
 -6.88688E+03  2.83786E+03 -3.42302E+03 -1.45859E+03  1.26191E+03 -1.54290E+03  4.63548E+03 -9.56319E+02
  3.92039E+03  3.42754E+03  1.06432E+03  5.88497E+03 -4.19283E+03  6.44669E+03 -7.67471E+03  1.64801E+03
 -4.78184E+03 -3.51205E+03  4.79417E+02 -6.50020E+03  3.58869E+03 -3.28353E+03  3.19235E+03  1.05659E+03
  7.00245E+02  3.29487E+03 -3.78703E+03  4.25675E+03 -4.58631E+03  2.20833E+03 -4.45542E+03 -6.66425E+02
 -2.59342E+03 -5.39766E+03  1.08482E+03 -6.44965E+03  5.63075E+03 -4.44047E+03  5.83995E+03  8.69253E+02
  4.39022E+03  4.68882E+03  3.50817E+02  6.89324E+03 -4.62435E+03  3.90907E+03 -4.89048E+03 -4.17969E+02
 -5.30468E+03 -4.75243E+03 -1.21902E+03 -4.40964E+03  2.32670E+03 -4.39649E+03  2.66742E+03 -2.76597E+03
  2.77525E+03  9.01028E+01  2.20594E+02  9.48591E+02  6.46365E+02  2.94560E+02  4.37696E+01 -1.62640E+03
  3.09989E+03 -6.29629E+02  5.04828E+03  6.90098E+02  5.18620E+03  2.89729E+03  5.13004E+03  6.72180E+03
 -9.97207E+02  7.53917E+03 -7.04753E+03  5.99594E+03 -8.77917E+03  1.29105E+03 -6.94602E+03 -2.28161E+03
 -3.94051E+03 -6.05706E+03 -1.96938E+02 -4.62928E+03  1.83588E+03 -1.87254E+03  1.80465E+03 -1.74512E+03
  1.29687E+03 -1.58363E+03  1.90334E+03 -2.13504E+03  3.42400E+03 -1.35028E+03  3.34360E+03  5.32507E+02
  4.25294E+03  1.05251E+03  9.57630E+02  2.93675E+03 -1.65051E+03  2.27887E+03 -4.18893E+03  2.23692E+03
 -4.26233E+03 -1.31211E+03 -1.35665E+03 -2.78557E+03  5.31413E+02 -4.33295E+03  3.11171E+03 -4.58715E+03
  4.39979E+03 -2.70201E+03  5.93930E+03  6.72412E+01  4.55479E+03  3.63749E+03  9.88841E+02  5.04510E+03
 -2.07736E+03  5.21271E+03 -3.00396E+03  1.90762E+03 -1.23864E+03 -9.40118E+02 -2.29760E+02 -3.35458E+02
 -4.86143E+02  5.13463E+02 -8.59156E+02  1.92780E+03 -2.14666E+03  7.08400E+02 -3.58665E+03 -2.31844E+02
 -1.41122E+03 -3.54737E+03  8.53436E+02 -4.14803E+03  2.23784E+03 -3.57629E+03  2.82505E+03 -9.50029E+02
  3.45199E+03  2.26173E+03  1.64888E+03  2.65775E+03 -5.84968E+02  3.65581E+03 -2.17482E+03  2.33317E+03
 -2.92335E+03  3.66524E+02 -2.55727E+03 -1.78212E+03 -2.83363E+02 -2.79325E+03  1.08003E+03 -2.06130E+03
  2.49445E+03 -1.37253E+03  1.42166E+03  2.67206E+02  1.81149E+02  1.50155E+03  7.61005E+02  2.95713E+02
  1.64491E+03  6.74581E+02  1.04962E+03  7.72368E+02  9.00357E+02  2.27544E+03  1.11326E+03  1.56067E+03
 -1.26599E+03  2.42993E+03 -2.11052E+03  3.61502E+03 -2.21133E+03  1.36346E+03 -3.35420E+03 -1.70944E+02
 -1.29946E+03 -2.98575E+03  4.45889E+02 -4.00964E+03  1.38130E+03 -1.86455E+03  2.39138E+03 -8.46042E+02
  1.81236E+03  1.43180E+03 -4.58342E+01  1.84278E+03 -4.68454E+02  8.05743E+02 -1.09101E+03  2.42319E+02
 -2.18803E+02 -1.26073E+03  1.04807E+03 -9.47822E+02  1.07102E+03 -8.09236E+02  1.07313E+03  3.34656E+02
  5.25311E+02  9.86893E+01  4.63103E+02 -4.66168E+02 -3.79638E+02  5.58686E+02  1.18367E+03 -1.96967E+02
 -9.33234E+01 -2.76886E+02  1.71909E+03  5.11872E+02  1.65025E+02  1.82135E+03 -2.97184E+02  2.11391E+03
 -1.30440E+03  8.26845E+02 -1.66846E+03  5.84594E+01 -1.55354E+03 -6.13335E+02  1.93080E+02 -7.52291E+02
  6.59130E+02 -9.54951E+02  6.57122E+02 -5.62796E+02  1.11977E+02  1.12588E+03 -7.77617E+02  7.61696E+02
 -1.04043E+03  4.90970E+02 -6.75534E+02 -9.48292E+02 -3.30444E+02 -1.72091E+03  1.76235E+02 -1.23397E+03
  2.12557E+02 -2.00569E+02  6.01016E+02  1.17731E+02  9.52217E+02 -4.58881E+01  2.64806E+02  8.93763E+02
 -2.18147E+02  1.69519E+02 -6.40222E+02 -9.50684E+01  4.45415E+02 -3.46202E+02  1.25625E+03 -7.04391E+02
  7.73681E+02  2.90553E+02  2.53954E+03  3.34915E+02  1.24409E+03  6.38309E+02  4.70839E+01  1.50539E+03
 -1.06137E+03  3.63641E+01 -8.89070E+02 -7.76047E+01 -8.86775E+02 -9.90957E+02  3.72182E+02 -1.76466E+02
  1.24446E+03 -6.33878E+02  3.24924E+02  4.08443E+02  1.25693E+02  8.69480E+02  1.91006E+02  9.15646E+02
 -4.41386E+02  9.58219E+02 -2.19625E+02 -1.15970E+02  1.23581E+02  4.97605E+02 -4.97893E+02  5.89601E+02
 -6.43541E+02  1.00428E+03 -1.86155E+03  3.09202E+02 -1.20890E+03  2.82990E+02 -1.63086E+03 -4.67907E+02
 -3.74645E+02 -1.78234E+03  1.79409E+02 -1.83013E+03  6.26885E+02 -2.26884E+03  2.03565E+03 -8.17418E+02
  1.65273E+03 -4.30805E+02  8.47866E+02  1.04430E+03 -6.97462E+02  7.69973E+02 -3.51441E+02  9.12823E+02
 -4.64594E+02  7.07856E+02 -3.27418E+02 -6.81579E+01 -7.13281E+02  5.09008E+02 -9.20363E+02  6.27019E+01
 -1.27271E+03 -1.96219E+02 -6.79728E+02  1.35292E+02  1.38769E+02 -3.83955E+02 -5.22615E+02 -8.70554E+02
  1.08849E+03 -4.47549E+02 -1.84776E+01  2.92107E+02  6.44913E+02  8.09253E+02 -4.82519E+02  8.47688E+02
 -9.42905E+02  1.55376E+03 -8.82946E+02  8.87739E+02 -9.17983E+02 -1.52473E+02 -6.13089E+02 -1.03814E+03
 -7.63759E+02 -9.51386E+02 -4.14863E+01 -7.24884E+02  3.39380E+02 -3.05603E+02  3.61698E+02  7.47452E+01
  5.74006E+02 -2.01243E+01  5.67920E+01  2.12147E+02 -8.81285E+01  5.02557E+01  7.96955E+01 -9.25923E+01
  4.59066E+02  2.99877E+02 -6.35425E+01  5.60936E+02 -2.23811E+02 -1.02146E+02  3.32365E+02 -3.94375E+01
 -3.97950E+02  4.69582E+02  1.09682E+02  2.22547E+02 -3.27754E+02 -1.51917E+02 -1.30070E+02 -5.23359E+02
  1.07963E+02 -3.65904E+02 -5.06541E+01  1.10136E+02  5.85850E+02 -6.72048E+02  3.87315E+02  5.57157E+02
  2.41040E+02 -1.51881E+01 -1.45146E+02  2.98084E+02 -2.36079E+02  6.47822E+02 -1.28352E+02  4.28580E+02
  6.58423E+01  3.61936E+01 -3.71887E+02  1.94735E+02 -6.00853E+02  3.50382E+02 -7.38984E+02 -1.97733E+02
 -6.20118E+02  6.02182E+02 -1.35158E+02 -7.82195E+02  3.91150E+02 -1.32727E+03  4.96253E+02 -7.16561E+01
  4.17875E+02 -3.17639E+01 -3.27421E+02 -3.38933E+01 -8.34157E+01  7.38881E+02 -7.04731E+01  5.32844E+02
