 $NMID ID='MM_0lb_SNR800_9hz_g40_51.RAW', FMTDAT='(8E13.5)'
 TRAMP=1., VOLUME=1. $END
  3.09847E+05  3.08484E+02  3.37979E+05  2.50804E+05  8.48954E+04  3.38319E+05 -1.32686E+05  2.51662E+05
 -1.90268E+05  8.37501E+04 -1.12377E+05 -3.24552E+04  4.04469E+02 -5.08312E+04  5.36351E+04 -7.10747E+02
  3.57529E+04  5.29248E+04 -1.65935E+04  7.60131E+04 -6.10907E+04  6.45760E+04 -8.50004E+04  3.24837E+04
 -8.21845E+04 -1.15102E+04 -5.78040E+04 -5.24012E+04 -1.52892E+04 -7.11683E+04  2.77030E+04 -4.64338E+04
  4.05266E+04  4.06215E+03  1.67888E+04  4.83448E+04 -3.44873E+04  4.76357E+04 -6.79243E+04 -3.10530E+02
 -5.44665E+04 -5.71187E+04 -7.16808E+03 -7.87640E+04  3.43448E+04 -5.66280E+04  4.96429E+04 -1.78613E+04
  4.48727E+04  1.10671E+04  3.24906E+04  2.64473E+04  1.59458E+04  3.03702E+04 -5.79510E+03  2.77158E+04
 -2.24338E+04  1.22269E+04 -1.84446E+04 -5.58038E+03  6.86233E+03 -7.22674E+03  2.34492E+04  1.34526E+04
  6.73732E+03  3.74475E+04 -3.35181E+04  3.68595E+04 -6.51394E+04  2.32385E+03 -5.83752E+04 -4.43504E+04
 -1.22931E+04 -6.52236E+04  4.12207E+04 -4.68400E+04  6.07741E+04 -2.47990E+03  3.64615E+04  3.39420E+04
 -5.94616E+03  3.85194E+04 -3.11008E+04  1.81807E+04 -3.26521E+04 -3.55844E+03 -1.90299E+04 -1.18895E+04
 -9.53158E+03 -1.48335E+04 -7.57066E+02 -1.96074E+04  7.48996E+03 -2.35064E+04  1.58127E+04 -1.26226E+04
  1.06158E+04  6.00590E+03 -1.02728E+04  1.28310E+04 -2.33437E+04 -6.28516E+03 -8.72180E+03 -3.64729E+04
  2.45701E+04 -4.61109E+04  5.11183E+04 -2.10313E+04  4.77913E+04  2.03751E+04  1.70319E+04  4.64912E+04
 -1.64814E+04  3.52349E+04 -2.71420E+04  2.72478E+03 -1.11681E+04 -2.92447E+04  2.14321E+04 -3.62353E+04
  4.44648E+04 -1.07885E+04  3.98558E+04  2.48304E+04  2.09014E+04  4.99617E+04 -8.00299E+03  5.44638E+04
 -3.44698E+04  3.74345E+04 -4.63266E+04  1.06247E+04 -4.64321E+04 -1.80969E+04 -2.56374E+04 -4.11155E+04
  7.55652E+03 -4.14084E+04  3.37939E+04 -1.67296E+04  3.16115E+04  1.10744E+04  5.17504E+03  2.04112E+04
 -1.40580E+04  9.79062E+03 -1.10091E+04 -7.18879E+03  5.50150E+03 -1.13881E+04  1.85366E+04  5.70444E+03
  1.43300E+04  2.30412E+04 -5.22641E+03  2.63915E+04 -2.34144E+04  1.39960E+04 -3.09353E+04 -3.32613E+03
 -2.47625E+04 -1.80599E+04 -1.12099E+04 -2.41318E+04  4.24722E+03 -2.43611E+04  1.89633E+04 -2.21091E+04
  3.10219E+04 -1.39728E+04  3.70689E+04  4.49265E+03  2.62107E+04  2.36070E+04  4.82454E+03  4.05608E+04
 -1.91916E+04  3.36617E+04 -3.00214E+04  1.15986E+04 -2.20075E+04 -1.02617E+04 -4.89630E+03 -1.33962E+04
  7.74713E+02 -1.27357E+03 -7.22749E+03  7.86467E+03 -1.98301E+04  4.74071E+03 -1.96832E+04 -9.35561E+03
 -1.17356E+04 -2.25688E+04  6.01357E+03 -2.68523E+04  1.80510E+04 -1.87920E+04  2.16421E+04 -2.07943E+03
  1.40234E+04  1.53922E+04 -9.56140E+02  2.25878E+04 -1.57811E+04  1.31362E+04 -2.30347E+04 -4.46029E+03
 -1.68516E+04 -2.02234E+04 -2.66760E+03 -2.71345E+04  1.23956E+04 -2.24599E+04  2.27445E+04 -1.16026E+04
  2.15269E+04 -1.91569E+02  1.50848E+04  5.08467E+03  8.84449E+03  1.48474E+03  1.13381E+04 -1.96781E+03
  2.13486E+04  2.74375E+03  2.43071E+04  1.74201E+04  1.68367E+04  3.65216E+04 -2.84591E+03  4.26835E+04
 -2.45570E+04  3.53243E+04 -4.03098E+04  1.83573E+04 -4.24562E+04 -2.95011E+03 -3.48611E+04 -2.47721E+04
 -1.38852E+04 -3.54092E+04  1.25553E+04 -3.11440E+04  2.69086E+04 -1.47334E+04  2.32781E+04  7.64519E+03
  8.42758E+03  1.79107E+04 -1.08535E+04  1.49433E+04 -1.92780E+04  2.50768E+03 -1.49536E+04 -1.29270E+04
 -7.99297E+02 -1.89715E+04  9.99159E+03 -1.42176E+04  1.28320E+04 -1.30758E+03  3.18834E+03  8.25884E+03
 -8.36189E+03  3.93398E+03 -8.77498E+03 -6.86193E+03 -1.56523E+03 -1.74975E+04  1.17841E+04 -1.89728E+04
  2.20069E+04 -1.09488E+04  2.48023E+04  3.43078E+03  2.17152E+04  1.76131E+04  1.04983E+04  2.77374E+04
 -5.24129E+03  2.94364E+04 -1.90685E+04  1.84686E+04 -2.10115E+04  3.84780E+03 -1.49126E+04 -5.60882E+03
 -6.04875E+03 -6.75164E+03 -4.27369E+02  3.77859E+02 -2.37276E+03  3.50399E+03 -7.23321E+03  5.20395E+03
 -1.38392E+04 -1.07445E+03 -1.37345E+04 -1.11513E+04 -5.55021E+03 -1.86456E+04  6.39244E+03 -1.51007E+04
  1.23549E+04 -6.42709E+03  8.86313E+03  4.23479E+03 -5.05045E+02  5.92554E+03 -7.48937E+03  2.02356E+02
 -7.05836E+03 -9.96782E+03 -1.51864E+03 -1.50367E+04  8.83308E+03 -1.58762E+04  1.91766E+04 -8.23577E+03
  2.28034E+04  2.16998E+03  1.62639E+04  1.34068E+04  3.12366E+03  1.82088E+04 -8.76618E+03  1.53509E+04
 -1.22520E+04  4.51846E+03 -5.94826E+03 -3.19193E+03  1.92763E+03 -3.61956E+03  8.01832E+03 -1.23689E+03
  7.03318E+03  6.65250E+03  1.41523E+03  1.20714E+04 -8.49090E+03  1.11354E+04 -1.45785E+04  2.90758E+03
 -1.02756E+04 -7.79504E+03  3.19062E+02 -1.26900E+04  8.27754E+03 -6.38118E+03  8.86111E+03  2.67960E+03
  2.01375E+03  9.01887E+03 -7.63584E+03  1.07794E+04 -1.29091E+04  5.06550E+03 -1.33706E+04 -4.79779E+03
 -7.58228E+03 -1.49245E+04  3.96879E+03 -1.70931E+04  1.43147E+04 -1.01594E+04  1.58907E+04  2.75694E+03
  9.45720E+03  1.24667E+04 -1.61956E+03  1.48592E+04 -1.13647E+04  8.40293E+03 -1.20166E+04 -1.20663E+03
 -1.03386E+04 -9.93940E+03 -2.15778E+03 -1.13120E+04  5.77256E+03 -8.79472E+03  7.49277E+03 -3.73822E+03
  4.56920E+03  1.73832E+03 -8.64896E+02  2.01302E+03 -6.78321E+02 -3.21079E+03  2.60247E+03 -7.04730E+03
  1.04373E+04 -4.62632E+03  1.52692E+04  1.85794E+03  1.48231E+04  1.00996E+04  9.83285E+03  1.97428E+04
 -4.42179E+03  2.22935E+04 -1.86777E+04  1.67239E+04 -2.42066E+04  3.41217E+03 -1.97723E+04 -8.98886E+03
 -9.96151E+03 -1.64121E+04 -6.91028E+02 -1.37814E+04  5.05119E+03 -7.75884E+03  4.64451E+03 -4.89456E+03
  3.60462E+03 -2.97076E+03  3.56056E+03 -3.87183E+03  5.68601E+03 -3.47976E+03  7.55100E+03 -1.25473E+03
  1.02869E+04  2.50259E+03  5.43930E+03  8.64547E+03 -2.28201E+03  1.05974E+04 -1.07542E+04  8.38391E+03
 -1.37058E+04 -1.37953E+03 -8.65626E+03 -9.43816E+03 -1.35238E+03 -1.50490E+04  8.46567E+03 -1.46915E+04
  1.56403E+04 -8.26764E+03  1.82710E+04  2.48928E+03  1.27870E+04  1.25381E+04  1.76042E+03  1.62956E+04
 -6.75190E+03  1.35163E+04 -9.75532E+03  4.89316E+03 -6.63179E+03 -1.64381E+03 -2.66188E+03 -1.78761E+03
 -1.11383E+03  1.00152E+02 -1.87908E+03  2.85580E+03 -5.83999E+03  2.19155E+03 -1.02419E+04 -1.26899E+03
 -6.85405E+03 -9.67455E+03  1.78066E+02 -1.40896E+04  8.40614E+03 -1.24569E+04  1.38399E+04 -3.98164E+03
  1.38030E+04  6.95294E+03  6.56909E+03  1.21510E+04 -2.72075E+03  1.39321E+04 -1.02532E+04  8.97231E+03
 -1.31441E+04  4.18542E+02 -9.82748E+03 -8.73045E+03 -9.31991E+02 -1.15601E+04  6.11105E+03 -8.40769E+03
  8.76966E+03 -2.93413E+03  5.75565E+03  2.24751E+03  2.09674E+03  4.32222E+03  1.10654E+03  1.38902E+03
  2.98010E+03  7.16963E+02  3.23862E+03  2.18650E+03  4.10353E+03  4.64900E+03  3.54337E+03  7.33883E+03
 -2.85176E+03  1.09848E+04 -9.67046E+03  1.11920E+04 -1.42212E+04  3.00236E+03 -1.50780E+04 -5.83665E+03
 -7.09984E+03 -1.39568E+04  2.32512E+03 -1.52699E+04  8.47231E+03 -1.02036E+04  1.15777E+04 -2.15629E+03
  8.75570E+03  5.54933E+03  1.93142E+03  8.15364E+03 -3.86228E+03  5.35985E+03 -5.87862E+03 -1.09874E+03
 -2.77994E+03 -6.28670E+03  3.46261E+03 -6.32896E+03  5.85622E+03 -3.07637E+03  5.73394E+03  1.23228E+03
  3.31518E+03  2.86854E+03  1.21939E+03  2.40082E+03 -6.92191E+02  2.21050E+03  1.89789E+03 -6.88635E+02
  2.46055E+03 -4.24356E+02  5.81927E+03  2.41656E+03  3.24097E+03  7.70756E+03 -1.08747E+03  1.01012E+04
 -6.67706E+03  6.53850E+03 -9.02823E+03  1.86090E+03 -7.84751E+03 -3.32658E+03 -3.69384E+03 -5.34973E+03
  8.57386E+02 -5.75311E+03  3.89117E+03 -2.81889E+03  3.01517E+03  2.94844E+03 -1.55970E+03  4.80887E+03
 -6.30453E+03  2.90197E+03 -7.09363E+03 -3.70268E+03 -3.75020E+03 -7.82687E+03  9.37599E+02 -8.04056E+03
  4.68814E+03 -4.45153E+03  5.89810E+03 -7.64748E+02  5.08058E+03  2.15538E+03  8.19567E+02  3.96703E+03
 -3.12299E+03  1.08180E+03 -3.43564E+03 -2.72920E+03  1.36374E+03 -5.70448E+03  7.14967E+03 -4.99823E+03
  8.71668E+03  5.82271E+02  9.11527E+03  5.94361E+03  3.12654E+03  9.66836E+03 -3.57383E+03  8.87394E+03
 -7.84755E+03  3.85553E+03 -8.38790E+03 -8.51764E+02 -4.17920E+03 -6.36828E+03  1.52710E+03 -5.41262E+03
  5.79093E+03 -2.55907E+03  5.13923E+03  2.49401E+03  1.91174E+03  5.42067E+03 -7.26799E+02  4.42256E+03
 -2.51514E+03  2.87256E+03 -2.05390E+03  1.37592E+03 -1.15458E+03  1.04853E+03 -1.44692E+03  1.88825E+03
 -2.61182E+03  3.49108E+03 -6.77823E+03  3.32918E+03 -9.36779E+03  7.85971E+01 -1.08292E+04 -6.19158E+03
 -5.65434E+03 -1.27283E+04  2.62699E+03 -1.48316E+04  9.40093E+03 -1.12374E+04  1.36083E+04 -4.10098E+03
  1.25351E+04  2.72446E+03  8.09783E+03  8.66720E+03  7.77712E+02  1.01148E+04 -3.89265E+03  7.17910E+03
 -5.82284E+03  2.56961E+03 -3.65254E+03 -1.35786E+03 -9.67992E+02 -1.01049E+03 -2.02161E+02 -3.24400E+02
 -1.91951E+03  3.26959E+02 -2.25064E+03  3.73081E+01 -3.31330E+02 -2.07558E+03  2.72626E+01 -3.52702E+03
  4.18592E+03 -2.95109E+03  6.12612E+03  1.26358E+02  6.63777E+03  4.78781E+03  1.92297E+03  9.42932E+03
 -4.67418E+03  1.11011E+04 -1.03697E+04  6.24968E+03 -1.18479E+04 -8.05492E+02 -8.74399E+03 -7.30573E+03
 -4.00652E+03 -1.00990E+04  2.76024E+03 -8.98684E+03  6.67706E+03 -5.01567E+03  6.42977E+03  5.27169E+02
  3.49808E+03  3.17412E+03 -5.04987E+02  2.87236E+03 -2.27499E+03  4.78987E+01  1.53481E+02 -2.22788E+03
  2.93346E+03 -1.61686E+03  3.97137E+03  1.31362E+03  2.39527E+03  4.25156E+03  1.33331E+02  5.22617E+03
 -4.21789E+03  4.29066E+03 -6.48931E+03  7.75127E+02 -5.99218E+03 -4.66156E+03 -7.42034E+02 -8.63705E+03
  4.87828E+03 -7.14630E+03  7.32528E+03 -2.25442E+03  7.72863E+03  2.28901E+03  4.03758E+03  6.33045E+03
  8.11721E+02  5.97984E+03 -2.99122E+03  5.58772E+03 -4.46647E+03  3.22643E+03 -3.44275E+03  2.78125E+02
 -2.07265E+03 -2.44858E+02 -1.82071E+03  9.35371E+02 -3.47309E+03  1.35520E+03 -5.06948E+03 -7.52953E+02
 -4.94743E+03 -3.31234E+03 -1.59828E+03 -6.49086E+03  3.07054E+03 -6.82330E+03  5.62051E+03 -3.43157E+03
  6.46994E+03  1.00127E+03  3.60699E+03  4.54847E+03 -7.08210E+02  6.69363E+03 -5.34650E+03  4.23266E+03
