 $NMID ID='MM_0lb_SNR800_15hz_g45_38.RAW', FMTDAT='(8E13.5)'
 TRAMP=1., VOLUME=1. $END
  3.09783E+05  3.52115E+02  3.37409E+05  2.50399E+05  8.46556E+04  3.37692E+05 -1.32214E+05  2.50933E+05
 -1.90263E+05  8.29632E+04 -1.11585E+05 -3.27234E+04  1.50078E+03 -5.03133E+04  5.37968E+04 -1.05349E+02
  3.55700E+04  5.27732E+04 -1.70164E+04  7.53411E+04 -6.08605E+04  6.31962E+04 -8.35409E+04  3.17715E+04
 -8.04810E+04 -1.12237E+04 -5.70237E+04 -5.09004E+04 -1.47745E+04 -6.92248E+04  2.73557E+04 -4.51943E+04
  3.96665E+04  3.97599E+03  1.60260E+04  4.77618E+04 -3.41992E+04  4.68850E+04 -6.63282E+04 -4.67449E+02
 -5.29307E+04 -5.67053E+04 -6.48941E+03 -7.62193E+04  3.36351E+04 -5.42355E+04  4.74758E+04 -1.71469E+04
  4.28586E+04  1.10015E+04  3.16029E+04  2.50415E+04  1.59174E+04  2.88211E+04 -4.86416E+03  2.71074E+04
 -2.19941E+04  1.25487E+04 -1.87170E+04 -4.73822E+03  5.15118E+03 -7.24566E+03  2.21879E+04  1.20305E+04
  7.30920E+03  3.45282E+04 -3.16767E+04  3.52189E+04 -6.24416E+04  2.16774E+03 -5.63879E+04 -4.21017E+04
 -1.26481E+04 -6.23091E+04  3.90959E+04 -4.46797E+04  5.72450E+04 -2.12211E+03  3.36590E+04  3.14810E+04
 -6.18499E+03  3.52015E+04 -2.94364E+04  1.51075E+04 -2.91367E+04 -4.66572E+03 -1.58268E+04 -1.06262E+04
 -7.92945E+03 -1.24767E+04 -7.55856E+02 -1.75980E+04  7.34019E+03 -2.32254E+04  1.52721E+04 -1.38171E+04
  1.17064E+04  4.99263E+03 -7.73719E+03  1.28291E+04 -2.06841E+04 -3.90353E+03 -8.27005E+03 -3.24962E+04
  2.24537E+04 -4.25064E+04  4.71446E+04 -1.92110E+04  4.38536E+04  1.90201E+04  1.49808E+04  4.33355E+04
 -1.62185E+04  3.28250E+04 -2.45276E+04  1.53938E+03 -9.31156E+03 -2.74281E+04  2.07390E+04 -3.24201E+04
  4.02455E+04 -8.61531E+03  3.42727E+04  2.34996E+04  1.75245E+04  4.51552E+04 -8.09804E+03  4.85930E+04
 -3.03741E+04  3.23745E+04 -4.04006E+04  9.14734E+03 -4.13224E+04 -1.62813E+04 -2.27931E+04 -3.67141E+04
  7.26130E+03 -3.67663E+04  3.07040E+04 -1.36846E+04  2.86468E+04  1.07949E+04  3.53885E+03  1.85284E+04
 -1.34554E+04  8.07962E+03 -1.02595E+04 -7.56102E+03  6.09707E+03 -1.03155E+04  1.75418E+04  6.26078E+03
  1.30590E+04  2.19480E+04 -6.19028E+03  2.44815E+04 -2.20867E+04  1.04337E+04 -2.68606E+04 -5.27982E+03
 -1.94430E+04 -1.69184E+04 -7.36359E+03 -1.91632E+04  3.84943E+03 -1.79398E+04  1.45796E+04 -1.68098E+04
  2.43630E+04 -1.22617E+04  3.09816E+04  2.34574E+03  2.29801E+04  1.86731E+04  4.01444E+03  3.52579E+04
 -1.73631E+04  2.93110E+04 -2.71793E+04  1.03467E+04 -2.06093E+04 -1.01980E+04 -4.30189E+03 -1.34441E+04
  1.94351E+03 -3.38554E+03 -4.24546E+03  6.24658E+03 -1.52784E+04  5.24148E+03 -1.52766E+04 -6.62727E+03
 -9.64830E+03 -1.78521E+04  5.07278E+03 -2.20621E+04  1.44992E+04 -1.57412E+04  1.68915E+04 -1.45362E+03
  1.02950E+04  1.25741E+04 -8.45718E+02  1.80908E+04 -1.20930E+04  1.02118E+04 -1.79864E+04 -3.84629E+03
 -1.32843E+04 -1.60582E+04 -1.46885E+03 -2.15037E+04  1.00135E+04 -1.77038E+04  1.83364E+04 -8.66764E+03
  1.63861E+04  4.49749E+02  1.21783E+04  4.37513E+03  6.05234E+03  9.19995E+02  9.01052E+03 -1.49449E+03
  1.62349E+04  2.66185E+03  1.78257E+04  1.46217E+04  1.17437E+04  2.83678E+04 -3.16943E+03  3.15283E+04
 -1.83512E+04  2.52954E+04 -2.97778E+04  1.25579E+04 -3.05109E+04 -1.98828E+03 -2.55115E+04 -1.78164E+04
 -1.11128E+04 -2.53265E+04  8.34088E+03 -2.30544E+04  1.98431E+04 -1.22372E+04  1.81445E+04  4.85850E+03
  6.86222E+03  1.33710E+04 -8.15870E+03  1.16372E+04 -1.55386E+04  3.03875E+03 -1.17318E+04 -9.43005E+03
  3.07981E+01 -1.41372E+04  7.37137E+03 -1.10212E+04  9.58615E+03 -1.46149E+03  1.88873E+03  5.93346E+03
 -6.47684E+03  2.14675E+03 -5.34948E+03 -5.00284E+03  9.43884E+00 -1.23392E+04  9.16234E+03 -1.29632E+04
  1.53625E+04 -6.70661E+03  1.59961E+04  2.64634E+03  1.41001E+04  1.20765E+04  6.58178E+03  1.79349E+04
 -2.71762E+03  1.99962E+04 -1.28080E+04  1.27560E+04 -1.44518E+04  3.35965E+03 -1.03727E+04 -3.21182E+03
 -5.21737E+03 -4.24443E+03 -6.70392E+02  1.32258E+03 -2.25379E+03  2.57872E+03 -4.43079E+03  4.24090E+03
 -9.83208E+03 -7.96870E+02 -1.05301E+04 -8.56528E+03 -4.20542E+03 -1.36469E+04  4.39420E+03 -1.04586E+04
  8.74272E+03 -4.61542E+03  6.23637E+03  2.60891E+03  2.39744E+02  3.71865E+03 -4.51480E+03  1.13178E+02
 -4.57543E+03 -6.57359E+03 -9.57790E+02 -9.26863E+03  5.27493E+03 -9.99049E+03  1.24618E+04 -5.35616E+03
  1.52078E+04  1.12347E+03  1.11380E+04  8.33853E+03  2.18139E+03  1.18481E+04 -6.52320E+03  1.01874E+04
 -8.60024E+03  3.17201E+03 -4.36319E+03 -1.68845E+03  1.34326E+03 -2.65100E+03  6.03348E+03 -1.00125E+03
  5.19775E+03  4.11062E+03  1.38164E+03  8.20273E+03 -5.60069E+03  7.78767E+03 -9.92050E+03  2.10736E+03
 -6.25920E+03 -4.83061E+03  5.85536E+02 -8.63971E+03  5.27508E+03 -4.13731E+03  5.14394E+03  1.70789E+03
  6.84965E+02  5.25495E+03 -5.15217E+03  6.59747E+03 -7.13180E+03  3.18903E+03 -6.94364E+03 -2.13984E+03
 -4.42546E+03 -8.66213E+03  1.70635E+03 -1.01582E+04  8.62436E+03 -6.07837E+03  9.27389E+03  1.75820E+03
  6.17434E+03  7.53877E+03 -3.57273E+02  9.24632E+03 -6.61434E+03  5.04602E+03 -7.12472E+03 -5.87378E+02
 -7.14203E+03 -6.61060E+03 -1.31437E+03 -6.76297E+03  3.72636E+03 -6.28918E+03  4.23948E+03 -2.71497E+03
  3.35267E+03  6.94135E+02 -2.06491E+02  1.34440E+03  2.25866E+02 -7.84079E+02  8.22647E+02 -3.56593E+03
  5.72256E+03 -2.06684E+03  7.98727E+03  1.23650E+03  8.02702E+03  5.17169E+03  6.24492E+03  1.06810E+04
 -2.13581E+03  1.20119E+04 -1.06884E+04  9.43911E+03 -1.41713E+04  1.72525E+03 -1.09818E+04 -4.15972E+03
 -5.90876E+03 -9.13036E+03 -2.22829E+02 -7.46012E+03  3.05605E+03 -3.64488E+03  2.54820E+03 -3.05201E+03
  1.93587E+03 -1.89051E+03  2.81815E+03 -2.68210E+03  4.02875E+03 -2.11297E+03  4.91709E+03  1.87113E+01
  5.90622E+03  1.32225E+03  2.11700E+03  4.94886E+03 -1.69872E+03  4.91553E+03 -5.99437E+03  3.99062E+03
 -7.48903E+03 -1.33729E+03 -3.80593E+03 -4.99055E+03 -3.53566E+01 -7.74365E+03  4.72430E+03 -7.67863E+03
  7.99251E+03 -4.65899E+03  9.66045E+03  7.77086E+02  7.07584E+03  6.68690E+03  1.59839E+03  8.73636E+03
 -3.57819E+03  7.89021E+03 -5.23292E+03  2.55662E+03 -3.16899E+03 -9.57636E+02 -1.31031E+03 -7.78174E+02
 -8.45267E+02  8.01061E+00 -1.31220E+03  2.29529E+03 -3.48025E+03  1.57996E+03 -5.28252E+03 -5.68709E+02
 -2.84077E+03 -5.46227E+03  4.22003E+02 -6.85217E+03  4.19047E+03 -6.76835E+03  6.03396E+03 -1.99701E+03
  6.69912E+03  3.85950E+03  3.09069E+03  5.82922E+03 -1.35739E+03  7.35185E+03 -4.43052E+03  4.33250E+03
 -6.21064E+03  3.16406E+02 -5.09616E+03 -3.79012E+03 -4.06274E+02 -5.24112E+03  2.82640E+03 -4.17037E+03
  4.32168E+03 -1.82836E+03  2.94792E+03  1.02756E+03  9.61297E+02  2.54190E+03  9.87368E+02  5.98909E+02
  1.77605E+03  9.81600E+02  1.67787E+03  1.53636E+03  1.96254E+03  2.83348E+03  1.92011E+03  3.14561E+03
 -1.60911E+03  4.89954E+03 -4.46562E+03  6.04688E+03 -5.96469E+03  1.85794E+03 -7.09757E+03 -1.88554E+03
 -3.00911E+03 -6.44830E+03  6.26132E+02 -7.34868E+03  3.45858E+03 -4.40592E+03  5.22805E+03 -1.07123E+03
  3.98052E+03  2.42539E+03  6.46742E+02  3.85301E+03 -1.57299E+03  2.34946E+03 -2.24204E+03 -3.61031E+02
 -1.15698E+03 -2.76568E+03  1.68411E+03 -2.87632E+03  2.27271E+03 -1.54827E+03  2.27737E+03  6.48156E+02
  1.53190E+03  8.90094E+02  9.45800E+02  7.81323E+01 -4.95072E+02  1.17146E+03  1.60879E+03 -3.63039E+02
  4.29158E+02 -5.27925E+01  2.56199E+03  1.13978E+03  8.08455E+02  3.60140E+03 -5.80257E+02  4.79319E+03
 -2.74872E+03  2.44568E+03 -3.28011E+03  6.24792E+02 -3.65025E+03 -1.19017E+03 -8.22750E+02 -1.68020E+03
  6.86797E+02 -2.30665E+03  1.17853E+03 -1.09914E+03  1.26267E+03  1.78487E+03 -7.48702E+02  1.98685E+03
 -2.26880E+03  9.79661E+02 -2.54048E+03 -1.79957E+03 -1.25161E+03 -3.56933E+03  7.19561E+02 -2.90807E+03
  1.81741E+03 -1.43510E+03  1.93606E+03  5.09135E+00  1.85942E+03  2.28280E+02  3.38351E+02  1.69571E+03
 -1.05093E+03  1.86747E+02 -1.40337E+03 -5.38530E+02  5.86353E+02 -2.13213E+03  2.89877E+03 -1.70965E+03
  3.05724E+03  3.49518E+02  4.22783E+03  1.79413E+03  1.31046E+03  3.53689E+03 -1.15930E+03  3.24478E+03
 -2.55679E+03  1.21935E+03 -3.02356E+03 -4.54338E+02 -1.73872E+03 -2.32807E+03  6.07707E+02 -1.77215E+03
  2.42888E+03 -1.09024E+03  1.61320E+03  1.09538E+03  7.45049E+02  2.20248E+03  2.12780E+02  2.05239E+03
 -7.71771E+02  1.33683E+03 -8.79479E+02  2.81898E+02 -7.82698E+01  7.54262E+02 -8.47611E+02  7.92360E+02
 -1.04628E+03  1.62658E+03 -2.73095E+03  1.02854E+03 -3.57756E+03  3.35051E+02 -4.15693E+03 -2.13145E+03
 -1.78858E+03 -4.45243E+03  8.29547E+02 -5.33681E+03  2.52833E+03 -4.25355E+03  5.19130E+03 -1.79264E+03
  4.77617E+03  7.44849E+02  2.73153E+03  2.80417E+03 -2.35583E+02  3.10508E+03 -1.43358E+03  2.66713E+03
 -1.68050E+03  1.13500E+03 -1.07821E+03 -5.22821E+02 -4.09593E+02 -3.11068E+01 -6.70473E+02  1.36031E+01
 -1.40038E+03 -4.51972E+01 -1.14981E+03  9.85299E+01 -3.79149E+01 -8.51155E+02 -3.15503E+02 -1.18596E+03
  1.88551E+03 -1.30472E+03  1.70451E+03  7.18678E+01  2.32410E+03  1.92377E+03  1.54404E+02  2.86344E+03
 -1.62292E+03  4.03991E+03 -3.44125E+03  2.27555E+03 -3.67748E+03 -6.82423E+02 -2.75071E+03 -2.43414E+03
 -1.38401E+03 -3.11956E+03  6.02817E+02 -2.50031E+03  1.91513E+03 -1.33083E+03  1.88275E+03  2.80790E+02
  1.18983E+03  8.08412E+02 -1.25452E+02  9.31615E+02 -5.09443E+02 -1.13370E+02  2.31635E+02 -9.47494E+02
  1.28144E+03 -3.12863E+02  8.27146E+02  7.15647E+02  6.02735E+02  1.16961E+03  6.62475E+01  1.29424E+03
 -1.39776E+03  1.27621E+03 -1.65889E+03  3.61607E+02 -1.46444E+03 -1.11045E+03 -2.29969E+02 -2.60637E+03
  1.04123E+03 -2.02251E+03  1.74070E+03 -2.79391E+02  1.97602E+03 -5.87293E+01  1.14654E+03  1.82051E+03
  1.12101E+03  1.84167E+03 -6.84061E+02  1.15022E+03 -1.34946E+03  1.20103E+03 -9.45005E+02  1.18479E+02
 -3.20563E+02 -2.52740E+02 -7.09909E+02  3.85533E+02 -1.09791E+03  3.28952E+02 -1.69849E+03 -5.10003E+02
 -1.77323E+03 -6.98769E+02 -6.92125E+02 -1.80381E+03  9.81057E+02 -2.40470E+03  1.71093E+03 -8.00706E+02
  1.66778E+03  1.63960E+02  6.78822E+02  1.06561E+03 -1.49817E+02  1.75014E+03 -1.17547E+03  1.06256E+03
