 $NMID ID='MM_0lb_SNR800_8hz_g40_51.RAW', FMTDAT='(8E13.5)'
 TRAMP=1., VOLUME=1. $END
  3.10058E+05  5.03910E+02  3.38078E+05  2.50704E+05  8.47978E+04  3.38817E+05 -1.32811E+05  2.51752E+05
 -1.90812E+05  8.39392E+04 -1.12837E+05 -3.24541E+04  2.64580E+02 -5.05466E+04  5.37314E+04 -8.82474E+02
  3.57126E+04  5.23786E+04 -1.68140E+04  7.60338E+04 -6.12070E+04  6.43782E+04 -8.53964E+04  3.25198E+04
 -8.23777E+04 -1.16702E+04 -5.80819E+04 -5.20272E+04 -1.51130E+04 -7.12211E+04  2.82313E+04 -4.64800E+04
  4.07822E+04  3.61867E+03  1.69015E+04  4.82595E+04 -3.49577E+04  4.85690E+04 -6.81179E+04  3.90106E+01
 -5.46479E+04 -5.83714E+04 -7.50594E+03 -7.85918E+04  3.46945E+04 -5.71329E+04  4.97387E+04 -1.84755E+04
  4.53397E+04  1.14943E+04  3.30793E+04  2.67407E+04  1.58013E+04  3.03060E+04 -5.57845E+03  2.77047E+04
 -2.26748E+04  1.21449E+04 -1.84297E+04 -5.60695E+03  7.18681E+03 -7.21825E+03  2.35874E+04  1.38968E+04
  7.03166E+03  3.72221E+04 -3.38655E+04  3.63946E+04 -6.60969E+04  2.31942E+03 -5.92853E+04 -4.45510E+04
 -1.26489E+04 -6.61187E+04  4.13212E+04 -4.73187E+04  6.11483E+04 -2.72240E+03  3.69227E+04  3.43454E+04
 -5.55986E+03  3.95090E+04 -3.19014E+04  1.91415E+04 -3.36494E+04 -3.39820E+03 -1.93546E+04 -1.22700E+04
 -9.74724E+03 -1.49914E+04  7.99132E+01 -1.96516E+04  8.46008E+03 -2.34156E+04  1.59339E+04 -1.27877E+04
  1.04603E+04  6.19177E+03 -1.06845E+04  1.32449E+04 -2.34070E+04 -6.70954E+03 -8.78541E+03 -3.74658E+04
  2.50109E+04 -4.67236E+04  5.24782E+04 -2.11363E+04  4.84572E+04  2.08589E+04  1.68870E+04  4.71324E+04
 -1.69243E+04  3.65145E+04 -2.74443E+04  2.67407E+03 -1.20206E+04 -2.92384E+04  2.16249E+04 -3.70778E+04
  4.48189E+04 -1.10533E+04  4.08322E+04  2.47169E+04  2.14489E+04  5.13077E+04 -8.35861E+03  5.63110E+04
 -3.59465E+04  3.83578E+04 -4.77945E+04  1.09230E+04 -4.77783E+04 -1.85786E+04 -2.63072E+04 -4.21349E+04
  8.02491E+03 -4.21502E+04  3.37342E+04 -1.69874E+04  3.20454E+04  1.12446E+04  5.39074E+03  2.05088E+04
 -1.38827E+04  9.91259E+03 -1.12009E+04 -7.67155E+03  5.21743E+03 -1.13332E+04  1.89485E+04  5.18274E+03
  1.49295E+04  2.26017E+04 -5.28888E+03  2.73450E+04 -2.31053E+04  1.43872E+04 -3.14158E+04 -3.21811E+03
 -2.53461E+04 -1.87190E+04 -1.18549E+04 -2.51491E+04  4.29996E+03 -2.60599E+04  2.00533E+04 -2.30571E+04
  3.20823E+04 -1.44945E+04  3.87109E+04  4.80843E+03  2.71176E+04  2.44937E+04  4.81125E+03  4.14230E+04
 -1.97294E+04  3.36388E+04 -3.04977E+04  1.16894E+04 -2.21311E+04 -1.00738E+04 -4.84825E+03 -1.28973E+04
  6.52047E+02 -1.34517E+03 -7.81132E+03  8.29584E+03 -2.01235E+04  5.01653E+03 -2.03550E+04 -9.17670E+03
 -1.21597E+04 -2.38236E+04  6.44588E+03 -2.81893E+04  1.89881E+04 -2.00499E+04  2.29618E+04 -1.55648E+03
  1.40323E+04  1.59197E+04 -1.17742E+03  2.36995E+04 -1.72364E+04  1.32319E+04 -2.36919E+04 -4.79842E+03
 -1.74092E+04 -2.12843E+04 -2.69332E+03 -2.83094E+04  1.27024E+04 -2.36759E+04  2.37359E+04 -1.25770E+04
  2.23784E+04 -2.89089E+02  1.64416E+04  5.06938E+03  8.85361E+03  1.27329E+03  1.26430E+04 -1.93250E+03
  2.20274E+04  3.03782E+03  2.58732E+04  1.80881E+04  1.75791E+04  3.80095E+04 -2.26089E+03  4.46292E+04
 -2.55546E+04  3.74844E+04 -4.18545E+04  1.93900E+04 -4.51712E+04 -3.22163E+03 -3.63846E+04 -2.63289E+04
 -1.45838E+04 -3.74657E+04  1.32262E+04 -3.28044E+04  2.79532E+04 -1.52780E+04  2.40124E+04  8.07077E+03
  8.37367E+03  1.88271E+04 -1.16338E+04  1.55582E+04 -2.03203E+04  2.03211E+03 -1.52179E+04 -1.29990E+04
 -1.07886E+03 -1.96117E+04  1.05871E+04 -1.45601E+04  1.36816E+04 -1.36273E+03  3.36994E+03  8.74361E+03
 -8.95939E+03  4.17099E+03 -8.99412E+03 -7.02656E+03 -1.96877E+03 -1.83460E+04  1.19212E+04 -1.98866E+04
  2.29562E+04 -1.15342E+04  2.67740E+04  3.46860E+03  2.33075E+04  1.88646E+04  1.09293E+04  2.95845E+04
 -5.40993E+03  3.20634E+04 -2.07849E+04  1.93802E+04 -2.28162E+04  3.54702E+03 -1.57189E+04 -6.30229E+03
 -6.72865E+03 -7.25159E+03 -7.95953E+02  4.18985E+02 -3.08508E+03  2.98044E+03 -7.42539E+03  5.44126E+03
 -1.44257E+04 -1.27117E+03 -1.53176E+04 -1.17291E+04 -6.24475E+03 -1.96147E+04  6.52406E+03 -1.60220E+04
  1.27973E+04 -5.98630E+03  8.80173E+03  4.14910E+03 -2.86216E+02  6.28968E+03 -8.22833E+03 -2.17391E+02
 -8.01989E+03 -9.92716E+03 -1.05548E+03 -1.54560E+04  9.56463E+03 -1.70190E+04  2.02512E+04 -9.33420E+03
  2.42729E+04  2.30383E+03  1.76353E+04  1.49518E+04  3.37366E+03  1.99487E+04 -9.58675E+03  1.58690E+04
 -1.24252E+04  4.92060E+03 -6.69306E+03 -3.83154E+03  2.33075E+03 -4.34233E+03  8.32943E+03 -1.00732E+03
  7.95129E+03  7.31297E+03  1.81202E+03  1.28471E+04 -9.14064E+03  1.25431E+04 -1.59499E+04  2.71257E+03
 -1.11461E+04 -8.88469E+03  2.93007E+01 -1.40373E+04  9.12804E+03 -7.31079E+03  9.73287E+03  3.27229E+03
  2.19560E+03  1.05836E+04 -8.01256E+03  1.23650E+04 -1.42463E+04  5.23146E+03 -1.45575E+04 -5.53423E+03
 -8.72266E+03 -1.63409E+04  4.28182E+03 -1.86987E+04  1.61518E+04 -1.09397E+04  1.75220E+04  3.17927E+03
  1.07641E+04  1.36157E+04 -2.07047E+03  1.65138E+04 -1.23438E+04  9.64438E+03 -1.34109E+04 -1.08147E+03
 -1.16142E+04 -1.08357E+04 -1.46410E+03 -1.25166E+04  6.52575E+03 -9.96515E+03  8.02530E+03 -3.68935E+03
  4.72341E+03  2.28411E+03 -1.15658E+03  1.76775E+03 -9.61435E+02 -3.81863E+03  2.44568E+03 -8.02465E+03
  1.17357E+04 -5.49800E+03  1.67601E+04  1.77666E+03  1.65040E+04  1.18083E+04  1.06095E+04  2.21400E+04
 -4.94488E+03  2.51957E+04 -2.06951E+04  1.84427E+04 -2.69412E+04  3.54861E+03 -2.16482E+04 -9.61774E+03
 -1.12887E+04 -1.77974E+04 -2.84305E+02 -1.49483E+04  5.18418E+03 -8.82268E+03  4.92497E+03 -5.32960E+03
  4.06777E+03 -3.24529E+03  4.07375E+03 -4.07548E+03  5.85426E+03 -3.75182E+03  8.51365E+03 -1.50923E+03
  1.13035E+04  2.41834E+03  6.35103E+03  9.86191E+03 -2.26711E+03  1.22961E+04 -1.17636E+04  8.92920E+03
 -1.47759E+04 -1.47120E+03 -1.00636E+04 -1.09515E+04 -1.19732E+03 -1.66688E+04  8.90622E+03 -1.66202E+04
  1.72498E+04 -9.30477E+03  2.05801E+04  3.16286E+03  1.44731E+04  1.43363E+04  1.90190E+03  1.85566E+04
 -7.82259E+03  1.50076E+04 -1.11120E+04  5.11656E+03 -7.42273E+03 -1.70561E+03 -3.22770E+03 -2.02196E+03
 -1.74185E+03  2.75147E+01 -2.38239E+03  3.11297E+03 -6.35434E+03  2.28323E+03 -1.06811E+04 -1.54300E+03
 -7.76395E+03 -1.08418E+04  1.27726E+01 -1.56521E+04  9.94302E+03 -1.43845E+04  1.58270E+04 -4.55562E+03
  1.53609E+04  7.60847E+03  7.37847E+03  1.38156E+04 -3.38477E+03  1.58365E+04 -1.10909E+04  1.01109E+04
 -1.50420E+04  5.02256E+02 -1.11134E+04 -9.51405E+03 -1.28055E+03 -1.34091E+04  7.22890E+03 -9.47770E+03
  1.00490E+04 -3.30045E+03  6.86539E+03  2.48573E+03  2.42235E+03  4.61976E+03  1.47374E+03  2.23234E+03
  3.02869E+03  1.17164E+03  3.75535E+03  2.27875E+03  4.82370E+03  5.24792E+03  4.19868E+03  8.33143E+03
 -3.33539E+03  1.25328E+04 -1.09161E+04  1.25148E+04 -1.64960E+04  3.19186E+03 -1.69092E+04 -7.35003E+03
 -8.44918E+03 -1.62142E+04  2.55145E+03 -1.78565E+04  9.78099E+03 -1.09423E+04  1.32406E+04 -2.95911E+03
  1.00901E+04  5.81755E+03  2.06031E+03  9.05069E+03 -4.72587E+03  5.79468E+03 -6.95979E+03 -9.21486E+02
 -2.97697E+03 -7.02649E+03  3.70835E+03 -7.51149E+03  6.52888E+03 -3.63664E+03  6.26019E+03  1.58827E+03
  3.62117E+03  3.29449E+03  1.28770E+03  3.38625E+03 -1.01590E+03  2.45496E+03  1.53131E+03 -6.00967E+02
  2.27532E+03 -1.35054E+03  6.86876E+03  2.78156E+03  4.14083E+03  8.73240E+03 -1.62362E+03  1.10389E+04
 -8.30910E+03  8.04030E+03 -1.06930E+04  2.29638E+03 -9.36450E+03 -3.47457E+03 -3.52278E+03 -6.61732E+03
  8.98492E+02 -6.60565E+03  4.07417E+03 -2.83141E+03  3.65867E+03  2.95967E+03 -1.41130E+03  5.29083E+03
 -7.23315E+03  3.03435E+03 -7.70223E+03 -3.88213E+03 -4.45007E+03 -8.88762E+03  1.18012E+03 -9.05701E+03
  5.74966E+03 -5.41970E+03  6.66133E+03 -7.04599E+02  5.42018E+03  2.65688E+03  8.29527E+02  4.79822E+03
 -3.09748E+03  1.42226E+03 -3.96731E+03 -3.42548E+03  1.68858E+03 -7.28549E+03  8.34294E+03 -5.57446E+03
  1.04673E+04  4.59795E+02  1.04412E+04  7.30232E+03  3.46225E+03  1.12694E+04 -4.02888E+03  1.05611E+04
 -9.09337E+03  4.43274E+03 -9.21361E+03 -1.36376E+03 -5.18190E+03 -7.28490E+03  1.50579E+03 -6.58072E+03
  6.99809E+03 -3.56157E+03  5.85322E+03  2.94554E+03  2.25528E+03  6.27800E+03 -1.21373E+03  4.96847E+03
 -3.00295E+03  3.74834E+03 -2.46288E+03  1.52308E+03 -1.10646E+03  1.36489E+03 -1.27635E+03  2.07327E+03
 -2.74498E+03  4.33288E+03 -7.25603E+03  3.87278E+03 -1.16475E+04  4.45934E+02 -1.26551E+04 -7.06428E+03
 -6.48206E+03 -1.48272E+04  2.86610E+03 -1.68957E+04  1.06654E+04 -1.28670E+04  1.60652E+04 -5.12807E+03
  1.53183E+04  3.48781E+03  9.49582E+03  1.04726E+04  5.07828E+02  1.16422E+04 -4.59792E+03  8.78238E+03
 -6.39732E+03  3.23635E+03 -3.93074E+03 -1.13549E+03 -1.40907E+03 -8.48933E+02 -7.91616E+02 -4.66962E+01
 -1.97822E+03  1.60706E+02 -2.61100E+03 -6.22724E+02 -1.05468E+03 -3.37316E+03  4.06461E+02 -4.22840E+03
  4.78379E+03 -3.69202E+03  7.27132E+03  4.25567E+02  7.95958E+03  6.62660E+03  2.56282E+03  1.15439E+04
 -5.60728E+03  1.32525E+04 -1.23362E+04  7.66058E+03 -1.45504E+04 -3.50270E+02 -1.10898E+04 -9.26653E+03
 -4.78484E+03 -1.23256E+04  3.21199E+03 -1.09130E+04  7.62624E+03 -6.31756E+03  7.88746E+03  5.49703E+02
  4.10293E+03  4.76682E+03 -1.23568E+02  3.55716E+03 -2.08848E+03 -3.55406E+02 -5.02984E+01 -2.86989E+03
  3.27670E+03 -1.64722E+03  5.11005E+03  1.44522E+03  3.42927E+03  4.66264E+03  3.20973E+02  6.52876E+03
 -5.31480E+03  5.00262E+03 -7.78318E+03  4.22440E+01 -7.20358E+03 -5.80482E+03 -1.16977E+03 -9.83204E+03
  6.29278E+03 -8.26661E+03  9.09194E+03 -2.80462E+03  9.22044E+03  2.15597E+03  5.34468E+03  6.99305E+03
  9.74821E+02  8.04895E+03 -2.84993E+03  5.96825E+03 -5.12234E+03  3.66078E+03 -4.17160E+03  8.69602E+02
 -2.31033E+03 -2.11394E+02 -1.99820E+03  7.14620E+02 -4.51483E+03  1.48141E+03 -6.27108E+03 -1.33287E+03
 -5.72255E+03 -4.38458E+03 -1.81496E+03 -8.25590E+03  3.71283E+03 -8.64576E+03  7.34375E+03 -4.24201E+03
  7.71922E+03  1.34275E+03  5.16568E+03  5.75869E+03 -5.42826E+02  8.30403E+03 -5.97810E+03  5.15049E+03
