 $NMID ID='MM_0lb_SNR800_19hz_g40_5.RAW', FMTDAT='(8E13.5)'
 TRAMP=1., VOLUME=1. $END
  3.09633E+05  3.27437E+02  3.37344E+05  2.50283E+05  8.42943E+04  3.37225E+05 -1.32701E+05  2.49860E+05
 -1.89321E+05  8.20432E+04 -1.10714E+05 -3.29309E+04  1.61009E+03 -5.02583E+04  5.38857E+04  2.79843E+02
  3.48647E+04  5.30529E+04 -1.69178E+04  7.44867E+04 -6.01481E+04  6.23456E+04 -8.25996E+04  3.14601E+04
 -7.87866E+04 -1.09784E+04 -5.58989E+04 -4.98426E+04 -1.50130E+04 -6.77090E+04  2.64848E+04 -4.43476E+04
  3.86237E+04  4.24582E+03  1.53231E+04  4.69439E+04 -3.35646E+04  4.57706E+04 -6.46701E+04 -6.81642E+02
 -5.14458E+04 -5.55125E+04 -5.99347E+03 -7.45997E+04  3.27367E+04 -5.23042E+04  4.55381E+04 -1.59243E+04
  4.08660E+04  1.07819E+04  3.04362E+04  2.40556E+04  1.58057E+04  2.77935E+04 -4.12098E+03  2.65978E+04
 -2.13819E+04  1.29459E+04 -1.93176E+04 -3.90427E+03  3.79419E+03 -7.74861E+03  2.09723E+04  1.06027E+04
  7.34838E+03  3.24754E+04 -2.96163E+04  3.36370E+04 -6.03282E+04  2.15258E+03 -5.49123E+04 -4.06839E+04
 -1.24451E+04 -5.98834E+04  3.73539E+04 -4.26316E+04  5.49365E+04 -1.96567E+03  3.11193E+04  2.99730E+04
 -6.68061E+03  3.21594E+04 -2.76812E+04  1.26464E+04 -2.66086E+04 -5.60081E+03 -1.37891E+04 -9.85262E+03
 -6.96130E+03 -1.08780E+04 -8.41641E+02 -1.62638E+04  6.62685E+03 -2.21593E+04  1.49158E+04 -1.41773E+04
  1.22156E+04  4.04832E+03 -5.73085E+03  1.29514E+04 -1.85464E+04 -1.87344E+03 -8.00548E+03 -2.93374E+04
  2.00427E+04 -3.97480E+04  4.38617E+04 -1.82528E+04  4.08708E+04  1.79377E+04  1.37913E+04  4.08076E+04
 -1.49456E+04  3.02486E+04 -2.29313E+04  6.49357E+02 -7.71776E+03 -2.60407E+04  2.04544E+04 -3.05857E+04
  3.68685E+04 -6.90202E+03  3.02249E+04  2.26709E+04  1.46645E+04  4.15390E+04 -7.69691E+03  4.38029E+04
 -2.75437E+04  2.87865E+04 -3.59309E+04  7.65616E+03 -3.72961E+04 -1.47531E+04 -2.05678E+04 -3.32389E+04
  6.82299E+03 -3.30716E+04  2.84115E+04 -1.21787E+04  2.61726E+04  1.08464E+04  2.59207E+03  1.72131E+04
 -1.32367E+04  6.73078E+03 -9.37585E+03 -7.74787E+03  6.14021E+03 -9.71837E+03  1.68020E+04  6.29424E+03
  1.23587E+04  2.14091E+04 -6.78235E+03  2.29688E+04 -2.12634E+04  8.79205E+03 -2.42318E+04 -6.73112E+03
 -1.55378E+04 -1.59461E+04 -4.81658E+03 -1.56160E+04  3.75638E+03 -1.33559E+04  1.17177E+04 -1.33636E+04
  1.98153E+04 -1.13289E+04  2.70162E+04  5.57976E+02  2.04224E+04  1.53343E+04  4.25003E+03  3.13042E+04
 -1.58606E+04  2.71298E+04 -2.52744E+04  9.24394E+03 -1.94358E+04 -1.05146E+04 -4.01270E+03 -1.41191E+04
  2.93390E+03 -4.37237E+03 -1.82621E+03  5.05676E+03 -1.21443E+04  5.29392E+03 -1.26725E+04 -4.52936E+03
 -8.03681E+03 -1.46489E+04  4.39446E+03 -1.83542E+04  1.19285E+04 -1.33562E+04  1.38519E+04 -1.15417E+03
  8.52790E+03  1.03404E+04 -7.61095E+02  1.48290E+04 -9.75617E+03  8.43402E+03 -1.44712E+04 -3.43606E+03
 -1.08398E+04 -1.35196E+04 -1.12056E+03 -1.80683E+04  8.29531E+03 -1.47971E+04  1.54125E+04 -6.81237E+03
  1.38960E+04  6.71529E+02  9.85039E+03  3.96303E+03  4.74591E+03  3.74313E+02  6.88433E+03 -1.22687E+03
  1.30004E+04  2.65448E+03  1.37338E+04  1.21604E+04  8.10368E+03  2.33755E+04 -3.09355E+03  2.48334E+04
 -1.49154E+04  1.87341E+04 -2.29349E+04  8.94188E+03 -2.29650E+04 -1.61938E+03 -2.00281E+04 -1.31306E+04
 -9.61483E+03 -1.89235E+04  6.29704E+03 -1.77978E+04  1.57652E+04 -1.06413E+04  1.47597E+04  3.29596E+03
  6.44566E+03  1.03051E+04 -6.84346E+03  9.78568E+03 -1.30000E+04  2.59380E+03 -9.60804E+03 -7.32708E+03
 -5.22595E+00 -1.20500E+04  5.47182E+03 -9.17855E+03  7.46992E+03 -1.72240E+03  1.62441E+03  4.52520E+03
 -5.20410E+03  9.85778E+02 -3.20433E+03 -4.19196E+03  1.05518E+03 -9.41619E+03  7.25663E+03 -9.21994E+03
  1.11643E+04 -4.10068E+03  1.08973E+04  2.85764E+03  8.97272E+03  8.61176E+03  4.65060E+03  1.28026E+04
 -1.33130E+03  1.48189E+04 -8.91314E+03  9.41632E+03 -1.01611E+04  3.14985E+03 -7.78837E+03 -1.61202E+03
 -4.44067E+03 -3.21225E+03 -8.71963E+02  1.21780E+03 -1.75974E+03  2.02553E+03 -3.28145E+03  3.41676E+03
 -7.55594E+03 -2.94461E+02 -8.18549E+03 -6.79242E+03 -3.42333E+03 -1.07786E+04  3.39870E+03 -7.92431E+03
  6.66592E+03 -3.34080E+03  5.18318E+03  1.93292E+03  4.15960E+02  2.61038E+03 -2.91421E+03 -2.49731E+01
 -3.06553E+03 -4.74890E+03 -5.84884E+02 -6.36773E+03  3.43230E+03 -7.37103E+03  8.97725E+03 -3.64700E+03
  1.09393E+04  6.73537E+02  8.07841E+03  5.68022E+03  1.71253E+03  8.09777E+03 -4.94043E+03  7.75835E+03
 -6.58892E+03  2.78467E+03 -3.31758E+03 -1.19123E+03  1.25598E+03 -1.50102E+03  4.51405E+03 -1.25860E+03
  3.89223E+03  2.85867E+03  8.49434E+02  5.86543E+03 -4.32534E+03  5.95907E+03 -7.29547E+03  1.73002E+03
 -4.38885E+03 -3.32268E+03  3.40083E+02 -6.13690E+03  3.51342E+03 -2.89944E+03  3.24510E+03  8.15104E+02
  3.37113E+02  2.67620E+03 -3.80181E+03  4.19443E+03 -4.17890E+03  2.16884E+03 -3.80548E+03 -1.00882E+03
 -2.47177E+03 -4.95112E+03  1.06894E+03 -6.36210E+03  5.56639E+03 -4.13353E+03  5.68044E+03  9.23157E+02
  4.39720E+03  4.81372E+03  1.73839E+02  6.56622E+03 -4.64595E+03  3.89951E+03 -4.89141E+03 -5.46853E+02
 -5.56544E+03 -4.85120E+03 -1.13377E+03 -4.47457E+03  2.58562E+03 -4.35936E+03  2.68501E+03 -2.76012E+03
  2.69596E+03  1.50331E+01  1.74532E+02  1.43711E+03  5.84560E+02 -1.95953E+02 -6.59140E+01 -1.70972E+03
  3.45721E+03 -6.97498E+02  4.52666E+03  5.01673E+02  4.83041E+03  2.70067E+03  4.84077E+03  6.12602E+03
 -9.93634E+02  7.57470E+03 -6.98874E+03  5.97936E+03 -9.08816E+03  1.08626E+03 -7.11282E+03 -2.41269E+03
 -3.90526E+03 -5.93506E+03 -2.79802E+02 -4.51292E+03  1.87116E+03 -1.62003E+03  1.33600E+03 -1.92793E+03
  1.20603E+03 -1.76857E+03  2.03655E+03 -2.32326E+03  3.14300E+03 -1.21196E+03  3.33098E+03  6.71568E+02
  3.93827E+03  1.12003E+03  8.31445E+02  2.96277E+03 -1.53763E+03  2.41557E+03 -4.19659E+03  2.19555E+03
 -4.29336E+03 -1.06344E+03 -1.62442E+03 -3.06342E+03  6.74810E+02 -4.16609E+03  3.00716E+03 -4.86753E+03
  4.79870E+03 -2.95803E+03  6.32287E+03  6.08723E+01  4.38291E+03  3.65696E+03  1.06511E+03  5.41680E+03
 -2.01263E+03  5.47091E+03 -2.91783E+03  1.78398E+03 -1.65214E+03 -1.14775E+03 -4.89087E+02 -6.11796E+02
 -4.46925E+02  4.92176E+02 -5.74154E+02  1.88673E+03 -2.49976E+03  9.63628E+02 -3.99086E+03 -3.67139E+02
 -1.41623E+03 -3.57216E+03  1.11227E+03 -4.25750E+03  2.40979E+03 -3.82420E+03  3.19621E+03 -8.94747E+02
  3.57665E+03  1.84511E+03  1.55986E+03  2.65740E+03 -6.58056E+02  4.11350E+03 -2.26604E+03  2.36992E+03
 -3.19832E+03  8.48996E+02 -3.13955E+03 -2.26106E+03 -2.16583E+02 -2.88065E+03  1.40620E+03 -2.03103E+03
  2.46398E+03 -1.07218E+03  1.72745E+03  3.25335E+02  3.30964E+02  1.30127E+03  6.84930E+02  5.45206E+02
  1.52206E+03  4.77498E+02  1.09600E+03  1.10246E+03  9.94288E+02  1.93618E+03  1.41140E+03  1.26549E+03
 -1.23379E+03  2.51856E+03 -2.20622E+03  4.02164E+03 -2.42603E+03  1.20206E+03 -3.98413E+03 -4.34299E+01
 -1.37960E+03 -3.31657E+03  5.82413E+02 -4.19997E+03  1.81186E+03 -2.33192E+03  2.92350E+03 -9.58740E+02
  2.44751E+03  1.73271E+03  2.29413E+02  2.15120E+03 -6.45832E+02  1.36333E+03 -6.93677E+02  6.56937E+01
 -5.18261E+02 -1.50323E+03  1.15666E+03 -1.43312E+03  1.31159E+03 -9.85486E+02  1.04640E+03  5.69001E+02
  4.94319E+02  3.80379E+02  7.34021E+02 -4.20667E+02 -2.10703E+02  8.19002E+02  1.54449E+03 -5.18792E+01
 -3.46132E+01 -3.72407E-02  1.72338E+03  4.83687E+02  8.63536E+01  2.34239E+03 -4.35459E+02  2.64915E+03
 -1.65801E+03  9.30310E+02 -1.76072E+03  2.77847E+02 -1.99842E+03 -6.06692E+02 -2.96447E+02 -1.16794E+03
  5.35432E+02 -1.07166E+03  8.01644E+02 -6.00925E+02  4.33176E+02  1.33584E+03 -6.50735E+02  9.74218E+02
 -1.48397E+03  6.06564E+02 -1.24106E+03 -1.13243E+03 -4.19059E+02 -2.19399E+03  6.52193E+01 -1.39021E+03
  3.40082E+02 -3.59193E+02  7.09871E+02  1.56822E+02  1.13385E+03 -2.35381E+02  3.89991E+02  1.15422E+03
 -3.12441E+02  9.80526E+01 -6.96940E+02 -1.98127E+02  5.22588E+02 -6.09596E+02  1.59619E+03 -7.41263E+02
  1.20782E+03  1.00832E+02  2.41482E+03  6.66246E+02  1.08972E+03  1.38913E+03 -1.46175E+02  1.48256E+03
 -1.30152E+03  3.09653E+02 -1.25493E+03 -1.56286E+02 -8.56581E+02 -1.28542E+03  2.19086E+02 -1.67977E+02
  1.42884E+03 -6.60439E+02  7.88837E+02  6.27667E+02  3.22187E+01  1.12718E+03  4.80643E+02  9.69290E+02
 -3.53009E+02  9.83459E+02 -6.02211E+02  2.34117E+01 -1.45094E+02  4.42978E+02 -5.00496E+02  7.01738E+02
 -4.81210E+02  9.47998E+02 -1.78171E+03  3.09167E+02 -1.67632E+03  1.23119E+02 -2.33379E+03 -7.49500E+02
 -7.08596E+02 -1.97574E+03  6.16849E+02 -2.53497E+03  9.88235E+02 -2.26360E+03  2.47223E+03 -7.58667E+02
  2.23292E+03  8.04634E+01  1.11870E+03  1.42440E+03 -7.44862E+02  1.35469E+03 -6.49826E+02  1.38263E+03
 -1.10706E+03  9.55911E+02 -5.76089E+02 -1.70290E+02 -5.18727E+02  3.31555E+02 -5.88084E+02 -4.37791E+01
 -7.78322E+02  2.72201E+01 -1.02451E+03  8.35837E+01  3.51835E+02 -5.28427E+02 -2.48564E+02 -7.98092E+02
  1.16374E+03 -6.80900E+02  3.47088E+02  1.39100E+01  8.65875E+02  7.23514E+02 -5.93730E+02  1.26201E+03
 -9.50469E+02  2.18449E+03 -1.50525E+03  1.29303E+03 -1.80404E+03 -1.18202E+02 -8.33951E+02 -1.15603E+03
 -1.01453E+03 -1.31303E+03 -1.68163E+02 -1.13619E+03  6.89744E+02 -4.95651E+02  5.75144E+02  2.67553E+02
  6.11630E+02  4.05809E+02  1.21920E+01  6.45931E+02 -5.56864E+02  3.28440E+00  6.46078E+01 -2.88204E+02
  3.09106E+02  3.45419E+02  2.85948E+02  5.57000E+02 -1.54566E+02  4.98414E+02  4.29049E+02  7.26450E+01
 -8.57415E+02  4.61015E+02 -6.30254E+02  2.48545E+02 -6.49373E+02 -4.40371E+02 -4.99978E+00 -7.79787E+02
  3.84281E+02 -6.73239E+02  2.07455E+02  5.54465E+00  5.99411E+02 -5.84478E+02  6.06323E+02  5.77462E+02
  2.24034E+02  3.97417E+02 -2.56087E+01  4.15899E+02 -7.45474E+02  5.64105E+02 -3.81479E+02  2.35470E+02
 -8.35400E+00 -2.84194E+02 -3.82824E+02  1.11372E+02 -8.98357E+02  1.45621E+02 -8.96661E+02 -2.66454E+02
 -8.34587E+02  2.01167E+02 -4.00470E+02 -7.89360E+02  6.35220E+02 -1.30239E+03  6.47058E+02 -3.13513E+02
  7.18723E+02  3.55179E+02 -1.87139E+02  8.98493E+01  7.77465E+01  6.71722E+02 -2.58389E+02  5.22096E+02
