 $NMID ID='MM_0lb_SNR800_17hz_g50_32.RAW', FMTDAT='(8E13.5)'
 TRAMP=1., VOLUME=1. $END
  3.09852E+05  2.79681E+02  3.37337E+05  2.50059E+05  8.44939E+04  3.37927E+05 -1.32443E+05  2.50850E+05
 -1.89731E+05  8.27922E+04 -1.11047E+05 -3.30770E+04  1.19256E+03 -5.05006E+04  5.39082E+04 -1.09217E+01
  3.53833E+04  5.26522E+04 -1.68368E+04  7.53324E+04 -6.05592E+04  6.31175E+04 -8.35583E+04  3.17044E+04
 -8.04558E+04 -1.14382E+04 -5.66413E+04 -5.10454E+04 -1.48466E+04 -6.88737E+04  2.71336E+04 -4.54320E+04
  3.94302E+04  3.93387E+03  1.56035E+04  4.77892E+04 -3.40776E+04  4.64670E+04 -6.62026E+04 -3.67045E+02
 -5.28128E+04 -5.63250E+04 -6.37020E+03 -7.58520E+04  3.35556E+04 -5.38282E+04  4.70010E+04 -1.68906E+04
  4.21164E+04  1.11598E+04  3.13780E+04  2.46313E+04  1.58604E+04  2.87137E+04 -4.66191E+03  2.68958E+04
 -2.15843E+04  1.27924E+04 -1.86689E+04 -4.55770E+03  4.78552E+03 -7.57445E+03  2.17556E+04  1.19267E+04
  7.41967E+03  3.40314E+04 -3.10543E+04  3.45734E+04 -6.21345E+04  2.24034E+03 -5.59955E+04 -4.19301E+04
 -1.23388E+04 -6.15471E+04  3.89059E+04 -4.44137E+04  5.66490E+04 -2.05977E+03  3.27247E+04  3.16002E+04
 -6.31177E+03  3.42643E+04 -2.90333E+04  1.43405E+04 -2.88803E+04 -4.87025E+03 -1.54522E+04 -1.06937E+04
 -7.76987E+03 -1.21574E+04 -8.61440E+02 -1.70327E+04  6.74501E+03 -2.27121E+04  1.51570E+04 -1.35212E+04
  1.20013E+04  4.84643E+03 -7.05262E+03  1.29859E+04 -2.02210E+04 -3.52677E+03 -8.35712E+03 -3.15281E+04
  2.16895E+04 -4.18078E+04  4.61868E+04 -1.90594E+04  4.34453E+04  1.85790E+04  1.47665E+04  4.26929E+04
 -1.54966E+04  3.23259E+04 -2.43625E+04  1.64555E+03 -9.06480E+03 -2.70111E+04  2.07262E+04 -3.22985E+04
  3.92257E+04 -7.96810E+03  3.32283E+04  2.31338E+04  1.65085E+04  4.42339E+04 -7.98401E+03  4.73365E+04
 -2.96226E+04  3.16016E+04 -3.93657E+04  9.03900E+03 -3.99326E+04 -1.58261E+04 -2.22173E+04 -3.57064E+04
  7.14341E+03 -3.57662E+04  3.04193E+04 -1.34169E+04  2.80114E+04  1.07562E+04  3.33359E+03  1.82279E+04
 -1.31597E+04  7.93728E+03 -1.00045E+04 -7.88171E+03  6.09495E+03 -1.03060E+04  1.78923E+04  6.32963E+03
  1.28388E+04  2.18896E+04 -6.48158E+03  2.42111E+04 -2.20554E+04  1.00752E+04 -2.62579E+04 -5.57879E+03
 -1.82363E+04 -1.69902E+04 -6.71953E+03 -1.84028E+04  4.06789E+03 -1.64664E+04  1.34896E+04 -1.59749E+04
  2.31900E+04 -1.21871E+04  2.97607E+04  1.91626E+03  2.21823E+04  1.78337E+04  4.27318E+03  3.38424E+04
 -1.66481E+04  2.85645E+04 -2.64383E+04  9.83338E+03 -2.02478E+04 -1.03848E+04 -4.04376E+03 -1.35121E+04
  2.19562E+03 -3.49357E+03 -3.30862E+03  5.68832E+03 -1.41441E+04  5.21619E+03 -1.44062E+04 -5.84475E+03
 -9.28345E+03 -1.66986E+04  4.65586E+03 -2.07707E+04  1.36517E+04 -1.46347E+04  1.61857E+04 -1.42665E+03
  9.96913E+03  1.16155E+04 -6.43638E+02  1.67987E+04 -1.10516E+04  9.57247E+03 -1.67367E+04 -3.86786E+03
 -1.23027E+04 -1.54834E+04 -1.69612E+03 -2.03985E+04  9.49376E+03 -1.66994E+04  1.70680E+04 -8.22494E+03
  1.56415E+04  4.06785E+02  1.14074E+04  4.02456E+03  5.71074E+03  6.52384E+02  8.50445E+03 -1.46273E+03
  1.53128E+04  2.84765E+03  1.66127E+04  1.34643E+04  1.02756E+04  2.70559E+04 -3.21762E+03  2.95662E+04
 -1.72496E+04  2.26553E+04 -2.70800E+04  1.12841E+04 -2.79704E+04 -1.67782E+03 -2.38903E+04 -1.57988E+04
 -1.08273E+04 -2.29530E+04  7.72642E+03 -2.13491E+04  1.84635E+04 -1.15789E+04  1.68884E+04  4.29166E+03
  6.77710E+03  1.22257E+04 -7.84876E+03  1.11560E+04 -1.45509E+04  2.57842E+03 -1.13812E+04 -8.68620E+03
  1.70097E+01 -1.34039E+04  6.83030E+03 -1.03465E+04  8.91180E+03 -1.56661E+03  1.83399E+03  5.53617E+03
 -6.02923E+03  1.75179E+03 -4.19937E+03 -4.97197E+03  5.75205E+02 -1.13626E+04  8.70090E+03 -1.14990E+04
  1.40168E+04 -5.71990E+03  1.41670E+04  2.65544E+03  1.18950E+04  1.08499E+04  5.88918E+03  1.62009E+04
 -2.19681E+03  1.79718E+04 -1.13141E+04  1.13222E+04 -1.28297E+04  2.93892E+03 -9.42672E+03 -2.45392E+03
 -4.85920E+03 -3.85285E+03 -7.75741E+02  1.45831E+03 -2.02256E+03  2.38480E+03 -4.17768E+03  3.83770E+03
 -9.09556E+03 -4.86935E+02 -9.35997E+03 -8.02032E+03 -4.12181E+03 -1.26574E+04  3.75420E+03 -9.45300E+03
  8.04119E+03 -4.22800E+03  5.74684E+03  2.39084E+03  4.26399E+02  3.27636E+03 -3.98435E+03 -2.11047E+02
 -4.03027E+03 -5.98808E+03 -6.75302E+02 -8.37466E+03  4.45376E+03 -8.92867E+03  1.11028E+04 -4.44565E+03
  1.34352E+04  1.03688E+03  9.90392E+03  7.25218E+03  2.02414E+03  1.02313E+04 -5.89212E+03  9.38751E+03
 -7.56403E+03  3.11099E+03 -3.92982E+03 -1.30580E+03  1.16010E+03 -1.74407E+03  5.34427E+03 -1.12172E+03
  4.58676E+03  3.44589E+03  9.21911E+02  7.27879E+03 -5.08924E+03  7.36828E+03 -8.84730E+03  1.87820E+03
 -5.53981E+03 -3.94590E+03  4.90048E+02 -7.52291E+03  4.44367E+03 -3.71738E+03  4.43748E+03  1.25682E+03
  5.10923E+02  4.44919E+03 -4.89414E+03  5.69565E+03 -5.92233E+03  2.91415E+03 -5.61435E+03 -1.83676E+03
 -3.60777E+03 -6.79193E+03  1.84414E+03 -8.36735E+03  7.28460E+03 -5.34200E+03  7.85118E+03  1.32681E+03
  5.35691E+03  6.23735E+03  4.22563E+00  8.33709E+03 -5.73413E+03  4.83470E+03 -6.30664E+03 -4.51816E+02
 -6.37905E+03 -5.89575E+03 -1.49979E+03 -6.20200E+03  2.76455E+03 -5.46172E+03  3.81736E+03 -2.87429E+03
  3.37063E+03  4.07043E+02 -3.46879E+02  1.41738E+03  3.01122E+02 -5.93917E+02  3.93985E+02 -2.68166E+03
  4.81977E+03 -1.26098E+03  6.37633E+03  5.33585E+02  6.62984E+03  3.86328E+03  5.89480E+03  8.86789E+03
 -1.76654E+03  1.02861E+04 -9.04646E+03  8.10124E+03 -1.19186E+04  1.39790E+03 -9.27262E+03 -3.42083E+03
 -4.90656E+03 -7.80488E+03 -3.90746E+02 -6.01665E+03  2.58855E+03 -2.76544E+03  2.29928E+03 -2.55645E+03
  1.45236E+03 -1.35648E+03  2.30573E+03 -2.38616E+03  3.71950E+03 -1.62462E+03  4.06675E+03  3.09721E+02
  5.08955E+03  1.41083E+03  1.28043E+03  4.02363E+03 -1.89032E+03  3.48453E+03 -5.38274E+03  3.51178E+03
 -5.96603E+03 -1.07866E+03 -2.64295E+03 -3.89885E+03  5.42390E+02 -6.18398E+03  3.70413E+03 -5.92375E+03
  5.98061E+03 -4.08392E+03  8.26196E+03  4.59322E+02  5.71141E+03  5.46548E+03  1.13863E+03  6.93710E+03
 -2.92461E+03  6.83329E+03 -4.02173E+03  2.17638E+03 -2.39703E+03 -1.10816E+03 -7.01823E+02 -8.36125E+02
 -5.48555E+02  3.04080E+02 -1.12839E+03  2.23175E+03 -2.72427E+03  1.11914E+03 -4.69798E+03 -4.66373E+02
 -2.07453E+03 -4.55511E+03  6.25590E+02 -5.42381E+03  3.49470E+03 -5.44871E+03  4.45263E+03 -1.49905E+03
  5.00870E+03  2.85600E+03  2.15545E+03  4.36743E+03 -9.63257E+02  5.44038E+03 -3.25492E+03  3.45605E+03
 -5.02443E+03  5.93884E+02 -3.90718E+03 -2.88969E+03 -4.17309E+02 -4.02701E+03  1.99354E+03 -3.02639E+03
  3.29259E+03 -1.14544E+03  2.26812E+03  4.54313E+02  6.67545E+02  1.96421E+03  1.25198E+03  5.16838E+02
  1.93048E+03  7.85317E+02  1.55886E+03  1.31612E+03  1.43853E+03  2.35655E+03  1.77974E+03  2.30453E+03
 -1.55152E+03  4.00002E+03 -3.49576E+03  4.78194E+03 -4.34295E+03  1.37783E+03 -5.05295E+03 -1.13359E+03
 -2.29011E+03 -4.56689E+03  8.11651E+02 -5.66405E+03  2.48195E+03 -3.16468E+03  4.11791E+03 -1.09723E+03
  3.39216E+03  1.95767E+03  6.12493E+02  3.01725E+03 -1.06680E+03  1.73067E+03 -1.58176E+03 -9.83417E+00
 -1.11853E+03 -1.82856E+03  1.40012E+03 -1.96134E+03  1.60188E+03 -1.03097E+03  1.68602E+03  4.15746E+02
  8.03525E+02  3.77848E+02  7.96480E+02 -4.77780E+01 -1.89868E+02  6.17621E+02  1.29525E+03 -2.60304E+02
  2.80006E+02 -1.32671E+02  1.99205E+03  6.62265E+02  7.00024E+02  2.56473E+03 -5.14414E+02  3.66887E+03
 -1.97291E+03  1.45177E+03 -2.65352E+03  5.91561E+02 -2.45697E+03 -1.09202E+03 -4.49571E+02 -1.46778E+03
  5.37965E+02 -1.64133E+03  9.92086E+02 -9.14010E+02  6.56184E+02  1.46304E+03 -8.81357E+02  1.39009E+03
 -1.81530E+03  1.08433E+03 -1.48894E+03 -1.35197E+03 -1.06399E+03 -3.02855E+03  2.99320E+02 -2.08602E+03
  6.47631E+02 -1.06614E+03  1.01545E+03  7.67897E+01  1.94256E+03 -1.21194E+02  1.06532E+02  1.29692E+03
 -4.10498E+02  2.01359E+02 -1.25220E+03 -1.50452E+02  5.69296E+02 -1.04797E+03  2.13419E+03 -9.04818E+02
  1.82841E+03  3.01076E+01  3.09252E+03  1.19823E+03  1.26764E+03  2.37999E+03 -3.70139E+02  2.63507E+03
 -2.01112E+03  4.71236E+02 -1.95536E+03 -2.89945E+02 -1.43500E+03 -1.90768E+03  3.72099E+02 -1.02253E+03
  1.79499E+03 -7.86077E+02  9.81307E+02  6.84419E+02  2.38891E+02  1.61028E+03  3.15702E+02  1.44546E+03
 -4.59411E+02  1.35854E+03 -7.95860E+02  2.14664E+02  9.05823E+01  5.38574E+02 -8.42093E+02  6.22212E+02
 -7.48182E+02  1.33751E+03 -2.30800E+03  1.04060E+03 -2.46195E+03 -1.07005E+02 -3.01635E+03 -1.24626E+03
 -1.44646E+03 -2.89790E+03  5.68654E+02 -3.80437E+03  1.41701E+03 -3.01751E+03  3.70256E+03 -1.19222E+03
  3.18205E+03  2.24554E+02  1.87786E+03  1.91030E+03 -6.20960E+02  2.13320E+03 -7.80571E+02  1.59011E+03
 -1.40369E+03  9.03686E+02 -8.48765E+02 -5.00043E+02 -4.00321E+02  2.09223E+02 -8.39838E+02  6.38566E+01
 -1.48615E+03  1.78677E+02 -1.14725E+03  2.81327E+02  3.02445E+02 -8.35251E+02 -3.49362E+02 -9.30770E+02
  1.24976E+03 -4.21431E+02  4.95294E+02  8.18263E+01  1.45595E+03  1.32700E+03 -2.49615E+02  1.91439E+03
 -1.15737E+03  2.66248E+03 -1.93920E+03  1.69127E+03 -2.36407E+03 -2.47064E+02 -1.96616E+03 -1.78460E+03
 -1.04390E+03 -1.71058E+03  4.47369E+02 -1.74351E+03  1.12065E+03 -7.03385E+02  1.10565E+03  4.25704E+00
  7.11315E+02  5.87056E+02 -2.13183E+02  6.63237E+02 -3.62489E+02 -1.27104E+02 -2.74148E+02 -4.13014E+02
  6.16810E+02  1.16264E+02  2.54133E+02  9.04489E+02  2.66194E+02  7.36831E+02  3.22311E+02  5.94213E+02
 -7.18490E+02  8.32981E+02 -7.68040E+02  1.38803E+02 -1.13938E+03 -7.73480E+02 -1.58061E+02 -1.58845E+03
  7.70427E+02 -9.59028E+02  1.12205E+03 -6.11360E+01  1.28615E+03 -4.35009E+02  6.79350E+02  1.29335E+03
  4.13505E+02  6.54070E+02 -3.24253E+02  9.66841E+02 -5.50339E+02  7.35063E+02 -5.12759E+02  1.90808E+02
 -3.50283E+02 -2.39046E+02 -5.88276E+02 -9.94603E+01 -4.67016E+02  2.30095E+02 -1.20983E+03 -2.27418E+02
 -1.33854E+03  9.41717E+01 -3.97258E+02 -1.50034E+03  5.00502E+02 -1.61489E+03  1.01326E+03 -4.30214E+02
  1.11697E+03  4.57490E+02 -2.36773E+02  3.73270E+02 -3.19616E+02  1.15142E+03 -4.83553E+02  8.42861E+02
