 $NMID ID='MM_0lb_SNR800_8hz_g40_36.RAW', FMTDAT='(8E13.5)'
 TRAMP=1., VOLUME=1. $END
  3.10294E+05  2.73057E+02  3.37492E+05  2.50745E+05  8.50701E+04  3.38625E+05 -1.32677E+05  2.52145E+05
 -1.90671E+05  8.41546E+04 -1.12733E+05 -3.25784E+04  3.59006E+02 -5.11327E+04  5.39846E+04 -6.01913E+02
  3.54726E+04  5.30428E+04 -1.65896E+04  7.58754E+04 -6.10865E+04  6.45323E+04 -8.53766E+04  3.24484E+04
 -8.21781E+04 -1.18254E+04 -5.85645E+04 -5.29065E+04 -1.51589E+04 -7.09604E+04  2.83844E+04 -4.68865E+04
  4.11210E+04  4.02975E+03  1.68241E+04  4.85120E+04 -3.46911E+04  4.81157E+04 -6.77856E+04  9.04164E+01
 -5.49875E+04 -5.74631E+04 -7.29337E+03 -7.90372E+04  3.46766E+04 -5.70513E+04  4.97915E+04 -1.83632E+04
  4.53489E+04  1.13004E+04  3.30826E+04  2.64931E+04  1.60056E+04  3.06820E+04 -5.30691E+03  2.73311E+04
 -2.22624E+04  1.17971E+04 -1.78033E+04 -5.57616E+03  7.45351E+03 -7.26010E+03  2.38593E+04  1.35351E+04
  6.84311E+03  3.72574E+04 -3.44141E+04  3.69567E+04 -6.59822E+04  2.48422E+03 -5.90906E+04 -4.44558E+04
 -1.23952E+04 -6.60353E+04  4.15162E+04 -4.74339E+04  6.10325E+04 -2.33477E+03  3.64361E+04  3.42951E+04
 -5.14328E+03  3.92813E+04 -3.19533E+04  1.92004E+04 -3.37356E+04 -3.68598E+03 -1.92458E+04 -1.19486E+04
 -9.75521E+03 -1.52735E+04 -5.60109E+02 -1.96931E+04  8.94736E+03 -2.40430E+04  1.56565E+04 -1.25804E+04
  1.02562E+04  6.19577E+03 -1.05413E+04  1.29540E+04 -2.33347E+04 -6.47353E+03 -8.26987E+03 -3.72813E+04
  2.48525E+04 -4.66477E+04  5.25721E+04 -2.12251E+04  4.85718E+04  2.07121E+04  1.73543E+04  4.71182E+04
 -1.69859E+04  3.62902E+04 -2.77584E+04  2.59702E+03 -1.15902E+04 -2.96492E+04  2.12424E+04 -3.70386E+04
  4.45807E+04 -1.08962E+04  4.03991E+04  2.50209E+04  2.11937E+04  5.11882E+04 -8.16304E+03  5.62797E+04
 -3.58473E+04  3.85008E+04 -4.73501E+04  1.09272E+04 -4.77201E+04 -1.83934E+04 -2.60661E+04 -4.20794E+04
  7.51779E+03 -4.19144E+04  3.41600E+04 -1.70218E+04  3.21068E+04  1.13449E+04  5.27079E+03  2.05987E+04
 -1.39992E+04  9.57313E+03 -1.08123E+04 -7.46273E+03  6.00206E+03 -1.14714E+04  1.87281E+04  5.56417E+03
  1.51422E+04  2.26062E+04 -5.18254E+03  2.71624E+04 -2.34235E+04  1.45622E+04 -3.17247E+04 -2.90016E+03
 -2.55893E+04 -1.84492E+04 -1.17242E+04 -2.49751E+04  4.22136E+03 -2.58694E+04  2.05032E+04 -2.29258E+04
  3.23703E+04 -1.41845E+04  3.77552E+04  5.09649E+03  2.71080E+04  2.46807E+04  4.31402E+03  4.12419E+04
 -1.96498E+04  3.35162E+04 -3.06096E+04  1.20166E+04 -2.27202E+04 -1.05182E+04 -5.10533E+03 -1.28583E+04
  2.52570E+02 -1.27241E+03 -7.60775E+03  8.39068E+03 -2.03961E+04  5.05432E+03 -2.03610E+04 -9.56029E+03
 -1.19258E+04 -2.33049E+04  5.91722E+03 -2.76312E+04  1.88919E+04 -1.98421E+04  2.26225E+04 -1.74305E+03
  1.43954E+04  1.64504E+04 -1.29979E+03  2.36160E+04 -1.63479E+04  1.36493E+04 -2.41375E+04 -4.92533E+03
 -1.71295E+04 -2.15176E+04 -2.44697E+03 -2.85491E+04  1.31220E+04 -2.37805E+04  2.34176E+04 -1.22788E+04
  2.21881E+04 -4.58778E+02  1.63139E+04  5.21549E+03  8.87314E+03  1.30674E+03  1.24236E+04 -2.48623E+03
  2.23533E+04  3.04961E+03  2.60987E+04  1.82857E+04  1.76074E+04  3.77556E+04 -2.36561E+03  4.46177E+04
 -2.54950E+04  3.73379E+04 -4.26410E+04  1.98997E+04 -4.49471E+04 -3.23430E+03 -3.64073E+04 -2.63592E+04
 -1.42885E+04 -3.80220E+04  1.32518E+04 -3.28807E+04  2.79450E+04 -1.50318E+04  2.43278E+04  7.69658E+03
  8.39118E+03  1.89719E+04 -1.19583E+04  1.62202E+04 -2.08292E+04  2.74790E+03 -1.55079E+04 -1.33988E+04
 -5.47650E+02 -1.95020E+04  1.05787E+04 -1.44347E+04  1.33854E+04 -1.64555E+03  3.49588E+03  8.88373E+03
 -9.06742E+03  4.25610E+03 -9.78388E+03 -7.19221E+03 -1.94496E+03 -1.83590E+04  1.20524E+04 -1.99057E+04
  2.33207E+04 -1.14353E+04  2.66850E+04  3.73978E+03  2.35096E+04  1.90543E+04  1.06781E+04  2.98890E+04
 -6.17881E+03  3.15092E+04 -2.09535E+04  1.96991E+04 -2.30865E+04  4.38072E+03 -1.57027E+04 -6.23854E+03
 -6.43175E+03 -7.43140E+03 -2.48533E+02  8.18525E+01 -2.66448E+03  3.99264E+03 -7.73794E+03  5.23034E+03
 -1.44221E+04 -5.83284E+02 -1.52540E+04 -1.24363E+04 -6.07747E+03 -1.96270E+04  6.63097E+03 -1.57982E+04
  1.31609E+04 -6.79957E+03  9.18171E+03  4.35096E+03 -6.10318E+02  6.29893E+03 -7.86761E+03 -1.78915E+02
 -7.56495E+03 -1.04350E+04 -1.47177E+03 -1.60360E+04  9.46945E+03 -1.64836E+04  2.05197E+04 -9.42153E+03
  2.36922E+04  2.37942E+03  1.74616E+04  1.44936E+04  3.06818E+03  1.94392E+04 -9.71734E+03  1.54017E+04
 -1.28987E+04  4.10889E+03 -7.09681E+03 -3.73018E+03  2.37869E+03 -4.90848E+03  8.34232E+03 -8.58026E+02
  7.53517E+03  7.45570E+03  1.10349E+03  1.26502E+04 -9.70051E+03  1.21435E+04 -1.58040E+04  2.70903E+03
 -1.11262E+04 -8.28679E+03 -8.61040E+01 -1.40720E+04  8.99954E+03 -6.97631E+03  9.81044E+03  2.99354E+03
  2.71636E+03  1.05425E+04 -8.37160E+03  1.19819E+04 -1.37731E+04  5.22892E+03 -1.45706E+04 -5.44125E+03
 -8.84312E+03 -1.63783E+04  4.46317E+03 -1.85374E+04  1.57262E+04 -1.13253E+04  1.74606E+04  3.08032E+03
  1.02666E+04  1.36433E+04 -2.01328E+03  1.62674E+04 -1.22787E+04  9.28389E+03 -1.29969E+04 -1.55309E+03
 -1.09961E+04 -1.09978E+04 -1.57900E+03 -1.29990E+04  7.01702E+03 -1.01239E+04  7.99375E+03 -3.64685E+03
  5.01606E+03  2.12419E+03 -1.02103E+03  2.03439E+03 -1.02370E+03 -3.00548E+03  2.69623E+03 -8.14700E+03
  1.18838E+04 -5.00875E+03  1.65007E+04  1.85271E+03  1.60421E+04  1.14703E+04  1.05165E+04  2.17316E+04
 -5.21250E+03  2.49569E+04 -2.12234E+04  1.86730E+04 -2.71619E+04  3.36644E+03 -2.15398E+04 -9.41010E+03
 -1.05690E+04 -1.74014E+04 -6.01554E+02 -1.51611E+04  5.32173E+03 -8.66211E+03  5.60772E+03 -5.36059E+03
  3.87271E+03 -3.05714E+03  3.91634E+03 -3.72021E+03  5.89173E+03 -3.92861E+03  8.10613E+03 -1.77641E+03
  1.14200E+04  2.50940E+03  5.86544E+03  1.00548E+04 -2.28091E+03  1.18416E+04 -1.20072E+04  9.24634E+03
 -1.52946E+04 -1.17761E+03 -1.00806E+04 -1.04676E+04 -1.58790E+03 -1.68153E+04  9.00605E+03 -1.68047E+04
  1.77615E+04 -9.32164E+03  2.05556E+04  2.88155E+03  1.47472E+04  1.46875E+04  2.20742E+03  1.85827E+04
 -8.08649E+03  1.51607E+04 -1.13287E+04  5.23370E+03 -7.69533E+03 -2.00981E+03 -3.00940E+03 -2.65397E+03
 -1.39657E+03  9.38634E+00 -2.20699E+03  3.17250E+03 -6.41365E+03  2.40047E+03 -1.05136E+04 -1.35069E+03
 -8.01691E+03 -1.06002E+04 -2.19561E+02 -1.54934E+04  9.62962E+03 -1.43707E+04  1.61512E+04 -4.73174E+03
  1.51887E+04  7.42951E+03  7.28579E+03  1.44644E+04 -3.10196E+03  1.57888E+04 -1.15917E+04  9.88435E+03
 -1.46252E+04  5.19940E+02 -1.15188E+04 -9.63400E+03 -1.35233E+03 -1.32092E+04  6.52701E+03 -9.62789E+03
  1.02834E+04 -2.98042E+03  6.67311E+03  2.64357E+03  2.71245E+03  4.66156E+03  1.73595E+03  2.01935E+03
  2.56371E+03  9.03197E+02  4.09926E+03  2.26409E+03  5.00775E+03  5.39758E+03  4.31369E+03  8.37716E+03
 -3.15850E+03  1.23633E+04 -1.12681E+04  1.28011E+04 -1.65759E+04  2.85494E+03 -1.66837E+04 -7.18134E+03
 -7.71201E+03 -1.59244E+04  2.34579E+03 -1.80653E+04  9.84932E+03 -1.09703E+04  1.33976E+04 -3.21685E+03
  9.93093E+03  5.93918E+03  2.31581E+03  9.20067E+03 -4.60129E+03  5.90698E+03 -6.76376E+03 -1.50445E+03
 -2.90627E+03 -6.90451E+03  3.91440E+03 -7.18225E+03  6.73351E+03 -3.38864E+03  6.57168E+03  1.42071E+03
  3.75972E+03  3.57798E+03  1.62906E+03  2.88221E+03 -8.71379E+02  1.87647E+03  1.34149E+03 -7.12326E+02
  2.47881E+03 -1.13304E+03  6.56603E+03  2.33835E+03  4.04952E+03  8.34235E+03 -1.71585E+03  1.15734E+04
 -7.25939E+03  7.68667E+03 -1.03219E+04  2.25981E+03 -9.58832E+03 -3.35521E+03 -3.89052E+03 -6.34131E+03
  1.27173E+03 -7.09743E+03  4.60282E+03 -2.94056E+03  3.60255E+03  2.65261E+03 -1.44726E+03  5.48930E+03
 -6.89622E+03  2.97491E+03 -7.95946E+03 -3.63493E+03 -4.37153E+03 -8.73104E+03  1.59293E+03 -9.35604E+03
  5.15286E+03 -5.56937E+03  6.85930E+03 -9.20851E+02  5.39900E+03  2.87643E+03  8.43931E+02  4.87764E+03
 -3.29182E+03  1.79015E+03 -4.20764E+03 -3.19976E+03  1.65379E+03 -7.11976E+03  8.15886E+03 -5.80061E+03
  1.07026E+04  9.49760E+02  1.01989E+04  7.19651E+03  2.92248E+03  1.12169E+04 -3.77437E+03  1.08458E+04
 -8.81820E+03  4.69412E+03 -9.07110E+03 -7.91831E+02 -4.99811E+03 -7.25710E+03  1.41473E+03 -6.88861E+03
  6.79623E+03 -3.52455E+03  5.94116E+03  2.61876E+03  2.12408E+03  6.33872E+03 -9.14151E+02  5.21836E+03
 -2.68973E+03  3.25879E+03 -2.29775E+03  1.02388E+03 -1.29732E+03  1.57273E+03 -1.72087E+03  2.47053E+03
 -2.89653E+03  4.19760E+03 -7.65717E+03  4.21027E+03 -1.10863E+04  5.62031E+02 -1.23928E+04 -7.33736E+03
 -6.74266E+03 -1.45124E+04  2.65635E+03 -1.67311E+04  1.05100E+04 -1.28817E+04  1.60323E+04 -4.91713E+03
  1.48738E+04  3.59515E+03  9.21922E+03  1.03636E+04  9.71912E+02  1.16408E+04 -4.07133E+03  8.55309E+03
 -6.80275E+03  2.91720E+03 -3.58403E+03 -1.45170E+03 -1.41923E+03 -1.43169E+03 -1.35292E+02  6.46730E-01
 -2.25716E+03  4.51124E+02 -2.76642E+03 -3.21920E+02 -1.22307E+03 -3.45494E+03 -9.07266E+01 -4.35686E+03
  5.01786E+03 -3.75317E+03  7.58785E+03  6.97455E+00  8.19957E+03  6.20130E+03  2.56568E+03  1.18559E+04
 -5.43251E+03  1.32794E+04 -1.24861E+04  7.88351E+03 -1.43054E+04 -1.42252E+03 -1.07959E+04 -9.13418E+03
 -4.29471E+03 -1.20994E+04  3.02503E+03 -1.07807E+04  7.81800E+03 -6.19153E+03  7.64587E+03  2.03087E+02
  4.59603E+03  3.68652E+03  3.67276E+01  3.50294E+03 -2.15494E+03 -3.79094E+02  1.31345E+02 -3.47042E+03
  3.83884E+03 -1.79921E+03  4.84329E+03  1.23235E+03  3.01875E+03  4.43920E+03 -1.53558E+01  6.85452E+03
 -5.22313E+03  5.65399E+03 -8.52352E+03  3.83916E+02 -6.86427E+03 -5.86179E+03 -1.16248E+03 -1.02153E+04
  5.95211E+03 -8.29791E+03  8.89212E+03 -2.60145E+03  9.72147E+03  2.40009E+03  5.16680E+03  7.38451E+03
  8.90939E+02  8.27202E+03 -2.58629E+03  6.56748E+03 -4.61051E+03  3.44295E+03 -4.22518E+03  6.00694E+02
 -2.12141E+03 -2.96315E+02 -2.25589E+03  1.40951E+03 -3.81362E+03  1.23673E+03 -6.01378E+03 -1.10228E+03
 -5.94086E+03 -4.14018E+03 -2.05806E+03 -8.33989E+03  3.53792E+03 -8.63993E+03  7.21281E+03 -4.10044E+03
  8.24613E+03  1.23505E+03  4.54680E+03  5.66238E+03 -7.23819E+02  8.15540E+03 -6.72553E+03  5.31945E+03
