 $NMID ID='MM_0lb_SNR800_7hz_g60_87.RAW', FMTDAT='(8E13.5)'
 TRAMP=1., VOLUME=1. $END
  3.09369E+05  3.07994E+02  3.37930E+05  2.50400E+05  8.50533E+04  3.38878E+05 -1.33221E+05  2.52705E+05
 -1.91275E+05  8.41936E+04 -1.13147E+05 -3.22542E+04 -5.33227E+02 -5.09825E+04  5.34195E+04 -1.22456E+03
  3.58680E+04  5.27252E+04 -1.64189E+04  7.63514E+04 -6.16243E+04  6.47630E+04 -8.66522E+04  3.34503E+04
 -8.32971E+04 -1.24806E+04 -5.85523E+04 -5.30183E+04 -1.52276E+04 -7.19738E+04  2.86576E+04 -4.71474E+04
  4.14036E+04  3.70180E+03  1.72632E+04  4.89091E+04 -3.52415E+04  4.85370E+04 -6.86707E+04  3.86626E+02
 -5.56283E+04 -5.86255E+04 -7.53118E+03 -7.99261E+04  3.51594E+04 -5.80328E+04  5.09690E+04 -1.92748E+04
  4.64097E+04  1.15275E+04  3.35433E+04  2.73566E+04  1.62377E+04  3.12800E+04 -6.29470E+03  2.86551E+04
 -2.27181E+04  1.19806E+04 -1.72433E+04 -6.42354E+03  7.47948E+03 -7.34244E+03  2.41097E+04  1.46879E+04
  7.08527E+03  3.88061E+04 -3.47347E+04  3.82528E+04 -6.71678E+04  1.89838E+03 -6.00259E+04 -4.55011E+04
 -1.28918E+04 -6.70390E+04  4.22959E+04 -4.85541E+04  6.28755E+04 -2.56231E+03  3.82076E+04  3.55502E+04
 -4.93432E+03  4.16007E+04 -3.29974E+04  2.03216E+04 -3.50975E+04 -2.70943E+03 -2.05399E+04 -1.27114E+04
 -1.01299E+04 -1.65710E+04 -2.21712E+02 -2.07384E+04  9.04658E+03 -2.40786E+04  1.59037E+04 -1.23279E+04
  1.04061E+04  6.73385E+03 -1.15735E+04  1.31192E+04 -2.47542E+04 -7.34241E+03 -8.92857E+03 -3.98073E+04
  2.64384E+04 -4.87868E+04  5.43820E+04 -2.18295E+04  5.07896E+04  2.20420E+04  1.83031E+04  4.81577E+04
 -1.70880E+04  3.80608E+04 -2.89220E+04  2.88929E+03 -1.24219E+04 -3.08189E+04  2.20212E+04 -3.88752E+04
  4.66103E+04 -1.22029E+04  4.33349E+04  2.57827E+04  2.37976E+04  5.34473E+04 -7.98485E+03  5.96195E+04
 -3.77957E+04  4.11462E+04 -5.06639E+04  1.20517E+04 -5.02574E+04 -1.99990E+04 -2.76469E+04 -4.48340E+04
  8.38817E+03 -4.50638E+04  3.60338E+04 -1.89381E+04  3.40252E+04  1.12611E+04  5.79866E+03  2.18449E+04
 -1.45316E+04  1.04706E+04 -1.17329E+04 -7.10039E+03  5.19585E+03 -1.17872E+04  1.89014E+04  5.35278E+03
  1.58029E+04  2.34659E+04 -4.89162E+03  2.80568E+04 -2.43866E+04  1.63298E+04 -3.36621E+04 -2.33387E+03
 -2.84165E+04 -1.95136E+04 -1.36364E+04 -2.75344E+04  4.37329E+03 -2.91541E+04  2.26633E+04 -2.61952E+04
  3.56960E+04 -1.48994E+04  4.18032E+04  5.89506E+03  2.87401E+04  2.71053E+04  4.52321E+03  4.39891E+04
 -2.14113E+04  3.58598E+04 -3.21478E+04  1.30409E+04 -2.28637E+04 -1.02394E+04 -5.12710E+03 -1.22457E+04
 -4.63986E+00 -3.11133E+02 -9.45501E+03  9.52584E+03 -2.31973E+04  4.64216E+03 -2.22413E+04 -1.08806E+04
 -1.29509E+04 -2.63502E+04  6.35349E+03 -3.03009E+04  2.12154E+04 -2.16369E+04  2.55625E+04 -1.79843E+03
  1.67857E+04  1.82986E+04 -1.27575E+03  2.59377E+04 -1.86887E+04  1.45288E+04 -2.66394E+04 -5.85383E+03
 -1.97311E+04 -2.34356E+04 -2.47810E+03 -3.14031E+04  1.37642E+04 -2.66677E+04  2.60148E+04 -1.39005E+04
  2.48642E+04 -1.34622E+02  1.82559E+04  6.06007E+03  1.05650E+04  1.77806E+03  1.37355E+04 -2.07024E+03
  2.49035E+04  2.31904E+03  2.94806E+04  2.01483E+04  2.01871E+04  4.24042E+04 -2.61963E+03  5.04474E+04
 -2.86956E+04  4.25785E+04 -4.84260E+04  2.29805E+04 -5.20937E+04 -4.02798E+03 -4.15770E+04 -3.07431E+04
 -1.60607E+04 -4.37091E+04  1.53417E+04 -3.74553E+04  3.17578E+04 -1.71406E+04  2.75038E+04  9.69753E+03
  8.83054E+03  2.16546E+04 -1.30917E+04  1.72341E+04 -2.27555E+04  2.62128E+03 -1.70708E+04 -1.51059E+04
 -4.05096E+02 -2.19654E+04  1.22113E+04 -1.57031E+04  1.50343E+04 -1.09192E+03  4.20334E+03  1.00700E+04
 -9.67272E+03  5.60331E+03 -1.13238E+04 -7.74470E+03 -2.88152E+03 -2.10547E+04  1.34150E+04 -2.33330E+04
  2.75766E+04 -1.42635E+04  3.16717E+04  3.56305E+03  2.72986E+04  2.20448E+04  1.25097E+04  3.48697E+04
 -7.78040E+03  3.67410E+04 -2.41809E+04  2.26775E+04 -2.73429E+04  4.17478E+03 -1.78918E+04 -8.07781E+03
 -7.55781E+03 -9.05340E+03 -5.17194E+02 -1.07434E+02 -3.33555E+03  3.81981E+03 -8.73992E+03  5.93275E+03
 -1.65030E+04 -1.18860E+03 -1.73154E+04 -1.38244E+04 -6.87251E+03 -2.26338E+04  7.59440E+03 -1.86341E+04
  1.54466E+04 -7.44223E+03  1.06744E+04  4.95361E+03 -5.62618E+02  7.07163E+03 -9.80862E+03 -1.13888E+02
 -9.14763E+03 -1.18720E+04 -1.55970E+03 -1.89701E+04  1.13265E+04 -2.03000E+04  2.41967E+04 -1.09011E+04
  2.78622E+04  3.08487E+03  2.06029E+04  1.79134E+04  4.11011E+03  2.33619E+04 -1.12231E+04  1.86758E+04
 -1.50025E+04  5.45986E+03 -7.93421E+03 -4.43746E+03  2.65389E+03 -5.39888E+03  9.11303E+03 -7.33028E+02
  8.88046E+03  8.78335E+03  8.88025E+02  1.54048E+04 -1.09782E+04  1.48340E+04 -1.80626E+04  3.03169E+03
 -1.34182E+04 -1.02752E+04 -8.07656E+01 -1.57810E+04  1.07952E+04 -8.03058E+03  1.19144E+04  4.51342E+03
  2.45913E+03  1.25940E+04 -9.82586E+03  1.40991E+04 -1.70459E+04  6.16875E+03 -1.79247E+04 -6.61312E+03
 -1.02762E+04 -1.96938E+04  5.13188E+03 -2.32009E+04  1.93722E+04 -1.37169E+04  2.10159E+04  4.03526E+03
  1.23078E+04  1.67888E+04 -2.09355E+03  1.95623E+04 -1.47742E+04  1.07439E+04 -1.66091E+04 -1.42681E+03
 -1.28200E+04 -1.27969E+04 -1.97038E+03 -1.49677E+04  8.02384E+03 -1.19625E+04  1.00052E+04 -4.25232E+03
  6.08133E+03  3.00419E+03 -2.14807E+03  2.41966E+03 -1.52149E+03 -4.78707E+03  3.22779E+03 -1.03292E+04
  1.49998E+04 -6.85922E+03  2.08484E+04  2.28264E+03  2.01862E+04  1.49368E+04  1.27016E+04  2.71958E+04
 -6.71768E+03  3.08985E+04 -2.50311E+04  2.29659E+04 -3.24703E+04  4.72231E+03 -2.66100E+04 -1.19663E+04
 -1.33883E+04 -2.14376E+04 -9.64037E+01 -1.86083E+04  6.66343E+03 -1.10758E+04  7.41089E+03 -7.08042E+03
  5.13035E+03 -3.90688E+03  4.74118E+03 -4.35467E+03  6.86323E+03 -4.85449E+03  1.03029E+04 -2.37988E+03
  1.38851E+04  3.18952E+03  7.88576E+03  1.18954E+04 -2.73101E+03  1.53134E+04 -1.46325E+04  1.18386E+04
 -1.88323E+04 -1.21860E+03 -1.27999E+04 -1.35660E+04 -1.72313E+03 -2.09349E+04  1.11724E+04 -2.09801E+04
  2.19216E+04 -1.12925E+04  2.57793E+04  3.82839E+03  1.74339E+04  1.84339E+04  2.75783E+03  2.34257E+04
 -1.00027E+04  1.79612E+04 -1.38458E+04  6.93512E+03 -1.07923E+04 -2.59403E+03 -4.32544E+03 -3.13511E+03
 -1.64974E+03 -2.95278E+02 -3.06212E+03  3.92067E+03 -8.06779E+03  3.06970E+03 -1.35201E+04 -1.84875E+03
 -1.00608E+04 -1.32131E+04 -9.93038E+02 -1.96033E+04  1.23276E+04 -1.83494E+04  2.00166E+04 -5.39501E+03
  1.97108E+04  9.38087E+03  8.90862E+03  1.75390E+04 -4.18091E+03  2.06490E+04 -1.47592E+04  1.20627E+04
 -1.89164E+04  6.36696E+02 -1.42659E+04 -1.18149E+04 -2.06509E+03 -1.71214E+04  9.08100E+03 -1.26539E+04
  1.23780E+04 -3.38631E+03  9.10310E+03  3.68996E+03  2.76147E+03  5.55264E+03  2.00575E+03  2.63468E+03
  3.63028E+03  1.60493E+03  4.76582E+03  2.84198E+03  6.41906E+03  6.50652E+03  5.16724E+03  1.12182E+04
 -3.88606E+03  1.62021E+04 -1.48068E+04  1.57944E+04 -2.14873E+04  3.71931E+03 -2.16733E+04 -9.42596E+03
 -1.05330E+04 -2.11030E+04  2.69886E+03 -2.27017E+04  1.32127E+04 -1.48302E+04  1.69365E+04 -3.50484E+03
  1.29073E+04  8.35022E+03  2.97115E+03  1.19991E+04 -5.75484E+03  7.69133E+03 -8.54184E+03 -1.01689E+03
 -4.99143E+03 -9.02926E+03  4.98271E+03 -9.60428E+03  8.91903E+03 -4.22712E+03  8.65487E+03  2.22442E+03
  5.51079E+03  4.43918E+03  1.90109E+03  3.93176E+03 -9.95656E+02  3.11004E+03  1.68648E+03 -9.56912E+02
  3.68212E+03 -1.18931E+03  8.27834E+03  3.12858E+03  5.48125E+03  1.12192E+04 -1.41668E+03  1.51050E+04
 -1.04415E+04  1.00700E+04 -1.41254E+04  3.21626E+03 -1.26511E+04 -4.83946E+03 -5.40275E+03 -8.52425E+03
  1.82617E+03 -8.36482E+03  5.17928E+03 -3.87237E+03  4.83115E+03  3.70807E+03 -1.35000E+03  6.69803E+03
 -8.67541E+03  4.48050E+03 -1.04738E+04 -4.72088E+03 -5.76302E+03 -1.16396E+04  1.74962E+03 -1.23194E+04
  7.67243E+03 -7.44106E+03  9.30586E+03 -7.67541E+02  7.28316E+03  3.76882E+03  6.33030E+02  6.77796E+03
 -4.36134E+03  2.13974E+03 -5.74936E+03 -4.53242E+03  1.49731E+03 -9.69741E+03  1.06336E+04 -7.42058E+03
  1.43967E+04  7.94897E+02  1.34646E+04  1.02782E+04  3.97041E+03  1.53816E+04 -5.75674E+03  1.36514E+04
 -1.24352E+04  6.01343E+03 -1.31499E+04 -1.58453E+03 -6.90797E+03 -9.55751E+03  2.18734E+03 -9.25894E+03
  8.92655E+03 -4.30136E+03  7.56412E+03  3.79782E+03  2.29403E+03  7.95748E+03 -1.53168E+03  6.51384E+03
 -3.60324E+03  4.10690E+03 -3.56398E+03  1.10137E+03 -2.15933E+03  1.31920E+03 -1.79565E+03  3.14750E+03
 -4.06751E+03  5.38220E+03 -1.01918E+04  5.27144E+03 -1.48627E+04  2.24492E+02 -1.67346E+04 -1.01069E+04
 -8.87564E+03 -1.99598E+04  3.32019E+03 -2.29628E+04  1.44091E+04 -1.76037E+04  2.17754E+04 -7.02860E+03
  2.06935E+04  4.43981E+03  1.26379E+04  1.38410E+04  1.38443E+03  1.58629E+04 -6.03587E+03  1.26115E+04
 -8.58230E+03  4.08088E+03 -5.55733E+03 -1.84492E+03 -2.08919E+03 -1.84596E+03 -1.03194E+03  2.60011E+02
 -2.25206E+03  4.50675E+02 -3.25073E+03 -9.34422E+02 -1.21027E+03 -3.58202E+03  6.29434E+02 -6.09688E+03
  6.77952E+03 -5.12973E+03  1.00212E+04  8.68435E+01  1.09642E+04  8.46238E+03  3.36388E+03  1.57610E+04
 -7.43482E+03  1.77421E+04 -1.71508E+04  1.02461E+04 -2.03391E+04 -1.66922E+03 -1.45016E+04 -1.22961E+04
 -5.99117E+03 -1.65279E+04  4.47504E+03 -1.55100E+04  1.12023E+04 -7.80015E+03  1.12809E+04  7.46410E+02
  5.88927E+03  5.28762E+03 -1.19289E+03  4.53002E+03 -3.55309E+03 -1.07989E+03  5.00717E+02 -3.89441E+03
  5.08746E+03 -2.22719E+03  6.78584E+03  1.98532E+03  4.94718E+03  6.76982E+03 -4.77185E+02  9.03976E+03
 -7.04622E+03  7.91407E+03 -1.14039E+04  6.61530E+02 -9.88389E+03 -8.46868E+03 -1.47094E+03 -1.40309E+04
  8.05017E+03 -1.16132E+04  1.29525E+04 -3.80876E+03  1.26872E+04  3.24863E+03  7.49707E+03  1.01306E+04
  1.49802E+03  1.12694E+04 -4.53821E+03  8.97981E+03 -7.28061E+03  4.85210E+03 -5.87309E+03  1.03998E+02
 -3.58003E+03 -3.84574E+02 -3.34075E+03  1.52544E+03 -5.67669E+03  1.48614E+03 -8.34844E+03 -1.54962E+03
 -8.00918E+03 -6.26025E+03 -2.56456E+03 -1.13010E+04  5.32145E+03 -1.13370E+04  9.97609E+03 -6.22903E+03
  1.15216E+04  1.67063E+03  6.21214E+03  8.38879E+03 -4.74876E+02  1.16424E+04 -8.35608E+03  7.47170E+03
