 $NMID ID='MM_0lb_SNR800_14hz_g45_80.RAW', FMTDAT='(8E13.5)'
 TRAMP=1., VOLUME=1. $END
  3.09855E+05  4.00538E+02  3.37733E+05  2.50409E+05  8.43995E+04  3.37837E+05 -1.32594E+05  2.50901E+05
 -1.89785E+05  8.30011E+04 -1.11385E+05 -3.25312E+04  8.18579E+02 -5.03171E+04  5.38508E+04 -2.52413E+01
  3.53644E+04  5.30381E+04 -1.68814E+04  7.55319E+04 -6.07253E+04  6.35807E+04 -8.39252E+04  3.20043E+04
 -8.07237E+04 -1.17506E+04 -5.71960E+04 -5.08535E+04 -1.48672E+04 -6.95704E+04  2.72417E+04 -4.56245E+04
  3.98716E+04  3.75084E+03  1.61704E+04  4.78029E+04 -3.43221E+04  4.70890E+04 -6.64712E+04 -1.89960E+02
 -5.32655E+04 -5.65571E+04 -6.84670E+03 -7.66759E+04  3.36716E+04 -5.44915E+04  4.80170E+04 -1.71493E+04
  4.31708E+04  1.13023E+04  3.15964E+04  2.51591E+04  1.55304E+04  2.92247E+04 -5.00668E+03  2.70252E+04
 -2.20861E+04  1.24364E+04 -1.91414E+04 -5.06278E+03  5.53763E+03 -7.49671E+03  2.20834E+04  1.21644E+04
  7.33705E+03  3.48184E+04 -3.22312E+04  3.51245E+04 -6.26747E+04  2.38163E+03 -5.67917E+04 -4.25621E+04
 -1.25813E+04 -6.28460E+04  3.95811E+04 -4.48091E+04  5.78925E+04 -1.98495E+03  3.40287E+04  3.24206E+04
 -6.27533E+03  3.56630E+04 -2.95523E+04  1.56864E+04 -3.02299E+04 -4.86991E+03 -1.60947E+04 -1.07816E+04
 -8.38224E+03 -1.30179E+04 -8.52794E+02 -1.80038E+04  7.20632E+03 -2.30424E+04  1.49225E+04 -1.36766E+04
  1.14618E+04  4.86600E+03 -8.04799E+03  1.26476E+04 -2.11692E+04 -4.16260E+03 -8.42828E+03 -3.32373E+04
  2.27177E+04 -4.33128E+04  4.78079E+04 -1.93202E+04  4.42481E+04  1.96785E+04  1.54814E+04  4.39930E+04
 -1.55742E+04  3.31633E+04 -2.48517E+04  1.52668E+03 -9.65716E+03 -2.76673E+04  2.07107E+04 -3.34453E+04
  4.09337E+04 -9.22197E+03  3.53584E+04  2.35972E+04  1.77967E+04  4.60557E+04 -8.10844E+03  4.95610E+04
 -3.11092E+04  3.30277E+04 -4.15048E+04  9.35343E+03 -4.22104E+04 -1.64523E+04 -2.32314E+04 -3.77452E+04
  7.32520E+03 -3.72202E+04  3.10673E+04 -1.44467E+04  2.90622E+04  1.09301E+04  4.22985E+03  1.91415E+04
 -1.36109E+04  8.26656E+03 -1.00832E+04 -7.45216E+03  6.01375E+03 -1.06360E+04  1.83253E+04  5.95520E+03
  1.32289E+04  2.19651E+04 -6.20491E+03  2.50817E+04 -2.23803E+04  1.12802E+04 -2.80546E+04 -4.89562E+03
 -2.01588E+04 -1.72048E+04 -8.32335E+03 -1.99806E+04  3.92827E+03 -1.92776E+04  1.52185E+04 -1.80389E+04
  2.57152E+04 -1.26960E+04  3.19747E+04  2.48564E+03  2.38285E+04  1.97081E+04  4.13886E+03  3.62133E+04
 -1.75652E+04  3.02461E+04 -2.75883E+04  1.05309E+04 -2.04838E+04 -1.03128E+04 -4.27502E+03 -1.36039E+04
  1.71050E+03 -2.99696E+03 -4.67112E+03  6.37390E+03 -1.57584E+04  5.43151E+03 -1.61940E+04 -6.55129E+03
 -1.01022E+04 -1.85844E+04  5.03473E+03 -2.27371E+04  1.51158E+04 -1.63457E+04  1.75531E+04 -1.68745E+03
  1.12948E+04  1.27500E+04 -1.10057E+03  1.88223E+04 -1.29329E+04  1.06380E+04 -1.86391E+04 -3.81310E+03
 -1.36093E+04 -1.66723E+04 -1.59725E+03 -2.25447E+04  1.02859E+04 -1.85710E+04  1.87762E+04 -8.95493E+03
  1.74226E+04  6.64885E+02  1.27810E+04  4.02561E+03  6.15888E+03  7.48926E+02  9.32287E+03 -1.22956E+03
  1.70924E+04  2.76208E+03  1.89629E+04  1.50209E+04  1.22760E+04  2.95540E+04 -2.94282E+03  3.32152E+04
 -1.95735E+04  2.67029E+04 -3.09498E+04  1.34866E+04 -3.23792E+04 -2.36303E+03 -2.72800E+04 -1.86028E+04
 -1.15642E+04 -2.67518E+04  9.32536E+03 -2.42822E+04  2.11009E+04 -1.26245E+04  1.89857E+04  5.15976E+03
  6.98924E+03  1.40060E+04 -8.85626E+03  1.22533E+04 -1.57909E+04  2.57296E+03 -1.22295E+04 -9.90731E+03
 -2.43047E+02 -1.51034E+04  7.80839E+03 -1.11831E+04  9.95882E+03 -1.28340E+03  1.94399E+03  6.68710E+03
 -6.62580E+03  2.51854E+03 -5.83937E+03 -5.57455E+03 -2.44662E+02 -1.34151E+04  9.55513E+03 -1.37311E+04
  1.63626E+04 -7.34922E+03  1.70494E+04  3.09032E+03  1.54497E+04  1.25474E+04  6.93014E+03  1.97383E+04
 -3.09810E+03  2.19711E+04 -1.34937E+04  1.35135E+04 -1.58485E+04  3.21206E+03 -1.11350E+04 -3.23544E+03
 -4.75017E+03 -4.88395E+03 -9.22633E+02  9.82045E+02 -2.29796E+03  2.49032E+03 -5.00470E+03  4.39982E+03
 -1.02317E+04 -7.50252E+02 -1.06839E+04 -9.20764E+03 -4.42318E+03 -1.47696E+04  4.94941E+03 -1.14679E+04
  9.23808E+03 -4.85768E+03  6.81292E+03  2.90585E+03  2.84767E+02  3.98950E+03 -5.45750E+03 -1.16149E+00
 -5.08746E+03 -7.40024E+03 -1.01478E+03 -1.00808E+04  5.80805E+03 -1.10550E+04  1.37414E+04 -5.71272E+03
  1.62084E+04  1.21942E+03  1.17441E+04  9.12925E+03  2.09017E+03  1.24259E+04 -6.86952E+03  1.10446E+04
 -8.89688E+03  3.52962E+03 -4.88928E+03 -2.08447E+03  1.72208E+03 -2.70640E+03  6.26812E+03 -1.09852E+03
  5.32847E+03  4.66104E+03  1.14514E+03  8.97528E+03 -6.20433E+03  8.66971E+03 -1.07505E+04  2.11991E+03
 -7.07673E+03 -5.34577E+03  5.38531E+02 -9.09351E+03  5.66540E+03 -4.52613E+03  5.86914E+03  1.77027E+03
  1.00142E+03  5.78832E+03 -5.44833E+03  7.39023E+03 -8.05182E+03  3.38101E+03 -7.89613E+03 -2.27905E+03
 -4.54273E+03 -9.41651E+03  2.25994E+03 -1.11887E+04  9.64540E+03 -6.83955E+03  1.01691E+04  1.84496E+03
  6.76323E+03  8.47797E+03 -3.06525E+02  1.01779E+04 -7.45265E+03  5.90372E+03 -7.73524E+03 -5.39738E+02
 -7.25179E+03 -7.04867E+03 -1.80423E+03 -7.65415E+03  3.79692E+03 -6.43970E+03  4.76046E+03 -3.38305E+03
  3.69876E+03  7.51937E+02 -5.05683E+02  1.36678E+03  1.06839E+02 -1.44826E+03  1.48336E+03 -4.13228E+03
  6.57896E+03 -2.02222E+03  9.19680E+03  1.09422E+03  8.95052E+03  6.10280E+03  6.98338E+03  1.19960E+04
 -2.53032E+03  1.37087E+04 -1.20144E+04  1.02300E+04 -1.52147E+04  1.94180E+03 -1.22845E+04 -4.97939E+03
 -6.29409E+03 -1.00070E+04 -2.92613E+02 -8.55084E+03  3.19618E+03 -4.37379E+03  2.64845E+03 -3.12242E+03
  1.84598E+03 -1.97196E+03  2.69585E+03 -2.97194E+03  4.27939E+03 -2.27289E+03  5.09345E+03 -3.54392E+01
  6.61744E+03  1.95209E+03  2.74481E+03  5.58096E+03 -1.77975E+03  5.74089E+03 -6.59097E+03  4.61948E+03
 -8.08157E+03 -1.18701E+03 -4.22440E+03 -5.70678E+03 -5.66638E+01 -8.61408E+03  5.16905E+03 -8.66599E+03
  8.85252E+03 -5.17793E+03  1.09651E+04  8.89144E+02  7.80488E+03  7.28092E+03  1.57182E+03  9.95741E+03
 -3.65767E+03  8.64876E+03 -5.53913E+03  3.08423E+03 -3.37143E+03 -1.27310E+03 -1.41226E+03 -1.23263E+03
 -5.40594E+02  1.77735E+02 -1.44482E+03  2.29840E+03 -3.95083E+03  1.24252E+03 -6.15108E+03 -4.92216E+02
 -3.63025E+03 -6.12498E+03  3.44063E+02 -8.11240E+03  4.90297E+03 -7.30833E+03  7.31987E+03 -2.24699E+03
  7.69213E+03  3.78157E+03  3.47204E+03  6.55461E+03 -1.35197E+03  7.93650E+03 -5.02864E+03  4.86161E+03
 -7.20282E+03  8.11584E+02 -5.77114E+03 -4.44265E+03 -4.36842E+02 -6.29061E+03  3.06250E+03 -4.47476E+03
  4.77255E+03 -1.80912E+03  3.36072E+03  1.49956E+03  1.36830E+03  2.29740E+03  1.25238E+03  1.09341E+03
  2.16752E+03  1.00697E+03  1.94145E+03  1.24790E+03  2.13797E+03  3.06422E+03  2.21697E+03  3.86297E+03
 -2.08880E+03  5.92336E+03 -5.08064E+03  6.38018E+03 -7.16394E+03  1.92713E+03 -7.65766E+03 -1.99582E+03
 -3.66141E+03 -7.11222E+03  1.23558E+03 -8.35565E+03  4.22142E+03 -4.87800E+03  6.03014E+03 -1.30943E+03
  4.49051E+03  2.98727E+03  8.83813E+02  4.07284E+03 -1.64217E+03  2.51219E+03 -2.68396E+03 -3.63745E+02
 -1.15191E+03 -2.82118E+03  2.18762E+03 -2.95807E+03  2.99463E+03 -1.72888E+03  2.82835E+03  1.05005E+03
  1.96918E+03  1.36249E+03  1.21262E+03  1.64765E+02 -1.66147E+02  6.87627E+02  1.53536E+03 -3.93035E+02
  6.68616E+02 -3.70067E+02  2.85602E+03  9.35113E+02  9.54340E+02  4.11947E+03 -1.00906E+03  5.29042E+03
 -3.29594E+03  2.96410E+03 -4.45872E+03  9.47084E+02 -4.28786E+03 -1.53948E+03 -1.03334E+03 -2.51092E+03
  5.81145E+02 -2.67119E+03  2.06591E+03 -1.26398E+03  1.39339E+03  1.95675E+03 -1.00347E+03  2.27847E+03
 -2.72493E+03  1.26091E+03 -3.05873E+03 -2.25292E+03 -1.55254E+03 -3.92614E+03  4.57548E+02 -3.80499E+03
  1.97374E+03 -2.05062E+03  2.55031E+03 -8.52155E+00  2.60247E+03  5.28871E+02  3.66453E+02  1.86182E+03
 -1.20012E+03  7.29397E+02 -1.70331E+03 -1.23142E+03  1.12134E+03 -2.46994E+03  3.56908E+03 -2.22800E+03
  3.66084E+03  3.00752E+02  4.70351E+03  2.25576E+03  1.68398E+03  4.29468E+03 -1.07303E+03  3.77594E+03
 -3.68194E+03  1.45364E+03 -3.67810E+03 -4.75816E+02 -1.87870E+03 -3.03618E+03  7.85962E+02 -1.84334E+03
  2.48751E+03 -1.25245E+03  2.11092E+03  1.24818E+03  5.02873E+02  2.43597E+03 -1.34264E+02  1.96604E+03
 -7.36080E+02  1.45532E+03 -1.42862E+03  3.05832E+02 -5.36300E+02  3.41465E+02 -8.54131E+02  1.04374E+03
 -1.20642E+03  1.69634E+03 -3.01142E+03  1.10814E+03 -4.16358E+03 -7.74668E+01 -4.97889E+03 -2.14275E+03
 -2.26480E+03 -5.50737E+03  1.01394E+03 -6.22573E+03  3.56216E+03 -4.92864E+03  5.97893E+03 -1.90728E+03
  5.59976E+03  9.73450E+02  3.20725E+03  3.16082E+03 -1.91913E+02  3.88285E+03 -1.55881E+03  2.95046E+03
 -2.44021E+03  1.51825E+03 -1.53425E+03  7.03967E+00 -7.88799E+02 -1.51244E+01 -6.38877E+02  1.58924E+02
 -1.33198E+03  4.99852E+01 -1.37344E+03 -3.34520E+02 -7.50412E+01 -1.18870E+03 -2.42491E+02 -1.48630E+03
  2.14643E+03 -1.59588E+03  1.85711E+03  1.17785E+02  3.05262E+03  2.20428E+03  4.83550E+02  4.09427E+03
 -1.89640E+03  4.85898E+03 -4.08642E+03  2.86477E+03 -4.42957E+03 -5.96812E+02 -3.20030E+03 -3.27565E+03
 -1.81595E+03 -3.86699E+03  9.59304E+02 -3.26560E+03  2.49147E+03 -1.80937E+03  2.31490E+03  2.92625E+02
  1.42758E+03  1.00958E+03  3.32831E+02  1.25313E+03 -7.84413E+02 -3.23560E+02  7.16955E+01 -8.67557E+02
  1.44240E+03 -2.80564E+02  1.38109E+03  7.95890E+02  7.56750E+02  1.39643E+03  2.48177E+02  1.67166E+03
 -1.78490E+03  1.65721E+03 -2.25018E+03 -6.08491E+01 -2.25505E+03 -1.63161E+03 -3.14416E+02 -3.17980E+03
  1.35292E+03 -2.10801E+03  2.52173E+03 -8.38198E+02  2.91913E+03 -7.67972E+01  1.01377E+03  2.47576E+03
  8.04038E+02  1.99619E+03 -8.60531E+02  2.06657E+03 -1.68441E+03  1.48873E+03 -1.12005E+03  2.39163E+02
 -8.68835E+02  3.77115E-01 -8.88188E+02  4.87083E+02 -1.20894E+03  6.26860E+02 -2.18396E+03 -3.42209E+02
 -2.04850E+03 -6.38990E+02 -5.08706E+02 -2.36675E+03  9.61711E+02 -3.00394E+03  2.06124E+03 -9.63818E+02
  2.10264E+03  1.92807E+02  6.92641E+02  1.57629E+03 -4.66944E+02  2.15284E+03 -1.36984E+03  1.63666E+03
