 $NMID ID='MM_0lb_SNR800_16hz_g45_32.RAW', FMTDAT='(8E13.5)'
 TRAMP=1., VOLUME=1. $END
  3.09562E+05  2.67610E+02  3.37759E+05  2.50458E+05  8.42560E+04  3.37618E+05 -1.32359E+05  2.50605E+05
 -1.90120E+05  8.27896E+04 -1.11079E+05 -3.27182E+04  1.18732E+03 -5.02769E+04  5.37498E+04  5.24209E+01
  3.50646E+04  5.30978E+04 -1.71178E+04  7.49892E+04 -6.06360E+04  6.29994E+04 -8.33909E+04  3.19074E+04
 -8.01723E+04 -1.13319E+04 -5.64492E+04 -5.06973E+04 -1.49325E+04 -6.89025E+04  2.71439E+04 -4.53753E+04
  3.95922E+04  3.63158E+03  1.58876E+04  4.77422E+04 -3.43132E+04  4.65224E+04 -6.60461E+04 -4.43950E+02
 -5.26929E+04 -5.59397E+04 -6.52188E+03 -7.59916E+04  3.32681E+04 -5.39725E+04  4.71673E+04 -1.67589E+04
  4.24440E+04  1.10511E+04  3.13357E+04  2.49684E+04  1.57446E+04  2.88175E+04 -4.97157E+03  2.68941E+04
 -2.16010E+04  1.25818E+04 -1.88381E+04 -4.63739E+03  5.15584E+03 -7.36138E+03  2.18241E+04  1.14963E+04
  7.26871E+03  3.43148E+04 -3.10917E+04  3.46271E+04 -6.18226E+04  2.25551E+03 -5.61839E+04 -4.16221E+04
 -1.20423E+04 -6.19891E+04  3.85908E+04 -4.41677E+04  5.65291E+04 -2.04546E+03  3.27994E+04  3.14260E+04
 -5.99390E+03  3.45718E+04 -2.91306E+04  1.45009E+04 -2.87439E+04 -4.90696E+03 -1.57234E+04 -1.00726E+04
 -7.99252E+03 -1.21089E+04 -7.81384E+02 -1.73397E+04  6.91957E+03 -2.28517E+04  1.54142E+04 -1.35746E+04
  1.16902E+04  4.13299E+03 -7.01909E+03  1.32349E+04 -2.00457E+04 -3.30037E+03 -8.35745E+03 -3.19199E+04
  2.18463E+04 -4.17562E+04  4.62810E+04 -1.89043E+04  4.33819E+04  1.87558E+04  1.49291E+04  4.26290E+04
 -1.55009E+04  3.19585E+04 -2.40834E+04  1.43889E+03 -9.31235E+03 -2.71622E+04  2.08467E+04 -3.24063E+04
  3.90845E+04 -8.14160E+03  3.31125E+04  2.31388E+04  1.65763E+04  4.42764E+04 -7.74237E+03  4.75091E+04
 -2.97283E+04  3.14943E+04 -3.92321E+04  8.84422E+03 -4.02258E+04 -1.56809E+04 -2.21500E+04 -3.60016E+04
  6.85229E+03 -3.57711E+04  3.01932E+04 -1.37511E+04  2.81281E+04  1.07754E+04  3.30364E+03  1.82527E+04
 -1.33711E+04  7.93596E+03 -1.00609E+04 -7.74839E+03  6.03444E+03 -1.04837E+04  1.75500E+04  6.22300E+03
  1.29366E+04  2.15925E+04 -6.12858E+03  2.41645E+04 -2.20865E+04  1.01051E+04 -2.62087E+04 -5.47938E+03
 -1.86996E+04 -1.69052E+04 -6.86695E+03 -1.83217E+04  4.01180E+03 -1.70480E+04  1.40866E+04 -1.62336E+04
  2.35341E+04 -1.21054E+04  3.00391E+04  2.05630E+03  2.27266E+04  1.81501E+04  4.15913E+03  3.43449E+04
 -1.71240E+04  2.88757E+04 -2.66742E+04  1.00888E+04 -2.04654E+04 -1.05144E+04 -4.06154E+03 -1.36415E+04
  2.06740E+03 -3.65551E+03 -3.49981E+03  5.88904E+03 -1.44011E+04  5.29960E+03 -1.47892E+04 -5.99135E+03
 -9.39498E+03 -1.74567E+04  5.02315E+03 -2.13818E+04  1.35177E+04 -1.52474E+04  1.62178E+04 -1.34831E+03
  9.76385E+03  1.19831E+04 -9.78228E+02  1.70869E+04 -1.16037E+04  9.81504E+03 -1.71982E+04 -3.94353E+03
 -1.25362E+04 -1.54092E+04 -1.62147E+03 -2.09987E+04  9.67985E+03 -1.71128E+04  1.76669E+04 -8.37105E+03
  1.61071E+04  4.31120E+02  1.15983E+04  4.13295E+03  6.12296E+03  7.74688E+02  8.62765E+03 -1.53603E+03
  1.54087E+04  2.56981E+03  1.69781E+04  1.34974E+04  1.06460E+04  2.74140E+04 -2.69367E+03  3.02328E+04
 -1.76025E+04  2.36874E+04 -2.75768E+04  1.12713E+04 -2.88608E+04 -1.91083E+03 -2.43430E+04 -1.65507E+04
 -1.08875E+04 -2.33718E+04  7.94042E+03 -2.18953E+04  1.88814E+04 -1.18899E+04  1.73157E+04  4.38883E+03
  6.87578E+03  1.25782E+04 -7.99936E+03  1.14721E+04 -1.46562E+04  2.84954E+03 -1.14201E+04 -9.07432E+03
 -6.31649E+01 -1.38558E+04  7.28227E+03 -1.06857E+04  9.11562E+03 -1.04742E+03  1.80376E+03  5.46797E+03
 -5.90380E+03  1.68980E+03 -4.79596E+03 -5.03726E+03  1.33420E+02 -1.13341E+04  8.76410E+03 -1.19645E+04
  1.42531E+04 -5.95446E+03  1.50370E+04  2.94379E+03  1.28507E+04  1.12581E+04  6.09950E+03  1.68940E+04
 -2.51991E+03  1.84467E+04 -1.18396E+04  1.18498E+04 -1.33719E+04  3.20628E+03 -9.79086E+03 -2.67209E+03
 -4.95028E+03 -4.01813E+03 -7.86095E+02  1.04286E+03 -2.06999E+03  2.41050E+03 -4.36548E+03  3.91973E+03
 -9.10532E+03 -5.79571E+02 -9.84513E+03 -7.93297E+03 -3.97591E+03 -1.27847E+04  4.33657E+03 -9.88121E+03
  7.97545E+03 -4.49976E+03  6.03409E+03  2.83131E+03  3.01636E+02  3.97932E+03 -4.16689E+03  1.88354E+02
 -4.08117E+03 -6.03024E+03 -5.86270E+02 -8.77284E+03  4.68486E+03 -9.47184E+03  1.16791E+04 -4.74952E+03
  1.38335E+04  9.68020E+02  1.03732E+04  7.19367E+03  2.15124E+03  1.06865E+04 -6.05543E+03  9.60415E+03
 -7.88824E+03  3.08179E+03 -4.08192E+03 -1.72430E+03  1.58401E+03 -2.25061E+03  5.32644E+03 -8.64070E+02
  4.69313E+03  4.05475E+03  9.32408E+02  7.41735E+03 -5.25955E+03  7.15231E+03 -9.49903E+03  1.70698E+03
 -6.04367E+03 -4.25469E+03  3.34952E+02 -7.98896E+03  4.40798E+03 -3.99508E+03  4.57840E+03  1.65979E+03
  7.14198E+02  4.38838E+03 -4.64180E+03  5.80390E+03 -6.60791E+03  2.70401E+03 -6.20573E+03 -1.91030E+03
 -3.69316E+03 -7.47287E+03  1.42401E+03 -9.01958E+03  7.55395E+03 -5.39173E+03  8.09038E+03  1.38239E+03
  5.74119E+03  6.86391E+03 -1.74109E+02  8.92398E+03 -6.24206E+03  5.01548E+03 -6.88860E+03 -2.99219E+02
 -6.48950E+03 -6.14365E+03 -1.49545E+03 -6.15799E+03  3.29728E+03 -5.42690E+03  3.53878E+03 -3.14302E+03
  3.29007E+03  5.70105E+02 -8.12424E+01  1.36615E+03  2.26290E+02 -9.26822E+02  3.81873E+02 -2.56030E+03
  4.83898E+03 -1.37904E+03  7.20449E+03  9.15428E+02  7.20200E+03  4.50095E+03  6.07122E+03  9.55366E+03
 -1.87176E+03  1.12706E+04 -9.58057E+03  8.35332E+03 -1.24665E+04  1.74829E+03 -9.90476E+03 -3.82580E+03
 -5.28841E+03 -8.50967E+03 -5.18153E+02 -6.71133E+03  2.89456E+03 -3.45679E+03  2.30146E+03 -2.58674E+03
  1.77474E+03 -1.89941E+03  2.58053E+03 -2.54427E+03  3.84229E+03 -1.78717E+03  4.43530E+03  2.03722E+02
  5.47960E+03  1.62607E+03  1.82275E+03  4.54916E+03 -1.71820E+03  4.21081E+03 -5.75615E+03  3.45923E+03
 -6.58161E+03 -1.06188E+03 -3.11340E+03 -4.62178E+03  5.07413E+00 -6.93704E+03  4.29741E+03 -7.13619E+03
  7.09843E+03 -3.91862E+03  8.65436E+03  6.30169E+02  6.14494E+03  6.05643E+03  1.20862E+03  7.74503E+03
 -2.74702E+03  7.26990E+03 -4.45153E+03  2.34871E+03 -2.63585E+03 -1.03052E+03 -8.93184E+02 -1.00748E+03
 -7.71491E+02  4.30579E+01 -1.10551E+03  2.20580E+03 -2.97865E+03  1.31174E+03 -4.78225E+03 -4.50897E+02
 -2.56531E+03 -5.13968E+03  5.52238E+02 -6.13616E+03  3.74728E+03 -5.49319E+03  5.25127E+03 -1.55304E+03
  5.79894E+03  3.17374E+03  2.59424E+03  4.81277E+03 -1.01614E+03  5.80391E+03 -3.70580E+03  3.84571E+03
 -5.43735E+03  4.56979E+02 -4.69030E+03 -3.43056E+03 -5.90260E+02 -4.57262E+03  2.39408E+03 -3.55157E+03
  3.65404E+03 -1.53855E+03  2.45409E+03  6.53297E+02  6.98892E+02  1.95158E+03  7.72454E+02  8.61537E+02
  1.97485E+03  6.76515E+02  1.52089E+03  9.18593E+02  1.20263E+03  2.62926E+03  1.77855E+03  2.48263E+03
 -1.74208E+03  4.20464E+03 -3.69911E+03  5.33521E+03 -4.94993E+03  1.53071E+03 -5.78286E+03 -1.29391E+03
 -2.68639E+03 -5.16172E+03  1.20362E+03 -6.23114E+03  3.08194E+03 -3.47252E+03  4.38058E+03 -1.18134E+03
  3.59199E+03  2.17671E+03  5.32020E+02  3.39329E+03 -1.13931E+03  1.93478E+03 -2.01007E+03 -3.28460E+02
 -1.02961E+03 -2.34003E+03  1.67616E+03 -2.19280E+03  2.02097E+03 -1.24244E+03  2.31632E+03  5.58371E+02
  1.37320E+03  7.23017E+02  7.73695E+02 -8.40412E+01 -2.80709E+02  7.92522E+02  1.70083E+03  1.67580E+02
  3.11911E+02 -2.78192E+02  2.48497E+03  1.14959E+03  8.55174E+02  3.00855E+03 -5.08084E+02  3.98910E+03
 -2.55327E+03  1.92810E+03 -3.19299E+03  6.52273E+02 -2.95114E+03 -8.90975E+02 -6.84088E+02 -1.84211E+03
  2.87478E+02 -1.59448E+03  1.28900E+03 -7.59542E+02  9.51351E+02  1.80496E+03 -7.58026E+02  1.51718E+03
 -2.56819E+03  9.39958E+02 -2.21326E+03 -1.89726E+03 -1.27289E+03 -3.03378E+03 -3.19709E+01 -2.66973E+03
  1.27450E+03 -1.15217E+03  1.38021E+03  6.12237E+01  1.91559E+03  1.79475E+02  3.58606E+02  1.42242E+03
 -8.29049E+02  3.10069E+02 -1.29810E+03 -4.34624E+02  8.48792E+02 -1.69960E+03  2.31971E+03 -1.33509E+03
  2.36970E+03  2.51290E+02  3.74204E+03  1.44308E+03  1.31294E+03  2.79557E+03 -5.09276E+02  2.78738E+03
 -2.25112E+03  9.84595E+02 -2.45718E+03 -3.36218E+02 -1.15821E+03 -1.78555E+03  5.53119E+02 -1.45089E+03
  2.24078E+03 -9.63594E+02  1.30728E+03  8.73246E+02  3.33232E+02  1.79722E+03  1.28813E+02  1.48977E+03
 -5.34907E+02  1.35696E+03 -5.93259E+02  4.69104E+02 -3.29580E+01  3.35628E+02 -8.07994E+02  7.88365E+02
 -1.11572E+03  1.51846E+03 -2.30431E+03  8.87563E+02 -2.85172E+03  9.03487E+01 -3.60801E+03 -1.83027E+03
 -1.68770E+03 -3.45287E+03  8.24700E+02 -4.59089E+03  2.17717E+03 -3.49017E+03  4.14614E+03 -1.66509E+03
  3.81860E+03  4.54519E+02  2.20602E+03  2.29509E+03 -3.41761E+02  2.38685E+03 -1.32092E+03  2.23810E+03
 -1.78021E+03  1.25909E+03 -1.16393E+03 -1.62569E+02 -2.70646E+02 -2.95002E+01 -4.73573E+02  1.48384E+02
 -1.06896E+03  7.00407E+01 -1.12411E+03 -4.56593E+01  1.06293E+02 -6.68938E+02 -4.65587E+02 -1.20115E+03
  1.81957E+03 -7.84273E+02  1.10347E+03  8.50246E+01  1.90915E+03  1.58680E+03  2.02539E+00  2.42035E+03
 -1.43886E+03  3.10704E+03 -2.79753E+03  2.00656E+03 -3.14162E+03 -2.15870E+02 -1.95498E+03 -2.30899E+03
 -1.32763E+03 -2.37695E+03  4.29544E+02 -2.35742E+03  9.48541E+02 -1.08068E+03  1.24299E+03 -6.56371E+01
  8.64170E+02  9.13782E+02  1.15434E+01  5.93043E+02 -5.90719E+02  1.89560E+02 -2.92829E+02 -4.31406E+02
  8.68649E+02  2.49054E+02  8.64008E+02  6.88440E+02  4.21788E+02  1.09756E+03  6.15221E+02  1.00603E+03
 -9.29791E+02  1.10172E+03 -1.50749E+03  2.27608E+02 -1.28066E+03 -8.14806E+02  1.45612E+02 -2.22312E+03
  1.08979E+03 -1.27271E+03  1.22601E+03 -2.91663E+02  1.71859E+03 -5.21681E+02  1.04955E+03  1.36193E+03
  7.44683E+02  1.24283E+03 -5.84511E+02  9.11179E+02 -8.70285E+02  6.51884E+02 -8.75924E+02  6.89961E+01
 -5.07392E+02 -1.93362E+02 -8.66175E+02  3.97260E+02 -1.12174E+03  3.46383E+02 -9.28249E+02 -4.97757E+02
 -1.59429E+03 -1.51891E+02 -5.91525E+02 -1.58398E+03  8.70490E+02 -2.25835E+03  1.23858E+03 -5.43898E+02
  1.54982E+03 -5.35675E+01  2.33188E+02  6.42312E+02 -1.48525E+02  1.32715E+03 -9.35630E+02  1.21325E+03
