 $NMID ID='MM_0lb_SNR800_20hz_g60_42.RAW', FMTDAT='(8E13.5)'
 TRAMP=1., VOLUME=1. $END
  3.09853E+05  7.41699E+02  3.37554E+05  2.50280E+05  8.44201E+04  3.37459E+05 -1.32386E+05  2.50827E+05
 -1.90103E+05  8.28847E+04 -1.11351E+05 -3.27434E+04  1.14458E+03 -5.03840E+04  5.39042E+04 -8.96328E+00
  3.52576E+04  5.26559E+04 -1.70252E+04  7.50286E+04 -6.06126E+04  6.30837E+04 -8.35456E+04  3.16067E+04
 -8.02717E+04 -1.15489E+04 -5.63429E+04 -5.04087E+04 -1.49757E+04 -6.87694E+04  2.71238E+04 -4.51485E+04
  3.93527E+04  3.67324E+03  1.57409E+04  4.73323E+04 -3.42305E+04  4.65649E+04 -6.61357E+04 -5.67935E+02
 -5.25729E+04 -5.62178E+04 -6.48941E+03 -7.57907E+04  3.32825E+04 -5.41944E+04  4.69950E+04 -1.66431E+04
  4.24060E+04  1.12840E+04  3.10353E+04  2.45958E+04  1.58754E+04  2.88073E+04 -4.89953E+03  2.70378E+04
 -2.18555E+04  1.25631E+04 -1.88566E+04 -4.63785E+03  4.76934E+03 -7.53573E+03  2.16239E+04  1.15452E+04
  7.61588E+03  3.42799E+04 -3.09353E+04  3.43613E+04 -6.20069E+04  2.12471E+03 -5.58598E+04 -4.16386E+04
 -1.24464E+04 -6.16287E+04  3.85881E+04 -4.40136E+04  5.65266E+04 -1.96732E+03  3.26128E+04  3.10934E+04
 -6.64782E+03  3.41691E+04 -2.88732E+04  1.39760E+04 -2.82935E+04 -5.28160E+03 -1.50866E+04 -1.02065E+04
 -8.01073E+03 -1.19496E+04 -7.32826E+02 -1.69737E+04  6.71929E+03 -2.26341E+04  1.51544E+04 -1.37123E+04
  1.18439E+04  4.58862E+03 -6.78604E+03  1.29455E+04 -1.98644E+04 -3.32546E+03 -8.19377E+03 -3.12223E+04
  2.13380E+04 -4.13040E+04  4.58908E+04 -1.88689E+04  4.24903E+04  1.86313E+04  1.48023E+04  4.23404E+04
 -1.55930E+04  3.17249E+04 -2.39354E+04  1.51111E+03 -8.57873E+03 -2.64536E+04  2.07141E+04 -3.16832E+04
  3.87659E+04 -7.57342E+03  3.25932E+04  2.32775E+04  1.61898E+04  4.34358E+04 -7.86681E+03  4.65867E+04
 -2.91881E+04  3.05413E+04 -3.85042E+04  8.43396E+03 -3.92314E+04 -1.52636E+04 -2.18351E+04 -3.51137E+04
  6.85649E+03 -3.50237E+04  2.93184E+04 -1.32113E+04  2.75398E+04  1.10203E+04  3.10509E+03  1.81857E+04
 -1.32036E+04  7.60155E+03 -9.63322E+03 -8.00614E+03  5.96261E+03 -1.00947E+04  1.74533E+04  6.24767E+03
  1.25511E+04  2.14690E+04 -6.52634E+03  2.38433E+04 -2.17603E+04  9.61986E+03 -2.53996E+04 -6.29630E+03
 -1.74502E+04 -1.64687E+04 -6.19192E+03 -1.73865E+04  3.86969E+03 -1.55332E+04  1.29770E+04 -1.49789E+04
  2.17764E+04 -1.17566E+04  2.84832E+04  1.30352E+03  2.15061E+04  1.66739E+04  3.91276E+03  3.28779E+04
 -1.62690E+04  2.80098E+04 -2.61346E+04  9.61916E+03 -1.96603E+04 -1.02574E+04 -4.15470E+03 -1.36324E+04
  2.55510E+03 -4.09363E+03 -2.88413E+03  5.47499E+03 -1.34683E+04  5.28777E+03 -1.38762E+04 -5.25033E+03
 -8.57238E+03 -1.60980E+04  4.47572E+03 -1.97827E+04  1.27547E+04 -1.43356E+04  1.48627E+04 -1.88341E+03
  9.19227E+03  1.11331E+04 -6.57272E+02  1.62591E+04 -1.07913E+04  8.90137E+03 -1.56300E+04 -3.40216E+03
 -1.18389E+04 -1.43309E+04 -1.55061E+03 -1.92783E+04  8.69819E+03 -1.54365E+04  1.64310E+04 -7.60263E+03
  1.47276E+04  8.19565E+02  1.07914E+04  4.01955E+03  5.12117E+03  3.94524E+02  7.59835E+03 -1.30215E+03
  1.40985E+04  2.78730E+03  1.50311E+04  1.28046E+04  9.57094E+03  2.51358E+04 -3.12202E+03  2.67060E+04
 -1.60319E+04  2.04819E+04 -2.45436E+04  9.87893E+03 -2.52508E+04 -1.58010E+03 -2.16148E+04 -1.41665E+04
 -1.00980E+04 -2.07185E+04  6.90585E+03 -1.91143E+04  1.69742E+04 -1.08821E+04  1.58586E+04  4.00829E+03
  6.44732E+03  1.14166E+04 -7.13448E+03  1.06376E+04 -1.34616E+04  2.37637E+03 -1.03365E+04 -7.91910E+03
 -1.78419E+02 -1.25886E+04  5.89899E+03 -9.40977E+03  7.97247E+03 -1.20582E+03  1.31749E+03  4.95654E+03
 -5.59440E+03  1.16318E+03 -3.55427E+03 -4.70712E+03  2.88086E+02 -1.01360E+04  7.75005E+03 -1.01686E+04
  1.21263E+04 -4.40153E+03  1.18834E+04  2.61708E+03  1.01599E+04  9.49605E+03  5.20699E+03  1.38348E+04
 -1.52187E+03  1.57569E+04 -9.52043E+03  1.00973E+04 -1.12270E+04  3.16158E+03 -8.57242E+03 -1.72654E+03
 -4.18735E+03 -3.23133E+03 -6.85799E+02  1.60205E+03 -1.79036E+03  1.80110E+03 -3.57120E+03  3.57262E+03
 -8.00195E+03 -4.21880E+02 -8.58530E+03 -7.24171E+03 -3.53776E+03 -1.14830E+04  3.50439E+03 -8.36001E+03
  7.08410E+03 -3.63133E+03  5.15555E+03  2.15084E+03  6.75181E+02  2.99561E+03 -3.13930E+03 -1.65523E+02
 -3.20148E+03 -5.30077E+03 -7.93380E+02 -6.89740E+03  3.65882E+03 -7.70005E+03  9.59605E+03 -3.83391E+03
  1.14178E+04  5.34165E+02  8.45030E+03  5.80410E+03  1.76850E+03  8.46139E+03 -5.26856E+03  8.27302E+03
 -6.62118E+03  2.60413E+03 -3.49210E+03 -1.31046E+03  1.30275E+03 -1.87047E+03  4.65000E+03 -8.19592E+02
  3.80814E+03  3.27644E+03  1.15580E+03  6.26783E+03 -4.33073E+03  6.15354E+03 -7.57041E+03  1.80231E+03
 -4.75776E+03 -3.44755E+03  3.28002E+02 -6.63342E+03  3.35624E+03 -3.32076E+03  3.36770E+03  1.06961E+03
  3.04637E+02  3.14873E+03 -3.72784E+03  4.02517E+03 -4.19642E+03  2.33004E+03 -4.22864E+03 -9.05513E+02
 -2.60443E+03 -5.79196E+03  1.15138E+03 -6.45336E+03  5.53899E+03 -4.36213E+03  6.01705E+03  1.03761E+03
  4.35654E+03  4.74058E+03  1.20435E+02  6.64239E+03 -4.66698E+03  3.69013E+03 -4.91687E+03 -4.02415E+02
 -5.65642E+03 -4.84358E+03 -1.42215E+03 -4.67248E+03  2.33116E+03 -4.31359E+03  2.62316E+03 -2.90762E+03
  2.57857E+03  3.12671E+02  3.85802E+02  1.44928E+03  5.22916E+02  1.30316E+01  9.56960E+00 -1.49388E+03
  3.50100E+03 -4.87128E+02  4.56192E+03  5.51638E+02  5.35608E+03  2.64005E+03  5.02982E+03  6.66199E+03
 -1.03083E+03  7.62233E+03 -6.95035E+03  5.95419E+03 -8.93500E+03  9.87697E+02 -6.98191E+03 -2.24977E+03
 -3.99366E+03 -5.69857E+03 -5.64285E+02 -4.40933E+03  2.18729E+03 -1.88535E+03  1.51513E+03 -1.76333E+03
  1.30371E+03 -1.32482E+03  2.15548E+03 -2.26973E+03  3.71290E+03 -1.20886E+03  3.29722E+03  8.65577E+02
  3.92084E+03  9.67795E+02  6.58244E+02  3.07206E+03 -1.29680E+03  2.27948E+03 -4.03643E+03  1.99389E+03
 -4.35270E+03 -7.64306E+02 -1.17178E+03 -3.09891E+03  3.23024E+02 -4.19885E+03  2.86013E+03 -4.68347E+03
  4.35678E+03 -2.95428E+03  5.78995E+03  2.79705E+02  4.36046E+03  3.35731E+03  7.37388E+02  5.25384E+03
 -1.71151E+03  5.26379E+03 -2.92359E+03  1.63150E+03 -1.51616E+03 -7.43218E+02 -1.90826E+02 -5.18581E+02
 -3.86799E+02  4.83813E+02 -1.05277E+03  1.79588E+03 -2.37909E+03  1.03429E+03 -3.59389E+03 -3.82514E+02
 -9.83209E+02 -3.88408E+03  7.68279E+02 -3.97082E+03  2.54384E+03 -3.76871E+03  2.70987E+03 -9.38868E+02
  3.26938E+03  2.10039E+03  1.50436E+03  2.49979E+03 -5.31952E+02  3.79639E+03 -2.20163E+03  2.42729E+03
 -3.27595E+03  9.50784E+02 -2.72855E+03 -1.90698E+03 -1.56077E+02 -2.47275E+03  1.37730E+03 -1.79242E+03
  2.48266E+03 -1.47941E+03  1.34063E+03  1.80604E+02  3.78199E+02  1.28920E+03  7.20877E+02  3.93135E+02
  1.61662E+03  2.57413E+02  8.05212E+02  1.10383E+03  8.27371E+02  2.05776E+03  1.25445E+03  1.23965E+03
 -1.13898E+03  2.23342E+03 -1.82981E+03  3.40116E+03 -2.11081E+03  8.81142E+02 -3.55201E+03 -8.26090E+00
 -1.29124E+03 -2.94218E+03  4.02188E+02 -3.76197E+03  1.48530E+03 -2.13574E+03  2.38030E+03 -8.20404E+02
  1.91287E+03  1.59360E+03  3.73493E+02  1.89713E+03 -4.87530E+02  1.02735E+03 -5.32164E+02  3.65160E+01
 -3.73132E+02 -1.10890E+03  1.28311E+03 -9.84784E+02  9.39284E+02 -6.87611E+02  9.30754E+02  4.69722E+02
  5.15679E+02 -5.01818E+01  7.19244E+02 -4.45809E+02 -1.49122E+02  6.34932E+02  1.34152E+03 -2.22234E+02
 -2.94960E+02 -5.50165E+01  1.42810E+03  5.07390E+02 -3.18831E+02  2.03953E+03 -2.99769E+02  2.23456E+03
 -1.34646E+03  7.76353E+02 -1.58271E+03  1.08633E+02 -1.57005E+03 -5.01893E+02  9.84568E+01 -7.67514E+02
  1.51913E+02 -6.73518E+02  6.03642E+02 -6.87055E+02  2.94150E+02  9.06417E+02 -8.87730E+02  6.35073E+02
 -1.16747E+03  5.98259E+02 -6.98007E+02 -1.04558E+03 -5.27313E+02 -1.71501E+03  3.21481E+01 -1.05354E+03
  2.50828E+02 -2.03826E+02  3.23176E+02  2.45683E+02  1.09783E+03 -8.23257E+01  3.03621E+02  7.96314E+02
 -3.14153E+02  2.06011E+01 -8.10789E+02  9.64548E+01  4.60543E+02 -5.57457E+02  1.31959E+03 -5.31770E+02
  9.21785E+02  1.27696E+02  2.05636E+03  3.73188E+02  8.20512E+02  1.00093E+03 -1.42461E+02  1.11641E+03
 -9.36972E+02  3.62787E+01 -1.09140E+03 -1.95209E+02 -5.53628E+02 -8.30509E+02  2.43574E+02 -2.69380E+02
  8.45022E+02 -6.12314E+02  4.12386E+02  6.18958E+02 -4.96750E+01  1.08330E+03  4.80446E+02  7.83646E+02
 -2.91206E+02  8.12713E+02 -3.05639E+02  1.59393E+02  2.25765E+02  4.77628E+02 -8.57379E+02  5.86225E+02
 -5.72059E+02  7.26734E+02 -1.45749E+03  1.98773E+02 -1.38176E+03  1.85797E+01 -1.58111E+03 -5.90505E+02
 -6.81987E+02 -1.66338E+03  4.36252E+02 -1.89087E+03  3.99282E+02 -1.53865E+03  2.08870E+03 -7.71338E+02
  1.60108E+03 -3.56706E+02  8.00630E+02  1.03525E+03 -6.30053E+02  8.05728E+02 -4.65795E+02  7.58894E+02
 -4.68378E+02  9.03887E+02 -3.65343E+02  2.55338E+00 -4.00205E+02  3.55683E+02 -8.63268E+02  2.91120E+02
 -8.87538E+02 -5.30578E+02 -5.94623E+02  7.72420E+00  5.38193E+01 -3.41458E+02 -2.30599E+02 -4.43064E+02
  1.13223E+03 -7.35535E+02  6.92065E+01  7.50391E+01  6.71879E+02  7.04559E+02 -6.84447E+02  6.90411E+02
 -8.84364E+02  1.92519E+03 -9.78662E+02  1.07881E+03 -1.12605E+03 -4.22846E+02 -6.13098E+02 -7.76716E+02
 -4.32707E+02 -1.00045E+03  3.67918E+02 -7.22240E+02  2.58947E+02 -2.98602E+02  2.78840E+02  1.64750E+02
  6.59653E+02  9.55796E+01  7.31294E+01  6.37080E+01 -5.59662E+02  1.74212E+01 -3.62261E+02  6.04695E+01
  2.75433E+02  3.43708E+02  2.26747E+02  2.90232E+02 -1.75189E+02  4.18447E+01  2.91575E+02  7.56020E+01
 -2.70017E+02  1.02546E+02 -1.43947E+02 -6.08756E+01 -1.09684E+02 -2.39273E+02  1.91075E+02 -5.83797E+02
  3.45864E+01 -3.80900E+02  6.64171E+01 -6.80140E+01  4.77463E+02 -8.91584E+02  2.67743E+02  4.35398E+02
  4.28106E+02  7.28135E+01 -2.32181E+02  1.89259E+02 -2.40134E+02  6.18814E+02 -1.31975E+02  2.65205E+02
 -6.25370E+01 -1.64504E+02 -5.19799E+02 -2.67671E+01 -4.28341E+02  1.42615E+02 -4.26190E+02 -2.07486E+02
 -7.11737E+02  7.35969E+02 -5.50879E+02 -4.61601E+02  7.35789E+02 -1.41316E+03  7.31927E+02 -1.34717E+02
  2.08607E+02 -1.23472E+02 -2.67356E+02  1.60339E+02  7.52893E+01  6.37806E+02 -2.05819E+02  2.59076E+02
