 $NMID ID='MM_0lb_SNR800_16hz_g60_5.RAW', FMTDAT='(8E13.5)'
 TRAMP=1., VOLUME=1. $END
  3.09854E+05  5.51013E+02  3.37847E+05  2.50541E+05  8.46580E+04  3.38078E+05 -1.32702E+05  2.50880E+05
 -1.90370E+05  8.31594E+04 -1.11948E+05 -3.27513E+04  6.97280E+02 -5.05487E+04  5.36883E+04  1.65294E+02
  3.56222E+04  5.27911E+04 -1.68390E+04  7.55634E+04 -6.06648E+04  6.38042E+04 -8.42716E+04  3.20412E+04
 -8.09604E+04 -1.13949E+04 -5.73829E+04 -5.13442E+04 -1.48160E+04 -6.96839E+04  2.73822E+04 -4.59160E+04
  4.01205E+04  3.78903E+03  1.61227E+04  4.76240E+04 -3.44559E+04  4.72037E+04 -6.68739E+04  1.13003E+02
 -5.36500E+04 -5.69380E+04 -6.60516E+03 -7.69130E+04  3.39399E+04 -5.51223E+04  4.79416E+04 -1.75400E+04
  4.33028E+04  1.12772E+04  3.20782E+04  2.53742E+04  1.57089E+04  2.96292E+04 -5.12982E+03  2.72961E+04
 -2.21957E+04  1.22733E+04 -1.85319E+04 -4.70995E+03  5.81191E+03 -7.49851E+03  2.23930E+04  1.19214E+04
  7.32598E+03  3.53847E+04 -3.24355E+04  3.54515E+04 -6.31937E+04  2.38359E+03 -5.72099E+04 -4.27538E+04
 -1.26315E+04 -6.32171E+04  3.99135E+04 -4.53128E+04  5.83216E+04 -2.12097E+03  3.40897E+04  3.24466E+04
 -5.95923E+03  3.63706E+04 -3.01680E+04  1.61183E+04 -3.03689E+04 -4.40803E+03 -1.69812E+04 -1.10781E+04
 -8.37039E+03 -1.30655E+04 -5.61680E+02 -1.80873E+04  7.21899E+03 -2.28189E+04  1.54661E+04 -1.32716E+04
  1.14734E+04  5.23438E+03 -8.14579E+03  1.28499E+04 -2.11621E+04 -4.65444E+03 -8.30271E+03 -3.36433E+04
  2.28246E+04 -4.34325E+04  4.80246E+04 -1.97748E+04  4.52172E+04  1.93379E+04  1.56170E+04  4.43808E+04
 -1.58233E+04  3.34775E+04 -2.54903E+04  1.84335E+03 -9.86617E+03 -2.77022E+04  2.06563E+04 -3.37089E+04
  4.10175E+04 -8.99991E+03  3.55848E+04  2.40004E+04  1.76401E+04  4.67629E+04 -8.01557E+03  5.00928E+04
 -3.18011E+04  3.38216E+04 -4.20931E+04  9.56243E+03 -4.23122E+04 -1.65479E+04 -2.33602E+04 -3.78317E+04
  7.26395E+03 -3.79047E+04  3.14003E+04 -1.48391E+04  2.91365E+04  1.11661E+04  4.24239E+03  1.88743E+04
 -1.38111E+04  8.11005E+03 -1.03349E+04 -7.69185E+03  6.01146E+03 -1.05077E+04  1.78597E+04  6.00555E+03
  1.36887E+04  2.22856E+04 -6.17688E+03  2.49751E+04 -2.23426E+04  1.13349E+04 -2.78606E+04 -4.94826E+03
 -2.03219E+04 -1.71720E+04 -8.33847E+03 -2.02563E+04  3.86523E+03 -1.91393E+04  1.52459E+04 -1.80630E+04
  2.58289E+04 -1.27862E+04  3.23758E+04  2.79954E+03  2.38238E+04  1.96807E+04  4.02827E+03  3.62537E+04
 -1.77174E+04  3.03935E+04 -2.79056E+04  1.02782E+04 -2.05698E+04 -1.03694E+04 -4.48514E+03 -1.34070E+04
  1.76988E+03 -2.97826E+03 -4.60631E+03  6.53818E+03 -1.61049E+04  5.16109E+03 -1.62568E+04 -7.00631E+03
 -1.00427E+04 -1.85194E+04  5.05117E+03 -2.28589E+04  1.49986E+04 -1.64617E+04  1.79388E+04 -1.78370E+03
  1.10205E+04  1.31994E+04 -9.99468E+02  1.88671E+04 -1.29726E+04  1.07834E+04 -1.88715E+04 -3.86688E+03
 -1.40723E+04 -1.66969E+04 -1.74689E+03 -2.24196E+04  9.96968E+03 -1.85856E+04  1.87694E+04 -9.08249E+03
  1.71045E+04  2.29403E+02  1.26208E+04  4.44098E+03  6.56926E+03  4.07201E+02  9.07681E+03 -1.58012E+03
  1.70994E+04  2.56408E+03  1.87616E+04  1.46431E+04  1.21432E+04  2.95069E+04 -2.78063E+03  3.30416E+04
 -1.94493E+04  2.63988E+04 -3.08895E+04  1.30891E+04 -3.21851E+04 -2.18942E+03 -2.67938E+04 -1.84674E+04
 -1.15239E+04 -2.64928E+04  8.96776E+03 -2.42798E+04  2.07529E+04 -1.24170E+04  1.87824E+04  4.87628E+03
  6.97582E+03  1.37347E+04 -8.54716E+03  1.21905E+04 -1.57973E+04  2.79256E+03 -1.20482E+04 -9.80047E+03
 -2.21103E+02 -1.48121E+04  7.34566E+03 -1.11866E+04  9.78009E+03 -1.52429E+03  2.52988E+03  6.20184E+03
 -6.98195E+03  2.35071E+03 -5.65851E+03 -5.34153E+03 -6.07684E+00 -1.26573E+04  9.21875E+03 -1.33114E+04
  1.61195E+04 -6.86822E+03  1.70204E+04  3.06816E+03  1.46298E+04  1.25634E+04  6.85721E+03  1.93035E+04
 -2.96572E+03  2.11311E+04 -1.30318E+04  1.31464E+04 -1.48469E+04  3.33530E+03 -1.06947E+04 -3.23884E+03
 -5.16761E+03 -4.64021E+03 -5.42655E+02  1.16179E+03 -2.05445E+03  2.67059E+03 -4.80515E+03  4.27159E+03
 -1.02835E+04 -7.33865E+02 -1.06232E+04 -8.76654E+03 -4.03723E+03 -1.37478E+04  4.46089E+03 -1.07003E+04
  9.27727E+03 -4.55657E+03  6.31213E+03  2.80192E+03  4.80648E+02  4.26298E+03 -4.98830E+03 -1.85623E+02
 -4.80620E+03 -6.77330E+03 -9.54858E+02 -9.93465E+03  5.68408E+03 -1.06236E+04  1.28181E+04 -5.57459E+03
  1.53274E+04  1.00085E+03  1.12607E+04  8.66099E+03  2.09680E+03  1.16561E+04 -6.53302E+03  1.06077E+04
 -8.93065E+03  3.25047E+03 -4.45149E+03 -1.73383E+03  1.66211E+03 -2.45510E+03  5.92941E+03 -1.14334E+03
  5.27789E+03  4.39586E+03  8.51286E+02  8.17510E+03 -5.80528E+03  8.27521E+03 -1.03105E+04  1.92998E+03
 -6.69092E+03 -5.01080E+03  4.68496E+02 -8.42308E+03  5.55551E+03 -4.27886E+03  4.97158E+03  1.56010E+03
  8.36852E+02  5.44614E+03 -5.31676E+03  6.88080E+03 -7.53975E+03  2.94418E+03 -7.20418E+03 -2.33672E+03
 -4.15835E+03 -9.05618E+03  1.79174E+03 -1.01352E+04  8.63904E+03 -6.36137E+03  9.23502E+03  1.48290E+03
  6.36601E+03  7.45772E+03 -2.17883E+02  9.97419E+03 -6.90244E+03  5.87142E+03 -6.99181E+03 -7.45711E+02
 -7.23073E+03 -6.67691E+03 -1.55963E+03 -6.88580E+03  3.66516E+03 -5.63590E+03  4.48499E+03 -3.16124E+03
  3.40693E+03  7.61722E+02 -1.28938E+02  1.37822E+03  2.66333E+02 -1.17999E+03  7.57608E+02 -3.43375E+03
  5.88761E+03 -1.90794E+03  8.29426E+03  1.15207E+03  8.29491E+03  5.44695E+03  6.50666E+03  1.07042E+04
 -2.24643E+03  1.25330E+04 -1.08072E+04  9.34216E+03 -1.37152E+04  1.74181E+03 -1.11014E+04 -3.94552E+03
 -5.72493E+03 -9.41592E+03 -4.92774E+02 -7.86753E+03  2.96941E+03 -3.68112E+03  2.57942E+03 -3.14408E+03
  1.58468E+03 -1.90163E+03  3.01715E+03 -2.63482E+03  4.36307E+03 -1.79596E+03  4.69205E+03  9.05965E+01
  6.03626E+03  1.33541E+03  1.96007E+03  4.95004E+03 -1.61699E+03  5.10564E+03 -6.32076E+03  4.02659E+03
 -7.33209E+03 -1.31640E+03 -3.67882E+03 -5.06957E+03 -9.14669E+01 -7.79342E+03  4.65219E+03 -7.94882E+03
  7.54515E+03 -4.64268E+03  9.79843E+03  8.28211E+02  7.11428E+03  6.46539E+03  1.74677E+03  8.74648E+03
 -3.35960E+03  7.81119E+03 -5.02139E+03  2.64622E+03 -3.02299E+03 -1.35503E+03 -9.44962E+02 -7.96764E+02
 -6.23550E+02 -9.20861E+01 -1.10936E+03  2.19202E+03 -3.60256E+03  1.44291E+03 -5.19643E+03 -1.07363E+03
 -2.64004E+03 -5.56190E+03  7.26147E+02 -6.83963E+03  3.93549E+03 -6.20565E+03  6.07766E+03 -1.76352E+03
  6.16952E+03  3.46289E+03  2.65474E+03  5.50696E+03 -1.15139E+03  6.74912E+03 -4.48254E+03  4.08645E+03
 -6.03889E+03  4.50927E+02 -4.96299E+03 -3.82215E+03 -5.27477E+01 -5.33390E+03  2.66182E+03 -4.00717E+03
  4.14069E+03 -1.48376E+03  2.64381E+03  8.68275E+02  6.24968E+02  2.05267E+03  9.12741E+02  8.60975E+02
  1.86348E+03  6.58549E+02  1.50403E+03  1.42726E+03  1.77397E+03  2.89247E+03  1.89618E+03  3.20193E+03
 -1.61458E+03  4.83360E+03 -4.16125E+03  5.64450E+03 -5.50472E+03  1.74858E+03 -6.28122E+03 -1.49993E+03
 -2.60210E+03 -5.93394E+03  8.23437E+02 -7.03790E+03  3.38523E+03 -4.18632E+03  4.78266E+03 -1.30938E+03
  3.78787E+03  2.30444E+03  7.04691E+02  3.48463E+03 -1.44507E+03  2.04854E+03 -1.97535E+03 -3.97664E+02
 -8.17659E+02 -2.57726E+03  1.75377E+03 -2.23921E+03  1.88946E+03 -1.34652E+03  2.10194E+03  6.87329E+02
  1.39949E+03  8.12439E+02  6.91621E+02  1.97881E+02 -3.88443E+02  1.04032E+03  1.66533E+03 -7.42923E+02
  7.06348E+02 -4.76388E+02  2.66555E+03  9.56779E+02  1.01199E+03  3.39204E+03 -4.13366E+02  4.27600E+03
 -2.82625E+03  2.45734E+03 -3.65073E+03  6.98939E+02 -3.02037E+03 -1.26396E+03 -8.16832E+02 -2.11329E+03
  5.07298E+02 -2.21901E+03  1.66879E+03 -7.64984E+02  8.91130E+02  1.30738E+03 -6.37892E+02  1.84468E+03
 -2.31496E+03  9.29550E+02 -2.20211E+03 -1.51797E+03 -1.25991E+03 -2.98295E+03  4.66918E+02 -2.88083E+03
  1.08825E+03 -1.18838E+03  1.80245E+03  1.34067E+02  1.80940E+03  2.87731E+02  5.21378E+02  1.81096E+03
 -9.09791E+02  3.61185E+02 -1.55181E+03 -5.90980E+02  4.97675E+02 -1.59323E+03  2.48042E+03 -1.84953E+03
  2.39879E+03  3.69485E+02  3.57189E+03  1.50108E+03  1.07370E+03  2.96397E+03 -6.66100E+02  2.66846E+03
 -2.46522E+03  7.57199E+02 -2.50982E+03 -2.76874E+02 -1.67638E+03 -2.30717E+03  6.77576E+02 -1.37771E+03
  2.45283E+03 -1.20071E+03  1.50867E+03  9.02667E+02  4.23120E+02  1.99276E+03  3.86225E+02  1.61158E+03
 -7.55411E+02  1.45442E+03 -8.96902E+02  2.85429E+02 -1.38500E+01  5.10130E+02 -8.95832E+02  9.13379E+02
 -1.02252E+03  1.32552E+03 -2.36136E+03  1.05188E+03 -2.63868E+03  9.34150E+01 -3.85047E+03 -1.73317E+03
 -1.78882E+03 -3.77629E+03  5.79976E+02 -4.61506E+03  2.38378E+03 -3.82132E+03  4.35945E+03 -1.35621E+03
  3.98973E+03  7.94226E+01  2.05291E+03  2.36433E+03 -9.12685E+02  2.61010E+03 -1.28604E+03  2.25547E+03
 -1.32202E+03  1.22647E+03 -8.08120E+02 -2.59238E+02 -6.87464E+02 -1.91414E+01 -9.17907E+02 -3.83794E+02
 -8.51252E+02 -1.73005E+02 -9.89567E+02 -1.27216E+02  1.07114E+02 -1.07212E+03 -4.98168E+02 -1.29461E+03
  1.25731E+03 -1.05213E+03  1.16064E+03 -7.56674E+01  1.79750E+03  1.46213E+03 -4.17857E+02  2.54971E+03
 -1.17350E+03  3.61991E+03 -2.85213E+03  1.93676E+03 -3.17804E+03 -3.47824E+02 -2.16290E+03 -2.31614E+03
 -1.27133E+03 -2.79546E+03  3.49113E+02 -1.90575E+03  1.29307E+03 -1.31690E+03  1.43268E+03  1.24711E+02
  9.30083E+02  8.36228E+02 -1.33966E+01  6.45923E+02 -6.58472E+02  2.01439E+02 -3.06780E+02 -3.50410E+02
  9.82815E+02  5.21056E+00  1.64492E+02  9.00615E+02  7.76435E+02  7.59216E+02  7.43394E+02  5.94713E+02
 -1.26465E+03  1.24191E+03 -1.30526E+03  3.60954E+02 -1.19505E+03 -8.63800E+02 -1.08705E+02 -1.94158E+03
  1.20513E+03 -1.52676E+03  1.30916E+03 -1.15831E+02  1.56623E+03 -1.66331E+02  9.05585E+02  1.61237E+03
  4.49815E+02  1.24507E+03 -3.37872E+02  8.39366E+02 -8.70932E+02  8.61588E+02 -6.90486E+02  3.69252E+01
 -1.60910E+02  1.01502E+02 -6.50407E+02  3.38037E+02 -7.30658E+02  3.44021E+02 -1.09082E+03 -3.76675E+02
 -1.32617E+03  2.95249E+01 -4.68271E+02 -1.45715E+03  7.72290E+02 -2.26145E+03  1.41077E+03 -5.48998E+02
  1.47397E+03  2.61562E+02  3.34343E+02  5.90895E+02  2.97330E+01  1.59015E+03 -9.26672E+02  1.04192E+03
