 $NMID ID='MM_0lb_SNR800_18hz_g60_31.RAW', FMTDAT='(8E13.5)'
 TRAMP=1., VOLUME=1. $END
  3.09956E+05  5.66526E+02  3.37584E+05  2.50213E+05  8.47490E+04  3.38024E+05 -1.32291E+05  2.50960E+05
 -1.90173E+05  8.31085E+04 -1.11526E+05 -3.25328E+04  9.71561E+02 -5.04675E+04  5.39350E+04 -2.38810E+02
  3.54680E+04  5.29897E+04 -1.67210E+04  7.52701E+04 -6.09893E+04  6.35624E+04 -8.40505E+04  3.20530E+04
 -8.07178E+04 -1.12942E+04 -5.70390E+04 -5.10648E+04 -1.50179E+04 -6.94597E+04  2.72522E+04 -4.54423E+04
  3.97269E+04  3.98414E+03  1.62370E+04  4.75799E+04 -3.43533E+04  4.69976E+04 -6.66462E+04 -2.49906E+02
 -5.29559E+04 -5.63403E+04 -6.77233E+03 -7.66251E+04  3.37846E+04 -5.44098E+04  4.74345E+04 -1.71031E+04
  4.28591E+04  1.11453E+04  3.14361E+04  2.51686E+04  1.56510E+04  2.92237E+04 -5.25314E+03  2.68878E+04
 -2.18023E+04  1.26482E+04 -1.85995E+04 -4.80891E+03  5.11980E+03 -7.37312E+03  2.17347E+04  1.19956E+04
  7.41996E+03  3.44130E+04 -3.17900E+04  3.52104E+04 -6.25438E+04  2.14306E+03 -5.66288E+04 -4.21452E+04
 -1.24815E+04 -6.20152E+04  3.92778E+04 -4.47652E+04  5.74500E+04 -2.25271E+03  3.35440E+04  3.17051E+04
 -6.12800E+03  3.50434E+04 -2.95975E+04  1.49649E+04 -2.96393E+04 -4.78553E+03 -1.59383E+04 -1.05055E+04
 -8.09797E+03 -1.26979E+04 -7.73446E+02 -1.77638E+04  7.30329E+03 -2.27566E+04  1.52853E+04 -1.37312E+04
  1.19119E+04  4.96500E+03 -7.63095E+03  1.31503E+04 -2.06294E+04 -3.91700E+03 -8.19901E+03 -3.27022E+04
  2.21152E+04 -4.23585E+04  4.69812E+04 -1.93062E+04  4.38450E+04  1.87872E+04  1.49818E+04  4.29888E+04
 -1.58585E+04  3.27098E+04 -2.47804E+04  1.52456E+03 -9.13336E+03 -2.72097E+04  2.07708E+04 -3.28002E+04
  3.98533E+04 -8.24301E+03  3.42375E+04  2.35281E+04  1.72932E+04  4.50913E+04 -7.74602E+03  4.84655E+04
 -3.03147E+04  3.23574E+04 -4.02198E+04  9.02176E+03 -4.10344E+04 -1.58235E+04 -2.23867E+04 -3.64337E+04
  7.17947E+03 -3.63872E+04  3.06077E+04 -1.37251E+04  2.82749E+04  1.08671E+04  3.56248E+03  1.85259E+04
 -1.31292E+04  7.72920E+03 -1.03140E+04 -7.93145E+03  5.82557E+03 -1.05107E+04  1.77598E+04  6.22616E+03
  1.28383E+04  2.20258E+04 -6.14190E+03  2.43122E+04 -2.21273E+04  1.03218E+04 -2.65517E+04 -5.50265E+03
 -1.87969E+04 -1.68267E+04 -7.01310E+03 -1.87374E+04  3.90022E+03 -1.72278E+04  1.39920E+04 -1.64188E+04
  2.38981E+04 -1.20629E+04  3.04582E+04  2.11110E+03  2.27093E+04  1.81394E+04  4.14374E+03  3.44152E+04
 -1.70242E+04  2.89610E+04 -2.69069E+04  1.00784E+04 -2.03326E+04 -1.02319E+04 -4.18394E+03 -1.36358E+04
  1.95380E+03 -3.15234E+03 -3.69080E+03  5.99498E+03 -1.46844E+04  5.24673E+03 -1.48726E+04 -5.69315E+03
 -9.18524E+03 -1.72772E+04  5.11359E+03 -2.11892E+04  1.40467E+04 -1.54063E+04  1.63861E+04 -1.28323E+03
  1.01222E+04  1.18599E+04 -9.69422E+02  1.74501E+04 -1.15122E+04  9.85139E+03 -1.74886E+04 -3.71200E+03
 -1.28225E+04 -1.56871E+04 -1.47287E+03 -2.10161E+04  9.71003E+03 -1.70621E+04  1.75471E+04 -8.54676E+03
  1.60438E+04  7.85674E+02  1.16557E+04  4.05136E+03  5.88632E+03  1.04000E+03  8.65797E+03 -1.54886E+03
  1.56649E+04  2.77207E+03  1.66790E+04  1.39522E+04  1.07243E+04  2.76028E+04 -2.97265E+03  2.99414E+04
 -1.76575E+04  2.35885E+04 -2.77744E+04  1.15718E+04 -2.86663E+04 -2.20977E+03 -2.42428E+04 -1.63030E+04
 -1.06168E+04 -2.33902E+04  7.85750E+03 -2.16105E+04  1.86149E+04 -1.17664E+04  1.70328E+04  4.51655E+03
  6.92416E+03  1.26808E+04 -7.99256E+03  1.16612E+04 -1.45568E+04  2.68902E+03 -1.13866E+04 -8.85321E+03
  3.02094E+01 -1.35706E+04  6.79742E+03 -1.00095E+04  8.92315E+03 -1.27099E+03  1.97560E+03  5.73004E+03
 -6.42722E+03  1.62862E+03 -4.53179E+03 -5.00961E+03  1.87438E+02 -1.15946E+04  8.66838E+03 -1.15961E+04
  1.37955E+04 -5.62422E+03  1.43546E+04  3.05543E+03  1.23937E+04  1.08505E+04  6.01053E+03  1.63344E+04
 -2.12133E+03  1.84700E+04 -1.13641E+04  1.14895E+04 -1.28345E+04  2.95774E+03 -9.35210E+03 -2.57918E+03
 -4.66286E+03 -3.84370E+03 -5.54905E+02  1.23526E+03 -2.06950E+03  2.13781E+03 -4.16958E+03  3.90854E+03
 -8.62095E+03 -6.35236E+02 -9.64274E+03 -8.09833E+03 -3.77927E+03 -1.27166E+04  4.07548E+03 -9.73043E+03
  7.68531E+03 -4.28967E+03  5.85507E+03  2.68707E+03  8.06934E+02  3.64310E+03 -3.98143E+03 -3.89587E+02
 -3.86469E+03 -5.62776E+03 -8.19352E+02 -8.43113E+03  4.93625E+03 -9.05050E+03  1.12935E+04 -4.61498E+03
  1.33755E+04  8.05832E+02  9.80062E+03  7.04176E+03  2.04572E+03  9.99579E+03 -5.71557E+03  9.18833E+03
 -7.66512E+03  3.11234E+03 -4.01480E+03 -1.57422E+03  1.75932E+03 -2.09684E+03  5.18933E+03 -1.03075E+03
  4.64136E+03  3.92322E+03  1.00106E+03  6.99324E+03 -4.79411E+03  7.22290E+03 -8.83603E+03  2.21943E+03
 -5.56688E+03 -4.23362E+03  3.41972E+02 -7.66276E+03  4.41320E+03 -3.72695E+03  4.44364E+03  1.36076E+03
  6.39997E+02  4.02199E+03 -4.66270E+03  5.40715E+03 -5.98481E+03  2.80248E+03 -5.73119E+03 -1.55300E+03
 -3.38774E+03 -6.99146E+03  1.47360E+03 -8.23545E+03  6.65846E+03 -5.28574E+03  7.56895E+03  7.90183E+02
  5.08066E+03  6.17895E+03 -4.04657E+01  8.23977E+03 -5.58817E+03  4.81516E+03 -5.95655E+03 -3.31978E+02
 -5.95315E+03 -5.73712E+03 -1.11354E+03 -5.70676E+03  3.12809E+03 -4.99196E+03  3.43637E+03 -2.94289E+03
  2.96057E+03  3.36402E+02  3.13886E+02  1.50717E+03  7.11035E+02 -5.31196E+02  3.05572E+02 -2.54473E+03
  4.29915E+03 -8.03719E+02  6.07354E+03  6.06771E+02  6.44208E+03  3.90117E+03  5.62370E+03  8.17716E+03
 -1.54933E+03  1.00062E+04 -8.71871E+03  7.48924E+03 -1.11134E+04  1.38500E+03 -9.02077E+03 -3.37935E+03
 -4.81624E+03 -7.50817E+03 -2.71279E+02 -5.93898E+03  2.34683E+03 -2.72525E+03  1.93346E+03 -2.42195E+03
  1.54454E+03 -1.62250E+03  2.00770E+03 -2.39891E+03  3.76350E+03 -1.59675E+03  4.20209E+03  3.35827E+02
  4.96736E+03  1.22355E+03  1.63149E+03  3.75942E+03 -1.44050E+03  3.07886E+03 -5.06379E+03  3.13509E+03
 -5.72746E+03 -8.52103E+02 -2.28531E+03 -3.85074E+03  4.99950E+02 -5.65594E+03  3.31979E+03 -6.16274E+03
  5.88584E+03 -3.46873E+03  7.60125E+03  3.39079E+02  5.28832E+03  4.57112E+03  1.08603E+03  6.83429E+03
 -2.39705E+03  6.25020E+03 -3.64691E+03  2.01191E+03 -2.26150E+03 -9.54798E+02 -4.70016E+02 -6.03830E+02
 -4.79709E+02  1.58436E+02 -1.04501E+03  2.15593E+03 -2.91081E+03  8.27194E+02 -4.38859E+03 -6.32253E+02
 -2.02487E+03 -4.41460E+03  9.45686E+02 -5.32321E+03  3.34337E+03 -4.75417E+03  4.22105E+03 -1.19067E+03
  4.76871E+03  2.65135E+03  2.04549E+03  3.96901E+03 -7.83434E+02  5.17539E+03 -3.06696E+03  2.89153E+03
 -4.32907E+03  3.05511E+02 -3.76427E+03 -2.80042E+03 -8.06809E+01 -4.08262E+03  1.96854E+03 -2.93297E+03
  3.22390E+03 -1.46513E+03  1.85464E+03  6.05201E+02  5.24123E+02  1.70763E+03  1.00066E+03  7.10961E+02
  1.86340E+03  7.56183E+02  1.27699E+03  1.04707E+03  1.44657E+03  2.34234E+03  1.40535E+03  1.98572E+03
 -1.52103E+03  3.63691E+03 -2.93722E+03  4.12818E+03 -3.60661E+03  1.40364E+03 -4.80758E+03 -7.39526E+02
 -2.29968E+03 -4.11427E+03  6.28122E+02 -4.95607E+03  2.21748E+03 -2.86310E+03  3.61234E+03 -1.12263E+03
  2.78473E+03  2.06561E+03  5.66603E+02  2.62472E+03 -7.66971E+02  1.49223E+03 -1.26227E+03 -4.19151E+02
 -9.10169E+02 -1.92966E+03  1.48827E+03 -1.72921E+03  1.49431E+03 -7.15791E+02  1.46526E+03  5.11134E+02
  6.93389E+02  3.06985E+02  6.14652E+02 -7.28187E+01 -2.19405E+02  7.15462E+02  1.45774E+03 -2.88912E+02
  4.28135E+01 -4.09713E+02  1.82566E+03  8.26679E+02  2.62310E+02  2.63839E+03 -7.09514E+01  3.18108E+03
 -1.86172E+03  1.25202E+03 -1.97399E+03  4.77507E+02 -2.40608E+03 -6.28746E+02 -3.39859E+02 -9.26201E+02
  1.64947E+02 -1.12528E+03  9.80453E+02 -9.40588E+02  5.82424E+02  1.29050E+03 -5.23373E+02  1.06742E+03
 -1.56721E+03  9.34249E+02 -1.50948E+03 -1.50868E+03 -8.99450E+02 -2.39666E+03 -2.42568E+01 -1.92814E+03
  6.46876E+02 -6.45784E+02  6.94246E+02  3.82347E+02  1.29066E+03 -2.68238E+02  2.41708E+02  1.33159E+03
 -4.23220E+02  1.68049E+02 -1.08579E+03 -3.02268E+02  6.70795E+02 -1.21213E+03  1.92521E+03 -1.11936E+03
  1.63216E+03  6.98097E+01  2.86621E+03  9.22326E+02  1.21294E+03  1.80153E+03 -2.40159E+02  2.00823E+03
 -1.54541E+03  2.45941E+02 -1.73199E+03 -3.31362E+02 -1.01177E+03 -1.55396E+03  1.08480E+02 -8.28995E+02
  1.50784E+03 -3.72969E+02  8.98572E+02  5.78532E+02  5.67844E+01  1.29457E+03  1.46974E+01  1.03812E+03
 -2.57889E+02  1.12843E+03 -3.51648E+02  1.84622E+02  1.16003E+01  3.65035E+02 -5.24104E+02  6.06999E+02
 -6.92190E+02  8.15653E+02 -1.57302E+03  5.53311E+02 -2.05253E+03  1.92230E+02 -2.61928E+03 -8.60885E+02
 -1.28760E+03 -2.46091E+03  6.50606E+02 -2.77291E+03  1.16796E+03 -2.71439E+03  2.96654E+03 -9.02394E+02
  2.52365E+03 -1.22791E+02  1.28590E+03  1.77484E+03 -4.62098E+02  1.61152E+03 -7.40783E+02  1.24071E+03
 -8.36487E+02  6.56871E+02 -7.94241E+02 -2.05431E+02 -6.71035E+02  2.99697E+02 -5.20043E+02  1.76277E+01
 -6.79025E+02  8.70505E+01 -6.17831E+02  5.27251E+01  2.39357E+02 -4.34086E+02 -6.70261E+02 -7.09039E+02
  1.36411E+03 -6.86472E+02  5.51437E+02  1.66053E+02  1.27249E+03  9.85532E+02 -4.37997E+02  1.26599E+03
 -1.01537E+03  2.22708E+03 -1.87626E+03  1.44827E+03 -1.64343E+03 -4.19027E+02 -1.44584E+03 -1.43403E+03
 -7.41813E+02 -1.26920E+03  4.57029E+02 -1.31223E+03  5.32675E+02 -5.43830E+02  6.84884E+02  3.08804E+02
  9.24476E+02  2.11107E+02  1.08455E+02  4.46209E+02 -3.22579E+02 -3.86304E+01  2.65635E+00 -1.18823E+02
  3.91548E+02 -8.77546E+00  2.06462E+02  3.75501E+02  2.04257E+01  6.17245E+02  2.29676E+02  2.32826E+02
 -7.91257E+02  4.42262E+02 -6.87273E+02 -3.12537E+02 -8.08657E+02 -5.67345E+02  2.46371E+02 -1.16401E+03
  2.67731E+02 -6.31199E+02  4.95128E+02  8.66830E+01  7.94035E+02 -5.97192E+02  7.35414E+02  8.84680E+02
  7.30855E+02  6.46368E+02 -1.23954E+02  6.18351E+02 -5.19209E+02  5.98496E+02 -4.12457E+02  6.54074E+01
 -4.26175E+02 -9.26602E+01 -6.80801E+02  1.32005E+02 -5.46055E+02  1.86471E+02 -9.81894E+02 -5.17429E+02
 -8.63031E+02  4.37734E+02 -3.44669E+02 -9.21238E+02  6.71338E+02 -1.75281E+03  6.50425E+02 -2.97096E+02
  9.40534E+02  3.26026E+02 -9.75926E+01  4.06595E+02 -1.10810E+01  1.12859E+03 -1.64030E+02  5.31008E+02
