 $NMID ID='MM_0lb_SNR800_7hz_g45_73.RAW', FMTDAT='(8E13.5)'
 TRAMP=1., VOLUME=1. $END
  3.09921E+05  2.50809E+02  3.37587E+05  2.51079E+05  8.49249E+04  3.38750E+05 -1.32489E+05  2.52827E+05
 -1.91116E+05  8.41096E+04 -1.12743E+05 -3.26762E+04  1.10963E+02 -5.02995E+04  5.38677E+04 -4.91629E+02
  3.54031E+04  5.28373E+04 -1.68919E+04  7.60203E+04 -6.12595E+04  6.46870E+04 -8.51880E+04  3.25785E+04
 -8.28663E+04 -1.14856E+04 -5.82238E+04 -5.28245E+04 -1.53266E+04 -7.14218E+04  2.83250E+04 -4.74364E+04
  4.15993E+04  3.65408E+03  1.70024E+04  4.91417E+04 -3.48001E+04  4.92248E+04 -6.90467E+04 -1.47102E+02
 -5.53189E+04 -5.78581E+04 -7.23755E+03 -7.90928E+04  3.48252E+04 -5.76688E+04  5.03760E+04 -1.86233E+04
  4.53500E+04  1.19207E+04  3.34155E+04  2.71403E+04  1.58860E+04  3.08285E+04 -5.78568E+03  2.79658E+04
 -2.26967E+04  1.18032E+04 -1.77406E+04 -6.18917E+03  7.44464E+03 -7.20076E+03  2.38754E+04  1.41740E+04
  7.39757E+03  3.83466E+04 -3.44162E+04  3.75370E+04 -6.65021E+04  2.14082E+03 -5.92144E+04 -4.51309E+04
 -1.27435E+04 -6.66586E+04  4.25827E+04 -4.77532E+04  6.22993E+04 -3.06363E+03  3.72389E+04  3.46013E+04
 -5.15930E+03  4.01996E+04 -3.23105E+04  1.89721E+04 -3.47573E+04 -3.29542E+03 -2.01011E+04 -1.22401E+04
 -9.59217E+03 -1.62526E+04 -3.60519E+02 -2.00986E+04  8.80866E+03 -2.37910E+04  1.63419E+04 -1.26684E+04
  1.03896E+04  6.77007E+03 -1.15314E+04  1.28555E+04 -2.40896E+04 -7.63645E+03 -8.57721E+03 -3.90351E+04
  2.61683E+04 -4.78881E+04  5.33127E+04 -2.14757E+04  4.96085E+04  2.12824E+04  1.77844E+04  4.83084E+04
 -1.66761E+04  3.67211E+04 -2.88418E+04  2.96222E+03 -1.22610E+04 -3.02202E+04  2.16338E+04 -3.80367E+04
  4.55656E+04 -1.16359E+04  4.15693E+04  2.51619E+04  2.26108E+04  5.23133E+04 -8.73983E+03  5.79627E+04
 -3.63303E+04  3.98309E+04 -4.95386E+04  1.16906E+04 -4.93197E+04 -1.93469E+04 -2.70500E+04 -4.33809E+04
  8.19545E+03 -4.35043E+04  3.52398E+04 -1.75268E+04  3.34349E+04  1.12945E+04  5.80968E+03  2.13483E+04
 -1.39306E+04  1.00073E+04 -1.10759E+04 -7.28478E+03  5.75977E+03 -1.21975E+04  1.92250E+04  5.46097E+03
  1.51045E+04  2.27015E+04 -5.06982E+03  2.79762E+04 -2.35450E+04  1.53378E+04 -3.25325E+04 -2.29159E+03
 -2.66923E+04 -1.90019E+04 -1.32447E+04 -2.65116E+04  4.16292E+03 -2.73629E+04  2.13072E+04 -2.44393E+04
  3.41445E+04 -1.43849E+04  4.01525E+04  5.59029E+03  2.81660E+04  2.55918E+04  4.37230E+03  4.27156E+04
 -2.06059E+04  3.51432E+04 -3.16667E+04  1.23615E+04 -2.28852E+04 -9.93389E+03 -5.05475E+03 -1.28561E+04
  5.34608E+02 -2.92171E+02 -8.50754E+03  8.60539E+03 -2.16889E+04  4.75799E+03 -2.20855E+04 -1.01875E+04
 -1.21236E+04 -2.51317E+04  6.64799E+03 -2.89073E+04  1.99343E+04 -2.06858E+04  2.43002E+04 -2.11039E+03
  1.57380E+04  1.73678E+04 -1.33032E+03  2.49354E+04 -1.81173E+04  1.40958E+04 -2.53686E+04 -4.85146E+03
 -1.84426E+04 -2.20817E+04 -2.37796E+03 -3.02364E+04  1.34997E+04 -2.44288E+04  2.48022E+04 -1.32761E+04
  2.37353E+04 -5.56163E+02  1.74341E+04  5.46573E+03  9.78258E+03  1.41589E+03  1.36466E+04 -2.24355E+03
  2.35021E+04  3.07551E+03  2.77637E+04  1.95445E+04  1.93559E+04  4.06298E+04 -2.83177E+03  4.79559E+04
 -2.72768E+04  3.98269E+04 -4.54690E+04  2.14642E+04 -4.88982E+04 -3.09345E+03 -3.93814E+04 -2.85278E+04
 -1.52728E+04 -4.07713E+04  1.42799E+04 -3.53632E+04  3.05942E+04 -1.64128E+04  2.56601E+04  8.68469E+03
  8.63323E+03  2.04625E+04 -1.22459E+04  1.73384E+04 -2.16004E+04  2.30382E+03 -1.63625E+04 -1.40638E+04
 -3.87596E+01 -2.07566E+04  1.13477E+04 -1.50077E+04  1.42872E+04 -1.35699E+03  4.11002E+03  9.76517E+03
 -9.24820E+03  4.41220E+03 -1.02138E+04 -7.46885E+03 -2.37700E+03 -1.97670E+04  1.28463E+04 -2.18405E+04
  2.48788E+04 -1.33577E+04  2.94001E+04  3.15323E+03  2.60359E+04  2.08691E+04  1.17201E+04  3.23780E+04
 -6.83341E+03  3.41067E+04 -2.30210E+04  2.13099E+04 -2.49178E+04  4.01603E+03 -1.69937E+04 -7.13082E+03
 -6.58479E+03 -8.14208E+03 -6.69959E+02  1.43190E+02 -2.98864E+03  4.34168E+03 -8.01006E+03  5.81149E+03
 -1.53206E+04 -1.47231E+03 -1.64612E+04 -1.28260E+04 -6.71803E+03 -2.17043E+04  6.78059E+03 -1.76078E+04
  1.39795E+04 -7.19995E+03  1.02869E+04  4.90035E+03 -4.71994E+02  7.01971E+03 -8.47323E+03 -1.18506E+02
 -8.20864E+03 -1.11376E+04 -1.59845E+03 -1.79362E+04  1.04015E+04 -1.84355E+04  2.26636E+04 -1.00483E+04
  2.63936E+04  3.12250E+03  1.90680E+04  1.60530E+04  3.43238E+03  2.20985E+04 -1.06436E+04  1.72853E+04
 -1.40670E+04  5.27766E+03 -7.53098E+03 -3.93477E+03  2.76180E+03 -5.16926E+03  9.48043E+03 -8.18826E+02
  8.12505E+03  8.32460E+03  1.20137E+03  1.44780E+04 -1.07276E+04  1.38084E+04 -1.68313E+04  2.92537E+03
 -1.20574E+04 -9.36940E+03  4.42265E+02 -1.52019E+04  9.93488E+03 -7.75036E+03  1.08475E+04  3.57766E+03
  2.31995E+03  1.20499E+04 -9.20273E+03  1.32849E+04 -1.59027E+04  5.35642E+03 -1.62653E+04 -6.11294E+03
 -9.59471E+03 -1.83557E+04  4.85716E+03 -2.12491E+04  1.75394E+04 -1.27106E+04  2.00552E+04  3.58374E+03
  1.10655E+04  1.50143E+04 -1.80787E+03  1.80943E+04 -1.37196E+04  9.98846E+03 -1.40632E+04 -1.32434E+03
 -1.18066E+04 -1.19280E+04 -1.73672E+03 -1.40272E+04  7.44413E+03 -1.06748E+04  8.92625E+03 -3.92371E+03
  5.63954E+03  2.90296E+03 -1.54319E+03  1.91702E+03 -1.62960E+03 -4.08449E+03  3.53632E+03 -8.57821E+03
  1.33140E+04 -6.01077E+03  1.92155E+04  2.03062E+03  1.80040E+04  1.33573E+04  1.15137E+04  2.43904E+04
 -5.90156E+03  2.80689E+04 -2.36186E+04  2.10999E+04 -3.06464E+04  3.96351E+03 -2.43524E+04 -1.05294E+04
 -1.22379E+04 -2.00110E+04 -3.71210E+02 -1.76659E+04  5.77303E+03 -9.98201E+03  5.92070E+03 -6.05340E+03
  4.60800E+03 -3.45709E+03  4.67290E+03 -4.98993E+03  6.52546E+03 -4.64737E+03  9.38177E+03 -2.04329E+03
  1.28645E+04  2.89960E+03  7.00768E+03  1.12710E+04 -2.41769E+03  1.35499E+04 -1.30596E+04  1.08340E+04
 -1.73887E+04 -1.27150E+03 -1.15223E+04 -1.26320E+04 -1.91401E+03 -1.91422E+04  1.06209E+04 -1.87321E+04
  1.96020E+04 -1.03804E+04  2.33606E+04  3.08946E+03  1.61971E+04  1.62308E+04  2.68005E+03  2.14420E+04
 -8.73719E+03  1.67688E+04 -1.23914E+04  5.97365E+03 -8.82339E+03 -2.30198E+03 -3.99256E+03 -2.61614E+03
 -1.91732E+03 -4.15798E+02 -2.38826E+03  3.14103E+03 -7.19680E+03  2.85800E+03 -1.20530E+04 -2.00151E+03
 -9.21102E+03 -1.23064E+04 -5.76313E+02 -1.74312E+04  1.10987E+04 -1.65684E+04  1.83652E+04 -5.07012E+03
  1.78229E+04  8.85961E+03  8.72734E+03  1.61742E+04 -3.80628E+03  1.83875E+04 -1.24966E+04  1.13175E+04
 -1.69486E+04  7.59459E+02 -1.31853E+04 -1.11970E+04 -1.52519E+03 -1.47981E+04  8.69533E+03 -1.12357E+04
  1.12623E+04 -3.32377E+03  8.03663E+03  3.10803E+03  2.52206E+03  5.41981E+03  1.38450E+03  2.52871E+03
  3.35648E+03  1.70599E+03  4.54361E+03  2.32344E+03  5.46227E+03  6.15055E+03  4.85185E+03  1.00738E+04
 -3.64744E+03  1.48227E+04 -1.31440E+04  1.46568E+04 -1.95695E+04  3.94772E+03 -1.95453E+04 -7.74084E+03
 -1.00499E+04 -1.87787E+04  2.73059E+03 -2.08657E+04  1.14063E+04 -1.33886E+04  1.55139E+04 -3.89430E+03
  1.20349E+04  7.11983E+03  2.99650E+03  1.05903E+04 -5.22395E+03  6.95157E+03 -8.41200E+03 -1.07719E+03
 -3.97647E+03 -7.89209E+03  4.27110E+03 -8.55283E+03  7.86792E+03 -3.76272E+03  7.40684E+03  1.33131E+03
  4.55932E+03  4.29002E+03  1.39764E+03  3.67155E+03 -1.06520E+03  2.55691E+03  1.60845E+03 -5.54622E+02
  2.84366E+03 -1.01977E+03  8.00229E+03  3.25018E+03  5.05413E+03  1.04967E+04 -2.13613E+03  1.34843E+04
 -9.38792E+03  9.23645E+03 -1.24898E+04  2.88563E+03 -1.10819E+04 -4.28885E+03 -4.27681E+03 -7.40181E+03
  1.31288E+03 -7.79252E+03  5.03975E+03 -3.23016E+03  4.37137E+03  3.49228E+03 -1.72162E+03  6.49838E+03
 -7.86247E+03  3.51453E+03 -9.60717E+03 -4.63956E+03 -5.65434E+03 -1.09335E+04  1.77428E+03 -1.08360E+04
  6.79216E+03 -7.04059E+03  7.87324E+03 -1.07070E+03  6.72322E+03  2.84910E+03  7.94039E+02  5.83296E+03
 -4.10554E+03  2.34823E+03 -4.71493E+03 -3.91466E+03  1.80155E+03 -8.76177E+03  9.74163E+03 -6.59152E+03
  1.28504E+04  9.92763E+02  1.19677E+04  9.15855E+03  3.64871E+03  1.38083E+04 -4.91872E+03  1.22428E+04
 -1.10630E+04  5.70330E+03 -1.11120E+04 -1.59707E+03 -5.48518E+03 -8.51887E+03  1.59392E+03 -8.27114E+03
  7.87209E+03 -3.57294E+03  7.03482E+03  3.54309E+03  2.58827E+03  7.31480E+03 -1.37116E+03  6.04843E+03
 -3.13469E+03  3.55225E+03 -2.75893E+03  1.22139E+03 -2.05625E+03  9.66141E+02 -1.78052E+03  2.56485E+03
 -3.69011E+03  5.66358E+03 -8.64194E+03  4.72183E+03 -1.35755E+04  2.32125E+01 -1.46605E+04 -9.03048E+03
 -7.67352E+03 -1.78033E+04  3.50981E+03 -2.05932E+04  1.29375E+04 -1.62961E+04  1.91896E+04 -5.52117E+03
  1.83191E+04  3.54064E+03  1.16947E+04  1.23830E+04  1.75517E+03  1.39669E+04 -5.53315E+03  1.01993E+04
 -8.18052E+03  3.78441E+03 -4.95235E+03 -1.21809E+03 -1.67852E+03 -1.99147E+03 -5.93024E+02 -2.23440E+02
 -2.45978E+03  2.88721E+02 -3.10091E+03 -1.20762E+03 -1.31459E+03 -3.22016E+03  5.09465E+02 -4.98210E+03
  5.93728E+03 -4.37209E+03  9.11476E+03  3.55380E+02  1.00853E+04  7.91578E+03  3.00565E+03  1.42813E+04
 -6.66326E+03  1.61685E+04 -1.56296E+04  9.45110E+03 -1.75864E+04 -1.70553E+03 -1.29127E+04 -1.09270E+04
 -5.33964E+03 -1.50460E+04  3.84440E+03 -1.37644E+04  9.32508E+03 -7.56698E+03  9.74544E+03  2.15374E+02
  5.19493E+03  4.70768E+03 -5.60911E+02  3.97263E+03 -3.06024E+03  3.00475E+02  9.42798E+01 -3.64629E+03
  4.41373E+03 -2.17235E+03  5.68653E+03  1.56310E+03  4.32529E+03  5.69193E+03 -2.92864E+02  7.85540E+03
 -6.47216E+03  6.72112E+03 -9.87992E+03  7.64650E+02 -9.11649E+03 -7.23234E+03 -1.27941E+03 -1.26614E+04
  7.20749E+03 -1.01434E+04  1.14911E+04 -3.34402E+03  1.17540E+04  3.14967E+03  6.60373E+03  9.00150E+03
  1.59873E+03  1.04587E+04 -4.37598E+03  8.05789E+03 -6.62222E+03  4.32925E+03 -5.10267E+03  2.33433E+02
 -3.04327E+03 -1.92838E+02 -2.95681E+03  1.18798E+03 -5.23326E+03  1.30865E+03 -7.40530E+03 -1.46470E+03
 -6.70605E+03 -5.70256E+03 -2.18506E+03 -1.00677E+04  4.72660E+03 -1.01460E+04  9.24915E+03 -5.16343E+03
  9.97827E+03  1.53186E+03  6.00993E+03  7.09257E+03 -3.38853E+02  1.09877E+04 -7.66712E+03  6.47436E+03
