 $NMID ID='MM_0lb_SNR800_7hz_g60_27.RAW', FMTDAT='(8E13.5)'
 TRAMP=1., VOLUME=1. $END
  3.09820E+05  3.66076E+01  3.37868E+05  2.50886E+05  8.50426E+04  3.39045E+05 -1.32748E+05  2.52577E+05
 -1.91104E+05  8.36669E+04 -1.13159E+05 -3.24144E+04 -6.42983E+01 -5.13646E+04  5.38517E+04 -6.78142E+02
  3.57977E+04  5.32646E+04 -1.62013E+04  7.64948E+04 -6.18752E+04  6.45900E+04 -8.59102E+04  3.31995E+04
 -8.34756E+04 -1.14380E+04 -5.90438E+04 -5.29815E+04 -1.50223E+04 -7.19276E+04  2.87426E+04 -4.69953E+04
  4.15773E+04  3.89197E+03  1.70946E+04  4.92012E+04 -3.56342E+04  4.90685E+04 -6.89355E+04  3.96132E+02
 -5.57692E+04 -5.86642E+04 -7.42487E+03 -8.02978E+04  3.48736E+04 -5.78255E+04  5.09608E+04 -1.83752E+04
  4.65280E+04  1.12173E+04  3.35619E+04  2.75816E+04  1.62887E+04  3.08850E+04 -6.31482E+03  2.82637E+04
 -2.27738E+04  1.16079E+04 -1.77151E+04 -6.12930E+03  7.89175E+03 -7.11713E+03  2.43012E+04  1.42768E+04
  7.23018E+03  3.88829E+04 -3.48449E+04  3.84137E+04 -6.69826E+04  1.96694E+03 -5.94088E+04 -4.59265E+04
 -1.31847E+04 -6.70693E+04  4.24473E+04 -4.86751E+04  6.34314E+04 -2.81728E+03  3.84233E+04  3.57861E+04
 -5.18860E+03  4.13281E+04 -3.28829E+04  2.07334E+04 -3.47462E+04 -3.56111E+03 -2.08625E+04 -1.21837E+04
 -9.61599E+03 -1.61486E+04  4.11349E+02 -2.07254E+04  9.06957E+03 -2.42344E+04  1.61042E+04 -1.27228E+04
  9.87331E+03  7.05823E+03 -1.19106E+04  1.24634E+04 -2.47299E+04 -7.84378E+03 -9.12412E+03 -3.93162E+04
  2.67381E+04 -4.89653E+04  5.45304E+04 -2.19206E+04  5.02379E+04  2.17675E+04  1.82537E+04  4.85684E+04
 -1.72763E+04  3.76417E+04 -2.94264E+04  3.18192E+03 -1.25754E+04 -3.03635E+04  2.18918E+04 -3.85543E+04
  4.69592E+04 -1.18643E+04  4.29604E+04  2.58451E+04  2.30105E+04  5.39606E+04 -8.44477E+03  5.96591E+04
 -3.81608E+04  4.09741E+04 -5.05307E+04  1.20845E+04 -5.03384E+04 -1.97110E+04 -2.76754E+04 -4.52336E+04
  8.46026E+03 -4.48322E+04  3.58272E+04 -1.86295E+04  3.36607E+04  1.14535E+04  5.98743E+03  2.17026E+04
 -1.34551E+04  1.04495E+04 -1.16577E+04 -7.79414E+03  5.38570E+03 -1.17898E+04  1.97247E+04  4.89385E+03
  1.59124E+04  2.31551E+04 -4.70768E+03  2.83671E+04 -2.38421E+04  1.62336E+04 -3.33691E+04 -2.12201E+03
 -2.83949E+04 -1.90259E+04 -1.38995E+04 -2.76669E+04  4.32165E+03 -2.96008E+04  2.24755E+04 -2.59908E+04
  3.61247E+04 -1.55176E+04  4.13379E+04  6.29631E+03  2.91881E+04  2.70486E+04  4.38469E+03  4.41712E+04
 -2.10111E+04  3.60452E+04 -3.20192E+04  1.32903E+04 -2.33160E+04 -1.02750E+04 -5.23268E+03 -1.24486E+04
  4.98478E+02 -2.30941E+02 -8.80674E+03  8.92435E+03 -2.26438E+04  4.74661E+03 -2.27936E+04 -1.12792E+04
 -1.29439E+04 -2.58796E+04  6.81392E+03 -3.04346E+04  2.08346E+04 -2.16875E+04  2.59433E+04 -2.31405E+03
  1.67524E+04  1.79893E+04 -1.44549E+03  2.53951E+04 -1.86587E+04  1.48639E+04 -2.64697E+04 -5.16974E+03
 -1.95730E+04 -2.36318E+04 -2.90325E+03 -3.12373E+04  1.44204E+04 -2.60456E+04  2.57835E+04 -1.41615E+04
  2.44572E+04 -9.86151E+02  1.75296E+04  6.16374E+03  9.98939E+03  1.53034E+03  1.39825E+04 -2.47127E+03
  2.51448E+04  2.65528E+03  2.97012E+04  2.01395E+04  2.03439E+04  4.29094E+04 -2.00142E+03  5.06841E+04
 -2.89490E+04  4.31450E+04 -4.84020E+04  2.25801E+04 -5.23523E+04 -3.87721E+03 -4.16221E+04 -3.04045E+04
 -1.60244E+04 -4.32070E+04  1.58109E+04 -3.73559E+04  3.24105E+04 -1.73384E+04  2.74466E+04  9.64960E+03
  8.68982E+03  2.14882E+04 -1.34403E+04  1.73959E+04 -2.29589E+04  2.79501E+03 -1.70136E+04 -1.49991E+04
 -8.07590E+02 -2.15706E+04  1.17383E+04 -1.61628E+04  1.53676E+04 -1.41448E+03  3.86016E+03  9.79912E+03
 -9.67093E+03  5.00788E+03 -1.11908E+04 -8.00099E+03 -2.56219E+03 -2.12814E+04  1.35101E+04 -2.30287E+04
  2.67518E+04 -1.39060E+04  3.15340E+04  3.36809E+03  2.82451E+04  2.16094E+04  1.26061E+04  3.54914E+04
 -7.37978E+03  3.72221E+04 -2.50959E+04  2.31144E+04 -2.65656E+04  4.28902E+03 -1.82207E+04 -7.28221E+03
 -7.01567E+03 -8.74415E+03 -4.72406E+02  3.26143E+02 -3.18578E+03  4.06940E+03 -9.19318E+03  6.48038E+03
 -1.61142E+04 -6.66888E+02 -1.70427E+04 -1.40534E+04 -6.85993E+03 -2.25778E+04  7.29125E+03 -1.82477E+04
  1.50446E+04 -7.83349E+03  1.09586E+04  5.27066E+03 -7.02747E+02  7.90301E+03 -9.56064E+03 -5.38358E+02
 -9.38151E+03 -1.18559E+04 -1.16290E+03 -1.86880E+04  1.14029E+04 -1.92543E+04  2.41641E+04 -1.07220E+04
  2.79692E+04  2.86019E+03  2.08903E+04  1.73192E+04  4.35318E+03  2.30914E+04 -1.13175E+04  1.84163E+04
 -1.50722E+04  5.21961E+03 -7.84986E+03 -4.22779E+03  2.01726E+03 -5.32953E+03  9.49718E+03 -1.47974E+03
  8.52453E+03  9.07339E+03  1.32436E+03  1.56739E+04 -1.08953E+04  1.42099E+04 -1.85107E+04  3.68801E+03
 -1.33050E+04 -1.02951E+04  6.19255E+02 -1.62618E+04  1.14460E+04 -8.43230E+03  1.15797E+04  3.98160E+03
  3.04585E+03  1.30140E+04 -9.90083E+03  1.43459E+04 -1.76244E+04  6.64481E+03 -1.81634E+04 -6.69192E+03
 -1.03113E+04 -2.01639E+04  4.75167E+03 -2.33867E+04  1.95535E+04 -1.33564E+04  2.13234E+04  3.78632E+03
  1.24611E+04  1.69607E+04 -2.03913E+03  1.89598E+04 -1.46921E+04  1.07165E+04 -1.55077E+04 -1.85351E+03
 -1.27255E+04 -1.31255E+04 -1.64193E+03 -1.51479E+04  7.74207E+03 -1.18685E+04  1.01505E+04 -3.86335E+03
  5.80012E+03  2.43953E+03 -1.59931E+03  2.14127E+03 -1.34321E+03 -5.40085E+03  3.66270E+03 -9.90271E+03
  1.48677E+04 -6.59168E+03  2.10256E+04  2.01385E+03  1.99121E+04  1.43163E+04  1.23928E+04  2.70826E+04
 -6.43040E+03  3.07203E+04 -2.55477E+04  2.27119E+04 -3.29952E+04  3.64159E+03 -2.66008E+04 -1.20693E+04
 -1.31675E+04 -2.11464E+04 -4.47172E+02 -1.93574E+04  6.43148E+03 -1.07190E+04  6.96484E+03 -7.36282E+03
  4.83345E+03 -3.90001E+03  4.59182E+03 -4.30781E+03  6.85948E+03 -5.09019E+03  1.06798E+04 -2.29050E+03
  1.35249E+04  3.04296E+03  8.20590E+03  1.18375E+04 -2.58298E+03  1.55805E+04 -1.44432E+04  1.17242E+04
 -1.92500E+04 -1.38854E+03 -1.28085E+04 -1.38988E+04 -2.04657E+03 -2.07870E+04  1.12121E+04 -2.11250E+04
  2.16727E+04 -1.18389E+04  2.52999E+04  4.09472E+03  1.76485E+04  1.84025E+04  2.95640E+03  2.33829E+04
 -1.00122E+04  1.85329E+04 -1.44800E+04  6.72407E+03 -9.74284E+03 -1.96167E+03 -4.60325E+03 -3.00303E+03
 -1.82812E+03 -7.59513E+02 -3.47233E+03  3.71861E+03 -8.10451E+03  3.41241E+03 -1.29922E+04 -1.87144E+03
 -1.01918E+04 -1.25482E+04 -4.75473E+02 -1.93831E+04  1.26535E+04 -1.79913E+04  1.99704E+04 -6.00086E+03
  1.94773E+04  9.23134E+03  9.32934E+03  1.79865E+04 -4.35567E+03  2.01606E+04 -1.43177E+04  1.23060E+04
 -1.89172E+04  1.00601E+03 -1.46169E+04 -1.21494E+04 -1.83812E+03 -1.64579E+04  8.46312E+03 -1.28232E+04
  1.25399E+04 -3.32577E+03  8.92213E+03  4.08914E+03  2.83224E+03  5.64523E+03  1.53282E+03  2.90921E+03
  3.99480E+03  1.56057E+03  5.15326E+03  2.86857E+03  6.55644E+03  6.58585E+03  4.52320E+03  1.09410E+04
 -3.76018E+03  1.64169E+04 -1.46733E+04  1.60739E+04 -2.17447E+04  4.08258E+03 -2.19758E+04 -9.25085E+03
 -1.02893E+04 -2.13435E+04  2.60526E+03 -2.27363E+04  1.28372E+04 -1.43391E+04  1.66849E+04 -3.79567E+03
  1.30440E+04  7.36922E+03  2.76106E+03  1.20940E+04 -6.17971E+03  7.89010E+03 -8.84648E+03 -1.15768E+03
 -3.96379E+03 -9.39128E+03  4.52615E+03 -9.55668E+03  8.64703E+03 -4.43784E+03  8.74621E+03  1.78603E+03
  5.39500E+03  4.74718E+03  1.80468E+03  4.26434E+03 -1.03356E+03  2.98665E+03  1.81061E+03 -6.78751E+02
  3.77036E+03 -1.12184E+03  8.70054E+03  3.40181E+03  5.54645E+03  1.11916E+04 -2.10449E+03  1.46626E+04
 -1.05532E+04  1.05739E+04 -1.38546E+04  3.05961E+03 -1.21463E+04 -4.81463E+03 -5.20710E+03 -8.32289E+03
  8.70715E+02 -8.80134E+03  5.85338E+03 -3.45530E+03  4.81683E+03  3.60327E+03 -1.88116E+03  6.73466E+03
 -8.63391E+03  4.40158E+03 -1.04180E+04 -5.00525E+03 -6.07808E+03 -1.23572E+04  2.10656E+03 -1.25381E+04
  7.90555E+03 -7.84641E+03  9.29189E+03 -9.24212E+02  7.11741E+03  3.58477E+03  8.71485E+02  6.59903E+03
 -4.46202E+03  2.30050E+03 -5.28093E+03 -4.70766E+03  2.19909E+03 -9.42377E+03  1.10865E+04 -7.77185E+03
  1.43181E+04  1.38951E+03  1.34337E+04  1.00207E+04  4.13270E+03  1.52035E+04 -5.69025E+03  1.40026E+04
 -1.22776E+04  5.98846E+03 -1.26223E+04 -2.12771E+03 -6.63745E+03 -9.71931E+03  2.03456E+03 -9.74847E+03
  8.96623E+03 -4.52526E+03  8.02164E+03  3.45748E+03  2.95764E+03  7.69217E+03 -1.48767E+03  6.52551E+03
 -3.81688E+03  3.86810E+03 -3.82906E+03  1.04117E+03 -1.76365E+03  1.44897E+03 -2.30203E+03  2.88209E+03
 -4.15567E+03  5.51975E+03 -9.32114E+03  5.54778E+03 -1.45315E+04 -1.77931E+02 -1.62267E+04 -1.01833E+04
 -8.45463E+03 -1.99073E+04  3.76874E+03 -2.29693E+04  1.47270E+04 -1.78046E+04  2.20872E+04 -6.91370E+03
  2.00152E+04  4.26164E+03  1.27227E+04  1.41021E+04  1.67500E+03  1.60925E+04 -5.67132E+03  1.19078E+04
 -9.39078E+03  4.38312E+03 -5.57203E+03 -1.77169E+03 -1.50890E+03 -1.72934E+03 -3.77976E+02 -1.26454E+02
 -2.28936E+03  4.10581E+02 -2.98574E+03 -4.24003E+02 -1.49506E+03 -3.62526E+03  1.16045E+03 -6.29709E+03
  7.00164E+03 -4.94864E+03  1.00459E+04 -1.40398E+02  1.12355E+04  8.76147E+03  3.35063E+03  1.59488E+04
 -7.19768E+03  1.76859E+04 -1.72222E+04  1.06763E+04 -1.97853E+04 -2.04499E+03 -1.51151E+04 -1.18874E+04
 -5.62980E+03 -1.62813E+04  4.32907E+03 -1.53466E+04  1.06343E+04 -8.50357E+03  1.08102E+04  2.99849E+02
  6.34691E+03  5.56591E+03 -6.91090E+02  3.90656E+03 -2.86200E+03 -3.89869E+02  4.53518E+02 -3.62066E+03
  5.31236E+03 -3.11497E+03  6.76956E+03  1.85721E+03  4.79075E+03  6.66369E+03 -7.50882E+02  8.84872E+03
 -7.16522E+03  7.27341E+03 -1.15901E+04  6.76130E+02 -9.50565E+03 -7.81288E+03 -1.51005E+03 -1.42435E+04
  8.01650E+03 -1.18610E+04  1.32104E+04 -4.01860E+03  1.34048E+04  3.77654E+03  7.36451E+03  1.05795E+04
  9.51557E+02  1.15062E+04 -4.25360E+03  9.69460E+03 -7.17531E+03  4.73053E+03 -6.06795E+03  5.61768E+02
 -3.07637E+03 -3.01392E+01 -3.00474E+03  1.27557E+03 -5.55534E+03  2.07039E+03 -8.99473E+03 -1.26572E+03
 -8.27621E+03 -6.27792E+03 -2.43871E+03 -1.13562E+04  4.90475E+03 -1.16467E+04  9.84322E+03 -6.07973E+03
  1.10198E+04  1.43567E+03  6.86649E+03  8.22260E+03 -5.34028E+02  1.15401E+04 -8.97813E+03  7.62167E+03
