 $NMID ID='MM_0lb_SNR800_20hz_g50_76.RAW', FMTDAT='(8E13.5)'
 TRAMP=1., VOLUME=1. $END
  3.09607E+05  4.26620E+02  3.37540E+05  2.50497E+05  8.44198E+04  3.37310E+05 -1.32201E+05  2.50181E+05
 -1.89903E+05  8.23767E+04 -1.11020E+05 -3.29068E+04  1.73369E+03 -5.00734E+04  5.38790E+04  2.20491E+02
  3.50427E+04  5.27857E+04 -1.69678E+04  7.49437E+04 -5.99516E+04  6.27875E+04 -8.31185E+04  3.14006E+04
 -7.94495E+04 -1.09961E+04 -5.61473E+04 -5.00073E+04 -1.48430E+04 -6.81054E+04  2.67108E+04 -4.46557E+04
  3.88312E+04  3.91958E+03  1.55389E+04  4.70695E+04 -3.39461E+04  4.60847E+04 -6.52039E+04 -4.70615E+02
 -5.18947E+04 -5.57959E+04 -6.21051E+03 -7.49661E+04  3.31951E+04 -5.28394E+04  4.60819E+04 -1.62870E+04
  4.12566E+04  1.12933E+04  3.03776E+04  2.40466E+04  1.58191E+04  2.80804E+04 -4.54308E+03  2.69302E+04
 -2.14953E+04  1.32106E+04 -1.92851E+04 -4.06189E+03  4.08465E+03 -7.50922E+03  2.09629E+04  1.08768E+04
  7.09741E+03  3.30066E+04 -3.03633E+04  3.35763E+04 -6.08199E+04  2.11179E+03 -5.51758E+04 -4.09309E+04
 -1.24534E+04 -6.04201E+04  3.79058E+04 -4.28072E+04  5.51549E+04 -1.83372E+03  3.16621E+04  3.04220E+04
 -6.46111E+03  3.25025E+04 -2.79285E+04  1.30330E+04 -2.73155E+04 -5.48530E+03 -1.38195E+04 -9.72250E+03
 -7.38731E+03 -1.13263E+04 -9.05900E+02 -1.63663E+04  6.46052E+03 -2.23432E+04  1.49483E+04 -1.39980E+04
  1.23415E+04  4.28776E+03 -5.67278E+03  1.28546E+04 -1.89659E+04 -2.34935E+03 -7.85813E+03 -2.97657E+04
  2.04469E+04 -4.00190E+04  4.43122E+04 -1.85049E+04  4.16265E+04  1.79623E+04  1.39769E+04  4.10006E+04
 -1.55172E+04  3.07342E+04 -2.31278E+04  1.07613E+03 -8.15396E+03 -2.63483E+04  2.03292E+04 -3.09398E+04
  3.75536E+04 -6.98690E+03  3.09253E+04  2.24706E+04  1.50224E+04  4.19273E+04 -7.60415E+03  4.41672E+04
 -2.78721E+04  2.90936E+04 -3.63795E+04  8.20939E+03 -3.75047E+04 -1.49147E+04 -2.09267E+04 -3.37150E+04
  6.69223E+03 -3.34012E+04  2.84964E+04 -1.22087E+04  2.63919E+04  1.09036E+04  2.93514E+03  1.73206E+04
 -1.28675E+04  6.82727E+03 -9.46991E+03 -7.36091E+03  5.88862E+03 -9.97893E+03  1.71963E+04  6.68457E+03
  1.19363E+04  2.14494E+04 -6.78964E+03  2.31498E+04 -2.14286E+04  8.82398E+03 -2.45668E+04 -6.35712E+03
 -1.60172E+04 -1.61325E+04 -5.15142E+03 -1.60989E+04  3.39122E+03 -1.37574E+04  1.20305E+04 -1.38564E+04
  2.02518E+04 -1.15021E+04  2.73120E+04  8.55005E+02  2.07299E+04  1.56281E+04  4.15428E+03  3.17628E+04
 -1.57882E+04  2.68238E+04 -2.54889E+04  9.28194E+03 -1.95674E+04 -1.05178E+04 -3.87679E+03 -1.40685E+04
  2.55362E+03 -4.39423E+03 -2.20202E+03  5.02259E+03 -1.22076E+04  5.32874E+03 -1.28661E+04 -4.56751E+03
 -8.20972E+03 -1.49396E+04  4.21809E+03 -1.86995E+04  1.18910E+04 -1.31914E+04  1.39705E+04 -1.44083E+03
  8.49886E+03  1.05208E+04 -7.52118E+02  1.50665E+04 -9.65902E+03  8.55688E+03 -1.47766E+04 -3.36192E+03
 -1.11274E+04 -1.37852E+04 -1.39664E+03 -1.81761E+04  8.06418E+03 -1.45434E+04  1.53522E+04 -6.93443E+03
  1.37905E+04  7.36643E+02  9.82278E+03  3.59870E+03  5.01296E+03  3.15950E+02  7.26146E+03 -1.56062E+03
  1.30773E+04  2.79183E+03  1.37842E+04  1.22135E+04  8.45948E+03  2.35170E+04 -3.35636E+03  2.50215E+04
 -1.47841E+04  1.85714E+04 -2.27816E+04  8.94509E+03 -2.32070E+04 -1.64545E+03 -1.99863E+04 -1.33339E+04
 -9.99097E+03 -1.86338E+04  6.37533E+03 -1.77774E+04  1.56040E+04 -1.05746E+04  1.46524E+04  3.33266E+03
  6.55134E+03  1.03820E+04 -6.45206E+03  1.01320E+04 -1.27779E+04  2.66792E+03 -1.00872E+04 -7.26589E+03
  2.97479E+01 -1.18853E+04  5.72734E+03 -8.90297E+03  7.43021E+03 -1.50545E+03  1.17764E+03  4.64135E+03
 -5.37330E+03  1.00078E+03 -3.13054E+03 -4.22137E+03  5.85046E+02 -9.42439E+03  7.38908E+03 -9.15305E+03
  1.12472E+04 -4.01705E+03  1.08636E+04  2.70805E+03  9.11746E+03  8.59954E+03  4.35337E+03  1.26155E+04
 -1.42306E+03  1.43811E+04 -8.51653E+03  9.48951E+03 -1.01576E+04  2.90107E+03 -7.80889E+03 -1.51171E+03
 -4.45671E+03 -2.97466E+03 -6.48847E+02  1.58886E+03 -1.88508E+03  1.58135E+03 -3.36813E+03  3.47131E+03
 -7.54295E+03 -4.04066E+02 -8.22008E+03 -6.88656E+03 -3.46492E+03 -1.08079E+04  3.00649E+03 -7.92117E+03
  6.72020E+03 -3.56595E+03  5.09352E+03  2.08675E+03  6.30993E+02  2.79063E+03 -2.96185E+03 -3.75957E+02
 -2.98301E+03 -4.69753E+03 -6.57994E+02 -6.51465E+03  3.31972E+03 -7.12736E+03  9.24222E+03 -3.24259E+03
  1.05495E+04  1.55073E+01  7.76017E+03  5.32723E+03  1.71641E+03  7.75266E+03 -4.85496E+03  7.73872E+03
 -6.49548E+03  2.66840E+03 -3.31031E+03 -7.78894E+02  1.21543E+03 -1.59839E+03  4.60641E+03 -1.03506E+03
  3.68747E+03  2.88491E+03  1.08167E+03  5.73260E+03 -4.35412E+03  5.63887E+03 -7.17066E+03  1.64015E+03
 -4.28321E+03 -3.29228E+03  4.68361E+02 -5.86490E+03  3.30726E+03 -3.11407E+03  2.91227E+03  7.63608E+02
  2.54069E+02  2.87316E+03 -3.53864E+03  4.23690E+03 -3.97026E+03  2.38641E+03 -3.59493E+03 -9.32873E+02
 -2.46750E+03 -5.19468E+03  1.12223E+03 -5.94695E+03  4.97691E+03 -4.14159E+03  5.32041E+03  1.04880E+03
  4.38359E+03  4.78714E+03  2.97796E+02  6.80472E+03 -4.40001E+03  3.75889E+03 -4.51789E+03 -2.50956E+02
 -5.19137E+03 -4.56595E+03 -1.56645E+03 -4.59837E+03  2.12822E+03 -4.32921E+03  2.58895E+03 -2.90496E+03
  2.89918E+03 -5.52592E+01  3.12611E+02  1.02942E+03  9.01541E+02  8.67152E+01 -3.40928E+01 -1.26072E+03
  3.53511E+03 -3.50742E+02  4.14699E+03  6.66406E+02  4.68370E+03  2.36366E+03  5.10075E+03  6.02363E+03
 -8.18095E+02  7.26210E+03 -6.63263E+03  5.47273E+03 -8.61648E+03  1.11873E+03 -6.46738E+03 -1.97455E+03
 -3.61268E+03 -5.74673E+03 -3.97935E+02 -4.32318E+03  1.87348E+03 -1.50190E+03  1.41934E+03 -1.91842E+03
  9.78899E+02 -1.24721E+03  2.13806E+03 -1.85029E+03  3.16038E+03 -1.02476E+03  3.13508E+03  4.23368E+02
  3.87717E+03  9.97024E+02  5.98996E+02  2.93436E+03 -1.51308E+03  2.13392E+03 -4.01448E+03  2.16776E+03
 -3.97952E+03 -1.03264E+03 -1.28033E+03 -2.89026E+03  1.00518E+03 -4.29757E+03  2.87382E+03 -4.41245E+03
  4.04677E+03 -2.82539E+03  5.43776E+03 -1.36664E+02  4.25789E+03  3.51617E+03  1.04930E+03  5.18684E+03
 -1.97964E+03  4.98880E+03 -2.58622E+03  1.45786E+03 -1.17663E+03 -7.55596E+02 -2.65036E+02 -2.95761E+02
 -3.94098E+02  4.32925E+02 -8.87808E+02  1.89329E+03 -2.15167E+03  1.02512E+03 -3.48117E+03  7.38006E+01
 -1.20482E+03 -3.81948E+03  9.07504E+02 -3.74973E+03  2.34841E+03 -3.64030E+03  2.72587E+03 -8.29832E+02
  3.09513E+03  1.81753E+03  1.32392E+03  2.55247E+03 -7.68629E+02  3.64102E+03 -1.99719E+03  2.18856E+03
 -2.89001E+03  7.07910E+02 -2.80866E+03 -1.81835E+03 -1.76848E+02 -2.43300E+03  1.33855E+03 -2.03549E+03
  2.42038E+03 -1.15634E+03  1.38930E+03  2.15182E+02  1.87646E+02  1.54288E+03  8.29503E+02  2.79406E+02
  1.38084E+03  6.20381E+02  1.14546E+03  9.16872E+02  8.71446E+02  2.05601E+03  1.30632E+03  1.17590E+03
 -1.27178E+03  2.55336E+03 -1.79839E+03  3.69373E+03 -2.03581E+03  1.26093E+03 -3.21565E+03 -1.89245E+02
 -1.37890E+03 -2.79131E+03  4.24679E+02 -3.73764E+03  1.19579E+03 -1.99022E+03  2.13684E+03 -6.79900E+02
  1.74583E+03  1.42657E+03  4.10133E+02  1.89627E+03 -5.73446E+02  8.39796E+02 -6.56484E+02 -1.68095E+02
 -5.56790E+02 -1.20956E+03  9.63421E+02 -1.10351E+03  9.29398E+02 -9.99548E+02  8.34764E+02  3.31667E+02
  7.66220E+02  2.16658E+02  6.73945E+02 -5.91002E+02 -7.84950E+01  5.93514E+02  1.60717E+03 -6.11109E+01
 -1.73190E+02 -1.42327E+02  1.68637E+03  7.96233E+02  1.10729E+02  2.08195E+03 -2.49724E+02  2.20817E+03
 -1.17005E+03  5.80119E+02 -1.64684E+03  4.27155E+02 -1.77744E+03 -4.15030E+02  1.11294E+02 -7.92819E+02
  1.87301E+02 -1.14283E+03  8.36885E+02 -5.23386E+02  2.43068E+02  1.24958E+03 -6.98912E+02  6.00946E+02
 -1.24695E+03  7.83274E+02 -8.49939E+02 -1.01925E+03 -5.46173E+02 -1.75840E+03  5.94964E+01 -7.07690E+02
  5.54362E+01 -2.57342E+02  1.19683E+02  2.17807E+02  9.25506E+02 -3.37325E+02  5.35628E+02  7.86713E+02
 -3.77836E+01  1.41719E+02 -9.89744E+02  3.48375E+01  3.37657E+02 -4.66707E+02  1.46590E+03 -8.05101E+02
  8.66467E+02  5.92098E+01  2.30330E+03  5.99917E+02  1.03736E+03  1.01339E+03 -1.96021E+02  1.43545E+03
 -9.92791E+02 -9.79120E+01 -1.28174E+03 -1.44207E+02 -5.40297E+02 -1.06334E+03  2.95167E+02 -2.41891E+02
  1.26393E+03 -7.20295E+02  5.66860E+02  6.11498E+02  9.27588E+01  1.11251E+03  2.83667E+02  1.05349E+03
 -4.92704E+02  1.14849E+03 -4.62876E+02  1.83318E+02  5.84230E+01  3.32271E+02 -5.61953E+02  2.61814E+02
 -3.55071E+02  7.71279E+02 -1.71675E+03  5.08607E+02 -1.14131E+03  2.15115E+02 -1.67192E+03 -4.70245E+02
 -6.66973E+02 -1.86767E+03  3.90512E+02 -2.05621E+03  4.45356E+02 -1.83090E+03  2.05512E+03 -8.19932E+02
  1.62622E+03 -4.17287E+02  9.03895E+02  1.12499E+03 -6.20649E+02  8.56961E+02 -4.07550E+02  8.88001E+02
 -7.08342E+02  5.05847E+02 -4.95673E+02 -3.72194E+02 -4.01232E+02  4.06026E+01 -6.68278E+02  4.93354E+01
 -1.09431E+03  6.78593E+01 -9.58084E+02  4.12785E+02  2.24239E+02 -3.90216E+02 -5.71562E+02 -6.38756E+02
  1.30445E+03 -3.98779E+02 -1.84946E+02 -2.93971E+01  8.62796E+02  8.73758E+02 -5.06883E+02  9.19543E+02
 -8.01904E+02  1.67450E+03 -1.20998E+03  1.03756E+03 -1.03539E+03 -2.19049E+02 -6.74079E+02 -1.07442E+03
 -8.40392E+02 -9.21464E+02  1.36510E+02 -5.01370E+02  3.52076E+02 -5.11809E+02  4.35383E+02  1.47018E+02
  7.07619E+02  1.63042E+02  1.64376E+02  4.40818E+02 -4.02740E+02  6.48741E+01 -3.50687E+02 -1.77705E+02
  3.03556E+02  1.81445E+02  2.29604E+01  5.62440E+02 -4.12364E+01  2.78238E+02  3.13164E+02 -1.77422E+01
 -5.32061E+02  6.55218E+02 -8.52295E+01  1.44759E+02 -5.88417E+02 -4.82169E+02  2.58159E+02 -7.59405E+02
  4.21285E+02 -3.71909E+02  5.39866E+01  4.21746E+01  5.23623E+02 -9.69994E+02  8.34740E+01  3.81725E+02
  3.92656E+02  8.09238E+00 -1.52910E+02  2.72599E+02 -1.88417E+02  5.55439E+02 -2.72505E+02 -7.58374E+01
 -7.33744E+00 -2.62223E+02 -4.69989E+02  2.40568E+02 -3.66250E+02  1.59369E+02 -3.72690E+02 -4.36690E+01
 -7.58417E+02  2.76658E+02  8.17035E+01 -4.07151E+02  6.71283E+02 -1.38816E+03  4.74703E+02 -2.72844E+02
  4.76260E+02  9.70650E+01 -5.40731E+02  5.67922E+01 -1.68412E+02  3.14442E+02  6.42497E+00  6.58144E+02
