 $NMID ID='MM_0lb_SNR800_8hz_g40_80.RAW', FMTDAT='(8E13.5)'
 TRAMP=1., VOLUME=1. $END
  3.10083E+05  6.19335E+02  3.38024E+05  2.50806E+05  8.45803E+04  3.38359E+05 -1.33049E+05  2.52444E+05
 -1.90912E+05  8.36211E+04 -1.12654E+05 -3.24834E+04  3.70763E+02 -5.05627E+04  5.37810E+04 -6.14788E+02
  3.60259E+04  5.29578E+04 -1.66160E+04  7.59461E+04 -6.11162E+04  6.42356E+04 -8.53120E+04  3.25556E+04
 -8.21134E+04 -1.18130E+04 -5.80290E+04 -5.26949E+04 -1.53185E+04 -7.12224E+04  2.80148E+04 -4.67480E+04
  4.11483E+04  3.80326E+03  1.70697E+04  4.87132E+04 -3.48840E+04  4.85610E+04 -6.78428E+04 -8.78539E+01
 -5.49808E+04 -5.80280E+04 -7.11055E+03 -7.90739E+04  3.48224E+04 -5.66703E+04  4.96071E+04 -1.85486E+04
  4.51440E+04  1.14649E+04  3.29086E+04  2.60770E+04  1.58220E+04  3.04768E+04 -5.63603E+03  2.81931E+04
 -2.26579E+04  1.20937E+04 -1.76791E+04 -5.89643E+03  6.68335E+03 -6.93713E+03  2.35277E+04  1.34797E+04
  7.03416E+03  3.75209E+04 -3.40158E+04  3.66765E+04 -6.57145E+04  2.21926E+03 -5.90104E+04 -4.44315E+04
 -1.24440E+04 -6.56508E+04  4.17567E+04 -4.74402E+04  6.13130E+04 -2.41052E+03  3.68033E+04  3.42834E+04
 -5.31254E+03  3.96874E+04 -3.20352E+04  1.84066E+04 -3.32861E+04 -3.32964E+03 -1.97488E+04 -1.21532E+04
 -9.61256E+03 -1.53010E+04 -6.44883E+02 -1.97845E+04  8.34943E+03 -2.33151E+04  1.56154E+04 -1.27397E+04
  1.04074E+04  6.70817E+03 -1.07104E+04  1.31036E+04 -2.35501E+04 -6.47928E+03 -8.67788E+03 -3.78569E+04
  2.53238E+04 -4.69323E+04  5.17837E+04 -2.11903E+04  4.85887E+04  2.07469E+04  1.74685E+04  4.71257E+04
 -1.66856E+04  3.63114E+04 -2.75132E+04  2.56341E+03 -1.16145E+04 -2.96865E+04  2.09695E+04 -3.70062E+04
  4.45865E+04 -1.13039E+04  4.03109E+04  2.50739E+04  2.13124E+04  5.13254E+04 -8.66710E+03  5.61625E+04
 -3.56029E+04  3.85531E+04 -4.75133E+04  1.11963E+04 -4.78757E+04 -1.81430E+04 -2.64283E+04 -4.19138E+04
  7.71181E+03 -4.20788E+04  3.44777E+04 -1.73004E+04  3.17950E+04  1.08683E+04  5.13328E+03  2.07025E+04
 -1.41103E+04  9.30248E+03 -1.12015E+04 -7.66323E+03  5.37200E+03 -1.15495E+04  1.89380E+04  5.51656E+03
  1.49915E+04  2.24777E+04 -5.13102E+03  2.72981E+04 -2.34568E+04  1.41144E+04 -3.16098E+04 -2.75093E+03
 -2.56734E+04 -1.85034E+04 -1.17978E+04 -2.53518E+04  4.69259E+03 -2.59148E+04  1.96895E+04 -2.31844E+04
  3.23748E+04 -1.44142E+04  3.83625E+04  5.16672E+03  2.72179E+04  2.43062E+04  4.53183E+03  4.17936E+04
 -1.98734E+04  3.37291E+04 -3.04569E+04  1.18739E+04 -2.27180E+04 -1.01329E+04 -4.54048E+03 -1.30722E+04
  9.30618E+02 -6.59972E+02 -7.89442E+03  8.56671E+03 -2.01567E+04  5.14047E+03 -2.01016E+04 -9.55573E+03
 -1.18046E+04 -2.35706E+04  6.00315E+03 -2.84146E+04  1.91451E+04 -1.97805E+04  2.28430E+04 -1.56115E+03
  1.51306E+04  1.61959E+04 -7.95811E+02  2.32247E+04 -1.66130E+04  1.34743E+04 -2.38100E+04 -4.86428E+03
 -1.69062E+04 -2.08176E+04 -2.44631E+03 -2.80383E+04  1.25329E+04 -2.34729E+04  2.31486E+04 -1.25055E+04
  2.18949E+04 -6.01801E+02  1.59892E+04  5.28467E+03  8.86261E+03  1.00748E+03  1.24456E+04 -1.96259E+03
  2.21989E+04  2.87092E+03  2.58419E+04  1.81105E+04  1.77270E+04  3.79323E+04 -2.60711E+03  4.46372E+04
 -2.54525E+04  3.75361E+04 -4.22008E+04  1.94748E+04 -4.51868E+04 -3.19198E+03 -3.66723E+04 -2.68909E+04
 -1.46990E+04 -3.82072E+04  1.31128E+04 -3.29888E+04  2.80790E+04 -1.57886E+04  2.46303E+04  7.95950E+03
  7.92995E+03  1.92182E+04 -1.15113E+04  1.59972E+04 -2.07545E+04  2.40189E+03 -1.54371E+04 -1.29305E+04
 -4.01056E+02 -1.96152E+04  1.06804E+04 -1.45309E+04  1.35648E+04 -1.26974E+03  4.05677E+03  9.03151E+03
 -8.70590E+03  4.23034E+03 -9.09721E+03 -7.07060E+03 -2.17737E+03 -1.86844E+04  1.20442E+04 -1.98862E+04
  2.31977E+04 -1.10156E+04  2.67159E+04  3.40369E+03  2.34141E+04  1.87639E+04  1.10201E+04  3.01016E+04
 -5.86674E+03  3.13034E+04 -2.06864E+04  1.88664E+04 -2.32627E+04  4.15381E+03 -1.59306E+04 -5.97507E+03
 -6.36581E+03 -7.29945E+03 -5.52203E+02  7.37892E+01 -2.88293E+03  3.34225E+03 -7.54237E+03  5.56916E+03
 -1.43499E+04 -7.19525E+02 -1.49029E+04 -1.21914E+04 -6.13152E+03 -1.96370E+04  6.72209E+03 -1.59549E+04
  1.30302E+04 -6.41980E+03  9.23278E+03  4.43315E+03 -4.18304E+02  6.35918E+03 -8.13872E+03  8.95474E+01
 -7.84828E+03 -1.05306E+04 -1.37255E+03 -1.57761E+04  9.28328E+03 -1.65812E+04  2.07423E+04 -9.14681E+03
  2.43935E+04  2.37681E+03  1.75466E+04  1.45309E+04  3.08665E+03  1.94696E+04 -9.71665E+03  1.56836E+04
 -1.26997E+04  4.74969E+03 -6.69231E+03 -3.64763E+03  2.19405E+03 -4.37131E+03  8.61835E+03 -1.06621E+03
  7.83948E+03  7.24345E+03  1.17658E+03  1.31816E+04 -9.43710E+03  1.24886E+04 -1.53246E+04  2.71725E+03
 -1.12646E+04 -8.69263E+03  3.87227E+02 -1.39329E+04  8.86279E+03 -7.25674E+03  9.48774E+03  3.50702E+03
  2.19204E+03  1.03268E+04 -8.72801E+03  1.17186E+04 -1.42271E+04  5.47271E+03 -1.43423E+04 -4.96217E+03
 -8.54578E+03 -1.60405E+04  4.03960E+03 -1.85947E+04  1.54543E+04 -1.18855E+04  1.76423E+04  2.75811E+03
  9.92622E+03  1.38495E+04 -1.57510E+03  1.65744E+04 -1.19175E+04  9.11359E+03 -1.31261E+04 -1.73869E+03
 -1.05443E+04 -1.07090E+04 -1.71814E+03 -1.25292E+04  6.66956E+03 -9.85190E+03  8.15177E+03 -3.62594E+03
  5.06552E+03  2.04223E+03 -1.26434E+03  2.30643E+03 -1.00386E+03 -3.50115E+03  2.93914E+03 -7.88589E+03
  1.16565E+04 -5.24475E+03  1.69356E+04  1.83000E+03  1.65183E+04  1.13778E+04  1.07286E+04  2.15711E+04
 -4.86690E+03  2.46936E+04 -2.05413E+04  1.82350E+04 -2.62076E+04  3.80948E+03 -2.13107E+04 -9.26481E+03
 -1.11823E+04 -1.78265E+04 -6.24242E+02 -1.50716E+04  5.06543E+03 -8.49242E+03  6.01056E+03 -5.36014E+03
  4.29130E+03 -3.06852E+03  4.19149E+03 -3.78287E+03  5.67727E+03 -3.81104E+03  8.68943E+03 -1.75326E+03
  1.14759E+04  2.73968E+03  5.99651E+03  9.83763E+03 -2.24969E+03  1.16224E+04 -1.19157E+04  9.26698E+03
 -1.55621E+04 -1.22594E+03 -1.01011E+04 -1.12014E+04 -8.99844E+02 -1.66401E+04  8.85111E+03 -1.66492E+04
  1.74850E+04 -9.46702E+03  2.06814E+04  2.63631E+03  1.42027E+04  1.43548E+04  2.20938E+03  1.85851E+04
 -7.69350E+03  1.46320E+04 -1.10520E+04  5.25235E+03 -7.36080E+03 -1.31761E+03 -3.18978E+03 -1.93075E+03
 -1.29439E+03 -1.59196E+02 -2.15107E+03  3.32601E+03 -6.24261E+03  2.38747E+03 -1.02487E+04 -1.82463E+03
 -7.46732E+03 -1.07144E+04  1.04836E+02 -1.55357E+04  9.56374E+03 -1.39702E+04  1.58227E+04 -4.38812E+03
  1.53103E+04  7.75297E+03  7.06835E+03  1.42820E+04 -2.80878E+03  1.57637E+04 -1.13296E+04  9.70450E+03
 -1.47079E+04  5.65837E+02 -1.14494E+04 -9.89063E+03 -1.35563E+03 -1.35282E+04  6.52435E+03 -9.65726E+03
  9.98765E+03 -2.89680E+03  6.76468E+03  2.36169E+03  2.12085E+03  4.47889E+03  1.41375E+03  2.10196E+03
  2.43887E+03  1.11628E+03  3.68028E+03  2.22692E+03  4.66174E+03  5.78054E+03  4.06194E+03  8.49364E+03
 -2.86875E+03  1.30124E+04 -1.13822E+04  1.25426E+04 -1.65313E+04  2.93315E+03 -1.67139E+04 -6.93456E+03
 -8.03422E+03 -1.60664E+04  2.62162E+03 -1.74373E+04  9.79897E+03 -1.14790E+04  1.32084E+04 -3.07156E+03
  1.00572E+04  5.76899E+03  2.67836E+03  9.39767E+03 -4.84557E+03  5.68169E+03 -6.74339E+03 -1.15771E+03
 -3.18568E+03 -6.74474E+03  3.65370E+03 -7.09862E+03  6.45398E+03 -3.63330E+03  6.46499E+03  1.71082E+03
  3.70679E+03  3.47100E+03  1.82989E+03  3.17605E+03 -9.19483E+02  2.17692E+03  2.01728E+03 -5.83337E+02
  2.68884E+03 -1.46473E+03  6.65464E+03  2.76783E+03  3.95717E+03  8.80294E+03 -1.35662E+03  1.11604E+04
 -8.08097E+03  7.49900E+03 -1.04153E+04  1.91964E+03 -9.61021E+03 -3.70520E+03 -3.45067E+03 -6.47819E+03
  7.74038E+02 -6.92022E+03  4.58935E+03 -3.30465E+03  4.02205E+03  2.92901E+03 -1.76161E+03  5.26220E+03
 -6.71232E+03  2.90241E+03 -7.70164E+03 -3.71793E+03 -4.66099E+03 -9.12813E+03  1.53258E+03 -9.23638E+03
  5.41259E+03 -5.82045E+03  6.36435E+03 -3.75890E+02  5.12103E+03  2.94571E+03  7.81023E+02  4.34193E+03
 -3.38066E+03  1.28715E+03 -4.52752E+03 -3.35628E+03  1.57467E+03 -7.06362E+03  8.21115E+03 -5.93554E+03
  1.05460E+04  1.03526E+03  1.04464E+04  7.23942E+03  3.34838E+03  1.12315E+04 -3.96884E+03  1.02617E+04
 -8.90507E+03  4.53485E+03 -9.39795E+03 -1.93766E+03 -5.03738E+03 -7.10877E+03  1.52136E+03 -6.46184E+03
  6.77745E+03 -3.20029E+03  6.01241E+03  2.82943E+03  2.10816E+03  6.02108E+03 -1.37136E+03  5.11320E+03
 -2.80724E+03  3.48291E+03 -2.88560E+03  9.10201E+02 -1.39345E+03  1.27167E+03 -1.87469E+03  2.09804E+03
 -2.64256E+03  3.91932E+03 -7.36844E+03  3.50841E+03 -1.11045E+04  2.72600E+02 -1.23403E+04 -7.51702E+03
 -6.10190E+03 -1.46249E+04  3.01918E+03 -1.68641E+04  1.07981E+04 -1.30631E+04  1.61681E+04 -5.48105E+03
  1.48052E+04  3.48384E+03  9.27842E+03  1.00495E+04  1.17442E+03  1.14061E+04 -4.73420E+03  9.00244E+03
 -6.63525E+03  3.36830E+03 -3.78608E+03 -1.10209E+03 -1.48687E+03 -1.38227E+03 -5.87207E+02 -4.05193E+02
 -2.11483E+03  1.47555E+02 -2.78077E+03 -2.17362E+02 -1.20364E+03 -2.73045E+03  2.38617E+02 -4.58326E+03
  5.32055E+03 -3.79901E+03  7.21490E+03  1.68472E+02  8.02824E+03  6.03970E+03  2.26893E+03  1.17472E+04
 -5.73626E+03  1.31964E+04 -1.23847E+04  7.96075E+03 -1.44451E+04 -9.27972E+02 -1.08148E+04 -8.85716E+03
 -4.48250E+03 -1.21894E+04  3.04275E+03 -1.11938E+04  7.65476E+03 -6.08366E+03  7.63495E+03  6.96427E+02
  4.35250E+03  4.10604E+03 -5.88183E+02  3.14576E+03 -1.70341E+03 -3.80985E+02 -1.67178E+02 -2.69143E+03
  3.88252E+03 -1.68275E+03  4.45379E+03  1.52059E+03  2.90702E+03  4.77080E+03  3.00872E+01  6.26065E+03
 -5.11686E+03  5.57856E+03 -8.09909E+03  7.53382E+02 -7.09406E+03 -5.93830E+03 -1.37769E+03 -1.01007E+04
  5.38247E+03 -8.40642E+03  9.44608E+03 -2.73429E+03  9.10312E+03  2.45248E+03  5.48607E+03  7.44329E+03
  1.23895E+03  8.07113E+03 -3.29626E+03  6.31443E+03 -4.85593E+03  3.94447E+03 -4.24154E+03  2.17188E+02
 -2.29271E+03 -9.60596E+01 -2.19441E+03  1.41093E+03 -4.23236E+03  1.70631E+03 -6.27613E+03 -1.06291E+03
 -6.29011E+03 -4.26269E+03 -2.23080E+03 -7.79974E+03  3.82364E+03 -8.10693E+03  7.30204E+03 -4.29281E+03
  8.01894E+03  1.21145E+03  4.28872E+03  5.90423E+03 -8.71765E+02  7.67733E+03 -6.02508E+03  5.43286E+03
