 $NMID ID='MM_0lb_SNR800_8hz_g45_84.RAW', FMTDAT='(8E13.5)'
 TRAMP=1., VOLUME=1. $END
  3.10195E+05 -2.42363E+01  3.38222E+05  2.50408E+05  8.48565E+04  3.38549E+05 -1.32646E+05  2.52225E+05
 -1.90798E+05  8.37599E+04 -1.12516E+05 -3.25244E+04  6.16561E+02 -5.05029E+04  5.39442E+04 -1.65597E+02
  3.57404E+04  5.26482E+04 -1.66443E+04  7.59872E+04 -6.12122E+04  6.48224E+04 -8.55025E+04  3.21027E+04
 -8.26677E+04 -1.18251E+04 -5.80756E+04 -5.25273E+04 -1.52582E+04 -7.13690E+04  2.84139E+04 -4.68901E+04
  4.14400E+04  3.65325E+03  1.70816E+04  4.86847E+04 -3.49642E+04  4.83911E+04 -6.80944E+04  3.51407E+02
 -5.50125E+04 -5.74702E+04 -7.48316E+03 -7.89383E+04  3.47249E+04 -5.72563E+04  5.04022E+04 -1.84678E+04
  4.52028E+04  1.14044E+04  3.33482E+04  2.65178E+04  1.59615E+04  3.04878E+04 -6.02268E+03  2.76656E+04
 -2.26459E+04  1.19072E+04 -1.79598E+04 -5.94511E+03  7.02680E+03 -7.40911E+03  2.37952E+04  1.37754E+04
  6.75998E+03  3.77433E+04 -3.38749E+04  3.72146E+04 -6.62251E+04  2.29497E+03 -5.92269E+04 -4.48829E+04
 -1.29494E+04 -6.59724E+04  4.16291E+04 -4.76909E+04  6.16649E+04 -2.76925E+03  3.71668E+04  3.49590E+04
 -5.37554E+03  3.98295E+04 -3.19850E+04  1.92859E+04 -3.37833E+04 -3.10669E+03 -1.95849E+04 -1.22078E+04
 -9.59350E+03 -1.54524E+04 -5.00910E+02 -1.95377E+04  8.68566E+03 -2.34965E+04  1.62154E+04 -1.22592E+04
  1.02549E+04  6.69787E+03 -1.09295E+04  1.26618E+04 -2.38841E+04 -6.71078E+03 -8.62118E+03 -3.77193E+04
  2.53687E+04 -4.74225E+04  5.28260E+04 -2.09058E+04  4.92800E+04  2.07201E+04  1.76121E+04  4.71678E+04
 -1.71115E+04  3.68775E+04 -2.80684E+04  2.83265E+03 -1.18084E+04 -2.92445E+04  2.15449E+04 -3.73576E+04
  4.53038E+04 -1.11662E+04  4.06555E+04  2.50230E+04  2.19404E+04  5.17927E+04 -8.40515E+03  5.67375E+04
 -3.58220E+04  3.84026E+04 -4.84009E+04  1.15036E+04 -4.78936E+04 -1.84814E+04 -2.66523E+04 -4.26977E+04
  7.81859E+03 -4.24246E+04  3.44363E+04 -1.74515E+04  3.25916E+04  1.14334E+04  5.40541E+03  2.09170E+04
 -1.38867E+04  1.00004E+04 -1.11794E+04 -7.39858E+03  5.38822E+03 -1.20154E+04  1.89605E+04  5.50842E+03
  1.49897E+04  2.28551E+04 -5.33063E+03  2.75009E+04 -2.37065E+04  1.52102E+04 -3.14638E+04 -2.88341E+03
 -2.57900E+04 -1.87297E+04 -1.19550E+04 -2.55498E+04  4.55416E+03 -2.63919E+04  2.05754E+04 -2.36276E+04
  3.32055E+04 -1.43811E+04  3.85468E+04  4.86701E+03  2.72950E+04  2.47417E+04  4.39963E+03  4.21907E+04
 -1.99803E+04  3.44701E+04 -3.08140E+04  1.20046E+04 -2.24445E+04 -1.06606E+04 -5.13119E+03 -1.33946E+04
  6.33935E+02 -1.03695E+03 -8.34994E+03  8.58718E+03 -2.08524E+04  4.98790E+03 -2.06733E+04 -9.70778E+03
 -1.25893E+04 -2.40490E+04  6.46361E+03 -2.82479E+04  1.93413E+04 -2.03669E+04  2.32224E+04 -2.11381E+03
  1.50071E+04  1.66360E+04 -1.58012E+03  2.36842E+04 -1.72706E+04  1.35753E+04 -2.40210E+04 -4.83705E+03
 -1.74218E+04 -2.12806E+04 -2.15326E+03 -2.84083E+04  1.26701E+04 -2.41063E+04  2.37421E+04 -1.22324E+04
  2.24209E+04 -6.48369E+02  1.64450E+04  5.09800E+03  9.24066E+03  1.79649E+03  1.27358E+04 -2.36906E+03
  2.25728E+04  2.95666E+03  2.60969E+04  1.83004E+04  1.76390E+04  3.85675E+04 -2.90313E+03  4.60127E+04
 -2.64268E+04  3.81578E+04 -4.33064E+04  2.01381E+04 -4.60335E+04 -3.32651E+03 -3.76729E+04 -2.70454E+04
 -1.51624E+04 -3.85031E+04  1.37065E+04 -3.38244E+04  2.90617E+04 -1.60674E+04  2.46211E+04  8.18419E+03
  8.35798E+03  1.91865E+04 -1.21297E+04  1.57737E+04 -2.09158E+04  2.54790E+03 -1.52896E+04 -1.32716E+04
 -4.45068E+02 -2.02018E+04  1.10165E+04 -1.45526E+04  1.35349E+04 -1.05733E+03  3.57494E+03  8.71053E+03
 -9.02265E+03  4.61352E+03 -9.88443E+03 -6.93409E+03 -1.62970E+03 -1.85479E+04  1.21526E+04 -2.07957E+04
  2.36959E+04 -1.21775E+04  2.73705E+04  2.95176E+03  2.35429E+04  1.91393E+04  1.11852E+04  3.06754E+04
 -6.03485E+03  3.20602E+04 -2.16996E+04  1.99560E+04 -2.33104E+04  4.50162E+03 -1.59750E+04 -5.99238E+03
 -6.63859E+03 -7.56915E+03 -5.37078E+02  7.01064E+02 -2.91936E+03  3.51923E+03 -7.70071E+03  5.87555E+03
 -1.48644E+04 -1.08065E+03 -1.51408E+04 -1.21275E+04 -6.28159E+03 -1.98967E+04  6.63561E+03 -1.65486E+04
  1.33817E+04 -7.09342E+03  9.36540E+03  4.26340E+03  4.32525E+01  6.65051E+03 -8.29683E+03 -6.60717E+01
 -7.58428E+03 -1.06481E+04 -1.27155E+03 -1.59617E+04  9.30810E+03 -1.75396E+04  2.08657E+04 -9.40070E+03
  2.44701E+04  2.51654E+03  1.81299E+04  1.53868E+04  3.38534E+03  2.04013E+04 -1.01227E+04  1.61525E+04
 -1.37315E+04  4.51927E+03 -6.65721E+03 -3.40328E+03  1.96766E+03 -4.34460E+03  8.46753E+03 -7.37498E+02
  7.47636E+03  7.58060E+03  1.04097E+03  1.32683E+04 -9.58016E+03  1.28577E+04 -1.62663E+04  3.09104E+03
 -1.09240E+04 -8.92994E+03  3.42102E+02 -1.42896E+04  9.43471E+03 -7.45072E+03  9.55905E+03  3.43154E+03
  2.61169E+03  1.06423E+04 -8.46483E+03  1.23680E+04 -1.43573E+04  5.03678E+03 -1.44682E+04 -5.58817E+03
 -8.56973E+03 -1.67962E+04  4.38690E+03 -1.94187E+04  1.65954E+04 -1.14538E+04  1.82395E+04  3.15921E+03
  1.03257E+04  1.41771E+04 -1.73879E+03  1.66069E+04 -1.21290E+04  9.38480E+03 -1.32585E+04 -1.16074E+03
 -1.13171E+04 -1.10536E+04 -2.08471E+03 -1.27104E+04  6.82842E+03 -1.03914E+04  8.40255E+03 -4.07361E+03
  5.27855E+03  2.25487E+03 -1.08961E+03  1.85552E+03 -7.81582E+02 -3.60875E+03  3.56191E+03 -8.26517E+03
  1.21880E+04 -4.97813E+03  1.70521E+04  1.91684E+03  1.69428E+04  1.22256E+04  1.07195E+04  2.23412E+04
 -5.31810E+03  2.59454E+04 -2.14741E+04  1.86170E+04 -2.79613E+04  3.84994E+03 -2.21709E+04 -9.32904E+03
 -1.06436E+04 -1.81716E+04 -5.57119E+02 -1.56770E+04  5.75421E+03 -9.00644E+03  5.53869E+03 -5.65579E+03
  4.07713E+03 -3.58881E+03  4.07381E+03 -3.98963E+03  6.29388E+03 -4.08003E+03  8.28614E+03 -1.95060E+03
  1.13565E+04  2.78746E+03  6.65401E+03  1.01300E+04 -1.83515E+03  1.22494E+04 -1.19578E+04  9.22472E+03
 -1.60613E+04 -1.17787E+03 -1.05456E+04 -1.12368E+04 -1.21145E+03 -1.68572E+04  9.68897E+03 -1.69893E+04
  1.76906E+04 -8.95372E+03  2.12623E+04  2.50352E+03  1.48678E+04  1.48055E+04  1.68788E+03  1.91047E+04
 -8.03574E+03  1.49260E+04 -1.15445E+04  5.55660E+03 -7.38002E+03 -1.83012E+03 -3.37620E+03 -2.53059E+03
 -2.14405E+03 -1.01099E+02 -2.42683E+03  3.19131E+03 -6.44037E+03  2.88628E+03 -1.10983E+04 -1.33853E+03
 -7.87648E+03 -1.10404E+04 -8.27442E+01 -1.61264E+04  1.03212E+04 -1.46931E+04  1.62557E+04 -4.84754E+03
  1.59078E+04  7.58213E+03  7.47815E+03  1.43687E+04 -3.28509E+03  1.61326E+04 -1.17590E+04  1.02566E+04
 -1.53138E+04  6.10788E+02 -1.18555E+04 -9.95837E+03 -1.27912E+03 -1.36651E+04  6.88144E+03 -1.01185E+04
  1.02052E+04 -3.51096E+03  6.65722E+03  2.55320E+03  2.73434E+03  4.98947E+03  1.48921E+03  2.39204E+03
  2.86067E+03  1.22172E+03  4.12046E+03  1.91469E+03  4.67242E+03  5.76267E+03  4.41761E+03  9.30040E+03
 -3.23956E+03  1.30474E+04 -1.16952E+04  1.25171E+04 -1.69322E+04  3.49008E+03 -1.70106E+04 -7.39905E+03
 -8.39431E+03 -1.65374E+04  2.27736E+03 -1.79430E+04  1.01339E+04 -1.16926E+04  1.37586E+04 -3.01440E+03
  1.08355E+04  5.83690E+03  2.78193E+03  9.58804E+03 -4.59777E+03  5.91313E+03 -7.17142E+03 -1.24084E+03
 -3.22169E+03 -6.54250E+03  3.26164E+03 -7.86449E+03  6.92494E+03 -3.30998E+03  6.80477E+03  1.58003E+03
  3.81007E+03  3.62276E+03  1.43639E+03  3.01920E+03 -6.68949E+02  2.36808E+03  1.74265E+03 -5.55505E+02
  2.77462E+03 -6.89116E+02  7.01739E+03  2.74339E+03  4.16319E+03  8.76131E+03 -1.39814E+03  1.13226E+04
 -8.05215E+03  8.07363E+03 -1.09356E+04  2.11087E+03 -1.00177E+04 -3.65187E+03 -4.06399E+03 -7.11060E+03
  1.20475E+03 -6.54067E+03  4.52456E+03 -2.85162E+03  4.09652E+03  2.93770E+03 -1.53982E+03  5.92184E+03
 -7.65380E+03  3.15424E+03 -8.23539E+03 -4.13470E+03 -4.88948E+03 -9.67600E+03  1.46013E+03 -9.57225E+03
  5.73665E+03 -5.90304E+03  7.06799E+03 -4.90806E+02  5.30802E+03  2.69768E+03  4.28356E+02  4.93876E+03
 -3.55769E+03  1.51637E+03 -4.47108E+03 -3.50070E+03  1.33325E+03 -7.54754E+03  8.24423E+03 -6.44099E+03
  1.10191E+04  4.54437E+02  1.03578E+04  7.73230E+03  3.29162E+03  1.16786E+04 -4.09573E+03  1.05635E+04
 -9.22180E+03  4.74488E+03 -9.81823E+03 -1.78061E+03 -5.10805E+03 -7.43960E+03  1.81753E+03 -7.18174E+03
  7.04654E+03 -3.50742E+03  6.26431E+03  3.43866E+03  2.10795E+03  6.09274E+03 -7.84607E+02  5.27588E+03
 -3.07330E+03  3.38705E+03 -2.61716E+03  1.28588E+03 -1.45627E+03  1.43537E+03 -1.64893E+03  2.12079E+03
 -2.78042E+03  4.18731E+03 -7.51647E+03  3.36832E+03 -1.16852E+04  5.34830E+02 -1.29137E+04 -8.37911E+03
 -6.95372E+03 -1.56744E+04  3.01500E+03 -1.74565E+04  1.11213E+04 -1.30852E+04  1.65222E+04 -5.42250E+03
  1.53905E+04  3.40811E+03  9.60760E+03  1.03454E+04  9.53040E+02  1.24029E+04 -5.10815E+03  8.68750E+03
 -7.28404E+03  3.29694E+03 -4.32367E+03 -1.17001E+03 -1.20318E+03 -1.32116E+03 -3.67317E+02  2.12339E+02
 -1.75912E+03  5.99329E+01 -2.41062E+03 -1.95117E+02 -9.11320E+02 -2.87649E+03  1.83317E+02 -4.73145E+03
  5.15797E+03 -3.78320E+03  7.33872E+03 -4.45983E+01  8.66400E+03  6.43884E+03  2.55454E+03  1.17891E+04
 -5.79237E+03  1.33854E+04 -1.27238E+04  7.74455E+03 -1.49301E+04 -1.23993E+03 -1.13791E+04 -9.27733E+03
 -4.84384E+03 -1.25996E+04  3.27017E+03 -1.14408E+04  8.36524E+03 -5.73642E+03  7.99588E+03  7.16419E+02
  4.31154E+03  4.24990E+03 -5.98166E+02  3.32189E+03 -2.49595E+03 -2.39423E+02 -6.86759E+01 -3.42545E+03
  3.78681E+03 -1.75268E+03  4.87168E+03  1.73025E+03  3.08927E+03  4.51631E+03 -1.72619E+02  6.47306E+03
 -5.52607E+03  5.69209E+03 -8.55100E+03  6.69407E+02 -7.37783E+03 -5.61321E+03 -1.19420E+03 -1.04222E+04
  5.80651E+03 -8.28350E+03  9.56148E+03 -2.64448E+03  9.55624E+03  2.58816E+03  5.24068E+03  7.34159E+03
  1.12452E+03  8.20391E+03 -3.22663E+03  6.54982E+03 -5.63204E+03  3.55824E+03 -4.09731E+03  9.04051E+02
 -1.81128E+03 -1.77908E+02 -2.07496E+03  1.16521E+03 -4.43887E+03  1.60048E+03 -6.50396E+03 -1.13549E+03
 -6.00306E+03 -4.77197E+03 -2.20111E+03 -8.24852E+03  3.52368E+03 -8.47301E+03  7.65812E+03 -4.44026E+03
  8.46274E+03  1.14703E+03  4.84404E+03  6.23138E+03 -6.48359E+02  8.38287E+03 -6.50263E+03  5.68123E+03
