 $NMID ID='MM_0lb_SNR800_8hz_g40_35.RAW', FMTDAT='(8E13.5)'
 TRAMP=1., VOLUME=1. $END
  3.09816E+05  2.42211E+02  3.38022E+05  2.50433E+05  8.47781E+04  3.38552E+05 -1.32785E+05  2.52135E+05
 -1.90817E+05  8.38014E+04 -1.12236E+05 -3.30162E+04  1.20594E+02 -5.04979E+04  5.34394E+04 -1.94531E+02
  3.56706E+04  5.28888E+04 -1.68605E+04  7.63066E+04 -6.13206E+04  6.43602E+04 -8.58129E+04  3.21107E+04
 -8.24763E+04 -1.18378E+04 -5.81183E+04 -5.26316E+04 -1.51989E+04 -7.10090E+04  2.82990E+04 -4.68800E+04
  4.09195E+04  3.55844E+03  1.65487E+04  4.85079E+04 -3.52579E+04  4.80233E+04 -6.79961E+04 -3.75576E+01
 -5.48351E+04 -5.80271E+04 -7.34329E+03 -7.89909E+04  3.47062E+04 -5.72820E+04  5.03333E+04 -1.81557E+04
  4.50800E+04  1.14529E+04  3.30667E+04  2.71095E+04  1.59250E+04  3.05006E+04 -6.20597E+03  2.75027E+04
 -2.23739E+04  1.17763E+04 -1.75158E+04 -5.64761E+03  7.18775E+03 -7.70994E+03  2.32434E+04  1.37315E+04
  7.40910E+03  3.73097E+04 -3.38263E+04  3.70329E+04 -6.58518E+04  1.91726E+03 -5.84923E+04 -4.49581E+04
 -1.27093E+04 -6.56672E+04  4.11374E+04 -4.74329E+04  6.12761E+04 -2.59687E+03  3.68881E+04  3.44547E+04
 -5.04506E+03  3.94237E+04 -3.15543E+04  1.87912E+04 -3.36468E+04 -3.57333E+03 -1.92320E+04 -1.19939E+04
 -9.50359E+03 -1.50920E+04 -7.81242E+01 -1.94666E+04  8.79061E+03 -2.35344E+04  1.61712E+04 -1.27733E+04
  1.02300E+04  6.01719E+03 -1.05897E+04  1.25598E+04 -2.29306E+04 -6.68042E+03 -9.10942E+03 -3.76803E+04
  2.57467E+04 -4.71964E+04  5.19925E+04 -2.15342E+04  4.86945E+04  2.07355E+04  1.74336E+04  4.74205E+04
 -1.70210E+04  3.58457E+04 -2.71696E+04  2.53883E+03 -1.16428E+04 -2.94774E+04  2.19379E+04 -3.68288E+04
  4.43305E+04 -1.08249E+04  4.05966E+04  2.47273E+04  2.15895E+04  5.13582E+04 -8.13213E+03  5.65659E+04
 -3.54935E+04  3.84793E+04 -4.75022E+04  1.08978E+04 -4.76325E+04 -1.88123E+04 -2.60673E+04 -4.23352E+04
  7.63309E+03 -4.23675E+04  3.46139E+04 -1.73502E+04  3.21931E+04  1.13038E+04  5.57611E+03  2.11937E+04
 -1.39655E+04  9.41292E+03 -1.12572E+04 -7.11802E+03  5.71641E+03 -1.15276E+04  1.85926E+04  5.39035E+03
  1.48790E+04  2.29303E+04 -5.47504E+03  2.72383E+04 -2.34062E+04  1.41928E+04 -3.16757E+04 -2.87102E+03
 -2.56677E+04 -1.84035E+04 -1.19803E+04 -2.53948E+04  4.27861E+03 -2.61496E+04  1.97641E+04 -2.28358E+04
  3.24944E+04 -1.47058E+04  3.79783E+04  5.03059E+03  2.70060E+04  2.44448E+04  4.22315E+03  4.14780E+04
 -2.01903E+04  3.42189E+04 -3.10419E+04  1.19102E+04 -2.25409E+04 -1.00626E+04 -4.95021E+03 -1.27285E+04
  9.91935E+02 -1.17832E+03 -7.77056E+03  8.75804E+03 -2.00792E+04  4.79881E+03 -2.09182E+04 -8.97039E+03
 -1.18197E+04 -2.35142E+04  6.12544E+03 -2.81788E+04  1.89204E+04 -1.97333E+04  2.31172E+04 -1.82345E+03
  1.47195E+04  1.65562E+04 -1.35507E+03  2.31841E+04 -1.66761E+04  1.35776E+04 -2.42921E+04 -4.98521E+03
 -1.74002E+04 -2.07060E+04 -2.23476E+03 -2.84557E+04  1.28176E+04 -2.35041E+04  2.31115E+04 -1.23172E+04
  2.20241E+04 -4.12903E+02  1.61452E+04  5.12058E+03  8.65990E+03  1.24317E+03  1.23677E+04 -2.24601E+03
  2.25072E+04  2.99228E+03  2.52611E+04  1.85364E+04  1.75019E+04  3.81468E+04 -2.43203E+03  4.48093E+04
 -2.57086E+04  3.75323E+04 -4.20851E+04  1.92783E+04 -4.52281E+04 -3.32095E+03 -3.67934E+04 -2.63812E+04
 -1.42182E+04 -3.79129E+04  1.34411E+04 -3.24691E+04  2.86040E+04 -1.56449E+04  2.40351E+04  8.11434E+03
  8.21692E+03  1.83685E+04 -1.21895E+04  1.57582E+04 -2.04424E+04  2.45137E+03 -1.52159E+04 -1.32155E+04
 -8.12600E+02 -1.95415E+04  1.07153E+04 -1.42167E+04  1.37459E+04 -1.39843E+03  3.31816E+03  8.79203E+03
 -8.90557E+03  4.04071E+03 -9.17737E+03 -6.85531E+03 -1.66836E+03 -1.84221E+04  1.20551E+04 -2.01515E+04
  2.31245E+04 -1.17121E+04  2.66084E+04  3.53306E+03  2.36817E+04  1.91577E+04  1.06707E+04  2.94412E+04
 -5.80091E+03  3.17540E+04 -2.10088E+04  1.97502E+04 -2.31207E+04  4.24764E+03 -1.56112E+04 -6.06983E+03
 -6.64474E+03 -7.43510E+03 -7.75778E+02  2.50273E+02 -2.68920E+03  3.66809E+03 -7.56401E+03  5.62987E+03
 -1.50505E+04 -9.91967E+02 -1.49012E+04 -1.22800E+04 -6.08280E+03 -2.00432E+04  6.56346E+03 -1.60762E+04
  1.33975E+04 -6.33678E+03  8.91541E+03  3.96373E+03 -2.06155E+02  6.51981E+03 -8.12265E+03 -6.47197E+01
 -7.67649E+03 -1.04292E+04 -1.45547E+03 -1.62049E+04  9.19737E+03 -1.67028E+04  2.04233E+04 -8.51950E+03
  2.44951E+04  2.61454E+03  1.79827E+04  1.44903E+04  3.05085E+03  1.94856E+04 -9.82655E+03  1.57933E+04
 -1.32423E+04  4.06199E+03 -6.75507E+03 -3.87311E+03  2.13395E+03 -4.67060E+03  8.21953E+03 -7.77928E+02
  7.54722E+03  7.04393E+03  1.50475E+03  1.26627E+04 -1.01095E+04  1.26321E+04 -1.56130E+04  3.21568E+03
 -1.13111E+04 -8.19540E+03  2.52198E+02 -1.37333E+04  9.49370E+03 -6.98567E+03  9.77779E+03  3.63909E+03
  2.46564E+03  1.07614E+04 -8.47044E+03  1.20257E+04 -1.40960E+04  5.12543E+03 -1.46897E+04 -5.42088E+03
 -8.09645E+03 -1.64004E+04  4.24361E+03 -1.90323E+04  1.57192E+04 -1.10441E+04  1.75897E+04  2.80802E+03
  1.02906E+04  1.34863E+04 -1.65168E+03  1.62600E+04 -1.24021E+04  9.30710E+03 -1.35687E+04 -1.21332E+03
 -1.08343E+04 -1.05725E+04 -1.86405E+03 -1.24530E+04  6.53747E+03 -9.46936E+03  8.05873E+03 -3.64509E+03
  5.48447E+03  2.19009E+03 -1.30812E+03  1.78451E+03 -9.39218E+02 -3.71099E+03  2.85846E+03 -8.12528E+03
  1.21440E+04 -4.80863E+03  1.68887E+04  1.96905E+03  1.63625E+04  1.16189E+04  1.06535E+04  2.21296E+04
 -4.98950E+03  2.48381E+04 -2.04932E+04  1.86733E+04 -2.64135E+04  3.86608E+03 -2.19379E+04 -9.57192E+03
 -1.05904E+04 -1.75332E+04 -5.61202E+02 -1.54973E+04  5.54549E+03 -8.42737E+03  5.69772E+03 -6.09854E+03
  4.19735E+03 -2.95645E+03  4.25069E+03 -4.07203E+03  5.89900E+03 -3.58337E+03  8.45636E+03 -1.47618E+03
  1.11832E+04  2.67279E+03  6.04470E+03  9.79648E+03 -1.87061E+03  1.18543E+04 -1.21478E+04  8.96630E+03
 -1.55074E+04 -1.64141E+03 -1.00387E+04 -1.06444E+04 -1.47906E+03 -1.70103E+04  9.22202E+03 -1.64346E+04
  1.73833E+04 -9.14724E+03  2.06101E+04  2.54966E+03  1.38599E+04  1.43614E+04  1.99986E+03  1.81604E+04
 -7.96244E+03  1.49941E+04 -1.06887E+04  4.92774E+03 -7.72303E+03 -1.98548E+03 -3.46996E+03 -2.54388E+03
 -1.86011E+03 -5.76573E+02 -2.33549E+03  3.04670E+03 -6.09901E+03  2.81510E+03 -1.10081E+04 -1.64692E+03
 -7.80891E+03 -1.07648E+04  3.79953E+02 -1.55657E+04  9.52398E+03 -1.41559E+04  1.59324E+04 -4.43574E+03
  1.56044E+04  7.51625E+03  7.25933E+03  1.42722E+04 -3.24931E+03  1.57688E+04 -1.15142E+04  9.79331E+03
 -1.44269E+04  4.98503E+02 -1.15164E+04 -9.89610E+03 -1.06147E+03 -1.31863E+04  6.61249E+03 -9.63111E+03
  9.97341E+03 -2.78751E+03  6.59139E+03  2.20146E+03  2.76892E+03  4.53128E+03  1.55104E+03  2.52022E+03
  3.03781E+03  1.44719E+03  3.46287E+03  1.72341E+03  4.57867E+03  5.70065E+03  3.60321E+03  8.62660E+03
 -3.29325E+03  1.23958E+04 -1.10574E+04  1.25247E+04 -1.65483E+04  3.23634E+03 -1.64141E+04 -6.99495E+03
 -7.79771E+03 -1.63184E+04  2.24509E+03 -1.80712E+04  9.41410E+03 -1.13024E+04  1.29994E+04 -3.39549E+03
  9.92534E+03  5.59463E+03  2.52754E+03  9.10600E+03 -4.43354E+03  5.97494E+03 -6.89410E+03 -1.39613E+03
 -2.70993E+03 -7.13992E+03  3.46675E+03 -6.98236E+03  6.96369E+03 -3.45216E+03  6.84370E+03  1.40806E+03
  4.07839E+03  3.21834E+03  1.55436E+03  2.45092E+03 -5.08407E+02  2.14910E+03  1.48524E+03 -5.77924E+02
  3.13895E+03 -6.20230E+02  6.70742E+03  2.72056E+03  4.42025E+03  8.58311E+03 -1.90065E+03  1.15992E+04
 -7.81698E+03  7.69593E+03 -1.06938E+04  1.93576E+03 -9.22122E+03 -3.64364E+03 -3.87466E+03 -6.52574E+03
  8.27872E+02 -6.59105E+03  4.57480E+03 -2.80702E+03  3.79102E+03  3.08869E+03 -1.67386E+03  5.62765E+03
 -6.65954E+03  3.01946E+03 -7.55788E+03 -3.77971E+03 -4.30223E+03 -8.91099E+03  1.22355E+03 -9.37032E+03
  5.69238E+03 -5.99959E+03  6.58532E+03 -9.23089E+02  5.30630E+03  2.41893E+03  1.06208E+03  4.86297E+03
 -3.41687E+03  1.54500E+03 -3.80024E+03 -3.46061E+03  1.29739E+03 -7.21006E+03  8.78067E+03 -5.54267E+03
  1.05720E+04  5.03410E+02  1.03578E+04  7.37586E+03  2.97665E+03  1.09743E+04 -3.90743E+03  1.04585E+04
 -9.10846E+03  4.77514E+03 -9.52798E+03 -1.23179E+03 -4.88681E+03 -7.21638E+03  1.66160E+03 -6.35247E+03
  6.61745E+03 -2.96186E+03  5.63890E+03  2.63219E+03  2.38930E+03  6.28440E+03 -1.16420E+03  5.44819E+03
 -2.59159E+03  3.86299E+03 -2.73627E+03  8.24469E+02 -1.18974E+03  1.09310E+03 -1.53906E+03  2.67131E+03
 -2.77615E+03  4.47680E+03 -7.28089E+03  4.08861E+03 -1.11830E+04 -1.82210E+02 -1.20743E+04 -7.37386E+03
 -6.88240E+03 -1.44148E+04  3.17957E+03 -1.68250E+04  1.07699E+04 -1.30363E+04  1.63331E+04 -5.06745E+03
  1.49256E+04  3.26055E+03  9.00973E+03  1.04329E+04  1.24455E+03  1.17461E+04 -4.77308E+03  8.86912E+03
 -6.16264E+03  3.48045E+03 -4.28816E+03 -1.25210E+03 -1.35984E+03 -1.15249E+03 -3.11737E+02 -2.11203E+02
 -1.97291E+03 -3.38863E-01 -2.47485E+03 -4.07825E+02 -5.13047E+02 -2.57612E+03  4.44974E+02 -3.92613E+03
  5.49496E+03 -3.88079E+03  6.99098E+03  1.49286E+02  8.08815E+03  6.19082E+03  2.25815E+03  1.14903E+04
 -5.46525E+03  1.34159E+04 -1.25192E+04  7.85162E+03 -1.45092E+04 -1.50384E+03 -1.07265E+04 -8.54002E+03
 -4.34581E+03 -1.18375E+04  3.14425E+03 -1.08528E+04  7.42625E+03 -5.96044E+03  7.76716E+03 -8.18654E+01
  4.24588E+03  3.67083E+03 -7.67663E+02  3.34829E+03 -2.68161E+03 -5.80303E+01 -1.39338E+02 -3.09142E+03
  3.42573E+03 -1.63785E+03  4.45210E+03  1.90300E+03  3.21706E+03  4.50088E+03  4.44228E+01  6.06256E+03
 -5.19585E+03  5.46789E+03 -8.09078E+03  1.04086E+03 -6.97093E+03 -5.63543E+03 -1.41908E+03 -1.01336E+04
  5.52701E+03 -8.37205E+03  9.58477E+03 -2.41167E+03  9.34593E+03  2.64643E+03  5.25218E+03  7.53311E+03
  9.06017E+02  7.51284E+03 -2.89883E+03  6.27259E+03 -5.04025E+03  3.42917E+03 -4.11437E+03  4.61490E+02
 -2.16462E+03 -4.16738E+01 -2.27134E+03  6.24885E+02 -4.21258E+03  1.75976E+03 -6.16983E+03 -1.37492E+03
 -5.81107E+03 -4.33910E+03 -1.69699E+03 -8.25549E+03  3.59473E+03 -8.46577E+03  7.17572E+03 -4.26161E+03
  7.43495E+03  1.02464E+03  4.69011E+03  6.03369E+03 -8.20892E+02  8.29878E+03 -5.95505E+03  4.85277E+03
