 $NMID ID='MM_0lb_SNR800_19hz_g40_96.RAW', FMTDAT='(8E13.5)'
 TRAMP=1., VOLUME=1. $END
  3.09626E+05  4.84108E+02  3.37272E+05  2.50127E+05  8.42848E+04  3.37093E+05 -1.32323E+05  2.49895E+05
 -1.89485E+05  8.24538E+04 -1.10674E+05 -3.29658E+04  1.67736E+03 -5.02787E+04  5.40343E+04  3.82071E+02
  3.51550E+04  5.29531E+04 -1.70562E+04  7.47771E+04 -5.99643E+04  6.24187E+04 -8.24169E+04  3.11775E+04
 -7.91968E+04 -1.05707E+04 -5.58799E+04 -4.98434E+04 -1.50204E+04 -6.78785E+04  2.68673E+04 -4.42588E+04
  3.84410E+04  3.93470E+03  1.53188E+04  4.70057E+04 -3.35288E+04  4.57086E+04 -6.48540E+04 -3.68996E+02
 -5.14260E+04 -5.58773E+04 -6.16942E+03 -7.45455E+04  3.26212E+04 -5.25582E+04  4.54717E+04 -1.60417E+04
  4.09127E+04  1.10862E+04  3.06472E+04  2.40293E+04  1.59031E+04  2.79722E+04 -4.26588E+03  2.62113E+04
 -2.16180E+04  1.27850E+04 -1.94023E+04 -4.07776E+03  3.77303E+03 -7.60747E+03  2.09384E+04  1.06427E+04
  7.59435E+03  3.26646E+04 -2.99953E+04  3.35314E+04 -6.01026E+04  2.08470E+03 -5.48108E+04 -4.06021E+04
 -1.24246E+04 -6.01055E+04  3.77709E+04 -4.29900E+04  5.45741E+04 -1.90052E+03  3.09800E+04  2.97944E+04
 -6.69725E+03  3.23016E+04 -2.80507E+04  1.24062E+04 -2.69073E+04 -5.80541E+03 -1.36046E+04 -9.53469E+03
 -7.13074E+03 -1.09475E+04 -1.16105E+03 -1.62672E+04  6.39661E+03 -2.23913E+04  1.48502E+04 -1.39421E+04
  1.23306E+04  3.73621E+03 -5.72170E+03  1.30519E+04 -1.83700E+04 -1.94303E+03 -8.02227E+03 -2.95380E+04
  1.99137E+04 -3.95652E+04  4.34712E+04 -1.84574E+04  4.12117E+04  1.78892E+04  1.37117E+04  4.08973E+04
 -1.53145E+04  3.02915E+04 -2.29025E+04  9.40349E+02 -7.77198E+03 -2.58403E+04  1.99372E+04 -3.03321E+04
  3.71370E+04 -6.69071E+03  3.03728E+04  2.24420E+04  1.45544E+04  4.14648E+04 -7.42351E+03  4.39123E+04
 -2.75274E+04  2.88047E+04 -3.61667E+04  8.07714E+03 -3.69749E+04 -1.43255E+04 -2.05625E+04 -3.35661E+04
  6.69329E+03 -3.29040E+04  2.86989E+04 -1.20037E+04  2.62698E+04  1.06145E+04  2.75359E+03  1.73585E+04
 -1.27912E+04  6.71573E+03 -9.42759E+03 -7.69010E+03  6.15039E+03 -1.01449E+04  1.72990E+04  6.60307E+03
  1.20223E+04  2.14579E+04 -6.90339E+03  2.28217E+04 -2.13116E+04  8.81291E+03 -2.43081E+04 -6.68786E+03
 -1.59070E+04 -1.59703E+04 -5.21119E+03 -1.55183E+04  3.70925E+03 -1.35626E+04  1.15943E+04 -1.33802E+04
  2.01869E+04 -1.14952E+04  2.68297E+04  7.32566E+02  2.05155E+04  1.56503E+04  3.96580E+03  3.14377E+04
 -1.58349E+04  2.70165E+04 -2.53924E+04  9.22219E+03 -1.93622E+04 -1.03805E+04 -3.87115E+03 -1.41122E+04
  2.71904E+03 -4.44644E+03 -2.11319E+03  4.98360E+03 -1.21022E+04  4.94605E+03 -1.26687E+04 -4.20873E+03
 -8.24403E+03 -1.46703E+04  4.09846E+03 -1.81602E+04  1.19213E+04 -1.36796E+04  1.37827E+04 -1.28794E+03
  8.39147E+03  1.05208E+04 -8.10409E+02  1.48338E+04 -9.54738E+03  8.55260E+03 -1.44570E+04 -3.53774E+03
 -1.08390E+04 -1.34963E+04 -1.59152E+03 -1.81055E+04  8.10019E+03 -1.45989E+04  1.54614E+04 -6.76573E+03
  1.40431E+04  6.91048E+02  9.89832E+03  3.84703E+03  4.48340E+03  6.32741E+02  7.16293E+03 -1.14474E+03
  1.28190E+04  2.54105E+03  1.38090E+04  1.21261E+04  8.17454E+03  2.33865E+04 -3.22413E+03  2.47613E+04
 -1.48238E+04  1.89855E+04 -2.27742E+04  8.76855E+03 -2.31985E+04 -1.57858E+03 -1.98754E+04 -1.30225E+04
 -9.53722E+03 -1.84433E+04  6.13250E+03 -1.75074E+04  1.56730E+04 -1.07421E+04  1.46034E+04  3.48267E+03
  6.48371E+03  1.02466E+04 -6.91051E+03  1.00949E+04 -1.23934E+04  2.68589E+03 -1.00199E+04 -7.64768E+03
 -2.46673E+02 -1.17169E+04  5.83647E+03 -9.39857E+03  7.38795E+03 -1.17070E+03  1.20469E+03  4.66432E+03
 -5.10794E+03  8.09417E+02 -3.36728E+03 -4.26178E+03  9.05034E+02 -9.39185E+03  7.49831E+03 -8.96507E+03
  1.13672E+04 -4.32129E+03  1.07316E+04  2.76914E+03  9.14654E+03  8.57681E+03  4.60010E+03  1.25378E+04
 -1.25668E+03  1.46705E+04 -8.80297E+03  9.16715E+03 -1.02519E+04  3.11047E+03 -7.76222E+03 -1.86745E+03
 -4.31087E+03 -2.96532E+03 -8.33795E+02  1.65473E+03 -1.83186E+03  1.87915E+03 -3.19515E+03  3.43301E+03
 -7.54644E+03 -2.91687E+02 -8.29443E+03 -6.93819E+03 -3.31064E+03 -1.09712E+04  3.15325E+03 -7.72814E+03
  6.79641E+03 -3.70449E+03  4.90432E+03  1.95691E+03  7.22196E+02  2.84724E+03 -3.24016E+03 -3.87288E+01
 -2.96691E+03 -4.79311E+03 -6.43336E+02 -6.56026E+03  3.29060E+03 -7.37653E+03  9.19771E+03 -3.32991E+03
  1.09300E+04  3.59659E+02  8.12134E+03  5.55852E+03  1.54475E+03  8.03903E+03 -4.80162E+03  7.99214E+03
 -6.51531E+03  2.71569E+03 -3.12760E+03 -1.27916E+03  1.12959E+03 -1.76750E+03  4.52572E+03 -9.49327E+02
  3.87676E+03  3.05142E+03  9.77239E+02  5.87024E+03 -3.94674E+03  6.21508E+03 -7.67746E+03  1.64491E+03
 -4.64673E+03 -3.22067E+03  1.40211E+02 -6.17608E+03  3.46383E+03 -3.07989E+03  3.28110E+03  8.94163E+02
  3.02055E+02  2.72746E+03 -3.90627E+03  4.45273E+03 -4.24041E+03  2.37845E+03 -3.82670E+03 -8.28819E+02
 -2.60731E+03 -5.24917E+03  8.21408E+02 -6.43615E+03  5.39572E+03 -3.99856E+03  5.65179E+03  5.10430E+02
  4.21667E+03  4.83920E+03  3.99159E+02  6.67624E+03 -4.81919E+03  4.03905E+03 -4.76259E+03 -3.32005E+02
 -5.34253E+03 -4.61232E+03 -1.09969E+03 -4.32092E+03  2.32487E+03 -4.42892E+03  2.52004E+03 -2.97824E+03
  2.77870E+03 -6.52722E+01  1.93685E+01  9.94282E+02  4.53314E+02  1.42847E+02 -1.87687E+00 -1.45839E+03
  3.45914E+03 -5.75076E+02  4.52732E+03  7.27412E+02  4.78660E+03  2.51632E+03  5.00634E+03  6.63259E+03
 -9.52105E+02  7.32914E+03 -6.69483E+03  5.85729E+03 -8.94315E+03  1.14361E+03 -7.35297E+03 -2.21138E+03
 -3.82082E+03 -5.77117E+03 -4.38300E+02 -4.70512E+03  1.75599E+03 -1.77127E+03  1.63179E+03 -2.10510E+03
  1.16443E+03 -1.34441E+03  2.27331E+03 -2.31825E+03  3.41679E+03 -1.02058E+03  3.49187E+03  4.24452E+02
  4.08536E+03  1.13232E+03  9.21041E+02  3.33631E+03 -1.51455E+03  2.47245E+03 -3.80637E+03  2.15655E+03
 -4.51255E+03 -1.13667E+03 -1.26280E+03 -3.05698E+03  6.66132E+02 -4.53141E+03  2.93614E+03 -4.86134E+03
  4.47384E+03 -3.44023E+03  6.20710E+03  1.51273E+01  4.57849E+03  3.83479E+03  1.27433E+03  5.35409E+03
 -1.76554E+03  5.59429E+03 -3.13642E+03  1.82954E+03 -1.71730E+03 -1.10535E+03 -4.03559E+02 -3.86636E+02
 -5.96732E+02  2.81227E+02 -9.94194E+02  1.83238E+03 -2.32599E+03  8.08680E+02 -3.79267E+03 -5.06698E+02
 -1.14701E+03 -3.92052E+03  8.36437E+02 -4.39240E+03  2.16169E+03 -4.10791E+03  2.85976E+03 -8.04798E+02
  3.54361E+03  2.20810E+03  1.76397E+03  3.06423E+03 -9.00597E+02  4.10920E+03 -2.64285E+03  2.48705E+03
 -3.10267E+03  7.75594E+02 -3.11449E+03 -1.86867E+03 -2.03615E+02 -2.83584E+03  1.50997E+03 -2.12423E+03
  2.25192E+03 -1.32917E+03  1.65569E+03  4.61581E+02  2.46931E+02  1.61229E+03  7.58008E+02  4.78151E+02
  1.33697E+03  5.76466E+02  1.37951E+03  1.06805E+03  9.91743E+02  2.09906E+03  1.46119E+03  1.56487E+03
 -1.05259E+03  2.61101E+03 -2.35245E+03  3.77804E+03 -2.45831E+03  1.14712E+03 -3.78182E+03 -3.68143E+02
 -1.43117E+03 -3.42423E+03  5.80301E+02 -4.31152E+03  1.64306E+03 -2.39994E+03  2.71485E+03 -8.89526E+02
  2.32348E+03  1.52298E+03  2.01191E+02  2.05495E+03 -7.74208E+02  1.32971E+03 -9.02018E+02 -6.65024E+01
 -4.97760E+02 -1.50443E+03  1.28080E+03 -1.29164E+03  1.16137E+03 -9.63815E+02  1.18327E+03  4.33730E+02
  7.36714E+02  1.55174E+01  7.21308E+02 -3.47827E+02 -3.27048E+02  5.69233E+02  1.54030E+03 -1.14583E+02
 -2.99065E+01 -2.97286E+02  1.58980E+03  4.26997E+02  1.47159E+02  2.29584E+03 -1.68128E+02  2.60023E+03
 -1.55665E+03  8.42008E+02 -1.82165E+03  2.89236E+02 -1.65989E+03 -7.12812E+02  2.70697E+01 -7.12670E+02
  2.13241E+02 -9.82715E+02  7.45505E+02 -4.90889E+02  4.77757E+02  1.30744E+03 -7.52023E+02  8.80189E+02
 -1.11457E+03  6.96082E+02 -1.05398E+03 -1.22194E+03 -8.20306E+02 -2.05368E+03  1.97988E+02 -1.00003E+03
  2.15941E+02 -2.44265E+02  7.65926E+02  2.44340E+02  1.30046E+03 -1.57294E+02  1.06768E+02  9.76945E+02
 -1.51225E+02 -2.13956E+01 -7.41378E+02 -4.13672E+02  7.63160E+02 -6.98499E+02  1.36961E+03 -8.23961E+02
  1.14622E+03  3.67771E+02  2.59685E+03  4.85860E+02  1.32548E+03  1.34884E+03 -1.85940E+02  1.41909E+03
 -1.44105E+03  8.77051E+01 -1.26778E+03 -3.95557E+02 -7.07700E+02 -1.37080E+03 -5.20241E+01 -4.07009E+02
  1.26307E+03 -5.98556E+02  7.28152E+02  6.87906E+02  1.87677E+01  1.15666E+03  4.14151E+02  8.62783E+02
 -3.61495E+02  9.98721E+02 -2.92745E+02  1.08162E+02  2.47729E+02  1.24080E+02 -7.66600E+02  3.81494E+02
 -5.75543E+02  8.89031E+02 -1.74345E+03  5.94378E+02 -1.60536E+03  7.53071E+01 -2.13953E+03 -9.09622E+02
 -8.38936E+02 -2.00426E+03  5.57444E+02 -2.66138E+03  9.52633E+02 -2.33563E+03  2.39692E+03 -1.12171E+03
  2.10289E+03 -4.09154E+02  1.35702E+03  1.55774E+03 -8.24745E+02  1.37418E+03 -7.30103E+02  1.26555E+03
 -8.30215E+02  5.62922E+02 -5.99669E+02 -9.19263E+01 -2.56558E+02 -4.01411E+00 -3.95672E+02 -3.00384E+01
 -1.11723E+03 -1.21341E+01 -1.15942E+03  1.23906E+01  6.68813E+01 -5.74038E+02 -4.21458E+02 -9.01290E+02
  1.34119E+03 -6.95801E+02  4.85323E+02  6.86273E+01  7.91635E+02  1.11018E+03 -4.65533E+02  1.36707E+03
 -8.81743E+02  2.17886E+03 -1.51019E+03  1.29475E+03 -1.52081E+03 -3.65663E+02 -8.93913E+02 -8.86712E+02
 -7.75946E+02 -1.11891E+03  2.40934E+02 -9.02138E+02  6.86529E+02 -5.06253E+02  6.00650E+02 -5.39056E+01
  4.10962E+02  1.29259E+02  1.36131E+02  3.96401E+02 -1.08615E+02  1.16509E+02 -1.65914E+02  8.12389E+01
  2.89032E+02  4.05533E+02  7.87005E+01  3.74051E+02  1.84932E+02  2.83857E+02  5.16286E+02  4.02942E+02
 -3.61626E+02  5.79002E+02 -7.20469E+02  5.78961E+01 -6.47326E+02 -2.77648E+02  7.19638E+01 -1.01566E+03
  4.70819E+02 -6.39711E+02  2.74881E+02 -1.05968E+02  8.14285E+02 -3.02603E+02  6.23712E+02  4.84172E+02
  4.81154E+02  3.87675E+02 -1.98510E+02  5.69801E+02 -4.81732E+02  4.86233E+02 -2.86211E+02  6.50651E+01
  8.93483E+01  1.03273E+01 -5.60151E+02 -1.54524E+02 -6.58842E+02  1.78311E+01 -8.74010E+02 -4.57787E+02
 -1.11926E+03  2.37244E+02 -2.71145E+02 -6.27980E+02  7.22926E+02 -1.52071E+03  6.71743E+02 -3.39610E+02
  9.83612E+02  9.57824E+00 -1.85157E+02  2.72474E+02 -1.40310E+02  8.01361E+02 -4.75449E+02  7.87513E+02
