 $NMID ID='MM_0lb_SNR800_16hz_g50_9.RAW', FMTDAT='(8E13.5)'
 TRAMP=1., VOLUME=1. $END
  3.09661E+05  5.63046E+02  3.37843E+05  2.50542E+05  8.47547E+04  3.37867E+05 -1.32484E+05  2.50695E+05
 -1.89987E+05  8.28579E+04 -1.11449E+05 -3.26909E+04  1.26830E+03 -5.06353E+04  5.40902E+04 -8.36777E+01
  3.54507E+04  5.27016E+04 -1.67319E+04  7.52985E+04 -6.06889E+04  6.32406E+04 -8.36679E+04  3.17406E+04
 -8.03481E+04 -1.12302E+04 -5.71413E+04 -5.08912E+04 -1.48991E+04 -6.90871E+04  2.70964E+04 -4.54280E+04
  3.95840E+04  3.75508E+03  1.60358E+04  4.75146E+04 -3.43250E+04  4.70389E+04 -6.65973E+04 -1.39262E+02
 -5.31324E+04 -5.64704E+04 -6.43064E+03 -7.62574E+04  3.35880E+04 -5.45233E+04  4.76089E+04 -1.69812E+04
  4.25123E+04  1.11973E+04  3.13987E+04  2.53076E+04  1.59367E+04  2.91334E+04 -5.24481E+03  2.71769E+04
 -2.19899E+04  1.23835E+04 -1.89247E+04 -4.48470E+03  5.20849E+03 -7.43323E+03  2.19847E+04  1.16592E+04
  7.10820E+03  3.42335E+04 -3.13745E+04  3.49113E+04 -6.23891E+04  2.05293E+03 -5.63829E+04 -4.21994E+04
 -1.22200E+04 -6.21698E+04  3.92506E+04 -4.47373E+04  5.72302E+04 -1.81987E+03  3.33959E+04  3.16630E+04
 -6.58668E+03  3.48137E+04 -2.93143E+04  1.51349E+04 -2.92554E+04 -4.61334E+03 -1.61049E+04 -1.07538E+04
 -8.03508E+03 -1.26151E+04 -8.94004E+02 -1.73763E+04  7.00485E+03 -2.30361E+04  1.51811E+04 -1.37187E+04
  1.19591E+04  4.76570E+03 -7.52834E+03  1.30836E+04 -2.07754E+04 -3.75967E+03 -8.18802E+03 -3.21869E+04
  2.18845E+04 -4.21978E+04  4.67256E+04 -1.92751E+04  4.41605E+04  1.88087E+04  1.52514E+04  4.36494E+04
 -1.55782E+04  3.25215E+04 -2.44297E+04  1.69277E+03 -9.57417E+03 -2.69926E+04  2.06340E+04 -3.32005E+04
  4.02152E+04 -8.11794E+03  3.41849E+04  2.33688E+04  1.71163E+04  4.48042E+04 -7.97461E+03  4.83414E+04
 -3.04045E+04  3.23914E+04 -4.03830E+04  8.90339E+03 -4.08821E+04 -1.59821E+04 -2.25923E+04 -3.66862E+04
  7.28848E+03 -3.65785E+04  3.06855E+04 -1.39279E+04  2.82863E+04  1.09077E+04  3.67050E+03  1.87437E+04
 -1.36175E+04  7.87973E+03 -9.74643E+03 -7.53135E+03  5.86453E+03 -1.04478E+04  1.78579E+04  6.06199E+03
  1.28670E+04  2.16811E+04 -6.41688E+03  2.42516E+04 -2.20453E+04  1.05682E+04 -2.69945E+04 -5.50475E+03
 -1.92616E+04 -1.68740E+04 -7.32632E+03 -1.90960E+04  4.07424E+03 -1.79093E+04  1.46582E+04 -1.67724E+04
  2.41666E+04 -1.21006E+04  3.07771E+04  1.86171E+03  2.25810E+04  1.87300E+04  4.09748E+03  3.50223E+04
 -1.73267E+04  2.91389E+04 -2.71625E+04  9.85081E+03 -2.02212E+04 -1.06957E+04 -4.42243E+03 -1.36394E+04
  1.86340E+03 -3.40306E+03 -4.05191E+03  6.19862E+03 -1.49771E+04  5.25253E+03 -1.54945E+04 -6.07157E+03
 -9.67196E+03 -1.74066E+04  4.81564E+03 -2.16622E+04  1.40486E+04 -1.54098E+04  1.65959E+04 -1.85598E+03
  1.03174E+04  1.21872E+04 -1.09256E+03  1.74949E+04 -1.19690E+04  1.00651E+04 -1.77287E+04 -3.89068E+03
 -1.31752E+04 -1.58992E+04 -1.68148E+03 -2.11582E+04  9.66715E+03 -1.73392E+04  1.79644E+04 -8.71122E+03
  1.64649E+04  5.79715E+02  1.17099E+04  4.09361E+03  6.10468E+03  8.52362E+02  8.86846E+03 -1.47609E+03
  1.57679E+04  2.56384E+03  1.73632E+04  1.40384E+04  1.11583E+04  2.78942E+04 -3.05497E+03  3.09693E+04
 -1.79027E+04  2.42619E+04 -2.86298E+04  1.18831E+04 -2.97131E+04 -2.21170E+03 -2.52942E+04 -1.73296E+04
 -1.12805E+04 -2.48877E+04  8.63345E+03 -2.21266E+04  1.92883E+04 -1.19152E+04  1.78937E+04  4.65729E+03
  6.83739E+03  1.29479E+04 -8.32493E+03  1.17794E+04 -1.49984E+04  2.73379E+03 -1.17214E+04 -9.05681E+03
 -1.85841E+02 -1.41006E+04  7.54718E+03 -1.04816E+04  9.09532E+03 -1.21857E+03  1.77958E+03  5.68738E+03
 -6.31109E+03  1.96818E+03 -5.03346E+03 -5.16763E+03  4.36224E+01 -1.22099E+04  8.80787E+03 -1.20698E+04
  1.50485E+04 -6.29815E+03  1.54096E+04  2.74956E+03  1.33739E+04  1.15997E+04  6.08793E+03  1.75415E+04
 -2.38515E+03  1.94835E+04 -1.22115E+04  1.20464E+04 -1.39036E+04  3.15306E+03 -1.00174E+04 -2.89229E+03
 -4.91828E+03 -4.31366E+03 -8.35094E+02  1.21351E+03 -2.01874E+03  2.36690E+03 -4.43798E+03  3.98430E+03
 -9.36926E+03 -7.69473E+02 -1.01328E+04 -8.11441E+03 -4.43805E+03 -1.33982E+04  4.21976E+03 -1.01368E+04
  8.80976E+03 -4.68835E+03  6.02233E+03  2.42251E+03  6.77964E+02  3.83677E+03 -4.42920E+03 -1.85122E+02
 -4.52393E+03 -6.30724E+03 -7.26084E+02 -9.08040E+03  5.27374E+03 -9.74386E+03  1.21730E+04 -4.97759E+03
  1.43626E+04  9.67798E+02  1.07048E+04  8.08346E+03  1.91896E+03  1.08973E+04 -6.29272E+03  1.02166E+04
 -8.22651E+03  3.29283E+03 -4.00773E+03 -1.94626E+03  1.43562E+03 -2.49845E+03  5.70642E+03 -9.71961E+02
  4.80772E+03  3.96244E+03  1.04169E+03  7.59880E+03 -5.17107E+03  7.66784E+03 -9.40721E+03  1.91455E+03
 -6.12813E+03 -4.25357E+03  2.19198E+02 -8.02195E+03  4.74939E+03 -3.95456E+03  4.63204E+03  1.21063E+03
  7.79161E+02  4.85875E+03 -4.81385E+03  6.35884E+03 -6.62875E+03  2.76700E+03 -6.11939E+03 -2.00558E+03
 -3.99861E+03 -8.04786E+03  1.65980E+03 -9.46871E+03  8.05498E+03 -6.05871E+03  8.56063E+03  1.31006E+03
  5.62588E+03  6.92066E+03 -6.08371E+02  9.04962E+03 -6.50686E+03  5.08252E+03 -6.94938E+03 -5.92233E+02
 -6.78278E+03 -6.40318E+03 -1.41833E+03 -6.42154E+03  3.40137E+03 -5.58369E+03  3.86272E+03 -3.07164E+03
  3.40806E+03  3.12655E+02 -1.97645E+01  1.43281E+03  2.89020E+02 -8.64968E+02  5.66263E+02 -2.76883E+03
  5.33574E+03 -1.56331E+03  7.53539E+03  7.76538E+02  7.32825E+03  4.80865E+03  6.41402E+03  9.81712E+03
 -1.79715E+03  1.12893E+04 -1.00028E+04  8.30790E+03 -1.30668E+04  1.68048E+03 -1.06234E+04 -3.83980E+03
 -5.36102E+03 -8.36026E+03 -4.39150E+02 -6.92646E+03  2.82075E+03 -3.19363E+03  2.48170E+03 -2.61624E+03
  1.77640E+03 -1.58872E+03  2.09050E+03 -2.61089E+03  4.20014E+03 -1.63093E+03  4.48324E+03 -5.37773E+01
  5.51747E+03  1.44951E+03  2.07813E+03  4.80915E+03 -1.80540E+03  4.50954E+03 -5.75080E+03  3.63302E+03
 -6.76778E+03 -8.40324E+02 -3.28228E+03 -4.63918E+03  1.23453E+02 -6.94232E+03  4.24552E+03 -7.44424E+03
  7.21935E+03 -4.21300E+03  9.07610E+03  9.27440E+02  6.50968E+03  5.87691E+03  1.12705E+03  8.27718E+03
 -3.11254E+03  7.62780E+03 -4.73697E+03  2.46145E+03 -2.84093E+03 -1.03366E+03 -8.30126E+02 -9.55905E+02
 -7.07287E+02  2.49099E+02 -1.16114E+03  2.22222E+03 -3.32048E+03  1.43721E+03 -4.95413E+03 -5.00426E+02
 -2.28238E+03 -5.04441E+03  6.88842E+02 -6.49936E+03  4.10416E+03 -5.96206E+03  5.55995E+03 -1.76793E+03
  5.94831E+03  3.11982E+03  2.89683E+03  5.03729E+03 -1.29932E+03  6.05554E+03 -4.08478E+03  4.05727E+03
 -5.39767E+03  6.18471E+02 -4.53850E+03 -3.34926E+03 -4.16028E+02 -4.69612E+03  2.51617E+03 -3.66626E+03
  3.83196E+03 -1.68243E+03  2.77505E+03  6.92362E+02  5.97087E+02  2.11853E+03  1.11415E+03  9.73221E+02
  1.93398E+03  5.61098E+02  1.42738E+03  1.17489E+03  1.47169E+03  2.60081E+03  1.85012E+03  2.77500E+03
 -1.79653E+03  4.36809E+03 -3.63337E+03  5.34769E+03 -4.98212E+03  1.82659E+03 -6.05672E+03 -1.69866E+03
 -2.66078E+03 -5.56644E+03  8.64904E+02 -6.61734E+03  3.38096E+03 -3.67766E+03  4.57072E+03 -1.24577E+03
  3.69269E+03  2.08872E+03  7.91111E+02  3.07649E+03 -1.18766E+03  1.96718E+03 -1.82866E+03 -1.01544E+02
 -8.25357E+02 -2.51241E+03  1.54437E+03 -2.52592E+03  1.88648E+03 -1.27026E+03  2.23000E+03  5.77673E+02
  1.15390E+03  7.36731E+02  1.04126E+03  6.94922E+01 -1.71281E+02  7.79313E+02  1.53488E+03 -3.24970E+01
  4.64008E+02 -3.95937E+02  2.51529E+03  1.07341E+03  6.96794E+02  3.46184E+03 -5.98678E+02  3.98125E+03
 -2.38971E+03  1.98061E+03 -3.24494E+03  9.71660E+02 -2.90575E+03 -1.17353E+03 -5.18238E+02 -2.04347E+03
  2.55121E+02 -1.80341E+03  1.44654E+03 -9.83009E+02  9.93223E+02  1.38698E+03 -8.67071E+02  1.49391E+03
 -2.32177E+03  1.18581E+03 -2.03206E+03 -1.71153E+03 -1.10171E+03 -2.98459E+03  4.65931E+02 -2.51827E+03
  1.26032E+03 -1.24151E+03  1.59083E+03  1.90287E+02  1.79556E+03  4.51294E+02  1.17160E+02  1.45333E+03
 -6.76873E+02  8.57872E+01 -1.43336E+03 -5.81627E+02  9.75102E+02 -1.46018E+03  2.60931E+03 -1.65271E+03
  2.50697E+03  8.67512E+01  3.59605E+03  1.58503E+03  1.44869E+03  2.70334E+03 -9.25492E+02  3.06660E+03
 -2.21834E+03  7.82299E+02 -2.74896E+03 -3.68485E+02 -1.51636E+03 -1.76635E+03  5.47606E+02 -1.49258E+03
  1.92382E+03 -9.90821E+02  1.26496E+03  6.64215E+02 -7.74795E+01  1.66174E+03  1.27587E+01  1.59302E+03
 -7.84326E+02  1.39135E+03 -6.87477E+02  5.26213E+02 -1.79981E+02  5.08361E+02 -7.55108E+02  9.61512E+02
 -7.77075E+02  1.34521E+03 -2.68928E+03  7.65283E+02 -2.95248E+03  5.59263E+01 -3.67142E+03 -1.80816E+03
 -1.67219E+03 -3.70261E+03  1.01557E+03 -4.67037E+03  2.16020E+03 -3.81996E+03  4.26549E+03 -1.41405E+03
  3.96186E+03  2.30082E+02  2.07026E+03  2.65970E+03 -5.93944E+02  2.67176E+03 -1.09357E+03  2.14542E+03
 -1.52640E+03  1.00259E+03 -1.11633E+03 -4.37109E+02 -7.07708E+02  2.16257E+02 -5.71975E+02  6.29305E+01
 -1.34510E+03 -1.33895E+02 -9.77402E+02 -2.64780E+01  4.54755E+02 -9.65866E+02 -3.13543E+02 -1.45778E+03
  1.77640E+03 -5.54500E+02  1.34825E+03  5.86194E+01  1.89824E+03  1.62104E+03 -5.80840E+01  2.23993E+03
 -1.57679E+03  3.40377E+03 -2.49258E+03  2.08972E+03 -2.84379E+03 -2.85437E+02 -2.18912E+03 -2.02513E+03
 -1.16595E+03 -2.34634E+03  6.67857E+02 -1.94808E+03  1.71365E+03 -1.31201E+03  1.33375E+03  5.92792E+02
  1.23544E+03  5.33763E+02 -2.62186E+01  7.39855E+02 -2.57299E+02 -1.80615E+02 -1.70056E+02 -2.77877E+02
  9.90863E+02 -1.50469E+02  5.82381E+02  6.84703E+02  5.85018E+02  8.69622E+02  1.58115E+02  7.84998E+02
 -1.04193E+03  1.09131E+03 -1.12447E+03  3.99373E+01 -1.33025E+03 -9.98270E+02  3.79287E+01 -2.06656E+03
  1.24240E+03 -1.39554E+03  1.21062E+03 -1.89327E+02  1.87321E+03 -2.45926E+02  7.48509E+02  1.09594E+03
  5.61460E+02  1.44208E+03 -2.92503E+02  1.17054E+03 -7.58012E+02  8.98586E+02 -1.03732E+03  2.76725E+01
 -2.86229E+02 -3.07014E+02 -7.33529E+02  2.72169E+02 -9.59258E+02  3.01833E+02 -1.22139E+03 -4.62068E+02
 -1.60872E+03 -6.34030E+01 -3.71173E+02 -1.68649E+03  1.07382E+03 -2.30723E+03  1.25852E+03 -6.16492E+02
  1.37043E+03  1.81270E+02  1.44342E+02  9.51914E+02  9.82039E+00  1.57230E+03 -8.72595E+02  1.02328E+03
