 $NMID ID='MM_0lb_SNR800_11hz_g45_82.RAW', FMTDAT='(8E13.5)'
 TRAMP=1., VOLUME=1. $END
  3.09642E+05  7.60766E+02  3.37652E+05  2.50407E+05  8.48732E+04  3.38881E+05 -1.32659E+05  2.51804E+05
 -1.90572E+05  8.33388E+04 -1.12208E+05 -3.26832E+04  5.17505E+02 -5.01924E+04  5.37203E+04 -4.87883E+02
  3.55990E+04  5.27095E+04 -1.67849E+04  7.60326E+04 -6.10516E+04  6.42228E+04 -8.49057E+04  3.23776E+04
 -8.17648E+04 -1.16499E+04 -5.76321E+04 -5.20151E+04 -1.48227E+04 -7.01391E+04  2.79677E+04 -4.62477E+04
  4.05670E+04  3.67825E+03  1.65450E+04  4.82074E+04 -3.43966E+04  4.77000E+04 -6.73399E+04 -9.71984E+00
 -5.43525E+04 -5.72629E+04 -6.99984E+03 -7.78424E+04  3.43468E+04 -5.59606E+04  4.88323E+04 -1.73862E+04
  4.44431E+04  1.12329E+04  3.23302E+04  2.59315E+04  1.60325E+04  2.98313E+04 -5.73980E+03  2.77398E+04
 -2.24895E+04  1.19097E+04 -1.83071E+04 -5.46695E+03  6.36572E+03 -7.67239E+03  2.28692E+04  1.28528E+04
  7.26466E+03  3.63323E+04 -3.30903E+04  3.62121E+04 -6.42875E+04  2.18302E+03 -5.78137E+04 -4.35583E+04
 -1.27667E+04 -6.44561E+04  4.05336E+04 -4.63365E+04  5.94019E+04 -2.61466E+03  3.51814E+04  3.34044E+04
 -5.63510E+03  3.74919E+04 -3.08163E+04  1.72255E+04 -3.18980E+04 -4.49729E+03 -1.80232E+04 -1.16824E+04
 -8.59393E+03 -1.41380E+04 -5.80498E+02 -1.87549E+04  7.96310E+03 -2.30490E+04  1.56020E+04 -1.31981E+04
  1.07587E+04  5.86312E+03 -9.73650E+03  1.28827E+04 -2.22287E+04 -5.35619E+03 -8.67045E+03 -3.55791E+04
  2.39617E+04 -4.51289E+04  4.99170E+04 -2.03455E+04  4.71434E+04  1.98493E+04  1.65295E+04  4.55987E+04
 -1.60748E+04  3.48538E+04 -2.65381E+04  2.57800E+03 -1.09229E+04 -2.89131E+04  2.09982E+04 -3.53644E+04
  4.29088E+04 -1.02261E+04  3.79571E+04  2.43349E+04  1.96786E+04  4.86018E+04 -7.93498E+03  5.26272E+04
 -3.33115E+04  3.58401E+04 -4.49893E+04  1.02456E+04 -4.50468E+04 -1.79346E+04 -2.48925E+04 -3.99674E+04
  7.22803E+03 -3.97438E+04  3.26635E+04 -1.57598E+04  3.06451E+04  1.10971E+04  4.75460E+03  1.99177E+04
 -1.34940E+04  8.80369E+03 -1.08302E+04 -7.34545E+03  5.97934E+03 -1.09345E+04  1.86362E+04  5.89336E+03
  1.41666E+04  2.27770E+04 -5.58968E+03  2.63618E+04 -2.24270E+04  1.33090E+04 -2.99162E+04 -4.06822E+03
 -2.23037E+04 -1.77666E+04 -9.82995E+03 -2.26288E+04  4.14607E+03 -2.21669E+04  1.78781E+04 -2.07176E+04
  2.90910E+04 -1.35653E+04  3.52683E+04  3.86851E+03  2.51802E+04  2.19273E+04  4.24289E+03  3.87622E+04
 -1.87445E+04  3.22582E+04 -2.92279E+04  1.08728E+04 -2.15162E+04 -1.02424E+04 -4.77206E+03 -1.30739E+04
  1.05091E+03 -2.23004E+03 -6.35919E+03  6.99892E+03 -1.78263E+04  5.53631E+03 -1.83353E+04 -8.24547E+03
 -1.11527E+04 -2.13065E+04  5.48085E+03 -2.52185E+04  1.69039E+04 -1.84829E+04  2.04878E+04 -1.79895E+03
  1.26561E+04  1.47657E+04 -1.34157E+03  2.11426E+04 -1.48678E+04  1.23147E+04 -2.11042E+04 -4.41756E+03
 -1.57979E+04 -1.86991E+04 -1.86449E+03 -2.55601E+04  1.13901E+04 -2.08543E+04  2.12107E+04 -1.06059E+04
  2.01081E+04 -1.28000E+02  1.44915E+04  4.95054E+03  8.04867E+03  1.15591E+03  1.05380E+04 -1.82807E+03
  2.00648E+04  2.59388E+03  2.24818E+04  1.66452E+04  1.46876E+04  3.40675E+04 -2.88464E+03  3.91330E+04
 -2.24096E+04  3.22058E+04 -3.71133E+04  1.63007E+04 -3.87346E+04 -3.08764E+03 -3.19626E+04 -2.24962E+04
 -1.33786E+04 -3.24671E+04  1.15138E+04 -2.84871E+04  2.47552E+04 -1.42228E+04  2.16600E+04  6.97269E+03
  7.65398E+03  1.63169E+04 -1.01753E+04  1.42011E+04 -1.77142E+04  2.51500E+03 -1.38065E+04 -1.16688E+04
 -9.37809E+01 -1.72266E+04  9.07090E+03 -1.28051E+04  1.17655E+04 -1.26778E+03  2.98441E+03  7.49028E+03
 -8.03362E+03  3.09489E+03 -7.71907E+03 -6.36188E+03 -1.13322E+03 -1.53108E+04  1.06765E+04 -1.69323E+04
  1.99044E+04 -8.75717E+03  2.17535E+04  2.79882E+03  1.91244E+04  1.57908E+04  8.98847E+03  2.46335E+04
 -4.38606E+03  2.67736E+04 -1.71367E+04  1.67675E+04 -1.92728E+04  3.46062E+03 -1.29196E+04 -4.56235E+03
 -5.85810E+03 -6.03137E+03 -2.86552E+02  5.41300E+02 -2.61482E+03  3.37723E+03 -6.03521E+03  4.62009E+03
 -1.25687E+04 -1.09308E+03 -1.29093E+04 -1.01369E+04 -5.50133E+03 -1.68378E+04  5.14264E+03 -1.31576E+04
  1.12815E+04 -5.77912E+03  7.88869E+03  3.79355E+03  2.68101E+01  5.41089E+03 -6.65741E+03  6.09610E+01
 -6.57871E+03 -8.59434E+03 -8.94039E+02 -1.31367E+04  7.48433E+03 -1.38752E+04  1.70103E+04 -7.27662E+03
  1.96777E+04  1.82750E+03  1.45235E+04  1.16097E+04  2.89206E+03  1.58125E+04 -8.11179E+03  1.35162E+04
 -1.09404E+04  3.87153E+03 -5.64491E+03 -2.59141E+03  2.00070E+03 -3.69148E+03  7.21540E+03 -9.67866E+02
  6.14432E+03  6.05646E+03  1.40154E+03  1.08806E+04 -7.75721E+03  1.04447E+04 -1.33285E+04  2.38474E+03
 -8.78853E+03 -6.21927E+03  1.55488E+02 -1.12766E+04  7.06026E+03 -5.81969E+03  7.83132E+03  2.53431E+03
  1.72481E+03  8.08667E+03 -7.37487E+03  9.30597E+03 -1.08616E+04  4.03135E+03 -1.11646E+04 -3.99834E+03
 -6.49364E+03 -1.27617E+04  3.37036E+03 -1.45575E+04  1.24633E+04 -9.06665E+03  1.32970E+04  2.23655E+03
  8.09280E+03  1.08150E+04 -1.25080E+03  1.33850E+04 -9.96677E+03  7.57617E+03 -1.07928E+04 -1.10056E+03
 -9.16468E+03 -8.77535E+03 -1.52175E+03 -9.77985E+03  5.59540E+03 -8.19339E+03  6.35584E+03 -3.42261E+03
  4.25504E+03  1.78824E+03 -7.18730E+02  1.57211E+03 -9.59040E+02 -2.53539E+03  1.78424E+03 -5.08507E+03
  9.42299E+03 -3.58475E+03  1.28547E+04  1.50069E+03  1.26517E+04  8.43292E+03  8.46293E+03  1.66310E+04
 -4.01624E+03  1.90766E+04 -1.59327E+04  1.45068E+04 -2.04401E+04  2.49742E+03 -1.70481E+04 -6.73971E+03
 -8.40244E+03 -1.34512E+04 -5.98304E+02 -1.14355E+04  4.08327E+03 -6.28178E+03  4.03262E+03 -4.13758E+03
  2.90634E+03 -2.58461E+03  3.59874E+03 -3.41257E+03  4.84864E+03 -3.17901E+03  6.93080E+03 -7.59967E+02
  8.40201E+03  1.84365E+03  4.24020E+03  7.62883E+03 -2.08590E+03  8.67393E+03 -9.19612E+03  6.70383E+03
 -1.12191E+04 -1.45833E+03 -7.23501E+03 -7.95300E+03 -8.73680E+02 -1.25565E+04  6.87744E+03 -1.24789E+04
  1.29326E+04 -6.80557E+03  1.56004E+04  1.77614E+03  1.07900E+04  1.04996E+04  2.03921E+03  1.38194E+04
 -5.51789E+03  1.15363E+04 -8.39091E+03  4.05547E+03 -5.62103E+03 -1.64942E+03 -1.95301E+03 -1.74302E+03
 -1.23594E+03  4.28057E+00 -1.82265E+03  2.58362E+03 -4.96912E+03  2.12893E+03 -8.14548E+03 -1.13997E+03
 -4.90604E+03 -8.27832E+03  5.94745E+01 -1.12734E+04  7.23368E+03 -1.04122E+04  1.10287E+04 -3.28754E+03
  1.11814E+04  5.79380E+03  5.27573E+03  9.45490E+03 -2.05930E+03  1.11670E+04 -7.85470E+03  7.07426E+03
 -1.07423E+04  9.59270E+02 -7.98317E+03 -6.84927E+03 -8.49799E+02 -9.69325E+03  4.94432E+03 -6.70310E+03
  7.17075E+03 -2.43687E+03  5.07596E+03  2.03882E+03  1.49992E+03  3.45372E+03  1.20166E+03  1.42910E+03
  2.26216E+03  8.69857E+02  2.65565E+03  1.58535E+03  3.45520E+03  4.10193E+03  3.30970E+03  5.81909E+03
 -2.70175E+03  8.98378E+03 -7.86272E+03  9.17379E+03 -1.09235E+04  2.34499E+03 -1.20907E+04 -4.23788E+03
 -5.43172E+03 -1.09061E+04  1.56254E+03 -1.23392E+04  6.73069E+03 -7.76866E+03  9.34971E+03 -2.22997E+03
  7.03450E+03  4.23278E+03  1.99029E+03  6.47375E+03 -3.30900E+03  3.93179E+03 -4.75912E+03 -6.92190E+02
 -2.11266E+03 -4.63919E+03  2.67457E+03 -4.88789E+03  4.27760E+03 -2.25687E+03  4.47073E+03  9.22819E+02
  2.64336E+03  2.12423E+03  8.51010E+02  1.85140E+03 -6.73103E+02  1.60895E+03  1.64621E+03 -4.45460E+02
  1.67768E+03 -8.03994E+02  5.09788E+03  1.67274E+03  2.52279E+03  5.92720E+03 -7.60085E+02  8.01199E+03
 -5.33259E+03  4.42642E+03 -6.61030E+03  1.28759E+03 -6.41087E+03 -2.76179E+03 -2.31586E+03 -4.48215E+03
  6.04341E+02 -4.18743E+03  2.82987E+03 -2.18178E+03  2.76742E+03  2.68006E+03 -9.79841E+02  3.53127E+03
 -4.53004E+03  2.34551E+03 -5.11949E+03 -2.71498E+03 -2.79492E+03 -6.31704E+03  6.67859E+02 -5.71306E+03
  3.29226E+03 -3.08734E+03  4.25673E+03 -2.79023E+02  3.64834E+03  1.41001E+03  8.86216E+02  3.23979E+03
 -2.14506E+03  8.17043E+02 -2.63502E+03 -2.05980E+03  1.34423E+03 -4.37996E+03  5.31234E+03 -3.62212E+03
  6.36678E+03  4.68580E+02  7.10789E+03  4.70036E+03  2.37641E+03  7.14597E+03 -2.29703E+03  6.97024E+03
 -5.65903E+03  2.74154E+03 -5.95875E+03 -7.83291E+02 -3.44018E+03 -4.66527E+03  1.25927E+03 -4.10684E+03
  4.44445E+03 -2.05482E+03  3.69113E+03  1.86784E+03  9.14456E+02  4.22106E+03 -3.18616E+02  3.62744E+03
 -1.81652E+03  2.81412E+03 -1.49210E+03  7.37522E+02 -9.41005E+02  6.35231E+02 -7.48786E+02  1.63400E+03
 -1.70077E+03  2.76109E+03 -5.00722E+03  2.49729E+03 -6.79789E+03  5.54220E+02 -7.93771E+03 -4.42724E+03
 -4.24517E+03 -9.07202E+03  1.73369E+03 -1.08767E+04  6.31860E+03 -8.71183E+03  1.00084E+04 -3.14537E+03
  9.37842E+03  1.99878E+03  5.78919E+03  6.30973E+03  5.62114E+02  7.23207E+03 -2.31531E+03  5.33516E+03
 -3.82039E+03  1.92216E+03 -2.33954E+03 -9.06059E+02 -7.92847E+02 -6.58372E+02 -7.06759E+02  3.20792E+02
 -1.94890E+03  1.56321E+02 -1.92556E+03 -4.61084E+02 -6.00251E+02 -1.76214E+03  7.91200E+00 -2.88096E+03
  3.18005E+03 -2.36517E+03  3.86686E+03 -1.89940E+02  4.90891E+03  4.09595E+03  1.01154E+03  6.92065E+03
 -3.40728E+03  8.42478E+03 -7.74543E+03  4.71029E+03 -8.13407E+03 -3.39257E+02 -5.97571E+03 -5.32439E+03
 -2.40715E+03 -7.18188E+03  1.77331E+03 -6.76460E+03  4.50215E+03 -3.37908E+03  4.36560E+03  2.49651E+02
  2.67831E+03  2.05447E+03 -2.32864E+02  1.79453E+03 -1.53507E+03 -3.48479E+02 -5.37072E+01 -1.44260E+03
  2.04997E+03 -6.36716E+02  2.59881E+03  1.00685E+03  1.83591E+03  2.90281E+03  2.64530E+02  3.59345E+03
 -2.96558E+03  3.33327E+03 -4.42414E+03  2.69969E+02 -4.24197E+03 -3.32839E+03 -6.58266E+02 -6.04768E+03
  3.50377E+03 -4.86319E+03  5.06945E+03 -1.29761E+03  4.88409E+03  1.00634E+03  3.42816E+03  4.07653E+03
  1.08730E+03  4.59299E+03 -1.81774E+03  3.63048E+03 -2.74057E+03  2.19836E+03 -2.54350E+03  3.01456E+02
 -1.00647E+03  7.18920E+01 -1.37126E+03  5.84894E+02 -2.69025E+03  8.76108E+02 -3.52374E+03 -6.94490E+02
 -3.29120E+03 -2.16833E+03 -1.34984E+03 -4.52409E+03  2.09180E+03 -5.09446E+03  4.07762E+03 -2.30193E+03
  4.33701E+03  5.77036E+02  2.36149E+03  3.09994E+03 -8.31308E+01  4.37065E+03 -3.44362E+03  2.72625E+03
