 $NMID ID='MM_0lb_SNR800_18hz_g55_68.RAW', FMTDAT='(8E13.5)'
 TRAMP=1., VOLUME=1. $END
  3.09552E+05  3.57053E+02  3.37645E+05  2.50565E+05  8.44760E+04  3.37766E+05 -1.32424E+05  2.50474E+05
 -1.89909E+05  8.27880E+04 -1.11468E+05 -3.24352E+04  8.99498E+02 -5.05895E+04  5.37423E+04  9.54055E+01
  3.54393E+04  5.31406E+04 -1.68205E+04  7.52999E+04 -6.07061E+04  6.33187E+04 -8.34884E+04  3.17404E+04
 -8.00749E+04 -1.13130E+04 -5.68292E+04 -5.06675E+04 -1.50139E+04 -6.88520E+04  2.71260E+04 -4.53746E+04
  3.95143E+04  4.09772E+03  1.56002E+04  4.75651E+04 -3.40414E+04  4.67195E+04 -6.61493E+04 -7.90038E+02
 -5.24291E+04 -5.62458E+04 -6.60042E+03 -7.59348E+04  3.35380E+04 -5.38887E+04  4.70569E+04 -1.67395E+04
  4.24210E+04  1.12798E+04  3.10232E+04  2.49514E+04  1.58759E+04  2.89046E+04 -4.96397E+03  2.66715E+04
 -2.20413E+04  1.27228E+04 -1.89931E+04 -4.58195E+03  5.02132E+03 -7.67864E+03  2.16607E+04  1.17593E+04
  7.46792E+03  3.44024E+04 -3.11669E+04  3.45442E+04 -6.22372E+04  1.90810E+03 -5.60779E+04 -4.18029E+04
 -1.24956E+04 -6.19279E+04  3.86895E+04 -4.42038E+04  5.66760E+04 -1.95910E+03  3.30399E+04  3.12794E+04
 -6.53633E+03  3.43352E+04 -2.89489E+04  1.45195E+04 -2.89802E+04 -4.95165E+03 -1.54805E+04 -1.01699E+04
 -7.97185E+03 -1.24261E+04 -1.07797E+03 -1.71322E+04  7.05185E+03 -2.27858E+04  1.50984E+04 -1.39842E+04
  1.16799E+04  4.62072E+03 -7.01521E+03  1.30675E+04 -1.98514E+04 -3.32723E+03 -8.05937E+03 -3.15294E+04
  2.16695E+04 -4.15988E+04  4.59719E+04 -1.92704E+04  4.32172E+04  1.87244E+04  1.48703E+04  4.24765E+04
 -1.54484E+04  3.22562E+04 -2.44067E+04  1.62766E+03 -8.72476E+03 -2.67302E+04  2.05782E+04 -3.26197E+04
  3.92005E+04 -7.83333E+03  3.31312E+04  2.28817E+04  1.65345E+04  4.42073E+04 -7.94000E+03  4.72231E+04
 -2.95339E+04  3.14596E+04 -3.92510E+04  9.14448E+03 -3.99643E+04 -1.57896E+04 -2.21343E+04 -3.59925E+04
  7.02676E+03 -3.58519E+04  3.01139E+04 -1.35381E+04  2.79333E+04  1.06367E+04  3.41558E+03  1.83169E+04
 -1.33188E+04  7.98897E+03 -1.00393E+04 -7.59554E+03  5.92207E+03 -1.03988E+04  1.76876E+04  6.32925E+03
  1.27020E+04  2.16427E+04 -6.39345E+03  2.42845E+04 -2.17913E+04  1.01372E+04 -2.62572E+04 -5.62278E+03
 -1.80662E+04 -1.68188E+04 -6.49718E+03 -1.82558E+04  3.69941E+03 -1.64522E+04  1.37365E+04 -1.57155E+04
  2.31017E+04 -1.20851E+04  2.97369E+04  1.75678E+03  2.20721E+04  1.77322E+04  4.06831E+03  3.38640E+04
 -1.65127E+04  2.85460E+04 -2.68199E+04  9.66156E+03 -1.98781E+04 -1.03814E+04 -4.28802E+03 -1.37620E+04
  2.63635E+03 -3.91382E+03 -3.43283E+03  5.94760E+03 -1.40189E+04  5.14263E+03 -1.44399E+04 -5.25967E+03
 -8.77783E+03 -1.64312E+04  4.80418E+03 -2.06822E+04  1.33897E+04 -1.48936E+04  1.56414E+04 -1.45495E+03
  9.57968E+03  1.16166E+04 -6.32734E+02  1.67706E+04 -1.13033E+04  9.57662E+03 -1.65057E+04 -3.82869E+03
 -1.23492E+04 -1.49271E+04 -1.47483E+03 -2.01991E+04  9.44570E+03 -1.65654E+04  1.69688E+04 -8.15121E+03
  1.58260E+04  5.53063E+02  1.11641E+04  4.20278E+03  5.75606E+03  6.15625E+02  8.15988E+03 -1.40789E+03
  1.49114E+04  2.91281E+03  1.62545E+04  1.33643E+04  1.04494E+04  2.63750E+04 -3.05156E+03  2.89593E+04
 -1.67435E+04  2.25214E+04 -2.67038E+04  1.08426E+04 -2.75613E+04 -2.08735E+03 -2.31426E+04 -1.57864E+04
 -1.06936E+04 -2.24933E+04  7.40697E+03 -2.06889E+04  1.79535E+04 -1.14365E+04  1.65898E+04  3.99129E+03
  6.61547E+03  1.18994E+04 -7.53324E+03  1.11381E+04 -1.41961E+04  2.64413E+03 -1.07537E+04 -8.74955E+03
  7.53975E+01 -1.31345E+04  6.33035E+03 -1.01500E+04  8.47856E+03 -1.43052E+03  1.35906E+03  5.52939E+03
 -5.96733E+03  1.52933E+03 -4.77373E+03 -4.65225E+03  3.30755E+02 -1.10829E+04  8.56993E+03 -1.09790E+04
  1.34628E+04 -5.13284E+03  1.36083E+04  2.56892E+03  1.18723E+04  1.05013E+04  5.46454E+03  1.55549E+04
 -2.04717E+03  1.74428E+04 -1.06422E+04  1.11680E+04 -1.24199E+04  2.82940E+03 -8.96244E+03 -2.01680E+03
 -4.92796E+03 -3.83059E+03 -5.21932E+02  1.04690E+03 -2.31090E+03  2.30909E+03 -4.08715E+03  3.95127E+03
 -8.65524E+03 -2.49167E+02 -9.36871E+03 -7.61141E+03 -3.88045E+03 -1.22514E+04  3.80514E+03 -9.14799E+03
  7.80719E+03 -3.83090E+03  5.26369E+03  2.32742E+03  4.25543E+02  3.48340E+03 -4.06981E+03 -2.05996E+02
 -3.82873E+03 -5.78737E+03 -8.78110E+02 -7.77888E+03  4.31526E+03 -8.53480E+03  1.08657E+04 -4.48780E+03
  1.25544E+04  8.21396E+02  9.35757E+03  6.75064E+03  2.00778E+03  9.37529E+03 -5.91475E+03  8.92021E+03
 -7.38528E+03  2.73513E+03 -3.68980E+03 -1.29893E+03  1.33635E+03 -2.15167E+03  4.99668E+03 -9.85354E+02
  4.44234E+03  3.66037E+03  8.37367E+02  6.76099E+03 -5.03578E+03  6.90951E+03 -8.53565E+03  1.78665E+03
 -5.47026E+03 -4.08874E+03  6.30038E+02 -7.29049E+03  3.95650E+03 -3.49308E+03  3.89187E+03  9.78544E+02
  5.94662E+02  3.59489E+03 -4.38981E+03  5.09183E+03 -5.50168E+03  2.45099E+03 -4.99461E+03 -1.66367E+03
 -3.48166E+03 -6.60037E+03  1.25653E+03 -7.86003E+03  6.47407E+03 -4.97762E+03  7.19184E+03  1.01953E+03
  5.16637E+03  6.14440E+03 -3.69261E+01  7.99859E+03 -5.41620E+03  4.51198E+03 -5.77627E+03 -4.41768E+02
 -5.75065E+03 -5.71378E+03 -1.44252E+03 -5.62254E+03  2.49398E+03 -4.90531E+03  3.22694E+03 -2.81501E+03
  2.82881E+03  4.39086E+02  2.05137E+02  1.43999E+03  6.12207E+02 -5.47371E+02  1.65128E+02 -2.17303E+03
  4.54729E+03 -1.15775E+03  5.95284E+03  5.82621E+02  6.58435E+03  3.65232E+03  5.73048E+03  8.10503E+03
 -1.09182E+03  9.41834E+03 -8.42531E+03  7.15530E+03 -1.07997E+04  1.29687E+03 -8.25627E+03 -3.00181E+03
 -4.53334E+03 -6.95345E+03 -5.79890E+02 -5.70331E+03  2.21727E+03 -2.32512E+03  1.87306E+03 -2.33884E+03
  1.44590E+03 -1.47100E+03  2.32468E+03 -2.60026E+03  3.93965E+03 -1.41910E+03  3.90199E+03  3.76411E+02
  4.83963E+03  1.32222E+03  1.39058E+03  3.66970E+03 -1.49798E+03  3.31873E+03 -4.93618E+03  3.06464E+03
 -5.47695E+03 -1.13146E+03 -2.37175E+03 -3.52280E+03  3.03838E+02 -5.82167E+03  3.32239E+03 -5.97497E+03
  5.57430E+03 -3.62840E+03  7.43759E+03  8.57349E+01  5.09087E+03  4.84029E+03  9.46863E+02  6.69903E+03
 -2.44198E+03  6.45944E+03 -3.69179E+03  2.17544E+03 -2.15068E+03 -9.68363E+02 -7.02939E+02 -8.40297E+02
 -5.45019E+02  9.72012E+01 -9.43960E+02  2.19886E+03 -2.74058E+03  1.29081E+03 -4.28042E+03 -3.93823E+02
 -1.63764E+03 -4.50456E+03  8.93589E+02 -5.33227E+03  3.31951E+03 -5.15401E+03  4.33237E+03 -1.21833E+03
  4.56403E+03  2.65206E+03  2.08807E+03  3.38206E+03 -1.16032E+03  4.85586E+03 -2.78775E+03  2.80926E+03
 -4.13534E+03  6.49707E+02 -3.55938E+03 -2.62971E+03 -4.07072E+02 -3.80096E+03  1.73097E+03 -2.87950E+03
  2.70921E+03 -1.54568E+03  2.07596E+03  6.35213E+02  4.22340E+02  1.65468E+03  7.91907E+02  3.42302E+02
  1.82270E+03  6.57688E+02  1.41236E+03  1.04229E+03  1.11137E+03  2.16133E+03  1.74234E+03  1.95526E+03
 -1.35516E+03  3.24773E+03 -2.69957E+03  4.23858E+03 -3.42162E+03  1.60009E+03 -4.51528E+03 -5.86701E+02
 -1.90187E+03 -4.47970E+03  8.66244E+02 -5.19118E+03  1.98121E+03 -2.78054E+03  3.34656E+03 -7.21775E+02
  2.67598E+03  1.72384E+03  4.94595E+02  2.44929E+03 -7.22954E+02  1.54372E+03 -1.07668E+03 -7.94209E+01
 -5.31606E+02 -1.76190E+03  1.24590E+03 -1.59339E+03  1.75286E+03 -8.82053E+02  1.63797E+03  4.51449E+02
  9.61624E+02  3.72180E+02  8.70463E+02 -1.36511E+02 -8.70573E+01  7.31542E+02  1.28656E+03 -3.32389E+02
 -4.49155E+01  1.12431E+02  2.07799E+03  6.00030E+02  4.78851E+02  2.39463E+03 -3.83974E+02  3.18142E+03
 -1.71609E+03  6.40059E+02 -2.04979E+03  6.28591E+02 -2.48036E+03 -9.14016E+02  4.01811E+00 -1.09663E+03
  2.78456E+02 -1.56985E+03  8.26321E+02 -7.89163E+02  6.46223E+02  1.18508E+03 -8.13785E+02  1.31817E+03
 -1.50784E+03  5.81080E+02 -1.17557E+03 -1.14370E+03 -7.32574E+02 -2.24069E+03  3.68891E+01 -1.69160E+03
  3.84963E+02 -8.04116E+02  7.43842E+02  3.13280E+02  1.39125E+03  1.98063E+01  2.17627E+02  1.20300E+03
 -5.65447E+02 -3.95531E+01 -8.36396E+02 -1.93766E+02  6.49630E+02 -1.03891E+03  1.77764E+03 -7.60479E+02
  1.52784E+03 -1.07257E+02  2.67469E+03  7.74666E+02  1.52826E+03  1.97064E+03 -5.03641E+02  1.94171E+03
 -1.78420E+03  2.43716E+02 -1.34720E+03 -2.02633E+02 -7.88182E+02 -1.46781E+03  3.29417E+02 -7.28964E+02
  1.73154E+03 -8.54264E+02  8.77680E+02  4.73292E+02  4.73661E+02  1.23030E+03  5.74909E+01  1.12868E+03
 -2.63465E+02  1.03643E+03 -6.18787E+02  1.49890E+02  1.00181E+02  2.75445E+02 -5.97903E+02  7.06781E+02
 -4.44390E+02  1.29479E+03 -2.12634E+03  7.47396E+02 -1.93296E+03  1.40066E+02 -2.87185E+03 -1.52919E+03
 -1.21132E+03 -2.52211E+03  3.81633E+02 -2.89706E+03  1.23237E+03 -2.31677E+03  3.03683E+03 -8.86827E+02
  2.43233E+03 -5.68683E+01  1.23629E+03  1.66577E+03 -2.99833E+02  1.55216E+03 -8.05286E+02  1.36129E+03
 -1.22734E+03  7.23084E+02 -3.72012E+02 -2.77992E+02 -4.95929E+02  1.51976E+02 -4.06523E+02  1.15115E+02
 -1.22984E+03  1.46542E+02 -8.16755E+02  2.10589E+01  2.30900E+02 -7.68927E+02 -5.28326E+02 -8.00184E+02
  1.27241E+03 -4.68213E+02  3.83869E+02  6.51347E+01  1.07777E+03  1.14758E+03  4.54013E+01  1.92139E+03
 -1.28094E+03  2.28491E+03 -1.77749E+03  1.11407E+03 -1.96877E+03 -1.92968E+02 -1.25931E+03 -1.21566E+03
 -8.48548E+02 -1.30577E+03  2.38474E+02 -1.28643E+03  6.31860E+02 -8.44017E+02  6.27564E+02  1.48430E+02
  8.23872E+02  1.97211E+02  1.54682E+02  4.57883E+02 -2.94537E+02 -3.28442E+01  8.86900E+01 -3.90750E+02
  5.22307E+02 -1.91210E+02  3.47856E+02  4.26971E+02  2.09654E+02  3.18528E+02  5.73324E+02  2.86614E+02
 -6.20791E+02  8.04432E+02 -8.45522E+02  1.69196E+02 -9.48559E+02 -6.60562E+02  6.21521E+01 -1.10467E+03
  6.10870E+02 -5.79896E+02  2.71804E+02 -1.33697E+02  9.82435E+02 -5.49748E+02  2.68492E+02  7.14967E+02
  3.50967E+02  6.57323E+02 -1.01052E+01  6.04061E+02 -6.92544E+02  7.65160E+02 -5.56599E+02  1.31335E+02
 -2.48546E+02 -8.38194E+00 -5.77454E+02  2.25555E+01 -6.79101E+02  4.11339E+02 -6.81567E+02 -1.30709E+02
 -1.24222E+03  1.71558E+02 -6.48177E+02 -1.06284E+03  7.63193E+02 -1.59773E+03  8.87952E+02 -2.81851E+02
  8.43443E+02  1.45370E+01 -2.33165E+01  4.95211E+02  3.72768E+00  7.62680E+02 -2.58781E+02  7.36798E+02
