 $NMID ID='MM_0lb_SNR800_10hz_g55_26.RAW', FMTDAT='(8E13.5)'
 TRAMP=1., VOLUME=1. $END
  3.09513E+05  2.39286E+02  3.38052E+05  2.50838E+05  8.50113E+04  3.38566E+05 -1.32572E+05  2.52037E+05
 -1.90630E+05  8.35465E+04 -1.13091E+05 -3.27518E+04  3.88489E+02 -5.09206E+04  5.39922E+04 -9.62013E+01
  3.55737E+04  5.25708E+04 -1.65963E+04  7.60290E+04 -6.10270E+04  6.45275E+04 -8.53428E+04  3.25253E+04
 -8.22195E+04 -1.17937E+04 -5.83041E+04 -5.22188E+04 -1.53878E+04 -7.09232E+04  2.86634E+04 -4.66399E+04
  4.09963E+04  3.86165E+03  1.67789E+04  4.81619E+04 -3.44765E+04  4.83540E+04 -6.79256E+04 -2.93836E+02
 -5.45668E+04 -5.75294E+04 -7.23174E+03 -7.91976E+04  3.44754E+04 -5.71200E+04  4.96046E+04 -1.84840E+04
  4.49959E+04  1.18896E+04  3.26141E+04  2.63097E+04  1.58689E+04  3.05548E+04 -5.40595E+03  2.77947E+04
 -2.29129E+04  1.18624E+04 -1.83460E+04 -5.75667E+03  6.66215E+03 -7.44815E+03  2.36810E+04  1.39816E+04
  7.00191E+03  3.72256E+04 -3.40608E+04  3.68796E+04 -6.57897E+04  2.47144E+03 -5.84448E+04 -4.47254E+04
 -1.28296E+04 -6.56875E+04  4.14553E+04 -4.73978E+04  6.10199E+04 -2.58537E+03  3.66344E+04  3.43969E+04
 -5.41224E+03  3.92555E+04 -3.20672E+04  1.87974E+04 -3.27523E+04 -3.69775E+03 -1.88068E+04 -1.17419E+04
 -9.50179E+03 -1.49330E+04 -4.53135E+02 -1.95906E+04  8.11144E+03 -2.35125E+04  1.62949E+04 -1.26881E+04
  1.05816E+04  5.86728E+03 -1.05152E+04  1.28103E+04 -2.32580E+04 -6.51588E+03 -8.47391E+03 -3.73445E+04
  2.47358E+04 -4.70531E+04  5.13511E+04 -2.06355E+04  4.83095E+04  2.06895E+04  1.73153E+04  4.69009E+04
 -1.67985E+04  3.58809E+04 -2.74055E+04  2.49427E+03 -1.16166E+04 -2.91662E+04  2.12301E+04 -3.65845E+04
  4.44590E+04 -1.07033E+04  3.97858E+04  2.47332E+04  2.09183E+04  5.06604E+04 -8.31486E+03  5.58774E+04
 -3.48584E+04  3.81733E+04 -4.68398E+04  1.11150E+04 -4.72069E+04 -1.84664E+04 -2.61363E+04 -4.16158E+04
  7.68996E+03 -4.13197E+04  3.41308E+04 -1.70434E+04  3.18052E+04  1.14911E+04  4.72107E+03  2.10850E+04
 -1.39124E+04  9.44656E+03 -1.12346E+04 -7.55691E+03  5.58735E+03 -1.08815E+04  1.91576E+04  5.37235E+03
  1.49700E+04  2.24008E+04 -5.30220E+03  2.70684E+04 -2.32438E+04  1.42832E+04 -3.10457E+04 -3.14544E+03
 -2.47230E+04 -1.82092E+04 -1.13699E+04 -2.43700E+04  4.37346E+03 -2.49520E+04  1.94821E+04 -2.26440E+04
  3.15105E+04 -1.42304E+04  3.78317E+04  4.98722E+03  2.64680E+04  2.39679E+04  4.21402E+03  4.04820E+04
 -1.94817E+04  3.37411E+04 -3.02584E+04  1.17083E+04 -2.24345E+04 -1.03994E+04 -4.88342E+03 -1.30250E+04
  6.21559E+02 -1.20240E+03 -7.37700E+03  8.02422E+03 -1.97316E+04  4.81662E+03 -1.99150E+04 -9.38583E+03
 -1.14735E+04 -2.31976E+04  6.12872E+03 -2.76986E+04  1.81153E+04 -1.91178E+04  2.17934E+04 -1.35268E+03
  1.40011E+04  1.61037E+04 -1.33853E+03  2.22980E+04 -1.63254E+04  1.33002E+04 -2.31354E+04 -4.97520E+03
 -1.70511E+04 -2.01901E+04 -2.00306E+03 -2.74227E+04  1.19669E+04 -2.30224E+04  2.24451E+04 -1.18539E+04
  2.17182E+04 -2.76153E+02  1.54749E+04  5.07863E+03  8.98885E+03  1.02502E+03  1.20791E+04 -1.89194E+03
  2.10058E+04  2.96219E+03  2.43737E+04  1.80428E+04  1.71660E+04  3.66296E+04 -2.57521E+03  4.30924E+04
 -2.46247E+04  3.62991E+04 -4.10277E+04  1.88034E+04 -4.36484E+04 -3.61808E+03 -3.53062E+04 -2.48713E+04
 -1.41643E+04 -3.58063E+04  1.28316E+04 -3.18006E+04  2.72152E+04 -1.47579E+04  2.38965E+04  7.71397E+03
  8.37874E+03  1.81360E+04 -1.17868E+04  1.51102E+04 -1.93827E+04  2.88570E+03 -1.51862E+04 -1.22216E+04
 -4.43148E+02 -1.87984E+04  9.94767E+03 -1.37945E+04  1.27858E+04 -1.10951E+03  3.23961E+03  8.45840E+03
 -8.34231E+03  3.68631E+03 -8.61577E+03 -6.49814E+03 -1.34863E+03 -1.79972E+04  1.17136E+04 -1.95053E+04
  2.24638E+04 -1.02405E+04  2.53825E+04  3.20178E+03  2.19153E+04  1.81966E+04  9.95296E+03  2.80549E+04
 -5.33390E+03  3.01285E+04 -1.98073E+04  1.84997E+04 -2.18988E+04  3.74301E+03 -1.47163E+04 -5.44547E+03
 -6.49001E+03 -6.93281E+03 -4.65834E+02  5.77586E+02 -3.02591E+03  3.25424E+03 -6.99717E+03  5.43009E+03
 -1.36664E+04 -9.22842E+02 -1.44574E+04 -1.17167E+04 -5.85130E+03 -1.89453E+04  6.17000E+03 -1.54512E+04
  1.26394E+04 -6.00169E+03  8.62380E+03  4.10609E+03 -1.13990E+02  6.01412E+03 -7.54677E+03 -1.21230E+02
 -7.12251E+03 -9.57351E+03 -1.17751E+03 -1.50761E+04  9.07550E+03 -1.57394E+04  1.92610E+04 -8.67675E+03
  2.26682E+04  2.14416E+03  1.63556E+04  1.38422E+04  3.24048E+03  1.82050E+04 -8.92399E+03  1.51979E+04
 -1.21309E+04  4.10473E+03 -6.38387E+03 -2.87648E+03  2.37537E+03 -4.36735E+03  8.19621E+03 -9.34567E+02
  6.97762E+03  6.44090E+03  1.25680E+03  1.21773E+04 -8.79096E+03  1.12659E+04 -1.51334E+04  2.68215E+03
 -1.03274E+04 -8.51022E+03  6.85959E+02 -1.31108E+04  8.26275E+03 -6.37444E+03  8.59074E+03  3.21650E+03
  2.16980E+03  9.97112E+03 -7.60567E+03  1.13662E+04 -1.31219E+04  4.59193E+03 -1.28860E+04 -4.94179E+03
 -7.67221E+03 -1.50502E+04  3.61745E+03 -1.74013E+04  1.43943E+04 -1.03585E+04  1.60630E+04  2.71617E+03
  9.72249E+03  1.25758E+04 -1.47653E+03  1.46611E+04 -1.11412E+04  8.20750E+03 -1.23339E+04 -1.07623E+03
 -9.90470E+03 -1.00985E+04 -1.63048E+03 -1.12350E+04  5.96507E+03 -9.39916E+03  7.28902E+03 -3.65204E+03
  4.61116E+03  2.21859E+03 -8.00818E+02  1.97618E+03 -6.78811E+02 -2.80553E+03  2.71606E+03 -7.13312E+03
  1.10282E+04 -4.32184E+03  1.54710E+04  1.71412E+03  1.47185E+04  1.01426E+04  9.78044E+03  1.97936E+04
 -4.69689E+03  2.23960E+04 -1.83194E+04  1.62695E+04 -2.42502E+04  3.21260E+03 -1.95966E+04 -8.88261E+03
 -9.87959E+03 -1.60811E+04 -5.77447E+02 -1.36218E+04  5.06522E+03 -7.73943E+03  4.65569E+03 -4.96984E+03
  3.63420E+03 -3.39947E+03  3.69172E+03 -3.59547E+03  5.74446E+03 -3.66763E+03  7.89116E+03 -1.72463E+03
  1.02820E+04  2.35474E+03  5.56471E+03  8.61779E+03 -1.87133E+03  1.06456E+04 -1.05336E+04  8.15761E+03
 -1.39774E+04 -1.67629E+03 -8.88713E+03 -9.37431E+03 -8.73815E+02 -1.49550E+04  8.32191E+03 -1.46321E+04
  1.51653E+04 -8.44532E+03  1.83915E+04  2.59630E+03  1.20523E+04  1.30900E+04  1.91634E+03  1.65865E+04
 -6.73014E+03  1.33288E+04 -1.00802E+04  4.64080E+03 -6.50187E+03 -1.89936E+03 -2.96135E+03 -2.16514E+03
 -1.55042E+03 -2.31110E+02 -2.03782E+03  2.92440E+03 -5.89820E+03  2.20081E+03 -9.73637E+03 -1.67531E+03
 -6.70090E+03 -9.35999E+03  2.04144E+02 -1.36818E+04  8.76174E+03 -1.24589E+04  1.36256E+04 -4.12638E+03
  1.36714E+04  6.62286E+03  6.56278E+03  1.24474E+04 -3.09430E+03  1.39409E+04 -9.63022E+03  8.55886E+03
 -1.29961E+04  5.76462E+02 -1.00069E+04 -8.16894E+03 -1.26792E+03 -1.13396E+04  5.96631E+03 -8.61651E+03
  8.78275E+03 -2.89973E+03  5.69505E+03  2.54578E+03  2.11886E+03  4.35935E+03  1.57137E+03  1.89085E+03
  2.84781E+03  1.07277E+03  3.32007E+03  1.85547E+03  3.90290E+03  4.87827E+03  3.61931E+03  7.43206E+03
 -3.19465E+03  1.07244E+04 -9.64543E+03  1.10128E+04 -1.42737E+04  3.12938E+03 -1.46871E+04 -5.77845E+03
 -7.09004E+03 -1.35899E+04  2.00891E+03 -1.50391E+04  8.27664E+03 -9.62411E+03  1.12475E+04 -2.79627E+03
  8.67020E+03  4.99866E+03  1.90117E+03  7.83715E+03 -3.64720E+03  5.36899E+03 -5.56344E+03 -9.38657E+02
 -2.41856E+03 -6.04295E+03  2.70150E+03 -6.25368E+03  5.89373E+03 -3.22562E+03  5.73409E+03  1.25382E+03
  3.15187E+03  2.67883E+03  1.01820E+03  2.31550E+03 -9.50505E+02  1.66135E+03  1.38348E+03 -5.32932E+02
  2.20862E+03 -9.79070E+02  5.46590E+03  2.05833E+03  3.23831E+03  7.17549E+03 -8.33173E+02  9.43269E+03
 -6.78577E+03  6.26941E+03 -8.93551E+03  1.96453E+03 -7.85553E+03 -3.05356E+03 -3.25174E+03 -5.38520E+03
  7.96854E+02 -5.17658E+03  3.66774E+03 -2.56174E+03  3.02031E+03  2.38570E+03 -1.60812E+03  4.64144E+03
 -5.69183E+03  2.45015E+03 -6.56578E+03 -3.17270E+03 -3.51976E+03 -7.32027E+03  1.03693E+03 -7.53662E+03
  4.30515E+03 -4.72989E+03  5.67991E+03 -7.51516E+02  4.69590E+03  1.83865E+03  8.27667E+02  4.13772E+03
 -2.70694E+03  6.82014E+02 -3.60188E+03 -2.70172E+03  1.61628E+03 -5.56392E+03  6.76406E+03 -4.73382E+03
  8.34653E+03  1.17821E+02  8.47912E+03  5.96775E+03  2.65282E+03  8.87992E+03 -3.18132E+03  8.62297E+03
 -6.84430E+03  3.69778E+03 -7.40255E+03 -1.13372E+03 -4.17782E+03 -5.65323E+03  1.21472E+03 -4.99042E+03
  5.57576E+03 -2.67405E+03  4.35786E+03  2.35797E+03  2.12413E+03  4.72121E+03 -1.17466E+03  4.49420E+03
 -2.38635E+03  2.80075E+03 -1.97667E+03  7.50298E+02 -7.23041E+02  1.14432E+03 -1.43280E+03  1.95001E+03
 -2.33617E+03  2.98241E+03 -6.18137E+03  3.21149E+03 -8.83398E+03  6.84960E+01 -9.60079E+03 -5.77305E+03
 -5.45688E+03 -1.14468E+04  2.22174E+03 -1.34667E+04  8.69438E+03 -1.04756E+04  1.28628E+04 -4.28924E+03
  1.25246E+04  2.34673E+03  7.09958E+03  7.99244E+03  8.00520E+02  9.37301E+03 -3.63252E+03  6.72316E+03
 -5.57617E+03  2.31262E+03 -2.74661E+03 -8.63385E+02 -1.02838E+03 -6.04365E+02 -2.78828E+02 -3.18508E+02
 -1.86572E+03  2.25630E+02 -2.37854E+03 -3.56687E+02 -5.53433E+02 -2.43440E+03  4.20396E+02 -3.57345E+03
  4.09769E+03 -3.17132E+03  5.34188E+03  9.41420E+01  6.40937E+03  5.14774E+03  1.63614E+03  8.49193E+03
 -4.35353E+03  1.03634E+04 -9.63449E+03  5.69115E+03 -1.11166E+04 -1.15601E+03 -8.10285E+03 -6.40186E+03
 -3.73160E+03 -9.12279E+03  2.61072E+03 -8.68342E+03  5.69721E+03 -4.74133E+03  6.08327E+03  3.40972E+02
  3.08279E+03  2.78471E+03 -4.03289E+02  2.88714E+03 -1.99856E+03 -6.61760E+02  7.25828E+01 -1.91740E+03
  2.38745E+03 -9.59004E+02  3.90806E+03  1.41927E+03  2.41488E+03  3.51284E+03 -1.40238E+02  4.59088E+03
 -3.90823E+03  3.89731E+03 -6.14425E+03  6.59678E+02 -5.49997E+03 -4.16287E+03 -7.06087E+02 -7.75741E+03
  3.85556E+03 -6.22342E+03  6.97705E+03 -1.81589E+03  6.45016E+03  1.58741E+03  3.78762E+03  5.43739E+03
  1.02100E+03  5.97441E+03 -2.21719E+03  4.47371E+03 -3.97812E+03  2.51040E+03 -3.23853E+03  4.57985E+02
 -1.43898E+03 -1.45492E+02 -1.73245E+03  6.81022E+02 -3.25195E+03  7.55734E+02 -4.69697E+03 -8.46239E+02
 -4.72995E+03 -2.69326E+03 -1.24992E+03 -5.64388E+03  2.91394E+03 -6.55284E+03  5.60555E+03 -3.07722E+03
  5.57221E+03  7.37818E+02  3.40377E+03  3.95103E+03 -5.47515E+02  6.23986E+03 -4.29903E+03  3.55108E+03
