 $NMID ID='MM_0lb_SNR800_15hz_g60_19.RAW', FMTDAT='(8E13.5)'
 TRAMP=1., VOLUME=1. $END
  3.10055E+05  4.78302E+02  3.37885E+05  2.50658E+05  8.46124E+04  3.37880E+05 -1.32461E+05  2.51552E+05
 -1.90229E+05  8.33528E+04 -1.12231E+05 -3.24369E+04  6.73345E+02 -5.06059E+04  5.37694E+04 -1.78166E+02
  3.53789E+04  5.27538E+04 -1.67846E+04  7.53686E+04 -6.09119E+04  6.38164E+04 -8.44793E+04  3.21440E+04
 -8.14535E+04 -1.16014E+04 -5.73951E+04 -5.15955E+04 -1.54043E+04 -7.00427E+04  2.79386E+04 -4.58984E+04
  4.02647E+04  3.39044E+03  1.65793E+04  4.81383E+04 -3.42835E+04  4.74218E+04 -6.72599E+04 -1.01318E+02
 -5.40958E+04 -5.73081E+04 -7.23413E+03 -7.73729E+04  3.39059E+04 -5.54590E+04  4.83000E+04 -1.74068E+04
  4.38037E+04  1.12304E+04  3.17547E+04  2.59070E+04  1.58780E+04  2.98845E+04 -5.55950E+03  2.72790E+04
 -2.20917E+04  1.22200E+04 -1.86621E+04 -5.44916E+03  5.80654E+03 -7.38153E+03  2.27615E+04  1.27171E+04
  7.28302E+03  3.59087E+04 -3.27173E+04  3.55211E+04 -6.40159E+04  2.24209E+03 -5.73384E+04 -4.30062E+04
 -1.25589E+04 -6.35470E+04  4.01781E+04 -4.54141E+04  5.90392E+04 -2.29736E+03  3.49258E+04  3.29315E+04
 -6.11901E+03  3.68781E+04 -3.04564E+04  1.64555E+04 -3.10739E+04 -4.00193E+03 -1.74780E+04 -1.11241E+04
 -8.61408E+03 -1.35445E+04 -7.14328E+02 -1.85556E+04  7.61686E+03 -2.27200E+04  1.54993E+04 -1.29769E+04
  1.09801E+04  5.25435E+03 -9.07432E+03  1.28794E+04 -2.12434E+04 -4.79607E+03 -8.33589E+03 -3.43783E+04
  2.35476E+04 -4.42409E+04  4.87275E+04 -1.98527E+04  4.59080E+04  1.95145E+04  1.57956E+04  4.44794E+04
 -1.58207E+04  3.37914E+04 -2.57036E+04  1.91289E+03 -1.01568E+04 -2.82477E+04  2.11406E+04 -3.40906E+04
  4.14453E+04 -9.12866E+03  3.62064E+04  2.41288E+04  1.88409E+04  4.67699E+04 -8.08147E+03  5.13285E+04
 -3.23658E+04  3.46383E+04 -4.31560E+04  9.70451E+03 -4.33580E+04 -1.68778E+04 -2.36841E+04 -3.86424E+04
  7.28232E+03 -3.85017E+04  3.18102E+04 -1.50554E+04  2.98111E+04  1.09923E+04  3.81488E+03  1.92796E+04
 -1.34520E+04  8.31426E+03 -1.03860E+04 -7.34453E+03  5.75696E+03 -1.07525E+04  1.78908E+04  5.76715E+03
  1.35734E+04  2.19676E+04 -5.82066E+03  2.53077E+04 -2.24199E+04  1.18822E+04 -2.85222E+04 -4.42016E+03
 -2.12679E+04 -1.74735E+04 -8.78513E+03 -2.11830E+04  4.11973E+03 -2.05427E+04  1.64606E+04 -1.89286E+04
  2.69173E+04 -1.30310E+04  3.33242E+04  3.20488E+03  2.41461E+04  2.01529E+04  4.11672E+03  3.68896E+04
 -1.84156E+04  3.07159E+04 -2.83952E+04  1.07483E+04 -2.11667E+04 -1.02382E+04 -4.14482E+03 -1.33327E+04
  1.39300E+03 -2.85167E+03 -5.01195E+03  6.86151E+03 -1.67703E+04  4.84278E+03 -1.66471E+04 -7.05521E+03
 -1.05123E+04 -1.96489E+04  5.20562E+03 -2.35259E+04  1.56894E+04 -1.71998E+04  1.84876E+04 -1.73326E+03
  1.15059E+04  1.33726E+04 -1.13658E+03  1.92970E+04 -1.34327E+04  1.05948E+04 -1.96771E+04 -4.19789E+03
 -1.44222E+04 -1.78035E+04 -1.51038E+03 -2.36784E+04  1.05910E+04 -1.92175E+04  1.94716E+04 -9.68363E+03
  1.82389E+04  1.81587E+02  1.31884E+04  4.43025E+03  6.77375E+03  8.93881E+02  9.89027E+03 -1.62327E+03
  1.74794E+04  2.77946E+03  2.00060E+04  1.54293E+04  1.28479E+04  3.09460E+04 -2.72174E+03  3.50432E+04
 -2.02101E+04  2.85006E+04 -3.30119E+04  1.42419E+04 -3.44120E+04 -2.59354E+03 -2.83702E+04 -1.98761E+04
 -1.23411E+04 -2.82980E+04  9.74295E+03 -2.50089E+04  2.16816E+04 -1.27214E+04  1.94374E+04  5.42417E+03
  7.26306E+03  1.43210E+04 -9.28785E+03  1.26845E+04 -1.66996E+04  2.43357E+03 -1.25833E+04 -1.02300E+04
 -1.27991E+02 -1.58978E+04  8.26002E+03 -1.16276E+04  1.04014E+04 -1.47396E+03  2.42949E+03  6.60636E+03
 -6.98814E+03  2.67963E+03 -5.82164E+03 -5.77226E+03 -2.99793E+02 -1.37684E+04  9.55699E+03 -1.45930E+04
  1.71121E+04 -7.73847E+03  1.85371E+04  3.16837E+03  1.60296E+04  1.35988E+04  7.40428E+03  2.07282E+04
 -3.47174E+03  2.25874E+04 -1.48181E+04  1.41418E+04 -1.59871E+04  3.33299E+03 -1.10994E+04 -3.20902E+03
 -5.05329E+03 -5.05033E+03 -1.09688E+03  9.47843E+02 -2.23477E+03  2.55454E+03 -5.15950E+03  4.61813E+03
 -1.05047E+04 -8.85503E+02 -1.12746E+04 -9.06065E+03 -4.63987E+03 -1.46961E+04  4.62318E+03 -1.16570E+04
  9.56736E+03 -4.73176E+03  6.96360E+03  3.14938E+03 -1.21740E+02  4.07837E+03 -5.51109E+03 -5.62975E-01
 -5.06983E+03 -7.13057E+03 -7.68198E+02 -1.05350E+04  5.66473E+03 -1.15818E+04  1.38388E+04 -6.01261E+03
  1.66047E+04  1.38554E+03  1.20933E+04  9.43884E+03  2.59264E+03  1.29359E+04 -6.74079E+03  1.09509E+04
 -9.37690E+03  3.45571E+03 -4.76368E+03 -2.09361E+03  1.45850E+03 -3.05189E+03  5.69957E+03 -1.24682E+03
  5.30306E+03  5.13634E+03  1.03431E+03  8.71925E+03 -6.05181E+03  8.62031E+03 -1.12849E+04  2.33031E+03
 -7.27814E+03 -5.44114E+03  6.11242E+02 -9.57480E+03  5.54913E+03 -4.61455E+03  5.84006E+03  1.87683E+03
  9.98008E+02  5.70904E+03 -5.62804E+03  7.39408E+03 -8.01259E+03  3.55110E+03 -8.17559E+03 -2.66818E+03
 -4.87042E+03 -9.86108E+03  2.41498E+03 -1.11876E+04  9.82211E+03 -7.11753E+03  1.02334E+04  1.99004E+03
  6.77268E+03  8.29370E+03 -4.25648E+02  1.02604E+04 -7.29600E+03  5.88791E+03 -7.95673E+03 -6.00089E+02
 -7.57059E+03 -7.21950E+03 -1.77206E+03 -7.50054E+03  3.53816E+03 -6.41719E+03  4.55330E+03 -2.99617E+03
  3.73461E+03  7.01357E+02 -1.25584E+02  1.67955E+03  2.64823E+02 -1.27043E+03  9.22129E+02 -3.97260E+03
  6.34353E+03 -2.27130E+03  9.42364E+03  1.23413E+03  9.00521E+03  5.97660E+03  7.15829E+03  1.19806E+04
 -2.26273E+03  1.40486E+04 -1.20557E+04  1.03427E+04 -1.55940E+04  1.89441E+03 -1.22952E+04 -4.75923E+03
 -6.36509E+03 -1.01697E+04 -1.93254E+02 -8.16074E+03  3.23889E+03 -4.15161E+03  3.06303E+03 -3.22189E+03
  2.46734E+03 -2.16856E+03  2.55713E+03 -3.16495E+03  4.09044E+03 -2.07454E+03  4.87734E+03 -3.14317E+02
  6.65613E+03  1.37411E+03  2.89383E+03  5.26940E+03 -1.84375E+03  5.40825E+03 -6.79991E+03  4.55695E+03
 -8.23621E+03 -1.22381E+03 -4.04446E+03 -5.48903E+03  5.24113E-01 -8.81003E+03  5.24043E+03 -8.68624E+03
  9.03513E+03 -5.04213E+03  1.07236E+04  1.20478E+03  7.78348E+03  7.52321E+03  1.39032E+03  9.55490E+03
 -3.58582E+03  8.49313E+03 -5.47978E+03  2.84710E+03 -3.48227E+03 -1.09737E+03 -1.23061E+03 -1.19873E+03
 -4.76479E+02  2.66396E+02 -1.13646E+03  2.45414E+03 -3.63243E+03  1.38907E+03 -6.35992E+03 -7.04790E+02
 -3.18629E+03 -5.76112E+03  6.94199E+02 -7.70301E+03  4.72201E+03 -7.26762E+03  6.87404E+03 -2.01252E+03
  7.44016E+03  3.99975E+03  3.24380E+03  6.44974E+03 -1.17449E+03  7.64937E+03 -5.02200E+03  4.75092E+03
 -6.92858E+03  7.30011E+02 -5.95584E+03 -4.25483E+03 -4.68811E+02 -5.97346E+03  3.01270E+03 -4.25979E+03
  4.67855E+03 -1.73251E+03  3.06416E+03  1.15911E+03  9.99904E+02  2.30554E+03  8.17063E+02  1.09658E+03
  2.06584E+03  8.00317E+02  1.84970E+03  1.29221E+03  1.87283E+03  2.96577E+03  2.19726E+03  3.58727E+03
 -1.82450E+03  5.54258E+03 -4.89151E+03  6.38047E+03 -6.36562E+03  1.76472E+03 -7.29928E+03 -2.35952E+03
 -3.45950E+03 -6.72793E+03  1.27701E+03 -8.25603E+03  3.93024E+03 -4.90387E+03  5.65796E+03 -1.40593E+03
  4.79012E+03  2.38800E+03  5.60689E+02  4.09651E+03 -1.86754E+03  2.66922E+03 -2.63394E+03 -6.16313E+02
 -8.68865E+02 -2.98581E+03  1.60282E+03 -2.89522E+03  2.63974E+03 -1.37156E+03  2.56197E+03  3.15534E+02
  1.23399E+03  1.04475E+03  1.00254E+03  6.87774E+02 -3.51211E+02  7.82958E+02  1.67184E+03 -5.70450E+02
  5.17663E+02 -3.96136E+02  2.71956E+03  1.24195E+03  1.29819E+03  3.71068E+03 -7.34138E+02  4.80197E+03
 -3.29558E+03  2.73527E+03 -4.17053E+03  8.31043E+02 -3.95336E+03 -1.35674E+03 -1.00787E+03 -2.14119E+03
  3.36064E+02 -2.29368E+03  1.98128E+03 -9.19042E+02  1.45072E+03  1.55483E+03 -9.47632E+02  2.11882E+03
 -3.04439E+03  1.52354E+03 -2.46680E+03 -2.20378E+03 -1.62093E+03 -3.93882E+03  1.59780E+02 -3.19119E+03
  1.66048E+03 -1.50923E+03  2.08221E+03 -8.32580E+01  2.20664E+03  6.19573E+02  5.03525E+02  1.93831E+03
 -9.02784E+02  3.00400E+02 -1.92405E+03 -8.06497E+02  8.58876E+02 -2.13682E+03  2.93115E+03 -2.25831E+03
  3.17117E+03  1.79011E+02  4.22449E+03  2.35768E+03  1.71733E+03  3.66933E+03 -1.22019E+03  3.44231E+03
 -3.09289E+03  1.24752E+03 -3.12002E+03 -3.49959E+02 -1.55059E+03 -2.91021E+03  4.83177E+02 -2.15108E+03
  2.64675E+03 -1.20664E+03  1.58371E+03  1.07258E+03  1.79622E+02  2.16479E+03 -1.30351E+02  1.91425E+03
 -1.11564E+03  1.39827E+03 -4.34400E+02  1.31170E+02 -3.02983E+02  4.32627E+02 -1.04968E+03  8.46842E+02
 -1.25045E+03  1.32385E+03 -2.84831E+03  8.26578E+02 -3.64834E+03  4.25770E+02 -4.42958E+03 -2.09696E+03
 -2.39365E+03 -4.79198E+03  1.00702E+03 -5.55087E+03  3.00396E+03 -4.60480E+03  5.38713E+03 -1.53348E+03
  4.97051E+03  6.94912E+02  3.04702E+03  3.02772E+03 -4.14997E+02  3.50620E+03 -1.34762E+03  2.73207E+03
 -2.01410E+03  1.21745E+03 -1.13127E+03 -1.63340E+02 -5.41214E+02 -1.62219E+02 -2.57158E+02  8.79444E+01
 -1.42497E+03 -3.29749E+01 -1.17397E+03  3.29630E-01  1.30767E+02 -1.25278E+03 -5.02653E+02 -1.43537E+03
  1.54395E+03 -1.18415E+03  1.82199E+03  1.55447E+02  2.50800E+03  1.98527E+03 -1.73442E+02  3.07918E+03
 -1.88426E+03  4.42198E+03 -3.51506E+03  2.54511E+03 -3.64550E+03 -3.60865E+02 -2.72269E+03 -2.67845E+03
 -1.68124E+03 -3.40461E+03  6.93387E+02 -3.01103E+03  1.69212E+03 -1.80340E+03  1.91380E+03  5.93739E+01
  8.98524E+02  1.04640E+03 -3.53575E+01  7.75426E+02 -5.05263E+02  5.77384E+01 -3.58625E+02 -4.27393E+02
  8.08247E+02 -1.05711E+02  1.17882E+03  6.54966E+02  6.14139E+02  1.04661E+03  5.45507E+02  1.24774E+03
 -1.28615E+03  1.36809E+03 -1.69891E+03  2.34543E+02 -1.94363E+03 -1.45363E+03 -1.32730E+02 -2.78387E+03
  1.33493E+03 -1.78635E+03  1.90618E+03 -1.52310E+02  2.05040E+03 -1.50383E+02  1.17275E+03  1.91612E+03
  6.73514E+02  1.69430E+03 -9.84162E+02  1.45819E+03 -1.14429E+03  8.44044E+02 -1.14251E+03  3.20592E+02
 -6.79590E+02  9.00731E+01 -8.87110E+02 -6.54287E+01 -1.11057E+03  3.33652E+02 -1.46964E+03 -4.46985E+02
 -1.65857E+03 -3.10766E+02 -5.73081E+02 -2.05621E+03  9.98789E+02 -2.70678E+03  1.71080E+03 -7.61099E+02
  1.99988E+03  3.96059E+02  4.52261E+02  1.19984E+03 -1.96247E+02  1.76095E+03 -1.36181E+03  1.27373E+03
