 $NMID ID='MM_0lb_SNR800_8hz_g45_14.RAW', FMTDAT='(8E13.5)'
 TRAMP=1., VOLUME=1. $END
  3.10167E+05  4.14216E+02  3.37748E+05  2.50655E+05  8.51342E+04  3.38931E+05 -1.32473E+05  2.51814E+05
 -1.91096E+05  8.36735E+04 -1.12606E+05 -3.23790E+04  4.72271E+02 -5.10604E+04  5.37891E+04 -8.21412E+02
  3.54625E+04  5.29649E+04 -1.65002E+04  7.58862E+04 -6.11435E+04  6.43703E+04 -8.55028E+04  3.25918E+04
 -8.26278E+04 -1.17715E+04 -5.79930E+04 -5.24532E+04 -1.49235E+04 -7.11676E+04  2.85135E+04 -4.68891E+04
  4.09863E+04  3.58982E+03  1.66823E+04  4.88212E+04 -3.48602E+04  4.86254E+04 -6.85874E+04  1.64434E+02
 -5.50486E+04 -5.77411E+04 -7.52519E+03 -7.92192E+04  3.48318E+04 -5.73673E+04  4.98540E+04 -1.86009E+04
  4.53954E+04  1.10308E+04  3.29331E+04  2.65448E+04  1.57752E+04  3.09216E+04 -5.85707E+03  2.82026E+04
 -2.25792E+04  1.19626E+04 -1.81243E+04 -5.69889E+03  7.23696E+03 -7.15151E+03  2.34821E+04  1.39794E+04
  6.94526E+03  3.74513E+04 -3.44736E+04  3.73071E+04 -6.56748E+04  1.78500E+03 -5.92840E+04 -4.45811E+04
 -1.25054E+04 -6.59655E+04  4.17974E+04 -4.77478E+04  6.11615E+04 -2.41962E+03  3.65316E+04  3.45487E+04
 -5.71714E+03  3.97521E+04 -3.18065E+04  1.91816E+04 -3.37329E+04 -3.62437E+03 -1.94058E+04 -1.19851E+04
 -9.83734E+03 -1.55086E+04 -1.27993E+02 -2.00131E+04  8.39463E+03 -2.34575E+04  1.60809E+04 -1.25066E+04
  1.02925E+04  6.48380E+03 -1.09551E+04  1.29553E+04 -2.36105E+04 -6.79731E+03 -8.70950E+03 -3.81389E+04
  2.55990E+04 -4.72565E+04  5.24237E+04 -2.13915E+04  4.85603E+04  2.11598E+04  1.75028E+04  4.74491E+04
 -1.67811E+04  3.62475E+04 -2.79084E+04  3.02873E+03 -1.15911E+04 -2.98068E+04  2.17437E+04 -3.74802E+04
  4.46026E+04 -1.14674E+04  4.07596E+04  2.49254E+04  2.17510E+04  5.17454E+04 -8.20524E+03  5.63431E+04
 -3.57208E+04  3.86125E+04 -4.83248E+04  1.10291E+04 -4.81374E+04 -1.86435E+04 -2.62826E+04 -4.26420E+04
  8.22363E+03 -4.27626E+04  3.50479E+04 -1.73336E+04  3.27779E+04  1.12046E+04  5.76769E+03  2.12148E+04
 -1.41072E+04  1.02741E+04 -1.14037E+04 -7.83869E+03  5.50404E+03 -1.15769E+04  1.87661E+04  5.31760E+03
  1.49783E+04  2.29622E+04 -5.06376E+03  2.72941E+04 -2.33588E+04  1.49390E+04 -3.22038E+04 -2.27706E+03
 -2.61512E+04 -1.91958E+04 -1.22376E+04 -2.56084E+04  4.66585E+03 -2.64331E+04  2.04236E+04 -2.37357E+04
  3.28854E+04 -1.43099E+04  3.84767E+04  5.66083E+03  2.77929E+04  2.46008E+04  4.31187E+03  4.18048E+04
 -2.00423E+04  3.42818E+04 -3.07583E+04  1.20508E+04 -2.25948E+04 -1.02995E+04 -4.86165E+03 -1.30399E+04
  6.76167E+02 -1.05629E+03 -7.73700E+03  8.40757E+03 -2.07911E+04  5.43924E+03 -2.06241E+04 -9.85162E+03
 -1.19138E+04 -2.39663E+04  5.95951E+03 -2.80951E+04  1.90830E+04 -2.00663E+04  2.28840E+04 -1.87535E+03
  1.47759E+04  1.64494E+04 -1.43115E+03  2.38422E+04 -1.65920E+04  1.37058E+04 -2.39767E+04 -4.59566E+03
 -1.72679E+04 -2.20076E+04 -2.34434E+03 -2.83833E+04  1.28186E+04 -2.38453E+04  2.35750E+04 -1.24289E+04
  2.22723E+04 -1.35002E+02  1.65500E+04  5.28519E+03  9.14137E+03  1.09303E+03  1.23976E+04 -2.22604E+03
  2.23435E+04  3.11093E+03  2.65669E+04  1.85938E+04  1.79775E+04  3.86369E+04 -2.79972E+03  4.54835E+04
 -2.58534E+04  3.85821E+04 -4.28401E+04  2.02736E+04 -4.66887E+04 -3.25080E+03 -3.69310E+04 -2.69837E+04
 -1.46897E+04 -3.83413E+04  1.34848E+04 -3.36632E+04  2.84271E+04 -1.59305E+04  2.49257E+04  8.60832E+03
  8.20583E+03  1.92526E+04 -1.22703E+04  1.61138E+04 -2.11606E+04  2.27178E+03 -1.58811E+04 -1.34338E+04
 -3.07959E+02 -1.97143E+04  1.06839E+04 -1.47830E+04  1.34130E+04 -1.40948E+03  3.88534E+03  8.87570E+03
 -8.84453E+03  4.51606E+03 -9.87486E+03 -7.02455E+03 -2.30317E+03 -1.87392E+04  1.22871E+04 -2.01844E+04
  2.32615E+04 -1.15255E+04  2.73227E+04  3.33652E+03  2.39021E+04  1.94089E+04  1.08604E+04  3.05726E+04
 -5.47955E+03  3.23935E+04 -2.11041E+04  2.00010E+04 -2.35595E+04  3.74315E+03 -1.60945E+04 -5.96051E+03
 -7.07178E+03 -7.52690E+03 -1.03464E+03 -1.67222E+02 -3.17499E+03  3.17875E+03 -8.26748E+03  5.84648E+03
 -1.47547E+04 -9.39527E+02 -1.54493E+04 -1.22326E+04 -6.41312E+03 -2.03957E+04  6.84837E+03 -1.65020E+04
  1.33457E+04 -6.85890E+03  9.21601E+03  4.27096E+03 -2.44728E+02  6.52671E+03 -8.64971E+03  1.36977E+01
 -8.34966E+03 -1.04950E+04 -1.37074E+03 -1.60518E+04  9.73740E+03 -1.73387E+04  2.05834E+04 -9.27167E+03
  2.44135E+04  2.66332E+03  1.79828E+04  1.49435E+04  3.49988E+03  1.99977E+04 -1.03443E+04  1.64963E+04
 -1.33652E+04  4.80780E+03 -7.29627E+03 -3.49883E+03  2.16479E+03 -4.99951E+03  8.49032E+03 -7.90218E+02
  8.29931E+03  7.72361E+03  1.59915E+03  1.32535E+04 -9.77192E+03  1.25227E+04 -1.69105E+04  3.46542E+03
 -1.17048E+04 -8.73301E+03  1.59099E+02 -1.35794E+04  9.40928E+03 -7.36724E+03  9.79422E+03  3.65377E+03
  2.28337E+03  1.09578E+04 -8.31624E+03  1.21579E+04 -1.49185E+04  5.66127E+03 -1.49126E+04 -5.27419E+03
 -8.39729E+03 -1.68769E+04  4.39022E+03 -1.92001E+04  1.66437E+04 -1.12561E+04  1.77971E+04  3.38806E+03
  1.05976E+04  1.40186E+04 -1.34375E+03  1.63403E+04 -1.25331E+04  9.02784E+03 -1.38761E+04 -1.45066E+03
 -1.13536E+04 -1.13425E+04 -2.28423E+03 -1.29990E+04  6.70817E+03 -1.03441E+04  8.04991E+03 -3.91262E+03
  5.15839E+03  2.38549E+03 -1.58182E+03  1.82093E+03 -1.20177E+03 -4.05262E+03  3.42928E+03 -8.27364E+03
  1.20849E+04 -5.43405E+03  1.70244E+04  1.64152E+03  1.68211E+04  1.22578E+04  1.06575E+04  2.26611E+04
 -5.45489E+03  2.54934E+04 -2.12368E+04  1.86422E+04 -2.77125E+04  3.65117E+03 -2.26718E+04 -9.72356E+03
 -1.15298E+04 -1.79571E+04 -3.20092E+02 -1.55215E+04  5.80744E+03 -8.82883E+03  5.61390E+03 -5.79714E+03
  4.45329E+03 -3.13103E+03  3.95800E+03 -4.19800E+03  6.27163E+03 -4.31656E+03  8.70294E+03 -1.94273E+03
  1.13389E+04  2.51816E+03  6.34445E+03  1.00712E+04 -2.46717E+03  1.23721E+04 -1.23227E+04  9.66746E+03
 -1.58080E+04 -1.52609E+03 -1.03246E+04 -1.14959E+04 -1.20380E+03 -1.73140E+04  9.22086E+03 -1.73678E+04
  1.77990E+04 -9.52071E+03  2.11843E+04  3.24271E+03  1.48248E+04  1.48255E+04  2.23922E+03  1.92049E+04
 -7.83598E+03  1.51538E+04 -1.15881E+04  5.25532E+03 -7.96604E+03 -1.69946E+03 -3.54037E+03 -2.61683E+03
 -1.83512E+03  3.07292E+02 -2.55591E+03  2.96221E+03 -6.81229E+03  2.55719E+03 -1.08184E+04 -1.44581E+03
 -8.18270E+03 -1.08504E+04 -5.21552E+02 -1.59422E+04  1.00036E+04 -1.48537E+04  1.61749E+04 -4.44509E+03
  1.57669E+04  7.64130E+03  7.68592E+03  1.41595E+04 -3.61740E+03  1.62346E+04 -1.16110E+04  1.05276E+04
 -1.52651E+04  8.65486E+02 -1.12956E+04 -9.88585E+03 -1.68849E+03 -1.37318E+04  7.22598E+03 -1.00325E+04
  1.03398E+04 -2.98716E+03  7.30618E+03  3.00265E+03  2.17084E+03  5.03622E+03  1.80954E+03  2.08175E+03
  2.63680E+03  1.11995E+03  4.32803E+03  2.06840E+03  4.37949E+03  5.78558E+03  4.22953E+03  8.91343E+03
 -3.00672E+03  1.30361E+04 -1.14086E+04  1.26426E+04 -1.69159E+04  3.51602E+03 -1.73035E+04 -7.59808E+03
 -8.27521E+03 -1.67126E+04  2.61027E+03 -1.83887E+04  9.76711E+03 -1.13460E+04  1.35844E+04 -3.27107E+03
  1.03759E+04  6.34688E+03  2.42621E+03  9.10319E+03 -4.74600E+03  6.56062E+03 -7.19018E+03 -9.87779E+02
 -3.17045E+03 -6.91702E+03  3.91134E+03 -7.58613E+03  6.82996E+03 -3.19900E+03  6.90960E+03  1.38208E+03
  3.84913E+03  3.23391E+03  1.34213E+03  2.60736E+03 -8.85131E+02  1.96114E+03  1.40587E+03 -5.92864E+02
  2.66275E+03 -8.71585E+02  6.98876E+03  2.66724E+03  4.14855E+03  8.79206E+03 -1.44335E+03  1.21909E+04
 -8.24041E+03  7.75941E+03 -1.07891E+04  1.98911E+03 -9.47234E+03 -3.91248E+03 -3.54042E+03 -7.19810E+03
  1.20837E+03 -6.50623E+03  4.36092E+03 -3.16235E+03  3.63010E+03  3.35302E+03 -1.42763E+03  5.65062E+03
 -7.25717E+03  3.61276E+03 -8.43189E+03 -3.95666E+03 -4.34044E+03 -9.50553E+03  1.43218E+03 -9.76775E+03
  5.60873E+03 -5.81045E+03  7.18445E+03 -8.15779E+02  5.84810E+03  2.38053E+03  6.35116E+02  5.08276E+03
 -3.42646E+03  1.12190E+03 -4.55170E+03 -3.01124E+03  1.53558E+03 -7.24223E+03  8.50547E+03 -6.41500E+03
  1.09527E+04  5.28557E+02  1.05945E+04  7.20241E+03  3.64542E+03  1.15796E+04 -4.07844E+03  1.09448E+04
 -9.35085E+03  5.03036E+03 -9.22489E+03 -1.81378E+03 -5.65867E+03 -7.03404E+03  1.44458E+03 -7.19844E+03
  7.10382E+03 -3.85354E+03  6.37007E+03  3.16390E+03  1.72899E+03  6.13743E+03 -1.19343E+03  5.14357E+03
 -3.05025E+03  3.37640E+03 -2.37097E+03  1.22887E+03 -1.53209E+03  1.11065E+03 -1.61018E+03  2.44005E+03
 -2.90253E+03  4.41581E+03 -7.33132E+03  4.15757E+03 -1.15830E+04  1.36270E+02 -1.27111E+04 -7.36546E+03
 -6.82933E+03 -1.54360E+04  2.48962E+03 -1.76289E+04  1.11047E+04 -1.31988E+04  1.65230E+04 -5.23180E+03
  1.55873E+04  3.23956E+03  9.56849E+03  1.08239E+04  7.33063E+02  1.19970E+04 -4.68228E+03  9.04289E+03
 -6.67998E+03  3.33896E+03 -4.19386E+03 -1.73986E+03 -1.03426E+03 -1.44731E+03 -6.62689E+02 -8.16491E+01
 -2.22331E+03  5.17950E+02 -2.51298E+03 -9.56432E+02 -7.99340E+02 -2.78872E+03  3.19289E+02 -4.55439E+03
  5.32772E+03 -3.88306E+03  7.45242E+03 -1.61599E+02  8.56639E+03  6.25115E+03  2.60222E+03  1.19922E+04
 -5.76275E+03  1.35275E+04 -1.29506E+04  8.19853E+03 -1.51729E+04 -1.07275E+03 -1.11461E+04 -9.06286E+03
 -4.32007E+03 -1.23151E+04  3.07855E+03 -1.16326E+04  7.63440E+03 -6.12450E+03  7.61866E+03  3.13783E+02
  4.82649E+03  3.99349E+03 -5.04211E+02  3.18506E+03 -2.38776E+03  3.05115E+01  7.64564E+01 -3.03885E+03
  3.88107E+03 -1.83592E+03  4.89608E+03  1.12936E+03  3.05376E+03  5.13755E+03  9.21561E+01  6.79889E+03
 -5.90935E+03  5.35276E+03 -8.47725E+03  2.24318E+02 -7.02409E+03 -5.80843E+03 -1.23653E+03 -1.01925E+04
  5.62923E+03 -8.22411E+03  9.41429E+03 -2.84509E+03  9.64439E+03  2.40345E+03  5.81590E+03  7.21468E+03
  1.03457E+03  8.63154E+03 -3.48971E+03  6.42973E+03 -5.25581E+03  3.62279E+03 -4.47856E+03  5.64163E+02
 -2.64824E+03 -4.11644E+01 -2.69493E+03  1.67550E+03 -4.18004E+03  1.40193E+03 -6.36999E+03 -1.32503E+03
 -6.33504E+03 -4.45331E+03 -1.80421E+03 -8.08249E+03  3.93812E+03 -8.90077E+03  7.88743E+03 -4.50610E+03
  8.08070E+03  1.10853E+03  4.32216E+03  5.82752E+03 -3.89296E+02  8.16804E+03 -6.29844E+03  5.09891E+03
