 $NMID ID='MM_0lb_SNR800_10hz_g60_34.RAW', FMTDAT='(8E13.5)'
 TRAMP=1., VOLUME=1. $END
  3.09874E+05  5.01818E+02  3.37842E+05  2.50658E+05  8.49054E+04  3.38417E+05 -1.32706E+05  2.52169E+05
 -1.90474E+05  8.41718E+04 -1.12717E+05 -3.24175E+04 -8.61899E+01 -5.04439E+04  5.38291E+04 -5.00787E+02
  3.52686E+04  5.30501E+04 -1.65204E+04  7.61704E+04 -6.10779E+04  6.45221E+04 -8.53425E+04  3.26739E+04
 -8.24084E+04 -1.17879E+04 -5.85752E+04 -5.30345E+04 -1.51939E+04 -7.08726E+04  2.78884E+04 -4.66629E+04
  4.10845E+04  3.85707E+03  1.68885E+04  4.87459E+04 -3.51900E+04  4.83669E+04 -6.78907E+04 -2.38841E+02
 -5.50305E+04 -5.74971E+04 -8.17940E+03 -7.95041E+04  3.46484E+04 -5.71190E+04  4.98209E+04 -1.80353E+04
  4.51425E+04  1.19176E+04  3.32374E+04  2.69320E+04  1.56271E+04  3.07645E+04 -5.47831E+03  2.75479E+04
 -2.25202E+04  1.18539E+04 -1.77740E+04 -5.75324E+03  7.18993E+03 -7.60237E+03  2.37642E+04  1.39452E+04
  7.06999E+03  3.77737E+04 -3.43275E+04  3.73256E+04 -6.61143E+04  1.88319E+03 -5.90304E+04 -4.49573E+04
 -1.29474E+04 -6.60086E+04  4.15188E+04 -4.76351E+04  6.18202E+04 -2.53502E+03  3.65601E+04  3.45794E+04
 -5.20900E+03  3.96365E+04 -3.19769E+04  1.89935E+04 -3.40073E+04 -3.20245E+03 -1.93215E+04 -1.18265E+04
 -9.61014E+03 -1.52394E+04 -4.14917E+02 -2.00285E+04  8.53331E+03 -2.32123E+04  1.61829E+04 -1.28288E+04
  1.04866E+04  6.38991E+03 -1.06332E+04  1.27883E+04 -2.37347E+04 -6.84455E+03 -8.45086E+03 -3.76477E+04
  2.52802E+04 -4.73877E+04  5.23605E+04 -2.08316E+04  4.88067E+04  2.09574E+04  1.68170E+04  4.75473E+04
 -1.69277E+04  3.63464E+04 -2.77660E+04  2.81768E+03 -1.12773E+04 -2.98956E+04  2.15640E+04 -3.71424E+04
  4.52635E+04 -1.08986E+04  4.04078E+04  2.49384E+04  2.13645E+04  5.09908E+04 -8.19220E+03  5.62693E+04
 -3.57316E+04  3.84176E+04 -4.77097E+04  1.10077E+04 -4.79657E+04 -1.86895E+04 -2.61429E+04 -4.21698E+04
  7.78803E+03 -4.24825E+04  3.39797E+04 -1.74462E+04  3.26056E+04  1.11625E+04  5.61922E+03  2.11461E+04
 -1.34674E+04  9.69875E+03 -1.16218E+04 -7.67477E+03  5.48542E+03 -1.14697E+04  1.88209E+04  5.72759E+03
  1.52377E+04  2.29933E+04 -5.35526E+03  2.70963E+04 -2.37981E+04  1.46269E+04 -3.19989E+04 -3.09895E+03
 -2.54212E+04 -1.87162E+04 -1.18893E+04 -2.49145E+04  4.78624E+03 -2.59749E+04  2.00194E+04 -2.31798E+04
  3.23759E+04 -1.42552E+04  3.80482E+04  4.99911E+03  2.73235E+04  2.46255E+04  4.60384E+03  4.13578E+04
 -2.00106E+04  3.39950E+04 -3.07920E+04  1.19444E+04 -2.26753E+04 -9.81435E+03 -5.01072E+03 -1.30850E+04
  3.83257E+02 -9.04519E+02 -8.04848E+03  8.11379E+03 -2.05354E+04  5.08200E+03 -2.00477E+04 -9.21962E+03
 -1.19467E+04 -2.34716E+04  6.40968E+03 -2.80894E+04  1.88807E+04 -1.99170E+04  2.26400E+04 -1.77980E+03
  1.47768E+04  1.63760E+04 -1.29920E+03  2.33598E+04 -1.71564E+04  1.36081E+04 -2.35828E+04 -4.87296E+03
 -1.74238E+04 -2.10863E+04 -2.41576E+03 -2.79997E+04  1.29441E+04 -2.31436E+04  2.33992E+04 -1.22345E+04
  2.24445E+04  1.43535E+01  1.61862E+04  5.31712E+03  8.91095E+03  1.67176E+03  1.20068E+04 -1.74920E+03
  2.21020E+04  2.68183E+03  2.55990E+04  1.82796E+04  1.73862E+04  3.76690E+04 -2.97576E+03  4.45774E+04
 -2.53612E+04  3.71389E+04 -4.19715E+04  1.95057E+04 -4.45189E+04 -3.31591E+03 -3.64392E+04 -2.63893E+04
 -1.45122E+04 -3.71706E+04  1.32087E+04 -3.28177E+04  2.78974E+04 -1.52544E+04  2.47005E+04  8.00453E+03
  8.27511E+03  1.87651E+04 -1.17305E+04  1.54748E+04 -2.02800E+04  2.69950E+03 -1.50634E+04 -1.31917E+04
 -6.73030E+02 -1.91957E+04  1.03664E+04 -1.44310E+04  1.36459E+04 -1.23484E+03  3.09067E+03  8.65456E+03
 -8.67637E+03  4.17007E+03 -9.17720E+03 -7.07802E+03 -2.34932E+03 -1.78324E+04  1.20956E+04 -2.00470E+04
  2.25628E+04 -1.09085E+04  2.60193E+04  3.47119E+03  2.30507E+04  1.85377E+04  1.03993E+04  2.90161E+04
 -5.57400E+03  3.11754E+04 -2.03390E+04  1.93051E+04 -2.27493E+04  3.83847E+03 -1.56822E+04 -5.88256E+03
 -6.44050E+03 -6.80654E+03 -3.59699E+02  1.89106E+02 -3.02027E+03  3.21103E+03 -7.39132E+03  5.58937E+03
 -1.43228E+04 -1.12387E+03 -1.49339E+04 -1.21259E+04 -6.06607E+03 -1.94000E+04  6.47175E+03 -1.55634E+04
  1.28847E+04 -6.47540E+03  9.12765E+03  4.17172E+03  3.83167E+02  6.36500E+03 -7.86845E+03 -7.63702E+00
 -7.62882E+03 -1.00984E+04 -1.29714E+03 -1.55058E+04  8.51729E+03 -1.60468E+04  1.99621E+04 -8.54954E+03
  2.30529E+04  2.54211E+03  1.67985E+04  1.44628E+04  3.34288E+03  1.88919E+04 -9.46209E+03  1.55503E+04
 -1.25007E+04  4.05296E+03 -6.56682E+03 -3.34729E+03  2.32161E+03 -4.28019E+03  8.23251E+03 -8.13795E+02
  7.54641E+03  7.26888E+03  1.18697E+03  1.26986E+04 -9.03603E+03  1.23606E+04 -1.55997E+04  3.04057E+03
 -1.06975E+04 -8.47447E+03 -3.61703E+01 -1.29616E+04  8.85281E+03 -6.97449E+03  9.01109E+03  3.39841E+03
  2.38170E+03  9.91695E+03 -7.89602E+03  1.13850E+04 -1.37053E+04  5.39863E+03 -1.37179E+04 -5.19366E+03
 -7.58414E+03 -1.59496E+04  4.11751E+03 -1.78331E+04  1.53468E+04 -1.06088E+04  1.67713E+04  3.10772E+03
  9.82887E+03  1.33844E+04 -1.47793E+03  1.58303E+04 -1.14287E+04  8.55384E+03 -1.25276E+04 -1.08913E+03
 -1.08465E+04 -1.01774E+04 -1.33345E+03 -1.16095E+04  6.64030E+03 -9.44946E+03  7.54730E+03 -3.85072E+03
  5.05153E+03  1.85862E+03 -1.40303E+03  1.95034E+03 -3.91717E+02 -3.41301E+03  2.72834E+03 -7.43098E+03
  1.12586E+04 -4.80654E+03  1.60959E+04  1.79840E+03  1.54900E+04  1.10726E+04  9.84731E+03  2.06186E+04
 -5.21811E+03  2.36743E+04 -1.92310E+04  1.72387E+04 -2.47531E+04  3.17403E+03 -2.04708E+04 -8.55884E+03
 -1.02937E+04 -1.67306E+04 -5.71567E+02 -1.41200E+04  5.23112E+03 -8.50805E+03  4.95825E+03 -5.18790E+03
  3.54203E+03 -2.91157E+03  3.88670E+03 -4.03477E+03  5.78716E+03 -3.31188E+03  8.31710E+03 -1.26251E+03
  1.04599E+04  2.32294E+03  5.50743E+03  9.10097E+03 -2.07312E+03  1.09685E+04 -1.11381E+04  8.72975E+03
 -1.44252E+04 -1.35369E+03 -9.02771E+03 -9.42932E+03 -1.08654E+03 -1.53401E+04  8.42855E+03 -1.52934E+04
  1.61244E+04 -8.50929E+03  1.87586E+04  2.39403E+03  1.31326E+04  1.30552E+04  2.13805E+03  1.69090E+04
 -7.22845E+03  1.38661E+04 -1.04579E+04  4.92305E+03 -7.02041E+03 -1.44879E+03 -2.66660E+03 -2.19413E+03
 -1.44646E+03 -3.44613E+02 -1.70042E+03  2.73206E+03 -6.23609E+03  2.33526E+03 -1.05498E+04 -1.21633E+03
 -7.09048E+03 -9.67163E+03 -4.37748E+01 -1.40580E+04  8.47465E+03 -1.30480E+04  1.45168E+04 -3.76166E+03
  1.41138E+04  6.91550E+03  6.44161E+03  1.26973E+04 -2.68818E+03  1.42559E+04 -1.02098E+04  9.07329E+03
 -1.32189E+04  4.77853E+02 -1.07308E+04 -8.25902E+03 -1.23827E+03 -1.21426E+04  5.87156E+03 -8.95357E+03
  8.88159E+03 -3.03282E+03  6.09615E+03  2.47586E+03  2.17434E+03  4.16343E+03  9.95982E+02  1.69914E+03
  3.10432E+03  1.23516E+03  3.75021E+03  1.76743E+03  4.41665E+03  5.34332E+03  3.90592E+03  7.43364E+03
 -2.80486E+03  1.12889E+04 -1.02402E+04  1.12946E+04 -1.43845E+04  2.83955E+03 -1.50409E+04 -6.27915E+03
 -7.01897E+03 -1.39524E+04  2.24599E+03 -1.57856E+04  8.63902E+03 -9.74867E+03  1.19716E+04 -2.82544E+03
  9.42360E+03  5.03818E+03  2.16321E+03  8.33582E+03 -4.17462E+03  5.35949E+03 -5.98867E+03 -8.39553E+02
 -2.75129E+03 -5.89975E+03  3.84224E+03 -6.24687E+03  6.02642E+03 -2.98392E+03  5.63050E+03  9.73696E+02
  3.46747E+03  2.82378E+03  1.42696E+03  2.15279E+03 -8.34518E+02  2.00411E+03  1.47069E+03 -3.60962E+02
  1.81284E+03 -6.86160E+02  5.56283E+03  2.31025E+03  3.45370E+03  7.67800E+03 -1.32977E+03  1.05010E+04
 -6.60170E+03  6.41812E+03 -9.26846E+03  1.80805E+03 -7.88323E+03 -3.26924E+03 -2.87627E+03 -5.74716E+03
  9.97731E+02 -5.66262E+03  3.33081E+03 -2.90610E+03  2.84991E+03  2.73232E+03 -1.51561E+03  4.91579E+03
 -5.68355E+03  2.73454E+03 -6.87329E+03 -3.62862E+03 -3.64560E+03 -7.86473E+03  1.21308E+03 -8.18452E+03
  4.80007E+03 -4.65475E+03  5.67198E+03 -6.52989E+02  5.02546E+03  2.23420E+03  5.14734E+02  3.88588E+03
 -2.35425E+03  1.21647E+03 -3.50621E+03 -2.64071E+03  1.64506E+03 -5.83388E+03  6.99862E+03 -5.38056E+03
  8.69847E+03  4.51243E+02  8.93165E+03  5.79634E+03  2.82635E+03  9.90038E+03 -3.14869E+03  8.61937E+03
 -7.83019E+03  3.57235E+03 -8.04598E+03 -7.69674E+02 -4.27383E+03 -6.22253E+03  1.37158E+03 -5.49222E+03
  5.97986E+03 -2.73669E+03  4.81746E+03  2.40428E+03  1.75025E+03  4.67224E+03 -9.28902E+02  4.56947E+03
 -2.39293E+03  2.95160E+03 -2.23587E+03  7.07803E+02 -1.05824E+03  8.69927E+02 -1.75540E+03  1.52920E+03
 -2.26361E+03  3.32594E+03 -6.42603E+03  2.92342E+03 -9.04414E+03  7.03290E+01 -1.03976E+04 -6.00487E+03
 -5.48462E+03 -1.24844E+04  2.32808E+03 -1.41173E+04  8.52365E+03 -1.09738E+04  1.35208E+04 -4.21809E+03
  1.23949E+04  2.47438E+03  7.45300E+03  8.73153E+03  5.36048E+02  9.17614E+03 -3.84468E+03  7.23674E+03
 -5.44636E+03  2.65671E+03 -3.88839E+03 -1.35941E+03 -9.94532E+02 -9.54515E+02 -4.66289E+02 -2.19307E+02
 -1.69277E+03  2.01044E+02 -2.29975E+03 -4.59312E+02 -7.68146E+02 -2.73477E+03  3.03599E+01 -3.49071E+03
  4.60525E+03 -3.58129E+03  5.88360E+03 -1.82524E+02  6.82692E+03  5.21146E+03  1.93766E+03  9.30118E+03
 -4.45896E+03  1.10392E+04 -9.90830E+03  6.25543E+03 -1.10185E+04 -7.06436E+02 -8.69731E+03 -7.19417E+03
 -3.36611E+03 -9.62836E+03  1.96291E+03 -8.54045E+03  6.15379E+03 -4.86629E+03  6.19701E+03  4.03356E+02
  3.22177E+03  3.04759E+03 -3.57691E+02  2.46284E+03 -2.00620E+03 -1.79888E+02 -1.61230E+02 -2.19199E+03
  2.86676E+03 -1.85240E+03  3.79731E+03  1.19343E+03  2.35135E+03  3.70368E+03  4.10560E+02  4.88284E+03
 -4.12842E+03  3.93639E+03 -6.39223E+03  7.84931E+02 -5.43275E+03 -4.58259E+03 -6.85818E+02 -7.93786E+03
  4.09713E+03 -6.28937E+03  7.24636E+03 -1.88358E+03  7.02881E+03  1.62941E+03  3.83913E+03  5.28418E+03
  4.77513E+02  5.85926E+03 -2.27897E+03  4.81081E+03 -4.14442E+03  2.61572E+03 -2.99740E+03  6.10612E+02
 -1.78587E+03 -1.53258E+02 -1.68929E+03  1.24373E+03 -3.45812E+03  9.32879E+02 -4.55529E+03 -7.54143E+02
 -4.98045E+03 -3.34205E+03 -1.61131E+03 -6.27217E+03  2.93346E+03 -6.59329E+03  5.61153E+03 -2.92806E+03
  6.26531E+03  1.15691E+03  3.10840E+03  4.24846E+03 -6.61520E+02  5.93171E+03 -4.73135E+03  4.24397E+03
