 $NMID ID='MM_0lb_SNR800_8hz_g60_28.RAW', FMTDAT='(8E13.5)'
 TRAMP=1., VOLUME=1. $END
  3.09656E+05  5.38131E+02  3.37277E+05  2.50469E+05  8.50173E+04  3.38715E+05 -1.33161E+05  2.51971E+05
 -1.90796E+05  8.41170E+04 -1.13126E+05 -3.19745E+04  1.35537E+02 -5.10063E+04  5.36276E+04 -7.13810E+02
  3.56325E+04  5.29120E+04 -1.64395E+04  7.61800E+04 -6.16665E+04  6.50870E+04 -8.58298E+04  3.28493E+04
 -8.29719E+04 -1.21009E+04 -5.88796E+04 -5.30632E+04 -1.50418E+04 -7.17139E+04  2.81666E+04 -4.70218E+04
  4.13304E+04  3.40071E+03  1.73641E+04  4.85989E+04 -3.51189E+04  4.85595E+04 -6.84384E+04  1.11794E+02
 -5.54425E+04 -5.84072E+04 -7.53880E+03 -7.99522E+04  3.47710E+04 -5.76550E+04  5.06124E+04 -1.83927E+04
  4.62563E+04  1.15786E+04  3.36270E+04  2.69912E+04  1.63460E+04  3.16159E+04 -6.25923E+03  2.80788E+04
 -2.28956E+04  1.22228E+04 -1.75683E+04 -6.38998E+03  7.94908E+03 -7.41338E+03  2.43225E+04  1.42437E+04
  7.12501E+03  3.86091E+04 -3.44546E+04  3.78302E+04 -6.69527E+04  1.88895E+03 -5.97257E+04 -4.51179E+04
 -1.27102E+04 -6.69934E+04  4.22816E+04 -4.83513E+04  6.28140E+04 -2.81771E+03  3.76899E+04  3.50139E+04
 -5.53974E+03  4.07944E+04 -3.24474E+04  1.98853E+04 -3.47569E+04 -3.22723E+03 -2.06120E+04 -1.23141E+04
 -1.04122E+04 -1.58967E+04 -3.18860E+02 -2.02965E+04  8.68284E+03 -2.35143E+04  1.63612E+04 -1.22863E+04
  9.86214E+03  6.85991E+03 -1.11180E+04  1.28381E+04 -2.46231E+04 -7.50670E+03 -8.91013E+03 -3.89192E+04
  2.63568E+04 -4.79864E+04  5.37532E+04 -2.15484E+04  4.97009E+04  2.17554E+04  1.83551E+04  4.86812E+04
 -1.73109E+04  3.74113E+04 -2.84564E+04  2.85146E+03 -1.28957E+04 -2.97806E+04  2.14743E+04 -3.80551E+04
  4.63595E+04 -1.18408E+04  4.28035E+04  2.57521E+04  2.26132E+04  5.26766E+04 -8.67439E+03  5.82455E+04
 -3.71123E+04  4.06859E+04 -5.04564E+04  1.14273E+04 -4.90138E+04 -1.92429E+04 -2.75516E+04 -4.38140E+04
  8.03351E+03 -4.34508E+04  3.55309E+04 -1.82707E+04  3.31877E+04  1.12976E+04  5.84418E+03  2.15572E+04
 -1.41813E+04  1.01833E+04 -1.16190E+04 -7.23594E+03  5.41102E+03 -1.18323E+04  1.93444E+04  5.32037E+03
  1.49357E+04  2.33325E+04 -5.15762E+03  2.79221E+04 -2.39573E+04  1.53975E+04 -3.26474E+04 -2.56647E+03
 -2.75254E+04 -1.91578E+04 -1.26528E+04 -2.67108E+04  4.57203E+03 -2.86458E+04  2.17688E+04 -2.48062E+04
  3.44987E+04 -1.45559E+04  4.04602E+04  6.04263E+03  2.85190E+04  2.61752E+04  4.31453E+03  4.36750E+04
 -2.09082E+04  3.56197E+04 -3.20836E+04  1.24439E+04 -2.29873E+04 -1.03448E+04 -5.30168E+03 -1.23341E+04
  6.47917E+02 -4.88855E+02 -8.93989E+03  9.19575E+03 -2.20990E+04  5.05988E+03 -2.21448E+04 -1.09041E+04
 -1.28629E+04 -2.53224E+04  6.41249E+03 -2.96130E+04  2.01299E+04 -2.08509E+04  2.49928E+04 -1.63189E+03
  1.59029E+04  1.72548E+04 -1.88149E+03  2.50452E+04 -1.78183E+04  1.46299E+04 -2.54829E+04 -4.75473E+03
 -1.86719E+04 -2.25943E+04 -2.46058E+03 -3.01056E+04  1.36215E+04 -2.53581E+04  2.49009E+04 -1.30332E+04
  2.33830E+04 -6.12240E+02  1.69976E+04  5.66118E+03  9.73763E+03  1.54347E+03  1.35636E+04 -2.26758E+03
  2.40886E+04  2.84686E+03  2.85237E+04  1.96326E+04  1.95121E+04  4.08048E+04 -2.35830E+03  4.81968E+04
 -2.72262E+04  4.10379E+04 -4.59415E+04  2.12416E+04 -4.97223E+04 -3.82487E+03 -4.01379E+04 -2.88177E+04
 -1.53985E+04 -4.18258E+04  1.51365E+04 -3.62405E+04  3.06425E+04 -1.69607E+04  2.61842E+04  8.32262E+03
  8.79781E+03  2.04648E+04 -1.28648E+04  1.73347E+04 -2.15162E+04  2.82326E+03 -1.68168E+04 -1.40401E+04
 -3.25985E+01 -2.10324E+04  1.15138E+04 -1.58640E+04  1.48281E+04 -8.05429E+02  3.87920E+03  9.20709E+03
 -9.66469E+03  4.76708E+03 -1.02536E+04 -7.70504E+03 -2.59152E+03 -2.00427E+04  1.29168E+04 -2.18533E+04
  2.57857E+04 -1.28016E+04  2.95096E+04  3.63072E+03  2.62987E+04  2.09949E+04  1.19193E+04  3.29068E+04
 -6.79684E+03  3.51638E+04 -2.31041E+04  2.14178E+04 -2.57294E+04  4.26686E+03 -1.74292E+04 -6.46846E+03
 -7.10673E+03 -8.22521E+03 -2.92210E+02  4.21622E+02 -3.03565E+03  3.96366E+03 -8.49906E+03  5.86759E+03
 -1.60863E+04 -1.32519E+03 -1.68702E+04 -1.28780E+04 -7.03887E+03 -2.15734E+04  7.39328E+03 -1.77120E+04
  1.41973E+04 -7.13591E+03  1.01035E+04  4.42686E+03 -1.08292E+03  7.12079E+03 -8.99653E+03  3.53976E+01
 -8.45810E+03 -1.09044E+04 -8.10207E+02 -1.77023E+04  1.06208E+04 -1.81699E+04  2.28884E+04 -1.05401E+04
  2.67713E+04  2.66244E+03  1.92965E+04  1.64283E+04  3.72515E+03  2.19091E+04 -1.05954E+04  1.73002E+04
 -1.42990E+04  4.75228E+03 -7.28636E+03 -4.25632E+03  2.39538E+03 -4.91761E+03  9.22435E+03 -1.45400E+03
  8.31608E+03  8.40104E+03  1.00806E+03  1.45692E+04 -9.99661E+03  1.36593E+04 -1.74538E+04  3.08172E+03
 -1.25042E+04 -9.58184E+03  2.39709E+02 -1.51125E+04  1.05861E+04 -8.03494E+03  1.09174E+04  4.00006E+03
  2.73533E+03  1.16877E+04 -9.39037E+03  1.34108E+04 -1.58307E+04  5.92657E+03 -1.64662E+04 -6.09264E+03
 -9.92766E+03 -1.83184E+04  4.97442E+03 -2.12338E+04  1.84997E+04 -1.23537E+04  1.96411E+04  4.00110E+03
  1.17313E+04  1.58138E+04 -2.15899E+03  1.81803E+04 -1.32140E+04  9.81892E+03 -1.47009E+04 -1.59436E+03
 -1.18883E+04 -1.19567E+04 -1.60227E+03 -1.39337E+04  7.13108E+03 -1.07770E+04  8.99601E+03 -3.99300E+03
  5.88314E+03  2.81519E+03 -1.31219E+03  1.73833E+03 -1.25865E+03 -3.98769E+03  3.20397E+03 -9.64167E+03
  1.34654E+04 -5.81611E+03  1.89851E+04  2.28493E+03  1.85188E+04  1.30345E+04  1.17886E+04  2.47271E+04
 -6.18590E+03  2.85397E+04 -2.31338E+04  2.01702E+04 -3.01686E+04  4.14837E+03 -2.45047E+04 -1.11273E+04
 -1.19096E+04 -1.95492E+04 -4.51253E+02 -1.70611E+04  5.48634E+03 -9.37193E+03  5.94870E+03 -6.44332E+03
  4.26514E+03 -3.39447E+03  4.28556E+03 -4.42968E+03  5.82901E+03 -4.24598E+03  9.46556E+03 -1.83386E+03
  1.28011E+04  3.26377E+03  7.65084E+03  1.14092E+04 -2.70587E+03  1.36615E+04 -1.31979E+04  1.06179E+04
 -1.75995E+04 -1.48699E+03 -1.18631E+04 -1.23950E+04 -1.85428E+03 -1.89724E+04  1.03104E+04 -1.89738E+04
  1.97979E+04 -1.01270E+04  2.30016E+04  3.36772E+03  1.56283E+04  1.62697E+04  2.42693E+03  2.11374E+04
 -9.15378E+03  1.69430E+04 -1.21880E+04  5.73969E+03 -8.50519E+03 -1.91709E+03 -3.69003E+03 -2.44135E+03
 -1.63443E+03 -4.92995E+02 -2.79662E+03  3.36758E+03 -7.17827E+03  2.86104E+03 -1.16189E+04 -1.50146E+03
 -8.75423E+03 -1.16617E+04 -3.64058E+02 -1.78033E+04  1.13312E+04 -1.63435E+04  1.82685E+04 -4.94417E+03
  1.76388E+04  8.14868E+03  8.70716E+03  1.64948E+04 -3.66044E+03  1.82559E+04 -1.32482E+04  1.17382E+04
 -1.70850E+04  3.56038E+02 -1.31956E+04 -1.12413E+04 -1.08215E+03 -1.54288E+04  8.41424E+03 -1.10526E+04
  1.11992E+04 -3.20658E+03  7.94432E+03  2.90794E+03  2.75462E+03  5.12619E+03  1.61910E+03  2.66395E+03
  3.10649E+03  1.15603E+03  4.51618E+03  2.20012E+03  5.15775E+03  5.61091E+03  4.57820E+03  1.01266E+04
 -3.68315E+03  1.47256E+04 -1.31988E+04  1.40258E+04 -1.92654E+04  3.79260E+03 -1.89700E+04 -8.29999E+03
 -8.98025E+03 -1.80894E+04  2.82663E+03 -2.00998E+04  1.14020E+04 -1.29374E+04  1.50669E+04 -3.80434E+03
  1.18982E+04  6.78888E+03  2.74198E+03  1.07531E+04 -5.07472E+03  6.47067E+03 -7.95611E+03 -1.51701E+03
 -3.80134E+03 -7.82305E+03  4.53910E+03 -8.04589E+03  8.24155E+03 -3.68882E+03  7.91686E+03  1.41916E+03
  4.72458E+03  3.95157E+03  1.71590E+03  3.33796E+03 -1.39148E+03  2.42571E+03  1.10237E+03 -4.80451E+02
  3.88765E+03 -1.08751E+03  7.66356E+03  3.38087E+03  4.83349E+03  1.02534E+04 -1.43910E+03  1.32279E+04
 -8.98315E+03  9.17716E+03 -1.21612E+04  2.57048E+03 -1.03660E+04 -4.47768E+03 -4.86380E+03 -7.37569E+03
  9.09186E+02 -7.66021E+03  4.93911E+03 -3.54714E+03  4.20687E+03  3.34674E+03 -1.82145E+03  6.66596E+03
 -7.79262E+03  3.76009E+03 -8.99665E+03 -4.60831E+03 -5.25637E+03 -1.00703E+04  1.44743E+03 -1.07139E+04
  6.37301E+03 -6.32304E+03  7.75321E+03 -6.99069E+02  6.16001E+03  2.53313E+03  8.91892E+02  5.58103E+03
 -3.62610E+03  1.59545E+03 -4.74339E+03 -3.52714E+03  1.33949E+03 -7.97781E+03  9.44222E+03 -6.89577E+03
  1.24440E+04  7.45196E+02  1.13432E+04  8.33473E+03  3.77951E+03  1.28863E+04 -4.74349E+03  1.18991E+04
 -1.02722E+04  5.32788E+03 -1.02339E+04 -1.81791E+03 -6.05316E+03 -7.67598E+03  1.93535E+03 -7.96642E+03
  7.53719E+03 -3.76086E+03  6.55513E+03  3.22233E+03  2.33802E+03  7.20377E+03 -1.15487E+03  5.93770E+03
 -3.58349E+03  4.06997E+03 -2.95162E+03  8.54169E+02 -1.27301E+03  1.27929E+03 -2.14292E+03  2.64142E+03
 -3.08070E+03  4.92641E+03 -8.51247E+03  4.38397E+03 -1.27496E+04  5.31539E+02 -1.39752E+04 -8.40777E+03
 -7.68572E+03 -1.69657E+04  3.25612E+03 -1.97723E+04  1.23107E+04 -1.54628E+04  1.84671E+04 -5.54907E+03
  1.72297E+04  3.49170E+03  1.09735E+04  1.22264E+04  8.22356E+02  1.35610E+04 -5.44976E+03  1.00016E+04
 -7.47520E+03  3.61652E+03 -4.69669E+03 -1.33410E+03 -1.54590E+03 -1.14844E+03 -7.68939E+02 -3.34984E+02
 -2.04630E+03  2.59651E+02 -2.89593E+03 -1.21508E+02 -1.19093E+03 -2.80633E+03  2.14865E+02 -4.44938E+03
  6.02284E+03 -4.52432E+03  8.28873E+03 -7.61575E+02  9.06699E+03  6.85891E+03  2.67457E+03  1.36620E+04
 -6.29332E+03  1.51022E+04 -1.43690E+04  8.18638E+03 -1.66386E+04 -1.02244E+03 -1.21527E+04 -1.01205E+04
 -5.32507E+03 -1.41045E+04  3.62269E+03 -1.28061E+04  9.18184E+03 -7.16343E+03  9.18498E+03  5.76223E+02
  4.68414E+03  4.63118E+03 -9.23018E+02  3.90253E+03 -2.27920E+03 -3.45531E+02 -1.64228E+02 -3.64241E+03
  4.17871E+03 -2.39980E+03  5.41076E+03  2.07009E+03  3.49874E+03  5.34267E+03  4.32142E+01  7.22024E+03
 -6.22210E+03  6.07824E+03 -9.38488E+03  9.10247E+02 -8.25456E+03 -6.30798E+03 -1.65570E+03 -1.14559E+04
  6.43858E+03 -9.66144E+03  1.08424E+04 -3.33040E+03  1.02829E+04  2.95726E+03  5.93094E+03  8.67777E+03
  1.19841E+03  9.05480E+03 -3.25625E+03  7.47742E+03 -5.96194E+03  3.71172E+03 -4.68651E+03  8.19593E+02
 -2.89597E+03 -1.42026E+02 -2.43907E+03  1.05520E+03 -4.88119E+03  1.90234E+03 -7.28554E+03 -1.22430E+03
 -6.53821E+03 -5.16573E+03 -2.04339E+03 -9.62248E+03  4.31836E+03 -9.71924E+03  8.39393E+03 -4.98955E+03
  9.31063E+03  1.18622E+03  5.67538E+03  6.96238E+03 -1.02292E+03  9.36048E+03 -6.78192E+03  6.15771E+03
