 $NMID ID='MM_0lb_SNR800_13hz_g45_78.RAW', FMTDAT='(8E13.5)'
 TRAMP=1., VOLUME=1. $END
  3.09824E+05  4.93163E+02  3.37630E+05  2.50824E+05  8.47201E+04  3.37774E+05 -1.32714E+05  2.51076E+05
 -1.90396E+05  8.30976E+04 -1.12038E+05 -3.26098E+04  7.97708E+02 -5.07652E+04  5.35788E+04 -2.30417E+02
  3.52933E+04  5.26870E+04 -1.64734E+04  7.56800E+04 -6.09043E+04  6.35713E+04 -8.41947E+04  3.19043E+04
 -8.08994E+04 -1.12437E+04 -5.73240E+04 -5.11472E+04 -1.48342E+04 -6.99196E+04  2.74192E+04 -4.58185E+04
  4.02287E+04  3.90988E+03  1.59915E+04  4.77130E+04 -3.42183E+04  4.75146E+04 -6.68016E+04 -1.35066E+02
 -5.37870E+04 -5.69781E+04 -6.76066E+03 -7.72356E+04  3.39025E+04 -5.49561E+04  4.78523E+04 -1.69809E+04
  4.36174E+04  1.09672E+04  3.20328E+04  2.55040E+04  1.59693E+04  2.97039E+04 -5.25613E+03  2.70687E+04
 -2.21466E+04  1.25239E+04 -1.83857E+04 -4.91495E+03  5.83612E+03 -7.12929E+03  2.22361E+04  1.22306E+04
  7.28660E+03  3.54333E+04 -3.19672E+04  3.53956E+04 -6.36284E+04  2.15848E+03 -5.68617E+04 -4.27070E+04
 -1.24346E+04 -6.32036E+04  3.95991E+04 -4.52217E+04  5.83369E+04 -2.06014E+03  3.43560E+04  3.24397E+04
 -6.02079E+03  3.59595E+04 -3.01724E+04  1.63565E+04 -3.07179E+04 -4.43427E+03 -1.70762E+04 -1.14038E+04
 -8.41818E+03 -1.35418E+04 -1.09393E+03 -1.85088E+04  7.74623E+03 -2.31116E+04  1.50956E+04 -1.34810E+04
  1.11391E+04  5.34564E+03 -8.33907E+03  1.28457E+04 -2.15081E+04 -4.48465E+03 -8.17872E+03 -3.37737E+04
  2.31659E+04 -4.39723E+04  4.85742E+04 -1.99122E+04  4.54658E+04  1.98657E+04  1.59123E+04  4.47636E+04
 -1.58618E+04  3.36311E+04 -2.57379E+04  1.71318E+03 -9.81610E+03 -2.80859E+04  2.11669E+04 -3.42054E+04
  4.12420E+04 -9.21267E+03  3.59749E+04  2.37495E+04  1.85116E+04  4.68769E+04 -7.82617E+03  5.07917E+04
 -3.22383E+04  3.43450E+04 -4.23326E+04  9.81273E+03 -4.31307E+04 -1.69368E+04 -2.38374E+04 -3.81339E+04
  7.04570E+03 -3.78199E+04  3.17409E+04 -1.49397E+04  2.94378E+04  1.12554E+04  4.05573E+03  1.95377E+04
 -1.34517E+04  8.50750E+03 -1.02152E+04 -7.42134E+03  5.63552E+03 -1.07365E+04  1.82363E+04  6.03423E+03
  1.33363E+04  2.20385E+04 -5.96659E+03  2.56580E+04 -2.22373E+04  1.19221E+04 -2.85717E+04 -4.51418E+03
 -2.10175E+04 -1.74299E+04 -8.64500E+03 -2.08675E+04  4.04898E+03 -2.02946E+04  1.60588E+04 -1.87636E+04
  2.65358E+04 -1.27118E+04  3.33536E+04  3.06761E+03  2.39341E+04  2.03595E+04  4.17626E+03  3.69699E+04
 -1.79090E+04  3.08553E+04 -2.79781E+04  1.06121E+04 -2.12298E+04 -1.05509E+04 -4.34340E+03 -1.33377E+04
  1.77313E+03 -2.67113E+03 -5.25832E+03  6.73241E+03 -1.68891E+04  5.42279E+03 -1.69316E+04 -7.40202E+03
 -1.03189E+04 -1.93045E+04  5.25638E+03 -2.32053E+04  1.59772E+04 -1.71181E+04  1.86309E+04 -1.66018E+03
  1.17153E+04  1.38250E+04 -1.03766E+03  1.95352E+04 -1.36947E+04  1.08996E+04 -1.94987E+04 -4.04322E+03
 -1.44028E+04 -1.73308E+04 -1.53047E+03 -2.35315E+04  1.06849E+04 -1.92285E+04  1.96255E+04 -9.77925E+03
  1.79581E+04  2.54836E+01  1.33812E+04  4.51768E+03  7.13204E+03  1.06516E+03  9.75501E+03 -1.84431E+03
  1.76772E+04  2.79202E+03  1.96444E+04  1.52003E+04  1.31487E+04  3.12625E+04 -2.57698E+03  3.52250E+04
 -2.04780E+04  2.83099E+04 -3.28358E+04  1.43745E+04 -3.46662E+04 -2.41694E+03 -2.89129E+04 -2.01734E+04
 -1.22714E+04 -2.85360E+04  9.53248E+03 -2.59154E+04  2.22522E+04 -1.29980E+04  1.97971E+04  5.61521E+03
  7.32960E+03  1.49856E+04 -9.32266E+03  1.29850E+04 -1.66808E+04  2.16217E+03 -1.26442E+04 -1.04644E+04
 -4.40043E+02 -1.56498E+04  8.27586E+03 -1.19313E+04  1.06244E+04 -1.01119E+03  2.39539E+03  6.90472E+03
 -7.08830E+03  2.73780E+03 -6.66948E+03 -5.38200E+03 -4.24337E+02 -1.37633E+04  9.86801E+03 -1.51597E+04
  1.72772E+04 -7.94718E+03  1.88893E+04  2.51849E+03  1.62387E+04  1.42057E+04  7.50549E+03  2.12762E+04
 -3.52662E+03  2.31039E+04 -1.46183E+04  1.45182E+04 -1.66758E+04  3.70671E+03 -1.18846E+04 -3.70672E+03
 -5.52610E+03 -5.52465E+03 -8.93926E+02  1.00014E+03 -2.64026E+03  2.45143E+03 -5.48085E+03  4.61681E+03
 -1.08922E+04 -5.33923E+02 -1.14596E+04 -9.29636E+03 -4.73890E+03 -1.56103E+04  4.88820E+03 -1.19082E+04
  9.76896E+03 -5.26279E+03  7.27064E+03  3.04230E+03 -3.35718E+02  4.69446E+03 -5.81938E+03 -6.79780E+02
 -5.34988E+03 -7.65728E+03 -8.45983E+02 -1.12294E+04  6.48162E+03 -1.22992E+04  1.44947E+04 -6.39480E+03
  1.74499E+04  1.42500E+03  1.26621E+04  9.94727E+03  2.30463E+03  1.33644E+04 -7.29222E+03  1.20872E+04
 -9.89352E+03  3.67487E+03 -4.48885E+03 -2.21015E+03  1.72957E+03 -2.98669E+03  6.31411E+03 -1.18085E+03
  5.70611E+03  4.79171E+03  1.33249E+03  9.38636E+03 -6.46632E+03  8.88297E+03 -1.12911E+04  2.51987E+03
 -7.62666E+03 -5.67924E+03 -1.60450E+02 -1.01068E+04  5.87343E+03 -5.06247E+03  6.11643E+03  1.81271E+03
  1.34561E+03  6.40504E+03 -5.97377E+03  8.00146E+03 -9.05976E+03  3.74923E+03 -8.65110E+03 -3.02384E+03
 -5.45612E+03 -1.03112E+04  2.63276E+03 -1.20550E+04  1.04689E+04 -7.65913E+03  1.10639E+04  1.93357E+03
  7.07219E+03  9.07373E+03 -6.60498E+02  1.11374E+04 -7.96643E+03  6.05687E+03 -8.69010E+03 -9.42809E+02
 -8.34534E+03 -7.49966E+03 -1.75010E+03 -8.17305E+03  4.25180E+03 -6.88858E+03  5.15559E+03 -3.31289E+03
  3.97817E+03  9.77579E+02 -4.78957E+02  1.47526E+03 -1.61863E+02 -1.59950E+03  1.21936E+03 -4.56381E+03
  7.22853E+03 -2.45832E+03  1.01799E+04  9.85114E+02  1.00400E+04  6.53499E+03  7.60460E+03  1.32579E+04
 -2.96654E+03  1.52123E+04 -1.30524E+04  1.14912E+04 -1.71146E+04  1.95872E+03 -1.37191E+04 -5.59616E+03
 -7.05888E+03 -1.11083E+04 -2.59007E+02 -9.37700E+03  3.79928E+03 -4.90015E+03  3.02059E+03 -3.42627E+03
  2.36219E+03 -2.13719E+03  3.16223E+03 -2.90213E+03  4.66929E+03 -2.50710E+03  5.36875E+03 -5.17938E+02
  7.48251E+03  1.87464E+03  3.37620E+03  5.97653E+03 -1.92350E+03  6.74425E+03 -7.54437E+03  5.62653E+03
 -8.90547E+03 -1.42037E+03 -5.16714E+03 -6.57179E+03 -5.82559E+02 -9.86135E+03  5.43460E+03 -9.66362E+03
  1.01223E+04 -5.55142E+03  1.21973E+04  1.50560E+03  8.53879E+03  8.31227E+03  1.44972E+03  1.12123E+04
 -4.62355E+03  9.52023E+03 -6.56921E+03  3.12597E+03 -4.35189E+03 -1.43749E+03 -1.67392E+03 -1.14035E+03
 -6.53960E+02 -4.75660E+01 -1.53510E+03  2.00885E+03 -3.94175E+03  1.56439E+03 -7.08181E+03 -7.58863E+02
 -4.27854E+03 -6.55888E+03  3.06503E+02 -8.74811E+03  5.61418E+03 -8.43636E+03  8.51272E+03 -2.68757E+03
  8.75092E+03  4.23920E+03  4.07984E+03  7.35949E+03 -1.85269E+03  9.26015E+03 -5.82914E+03  5.38809E+03
 -8.10009E+03  5.98101E+02 -6.27373E+03 -5.06271E+03 -8.50602E+02 -7.20459E+03  3.43033E+03 -5.31602E+03
  5.58442E+03 -2.04621E+03  3.51807E+03  1.29573E+03  1.26294E+03  2.47435E+03  7.86518E+02  1.04539E+03
  2.08579E+03  6.65238E+02  2.22183E+03  1.21614E+03  2.39027E+03  3.46045E+03  2.44926E+03  4.35836E+03
 -2.01821E+03  6.44085E+03 -5.50604E+03  7.12661E+03 -8.00928E+03  2.17684E+03 -9.17701E+03 -2.78774E+03
 -4.13890E+03 -8.52127E+03  1.23310E+03 -9.52648E+03  4.79274E+03 -5.81126E+03  6.94589E+03 -1.80691E+03
  5.47351E+03  3.23360E+03  9.67561E+02  5.04553E+03 -2.03002E+03  2.67762E+03 -3.36382E+03 -3.04774E+02
 -1.44242E+03 -3.73204E+03  2.02942E+03 -3.70004E+03  3.25194E+03 -1.79996E+03  3.25084E+03  5.01021E+02
  1.88743E+03  1.59208E+03  6.33225E+02  7.42278E+02 -5.64831E+02  1.35259E+03  1.44923E+03 -4.04179E+02
  1.03933E+03 -5.04191E+02  3.28362E+03  1.32195E+03  1.65747E+03  4.84456E+03 -7.47601E+02  5.77344E+03
 -3.91068E+03  3.28312E+03 -4.86020E+03  1.12151E+03 -4.52093E+03 -1.78852E+03 -1.39943E+03 -3.06626E+03
  9.83764E+02 -3.23858E+03  2.13987E+03 -1.56628E+03  1.79627E+03  1.97525E+03 -9.71345E+02  2.54214E+03
 -3.43614E+03  1.93496E+03 -3.51661E+03 -2.71537E+03 -2.13721E+03 -4.81305E+03  5.81848E+02 -4.57587E+03
  2.19158E+03 -2.30034E+03  3.00985E+03 -5.42071E+02  2.89349E+03  9.29172E+02  3.25101E+02  2.13628E+03
 -1.23314E+03  3.71531E+02 -2.14672E+03 -1.64557E+03  1.00037E+03 -3.22096E+03  3.73209E+03 -2.45143E+03
  4.64212E+03  4.51530E+02  5.47996E+03  2.98989E+03  1.78495E+03  5.03216E+03 -1.48582E+03  4.76701E+03
 -4.25033E+03  2.08909E+03 -4.49906E+03 -7.28691E+02 -2.56463E+03 -3.74887E+03  8.60855E+02 -2.64298E+03
  3.30321E+03 -1.54195E+03  2.30589E+03  1.42389E+03  8.15205E+02  2.64018E+03 -3.85396E+02  2.42998E+03
 -1.11730E+03  1.69299E+03 -1.09696E+03  7.03909E+02 -2.51788E+02  6.34436E+02 -1.10159E+03  8.92243E+02
 -1.47509E+03  1.90961E+03 -3.54733E+03  1.79149E+03 -4.50782E+03  4.57771E+02 -5.32678E+03 -3.32484E+03
 -2.77293E+03 -6.33475E+03  1.42183E+03 -7.35869E+03  4.13038E+03 -6.41537E+03  6.93371E+03 -2.01786E+03
  6.62822E+03  8.74550E+02  3.95147E+03  4.57325E+03  1.38158E+02  4.69617E+03 -2.18516E+03  3.76763E+03
 -3.03901E+03  1.36641E+03 -1.49743E+03 -5.68113E+02 -8.25118E+02 -4.24980E+01 -3.68830E+02 -2.56368E+02
 -1.12148E+03 -2.01181E+02 -1.25011E+03 -4.95910E+01 -3.75308E+02 -1.25344E+03 -3.24326E+02 -1.85794E+03
  2.53751E+03 -1.51527E+03  2.47131E+03  3.54228E+02  3.43093E+03  2.63296E+03  8.76445E+02  4.64481E+03
 -2.41555E+03  5.69666E+03 -5.00575E+03  3.43509E+03 -5.59851E+03 -6.43813E+02 -4.18648E+03 -3.57425E+03
 -2.10335E+03 -4.67003E+03  1.31174E+03 -4.21440E+03  2.87855E+03 -2.14500E+03  2.60360E+03  6.27661E+01
  1.89575E+03  1.65056E+03  8.07129E+01  1.41423E+03 -8.26870E+02 -8.23138E+01  6.73310E+01 -8.46126E+02
  1.63812E+03 -2.86981E+02  1.41689E+03  8.29305E+02  1.00452E+03  1.82722E+03  2.05576E+02  2.22353E+03
 -2.29062E+03  2.11498E+03 -2.59649E+03  1.08006E+02 -2.96457E+03 -1.90611E+03 -3.80383E+02 -3.87035E+03
  2.22046E+03 -3.27176E+03  3.23024E+03 -9.80744E+02  3.34828E+03  6.11615E+02  1.83428E+03  2.92163E+03
  4.68817E+02  2.55842E+03 -1.00444E+03  2.04565E+03 -1.75473E+03  1.36868E+03 -1.85567E+03  7.90573E+01
 -5.89370E+02  2.04324E+02 -1.20578E+03  4.20178E+02 -1.49277E+03  8.68868E+02 -2.52028E+03 -4.99254E+02
 -2.38629E+03 -1.21068E+03 -8.08643E+02 -2.98237E+03  1.51827E+03 -3.48333E+03  2.71203E+03 -1.08922E+03
  3.03115E+03  4.02593E+02  1.19444E+03  1.91038E+03 -9.65619E+01  2.93249E+03 -2.16287E+03  1.93217E+03
