 $NMID ID='MM_0lb_SNR800_18hz_g50_85.RAW', FMTDAT='(8E13.5)'
 TRAMP=1., VOLUME=1. $END
  3.10053E+05  4.50772E+02  3.37362E+05  2.50415E+05  8.46080E+04  3.37478E+05 -1.32366E+05  2.50496E+05
 -1.89694E+05  8.29124E+04 -1.10820E+05 -3.28153E+04  1.29134E+03 -5.04995E+04  5.37929E+04  2.39417E+02
  3.52854E+04  5.28897E+04 -1.70586E+04  7.50651E+04 -6.01854E+04  6.27057E+04 -8.34709E+04  3.14813E+04
 -8.00682E+04 -1.13042E+04 -5.64157E+04 -5.05223E+04 -1.49871E+04 -6.86571E+04  2.69007E+04 -4.48768E+04
  3.93030E+04  3.72410E+03  1.60442E+04  4.73672E+04 -3.42440E+04  4.66153E+04 -6.57380E+04 -2.55752E+02
 -5.20496E+04 -5.62673E+04 -6.32711E+03 -7.56013E+04  3.33053E+04 -5.34487E+04  4.66544E+04 -1.66904E+04
  4.21281E+04  1.12045E+04  3.10678E+04  2.47079E+04  1.58185E+04  2.87641E+04 -4.85784E+03  2.68785E+04
 -2.16519E+04  1.26125E+04 -1.88795E+04 -4.51719E+03  4.52967E+03 -7.39709E+03  2.18127E+04  1.11212E+04
  7.24513E+03  3.37583E+04 -3.08643E+04  3.44156E+04 -6.17304E+04  2.30176E+03 -5.60184E+04 -4.15299E+04
 -1.24832E+04 -6.13783E+04  3.84067E+04 -4.38048E+04  5.61626E+04 -2.14216E+03  3.23036E+04  3.09006E+04
 -6.34408E+03  3.39949E+04 -2.89839E+04  1.39068E+04 -2.84152E+04 -5.11173E+03 -1.49937E+04 -1.02677E+04
 -7.68931E+03 -1.19388E+04 -9.95011E+02 -1.69456E+04  6.56146E+03 -2.26504E+04  1.48600E+04 -1.38234E+04
  1.20325E+04  4.55838E+03 -6.76816E+03  1.30350E+04 -1.97752E+04 -2.67418E+03 -8.16988E+03 -3.11456E+04
  2.12574E+04 -4.13858E+04  4.54240E+04 -1.89474E+04  4.26825E+04  1.87997E+04  1.43981E+04  4.21326E+04
 -1.52380E+04  3.15282E+04 -2.38426E+04  1.12387E+03 -8.72805E+03 -2.65583E+04  2.08699E+04 -3.17702E+04
  3.86167E+04 -7.58437E+03  3.21886E+04  2.31065E+04  1.63282E+04  4.31850E+04 -7.61903E+03  4.59982E+04
 -2.90038E+04  3.08425E+04 -3.84049E+04  8.91262E+03 -3.88930E+04 -1.54771E+04 -2.18723E+04 -3.50353E+04
  7.06681E+03 -3.47564E+04  2.95020E+04 -1.32743E+04  2.74462E+04  1.05743E+04  3.38399E+03  1.78451E+04
 -1.30731E+04  7.56090E+03 -9.55637E+03 -7.54750E+03  5.98448E+03 -1.02773E+04  1.71506E+04  6.17001E+03
  1.26860E+04  2.18230E+04 -6.53372E+03  2.36123E+04 -2.14760E+04  9.42746E+03 -2.57489E+04 -6.02966E+03
 -1.75026E+04 -1.66797E+04 -6.24045E+03 -1.76975E+04  3.50316E+03 -1.58380E+04  1.29034E+04 -1.49334E+04
  2.23357E+04 -1.20302E+04  2.89209E+04  1.45364E+03  2.16540E+04  1.67790E+04  4.30673E+03  3.32190E+04
 -1.62670E+04  2.78564E+04 -2.62374E+04  9.61663E+03 -1.97639E+04 -1.02630E+04 -3.69510E+03 -1.40026E+04
  2.33112E+03 -3.87418E+03 -3.13567E+03  5.63842E+03 -1.33597E+04  4.94399E+03 -1.40157E+04 -5.15751E+03
 -8.85235E+03 -1.62312E+04  4.64393E+03 -2.01048E+04  1.30755E+04 -1.47104E+04  1.52210E+04 -1.65888E+03
  9.39456E+03  1.09711E+04 -1.02796E+03  1.66133E+04 -1.07494E+04  9.35978E+03 -1.59761E+04 -3.28032E+03
 -1.18775E+04 -1.44507E+04 -1.68749E+03 -1.97503E+04  8.99086E+03 -1.61417E+04  1.67407E+04 -7.46014E+03
  1.51612E+04  8.64284E+02  1.09559E+04  3.97580E+03  5.34668E+03  5.67223E+02  7.74526E+03 -1.49442E+03
  1.43737E+04  2.82741E+03  1.57659E+04  1.31557E+04  9.72087E+03  2.57787E+04 -3.12126E+03  2.78223E+04
 -1.65060E+04  2.15798E+04 -2.55265E+04  1.05943E+04 -2.62497E+04 -1.95444E+03 -2.22132E+04 -1.50367E+04
 -1.01665E+04 -2.17551E+04  7.33473E+03 -2.01677E+04  1.73148E+04 -1.09505E+04  1.58041E+04  3.82062E+03
  6.78991E+03  1.13626E+04 -7.54186E+03  1.06831E+04 -1.39606E+04  2.32184E+03 -1.06782E+04 -8.32683E+03
 -1.57146E+02 -1.27881E+04  6.43471E+03 -9.72440E+03  8.17485E+03 -1.28972E+03  1.47236E+03  5.32485E+03
 -5.59740E+03  1.38073E+03 -4.41387E+03 -4.66790E+03  4.79836E+02 -1.05527E+04  8.42105E+03 -1.06414E+04
  1.29860E+04 -4.94101E+03  1.28801E+04  2.72209E+03  1.11335E+04  1.01425E+04  5.06209E+03  1.51592E+04
 -1.88410E+03  1.68675E+04 -1.02311E+04  1.10762E+04 -1.16924E+04  2.86147E+03 -8.88733E+03 -1.90395E+03
 -4.50039E+03 -3.41468E+03 -5.79485E+02  1.44479E+03 -1.99708E+03  1.96062E+03 -3.96568E+03  3.83637E+03
 -8.28377E+03 -4.68214E+02 -9.09366E+03 -7.15912E+03 -3.63555E+03 -1.19173E+04  3.63718E+03 -8.87326E+03
  7.27486E+03 -4.15982E+03  5.20439E+03  2.29080E+03  6.91540E+02  3.15254E+03 -3.34471E+03 -1.34238E+02
 -3.58985E+03 -5.31884E+03 -7.60401E+02 -7.50387E+03  4.17180E+03 -8.22408E+03  1.06045E+04 -4.40345E+03
  1.25942E+04  8.84469E+02  9.15042E+03  6.56151E+03  1.98967E+03  9.11638E+03 -5.54631E+03  8.76786E+03
 -7.42535E+03  2.85404E+03 -3.85139E+03 -1.31058E+03  1.39408E+03 -1.78865E+03  4.90606E+03 -8.30614E+02
  4.06585E+03  3.46875E+03  1.00603E+03  6.53198E+03 -4.59723E+03  6.95599E+03 -8.36837E+03  2.01304E+03
 -5.40644E+03 -3.87016E+03  2.68514E+02 -6.94767E+03  4.13631E+03 -3.58816E+03  3.83727E+03  9.70985E+02
  5.38750E+02  3.53070E+03 -4.10982E+03  5.47041E+03 -5.46510E+03  2.38672E+03 -5.00471E+03 -1.50417E+03
 -3.34024E+03 -6.19970E+03  1.22713E+03 -7.46408E+03  6.52019E+03 -4.95424E+03  6.70272E+03  9.78162E+02
  4.99458E+03  5.65836E+03  3.36417E+02  7.55302E+03 -5.41856E+03  4.33023E+03 -5.87393E+03 -2.13872E+02
 -5.98244E+03 -5.25921E+03 -1.44654E+03 -5.51053E+03  2.79310E+03 -4.78358E+03  3.11921E+03 -2.64475E+03
  2.86382E+03 -1.72254E+01 -1.78032E+02  1.12958E+03  7.63500E+02 -5.97144E+02  3.38287E+02 -1.87204E+03
  4.28642E+03 -9.69394E+02  5.98145E+03  6.22379E+02  6.07319E+03  3.45797E+03  5.40057E+03  7.55228E+03
 -1.34620E+03  9.21280E+03 -8.25233E+03  7.31658E+03 -1.05961E+04  1.38453E+03 -8.36231E+03 -2.79271E+03
 -4.38517E+03 -6.89118E+03 -5.13697E+02 -5.52225E+03  1.96466E+03 -2.28182E+03  1.83439E+03 -2.32494E+03
  1.14300E+03 -1.25763E+03  2.21771E+03 -2.53750E+03  3.58933E+03 -1.73768E+03  3.65243E+03  4.51923E+02
  4.69056E+03  1.05609E+03  1.17931E+03  3.82392E+03 -1.58587E+03  3.14232E+03 -4.85015E+03  2.61185E+03
 -5.37038E+03 -8.12206E+02 -1.96559E+03 -3.37975E+03  4.17273E+02 -5.39202E+03  3.64858E+03 -5.81962E+03
  5.38809E+03 -3.43789E+03  7.22347E+03  2.49005E+01  5.29575E+03  4.37167E+03  1.10522E+03  6.36133E+03
 -2.30661E+03  5.83603E+03 -3.54613E+03  1.94573E+03 -2.03732E+03 -8.03165E+02 -5.86244E+02 -6.84172E+02
 -4.14573E+02  2.31499E+02 -9.33097E+02  1.72525E+03 -2.70351E+03  7.45507E+02 -4.53112E+03 -3.42844E+02
 -1.68426E+03 -4.00823E+03  8.07311E+02 -5.03569E+03  2.55413E+03 -4.55456E+03  3.67527E+03 -1.15123E+03
  4.34326E+03  2.36333E+03  2.07278E+03  3.38349E+03 -9.76639E+02  4.81034E+03 -2.80854E+03  2.58074E+03
 -3.88362E+03  5.64534E+02 -3.68441E+03 -2.59300E+03 -2.03127E+02 -3.45436E+03  1.65592E+03 -2.85113E+03
  3.05169E+03 -1.36044E+03  1.73276E+03  6.51432E+02  9.10981E+02  1.84645E+03  7.57910E+02  6.27205E+02
  1.62780E+03  6.05998E+02  1.37000E+03  1.12623E+03  1.29478E+03  2.63066E+03  1.73084E+03  2.05230E+03
 -1.31656E+03  3.24743E+03 -2.97043E+03  4.22611E+03 -3.24699E+03  1.31675E+03 -4.48864E+03 -2.98787E+02
 -1.92142E+03 -4.07593E+03  6.55543E+02 -5.20712E+03  2.03111E+03 -2.91861E+03  3.28166E+03 -9.93075E+02
  2.83206E+03  1.83577E+03  5.35192E+02  2.54194E+03 -7.79131E+02  1.40278E+03 -1.24630E+03  2.09310E+01
 -4.65772E+02 -1.73641E+03  1.30109E+03 -1.73014E+03  1.53210E+03 -9.74030E+02  1.55850E+03  6.77945E+02
  6.82941E+02  2.72552E+02  5.26220E+02 -4.18542E+02 -2.82280E+02  7.09273E+02  1.53984E+03 -2.90073E+01
 -7.15078E+01 -2.00695E+01  2.00353E+03  4.56153E+02  5.50085E+02  2.30111E+03 -4.15345E+02  2.95465E+03
 -1.71095E+03  1.05986E+03 -2.09982E+03  9.43696E+01 -2.03295E+03 -6.01569E+02 -5.41946E+02 -1.09891E+03
  2.82220E+02 -1.33460E+03  1.00798E+03 -7.44990E+02  4.55679E+02  1.06532E+03 -6.65109E+02  1.07615E+03
 -1.63726E+03  9.39745E+02 -1.15014E+03 -1.27710E+03 -7.77194E+02 -1.96995E+03  5.83677E+01 -1.69189E+03
  7.72752E+02 -5.08311E+02  1.07976E+03  3.55148E+02  1.19172E+03 -1.82396E+02  1.78095E+02  9.07224E+02
 -4.97774E+02  7.28089E+01 -8.39000E+02 -1.03022E+02  5.42580E+02 -6.90832E+02  1.83189E+03 -8.77594E+02
  1.52113E+03  1.44767E+02  2.82119E+03  9.46836E+02  1.34120E+03  1.97696E+03 -4.15130E+02  1.54521E+03
 -1.77732E+03  4.41399E+02 -1.79363E+03 -1.99489E+02 -1.02290E+03 -1.27577E+03  1.01420E+02 -8.70423E+02
  1.46987E+03 -7.19837E+02  9.29144E+02  9.05946E+02  3.08955E+02  1.48505E+03  2.86689E+02  1.22880E+03
 -5.63558E+02  1.37212E+03 -3.33584E+02  6.03766E+00 -1.34169E+01  3.29530E+02 -8.30849E+02  7.25397E+02
 -5.92903E+02  1.18154E+03 -1.83727E+03  5.18307E+02 -1.70231E+03  9.70602E+01 -2.64093E+03 -8.49109E+02
 -1.02073E+03 -2.53295E+03  5.68522E+02 -2.98054E+03  1.17929E+03 -2.67250E+03  2.67405E+03 -1.04503E+03
  2.47070E+03 -1.29893E+02  1.23302E+03  1.46824E+03 -2.88842E+02  1.54810E+03 -7.42963E+02  1.34919E+03
 -9.43366E+02  6.28265E+02 -4.72547E+02 -2.77438E+02 -5.44472E+02  2.39254E+02 -6.63689E+02  7.24870E+01
 -1.09436E+03  1.79927E+02 -9.02065E+02  1.64373E+02  8.02418E+00 -8.73505E+02 -3.62932E+02 -7.28742E+02
  1.42435E+03 -5.92828E+02  5.98074E+02  4.81058E+02  1.00856E+03  1.31210E+03 -3.42170E+02  1.42707E+03
 -1.05736E+03  2.40806E+03 -1.75602E+03  1.33729E+03 -1.87193E+03 -3.69256E+02 -1.32136E+03 -1.47838E+03
 -8.58382E+02 -1.39418E+03  1.91030E+02 -1.53239E+03  7.38095E+02 -7.74658E+02  6.18297E+02  2.37044E+02
  7.77593E+02  2.83949E+02 -9.61766E+00  3.16078E+02 -1.30231E+02 -2.01836E+02  1.40018E+02 -3.39145E+02
  2.95498E+02  2.29246E+02  1.70407E+02  3.87383E+02 -1.48075E+01  6.23392E+02  6.26634E+02  5.78492E+02
 -4.97179E+02  5.09403E+02 -5.72770E+02  1.28195E+02 -8.24484E+02 -6.72127E+02  6.36739E+01 -1.20779E+03
  6.13634E+02 -8.13320E+02  4.68972E+02 -1.51387E+02  9.17158E+02 -5.97827E+02  4.35896E+02  9.80366E+02
  2.20829E+02  7.46486E+02 -1.00520E+02  5.90364E+02 -5.91894E+02  9.49761E+02 -6.05071E+02 -1.03531E+02
  1.61864E+02 -8.53027E+01 -4.75506E+02 -1.25611E+02 -6.10779E+02 -9.41085E+00 -1.08749E+03 -1.97482E+02
 -1.00896E+03  2.62478E+02 -5.43727E+02 -9.12151E+02  5.30545E+02 -1.77879E+03  5.61277E+02 -5.99271E+01
  5.93603E+02  1.64037E+02 -1.78466E+01  2.97441E+02 -1.94305E+02  9.94945E+02 -9.18551E+01  9.43829E+02
