 $NMID ID='MM_0lb_SNR800_16hz_g40_69.RAW', FMTDAT='(8E13.5)'
 TRAMP=1., VOLUME=1. $END
  3.09883E+05  3.10261E+02  3.37435E+05  2.50336E+05  8.47400E+04  3.37579E+05 -1.32690E+05  2.50446E+05
 -1.89674E+05  8.26270E+04 -1.11178E+05 -3.27538E+04  1.25543E+03 -5.02540E+04  5.38705E+04 -1.05761E+01
  3.52668E+04  5.26768E+04 -1.71205E+04  7.52703E+04 -6.06517E+04  6.31227E+04 -8.33074E+04  3.16187E+04
 -8.02394E+04 -1.11379E+04 -5.66240E+04 -5.06326E+04 -1.48198E+04 -6.85105E+04  2.68269E+04 -4.49557E+04
  3.95604E+04  3.59385E+03  1.58160E+04  4.71873E+04 -3.40779E+04  4.65577E+04 -6.57614E+04 -4.70618E+02
 -5.22742E+04 -5.61095E+04 -6.41993E+03 -7.58251E+04  3.31920E+04 -5.37085E+04  4.69076E+04 -1.67544E+04
  4.18294E+04  1.11549E+04  3.11710E+04  2.48561E+04  1.60931E+04  2.82885E+04 -4.65503E+03  2.70219E+04
 -2.18306E+04  1.25373E+04 -1.93101E+04 -4.63220E+03  4.80183E+03 -7.52353E+03  2.13701E+04  1.15100E+04
  7.17863E+03  3.37778E+04 -3.06914E+04  3.40856E+04 -6.18814E+04  2.11932E+03 -5.57764E+04 -4.16896E+04
 -1.23889E+04 -6.15457E+04  3.86596E+04 -4.42563E+04  5.64418E+04 -2.10175E+03  3.24175E+04  3.13790E+04
 -6.53596E+03  3.39883E+04 -2.88127E+04  1.43317E+04 -2.84823E+04 -4.95057E+03 -1.52200E+04 -1.03343E+04
 -7.72659E+03 -1.22184E+04 -1.10786E+03 -1.73105E+04  7.13568E+03 -2.29397E+04  1.49616E+04 -1.37485E+04
  1.19145E+04  4.37260E+03 -6.77053E+03  1.29345E+04 -1.99345E+04 -3.14763E+03 -8.34682E+03 -3.12641E+04
  2.15220E+04 -4.14462E+04  4.55985E+04 -1.89890E+04  4.29286E+04  1.87773E+04  1.45887E+04  4.27981E+04
 -1.53717E+04  3.18726E+04 -2.37233E+04  1.46251E+03 -8.69665E+03 -2.69434E+04  2.07395E+04 -3.20806E+04
  3.91067E+04 -7.58445E+03  3.29651E+04  2.30968E+04  1.65263E+04  4.37862E+04 -7.86125E+03  4.66439E+04
 -2.95922E+04  3.08899E+04 -3.90022E+04  8.75238E+03 -3.97742E+04 -1.56471E+04 -2.20174E+04 -3.55956E+04
  6.99419E+03 -3.53977E+04  2.99467E+04 -1.35415E+04  2.76451E+04  1.07569E+04  3.19504E+03  1.81903E+04
 -1.31880E+04  7.54852E+03 -9.85202E+03 -7.35895E+03  5.88537E+03 -1.02405E+04  1.72493E+04  6.28934E+03
  1.28056E+04  2.17018E+04 -6.45681E+03  2.39557E+04 -2.17686E+04  9.62593E+03 -2.60004E+04 -5.93123E+03
 -1.79665E+04 -1.65784E+04 -6.32796E+03 -1.78446E+04  3.78828E+03 -1.62972E+04  1.36204E+04 -1.59005E+04
  2.29554E+04 -1.20168E+04  2.98932E+04  1.53929E+03  2.21399E+04  1.71947E+04  4.02754E+03  3.37591E+04
 -1.66818E+04  2.85941E+04 -2.67976E+04  1.02076E+04 -2.00777E+04 -1.03176E+04 -3.80349E+03 -1.37125E+04
  2.41487E+03 -3.65842E+03 -3.47441E+03  6.02286E+03 -1.42295E+04  5.21794E+03 -1.44663E+04 -5.88573E+03
 -9.25934E+03 -1.65476E+04  4.88253E+03 -2.04022E+04  1.35114E+04 -1.48622E+04  1.58451E+04 -1.63277E+03
  9.80552E+03  1.14265E+04 -1.10581E+03  1.66690E+04 -1.11576E+04  9.32288E+03 -1.65660E+04 -3.51644E+03
 -1.24080E+04 -1.52090E+04 -1.69196E+03 -2.04231E+04  9.23339E+03 -1.66507E+04  1.73734E+04 -8.02784E+03
  1.55867E+04  5.47686E+02  1.11405E+04  3.99535E+03  5.64656E+03  6.11509E+02  8.32781E+03 -1.55474E+03
  1.51843E+04  2.86520E+03  1.64609E+04  1.38418E+04  1.05488E+04  2.67662E+04 -2.82177E+03  2.94695E+04
 -1.73380E+04  2.26911E+04 -2.69641E+04  1.11795E+04 -2.79921E+04 -1.85290E+03 -2.36406E+04 -1.61881E+04
 -1.08021E+04 -2.31774E+04  7.79934E+03 -2.09629E+04  1.81201E+04 -1.13794E+04  1.68931E+04  4.14332E+03
  6.88044E+03  1.21543E+04 -7.73231E+03  1.11544E+04 -1.44323E+04  2.65597E+03 -1.13650E+04 -8.59881E+03
 -1.91490E+02 -1.33830E+04  6.94914E+03 -1.02002E+04  8.93782E+03 -1.36643E+03  1.78399E+03  5.98005E+03
 -5.95594E+03  1.44500E+03 -4.54099E+03 -4.82788E+03  3.98955E+02 -1.12724E+04  8.41359E+03 -1.14761E+04
  1.38927E+04 -5.52796E+03  1.39310E+04  2.86394E+03  1.24310E+04  1.09797E+04  5.73061E+03  1.62678E+04
 -2.34793E+03  1.81154E+04 -1.14099E+04  1.13233E+04 -1.31018E+04  3.29657E+03 -9.23902E+03 -2.34229E+03
 -4.88253E+03 -3.65733E+03 -8.83900E+02  1.18443E+03 -2.43148E+03  2.08744E+03 -4.24855E+03  3.94451E+03
 -8.93616E+03 -4.64345E+02 -9.70648E+03 -7.70583E+03 -3.65704E+03 -1.27442E+04  3.99212E+03 -9.38298E+03
  8.19138E+03 -4.25856E+03  5.81833E+03  2.73126E+03  3.38718E+02  3.44389E+03 -3.99469E+03 -8.30328E+01
 -3.86369E+03 -6.03718E+03 -8.12911E+02 -8.55034E+03  4.59345E+03 -9.27246E+03  1.13294E+04 -4.69280E+03
  1.33263E+04  7.64082E+02  1.00970E+04  7.86966E+03  1.86267E+03  1.00301E+04 -6.03389E+03  9.27444E+03
 -7.67010E+03  3.22326E+03 -4.04879E+03 -1.64027E+03  1.55962E+03 -2.16773E+03  4.93252E+03 -1.25694E+03
  4.64342E+03  3.89144E+03  9.97591E+02  7.27963E+03 -5.23069E+03  7.25529E+03 -9.00318E+03  1.72807E+03
 -5.72964E+03 -4.18458E+03  3.86871E+02 -7.78371E+03  4.41243E+03 -3.56154E+03  4.48972E+03  1.24610E+03
  8.64707E+02  4.11261E+03 -4.98625E+03  5.59935E+03 -5.97733E+03  2.77335E+03 -5.94953E+03 -1.62502E+03
 -3.51827E+03 -7.65292E+03  1.51335E+03 -8.71751E+03  7.27236E+03 -5.63950E+03  8.26383E+03  1.22614E+03
  5.80398E+03  6.41237E+03 -1.19530E+02  8.32484E+03 -6.01966E+03  4.58193E+03 -6.69005E+03 -4.50208E+02
 -6.28224E+03 -5.98428E+03 -1.59590E+03 -6.05633E+03  3.43330E+03 -5.25503E+03  3.71952E+03 -3.17143E+03
  2.94514E+03  5.91049E+02 -1.77335E+02  1.39844E+03  1.79400E+02 -9.07799E+02  4.56401E+02 -2.49421E+03
  4.96572E+03 -1.26970E+03  6.70655E+03  8.56453E+02  7.11020E+03  4.33522E+03  5.92758E+03  9.18552E+03
 -1.82552E+03  1.06030E+04 -9.30620E+03  8.01718E+03 -1.21339E+04  1.46696E+03 -9.64277E+03 -3.42988E+03
 -4.81410E+03 -8.18857E+03 -3.41715E+02 -6.31250E+03  2.51890E+03 -2.81332E+03  2.05297E+03 -2.59233E+03
  1.36827E+03 -1.82713E+03  2.50297E+03 -2.35144E+03  3.68405E+03 -1.41866E+03  4.20577E+03  1.36763E+02
  5.38655E+03  1.43561E+03  1.72008E+03  4.36157E+03 -1.49095E+03  4.27668E+03 -5.46524E+03  3.42801E+03
 -6.30215E+03 -1.16837E+03 -2.96471E+03 -4.35331E+03  2.89002E+02 -6.58530E+03  4.31508E+03 -6.96566E+03
  6.87872E+03 -4.11223E+03  8.85330E+03  5.12849E+02  5.97884E+03  5.51892E+03  1.09008E+03  7.58827E+03
 -2.77093E+03  7.05355E+03 -4.45403E+03  2.35654E+03 -2.80066E+03 -9.35133E+02 -6.83396E+02 -6.67513E+02
 -5.82963E+02  2.47059E+02 -1.12820E+03  2.04510E+03 -3.12943E+03  1.03710E+03 -4.80317E+03 -6.27874E+02
 -2.46348E+03 -4.77139E+03  6.56059E+02 -6.11821E+03  3.40750E+03 -5.50218E+03  5.20322E+03 -1.59739E+03
  5.42802E+03  3.09712E+03  2.72196E+03  4.59764E+03 -1.24211E+03  5.99246E+03 -3.95935E+03  3.52388E+03
 -5.00657E+03  6.09855E+02 -4.45701E+03 -3.42378E+03 -2.68350E+02 -4.45963E+03  2.23229E+03 -3.08302E+03
  3.75162E+03 -1.67061E+03  2.45400E+03  8.29332E+02  8.27742E+02  2.02063E+03  6.02872E+02  8.15572E+02
  1.76126E+03  7.66118E+02  1.49593E+03  1.25499E+03  1.42228E+03  2.61816E+03  1.69130E+03  2.21471E+03
 -1.47802E+03  4.34777E+03 -3.76474E+03  5.07381E+03 -4.48350E+03  1.41859E+03 -5.84968E+03 -1.06511E+03
 -2.50559E+03 -5.22690E+03  8.72363E+02 -6.20248E+03  2.89633E+03 -3.65381E+03  4.38047E+03 -1.33191E+03
  3.62755E+03  2.43292E+03  4.67053E+02  3.09300E+03 -1.51379E+03  1.98911E+03 -1.53465E+03 -4.37205E+02
 -9.91644E+02 -2.37306E+03  1.30425E+03 -2.26100E+03  1.90516E+03 -1.38148E+03  2.10127E+03  5.72754E+02
  1.08006E+03  5.04016E+02  9.01765E+02  1.60980E+02 -2.10813E+02  7.53515E+02  1.86307E+03 -3.65193E+02
  2.75520E+02 -3.68090E+02  2.45348E+03  8.60962E+02  8.39647E+02  3.08717E+03 -5.03320E+02  3.95410E+03
 -2.59303E+03  1.95319E+03 -2.98587E+03  6.66098E+02 -3.05434E+03 -1.14775E+03 -6.82453E+02 -1.65547E+03
  2.17344E+02 -1.66706E+03  1.34144E+03 -1.07805E+03  9.17987E+02  1.62335E+03 -8.40915E+02  1.69153E+03
 -1.85078E+03  7.57864E+02 -1.90923E+03 -1.60001E+03 -1.16304E+03 -2.83497E+03  3.21172E+02 -2.52132E+03
  9.94714E+02 -1.07739E+03  1.38886E+03  3.59178E+02  1.90482E+03  2.28061E+02  4.53854E+02  1.75258E+03
 -5.31944E+02  2.80751E+02 -1.20470E+03 -6.98961E+02  7.22136E+02 -1.49101E+03  2.56980E+03 -1.22864E+03
  2.36854E+03  3.45328E+02  3.68844E+03  1.66301E+03  1.18577E+03  2.54288E+03 -8.57448E+02  2.79161E+03
 -2.24299E+03  8.07268E+02 -2.29367E+03 -3.96518E+02 -1.40043E+03 -1.97034E+03  1.96222E+02 -1.04856E+03
  1.99773E+03 -8.06598E+02  1.21637E+03  1.06310E+03  2.84301E+02  1.91310E+03  3.58337E+02  1.52941E+03
 -4.73848E+02  1.42514E+03 -7.87721E+02  2.69010E+02 -2.29669E+02  5.03900E+02 -6.35381E+02  8.57931E+02
 -6.75359E+02  1.21792E+03 -2.37689E+03  7.38254E+02 -2.68068E+03  4.71378E+02 -3.42485E+03 -1.59783E+03
 -1.58084E+03 -3.55137E+03  8.95089E+02 -4.05841E+03  1.88897E+03 -3.43622E+03  4.40180E+03 -1.42097E+03
  4.33436E+03  1.57318E+02  2.09655E+03  2.41098E+03 -5.22207E+02  2.79199E+03 -1.26639E+03  2.08333E+03
 -1.38658E+03  1.15702E+03 -8.04644E+02 -3.39659E+02 -4.81306E+02  1.59618E+02 -6.73996E+02  2.23359E+01
 -1.06529E+03 -7.92268E+01 -1.05309E+03 -2.81453E+01  2.05161E+02 -8.99393E+02 -1.00515E+02 -1.26994E+03
  1.76370E+03 -1.05543E+03  1.34749E+03  1.79335E+02  1.55086E+03  1.62899E+03 -2.90058E+02  2.30248E+03
 -1.38641E+03  3.51337E+03 -3.08672E+03  2.03173E+03 -3.12083E+03 -3.29040E+02 -2.18693E+03 -1.85816E+03
 -1.35557E+03 -2.45915E+03  3.13408E+02 -2.30228E+03  1.22109E+03 -7.84950E+02  1.15363E+03  3.03678E+02
  9.35279E+02  4.42788E+02 -7.53704E+00  3.99384E+02 -4.72766E+02  1.90919E+02  1.03710E+02 -2.70570E+02
  7.39120E+02  4.30727E+01  6.11631E+02  3.16452E+02  3.41571E+02  7.29390E+02  3.64667E+02  7.64824E+02
 -9.98725E+02  9.99043E+02 -1.36737E+03  9.80802E+01 -1.23968E+03 -1.18090E+03 -1.85062E+02 -1.97767E+03
  1.04192E+03 -1.54941E+03  1.36519E+03 -3.98013E+02  1.72068E+03 -2.79702E+02  9.06900E+02  1.46672E+03
  3.77156E+02  1.10919E+03 -4.02038E+02  1.13236E+03 -8.06013E+02  1.01265E+03 -9.50834E+02  3.01016E+02
 -4.84512E+02 -1.45812E+01 -6.31285E+02  3.42760E+02 -9.05894E+02  8.87733E+01 -1.37767E+03 -2.29236E+02
 -1.35284E+03  1.26545E+02 -6.97370E+02 -1.35210E+03  1.01714E+03 -1.90063E+03  1.53282E+03 -8.11895E+02
  1.53979E+03  3.27209E+02 -2.57452E+01  6.73225E+02 -2.44947E+02  1.25665E+03 -8.85470E+02  1.28596E+03
