 $NMID ID='MM_0lb_SNR800_13hz_g45_7.RAW', FMTDAT='(8E13.5)'
 TRAMP=1., VOLUME=1. $END
  3.10246E+05  5.12229E+02  3.37410E+05  2.50473E+05  8.47516E+04  3.38000E+05 -1.32602E+05  2.51237E+05
 -1.90335E+05  8.31590E+04 -1.12036E+05 -3.26592E+04  8.80921E+02 -5.03175E+04  5.35540E+04 -3.02486E+02
  3.54399E+04  5.28924E+04 -1.68329E+04  7.52148E+04 -6.09677E+04  6.35588E+04 -8.42158E+04  3.21672E+04
 -8.09773E+04 -1.12779E+04 -5.73308E+04 -5.12375E+04 -1.54968E+04 -6.96658E+04  2.75361E+04 -4.59935E+04
  4.00573E+04  3.90073E+03  1.58811E+04  4.78025E+04 -3.43444E+04  4.69983E+04 -6.65652E+04 -2.53034E+02
 -5.37053E+04 -5.66286E+04 -7.00547E+03 -7.71588E+04  3.37270E+04 -5.50790E+04  4.80500E+04 -1.73468E+04
  4.35921E+04  1.11830E+04  3.18793E+04  2.56199E+04  1.58621E+04  2.96403E+04 -5.23222E+03  2.73509E+04
 -2.21990E+04  1.22329E+04 -1.86075E+04 -4.94103E+03  6.13822E+03 -7.51444E+03  2.24892E+04  1.25862E+04
  7.48274E+03  3.55665E+04 -3.19861E+04  3.57154E+04 -6.36580E+04  1.91816E+03 -5.69640E+04 -4.28461E+04
 -1.29443E+04 -6.34777E+04  3.99416E+04 -4.54024E+04  5.82878E+04 -2.46911E+03  3.45079E+04  3.25214E+04
 -5.88063E+03  3.62153E+04 -3.01471E+04  1.64833E+04 -3.07369E+04 -4.80931E+03 -1.70243E+04 -1.09739E+04
 -8.41672E+03 -1.31770E+04 -8.49753E+02 -1.83795E+04  7.32899E+03 -2.31099E+04  1.54702E+04 -1.33354E+04
  1.10192E+04  5.34578E+03 -8.71288E+03  1.31718E+04 -2.15833E+04 -4.49295E+03 -8.47312E+03 -3.43059E+04
  2.31052E+04 -4.36757E+04  4.83187E+04 -1.97512E+04  4.52659E+04  1.96820E+04  1.59042E+04  4.44761E+04
 -1.59260E+04  3.37874E+04 -2.57271E+04  1.93182E+03 -9.76013E+03 -2.83209E+04  2.11564E+04 -3.40917E+04
  4.13635E+04 -9.36220E+03  3.59330E+04  2.41652E+04  1.83818E+04  4.67697E+04 -7.92632E+03  5.09285E+04
 -3.22138E+04  3.42996E+04 -4.26501E+04  9.75162E+03 -4.29656E+04 -1.72462E+04 -2.40745E+04 -3.85916E+04
  7.32235E+03 -3.81771E+04  3.16662E+04 -1.50695E+04  2.93285E+04  1.10684E+04  3.95203E+03  1.91427E+04
 -1.38289E+04  8.35661E+03 -1.05985E+04 -7.79089E+03  5.47125E+03 -1.07033E+04  1.84036E+04  6.25128E+03
  1.37798E+04  2.21213E+04 -5.42940E+03  2.53394E+04 -2.24148E+04  1.18809E+04 -2.85124E+04 -4.66103E+03
 -2.09261E+04 -1.75870E+04 -8.52105E+03 -2.08979E+04  4.05504E+03 -2.04815E+04  1.61625E+04 -1.87531E+04
  2.71155E+04 -1.30139E+04  3.28005E+04  3.24661E+03  2.42348E+04  2.01870E+04  4.15876E+03  3.67638E+04
 -1.78227E+04  3.08002E+04 -2.79467E+04  1.05663E+04 -2.08363E+04 -1.03125E+04 -4.22936E+03 -1.34296E+04
  1.46279E+03 -2.65568E+03 -5.26692E+03  6.73388E+03 -1.70354E+04  5.27951E+03 -1.69484E+04 -7.14254E+03
 -1.01253E+04 -1.90303E+04  5.10666E+03 -2.36358E+04  1.55589E+04 -1.69750E+04  1.84153E+04 -1.72950E+03
  1.14933E+04  1.35055E+04 -1.05637E+03  1.96537E+04 -1.35240E+04  1.11373E+04 -1.93854E+04 -4.25136E+03
 -1.44229E+04 -1.76521E+04 -1.86697E+03 -2.32201E+04  1.03568E+04 -1.91664E+04  1.96754E+04 -9.45964E+03
  1.81875E+04  2.28296E+02  1.33331E+04  4.40414E+03  7.52602E+03  1.01917E+03  9.74942E+03 -1.68931E+03
  1.77071E+04  2.56309E+03  1.97397E+04  1.53606E+04  1.33105E+04  3.10531E+04 -2.66777E+03  3.52844E+04
 -2.02829E+04  2.85038E+04 -3.26753E+04  1.46415E+04 -3.45074E+04 -2.26067E+03 -2.88564E+04 -1.98971E+04
 -1.22432E+04 -2.86119E+04  1.01591E+04 -2.54835E+04  2.21079E+04 -1.27922E+04  1.97070E+04  5.53411E+03
  7.13313E+03  1.51532E+04 -9.18983E+03  1.28910E+04 -1.65446E+04  2.66598E+03 -1.28348E+04 -1.04962E+04
 -1.48900E+02 -1.54135E+04  8.46677E+03 -1.16014E+04  1.09365E+04 -1.53027E+03  2.34183E+03  6.96752E+03
 -6.79438E+03  2.64921E+03 -6.50754E+03 -5.60590E+03 -8.15452E+02 -1.42910E+04  9.84474E+03 -1.48316E+04
  1.74513E+04 -8.00632E+03  1.87177E+04  2.94047E+03  1.61577E+04  1.36733E+04  7.69800E+03  2.15258E+04
 -3.52733E+03  2.30594E+04 -1.43433E+04  1.46029E+04 -1.69223E+04  3.44510E+03 -1.17672E+04 -3.76406E+03
 -5.87289E+03 -5.28807E+03 -1.08898E+03  8.09626E+02 -2.18928E+03  2.80631E+03 -5.49171E+03  4.35853E+03
 -1.11903E+04 -6.31487E+02 -1.15849E+04 -9.28536E+03 -4.98149E+03 -1.54022E+04  4.78778E+03 -1.17271E+04
  9.93179E+03 -5.22053E+03  6.89864E+03  3.29232E+03  1.15834E+02  4.71061E+03 -5.65635E+03 -3.17082E+02
 -5.48068E+03 -7.64622E+03 -1.25782E+03 -1.09753E+04  6.39635E+03 -1.20257E+04  1.42872E+04 -6.16003E+03
  1.72506E+04  1.42722E+03  1.26689E+04  9.94299E+03  2.53955E+03  1.35064E+04 -7.35320E+03  1.17196E+04
 -9.77743E+03  3.54285E+03 -5.04733E+03 -2.28978E+03  1.82337E+03 -2.97357E+03  6.32446E+03 -1.22057E+03
  5.66318E+03  5.13798E+03  9.91721E+02  9.29403E+03 -6.54403E+03  9.37548E+03 -1.14755E+04  2.21922E+03
 -7.61096E+03 -5.89823E+03  3.00066E+02 -1.03003E+04  5.95414E+03 -4.90134E+03  6.25446E+03  2.01932E+03
  1.32475E+03  6.54807E+03 -6.33942E+03  7.83586E+03 -8.86747E+03  3.84337E+03 -9.04435E+03 -3.14218E+03
 -5.19149E+03 -1.02784E+04  2.22353E+03 -1.23223E+04  1.00433E+04 -7.52637E+03  1.12857E+04  1.93864E+03
  6.95802E+03  8.88805E+03 -3.90358E+02  1.09376E+04 -8.28844E+03  6.31376E+03 -8.51338E+03 -6.28134E+02
 -8.21427E+03 -7.40916E+03 -1.26871E+03 -8.47609E+03  4.48344E+03 -6.96337E+03  4.85264E+03 -3.25212E+03
  3.63271E+03  6.30766E+02 -3.63378E+02  1.83057E+03 -7.96681E+01 -1.92394E+03  1.35599E+03 -4.64197E+03
  7.04221E+03 -2.71033E+03  1.03580E+04  1.33738E+03  1.00642E+04  6.79341E+03  7.58403E+03  1.36495E+04
 -2.79629E+03  1.52652E+04 -1.33063E+04  1.16781E+04 -1.69275E+04  2.19333E+03 -1.35042E+04 -5.73572E+03
 -6.99358E+03 -1.12494E+04 -5.93171E+02 -9.47181E+03  3.31792E+03 -4.91921E+03  3.11892E+03 -3.13465E+03
  2.25724E+03 -2.58506E+03  3.11220E+03 -2.93964E+03  4.38206E+03 -2.05395E+03  5.52110E+03 -3.21902E+02
  7.32496E+03  1.63219E+03  3.42321E+03  6.39071E+03 -2.16537E+03  6.67130E+03 -7.34198E+03  5.29757E+03
 -9.06625E+03 -1.25167E+03 -5.13503E+03 -6.68605E+03 -2.75636E+02 -1.01473E+04  5.54618E+03 -9.59905E+03
  1.01052E+04 -5.50718E+03  1.23556E+04  9.61841E+02  8.51559E+03  8.60313E+03  1.65697E+03  1.15039E+04
 -4.36357E+03  9.91209E+03 -6.37432E+03  3.43687E+03 -4.17149E+03 -1.16821E+03 -1.56332E+03 -1.39463E+03
 -8.31802E+02  1.57789E+02 -1.50412E+03  2.69351E+03 -4.10081E+03  1.64159E+03 -6.67921E+03 -1.10828E+03
 -4.03122E+03 -6.72825E+03  4.33527E+02 -8.64331E+03  5.51844E+03 -8.29139E+03  8.48172E+03 -2.44782E+03
  8.74710E+03  4.62377E+03  3.90732E+03  7.67650E+03 -1.62568E+03  8.91969E+03 -6.30333E+03  5.65156E+03
 -8.08974E+03  5.46040E+02 -6.73434E+03 -5.23398E+03 -3.95398E+02 -7.03335E+03  3.67809E+03 -5.24318E+03
  5.46150E+03 -2.00643E+03  3.54047E+03  1.42093E+03  1.36446E+03  2.95355E+03  1.13327E+03  8.59279E+02
  2.01350E+03  7.57628E+02  1.94303E+03  1.55627E+03  2.68655E+03  3.33536E+03  2.35119E+03  4.26750E+03
 -1.58264E+03  6.67122E+03 -5.83170E+03  7.18482E+03 -8.13104E+03  1.67840E+03 -8.94837E+03 -3.08875E+03
 -4.16791E+03 -8.30178E+03  1.10802E+03 -9.38944E+03  5.13917E+03 -5.99636E+03  6.76437E+03 -1.71247E+03
  5.05028E+03  3.32880E+03  1.34071E+03  5.12500E+03 -2.31977E+03  2.88894E+03 -3.30971E+03 -2.96097E+02
 -1.30794E+03 -3.55488E+03  2.08214E+03 -3.37013E+03  3.19778E+03 -1.76953E+03  3.19898E+03  7.57410E+02
  2.15192E+03  1.67019E+03  1.18312E+03  1.03142E+03 -5.55588E+02  1.29073E+03  1.58355E+03 -3.49554E+02
  8.95509E+02 -4.97280E+02  3.62865E+03  1.20058E+03  1.60848E+03  4.70253E+03 -6.54405E+02  5.74901E+03
 -3.72223E+03  3.56581E+03 -5.32084E+03  1.12980E+03 -4.54875E+03 -2.23271E+03 -1.69980E+03 -3.00952E+03
  4.98072E+02 -3.15601E+03  2.24820E+03 -1.88936E+03  1.89560E+03  1.53708E+03 -8.81676E+02  2.72136E+03
 -3.53039E+03  1.50305E+03 -3.32956E+03 -2.21249E+03 -1.65585E+03 -4.53855E+03  7.35647E+02 -3.91006E+03
  2.29550E+03 -2.47028E+03  2.98492E+03 -7.25734E+01  2.90625E+03  6.55601E+02  4.35127E+02  2.34348E+03
 -1.51858E+03  4.74494E+02 -1.98884E+03 -1.19885E+03  8.74646E+02 -2.92247E+03  4.04572E+03 -2.69384E+03
  4.70865E+03  5.93786E+02  4.94952E+03  3.46159E+03  2.07522E+03  5.16409E+03 -1.40195E+03  4.72897E+03
 -3.65990E+03  1.65433E+03 -4.31774E+03 -6.66426E+02 -2.39703E+03 -3.56696E+03  5.35307E+02 -2.65629E+03
  3.08959E+03 -1.28015E+03  2.30165E+03  1.31989E+03  7.81690E+02  2.70926E+03 -3.13759E+02  2.63738E+03
 -1.03465E+03  1.76392E+03 -1.28388E+03  5.44817E+02 -5.51971E+02  2.35455E+02 -1.03590E+03  1.04163E+03
 -1.44004E+03  1.96723E+03 -3.68977E+03  1.73136E+03 -5.13026E+03  2.63939E+02 -5.97367E+03 -3.00685E+03
 -2.75117E+03 -6.75746E+03  1.55898E+03 -7.75760E+03  4.34163E+03 -6.30973E+03  7.19371E+03 -2.06627E+03
  6.44073E+03  8.96876E+02  3.86474E+03  4.53211E+03  2.74100E+02  4.87988E+03 -1.89879E+03  3.43653E+03
 -3.05870E+03  1.50898E+03 -1.83177E+03 -4.37717E+02 -6.85937E+02 -1.12170E+02 -7.39378E+02  5.06646E+01
 -1.62419E+03 -8.06361E+01 -1.40362E+03  5.09946E+01 -1.02850E+02 -1.49701E+03  7.17982E+00 -1.91277E+03
  2.59796E+03 -1.46433E+03  2.62711E+03 -1.80384E+01  3.29628E+03  2.73248E+03  3.31937E+02  4.73286E+03
 -2.40023E+03  5.59620E+03 -5.11811E+03  3.26058E+03 -5.72798E+03 -5.94497E+02 -4.02443E+03 -3.67450E+03
 -2.28161E+03 -4.53674E+03  1.23270E+03 -4.45724E+03  2.97022E+03 -2.59571E+03  3.05354E+03 -5.68456E+01
  1.70766E+03  1.38301E+03 -2.28126E+02  1.82937E+03 -9.13988E+02 -1.58507E+02 -1.89914E+02 -1.34188E+03
  1.18199E+03 -3.23230E+02  1.48389E+03  1.03701E+03  1.04416E+03  1.88990E+03  2.79916E+02  2.03673E+03
 -1.97385E+03  2.09742E+03 -2.55409E+03  3.08646E+01 -2.74146E+03 -2.06407E+03 -3.94854E+01 -3.74937E+03
  2.20824E+03 -2.58155E+03  3.03136E+03 -8.35442E+02  3.35675E+03  8.05076E+01  1.85584E+03  3.10038E+03
  6.47835E+02  3.03415E+03 -9.99077E+02  2.21877E+03 -1.64089E+03  1.33482E+03 -1.65074E+03 -1.17417E+02
 -7.30119E+02  9.16448E+01 -1.48222E+03  2.20144E+02 -1.89128E+03  4.68086E+02 -2.18442E+03 -8.83781E+02
 -2.52667E+03 -1.19313E+03 -6.42020E+02 -3.12855E+03  1.34829E+03 -3.54018E+03  2.45364E+03 -1.53493E+03
  2.97005E+03  8.96764E+01  1.27389E+03  2.00008E+03 -2.74897E+02  2.89783E+03 -1.97338E+03  1.96438E+03
