 $NMID ID='MM_0lb_SNR800_20hz_g55_33.RAW', FMTDAT='(8E13.5)'
 TRAMP=1., VOLUME=1. $END
  3.09946E+05  2.99563E+02  3.37665E+05  2.50339E+05  8.44124E+04  3.37472E+05 -1.32399E+05  2.50268E+05
 -1.89768E+05  8.25995E+04 -1.11025E+05 -3.29379E+04  1.40363E+03 -5.06534E+04  5.39941E+04  2.73447E+02
  3.52359E+04  5.29702E+04 -1.67366E+04  7.50583E+04 -6.06656E+04  6.27750E+04 -8.30456E+04  3.16540E+04
 -7.97684E+04 -1.10246E+04 -5.62370E+04 -5.06318E+04 -1.50572E+04 -6.85588E+04  2.68006E+04 -4.48257E+04
  3.91367E+04  4.07088E+03  1.55483E+04  4.71247E+04 -3.38695E+04  4.63849E+04 -6.55895E+04 -6.30948E+02
 -5.20243E+04 -5.60762E+04 -6.26640E+03 -7.52597E+04  3.31933E+04 -5.34812E+04  4.66533E+04 -1.62400E+04
  4.17061E+04  1.10423E+04  3.09946E+04  2.44811E+04  1.57264E+04  2.85791E+04 -4.84174E+03  2.69046E+04
 -2.14824E+04  1.28800E+04 -1.92457E+04 -4.16936E+03  4.71861E+03 -7.37369E+03  2.12955E+04  1.12437E+04
  7.72201E+03  3.32699E+04 -3.06101E+04  3.40173E+04 -6.13050E+04  2.03576E+03 -5.56677E+04 -4.13042E+04
 -1.25272E+04 -6.12175E+04  3.80116E+04 -4.37007E+04  5.57566E+04 -2.08082E+03  3.19318E+04  3.06435E+04
 -6.13307E+03  3.32570E+04 -2.85839E+04  1.34941E+04 -2.78079E+04 -5.07580E+03 -1.45173E+04 -1.00105E+04
 -7.36048E+03 -1.15972E+04 -1.32076E+03 -1.64621E+04  6.68886E+03 -2.24554E+04  1.50215E+04 -1.37754E+04
  1.20790E+04  4.39177E+03 -6.09694E+03  1.31481E+04 -1.95451E+04 -2.36431E+03 -8.13585E+03 -3.06434E+04
  2.09923E+04 -4.10007E+04  4.45974E+04 -1.84977E+04  4.21665E+04  1.83199E+04  1.41352E+04  4.14945E+04
 -1.54973E+04  3.11778E+04 -2.35107E+04  1.24582E+03 -8.48360E+03 -2.64090E+04  2.06140E+04 -3.14223E+04
  3.82702E+04 -7.21965E+03  3.15999E+04  2.25295E+04  1.53173E+04  4.26048E+04 -7.79015E+03  4.54481E+04
 -2.85957E+04  2.98534E+04 -3.72008E+04  8.32469E+03 -3.84414E+04 -1.49221E+04 -2.12240E+04 -3.43138E+04
  6.97184E+03 -3.39578E+04  2.91179E+04 -1.26565E+04  2.68617E+04  1.07674E+04  2.85117E+03  1.78288E+04
 -1.29028E+04  7.06658E+03 -9.67296E+03 -7.67067E+03  5.81494E+03 -1.00025E+04  1.71634E+04  6.60259E+03
  1.23246E+04  2.15540E+04 -6.66524E+03  2.32528E+04 -2.14575E+04  9.25839E+03 -2.49889E+04 -6.37970E+03
 -1.67194E+04 -1.60997E+04 -5.58230E+03 -1.66612E+04  4.09479E+03 -1.47860E+04  1.24814E+04 -1.41292E+04
  2.11521E+04 -1.16836E+04  2.78714E+04  9.53478E+02  2.09374E+04  1.62401E+04  4.06572E+03  3.21951E+04
 -1.59605E+04  2.74960E+04 -2.56035E+04  9.64028E+03 -1.96829E+04 -1.05758E+04 -4.08921E+03 -1.38331E+04
  2.36639E+03 -4.15536E+03 -2.56547E+03  5.02926E+03 -1.26723E+04  5.12035E+03 -1.32797E+04 -4.82092E+03
 -8.32025E+03 -1.51772E+04  4.60307E+03 -1.90612E+04  1.24413E+04 -1.38744E+04  1.44746E+04 -1.43594E+03
  8.78548E+03  1.06954E+04 -8.71311E+02  1.55810E+04 -1.02513E+04  8.89033E+03 -1.51001E+04 -3.04485E+03
 -1.14194E+04 -1.41892E+04 -1.59140E+03 -1.87766E+04  8.69302E+03 -1.50749E+04  1.58687E+04 -7.27891E+03
  1.45631E+04  7.37817E+02  1.02868E+04  3.50174E+03  5.15624E+03  4.65882E+02  7.36839E+03 -1.10341E+03
  1.38593E+04  2.87055E+03  1.42484E+04  1.24215E+04  9.06163E+03  2.40838E+04 -3.17049E+03  2.58982E+04
 -1.55092E+04  1.95768E+04 -2.38179E+04  9.48831E+03 -2.39709E+04 -1.87637E+03 -2.05015E+04 -1.39076E+04
 -1.00159E+04 -1.97122E+04  6.34282E+03 -1.85888E+04  1.61640E+04 -1.04900E+04  1.54182E+04  3.38069E+03
  6.54870E+03  1.08594E+04 -7.02376E+03  1.03098E+04 -1.28652E+04  2.49497E+03 -9.98962E+03 -7.45919E+03
 -4.44035E+01 -1.20395E+04  6.09583E+03 -9.17233E+03  7.42721E+03 -1.25644E+03  1.33315E+03  4.70265E+03
 -5.36752E+03  1.36203E+03 -3.40168E+03 -4.20974E+03  6.37993E+02 -1.00787E+04  7.40114E+03 -9.47614E+03
  1.16478E+04 -4.37647E+03  1.13433E+04  2.86742E+03  9.97118E+03  9.07551E+03  4.56191E+03  1.33125E+04
 -1.31030E+03  1.51672E+04 -9.01094E+03  9.28607E+03 -1.06570E+04  2.83687E+03 -8.06268E+03 -1.41476E+03
 -4.46482E+03 -3.30840E+03 -8.39628E+02  1.53692E+03 -1.80335E+03  1.74778E+03 -3.23253E+03  3.36679E+03
 -7.58161E+03 -2.11126E+02 -8.32122E+03 -6.91167E+03 -3.39922E+03 -1.10823E+04  3.60144E+03 -7.92186E+03
  6.99259E+03 -3.24947E+03  5.06350E+03  2.08547E+03  5.10038E+02  2.88001E+03 -3.31838E+03 -2.83177E+01
 -3.02952E+03 -4.98122E+03 -6.97519E+02 -6.68298E+03  3.93154E+03 -7.17620E+03  9.19090E+03 -3.53262E+03
  1.10293E+04  4.32310E+02  8.16786E+03  5.54465E+03  1.86824E+03  7.86178E+03 -5.14088E+03  7.82732E+03
 -6.68340E+03  2.89250E+03 -3.32275E+03 -7.61970E+02  1.48009E+03 -1.92763E+03  4.19456E+03 -9.77062E+02
  3.67927E+03  2.96984E+03  1.02144E+03  5.85905E+03 -4.41351E+03  6.06303E+03 -7.46390E+03  1.56393E+03
 -4.49273E+03 -3.39237E+03  4.48414E+02 -6.24446E+03  3.44314E+03 -3.25698E+03  3.34794E+03  6.02824E+02
  2.80486E+02  2.80645E+03 -3.89813E+03  4.36335E+03 -4.25753E+03  2.32052E+03 -3.88623E+03 -7.66961E+02
 -2.72659E+03 -5.51123E+03  1.08293E+03 -5.96150E+03  5.60801E+03 -4.25897E+03  5.74472E+03  6.85177E+02
  4.32495E+03  4.84731E+03  2.29763E+02  6.44319E+03 -4.53335E+03  3.81279E+03 -4.98116E+03 -3.15628E+02
 -5.18861E+03 -4.77363E+03 -1.35331E+03 -4.49069E+03  2.32959E+03 -4.24904E+03  2.64996E+03 -2.89444E+03
  2.69128E+03 -1.28059E+01  1.53597E+02  1.55981E+03  4.95743E+02  1.67075E+02 -1.57300E+02 -1.36332E+03
  3.05119E+03 -6.53407E+02  4.56150E+03  4.83215E+02  4.77747E+03  2.56567E+03  4.99148E+03  6.26668E+03
 -8.42260E+02  7.43042E+03 -6.78414E+03  5.56058E+03 -8.66564E+03  1.26614E+03 -6.69417E+03 -2.08095E+03
 -3.79985E+03 -5.57891E+03 -4.72848E+02 -4.40260E+03  1.80173E+03 -1.86910E+03  1.81207E+03 -1.93573E+03
  1.09697E+03 -1.43652E+03  2.20450E+03 -2.18224E+03  3.69550E+03 -1.10587E+03  3.41119E+03  5.41233E+02
  4.22588E+03  8.33971E+02  1.02026E+03  2.98672E+03 -1.34952E+03  2.01705E+03 -3.93110E+03  2.10819E+03
 -4.34475E+03 -1.06210E+03 -1.43045E+03 -2.60047E+03  5.47529E+02 -4.21327E+03  2.93199E+03 -4.67052E+03
  4.57169E+03 -3.04471E+03  5.67998E+03  2.10399E+02  4.21029E+03  3.34288E+03  9.82135E+02  5.33766E+03
 -1.89177E+03  5.30015E+03 -2.70132E+03  1.63467E+03 -1.71713E+03 -1.16999E+03 -3.94931E+02 -7.81082E+02
 -4.23560E+02  4.68797E+02 -9.01703E+02  2.14605E+03 -2.09648E+03  1.01504E+03 -3.56413E+03 -2.29810E+02
 -1.04487E+03 -3.34296E+03  1.04366E+03 -3.94439E+03  2.24005E+03 -3.80930E+03  2.57490E+03 -1.00212E+03
  3.45725E+03  2.05499E+03  1.71324E+03  2.58560E+03 -4.67631E+02  3.60949E+03 -1.86605E+03  2.15236E+03
 -2.99843E+03  6.74749E+02 -2.53450E+03 -1.99093E+03 -1.51420E+02 -2.40177E+03  1.17205E+03 -1.93360E+03
  1.90227E+03 -1.24199E+03  1.50900E+03  1.65345E+02  3.79272E+02  1.46160E+03  4.59891E+02  5.21250E+02
  1.60163E+03  7.23744E+02  1.04399E+03  6.95381E+02  5.61020E+02  1.83992E+03  1.04161E+03  1.15112E+03
 -1.12412E+03  2.21498E+03 -2.09021E+03  3.40341E+03 -2.23475E+03  1.26921E+03 -3.19458E+03  1.49462E+02
 -1.28078E+03 -3.00743E+03  6.27979E+02 -4.05935E+03  1.39677E+03 -1.90796E+03  2.30903E+03 -1.03983E+03
  2.00453E+03  1.39320E+03  3.52759E+02  1.77607E+03 -6.76829E+02  1.06713E+03 -8.06092E+02 -1.37424E+02
 -4.84421E+02 -1.25252E+03  1.10265E+03 -9.73826E+02  1.15192E+03 -8.51404E+02  9.75899E+02  3.61419E+02
  3.49975E+02  2.91487E+01  9.06621E+02 -6.01873E+02 -4.46823E+02  6.50129E+02  1.26311E+03 -1.59452E+01
 -3.08898E+02 -7.20404E+00  1.68480E+03  1.82030E+02  2.58187E+01  2.20292E+03 -4.01897E+02  2.15624E+03
 -1.15387E+03  1.01951E+03 -1.34859E+03  5.47753E+02 -1.96431E+03 -5.79351E+02  3.90780E+01 -4.29269E+02
  1.91785E+01 -7.34731E+02  7.95189E+02 -8.54500E+02  4.84294E+02  9.41471E+02 -3.34438E+02  6.69214E+02
 -1.24088E+03  6.58822E+02 -8.01145E+02 -8.76512E+02 -2.99764E+02 -1.46517E+03  1.61619E+02 -9.73181E+02
  3.67024E+02  2.69304E+01  6.47229E+02  3.25715E+02  1.06751E+03 -3.01735E+02  2.65587E+02  1.00137E+03
 -5.63563E+01  3.71123E+01 -8.22323E+02 -3.43326E+01  6.24127E+02 -3.82114E+02  1.32508E+03 -5.32754E+02
  6.98815E+02  2.41316E+02  2.26874E+03  2.19339E+02  1.05211E+03  9.13213E+02 -1.28444E+01  1.46340E+03
 -9.85203E+02 -1.56205E+02 -8.66868E+02 -8.75554E+01 -4.45312E+02 -1.11185E+03  2.37643E+02 -3.39673E+02
  1.19841E+03 -4.58559E+02  4.65970E+02  5.40084E+02 -6.17664E+01  1.23524E+03  4.37816E+02  1.03274E+03
 -3.20729E+02  1.13565E+03 -5.18115E+02  1.80311E+02  1.40081E+02  5.15018E+02 -7.19790E+02  3.15361E+02
 -3.85234E+02  1.00461E+03 -1.41066E+03  2.97598E+02 -1.41647E+03 -5.13859E+01 -2.06433E+03 -7.12238E+02
 -9.43617E+02 -1.67405E+03  4.80002E+02 -2.18215E+03  2.61061E+02 -2.15600E+03  2.07362E+03 -8.86699E+02
  1.78925E+03 -4.45320E+02  5.39744E+02  1.17933E+03 -6.51502E+02  1.16658E+03 -4.36689E+02  7.18665E+02
 -7.20021E+02  6.88666E+02 -3.52654E+02 -1.16026E+02 -4.32892E+02  4.51925E+02 -7.12663E+02 -1.25876E+02
 -1.24438E+03 -1.48568E+02 -7.28163E+02  1.67558E+01  4.62239E+02 -5.28790E+02 -4.43450E+02 -6.83606E+02
  1.30334E+03 -3.86489E+02 -1.43525E+02  2.66573E+02  7.49229E+02  6.94599E+02 -4.51110E+02  8.98255E+02
 -4.60929E+02  1.74566E+03 -1.29863E+03  1.06119E+03 -1.32129E+03  3.88129E+01 -7.75203E+02 -8.28956E+02
 -8.64348E+02 -8.54867E+02  1.85324E+02 -6.02353E+02  4.31341E+01 -5.16384E+01  3.43998E+02  1.03338E+02
  5.97680E+02 -1.54468E+02  1.84636E+02  1.13187E+02 -2.21105E+02  1.44615E+02 -4.61866E+01 -2.23827E+01
  4.30800E+02  4.69312E+02 -1.44670E+02  4.77194E+02 -3.44868E+02 -3.60949E+01  2.34318E+02 -6.89829E+00
 -3.19616E+02  2.22865E+02 -1.86542E+02  2.31663E+02 -4.76999E+02 -2.24108E+02  1.13520E+02 -8.88924E+02
  2.01111E+02 -1.30370E+02 -9.16704E+01 -9.16464E+01  7.77707E+02 -7.91039E+02  2.47195E+02  6.31794E+02
  4.63228E+02  5.47903E+02  8.41202E+01  2.18402E+02 -1.45175E+02  3.56982E+02 -2.84739E+02  9.67557E+01
 -3.40837E+02 -6.88925E+01 -6.30260E+02  1.86559E+02 -6.02430E+02 -1.91553E+02 -4.10840E+02 -1.39674E+02
 -4.33039E+02  2.78057E+02 -4.77064E+02 -6.65463E+02  3.44077E+02 -1.05446E+03  4.71163E+02 -5.48785E+01
  3.35236E+02  1.57029E+02 -6.42504E+02  6.50575E+01 -1.60163E+02  6.69017E+02  1.38964E+02  7.14457E+02
