 $NMID ID='MM_0lb_SNR800_10hz_g60_72.RAW', FMTDAT='(8E13.5)'
 TRAMP=1., VOLUME=1. $END
  3.09783E+05 -4.96687E+01  3.38072E+05  2.50619E+05  8.46353E+04  3.38681E+05 -1.32510E+05  2.51801E+05
 -1.91106E+05  8.39651E+04 -1.13014E+05 -3.21577E+04  3.38391E+02 -5.06867E+04  5.38820E+04 -6.33193E+02
  3.57440E+04  5.27438E+04 -1.67101E+04  7.56510E+04 -6.10903E+04  6.45752E+04 -8.52907E+04  3.22721E+04
 -8.28706E+04 -1.20303E+04 -5.82199E+04 -5.25005E+04 -1.49818E+04 -7.09626E+04  2.85973E+04 -4.69028E+04
  4.10684E+04  3.62850E+03  1.68111E+04  4.91472E+04 -3.50096E+04  4.81973E+04 -6.83263E+04  4.28040E+02
 -5.51560E+04 -5.77162E+04 -7.41492E+03 -7.90739E+04  3.49134E+04 -5.72280E+04  4.98872E+04 -1.83618E+04
  4.53193E+04  1.18022E+04  3.23288E+04  2.64328E+04  1.58995E+04  3.06741E+04 -5.98702E+03  2.78584E+04
 -2.26323E+04  1.20323E+04 -1.78162E+04 -5.73138E+03  7.12133E+03 -7.65450E+03  2.36735E+04  1.37374E+04
  7.14445E+03  3.75310E+04 -3.38042E+04  3.73787E+04 -6.62456E+04  2.06637E+03 -5.88564E+04 -4.47274E+04
 -1.24818E+04 -6.63317E+04  4.17365E+04 -4.75006E+04  6.15756E+04 -2.70792E+03  3.66153E+04  3.43809E+04
 -5.59858E+03  3.98511E+04 -3.16240E+04  1.90425E+04 -3.35577E+04 -3.59072E+03 -1.95261E+04 -1.19725E+04
 -9.12166E+03 -1.49535E+04 -3.67276E+02 -1.97957E+04  8.51043E+03 -2.31293E+04  1.59535E+04 -1.30149E+04
  1.05518E+04  6.13628E+03 -1.03413E+04  1.27495E+04 -2.36801E+04 -7.03946E+03 -8.42579E+03 -3.80163E+04
  2.47569E+04 -4.71631E+04  5.21629E+04 -2.09922E+04  4.86826E+04  2.07559E+04  1.73706E+04  4.73029E+04
 -1.66883E+04  3.62506E+04 -2.75960E+04  2.27046E+03 -1.18063E+04 -2.95107E+04  2.14524E+04 -3.70538E+04
  4.49148E+04 -1.12516E+04  4.07064E+04  2.51470E+04  2.14673E+04  5.12099E+04 -8.09630E+03  5.61643E+04
 -3.59241E+04  3.84036E+04 -4.80122E+04  1.09253E+04 -4.74922E+04 -1.92301E+04 -2.62796E+04 -4.23794E+04
  7.64316E+03 -4.19202E+04  3.43186E+04 -1.70676E+04  3.26958E+04  1.11900E+04  5.05047E+03  2.08350E+04
 -1.40857E+04  9.61639E+03 -1.13365E+04 -7.78094E+03  5.73464E+03 -1.18531E+04  1.88518E+04  5.60930E+03
  1.49249E+04  2.26776E+04 -5.46753E+03  2.69148E+04 -2.31960E+04  1.45603E+04 -3.13091E+04 -3.18093E+03
 -2.56766E+04 -1.84353E+04 -1.15924E+04 -2.48236E+04  4.21718E+03 -2.60574E+04  2.02447E+04 -2.29282E+04
  3.24057E+04 -1.37465E+04  3.84382E+04  5.10284E+03  2.70943E+04  2.44480E+04  3.94719E+03  4.14639E+04
 -1.94973E+04  3.38696E+04 -3.09594E+04  1.16460E+04 -2.22151E+04 -1.03016E+04 -4.53377E+03 -1.30566E+04
  6.00258E+02 -1.03415E+03 -7.75241E+03  8.51010E+03 -2.03999E+04  4.89226E+03 -2.03089E+04 -9.58828E+03
 -1.20025E+04 -2.35988E+04  5.94857E+03 -2.76421E+04  1.91123E+04 -1.98581E+04  2.25632E+04 -1.78122E+03
  1.43709E+04  1.61123E+04 -1.34424E+03  2.30999E+04 -1.64528E+04  1.32221E+04 -2.39490E+04 -4.73075E+03
 -1.70702E+04 -2.10784E+04 -2.19107E+03 -2.86367E+04  1.23365E+04 -2.33239E+04  2.33265E+04 -1.23540E+04
  2.22086E+04 -4.15047E+02  1.57346E+04  5.29837E+03  8.58992E+03  8.81856E+02  1.22921E+04 -2.14007E+03
  2.22044E+04  2.79519E+03  2.59316E+04  1.81535E+04  1.74356E+04  3.79788E+04 -2.65298E+03  4.44691E+04
 -2.50831E+04  3.68166E+04 -4.17982E+04  1.93086E+04 -4.42114E+04 -3.40976E+03 -3.58848E+04 -2.59988E+04
 -1.45510E+04 -3.72963E+04  1.32007E+04 -3.28248E+04  2.77396E+04 -1.55141E+04  2.40060E+04  7.94027E+03
  8.13533E+03  1.91289E+04 -1.11942E+04  1.52215E+04 -1.99018E+04  2.72075E+03 -1.54120E+04 -1.28562E+04
 -3.00739E+02 -1.93429E+04  1.04834E+04 -1.46195E+04  1.35943E+04 -1.09278E+03  3.75503E+03  8.74722E+03
 -8.80052E+03  3.82871E+03 -9.20091E+03 -6.81838E+03 -1.76309E+03 -1.79058E+04  1.18396E+04 -1.96752E+04
  2.27353E+04 -1.17547E+04  2.65194E+04  3.13906E+03  2.33183E+04  1.88509E+04  1.05020E+04  2.88668E+04
 -5.61176E+03  3.10482E+04 -2.02859E+04  1.90857E+04 -2.24327E+04  4.06949E+03 -1.53021E+04 -5.69062E+03
 -6.70749E+03 -7.28552E+03 -9.39558E+02  4.28474E+02 -2.90967E+03  3.27466E+03 -7.72321E+03  5.36275E+03
 -1.42394E+04 -1.25766E+03 -1.47172E+04 -1.16470E+04 -5.36227E+03 -1.95626E+04  6.16030E+03 -1.57503E+04
  1.29228E+04 -6.39757E+03  9.19360E+03  4.00138E+03 -3.20325E+02  5.89344E+03 -8.05625E+03  2.28875E+02
 -7.92105E+03 -1.01472E+04 -1.39476E+03 -1.54043E+04  8.83761E+03 -1.62739E+04  1.96941E+04 -8.29073E+03
  2.31740E+04  2.69879E+03  1.73339E+04  1.41591E+04  3.25487E+03  1.90592E+04 -9.34782E+03  1.57976E+04
 -1.26982E+04  4.18413E+03 -6.56240E+03 -3.08386E+03  2.63173E+03 -4.59021E+03  8.20915E+03 -1.03846E+03
  7.20626E+03  6.91669E+03  1.08014E+03  1.25118E+04 -9.35140E+03  1.20287E+04 -1.57624E+04  3.02024E+03
 -1.07812E+04 -8.63626E+03  2.34343E+02 -1.32774E+04  8.64590E+03 -6.80636E+03  8.96064E+03  3.30484E+03
  2.52753E+03  9.76438E+03 -8.50813E+03  1.14052E+04 -1.35981E+04  5.18731E+03 -1.37973E+04 -4.72121E+03
 -7.57565E+03 -1.55505E+04  3.83746E+03 -1.84210E+04  1.52705E+04 -1.07630E+04  1.64262E+04  2.93262E+03
  9.95740E+03  1.30393E+04 -1.76234E+03  1.56981E+04 -1.13917E+04  8.58070E+03 -1.25410E+04 -1.51334E+03
 -1.06669E+04 -1.03497E+04 -1.76883E+03 -1.21436E+04  6.60099E+03 -9.71763E+03  7.35234E+03 -3.87133E+03
  5.14308E+03  2.13987E+03 -1.12649E+03  1.98448E+03 -6.26493E+02 -3.23597E+03  2.41026E+03 -7.53019E+03
  1.18313E+04 -4.54980E+03  1.56076E+04  2.42818E+03  1.53578E+04  1.07871E+04  9.98540E+03  2.01795E+04
 -5.09192E+03  2.36461E+04 -1.91751E+04  1.75041E+04 -2.49748E+04  3.53291E+03 -2.02958E+04 -8.63693E+03
 -9.94542E+03 -1.67501E+04 -5.24873E+02 -1.40921E+04  5.02996E+03 -7.88253E+03  4.97484E+03 -5.13024E+03
  3.75889E+03 -2.55010E+03  4.05679E+03 -3.95399E+03  6.05759E+03 -3.87280E+03  8.05783E+03 -1.55463E+03
  1.02656E+04  2.53353E+03  5.67552E+03  9.10180E+03 -2.43089E+03  1.07903E+04 -1.11168E+04  8.46515E+03
 -1.44759E+04 -1.45494E+03 -8.93906E+03 -1.00524E+04 -1.23059E+03 -1.57071E+04  8.44530E+03 -1.58388E+04
  1.57144E+04 -8.27045E+03  1.91157E+04  2.92678E+03  1.30894E+04  1.33309E+04  2.09863E+03  1.72289E+04
 -7.01818E+03  1.40984E+04 -9.96343E+03  4.66091E+03 -6.72155E+03 -1.51181E+03 -3.02354E+03 -2.61016E+03
 -1.31548E+03 -7.12937E+01 -1.93338E+03  2.79218E+03 -6.17832E+03  2.13835E+03 -9.81533E+03 -1.47202E+03
 -7.32421E+03 -9.63571E+03  2.21922E+02 -1.43672E+04  8.82184E+03 -1.35109E+04  1.43857E+04 -4.16240E+03
  1.39659E+04  7.16948E+03  6.74054E+03  1.27888E+04 -2.62411E+03  1.45808E+04 -9.95871E+03  8.97468E+03
 -1.34633E+04  6.29846E+02 -1.00768E+04 -8.23379E+03 -1.22651E+03 -1.15266E+04  6.07857E+03 -8.48946E+03
  9.11802E+03 -2.96261E+03  6.07727E+03  2.25477E+03  1.90286E+03  4.43197E+03  1.44989E+03  1.93940E+03
  3.19265E+03  9.67055E+02  3.38562E+03  2.03625E+03  4.09651E+03  4.87505E+03  3.47309E+03  7.89538E+03
 -2.70968E+03  1.12969E+04 -9.51515E+03  1.15355E+04 -1.48161E+04  3.10367E+03 -1.51663E+04 -6.25799E+03
 -7.22732E+03 -1.43128E+04  2.22278E+03 -1.60291E+04  8.74122E+03 -9.97238E+03  1.17086E+04 -2.69070E+03
  9.00157E+03  5.58020E+03  1.94538E+03  8.20058E+03 -3.80131E+03  5.04318E+03 -5.88871E+03 -9.16109E+02
 -2.87872E+03 -6.10924E+03  3.52613E+03 -6.19016E+03  5.47131E+03 -3.10855E+03  5.81350E+03  1.16726E+03
  3.21863E+03  3.02397E+03  1.97897E+03  2.11323E+03 -1.23748E+03  1.96795E+03  1.58944E+03 -3.14659E+02
  1.97764E+03 -7.31432E+02  5.71424E+03  1.93991E+03  3.33973E+03  7.31085E+03 -1.07141E+03  9.76034E+03
 -6.67366E+03  6.55863E+03 -8.93327E+03  1.69486E+03 -7.90341E+03 -3.15119E+03 -3.18823E+03 -5.85230E+03
  9.17225E+02 -5.85000E+03  3.73379E+03 -2.95833E+03  3.07736E+03  3.05353E+03 -1.54190E+03  4.67672E+03
 -5.92193E+03  2.61819E+03 -6.84377E+03 -3.60734E+03 -4.04287E+03 -7.74644E+03  1.45819E+03 -7.93197E+03
  4.61080E+03 -4.61345E+03  5.94199E+03 -2.49430E+02  4.44088E+03  2.18246E+03  7.43573E+02  4.38416E+03
 -2.27829E+03  1.08415E+03 -3.27705E+03 -2.83438E+03  1.50021E+03 -6.06505E+03  6.98420E+03 -4.91145E+03
  8.87480E+03  6.76170E+02  8.85537E+03  5.84498E+03  2.94898E+03  9.50834E+03 -3.36983E+03  8.85917E+03
 -7.61541E+03  4.02047E+03 -7.98760E+03 -1.07677E+03 -4.42576E+03 -6.21986E+03  1.40389E+03 -5.45050E+03
  6.02642E+03 -2.21522E+03  4.64939E+03  2.72297E+03  1.79475E+03  5.18804E+03 -6.75152E+02  4.79662E+03
 -2.54204E+03  2.88058E+03 -1.94122E+03  8.07994E+02 -1.38683E+03  7.94569E+02 -1.67666E+03  1.74719E+03
 -2.40053E+03  3.59805E+03 -6.43062E+03  3.24587E+03 -9.45029E+03  1.21335E+02 -1.01319E+04 -5.87065E+03
 -5.47612E+03 -1.21761E+04  2.57964E+03 -1.41645E+04  8.52211E+03 -1.05541E+04  1.36627E+04 -4.08352E+03
  1.26726E+04  2.80489E+03  7.82811E+03  8.37130E+03  4.57794E+02  9.44408E+03 -3.68568E+03  7.23701E+03
 -5.15231E+03  2.48900E+03 -2.88438E+03 -1.14397E+03 -1.14771E+03 -6.60261E+02 -8.22504E+02 -2.00162E+02
 -1.79712E+03  1.26373E+02 -2.43698E+03 -3.41860E+02 -4.10488E+02 -2.59527E+03  3.19188E+02 -3.44279E+03
  4.29552E+03 -3.48301E+03  5.83599E+03  2.75275E+01  6.46333E+03  5.31978E+03  1.37927E+03  9.46890E+03
 -4.47122E+03  1.10723E+04 -9.75244E+03  6.41762E+03 -1.19229E+04 -8.53092E+02 -8.20997E+03 -7.19998E+03
 -3.14741E+03 -9.54686E+03  2.53349E+03 -8.70985E+03  6.14987E+03 -4.37204E+03  6.01238E+03  6.11888E+02
  3.24358E+03  3.24326E+03 -6.55426E+02  2.29170E+03 -2.10363E+03 -5.88799E+02 -7.05007E+01 -2.00970E+03
  2.85859E+03 -1.21832E+03  3.34716E+03  1.06932E+03  2.40147E+03  3.81121E+03  2.82639E+02  4.70494E+03
 -4.36092E+03  4.15277E+03 -6.21698E+03  4.73524E+02 -5.60930E+03 -4.51355E+03 -7.58511E+02 -7.47207E+03
  4.47485E+03 -6.64124E+03  7.17873E+03 -1.97830E+03  7.39325E+03  1.92274E+03  4.10865E+03  5.82483E+03
  1.19781E+03  6.49473E+03 -2.40523E+03  5.03643E+03 -4.17021E+03  2.65412E+03 -3.27235E+03  6.89995E+02
 -1.54069E+03  5.02328E+01 -2.12640E+03  8.67092E+02 -2.98202E+03  1.12436E+03 -5.10585E+03 -9.24793E+02
 -4.65381E+03 -3.24307E+03 -1.24645E+03 -5.73534E+03  2.95611E+03 -6.47743E+03  5.36277E+03 -2.85466E+03
  5.55145E+03  1.12515E+03  2.80431E+03  4.28320E+03 -7.94070E+01  5.95749E+03 -4.66862E+03  3.97419E+03
