 $NMID ID='MM_0lb_SNR800_14hz_g40_64.RAW', FMTDAT='(8E13.5)'
 TRAMP=1., VOLUME=1. $END
  3.09926E+05  4.89778E+02  3.37530E+05  2.50271E+05  8.45384E+04  3.37675E+05 -1.32489E+05  2.51042E+05
 -1.89784E+05  8.29210E+04 -1.11632E+05 -3.25417E+04  8.15471E+02 -5.02817E+04  5.40746E+04 -1.69144E+02
  3.49437E+04  5.28503E+04 -1.69957E+04  7.49892E+04 -6.08081E+04  6.29159E+04 -8.35259E+04  3.18455E+04
 -8.07767E+04 -1.13661E+04 -5.70094E+04 -5.10935E+04 -1.48957E+04 -6.94036E+04  2.73249E+04 -4.58048E+04
  3.96089E+04  4.10039E+03  1.59868E+04  4.75778E+04 -3.44370E+04  4.69756E+04 -6.60705E+04 -6.10028E+01
 -5.30739E+04 -5.66706E+04 -6.92294E+03 -7.64336E+04  3.38475E+04 -5.46699E+04  4.73489E+04 -1.67889E+04
  4.30661E+04  1.12220E+04  3.15909E+04  2.50929E+04  1.58383E+04  2.91833E+04 -5.02826E+03  2.69603E+04
 -2.17912E+04  1.23057E+04 -1.86913E+04 -4.56827E+03  5.05736E+03 -7.62792E+03  2.23867E+04  1.21959E+04
  7.66546E+03  3.47166E+04 -3.16052E+04  3.49738E+04 -6.27811E+04  2.17310E+03 -5.66872E+04 -4.25926E+04
 -1.27822E+04 -6.24082E+04  3.93295E+04 -4.45620E+04  5.77235E+04 -1.95091E+03  3.36046E+04  3.19700E+04
 -6.12032E+03  3.53128E+04 -2.97315E+04  1.51181E+04 -2.95899E+04 -4.94488E+03 -1.64113E+04 -1.09576E+04
 -8.36464E+03 -1.28585E+04 -6.93757E+02 -1.74689E+04  7.23964E+03 -2.28162E+04  1.54055E+04 -1.32209E+04
  1.15158E+04  4.37860E+03 -7.76455E+03  1.27783E+04 -2.08364E+04 -3.81749E+03 -8.05691E+03 -3.30298E+04
  2.24319E+04 -4.27185E+04  4.71269E+04 -1.94973E+04  4.44334E+04  1.91678E+04  1.52875E+04  4.35248E+04
 -1.57897E+04  3.27908E+04 -2.48750E+04  1.68925E+03 -9.25566E+03 -2.73010E+04  2.07301E+04 -3.29633E+04
  4.05337E+04 -8.37055E+03  3.46482E+04  2.32047E+04  1.73459E+04  4.55119E+04 -7.93954E+03  4.90866E+04
 -3.07509E+04  3.29551E+04 -4.11001E+04  9.38033E+03 -4.12714E+04 -1.64620E+04 -2.30361E+04 -3.74138E+04
  7.56081E+03 -3.69646E+04  3.08338E+04 -1.43878E+04  2.85695E+04  1.08900E+04  3.81963E+03  1.89369E+04
 -1.33662E+04  8.12096E+03 -9.91606E+03 -7.47496E+03  5.90533E+03 -1.03998E+04  1.79705E+04  5.78308E+03
  1.30539E+04  2.20741E+04 -6.14277E+03  2.45524E+04 -2.23778E+04  1.09313E+04 -2.70635E+04 -4.95600E+03
 -1.94517E+04 -1.72387E+04 -7.73156E+03 -1.98562E+04  3.75584E+03 -1.84299E+04  1.50793E+04 -1.76517E+04
  2.48598E+04 -1.22985E+04  3.14195E+04  2.32585E+03  2.31073E+04  1.90866E+04  4.27427E+03  3.53068E+04
 -1.73903E+04  3.00347E+04 -2.72625E+04  1.00720E+04 -2.08057E+04 -1.03604E+04 -4.38259E+03 -1.34009E+04
  1.63933E+03 -2.74747E+03 -4.28145E+03  6.58180E+03 -1.56860E+04  4.87172E+03 -1.54402E+04 -6.25002E+03
 -9.58327E+03 -1.81521E+04  5.34379E+03 -2.25547E+04  1.46846E+04 -1.60039E+04  1.74386E+04 -1.39993E+03
  1.09600E+04  1.27425E+04 -1.08802E+03  1.83480E+04 -1.24516E+04  1.07566E+04 -1.79285E+04 -3.93709E+03
 -1.34524E+04 -1.63090E+04 -1.65812E+03 -2.19773E+04  1.00142E+04 -1.80963E+04  1.83639E+04 -8.87524E+03
  1.69250E+04  4.20146E+01  1.25205E+04  4.28743E+03  6.43117E+03  3.95661E+02  9.10940E+03 -1.66678E+03
  1.63865E+04  2.73135E+03  1.83367E+04  1.44550E+04  1.19097E+04  2.89241E+04 -3.01578E+03  3.25088E+04
 -1.93085E+04  2.58267E+04 -3.03058E+04  1.29257E+04 -3.18086E+04 -2.04398E+03 -2.65380E+04 -1.83664E+04
 -1.14440E+04 -2.61362E+04  8.84255E+03 -2.36837E+04  2.07405E+04 -1.22114E+04  1.85272E+04  5.16986E+03
  6.78143E+03  1.37594E+04 -8.48103E+03  1.20877E+04 -1.54378E+04  2.49396E+03 -1.18377E+04 -9.43305E+03
 -1.38800E+02 -1.49650E+04  7.73169E+03 -1.12266E+04  9.56617E+03 -1.21541E+03  2.38130E+03  6.16415E+03
 -6.70694E+03  2.20036E+03 -5.64716E+03 -5.25720E+03 -2.06646E+02 -1.31097E+04  9.09039E+03 -1.31493E+04
  1.56467E+04 -6.63169E+03  1.67929E+04  2.64175E+03  1.47220E+04  1.25671E+04  6.82510E+03  1.90610E+04
 -3.15307E+03  2.08011E+04 -1.28979E+04  1.32226E+04 -1.52897E+04  3.22224E+03 -1.07285E+04 -3.18724E+03
 -5.03249E+03 -4.63375E+03 -7.16012E+02  1.04103E+03 -2.17367E+03  2.44851E+03 -4.82260E+03  4.24784E+03
 -1.02594E+04 -8.90486E+02 -1.06527E+04 -8.77634E+03 -4.09251E+03 -1.43643E+04  4.73720E+03 -1.09943E+04
  9.23436E+03 -4.76403E+03  6.80683E+03  3.00601E+03  2.19774E+02  4.08551E+03 -4.76712E+03 -3.89056E+01
 -4.67381E+03 -6.73089E+03 -6.53556E+02 -9.89526E+03  5.81428E+03 -1.07321E+04  1.34068E+04 -5.64225E+03
  1.57667E+04  1.14421E+03  1.15221E+04  8.79364E+03  2.27820E+03  1.19209E+04 -6.65542E+03  1.02805E+04
 -8.50546E+03  3.39530E+03 -4.26533E+03 -1.86635E+03  1.28902E+03 -2.96827E+03  5.67364E+03 -1.21331E+03
  5.30972E+03  4.13090E+03  1.10201E+03  8.41061E+03 -6.09067E+03  8.10221E+03 -1.04231E+04  2.24146E+03
 -6.89121E+03 -5.44114E+03  3.91610E+02 -8.73596E+03  5.32842E+03 -4.63438E+03  5.72149E+03  1.63220E+03
  1.17811E+03  5.65081E+03 -5.48030E+03  6.79290E+03 -7.74870E+03  2.99237E+03 -7.34694E+03 -2.27222E+03
 -4.77525E+03 -8.86732E+03  2.00439E+03 -1.07351E+04  8.96658E+03 -6.49591E+03  9.83085E+03  1.48924E+03
  6.57357E+03  7.80501E+03 -5.95120E+02  1.04618E+04 -7.04144E+03  5.57128E+03 -8.07703E+03 -3.29689E+02
 -7.38355E+03 -6.92921E+03 -1.53531E+03 -6.87499E+03  4.16645E+03 -6.08414E+03  4.56137E+03 -3.10172E+03
  3.54879E+03  7.50311E+02 -1.52588E+02  1.71572E+03  2.49475E+02 -1.06163E+03  9.09534E+02 -4.02776E+03
  6.12369E+03 -1.85991E+03  8.37869E+03  1.07925E+03  8.85875E+03  5.34916E+03  6.82068E+03  1.18508E+04
 -2.31511E+03  1.33981E+04 -1.17325E+04  1.01345E+04 -1.48185E+04  2.01876E+03 -1.18083E+04 -4.66153E+03
 -6.09451E+03 -9.77117E+03 -4.36306E+02 -8.10200E+03  3.19436E+03 -4.05963E+03  2.81837E+03 -3.09541E+03
  1.75124E+03 -1.94365E+03  2.99522E+03 -3.09857E+03  4.01594E+03 -2.01500E+03  5.17176E+03 -1.22071E+01
  6.59674E+03  1.24521E+03  2.72706E+03  5.40434E+03 -1.63155E+03  5.77303E+03 -6.97215E+03  4.18755E+03
 -8.26803E+03 -1.30135E+03 -4.02695E+03 -5.77137E+03 -3.29165E+02 -8.26961E+03  5.10725E+03 -8.72476E+03
  8.80138E+03 -4.90931E+03  1.07401E+04  1.08612E+03  7.92747E+03  7.24023E+03  1.39514E+03  9.55741E+03
 -3.71690E+03  8.47912E+03 -5.87615E+03  2.87495E+03 -3.26658E+03 -1.14890E+03 -1.28962E+03 -1.21901E+03
 -6.53133E+02  5.44878E+01 -1.44031E+03  2.40886E+03 -3.77712E+03  1.25925E+03 -6.12158E+03 -6.93537E+02
 -3.49877E+03 -6.06816E+03  5.80327E+02 -7.52815E+03  4.76898E+03 -7.24004E+03  7.24157E+03 -2.06422E+03
  7.42108E+03  3.87634E+03  3.37245E+03  6.05839E+03 -1.62029E+03  7.74081E+03 -5.18429E+03  4.67800E+03
 -7.06900E+03  6.66542E+02 -5.68519E+03 -4.33765E+03 -3.38254E+02 -6.13158E+03  2.59339E+03 -4.44741E+03
  4.76488E+03 -1.68298E+03  3.36391E+03  9.71278E+02  1.03131E+03  2.45993E+03  1.06182E+03  1.10628E+03
  2.00862E+03  8.35510E+02  2.07286E+03  1.19034E+03  1.96599E+03  3.27535E+03  1.91728E+03  3.76153E+03
 -2.00049E+03  5.69166E+03 -4.80209E+03  6.47914E+03 -6.55379E+03  1.71110E+03 -7.65561E+03 -2.38752E+03
 -3.60494E+03 -7.13093E+03  1.07632E+03 -8.37905E+03  3.76539E+03 -5.02971E+03  5.77275E+03 -1.63544E+03
  4.58164E+03  2.51267E+03  8.83552E+02  4.14924E+03 -1.63606E+03  2.86091E+03 -2.54651E+03 -4.72100E+02
 -1.18262E+03 -3.13921E+03  1.61009E+03 -2.98241E+03  2.64487E+03 -1.52385E+03  2.64885E+03  7.27925E+02
  1.60092E+03  1.17632E+03  6.49584E+02  7.87105E+02 -4.76746E+02  1.34013E+03  1.70457E+03 -1.45610E+02
  7.46261E+02 -3.77710E+02  3.13693E+03  1.06547E+03  1.36134E+03  3.79978E+03 -4.83504E+02  5.07472E+03
 -3.02999E+03  2.85565E+03 -4.31215E+03  1.07711E+03 -4.32173E+03 -1.42635E+03 -1.22593E+03 -2.27769E+03
  5.10198E+02 -2.70065E+03  1.38653E+03 -1.49289E+03  1.35082E+03  1.65049E+03 -1.02488E+03  2.21293E+03
 -2.78490E+03  1.05411E+03 -2.80420E+03 -1.95078E+03 -1.70599E+03 -4.00046E+03  6.63401E+02 -3.60753E+03
  1.70717E+03 -2.03528E+03  2.33021E+03  2.19877E+02  2.29947E+03  5.54754E+02  5.41377E+02  2.16530E+03
 -1.19833E+03  5.84184E+02 -1.59053E+03 -8.02614E+02  9.11436E+02 -2.26628E+03  3.35582E+03 -2.43272E+03
  3.44420E+03  4.60351E+02  4.63827E+03  2.18944E+03  1.65677E+03  3.77100E+03 -1.41424E+03  4.07531E+03
 -3.41345E+03  1.54624E+03 -3.48944E+03 -4.05797E+02 -1.57918E+03 -2.70096E+03  7.09680E+02 -2.29675E+03
  2.67242E+03 -1.40590E+03  1.86911E+03  1.15610E+03  5.26672E+02  2.59465E+03 -5.82960E+01  2.45291E+03
 -8.63232E+02  1.28587E+03 -1.25427E+03  2.04708E+02 -3.36055E+02  2.74830E+02 -8.14611E+02  1.09067E+03
 -1.08564E+03  1.90606E+03 -3.09491E+03  1.27534E+03 -3.63296E+03  8.57772E+01 -4.86356E+03 -2.35517E+03
 -2.21472E+03 -5.27204E+03  1.11983E+03 -6.03289E+03  3.26630E+03 -5.09441E+03  6.01975E+03 -1.86759E+03
  5.44049E+03  5.05088E+02  3.33285E+03  3.73778E+03 -1.64797E+02  3.88031E+03 -1.44110E+03  3.28246E+03
 -2.13394E+03  1.44397E+03 -1.21594E+03 -1.86560E+02 -4.61914E+02  1.47712E+02 -5.65440E+02  1.16876E+02
 -1.31229E+03  9.80865E+01 -1.27655E+03  8.58591E+01 -1.02305E+02 -1.23991E+03 -2.93244E+02 -1.46751E+03
  2.32397E+03 -1.54681E+03  2.22820E+03  1.32282E+02  2.69735E+03  2.25568E+03 -8.41340E+01  4.02992E+03
 -2.06517E+03  5.04736E+03 -3.98049E+03  2.92495E+03 -4.67557E+03 -5.84073E+02 -3.40108E+03 -2.80159E+03
 -1.29677E+03 -3.66360E+03  7.11375E+02 -3.38467E+03  2.38947E+03 -1.82991E+03  2.29470E+03 -2.57583E+02
  1.34361E+03  1.13408E+03 -2.89091E+01  1.15194E+03 -5.94660E+02  1.06097E+01  2.75241E+02 -3.95135E+02
  1.02838E+03 -6.53026E+02  1.21256E+03  6.23720E+02  8.19316E+02  1.41672E+03  3.40739E+02  1.41618E+03
 -1.58253E+03  1.55756E+03 -2.37301E+03  4.52491E+02 -2.27232E+03 -1.68705E+03 -1.64401E+02 -3.10778E+03
  1.76178E+03 -2.56758E+03  2.22394E+03 -6.19237E+02  2.71085E+03 -2.37367E+02  1.55021E+03  2.35761E+03
  3.87308E+02  2.38433E+03 -7.66598E+02  1.68904E+03 -1.44899E+03  1.35295E+03 -7.54637E+02  1.10232E+02
 -7.61902E+02  7.86760E+01 -5.58588E+02  2.19140E+02 -1.36752E+03  3.17299E+02 -1.77236E+03 -3.14853E+01
 -2.27189E+03 -6.01082E+02 -5.78873E+02 -2.46007E+03  1.32798E+03 -3.11814E+03  2.00630E+03 -1.04221E+03
  2.24922E+03  2.27953E+02  5.03049E+02  1.27940E+03 -8.59304E+01  2.57552E+03 -1.38906E+03  1.51339E+03
