 $NMID ID='MM_0lb_SNR800_7hz_g60_71.RAW', FMTDAT='(8E13.5)'
 TRAMP=1., VOLUME=1. $END
  3.09550E+05  7.67200E+01  3.38273E+05  2.50878E+05  8.51535E+04  3.38296E+05 -1.32354E+05  2.52702E+05
 -1.91227E+05  8.41729E+04 -1.13138E+05 -3.20108E+04 -5.00210E+02 -5.11749E+04  5.37183E+04 -4.89076E+02
  3.55576E+04  5.27358E+04 -1.62936E+04  7.66955E+04 -6.15191E+04  6.48988E+04 -8.59582E+04  3.28448E+04
 -8.32211E+04 -1.15694E+04 -5.88791E+04 -5.35248E+04 -1.53874E+04 -7.17391E+04  2.87068E+04 -4.76362E+04
  4.19248E+04  3.59066E+03  1.72191E+04  4.91078E+04 -3.49884E+04  4.87862E+04 -6.92107E+04 -3.04728E+02
 -5.58064E+04 -5.82164E+04 -7.87366E+03 -8.05403E+04  3.53561E+04 -5.76158E+04  5.07905E+04 -1.90742E+04
  4.65335E+04  1.14850E+04  3.41128E+04  2.76853E+04  1.55562E+04  3.10138E+04 -6.38205E+03  2.82242E+04
 -2.28334E+04  1.20646E+04 -1.75640E+04 -5.78476E+03  7.67239E+03 -7.26021E+03  2.39738E+04  1.46062E+04
  6.67473E+03  3.85125E+04 -3.44686E+04  3.81432E+04 -6.68557E+04  2.02522E+03 -5.98774E+04 -4.53376E+04
 -1.27555E+04 -6.73835E+04  4.25524E+04 -4.83964E+04  6.33204E+04 -2.82130E+03  3.76574E+04  3.56225E+04
 -5.48389E+03  4.16688E+04 -3.33560E+04  2.03188E+04 -3.54468E+04 -2.73870E+03 -2.06343E+04 -1.29791E+04
 -1.00553E+04 -1.66496E+04  2.03078E+02 -2.03256E+04  9.26828E+03 -2.40408E+04  1.61793E+04 -1.21513E+04
  9.92257E+03  6.78028E+03 -1.19657E+04  1.27545E+04 -2.51825E+04 -8.43089E+03 -8.87484E+03 -3.94008E+04
  2.65565E+04 -4.89831E+04  5.45380E+04 -2.13513E+04  5.11358E+04  2.12492E+04  1.80325E+04  4.90050E+04
 -1.69014E+04  3.74634E+04 -2.93957E+04  3.08537E+03 -1.24652E+04 -3.04783E+04  2.21740E+04 -3.89649E+04
  4.68679E+04 -1.25527E+04  4.33187E+04  2.55479E+04  2.35120E+04  5.42597E+04 -8.21412E+03  5.99471E+04
 -3.79769E+04  4.12540E+04 -5.07972E+04  1.13862E+04 -5.08673E+04 -1.97383E+04 -2.75875E+04 -4.49252E+04
  8.34217E+03 -4.40125E+04  3.60160E+04 -1.88397E+04  3.38789E+04  1.10082E+04  5.77634E+03  2.17271E+04
 -1.39676E+04  1.06187E+04 -1.21515E+04 -7.20046E+03  5.40993E+03 -1.21289E+04  1.90450E+04  5.51492E+03
  1.55719E+04  2.30386E+04 -4.94641E+03  2.85665E+04 -2.37462E+04  1.58362E+04 -3.36694E+04 -2.04762E+03
 -2.83201E+04 -1.94186E+04 -1.35959E+04 -2.74422E+04  4.45288E+03 -2.94294E+04  2.23257E+04 -2.60642E+04
  3.58007E+04 -1.48413E+04  4.15914E+04  6.51774E+03  2.91109E+04  2.71094E+04  5.00393E+03  4.45140E+04
 -2.16460E+04  3.57257E+04 -3.22096E+04  1.26572E+04 -2.35395E+04 -1.02634E+04 -5.49884E+03 -1.25558E+04
  8.28165E+01 -1.05044E+02 -9.28458E+03  9.30225E+03 -2.27536E+04  4.87931E+03 -2.22241E+04 -1.14853E+04
 -1.33170E+04 -2.59462E+04  6.60244E+03 -3.07183E+04  2.05693E+04 -2.15239E+04  2.56974E+04 -1.82594E+03
  1.62666E+04  1.75771E+04 -1.09322E+03  2.61487E+04 -1.85629E+04  1.53893E+04 -2.60273E+04 -5.72338E+03
 -1.96133E+04 -2.31689E+04 -2.05254E+03 -3.08072E+04  1.41627E+04 -2.58567E+04  2.56537E+04 -1.38875E+04
  2.46292E+04 -6.80808E+02  1.77995E+04  5.70340E+03  1.02827E+04  1.97525E+03  1.39419E+04 -2.59847E+03
  2.49254E+04  2.92305E+03  2.95496E+04  2.06429E+04  2.09378E+04  4.23982E+04 -2.46897E+03  5.09366E+04
 -2.87393E+04  4.30129E+04 -4.79409E+04  2.25258E+04 -5.15314E+04 -3.82432E+03 -4.15261E+04 -3.06284E+04
 -1.60204E+04 -4.33415E+04  1.58179E+04 -3.77945E+04  3.22078E+04 -1.69403E+04  2.70615E+04  9.55202E+03
  8.94086E+03  2.17327E+04 -1.33358E+04  1.72197E+04 -2.25182E+04  2.45761E+03 -1.67986E+04 -1.46881E+04
 -6.76469E+02 -2.19210E+04  1.23077E+04 -1.57808E+04  1.54369E+04 -1.83946E+03  4.68743E+03  1.01694E+04
 -1.00870E+04  5.13166E+03 -1.12567E+04 -8.09658E+03 -3.01494E+03 -2.09787E+04  1.35658E+04 -2.34148E+04
  2.69384E+04 -1.38488E+04  3.17291E+04  3.68631E+03  2.78615E+04  2.18234E+04  1.26232E+04  3.45892E+04
 -6.90059E+03  3.70491E+04 -2.43051E+04  2.26271E+04 -2.68705E+04  4.51241E+03 -1.80925E+04 -7.20683E+03
 -7.06727E+03 -9.55429E+03 -3.86840E+02 -2.87905E+02 -3.04862E+03  4.14061E+03 -8.87619E+03  6.12459E+03
 -1.65625E+04 -1.56339E+03 -1.74690E+04 -1.37166E+04 -7.06268E+03 -2.28877E+04  7.39193E+03 -1.81495E+04
  1.52679E+04 -7.27581E+03  1.06164E+04  4.83433E+03 -6.25945E+02  7.36703E+03 -9.54618E+03 -6.60981E+02
 -9.17375E+03 -1.17501E+04 -7.25230E+02 -1.86636E+04  1.08725E+04 -1.96904E+04  2.45235E+04 -1.02434E+04
  2.80435E+04  3.18251E+03  2.01287E+04  1.82976E+04  3.68358E+03  2.33468E+04 -1.13514E+04  1.87499E+04
 -1.50876E+04  5.08602E+03 -7.84431E+03 -4.55953E+03  2.77254E+03 -5.33734E+03  9.90407E+03 -8.77662E+02
  8.80523E+03  8.70668E+03  1.87027E+03  1.52126E+04 -1.10189E+04  1.42048E+04 -1.90001E+04  3.40170E+03
 -1.33626E+04 -1.03609E+04  5.32008E+02 -1.63070E+04  1.13134E+04 -8.21950E+03  1.21444E+04  4.05964E+03
  3.31826E+03  1.30857E+04 -9.59461E+03  1.49807E+04 -1.73611E+04  6.14486E+03 -1.78637E+04 -7.01081E+03
 -9.74722E+03 -1.99524E+04  5.07335E+03 -2.32755E+04  1.92737E+04 -1.34870E+04  2.13581E+04  3.93034E+03
  1.23117E+04  1.69346E+04 -2.18459E+03  1.93002E+04 -1.50305E+04  1.09080E+04 -1.63384E+04 -1.46896E+03
 -1.28573E+04 -1.30072E+04 -2.18187E+03 -1.51001E+04  8.19030E+03 -1.16281E+04  1.01713E+04 -4.11318E+03
  6.25705E+03  2.95395E+03 -1.90738E+03  2.68846E+03 -1.26484E+03 -4.84971E+03  3.85167E+03 -9.87673E+03
  1.52326E+04 -6.94970E+03  2.11557E+04  2.29387E+03  2.05264E+04  1.42701E+04  1.23236E+04  2.68917E+04
 -6.50015E+03  3.13646E+04 -2.54092E+04  2.28776E+04 -3.27812E+04  4.25382E+03 -2.67758E+04 -1.23744E+04
 -1.31666E+04 -2.16522E+04 -3.85721E+02 -1.86179E+04  6.51130E+03 -1.08845E+04  6.95187E+03 -6.30847E+03
  4.88402E+03 -3.93844E+03  5.15879E+03 -4.29109E+03  6.86368E+03 -4.77376E+03  1.01650E+04 -2.62729E+03
  1.33942E+04  3.05904E+03  8.29507E+03  1.25742E+04 -3.24676E+03  1.49257E+04 -1.45292E+04  1.11163E+04
 -1.90409E+04 -1.35716E+03 -1.29718E+04 -1.36917E+04 -2.42399E+03 -2.06801E+04  1.10904E+04 -2.06974E+04
  2.13969E+04 -1.14773E+04  2.55555E+04  3.70732E+03  1.76378E+04  1.84002E+04  2.34373E+03  2.36415E+04
 -9.72992E+03  1.88570E+04 -1.38024E+04  6.41127E+03 -9.78614E+03 -2.12863E+03 -4.36386E+03 -2.73035E+03
 -2.23264E+03 -4.67523E+02 -3.22712E+03  3.28695E+03 -7.67915E+03  3.22111E+03 -1.30338E+04 -2.01064E+03
 -1.04162E+04 -1.30518E+04 -8.48254E+00 -1.93243E+04  1.20675E+04 -1.86739E+04  2.04136E+04 -5.39749E+03
  1.97321E+04  9.18654E+03  9.39760E+03  1.75892E+04 -4.45235E+03  2.01601E+04 -1.45610E+04  1.21593E+04
 -1.91150E+04  3.69959E+02 -1.43582E+04 -1.20966E+04 -1.76209E+03 -1.67434E+04  8.76868E+03 -1.27896E+04
  1.31331E+04 -3.89530E+03  8.93791E+03  3.83741E+03  3.41806E+03  5.91243E+03  1.83336E+03  2.52393E+03
  3.83892E+03  1.28211E+03  4.79094E+03  2.71439E+03  6.53226E+03  6.79684E+03  4.89507E+03  1.15994E+04
 -3.84822E+03  1.66588E+04 -1.45017E+04  1.56547E+04 -2.15560E+04  3.21579E+03 -2.15817E+04 -9.39913E+03
 -1.06685E+04 -2.08646E+04  3.28962E+03 -2.24961E+04  1.28872E+04 -1.49155E+04  1.70265E+04 -3.79127E+03
  1.29608E+04  7.90029E+03  2.87821E+03  1.19985E+04 -6.62312E+03  7.87222E+03 -8.53412E+03 -8.20253E+02
 -4.08374E+03 -8.95527E+03  4.64219E+03 -9.80806E+03  8.80642E+03 -3.97748E+03  8.66783E+03  1.27513E+03
  5.31962E+03  3.99710E+03  2.15167E+03  3.60350E+03 -1.16958E+03  2.69021E+03  1.72369E+03 -5.06801E+02
  3.78169E+03 -1.37221E+03  8.07233E+03  3.23414E+03  5.70766E+03  1.11276E+04 -1.71228E+03  1.49185E+04
 -1.00105E+04  1.10524E+04 -1.42116E+04  2.97195E+03 -1.23928E+04 -4.47072E+03 -5.62581E+03 -8.58125E+03
  1.75199E+03 -8.55980E+03  5.59784E+03 -3.88730E+03  4.86695E+03  3.88291E+03 -1.81352E+03  7.08086E+03
 -9.16615E+03  4.29270E+03 -1.02837E+04 -4.77562E+03 -5.87154E+03 -1.16300E+04  1.48860E+03 -1.23434E+04
  7.73264E+03 -7.20991E+03  9.31079E+03 -5.50864E+02  6.61591E+03  3.28641E+03  1.12769E+03  5.76566E+03
 -4.47108E+03  2.39876E+03 -5.24289E+03 -4.38112E+03  1.64508E+03 -9.26170E+03  1.06653E+04 -7.99695E+03
  1.46323E+04  1.16210E+03  1.29441E+04  9.80691E+03  4.17077E+03  1.50769E+04 -5.63073E+03  1.41694E+04
 -1.23651E+04  6.55311E+03 -1.24225E+04 -2.03331E+03 -6.86901E+03 -9.36587E+03  2.14392E+03 -9.18587E+03
  9.15294E+03 -4.09526E+03  7.90681E+03  3.47110E+03  2.71322E+03  7.99652E+03 -1.44576E+03  7.20931E+03
 -4.06472E+03  4.73225E+03 -3.96016E+03  1.76319E+03 -2.16408E+03  1.63004E+03 -2.28122E+03  3.22380E+03
 -3.80279E+03  5.31460E+03 -9.04318E+03  4.66073E+03 -1.49151E+04  2.76319E+02 -1.65009E+04 -9.46083E+03
 -8.62597E+03 -1.99537E+04  3.61042E+03 -2.27494E+04  1.46697E+04 -1.77714E+04  2.19330E+04 -6.78457E+03
  2.05830E+04  4.45976E+03  1.30583E+04  1.40394E+04  1.84146E+03  1.65264E+04 -6.11585E+03  1.21593E+04
 -9.15126E+03  4.21253E+03 -5.52706E+03 -1.90274E+03 -1.45488E+03 -1.57480E+03 -5.65383E+02 -5.36802E+02
 -1.95842E+03  9.06477E+02 -3.28286E+03 -6.85201E+02 -1.04087E+03 -3.12358E+03 -3.04803E+01 -5.63420E+03
  6.56156E+03 -4.96063E+03  1.03930E+04  3.82389E+01  1.11305E+04  8.48157E+03  3.75012E+03  1.62211E+04
 -7.33271E+03  1.83414E+04 -1.75882E+04  1.06431E+04 -2.00611E+04 -1.37489E+03 -1.45872E+04 -1.23658E+04
 -5.70970E+03 -1.71544E+04  4.54324E+03 -1.54710E+04  1.04516E+04 -8.12597E+03  1.12561E+04  1.07542E+02
  5.85356E+03  5.40111E+03 -9.63936E+02  4.55636E+03 -3.37464E+03 -4.41452E+02  2.16156E+01 -3.85534E+03
  4.92245E+03 -2.50423E+03  6.90720E+03  1.92459E+03  4.90345E+03  6.63380E+03 -1.45098E+02  8.85420E+03
 -7.20907E+03  7.89473E+03 -1.16922E+04  1.11304E+03 -1.01695E+04 -8.43377E+03 -1.71656E+03 -1.39079E+04
  7.71782E+03 -1.16957E+04  1.28657E+04 -3.72312E+03  1.29900E+04  3.31183E+03  7.51531E+03  1.00864E+04
  1.52761E+03  1.11170E+04 -4.72937E+03  8.90299E+03 -7.16959E+03  4.57448E+03 -5.99355E+03  7.53104E+02
 -2.99494E+03 -4.56096E+02 -3.77028E+03  1.36816E+03 -5.99092E+03  1.95854E+03 -8.43776E+03 -1.54591E+03
 -8.49154E+03 -6.36703E+03 -2.63046E+03 -1.09893E+04  5.21199E+03 -1.13141E+04  1.00316E+04 -6.11156E+03
  1.11116E+04  1.18782E+03  6.50157E+03  8.19537E+03 -1.03675E+03  1.11899E+04 -8.55040E+03  7.19371E+03
