 $NMID ID='MM_0lb_SNR800_10hz_g55_57.RAW', FMTDAT='(8E13.5)'
 TRAMP=1., VOLUME=1. $END
  3.09558E+05  2.91566E+02  3.37796E+05  2.50871E+05  8.52576E+04  3.38586E+05 -1.32881E+05  2.51258E+05
 -1.90721E+05  8.34927E+04 -1.12376E+05 -3.24062E+04  3.57845E+02 -5.05607E+04  5.35265E+04 -3.23525E+02
  3.53790E+04  5.30077E+04 -1.68399E+04  7.59522E+04 -6.12321E+04  6.43968E+04 -8.49104E+04  3.23881E+04
 -8.25220E+04 -1.19145E+04 -5.77576E+04 -5.21232E+04 -1.51750E+04 -7.10568E+04  2.80309E+04 -4.68246E+04
  4.09136E+04  3.75832E+03  1.67147E+04  4.84787E+04 -3.50901E+04  4.80182E+04 -6.82821E+04 -3.99176E+02
 -5.49496E+04 -5.77210E+04 -7.37771E+03 -7.87724E+04  3.47854E+04 -5.68550E+04  4.92049E+04 -1.82970E+04
  4.53037E+04  1.19576E+04  3.30707E+04  2.62991E+04  1.59927E+04  3.07688E+04 -5.62345E+03  2.76996E+04
 -2.24925E+04  1.24796E+04 -1.81240E+04 -5.40580E+03  6.72323E+03 -7.72649E+03  2.33124E+04  1.37069E+04
  6.96812E+03  3.71173E+04 -3.37002E+04  3.69433E+04 -6.56961E+04  2.14504E+03 -5.86335E+04 -4.38436E+04
 -1.23754E+04 -6.53253E+04  4.13997E+04 -4.73194E+04  6.06954E+04 -2.38336E+03  3.62808E+04  3.42977E+04
 -5.66502E+03  3.90959E+04 -3.19985E+04  1.80781E+04 -3.29844E+04 -3.34851E+03 -1.89031E+04 -1.18319E+04
 -9.36088E+03 -1.46431E+04 -5.36962E+02 -1.96419E+04  8.33028E+03 -2.32305E+04  1.54606E+04 -1.26880E+04
  1.05963E+04  6.01196E+03 -1.04266E+04  1.28851E+04 -2.37418E+04 -6.58039E+03 -8.70406E+03 -3.71389E+04
  2.53683E+04 -4.63722E+04  5.19190E+04 -2.09815E+04  4.84097E+04  2.07529E+04  1.71167E+04  4.67646E+04
 -1.63202E+04  3.58259E+04 -2.75022E+04  2.64458E+03 -1.15709E+04 -2.91905E+04  2.15875E+04 -3.67612E+04
  4.42197E+04 -1.04785E+04  3.99803E+04  2.52930E+04  2.13611E+04  5.05939E+04 -8.39132E+03  5.60573E+04
 -3.55109E+04  3.82049E+04 -4.68292E+04  1.09339E+04 -4.72876E+04 -1.84856E+04 -2.56766E+04 -4.16838E+04
  7.74771E+03 -4.17276E+04  3.40172E+04 -1.64157E+04  3.19059E+04  1.15544E+04  5.12064E+03  2.06702E+04
 -1.40490E+04  9.83659E+03 -1.10924E+04 -7.57908E+03  5.33770E+03 -1.18833E+04  1.88245E+04  5.35744E+03
  1.45155E+04  2.25841E+04 -5.30883E+03  2.67751E+04 -2.32695E+04  1.39317E+04 -3.13840E+04 -2.83556E+03
 -2.47943E+04 -1.82799E+04 -1.13169E+04 -2.46335E+04  4.44805E+03 -2.50324E+04  1.95655E+04 -2.27483E+04
  3.15410E+04 -1.33186E+04  3.72575E+04  4.71674E+03  2.67664E+04  2.35250E+04  4.96258E+03  4.08036E+04
 -1.94965E+04  3.34848E+04 -3.05375E+04  1.17513E+04 -2.25091E+04 -1.02398E+04 -4.43079E+03 -1.35000E+04
  7.60279E+02 -1.10885E+03 -7.32524E+03  8.29243E+03 -1.98565E+04  5.23684E+03 -1.95088E+04 -9.37109E+03
 -1.17398E+04 -2.25423E+04  6.12576E+03 -2.72977E+04  1.87785E+04 -1.94923E+04  2.17903E+04 -1.86257E+03
  1.38802E+04  1.61214E+04 -1.37798E+03  2.27741E+04 -1.63092E+04  1.32430E+04 -2.32415E+04 -4.39446E+03
 -1.69318E+04 -2.04175E+04 -2.49198E+03 -2.74283E+04  1.21794E+04 -2.27677E+04  2.23729E+04 -1.19451E+04
  2.15389E+04 -4.10383E+02  1.58460E+04  5.20180E+03  8.56841E+03  1.45024E+03  1.19507E+04 -1.86004E+03
  2.16539E+04  2.72471E+03  2.46277E+04  1.78723E+04  1.70762E+04  3.70389E+04 -2.94830E+03  4.31891E+04
 -2.47755E+04  3.59633E+04 -4.06626E+04  1.85803E+04 -4.37490E+04 -3.16006E+03 -3.51272E+04 -2.53079E+04
 -1.40598E+04 -3.59780E+04  1.27473E+04 -3.17531E+04  2.71321E+04 -1.49505E+04  2.37606E+04  7.82187E+03
  7.72617E+03  1.82299E+04 -1.11613E+04  1.56066E+04 -1.95006E+04  2.43674E+03 -1.53957E+04 -1.24486E+04
 -2.83474E+02 -1.85928E+04  1.01356E+04 -1.40973E+04  1.30091E+04 -1.47274E+03  3.38989E+03  8.47362E+03
 -8.90166E+03  4.24560E+03 -9.03016E+03 -6.93328E+03 -1.65662E+03 -1.72345E+04  1.15704E+04 -1.93713E+04
  2.22434E+04 -1.08195E+04  2.52098E+04  3.10824E+03  2.19377E+04  1.80408E+04  9.87537E+03  2.83612E+04
 -5.15717E+03  3.02957E+04 -2.00489E+04  1.87438E+04 -2.16728E+04  3.89686E+03 -1.48673E+04 -5.41614E+03
 -6.45701E+03 -6.78507E+03 -7.34216E+02  5.05555E+02 -2.87889E+03  3.00539E+03 -6.85114E+03  5.45648E+03
 -1.39247E+04 -5.70400E+02 -1.45251E+04 -1.19616E+04 -5.94066E+03 -1.88678E+04  6.47489E+03 -1.48113E+04
  1.24684E+04 -5.92169E+03  9.28626E+03  3.90732E+03 -3.21248E+02  6.04312E+03 -7.50606E+03 -1.40287E+02
 -7.01239E+03 -9.77671E+03 -1.28118E+03 -1.50394E+04  8.63808E+03 -1.57892E+04  1.95204E+04 -8.51604E+03
  2.25825E+04  2.31440E+03  1.63537E+04  1.40360E+04  3.25134E+03  1.81740E+04 -9.23231E+03  1.51985E+04
 -1.19933E+04  3.98193E+03 -5.96196E+03 -3.65116E+03  2.19417E+03 -4.07849E+03  7.68869E+03 -9.66713E+02
  7.08468E+03  6.66147E+03  1.49452E+03  1.26540E+04 -8.59329E+03  1.16625E+04 -1.48647E+04  3.48457E+03
 -1.03459E+04 -7.77166E+03  5.84337E+02 -1.30596E+04  8.50619E+03 -6.47244E+03  9.01055E+03  3.17993E+03
  2.15492E+03  9.52901E+03 -8.15035E+03  1.11346E+04 -1.26407E+04  4.61744E+03 -1.32596E+04 -4.74510E+03
 -7.37074E+03 -1.46999E+04  3.80906E+03 -1.71918E+04  1.48535E+04 -1.02443E+04  1.58743E+04  2.71007E+03
  9.61471E+03  1.23155E+04 -1.61692E+03  1.53797E+04 -1.14935E+04  8.20355E+03 -1.24681E+04 -1.26217E+03
 -1.04645E+04 -1.01167E+04 -1.77281E+03 -1.13420E+04  5.99929E+03 -9.28647E+03  7.04232E+03 -3.50760E+03
  4.74640E+03  1.68695E+03 -9.55006E+02  1.74029E+03 -9.59580E+02 -2.91095E+03  2.39841E+03 -6.99758E+03
  1.08508E+04 -4.61704E+03  1.53178E+04  2.06462E+03  1.49263E+04  1.02332E+04  9.94139E+03  1.96367E+04
 -4.77493E+03  2.21381E+04 -1.86568E+04  1.67866E+04 -2.46076E+04  2.94167E+03 -1.96598E+04 -8.35642E+03
 -9.73423E+03 -1.58102E+04  7.92985E+01 -1.36796E+04  4.83003E+03 -7.60161E+03  4.82874E+03 -5.13398E+03
  3.46650E+03 -2.61761E+03  3.61842E+03 -4.18561E+03  5.57267E+03 -3.26956E+03  7.62631E+03 -1.17666E+03
  9.70094E+03  2.43500E+03  5.30565E+03  8.39690E+03 -1.96427E+03  1.10257E+04 -1.06366E+04  7.95763E+03
 -1.37590E+04 -1.08680E+03 -8.68810E+03 -9.60365E+03 -9.86340E+02 -1.46995E+04  7.88338E+03 -1.48907E+04
  1.52914E+04 -8.73090E+03  1.86081E+04  2.66582E+03  1.26723E+04  1.29238E+04  1.97397E+03  1.66573E+04
 -7.07320E+03  1.35385E+04 -9.59520E+03  4.60659E+03 -6.91487E+03 -1.67266E+03 -2.50380E+03 -2.20938E+03
 -1.04672E+03  1.39173E+02 -2.13294E+03  3.17549E+03 -5.90070E+03  2.40455E+03 -9.75622E+03 -1.00257E+03
 -6.62033E+03 -9.15787E+03  3.59577E+02 -1.36544E+04  8.57340E+03 -1.30637E+04  1.31701E+04 -4.04746E+03
  1.34589E+04  6.85126E+03  6.75520E+03  1.20331E+04 -2.90462E+03  1.39758E+04 -1.03297E+04  8.76386E+03
 -1.26749E+04  3.71359E+02 -1.00311E+04 -8.50744E+03 -1.17969E+03 -1.14257E+04  5.93155E+03 -8.77049E+03
  9.02407E+03 -2.87475E+03  6.20806E+03  2.32301E+03  2.30689E+03  4.22794E+03  1.43165E+03  2.03629E+03
  2.38412E+03  7.49753E+02  3.76990E+03  1.47747E+03  3.68678E+03  4.70995E+03  4.26705E+03  7.06684E+03
 -2.96102E+03  1.06038E+04 -9.51421E+03  1.12750E+04 -1.41800E+04  3.02255E+03 -1.44659E+04 -5.66597E+03
 -7.07621E+03 -1.37862E+04  2.02595E+03 -1.50212E+04  7.95939E+03 -9.68024E+03  1.11289E+04 -2.40314E+03
  8.86870E+03  5.27342E+03  2.24989E+03  8.04877E+03 -3.81412E+03  4.94833E+03 -5.50922E+03 -1.05306E+03
 -2.75880E+03 -5.98715E+03  3.34067E+03 -5.66066E+03  5.62951E+03 -3.05856E+03  5.66463E+03  1.54201E+03
  3.02399E+03  2.58918E+03  1.70188E+03  2.63656E+03 -1.08972E+03  1.44308E+03  1.51793E+03 -7.53401E+02
  1.73193E+03 -8.27073E+02  5.82636E+03  2.34030E+03  3.05159E+03  7.61713E+03 -1.09573E+03  9.41978E+03
 -6.38501E+03  6.31786E+03 -8.84029E+03  1.64001E+03 -7.97785E+03 -3.06217E+03 -3.41412E+03 -5.51962E+03
  8.27683E+02 -5.17647E+03  3.47832E+03 -2.24973E+03  2.95167E+03  2.52510E+03 -1.29966E+03  4.45932E+03
 -5.47745E+03  2.60841E+03 -6.32046E+03 -3.40691E+03 -3.96746E+03 -7.50570E+03  8.93069E+02 -7.67085E+03
  4.66418E+03 -4.44148E+03  5.71783E+03 -6.41401E+02  4.50728E+03  1.55477E+03  4.32485E+02  4.49963E+03
 -3.06908E+03  1.48204E+03 -3.09898E+03 -2.89199E+03  1.38109E+03 -5.85914E+03  6.67719E+03 -4.87999E+03
  8.30606E+03  8.47530E+02  8.30771E+03  5.59181E+03  2.46640E+03  9.25364E+03 -2.91648E+03  8.24245E+03
 -7.26451E+03  4.00459E+03 -7.47909E+03 -1.00310E+03 -4.03015E+03 -5.84649E+03  1.59064E+03 -5.31126E+03
  5.47339E+03 -2.67631E+03  4.42391E+03  2.23206E+03  1.45789E+03  5.28159E+03 -1.03922E+03  4.43121E+03
 -2.55542E+03  2.91548E+03 -2.19256E+03  1.23533E+03 -1.09959E+03  1.07949E+03 -1.75253E+03  1.90505E+03
 -2.64874E+03  3.36021E+03 -5.91073E+03  3.32299E+03 -9.17405E+03  2.79449E+02 -1.01960E+04 -5.64606E+03
 -5.28148E+03 -1.17108E+04  2.23378E+03 -1.33635E+04  8.22344E+03 -1.04371E+04  1.28516E+04 -3.60958E+03
  1.17805E+04  2.26245E+03  7.30769E+03  7.94630E+03  4.13783E+02  9.05745E+03 -3.75769E+03  6.80463E+03
 -5.26371E+03  2.65029E+03 -3.22150E+03 -1.48030E+03 -9.84794E+02 -1.06690E+03 -7.59664E+02 -2.01905E+02
 -1.65261E+03  3.06790E+02 -1.95130E+03 -6.65842E+02 -8.34769E+02 -1.94808E+03  1.29237E+02 -3.56494E+03
  4.13811E+03 -3.21805E+03  5.41546E+03 -9.12414E-01  6.40530E+03  5.22208E+03  1.90516E+03  8.43754E+03
 -4.47120E+03  1.05544E+04 -9.51522E+03  6.04004E+03 -1.11680E+04 -5.84921E+02 -8.19571E+03 -6.44225E+03
 -3.37816E+03 -9.66684E+03  2.39336E+03 -8.23543E+03  5.56535E+03 -4.91388E+03  5.85216E+03  5.56036E+02
  3.28646E+03  3.17278E+03 -1.40389E+02  2.50438E+03 -1.55145E+03 -3.50650E+02 -9.67266E+01 -1.89041E+03
  3.41416E+03 -1.08119E+03  3.31741E+03  1.07375E+03  2.31721E+03  3.76502E+03  1.41522E+02  4.51819E+03
 -3.80578E+03  4.54282E+03 -5.41787E+03  6.68297E+02 -5.26216E+03 -4.47028E+03 -1.01417E+03 -7.27826E+03
  4.38774E+03 -6.25245E+03  6.83292E+03 -2.21351E+03  6.56211E+03  1.12387E+03  3.93392E+03  5.69570E+03
  7.34724E+02  6.27329E+03 -2.49272E+03  4.77934E+03 -3.42332E+03  2.71416E+03 -2.96893E+03  4.41107E+02
 -1.93014E+03 -2.43613E+02 -1.79908E+03  6.43562E+02 -2.85982E+03  1.03333E+03 -4.82899E+03 -9.29570E+02
 -4.44514E+03 -3.25869E+03 -1.49011E+03 -6.13871E+03  3.42347E+03 -6.50356E+03  5.49193E+03 -2.78070E+03
  5.90777E+03  3.66124E+02  3.18561E+03  4.23814E+03 -4.55486E+02  5.87342E+03 -4.48574E+03  4.03447E+03
