 $NMID ID='MM_0lb_SNR800_13hz_g50_52.RAW', FMTDAT='(8E13.5)'
 TRAMP=1., VOLUME=1. $END
  3.09839E+05  1.83568E+02  3.37866E+05  2.50705E+05  8.45256E+04  3.37994E+05 -1.32684E+05  2.51214E+05
 -1.90423E+05  8.32711E+04 -1.11654E+05 -3.24843E+04  8.02919E+02 -5.01987E+04  5.36431E+04 -1.18206E+02
  3.57680E+04  5.26161E+04 -1.67582E+04  7.57304E+04 -6.07041E+04  6.38170E+04 -8.42502E+04  3.21647E+04
 -8.15703E+04 -1.13583E+04 -5.76360E+04 -5.13765E+04 -1.50442E+04 -6.98498E+04  2.74410E+04 -4.60573E+04
  4.05659E+04  3.69688E+03  1.61645E+04  4.81139E+04 -3.41757E+04  4.72935E+04 -6.71260E+04 -3.30213E+02
 -5.34994E+04 -5.71183E+04 -6.69323E+03 -7.74220E+04  3.41853E+04 -5.54700E+04  4.82104E+04 -1.75981E+04
  4.35973E+04  1.13417E+04  3.20956E+04  2.57335E+04  1.58722E+04  3.00446E+04 -5.26053E+03  2.69648E+04
 -2.22896E+04  1.25013E+04 -1.86588E+04 -5.16016E+03  6.19930E+03 -7.59586E+03  2.26795E+04  1.27304E+04
  7.09430E+03  3.57634E+04 -3.24670E+04  3.58284E+04 -6.40542E+04  2.02365E+03 -5.72303E+04 -4.31369E+04
 -1.21912E+04 -6.35428E+04  4.01672E+04 -4.53415E+04  5.90905E+04 -2.30993E+03  3.48030E+04  3.29214E+04
 -5.94208E+03  3.67767E+04 -3.04526E+04  1.65230E+04 -3.10940E+04 -4.20666E+03 -1.74611E+04 -1.13841E+04
 -8.57572E+03 -1.35841E+04 -3.11878E+02 -1.84343E+04  7.71804E+03 -2.34552E+04  1.56735E+04 -1.30712E+04
  1.08895E+04  5.56496E+03 -8.79043E+03  1.26480E+04 -2.18981E+04 -4.70080E+03 -8.45756E+03 -3.47961E+04
  2.31385E+04 -4.41722E+04  4.88352E+04 -1.98436E+04  4.56189E+04  1.99169E+04  1.58381E+04  4.51637E+04
 -1.63635E+04  3.41718E+04 -2.57944E+04  1.92200E+03 -1.02530E+04 -2.80587E+04  2.11579E+04 -3.41661E+04
  4.20262E+04 -9.52073E+03  3.65364E+04  2.41451E+04  1.89284E+04  4.78522E+04 -8.03975E+03  5.13367E+04
 -3.23166E+04  3.45754E+04 -4.31656E+04  9.70923E+03 -4.36048E+04 -1.68629E+04 -2.41742E+04 -3.86957E+04
  7.60478E+03 -3.87896E+04  3.22047E+04 -1.50033E+04  3.01531E+04  1.09323E+04  4.39483E+03  1.98717E+04
 -1.34006E+04  9.05000E+03 -1.06307E+04 -7.58387E+03  5.98476E+03 -1.07582E+04  1.81377E+04  5.70169E+03
  1.38219E+04  2.23329E+04 -5.76299E+03  2.53486E+04 -2.23956E+04  1.21648E+04 -2.89739E+04 -4.29994E+03
 -2.16765E+04 -1.71978E+04 -8.89253E+03 -2.12719E+04  4.28999E+03 -2.10468E+04  1.67998E+04 -1.93800E+04
  2.74159E+04 -1.27751E+04  3.36707E+04  3.45436E+03  2.43627E+04  2.09115E+04  4.17096E+03  3.76894E+04
 -1.84403E+04  3.10196E+04 -2.87006E+04  1.07874E+04 -2.11703E+04 -1.00766E+04 -4.31692E+03 -1.31549E+04
  1.36272E+03 -2.57829E+03 -5.51232E+03  7.21575E+03 -1.67960E+04  5.09597E+03 -1.73954E+04 -7.23738E+03
 -1.04037E+04 -1.96884E+04  5.28753E+03 -2.40347E+04  1.60295E+04 -1.68866E+04  1.89864E+04 -1.83031E+03
  1.23120E+04  1.37787E+04 -1.10042E+03  1.98601E+04 -1.39240E+04  1.14474E+04 -1.99375E+04 -3.98108E+03
 -1.46195E+04 -1.79005E+04 -1.92234E+03 -2.40381E+04  1.08942E+04 -1.95979E+04  1.98912E+04 -1.01620E+04
  1.88623E+04  3.51950E+02  1.33424E+04  4.70924E+03  7.08257E+03  7.76875E+02  1.02260E+04 -1.71848E+03
  1.86193E+04  2.94560E+03  2.04414E+04  1.56440E+04  1.35995E+04  3.16681E+04 -2.80544E+03  3.64617E+04
 -2.11559E+04  2.94774E+04 -3.38524E+04  1.46462E+04 -3.54433E+04 -2.91227E+03 -2.94305E+04 -2.08279E+04
 -1.21276E+04 -2.93911E+04  1.00695E+04 -2.66123E+04  2.28206E+04 -1.33894E+04  2.01422E+04  6.17300E+03
  7.29454E+03  1.56433E+04 -9.45177E+03  1.30983E+04 -1.67672E+04  2.68957E+03 -1.30156E+04 -1.06945E+04
 -3.91840E+02 -1.63112E+04  8.56757E+03 -1.20851E+04  1.07516E+04 -1.28840E+03  2.61788E+03  6.99699E+03
 -7.28308E+03  3.07081E+03 -6.27176E+03 -5.68910E+03 -8.82208E+02 -1.45434E+04  9.75860E+03 -1.50135E+04
  1.79564E+04 -7.99827E+03  1.95751E+04  3.05871E+03  1.71005E+04  1.42303E+04  7.87031E+03  2.21356E+04
 -3.67677E+03  2.40976E+04 -1.53540E+04  1.51480E+04 -1.74216E+04  3.61981E+03 -1.20142E+04 -3.98132E+03
 -5.75607E+03 -5.27759E+03 -8.76311E+02  1.25438E+03 -2.67488E+03  2.86151E+03 -5.52103E+03  4.71658E+03
 -1.13609E+04 -2.65337E+02 -1.20583E+04 -9.37134E+03 -4.86828E+03 -1.56051E+04  5.08866E+03 -1.19849E+04
  1.00392E+04 -5.42259E+03  7.26037E+03  3.13549E+03  2.23473E+02  4.66661E+03 -5.89812E+03 -7.14647E+00
 -5.25354E+03 -7.83419E+03 -1.32602E+03 -1.14912E+04  6.68582E+03 -1.22017E+04  1.51973E+04 -6.46648E+03
  1.78599E+04  1.39633E+03  1.31764E+04  1.02411E+04  2.89129E+03  1.36607E+04 -7.76052E+03  1.21298E+04
 -9.76637E+03  3.29799E+03 -5.27080E+03 -2.24741E+03  2.12202E+03 -3.37673E+03  6.43818E+03 -8.99904E+02
  5.85742E+03  5.22380E+03  1.27518E+03  9.18224E+03 -6.72142E+03  9.34937E+03 -1.20100E+04  2.38869E+03
 -8.08845E+03 -5.99882E+03  4.19442E+02 -1.01584E+04  6.74623E+03 -4.96595E+03  6.62136E+03  2.19183E+03
  1.34286E+03  6.72814E+03 -6.20718E+03  8.34388E+03 -8.93621E+03  3.82591E+03 -9.22283E+03 -3.06622E+03
 -5.54121E+03 -1.10163E+04  2.60080E+03 -1.20795E+04  1.07490E+04 -7.95034E+03  1.15287E+04  2.11053E+03
  7.42519E+03  9.23539E+03 -7.01464E+02  1.14017E+04 -8.59443E+03  6.33385E+03 -8.84751E+03 -6.52118E+02
 -8.17250E+03 -7.88629E+03 -1.44871E+03 -8.34660E+03  4.25760E+03 -6.87441E+03  5.05018E+03 -3.21528E+03
  3.89585E+03  9.52143E+02 -2.87494E+02  1.98592E+03 -9.09559E+01 -1.73088E+03  1.10088E+03 -4.47851E+03
  7.65918E+03 -2.73445E+03  1.06214E+04  1.24240E+03  1.04355E+04  7.00976E+03  7.72018E+03  1.38094E+04
 -2.87744E+03  1.62192E+04 -1.36946E+04  1.15548E+04 -1.75659E+04  2.25429E+03 -1.42848E+04 -5.72270E+03
 -7.21899E+03 -1.16247E+04 -2.88932E+02 -9.76882E+03  3.77965E+03 -4.91293E+03  3.58193E+03 -3.46309E+03
  2.40824E+03 -2.41905E+03  2.87937E+03 -2.98278E+03  4.55525E+03 -2.62178E+03  5.68461E+03 -7.50426E+02
  7.22934E+03  1.43330E+03  3.30988E+03  6.25654E+03 -1.81405E+03  6.90166E+03 -7.50536E+03  5.38263E+03
 -9.37314E+03 -9.59676E+02 -5.36183E+03 -6.35691E+03 -8.63848E+01 -1.00942E+04  5.77263E+03 -1.02200E+04
  1.04539E+04 -5.76730E+03  1.27492E+04  1.04242E+03  8.85108E+03  8.77717E+03  1.35066E+03  1.13296E+04
 -4.31515E+03  9.93208E+03 -6.54851E+03  3.27286E+03 -4.63790E+03 -1.34508E+03 -1.89953E+03 -1.03406E+03
 -9.28348E+02  7.37480E+01 -1.77433E+03  2.64470E+03 -4.34630E+03  1.60185E+03 -7.01738E+03 -8.14913E+02
 -4.35708E+03 -6.89335E+03  4.90852E+02 -9.15282E+03  5.68107E+03 -8.90626E+03  8.78018E+03 -2.49463E+03
  8.80825E+03  4.60003E+03  4.01180E+03  7.93522E+03 -1.36700E+03  9.28675E+03 -6.30566E+03  5.62770E+03
 -8.45107E+03  2.96031E+02 -6.80852E+03 -5.38057E+03 -8.36881E+02 -7.08714E+03  3.61038E+03 -5.59417E+03
  5.86888E+03 -2.11953E+03  3.84332E+03  1.41514E+03  9.32916E+02  2.94958E+03  1.16874E+03  7.18300E+02
  2.37308E+03  8.93735E+02  2.28692E+03  1.19786E+03  2.97216E+03  3.80679E+03  2.91592E+03  4.47065E+03
 -2.16717E+03  6.79147E+03 -6.03354E+03  7.57697E+03 -8.27266E+03  1.80232E+03 -9.35012E+03 -3.06929E+03
 -4.08839E+03 -8.75105E+03  1.25151E+03 -9.59460E+03  4.90737E+03 -6.25065E+03  7.31244E+03 -1.97020E+03
  5.46979E+03  3.15966E+03  1.12749E+03  5.02352E+03 -2.19056E+03  2.80693E+03 -3.03765E+03 -3.62303E+02
 -1.60346E+03 -3.79661E+03  2.49119E+03 -3.70353E+03  3.36379E+03 -2.01874E+03  3.44648E+03  8.70455E+02
  2.15394E+03  1.04694E+03  1.18224E+03  8.68106E+02 -7.34671E+02  1.28252E+03  1.64175E+03 -4.11333E+02
  8.10745E+02 -3.71676E+02  3.62878E+03  1.41784E+03  1.77988E+03  4.96527E+03 -7.41260E+02  6.08120E+03
 -4.12783E+03  3.73260E+03 -5.44290E+03  1.02713E+03 -4.72257E+03 -1.78695E+03 -1.21996E+03 -2.98955E+03
  6.02555E+02 -3.30346E+03  1.77667E+03 -1.54521E+03  1.79001E+03  2.20974E+03 -1.21045E+03  2.29797E+03
 -3.63208E+03  1.83009E+03 -3.66434E+03 -2.37627E+03 -2.29137E+03 -4.83022E+03  4.03267E+02 -4.50063E+03
  2.21685E+03 -2.41953E+03  2.97337E+03 -2.20220E+02  2.99444E+03  6.28417E+02  2.45675E+02  2.22082E+03
 -1.40826E+03  6.13876E+02 -2.45527E+03 -1.08200E+03  1.12775E+03 -3.10835E+03  4.41317E+03 -2.44833E+03
  4.89619E+03  2.57467E+02  5.89972E+03  3.05123E+03  1.52863E+03  4.83641E+03 -1.62638E+03  4.99657E+03
 -4.00518E+03  1.69588E+03 -4.42272E+03 -5.34569E+02 -2.49927E+03 -3.78228E+03  8.00476E+02 -2.30421E+03
  3.51001E+03 -1.57504E+03  2.36937E+03  1.37546E+03  8.29650E+02  3.10677E+03 -2.38658E+02  2.49384E+03
 -1.19934E+03  2.20726E+03 -1.52634E+03  8.85731E+01 -4.83212E+02  4.57880E+02 -1.09783E+03  1.10129E+03
 -1.18126E+03  2.16070E+03 -3.84395E+03  1.45941E+03 -5.14602E+03  4.09359E+02 -5.61012E+03 -3.20266E+03
 -2.90937E+03 -6.66385E+03  1.42348E+03 -7.59800E+03  4.28674E+03 -5.78861E+03  7.45125E+03 -2.34139E+03
  6.84245E+03  7.76512E+02  3.76374E+03  4.55747E+03  4.98221E+01  4.67838E+03 -2.30104E+03  3.59861E+03
 -2.83682E+03  1.85041E+03 -1.69900E+03 -6.81036E+02 -8.84628E+02 -9.69691E+01 -6.97666E+02 -2.51303E+02
 -1.56766E+03 -2.04506E+02 -1.56119E+03 -4.97008E+02 -1.14647E+02 -1.58804E+03 -3.40608E+02 -1.59534E+03
  2.49378E+03 -1.61178E+03  2.44278E+03 -3.77562E+02  3.51433E+03  2.79982E+03  5.22028E+02  4.63571E+03
 -2.64986E+03  5.58129E+03 -5.48828E+03  3.39087E+03 -5.60028E+03 -3.98929E+02 -4.62392E+03 -3.84167E+03
 -2.05541E+03 -4.97708E+03  1.30856E+03 -4.20469E+03  3.04488E+03 -2.38015E+03  2.87861E+03 -1.78316E+02
  1.63914E+03  1.60874E+03 -3.35638E+01  1.22969E+03 -1.08885E+03 -1.77104E+02  5.09294E+01 -1.23542E+03
  1.96838E+03 -5.99374E+02  1.60945E+03  6.50650E+02  1.03961E+03  2.03522E+03  3.16075E+02  1.91382E+03
 -2.02210E+03  2.06454E+03 -2.93188E+03  5.12938E+02 -2.72114E+03 -2.21563E+03 -2.31013E+02 -4.00110E+03
  2.13785E+03 -3.13780E+03  3.33589E+03 -1.15731E+03  3.23225E+03  5.54883E+02  1.78206E+03  2.96341E+03
  2.64027E+02  2.79509E+03 -1.29191E+03  2.39964E+03 -1.68832E+03  1.22127E+03 -1.91707E+03  3.03822E+02
 -7.90812E+02 -3.14733E+02 -9.98686E+02  3.62280E+02 -1.68469E+03  5.79569E+02 -2.53214E+03 -6.00545E+02
 -2.65403E+03 -8.84447E+02 -9.79391E+02 -3.27023E+03  1.77749E+03 -3.31503E+03  2.62103E+03 -1.48641E+03
  3.34171E+03  4.56259E+02  1.15268E+03  1.88093E+03 -4.62664E+02  2.81374E+03 -2.00269E+03  1.91473E+03
