 $NMID ID='MM_0lb_SNR800_15hz_g55_94.RAW', FMTDAT='(8E13.5)'
 TRAMP=1., VOLUME=1. $END
  3.10117E+05  4.64651E+02  3.37574E+05  2.50630E+05  8.47692E+04  3.37702E+05 -1.32354E+05  2.50997E+05
 -1.90156E+05  8.31996E+04 -1.11843E+05 -3.25561E+04  8.44988E+02 -5.04346E+04  5.36677E+04  8.80001E+00
  3.50164E+04  5.27189E+04 -1.68794E+04  7.56256E+04 -6.07313E+04  6.36916E+04 -8.45157E+04  3.19701E+04
 -8.10057E+04 -1.14752E+04 -5.76237E+04 -5.17451E+04 -1.49065E+04 -6.97331E+04  2.74033E+04 -4.61499E+04
  4.01950E+04  4.03908E+03  1.64082E+04  4.77606E+04 -3.45680E+04  4.73691E+04 -6.66557E+04 -2.94324E+01
 -5.34363E+04 -5.67716E+04 -6.69109E+03 -7.71651E+04  3.40673E+04 -5.50132E+04  4.83051E+04 -1.71805E+04
  4.33829E+04  1.12425E+04  3.19116E+04  2.56395E+04  1.60783E+04  2.94696E+04 -5.46112E+03  2.75080E+04
 -2.21465E+04  1.23028E+04 -1.87284E+04 -4.95982E+03  5.63130E+03 -7.39488E+03  2.21447E+04  1.21976E+04
  7.23640E+03  3.54101E+04 -3.21350E+04  3.55894E+04 -6.31491E+04  1.93784E+03 -5.72413E+04 -4.29392E+04
 -1.24973E+04 -6.32853E+04  4.00324E+04 -4.56713E+04  5.83037E+04 -2.33446E+03  3.42217E+04  3.23695E+04
 -6.07865E+03  3.62804E+04 -3.02508E+04  1.60033E+04 -3.01711E+04 -4.51982E+03 -1.66163E+04 -1.11422E+04
 -8.41486E+03 -1.32844E+04 -9.88689E+02 -1.78655E+04  7.69277E+03 -2.27256E+04  1.53871E+04 -1.32159E+04
  1.13235E+04  5.31546E+03 -8.10913E+03  1.28373E+04 -2.12130E+04 -4.16623E+03 -8.31313E+03 -3.35453E+04
  2.26099E+04 -4.34750E+04  4.82725E+04 -1.96070E+04  4.48295E+04  1.95280E+04  1.55893E+04  4.43492E+04
 -1.57594E+04  3.36147E+04 -2.54905E+04  2.03296E+03 -9.74747E+03 -2.80202E+04  2.08846E+04 -3.42495E+04
  4.10017E+04 -9.05309E+03  3.59602E+04  2.36910E+04  1.84036E+04  4.67310E+04 -8.19703E+03  5.01325E+04
 -3.15933E+04  3.36273E+04 -4.19063E+04  9.59146E+03 -4.24007E+04 -1.66242E+04 -2.35874E+04 -3.82370E+04
  7.16001E+03 -3.80445E+04  3.14792E+04 -1.47547E+04  2.90725E+04  1.07723E+04  3.92355E+03  1.93815E+04
 -1.36214E+04  8.19556E+03 -1.00529E+04 -7.74939E+03  5.76837E+03 -1.08416E+04  1.81207E+04  5.92073E+03
  1.35635E+04  2.22878E+04 -6.13629E+03  2.48979E+04 -2.20759E+04  1.13450E+04 -2.80282E+04 -4.82265E+03
 -2.06003E+04 -1.74520E+04 -8.23184E+03 -2.05448E+04  4.08994E+03 -1.97664E+04  1.56567E+04 -1.83191E+04
  2.60963E+04 -1.26206E+04  3.25308E+04  2.62383E+03  2.40022E+04  1.98581E+04  4.03878E+03  3.63049E+04
 -1.74829E+04  3.03398E+04 -2.78040E+04  1.01536E+04 -2.08957E+04 -1.03285E+04 -3.97793E+03 -1.37865E+04
  2.22118E+03 -2.57089E+03 -4.76303E+03  6.66425E+03 -1.62973E+04  5.20868E+03 -1.61827E+04 -7.02569E+03
 -9.97007E+03 -1.88825E+04  5.25811E+03 -2.28676E+04  1.49957E+04 -1.64431E+04  1.80807E+04 -1.93699E+03
  1.13115E+04  1.28542E+04 -1.09587E+03  1.88108E+04 -1.30390E+04  1.08789E+04 -1.90120E+04 -3.94482E+03
 -1.40528E+04 -1.68287E+04 -1.60435E+03 -2.27603E+04  1.01862E+04 -1.87359E+04  1.88693E+04 -9.11525E+03
  1.76434E+04  4.34151E+02  1.32238E+04  4.44583E+03  6.72864E+03  9.18193E+02  9.31729E+03 -1.74262E+03
  1.71529E+04  2.97721E+03  1.92169E+04  1.47223E+04  1.24575E+04  3.01724E+04 -3.06526E+03  3.37477E+04
 -1.98385E+04  2.72735E+04 -3.15925E+04  1.33613E+04 -3.32386E+04 -2.41633E+03 -2.72010E+04 -1.88118E+04
 -1.19140E+04 -2.68607E+04  9.37423E+03 -2.41607E+04  2.09096E+04 -1.27658E+04  1.90177E+04  5.11265E+03
  7.39472E+03  1.43178E+04 -8.85265E+03  1.25134E+04 -1.61481E+04  2.50955E+03 -1.20957E+04 -1.01616E+04
 -3.43837E+02 -1.52356E+04  8.07734E+03 -1.14839E+04  1.02600E+04 -1.30255E+03  2.16974E+03  6.57550E+03
 -6.92296E+03  2.21127E+03 -5.74024E+03 -5.75673E+03 -4.03392E+02 -1.33547E+04  9.20484E+03 -1.38075E+04
  1.65097E+04 -7.24803E+03  1.73836E+04  3.03705E+03  1.51076E+04  1.27414E+04  6.95820E+03  1.96318E+04
 -3.19773E+03  2.16789E+04 -1.36268E+04  1.34910E+04 -1.56332E+04  3.44902E+03 -1.10370E+04 -3.38019E+03
 -5.28590E+03 -4.66062E+03 -8.56894E+02  1.03193E+03 -2.12762E+03  2.53739E+03 -4.89046E+03  4.63143E+03
 -1.02840E+04 -8.94476E+02 -1.08501E+04 -8.90213E+03 -4.38559E+03 -1.45861E+04  4.43170E+03 -1.08350E+04
  9.21294E+03 -4.72856E+03  6.98149E+03  3.13889E+03  6.91058E+01  4.46713E+03 -5.11140E+03 -1.83740E+02
 -4.82900E+03 -6.93969E+03 -9.33812E+02 -1.00313E+04  5.48522E+03 -1.12394E+04  1.37168E+04 -5.79782E+03
  1.57072E+04  1.07657E+03  1.17075E+04  9.36945E+03  2.28390E+03  1.22043E+04 -6.64743E+03  1.07971E+04
 -9.02508E+03  3.47867E+03 -4.66790E+03 -1.88640E+03  1.73969E+03 -2.55136E+03  5.87697E+03 -9.71664E+02
  5.34675E+03  4.63968E+03  1.11936E+03  8.44312E+03 -6.32892E+03  8.26336E+03 -1.06486E+04  2.16690E+03
 -6.82721E+03 -5.19871E+03  1.76953E+02 -8.72288E+03  5.60311E+03 -4.33044E+03  5.55858E+03  1.63471E+03
  1.00185E+03  5.54690E+03 -5.76750E+03  7.48723E+03 -7.96461E+03  3.21365E+03 -7.52484E+03 -2.41272E+03
 -4.58331E+03 -9.75535E+03  2.03902E+03 -1.05088E+04  9.20142E+03 -6.61297E+03  9.78733E+03  1.64230E+03
  6.19078E+03  7.92190E+03 -2.75427E+02  1.02165E+04 -7.23589E+03  5.94724E+03 -7.74607E+03 -6.83349E+02
 -7.36466E+03 -6.95807E+03 -1.24771E+03 -7.39400E+03  3.85127E+03 -6.05844E+03  4.34017E+03 -2.88304E+03
  3.60654E+03  9.86263E+02 -1.85486E+02  1.36086E+03  9.52603E+01 -1.11108E+03  1.08103E+03 -3.47379E+03
  6.24322E+03 -2.17141E+03  8.64145E+03  9.86994E+02  8.67746E+03  5.67875E+03  6.71432E+03  1.14551E+04
 -2.28111E+03  1.31866E+04 -1.14402E+04  1.01039E+04 -1.49718E+04  1.81614E+03 -1.21257E+04 -4.71307E+03
 -5.85766E+03 -9.86757E+03 -3.97610E+02 -8.30598E+03  2.94440E+03 -4.07528E+03  2.42234E+03 -3.40242E+03
  2.11384E+03 -1.99865E+03  2.64392E+03 -2.81176E+03  4.17769E+03 -2.11428E+03  5.07865E+03  4.07060E+01
  5.99163E+03  1.42813E+03  2.32442E+03  5.00416E+03 -1.96196E+03  5.34236E+03 -6.49835E+03  4.58053E+03
 -7.82144E+03 -1.26541E+03 -4.09579E+03 -5.33831E+03 -2.86256E+02 -8.46355E+03  4.71339E+03 -8.58703E+03
  8.57303E+03 -4.97985E+03  1.05951E+04  1.05612E+03  7.56540E+03  7.14242E+03  1.37836E+03  9.60880E+03
 -3.93678E+03  8.39971E+03 -5.53644E+03  2.61994E+03 -3.25497E+03 -1.36654E+03 -9.88300E+02 -1.12427E+03
 -6.67784E+02  1.13285E+02 -1.26394E+03  2.30230E+03 -3.48209E+03  1.72756E+03 -5.75653E+03 -6.40754E+02
 -3.22826E+03 -5.82390E+03  5.61207E+02 -7.73553E+03  4.41788E+03 -6.95553E+03  6.74872E+03 -1.83672E+03
  7.22347E+03  3.76514E+03  3.55073E+03  5.90117E+03 -1.44251E+03  7.43201E+03 -4.78843E+03  4.53890E+03
 -6.75585E+03  5.72051E+02 -5.51749E+03 -4.11825E+03 -5.92189E+02 -5.76606E+03  2.70982E+03 -4.32104E+03
  4.46732E+03 -2.09495E+03  3.08699E+03  1.08073E+03  1.11177E+03  2.54839E+03  1.15781E+03  9.59060E+02
  1.78343E+03  4.16545E+02  1.77240E+03  1.18119E+03  1.82729E+03  3.21365E+03  2.13993E+03  3.42947E+03
 -1.79023E+03  5.29141E+03 -4.42470E+03  6.12998E+03 -6.54371E+03  1.50492E+03 -7.20834E+03 -1.98313E+03
 -2.89497E+03 -6.49717E+03  1.21711E+03 -7.87980E+03  3.82333E+03 -4.67104E+03  5.52050E+03 -1.46734E+03
  4.24740E+03  2.67030E+03  6.95418E+02  3.88901E+03 -1.70363E+03  2.21937E+03 -2.45959E+03 -3.63459E+02
 -1.22896E+03 -2.72478E+03  1.72735E+03 -2.92328E+03  2.56294E+03 -1.32377E+03  2.49774E+03  6.51194E+02
  1.50794E+03  1.11258E+03  8.62883E+02  5.53082E+02 -5.59765E+02  1.11281E+03  1.50917E+03 -4.59709E+02
  4.69130E+02 -4.36701E+02  2.80931E+03  1.21536E+03  1.07840E+03  3.90225E+03 -4.12322E+02  4.84440E+03
 -2.91954E+03  2.53195E+03 -4.16891E+03  7.31922E+02 -3.66891E+03 -1.48816E+03 -9.13270E+02 -2.17187E+03
  4.85544E+02 -2.27021E+03  1.53012E+03 -1.04706E+03  1.20559E+03  1.28534E+03 -1.21682E+03  2.07616E+03
 -2.70794E+03  1.04559E+03 -2.53645E+03 -1.88027E+03 -1.50390E+03 -3.51570E+03  4.81629E+02 -2.80507E+03
  1.75294E+03 -1.91556E+03  1.77647E+03  1.76824E+02  2.15494E+03  2.24894E+02  6.70123E+01  2.36017E+03
 -8.82463E+02  4.08222E+02 -1.62592E+03 -8.37831E+02  9.97177E+02 -2.21173E+03  2.82930E+03 -1.89205E+03
  3.23960E+03  4.47531E+02  4.00805E+03  2.21257E+03  1.67385E+03  3.66622E+03 -1.12020E+03  3.46636E+03
 -2.98954E+03  1.04348E+03 -2.96704E+03 -4.50051E+02 -1.87371E+03 -2.45994E+03  6.33726E+02 -1.67791E+03
  2.41426E+03 -9.90703E+02  2.11930E+03  1.23649E+03  3.43296E+02  2.13937E+03 -1.25877E+01  1.73798E+03
 -1.20770E+03  1.70595E+03 -8.67712E+02  4.18567E+02 -2.43740E+02  4.44513E+02 -7.96798E+02  8.71852E+02
 -1.04800E+03  1.62645E+03 -3.07535E+03  1.00112E+03 -3.39963E+03  3.24889E+02 -4.27162E+03 -1.94860E+03
 -2.08372E+03 -4.53456E+03  5.10875E+02 -5.45451E+03  2.77140E+03 -4.28356E+03  5.01941E+03 -1.74523E+03
  4.66118E+03  7.96812E+02  2.94202E+03  3.23754E+03 -3.71318E+02  3.54304E+03 -1.32038E+03  2.79532E+03
 -1.54279E+03  1.19470E+03 -1.39150E+03 -5.08162E+02 -5.11334E+02 -6.51516E+01 -8.23376E+02 -4.49726E+01
 -1.12144E+03 -1.39467E+02 -1.27616E+03 -1.40198E+01  1.01675E+02 -1.22240E+03 -3.34904E+02 -1.45250E+03
  1.77633E+03 -9.30863E+02  1.67062E+03  1.99300E+02  2.15663E+03  1.95214E+03  1.89885E+02  3.34478E+03
 -1.72356E+03  4.43705E+03 -3.34893E+03  2.10838E+03 -3.76976E+03 -3.59082E+02 -2.49971E+03 -2.29989E+03
 -1.48754E+03 -2.96120E+03  8.24290E+02 -2.69411E+03  1.67214E+03 -1.29946E+03  1.77417E+03  2.48387E+02
  1.39047E+03  7.92025E+02 -6.47323E+01  9.39639E+02 -6.36520E+02  8.68867E+01  2.34797E+02 -7.25912E+02
  1.16193E+03 -2.08475E+02  5.83401E+02  8.43266E+02  3.79833E+02  1.32574E+03  3.14317E+02  1.03327E+03
 -1.40954E+03  1.48039E+03 -1.80553E+03  2.31438E+02 -1.79021E+03 -1.54559E+03 -3.05102E+02 -2.49252E+03
  1.53288E+03 -1.56561E+03  1.99069E+03 -2.96870E+02  2.10626E+03 -3.43150E+02  1.32658E+03  2.04100E+03
  5.38987E+02  1.61044E+03 -6.44580E+02  1.47380E+03 -1.13805E+03  1.09731E+03 -9.90516E+02  7.94424E+01
 -2.88185E+02 -2.15362E+02 -1.01173E+03  4.94669E+02 -1.06763E+03  3.96506E+02 -1.65849E+03 -4.65850E+02
 -1.87587E+03 -5.00114E+02 -5.01126E+02 -1.66803E+03  6.77875E+02 -2.52906E+03  1.50412E+03 -7.41062E+02
  1.79187E+03  2.21686E+02  2.91043E+02  1.07421E+03 -1.20501E+02  2.04227E+03 -1.13625E+03  1.40807E+03
