 $NMID ID='MM_0lb_SNR800_14hz_g45_57.RAW', FMTDAT='(8E13.5)'
 TRAMP=1., VOLUME=1. $END
  3.10167E+05  4.84448E+02  3.37813E+05  2.50540E+05  8.46829E+04  3.37767E+05 -1.32712E+05  2.51165E+05
 -1.90106E+05  8.29397E+04 -1.11924E+05 -3.27077E+04  1.02340E+03 -5.03355E+04  5.35295E+04  2.76245E+01
  3.54037E+04  5.26857E+04 -1.70116E+04  7.52990E+04 -6.06773E+04  6.34140E+04 -8.40085E+04  3.18191E+04
 -8.06390E+04 -1.14248E+04 -5.71056E+04 -5.11619E+04 -1.52276E+04 -6.93434E+04  2.71923E+04 -4.56364E+04
  4.02005E+04  3.70725E+03  1.59463E+04  4.77317E+04 -3.46052E+04  4.70844E+04 -6.66130E+04 -3.03115E+02
 -5.34501E+04 -5.67568E+04 -6.58550E+03 -7.67462E+04  3.41532E+04 -5.46546E+04  4.78311E+04 -1.73790E+04
  4.31566E+04  1.14288E+04  3.14901E+04  2.55576E+04  1.56629E+04  2.90370E+04 -4.88353E+03  2.73466E+04
 -2.23155E+04  1.23670E+04 -1.84962E+04 -5.20352E+03  5.05999E+03 -7.33640E+03  2.21524E+04  1.22476E+04
  7.20754E+03  3.53680E+04 -3.20677E+04  3.51986E+04 -6.31780E+04  1.94767E+03 -5.68668E+04 -4.22491E+04
 -1.24519E+04 -6.31369E+04  3.94823E+04 -4.48819E+04  5.77053E+04 -2.09263E+03  3.39095E+04  3.22068E+04
 -6.00817E+03  3.57671E+04 -2.99088E+04  1.51942E+04 -2.99570E+04 -4.38823E+03 -1.63675E+04 -1.06779E+04
 -8.23756E+03 -1.30126E+04 -8.29312E+02 -1.80465E+04  7.43522E+03 -2.30037E+04  1.56824E+04 -1.35713E+04
  1.11054E+04  5.09530E+03 -8.18403E+03  1.28822E+04 -2.12666E+04 -3.95127E+03 -8.40049E+03 -3.31306E+04
  2.26657E+04 -4.29397E+04  4.77617E+04 -1.93758E+04  4.48389E+04  1.91682E+04  1.55196E+04  4.39970E+04
 -1.59752E+04  3.31190E+04 -2.50061E+04  1.59266E+03 -9.66207E+03 -2.79233E+04  2.08084E+04 -3.34602E+04
  4.06617E+04 -8.58148E+03  3.50679E+04  2.35932E+04  1.78661E+04  4.62120E+04 -8.03189E+03  4.96618E+04
 -3.15196E+04  3.33803E+04 -4.15394E+04  9.57493E+03 -4.23686E+04 -1.63213E+04 -2.31203E+04 -3.77684E+04
  7.25339E+03 -3.74724E+04  3.13040E+04 -1.44907E+04  2.89253E+04  1.09487E+04  3.78047E+03  1.91400E+04
 -1.34840E+04  8.30575E+03 -1.02008E+04 -7.69124E+03  5.68036E+03 -1.09795E+04  1.80144E+04  5.88228E+03
  1.32486E+04  2.18747E+04 -6.04706E+03  2.47800E+04 -2.23550E+04  1.09266E+04 -2.76292E+04 -4.95867E+03
 -2.00640E+04 -1.73553E+04 -8.00846E+03 -2.01121E+04  4.14672E+03 -1.93431E+04  1.56380E+04 -1.78472E+04
  2.55774E+04 -1.28642E+04  3.22097E+04  2.70342E+03  2.35719E+04  1.96401E+04  4.25389E+03  3.60838E+04
 -1.75082E+04  3.02365E+04 -2.77350E+04  1.04939E+04 -2.07619E+04 -1.03241E+04 -4.50182E+03 -1.33956E+04
  1.84209E+03 -2.98292E+03 -4.55900E+03  6.73880E+03 -1.58007E+04  4.97486E+03 -1.59833E+04 -7.00636E+03
 -1.02291E+04 -1.84353E+04  5.35980E+03 -2.27111E+04  1.49778E+04 -1.62468E+04  1.77300E+04 -1.69153E+03
  1.10636E+04  1.28191E+04 -1.06277E+03  1.88663E+04 -1.28376E+04  1.06711E+04 -1.86696E+04 -3.70724E+03
 -1.34778E+04 -1.67538E+04 -1.77455E+03 -2.25758E+04  1.00620E+04 -1.83766E+04  1.84443E+04 -9.21314E+03
  1.74937E+04  1.82015E+02  1.25458E+04  4.09410E+03  6.69735E+03  8.29404E+02  9.48492E+03 -1.67845E+03
  1.70743E+04  2.73418E+03  1.88224E+04  1.48574E+04  1.23359E+04  2.99523E+04 -2.87894E+03  3.36133E+04
 -1.93139E+04  2.64988E+04 -3.14185E+04  1.36602E+04 -3.25186E+04 -2.49970E+03 -2.70036E+04 -1.89622E+04
 -1.19167E+04 -2.67408E+04  9.19971E+03 -2.41204E+04  2.09537E+04 -1.25393E+04  1.89526E+04  5.24824E+03
  7.38588E+03  1.43835E+04 -8.85695E+03  1.24725E+04 -1.61756E+04  2.56008E+03 -1.21420E+04 -9.48289E+03
 -1.27162E+02 -1.46976E+04  7.54493E+03 -1.11334E+04  1.00166E+04 -1.33908E+03  2.18507E+03  6.16793E+03
 -6.69187E+03  2.00492E+03 -5.94313E+03 -5.30225E+03 -2.57032E+02 -1.30895E+04  9.57765E+03 -1.40261E+04
  1.63317E+04 -7.35632E+03  1.75304E+04  3.09934E+03  1.52815E+04  1.29005E+04  7.17706E+03  1.94095E+04
 -2.81909E+03  2.15934E+04 -1.37793E+04  1.35373E+04 -1.54390E+04  3.35053E+03 -1.12841E+04 -3.31725E+03
 -5.36133E+03 -4.59488E+03 -8.02746E+02  1.36200E+03 -2.19546E+03  2.88447E+03 -4.95774E+03  4.30347E+03
 -9.95213E+03 -6.95453E+02 -1.09181E+04 -8.76722E+03 -4.55714E+03 -1.43957E+04  4.29938E+03 -1.14723E+04
  9.51500E+03 -4.69343E+03  6.68960E+03  2.52354E+03  1.18875E+02  4.27915E+03 -5.18383E+03 -2.20897E+02
 -5.04924E+03 -6.97832E+03 -6.75475E+02 -9.91215E+03  6.08397E+03 -1.10712E+04  1.37007E+04 -6.26577E+03
  1.58167E+04  1.28401E+03  1.16541E+04  9.33080E+03  2.72792E+03  1.27041E+04 -6.83589E+03  1.10657E+04
 -9.10353E+03  3.15589E+03 -4.50461E+03 -2.15946E+03  1.69143E+03 -2.78264E+03  5.85463E+03 -1.02951E+03
  5.17390E+03  4.93839E+03  1.44466E+03  8.63265E+03 -6.10085E+03  8.55305E+03 -1.04591E+04  2.25301E+03
 -6.81788E+03 -5.27688E+03  2.78738E+02 -9.26572E+03  5.80528E+03 -4.33687E+03  5.60269E+03  1.84530E+03
  9.14121E+02  5.88878E+03 -5.81062E+03  7.06833E+03 -8.13895E+03  3.31637E+03 -8.01071E+03 -2.34432E+03
 -4.59398E+03 -9.63894E+03  2.48981E+03 -1.09102E+04  9.62827E+03 -6.96123E+03  1.00152E+04  1.47686E+03
  6.65471E+03  8.07501E+03 -2.94901E+02  1.02574E+04 -7.49450E+03  6.19636E+03 -7.83910E+03 -5.77662E+02
 -7.19733E+03 -7.09615E+03 -1.57322E+03 -7.55201E+03  3.96599E+03 -6.30660E+03  4.78469E+03 -2.72185E+03
  3.69695E+03  9.76614E+02 -4.00929E+02  1.40475E+03  8.86375E+01 -1.47183E+03  7.66981E+02 -3.49907E+03
  6.70338E+03 -2.14758E+03  9.46139E+03  9.41022E+02  8.90430E+03  6.08926E+03  6.64727E+03  1.19015E+04
 -2.75809E+03  1.38822E+04 -1.19660E+04  1.01960E+04 -1.57479E+04  1.82582E+03 -1.22715E+04 -4.85178E+03
 -6.47922E+03 -1.00914E+04 -7.77819E+02 -8.23052E+03  3.22576E+03 -4.22982E+03  3.06860E+03 -3.20541E+03
  2.53285E+03 -1.78575E+03  3.04862E+03 -2.76843E+03  4.31445E+03 -2.17366E+03  4.85826E+03 -2.40332E+02
  6.40983E+03  1.71797E+03  2.79921E+03  5.29002E+03 -2.18871E+03  5.83265E+03 -7.02285E+03  4.94422E+03
 -8.24390E+03 -1.23440E+03 -4.44978E+03 -5.53721E+03 -1.15851E+02 -8.85497E+03  5.13604E+03 -8.80566E+03
  9.09457E+03 -4.90242E+03  1.11865E+04  1.00596E+03  7.54869E+03  7.43994E+03  1.59661E+03  9.75200E+03
 -4.29605E+03  8.62948E+03 -5.73960E+03  2.95235E+03 -3.83361E+03 -1.15051E+03 -1.39415E+03 -1.21901E+03
 -8.58806E+02  1.68008E+02 -1.15715E+03  2.41860E+03 -3.97340E+03  1.57363E+03 -5.80425E+03 -7.31841E+02
 -3.64005E+03 -6.04211E+03  5.30604E+02 -7.87865E+03  4.85761E+03 -7.46308E+03  7.25427E+03 -2.22686E+03
  7.42338E+03  3.98981E+03  3.39842E+03  6.55890E+03 -1.69170E+03  7.56546E+03 -5.23241E+03  4.64167E+03
 -7.20701E+03  2.25111E+02 -5.58388E+03 -4.87327E+03 -3.89491E+02 -6.09596E+03  3.14634E+03 -4.88299E+03
  4.83107E+03 -1.96066E+03  3.48722E+03  1.14839E+03  9.92000E+02  2.80812E+03  8.53711E+02  9.16151E+02
  2.03526E+03  6.98945E+02  1.88666E+03  1.55068E+03  2.16388E+03  3.15110E+03  2.29440E+03  3.65420E+03
 -1.70895E+03  5.47580E+03 -4.75227E+03  6.33827E+03 -6.96781E+03  2.06564E+03 -7.83315E+03 -2.23032E+03
 -3.51759E+03 -7.39323E+03  1.12703E+03 -8.36503E+03  3.97247E+03 -5.34084E+03  6.17480E+03 -1.34083E+03
  4.78768E+03  2.95343E+03  1.02199E+03  4.32191E+03 -1.85773E+03  2.59806E+03 -2.87801E+03 -5.68453E+02
 -1.00494E+03 -3.28928E+03  2.14067E+03 -3.32531E+03  2.87901E+03 -1.40055E+03  2.97234E+03  9.76948E+02
  1.86675E+03  1.01527E+03  7.57542E+02  3.67239E+02 -6.60206E+02  1.18680E+03  1.33778E+03 -3.75467E+02
  6.55081E+02 -3.74380E+02  3.07807E+03  1.33646E+03  1.35666E+03  4.30329E+03 -6.49210E+02  5.24446E+03
 -3.16440E+03  2.76545E+03 -4.16838E+03  9.57081E+02 -4.12961E+03 -1.58639E+03 -9.14640E+02 -2.41690E+03
  5.41847E+02 -2.63735E+03  1.93048E+03 -1.21881E+03  1.36775E+03  1.86860E+03 -1.08311E+03  2.37808E+03
 -2.63914E+03  1.36622E+03 -2.98580E+03 -1.95803E+03 -1.62056E+03 -4.22858E+03  4.40510E+02 -3.41418E+03
  1.87889E+03 -1.70463E+03  2.22374E+03 -1.22990E+02  2.24229E+03  4.93204E+02  1.02972E+02  2.29455E+03
 -1.16677E+03  5.39219E+02 -1.68640E+03 -9.38337E+02  9.40015E+02 -2.58610E+03  3.65541E+03 -2.01112E+03
  3.58733E+03  6.17588E+02  4.56968E+03  2.29267E+03  1.80495E+03  3.85348E+03 -1.58893E+03  4.16471E+03
 -3.33993E+03  1.54016E+03 -3.47246E+03 -6.20705E+02 -1.95812E+03 -2.60954E+03  9.08750E+02 -2.36644E+03
  2.96571E+03 -1.17445E+03  2.15817E+03  1.03679E+03  7.17834E+02  2.39547E+03 -2.63666E+02  2.36953E+03
 -1.10970E+03  1.81463E+03 -7.42209E+02  3.89830E+02 -4.66624E+02  2.57775E+02 -6.54903E+02  7.33465E+02
 -1.17491E+03  1.95539E+03 -3.00885E+03  1.52824E+03 -3.93033E+03 -1.47373E+02 -4.75793E+03 -2.47565E+03
 -2.56642E+03 -5.26232E+03  1.32218E+03 -6.43401E+03  3.37512E+03 -5.17877E+03  5.88407E+03 -1.98108E+03
  5.43922E+03  5.40984E+02  3.38624E+03  3.47346E+03  2.09529E+02  3.85332E+03 -1.65648E+03  2.83749E+03
 -2.26842E+03  1.26239E+03 -1.61130E+03 -3.49099E+02 -6.18858E+02 -9.41830E+01 -9.68103E+02  1.86169E+01
 -1.24854E+03 -2.79247E+02 -1.07456E+03 -3.03126E+02  4.21187E+01 -1.03196E+03  5.42888E+01 -1.72042E+03
  2.14148E+03 -1.36631E+03  2.02080E+03  1.35538E+02  2.96852E+03  2.02758E+03 -1.87679E+02  3.78033E+03
 -2.02537E+03  4.67302E+03 -4.00790E+03  2.39610E+03 -4.74046E+03 -4.42709E+02 -3.58464E+03 -2.86202E+03
 -1.72028E+03 -3.63178E+03  8.22431E+02 -3.87586E+03  2.21576E+03 -2.11515E+03  2.40416E+03 -1.02922E+02
  1.48424E+03  1.00389E+03 -1.61590E+02  8.30010E+02 -4.98613E+02 -5.91674E+01  8.22452E+00 -7.63696E+02
  1.05371E+03 -6.56806E+01  1.26060E+03  6.48244E+02  8.72322E+02  1.47018E+03  4.05582E+02  1.59246E+03
 -1.92324E+03  1.68964E+03 -2.21365E+03  4.40814E+02 -2.09447E+03 -1.80223E+03 -3.25084E+02 -3.12778E+03
  1.69780E+03 -2.49186E+03  2.57235E+03 -2.89216E+02  2.81536E+03 -5.60477E+01  1.25754E+03  2.46588E+03
  6.27825E+02  2.04426E+03 -1.05002E+03  1.96932E+03 -1.63515E+03  1.18541E+03 -1.40846E+03  1.95696E+02
 -6.88013E+01 -4.70181E+02 -9.53796E+02  3.63148E+02 -1.50649E+03  6.99807E+01 -1.83309E+03 -5.84656E+02
 -1.96958E+03 -6.44923E+02 -6.14749E+02 -2.55405E+03  1.38443E+03 -2.91248E+03  2.03817E+03 -1.00339E+03
  2.28926E+03  1.65377E+02  7.96749E+02  1.33539E+03 -3.38212E+02  2.41935E+03 -1.68741E+03  1.63559E+03
