 $NMID ID='MM_0lb_SNR800_14hz_g55_56.RAW', FMTDAT='(8E13.5)'
 TRAMP=1., VOLUME=1. $END
  3.09754E+05  2.63192E+02  3.37832E+05  2.50829E+05  8.45465E+04  3.37903E+05 -1.32655E+05  2.51326E+05
 -1.90310E+05  8.32999E+04 -1.11645E+05 -3.25942E+04  5.23454E+02 -5.07497E+04  5.34718E+04 -1.50936E+02
  3.52932E+04  5.30852E+04 -1.66573E+04  7.54052E+04 -6.08448E+04  6.38007E+04 -8.42110E+04  3.22219E+04
 -8.10520E+04 -1.17606E+04 -5.73433E+04 -5.14076E+04 -1.50206E+04 -7.02288E+04  2.76627E+04 -4.58840E+04
  4.00751E+04  3.47638E+03  1.62787E+04  4.80977E+04 -3.44755E+04  4.73911E+04 -6.68524E+04 -1.16152E+01
 -5.36500E+04 -5.70662E+04 -6.66207E+03 -7.73044E+04  3.42661E+04 -5.54046E+04  4.79532E+04 -1.75408E+04
  4.36520E+04  1.13068E+04  3.20114E+04  2.57412E+04  1.58830E+04  2.95615E+04 -5.21412E+03  2.71954E+04
 -2.19678E+04  1.24395E+04 -1.83898E+04 -4.91153E+03  5.90728E+03 -7.66183E+03  2.26376E+04  1.25006E+04
  7.16779E+03  3.57371E+04 -3.22282E+04  3.59515E+04 -6.36115E+04  2.28305E+03 -5.75507E+04 -4.30795E+04
 -1.24543E+04 -6.35477E+04  4.00445E+04 -4.58405E+04  5.90497E+04 -1.99425E+03  3.47251E+04  3.26967E+04
 -5.97420E+03  3.69176E+04 -3.02917E+04  1.65581E+04 -3.10599E+04 -4.12963E+03 -1.68067E+04 -1.13349E+04
 -8.54434E+03 -1.36714E+04 -5.72973E+02 -1.82072E+04  7.85163E+03 -2.29999E+04  1.53223E+04 -1.29184E+04
  1.15658E+04  5.30278E+03 -8.53514E+03  1.30001E+04 -2.18710E+04 -4.81464E+03 -8.31014E+03 -3.45638E+04
  2.33204E+04 -4.39500E+04  4.92268E+04 -1.99217E+04  4.58633E+04  1.94409E+04  1.59830E+04  4.49654E+04
 -1.57980E+04  3.40343E+04 -2.54715E+04  2.01744E+03 -1.01912E+04 -2.80019E+04  2.14118E+04 -3.45034E+04
  4.17678E+04 -9.38851E+03  3.62010E+04  2.38528E+04  1.86027E+04  4.77127E+04 -8.38144E+03  5.13265E+04
 -3.22298E+04  3.45813E+04 -4.31173E+04  9.72982E+03 -4.34430E+04 -1.70711E+04 -2.39413E+04 -3.86470E+04
  7.15605E+03 -3.86714E+04  3.19092E+04 -1.47912E+04  2.98834E+04  1.11369E+04  3.99000E+03  1.93502E+04
 -1.33774E+04  8.20595E+03 -1.02397E+04 -7.71684E+03  5.47513E+03 -1.10769E+04  1.84271E+04  5.78646E+03
  1.35116E+04  2.21591E+04 -5.98416E+03  2.51999E+04 -2.25268E+04  1.19322E+04 -2.88508E+04 -4.29772E+03
 -2.13959E+04 -1.73802E+04 -8.76532E+03 -2.10824E+04  4.15297E+03 -2.07473E+04  1.64786E+04 -1.90267E+04
  2.73536E+04 -1.28955E+04  3.33108E+04  2.96887E+03  2.42340E+04  2.08545E+04  4.21082E+03  3.70676E+04
 -1.75310E+04  3.10830E+04 -2.82175E+04  1.06327E+04 -2.11851E+04 -1.03905E+04 -4.93610E+03 -1.34136E+04
  1.69171E+03 -2.69925E+03 -5.42538E+03  6.89120E+03 -1.70587E+04  5.48474E+03 -1.67993E+04 -7.56118E+03
 -1.04435E+04 -1.96186E+04  5.40772E+03 -2.37501E+04  1.57530E+04 -1.70691E+04  1.88714E+04 -1.58097E+03
  1.16608E+04  1.35534E+04 -9.60915E+02  1.97651E+04 -1.33378E+04  1.10143E+04 -1.97429E+04 -4.34295E+03
 -1.43964E+04 -1.76696E+04 -1.77653E+03 -2.37197E+04  1.00222E+04 -1.94955E+04  1.97800E+04 -9.66095E+03
  1.85731E+04  3.55372E+02  1.33104E+04  4.32432E+03  6.97783E+03  9.18255E+02  9.79762E+03 -1.90629E+03
  1.79571E+04  3.10732E+03  2.00672E+04  1.55866E+04  1.28784E+04  3.12743E+04 -2.75106E+03  3.58163E+04
 -2.05415E+04  2.85610E+04 -3.32740E+04  1.46090E+04 -3.49020E+04 -2.63331E+03 -2.87826E+04 -2.02901E+04
 -1.22712E+04 -2.85496E+04  1.01424E+04 -2.59856E+04  2.22329E+04 -1.31955E+04  1.97452E+04  5.62811E+03
  7.25274E+03  1.49129E+04 -9.18235E+03  1.31618E+04 -1.68723E+04  2.49874E+03 -1.26919E+04 -1.05129E+04
 -5.30258E+02 -1.59458E+04  8.34959E+03 -1.17757E+04  1.09709E+04 -1.53191E+03  2.48626E+03  6.45483E+03
 -7.05844E+03  2.82826E+03 -6.59901E+03 -5.79215E+03 -6.85094E+02 -1.38214E+04  9.87207E+03 -1.47421E+04
  1.74488E+04 -7.67917E+03  1.86305E+04  2.95338E+03  1.62264E+04  1.38528E+04  7.59117E+03  2.10690E+04
 -3.55252E+03  2.35192E+04 -1.44534E+04  1.45801E+04 -1.68419E+04  3.51417E+03 -1.18999E+04 -3.36093E+03
 -5.30768E+03 -5.06649E+03 -1.05226E+03  9.93596E+02 -2.53852E+03  2.68063E+03 -5.32146E+03  4.36449E+03
 -1.07999E+04 -6.09505E+02 -1.15103E+04 -9.34053E+03 -4.89773E+03 -1.53103E+04  5.03845E+03 -1.18723E+04
  9.71849E+03 -5.00842E+03  7.16367E+03  3.15606E+03 -1.36148E+02  4.55161E+03 -5.31560E+03 -8.97931E+01
 -4.97059E+03 -7.47522E+03 -9.52028E+02 -1.11823E+04  6.35133E+03 -1.17810E+04  1.45377E+04 -6.12803E+03
  1.71564E+04  1.56693E+03  1.25613E+04  1.01334E+04  2.93126E+03  1.34370E+04 -7.39741E+03  1.17214E+04
 -9.61746E+03  3.59506E+03 -4.85209E+03 -1.74288E+03  1.92530E+03 -3.00482E+03  6.43453E+03 -1.16201E+03
  5.49745E+03  5.33226E+03  7.50247E+02  9.14341E+03 -6.42013E+03  9.11084E+03 -1.10470E+04  2.10372E+03
 -7.27900E+03 -6.02240E+03  2.25012E+02 -9.59407E+03  6.20995E+03 -4.99172E+03  5.98092E+03  2.02866E+03
  9.52940E+02  6.48664E+03 -6.02941E+03  7.68381E+03 -8.98147E+03  3.68613E+03 -8.51533E+03 -2.85859E+03
 -5.32083E+03 -1.05074E+04  2.58909E+03 -1.19165E+04  9.91484E+03 -7.37893E+03  1.11054E+04  2.19374E+03
  6.82104E+03  8.97837E+03 -6.30022E+02  1.09696E+04 -7.98850E+03  6.33209E+03 -8.62173E+03 -7.68643E+02
 -7.99119E+03 -7.48717E+03 -1.51670E+03 -7.99498E+03  4.01853E+03 -7.10156E+03  4.98956E+03 -3.44714E+03
  3.67527E+03  1.05182E+03 -3.78722E+02  1.67520E+03  2.26785E+02 -1.30756E+03  1.01133E+03 -4.15906E+03
  7.38602E+03 -2.27852E+03  1.00494E+04  1.00803E+03  9.66217E+03  6.00068E+03  7.38717E+03  1.31091E+04
 -2.95659E+03  1.50975E+04 -1.27919E+04  1.13810E+04 -1.65301E+04  1.99334E+03 -1.32025E+04 -5.40916E+03
 -6.35794E+03 -1.07462E+04 -6.09542E+02 -8.60736E+03  3.36925E+03 -4.70723E+03  3.02860E+03 -3.04779E+03
  2.17221E+03 -2.28769E+03  2.88035E+03 -3.30506E+03  4.66310E+03 -2.29088E+03  5.17377E+03 -2.73446E+02
  7.07667E+03  1.94864E+03  3.24144E+03  5.71697E+03 -1.80701E+03  6.33366E+03 -7.09911E+03  5.43103E+03
 -8.92855E+03 -1.15419E+03 -4.71336E+03 -6.09879E+03 -4.15797E+02 -9.29762E+03  5.79478E+03 -9.45375E+03
  9.69445E+03 -5.48854E+03  1.20997E+04  1.18120E+03  8.45688E+03  7.89053E+03  1.57401E+03  1.06502E+04
 -4.04320E+03  8.88642E+03 -6.04840E+03  3.23943E+03 -4.08567E+03 -1.20919E+03 -1.39599E+03 -1.47780E+03
 -8.65066E+02  5.81687E+01 -1.56176E+03  2.27222E+03 -4.01886E+03  1.65526E+03 -6.36604E+03 -7.47289E+02
 -3.58832E+03 -6.19432E+03  2.06826E+02 -8.69025E+03  5.09738E+03 -7.78200E+03  7.90493E+03 -2.67363E+03
  8.00830E+03  4.19946E+03  3.75199E+03  6.97922E+03 -1.72367E+03  8.59118E+03 -5.59439E+03  5.34640E+03
 -7.53509E+03  3.79554E+02 -5.84699E+03 -4.70968E+03 -4.42749E+02 -6.88689E+03  3.56336E+03 -4.77535E+03
  5.26731E+03 -1.90401E+03  3.68595E+03  1.62087E+03  1.39239E+03  2.77743E+03  1.04502E+03  1.05727E+03
  2.35604E+03  9.05156E+02  2.00889E+03  1.68003E+03  2.32674E+03  3.19639E+03  2.44674E+03  4.18906E+03
 -2.04136E+03  6.53298E+03 -5.22750E+03  6.84045E+03 -7.48563E+03  1.89761E+03 -8.45955E+03 -2.76169E+03
 -3.96692E+03 -7.78159E+03  1.07884E+03 -8.81636E+03  4.63981E+03 -5.57834E+03  6.35928E+03 -1.79451E+03
  5.09652E+03  3.19355E+03  1.00887E+03  4.50175E+03 -1.94585E+03  2.40371E+03 -2.79114E+03 -6.41827E+02
 -1.61311E+03 -3.21799E+03  2.22480E+03 -3.32402E+03  3.06299E+03 -1.59404E+03  2.99366E+03  3.86240E+02
  1.70230E+03  1.37967E+03  1.00803E+03  7.11921E+02 -6.25970E+02  1.24045E+03  1.45423E+03 -4.54697E+02
  7.50711E+02 -2.78227E+02  3.42414E+03  1.44700E+03  1.65294E+03  4.53155E+03 -6.35264E+02  5.44006E+03
 -3.63112E+03  3.38372E+03 -4.60637E+03  4.49739E+02 -4.23782E+03 -1.80031E+03 -1.10761E+03 -2.77711E+03
  6.98292E+02 -2.91586E+03  2.07180E+03 -1.35686E+03  1.74942E+03  2.00728E+03 -9.48200E+02  2.67530E+03
 -3.23088E+03  1.37195E+03 -2.99147E+03 -2.08429E+03 -1.96499E+03 -4.34951E+03  3.74326E+02 -3.63171E+03
  2.15355E+03 -1.99223E+03  2.64391E+03 -1.62052E+02  2.19891E+03  7.23858E+02  3.96403E+02  2.31194E+03
 -1.20687E+03  3.94085E+02 -1.95370E+03 -1.42099E+03  8.68360E+02 -2.50473E+03  3.62187E+03 -2.08307E+03
  4.22996E+03  5.10452E+02  4.92494E+03  2.59779E+03  2.04777E+03  4.75944E+03 -1.43629E+03  4.38430E+03
 -3.70296E+03  1.24496E+03 -3.51326E+03 -5.11418E+02 -1.64577E+03 -2.78900E+03  8.67312E+02 -2.27228E+03
  3.01812E+03 -1.57659E+03  2.10752E+03  1.10349E+03  8.87991E+02  2.42881E+03 -2.25638E+02  2.38017E+03
 -1.03691E+03  2.14059E+03 -1.07386E+03  7.79980E+02 -4.34575E+02  6.11557E+02 -1.02065E+03  1.31059E+03
 -1.19682E+03  1.79476E+03 -3.26035E+03  1.17893E+03 -4.07165E+03 -2.03242E+02 -5.05312E+03 -2.52075E+03
 -2.47635E+03 -5.37124E+03  1.24204E+03 -6.71651E+03  3.85119E+03 -5.37858E+03  6.17983E+03 -1.65326E+03
  6.10351E+03  6.40275E+02  3.16730E+03  3.93865E+03 -3.95747E+02  4.37198E+03 -1.50848E+03  3.14259E+03
 -2.38880E+03  1.40737E+03 -1.51368E+03 -3.91596E+02 -6.57861E+02 -4.36456E+02 -3.46145E+02 -4.55484E+01
 -1.70323E+03  2.17892E+02 -1.36014E+03  1.16559E+02 -3.91534E+01 -1.20206E+03 -3.71576E+02 -1.57643E+03
  2.09561E+03 -1.43858E+03  2.30666E+03 -1.21486E+02  2.95373E+03  2.24309E+03  8.09377E+01  3.98695E+03
 -2.05530E+03  4.88663E+03 -4.44579E+03  3.04308E+03 -4.72914E+03 -2.78920E+02 -3.38561E+03 -3.39581E+03
 -1.80919E+03 -3.96464E+03  9.77759E+02 -3.17698E+03  2.54550E+03 -2.00320E+03  2.32446E+03  4.86560E+01
  1.78343E+03  8.56716E+02 -4.57298E+02  1.42980E+03 -9.34102E+02 -9.82184E+01  1.81490E+02 -1.09848E+03
  1.55333E+03 -1.96172E+02  1.38715E+03  8.31797E+02  7.44938E+02  1.35118E+03  3.45650E+02  1.80410E+03
 -1.47826E+03  1.31607E+03 -2.35658E+03  2.74769E+02 -2.21113E+03 -1.61326E+03 -6.16617E+01 -2.92167E+03
  1.55529E+03 -2.34836E+03  2.62485E+03 -4.37397E+02  2.76780E+03  1.49298E+02  1.37947E+03  2.28351E+03
  2.63813E+02  2.20393E+03 -8.67486E+02  1.99428E+03 -1.44545E+03  1.13947E+03 -1.29734E+03  2.80464E+02
 -6.57740E+02 -2.05822E+02 -1.19698E+03  2.74938E+02 -1.48678E+03  6.44103E+02 -1.90469E+03 -6.24315E+02
 -2.03589E+03 -5.10680E+02 -8.68229E+02 -2.42790E+03  1.48759E+03 -2.97599E+03  2.27333E+03 -1.25740E+03
  2.45757E+03  4.22144E+02  6.29334E+02  1.19095E+03 -1.85280E+02  2.46501E+03 -1.61265E+03  1.64848E+03
