 $NMID ID='MM_0lb_SNR800_10hz_g50_96.RAW', FMTDAT='(8E13.5)'
 TRAMP=1., VOLUME=1. $END
  3.10179E+05  3.91961E+02  3.37606E+05  2.50951E+05  8.51775E+04  3.38738E+05 -1.32696E+05  2.51769E+05
 -1.90634E+05  8.37606E+04 -1.12165E+05 -3.22345E+04  6.18419E+02 -5.07647E+04  5.36647E+04 -2.84368E+02
  3.55504E+04  5.31830E+04 -1.64554E+04  7.59896E+04 -6.11115E+04  6.42993E+04 -8.51243E+04  3.23481E+04
 -8.23931E+04 -1.15309E+04 -5.78867E+04 -5.16399E+04 -1.49814E+04 -7.08659E+04  2.78982E+04 -4.66319E+04
  4.10266E+04  3.97457E+03  1.66588E+04  4.83847E+04 -3.48016E+04  4.79833E+04 -6.78021E+04 -1.90843E+02
 -5.47792E+04 -5.76296E+04 -7.22791E+03 -7.85363E+04  3.45427E+04 -5.67620E+04  4.96070E+04 -1.82119E+04
  4.43963E+04  1.15512E+04  3.27090E+04  2.63296E+04  1.57237E+04  3.00643E+04 -5.70256E+03  2.75171E+04
 -2.29370E+04  1.21964E+04 -1.84577E+04 -5.39404E+03  6.71438E+03 -7.54962E+03  2.33611E+04  1.37856E+04
  7.30108E+03  3.66960E+04 -3.33187E+04  3.69244E+04 -6.53234E+04  2.14755E+03 -5.79978E+04 -4.40761E+04
 -1.24795E+04 -6.49710E+04  4.15070E+04 -4.71785E+04  6.08780E+04 -2.31170E+03  3.60747E+04  3.36795E+04
 -5.53486E+03  3.89184E+04 -3.18556E+04  1.80472E+04 -3.27372E+04 -3.91791E+03 -1.90667E+04 -1.17260E+04
 -9.27439E+03 -1.47619E+04 -6.97152E+02 -1.93602E+04  8.24243E+03 -2.32074E+04  1.61659E+04 -1.26473E+04
  1.03612E+04  6.11361E+03 -9.95095E+03  1.28921E+04 -2.30998E+04 -6.07187E+03 -8.37670E+03 -3.66686E+04
  2.46228E+04 -4.63044E+04  5.10572E+04 -2.05938E+04  4.81076E+04  2.05826E+04  1.74031E+04  4.66576E+04
 -1.66036E+04  3.55348E+04 -2.70807E+04  2.22227E+03 -1.13726E+04 -2.91560E+04  2.12486E+04 -3.61355E+04
  4.40012E+04 -1.05013E+04  3.95934E+04  2.47349E+04  2.06768E+04  5.04127E+04 -8.45038E+03  5.46433E+04
 -3.43438E+04  3.74173E+04 -4.64598E+04  1.06087E+04 -4.64866E+04 -1.80384E+04 -2.56949E+04 -4.13034E+04
  7.23188E+03 -4.08692E+04  3.36396E+04 -1.69613E+04  3.14782E+04  1.12804E+04  4.86518E+03  2.04869E+04
 -1.39138E+04  9.60612E+03 -1.11185E+04 -7.60161E+03  6.15821E+03 -1.06781E+04  1.83912E+04  5.70451E+03
  1.42319E+04  2.26748E+04 -5.20356E+03  2.64707E+04 -2.32306E+04  1.37810E+04 -3.07812E+04 -3.43678E+03
 -2.48404E+04 -1.80155E+04 -1.08680E+04 -2.38168E+04  4.44236E+03 -2.45292E+04  1.89470E+04 -2.22467E+04
  3.07043E+04 -1.42519E+04  3.68953E+04  4.30568E+03  2.61821E+04  2.36192E+04  4.54576E+03  4.02506E+04
 -1.95188E+04  3.27674E+04 -2.99350E+04  1.14251E+04 -2.20579E+04 -1.02949E+04 -4.76440E+03 -1.28138E+04
  5.72742E+02 -1.60029E+03 -7.35363E+03  7.86784E+03 -1.96848E+04  5.04989E+03 -1.94560E+04 -9.11632E+03
 -1.15048E+04 -2.22831E+04  5.97371E+03 -2.66057E+04  1.82100E+04 -1.91034E+04  2.20413E+04 -1.83884E+03
  1.39569E+04  1.57134E+04 -1.17006E+03  2.23987E+04 -1.59696E+04  1.28981E+04 -2.25762E+04 -4.39684E+03
 -1.65061E+04 -2.01388E+04 -2.14705E+03 -2.70281E+04  1.25503E+04 -2.26349E+04  2.22857E+04 -1.13018E+04
  2.08684E+04  1.57728E+02  1.54095E+04  4.88551E+03  8.31703E+03  1.54873E+03  1.17684E+04 -2.15495E+03
  2.06412E+04  2.48968E+03  2.42463E+04  1.80883E+04  1.64266E+04  3.58027E+04 -2.66921E+03  4.18747E+04
 -2.39459E+04  3.46623E+04 -3.96815E+04  1.79439E+04 -4.24415E+04 -3.27320E+03 -3.42275E+04 -2.47639E+04
 -1.36615E+04 -3.51385E+04  1.21237E+04 -3.09523E+04  2.64324E+04 -1.48873E+04  2.30056E+04  6.92747E+03
  7.90260E+03  1.79625E+04 -1.07852E+04  1.47382E+04 -1.95838E+04  2.52912E+03 -1.42232E+04 -1.20752E+04
 -3.03466E+02 -1.84842E+04  9.93851E+03 -1.37704E+04  1.27470E+04 -1.49186E+03  3.11938E+03  8.23029E+03
 -8.08215E+03  3.75875E+03 -8.41369E+03 -6.42711E+03 -1.40320E+03 -1.72314E+04  1.10456E+04 -1.87477E+04
  2.15292E+04 -1.06935E+04  2.43091E+04  3.17704E+03  2.11560E+04  1.75281E+04  9.68092E+03  2.72474E+04
 -4.54457E+03  2.92129E+04 -1.90293E+04  1.85004E+04 -2.15551E+04  3.60702E+03 -1.42992E+04 -5.44333E+03
 -6.52671E+03 -7.07348E+03 -9.48814E+02  6.99871E+02 -2.90197E+03  3.38559E+03 -6.89680E+03  5.35326E+03
 -1.34738E+04 -8.95892E+02 -1.39167E+04 -1.15359E+04 -5.83180E+03 -1.84988E+04  6.12581E+03 -1.48599E+04
  1.23598E+04 -5.62194E+03  8.39915E+03  4.04518E+03  2.80989E+02  5.84440E+03 -7.80006E+03  6.75243E+01
 -6.62087E+03 -9.40445E+03 -9.34428E+02 -1.47389E+04  8.57741E+03 -1.55899E+04  1.87249E+04 -8.15239E+03
  2.20654E+04  2.26327E+03  1.58791E+04  1.33714E+04  3.05775E+03  1.82012E+04 -9.18552E+03  1.45516E+04
 -1.19766E+04  4.33174E+03 -6.33343E+03 -3.16745E+03  1.83581E+03 -4.13988E+03  7.79082E+03 -1.40642E+03
  6.95914E+03  6.74730E+03  1.19744E+03  1.17975E+04 -8.44501E+03  1.11755E+04 -1.44823E+04  2.57448E+03
 -9.96251E+03 -7.84495E+03  3.46636E+02 -1.22193E+04  8.21212E+03 -6.15393E+03  8.54533E+03  2.57559E+03
  2.14113E+03  8.79540E+03 -7.82474E+03  1.08041E+04 -1.26396E+04  4.46608E+03 -1.26842E+04 -4.80424E+03
 -7.18751E+03 -1.42820E+04  3.60796E+03 -1.64750E+04  1.38173E+04 -1.00115E+04  1.48646E+04  2.89000E+03
  9.03301E+03  1.21432E+04 -1.28755E+03  1.47929E+04 -1.09103E+04  8.05746E+03 -1.20455E+04 -1.18347E+03
 -9.84655E+03 -9.63679E+03 -1.69655E+03 -1.14064E+04  5.85239E+03 -8.99292E+03  7.15811E+03 -3.65546E+03
  4.88161E+03  1.79415E+03 -1.16417E+03  1.83228E+03 -6.41238E+02 -3.00065E+03  2.26143E+03 -6.53326E+03
  1.04078E+04 -4.40921E+03  1.45373E+04  1.66498E+03  1.43178E+04  9.99354E+03  9.45091E+03  1.89685E+04
 -4.69523E+03  2.21292E+04 -1.81637E+04  1.65134E+04 -2.36648E+04  3.21643E+03 -1.91166E+04 -7.85268E+03
 -9.32788E+03 -1.59265E+04 -2.35500E+02 -1.33894E+04  4.90302E+03 -7.36410E+03  4.47496E+03 -4.55114E+03
  3.35964E+03 -2.71430E+03  3.98922E+03 -3.57062E+03  5.55776E+03 -3.23402E+03  7.46207E+03 -1.41498E+03
  9.99983E+03  2.39238E+03  5.30728E+03  8.63428E+03 -2.33178E+03  9.96983E+03 -1.03816E+04  8.10020E+03
 -1.36415E+04 -1.52338E+03 -8.55776E+03 -9.36246E+03 -1.05695E+03 -1.45128E+04  7.79973E+03 -1.50270E+04
  1.48862E+04 -8.00475E+03  1.77561E+04  2.51698E+03  1.24377E+04  1.24390E+04  1.98395E+03  1.63265E+04
 -7.06506E+03  1.33932E+04 -9.15613E+03  4.86573E+03 -6.73453E+03 -1.77885E+03 -2.77159E+03 -2.10278E+03
 -1.38464E+03 -1.63343E+02 -1.69883E+03  2.81715E+03 -5.97793E+03  2.24046E+03 -9.02146E+03 -1.54687E+03
 -6.83942E+03 -8.88020E+03  1.75559E+02 -1.30840E+04  7.96322E+03 -1.21042E+04  1.29328E+04 -4.06931E+03
  1.31006E+04  6.36018E+03  6.27671E+03  1.18560E+04 -2.75782E+03  1.30979E+04 -9.67699E+03  8.30273E+03
 -1.24671E+04  3.79020E+02 -9.46508E+03 -8.09814E+03 -1.12628E+03 -1.10761E+04  5.87414E+03 -7.94311E+03
  7.89082E+03 -2.61250E+03  5.67427E+03  1.95051E+03  2.17590E+03  3.90162E+03  1.45069E+03  1.48272E+03
  2.41203E+03  6.09469E+02  3.33158E+03  2.12318E+03  3.84164E+03  4.86219E+03  3.70752E+03  6.61801E+03
 -2.79854E+03  1.00209E+04 -9.50907E+03  1.07243E+04 -1.29667E+04  2.97556E+03 -1.36346E+04 -5.56456E+03
 -6.68598E+03 -1.34752E+04  1.91108E+03 -1.48445E+04  8.31592E+03 -9.49145E+03  1.11423E+04 -2.56470E+03
  8.57707E+03  4.60538E+03  2.26970E+03  7.39660E+03 -3.89311E+03  4.77284E+03 -4.97646E+03 -9.84029E+02
 -2.81606E+03 -5.35250E+03  3.18236E+03 -5.76571E+03  5.52593E+03 -2.92592E+03  5.29572E+03  1.21958E+03
  3.43360E+03  2.55102E+03  1.27022E+03  2.24836E+03 -5.26588E+02  2.07289E+03  1.69293E+03 -5.19818E+02
  2.45202E+03 -7.93936E+02  5.35393E+03  1.90640E+03  2.52961E+03  7.44448E+03 -1.45808E+03  8.94221E+03
 -6.37715E+03  6.15318E+03 -8.44538E+03  1.23036E+03 -7.75409E+03 -2.85739E+03 -2.64774E+03 -5.45245E+03
  1.12970E+03 -5.24833E+03  3.35180E+03 -2.18704E+03  3.21580E+03  2.44540E+03 -1.36195E+03  3.99405E+03
 -5.41566E+03  2.25177E+03 -6.03158E+03 -3.15037E+03 -3.36376E+03 -7.20987E+03  9.11015E+02 -6.88126E+03
  4.47260E+03 -4.23782E+03  5.34246E+03 -5.24220E+02  4.37906E+03  1.90837E+03  2.95342E+02  4.19924E+03
 -2.42283E+03  1.28216E+03 -3.68102E+03 -2.32811E+03  1.18637E+03 -5.24621E+03  5.94511E+03 -4.44973E+03
  7.73870E+03  3.45697E+02  7.91035E+03  5.73789E+03  2.55319E+03  9.11438E+03 -2.97565E+03  8.36608E+03
 -6.70705E+03  3.43338E+03 -7.25232E+03 -1.43238E+03 -3.73308E+03 -5.19261E+03  1.20676E+03 -5.48936E+03
  5.36583E+03 -2.66949E+03  4.54370E+03  2.52001E+03  1.79568E+03  4.94080E+03 -1.15370E+03  4.19198E+03
 -2.07640E+03  2.89388E+03 -2.40957E+03  9.35712E+02 -7.78212E+02  9.37543E+02 -8.73530E+02  1.88741E+03
 -2.24574E+03  3.63876E+03 -6.05174E+03  3.03258E+03 -8.14025E+03  6.92737E+01 -9.42561E+03 -5.61843E+03
 -5.15456E+03 -1.13750E+04  1.77289E+03 -1.35074E+04  7.77339E+03 -1.01233E+04  1.26273E+04 -4.04501E+03
  1.15153E+04  2.56082E+03  7.14611E+03  7.72309E+03  3.43979E+02  9.05199E+03 -3.39051E+03  6.40054E+03
 -4.92044E+03  2.20278E+03 -3.20425E+03 -1.03868E+03 -1.19318E+03 -3.26400E+02 -4.42431E+02 -3.93188E+02
 -1.74714E+03  1.21680E+02 -1.86954E+03 -4.73988E+02 -5.73701E+02 -2.07030E+03  5.69288E+01 -3.03856E+03
  4.02196E+03 -2.74220E+03  4.86691E+03  1.03318E+02  6.14432E+03  5.10850E+03  1.35400E+03  8.64284E+03
 -4.46265E+03  1.01767E+04 -9.29951E+03  5.83927E+03 -1.04974E+04 -6.90464E+02 -7.94633E+03 -6.69139E+03
 -3.24622E+03 -9.02361E+03  1.79559E+03 -8.06067E+03  5.65864E+03 -4.26775E+03  5.51067E+03  1.26976E+02
  3.17271E+03  3.37307E+03 -1.53923E+02  2.76253E+03 -1.23380E+03 -1.08795E+02 -6.24973E+01 -2.03000E+03
  2.58828E+03 -1.13179E+03  3.43542E+03  1.17693E+03  2.05928E+03  3.56714E+03 -1.28411E+02  4.58900E+03
 -3.94739E+03  4.01767E+03 -5.89800E+03  2.72713E+02 -5.06190E+03 -3.64919E+03 -4.01199E+02 -7.48738E+03
  3.63168E+03 -6.56193E+03  6.49216E+03 -2.12956E+03  6.75661E+03  1.57484E+03  3.90901E+03  5.54115E+03
  6.67526E+02  5.37668E+03 -2.28221E+03  4.23317E+03 -3.81509E+03  2.59530E+03 -2.96678E+03  2.68831E+02
 -1.56941E+03 -5.92529E+02 -1.83514E+03  7.87357E+02 -2.74094E+03  1.08331E+03 -4.68346E+03 -8.35479E+02
 -4.52906E+03 -2.98583E+03 -1.26225E+03 -5.92738E+03  2.70983E+03 -6.29684E+03  5.27160E+03 -3.12686E+03
  5.49179E+03  5.46603E+02  3.02539E+03  4.09739E+03 -3.74454E+02  5.90951E+03 -4.42516E+03  3.57695E+03
