 $NMID ID='MM_0lb_SNR800_11hz_g55_28.RAW', FMTDAT='(8E13.5)'
 TRAMP=1., VOLUME=1. $END
  3.09944E+05  4.26024E+02  3.37582E+05  2.50985E+05  8.49916E+04  3.38331E+05 -1.32756E+05  2.51766E+05
 -1.90876E+05  8.37949E+04 -1.12401E+05 -3.22061E+04  3.24707E+02 -5.08858E+04  5.40176E+04 -3.30046E+02
  3.58288E+04  5.30331E+04 -1.68551E+04  7.60473E+04 -6.15164E+04  6.44204E+04 -8.51050E+04  3.26283E+04
 -8.21302E+04 -1.17019E+04 -5.78504E+04 -5.21003E+04 -1.50177E+04 -7.05116E+04  2.81520E+04 -4.61727E+04
  4.08188E+04  3.37490E+03  1.65023E+04  4.83877E+04 -3.44520E+04  4.80762E+04 -6.78789E+04  2.50577E+01
 -5.47341E+04 -5.72717E+04 -6.83684E+03 -7.81683E+04  3.42845E+04 -5.65401E+04  4.92798E+04 -1.81532E+04
  4.46188E+04  1.15399E+04  3.27596E+04  2.61655E+04  1.59935E+04  3.02771E+04 -5.72312E+03  2.77047E+04
 -2.24597E+04  1.16317E+04 -1.80490E+04 -5.73780E+03  6.73622E+03 -7.40183E+03  2.31933E+04  1.33733E+04
  7.20445E+03  3.69063E+04 -3.36545E+04  3.66605E+04 -6.50984E+04  2.24055E+03 -5.84524E+04 -4.39588E+04
 -1.28357E+04 -6.51867E+04  4.09594E+04 -4.71613E+04  6.02420E+04 -2.64736E+03  3.59867E+04  3.39651E+04
 -5.44790E+03  3.84755E+04 -3.15248E+04  1.80741E+04 -3.27830E+04 -3.84239E+03 -1.87522E+04 -1.19366E+04
 -9.06244E+03 -1.46620E+04 -5.59849E+02 -1.93365E+04  8.19986E+03 -2.31670E+04  1.56130E+04 -1.29884E+04
  1.07800E+04  6.45528E+03 -9.70057E+03  1.28941E+04 -2.32172E+04 -6.34593E+03 -8.35982E+03 -3.65902E+04
  2.47294E+04 -4.55849E+04  5.07871E+04 -2.07861E+04  4.80836E+04  2.01740E+04  1.67029E+04  4.61689E+04
 -1.65498E+04  3.53113E+04 -2.70237E+04  2.60032E+03 -1.14315E+04 -2.87309E+04  2.11529E+04 -3.60294E+04
  4.33983E+04 -1.03377E+04  3.86829E+04  2.47861E+04  1.99455E+04  4.96805E+04 -8.19107E+03  5.47885E+04
 -3.43983E+04  3.69227E+04 -4.61206E+04  1.09266E+04 -4.60815E+04 -1.83570E+04 -2.52811E+04 -4.07625E+04
  7.65116E+03 -4.09298E+04  3.32917E+04 -1.62345E+04  3.14215E+04  1.08848E+04  4.94020E+03  2.02930E+04
 -1.38071E+04  9.16238E+03 -1.08558E+04 -7.02359E+03  5.78926E+03 -1.10886E+04  1.89858E+04  5.69296E+03
  1.43576E+04  2.26950E+04 -5.45454E+03  2.64213E+04 -2.29253E+04  1.35376E+04 -3.06444E+04 -3.57820E+03
 -2.40864E+04 -1.83845E+04 -1.04901E+04 -2.37344E+04  3.98643E+03 -2.40093E+04  1.90818E+04 -2.14636E+04
  3.05406E+04 -1.39568E+04  3.61354E+04  4.68786E+03  2.59173E+04  2.30359E+04  4.37027E+03  3.99499E+04
 -1.93033E+04  3.28902E+04 -3.02277E+04  1.15513E+04 -2.21399E+04 -1.01977E+04 -4.82534E+03 -1.31881E+04
  1.47384E+03 -1.84716E+03 -6.83584E+03  7.88389E+03 -1.87195E+04  5.42282E+03 -1.89633E+04 -8.90817E+03
 -1.14276E+04 -2.21106E+04  5.39496E+03 -2.63793E+04  1.75160E+04 -1.89382E+04  2.13940E+04 -1.95055E+03
  1.36797E+04  1.50525E+04 -1.17530E+03  2.20456E+04 -1.56056E+04  1.26618E+04 -2.23858E+04 -4.24584E+03
 -1.60188E+04 -1.94099E+04 -2.10829E+03 -2.61556E+04  1.20842E+04 -2.19353E+04  2.16950E+04 -1.13164E+04
  2.10312E+04 -3.23336E+02  1.48774E+04  5.07676E+03  8.65546E+03  1.15182E+03  1.11679E+04 -2.18772E+03
  2.06800E+04  2.83492E+03  2.34723E+04  1.74337E+04  1.58613E+04  3.50969E+04 -2.81305E+03  4.14179E+04
 -2.35530E+04  3.38415E+04 -3.88109E+04  1.75327E+04 -4.13560E+04 -2.70864E+03 -3.35715E+04 -2.41939E+04
 -1.35768E+04 -3.36144E+04  1.20603E+04 -3.02667E+04  2.58256E+04 -1.43082E+04  2.26815E+04  7.42343E+03
  7.83135E+03  1.71558E+04 -1.06929E+04  1.46206E+04 -1.89022E+04  2.33994E+03 -1.46585E+04 -1.18353E+04
 -3.28378E+02 -1.80331E+04  9.43349E+03 -1.35036E+04  1.21721E+04 -1.26065E+03  2.96598E+03  7.89878E+03
 -7.94219E+03  3.75665E+03 -8.28826E+03 -6.80768E+03 -1.51377E+03 -1.64381E+04  1.13120E+04 -1.77791E+04
  2.10673E+04 -9.84811E+03  2.36014E+04  3.26166E+03  2.04944E+04  1.65740E+04  9.64396E+03  2.61798E+04
 -4.97169E+03  2.83243E+04 -1.81927E+04  1.72621E+04 -2.04611E+04  3.69463E+03 -1.45734E+04 -4.94713E+03
 -6.31241E+03 -6.48304E+03 -6.03357E+02  5.50124E+02 -2.89455E+03  3.05810E+03 -6.71492E+03  4.98135E+03
 -1.31389E+04 -1.09486E+03 -1.36179E+04 -1.11788E+04 -5.62994E+03 -1.83086E+04  5.73931E+03 -1.43395E+04
  1.19177E+04 -6.05736E+03  8.34494E+03  3.78706E+03 -5.61451E+01  5.51421E+03 -7.19531E+03 -8.65176E+01
 -7.22689E+03 -9.09521E+03 -1.02434E+03 -1.38574E+04  8.16557E+03 -1.49276E+04  1.77646E+04 -7.65455E+03
  2.11961E+04  1.77786E+03  1.59106E+04  1.26285E+04  3.20456E+03  1.67163E+04 -8.77950E+03  1.40276E+04
 -1.14112E+04  4.19049E+03 -6.28496E+03 -3.02063E+03  2.01834E+03 -3.81209E+03  7.81061E+03 -1.05558E+03
  6.49931E+03  6.16971E+03  9.83317E+02  1.12737E+04 -7.96403E+03  1.08632E+04 -1.39703E+04  2.60403E+03
 -9.99925E+03 -7.73159E+03  2.18163E+02 -1.19436E+04  7.52640E+03 -6.15548E+03  8.40073E+03  3.01486E+03
  1.71012E+03  8.49880E+03 -7.49424E+03  1.01924E+04 -1.17606E+04  4.41561E+03 -1.19506E+04 -4.13484E+03
 -6.67011E+03 -1.40714E+04  3.86710E+03 -1.56248E+04  1.34261E+04 -9.65932E+03  1.47914E+04  2.24146E+03
  8.68741E+03  1.16638E+04 -1.22930E+03  1.42705E+04 -9.85417E+03  7.48295E+03 -1.13860E+04 -1.11485E+03
 -9.80990E+03 -9.18363E+03 -1.68332E+03 -1.07272E+04  5.53670E+03 -8.39338E+03  6.70509E+03 -3.33865E+03
  4.20928E+03  2.03217E+03 -9.62930E+02  1.96132E+03 -3.89291E+02 -2.71894E+03  2.37264E+03 -6.01556E+03
  9.65129E+03 -3.86905E+03  1.39477E+04  1.66838E+03  1.34422E+04  9.50927E+03  8.96111E+03  1.81450E+04
 -4.06030E+03  2.06219E+04 -1.70331E+04  1.49330E+04 -2.21173E+04  2.70550E+03 -1.75778E+04 -7.28889E+03
 -8.96075E+03 -1.48162E+04 -5.58168E+02 -1.23831E+04  4.49222E+03 -6.81548E+03  4.05064E+03 -4.50170E+03
  3.28348E+03 -3.02946E+03  3.55533E+03 -3.40438E+03  5.34045E+03 -3.58105E+03  7.17784E+03 -1.03671E+03
  9.05559E+03  2.22824E+03  4.86185E+03  8.39182E+03 -1.58744E+03  9.10604E+03 -9.65340E+03  7.47207E+03
 -1.25285E+04 -9.77864E+02 -7.55923E+03 -8.73810E+03 -1.04299E+03 -1.29387E+04  7.32001E+03 -1.34130E+04
  1.35853E+04 -7.14475E+03  1.64901E+04  2.35671E+03  1.13384E+04  1.16031E+04  1.59436E+03  1.48129E+04
 -5.74079E+03  1.23984E+04 -8.79096E+03  4.45085E+03 -5.99709E+03 -1.47656E+03 -2.29703E+03 -1.81283E+03
 -1.58212E+03  1.85787E+02 -1.86691E+03  2.47648E+03 -5.34115E+03  1.95103E+03 -8.84355E+03 -1.26885E+03
 -6.03494E+03 -8.69157E+03  1.17090E+02 -1.22717E+04  7.22964E+03 -1.12972E+04  1.18474E+04 -3.45051E+03
  1.19518E+04  5.88433E+03  5.89684E+03  1.05314E+04 -2.56972E+03  1.24199E+04 -8.82333E+03  7.55926E+03
 -1.14942E+04  5.89160E+02 -8.39672E+03 -7.53583E+03 -6.37664E+02 -1.02417E+04  5.32668E+03 -7.62761E+03
  7.60153E+03 -2.72751E+03  5.01297E+03  2.09439E+03  2.18166E+03  3.69284E+03  1.14451E+03  1.68819E+03
  2.43447E+03  8.73001E+02  2.88748E+03  2.14568E+03  3.51846E+03  4.36234E+03  2.82455E+03  6.69368E+03
 -2.43991E+03  9.39622E+03 -8.60727E+03  9.56389E+03 -1.18977E+04  2.44258E+03 -1.27406E+04 -4.88653E+03
 -6.11603E+03 -1.22376E+04  1.43405E+03 -1.30833E+04  7.54695E+03 -8.66470E+03  9.62290E+03 -2.04164E+03
  7.57871E+03  4.70897E+03  1.34525E+03  7.06906E+03 -3.57378E+03  4.65829E+03 -4.95927E+03 -3.16452E+02
 -1.88778E+03 -5.23814E+03  2.94127E+03 -5.37818E+03  4.85491E+03 -2.53831E+03  4.32255E+03  1.13139E+03
  3.36279E+03  2.50985E+03  1.20197E+03  1.74745E+03 -6.55357E+02  2.23579E+03  1.91981E+03 -4.33737E+02
  1.44943E+03 -5.14762E+02  4.86970E+03  2.01822E+03  2.47529E+03  6.21455E+03 -1.33088E+03  8.55840E+03
 -5.63222E+03  5.60180E+03 -7.28536E+03  1.84277E+03 -6.63362E+03 -2.84625E+03 -2.33401E+03 -4.56214E+03
  9.45062E+02 -4.82367E+03  2.81545E+03 -2.36757E+03  2.39817E+03  2.65683E+03 -9.84843E+02  4.11465E+03
 -4.90145E+03  2.32466E+03 -5.22536E+03 -3.06558E+03 -3.28328E+03 -6.41151E+03  1.01100E+03 -6.30935E+03
  3.85763E+03 -3.66276E+03  4.45463E+03 -8.69249E+00  3.78869E+03  1.66970E+03  4.08609E+02  3.66922E+03
 -2.08553E+03  1.01222E+03 -2.69155E+03 -2.11180E+03  9.52038E+02 -5.27809E+03  5.41500E+03 -3.85771E+03
  7.17343E+03  6.08531E+02  7.37512E+03  4.84898E+03  2.42535E+03  7.60632E+03 -2.88825E+03  7.46481E+03
 -6.04168E+03  2.89052E+03 -6.54740E+03 -8.61505E+02 -3.71215E+03 -4.83028E+03  1.11053E+03 -4.66234E+03
  4.72232E+03 -2.41980E+03  3.90696E+03  1.85421E+03  1.52418E+03  4.00022E+03 -2.80004E+02  3.36684E+03
 -1.69219E+03  2.45034E+03 -1.99939E+03  9.58187E+02 -7.13354E+02  9.50289E+02 -1.40851E+03  1.63010E+03
 -2.15284E+03  3.16455E+03 -4.93062E+03  2.64329E+03 -6.96883E+03  1.96871E+02 -8.64312E+03 -4.76655E+03
 -4.44496E+03 -1.00660E+04  2.08140E+03 -1.13774E+04  7.14897E+03 -9.21684E+03  1.09889E+04 -3.66789E+03
  9.94933E+03  1.89362E+03  6.40350E+03  7.00023E+03  4.81158E+02  7.58679E+03 -2.78435E+03  6.01895E+03
 -4.20967E+03  2.10359E+03 -2.40676E+03 -1.04269E+03 -1.02626E+03 -5.22060E+02 -8.85924E+02 -2.21319E+02
 -1.98459E+03  4.52877E+02 -2.01426E+03 -6.60971E+01 -2.48615E+02 -1.89318E+03 -8.06702E+01 -2.73627E+03
  3.82878E+03 -2.69760E+03  4.30900E+03  2.35993E+02  5.32347E+03  3.75961E+03  1.02406E+03  7.47583E+03
 -3.51113E+03  8.76397E+03 -8.30374E+03  5.34831E+03 -8.78509E+03 -6.74581E+02 -6.80483E+03 -5.48299E+03
 -2.87170E+03 -7.20681E+03  2.09543E+03 -6.92260E+03  4.82844E+03 -4.00420E+03  4.96140E+03  1.53943E+02
  2.44709E+03  2.54195E+03 -2.76169E+02  2.21678E+03 -1.76083E+03 -2.94549E+02  1.71510E+02 -1.84458E+03
  2.20389E+03 -9.11454E+02  2.90628E+03  8.49119E+02  1.74488E+03  2.89497E+03  6.10517E+02  3.53092E+03
 -3.07983E+03  3.29668E+03 -5.12667E+03  2.02705E+02 -4.27331E+03 -3.34704E+03 -6.98956E+02 -6.08721E+03
  3.18998E+03 -5.23050E+03  5.48194E+03 -1.71206E+03  5.70442E+03  9.13768E+02  3.09125E+03  4.42230E+03
  1.18165E+03  4.93645E+03 -2.03213E+03  3.90497E+03 -3.05271E+03  2.11294E+03 -2.59664E+03  7.24351E+02
 -1.43100E+03 -3.77899E+02 -1.58342E+03  6.66674E+02 -2.26203E+03  8.25029E+02 -3.85723E+03 -4.65440E+02
 -3.82300E+03 -2.04723E+03 -1.46828E+03 -4.87698E+03  2.34743E+03 -5.28391E+03  4.58292E+03 -1.98431E+03
  4.68520E+03  5.21127E+02  2.33241E+03  3.07893E+03 -4.22120E+02  5.00998E+03 -3.65856E+03  3.43849E+03
