 $NMID ID='MM_0lb_SNR800_7hz_g55_94.RAW', FMTDAT='(8E13.5)'
 TRAMP=1., VOLUME=1. $END
  3.09789E+05  7.61215E+02  3.38550E+05  2.50673E+05  8.50861E+04  3.38671E+05 -1.32238E+05  2.52827E+05
 -1.91218E+05  8.40327E+04 -1.13256E+05 -3.23100E+04  1.59927E+02 -5.14561E+04  5.35920E+04 -6.51180E+02
  3.60717E+04  5.29450E+04 -1.67006E+04  7.64947E+04 -6.11217E+04  6.50434E+04 -8.56326E+04  3.30888E+04
 -8.33659E+04 -1.17320E+04 -5.87208E+04 -5.27781E+04 -1.52929E+04 -7.13467E+04  2.84760E+04 -4.71273E+04
  4.15377E+04  3.74956E+03  1.68198E+04  4.91996E+04 -3.53390E+04  4.86375E+04 -6.88371E+04  2.96933E+02
 -5.55320E+04 -5.81770E+04 -7.40330E+03 -8.01700E+04  3.50196E+04 -5.74442E+04  5.08772E+04 -1.82615E+04
  4.64479E+04  1.16380E+04  3.33780E+04  2.70947E+04  1.56752E+04  3.16427E+04 -6.17390E+03  2.79818E+04
 -2.29914E+04  1.17514E+04 -1.80470E+04 -5.65263E+03  7.61930E+03 -7.13161E+03  2.38420E+04  1.44888E+04
  7.54760E+03  3.81389E+04 -3.45090E+04  3.80390E+04 -6.66878E+04  1.85573E+03 -6.00259E+04 -4.53981E+04
 -1.27152E+04 -6.67641E+04  4.22992E+04 -4.81615E+04  6.28089E+04 -2.78828E+03  3.81852E+04  3.55121E+04
 -5.02964E+03  4.09580E+04 -3.31467E+04  2.05020E+04 -3.49793E+04 -2.94992E+03 -2.04074E+04 -1.22031E+04
 -1.00655E+04 -1.59450E+04 -3.89066E+02 -2.09251E+04  8.73832E+03 -2.37449E+04  1.61205E+04 -1.23191E+04
  9.95248E+03  7.16780E+03 -1.12395E+04  1.29145E+04 -2.45508E+04 -8.02524E+03 -9.02821E+03 -3.94750E+04
  2.64675E+04 -4.88144E+04  5.39612E+04 -2.21002E+04  5.03688E+04  2.15525E+04  1.83618E+04  4.87470E+04
 -1.66491E+04  3.70928E+04 -2.89751E+04  2.52635E+03 -1.23952E+04 -3.04278E+04  2.22062E+04 -3.85020E+04
  4.68007E+04 -1.24838E+04  4.27870E+04  2.57340E+04  2.30193E+04  5.37780E+04 -8.36753E+03  5.87952E+04
 -3.73007E+04  4.07825E+04 -5.06350E+04  1.20022E+04 -5.01531E+04 -1.96508E+04 -2.72266E+04 -4.44295E+04
  7.82616E+03 -4.42869E+04  3.55797E+04 -1.84863E+04  3.34881E+04  1.10593E+04  5.92972E+03  2.19316E+04
 -1.41990E+04  9.95275E+03 -1.17209E+04 -7.82935E+03  5.29448E+03 -1.15948E+04  1.93298E+04  5.56947E+03
  1.56893E+04  2.28179E+04 -4.99631E+03  2.81711E+04 -2.41030E+04  1.57446E+04 -3.34765E+04 -2.00524E+03
 -2.77910E+04 -1.89741E+04 -1.31873E+04 -2.72270E+04  4.40407E+03 -2.86941E+04  2.19175E+04 -2.52469E+04
  3.51721E+04 -1.55265E+04  4.08729E+04  6.29056E+03  2.86748E+04  2.68024E+04  4.23449E+03  4.36636E+04
 -2.09441E+04  3.55759E+04 -3.15744E+04  1.26937E+04 -2.33238E+04 -1.03500E+04 -5.09659E+03 -1.24017E+04
  2.00095E+02 -5.04805E+02 -8.68577E+03  9.09606E+03 -2.20778E+04  4.86528E+03 -2.18956E+04 -1.09804E+04
 -1.28136E+04 -2.57603E+04  6.98261E+03 -3.02608E+04  2.08334E+04 -2.13881E+04  2.52162E+04 -2.30134E+03
  1.61181E+04  1.77762E+04 -1.43973E+03  2.54141E+04 -1.85131E+04  1.46410E+04 -2.60537E+04 -5.35861E+03
 -1.89589E+04 -2.29388E+04 -2.80821E+03 -3.05308E+04  1.35419E+04 -2.60935E+04  2.48102E+04 -1.35052E+04
  2.42761E+04 -7.98493E+02  1.74595E+04  5.75983E+03  1.01821E+04  1.57890E+03  1.35721E+04 -2.53777E+03
  2.45472E+04  3.18506E+03  2.86206E+04  1.96239E+04  1.97077E+04  4.16334E+04 -2.22365E+03  4.97391E+04
 -2.81073E+04  4.17384E+04 -4.74193E+04  2.18868E+04 -5.07176E+04 -3.43790E+03 -3.98658E+04 -2.96546E+04
 -1.63251E+04 -4.23628E+04  1.53125E+04 -3.69756E+04  3.12856E+04 -1.63035E+04  2.69064E+04  9.36454E+03
  8.78915E+03  2.09288E+04 -1.25915E+04  1.76015E+04 -2.19034E+04  2.46690E+03 -1.67450E+04 -1.49061E+04
 -3.90047E+02 -2.21737E+04  1.20338E+04 -1.55526E+04  1.48664E+04 -1.13474E+03  4.13657E+03  9.92721E+03
 -9.76192E+03  5.01746E+03 -1.08307E+04 -8.08172E+03 -2.31892E+03 -2.05886E+04  1.29219E+04 -2.32829E+04
  2.66939E+04 -1.26754E+04  3.12188E+04  3.87641E+03  2.69592E+04  2.12957E+04  1.25420E+04  3.41285E+04
 -6.88787E+03  3.58883E+04 -2.39591E+04  2.17195E+04 -2.63321E+04  4.04980E+03 -1.76720E+04 -7.48522E+03
 -7.24117E+03 -8.87328E+03 -8.60810E+02  2.11494E+02 -3.43924E+03  4.22262E+03 -8.23956E+03  5.96810E+03
 -1.64346E+04 -1.33399E+03 -1.67353E+04 -1.38711E+04 -6.16534E+03 -2.23035E+04  7.63298E+03 -1.85760E+04
  1.52867E+04 -7.11565E+03  1.04275E+04  4.79377E+03 -1.35768E+03  7.09471E+03 -9.30373E+03 -4.01433E+02
 -9.02410E+03 -1.18548E+04 -1.02653E+03 -1.84561E+04  1.07442E+04 -1.94570E+04  2.37629E+04 -1.03008E+04
  2.80735E+04  3.35764E+03  2.01184E+04  1.75403E+04  4.02281E+03  2.23352E+04 -1.12422E+04  1.79572E+04
 -1.43296E+04  5.04278E+03 -7.43221E+03 -4.12190E+03  1.83041E+03 -5.12502E+03  9.06278E+03 -1.34103E+03
  8.49617E+03  8.34508E+03  1.33169E+03  1.51153E+04 -1.08933E+04  1.39221E+04 -1.83535E+04  3.32664E+03
 -1.27318E+04 -9.40919E+03  1.79261E+02 -1.59511E+04  1.09774E+04 -8.07440E+03  1.17154E+04  4.28096E+03
  2.90796E+03  1.25792E+04 -1.02119E+04  1.44233E+04 -1.71364E+04  6.61008E+03 -1.70374E+04 -6.65273E+03
 -9.51335E+03 -1.94737E+04  4.94552E+03 -2.28016E+04  1.92032E+04 -1.34480E+04  2.09195E+04  3.63866E+03
  1.17516E+04  1.62331E+04 -2.43450E+03  1.88829E+04 -1.42494E+04  1.05004E+04 -1.60059E+04 -1.42385E+03
 -1.24984E+04 -1.29104E+04 -2.30982E+03 -1.45410E+04  8.15948E+03 -1.19747E+04  9.75727E+03 -3.75261E+03
  5.27537E+03  2.91424E+03 -1.49027E+03  2.53886E+03 -1.30760E+03 -4.84479E+03  3.57323E+03 -9.58207E+03
  1.51806E+04 -6.36479E+03  2.05080E+04  2.27659E+03  1.92067E+04  1.38784E+04  1.20588E+04  2.61600E+04
 -6.21015E+03  2.95969E+04 -2.44967E+04  2.20776E+04 -3.17678E+04  4.49351E+03 -2.59748E+04 -1.16345E+04
 -1.28130E+04 -2.09517E+04 -3.11931E+02 -1.82451E+04  6.53740E+03 -1.08809E+04  6.39995E+03 -6.27637E+03
  4.90487E+03 -3.74362E+03  4.24792E+03 -4.21555E+03  6.50837E+03 -4.55783E+03  9.31715E+03 -2.28383E+03
  1.35182E+04  2.81734E+03  7.81153E+03  1.19766E+04 -2.93438E+03  1.44895E+04 -1.42192E+04  1.11975E+04
 -1.84778E+04 -1.22611E+03 -1.24103E+04 -1.33290E+04 -2.26169E+03 -2.01550E+04  1.08977E+04 -2.01131E+04
  2.09822E+04 -1.09047E+04  2.45126E+04  3.97655E+03  1.72976E+04  1.74423E+04  2.37424E+03  2.31033E+04
 -9.46821E+03  1.81219E+04 -1.32621E+04  6.39332E+03 -9.33653E+03 -1.96739E+03 -4.23132E+03 -3.16336E+03
 -2.24238E+03 -2.25476E+02 -2.68799E+03  3.08455E+03 -7.51480E+03  3.05070E+03 -1.27223E+04 -2.25762E+03
 -9.92566E+03 -1.26204E+04 -6.38470E+02 -1.89888E+04  1.15728E+04 -1.70239E+04  1.92364E+04 -5.47391E+03
  1.84184E+04  8.98337E+03  9.07517E+03  1.75554E+04 -3.76093E+03  1.90854E+04 -1.43096E+04  1.18681E+04
 -1.80964E+04  5.77031E+02 -1.39344E+04 -1.17579E+04 -1.54763E+03 -1.64762E+04  8.21357E+03 -1.22388E+04
  1.19151E+04 -3.28965E+03  8.48755E+03  3.43723E+03  3.57176E+03  5.37597E+03  1.63576E+03  2.28473E+03
  3.19509E+03  1.24488E+03  4.72553E+03  2.81108E+03  6.04300E+03  6.19531E+03  4.79857E+03  1.08818E+04
 -3.46977E+03  1.57723E+04 -1.38549E+04  1.50608E+04 -2.08043E+04  3.62656E+03 -2.07719E+04 -9.14298E+03
 -1.00482E+04 -1.99723E+04  2.84816E+03 -2.18231E+04  1.25173E+04 -1.36129E+04  1.60284E+04 -3.87376E+03
  1.31512E+04  7.40622E+03  2.81833E+03  1.17347E+04 -5.82710E+03  7.51471E+03 -8.47074E+03 -1.26696E+03
 -4.15953E+03 -8.97968E+03  4.53438E+03 -8.51132E+03  8.11777E+03 -4.42010E+03  8.17668E+03  2.44877E+03
  5.23233E+03  4.17789E+03  1.68044E+03  3.63587E+03 -1.19391E+03  2.68705E+03  1.81519E+03 -4.61619E+02
  3.14134E+03 -1.22015E+03  8.22903E+03  3.31724E+03  4.90204E+03  1.06952E+04 -1.86378E+03  1.44300E+04
 -9.64478E+03  9.94564E+03 -1.35703E+04  2.24944E+03 -1.16363E+04 -5.01182E+03 -4.68156E+03 -8.34239E+03
  7.43902E+02 -8.04656E+03  5.21987E+03 -3.35911E+03  4.70740E+03  3.80434E+03 -2.12836E+03  7.54013E+03
 -8.92069E+03  3.95735E+03 -1.00351E+04 -4.51348E+03 -5.71936E+03 -1.14421E+04  1.61927E+03 -1.17711E+04
  7.33858E+03 -7.20542E+03  8.57992E+03 -1.18974E+03  6.46781E+03  3.62079E+03  9.76556E+02  5.93374E+03
 -4.62955E+03  2.36690E+03 -4.89921E+03 -4.57571E+03  1.40053E+03 -8.91122E+03  1.01610E+04 -6.98653E+03
  1.38823E+04  9.01238E+02  1.24401E+04  9.81285E+03  4.00888E+03  1.47257E+04 -5.21015E+03  1.35836E+04
 -1.12934E+04  6.55231E+03 -1.18327E+04 -1.94425E+03 -6.50595E+03 -9.20012E+03  2.51969E+03 -9.25385E+03
  8.67696E+03 -4.54245E+03  7.45218E+03  3.70307E+03  2.37775E+03  8.01608E+03 -1.41595E+03  6.77403E+03
 -3.91682E+03  4.58127E+03 -3.42267E+03  1.16858E+03 -1.68479E+03  1.49750E+03 -1.97484E+03  2.81833E+03
 -3.44239E+03  5.31074E+03 -9.44237E+03  4.98266E+03 -1.44806E+04  3.69008E+02 -1.58047E+04 -9.55159E+03
 -8.53314E+03 -1.88000E+04  3.42866E+03 -2.16779E+04  1.38168E+04 -1.73128E+04  2.04464E+04 -6.08629E+03
  1.99992E+04  4.41214E+03  1.21103E+04  1.36122E+04  1.71715E+03  1.53736E+04 -5.88490E+03  1.13302E+04
 -8.38992E+03  4.25392E+03 -5.01681E+03 -1.65827E+03 -2.00956E+03 -2.26491E+03 -1.04937E+03  1.23626E+01
 -2.19392E+03  7.38398E+02 -3.23593E+03 -4.57697E+02 -1.51586E+03 -3.47935E+03  6.56802E+02 -5.55537E+03
  6.53138E+03 -4.44083E+03  9.55983E+03  2.18773E+02  1.08368E+04  8.31668E+03  3.52425E+03  1.51868E+04
 -6.99968E+03  1.75740E+04 -1.66129E+04  9.90047E+03 -1.88874E+04 -1.38343E+03 -1.45051E+04 -1.11670E+04
 -5.53650E+03 -1.57958E+04  4.29457E+03 -1.50036E+04  1.01573E+04 -7.88792E+03  1.07302E+04  3.21957E+02
  5.42228E+03  5.22969E+03 -8.58651E+02  4.74915E+03 -2.62473E+03 -7.30060E+02  1.45671E+02 -3.90318E+03
  4.78297E+03 -2.34457E+03  6.66347E+03  1.94211E+03  4.70871E+03  6.24420E+03  2.23169E+02  8.44877E+03
 -6.86375E+03  7.18891E+03 -1.05201E+04  7.81327E+02 -8.78674E+03 -7.92841E+03 -1.68068E+03 -1.35308E+04
  7.06869E+03 -1.11941E+04  1.23978E+04 -3.22979E+03  1.25893E+04  3.33386E+03  7.21668E+03  1.03073E+04
  1.06031E+03  1.11313E+04 -4.20558E+03  8.68795E+03 -6.42487E+03  4.61341E+03 -6.03582E+03  1.14922E+03
 -3.72650E+03 -6.27499E+02 -3.15086E+03  1.81841E+03 -5.58743E+03  2.17156E+03 -7.81967E+03 -1.94099E+03
 -7.66857E+03 -6.30534E+03 -2.43139E+03 -1.07921E+04  5.04590E+03 -1.09354E+04  1.02699E+04 -5.57375E+03
  1.07415E+04  1.64142E+03  6.66937E+03  7.78935E+03 -8.71767E+02  1.07906E+04 -8.35036E+03  7.04692E+03
