 $NMID ID='MM_0lb_SNR800_14hz_g60_33.RAW', FMTDAT='(8E13.5)'
 TRAMP=1., VOLUME=1. $END
  3.09843E+05  7.35448E+02  3.37982E+05  2.50472E+05  8.50229E+04  3.38358E+05 -1.32891E+05  2.51234E+05
 -1.90421E+05  8.33062E+04 -1.12012E+05 -3.24248E+04  4.85315E+02 -5.08757E+04  5.39275E+04 -2.92351E+02
  3.57481E+04  5.24080E+04 -1.70625E+04  7.54844E+04 -6.10129E+04  6.37261E+04 -8.45711E+04  3.24694E+04
 -8.14404E+04 -1.15515E+04 -5.77162E+04 -5.17784E+04 -1.50706E+04 -6.96812E+04  2.76382E+04 -4.59597E+04
  4.03790E+04  3.76386E+03  1.61684E+04  4.79963E+04 -3.44385E+04  4.73578E+04 -6.74540E+04  4.12603E+01
 -5.43485E+04 -5.70850E+04 -7.21314E+03 -7.78825E+04  3.41719E+04 -5.60452E+04  4.88515E+04 -1.77148E+04
  4.43488E+04  1.13003E+04  3.22599E+04  2.59217E+04  1.59569E+04  3.00480E+04 -5.27837E+03  2.73226E+04
 -2.21181E+04  1.19744E+04 -1.85444E+04 -4.99088E+03  6.43493E+03 -7.48713E+03  2.29721E+04  1.28325E+04
  7.27262E+03  3.58422E+04 -3.28938E+04  3.60126E+04 -6.45956E+04  2.21068E+03 -5.77617E+04 -4.35085E+04
 -1.25589E+04 -6.39663E+04  4.05109E+04 -4.61610E+04  5.95284E+04 -2.16794E+03  3.50431E+04  3.31519E+04
 -5.82245E+03  3.73743E+04 -3.09946E+04  1.71210E+04 -3.13684E+04 -4.13722E+03 -1.76430E+04 -1.14952E+04
 -8.46441E+03 -1.41458E+04 -6.86265E+02 -1.84603E+04  8.01848E+03 -2.32260E+04  1.56337E+04 -1.31543E+04
  1.08518E+04  5.38221E+03 -8.92790E+03  1.29658E+04 -2.17865E+04 -5.44826E+03 -8.15584E+03 -3.49067E+04
  2.38173E+04 -4.44709E+04  4.96558E+04 -1.99957E+04  4.62536E+04  2.01743E+04  1.61740E+04  4.51951E+04
 -1.61413E+04  3.41870E+04 -2.62805E+04  1.88420E+03 -1.05732E+04 -2.85181E+04  2.14123E+04 -3.47699E+04
  4.21216E+04 -9.82401E+03  3.71583E+04  2.42201E+04  1.89776E+04  4.79465E+04 -8.37531E+03  5.24436E+04
 -3.27147E+04  3.52574E+04 -4.38252E+04  1.04004E+04 -4.37741E+04 -1.73613E+04 -2.45471E+04 -3.90537E+04
  7.44935E+03 -3.92727E+04  3.23723E+04 -1.54775E+04  3.02802E+04  1.06801E+04  4.27737E+03  1.99199E+04
 -1.35611E+04  9.14203E+03 -1.08278E+04 -7.76383E+03  5.53332E+03 -1.09199E+04  1.84656E+04  6.03332E+03
  1.40223E+04  2.24046E+04 -5.54221E+03  2.58723E+04 -2.27415E+04  1.23182E+04 -2.90718E+04 -4.14150E+03
 -2.19960E+04 -1.78297E+04 -9.43538E+03 -2.18389E+04  4.05747E+03 -2.15001E+04  1.69324E+04 -1.96636E+04
  2.79098E+04 -1.31418E+04  3.41155E+04  3.29756E+03  2.51329E+04  2.13124E+04  4.51869E+03  3.76314E+04
 -1.84226E+04  3.12597E+04 -2.85743E+04  1.08441E+04 -2.11739E+04 -1.01189E+04 -4.56863E+03 -1.31584E+04
  1.66319E+03 -2.51038E+03 -5.81739E+03  6.97151E+03 -1.73214E+04  5.25038E+03 -1.75758E+04 -7.98063E+03
 -1.04055E+04 -2.00653E+04  5.08256E+03 -2.41864E+04  1.66237E+04 -1.74010E+04  1.95209E+04 -1.49610E+03
  1.22737E+04  1.39741E+04 -1.28985E+03  2.01439E+04 -1.40486E+04  1.15111E+04 -2.02604E+04 -3.99840E+03
 -1.48613E+04 -1.79010E+04 -2.15393E+03 -2.46263E+04  1.10824E+04 -2.01435E+04  2.01753E+04 -1.03119E+04
  1.87418E+04  4.25352E+02  1.33476E+04  4.34035E+03  7.28279E+03  1.43827E+03  1.03903E+04 -1.49572E+03
  1.85851E+04  2.44502E+03  2.11903E+04  1.60821E+04  1.42681E+04  3.20003E+04 -2.70529E+03  3.67235E+04
 -2.11622E+04  3.00868E+04 -3.43344E+04  1.52144E+04 -3.63546E+04 -2.60085E+03 -2.97023E+04 -2.10593E+04
 -1.27788E+04 -2.99258E+04  1.03214E+04 -2.70813E+04  2.29396E+04 -1.33270E+04  2.02865E+04  6.31269E+03
  7.44506E+03  1.56178E+04 -9.42248E+03  1.31519E+04 -1.71762E+04  2.70634E+03 -1.33584E+04 -1.09481E+04
 -2.75792E+02 -1.64079E+04  8.35131E+03 -1.23233E+04  1.09208E+04 -1.61737E+03  2.34453E+03  7.13574E+03
 -7.34862E+03  2.56801E+03 -6.77683E+03 -5.75926E+03 -4.63244E+02 -1.49963E+04  1.02096E+04 -1.57773E+04
  1.78320E+04 -8.31022E+03  1.96265E+04  3.19982E+03  1.66844E+04  1.43886E+04  7.90127E+03  2.22913E+04
 -3.76761E+03  2.42351E+04 -1.55862E+04  1.50317E+04 -1.71925E+04  3.56120E+03 -1.23126E+04 -4.00835E+03
 -5.73284E+03 -5.69415E+03 -5.06213E+02  9.22263E+02 -2.43570E+03  2.98469E+03 -5.52995E+03  4.79894E+03
 -1.12542E+04 -7.98532E+02 -1.19768E+04 -9.74698E+03 -4.97678E+03 -1.55401E+04  5.36447E+03 -1.23003E+04
  1.02630E+04 -5.27810E+03  7.50062E+03  3.25008E+03 -5.71517E+01  5.07772E+03 -5.75416E+03  4.24136E+01
 -5.43436E+03 -7.67332E+03 -7.33013E+02 -1.14206E+04  6.54510E+03 -1.24058E+04  1.52379E+04 -6.54575E+03
  1.76531E+04  1.40854E+03  1.29698E+04  1.03916E+04  2.58744E+03  1.39142E+04 -7.25727E+03  1.19326E+04
 -9.95771E+03  3.68097E+03 -5.06457E+03 -2.60133E+03  1.76034E+03 -3.44618E+03  6.50983E+03 -6.92274E+02
  5.96749E+03  5.08603E+03  1.07919E+03  9.46301E+03 -6.72990E+03  9.49631E+03 -1.13394E+04  2.31616E+03
 -7.84487E+03 -5.97919E+03  5.72914E+02 -1.01340E+04  6.26184E+03 -4.91698E+03  6.24990E+03  2.12350E+03
  1.06873E+03  6.75924E+03 -6.06852E+03  8.43953E+03 -9.31758E+03  3.76251E+03 -9.40993E+03 -2.75873E+03
 -5.35731E+03 -1.07990E+04  2.41158E+03 -1.26085E+04  1.07068E+04 -7.38781E+03  1.12855E+04  2.01823E+03
  7.33017E+03  9.18137E+03 -1.02238E+03  1.12757E+04 -8.02300E+03  6.39551E+03 -9.33291E+03 -1.08396E+03
 -8.28936E+03 -7.93069E+03 -1.58372E+03 -8.56762E+03  4.36609E+03 -6.88525E+03  4.93107E+03 -3.25427E+03
  3.92146E+03  9.19659E+02 -3.81268E+02  1.45551E+03 -1.07007E+02 -1.82951E+03  1.30734E+03 -4.49365E+03
  7.28218E+03 -2.46030E+03  1.03800E+04  1.26093E+03  1.04034E+04  6.66774E+03  7.55267E+03  1.32604E+04
 -3.14366E+03  1.53188E+04 -1.33958E+04  1.17731E+04 -1.70782E+04  2.19299E+03 -1.36614E+04 -5.75832E+03
 -7.00490E+03 -1.12383E+04  1.05870E+02 -9.30855E+03  3.73329E+03 -5.09146E+03  3.27066E+03 -3.44079E+03
  2.49095E+03 -2.30635E+03  2.92980E+03 -3.12493E+03  4.68238E+03 -2.05083E+03  5.48964E+03 -4.71304E+02
  7.29562E+03  2.00375E+03  3.28763E+03  6.29392E+03 -1.77491E+03  6.75787E+03 -7.51873E+03  5.27466E+03
 -9.19145E+03 -1.57421E+03 -5.23010E+03 -6.35086E+03 -2.75128E+02 -9.64759E+03  5.52634E+03 -1.00971E+04
  1.00368E+04 -5.79183E+03  1.23314E+04  9.15272E+02  8.70343E+03  8.31728E+03  1.76445E+03  1.07699E+04
 -4.44639E+03  9.30993E+03 -6.21941E+03  3.31100E+03 -3.75520E+03 -1.26806E+03 -1.39711E+03 -1.49357E+03
 -1.02335E+03 -1.12303E+00 -1.06084E+03  2.63057E+03 -3.91707E+03  1.60328E+03 -6.56982E+03 -1.01480E+03
 -3.83648E+03 -6.77316E+03  1.60784E+02 -8.91504E+03  5.30660E+03 -7.89758E+03  8.12622E+03 -2.46519E+03
  8.46545E+03  4.09914E+03  3.66626E+03  6.92995E+03 -1.48004E+03  8.71320E+03 -5.88471E+03  5.41743E+03
 -7.60778E+03  2.07110E+02 -6.33321E+03 -5.21608E+03 -9.43788E+02 -7.00962E+03  3.61558E+03 -4.93803E+03
  5.40658E+03 -1.97276E+03  3.57927E+03  9.17804E+02  1.32556E+03  2.62680E+03  7.91642E+02  1.26168E+03
  1.94385E+03  7.02304E+02  2.17545E+03  1.56040E+03  2.59867E+03  3.34004E+03  2.41888E+03  3.96384E+03
 -2.25491E+03  6.32248E+03 -5.53372E+03  6.93225E+03 -7.89190E+03  2.47286E+03 -8.85368E+03 -2.68085E+03
 -3.99308E+03 -8.15046E+03  1.04184E+03 -9.44956E+03  4.63711E+03 -5.52406E+03  6.40222E+03 -1.61381E+03
  5.14867E+03  3.45479E+03  1.20733E+03  5.01294E+03 -1.92123E+03  3.22978E+03 -2.96799E+03 -2.09462E+02
 -1.37873E+03 -3.33301E+03  2.26141E+03 -3.55932E+03  3.34641E+03 -1.55778E+03  2.99032E+03  6.93818E+02
  1.70774E+03  1.54223E+03  5.41721E+02  8.35548E+02 -4.51759E+02  1.16718E+03  1.51443E+03 -4.26575E+02
  9.63579E+02 -3.40035E+02  3.34332E+03  1.33009E+03  1.27441E+03  4.41858E+03 -9.27643E+02  5.29613E+03
 -3.87156E+03  3.07153E+03 -4.94128E+03  1.14938E+03 -4.43282E+03 -1.42912E+03 -1.22669E+03 -2.97037E+03
  9.07079E+02 -2.78049E+03  2.24181E+03 -1.84744E+03  1.26093E+03  1.70952E+03 -9.49426E+02  2.17821E+03
 -3.27189E+03  1.46380E+03 -3.35760E+03 -2.12477E+03 -1.89658E+03 -4.42803E+03  8.35960E+02 -3.69254E+03
  2.23880E+03 -1.93410E+03  2.61680E+03 -7.32911E+01  2.76629E+03  6.42269E+02  5.13405E+02  2.26275E+03
 -1.12348E+03  6.70552E+02 -1.92188E+03 -1.28689E+03  4.94554E+02 -2.42302E+03  3.64730E+03 -2.46913E+03
  4.05030E+03  3.33242E+02  4.92363E+03  2.46135E+03  1.92194E+03  4.40394E+03 -1.54327E+03  4.42354E+03
 -3.64794E+03  1.57653E+03 -3.92111E+03 -6.36376E+02 -1.96540E+03 -3.00685E+03  5.73190E+02 -2.34178E+03
  3.02554E+03 -1.17939E+03  2.32510E+03  1.12025E+03  8.18340E+02  2.65379E+03 -7.09239E+01  2.31562E+03
 -9.71282E+02  2.01931E+03 -1.00537E+03  6.54274E+02 -5.44806E+02  7.23828E+02 -1.04773E+03  9.73553E+02
 -1.21131E+03  2.13164E+03 -3.64117E+03  1.22563E+03 -4.26024E+03  1.85994E+02 -5.21822E+03 -2.75608E+03
 -2.59658E+03 -5.90573E+03  1.17315E+03 -6.51406E+03  3.82877E+03 -5.41393E+03  6.44637E+03 -1.88407E+03
  5.75413E+03  3.70424E+02  3.53297E+03  3.67753E+03 -9.88614E+01  4.45529E+03 -1.95714E+03  3.20578E+03
 -2.33904E+03  1.11289E+03 -1.45434E+03 -5.30921E+02 -6.04751E+02 -3.93570E+02 -5.30360E+02 -3.93323E+02
 -1.07354E+03  3.78062E+02 -1.42290E+03  1.57764E+02 -3.22993E+01 -1.21149E+03 -2.30929E+02 -1.50232E+03
  2.42849E+03 -1.52522E+03  2.22427E+03  1.24864E+01  3.07564E+03  2.54545E+03  2.95515E+02  4.25828E+03
 -1.81877E+03  5.36950E+03 -4.32472E+03  2.91928E+03 -4.87526E+03 -7.12139E+02 -3.23393E+03 -3.14076E+03
 -1.83312E+03 -4.21871E+03  7.86367E+02 -3.46919E+03  2.09746E+03 -2.45978E+03  2.23630E+03  2.61501E+02
  1.42524E+03  1.22459E+03  1.32352E+01  1.38667E+03 -8.45244E+02 -3.82651E+01  9.76342E+00 -8.90490E+02
  1.05781E+03 -1.02303E+02  1.38179E+03  7.38450E+02  7.77176E+02  1.56960E+03  7.51384E+02  1.91257E+03
 -1.67671E+03  1.65442E+03 -2.50511E+03  3.85912E+02 -2.02921E+03 -1.57881E+03 -1.98474E+02 -3.31915E+03
  1.71482E+03 -2.48308E+03  2.64147E+03 -4.72612E+02  2.90890E+03 -1.65524E+02  1.52461E+03  2.41122E+03
  5.54397E+02  2.27809E+03 -8.13323E+02  1.64104E+03 -1.58792E+03  1.03735E+03 -1.07867E+03  1.70983E+01
 -7.05209E+02  4.69077E+01 -6.23199E+02  3.37593E+02 -1.25348E+03 -7.22185E+00 -1.66411E+03 -5.21679E+02
 -2.25950E+03 -5.65158E+02 -4.50354E+02 -2.55205E+03  1.54867E+03 -3.00489E+03  1.95361E+03 -1.21967E+03
  2.41928E+03  5.58453E+01  8.73850E+02  1.29588E+03  2.14634E+01  2.28352E+03 -1.54020E+03  1.89044E+03
