 $NMID ID='MM_0lb_SNR800_17hz_g45_88.RAW', FMTDAT='(8E13.5)'
 TRAMP=1., VOLUME=1. $END
  3.09907E+05  4.75855E+02  3.37276E+05  2.50638E+05  8.43863E+04  3.37161E+05 -1.32639E+05  2.50643E+05
 -1.89719E+05  8.27559E+04 -1.11246E+05 -3.30324E+04  1.31014E+03 -5.06952E+04  5.38161E+04  3.64966E+01
  3.50900E+04  5.28306E+04 -1.69198E+04  7.45942E+04 -6.02810E+04  6.29879E+04 -8.33789E+04  3.14001E+04
 -7.99614E+04 -1.11999E+04 -5.64262E+04 -5.04197E+04 -1.48241E+04 -6.85930E+04  2.69442E+04 -4.48849E+04
  3.91046E+04  3.96337E+03  1.57038E+04  4.75942E+04 -3.37245E+04  4.67660E+04 -6.56790E+04 -6.67512E+02
 -5.23017E+04 -5.61383E+04 -6.33631E+03 -7.54228E+04  3.32785E+04 -5.36316E+04  4.67791E+04 -1.64350E+04
  4.20899E+04  1.09714E+04  3.08683E+04  2.46653E+04  1.58407E+04  2.81939E+04 -4.68809E+03  2.69425E+04
 -2.18006E+04  1.25297E+04 -1.89897E+04 -3.86761E+03  4.60962E+03 -7.58758E+03  2.14803E+04  1.11527E+04
  7.48655E+03  3.36239E+04 -3.10380E+04  3.43914E+04 -6.15770E+04  2.43436E+03 -5.58629E+04 -4.14049E+04
 -1.22815E+04 -6.14822E+04  3.87034E+04 -4.41234E+04  5.60546E+04 -1.79484E+03  3.22364E+04  3.11008E+04
 -6.64214E+03  3.36753E+04 -2.88095E+04  1.41111E+04 -2.81930E+04 -5.19201E+03 -1.51669E+04 -1.02249E+04
 -7.61246E+03 -1.17253E+04 -1.08991E+03 -1.68877E+04  6.86348E+03 -2.26897E+04  1.49412E+04 -1.36785E+04
  1.19918E+04  4.45620E+03 -6.60925E+03  1.26522E+04 -1.98165E+04 -2.82684E+03 -8.21494E+03 -3.15519E+04
  2.13960E+04 -4.11988E+04  4.55684E+04 -1.88610E+04  4.25958E+04  1.83061E+04  1.47074E+04  4.20355E+04
 -1.54275E+04  3.18108E+04 -2.38813E+04  1.24276E+03 -8.56804E+03 -2.69036E+04  2.04579E+04 -3.20231E+04
  3.86606E+04 -7.65884E+03  3.24102E+04  2.28793E+04  1.58938E+04  4.33797E+04 -7.93532E+03  4.65443E+04
 -2.92595E+04  3.09147E+04 -3.83689E+04  8.82657E+03 -3.94945E+04 -1.51056E+04 -2.21849E+04 -3.54653E+04
  6.86560E+03 -3.49334E+04  2.98517E+04 -1.33307E+04  2.73979E+04  1.07731E+04  3.47715E+03  1.81155E+04
 -1.32653E+04  7.63327E+03 -1.00208E+04 -7.75192E+03  6.05283E+03 -1.03042E+04  1.71662E+04  6.19896E+03
  1.26446E+04  2.12997E+04 -6.35394E+03  2.38127E+04 -2.17579E+04  9.70871E+03 -2.58631E+04 -5.93370E+03
 -1.77027E+04 -1.67842E+04 -6.28961E+03 -1.76666E+04  3.69037E+03 -1.61888E+04  1.31895E+04 -1.57489E+04
  2.27296E+04 -1.20406E+04  2.91427E+04  1.47477E+03  2.20035E+04  1.71813E+04  4.40060E+03  3.34500E+04
 -1.65846E+04  2.81132E+04 -2.62161E+04  9.79155E+03 -1.98948E+04 -1.02684E+04 -4.39151E+03 -1.37319E+04
  2.54776E+03 -3.94975E+03 -3.29770E+03  5.73053E+03 -1.41038E+04  5.13603E+03 -1.41778E+04 -5.53085E+03
 -8.89530E+03 -1.62212E+04  4.45380E+03 -2.01957E+04  1.32474E+04 -1.47191E+04  1.57295E+04 -1.51571E+03
  9.62431E+03  1.11760E+04 -8.25683E+02  1.66630E+04 -1.08830E+04  9.21079E+03 -1.61465E+04 -3.55621E+03
 -1.19778E+04 -1.49185E+04 -1.62489E+03 -2.00624E+04  9.11410E+03 -1.59282E+04  1.70343E+04 -8.03216E+03
  1.51509E+04  7.85005E+02  1.11646E+04  4.09099E+03  5.73856E+03  7.62578E+02  8.06327E+03 -1.40048E+03
  1.46938E+04  2.82635E+03  1.59636E+04  1.35137E+04  1.01812E+04  2.60945E+04 -2.98506E+03  2.85055E+04
 -1.68309E+04  2.17976E+04 -2.63520E+04  1.07421E+04 -2.70102E+04 -1.95139E+03 -2.28369E+04 -1.51726E+04
 -1.06419E+04 -2.20524E+04  7.35144E+03 -2.04338E+04  1.80065E+04 -1.14633E+04  1.64378E+04  4.15054E+03
  6.72986E+03  1.16341E+04 -7.40400E+03  1.09834E+04 -1.40389E+04  2.69621E+03 -1.05961E+04 -8.33024E+03
 -3.36019E+02 -1.30844E+04  6.57738E+03 -1.01202E+04  8.72620E+03 -1.28679E+03  1.50791E+03  5.35166E+03
 -6.00350E+03  1.74187E+03 -3.99647E+03 -4.89408E+03  4.46831E+02 -1.09130E+04  8.02535E+03 -1.09130E+04
  1.35663E+04 -5.36030E+03  1.34960E+04  2.66145E+03  1.15823E+04  1.04206E+04  5.46026E+03  1.57622E+04
 -2.06316E+03  1.73916E+04 -1.06169E+04  1.12478E+04 -1.20594E+04  2.94450E+03 -9.01464E+03 -2.32572E+03
 -4.81884E+03 -3.73451E+03 -9.46176E+02  1.32611E+03 -2.05552E+03  1.95281E+03 -3.91369E+03  3.82278E+03
 -8.37458E+03 -6.13272E+02 -9.41298E+03 -7.57693E+03 -4.05586E+03 -1.23330E+04  3.85469E+03 -9.12866E+03
  7.56745E+03 -4.06843E+03  5.57023E+03  2.68950E+03  1.80323E+02  3.26948E+03 -4.27708E+03  1.19287E+01
 -3.69522E+03 -5.66806E+03 -6.40714E+02 -8.17480E+03  4.38960E+03 -8.96739E+03  1.07925E+04 -4.46077E+03
  1.28097E+04  9.27827E+02  9.60771E+03  7.22609E+03  1.87057E+03  9.69853E+03 -5.78957E+03  9.12323E+03
 -7.43986E+03  3.04425E+03 -3.78401E+03 -1.27100E+03  1.20438E+03 -2.31695E+03  4.84458E+03 -9.14318E+02
  4.08460E+03  3.84044E+03  9.05901E+02  6.87788E+03 -4.89016E+03  6.84017E+03 -8.75580E+03  1.82973E+03
 -5.50126E+03 -3.80924E+03  4.52523E+02 -7.20798E+03  4.11896E+03 -3.79617E+03  4.29609E+03  1.28539E+03
  3.93741E+02  4.14102E+03 -4.46282E+03  5.32293E+03 -5.79444E+03  2.74234E+03 -5.57218E+03 -1.64466E+03
 -3.47973E+03 -6.72038E+03  1.47242E+03 -7.73924E+03  7.08419E+03 -5.34247E+03  7.15721E+03  1.16706E+03
  5.18594E+03  5.67244E+03 -3.24487E+02  8.15217E+03 -5.69691E+03  4.68844E+03 -5.97639E+03 -5.21230E+02
 -6.14982E+03 -5.92935E+03 -1.55868E+03 -5.92188E+03  2.85073E+03 -5.27858E+03  3.18385E+03 -3.10824E+03
  2.88741E+03  1.55850E+02 -7.05199E+01  1.52467E+03  5.96696E+02 -2.96399E+02  4.10867E+02 -2.54449E+03
  4.55138E+03 -1.14174E+03  6.31291E+03  6.69540E+02  6.48663E+03  3.79170E+03  5.78346E+03  8.52843E+03
 -1.69047E+03  9.83899E+03 -9.03684E+03  7.32671E+03 -1.13118E+04  1.05253E+03 -9.08665E+03 -3.45514E+03
 -4.61325E+03 -7.51478E+03 -4.53239E+02 -5.90846E+03  2.50629E+03 -2.92024E+03  2.16769E+03 -2.36632E+03
  1.29284E+03 -1.59643E+03  2.62881E+03 -2.22326E+03  3.79158E+03 -1.42783E+03  4.15647E+03  3.98729E+02
  4.86923E+03  1.40430E+03  1.76420E+03  3.71111E+03 -1.74302E+03  3.87648E+03 -5.36739E+03  3.09381E+03
 -6.00428E+03 -9.10508E+02 -2.59217E+03 -4.02849E+03  1.70618E+02 -6.19425E+03  3.58013E+03 -6.09129E+03
  6.30493E+03 -3.71221E+03  7.94484E+03  4.54731E+02  5.64075E+03  5.09586E+03  1.05464E+03  6.93112E+03
 -2.39010E+03  6.63131E+03 -3.70244E+03  2.35622E+03 -2.07372E+03 -9.58179E+02 -7.13916E+02 -1.02147E+03
 -6.18910E+02  3.44673E+02 -7.41420E+02  2.31516E+03 -2.76559E+03  1.19351E+03 -4.58135E+03 -4.50007E+02
 -2.17848E+03 -4.63371E+03  9.05955E+02 -5.43144E+03  3.29946E+03 -4.93185E+03  4.33984E+03 -1.30716E+03
  4.84198E+03  2.73808E+03  2.14453E+03  3.96945E+03 -1.08885E+03  5.28993E+03 -3.38970E+03  3.34935E+03
 -4.46018E+03  6.63689E+02 -4.05692E+03 -3.46281E+03 -3.96782E+02 -3.66721E+03  1.94184E+03 -3.18928E+03
  3.44844E+03 -1.28350E+03  2.11212E+03  4.19753E+02  5.77679E+02  1.69971E+03  7.79207E+02  7.01665E+02
  1.76211E+03  6.51018E+02  1.37971E+03  1.06654E+03  1.18032E+03  2.21732E+03  1.85103E+03  2.16459E+03
 -1.13784E+03  3.52413E+03 -2.93643E+03  4.55241E+03 -4.08254E+03  1.58228E+03 -4.96261E+03 -1.09964E+03
 -2.26963E+03 -4.54747E+03  7.69361E+02 -5.68824E+03  2.45054E+03 -3.15431E+03  4.21694E+03 -9.39954E+02
  2.83669E+03  1.75427E+03  4.45265E+02  2.70546E+03 -9.95185E+02  1.50018E+03 -1.32105E+03 -5.36226E+01
 -8.08309E+02 -1.94647E+03  1.47272E+03 -1.83107E+03  2.09044E+03 -9.63057E+02  1.91377E+03  5.67710E+02
  1.01718E+03  2.41285E+02  9.92575E+02 -1.38718E+02 -1.54634E+02  9.12369E+02  1.47454E+03  9.72016E+01
 -2.49978E+01 -2.48085E+02  1.99338E+03  6.40301E+02  6.67222E+02  2.48411E+03 -4.24019E+02  3.57488E+03
 -2.18074E+03  1.59404E+03 -2.61709E+03  4.89142E+02 -2.93912E+03 -8.61871E+02 -2.79482E+02 -1.39030E+03
  4.01815E+02 -1.59656E+03  1.03901E+03 -9.58228E+02  7.26636E+02  1.11543E+03 -8.77110E+02  1.48115E+03
 -1.82921E+03  8.10738E+02 -1.58854E+03 -1.71828E+03 -9.25804E+02 -2.46604E+03  1.16930E+02 -1.97613E+03
  8.48786E+02 -8.41193E+02  1.26453E+03  2.93499E+02  1.63311E+03  2.66704E+02  1.35559E+02  1.28680E+03
 -6.03248E+02  3.67132E+02 -1.00521E+03 -4.94790E+02  7.40434E+02 -1.23799E+03  2.10049E+03 -9.16484E+02
  1.92925E+03  2.41658E+02  3.27120E+03  1.13243E+03  1.24170E+03  2.23508E+03 -4.51423E+02  2.46139E+03
 -1.95784E+03  9.36558E+02 -1.88878E+03 -2.99361E+02 -1.12421E+03 -1.78062E+03  2.74446E+02 -9.56172E+02
  2.04018E+03 -7.05990E+02  1.04346E+03  7.07834E+02 -5.80831E+01  1.54841E+03  1.50550E+02  1.24085E+03
 -6.84092E+02  1.30794E+03 -5.51282E+02 -2.73222E+00 -1.35293E+02  2.61437E+02 -7.96458E+02  6.80767E+02
 -9.51960E+02  1.30039E+03 -2.18563E+03  6.74720E+02 -2.04466E+03 -1.00449E+02 -2.59707E+03 -1.46435E+03
 -1.62948E+03 -3.30291E+03  6.00146E+02 -3.55475E+03  1.59216E+03 -3.09898E+03  3.59709E+03 -1.27341E+03
  2.95247E+03 -1.21412E+02  1.73767E+03  2.16510E+03 -2.37658E+02  2.10051E+03 -1.01606E+03  1.46465E+03
 -1.24672E+03  5.54709E+02 -1.00456E+03 -2.88490E+02 -7.00809E+02 -7.99689E+00 -7.17407E+02 -9.33338E+00
 -1.18438E+03 -3.87478E+02 -7.43182E+02  1.37778E+02  9.84376E+01 -6.10247E+02 -2.44607E+02 -1.03711E+03
  1.46752E+03 -8.35520E+02  6.98792E+02  1.13374E+02  1.73199E+03  1.41816E+03 -3.07512E+02  1.89206E+03
 -9.42686E+02  2.41111E+03 -2.38051E+03  1.74802E+03 -2.42344E+03 -5.10653E+01 -1.69366E+03 -1.56926E+03
 -1.13824E+03 -1.92856E+03  4.68355E+01 -1.70040E+03  1.29021E+03 -8.74794E+02  1.27063E+03  1.00623E+02
  1.04852E+03  7.57040E+02  1.58581E+02  6.05121E+02 -3.00339E+02  8.86031E+00 -1.73185E+02  1.75866E+01
  6.64418E+02  5.00523E+00  5.59361E+02  5.96463E+02  1.89429E+02  7.27375E+02  2.09817E+02  7.26033E+02
 -1.01148E+03  9.75355E+02 -8.16027E+02  2.58233E+02 -7.78344E+02 -8.32817E+02 -5.81267E+01 -1.79810E+03
  5.60240E+02 -1.07495E+03  7.70479E+02  4.14308E+01  1.21836E+03 -5.51321E+02  6.76055E+02  1.00492E+03
  5.55453E+02  1.00789E+03 -2.59672E+02  8.53484E+02 -9.10918E+02  7.65787E+02 -4.93058E+02  2.09726E+01
 -7.70168E+01 -1.26879E+02 -6.51873E+02  2.03671E+02 -7.27936E+02  2.76653E+02 -1.04011E+03 -2.61368E+01
 -1.44911E+03  1.03798E+02 -2.99002E+02 -1.24220E+03  7.91377E+02 -1.84041E+03  1.20214E+03 -3.81366E+02
  1.42136E+03  7.78885E+01 -1.51006E+02  3.80409E+02 -1.89713E+02  1.37696E+03 -5.02513E+02  8.25991E+02
