 $NMID ID='MM_0lb_SNR800_12hz_g55_40.RAW', FMTDAT='(8E13.5)'
 TRAMP=1., VOLUME=1. $END
  3.09789E+05  5.35669E+01  3.37669E+05  2.51008E+05  8.46514E+04  3.38606E+05 -1.32849E+05  2.51433E+05
 -1.90446E+05  8.35838E+04 -1.12142E+05 -3.23696E+04  5.06626E+02 -5.06182E+04  5.37137E+04 -1.70297E+02
  3.56250E+04  5.28929E+04 -1.66657E+04  7.59042E+04 -6.11608E+04  6.41346E+04 -8.49881E+04  3.22503E+04
 -8.19763E+04 -1.14545E+04 -5.78378E+04 -5.19508E+04 -1.48565E+04 -7.03227E+04  2.78272E+04 -4.64170E+04
  4.07970E+04  3.85813E+03  1.64943E+04  4.82078E+04 -3.48747E+04  4.80239E+04 -6.78103E+04  7.69967E-01
 -5.41699E+04 -5.75570E+04 -6.91646E+03 -7.81532E+04  3.43306E+04 -5.61851E+04  4.89265E+04 -1.78895E+04
  4.47858E+04  1.15395E+04  3.25707E+04  2.61776E+04  1.57885E+04  3.04240E+04 -5.54241E+03  2.74868E+04
 -2.22423E+04  1.19748E+04 -1.83811E+04 -5.25981E+03  6.22835E+03 -7.32650E+03  2.25766E+04  1.31012E+04
  7.13020E+03  3.65456E+04 -3.31053E+04  3.66713E+04 -6.52601E+04  1.94816E+03 -5.82767E+04 -4.40383E+04
 -1.24904E+04 -6.45442E+04  4.06586E+04 -4.64862E+04  5.99105E+04 -2.24211E+03  3.58632E+04  3.34438E+04
 -5.90760E+03  3.80216E+04 -3.09909E+04  1.75532E+04 -3.21376E+04 -3.86602E+03 -1.81053E+04 -1.11992E+04
 -8.96135E+03 -1.41934E+04 -6.62437E+02 -1.87315E+04  8.18642E+03 -2.30621E+04  1.57995E+04 -1.26946E+04
  1.08549E+04  6.01303E+03 -9.48143E+03  1.30618E+04 -2.26133E+04 -5.56369E+03 -8.56785E+03 -3.56739E+04
  2.40251E+04 -4.49762E+04  5.05735E+04 -2.04143E+04  4.67902E+04  2.00502E+04  1.65706E+04  4.55175E+04
 -1.65478E+04  3.51535E+04 -2.65015E+04  2.16467E+03 -1.09175E+04 -2.85864E+04  2.16048E+04 -3.58147E+04
  4.32283E+04 -9.76578E+03  3.82264E+04  2.46628E+04  1.99480E+04  4.90140E+04 -8.29875E+03  5.34382E+04
 -3.33337E+04  3.64063E+04 -4.48641E+04  1.07493E+04 -4.51833E+04 -1.75628E+04 -2.48103E+04 -4.02028E+04
  7.43135E+03 -4.03555E+04  3.28637E+04 -1.61435E+04  3.09055E+04  1.10103E+04  4.47977E+03  2.02912E+04
 -1.36475E+04  9.18133E+03 -1.04798E+04 -7.71388E+03  5.78384E+03 -1.10873E+04  1.86407E+04  5.74828E+03
  1.44106E+04  2.25821E+04 -5.38368E+03  2.60000E+04 -2.31113E+04  1.28888E+04 -3.00173E+04 -3.61668E+03
 -2.33861E+04 -1.80014E+04 -1.02699E+04 -2.30331E+04  4.03113E+03 -2.30180E+04  1.77473E+04 -2.07878E+04
  2.93922E+04 -1.35169E+04  3.53648E+04  4.17258E+03  2.56836E+04  2.22886E+04  4.48449E+03  3.88042E+04
 -1.88724E+04  3.22612E+04 -2.97572E+04  1.12251E+04 -2.12534E+04 -1.00754E+04 -4.75139E+03 -1.31065E+04
  1.53388E+03 -1.91294E+03 -6.32049E+03  7.41625E+03 -1.83462E+04  4.93014E+03 -1.84419E+04 -8.19449E+03
 -1.08755E+04 -2.11510E+04  5.85901E+03 -2.54722E+04  1.72002E+04 -1.80847E+04  2.05246E+04 -1.60567E+03
  1.32632E+04  1.48612E+04 -1.15311E+03  2.09626E+04 -1.49349E+04  1.18517E+04 -2.15416E+04 -4.24717E+03
 -1.57379E+04 -1.91418E+04 -1.90086E+03 -2.53876E+04  1.14036E+04 -2.10675E+04  2.13944E+04 -1.08749E+04
  1.98038E+04  1.92542E+02  1.46170E+04  4.97760E+03  7.91371E+03  1.36624E+03  1.07200E+04 -1.87908E+03
  1.92690E+04  2.34298E+03  2.25074E+04  1.71050E+04  1.47375E+04  3.39115E+04 -2.55080E+03  3.93960E+04
 -2.27412E+04  3.22849E+04 -3.68312E+04  1.65705E+04 -3.88145E+04 -3.05225E+03 -3.22249E+04 -2.28667E+04
 -1.31315E+04 -3.23941E+04  1.12223E+04 -2.81586E+04  2.47971E+04 -1.38944E+04  2.16531E+04  6.99284E+03
  7.80438E+03  1.63526E+04 -1.06447E+04  1.40211E+04 -1.78469E+04  2.62316E+03 -1.35344E+04 -1.12745E+04
 -4.39458E+02 -1.73283E+04  9.17372E+03 -1.25429E+04  1.16517E+04 -1.16872E+03  2.84474E+03  7.56910E+03
 -7.60735E+03  3.52353E+03 -7.86886E+03 -5.96868E+03 -8.90835E+02 -1.58207E+04  1.08656E+04 -1.68719E+04
  1.96368E+04 -9.21075E+03  2.16040E+04  2.94564E+03  1.90273E+04  1.58686E+04  8.74804E+03  2.44034E+04
 -3.94921E+03  2.67259E+04 -1.69783E+04  1.63829E+04 -1.90274E+04  3.63078E+03 -1.33178E+04 -5.02423E+03
 -5.59081E+03 -6.28644E+03 -5.93283E+02  9.24013E+02 -3.03577E+03  3.31376E+03 -6.30305E+03  4.96800E+03
 -1.22847E+04 -8.22313E+02 -1.27868E+04 -1.04975E+04 -5.42409E+03 -1.68479E+04  5.36967E+03 -1.34138E+04
  1.08137E+04 -5.54108E+03  7.84911E+03  3.27465E+03  4.04018E+01  5.33436E+03 -6.35014E+03  4.93021E+01
 -6.15553E+03 -8.74504E+03 -9.80915E+02 -1.29314E+04  7.51284E+03 -1.37805E+04  1.67563E+04 -7.27525E+03
  1.98193E+04  1.76469E+03  1.43017E+04  1.15985E+04  3.12893E+03  1.55546E+04 -8.48832E+03  1.32179E+04
 -1.11036E+04  4.02502E+03 -5.48159E+03 -2.89827E+03  1.81539E+03 -3.53327E+03  6.81332E+03 -8.03204E+02
  6.30581E+03  5.63124E+03  1.22327E+03  1.06516E+04 -7.71985E+03  9.77147E+03 -1.27487E+04  2.63829E+03
 -9.02741E+03 -6.39672E+03  4.13808E+02 -1.08765E+04  7.21691E+03 -5.81193E+03  7.56026E+03  2.60502E+03
  1.36261E+03  8.00517E+03 -6.76018E+03  9.35265E+03 -1.01452E+04  4.31604E+03 -1.05087E+04 -3.92270E+03
 -6.33774E+03 -1.22170E+04  3.17473E+03 -1.44546E+04  1.18488E+04 -8.84753E+03  1.31433E+04  2.04318E+03
  8.05833E+03  1.08916E+04 -1.01798E+03  1.28899E+04 -9.35579E+03  7.31208E+03 -9.88402E+03 -1.02667E+03
 -9.06099E+03 -8.47301E+03 -1.80352E+03 -9.80115E+03  4.65560E+03 -7.70823E+03  6.07706E+03 -3.31702E+03
  4.29598E+03  1.08098E+03 -6.71834E+02  1.79733E+03  6.16142E+01 -2.23165E+03  1.61133E+03 -5.64840E+03
  8.78877E+03 -3.61236E+03  1.23569E+04  1.62147E+03  1.19604E+04  8.35747E+03  8.53395E+03  1.60428E+04
 -3.79528E+03  1.86149E+04 -1.56374E+04  1.38378E+04 -2.02108E+04  2.29996E+03 -1.62620E+04 -6.87447E+03
 -8.53992E+03 -1.27185E+04 -6.53012E+02 -1.14407E+04  4.11119E+03 -6.08112E+03  4.01639E+03 -4.15707E+03
  2.96315E+03 -2.47662E+03  3.47043E+03 -3.06514E+03  4.91278E+03 -2.60450E+03  6.44240E+03 -8.02435E+02
  8.53523E+03  1.82105E+03  4.01072E+03  7.27867E+03 -1.90624E+03  8.09856E+03 -8.91760E+03  6.50066E+03
 -1.11901E+04 -9.51433E+02 -6.91797E+03 -7.95601E+03 -7.58200E+02 -1.22456E+04  6.64718E+03 -1.19687E+04
  1.24146E+04 -6.52291E+03  1.49334E+04  1.78360E+03  1.04674E+04  1.02889E+04  1.56100E+03  1.33829E+04
 -5.15361E+03  1.11988E+04 -7.54905E+03  4.21762E+03 -4.98992E+03 -1.19289E+03 -1.67737E+03 -1.55848E+03
 -1.18181E+03  2.03925E+02 -2.33623E+03  2.63241E+03 -5.02669E+03  1.55424E+03 -8.03092E+03 -1.00492E+03
 -5.27522E+03 -7.62653E+03  2.83376E+02 -1.10682E+04  6.59356E+03 -9.86754E+03  1.01944E+04 -2.99717E+03
  1.03959E+04  5.20049E+03  4.99883E+03  9.46092E+03 -1.98044E+03  1.07605E+04 -7.55084E+03  6.45767E+03
 -9.97979E+03  6.04247E+02 -7.87530E+03 -6.52490E+03 -9.65940E+02 -9.04001E+03  4.81060E+03 -6.68292E+03
  6.79348E+03 -2.68610E+03  4.76052E+03  1.67373E+03  1.44540E+03  3.20402E+03  1.28373E+03  1.09224E+03
  2.26645E+03  7.39360E+02  2.71337E+03  1.57417E+03  3.27303E+03  4.48223E+03  2.77686E+03  5.69815E+03
 -2.37617E+03  8.08954E+03 -7.21922E+03  8.68374E+03 -1.05657E+04  2.15334E+03 -1.13483E+04 -4.18705E+03
 -5.00927E+03 -1.02936E+04  1.37276E+03 -1.17648E+04  5.89896E+03 -6.78020E+03  8.50248E+03 -1.97649E+03
  6.75072E+03  3.74387E+03  1.49625E+03  5.70479E+03 -2.94001E+03  3.75613E+03 -3.92855E+03 -4.50647E+02
 -1.67575E+03 -4.28446E+03  2.91171E+03 -4.71358E+03  4.22847E+03 -2.46262E+03  3.96536E+03  9.41246E+02
  2.52941E+03  2.14734E+03  7.78845E+02  1.50674E+03 -7.36997E+02  1.83003E+03  1.93079E+03 -5.20670E+02
  1.39244E+03 -4.77510E+02  4.36388E+03  1.88204E+03  2.27483E+03  5.69847E+03 -9.08756E+02  7.51515E+03
 -4.64967E+03  4.40007E+03 -6.25285E+03  1.58075E+03 -6.07233E+03 -2.14161E+03 -2.01719E+03 -3.87116E+03
  8.05807E+02 -4.18403E+03  2.65446E+03 -1.81884E+03  1.89762E+03  2.30416E+03 -1.19803E+03  3.36054E+03
 -3.97436E+03  2.12539E+03 -4.70891E+03 -2.48134E+03 -2.87552E+03 -5.35970E+03  8.57711E+02 -5.51214E+03
  3.00660E+03 -3.12773E+03  3.64203E+03 -4.10223E+02  3.39348E+03  1.16542E+03  3.26137E+02  2.90043E+03
 -2.05037E+03  6.94240E+02 -2.31125E+03 -1.42107E+03  1.01523E+03 -3.89408E+03  4.94652E+03 -3.49753E+03
  6.01953E+03  8.03199E+02  6.27578E+03  3.92836E+03  2.38160E+03  6.07132E+03 -2.22918E+03  6.08508E+03
 -5.39112E+03  2.55685E+03 -5.36298E+03 -6.07231E+02 -2.94157E+03 -3.94512E+03  1.19547E+03 -3.99888E+03
  3.73441E+03 -1.77650E+03  3.21571E+03  2.06088E+03  1.17703E+03  3.63720E+03 -4.87871E+01  2.89731E+03
 -1.93749E+03  2.24107E+03 -1.61837E+03  4.07752E+02 -5.53814E+02  4.99543E+02 -1.28830E+03  1.31384E+03
 -1.37566E+03  2.99873E+03 -4.53200E+03  2.05117E+03 -6.28313E+03  3.05610E+02 -7.35422E+03 -4.24691E+03
 -3.28873E+03 -8.22967E+03  1.77656E+03 -9.75852E+03  5.75159E+03 -7.70206E+03  8.88485E+03 -2.61378E+03
  8.24284E+03  1.73800E+03  4.99121E+03  5.65811E+03  4.18370E+01  6.47725E+03 -2.26004E+03  4.51206E+03
 -3.46367E+03  1.52807E+03 -2.31801E+03 -1.01713E+03 -1.32517E+03  1.52594E+02 -1.05305E+03  4.11973E+01
 -1.67655E+03  1.61387E+02 -1.61478E+03 -4.79181E+01  8.62727E+01 -1.84275E+03  1.61448E+02 -2.52244E+03
  3.14479E+03 -1.95916E+03  3.31036E+03 -1.11709E+02  4.56939E+03  3.24274E+03  8.22298E+02  6.18395E+03
 -2.93370E+03  7.17747E+03 -6.34579E+03  4.26277E+03 -7.40494E+03 -7.05864E+02 -5.33948E+03 -4.70404E+03
 -2.60808E+03 -6.15804E+03  1.77715E+03 -5.71456E+03  3.84556E+03 -3.29688E+03  3.91459E+03  2.60306E+02
  2.23189E+03  1.85870E+03 -4.00812E+02  1.61138E+03 -1.16437E+03 -5.87105E+01  8.25385E+00 -1.59586E+03
  2.04090E+03 -4.22964E+02  2.24810E+03  7.06099E+02  1.40075E+03  2.24881E+03  1.96103E+02  3.15613E+03
 -2.80546E+03  2.46272E+03 -4.09562E+03  2.72424E+02 -3.66336E+03 -2.35795E+03 -2.83722E+02 -4.62632E+03
  2.80103E+03 -4.12609E+03  4.25839E+03 -1.31189E+03  4.42344E+03  8.53277E+02  2.53692E+03  3.80929E+03
  8.21039E+02  3.82240E+03 -1.66426E+03  3.26269E+03 -2.80359E+03  1.47590E+03 -2.10371E+03  5.78784E+01
 -1.10006E+03 -2.01273E+01 -1.22808E+03  7.41034E+02 -2.14328E+03  7.85996E+02 -3.12648E+03 -8.94122E+02
 -3.27460E+03 -1.71717E+03 -9.85552E+02 -3.82914E+03  1.66409E+03 -5.09069E+03  3.32875E+03 -1.93357E+03
  3.66382E+03  6.76358E+02  1.84246E+03  2.34778E+03 -3.89147E+02  3.78982E+03 -2.49746E+03  2.86678E+03
