 $NMID ID='MM_0lb_SNR800_12hz_g50_39.RAW', FMTDAT='(8E13.5)'
 TRAMP=1., VOLUME=1. $END
  3.09602E+05  2.56869E+02  3.37549E+05  2.50766E+05  8.50453E+04  3.38027E+05 -1.32619E+05  2.51262E+05
 -1.90562E+05  8.33058E+04 -1.12043E+05 -3.26854E+04  6.47136E+02 -5.05904E+04  5.36479E+04 -5.13626E+02
  3.54768E+04  5.27036E+04 -1.65459E+04  7.56139E+04 -6.09560E+04  6.39987E+04 -8.44583E+04  3.21339E+04
 -8.13650E+04 -1.15769E+04 -5.72713E+04 -5.19353E+04 -1.49263E+04 -7.01913E+04  2.74507E+04 -4.59100E+04
  4.06046E+04  3.85346E+03  1.63825E+04  4.79892E+04 -3.46919E+04  4.76791E+04 -6.70451E+04  2.51522E+02
 -5.40446E+04 -5.74658E+04 -6.72052E+03 -7.78797E+04  3.44004E+04 -5.59211E+04  4.88567E+04 -1.79083E+04
  4.43471E+04  1.12303E+04  3.20908E+04  2.59657E+04  1.53931E+04  2.98080E+04 -5.33621E+03  2.75986E+04
 -2.22607E+04  1.16430E+04 -1.86028E+04 -5.24468E+03  6.09995E+03 -7.37347E+03  2.31827E+04  1.26325E+04
  7.44548E+03  3.61514E+04 -3.26880E+04  3.62782E+04 -6.45169E+04  2.03609E+03 -5.79555E+04 -4.34196E+04
 -1.26642E+04 -6.46506E+04  4.07527E+04 -4.60548E+04  5.96141E+04 -2.47950E+03  3.53961E+04  3.33500E+04
 -6.04646E+03  3.73390E+04 -3.06877E+04  1.70334E+04 -3.14601E+04 -3.99379E+03 -1.74361E+04 -1.11044E+04
 -8.45413E+03 -1.37386E+04 -6.33780E+02 -1.87776E+04  8.13446E+03 -2.30339E+04  1.54540E+04 -1.31458E+04
  1.10775E+04  4.98470E+03 -9.51139E+03  1.29336E+04 -2.20597E+04 -5.29881E+03 -8.70251E+03 -3.49699E+04
  2.34491E+04 -4.52162E+04  4.96968E+04 -2.02042E+04  4.64687E+04  2.01288E+04  1.60869E+04  4.53084E+04
 -1.61292E+04  3.47810E+04 -2.62178E+04  1.71619E+03 -1.05868E+04 -2.84302E+04  2.11016E+04 -3.53616E+04
  4.24401E+04 -9.85653E+03  3.76607E+04  2.46608E+04  1.93022E+04  4.85069E+04 -8.24578E+03  5.25614E+04
 -3.30442E+04  3.55600E+04 -4.43619E+04  1.02319E+04 -4.44360E+04 -1.74100E+04 -2.46040E+04 -3.96502E+04
  7.77127E+03 -3.94386E+04  3.24146E+04 -1.59342E+04  3.03892E+04  1.08561E+04  4.22394E+03  1.99543E+04
 -1.39441E+04  8.75017E+03 -1.06716E+04 -7.79696E+03  6.05471E+03 -1.08855E+04  1.80828E+04  5.79162E+03
  1.37028E+04  2.21603E+04 -5.72857E+03  2.62714E+04 -2.28325E+04  1.29344E+04 -2.95950E+04 -4.39466E+03
 -2.24305E+04 -1.76760E+04 -9.55819E+03 -2.22691E+04  4.23829E+03 -2.22722E+04  1.79137E+04 -1.97783E+04
  2.83044E+04 -1.34086E+04  3.46410E+04  3.57171E+03  2.51438E+04  2.16074E+04  3.81992E+03  3.82698E+04
 -1.80328E+04  3.19769E+04 -2.86520E+04  1.11406E+04 -2.15547E+04 -9.93463E+03 -4.50136E+03 -1.36478E+04
  1.27544E+03 -2.41963E+03 -5.94560E+03  7.46748E+03 -1.78301E+04  5.05518E+03 -1.79512E+04 -8.06731E+03
 -1.04544E+04 -2.07946E+04  5.66093E+03 -2.48653E+04  1.66539E+04 -1.82974E+04  2.01788E+04 -1.95799E+03
  1.24945E+04  1.43864E+04 -9.95945E+02  2.04637E+04 -1.44718E+04  1.16496E+04 -2.05169E+04 -4.60226E+03
 -1.52557E+04 -1.87004E+04 -1.89077E+03 -2.47649E+04  1.15614E+04 -2.04641E+04  2.08805E+04 -1.02409E+04
  1.91908E+04 -8.03659E+01  1.40474E+04  4.59126E+03  7.45421E+03  9.47662E+02  1.05691E+04 -1.94720E+03
  1.95356E+04  2.34120E+03  2.17803E+04  1.63945E+04  1.46127E+04  3.35784E+04 -2.63404E+03  3.79981E+04
 -2.18794E+04  3.07410E+04 -3.57984E+04  1.58462E+04 -3.76841E+04 -2.84145E+03 -3.08939E+04 -2.16491E+04
 -1.26732E+04 -3.14053E+04  1.12119E+04 -2.77073E+04  2.38705E+04 -1.34438E+04  2.12926E+04  6.40843E+03
  7.72079E+03  1.61070E+04 -9.91458E+03  1.38676E+04 -1.74031E+04  2.63175E+03 -1.34778E+04 -1.10248E+04
 -9.68827E+01 -1.68407E+04  8.83518E+03 -1.23904E+04  1.13088E+04 -9.91533E+02  2.58453E+03  7.38287E+03
 -7.63406E+03  3.06601E+03 -7.21793E+03 -6.03728E+03 -1.33803E+03 -1.52619E+04  1.05713E+04 -1.65500E+04
  1.92955E+04 -8.92487E+03  2.09321E+04  2.65759E+03  1.83233E+04  1.53136E+04  8.51392E+03  2.40899E+04
 -3.82505E+03  2.59168E+04 -1.63851E+04  1.61457E+04 -1.82560E+04  3.82303E+03 -1.27832E+04 -4.88148E+03
 -5.65612E+03 -5.56002E+03 -6.84366E+02  8.85766E+02 -2.32305E+03  3.04311E+03 -5.45732E+03  4.94815E+03
 -1.18212E+04 -7.98982E+02 -1.26953E+04 -1.02272E+04 -5.22129E+03 -1.64543E+04  5.25139E+03 -1.31484E+04
  1.09508E+04 -5.54836E+03  7.66767E+03  3.51102E+03 -2.87723E+02  4.92653E+03 -6.24506E+03  1.57513E+02
 -6.14458E+03 -8.31587E+03 -1.31151E+03 -1.21946E+04  7.37046E+03 -1.33847E+04  1.61491E+04 -6.90438E+03
  1.93834E+04  1.65752E+03  1.39981E+04  1.13464E+04  2.89438E+03  1.51925E+04 -8.17375E+03  1.24704E+04
 -1.06743E+04  4.26074E+03 -5.52686E+03 -2.97668E+03  2.15116E+03 -3.50467E+03  6.73431E+03 -1.09843E+03
  6.17946E+03  5.51322E+03  1.26712E+03  1.04738E+04 -7.31671E+03  1.00018E+04 -1.25187E+04  2.33996E+03
 -8.55920E+03 -6.57968E+03  1.28582E+02 -1.08713E+04  6.90429E+03 -5.41153E+03  7.14981E+03  2.49947E+03
  1.71604E+03  7.31614E+03 -6.30531E+03  9.07974E+03 -1.03760E+04  3.83338E+03 -1.00578E+04 -3.86041E+03
 -5.70626E+03 -1.20927E+04  2.75805E+03 -1.39181E+04  1.19314E+04 -8.22325E+03  1.27150E+04  2.49108E+03
  8.06823E+03  1.01088E+04 -5.75454E+02  1.22311E+04 -9.36481E+03  6.94948E+03 -9.62482E+03 -9.56556E+02
 -9.07149E+03 -8.61368E+03 -1.60211E+03 -9.38093E+03  4.76586E+03 -7.53562E+03  5.66389E+03 -3.59002E+03
  4.30544E+03  1.42398E+03 -9.45897E+02  1.78125E+03  1.88843E+01 -2.33604E+03  1.76392E+03 -5.49266E+03
  8.12006E+03 -3.09451E+03  1.15422E+04  1.11657E+03  1.15519E+04  7.75972E+03  8.03887E+03  1.56077E+04
 -3.69212E+03  1.77333E+04 -1.49695E+04  1.33756E+04 -1.91238E+04  2.79579E+03 -1.56029E+04 -6.48056E+03
 -7.50252E+03 -1.26284E+04 -1.86743E+02 -1.10488E+04  3.93287E+03 -5.51858E+03  3.68451E+03 -4.11282E+03
  2.66786E+03 -2.20222E+03  3.05485E+03 -3.05644E+03  4.99300E+03 -2.95125E+03  6.09338E+03 -4.90689E+02
  8.21403E+03  2.33226E+03  3.88869E+03  6.87046E+03 -1.89466E+03  8.07089E+03 -8.70207E+03  6.05606E+03
 -1.04747E+04 -8.47365E+02 -6.43328E+03 -7.47848E+03 -6.03637E+02 -1.14352E+04  6.59301E+03 -1.13173E+04
  1.18872E+04 -6.36828E+03  1.43203E+04  1.50833E+03  1.01088E+04  1.00048E+04  1.56113E+03  1.29928E+04
 -5.09614E+03  1.13218E+04 -7.56443E+03  3.97665E+03 -5.00204E+03 -1.59122E+03 -2.20655E+03 -1.04133E+03
 -9.49927E+02 -4.61170E+02 -1.62747E+03  2.36211E+03 -4.38209E+03  1.79634E+03 -7.43843E+03 -1.16923E+03
 -4.68840E+03 -7.64198E+03  4.02967E+02 -1.04208E+04  6.18186E+03 -9.63941E+03  1.03352E+04 -2.94451E+03
  1.00942E+04  5.00059E+03  4.74195E+03  8.91692E+03 -1.95698E+03  1.02741E+04 -7.35097E+03  6.25452E+03
 -9.80670E+03  7.31728E+02 -7.64581E+03 -6.31608E+03 -5.14701E+02 -8.23947E+03  4.51715E+03 -6.36479E+03
  6.22770E+03 -2.01535E+03  4.54130E+03  1.65877E+03  1.71537E+03  3.04877E+03  1.26980E+03  1.11093E+03
  2.16784E+03  7.53186E+02  2.62366E+03  1.61256E+03  3.08863E+03  3.70930E+03  2.90488E+03  5.17626E+03
 -2.42366E+03  7.96520E+03 -7.21839E+03  8.28951E+03 -1.03182E+04  2.30547E+03 -1.09195E+04 -3.76765E+03
 -5.39494E+03 -9.76978E+03  1.52346E+03 -1.16490E+04  6.09001E+03 -7.31162E+03  8.56530E+03 -1.66091E+03
  6.19217E+03  3.92380E+03  1.28722E+03  5.83198E+03 -2.59224E+03  3.80506E+03 -3.33074E+03 -2.85793E+02
 -1.92772E+03 -4.15793E+03  2.26929E+03 -4.32905E+03  4.35206E+03 -2.13789E+03  3.80162E+03  1.04638E+03
  2.82858E+03  1.69807E+03  1.44820E+03  1.35893E+03 -8.34999E+02  1.60060E+03  1.45134E+03 -5.09409E+02
  1.36618E+03 -6.23477E+02  3.97512E+03  1.52972E+03  2.02373E+03  5.26734E+03 -1.18664E+03  7.15415E+03
 -4.90822E+03  4.46631E+03 -6.41750E+03  1.50396E+03 -5.74423E+03 -2.64776E+03 -1.97823E+03 -3.51583E+03
  6.17912E+02 -3.78213E+03  2.70104E+03 -1.70194E+03  2.03286E+03  2.08930E+03 -1.27090E+03  2.97094E+03
 -4.06394E+03  1.93668E+03 -4.42836E+03 -2.46485E+03 -2.37260E+03 -5.64557E+03  1.02417E+03 -5.52049E+03
  2.68694E+03 -3.19678E+03  3.69081E+03 -7.85094E+01  3.45224E+03  1.28977E+03  4.83206E+02  2.89488E+03
 -1.70717E+03  1.04398E+03 -2.52638E+03 -1.88148E+03  1.36061E+03 -3.83311E+03  4.74859E+03 -3.31959E+03
  6.01102E+03  1.34435E+02  6.60007E+03  3.91996E+03  1.89289E+03  6.00767E+03 -1.88831E+03  6.05150E+03
 -5.05369E+03  2.31812E+03 -5.37643E+03 -7.59317E+02 -3.08239E+03 -4.08135E+03  7.19341E+02 -3.78572E+03
  3.56119E+03 -2.15487E+03  3.08185E+03  1.62542E+03  1.11724E+03  3.48532E+03 -3.83232E+02  3.01030E+03
 -1.69578E+03  2.10858E+03 -1.20174E+03  6.57583E+02 -8.91248E+02  7.73453E+02 -1.01785E+03  1.33760E+03
 -1.65312E+03  2.52122E+03 -4.56323E+03  2.02374E+03 -6.10057E+03  2.67647E+02 -6.96855E+03 -4.07604E+03
 -3.58653E+03 -8.07684E+03  1.62968E+03 -9.20479E+03  5.26736E+03 -7.49466E+03  8.73608E+03 -2.72311E+03
  8.08955E+03  1.47248E+03  5.51552E+03  5.72982E+03 -2.19251E+01  6.28087E+03 -2.40741E+03  4.46130E+03
 -3.22743E+03  1.61458E+03 -2.20308E+03 -6.29222E+02 -7.91300E+02 -4.77519E+02 -8.91616E+02  2.80375E+02
 -1.54807E+03 -2.07467E+01 -1.56746E+03 -4.71554E+02 -3.47475E+02 -1.41717E+03  8.85871E+00 -2.14676E+03
  2.96360E+03 -1.90151E+03  3.49714E+03  1.88155E+02  4.36137E+03  3.13218E+03  1.00869E+03  5.73485E+03
 -2.94402E+03  6.79979E+03 -6.19995E+03  4.61627E+03 -7.34347E+03 -8.34335E+02 -5.35159E+03 -4.53878E+03
 -2.42910E+03 -5.70526E+03  1.35119E+03 -5.39843E+03  3.82278E+03 -3.10667E+03  3.73980E+03  2.16025E+02
  2.11042E+03  1.83526E+03 -3.01189E+02  1.47313E+03 -1.63872E+03 -4.33205E+02  5.66011E+01 -1.57246E+03
  1.95680E+03 -4.50418E+02  2.02907E+03  6.60033E+02  1.51601E+03  2.04698E+03 -1.63218E+02  2.82294E+03
 -2.63266E+03  2.59864E+03 -3.74630E+03 -9.20138E+01 -4.00298E+03 -2.40670E+03 -5.57200E+02 -4.81650E+03
  2.80018E+03 -4.27209E+03  4.37152E+03 -1.14418E+03  4.43106E+03  4.22044E+02  2.22561E+03  3.20117E+03
  6.86908E+02  3.55034E+03 -1.51260E+03  3.14477E+03 -2.61615E+03  1.66199E+03 -2.25207E+03  5.57347E+02
 -8.83282E+02  1.25220E+02 -1.09188E+03  3.95322E+02 -2.26728E+03  4.88152E+02 -2.99724E+03 -9.15825E+02
 -2.76222E+03 -1.70295E+03 -9.31799E+02 -3.89126E+03  1.58942E+03 -4.42033E+03  3.40799E+03 -1.69819E+03
  3.40943E+03  3.91132E+02  1.61182E+03  2.33560E+03 -4.33927E+02  3.83465E+03 -2.78544E+03  2.44925E+03
