 $NMID ID='MM_0lb_SNR800_20hz_g40_86.RAW', FMTDAT='(8E13.5)'
 TRAMP=1., VOLUME=1. $END
  3.09590E+05  1.52254E+02  3.37260E+05  2.50270E+05  8.41682E+04  3.37189E+05 -1.32560E+05  2.49744E+05
 -1.89193E+05  8.16874E+04 -1.10352E+05 -3.29183E+04  1.90286E+03 -5.01338E+04  5.40203E+04  5.09306E+02
  3.50202E+04  5.25175E+04 -1.71637E+04  7.46097E+04 -6.00089E+04  6.21273E+04 -8.25128E+04  3.11364E+04
 -7.89329E+04 -1.10361E+04 -5.54191E+04 -4.96120E+04 -1.50729E+04 -6.74509E+04  2.65078E+04 -4.43334E+04
  3.87626E+04  4.15897E+03  1.54316E+04  4.68455E+04 -3.36779E+04  4.60259E+04 -6.48030E+04 -6.30188E+02
 -5.10620E+04 -5.54220E+04 -5.69776E+03 -7.41552E+04  3.28888E+04 -5.21912E+04  4.52725E+04 -1.56225E+04
  4.06445E+04  1.11674E+04  3.02843E+04  2.39180E+04  1.59528E+04  2.75294E+04 -4.21570E+03  2.65392E+04
 -2.14080E+04  1.30416E+04 -1.96711E+04 -4.06026E+03  3.48085E+03 -7.56836E+03  2.06160E+04  1.00711E+04
  7.69192E+03  3.22596E+04 -2.94726E+04  3.31207E+04 -5.96314E+04  2.51747E+03 -5.46600E+04 -4.03512E+04
 -1.26540E+04 -5.95835E+04  3.72686E+04 -4.23952E+04  5.42048E+04 -1.98746E+03  3.07156E+04  2.93770E+04
 -6.57080E+03  3.15636E+04 -2.73939E+04  1.20180E+04 -2.62801E+04 -5.87200E+03 -1.31737E+04 -9.69443E+03
 -6.78137E+03 -1.04949E+04 -1.30389E+03 -1.57233E+04  6.10591E+03 -2.21921E+04  1.46498E+04 -1.43122E+04
  1.27497E+04  3.57839E+03 -5.54809E+03  1.31008E+04 -1.84405E+04 -1.53364E+03 -7.88380E+03 -2.88255E+04
  1.99263E+04 -3.88614E+04  4.28444E+04 -1.80471E+04  4.05104E+04  1.78794E+04  1.33168E+04  4.05456E+04
 -1.49144E+04  2.98101E+04 -2.26590E+04  6.64270E+02 -7.40805E+03 -2.55889E+04  2.01960E+04 -2.97603E+04
  3.66186E+04 -6.57132E+03  2.96841E+04  2.21052E+04  1.41007E+04  4.03670E+04 -7.67044E+03  4.26687E+04
 -2.69500E+04  2.78854E+04 -3.51016E+04  7.80792E+03 -3.61531E+04 -1.46175E+04 -2.00655E+04 -3.26709E+04
  6.85800E+03 -3.26005E+04  2.80571E+04 -1.17209E+04  2.58704E+04  1.08311E+04  2.72542E+03  1.71873E+04
 -1.30130E+04  6.75707E+03 -9.32805E+03 -7.71914E+03  6.02547E+03 -9.91303E+03  1.68312E+04  6.53698E+03
  1.18098E+04  2.11428E+04 -7.01778E+03  2.25035E+04 -2.12262E+04  8.12777E+03 -2.37641E+04 -7.18910E+03
 -1.48864E+04 -1.60701E+04 -4.38344E+03 -1.49364E+04  3.70146E+03 -1.23573E+04  1.09846E+04 -1.26002E+04
  1.90150E+04 -1.12912E+04  2.60116E+04  4.16403E+02  1.99780E+04  1.49479E+04  3.81577E+03  3.06194E+04
 -1.50145E+04  2.62228E+04 -2.49590E+04  9.14583E+03 -1.92091E+04 -1.05002E+04 -3.87275E+03 -1.42871E+04
  2.81551E+03 -4.59787E+03 -1.66842E+03  4.69610E+03 -1.17520E+04  5.28015E+03 -1.20288E+04 -3.85151E+03
 -7.70519E+03 -1.40542E+04  4.19734E+03 -1.80199E+04  1.14424E+04 -1.26333E+04  1.29920E+04 -1.46645E+03
  8.09123E+03  9.76475E+03 -6.96496E+02  1.43257E+04 -9.27310E+03  7.93964E+03 -1.38467E+04 -2.88824E+03
 -1.02954E+04 -1.29568E+04 -1.08271E+03 -1.75236E+04  7.95296E+03 -1.38777E+04  1.48384E+04 -6.38327E+03
  1.33183E+04  9.57666E+02  9.79990E+03  3.28232E+03  4.53242E+03  4.35620E+02  6.85438E+03 -9.65055E+02
  1.24904E+04  2.78665E+03  1.27613E+04  1.18957E+04  7.62014E+03  2.24442E+04 -3.33515E+03  2.33693E+04
 -1.41340E+04  1.71639E+04 -2.13419E+04  8.06290E+03 -2.14683E+04 -1.47872E+03 -1.89784E+04 -1.22256E+04
 -9.50462E+03 -1.73578E+04  5.70577E+03 -1.69717E+04  1.47025E+04 -1.00283E+04  1.44842E+04  2.90449E+03
  6.27180E+03  9.63181E+03 -6.32954E+03  9.58941E+03 -1.24357E+04  2.55495E+03 -9.54612E+03 -7.18390E+03
  2.42788E+01 -1.10015E+04  5.51006E+03 -8.53056E+03  6.91848E+03 -1.25913E+03  1.27815E+03  4.15395E+03
 -4.79827E+03  9.46420E+02 -2.60128E+03 -4.35419E+03  1.01086E+03 -9.02005E+03  7.42983E+03 -8.78668E+03
  1.06100E+04 -3.59507E+03  9.85932E+03  2.40678E+03  8.48337E+03  8.19162E+03  4.11146E+03  1.16742E+04
 -1.19047E+03  1.37325E+04 -7.93028E+03  8.86917E+03 -9.46289E+03  2.88714E+03 -7.66664E+03 -1.27038E+03
 -4.15822E+03 -2.82848E+03 -6.46744E+02  1.51729E+03 -1.60412E+03  1.62071E+03 -2.86666E+03  3.40449E+03
 -7.11243E+03 -2.79931E+02 -8.10357E+03 -6.46158E+03 -3.27883E+03 -1.03377E+04  3.08607E+03 -7.52703E+03
  6.38966E+03 -3.52193E+03  4.65391E+03  1.91417E+03  6.81740E+02  2.53496E+03 -2.88517E+03 -1.52573E+02
 -2.59357E+03 -4.64080E+03 -5.68784E+02 -5.92936E+03  3.57886E+03 -6.90211E+03  8.23504E+03 -3.20405E+03
  1.00996E+04  2.93171E+02  7.71568E+03  4.98886E+03  1.55923E+03  7.47815E+03 -4.51810E+03  7.06535E+03
 -6.30954E+03  2.69853E+03 -3.11694E+03 -9.94461E+02  8.83770E+02 -1.53024E+03  4.42448E+03 -1.00288E+03
  3.61154E+03  2.65999E+03  9.97911E+02  5.54537E+03 -3.94535E+03  5.65990E+03 -6.93899E+03  1.58155E+03
 -3.83482E+03 -2.97274E+03  2.40785E+02 -6.04183E+03  3.11348E+03 -2.75206E+03  3.02961E+03  4.15164E+02
  1.95863E+01  2.53398E+03 -3.67463E+03  3.69832E+03 -3.56730E+03  2.11178E+03 -3.20242E+03 -5.87993E+02
 -2.40182E+03 -4.61405E+03  9.49973E+02 -5.76392E+03  4.84400E+03 -3.85721E+03  5.22394E+03  7.38779E+02
  4.02345E+03  4.38390E+03  1.53610E+02  6.29375E+03 -4.33988E+03  3.49339E+03 -4.45595E+03 -9.06373E+00
 -5.26130E+03 -4.58906E+03 -1.38501E+03 -4.24254E+03  1.91738E+03 -3.87158E+03  2.36710E+03 -2.84143E+03
  2.61494E+03 -1.22412E+02  1.32133E+02  1.27179E+03  6.60744E+02  3.19370E+02 -2.20373E+02 -1.31605E+03
  3.16579E+03 -3.09903E+02  4.05152E+03  5.55074E+02  4.21509E+03  2.09764E+03  4.72887E+03  5.50642E+03
 -8.00888E+02  6.72568E+03 -5.96256E+03  5.25316E+03 -8.29043E+03  8.74008E+02 -5.96844E+03 -1.79356E+03
 -3.34861E+03 -5.16604E+03 -4.14817E+02 -4.37830E+03  1.99577E+03 -1.90245E+03  1.26727E+03 -2.05820E+03
  1.16583E+03 -1.29840E+03  1.88220E+03 -2.00089E+03  3.51763E+03 -9.35248E+02  3.30159E+03  4.99416E+02
  3.65724E+03  1.11951E+03  5.99352E+02  2.72085E+03 -1.45101E+03  2.11075E+03 -3.95411E+03  2.00594E+03
 -4.04163E+03 -1.02038E+03 -9.48757E+02 -2.58745E+03  7.78814E+02 -3.54147E+03  2.59305E+03 -4.00468E+03
  4.20986E+03 -2.58116E+03  5.32464E+03  1.64288E+02  3.91495E+03  3.25539E+03  1.03762E+03  4.79449E+03
 -1.75245E+03  4.91003E+03 -2.66967E+03  1.56571E+03 -1.38668E+03 -7.73746E+02 -4.49519E+02 -4.44770E+02
 -4.21712E+02  3.84640E+02 -7.89191E+02  1.58191E+03 -2.39380E+03  8.05190E+02 -3.48748E+03 -3.15039E+02
 -1.04557E+03 -3.48663E+03  1.07138E+03 -3.74746E+03  2.14772E+03 -3.28519E+03  2.76954E+03 -9.14927E+02
  3.24521E+03  1.84042E+03  1.38409E+03  2.39518E+03 -6.26894E+02  3.53284E+03 -1.99226E+03  1.87736E+03
 -2.59903E+03  7.87692E+02 -2.84933E+03 -1.84200E+03 -1.31362E+01 -2.48120E+03  1.03518E+03 -1.92688E+03
  2.19276E+03 -1.00981E+03  1.38083E+03  1.88175E+02  4.75286E+02  1.52009E+03  6.76302E+02  3.86078E+02
  1.65297E+03  5.68640E+02  8.28340E+02  1.13700E+03  8.66326E+02  2.05850E+03  1.05477E+03  1.12682E+03
 -9.92073E+02  2.28428E+03 -2.03580E+03  3.54318E+03 -1.80416E+03  8.95001E+02 -3.23650E+03  9.68636E+01
 -1.41895E+03 -2.73347E+03  5.90252E+02 -3.51750E+03  1.27218E+03 -1.81121E+03  2.38033E+03 -7.40158E+02
  1.80292E+03  1.56168E+03  4.94582E+02  1.64208E+03 -4.14042E+02  8.78741E+02 -4.79195E+02 -9.65072E+01
 -1.56575E+02 -1.21999E+03  1.34982E+03 -1.05981E+03  1.09824E+03 -8.28492E+02  9.75039E+02  4.52491E+02
  5.37768E+02  2.43914E+01  7.67023E+02 -5.02787E+02 -2.34388E+01  5.99890E+02  1.68801E+03 -4.84724E+01
  7.80371E+00  6.19601E+01  1.43802E+03  3.63822E+02  1.23939E+02  2.16008E+03 -3.27839E+02  2.13093E+03
 -1.35682E+03  6.26582E+02 -1.51994E+03 -1.30513E+01 -1.65271E+03 -4.41816E+02  5.70258E+01 -5.77329E+02
  3.19748E+02 -8.06302E+02  7.54672E+02 -6.75501E+02  6.64795E+02  1.13213E+03 -7.66280E+02  8.05575E+02
 -1.15668E+03  3.45120E+02 -8.03539E+02 -1.08992E+03 -6.58923E+02 -1.77829E+03 -2.80247E+01 -1.01362E+03
  1.72983E+02 -4.95947E+02  5.76901E+02  2.78521E+02  1.01608E+03 -2.75075E+02  3.54519E+02  8.15713E+02
 -2.93144E+02 -4.79437E+00 -6.11798E+02  5.85025E+00  5.07839E+02 -3.09837E+02  1.50132E+03 -7.14192E+02
  6.79321E+02  1.64050E+02  2.39812E+03  2.19067E+02  8.22900E+02  1.04904E+03 -1.26322E+02  1.41612E+03
 -1.08477E+03 -2.16305E+02 -1.23398E+03 -8.56396E+01 -5.09007E+02 -1.03378E+03 -1.48531E+02 -1.13948E+02
  1.24027E+03 -4.89113E+02  4.48053E+02  9.38614E+02  1.26267E+02  8.64558E+02  4.20551E+02  8.32125E+02
 -2.05146E+02  9.51417E+02 -3.77447E+02  2.29436E+02  6.84519E+01  2.13096E+02 -8.19849E+02  5.44823E+02
 -4.69847E+02  7.78198E+02 -1.37150E+03  1.66943E+02 -1.29223E+03  2.43034E+01 -1.89207E+03 -7.64379E+02
 -8.40966E+02 -1.81226E+03  5.38889E+02 -1.94551E+03  6.89277E+02 -1.82365E+03  2.25186E+03 -9.07335E+02
  1.64668E+03 -2.05804E+02  7.54642E+02  1.15455E+03 -4.14416E+02  9.30463E+02 -3.40548E+02  1.16207E+03
 -4.79823E+02  5.84938E+02 -3.21700E+02 -1.53197E+02 -4.63663E+02  3.87376E+02 -8.07402E+02  6.84292E+01
 -1.11806E+03 -1.73999E+02 -6.06775E+02  4.86449E+01  4.09237E+02 -3.31575E+02 -1.56612E+02 -5.83236E+02
  1.16159E+03 -5.63223E+02  1.49864E+02  3.90453E+02  6.14007E+02  9.67202E+02 -5.79592E+02  9.94763E+02
 -5.87594E+02  1.68641E+03 -1.17454E+03  9.75107E+02 -1.22591E+03 -1.63446E+02 -9.87002E+02 -1.20487E+03
 -6.61253E+02 -8.97247E+02  2.01135E+02 -7.78963E+02  5.18218E+02 -3.76511E+02  9.45880E+01  2.22031E+02
  4.12136E+02  2.34632E+02  2.90967E+02  3.14041E+02 -5.43946E+02 -3.02992E+02 -8.10298E+00  7.05301E+00
  3.32351E+02  1.53690E+02  7.63048E+01  2.88679E+02  2.75796E+02  8.45315E+01  5.95086E+02 -1.42506E+02
 -3.50899E+02  2.25184E+02 -5.78778E+02  1.48781E+02 -5.55092E+02 -3.25656E+02  6.72731E+01 -8.00416E+02
  1.91863E+02 -5.03355E+02  1.78003E+02  1.82822E+02  8.23100E+02 -7.91400E+02  3.78173E+01  5.32194E+02
  4.23522E+02  4.60169E+02  3.39239E+01  2.62841E+02 -1.68328E+02  5.91431E+02 -3.54431E+02  2.49704E+02
  4.36336E+01 -2.35473E+02 -3.20037E+02  1.93754E+02 -4.29430E+02  1.17689E+02 -7.91607E+02 -2.86991E+02
 -6.41672E+02  5.28320E+02 -1.73370E+02 -4.94464E+02  5.11886E+02 -1.45703E+03  6.11534E+02 -2.99896E+02
  5.61640E+02 -3.15961E+00 -3.38645E+02 -5.19998E+01 -9.15064E+00  6.73861E+02 -3.89837E+02  3.80063E+02
