 $NMID ID='MM_0lb_SNR800_7hz_g55_42.RAW', FMTDAT='(8E13.5)'
 TRAMP=1., VOLUME=1. $END
  3.09889E+05  3.16547E+02  3.38402E+05  2.50789E+05  8.48531E+04  3.39001E+05 -1.33283E+05  2.52519E+05
 -1.91292E+05  8.39182E+04 -1.12744E+05 -3.25982E+04  2.15727E+02 -5.08153E+04  5.35586E+04 -7.30738E+02
  3.58423E+04  5.27072E+04 -1.67806E+04  7.62326E+04 -6.15002E+04  6.46271E+04 -8.61113E+04  3.27885E+04
 -8.33386E+04 -1.17820E+04 -5.87908E+04 -5.31735E+04 -1.55251E+04 -7.20506E+04  2.86676E+04 -4.73345E+04
  4.16437E+04  3.06065E+03  1.74627E+04  4.88793E+04 -3.46884E+04  4.83472E+04 -6.90469E+04  1.42374E+02
 -5.60225E+04 -5.81657E+04 -7.66402E+03 -7.98199E+04  3.51372E+04 -5.76901E+04  5.00975E+04 -1.88878E+04
  4.61304E+04  1.13878E+04  3.40982E+04  2.71048E+04  1.61281E+04  3.12982E+04 -6.45788E+03  2.81232E+04
 -2.26566E+04  1.18076E+04 -1.75300E+04 -6.06829E+03  7.91229E+03 -7.49680E+03  2.42023E+04  1.46536E+04
  7.42590E+03  3.84118E+04 -3.49013E+04  3.75273E+04 -6.71460E+04  1.73091E+03 -5.98246E+04 -4.53067E+04
 -1.24958E+04 -6.72874E+04  4.24113E+04 -4.84946E+04  6.24724E+04 -2.96753E+03  3.84231E+04  3.52465E+04
 -5.12563E+03  4.09621E+04 -3.30939E+04  2.04466E+04 -3.50724E+04 -3.00088E+03 -2.06736E+04 -1.24052E+04
 -1.00277E+04 -1.61563E+04 -1.41806E+02 -2.04164E+04  9.09729E+03 -2.35318E+04  1.59248E+04 -1.24672E+04
  9.79137E+03  6.45198E+03 -1.14405E+04  1.28523E+04 -2.48411E+04 -8.12838E+03 -8.98522E+03 -3.89599E+04
  2.60931E+04 -4.88078E+04  5.37412E+04 -2.15584E+04  5.00619E+04  2.16251E+04  1.82472E+04  4.88519E+04
 -1.68121E+04  3.79346E+04 -2.86249E+04  2.73987E+03 -1.25629E+04 -3.01681E+04  2.13158E+04 -3.85139E+04
  4.63634E+04 -1.23218E+04  4.28914E+04  2.56429E+04  2.29247E+04  5.34622E+04 -8.97460E+03  5.89182E+04
 -3.76295E+04  4.07318E+04 -5.03815E+04  1.13769E+04 -5.01292E+04 -1.93416E+04 -2.73109E+04 -4.40033E+04
  8.18043E+03 -4.46044E+04  3.60004E+04 -1.83639E+04  3.36641E+04  1.12684E+04  5.70467E+03  2.14994E+04
 -1.37053E+04  1.00740E+04 -1.15968E+04 -7.21095E+03  5.58048E+03 -1.20832E+04  1.92071E+04  5.54096E+03
  1.58572E+04  2.30200E+04 -4.69314E+03  2.79637E+04 -2.45298E+04  1.57515E+04 -3.31906E+04 -1.83723E+03
 -2.77879E+04 -1.92258E+04 -1.31044E+04 -2.75320E+04  4.22767E+03 -2.90154E+04  2.17814E+04 -2.57860E+04
  3.52068E+04 -1.47020E+04  4.10880E+04  6.13544E+03  2.88310E+04  2.63190E+04  4.11647E+03  4.38734E+04
 -2.11845E+04  3.57889E+04 -3.18319E+04  1.25148E+04 -2.31445E+04 -1.03810E+04 -5.51976E+03 -1.24858E+04
  3.92830E+02 -2.68696E+02 -9.00261E+03  9.61227E+03 -2.25758E+04  5.99881E+03 -2.18489E+04 -1.06376E+04
 -1.28996E+04 -2.56663E+04  6.84089E+03 -3.01650E+04  2.08667E+04 -2.18322E+04  2.48886E+04 -1.96854E+03
  1.59320E+04  1.75456E+04 -1.60407E+03  2.53692E+04 -1.81871E+04  1.48517E+04 -2.59089E+04 -5.07056E+03
 -1.93224E+04 -2.32315E+04 -2.58328E+03 -3.05783E+04  1.38426E+04 -2.59377E+04  2.50415E+04 -1.33963E+04
  2.41042E+04  3.71110E+01  1.74169E+04  5.48435E+03  9.45304E+03  1.33332E+03  1.40571E+04 -2.32897E+03
  2.48563E+04  2.98602E+03  2.84454E+04  1.95219E+04  2.03180E+04  4.11380E+04 -2.38739E+03  4.95353E+04
 -2.82716E+04  4.21069E+04 -4.70345E+04  2.20343E+04 -5.06355E+04 -3.63312E+03 -4.07370E+04 -2.96218E+04
 -1.55135E+04 -4.24134E+04  1.59559E+04 -3.67027E+04  3.10695E+04 -1.70371E+04  2.69124E+04  9.42051E+03
  9.23057E+03  2.12605E+04 -1.36088E+04  1.73429E+04 -2.26465E+04  2.23729E+03 -1.68232E+04 -1.47168E+04
 -6.45271E+02 -2.15490E+04  1.14837E+04 -1.58008E+04  1.48057E+04 -1.29178E+03  4.32806E+03  9.89861E+03
 -9.53980E+03  5.26206E+03 -1.10058E+04 -7.68845E+03 -3.15481E+03 -2.06787E+04  1.30749E+04 -2.28278E+04
  2.67515E+04 -1.30330E+04  3.08999E+04  3.95965E+03  2.73136E+04  2.12585E+04  1.23147E+04  3.40458E+04
 -6.76016E+03  3.60466E+04 -2.39070E+04  2.21052E+04 -2.67798E+04  4.56338E+03 -1.73548E+04 -6.50941E+03
 -6.85023E+03 -8.53223E+03 -7.50132E+02  3.21312E+02 -3.70579E+03  3.95371E+03 -8.41198E+03  5.77219E+03
 -1.64918E+04 -1.19838E+03 -1.65895E+04 -1.34237E+04 -6.70331E+03 -2.18889E+04  6.82653E+03 -1.84025E+04
  1.51112E+04 -7.82395E+03  1.03212E+04  4.80761E+03 -8.86978E+02  7.40687E+03 -9.61662E+03 -1.12654E+02
 -9.04630E+03 -1.17859E+04 -1.27458E+03 -1.84520E+04  1.08756E+04 -1.92815E+04  2.37376E+04 -1.07688E+04
  2.75045E+04  3.18389E+03  1.99023E+04  1.67253E+04  3.47159E+03  2.23708E+04 -1.13910E+04  1.77631E+04
 -1.42070E+04  4.68958E+03 -7.52848E+03 -4.18530E+03  2.70159E+03 -5.48480E+03  9.43763E+03 -6.82001E+02
  8.31537E+03  8.43684E+03  1.34922E+03  1.46999E+04 -1.03729E+04  1.42369E+04 -1.80585E+04  3.35511E+03
 -1.29930E+04 -9.94599E+03  5.43411E+01 -1.58947E+04  1.05626E+04 -7.96509E+03  1.12146E+04  4.19300E+03
  3.03249E+03  1.28564E+04 -9.59949E+03  1.37788E+04 -1.68549E+04  5.84082E+03 -1.74880E+04 -6.66956E+03
 -9.60931E+03 -1.96102E+04  4.80470E+03 -2.22584E+04  1.89174E+04 -1.29984E+04  2.03834E+04  3.75194E+03
  1.18459E+04  1.65133E+04 -2.62090E+03  1.89948E+04 -1.41471E+04  1.08095E+04 -1.52671E+04 -1.87694E+03
 -1.26865E+04 -1.25625E+04 -2.31642E+03 -1.45711E+04  8.10415E+03 -1.09309E+04  9.72915E+03 -3.95485E+03
  6.19006E+03  3.55249E+03 -1.35659E+03  2.02209E+03 -1.87460E+03 -4.66577E+03  3.58550E+03 -9.50883E+03
  1.47897E+04 -6.48522E+03  2.03136E+04  2.17116E+03  1.95522E+04  1.41870E+04  1.24750E+04  2.60965E+04
 -6.46593E+03  2.99218E+04 -2.45927E+04  2.19988E+04 -3.19872E+04  4.56056E+03 -2.57261E+04 -1.16131E+04
 -1.30104E+04 -2.09926E+04 -7.19692E+02 -1.82389E+04  6.85101E+03 -1.09967E+04  7.17200E+03 -7.11563E+03
  5.35926E+03 -3.95248E+03  4.63308E+03 -4.23219E+03  7.02046E+03 -4.23679E+03  9.62031E+03 -2.19853E+03
  1.34147E+04  2.89473E+03  7.85869E+03  1.10935E+04 -2.93019E+03  1.43664E+04 -1.43774E+04  1.09412E+04
 -1.86656E+04 -1.21805E+03 -1.20616E+04 -1.30966E+04 -1.80510E+03 -1.98532E+04  1.11971E+04 -2.04986E+04
  2.14996E+04 -1.11043E+04  2.46664E+04  4.04073E+03  1.68412E+04  1.78883E+04  2.83516E+03  2.27837E+04
 -9.84902E+03  1.81119E+04 -1.35139E+04  6.14472E+03 -8.87343E+03 -1.93319E+03 -4.17851E+03 -2.65151E+03
 -1.82710E+03 -1.11968E+03 -2.91900E+03  3.51127E+03 -7.51526E+03  3.05999E+03 -1.24635E+04 -1.69947E+03
 -9.64970E+03 -1.27757E+04 -6.75943E+02 -1.86344E+04  1.16251E+04 -1.72481E+04  1.95135E+04 -4.86275E+03
  1.90990E+04  9.35895E+03  8.84905E+03  1.71855E+04 -4.20231E+03  1.91244E+04 -1.43692E+04  1.20258E+04
 -1.83516E+04  7.08303E+02 -1.41534E+04 -1.21068E+04 -1.25866E+03 -1.60188E+04  8.56380E+03 -1.16478E+04
  1.19649E+04 -3.66973E+03  8.52983E+03  3.11669E+03  3.09263E+03  5.69751E+03  1.74356E+03  2.74549E+03
  3.34856E+03  1.20229E+03  4.71041E+03  2.68023E+03  5.96608E+03  6.66210E+03  4.96985E+03  1.10102E+04
 -4.03389E+03  1.59194E+04 -1.40900E+04  1.49687E+04 -2.12328E+04  4.24101E+03 -2.13628E+04 -9.38079E+03
 -1.03081E+04 -2.00953E+04  2.89635E+03 -2.19373E+04  1.29514E+04 -1.39617E+04  1.64417E+04 -3.53154E+03
  1.29074E+04  7.43358E+03  2.88670E+03  1.12144E+04 -6.46423E+03  7.69479E+03 -8.33788E+03 -1.30066E+03
 -4.44769E+03 -8.63662E+03  4.10796E+03 -8.69676E+03  9.04219E+03 -4.01340E+03  8.30060E+03  2.05516E+03
  4.71150E+03  4.59606E+03  1.73478E+03  3.99459E+03 -4.12785E+02  2.82738E+03  1.68892E+03 -9.94711E+02
  3.37570E+03 -1.13082E+03  8.33712E+03  3.23231E+03  5.14396E+03  1.07298E+04 -1.66536E+03  1.45199E+04
 -9.99931E+03  9.40213E+03 -1.33474E+04  2.59588E+03 -1.18672E+04 -5.08567E+03 -5.30180E+03 -8.22229E+03
  1.28983E+03 -8.27634E+03  4.78949E+03 -3.74020E+03  4.33834E+03  3.84812E+03 -1.88744E+03  6.31569E+03
 -8.63842E+03  3.97094E+03 -1.02780E+04 -4.49396E+03 -5.47691E+03 -1.08181E+04  1.57162E+03 -1.18046E+04
  6.87482E+03 -7.57325E+03  8.92369E+03 -8.29842E+02  6.58742E+03  2.86463E+03  1.21488E+03  6.07171E+03
 -4.74220E+03  1.76249E+03 -4.79902E+03 -4.51220E+03  1.97471E+03 -9.45414E+03  1.08642E+04 -7.89085E+03
  1.41614E+04  1.70539E+03  1.25993E+04  9.44696E+03  3.51401E+03  1.44327E+04 -5.19184E+03  1.37319E+04
 -1.14659E+04  6.22567E+03 -1.24173E+04 -1.71315E+03 -6.42602E+03 -8.84558E+03  2.42281E+03 -9.01664E+03
  8.06383E+03 -4.58911E+03  7.45749E+03  3.65990E+03  2.97322E+03  7.48769E+03 -1.47424E+03  6.99091E+03
 -3.57557E+03  4.12294E+03 -3.62228E+03  1.17823E+03 -1.38524E+03  1.33559E+03 -2.00905E+03  2.68642E+03
 -3.45222E+03  5.47194E+03 -9.51781E+03  4.17629E+03 -1.47051E+04  5.33012E+02 -1.55589E+04 -9.97835E+03
 -8.62985E+03 -1.93008E+04  3.63945E+03 -2.20673E+04  1.40978E+04 -1.71606E+04  2.08690E+04 -6.77354E+03
  1.99730E+04  3.83497E+03  1.23446E+04  1.37148E+04  1.69671E+03  1.50213E+04 -5.29529E+03  1.13486E+04
 -8.52547E+03  4.08119E+03 -5.74662E+03 -1.64544E+03 -1.40504E+03 -1.74005E+03 -4.04303E+02 -4.60397E+02
 -1.99804E+03  3.06047E+02 -3.30358E+03 -1.05050E+03 -1.52231E+03 -3.44432E+03  7.04442E+02 -5.29562E+03
  6.22872E+03 -4.90603E+03  9.18976E+03 -1.15194E+02  1.04698E+04  8.04440E+03  3.47631E+03  1.54771E+04
 -7.50560E+03  1.70906E+04 -1.64350E+04  9.93220E+03 -1.88788E+04 -1.51768E+03 -1.45180E+04 -1.17075E+04
 -5.93053E+03 -1.66919E+04  4.24947E+03 -1.46144E+04  1.02361E+04 -8.14481E+03  1.05919E+04  8.07022E+02
  5.57062E+03  5.40662E+03 -4.19539E+02  4.83658E+03 -3.23505E+03 -8.53649E+02  1.96931E+02 -4.10999E+03
  4.69483E+03 -2.59833E+03  6.48785E+03  1.74472E+03  4.26109E+03  6.25512E+03 -2.41066E+02  8.33770E+03
 -6.86404E+03  7.17361E+03 -1.11566E+04  1.06793E+03 -9.83409E+03 -7.66468E+03 -1.65902E+03 -1.38467E+04
  7.56867E+03 -1.18691E+04  1.26449E+04 -3.98014E+03  1.27627E+04  3.80605E+03  7.41573E+03  1.05462E+04
  1.72547E+03  1.05422E+04 -4.06221E+03  9.07535E+03 -7.11591E+03  4.64186E+03 -5.43456E+03  5.13026E+02
 -2.51554E+03 -3.56701E+02 -2.87859E+03  1.27644E+03 -5.55314E+03  1.99138E+03 -8.45774E+03 -1.70908E+03
 -7.15457E+03 -6.43092E+03 -2.80189E+03 -1.07909E+04  4.84729E+03 -1.12302E+04  9.32495E+03 -5.29018E+03
  1.07844E+04  1.45792E+03  6.26081E+03  8.29452E+03 -2.39522E+02  1.09153E+04 -8.10186E+03  6.65094E+03
