 $NMID ID='MM_0lb_SNR800_11hz_g50_92.RAW', FMTDAT='(8E13.5)'
 TRAMP=1., VOLUME=1. $END
  3.10053E+05 -1.69592E+01  3.37434E+05  2.50640E+05  8.50189E+04  3.38054E+05 -1.32602E+05  2.51554E+05
 -1.90589E+05  8.31989E+04 -1.12155E+05 -3.23176E+04  4.97530E+02 -5.06637E+04  5.34055E+04 -4.36276E+01
  3.56825E+04  5.28810E+04 -1.66401E+04  7.59335E+04 -6.10505E+04  6.41571E+04 -8.49093E+04  3.23087E+04
 -8.16719E+04 -1.18248E+04 -5.77218E+04 -5.21367E+04 -1.54699E+04 -7.05506E+04  2.76376E+04 -4.65159E+04
  4.03398E+04  3.66173E+03  1.67687E+04  4.82127E+04 -3.44977E+04  4.77777E+04 -6.74838E+04 -1.05196E+02
 -5.41802E+04 -5.69079E+04 -7.29640E+03 -7.81147E+04  3.47681E+04 -5.62620E+04  4.91138E+04 -1.79590E+04
  4.44898E+04  1.13390E+04  3.23581E+04  2.60961E+04  1.59478E+04  2.98317E+04 -5.33039E+03  2.71816E+04
 -2.23823E+04  1.20492E+04 -1.81456E+04 -5.34994E+03  6.59478E+03 -7.11991E+03  2.32565E+04  1.28997E+04
  7.19519E+03  3.66159E+04 -3.31256E+04  3.62277E+04 -6.49564E+04  2.30774E+03 -5.80377E+04 -4.40907E+04
 -1.26582E+04 -6.44701E+04  4.13185E+04 -4.67635E+04  5.99548E+04 -2.42446E+03  3.54947E+04  3.31633E+04
 -5.88082E+03  3.82022E+04 -3.10764E+04  1.74662E+04 -3.20650E+04 -3.78158E+03 -1.81809E+04 -1.19124E+04
 -8.89146E+03 -1.42102E+04 -5.86546E+02 -1.90611E+04  8.00009E+03 -2.32302E+04  1.56201E+04 -1.29940E+04
  1.09232E+04  5.93785E+03 -9.17772E+03  1.28126E+04 -2.26843E+04 -5.96829E+03 -9.30133E+03 -3.61869E+04
  2.43395E+04 -4.55818E+04  5.06453E+04 -2.03683E+04  4.73302E+04  2.04391E+04  1.65266E+04  4.60523E+04
 -1.62429E+04  3.50730E+04 -2.67142E+04  2.51139E+03 -1.06059E+04 -2.89552E+04  2.14810E+04 -3.53778E+04
  4.31832E+04 -1.00651E+04  3.84350E+04  2.45592E+04  2.02292E+04  4.91844E+04 -8.39454E+03  5.38281E+04
 -3.37785E+04  3.63991E+04 -4.54420E+04  1.04026E+04 -4.55971E+04 -1.79718E+04 -2.50786E+04 -4.02592E+04
  7.70053E+03 -4.02096E+04  3.31927E+04 -1.63220E+04  3.08888E+04  1.09411E+04  4.64770E+03  2.00247E+04
 -1.41513E+04  9.06175E+03 -1.09955E+04 -7.34727E+03  5.59015E+03 -1.08671E+04  1.83493E+04  5.14096E+03
  1.44325E+04  2.24465E+04 -6.09153E+03  2.63134E+04 -2.30738E+04  1.31970E+04 -3.00865E+04 -3.85316E+03
 -2.29394E+04 -1.80962E+04 -1.04493E+04 -2.33225E+04  4.20249E+03 -2.30032E+04  1.83794E+04 -2.09143E+04
  2.97457E+04 -1.35120E+04  3.57558E+04  4.07650E+03  2.56187E+04  2.25864E+04  4.34911E+03  3.94634E+04
 -1.92014E+04  3.23473E+04 -2.96815E+04  1.11365E+04 -2.18584E+04 -1.00366E+04 -4.80688E+03 -1.34811E+04
  1.14557E+03 -1.62623E+03 -6.23765E+03  7.67548E+03 -1.85259E+04  5.02370E+03 -1.85923E+04 -8.28793E+03
 -1.09716E+04 -2.16454E+04  5.64709E+03 -2.59283E+04  1.74034E+04 -1.82435E+04  2.07684E+04 -1.53156E+03
  1.31542E+04  1.53110E+04 -6.87114E+02  2.17888E+04 -1.54668E+04  1.24054E+04 -2.16025E+04 -4.64634E+03
 -1.53359E+04 -1.93796E+04 -1.89876E+03 -2.58707E+04  1.15887E+04 -2.12139E+04  2.14690E+04 -1.05172E+04
  1.99138E+04  2.17435E+01  1.44470E+04  5.06801E+03  8.15473E+03  1.09093E+03  1.12228E+04 -2.23355E+03
  2.05394E+04  3.02692E+03  2.28138E+04  1.67960E+04  1.52243E+04  3.49639E+04 -2.64991E+03  4.01272E+04
 -2.30265E+04  3.30176E+04 -3.76898E+04  1.67825E+04 -3.99791E+04 -3.02992E+03 -3.28445E+04 -2.31043E+04
 -1.31051E+04 -3.33209E+04  1.16748E+04 -2.93776E+04  2.54160E+04 -1.42522E+04  2.21193E+04  6.41447E+03
  8.08654E+03  1.66619E+04 -1.07371E+04  1.45231E+04 -1.86143E+04  2.77866E+03 -1.41642E+04 -1.13826E+04
 -7.12063E+02 -1.73906E+04  9.19957E+03 -1.32309E+04  1.18330E+04 -1.40301E+03  2.99467E+03  7.99300E+03
 -7.99239E+03  3.57419E+03 -7.51879E+03 -6.58641E+03 -8.60734E+02 -1.62400E+04  1.06846E+04 -1.75913E+04
  2.04144E+04 -9.58458E+03  2.26176E+04  3.25555E+03  1.97513E+04  1.62724E+04  9.23648E+03  2.54790E+04
 -4.81366E+03  2.71816E+04 -1.78464E+04  1.70795E+04 -1.98359E+04  3.99411E+03 -1.38502E+04 -4.90940E+03
 -6.21388E+03 -6.24552E+03 -7.69354E+02  5.30458E+02 -2.31429E+03  3.16097E+03 -6.72827E+03  5.14718E+03
 -1.27224E+04 -7.55910E+02 -1.34729E+04 -1.05529E+04 -5.36020E+03 -1.72121E+04  5.10736E+03 -1.40797E+04
  1.15306E+04 -6.15708E+03  7.88936E+03  3.45630E+03  1.01738E+02  5.66693E+03 -6.77188E+03 -3.45018E+02
 -6.38635E+03 -8.45576E+03 -9.16530E+02 -1.34269E+04  7.97190E+03 -1.42719E+04  1.74756E+04 -7.73284E+03
  2.04041E+04  2.02138E+03  1.51841E+04  1.22346E+04  2.74081E+03  1.59632E+04 -8.43061E+03  1.36058E+04
 -1.12707E+04  4.13540E+03 -5.67513E+03 -2.95504E+03  1.99921E+03 -3.92198E+03  7.61375E+03 -8.03309E+02
  6.32224E+03  6.30224E+03  1.18595E+03  1.12973E+04 -8.09896E+03  1.04201E+04 -1.32244E+04  2.54213E+03
 -8.92914E+03 -7.10240E+03  1.24772E+02 -1.18866E+04  7.68167E+03 -5.76074E+03  7.66544E+03  2.20438E+03
  1.45185E+03  8.27252E+03 -6.81106E+03  9.84232E+03 -1.15182E+04  4.38797E+03 -1.16775E+04 -3.65952E+03
 -6.66113E+03 -1.33677E+04  3.19243E+03 -1.49228E+04  1.26594E+04 -9.04802E+03  1.40617E+04  2.25361E+03
  8.38773E+03  1.10676E+04 -1.63681E+03  1.37245E+04 -9.95489E+03  7.76667E+03 -1.05697E+04 -1.20053E+03
 -9.11677E+03 -9.12733E+03 -1.72682E+03 -1.00889E+04  5.49879E+03 -8.38746E+03  6.31992E+03 -3.69104E+03
  4.33208E+03  1.65374E+03 -9.15622E+02  1.84118E+03 -5.46465E+02 -2.51038E+03  1.85821E+03 -5.89010E+03
  9.60046E+03 -3.61325E+03  1.31889E+04  1.43591E+03  1.30850E+04  9.24607E+03  8.50698E+03  1.70404E+04
 -3.74665E+03  1.97647E+04 -1.64396E+04  1.46566E+04 -2.15767E+04  2.64420E+03 -1.72651E+04 -7.30605E+03
 -8.60889E+03 -1.41772E+04 -4.91799E+02 -1.19687E+04  4.25495E+03 -6.25353E+03  4.25310E+03 -4.41435E+03
  3.02400E+03 -2.72357E+03  3.55247E+03 -3.61935E+03  5.35130E+03 -2.85201E+03  6.83177E+03 -1.22777E+03
  8.82923E+03  1.67916E+03  4.68874E+03  7.73855E+03 -1.74184E+03  8.75042E+03 -9.51152E+03  7.01960E+03
 -1.17499E+04 -1.20457E+03 -7.20340E+03 -8.07371E+03 -8.84505E+02 -1.27358E+04  6.93336E+03 -1.28446E+04
  1.32743E+04 -7.39240E+03  1.59169E+04  2.18961E+03  1.11561E+04  1.11572E+04  1.90408E+03  1.46227E+04
 -6.11933E+03  1.19699E+04 -8.53760E+03  4.22394E+03 -5.27779E+03 -1.62996E+03 -2.35228E+03 -1.80095E+03
 -1.34167E+03 -1.53728E+01 -2.12790E+03  2.75154E+03 -5.30722E+03  1.93664E+03 -8.43934E+03 -1.51790E+03
 -5.53181E+03 -8.62497E+03 -2.70423E+01 -1.19296E+04  7.24946E+03 -1.09857E+04  1.15306E+04 -3.21842E+03
  1.13275E+04  5.61370E+03  5.63297E+03  1.03464E+04 -2.37303E+03  1.15284E+04 -8.07820E+03  7.56212E+03
 -1.09329E+04  4.88723E+02 -8.58054E+03 -7.02486E+03 -5.42838E+02 -9.43006E+03  4.74165E+03 -6.92726E+03
  7.52821E+03 -2.47085E+03  4.75034E+03  1.50006E+03  2.29420E+03  3.49079E+03  1.29058E+03  1.76006E+03
  2.53953E+03  9.43871E+02  3.00146E+03  1.95208E+03  3.29905E+03  3.94410E+03  2.92804E+03  5.98409E+03
 -2.68912E+03  9.07322E+03 -8.12617E+03  9.24204E+03 -1.18102E+04  2.72782E+03 -1.20676E+04 -4.39921E+03
 -6.06126E+03 -1.13096E+04  1.77931E+03 -1.29323E+04  6.52083E+03 -8.11325E+03  9.48589E+03 -2.36140E+03
  7.57854E+03  4.41096E+03  1.82085E+03  6.60005E+03 -3.25338E+03  4.12316E+03 -3.80305E+03 -8.77572E+02
 -2.20889E+03 -4.83499E+03  2.83668E+03 -4.79830E+03  4.99777E+03 -2.79479E+03  4.41128E+03  1.17303E+03
  2.51065E+03  2.39376E+03  1.28068E+03  1.79738E+03 -8.67197E+02  1.60359E+03  1.84819E+03 -5.69998E+02
  1.64844E+03 -5.90065E+02  5.02023E+03  1.96516E+03  2.13031E+03  6.23233E+03 -1.06935E+03  8.23622E+03
 -5.75058E+03  5.08337E+03 -7.16120E+03  1.53403E+03 -6.36736E+03 -3.11151E+03 -2.36858E+03 -3.97094E+03
  7.50793E+02 -4.14803E+03  2.73079E+03 -2.04682E+03  2.55949E+03  2.09008E+03 -1.41566E+03  3.58629E+03
 -4.46205E+03  2.00012E+03 -5.15088E+03 -2.94354E+03 -3.04509E+03 -6.32509E+03  8.57736E+02 -6.24285E+03
  3.60746E+03 -3.62519E+03  4.47613E+03 -2.66091E+02  3.84010E+03  1.23873E+03  4.14371E+02  3.09354E+03
 -1.74138E+03  8.06692E+02 -3.02560E+03 -1.75319E+03  1.03338E+03 -4.44462E+03  5.61556E+03 -3.84525E+03
  6.74398E+03  5.39882E+02  7.52841E+03  4.85831E+03  2.34001E+03  7.15274E+03 -2.63149E+03  7.20888E+03
 -5.99416E+03  2.87527E+03 -6.12064E+03 -1.05564E+03 -3.47217E+03 -4.79433E+03  6.64668E+02 -4.23517E+03
  4.54896E+03 -2.32793E+03  3.72772E+03  2.08611E+03  1.21300E+03  3.87170E+03 -9.92906E+02  3.77583E+03
 -2.18464E+03  2.91533E+03 -1.81951E+03  9.96973E+02 -6.97751E+02  5.81973E+02 -1.05064E+03  1.48545E+03
 -2.29685E+03  2.63765E+03 -4.92005E+03  2.35091E+03 -7.09481E+03  1.98206E+02 -8.60588E+03 -4.64031E+03
 -4.28587E+03 -9.81299E+03  1.66965E+03 -1.10494E+04  6.21533E+03 -8.94397E+03  1.04948E+04 -3.55035E+03
  9.72930E+03  1.72060E+03  6.11143E+03  7.06119E+03 -6.42275E+01  7.25826E+03 -2.80068E+03  5.59021E+03
 -4.29878E+03  2.18383E+03 -2.54687E+03 -9.93500E+02 -9.68422E+02 -3.33720E+02 -1.07428E+03  4.21627E+01
 -1.56573E+03  2.31869E+02 -1.55439E+03  2.43579E+01 -4.67459E+02 -1.95343E+03  6.31919E+01 -2.48584E+03
  3.20656E+03 -2.47154E+03  4.18452E+03 -1.26581E+02  4.94568E+03  4.09804E+03  1.39817E+03  7.30640E+03
 -3.80249E+03  8.14516E+03 -7.84024E+03  5.25705E+03 -8.87904E+03 -3.82844E+02 -6.65620E+03 -5.70220E+03
 -2.84263E+03 -6.98327E+03  2.00971E+03 -6.65092E+03  4.62865E+03 -3.93827E+03  4.83248E+03  1.64564E+02
  2.79626E+03  2.06531E+03  7.90714E+00  2.02585E+03 -1.25771E+03  1.50254E+02  2.28341E+02 -1.78921E+03
  2.01422E+03 -8.77395E+02  2.84210E+03  9.48291E+02  1.84971E+03  2.53362E+03  5.80189E+02  3.46723E+03
 -3.04642E+03  3.33649E+03 -4.65371E+03  5.85945E+02 -4.03162E+03 -3.35825E+03 -1.03032E+03 -5.55052E+03
  3.46430E+03 -5.16368E+03  5.30510E+03 -1.36122E+03  5.53368E+03  1.09350E+03  2.89122E+03  4.73047E+03
  5.11534E+02  4.46371E+03 -1.51472E+03  3.67206E+03 -2.53945E+03  1.93229E+03 -2.30573E+03  4.34305E+02
 -9.98547E+02 -5.08090E+02 -1.43003E+03  5.82730E+02 -2.41251E+03  6.25460E+02 -3.60491E+03 -7.13493E+02
 -3.78451E+03 -2.30776E+03 -1.14605E+03 -4.42879E+03  2.46337E+03 -5.42710E+03  4.47042E+03 -2.30320E+03
  4.50314E+03  4.81703E+02  2.24283E+03  3.29911E+03 -2.88941E+02  4.41951E+03 -3.35238E+03  2.97303E+03
