 $NMID ID='MM_0lb_SNR800_16hz_g50_4.RAW', FMTDAT='(8E13.5)'
 TRAMP=1., VOLUME=1. $END
  3.09939E+05  2.37725E+02  3.36971E+05  2.50585E+05  8.47585E+04  3.37567E+05 -1.32995E+05  2.50543E+05
 -1.90101E+05  8.28517E+04 -1.11427E+05 -3.23208E+04  8.65688E+02 -5.04269E+04  5.39169E+04  1.76142E+02
  3.50820E+04  5.29146E+04 -1.70388E+04  7.53191E+04 -6.07729E+04  6.32108E+04 -8.37903E+04  3.18878E+04
 -8.03639E+04 -1.13709E+04 -5.69162E+04 -5.12049E+04 -1.49496E+04 -6.90910E+04  2.72478E+04 -4.53955E+04
  3.94265E+04  4.13537E+03  1.59768E+04  4.75116E+04 -3.44098E+04  4.69494E+04 -6.59726E+04 -4.00546E+02
 -5.28858E+04 -5.64436E+04 -6.51225E+03 -7.64608E+04  3.34593E+04 -5.43755E+04  4.75645E+04 -1.69463E+04
  4.27490E+04  1.08599E+04  3.08978E+04  2.51987E+04  1.60455E+04  2.88232E+04 -5.03284E+03  2.67942E+04
 -2.19695E+04  1.26822E+04 -1.85351E+04 -4.72113E+03  4.94882E+03 -7.48993E+03  2.17987E+04  1.18668E+04
  7.30402E+03  3.47555E+04 -3.14729E+04  3.51200E+04 -6.26522E+04  2.23546E+03 -5.66154E+04 -4.23374E+04
 -1.28794E+04 -6.22710E+04  3.93044E+04 -4.46962E+04  5.74400E+04 -2.03658E+03  3.33517E+04  3.16864E+04
 -6.15616E+03  3.48033E+04 -2.92645E+04  1.47214E+04 -2.91633E+04 -4.85344E+03 -1.59606E+04 -1.06939E+04
 -8.06549E+03 -1.25088E+04 -1.14317E+03 -1.75851E+04  6.90356E+03 -2.30873E+04  1.51663E+04 -1.34622E+04
  1.16191E+04  5.16930E+03 -7.53261E+03  1.28632E+04 -2.07012E+04 -3.64728E+03 -8.36780E+03 -3.22568E+04
  2.23800E+04 -4.22756E+04  4.71770E+04 -1.93826E+04  4.37876E+04  1.91765E+04  1.51797E+04  4.32675E+04
 -1.57367E+04  3.23350E+04 -2.48410E+04  1.60709E+03 -9.07143E+03 -2.72766E+04  2.07277E+04 -3.26379E+04
  3.97316E+04 -8.13258E+03  3.41928E+04  2.33469E+04  1.70128E+04  4.50902E+04 -7.89618E+03  4.82993E+04
 -3.04443E+04  3.22341E+04 -4.02785E+04  8.94025E+03 -4.09720E+04 -1.59536E+04 -2.27929E+04 -3.66875E+04
  7.12057E+03 -3.63753E+04  3.06226E+04 -1.38558E+04  2.82280E+04  1.07631E+04  3.47553E+03  1.88046E+04
 -1.34535E+04  8.19406E+03 -1.00135E+04 -7.57481E+03  5.86237E+03 -1.03337E+04  1.77888E+04  6.08082E+03
  1.29209E+04  2.17253E+04 -6.22310E+03  2.45726E+04 -2.21691E+04  1.05170E+04 -2.67717E+04 -5.60182E+03
 -1.88964E+04 -1.67798E+04 -7.11629E+03 -1.87661E+04  3.73316E+03 -1.77745E+04  1.43771E+04 -1.68311E+04
  2.43382E+04 -1.25192E+04  3.09018E+04  2.32713E+03  2.29700E+04  1.84024E+04  3.94741E+03  3.47855E+04
 -1.69797E+04  2.91652E+04 -2.71573E+04  1.02918E+04 -2.05527E+04 -1.03881E+04 -4.20618E+03 -1.39784E+04
  2.11454E+03 -3.28758E+03 -3.90859E+03  6.18754E+03 -1.51108E+04  5.13157E+03 -1.50972E+04 -6.17649E+03
 -9.37969E+03 -1.74864E+04  4.78352E+03 -2.15153E+04  1.41028E+04 -1.51221E+04  1.69677E+04 -1.81828E+03
  1.02502E+04  1.18930E+04 -9.49421E+02  1.79175E+04 -1.19470E+04  9.73644E+03 -1.76342E+04 -3.77612E+03
 -1.28936E+04 -1.56514E+04 -1.67118E+03 -2.13906E+04  9.65748E+03 -1.71832E+04  1.80276E+04 -8.35986E+03
  1.63630E+04  2.96831E+02  1.20547E+04  4.16334E+03  6.33482E+03  9.37147E+02  8.67311E+03 -1.71927E+03
  1.60210E+04  2.49316E+03  1.74694E+04  1.41761E+04  1.11997E+04  2.78444E+04 -2.68039E+03  3.11855E+04
 -1.79406E+04  2.48975E+04 -2.90516E+04  1.19990E+04 -2.98679E+04 -1.77225E+03 -2.51352E+04 -1.74114E+04
 -1.10030E+04 -2.44517E+04  8.40092E+03 -2.23359E+04  1.95045E+04 -1.19174E+04  1.79864E+04  4.24439E+03
  6.98821E+03  1.29129E+04 -8.09232E+03  1.17440E+04 -1.51993E+04  2.91661E+03 -1.15201E+04 -9.41435E+03
 -1.62487E+02 -1.38541E+04  7.10409E+03 -1.06393E+04  9.35969E+03 -1.46068E+03  1.97687E+03  5.50243E+03
 -6.20697E+03  2.02066E+03 -4.92409E+03 -5.28538E+03  3.29394E+02 -1.22127E+04  9.00454E+03 -1.22826E+04
  1.49124E+04 -6.21491E+03  1.52826E+04  2.91750E+03  1.32934E+04  1.17871E+04  6.42020E+03  1.78194E+04
 -2.94364E+03  1.94772E+04 -1.19018E+04  1.23837E+04 -1.37949E+04  3.42532E+03 -9.87177E+03 -2.67446E+03
 -5.02625E+03 -4.19495E+03 -7.29684E+02  1.36302E+03 -2.22496E+03  1.83411E+03 -4.59748E+03  3.94146E+03
 -9.41912E+03 -3.72654E+02 -1.02627E+04 -8.23610E+03 -4.05713E+03 -1.35328E+04  4.15808E+03 -1.02968E+04
  8.37283E+03 -4.18806E+03  6.19218E+03  2.40330E+03  4.00535E+02  3.90531E+03 -4.49156E+03 -2.05676E+02
 -4.37405E+03 -6.34335E+03 -4.10742E+02 -8.71038E+03  5.01404E+03 -9.71267E+03  1.23545E+04 -4.98489E+03
  1.41819E+04  1.05387E+03  1.07127E+04  7.99442E+03  2.08758E+03  1.08023E+04 -5.97377E+03  9.85606E+03
 -8.12978E+03  3.18837E+03 -4.26612E+03 -1.75535E+03  1.71480E+03 -2.17001E+03  5.51053E+03 -1.06604E+03
  5.02982E+03  4.10108E+03  1.29793E+03  7.91246E+03 -5.56226E+03  7.63351E+03 -9.37862E+03  1.93018E+03
 -6.30005E+03 -4.37358E+03  4.29913E+02 -7.98104E+03  4.79016E+03 -4.20034E+03  4.71714E+03  1.51461E+03
  6.81631E+02  4.77779E+03 -4.76268E+03  6.10384E+03 -6.79536E+03  2.99117E+03 -6.34596E+03 -1.94620E+03
 -4.20076E+03 -7.77344E+03  1.84926E+03 -9.30110E+03  7.73935E+03 -5.88168E+03  8.63007E+03  1.41969E+03
  5.80971E+03  6.88234E+03  2.54698E+01  9.16099E+03 -6.37449E+03  4.94512E+03 -6.68953E+03 -7.42469E+02
 -6.66776E+03 -6.13087E+03 -1.51278E+03 -6.25537E+03  3.20677E+03 -5.61709E+03  4.17222E+03 -3.29168E+03
  3.23072E+03  7.05287E+02 -1.22053E+02  1.10985E+03  3.00317E+02 -9.49140E+02  6.83181E+02 -3.08764E+03
  5.31270E+03 -1.72029E+03  7.46768E+03  9.66086E+02  7.16681E+03  4.68183E+03  6.38918E+03  1.00413E+04
 -2.09297E+03  1.16321E+04 -1.01177E+04  8.87371E+03 -1.33776E+04  1.47604E+03 -1.06341E+04 -4.06969E+03
 -5.27821E+03 -8.58366E+03 -6.82269E+02 -7.03039E+03  2.51313E+03 -3.52709E+03  2.26553E+03 -2.54888E+03
  1.50123E+03 -1.67502E+03  2.60905E+03 -2.29236E+03  4.12957E+03 -1.77191E+03  4.29801E+03  3.95781E-01
  5.34337E+03  1.17542E+03  1.93991E+03  4.67969E+03 -1.95599E+03  4.32220E+03 -5.86211E+03  3.81030E+03
 -6.70957E+03 -9.56108E+02 -3.22855E+03 -4.64084E+03  2.20445E+02 -6.96812E+03  4.34919E+03 -7.41477E+03
  7.41764E+03 -4.63892E+03  8.88106E+03  5.49658E+02  6.64443E+03  5.91256E+03  1.32361E+03  8.02360E+03
 -3.32693E+03  7.30005E+03 -4.53756E+03  2.51088E+03 -2.97232E+03 -1.01665E+03 -7.79864E+02 -9.70781E+02
 -9.25917E+02  2.23497E+02 -1.01378E+03  2.04980E+03 -3.49954E+03  1.37011E+03 -5.24146E+03 -4.48920E+02
 -2.73806E+03 -5.02835E+03  9.82399E+02 -6.47961E+03  3.92702E+03 -5.98989E+03  5.66205E+03 -1.62470E+03
  5.98065E+03  3.09330E+03  2.60219E+03  4.94781E+03 -1.01887E+03  6.22019E+03 -4.05632E+03  3.59673E+03
 -5.68676E+03  4.52780E+02 -4.60930E+03 -3.63275E+03 -4.32269E+02 -4.59452E+03  2.50534E+03 -3.76454E+03
  3.84446E+03 -1.75958E+03  2.51132E+03  6.67355E+02  8.86751E+02  1.97031E+03  9.54036E+02  5.41114E+02
  1.88773E+03  4.93789E+02  1.39690E+03  1.02318E+03  1.59084E+03  2.42767E+03  2.09051E+03  2.86687E+03
 -1.68184E+03  4.49756E+03 -3.82331E+03  5.20647E+03 -5.00820E+03  1.62145E+03 -6.17135E+03 -1.39015E+03
 -2.60404E+03 -5.37978E+03  8.00975E+02 -6.76344E+03  3.31343E+03 -3.93625E+03  4.44892E+03 -1.41343E+03
  3.60476E+03  2.52881E+03  6.88695E+02  3.22222E+03 -1.31674E+03  1.89619E+03 -1.63178E+03 -3.74109E+02
 -1.15710E+03 -2.45523E+03  1.66284E+03 -2.26705E+03  1.95058E+03 -1.44166E+03  2.20188E+03  2.83421E+02
  1.10741E+03  7.79157E+02  5.95896E+02  2.02118E+02 -3.00482E+02  9.19039E+02  1.53032E+03 -1.28982E+02
  5.45927E+02 -1.61117E+01  2.21817E+03  9.39304E+02  9.87604E+02  3.14007E+03 -3.31877E+02  4.07453E+03
 -2.40342E+03  1.84235E+03 -3.15239E+03  3.03295E+02 -3.23402E+03 -9.92682E+02 -7.16807E+02 -1.87180E+03
  4.50323E+02 -1.90604E+03  1.42606E+03 -1.06582E+03  9.28190E+02  1.56500E+03 -7.07758E+02  1.76557E+03
 -2.13497E+03  9.79267E+02 -1.86935E+03 -1.52336E+03 -1.30107E+03 -2.99081E+03  3.66888E+02 -2.47585E+03
  9.17199E+02 -1.13827E+03  1.78369E+03 -1.17520E+02  1.93509E+03  2.09287E+02  3.01728E+02  1.38623E+03
 -5.60724E+02  3.73123E+02 -1.45636E+03 -4.25019E+02  9.12018E+02 -1.46433E+03  2.51171E+03 -1.22907E+03
  2.53809E+03  4.25829E+02  3.44164E+03  1.59491E+03  1.15980E+03  2.82508E+03 -4.92848E+02  2.72233E+03
 -2.31658E+03  1.08043E+03 -2.35604E+03 -2.04533E+02 -1.49872E+03 -2.18140E+03  4.14757E+02 -1.05504E+03
  2.07481E+03 -1.19190E+03  1.56738E+03  9.07811E+02  3.32116E+02  1.78041E+03  1.43703E+02  1.91056E+03
 -7.57170E+02  1.22315E+03 -2.58184E+02  2.91279E+02 -1.40182E+02  4.80005E+02 -9.13495E+02  8.03091E+02
 -1.00915E+03  9.88637E+02 -2.60469E+03  8.77212E+02 -2.48640E+03 -4.91490E+01 -3.87117E+03 -1.59334E+03
 -1.79665E+03 -3.75217E+03  7.58906E+02 -4.42364E+03  1.97285E+03 -3.43913E+03  4.29059E+03 -1.66055E+03
  3.53306E+03  1.90616E+02  1.73127E+03  2.68707E+03 -3.63396E+02  2.68495E+03 -1.01871E+03  2.21360E+03
 -1.37055E+03  1.22184E+03 -6.62585E+02 -3.57222E+02 -6.76764E+02  2.32348E+02 -9.39448E+02  1.81165E+02
 -1.02145E+03  5.02913E+01 -1.20540E+03 -8.05865E+01  2.81728E+02 -6.54685E+02 -4.34747E+02 -1.37631E+03
  1.66459E+03 -1.08771E+03  1.06162E+03  1.40502E+02  1.71814E+03  1.52317E+03 -3.31755E+02  2.51526E+03
 -1.39834E+03  3.15076E+03 -2.80704E+03  2.07250E+03 -3.06038E+03 -9.95922E+01 -2.21875E+03 -2.10707E+03
 -1.24207E+03 -2.57080E+03  5.92653E+02 -2.42872E+03  1.56850E+03 -1.23444E+03  1.66580E+03  2.03120E+02
  1.32787E+03  5.23452E+02  1.88053E+02  7.67080E+02 -4.29470E+02  5.74761E+01 -1.33524E+02 -3.96345E+02
  7.59549E+02 -1.18243E+02  7.43851E+02  4.73504E+02  4.08965E+02  8.46554E+02  9.22043E+01  7.61673E+02
 -1.05991E+03  1.04480E+03 -1.01713E+03 -1.38026E+02 -1.34908E+03 -1.17739E+03 -4.78591E+01 -2.37132E+03
  1.02385E+03 -1.50162E+03  1.36253E+03 -4.60887E+02  1.81424E+03 -2.22824E+01  6.93860E+02  1.43380E+03
  5.90321E+02  1.26600E+03 -1.56830E+02  7.86504E+02 -1.13589E+03  7.72383E+02 -1.01665E+03  1.32296E+02
 -3.06488E+02 -1.73286E+02 -4.93102E+02  4.51064E+01 -1.01220E+03  3.37540E+02 -1.29319E+03 -8.30726E+01
 -1.40324E+03 -2.63681E+02 -4.58942E+02 -1.41570E+03  9.59656E+02 -2.14003E+03  1.24856E+03 -3.18042E+02
  1.26520E+03  3.76835E+02  2.19403E+02  5.35599E+02 -3.92088E+01  1.53554E+03 -8.79273E+02  1.00898E+03
