 $NMID ID='MM_0lb_SNR800_7hz_g60_82.RAW', FMTDAT='(8E13.5)'
 TRAMP=1., VOLUME=1. $END
  3.09224E+05  5.92852E+02  3.37652E+05  2.50756E+05  8.52653E+04  3.38512E+05 -1.32651E+05  2.52646E+05
 -1.91173E+05  8.43629E+04 -1.12877E+05 -3.25254E+04  1.21734E+02 -5.09398E+04  5.34313E+04 -1.02535E+03
  3.56916E+04  5.32097E+04 -1.63267E+04  7.60457E+04 -6.16122E+04  6.48036E+04 -8.61401E+04  3.28603E+04
 -8.32430E+04 -1.21713E+04 -5.88554E+04 -5.32197E+04 -1.55834E+04 -7.20397E+04  2.94921E+04 -4.76597E+04
  4.16982E+04  3.50410E+03  1.68415E+04  4.85910E+04 -3.48364E+04  4.89896E+04 -6.89143E+04  3.63953E+02
 -5.63610E+04 -5.83707E+04 -7.32698E+03 -7.99528E+04  3.50640E+04 -5.80606E+04  5.10854E+04 -1.90351E+04
  4.59994E+04  1.16529E+04  3.34481E+04  2.71302E+04  1.59707E+04  3.14853E+04 -6.39346E+03  2.80387E+04
 -2.24607E+04  1.17318E+04 -1.79248E+04 -6.13711E+03  7.88621E+03 -7.23531E+03  2.41348E+04  1.46383E+04
  6.72335E+03  3.89610E+04 -3.53160E+04  3.77868E+04 -6.72383E+04  2.02263E+03 -5.99205E+04 -4.60501E+04
 -1.24671E+04 -6.77014E+04  4.28655E+04 -4.87615E+04  6.29839E+04 -2.50490E+03  3.85718E+04  3.57385E+04
 -5.47626E+03  4.17637E+04 -3.29695E+04  2.07286E+04 -3.50152E+04 -2.79482E+03 -2.07051E+04 -1.27042E+04
 -9.94893E+03 -1.66179E+04 -3.46830E+02 -2.08619E+04  8.76444E+03 -2.36322E+04  1.63986E+04 -1.20036E+04
  9.53954E+03  6.43599E+03 -1.15685E+04  1.28513E+04 -2.43781E+04 -8.21752E+03 -8.97293E+03 -4.00696E+04
  2.67918E+04 -4.88667E+04  5.46393E+04 -2.16540E+04  5.08743E+04  2.13457E+04  1.85923E+04  4.90565E+04
 -1.69128E+04  3.79045E+04 -2.91631E+04  3.03268E+03 -1.28689E+04 -3.06354E+04  2.20267E+04 -3.92740E+04
  4.67495E+04 -1.19447E+04  4.35042E+04  2.54180E+04  2.33415E+04  5.34825E+04 -8.97565E+03  5.95111E+04
 -3.75873E+04  4.12788E+04 -5.07254E+04  1.20154E+04 -5.02229E+04 -1.95189E+04 -2.72533E+04 -4.47606E+04
  8.21833E+03 -4.42982E+04  3.61039E+04 -1.88194E+04  3.39739E+04  1.16431E+04  5.79655E+03  2.26927E+04
 -1.39779E+04  1.03778E+04 -1.18398E+04 -7.85624E+03  5.74651E+03 -1.21599E+04  1.94422E+04  5.65554E+03
  1.62820E+04  2.28673E+04 -4.63724E+03  2.80592E+04 -2.39950E+04  1.60928E+04 -3.37637E+04 -1.57592E+03
 -2.80865E+04 -1.90375E+04 -1.31269E+04 -2.76401E+04  4.67354E+03 -2.90781E+04  2.28515E+04 -2.56811E+04
  3.59445E+04 -1.55699E+04  4.13754E+04  6.27480E+03  2.95400E+04  2.74918E+04  4.66357E+03  4.43126E+04
 -2.10135E+04  3.59183E+04 -3.19633E+04  1.26244E+04 -2.30563E+04 -9.75233E+03 -5.33610E+03 -1.23765E+04
  1.10173E+02  8.43415E+01 -9.37033E+03  9.39487E+03 -2.26339E+04  5.32463E+03 -2.24832E+04 -1.16777E+04
 -1.33859E+04 -2.60451E+04  6.98683E+03 -3.04274E+04  2.06579E+04 -2.21558E+04  2.55928E+04 -1.15826E+03
  1.64996E+04  1.77972E+04 -1.37466E+03  2.60163E+04 -1.87647E+04  1.50573E+04 -2.66624E+04 -5.44365E+03
 -1.89488E+04 -2.34909E+04 -2.29462E+03 -3.12123E+04  1.39191E+04 -2.59230E+04  2.55678E+04 -1.35396E+04
  2.47112E+04 -5.52013E+02  1.78142E+04  5.66468E+03  9.93781E+03  1.69929E+03  1.36145E+04 -2.92832E+03
  2.52205E+04  3.02441E+03  2.89768E+04  2.05962E+04  2.03687E+04  4.23361E+04 -2.75182E+03  5.07256E+04
 -2.89036E+04  4.30642E+04 -4.77915E+04  2.26513E+04 -5.20191E+04 -3.96802E+03 -4.13636E+04 -3.01320E+04
 -1.54684E+04 -4.33071E+04  1.55260E+04 -3.78590E+04  3.21360E+04 -1.70350E+04  2.71198E+04  9.45753E+03
  9.06127E+03  2.10466E+04 -1.34520E+04  1.69506E+04 -2.27680E+04  1.85323E+03 -1.69549E+04 -1.40984E+04
 -9.13003E+02 -2.18341E+04  1.23223E+04 -1.61369E+04  1.53725E+04 -1.20369E+03  4.40485E+03  1.03099E+04
 -1.01216E+04  5.42951E+03 -1.12479E+04 -7.92919E+03 -2.99762E+03 -2.11362E+04  1.32949E+04 -2.36952E+04
  2.69275E+04 -1.39798E+04  3.20668E+04  3.68564E+03  2.77105E+04  2.18736E+04  1.26363E+04  3.51829E+04
 -6.82271E+03  3.66993E+04 -2.45888E+04  2.29796E+04 -2.67369E+04  4.42449E+03 -1.81659E+04 -7.79492E+03
 -7.13377E+03 -8.76121E+03  7.99178E+01  2.12182E+02 -3.31765E+03  3.90177E+03 -8.90299E+03  6.22673E+03
 -1.68811E+04 -1.31030E+03 -1.75900E+04 -1.38777E+04 -6.94413E+03 -2.23270E+04  7.64327E+03 -1.81934E+04
  1.55502E+04 -7.20197E+03  1.08399E+04  5.39738E+03 -6.16031E+02  7.85526E+03 -9.57310E+03 -3.24965E+02
 -9.27957E+03 -1.24320E+04 -1.20520E+03 -1.91818E+04  1.09563E+04 -2.01416E+04  2.39280E+04 -1.07608E+04
  2.81983E+04  3.31118E+03  2.09397E+04  1.79273E+04  4.34428E+03  2.32168E+04 -1.14748E+04  1.83029E+04
 -1.48374E+04  4.93037E+03 -7.96375E+03 -4.28712E+03  3.01280E+03 -5.23160E+03  9.80942E+03 -8.07730E+02
  8.97958E+03  8.20613E+03  7.55867E+02  1.51284E+04 -1.08894E+04  1.48206E+04 -1.89017E+04  3.34578E+03
 -1.26481E+04 -1.00055E+04  1.08723E+02 -1.61653E+04  1.08876E+04 -8.20661E+03  1.15664E+04  4.59555E+03
  2.57026E+03  1.29136E+04 -9.74615E+03  1.48261E+04 -1.69990E+04  6.19511E+03 -1.80541E+04 -6.64176E+03
 -9.91217E+03 -2.04141E+04  5.29339E+03 -2.29032E+04  1.96814E+04 -1.31735E+04  2.13969E+04  4.00151E+03
  1.17130E+04  1.64442E+04 -2.57632E+03  1.93641E+04 -1.47449E+04  1.06684E+04 -1.62089E+04 -1.29074E+03
 -1.24753E+04 -1.33125E+04 -1.97747E+03 -1.52322E+04  7.43651E+03 -1.13989E+04  9.78011E+03 -4.15434E+03
  6.47284E+03  2.82349E+03 -1.65643E+03  2.09637E+03 -1.23695E+03 -5.12765E+03  4.67274E+03 -1.04034E+04
  1.50503E+04 -6.39060E+03  2.09378E+04  2.62199E+03  2.01908E+04  1.45142E+04  1.24254E+04  2.70812E+04
 -6.45379E+03  3.02388E+04 -2.54956E+04  2.22646E+04 -3.31868E+04  4.60928E+03 -2.66430E+04 -1.22754E+04
 -1.35073E+04 -2.19659E+04 -6.22350E+02 -1.87513E+04  6.68799E+03 -1.08719E+04  7.62474E+03 -6.55723E+03
  4.70355E+03 -3.98431E+03  4.67437E+03 -4.69372E+03  6.89101E+03 -4.34331E+03  9.85843E+03 -1.83455E+03
  1.37001E+04  3.17260E+03  7.63723E+03  1.20552E+04 -2.64632E+03  1.51101E+04 -1.44693E+04  1.13630E+04
 -1.94378E+04 -1.08604E+03 -1.35963E+04 -1.34562E+04 -2.21955E+03 -2.10909E+04  1.09370E+04 -2.06876E+04
  2.19146E+04 -1.10773E+04  2.56150E+04  3.39027E+03  1.75625E+04  1.81614E+04  2.99712E+03  2.32651E+04
 -1.01344E+04  1.91447E+04 -1.38891E+04  6.20906E+03 -9.50065E+03 -1.98645E+03 -4.06805E+03 -3.05140E+03
 -1.96173E+03 -3.24984E+02 -2.84473E+03  3.19600E+03 -8.00662E+03  2.74758E+03 -1.35223E+04 -2.21118E+03
 -1.04997E+04 -1.29851E+04 -2.16753E+02 -1.92806E+04  1.20624E+04 -1.78759E+04  1.97019E+04 -5.94792E+03
  1.97598E+04  9.40873E+03  8.97867E+03  1.83157E+04 -3.99477E+03  1.99013E+04 -1.48953E+04  1.25673E+04
 -1.91129E+04  2.69078E+02 -1.41974E+04 -1.23082E+04 -1.62807E+03 -1.68077E+04  8.74978E+03 -1.30940E+04
  1.26259E+04 -3.83942E+03  9.17634E+03  3.58946E+03  3.31721E+03  5.53080E+03  1.72744E+03  2.24156E+03
  3.81481E+03  1.24623E+03  4.41842E+03  2.25508E+03  6.09237E+03  6.68104E+03  5.03521E+03  1.10553E+04
 -4.22552E+03  1.61863E+04 -1.42832E+04  1.58061E+04 -2.13881E+04  4.14321E+03 -2.14107E+04 -9.54692E+03
 -1.05171E+04 -2.04600E+04  2.39158E+03 -2.27739E+04  1.27172E+04 -1.43455E+04  1.69491E+04 -3.42834E+03
  1.30440E+04  7.08932E+03  3.50117E+03  1.21706E+04 -6.58559E+03  7.47939E+03 -8.90044E+03 -1.14411E+03
 -3.99694E+03 -8.68055E+03  4.93464E+03 -9.67037E+03  9.02639E+03 -4.57052E+03  8.70534E+03  1.59612E+03
  4.50428E+03  4.57260E+03  1.74329E+03  4.44822E+03 -1.07254E+03  2.85809E+03  1.96653E+03 -9.58779E+02
  4.16033E+03 -1.41921E+03  8.54226E+03  3.06250E+03  5.74917E+03  1.09204E+04 -1.99299E+03  1.50545E+04
 -1.03740E+04  9.82090E+03 -1.37287E+04  2.73893E+03 -1.22869E+04 -4.91045E+03 -5.32668E+03 -8.44537E+03
  1.07895E+03 -8.76784E+03  5.42562E+03 -3.84378E+03  5.22293E+03  4.31794E+03 -1.65545E+03  6.54823E+03
 -8.72279E+03  4.11853E+03 -1.04334E+04 -5.22318E+03 -6.10914E+03 -1.20480E+04  1.84908E+03 -1.18637E+04
  7.44078E+03 -7.56952E+03  9.25386E+03 -5.54664E+02  7.25237E+03  3.43671E+03  1.98409E+02  6.48295E+03
 -4.29180E+03  2.47480E+03 -5.78047E+03 -4.37582E+03  2.07500E+03 -9.44844E+03  1.06608E+04 -7.28008E+03
  1.48261E+04  9.61675E+02  1.30710E+04  1.00851E+04  4.18329E+03  1.51065E+04 -5.23804E+03  1.35994E+04
 -1.20158E+04  6.68913E+03 -1.24497E+04 -2.08822E+03 -6.96542E+03 -9.26560E+03  2.37249E+03 -9.27602E+03
  8.75462E+03 -4.24016E+03  8.15005E+03  4.00893E+03  2.64751E+03  7.79144E+03 -1.76682E+03  6.85176E+03
 -3.80779E+03  4.47930E+03 -3.82074E+03  1.71827E+03 -1.73182E+03  1.55645E+03 -1.91621E+03  2.79867E+03
 -3.50838E+03  5.10941E+03 -9.58092E+03  4.93699E+03 -1.53817E+04 -2.03865E+02 -1.66506E+04 -1.03513E+04
 -8.89681E+03 -2.00123E+04  4.01150E+03 -2.27459E+04  1.47629E+04 -1.72027E+04  2.12918E+04 -6.80638E+03
  2.00578E+04  4.49691E+03  1.27140E+04  1.41062E+04  1.46494E+03  1.56283E+04 -6.01661E+03  1.19650E+04
 -8.28832E+03  4.10632E+03 -5.21465E+03 -1.43076E+03 -1.57872E+03 -1.81181E+03 -3.71468E+02  9.59118E+01
 -2.61043E+03  5.95757E+02 -3.40714E+03 -1.07237E+03 -1.41397E+03 -3.32726E+03  8.14592E+02 -5.59877E+03
  6.50178E+03 -5.11558E+03  1.01591E+04 -4.18930E+02  1.11758E+04  8.64336E+03  3.33824E+03  1.61098E+04
 -7.78832E+03  1.82745E+04 -1.72437E+04  1.05348E+04 -1.96065E+04 -1.40597E+03 -1.49342E+04 -1.21497E+04
 -6.06621E+03 -1.68935E+04  4.55432E+03 -1.54657E+04  1.06590E+04 -8.42253E+03  1.09659E+04  4.34794E+02
  5.62713E+03  5.13249E+03 -9.03280E+02  4.10694E+03 -3.04144E+03 -3.75176E+01  4.47505E+02 -4.00375E+03
  4.57354E+03 -2.69613E+03  6.97966E+03  2.25297E+03  4.50460E+03  6.36368E+03 -2.34280E+02  8.97362E+03
 -7.26217E+03  7.77463E+03 -1.13211E+04  8.62213E+02 -1.00819E+04 -8.09577E+03 -1.66667E+03 -1.36847E+04
  7.40222E+03 -1.14918E+04  1.27953E+04 -4.07480E+03  1.28074E+04  4.01073E+03  7.59845E+03  1.01745E+04
  8.69169E+02  1.12039E+04 -4.49767E+03  9.15041E+03 -6.94033E+03  4.62799E+03 -5.82393E+03  7.99077E+02
 -3.29464E+03 -3.67834E+01 -2.80782E+03  2.13435E+03 -6.02745E+03  1.93360E+03 -8.40304E+03 -1.79802E+03
 -7.80744E+03 -6.34191E+03 -2.58022E+03 -1.13012E+04  4.81178E+03 -1.14941E+04  9.88000E+03 -6.15530E+03
  1.16435E+04  1.26151E+03  6.51513E+03  8.33076E+03 -7.46208E+02  1.16254E+04 -8.55342E+03  7.52009E+03
