 $NMID ID='MM_0lb_SNR800_17hz_g50_53.RAW', FMTDAT='(8E13.5)'
 TRAMP=1., VOLUME=1. $END
  3.09737E+05  5.33254E+02  3.37388E+05  2.50305E+05  8.46711E+04  3.37314E+05 -1.32422E+05  2.50321E+05
 -1.89792E+05  8.27139E+04 -1.11241E+05 -3.25615E+04  1.16886E+03 -5.04723E+04  5.39933E+04  9.68595E+00
  3.53444E+04  5.28343E+04 -1.68126E+04  7.52407E+04 -6.05715E+04  6.28576E+04 -8.36410E+04  3.19628E+04
 -8.00814E+04 -1.13084E+04 -5.67965E+04 -5.07344E+04 -1.49098E+04 -6.91885E+04  2.71324E+04 -4.54017E+04
  3.94293E+04  3.82186E+03  1.56459E+04  4.75353E+04 -3.38891E+04  4.65145E+04 -6.59192E+04 -4.44384E+02
 -5.26542E+04 -5.58386E+04 -6.69799E+03 -7.57839E+04  3.35146E+04 -5.37848E+04  4.73624E+04 -1.67026E+04
  4.21327E+04  1.11415E+04  3.10792E+04  2.46286E+04  1.59754E+04  2.88493E+04 -4.82244E+03  2.71787E+04
 -2.17807E+04  1.26016E+04 -1.91521E+04 -4.52986E+03  4.76310E+03 -7.30098E+03  2.15707E+04  1.16548E+04
  7.53977E+03  3.41572E+04 -3.11792E+04  3.46223E+04 -6.23481E+04  2.25173E+03 -5.64162E+04 -4.17368E+04
 -1.23125E+04 -6.17786E+04  3.87192E+04 -4.44695E+04  5.65666E+04 -1.94007E+03  3.29806E+04  3.10492E+04
 -6.38841E+03  3.42523E+04 -2.90410E+04  1.45430E+04 -2.89241E+04 -5.20062E+03 -1.57535E+04 -1.04378E+04
 -7.74211E+03 -1.21399E+04 -9.76231E+02 -1.72726E+04  7.04574E+03 -2.29240E+04  1.53912E+04 -1.38457E+04
  1.18592E+04  4.70960E+03 -7.23648E+03  1.30691E+04 -2.02260E+04 -3.59798E+03 -8.22856E+03 -3.16726E+04
  2.14159E+04 -4.17345E+04  4.62650E+04 -1.90124E+04  4.33522E+04  1.87952E+04  1.47506E+04  4.26760E+04
 -1.55909E+04  3.20230E+04 -2.43635E+04  1.26704E+03 -8.99605E+03 -2.71732E+04  2.10687E+04 -3.23665E+04
  3.93117E+04 -7.96857E+03  3.30889E+04  2.31551E+04  1.65820E+04  4.43414E+04 -8.02333E+03  4.70248E+04
 -2.99484E+04  3.14443E+04 -3.92644E+04  9.08760E+03 -3.99936E+04 -1.60478E+04 -2.22925E+04 -3.58140E+04
  7.28134E+03 -3.56982E+04  3.01558E+04 -1.36732E+04  2.78875E+04  1.06771E+04  3.45250E+03  1.80897E+04
 -1.35755E+04  7.79028E+03 -9.91865E+03 -7.63258E+03  5.92893E+03 -1.03825E+04  1.77534E+04  6.46480E+03
  1.27962E+04  2.16578E+04 -6.51862E+03  2.42153E+04 -2.18289E+04  1.00591E+04 -2.61580E+04 -5.58010E+03
 -1.82448E+04 -1.71740E+04 -6.58936E+03 -1.79987E+04  3.76059E+03 -1.69445E+04  1.36884E+04 -1.59040E+04
  2.32613E+04 -1.22903E+04  3.00595E+04  1.95682E+03  2.23916E+04  1.79536E+04  4.02204E+03  3.40473E+04
 -1.67240E+04  2.86665E+04 -2.69027E+04  1.01365E+04 -1.97885E+04 -1.03270E+04 -4.14035E+03 -1.39227E+04
  2.51182E+03 -3.41723E+03 -3.45017E+03  6.13692E+03 -1.42677E+04  5.17225E+03 -1.44162E+04 -5.46301E+03
 -9.33991E+03 -1.66844E+04  4.66857E+03 -2.05521E+04  1.34948E+04 -1.46028E+04  1.58139E+04 -1.50449E+03
  9.78729E+03  1.16939E+04 -1.06357E+03  1.68306E+04 -1.13538E+04  9.56644E+03 -1.67040E+04 -3.64453E+03
 -1.25431E+04 -1.56677E+04 -1.67125E+03 -2.04651E+04  9.31812E+03 -1.68454E+04  1.71975E+04 -8.41146E+03
  1.56189E+04  6.04857E+02  1.10139E+04  4.17817E+03  5.78822E+03  9.08058E+02  8.14802E+03 -1.31541E+03
  1.52978E+04  2.94743E+03  1.62289E+04  1.34751E+04  1.06111E+04  2.67906E+04 -3.00441E+03  2.92271E+04
 -1.72268E+04  2.29242E+04 -2.72866E+04  1.10751E+04 -2.79873E+04 -1.93710E+03 -2.38551E+04 -1.61137E+04
 -1.05327E+04 -2.29757E+04  7.60689E+03 -2.11895E+04  1.80751E+04 -1.15721E+04  1.68510E+04  4.07280E+03
  6.89076E+03  1.28369E+04 -7.66684E+03  1.12285E+04 -1.43115E+04  2.61283E+03 -1.11701E+04 -8.59363E+03
 -6.74306E+01 -1.34150E+04  6.58307E+03 -9.97119E+03  8.42149E+03 -1.15920E+03  1.69492E+03  5.75776E+03
 -6.04337E+03  1.79531E+03 -4.41861E+03 -4.79206E+03  1.81962E+02 -1.12842E+04  8.43571E+03 -1.16820E+04
  1.39032E+04 -5.61118E+03  1.37775E+04  2.68688E+03  1.19913E+04  1.08956E+04  5.58054E+03  1.64782E+04
 -2.42620E+03  1.78796E+04 -1.14006E+04  1.13999E+04 -1.28833E+04  3.40863E+03 -9.54471E+03 -2.38581E+03
 -4.60061E+03 -3.92511E+03 -5.94707E+02  1.25096E+03 -2.04598E+03  2.02211E+03 -3.95893E+03  4.04639E+03
 -8.96554E+03 -5.31364E+02 -9.54434E+03 -8.00943E+03 -3.93238E+03 -1.28686E+04  4.04756E+03 -9.46515E+03
  8.07995E+03 -4.11111E+03  5.78588E+03  2.35569E+03  4.91489E+02  3.25423E+03 -3.93744E+03  8.11959E+01
 -3.98356E+03 -5.84889E+03 -6.25246E+02 -8.52692E+03  4.72946E+03 -9.00510E+03  1.10093E+04 -4.63691E+03
  1.31969E+04  9.30674E+02  1.00030E+04  7.40453E+03  1.93951E+03  9.76121E+03 -6.00101E+03  9.51330E+03
 -7.75661E+03  3.04488E+03 -4.06654E+03 -1.26420E+03  1.61807E+03 -2.08979E+03  5.61610E+03 -1.05707E+03
  4.71080E+03  3.91375E+03  1.13459E+03  7.23043E+03 -4.95159E+03  6.89609E+03 -8.82447E+03  1.82915E+03
 -5.40227E+03 -4.20114E+03  6.44137E+02 -7.64102E+03  4.21700E+03 -3.75511E+03  4.51977E+03  1.23973E+03
  6.04636E+02  4.00887E+03 -4.45762E+03  5.64723E+03 -5.86342E+03  2.75830E+03 -5.71308E+03 -1.59889E+03
 -3.26620E+03 -7.17666E+03  1.56189E+03 -8.21004E+03  7.56287E+03 -5.64634E+03  7.78812E+03  1.24826E+03
  5.28416E+03  6.12057E+03 -2.63119E+02  8.07658E+03 -5.45237E+03  4.43946E+03 -6.32898E+03 -4.44039E+02
 -6.43150E+03 -6.02730E+03 -1.35450E+03 -5.77921E+03  3.18031E+03 -5.15716E+03  3.27452E+03 -2.86930E+03
  2.97378E+03  4.16227E+02 -2.91192E+01  1.44982E+03  2.83894E+02 -7.92626E+02  6.63438E+02 -2.55080E+03
  5.13060E+03 -1.36111E+03  6.57134E+03  6.39781E+02  6.56713E+03  3.78274E+03  5.36219E+03  8.69176E+03
 -1.78134E+03  1.01363E+04 -9.13640E+03  7.77106E+03 -1.17823E+04  1.60871E+03 -9.36720E+03 -3.46143E+03
 -4.87696E+03 -7.70576E+03 -2.85223E+02 -6.16298E+03  2.37972E+03 -2.52528E+03  1.99977E+03 -2.65892E+03
  1.84429E+03 -1.93285E+03  2.36526E+03 -2.46369E+03  4.06034E+03 -1.65303E+03  4.40910E+03  3.17211E+02
  5.20132E+03  1.26601E+03  1.94307E+03  4.18062E+03 -1.64276E+03  3.63139E+03 -4.86147E+03  3.03005E+03
 -5.91347E+03 -1.03780E+03 -2.63757E+03 -4.06762E+03  4.51711E+02 -5.90700E+03  3.63890E+03 -6.44779E+03
  6.18106E+03 -3.80718E+03  8.09476E+03  5.27317E+02  5.98179E+03  5.18242E+03  1.19951E+03  7.38645E+03
 -2.78271E+03  6.65717E+03 -4.09258E+03  2.13381E+03 -2.49324E+03 -1.15299E+03 -4.48172E+02 -6.78194E+02
 -5.40258E+02  3.54011E+02 -1.03149E+03  2.07035E+03 -2.94437E+03  1.34698E+03 -4.46184E+03 -5.16302E+02
 -2.00932E+03 -4.51380E+03  5.19426E+02 -5.51371E+03  3.41752E+03 -5.35662E+03  4.65198E+03 -1.36651E+03
  4.92685E+03  2.75627E+03  2.15536E+03  4.48532E+03 -7.72584E+02  5.49932E+03 -3.24149E+03  3.52818E+03
 -4.93054E+03  3.38951E+02 -4.17603E+03 -2.79864E+03 -3.11299E+02 -4.19257E+03  2.03565E+03 -3.10774E+03
  3.43729E+03 -1.54351E+03  2.21164E+03  6.87404E+02  5.49748E+02  2.19711E+03  1.02289E+03  4.05652E+02
  1.59753E+03  6.89245E+02  1.54224E+03  9.31363E+02  1.21098E+03  2.56384E+03  1.65349E+03  2.32362E+03
 -1.60163E+03  3.58864E+03 -2.93305E+03  4.71738E+03 -4.04550E+03  1.29765E+03 -5.26323E+03 -1.09815E+03
 -2.35862E+03 -4.58036E+03  9.54805E+02 -5.79304E+03  2.45059E+03 -3.07997E+03  3.78151E+03 -1.23053E+03
  3.08855E+03  2.32863E+03  5.69527E+02  2.74390E+03 -9.55170E+02  1.67582E+03 -1.71592E+03 -2.12681E+02
 -7.55746E+02 -2.02567E+03  1.70108E+03 -1.95848E+03  1.90692E+03 -1.24847E+03  1.71895E+03  4.08534E+02
  1.15076E+03  6.26312E+02  8.58451E+02  1.02547E+02 -5.56806E+02  6.74365E+02  1.45261E+03 -4.13552E+02
  3.93751E+02 -1.67654E+02  2.06979E+03  6.60507E+02  6.50592E+02  2.93223E+03 -1.84764E+02  3.78324E+03
 -2.14916E+03  1.30945E+03 -2.68895E+03  2.12185E+02 -2.75425E+03 -1.18271E+03 -3.29928E+02 -1.43470E+03
  3.89356E+02 -1.48227E+03  1.04963E+03 -7.15795E+02  1.06748E+03  1.65819E+03 -6.39540E+02  1.53939E+03
 -1.90818E+03  1.06883E+03 -1.75341E+03 -1.64133E+03 -1.09442E+03 -2.55085E+03  2.57916E+02 -2.03776E+03
  8.48715E+02 -1.03168E+03  1.43367E+03  3.30373E+02  1.36569E+03  1.33413E+02  2.20957E+02  1.30077E+03
 -5.58867E+02  1.75474E+01 -1.11669E+03 -4.00178E+02  6.19645E+02 -1.32742E+03  2.08739E+03 -1.02349E+03
  1.87532E+03  1.03048E+02  3.39660E+03  1.34938E+03  1.10997E+03  2.49912E+03 -3.11159E+02  2.59195E+03
 -1.95500E+03  6.90083E+02 -2.12440E+03 -9.53427E+01 -1.10216E+03 -1.50626E+03  2.06158E+02 -9.78031E+02
  2.02357E+03 -8.65512E+02  1.16520E+03  6.32155E+02 -1.71145E+02  1.45052E+03  2.05086E+01  1.23562E+03
 -2.90438E+02  1.18025E+03 -4.97453E+02  4.60815E+02 -2.19392E+02  2.21882E+02 -1.00575E+03  4.62960E+02
 -5.76378E+02  1.24704E+03 -2.20406E+03  9.61702E+02 -2.22674E+03 -3.82888E+01 -3.26301E+03 -1.35987E+03
 -1.35592E+03 -3.23958E+03  6.81747E+02 -3.34387E+03  1.60822E+03 -3.11286E+03  3.37531E+03 -1.08307E+03
  3.33595E+03 -8.99455E+01  1.38403E+03  1.99324E+03 -5.52967E+02  2.42418E+03 -7.94275E+02  1.53148E+03
 -1.28313E+03  9.76171E+02 -8.12490E+02  1.25846E+02 -1.34071E+02  4.89767E+02 -8.26784E+02 -1.61301E+02
 -1.09082E+03  2.40011E+02 -9.58817E+02  2.19989E+02  5.00027E+01 -6.37997E+02 -3.55304E+02 -1.17704E+03
  1.40847E+03 -5.01781E+02  7.73440E+02  2.57189E+02  1.54290E+03  1.28108E+03  9.16621E+00  2.04248E+03
 -1.15727E+03  2.96868E+03 -2.09438E+03  1.73686E+03 -2.38287E+03 -3.95221E+02 -1.75730E+03 -1.94419E+03
 -1.38678E+03 -1.85842E+03  3.95133E+02 -1.60308E+03  9.25021E+02 -8.83521E+02  9.07316E+02 -6.26343E+01
  9.96090E+02  5.23827E+02  3.79767E+02  5.41099E+02 -6.69026E+02 -3.59946E+02  1.81864E+02 -5.84939E+02
  7.67298E+02  1.82147E+02  8.07473E+02  4.95739E+02  9.88838E+01  3.03500E+02  2.32893E+02  9.23299E+02
 -7.21720E+02  7.45869E+02 -7.87679E+02  3.20688E+02 -1.10517E+03 -6.78509E+02 -1.77811E+02 -1.61865E+03
  7.62683E+02 -1.31807E+03  7.48982E+02 -1.62277E+02  1.40991E+03 -5.26776E+02  8.89046E+02  1.07539E+03
  6.36655E+02  8.63466E+02 -1.54189E+02  8.44193E+02 -5.71292E+02  8.11256E+02 -2.56646E+02  2.24695E+02
 -3.92676E+02 -1.95253E+02 -5.95104E+02  4.91410E+01 -7.63124E+02  3.85554E+02 -1.17701E+03 -4.48595E+01
 -1.44139E+03 -8.99521E+01 -4.47620E+02 -1.15474E+03  8.47928E+02 -2.00667E+03  8.97694E+02 -1.96956E+02
  9.94462E+02 -1.53147E+02 -4.66667E+00  3.22902E+02 -1.67362E+02  1.14966E+03 -7.93864E+02  7.58267E+02
