 $NMID ID='MM_0lb_SNR800_13hz_g40_76.RAW', FMTDAT='(8E13.5)'
 TRAMP=1., VOLUME=1. $END
  3.09888E+05  8.69429E+01  3.37655E+05  2.50775E+05  8.44949E+04  3.37916E+05 -1.32683E+05  2.50999E+05
 -1.90127E+05  8.26906E+04 -1.11813E+05 -3.25922E+04  7.40266E+02 -5.02751E+04  5.41037E+04 -3.80072E+02
  3.54380E+04  5.26900E+04 -1.69099E+04  7.54439E+04 -6.06061E+04  6.35674E+04 -8.39864E+04  3.19628E+04
 -8.06009E+04 -1.13760E+04 -5.70117E+04 -5.11757E+04 -1.50680E+04 -6.95530E+04  2.76857E+04 -4.56038E+04
  4.01446E+04  3.74427E+03  1.61792E+04  4.75670E+04 -3.44309E+04  4.68934E+04 -6.66083E+04 -2.76089E+02
 -5.30918E+04 -5.67437E+04 -6.72800E+03 -7.71470E+04  3.41538E+04 -5.48942E+04  4.76250E+04 -1.71894E+04
  4.33124E+04  1.12577E+04  3.16954E+04  2.52463E+04  1.60104E+04  2.95163E+04 -5.20210E+03  2.71289E+04
 -2.20199E+04  1.25486E+04 -1.87811E+04 -5.01876E+03  5.42592E+03 -7.44358E+03  2.24409E+04  1.20878E+04
  7.26833E+03  3.49596E+04 -3.20724E+04  3.54982E+04 -6.34799E+04  2.08680E+03 -5.68909E+04 -4.27907E+04
 -1.25676E+04 -6.28806E+04  3.94702E+04 -4.49602E+04  5.79351E+04 -2.18255E+03  3.42970E+04  3.20652E+04
 -6.06109E+03  3.58767E+04 -2.99543E+04  1.56013E+04 -3.01604E+04 -4.46341E+03 -1.64703E+04 -1.08896E+04
 -8.24031E+03 -1.32037E+04 -7.90798E+02 -1.80997E+04  7.49745E+03 -2.29150E+04  1.54341E+04 -1.32902E+04
  1.16915E+04  5.14772E+03 -8.44854E+03  1.28868E+04 -2.14672E+04 -4.34393E+03 -8.36615E+03 -3.38597E+04
  2.27845E+04 -4.33303E+04  4.80048E+04 -1.97743E+04  4.49894E+04  1.97424E+04  1.57822E+04  4.39033E+04
 -1.58984E+04  3.37958E+04 -2.52933E+04  1.74648E+03 -9.68366E+03 -2.78416E+04  2.08071E+04 -3.38561E+04
  4.07401E+04 -9.43792E+03  3.55250E+04  2.38287E+04  1.77803E+04  4.61898E+04 -7.99982E+03  5.02627E+04
 -3.13951E+04  3.36837E+04 -4.18509E+04  9.51902E+03 -4.21789E+04 -1.68521E+04 -2.34042E+04 -3.79526E+04
  7.34537E+03 -3.79324E+04  3.17574E+04 -1.45396E+04  2.91674E+04  1.05740E+04  4.14635E+03  1.93113E+04
 -1.34076E+04  8.68983E+03 -1.02995E+04 -7.80115E+03  6.06121E+03 -1.08684E+04  1.78175E+04  5.86360E+03
  1.34431E+04  2.22152E+04 -5.93034E+03  2.50621E+04 -2.25392E+04  1.16830E+04 -2.77920E+04 -4.70412E+03
 -2.07183E+04 -1.73850E+04 -8.43723E+03 -2.08420E+04  4.14744E+03 -1.96024E+04  1.55674E+04 -1.82803E+04
  2.63052E+04 -1.25625E+04  3.22921E+04  3.01042E+03  2.36246E+04  1.98315E+04  4.44603E+03  3.64198E+04
 -1.81193E+04  3.06898E+04 -2.79840E+04  1.04565E+04 -2.06019E+04 -1.02315E+04 -4.59199E+03 -1.34236E+04
  1.83735E+03 -3.04728E+03 -5.04257E+03  6.40260E+03 -1.61973E+04  4.91439E+03 -1.64558E+04 -7.16151E+03
 -1.01517E+04 -1.92303E+04  5.30607E+03 -2.29594E+04  1.51821E+04 -1.68490E+04  1.84198E+04 -1.86108E+03
  1.12126E+04  1.31214E+04 -6.49073E+02  1.89788E+04 -1.32985E+04  1.10205E+04 -1.87884E+04 -4.00321E+03
 -1.41024E+04 -1.70469E+04 -1.98621E+03 -2.28903E+04  1.04183E+04 -1.87963E+04  1.90550E+04 -9.59245E+03
  1.77055E+04  1.39561E+02  1.27596E+04  4.47036E+03  6.88968E+03  8.72225E+02  9.66267E+03 -1.87594E+03
  1.75549E+04  2.62314E+03  1.94972E+04  1.53286E+04  1.29650E+04  3.01952E+04 -2.80936E+03  3.41871E+04
 -2.02179E+04  2.77766E+04 -3.24646E+04  1.41848E+04 -3.37130E+04 -2.33296E+03 -2.76973E+04 -1.94437E+04
 -1.19313E+04 -2.78725E+04  9.27343E+03 -2.48602E+04  2.15214E+04 -1.25164E+04  1.95176E+04  5.37598E+03
  7.32461E+03  1.43343E+04 -8.81743E+03  1.25939E+04 -1.61414E+04  2.58923E+03 -1.25258E+04 -1.00538E+04
 -1.84614E+02 -1.55355E+04  7.99734E+03 -1.15792E+04  1.01794E+04 -1.47786E+03  2.38264E+03  6.77515E+03
 -7.10807E+03  2.33458E+03 -6.15526E+03 -5.63323E+03 -4.70565E+02 -1.34964E+04  9.67988E+03 -1.42606E+04
  1.71447E+04 -7.46827E+03  1.81435E+04  3.21314E+03  1.61988E+04  1.32628E+04  7.29641E+03  2.07361E+04
 -3.00815E+03  2.24894E+04 -1.43317E+04  1.38777E+04 -1.61701E+04  3.28555E+03 -1.13231E+04 -3.91909E+03
 -5.43983E+03 -4.88265E+03 -6.73597E+02  9.26934E+02 -2.02324E+03  2.80217E+03 -5.30538E+03  4.45943E+03
 -1.08297E+04 -5.80194E+02 -1.17689E+04 -9.21828E+03 -4.49537E+03 -1.50197E+04  4.63509E+03 -1.15403E+04
  9.91275E+03 -4.74743E+03  6.76123E+03  3.24300E+03  4.31268E+02  4.56251E+03 -5.38283E+03 -8.06855E+01
 -5.21078E+03 -7.26237E+03 -9.65585E+02 -1.08261E+04  6.00801E+03 -1.16112E+04  1.42288E+04 -5.92176E+03
  1.71300E+04  1.47221E+03  1.24423E+04  9.68555E+03  2.37562E+03  1.32032E+04 -6.88446E+03  1.14197E+04
 -9.16155E+03  3.34299E+03 -4.79737E+03 -2.27854E+03  1.79009E+03 -2.94523E+03  6.42978E+03 -8.23446E+02
  5.34687E+03  4.85336E+03  1.40240E+03  9.01925E+03 -6.58138E+03  8.59876E+03 -1.11717E+04  2.36169E+03
 -7.23143E+03 -5.72254E+03 -1.06898E+02 -9.58048E+03  6.04097E+03 -4.83318E+03  5.98714E+03  1.78756E+03
  1.08945E+03  6.19806E+03 -6.07747E+03  7.68520E+03 -8.41077E+03  4.00748E+03 -8.40366E+03 -2.38038E+03
 -5.11577E+03 -9.84861E+03  2.42940E+03 -1.17548E+04  1.00537E+04 -7.21428E+03  1.06918E+04  1.63634E+03
  6.65685E+03  8.54119E+03 -8.86048E+02  1.06050E+04 -7.68229E+03  6.29844E+03 -8.22775E+03 -9.37659E+02
 -7.91153E+03 -7.41362E+03 -1.10183E+03 -8.00409E+03  4.11108E+03 -6.79880E+03  4.95378E+03 -3.46669E+03
  3.60415E+03  7.30423E+02 -5.92832E+02  1.66759E+03  3.23795E+02 -1.41548E+03  1.15323E+03 -4.01845E+03
  6.99069E+03 -2.53129E+03  9.60114E+03  1.24108E+03  1.00208E+04  6.34244E+03  7.18995E+03  1.28789E+04
 -2.72449E+03  1.48632E+04 -1.28984E+04  1.13827E+04 -1.64570E+04  2.01840E+03 -1.30944E+04 -5.45014E+03
 -6.82096E+03 -1.11047E+04 -6.06320E+02 -9.20209E+03  3.68421E+03 -5.02198E+03  3.35998E+03 -3.28753E+03
  2.36693E+03 -2.46592E+03  2.86456E+03 -3.38363E+03  4.04725E+03 -2.20571E+03  5.29178E+03 -3.78777E+02
  7.01679E+03  1.43711E+03  3.45519E+03  5.75212E+03 -1.40996E+03  6.35333E+03 -7.17798E+03  5.06915E+03
 -8.64074E+03 -9.41275E+02 -4.74316E+03 -6.25038E+03 -1.74488E+01 -9.33982E+03  5.47365E+03 -9.66779E+03
  9.74377E+03 -5.47190E+03  1.18176E+04  1.11405E+03  7.78013E+03  8.18726E+03  1.57845E+03  1.09864E+04
 -4.17773E+03  9.36579E+03 -6.40472E+03  2.99658E+03 -4.27099E+03 -1.37428E+03 -1.36970E+03 -1.07679E+03
 -5.58873E+02  2.80853E+02 -1.61076E+03  2.23140E+03 -3.98837E+03  1.65430E+03 -6.51835E+03 -8.48927E+02
 -3.72295E+03 -6.30582E+03  4.24119E+02 -8.68138E+03  5.61459E+03 -7.99493E+03  7.94674E+03 -2.29095E+03
  8.19970E+03  4.28039E+03  3.55234E+03  7.65097E+03 -1.72241E+03  8.72904E+03 -5.89322E+03  5.39006E+03
 -7.83497E+03  5.98355E+02 -6.05789E+03 -5.15514E+03 -4.79094E+02 -6.63674E+03  3.59644E+03 -5.03578E+03
  5.36140E+03 -1.87143E+03  3.63289E+03  1.37808E+03  1.34715E+03  2.48191E+03  6.31114E+02  1.13755E+03
  2.42772E+03  1.13393E+03  1.97548E+03  1.40700E+03  2.27975E+03  3.14137E+03  2.42207E+03  4.25485E+03
 -2.26674E+03  6.33771E+03 -5.57771E+03  7.20299E+03 -7.81817E+03  1.97316E+03 -8.71342E+03 -2.78964E+03
 -4.27585E+03 -8.22201E+03  1.13854E+03 -9.59165E+03  4.67862E+03 -5.79572E+03  6.53678E+03 -1.46455E+03
  5.43414E+03  3.51991E+03  1.10564E+03  4.79327E+03 -1.52145E+03  2.63341E+03 -3.02992E+03 -5.87371E+02
 -1.33244E+03 -3.39928E+03  2.13211E+03 -3.63394E+03  3.27777E+03 -2.19799E+03  3.47303E+03  1.32553E+03
  2.18412E+03  1.47276E+03  8.84854E+02  8.58984E+02 -3.19146E+02  1.13041E+03  1.35572E+03 -1.33140E+02
  1.23854E+03 -4.92877E+02  3.49074E+03  1.31637E+03  1.64413E+03  4.25557E+03 -6.03848E+02  5.77378E+03
 -4.07652E+03  3.27207E+03 -4.93094E+03  1.12585E+03 -4.41536E+03 -1.62624E+03 -1.25793E+03 -2.75868E+03
  7.11645E+02 -3.13985E+03  2.28044E+03 -1.35370E+03  1.70278E+03  1.92323E+03 -1.30893E+03  2.62316E+03
 -3.14783E+03  1.69479E+03 -3.30556E+03 -2.09624E+03 -2.03723E+03 -4.33523E+03  6.06763E+02 -4.08943E+03
  1.88765E+03 -2.30193E+03  2.63455E+03 -3.21159E+02  2.91695E+03  5.43386E+02  9.94770E+01  2.51173E+03
 -1.28941E+03  6.18517E+02 -1.90817E+03 -7.40834E+02  9.76226E+02 -3.37816E+03  3.67387E+03 -2.45281E+03
  4.29810E+03  6.04090E+02  5.11855E+03  2.77909E+03  1.63777E+03  4.73955E+03 -1.09829E+03  4.97699E+03
 -4.02230E+03  1.79800E+03 -4.05237E+03 -7.61515E+02 -2.32550E+03 -3.30203E+03  6.36148E+02 -2.42388E+03
  3.39303E+03 -1.28590E+03  2.76944E+03  1.24524E+03  6.49783E+02  2.84342E+03 -3.54084E+02  2.36787E+03
 -7.35379E+02  1.49885E+03 -9.72798E+02  4.03681E+02 -3.79685E+02  4.72935E+02 -1.28619E+03  9.22965E+02
 -1.43831E+03  1.97632E+03 -3.51777E+03  1.66271E+03 -4.60877E+03  5.21840E+01 -5.58093E+03 -3.27169E+03
 -2.60516E+03 -6.03751E+03  1.28955E+03 -7.37788E+03  4.21913E+03 -6.33753E+03  7.27756E+03 -2.36328E+03
  6.60190E+03  7.56920E+02  4.01385E+03  4.48745E+03 -9.55768E+01  4.82671E+03 -1.70546E+03  3.83358E+03
 -2.40709E+03  1.85879E+03 -1.50233E+03 -8.22526E+02 -9.93261E+02 -1.97888E+02 -8.82028E+02 -3.74835E+01
 -1.57478E+03  1.94818E+02 -1.53733E+03 -4.86659E+02 -4.48675E+00 -1.03425E+03  8.04631E+01 -1.74858E+03
  2.53596E+03 -1.61169E+03  2.39979E+03 -2.37932E+01  3.30752E+03  2.68092E+03  3.69901E+02  4.58090E+03
 -2.64504E+03  5.68885E+03 -4.73631E+03  3.46103E+03 -5.43713E+03 -5.72177E+02 -4.03788E+03 -3.45829E+03
 -2.02754E+03 -4.63912E+03  1.02459E+03 -4.12935E+03  2.79718E+03 -2.52240E+03  2.81926E+03  3.62596E+02
  2.14192E+03  1.29977E+03 -3.76551E+02  1.13697E+03 -7.31370E+02 -4.62947E+00 -9.03049E+01 -1.10962E+03
  1.47966E+03 -6.99131E+02  2.03491E+03  7.73044E+02  1.08561E+03  1.75200E+03  4.76660E+02  1.89585E+03
 -2.04482E+03  2.05500E+03 -2.70633E+03  7.74659E+01 -2.70441E+03 -2.09345E+03 -2.19299E+02 -4.01450E+03
  1.78629E+03 -2.86869E+03  3.01935E+03 -9.24184E+02  3.78593E+03  4.53321E+02  2.12759E+03  2.56087E+03
  7.41628E+02  2.83139E+03 -9.89794E+02  2.11252E+03 -1.85825E+03  1.43955E+03 -1.56423E+03  5.33923E+02
 -7.61100E+02 -7.44277E+00 -1.08448E+03  4.08379E+02 -1.39685E+03  6.94065E+02 -2.39866E+03 -3.27605E+02
 -2.62666E+03 -1.00740E+03 -1.13509E+03 -2.89066E+03  1.62234E+03 -3.51717E+03  2.70361E+03 -1.56632E+03
  2.90007E+03  1.69324E+02  1.22846E+03  1.63848E+03 -1.32046E+02  2.77266E+03 -2.09575E+03  1.96418E+03
