 $NMID ID='MM_0lb_SNR800_14hz_g50_75.RAW', FMTDAT='(8E13.5)'
 TRAMP=1., VOLUME=1. $END
  3.09848E+05  5.68320E+02  3.37861E+05  2.50310E+05  8.42564E+04  3.37856E+05 -1.32715E+05  2.50927E+05
 -1.90420E+05  8.33882E+04 -1.11757E+05 -3.26367E+04  7.82990E+02 -5.07079E+04  5.36411E+04  1.02762E+02
  3.54906E+04  5.30103E+04 -1.68464E+04  7.54481E+04 -6.05510E+04  6.36112E+04 -8.43192E+04  3.18436E+04
 -8.09440E+04 -1.15097E+04 -5.71068E+04 -5.14483E+04 -1.49188E+04 -6.96150E+04  2.74590E+04 -4.57240E+04
  4.00768E+04  3.69290E+03  1.58375E+04  4.77404E+04 -3.48473E+04  4.76009E+04 -6.68158E+04 -1.23905E+02
 -5.34638E+04 -5.68930E+04 -6.83870E+03 -7.69594E+04  3.40429E+04 -5.50145E+04  4.80181E+04 -1.71516E+04
  4.35225E+04  1.15350E+04  3.19812E+04  2.57924E+04  1.57390E+04  2.94824E+04 -5.07254E+03  2.74237E+04
 -2.19885E+04  1.23439E+04 -1.82988E+04 -4.65671E+03  5.65004E+03 -7.38988E+03  2.22904E+04  1.27765E+04
  7.23487E+03  3.52415E+04 -3.21931E+04  3.56044E+04 -6.33899E+04  1.68379E+03 -5.69132E+04 -4.26713E+04
 -1.27217E+04 -6.32765E+04  3.97649E+04 -4.58344E+04  5.82393E+04 -1.96889E+03  3.40483E+04  3.25695E+04
 -6.26322E+03  3.62971E+04 -3.00735E+04  1.61396E+04 -3.04208E+04 -4.35073E+03 -1.69416E+04 -1.08551E+04
 -8.55159E+03 -1.33439E+04 -8.45155E+02 -1.80449E+04  7.64174E+03 -2.29809E+04  1.55677E+04 -1.35438E+04
  1.14951E+04  5.09207E+03 -8.30589E+03  1.31882E+04 -2.13417E+04 -4.28880E+03 -8.26168E+03 -3.38925E+04
  2.30833E+04 -4.35563E+04  4.82909E+04 -1.98582E+04  4.53975E+04  1.95230E+04  1.61225E+04  4.43343E+04
 -1.60976E+04  3.36163E+04 -2.57343E+04  1.71263E+03 -9.92337E+03 -2.76508E+04  2.10397E+04 -3.39629E+04
  4.12611E+04 -8.69110E+03  3.58964E+04  2.39726E+04  1.80900E+04  4.68918E+04 -8.19609E+03  5.05422E+04
 -3.15520E+04  3.38599E+04 -4.19896E+04  9.84287E+03 -4.26914E+04 -1.67841E+04 -2.36615E+04 -3.80531E+04
  7.43690E+03 -3.80136E+04  3.17986E+04 -1.51026E+04  2.92370E+04  1.07277E+04  4.06062E+03  1.89302E+04
 -1.35012E+04  8.12743E+03 -1.01808E+04 -7.38513E+03  5.92854E+03 -1.07199E+04  1.79181E+04  5.97118E+03
  1.34620E+04  2.21366E+04 -6.24399E+03  2.49806E+04 -2.26150E+04  1.17560E+04 -2.81616E+04 -4.45880E+03
 -2.05804E+04 -1.71294E+04 -8.48308E+03 -2.07122E+04  4.04436E+03 -1.97717E+04  1.55683E+04 -1.83027E+04
  2.62545E+04 -1.28222E+04  3.29069E+04  3.01864E+03  2.38085E+04  2.02933E+04  4.34232E+03  3.66515E+04
 -1.79603E+04  3.05148E+04 -2.82692E+04  1.05476E+04 -2.09122E+04 -1.00813E+04 -4.17062E+03 -1.33670E+04
  1.92102E+03 -2.89354E+03 -4.92789E+03  6.55426E+03 -1.64078E+04  5.17962E+03 -1.63893E+04 -7.18160E+03
 -1.01775E+04 -1.89270E+04  5.13418E+03 -2.31874E+04  1.50897E+04 -1.65247E+04  1.83439E+04 -1.47835E+03
  1.12726E+04  1.33614E+04 -8.72964E+02  1.91317E+04 -1.32152E+04  1.09494E+04 -1.90365E+04 -4.08154E+03
 -1.37775E+04 -1.72167E+04 -1.61751E+03 -2.30615E+04  1.04006E+04 -1.91621E+04  1.91823E+04 -9.50784E+03
  1.81426E+04  3.50143E+02  1.28107E+04  4.27735E+03  6.85973E+03  9.74634E+02  9.87944E+03 -1.63216E+03
  1.76267E+04  2.65336E+03  1.96011E+04  1.54284E+04  1.27976E+04  3.05855E+04 -3.25250E+03  3.43662E+04
 -2.01648E+04  2.75189E+04 -3.21328E+04  1.39907E+04 -3.37966E+04 -2.34773E+03 -2.79313E+04 -1.94950E+04
 -1.18005E+04 -2.76911E+04  9.78465E+03 -2.50040E+04  2.15339E+04 -1.30355E+04  1.91918E+04  5.43683E+03
  7.09076E+03  1.42829E+04 -8.98163E+03  1.26744E+04 -1.63300E+04  2.56549E+03 -1.26236E+04 -9.96819E+03
 -4.58421E+02 -1.53946E+04  8.15481E+03 -1.14273E+04  1.01239E+04 -1.30549E+03  2.29931E+03  6.65355E+03
 -6.96020E+03  2.38301E+03 -5.98276E+03 -5.72003E+03 -5.58263E+02 -1.37893E+04  9.53052E+03 -1.45019E+04
  1.69300E+04 -7.37942E+03  1.79718E+04  3.05024E+03  1.55901E+04  1.33663E+04  7.53553E+03  2.05402E+04
 -3.46431E+03  2.24799E+04 -1.42569E+04  1.40863E+04 -1.60262E+04  3.64665E+03 -1.16272E+04 -3.78467E+03
 -5.58902E+03 -5.13104E+03 -9.29829E+02  9.49797E+02 -2.59640E+03  2.49936E+03 -5.33048E+03  4.34490E+03
 -1.04493E+04 -8.53877E+02 -1.13992E+04 -9.11711E+03 -4.48871E+03 -1.43382E+04  4.70072E+03 -1.17058E+04
  9.84822E+03 -4.72158E+03  6.76589E+03  3.42357E+03  1.95691E+02  4.46525E+03 -4.87817E+03 -7.71109E+01
 -5.29445E+03 -7.21917E+03 -7.28000E+02 -1.07734E+04  6.06205E+03 -1.12303E+04  1.39477E+04 -5.85797E+03
  1.66927E+04  1.12572E+03  1.18013E+04  9.49761E+03  2.29900E+03  1.30792E+04 -7.12596E+03  1.12199E+04
 -9.20586E+03  3.59741E+03 -4.70024E+03 -1.95857E+03  1.80284E+03 -3.06484E+03  5.88068E+03 -8.46609E+02
  5.46417E+03  4.57900E+03  8.68300E+02  8.85609E+03 -6.20451E+03  8.78623E+03 -1.11116E+04  2.35598E+03
 -7.50435E+03 -5.63889E+03 -1.15568E+02 -9.28047E+03  5.65272E+03 -4.77083E+03  5.71402E+03  2.17470E+03
  1.20668E+03  5.83953E+03 -5.78842E+03  7.44376E+03 -8.22999E+03  3.38235E+03 -8.35890E+03 -2.44225E+03
 -4.78993E+03 -9.75748E+03  2.46725E+03 -1.16557E+04  9.58090E+03 -7.29809E+03  1.07188E+04  2.25038E+03
  6.53278E+03  8.61543E+03 -4.25481E+02  1.06221E+04 -7.66519E+03  5.88273E+03 -8.37601E+03 -3.44515E+02
 -7.71639E+03 -7.27777E+03 -1.60716E+03 -7.85110E+03  4.22018E+03 -6.50071E+03  4.71592E+03 -3.28018E+03
  3.58374E+03  9.88765E+02 -4.63358E+02  1.48392E+03  1.79546E+01 -1.48515E+03  1.31051E+03 -3.99877E+03
  6.97200E+03 -2.51333E+03  9.55816E+03  8.51657E+02  9.34498E+03  5.81965E+03  7.14425E+03  1.20536E+04
 -2.80389E+03  1.41772E+04 -1.23685E+04  1.07643E+04 -1.63092E+04  2.14960E+03 -1.25732E+04 -5.13045E+03
 -6.68033E+03 -1.05493E+04 -3.12175E+02 -8.61842E+03  3.56298E+03 -4.68682E+03  3.19640E+03 -3.38277E+03
  2.09847E+03 -2.04317E+03  2.96200E+03 -2.89098E+03  4.34978E+03 -2.16303E+03  5.60293E+03 -1.75244E+02
  6.35736E+03  1.43204E+03  2.65512E+03  5.44836E+03 -1.88370E+03  6.06093E+03 -6.89699E+03  4.63553E+03
 -8.66854E+03 -1.00429E+03 -4.50899E+03 -5.94095E+03 -2.14441E+02 -8.74451E+03  5.53238E+03 -9.11986E+03
  9.10221E+03 -5.52107E+03  1.15469E+04  9.00250E+02  7.88569E+03  7.60964E+03  1.62647E+03  1.04583E+04
 -4.06208E+03  9.07167E+03 -5.79772E+03  3.00567E+03 -3.69164E+03 -1.29349E+03 -1.07121E+03 -1.02588E+03
 -5.36556E+02  4.05370E+01 -1.33261E+03  2.32506E+03 -3.35308E+03  1.52257E+03 -6.15079E+03 -9.68655E+02
 -3.55526E+03 -5.90528E+03  5.27648E+02 -8.20743E+03  5.12806E+03 -7.79145E+03  7.60508E+03 -2.38815E+03
  7.54737E+03  4.09908E+03  3.66947E+03  6.96753E+03 -1.54130E+03  7.95165E+03 -5.59832E+03  4.98123E+03
 -7.26359E+03  5.90023E+02 -6.09954E+03 -4.71130E+03 -5.93208E+02 -6.59864E+03  3.17467E+03 -4.71679E+03
  4.94380E+03 -2.02044E+03  3.54728E+03  1.07046E+03  9.72138E+02  2.63866E+03  1.30089E+03  1.43450E+03
  2.06087E+03  8.84381E+02  1.85875E+03  1.61165E+03  2.27576E+03  3.28850E+03  2.14025E+03  3.94110E+03
 -2.00731E+03  5.93724E+03 -5.38416E+03  6.45477E+03 -7.63207E+03  2.11947E+03 -8.13659E+03 -2.17321E+03
 -3.61568E+03 -7.50768E+03  1.18587E+03 -8.52708E+03  4.37743E+03 -5.28920E+03  6.40634E+03 -1.84009E+03
  4.97837E+03  3.26522E+03  8.78078E+02  4.24933E+03 -2.21050E+03  2.72426E+03 -2.66571E+03 -6.05718E+02
 -1.42118E+03 -2.67049E+03  2.04447E+03 -3.27708E+03  2.99711E+03 -1.68232E+03  3.12316E+03  8.70936E+02
  1.34738E+03  1.42395E+03  1.04072E+03  6.97031E+02 -1.90475E+02  1.09800E+03  1.54019E+03 -1.28504E+02
  8.85048E+02 -4.14605E+02  3.00600E+03  1.19188E+03  1.31429E+03  4.58931E+03 -7.22021E+02  5.38374E+03
 -3.25380E+03  2.84993E+03 -4.70370E+03  8.14071E+02 -4.14549E+03 -1.56809E+03 -8.04515E+02 -2.50375E+03
  8.90017E+02 -2.70570E+03  2.01064E+03 -1.28306E+03  1.35116E+03  2.10776E+03 -9.74803E+02  2.29681E+03
 -2.98459E+03  1.25520E+03 -2.87084E+03 -2.16175E+03 -1.89763E+03 -4.26182E+03  6.88910E+02 -3.60167E+03
  2.01762E+03 -2.24675E+03  2.58752E+03 -4.55424E+02  2.34283E+03  8.02265E+02  6.02164E+02  2.37540E+03
 -1.27392E+03  4.69989E+02 -1.76041E+03 -8.39713E+02  9.55952E+02 -2.40712E+03  3.49617E+03 -2.17170E+03
  3.52614E+03  6.58681E+02  4.54428E+03  2.61056E+03  1.57024E+03  4.14614E+03 -1.12521E+03  4.22281E+03
 -3.61235E+03  1.61269E+03 -3.64397E+03 -7.03684E+02 -2.03129E+03 -3.18654E+03  7.26349E+02 -2.27552E+03
  3.06298E+03 -1.31494E+03  2.20016E+03  1.23470E+03  5.34568E+02  2.30389E+03  4.25237E+01  2.67101E+03
 -1.19375E+03  1.88184E+03 -1.19137E+03  3.53342E+02 -5.66492E+00  4.03933E+02 -1.06352E+03  1.31943E+03
 -1.19923E+03  1.74111E+03 -3.48470E+03  1.26910E+03 -4.18110E+03  2.91363E+02 -5.20488E+03 -3.03345E+03
 -2.36151E+03 -5.34347E+03  1.13970E+03 -6.51335E+03  3.41477E+03 -5.15660E+03  6.14445E+03 -1.99938E+03
  5.84309E+03  7.64897E+02  3.69326E+03  3.55895E+03  1.63443E+01  4.02414E+03 -1.58333E+03  3.14541E+03
 -2.41229E+03  1.41856E+03 -1.31113E+03 -3.77610E+02 -6.16020E+02  1.19912E+01 -6.03109E+02  1.45043E+02
 -1.26345E+03  1.41572E+02 -1.31689E+03  2.36174E+02  1.10929E+02 -1.06691E+03  1.28527E+02 -1.65977E+03
  2.67484E+03 -1.46649E+03  2.09637E+03  2.12161E+02  2.88281E+03  2.24813E+03  2.12871E+02  4.24044E+03
 -1.94505E+03  4.96721E+03 -4.08558E+03  2.68265E+03 -4.67235E+03 -5.37600E+02 -3.56183E+03 -3.23860E+03
 -1.77606E+03 -4.29191E+03  7.09890E+02 -3.54820E+03  2.46268E+03 -1.92233E+03  2.36085E+03  4.55268E+01
  1.54298E+03  1.38540E+03  1.85828E+01  1.09087E+03 -8.41668E+02 -3.10494E+02  7.30733E+01 -5.97832E+02
  1.10645E+03 -1.69829E+02  1.26592E+03  5.48295E+02  8.78214E+02  1.62545E+03  5.68574E+02  1.59376E+03
 -1.74031E+03  1.65716E+03 -2.34889E+03  1.18119E+02 -2.32299E+03 -1.76690E+03 -2.96505E+02 -3.50888E+03
  1.59908E+03 -2.28213E+03  2.17371E+03 -6.28193E+02  2.62400E+03  6.29277E+01  1.60348E+03  2.27507E+03
  5.40527E+02  2.14806E+03 -1.03260E+03  1.90277E+03 -1.60498E+03  1.15976E+03 -9.25437E+02  1.44263E+02
 -5.70091E+02  3.52893E+01 -7.76808E+02  5.75708E+02 -1.43066E+03  2.95263E+02 -2.01453E+03 -2.39394E+02
 -1.94369E+03 -5.83023E+02 -5.93140E+02 -2.52849E+03  1.34517E+03 -3.23617E+03  1.89402E+03 -9.15757E+02
  2.46966E+03  1.90701E+02  8.14919E+02  1.37968E+03 -2.55238E+02  2.22021E+03 -1.66192E+03  1.55737E+03
