 $NMID ID='MM_0lb_SNR800_19hz_g40_76.RAW', FMTDAT='(8E13.5)'
 TRAMP=1., VOLUME=1. $END
  3.09753E+05  1.73173E+02  3.37393E+05  2.50272E+05  8.43555E+04  3.36926E+05 -1.32473E+05  2.50041E+05
 -1.89347E+05  8.20225E+04 -1.10821E+05 -3.28180E+04  1.41733E+03 -5.00709E+04  5.42218E+04  5.38449E+02
  3.48610E+04  5.24855E+04 -1.70422E+04  7.46127E+04 -6.04909E+04  6.23079E+04 -8.25631E+04  3.14987E+04
 -7.92336E+04 -1.10980E+04 -5.59571E+04 -4.98339E+04 -1.46949E+04 -6.75845E+04  2.65162E+04 -4.43910E+04
  3.87224E+04  4.03557E+03  1.54661E+04  4.68136E+04 -3.41132E+04  4.60538E+04 -6.48103E+04 -6.61772E+02
 -5.14175E+04 -5.55073E+04 -6.19937E+03 -7.45660E+04  3.26557E+04 -5.24630E+04  4.55134E+04 -1.57920E+04
  4.08919E+04  1.09845E+04  3.04054E+04  2.38813E+04  1.55809E+04  2.76480E+04 -4.44031E+03  2.66324E+04
 -2.14363E+04  1.28261E+04 -1.96256E+04 -4.06398E+03  3.93635E+03 -7.49983E+03  2.09253E+04  1.03796E+04
  7.39229E+03  3.26282E+04 -2.97421E+04  3.34383E+04 -6.05257E+04  2.06076E+03 -5.45918E+04 -4.05489E+04
 -1.23775E+04 -5.99905E+04  3.75741E+04 -4.28207E+04  5.44494E+04 -2.02908E+03  3.13453E+04  2.98305E+04
 -6.78361E+03  3.22655E+04 -2.81101E+04  1.26872E+04 -2.65943E+04 -5.59047E+03 -1.36254E+04 -9.75745E+03
 -7.25509E+03 -1.09961E+04 -9.78299E+02 -1.61029E+04  6.47546E+03 -2.25770E+04  1.50730E+04 -1.41144E+04
  1.25929E+04  3.97116E+03 -5.70388E+03  1.31535E+04 -1.87944E+04 -2.09578E+03 -7.97742E+03 -2.95147E+04
  2.04030E+04 -3.91520E+04  4.35307E+04 -1.82212E+04  4.10284E+04  1.79454E+04  1.36523E+04  4.09060E+04
 -1.49595E+04  3.04519E+04 -2.28451E+04  7.67697E+02 -7.82651E+03 -2.58394E+04  2.04789E+04 -3.02854E+04
  3.70644E+04 -6.80583E+03  3.02233E+04  2.25803E+04  1.45996E+04  4.13348E+04 -7.72100E+03  4.37555E+04
 -2.77572E+04  2.87358E+04 -3.59014E+04  7.85552E+03 -3.70514E+04 -1.43837E+04 -2.05817E+04 -3.32931E+04
  6.76173E+03 -3.32341E+04  2.85331E+04 -1.20986E+04  2.63492E+04  1.08485E+04  2.96085E+03  1.72518E+04
 -1.29613E+04  6.89960E+03 -9.62133E+03 -7.52062E+03  5.86430E+03 -1.00951E+04  1.70708E+04  6.16712E+03
  1.17743E+04  2.15933E+04 -6.68214E+03  2.31590E+04 -2.11703E+04  8.34427E+03 -2.43427E+04 -6.64664E+03
 -1.56468E+04 -1.61224E+04 -4.85624E+03 -1.60114E+04  3.91573E+03 -1.35726E+04  1.15350E+04 -1.32853E+04
  1.98849E+04 -1.11174E+04  2.69546E+04  4.96018E+02  2.06326E+04  1.54325E+04  4.14253E+03  3.12875E+04
 -1.56528E+04  2.68376E+04 -2.52726E+04  9.14896E+03 -1.93309E+04 -1.06481E+04 -3.64123E+03 -1.39657E+04
  2.93126E+03 -4.36541E+03 -2.08323E+03  5.13657E+03 -1.20949E+04  5.14377E+03 -1.25396E+04 -4.28626E+03
 -8.36434E+03 -1.46997E+04  4.42116E+03 -1.83198E+04  1.19903E+04 -1.31666E+04  1.35635E+04 -1.85667E+03
  8.55366E+03  1.02225E+04 -7.45082E+02  1.49018E+04 -9.59697E+03  8.34873E+03 -1.46726E+04 -3.45444E+03
 -1.07107E+04 -1.34949E+04 -1.47560E+03 -1.79313E+04  8.21796E+03 -1.44179E+04  1.53419E+04 -6.67952E+03
  1.34434E+04  8.54058E+02  9.78995E+03  3.84012E+03  4.68627E+03  1.73150E+02  6.93766E+03 -1.36375E+03
  1.29650E+04  2.77131E+03  1.37694E+04  1.20229E+04  8.16633E+03  2.32751E+04 -3.10301E+03  2.47792E+04
 -1.49782E+04  1.87549E+04 -2.25444E+04  8.81082E+03 -2.30935E+04 -1.64612E+03 -2.00150E+04 -1.30348E+04
 -9.71168E+03 -1.88921E+04  6.18932E+03 -1.76642E+04  1.57874E+04 -1.06828E+04  1.49675E+04  3.16454E+03
  6.24026E+03  1.04110E+04 -6.60510E+03  9.74824E+03 -1.25701E+04  2.80223E+03 -9.90804E+03 -7.64644E+03
 -2.05288E+02 -1.17784E+04  5.55876E+03 -9.08018E+03  7.45336E+03 -1.29277E+03  1.16227E+03  4.30639E+03
 -5.39442E+03  1.26558E+03 -3.12173E+03 -4.48882E+03  8.43598E+02 -9.63367E+03  7.42522E+03 -9.16031E+03
  1.10655E+04 -3.88730E+03  1.06738E+04  2.79169E+03  9.15529E+03  8.64408E+03  4.38138E+03  1.26087E+04
 -1.56205E+03  1.44172E+04 -8.66293E+03  9.12659E+03 -1.02131E+04  2.95208E+03 -8.05902E+03 -1.51600E+03
 -4.34064E+03 -2.91117E+03 -8.28820E+02  1.41924E+03 -1.66594E+03  1.64650E+03 -3.50902E+03  3.46701E+03
 -7.33784E+03 -5.33170E+02 -8.47474E+03 -6.71788E+03 -3.27997E+03 -1.06220E+04  3.20102E+03 -7.85161E+03
  6.80967E+03 -3.73863E+03  4.86591E+03  1.92458E+03  7.65864E+02  2.75135E+03 -3.18517E+03 -1.92055E+02
 -3.05051E+03 -4.74936E+03 -7.07196E+02 -6.73890E+03  3.63001E+03 -7.30801E+03  9.19518E+03 -3.62128E+03
  1.09104E+04  5.98550E+02  8.15475E+03  5.59187E+03  1.78284E+03  7.92112E+03 -4.90152E+03  7.84709E+03
 -6.61631E+03  2.80003E+03 -3.40563E+03 -9.49823E+02  1.01642E+03 -1.40679E+03  4.45139E+03 -8.87136E+02
  3.88042E+03  3.30178E+03  8.89923E+02  5.78536E+03 -4.19796E+03  6.03297E+03 -7.25846E+03  1.91990E+03
 -4.35695E+03 -3.30005E+03  1.83866E+02 -6.25138E+03  2.98714E+03 -2.89426E+03  2.94756E+03  9.44140E+02
  3.38808E+02  2.60760E+03 -3.60188E+03  4.37405E+03 -4.28092E+03  2.42333E+03 -3.78956E+03 -8.00436E+02
 -2.54275E+03 -5.27587E+03  1.03046E+03 -6.23904E+03  5.25242E+03 -4.22165E+03  5.81976E+03  1.03343E+03
  4.23268E+03  4.87020E+03  2.74293E+02  6.70249E+03 -4.72949E+03  3.94780E+03 -4.82253E+03 -2.91322E+02
 -5.48444E+03 -4.71660E+03 -1.35520E+03 -4.54201E+03  2.53701E+03 -4.55175E+03  2.65405E+03 -2.85085E+03
  2.68630E+03  2.93047E+02  3.64618E+01  1.24872E+03  7.23563E+02 -1.61088E+02 -1.41198E+02 -1.76885E+03
  3.29336E+03 -3.87484E+02  4.69628E+03  5.67564E+02  5.00544E+03  2.70827E+03  4.96988E+03  6.45974E+03
 -1.06414E+03  7.41341E+03 -7.19635E+03  5.81255E+03 -8.82252E+03  1.02363E+03 -6.99624E+03 -2.38961E+03
 -4.10386E+03 -5.91753E+03 -2.94189E+02 -4.74198E+03  2.12965E+03 -1.66125E+03  1.74129E+03 -1.80934E+03
  1.18398E+03 -1.52551E+03  1.84419E+03 -2.46138E+03  3.39350E+03 -1.20153E+03  3.59119E+03  6.96428E+02
  4.00379E+03  9.31582E+02  7.86985E+02  3.07432E+03 -1.66075E+03  2.22362E+03 -4.11839E+03  2.40267E+03
 -4.69906E+03 -9.02085E+02 -1.29473E+03 -2.96584E+03  4.67076E+02 -4.47233E+03  2.93103E+03 -4.78472E+03
  4.62581E+03 -3.07958E+03  6.01824E+03  3.17607E+01  4.37125E+03  3.79217E+03  1.35480E+03  5.33678E+03
 -1.57427E+03  5.56809E+03 -3.01127E+03  1.78605E+03 -1.79982E+03 -1.06665E+03 -5.10709E+02 -5.46837E+02
 -3.06246E+02  4.29833E+02 -1.03604E+03  2.07088E+03 -2.50297E+03  9.63433E+02 -4.04152E+03 -2.50308E+02
 -1.31533E+03 -3.82626E+03  9.89518E+02 -4.24991E+03  2.25218E+03 -3.97276E+03  2.88435E+03 -7.21074E+02
  3.48910E+03  1.88911E+03  1.80102E+03  2.94274E+03 -6.75335E+02  4.09346E+03 -2.41541E+03  2.23676E+03
 -3.39841E+03  2.91589E+02 -2.94858E+03 -2.21212E+03  7.25378E+01 -2.71858E+03  1.56533E+03 -2.22305E+03
  2.56939E+03 -1.22236E+03  1.69672E+03  4.05608E+02  7.36616E+02  1.87815E+03  6.85363E+02  2.33663E+02
  1.69608E+03  7.81075E+02  9.43987E+02  8.37113E+02  8.18833E+02  2.05972E+03  1.59585E+03  1.69849E+03
 -1.02548E+03  2.77326E+03 -2.31870E+03  4.06591E+03 -2.32874E+03  1.01672E+03 -3.68970E+03 -2.06107E+01
 -1.39054E+03 -3.34409E+03  7.53406E+02 -4.36325E+03  1.70533E+03 -2.12041E+03  2.92738E+03 -4.11279E+02
  2.31075E+03  1.51690E+03  5.47226E+02  2.16154E+03 -8.92438E+02  1.11084E+03 -8.19029E+02 -1.10842E+02
 -5.26676E+02 -1.51818E+03  1.26521E+03 -1.42977E+03  9.67451E+02 -8.51073E+02  1.22500E+03  5.64375E+02
  4.76455E+02  3.48202E+02  5.75460E+02 -3.44526E+02 -2.03162E+02  5.84834E+02  1.52399E+03 -2.40182E+02
 -2.98196E+02 -2.94778E+02  1.57880E+03  6.10358E+02  3.41232E+02  2.17451E+03 -1.43192E+02  2.26550E+03
 -1.64787E+03  7.77075E+02 -1.79725E+03  2.31661E+02 -1.91758E+03 -4.65381E+02 -5.32211E+01 -9.71202E+02
  4.00500E+02 -8.06625E+02  6.51366E+02 -7.94992E+02  5.39429E+02  1.31971E+03 -6.89778E+02  1.06788E+03
 -1.25503E+03  9.59266E+02 -9.16853E+02 -1.24187E+03 -7.29309E+02 -1.81806E+03  5.99803E+01 -1.54487E+03
  4.58053E+02 -6.54097E+02  8.54544E+02  3.77657E+02  9.92418E+02 -1.48579E+01  1.87533E+02  9.75569E+02
 -7.65169E+01 -1.24145E+02 -7.04211E+02 -1.42190E+02  2.88771E+02 -6.44001E+02  1.68765E+03 -9.59190E+02
  1.19366E+03  7.82812E+01  2.34685E+03  6.26814E+02  1.00464E+03  1.37849E+03 -3.09113E+02  1.63879E+03
 -1.24712E+03  8.83735E+01 -1.32821E+03 -1.72064E+01 -8.51868E+02 -1.18067E+03  1.14350E+02 -6.04028E+02
  1.27124E+03 -5.30221E+02  8.55530E+02  7.41682E+02 -2.10393E+02  1.28017E+03  2.93062E+02  1.02592E+03
 -1.95106E+02  1.04428E+03 -1.99476E+02  3.11159E+02  3.03388E+01  1.29307E+02 -7.92095E+02  4.87908E+02
 -5.06126E+02  1.11430E+03 -1.36942E+03  5.12093E+02 -1.58824E+03  1.65177E+02 -2.18462E+03 -8.30684E+02
 -1.08837E+03 -1.98301E+03  1.67574E+02 -2.55832E+03  5.38083E+02 -2.16254E+03  2.60097E+03 -9.59991E+02
  2.30538E+03 -1.03585E+02  1.10171E+03  1.11143E+03 -4.75401E+02  1.02395E+03 -5.73237E+02  1.01423E+03
 -9.51935E+02  6.63730E+02 -7.27663E+02 -2.78703E+02 -6.91451E+02  7.62444E+01 -8.47114E+02 -2.08226E+02
 -1.07209E+03  4.26250E+01 -9.46304E+02  1.59100E+02  3.31427E+02 -5.96009E+02 -4.85252E+02 -6.87738E+02
  9.12919E+02 -6.75630E+02  5.17968E+02 -8.58796E+01  1.00749E+03  9.12010E+02 -4.82826E+02  1.38802E+03
 -8.64189E+02  2.21480E+03 -1.43652E+03  9.11780E+02 -1.68641E+03 -1.15005E+02 -1.10316E+03 -1.48802E+03
 -8.22610E+02 -1.24729E+03  1.82935E+02 -1.29771E+03  2.89035E+02 -4.93726E+02  3.73551E+02  3.30317E+02
  7.86437E+02  2.00195E+02  1.43913E+02  5.32425E+02 -3.41023E+01 -3.39851E+01 -7.45446E+00 -8.21666E+01
  6.51941E+02  4.30422E+02 -1.56210E+01  3.60817E+02  2.11199E+02  5.19130E+02  5.01534E+02  2.25578E+02
 -5.64412E+02  3.05520E+02 -2.49614E+02  4.57505E+02 -6.57759E+02 -4.11034E+02  1.18203E+02 -1.16539E+03
  5.22784E+02 -6.26638E+02  4.99635E+02  2.39702E+01  7.70480E+02 -8.74262E+02  5.12901E+02  8.41436E+02
  3.52094E+02  3.96439E+02 -2.28591E+02  6.28838E+02 -7.06667E+02  5.40772E+02 -2.97976E+02 -2.30294E+01
 -9.73346E+01  8.15706E+01 -6.61633E+02  1.44811E+02 -4.59294E+02  7.99454E+01 -9.28743E+02 -2.78553E+02
 -1.25683E+03  2.83435E+02 -7.33682E+02 -9.60407E+02  3.94705E+02 -1.59955E+03  6.39051E+02 -4.58089E+02
  4.64862E+02  9.90219E+01 -5.86683E+02  8.73685E+01  2.85926E+01  4.88358E+02 -1.58969E+02  7.68710E+02
