 $NMID ID='MM_0lb_SNR800_18hz_g40_53.RAW', FMTDAT='(8E13.5)'
 TRAMP=1., VOLUME=1. $END
  3.09840E+05  2.85211E+02  3.37566E+05  2.50504E+05  8.44462E+04  3.37153E+05 -1.32494E+05  2.50261E+05
 -1.89745E+05  8.24131E+04 -1.10874E+05 -3.27621E+04  1.67267E+03 -5.03106E+04  5.38618E+04  2.49859E+02
  3.49922E+04  5.29532E+04 -1.71147E+04  7.47368E+04 -6.05043E+04  6.23614E+04 -8.27392E+04  3.15778E+04
 -7.93442E+04 -1.07450E+04 -5.60743E+04 -5.01037E+04 -1.49368E+04 -6.82208E+04  2.65327E+04 -4.44036E+04
  3.90588E+04  3.86648E+03  1.55927E+04  4.71111E+04 -3.38296E+04  4.61160E+04 -6.50609E+04 -5.91856E+02
 -5.16612E+04 -5.57560E+04 -6.03530E+03 -7.48929E+04  3.29363E+04 -5.30789E+04  4.58130E+04 -1.61834E+04
  4.10528E+04  1.10479E+04  3.06595E+04  2.42197E+04  1.55141E+04  2.82074E+04 -4.74133E+03  2.68666E+04
 -2.17108E+04  1.27544E+04 -1.92704E+04 -4.04358E+03  4.14654E+03 -7.72600E+03  2.09694E+04  1.08303E+04
  7.32318E+03  3.29928E+04 -3.04545E+04  3.33825E+04 -6.10996E+04  2.12818E+03 -5.51850E+04 -4.08811E+04
 -1.23321E+04 -6.03026E+04  3.76847E+04 -4.30880E+04  5.53703E+04 -1.87953E+03  3.16409E+04  3.03716E+04
 -6.79884E+03  3.26608E+04 -2.83564E+04  1.28330E+04 -2.70714E+04 -5.42635E+03 -1.38331E+04 -1.00773E+04
 -7.10259E+03 -1.10836E+04 -9.81148E+02 -1.64956E+04  6.45878E+03 -2.26760E+04  1.51248E+04 -1.45034E+04
  1.22134E+04  4.42760E+03 -6.15517E+03  1.31992E+04 -1.89216E+04 -2.13874E+03 -8.24345E+03 -2.99994E+04
  2.05352E+04 -4.01124E+04  4.42366E+04 -1.84928E+04  4.16628E+04  1.83193E+04  1.40711E+04  4.10533E+04
 -1.52720E+04  3.08466E+04 -2.34421E+04  9.50149E+02 -8.11446E+03 -2.61761E+04  2.02947E+04 -3.06807E+04
  3.74163E+04 -7.28184E+03  3.09533E+04  2.27340E+04  1.49279E+04  4.21644E+04 -7.87996E+03  4.48449E+04
 -2.81641E+04  2.91673E+04 -3.69716E+04  8.29845E+03 -3.80161E+04 -1.48601E+04 -2.11872E+04 -3.42221E+04
  6.85313E+03 -3.37406E+04  2.90553E+04 -1.26494E+04  2.65713E+04  1.05320E+04  2.77171E+03  1.73957E+04
 -1.31714E+04  7.19608E+03 -9.56358E+03 -7.54234E+03  5.90188E+03 -1.03093E+04  1.72044E+04  6.45132E+03
  1.23464E+04  2.17665E+04 -6.84481E+03  2.32346E+04 -2.14387E+04  8.98136E+03 -2.48831E+04 -6.60207E+03
 -1.64488E+04 -1.63669E+04 -5.70022E+03 -1.62658E+04  3.90342E+03 -1.45785E+04  1.21818E+04 -1.43477E+04
  2.08722E+04 -1.16256E+04  2.80108E+04  8.56255E+02  2.12301E+04  1.62265E+04  4.16453E+03  3.22850E+04
 -1.58585E+04  2.75991E+04 -2.58099E+04  9.23452E+03 -1.96078E+04 -1.05661E+04 -3.72707E+03 -1.37763E+04
  2.76454E+03 -4.03434E+03 -2.46810E+03  5.16506E+03 -1.26976E+04  5.24008E+03 -1.31511E+04 -4.64933E+03
 -8.59064E+03 -1.52266E+04  4.62019E+03 -1.92525E+04  1.28576E+04 -1.35550E+04  1.43585E+04 -1.93504E+03
  8.80225E+03  1.08992E+04 -8.36285E+02  1.55471E+04 -1.03446E+04  8.67229E+03 -1.51099E+04 -3.13351E+03
 -1.15613E+04 -1.40957E+04 -1.18490E+03 -1.87410E+04  8.51468E+03 -1.50026E+04  1.58594E+04 -7.18885E+03
  1.44984E+04  7.48511E+02  1.02989E+04  3.78628E+03  5.31703E+03  6.36975E+02  7.68322E+03 -9.89548E+02
  1.36723E+04  2.71675E+03  1.44611E+04  1.26255E+04  9.08439E+03  2.43523E+04 -2.96284E+03  2.63397E+04
 -1.56718E+04  1.98859E+04 -2.38861E+04  9.30233E+03 -2.44358E+04 -1.95980E+03 -2.11203E+04 -1.38558E+04
 -1.01133E+04 -1.99380E+04  6.58485E+03 -1.88463E+04  1.63141E+04 -1.06413E+04  1.55590E+04  3.59549E+03
  6.51498E+03  1.10880E+04 -6.93670E+03  1.03512E+04 -1.32748E+04  2.44021E+03 -1.02150E+04 -7.91353E+03
 -3.74024E+02 -1.23448E+04  6.28542E+03 -9.48844E+03  8.05331E+03 -1.40079E+03  1.22050E+03  4.91101E+03
 -5.59688E+03  1.06391E+03 -3.44194E+03 -4.51670E+03  7.41166E+02 -1.01735E+04  7.50634E+03 -9.87544E+03
  1.18789E+04 -4.46965E+03  1.17499E+04  2.71556E+03  1.02115E+04  9.54855E+03  4.81296E+03  1.38297E+04
 -1.34444E+03  1.58799E+04 -9.45316E+03  1.01206E+04 -1.11975E+04  2.86187E+03 -8.12308E+03 -2.12226E+03
 -4.64430E+03 -3.27729E+03 -6.83497E+02  1.45900E+03 -1.72856E+03  2.10283E+03 -3.62401E+03  3.66654E+03
 -8.12107E+03 -5.68555E+02 -8.44513E+03 -6.99074E+03 -3.12116E+03 -1.16138E+04  3.44769E+03 -8.41473E+03
  7.14170E+03 -3.69624E+03  5.33912E+03  2.17677E+03  6.67946E+02  2.92557E+03 -3.62940E+03 -7.09179E+01
 -3.43456E+03 -5.17227E+03 -6.53527E+02 -7.12564E+03  4.31264E+03 -8.05168E+03  9.92974E+03 -4.02213E+03
  1.18731E+04  6.77535E+02  8.66510E+03  6.12046E+03  1.62821E+03  8.67676E+03 -5.16750E+03  8.00399E+03
 -7.12528E+03  2.73300E+03 -3.50215E+03 -1.11749E+03  1.10519E+03 -1.96804E+03  4.71079E+03 -1.14132E+03
  4.05809E+03  3.34129E+03  1.22818E+03  6.19283E+03 -4.57113E+03  6.15539E+03 -8.05879E+03  1.87994E+03
 -4.74972E+03 -3.46720E+03  5.08332E+02 -6.90253E+03  3.59314E+03 -3.23567E+03  3.74739E+03  1.06380E+03
  5.09844E+02  3.57430E+03 -4.29167E+03  4.65887E+03 -4.83317E+03  2.31588E+03 -4.43003E+03 -1.18519E+03
 -2.78625E+03 -6.15240E+03  1.22103E+03 -6.88487E+03  6.11802E+03 -4.38146E+03  6.49657E+03  1.06312E+03
  4.52598E+03  5.25013E+03  2.79985E+02  7.18763E+03 -4.99756E+03  4.25853E+03 -5.23765E+03 -5.86188E+02
 -5.92230E+03 -5.10048E+03 -1.00525E+03 -4.97103E+03  2.46579E+03 -4.67016E+03  2.93223E+03 -2.98886E+03
  2.97678E+03  2.26584E+02  2.91580E+02  1.40566E+03  6.26214E+02  4.31056E+01  3.72400E+01 -1.94914E+03
  3.79754E+03 -8.40271E+02  5.16942E+03  6.82198E+02  5.74653E+03  2.93155E+03  5.20915E+03  7.11602E+03
 -1.36188E+03  8.36497E+03 -7.88602E+03  6.73778E+03 -9.88875E+03  1.43974E+03 -7.88268E+03 -2.63256E+03
 -4.09713E+03 -6.78800E+03 -4.02807E+02 -5.13270E+03  1.88628E+03 -1.92515E+03  1.74317E+03 -2.00350E+03
  1.16075E+03 -1.50718E+03  2.17923E+03 -2.40578E+03  3.61432E+03 -1.24926E+03  3.40921E+03  4.52012E+02
  4.70355E+03  9.13742E+02  1.18756E+03  3.40895E+03 -1.60088E+03  2.82182E+03 -4.16545E+03  2.53414E+03
 -4.87399E+03 -9.65821E+02 -2.10906E+03 -3.25490E+03  5.25823E+02 -5.12157E+03  3.16400E+03 -5.41028E+03
  5.07889E+03 -3.16945E+03  6.75905E+03  2.24272E+02  5.04478E+03  4.37674E+03  1.14023E+03  6.33951E+03
 -2.48957E+03  5.76780E+03 -3.32759E+03  1.85112E+03 -2.03502E+03 -9.35766E+02 -3.66796E+02 -5.67930E+02
 -7.72963E+02  2.67884E+02 -1.02692E+03  2.03376E+03 -2.57481E+03  1.15459E+03 -4.05678E+03 -3.43571E+02
 -1.71450E+03 -4.16622E+03  1.02475E+03 -4.85064E+03  2.74441E+03 -4.38077E+03  3.66377E+03 -1.21168E+03
  4.33656E+03  2.32834E+03  1.52747E+03  3.51227E+03 -9.35585E+02  4.73254E+03 -2.51442E+03  2.63601E+03
 -3.56231E+03  5.90216E+02 -3.39097E+03 -2.50899E+03 -2.84433E+02 -3.22788E+03  1.64672E+03 -2.32704E+03
  2.70606E+03 -1.29551E+03  1.93749E+03  1.95879E+02  2.35715E+02  1.66672E+03  7.19524E+02  5.08141E+02
  2.03797E+03  6.05659E+02  1.48091E+03  9.00419E+02  7.96475E+02  2.45626E+03  1.62285E+03  1.92240E+03
 -1.47214E+03  3.18273E+03 -2.54895E+03  4.07351E+03 -3.13301E+03  1.45115E+03 -4.26935E+03 -4.73233E+02
 -1.81252E+03 -3.78146E+03  6.29333E+02 -4.97085E+03  2.03536E+03 -2.53296E+03  3.34309E+03 -1.16586E+03
  2.63798E+03  1.84999E+03  2.05130E+02  2.23517E+03 -9.23484E+02  1.27837E+03 -9.64303E+02 -9.71527E+01
 -6.75771E+02 -1.44874E+03  1.28836E+03 -1.43392E+03  1.63232E+03 -9.44285E+02  1.54877E+03  4.90164E+02
  8.56221E+02  4.20284E+02  6.81862E+02 -3.53154E+02 -2.96951E+02  8.12704E+02  1.56122E+03 -2.25428E+02
  2.24044E+02 -3.46358E+02  1.90496E+03  8.09338E+02  3.73755E+02  2.31201E+03 -2.87034E+02  3.19783E+03
 -1.88791E+03  1.29522E+03 -2.03713E+03  2.46737E+02 -2.54811E+03 -1.03485E+03 -1.18708E+02 -9.90016E+02
  2.77436E+02 -1.51610E+03  1.00876E+03 -7.62011E+02  8.51738E+02  1.14376E+03 -8.24911E+02  1.32122E+03
 -1.60554E+03  8.35950E+02 -1.30331E+03 -1.46564E+03 -8.87921E+02 -2.07961E+03  2.61263E+02 -1.47565E+03
  2.77244E+02 -6.43382E+02  9.49203E+02  1.16145E+02  1.39256E+03 -1.08418E+01  4.06950E+01  1.34073E+03
 -2.22753E+02 -1.20737E+02 -1.18652E+03 -1.83997E+02  6.04752E+02 -9.46181E+02  1.48775E+03 -1.14553E+03
  1.33444E+03  1.80460E+02  3.02667E+03  9.11387E+02  1.11249E+03  1.46629E+03 -4.04138E+02  1.77039E+03
 -1.61814E+03  4.03538E+02 -1.50183E+03  1.44372E+00 -1.15718E+03 -1.49846E+03  8.14603E+01 -6.12888E+02
  1.65445E+03 -7.13743E+02  9.02815E+02  4.82070E+02  2.89385E+02  1.34315E+03  3.16390E+02  9.20876E+02
 -6.99989E+02  1.45786E+03 -7.29126E+02 -1.83427E+01  2.82340E+02  2.48499E+02 -8.16309E+02  7.01302E+02
 -4.89966E+02  1.13682E+03 -1.97963E+03  7.00062E+02 -1.85886E+03  2.75616E+02 -2.36413E+03 -1.08508E+03
 -1.22270E+03 -2.67845E+03  5.80813E+02 -3.23627E+03  9.54278E+02 -2.41912E+03  2.96651E+03 -1.26102E+03
  2.46216E+03 -2.63783E+02  1.38601E+03  1.46376E+03 -2.45992E+02  1.56036E+03 -7.95274E+02  1.42968E+03
 -9.46461E+02  6.09730E+02 -6.88454E+02 -8.17786E+01 -1.91217E+02  3.34596E+02 -6.81020E+02  9.06195E+01
 -1.70539E+03 -1.68175E+02 -7.00322E+02 -1.86761E+02  4.38985E+02 -6.65635E+02 -4.86020E+02 -9.41652E+02
  1.68286E+03 -4.03288E+02  5.43912E+02  3.98301E+02  1.19008E+03  1.45484E+03 -4.95776E+02  1.90723E+03
 -8.82065E+02  2.41184E+03 -1.84636E+03  1.57022E+03 -2.10217E+03 -5.55419E+02 -1.30895E+03 -1.38771E+03
 -6.87789E+02 -1.50025E+03  1.57661E+02 -1.50924E+03  6.35196E+02 -6.14692E+02  9.53602E+02  1.47381E+02
  1.03280E+03  6.91363E+01  7.01036E+01  6.06166E+02 -1.01305E+02 -5.60691E+01  6.99658E-01 -4.99738E+02
  6.12727E+02  3.44968E+01  1.12284E+01  2.99994E+02  2.91782E+01  5.85956E+02  3.86629E+02  2.11885E+02
 -7.78522E+02  1.02114E+03 -7.47840E+02  1.85845E+02 -8.68149E+02 -4.88315E+02  5.87452E+01 -1.16783E+03
  9.19814E+02 -9.12954E+02  8.49147E+02 -5.23292E+01  1.12324E+03 -2.88007E+02  5.97456E+02  9.41588E+02
  5.36853E+02  7.53166E+02 -2.86158E+02  7.83340E+02 -7.37439E+02  5.18270E+02 -1.98036E+02 -2.66649E+02
 -1.64423E+02 -9.46360E+01 -4.25918E+02  5.98881E+01 -4.94748E+02 -1.02753E+02 -9.84874E+02 -1.73472E+02
 -9.68830E+02  1.90071E+02 -5.53603E+02 -1.02333E+03  9.38659E+02 -1.48797E+03  9.58451E+02 -3.98040E+02
  6.90678E+02  1.85160E+02 -1.34529E+02  1.80849E+02  1.45216E+02  8.96261E+02 -5.22134E+02  4.88883E+02
