 $NMID ID='MM_0lb_SNR800_20hz_g55_20.RAW', FMTDAT='(8E13.5)'
 TRAMP=1., VOLUME=1. $END
  3.09862E+05  2.45734E+02  3.37534E+05  2.50445E+05  8.44691E+04  3.37313E+05 -1.32331E+05  2.49971E+05
 -1.89913E+05  8.25078E+04 -1.11119E+05 -3.29848E+04  1.35848E+03 -5.03055E+04  5.38839E+04  3.18334E+02
  3.52417E+04  5.31022E+04 -1.69098E+04  7.46910E+04 -6.04164E+04  6.27961E+04 -8.29538E+04  3.15334E+04
 -7.95258E+04 -1.11056E+04 -5.63492E+04 -5.03367E+04 -1.49083E+04 -6.85418E+04  2.68139E+04 -4.50827E+04
  3.94631E+04  3.51546E+03  1.57300E+04  4.73029E+04 -3.38136E+04  4.62734E+04 -6.55194E+04 -7.05399E+02
 -5.19101E+04 -5.59944E+04 -6.22767E+03 -7.50561E+04  3.31344E+04 -5.32322E+04  4.64480E+04 -1.63507E+04
  4.18881E+04  1.09203E+04  3.07349E+04  2.45082E+04  1.60889E+04  2.83785E+04 -4.49885E+03  2.70205E+04
 -2.17416E+04  1.29512E+04 -1.89294E+04 -4.35461E+03  4.15464E+03 -7.52136E+03  2.12222E+04  1.11162E+04
  7.51633E+03  3.34703E+04 -3.06444E+04  3.39041E+04 -6.12412E+04  2.12175E+03 -5.54277E+04 -4.14095E+04
 -1.24150E+04 -6.07894E+04  3.81738E+04 -4.34540E+04  5.60164E+04 -2.09315E+03  3.19557E+04  3.08986E+04
 -6.52719E+03  3.33471E+04 -2.83253E+04  1.36399E+04 -2.79525E+04 -5.35126E+03 -1.44345E+04 -1.00029E+04
 -7.55991E+03 -1.14739E+04 -6.74573E+02 -1.65364E+04  6.68975E+03 -2.26383E+04  1.51928E+04 -1.37819E+04
  1.22515E+04  4.19030E+03 -6.27388E+03  1.31515E+04 -1.93367E+04 -2.11415E+03 -8.29761E+03 -3.03721E+04
  2.09779E+04 -4.06304E+04  4.50503E+04 -1.86451E+04  4.18825E+04  1.82780E+04  1.43733E+04  4.17895E+04
 -1.52147E+04  3.11748E+04 -2.34328E+04  1.05589E+03 -8.44543E+03 -2.65969E+04  2.03645E+04 -3.11020E+04
  3.78586E+04 -7.49533E+03  3.17713E+04  2.29895E+04  1.54081E+04  4.27179E+04 -7.84679E+03  4.49720E+04
 -2.85314E+04  2.98375E+04 -3.76390E+04  8.07458E+03 -3.84270E+04 -1.50475E+04 -2.13760E+04 -3.43147E+04
  6.77822E+03 -3.42494E+04  2.92767E+04 -1.26717E+04  2.71289E+04  1.09202E+04  2.90427E+03  1.77987E+04
 -1.29439E+04  7.11516E+03 -9.58024E+03 -7.68279E+03  6.15607E+03 -1.04014E+04  1.72844E+04  6.40980E+03
  1.23755E+04  2.15132E+04 -6.70433E+03  2.32716E+04 -2.12430E+04  9.00841E+03 -2.47645E+04 -6.36382E+03
 -1.68014E+04 -1.63854E+04 -5.71941E+03 -1.65940E+04  3.91356E+03 -1.43986E+04  1.26162E+04 -1.42483E+04
  2.10109E+04 -1.16106E+04  2.80323E+04  1.02159E+03  2.11646E+04  1.61751E+04  3.80245E+03  3.22788E+04
 -1.61131E+04  2.72755E+04 -2.58277E+04  9.09608E+03 -1.93999E+04 -1.04212E+04 -3.87095E+03 -1.36610E+04
  2.64937E+03 -4.13375E+03 -2.69905E+03  5.52547E+03 -1.28369E+04  5.37766E+03 -1.31953E+04 -4.80356E+03
 -8.46262E+03 -1.52260E+04  4.38524E+03 -1.89221E+04  1.24650E+04 -1.38679E+04  1.44047E+04 -1.58812E+03
  8.78519E+03  1.06394E+04 -7.67504E+02  1.54062E+04 -1.00526E+04  8.74362E+03 -1.50748E+04 -3.16605E+03
 -1.11136E+04 -1.39204E+04 -1.46470E+03 -1.87104E+04  8.55108E+03 -1.49970E+04  1.59570E+04 -7.18947E+03
  1.45587E+04  9.69678E+02  1.02635E+04  3.91542E+03  4.90034E+03  6.67157E+02  7.32517E+03 -1.52371E+03
  1.36282E+04  2.72608E+03  1.44440E+04  1.25073E+04  8.88544E+03  2.40907E+04 -3.17842E+03  2.60810E+04
 -1.54956E+04  1.94779E+04 -2.39996E+04  9.54214E+03 -2.43935E+04 -1.79290E+03 -2.06564E+04 -1.38091E+04
 -1.01472E+04 -1.96682E+04  6.47878E+03 -1.85022E+04  1.61212E+04 -1.06002E+04  1.53149E+04  3.18377E+03
  6.26013E+03  1.08651E+04 -6.85866E+03  1.01016E+04 -1.29101E+04  2.45110E+03 -1.03218E+04 -7.84047E+03
 -1.75954E+02 -1.21894E+04  5.90705E+03 -9.22498E+03  7.73039E+03 -1.53062E+03  1.46281E+03  4.65964E+03
 -5.40898E+03  1.39624E+03 -3.60819E+03 -4.59579E+03  6.38024E+02 -9.81402E+03  7.79872E+03 -9.55838E+03
  1.15486E+04 -4.24319E+03  1.12659E+04  2.75305E+03  9.88686E+03  9.00655E+03  4.80854E+03  1.31239E+04
 -1.68381E+03  1.50374E+04 -9.16897E+03  9.58696E+03 -1.04548E+04  2.97421E+03 -8.02222E+03 -1.69742E+03
 -4.30193E+03 -2.99071E+03 -1.05458E+03  1.62840E+03 -1.87761E+03  1.76099E+03 -3.35241E+03  3.22737E+03
 -7.76513E+03 -5.45434E+02 -8.37881E+03 -6.79446E+03 -3.27686E+03 -1.10591E+04  3.45541E+03 -7.91339E+03
  7.08316E+03 -3.69067E+03  5.01625E+03  2.03281E+03  7.15980E+02  2.82237E+03 -3.10823E+03 -3.49080E+02
 -2.94410E+03 -4.73232E+03 -8.50156E+02 -7.07765E+03  3.72073E+03 -7.11405E+03  9.27915E+03 -3.38084E+03
  1.11162E+04  5.60799E+02  8.64798E+03  5.55179E+03  1.63222E+03  8.01809E+03 -5.14017E+03  7.86308E+03
 -6.53919E+03  2.76047E+03 -3.17771E+03 -1.12145E+03  1.55829E+03 -1.64004E+03  4.37338E+03 -7.21792E+02
  3.77027E+03  2.92284E+03  1.17879E+03  6.30730E+03 -4.13352E+03  6.26075E+03 -7.30827E+03  1.71732E+03
 -4.62752E+03 -3.22558E+03  5.17934E+02 -6.16803E+03  3.48210E+03 -3.00375E+03  3.07892E+03  8.10922E+02
  2.41173E+02  2.91104E+03 -3.89304E+03  4.11839E+03 -4.26246E+03  2.08121E+03 -3.74536E+03 -6.98204E+02
 -2.51348E+03 -5.28483E+03  9.36490E+02 -6.04545E+03  5.26607E+03 -4.35406E+03  5.76625E+03  1.10395E+03
  4.21763E+03  4.61237E+03  2.01311E+02  6.83785E+03 -4.73873E+03  3.63217E+03 -4.82618E+03  4.41780E+01
 -5.06489E+03 -4.69914E+03 -1.13717E+03 -4.63778E+03  2.46581E+03 -4.18748E+03  2.54481E+03 -2.72186E+03
  2.93466E+03  3.88935E+01  2.54409E+02  1.23501E+03  5.79204E+02  4.29110E+01  8.44045E+01 -1.50774E+03
  3.07880E+03 -2.62673E+02  4.49565E+03  7.27353E+02  4.81771E+03  2.60764E+03  4.96800E+03  6.30359E+03
 -9.92008E+02  7.24602E+03 -6.92869E+03  5.73077E+03 -8.64450E+03  9.82522E+02 -7.17675E+03 -2.29787E+03
 -3.88724E+03 -5.76344E+03 -5.29347E+02 -4.39086E+03  1.92779E+03 -1.82779E+03  1.39093E+03 -1.82961E+03
  1.03804E+03 -1.24195E+03  2.04537E+03 -2.05646E+03  3.24530E+03 -1.24805E+03  3.14728E+03  7.99303E+02
  3.85097E+03  1.12009E+03  4.20013E+02  3.08539E+03 -1.55983E+03  2.41282E+03 -3.93792E+03  2.29472E+03
 -4.02930E+03 -1.23125E+03 -1.36576E+03 -2.90385E+03  3.05443E+02 -4.15974E+03  2.83439E+03 -4.68570E+03
  4.43275E+03 -2.96931E+03  5.93542E+03  2.65542E+02  4.15807E+03  3.45382E+03  8.19446E+02  5.50992E+03
 -1.69030E+03  5.29997E+03 -2.65906E+03  1.65311E+03 -1.67422E+03 -1.24384E+03 -2.26198E+02 -5.83364E+02
 -5.18476E+02  3.17063E+02 -8.88188E+02  1.62417E+03 -2.41223E+03  1.15227E+03 -3.24655E+03 -2.54003E+02
 -1.21754E+03 -3.72593E+03  1.02608E+03 -3.99567E+03  2.30897E+03 -3.71013E+03  2.85227E+03 -1.04881E+03
  3.53879E+03  2.08096E+03  1.12069E+03  2.26130E+03 -5.78001E+02  3.69466E+03 -2.22762E+03  2.30908E+03
 -2.90334E+03  6.15632E+02 -2.56979E+03 -1.78752E+03  1.02818E+02 -2.60671E+03  1.34775E+03 -1.70273E+03
  2.20876E+03 -1.24140E+03  1.46175E+03  2.94771E+02  4.34760E+02  1.56243E+03  6.72198E+02  2.27204E+02
  1.33329E+03  3.97206E+02  1.03979E+03  8.74706E+02  9.17027E+02  1.81134E+03  1.28516E+03  1.32916E+03
 -1.14125E+03  2.19854E+03 -1.86005E+03  3.41274E+03 -2.00204E+03  1.26438E+03 -3.14352E+03  1.89807E+01
 -1.28029E+03 -2.99383E+03  6.82805E+02 -3.78502E+03  1.25815E+03 -2.08030E+03  2.50236E+03 -8.18488E+02
  1.50907E+03  1.41291E+03  2.44611E+02  1.69430E+03 -3.13592E+02  7.38541E+02 -6.43681E+02  1.23616E+02
 -3.29525E+02 -1.05322E+03  9.25502E+02 -1.05695E+03  9.33235E+02 -1.06617E+03  9.63461E+02  4.55045E+02
  7.13430E+02  4.38349E+02  7.01109E+02 -4.60682E+02 -3.02608E+02  5.38385E+02  1.77601E+03 -1.78951E+02
 -2.66671E+02 -1.51673E+02  1.49433E+03  4.44057E+02  4.57654E+01  1.79609E+03 -1.04792E+02  2.27331E+03
 -1.32333E+03  6.77519E+02 -1.51338E+03  6.16061E+02 -1.66585E+03 -6.18364E+02  9.21547E+01 -7.49099E+02
  4.94595E+02 -6.09133E+02  7.56408E+02 -4.64449E+02  4.02737E+02  1.38134E+03 -6.14102E+02  9.30137E+02
 -1.23120E+03  3.30765E+02 -6.56554E+02 -1.34076E+03 -4.46597E+02 -2.11274E+03  2.52305E+02 -1.32929E+03
  2.20324E+02 -2.03578E+02  3.79190E+02  1.19433E+02  1.33268E+03 -2.04211E+02  2.98893E+02  7.73053E+02
 -2.13770E+02  6.84401E+01 -6.73776E+02  1.46199E+02  6.74168E+02 -4.89676E+02  1.33910E+03 -4.97477E+02
  7.45105E+02  2.55681E+02  2.12488E+03  3.07220E+02  1.09218E+03  7.09810E+02 -9.99105E+01  1.21622E+03
 -9.33794E+02  5.73905E+01 -6.95439E+02  2.80766E+02 -5.21651E+02 -9.50756E+02  4.54797E+02 -9.72552E+01
  1.39287E+03 -5.16690E+02  5.83042E+02  3.69233E+02  2.10883E+02  1.17535E+03  5.29149E+02  9.24482E+02
 -4.38398E+01  9.88889E+02 -4.75799E+02  1.73853E+02  5.18146E+01  1.38405E+02 -7.13490E+02  4.19091E+02
 -3.29709E+02  6.16886E+02 -1.39106E+03  3.40931E+02 -1.24219E+03  1.74421E+02 -1.77263E+03 -5.04476E+02
 -7.83337E+02 -1.52191E+03  3.35117E+02 -2.15244E+03  2.15130E+02 -1.58230E+03  1.69317E+03 -5.68438E+02
  1.75911E+03 -8.04965E+01  7.10524E+02  8.92784E+02 -5.94277E+02  9.53409E+02 -4.83820E+02  9.70653E+02
 -6.18888E+02  6.02926E+02 -2.99642E+02  7.53090E+01 -3.22418E+02  4.78721E+02 -5.92290E+02  2.66003E+01
 -1.27446E+03 -9.44720E+00 -6.16684E+02  6.81760E+01  2.80284E+02 -4.57347E+02 -4.44485E+02 -9.97050E+02
  8.86355E+02 -3.29832E+02 -6.68109E+01  5.01828E+01  6.38842E+02  7.37452E+02 -4.78157E+02  9.43561E+02
 -7.99746E+02  1.73329E+03 -8.98414E+02  8.44575E+02 -1.18355E+03  3.33884E+01 -7.66674E+02 -1.04060E+03
 -7.60320E+02 -6.75917E+02  3.44774E+02 -7.80962E+02  6.56876E+00 -2.93838E+02  2.08048E+02 -2.76003E+00
  4.88919E+02  1.15716E+02  4.96869E+01  3.67521E+02 -1.72437E+02  4.95341E+01 -5.22035E+01 -1.29033E+02
  3.74188E+02  3.07437E+02 -1.81129E+02  3.27408E+02  6.08302E+01  2.34307E+02  4.85250E+02 -2.42291E+02
 -3.20810E+02  4.13709E+02 -1.99023E+02 -5.73083E+01 -3.51212E+02 -3.37316E+02  3.08781E+02 -7.32684E+02
  2.17075E+01 -1.93505E+02 -1.11377E+02  2.05728E+02  2.91907E+02 -7.81893E+02 -7.56412E+00  3.91023E+02
  4.25124E+02  8.92244E+01  1.07044E+02  2.23076E+02 -2.47863E+02  1.74938E+02 -1.48373E+02 -1.20998E+02
 -1.61133E+02 -1.81207E+02 -3.66628E+02  1.60513E+02 -4.87208E+02 -4.14624E+01 -4.76321E+02 -2.29061E+02
 -1.01713E+03  7.03402E+02 -2.25790E+02 -6.90272E+02  4.69312E+02 -1.20042E+03  3.85418E+02 -2.34315E+02
  2.13002E+02 -6.55383E+01 -5.30465E+02  1.00201E+02 -3.97973E+01  3.03144E+02 -2.32689E+02  3.70061E+02
