 $NMID ID='MM_0lb_SNR800_8hz_g45_65.RAW', FMTDAT='(8E13.5)'
 TRAMP=1., VOLUME=1. $END
  3.09700E+05  7.74290E+02  3.37801E+05  2.50646E+05  8.49683E+04  3.38606E+05 -1.32891E+05  2.51684E+05
 -1.90661E+05  8.41123E+04 -1.12596E+05 -3.24108E+04 -6.12852E+01 -5.04193E+04  5.37703E+04 -7.20732E+02
  3.62006E+04  5.24876E+04 -1.66491E+04  7.58927E+04 -6.11293E+04  6.47060E+04 -8.54291E+04  3.24147E+04
 -8.23860E+04 -1.17600E+04 -5.87476E+04 -5.25285E+04 -1.47913E+04 -7.11217E+04  2.82479E+04 -4.68981E+04
  4.12760E+04  3.69396E+03  1.68364E+04  4.85588E+04 -3.46398E+04  4.85501E+04 -6.76300E+04 -9.35747E+01
 -5.49762E+04 -5.77234E+04 -7.42843E+03 -7.87401E+04  3.48639E+04 -5.71126E+04  5.01877E+04 -1.80161E+04
  4.54370E+04  1.14529E+04  3.33925E+04  2.65406E+04  1.61995E+04  3.11194E+04 -5.90585E+03  2.79065E+04
 -2.22117E+04  1.22838E+04 -1.82537E+04 -5.38351E+03  7.00686E+03 -6.81932E+03  2.35199E+04  1.37440E+04
  6.95033E+03  3.72759E+04 -3.37539E+04  3.75855E+04 -6.61609E+04  2.05088E+03 -5.93023E+04 -4.49763E+04
 -1.24850E+04 -6.61498E+04  4.16680E+04 -4.78086E+04  6.11734E+04 -2.62577E+03  3.70124E+04  3.46013E+04
 -5.57908E+03  4.00510E+04 -3.17532E+04  1.86897E+04 -3.36151E+04 -3.49318E+03 -1.93205E+04 -1.18949E+04
 -9.79707E+03 -1.52512E+04 -3.29900E+02 -1.98395E+04  8.70116E+03 -2.36289E+04  1.58915E+04 -1.24198E+04
  9.92448E+03  6.68991E+03 -1.08103E+04  1.29956E+04 -2.39975E+04 -7.02561E+03 -8.87363E+03 -3.78457E+04
  2.54766E+04 -4.71654E+04  5.22813E+04 -2.13187E+04  4.90802E+04  2.09690E+04  1.74032E+04  4.73706E+04
 -1.69022E+04  3.66507E+04 -2.81248E+04  2.73147E+03 -1.18085E+04 -2.93942E+04  2.13241E+04 -3.69471E+04
  4.46824E+04 -1.17129E+04  4.11324E+04  2.52611E+04  2.17222E+04  5.17160E+04 -7.72749E+03  5.63060E+04
 -3.56100E+04  3.91822E+04 -4.80201E+04  1.13982E+04 -4.79320E+04 -1.89097E+04 -2.65487E+04 -4.27070E+04
  7.79541E+03 -4.27712E+04  3.44906E+04 -1.72530E+04  3.23944E+04  1.12405E+04  5.44289E+03  2.09983E+04
 -1.37767E+04  9.79677E+03 -1.15544E+04 -7.40454E+03  5.66294E+03 -1.16345E+04  1.87979E+04  5.36386E+03
  1.51686E+04  2.28572E+04 -5.27287E+03  2.71634E+04 -2.38221E+04  1.45877E+04 -3.14847E+04 -2.72446E+03
 -2.62846E+04 -1.87166E+04 -1.20355E+04 -2.50492E+04  4.32686E+03 -2.62665E+04  2.03067E+04 -2.36157E+04
  3.32014E+04 -1.44245E+04  3.83352E+04  5.66230E+03  2.73270E+04  2.49020E+04  4.30333E+03  4.13585E+04
 -2.02870E+04  3.49109E+04 -3.08251E+04  1.20946E+04 -2.27340E+04 -1.02453E+04 -5.22499E+03 -1.31292E+04
  6.45195E+02 -1.01771E+03 -8.18142E+03  8.54254E+03 -2.05797E+04  5.08702E+03 -2.03581E+04 -9.89694E+03
 -1.19338E+04 -2.39768E+04  6.52611E+03 -2.83833E+04  1.89954E+04 -2.01625E+04  2.25969E+04 -1.72055E+03
  1.51228E+04  1.64268E+04 -1.24383E+03  2.37671E+04 -1.71144E+04  1.41781E+04 -2.41721E+04 -4.92669E+03
 -1.77978E+04 -2.10738E+04 -2.13630E+03 -2.84908E+04  1.29575E+04 -2.38526E+04  2.32967E+04 -1.24867E+04
  2.26786E+04 -7.38032E+02  1.63647E+04  5.39216E+03  9.04359E+03  1.88329E+03  1.26420E+04 -2.20091E+03
  2.28552E+04  3.04424E+03  2.60346E+04  1.85157E+04  1.81047E+04  3.89062E+04 -2.69961E+03  4.57472E+04
 -2.61439E+04  3.79689E+04 -4.32735E+04  1.97218E+04 -4.66050E+04 -3.25224E+03 -3.72590E+04 -2.69825E+04
 -1.46444E+04 -3.87237E+04  1.36221E+04 -3.36680E+04  2.87144E+04 -1.54824E+04  2.47477E+04  8.38850E+03
  8.22094E+03  1.90166E+04 -1.17907E+04  1.62318E+04 -2.05307E+04  1.98592E+03 -1.55764E+04 -1.33531E+04
 -2.31920E+02 -1.99012E+04  1.08274E+04 -1.47202E+04  1.41896E+04 -1.41016E+03  3.44198E+03  8.97629E+03
 -8.83811E+03  4.34170E+03 -9.77232E+03 -7.04824E+03 -2.18919E+03 -1.88548E+04  1.23200E+04 -2.06013E+04
  2.39208E+04 -1.18954E+04  2.73894E+04  3.39430E+03  2.39094E+04  1.92719E+04  1.11646E+04  3.01993E+04
 -5.91724E+03  3.27916E+04 -2.15654E+04  1.98695E+04 -2.32393E+04  3.88661E+03 -1.61087E+04 -6.00217E+03
 -7.03400E+03 -7.81631E+03 -5.41991E+02 -2.13957E+01 -3.28473E+03  3.58092E+03 -7.51006E+03  5.78979E+03
 -1.47322E+04 -1.13249E+03 -1.49178E+04 -1.20980E+04 -6.15204E+03 -1.98089E+04  6.20062E+03 -1.62029E+04
  1.33311E+04 -6.74102E+03  9.28800E+03  4.64978E+03 -5.23253E+02  6.60860E+03 -8.45960E+03 -1.95231E+02
 -7.65128E+03 -1.03660E+04 -1.15803E+03 -1.66061E+04  9.30989E+03 -1.72940E+04  2.12963E+04 -9.26545E+03
  2.44032E+04  2.94862E+03  1.79153E+04  1.49437E+04  3.69558E+03  1.99283E+04 -9.98548E+03  1.63192E+04
 -1.34023E+04  4.55347E+03 -6.76701E+03 -4.01122E+03  2.13559E+03 -4.85725E+03  9.18459E+03 -7.07124E+02
  7.58353E+03  7.48144E+03  1.30743E+03  1.31925E+04 -9.29120E+03  1.24145E+04 -1.63785E+04  2.55450E+03
 -1.15026E+04 -8.40995E+03  1.02488E+02 -1.40337E+04  9.54370E+03 -7.09883E+03  9.74133E+03  3.49962E+03
  2.58245E+03  1.04221E+04 -8.27314E+03  1.21585E+04 -1.45692E+04  5.35297E+03 -1.49021E+04 -5.56368E+03
 -8.34130E+03 -1.66185E+04  4.33211E+03 -1.92450E+04  1.62833E+04 -1.16961E+04  1.77132E+04  2.64157E+03
  1.05470E+04  1.37749E+04 -1.93483E+03  1.73026E+04 -1.26234E+04  9.22941E+03 -1.34608E+04 -1.54243E+03
 -1.10247E+04 -1.12396E+04 -1.97488E+03 -1.31199E+04  6.76541E+03 -1.00065E+04  8.27378E+03 -3.80885E+03
  5.52061E+03  2.33317E+03 -1.07971E+03  1.44253E+03 -4.76026E+02 -3.70051E+03  3.20308E+03 -8.26023E+03
  1.25377E+04 -5.70665E+03  1.73745E+04  2.04679E+03  1.69539E+04  1.22780E+04  1.05311E+04  2.24003E+04
 -5.27489E+03  2.51751E+04 -2.13166E+04  1.89011E+04 -2.78583E+04  3.29378E+03 -2.23343E+04 -9.59682E+03
 -1.12103E+04 -1.78848E+04 -1.79660E+02 -1.59171E+04  5.57554E+03 -9.35548E+03  5.36112E+03 -5.35665E+03
  4.27323E+03 -3.39350E+03  3.93667E+03 -3.83752E+03  6.06361E+03 -3.62795E+03  8.80106E+03 -1.43399E+03
  1.12673E+04  2.40156E+03  6.19282E+03  1.01040E+04 -2.79995E+03  1.21901E+04 -1.18078E+04  9.25029E+03
 -1.56913E+04 -1.36936E+03 -1.02531E+04 -1.16492E+04 -1.37710E+03 -1.70779E+04  9.41387E+03 -1.72624E+04
  1.74069E+04 -9.38493E+03  2.14731E+04  3.09785E+03  1.45823E+04  1.47234E+04  2.23968E+03  1.91670E+04
 -8.37839E+03  1.54307E+04 -1.14625E+04  5.02268E+03 -8.06411E+03 -2.12501E+03 -3.33918E+03 -2.39265E+03
 -1.41465E+03 -1.62523E+02 -2.03654E+03  3.12492E+03 -6.21309E+03  2.53702E+03 -1.05959E+04 -1.35624E+03
 -8.10521E+03 -1.10717E+04  2.56069E+02 -1.58844E+04  9.66962E+03 -1.48716E+04  1.60497E+04 -4.27892E+03
  1.57815E+04  7.65229E+03  7.35629E+03  1.46977E+04 -3.46845E+03  1.59496E+04 -1.17706E+04  1.05606E+04
 -1.54137E+04  7.47023E+02 -1.17560E+04 -1.00791E+04 -1.42555E+03 -1.31327E+04  7.09740E+03 -1.00602E+04
  1.04364E+04 -3.19450E+03  7.08322E+03  2.78039E+03  2.79135E+03  4.64705E+03  2.13494E+03  2.08341E+03
  2.36839E+03  9.61079E+02  4.06395E+03  1.96442E+03  4.74078E+03  5.80226E+03  4.22044E+03  8.93383E+03
 -3.55301E+03  1.29089E+04 -1.16534E+04  1.26436E+04 -1.71191E+04  3.02411E+03 -1.70950E+04 -7.45009E+03
 -8.23993E+03 -1.68426E+04  2.59613E+03 -1.86611E+04  1.01943E+04 -1.14342E+04  1.32575E+04 -2.75325E+03
  1.06400E+04  5.74887E+03  2.51565E+03  9.43526E+03 -4.61516E+03  6.41512E+03 -6.66172E+03 -1.05822E+03
 -3.11205E+03 -6.91496E+03  3.98250E+03 -7.67437E+03  6.92432E+03 -3.82476E+03  6.56997E+03  2.07060E+03
  4.06894E+03  3.46441E+03  1.71951E+03  2.91720E+03 -7.32840E+02  2.33390E+03  1.43234E+03 -5.42828E+02
  2.88678E+03 -6.77525E+02  6.72843E+03  2.88295E+03  4.08348E+03  9.57628E+03 -1.11419E+03  1.17284E+04
 -8.04492E+03  8.00579E+03 -1.06976E+04  2.45831E+03 -9.57493E+03 -3.84779E+03 -3.63108E+03 -6.75186E+03
  7.80159E+02 -6.87021E+03  4.80048E+03 -2.80574E+03  3.42782E+03  2.88950E+03 -1.90265E+03  5.52638E+03
 -6.87219E+03  3.37719E+03 -8.26667E+03 -3.80945E+03 -4.58390E+03 -9.19757E+03  1.18965E+03 -9.30608E+03
  5.84506E+03 -5.97498E+03  6.85384E+03 -7.10786E+02  5.84653E+03  2.62394E+03  7.37730E+02  4.92449E+03
 -3.49896E+03  1.24909E+03 -4.22489E+03 -3.40227E+03  1.77997E+03 -6.76308E+03  8.18136E+03 -6.07365E+03
  1.07329E+04  5.63225E+02  1.05270E+04  7.28291E+03  3.41200E+03  1.16968E+04 -3.75988E+03  1.07755E+04
 -9.15807E+03  4.85824E+03 -1.00871E+04 -2.01877E+03 -5.27432E+03 -7.50563E+03  1.25056E+03 -7.17220E+03
  6.98462E+03 -3.26447E+03  5.81252E+03  3.09104E+03  2.21084E+03  6.47349E+03 -1.34073E+03  5.42694E+03
 -3.17206E+03  3.18320E+03 -2.68407E+03  1.40667E+03 -1.17937E+03  1.65731E+03 -1.55360E+03  2.25916E+03
 -2.88935E+03  4.12658E+03 -7.87945E+03  4.16169E+03 -1.12042E+04  1.32567E+02 -1.25016E+04 -7.47113E+03
 -6.38321E+03 -1.50564E+04  2.73442E+03 -1.75859E+04  1.14466E+04 -1.34393E+04  1.65085E+04 -5.10987E+03
  1.57963E+04  3.39648E+03  9.16677E+03  1.07355E+04  8.84144E+02  1.20297E+04 -4.76123E+03  8.79164E+03
 -6.60939E+03  2.81120E+03 -3.66481E+03 -1.37574E+03 -1.20949E+03 -6.69734E+02 -9.50671E+02  5.95773E+01
 -2.16350E+03  4.63311E+02 -3.13320E+03 -3.92728E+02 -9.98281E+02 -2.90216E+03  1.33074E+02 -4.06067E+03
  5.16053E+03 -3.40990E+03  7.99634E+03  2.30136E+02  8.53775E+03  6.46357E+03  2.52796E+03  1.24571E+04
 -5.93169E+03  1.38705E+04 -1.27704E+04  7.89750E+03 -1.44121E+04 -1.53721E+03 -1.10259E+04 -9.38743E+03
 -4.56020E+03 -1.22164E+04  3.20300E+03 -1.16518E+04  8.33607E+03 -6.51303E+03  7.60250E+03  6.72290E+02
  4.31325E+03  4.10161E+03 -8.12849E+02  3.30798E+03 -2.45186E+03 -1.89687E+02  1.22758E+02 -3.00298E+03
  3.52173E+03 -1.97497E+03  4.67265E+03  1.42925E+03  3.21342E+03  4.77389E+03  1.45328E+02  6.88038E+03
 -5.51433E+03  5.69342E+03 -8.61199E+03  7.44673E+02 -7.17952E+03 -5.81114E+03 -1.66894E+03 -1.03971E+04
  5.47838E+03 -8.44825E+03  9.68568E+03 -2.61789E+03  8.96125E+03  2.40103E+03  5.13423E+03  7.56794E+03
  8.65519E+02  8.34673E+03 -3.27266E+03  6.70075E+03 -5.48744E+03  3.64792E+03 -4.14098E+03  3.63249E+02
 -2.28683E+03 -3.71568E+01 -2.66216E+03  1.14647E+03 -4.63231E+03  1.38864E+03 -6.48962E+03 -1.49366E+03
 -6.27418E+03 -4.33215E+03 -1.64554E+03 -8.08939E+03  3.85619E+03 -8.86546E+03  7.18969E+03 -4.12008E+03
  8.28822E+03  9.14990E+02  4.85783E+03  5.94920E+03 -1.16685E+03  8.53953E+03 -6.62243E+03  4.85511E+03
