 $NMID ID='MM_0lb_SNR800_10hz_g50_53.RAW', FMTDAT='(8E13.5)'
 TRAMP=1., VOLUME=1. $END
  3.09831E+05 -5.84852E+01  3.38039E+05  2.50681E+05  8.52078E+04  3.38413E+05 -1.32662E+05  2.51766E+05
 -1.90924E+05  8.35501E+04 -1.12300E+05 -3.20387E+04  3.46021E+02 -5.07250E+04  5.33718E+04 -5.54318E+02
  3.52901E+04  5.27793E+04 -1.63661E+04  7.57333E+04 -6.12125E+04  6.42796E+04 -8.51385E+04  3.28580E+04
 -8.19888E+04 -1.17355E+04 -5.79818E+04 -5.22330E+04 -1.49851E+04 -7.07895E+04  2.79763E+04 -4.66211E+04
  4.09588E+04  3.54250E+03  1.67892E+04  4.84482E+04 -3.47266E+04  4.78429E+04 -6.77646E+04 -1.53694E+02
 -5.48207E+04 -5.74175E+04 -7.18784E+03 -7.83444E+04  3.42622E+04 -5.65696E+04  4.91759E+04 -1.80700E+04
  4.50670E+04  1.17304E+04  3.33296E+04  2.59978E+04  1.56168E+04  3.07687E+04 -5.90120E+03  2.76398E+04
 -2.26296E+04  1.22760E+04 -1.84008E+04 -5.36832E+03  6.45302E+03 -7.36129E+03  2.31934E+04  1.33430E+04
  7.07613E+03  3.69991E+04 -3.37987E+04  3.67892E+04 -6.53572E+04  2.05679E+03 -5.85516E+04 -4.40664E+04
 -1.23097E+04 -6.57575E+04  4.11275E+04 -4.66231E+04  6.05180E+04 -2.28534E+03  3.61575E+04  3.39743E+04
 -5.65058E+03  3.89469E+04 -3.14767E+04  1.82638E+04 -3.31178E+04 -3.99509E+03 -1.85004E+04 -1.17780E+04
 -9.33377E+03 -1.45909E+04 -3.64287E+02 -1.92492E+04  8.40599E+03 -2.33175E+04  1.61434E+04 -1.26494E+04
  1.06752E+04  5.93650E+03 -1.03281E+04  1.30684E+04 -2.35140E+04 -6.13366E+03 -8.33461E+03 -3.67634E+04
  2.46562E+04 -4.61199E+04  5.14692E+04 -2.07674E+04  4.76995E+04  2.00728E+04  1.67660E+04  4.67120E+04
 -1.66116E+04  3.56301E+04 -2.74877E+04  2.44177E+03 -1.15965E+04 -2.89941E+04  2.15219E+04 -3.66356E+04
  4.37660E+04 -1.06786E+04  3.96214E+04  2.47298E+04  2.04665E+04  5.01388E+04 -8.68698E+03  5.53189E+04
 -3.43908E+04  3.69609E+04 -4.65006E+04  1.08553E+04 -4.65239E+04 -1.84063E+04 -2.53751E+04 -4.12779E+04
  8.06737E+03 -4.11821E+04  3.36353E+04 -1.66842E+04  3.07349E+04  1.12174E+04  4.79220E+03  2.06215E+04
 -1.40410E+04  9.51950E+03 -1.10280E+04 -7.63948E+03  5.30826E+03 -1.12168E+04  1.87467E+04  5.77673E+03
  1.48017E+04  2.25822E+04 -5.76166E+03  2.68348E+04 -2.33471E+04  1.39026E+04 -3.07588E+04 -2.74657E+03
 -2.46176E+04 -1.83666E+04 -1.07443E+04 -2.36615E+04  4.33944E+03 -2.45291E+04  1.90443E+04 -2.20927E+04
  3.07425E+04 -1.39784E+04  3.68738E+04  4.48114E+03  2.64753E+04  2.35252E+04  4.68031E+03  4.05157E+04
 -1.94107E+04  3.32092E+04 -2.98012E+04  1.17471E+04 -2.22607E+04 -9.99585E+03 -4.92144E+03 -1.32243E+04
  8.26776E+02 -1.78013E+03 -7.03418E+03  7.76532E+03 -1.93173E+04  4.89734E+03 -1.94418E+04 -9.19138E+03
 -1.17458E+04 -2.23686E+04  5.91949E+03 -2.68577E+04  1.79254E+04 -1.88707E+04  2.15285E+04 -1.36926E+03
  1.37789E+04  1.55679E+04 -1.63170E+03  2.22618E+04 -1.59203E+04  1.30204E+04 -2.28671E+04 -4.57494E+03
 -1.66071E+04 -2.02833E+04 -2.27875E+03 -2.66764E+04  1.24135E+04 -2.26432E+04  2.21590E+04 -1.16290E+04
  2.12170E+04 -2.35384E+01  1.49392E+04  4.74682E+03  8.20114E+03  1.16931E+03  1.17388E+04 -1.86276E+03
  2.11803E+04  3.00403E+03  2.43800E+04  1.75549E+04  1.67128E+04  3.64852E+04 -3.04363E+03  4.23220E+04
 -2.41778E+04  3.45840E+04 -3.97199E+04  1.82003E+04 -4.23085E+04 -3.29139E+03 -3.43187E+04 -2.46240E+04
 -1.42084E+04 -3.50650E+04  1.24393E+04 -3.11225E+04  2.68574E+04 -1.50172E+04  2.33807E+04  7.41809E+03
  7.85832E+03  1.76940E+04 -1.10869E+04  1.49225E+04 -1.96133E+04  2.55163E+03 -1.46600E+04 -1.19884E+04
 -2.63122E+02 -1.83430E+04  1.00771E+04 -1.38863E+04  1.31047E+04 -1.19274E+03  3.32337E+03  8.41146E+03
 -8.34539E+03  3.33013E+03 -8.36127E+03 -7.09473E+03 -1.79647E+03 -1.72620E+04  1.12750E+04 -1.84178E+04
  2.15580E+04 -1.03037E+04  2.44821E+04  2.95832E+03  2.15036E+04  1.76301E+04  9.65160E+03  2.71264E+04
 -5.15728E+03  2.94410E+04 -1.88978E+04  1.81176E+04 -2.09786E+04  3.44072E+03 -1.45205E+04 -5.56400E+03
 -6.13407E+03 -7.17184E+03 -6.82897E+02  7.14980E+02 -2.57537E+03  3.51965E+03 -7.49566E+03  5.51132E+03
 -1.32429E+04 -1.11679E+03 -1.42772E+04 -1.11841E+04 -5.53026E+03 -1.85886E+04  5.79307E+03 -1.43199E+04
  1.23873E+04 -6.07481E+03  8.72956E+03  4.01281E+03 -2.54469E+02  5.81165E+03 -7.18830E+03 -2.36447E+02
 -6.82707E+03 -9.71912E+03 -1.00948E+03 -1.43528E+04  8.19937E+03 -1.51404E+04  1.83614E+04 -7.97141E+03
  2.20840E+04  1.80760E+03  1.63513E+04  1.31347E+04  2.91122E+03  1.79215E+04 -9.19893E+03  1.45112E+04
 -1.22079E+04  4.04777E+03 -5.84896E+03 -3.24118E+03  2.28861E+03 -4.18283E+03  7.70395E+03 -9.61545E+02
  7.28207E+03  7.13533E+03  1.40508E+03  1.16502E+04 -8.60942E+03  1.16875E+04 -1.47033E+04  2.66161E+03
 -1.00307E+04 -7.64923E+03  1.65927E+02 -1.28574E+04  7.87834E+03 -6.63772E+03  8.89862E+03  3.26302E+03
  1.77574E+03  9.35413E+03 -7.57897E+03  1.05556E+04 -1.27264E+04  4.56364E+03 -1.23146E+04 -4.50067E+03
 -7.18521E+03 -1.45399E+04  4.03443E+03 -1.65507E+04  1.39023E+04 -1.00594E+04  1.55464E+04  2.71338E+03
  9.37111E+03  1.24423E+04 -1.52131E+03  1.45552E+04 -1.08733E+04  7.92159E+03 -1.18998E+04 -1.45461E+03
 -1.04636E+04 -9.69497E+03 -1.89376E+03 -1.05503E+04  5.89887E+03 -9.29327E+03  6.91268E+03 -3.23746E+03
  4.79618E+03  1.91133E+03 -8.72279E+02  2.09054E+03 -7.91141E+02 -3.02853E+03  1.93414E+03 -6.46466E+03
  1.03095E+04 -4.36101E+03  1.47110E+04  1.79142E+03  1.42102E+04  9.94707E+03  9.40615E+03  1.89113E+04
 -4.46196E+03  2.19762E+04 -1.81044E+04  1.60763E+04 -2.35189E+04  3.21969E+03 -1.89955E+04 -7.97717E+03
 -9.58722E+03 -1.54623E+04 -1.01357E+02 -1.32602E+04  4.81501E+03 -7.51694E+03  5.00270E+03 -5.06680E+03
  3.49244E+03 -3.08860E+03  3.81696E+03 -3.78822E+03  5.25572E+03 -3.03492E+03  7.29543E+03 -1.18197E+03
  1.02211E+04  2.08512E+03  4.82398E+03  8.54309E+03 -2.03323E+03  1.00109E+04 -1.04839E+04  7.79211E+03
 -1.31095E+04 -1.69024E+03 -8.34357E+03 -9.65255E+03 -1.23853E+03 -1.42558E+04  8.04597E+03 -1.41129E+04
  1.49825E+04 -8.22554E+03  1.79081E+04  2.54110E+03  1.25420E+04  1.22729E+04  1.99581E+03  1.58840E+04
 -6.66716E+03  1.29679E+04 -9.48945E+03  4.22946E+03 -6.42555E+03 -1.63272E+03 -2.67196E+03 -2.12747E+03
 -8.52023E+02 -1.34536E+02 -1.80742E+03  2.76631E+03 -5.71961E+03  2.60415E+03 -9.21891E+03 -1.16814E+03
 -6.96314E+03 -9.35122E+03  4.13427E+01 -1.32854E+04  8.24392E+03 -1.19182E+04  1.26843E+04 -3.75684E+03
  1.31101E+04  6.12193E+03  6.38681E+03  1.14049E+04 -2.14411E+03  1.31743E+04 -9.33596E+03  8.20319E+03
 -1.24638E+04  7.43328E+01 -9.45953E+03 -8.24582E+03 -1.44682E+03 -1.11668E+04  6.40467E+03 -8.54413E+03
  8.49805E+03 -2.63969E+03  5.96298E+03  2.45303E+03  2.05404E+03  4.19741E+03  1.29714E+03  1.78772E+03
  2.77037E+03  8.15470E+02  3.12158E+03  1.75238E+03  3.88188E+03  4.82631E+03  3.17605E+03  7.18584E+03
 -2.46019E+03  1.04234E+04 -9.38400E+03  1.07072E+04 -1.37020E+04  2.73470E+03 -1.39762E+04 -5.54406E+03
 -6.62013E+03 -1.31037E+04  2.11510E+03 -1.45840E+04  7.84340E+03 -9.19473E+03  1.07226E+04 -2.93414E+03
  8.43408E+03  5.34076E+03  1.85681E+03  7.27274E+03 -3.54526E+03  4.78900E+03 -5.21362E+03 -1.24517E+03
 -2.55981E+03 -5.80233E+03  3.40441E+03 -6.33870E+03  5.34028E+03 -3.06137E+03  5.16080E+03  1.32820E+03
  3.06277E+03  2.68583E+03  1.63337E+03  2.02849E+03 -6.85210E+02  1.61736E+03  1.99781E+03 -7.72357E+02
  2.18764E+03 -6.45357E+02  5.18624E+03  2.24672E+03  3.08507E+03  7.09759E+03 -1.18494E+03  9.31196E+03
 -6.17875E+03  6.34900E+03 -8.63217E+03  1.97462E+03 -7.45073E+03 -2.81788E+03 -3.07593E+03 -5.12801E+03
  9.07051E+02 -4.82454E+03  3.33321E+03 -2.36346E+03  2.65953E+03  2.98383E+03 -1.03024E+03  4.38497E+03
 -5.71194E+03  2.51480E+03 -5.92937E+03 -3.35076E+03 -3.64052E+03 -7.39064E+03  8.38916E+02 -7.07625E+03
  4.29748E+03 -4.19310E+03  5.08285E+03 -6.91551E+02  4.78744E+03  2.30344E+03  5.29401E+02  3.75436E+03
 -2.81698E+03  1.31479E+03 -3.45520E+03 -2.59058E+03  1.25774E+03 -5.56319E+03  6.49292E+03 -4.82823E+03
  7.74041E+03  7.32611E+02  8.43663E+03  5.24661E+03  2.94029E+03  8.81749E+03 -3.07176E+03  8.39627E+03
 -7.30264E+03  3.21209E+03 -7.56116E+03 -1.18882E+03 -4.06919E+03 -5.65687E+03  1.60161E+03 -5.14901E+03
  5.06537E+03 -2.59339E+03  4.36675E+03  2.38534E+03  1.21759E+03  4.87943E+03 -4.75327E+02  4.08789E+03
 -2.58957E+03  2.44170E+03 -2.23606E+03  8.12101E+02 -4.52060E+02  1.20562E+03 -1.23702E+03  1.87805E+03
 -2.65229E+03  3.56989E+03 -5.90239E+03  2.53019E+03 -8.72661E+03  1.73521E+02 -9.33755E+03 -5.67099E+03
 -4.71806E+03 -1.16555E+04  2.07733E+03 -1.29181E+04  7.99856E+03 -1.01160E+04  1.24294E+04 -3.98017E+03
  1.15751E+04  2.25325E+03  7.29385E+03  7.90877E+03  2.62523E+02  8.81097E+03 -3.46358E+03  6.45851E+03
 -4.87496E+03  2.52863E+03 -3.20661E+03 -7.71091E+02 -1.14539E+03 -5.89249E+02 -3.86511E+02  4.43569E+02
 -2.03723E+03  5.89634E+02 -2.01832E+03 -3.30960E+02 -7.37146E+02 -2.35080E+03 -1.83972E+02 -2.99217E+03
  3.81211E+03 -2.89764E+03  5.35948E+03  4.34063E+01  6.32913E+03  4.86141E+03  1.74334E+03  8.77431E+03
 -4.22808E+03  1.00357E+04 -9.27836E+03  5.98457E+03 -1.03440E+04 -1.17572E+03 -8.14866E+03 -6.70822E+03
 -3.45266E+03 -8.77071E+03  2.29955E+03 -8.33381E+03  5.76567E+03 -4.47355E+03  5.91108E+03  3.76836E+02
  3.15207E+03  2.87515E+03 -4.09493E+02  2.49783E+03 -1.34912E+03 -4.80494E+01 -8.52919E+01 -2.18623E+03
  2.96934E+03 -1.36772E+03  3.28839E+03  1.59754E+03  2.07753E+03  3.20572E+03  3.10088E+02  4.76153E+03
 -3.36096E+03  3.81345E+03 -5.82622E+03  1.81060E+02 -5.65573E+03 -4.57940E+03 -8.29592E+02 -7.20516E+03
  4.31746E+03 -6.13924E+03  6.70682E+03 -1.86171E+03  6.27671E+03  1.22359E+03  4.01089E+03  5.19116E+03
  9.13883E+02  5.49151E+03 -2.00178E+03  4.99650E+03 -3.36893E+03  2.65208E+03 -2.99354E+03  3.41299E+02
 -1.67071E+03 -2.79064E+02 -1.75235E+03  9.66723E+02 -3.04521E+03  1.21934E+03 -4.68266E+03 -1.25275E+03
 -4.16168E+03 -3.09398E+03 -1.56949E+03 -5.65647E+03  2.60836E+03 -6.31356E+03  5.28843E+03 -2.72766E+03
  5.49022E+03  4.46884E+02  2.90222E+03  4.11184E+03 -7.40297E+02  5.86286E+03 -4.10794E+03  3.69354E+03
