 $NMID ID='MM_0lb_SNR800_14hz_g45_84.RAW', FMTDAT='(8E13.5)'
 TRAMP=1., VOLUME=1. $END
  3.10009E+05  2.78462E+02  3.37619E+05  2.50744E+05  8.46612E+04  3.37874E+05 -1.32515E+05  2.50867E+05
 -1.90274E+05  8.28075E+04 -1.11792E+05 -3.26150E+04  9.67997E+02 -5.06819E+04  5.37106E+04 -4.76004E+02
  3.52094E+04  5.24888E+04 -1.69701E+04  7.51799E+04 -6.07441E+04  6.33738E+04 -8.40092E+04  3.22518E+04
 -8.08167E+04 -1.14636E+04 -5.75713E+04 -5.09923E+04 -1.50388E+04 -6.94604E+04  2.74557E+04 -4.55035E+04
  4.01803E+04  4.06780E+03  1.57390E+04  4.77316E+04 -3.44581E+04  4.70738E+04 -6.66325E+04 -3.24274E+02
 -5.31390E+04 -5.67059E+04 -6.63519E+03 -7.67632E+04  3.39589E+04 -5.49501E+04  4.78326E+04 -1.70119E+04
  4.34224E+04  1.13857E+04  3.14291E+04  2.51516E+04  1.57076E+04  2.92412E+04 -5.21201E+03  2.71516E+04
 -2.23166E+04  1.23997E+04 -1.85958E+04 -4.56792E+03  5.29142E+03 -7.33438E+03  2.21037E+04  1.22175E+04
  7.25496E+03  3.52787E+04 -3.19826E+04  3.55502E+04 -6.31209E+04  2.15747E+03 -5.67583E+04 -4.25269E+04
 -1.23458E+04 -6.29617E+04  3.97564E+04 -4.50173E+04  5.79702E+04 -2.20124E+03  3.40175E+04  3.20730E+04
 -5.92327E+03  3.56996E+04 -2.96638E+04  1.54880E+04 -3.01661E+04 -4.49342E+03 -1.64680E+04 -1.10378E+04
 -8.07317E+03 -1.29059E+04 -8.20484E+02 -1.77307E+04  7.30427E+03 -2.28313E+04  1.52824E+04 -1.29745E+04
  1.11370E+04  5.01714E+03 -8.32299E+03  1.30225E+04 -2.11978E+04 -4.24539E+03 -8.28972E+03 -3.32661E+04
  2.26261E+04 -4.29031E+04  4.78841E+04 -1.96902E+04  4.46727E+04  1.92916E+04  1.55185E+04  4.37893E+04
 -1.56490E+04  3.33224E+04 -2.52742E+04  1.51512E+03 -9.75823E+03 -2.77819E+04  2.10172E+04 -3.38456E+04
  4.07140E+04 -8.82648E+03  3.51163E+04  2.37873E+04  1.78586E+04  4.62732E+04 -7.96633E+03  4.97440E+04
 -3.14666E+04  3.32964E+04 -4.17390E+04  9.57628E+03 -4.19039E+04 -1.63910E+04 -2.30683E+04 -3.76282E+04
  7.35510E+03 -3.75497E+04  3.15310E+04 -1.43135E+04  2.87067E+04  1.08105E+04  3.96518E+03  1.89850E+04
 -1.30527E+04  7.68887E+03 -1.04603E+04 -7.62311E+03  5.73718E+03 -1.06117E+04  1.77970E+04  6.15219E+03
  1.34508E+04  2.19591E+04 -6.23174E+03  2.50657E+04 -2.24593E+04  1.12822E+04 -2.78550E+04 -5.04515E+03
 -2.02648E+04 -1.71058E+04 -8.13337E+03 -2.01154E+04  3.87665E+03 -1.92807E+04  1.56310E+04 -1.79291E+04
  2.59433E+04 -1.25620E+04  3.21732E+04  2.69170E+03  2.35234E+04  1.94919E+04  4.02530E+03  3.61717E+04
 -1.74075E+04  3.05775E+04 -2.74918E+04  1.04534E+04 -2.09169E+04 -1.04278E+04 -4.13973E+03 -1.33923E+04
  1.96398E+03 -2.92327E+03 -4.51262E+03  6.35551E+03 -1.58018E+04  5.54136E+03 -1.61180E+04 -6.60772E+03
 -9.91881E+03 -1.85298E+04  5.05014E+03 -2.26112E+04  1.49525E+04 -1.61904E+04  1.78897E+04 -1.28314E+03
  1.09739E+04  1.29574E+04 -1.39678E+03  1.89742E+04 -1.27946E+04  1.03302E+04 -1.87688E+04 -4.04588E+03
 -1.36291E+04 -1.71341E+04 -1.65783E+03 -2.24832E+04  1.02354E+04 -1.83652E+04  1.89845E+04 -8.88969E+03
  1.72829E+04  5.35504E+02  1.27734E+04  4.71152E+03  6.69967E+03  5.49225E+02  9.44748E+03 -1.76274E+03
  1.70670E+04  2.52541E+03  1.89594E+04  1.49090E+04  1.22831E+04  2.96214E+04 -2.89433E+03  3.34122E+04
 -1.94977E+04  2.68640E+04 -3.11063E+04  1.33037E+04 -3.25134E+04 -2.63988E+03 -2.69746E+04 -1.90791E+04
 -1.19619E+04 -2.68516E+04  9.23552E+03 -2.39341E+04  2.08746E+04 -1.29495E+04  1.90147E+04  5.26383E+03
  7.02048E+03  1.42678E+04 -8.89389E+03  1.23034E+04 -1.59184E+04  2.70924E+03 -1.20766E+04 -9.69255E+03
 -8.21124E+01 -1.53080E+04  7.66362E+03 -1.13402E+04  1.01154E+04 -9.86891E+02  2.31021E+03  6.68720E+03
 -6.84462E+03  2.31431E+03 -5.74702E+03 -5.45910E+03 -2.70759E+02 -1.30943E+04  9.31368E+03 -1.37774E+04
  1.62330E+04 -7.11472E+03  1.73240E+04  2.89423E+03  1.52632E+04  1.30365E+04  7.03683E+03  1.97438E+04
 -3.38701E+03  2.14793E+04 -1.37961E+04  1.35976E+04 -1.56641E+04  3.25413E+03 -1.10555E+04 -3.70845E+03
 -5.47194E+03 -4.77765E+03 -9.21435E+02  1.19888E+03 -2.33466E+03  2.52384E+03 -5.10545E+03  3.86178E+03
 -1.03538E+04 -5.25239E+02 -1.09957E+04 -9.05488E+03 -4.47367E+03 -1.44722E+04  4.69657E+03 -1.12573E+04
  9.44541E+03 -4.85008E+03  6.79554E+03  2.96854E+03  4.78440E+02  4.43194E+03 -4.99472E+03  8.39633E+01
 -5.22727E+03 -6.64415E+03 -8.41389E+02 -1.02558E+04  6.01122E+03 -1.11051E+04  1.33878E+04 -5.76050E+03
  1.60564E+04  1.11556E+03  1.15919E+04  9.19855E+03  2.49650E+03  1.23688E+04 -6.83031E+03  1.09340E+04
 -9.21363E+03  3.31147E+03 -4.78528E+03 -2.21420E+03  1.55161E+03 -2.92710E+03  6.03294E+03 -8.90205E+02
  4.95691E+03  4.64472E+03  1.03605E+03  8.56680E+03 -6.09416E+03  8.47052E+03 -1.06846E+04  2.10582E+03
 -7.01137E+03 -5.23745E+03  3.94662E+02 -9.14573E+03  5.81616E+03 -4.73639E+03  5.61041E+03  1.89475E+03
  8.39515E+02  5.84609E+03 -5.47456E+03  7.32581E+03 -7.92290E+03  3.29208E+03 -7.47140E+03 -2.60402E+03
 -4.92683E+03 -9.22312E+03  2.14237E+03 -1.11469E+04  9.71216E+03 -7.09798E+03  1.01974E+04  1.48259E+03
  6.49308E+03  8.12103E+03 -6.61903E+02  1.01833E+04 -7.36804E+03  5.88773E+03 -7.98004E+03 -6.18176E+02
 -7.38542E+03 -6.94060E+03 -1.44464E+03 -7.32766E+03  4.20554E+03 -6.71192E+03  4.46634E+03 -3.14037E+03
  3.81128E+03  1.09358E+03 -3.98713E+02  1.50533E+03  2.24133E+02 -1.39366E+03  7.96305E+02 -3.67244E+03
  6.40494E+03 -2.02512E+03  8.91166E+03  1.07206E+03  9.22046E+03  5.78894E+03  6.96395E+03  1.19375E+04
 -2.46098E+03  1.39142E+04 -1.16651E+04  1.02533E+04 -1.53677E+04  2.21475E+03 -1.23204E+04 -4.88194E+03
 -6.30126E+03 -1.03394E+04 -4.67103E+02 -8.42851E+03  2.85080E+03 -4.04904E+03  2.95118E+03 -3.52628E+03
  1.91507E+03 -2.42179E+03  2.82336E+03 -2.93349E+03  4.25163E+03 -2.12657E+03  5.00468E+03 -1.91973E+01
  6.58345E+03  1.57715E+03  2.58612E+03  5.60795E+03 -1.42413E+03  5.74613E+03 -6.64576E+03  4.57387E+03
 -8.26578E+03 -1.13192E+03 -4.20430E+03 -5.28179E+03  4.24069E+01 -8.37085E+03  5.10265E+03 -8.86743E+03
  9.02027E+03 -5.03993E+03  1.06839E+04  6.49850E+02  7.71859E+03  7.60434E+03  1.50910E+03  1.00267E+04
 -3.72801E+03  8.75453E+03 -5.91755E+03  3.02009E+03 -3.61795E+03 -1.02647E+03 -1.56985E+03 -1.00624E+03
 -5.57154E+02 -8.15690E+01 -1.41757E+03  2.30266E+03 -3.69887E+03  1.59198E+03 -6.03156E+03 -8.47816E+02
 -3.40064E+03 -6.08571E+03  4.14519E+02 -7.94452E+03  4.78169E+03 -7.31784E+03  7.41759E+03 -2.13150E+03
  7.40106E+03  3.95377E+03  3.84459E+03  6.51314E+03 -1.47250E+03  7.78402E+03 -5.18734E+03  4.77220E+03
 -7.08824E+03  6.63257E+02 -5.92426E+03 -4.40829E+03 -7.38186E+02 -6.12724E+03  3.38253E+03 -4.62817E+03
  5.07108E+03 -1.64255E+03  3.31293E+03  1.04109E+03  1.11990E+03  2.35404E+03  1.10216E+03  1.10424E+03
  2.18862E+03  8.35561E+02  1.85389E+03  1.24346E+03  2.20201E+03  3.01647E+03  2.18108E+03  3.73830E+03
 -1.68969E+03  5.77715E+03 -5.20765E+03  6.52149E+03 -6.77586E+03  1.95415E+03 -7.98597E+03 -2.24648E+03
 -3.82708E+03 -7.42808E+03  1.20293E+03 -8.50163E+03  4.17686E+03 -5.06897E+03  5.98062E+03 -1.92724E+03
  4.56624E+03  2.99783E+03  1.07533E+03  4.15629E+03 -2.00593E+03  2.62845E+03 -2.83619E+03 -3.39381E+02
 -1.42186E+03 -2.91630E+03  2.05331E+03 -3.20599E+03  2.73072E+03 -1.79935E+03  2.51830E+03  6.08935E+02
  1.57254E+03  1.14105E+03  8.31641E+02  5.36111E+02 -5.98364E+02  1.08771E+03  1.50766E+03 -5.38699E+02
  5.65194E+02 -7.07029E+02  3.12164E+03  9.86312E+02  1.39237E+03  3.94980E+03 -6.85204E+02  5.62070E+03
 -3.13594E+03  2.89552E+03 -4.61550E+03  7.86579E+02 -3.97513E+03 -1.54031E+03 -1.31755E+03 -2.67779E+03
  8.87143E+02 -2.54183E+03  1.83940E+03 -1.39076E+03  1.43821E+03  2.01387E+03 -8.15220E+02  2.30361E+03
 -3.25187E+03  1.66550E+03 -3.07887E+03 -1.90021E+03 -1.86297E+03 -4.12760E+03  4.41932E+02 -3.41481E+03
  1.83226E+03 -1.94042E+03  2.22934E+03 -8.64359E+01  2.52934E+03  4.25769E+02  4.43513E+02  2.19117E+03
 -1.09001E+03  5.73752E+02 -1.68658E+03 -1.36829E+03  6.87404E+02 -2.42851E+03  3.38171E+03 -2.14251E+03
  3.80591E+03  1.09291E+02  4.92805E+03  2.25605E+03  1.59507E+03  3.84185E+03 -1.43144E+03  4.23793E+03
 -3.43074E+03  1.45601E+03 -3.55344E+03 -6.06912E+02 -1.79777E+03 -2.44779E+03  9.63252E+02 -2.37215E+03
  2.93288E+03 -1.50932E+03  2.16627E+03  1.27243E+03  1.02423E+03  2.66174E+03 -1.69361E+02  2.30499E+03
 -1.05563E+03  1.63955E+03 -9.15843E+02  4.60185E+02 -1.64395E+02  6.87717E+02 -1.02228E+03  1.01684E+03
 -1.23141E+03  1.93412E+03 -3.19106E+03  9.85036E+02 -3.96905E+03  2.29809E+02 -5.22922E+03 -2.48162E+03
 -2.46561E+03 -5.41029E+03  1.07434E+03 -6.31044E+03  3.34841E+03 -5.24576E+03  5.83178E+03 -1.79718E+03
  5.38466E+03  7.64942E+02  3.45033E+03  3.70035E+03 -2.95329E+02  4.14516E+03 -1.28231E+03  3.15576E+03
 -2.28488E+03  1.28716E+03 -1.29521E+03 -4.56565E+02 -1.02915E+03 -3.92838E+02 -7.39975E+02 -1.66773E+02
 -1.26190E+03  1.52010E+01 -1.26117E+03 -1.87206E+02  1.46894E+02 -1.12777E+03 -5.61109E+02 -1.52878E+03
  2.19496E+03 -1.30125E+03  2.01548E+03  9.58963E+01  3.02110E+03  2.30183E+03  1.75258E+02  3.88311E+03
 -2.14502E+03  4.71242E+03 -4.07082E+03  2.50913E+03 -4.64390E+03 -2.83384E+02 -3.48013E+03 -2.65950E+03
 -1.51010E+03 -3.97919E+03  9.28147E+02 -3.50278E+03  2.11381E+03 -1.49465E+03  2.08244E+03  2.57495E+02
  1.50341E+03  1.04542E+03 -3.09491E+01  9.24582E+02 -9.11906E+02  3.82231E+02 -1.04674E+02 -8.86430E+02
  1.37875E+03 -1.59131E+01  1.33613E+03  9.42124E+02  6.05858E+02  1.51676E+03  3.06168E+02  1.68140E+03
 -1.68764E+03  1.71288E+03 -2.21978E+03  2.24494E+02 -2.44321E+03 -1.63295E+03 -5.47030E+02 -3.19802E+03
  1.69122E+03 -2.43454E+03  2.47577E+03 -6.05522E+02  2.54938E+03  4.24645E+02  1.35228E+03  1.94670E+03
  6.06926E+02  2.17411E+03 -7.45985E+02  2.01135E+03 -1.37884E+03  1.29532E+03 -1.40007E+03  1.73942E+02
 -7.85555E+02 -5.53727E+01 -7.78483E+02  3.50315E+02 -1.19275E+03  5.14010E+02 -2.16287E+03 -3.98023E+02
 -2.15410E+03 -1.01104E+03 -9.17184E+02 -2.57734E+03  1.35524E+03 -3.02321E+03  2.07630E+03 -1.09693E+03
  1.89187E+03  3.30960E+02  7.28414E+02  1.36665E+03  4.90930E+01  2.56713E+03 -1.49472E+03  1.88356E+03
