 $NMID ID='MM_0lb_SNR800_7hz_g50_44.RAW', FMTDAT='(8E13.5)'
 TRAMP=1., VOLUME=1. $END
  3.09859E+05  1.35962E+02  3.38164E+05  2.50406E+05  8.51083E+04  3.38773E+05 -1.32658E+05  2.52503E+05
 -1.90883E+05  8.42384E+04 -1.12954E+05 -3.19027E+04  2.15734E+02 -5.09719E+04  5.36448E+04 -6.70041E+02
  3.57517E+04  5.28425E+04 -1.70162E+04  7.63926E+04 -6.12122E+04  6.50951E+04 -8.57602E+04  3.28654E+04
 -8.28720E+04 -1.21318E+04 -5.85722E+04 -5.24638E+04 -1.48826E+04 -7.21318E+04  2.85304E+04 -4.73515E+04
  4.16865E+04  3.56608E+03  1.69082E+04  4.90201E+04 -3.49149E+04  4.83983E+04 -6.85150E+04  3.71313E+02
 -5.53203E+04 -5.78308E+04 -7.59664E+03 -7.97868E+04  3.54881E+04 -5.78397E+04  5.03303E+04 -1.85216E+04
  4.59795E+04  1.13472E+04  3.33867E+04  2.68665E+04  1.58297E+04  3.08316E+04 -6.19486E+03  2.79101E+04
 -2.30490E+04  1.17600E+04 -1.77981E+04 -6.08681E+03  7.72642E+03 -7.24462E+03  2.33204E+04  1.44206E+04
  7.07560E+03  3.84721E+04 -3.46224E+04  3.78816E+04 -6.66929E+04  2.21624E+03 -5.97314E+04 -4.53306E+04
 -1.28917E+04 -6.65132E+04  4.20528E+04 -4.88531E+04  6.25253E+04 -2.91865E+03  3.78043E+04  3.48816E+04
 -5.07304E+03  4.12733E+04 -3.25580E+04  2.00868E+04 -3.43301E+04 -3.34798E+03 -2.03285E+04 -1.24742E+04
 -9.96188E+03 -1.62035E+04 -1.60409E+02 -2.06202E+04  9.06748E+03 -2.37826E+04  1.60700E+04 -1.22223E+04
  1.02498E+04  6.89582E+03 -1.15164E+04  1.29617E+04 -2.40981E+04 -7.22560E+03 -8.95744E+03 -3.84546E+04
  2.61155E+04 -4.79112E+04  5.39765E+04 -2.11220E+04  4.99551E+04  2.11854E+04  1.77897E+04  4.82305E+04
 -1.66124E+04  3.68248E+04 -2.82807E+04  2.83003E+03 -1.20661E+04 -3.01587E+04  2.19246E+04 -3.86481E+04
  4.62131E+04 -1.21157E+04  4.25581E+04  2.56843E+04  2.24154E+04  5.27411E+04 -9.16558E+03  5.86258E+04
 -3.69369E+04  4.03600E+04 -4.92901E+04  1.21049E+04 -4.92546E+04 -1.93852E+04 -2.72516E+04 -4.40232E+04
  8.26233E+03 -4.37688E+04  3.54259E+04 -1.82170E+04  3.33551E+04  1.13130E+04  5.78968E+03  2.10471E+04
 -1.42748E+04  1.00438E+04 -1.11403E+04 -7.26586E+03  5.97360E+03 -1.14814E+04  1.91381E+04  5.20876E+03
  1.54765E+04  2.30900E+04 -5.12032E+03  2.74642E+04 -2.42159E+04  1.53835E+04 -3.35968E+04 -2.46425E+03
 -2.74290E+04 -1.87588E+04 -1.28096E+04 -2.69551E+04  4.18938E+03 -2.83442E+04  2.16054E+04 -2.48328E+04
  3.44374E+04 -1.49784E+04  4.04857E+04  6.02357E+03  2.82275E+04  2.65057E+04  4.79423E+03  4.31602E+04
 -2.01251E+04  3.55893E+04 -3.14926E+04  1.22441E+04 -2.33968E+04 -1.01531E+04 -5.12260E+03 -1.28291E+04
 -6.38969E+01  1.95149E+02 -8.96407E+03  9.11582E+03 -2.19078E+04  4.98508E+03 -2.20603E+04 -1.07247E+04
 -1.25584E+04 -2.50387E+04  6.49143E+03 -2.97748E+04  2.04468E+04 -2.11638E+04  2.47214E+04 -2.43950E+03
  1.61893E+04  1.73742E+04 -1.37309E+03  2.51342E+04 -1.85473E+04  1.43868E+04 -2.56819E+04 -4.67872E+03
 -1.83602E+04 -2.24050E+04 -2.86051E+03 -3.06192E+04  1.35292E+04 -2.51894E+04  2.44980E+04 -1.33025E+04
  2.38939E+04 -7.20363E+02  1.71092E+04  5.78958E+03  9.21054E+03  1.18684E+03  1.35227E+04 -3.06798E+03
  2.43832E+04  3.12159E+03  2.82817E+04  1.97276E+04  1.94449E+04  4.09923E+04 -2.56915E+03  4.87150E+04
 -2.74018E+04  4.14269E+04 -4.66153E+04  2.17480E+04 -4.99736E+04 -3.58416E+03 -3.99319E+04 -2.88484E+04
 -1.55640E+04 -4.16723E+04  1.51823E+04 -3.64257E+04  3.13986E+04 -1.62141E+04  2.67251E+04  8.53553E+03
  8.51663E+03  2.11947E+04 -1.28969E+04  1.71893E+04 -2.17223E+04  2.28392E+03 -1.64035E+04 -1.44085E+04
 -1.15941E+02 -2.11650E+04  1.20894E+04 -1.55098E+04  1.47957E+04 -1.10129E+03  3.90887E+03  9.53830E+03
 -9.72448E+03  5.17419E+03 -1.02878E+04 -7.58902E+03 -2.66201E+03 -2.06348E+04  1.26773E+04 -2.24069E+04
  2.55785E+04 -1.30107E+04  2.98338E+04  3.74507E+03  2.66184E+04  2.10320E+04  1.23853E+04  3.34515E+04
 -6.46933E+03  3.54589E+04 -2.31762E+04  2.19284E+04 -2.58183E+04  4.16273E+03 -1.71961E+04 -6.82292E+03
 -6.69170E+03 -8.71836E+03 -4.27200E+02  1.31320E+02 -3.50119E+03  3.64364E+03 -8.47748E+03  5.96871E+03
 -1.53053E+04 -9.15991E+02 -1.69253E+04 -1.29357E+04 -7.02499E+03 -2.12726E+04  7.16200E+03 -1.74471E+04
  1.41656E+04 -6.96429E+03  1.03078E+04  5.39778E+03 -1.00327E+03  7.40870E+03 -9.46623E+03 -1.67545E+02
 -8.81729E+03 -1.13163E+04 -8.18565E+02 -1.76659E+04  1.05557E+04 -1.88154E+04  2.32223E+04 -1.03266E+04
  2.70739E+04  3.21666E+03  1.96080E+04  1.63370E+04  3.84659E+03  2.21183E+04 -1.07637E+04  1.73540E+04
 -1.44945E+04  4.97430E+03 -7.46450E+03 -4.15263E+03  2.97794E+03 -5.14392E+03  9.55296E+03 -1.28268E+03
  8.88664E+03  7.99314E+03  6.55391E+02  1.44479E+04 -1.04721E+04  1.37583E+04 -1.75269E+04  3.14562E+03
 -1.22943E+04 -9.75384E+03  5.09939E+02 -1.52741E+04  9.99405E+03 -7.99025E+03  1.10724E+04  4.17521E+03
  3.05084E+03  1.17250E+04 -9.51359E+03  1.38686E+04 -1.59965E+04  6.33519E+03 -1.67955E+04 -6.56515E+03
 -9.54467E+03 -1.93053E+04  4.51409E+03 -2.15096E+04  1.84242E+04 -1.24092E+04  1.97637E+04  3.52581E+03
  1.15509E+04  1.57393E+04 -2.48827E+03  1.86492E+04 -1.37971E+04  1.04733E+04 -1.51319E+04 -1.94808E+03
 -1.24885E+04 -1.20984E+04 -1.66176E+03 -1.39939E+04  7.88647E+03 -1.11965E+04  9.00241E+03 -3.98342E+03
  5.36733E+03  2.62341E+03 -1.81951E+03  2.43296E+03 -1.44924E+03 -4.69444E+03  3.65491E+03 -9.44132E+03
  1.42739E+04 -5.97408E+03  1.97628E+04  2.70646E+03  1.84919E+04  1.34288E+04  1.11804E+04  2.54255E+04
 -6.21780E+03  2.92790E+04 -2.40181E+04  2.13220E+04 -3.10141E+04  4.42655E+03 -2.51812E+04 -1.08791E+04
 -1.25033E+04 -2.07778E+04 -5.26244E+02 -1.78569E+04  6.42876E+03 -1.01238E+04  6.40522E+03 -6.23538E+03
  4.84884E+03 -3.61070E+03  4.66390E+03 -4.72045E+03  6.51246E+03 -4.11043E+03  9.46217E+03 -1.89896E+03
  1.32058E+04  2.60121E+03  7.74885E+03  1.14233E+04 -2.42549E+03  1.40118E+04 -1.35388E+04  1.07360E+04
 -1.84207E+04 -1.67775E+03 -1.20123E+04 -1.25305E+04 -1.57389E+03 -1.96206E+04  1.05299E+04 -1.98750E+04
  2.02466E+04 -1.06205E+04  2.36561E+04  3.45946E+03  1.63418E+04  1.67150E+04  2.30048E+03  2.17810E+04
 -9.09188E+03  1.71373E+04 -1.28184E+04  5.90714E+03 -9.21915E+03 -2.30275E+03 -3.80651E+03 -2.46130E+03
 -1.98642E+03 -2.74996E+02 -3.24242E+03  3.79763E+03 -7.54138E+03  2.87112E+03 -1.20393E+04 -1.76346E+03
 -9.62484E+03 -1.22777E+04 -4.43173E+02 -1.88136E+04  1.15373E+04 -1.66213E+04  1.86942E+04 -5.17852E+03
  1.80620E+04  9.01664E+03  8.84183E+03  1.75089E+04 -3.61052E+03  1.86051E+04 -1.39477E+04  1.16396E+04
 -1.76383E+04 -4.11541E+01 -1.34210E+04 -1.12313E+04 -1.32995E+03 -1.62437E+04  8.51320E+03 -1.16274E+04
  1.16426E+04 -3.28863E+03  8.23598E+03  3.12897E+03  2.66916E+03  5.70480E+03  1.85867E+03  2.76673E+03
  3.45773E+03  1.26448E+03  4.45086E+03  2.06570E+03  5.79057E+03  6.12518E+03  5.07873E+03  1.04649E+04
 -3.57510E+03  1.55610E+04 -1.34686E+04  1.49705E+04 -2.01557E+04  3.86448E+03 -2.01524E+04 -8.93869E+03
 -9.83138E+03 -1.91400E+04  2.74431E+03 -2.11051E+04  1.25820E+04 -1.38848E+04  1.62001E+04 -3.50955E+03
  1.20435E+04  7.34612E+03  2.87722E+03  1.12923E+04 -5.88420E+03  7.56770E+03 -8.21892E+03 -1.26467E+03
 -3.97639E+03 -8.32958E+03  3.92397E+03 -8.80870E+03  8.00248E+03 -4.22152E+03  8.65215E+03  1.71796E+03
  4.72527E+03  4.01739E+03  1.60397E+03  3.86315E+03 -1.11533E+03  2.78861E+03  1.77319E+03 -8.66910E+02
  3.39592E+03 -1.00496E+03  8.12295E+03  3.12212E+03  5.34078E+03  1.02324E+04 -1.59425E+03  1.38982E+04
 -9.72543E+03  9.75558E+03 -1.29971E+04  2.70179E+03 -1.17098E+04 -4.33954E+03 -4.66063E+03 -8.12058E+03
  8.19882E+02 -8.29735E+03  5.04729E+03 -3.63885E+03  4.33230E+03  3.36994E+03 -1.65278E+03  6.33203E+03
 -8.54632E+03  3.69810E+03 -1.00328E+04 -4.68155E+03 -5.44082E+03 -1.05025E+04  1.68939E+03 -1.15839E+04
  6.97720E+03 -6.85240E+03  8.61458E+03 -1.21407E+03  6.25537E+03  2.53271E+03  1.05408E+03  5.67683E+03
 -3.76517E+03  1.79445E+03 -4.60464E+03 -4.04035E+03  1.90110E+03 -9.27091E+03  1.00240E+04 -7.28387E+03
  1.34892E+04  6.30256E+02  1.18818E+04  8.94220E+03  3.58793E+03  1.41834E+04 -5.36432E+03  1.28091E+04
 -1.06349E+04  5.69519E+03 -1.15374E+04 -1.67462E+03 -6.21020E+03 -9.16420E+03  1.77480E+03 -8.81540E+03
  8.14548E+03 -4.05560E+03  7.13111E+03  3.92789E+03  2.37880E+03  7.37070E+03 -1.31325E+03  6.42994E+03
 -3.99131E+03  4.11772E+03 -3.50206E+03  1.44368E+03 -1.69106E+03  1.13850E+03 -1.77716E+03  2.75886E+03
 -3.55920E+03  4.95502E+03 -9.24489E+03  5.07278E+03 -1.35604E+04  2.21943E+02 -1.54372E+04 -9.14095E+03
 -8.22832E+03 -1.86955E+04  3.89031E+03 -2.10682E+04  1.35834E+04 -1.65264E+04  2.06157E+04 -6.33545E+03
  1.89880E+04  4.06240E+03  1.17579E+04  1.29205E+04  1.64165E+03  1.44119E+04 -5.70436E+03  1.06583E+04
 -8.27970E+03  3.81865E+03 -5.33898E+03 -1.43790E+03 -1.59853E+03 -1.21216E+03 -2.15695E+02  1.57572E+02
 -2.17255E+03  2.32517E+02 -3.30480E+03 -1.09741E+03 -1.19659E+03 -3.83135E+03  5.96713E+02 -5.13849E+03
  6.33819E+03 -4.97739E+03  9.39152E+03  1.12702E+02  1.05440E+04  7.93746E+03  3.44324E+03  1.47052E+04
 -7.01754E+03  1.70958E+04 -1.56156E+04  9.95888E+03 -1.86724E+04 -1.85609E+03 -1.43339E+04 -1.08605E+04
 -5.45425E+03 -1.52159E+04  3.94929E+03 -1.44533E+04  1.01124E+04 -7.78893E+03  1.00020E+04  7.39183E+02
  4.95212E+03  5.10246E+03 -3.67609E+02  4.77443E+03 -3.06325E+03 -1.07565E+02 -1.08543E+02 -3.89143E+03
  4.56740E+03 -2.40643E+03  6.11154E+03  1.78626E+03  4.21172E+03  5.73278E+03 -3.01927E+02  7.90381E+03
 -6.74990E+03  6.66767E+03 -1.01771E+04  9.60940E+02 -9.17075E+03 -7.63343E+03 -1.21126E+03 -1.28820E+04
  7.11479E+03 -1.07834E+04  1.19700E+04 -3.36665E+03  1.20479E+04  3.70603E+03  6.64633E+03  9.49642E+03
  1.68845E+03  1.03999E+04 -3.96248E+03  8.34643E+03 -7.05148E+03  4.46921E+03 -5.81693E+03  2.11708E+02
 -3.25632E+03 -2.51901E+02 -2.98210E+03  1.34723E+03 -5.42847E+03  1.63434E+03 -7.66192E+03 -1.46143E+03
 -7.53451E+03 -5.93346E+03 -2.41969E+03 -1.08580E+04  5.07016E+03 -1.10978E+04  9.31825E+03 -4.78534E+03
  1.08399E+04  1.57972E+03  6.57627E+03  7.45741E+03 -7.39649E+02  1.05064E+04 -8.62683E+03  7.09751E+03
