 $NMID ID='MM_0lb_SNR800_19hz_g50_6.RAW', FMTDAT='(8E13.5)'
 TRAMP=1., VOLUME=1. $END
  3.09640E+05  3.69825E+02  3.37138E+05  2.50412E+05  8.43761E+04  3.37369E+05 -1.32508E+05  2.50349E+05
 -1.89796E+05  8.24121E+04 -1.11013E+05 -3.27843E+04  1.47937E+03 -5.04146E+04  5.37270E+04  3.98958E+01
  3.50604E+04  5.29571E+04 -1.69941E+04  7.48951E+04 -6.01854E+04  6.27337E+04 -8.33616E+04  3.15522E+04
 -8.00581E+04 -1.10753E+04 -5.62082E+04 -5.02772E+04 -1.50007E+04 -6.85129E+04  2.66950E+04 -4.48765E+04
  3.91151E+04  3.73770E+03  1.55012E+04  4.70536E+04 -3.40139E+04  4.62007E+04 -6.54594E+04 -7.27054E+02
 -5.20614E+04 -5.57780E+04 -6.32776E+03 -7.51802E+04  3.29799E+04 -5.34384E+04  4.65090E+04 -1.65946E+04
  4.17188E+04  1.10193E+04  3.07992E+04  2.44855E+04  1.59529E+04  2.82813E+04 -4.44425E+03  2.69388E+04
 -2.18844E+04  1.29770E+04 -1.90986E+04 -4.33814E+03  4.16065E+03 -7.57442E+03  2.12101E+04  1.10766E+04
  7.59163E+03  3.33377E+04 -3.05579E+04  3.39475E+04 -6.09682E+04  2.23339E+03 -5.53661E+04 -4.12254E+04
 -1.22896E+04 -6.09632E+04  3.80985E+04 -4.33834E+04  5.56842E+04 -2.06616E+03  3.21294E+04  3.04886E+04
 -6.45448E+03  3.32534E+04 -2.86566E+04  1.35093E+04 -2.76273E+04 -5.04039E+03 -1.44646E+04 -1.00971E+04
 -7.45837E+03 -1.15070E+04 -1.02642E+03 -1.67290E+04  6.72611E+03 -2.27242E+04  1.50550E+04 -1.37575E+04
  1.21233E+04  4.26009E+03 -6.53721E+03  1.31437E+04 -1.92594E+04 -2.83670E+03 -8.02054E+03 -3.03920E+04
  2.09196E+04 -4.04788E+04  4.48216E+04 -1.86949E+04  4.17964E+04  1.86409E+04  1.44042E+04  4.16747E+04
 -1.53720E+04  3.12316E+04 -2.34836E+04  1.02126E+03 -8.25715E+03 -2.62188E+04  2.06796E+04 -3.12123E+04
  3.83012E+04 -7.39826E+03  3.17103E+04  2.24489E+04  1.55457E+04  4.27482E+04 -8.00548E+03  4.52585E+04
 -2.83766E+04  2.99886E+04 -3.73958E+04  8.54656E+03 -3.84224E+04 -1.50613E+04 -2.13345E+04 -3.43570E+04
  6.85520E+03 -3.42930E+04  2.92842E+04 -1.25814E+04  2.72057E+04  1.09727E+04  3.15011E+03  1.80114E+04
 -1.29088E+04  7.12477E+03 -9.52680E+03 -7.96016E+03  6.04188E+03 -1.00775E+04  1.72015E+04  6.64264E+03
  1.23918E+04  2.16314E+04 -6.50774E+03  2.32762E+04 -2.13796E+04  9.50680E+03 -2.52647E+04 -6.22578E+03
 -1.65602E+04 -1.65614E+04 -5.73149E+03 -1.68416E+04  3.61694E+03 -1.46604E+04  1.26261E+04 -1.44886E+04
  2.13289E+04 -1.16056E+04  2.81744E+04  9.89187E+02  2.14864E+04  1.65980E+04  4.10559E+03  3.26393E+04
 -1.59835E+04  2.73550E+04 -2.58120E+04  9.57879E+03 -1.94739E+04 -1.03007E+04 -3.97099E+03 -1.40240E+04
  2.51674E+03 -4.07800E+03 -2.91235E+03  5.13857E+03 -1.26821E+04  5.30337E+03 -1.33668E+04 -4.79080E+03
 -8.73262E+03 -1.56888E+04  4.51308E+03 -1.93804E+04  1.23946E+04 -1.37095E+04  1.47165E+04 -1.40550E+03
  8.92047E+03  1.09196E+04 -6.40773E+02  1.57630E+04 -1.03892E+04  8.49805E+03 -1.53868E+04 -3.26857E+03
 -1.13535E+04 -1.40095E+04 -1.41069E+03 -1.89683E+04  8.80269E+03 -1.51876E+04  1.59369E+04 -6.98783E+03
  1.45387E+04  4.56103E+02  1.07373E+04  3.80483E+03  5.13205E+03  4.22848E+02  7.63797E+03 -1.26148E+03
  1.39733E+04  2.67747E+03  1.46424E+04  1.24711E+04  9.14765E+03  2.44041E+04 -2.78741E+03  2.66346E+04
 -1.57354E+04  2.01659E+04 -2.39448E+04  9.40022E+03 -2.45425E+04 -1.90320E+03 -2.11627E+04 -1.42954E+04
 -1.00576E+04 -2.00961E+04  6.55619E+03 -1.90686E+04  1.65158E+04 -1.08075E+04  1.54284E+04  3.72026E+03
  6.61129E+03  1.09064E+04 -6.85420E+03  1.04244E+04 -1.31986E+04  2.59991E+03 -1.02049E+04 -8.06770E+03
 -8.11580E+01 -1.21440E+04  6.12206E+03 -9.47130E+03  7.88280E+03 -1.38063E+03  1.53961E+03  4.91736E+03
 -5.47233E+03  1.10335E+03 -3.18520E+03 -4.56709E+03  5.56727E+02 -9.88243E+03  7.61710E+03 -1.01756E+04
  1.20663E+04 -4.40358E+03  1.18122E+04  2.61006E+03  1.01237E+04  9.07802E+03  4.75481E+03  1.39671E+04
 -1.73239E+03  1.57010E+04 -9.44003E+03  9.95643E+03 -1.09269E+04  3.11696E+03 -8.17396E+03 -1.62569E+03
 -4.46630E+03 -2.83897E+03 -8.35610E+02  1.46324E+03 -1.91177E+03  1.65427E+03 -3.66816E+03  3.57597E+03
 -7.94647E+03 -6.21787E+02 -8.51051E+03 -7.04259E+03 -3.39514E+03 -1.16754E+04  3.35793E+03 -8.29879E+03
  7.03113E+03 -3.50647E+03  5.01135E+03  2.17128E+03  6.93883E+02  2.99553E+03 -3.26739E+03 -2.50792E+02
 -3.31239E+03 -5.10304E+03 -9.18506E+02 -7.11651E+03  3.61243E+03 -7.71044E+03  9.55633E+03 -3.90429E+03
  1.14456E+04  7.51578E+02  8.60226E+03  6.11597E+03  1.47307E+03  8.66149E+03 -5.29158E+03  8.19595E+03
 -6.95032E+03  2.97886E+03 -3.44097E+03 -7.45887E+02  1.18246E+03 -1.74576E+03  4.86637E+03 -1.10355E+03
  4.19184E+03  3.17798E+03  1.05187E+03  6.03471E+03 -4.70605E+03  6.06713E+03 -7.60711E+03  2.03134E+03
 -4.88587E+03 -3.51234E+03  3.54033E+02 -6.64719E+03  3.66110E+03 -3.20604E+03  3.30114E+03  8.64190E+02
  3.09219E+02  3.17955E+03 -4.11440E+03  4.77907E+03 -4.61181E+03  2.22254E+03 -4.45249E+03 -9.53977E+02
 -2.75751E+03 -5.46798E+03  1.07668E+03 -6.71335E+03  5.88808E+03 -4.53986E+03  6.31596E+03  9.70234E+02
  4.67680E+03  5.10771E+03  1.22678E+02  7.00103E+03 -4.78195E+03  4.08727E+03 -4.73212E+03 -4.45281E+02
 -5.58919E+03 -5.05224E+03 -1.09699E+03 -4.92379E+03  2.42820E+03 -4.78589E+03  2.83901E+03 -2.96208E+03
  2.89111E+03  6.86999E+01  2.30545E+02  1.54539E+03  4.46754E+02 -3.83252E+02  7.98645E+01 -1.74010E+03
  3.67446E+03 -5.78141E+02  4.90702E+03  4.59110E+02  5.48243E+03  3.04184E+03  5.18461E+03  6.58290E+03
 -1.25540E+03  8.10295E+03 -7.30334E+03  6.29471E+03 -9.26051E+03  9.78986E+02 -7.07599E+03 -2.47568E+03
 -4.00712E+03 -6.43718E+03 -4.93732E+02 -4.99655E+03  1.83150E+03 -1.81998E+03  1.74341E+03 -1.88373E+03
  1.33865E+03 -1.39012E+03  2.20560E+03 -2.27652E+03  3.43535E+03 -1.47410E+03  3.39034E+03  4.43649E+02
  4.31954E+03  1.18174E+03  9.72364E+02  3.27813E+03 -1.36884E+03  2.89238E+03 -4.34953E+03  2.16837E+03
 -4.65921E+03 -9.59967E+02 -1.59009E+03 -2.90440E+03  3.40300E+02 -4.73074E+03  3.08766E+03 -4.87883E+03
  4.98934E+03 -3.23794E+03  6.15737E+03  1.97654E+02  4.79164E+03  3.79864E+03  8.55372E+02  5.76123E+03
 -1.68878E+03  5.27503E+03 -3.26937E+03  1.80516E+03 -1.77768E+03 -1.16824E+03 -5.19989E+02 -5.70363E+02
 -5.31485E+02  1.63312E+02 -1.01083E+03  1.85437E+03 -2.47383E+03  8.97030E+02 -3.73977E+03 -2.35680E+02
 -1.35666E+03 -4.05516E+03  8.35332E+02 -4.55295E+03  2.76188E+03 -3.95640E+03  3.39270E+03 -8.66668E+02
  3.90571E+03  2.08251E+03  1.53823E+03  3.16052E+03 -6.98971E+02  4.15481E+03 -2.51533E+03  2.42521E+03
 -3.36143E+03  4.97394E+02 -3.09033E+03 -2.22977E+03 -2.30413E+02 -3.08520E+03  1.47904E+03 -2.22626E+03
  2.50097E+03 -1.14774E+03  1.47597E+03  6.34061E+02  2.68022E+02  1.59992E+03  8.01164E+02  4.70995E+02
  1.77178E+03  3.78980E+02  1.40645E+03  9.50281E+02  7.33554E+02  2.05966E+03  1.39552E+03  1.52858E+03
 -9.45859E+02  2.76111E+03 -2.44824E+03  3.70629E+03 -2.72654E+03  1.26744E+03 -3.84095E+03 -7.66910E+01
 -1.65010E+03 -3.34265E+03  7.30431E+02 -4.38289E+03  1.97918E+03 -2.53286E+03  2.73652E+03 -8.68254E+02
  2.40534E+03  1.53437E+03  1.27451E+02  2.22119E+03 -9.72520E+02  1.19455E+03 -9.73759E+02 -1.91755E+02
 -4.36045E+02 -1.60168E+03  1.19428E+03 -1.36285E+03  1.25328E+03 -8.63706E+02  1.17810E+03  3.86964E+02
  5.95942E+02  2.40083E+02  5.91435E+02 -2.65943E+02 -4.07266E+02  6.04808E+02  1.63601E+03 -3.32953E+02
 -2.38795E+02 -1.95025E+02  1.59774E+03  3.00493E+02  2.01032E+02  1.97018E+03 -2.69908E+02  2.60762E+03
 -1.52688E+03  9.52553E+02 -1.85964E+03  3.10810E+02 -1.74183E+03 -9.42295E+02 -3.11142E+02 -7.92391E+02
  3.38520E+02 -1.00548E+03  9.26502E+02 -6.78384E+02  6.04293E+02  1.35615E+03 -8.68778E+02  9.56231E+02
 -1.56330E+03  6.97537E+02 -1.14965E+03 -1.05799E+03 -4.60362E+02 -1.89508E+03  1.91843E+02 -1.48982E+03
  3.22729E+02 -5.51771E+02  4.28497E+02  3.34903E+02  1.48329E+03 -6.84782E+01  2.80137E+02  8.97085E+02
 -2.60740E+02  3.41828E+02 -7.22450E+02 -1.85223E+02  6.41900E+02 -6.18426E+02  1.36216E+03 -8.21470E+02
  1.07890E+03 -4.59789E+01  2.56517E+03  6.25819E+02  9.92609E+02  1.51814E+03 -2.37798E+01  1.65163E+03
 -1.37118E+03  9.32044E+01 -1.27663E+03 -1.09432E+01 -8.42554E+02 -1.02381E+03  3.46493E+02 -2.89309E+02
  1.45986E+03 -4.74812E+02  5.69888E+02  7.27837E+02  3.40346E+02  1.24435E+03  3.85162E+02  1.11868E+03
 -6.43439E+02  1.18861E+03 -3.36191E+02 -2.26762E+02  2.66579E+02  4.78858E+02 -6.41960E+02  5.47123E+02
 -4.45842E+02  8.51410E+02 -1.65097E+03  3.64683E+02 -1.62705E+03  6.45239E+01 -2.40352E+03 -7.62487E+02
 -8.03509E+02 -1.92683E+03  4.60644E+02 -2.55788E+03  7.95610E+02 -2.04912E+03  2.40557E+03 -8.43285E+02
  2.15605E+03 -3.24832E+02  9.37537E+02  1.46854E+03 -5.79561E+02  1.04403E+03 -9.07489E+02  9.03032E+02
 -6.60691E+02  7.40397E+02 -3.05864E+02 -3.04190E+02 -6.36230E+02  5.72597E+02 -5.93468E+02  2.48985E+02
 -1.01797E+03 -1.58106E+02 -1.07290E+03 -2.42068E+01  2.27041E+02 -5.27262E+02 -1.97789E+02 -6.13328E+02
  1.20666E+03 -3.94220E+02  3.31937E+02  4.08419E+02  1.00046E+03  6.90828E+02 -5.11564E+02  1.13808E+03
 -1.17278E+03  2.04309E+03 -1.27879E+03  1.26537E+03 -1.55972E+03  4.71229E+01 -1.12239E+03 -8.51939E+02
 -1.12170E+03 -1.04002E+03 -6.62271E-01 -7.58615E+02  4.57666E+02 -5.94526E+02  5.09857E+02  1.64791E+02
  4.48827E+02  3.07379E+02  1.06813E+02  1.89504E+02 -3.39703E+02  1.70746E+02 -3.96040E+00  1.45701E+01
  2.52896E+02  1.41920E+02  6.49764E+01  3.83460E+02  1.51506E+02  5.49906E+02  5.02331E+02  5.00488E+01
 -4.60305E+02  6.56720E+02 -3.65088E+02  4.26067E+02 -5.97894E+02 -4.33504E+02  1.63257E+02 -9.81435E+02
  5.17413E+02 -3.85549E+02  3.78876E+02  3.15971E+02  7.38415E+02 -7.39114E+02  4.10862E+02  4.51080E+02
  7.18784E+02  4.01945E+02 -3.22930E+01  1.61378E+02 -3.19326E+02  5.79376E+02 -3.12321E+02 -2.12521E+02
 -2.17769E+02 -3.68700E+02 -2.07576E+02  2.60748E+02 -5.90458E+02 -4.95360E+01 -6.71993E+02 -4.02942E+01
 -8.72612E+02  4.57871E+02 -4.20099E+02 -8.41350E+02  5.47559E+02 -1.34592E+03  5.86528E+02  1.82622E+00
  6.50932E+02 -2.01776E+02 -2.29244E+02  8.01277E+01 -1.58662E+02  7.15774E+02  2.54347E+01  5.23337E+02
