 $NMID ID='MM_0lb_SNR800_15hz_g60_86.RAW', FMTDAT='(8E13.5)'
 TRAMP=1., VOLUME=1. $END
  3.09910E+05  3.86386E+02  3.37876E+05  2.50461E+05  8.48514E+04  3.38032E+05 -1.32580E+05  2.51395E+05
 -1.90520E+05  8.30834E+04 -1.12169E+05 -3.26599E+04  4.53251E+02 -5.06033E+04  5.37548E+04 -3.31033E+02
  3.55124E+04  5.29550E+04 -1.65793E+04  7.59393E+04 -6.07706E+04  6.40134E+04 -8.44935E+04  3.18063E+04
 -8.16348E+04 -1.16068E+04 -5.74698E+04 -5.18610E+04 -1.50257E+04 -7.00298E+04  2.77055E+04 -4.58362E+04
  4.03165E+04  3.80675E+03  1.64928E+04  4.80295E+04 -3.44200E+04  4.72216E+04 -6.68968E+04 -2.58152E+02
 -5.34693E+04 -5.74131E+04 -6.88175E+03 -7.75808E+04  3.43552E+04 -5.54058E+04  4.83959E+04 -1.74756E+04
  4.39161E+04  1.12498E+04  3.19715E+04  2.57240E+04  1.60132E+04  2.97098E+04 -5.28730E+03  2.74693E+04
 -2.20791E+04  1.19549E+04 -1.86231E+04 -4.99792E+03  5.96309E+03 -7.74601E+03  2.24435E+04  1.25074E+04
  7.33289E+03  3.57499E+04 -3.24043E+04  3.57354E+04 -6.39987E+04  2.18079E+03 -5.75185E+04 -4.29348E+04
 -1.26370E+04 -6.40649E+04  3.99467E+04 -4.60117E+04  5.87034E+04 -2.42233E+03  3.48996E+04  3.26153E+04
 -5.75447E+03  3.68914E+04 -3.04860E+04  1.65411E+04 -3.11044E+04 -4.09272E+03 -1.71755E+04 -1.08807E+04
 -8.68939E+03 -1.33449E+04 -3.62166E+02 -1.84596E+04  7.57671E+03 -2.33112E+04  1.55703E+04 -1.33568E+04
  1.12873E+04  5.30337E+03 -8.65101E+03  1.28130E+04 -2.15890E+04 -4.64619E+03 -8.45879E+03 -3.46420E+04
  2.30534E+04 -4.39304E+04  4.87862E+04 -1.98728E+04  4.56519E+04  1.95532E+04  1.62049E+04  4.49272E+04
 -1.62542E+04  3.37027E+04 -2.59762E+04  1.85460E+03 -1.04493E+04 -2.82251E+04  2.11257E+04 -3.43324E+04
  4.19923E+04 -9.38967E+03  3.65771E+04  2.43413E+04  1.86308E+04  4.70098E+04 -7.67235E+03  5.12017E+04
 -3.25856E+04  3.45537E+04 -4.28954E+04  9.71442E+03 -4.34125E+04 -1.66703E+04 -2.40971E+04 -3.87106E+04
  7.50594E+03 -3.87174E+04  3.19412E+04 -1.51883E+04  2.98130E+04  1.08923E+04  4.12790E+03  1.96138E+04
 -1.39169E+04  8.21991E+03 -1.05639E+04 -7.57196E+03  5.79273E+03 -1.09242E+04  1.81120E+04  6.19523E+03
  1.37271E+04  2.20810E+04 -6.09142E+03  2.49632E+04 -2.24485E+04  1.21870E+04 -2.84647E+04 -4.34085E+03
 -2.11415E+04 -1.71516E+04 -8.64214E+03 -2.12925E+04  3.94521E+03 -2.04317E+04  1.60682E+04 -1.89973E+04
  2.68298E+04 -1.29357E+04  3.31653E+04  3.10600E+03  2.46172E+04  2.06858E+04  4.33016E+03  3.71010E+04
 -1.83084E+04  3.11404E+04 -2.81206E+04  1.08021E+04 -2.10373E+04 -1.01916E+04 -4.57043E+03 -1.33314E+04
  1.51071E+03 -2.73654E+03 -5.35159E+03  6.79351E+03 -1.67811E+04  4.99087E+03 -1.69613E+04 -7.03654E+03
 -1.03154E+04 -1.96083E+04  5.19084E+03 -2.35032E+04  1.56634E+04 -1.69694E+04  1.87538E+04 -1.85928E+03
  1.18189E+04  1.33122E+04 -1.20597E+03  1.94182E+04 -1.33171E+04  1.10899E+04 -1.92409E+04 -4.34433E+03
 -1.42896E+04 -1.73881E+04 -2.10280E+03 -2.34867E+04  1.07204E+04 -1.91379E+04  1.94522E+04 -9.34599E+03
  1.82471E+04  3.18312E+02  1.29643E+04  4.62246E+03  6.87383E+03  1.17372E+03  9.89983E+03 -1.77874E+03
  1.72689E+04  2.97977E+03  1.98930E+04  1.54806E+04  1.30925E+04  3.04497E+04 -2.87430E+03  3.48049E+04
 -2.03691E+04  2.82869E+04 -3.25654E+04  1.42826E+04 -3.38561E+04 -2.43154E+03 -2.82815E+04 -1.96869E+04
 -1.23029E+04 -2.81227E+04  9.65788E+03 -2.52869E+04  2.20128E+04 -1.30028E+04  1.94937E+04  5.64925E+03
  7.42969E+03  1.49995E+04 -9.17033E+03  1.26160E+04 -1.62481E+04  2.56176E+03 -1.26878E+04 -9.82916E+03
 -3.07447E+02 -1.51727E+04  7.63180E+03 -1.16596E+04  1.06034E+04 -1.20452E+03  2.53415E+03  6.49969E+03
 -6.91255E+03  2.73527E+03 -6.12523E+03 -5.64901E+03 -2.67220E+02 -1.35654E+04  9.85516E+03 -1.46039E+04
  1.70952E+04 -7.34355E+03  1.80669E+04  2.68275E+03  1.62025E+04  1.35273E+04  7.64928E+03  2.06117E+04
 -3.20611E+03  2.26533E+04 -1.42940E+04  1.40619E+04 -1.60692E+04  3.37978E+03 -1.13724E+04 -3.50096E+03
 -5.40533E+03 -4.95189E+03 -4.74814E+02  9.09866E+02 -2.22630E+03  2.92099E+03 -5.19850E+03  4.55390E+03
 -1.08071E+04 -7.70818E+02 -1.13540E+04 -9.02618E+03 -4.64437E+03 -1.50587E+04  4.75522E+03 -1.15361E+04
  9.50638E+03 -5.16460E+03  6.64623E+03  3.18807E+03  1.82929E+02  4.47534E+03 -5.63758E+03 -4.34662E+02
 -4.87243E+03 -6.97634E+03 -1.04618E+03 -1.06906E+04  6.10946E+03 -1.11531E+04  1.41154E+04 -5.76458E+03
  1.64806E+04  1.47779E+03  1.21808E+04  9.60442E+03  2.75460E+03  1.29321E+04 -7.19616E+03  1.14450E+04
 -9.11351E+03  3.40439E+03 -4.76217E+03 -2.10684E+03  1.84388E+03 -3.11332E+03  6.21515E+03 -1.03359E+03
  5.64017E+03  4.78550E+03  1.35248E+03  8.87608E+03 -6.47795E+03  8.92842E+03 -1.08686E+04  2.29417E+03
 -6.91824E+03 -5.48627E+03  1.71820E+02 -9.48473E+03  5.90668E+03 -4.76459E+03  5.44016E+03  1.55929E+03
  1.44474E+03  5.92477E+03 -5.73900E+03  7.02131E+03 -8.17035E+03  3.40315E+03 -8.11946E+03 -2.52171E+03
 -4.96214E+03 -9.69824E+03  2.48978E+03 -1.14129E+04  9.56500E+03 -7.00428E+03  1.02731E+04  1.66100E+03
  6.82699E+03  8.21367E+03 -1.75185E+02  1.03623E+04 -7.57857E+03  5.86131E+03 -7.97799E+03 -8.27547E+02
 -7.75162E+03 -7.37964E+03 -1.68097E+03 -7.70928E+03  3.66282E+03 -6.23803E+03  4.51517E+03 -3.32165E+03
  3.79878E+03  9.39402E+02 -6.96457E+02  1.46750E+03  1.47078E+02 -1.42859E+03  1.15006E+03 -3.90387E+03
  6.77662E+03 -2.24338E+03  9.11328E+03  1.24681E+03  8.84371E+03  5.68673E+03  6.90939E+03  1.22286E+04
 -2.80290E+03  1.41069E+04 -1.17220E+04  1.07071E+04 -1.57090E+04  1.83744E+03 -1.23928E+04 -4.78795E+03
 -6.57420E+03 -1.01248E+04 -1.36572E+02 -8.36354E+03  3.21136E+03 -4.16037E+03  2.73899E+03 -3.29196E+03
  2.13792E+03 -2.07152E+03  2.90330E+03 -2.51542E+03  4.63191E+03 -1.85718E+03  5.63903E+03 -3.97868E+02
  6.73063E+03  1.44959E+03  2.53011E+03  5.34677E+03 -1.76585E+03  5.77536E+03 -6.74881E+03  4.61914E+03
 -8.46623E+03 -1.49612E+03 -4.01727E+03 -6.00625E+03 -2.83731E+02 -8.81676E+03  5.13002E+03 -8.84979E+03
  8.98484E+03 -4.98457E+03  1.09578E+04  9.74393E+02  7.85346E+03  6.96918E+03  1.16255E+03  9.62612E+03
 -3.81257E+03  8.55832E+03 -5.60953E+03  3.14245E+03 -3.72299E+03 -1.47676E+03 -1.20501E+03 -7.42081E+02
 -4.60403E+02  3.46777E+02 -1.43373E+03  2.41580E+03 -3.58628E+03  1.60485E+03 -5.81898E+03 -6.02046E+02
 -3.09776E+03 -5.96264E+03  7.65144E+02 -7.74175E+03  4.55771E+03 -6.85690E+03  7.02585E+03 -1.99216E+03
  7.24013E+03  4.00814E+03  3.27054E+03  6.45914E+03 -1.24391E+03  7.29200E+03 -5.29612E+03  4.64839E+03
 -6.59729E+03  2.84538E+02 -5.60433E+03 -4.43091E+03 -6.18427E+02 -6.31069E+03  3.07012E+03 -4.66616E+03
  4.76274E+03 -1.66400E+03  3.32030E+03  1.21005E+03  8.87713E+02  2.47657E+03  1.13349E+03  1.03644E+03
  1.99449E+03  6.85756E+02  1.80271E+03  1.36317E+03  1.97674E+03  2.70487E+03  1.87148E+03  3.43897E+03
 -1.41666E+03  5.10608E+03 -4.88379E+03  6.32191E+03 -6.27901E+03  1.70493E+03 -7.19011E+03 -2.11701E+03
 -3.22323E+03 -6.67846E+03  1.07873E+03 -8.20628E+03  4.16680E+03 -5.12370E+03  5.61225E+03 -1.61452E+03
  4.71517E+03  2.99540E+03  1.00346E+03  4.08745E+03 -1.56029E+03  2.72610E+03 -2.51872E+03 -3.19250E+02
 -1.16979E+03 -2.70510E+03  1.88217E+03 -3.23056E+03  2.70370E+03 -1.48231E+03  2.65607E+03  6.13657E+02
  1.63265E+03  1.14555E+03  8.02529E+02  4.65604E+02 -3.92565E+02  1.08907E+03  1.42865E+03 -2.33859E+02
  8.03172E+02 -3.45918E+02  3.08538E+03  1.27966E+03  1.26178E+03  3.69988E+03 -4.86816E+02  4.99273E+03
 -2.99019E+03  2.62008E+03 -4.12562E+03  7.64072E+02 -3.70609E+03 -1.41421E+03 -1.05419E+03 -2.42066E+03
  5.46606E+02 -2.70534E+03  1.90384E+03 -1.21116E+03  1.20360E+03  1.61159E+03 -9.89197E+02  2.17940E+03
 -2.85740E+03  1.19428E+03 -2.60463E+03 -1.98706E+03 -1.55999E+03 -3.48191E+03  6.42253E+02 -3.41374E+03
  1.45390E+03 -1.69358E+03  2.04170E+03  1.47753E+02  2.42504E+03  6.19062E+02  5.38918E+02  2.15572E+03
 -1.18567E+03  2.61321E+02 -1.62725E+03 -3.82592E+02  1.04357E+03 -2.38703E+03  2.93267E+03 -1.84281E+03
  3.36398E+03  4.97599E+02  4.15118E+03  2.17101E+03  1.63548E+03  3.62272E+03 -9.68641E+02  3.80732E+03
 -2.99191E+03  1.15124E+03 -3.24608E+03 -5.73677E+02 -1.68974E+03 -2.50348E+03  6.22558E+02 -1.61412E+03
  2.17424E+03 -1.22593E+03  1.95564E+03  1.15624E+03  6.75305E+02  2.37184E+03 -1.96416E+01  2.28335E+03
 -9.48520E+02  1.23918E+03 -9.49487E+02  4.50941E+02 -5.61950E+01  6.31802E+02 -9.68754E+02  1.01286E+03
 -1.07354E+03  1.62183E+03 -2.90463E+03  1.09300E+03 -3.60160E+03  2.67751E+02 -4.23423E+03 -2.22897E+03
 -2.24411E+03 -4.78025E+03  8.55320E+02 -5.36978E+03  3.13249E+03 -4.84239E+03  5.37593E+03 -1.65370E+03
  4.91272E+03  8.23121E+02  2.50394E+03  3.03111E+03 -5.47778E+02  3.29470E+03 -1.26997E+03  2.53877E+03
 -1.97121E+03  1.26985E+03 -1.08455E+03 -1.88931E+02 -4.17147E+02  2.12232E+02 -5.17008E+02 -3.26724E+02
 -8.74268E+02  1.84577E+01 -1.12749E+03 -6.49035E+01  8.97030E-01 -8.05550E+02 -6.27165E+02 -1.23279E+03
  2.00473E+03 -1.13062E+03  1.50043E+03 -1.65821E+02  2.01694E+03  1.87665E+03 -3.03647E+02  3.27495E+03
 -1.78497E+03  4.34870E+03 -3.68717E+03  2.76648E+03 -3.80470E+03 -1.98869E+02 -3.07524E+03 -2.62072E+03
 -1.45241E+03 -3.19891E+03  6.72352E+02 -2.87898E+03  1.87300E+03 -1.65968E+03  1.84862E+03  3.79686E+02
  1.21502E+03  9.97013E+02  7.14508E+01  9.74842E+02 -4.76083E+02 -8.71709E+01 -1.30965E+02 -5.82420E+02
  1.32634E+03  2.81619E+02  1.24045E+03  6.87475E+02  3.30700E+02  1.18131E+03  5.49638E+02  1.40670E+03
 -1.41422E+03  1.41891E+03 -1.79259E+03  1.00487E+02 -1.84475E+03 -1.41234E+03 -8.93384E+01 -2.47659E+03
  1.26667E+03 -1.96637E+03  1.83037E+03 -6.92179E+02  2.27771E+03 -4.61349E+01  1.48149E+03  2.24185E+03
  6.64983E+02  1.64767E+03 -5.18344E+02  1.54131E+03 -1.15547E+03  1.03446E+03 -1.12207E+03  4.24381E+02
 -4.85121E+02 -5.48867E+01 -4.82767E+02  1.96028E+02 -1.30060E+03  5.14759E+02 -1.71687E+03 -2.79079E+02
 -1.76920E+03 -7.69672E+02 -5.16628E+02 -1.91570E+03  1.30024E+03 -2.37492E+03  1.73384E+03 -5.49674E+02
  1.14564E+03  3.22045E+02  5.85013E+02  1.24623E+03  5.51643E+01  1.65208E+03 -9.97586E+02  9.32621E+02
