 $NMID ID='MM_0lb_SNR800_16hz_g40_11.RAW', FMTDAT='(8E13.5)'
 TRAMP=1., VOLUME=1. $END
  3.09677E+05  3.63498E+02  3.37199E+05  2.50515E+05  8.45617E+04  3.37678E+05 -1.32227E+05  2.50236E+05
 -1.89745E+05  8.24562E+04 -1.11310E+05 -3.28052E+04  1.35311E+03 -5.01392E+04  5.37758E+04  4.06881E+00
  3.50795E+04  5.27986E+04 -1.68646E+04  7.50060E+04 -6.01626E+04  6.31571E+04 -8.33310E+04  3.16852E+04
 -7.98669E+04 -1.11889E+04 -5.63644E+04 -5.06204E+04 -1.52729E+04 -6.87920E+04  2.68164E+04 -4.52280E+04
  3.93495E+04  3.65862E+03  1.56768E+04  4.71560E+04 -3.39964E+04  4.63500E+04 -6.60288E+04 -2.08986E+02
 -5.23485E+04 -5.63606E+04 -6.45410E+03 -7.57258E+04  3.37280E+04 -5.33653E+04  4.66493E+04 -1.66607E+04
  4.20996E+04  1.10627E+04  3.12762E+04  2.49108E+04  1.56514E+04  2.86999E+04 -4.91127E+03  2.66282E+04
 -2.19216E+04  1.25474E+04 -1.89373E+04 -4.51874E+03  4.65362E+03 -8.03792E+03  2.15511E+04  1.14502E+04
  7.45526E+03  3.38411E+04 -3.09893E+04  3.46220E+04 -6.18867E+04  2.32243E+03 -5.54137E+04 -4.17293E+04
 -1.22393E+04 -6.14834E+04  3.84703E+04 -4.41370E+04  5.63992E+04 -1.93281E+03  3.25855E+04  3.10506E+04
 -5.91569E+03  3.40242E+04 -2.89470E+04  1.42885E+04 -2.83329E+04 -5.13098E+03 -1.51012E+04 -1.03136E+04
 -7.77299E+03 -1.18372E+04 -8.36480E+02 -1.67099E+04  6.83923E+03 -2.27771E+04  1.50243E+04 -1.36830E+04
  1.19772E+04  4.67477E+03 -6.93218E+03  1.30548E+04 -1.99265E+04 -3.23492E+03 -8.16825E+03 -3.16663E+04
  2.14968E+04 -4.13054E+04  4.60910E+04 -1.89196E+04  4.30046E+04  1.88083E+04  1.45858E+04  4.25326E+04
 -1.53485E+04  3.17278E+04 -2.39978E+04  1.17456E+03 -9.08396E+03 -2.69012E+04  2.07817E+04 -3.22498E+04
  3.88349E+04 -7.66308E+03  3.27668E+04  2.28957E+04  1.64237E+04  4.39319E+04 -7.89673E+03  4.69301E+04
 -2.93343E+04  3.10146E+04 -3.89360E+04  8.81186E+03 -3.99165E+04 -1.55845E+04 -2.18458E+04 -3.58748E+04
  6.95944E+03 -3.53935E+04  3.01534E+04 -1.33502E+04  2.77540E+04  1.11650E+04  3.20657E+03  1.81065E+04
 -1.31075E+04  7.45264E+03 -9.68320E+03 -7.60816E+03  5.84969E+03 -1.03004E+04  1.75009E+04  6.42884E+03
  1.25754E+04  2.20367E+04 -6.15221E+03  2.37941E+04 -2.15968E+04  9.89583E+03 -2.61029E+04 -5.72206E+03
 -1.81055E+04 -1.67172E+04 -6.63340E+03 -1.79884E+04  3.86813E+03 -1.63063E+04  1.35309E+04 -1.54756E+04
  2.28576E+04 -1.22162E+04  2.96763E+04  1.50681E+03  2.21420E+04  1.73961E+04  3.80662E+03  3.38310E+04
 -1.66343E+04  2.85209E+04 -2.66278E+04  9.64312E+03 -1.99164E+04 -1.01529E+04 -4.04920E+03 -1.38597E+04
  2.32699E+03 -3.63093E+03 -3.37623E+03  6.01917E+03 -1.39321E+04  5.18280E+03 -1.42778E+04 -5.76916E+03
 -9.19251E+03 -1.67896E+04  4.77514E+03 -2.05222E+04  1.36056E+04 -1.47222E+04  1.57363E+04 -1.51963E+03
  1.00779E+04  1.15742E+04 -8.61782E+02  1.70938E+04 -1.13296E+04  9.61439E+03 -1.66683E+04 -3.60535E+03
 -1.27140E+04 -1.52623E+04 -1.57879E+03 -2.04516E+04  9.30213E+03 -1.66049E+04  1.70449E+04 -7.88162E+03
  1.58204E+04  8.41300E+02  1.13084E+04  4.00625E+03  5.63353E+03  7.19694E+02  8.33165E+03 -1.53289E+03
  1.52132E+04  2.69802E+03  1.63894E+04  1.36881E+04  1.06404E+04  2.67284E+04 -3.01215E+03  2.94473E+04
 -1.69544E+04  2.30383E+04 -2.71268E+04  1.12776E+04 -2.79395E+04 -2.04162E+03 -2.37385E+04 -1.61621E+04
 -1.06207E+04 -2.32003E+04  7.54043E+03 -2.13593E+04  1.81271E+04 -1.13913E+04  1.70648E+04  4.24320E+03
  6.84806E+03  1.23884E+04 -7.66270E+03  1.10272E+04 -1.42518E+04  2.79817E+03 -1.10358E+04 -8.82939E+03
  7.15901E+01 -1.34052E+04  6.63258E+03 -1.03679E+04  8.64191E+03 -1.39567E+03  1.71274E+03  5.66739E+03
 -6.02221E+03  1.58732E+03 -4.72367E+03 -5.30915E+03  3.57978E+02 -1.16999E+04  8.31665E+03 -1.14633E+04
  1.41227E+04 -5.77940E+03  1.40264E+04  3.04303E+03  1.23131E+04  1.09679E+04  5.70777E+03  1.62148E+04
 -2.35091E+03  1.83084E+04 -1.14803E+04  1.13543E+04 -1.28257E+04  2.92418E+03 -9.41636E+03 -2.16730E+03
 -4.62997E+03 -3.91228E+03 -5.57645E+02  1.25990E+03 -2.10334E+03  2.36610E+03 -4.20223E+03  3.85101E+03
 -8.95398E+03 -4.79182E+02 -9.56503E+03 -7.86498E+03 -3.73114E+03 -1.24562E+04  3.70942E+03 -9.60432E+03
  8.05070E+03 -4.20167E+03  5.77216E+03  2.37569E+03  3.82897E+02  3.41155E+03 -3.96637E+03  1.99557E+00
 -3.79817E+03 -5.91292E+03 -9.23625E+02 -8.61678E+03  4.72526E+03 -9.30697E+03  1.13981E+04 -4.95567E+03
  1.35100E+04  8.43223E+02  1.00982E+04  7.30906E+03  2.23688E+03  1.00363E+04 -6.04825E+03  9.21321E+03
 -7.59814E+03  3.14933E+03 -3.79155E+03 -1.64167E+03  1.59308E+03 -2.36412E+03  5.21124E+03 -9.35182E+02
  4.47000E+03  3.83357E+03  1.08576E+03  7.20569E+03 -4.98611E+03  7.08470E+03 -8.91512E+03  1.97533E+03
 -5.75416E+03 -4.35080E+03  1.32107E+02 -8.05661E+03  4.48315E+03 -4.03646E+03  4.47532E+03  1.27211E+03
  9.51362E+02  4.12496E+03 -4.79161E+03  5.71364E+03 -6.22596E+03  2.80490E+03 -5.98184E+03 -1.78953E+03
 -3.41422E+03 -7.33877E+03  1.50891E+03 -8.74215E+03  7.44954E+03 -5.67810E+03  8.14051E+03  1.15317E+03
  5.48034E+03  6.41720E+03  2.55522E+01  8.52231E+03 -5.88886E+03  4.87623E+03 -6.52089E+03 -7.60498E+02
 -6.58228E+03 -5.93422E+03 -1.22256E+03 -5.99617E+03  2.92698E+03 -5.28662E+03  3.51334E+03 -3.04662E+03
  3.07497E+03  6.10425E+02 -2.36202E+01  1.47196E+03  1.26698E+02 -1.06428E+03  4.94420E+02 -2.67410E+03
  4.85597E+03 -1.56979E+03  6.92686E+03  9.23626E+02  7.25574E+03  4.39021E+03  6.09970E+03  9.42575E+03
 -1.61053E+03  1.08523E+04 -9.50171E+03  8.13920E+03 -1.22638E+04  1.56615E+03 -9.85938E+03 -3.33418E+03
 -5.16610E+03 -7.88878E+03 -4.29046E+02 -6.52042E+03  2.62486E+03 -3.14182E+03  2.37925E+03 -2.65150E+03
  1.48999E+03 -1.86572E+03  2.60090E+03 -2.79898E+03  3.84246E+03 -1.37621E+03  4.48787E+03  1.53539E+02
  5.41353E+03  1.76544E+03  2.23599E+03  4.01974E+03 -1.90996E+03  3.88966E+03 -5.66031E+03  3.48105E+03
 -6.23357E+03 -1.28634E+03 -2.75250E+03 -4.46401E+03  2.83806E+02 -6.56341E+03  4.06436E+03 -6.81330E+03
  6.71528E+03 -4.29461E+03  8.97812E+03  6.08130E+02  6.04055E+03  5.98265E+03  9.40059E+02  7.65137E+03
 -2.95416E+03  7.10676E+03 -4.32124E+03  2.36596E+03 -2.51296E+03 -1.06443E+03 -6.82906E+02 -6.35352E+02
 -8.00435E+02  4.10111E+02 -1.13466E+03  2.17876E+03 -3.25349E+03  1.32426E+03 -4.85205E+03 -5.56551E+02
 -2.58899E+03 -4.77437E+03  7.03335E+02 -6.10112E+03  3.84690E+03 -5.67369E+03  4.93149E+03 -1.66824E+03
  5.61046E+03  3.01423E+03  2.30414E+03  4.55310E+03 -1.06152E+03  5.66537E+03 -3.71056E+03  3.69318E+03
 -5.19034E+03  6.37662E+02 -4.22364E+03 -3.62167E+03 -2.21285E+02 -4.21440E+03  2.11094E+03 -3.32346E+03
  3.67175E+03 -1.71909E+03  2.75212E+03  8.88889E+02  6.54514E+02  2.11842E+03  9.76871E+02  7.06026E+02
  1.89385E+03  6.06209E+02  1.39636E+03  1.09971E+03  1.65437E+03  2.44782E+03  1.59488E+03  2.65353E+03
 -1.58894E+03  4.04983E+03 -3.82036E+03  5.08473E+03 -4.65149E+03  1.62042E+03 -5.86281E+03 -1.39073E+03
 -2.64556E+03 -4.99768E+03  6.71533E+02 -6.07218E+03  2.94706E+03 -3.81703E+03  4.37487E+03 -1.18025E+03
  3.43301E+03  2.00121E+03  8.33392E+02  2.87896E+03 -1.18672E+03  1.72956E+03 -1.73185E+03 -3.81552E+02
 -1.00437E+03 -2.50960E+03  1.57066E+03 -2.07529E+03  2.19591E+03 -1.51460E+03  1.76827E+03  4.76608E+02
  1.04123E+03  6.72762E+02  9.67723E+02  4.03616E+02 -4.75530E+02  8.00461E+02  1.49107E+03 -3.12151E+02
  1.79150E+02 -3.50706E+02  2.45298E+03  1.02735E+03  6.22706E+02  3.00417E+03 -2.33001E+02  3.70912E+03
 -2.36439E+03  1.91873E+03 -2.87744E+03  6.18104E+02 -3.03249E+03 -9.18000E+02 -2.24650E+02 -1.60029E+03
  4.66892E+02 -1.78360E+03  1.37597E+03 -1.09871E+03  9.17103E+02  1.28428E+03 -7.25020E+02  1.64346E+03
 -2.03629E+03  7.87872E+02 -1.97389E+03 -1.64933E+03 -1.19512E+03 -2.78091E+03  3.34019E+02 -2.58339E+03
  9.83011E+02 -1.08274E+03  1.74516E+03  3.08344E+02  1.89755E+03  1.20095E+02  3.26008E+02  1.46726E+03
 -6.61065E+02  1.00764E+02 -1.24455E+03 -7.06343E+02  6.76022E+02 -1.53485E+03  2.22857E+03 -1.26356E+03
  2.44544E+03  4.17713E+02  3.51596E+03  1.54022E+03  1.09458E+03  2.86913E+03 -6.25639E+02  2.74271E+03
 -2.21686E+03  5.09165E+02 -2.32425E+03 -2.70583E+02 -1.13113E+03 -2.15571E+03  9.01094E+02 -1.19603E+03
  1.97476E+03 -8.16353E+02  1.44253E+03  1.05030E+03  4.40769E+02  1.94460E+03  2.41819E+02  1.51606E+03
 -8.90576E+02  1.53896E+03 -8.07488E+02  2.66734E+02  6.23531E+01  5.63897E+02 -9.49570E+02  5.12034E+02
 -8.47036E+02  1.18751E+03 -2.32844E+03  1.18185E+03 -2.58873E+03  1.00081E+02 -3.62318E+03 -1.69580E+03
 -1.87975E+03 -3.52165E+03  1.18326E+03 -4.61192E+03  2.05306E+03 -3.65770E+03  4.29373E+03 -1.54063E+03
  3.72051E+03  5.83617E+02  2.01922E+03  2.53414E+03 -3.21324E+02  2.64046E+03 -1.12068E+03  2.01134E+03
 -1.77241E+03  1.04845E+03 -1.12584E+03 -5.97547E+02 -7.08542E+02  8.40802E+01 -8.74726E+02  3.44130E+02
 -1.21589E+03  1.41605E+01 -1.08192E+03  8.95552E+01  8.01168E+01 -8.73204E+02 -1.97056E+02 -1.36974E+03
  1.49132E+03 -8.88390E+02  1.11972E+03  1.07419E+02  1.71090E+03  1.66213E+03 -1.10120E+02  2.45234E+03
 -1.76682E+03  3.65925E+03 -2.46880E+03  1.92956E+03 -3.15223E+03 -1.56932E+02 -2.07001E+03 -2.24647E+03
 -1.19336E+03 -2.09786E+03  4.48567E+02 -1.99934E+03  1.54754E+03 -1.03155E+03  1.64086E+03  2.15617E+02
  1.00336E+03  5.82193E+02  3.82597E+01  8.76984E+02 -5.52609E+02 -1.00188E+02 -1.33887E+00 -4.31417E+02
  1.05308E+03  2.66085E+01  1.03205E+03  2.72172E+02  5.43622E+02  1.10582E+03  6.06676E+02  7.07099E+02
 -9.85425E+02  9.12780E+02 -1.30956E+03 -5.20423E+01 -1.34446E+03 -8.52602E+02 -5.08820E+01 -2.11765E+03
  6.74055E+02 -1.33805E+03  1.04264E+03 -5.00024E+02  1.76008E+03 -4.26168E+02  6.50239E+02  1.53320E+03
  7.97364E+02  1.20449E+03 -4.81549E+02  8.57042E+02 -8.26279E+02  8.48099E+02 -8.54953E+02  2.78932E+02
 -3.21963E+02  1.15334E+02 -8.87135E+02  3.06814E+02 -9.91984E+02  3.36272E+02 -1.23800E+03 -3.77668E+02
 -1.43957E+03  8.90535E+00 -7.20578E+02 -1.79630E+03  1.02118E+03 -2.06478E+03  1.59348E+03 -8.79120E+02
  1.50260E+03  2.99848E+02  4.32771E+02  7.90943E+02 -2.04924E+02  1.35967E+03 -1.05835E+03  9.10169E+02
