 $NMID ID='MM_0lb_SNR800_8hz_g60_56.RAW', FMTDAT='(8E13.5)'
 TRAMP=1., VOLUME=1. $END
  3.10035E+05  3.86545E+02  3.37699E+05  2.51152E+05  8.53242E+04  3.38756E+05 -1.32969E+05  2.52452E+05
 -1.91203E+05  8.42745E+04 -1.13028E+05 -3.26338E+04  6.50213E+01 -5.11328E+04  5.37807E+04 -8.26320E+02
  3.60032E+04  5.29380E+04 -1.67999E+04  7.61856E+04 -6.15074E+04  6.47560E+04 -8.58444E+04  3.27953E+04
 -8.28826E+04 -1.19444E+04 -5.83971E+04 -5.30633E+04 -1.47647E+04 -7.18945E+04  2.85865E+04 -4.69150E+04
  4.15627E+04  4.02576E+03  1.68893E+04  4.93189E+04 -3.46338E+04  4.86325E+04 -6.82998E+04  2.75827E+02
 -5.51861E+04 -5.81284E+04 -6.86398E+03 -7.97217E+04  3.48793E+04 -5.77543E+04  5.07134E+04 -1.89094E+04
  4.61515E+04  1.12638E+04  3.32820E+04  2.73745E+04  1.65309E+04  3.10336E+04 -5.94823E+03  2.79759E+04
 -2.23864E+04  1.23432E+04 -1.81760E+04 -6.00457E+03  7.49263E+03 -7.48912E+03  2.40284E+04  1.45124E+04
  7.09482E+03  3.85377E+04 -3.43059E+04  3.76138E+04 -6.66488E+04  2.05216E+03 -5.98807E+04 -4.53202E+04
 -1.25651E+04 -6.69896E+04  4.23935E+04 -4.85703E+04  6.25758E+04 -2.59140E+03  3.76628E+04  3.52802E+04
 -5.15308E+03  4.09162E+04 -3.26433E+04  1.98110E+04 -3.48084E+04 -3.41503E+03 -2.07362E+04 -1.19288E+04
 -9.65497E+03 -1.59333E+04 -2.50655E+02 -2.02896E+04  8.90400E+03 -2.37207E+04  1.61053E+04 -1.23771E+04
  9.94845E+03  6.65440E+03 -1.15906E+04  1.26301E+04 -2.44406E+04 -7.69203E+03 -8.57963E+03 -3.88649E+04
  2.61919E+04 -4.83346E+04  5.35632E+04 -2.16245E+04  5.04049E+04  2.13681E+04  1.78770E+04  4.87133E+04
 -1.71286E+04  3.74019E+04 -2.84013E+04  3.10114E+03 -1.23548E+04 -3.02458E+04  2.16170E+04 -3.76492E+04
  4.60867E+04 -1.21894E+04  4.23397E+04  2.52005E+04  2.27774E+04  5.28990E+04 -8.53454E+03  5.89357E+04
 -3.70194E+04  4.02737E+04 -4.97241E+04  1.16752E+04 -4.97776E+04 -1.93835E+04 -2.68799E+04 -4.44241E+04
  8.34416E+03 -4.40311E+04  3.55230E+04 -1.82578E+04  3.27731E+04  1.06252E+04  5.86848E+03  2.19017E+04
 -1.39538E+04  1.04832E+04 -1.15247E+04 -7.21555E+03  5.81371E+03 -1.13309E+04  1.93220E+04  5.26026E+03
  1.54637E+04  2.28266E+04 -5.23637E+03  2.76824E+04 -2.37966E+04  1.52782E+04 -3.30137E+04 -1.90592E+03
 -2.73921E+04 -1.89075E+04 -1.25497E+04 -2.67827E+04  4.31428E+03 -2.83076E+04  2.14038E+04 -2.49281E+04
  3.45639E+04 -1.51155E+04  4.04222E+04  6.04365E+03  2.82876E+04  2.64371E+04  4.41236E+03  4.35057E+04
 -2.06251E+04  3.57254E+04 -3.19954E+04  1.22676E+04 -2.34381E+04 -1.00632E+04 -4.85523E+03 -1.24752E+04
 -1.85523E+02 -9.06257E+01 -8.14156E+03  9.03803E+03 -2.16708E+04  4.74746E+03 -2.14293E+04 -1.02208E+04
 -1.27391E+04 -2.52913E+04  6.25531E+03 -2.94546E+04  2.07606E+04 -2.10381E+04  2.48336E+04 -2.05644E+03
  1.55432E+04  1.75730E+04 -9.90328E+02  2.52127E+04 -1.80469E+04  1.43071E+04 -2.55196E+04 -5.22740E+03
 -1.85109E+04 -2.25462E+04 -2.12134E+03 -3.01228E+04  1.42405E+04 -2.52194E+04  2.52021E+04 -1.34508E+04
  2.40725E+04 -4.24744E+02  1.68469E+04  5.89082E+03  9.81370E+03  1.07981E+03  1.34806E+04 -2.54405E+03
  2.44554E+04  2.32619E+03  2.84481E+04  2.00408E+04  1.91528E+04  4.03617E+04 -2.55033E+03  4.81001E+04
 -2.76093E+04  4.05129E+04 -4.54934E+04  2.14769E+04 -4.94135E+04 -3.60808E+03 -3.93675E+04 -2.86490E+04
 -1.60236E+04 -4.12039E+04  1.53335E+04 -3.60470E+04  3.05686E+04 -1.66925E+04  2.62661E+04  8.52625E+03
  8.57081E+03  2.09904E+04 -1.19063E+04  1.69697E+04 -2.17503E+04  2.25859E+03 -1.60317E+04 -1.45812E+04
 -3.42521E+02 -2.11852E+04  1.19219E+04 -1.56195E+04  1.45582E+04 -1.55708E+03  3.12116E+03  1.00699E+04
 -9.72368E+03  4.87031E+03 -1.04118E+04 -7.47683E+03 -2.80486E+03 -2.00294E+04  1.33764E+04 -2.21340E+04
  2.50495E+04 -1.29408E+04  2.96889E+04  3.27250E+03  2.60792E+04  2.07017E+04  1.21932E+04  3.30952E+04
 -6.32048E+03  3.52258E+04 -2.29999E+04  2.16057E+04 -2.56132E+04  4.23930E+03 -1.72951E+04 -6.94897E+03
 -6.68228E+03 -8.04170E+03 -9.36657E+02  5.00172E+02 -3.46090E+03  3.88789E+03 -8.42981E+03  6.33461E+03
 -1.57528E+04 -7.04847E+02 -1.62953E+04 -1.31314E+04 -6.66100E+03 -2.13651E+04  6.47182E+03 -1.80760E+04
  1.40413E+04 -6.89547E+03  1.06331E+04  4.66687E+03 -6.12612E+02  7.38893E+03 -9.04929E+03 -8.63372E+01
 -8.65920E+03 -1.10151E+04 -1.46187E+03 -1.78665E+04  1.00989E+04 -1.85557E+04  2.27223E+04 -9.99883E+03
  2.62745E+04  2.59883E+03  1.88985E+04  1.66572E+04  3.52360E+03  2.18876E+04 -1.08750E+04  1.73937E+04
 -1.41344E+04  4.62449E+03 -7.50332E+03 -4.43922E+03  2.68670E+03 -5.04560E+03  8.62623E+03 -1.54670E+03
  8.62653E+03  7.92245E+03  1.69876E+03  1.43068E+04 -1.03742E+04  1.37904E+04 -1.73597E+04  3.17170E+03
 -1.19317E+04 -9.39452E+03  1.22483E+02 -1.53592E+04  1.04833E+04 -7.94039E+03  1.07670E+04  4.11512E+03
  2.84280E+03  1.23269E+04 -9.60291E+03  1.37257E+04 -1.59058E+04  6.22918E+03 -1.67304E+04 -6.16647E+03
 -9.14797E+03 -1.85396E+04  5.01534E+03 -2.07081E+04  1.80283E+04 -1.21679E+04  1.99490E+04  3.92579E+03
  1.15468E+04  1.55057E+04 -1.92424E+03  1.81693E+04 -1.34938E+04  1.00489E+04 -1.46743E+04 -1.85270E+03
 -1.23971E+04 -1.18044E+04 -2.05096E+03 -1.37321E+04  7.46038E+03 -1.13750E+04  8.92361E+03 -3.53063E+03
  5.14628E+03  2.61238E+03 -1.73353E+03  2.82995E+03 -8.40258E+02 -3.81808E+03  3.24367E+03 -9.25426E+03
  1.37877E+04 -5.67620E+03  1.93907E+04  2.17239E+03  1.79338E+04  1.32347E+04  1.15357E+04  2.47201E+04
 -6.12790E+03  2.84536E+04 -2.30679E+04  2.04926E+04 -3.03747E+04  3.98122E+03 -2.41401E+04 -1.09268E+04
 -1.16538E+04 -2.00582E+04 -4.49070E+02 -1.75774E+04  6.12658E+03 -1.01264E+04  6.04015E+03 -6.08182E+03
  4.81222E+03 -3.42468E+03  4.64870E+03 -4.46637E+03  6.66686E+03 -4.56438E+03  9.55522E+03 -1.64101E+03
  1.23412E+04  3.20463E+03  7.40562E+03  1.10007E+04 -2.55882E+03  1.40984E+04 -1.36868E+04  1.02673E+04
 -1.72703E+04 -1.08687E+03 -1.19789E+04 -1.23971E+04 -1.95979E+03 -1.93019E+04  1.00325E+04 -1.91025E+04
  2.00668E+04 -1.03976E+04  2.31295E+04  3.28357E+03  1.59273E+04  1.68256E+04  2.37485E+03  2.11862E+04
 -8.68644E+03  1.68338E+04 -1.22852E+04  6.13010E+03 -8.62947E+03 -1.76530E+03 -3.50810E+03 -2.47714E+03
 -1.73226E+03 -2.07531E+01 -2.78666E+03  3.13483E+03 -7.27210E+03  3.03693E+03 -1.16274E+04 -1.47242E+03
 -8.74552E+03 -1.16566E+04 -2.88428E+02 -1.79426E+04  1.10687E+04 -1.66599E+04  1.81135E+04 -5.56657E+03
  1.79188E+04  8.47268E+03  8.50237E+03  1.59680E+04 -3.68879E+03  1.79242E+04 -1.29712E+04  1.06736E+04
 -1.68363E+04  5.67377E+02 -1.24647E+04 -1.08988E+04 -1.41115E+03 -1.50154E+04  7.96424E+03 -1.11909E+04
  1.13003E+04 -3.11615E+03  7.71860E+03  3.47537E+03  2.95809E+03  5.46152E+03  1.44835E+03  2.85662E+03
  3.17784E+03  1.42032E+03  4.36461E+03  2.96183E+03  5.87085E+03  5.62221E+03  4.75119E+03  9.47607E+03
 -3.76741E+03  1.43951E+04 -1.30608E+04  1.41678E+04 -1.93492E+04  3.96133E+03 -1.95536E+04 -8.40866E+03
 -9.09105E+03 -1.86576E+04  3.10340E+03 -2.03049E+04  1.17124E+04 -1.30770E+04  1.49651E+04 -3.19418E+03
  1.16812E+04  6.88623E+03  2.95108E+03  1.04589E+04 -5.42215E+03  7.05038E+03 -7.96555E+03 -1.22556E+03
 -3.99666E+03 -7.69379E+03  4.81808E+03 -8.33998E+03  8.08330E+03 -3.63703E+03  7.41218E+03  1.59926E+03
  4.21045E+03  3.88941E+03  1.67425E+03  3.65916E+03 -8.56862E+02  2.39071E+03  2.05946E+03 -7.71831E+02
  3.13890E+03 -9.89888E+02  7.76172E+03  3.33506E+03  4.91989E+03  9.88370E+03 -1.95504E+03  1.33535E+04
 -9.04228E+03  8.99185E+03 -1.17745E+04  2.51799E+03 -1.07596E+04 -4.15121E+03 -4.17203E+03 -7.28291E+03
  1.31516E+03 -7.33564E+03  5.24798E+03 -3.88584E+03  4.42979E+03  3.47098E+03 -1.78641E+03  6.33635E+03
 -7.91179E+03  3.99086E+03 -9.88921E+03 -4.25998E+03 -5.04447E+03 -1.03305E+04  1.20522E+03 -1.09740E+04
  6.63662E+03 -6.25687E+03  7.64679E+03 -1.25942E+03  6.46573E+03  3.36065E+03  4.13621E+02  5.65473E+03
 -4.19258E+03  2.23347E+03 -5.05599E+03 -3.84140E+03  1.25106E+03 -8.39912E+03  9.12765E+03 -6.96565E+03
  1.26643E+04  9.75306E+02  1.16520E+04  8.56421E+03  3.24714E+03  1.23331E+04 -4.68872E+03  1.19000E+04
 -9.77897E+03  5.67572E+03 -1.08767E+04 -1.69225E+03 -6.03296E+03 -7.99788E+03  2.11803E+03 -8.20762E+03
  8.16881E+03 -4.29359E+03  6.94151E+03  3.24595E+03  2.36021E+03  6.89113E+03 -1.25880E+03  6.19074E+03
 -3.52280E+03  3.69845E+03 -2.96282E+03  1.44399E+03 -1.52132E+03  1.26181E+03 -2.18331E+03  2.71219E+03
 -3.29612E+03  5.00036E+03 -8.60109E+03  4.11392E+03 -1.33413E+04  7.37716E+01 -1.39482E+04 -8.25980E+03
 -7.44573E+03 -1.72122E+04  3.30045E+03 -1.95295E+04  1.16477E+04 -1.50587E+04  1.89111E+04 -5.65099E+03
  1.75490E+04  4.14617E+03  1.05564E+04  1.19638E+04  1.13153E+03  1.39112E+04 -5.21654E+03  1.00523E+04
 -7.58095E+03  3.35440E+03 -4.54777E+03 -1.60642E+03 -1.47675E+03 -1.47510E+03 -6.50416E+02  2.89541E+00
 -2.04920E+03  7.44995E+01 -2.65977E+03 -5.29697E+02 -1.63983E+03 -2.60457E+03  1.90263E+02 -5.56802E+03
  5.31297E+03 -4.12847E+03  8.53316E+03 -1.24711E+02  9.67591E+03  7.07583E+03  3.20298E+03  1.36747E+04
 -6.67724E+03  1.52624E+04 -1.45506E+04  8.94456E+03 -1.65287E+04 -1.37068E+03 -1.24789E+04 -1.02648E+04
 -5.57352E+03 -1.36593E+04  3.75013E+03 -1.24103E+04  8.63904E+03 -6.94833E+03  8.89063E+03  6.74524E+02
  4.46217E+03  5.19779E+03 -7.42604E+02  3.73463E+03 -2.27088E+03 -3.00098E+02 -1.24385E+01 -3.27222E+03
  3.98278E+03 -1.81139E+03  5.66825E+03  1.86175E+03  4.04982E+03  5.41819E+03  1.55992E+02  6.90902E+03
 -6.15602E+03  6.19411E+03 -9.05418E+03  4.91081E+02 -8.25528E+03 -6.62244E+03 -1.28578E+03 -1.10914E+04
  6.89513E+03 -9.15157E+03  1.08169E+04 -3.00827E+03  1.07988E+04  2.84510E+03  6.23882E+03  8.33785E+03
  1.36339E+03  8.92651E+03 -3.63950E+03  7.38018E+03 -5.94437E+03  4.06274E+03 -4.84125E+03  2.94931E+02
 -2.86980E+03 -2.89662E+02 -2.55710E+03  1.60427E+03 -4.39354E+03  1.39379E+03 -7.45322E+03 -1.02637E+03
 -6.56752E+03 -4.72338E+03 -2.20348E+03 -9.34614E+03  3.81789E+03 -9.53702E+03  8.21658E+03 -4.41305E+03
  9.87796E+03  1.17222E+03  5.03685E+03  6.65828E+03 -7.59526E+02  9.83641E+03 -7.50916E+03  6.40242E+03
