 $NMID ID='MM_0lb_SNR800_7hz_g55_46.RAW', FMTDAT='(8E13.5)'
 TRAMP=1., VOLUME=1. $END
  3.09945E+05  3.44025E+02  3.38404E+05  2.51022E+05  8.51312E+04  3.39043E+05 -1.32315E+05  2.52420E+05
 -1.90699E+05  8.39664E+04 -1.12898E+05 -3.23719E+04 -1.32730E+02 -5.15380E+04  5.35368E+04 -7.41623E+02
  3.56081E+04  5.25546E+04 -1.64954E+04  7.59011E+04 -6.16510E+04  6.45686E+04 -8.62469E+04  3.30110E+04
 -8.30022E+04 -1.19605E+04 -5.86787E+04 -5.25428E+04 -1.51694E+04 -7.17396E+04  2.82062E+04 -4.72263E+04
  4.17405E+04  3.52623E+03  1.74334E+04  4.85695E+04 -3.50932E+04  4.89618E+04 -6.89025E+04  1.39365E+02
 -5.58494E+04 -5.81242E+04 -7.35345E+03 -7.99290E+04  3.53694E+04 -5.81622E+04  5.07456E+04 -1.88266E+04
  4.65912E+04  1.12279E+04  3.32330E+04  2.70091E+04  1.60920E+04  3.10645E+04 -6.10924E+03  2.82460E+04
 -2.26049E+04  1.16131E+04 -1.77159E+04 -5.73005E+03  8.05151E+03 -7.29402E+03  2.42071E+04  1.45769E+04
  7.21615E+03  3.78646E+04 -3.49701E+04  3.76526E+04 -6.71360E+04  1.54342E+03 -5.95720E+04 -4.51032E+04
 -1.22430E+04 -6.73732E+04  4.27638E+04 -4.86711E+04  6.27299E+04 -2.56654E+03  3.78632E+04  3.53553E+04
 -5.60405E+03  4.13261E+04 -3.26227E+04  1.97866E+04 -3.51736E+04 -3.08388E+03 -2.06236E+04 -1.24238E+04
 -1.04148E+04 -1.60770E+04 -3.66229E+02 -2.05835E+04  8.60220E+03 -2.42169E+04  1.64743E+04 -1.21167E+04
  1.03537E+04  6.47350E+03 -1.14521E+04  1.30083E+04 -2.43083E+04 -7.89356E+03 -8.87383E+03 -3.91974E+04
  2.61042E+04 -4.84982E+04  5.39924E+04 -2.16548E+04  5.05089E+04  2.16990E+04  1.80512E+04  4.88675E+04
 -1.70573E+04  3.74587E+04 -2.89679E+04  2.98653E+03 -1.27934E+04 -3.06657E+04  2.17019E+04 -3.81637E+04
  4.64629E+04 -1.19088E+04  4.28053E+04  2.54905E+04  2.30953E+04  5.37722E+04 -8.42127E+03  5.90870E+04
 -3.67457E+04  4.11726E+04 -5.03353E+04  1.17139E+04 -5.04334E+04 -1.96718E+04 -2.75005E+04 -4.42042E+04
  7.62395E+03 -4.39832E+04  3.58634E+04 -1.79014E+04  3.36237E+04  1.11417E+04  5.88953E+03  2.16605E+04
 -1.42062E+04  1.06157E+04 -1.17148E+04 -7.56741E+03  5.56848E+03 -1.18626E+04  1.96727E+04  5.04794E+03
  1.58623E+04  2.27668E+04 -4.37860E+03  2.79478E+04 -2.42064E+04  1.59220E+04 -3.33268E+04 -2.27608E+03
 -2.76769E+04 -1.91192E+04 -1.30458E+04 -2.72439E+04  4.25334E+03 -2.84144E+04  2.20107E+04 -2.57106E+04
  3.50675E+04 -1.51460E+04  4.08927E+04  6.36098E+03  2.85710E+04  2.66670E+04  4.83628E+03  4.33338E+04
 -2.11284E+04  3.58450E+04 -3.16971E+04  1.27046E+04 -2.34431E+04 -1.04267E+04 -5.58485E+03 -1.26875E+04
  7.46278E+01 -5.88365E+02 -8.93338E+03  8.96179E+03 -2.25197E+04  4.92835E+03 -2.16608E+04 -1.06561E+04
 -1.28709E+04 -2.56677E+04  6.66624E+03 -2.99542E+04  2.07923E+04 -2.13397E+04  2.50877E+04 -1.66943E+03
  1.59312E+04  1.79510E+04 -1.49510E+03  2.53902E+04 -1.83003E+04  1.43280E+04 -2.58248E+04 -5.22017E+03
 -1.88505E+04 -2.27318E+04 -2.80337E+03 -3.10964E+04  1.38298E+04 -2.55485E+04  2.53024E+04 -1.30647E+04
  2.40165E+04 -3.22269E+02  1.76520E+04  5.31657E+03  1.01843E+04  1.53812E+03  1.34826E+04 -2.24476E+03
  2.47644E+04  2.45065E+03  2.84563E+04  2.01917E+04  2.03920E+04  4.20887E+04 -2.24076E+03  4.92230E+04
 -2.85549E+04  4.19687E+04 -4.70836E+04  2.22793E+04 -5.03940E+04 -3.40448E+03 -4.10182E+04 -2.97623E+04
 -1.52011E+04 -4.22104E+04  1.51904E+04 -3.71092E+04  3.09546E+04 -1.68082E+04  2.73539E+04  9.46913E+03
  8.76325E+03  2.09062E+04 -1.24071E+04  1.74392E+04 -2.23263E+04  2.61811E+03 -1.67070E+04 -1.48076E+04
 -5.70528E+02 -2.16051E+04  1.14682E+04 -1.62175E+04  1.53036E+04 -9.42561E+02  3.97412E+03  9.42753E+03
 -9.98510E+03  5.01979E+03 -1.09483E+04 -7.76888E+03 -3.47466E+03 -2.11848E+04  1.30432E+04 -2.28917E+04
  2.64419E+04 -1.36420E+04  3.09592E+04  3.84005E+03  2.68597E+04  2.15120E+04  1.22237E+04  3.42520E+04
 -6.59842E+03  3.56358E+04 -2.38394E+04  2.21830E+04 -2.59556E+04  4.62934E+03 -1.76263E+04 -7.33359E+03
 -7.79139E+03 -8.29719E+03 -5.63549E+02  2.83478E+02 -3.54176E+03  4.31157E+03 -8.46650E+03  6.04453E+03
 -1.67417E+04 -1.99578E+03 -1.66439E+04 -1.35918E+04 -6.60935E+03 -2.21409E+04  7.23877E+03 -1.76440E+04
  1.52368E+04 -7.38830E+03  1.04877E+04  5.28496E+03 -2.31684E+02  6.91362E+03 -9.82822E+03 -2.13902E+02
 -8.87081E+03 -1.21042E+04 -1.64853E+03 -1.83297E+04  1.07370E+04 -1.96798E+04  2.34501E+04 -1.08896E+04
  2.77329E+04  3.35977E+03  2.00732E+04  1.72579E+04  3.87046E+03  2.25113E+04 -1.13950E+04  1.79521E+04
 -1.40155E+04  4.86950E+03 -7.63359E+03 -4.47560E+03  2.40490E+03 -5.58504E+03  9.47025E+03 -1.14151E+03
  8.60653E+03  8.73807E+03  1.30891E+03  1.46981E+04 -1.09268E+04  1.39324E+04 -1.84191E+04  2.49535E+03
 -1.26853E+04 -1.03142E+04  3.47048E+02 -1.58228E+04  1.04663E+04 -8.18096E+03  1.19168E+04  4.51730E+03
  2.64269E+03  1.19824E+04 -9.85008E+03  1.45055E+04 -1.67850E+04  6.01338E+03 -1.72316E+04 -6.60089E+03
 -9.74485E+03 -1.92288E+04  4.70296E+03 -2.20444E+04  1.88621E+04 -1.29963E+04  2.08465E+04  3.27440E+03
  1.17752E+04  1.60992E+04 -2.25455E+03  1.87203E+04 -1.40821E+04  1.03641E+04 -1.49601E+04 -1.63889E+03
 -1.28130E+04 -1.27766E+04 -2.06580E+03 -1.47056E+04  7.85660E+03 -1.14743E+04  9.73412E+03 -3.57109E+03
  5.83206E+03  3.00628E+03 -1.82332E+03  2.45698E+03 -1.25909E+03 -4.89904E+03  3.52953E+03 -9.52750E+03
  1.45436E+04 -6.50366E+03  2.03571E+04  1.96442E+03  1.99159E+04  1.42073E+04  1.16062E+04  2.62068E+04
 -6.52531E+03  3.01379E+04 -2.46526E+04  2.19935E+04 -3.21280E+04  4.63036E+03 -2.58626E+04 -1.14639E+04
 -1.30563E+04 -2.12414E+04 -4.83732E+02 -1.82664E+04  6.00680E+03 -1.00435E+04  6.71515E+03 -6.69974E+03
  4.73098E+03 -3.59376E+03  4.52349E+03 -4.51831E+03  6.81057E+03 -4.17889E+03  1.00589E+04 -2.00548E+03
  1.34490E+04  3.00258E+03  7.74925E+03  1.19935E+04 -2.61362E+03  1.44524E+04 -1.44235E+04  1.10332E+04
 -1.82298E+04 -1.19176E+03 -1.22508E+04 -1.33275E+04 -1.95553E+03 -2.04136E+04  1.10080E+04 -2.01921E+04
  2.06477E+04 -1.09976E+04  2.50023E+04  3.53380E+03  1.67479E+04  1.77166E+04  2.19033E+03  2.24527E+04
 -9.57351E+03  1.78245E+04 -1.35212E+04  6.52787E+03 -9.56680E+03 -2.12425E+03 -4.06355E+03 -2.33025E+03
 -2.12527E+03 -5.39198E+02 -2.95342E+03  3.62359E+03 -7.88958E+03  3.07231E+03 -1.24903E+04 -2.02900E+03
 -9.32475E+03 -1.26265E+04 -6.27522E+02 -1.85926E+04  1.17748E+04 -1.69310E+04  1.90422E+04 -5.32610E+03
  1.89849E+04  9.05924E+03  8.78351E+03  1.73549E+04 -3.81293E+03  1.96061E+04 -1.39142E+04  1.20337E+04
 -1.80922E+04  2.73912E+02 -1.36836E+04 -1.19564E+04 -1.79669E+03 -1.59188E+04  8.19638E+03 -1.16394E+04
  1.23437E+04 -3.61921E+03  8.25789E+03  3.45575E+03  2.89298E+03  5.57605E+03  1.77879E+03  2.86021E+03
  3.12815E+03  1.65112E+03  4.47444E+03  2.31560E+03  6.04545E+03  6.60198E+03  4.63355E+03  1.03407E+04
 -3.96359E+03  1.57793E+04 -1.41785E+04  1.53733E+04 -2.06479E+04  4.03668E+03 -2.07294E+04 -9.28170E+03
 -9.80428E+03 -2.01309E+04  2.66716E+03 -2.18297E+04  1.26979E+04 -1.39738E+04  1.66901E+04 -3.79021E+03
  1.27960E+04  6.96353E+03  2.91151E+03  1.18325E+04 -5.90693E+03  7.60958E+03 -8.73362E+03 -1.35545E+03
 -4.18103E+03 -8.75957E+03  4.50868E+03 -9.00887E+03  8.50293E+03 -4.36951E+03  8.17645E+03  1.96037E+03
  5.07765E+03  4.52839E+03  1.46529E+03  4.12136E+03 -1.01000E+03  2.78505E+03  1.74784E+03 -8.71097E+02
  3.97735E+03 -1.23134E+03  8.41779E+03  3.50242E+03  5.09068E+03  1.06544E+04 -1.92144E+03  1.41528E+04
 -1.02454E+04  9.93598E+03 -1.30629E+04  3.02692E+03 -1.17391E+04 -4.56123E+03 -4.78183E+03 -8.19623E+03
  4.72819E+02 -8.29277E+03  5.22093E+03 -3.93149E+03  4.59640E+03  3.39194E+03 -1.88459E+03  6.70531E+03
 -8.97182E+03  4.64156E+03 -1.04013E+04 -5.11634E+03 -5.53301E+03 -1.14309E+04  1.75432E+03 -1.13512E+04
  7.18854E+03 -6.88518E+03  9.00046E+03 -1.00560E+03  6.93820E+03  3.06204E+03  7.15437E+02  6.02360E+03
 -4.34864E+03  1.80027E+03 -4.91311E+03 -4.05221E+03  1.80173E+03 -9.44038E+03  1.01782E+04 -7.45326E+03
  1.33647E+04  9.06285E+02  1.26219E+04  9.33928E+03  3.87373E+03  1.47990E+04 -5.06774E+03  1.30507E+04
 -1.18474E+04  6.24761E+03 -1.21018E+04 -2.34284E+03 -6.70900E+03 -9.17770E+03  2.18722E+03 -9.46629E+03
  8.79757E+03 -4.02881E+03  7.37543E+03  3.92536E+03  2.05915E+03  7.02144E+03 -1.16125E+03  6.76215E+03
 -3.45190E+03  3.87536E+03 -3.82749E+03  1.56464E+03 -1.71676E+03  1.19701E+03 -1.64170E+03  3.12130E+03
 -3.96394E+03  5.55750E+03 -9.37292E+03  4.56107E+03 -1.44109E+04  1.71400E+02 -1.61255E+04 -9.77539E+03
 -8.74497E+03 -1.89060E+04  3.60299E+03 -2.22701E+04  1.43133E+04 -1.73466E+04  2.10136E+04 -6.86954E+03
  1.91865E+04  4.44626E+03  1.17793E+04  1.29695E+04  1.13704E+03  1.56858E+04 -5.95879E+03  1.12069E+04
 -8.60214E+03  4.06430E+03 -4.89329E+03 -1.91962E+03 -1.90707E+03 -1.85642E+03 -6.98073E+02  1.07768E+02
 -2.10257E+03  6.80650E+02 -3.37151E+03 -9.24442E+02 -1.46093E+03 -3.17186E+03  5.19557E+02 -5.51395E+03
  6.69722E+03 -5.10628E+03  1.01022E+04 -2.37737E+02  1.02441E+04  8.29959E+03  2.50157E+03  1.58431E+04
 -6.36431E+03  1.76348E+04 -1.62631E+04  1.03170E+04 -1.91966E+04 -1.48426E+03 -1.44829E+04 -1.12156E+04
 -6.68855E+03 -1.64151E+04  4.20078E+03 -1.46714E+04  1.04442E+04 -8.01936E+03  1.09723E+04  4.60188E+01
  5.55481E+03  5.47746E+03 -4.26025E+02  4.21714E+03 -3.17103E+03 -1.79636E+02  1.35686E+02 -4.19703E+03
  5.03745E+03 -2.66993E+03  6.22806E+03  1.55047E+03  4.38780E+03  5.91645E+03 -3.13854E+02  8.37529E+03
 -7.20496E+03  7.32654E+03 -1.12993E+04  6.57304E+02 -9.87899E+03 -8.00162E+03 -1.34554E+03 -1.32743E+04
  7.51342E+03 -1.11616E+04  1.25271E+04 -3.60701E+03  1.20217E+04  3.39091E+03  7.35911E+03  1.01041E+04
  1.13245E+03  1.05955E+04 -4.48327E+03  8.69998E+03 -6.99435E+03  4.35390E+03 -5.70976E+03  5.27772E+02
 -3.06055E+03 -5.28829E+02 -3.19753E+03  1.55134E+03 -5.63971E+03  1.62938E+03 -8.02537E+03 -1.26930E+03
 -7.70395E+03 -5.38746E+03 -2.74407E+03 -1.08320E+04  4.87750E+03 -1.17112E+04  9.61058E+03 -5.56535E+03
  1.07741E+04  1.76059E+03  6.05703E+03  8.06310E+03 -8.90527E+02  1.12885E+04 -8.33192E+03  7.15650E+03
