 $NMID ID='MM_0lb_SNR800_13hz_g40_2.RAW', FMTDAT='(8E13.5)'
 TRAMP=1., VOLUME=1. $END
  3.09721E+05  5.12520E+02  3.37373E+05  2.50884E+05  8.41296E+04  3.37872E+05 -1.32403E+05  2.50960E+05
 -1.90193E+05  8.28711E+04 -1.11540E+05 -3.25265E+04  9.14091E+02 -5.03398E+04  5.39278E+04 -1.50814E+02
  3.55603E+04  5.29931E+04 -1.67701E+04  7.54716E+04 -6.05322E+04  6.36478E+04 -8.40980E+04  3.20377E+04
 -8.10412E+04 -1.14214E+04 -5.69716E+04 -5.11423E+04 -1.51370E+04 -6.95157E+04  2.74358E+04 -4.57198E+04
  3.99632E+04  3.58910E+03  1.59914E+04  4.79101E+04 -3.40673E+04  4.68255E+04 -6.65103E+04 -3.40764E+02
 -5.34127E+04 -5.64672E+04 -6.84697E+03 -7.68571E+04  3.38886E+04 -5.52308E+04  4.79667E+04 -1.68941E+04
  4.33077E+04  1.11898E+04  3.16896E+04  2.52427E+04  1.57271E+04  2.94586E+04 -5.02219E+03  2.69778E+04
 -2.19015E+04  1.23674E+04 -1.85834E+04 -4.76110E+03  5.37763E+03 -7.52967E+03  2.25472E+04  1.22625E+04
  7.20446E+03  3.51284E+04 -3.19342E+04  3.56317E+04 -6.33127E+04  2.14794E+03 -5.68663E+04 -4.30132E+04
 -1.22771E+04 -6.33116E+04  3.97377E+04 -4.52088E+04  5.82553E+04 -2.19829E+03  3.41065E+04  3.23382E+04
 -6.18104E+03  3.58308E+04 -2.97877E+04  1.59647E+04 -3.00973E+04 -4.36826E+03 -1.67730E+04 -1.09206E+04
 -8.11995E+03 -1.30371E+04 -6.23025E+02 -1.78827E+04  7.51781E+03 -2.30847E+04  1.53065E+04 -1.31734E+04
  1.16153E+04  5.00144E+03 -8.29908E+03  1.31104E+04 -2.09766E+04 -4.45032E+03 -8.09958E+03 -3.36620E+04
  2.26278E+04 -4.33853E+04  4.82113E+04 -1.97527E+04  4.49944E+04  1.94982E+04  1.56896E+04  4.40490E+04
 -1.60149E+04  3.34615E+04 -2.55505E+04  1.70933E+03 -1.00407E+04 -2.79408E+04  2.10359E+04 -3.35097E+04
  4.11866E+04 -9.19675E+03  3.58197E+04  2.35770E+04  1.81145E+04  4.64646E+04 -8.26286E+03  5.01934E+04
 -3.14894E+04  3.40270E+04 -4.22676E+04  9.51292E+03 -4.20991E+04 -1.63305E+04 -2.32016E+04 -3.80855E+04
  7.59780E+03 -3.74048E+04  3.14223E+04 -1.43616E+04  2.93298E+04  1.09062E+04  4.10936E+03  1.92125E+04
 -1.35592E+04  8.06267E+03 -1.01345E+04 -7.44629E+03  5.91020E+03 -1.05258E+04  1.78691E+04  5.89434E+03
  1.33854E+04  2.21220E+04 -6.21610E+03  2.49883E+04 -2.24567E+04  1.14419E+04 -2.79161E+04 -4.78488E+03
 -2.09281E+04 -1.71972E+04 -8.20501E+03 -2.06350E+04  3.84121E+03 -1.96442E+04  1.57194E+04 -1.82928E+04
  2.62748E+04 -1.24116E+04  3.25339E+04  3.21482E+03  2.38714E+04  1.97651E+04  4.14063E+03  3.64228E+04
 -1.75814E+04  3.04154E+04 -2.78118E+04  1.05135E+04 -2.10098E+04 -1.02884E+04 -4.58627E+03 -1.36289E+04
  1.64391E+03 -2.35401E+03 -4.87257E+03  6.75998E+03 -1.62445E+04  5.00751E+03 -1.62374E+04 -6.91490E+03
 -1.01989E+04 -1.89914E+04  5.31967E+03 -2.32705E+04  1.51082E+04 -1.67161E+04  1.84876E+04 -1.40478E+03
  1.14292E+04  1.30893E+04 -1.32937E+03  1.91279E+04 -1.33361E+04  1.09610E+04 -1.92666E+04 -4.09252E+03
 -1.40097E+04 -1.71595E+04 -1.53421E+03 -2.30406E+04  1.02315E+04 -1.90370E+04  1.92578E+04 -9.55367E+03
  1.79845E+04  1.49225E+02  1.29154E+04  4.63930E+03  6.72601E+03  8.39108E+02  9.64362E+03 -1.31881E+03
  1.74919E+04  2.80709E+03  1.96632E+04  1.52976E+04  1.30788E+04  3.03215E+04 -2.97818E+03  3.45102E+04
 -2.01857E+04  2.78601E+04 -3.22950E+04  1.40877E+04 -3.35741E+04 -2.41927E+03 -2.77995E+04 -1.92963E+04
 -1.19567E+04 -2.79330E+04  9.86406E+03 -2.52735E+04  2.14070E+04 -1.27099E+04  1.94468E+04  5.63399E+03
  7.45227E+03  1.43187E+04 -8.88697E+03  1.26225E+04 -1.64483E+04  2.59805E+03 -1.25286E+04 -1.00901E+04
 -2.70956E+01 -1.51343E+04  8.29896E+03 -1.16334E+04  1.00088E+04 -1.18915E+03  2.20728E+03  6.63071E+03
 -6.92903E+03  2.83192E+03 -6.11333E+03 -5.66830E+03 -2.32596E+02 -1.34412E+04  9.61559E+03 -1.44481E+04
  1.72748E+04 -7.91373E+03  1.84406E+04  3.03825E+03  1.57860E+04  1.37376E+04  7.42470E+03  2.04622E+04
 -3.25836E+03  2.24705E+04 -1.43477E+04  1.41891E+04 -1.61519E+04  3.47059E+03 -1.13466E+04 -3.34458E+03
 -5.06631E+03 -5.03949E+03 -8.33259E+02  1.32994E+03 -2.29191E+03  2.84952E+03 -5.35560E+03  4.42865E+03
 -1.03941E+04 -7.27696E+02 -1.13040E+04 -9.17492E+03 -4.76663E+03 -1.51179E+04  4.51958E+03 -1.16398E+04
  9.76893E+03 -4.78862E+03  6.82665E+03  3.13305E+03  1.34109E+02  4.10603E+03 -5.49211E+03  1.85433E+02
 -4.97512E+03 -6.94302E+03 -1.13978E+03 -1.09048E+04  6.07870E+03 -1.15211E+04  1.40027E+04 -6.21717E+03
  1.70880E+04  1.53436E+03  1.22988E+04  9.69663E+03  2.72867E+03  1.31927E+04 -7.25675E+03  1.14017E+04
 -9.23794E+03  3.71426E+03 -5.11554E+03 -1.65462E+03  1.47750E+03 -2.99916E+03  6.49638E+03 -8.74710E+02
  5.72386E+03  4.84054E+03  1.09801E+03  8.90108E+03 -6.05858E+03  8.75556E+03 -1.14289E+04  2.23842E+03
 -7.41069E+03 -5.54508E+03 -9.72684E+00 -9.44050E+03  5.85813E+03 -4.98310E+03  5.78357E+03  1.64832E+03
  1.59793E+03  6.16652E+03 -5.57385E+03  7.45466E+03 -8.71704E+03  3.35504E+03 -8.23078E+03 -2.68628E+03
 -5.02788E+03 -9.95103E+03  2.23756E+03 -1.15373E+04  9.96546E+03 -7.68336E+03  1.06561E+04  1.67710E+03
  7.07447E+03  8.46453E+03 -4.24131E+02  1.11167E+04 -8.03372E+03  5.95782E+03 -8.43531E+03 -8.00680E+02
 -7.72907E+03 -7.55431E+03 -1.40952E+03 -7.81319E+03  4.23885E+03 -6.64800E+03  4.91334E+03 -3.21583E+03
  3.34088E+03  7.84146E+02 -4.68056E+02  1.43407E+03  2.66532E+02 -1.59607E+03  1.12345E+03 -4.11320E+03
  6.78091E+03 -2.48472E+03  9.61317E+03  1.09000E+03  9.36680E+03  6.88187E+03  7.62603E+03  1.31099E+04
 -2.87455E+03  1.47349E+04 -1.27560E+04  1.09594E+04 -1.65245E+04  2.03374E+03 -1.33078E+04 -5.42738E+03
 -6.53800E+03 -1.09551E+04 -3.60151E+02 -8.74953E+03  3.25269E+03 -4.51366E+03  3.30139E+03 -3.58083E+03
  2.27353E+03 -1.74559E+03  2.92184E+03 -2.58998E+03  4.40828E+03 -2.79541E+03  5.39700E+03 -3.89581E+01
  7.16310E+03  1.74415E+03  3.19449E+03  6.02167E+03 -1.71522E+03  6.27622E+03 -7.55086E+03  5.30110E+03
 -8.70559E+03 -1.40871E+03 -4.92378E+03 -6.25203E+03 -5.56575E+02 -9.63213E+03  5.19686E+03 -9.56134E+03
  9.68117E+03 -5.65122E+03  1.16640E+04  1.29273E+03  8.58311E+03  8.17428E+03  1.59177E+03  1.07825E+04
 -4.20975E+03  9.54446E+03 -6.32050E+03  3.20723E+03 -4.04313E+03 -1.64868E+03 -1.61280E+03 -8.50803E+02
 -8.45104E+02  1.42436E+01 -1.50690E+03  2.57834E+03 -3.83826E+03  1.48104E+03 -6.74533E+03 -1.12591E+03
 -3.41678E+03 -6.72165E+03  5.19046E+02 -8.51252E+03  5.52107E+03 -8.10853E+03  8.14433E+03 -2.40174E+03
  8.21487E+03  4.33590E+03  3.83042E+03  7.21500E+03 -1.38475E+03  8.92325E+03 -5.63283E+03  5.25936E+03
 -7.71307E+03  6.73221E+02 -6.81393E+03 -4.99059E+03 -2.02019E+02 -6.73826E+03  3.44966E+03 -5.02526E+03
  5.32955E+03 -2.21416E+03  3.85643E+03  1.20378E+03  1.25699E+03  2.83827E+03  9.95089E+02  8.44370E+02
  2.06049E+03  7.54447E+02  2.24014E+03  1.70755E+03  2.40098E+03  3.30423E+03  2.33204E+03  4.30871E+03
 -1.77954E+03  6.18351E+03 -5.52492E+03  7.02498E+03 -7.83243E+03  1.92714E+03 -8.57747E+03 -2.62007E+03
 -4.03213E+03 -7.93329E+03  1.13479E+03 -9.42015E+03  4.73337E+03 -5.82677E+03  6.72878E+03 -1.80729E+03
  5.10417E+03  3.85384E+03  1.45380E+03  4.78406E+03 -1.80293E+03  3.15925E+03 -3.03305E+03 -4.29600E+02
 -1.97281E+03 -3.35331E+03  2.08358E+03 -3.55915E+03  3.12625E+03 -1.88096E+03  3.09427E+03  6.28952E+02
  2.00122E+03  1.47911E+03  8.96076E+02  9.86798E+02 -8.33714E+02  1.52630E+03  1.76058E+03 -5.16093E+02
  1.21747E+03 -5.10128E+02  3.23966E+03  1.44124E+03  1.49385E+03  4.46569E+03 -9.73559E+02  5.90516E+03
 -3.37369E+03  3.38370E+03 -5.10625E+03  1.08018E+03 -4.90565E+03 -1.32938E+03 -1.35815E+03 -2.90401E+03
  5.98145E+02 -2.82985E+03  2.21330E+03 -1.34641E+03  1.81322E+03  2.36605E+03 -1.07288E+03  2.64755E+03
 -3.52135E+03  1.50693E+03 -3.47654E+03 -2.24489E+03 -2.30742E+03 -4.28878E+03  6.78868E+02 -4.17088E+03
  2.28313E+03 -2.00723E+03  2.66791E+03 -1.64385E+02  2.66025E+03  8.05904E+02  2.46055E+02  2.50277E+03
 -1.35678E+03  8.40319E+02 -2.29318E+03 -1.08400E+03  1.22029E+03 -3.03650E+03  3.71588E+03 -2.22278E+03
  4.46111E+03  5.47636E+02  5.20471E+03  2.96254E+03  1.56834E+03  4.64556E+03 -1.30866E+03  4.60917E+03
 -3.94341E+03  1.92014E+03 -3.92915E+03 -2.69984E+02 -2.19311E+03 -3.30274E+03  6.09191E+02 -2.55402E+03
  2.91236E+03 -1.37257E+03  2.50943E+03  1.34087E+03  6.81501E+02  3.10258E+03 -3.85511E+02  2.70134E+03
 -1.23337E+03  1.72830E+03 -9.38556E+02  5.97097E+02 -3.44928E+02  7.56236E+02 -9.73110E+02  9.69641E+02
 -1.42571E+03  1.81407E+03 -3.57229E+03  1.32528E+03 -4.78816E+03  7.59001E+01 -5.76071E+03 -3.18854E+03
 -2.76183E+03 -6.48679E+03  1.60081E+03 -7.38952E+03  4.29612E+03 -5.74934E+03  7.00144E+03 -2.42599E+03
  6.57679E+03  9.59435E+02  4.15006E+03  4.47682E+03 -1.34835E+02  4.76060E+03 -2.00799E+03  3.69778E+03
 -2.31069E+03  1.62846E+03 -1.37483E+03 -4.85623E+02 -1.08573E+03 -2.70917E+02 -5.72139E+02  2.76400E+02
 -1.23984E+03  1.69311E+02 -1.54615E+03 -8.64961E+01 -9.34067E+01 -1.19085E+03 -6.25620E+00 -1.96691E+03
  2.38808E+03 -1.70815E+03  2.53351E+03  1.94462E+02  3.32650E+03  2.54663E+03  7.09767E+02  4.82424E+03
 -1.98781E+03  5.62475E+03 -4.70009E+03  3.27153E+03 -5.62264E+03 -4.31381E+02 -4.22221E+03 -3.46488E+03
 -1.71596E+03 -4.98318E+03  1.27900E+03 -4.24490E+03  2.73945E+03 -2.19753E+03  2.64707E+03 -2.85118E+01
  1.85852E+03  1.30312E+03 -9.79829E+01  1.55087E+03 -1.13854E+03 -4.17006E+02  3.02515E+02 -4.42159E+02
  1.32931E+03 -4.04991E+02  1.61389E+03  8.39449E+02  1.25781E+03  1.80985E+03  3.20725E+02  2.19930E+03
 -2.35503E+03  2.01852E+03 -2.82477E+03  2.28128E+02 -2.10453E+03 -2.25480E+03 -3.77157E+02 -3.94549E+03
  1.91190E+03 -2.90890E+03  3.10102E+03 -9.67045E+02  3.28474E+03  2.62529E+02  1.70049E+03  2.65914E+03
  4.98672E+02  2.74413E+03 -1.08684E+03  2.34509E+03 -2.07430E+03  1.20632E+03 -1.52403E+03  3.39172E+02
 -6.76054E+02 -1.78232E+02 -8.78253E+02  2.70936E+02 -1.86079E+03  4.46037E+02 -2.38853E+03 -5.01609E+02
 -2.50511E+03 -9.64987E+02 -7.10875E+02 -3.17189E+03  1.69330E+03 -3.43565E+03  2.57749E+03 -1.21180E+03
  2.59076E+03  1.68752E+02  1.05793E+03  1.90402E+03 -4.95771E+01  2.73650E+03 -2.17000E+03  1.92509E+03
