 $NMID ID='MM_0lb_SNR800_9hz_g45_28.RAW', FMTDAT='(8E13.5)'
 TRAMP=1., VOLUME=1. $END
  3.09946E+05  2.59105E+02  3.37940E+05  2.50863E+05  8.46060E+04  3.38674E+05 -1.32763E+05  2.51533E+05
 -1.90797E+05  8.31607E+04 -1.12649E+05 -3.26675E+04  7.08943E+01 -5.05979E+04  5.37081E+04 -3.46412E+02
  3.55444E+04  5.29798E+04 -1.69400E+04  7.55656E+04 -6.10277E+04  6.41076E+04 -8.51400E+04  3.26955E+04
 -8.24692E+04 -1.12705E+04 -5.80184E+04 -5.24667E+04 -1.50869E+04 -7.09767E+04  2.77456E+04 -4.69723E+04
  4.09419E+04  3.76400E+03  1.65753E+04  4.86783E+04 -3.51529E+04  4.81610E+04 -6.80407E+04  9.65310E+00
 -5.46339E+04 -5.80613E+04 -7.30634E+03 -7.86832E+04  3.47484E+04 -5.66120E+04  4.92816E+04 -1.80393E+04
  4.49608E+04  1.13167E+04  3.28102E+04  2.63984E+04  1.58874E+04  3.05378E+04 -6.00596E+03  2.79058E+04
 -2.25556E+04  1.20320E+04 -1.83266E+04 -5.59952E+03  6.93509E+03 -7.67136E+03  2.35562E+04  1.36087E+04
  7.14382E+03  3.68994E+04 -3.35958E+04  3.70659E+04 -6.53949E+04  2.17959E+03 -5.87918E+04 -4.43939E+04
 -1.27854E+04 -6.54676E+04  4.13144E+04 -4.70616E+04  6.11962E+04 -2.30293E+03  3.65876E+04  3.44086E+04
 -5.51126E+03  3.91453E+04 -3.19256E+04  1.85340E+04 -3.36075E+04 -3.52275E+03 -1.90811E+04 -1.18944E+04
 -9.38859E+03 -1.49170E+04 -8.66721E+02 -1.94436E+04  8.67093E+03 -2.35299E+04  1.58810E+04 -1.26758E+04
  1.02288E+04  6.20910E+03 -1.03179E+04  1.27762E+04 -2.28130E+04 -6.21189E+03 -8.54857E+03 -3.67412E+04
  2.51088E+04 -4.62727E+04  5.15099E+04 -2.07727E+04  4.81281E+04  2.06297E+04  1.70759E+04  4.65731E+04
 -1.64721E+04  3.57450E+04 -2.75208E+04  2.57520E+03 -1.16645E+04 -2.96390E+04  2.14197E+04 -3.65532E+04
  4.39602E+04 -1.08135E+04  3.96951E+04  2.43753E+04  2.13040E+04  5.04708E+04 -7.92201E+03  5.57417E+04
 -3.50958E+04  3.79969E+04 -4.66737E+04  1.11054E+04 -4.68525E+04 -1.83321E+04 -2.62622E+04 -4.13913E+04
  8.04187E+03 -4.16170E+04  3.41235E+04 -1.74431E+04  3.19685E+04  1.11520E+04  4.82383E+03  2.07702E+04
 -1.40755E+04  9.46712E+03 -1.09151E+04 -7.68634E+03  5.56120E+03 -1.13334E+04  1.88944E+04  5.46529E+03
  1.44802E+04  2.25312E+04 -5.36277E+03  2.67940E+04 -2.30718E+04  1.42043E+04 -3.10221E+04 -3.44727E+03
 -2.51252E+04 -1.83786E+04 -1.14006E+04 -2.46275E+04  4.30995E+03 -2.45040E+04  1.91052E+04 -2.25021E+04
  3.15432E+04 -1.42371E+04  3.72209E+04  4.40079E+03  2.64493E+04  2.41602E+04  4.96662E+03  4.03058E+04
 -1.93628E+04  3.36434E+04 -3.00988E+04  1.17818E+04 -2.22891E+04 -1.03483E+04 -4.73030E+03 -1.29097E+04
  1.23856E+03 -1.23231E+03 -7.19506E+03  8.12892E+03 -1.99729E+04  4.64440E+03 -2.00370E+04 -9.67315E+03
 -1.18201E+04 -2.27802E+04  5.70260E+03 -2.70634E+04  1.83871E+04 -1.92266E+04  2.21981E+04 -1.63911E+03
  1.39412E+04  1.58825E+04 -1.36023E+03  2.29266E+04 -1.60742E+04  1.30717E+04 -2.29502E+04 -4.74812E+03
 -1.67864E+04 -2.07428E+04 -1.92558E+03 -2.73120E+04  1.23524E+04 -2.26185E+04  2.25104E+04 -1.20346E+04
  2.15050E+04 -5.48761E+02  1.56258E+04  5.05110E+03  8.77427E+03  1.36007E+03  1.21710E+04 -1.94321E+03
  2.23258E+04  2.86158E+03  2.48615E+04  1.75979E+04  1.71505E+04  3.70801E+04 -2.89852E+03  4.31007E+04
 -2.47277E+04  3.63879E+04 -4.06844E+04  1.85812E+04 -4.37856E+04 -3.27832E+03 -3.54315E+04 -2.53827E+04
 -1.45487E+04 -3.62263E+04  1.28754E+04 -3.20902E+04  2.71588E+04 -1.51779E+04  2.36991E+04  7.78402E+03
  8.08776E+03  1.80063E+04 -1.12894E+04  1.54028E+04 -2.00845E+04  2.53997E+03 -1.47412E+04 -1.28952E+04
 -5.00669E+02 -1.84321E+04  1.01190E+04 -1.40399E+04  1.34323E+04 -1.12205E+03  3.53892E+03  8.69225E+03
 -8.88644E+03  4.10622E+03 -8.96784E+03 -7.06692E+03 -1.87074E+03 -1.76355E+04  1.18445E+04 -1.92611E+04
  2.21868E+04 -1.07483E+04  2.54116E+04  3.32486E+03  2.20928E+04  1.83156E+04  1.03255E+04  2.85177E+04
 -5.45725E+03  3.02539E+04 -1.95983E+04  1.88448E+04 -2.20139E+04  4.10084E+03 -1.47567E+04 -5.73284E+03
 -6.24617E+03 -7.17385E+03 -4.41658E+02  5.05955E+02 -2.95040E+03  3.45163E+03 -7.64406E+03  5.51783E+03
 -1.42209E+04 -8.86746E+02 -1.46473E+04 -1.16292E+04 -6.05317E+03 -1.89088E+04  6.20039E+03 -1.57111E+04
  1.25385E+04 -6.43407E+03  8.54811E+03  4.22468E+03 -4.59198E+02  5.84311E+03 -7.95065E+03 -4.18685E+02
 -7.86318E+03 -9.94146E+03 -1.00149E+03 -1.52586E+04  9.37791E+03 -1.56905E+04  1.96608E+04 -8.78670E+03
  2.27175E+04  2.18116E+03  1.66173E+04  1.39743E+04  3.27301E+03  1.88501E+04 -9.52237E+03  1.52116E+04
 -1.23512E+04  4.57099E+03 -6.02269E+03 -3.41635E+03  2.18481E+03 -3.86558E+03  7.96193E+03 -1.06001E+03
  7.19469E+03  6.70116E+03  1.35502E+03  1.20536E+04 -9.21052E+03  1.19425E+04 -1.49647E+04  2.85673E+03
 -1.02630E+04 -7.77127E+03  2.74847E+02 -1.29689E+04  8.74672E+03 -6.99854E+03  9.22419E+03  3.48986E+03
  2.04632E+03  9.66953E+03 -8.10471E+03  1.14768E+04 -1.31918E+04  5.28210E+03 -1.33639E+04 -4.80081E+03
 -7.71305E+03 -1.52052E+04  4.10743E+03 -1.74205E+04  1.51208E+04 -1.06609E+04  1.68264E+04  3.18420E+03
  9.89370E+03  1.29896E+04 -1.54026E+03  1.54471E+04 -1.16679E+04  8.60450E+03 -1.25108E+04 -1.22157E+03
 -1.05641E+04 -1.04031E+04 -1.87835E+03 -1.16116E+04  6.08155E+03 -9.21811E+03  7.42015E+03 -3.39627E+03
  4.97125E+03  1.60923E+03 -1.18200E+03  2.09880E+03 -1.34729E+03 -3.45376E+03  2.35369E+03 -7.41164E+03
  1.13924E+04 -4.83254E+03  1.59387E+04  1.51125E+03  1.50485E+04  1.08047E+04  1.00869E+04  2.00053E+04
 -4.68401E+03  2.32316E+04 -1.91645E+04  1.72855E+04 -2.48726E+04  3.62251E+03 -2.03286E+04 -8.69387E+03
 -1.04360E+04 -1.67425E+04 -6.69048E+02 -1.42810E+04  5.22239E+03 -7.91134E+03  4.57672E+03 -5.14093E+03
  3.83795E+03 -2.96979E+03  3.78072E+03 -4.00535E+03  5.95770E+03 -3.72362E+03  7.88243E+03 -1.14978E+03
  1.07283E+04  2.59560E+03  5.67894E+03  9.15795E+03 -2.23300E+03  1.12118E+04 -1.12551E+04  8.19276E+03
 -1.44924E+04 -1.55102E+03 -9.26274E+03 -9.73074E+03 -1.39200E+03 -1.52213E+04  8.83867E+03 -1.55380E+04
  1.60687E+04 -9.04813E+03  1.87404E+04  2.76173E+03  1.30256E+04  1.37001E+04  2.12031E+03  1.74955E+04
 -7.01367E+03  1.41554E+04 -9.91850E+03  4.36372E+03 -7.11065E+03 -1.14197E+03 -2.57885E+03 -2.38559E+03
 -1.45399E+03  2.51194E+02 -2.58015E+03  3.14429E+03 -5.93110E+03  2.13366E+03 -9.63080E+03 -1.66982E+03
 -6.56313E+03 -9.85576E+03 -6.03561E+02 -1.43935E+04  8.29304E+03 -1.29917E+04  1.44793E+04 -3.94128E+03
  1.41857E+04  6.67314E+03  6.61558E+03  1.30227E+04 -3.36980E+03  1.46337E+04 -1.01306E+04  8.93303E+03
 -1.35400E+04  3.83067E+02 -1.04954E+04 -8.47823E+03 -1.33662E+03 -1.17482E+04  6.32595E+03 -9.01065E+03
  9.26658E+03 -2.80028E+03  6.20967E+03  2.27097E+03  2.09336E+03  4.12308E+03  1.57091E+03  1.64481E+03
  3.09412E+03  1.51888E+03  3.22312E+03  2.23836E+03  4.36250E+03  4.60958E+03  4.02252E+03  7.78314E+03
 -3.32685E+03  1.13913E+04 -9.82883E+03  1.11667E+04 -1.49224E+04  2.85777E+03 -1.51175E+04 -5.80134E+03
 -7.60444E+03 -1.42295E+04  2.15081E+03 -1.57408E+04  9.02612E+03 -1.02156E+04  1.22885E+04 -2.60260E+03
  9.22412E+03  5.56015E+03  2.00495E+03  8.56838E+03 -3.81942E+03  5.29933E+03 -6.40103E+03 -1.05448E+03
 -2.88931E+03 -6.24009E+03  3.56355E+03 -6.71611E+03  6.09670E+03 -3.18315E+03  6.00063E+03  1.45144E+03
  3.32475E+03  3.01945E+03  1.52916E+03  2.56926E+03 -9.30959E+02  1.88086E+03  1.38565E+03 -6.18375E+02
  2.12314E+03 -5.37906E+02  6.21979E+03  2.80034E+03  3.32705E+03  7.82794E+03 -1.05350E+03  1.05164E+04
 -6.94947E+03  6.61440E+03 -9.11956E+03  1.98947E+03 -8.56766E+03 -3.17291E+03 -2.98723E+03 -6.14003E+03
  1.22570E+03 -5.89195E+03  3.29967E+03 -2.27503E+03  3.36690E+03  3.04836E+03 -1.13693E+03  4.68566E+03
 -6.14360E+03  3.20043E+03 -6.78796E+03 -3.74043E+03 -3.65349E+03 -8.11337E+03  1.14145E+03 -8.15012E+03
  4.87267E+03 -4.50956E+03  5.91064E+03 -5.87616E+02  4.95678E+03  2.53198E+03  9.93662E+02  4.56015E+03
 -2.73898E+03  1.57518E+03 -3.72834E+03 -3.36170E+03  1.25867E+03 -6.29055E+03  7.25375E+03 -5.33310E+03
  9.71399E+03  4.05083E+02  9.09412E+03  6.27668E+03  3.06944E+03  1.01771E+04 -3.27285E+03  9.39903E+03
 -7.97041E+03  3.99923E+03 -8.34003E+03 -8.37616E+02 -4.59514E+03 -6.27246E+03  1.38788E+03 -6.06770E+03
  6.15896E+03 -2.96955E+03  5.07569E+03  2.20523E+03  1.29153E+03  5.29379E+03 -8.05963E+02  4.49960E+03
 -2.68439E+03  3.19151E+03 -2.54029E+03  1.37622E+03 -1.30940E+03  8.27544E+02 -1.17141E+03  2.29183E+03
 -2.22260E+03  4.10973E+03 -6.55836E+03  3.25000E+03 -9.69409E+03  1.70158E+02 -1.09695E+04 -6.49043E+03
 -5.77887E+03 -1.26472E+04  2.26058E+03 -1.53518E+04  8.92769E+03 -1.16442E+04  1.38095E+04 -4.59913E+03
  1.36962E+04  2.56370E+03  8.25118E+03  8.88341E+03  9.95951E+02  1.01424E+04 -3.98091E+03  7.17173E+03
 -6.12283E+03  2.28834E+03 -3.69072E+03 -1.23626E+03 -1.12701E+03 -9.55055E+02 -8.07850E+02 -2.60371E+02
 -1.83407E+03  1.50574E+02 -2.30915E+03 -8.86135E+01 -7.67103E+02 -2.37907E+03  1.32657E+02 -3.91366E+03
  4.74052E+03 -3.47785E+03  6.25319E+03  4.06003E+02  6.87556E+03  5.89354E+03  2.12528E+03  1.02113E+04
 -4.78890E+03  1.11881E+04 -1.09858E+04  6.95724E+03 -1.22758E+04 -1.28778E+03 -8.83764E+03 -7.51022E+03
 -3.75397E+03 -1.05797E+04  2.64962E+03 -9.82514E+03  6.18740E+03 -5.29668E+03  6.43740E+03  3.25890E+02
  3.62187E+03  3.48196E+03 -4.51188E+02  2.91024E+03 -1.66713E+03 -2.77122E+02  1.96095E+02 -2.53658E+03
  3.02882E+03 -1.24564E+03  4.02459E+03  1.31370E+03  2.67573E+03  3.99735E+03  7.21243E+01  5.49970E+03
 -4.16210E+03  4.86959E+03 -6.86341E+03  4.81848E+01 -5.89865E+03 -4.60686E+03 -1.11620E+03 -8.80954E+03
  4.97886E+03 -7.72872E+03  7.81897E+03 -1.87072E+03  7.48054E+03  1.76978E+03  4.69013E+03  6.24795E+03
  7.62481E+02  6.67110E+03 -2.55842E+03  5.65043E+03 -4.30025E+03  3.28243E+03 -3.73372E+03  3.42626E+02
 -1.74487E+03 -2.94960E+02 -1.94082E+03  5.78857E+02 -3.47114E+03  9.99130E+02 -5.32481E+03 -7.16751E+02
 -5.21061E+03 -3.73914E+03 -1.42728E+03 -6.36511E+03  3.41081E+03 -7.18031E+03  6.26676E+03 -3.58764E+03
  6.61950E+03  1.13024E+03  3.66491E+03  4.83017E+03 -2.95538E+02  7.03806E+03 -5.14201E+03  4.38964E+03
