 $NMID ID='MM_0lb_SNR800_9hz_g60_5.RAW', FMTDAT='(8E13.5)'
 TRAMP=1., VOLUME=1. $END
  3.09709E+05  2.30163E+02  3.38270E+05  2.50540E+05  8.50955E+04  3.38892E+05 -1.32978E+05  2.52220E+05
 -1.91123E+05  8.37851E+04 -1.12842E+05 -3.21927E+04  3.66877E+02 -5.04955E+04  5.33660E+04 -4.37998E+02
  3.57033E+04  5.33431E+04 -1.67872E+04  7.63199E+04 -6.14818E+04  6.44046E+04 -8.58210E+04  3.28350E+04
 -8.28581E+04 -1.16922E+04 -5.83725E+04 -5.30113E+04 -1.49138E+04 -7.12157E+04  2.86925E+04 -4.71110E+04
  4.15449E+04  3.59935E+03  1.68855E+04  4.84815E+04 -3.52593E+04  4.88286E+04 -6.82092E+04  2.62833E+02
 -5.51738E+04 -5.82148E+04 -7.41734E+03 -7.95954E+04  3.49633E+04 -5.71744E+04  5.02150E+04 -1.89107E+04
  4.56048E+04  1.13188E+04  3.32320E+04  2.72831E+04  1.60341E+04  3.08141E+04 -6.11320E+03  2.71402E+04
 -2.26971E+04  1.19763E+04 -1.74197E+04 -5.87198E+03  7.46785E+03 -7.42130E+03  2.38139E+04  1.39467E+04
  6.78920E+03  3.78240E+04 -3.42592E+04  3.76711E+04 -6.65955E+04  2.29258E+03 -5.95938E+04 -4.51184E+04
 -1.27200E+04 -6.64559E+04  4.24936E+04 -4.78598E+04  6.21298E+04 -3.06654E+03  3.73958E+04  3.48571E+04
 -5.14522E+03  4.01198E+04 -3.19574E+04  1.95455E+04 -3.38115E+04 -3.32825E+03 -2.02304E+04 -1.21994E+04
 -9.57070E+03 -1.52532E+04 -3.37805E+02 -1.99062E+04  8.73378E+03 -2.38240E+04  1.58253E+04 -1.22373E+04
  9.94335E+03  6.53814E+03 -1.05068E+04  1.29083E+04 -2.39219E+04 -7.48285E+03 -8.60336E+03 -3.83306E+04
  2.56905E+04 -4.75298E+04  5.29725E+04 -2.13209E+04  4.94061E+04  2.08683E+04  1.78331E+04  4.76194E+04
 -1.73337E+04  3.66179E+04 -2.78664E+04  2.90578E+03 -1.18748E+04 -2.94361E+04  2.18843E+04 -3.74273E+04
  4.53640E+04 -1.16242E+04  4.14651E+04  2.54087E+04  2.21500E+04  5.22737E+04 -8.37153E+03  5.77014E+04
 -3.61501E+04  3.96339E+04 -4.89400E+04  1.19028E+04 -4.90079E+04 -1.89483E+04 -2.66750E+04 -4.32801E+04
  7.78309E+03 -4.33940E+04  3.49259E+04 -1.74659E+04  3.25640E+04  1.14249E+04  5.37246E+03  2.13535E+04
 -1.37945E+04  1.02954E+04 -1.09374E+04 -7.55870E+03  5.45348E+03 -1.16250E+04  1.87894E+04  5.14460E+03
  1.52032E+04  2.27418E+04 -5.19823E+03  2.75613E+04 -2.35699E+04  1.49840E+04 -3.21054E+04 -2.06969E+03
 -2.64096E+04 -1.89064E+04 -1.19386E+04 -2.61480E+04  4.88243E+03 -2.70893E+04  2.06644E+04 -2.40243E+04
  3.32797E+04 -1.44571E+04  3.91815E+04  5.14253E+03  2.77463E+04  2.53599E+04  4.70501E+03  4.26073E+04
 -2.02982E+04  3.48881E+04 -3.08328E+04  1.17876E+04 -2.27812E+04 -1.00749E+04 -4.94758E+03 -1.24721E+04
  3.39302E+02 -7.13891E+02 -8.28588E+03  8.68849E+03 -2.14568E+04  5.27267E+03 -2.10160E+04 -1.02489E+04
 -1.20048E+04 -2.39414E+04  5.91444E+03 -2.85946E+04  1.98768E+04 -2.10350E+04  2.38293E+04 -1.45154E+03
  1.49799E+04  1.68418E+04 -1.88568E+03  2.42842E+04 -1.73945E+04  1.44590E+04 -2.49968E+04 -4.99877E+03
 -1.78680E+04 -2.18941E+04 -2.36926E+03 -2.91811E+04  1.30863E+04 -2.47105E+04  2.43356E+04 -1.27503E+04
  2.27991E+04 -7.20504E+02  1.64978E+04  5.47796E+03  8.77935E+03  1.37766E+03  1.30424E+04 -2.10567E+03
  2.29621E+04  2.66299E+03  2.69052E+04  1.88344E+04  1.85437E+04  3.89623E+04 -2.70049E+03  4.63745E+04
 -2.64773E+04  3.85969E+04 -4.35004E+04  2.01927E+04 -4.72199E+04 -3.42554E+03 -3.80639E+04 -2.75225E+04
 -1.45542E+04 -3.92991E+04  1.37461E+04 -3.42554E+04  2.94391E+04 -1.64857E+04  2.52009E+04  8.46949E+03
  8.02171E+03  1.96679E+04 -1.22389E+04  1.63991E+04 -2.08401E+04  2.80042E+03 -1.59164E+04 -1.34953E+04
 -3.82206E+02 -2.02370E+04  1.06667E+04 -1.53607E+04  1.40081E+04 -1.50060E+03  3.57319E+03  9.27371E+03
 -9.16236E+03  4.60156E+03 -9.68862E+03 -7.42412E+03 -2.30094E+03 -1.89434E+04  1.20627E+04 -2.13828E+04
  2.40374E+04 -1.18784E+04  2.78449E+04  3.42757E+03  2.45787E+04  1.96066E+04  1.12502E+04  3.10458E+04
 -5.90247E+03  3.25606E+04 -2.18534E+04  2.02413E+04 -2.37591E+04  3.88904E+03 -1.63857E+04 -6.51897E+03
 -6.79001E+03 -7.56965E+03 -6.81738E+02  5.43247E+02 -3.05148E+03  3.71351E+03 -8.17098E+03  5.69584E+03
 -1.51323E+04 -1.08498E+03 -1.50659E+04 -1.24667E+04 -6.48050E+03 -2.05632E+04  7.04813E+03 -1.64416E+04
  1.36640E+04 -6.54056E+03  9.39952E+03  4.57858E+03 -3.84706E+02  6.45741E+03 -8.60718E+03  7.27337E+01
 -8.00340E+03 -1.08799E+04 -1.05189E+03 -1.67047E+04  9.84945E+03 -1.76185E+04  2.15718E+04 -9.45638E+03
  2.49438E+04  2.88867E+03  1.82892E+04  1.50639E+04  3.19105E+03  2.06610E+04 -9.89781E+03  1.61707E+04
 -1.30836E+04  4.75831E+03 -6.90642E+03 -3.61059E+03  2.76699E+03 -4.90730E+03  8.70489E+03 -9.37242E+02
  7.95959E+03  7.61790E+03  9.31383E+02  1.36452E+04 -9.56153E+03  1.24429E+04 -1.65763E+04  2.61270E+03
 -1.10382E+04 -8.44112E+03  1.11367E+02 -1.46082E+04  9.12588E+03 -6.98186E+03  1.01398E+04  3.38932E+03
  2.74529E+03  1.11983E+04 -8.72275E+03  1.23192E+04 -1.45669E+04  5.18513E+03 -1.51476E+04 -5.40529E+03
 -8.70047E+03 -1.71023E+04  4.50689E+03 -1.94724E+04  1.64084E+04 -1.14397E+04  1.80653E+04  3.26505E+03
  1.05914E+04  1.42315E+04 -2.08854E+03  1.65116E+04 -1.26977E+04  9.18692E+03 -1.40448E+04 -1.29225E+03
 -1.12226E+04 -1.11630E+04 -1.99352E+03 -1.29653E+04  6.88870E+03 -1.00529E+04  8.31216E+03 -3.37881E+03
  5.42562E+03  2.41387E+03 -1.13171E+03  2.13855E+03 -9.69349E+02 -3.41678E+03  3.01101E+03 -8.21848E+03
  1.26461E+04 -5.45650E+03  1.74036E+04  1.91584E+03  1.65980E+04  1.20206E+04  1.04554E+04  2.24111E+04
 -5.40405E+03  2.59873E+04 -2.15060E+04  1.88352E+04 -2.80002E+04  3.87242E+03 -2.24436E+04 -9.80146E+03
 -1.09904E+04 -1.86300E+04 -3.49014E+02 -1.58688E+04  5.25548E+03 -9.03555E+03  5.63743E+03 -5.65393E+03
  3.99336E+03 -2.93269E+03  4.08118E+03 -3.56153E+03  5.84520E+03 -4.18244E+03  8.31728E+03 -1.75398E+03
  1.14708E+04  2.85736E+03  6.67888E+03  1.01462E+04 -2.59056E+03  1.18828E+04 -1.22942E+04  9.60621E+03
 -1.60726E+04 -1.35387E+03 -1.03970E+04 -1.08411E+04 -1.36501E+03 -1.73720E+04  9.16588E+03 -1.69619E+04
  1.77821E+04 -9.61706E+03  2.11751E+04  3.19268E+03  1.46495E+04  1.48965E+04  2.12058E+03  1.94049E+04
 -8.26042E+03  1.58970E+04 -1.05411E+04  5.21512E+03 -7.57410E+03 -1.72029E+03 -3.72783E+03 -2.40297E+03
 -1.53465E+03 -7.20505E+02 -2.42570E+03  3.12333E+03 -6.52735E+03  2.94301E+03 -1.11340E+04 -1.68469E+03
 -8.10213E+03 -1.11188E+04 -6.33204E+02 -1.56740E+04  9.95618E+03 -1.46384E+04  1.58121E+04 -4.58141E+03
  1.54981E+04  7.75183E+03  7.13425E+03  1.44454E+04 -3.49915E+03  1.61316E+04 -1.14036E+04  1.00126E+04
 -1.54519E+04  2.28217E+02 -1.17552E+04 -9.49950E+03 -1.17702E+03 -1.34084E+04  6.90384E+03 -9.89583E+03
  9.91170E+03 -3.32448E+03  6.62859E+03  2.95834E+03  2.74294E+03  4.57618E+03  1.30267E+03  2.60589E+03
  3.05319E+03  1.45149E+03  3.75392E+03  1.83842E+03  4.95808E+03  5.69364E+03  4.29700E+03  8.77621E+03
 -3.34255E+03  1.29709E+04 -1.13372E+04  1.30309E+04 -1.63876E+04  3.02313E+03 -1.72272E+04 -7.04156E+03
 -8.12206E+03 -1.66214E+04  2.60285E+03 -1.80206E+04  9.76450E+03 -1.14668E+04  1.32601E+04 -3.16868E+03
  1.05007E+04  5.99289E+03  2.10018E+03  9.26833E+03 -4.83131E+03  6.22835E+03 -6.64326E+03 -1.04061E+03
 -3.02140E+03 -6.79078E+03  3.49068E+03 -7.05398E+03  7.31069E+03 -3.72673E+03  6.21719E+03  1.44062E+03
  3.96448E+03  3.51010E+03  1.27965E+03  2.96464E+03 -1.03349E+03  2.20448E+03  1.56814E+03 -6.08090E+02
  2.50360E+03 -1.42569E+03  6.59757E+03  2.69009E+03  3.93714E+03  8.40327E+03 -1.33612E+03  1.19432E+04
 -8.17152E+03  7.76647E+03 -1.06255E+04  1.76223E+03 -9.70446E+03 -3.62812E+03 -3.85171E+03 -6.65269E+03
  1.37943E+03 -6.70177E+03  4.38724E+03 -2.92950E+03  3.83804E+03  3.29625E+03 -1.57406E+03  5.39031E+03
 -6.67090E+03  3.43728E+03 -7.85089E+03 -4.05981E+03 -4.84939E+03 -9.08471E+03  1.22157E+03 -9.39051E+03
  5.28203E+03 -5.87667E+03  6.64707E+03 -4.87045E+02  5.51610E+03  2.57172E+03  8.37988E+02  5.01124E+03
 -3.70739E+03  1.27392E+03 -4.54972E+03 -3.26707E+03  1.56532E+03 -6.98511E+03  8.04330E+03 -5.69678E+03
  1.06864E+04  6.64387E+02  9.66664E+03  7.11929E+03  3.26208E+03  1.14232E+04 -3.93929E+03  1.01090E+04
 -8.58914E+03  4.72260E+03 -9.40826E+03 -1.67108E+03 -5.14534E+03 -6.97849E+03  1.74256E+03 -6.58238E+03
  6.60140E+03 -3.13487E+03  6.19278E+03  2.97167E+03  1.59426E+03  6.01560E+03 -1.02192E+03  5.46924E+03
 -2.59768E+03  3.50579E+03 -2.80421E+03  1.15737E+03 -1.24562E+03  8.80256E+02 -1.33234E+03  2.08295E+03
 -2.59238E+03  3.99196E+03 -7.12566E+03  3.89479E+03 -1.07458E+04  3.44477E+02 -1.26473E+04 -7.34935E+03
 -6.53713E+03 -1.47756E+04  3.00082E+03 -1.69464E+04  1.02354E+04 -1.32048E+04  1.53837E+04 -4.35832E+03
  1.48760E+04  3.02523E+03  9.19984E+03  9.96852E+03  1.16809E+03  1.14977E+04 -4.31000E+03  8.85967E+03
 -6.27476E+03  3.24444E+03 -3.57956E+03 -1.45421E+03 -1.02038E+03 -1.19822E+03 -3.07589E+02 -1.18609E+02
 -1.68717E+03  3.96635E+02 -2.60744E+03 -4.26289E+02 -1.03193E+03 -2.49156E+03  4.42083E+02 -4.32610E+03
  5.01116E+03 -3.53377E+03  6.83376E+03  1.17275E+02  7.98678E+03  6.20410E+03  2.42278E+03  1.12306E+04
 -5.19581E+03  1.33279E+04 -1.19082E+04  7.14622E+03 -1.39734E+04 -1.20287E+03 -1.04383E+04 -8.53156E+03
 -4.35994E+03 -1.19897E+04  2.89091E+03 -1.12904E+04  7.89915E+03 -5.85702E+03  7.36055E+03  2.33557E+02
  4.27384E+03  3.64956E+03 -1.33960E+02  3.20865E+03 -2.38707E+03 -6.93716E+01  3.24940E+01 -2.86658E+03
  3.37240E+03 -1.33603E+03  4.53474E+03  1.51004E+03  2.96844E+03  4.22499E+03  2.45376E+02  5.81572E+03
 -5.23954E+03  4.92390E+03 -7.44000E+03  1.10487E+02 -6.67954E+03 -5.45408E+03 -8.51215E+02 -9.51598E+03
  5.31344E+03 -8.36685E+03  9.27819E+03 -2.08086E+03  8.98310E+03  2.09851E+03  5.12315E+03  6.98909E+03
  9.75396E+02  7.79489E+03 -3.25169E+03  5.83151E+03 -4.62332E+03  3.71990E+03 -3.88508E+03  6.60078E+02
 -2.27222E+03 -4.75650E+02 -1.97211E+03  9.12713E+02 -4.15155E+03  9.71593E+02 -5.48170E+03 -9.53215E+02
 -5.33996E+03 -4.36396E+03 -1.82393E+03 -7.62476E+03  3.96566E+03 -8.09187E+03  6.98985E+03 -3.90521E+03
  7.32954E+03  1.19813E+03  4.30818E+03  5.58295E+03 -4.67955E+02  7.65996E+03 -5.47516E+03  4.84900E+03
