 $NMID ID='MM_0lb_SNR800_14hz_g40_54.RAW', FMTDAT='(8E13.5)'
 TRAMP=1., VOLUME=1. $END
  3.09731E+05  5.60140E+02  3.37481E+05  2.50515E+05  8.41832E+04  3.37537E+05 -1.32349E+05  2.50823E+05
 -1.89947E+05  8.30525E+04 -1.11674E+05 -3.23924E+04  1.04031E+03 -5.01300E+04  5.40089E+04 -5.07861E+01
  3.54077E+04  5.31163E+04 -1.65345E+04  7.51360E+04 -6.04982E+04  6.32659E+04 -8.33510E+04  3.19504E+04
 -8.05436E+04 -1.13410E+04 -5.70043E+04 -5.08327E+04 -1.48953E+04 -6.91647E+04  2.73662E+04 -4.53835E+04
  3.97633E+04  3.98391E+03  1.59314E+04  4.78110E+04 -3.42581E+04  4.69959E+04 -6.64853E+04 -5.48187E+02
 -5.33308E+04 -5.66462E+04 -6.81135E+03 -7.63423E+04  3.37337E+04 -5.43864E+04  4.74369E+04 -1.68285E+04
  4.28500E+04  1.13884E+04  3.15740E+04  2.53462E+04  1.60916E+04  2.93851E+04 -4.95186E+03  2.70682E+04
 -2.21197E+04  1.23990E+04 -1.90476E+04 -5.01491E+03  5.23914E+03 -7.30115E+03  2.17857E+04  1.15736E+04
  7.15822E+03  3.47593E+04 -3.16642E+04  3.50472E+04 -6.28636E+04  1.89074E+03 -5.66674E+04 -4.22923E+04
 -1.27090E+04 -6.28753E+04  3.95463E+04 -4.47677E+04  5.77558E+04 -1.98815E+03  3.36039E+04  3.18831E+04
 -5.94871E+03  3.52710E+04 -2.94380E+04  1.49556E+04 -2.98537E+04 -4.87431E+03 -1.63769E+04 -1.07474E+04
 -8.08500E+03 -1.27094E+04 -6.10950E+02 -1.75549E+04  7.47661E+03 -2.29206E+04  1.51859E+04 -1.36671E+04
  1.15534E+04  4.93946E+03 -7.87609E+03  1.30160E+04 -2.05607E+04 -3.72716E+03 -8.23602E+03 -3.28721E+04
  2.23606E+04 -4.26658E+04  4.74123E+04 -1.94402E+04  4.43111E+04  1.90961E+04  1.55924E+04  4.34168E+04
 -1.55923E+04  3.32023E+04 -2.49692E+04  1.52631E+03 -9.80645E+03 -2.75442E+04  2.11079E+04 -3.32054E+04
  4.03890E+04 -8.59419E+03  3.45630E+04  2.37830E+04  1.72731E+04  4.53151E+04 -7.98213E+03  4.88366E+04
 -3.08915E+04  3.27160E+04 -4.10941E+04  9.16682E+03 -4.18287E+04 -1.62616E+04 -2.29300E+04 -3.72016E+04
  7.41225E+03 -3.68354E+04  3.08989E+04 -1.45009E+04  2.82907E+04  1.07161E+04  3.92754E+03  1.87130E+04
 -1.34063E+04  8.39833E+03 -1.04928E+04 -7.44379E+03  5.54974E+03 -1.03903E+04  1.74627E+04  6.16646E+03
  1.34001E+04  2.20281E+04 -6.09452E+03  2.46620E+04 -2.22467E+04  1.07169E+04 -2.71296E+04 -5.15026E+03
 -1.93521E+04 -1.68784E+04 -7.73844E+03 -1.95400E+04  3.89493E+03 -1.84294E+04  1.50434E+04 -1.73031E+04
  2.51192E+04 -1.27138E+04  3.15843E+04  2.17059E+03  2.32513E+04  1.92247E+04  4.15149E+03  3.53342E+04
 -1.73151E+04  2.97725E+04 -2.76151E+04  1.04006E+04 -2.06204E+04 -1.04001E+04 -4.24184E+03 -1.35403E+04
  1.87627E+03 -2.80152E+03 -4.36109E+03  6.56061E+03 -1.58305E+04  5.22861E+03 -1.55702E+04 -6.19426E+03
 -9.72470E+03 -1.81308E+04  4.98172E+03 -2.18935E+04  1.49448E+04 -1.58697E+04  1.72309E+04 -1.61674E+03
  1.09680E+04  1.25240E+04 -1.10911E+03  1.83326E+04 -1.26200E+04  1.06052E+04 -1.83053E+04 -3.84299E+03
 -1.34450E+04 -1.64559E+04 -1.69650E+03 -2.20700E+04  9.97697E+03 -1.82196E+04  1.86493E+04 -9.03974E+03
  1.69941E+04  5.19026E+02  1.23430E+04  4.23402E+03  6.58958E+03  5.10914E+02  8.91769E+03 -1.44404E+03
  1.65118E+04  3.12371E+03  1.84497E+04  1.44241E+04  1.19367E+04  2.92405E+04 -3.17767E+03  3.27288E+04
 -1.91331E+04  2.61285E+04 -3.03795E+04  1.27354E+04 -3.14725E+04 -2.49285E+03 -2.63250E+04 -1.82590E+04
 -1.14115E+04 -2.60011E+04  9.10403E+03 -2.34834E+04  2.05321E+04 -1.22121E+04  1.87473E+04  5.14459E+03
  7.23046E+03  1.34888E+04 -8.95792E+03  1.22788E+04 -1.56578E+04  2.50093E+03 -1.17939E+04 -9.64674E+03
 -2.95999E+01 -1.47819E+04  7.44146E+03 -1.08761E+04  9.76188E+03 -1.20389E+03  2.29374E+03  6.40469E+03
 -6.53324E+03  2.30039E+03 -5.45102E+03 -5.55332E+03 -1.36277E+02 -1.30314E+04  9.29513E+03 -1.33490E+04
  1.59680E+04 -7.06246E+03  1.67771E+04  3.05408E+03  1.45073E+04  1.22291E+04  6.69973E+03  1.92506E+04
 -2.93773E+03  2.09682E+04 -1.30974E+04  1.28745E+04 -1.48132E+04  3.45500E+03 -1.07550E+04 -3.31745E+03
 -5.01465E+03 -4.75775E+03 -1.10234E+03  1.32370E+03 -2.51993E+03  2.34816E+03 -5.00265E+03  4.10590E+03
 -9.99103E+03 -3.48512E+02 -1.07489E+04 -9.14681E+03 -4.06299E+03 -1.41192E+04  4.59630E+03 -1.07814E+04
  9.13239E+03 -4.67165E+03  6.34344E+03  3.07501E+03  5.02637E+02  4.21371E+03 -4.83615E+03 -1.72387E+02
 -4.88647E+03 -6.70547E+03 -1.04092E+03 -9.80449E+03  5.53071E+03 -1.07863E+04  1.33598E+04 -5.62568E+03
  1.56339E+04  1.12848E+03  1.11424E+04  8.68918E+03  2.29660E+03  1.18202E+04 -6.79958E+03  1.05280E+04
 -9.02967E+03  3.11802E+03 -4.32727E+03 -2.14511E+03  1.33651E+03 -2.41147E+03  6.16442E+03 -8.48423E+02
  4.95174E+03  4.56218E+03  1.42723E+03  8.22310E+03 -5.96722E+03  8.40854E+03 -1.05994E+04  2.26121E+03
 -6.67996E+03 -5.00662E+03  4.97282E+02 -9.17499E+03  5.24744E+03 -4.47674E+03  5.54575E+03  1.72964E+03
  1.19030E+03  5.46947E+03 -5.51051E+03  6.86605E+03 -7.35030E+03  3.39023E+03 -7.51600E+03 -2.28437E+03
 -4.36886E+03 -8.94061E+03  1.83775E+03 -1.08526E+04  8.82572E+03 -6.25547E+03  9.66307E+03  1.94294E+03
  6.45144E+03  7.92602E+03 -5.85213E+02  1.02140E+04 -7.05225E+03  5.58076E+03 -7.73261E+03 -6.40967E+02
 -7.26235E+03 -7.10388E+03 -1.23735E+03 -7.47722E+03  3.82918E+03 -6.60779E+03  4.49371E+03 -3.14867E+03
  3.39023E+03  7.90359E+02 -3.86717E+02  1.72614E+03 -2.62151E+01 -1.22328E+03  5.91161E+02 -3.93227E+03
  6.35253E+03 -1.90071E+03  8.89852E+03  9.96757E+02  8.66247E+03  5.62248E+03  6.66685E+03  1.15864E+04
 -2.43108E+03  1.33311E+04 -1.13611E+04  1.00630E+04 -1.49285E+04  1.75263E+03 -1.19993E+04 -4.50259E+03
 -6.15653E+03 -9.87340E+03 -4.67588E+02 -7.94934E+03  3.42916E+03 -4.10483E+03  2.74462E+03 -3.15166E+03
  2.18036E+03 -1.71432E+03  2.75294E+03 -2.70562E+03  4.02180E+03 -1.70082E+03  4.82022E+03 -1.70412E+02
  6.37675E+03  1.44274E+03  2.78628E+03  5.11586E+03 -1.78567E+03  5.72326E+03 -6.50965E+03  4.61901E+03
 -7.80813E+03 -1.26905E+03 -4.13459E+03 -5.70522E+03 -1.71518E+02 -8.24757E+03  4.88350E+03 -8.57559E+03
  8.77124E+03 -4.78873E+03  1.05819E+04  9.35904E+02  7.35995E+03  7.11763E+03  1.24395E+03  9.97040E+03
 -3.57944E+03  8.41312E+03 -5.63850E+03  2.88340E+03 -3.49277E+03 -1.25020E+03 -1.24868E+03 -9.71080E+02
 -8.61369E+02  2.44186E+02 -9.70982E+02  2.08734E+03 -3.56359E+03  1.48601E+03 -5.77775E+03 -3.91033E+02
 -3.41315E+03 -6.16072E+03  3.86394E+02 -7.57006E+03  4.50006E+03 -7.00968E+03  7.07911E+03 -2.22878E+03
  7.32658E+03  3.75564E+03  3.44493E+03  6.03110E+03 -1.50581E+03  7.93483E+03 -4.99869E+03  4.72195E+03
 -7.16178E+03  5.83616E+02 -5.57678E+03 -4.50535E+03 -8.21875E+01 -5.73203E+03  3.09416E+03 -4.42409E+03
  4.55589E+03 -1.55671E+03  3.02130E+03  1.19347E+03  9.42025E+02  2.50191E+03  9.05126E+02  1.03642E+03
  1.77762E+03  9.76663E+02  1.73595E+03  1.43788E+03  2.10554E+03  3.23034E+03  2.22375E+03  3.90512E+03
 -1.67585E+03  5.55069E+03 -4.59254E+03  6.25957E+03 -6.99962E+03  1.54801E+03 -7.54531E+03 -2.13032E+03
 -3.60060E+03 -7.11962E+03  1.05281E+03 -8.06664E+03  4.09168E+03 -4.81109E+03  5.78832E+03 -1.78780E+03
  4.36146E+03  2.88013E+03  7.96518E+02  4.02295E+03 -1.75229E+03  2.50229E+03 -2.46159E+03 -3.03655E+02
 -8.43317E+02 -2.94516E+03  1.81068E+03 -2.78182E+03  2.90960E+03 -1.38020E+03  2.53004E+03  8.26155E+02
  1.64128E+03  1.01623E+03  6.93093E+02  4.56345E+02 -4.98655E+02  9.93152E+02  1.47478E+03 -1.53307E+02
  1.01154E+03 -6.73513E+02  3.07013E+03  1.08380E+03  1.33397E+03  4.11988E+03 -5.92665E+02  5.20129E+03
 -3.19308E+03  2.73304E+03 -3.84717E+03  6.21091E+02 -4.11292E+03 -1.49686E+03 -1.17914E+03 -2.34051E+03
  7.82211E+02 -2.66873E+03  1.51762E+03 -1.11940E+03  1.40363E+03  1.83519E+03 -1.10712E+03  2.13365E+03
 -2.80732E+03  1.28305E+03 -2.81864E+03 -1.84657E+03 -1.74933E+03 -3.89752E+03  5.37697E+02 -3.63413E+03
  1.80864E+03 -1.73289E+03  2.30927E+03  9.83396E+01  2.49946E+03  6.66143E+02  1.63801E+02  2.15045E+03
 -1.15567E+03  3.84169E+02 -1.80836E+03 -1.37598E+03  7.23777E+02 -2.49284E+03  3.42809E+03 -2.24973E+03
  3.68077E+03  2.16719E+02  4.69808E+03  2.39440E+03  1.51966E+03  4.11847E+03 -1.25916E+03  3.95680E+03
 -3.00142E+03  1.29537E+03 -3.44180E+03 -4.25684E+02 -1.84070E+03 -2.74204E+03  4.82030E+02 -2.29477E+03
  2.75192E+03 -1.18752E+03  2.09899E+03  1.31416E+03  8.78965E+02  2.29712E+03 -2.90547E+02  2.08472E+03
 -9.27644E+02  1.70095E+03 -1.09317E+03  5.92470E+02 -5.58892E+02  2.66088E+02 -9.62558E+02  6.12394E+02
 -1.07353E+03  1.83637E+03 -2.80594E+03  1.23958E+03 -3.98449E+03  1.09823E+02 -4.75720E+03 -2.39769E+03
 -2.46363E+03 -5.58278E+03  1.28380E+03 -5.97834E+03  3.22225E+03 -5.01865E+03  6.22908E+03 -2.10748E+03
  5.07589E+03  8.84095E+02  3.07065E+03  3.74460E+03 -4.76657E+02  4.02137E+03 -1.92797E+03  3.12252E+03
 -2.29958E+03  1.20014E+03 -1.14346E+03 -5.57702E+02 -5.66044E+02 -1.11970E+02 -1.01407E+03 -7.21353E+01
 -1.44441E+03 -1.03422E+02 -8.61223E+02 -1.82415E+02 -1.48466E+02 -1.31483E+03 -1.25846E+02 -1.78170E+03
  2.22025E+03 -1.36556E+03  2.36042E+03  1.08869E+02  2.68828E+03  2.44927E+03  5.03003E+02  3.75348E+03
 -2.01209E+03  4.50261E+03 -4.15169E+03  2.80069E+03 -4.85488E+03 -6.44913E+02 -3.45178E+03 -2.77743E+03
 -1.92805E+03 -3.89479E+03  9.42718E+02 -3.49637E+03  1.97359E+03 -1.67429E+03  2.57647E+03  4.16200E+02
  1.55882E+03  1.18167E+03  1.63305E+02  1.17806E+03 -7.91169E+02 -9.37192E+01  1.05901E+02 -8.41259E+02
  1.29351E+03 -2.48188E+02  1.27167E+03  4.05402E+02  7.58175E+02  1.30154E+03  1.91977E+02  1.76445E+03
 -1.85711E+03  1.85115E+03 -2.31906E+03  3.67751E+02 -2.31511E+03 -1.64076E+03 -4.73010E+02 -2.90034E+03
  1.83441E+03 -2.43518E+03  2.45464E+03 -6.17401E+02  2.88977E+03  1.93733E+02  1.22530E+03  2.30410E+03
  5.87870E+02  1.95045E+03 -7.25719E+02  1.74319E+03 -1.33044E+03  1.56774E+03 -7.81387E+02  1.60629E+02
 -8.90033E+02 -2.10076E+02 -6.22409E+02  2.06986E+02 -1.19846E+03  2.46803E+02 -2.08532E+03 -6.56070E+02
 -2.01609E+03 -4.85079E+02 -3.68411E+02 -2.40793E+03  1.12431E+03 -2.85862E+03  1.84773E+03 -1.16955E+03
  2.04104E+03  4.05720E+02  6.93436E+02  1.33057E+03 -7.79348E+01  2.42390E+03 -1.36122E+03  1.81981E+03
