 $NMID ID='MM_0lb_SNR800_12hz_g45_64.RAW', FMTDAT='(8E13.5)'
 TRAMP=1., VOLUME=1. $END
  3.09710E+05  2.07416E+02  3.37407E+05  2.50548E+05  8.47915E+04  3.38104E+05 -1.32991E+05  2.51788E+05
 -1.90117E+05  8.33846E+04 -1.12094E+05 -3.26171E+04  5.30359E+02 -5.05677E+04  5.36778E+04 -1.99244E+02
  3.57317E+04  5.29060E+04 -1.67662E+04  7.58193E+04 -6.13364E+04  6.37769E+04 -8.42956E+04  3.22678E+04
 -8.15921E+04 -1.16651E+04 -5.75100E+04 -5.14930E+04 -1.49765E+04 -7.00820E+04  2.77900E+04 -4.59406E+04
  4.08605E+04  3.76709E+03  1.62119E+04  4.80555E+04 -3.45411E+04  4.71128E+04 -6.69321E+04 -2.22350E+00
 -5.37565E+04 -5.73402E+04 -6.69560E+03 -7.80698E+04  3.41804E+04 -5.55391E+04  4.86084E+04 -1.75638E+04
  4.42450E+04  1.15803E+04  3.20091E+04  2.54659E+04  1.60175E+04  2.94993E+04 -5.61265E+03  2.75131E+04
 -2.23805E+04  1.21777E+04 -1.81745E+04 -5.10247E+03  5.77669E+03 -7.27503E+03  2.25407E+04  1.26428E+04
  7.18894E+03  3.57606E+04 -3.25174E+04  3.60271E+04 -6.38653E+04  2.45181E+03 -5.75769E+04 -4.30815E+04
 -1.24838E+04 -6.45464E+04  4.02173E+04 -4.60332E+04  5.88341E+04 -2.34716E+03  3.49785E+04  3.30316E+04
 -6.06789E+03  3.68650E+04 -3.05089E+04  1.64356E+04 -3.14120E+04 -4.36574E+03 -1.74297E+04 -1.14610E+04
 -8.82029E+03 -1.38863E+04 -5.45865E+02 -1.85658E+04  7.83593E+03 -2.32731E+04  1.55688E+04 -1.31651E+04
  1.09243E+04  5.53178E+03 -9.02044E+03  1.28575E+04 -2.18224E+04 -4.68851E+03 -8.52990E+03 -3.46187E+04
  2.33745E+04 -4.42580E+04  4.90960E+04 -1.96870E+04  4.60150E+04  1.95555E+04  1.64205E+04  4.50292E+04
 -1.60972E+04  3.40948E+04 -2.57823E+04  2.23818E+03 -1.03717E+04 -2.82190E+04  2.11019E+04 -3.47782E+04
  4.23328E+04 -9.81268E+03  3.71383E+04  2.41406E+04  1.91339E+04  4.74457E+04 -7.83129E+03  5.16425E+04
 -3.27535E+04  3.49992E+04 -4.38951E+04  9.98075E+03 -4.41040E+04 -1.74580E+04 -2.43060E+04 -3.94064E+04
  7.69580E+03 -3.87888E+04  3.21620E+04 -1.51559E+04  3.03834E+04  1.09754E+04  4.35415E+03  1.94701E+04
 -1.34285E+04  8.82331E+03 -1.04691E+04 -7.40463E+03  5.87255E+03 -1.07365E+04  1.82743E+04  5.67814E+03
  1.41659E+04  2.20600E+04 -5.69774E+03  2.55078E+04 -2.24901E+04  1.28203E+04 -2.90031E+04 -4.37252E+03
 -2.21441E+04 -1.76073E+04 -9.36465E+03 -2.17977E+04  4.15366E+03 -2.11797E+04  1.68256E+04 -1.99525E+04
  2.78544E+04 -1.33115E+04  3.44477E+04  3.51066E+03  2.46008E+04  2.11682E+04  4.12839E+03  3.74993E+04
 -1.82472E+04  3.12980E+04 -2.87658E+04  1.07832E+04 -2.14020E+04 -1.01383E+04 -4.95785E+03 -1.32228E+04
  1.69032E+03 -2.35705E+03 -5.66941E+03  7.00855E+03 -1.71715E+04  5.11706E+03 -1.74011E+04 -7.68190E+03
 -1.06616E+04 -2.04565E+04  5.31582E+03 -2.41571E+04  1.62060E+04 -1.76416E+04  1.93902E+04 -1.81962E+03
  1.22121E+04  1.43125E+04 -1.22833E+03  2.01822E+04 -1.38926E+04  1.20655E+04 -2.07211E+04 -4.38226E+03
 -1.47467E+04 -1.82749E+04 -2.12872E+03 -2.40834E+04  1.08756E+04 -2.01871E+04  2.03089E+04 -1.00036E+04
  1.87753E+04 -1.15914E+02  1.35189E+04  4.38321E+03  7.41180E+03  1.08657E+03  1.05442E+04 -1.76535E+03
  1.88122E+04  3.13276E+03  2.10560E+04  1.58092E+04  1.38749E+04  3.24661E+04 -2.94106E+03  3.73221E+04
 -2.14092E+04  3.02747E+04 -3.49955E+04  1.57090E+04 -3.65728E+04 -2.54628E+03 -3.00916E+04 -2.11173E+04
 -1.27107E+04 -3.03414E+04  1.06204E+04 -2.69387E+04  2.32863E+04 -1.36408E+04  2.07412E+04  6.07323E+03
  7.62841E+03  1.56513E+04 -9.32693E+03  1.36826E+04 -1.73546E+04  2.74160E+03 -1.34038E+04 -1.09287E+04
 -1.25976E+02 -1.65309E+04  8.36720E+03 -1.24113E+04  1.11112E+04 -1.18829E+03  2.57881E+03  7.22057E+03
 -7.57244E+03  2.66921E+03 -6.96296E+03 -5.77302E+03 -9.78256E+02 -1.49289E+04  1.03666E+04 -1.59974E+04
  1.87863E+04 -8.66116E+03  2.03483E+04  2.94007E+03  1.75954E+04  1.46662E+04  8.18033E+03  2.27976E+04
 -3.89232E+03  2.50084E+04 -1.61137E+04  1.54488E+04 -1.77192E+04  3.52703E+03 -1.24270E+04 -4.21639E+03
 -5.62464E+03 -5.91753E+03 -2.87272E+02  9.60900E+02 -2.57193E+03  3.00561E+03 -5.76510E+03  4.49248E+03
 -1.15833E+04 -1.02455E+03 -1.24719E+04 -1.01819E+04 -4.75653E+03 -1.59530E+04  4.93964E+03 -1.27273E+04
  1.06531E+04 -4.94439E+03  7.93280E+03  3.10962E+03 -1.40008E+02  5.07495E+03 -5.61600E+03 -1.89270E+02
 -5.83941E+03 -7.71776E+03 -1.09475E+03 -1.17393E+04  6.84734E+03 -1.27603E+04  1.59054E+04 -6.62251E+03
  1.86959E+04  1.55597E+03  1.38017E+04  1.06978E+04  2.53554E+03  1.47032E+04 -7.68252E+03  1.25404E+04
 -1.01661E+04  4.16771E+03 -5.40729E+03 -2.47067E+03  1.75528E+03 -3.33682E+03  6.59294E+03 -1.04999E+03
  5.94457E+03  5.35351E+03  1.25195E+03  9.85262E+03 -7.08971E+03  9.26881E+03 -1.24245E+04  2.35995E+03
 -8.34377E+03 -6.13621E+03  1.02907E+02 -1.07825E+04  6.66909E+03 -5.61730E+03  6.93723E+03  1.89757E+03
  1.12717E+03  7.12188E+03 -6.29913E+03  8.86907E+03 -9.82840E+03  3.84101E+03 -1.00086E+04 -3.46043E+03
 -5.65488E+03 -1.15963E+04  2.88148E+03 -1.35165E+04  1.13124E+04 -7.93456E+03  1.24563E+04  2.00702E+03
  7.73736E+03  9.93701E+03 -1.08020E+03  1.20530E+04 -9.20545E+03  6.85182E+03 -9.60084E+03 -1.04088E+03
 -8.67317E+03 -8.08599E+03 -1.73718E+03 -8.84048E+03  4.93650E+03 -7.48154E+03  5.36782E+03 -3.34205E+03
  3.67109E+03  1.16772E+03 -6.62428E+02  1.61315E+03 -3.00330E+02 -1.77182E+03  1.91181E+03 -4.94446E+03
  8.47456E+03 -2.94918E+03  1.14330E+04  1.43077E+03  1.16039E+04  7.33702E+03  8.31670E+03  1.50243E+04
 -3.63343E+03  1.72455E+04 -1.43314E+04  1.25531E+04 -1.90868E+04  2.50081E+03 -1.50801E+04 -6.54491E+03
 -7.67560E+03 -1.25576E+04 -2.34863E+02 -1.01659E+04  3.71570E+03 -5.49631E+03  3.66523E+03 -3.78747E+03
  2.71233E+03 -2.22705E+03  3.24057E+03 -3.33815E+03  4.63321E+03 -2.79842E+03  6.46328E+03 -7.14440E+02
  8.01531E+03  1.99720E+03  3.86999E+03  6.72026E+03 -1.96270E+03  7.39729E+03 -8.32075E+03  6.22314E+03
 -1.05234E+04 -1.19307E+03 -5.63456E+03 -7.15674E+03 -4.92956E+02 -1.11807E+04  6.59546E+03 -1.10149E+04
  1.12877E+04 -6.73617E+03  1.36693E+04  1.69081E+03  9.54437E+03  9.43604E+03  1.99826E+03  1.22796E+04
 -5.08620E+03  1.03378E+04 -7.24438E+03  3.42371E+03 -4.75893E+03 -1.59309E+03 -2.07603E+03 -1.50443E+03
 -1.00606E+03  1.94695E+02 -1.56212E+03  2.50972E+03 -4.53176E+03  1.66726E+03 -7.56505E+03 -9.22999E+02
 -4.64735E+03 -7.61044E+03  4.52589E+02 -1.02175E+04  6.01698E+03 -9.69864E+03  9.64211E+03 -3.06159E+03
  9.71125E+03  4.89487E+03  4.04832E+03  8.44297E+03 -1.67722E+03  9.95359E+03 -6.97489E+03  6.18774E+03
 -9.09602E+03  6.85308E+02 -7.16304E+03 -5.87122E+03 -8.87281E+02 -8.47213E+03  4.02959E+03 -6.22528E+03
  6.20191E+03 -2.03607E+03  4.21020E+03  1.50905E+03  1.55289E+03  3.27986E+03  1.15608E+03  1.31843E+03
  2.32819E+03  7.61689E+02  2.49035E+03  1.71927E+03  3.05193E+03  3.46891E+03  2.61143E+03  5.18529E+03
 -2.25257E+03  7.58675E+03 -6.72181E+03  8.35656E+03 -9.78782E+03  2.15922E+03 -1.02985E+04 -3.90398E+03
 -4.78556E+03 -9.51861E+03  1.26408E+03 -1.12553E+04  5.54450E+03 -6.81462E+03  7.74608E+03 -1.78805E+03
  6.52980E+03  3.87635E+03  1.67724E+03  5.96038E+03 -2.57617E+03  3.54184E+03 -3.93099E+03 -7.50159E+02
 -2.08088E+03 -4.00782E+03  2.51254E+03 -4.13867E+03  4.11494E+03 -1.95935E+03  3.77338E+03  1.06810E+03
  2.21727E+03  1.77715E+03  9.86582E+02  1.48959E+03 -6.78156E+02  1.60842E+03  1.62723E+03 -7.32677E+02
  1.45843E+03 -3.65856E+02  4.13728E+03  1.45735E+03  1.74399E+03  5.38717E+03 -9.12829E+02  6.90712E+03
 -4.36391E+03  4.41682E+03 -6.09016E+03  1.33514E+03 -5.37400E+03 -2.24565E+03 -1.97977E+03 -3.53814E+03
  4.29541E+02 -3.49670E+03  2.44994E+03 -1.68558E+03  2.01567E+03  2.18161E+03 -1.25543E+03  3.12744E+03
 -3.86278E+03  2.27580E+03 -4.64258E+03 -2.75399E+03 -2.60999E+03 -5.27593E+03  6.24851E+02 -5.06222E+03
  2.94699E+03 -2.62388E+03  3.51816E+03 -3.91654E+02  3.18797E+03  9.21081E+02  6.30336E+02  2.99955E+03
 -1.87846E+03  6.83577E+02 -1.97835E+03 -1.59645E+03  1.14844E+03 -3.38494E+03  4.33666E+03 -3.36603E+03
  5.49389E+03  6.16240E+02  5.60919E+03  3.73162E+03  1.98010E+03  5.84657E+03 -1.84231E+03  5.84550E+03
 -4.77001E+03  2.50439E+03 -4.93756E+03 -7.95827E+02 -2.87405E+03 -3.89984E+03  8.43174E+02 -3.56822E+03
  4.04981E+03 -1.88634E+03  3.25264E+03  1.47305E+03  9.47285E+02  3.43798E+03  6.05948E+01  2.98623E+03
 -1.74122E+03  2.02999E+03 -1.61123E+03  6.08993E+02 -7.52277E+02  4.88528E+02 -1.03121E+03  1.47745E+03
 -1.74853E+03  2.47964E+03 -4.41389E+03  2.06324E+03 -5.74961E+03 -3.09763E+02 -6.36944E+03 -3.59684E+03
 -3.37141E+03 -7.53167E+03  1.42231E+03 -9.02229E+03  5.26408E+03 -7.17872E+03  8.79181E+03 -3.05940E+03
  7.56641E+03  1.09302E+03  4.91580E+03  5.49691E+03  1.29693E+02  5.66151E+03 -2.38616E+03  4.45888E+03
 -3.53461E+03  1.80242E+03 -2.09049E+03 -8.34313E+02 -8.74834E+02 -1.78127E+02 -5.93482E+02 -1.88329E+02
 -1.41478E+03  1.01582E+02 -1.54670E+03 -3.59332E+02 -2.81521E+02 -1.48124E+03 -5.76967E+01 -2.35820E+03
  2.85068E+03 -1.94889E+03  3.20032E+03 -9.83851E+01  4.23147E+03  3.36419E+03  7.94279E+02  5.72998E+03
 -2.94511E+03  7.14549E+03 -5.85349E+03  4.17352E+03 -6.96732E+03 -3.64704E+02 -5.16528E+03 -4.43687E+03
 -2.23962E+03 -5.84779E+03  1.65601E+03 -5.15684E+03  3.80392E+03 -2.83145E+03  3.68798E+03 -1.03077E+02
  1.94285E+03  2.00215E+03  1.99124E+02  1.54950E+03 -1.06813E+03 -2.22866E+02  7.70497E+01 -9.19986E+02
  1.62903E+03 -6.56632E+02  1.81689E+03  6.27879E+02  1.42726E+03  2.37127E+03  4.47030E+02  3.05223E+03
 -2.43392E+03  2.52516E+03 -3.54559E+03  4.03421E+02 -3.71594E+03 -2.73819E+03 -3.80482E+02 -4.56707E+03
  2.48992E+03 -3.86601E+03  3.97430E+03 -9.30388E+02  4.46331E+03  9.37505E+02  2.82720E+03  3.12314E+03
  4.98171E+02  3.66419E+03 -1.45417E+03  3.14414E+03 -2.08972E+03  1.73632E+03 -1.99624E+03  5.80587E+02
 -1.09222E+03 -5.43514E+02 -1.00860E+03  6.57088E+02 -1.69565E+03  4.65501E+02 -2.86360E+03 -6.35744E+02
 -2.84562E+03 -1.64270E+03 -7.12310E+02 -4.01580E+03  2.00931E+03 -4.20947E+03  3.27952E+03 -2.08869E+03
  3.50741E+03  6.83898E+02  1.60711E+03  2.41337E+03 -4.40243E+02  3.68323E+03 -2.68309E+03  2.45772E+03
