 $NMID ID='MM_0lb_SNR800_16hz_g45_65.RAW', FMTDAT='(8E13.5)'
 TRAMP=1., VOLUME=1. $END
  3.10012E+05  5.74437E+02  3.37447E+05  2.50579E+05  8.45681E+04  3.37832E+05 -1.32567E+05  2.50723E+05
 -1.89853E+05  8.26011E+04 -1.11120E+05 -3.27141E+04  8.36836E+02 -5.06307E+04  5.36806E+04 -2.33088E+02
  3.52462E+04  5.27927E+04 -1.64813E+04  7.51632E+04 -6.05382E+04  6.31731E+04 -8.34100E+04  3.17751E+04
 -8.01886E+04 -1.13093E+04 -5.68449E+04 -5.05014E+04 -1.47288E+04 -6.90566E+04  2.70568E+04 -4.53253E+04
  3.96058E+04  3.82665E+03  1.54617E+04  4.75332E+04 -3.42571E+04  4.66020E+04 -6.60361E+04 -3.66956E+02
 -5.25922E+04 -5.63420E+04 -6.53045E+03 -7.59212E+04  3.33977E+04 -5.41470E+04  4.70113E+04 -1.64176E+04
  4.24478E+04  1.09089E+04  3.16526E+04  2.50682E+04  1.56930E+04  2.88813E+04 -5.25872E+03  2.69319E+04
 -2.19433E+04  1.28067E+04 -1.91103E+04 -4.74889E+03  4.96031E+03 -7.34575E+03  2.18091E+04  1.18868E+04
  7.46828E+03  3.42154E+04 -3.15030E+04  3.46673E+04 -6.21716E+04  2.24384E+03 -5.63125E+04 -4.16665E+04
 -1.23981E+04 -6.19507E+04  3.90360E+04 -4.41928E+04  5.64164E+04 -2.28018E+03  3.28676E+04  3.12762E+04
 -6.24777E+03  3.45559E+04 -2.91434E+04  1.47260E+04 -2.88184E+04 -5.10751E+03 -1.55251E+04 -1.06717E+04
 -7.74480E+03 -1.22542E+04 -1.18426E+03 -1.71206E+04  7.07383E+03 -2.28207E+04  1.49894E+04 -1.37923E+04
  1.18930E+04  4.76125E+03 -7.02013E+03  1.31993E+04 -2.02108E+04 -3.42289E+03 -8.02582E+03 -3.18674E+04
  2.16866E+04 -4.18544E+04  4.62464E+04 -1.89455E+04  4.33104E+04  1.87293E+04  1.48155E+04  4.28164E+04
 -1.56861E+04  3.21502E+04 -2.44120E+04  1.27078E+03 -9.14306E+03 -2.70939E+04  2.08373E+04 -3.22215E+04
  3.96345E+04 -8.23869E+03  3.34254E+04  2.30676E+04  1.67063E+04  4.43318E+04 -7.73797E+03  4.72147E+04
 -2.96039E+04  3.17554E+04 -3.96988E+04  8.78219E+03 -4.01555E+04 -1.57250E+04 -2.23025E+04 -3.58857E+04
  6.92317E+03 -3.57228E+04  3.02501E+04 -1.36989E+04  2.79107E+04  1.07272E+04  3.46003E+03  1.84363E+04
 -1.35290E+04  7.79087E+03 -9.79854E+03 -7.60098E+03  5.76460E+03 -1.05485E+04  1.76672E+04  6.45004E+03
  1.27526E+04  2.18325E+04 -6.34943E+03  2.43376E+04 -2.23774E+04  1.01845E+04 -2.61417E+04 -5.49372E+03
 -1.83424E+04 -1.68894E+04 -6.92555E+03 -1.86102E+04  3.60885E+03 -1.69650E+04  1.42454E+04 -1.63589E+04
  2.36308E+04 -1.19894E+04  3.03656E+04  1.70195E+03  2.23261E+04  1.80515E+04  4.47201E+03  3.44187E+04
 -1.67212E+04  2.89768E+04 -2.68142E+04  9.75313E+03 -2.02735E+04 -1.02399E+04 -4.43736E+03 -1.38730E+04
  2.33807E+03 -3.60165E+03 -4.02641E+03  5.79283E+03 -1.44874E+04  5.31710E+03 -1.48409E+04 -5.68239E+03
 -9.51998E+03 -1.70337E+04  4.82713E+03 -2.12498E+04  1.37568E+04 -1.53136E+04  1.64600E+04 -1.46975E+03
  1.00566E+04  1.19509E+04 -9.29973E+02  1.71002E+04 -1.15513E+04  9.77893E+03 -1.72887E+04 -3.73580E+03
 -1.27060E+04 -1.56183E+04 -1.85298E+03 -2.09080E+04  9.48619E+03 -1.68617E+04  1.74513E+04 -8.30203E+03
  1.58055E+04  3.46635E+02  1.15676E+04  3.95567E+03  5.89564E+03  6.82100E+02  8.46323E+03 -1.50283E+03
  1.55490E+04  2.64046E+03  1.69299E+04  1.38441E+04  1.08786E+04  2.73476E+04 -3.01034E+03  3.01460E+04
 -1.76830E+04  2.35276E+04 -2.78667E+04  1.14104E+04 -2.91109E+04 -2.25430E+03 -2.41016E+04 -1.66771E+04
 -1.08738E+04 -2.37120E+04  7.74066E+03 -2.17435E+04  1.88757E+04 -1.17312E+04  1.74364E+04  4.68027E+03
  6.97385E+03  1.27211E+04 -8.18334E+03  1.14483E+04 -1.46964E+04  2.79633E+03 -1.13820E+04 -9.31244E+03
 -5.31613E+02 -1.36717E+04  6.75754E+03 -1.05156E+04  8.95340E+03 -1.35485E+03  1.54155E+03  5.55030E+03
 -5.90016E+03  2.02233E+03 -4.87748E+03 -4.98500E+03  2.06269E+02 -1.17866E+04  8.74336E+03 -1.20049E+04
  1.42877E+04 -5.71787E+03  1.49123E+04  2.85758E+03  1.29208E+04  1.13264E+04  5.87197E+03  1.69540E+04
 -2.40513E+03  1.88119E+04 -1.17359E+04  1.21042E+04 -1.31694E+04  3.23982E+03 -9.83427E+03 -2.78614E+03
 -4.77104E+03 -4.16085E+03 -7.44734E+02  9.95631E+02 -2.08942E+03  2.30547E+03 -4.13750E+03  4.13390E+03
 -8.96238E+03 -6.23315E+02 -9.93583E+03 -8.28376E+03 -4.09831E+03 -1.30143E+04  3.96206E+03 -9.56739E+03
  8.40758E+03 -4.25870E+03  6.10139E+03  2.71786E+03  2.88065E+02  3.76709E+03 -4.16307E+03 -2.33117E+02
 -4.06715E+03 -5.89343E+03 -8.71342E+02 -8.77209E+03  4.85358E+03 -9.59263E+03  1.14472E+04 -4.69300E+03
  1.36029E+04  1.10268E+03  1.06129E+04  7.72329E+03  1.93786E+03  1.03471E+04 -6.02683E+03  9.75948E+03
 -8.02394E+03  3.49953E+03 -4.05738E+03 -1.73754E+03  1.24571E+03 -2.30703E+03  5.22450E+03 -9.65256E+02
  4.67921E+03  3.99978E+03  9.83875E+02  7.58294E+03 -5.42861E+03  7.53205E+03 -9.17520E+03  2.18138E+03
 -5.98941E+03 -4.42134E+03  4.46276E+02 -7.90753E+03  4.74850E+03 -3.89360E+03  4.66527E+03  1.43512E+03
  9.64368E+02  4.42459E+03 -4.85985E+03  5.79763E+03 -6.27596E+03  2.91693E+03 -6.28141E+03 -2.12886E+03
 -3.39168E+03 -7.75930E+03  1.57406E+03 -8.91731E+03  7.83142E+03 -5.86151E+03  8.19485E+03  1.14764E+03
  5.46762E+03  6.29848E+03 -5.44376E+01  8.72386E+03 -6.11919E+03  4.99299E+03 -6.64584E+03 -5.55174E+02
 -6.65682E+03 -6.30085E+03 -1.46309E+03 -6.38728E+03  3.31454E+03 -5.61086E+03  3.69036E+03 -2.96121E+03
  3.31971E+03  4.87952E+02 -2.04222E+02  1.63163E+03  4.37721E+02 -2.98533E+02  4.36437E+02 -2.87822E+03
  5.06511E+03 -1.49758E+03  7.06057E+03  8.52981E+02  7.49534E+03  4.35724E+03  6.03893E+03  9.66789E+03
 -1.93527E+03  1.10571E+04 -9.67588E+03  8.35356E+03 -1.25279E+04  1.36722E+03 -1.00823E+04 -3.63597E+03
 -5.26500E+03 -8.43542E+03 -5.22282E+02 -6.60041E+03  2.61982E+03 -3.20790E+03  2.41967E+03 -2.74180E+03
  1.46181E+03 -1.64726E+03  2.49872E+03 -2.85214E+03  3.71887E+03 -1.85064E+03  4.36129E+03  1.94397E+02
  5.31940E+03  1.53986E+03  2.05508E+03  4.20804E+03 -1.48067E+03  4.56197E+03 -5.51815E+03  3.59951E+03
 -6.61846E+03 -1.05855E+03 -2.71416E+03 -4.75367E+03  2.91498E+02 -7.00420E+03  4.33168E+03 -7.25775E+03
  6.86513E+03 -4.00034E+03  8.82217E+03  7.48555E+02  6.43712E+03  5.71139E+03  1.15070E+03  7.85264E+03
 -2.63750E+03  7.23149E+03 -4.63187E+03  2.64851E+03 -2.96420E+03 -1.19175E+03 -7.43068E+02 -6.00098E+02
 -4.55196E+02  2.65662E+02 -1.11070E+03  2.15196E+03 -3.04437E+03  1.18098E+03 -5.19979E+03 -9.11217E+02
 -2.23757E+03 -5.07399E+03  5.13877E+02 -6.28701E+03  3.69301E+03 -5.82352E+03  5.40442E+03 -1.73871E+03
  5.82302E+03  3.10529E+03  2.71234E+03  5.04657E+03 -1.28587E+03  6.23104E+03 -3.93553E+03  3.52519E+03
 -5.58963E+03  2.84010E+02 -4.63992E+03 -3.35610E+03 -4.18815E+02 -4.37760E+03  2.41819E+03 -3.58224E+03
  3.69864E+03 -1.62188E+03  2.22391E+03  6.59528E+02  9.56101E+02  2.12590E+03  9.54036E+02  8.71276E+02
  1.82245E+03  7.04508E+02  1.42546E+03  1.20039E+03  1.53833E+03  2.94750E+03  1.87760E+03  2.52769E+03
 -1.48535E+03  4.39826E+03 -3.80705E+03  5.35951E+03 -4.84164E+03  1.49581E+03 -5.77160E+03 -1.30482E+03
 -2.52338E+03 -5.40457E+03  8.95352E+02 -6.43929E+03  3.11908E+03 -4.00616E+03  4.44154E+03 -1.03347E+03
  3.46455E+03  2.36078E+03  1.01401E+03  3.28660E+03 -1.30493E+03  1.92059E+03 -1.74637E+03 -2.30210E+02
 -1.07865E+03 -2.19697E+03  1.50100E+03 -2.40333E+03  1.88844E+03 -1.58646E+03  1.93050E+03  7.42725E+02
  1.35442E+03  7.80418E+02  7.30406E+02 -6.57917E+01 -5.82063E+02  1.21029E+03  1.63528E+03 -3.27323E+02
  3.94748E+02 -4.32264E+02  2.52619E+03  1.03519E+03  7.92479E+02  3.07250E+03 -5.13995E+02  3.91841E+03
 -2.36636E+03  2.23563E+03 -3.11818E+03  6.57650E+02 -3.22680E+03 -1.23949E+03 -7.06594E+02 -1.72932E+03
  3.92658E+02 -2.16481E+03  1.37040E+03 -9.14920E+02  8.78358E+02  1.53487E+03 -4.55448E+02  1.55622E+03
 -2.28737E+03  8.55558E+02 -1.88373E+03 -1.67522E+03 -1.24559E+03 -2.97572E+03  2.13452E+02 -2.61087E+03
  9.36557E+02 -1.02184E+03  1.45987E+03  1.31121E+02  2.08607E+03  2.91451E+02  1.53045E+02  1.48404E+03
 -4.25174E+02  2.87188E+02 -1.22622E+03 -4.88847E+02  8.62644E+02 -1.44013E+03  2.68759E+03 -1.42118E+03
  2.29235E+03  1.68809E+02  3.46668E+03  1.78201E+03  1.32307E+03  2.73939E+03 -8.65672E+02  2.67867E+03
 -2.59942E+03  5.67329E+02 -2.38341E+03 -1.82904E+02 -1.31957E+03 -2.18680E+03  3.85258E+02 -1.36060E+03
  2.35599E+03 -1.18083E+03  1.59433E+03  1.05655E+03  4.59832E+02  2.14290E+03  2.01341E+02  1.78952E+03
 -5.55056E+02  1.43951E+03 -5.99796E+02  2.73570E+02  1.15182E+02  5.19777E+02 -8.04192E+02  9.67963E+02
 -8.07977E+02  1.10512E+03 -2.19681E+03  7.72095E+02 -2.90550E+03  1.55349E+02 -3.46911E+03 -1.89717E+03
 -1.60655E+03 -3.57542E+03  8.30573E+02 -4.64350E+03  2.05533E+03 -3.46962E+03  4.15862E+03 -1.23052E+03
  3.87356E+03  9.97130E+01  2.08484E+03  2.64227E+03 -3.33004E+02  2.57323E+03 -9.87396E+02  2.26354E+03
 -1.46297E+03  1.04066E+03 -9.19241E+02 -5.45864E+02 -4.84025E+02  1.22788E+02 -6.03924E+02 -1.62946E+02
 -9.86383E+02 -3.23568E+02 -1.14069E+03  7.39059E+01  1.21081E+02 -8.93957E+02 -3.66965E+02 -1.57567E+03
  1.75308E+03 -1.03603E+03  1.32872E+03 -2.82952E+02  2.24149E+03  1.43562E+03 -2.13013E+02  2.59314E+03
 -1.39792E+03  3.34311E+03 -2.91752E+03  2.00015E+03 -3.12704E+03 -5.64053E+01 -2.08318E+03 -1.97405E+03
 -1.28391E+03 -2.29002E+03  3.88121E+02 -2.40255E+03  1.32016E+03 -1.27103E+03  1.33575E+03  3.55019E+02
  9.44161E+02  2.09792E+02  8.66677E+01  9.31204E+02 -4.76401E+02 -2.61111E+02 -1.55176E+02 -3.46027E+02
  6.76457E+02 -3.40013E+02  7.49072E+02  6.49023E+02  5.85613E+02  9.12939E+02  5.70495E+02  7.34724E+02
 -1.16799E+03  8.53858E+02 -1.13228E+03  2.47630E+02 -1.37290E+03 -9.93081E+02 -7.16074E+01 -2.03535E+03
  1.10449E+03 -1.23255E+03  1.55736E+03 -1.86889E+02  2.07520E+03 -5.12830E+02  9.57073E+02  1.36247E+03
  4.19986E+02  1.33363E+03 -6.54356E+02  9.44910E+02 -8.25957E+02  8.98356E+02 -8.72682E+02 -1.16679E+02
 -3.79789E+02 -3.77072E+02 -5.74069E+02  4.68245E+01 -9.68472E+02  1.19159E+02 -1.32877E+03 -3.57189E+02
 -1.38054E+03 -1.56924E+02 -3.76606E+02 -1.46090E+03  1.21450E+03 -2.20303E+03  1.35492E+03 -6.48987E+02
  1.36878E+03 -7.57992E+01  7.73904E+01  5.92863E+02 -1.27489E+02  1.46305E+03 -8.59723E+02  1.10076E+03
