 $NMID ID='MM_0lb_SNR800_17hz_g45_10.RAW', FMTDAT='(8E13.5)'
 TRAMP=1., VOLUME=1. $END
  3.09770E+05  2.94635E+02  3.37359E+05  2.50235E+05  8.44883E+04  3.37398E+05 -1.32377E+05  2.50450E+05
 -1.89769E+05  8.27620E+04 -1.11192E+05 -3.27178E+04  1.15286E+03 -5.03315E+04  5.37027E+04  1.43941E+02
  3.54142E+04  5.28974E+04 -1.69797E+04  7.50971E+04 -6.06858E+04  6.29274E+04 -8.34203E+04  3.15319E+04
 -8.00078E+04 -1.11290E+04 -5.65703E+04 -5.04268E+04 -1.49696E+04 -6.85867E+04  2.67705E+04 -4.50784E+04
  3.92669E+04  3.98449E+03  1.57223E+04  4.69332E+04 -3.40479E+04  4.61734E+04 -6.57205E+04 -5.98792E+02
 -5.23900E+04 -5.62194E+04 -6.44091E+03 -7.58199E+04  3.33036E+04 -5.37621E+04  4.66340E+04 -1.64408E+04
  4.19530E+04  1.10447E+04  3.10605E+04  2.44463E+04  1.57969E+04  2.85191E+04 -4.91028E+03  2.69259E+04
 -2.16435E+04  1.25860E+04 -1.90831E+04 -4.48011E+03  4.73026E+03 -7.38448E+03  2.16827E+04  1.10299E+04
  7.40280E+03  3.37049E+04 -3.07408E+04  3.45201E+04 -6.16347E+04  2.08508E+03 -5.58300E+04 -4.18178E+04
 -1.23988E+04 -6.13074E+04  3.85409E+04 -4.38678E+04  5.62091E+04 -1.89003E+03  3.24083E+04  3.10570E+04
 -6.62470E+03  3.37278E+04 -2.87348E+04  1.42746E+04 -2.84243E+04 -4.90417E+03 -1.48938E+04 -1.04006E+04
 -7.44096E+03 -1.17658E+04 -1.05131E+03 -1.71471E+04  6.50746E+03 -2.26870E+04  1.49864E+04 -1.35903E+04
  1.21428E+04  4.36695E+03 -6.78733E+03  1.30312E+04 -2.00907E+04 -3.04508E+03 -8.19015E+03 -3.13117E+04
  2.12355E+04 -4.11075E+04  4.55515E+04 -1.90009E+04  4.27066E+04  1.84203E+04  1.45473E+04  4.24284E+04
 -1.54276E+04  3.17400E+04 -2.39719E+04  1.09536E+03 -8.73672E+03 -2.66658E+04  2.06340E+04 -3.18570E+04
  3.89246E+04 -7.88413E+03  3.25241E+04  2.29299E+04  1.61672E+04  4.37473E+04 -7.88728E+03  4.63879E+04
 -2.94539E+04  3.07636E+04 -3.87510E+04  8.63866E+03 -3.92110E+04 -1.56497E+04 -2.19099E+04 -3.56642E+04
  6.96267E+03 -3.51245E+04  3.00706E+04 -1.31984E+04  2.75220E+04  1.08242E+04  3.44711E+03  1.81608E+04
 -1.29259E+04  7.64616E+03 -9.86510E+03 -7.64559E+03  6.05719E+03 -1.03226E+04  1.73562E+04  6.35061E+03
  1.25452E+04  2.16844E+04 -6.72075E+03  2.37553E+04 -2.20080E+04  9.45605E+03 -2.59343E+04 -6.03993E+03
 -1.76968E+04 -1.67544E+04 -6.40152E+03 -1.77568E+04  3.65863E+03 -1.60194E+04  1.31544E+04 -1.53960E+04
  2.24305E+04 -1.17912E+04  2.93914E+04  1.64151E+03  2.19072E+04  1.73252E+04  4.06917E+03  3.33453E+04
 -1.67953E+04  2.82361E+04 -2.62738E+04  9.60764E+03 -2.02723E+04 -1.02245E+04 -3.84045E+03 -1.35894E+04
  2.45123E+03 -3.84264E+03 -3.23343E+03  5.74387E+03 -1.36947E+04  5.23601E+03 -1.42093E+04 -5.55460E+03
 -8.80949E+03 -1.64051E+04  4.52730E+03 -2.02313E+04  1.33301E+04 -1.46608E+04  1.53589E+04 -1.34158E+03
  9.71054E+03  1.16153E+04 -9.77767E+02  1.64371E+04 -1.09441E+04  9.16626E+03 -1.64096E+04 -3.90072E+03
 -1.19567E+04 -1.50687E+04 -1.51839E+03 -2.01571E+04  9.42821E+03 -1.63595E+04  1.69925E+04 -7.71703E+03
  1.53575E+04  8.97153E+02  1.09929E+04  3.93927E+03  5.45298E+03  5.92931E+02  7.91109E+03 -1.66214E+03
  1.49287E+04  2.51938E+03  1.57650E+04  1.33152E+04  9.88953E+03  2.61985E+04 -3.33628E+03  2.85694E+04
 -1.69108E+04  2.23910E+04 -2.61210E+04  1.07284E+04 -2.68382E+04 -1.67545E+03 -2.29379E+04 -1.55687E+04
 -1.05837E+04 -2.22632E+04  7.72890E+03 -2.04861E+04  1.76247E+04 -1.15844E+04  1.64638E+04  4.27081E+03
  6.73411E+03  1.20788E+04 -7.48852E+03  1.08060E+04 -1.38122E+04  2.44762E+03 -1.11406E+04 -8.43036E+03
  1.46488E+02 -1.28924E+04  6.51269E+03 -9.81583E+03  8.39860E+03 -1.18282E+03  1.40993E+03  5.41403E+03
 -5.70396E+03  1.72851E+03 -4.18291E+03 -4.88182E+03  2.72237E+02 -1.11632E+04  8.38370E+03 -1.10812E+04
  1.35369E+04 -5.65950E+03  1.35608E+04  2.79483E+03  1.18849E+04  1.06026E+04  5.42367E+03  1.58169E+04
 -1.82584E+03  1.74792E+04 -1.08214E+04  1.10490E+04 -1.24182E+04  3.27179E+03 -9.10916E+03 -2.32070E+03
 -4.76882E+03 -3.70107E+03 -9.57546E+02  1.44380E+03 -2.35371E+03  2.02728E+03 -4.24502E+03  3.79768E+03
 -8.50873E+03 -6.41208E+02 -9.48228E+03 -7.88671E+03 -3.70138E+03 -1.23940E+04  3.69258E+03 -9.15227E+03
  7.88039E+03 -4.22059E+03  5.45581E+03  2.37763E+03  2.84071E+02  3.36190E+03 -4.06606E+03 -5.79712E+01
 -3.50970E+03 -5.67349E+03 -8.12215E+02 -7.95591E+03  4.27728E+03 -8.82751E+03  1.11083E+04 -4.51587E+03
  1.30802E+04  6.66787E+02  9.66264E+03  6.91574E+03  1.90209E+03  9.80627E+03 -5.68616E+03  8.88170E+03
 -7.47974E+03  2.92169E+03 -3.76304E+03 -1.22826E+03  1.41650E+03 -1.99109E+03  5.03273E+03 -1.10320E+03
  4.37233E+03  3.66042E+03  9.66698E+02  6.82988E+03 -4.74875E+03  6.74636E+03 -8.75079E+03  1.95219E+03
 -5.58040E+03 -4.35016E+03  2.02589E+01 -7.32758E+03  4.15991E+03 -3.58999E+03  4.16746E+03  1.19954E+03
  7.49353E+02  3.85868E+03 -4.65540E+03  5.45987E+03 -5.99963E+03  2.53014E+03 -5.55913E+03 -1.61786E+03
 -3.24302E+03 -7.00505E+03  1.28510E+03 -8.22325E+03  6.61080E+03 -5.24025E+03  7.42713E+03  1.12041E+03
  5.08764E+03  6.16394E+03 -1.03800E+02  7.87770E+03 -5.71927E+03  4.37255E+03 -5.87524E+03 -4.73601E+02
 -5.98782E+03 -5.63964E+03 -1.50141E+03 -5.49195E+03  2.72011E+03 -5.30912E+03  3.18339E+03 -2.69924E+03
  2.85820E+03  3.29651E+02 -1.29634E+02  1.46327E+03  3.86133E+02 -4.75502E+02  2.18514E+02 -2.35933E+03
  4.58876E+03 -1.09134E+03  6.24165E+03  8.07705E+02  6.62283E+03  3.87092E+03  5.49148E+03  8.66034E+03
 -1.63638E+03  1.00327E+04 -8.81584E+03  7.72169E+03 -1.08837E+04  1.26952E+03 -8.88069E+03 -3.12213E+03
 -5.23763E+03 -7.67209E+03 -4.71988E+02 -6.10222E+03  2.36573E+03 -2.51124E+03  2.06479E+03 -2.64961E+03
  1.30871E+03 -1.70371E+03  2.29945E+03 -2.54197E+03  4.00389E+03 -1.41427E+03  4.11656E+03  4.19523E+02
  5.14416E+03  1.32993E+03  1.37139E+03  3.95475E+03 -1.73944E+03  3.66592E+03 -5.04229E+03  2.98279E+03
 -5.98334E+03 -1.19210E+03 -2.33753E+03 -3.91626E+03  3.83349E+02 -5.79832E+03  3.31238E+03 -6.11062E+03
  6.12358E+03 -3.64917E+03  8.13161E+03  1.19808E+02  5.64091E+03  5.06299E+03  1.11181E+03  7.12763E+03
 -2.60628E+03  6.47668E+03 -3.80141E+03  2.28714E+03 -2.37247E+03 -1.12702E+03 -9.44864E+02 -9.81938E+02
 -4.78993E+02  4.61600E+02 -8.12495E+02  2.04018E+03 -2.82660E+03  1.23597E+03 -4.28191E+03 -2.36511E+02
 -1.94612E+03 -4.75132E+03  1.04583E+03 -5.38947E+03  3.19539E+03 -5.26528E+03  4.42882E+03 -1.50388E+03
  5.12261E+03  2.74953E+03  2.28597E+03  4.10144E+03 -1.22119E+03  5.22967E+03 -3.40128E+03  3.11173E+03
 -4.99718E+03  8.40281E+02 -3.94568E+03 -3.10747E+03 -5.19760E+01 -3.87890E+03  1.94598E+03 -2.94877E+03
  3.22494E+03 -1.46761E+03  2.17759E+03  5.01831E+02  8.77891E+02  1.87154E+03  8.07723E+02  5.66198E+02
  1.91728E+03  6.12496E+02  1.11768E+03  8.69935E+02  1.15336E+03  2.28194E+03  1.85775E+03  2.01253E+03
 -1.29750E+03  3.44313E+03 -2.90618E+03  4.45081E+03 -4.32707E+03  1.41625E+03 -4.93249E+03 -8.28964E+02
 -2.17545E+03 -4.44962E+03  7.41236E+02 -5.59764E+03  2.48836E+03 -2.91574E+03  3.75383E+03 -1.10318E+03
  2.95707E+03  2.15725E+03  6.82576E+02  2.68791E+03 -1.07389E+03  1.66751E+03 -1.63072E+03 -1.31024E+02
 -7.99533E+02 -2.02455E+03  1.55217E+03 -1.89000E+03  1.70888E+03 -1.39819E+03  1.55090E+03  5.31127E+02
  9.12074E+02  6.32774E+02  1.01224E+03 -1.41599E+01 -3.95675E+02  9.47868E+02  1.32719E+03 -3.44764E+02
  2.18600E+02 -4.55302E+02  2.24609E+03  8.18690E+02  5.70505E+02  2.71691E+03 -4.86700E+02  3.45039E+03
 -2.06555E+03  1.55981E+03 -2.75123E+03  2.13206E+02 -2.63760E+03 -1.07870E+03 -5.56576E+02 -1.39807E+03
  2.29373E+02 -1.90269E+03  1.12788E+03 -8.79430E+02  5.81784E+02  1.52487E+03 -5.23720E+02  1.47412E+03
 -2.26516E+03  7.47078E+02 -1.53097E+03 -1.61624E+03 -1.00703E+03 -2.35967E+03  1.03279E+02 -2.00636E+03
  7.54266E+02 -7.26755E+02  7.59345E+02  4.93352E+00  1.50351E+03  9.99260E+01  2.64837E+02  1.21975E+03
 -5.84024E+02  3.04244E+02 -9.76655E+02 -5.09517E+02  7.92502E+02 -1.30368E+03  1.98615E+03 -1.53555E+03
  1.78899E+03  3.04266E+02  3.39067E+03  1.27450E+03  1.12958E+03  2.14196E+03 -4.63194E+02  2.35634E+03
 -2.14170E+03  6.62084E+02 -2.29596E+03 -3.64429E+02 -1.38682E+03 -1.67619E+03  2.17114E+02 -9.65775E+02
  2.13124E+03 -6.09558E+02  9.28058E+02  1.00050E+03  1.79997E+02  1.44603E+03  2.75923E+02  1.27534E+03
 -4.79401E+02  1.35615E+03 -4.46453E+02  9.30178E+01 -2.72773E+02  4.95147E+02 -9.47205E+02  7.38068E+02
 -8.62095E+02  1.34732E+03 -2.01023E+03  8.11659E+02 -2.25194E+03  3.57162E+02 -3.12194E+03 -1.09899E+03
 -1.59971E+03 -3.09109E+03  4.75947E+02 -3.69707E+03  1.25822E+03 -3.17844E+03  3.69605E+03 -1.37369E+03
  3.14758E+03  1.15022E+02  1.56082E+03  2.06888E+03 -1.46616E+02  2.18096E+03 -9.15181E+02  1.95817E+03
 -1.28634E+03  8.15867E+02 -8.75616E+02 -4.69031E+02 -2.88315E+02  2.50560E+02 -4.75198E+02 -2.05638E+02
 -1.00550E+03 -3.51215E+02 -1.02932E+03  3.42282E+01 -6.30001E+00 -5.17014E+02 -4.11418E+02 -1.22125E+03
  1.44047E+03 -9.68907E+02  5.62428E+02  5.08326E+02  1.79906E+03  1.12082E+03 -3.03854E+02  1.91266E+03
 -1.31218E+03  2.91341E+03 -2.15530E+03  1.63929E+03 -2.36829E+03 -4.31043E+02 -2.01783E+03 -1.69226E+03
 -1.17824E+03 -1.82134E+03  6.90614E+02 -1.87447E+03  7.74774E+02 -9.99957E+02  1.13140E+03  1.72692E+02
  1.06095E+03  5.33942E+02  2.29163E+01  3.17815E+02 -6.72210E+02  5.10446E+01 -2.58496E+02 -4.09604E+02
  6.55778E+02  4.83759E+01  3.07551E+02  7.82882E+02  2.30197E+02  6.64842E+02  1.14484E+02  4.75298E+02
 -7.22148E+02  8.59361E+02 -8.81982E+02  1.25262E+02 -1.11658E+03 -6.92357E+02  1.65390E+01 -1.37160E+03
  9.86211E+02 -9.45518E+02  1.42633E+03 -2.06218E+02  1.56262E+03 -5.08326E+02  4.83380E+02  1.42545E+03
  2.72231E+02  5.80704E+02 -3.01641E+02  7.13519E+02 -6.66022E+02  8.93099E+02 -7.30901E+02 -1.35719E+02
 -1.52394E+02  1.73392E+02 -5.77308E+02  1.64224E+02 -1.01721E+03  4.11877E+02 -1.14526E+03 -4.76144E+02
 -1.51351E+03 -1.02492E+02 -3.60273E+02 -1.38946E+03  5.20928E+02 -1.80122E+03  8.95350E+02 -5.04672E+02
  1.17723E+03  2.53535E+02 -2.63646E+02  5.89383E+02 -4.57553E+01  1.18821E+03 -5.12858E+02  8.98495E+02
