 $NMID ID='MM_0lb_SNR800_19hz_g45_60.RAW', FMTDAT='(8E13.5)'
 TRAMP=1., VOLUME=1. $END
  3.09931E+05  3.83525E+02  3.37231E+05  2.50156E+05  8.44347E+04  3.37132E+05 -1.32346E+05  2.50064E+05
 -1.89899E+05  8.23324E+04 -1.10869E+05 -3.28380E+04  1.32137E+03 -5.00207E+04  5.40674E+04  1.86984E+02
  3.48822E+04  5.28304E+04 -1.69612E+04  7.48072E+04 -6.01017E+04  6.24800E+04 -8.28951E+04  3.15244E+04
 -7.96751E+04 -1.11266E+04 -5.61195E+04 -4.97208E+04 -1.48630E+04 -6.78830E+04  2.65445E+04 -4.46301E+04
  3.87899E+04  3.74085E+03  1.57275E+04  4.68928E+04 -3.38673E+04  4.60252E+04 -6.51327E+04 -6.42022E+02
 -5.16318E+04 -5.58091E+04 -6.15568E+03 -7.47299E+04  3.29466E+04 -5.28233E+04  4.59479E+04 -1.58455E+04
  4.15654E+04  1.11326E+04  3.04801E+04  2.40880E+04  1.58047E+04  2.78540E+04 -4.67763E+03  2.66038E+04
 -2.16316E+04  1.27630E+04 -1.91773E+04 -3.94026E+03  4.20757E+03 -7.37017E+03  2.08922E+04  1.11802E+04
  7.25607E+03  3.29940E+04 -3.03360E+04  3.37550E+04 -6.07661E+04  2.13128E+03 -5.51173E+04 -4.11498E+04
 -1.22166E+04 -6.03894E+04  3.79332E+04 -4.30153E+04  5.51595E+04 -2.13178E+03  3.14664E+04  3.03105E+04
 -6.64971E+03  3.27443E+04 -2.82560E+04  1.31416E+04 -2.69632E+04 -5.53523E+03 -1.40550E+04 -9.86631E+03
 -7.46574E+03 -1.09215E+04 -8.75438E+02 -1.63986E+04  6.73488E+03 -2.24878E+04  1.50452E+04 -1.42666E+04
  1.25413E+04  3.93582E+03 -5.58485E+03  1.29874E+04 -1.92213E+04 -2.14107E+03 -8.20468E+03 -2.97672E+04
  2.06218E+04 -3.99931E+04  4.41513E+04 -1.84666E+04  4.16368E+04  1.79908E+04  1.39834E+04  4.16459E+04
 -1.52258E+04  3.06676E+04 -2.32200E+04  9.34105E+02 -7.98013E+03 -2.60161E+04  2.05280E+04 -3.06904E+04
  3.78093E+04 -7.02296E+03  3.09415E+04  2.28337E+04  1.51800E+04  4.22257E+04 -7.45521E+03  4.44147E+04
 -2.78160E+04  2.94306E+04 -3.65677E+04  7.98945E+03 -3.78530E+04 -1.49875E+04 -2.08867E+04 -3.38758E+04
  6.74044E+03 -3.35608E+04  2.89231E+04 -1.21950E+04  2.65770E+04  1.05522E+04  2.85404E+03  1.74485E+04
 -1.30906E+04  6.79233E+03 -9.69945E+03 -7.85550E+03  6.12639E+03 -9.85427E+03  1.73065E+04  6.53085E+03
  1.22673E+04  2.15428E+04 -6.92075E+03  2.30103E+04 -2.15002E+04  8.72067E+03 -2.45584E+04 -6.27915E+03
 -1.60033E+04 -1.64182E+04 -5.39512E+03 -1.60292E+04  3.73480E+03 -1.40946E+04  1.20162E+04 -1.39346E+04
  2.06788E+04 -1.15544E+04  2.73586E+04  1.14762E+03  2.11384E+04  1.58944E+04  3.90218E+03  3.19645E+04
 -1.60698E+04  2.72284E+04 -2.55273E+04  9.36349E+03 -1.95351E+04 -1.03175E+04 -3.94259E+03 -1.40875E+04
  2.73267E+03 -4.56527E+03 -2.56493E+03  5.25456E+03 -1.26722E+04  5.27895E+03 -1.28360E+04 -4.59638E+03
 -8.38764E+03 -1.49300E+04  4.45862E+03 -1.87250E+04  1.18915E+04 -1.37453E+04  1.41222E+04 -1.34477E+03
  8.50370E+03  1.02901E+04 -1.02223E+03  1.49313E+04 -9.93101E+03  8.30391E+03 -1.51630E+04 -3.31880E+03
 -1.13888E+04 -1.35702E+04 -1.61752E+03 -1.84106E+04  8.36821E+03 -1.50659E+04  1.58102E+04 -7.13777E+03
  1.38508E+04  6.90090E+02  1.02233E+04  3.86529E+03  5.10861E+03  5.03472E+02  7.57264E+03 -1.37128E+03
  1.32686E+04  2.63468E+03  1.39396E+04  1.22771E+04  8.53575E+03  2.40739E+04 -3.20647E+03  2.55150E+04
 -1.51375E+04  1.93051E+04 -2.36068E+04  9.12001E+03 -2.40322E+04 -1.67969E+03 -2.03930E+04 -1.34526E+04
 -1.02332E+04 -1.96805E+04  6.61054E+03 -1.82319E+04  1.60638E+04 -1.08208E+04  1.49795E+04  3.36605E+03
  6.68836E+03  1.08251E+04 -6.83272E+03  1.00835E+04 -1.29633E+04  2.59310E+03 -1.01003E+04 -7.63342E+03
  1.06530E+02 -1.20709E+04  6.05901E+03 -9.14428E+03  7.71761E+03 -1.34080E+03  1.29243E+03  4.78379E+03
 -5.46560E+03  1.24508E+03 -3.53587E+03 -4.57094E+03  8.45202E+02 -9.45479E+03  7.54839E+03 -9.38422E+03
  1.17715E+04 -4.39451E+03  1.11283E+04  2.63385E+03  9.69467E+03  8.98467E+03  4.69194E+03  1.32776E+04
 -1.54827E+03  1.52168E+04 -8.87834E+03  9.48603E+03 -1.08755E+04  3.18376E+03 -8.10757E+03 -1.88250E+03
 -4.18420E+03 -3.04230E+03 -8.50012E+02  1.57201E+03 -1.87960E+03  1.95303E+03 -3.36401E+03  3.53775E+03
 -7.88629E+03 -3.87963E+02 -8.46737E+03 -6.79330E+03 -3.29510E+03 -1.12550E+04  3.05376E+03 -8.02990E+03
  7.00008E+03 -3.86325E+03  5.31832E+03  2.16760E+03  4.66254E+02  3.03700E+03 -2.93502E+03 -2.41494E+02
 -3.37342E+03 -4.76158E+03 -6.91826E+02 -6.74519E+03  3.56675E+03 -7.54260E+03  9.37348E+03 -3.62491E+03
  1.12088E+04  7.49870E+02  8.32245E+03  5.82590E+03  1.58023E+03  8.12266E+03 -4.83234E+03  7.91649E+03
 -6.80382E+03  2.87174E+03 -3.29882E+03 -1.34015E+03  1.10134E+03 -1.80660E+03  4.88193E+03 -8.99014E+02
  3.69875E+03  3.32842E+03  9.69082E+02  6.21282E+03 -4.32466E+03  6.21434E+03 -7.73176E+03  2.10998E+03
 -4.63601E+03 -3.71049E+03  5.84296E+02 -6.42036E+03  3.44750E+03 -3.26488E+03  3.13221E+03  7.61225E+02
  3.87285E+02  3.12570E+03 -4.03991E+03  4.58352E+03 -4.47369E+03  2.45775E+03 -4.00085E+03 -9.85847E+02
 -2.57979E+03 -5.62000E+03  9.26438E+02 -6.25394E+03  5.57302E+03 -4.24325E+03  6.08836E+03  8.31958E+02
  4.08756E+03  4.96430E+03 -1.82501E+02  6.83345E+03 -4.52674E+03  3.87853E+03 -4.92733E+03 -3.52638E+02
 -5.52832E+03 -4.88374E+03 -1.40570E+03 -4.81379E+03  2.26663E+03 -4.28327E+03  2.89672E+03 -2.91167E+03
  2.98883E+03  1.29180E+02  5.40375E+01  1.16767E+03  5.16205E+02  1.50032E+02  2.30258E+01 -1.51380E+03
  3.35960E+03 -7.66127E+02  4.86963E+03  7.99181E+02  5.16007E+03  2.77822E+03  5.05414E+03  6.67653E+03
 -1.37391E+03  7.76266E+03 -6.91090E+03  5.78161E+03 -9.23869E+03  1.33931E+03 -7.33981E+03 -2.66489E+03
 -4.02256E+03 -5.99878E+03 -4.66159E+02 -4.67760E+03  1.83576E+03 -2.01842E+03  1.31259E+03 -2.12384E+03
  1.07004E+03 -1.29865E+03  2.25694E+03 -2.49428E+03  3.50446E+03 -1.41246E+03  3.59705E+03  5.64640E+02
  4.22380E+03  9.48980E+02  9.06926E+02  3.35423E+03 -1.36413E+03  2.59649E+03 -4.10995E+03  2.31837E+03
 -4.76478E+03 -9.85422E+02 -1.53238E+03 -2.94707E+03  5.46471E+02 -4.60464E+03  3.19226E+03 -4.94579E+03
  4.85827E+03 -3.17263E+03  6.04895E+03  7.16222E+01  4.67120E+03  4.00175E+03  8.30485E+02  5.50863E+03
 -1.88969E+03  5.41409E+03 -3.30516E+03  1.75030E+03 -1.56751E+03 -7.57505E+02 -3.82102E+02 -3.56658E+02
 -6.93771E+02  2.56287E+02 -6.51494E+02  1.98405E+03 -2.17258E+03  8.22863E+02 -4.15932E+03 -1.31713E+02
 -1.48355E+03 -3.87066E+03  7.47649E+02 -4.26870E+03  2.54265E+03 -4.14784E+03  3.35242E+03 -1.10069E+03
  3.77254E+03  2.08298E+03  1.60424E+03  2.76205E+03 -7.31442E+02  4.06302E+03 -2.45494E+03  2.68855E+03
 -3.36968E+03  6.00778E+02 -3.08472E+03 -2.37203E+03 -1.36216E+01 -2.86395E+03  1.60532E+03 -2.48700E+03
  2.33154E+03 -1.47285E+03  1.54593E+03  3.83448E+02  3.45812E+02  1.78240E+03  7.59336E+02  5.59053E+02
  1.61221E+03  6.14773E+02  1.06568E+03  9.10005E+02  1.07972E+03  2.25275E+03  1.33917E+03  1.59832E+03
 -1.20840E+03  2.99220E+03 -2.27190E+03  3.63262E+03 -2.50575E+03  1.19033E+03 -3.82967E+03 -4.20891E+02
 -1.61369E+03 -3.24538E+03  4.13703E+02 -4.46918E+03  1.65562E+03 -2.24304E+03  2.97722E+03 -7.47033E+02
  2.35504E+03  1.47636E+03  4.70099E+02  2.16603E+03 -6.59980E+02  1.24357E+03 -6.89961E+02 -1.26391E+02
 -8.04756E+02 -1.45939E+03  9.25198E+02 -1.30827E+03  1.22259E+03 -9.03862E+02  1.42646E+03  3.61222E+02
  8.72680E+02  1.96226E+02  9.53431E+02 -2.78228E+02 -2.03496E+02  7.79040E+02  1.32947E+03 -1.96659E+02
  4.41932E+01 -3.25305E+02  1.78104E+03  2.98291E+02  3.17537E+02  2.43131E+03 -2.98504E+02  2.60439E+03
 -1.41309E+03  1.04518E+03 -1.88502E+03  2.07618E+02 -1.78564E+03 -5.72911E+02 -5.22551E+01 -9.42968E+02
  4.32526E+02 -1.20815E+03  5.41873E+02 -5.11570E+02  3.57524E+02  1.33799E+03 -3.79765E+02  1.31628E+03
 -1.71482E+03  7.45414E+02 -1.13291E+03 -1.05021E+03 -5.91289E+02 -2.06974E+03  1.86661E+02 -1.28888E+03
  2.62549E+02 -5.51910E+02  4.53527E+02  1.87177E+02  1.18732E+03 -1.95230E+02  1.76615E+02  1.17779E+03
 -1.72351E+02  2.38670E+02 -1.13132E+03 -2.66790E+02  6.61727E+02 -7.28940E+02  1.60821E+03 -6.67169E+02
  1.11277E+03  2.82164E+01  2.71243E+03  3.61559E+02  9.02375E+02  1.41235E+03 -3.52226E+02  1.60974E+03
 -1.06001E+03  1.08349E+02 -1.32710E+03  6.84425E+01 -9.53421E+02 -1.21483E+03  4.30973E+02 -5.65926E+02
  1.31741E+03 -7.61276E+02  5.14008E+02  7.60318E+02  1.24374E+02  9.91561E+02  1.60073E+02  1.03861E+03
 -4.92136E+02  8.46110E+02 -2.46729E+02  1.69309E+02  1.84418E+01  4.23335E+02 -6.03328E+02  5.68830E+02
 -7.37697E+02  1.05455E+03 -1.73838E+03  6.25768E+02 -1.66248E+03  9.31249E+01 -2.15717E+03 -1.03011E+03
 -1.02387E+03 -1.89943E+03  3.84617E+02 -2.50084E+03  7.65389E+02 -2.18415E+03  2.40992E+03 -1.00341E+03
  1.86893E+03 -3.25328E+02  7.76897E+02  1.27814E+03 -4.58559E+02  1.35917E+03 -5.22330E+02  1.14888E+03
 -1.02456E+03  4.69405E+02 -4.98104E+02 -8.99288E+01 -3.35426E+02  1.63422E+02 -8.07889E+02 -3.57636E+01
 -1.15236E+03 -7.71660E+01 -9.18313E+02  5.32045E+01  1.65233E+02 -5.00871E+02 -1.72268E+02 -6.71501E+02
  1.03527E+03 -4.10555E+02  4.00473E+02  1.75258E+02  1.17232E+03  7.49277E+02 -4.37319E+02  1.33004E+03
 -8.20709E+02  2.11669E+03 -1.33559E+03  8.69765E+02 -1.42997E+03 -1.84620E+02 -8.74013E+02 -1.12330E+03
 -7.95605E+02 -1.17900E+03  1.93283E+02 -1.10806E+03  5.31239E+02 -5.36796E+02  6.18263E+02  2.77707E+02
  6.32323E+02  1.89992E+02  1.53663E+02  3.37864E+02 -1.91977E+02 -6.80519E+01 -9.09946E+01 -9.29148E+01
  8.68274E+01  2.78291E+02  4.32573E+02  1.01719E+02 -3.78830E+01  5.40081E+02  2.26820E+02  4.87988E+02
 -7.29069E+02  7.43430E+02 -2.39597E+02  2.66001E+02 -6.99123E+02 -3.24545E+02  1.98747E+01 -1.04436E+03
  5.40828E+02 -4.96591E+02  2.76920E+02  4.30846E+01  9.85231E+02 -6.62859E+02  5.55362E+02  7.89012E+02
  6.21033E+02  5.21245E+02 -9.34127E+01  5.11236E+02 -3.50036E+02  5.36121E+02 -5.12935E+02  5.58898E+01
 -1.58853E+02 -3.90286E+02 -4.25100E+02 -1.01972E+02 -8.74732E+02 -2.30922E+02 -9.34747E+02 -1.47850E+02
 -1.17874E+03  3.75786E+02 -2.63715E+02 -9.28820E+02  4.49351E+02 -1.20269E+03  6.77486E+02 -6.40764E+01
  7.30166E+02  1.62600E+02 -1.84951E+02  2.31246E+02  3.41388E+01  9.69625E+02 -4.83107E+02  5.34794E+02
