 $NMID ID='MM_0lb_SNR800_16hz_g40_39.RAW', FMTDAT='(8E13.5)'
 TRAMP=1., VOLUME=1. $END
  3.09923E+05  6.24121E+02  3.37316E+05  2.50403E+05  8.48307E+04  3.37562E+05 -1.32445E+05  2.50408E+05
 -1.89750E+05  8.26041E+04 -1.11234E+05 -3.26739E+04  1.19146E+03 -5.04896E+04  5.40560E+04  2.15666E+00
  3.54391E+04  5.29355E+04 -1.69432E+04  7.52153E+04 -6.05536E+04  6.26475E+04 -8.34576E+04  3.17147E+04
 -8.02396E+04 -1.11249E+04 -5.65306E+04 -5.03267E+04 -1.50410E+04 -6.87512E+04  2.66989E+04 -4.51380E+04
  3.92481E+04  3.98750E+03  1.54944E+04  4.71672E+04 -3.37408E+04  4.66551E+04 -6.58154E+04 -5.75420E+02
 -5.25648E+04 -5.58526E+04 -6.38980E+03 -7.57222E+04  3.34300E+04 -5.36887E+04  4.66520E+04 -1.62850E+04
  4.23077E+04  1.13837E+04  3.08732E+04  2.49841E+04  1.56934E+04  2.84767E+04 -4.66063E+03  2.68333E+04
 -2.19223E+04  1.28263E+04 -1.91007E+04 -4.52985E+03  4.71902E+03 -7.52012E+03  2.14525E+04  1.14221E+04
  7.23964E+03  3.38721E+04 -3.06935E+04  3.45795E+04 -6.18329E+04  2.31427E+03 -5.58459E+04 -4.16779E+04
 -1.24314E+04 -6.17923E+04  3.86368E+04 -4.41109E+04  5.62491E+04 -2.32619E+03  3.24963E+04  3.13145E+04
 -6.52486E+03  3.41029E+04 -2.89816E+04  1.44040E+04 -2.83742E+04 -4.94651E+03 -1.48446E+04 -1.03775E+04
 -7.76156E+03 -1.21332E+04 -9.08657E+02 -1.69855E+04  6.88673E+03 -2.26378E+04  1.51830E+04 -1.35202E+04
  1.19311E+04  4.82140E+03 -6.87632E+03  1.29365E+04 -1.97674E+04 -3.28900E+03 -7.91267E+03 -3.14820E+04
  2.12630E+04 -4.14739E+04  4.59878E+04 -1.88655E+04  4.28896E+04  1.87530E+04  1.44972E+04  4.22213E+04
 -1.53680E+04  3.18980E+04 -2.42904E+04  1.42217E+03 -8.71452E+03 -2.66059E+04  2.08310E+04 -3.21623E+04
  3.90387E+04 -7.83920E+03  3.29938E+04  2.33317E+04  1.60584E+04  4.39220E+04 -7.92968E+03  4.66971E+04
 -2.94381E+04  3.10737E+04 -3.89086E+04  8.92106E+03 -3.99910E+04 -1.56285E+04 -2.19454E+04 -3.56074E+04
  7.39152E+03 -3.52132E+04  2.98046E+04 -1.32318E+04  2.75226E+04  1.09336E+04  3.24045E+03  1.81984E+04
 -1.32564E+04  7.67064E+03 -9.76072E+03 -7.54021E+03  6.22736E+03 -1.05917E+04  1.74339E+04  6.25059E+03
  1.27020E+04  2.18641E+04 -6.43835E+03  2.38667E+04 -2.20498E+04  1.00581E+04 -2.59271E+04 -6.05489E+03
 -1.79705E+04 -1.66311E+04 -6.57653E+03 -1.79595E+04  4.04467E+03 -1.65866E+04  1.34709E+04 -1.56275E+04
  2.27375E+04 -1.21041E+04  2.95883E+04  1.64086E+03  2.20234E+04  1.75222E+04  4.09169E+03  3.36849E+04
 -1.65399E+04  2.84357E+04 -2.63868E+04  9.59835E+03 -1.98561E+04 -1.04118E+04 -4.21029E+03 -1.38114E+04
  2.21176E+03 -3.48526E+03 -3.16483E+03  5.82869E+03 -1.39980E+04  5.35992E+03 -1.42077E+04 -5.67356E+03
 -8.97779E+03 -1.64498E+04  4.42872E+03 -2.08395E+04  1.34157E+04 -1.48523E+04  1.57693E+04 -1.47425E+03
  9.69578E+03  1.16331E+04 -9.43760E+02  1.70182E+04 -1.11961E+04  9.91354E+03 -1.64260E+04 -3.65541E+03
 -1.23974E+04 -1.53148E+04 -1.58056E+03 -2.03391E+04  9.43594E+03 -1.65989E+04  1.74358E+04 -8.02505E+03
  1.57282E+04  2.12459E+02  1.10758E+04  4.10802E+03  5.59794E+03  6.00844E+02  8.24737E+03 -1.43497E+03
  1.50999E+04  2.87854E+03  1.60300E+04  1.35080E+04  1.03935E+04  2.67724E+04 -3.27650E+03  2.91780E+04
 -1.69729E+04  2.26632E+04 -2.69923E+04  1.09345E+04 -2.78397E+04 -1.90416E+03 -2.37622E+04 -1.59319E+04
 -1.06157E+04 -2.30772E+04  7.67929E+03 -2.09503E+04  1.83674E+04 -1.17206E+04  1.70521E+04  4.11210E+03
  6.83293E+03  1.22051E+04 -7.95140E+03  1.11446E+04 -1.42380E+04  2.70410E+03 -1.10950E+04 -8.51916E+03
  1.35186E+02 -1.34818E+04  6.76720E+03 -1.02799E+04  8.57753E+03 -1.36301E+03  1.52933E+03  5.30623E+03
 -6.16294E+03  1.68504E+03 -4.80737E+03 -4.67059E+03  7.13804E+02 -1.13732E+04  8.28413E+03 -1.16628E+04
  1.40356E+04 -5.81087E+03  1.42439E+04  2.91609E+03  1.22754E+04  1.07915E+04  5.97295E+03  1.63631E+04
 -2.44481E+03  1.82760E+04 -1.14936E+04  1.14154E+04 -1.29377E+04  3.15115E+03 -9.38326E+03 -2.11218E+03
 -4.49651E+03 -3.78596E+03 -7.49700E+02  1.49461E+03 -2.17185E+03  2.05237E+03 -4.33821E+03  3.72929E+03
 -9.28638E+03 -5.87933E+02 -9.56770E+03 -8.06591E+03 -3.87183E+03 -1.25939E+04  4.05044E+03 -9.61608E+03
  8.09720E+03 -3.86646E+03  6.12382E+03  2.42135E+03  2.21886E+02  3.54922E+03 -4.03507E+03 -2.67896E+02
 -3.84366E+03 -6.19679E+03 -9.09093E+02 -8.39927E+03  4.55682E+03 -9.33143E+03  1.12519E+04 -4.84987E+03
  1.36157E+04  9.08387E+02  9.82665E+03  7.54301E+03  2.09604E+03  1.02736E+04 -5.86961E+03  9.47608E+03
 -7.60385E+03  3.10499E+03 -4.23099E+03 -1.44759E+03  1.72311E+03 -2.41194E+03  5.34788E+03 -7.54559E+02
  4.69583E+03  3.98331E+03  1.06588E+03  7.26073E+03 -5.42347E+03  7.31681E+03 -8.97975E+03  1.94251E+03
 -5.52745E+03 -4.33196E+03  5.78818E+02 -7.66981E+03  4.39360E+03 -3.95288E+03  4.55962E+03  1.23940E+03
  6.31322E+02  4.25054E+03 -4.68151E+03  5.63175E+03 -6.26822E+03  2.73113E+03 -6.08278E+03 -1.62199E+03
 -3.62689E+03 -7.66244E+03  1.59529E+03 -8.53926E+03  7.60382E+03 -5.57409E+03  7.71650E+03  1.34860E+03
  5.33010E+03  6.50926E+03  2.22036E+02  8.42447E+03 -6.13939E+03  4.86599E+03 -6.43308E+03 -4.64687E+02
 -6.40172E+03 -5.78909E+03 -1.21350E+03 -6.04640E+03  3.29653E+03 -5.59988E+03  3.71272E+03 -2.88728E+03
  2.85172E+03  4.97050E+02  6.21981E+01  1.48433E+03  5.43508E+02 -8.59519E+02  5.64961E+02 -2.49147E+03
  5.13763E+03 -1.24730E+03  6.91329E+03  6.42726E+02  7.13923E+03  4.28859E+03  5.78173E+03  9.24694E+03
 -1.74193E+03  1.08355E+04 -9.40500E+03  8.22500E+03 -1.22545E+04  1.45210E+03 -9.66310E+03 -3.50706E+03
 -5.03780E+03 -7.91141E+03 -4.93172E+02 -6.64301E+03  2.31409E+03 -2.92525E+03  2.44909E+03 -2.37742E+03
  1.34119E+03 -1.78585E+03  2.54543E+03 -2.83247E+03  3.86394E+03 -1.79198E+03  4.57586E+03  2.22030E+02
  5.14247E+03  1.50829E+03  1.59423E+03  4.13528E+03 -2.06732E+03  4.09820E+03 -5.38326E+03  3.46200E+03
 -6.04334E+03 -1.37356E+03 -2.86051E+03 -4.56882E+03  1.61376E+02 -6.58480E+03  3.65284E+03 -6.82546E+03
  6.81368E+03 -4.04838E+03  8.83741E+03  7.31672E+02  6.47608E+03  5.35257E+03  1.19063E+03  7.67398E+03
 -2.93825E+03  6.83113E+03 -4.61850E+03  2.25886E+03 -2.80738E+03 -8.71771E+02 -1.11276E+03 -7.75330E+02
 -4.80096E+02  3.56540E+02 -9.91005E+02  1.80584E+03 -2.84071E+03  1.29189E+03 -4.78957E+03 -7.52845E+02
 -2.41915E+03 -4.78990E+03  8.63310E+02 -6.12714E+03  3.37781E+03 -5.55916E+03  5.04079E+03 -1.56154E+03
  5.83872E+03  3.28385E+03  2.69216E+03  4.76750E+03 -1.41822E+03  6.09631E+03 -3.68066E+03  3.37552E+03
 -5.18426E+03  5.41409E+02 -4.24531E+03 -3.46028E+03 -5.76585E+02 -4.56859E+03  2.27498E+03 -3.36962E+03
  3.57764E+03 -1.41054E+03  2.48255E+03  7.31983E+02  6.43576E+02  2.23115E+03  7.68733E+02  9.36999E+02
  1.54472E+03  7.81166E+02  1.33888E+03  1.09503E+03  1.72144E+03  2.82412E+03  1.80406E+03  2.74645E+03
 -1.43643E+03  4.13854E+03 -3.78269E+03  5.40112E+03 -4.86024E+03  1.50855E+03 -5.81237E+03 -1.09704E+03
 -2.87513E+03 -5.15855E+03  9.60070E+02 -6.24126E+03  2.87870E+03 -3.52464E+03  4.35338E+03 -1.22771E+03
  3.23544E+03  2.34946E+03  8.69531E+02  3.14670E+03 -1.08915E+03  1.70631E+03 -1.92677E+03 -4.15984E+02
 -9.65628E+02 -2.19342E+03  1.29476E+03 -2.27908E+03  2.28852E+03 -1.43152E+03  2.13860E+03  7.00920E+02
  1.26544E+03  5.58209E+02  1.03295E+03  6.15352E+01 -2.80787E+02  7.74964E+02  1.81803E+03 -3.29309E+02
  3.15821E+02 -2.91049E+02  2.54282E+03  6.79269E+02  6.24774E+02  2.98989E+03 -2.21511E+02  4.17237E+03
 -2.40199E+03  1.87110E+03 -3.10810E+03  7.35492E+02 -3.08548E+03 -1.27974E+03 -5.00635E+02 -1.65181E+03
  6.16650E+02 -1.77760E+03  1.46338E+03 -1.07284E+03  1.44031E+03  1.60513E+03 -7.58065E+02  1.55543E+03
 -1.94838E+03  1.05742E+03 -2.08539E+03 -1.50871E+03 -1.05684E+03 -2.81706E+03  1.34479E+02 -2.28640E+03
  9.67207E+02 -1.21730E+03  1.36819E+03  8.52265E+01  1.98735E+03  1.71761E+02  5.06392E+02  1.36348E+03
 -6.56107E+02  4.88898E+01 -1.18386E+03 -3.54910E+02  8.37191E+02 -1.65332E+03  2.51596E+03 -1.57874E+03
  2.57104E+03  1.01205E+02  3.75060E+03  1.27396E+03  1.32965E+03  2.70424E+03 -6.46892E+02  2.92350E+03
 -2.66354E+03  3.53129E+02 -2.36846E+03 -3.58491E+02 -1.03751E+03 -2.31023E+03  1.98399E+02 -1.26785E+03
  2.00691E+03 -8.77995E+02  1.38231E+03  1.23327E+03  3.41122E+02  1.85457E+03 -7.50157E+01  1.46129E+03
 -6.26998E+02  1.10712E+03 -8.82044E+02  3.70257E+02 -1.19055E+02  3.22306E+02 -9.90914E+02  8.62335E+02
 -8.89494E+02  1.32608E+03 -2.50285E+03  8.14242E+02 -3.04804E+03 -2.33655E+02 -3.68581E+03 -1.81473E+03
 -1.90991E+03 -3.89831E+03  9.09996E+02 -4.37447E+03  1.91191E+03 -3.41962E+03  4.11447E+03 -1.45912E+03
  3.68116E+03  3.31294E+02  2.34447E+03  2.51510E+03 -6.05324E+02  2.56105E+03 -9.05896E+02  2.07495E+03
 -1.38433E+03  1.02332E+03 -1.18741E+03 -3.39769E+02 -5.54543E+02  7.81894E+01 -4.54068E+02 -1.62425E+02
 -1.05431E+03  2.03686E+02 -1.32286E+03  2.43878E+02  9.45784E+01 -9.67859E+02  5.93600E+01 -1.17491E+03
  1.61185E+03 -9.19687E+02  1.10714E+03  1.04660E+02  1.70250E+03  1.53345E+03 -1.46164E+02  2.27974E+03
 -1.60480E+03  3.52907E+03 -2.61288E+03  2.12936E+03 -3.07073E+03  1.99232E+01 -2.38288E+03 -2.65857E+03
 -1.10581E+03 -2.52944E+03  6.77811E+02 -2.12669E+03  1.26850E+03 -1.19270E+03  1.56883E+03  2.39643E+02
  1.15821E+03  6.46761E+02 -1.57463E+02  7.28799E+02 -7.46976E+02  9.11391E+00 -1.64012E+01 -2.07486E+02
  1.00621E+03  1.61697E+02  5.64816E+02  3.22482E+02  5.58968E+02  1.12310E+03  1.63348E+02  8.28087E+02
 -1.19891E+03  1.10642E+03 -1.42143E+03  3.78178E+02 -1.37610E+03 -1.22135E+03  6.07503E+00 -1.89005E+03
  1.06763E+03 -1.45925E+03  1.44846E+03 -3.17323E+02  1.71280E+03 -1.64974E+02  1.07009E+03  1.67600E+03
  4.67851E+02  1.22132E+03 -4.71414E+02  7.82320E+02 -7.90751E+02  1.05757E+03 -8.87768E+02  3.76149E+02
 -4.96727E+02 -1.72232E+02 -9.47323E+02  2.64404E+02 -8.94007E+02  3.53567E+02 -1.10033E+03 -2.14426E+02
 -1.47830E+03 -2.99544E+01 -4.27298E+02 -1.62487E+03  9.30989E+02 -2.30037E+03  1.16981E+03 -1.01707E+03
  1.43211E+03  2.42578E+02  3.22374E+02  6.88020E+02 -3.06503E+02  1.54040E+03 -9.84425E+02  9.44475E+02
