 $NMID ID='MM_0lb_SNR800_14hz_g55_20.RAW', FMTDAT='(8E13.5)'
 TRAMP=1., VOLUME=1. $END
  3.09861E+05  4.53169E+02  3.37757E+05  2.50816E+05  8.46819E+04  3.37598E+05 -1.32588E+05  2.50961E+05
 -1.90237E+05  8.36455E+04 -1.12284E+05 -3.28886E+04  8.54316E+02 -5.06950E+04  5.39281E+04 -2.30226E+02
  3.54137E+04  5.29742E+04 -1.69785E+04  7.57068E+04 -6.08522E+04  6.40082E+04 -8.41803E+04  3.23372E+04
 -8.10734E+04 -1.16022E+04 -5.77971E+04 -5.16813E+04 -1.50469E+04 -6.99350E+04  2.75329E+04 -4.61819E+04
  4.00936E+04  3.88056E+03  1.64021E+04  4.80948E+04 -3.46799E+04  4.74602E+04 -6.68661E+04  4.85174E+01
 -5.35221E+04 -5.70793E+04 -6.85520E+03 -7.71632E+04  3.39326E+04 -5.55974E+04  4.80909E+04 -1.73855E+04
  4.40911E+04  1.12004E+04  3.22774E+04  2.57335E+04  1.61517E+04  2.96831E+04 -5.28770E+03  2.70100E+04
 -2.24044E+04  1.21721E+04 -1.87362E+04 -5.13483E+03  5.93399E+03 -7.69363E+03  2.24354E+04  1.25695E+04
  7.28377E+03  3.57331E+04 -3.23411E+04  3.54990E+04 -6.38253E+04  1.96350E+03 -5.73248E+04 -4.31246E+04
 -1.25442E+04 -6.35827E+04  3.99937E+04 -4.61371E+04  5.88110E+04 -2.22954E+03  3.48404E+04  3.26795E+04
 -5.91388E+03  3.66854E+04 -2.98807E+04  1.66424E+04 -3.09250E+04 -3.99841E+03 -1.74107E+04 -1.09701E+04
 -8.51610E+03 -1.37076E+04 -8.17949E+02 -1.83910E+04  7.39278E+03 -2.33208E+04  1.56143E+04 -1.32008E+04
  1.11261E+04  5.45806E+03 -8.68690E+03  1.30818E+04 -2.16807E+04 -4.71400E+03 -8.13014E+03 -3.44288E+04
  2.31575E+04 -4.40485E+04  4.84592E+04 -1.97061E+04  4.61513E+04  1.93536E+04  1.61244E+04  4.48648E+04
 -1.61314E+04  3.40607E+04 -2.58811E+04  1.88838E+03 -1.01340E+04 -2.80054E+04  2.11250E+04 -3.44987E+04
  4.15457E+04 -9.55114E+03  3.64114E+04  2.37971E+04  1.87653E+04  4.73862E+04 -8.10398E+03  5.13686E+04
 -3.23866E+04  3.44039E+04 -4.30062E+04  9.54842E+03 -4.32212E+04 -1.68755E+04 -2.42526E+04 -3.86506E+04
  7.61822E+03 -3.86524E+04  3.19858E+04 -1.52562E+04  2.95555E+04  1.10097E+04  4.34927E+03  1.92455E+04
 -1.30463E+04  8.96561E+03 -1.05340E+04 -7.47379E+03  5.56186E+03 -1.09483E+04  1.80513E+04  6.17216E+03
  1.39494E+04  2.23303E+04 -5.71868E+03  2.54095E+04 -2.26299E+04  1.18999E+04 -2.86385E+04 -4.63310E+03
 -2.17421E+04 -1.75544E+04 -8.96394E+03 -2.12353E+04  4.37583E+03 -2.08869E+04  1.62750E+04 -1.90533E+04
  2.73534E+04 -1.28794E+04  3.36197E+04  2.89356E+03  2.45449E+04  2.06553E+04  4.43197E+03  3.73676E+04
 -1.80733E+04  3.09214E+04 -2.86839E+04  1.06233E+04 -2.10351E+04 -1.03441E+04 -4.52715E+03 -1.36964E+04
  1.56700E+03 -2.54140E+03 -5.43209E+03  6.84703E+03 -1.68338E+04  5.40437E+03 -1.69372E+04 -7.21069E+03
 -1.01166E+04 -1.95663E+04  5.45514E+03 -2.36883E+04  1.59683E+04 -1.71723E+04  1.91944E+04 -1.77821E+03
  1.15399E+04  1.35594E+04 -1.30500E+03  1.95647E+04 -1.34800E+04  1.11668E+04 -1.97174E+04 -4.24393E+03
 -1.42063E+04 -1.78032E+04 -1.66828E+03 -2.36855E+04  1.03381E+04 -1.97360E+04  1.95355E+04 -9.74379E+03
  1.83003E+04  1.72422E+02  1.31343E+04  4.31397E+03  6.71944E+03  7.08207E+02  1.02099E+04 -1.76084E+03
  1.80545E+04  2.51081E+03  2.03077E+04  1.54465E+04  1.34073E+04  3.15073E+04 -2.53402E+03  3.53722E+04
 -2.05656E+04  2.84749E+04 -3.30675E+04  1.39904E+04 -3.47079E+04 -2.37360E+03 -2.86594E+04 -2.00273E+04
 -1.22410E+04 -2.89528E+04  9.77576E+03 -2.57578E+04  2.22856E+04 -1.31802E+04  1.98003E+04  5.83896E+03
  6.92131E+03  1.49857E+04 -9.33118E+03  1.30347E+04 -1.66698E+04  2.34558E+03 -1.27624E+04 -1.05709E+04
 -3.30044E+02 -1.56875E+04  8.11324E+03 -1.17116E+04  1.06029E+04 -1.35519E+03  2.20842E+03  6.60353E+03
 -6.81792E+03  2.61668E+03 -6.63267E+03 -5.67868E+03 -4.65180E+02 -1.37852E+04  9.56240E+03 -1.46261E+04
  1.75739E+04 -7.86626E+03  1.87389E+04  2.92707E+03  1.64787E+04  1.39416E+04  7.64230E+03  2.12654E+04
 -3.62055E+03  2.27051E+04 -1.45770E+04  1.43571E+04 -1.66004E+04  3.03158E+03 -1.18157E+04 -3.92587E+03
 -5.56436E+03 -4.91241E+03 -7.94084E+02  1.15632E+03 -2.60856E+03  2.80995E+03 -5.45187E+03  4.49217E+03
 -1.10148E+04 -8.12800E+02 -1.13999E+04 -9.14528E+03 -4.86270E+03 -1.53536E+04  5.00272E+03 -1.21849E+04
  9.86227E+03 -5.05054E+03  7.14320E+03  2.75718E+03  4.15706E+02  4.48771E+03 -5.55215E+03  2.50405E+02
 -5.39384E+03 -7.44732E+03 -9.33314E+02 -1.10896E+04  6.20736E+03 -1.18123E+04  1.40852E+04 -6.12227E+03
  1.70918E+04  1.40213E+03  1.24400E+04  1.00313E+04  2.47782E+03  1.31194E+04 -7.09092E+03  1.14841E+04
 -9.54871E+03  3.44724E+03 -5.36651E+03 -2.44692E+03  1.55982E+03 -3.19547E+03  6.41092E+03 -1.11248E+03
  5.52412E+03  4.91436E+03  9.89357E+02  9.05948E+03 -6.50950E+03  8.93980E+03 -1.14416E+04  2.05409E+03
 -7.48242E+03 -5.25930E+03  3.03158E+02 -9.83937E+03  5.97521E+03 -4.70663E+03  5.84682E+03  1.78950E+03
  1.06373E+03  6.30256E+03 -6.17139E+03  7.76240E+03 -8.53966E+03  3.81567E+03 -8.74629E+03 -2.86647E+03
 -5.36952E+03 -1.05291E+04  2.55734E+03 -1.19647E+04  1.01539E+04 -7.29246E+03  1.13681E+04  1.66646E+03
  6.91128E+03  8.97224E+03 -2.46850E+02  1.09030E+04 -7.69938E+03  6.06129E+03 -8.43051E+03 -6.02573E+02
 -7.48812E+03 -7.27556E+03 -1.62785E+03 -7.78337E+03  4.10793E+03 -6.63649E+03  4.97303E+03 -3.22863E+03
  3.39866E+03  1.17303E+03 -5.25016E+02  1.72830E+03 -1.37154E+02 -1.58174E+03  1.25796E+03 -4.34649E+03
  7.20626E+03 -2.48564E+03  9.99192E+03  1.54591E+03  9.94982E+03  6.42827E+03  7.45113E+03  1.31824E+04
 -3.00813E+03  1.51679E+04 -1.25713E+04  1.08289E+04 -1.67724E+04  2.21903E+03 -1.33200E+04 -4.96890E+03
 -6.48628E+03 -1.05536E+04 -7.49753E+02 -9.24083E+03  3.54484E+03 -4.70285E+03  3.07749E+03 -3.35619E+03
  2.59951E+03 -2.29305E+03  3.01504E+03 -2.70428E+03  4.29765E+03 -2.12447E+03  5.35811E+03 -5.10416E+02
  7.08963E+03  2.02604E+03  2.95190E+03  5.89903E+03 -1.83587E+03  6.21159E+03 -7.39159E+03  5.11437E+03
 -8.81516E+03 -1.13455E+03 -4.72057E+03 -6.02075E+03 -2.78273E+02 -9.62297E+03  5.37153E+03 -9.42791E+03
  9.70440E+03 -5.65137E+03  1.17071E+04  1.29127E+03  8.34760E+03  8.21273E+03  1.72025E+03  1.06037E+04
 -4.34674E+03  9.21292E+03 -6.11547E+03  3.37498E+03 -3.92877E+03 -1.22530E+03 -1.56556E+03 -1.25907E+03
 -6.23598E+02 -6.68924E+01 -1.32726E+03  2.65104E+03 -3.97030E+03  1.69385E+03 -6.14022E+03 -8.69650E+02
 -3.58633E+03 -6.11815E+03  7.92772E+02 -8.37534E+03  5.07993E+03 -8.06630E+03  7.98162E+03 -2.30947E+03
  8.27904E+03  4.26678E+03  4.05298E+03  6.88067E+03 -1.74068E+03  8.30933E+03 -5.92723E+03  5.33041E+03
 -7.32984E+03  5.15171E+02 -5.98290E+03 -4.77161E+03 -5.54164E+02 -6.86129E+03  3.59909E+03 -5.00453E+03
  5.24348E+03 -1.83358E+03  3.41569E+03  1.38549E+03  1.12406E+03  2.46915E+03  8.65599E+02  1.04904E+03
  2.24209E+03  7.07257E+02  1.89011E+03  1.64402E+03  2.19675E+03  3.38467E+03  2.36907E+03  4.02086E+03
 -1.68465E+03  6.30716E+03 -5.34137E+03  6.81835E+03 -7.61264E+03  1.46032E+03 -8.68793E+03 -2.34692E+03
 -3.95138E+03 -7.96488E+03  1.29143E+03 -8.98295E+03  4.46144E+03 -5.32261E+03  6.14969E+03 -1.63449E+03
  5.18177E+03  3.22007E+03  1.16307E+03  4.64757E+03 -1.94712E+03  3.01268E+03 -2.80086E+03 -4.98284E+02
 -1.37913E+03 -3.46981E+03  2.07482E+03 -3.37787E+03  2.97717E+03 -1.73129E+03  3.23856E+03  6.20216E+02
  1.77783E+03  1.24355E+03  9.61664E+02  5.91530E+02 -3.55180E+02  8.02142E+02  1.59259E+03 -2.38019E+02
  8.77641E+02 -2.12242E+02  3.51345E+03  1.41951E+03  1.45405E+03  4.28488E+03 -7.99469E+02  5.93803E+03
 -3.45835E+03  3.05642E+03 -4.73138E+03  1.18930E+03 -4.39446E+03 -1.79044E+03 -1.11425E+03 -2.69035E+03
  6.03363E+02 -2.80902E+03  1.68617E+03 -1.80513E+03  1.52965E+03  1.89253E+03 -1.10193E+03  2.50872E+03
 -2.96564E+03  1.37499E+03 -3.10497E+03 -2.19914E+03 -1.85468E+03 -4.01581E+03  3.94740E+02 -3.62585E+03
  1.85270E+03 -2.13160E+03  2.31497E+03  9.39496E+01  2.71712E+03  5.68025E+02  4.52677E+02  2.48676E+03
 -1.12613E+03  5.00216E+02 -2.17503E+03 -1.04828E+03  7.83172E+02 -2.57014E+03  3.84134E+03 -2.15719E+03
  3.54065E+03  5.54545E+02  4.99981E+03  2.31291E+03  1.69821E+03  4.45486E+03 -1.35171E+03  3.98039E+03
 -3.46218E+03  1.68120E+03 -3.84620E+03 -3.64545E+02 -1.61270E+03 -3.30607E+03  8.38667E+02 -2.15537E+03
  3.08494E+03 -1.36206E+03  2.31007E+03  1.39996E+03  8.02279E+02  2.58069E+03 -2.33009E+01  1.96274E+03
 -9.42929E+02  2.01454E+03 -1.30504E+03  6.13691E+02 -3.29398E+02  7.70267E+02 -1.25651E+03  9.73357E+02
 -1.16082E+03  1.97164E+03 -3.17584E+03  1.28702E+03 -4.31817E+03  2.74069E+02 -4.89141E+03 -3.04053E+03
 -2.48698E+03 -5.27678E+03  1.14416E+03 -6.71679E+03  3.60986E+03 -5.35293E+03  6.06959E+03 -2.17228E+03
  5.58838E+03  6.22409E+02  3.40018E+03  3.82269E+03 -4.38695E+01  4.12196E+03 -1.69952E+03  3.43130E+03
 -2.36687E+03  1.54113E+03 -1.11932E+03 -5.56224E+02 -4.33270E+02 -3.56403E+02 -3.62612E+02 -3.20491E+01
 -1.35061E+03  1.89635E+02 -1.41882E+03 -8.33364E+00  1.71348E+02 -1.20440E+03 -2.48930E+02 -1.98528E+03
  2.49752E+03 -1.15431E+03  2.23340E+03  2.63192E+02  2.52823E+03  2.35542E+03  1.84315E+02  4.29321E+03
 -1.96407E+03  4.98263E+03 -4.44789E+03  3.15945E+03 -4.76230E+03 -6.20030E+02 -3.35919E+03 -3.19348E+03
 -1.95871E+03 -3.72725E+03  7.48336E+02 -3.46237E+03  2.46954E+03 -1.86245E+03  2.25408E+03  1.24337E+02
  1.64129E+03  1.26784E+03 -1.75513E+02  1.12091E+03 -6.48489E+02  8.03130E+01 -6.70970E+01 -1.00082E+03
  1.21559E+03 -4.63744E+02  1.41227E+03  5.10130E+02  9.93753E+02  1.85145E+03  4.47488E+02  1.51596E+03
 -1.81235E+03  1.66768E+03 -2.41127E+03  3.98262E+01 -2.34827E+03 -1.59235E+03 -2.15547E+02 -3.26161E+03
  1.48528E+03 -2.59399E+03  2.38146E+03 -4.37052E+02  2.83382E+03  1.73829E+02  1.19357E+03  2.39995E+03
  6.95261E+02  2.21810E+03 -7.23064E+02  2.02273E+03 -1.34945E+03  1.40348E+03 -1.40391E+03  1.87834E+02
 -6.49317E+02 -1.35366E+01 -1.02297E+03  4.88245E+02 -1.46640E+03  5.34338E+02 -2.06485E+03 -4.22294E+02
 -2.05454E+03 -8.27747E+02 -7.39936E+02 -2.39432E+03  1.42310E+03 -3.00967E+03  2.07583E+03 -1.15962E+03
  2.59500E+03  2.96492E+02  5.47898E+02  1.56708E+03 -8.40813E+00  2.34304E+03 -1.32453E+03  1.72305E+03
