 $NMID ID='MM_0lb_SNR800_8hz_g50_25.RAW', FMTDAT='(8E13.5)'
 TRAMP=1., VOLUME=1. $END
  3.09923E+05 -4.13843E+01  3.38008E+05  2.50636E+05  8.52284E+04  3.38986E+05 -1.32689E+05  2.51842E+05
 -1.90734E+05  8.39002E+04 -1.12858E+05 -3.22079E+04  4.41643E+01 -5.10142E+04  5.36068E+04 -3.93109E+02
  3.53996E+04  5.29467E+04 -1.69203E+04  7.61380E+04 -6.11627E+04  6.44572E+04 -8.56408E+04  3.25303E+04
 -8.29370E+04 -1.17953E+04 -5.86408E+04 -5.22631E+04 -1.53478E+04 -7.10007E+04  2.82837E+04 -4.70217E+04
  4.09886E+04  3.42824E+03  1.67070E+04  4.85440E+04 -3.47286E+04  4.89634E+04 -6.86612E+04 -4.87936E+02
 -5.52914E+04 -5.77386E+04 -7.22716E+03 -7.92089E+04  3.49815E+04 -5.70619E+04  4.99501E+04 -1.85789E+04
  4.53180E+04  1.15771E+04  3.31350E+04  2.69717E+04  1.61731E+04  3.12121E+04 -6.13972E+03  2.79288E+04
 -2.28913E+04  1.20085E+04 -1.84245E+04 -6.03337E+03  7.77584E+03 -7.50504E+03  2.40909E+04  1.37933E+04
  6.83133E+03  3.78160E+04 -3.42530E+04  3.72035E+04 -6.63521E+04  1.91728E+03 -5.88144E+04 -4.49384E+04
 -1.30500E+04 -6.64902E+04  4.18630E+04 -4.80516E+04  6.16680E+04 -2.38394E+03  3.73052E+04  3.50455E+04
 -5.13465E+03  4.03811E+04 -3.22461E+04  1.93291E+04 -3.38940E+04 -3.32090E+03 -1.96231E+04 -1.21923E+04
 -1.02013E+04 -1.52346E+04 -5.27196E+02 -2.00306E+04  8.62321E+03 -2.35685E+04  1.61996E+04 -1.23533E+04
  1.04446E+04  6.51866E+03 -1.07994E+04  1.27162E+04 -2.40485E+04 -7.04747E+03 -8.88851E+03 -3.81710E+04
  2.53721E+04 -4.78695E+04  5.25450E+04 -2.10711E+04  4.92260E+04  2.14261E+04  1.74861E+04  4.75496E+04
 -1.69423E+04  3.67595E+04 -2.86701E+04  2.76481E+03 -1.14442E+04 -2.98558E+04  2.18706E+04 -3.74910E+04
  4.54820E+04 -1.14582E+04  4.12010E+04  2.48227E+04  2.23637E+04  5.18759E+04 -8.36197E+03  5.71429E+04
 -3.62782E+04  3.96459E+04 -4.86183E+04  1.14889E+04 -4.86037E+04 -1.92071E+04 -2.65316E+04 -4.27861E+04
  8.23720E+03 -4.28598E+04  3.44927E+04 -1.79149E+04  3.31544E+04  1.10289E+04  5.48275E+03  2.13298E+04
 -1.40184E+04  9.93980E+03 -1.16402E+04 -7.76197E+03  5.56231E+03 -1.14990E+04  1.90072E+04  5.51223E+03
  1.53215E+04  2.29642E+04 -4.71888E+03  2.72744E+04 -2.33821E+04  1.48126E+04 -3.24271E+04 -2.68391E+03
 -2.60802E+04 -1.84699E+04 -1.25085E+04 -2.60079E+04  4.46101E+03 -2.67554E+04  2.06797E+04 -2.42800E+04
  3.33387E+04 -1.48658E+04  3.91039E+04  5.02503E+03  2.79617E+04  2.54757E+04  4.60032E+03  4.27011E+04
 -2.06032E+04  3.42833E+04 -3.12667E+04  1.21689E+04 -2.24147E+04 -1.01307E+04 -5.02917E+03 -1.27277E+04
  2.63950E+02 -8.28557E+02 -7.76496E+03  8.68393E+03 -2.10997E+04  5.05815E+03 -2.06148E+04 -9.92949E+03
 -1.26990E+04 -2.42826E+04  6.06598E+03 -2.86748E+04  1.93273E+04 -2.04323E+04  2.35303E+04 -1.63659E+03
  1.52757E+04  1.71235E+04 -1.50716E+03  2.41764E+04 -1.74218E+04  1.40652E+04 -2.47013E+04 -5.24857E+03
 -1.80848E+04 -2.16690E+04 -2.12735E+03 -2.89553E+04  1.33562E+04 -2.44049E+04  2.38203E+04 -1.28767E+04
  2.33196E+04 -5.91570E+02  1.70355E+04  5.45771E+03  9.07969E+03  1.62650E+03  1.23448E+04 -2.44015E+03
  2.28956E+04  3.05887E+03  2.68899E+04  1.89207E+04  1.84112E+04  3.92888E+04 -2.86996E+03  4.65098E+04
 -2.64553E+04  3.86901E+04 -4.40976E+04  1.99726E+04 -4.70095E+04 -3.25013E+03 -3.77020E+04 -2.77473E+04
 -1.48083E+04 -3.93188E+04  1.38662E+04 -3.42060E+04  2.94534E+04 -1.57724E+04  2.54161E+04  8.37814E+03
  8.21854E+03  1.99340E+04 -1.18868E+04  1.62114E+04 -2.07335E+04  2.48359E+03 -1.56203E+04 -1.31241E+04
 -4.47222E+01 -2.03665E+04  1.13349E+04 -1.52965E+04  1.42873E+04 -1.39472E+03  3.68810E+03  8.80040E+03
 -9.44141E+03  4.58093E+03 -9.91194E+03 -7.35875E+03 -2.24199E+03 -1.89248E+04  1.26335E+04 -2.11708E+04
  2.44481E+04 -1.15729E+04  2.77567E+04  3.19994E+03  2.45809E+04  1.96775E+04  1.13191E+04  3.13276E+04
 -5.85861E+03  3.32838E+04 -2.16781E+04  2.00870E+04 -2.46155E+04  3.99427E+03 -1.62515E+04 -6.05225E+03
 -6.65100E+03 -7.81780E+03 -6.37953E+02  5.14283E+02 -3.55567E+03  4.00897E+03 -7.94063E+03  5.57291E+03
 -1.50193E+04 -7.70241E+02 -1.55750E+04 -1.27585E+04 -5.87655E+03 -2.08600E+04  7.02909E+03 -1.68416E+04
  1.39242E+04 -6.98784E+03  9.79558E+03  4.62893E+03 -3.25145E+02  6.31342E+03 -8.52045E+03  6.11771E+01
 -8.21207E+03 -1.05862E+04 -1.08302E+03 -1.65680E+04  9.65879E+03 -1.80489E+04  2.13758E+04 -9.25498E+03
  2.55815E+04  2.75121E+03  1.83677E+04  1.56979E+04  3.39815E+03  2.06927E+04 -9.96604E+03  1.66711E+04
 -1.34592E+04  4.64300E+03 -6.89307E+03 -3.91235E+03  2.57994E+03 -4.71299E+03  8.40628E+03 -1.52006E+02
  7.50242E+03  7.49659E+03  1.17268E+03  1.31842E+04 -9.80303E+03  1.25847E+04 -1.64374E+04  2.83760E+03
 -1.15691E+04 -8.88358E+03  1.95844E+02 -1.46679E+04  9.52073E+03 -7.05871E+03  1.01304E+04  3.49828E+03
  2.37667E+03  1.11322E+04 -8.94911E+03  1.23658E+04 -1.51170E+04  5.64397E+03 -1.57603E+04 -6.25857E+03
 -9.21522E+03 -1.69352E+04  4.27684E+03 -1.99786E+04  1.65295E+04 -1.20660E+04  1.81461E+04  3.48572E+03
  1.07969E+04  1.43456E+04 -1.86299E+03  1.71741E+04 -1.30763E+04  9.53808E+03 -1.40483E+04 -1.45311E+03
 -1.12204E+04 -1.11585E+04 -1.94673E+03 -1.27174E+04  6.84057E+03 -1.07656E+04  7.99773E+03 -3.52921E+03
  5.41890E+03  2.32803E+03 -1.31995E+03  2.09928E+03 -6.41348E+02 -4.11222E+03  3.13511E+03 -8.55386E+03
  1.25236E+04 -5.91426E+03  1.81113E+04  2.04147E+03  1.72443E+04  1.19303E+04  1.08051E+04  2.32367E+04
 -5.09037E+03  2.63486E+04 -2.20762E+04  1.92570E+04 -2.87323E+04  3.88699E+03 -2.32748E+04 -9.92518E+03
 -1.13415E+04 -1.85174E+04 -2.60429E+02 -1.59984E+04  5.31405E+03 -9.32121E+03  5.27175E+03 -5.70910E+03
  4.57509E+03 -3.63072E+03  4.45770E+03 -4.00174E+03  5.98514E+03 -3.76381E+03  8.58176E+03 -1.82623E+03
  1.15224E+04  2.99080E+03  6.13479E+03  1.05116E+04 -2.32780E+03  1.27785E+04 -1.25183E+04  9.64166E+03
 -1.62363E+04 -1.40678E+03 -1.04317E+04 -1.12067E+04 -1.40512E+03 -1.76031E+04  9.41565E+03 -1.77529E+04
  1.85392E+04 -9.85260E+03  2.17675E+04  3.39553E+03  1.49204E+04  1.54191E+04  2.50137E+03  1.97731E+04
 -8.17951E+03  1.60323E+04 -1.17136E+04  5.40820E+03 -8.14011E+03 -1.80106E+03 -3.79745E+03 -2.37144E+03
 -1.58808E+03 -3.01899E+02 -2.46098E+03  3.11622E+03 -6.31334E+03  2.92111E+03 -1.09189E+04 -1.87240E+03
 -8.55448E+03 -1.09673E+04 -2.20627E+02 -1.64125E+04  1.07209E+04 -1.56967E+04  1.64242E+04 -4.48608E+03
  1.66953E+04  8.05156E+03  7.72827E+03  1.49119E+04 -3.55983E+03  1.69164E+04 -1.20032E+04  1.06421E+04
 -1.53421E+04  5.31377E+02 -1.20925E+04 -1.00724E+04 -1.48677E+03 -1.40627E+04  7.29469E+03 -1.07752E+04
  1.10245E+04 -2.99490E+03  7.30546E+03  2.80111E+03  2.25561E+03  4.54884E+03  1.65296E+03  2.10367E+03
  3.02897E+03  7.97978E+02  4.17557E+03  1.90134E+03  4.60067E+03  5.61638E+03  4.25121E+03  9.12491E+03
 -2.91016E+03  1.30335E+04 -1.15807E+04  1.30327E+04 -1.76650E+04  3.60852E+03 -1.78124E+04 -7.48761E+03
 -8.84193E+03 -1.69980E+04  2.66188E+03 -1.89615E+04  1.03633E+04 -1.21035E+04  1.40014E+04 -3.12541E+03
  1.11206E+04  6.17785E+03  2.03524E+03  9.98216E+03 -4.61889E+03  6.80202E+03 -7.40838E+03 -1.19120E+03
 -3.54004E+03 -7.57783E+03  3.75336E+03 -7.34334E+03  7.42635E+03 -3.73951E+03  7.02954E+03  1.72942E+03
  4.02671E+03  3.56312E+03  1.43471E+03  3.09114E+03 -8.06701E+02  2.06168E+03  1.53457E+03 -4.79284E+02
  2.81339E+03 -1.31116E+03  7.32875E+03  2.83928E+03  4.22872E+03  9.23106E+03 -1.75846E+03  1.23442E+04
 -8.55993E+03  8.04220E+03 -1.16526E+04  2.20889E+03 -9.98116E+03 -3.99280E+03 -4.15154E+03 -7.27366E+03
  6.62809E+02 -7.29358E+03  4.67377E+03 -3.06172E+03  3.64380E+03  3.68177E+03 -1.65701E+03  5.55752E+03
 -7.11071E+03  3.43873E+03 -8.62600E+03 -4.05076E+03 -4.40821E+03 -9.82483E+03  1.57795E+03 -1.00547E+04
  5.55108E+03 -6.18477E+03  7.16693E+03 -9.94802E+02  5.84008E+03  2.59599E+03  9.61776E+02  5.46820E+03
 -3.38210E+03  1.69736E+03 -4.20762E+03 -3.71671E+03  1.87254E+03 -7.25467E+03  8.65868E+03 -6.31586E+03
  1.13836E+04  6.79767E+02  1.08809E+04  7.76369E+03  3.49357E+03  1.21348E+04 -4.73692E+03  1.11266E+04
 -9.07140E+03  4.97856E+03 -9.86649E+03 -1.94725E+03 -5.40081E+03 -7.47245E+03  1.87818E+03 -7.36345E+03
  7.01622E+03 -3.49358E+03  6.62686E+03  3.43059E+03  2.14698E+03  6.49560E+03 -1.41499E+03  5.70835E+03
 -2.86226E+03  3.77159E+03 -2.86264E+03  9.40501E+02 -1.13969E+03  1.56715E+03 -1.56992E+03  2.16235E+03
 -3.16975E+03  4.76841E+03 -8.47499E+03  4.29223E+03 -1.21161E+04  1.26702E+02 -1.31396E+04 -7.89372E+03
 -7.05700E+03 -1.60436E+04  2.60096E+03 -1.80994E+04  1.14534E+04 -1.37563E+04  1.71894E+04 -5.04192E+03
  1.62932E+04  2.86118E+03  9.77319E+03  1.06469E+04  8.16780E+02  1.22356E+04 -5.05398E+03  9.55074E+03
 -6.67692E+03  3.64165E+03 -4.06221E+03 -1.26835E+03 -1.35087E+03 -1.29344E+03 -7.99379E+02 -4.57838E+02
 -2.44437E+03  3.16380E+02 -2.54627E+03 -1.35750E+02 -9.90187E+02 -2.74259E+03  3.78163E+02 -4.85917E+03
  5.43943E+03 -4.10509E+03  7.81384E+03 -5.89949E+01  8.58325E+03  6.92753E+03  2.20831E+03  1.23455E+04
 -5.74138E+03  1.38031E+04 -1.31379E+04  8.15719E+03 -1.48572E+04 -9.81050E+02 -1.14808E+04 -9.21592E+03
 -4.63744E+03 -1.27930E+04  3.59392E+03 -1.18219E+04  8.06970E+03 -6.11790E+03  8.52680E+03 -1.68997E+02
  4.57529E+03  4.47328E+03 -5.62272E+02  4.00586E+03 -2.46956E+03 -2.86571E+02  1.94691E+02 -3.31310E+03
  3.58418E+03 -1.80242E+03  5.05844E+03  1.62596E+03  3.54984E+03  5.28875E+03  4.83308E+01  6.80529E+03
 -5.47004E+03  5.84341E+03 -8.68844E+03  7.23446E+02 -7.61151E+03 -5.74496E+03 -1.47886E+03 -1.07438E+04
  6.07776E+03 -8.71376E+03  9.93941E+03 -3.07184E+03  9.97329E+03  2.82866E+03  5.67118E+03  8.13135E+03
  1.01185E+03  8.43980E+03 -3.05118E+03  6.82109E+03 -5.98411E+03  4.41110E+03 -4.14717E+03  4.05937E+02
 -2.62244E+03  2.58295E+02 -2.50188E+03  7.97218E+02 -4.18693E+03  1.62900E+03 -6.43789E+03 -1.49381E+03
 -6.42743E+03 -4.73693E+03 -2.03614E+03 -8.97909E+03  3.72370E+03 -8.87535E+03  7.67043E+03 -4.44199E+03
  8.79843E+03  1.00633E+03  4.88818E+03  6.36302E+03 -5.40882E+02  8.83456E+03 -6.76656E+03  5.99756E+03
