 $NMID ID='MM_0lb_SNR800_19hz_g60_29.RAW', FMTDAT='(8E13.5)'
 TRAMP=1., VOLUME=1. $END
  3.09928E+05  3.00860E+02  3.37287E+05  2.50489E+05  8.45954E+04  3.37797E+05 -1.32496E+05  2.50707E+05
 -1.89918E+05  8.27966E+04 -1.11387E+05 -3.27077E+04  1.25255E+03 -5.04201E+04  5.38151E+04  9.53859E+01
  3.51552E+04  5.29800E+04 -1.68917E+04  7.50202E+04 -6.03363E+04  6.29471E+04 -8.35517E+04  3.18642E+04
 -8.06525E+04 -1.13092E+04 -5.68667E+04 -5.08597E+04 -1.52235E+04 -6.88336E+04  2.71234E+04 -4.51615E+04
  3.97060E+04  3.71859E+03  1.58836E+04  4.75077E+04 -3.43423E+04  4.66262E+04 -6.61823E+04 -4.05044E+02
 -5.26204E+04 -5.61841E+04 -6.43112E+03 -7.63533E+04  3.35916E+04 -5.42969E+04  4.70776E+04 -1.69250E+04
  4.25167E+04  1.13136E+04  3.14290E+04  2.49868E+04  1.55627E+04  2.87257E+04 -4.94793E+03  2.69058E+04
 -2.21239E+04  1.22978E+04 -1.87096E+04 -4.40314E+03  5.11059E+03 -7.34256E+03  2.18668E+04  1.15800E+04
  7.24384E+03  3.40528E+04 -3.13364E+04  3.47428E+04 -6.21757E+04  2.09194E+03 -5.63366E+04 -4.21979E+04
 -1.24514E+04 -6.20204E+04  3.87591E+04 -4.40438E+04  5.68262E+04 -2.06833E+03  3.28421E+04  3.16472E+04
 -6.23793E+03  3.44066E+04 -2.93355E+04  1.49113E+04 -2.88830E+04 -4.96249E+03 -1.55163E+04 -1.07103E+04
 -7.98591E+03 -1.21109E+04 -8.11603E+02 -1.74273E+04  7.21528E+03 -2.27167E+04  1.54214E+04 -1.33783E+04
  1.20240E+04  4.48223E+03 -7.07597E+03  1.32521E+04 -1.99825E+04 -3.39597E+03 -8.03703E+03 -3.19626E+04
  2.17525E+04 -4.19057E+04  4.63175E+04 -1.93058E+04  4.32173E+04  1.88317E+04  1.49834E+04  4.29599E+04
 -1.55574E+04  3.19542E+04 -2.41473E+04  1.59910E+03 -9.12627E+03 -2.66133E+04  2.08453E+04 -3.22581E+04
  3.92777E+04 -8.08247E+03  3.32315E+04  2.30596E+04  1.65652E+04  4.40892E+04 -7.76789E+03  4.72225E+04
 -2.98988E+04  3.15889E+04 -3.92781E+04  8.81331E+03 -3.98515E+04 -1.55051E+04 -2.22736E+04 -3.56151E+04
  7.13685E+03 -3.55831E+04  2.99839E+04 -1.33080E+04  2.76957E+04  1.08417E+04  3.40476E+03  1.81606E+04
 -1.34084E+04  8.03436E+03 -1.01759E+04 -7.85663E+03  5.78150E+03 -1.03514E+04  1.76478E+04  6.14498E+03
  1.26268E+04  2.19192E+04 -6.58628E+03  2.38674E+04 -2.17839E+04  9.71811E+03 -2.63176E+04 -5.73747E+03
 -1.80541E+04 -1.68716E+04 -6.63058E+03 -1.82659E+04  3.91297E+03 -1.65338E+04  1.37977E+04 -1.57338E+04
  2.30179E+04 -1.19641E+04  2.96536E+04  1.63361E+03  2.20152E+04  1.73227E+04  4.21409E+03  3.36589E+04
 -1.66488E+04  2.84296E+04 -2.64835E+04  9.47331E+03 -2.01870E+04 -1.03019E+04 -4.19599E+03 -1.40063E+04
  2.24241E+03 -3.58058E+03 -3.29394E+03  5.39566E+03 -1.38156E+04  5.38241E+03 -1.40986E+04 -5.48925E+03
 -9.20032E+03 -1.63638E+04  4.60530E+03 -2.04236E+04  1.30990E+04 -1.46289E+04  1.57611E+04 -1.38787E+03
  9.56694E+03  1.15030E+04 -1.10054E+03  1.67257E+04 -1.10723E+04  9.36403E+03 -1.63016E+04 -3.33748E+03
 -1.21149E+04 -1.48505E+04 -1.46893E+03 -2.03414E+04  8.96668E+03 -1.64320E+04  1.70139E+04 -7.65176E+03
  1.52038E+04  5.53847E+02  1.09755E+04  3.84576E+03  5.57414E+03  3.03914E+02  7.91834E+03 -1.67443E+03
  1.48715E+04  2.34937E+03  1.59429E+04  1.33376E+04  9.97597E+03  2.62404E+04 -3.07387E+03  2.86523E+04
 -1.68325E+04  2.19963E+04 -2.58027E+04  1.06310E+04 -2.67792E+04 -1.88389E+03 -2.30464E+04 -1.54778E+04
 -1.07367E+04 -2.20335E+04  7.37250E+03 -2.02896E+04  1.77291E+04 -1.12127E+04  1.63286E+04  3.63836E+03
  6.66596E+03  1.20123E+04 -7.52691E+03  1.09188E+04 -1.39593E+04  2.53587E+03 -1.06104E+04 -8.37791E+03
 -8.27146E+01 -1.28973E+04  6.36022E+03 -1.00513E+04  8.03051E+03 -1.49170E+03  1.65200E+03  5.33056E+03
 -6.10240E+03  1.72480E+03 -4.13690E+03 -5.04156E+03  4.62161E+02 -1.08041E+04  8.39248E+03 -1.06017E+04
  1.30255E+04 -5.12458E+03  1.32341E+04  3.02376E+03  1.12904E+04  9.93875E+03  5.34551E+03  1.56019E+04
 -1.89774E+03  1.70564E+04 -1.06446E+04  1.07172E+04 -1.21007E+04  2.97869E+03 -9.02213E+03 -2.23139E+03
 -4.63853E+03 -3.52274E+03 -5.32874E+02  1.50666E+03 -1.80914E+03  2.15331E+03 -4.03451E+03  4.00097E+03
 -8.54610E+03 -3.96483E+02 -9.18111E+03 -7.37800E+03 -3.81250E+03 -1.20531E+04  3.69287E+03 -8.99789E+03
  7.35317E+03 -4.01264E+03  5.60596E+03  2.23888E+03  4.92179E+02  2.91387E+03 -3.85288E+03  3.78538E+01
 -3.70701E+03 -5.45829E+03 -8.27479E+02 -7.60980E+03  4.02112E+03 -8.26618E+03  1.03411E+04 -4.27375E+03
  1.21954E+04  8.69097E+02  9.15926E+03  6.56904E+03  1.85258E+03  9.19836E+03 -5.39486E+03  8.61823E+03
 -6.94534E+03  2.74178E+03 -3.77066E+03 -1.50327E+03  1.40296E+03 -1.75156E+03  4.86999E+03 -1.10295E+03
  4.34479E+03  3.32337E+03  1.10581E+03  6.63166E+03 -4.90814E+03  6.63654E+03 -8.26287E+03  1.82023E+03
 -5.38516E+03 -3.82895E+03  4.47062E+02 -6.81634E+03  3.76696E+03 -3.12069E+03  3.81856E+03  9.77696E+02
  6.21050E+02  3.47278E+03 -4.23449E+03  5.16158E+03 -5.12683E+03  2.44509E+03 -4.78469E+03 -1.21154E+03
 -3.25403E+03 -6.42165E+03  1.17098E+03 -7.56853E+03  6.49263E+03 -4.81705E+03  6.83416E+03  8.72237E+02
  4.89585E+03  5.32300E+03  1.36167E+02  7.70287E+03 -5.18885E+03  4.32103E+03 -5.49745E+03 -5.37707E+02
 -5.85244E+03 -5.20506E+03 -1.26444E+03 -5.25323E+03  2.59133E+03 -4.72864E+03  3.05627E+03 -2.90593E+03
  2.99931E+03  4.79682E+02  2.33073E+02  1.04858E+03  4.40986E+02 -3.54761E+02  2.02036E+02 -1.73823E+03
  4.17834E+03 -6.17348E+02  5.48292E+03  5.19914E+02  5.59888E+03  3.24801E+03  5.37548E+03  7.33867E+03
 -1.28106E+03  8.61115E+03 -7.95381E+03  6.74211E+03 -1.01544E+04  1.10106E+03 -7.99677E+03 -2.79920E+03
 -4.35223E+03 -6.74837E+03 -2.19230E+02 -5.26393E+03  2.18145E+03 -2.27944E+03  1.79751E+03 -2.36324E+03
  9.24988E+02 -1.31776E+03  1.96323E+03 -2.48889E+03  3.70029E+03 -1.24613E+03  3.51751E+03  3.87856E+02
  4.21217E+03  1.32484E+03  1.16499E+03  3.44124E+03 -1.60146E+03  2.92631E+03 -4.35992E+03  2.63411E+03
 -4.86832E+03 -1.17296E+03 -1.84475E+03 -3.34695E+03  6.59350E+02 -5.00980E+03  3.10936E+03 -5.46547E+03
  5.08498E+03 -2.99675E+03  6.64439E+03  1.33042E+02  5.06519E+03  4.18198E+03  1.22202E+03  5.82107E+03
 -2.29695E+03  6.03506E+03 -3.01344E+03  1.86391E+03 -1.83501E+03 -8.32584E+02 -1.84271E+02 -5.86818E+02
 -4.82547E+02  5.67062E+02 -1.29612E+03  2.13760E+03 -2.43298E+03  1.31528E+03 -3.79597E+03 -3.60440E+02
 -1.53270E+03 -4.02023E+03  1.08023E+03 -4.64281E+03  2.65882E+03 -4.22455E+03  3.36855E+03 -1.15352E+03
  4.17482E+03  2.47250E+03  1.83807E+03  3.16528E+03 -8.39914E+02  4.16224E+03 -2.68040E+03  2.97193E+03
 -3.68921E+03  7.64279E+02 -3.22707E+03 -2.45837E+03 -1.74058E+02 -2.96319E+03  1.49979E+03 -2.29699E+03
  2.61005E+03 -1.10727E+03  1.99680E+03  4.86228E+02  3.84786E+02  1.85243E+03  9.09621E+02  6.41345E+02
  1.69022E+03  6.26648E+02  9.52398E+02  7.93843E+02  1.00730E+03  2.19614E+03  1.47135E+03  1.69931E+03
 -1.48869E+03  2.71799E+03 -2.39304E+03  3.75426E+03 -2.81134E+03  1.24118E+03 -4.03908E+03 -4.25452E+02
 -1.49920E+03 -3.57481E+03  9.49232E+02 -4.38348E+03  1.95331E+03 -2.38525E+03  2.97488E+03 -8.21715E+02
  2.18355E+03  1.68533E+03  4.79646E+02  1.94904E+03 -6.16253E+02  1.20286E+03 -7.77214E+02 -1.13894E+02
 -8.15988E+02 -1.58233E+03  1.07110E+03 -1.60976E+03  9.93656E+02 -8.73765E+02  1.25782E+03  9.61396E+01
  8.70887E+02  1.52638E+02  6.39256E+02 -1.42428E+02 -4.24130E+02  5.36240E+02  1.58384E+03 -1.19548E+02
 -3.28398E+02 -4.86721E+02  1.72848E+03  3.83236E+02  2.43824E+02  2.34151E+03 -3.17158E+02  2.47877E+03
 -1.58453E+03  1.07085E+03 -1.88817E+03  4.79877E+02 -1.77052E+03 -4.49386E+02 -2.03534E+02 -6.26504E+02
  1.48448E+02 -1.22151E+03  9.21888E+02 -8.32159E+02  4.33567E+02  1.21662E+03 -7.74732E+02  1.28103E+03
 -1.57092E+03  7.16614E+02 -1.07553E+03 -1.17898E+03 -4.44018E+02 -2.36003E+03  3.04497E+02 -1.50741E+03
  4.25370E+02 -3.01963E+02  6.65835E+02  2.54079E+02  1.35933E+03  7.58392E+01  3.03947E+02  9.12158E+02
 -1.32749E+02  1.37997E+02 -9.20441E+02 -2.09416E+02  3.51559E+02 -5.03225E+02  1.38878E+03 -6.88817E+02
  1.10636E+03  2.70489E+02  2.53970E+03  7.23641E+02  8.27193E+02  1.37918E+03 -1.11206E+02  1.72582E+03
 -1.31052E+03 -2.26112E+01 -1.22769E+03 -2.64802E+02 -7.56448E+02 -1.22218E+03  1.62620E+02 -4.71409E+02
  1.18022E+03 -3.56114E+02  6.80418E+02  5.02415E+02 -9.79019E+01  1.10929E+03  4.03694E+02  1.25419E+03
 -2.64601E+02  8.54288E+02 -6.31644E+02  5.93603E+01  2.02110E+02  3.03298E+02 -7.67172E+02  4.82508E+02
 -4.74621E+02  7.76438E+02 -1.72032E+03  4.88605E+02 -1.58175E+03  2.50117E+02 -2.35677E+03 -7.87645E+02
 -9.12679E+02 -1.77862E+03  3.40630E+02 -2.31878E+03  6.88717E+02 -1.79235E+03  2.48107E+03 -5.05643E+02
  2.17698E+03 -3.05642E+02  8.14202E+02  1.26010E+03 -7.54911E+02  8.15615E+02 -5.20656E+02  9.29673E+02
 -8.80387E+02  4.21492E+02 -2.45702E+02 -3.78910E+02 -4.75536E+02 -9.96376E+01 -5.36575E+02 -2.58128E-01
 -1.15422E+03 -3.42383E+02 -7.52162E+02  3.34264E+02  4.70871E+02 -5.82520E+02 -7.14323E+02 -6.82625E+02
  1.11935E+03 -8.00521E+02  6.63525E+01  1.11758E+02  8.41452E+02  7.32932E+02 -3.99625E+02  9.92182E+02
 -5.66904E+02  1.95714E+03 -1.36897E+03  1.19895E+03 -1.66427E+03 -3.82359E+02 -7.64597E+02 -9.88972E+02
 -7.63686E+02 -1.14935E+03  6.40003E+01 -8.38780E+02  4.77778E+02 -5.50311E+02  1.05601E+02 -4.84401E+01
  4.57698E+02  4.14719E+02  1.61887E+02  4.07461E+02 -3.48968E+02 -1.71073E+02  1.39267E+02 -2.21032E+02
  3.63998E+02  1.00670E+02 -5.78585E+01  4.27323E+02  3.48546E+02  7.19941E+02  3.59364E+02  9.64276E+01
 -2.21099E+02  5.55478E+02 -3.43178E+02  1.85171E+02 -5.72240E+02 -5.60045E+02 -6.97214E+01 -8.70094E+02
  4.64768E+02 -3.50034E+02  1.74358E+02  1.59342E+02  3.13771E+02 -6.58996E+02  6.37428E+02  6.47078E+02
  5.20111E+02  2.86728E+02 -4.85114E+02  5.79619E+02 -5.54460E+02  6.06917E+02 -1.41453E+01  2.32144E+02
  4.05050E+01 -5.98261E+01 -1.72836E+02  1.33583E+02 -5.38036E+02  1.25871E+01 -5.95706E+02 -3.96390E+02
 -5.29997E+02  3.09702E+02 -1.86538E+02 -3.23501E+02  6.40100E+02 -1.39942E+03  6.24479E+02 -1.91555E+02
  4.16547E+02  9.70914E+01 -3.65695E+02 -2.20812E+01 -1.23769E+02  7.24022E+02 -1.30109E+02  6.07891E+02
