 $NMID ID='MM_0lb_SNR800_14hz_g50_89.RAW', FMTDAT='(8E13.5)'
 TRAMP=1., VOLUME=1. $END
  3.09865E+05  3.96892E+02  3.37680E+05  2.50367E+05  8.47972E+04  3.37990E+05 -1.32569E+05  2.51053E+05
 -1.90499E+05  8.31331E+04 -1.11460E+05 -3.28383E+04  6.96639E+02 -5.05534E+04  5.38727E+04 -4.62128E+02
  3.54411E+04  5.27382E+04 -1.69768E+04  7.53755E+04 -6.09125E+04  6.32440E+04 -8.40564E+04  3.20040E+04
 -8.09982E+04 -1.12539E+04 -5.71019E+04 -5.16264E+04 -1.51508E+04 -6.98667E+04  2.71630E+04 -4.60137E+04
  4.00210E+04  3.77623E+03  1.64041E+04  4.77607E+04 -3.42415E+04  4.73523E+04 -6.67772E+04 -1.95987E+02
 -5.34310E+04 -5.67547E+04 -7.02541E+03 -7.71948E+04  3.36034E+04 -5.52209E+04  4.79673E+04 -1.72133E+04
  4.33256E+04  1.09596E+04  3.16126E+04  2.57424E+04  1.60794E+04  2.92351E+04 -5.12872E+03  2.73105E+04
 -2.20279E+04  1.22754E+04 -1.85309E+04 -4.92430E+03  5.66513E+03 -7.32575E+03  2.23373E+04  1.23888E+04
  7.17604E+03  3.53208E+04 -3.23345E+04  3.57598E+04 -6.35137E+04  1.84996E+03 -5.70684E+04 -4.25662E+04
 -1.26771E+04 -6.32995E+04  3.99111E+04 -4.53385E+04  5.84256E+04 -2.22327E+03  3.43997E+04  3.21702E+04
 -6.02529E+03  3.61536E+04 -3.01070E+04  1.61086E+04 -3.07052E+04 -4.53754E+03 -1.70380E+04 -1.09875E+04
 -8.32409E+03 -1.32621E+04 -3.16988E+02 -1.81516E+04  7.63222E+03 -2.29211E+04  1.57085E+04 -1.35650E+04
  1.13458E+04  5.04618E+03 -8.23615E+03  1.28243E+04 -2.11779E+04 -4.72244E+03 -8.23050E+03 -3.41126E+04
  2.28608E+04 -4.36561E+04  4.82459E+04 -2.01028E+04  4.52573E+04  1.94301E+04  1.59188E+04  4.42606E+04
 -1.59118E+04  3.35649E+04 -2.54831E+04  1.77079E+03 -9.68375E+03 -2.75746E+04  2.10490E+04 -3.39018E+04
  4.12167E+04 -8.67162E+03  3.55789E+04  2.36319E+04  1.84313E+04  4.68557E+04 -7.83993E+03  5.06231E+04
 -3.18599E+04  3.36806E+04 -4.19818E+04  9.35676E+03 -4.23509E+04 -1.67677E+04 -2.35305E+04 -3.79866E+04
  7.14396E+03 -3.79583E+04  3.15383E+04 -1.48954E+04  2.93701E+04  1.09338E+04  4.07748E+03  1.89171E+04
 -1.33032E+04  8.17192E+03 -1.05661E+04 -7.52996E+03  5.69324E+03 -1.07652E+04  1.83281E+04  6.08617E+03
  1.36089E+04  2.19682E+04 -5.88051E+03  2.53888E+04 -2.24401E+04  1.15994E+04 -2.80479E+04 -4.56499E+03
 -2.05725E+04 -1.75380E+04 -8.32678E+03 -2.05132E+04  4.14611E+03 -1.96268E+04  1.56535E+04 -1.81664E+04
  2.64526E+04 -1.29375E+04  3.28157E+04  2.33052E+03  2.39838E+04  2.02699E+04  4.40785E+03  3.64377E+04
 -1.76437E+04  3.02347E+04 -2.82364E+04  1.03999E+04 -2.07592E+04 -1.03966E+04 -4.51048E+03 -1.36341E+04
  1.68582E+03 -2.44758E+03 -4.95265E+03  6.79596E+03 -1.63017E+04  4.95862E+03 -1.63404E+04 -7.00405E+03
 -1.02504E+04 -1.90894E+04  5.13929E+03 -2.31687E+04  1.55995E+04 -1.68162E+04  1.81487E+04 -1.58067E+03
  1.13023E+04  1.35073E+04 -1.02784E+03  1.94643E+04 -1.30780E+04  1.08642E+04 -1.91217E+04 -4.06064E+03
 -1.40103E+04 -1.75033E+04 -1.65804E+03 -2.32695E+04  1.03314E+04 -1.88564E+04  1.92563E+04 -9.37723E+03
  1.77524E+04  3.33178E+02  1.28241E+04  4.61484E+03  7.00580E+03  1.11645E+03  9.70797E+03 -1.35502E+03
  1.77347E+04  2.90927E+03  1.99567E+04  1.52339E+04  1.29277E+04  3.05796E+04 -3.06593E+03  3.46962E+04
 -1.97482E+04  2.79028E+04 -3.21551E+04  1.39260E+04 -3.34885E+04 -2.53562E+03 -2.76685E+04 -1.93367E+04
 -1.20796E+04 -2.75148E+04  9.62714E+03 -2.49702E+04  2.13904E+04 -1.27728E+04  1.95736E+04  5.85271E+03
  7.26953E+03  1.41838E+04 -8.90746E+03  1.27371E+04 -1.64220E+04  2.44816E+03 -1.23459E+04 -1.01555E+04
 -1.92867E+02 -1.52622E+04  7.94277E+03 -1.14727E+04  9.98689E+03 -1.26972E+03  2.49499E+03  6.72163E+03
 -7.01116E+03  2.35733E+03 -6.04432E+03 -5.20438E+03 -5.87708E+02 -1.32727E+04  9.28886E+03 -1.44570E+04
  1.69514E+04 -7.56952E+03  1.80187E+04  2.99233E+03  1.58257E+04  1.34651E+04  7.40407E+03  2.04421E+04
 -3.47661E+03  2.20748E+04 -1.43282E+04  1.37418E+04 -1.62983E+04  3.14779E+03 -1.09058E+04 -3.39566E+03
 -5.29233E+03 -4.79208E+03 -8.84760E+02  7.42966E+02 -2.31017E+03  2.89551E+03 -5.02151E+03  4.64211E+03
 -1.07967E+04 -9.35070E+02 -1.08330E+04 -9.25727E+03 -4.47702E+03 -1.49794E+04  4.65105E+03 -1.15051E+04
  9.48713E+03 -4.76807E+03  6.85072E+03  3.14816E+03  2.62614E+02  4.37028E+03 -5.52680E+03 -2.09124E+02
 -5.13180E+03 -7.13936E+03 -6.79469E+02 -1.06408E+04  6.08075E+03 -1.14324E+04  1.40831E+04 -5.99739E+03
  1.64434E+04  1.33023E+03  1.20883E+04  9.70448E+03  2.86609E+03  1.26644E+04 -7.22581E+03  1.12223E+04
 -9.30157E+03  3.35604E+03 -4.74541E+03 -2.25430E+03  1.76581E+03 -3.10250E+03  6.01278E+03 -9.62343E+02
  5.42794E+03  4.79285E+03  1.39716E+03  8.75637E+03 -6.28761E+03  8.72418E+03 -1.10125E+04  2.27225E+03
 -7.27212E+03 -5.41664E+03  7.17200E+01 -9.04041E+03  5.87099E+03 -4.69680E+03  5.85514E+03  1.75277E+03
  1.35243E+03  6.36228E+03 -5.85376E+03  7.32173E+03 -8.36620E+03  3.58764E+03 -8.22034E+03 -2.78636E+03
 -5.07070E+03 -9.71201E+03  2.52557E+03 -1.13076E+04  9.51761E+03 -7.27262E+03  1.06391E+04  1.88798E+03
  6.79746E+03  8.42550E+03 -3.27471E+02  1.03132E+04 -7.70288E+03  5.89407E+03 -8.42200E+03 -1.01066E+03
 -7.77488E+03 -7.39416E+03 -1.48520E+03 -7.70299E+03  4.11223E+03 -6.60349E+03  4.52464E+03 -3.22216E+03
  3.79672E+03  7.17462E+02  6.43338E+01  1.53130E+03  9.86428E+01 -1.43315E+03  1.01518E+03 -4.25768E+03
  6.89016E+03 -2.37659E+03  9.29729E+03  1.00751E+03  9.41992E+03  6.30263E+03  7.31486E+03  1.23225E+04
 -2.70346E+03  1.45522E+04 -1.21441E+04  1.06438E+04 -1.58251E+04  2.26209E+03 -1.25243E+04 -4.77119E+03
 -6.77228E+03 -1.03335E+04 -2.53400E+02 -8.59808E+03  3.25176E+03 -4.27452E+03  3.00461E+03 -3.11142E+03
  2.50591E+03 -2.32026E+03  2.75458E+03 -2.87709E+03  4.56982E+03 -1.84137E+03  5.28604E+03 -3.27148E+02
  6.76327E+03  1.82590E+03  2.85465E+03  5.55599E+03 -2.06058E+03  5.70249E+03 -7.18482E+03  4.81096E+03
 -8.25305E+03 -9.06262E+02 -4.73435E+03 -6.05695E+03 -3.34005E+02 -9.29895E+03  5.34416E+03 -9.02097E+03
  9.41383E+03 -5.09484E+03  1.14860E+04  1.01141E+03  8.22678E+03  7.64073E+03  1.49162E+03  1.06683E+04
 -3.92297E+03  9.01566E+03 -6.10241E+03  2.90531E+03 -3.74855E+03 -1.78626E+03 -1.25003E+03 -1.23716E+03
 -9.82259E+02  4.32330E+02 -1.52325E+03  2.19348E+03 -3.71851E+03  1.46832E+03 -6.03013E+03 -8.83456E+02
 -3.53691E+03 -5.87418E+03  2.99971E+02 -8.18397E+03  4.80724E+03 -7.84137E+03  7.45147E+03 -2.31897E+03
  7.63290E+03  4.13338E+03  3.65621E+03  6.99281E+03 -1.53113E+03  8.03926E+03 -5.34604E+03  4.62262E+03
 -7.41675E+03  5.46038E+02 -5.95084E+03 -4.69117E+03 -1.16008E+03 -6.02803E+03  3.27829E+03 -4.92373E+03
  5.08193E+03 -2.09437E+03  3.26832E+03  1.26503E+03  1.36057E+03  2.50247E+03  1.17323E+03  9.16313E+02
  1.89530E+03  1.09153E+03  2.17581E+03  1.35031E+03  2.12159E+03  3.20208E+03  2.36257E+03  3.76443E+03
 -1.73356E+03  6.10361E+03 -5.39991E+03  6.83649E+03 -7.47537E+03  1.46101E+03 -8.05038E+03 -2.67691E+03
 -3.76074E+03 -7.42418E+03  1.03871E+03 -8.44389E+03  4.30263E+03 -5.21907E+03  6.52752E+03 -1.87338E+03
  4.67869E+03  2.94782E+03  7.60881E+02  4.58148E+03 -1.77076E+03  2.92539E+03 -2.83412E+03 -1.87117E+02
 -1.48210E+03 -3.12199E+03  1.78435E+03 -3.21220E+03  2.92116E+03 -1.68939E+03  3.06682E+03  5.33653E+02
  1.50833E+03  1.18954E+03  1.17949E+03  6.45951E+02 -5.35142E+02  9.82856E+02  1.70766E+03 -2.28153E+02
  9.66785E+02 -1.95964E+02  3.17332E+03  1.35666E+03  1.48813E+03  4.25343E+03 -7.25923E+02  5.57327E+03
 -3.43602E+03  2.90251E+03 -4.64736E+03  7.63908E+02 -4.17037E+03 -1.63963E+03 -1.31361E+03 -2.73364E+03
  5.94860E+02 -2.40817E+03  1.68280E+03 -1.50224E+03  1.41418E+03  2.01925E+03 -1.10465E+03  2.45285E+03
 -3.05049E+03  1.31545E+03 -2.95826E+03 -2.02090E+03 -2.13294E+03 -4.34441E+03  4.93726E+02 -3.71766E+03
  1.75599E+03 -2.01494E+03  2.41350E+03 -1.21103E+02  2.55635E+03  5.11372E+02  3.95176E+02  2.08054E+03
 -1.11850E+03  4.45171E+02 -1.74051E+03 -9.39508E+02  6.17534E+02 -2.42597E+03  3.27565E+03 -2.33469E+03
  3.99257E+03  2.15125E+02  4.56579E+03  2.56345E+03  1.59345E+03  4.07608E+03 -1.18888E+03  4.32209E+03
 -3.39540E+03  1.38277E+03 -3.73348E+03 -9.86732E+01 -1.81067E+03 -2.81131E+03  5.16292E+02 -1.95426E+03
  2.93204E+03 -1.26060E+03  2.43766E+03  7.22305E+02  5.45032E+02  2.42831E+03 -9.76420E+01  2.05156E+03
 -9.29170E+02  1.99910E+03 -1.39174E+03  1.38231E+02 -1.24120E+02  5.03895E+02 -9.41103E+02  9.39148E+02
 -1.28829E+03  1.68729E+03 -3.01138E+03  1.09085E+03 -4.25259E+03  3.76298E+02 -4.99360E+03 -2.87369E+03
 -2.86768E+03 -5.24817E+03  8.97352E+02 -6.19851E+03  3.70099E+03 -5.39171E+03  6.03545E+03 -2.14339E+03
  5.52034E+03  8.45396E+02  3.35629E+03  3.56699E+03 -6.39496E+01  3.71501E+03 -2.14720E+03  3.23773E+03
 -2.14659E+03  1.16121E+03 -9.01545E+02 -2.30504E+02 -7.79233E+02 -1.01601E+02 -5.66430E+02  2.77510E+02
 -1.33513E+03 -1.40309E+02 -1.08067E+03 -2.62551E+01  1.06597E+02 -1.09742E+03 -1.03199E+02 -1.67725E+03
  2.28490E+03 -1.25112E+03  2.10370E+03  1.60967E+02  2.96700E+03  2.46018E+03  3.64931E+02  4.41502E+03
 -2.07752E+03  4.84898E+03 -4.06099E+03  2.86142E+03 -4.95963E+03 -3.92900E+02 -3.40557E+03 -3.19254E+03
 -1.72129E+03 -4.02282E+03  8.35231E+02 -3.27929E+03  2.41307E+03 -2.00953E+03  2.50498E+03  2.15340E+02
  1.64026E+03  1.26420E+03  1.96061E+02  9.38025E+02 -1.06174E+03  9.77578E+01 -3.50542E+01 -6.11477E+02
  1.41686E+03 -6.94889E+01  1.37731E+03  5.26795E+02  8.66478E+02  1.54555E+03  1.94493E+02  1.77498E+03
 -1.81603E+03  1.90966E+03 -2.34709E+03  2.31021E+02 -2.33845E+03 -1.66293E+03 -2.08792E+02 -3.07427E+03
  1.48111E+03 -2.42886E+03  2.80227E+03 -4.90418E+02  2.81198E+03  8.67660E-01  1.35574E+03  2.20626E+03
  5.78642E+02  1.97784E+03 -8.72672E+02  1.77607E+03 -1.52427E+03  1.31383E+03 -1.28830E+03  1.50618E+02
 -6.54337E+02 -2.67073E+02 -8.62409E+02  1.91050E+02 -1.22537E+03  1.20561E+02 -1.98327E+03 -5.09099E+02
 -1.82059E+03 -6.86968E+02 -7.62558E+02 -2.09407E+03  1.36926E+03 -2.98976E+03  2.05079E+03 -1.14528E+03
  2.36597E+03  1.96082E+02  7.30042E+02  1.46151E+03 -3.58597E+02  2.28261E+03 -1.75113E+03  1.92780E+03
