 $NMID ID='MM_0lb_SNR800_16hz_g55_54.RAW', FMTDAT='(8E13.5)'
 TRAMP=1., VOLUME=1. $END
  3.09633E+05  3.51868E+02  3.37774E+05  2.50632E+05  8.45395E+04  3.37936E+05 -1.32827E+05  2.51239E+05
 -1.90320E+05  8.31672E+04 -1.11478E+05 -3.26741E+04  9.47180E+02 -5.03602E+04  5.36792E+04 -1.19129E+02
  3.54183E+04  5.27173E+04 -1.68065E+04  7.55242E+04 -6.06674E+04  6.35576E+04 -8.42614E+04  3.16747E+04
 -8.09211E+04 -1.13667E+04 -5.70396E+04 -5.10538E+04 -1.52957E+04 -6.93178E+04  2.70622E+04 -4.56028E+04
  4.00228E+04  3.68965E+03  1.60011E+04  4.78041E+04 -3.43420E+04  4.71597E+04 -6.64664E+04 -2.18077E+02
 -5.34685E+04 -5.69954E+04 -6.71227E+03 -7.67483E+04  3.39428E+04 -5.46413E+04  4.76552E+04 -1.69823E+04
  4.30330E+04  1.11927E+04  3.16876E+04  2.52230E+04  1.56879E+04  2.91986E+04 -5.34382E+03  2.72393E+04
 -2.19687E+04  1.25892E+04 -1.86917E+04 -4.73674E+03  5.60786E+03 -7.55290E+03  2.19417E+04  1.21995E+04
  7.38077E+03  3.48919E+04 -3.17478E+04  3.54445E+04 -6.28959E+04  2.11334E+03 -5.65491E+04 -4.25638E+04
 -1.25286E+04 -6.27189E+04  3.97110E+04 -4.49399E+04  5.79232E+04 -1.93748E+03  3.37953E+04  3.20472E+04
 -6.04634E+03  3.58320E+04 -2.97585E+04  1.51223E+04 -3.01075E+04 -4.79867E+03 -1.62704E+04 -1.08926E+04
 -8.37873E+03 -1.25843E+04 -4.86320E+02 -1.78130E+04  7.37205E+03 -2.29002E+04  1.53895E+04 -1.37471E+04
  1.14579E+04  4.83157E+03 -7.79230E+03  1.28605E+04 -2.11427E+04 -3.94989E+03 -8.50647E+03 -3.32358E+04
  2.25284E+04 -4.34660E+04  4.75119E+04 -1.94728E+04  4.47308E+04  1.92166E+04  1.52005E+04  4.36270E+04
 -1.59223E+04  3.28272E+04 -2.50704E+04  1.57572E+03 -9.84808E+03 -2.73756E+04  2.10417E+04 -3.28956E+04
  4.03557E+04 -8.88919E+03  3.45575E+04  2.34975E+04  1.76022E+04  4.58299E+04 -7.88133E+03  4.94615E+04
 -3.09715E+04  3.28282E+04 -4.10353E+04  9.21853E+03 -4.16234E+04 -1.61899E+04 -2.32302E+04 -3.73035E+04
  7.00661E+03 -3.69727E+04  3.10799E+04 -1.42333E+04  2.86761E+04  1.07224E+04  3.81606E+03  1.88586E+04
 -1.32056E+04  8.03021E+03 -1.01902E+04 -7.56572E+03  5.59008E+03 -1.05106E+04  1.77590E+04  6.38251E+03
  1.30413E+04  2.19020E+04 -6.65896E+03  2.50135E+04 -2.21740E+04  1.08481E+04 -2.72393E+04 -5.27279E+03
 -1.95104E+04 -1.69832E+04 -7.74617E+03 -1.95096E+04  4.00749E+03 -1.83662E+04  1.50485E+04 -1.73126E+04
  2.51311E+04 -1.25418E+04  3.15687E+04  2.46888E+03  2.33116E+04  1.92690E+04  4.19296E+03  3.52845E+04
 -1.75183E+04  2.94897E+04 -2.73918E+04  1.00636E+04 -2.06015E+04 -1.02494E+04 -4.05183E+03 -1.37395E+04
  2.23099E+03 -3.09755E+03 -4.56377E+03  6.03338E+03 -1.54193E+04  5.23589E+03 -1.57121E+04 -6.29098E+03
 -9.70142E+03 -1.81795E+04  4.85513E+03 -2.22853E+04  1.47172E+04 -1.59982E+04  1.74647E+04 -1.60435E+03
  1.09311E+04  1.23967E+04 -1.21172E+03  1.81855E+04 -1.26420E+04  1.01827E+04 -1.81762E+04 -3.84962E+03
 -1.35206E+04 -1.64527E+04 -1.79491E+03 -2.19174E+04  1.01809E+04 -1.78958E+04  1.85477E+04 -8.63443E+03
  1.70046E+04  2.58609E+02  1.23705E+04  4.14540E+03  6.12951E+03  6.79713E+02  8.81770E+03 -1.41305E+03
  1.63755E+04  2.78250E+03  1.81675E+04  1.46471E+04  1.18526E+04  2.84211E+04 -2.95226E+03  3.21606E+04
 -1.88061E+04  2.52565E+04 -2.99609E+04  1.23732E+04 -3.10592E+04 -2.26742E+03 -2.58980E+04 -1.78602E+04
 -1.13390E+04 -2.56655E+04  8.71668E+03 -2.32513E+04  2.00968E+04 -1.21785E+04  1.80953E+04  4.99032E+03
  7.25518E+03  1.35915E+04 -8.52608E+03  1.19539E+04 -1.53468E+04  2.44666E+03 -1.17403E+04 -9.49373E+03
 -1.39768E+02 -1.43896E+04  7.24086E+03 -1.07243E+04  9.60012E+03 -1.28690E+03  2.08272E+03  5.72792E+03
 -6.48672E+03  2.13541E+03 -5.32194E+03 -5.40406E+03 -2.09231E+02 -1.27451E+04  9.32612E+03 -1.29999E+04
  1.53630E+04 -6.84009E+03  1.60534E+04  2.98750E+03  1.42323E+04  1.23243E+04  6.51620E+03  1.81685E+04
 -2.91382E+03  2.01787E+04 -1.26736E+04  1.26249E+04 -1.44387E+04  3.05719E+03 -1.05409E+04 -2.95654E+03
 -4.98031E+03 -4.34118E+03 -8.58785E+02  1.17069E+03 -2.29330E+03  2.48758E+03 -4.82520E+03  4.14322E+03
 -9.73589E+03 -5.71679E+02 -1.06052E+04 -8.55915E+03 -4.21942E+03 -1.37045E+04  4.25745E+03 -1.04466E+04
  8.79192E+03 -4.56993E+03  6.39477E+03  2.58060E+03  6.91830E+01  3.95577E+03 -4.49523E+03 -1.57145E+02
 -4.46962E+03 -6.70811E+03 -7.51898E+02 -9.52690E+03  5.22541E+03 -1.03491E+04  1.24917E+04 -5.30852E+03
  1.49659E+04  1.01462E+03  1.10659E+04  8.27981E+03  1.95767E+03  1.15673E+04 -6.54744E+03  1.05327E+04
 -8.61873E+03  3.22496E+03 -4.06542E+03 -1.98004E+03  1.69514E+03 -2.60664E+03  5.44691E+03 -1.16995E+03
  4.74976E+03  4.42573E+03  1.51105E+03  7.94728E+03 -5.61054E+03  7.71430E+03 -9.70285E+03  1.77204E+03
 -6.26906E+03 -4.94096E+03  2.03563E+02 -8.31533E+03  4.79263E+03 -4.18777E+03  5.06310E+03  1.51391E+03
  1.00505E+03  4.99074E+03 -5.04678E+03  6.38257E+03 -7.10807E+03  2.84546E+03 -6.82861E+03 -2.33539E+03
 -4.22472E+03 -8.19725E+03  1.90505E+03 -9.75142E+03  8.38169E+03 -5.83397E+03  8.82318E+03  1.52420E+03
  5.98935E+03  7.10628E+03 -3.16556E+02  9.28529E+03 -6.70494E+03  5.31942E+03 -7.03237E+03 -6.78639E+02
 -6.92893E+03 -6.45115E+03 -1.43092E+03 -6.60239E+03  3.51847E+03 -5.97970E+03  4.07853E+03 -3.34246E+03
  3.58867E+03  7.85535E+02 -4.21819E+02  1.11066E+03  9.31453E+01 -9.15498E+02  4.65685E+02 -3.04458E+03
  5.82335E+03 -1.68552E+03  7.42730E+03  7.48549E+02  7.76324E+03  4.77716E+03  6.36346E+03  9.98700E+03
 -2.15156E+03  1.21622E+04 -1.05196E+04  9.08520E+03 -1.34986E+04  1.45917E+03 -1.08280E+04 -4.16485E+03
 -5.44930E+03 -9.01484E+03 -4.29394E+02 -7.35152E+03  2.98534E+03 -3.73028E+03  2.47666E+03 -2.84370E+03
  1.92387E+03 -2.14495E+03  2.41694E+03 -2.55094E+03  3.97938E+03 -1.77216E+03  4.67043E+03  1.53379E+02
  5.73654E+03  1.43394E+03  2.22484E+03  4.89707E+03 -1.71800E+03  4.47015E+03 -5.85579E+03  3.92183E+03
 -6.99155E+03 -1.08283E+03 -3.42180E+03 -4.90815E+03  3.81978E+02 -7.29174E+03  4.47852E+03 -7.31746E+03
  7.59723E+03 -4.35522E+03  9.57038E+03  4.93718E+02  6.82510E+03  6.27698E+03  1.20794E+03  7.99663E+03
 -3.37792E+03  7.73841E+03 -4.61891E+03  2.49007E+03 -2.93836E+03 -1.31109E+03 -1.05396E+03 -7.79208E+02
 -7.35506E+02 -3.93273E+01 -1.39653E+03  2.13845E+03 -3.39909E+03  1.30440E+03 -5.25427E+03 -6.93126E+02
 -2.62178E+03 -5.14107E+03  6.04680E+02 -6.57888E+03  4.01302E+03 -6.10456E+03  5.86508E+03 -1.75576E+03
  6.10074E+03  3.40248E+03  2.54757E+03  5.42534E+03 -1.19069E+03  6.36973E+03 -4.12922E+03  3.89838E+03
 -5.72457E+03  5.80010E+02 -4.75767E+03 -3.65409E+03 -6.77023E+02 -4.94293E+03  2.39996E+03 -3.43815E+03
  3.98836E+03 -1.44489E+03  2.74276E+03  1.13838E+03  7.15063E+02  2.11533E+03  1.13215E+03  8.98329E+02
  2.09593E+03  6.24323E+02  1.44869E+03  1.01321E+03  1.53119E+03  2.69603E+03  1.58929E+03  3.05161E+03
 -1.73302E+03  4.53731E+03 -3.84366E+03  5.71524E+03 -5.29781E+03  1.91065E+03 -6.17203E+03 -1.56800E+03
 -2.73186E+03 -5.70610E+03  9.34882E+02 -6.99759E+03  3.06538E+03 -3.91572E+03  5.17792E+03 -1.15203E+03
  3.83622E+03  2.28165E+03  6.56806E+02  3.17180E+03 -1.51561E+03  1.99938E+03 -1.90174E+03  1.34778E+01
 -9.91536E+02 -2.38756E+03  1.45055E+03 -2.32315E+03  2.25882E+03 -1.31059E+03  1.91562E+03  4.97656E+02
  1.26757E+03  5.16375E+02  1.15050E+03  1.92895E+01 -3.74024E+02  9.79746E+02  1.38886E+03 -4.47449E+02
  6.41575E+02 -3.25993E+02  2.36824E+03  8.15622E+02  7.19234E+02  3.49100E+03 -8.64193E+02  4.17837E+03
 -2.59453E+03  2.06347E+03 -3.22683E+03  7.23226E+02 -3.06244E+03 -1.28897E+03 -8.47364E+02 -1.75065E+03
  5.70180E+02 -2.15369E+03  1.45090E+03 -1.18179E+03  1.06674E+03  1.79134E+03 -7.28159E+02  1.49615E+03
 -2.03586E+03  1.13913E+03 -1.76253E+03 -1.88475E+03 -1.30312E+03 -3.20122E+03  2.75080E+02 -2.55514E+03
  1.20098E+03 -1.10858E+03  1.46853E+03 -1.51789E+02  1.64257E+03  5.78344E+02  7.81898E+02  2.15586E+03
 -1.04903E+03  4.20520E+02 -1.27168E+03 -7.86059E+02  8.41208E+02 -1.79119E+03  2.87214E+03 -1.53134E+03
  2.39239E+03  2.97088E+02  3.75367E+03  1.69101E+03  1.49321E+03  2.93295E+03 -9.01251E+02  2.88562E+03
 -2.41826E+03  8.83613E+02 -2.39164E+03 -3.24100E+02 -1.26744E+03 -2.21314E+03  5.27390E+02 -1.40249E+03
  2.06910E+03 -9.35744E+02  1.28681E+03  9.00509E+02  4.22304E+02  1.51009E+03  2.11583E+02  1.72963E+03
 -3.96709E+02  1.43728E+03 -6.29507E+02  4.79272E+02 -1.26219E+02  3.67815E+02 -8.50272E+02  7.41966E+02
 -9.03792E+02  1.47223E+03 -2.47532E+03  7.75760E+02 -2.72434E+03  3.50116E+02 -3.53785E+03 -1.94507E+03
 -1.62848E+03 -3.62492E+03  1.01779E+03 -4.40471E+03  1.94984E+03 -3.54402E+03  4.40714E+03 -1.68453E+03
  3.78560E+03  1.12698E+02  2.16507E+03  2.54057E+03 -1.02052E+02  2.53438E+03 -9.85092E+02  2.10236E+03
 -1.41217E+03  9.50697E+02 -9.52156E+02 -1.98831E+02 -4.13219E+02  5.09902E-01 -6.12301E+02 -1.31678E+02
 -1.06884E+03 -1.86490E+02 -1.18447E+03 -1.81118E+02  2.04618E+01 -6.79175E+02 -4.53743E+02 -1.41295E+03
  1.77930E+03 -9.14474E+02  1.07033E+03  4.28911E+01  1.91794E+03  1.67395E+03  2.31528E+02  2.33608E+03
 -1.71454E+03  3.61268E+03 -2.61749E+03  1.76800E+03 -3.00943E+03 -2.08678E+02 -2.16460E+03 -1.89161E+03
 -1.53469E+03 -2.46069E+03  6.05601E+02 -2.39906E+03  1.35970E+03 -9.67569E+02  1.55596E+03  1.90870E+02
  1.05321E+03  5.19285E+02  2.20017E+02  3.57839E+02 -6.75353E+02 -1.50189E+02 -1.57808E+02 -3.75494E+02
  7.24279E+02  2.42295E+02  7.18441E+02  8.02912E+02  3.90783E+02  8.91133E+02  2.61661E+02  9.72489E+02
 -1.08177E+03  1.08028E+03 -1.34864E+03  5.72342E+02 -1.29860E+03 -6.11950E+02  1.21257E+02 -1.95640E+03
  1.07844E+03 -1.31580E+03  1.44194E+03 -3.72994E+01  1.72331E+03 -1.41433E+02  9.37791E+02  1.42478E+03
  4.85928E+02  1.56763E+03 -4.96458E+02  1.58626E+03 -1.23186E+03  5.61982E+02 -8.74905E+02  2.15329E+02
 -2.37391E+02 -6.68183E+01 -7.97217E+02  2.34015E+02 -6.27721E+02  3.47666E+02 -1.10093E+03 -4.11076E+02
 -1.34244E+03  2.31964E+02 -4.63555E+02 -1.43251E+03  9.13825E+02 -2.04151E+03  1.22720E+03 -4.85724E+02
  1.17689E+03  1.60193E+02  1.99887E+01  8.50841E+02 -4.62446E+02  1.30830E+03 -1.06435E+03  1.08627E+03
