 $NMID ID='MM_0lb_SNR800_11hz_g40_9.RAW', FMTDAT='(8E13.5)'
 TRAMP=1., VOLUME=1. $END
  3.10014E+05  5.35126E+01  3.37252E+05  2.50568E+05  8.49616E+04  3.38159E+05 -1.32415E+05  2.50891E+05
 -1.90588E+05  8.35117E+04 -1.11924E+05 -3.24904E+04  6.17714E+02 -5.07608E+04  5.36800E+04 -5.65903E+01
  3.57563E+04  5.31121E+04 -1.69626E+04  7.58976E+04 -6.12118E+04  6.39252E+04 -8.45952E+04  3.20774E+04
 -8.16240E+04 -1.14330E+04 -5.73535E+04 -5.16191E+04 -1.51725E+04 -7.01175E+04  2.80643E+04 -4.61968E+04
  4.04439E+04  4.05778E+03  1.62020E+04  4.80590E+04 -3.44962E+04  4.74127E+04 -6.72804E+04 -1.23575E+02
 -5.38280E+04 -5.70153E+04 -7.00731E+03 -7.77531E+04  3.38678E+04 -5.56279E+04  4.87843E+04 -1.76569E+04
  4.40181E+04  1.11395E+04  3.24330E+04  2.56627E+04  1.59672E+04  2.99609E+04 -5.61071E+03  2.74497E+04
 -2.22793E+04  1.23289E+04 -1.84075E+04 -5.14294E+03  6.17742E+03 -6.96359E+03  2.24438E+04  1.25565E+04
  7.11349E+03  3.58342E+04 -3.29087E+04  3.63842E+04 -6.42146E+04  2.05255E+03 -5.77342E+04 -4.35704E+04
 -1.27792E+04 -6.41765E+04  4.04985E+04 -4.59926E+04  5.93906E+04 -2.11286E+03  3.49139E+04  3.30782E+04
 -5.61991E+03  3.72573E+04 -3.09026E+04  1.69614E+04 -3.14768E+04 -4.20491E+03 -1.74785E+04 -1.12886E+04
 -8.76664E+03 -1.38155E+04 -3.13529E+02 -1.87108E+04  7.53477E+03 -2.30666E+04  1.58479E+04 -1.30119E+04
  1.10761E+04  5.54614E+03 -8.71290E+03  1.29607E+04 -2.22027E+04 -5.51216E+03 -8.26324E+03 -3.50392E+04
  2.36606E+04 -4.49968E+04  4.94641E+04 -2.03655E+04  4.63557E+04  1.99591E+04  1.62971E+04  4.54068E+04
 -1.61393E+04  3.46257E+04 -2.61890E+04  2.31749E+03 -1.06628E+04 -2.82551E+04  2.14804E+04 -3.48213E+04
  4.20530E+04 -9.82189E+03  3.75706E+04  2.41437E+04  1.93889E+04  4.81564E+04 -8.33852E+03  5.25544E+04
 -3.31146E+04  3.55499E+04 -4.38749E+04  1.01350E+04 -4.46352E+04 -1.72633E+04 -2.45448E+04 -3.92352E+04
  7.71918E+03 -3.94880E+04  3.28652E+04 -1.54618E+04  3.04449E+04  1.08333E+04  4.44206E+03  2.00820E+04
 -1.33397E+04  8.94242E+03 -1.04451E+04 -7.47525E+03  6.00555E+03 -1.12655E+04  1.85379E+04  5.99126E+03
  1.39545E+04  2.19085E+04 -5.53857E+03  2.58243E+04 -2.28369E+04  1.29449E+04 -2.92267E+04 -4.49939E+03
 -2.24858E+04 -1.75885E+04 -9.42286E+03 -2.22354E+04  4.56264E+03 -2.16459E+04  1.75469E+04 -2.00414E+04
  2.86227E+04 -1.37448E+04  3.49021E+04  3.72704E+03  2.49604E+04  2.17945E+04  4.59343E+03  3.82987E+04
 -1.85845E+04  3.17347E+04 -2.88898E+04  1.10016E+04 -2.14385E+04 -1.03004E+04 -4.61415E+03 -1.32830E+04
  1.43136E+03 -1.84657E+03 -5.71308E+03  7.35487E+03 -1.81684E+04  5.17688E+03 -1.79291E+04 -7.76360E+03
 -1.07118E+04 -2.10053E+04  5.72041E+03 -2.48088E+04  1.68409E+04 -1.79254E+04  2.00265E+04 -1.52418E+03
  1.23991E+04  1.43089E+04 -1.45934E+03  2.07362E+04 -1.45012E+04  1.16229E+04 -2.06135E+04 -4.35572E+03
 -1.54082E+04 -1.87567E+04 -1.75892E+03 -2.50703E+04  1.13799E+04 -2.07216E+04  2.02492E+04 -1.03122E+04
  1.98660E+04  1.86287E+02  1.38381E+04  4.58059E+03  7.72871E+03  1.18778E+03  1.06877E+04 -1.52119E+03
  1.93363E+04  3.01331E+03  2.15634E+04  1.66876E+04  1.48504E+04  3.31609E+04 -2.73757E+03  3.82327E+04
 -2.21137E+04  3.13510E+04 -3.57218E+04  1.58615E+04 -3.81200E+04 -2.59244E+03 -3.11557E+04 -2.22829E+04
 -1.30012E+04 -3.11391E+04  1.11878E+04 -2.77848E+04  2.37767E+04 -1.38603E+04  2.12397E+04  6.50164E+03
  7.71106E+03  1.64471E+04 -1.02524E+04  1.35532E+04 -1.78869E+04  2.76713E+03 -1.34925E+04 -1.13560E+04
 -1.93934E+02 -1.67193E+04  9.07871E+03 -1.27420E+04  1.11919E+04 -1.26791E+03  2.39875E+03  7.50377E+03
 -7.62832E+03  3.15911E+03 -7.18358E+03 -6.05067E+03 -8.83482E+02 -1.54930E+04  1.06760E+04 -1.65840E+04
  1.89353E+04 -8.71155E+03  2.14208E+04  3.39766E+03  1.85407E+04  1.54491E+04  8.87995E+03  2.38677E+04
 -4.15176E+03  2.59408E+04 -1.66612E+04  1.61881E+04 -1.87330E+04  3.57312E+03 -1.29052E+04 -4.56726E+03
 -5.73808E+03 -5.92003E+03 -6.32909E+02  3.03768E+02 -2.78261E+03  2.92741E+03 -6.27113E+03  4.92374E+03
 -1.20580E+04 -8.24038E+02 -1.28585E+04 -1.02813E+04 -4.83592E+03 -1.63532E+04  5.60466E+03 -1.29861E+04
  1.11324E+04 -5.48329E+03  7.67061E+03  3.74551E+03  2.58816E+02  4.91964E+03 -6.04417E+03 -2.71400E+02
 -5.92296E+03 -8.61739E+03 -9.05415E+02 -1.29693E+04  7.43923E+03 -1.31999E+04  1.67516E+04 -7.44177E+03
  1.93391E+04  1.68709E+03  1.39649E+04  1.14315E+04  3.12175E+03  1.54054E+04 -7.99594E+03  1.29102E+04
 -1.05277E+04  4.07949E+03 -5.58825E+03 -2.59718E+03  1.40156E+03 -3.45795E+03  7.26615E+03 -1.15208E+03
  6.12896E+03  5.75955E+03  1.13949E+03  1.01029E+04 -7.09254E+03  9.99515E+03 -1.27921E+04  2.46601E+03
 -8.60194E+03 -6.56415E+03  4.21808E+02 -1.10870E+04  7.14236E+03 -5.52334E+03  6.98276E+03  2.60320E+03
  1.81054E+03  7.77719E+03 -6.80643E+03  9.38680E+03 -1.05620E+04  4.04208E+03 -1.06463E+04 -3.78389E+03
 -6.08007E+03 -1.20508E+04  2.94233E+03 -1.40565E+04  1.21047E+04 -8.57316E+03  1.33336E+04  2.52281E+03
  8.10660E+03  1.04317E+04 -1.03820E+03  1.28407E+04 -9.41364E+03  6.98851E+03 -1.02010E+04 -1.12325E+03
 -8.84482E+03 -8.55233E+03 -1.59647E+03 -9.66927E+03  5.03279E+03 -8.07480E+03  5.97837E+03 -2.95787E+03
  4.64423E+03  1.59402E+03 -9.23641E+02  1.70178E+03 -1.24901E+02 -2.25828E+03  1.77963E+03 -5.68512E+03
  8.80648E+03 -3.47574E+03  1.24062E+04  1.64926E+03  1.20040E+04  8.21924E+03  8.38565E+03  1.58840E+04
 -3.51903E+03  1.82106E+04 -1.54302E+04  1.40542E+04 -2.04685E+04  2.72632E+03 -1.62998E+04 -6.63618E+03
 -8.11640E+03 -1.32195E+04 -3.70315E+02 -1.10109E+04  4.28719E+03 -5.85256E+03  4.03556E+03 -4.06739E+03
  3.07911E+03 -2.80130E+03  2.98702E+03 -3.40032E+03  4.93138E+03 -2.53727E+03  6.82250E+03 -1.01377E+03
  8.31504E+03  1.95098E+03  3.91092E+03  7.34613E+03 -2.02039E+03  8.50718E+03 -8.89514E+03  6.47763E+03
 -1.08311E+04 -1.50048E+03 -6.62348E+03 -7.58608E+03 -6.17384E+02 -1.17472E+04  6.95236E+03 -1.19094E+04
  1.21986E+04 -6.86479E+03  1.49942E+04  1.50284E+03  1.04872E+04  1.01776E+04  1.54127E+03  1.35143E+04
 -5.66688E+03  1.10459E+04 -7.70381E+03  3.69986E+03 -5.43815E+03 -1.39539E+03 -2.24900E+03 -1.60511E+03
 -1.05719E+03  1.61741E+02 -1.68415E+03  2.76326E+03 -5.18115E+03  1.83016E+03 -7.83016E+03 -1.16899E+03
 -5.03650E+03 -8.09950E+03  3.49506E+02 -1.08672E+04  6.94750E+03 -1.04319E+04  1.07940E+04 -3.15219E+03
  1.09000E+04  5.29250E+03  4.94018E+03  1.00575E+04 -2.30312E+03  1.11049E+04 -7.69543E+03  6.84956E+03
 -1.01564E+04  5.21651E+02 -8.21027E+03 -6.41465E+03 -1.20169E+03 -8.98674E+03  4.69088E+03 -6.63179E+03
  6.71444E+03 -2.58862E+03  4.55103E+03  1.72186E+03  1.61637E+03  3.45711E+03  1.06652E+03  1.40362E+03
  2.34650E+03  9.09188E+02  2.56149E+03  1.68866E+03  3.15254E+03  4.06552E+03  3.16327E+03  5.76028E+03
 -2.57426E+03  8.61279E+03 -7.75116E+03  8.76297E+03 -1.09945E+04  2.47247E+03 -1.13502E+04 -4.23975E+03
 -5.26922E+03 -1.09449E+04  1.66116E+03 -1.19351E+04  6.67476E+03 -7.57555E+03  8.84402E+03 -2.03846E+03
  6.81963E+03  4.15854E+03  1.37824E+03  6.13020E+03 -2.77232E+03  3.88986E+03 -4.23885E+03 -3.31708E+02
 -1.69870E+03 -4.36940E+03  2.56304E+03 -4.35696E+03  4.33250E+03 -2.25503E+03  3.93426E+03  9.08973E+02
  2.75382E+03  1.81011E+03  7.75367E+02  1.57085E+03 -3.38356E+02  1.48865E+03  1.72541E+03 -6.67681E+02
  1.56225E+03 -5.67447E+02  4.51776E+03  1.44972E+03  2.06061E+03  5.88284E+03 -8.35347E+02  7.43681E+03
 -4.84849E+03  4.66865E+03 -6.75244E+03  9.89419E+02 -6.17816E+03 -2.64076E+03 -2.27201E+03 -4.35377E+03
  7.92252E+02 -4.36091E+03  2.79609E+03 -2.09212E+03  2.36918E+03  2.26058E+03 -9.85407E+02  3.41018E+03
 -4.27505E+03  2.20301E+03 -5.00606E+03 -2.69473E+03 -2.44588E+03 -6.08303E+03  3.83134E+02 -5.71654E+03
  3.28897E+03 -3.36026E+03  4.09775E+03 -6.17458E+02  3.56301E+03  1.03884E+03  5.29666E+02  3.27814E+03
 -1.84566E+03  9.90521E+02 -2.39770E+03 -1.88291E+03  8.27374E+02 -4.64017E+03  5.28131E+03 -3.37094E+03
  6.70775E+03  3.37128E+02  6.54998E+03  4.23258E+03  2.22709E+03  6.83819E+03 -2.53159E+03  6.86480E+03
 -5.45236E+03  2.35393E+03 -5.70868E+03 -1.18281E+03 -3.01925E+03 -4.81281E+03  7.30238E+02 -4.17429E+03
  4.47700E+03 -2.10500E+03  3.26699E+03  1.89749E+03  1.16288E+03  3.70275E+03 -6.12405E+02  3.66181E+03
 -1.42606E+03  2.15930E+03 -1.75794E+03  7.83420E+02 -6.68194E+02  7.14853E+02 -9.91942E+02  1.35817E+03
 -1.66877E+03  2.54230E+03 -4.81445E+03  2.19434E+03 -6.87656E+03  5.76261E+02 -7.60431E+03 -4.54370E+03
 -4.23765E+03 -9.00378E+03  1.68554E+03 -1.04440E+04  6.16246E+03 -8.27912E+03  9.77139E+03 -3.34652E+03
  9.15701E+03  1.52061E+03  5.58511E+03  6.02275E+03  1.22283E+02  6.97943E+03 -2.65162E+03  5.09697E+03
 -3.92600E+03  2.14975E+03 -2.32215E+03 -8.96306E+02 -9.83434E+02 -7.58954E+02 -8.38069E+02 -4.35424E+02
 -1.17134E+03 -1.15230E+02 -1.89535E+03 -4.30158E+02 -1.54899E+02 -1.70133E+03  3.08502E+01 -2.53400E+03
  3.40793E+03 -2.39136E+03  3.88775E+03  2.65026E+02  4.80243E+03  3.73103E+03  1.13485E+03  6.78343E+03
 -3.43792E+03  8.00673E+03 -7.00750E+03  4.62626E+03 -8.65434E+03 -5.22367E+02 -6.02252E+03 -5.36008E+03
 -2.83001E+03 -7.16227E+03  1.66205E+03 -6.28667E+03  4.43130E+03 -3.34644E+03  4.60237E+03  2.44997E+02
  2.49993E+03  2.24120E+03 -6.58832E+00  1.75659E+03 -1.63360E+03 -1.26130E+02 -7.56178E+01 -1.64394E+03
  2.05261E+03 -9.30661E+02  2.58497E+03  1.19784E+03  1.70643E+03  2.49104E+03  2.15098E+02  3.24600E+03
 -2.92651E+03  2.81348E+03 -4.45799E+03  4.11714E+02 -3.87488E+03 -3.08556E+03 -4.53678E+02 -5.57522E+03
  2.90981E+03 -4.11766E+03  4.97130E+03 -1.38853E+03  5.36967E+03  9.90986E+02  2.90753E+03  4.34005E+03
  5.88553E+02  4.57185E+03 -1.55315E+03  3.56111E+03 -2.55644E+03  2.00304E+03 -2.39563E+03  3.12218E+02
 -1.18482E+03  1.44091E+02 -1.19124E+03  8.27281E+02 -2.23328E+03  7.91651E+02 -3.17105E+03 -7.97425E+02
 -3.37277E+03 -2.11333E+03 -9.64850E+02 -4.46662E+03  1.77901E+03 -5.22721E+03  3.89774E+03 -1.86954E+03
  4.63908E+03  6.10982E+02  2.23823E+03  3.13367E+03 -6.31143E+02  4.40735E+03 -3.41519E+03  2.76952E+03
