 $NMID ID='MM_0lb_SNR800_16hz_g55_66.RAW', FMTDAT='(8E13.5)'
 TRAMP=1., VOLUME=1. $END
  3.09851E+05  5.39661E+02  3.37630E+05  2.50269E+05  8.45943E+04  3.38104E+05 -1.32444E+05  2.50987E+05
 -1.90445E+05  8.28256E+04 -1.11645E+05 -3.26511E+04  1.02780E+03 -5.03125E+04  5.42574E+04 -1.41489E+02
  3.53527E+04  5.31395E+04 -1.70422E+04  7.54003E+04 -6.09089E+04  6.34570E+04 -8.41139E+04  3.15235E+04
 -8.08645E+04 -1.13929E+04 -5.73260E+04 -5.07601E+04 -1.50154E+04 -6.94721E+04  2.73777E+04 -4.57420E+04
  3.99259E+04  3.77624E+03  1.59236E+04  4.79652E+04 -3.42727E+04  4.71530E+04 -6.63629E+04 -2.32776E+02
 -5.30497E+04 -5.66828E+04 -6.60354E+03 -7.64359E+04  3.39159E+04 -5.46207E+04  4.77907E+04 -1.71015E+04
  4.28869E+04  1.14454E+04  3.14896E+04  2.48983E+04  1.58471E+04  2.95340E+04 -5.09020E+03  2.70194E+04
 -2.19913E+04  1.26724E+04 -1.87937E+04 -4.77501E+03  5.22997E+03 -7.39501E+03  2.22322E+04  1.22526E+04
  7.25851E+03  3.52278E+04 -3.19373E+04  3.52464E+04 -6.30154E+04  2.04058E+03 -5.67637E+04 -4.26841E+04
 -1.25795E+04 -6.27970E+04  3.95823E+04 -4.48018E+04  5.79216E+04 -2.09241E+03  3.39407E+04  3.19902E+04
 -6.18293E+03  3.56016E+04 -2.95102E+04  1.55662E+04 -2.98368E+04 -4.54370E+03 -1.62942E+04 -1.07365E+04
 -8.16580E+03 -1.28994E+04 -7.54099E+02 -1.79434E+04  7.26491E+03 -2.28181E+04  1.51996E+04 -1.32329E+04
  1.13319E+04  5.14560E+03 -7.67225E+03  1.29454E+04 -2.09585E+04 -4.01582E+03 -8.26431E+03 -3.31315E+04
  2.24360E+04 -4.29367E+04  4.73954E+04 -1.94924E+04  4.45791E+04  1.91925E+04  1.52359E+04  4.37606E+04
 -1.59832E+04  3.29852E+04 -2.48505E+04  1.61657E+03 -9.47529E+03 -2.72235E+04  2.11063E+04 -3.30911E+04
  4.05274E+04 -8.73011E+03  3.46422E+04  2.33948E+04  1.76721E+04  4.56731E+04 -7.80888E+03  4.91936E+04
 -3.10145E+04  3.31185E+04 -4.09422E+04  9.05496E+03 -4.18734E+04 -1.64968E+04 -2.29801E+04 -3.72946E+04
  7.28056E+03 -3.68358E+04  3.12615E+04 -1.41940E+04  2.88675E+04  1.08649E+04  3.78482E+03  1.88753E+04
 -1.34041E+04  8.34135E+03 -1.04529E+04 -7.58033E+03  5.97120E+03 -1.06941E+04  1.76666E+04  6.10594E+03
  1.30775E+04  2.20083E+04 -6.06266E+03  2.45026E+04 -2.21767E+04  1.09548E+04 -2.74813E+04 -5.05864E+03
 -1.98133E+04 -1.70897E+04 -7.72571E+03 -1.94734E+04  3.81490E+03 -1.83365E+04  1.50478E+04 -1.73232E+04
  2.48365E+04 -1.22940E+04  3.15496E+04  2.37776E+03  2.32832E+04  1.90442E+04  4.23571E+03  3.54591E+04
 -1.71621E+04  2.97511E+04 -2.75668E+04  1.03415E+04 -2.05221E+04 -1.04317E+04 -4.30982E+03 -1.32316E+04
  1.92628E+03 -3.27580E+03 -4.28808E+03  6.44011E+03 -1.55068E+04  5.08764E+03 -1.57094E+04 -6.68280E+03
 -9.76366E+03 -1.81392E+04  4.96115E+03 -2.19331E+04  1.45705E+04 -1.56816E+04  1.70386E+04 -1.57759E+03
  1.06647E+04  1.22595E+04 -9.16810E+02  1.80220E+04 -1.23317E+04  1.03142E+04 -1.81344E+04 -3.92792E+03
 -1.34404E+04 -1.62443E+04 -1.72069E+03 -2.19231E+04  9.74644E+03 -1.76370E+04  1.85047E+04 -8.78130E+03
  1.70970E+04  7.52062E+02  1.21885E+04  3.83140E+03  6.33534E+03  5.92917E+02  9.20268E+03 -1.39298E+03
  1.65071E+04  2.60785E+03  1.78942E+04  1.45237E+04  1.17145E+04  2.90948E+04 -2.90628E+03  3.21725E+04
 -1.86865E+04  2.54189E+04 -2.97159E+04  1.26778E+04 -3.10509E+04 -2.02406E+03 -2.60402E+04 -1.75557E+04
 -1.13824E+04 -2.53524E+04  9.00809E+03 -2.32513E+04  2.03545E+04 -1.24730E+04  1.81918E+04  4.93264E+03
  6.85682E+03  1.34201E+04 -8.55546E+03  1.19675E+04 -1.56036E+04  2.52825E+03 -1.19078E+04 -9.39011E+03
 -2.07189E+01 -1.45763E+04  7.44821E+03 -1.09512E+04  9.74841E+03 -1.39619E+03  1.74939E+03  6.18181E+03
 -6.74153E+03  2.19466E+03 -5.49662E+03 -5.43141E+03  5.35199E+01 -1.26000E+04  8.88457E+03 -1.28161E+04
  1.52172E+04 -6.66142E+03  1.59545E+04  2.98621E+03  1.38277E+04  1.20592E+04  6.52071E+03  1.83682E+04
 -2.61839E+03  2.02091E+04 -1.28888E+04  1.27970E+04 -1.45861E+04  3.68339E+03 -1.00602E+04 -2.90565E+03
 -5.35737E+03 -4.36438E+03 -6.62944E+02  1.33300E+03 -2.10489E+03  2.11026E+03 -4.52421E+03  4.04097E+03
 -9.63321E+03 -6.62907E+02 -1.03861E+04 -8.53780E+03 -4.24044E+03 -1.36044E+04  4.20707E+03 -1.04825E+04
  8.98969E+03 -4.44564E+03  6.05538E+03  2.91844E+03  7.67579E+01  3.73065E+03 -4.58370E+03 -3.04542E+02
 -4.58798E+03 -6.54671E+03 -1.00517E+03 -9.37761E+03  5.32304E+03 -1.01470E+04  1.28562E+04 -5.20143E+03
  1.46304E+04  9.88397E+02  1.08125E+04  8.38619E+03  2.19196E+03  1.15302E+04 -6.23845E+03  1.00711E+04
 -8.51799E+03  3.16746E+03 -4.29374E+03 -1.75679E+03  1.47873E+03 -2.70513E+03  5.79975E+03 -1.24033E+03
  4.98075E+03  4.09861E+03  1.10431E+03  8.06170E+03 -5.39576E+03  8.01297E+03 -9.78549E+03  2.11189E+03
 -6.53505E+03 -4.65315E+03  8.37238E+01 -8.29533E+03  4.99320E+03 -4.13767E+03  5.18327E+03  1.44878E+03
  9.94017E+02  5.01111E+03 -5.03746E+03  6.40324E+03 -7.18827E+03  3.04370E+03 -6.83928E+03 -2.26338E+03
 -4.20556E+03 -8.23588E+03  1.84176E+03 -1.00407E+04  8.18807E+03 -6.29311E+03  9.08034E+03  1.40557E+03
  5.67466E+03  7.21274E+03 -1.68645E+02  9.29503E+03 -6.35661E+03  5.35656E+03 -7.17284E+03 -7.46647E+02
 -6.95132E+03 -6.40927E+03 -1.56474E+03 -6.83986E+03  3.50273E+03 -5.51588E+03  3.95298E+03 -3.07756E+03
  3.25704E+03  5.59343E+02 -1.06939E+02  1.22405E+03  1.39887E+02 -7.11623E+02  6.18263E+02 -3.07528E+03
  5.62110E+03 -1.66307E+03  7.73691E+03  6.09806E+02  7.98877E+03  5.13303E+03  6.65315E+03  1.01050E+04
 -2.23889E+03  1.19058E+04 -1.03637E+04  9.03017E+03 -1.33283E+04  1.46336E+03 -1.08508E+04 -4.15560E+03
 -5.47627E+03 -8.60519E+03 -2.78921E+02 -7.13840E+03  2.84468E+03 -3.40073E+03  2.51533E+03 -2.91039E+03
  1.81184E+03 -1.68294E+03  2.40109E+03 -2.61442E+03  4.18917E+03 -1.79157E+03  4.54847E+03  2.95891E+02
  6.07021E+03  1.60350E+03  2.16308E+03  4.62318E+03 -1.55447E+03  4.66151E+03 -5.81212E+03  3.98855E+03
 -7.22435E+03 -1.02804E+03 -3.31748E+03 -4.70871E+03  4.65582E+02 -7.28700E+03  4.18885E+03 -7.59708E+03
  7.70738E+03 -4.41024E+03  9.36813E+03  9.61300E+02  6.80346E+03  6.14987E+03  9.31812E+02  8.69670E+03
 -3.34293E+03  7.85048E+03 -4.44065E+03  2.46151E+03 -2.84554E+03 -1.38375E+03 -1.22293E+03 -1.14117E+03
 -3.95963E+02  1.97260E+02 -1.12920E+03  2.28848E+03 -3.31402E+03  1.59474E+03 -5.25053E+03 -6.39133E+02
 -2.92272E+03 -5.30716E+03  6.59962E+02 -6.71227E+03  3.96817E+03 -5.88236E+03  5.57317E+03 -1.69022E+03
  6.06097E+03  3.08823E+03  2.81575E+03  5.14588E+03 -9.15585E+02  6.27859E+03 -4.06499E+03  3.95995E+03
 -5.80952E+03  7.78449E+02 -4.52997E+03 -3.84809E+03 -5.41412E+02 -4.95213E+03  2.37812E+03 -3.79061E+03
  3.87112E+03 -1.40702E+03  2.60029E+03  6.83259E+02  9.56683E+02  1.93389E+03  9.04277E+02  6.68134E+02
  1.77549E+03  7.62791E+02  1.61859E+03  1.18433E+03  1.73609E+03  2.90130E+03  2.03786E+03  2.55925E+03
 -1.43985E+03  4.27060E+03 -3.85128E+03  5.51443E+03 -5.37157E+03  1.62213E+03 -6.14013E+03 -1.38416E+03
 -2.75362E+03 -5.89761E+03  9.58796E+02 -6.75499E+03  3.28589E+03 -4.10203E+03  4.95765E+03 -1.39443E+03
  3.72070E+03  2.56189E+03  6.23187E+02  3.36443E+03 -1.32719E+03  2.25571E+03 -2.10395E+03 -1.48881E+02
 -7.64772E+02 -2.23956E+03  1.90945E+03 -2.42475E+03  2.29876E+03 -1.58705E+03  1.56489E+03  4.64854E+02
  1.37477E+03  7.31264E+02  1.01873E+03  3.03526E+02 -6.82641E+02  8.78772E+02  1.56028E+03 -4.05731E+02
  3.15394E+02 -4.55601E+02  2.33335E+03  1.15209E+03  6.44806E+02  3.65803E+03 -4.13481E+02  4.14886E+03
 -2.41492E+03  2.27792E+03 -3.42729E+03  3.60829E+02 -3.25440E+03 -8.52164E+02 -5.83050E+02 -1.57206E+03
  5.64712E+02 -1.75491E+03  1.43630E+03 -1.16431E+03  8.28354E+02  1.63834E+03 -8.50181E+02  1.92828E+03
 -2.07413E+03  7.77310E+02 -1.87591E+03 -1.70609E+03 -1.34367E+03 -3.15400E+03  2.96477E+02 -2.59701E+03
  1.63772E+03 -1.19169E+03  1.40523E+03 -1.33598E+02  2.00216E+03  3.77675E+02  1.96645E+02  1.52851E+03
 -7.25725E+02  2.63956E+02 -1.12954E+03 -3.70046E+02  5.80598E+02 -1.38542E+03  2.52638E+03 -1.72908E+03
  2.37620E+03  3.95883E+02  3.89231E+03  1.53562E+03  1.47675E+03  3.10360E+03 -6.84049E+02  3.32559E+03
 -2.38816E+03  8.65372E+02 -2.78188E+03 -4.67138E+02 -1.24802E+03 -2.04772E+03  3.25968E+02 -1.51940E+03
  2.46335E+03 -1.14826E+03  1.48180E+03  1.05138E+03  4.82257E+02  1.96472E+03  1.52679E+01  1.60210E+03
 -4.86191E+02  1.27648E+03 -8.14722E+02  2.34503E+02 -1.12291E+02  5.81939E+02 -9.74797E+02  8.11195E+02
 -5.85218E+02  1.33839E+03 -2.33436E+03  8.47189E+02 -2.53174E+03  4.69916E+02 -3.43840E+03 -1.89163E+03
 -1.51690E+03 -4.07770E+03  9.11538E+02 -4.30527E+03  2.15490E+03 -3.62081E+03  4.45090E+03 -1.77070E+03
  3.83148E+03  8.89523E+01  2.06496E+03  2.35087E+03 -3.52795E+02  2.53734E+03 -1.22598E+03  2.09174E+03
 -1.71422E+03  1.06721E+03 -6.61152E+02 -1.39422E+02 -3.84159E+02 -1.26117E+02 -6.34120E+02 -4.07953E+01
 -1.04934E+03  1.00173E+02 -1.12793E+03  5.31161E+01 -9.83470E+00 -8.63055E+02 -1.55034E+02 -1.42054E+03
  1.65486E+03 -7.16573E+02  1.12660E+03  9.39323E+01  1.95570E+03  1.83100E+03  1.95131E+01  2.45107E+03
 -1.21707E+03  3.41104E+03 -2.74800E+03  2.03334E+03 -2.91586E+03 -2.50899E+02 -2.27152E+03 -1.67754E+03
 -1.10405E+03 -2.29767E+03  5.77013E+02 -2.26801E+03  1.54190E+03 -9.65738E+02  1.36472E+03 -1.76876E+01
  6.90476E+02  7.12639E+02  1.44834E+00  7.23687E+02 -3.73587E+02  4.43421E+01 -2.73015E+02 -2.60479E+02
  1.05063E+03  8.60697E+01  7.76975E+02  5.89020E+02  1.15136E+02  8.76601E+02  3.16237E+02  1.04250E+03
 -1.12634E+03  1.15320E+03 -1.25148E+03  3.57905E+01 -1.20470E+03 -7.24230E+02  2.70654E+02 -2.22556E+03
  9.34394E+02 -1.49840E+03  1.37092E+03 -3.78992E+02  1.54510E+03 -2.43144E+02  9.63672E+02  1.17838E+03
  4.99885E+02  8.19291E+02 -4.64260E+02  1.17240E+03 -9.98474E+02  6.13512E+02 -6.60954E+02 -1.62194E+02
 -2.84516E+02 -1.24530E+02 -5.81428E+02  3.24418E+02 -7.79413E+02  2.40723E+01 -1.28979E+03 -3.98258E+02
 -1.63000E+03  2.14177E+00 -4.08407E+02 -1.51559E+03  1.03155E+03 -2.09518E+03  1.40164E+03 -8.93807E+02
  1.12442E+03  4.40577E+02  5.71527E+01  7.67895E+02 -3.67869E+02  1.27973E+03 -8.30368E+02  1.19707E+03
