 $NMID ID='MM_0lb_SNR800_7hz_g40_57.RAW', FMTDAT='(8E13.5)'
 TRAMP=1., VOLUME=1. $END
  3.09756E+05  8.88786E+02  3.38401E+05  2.50920E+05  8.47717E+04  3.38419E+05 -1.32669E+05  2.51520E+05
 -1.90856E+05  8.38419E+04 -1.13109E+05 -3.20400E+04  7.00548E+00 -5.08495E+04  5.38171E+04 -5.45112E+02
  3.59013E+04  5.28566E+04 -1.64786E+04  7.61576E+04 -6.12538E+04  6.44091E+04 -8.53845E+04  3.27124E+04
 -8.26273E+04 -1.16584E+04 -5.82478E+04 -5.26101E+04 -1.51316E+04 -7.18130E+04  2.86353E+04 -4.69215E+04
  4.13925E+04  3.40475E+03  1.70966E+04  4.88060E+04 -3.50772E+04  4.79977E+04 -6.88162E+04  3.58889E+02
 -5.54590E+04 -5.79109E+04 -7.20826E+03 -7.92410E+04  3.51296E+04 -5.74411E+04  4.99573E+04 -1.81286E+04
  4.49512E+04  1.15392E+04  3.28365E+04  2.71379E+04  1.56570E+04  3.08103E+04 -5.78895E+03  2.77992E+04
 -2.25927E+04  1.15908E+04 -1.77327E+04 -5.65444E+03  6.50692E+03 -7.29555E+03  2.39466E+04  1.40227E+04
  7.15254E+03  3.78931E+04 -3.42181E+04  3.73534E+04 -6.63076E+04  2.21992E+03 -5.93113E+04 -4.52058E+04
 -1.25585E+04 -6.63162E+04  4.19901E+04 -4.78562E+04  6.22692E+04 -2.64195E+03  3.71143E+04  3.51253E+04
 -5.43730E+03  3.98966E+04 -3.18837E+04  2.02121E+04 -3.39047E+04 -3.21274E+03 -1.95109E+04 -1.24313E+04
 -9.33046E+03 -1.56725E+04  1.12901E+02 -2.03338E+04  8.97850E+03 -2.35389E+04  1.59346E+04 -1.28092E+04
  1.02916E+04  6.55303E+03 -1.09292E+04  1.30277E+04 -2.37249E+04 -7.23462E+03 -8.83025E+03 -3.86476E+04
  2.54965E+04 -4.76400E+04  5.31347E+04 -2.08445E+04  4.96267E+04  2.10741E+04  1.76417E+04  4.76172E+04
 -1.70787E+04  3.65475E+04 -2.82147E+04  3.20906E+03 -1.27364E+04 -2.98354E+04  2.14219E+04 -3.77068E+04
  4.59691E+04 -1.15992E+04  4.17003E+04  2.51148E+04  2.20233E+04  5.21659E+04 -8.44416E+03  5.77878E+04
 -3.61542E+04  3.94856E+04 -4.87736E+04  1.13055E+04 -4.90919E+04 -1.94006E+04 -2.69648E+04 -4.28202E+04
  8.06204E+03 -4.34234E+04  3.48660E+04 -1.79627E+04  3.30840E+04  1.11009E+04  5.76828E+03  2.14221E+04
 -1.40873E+04  1.01899E+04 -1.12388E+04 -7.89392E+03  5.48731E+03 -1.13456E+04  1.88461E+04  5.39407E+03
  1.53193E+04  2.28501E+04 -5.51335E+03  2.76401E+04 -2.37200E+04  1.50618E+04 -3.26339E+04 -2.25774E+03
 -2.65122E+04 -1.87481E+04 -1.31942E+04 -2.63127E+04  4.41714E+03 -2.74561E+04  2.07816E+04 -2.42911E+04
  3.41701E+04 -1.47132E+04  3.95874E+04  5.45207E+03  2.81222E+04  2.55757E+04  4.21261E+03  4.24535E+04
 -2.05478E+04  3.51241E+04 -3.12554E+04  1.19451E+04 -2.25801E+04 -1.04702E+04 -4.63789E+03 -1.31297E+04
  7.27643E+02 -1.00593E+03 -8.95003E+03  8.87341E+03 -2.10866E+04  4.91483E+03 -2.09124E+04 -1.05811E+04
 -1.22262E+04 -2.45726E+04  6.39623E+03 -2.91457E+04  1.96374E+04 -2.09886E+04  2.38022E+04 -1.83924E+03
  1.52725E+04  1.70609E+04 -1.56638E+03  2.44909E+04 -1.80600E+04  1.40291E+04 -2.52234E+04 -4.73022E+03
 -1.73833E+04 -2.20337E+04 -1.98207E+03 -2.97500E+04  1.30333E+04 -2.46644E+04  2.44459E+04 -1.29246E+04
  2.30467E+04 -3.43463E+02  1.66740E+04  5.80190E+03  9.78661E+03  1.30585E+03  1.27856E+04 -1.89931E+03
  2.35733E+04  3.07776E+03  2.73772E+04  1.92488E+04  1.89068E+04  3.98850E+04 -2.48510E+03  4.68851E+04
 -2.70230E+04  3.95406E+04 -4.46446E+04  2.06124E+04 -4.78669E+04 -3.71255E+03 -3.86157E+04 -2.76427E+04
 -1.49566E+04 -3.96272E+04  1.42231E+04 -3.52950E+04  2.99733E+04 -1.61357E+04  2.57255E+04  8.41967E+03
  8.35170E+03  1.99801E+04 -1.22175E+04  1.62465E+04 -2.15965E+04  2.62714E+03 -1.60631E+04 -1.36913E+04
 -5.68605E+02 -2.08853E+04  1.12060E+04 -1.56378E+04  1.41391E+04 -1.13236E+03  4.18978E+03  9.18340E+03
 -8.84534E+03  4.76690E+03 -1.00729E+04 -7.20774E+03 -2.03496E+03 -1.92963E+04  1.27080E+04 -2.18186E+04
  2.45678E+04 -1.25328E+04  2.85331E+04  3.32047E+03  2.52766E+04  1.98369E+04  1.10325E+04  3.21871E+04
 -6.45102E+03  3.39548E+04 -2.24603E+04  1.99654E+04 -2.45900E+04  3.93220E+03 -1.63864E+04 -6.66718E+03
 -7.08531E+03 -7.61934E+03 -2.35074E+02  3.02888E+02 -2.98662E+03  3.88346E+03 -8.45928E+03  5.55234E+03
 -1.56942E+04 -9.70067E+02 -1.58695E+04 -1.23786E+04 -6.39502E+03 -2.11481E+04  6.85542E+03 -1.71703E+04
  1.36776E+04 -7.14883E+03  9.96486E+03  4.93235E+03 -5.79688E+02  7.15642E+03 -8.69490E+03 -3.37670E+02
 -8.63133E+03 -1.06193E+04 -9.22681E+02 -1.69919E+04  9.71894E+03 -1.82162E+04  2.18655E+04 -9.99558E+03
  2.58282E+04  2.62588E+03  1.89657E+04  1.61093E+04  3.68814E+03  2.11605E+04 -1.06976E+04  1.73611E+04
 -1.38122E+04  4.86066E+03 -6.59453E+03 -3.69854E+03  2.25125E+03 -4.64780E+03  8.57309E+03 -1.25248E+03
  7.90918E+03  7.77909E+03  1.15207E+03  1.39413E+04 -9.97274E+03  1.35753E+04 -1.74299E+04  2.82371E+03
 -1.22399E+04 -9.18249E+03 -2.89752E+02 -1.48841E+04  9.57756E+03 -7.40806E+03  1.01180E+04  4.01425E+03
  2.80132E+03  1.13644E+04 -9.05183E+03  1.31625E+04 -1.58539E+04  5.25497E+03 -1.56947E+04 -5.38978E+03
 -9.36195E+03 -1.79969E+04  4.59400E+03 -2.03850E+04  1.76134E+04 -1.22501E+04  1.89854E+04  3.66467E+03
  1.13142E+04  1.47640E+04 -1.30670E+03  1.79841E+04 -1.28531E+04  1.00381E+04 -1.41759E+04 -1.25326E+03
 -1.16425E+04 -1.16542E+04 -1.57431E+03 -1.34167E+04  7.22939E+03 -1.04291E+04  8.49572E+03 -3.92363E+03
  6.09141E+03  2.34423E+03 -1.35298E+03  2.20001E+03 -1.22713E+03 -4.21561E+03  3.05484E+03 -8.80907E+03
  1.37088E+04 -5.77764E+03  1.85018E+04  2.04530E+03  1.80737E+04  1.31511E+04  1.14827E+04  2.41520E+04
 -5.68667E+03  2.75396E+04 -2.27162E+04  2.01468E+04 -2.91380E+04  4.00372E+03 -2.39358E+04 -1.04988E+04
 -1.18789E+04 -1.94703E+04 -4.76914E+02 -1.67443E+04  5.88893E+03 -9.59493E+03  6.26643E+03 -5.71649E+03
  4.64365E+03 -3.26426E+03  4.46958E+03 -4.41084E+03  6.32215E+03 -4.16055E+03  8.98568E+03 -1.79314E+03
  1.19451E+04  2.77458E+03  6.74769E+03  1.08630E+04 -2.79948E+03  1.35140E+04 -1.30200E+04  1.03208E+04
 -1.69107E+04 -1.62557E+03 -1.10591E+04 -1.22355E+04 -1.91446E+03 -1.86080E+04  1.05335E+04 -1.86061E+04
  1.91662E+04 -1.00455E+04  2.27339E+04  3.31326E+03  1.59899E+04  1.63155E+04  2.04762E+03  2.06880E+04
 -8.76512E+03  1.62594E+04 -1.21879E+04  6.18610E+03 -8.55426E+03 -2.44848E+03 -3.75638E+03 -2.69948E+03
 -1.73871E+03 -2.81621E+02 -2.60046E+03  3.70753E+03 -6.99672E+03  2.55357E+03 -1.19519E+04 -1.95475E+03
 -8.62206E+03 -1.16565E+04 -1.15064E+03 -1.75768E+04  1.08037E+04 -1.58284E+04  1.78187E+04 -5.29232E+03
  1.75337E+04  8.03007E+03  8.39136E+03  1.58439E+04 -3.39104E+03  1.77539E+04 -1.24988E+04  1.09234E+04
 -1.66327E+04  6.84085E+02 -1.26099E+04 -1.03633E+04 -1.68885E+03 -1.44073E+04  7.76665E+03 -1.07813E+04
  1.07732E+04 -3.39534E+03  7.90201E+03  2.93498E+03  2.52110E+03  4.85556E+03  1.19072E+03  2.67066E+03
  3.39069E+03  1.33221E+03  4.48119E+03  1.72628E+03  5.28460E+03  5.58470E+03  4.33034E+03  9.53609E+03
 -3.67911E+03  1.40764E+04 -1.32935E+04  1.41591E+04 -1.89468E+04  3.46523E+03 -1.89506E+04 -8.39518E+03
 -9.04874E+03 -1.86596E+04  2.84646E+03 -2.00778E+04  1.07849E+04 -1.24709E+04  1.49876E+04 -3.30661E+03
  1.15571E+04  6.72073E+03  2.85124E+03  1.07193E+04 -5.52828E+03  6.58061E+03 -7.69856E+03 -1.09973E+03
 -3.80503E+03 -8.00202E+03  4.08748E+03 -7.64394E+03  7.83687E+03 -3.98046E+03  7.18395E+03  2.05207E+03
  4.14786E+03  4.32313E+03  1.49362E+03  3.43267E+03 -8.72920E+02  2.50418E+03  1.60961E+03 -6.64286E+02
  3.35316E+03 -1.21728E+03  7.74044E+03  2.80242E+03  4.73283E+03  9.77943E+03 -1.95488E+03  1.33337E+04
 -9.03586E+03  9.12975E+03 -1.22455E+04  3.13035E+03 -1.06631E+04 -4.00249E+03 -4.49075E+03 -7.47741E+03
  1.38351E+03 -7.26291E+03  5.23293E+03 -3.59239E+03  4.23536E+03  3.71321E+03 -1.63137E+03  6.32860E+03
 -7.74711E+03  3.48145E+03 -9.01054E+03 -4.54941E+03 -5.31694E+03 -1.06005E+04  1.86217E+03 -1.07563E+04
  6.36256E+03 -6.14308E+03  7.56694E+03 -1.00078E+03  6.18877E+03  2.97574E+03  1.00689E+03  6.01685E+03
 -4.01814E+03  1.40183E+03 -4.63176E+03 -3.39239E+03  1.80812E+03 -8.70710E+03  9.59108E+03 -6.93442E+03
  1.22585E+04  7.38352E+02  1.15739E+04  8.74448E+03  3.82929E+03  1.30405E+04 -4.16084E+03  1.16368E+04
 -1.05725E+04  5.33380E+03 -1.08677E+04 -1.76289E+03 -5.84393E+03 -8.60427E+03  1.83770E+03 -8.15214E+03
  7.74440E+03 -3.93231E+03  7.17642E+03  3.68538E+03  2.12948E+03  7.21473E+03 -1.66925E+03  5.99109E+03
 -3.63630E+03  4.17629E+03 -2.94014E+03  1.42972E+03 -1.44796E+03  9.09322E+02 -2.03749E+03  2.86190E+03
 -3.07184E+03  4.50613E+03 -8.54761E+03  4.99612E+03 -1.28320E+04  1.57736E+02 -1.47936E+04 -9.01883E+03
 -7.65794E+03 -1.73078E+04  3.26306E+03 -2.00197E+04  1.29338E+04 -1.54601E+04  1.86028E+04 -5.90072E+03
  1.75209E+04  3.60722E+03  1.09812E+04  1.20847E+04  1.45514E+03  1.42704E+04 -5.33286E+03  9.94101E+03
 -7.83833E+03  3.83253E+03 -4.69930E+03 -1.71961E+03 -1.23859E+03 -1.29057E+03 -6.80368E+02 -1.39910E+02
 -1.95071E+03  4.02511E+02 -2.88536E+03 -9.57069E+02 -1.17055E+03 -3.47596E+03  1.01342E+03 -4.52967E+03
  5.35429E+03 -4.24725E+03  8.43647E+03 -1.63189E+01  1.00461E+04  7.51592E+03  3.04408E+03  1.40083E+04
 -6.94841E+03  1.54741E+04 -1.47496E+04  9.40317E+03 -1.69103E+04 -1.35470E+03 -1.28148E+04 -1.04848E+04
 -5.04076E+03 -1.44865E+04  4.03152E+03 -1.28714E+04  9.43744E+03 -7.56716E+03  9.51804E+03  1.65226E+02
  5.22239E+03  4.33734E+03 -5.97054E+02  3.75022E+03 -2.49057E+03 -6.75963E+02 -5.67352E+01 -2.78895E+03
  4.37017E+03 -2.37459E+03  5.91943E+03  1.70270E+03  3.24788E+03  5.96925E+03 -2.91622E+02  7.26519E+03
 -6.51092E+03  6.35870E+03 -9.25325E+03  7.37062E+02 -8.66278E+03 -6.96538E+03 -1.97339E+03 -1.19303E+04
  6.76169E+03 -1.00547E+04  1.13088E+04 -3.31264E+03  1.08240E+04  2.89028E+03  6.68874E+03  8.75274E+03
  1.36257E+03  9.48651E+03 -3.54478E+03  8.02218E+03 -5.83894E+03  3.91754E+03 -5.08697E+03  6.14596E+02
 -2.91688E+03  1.31452E+02 -3.11744E+03  1.20162E+03 -4.92589E+03  1.94065E+03 -7.80331E+03 -1.62355E+03
 -7.32606E+03 -5.41775E+03 -2.41182E+03 -1.00086E+04  4.44752E+03 -1.01012E+04  8.98760E+03 -5.08896E+03
  9.62571E+03  9.92066E+02  5.40360E+03  7.29595E+03 -7.09563E+02  9.85498E+03 -7.99527E+03  6.70013E+03
