 $NMID ID='MM_0lb_SNR800_10hz_g50_4.RAW', FMTDAT='(8E13.5)'
 TRAMP=1., VOLUME=1. $END
  3.09671E+05  1.68928E+02  3.37480E+05  2.50777E+05  8.52716E+04  3.38306E+05 -1.32755E+05  2.51091E+05
 -1.90290E+05  8.33246E+04 -1.12252E+05 -3.23775E+04  5.16586E+02 -5.06437E+04  5.40043E+04 -5.61083E+02
  3.54504E+04  5.33198E+04 -1.67078E+04  7.56760E+04 -6.12564E+04  6.40370E+04 -8.51820E+04  3.27765E+04
 -8.25511E+04 -1.18447E+04 -5.78923E+04 -5.20126E+04 -1.51105E+04 -7.06760E+04  2.79990E+04 -4.65363E+04
  4.05924E+04  3.43021E+03  1.66485E+04  4.85734E+04 -3.48091E+04  4.78170E+04 -6.77436E+04  1.39116E+02
 -5.46591E+04 -5.73487E+04 -7.05161E+03 -7.84531E+04  3.45787E+04 -5.66968E+04  4.94859E+04 -1.80596E+04
  4.49054E+04  1.14676E+04  3.26078E+04  2.64560E+04  1.61113E+04  3.02702E+04 -5.37957E+03  2.75878E+04
 -2.22426E+04  1.20768E+04 -1.84847E+04 -5.57550E+03  6.45570E+03 -7.48963E+03  2.30068E+04  1.35104E+04
  7.07419E+03  3.72643E+04 -3.36407E+04  3.67110E+04 -6.58155E+04  2.32292E+03 -5.85348E+04 -4.44503E+04
 -1.26900E+04 -6.54583E+04  4.13102E+04 -4.68800E+04  6.05931E+04 -2.74939E+03  3.62696E+04  3.40504E+04
 -5.48391E+03  3.88539E+04 -3.13970E+04  1.80757E+04 -3.29937E+04 -4.08776E+03 -1.89962E+04 -1.18135E+04
 -9.57805E+03 -1.47065E+04 -6.26695E+02 -1.95114E+04  8.13087E+03 -2.36951E+04  1.54462E+04 -1.25069E+04
  1.05851E+04  6.26323E+03 -9.71044E+03  1.30151E+04 -2.31772E+04 -6.35541E+03 -8.44540E+03 -3.67567E+04
  2.46834E+04 -4.62866E+04  5.13433E+04 -2.05170E+04  4.79220E+04  2.04800E+04  1.71610E+04  4.67490E+04
 -1.61581E+04  3.55702E+04 -2.70737E+04  2.67000E+03 -1.11368E+04 -2.92104E+04  2.12239E+04 -3.61657E+04
  4.36260E+04 -1.05359E+04  3.93705E+04  2.50722E+04  2.09233E+04  5.00485E+04 -8.10056E+03  5.49634E+04
 -3.45638E+04  3.71953E+04 -4.67264E+04  1.06144E+04 -4.69148E+04 -1.80979E+04 -2.53776E+04 -4.11476E+04
  7.52039E+03 -4.11354E+04  3.39876E+04 -1.64203E+04  3.15486E+04  1.09332E+04  4.66646E+03  2.04305E+04
 -1.40163E+04  9.38571E+03 -1.10081E+04 -7.62084E+03  5.64245E+03 -1.14753E+04  1.85867E+04  5.68550E+03
  1.44506E+04  2.25316E+04 -5.52128E+03  2.65904E+04 -2.37107E+04  1.36517E+04 -3.10091E+04 -3.43072E+03
 -2.43937E+04 -1.84034E+04 -1.10070E+04 -2.42644E+04  4.49095E+03 -2.43328E+04  1.91787E+04 -2.18644E+04
  3.09064E+04 -1.38280E+04  3.71394E+04  4.27418E+03  2.66164E+04  2.36474E+04  4.07011E+03  4.03088E+04
 -1.94949E+04  3.33133E+04 -3.01048E+04  1.14578E+04 -2.26527E+04 -1.01106E+04 -4.50210E+03 -1.31610E+04
  1.00821E+03 -1.53583E+03 -7.07361E+03  7.66471E+03 -1.95721E+04  5.12141E+03 -1.91708E+04 -9.01384E+03
 -1.13633E+04 -2.25621E+04  6.11450E+03 -2.67783E+04  1.81262E+04 -1.90810E+04  2.15073E+04 -1.48311E+03
  1.39682E+04  1.53597E+04 -1.34028E+03  2.25206E+04 -1.63589E+04  1.26089E+04 -2.30241E+04 -4.88537E+03
 -1.66539E+04 -2.02386E+04 -2.33804E+03 -2.72230E+04  1.22881E+04 -2.23255E+04  2.22572E+04 -1.15288E+04
  2.15347E+04 -2.50588E+02  1.53335E+04  4.87235E+03  8.32745E+03  1.43051E+03  1.14847E+04 -2.04566E+03
  2.14257E+04  2.91588E+03  2.44556E+04  1.77054E+04  1.63381E+04  3.64251E+04 -2.63988E+03  4.22093E+04
 -2.41450E+04  3.46378E+04 -3.96968E+04  1.85106E+04 -4.19113E+04 -3.12201E+03 -3.42771E+04 -2.46839E+04
 -1.37743E+04 -3.53624E+04  1.23858E+04 -3.05881E+04  2.66767E+04 -1.46850E+04  2.31909E+04  7.53530E+03
  7.82964E+03  1.74075E+04 -1.07772E+04  1.51328E+04 -1.92956E+04  2.22156E+03 -1.45985E+04 -1.25350E+04
 -2.21589E+02 -1.86712E+04  9.76986E+03 -1.36344E+04  1.26839E+04 -1.10579E+03  3.21897E+03  7.89829E+03
 -8.48427E+03  4.12884E+03 -8.46471E+03 -6.72975E+03 -1.88803E+03 -1.67312E+04  1.11731E+04 -1.86801E+04
  2.15729E+04 -1.05076E+04  2.48855E+04  3.39323E+03  2.13965E+04  1.76685E+04  1.07898E+04  2.72463E+04
 -4.96326E+03  2.92059E+04 -1.87720E+04  1.82518E+04 -2.09131E+04  3.76233E+03 -1.45842E+04 -5.14702E+03
 -6.59148E+03 -6.74115E+03 -5.93259E+02  5.15156E+02 -2.85439E+03  3.37886E+03 -6.98085E+03  4.84068E+03
 -1.34963E+04 -8.86566E+02 -1.40662E+04 -1.11074E+04 -5.56966E+03 -1.80344E+04  6.35144E+03 -1.45448E+04
  1.21804E+04 -6.29065E+03  8.69038E+03  3.77212E+03 -3.91603E+02  5.82628E+03 -7.90229E+03  2.34648E+02
 -6.98631E+03 -9.76997E+03 -1.10141E+03 -1.42199E+04  8.62297E+03 -1.52876E+04  1.82396E+04 -8.06295E+03
  2.20097E+04  2.19668E+03  1.58898E+04  1.31934E+04  2.74843E+03  1.75187E+04 -9.07865E+03  1.45516E+04
 -1.19351E+04  4.61846E+03 -6.22930E+03 -3.03694E+03  2.07421E+03 -4.05286E+03  7.84923E+03 -1.09352E+03
  6.86518E+03  6.17066E+03  9.25247E+02  1.16575E+04 -8.61518E+03  1.14105E+04 -1.47377E+04  2.32278E+03
 -9.90033E+03 -7.43671E+03  3.68407E+02 -1.26028E+04  7.66174E+03 -6.60813E+03  8.70445E+03  3.01677E+03
  1.97353E+03  9.47098E+03 -7.74167E+03  1.04715E+04 -1.24223E+04  4.97033E+03 -1.24937E+04 -4.49929E+03
 -7.30694E+03 -1.42586E+04  3.60326E+03 -1.65271E+04  1.40858E+04 -1.03102E+04  1.56544E+04  2.69269E+03
  9.63342E+03  1.22184E+04 -1.57298E+03  1.48706E+04 -1.09360E+04  7.82426E+03 -1.16071E+04 -8.55830E+02
 -9.75949E+03 -9.74273E+03 -1.82356E+03 -1.08459E+04  5.73894E+03 -9.01927E+03  7.31227E+03 -3.81963E+03
  4.78436E+03  1.63419E+03 -9.03781E+02  1.81862E+03 -7.19812E+02 -2.93544E+03  2.42149E+03 -6.76174E+03
  1.05402E+04 -4.45503E+03  1.47270E+04  1.72835E+03  1.42808E+04  9.66920E+03  9.68501E+03  1.88906E+04
 -4.27936E+03  2.19154E+04 -1.79981E+04  1.55324E+04 -2.35013E+04  2.74579E+03 -1.93299E+04 -8.25235E+03
 -9.13839E+03 -1.55328E+04 -2.28752E+02 -1.31841E+04  5.13300E+03 -7.19940E+03  5.18317E+03 -5.02223E+03
  3.53719E+03 -2.89967E+03  3.64144E+03 -3.43678E+03  5.71028E+03 -3.28232E+03  7.78358E+03 -1.23312E+03
  9.75504E+03  2.23322E+03  5.07392E+03  8.11258E+03 -1.96444E+03  1.03796E+04 -1.05881E+04  7.64799E+03
 -1.32340E+04 -1.48885E+03 -8.06116E+03 -9.19308E+03 -1.67056E+03 -1.44384E+04  7.75247E+03 -1.44974E+04
  1.50130E+04 -8.10145E+03  1.78092E+04  2.37270E+03  1.22949E+04  1.21215E+04  1.95354E+03  1.61882E+04
 -6.71590E+03  1.29334E+04 -9.34582E+03  4.69323E+03 -6.37260E+03 -1.34329E+03 -2.66007E+03 -2.09024E+03
 -9.91055E+02  2.47287E+01 -1.67588E+03  2.64345E+03 -5.49350E+03  2.27050E+03 -9.35640E+03 -1.13544E+03
 -6.84832E+03 -8.97845E+03  1.71541E+02 -1.33132E+04  8.56382E+03 -1.19554E+04  1.25785E+04 -3.67714E+03
  1.27085E+04  6.49635E+03  5.84719E+03  1.13348E+04 -2.66297E+03  1.29885E+04 -9.45481E+03  8.28449E+03
 -1.23738E+04  7.75601E+02 -9.86328E+03 -8.11967E+03 -7.26388E+02 -1.08535E+04  6.00201E+03 -8.21328E+03
  8.12735E+03 -2.85369E+03  5.31308E+03  2.01628E+03  2.36961E+03  3.89168E+03  1.37172E+03  1.76130E+03
  2.66497E+03  9.08401E+02  2.98630E+03  1.58405E+03  3.69572E+03  4.77399E+03  3.48570E+03  6.86633E+03
 -3.03235E+03  1.01989E+04 -9.29686E+03  1.06087E+04 -1.38905E+04  2.66238E+03 -1.39679E+04 -5.28999E+03
 -6.58894E+03 -1.28892E+04  2.11850E+03 -1.45523E+04  7.68659E+03 -9.23951E+03  1.11999E+04 -2.16309E+03
  8.10388E+03  4.91200E+03  1.89088E+03  8.16657E+03 -3.38656E+03  5.00382E+03 -5.22067E+03 -8.86553E+02
 -2.49772E+03 -5.40059E+03  3.53052E+03 -5.53769E+03  5.10994E+03 -2.98894E+03  5.50334E+03  1.45755E+03
  3.04480E+03  2.77197E+03  1.47101E+03  1.99268E+03 -9.33934E+02  1.92918E+03  1.70491E+03 -4.88166E+02
  2.11104E+03 -8.92287E+02  5.71877E+03  2.17253E+03  2.89150E+03  7.34671E+03 -1.03067E+03  9.36868E+03
 -6.54025E+03  6.05425E+03 -8.83479E+03  1.68298E+03 -7.49608E+03 -2.91590E+03 -2.46582E+03 -5.23607E+03
  1.05706E+03 -5.38636E+03  3.31416E+03 -2.18486E+03  2.95372E+03  3.17965E+03 -1.63274E+03  4.43836E+03
 -5.79181E+03  2.35491E+03 -6.42764E+03 -3.11846E+03 -3.58793E+03 -6.98449E+03  1.10191E+03 -7.29537E+03
  3.53373E+03 -4.53727E+03  5.39533E+03 -5.65830E+02  4.52235E+03  1.67988E+03  8.59164E+02  4.05711E+03
 -2.97193E+03  1.39280E+03 -3.62947E+03 -2.32819E+03  1.29154E+03 -5.63334E+03  6.54733E+03 -4.23403E+03
  8.12003E+03  9.47772E+02  8.29218E+03  5.50390E+03  2.46839E+03  9.02933E+03 -3.59171E+03  8.13848E+03
 -6.93477E+03  3.46804E+03 -7.44011E+03 -1.26472E+03 -3.99627E+03 -5.46880E+03  1.17111E+03 -5.10143E+03
  5.64079E+03 -2.72214E+03  4.76980E+03  2.25315E+03  1.45847E+03  5.23289E+03 -7.84981E+02  4.15186E+03
 -2.55087E+03  2.73116E+03 -1.82450E+03  8.76511E+02 -8.43875E+02  6.24480E+02 -1.41526E+03  1.87463E+03
 -2.33083E+03  3.51871E+03 -5.75978E+03  2.77041E+03 -8.57003E+03  2.24115E+02 -1.00012E+04 -5.68001E+03
 -5.25828E+03 -1.12994E+04  2.03141E+03 -1.29514E+04  7.99993E+03 -9.57960E+03  1.22232E+04 -3.96025E+03
  1.14846E+04  2.49083E+03  6.52091E+03  7.79031E+03  5.08428E+02  9.06136E+03 -4.02950E+03  6.76458E+03
 -5.25810E+03  2.63966E+03 -3.12588E+03 -8.56424E+02 -7.26567E+02 -1.12433E+03 -7.60212E+02 -1.32041E+01
 -2.01254E+03  3.94939E+02 -2.37539E+03 -5.87464E+02 -8.70227E+02 -2.06073E+03  4.77258E+02 -3.21381E+03
  3.81878E+03 -2.70917E+03  5.09487E+03  1.95215E+02  6.33440E+03  4.83268E+03  1.45189E+03  8.69701E+03
 -4.22209E+03  1.03572E+04 -9.43736E+03  5.90171E+03 -1.07401E+04 -5.81833E+02 -7.93145E+03 -6.73692E+03
 -3.43106E+03 -9.12586E+03  2.04243E+03 -8.47206E+03  5.90014E+03 -4.18157E+03  5.33389E+03  1.10684E+02
  3.12684E+03  3.02532E+03  1.83208E+01  2.27952E+03 -1.52697E+03 -7.12081E+01 -7.51255E+01 -1.93231E+03
  2.77885E+03 -1.44965E+03  3.27082E+03  1.28970E+03  2.03153E+03  3.03528E+03  3.18997E+02  4.73918E+03
 -3.69993E+03  3.88145E+03 -6.06887E+03  1.00477E+02 -4.90334E+03 -4.03322E+03 -6.02897E+02 -7.17471E+03
  3.84776E+03 -5.93342E+03  6.66703E+03 -1.64636E+03  6.97567E+03  1.48974E+03  3.79400E+03  5.20663E+03
  9.86500E+02  5.45472E+03 -2.35042E+03  4.50117E+03 -2.92620E+03  2.90679E+03 -3.47118E+03  2.91801E+02
 -1.42382E+03 -2.94544E+02 -1.75655E+03  6.29726E+02 -2.97662E+03  7.30894E+02 -4.44823E+03 -8.02942E+02
 -4.27962E+03 -2.83321E+03 -1.39377E+03 -5.80679E+03  2.69002E+03 -6.06749E+03  5.20257E+03 -2.70924E+03
  5.64869E+03  9.07172E+02  3.56045E+03  4.12747E+03 -2.27243E+02  5.44818E+03 -4.31849E+03  3.25960E+03
