 $NMID ID='MM_0lb_SNR800_14hz_g50_62.RAW', FMTDAT='(8E13.5)'
 TRAMP=1., VOLUME=1. $END
  3.09936E+05  1.87679E+02  3.37542E+05  2.50412E+05  8.47207E+04  3.37947E+05 -1.32919E+05  2.51138E+05
 -1.90182E+05  8.34582E+04 -1.11836E+05 -3.23516E+04  8.23086E+02 -5.02635E+04  5.33978E+04 -3.41132E+02
  3.51619E+04  5.26900E+04 -1.64333E+04  7.53970E+04 -6.08412E+04  6.39184E+04 -8.40205E+04  3.20634E+04
 -8.12479E+04 -1.14826E+04 -5.71831E+04 -5.14788E+04 -1.52401E+04 -7.00078E+04  2.72974E+04 -4.58395E+04
  3.98364E+04  4.09459E+03  1.60861E+04  4.76270E+04 -3.41840E+04  4.73366E+04 -6.68970E+04 -5.54128E+02
 -5.37637E+04 -5.68069E+04 -6.61382E+03 -7.67463E+04  3.38517E+04 -5.51608E+04  4.84065E+04 -1.75566E+04
  4.32324E+04  1.13339E+04  3.19411E+04  2.54227E+04  1.59621E+04  2.94488E+04 -5.26475E+03  2.71995E+04
 -2.22899E+04  1.25667E+04 -1.83632E+04 -5.07221E+03  5.47592E+03 -7.24486E+03  2.26762E+04  1.21250E+04
  7.19596E+03  3.53755E+04 -3.24063E+04  3.55545E+04 -6.34615E+04  2.11912E+03 -5.71069E+04 -4.27928E+04
 -1.26238E+04 -6.31778E+04  3.98899E+04 -4.56693E+04  5.82906E+04 -2.21344E+03  3.39185E+04  3.22934E+04
 -5.93573E+03  3.63962E+04 -3.03400E+04  1.61511E+04 -3.04527E+04 -4.65309E+03 -1.69354E+04 -1.06843E+04
 -8.47099E+03 -1.28888E+04 -7.85509E+02 -1.78773E+04  7.69044E+03 -2.28594E+04  1.54265E+04 -1.32859E+04
  1.13815E+04  5.41907E+03 -8.25456E+03  1.30610E+04 -2.13177E+04 -4.54490E+03 -8.33708E+03 -3.39581E+04
  2.29734E+04 -4.34135E+04  4.81784E+04 -2.01035E+04  4.50762E+04  1.97207E+04  1.56764E+04  4.42898E+04
 -1.62277E+04  3.34321E+04 -2.51785E+04  1.76283E+03 -9.95893E+03 -2.78277E+04  2.10581E+04 -3.38491E+04
  4.15350E+04 -9.11822E+03  3.59807E+04  2.38139E+04  1.81071E+04  4.68797E+04 -7.68283E+03  5.02233E+04
 -3.21620E+04  3.39865E+04 -4.21849E+04  9.15350E+03 -4.27935E+04 -1.66408E+04 -2.36918E+04 -3.80350E+04
  7.09078E+03 -3.79779E+04  3.18032E+04 -1.45993E+04  2.92168E+04  1.07844E+04  3.70634E+03  1.93612E+04
 -1.34582E+04  8.54586E+03 -1.04092E+04 -7.60985E+03  6.09787E+03 -1.05671E+04  1.78670E+04  6.02164E+03
  1.33698E+04  2.21799E+04 -6.21871E+03  2.48049E+04 -2.24643E+04  1.15318E+04 -2.83287E+04 -4.76137E+03
 -2.07126E+04 -1.73242E+04 -8.57516E+03 -2.08807E+04  4.24921E+03 -1.99239E+04  1.58942E+04 -1.82950E+04
  2.62035E+04 -1.24806E+04  3.28811E+04  3.24255E+03  2.38778E+04  2.01892E+04  4.03548E+03  3.65581E+04
 -1.77340E+04  3.04642E+04 -2.81250E+04  1.04767E+04 -2.09744E+04 -1.05242E+04 -4.47169E+03 -1.36941E+04
  1.31434E+03 -2.72131E+03 -5.07234E+03  6.87032E+03 -1.64268E+04  5.16713E+03 -1.60788E+04 -7.09365E+03
 -9.96718E+03 -1.90992E+04  5.17860E+03 -2.31479E+04  1.55777E+04 -1.65471E+04  1.81435E+04 -1.39989E+03
  1.10154E+04  1.33002E+04 -9.03742E+02  1.94040E+04 -1.31917E+04  1.05995E+04 -1.89026E+04 -3.80343E+03
 -1.40373E+04 -1.71353E+04 -1.67468E+03 -2.31677E+04  1.06020E+04 -1.89440E+04  1.92231E+04 -9.38271E+03
  1.76365E+04  1.32715E+02  1.31527E+04  4.58172E+03  6.83698E+03  1.11713E+03  9.65442E+03 -1.36772E+03
  1.73599E+04  2.69546E+03  1.96306E+04  1.52668E+04  1.29849E+04  3.05115E+04 -2.99031E+03  3.44321E+04
 -2.02973E+04  2.78006E+04 -3.19571E+04  1.39646E+04 -3.37432E+04 -2.34268E+03 -2.77041E+04 -1.95007E+04
 -1.18907E+04 -2.77817E+04  9.62120E+03 -2.51318E+04  2.16225E+04 -1.27135E+04  1.91733E+04  5.58401E+03
  7.33521E+03  1.44731E+04 -9.03620E+03  1.25468E+04 -1.65358E+04  2.49844E+03 -1.24706E+04 -1.00527E+04
 -1.50783E+02 -1.54377E+04  7.88350E+03 -1.16556E+04  9.82865E+03 -1.25312E+03  2.35770E+03  6.85397E+03
 -6.96430E+03  2.89317E+03 -6.07972E+03 -5.33621E+03 -5.14576E+02 -1.34837E+04  9.63942E+03 -1.41776E+04
  1.68485E+04 -7.38220E+03  1.79763E+04  2.71796E+03  1.56086E+04  1.32574E+04  7.21004E+03  2.05693E+04
 -3.37968E+03  2.24018E+04 -1.43862E+04  1.40134E+04 -1.61283E+04  3.32196E+03 -1.13498E+04 -3.64716E+03
 -5.33383E+03 -4.68556E+03 -5.39121E+02  6.26773E+02 -2.26292E+03  2.42096E+03 -5.21684E+03  4.38558E+03
 -1.08922E+04 -4.59659E+02 -1.14763E+04 -9.01596E+03 -4.48283E+03 -1.47926E+04  4.71171E+03 -1.15989E+04
  9.29545E+03 -5.00406E+03  6.78099E+03  3.02851E+03  3.73818E+02  4.21541E+03 -5.39735E+03 -6.13106E+01
 -5.38456E+03 -7.29287E+03 -8.28939E+02 -1.04953E+04  5.83437E+03 -1.14341E+04  1.40484E+04 -6.10106E+03
  1.65168E+04  1.47903E+03  1.25562E+04  9.59481E+03  2.30374E+03  1.33223E+04 -6.98243E+03  1.15823E+04
 -9.54953E+03  3.52548E+03 -4.99310E+03 -1.94995E+03  1.77030E+03 -2.83251E+03  6.46388E+03 -1.09208E+03
  5.32485E+03  4.93378E+03  1.18863E+03  8.62410E+03 -6.46733E+03  8.63507E+03 -1.09463E+04  2.43692E+03
 -7.40936E+03 -5.46990E+03  3.74097E+02 -9.21451E+03  5.81694E+03 -4.64669E+03  5.94904E+03  2.18949E+03
  1.17884E+03  6.16435E+03 -5.81170E+03  7.46958E+03 -7.87766E+03  3.53511E+03 -8.12502E+03 -2.71869E+03
 -4.74875E+03 -1.02675E+04  2.41047E+03 -1.17360E+04  9.68008E+03 -6.99866E+03  1.01985E+04  1.48083E+03
  6.91809E+03  8.41632E+03 -4.47832E+02  1.02023E+04 -7.60327E+03  6.44252E+03 -8.15647E+03 -9.18527E+02
 -7.76513E+03 -7.18556E+03 -1.15012E+03 -7.52730E+03  3.94091E+03 -6.35961E+03  4.84116E+03 -3.26831E+03
  3.53123E+03  7.38768E+02 -5.73879E+02  1.63960E+03 -1.08521E+02 -1.49475E+03  7.07519E+02 -3.85346E+03
  6.97119E+03 -2.46968E+03  9.31002E+03  1.25974E+03  9.32273E+03  6.03571E+03  6.85904E+03  1.26360E+04
 -2.56461E+03  1.44218E+04 -1.24498E+04  1.08649E+04 -1.59185E+04  1.76997E+03 -1.26167E+04 -4.77046E+03
 -6.73913E+03 -1.02945E+04 -1.52016E+02 -8.60442E+03  3.42018E+03 -4.64733E+03  2.91525E+03 -3.31042E+03
  2.15063E+03 -2.18443E+03  3.00764E+03 -3.06147E+03  5.00210E+03 -2.20417E+03  4.85777E+03 -1.30847E+02
  6.75183E+03  1.59163E+03  2.89967E+03  5.30200E+03 -1.81524E+03  5.76106E+03 -7.28942E+03  4.93163E+03
 -8.48915E+03 -1.02655E+03 -4.35665E+03 -5.94801E+03 -4.00282E+02 -9.07935E+03  5.15584E+03 -9.27885E+03
  9.46955E+03 -4.76092E+03  1.14485E+04  7.28103E+02  7.93793E+03  8.25127E+03  1.40902E+03  1.01348E+04
 -3.96453E+03  8.55814E+03 -5.83936E+03  2.80084E+03 -4.07294E+03 -1.31886E+03 -1.64238E+03 -1.54605E+03
 -7.39252E+02  1.87811E+02 -1.50131E+03  2.61063E+03 -4.01563E+03  1.63845E+03 -6.47634E+03 -9.37580E+02
 -3.37658E+03 -6.18145E+03  4.96932E+02 -8.12385E+03  5.17629E+03 -7.46262E+03  7.62045E+03 -2.09155E+03
  7.88692E+03  4.06385E+03  3.50203E+03  7.00328E+03 -1.42680E+03  8.44076E+03 -5.58568E+03  5.08647E+03
 -7.22614E+03  3.40830E+02 -5.73752E+03 -4.94641E+03 -3.18841E+02 -6.30674E+03  3.18211E+03 -4.83805E+03
  4.65623E+03 -2.15790E+03  3.35139E+03  8.87616E+02  1.16237E+03  2.79642E+03  1.32897E+03  1.28477E+03
  2.04174E+03  9.05166E+02  2.01690E+03  1.31614E+03  2.10679E+03  3.15132E+03  2.33718E+03  3.98780E+03
 -1.64249E+03  5.85300E+03 -5.40319E+03  6.52043E+03 -7.01818E+03  1.81602E+03 -7.99631E+03 -2.47598E+03
 -3.82084E+03 -7.30958E+03  1.39965E+03 -9.01120E+03  4.33152E+03 -5.03723E+03  5.86725E+03 -1.76655E+03
  4.80866E+03  3.00281E+03  7.62020E+02  4.39664E+03 -1.87617E+03  2.34345E+03 -2.55092E+03 -1.67923E+02
 -1.51086E+03 -3.04987E+03  2.33586E+03 -3.34635E+03  2.96331E+03 -2.01759E+03  2.87405E+03  4.30733E+02
  1.48460E+03  1.43426E+03  1.19316E+03  4.86598E+02 -6.90579E+02  1.27933E+03  1.32883E+03 -1.21885E+02
  9.10984E+02 -2.30671E+02  3.12572E+03  1.26725E+03  1.02848E+03  4.18493E+03 -1.04819E+03  5.30686E+03
 -3.30777E+03  3.04731E+03 -4.55763E+03  7.86364E+02 -4.31694E+03 -1.73488E+03 -1.20672E+03 -2.52320E+03
  5.84134E+02 -3.11314E+03  1.83773E+03 -1.42256E+03  1.21648E+03  1.72704E+03 -1.02481E+03  2.51870E+03
 -2.91724E+03  1.51594E+03 -3.09990E+03 -1.98166E+03 -1.62792E+03 -3.85787E+03  2.96942E+02 -4.00227E+03
  1.66838E+03 -1.94346E+03  2.11309E+03 -2.55592E+02  2.41855E+03  5.47915E+02  2.89375E+02  2.26823E+03
 -8.18867E+02  2.95085E+02 -1.63301E+03 -1.09040E+03  1.03715E+03 -2.65286E+03  3.04084E+03 -2.38740E+03
  3.83880E+03  5.84902E+02  4.67338E+03  2.30832E+03  1.62923E+03  4.02932E+03 -1.40063E+03  4.23838E+03
 -3.70167E+03  1.32755E+03 -3.44117E+03 -1.70328E+02 -2.07832E+03 -2.92128E+03  9.45834E+02 -2.04716E+03
  2.76696E+03 -1.32207E+03  1.92055E+03  1.06752E+03  6.79126E+02  2.18537E+03  1.68694E+02  2.11318E+03
 -1.11630E+03  1.83772E+03 -9.71629E+02  7.05581E+02 -3.57296E+02  7.08964E+02 -1.01501E+03  1.23931E+03
 -1.29407E+03  1.91116E+03 -3.52171E+03  1.60233E+03 -3.99405E+03  2.33286E+02 -5.10452E+03 -2.41856E+03
 -2.28781E+03 -5.48872E+03  1.32360E+03 -6.30364E+03  3.55161E+03 -4.90915E+03  6.27722E+03 -1.85279E+03
  5.76358E+03  9.36162E+02  3.53960E+03  3.83951E+03 -2.22207E+02  3.84541E+03 -1.58651E+03  3.05371E+03
 -2.24525E+03  1.46200E+03 -1.25800E+03 -6.39513E+02 -4.97809E+02 -3.51871E+02 -5.84206E+02  6.18055E+01
 -1.53407E+03  1.76539E+01 -1.36977E+03  1.22643E+01 -1.63439E+01 -9.05427E+02 -4.06827E+02 -1.76413E+03
  2.30734E+03 -1.21449E+03  2.09613E+03  1.70278E+02  2.94685E+03  2.28972E+03  5.25703E+02  3.96205E+03
 -1.94685E+03  5.14517E+03 -4.10175E+03  2.66017E+03 -4.65047E+03 -5.60358E+02 -3.44464E+03 -3.04524E+03
 -1.52426E+03 -3.86504E+03  5.63618E+02 -3.66118E+03  1.76089E+03 -1.88682E+03  2.60477E+03  3.13861E+02
  1.86039E+03  1.18760E+03  1.62495E+02  9.51576E+02 -1.08576E+03 -1.40953E+02  1.26888E+02 -5.20859E+02
  1.08461E+03 -1.54166E+02  1.53629E+03  6.30614E+02  5.80846E+02  1.01378E+03  2.41080E+02  1.66632E+03
 -1.59290E+03  1.75388E+03 -2.19692E+03  4.75763E+02 -2.09011E+03 -1.57066E+03 -1.35986E+02 -3.08098E+03
  1.66247E+03 -2.90375E+03  2.53689E+03 -3.75054E+02  2.75222E+03  1.60157E+02  1.54516E+03  2.16832E+03
  3.04740E+02  2.31498E+03 -8.24370E+02  1.71004E+03 -1.70687E+03  1.03302E+03 -1.42224E+03  2.09321E+02
 -3.36250E+02 -1.36639E+02 -7.78558E+02  6.30293E+02 -1.21988E+03  3.85248E+02 -1.86307E+03 -4.27182E+02
 -2.19479E+03 -7.58390E+02 -8.20378E+02 -2.39054E+03  1.41342E+03 -3.02907E+03  1.99531E+03 -7.76361E+02
  2.33760E+03  3.99802E+02  9.42476E+02  1.46929E+03  1.80763E+02  2.23657E+03 -1.59239E+03  1.72605E+03
