 $NMID ID='MM_0lb_SNR800_14hz_g60_7.RAW', FMTDAT='(8E13.5)'
 TRAMP=1., VOLUME=1. $END
  3.10095E+05  5.35002E+02  3.37505E+05  2.50698E+05  8.48743E+04  3.38093E+05 -1.32495E+05  2.51598E+05
 -1.90321E+05  8.35116E+04 -1.12197E+05 -3.27725E+04  7.29871E+02 -5.05071E+04  5.38066E+04 -3.51928E+02
  3.53662E+04  5.28390E+04 -1.66318E+04  7.56399E+04 -6.10531E+04  6.42020E+04 -8.47962E+04  3.21171E+04
 -8.14532E+04 -1.16765E+04 -5.72583E+04 -5.15884E+04 -1.45909E+04 -7.00521E+04  2.77350E+04 -4.60758E+04
  4.04372E+04  3.55729E+03  1.60842E+04  4.82196E+04 -3.44942E+04  4.77864E+04 -6.72381E+04 -3.82040E+01
 -5.41012E+04 -5.70522E+04 -7.00190E+03 -7.77866E+04  3.41322E+04 -5.56043E+04  4.84321E+04 -1.76858E+04
  4.42019E+04  1.12315E+04  3.22304E+04  2.58724E+04  1.59059E+04  3.03330E+04 -5.87589E+03  2.72905E+04
 -2.20598E+04  1.21950E+04 -1.86122E+04 -5.38058E+03  6.14220E+03 -7.57259E+03  2.29557E+04  1.30012E+04
  7.31462E+03  3.61933E+04 -3.28475E+04  3.60994E+04 -6.42946E+04  1.71333E+03 -5.77128E+04 -4.36116E+04
 -1.24009E+04 -6.41825E+04  4.04035E+04 -4.61175E+04  5.92778E+04 -2.61115E+03  3.49418E+04  3.31677E+04
 -6.13508E+03  3.71639E+04 -3.06870E+04  1.69281E+04 -3.14594E+04 -3.97814E+03 -1.76280E+04 -1.15682E+04
 -8.93040E+03 -1.37265E+04 -5.67097E+02 -1.87234E+04  7.66278E+03 -2.34396E+04  1.54562E+04 -1.30019E+04
  1.10711E+04  5.75198E+03 -8.85746E+03  1.29961E+04 -2.20950E+04 -4.89377E+03 -8.39125E+03 -3.51135E+04
  2.36777E+04 -4.48371E+04  4.94661E+04 -2.01737E+04  4.63610E+04  2.02124E+04  1.63750E+04  4.53825E+04
 -1.66447E+04  3.41318E+04 -2.63496E+04  1.89194E+03 -1.03473E+04 -2.82112E+04  2.10002E+04 -3.45626E+04
  4.25365E+04 -9.69860E+03  3.74407E+04  2.41866E+04  1.95540E+04  4.81270E+04 -8.00983E+03  5.21752E+04
 -3.29966E+04  3.52287E+04 -4.37225E+04  1.01015E+04 -4.43738E+04 -1.71900E+04 -2.44179E+04 -3.94938E+04
  7.35276E+03 -3.93173E+04  3.19739E+04 -1.54857E+04  2.97222E+04  1.09773E+04  4.31258E+03  1.95861E+04
 -1.36102E+04  8.73507E+03 -1.07613E+04 -8.02597E+03  5.83264E+03 -1.11104E+04  1.85036E+04  5.70297E+03
  1.35092E+04  2.23908E+04 -5.94193E+03  2.58601E+04 -2.25043E+04  1.21570E+04 -2.87729E+04 -4.18553E+03
 -2.24643E+04 -1.76976E+04 -9.34340E+03 -2.18388E+04  4.25749E+03 -2.12431E+04  1.66518E+04 -1.96836E+04
  2.80683E+04 -1.30632E+04  3.42025E+04  3.25025E+03  2.49390E+04  2.12567E+04  4.25911E+03  3.78337E+04
 -1.83188E+04  3.10552E+04 -2.86315E+04  1.11875E+04 -2.11156E+04 -1.02813E+04 -4.60799E+03 -1.31947E+04
  1.60954E+03 -2.08492E+03 -5.91532E+03  7.05630E+03 -1.72260E+04  4.86298E+03 -1.74390E+04 -7.73891E+03
 -1.06261E+04 -2.01311E+04  5.49833E+03 -2.44725E+04  1.62436E+04 -1.74362E+04  1.92349E+04 -1.35677E+03
  1.21202E+04  1.39738E+04 -1.30407E+03  2.01508E+04 -1.39882E+04  1.16959E+04 -2.02964E+04 -4.27330E+03
 -1.49307E+04 -1.80231E+04 -1.68469E+03 -2.42414E+04  1.09209E+04 -1.98587E+04  2.04631E+04 -1.00600E+04
  1.87795E+04 -8.47872E+01  1.38150E+04  4.33261E+03  7.58944E+03  1.14352E+03  1.04381E+04 -1.99557E+03
  1.85499E+04  2.71163E+03  2.08871E+04  1.56895E+04  1.39625E+04  3.22767E+04 -2.94294E+03  3.65378E+04
 -2.09662E+04  2.98108E+04 -3.44847E+04  1.52722E+04 -3.62338E+04 -2.54060E+03 -2.95381E+04 -2.09092E+04
 -1.23717E+04 -2.98988E+04  1.06676E+04 -2.66763E+04  2.28849E+04 -1.33112E+04  2.04208E+04  6.13604E+03
  7.64391E+03  1.50548E+04 -9.58048E+03  1.31939E+04 -1.72067E+04  2.83095E+03 -1.31933E+04 -1.06548E+04
 -3.01550E+02 -1.62746E+04  8.82142E+03 -1.20268E+04  1.08975E+04 -1.35720E+03  2.33162E+03  7.05242E+03
 -7.29192E+03  2.89721E+03 -6.95604E+03 -5.76322E+03 -5.61961E+02 -1.44194E+04  1.01022E+04 -1.54755E+04
  1.76948E+04 -8.05198E+03  1.99084E+04  2.94588E+03  1.70774E+04  1.43759E+04  7.86950E+03  2.22665E+04
 -3.44527E+03  2.40546E+04 -1.54594E+04  1.49562E+04 -1.72926E+04  3.39531E+03 -1.21467E+04 -3.96322E+03
 -5.74087E+03 -5.23996E+03 -4.33720E+02  1.08791E+03 -2.69331E+03  2.52633E+03 -5.83960E+03  4.54080E+03
 -1.11743E+04 -6.61585E+02 -1.19101E+04 -9.72000E+03 -5.00229E+03 -1.55403E+04  5.14238E+03 -1.23131E+04
  1.00470E+04 -5.02611E+03  7.35049E+03  3.38027E+03 -1.18585E+02  4.62661E+03 -5.92953E+03 -1.23462E+02
 -5.30677E+03 -7.97824E+03 -6.88147E+02 -1.15796E+04  6.30249E+03 -1.23657E+04  1.49999E+04 -6.70262E+03
  1.74515E+04  1.23201E+03  1.31686E+04  1.04034E+04  2.56078E+03  1.39623E+04 -7.52775E+03  1.21030E+04
 -1.01147E+04  3.55559E+03 -5.09305E+03 -2.48486E+03  1.89050E+03 -3.04099E+03  6.46221E+03 -9.98412E+02
  5.62867E+03  5.21986E+03  1.12146E+03  9.59445E+03 -6.81749E+03  9.23137E+03 -1.17992E+04  2.49745E+03
 -7.99092E+03 -6.07195E+03  2.78472E+02 -1.00008E+04  6.30743E+03 -5.13294E+03  6.29723E+03  1.83055E+03
  1.37520E+03  6.82747E+03 -6.01289E+03  7.79322E+03 -9.33903E+03  3.51833E+03 -9.25634E+03 -2.88762E+03
 -5.42244E+03 -1.06702E+04  2.65169E+03 -1.25326E+04  1.06416E+04 -8.16431E+03  1.13452E+04  1.91926E+03
  7.26901E+03  9.26019E+03 -3.42792E+02  1.11356E+04 -8.07373E+03  6.41734E+03 -8.93100E+03 -1.04695E+03
 -7.92192E+03 -7.96880E+03 -1.46902E+03 -8.48518E+03  4.43499E+03 -7.05735E+03  5.09461E+03 -3.00228E+03
  3.86769E+03  7.35583E+02 -5.40918E+02  1.97679E+03  1.02744E+02 -1.75380E+03  1.59444E+03 -4.52738E+03
  7.38222E+03 -2.69722E+03  1.04039E+04  1.27189E+03  1.01471E+04  6.54441E+03  7.81179E+03  1.37589E+04
 -2.78483E+03  1.58696E+04 -1.29655E+04  1.13265E+04 -1.72130E+04  2.04635E+03 -1.39210E+04 -5.60264E+03
 -6.77895E+03 -1.14099E+04 -2.21271E+02 -9.82497E+03  2.98020E+03 -5.11699E+03  3.62898E+03 -3.60578E+03
  2.41365E+03 -2.33676E+03  2.78157E+03 -2.95183E+03  4.65294E+03 -2.41919E+03  5.63053E+03 -3.71738E+02
  7.42050E+03  1.76751E+03  3.08402E+03  6.27422E+03 -1.55949E+03  6.29593E+03 -7.21274E+03  5.54261E+03
 -9.13960E+03 -1.15895E+03 -5.20830E+03 -6.14856E+03 -4.22597E+02 -9.60798E+03  5.72457E+03 -9.78574E+03
  1.01566E+04 -5.49998E+03  1.22105E+04  1.39270E+03  8.71890E+03  8.29022E+03  1.45147E+03  1.13809E+04
 -4.56558E+03  9.60433E+03 -6.02062E+03  3.30666E+03 -4.13427E+03 -1.26826E+03 -1.55879E+03 -1.56522E+03
 -1.06749E+03  4.92285E+01 -1.83664E+03  2.45767E+03 -4.01620E+03  1.85354E+03 -6.40420E+03 -8.75623E+02
 -3.97652E+03 -6.63711E+03  5.74866E+02 -9.08139E+03  5.57328E+03 -8.28832E+03  8.36022E+03 -2.56272E+03
  8.47559E+03  4.49146E+03  3.90372E+03  7.47867E+03 -1.62009E+03  8.87850E+03 -6.27502E+03  5.68513E+03
 -8.05698E+03  6.65634E+02 -6.16105E+03 -5.18647E+03 -3.66445E+02 -7.11765E+03  3.78514E+03 -5.27905E+03
  5.28406E+03 -1.70556E+03  3.72492E+03  9.18151E+02  1.34256E+03  2.74187E+03  1.05436E+03  1.17354E+03
  2.12772E+03  8.82070E+02  2.05291E+03  1.42066E+03  2.31164E+03  3.60141E+03  2.48504E+03  3.93190E+03
 -1.77936E+03  6.33053E+03 -5.58746E+03  7.25902E+03 -7.88720E+03  1.87461E+03 -8.74910E+03 -3.00359E+03
 -3.98584E+03 -8.09344E+03  1.11480E+03 -9.47312E+03  4.70694E+03 -5.48351E+03  6.44384E+03 -1.41361E+03
  5.32879E+03  3.35138E+03  1.10973E+03  4.68988E+03 -2.07070E+03  2.89367E+03 -2.79346E+03 -4.76811E+02
 -1.42673E+03 -3.29489E+03  1.97914E+03 -3.59707E+03  2.88345E+03 -1.85515E+03  2.98102E+03  6.61615E+02
  2.08357E+03  1.23992E+03  1.16023E+03  7.52805E+02 -5.58681E+02  1.22827E+03  1.52576E+03 -6.72841E+02
  1.11736E+03 -5.37853E+02  3.47832E+03  1.25215E+03  1.64792E+03  4.39063E+03 -8.28955E+02  5.74759E+03
 -3.59703E+03  3.28187E+03 -4.66160E+03  7.27137E+02 -4.66432E+03 -1.89834E+03 -1.20672E+03 -2.97668E+03
  3.95349E+02 -2.92209E+03  2.01293E+03 -1.47243E+03  1.50239E+03  1.91430E+03 -1.02155E+03  2.67280E+03
 -3.37639E+03  1.74215E+03 -3.49151E+03 -2.14042E+03 -1.66759E+03 -4.21996E+03  2.16418E+02 -4.00035E+03
  2.03396E+03 -2.34633E+03  2.65289E+03 -3.18749E+02  2.76709E+03  8.36226E+02  3.37918E+02  2.63440E+03
 -9.12554E+02  7.64705E+02 -2.01082E+03 -1.12857E+03  1.02325E+03 -3.00861E+03  3.81556E+03 -2.41064E+03
  4.03446E+03  4.15118E+02  4.93268E+03  2.59059E+03  1.76146E+03  4.38849E+03 -1.34627E+03  4.48039E+03
 -3.95919E+03  1.56460E+03 -4.03384E+03 -5.77724E+02 -2.12001E+03 -3.20234E+03  7.99392E+02 -2.43612E+03
  2.77419E+03 -1.28317E+03  1.99474E+03  1.69129E+03  4.98750E+02  2.86808E+03 -2.18245E+02  2.47408E+03
 -1.31605E+03  2.02151E+03 -1.14773E+03  7.61835E+02 -4.09222E+02  3.98290E+02 -8.38060E+02  8.87720E+02
 -1.15282E+03  2.30052E+03 -3.31263E+03  1.68534E+03 -4.09556E+03  9.97062E+01 -5.44460E+03 -2.56823E+03
 -2.81861E+03 -5.57385E+03  1.17323E+03 -6.81565E+03  3.83986E+03 -5.74567E+03  6.27852E+03 -2.04970E+03
  6.06267E+03  5.15539E+02  3.47591E+03  3.97278E+03 -3.96164E+02  4.06887E+03 -1.45083E+03  3.51840E+03
 -2.48840E+03  1.31352E+03 -1.50167E+03 -3.37359E+02 -5.80766E+02 -1.34083E+01 -8.98947E+02  2.24686E+02
 -1.61980E+03 -1.11914E+02 -1.31682E+03  2.22082E+00 -1.03975E+02 -1.33046E+03 -3.53168E+02 -1.84844E+03
  2.41777E+03 -1.70388E+03  1.98145E+03  2.65675E+02  2.91640E+03  2.33011E+03  4.15276E+01  3.99856E+03
 -1.89760E+03  5.23292E+03 -4.19644E+03  2.70988E+03 -4.91014E+03 -3.00166E+02 -3.43519E+03 -2.94864E+03
 -2.15761E+03 -4.01957E+03  7.03160E+02 -3.75535E+03  2.18488E+03 -1.71942E+03  2.52383E+03  4.82023E+02
  1.21310E+03  1.53969E+03  2.18917E+02  1.13071E+03 -8.12843E+02  3.17995E+01 -1.70474E+02 -5.15306E+02
  9.07479E+02 -5.82669E+02  1.07746E+03  9.19478E+02  7.67637E+02  1.50758E+03  7.18058E+02  1.93960E+03
 -1.63752E+03  1.75910E+03 -2.40610E+03  1.59666E+02 -2.41565E+03 -1.76095E+03 -5.91604E+02 -3.14809E+03
  1.79024E+03 -2.38160E+03  2.52352E+03 -7.47455E+02  2.69097E+03  2.08597E+02  1.45665E+03  2.25608E+03
  6.13416E+02  2.33453E+03 -8.69666E+02  1.76181E+03 -1.41739E+03  1.39225E+03 -1.28718E+03  4.18202E+01
 -6.63126E+02 -2.04425E+02 -9.15423E+02  5.14639E+02 -1.31082E+03 -3.49466E+00 -2.20728E+03 -5.21839E+02
 -2.21004E+03 -5.43487E+02 -3.82016E+02 -2.59605E+03  1.28281E+03 -3.13433E+03  2.01069E+03 -1.06416E+03
  2.27555E+03  4.00319E+02  6.67037E+02  1.92552E+03 -1.30204E+02  2.36813E+03 -1.73114E+03  1.52313E+03
