 $NMID ID='MM_0lb_SNR800_11hz_g45_24.RAW', FMTDAT='(8E13.5)'
 TRAMP=1., VOLUME=1. $END
  3.09981E+05  3.67145E+02  3.37827E+05  2.50874E+05  8.48956E+04  3.38242E+05 -1.32773E+05  2.51555E+05
 -1.90602E+05  8.32062E+04 -1.11805E+05 -3.27439E+04  4.84502E+02 -5.04659E+04  5.34421E+04 -1.11341E+02
  3.55980E+04  5.26910E+04 -1.70027E+04  7.56800E+04 -6.08480E+04  6.41346E+04 -8.43308E+04  3.23673E+04
 -8.15025E+04 -1.18152E+04 -5.74910E+04 -5.21921E+04 -1.49509E+04 -7.04285E+04  2.73062E+04 -4.58576E+04
  4.03845E+04  3.49242E+03  1.66147E+04  4.81458E+04 -3.44418E+04  4.75285E+04 -6.73734E+04  3.39918E+02
 -5.42704E+04 -5.74117E+04 -7.05946E+03 -7.77259E+04  3.43022E+04 -5.61385E+04  4.88030E+04 -1.77512E+04
  4.46503E+04  1.14837E+04  3.22782E+04  2.59656E+04  1.60460E+04  3.00370E+04 -5.67524E+03  2.72194E+04
 -2.23678E+04  1.24502E+04 -1.82767E+04 -4.99894E+03  6.38778E+03 -7.10653E+03  2.31212E+04  1.30045E+04
  7.28298E+03  3.63967E+04 -3.29064E+04  3.59491E+04 -6.47677E+04  2.05770E+03 -5.82654E+04 -4.34232E+04
 -1.25887E+04 -6.43379E+04  4.06886E+04 -4.61277E+04  5.96842E+04 -2.18861E+03  3.56229E+04  3.33603E+04
 -6.04037E+03  3.74262E+04 -3.10499E+04  1.76194E+04 -3.17461E+04 -3.91528E+03 -1.80345E+04 -1.09303E+04
 -8.96324E+03 -1.40667E+04 -7.80769E+02 -1.87792E+04  7.84049E+03 -2.30353E+04  1.55437E+04 -1.31895E+04
  1.09179E+04  5.79310E+03 -9.34700E+03  1.26735E+04 -2.20933E+04 -5.46920E+03 -8.22015E+03 -3.56774E+04
  2.39322E+04 -4.52729E+04  4.98603E+04 -2.02932E+04  4.66599E+04  1.98518E+04  1.63905E+04  4.55690E+04
 -1.59604E+04  3.47294E+04 -2.63030E+04  2.29106E+03 -1.05790E+04 -2.87295E+04  2.15817E+04 -3.51972E+04
  4.27308E+04 -1.04667E+04  3.80464E+04  2.44537E+04  1.97674E+04  4.89104E+04 -8.15438E+03  5.31918E+04
 -3.32724E+04  3.60678E+04 -4.48929E+04  1.05148E+04 -4.48501E+04 -1.75224E+04 -2.47699E+04 -4.00163E+04
  7.60208E+03 -4.01479E+04  3.26768E+04 -1.57555E+04  3.04029E+04  1.07786E+04  4.20095E+03  2.00915E+04
 -1.35950E+04  9.11837E+03 -1.03108E+04 -7.62345E+03  5.98457E+03 -1.09366E+04  1.83465E+04  5.41261E+03
  1.39345E+04  2.24323E+04 -5.76607E+03  2.62027E+04 -2.28841E+04  1.31678E+04 -2.96799E+04 -4.24614E+03
 -2.29140E+04 -1.79626E+04 -9.86620E+03 -2.31612E+04  4.43279E+03 -2.26420E+04  1.78004E+04 -2.03367E+04
  2.90928E+04 -1.35783E+04  3.52518E+04  4.20478E+03  2.51739E+04  2.21937E+04  4.56714E+03  3.88711E+04
 -1.86992E+04  3.20049E+04 -2.91566E+04  1.12257E+04 -2.16536E+04 -1.00740E+04 -4.67904E+03 -1.35021E+04
  1.20742E+03 -2.06244E+03 -5.91652E+03  7.12025E+03 -1.79934E+04  5.42077E+03 -1.77420E+04 -8.29942E+03
 -1.09840E+04 -2.10219E+04  5.77397E+03 -2.52408E+04  1.69132E+04 -1.81291E+04  2.02250E+04 -1.79632E+03
  1.26823E+04  1.47406E+04 -1.23715E+03  2.14678E+04 -1.45137E+04  1.21916E+04 -2.13734E+04 -4.13369E+03
 -1.56190E+04 -1.89137E+04 -2.09670E+03 -2.56489E+04  1.15126E+04 -2.09775E+04  2.13536E+04 -1.10231E+04
  1.99736E+04 -1.92172E+02  1.44431E+04  4.64114E+03  7.60055E+03  1.24557E+03  1.08785E+04 -1.86644E+03
  1.98558E+04  2.83458E+03  2.21994E+04  1.65049E+04  1.51219E+04  3.39803E+04 -3.08699E+03  3.94158E+04
 -2.27351E+04  3.20529E+04 -3.70981E+04  1.64577E+04 -3.86978E+04 -2.87060E+03 -3.22568E+04 -2.28763E+04
 -1.29066E+04 -3.23134E+04  1.15029E+04 -2.87134E+04  2.48312E+04 -1.39167E+04  2.16209E+04  6.85464E+03
  7.76034E+03  1.64698E+04 -1.04739E+04  1.40199E+04 -1.82091E+04  2.90570E+03 -1.39288E+04 -1.12553E+04
  9.25590E+01 -1.73295E+04  9.39046E+03 -1.30407E+04  1.16038E+04 -1.06752E+03  3.15951E+03  7.79599E+03
 -8.03725E+03  3.41550E+03 -7.32850E+03 -6.18832E+03 -9.88462E+02 -1.56318E+04  1.07129E+04 -1.68075E+04
  1.98075E+04 -9.23718E+03  2.20919E+04  2.99230E+03  1.92645E+04  1.56185E+04  8.96589E+03  2.47321E+04
 -4.68845E+03  2.68487E+04 -1.71321E+04  1.65811E+04 -1.93281E+04  3.90956E+03 -1.36097E+04 -4.64048E+03
 -5.88446E+03 -6.16761E+03 -8.65319E+02  8.62712E+02 -2.71263E+03  2.90994E+03 -6.19055E+03  4.74215E+03
 -1.24776E+04 -1.09852E+03 -1.29377E+04 -1.04254E+04 -5.31884E+03 -1.68229E+04  5.78086E+03 -1.34676E+04
  1.10604E+04 -5.83688E+03  7.88831E+03  3.80667E+03 -1.87670E+01  5.28662E+03 -6.93567E+03 -1.16606E+02
 -6.20632E+03 -8.56876E+03 -1.16157E+03 -1.29490E+04  7.37780E+03 -1.37393E+04  1.67690E+04 -7.12981E+03
  2.00734E+04  1.86756E+03  1.44291E+04  1.20884E+04  3.24148E+03  1.60601E+04 -8.32211E+03  1.31450E+04
 -1.05281E+04  4.38717E+03 -5.80115E+03 -2.87751E+03  1.98068E+03 -3.39103E+03  7.38885E+03 -1.34143E+03
  6.22453E+03  5.86301E+03  1.29896E+03  1.08417E+04 -7.85605E+03  1.06007E+04 -1.32696E+04  2.60560E+03
 -8.85849E+03 -6.93381E+03  7.41618E+02 -1.15477E+04  7.10887E+03 -5.69842E+03  7.36426E+03  2.51189E+03
  1.46552E+03  8.05602E+03 -7.00432E+03  9.40559E+03 -1.10337E+04  4.18563E+03 -1.14248E+04 -4.08595E+03
 -6.42600E+03 -1.27203E+04  3.25917E+03 -1.45173E+04  1.23515E+04 -9.22626E+03  1.34116E+04  2.01282E+03
  8.11790E+03  1.07505E+04 -9.26558E+02  1.32273E+04 -9.66696E+03  7.29059E+03 -1.04145E+04 -7.57345E+02
 -9.62462E+03 -8.75765E+03 -1.77885E+03 -9.85440E+03  5.17871E+03 -8.32141E+03  6.10664E+03 -3.34461E+03
  4.08312E+03  1.48972E+03 -4.51876E+02  1.60370E+03 -4.24545E+02 -2.49858E+03  1.51958E+03 -5.84928E+03
  8.67703E+03 -3.60592E+03  1.26376E+04  1.29248E+03  1.26325E+04  8.40079E+03  8.62616E+03  1.67302E+04
 -3.78739E+03  1.89347E+04 -1.61658E+04  1.37332E+04 -2.06871E+04  2.71424E+03 -1.65743E+04 -6.91078E+03
 -7.92203E+03 -1.35919E+04 -4.90786E+02 -1.17091E+04  4.60391E+03 -6.30934E+03  3.80226E+03 -4.17688E+03
  3.10913E+03 -2.61552E+03  3.38752E+03 -3.70430E+03  4.95460E+03 -2.92630E+03  6.63139E+03 -9.41200E+02
  8.74013E+03  1.86902E+03  4.46588E+03  7.35538E+03 -1.95793E+03  8.63036E+03 -9.14910E+03  6.69362E+03
 -1.17766E+04 -8.37113E+02 -6.77763E+03 -8.06311E+03 -8.78400E+02 -1.23218E+04  6.77076E+03 -1.24607E+04
  1.29771E+04 -6.71783E+03  1.52705E+04  1.81213E+03  1.05505E+04  1.03090E+04  1.52414E+03  1.39453E+04
 -5.63355E+03  1.14798E+04 -7.90186E+03  3.72859E+03 -5.31260E+03 -1.52019E+03 -1.97030E+03 -2.03434E+03
 -8.74375E+02 -8.90481E+01 -1.92614E+03  2.87299E+03 -4.99252E+03  1.91044E+03 -8.41883E+03 -1.56858E+03
 -5.49836E+03 -7.61208E+03  3.97694E+02 -1.12985E+04  6.89513E+03 -1.03959E+04  1.13360E+04 -3.12033E+03
  1.15664E+04  5.70024E+03  5.57354E+03  1.00252E+04 -2.48150E+03  1.16054E+04 -7.93321E+03  7.14512E+03
 -1.07838E+04  4.79631E+02 -8.13075E+03 -7.02459E+03 -8.69954E+02 -9.28479E+03  4.70715E+03 -6.87156E+03
  7.18134E+03 -2.16267E+03  4.60724E+03  1.90440E+03  1.50964E+03  3.67317E+03  1.27593E+03  1.53848E+03
  2.00690E+03  1.07595E+03  3.02298E+03  1.25580E+03  3.11140E+03  4.17446E+03  2.69925E+03  5.94770E+03
 -2.52741E+03  8.99565E+03 -7.84961E+03  8.90882E+03 -1.10730E+04  2.24789E+03 -1.19339E+04 -4.25706E+03
 -5.81952E+03 -1.11138E+04  1.68013E+03 -1.24986E+04  6.71429E+03 -7.93555E+03  9.23798E+03 -2.26049E+03
  7.17116E+03  4.68225E+03  1.57268E+03  6.56289E+03 -2.95815E+03  4.02761E+03 -3.93043E+03 -3.53868E+02
 -2.30641E+03 -4.83408E+03  2.80377E+03 -5.04145E+03  4.57185E+03 -2.64053E+03  4.79609E+03  1.10196E+03
  2.57100E+03  2.21954E+03  1.46422E+03  1.16121E+03 -5.36145E+02  1.36547E+03  1.92008E+03 -5.46489E+02
  1.37983E+03 -6.90770E+02  4.71758E+03  2.14120E+03  2.60644E+03  6.04718E+03 -1.03299E+03  8.03405E+03
 -5.20049E+03  4.88193E+03 -6.84449E+03  1.32143E+03 -6.32081E+03 -2.66853E+03 -2.36508E+03 -4.38699E+03
  6.09946E+02 -4.14260E+03  2.75300E+03 -2.28255E+03  2.35139E+03  2.19542E+03 -1.13092E+03  3.44437E+03
 -4.87747E+03  2.04994E+03 -4.98853E+03 -2.72631E+03 -2.72673E+03 -6.15293E+03  6.41403E+02 -5.99953E+03
  3.43806E+03 -3.38934E+03  4.17728E+03 -4.05403E+02  3.60457E+03  1.66417E+03  7.19031E+02  3.08396E+03
 -2.16114E+03  8.83424E+02 -2.62988E+03 -2.02821E+03  1.14716E+03 -4.48471E+03  5.57132E+03 -3.73459E+03
  6.34310E+03  4.85835E+02  6.89643E+03  4.46574E+03  2.13076E+03  6.65879E+03 -2.67716E+03  6.68851E+03
 -5.80244E+03  2.95312E+03 -6.11534E+03 -1.01932E+03 -3.22877E+03 -4.46518E+03  1.22479E+03 -3.83295E+03
  4.62312E+03 -2.29628E+03  3.45540E+03  1.64180E+03  9.10726E+02  3.94919E+03 -5.23657E+02  3.20474E+03
 -1.77408E+03  2.23705E+03 -1.48027E+03  6.68298E+02 -7.73981E+02  7.98984E+02 -1.33272E+03  1.47442E+03
 -1.98765E+03  2.81437E+03 -4.69265E+03  2.57477E+03 -6.82724E+03  3.84558E+02 -8.28980E+03 -4.25673E+03
 -4.03192E+03 -8.78266E+03  1.88615E+03 -1.04793E+04  6.44490E+03 -8.31351E+03  1.06368E+04 -3.18199E+03
  9.23846E+03  1.71654E+03  5.52589E+03  6.15602E+03  3.87097E+02  7.29200E+03 -2.87329E+03  5.14306E+03
 -4.27705E+03  2.13998E+03 -2.50458E+03 -6.28068E+02 -9.27179E+02 -4.15044E+02 -9.30094E+02  1.60194E+02
 -1.47952E+03  1.08502E+02 -1.68344E+03 -2.92383E+02 -4.03686E+02 -1.53350E+03  5.38319E+01 -2.90276E+03
  3.31411E+03 -2.47867E+03  4.05203E+03 -8.75096E+01  4.66962E+03  4.06676E+03  9.73975E+02  6.94790E+03
 -3.11988E+03  8.59776E+03 -7.62829E+03  4.80388E+03 -8.49587E+03 -6.07563E+02 -5.93810E+03 -4.81243E+03
 -2.58531E+03 -7.05471E+03  1.41016E+03 -6.62846E+03  4.17095E+03 -3.60981E+03  4.68583E+03  1.97874E+02
  2.69112E+03  2.69742E+03 -1.85266E+02  1.77153E+03 -1.28094E+03 -4.55891E+02  1.98063E+02 -1.43344E+03
  2.29189E+03 -1.07696E+03  2.61425E+03  1.06720E+03  1.46474E+03  2.68799E+03  2.96555E+02  3.26306E+03
 -3.27157E+03  3.05293E+03 -4.58396E+03  7.20226E+02 -4.04880E+03 -3.27712E+03 -9.00499E+02 -5.92491E+03
  3.19345E+03 -4.57168E+03  5.55443E+03 -1.40901E+03  5.65077E+03  8.24272E+02  3.26659E+03  4.27245E+03
  7.74362E+02  4.26452E+03 -1.74299E+03  3.75840E+03 -3.04289E+03  1.95619E+03 -2.78121E+03  4.01480E+02
 -1.22703E+03 -1.83292E+02 -1.24005E+03  5.10011E+02 -2.36860E+03  6.49121E+02 -3.47452E+03 -5.40613E+02
 -3.22024E+03 -1.87109E+03 -7.70751E+02 -4.53727E+03  2.28680E+03 -4.90479E+03  4.00370E+03 -2.18795E+03
  4.49724E+03  5.32138E+02  1.80824E+03  3.06982E+03 -3.90764E+01  4.26697E+03 -3.20173E+03  2.87624E+03
