 $NMID ID='MM_0lb_SNR800_20hz_g60_4.RAW', FMTDAT='(8E13.5)'
 TRAMP=1., VOLUME=1. $END
  3.09755E+05  5.37369E+02  3.37367E+05  2.50446E+05  8.47992E+04  3.37546E+05 -1.32699E+05  2.50781E+05
 -1.90002E+05  8.29135E+04 -1.11263E+05 -3.29210E+04  1.42481E+03 -5.03781E+04  5.37902E+04  1.91827E+02
  3.50815E+04  5.28439E+04 -1.69330E+04  7.51158E+04 -6.03934E+04  6.34390E+04 -8.36426E+04  3.18986E+04
 -8.01260E+04 -1.14645E+04 -5.66493E+04 -5.06782E+04 -1.48092E+04 -6.88692E+04  2.69584E+04 -4.52281E+04
  3.95176E+04  3.67194E+03  1.58836E+04  4.75013E+04 -3.39563E+04  4.64040E+04 -6.59170E+04 -5.45939E+02
 -5.22577E+04 -5.62224E+04 -6.46113E+03 -7.59091E+04  3.33846E+04 -5.38355E+04  4.69456E+04 -1.65164E+04
  4.23035E+04  1.12183E+04  3.12441E+04  2.48893E+04  1.59384E+04  2.86898E+04 -4.73388E+03  2.70099E+04
 -2.18051E+04  1.26206E+04 -1.89233E+04 -4.42781E+03  4.66237E+03 -7.37681E+03  2.15675E+04  1.15991E+04
  7.47694E+03  3.39039E+04 -3.09819E+04  3.45597E+04 -6.19165E+04  2.02731E+03 -5.59804E+04 -4.14311E+04
 -1.21722E+04 -6.14152E+04  3.89129E+04 -4.39582E+04  5.66859E+04 -2.21871E+03  3.25736E+04  3.10712E+04
 -6.24413E+03  3.41996E+04 -2.87414E+04  1.43036E+04 -2.83353E+04 -5.24937E+03 -1.50473E+04 -1.03650E+04
 -7.73841E+03 -1.18115E+04 -7.48949E+02 -1.70296E+04  6.92223E+03 -2.27205E+04  1.49899E+04 -1.38893E+04
  1.22545E+04  4.57922E+03 -7.08879E+03  1.30373E+04 -2.00223E+04 -2.93084E+03 -8.06982E+03 -3.10665E+04
  2.13214E+04 -4.13272E+04  4.52816E+04 -1.87493E+04  4.28406E+04  1.84092E+04  1.45018E+04  4.23033E+04
 -1.55470E+04  3.16384E+04 -2.39210E+04  1.24318E+03 -8.78294E+03 -2.67101E+04  2.06576E+04 -3.19503E+04
  3.87732E+04 -7.85735E+03  3.26968E+04  2.27774E+04  1.60346E+04  4.33148E+04 -7.93649E+03  4.64705E+04
 -2.90821E+04  3.06518E+04 -3.80087E+04  8.65876E+03 -3.93178E+04 -1.53654E+04 -2.17976E+04 -3.52918E+04
  7.17266E+03 -3.50545E+04  2.95948E+04 -1.30606E+04  2.74717E+04  1.09991E+04  3.22241E+03  1.80999E+04
 -1.35270E+04  7.60480E+03 -9.82679E+03 -7.89075E+03  5.96357E+03 -1.04460E+04  1.71716E+04  6.25134E+03
  1.24529E+04  2.15709E+04 -6.43384E+03  2.36875E+04 -2.17337E+04  9.52218E+03 -2.54821E+04 -6.22526E+03
 -1.73444E+04 -1.64780E+04 -5.87635E+03 -1.76061E+04  4.05680E+03 -1.54992E+04  1.30324E+04 -1.49852E+04
  2.20155E+04 -1.19321E+04  2.89045E+04  1.37306E+03  2.15025E+04  1.71063E+04  4.05137E+03  3.29655E+04
 -1.63037E+04  2.79603E+04 -2.63060E+04  9.56884E+03 -1.99892E+04 -1.01972E+04 -4.05094E+03 -1.40133E+04
  2.78627E+03 -3.65871E+03 -3.02495E+03  5.65804E+03 -1.32202E+04  5.22300E+03 -1.38284E+04 -5.18208E+03
 -8.79140E+03 -1.60161E+04  4.59974E+03 -1.98406E+04  1.29253E+04 -1.42454E+04  1.51799E+04 -1.27088E+03
  9.12264E+03  1.10681E+04 -1.03849E+03  1.61324E+04 -1.04334E+04  8.91936E+03 -1.56008E+04 -3.38505E+03
 -1.14481E+04 -1.42778E+04 -1.36002E+03 -1.93650E+04  8.76428E+03 -1.55777E+04  1.64065E+04 -7.42258E+03
  1.47578E+04  6.65365E+02  1.05716E+04  3.74176E+03  5.35304E+03  5.82591E+02  7.59934E+03 -1.44618E+03
  1.41261E+04  2.80388E+03  1.50091E+04  1.27860E+04  9.09763E+03  2.50793E+04 -2.92292E+03  2.67482E+04
 -1.61000E+04  2.05423E+04 -2.48974E+04  9.71530E+03 -2.55406E+04 -1.84633E+03 -2.14640E+04 -1.43125E+04
 -1.02706E+04 -2.06980E+04  6.98595E+03 -1.91588E+04  1.66344E+04 -1.09624E+04  1.54739E+04  3.67585E+03
  6.45929E+03  1.13691E+04 -7.17805E+03  1.04143E+04 -1.32286E+04  2.50360E+03 -1.04049E+04 -7.86101E+03
 -3.42757E+02 -1.23263E+04  6.24362E+03 -9.42609E+03  7.77990E+03 -1.55687E+03  1.24416E+03  4.92765E+03
 -5.63089E+03  1.25941E+03 -3.51442E+03 -4.58305E+03  6.75491E+02 -1.01876E+04  7.83452E+03 -9.95024E+03
  1.22289E+04 -4.91901E+03  1.20196E+04  2.95364E+03  1.01843E+04  9.44378E+03  5.03035E+03  1.39951E+04
 -1.39344E+03  1.56790E+04 -9.59540E+03  1.01444E+04 -1.11764E+04  3.26813E+03 -8.50289E+03 -1.94715E+03
 -4.33943E+03 -3.17379E+03 -7.33642E+02  1.74574E+03 -2.05403E+03  1.95110E+03 -3.74602E+03  3.52854E+03
 -7.98121E+03 -3.05712E+02 -8.50037E+03 -7.01873E+03 -3.49603E+03 -1.12902E+04  3.54075E+03 -8.41017E+03
  6.92273E+03 -3.52128E+03  5.17344E+03  2.06704E+03  6.91793E+02  3.10004E+03 -3.50939E+03 -1.48304E+02
 -3.09358E+03 -4.98066E+03 -9.45082E+02 -6.84480E+03  3.85172E+03 -7.63433E+03  9.58747E+03 -3.62539E+03
  1.14282E+04  3.41388E+02  8.42957E+03  6.19846E+03  1.78101E+03  8.31418E+03 -5.40447E+03  8.11862E+03
 -6.59412E+03  2.94336E+03 -3.41647E+03 -1.39173E+03  1.37519E+03 -1.77084E+03  4.77917E+03 -8.40249E+02
  3.83665E+03  3.15139E+03  1.09985E+03  6.13648E+03 -4.19889E+03  5.93583E+03 -8.01502E+03  1.99167E+03
 -4.67491E+03 -3.48023E+03  4.45722E+02 -6.40106E+03  3.86018E+03 -2.92466E+03  3.21744E+03  1.10075E+03
  3.59254E+02  2.93606E+03 -4.11968E+03  4.45724E+03 -4.66211E+03  2.47890E+03 -4.54705E+03 -1.24013E+03
 -2.86394E+03 -5.59823E+03  9.37131E+02 -6.64457E+03  5.68457E+03 -4.38663E+03  6.10075E+03  9.52521E+02
  4.22667E+03  4.91778E+03  2.49192E+02  7.11979E+03 -4.74704E+03  3.99446E+03 -4.52272E+03 -6.47863E+02
 -5.12132E+03 -4.73436E+03 -1.26373E+03 -4.80691E+03  2.22399E+03 -4.25319E+03  2.47766E+03 -2.84976E+03
  2.77049E+03  3.22404E+02  1.87182E+02  1.35137E+03  6.34499E+02 -4.55118E+01  1.02831E+02 -1.51777E+03
  3.41873E+03 -3.43611E+02  4.86828E+03  7.20998E+02  4.78856E+03  2.66295E+03  4.98095E+03  6.16128E+03
 -9.35638E+02  7.86711E+03 -7.09775E+03  5.95339E+03 -9.04733E+03  1.05450E+03 -7.27108E+03 -2.09963E+03
 -3.97209E+03 -6.04826E+03 -5.31635E+02 -4.35923E+03  1.98327E+03 -1.93943E+03  1.74407E+03 -1.86370E+03
  1.15506E+03 -1.24982E+03  1.88412E+03 -2.20876E+03  3.59811E+03 -1.07798E+03  3.31324E+03  5.00246E+02
  4.01200E+03  9.81824E+02  1.12467E+03  3.04241E+03 -1.63630E+03  2.52176E+03 -3.73895E+03  2.13032E+03
 -4.25420E+03 -9.65779E+02 -1.23998E+03 -2.87176E+03  4.98893E+02 -4.27583E+03  2.86403E+03 -4.60179E+03
  4.26591E+03 -2.76557E+03  5.85814E+03  7.34148E+01  4.44430E+03  3.63655E+03  1.13814E+03  5.40963E+03
 -1.88238E+03  5.44386E+03 -2.86500E+03  1.50279E+03 -1.52200E+03 -1.08147E+03 -1.17878E+02 -3.51960E+02
 -5.30753E+02  4.32682E+02 -8.30178E+02  1.99794E+03 -2.29102E+03  1.16883E+03 -3.50087E+03 -2.45839E+02
 -1.04341E+03 -3.44419E+03  8.33401E+02 -4.11448E+03  2.16075E+03 -3.60021E+03  2.90444E+03 -7.65652E+02
  3.40511E+03  2.09185E+03  1.36999E+03  2.73660E+03 -4.35128E+02  3.74115E+03 -2.23083E+03  2.31077E+03
 -3.09858E+03  4.97591E+02 -2.90347E+03 -1.91970E+03 -3.06291E+02 -2.42309E+03  1.17964E+03 -2.00371E+03
  2.12920E+03 -1.23220E+03  1.39698E+03  2.59964E+02  2.29301E+02  1.45776E+03  1.00967E+03  1.39839E+02
  1.72406E+03  2.37078E+02  1.13794E+03  6.82654E+02  1.20357E+03  1.78135E+03  1.28225E+03  1.42184E+03
 -1.35759E+03  2.47254E+03 -1.75557E+03  3.18225E+03 -2.02938E+03  1.20772E+03 -3.46067E+03  1.83589E+02
 -1.29735E+03 -2.89782E+03  5.47095E+02 -3.61359E+03  1.43482E+03 -2.08605E+03  2.68095E+03 -6.88089E+02
  1.88081E+03  1.54492E+03  3.88412E+02  1.69477E+03 -5.61312E+02  8.27477E+02 -5.41977E+02 -3.33067E+01
 -4.67547E+02 -1.16199E+03  1.07671E+03 -1.37917E+03  7.54575E+02 -8.12196E+02  1.10068E+03  4.07224E+02
  6.64719E+02  1.48294E+02  4.90985E+02 -5.64273E+02 -5.07849E+02  6.14634E+02  1.54672E+03 -3.65740E+02
 -1.11914E+02 -4.00247E+02  1.63873E+03  3.55643E+02  2.29329E+02  1.67738E+03 -4.44635E+02  2.36712E+03
 -1.11743E+03  6.76965E+02 -1.45159E+03  3.70261E+02 -1.73400E+03 -6.99978E+02  4.48406E+01 -5.30926E+02
  3.18971E+02 -9.86873E+02  7.70462E+02 -5.91001E+02  4.49582E+02  1.05175E+03 -8.13668E+02  7.52077E+02
 -1.22006E+03  6.86800E+02 -6.50776E+02 -1.05876E+03 -5.10203E+02 -1.93287E+03 -2.26161E+02 -1.22131E+03
  5.08849E+02 -2.88418E+02  3.47168E+02  2.10667E+02  1.11624E+03 -3.10281E+02  5.20375E+02  1.03812E+03
 -1.03754E+02  3.18816E+01 -5.01208E+02 -8.08587E+01  7.22671E+02 -5.03366E+02  1.41964E+03 -5.42826E+02
  6.25417E+02  4.02829E+01  2.35510E+03  4.64630E+02  8.86998E+02  1.23012E+03 -4.00885E+02  1.18230E+03
 -8.06142E+02 -1.71709E+02 -1.25828E+03 -1.22409E+02 -5.14573E+02 -8.96994E+02  7.72325E+01 -1.35178E+02
  1.05931E+03 -6.01095E+02  4.85431E+02  6.55573E+02  2.44946E+02  8.51058E+02  4.63677E+02  1.02966E+03
 -3.64772E+02  1.25428E+03 -9.54161E+00  1.47201E+02 -3.99203E+01  3.32925E+02 -6.67503E+02  3.68473E+02
 -2.62882E+02  8.91067E+02 -1.43196E+03  3.38231E+01 -1.40814E+03  5.11932E+01 -1.81937E+03 -5.85560E+02
 -5.11999E+02 -1.53862E+03  3.02940E+02 -1.82891E+03  5.60672E+02 -2.18533E+03  1.97863E+03 -6.76765E+02
  1.85255E+03 -4.60660E+02  6.55569E+02  9.35402E+02 -5.27928E+02  8.08826E+02 -5.32248E+02  1.07357E+03
 -5.94775E+02  5.55229E+02 -4.15872E+02 -2.37181E+02 -2.92504E+02  1.15434E+02 -6.96607E+02 -4.45792E+01
 -8.65452E+02  9.57834E+01 -8.96409E+02  2.45492E+01  1.16496E+02 -3.52597E+02 -4.16164E+02 -6.80709E+02
  1.03892E+03 -3.61746E+02 -1.01158E+01  1.51272E+02  8.25108E+02  5.71076E+02 -2.70094E+02  8.70756E+02
 -8.95759E+02  1.52955E+03 -1.06535E+03  1.12821E+03 -8.37433E+02  4.82340E+00 -5.44998E+02 -6.71661E+02
 -5.49613E+02 -6.49971E+02 -9.09656E+01 -4.58724E+02  1.89430E+02 -1.88413E+02  5.07485E+02  3.04366E+02
  6.95135E+02  3.30357E+01  1.01967E+02  2.00316E+02 -3.79539E+02  1.13962E+01 -1.38036E+02  5.76122E+01
  5.09915E+02  4.76274E+02 -1.31059E+02  7.79852E+02 -2.31038E+02  2.07558E+02  7.43038E+02  4.30941E+01
 -1.81463E+02  5.47621E+02 -3.56183E+02 -2.18159E+01 -1.50171E+02  1.86797E+02  5.28758E+01 -6.35236E+02
  2.32305E+02 -1.54265E+02  1.02708E+02  3.85597E+01  6.15745E+02 -1.13084E+03  3.44256E+02  2.35415E+02
  5.30399E+02  3.68425E+02 -1.45781E+02  1.71312E+02 -1.86759E+02  6.90403E+02 -1.17277E+02  5.66484E+01
 -2.09636E+02 -1.10449E+02 -3.44430E+02  3.16172E+02 -6.90303E+02 -1.82076E+02 -1.67965E+02 -2.60433E+02
 -7.37987E+02  3.62055E+02 -2.89996E+02 -6.43888E+02  4.91353E+02 -1.18476E+03  5.84439E+02  8.78422E+01
  4.32910E+02 -1.57127E+02 -4.92038E+02 -1.51959E+02 -1.95324E+02  4.62506E+02  9.96093E+01  9.47679E+01
