 $NMID ID='MM_0lb_SNR800_7hz_g50_19.RAW', FMTDAT='(8E13.5)'
 TRAMP=1., VOLUME=1. $END
  3.09973E+05  1.55746E+02  3.38183E+05  2.50820E+05  8.49904E+04  3.38691E+05 -1.32602E+05  2.51979E+05
 -1.90931E+05  8.41884E+04 -1.12626E+05 -3.27053E+04  2.54177E+02 -5.09595E+04  5.39411E+04 -5.60740E+02
  3.61271E+04  5.30290E+04 -1.69144E+04  7.62609E+04 -6.16881E+04  6.48056E+04 -8.60170E+04  3.26970E+04
 -8.26975E+04 -1.19598E+04 -5.88551E+04 -5.24378E+04 -1.51724E+04 -7.19769E+04  2.87990E+04 -4.72603E+04
  4.16687E+04  3.82136E+03  1.70005E+04  4.84328E+04 -3.50108E+04  4.84943E+04 -6.83545E+04  1.40930E+02
 -5.56648E+04 -5.79434E+04 -7.56432E+03 -7.99251E+04  3.57391E+04 -5.73557E+04  5.03840E+04 -1.90830E+04
  4.60809E+04  1.16348E+04  3.36598E+04  2.72238E+04  1.56328E+04  3.11080E+04 -5.82415E+03  2.76095E+04
 -2.28513E+04  1.18097E+04 -1.78351E+04 -5.96083E+03  7.75143E+03 -7.21908E+03  2.36276E+04  1.44951E+04
  7.25131E+03  3.81651E+04 -3.41804E+04  3.76959E+04 -6.66312E+04  2.19708E+03 -5.97466E+04 -4.47655E+04
 -1.26219E+04 -6.67760E+04  4.28289E+04 -4.81660E+04  6.23903E+04 -2.48360E+03  3.79486E+04  3.55276E+04
 -4.88092E+03  4.06350E+04 -3.23444E+04  1.98383E+04 -3.46282E+04 -3.34738E+03 -2.00440E+04 -1.24851E+04
 -9.74554E+03 -1.63777E+04 -2.14280E+02 -2.06955E+04  8.92098E+03 -2.40443E+04  1.61355E+04 -1.24556E+04
  1.00384E+04  6.71057E+03 -1.12322E+04  1.25320E+04 -2.46296E+04 -7.70700E+03 -8.60449E+03 -3.84182E+04
  2.58662E+04 -4.81844E+04  5.31920E+04 -2.16046E+04  5.01737E+04  2.13208E+04  1.78640E+04  4.80205E+04
 -1.66558E+04  3.70714E+04 -2.86990E+04  3.06761E+03 -1.23201E+04 -3.00241E+04  2.18899E+04 -3.77639E+04
  4.56625E+04 -1.19588E+04  4.24323E+04  2.57287E+04  2.28061E+04  5.30186E+04 -8.34843E+03  5.84290E+04
 -3.69713E+04  4.02814E+04 -4.95654E+04  1.19448E+04 -4.93657E+04 -1.94837E+04 -2.73734E+04 -4.35898E+04
  7.93361E+03 -4.39088E+04  3.51404E+04 -1.80800E+04  3.31541E+04  1.11949E+04  5.38995E+03  2.12902E+04
 -1.42022E+04  9.63460E+03 -1.19643E+04 -7.64857E+03  6.04155E+03 -1.14742E+04  1.87570E+04  4.96288E+03
  1.55598E+04  2.28404E+04 -4.68756E+03  2.80621E+04 -2.36617E+04  1.55158E+04 -3.30398E+04 -2.11336E+03
 -2.76511E+04 -1.88060E+04 -1.31324E+04 -2.70208E+04  4.70049E+03 -2.82672E+04  2.13838E+04 -2.52573E+04
  3.45489E+04 -1.49801E+04  4.03146E+04  5.75198E+03  2.83773E+04  2.62637E+04  4.61660E+03  4.38111E+04
 -2.09363E+04  3.56265E+04 -3.21255E+04  1.21079E+04 -2.28193E+04 -9.94962E+03 -4.68607E+03 -1.28494E+04
  7.20461E+02 -9.24554E+01 -8.74436E+03  8.87366E+03 -2.21724E+04  5.14496E+03 -2.17049E+04 -1.04415E+04
 -1.30049E+04 -2.50183E+04  6.59342E+03 -2.97718E+04  2.03772E+04 -2.10159E+04  2.48520E+04 -1.87088E+03
  1.57056E+04  1.75063E+04 -1.42937E+03  2.47366E+04 -1.82299E+04  1.42265E+04 -2.52371E+04 -4.92804E+03
 -1.86967E+04 -2.26779E+04 -2.17508E+03 -2.99849E+04  1.35521E+04 -2.54933E+04  2.50356E+04 -1.32368E+04
  2.43324E+04 -5.99612E+02  1.75444E+04  5.43803E+03  1.03252E+04  2.09501E+03  1.34808E+04 -2.38578E+03
  2.41250E+04  2.78121E+03  2.81724E+04  1.95994E+04  1.98139E+04  4.14737E+04 -2.55973E+03  4.81887E+04
 -2.80113E+04  4.13462E+04 -4.61475E+04  2.18362E+04 -4.97922E+04 -3.20868E+03 -4.01268E+04 -2.93165E+04
 -1.57517E+04 -4.12277E+04  1.53582E+04 -3.59576E+04  3.06215E+04 -1.65296E+04  2.65840E+04  9.08180E+03
  8.77297E+03  2.11424E+04 -1.19894E+04  1.69025E+04 -2.22561E+04  2.73462E+03 -1.68486E+04 -1.38388E+04
 -4.88624E+02 -2.14489E+04  1.17181E+04 -1.60526E+04  1.49128E+04 -8.22274E+02  3.39039E+03  1.02179E+04
 -9.74104E+03  5.14469E+03 -1.04892E+04 -7.68341E+03 -2.48551E+03 -2.05754E+04  1.31407E+04 -2.22638E+04
  2.61296E+04 -1.27749E+04  2.98733E+04  2.87889E+03  2.63374E+04  2.09771E+04  1.23296E+04  3.30238E+04
 -6.53809E+03  3.50358E+04 -2.33950E+04  2.15435E+04 -2.59291E+04  3.82482E+03 -1.70974E+04 -7.10878E+03
 -7.21928E+03 -8.18675E+03 -4.93340E+02  4.88368E+02 -3.14752E+03  3.47539E+03 -8.73948E+03  5.86076E+03
 -1.57901E+04 -1.32997E+03 -1.66537E+04 -1.33516E+04 -6.23726E+03 -2.17446E+04  7.27961E+03 -1.78762E+04
  1.44704E+04 -7.07185E+03  1.04215E+04  4.93933E+03 -5.45375E+02  6.89457E+03 -9.33740E+03 -1.88999E+02
 -8.65651E+03 -1.14684E+04 -1.45305E+03 -1.79364E+04  1.09437E+04 -1.91977E+04  2.26583E+04 -1.00717E+04
  2.72589E+04  2.51310E+03  1.91736E+04  1.67454E+04  3.94597E+03  2.19234E+04 -1.08394E+04  1.80692E+04
 -1.45334E+04  4.69671E+03 -7.37038E+03 -3.67121E+03  2.47060E+03 -4.99144E+03  9.34021E+03 -1.01054E+03
  8.88414E+03  8.15912E+03  1.35747E+03  1.41438E+04 -1.06071E+04  1.40765E+04 -1.79120E+04  3.25820E+03
 -1.22104E+04 -9.76788E+03  1.60349E+02 -1.55701E+04  1.02086E+04 -8.28525E+03  1.13780E+04  4.56879E+03
  2.31685E+03  1.22339E+04 -9.79195E+03  1.37770E+04 -1.61270E+04  6.26839E+03 -1.66240E+04 -6.71087E+03
 -9.39483E+03 -1.86107E+04  4.55530E+03 -2.17643E+04  1.84096E+04 -1.27139E+04  1.98920E+04  3.32198E+03
  1.18236E+04  1.60199E+04 -1.53663E+03  1.89117E+04 -1.36216E+04  1.04142E+04 -1.52964E+04 -1.81859E+03
 -1.23189E+04 -1.18383E+04 -2.04734E+03 -1.38782E+04  7.30525E+03 -1.09221E+04  9.44045E+03 -3.79356E+03
  5.43035E+03  2.60836E+03 -1.27362E+03  1.97970E+03 -1.06718E+03 -4.56526E+03  3.49707E+03 -9.32653E+03
  1.35597E+04 -6.50188E+03  1.95157E+04  2.03338E+03  1.86859E+04  1.41823E+04  1.17687E+04  2.58816E+04
 -6.46945E+03  2.94401E+04 -2.38267E+04  2.14504E+04 -3.15180E+04  4.25875E+03 -2.50744E+04 -1.13159E+04
 -1.20891E+04 -2.03443E+04 -4.81490E+02 -1.80269E+04  6.43358E+03 -1.04145E+04  6.67654E+03 -5.63197E+03
  4.78375E+03 -3.57599E+03  4.64344E+03 -4.26258E+03  6.50031E+03 -4.40142E+03  9.51823E+03 -2.06219E+03
  1.25689E+04  3.03667E+03  7.54213E+03  1.11057E+04 -2.23296E+03  1.42303E+04 -1.29146E+04  1.06722E+04
 -1.81696E+04 -1.14430E+03 -1.21571E+04 -1.26225E+04 -1.93398E+03 -1.96274E+04  1.07426E+04 -1.96988E+04
  2.02587E+04 -1.11570E+04  2.39990E+04  3.60107E+03  1.63390E+04  1.68827E+04  1.98733E+03  2.17003E+04
 -9.14059E+03  1.80072E+04 -1.29284E+04  6.17939E+03 -9.17567E+03 -2.38744E+03 -4.30919E+03 -2.69118E+03
 -1.69342E+03 -7.71248E+02 -2.57882E+03  3.69057E+03 -7.07233E+03  2.75302E+03 -1.25375E+04 -1.91976E+03
 -9.28686E+03 -1.21927E+04 -5.72089E+02 -1.85736E+04  1.11282E+04 -1.66682E+04  1.86283E+04 -5.40594E+03
  1.87238E+04  8.83562E+03  8.45932E+03  1.67371E+04 -3.65503E+03  1.87155E+04 -1.33559E+04  1.22361E+04
 -1.74099E+04  5.27605E+02 -1.33525E+04 -1.10294E+04 -1.29731E+03 -1.57906E+04  8.14931E+03 -1.17312E+04
  1.18928E+04 -3.29528E+03  7.73389E+03  3.39392E+03  2.83347E+03  5.16093E+03  1.34733E+03  2.70254E+03
  2.99923E+03  1.39105E+03  4.44686E+03  1.94254E+03  5.54144E+03  5.75713E+03  4.63508E+03  1.05196E+04
 -3.93704E+03  1.50791E+04 -1.31472E+04  1.50193E+04 -1.95161E+04  3.88198E+03 -2.00147E+04 -8.61068E+03
 -1.03956E+04 -1.94777E+04  2.77448E+03 -2.12231E+04  1.16189E+04 -1.38289E+04  1.64584E+04 -3.95781E+03
  1.21431E+04  6.96440E+03  3.11908E+03  1.11291E+04 -5.59731E+03  7.21201E+03 -7.75455E+03 -1.04285E+03
 -3.97309E+03 -8.37121E+03  4.63266E+03 -8.59606E+03  8.17221E+03 -4.15417E+03  8.17901E+03  2.17927E+03
  4.94546E+03  4.19134E+03  1.69930E+03  3.48153E+03 -1.14972E+03  2.71909E+03  2.05984E+03 -8.60345E+02
  3.25787E+03 -1.42683E+03  7.69211E+03  3.04046E+03  5.24495E+03  1.03010E+04 -1.60416E+03  1.34503E+04
 -9.13479E+03  9.11221E+03 -1.31469E+04  2.40214E+03 -1.16010E+04 -4.17904E+03 -5.20651E+03 -7.58003E+03
  9.86044E+02 -8.02708E+03  5.41205E+03 -3.94993E+03  4.38213E+03  3.41510E+03 -2.18465E+03  6.41269E+03
 -8.47243E+03  3.54541E+03 -9.85861E+03 -4.70436E+03 -5.92925E+03 -1.10803E+04  1.18035E+03 -1.16216E+04
  6.59685E+03 -6.92169E+03  8.31573E+03 -6.28839E+02  6.79293E+03  3.24436E+03  7.88908E+02  5.67784E+03
 -3.87370E+03  1.92176E+03 -4.72463E+03 -4.14807E+03  1.64199E+03 -8.63194E+03  9.77787E+03 -7.44964E+03
  1.34102E+04  1.07506E+03  1.25570E+04  9.13313E+03  3.83126E+03  1.39242E+04 -4.79566E+03  1.31004E+04
 -1.13185E+04  6.39936E+03 -1.17871E+04 -1.37577E+03 -6.52951E+03 -8.91819E+03  2.29379E+03 -8.50672E+03
  8.59621E+03 -4.09108E+03  7.36169E+03  3.51959E+03  2.14672E+03  7.70468E+03 -1.12349E+03  6.17446E+03
 -4.08308E+03  4.33757E+03 -3.20023E+03  1.46482E+03 -1.94857E+03  9.71840E+02 -2.20807E+03  2.28718E+03
 -3.67231E+03  5.27615E+03 -9.15864E+03  5.05249E+03 -1.36261E+04  3.04444E+02 -1.57000E+04 -9.53098E+03
 -7.83993E+03 -1.82604E+04  3.33767E+03 -2.10682E+04  1.36521E+04 -1.60547E+04  1.97564E+04 -6.03055E+03
  1.91400E+04  3.93662E+03  1.18487E+04  1.29223E+04  1.40457E+03  1.46566E+04 -6.02623E+03  1.06336E+04
 -8.20598E+03  3.87355E+03 -4.89776E+03 -1.44926E+03 -1.70925E+03 -1.64052E+03 -7.39572E+02 -2.87634E+02
 -2.14897E+03  9.29257E+02 -3.20164E+03 -2.05721E+02 -1.52457E+03 -3.62639E+03  7.00418E+02 -5.37083E+03
  6.28799E+03 -4.80110E+03  9.51543E+03 -5.13106E+02  1.00800E+04  7.84005E+03  3.08664E+03  1.48445E+04
 -6.96594E+03  1.64293E+04 -1.61364E+04  9.50434E+03 -1.81646E+04 -1.26721E+03 -1.38624E+04 -1.06787E+04
 -5.12505E+03 -1.53251E+04  3.97520E+03 -1.37831E+04  9.42025E+03 -7.48528E+03  1.02647E+04  1.37220E+02
  5.68015E+03  5.13814E+03 -3.18053E+02  4.43069E+03 -2.64014E+03 -3.65423E+02  2.04917E+02 -3.74171E+03
  4.92429E+03 -2.34190E+03  6.36035E+03  1.41565E+03  3.68777E+03  6.10056E+03 -1.69959E+02  7.93816E+03
 -6.62994E+03  6.69510E+03 -1.07315E+04  8.43123E+02 -9.06821E+03 -7.50951E+03 -1.73676E+03 -1.32635E+04
  7.33148E+03 -1.10016E+04  1.22798E+04 -3.71504E+03  1.23682E+04  3.38316E+03  6.78827E+03  9.70799E+03
  9.87189E+02  1.05718E+04 -3.89327E+03  8.46113E+03 -6.29812E+03  4.82684E+03 -5.19164E+03  7.16494E+02
 -3.29383E+03 -4.30207E+02 -2.62282E+03  1.17161E+03 -5.42407E+03  1.63385E+03 -7.94982E+03 -1.70769E+03
 -7.33647E+03 -6.21151E+03 -1.92329E+03 -1.00906E+04  4.91754E+03 -1.06787E+04  8.97173E+03 -5.21434E+03
  1.06941E+04  1.01663E+03  6.38112E+03  7.76755E+03 -6.90518E+02  1.07477E+04 -8.21693E+03  7.11504E+03
