 $NMID ID='MM_0lb_SNR800_9hz_g50_43.RAW', FMTDAT='(8E13.5)'
 TRAMP=1., VOLUME=1. $END
  3.09982E+05  2.76137E+02  3.38152E+05  2.50820E+05  8.50447E+04  3.38137E+05 -1.32582E+05  2.51766E+05
 -1.90827E+05  8.36351E+04 -1.12413E+05 -3.25700E+04 -1.69125E+02 -5.05963E+04  5.35125E+04 -5.47011E+02
  3.52467E+04  5.28363E+04 -1.69335E+04  7.56996E+04 -6.13527E+04  6.46104E+04 -8.53119E+04  3.26714E+04
 -8.20160E+04 -1.16906E+04 -5.82039E+04 -5.23496E+04 -1.52915E+04 -7.12011E+04  2.79483E+04 -4.63921E+04
  4.11826E+04  3.96432E+03  1.68980E+04  4.90354E+04 -3.47053E+04  4.83154E+04 -6.80270E+04 -8.42527E+00
 -5.52910E+04 -5.77944E+04 -6.98055E+03 -7.94851E+04  3.44335E+04 -5.71246E+04  4.95492E+04 -1.84220E+04
  4.54515E+04  1.17036E+04  3.28411E+04  2.66485E+04  1.58088E+04  3.05070E+04 -5.98958E+03  2.77747E+04
 -2.24720E+04  1.20911E+04 -1.84220E+04 -5.52172E+03  7.09565E+03 -7.41163E+03  2.35458E+04  1.37789E+04
  6.97489E+03  3.76881E+04 -3.39145E+04  3.72357E+04 -6.58347E+04  2.21982E+03 -5.91889E+04 -4.46526E+04
 -1.24559E+04 -6.56163E+04  4.17477E+04 -4.75126E+04  6.14493E+04 -2.47517E+03  3.67844E+04  3.43883E+04
 -5.35560E+03  3.94258E+04 -3.18597E+04  1.89153E+04 -3.30315E+04 -3.59191E+03 -1.94903E+04 -1.17843E+04
 -9.42974E+03 -1.54017E+04 -5.97875E+02 -1.97952E+04  7.89472E+03 -2.33796E+04  1.59048E+04 -1.27093E+04
  1.03567E+04  6.05445E+03 -1.03748E+04  1.24978E+04 -2.35418E+04 -6.85634E+03 -8.30240E+03 -3.75693E+04
  2.48009E+04 -4.69457E+04  5.21409E+04 -2.05650E+04  4.86430E+04  2.07966E+04  1.74020E+04  4.71194E+04
 -1.67165E+04  3.58431E+04 -2.76176E+04  2.49152E+03 -1.16769E+04 -2.96085E+04  2.12310E+04 -3.67077E+04
  4.46119E+04 -1.10950E+04  4.04308E+04  2.46800E+04  2.12629E+04  5.11226E+04 -8.54676E+03  5.56583E+04
 -3.54478E+04  3.80565E+04 -4.78209E+04  1.12378E+04 -4.73214E+04 -1.83822E+04 -2.60154E+04 -4.24088E+04
  7.88360E+03 -4.22587E+04  3.40589E+04 -1.71751E+04  3.17837E+04  1.13912E+04  5.10228E+03  2.10011E+04
 -1.41175E+04  9.78393E+03 -1.11130E+04 -7.83168E+03  6.12366E+03 -1.13306E+04  1.88876E+04  5.51533E+03
  1.45180E+04  2.23749E+04 -5.06897E+03  2.71782E+04 -2.36695E+04  1.42220E+04 -3.18843E+04 -2.80966E+03
 -2.53082E+04 -1.84789E+04 -1.18496E+04 -2.53291E+04  4.44811E+03 -2.55129E+04  1.97868E+04 -2.25096E+04
  3.18622E+04 -1.42023E+04  3.79357E+04  4.92590E+03  2.70678E+04  2.43479E+04  4.33858E+03  4.10396E+04
 -1.96907E+04  3.38311E+04 -3.07752E+04  1.18341E+04 -2.22763E+04 -1.04315E+04 -4.76314E+03 -1.34655E+04
  9.02597E+02 -1.19108E+03 -7.40911E+03  8.35144E+03 -2.05491E+04  4.99787E+03 -2.01669E+04 -1.01541E+04
 -1.23969E+04 -2.33218E+04  6.24317E+03 -2.76558E+04  1.86270E+04 -1.97028E+04  2.30187E+04 -1.93476E+03
  1.47722E+04  1.59689E+04 -1.28447E+03  2.31684E+04 -1.71039E+04  1.37194E+04 -2.35276E+04 -4.89668E+03
 -1.76639E+04 -2.12625E+04 -2.04340E+03 -2.81781E+04  1.30998E+04 -2.30543E+04  2.28246E+04 -1.17290E+04
  2.21260E+04 -4.47592E+02  1.58556E+04  5.07174E+03  8.92459E+03  1.40093E+03  1.23746E+04 -2.16798E+03
  2.19138E+04  2.52143E+03  2.56193E+04  1.77688E+04  1.72436E+04  3.80322E+04 -2.71225E+03  4.46725E+04
 -2.50314E+04  3.71730E+04 -4.18832E+04  1.89889E+04 -4.44244E+04 -2.93284E+03 -3.62326E+04 -2.59909E+04
 -1.43707E+04 -3.70375E+04  1.32009E+04 -3.30681E+04  2.81107E+04 -1.57626E+04  2.44352E+04  7.85519E+03
  8.07581E+03  1.85354E+04 -1.18499E+04  1.60613E+04 -2.01841E+04  2.51648E+03 -1.52426E+04 -1.32601E+04
 -2.23164E+02 -1.94558E+04  1.06195E+04 -1.40583E+04  1.32193E+04 -1.62509E+03  3.16165E+03  8.60251E+03
 -8.75740E+03  4.06346E+03 -9.64647E+03 -6.99410E+03 -1.81258E+03 -1.82888E+04  1.21989E+04 -1.97927E+04
  2.29241E+04 -1.11359E+04  2.65546E+04  3.56860E+03  2.30130E+04  1.87848E+04  1.09208E+04  2.92820E+04
 -5.57552E+03  3.12928E+04 -2.02814E+04  1.94585E+04 -2.24429E+04  3.56642E+03 -1.52477E+04 -5.76553E+03
 -6.55525E+03 -7.12692E+03 -4.65105E+02  5.68489E+02 -2.89803E+03  3.39127E+03 -7.25077E+03  5.36490E+03
 -1.44056E+04 -1.08299E+03 -1.46147E+04 -1.20893E+04 -5.65251E+03 -1.95799E+04  6.46544E+03 -1.57674E+04
  1.31526E+04 -6.53583E+03  9.13835E+03  4.23132E+03 -1.82762E+02  6.34956E+03 -7.69413E+03 -2.84228E+02
 -7.33781E+03 -9.76884E+03 -1.14654E+03 -1.55058E+04  9.28833E+03 -1.64265E+04  1.97494E+04 -8.91293E+03
  2.32703E+04  2.19657E+03  1.71015E+04  1.43536E+04  3.47384E+03  1.90334E+04 -9.90065E+03  1.53464E+04
 -1.24850E+04  4.17799E+03 -6.30086E+03 -3.74559E+03  2.20704E+03 -4.45667E+03  7.99392E+03 -1.00030E+03
  7.02088E+03  7.07529E+03  1.00138E+03  1.32206E+04 -9.47529E+03  1.17948E+04 -1.51062E+04  2.89598E+03
 -1.06674E+04 -8.07446E+03  3.74742E+02 -1.37192E+04  8.79373E+03 -7.28789E+03  9.44094E+03  3.02331E+03
  2.32121E+03  1.00340E+04 -8.35195E+03  1.15420E+04 -1.37084E+04  5.44560E+03 -1.38847E+04 -4.80031E+03
 -8.58693E+03 -1.57629E+04  4.01515E+03 -1.81444E+04  1.52724E+04 -1.06671E+04  1.65212E+04  2.64016E+03
  1.00110E+04  1.31715E+04 -1.39818E+03  1.57589E+04 -1.16974E+04  8.88461E+03 -1.23121E+04 -1.30282E+03
 -1.08677E+04 -1.05857E+04 -1.51286E+03 -1.22986E+04  6.13444E+03 -9.62025E+03  7.96885E+03 -3.96004E+03
  5.05448E+03  1.77998E+03 -1.09826E+03  1.60404E+03 -6.63875E+02 -3.04303E+03  3.03294E+03 -7.47729E+03
  1.19033E+04 -4.97822E+03  1.62157E+04  2.33715E+03  1.56662E+04  1.10576E+04  1.00986E+04  2.10070E+04
 -4.87873E+03  2.38303E+04 -2.00158E+04  1.74307E+04 -2.58409E+04  3.50162E+03 -2.12455E+04 -9.12521E+03
 -1.04934E+04 -1.70689E+04 -2.58603E+02 -1.47033E+04  5.05630E+03 -8.24331E+03  5.36242E+03 -5.36282E+03
  3.90986E+03 -2.96480E+03  3.67012E+03 -3.85461E+03  5.81780E+03 -3.38988E+03  8.16038E+03 -1.35007E+03
  1.04188E+04  2.02368E+03  6.15892E+03  9.49557E+03 -2.52266E+03  1.13113E+04 -1.15098E+04  8.91247E+03
 -1.46178E+04 -1.33551E+03 -9.51251E+03 -1.03903E+04 -1.26393E+03 -1.60112E+04  9.08194E+03 -1.64485E+04
  1.63386E+04 -8.58287E+03  1.93519E+04  2.41167E+03  1.35655E+04  1.36972E+04  2.27126E+03  1.78008E+04
 -7.63870E+03  1.43457E+04 -1.02038E+04  4.82629E+03 -7.06172E+03 -1.91917E+03 -3.22212E+03 -2.64097E+03
 -1.44561E+03 -4.39495E+02 -2.06236E+03  2.89155E+03 -6.26000E+03  2.19458E+03 -1.03397E+04 -1.56890E+03
 -7.11041E+03 -1.03275E+04 -1.39460E+02 -1.46396E+04  9.14203E+03 -1.34451E+04  1.46086E+04 -4.39065E+03
  1.50474E+04  6.51972E+03  6.93706E+03  1.28386E+04 -2.74569E+03  1.51096E+04 -1.09469E+04  9.66991E+03
 -1.38696E+04  5.05302E+02 -1.08497E+04 -9.37525E+03 -1.22780E+03 -1.28135E+04  6.41392E+03 -9.22502E+03
  9.17046E+03 -2.79041E+03  6.54636E+03  2.82309E+03  2.07722E+03  4.46057E+03  1.19394E+03  1.83583E+03
  2.79828E+03  1.43829E+03  3.51216E+03  2.03052E+03  4.30852E+03  5.36065E+03  3.67820E+03  7.99140E+03
 -3.06232E+03  1.20592E+04 -1.02871E+04  1.19679E+04 -1.56891E+04  3.06801E+03 -1.56175E+04 -7.04966E+03
 -7.71415E+03 -1.50155E+04  2.42321E+03 -1.70088E+04  9.19161E+03 -1.09380E+04  1.25352E+04 -2.77032E+03
  9.31108E+03  5.39883E+03  2.18091E+03  8.36145E+03 -4.50877E+03  5.67618E+03 -6.20856E+03 -1.08300E+03
 -2.64264E+03 -6.38474E+03  3.76411E+03 -6.46350E+03  6.66223E+03 -3.08194E+03  6.12001E+03  1.47755E+03
  3.66450E+03  3.43325E+03  1.30601E+03  2.46612E+03 -9.03001E+02  1.98447E+03  1.43245E+03 -6.15541E+02
  2.90642E+03 -8.92777E+02  6.19331E+03  2.90566E+03  3.61226E+03  8.42644E+03 -1.17577E+03  1.07960E+04
 -7.14774E+03  7.11544E+03 -9.70850E+03  1.87014E+03 -8.66447E+03 -3.76109E+03 -3.32509E+03 -6.20182E+03
  8.52105E+02 -5.86685E+03  4.23342E+03 -2.54491E+03  3.40063E+03  3.06149E+03 -1.81894E+03  5.35981E+03
 -6.52703E+03  2.72081E+03 -7.21871E+03 -3.46841E+03 -4.15652E+03 -8.40033E+03  1.63551E+03 -8.34618E+03
  4.94612E+03 -5.28660E+03  6.25509E+03 -5.83077E+02  4.91101E+03  1.99652E+03  7.92969E+02  4.78533E+03
 -2.94663E+03  1.55136E+03 -3.67316E+03 -2.88918E+03  1.16809E+03 -6.66280E+03  7.62915E+03 -5.22429E+03
  9.41643E+03  6.27900E+02  9.36159E+03  6.75280E+03  3.18402E+03  1.02414E+04 -3.44393E+03  9.47825E+03
 -8.10536E+03  4.42617E+03 -8.17313E+03 -1.21162E+03 -4.62762E+03 -6.60295E+03  1.56445E+03 -6.51034E+03
  6.09744E+03 -2.79706E+03  5.67950E+03  2.81899E+03  1.84227E+03  5.49911E+03 -1.10863E+03  4.92317E+03
 -2.73589E+03  2.72720E+03 -2.38174E+03  1.16415E+03 -1.15882E+03  1.19867E+03 -1.86449E+03  1.80629E+03
 -2.58732E+03  3.83743E+03 -6.30493E+03  3.29213E+03 -1.04804E+04  1.57016E+02 -1.13450E+04 -6.97998E+03
 -5.99680E+03 -1.34595E+04  2.36522E+03 -1.52354E+04  9.30340E+03 -1.19906E+04  1.42838E+04 -4.86372E+03
  1.37930E+04  2.74811E+03  8.34006E+03  9.31367E+03  9.28031E+02  1.03364E+04 -4.11397E+03  7.38952E+03
 -5.67596E+03  2.72511E+03 -3.26946E+03 -1.26155E+03 -1.75932E+03 -1.16048E+03 -6.56640E+02  3.15142E+02
 -1.58880E+03  4.18613E+02 -2.09588E+03 -3.62082E+02 -7.31235E+02 -2.28200E+03 -1.35457E+02 -3.50203E+03
  4.56975E+03 -3.25281E+03  6.38822E+03  3.30983E+02  7.38502E+03  5.60936E+03  2.27129E+03  1.07249E+04
 -5.02856E+03  1.20133E+04 -1.13827E+04  7.01435E+03 -1.23778E+04 -1.24910E+03 -9.34677E+03 -7.64521E+03
 -4.01726E+03 -1.06858E+04  2.73557E+03 -9.95581E+03  7.01604E+03 -5.35524E+03  7.05692E+03  3.93033E+02
  3.48877E+03  3.50922E+03 -2.97081E+02  2.97158E+03 -1.85327E+03 -4.18693E+02  1.16221E+02 -2.33058E+03
  3.48425E+03 -1.35997E+03  4.33232E+03  8.32086E+02  3.00112E+03  4.17276E+03 -7.31051E+01  5.81615E+03
 -4.66830E+03  4.88871E+03 -6.85288E+03  7.38654E+01 -6.57106E+03 -4.68835E+03 -9.82090E+02 -8.61650E+03
  5.08766E+03 -7.55929E+03  8.47240E+03 -2.02483E+03  8.10978E+03  2.21075E+03  4.52006E+03  6.08968E+03
  9.39251E+02  7.17112E+03 -2.78193E+03  5.58381E+03 -4.57387E+03  3.25445E+03 -3.77546E+03  6.26576E+02
 -1.86259E+03 -1.06561E+02 -2.22286E+03  1.05374E+03 -3.83832E+03  1.39095E+03 -5.32380E+03 -1.06748E+03
 -5.06197E+03 -3.84694E+03 -1.47872E+03 -7.40041E+03  3.15960E+03 -7.60141E+03  6.73889E+03 -3.90122E+03
  7.11629E+03  1.38205E+03  4.06206E+03  5.08123E+03 -5.83732E+02  7.39466E+03 -5.41505E+03  4.86845E+03
