 $NMID ID='MM_0lb_SNR800_12hz_g60_62.RAW', FMTDAT='(8E13.5)'
 TRAMP=1., VOLUME=1. $END
  3.10070E+05  1.04345E+02  3.38015E+05  2.50689E+05  8.49133E+04  3.38395E+05 -1.32567E+05  2.51795E+05
 -1.90827E+05  8.36954E+04 -1.12400E+05 -3.22199E+04  4.42492E+02 -5.07173E+04  5.36296E+04 -4.63088E+02
  3.57161E+04  5.30079E+04 -1.71510E+04  7.60157E+04 -6.09625E+04  6.42005E+04 -8.50097E+04  3.22079E+04
 -8.21809E+04 -1.15238E+04 -5.79181E+04 -5.22225E+04 -1.49681E+04 -7.04944E+04  2.80455E+04 -4.62475E+04
  4.08579E+04  3.67383E+03  1.66750E+04  4.82186E+04 -3.45788E+04  4.80747E+04 -6.76082E+04 -3.61560E+02
 -5.43388E+04 -5.74215E+04 -7.24911E+03 -7.85004E+04  3.45646E+04 -5.64390E+04  4.92394E+04 -1.82083E+04
  4.48668E+04  1.15361E+04  3.24145E+04  2.62807E+04  1.56155E+04  3.02359E+04 -5.41597E+03  2.77280E+04
 -2.24049E+04  1.20896E+04 -1.83699E+04 -5.74322E+03  6.60186E+03 -7.61154E+03  2.31290E+04  1.33469E+04
  7.33810E+03  3.68850E+04 -3.33494E+04  3.68228E+04 -6.50804E+04  2.03564E+03 -5.83418E+04 -4.39412E+04
 -1.23457E+04 -6.51187E+04  4.12842E+04 -4.66314E+04  6.01570E+04 -2.48344E+03  3.61593E+04  3.34587E+04
 -5.68867E+03  3.84845E+04 -3.13100E+04  1.77497E+04 -3.25526E+04 -3.85733E+03 -1.86561E+04 -1.16998E+04
 -9.24868E+03 -1.44765E+04 -8.87896E+02 -1.93565E+04  8.10235E+03 -2.33490E+04  1.59297E+04 -1.32397E+04
  1.07083E+04  6.18932E+03 -9.80686E+03  1.26360E+04 -2.27930E+04 -6.14041E+03 -8.73379E+03 -3.63593E+04
  2.47479E+04 -4.59490E+04  5.05565E+04 -2.06424E+04  4.76815E+04  2.04621E+04  1.67797E+04  4.64579E+04
 -1.69302E+04  3.51757E+04 -2.68642E+04  2.26583E+03 -1.12507E+04 -2.89674E+04  2.15731E+04 -3.64091E+04
  4.37578E+04 -1.02714E+04  3.91815E+04  2.42258E+04  2.08155E+04  4.99403E+04 -8.67646E+03  5.40206E+04
 -3.42473E+04  3.69027E+04 -4.58009E+04  1.04765E+04 -4.62715E+04 -1.80440E+04 -2.52141E+04 -4.07196E+04
  7.78501E+03 -4.07094E+04  3.33723E+04 -1.65258E+04  3.09575E+04  1.12829E+04  5.08513E+03  2.05077E+04
 -1.36324E+04  9.11346E+03 -1.10053E+04 -7.49037E+03  5.79873E+03 -1.12078E+04  1.86627E+04  5.96047E+03
  1.40267E+04  2.28809E+04 -5.41980E+03  2.65295E+04 -2.32889E+04  1.35633E+04 -3.01261E+04 -3.47322E+03
 -2.36424E+04 -1.81469E+04 -1.07768E+04 -2.33776E+04  4.33248E+03 -2.36550E+04  1.80850E+04 -2.16414E+04
  3.03876E+04 -1.35919E+04  3.61232E+04  4.21970E+03  2.63115E+04  2.29047E+04  4.51819E+03  3.95699E+04
 -1.92790E+04  3.25232E+04 -2.98008E+04  1.13009E+04 -2.18080E+04 -1.00322E+04 -4.76753E+03 -1.30429E+04
  9.37520E+02 -1.72115E+03 -6.63207E+03  7.50770E+03 -1.88644E+04  5.21986E+03 -1.89453E+04 -8.64693E+03
 -1.10656E+04 -2.17366E+04  5.36998E+03 -2.59010E+04  1.77715E+04 -1.84806E+04  2.12632E+04 -1.86789E+03
  1.32063E+04  1.51217E+04 -1.15610E+03  2.16497E+04 -1.50050E+04  1.24578E+04 -2.20135E+04 -4.64204E+03
 -1.60087E+04 -1.96094E+04 -1.99688E+03 -2.61943E+04  1.14195E+04 -2.14454E+04  2.16045E+04 -1.12333E+04
  2.04943E+04 -2.52159E+02  1.45371E+04  4.99158E+03  8.06542E+03  1.35448E+03  1.11356E+04 -1.91233E+03
  2.01261E+04  2.70506E+03  2.33881E+04  1.69438E+04  1.53221E+04  3.51791E+04 -2.74566E+03  4.04477E+04
 -2.33382E+04  3.34088E+04 -3.78362E+04  1.68207E+04 -4.04314E+04 -3.05082E+03 -3.29548E+04 -2.36627E+04
 -1.34149E+04 -3.36023E+04  1.16110E+04 -2.94626E+04  2.55015E+04 -1.45612E+04  2.26042E+04  7.16075E+03
  7.94503E+03  1.67902E+04 -1.05729E+04  1.42622E+04 -1.84640E+04  2.36334E+03 -1.36762E+04 -1.16233E+04
 -1.25180E+02 -1.77595E+04  9.72027E+03 -1.34939E+04  1.20990E+04 -1.25888E+03  2.85822E+03  8.09970E+03
 -8.24437E+03  3.69445E+03 -7.96505E+03 -6.60172E+03 -1.28451E+03 -1.63714E+04  1.08999E+04 -1.74904E+04
  2.02729E+04 -9.56795E+03  2.29180E+04  3.05618E+03  2.00219E+04  1.64819E+04  9.11363E+03  2.57304E+04
 -4.63702E+03  2.73406E+04 -1.80654E+04  1.70836E+04 -1.97055E+04  4.02180E+03 -1.36943E+04 -4.94839E+03
 -5.90386E+03 -6.35024E+03 -8.37313E+02  8.48141E+02 -2.56995E+03  3.09204E+03 -6.60408E+03  4.99535E+03
 -1.28651E+04 -8.01742E+02 -1.30646E+04 -1.09993E+04 -5.59525E+03 -1.72771E+04  5.86046E+03 -1.38569E+04
  1.13807E+04 -6.18969E+03  8.01429E+03  4.12510E+03 -3.62853E+02  5.51424E+03 -6.65237E+03  4.09125E+01
 -6.32368E+03 -8.47877E+03 -1.04930E+03 -1.32442E+04  7.83918E+03 -1.43794E+04  1.74932E+04 -7.64879E+03
  2.07283E+04  1.76101E+03  1.49956E+04  1.24317E+04  2.77978E+03  1.66043E+04 -8.67237E+03  1.38015E+04
 -1.08891E+04  3.98234E+03 -5.62875E+03 -2.94889E+03  2.11422E+03 -3.74990E+03  7.26680E+03 -1.05936E+03
  6.29532E+03  6.18909E+03  7.73080E+02  1.08335E+04 -8.00376E+03  1.08604E+04 -1.35823E+04  2.74026E+03
 -9.23074E+03 -6.83651E+03  4.67835E+02 -1.13234E+04  7.31911E+03 -6.09136E+03  7.72359E+03  2.66993E+03
  1.68124E+03  8.35398E+03 -7.23962E+03  9.51628E+03 -1.11500E+04  4.61768E+03 -1.12182E+04 -3.90500E+03
 -6.37982E+03 -1.33131E+04  3.17848E+03 -1.49887E+04  1.30180E+04 -9.15842E+03  1.38760E+04  2.25298E+03
  8.15540E+03  1.10782E+04 -1.02304E+03  1.32413E+04 -9.56083E+03  7.16015E+03 -1.10279E+04 -1.14858E+03
 -9.26297E+03 -8.65740E+03 -1.52642E+03 -9.98991E+03  5.44122E+03 -8.34561E+03  6.59138E+03 -3.65861E+03
  4.38160E+03  1.68842E+03 -9.29694E+02  1.49565E+03 -2.91711E+02 -2.47769E+03  1.94715E+03 -5.93894E+03
  9.48613E+03 -3.65497E+03  1.26574E+04  1.44061E+03  1.25833E+04  8.90985E+03  9.01718E+03  1.66259E+04
 -3.91609E+03  1.94560E+04 -1.63926E+04  1.40901E+04 -2.09691E+04  2.82178E+03 -1.70531E+04 -6.94383E+03
 -8.83546E+03 -1.36705E+04 -3.66482E+02 -1.16479E+04  4.26356E+03 -6.26882E+03  3.66710E+03 -4.20309E+03
  2.95028E+03 -2.62239E+03  3.55542E+03 -3.10082E+03  5.06126E+03 -2.64960E+03  6.76934E+03 -7.64108E+02
  8.73521E+03  2.09381E+03  4.39619E+03  7.43681E+03 -1.95145E+03  8.76677E+03 -9.24752E+03  6.75085E+03
 -1.19259E+04 -1.50782E+03 -7.06995E+03 -8.19200E+03 -3.56283E+02 -1.20711E+04  7.06975E+03 -1.27149E+04
  1.27613E+04 -6.97803E+03  1.51632E+04  1.99664E+03  1.04110E+04  1.05179E+04  1.94588E+03  1.40314E+04
 -5.58879E+03  1.14356E+04 -7.97210E+03  3.98919E+03 -5.40578E+03 -1.36959E+03 -2.03276E+03 -1.81081E+03
 -1.15556E+03  2.00071E+02 -1.79563E+03  2.35246E+03 -5.02257E+03  2.04397E+03 -7.89355E+03 -1.10104E+03
 -5.46878E+03 -8.10570E+03  2.27397E+02 -1.12017E+04  7.32791E+03 -1.05225E+04  1.11909E+04 -3.16531E+03
  1.10055E+04  5.77028E+03  5.01137E+03  9.84236E+03 -2.24021E+03  1.12357E+04 -7.82163E+03  7.09987E+03
 -1.05629E+04  8.56481E+02 -7.71336E+03 -6.48683E+03 -7.73482E+02 -9.17846E+03  4.68821E+03 -6.81468E+03
  7.31124E+03 -2.54069E+03  4.83351E+03  1.98503E+03  1.97656E+03  2.87309E+03  1.37913E+03  1.44128E+03
  2.48710E+03  6.09464E+02  2.61020E+03  1.40383E+03  3.26610E+03  4.33313E+03  3.36551E+03  5.97873E+03
 -2.29140E+03  8.71994E+03 -7.42801E+03  8.57368E+03 -1.11334E+04  2.70867E+03 -1.13558E+04 -4.08851E+03
 -5.39321E+03 -1.09575E+04  1.79995E+03 -1.22679E+04  6.22738E+03 -7.65778E+03  8.65926E+03 -2.41369E+03
  7.16590E+03  4.00893E+03  1.27915E+03  6.05095E+03 -2.86173E+03  3.93084E+03 -4.28915E+03 -2.85966E+02
 -1.86877E+03 -4.78272E+03  2.88389E+03 -4.77515E+03  4.43760E+03 -2.25691E+03  4.21171E+03  8.74411E+02
  2.70950E+03  1.99772E+03  1.03870E+03  1.62074E+03 -5.99895E+02  1.45971E+03  1.47586E+03 -4.90215E+02
  1.63643E+03 -8.26104E+02  4.42515E+03  1.88705E+03  1.83945E+03  5.59634E+03 -1.02482E+03  7.33037E+03
 -5.27011E+03  4.86052E+03 -6.47253E+03  1.22023E+03 -6.51167E+03 -2.39768E+03 -2.02070E+03 -3.84272E+03
  7.93108E+02 -3.92808E+03  2.60093E+03 -2.15019E+03  2.63223E+03  2.31635E+03 -1.39441E+03  3.39832E+03
 -4.21127E+03  2.17915E+03 -5.07043E+03 -2.85855E+03 -2.38606E+03 -5.94616E+03  6.38952E+02 -5.75928E+03
  3.26013E+03 -3.16914E+03  4.03900E+03 -2.64590E+02  3.55078E+03  1.44678E+03  5.96170E+02  3.37402E+03
 -1.90023E+03  5.69330E+02 -2.54262E+03 -1.80064E+03  7.94975E+02 -4.09556E+03  5.41345E+03 -3.48793E+03
  5.86678E+03  4.25989E+02  6.61345E+03  4.22523E+03  2.60893E+03  6.62259E+03 -2.09933E+03  6.32487E+03
 -5.61795E+03  2.52070E+03 -5.60315E+03 -8.66035E+02 -3.11394E+03 -4.48870E+03  8.13484E+02 -3.70867E+03
  4.30248E+03 -1.79918E+03  3.82463E+03  1.30807E+03  1.30400E+03  3.69553E+03 -1.31224E+02  3.22397E+03
 -1.91297E+03  2.20119E+03 -1.56482E+03  5.66671E+02 -9.52108E+02  7.13543E+02 -1.10838E+03  1.52974E+03
 -1.54230E+03  2.93494E+03 -4.62037E+03  2.09548E+03 -6.45733E+03  3.52368E+02 -7.32860E+03 -4.46119E+03
 -4.01448E+03 -8.48020E+03  1.79729E+03 -1.00964E+04  5.67606E+03 -7.56025E+03  9.20008E+03 -2.88458E+03
  8.68471E+03  1.68025E+03  5.39122E+03  6.05871E+03  4.93952E+02  6.69896E+03 -2.42232E+03  5.56152E+03
 -3.78894E+03  1.63577E+03 -2.13923E+03 -6.14209E+02 -5.79199E+02 -8.00266E+02 -6.46551E+02  1.94334E+02
 -1.62821E+03  6.08533E+01 -1.85843E+03  6.93108E+01  5.43460E+01 -1.77570E+03 -7.36743E+00 -2.39943E+03
  3.36213E+03 -2.22696E+03  3.67332E+03  2.96073E+02  4.61276E+03  3.60363E+03  7.44880E+02  6.29206E+03
 -3.00819E+03  7.68258E+03 -6.61014E+03  4.37025E+03 -7.62589E+03 -3.81888E+02 -5.85921E+03 -4.82822E+03
 -2.15161E+03 -6.39901E+03  1.66702E+03 -5.91750E+03  3.46865E+03 -2.86913E+03  3.94247E+03  1.54754E+02
  2.34642E+03  2.13213E+03 -4.42029E+02  1.88552E+03 -1.28483E+03 -2.28645E+02  6.99550E+01 -1.70218E+03
  2.04303E+03 -4.51808E+02  2.20708E+03  1.08091E+03  1.39183E+03  2.68877E+03  4.41455E+02  2.91774E+03
 -3.10710E+03  2.35689E+03 -4.36147E+03  2.09726E+02 -3.53820E+03 -2.81765E+03 -6.23921E+02 -4.74871E+03
  2.90114E+03 -4.06373E+03  4.30322E+03 -1.19566E+03  5.03769E+03  7.79321E+02  2.53741E+03  3.53402E+03
  4.68941E+02  4.30510E+03 -1.56678E+03  3.18737E+03 -2.51296E+03  1.89235E+03 -2.28749E+03  3.96604E+02
 -9.59241E+02  5.96387E-01 -1.68625E+03  1.68024E+02 -1.77536E+03  7.87899E+02 -3.41154E+03 -5.40852E+02
 -3.32810E+03 -1.81046E+03 -1.14957E+03 -3.74982E+03  1.96643E+03 -4.89160E+03  3.42925E+03 -2.16746E+03
  4.08812E+03  8.25274E+02  1.91420E+03  2.46997E+03 -5.47539E+02  3.93538E+03 -2.72778E+03  2.27949E+03
