 $NMID ID='MM_0lb_SNR800_18hz_g60_74.RAW', FMTDAT='(8E13.5)'
 TRAMP=1., VOLUME=1. $END
  3.09652E+05  3.90250E+02  3.37729E+05  2.50508E+05  8.47635E+04  3.37830E+05 -1.32426E+05  2.50703E+05
 -1.89926E+05  8.29258E+04 -1.11763E+05 -3.25804E+04  1.08901E+03 -5.06798E+04  5.40833E+04 -1.04253E+02
  3.51029E+04  5.27679E+04 -1.66464E+04  7.53904E+04 -6.04443E+04  6.34847E+04 -8.37550E+04  3.20223E+04
 -8.07490E+04 -1.12801E+04 -5.68449E+04 -5.10032E+04 -1.50949E+04 -6.93569E+04  2.74222E+04 -4.54371E+04
  3.97934E+04  4.02079E+03  1.59642E+04  4.76114E+04 -3.40577E+04  4.71315E+04 -6.60517E+04 -2.79075E+02
 -5.32802E+04 -5.64248E+04 -6.69645E+03 -7.64313E+04  3.35897E+04 -5.43184E+04  4.72328E+04 -1.72177E+04
  4.26317E+04  1.11351E+04  3.13297E+04  2.53142E+04  1.57861E+04  2.90467E+04 -4.94549E+03  2.70139E+04
 -2.20042E+04  1.25569E+04 -1.87675E+04 -5.09871E+03  5.02529E+03 -7.36787E+03  2.17879E+04  1.18939E+04
  7.14307E+03  3.45842E+04 -3.12488E+04  3.51786E+04 -6.26350E+04  1.84879E+03 -5.65446E+04 -4.19657E+04
 -1.22671E+04 -6.27750E+04  3.93313E+04 -4.47850E+04  5.72798E+04 -2.19163E+03  3.34153E+04  3.16908E+04
 -6.31009E+03  3.51331E+04 -2.92970E+04  1.51508E+04 -2.92667E+04 -4.77481E+03 -1.60929E+04 -1.07750E+04
 -7.80688E+03 -1.27954E+04 -5.08948E+02 -1.76737E+04  6.94015E+03 -2.31342E+04  1.54883E+04 -1.33430E+04
  1.16384E+04  4.94416E+03 -7.48089E+03  1.31582E+04 -2.04966E+04 -3.52285E+03 -8.55468E+03 -3.26205E+04
  2.20753E+04 -4.25003E+04  4.68757E+04 -1.90937E+04  4.40082E+04  1.90702E+04  1.50983E+04  4.31339E+04
 -1.58647E+04  3.25580E+04 -2.48134E+04  1.49977E+03 -9.25353E+03 -2.72241E+04  2.06517E+04 -3.28869E+04
  4.00626E+04 -8.27646E+03  3.40427E+04  2.34093E+04  1.69823E+04  4.46816E+04 -7.82772E+03  4.82747E+04
 -3.02844E+04  3.21364E+04 -4.02381E+04  8.87223E+03 -4.08427E+04 -1.60297E+04 -2.26225E+04 -3.62384E+04
  7.49321E+03 -3.63809E+04  3.03919E+04 -1.38026E+04  2.84176E+04  1.08300E+04  3.58425E+03  1.86158E+04
 -1.33605E+04  7.87205E+03 -1.02839E+04 -7.43087E+03  6.17806E+03 -1.06505E+04  1.76153E+04  6.37624E+03
  1.27375E+04  2.19393E+04 -6.02180E+03  2.43732E+04 -2.18301E+04  1.02855E+04 -2.68316E+04 -5.52056E+03
 -1.88034E+04 -1.65080E+04 -7.26005E+03 -1.87398E+04  3.88298E+03 -1.73218E+04  1.41251E+04 -1.66274E+04
  2.40717E+04 -1.23948E+04  3.04659E+04  2.00853E+03  2.25894E+04  1.82488E+04  4.16009E+03  3.46427E+04
 -1.68603E+04  2.91678E+04 -2.70974E+04  9.86494E+03 -2.01303E+04 -1.01268E+04 -4.33123E+03 -1.36803E+04
  2.07556E+03 -3.26106E+03 -3.96582E+03  6.07286E+03 -1.45334E+04  5.20476E+03 -1.49770E+04 -6.02674E+03
 -9.43364E+03 -1.72245E+04  4.66976E+03 -2.11409E+04  1.40569E+04 -1.55894E+04  1.63551E+04 -1.69360E+03
  9.88715E+03  1.20859E+04 -8.65700E+02  1.73122E+04 -1.16812E+04  9.82037E+03 -1.68823E+04 -3.86486E+03
 -1.27438E+04 -1.56078E+04 -1.64908E+03 -2.08730E+04  9.57545E+03 -1.69451E+04  1.74632E+04 -8.04823E+03
  1.58922E+04  6.48961E+02  1.15021E+04  3.96956E+03  6.19966E+03  6.76308E+02  8.50721E+03 -1.28876E+03
  1.55922E+04  2.73056E+03  1.67387E+04  1.34991E+04  1.08155E+04  2.73453E+04 -3.07214E+03  2.99885E+04
 -1.77767E+04  2.33311E+04 -2.77211E+04  1.15372E+04 -2.88478E+04 -1.77535E+03 -2.42906E+04 -1.65782E+04
 -1.08930E+04 -2.32561E+04  8.22713E+03 -2.13952E+04  1.86548E+04 -1.17127E+04  1.72599E+04  4.35702E+03
  6.77796E+03  1.28460E+04 -7.94802E+03  1.10508E+04 -1.44702E+04  2.66368E+03 -1.13102E+04 -9.10472E+03
 -2.86667E+02 -1.34150E+04  7.02400E+03 -1.01550E+04  8.88153E+03 -1.43804E+03  1.59192E+03  5.56976E+03
 -6.06922E+03  1.86762E+03 -4.81362E+03 -5.09621E+03  2.14367E+02 -1.17214E+04  8.46420E+03 -1.15027E+04
  1.41123E+04 -5.63694E+03  1.42619E+04  2.86561E+03  1.24107E+04  1.06748E+04  5.74153E+03  1.62343E+04
 -2.37153E+03  1.84194E+04 -1.14695E+04  1.17237E+04 -1.29941E+04  3.16458E+03 -9.29093E+03 -2.34523E+03
 -5.05756E+03 -3.82306E+03 -9.07316E+02  1.39189E+03 -1.94586E+03  1.95275E+03 -4.24408E+03  3.84523E+03
 -8.74770E+03 -8.34335E+02 -9.74827E+03 -7.95786E+03 -3.75966E+03 -1.27830E+04  3.65399E+03 -9.57711E+03
  7.87920E+03 -4.24922E+03  5.93437E+03  2.28886E+03  4.43650E+02  3.63592E+03 -4.00239E+03 -1.97036E+02
 -4.03313E+03 -6.03684E+03 -6.45546E+02 -8.28128E+03  4.68018E+03 -8.93134E+03  1.13396E+04 -4.45196E+03
  1.33410E+04  9.10363E+02  9.84734E+03  7.20478E+03  1.99278E+03  9.83625E+03 -5.82050E+03  9.24514E+03
 -7.64117E+03  2.92061E+03 -4.12473E+03 -1.54293E+03  1.34897E+03 -2.35550E+03  4.95466E+03 -8.80916E+02
  4.64471E+03  3.49453E+03  1.02861E+03  6.83276E+03 -4.86252E+03  7.12982E+03 -8.67969E+03  1.88167E+03
 -5.63930E+03 -3.97421E+03  2.99713E+02 -7.74655E+03  4.39051E+03 -3.53027E+03  4.43160E+03  1.51711E+03
  8.68749E+02  3.97026E+03 -4.73336E+03  5.45831E+03 -6.12181E+03  2.66423E+03 -5.46733E+03 -1.82530E+03
 -3.60036E+03 -7.06567E+03  1.66578E+03 -8.10386E+03  6.57003E+03 -5.24335E+03  7.49183E+03  1.28523E+03
  5.03394E+03  6.19261E+03 -4.41995E+01  7.94550E+03 -5.77657E+03  4.51602E+03 -5.79457E+03 -6.71982E+02
 -6.09619E+03 -5.78658E+03 -1.39006E+03 -5.74328E+03  2.95559E+03 -5.37713E+03  3.16490E+03 -3.25369E+03
  3.15580E+03  4.77060E+02 -7.47045E+01  1.51805E+03  2.50680E+02 -6.64271E+02  3.34618E+02 -2.38862E+03
  4.67159E+03 -1.22172E+03  6.36199E+03  1.05661E+03  6.41807E+03  3.69710E+03  5.81082E+03  8.28063E+03
 -1.64674E+03  9.75888E+03 -8.78593E+03  7.34127E+03 -1.12406E+04  1.43794E+03 -8.94887E+03 -3.06801E+03
 -4.40040E+03 -7.68536E+03 -6.00883E+02 -5.74394E+03  2.33751E+03 -2.72630E+03  1.84995E+03 -2.52378E+03
  1.40912E+03 -1.74200E+03  2.37159E+03 -2.44947E+03  3.49154E+03 -1.61517E+03  4.00132E+03  3.72012E+02
  4.62435E+03  1.32460E+03  1.52112E+03  3.97128E+03 -1.71089E+03  3.42460E+03 -4.92106E+03  3.06527E+03
 -5.82238E+03 -9.79836E+02 -2.30000E+03 -3.72983E+03  2.59952E+02 -5.82180E+03  3.64535E+03 -5.98893E+03
  5.77227E+03 -3.45617E+03  7.60552E+03  4.31903E+02  5.35933E+03  4.92727E+03  1.18114E+03  6.87455E+03
 -2.15590E+03  6.57138E+03 -3.49173E+03  1.89848E+03 -2.08583E+03 -8.33778E+02 -6.10116E+02 -6.56047E+02
 -6.82965E+02  5.02553E+02 -8.35141E+02  2.00139E+03 -2.67764E+03  1.01941E+03 -4.36254E+03 -4.57520E+02
 -1.80163E+03 -4.22572E+03  9.07689E+02 -5.11465E+03  2.85275E+03 -4.92677E+03  4.42619E+03 -1.11103E+03
  4.39697E+03  2.77025E+03  2.32872E+03  3.97155E+03 -7.40665E+02  5.07210E+03 -2.94412E+03  3.04823E+03
 -4.55608E+03  6.76765E+02 -3.73724E+03 -2.96720E+03 -2.13938E+02 -3.44001E+03  1.81563E+03 -2.82891E+03
  2.89548E+03 -1.66472E+03  1.95563E+03  3.25630E+02  6.43173E+02  1.55163E+03  9.61036E+02  4.72383E+02
  1.76220E+03  4.93006E+02  1.25500E+03  1.16581E+03  1.43858E+03  2.49412E+03  1.37853E+03  1.85214E+03
 -1.08995E+03  3.47563E+03 -2.82565E+03  4.50553E+03 -3.77085E+03  1.19980E+03 -4.84345E+03 -7.89960E+02
 -1.66983E+03 -4.27625E+03  5.35870E+02 -5.21564E+03  2.30208E+03 -2.94018E+03  3.46475E+03 -7.29880E+02
  2.50255E+03  1.79139E+03  5.09872E+02  2.51518E+03 -7.44797E+02  1.21234E+03 -1.15806E+03  2.48063E+02
 -7.95076E+02 -1.66644E+03  1.26260E+03 -1.64275E+03  1.60093E+03 -8.91625E+02  1.49718E+03  4.42035E+02
  7.63459E+02  4.92986E+02  5.47074E+02 -5.97330E+01 -3.25951E+02  9.63686E+02  1.53689E+03 -1.65804E+02
  2.76397E+02 -3.13025E+02  1.87987E+03  7.40453E+02  5.19218E+02  2.42232E+03 -3.70769E+02  2.88085E+03
 -2.06863E+03  1.13915E+03 -2.19526E+03  3.18446E+02 -2.29236E+03 -1.14276E+03 -9.28860E+01 -1.33356E+03
  4.66490E+02 -1.19214E+03  9.71039E+02 -6.74935E+02  7.14988E+02  1.22458E+03 -6.08238E+02  1.09825E+03
 -1.71215E+03  9.15120E+02 -9.11017E+02 -1.36117E+03 -7.51701E+02 -2.47714E+03  6.46612E+01 -1.75677E+03
  6.90907E+02 -8.42481E+02  8.43799E+02 -3.39604E+01  1.56578E+03  2.73540E+02  2.77459E+02  1.15260E+03
 -3.08136E+02  2.10963E+02 -9.59441E+02 -3.44815E+02  6.20987E+02 -9.24910E+02  1.87952E+03 -7.56447E+02
  1.35778E+03  1.74362E+02  2.75189E+03  7.98205E+02  1.15073E+03  1.80342E+03 -6.82307E+02  2.14055E+03
 -1.82990E+03  3.40741E+02 -1.60212E+03 -8.25150E+01 -8.95771E+02 -1.39100E+03  4.14994E+02 -5.93433E+02
  1.71958E+03 -7.40913E+02  1.13697E+03  4.58905E+02  3.71934E+02  1.38406E+03  2.85178E+02  1.22497E+03
 -1.85507E+02  9.90979E+02 -5.12635E+02  2.74671E+02 -1.17649E+02  3.66113E+02 -4.02823E+02  4.18592E+02
 -6.09078E+02  1.24341E+03 -1.66871E+03  5.25495E+02 -1.86656E+03  9.74904E+01 -2.61984E+03 -1.11365E+03
 -1.01522E+03 -2.20294E+03  7.09452E+02 -3.12245E+03  1.16373E+03 -2.62485E+03  2.95504E+03 -1.01631E+03
  2.50456E+03  1.85070E+02  1.06777E+03  1.61964E+03 -6.48531E+02  1.24512E+03 -5.82796E+02  1.28553E+03
 -9.06063E+02  8.11486E+02 -4.73879E+02 -2.96523E+02 -5.87884E+02  1.51144E+02 -3.99891E+02  3.16167E+00
 -1.00235E+03 -1.17661E+02 -8.32714E+02  1.56439E+02  4.72440E+02 -6.13113E+02 -3.86409E+02 -9.94602E+02
  1.22361E+03 -7.89435E+02  2.39472E+02 -1.50171E+02  1.24428E+03  1.11902E+03 -3.86501E+02  1.39870E+03
 -1.09974E+03  2.52306E+03 -1.47822E+03  1.41769E+03 -1.70890E+03 -2.82886E+02 -1.33553E+03 -1.34366E+03
 -9.09085E+02 -1.47229E+03  4.74058E+02 -1.37842E+03  4.63830E+02 -5.57747E+02  7.00195E+02  2.25468E+02
  9.86219E+02  3.54921E+02  3.82685E+02  2.34644E+02 -6.43698E+02 -2.69234E+02  9.05143E+01  6.88714E+01
  5.83596E+02  1.21425E+02  4.02246E+02  1.55540E+02 -3.01203E+00  3.48588E+02  3.89132E+02  3.71936E+02
 -5.99690E+02  9.05407E+02 -5.26340E+02  6.96882E+01 -7.07226E+02 -1.59894E+02 -1.00586E+02 -1.22602E+03
  4.35246E+02 -8.13289E+02  5.80526E+02  2.49549E+02  9.28674E+02 -5.10779E+02  3.96829E+02  6.22676E+02
  4.21442E+02  5.73900E+02 -1.21948E+02  5.25950E+02 -7.29447E+02  6.12033E+02 -5.83399E+02  2.82157E+02
 -4.00874E+02 -5.33650E+00 -1.67110E+02  9.92093E+01 -6.25624E+02 -1.42932E+02 -8.60888E+02 -3.11578E+01
 -8.82885E+02  2.44157E+02 -4.77142E+02 -1.27475E+03  6.04303E+02 -1.64254E+03  9.27343E+02 -4.92441E+02
  7.54498E+02 -1.92716E+01 -3.38938E+02  3.85310E+02  2.46953E+02  7.94993E+02 -6.09705E+02  7.93148E+02
