 $NMID ID='MM_0lb_SNR800_16hz_g60_46.RAW', FMTDAT='(8E13.5)'
 TRAMP=1., VOLUME=1. $END
  3.09857E+05  3.91637E+02  3.37583E+05  2.50564E+05  8.45523E+04  3.38024E+05 -1.32292E+05  2.51081E+05
 -1.90341E+05  8.34235E+04 -1.11877E+05 -3.24695E+04  1.09350E+03 -5.03885E+04  5.38666E+04 -2.76709E+02
  3.54387E+04  5.27683E+04 -1.68795E+04  7.56279E+04 -6.08461E+04  6.40052E+04 -8.41230E+04  3.20271E+04
 -8.08861E+04 -1.14063E+04 -5.73125E+04 -5.16534E+04 -1.51764E+04 -6.98776E+04  2.73262E+04 -4.63187E+04
  4.01834E+04  3.87606E+03  1.63163E+04  4.78391E+04 -3.42463E+04  4.73045E+04 -6.70968E+04 -3.09189E+02
 -5.36856E+04 -5.67645E+04 -6.94151E+03 -7.72686E+04  3.39701E+04 -5.51401E+04  4.83097E+04 -1.70255E+04
  4.36946E+04  1.10928E+04  3.18964E+04  2.54757E+04  1.59609E+04  2.93902E+04 -4.96590E+03  2.72979E+04
 -2.20623E+04  1.23614E+04 -1.82685E+04 -5.23880E+03  5.71068E+03 -7.40378E+03  2.22139E+04  1.23500E+04
  7.26593E+03  3.55833E+04 -3.20766E+04  3.57257E+04 -6.34471E+04  2.19129E+03 -5.71188E+04 -4.28931E+04
 -1.26515E+04 -6.33798E+04  3.95136E+04 -4.54847E+04  5.83682E+04 -1.90857E+03  3.44216E+04  3.24049E+04
 -6.02934E+03  3.60056E+04 -2.97585E+04  1.61442E+04 -3.05221E+04 -4.31721E+03 -1.66139E+04 -1.08052E+04
 -8.39524E+03 -1.31288E+04 -5.87553E+02 -1.79555E+04  7.49779E+03 -2.31988E+04  1.55598E+04 -1.32435E+04
  1.14185E+04  4.83562E+03 -8.19313E+03  1.30381E+04 -2.15157E+04 -4.39549E+03 -8.56613E+03 -3.37918E+04
  2.29261E+04 -4.33422E+04  4.80710E+04 -1.96577E+04  4.50558E+04  1.94213E+04  1.57281E+04  4.41487E+04
 -1.58027E+04  3.34447E+04 -2.51157E+04  1.71265E+03 -1.02168E+04 -2.75044E+04  2.10891E+04 -3.38041E+04
  4.11061E+04 -8.99903E+03  3.53220E+04  2.38296E+04  1.81046E+04  4.62293E+04 -8.35402E+03  5.00308E+04
 -3.15296E+04  3.37412E+04 -4.18187E+04  9.61995E+03 -4.23789E+04 -1.69616E+04 -2.33833E+04 -3.78866E+04
  7.09296E+03 -3.79146E+04  3.15315E+04 -1.50570E+04  2.92618E+04  1.09398E+04  4.24480E+03  1.92303E+04
 -1.30858E+04  8.45595E+03 -1.03594E+04 -7.28075E+03  5.65890E+03 -1.08412E+04  1.81523E+04  6.27515E+03
  1.34079E+04  2.21979E+04 -6.25930E+03  2.49473E+04 -2.21893E+04  1.13393E+04 -2.77836E+04 -5.01223E+03
 -2.07682E+04 -1.72190E+04 -8.36495E+03 -2.04745E+04  4.09927E+03 -1.93733E+04  1.53499E+04 -1.82205E+04
  2.60919E+04 -1.26297E+04  3.22936E+04  2.59794E+03  2.41585E+04  1.94672E+04  3.81376E+03  3.61589E+04
 -1.73256E+04  3.00861E+04 -2.75447E+04  1.02231E+04 -2.07627E+04 -1.05541E+04 -4.17268E+03 -1.35374E+04
  1.96713E+03 -3.03355E+03 -4.62963E+03  6.34702E+03 -1.60977E+04  5.26061E+03 -1.60280E+04 -6.81145E+03
 -9.69944E+03 -1.84550E+04  4.91691E+03 -2.26406E+04  1.48396E+04 -1.62629E+04  1.82661E+04 -1.81281E+03
  1.12012E+04  1.28816E+04 -1.00109E+03  1.86523E+04 -1.30558E+04  1.04155E+04 -1.87232E+04 -4.35485E+03
 -1.38934E+04 -1.66426E+04 -1.68224E+03 -2.28014E+04  1.03615E+04 -1.85194E+04  1.86822E+04 -9.20529E+03
  1.74036E+04  3.08833E+02  1.24580E+04  3.94176E+03  6.48441E+03  7.93534E+02  9.18002E+03 -1.47954E+03
  1.70883E+04  2.98954E+03  1.86743E+04  1.46229E+04  1.19021E+04  2.98196E+04 -2.76679E+03  3.34833E+04
 -1.91674E+04  2.65496E+04 -3.09686E+04  1.32672E+04 -3.20415E+04 -2.31539E+03 -2.66612E+04 -1.87280E+04
 -1.14105E+04 -2.64168E+04  9.41134E+03 -2.40066E+04  2.05046E+04 -1.25392E+04  1.89323E+04  5.28633E+03
  7.28941E+03  1.40296E+04 -8.39701E+03  1.25285E+04 -1.57924E+04  2.96285E+03 -1.18997E+04 -9.77202E+03
 -2.72241E+02 -1.50283E+04  7.73716E+03 -1.13248E+04  9.82937E+03 -1.53801E+03  2.17767E+03  6.44332E+03
 -6.95228E+03  2.59302E+03 -5.34395E+03 -5.43489E+03 -3.27285E+02 -1.31593E+04  9.64622E+03 -1.33090E+04
  1.59515E+04 -7.07098E+03  1.66843E+04  2.85983E+03  1.47831E+04  1.25060E+04  6.65502E+03  1.93550E+04
 -3.21717E+03  2.11203E+04 -1.31239E+04  1.32633E+04 -1.50899E+04  3.37644E+03 -1.07383E+04 -3.34282E+03
 -5.44582E+03 -4.58028E+03 -8.68318E+02  1.16344E+03 -2.48585E+03  2.46528E+03 -4.88534E+03  4.07240E+03
 -9.90164E+03 -5.70455E+02 -1.07220E+04 -8.45552E+03 -4.22180E+03 -1.41481E+04  4.43074E+03 -1.08530E+04
  8.96121E+03 -4.79543E+03  6.25674E+03  2.37147E+03  5.38693E+02  4.01100E+03 -5.14196E+03 -4.74037E+02
 -4.46165E+03 -6.74725E+03 -7.74157E+02 -9.65471E+03  5.66424E+03 -1.07148E+04  1.29433E+04 -5.57322E+03
  1.54208E+04  1.09121E+03  1.12859E+04  8.74968E+03  2.32876E+03  1.18295E+04 -6.59342E+03  1.06022E+04
 -8.81699E+03  3.31098E+03 -4.54927E+03 -1.79658E+03  1.44876E+03 -2.73169E+03  5.87706E+03 -1.14392E+03
  5.11625E+03  4.64022E+03  9.89093E+02  8.00856E+03 -5.75724E+03  8.01150E+03 -1.01735E+04  1.86633E+03
 -6.66798E+03 -4.91838E+03  1.77702E+02 -8.37001E+03  5.15887E+03 -4.25067E+03  4.95417E+03  1.74064E+03
  9.12729E+02  5.23243E+03 -5.25650E+03  6.62353E+03 -7.21913E+03  3.12060E+03 -6.94292E+03 -2.40778E+03
 -4.30620E+03 -8.52929E+03  1.86758E+03 -1.00388E+04  8.76337E+03 -6.41497E+03  9.13200E+03  1.29945E+03
  6.19397E+03  7.67584E+03 -3.46704E+02  1.00142E+04 -6.69001E+03  5.76036E+03 -7.19536E+03 -5.72833E+02
 -6.97864E+03 -6.87200E+03 -1.75793E+03 -6.74023E+03  3.44231E+03 -6.16797E+03  4.32445E+03 -3.13364E+03
  3.65734E+03  7.11803E+02 -1.75427E+02  1.20995E+03  2.28998E+02 -1.33973E+03  7.48692E+02 -3.37309E+03
  5.30440E+03 -1.79776E+03  8.39207E+03  7.48726E+02  8.14158E+03  5.16658E+03  6.71285E+03  1.07652E+04
 -2.25757E+03  1.22144E+04 -1.07721E+04  9.19637E+03 -1.38111E+04  1.65704E+03 -1.11386E+04 -4.05857E+03
 -5.86089E+03 -9.22859E+03 -4.28432E+02 -7.50558E+03  3.02211E+03 -3.78190E+03  2.43466E+03 -3.14527E+03
  2.03062E+03 -1.99864E+03  2.47061E+03 -2.77490E+03  3.67231E+03 -2.10424E+03  4.40920E+03 -8.65126E+01
  5.82788E+03  1.53363E+03  2.49711E+03  5.03267E+03 -1.81495E+03  4.89963E+03 -6.17650E+03  4.25034E+03
 -7.14931E+03 -1.05552E+03 -3.66288E+03 -4.70917E+03  1.07645E+02 -7.49474E+03  4.78507E+03 -7.50916E+03
  7.77630E+03 -4.83068E+03  9.89286E+03  6.35223E+02  6.89459E+03  6.32027E+03  1.29315E+03  8.71576E+03
 -2.86183E+03  7.75552E+03 -5.01347E+03  2.67010E+03 -3.15248E+03 -1.46751E+03 -1.19207E+03 -9.36607E+02
 -6.87850E+02  2.60987E+02 -1.34964E+03  2.25837E+03 -3.37585E+03  1.54526E+03 -5.65106E+03 -5.64039E+02
 -2.86066E+03 -5.52344E+03  8.86509E+02 -6.43717E+03  4.22342E+03 -6.57544E+03  6.24454E+03 -1.57374E+03
  6.60995E+03  3.52008E+03  3.06710E+03  5.33202E+03 -1.24489E+03  6.69659E+03 -4.38687E+03  4.29319E+03
 -5.72455E+03  4.89085E+02 -5.04776E+03 -3.74352E+03 -6.82748E+02 -4.97626E+03  2.53946E+03 -3.61053E+03
  3.88653E+03 -1.50913E+03  2.80054E+03  9.94086E+02  8.90292E+02  2.28374E+03  1.12525E+03  8.38101E+02
  1.89534E+03  7.43971E+02  1.53816E+03  1.11001E+03  1.86302E+03  2.61192E+03  1.70052E+03  2.78327E+03
 -1.68691E+03  4.60079E+03 -4.04105E+03  5.60086E+03 -5.12380E+03  1.49524E+03 -6.48937E+03 -1.51994E+03
 -2.66287E+03 -6.11046E+03  9.21968E+02 -6.83410E+03  3.23047E+03 -4.19433E+03  4.73314E+03 -1.25478E+03
  3.62066E+03  2.28967E+03  9.08811E+02  3.48752E+03 -1.30442E+03  2.20472E+03 -1.91061E+03 -5.71381E+02
 -7.93427E+02 -2.26284E+03  1.94085E+03 -2.62835E+03  2.57322E+03 -1.73442E+03  2.20280E+03  7.22724E+02
  1.07922E+03  6.72552E+02  1.26427E+03  3.33818E+02 -4.55769E+02  1.08042E+03  1.75558E+03 -3.61563E+02
  6.21654E+02 -2.83677E+02  2.20414E+03  1.33778E+03  9.15059E+02  3.36070E+03 -2.00932E+02  4.33585E+03
 -2.74701E+03  1.94057E+03 -3.35659E+03  3.37022E+02 -3.34931E+03 -1.35317E+03 -6.68496E+02 -1.86393E+03
  6.91628E+02 -2.26369E+03  1.36532E+03 -1.12404E+03  1.21077E+03  1.51677E+03 -1.09990E+03  1.87908E+03
 -2.35442E+03  9.53834E+02 -2.14987E+03 -1.84355E+03 -1.47512E+03 -3.09041E+03  3.01948E+02 -2.67917E+03
  1.02451E+03 -1.09433E+03  1.84351E+03  3.11901E+02  1.98978E+03  2.65833E+02  5.83689E+02  1.76869E+03
 -7.30193E+02  3.28075E+02 -1.13758E+03 -5.88974E+02  4.35507E+02 -1.65909E+03  2.67686E+03 -1.54588E+03
  2.39770E+03  8.55245E+01  3.99629E+03  1.40401E+03  1.24479E+03  2.87168E+03 -8.06906E+02  3.10038E+03
 -2.38575E+03  7.65494E+02 -2.37506E+03 -4.52708E+02 -1.49462E+03 -2.33022E+03  8.22203E+02 -1.58820E+03
  2.10183E+03 -1.16449E+03  1.49634E+03  8.16519E+02  6.04180E+02  1.67079E+03  7.85400E+01  1.42914E+03
 -6.14271E+02  1.48313E+03 -9.61945E+02 -9.04566E+00 -8.51938E+01  3.56785E+02 -8.83043E+02  6.96032E+02
 -7.82208E+02  1.03815E+03 -2.44797E+03  6.67064E+02 -3.02685E+03  2.94609E+01 -3.55500E+03 -1.85792E+03
 -1.75871E+03 -3.65454E+03  8.99562E+02 -4.45926E+03  2.43526E+03 -3.62100E+03  4.36974E+03 -1.83005E+03
  3.58967E+03  3.69496E+02  2.19831E+03  2.52149E+03 -5.24158E+02  2.58536E+03 -9.86049E+02  2.23778E+03
 -1.56584E+03  8.10643E+02 -1.06818E+03 -5.07024E+02 -5.37224E+02 -2.68131E+01 -4.74383E+02 -7.99824E+00
 -1.03788E+03 -3.18553E+00 -7.40967E+02 -5.72406E+01  1.97920E+02 -8.04455E+02 -3.42376E+02 -1.54338E+03
  1.70922E+03 -1.05695E+03  1.27804E+03  5.37248E+01  1.91741E+03  1.72001E+03 -7.00064E+01  2.32792E+03
 -1.25108E+03  3.49601E+03 -2.70693E+03  1.90111E+03 -3.11773E+03 -4.32361E+02 -2.12064E+03 -1.88965E+03
 -1.09273E+03 -2.53728E+03  4.43473E+02 -2.25991E+03  1.60211E+03 -1.27207E+03  1.42362E+03  3.36286E+02
  1.16126E+03  5.16455E+02  2.13283E+02  4.62001E+02 -5.38062E+02  2.95472E+02 -1.39941E+02 -6.91274E+02
  9.98183E+02 -7.71057E+01  7.61649E+02  4.46521E+02  4.91578E+02  1.13111E+03  3.67982E+02  7.41643E+02
 -9.12548E+02  9.71159E+02 -1.42707E+03  1.64904E+02 -1.26217E+03 -8.99419E+02 -1.42360E+02 -2.24709E+03
  1.14208E+03 -1.33698E+03  1.45091E+03 -1.26114E+02  1.62186E+03 -1.92151E+02  1.03313E+03  1.55638E+03
  6.03794E+02  1.13329E+03 -4.70558E+02  1.28727E+03 -8.27762E+02  1.29039E+03 -9.52846E+02  1.21412E+02
 -2.15167E+02 -1.66472E+02 -6.03468E+02  8.37937E+01 -1.14375E+03 -5.60463E+01 -1.12040E+03 -2.92420E+02
 -1.52489E+03 -2.78377E+02 -5.60746E+02 -1.29775E+03  1.29127E+03 -1.75543E+03  1.12241E+03 -5.68781E+02
  1.41830E+03  1.00041E+02  4.01986E+02  6.71791E+02  2.93710E+02  1.52751E+03 -9.27759E+02  1.15662E+03
