 $NMID ID='MM_0lb_SNR800_10hz_g45_79.RAW', FMTDAT='(8E13.5)'
 TRAMP=1., VOLUME=1. $END
  3.09895E+05  3.25140E+02  3.37751E+05  2.50559E+05  8.49060E+04  3.38489E+05 -1.32786E+05  2.51542E+05
 -1.90445E+05  8.37349E+04 -1.12317E+05 -3.24187E+04  1.40227E+02 -5.05567E+04  5.35127E+04 -3.38391E+02
  3.57368E+04  5.23558E+04 -1.65242E+04  7.55237E+04 -6.09330E+04  6.43540E+04 -8.50553E+04  3.26610E+04
 -8.21139E+04 -1.17603E+04 -5.79299E+04 -5.20153E+04 -1.53457E+04 -7.03112E+04  2.78988E+04 -4.64223E+04
  4.08087E+04  3.53212E+03  1.63686E+04  4.84298E+04 -3.43789E+04  4.82797E+04 -6.73959E+04  2.10777E+02
 -5.47555E+04 -5.74084E+04 -7.61131E+03 -7.84313E+04  3.47209E+04 -5.68231E+04  4.95483E+04 -1.76907E+04
  4.43326E+04  1.13514E+04  3.25977E+04  2.59372E+04  1.57839E+04  2.96989E+04 -5.63864E+03  2.76537E+04
 -2.21623E+04  1.18734E+04 -1.84854E+04 -5.48689E+03  6.56364E+03 -7.52481E+03  2.32081E+04  1.32410E+04
  6.92157E+03  3.66530E+04 -3.33474E+04  3.63124E+04 -6.48551E+04  1.91924E+03 -5.83668E+04 -4.42241E+04
 -1.27334E+04 -6.51024E+04  4.09986E+04 -4.64249E+04  6.05231E+04 -2.58051E+03  3.57559E+04  3.41319E+04
 -5.72411E+03  3.82116E+04 -3.09865E+04  1.75371E+04 -3.25002E+04 -3.96805E+03 -1.86650E+04 -1.13721E+04
 -9.14610E+03 -1.45631E+04 -2.79238E+02 -1.91457E+04  8.26580E+03 -2.33763E+04  1.60187E+04 -1.27458E+04
  1.08672E+04  5.51042E+03 -9.63900E+03  1.26610E+04 -2.26144E+04 -6.05042E+03 -8.53789E+03 -3.62540E+04
  2.41604E+04 -4.60655E+04  5.10735E+04 -2.04457E+04  4.71395E+04  2.05754E+04  1.67795E+04  4.61481E+04
 -1.64775E+04  3.53989E+04 -2.67832E+04  2.37653E+03 -1.12751E+04 -2.88274E+04  2.12875E+04 -3.58054E+04
  4.36690E+04 -1.04212E+04  3.89092E+04  2.44792E+04  2.03181E+04  4.95515E+04 -8.29527E+03  5.40440E+04
 -3.42189E+04  3.72059E+04 -4.58605E+04  1.08464E+04 -4.60460E+04 -1.81207E+04 -2.49999E+04 -4.08900E+04
  7.84999E+03 -4.08439E+04  3.33746E+04 -1.62501E+04  3.09296E+04  1.10990E+04  4.88041E+03  1.99014E+04
 -1.35780E+04  9.15911E+03 -1.10609E+04 -7.14567E+03  5.57265E+03 -1.11527E+04  1.84745E+04  5.31380E+03
  1.44721E+04  2.24227E+04 -5.22886E+03  2.65924E+04 -2.32386E+04  1.38333E+04 -3.03382E+04 -3.43945E+03
 -2.33876E+04 -1.80687E+04 -1.08799E+04 -2.33005E+04  4.44810E+03 -2.38326E+04  1.84544E+04 -2.12914E+04
  3.02222E+04 -1.36624E+04  3.63349E+04  4.21185E+03  2.61997E+04  2.29360E+04  4.42969E+03  3.95736E+04
 -1.92519E+04  3.26227E+04 -2.94234E+04  1.16342E+04 -2.21029E+04 -1.06672E+04 -4.63375E+03 -1.28608E+04
  1.00157E+03 -1.60276E+03 -6.51202E+03  7.95267E+03 -1.87582E+04  4.97920E+03 -1.91974E+04 -9.08349E+03
 -1.12436E+04 -2.21911E+04  5.98870E+03 -2.64667E+04  1.78948E+04 -1.82949E+04  2.09415E+04 -2.18239E+03
  1.35780E+04  1.52422E+04 -9.63417E+02  2.18883E+04 -1.55078E+04  1.25722E+04 -2.22903E+04 -4.53465E+03
 -1.62338E+04 -1.98196E+04 -1.94845E+03 -2.66195E+04  1.19528E+04 -2.21990E+04  2.18822E+04 -1.13281E+04
  2.06713E+04 -1.68525E+01  1.48978E+04  4.83306E+03  8.07986E+03  1.05188E+03  1.13897E+04 -1.90979E+03
  2.03798E+04  3.29375E+03  2.35828E+04  1.74455E+04  1.61555E+04  3.56943E+04 -2.88252E+03  4.12745E+04
 -2.33235E+04  3.41247E+04 -3.88754E+04  1.74563E+04 -4.11933E+04 -2.82140E+03 -3.34543E+04 -2.35592E+04
 -1.37491E+04 -3.44261E+04  1.18789E+04 -3.02645E+04  2.58158E+04 -1.43317E+04  2.27944E+04  6.95447E+03
  7.85683E+03  1.73238E+04 -1.10821E+04  1.49025E+04 -1.90090E+04  2.44448E+03 -1.43089E+04 -1.19792E+04
 -2.10147E+02 -1.82764E+04  9.62580E+03 -1.33612E+04  1.24206E+04 -1.42190E+03  2.78427E+03  8.10416E+03
 -7.86178E+03  4.04383E+03 -8.26945E+03 -6.43667E+03 -1.33767E+03 -1.71802E+04  1.12328E+04 -1.83195E+04
  2.10767E+04 -1.01087E+04  2.36959E+04  3.51553E+03  2.07722E+04  1.71826E+04  9.65557E+03  2.63438E+04
 -4.75307E+03  2.82662E+04 -1.84686E+04  1.75174E+04 -2.06424E+04  3.66803E+03 -1.38615E+04 -5.30362E+03
 -6.03986E+03 -6.88702E+03 -8.39750E+02  3.89265E+02 -2.75352E+03  3.28545E+03 -6.96758E+03  5.64825E+03
 -1.27035E+04 -9.51840E+02 -1.39687E+04 -1.05842E+04 -5.58334E+03 -1.77284E+04  6.07467E+03 -1.43495E+04
  1.19031E+04 -5.77050E+03  8.62757E+03  3.27642E+03 -1.26723E+01  5.73201E+03 -7.60996E+03 -2.98572E+02
 -6.73277E+03 -9.12318E+03 -1.03227E+03 -1.42147E+04  8.28785E+03 -1.47898E+04  1.79293E+04 -8.41922E+03
  2.12593E+04  1.77251E+03  1.54352E+04  1.28919E+04  2.80219E+03  1.70452E+04 -8.96729E+03  1.39568E+04
 -1.15343E+04  3.80047E+03 -6.00761E+03 -2.69493E+03  2.02095E+03 -3.91042E+03  8.04100E+03 -7.79822E+02
  7.17265E+03  5.99833E+03  7.57859E+02  1.16595E+04 -8.28198E+03  1.10138E+04 -1.43087E+04  2.68543E+03
 -9.23661E+03 -6.87235E+03  1.64631E+02 -1.22013E+04  7.74764E+03 -6.06725E+03  8.47311E+03  2.90403E+03
  1.71463E+03  8.51190E+03 -7.22110E+03  1.02479E+04 -1.18774E+04  4.63366E+03 -1.24411E+04 -4.55398E+03
 -7.28539E+03 -1.41548E+04  3.23417E+03 -1.59476E+04  1.39383E+04 -9.57661E+03  1.50692E+04  2.39287E+03
  8.46663E+03  1.21047E+04 -1.49739E+03  1.40907E+04 -1.02973E+04  8.05583E+03 -1.17202E+04 -1.21240E+03
 -9.78292E+03 -9.63616E+03 -1.53454E+03 -1.09769E+04  5.50189E+03 -8.98459E+03  6.99760E+03 -3.60350E+03
  4.60044E+03  1.80124E+03 -6.35253E+02  1.85688E+03 -6.99558E+02 -2.98376E+03  2.25384E+03 -6.49558E+03
  1.03416E+04 -3.72486E+03  1.39200E+04  1.64062E+03  1.38486E+04  9.52616E+03  9.05729E+03  1.81694E+04
 -4.52128E+03  2.09438E+04 -1.76419E+04  1.56865E+04 -2.32653E+04  3.01409E+03 -1.83007E+04 -8.01544E+03
 -9.40483E+03 -1.54236E+04 -2.93146E+02 -1.27369E+04  4.57535E+03 -6.98384E+03  4.63767E+03 -4.87239E+03
  3.01106E+03 -2.98743E+03  3.57310E+03 -3.54507E+03  5.54006E+03 -2.98241E+03  7.24184E+03 -9.10102E+02
  9.53412E+03  2.15494E+03  4.95860E+03  8.38690E+03 -2.29231E+03  9.79451E+03 -1.02172E+04  7.58872E+03
 -1.27651E+04 -1.01751E+03 -8.13237E+03 -9.06442E+03 -1.27687E+03 -1.37657E+04  7.25030E+03 -1.35930E+04
  1.43251E+04 -7.69967E+03  1.74350E+04  2.24676E+03  1.20590E+04  1.16400E+04  1.75369E+03  1.55276E+04
 -6.97804E+03  1.27222E+04 -9.11164E+03  4.38123E+03 -5.85225E+03 -1.46870E+03 -2.29258E+03 -1.85269E+03
 -1.41869E+03 -8.16002E+01 -2.09342E+03  2.58411E+03 -6.02570E+03  2.05049E+03 -9.13574E+03 -1.24195E+03
 -6.09372E+03 -8.95160E+03  1.93758E+02 -1.26017E+04  7.63968E+03 -1.19791E+04  1.22388E+04 -3.74329E+03
  1.24086E+04  6.21530E+03  6.18997E+03  1.09091E+04 -2.65776E+03  1.27333E+04 -9.27168E+03  8.41165E+03
 -1.19653E+04  5.36358E+02 -9.06263E+03 -7.64366E+03 -1.06424E+03 -1.07479E+04  5.66604E+03 -7.61027E+03
  8.11648E+03 -2.83919E+03  5.73121E+03  2.40746E+03  2.03826E+03  4.03210E+03  1.37864E+03  1.67909E+03
  2.52238E+03  7.72832E+02  2.95447E+03  1.72168E+03  3.98313E+03  4.11556E+03  3.51535E+03  6.50605E+03
 -2.76750E+03  1.00497E+04 -8.62079E+03  1.01729E+04 -1.27856E+04  2.52712E+03 -1.33018E+04 -5.34133E+03
 -6.30782E+03 -1.27368E+04  1.84358E+03 -1.37776E+04  8.12681E+03 -9.37121E+03  1.03105E+04 -2.42204E+03
  7.99474E+03  4.58190E+03  1.75609E+03  7.44591E+03 -3.47612E+03  4.34615E+03 -5.11869E+03 -6.88540E+02
 -2.58866E+03 -5.63180E+03  3.07501E+03 -5.58804E+03  5.28012E+03 -3.08480E+03  5.46296E+03  1.03939E+03
  3.03016E+03  2.58660E+03  2.02794E+03  1.91268E+03 -7.45352E+02  1.79059E+03  1.61743E+03 -5.56787E+02
  1.99752E+03 -8.64476E+02  5.51394E+03  1.98788E+03  2.85183E+03  7.13864E+03 -9.27103E+02  8.99424E+03
 -5.59093E+03  5.71886E+03 -8.13371E+03  1.44598E+03 -6.70848E+03 -2.70561E+03 -2.63116E+03 -5.05505E+03
  5.97805E+02 -4.83889E+03  3.26634E+03 -2.36216E+03  2.63226E+03  2.63705E+03 -1.20737E+03  4.26530E+03
 -5.09722E+03  2.43787E+03 -6.53543E+03 -3.29659E+03 -3.50776E+03 -6.85820E+03  9.72229E+02 -6.82276E+03
  3.96142E+03 -3.77014E+03  4.79338E+03 -6.69767E+02  4.55798E+03  1.62083E+03  7.73830E+02  3.95439E+03
 -2.75341E+03  1.01668E+03 -3.07059E+03 -2.36408E+03  1.40742E+03 -5.42357E+03  6.75292E+03 -4.25759E+03
  7.66202E+03  9.03984E+02  7.91101E+03  5.46150E+03  2.68507E+03  8.28483E+03 -2.75887E+03  7.65839E+03
 -6.59416E+03  3.23340E+03 -6.70733E+03 -1.15498E+03 -3.60191E+03 -5.27844E+03  1.42626E+03 -5.03616E+03
  4.90387E+03 -2.78207E+03  4.10985E+03  2.24989E+03  2.01741E+03  4.47011E+03 -5.82357E+02  4.18636E+03
 -1.92915E+03  2.87830E+03 -1.59304E+03  9.82569E+02 -1.18900E+03  8.61078E+02 -1.61493E+03  1.47319E+03
 -2.24499E+03  3.18109E+03 -5.37128E+03  3.11296E+03 -7.89523E+03  5.63033E+02 -9.50897E+03 -5.01615E+03
 -4.96287E+03 -1.10508E+04  2.42976E+03 -1.28549E+04  7.56994E+03 -9.95383E+03  1.20208E+04 -3.69978E+03
  1.12409E+04  2.17816E+03  6.79842E+03  7.41189E+03  5.09532E+02  8.80023E+03 -3.48033E+03  6.33272E+03
 -4.85637E+03  2.40118E+03 -2.90924E+03 -1.00807E+03 -9.87692E+02 -8.40534E+02 -7.96254E+02 -4.20344E+01
 -1.79385E+03  3.84295E+02 -2.15630E+03 -4.70109E+01 -5.03720E+02 -2.12634E+03  1.98537E+02 -2.81298E+03
  3.90696E+03 -2.79662E+03  5.39192E+03  8.61407E+01  6.37504E+03  4.72906E+03  1.45964E+03  8.48104E+03
 -4.44386E+03  9.75269E+03 -8.98281E+03  5.58703E+03 -1.00551E+04 -5.20020E+02 -7.86430E+03 -6.51802E+03
 -3.32506E+03 -8.57658E+03  2.13494E+03 -8.03169E+03  5.47922E+03 -4.39641E+03  5.39624E+03  2.02423E+02
  3.11860E+03  2.54079E+03 -8.09265E+00  2.29876E+03 -1.71387E+03 -1.80000E+02  1.21964E+02 -1.71989E+03
  2.81632E+03 -1.65671E+03  3.38130E+03  1.25592E+03  2.22236E+03  3.06678E+03  1.54519E+02  4.31344E+03
 -3.55098E+03  4.19741E+03 -5.72253E+03  4.74970E+02 -5.47535E+03 -3.84716E+03 -5.43970E+02 -7.13091E+03
  3.95159E+03 -5.71677E+03  6.46844E+03 -1.95298E+03  6.07866E+03  1.45841E+03  3.54190E+03  5.22737E+03
  6.08146E+02  5.40944E+03 -2.29758E+03  4.72417E+03 -3.39528E+03  2.63313E+03 -2.83671E+03  5.09222E+02
 -1.42778E+03 -6.31470E+02 -1.84269E+03  6.15361E+02 -2.85380E+03  1.11706E+03 -4.28979E+03 -1.18708E+03
 -4.13322E+03 -2.60917E+03 -1.60887E+03 -5.27789E+03  2.52930E+03 -6.36414E+03  5.13324E+03 -2.28436E+03
  5.24250E+03  7.14770E+02  2.55984E+03  3.95685E+03 -3.29489E+02  5.48516E+03 -4.46649E+03  3.99487E+03
