 $NMID ID='MM_0lb_SNR800_19hz_g50_52.RAW', FMTDAT='(8E13.5)'
 TRAMP=1., VOLUME=1. $END
  3.09686E+05  1.86401E+02  3.37392E+05  2.50617E+05  8.43101E+04  3.37258E+05 -1.32437E+05  2.50165E+05
 -1.89723E+05  8.26625E+04 -1.11012E+05 -3.27973E+04  1.38628E+03 -5.02395E+04  5.36426E+04  4.23077E+02
  3.49267E+04  5.29160E+04 -1.71599E+04  7.51152E+04 -6.05916E+04  6.28242E+04 -8.31182E+04  3.15810E+04
 -7.99378E+04 -1.13716E+04 -5.66013E+04 -5.05293E+04 -1.49642E+04 -6.80628E+04  2.67309E+04 -4.48488E+04
  3.93062E+04  3.60133E+03  1.56274E+04  4.73401E+04 -3.40336E+04  4.61728E+04 -6.56375E+04 -7.47812E+02
 -5.20433E+04 -5.57920E+04 -6.30937E+03 -7.52411E+04  3.30430E+04 -5.36495E+04  4.63699E+04 -1.62652E+04
  4.16827E+04  1.10263E+04  3.07957E+04  2.45188E+04  1.58618E+04  2.83434E+04 -4.73396E+03  2.68472E+04
 -2.17008E+04  1.26017E+04 -1.91220E+04 -4.16960E+03  4.44769E+03 -7.70719E+03  2.14054E+04  1.08663E+04
  7.23076E+03  3.34757E+04 -3.05030E+04  3.40689E+04 -6.12128E+04  2.33980E+03 -5.54956E+04 -4.11906E+04
 -1.21219E+04 -6.12400E+04  3.83481E+04 -4.36612E+04  5.56474E+04 -2.13541E+03  3.20480E+04  3.05012E+04
 -6.54272E+03  3.35188E+04 -2.83860E+04  1.35288E+04 -2.76962E+04 -5.23896E+03 -1.46782E+04 -1.00918E+04
 -7.38258E+03 -1.12776E+04 -8.90888E+02 -1.65697E+04  6.82693E+03 -2.24262E+04  1.51211E+04 -1.39366E+04
  1.18877E+04  4.42244E+03 -6.37111E+03  1.29404E+04 -1.93154E+04 -2.64909E+03 -7.91150E+03 -3.03254E+04
  2.10257E+04 -4.05723E+04  4.49345E+04 -1.86672E+04  4.20443E+04  1.82604E+04  1.42133E+04  4.18278E+04
 -1.51313E+04  3.08999E+04 -2.35770E+04  1.16390E+03 -8.29709E+03 -2.62883E+04  2.04225E+04 -3.13187E+04
  3.80797E+04 -7.32764E+03  3.16487E+04  2.26437E+04  1.50859E+04  4.27934E+04 -7.86984E+03  4.52117E+04
 -2.85741E+04  3.00038E+04 -3.72085E+04  8.57790E+03 -3.83614E+04 -1.52809E+04 -2.14999E+04 -3.46184E+04
  6.91761E+03 -3.42617E+04  2.92252E+04 -1.27934E+04  2.66949E+04  1.07124E+04  2.82515E+03  1.78213E+04
 -1.32235E+04  7.36342E+03 -9.72964E+03 -7.79531E+03  5.85534E+03 -9.80641E+03  1.71992E+04  6.20808E+03
  1.23895E+04  2.15655E+04 -6.63382E+03  2.34364E+04 -2.15164E+04  9.13090E+03 -2.51604E+04 -6.24413E+03
 -1.69729E+04 -1.61876E+04 -5.69216E+03 -1.66334E+04  3.70292E+03 -1.44206E+04  1.24719E+04 -1.43158E+04
  2.12280E+04 -1.15606E+04  2.79801E+04  1.01533E+03  2.12758E+04  1.64802E+04  4.02640E+03  3.25750E+04
 -1.60317E+04  2.75458E+04 -2.59686E+04  9.38786E+03 -1.99590E+04 -1.03194E+04 -3.99246E+03 -1.41294E+04
  2.88529E+03 -4.36772E+03 -2.64291E+03  5.57586E+03 -1.27303E+04  5.26659E+03 -1.32372E+04 -4.95840E+03
 -8.72840E+03 -1.56827E+04  4.25173E+03 -1.92720E+04  1.23118E+04 -1.40706E+04  1.45901E+04 -1.56461E+03
  9.01266E+03  1.10469E+04 -7.38683E+02  1.55863E+04 -1.01997E+04  8.80920E+03 -1.54425E+04 -3.29196E+03
 -1.13966E+04 -1.39436E+04 -1.20011E+03 -1.87623E+04  8.54305E+03 -1.54231E+04  1.62788E+04 -7.06646E+03
  1.44823E+04  5.53293E+02  1.03736E+04  3.91276E+03  5.30341E+03  7.13525E+02  7.49490E+03 -1.37249E+03
  1.37765E+04  2.65033E+03  1.43994E+04  1.25548E+04  9.02897E+03  2.48091E+04 -3.06303E+03  2.61453E+04
 -1.58326E+04  2.02698E+04 -2.42832E+04  9.78339E+03 -2.45304E+04 -1.75039E+03 -2.13578E+04 -1.41848E+04
 -9.92321E+03 -2.01999E+04  6.70325E+03 -1.86498E+04  1.67062E+04 -1.06070E+04  1.55230E+04  3.54291E+03
  6.63507E+03  1.12093E+04 -6.90245E+03  1.02577E+04 -1.31895E+04  2.85846E+03 -1.02390E+04 -8.00226E+03
 -1.38562E+02 -1.24985E+04  6.04926E+03 -9.36810E+03  7.62263E+03 -1.49822E+03  1.10897E+03  5.05498E+03
 -5.35230E+03  1.39650E+03 -3.74146E+03 -4.65359E+03  7.35190E+02 -1.01555E+04  7.97723E+03 -1.00301E+04
  1.21042E+04 -4.60080E+03  1.17881E+04  2.77158E+03  1.01222E+04  9.53462E+03  4.97876E+03  1.38379E+04
 -1.76798E+03  1.56690E+04 -9.51276E+03  1.00323E+04 -1.09774E+04  2.85781E+03 -8.19125E+03 -1.75484E+03
 -4.41836E+03 -3.21263E+03 -7.62578E+02  1.73854E+03 -1.90851E+03  2.03557E+03 -3.54845E+03  3.60126E+03
 -7.89709E+03 -6.02039E+02 -8.45628E+03 -7.19059E+03 -3.62806E+03 -1.14261E+04  3.41153E+03 -8.18545E+03
  7.14437E+03 -3.60734E+03  5.04900E+03  2.26702E+03  9.42014E+02  3.07493E+03 -3.42419E+03 -2.14931E+02
 -3.19490E+03 -5.09521E+03 -8.02430E+02 -6.96739E+03  3.74048E+03 -7.65744E+03  9.57599E+03 -4.03057E+03
  1.17852E+04  7.29905E+02  8.57253E+03  6.04932E+03  1.69701E+03  8.51703E+03 -5.03412E+03  8.04636E+03
 -6.88820E+03  2.88168E+03 -3.58092E+03 -1.06749E+03  1.26824E+03 -1.68230E+03  4.50388E+03 -1.02004E+03
  4.14796E+03  3.09767E+03  1.11669E+03  6.30642E+03 -4.17590E+03  6.24689E+03 -7.64266E+03  1.86543E+03
 -4.71630E+03 -3.39663E+03  1.00687E+02 -6.67669E+03  3.56627E+03 -3.22573E+03  3.34423E+03  1.01649E+03
  6.65187E+02  3.20438E+03 -3.89299E+03  4.70607E+03 -4.75939E+03  2.36089E+03 -4.41207E+03 -1.33804E+03
 -2.62069E+03 -5.85750E+03  1.17803E+03 -6.98055E+03  6.06861E+03 -4.47547E+03  6.08523E+03  8.50392E+02
  4.49082E+03  5.10871E+03  1.42624E+01  7.14475E+03 -4.86597E+03  4.07343E+03 -4.93396E+03 -6.86375E+02
 -5.52881E+03 -4.88231E+03 -1.33820E+03 -4.80020E+03  2.66500E+03 -4.69199E+03  2.72096E+03 -2.87958E+03
  2.54152E+03  1.50199E+02  2.27023E+01  1.20527E+03  8.09069E+02  1.16430E+02  7.73417E+01 -1.57275E+03
  3.43611E+03 -6.79616E+02  4.92664E+03  9.63477E+02  5.18977E+03  2.66006E+03  5.30246E+03  6.86671E+03
 -9.83237E+02  8.11767E+03 -7.26810E+03  6.22376E+03 -9.71125E+03  9.75115E+02 -7.26766E+03 -2.44783E+03
 -3.69942E+03 -6.20167E+03 -7.65203E+02 -4.78014E+03  1.99248E+03 -1.93694E+03  1.59075E+03 -2.09688E+03
  1.26030E+03 -1.50922E+03  2.16015E+03 -2.37822E+03  3.30244E+03 -1.48055E+03  3.34781E+03  4.24860E+02
  4.17607E+03  1.09713E+03  1.16875E+03  3.56134E+03 -1.75519E+03  2.75291E+03 -4.17805E+03  2.37018E+03
 -4.71826E+03 -1.27023E+03 -1.64655E+03 -3.03552E+03  5.49373E+02 -4.92283E+03  2.90508E+03 -5.23586E+03
  4.56113E+03 -3.12430E+03  6.35490E+03  5.35077E+01  4.50834E+03  4.08349E+03  1.05374E+03  5.81115E+03
 -2.00028E+03  5.34720E+03 -3.00683E+03  1.98873E+03 -1.94404E+03 -9.23992E+02 -2.00705E+02 -5.01351E+02
 -2.68266E+02  4.92468E+02 -5.92107E+02  2.19889E+03 -2.47423E+03  7.69045E+02 -3.82024E+03 -6.27328E+01
 -1.33560E+03 -3.90491E+03  9.27252E+02 -4.25405E+03  2.62016E+03 -4.28024E+03  3.39438E+03 -1.11238E+03
  3.64882E+03  2.41894E+03  1.71925E+03  3.20196E+03 -7.37806E+02  3.97819E+03 -2.24216E+03  2.41549E+03
 -3.30279E+03  5.45975E+02 -3.11523E+03 -2.21917E+03 -1.91162E+02 -2.91926E+03  1.55895E+03 -2.20114E+03
  2.52021E+03 -1.42103E+03  1.64143E+03  1.33759E+02  1.39705E+02  1.48492E+03  8.73474E+02  4.94430E+02
  1.52113E+03  1.99891E+02  1.41416E+03  1.07586E+03  9.93336E+02  2.01726E+03  1.56375E+03  1.48277E+03
 -1.21120E+03  2.59446E+03 -2.44033E+03  3.65065E+03 -2.75677E+03  1.06972E+03 -3.80293E+03 -1.53888E+02
 -1.72791E+03 -3.57547E+03  7.49453E+02 -4.44467E+03  1.73772E+03 -2.22594E+03  2.72912E+03 -6.83061E+02
  2.36140E+03  1.77441E+03  5.50207E+02  1.75138E+03 -3.92408E+02  1.37043E+03 -6.82179E+02 -9.36393E+01
 -4.91207E+02 -1.34476E+03  1.14671E+03 -1.32791E+03  1.33246E+03 -7.90438E+02  1.25603E+03 -1.93192E+01
  6.75722E+02  7.79357E+01  5.08776E+02 -3.72876E+02 -3.12288E+02  5.70780E+02  1.46923E+03 -5.73030E+01
  1.90260E+02 -4.62159E+02  1.74437E+03  6.61846E+02  5.00730E+02  2.24941E+03 -3.39997E+02  2.76003E+03
 -1.61992E+03  7.53376E+02 -2.11954E+03  4.25088E+02 -1.91911E+03 -6.28085E+02  6.14513E+01 -1.09465E+03
  1.59381E+02 -1.17133E+03  9.28349E+02 -7.71603E+02  4.31115E+02  7.28599E+02 -7.93801E+02  9.87490E+02
 -1.37963E+03  5.22728E+02 -1.04565E+03 -1.29598E+03 -6.39679E+02 -2.11325E+03  3.04282E+02 -1.43974E+03
  4.39049E+02 -1.21746E+02  6.58116E+02  1.07185E+02  1.41264E+03  4.93298E+01  4.62281E+02  1.13535E+03
 -2.52451E+02  3.32705E+02 -8.13549E+02 -2.74422E+02  6.59832E+02 -4.45445E+02  1.49946E+03 -7.34741E+02
  9.76827E+02  2.30405E+02  2.78110E+03  3.42535E+02  1.20052E+03  1.65169E+03 -1.19397E+02  1.81453E+03
 -1.36873E+03  1.67014E+02 -1.38068E+03 -3.04310E+02 -7.94914E+02 -1.18811E+03  3.24229E+02 -5.45003E+02
  1.22562E+03 -4.81978E+02  9.50139E+02  7.21076E+02  1.39084E+02  1.31796E+03  4.16487E+02  9.58322E+02
 -1.14293E+02  1.38653E+03 -5.31759E+02  1.36780E+02 -1.01944E+02  1.98879E+02 -9.09317E+02  4.43178E+02
 -5.97063E+02  8.20863E+02 -1.48602E+03  4.59763E+02 -1.38413E+03  1.22066E+02 -2.05129E+03 -7.74152E+02
 -7.01060E+02 -1.82241E+03  5.58692E+02 -2.58596E+03  6.43471E+02 -1.85695E+03  2.28761E+03 -9.13029E+02
  2.15302E+03 -3.49187E+01  9.02879E+02  1.16589E+03 -9.07499E+02  1.42302E+03 -7.78414E+02  1.10018E+03
 -8.40943E+02  5.53153E+02 -5.28711E+02 -1.55719E+02 -2.26206E+02  1.58909E+02 -8.96726E+02  1.51542E+02
 -1.21220E+03 -1.22372E+01 -1.06516E+03  1.67680E+02  4.76383E+02 -6.37340E+02 -5.63914E+01 -9.44731E+02
  1.12467E+03 -3.73243E+02  3.26300E+02  1.11712E+02  1.22123E+03  1.05472E+03 -4.79890E+02  1.01752E+03
 -8.08330E+02  1.96501E+03 -1.35204E+03  1.24794E+03 -1.43647E+03 -3.02373E+02 -1.05626E+03 -1.51959E+03
 -8.24716E+02 -8.88353E+02 -2.03565E+00 -7.63341E+02  5.89770E+02 -2.76844E+02  2.09704E+02  1.03557E+02
  6.54895E+02  1.20587E+02  8.04445E+01  2.93054E+02 -3.81368E+02 -3.67232E+01  8.85682E+01 -1.20359E+02
  4.05045E+02  3.26064E+02  2.68032E+02  3.65018E+02  1.54734E+02  3.58915E+02  5.22240E+02  3.31827E+02
 -3.36701E+02  7.60709E+02 -3.32957E+02  5.75240E+01 -9.29076E+02 -2.98906E+02  1.46475E+02 -9.06758E+02
  2.70569E+02 -6.48311E+02  3.03633E+02  4.23330E+01  6.90665E+02 -7.69211E+02  2.74118E+02  5.55435E+02
  1.54308E+02  3.87915E+02  7.42921E+00  7.58955E+02 -5.27419E+02  2.97101E+02 -4.20761E+02  2.36754E+02
 -1.39367E+02 -8.62057E+00 -6.86229E+02  4.74656E+01 -4.42052E+02  5.68001E+02 -5.81467E+02 -2.81092E+02
 -9.74175E+02  2.91795E+02 -4.57533E+02 -8.72888E+02  6.76963E+02 -1.50840E+03  3.46392E+02 -8.56129E+01
  5.77839E+02 -5.36773E+01 -1.38888E+02  1.27052E+02 -8.02695E+01  7.08230E+02 -3.88535E+01  6.18283E+02
