 $NMID ID='MM_0lb_SNR800_7hz_g45_81.RAW', FMTDAT='(8E13.5)'
 TRAMP=1., VOLUME=1. $END
  3.09931E+05  7.34522E+01  3.38087E+05  2.51093E+05  8.51434E+04  3.38922E+05 -1.32671E+05  2.52414E+05
 -1.90657E+05  8.33214E+04 -1.12785E+05 -3.20400E+04  1.82626E+02 -5.08787E+04  5.38314E+04 -6.14842E+02
  3.58934E+04  5.27046E+04 -1.67215E+04  7.59499E+04 -6.12242E+04  6.49336E+04 -8.55836E+04  3.24995E+04
 -8.27509E+04 -1.15558E+04 -5.82649E+04 -5.24371E+04 -1.50055E+04 -7.13378E+04  2.84352E+04 -4.72209E+04
  4.13691E+04  3.30578E+03  1.71890E+04  4.89506E+04 -3.47766E+04  4.85473E+04 -6.86009E+04  4.56362E+02
 -5.56106E+04 -5.80965E+04 -7.38771E+03 -7.92703E+04  3.48278E+04 -5.75978E+04  5.05097E+04 -1.85739E+04
  4.65521E+04  1.13477E+04  3.30282E+04  2.71094E+04  1.59459E+04  3.09668E+04 -6.43490E+03  2.81257E+04
 -2.22806E+04  1.21933E+04 -1.75719E+04 -5.80508E+03  7.85936E+03 -7.63919E+03  2.40812E+04  1.42528E+04
  6.84388E+03  3.81554E+04 -3.42573E+04  3.73881E+04 -6.67383E+04  2.08324E+03 -5.92185E+04 -4.50253E+04
 -1.28985E+04 -6.60301E+04  4.20772E+04 -4.78211E+04  6.20819E+04 -2.70507E+03  3.69625E+04  3.46946E+04
 -5.64727E+03  4.02641E+04 -3.22685E+04  1.99565E+04 -3.39208E+04 -3.59492E+03 -1.96201E+04 -1.21633E+04
 -9.94891E+03 -1.61638E+04 -5.93488E+02 -2.04376E+04  9.00167E+03 -2.39596E+04  1.63639E+04 -1.22493E+04
  9.76739E+03  6.44109E+03 -1.08416E+04  1.27651E+04 -2.37440E+04 -7.73807E+03 -8.75692E+03 -3.84670E+04
  2.58603E+04 -4.76506E+04  5.30964E+04 -2.10702E+04  4.99058E+04  2.15535E+04  1.78106E+04  4.79258E+04
 -1.64919E+04  3.71298E+04 -2.82973E+04  3.28662E+03 -1.22199E+04 -3.01102E+04  2.14663E+04 -3.77349E+04
  4.55644E+04 -1.16817E+04  4.18242E+04  2.50740E+04  2.24578E+04  5.25557E+04 -8.43019E+03  5.76553E+04
 -3.69555E+04  4.01793E+04 -4.95901E+04  1.15098E+04 -4.92131E+04 -1.91037E+04 -2.68537E+04 -4.32840E+04
  8.04763E+03 -4.35511E+04  3.53116E+04 -1.75058E+04  3.31582E+04  1.16629E+04  5.56991E+03  2.11319E+04
 -1.42491E+04  1.00573E+04 -1.14611E+04 -7.29884E+03  5.57975E+03 -1.15573E+04  1.92241E+04  4.91607E+03
  1.53966E+04  2.29256E+04 -4.79679E+03  2.77424E+04 -2.39121E+04  1.54696E+04 -3.26475E+04 -2.17693E+03
 -2.70894E+04 -1.83415E+04 -1.24256E+04 -2.65762E+04  4.56525E+03 -2.73628E+04  2.15346E+04 -2.46312E+04
  3.42290E+04 -1.43714E+04  3.95342E+04  5.66283E+03  2.85947E+04  2.55779E+04  4.14878E+03  4.27261E+04
 -2.06762E+04  3.48136E+04 -3.13896E+04  1.24671E+04 -2.23850E+04 -1.00033E+04 -4.63028E+03 -1.24849E+04
  1.83415E+02 -7.72138E+02 -8.51510E+03  8.39926E+03 -2.17802E+04  4.65288E+03 -2.16225E+04 -1.00289E+04
 -1.27191E+04 -2.49097E+04  6.16330E+03 -2.94202E+04  1.94608E+04 -2.02631E+04  2.41487E+04 -1.46854E+03
  1.55896E+04  1.74808E+04 -1.24773E+03  2.43502E+04 -1.77301E+04  1.42443E+04 -2.48543E+04 -5.33482E+03
 -1.85486E+04 -2.24111E+04 -2.27161E+03 -2.98301E+04  1.29021E+04 -2.50227E+04  2.43205E+04 -1.25767E+04
  2.32601E+04 -2.44439E+02  1.71128E+04  5.73314E+03  9.65308E+03  1.59400E+03  1.30868E+04 -1.91832E+03
  2.38593E+04  3.06601E+03  2.79178E+04  1.96632E+04  1.90109E+04  4.01312E+04 -2.57068E+03  4.81563E+04
 -2.74784E+04  4.05448E+04 -4.56113E+04  2.12719E+04 -4.81464E+04 -3.01636E+03 -3.92467E+04 -2.90354E+04
 -1.53553E+04 -4.07360E+04  1.42954E+04 -3.53141E+04  3.04832E+04 -1.61804E+04  2.56542E+04  8.40280E+03
  8.29909E+03  1.99363E+04 -1.31821E+04  1.63435E+04 -2.13828E+04  2.52563E+03 -1.63116E+04 -1.39852E+04
 -7.54325E+02 -2.04229E+04  1.12706E+04 -1.53365E+04  1.45054E+04 -1.61716E+03  3.79830E+03  9.16603E+03
 -9.26280E+03  4.93565E+03 -1.05934E+04 -7.65551E+03 -2.69680E+03 -2.00255E+04  1.29118E+04 -2.21553E+04
  2.57068E+04 -1.29211E+04  2.92552E+04  3.39841E+03  2.60042E+04  2.07715E+04  1.16557E+04  3.24638E+04
 -6.15248E+03  3.50819E+04 -2.25476E+04  2.09641E+04 -2.52226E+04  4.25885E+03 -1.68171E+04 -7.03245E+03
 -7.00585E+03 -8.21618E+03 -6.08344E+02 -6.34769E+01 -2.95923E+03  3.74180E+03 -8.28291E+03  5.71414E+03
 -1.55800E+04 -1.35001E+03 -1.58553E+04 -1.28448E+04 -6.88324E+03 -2.09688E+04  6.95535E+03 -1.70354E+04
  1.47367E+04 -6.89685E+03  9.86808E+03  4.91697E+03 -3.53921E+02  7.03094E+03 -8.60417E+03 -1.76046E+02
 -8.79927E+03 -1.10198E+04 -1.30863E+03 -1.76898E+04  1.05418E+04 -1.85882E+04  2.23466E+04 -9.37395E+03
  2.63415E+04  2.48361E+03  1.92277E+04  1.66056E+04  3.57039E+03  2.20175E+04 -1.04549E+04  1.70599E+04
 -1.44658E+04  4.55717E+03 -7.17723E+03 -3.77118E+03  2.31994E+03 -5.04232E+03  9.14794E+03 -4.56507E+02
  8.21507E+03  8.03058E+03  1.44205E+03  1.42128E+04 -1.03887E+04  1.33721E+04 -1.77461E+04  3.45157E+03
 -1.26401E+04 -9.79349E+03  1.19080E+02 -1.49644E+04  1.01727E+04 -7.97617E+03  1.10682E+04  4.25848E+03
  2.93643E+03  1.19876E+04 -9.13159E+03  1.36157E+04 -1.54441E+04  5.72238E+03 -1.68046E+04 -6.16339E+03
 -9.63912E+03 -1.86209E+04  4.58306E+03 -2.09055E+04  1.79457E+04 -1.24671E+04  1.93390E+04  3.09092E+03
  1.13353E+04  1.55019E+04 -1.85623E+03  1.77551E+04 -1.34940E+04  9.99956E+03 -1.48409E+04 -1.23207E+03
 -1.22577E+04 -1.19189E+04 -2.02019E+03 -1.43302E+04  7.62340E+03 -1.07024E+04  9.14519E+03 -3.79648E+03
  5.90974E+03  2.80761E+03 -1.43849E+03  2.19028E+03 -8.00080E+02 -4.14443E+03  3.47797E+03 -9.25948E+03
  1.35607E+04 -5.84160E+03  1.93577E+04  1.79488E+03  1.83281E+04  1.35391E+04  1.17769E+04  2.46658E+04
 -5.92623E+03  2.80253E+04 -2.31305E+04  2.06100E+04 -3.01773E+04  3.88992E+03 -2.44195E+04 -1.13763E+04
 -1.26716E+04 -1.97608E+04 -2.16691E+02 -1.74245E+04  6.71425E+03 -1.00545E+04  5.89538E+03 -6.40994E+03
  4.62153E+03 -3.75570E+03  4.78242E+03 -4.46729E+03  6.45864E+03 -4.14320E+03  9.33000E+03 -1.71422E+03
  1.26040E+04  2.89645E+03  7.08711E+03  1.09389E+04 -2.43881E+03  1.42883E+04 -1.34079E+04  9.91810E+03
 -1.75729E+04 -1.31517E+03 -1.22254E+04 -1.24562E+04 -1.65757E+03 -1.91795E+04  1.01369E+04 -1.87573E+04
  1.98961E+04 -1.02475E+04  2.32354E+04  3.66106E+03  1.65531E+04  1.68080E+04  2.23567E+03  2.14103E+04
 -8.90929E+03  1.70849E+04 -1.25601E+04  6.06745E+03 -8.93242E+03 -1.85125E+03 -4.06146E+03 -3.15558E+03
 -1.89755E+03 -3.62882E+02 -2.66354E+03  3.44434E+03 -7.53359E+03  3.00881E+03 -1.23146E+04 -1.67706E+03
 -9.44901E+03 -1.17062E+04 -8.41915E+02 -1.81137E+04  1.13381E+04 -1.63523E+04  1.84135E+04 -5.30132E+03
  1.85053E+04  8.94741E+03  8.04598E+03  1.60749E+04 -3.77254E+03  1.87358E+04 -1.32681E+04  1.11898E+04
 -1.69995E+04  6.19509E+01 -1.31664E+04 -1.11565E+04 -1.50651E+03 -1.54494E+04  7.99824E+03 -1.10172E+04
  1.11477E+04 -3.39456E+03  8.02670E+03  3.32408E+03  2.96042E+03  4.87694E+03  1.93406E+03  2.76638E+03
  2.65909E+03  1.23120E+03  4.60473E+03  1.99763E+03  5.25317E+03  5.97559E+03  4.77292E+03  9.90670E+03
 -3.85888E+03  1.45783E+04 -1.27735E+04  1.47948E+04 -1.94385E+04  3.98097E+03 -1.95146E+04 -8.64800E+03
 -9.29480E+03 -1.92670E+04  2.54262E+03 -2.05549E+04  1.15198E+04 -1.29448E+04  1.56056E+04 -3.59876E+03
  1.15830E+04  6.61887E+03  2.85450E+03  1.06385E+04 -5.20799E+03  7.18084E+03 -7.89906E+03 -1.17547E+03
 -3.92447E+03 -8.45979E+03  4.67519E+03 -8.25754E+03  7.98692E+03 -3.89784E+03  8.00781E+03  1.79572E+03
  4.45786E+03  4.55957E+03  1.86544E+03  3.56119E+03 -6.73035E+02  2.27916E+03  1.15193E+03 -6.11079E+02
  3.00058E+03 -1.22619E+03  7.68082E+03  2.86383E+03  4.81131E+03  9.97890E+03 -1.65822E+03  1.32160E+04
 -9.44168E+03  9.07188E+03 -1.28166E+04  2.53343E+03 -1.08308E+04 -3.89621E+03 -4.61156E+03 -8.05915E+03
  7.74805E+02 -7.78598E+03  4.79499E+03 -3.60224E+03  4.36879E+03  3.92111E+03 -1.92699E+03  6.34490E+03
 -7.55706E+03  3.48186E+03 -9.40846E+03 -4.36947E+03 -5.24196E+03 -1.01942E+04  1.71621E+03 -1.07861E+04
  6.92697E+03 -7.22666E+03  8.52772E+03 -1.04334E+03  6.40716E+03  3.02216E+03  1.00879E+03  6.10938E+03
 -3.92084E+03  1.83445E+03 -5.00170E+03 -3.93532E+03  1.72232E+03 -8.55626E+03  1.01738E+04 -6.96259E+03
  1.30228E+04  5.43697E+02  1.16991E+04  9.02411E+03  3.83051E+03  1.39411E+04 -4.24455E+03  1.26189E+04
 -1.09789E+04  5.63827E+03 -1.11783E+04 -1.67693E+03 -6.12661E+03 -8.85169E+03  1.85279E+03 -8.71666E+03
  8.55267E+03 -3.90578E+03  7.08983E+03  3.37199E+03  2.34713E+03  7.39737E+03 -1.75585E+03  6.10166E+03
 -3.49573E+03  4.05029E+03 -2.72758E+03  1.88156E+03 -2.15234E+03  1.25574E+03 -1.65907E+03  2.61661E+03
 -3.65373E+03  5.14575E+03 -9.27300E+03  4.69501E+03 -1.37725E+04  3.29596E+02 -1.52837E+04 -8.66966E+03
 -8.07773E+03 -1.74079E+04  3.45441E+03 -2.02932E+04  1.32672E+04 -1.60460E+04  1.93948E+04 -5.96000E+03
  1.79322E+04  3.74612E+03  1.12847E+04  1.22865E+04  9.77436E+02  1.41430E+04 -5.89571E+03  1.09589E+04
 -8.33908E+03  3.50190E+03 -5.37094E+03 -1.26181E+03 -1.23418E+03 -1.51951E+03 -7.04993E+02 -3.62054E+02
 -2.22059E+03  7.36661E+02 -2.69116E+03 -6.22403E+02 -1.19303E+03 -3.67954E+03  4.81951E+02 -5.09112E+03
  6.10658E+03 -4.57838E+03  9.32940E+03 -1.87383E+01  1.02779E+04  7.95998E+03  2.73052E+03  1.37677E+04
 -6.26294E+03  1.61736E+04 -1.48702E+04  9.28813E+03 -1.76953E+04 -1.51214E+03 -1.35140E+04 -1.03139E+04
 -4.95462E+03 -1.51795E+04  4.03189E+03 -1.38032E+04  9.40527E+03 -7.43520E+03  9.87710E+03  6.33837E+02
  5.14662E+03  4.91947E+03 -7.61902E+02  4.73430E+03 -2.49370E+03 -5.36259E+02 -1.55672E+02 -3.27281E+03
  4.61774E+03 -2.04407E+03  5.62689E+03  1.75607E+03  4.33068E+03  6.17048E+03  9.53246E+01  8.07165E+03
 -6.85581E+03  6.80154E+03 -1.01035E+04  8.35192E+02 -8.87201E+03 -7.38532E+03 -1.90245E+03 -1.25126E+04
  7.30122E+03 -1.02547E+04  1.17543E+04 -3.28498E+03  1.13895E+04  3.43937E+03  6.70186E+03  9.03537E+03
  1.05900E+03  1.07236E+04 -3.80658E+03  8.22683E+03 -6.45105E+03  4.24176E+03 -5.20590E+03  6.95325E+02
 -2.55240E+03 -5.30321E+02 -2.88659E+03  8.22250E+02 -5.28337E+03  1.47927E+03 -7.86029E+03 -1.57101E+03
 -7.19298E+03 -5.56808E+03 -2.28467E+03 -9.94725E+03  4.25309E+03 -1.02855E+04  9.59289E+03 -4.84472E+03
  1.01705E+04  9.80669E+02  6.02658E+03  7.14662E+03 -6.64189E+02  9.59177E+03 -8.22828E+03  6.56665E+03
