 $NMID ID='MM_0lb_SNR800_18hz_g40_63.RAW', FMTDAT='(8E13.5)'
 TRAMP=1., VOLUME=1. $END
  3.09869E+05  2.55750E+02  3.37228E+05  2.50427E+05  8.45587E+04  3.37079E+05 -1.32345E+05  2.50046E+05
 -1.89427E+05  8.24011E+04 -1.10919E+05 -3.30114E+04  1.52334E+03 -4.99380E+04  5.37816E+04  3.10783E+02
  3.51338E+04  5.28435E+04 -1.69680E+04  7.50875E+04 -6.02064E+04  6.22328E+04 -8.29478E+04  3.16554E+04
 -7.91922E+04 -1.11635E+04 -5.60244E+04 -5.01115E+04 -1.48718E+04 -6.78451E+04  2.65135E+04 -4.45536E+04
  3.89956E+04  3.77788E+03  1.55280E+04  4.65096E+04 -3.41152E+04  4.60740E+04 -6.53350E+04 -5.51100E+02
 -5.18746E+04 -5.57160E+04 -6.31093E+03 -7.46937E+04  3.29602E+04 -5.29045E+04  4.64577E+04 -1.61968E+04
  4.12256E+04  1.11073E+04  3.06949E+04  2.44284E+04  1.58401E+04  2.79567E+04 -4.60370E+03  2.68520E+04
 -2.12564E+04  1.27683E+04 -1.90297E+04 -4.06026E+03  4.04076E+03 -7.58606E+03  2.10975E+04  1.08210E+04
  7.64818E+03  3.31283E+04 -3.01287E+04  3.39226E+04 -6.08414E+04  2.14513E+03 -5.52818E+04 -4.09504E+04
 -1.24336E+04 -6.04465E+04  3.77945E+04 -4.32746E+04  5.51054E+04 -1.85140E+03  3.17122E+04  3.05050E+04
 -6.65771E+03  3.27219E+04 -2.84874E+04  1.27803E+04 -2.69879E+04 -5.45145E+03 -1.39503E+04 -9.96339E+03
 -7.36152E+03 -1.14606E+04 -1.12071E+03 -1.63244E+04  6.48524E+03 -2.24858E+04  1.49728E+04 -1.36894E+04
  1.23143E+04  4.21963E+03 -6.15581E+03  1.30582E+04 -1.91062E+04 -2.31420E+03 -7.95480E+03 -2.99975E+04
  2.09013E+04 -4.03747E+04  4.39870E+04 -1.85078E+04  4.16519E+04  1.79275E+04  1.40057E+04  4.12164E+04
 -1.51930E+04  3.06698E+04 -2.32430E+04  1.10155E+03 -7.76966E+03 -2.62359E+04  2.03802E+04 -3.07378E+04
  3.76046E+04 -7.41626E+03  3.10866E+04  2.26672E+04  1.52709E+04  4.20514E+04 -7.92833E+03  4.48889E+04
 -2.82931E+04  2.93862E+04 -3.70953E+04  8.40387E+03 -3.80941E+04 -1.48653E+04 -2.09494E+04 -3.44004E+04
  7.05551E+03 -3.37014E+04  2.89615E+04 -1.23484E+04  2.68398E+04  1.07437E+04  2.85247E+03  1.77309E+04
 -1.31391E+04  7.08279E+03 -9.57140E+03 -7.62735E+03  6.17911E+03 -9.85723E+03  1.71334E+04  6.47381E+03
  1.23750E+04  2.15488E+04 -6.75746E+03  2.33615E+04 -2.13608E+04  8.82335E+03 -2.48402E+04 -6.58937E+03
 -1.62676E+04 -1.61151E+04 -5.53757E+03 -1.66886E+04  3.97001E+03 -1.40505E+04  1.19665E+04 -1.41558E+04
  2.12595E+04 -1.12840E+04  2.75703E+04  8.66315E+02  2.07793E+04  1.63119E+04  4.25403E+03  3.23093E+04
 -1.56648E+04  2.72232E+04 -2.55763E+04  9.28243E+03 -1.96115E+04 -1.03279E+04 -3.80313E+03 -1.40743E+04
  2.42061E+03 -4.50921E+03 -2.42759E+03  5.18642E+03 -1.25875E+04  5.06892E+03 -1.32480E+04 -4.95345E+03
 -8.62164E+03 -1.53148E+04  4.29887E+03 -1.94798E+04  1.22647E+04 -1.38360E+04  1.45500E+04 -1.45426E+03
  8.51099E+03  1.07569E+04 -9.02268E+02  1.55829E+04 -1.00998E+04  8.67386E+03 -1.53322E+04 -3.50929E+03
 -1.14366E+04 -1.39984E+04 -1.30745E+03 -1.88083E+04  8.28498E+03 -1.52689E+04  1.58047E+04 -7.05137E+03
  1.44192E+04  5.80368E+02  1.03091E+04  3.81719E+03  5.20293E+03  6.44406E+02  7.30917E+03 -1.42561E+03
  1.37147E+04  2.49935E+03  1.46424E+04  1.27351E+04  8.91103E+03  2.43489E+04 -3.12362E+03  2.63657E+04
 -1.55061E+04  1.98691E+04 -2.37853E+04  9.70265E+03 -2.44144E+04 -1.46065E+03 -2.14597E+04 -1.40663E+04
 -1.01174E+04 -2.00625E+04  6.86926E+03 -1.89590E+04  1.61227E+04 -1.09137E+04  1.52731E+04  3.58972E+03
  6.49152E+03  1.12481E+04 -6.99813E+03  1.03660E+04 -1.31947E+04  2.55813E+03 -1.00124E+04 -7.79639E+03
  3.15735E+01 -1.23953E+04  6.30913E+03 -9.22115E+03  7.87104E+03 -1.32800E+03  1.44829E+03  4.98443E+03
 -5.18417E+03  1.15885E+03 -3.60664E+03 -4.66439E+03  7.52176E+02 -1.02165E+04  7.69549E+03 -9.92677E+03
  1.21258E+04 -4.47247E+03  1.17369E+04  2.99812E+03  1.01196E+04  9.20313E+03  4.79817E+03  1.34978E+04
 -1.57624E+03  1.54357E+04 -9.55176E+03  9.94026E+03 -1.09905E+04  2.81893E+03 -8.20657E+03 -1.85539E+03
 -4.44028E+03 -3.23272E+03 -6.53689E+02  1.22365E+03 -2.01703E+03  1.91786E+03 -3.54075E+03  3.73830E+03
 -7.84359E+03 -5.28421E+02 -8.61174E+03 -7.15497E+03 -3.49299E+03 -1.12912E+04  3.41549E+03 -8.27781E+03
  6.87913E+03 -3.72400E+03  5.30187E+03  2.32329E+03  6.67592E+02  2.89931E+03 -3.60888E+03 -4.50792E+01
 -3.15521E+03 -5.20577E+03 -6.08283E+02 -7.05942E+03  3.83275E+03 -7.85370E+03  9.93111E+03 -3.94390E+03
  1.17916E+04  6.32670E+02  8.67870E+03  6.36438E+03  1.70629E+03  8.34853E+03 -5.12570E+03  8.68771E+03
 -6.75424E+03  2.56147E+03 -3.33531E+03 -1.33746E+03  1.36218E+03 -2.14565E+03  4.87043E+03 -1.03446E+03
  4.34416E+03  3.08531E+03  1.04642E+03  6.34937E+03 -4.36666E+03  6.37892E+03 -7.84738E+03  1.84275E+03
 -4.88003E+03 -3.82892E+03  5.70632E+02 -6.57217E+03  3.79642E+03 -3.45052E+03  3.40271E+03  7.39773E+02
  4.43237E+02  3.30685E+03 -4.23828E+03  4.86067E+03 -4.79268E+03  2.60921E+03 -4.32010E+03 -1.18422E+03
 -2.82494E+03 -5.93084E+03  1.22004E+03 -7.11653E+03  6.02037E+03 -4.65458E+03  6.32911E+03  1.03829E+03
  4.93368E+03  5.48661E+03  2.25054E+01  7.39458E+03 -5.12850E+03  4.35071E+03 -5.35164E+03 -4.06405E+02
 -5.76825E+03 -5.13286E+03 -1.63780E+03 -4.75445E+03  2.69538E+03 -4.70143E+03  2.66419E+03 -3.17985E+03
  3.09486E+03  9.19345E+01  1.55639E+01  1.19814E+03  7.02750E+02 -3.97462E+02  1.88882E+02 -1.65289E+03
  3.94849E+03 -6.68181E+02  5.26691E+03  8.01623E+02  5.50655E+03  3.10001E+03  5.43078E+03  7.24717E+03
 -1.15634E+03  8.57208E+03 -7.73319E+03  6.64584E+03 -1.01108E+04  1.39516E+03 -7.75476E+03 -2.49795E+03
 -4.29582E+03 -6.74790E+03 -2.46539E+02 -5.19437E+03  1.93350E+03 -1.89659E+03  1.79943E+03 -2.26634E+03
  9.84395E+02 -1.52152E+03  2.16579E+03 -2.58606E+03  3.81787E+03 -1.20433E+03  3.91779E+03  2.82658E+02
  4.44999E+03  1.35385E+03  1.00167E+03  3.57708E+03 -1.43069E+03  3.19891E+03 -4.19262E+03  2.55492E+03
 -5.07885E+03 -1.00758E+03 -1.88081E+03 -3.35329E+03  4.26611E+02 -5.08757E+03  3.46247E+03 -5.51656E+03
  5.33447E+03 -3.13957E+03  6.88886E+03  2.69117E+02  5.12510E+03  4.35976E+03  1.25470E+03  5.74248E+03
 -2.19410E+03  5.91740E+03 -3.43940E+03  2.08828E+03 -2.30677E+03 -1.11788E+03 -5.49316E+02 -5.10685E+02
 -6.68718E+02  4.33609E+02 -1.05093E+03  2.06791E+03 -2.54210E+03  1.18190E+03 -4.01988E+03 -3.99275E+02
 -1.73150E+03 -4.18305E+03  7.54058E+02 -4.59621E+03  2.72372E+03 -4.66965E+03  3.77098E+03 -1.20385E+03
  3.97045E+03  2.49283E+03  1.82634E+03  3.30814E+03 -8.26852E+02  4.33326E+03 -2.58474E+03  2.84257E+03
 -4.07650E+03  7.48057E+02 -3.34542E+03 -2.41489E+03 -1.28289E+02 -3.24289E+03  1.59109E+03 -2.61530E+03
  2.70964E+03 -1.43965E+03  1.89175E+03  4.14824E+02  6.12559E+02  1.77277E+03  7.66418E+02  3.98630E+02
  1.74833E+03  3.89005E+02  1.21136E+03  1.05046E+03  9.71011E+02  2.25514E+03  1.33577E+03  2.15121E+03
 -1.42972E+03  3.03565E+03 -2.50381E+03  4.22175E+03 -3.31027E+03  1.06699E+03 -4.17910E+03 -4.33308E+02
 -1.75657E+03 -3.63137E+03  7.22159E+02 -5.12573E+03  1.76862E+03 -2.70872E+03  3.11025E+03 -1.13735E+03
  2.72628E+03  1.78014E+03  5.94049E+02  2.08854E+03 -7.79601E+02  1.40845E+03 -8.28629E+02 -7.25764E+01
 -5.61663E+02 -1.50705E+03  1.50927E+03 -1.92617E+03  1.22088E+03 -1.22267E+03  1.49041E+03  4.85342E+02
  9.99415E+02  3.18412E+02  8.45463E+02  9.32147E+01 -4.75063E+02  1.04910E+03  1.72600E+03 -1.88979E+02
  1.18903E+02 -4.72494E+01  1.68180E+03  7.31511E+02  3.03645E+02  2.49060E+03 -4.14277E+02  3.03650E+03
 -1.75464E+03  1.16709E+03 -2.28596E+03  5.58267E+02 -2.60679E+03 -7.90587E+02 -2.29223E+02 -8.21917E+02
  4.72056E+02 -1.39748E+03  1.08271E+03 -6.27902E+02  9.15023E+02  1.29223E+03 -6.63411E+02  1.30444E+03
 -1.47364E+03  1.06059E+03 -1.03309E+03 -1.34213E+03 -7.88596E+02 -2.11881E+03  1.72935E+01 -1.55192E+03
  6.74580E+02 -5.48557E+02  6.91519E+02  2.53111E+02  1.23873E+03 -6.88774E+01  1.44979E+02  9.91657E+02
 -2.34357E+02  4.47770E+01 -9.15053E+02 -2.73687E+02  6.49292E+02 -9.35242E+02  2.00450E+03 -8.36051E+02
  1.68827E+03  7.46945E+01  2.58348E+03  8.74466E+02  1.23094E+03  1.75413E+03 -5.11239E+02  1.80172E+03
 -1.76308E+03  2.93603E+02 -1.58009E+03 -1.91215E+02 -1.01900E+03 -1.70238E+03  3.54407E+02 -7.05042E+02
  1.52038E+03 -7.53830E+02  8.69958E+02  7.40104E+02  5.04645E+02  1.52726E+03  3.22175E+02  1.10750E+03
 -4.06582E+02  1.16915E+03 -4.95451E+02  4.50066E+02  1.44646E+02  6.42917E+02 -9.80718E+02  5.34746E+02
 -7.67075E+02  1.06800E+03 -1.80032E+03  7.78680E+02 -2.01647E+03 -1.80500E+00 -2.48841E+03 -1.26501E+03
 -1.03147E+03 -2.33448E+03  5.01257E+02 -3.11948E+03  1.35234E+03 -2.45228E+03  2.93195E+03 -9.51348E+02
  2.83164E+03  2.08132E+02  1.55287E+03  1.90676E+03 -6.39357E+02  1.64360E+03 -9.78684E+02  1.59768E+03
 -1.10223E+03  5.28826E+02 -5.27774E+02 -1.94810E+02 -3.06893E+02  3.73856E+00 -7.26935E+02 -1.60840E+02
 -8.80266E+02 -2.15833E+00 -1.25626E+03  8.41182E+00  3.44850E+02 -6.73902E+02 -2.65744E+02 -9.23898E+02
  1.26918E+03 -6.59710E+02  6.27917E+02  2.77554E+02  1.04145E+03  8.23515E+02 -4.99940E+02  1.54114E+03
 -9.24032E+02  2.66965E+03 -1.65148E+03  1.46044E+03 -1.95024E+03 -4.99885E+02 -1.74781E+03 -1.20776E+03
 -7.78572E+02 -1.56771E+03  5.31273E+02 -1.46459E+03  5.99700E+02 -7.31033E+02  5.93654E+02  1.26196E+02
  5.47101E+02  4.91086E+02  2.01147E+02  1.45583E+02 -3.46527E+02  7.81694E+01 -1.25641E+02 -1.12274E+02
  5.10813E+02  5.93737E+01  1.64223E+02  4.23038E+02 -1.38533E+02  3.68884E+02  6.61280E+02  3.62851E+02
 -9.79530E+02  5.67133E+02 -5.80017E+02  6.13990E+01 -1.16264E+03 -2.45481E+02  7.07126E+00 -1.26972E+03
  7.26526E+02 -7.41452E+02  7.24502E+02 -4.38049E+02  1.02572E+03 -6.69583E+02  5.39044E+02  7.04031E+02
  4.56516E+02  6.23609E+02  2.87960E+01  9.06573E+02 -4.87580E+02  6.92709E+02 -3.93647E+02  9.35053E+01
 -1.16125E+02  1.73982E+02 -4.92301E+02  2.24817E+02 -6.14344E+02  2.62490E+02 -7.84836E+02 -1.72544E+02
 -1.05209E+03 -3.79005E+01 -4.46079E+02 -8.89461E+02  5.39952E+02 -1.78963E+03  9.94182E+02 -4.18410E+02
  7.53071E+02  2.08066E+02 -2.67677E+02  4.45658E+02 -5.93989E+01  8.66085E+02 -2.51174E+02  8.64774E+02
