 $NMID ID='MM_0lb_SNR800_11hz_g50_85.RAW', FMTDAT='(8E13.5)'
 TRAMP=1., VOLUME=1. $END
  3.09747E+05  3.62461E+02  3.37584E+05  2.50821E+05  8.48134E+04  3.38316E+05 -1.32906E+05  2.51487E+05
 -1.90300E+05  8.36090E+04 -1.12311E+05 -3.25036E+04  7.38153E+02 -5.07315E+04  5.34801E+04 -3.22036E+02
  3.52554E+04  5.27361E+04 -1.65194E+04  7.56985E+04 -6.09527E+04  6.40794E+04 -8.47356E+04  3.21830E+04
 -8.19241E+04 -1.20411E+04 -5.79870E+04 -5.16570E+04 -1.49342E+04 -7.03835E+04  2.77547E+04 -4.62866E+04
  4.08156E+04  3.90860E+03  1.65555E+04  4.80047E+04 -3.48612E+04  4.79412E+04 -6.73786E+04  4.43241E+01
 -5.43910E+04 -5.70879E+04 -7.03953E+03 -7.79873E+04  3.44410E+04 -5.66209E+04  4.89759E+04 -1.78884E+04
  4.41978E+04  1.15494E+04  3.20224E+04  2.62453E+04  1.54670E+04  3.01048E+04 -5.89337E+03  2.73102E+04
 -2.23755E+04  1.21508E+04 -1.77557E+04 -5.67279E+03  6.16334E+03 -7.53367E+03  2.32849E+04  1.34457E+04
  7.07726E+03  3.64134E+04 -3.31432E+04  3.64962E+04 -6.52941E+04  1.85935E+03 -5.80017E+04 -4.38181E+04
 -1.29659E+04 -6.47450E+04  4.06669E+04 -4.66225E+04  6.01827E+04 -2.65002E+03  3.57173E+04  3.35527E+04
 -5.45005E+03  3.80955E+04 -3.11004E+04  1.75305E+04 -3.22922E+04 -3.41794E+03 -1.79932E+04 -1.13563E+04
 -9.26517E+03 -1.44094E+04 -4.91350E+02 -1.96610E+04  8.26792E+03 -2.34346E+04  1.56718E+04 -1.29250E+04
  1.08774E+04  5.95650E+03 -9.51065E+03  1.28522E+04 -2.23777E+04 -5.91400E+03 -8.69239E+03 -3.57885E+04
  2.44194E+04 -4.56914E+04  5.04761E+04 -2.04277E+04  4.72120E+04  2.00802E+04  1.64788E+04  4.62869E+04
 -1.64415E+04  3.54004E+04 -2.65719E+04  2.48656E+03 -1.10147E+04 -2.89837E+04  2.15604E+04 -3.55396E+04
  4.30380E+04 -1.04016E+04  3.83846E+04  2.44908E+04  1.98839E+04  4.88012E+04 -7.99758E+03  5.38738E+04
 -3.37996E+04  3.62850E+04 -4.52708E+04  1.04304E+04 -4.56892E+04 -1.79172E+04 -2.51791E+04 -4.07078E+04
  7.77848E+03 -4.05183E+04  3.33876E+04 -1.61557E+04  3.09303E+04  1.13215E+04  4.53172E+03  1.99324E+04
 -1.36279E+04  9.50440E+03 -1.05911E+04 -7.83399E+03  5.37171E+03 -1.09937E+04  1.86698E+04  5.55356E+03
  1.44686E+04  2.24664E+04 -5.38960E+03  2.60290E+04 -2.27566E+04  1.33393E+04 -3.01451E+04 -3.84879E+03
 -2.36628E+04 -1.80254E+04 -1.04849E+04 -2.27137E+04  4.28223E+03 -2.30666E+04  1.83217E+04 -2.11334E+04
  2.98382E+04 -1.37741E+04  3.56560E+04  3.98309E+03  2.59127E+04  2.27245E+04  4.64542E+03  3.93095E+04
 -1.88254E+04  3.20900E+04 -2.91239E+04  1.14798E+04 -2.15195E+04 -1.02292E+04 -4.79714E+03 -1.33271E+04
  1.03212E+03 -1.73396E+03 -6.42753E+03  7.15264E+03 -1.88173E+04  5.23729E+03 -1.83664E+04 -8.61645E+03
 -1.12248E+04 -2.12972E+04  5.73532E+03 -2.60754E+04  1.74282E+04 -1.82989E+04  2.10120E+04 -1.92423E+03
  1.30860E+04  1.52426E+04 -1.16539E+03  2.13465E+04 -1.49433E+04  1.23979E+04 -2.17386E+04 -4.32080E+03
 -1.59123E+04 -1.97491E+04 -2.15087E+03 -2.59608E+04  1.14328E+04 -2.11723E+04  2.13954E+04 -1.10959E+04
  1.96639E+04 -2.48863E+02  1.48381E+04  4.84519E+03  7.69142E+03  1.24926E+03  1.10279E+04 -1.82578E+03
  2.01748E+04  3.11236E+03  2.27764E+04  1.73608E+04  1.55403E+04  3.48709E+04 -2.76951E+03  4.02971E+04
 -2.29534E+04  3.28596E+04 -3.79663E+04  1.68420E+04 -4.00389E+04 -3.05076E+03 -3.27665E+04 -2.33281E+04
 -1.31615E+04 -3.30701E+04  1.15348E+04 -2.90469E+04  2.50884E+04 -1.43330E+04  2.19610E+04  6.68850E+03
  7.38375E+03  1.69123E+04 -1.04359E+04  1.44295E+04 -1.84393E+04  2.94110E+03 -1.42009E+04 -1.13644E+04
 -3.58134E+02 -1.75258E+04  1.00147E+04 -1.28985E+04  1.21516E+04 -1.69001E+03  3.13301E+03  8.01638E+03
 -7.90158E+03  3.39108E+03 -7.92419E+03 -6.19497E+03 -9.54810E+02 -1.57071E+04  1.09268E+04 -1.74626E+04
  2.02968E+04 -9.62341E+03  2.25075E+04  3.49907E+03  1.99641E+04  1.62370E+04  9.17321E+03  2.53247E+04
 -4.53672E+03  2.74050E+04 -1.75018E+04  1.68129E+04 -1.98243E+04  3.77680E+03 -1.32160E+04 -4.65791E+03
 -5.56912E+03 -5.85444E+03 -3.91402E+02  1.10443E+03 -2.57790E+03  3.05664E+03 -6.49513E+03  5.08090E+03
 -1.25437E+04 -8.85177E+02 -1.33335E+04 -1.06359E+04 -5.29152E+03 -1.71389E+04  5.55443E+03 -1.41602E+04
  1.12997E+04 -6.09423E+03  7.98336E+03  4.11792E+03  4.03652E+00  5.55960E+03 -6.69592E+03 -1.44376E+02
 -6.41027E+03 -9.25220E+03 -1.33464E+03 -1.34659E+04  7.87340E+03 -1.39655E+04  1.71719E+04 -7.37635E+03
  2.04893E+04  1.95293E+03  1.52215E+04  1.23280E+04  2.62221E+03  1.64976E+04 -8.45878E+03  1.40798E+04
 -1.12651E+04  4.03456E+03 -5.78411E+03 -2.98005E+03  1.77225E+03 -3.75464E+03  7.40859E+03 -7.87733E+02
  6.97143E+03  6.00858E+03  1.34971E+03  1.11539E+04 -7.71880E+03  1.08160E+04 -1.34192E+04  2.26751E+03
 -9.30226E+03 -7.39901E+03  1.65880E+02 -1.15580E+04  7.41563E+03 -5.95171E+03  7.59816E+03  2.65805E+03
  1.63306E+03  8.23803E+03 -6.78185E+03  9.63017E+03 -1.12504E+04  4.42568E+03 -1.17457E+04 -4.15053E+03
 -6.65479E+03 -1.34184E+04  3.72573E+03 -1.54519E+04  1.29647E+04 -9.48869E+03  1.40795E+04  2.35191E+03
  8.45118E+03  1.14195E+04 -1.09409E+03  1.35851E+04 -1.00323E+04  7.62734E+03 -1.06340E+04 -1.28908E+03
 -9.48711E+03 -8.99603E+03 -1.86857E+03 -1.03579E+04  5.28920E+03 -8.13915E+03  6.32914E+03 -3.26354E+03
  4.62993E+03  1.57040E+03 -8.29993E+02  1.68552E+03 -5.97769E+02 -2.64321E+03  1.91435E+03 -5.93841E+03
  9.68797E+03 -3.79962E+03  1.27189E+04  1.26232E+03  1.30142E+04  8.68538E+03  8.99987E+03  1.66802E+04
 -4.35371E+03  2.00352E+04 -1.66821E+04  1.44236E+04 -2.13848E+04  2.57949E+03 -1.73883E+04 -7.12845E+03
 -8.87056E+03 -1.38188E+04 -1.89704E+02 -1.21222E+04  4.30023E+03 -6.48520E+03  4.36313E+03 -4.35278E+03
  3.44779E+03 -2.63040E+03  3.54565E+03 -3.39718E+03  5.52823E+03 -2.92346E+03  6.68277E+03 -6.83804E+02
  8.86251E+03  1.85660E+03  4.49372E+03  7.57503E+03 -2.09339E+03  9.18703E+03 -9.55485E+03  6.90265E+03
 -1.20258E+04 -1.20659E+03 -7.29004E+03 -8.39119E+03 -1.14706E+03 -1.26516E+04  7.12692E+03 -1.25204E+04
  1.31378E+04 -6.97002E+03  1.58171E+04  2.19852E+03  1.09156E+04  1.09810E+04  1.53822E+03  1.42465E+04
 -6.10197E+03  1.20009E+04 -8.55945E+03  3.94917E+03 -5.30480E+03 -1.37062E+03 -2.39711E+03 -1.92978E+03
 -1.34863E+03 -2.15906E+02 -1.77903E+03  2.91009E+03 -5.21115E+03  2.18308E+03 -8.60393E+03 -1.34363E+03
 -5.54682E+03 -8.12324E+03  3.02586E+02 -1.18057E+04  7.12589E+03 -1.06498E+04  1.17515E+04 -3.43318E+03
  1.14545E+04  5.90965E+03  5.17659E+03  1.03281E+04 -2.03493E+03  1.17758E+04 -8.55019E+03  7.35013E+03
 -1.09539E+04  4.53324E+02 -8.65724E+03 -7.20853E+03 -9.99256E+02 -9.28131E+03  5.18565E+03 -7.00629E+03
  7.42536E+03 -2.23910E+03  4.74345E+03  1.96678E+03  1.77654E+03  4.08025E+03  1.20162E+03  1.50289E+03
  2.45149E+03  8.69233E+02  2.86526E+03  1.65801E+03  3.41729E+03  4.10866E+03  2.95444E+03  5.94919E+03
 -2.31039E+03  9.26642E+03 -8.07037E+03  9.47836E+03 -1.18223E+04  2.42994E+03 -1.20325E+04 -4.50881E+03
 -5.62551E+03 -1.13881E+04  1.75668E+03 -1.30157E+04  6.88242E+03 -7.77681E+03  9.51510E+03 -2.03897E+03
  7.49313E+03  4.63019E+03  1.45466E+03  6.83288E+03 -2.88868E+03  4.34504E+03 -4.58973E+03 -8.68525E+02
 -1.99961E+03 -4.92882E+03  2.57839E+03 -5.36796E+03  5.08574E+03 -2.48495E+03  4.54369E+03  1.05193E+03
  2.70939E+03  2.15928E+03  1.12951E+03  1.29434E+03 -6.15232E+02  1.85250E+03  1.08565E+03 -8.18019E+02
  2.05141E+03 -3.90568E+02  4.61813E+03  2.08117E+03  2.26133E+03  6.46645E+03 -1.25098E+03  8.09123E+03
 -5.62066E+03  5.34812E+03 -7.20513E+03  1.59926E+03 -6.43899E+03 -2.73641E+03 -2.32643E+03 -4.01100E+03
  9.52608E+02 -4.50174E+03  3.19901E+03 -2.13988E+03  2.34540E+03  2.52053E+03 -1.59590E+03  3.91497E+03
 -4.56972E+03  2.06803E+03 -4.74844E+03 -3.03328E+03 -2.95224E+03 -6.55101E+03  9.46710E+02 -6.63516E+03
  3.78635E+03 -3.84166E+03  4.43784E+03 -3.27063E+02  3.87991E+03  1.37735E+03  7.86009E+02  3.55612E+03
 -2.08806E+03  6.97671E+02 -2.34697E+03 -1.81765E+03  1.30832E+03 -4.52196E+03  5.74935E+03 -3.75050E+03
  7.06839E+03  3.70519E+02  7.08381E+03  4.55279E+03  2.57181E+03  6.92406E+03 -2.61256E+03  6.98683E+03
 -5.84171E+03  2.81434E+03 -6.10637E+03 -7.59754E+02 -3.49798E+03 -5.06504E+03  1.25781E+03 -4.28458E+03
  4.35864E+03 -1.96394E+03  3.85157E+03  1.65963E+03  1.15316E+03  3.83160E+03 -3.14127E+02  3.50487E+03
 -1.57134E+03  2.61835E+03 -1.84821E+03  7.98934E+02 -4.85969E+02  9.88428E+02 -1.47131E+03  1.60286E+03
 -1.68618E+03  2.84685E+03 -4.91515E+03  2.65145E+03 -6.99265E+03  4.65173E+02 -8.06378E+03 -4.40742E+03
 -4.52822E+03 -9.41557E+03  1.82882E+03 -1.10229E+04  6.77174E+03 -8.61978E+03  1.00033E+04 -3.16916E+03
  9.64562E+03  1.86255E+03  5.73102E+03  6.75496E+03  1.65110E+02  7.58936E+03 -3.06691E+03  5.46186E+03
 -3.82276E+03  1.85688E+03 -2.40214E+03 -9.68366E+02 -1.10035E+03 -4.94276E+02 -4.70007E+02  8.88133E+01
 -1.95460E+03 -2.69024E+02 -1.89152E+03 -1.55450E+02 -4.57163E+02 -2.31707E+03  1.18453E+02 -2.80549E+03
  3.70947E+03 -2.38794E+03  4.33097E+03 -1.75702E+02  4.88889E+03  3.57668E+03  1.38420E+03  7.27508E+03
 -3.61178E+03  8.36208E+03 -7.94042E+03  5.00645E+03 -8.78110E+03 -6.98267E+02 -6.62120E+03 -5.10777E+03
 -2.91701E+03 -7.35658E+03  1.70654E+03 -6.87249E+03  4.48997E+03 -3.68390E+03  4.77364E+03  4.84792E+02
  2.89845E+03  2.14441E+03 -2.04945E+02  2.17575E+03 -1.39274E+03 -3.33746E+02 -8.55654E+01 -1.79567E+03
  2.24385E+03 -7.78229E+02  2.66819E+03  1.07973E+03  2.09822E+03  2.66266E+03  1.85402E+02  3.41454E+03
 -3.28480E+03  3.62934E+03 -4.44031E+03  5.81746E+02 -4.06911E+03 -3.37253E+03 -3.74477E+02 -5.91567E+03
  3.36754E+03 -5.11626E+03  5.05561E+03 -1.47725E+03  5.58629E+03  9.12645E+02  3.05693E+03  4.29910E+03
  7.14043E+02  4.77579E+03 -1.65449E+03  3.44110E+03 -3.17197E+03  2.01686E+03 -2.21722E+03  3.21268E+02
 -1.21350E+03 -5.37721E+02 -1.46502E+03  6.76234E+02 -2.24233E+03  6.64542E+02 -3.74611E+03 -7.56765E+02
 -3.48939E+03 -1.53160E+03 -1.34208E+03 -4.93135E+03  2.61019E+03 -5.10072E+03  3.70496E+03 -2.20774E+03
  4.66911E+03  6.08350E+02  2.19963E+03  3.30054E+03 -1.44418E+02  4.65646E+03 -3.43244E+03  3.42220E+03
