 $NMID ID='MM_0lb_SNR800_10hz_g55_78.RAW', FMTDAT='(8E13.5)'
 TRAMP=1., VOLUME=1. $END
  3.09924E+05  4.75485E+02  3.37488E+05  2.50493E+05  8.51088E+04  3.38255E+05 -1.32702E+05  2.51904E+05
 -1.90625E+05  8.39790E+04 -1.12684E+05 -3.20924E+04  1.02183E+02 -5.08131E+04  5.36712E+04 -2.65463E+02
  3.54876E+04  5.31945E+04 -1.66063E+04  7.61494E+04 -6.13399E+04  6.42893E+04 -8.53183E+04  3.29535E+04
 -8.23460E+04 -1.18966E+04 -5.80226E+04 -5.24982E+04 -1.50720E+04 -7.12933E+04  2.78067E+04 -4.66477E+04
  4.10890E+04  3.75234E+03  1.66679E+04  4.86618E+04 -3.49947E+04  4.81800E+04 -6.78693E+04  3.39397E+01
 -5.47888E+04 -5.80587E+04 -7.26383E+03 -7.89109E+04  3.44825E+04 -5.68503E+04  4.95162E+04 -1.81042E+04
  4.53282E+04  1.14187E+04  3.29100E+04  2.66652E+04  1.55398E+04  3.07024E+04 -5.94799E+03  2.78539E+04
 -2.23900E+04  1.21255E+04 -1.78173E+04 -5.66916E+03  7.14360E+03 -7.29027E+03  2.33075E+04  1.40494E+04
  7.00201E+03  3.71611E+04 -3.36591E+04  3.65372E+04 -6.56147E+04  1.99958E+03 -5.86224E+04 -4.45286E+04
 -1.25485E+04 -6.54254E+04  4.14129E+04 -4.71877E+04  6.09328E+04 -2.42176E+03  3.64873E+04  3.43055E+04
 -5.36342E+03  3.97309E+04 -3.17046E+04  1.84590E+04 -3.23110E+04 -2.99098E+03 -1.92500E+04 -1.17357E+04
 -9.35027E+03 -1.44871E+04 -2.79480E+02 -1.98125E+04  8.14817E+03 -2.33689E+04  1.59879E+04 -1.26865E+04
  1.02976E+04  6.09261E+03 -1.02583E+04  1.25358E+04 -2.32919E+04 -6.59459E+03 -8.57326E+03 -3.70295E+04
  2.47470E+04 -4.63610E+04  5.17165E+04 -2.09207E+04  4.89587E+04  2.02949E+04  1.74501E+04  4.68490E+04
 -1.67006E+04  3.62938E+04 -2.74296E+04  2.89075E+03 -1.13595E+04 -2.95675E+04  2.15814E+04 -3.69876E+04
  4.45050E+04 -1.06143E+04  3.99527E+04  2.49477E+04  2.09575E+04  5.04932E+04 -8.30062E+03  5.57481E+04
 -3.50563E+04  3.80941E+04 -4.72343E+04  1.10263E+04 -4.72390E+04 -1.84126E+04 -2.58697E+04 -4.14483E+04
  7.55049E+03 -4.16318E+04  3.39845E+04 -1.70826E+04  3.17074E+04  1.08180E+04  5.13561E+03  2.07286E+04
 -1.42434E+04  9.66608E+03 -1.09636E+04 -7.51306E+03  5.73024E+03 -1.10343E+04  1.88168E+04  5.69160E+03
  1.49475E+04  2.25634E+04 -5.32490E+03  2.67799E+04 -2.31227E+04  1.39339E+04 -3.11044E+04 -3.37539E+03
 -2.50196E+04 -1.81721E+04 -1.16497E+04 -2.42041E+04  4.36696E+03 -2.50850E+04  1.92290E+04 -2.23958E+04
  3.17210E+04 -1.38205E+04  3.75125E+04  4.84835E+03  2.68017E+04  2.36003E+04  4.45010E+03  4.08286E+04
 -1.97933E+04  3.35325E+04 -3.03239E+04  1.15812E+04 -2.24671E+04 -1.01350E+04 -4.74658E+03 -1.30858E+04
  9.67574E+02 -1.13087E+03 -7.24596E+03  8.12791E+03 -1.97036E+04  4.99498E+03 -1.99591E+04 -9.24180E+03
 -1.20975E+04 -2.29111E+04  5.77017E+03 -2.72876E+04  1.86075E+04 -1.96282E+04  2.21740E+04 -1.89419E+03
  1.38673E+04  1.57384E+04 -1.36988E+03  2.27327E+04 -1.63462E+04  1.30043E+04 -2.32199E+04 -4.72168E+03
 -1.67556E+04 -2.06055E+04 -1.95943E+03 -2.76750E+04  1.27176E+04 -2.30579E+04  2.28009E+04 -1.15907E+04
  2.16152E+04 -4.32777E+02  1.52795E+04  4.92042E+03  8.93368E+03  1.13266E+03  1.18016E+04 -2.11815E+03
  2.17500E+04  2.83394E+03  2.45427E+04  1.80799E+04  1.67797E+04  3.67775E+04 -2.48418E+03  4.31764E+04
 -2.46388E+04  3.60955E+04 -4.06406E+04  1.87890E+04 -4.33689E+04 -3.29996E+03 -3.49212E+04 -2.52599E+04
 -1.38981E+04 -3.63308E+04  1.25010E+04 -3.17225E+04  2.71673E+04 -1.48970E+04  2.36371E+04  7.82328E+03
  8.08207E+03  1.82924E+04 -1.17303E+04  1.54119E+04 -1.95348E+04  2.46280E+03 -1.47800E+04 -1.26506E+04
 -3.41452E+02 -1.92033E+04  1.01177E+04 -1.41077E+04  1.30550E+04 -1.22855E+03  3.47573E+03  8.15224E+03
 -8.05385E+03  3.63106E+03 -8.79244E+03 -7.01962E+03 -1.35823E+03 -1.78155E+04  1.18228E+04 -1.93717E+04
  2.21033E+04 -1.07614E+04  2.53397E+04  3.31472E+03  2.21843E+04  1.77702E+04  1.02527E+04  2.78911E+04
 -5.42325E+03  3.01978E+04 -1.92349E+04  1.85478E+04 -2.18012E+04  3.83881E+03 -1.44172E+04 -5.77867E+03
 -6.16276E+03 -7.33405E+03 -5.84935E+02  6.40648E+02 -3.10513E+03  3.34053E+03 -6.98531E+03  5.02276E+03
 -1.39945E+04 -9.61143E+02 -1.45076E+04 -1.15667E+04 -5.28082E+03 -1.84107E+04  6.33528E+03 -1.49577E+04
  1.24421E+04 -6.37168E+03  8.72672E+03  4.16054E+03 -5.65723E+02  6.12040E+03 -7.70914E+03 -3.93728E+02
 -7.01379E+03 -9.83594E+03 -1.32090E+03 -1.49889E+04  8.46963E+03 -1.56332E+04  1.92484E+04 -8.53674E+03
  2.26242E+04  2.34326E+03  1.67535E+04  1.39916E+04  3.16731E+03  1.81443E+04 -8.96955E+03  1.49929E+04
 -1.20029E+04  4.34574E+03 -6.60703E+03 -3.16873E+03  2.03807E+03 -4.62380E+03  7.91909E+03 -8.71293E+02
  7.34642E+03  6.87851E+03  1.33647E+03  1.20543E+04 -8.99104E+03  1.16332E+04 -1.47868E+04  2.91985E+03
 -9.98562E+03 -7.83178E+03  2.25528E+02 -1.25843E+04  8.36709E+03 -6.35236E+03  8.97897E+03  3.29263E+03
  2.48120E+03  9.16249E+03 -7.73594E+03  1.10487E+04 -1.32579E+04  4.82539E+03 -1.32288E+04 -4.52614E+03
 -7.37071E+03 -1.49946E+04  3.72446E+03 -1.73924E+04  1.47327E+04 -1.03155E+04  1.59366E+04  2.58361E+03
  9.35213E+03  1.25842E+04 -1.06651E+03  1.52923E+04 -1.10918E+04  8.70623E+03 -1.18346E+04 -1.03167E+03
 -1.03084E+04 -1.05695E+04 -1.58638E+03 -1.14457E+04  6.06389E+03 -8.90809E+03  7.19399E+03 -3.61864E+03
  4.65976E+03  2.09969E+03 -1.21506E+03  1.82964E+03 -4.17801E+02 -3.19208E+03  2.59844E+03 -6.83980E+03
  1.09057E+04 -4.58230E+03  1.54022E+04  1.78695E+03  1.48355E+04  1.03665E+04  9.90469E+03  1.99828E+04
 -4.48573E+03  2.24242E+04 -1.86920E+04  1.69470E+04 -2.46450E+04  3.05744E+03 -1.96104E+04 -9.03643E+03
 -1.00464E+04 -1.59624E+04  5.01895E+00 -1.39093E+04  5.09361E+03 -7.48825E+03  4.66506E+03 -4.90058E+03
  3.51336E+03 -3.15957E+03  3.75447E+03 -3.61392E+03  5.50588E+03 -3.30533E+03  7.62558E+03 -1.24821E+03
  1.04157E+04  2.37967E+03  5.29427E+03  8.90574E+03 -2.09645E+03  1.02967E+04 -1.10424E+04  8.03190E+03
 -1.37651E+04 -1.50149E+03 -8.96120E+03 -9.64446E+03 -1.16293E+03 -1.47094E+04  8.33252E+03 -1.52417E+04
  1.53193E+04 -8.07367E+03  1.78573E+04  1.92798E+03  1.25184E+04  1.26169E+04  2.28428E+03  1.67404E+04
 -7.29469E+03  1.36579E+04 -9.71996E+03  4.82901E+03 -6.58823E+03 -1.53514E+03 -2.66250E+03 -2.12969E+03
 -1.51711E+03 -2.42156E+02 -2.52179E+03  2.79210E+03 -5.71470E+03  2.37700E+03 -9.13566E+03 -1.50459E+03
 -7.06250E+03 -9.53497E+03  1.91766E+02 -1.37900E+04  8.49219E+03 -1.25867E+04  1.37933E+04 -3.66245E+03
  1.32276E+04  7.24267E+03  6.54561E+03  1.25370E+04 -2.36257E+03  1.38632E+04 -9.90452E+03  8.94419E+03
 -1.31673E+04  2.04900E+02 -9.36767E+03 -8.16602E+03 -6.54940E+02 -1.16887E+04  5.76915E+03 -8.65362E+03
  8.40991E+03 -2.85129E+03  5.85705E+03  2.38416E+03  2.06258E+03  4.20203E+03  1.54333E+03  2.04301E+03
  2.00208E+03  8.69347E+02  3.42740E+03  2.03237E+03  3.74566E+03  5.03661E+03  3.71644E+03  7.08160E+03
 -2.78474E+03  1.13710E+04 -9.84246E+03  1.12448E+04 -1.36000E+04  2.95903E+03 -1.47170E+04 -5.78541E+03
 -6.93329E+03 -1.36900E+04  2.02119E+03 -1.49931E+04  8.13506E+03 -9.91973E+03  1.11486E+04 -2.49110E+03
  8.83930E+03  5.56747E+03  1.96136E+03  8.01060E+03 -3.87863E+03  5.14169E+03 -5.05136E+03 -1.05461E+03
 -2.69752E+03 -6.07341E+03  3.11483E+03 -6.21413E+03  5.26202E+03 -3.08806E+03  5.60116E+03  1.38495E+03
  2.95299E+03  2.64298E+03  9.21044E+02  2.05455E+03 -5.45277E+02  2.22831E+03  1.52200E+03 -6.22329E+02
  1.94358E+03 -9.71739E+02  5.51381E+03  2.36630E+03  3.32056E+03  7.31350E+03 -1.10349E+03  9.44943E+03
 -6.66196E+03  6.28118E+03 -8.53584E+03  1.70411E+03 -7.74038E+03 -3.45890E+03 -3.21113E+03 -5.53811E+03
  9.76473E+02 -5.05039E+03  3.63070E+03 -2.35285E+03  2.70641E+03  2.68526E+03 -1.46864E+03  4.82315E+03
 -5.79346E+03  2.38651E+03 -6.49348E+03 -3.33134E+03 -3.57519E+03 -7.41738E+03  1.22630E+03 -7.47121E+03
  4.56350E+03 -4.81264E+03  5.21206E+03 -7.24802E+02  4.76655E+03  1.72806E+03  7.96794E+02  4.02657E+03
 -2.68968E+03  1.14042E+03 -3.28171E+03 -2.44880E+03  1.43203E+03 -5.60171E+03  6.87068E+03 -4.49557E+03
  8.59855E+03  7.01991E+02  8.28765E+03  5.71148E+03  2.71985E+03  8.56638E+03 -3.40894E+03  8.27143E+03
 -7.31759E+03  3.87690E+03 -7.54880E+03 -1.24428E+03 -4.59345E+03 -5.87020E+03  1.24176E+03 -5.41840E+03
  5.44721E+03 -2.93696E+03  4.65829E+03  2.40246E+03  1.67192E+03  5.29092E+03 -4.54078E+02  4.49108E+03
 -2.42877E+03  2.89288E+03 -2.15472E+03  1.05882E+03 -9.91773E+02  8.32951E+02 -1.54830E+03  1.77672E+03
 -2.52371E+03  3.68181E+03 -5.82463E+03  3.01515E+03 -9.08593E+03  1.83913E+02 -9.84931E+03 -6.46653E+03
 -5.05702E+03 -1.16822E+04  2.43841E+03 -1.35388E+04  8.07110E+03 -1.05766E+04  1.26211E+04 -4.08384E+03
  1.20048E+04  2.40947E+03  7.61640E+03  8.04412E+03  6.76671E+02  8.94726E+03 -3.34588E+03  6.91331E+03
 -4.89803E+03  2.37873E+03 -3.02784E+03 -1.21119E+03 -1.09031E+03 -8.09760E+02 -4.85472E+02  5.24310E+01
 -1.93522E+03  2.03013E+02 -2.00588E+03 -2.39833E+01 -7.65181E+02 -2.04920E+03 -7.41917E+00 -3.80703E+03
  4.19887E+03 -2.82085E+03  5.67838E+03 -3.99864E+02  5.90672E+03  4.84518E+03  1.71322E+03  9.27762E+03
 -4.33307E+03  1.03669E+04 -9.60620E+03  5.89882E+03 -1.14358E+04 -8.61985E+02 -8.30506E+03 -6.77865E+03
 -3.49941E+03 -9.44681E+03  2.20550E+03 -8.41220E+03  5.77107E+03 -4.40333E+03  6.00056E+03  1.95159E+01
  3.61896E+03  3.01929E+03 -4.05469E+02  2.64155E+03 -1.97708E+03 -6.61552E+02  5.35300E+01 -2.21781E+03
  2.52404E+03 -1.17192E+03  3.50604E+03  7.88348E+02  2.49738E+03  3.33577E+03  4.49577E+01  4.41768E+03
 -3.69881E+03  4.26371E+03 -6.08536E+03  3.41393E+02 -5.36291E+03 -4.04908E+03 -5.34828E+02 -7.66679E+03
  4.40004E+03 -6.34660E+03  6.87825E+03 -2.22508E+03  6.99706E+03  1.41317E+03  3.75859E+03  5.70967E+03
  4.52756E+02  5.80657E+03 -2.42308E+03  4.86237E+03 -3.81190E+03  2.52274E+03 -2.74971E+03  3.07578E+02
 -1.66403E+03 -1.57927E+02 -1.71176E+03  6.25929E+02 -3.30398E+03  1.11710E+03 -4.40371E+03 -1.02841E+03
 -4.46329E+03 -2.81229E+03 -9.20422E+02 -6.15848E+03  3.11078E+03 -6.49996E+03  5.62832E+03 -3.18567E+03
  5.88605E+03  1.08698E+03  3.00869E+03  4.32747E+03 -3.85565E+02  6.00607E+03 -4.13924E+03  3.91933E+03
