 $NMID ID='MM_0lb_SNR800_10hz_g45_66.RAW', FMTDAT='(8E13.5)'
 TRAMP=1., VOLUME=1. $END
  3.10092E+05  5.91415E+02  3.37856E+05  2.50587E+05  8.46178E+04  3.38328E+05 -1.32546E+05  2.51728E+05
 -1.90483E+05  8.33543E+04 -1.12307E+05 -3.21872E+04  4.22535E+02 -5.06996E+04  5.37111E+04 -1.40153E+02
  3.56734E+04  5.27521E+04 -1.65502E+04  7.59552E+04 -6.08381E+04  6.40172E+04 -8.51310E+04  3.23361E+04
 -8.26126E+04 -1.16446E+04 -5.78107E+04 -5.22867E+04 -1.50560E+04 -7.04483E+04  2.80519E+04 -4.66670E+04
  4.08567E+04  3.45532E+03  1.69974E+04  4.81155E+04 -3.46458E+04  4.80657E+04 -6.77443E+04 -8.15907E+01
 -5.45093E+04 -5.71859E+04 -7.03423E+03 -7.80520E+04  3.42635E+04 -5.65301E+04  4.92709E+04 -1.79184E+04
  4.45807E+04  1.15389E+04  3.27414E+04  2.59551E+04  1.55305E+04  3.03863E+04 -5.59342E+03  2.73284E+04
 -2.22232E+04  1.19763E+04 -1.81756E+04 -5.59557E+03  6.81323E+03 -7.72668E+03  2.30651E+04  1.36371E+04
  7.33727E+03  3.63975E+04 -3.33797E+04  3.67785E+04 -6.51100E+04  1.99955E+03 -5.81628E+04 -4.37993E+04
 -1.23828E+04 -6.51184E+04  4.06816E+04 -4.64802E+04  6.03577E+04 -2.29357E+03  3.54860E+04  3.37365E+04
 -5.79864E+03  3.82731E+04 -3.14559E+04  1.80708E+04 -3.23285E+04 -4.16658E+03 -1.84817E+04 -1.15479E+04
 -9.02889E+03 -1.42340E+04 -7.01495E+02 -1.90084E+04  8.08969E+03 -2.31659E+04  1.58105E+04 -1.26177E+04
  1.07938E+04  6.09704E+03 -1.00831E+04  1.25157E+04 -2.31643E+04 -5.80573E+03 -8.89970E+03 -3.63514E+04
  2.42158E+04 -4.56159E+04  5.10852E+04 -2.06719E+04  4.74073E+04  2.03095E+04  1.67770E+04  4.60628E+04
 -1.62508E+04  3.52226E+04 -2.70560E+04  2.26993E+03 -1.09314E+04 -2.91902E+04  2.15429E+04 -3.57086E+04
  4.32418E+04 -1.05680E+04  3.88728E+04  2.45776E+04  2.02625E+04  4.98078E+04 -8.05050E+03  5.44344E+04
 -3.42817E+04  3.69064E+04 -4.61243E+04  1.07862E+04 -4.57978E+04 -1.79915E+04 -2.52243E+04 -4.08921E+04
  7.51235E+03 -4.10398E+04  3.33268E+04 -1.63034E+04  3.14075E+04  1.06354E+04  5.04020E+03  2.06384E+04
 -1.38296E+04  9.46904E+03 -1.09753E+04 -7.51032E+03  5.63835E+03 -1.08445E+04  1.84245E+04  5.76041E+03
  1.40337E+04  2.23449E+04 -5.59635E+03  2.63322E+04 -2.29170E+04  1.35243E+04 -3.04409E+04 -3.64074E+03
 -2.38800E+04 -1.82383E+04 -1.06110E+04 -2.34326E+04  3.92227E+03 -2.38214E+04  1.85432E+04 -2.13111E+04
  3.04833E+04 -1.38795E+04  3.63500E+04  4.32344E+03  2.60311E+04  2.30775E+04  4.71941E+03  3.97757E+04
 -1.89209E+04  3.33979E+04 -3.00022E+04  1.12242E+04 -2.18918E+04 -9.93956E+03 -5.11894E+03 -1.34588E+04
  8.66606E+02 -1.54210E+03 -7.06126E+03  7.74194E+03 -1.91043E+04  4.90185E+03 -1.88694E+04 -8.80531E+03
 -1.14118E+04 -2.16961E+04  5.95449E+03 -2.57085E+04  1.74242E+04 -1.84773E+04  2.10408E+04 -1.57972E+03
  1.33006E+04  1.51187E+04 -1.22232E+03  2.21217E+04 -1.57168E+04  1.24187E+04 -2.21614E+04 -4.78015E+03
 -1.65916E+04 -1.95688E+04 -2.38738E+03 -2.63924E+04  1.19655E+04 -2.15915E+04  2.19824E+04 -1.14161E+04
  2.08922E+04 -1.43151E+01  1.50846E+04  4.91424E+03  7.82139E+03  9.46680E+02  1.13704E+04 -1.70445E+03
  2.05211E+04  2.66336E+03  2.34719E+04  1.72728E+04  1.59276E+04  3.52475E+04 -2.64540E+03  4.08192E+04
 -2.34670E+04  3.42409E+04 -3.89295E+04  1.75825E+04 -4.11601E+04 -2.81484E+03 -3.33584E+04 -2.40435E+04
 -1.36652E+04 -3.46602E+04  1.20171E+04 -3.06045E+04  2.57748E+04 -1.42141E+04  2.28232E+04  7.55899E+03
  7.79071E+03  1.76699E+04 -1.04023E+04  1.46651E+04 -1.90928E+04  2.83643E+03 -1.41660E+04 -1.20037E+04
 -3.83336E+02 -1.82862E+04  9.82625E+03 -1.35956E+04  1.23313E+04 -1.64148E+03  2.86805E+03  8.30339E+03
 -8.00420E+03  3.23770E+03 -8.42101E+03 -6.53229E+03 -1.20410E+03 -1.67500E+04  1.11129E+04 -1.77202E+04
  2.12188E+04 -1.00801E+04  2.35972E+04  3.16896E+03  2.05722E+04  1.68546E+04  9.26477E+03  2.68795E+04
 -5.25402E+03  2.81715E+04 -1.83917E+04  1.75539E+04 -2.05738E+04  3.51501E+03 -1.42704E+04 -5.67369E+03
 -6.09540E+03 -6.40283E+03 -8.91666E+02  7.29151E+02 -2.91876E+03  3.37002E+03 -6.55376E+03  4.95698E+03
 -1.31929E+04 -8.12093E+02 -1.37192E+04 -1.08981E+04 -5.85921E+03 -1.80333E+04  6.01850E+03 -1.42151E+04
  1.20235E+04 -6.15234E+03  8.55666E+03  3.84251E+03 -1.20368E+02  5.59714E+03 -6.81834E+03  2.60351E+01
 -6.88229E+03 -9.50151E+03 -1.07716E+03 -1.42624E+04  8.35227E+03 -1.48300E+04  1.84443E+04 -7.97938E+03
  2.11890E+04  2.16588E+03  1.57173E+04  1.25937E+04  2.56265E+03  1.73964E+04 -8.98289E+03  1.42649E+04
 -1.17513E+04  4.38784E+03 -5.63145E+03 -3.44715E+03  1.85964E+03 -4.10429E+03  7.64923E+03 -1.44021E+03
  7.12678E+03  6.49526E+03  1.21157E+03  1.15037E+04 -8.49876E+03  1.08899E+04 -1.44464E+04  2.51203E+03
 -9.78173E+03 -7.57742E+03 -1.82661E+02 -1.24004E+04  8.10409E+03 -6.28718E+03  8.00336E+03  2.58223E+03
  1.76712E+03  8.73590E+03 -7.17549E+03  1.02262E+04 -1.18798E+04  4.64629E+03 -1.20067E+04 -4.44699E+03
 -7.26183E+03 -1.40474E+04  3.75978E+03 -1.63512E+04  1.35390E+04 -9.43126E+03  1.49977E+04  2.62880E+03
  9.03095E+03  1.21291E+04 -9.11083E+02  1.42576E+04 -1.04959E+04  7.63743E+03 -1.15773E+04 -1.54863E+03
 -9.49462E+03 -9.52907E+03 -2.05305E+03 -1.08695E+04  5.61767E+03 -8.49100E+03  6.98002E+03 -3.72441E+03
  4.61627E+03  1.84454E+03 -9.55358E+02  1.89225E+03 -5.78000E+02 -2.64379E+03  2.06694E+03 -6.21571E+03
  1.02233E+04 -4.56538E+03  1.43918E+04  1.62934E+03  1.33549E+04  9.73658E+03  9.14000E+03  1.85111E+04
 -4.14369E+03  2.10295E+04 -1.75281E+04  1.50962E+04 -2.22939E+04  2.59898E+03 -1.83319E+04 -7.48063E+03
 -9.08146E+03 -1.52692E+04 -3.54827E+02 -1.26918E+04  4.93471E+03 -6.73681E+03  4.25418E+03 -5.07774E+03
  3.17429E+03 -2.52698E+03  3.76719E+03 -3.47890E+03  5.27459E+03 -2.73858E+03  7.15638E+03 -1.03139E+03
  9.68086E+03  2.48750E+03  4.74072E+03  8.36301E+03 -1.80206E+03  9.92272E+03 -1.00632E+04  7.41824E+03
 -1.26460E+04 -1.28013E+03 -7.90483E+03 -9.19073E+03 -1.20645E+03 -1.37013E+04  7.81945E+03 -1.38083E+04
  1.41942E+04 -7.80575E+03  1.73476E+04  2.47965E+03  1.14664E+04  1.20035E+04  1.80666E+03  1.52299E+04
 -6.35303E+03  1.29403E+04 -8.78699E+03  4.43507E+03 -5.99519E+03 -1.60561E+03 -2.54382E+03 -2.08983E+03
 -1.60111E+03  5.06308E+01 -2.14728E+03  2.51796E+03 -5.72214E+03  2.35146E+03 -8.66785E+03 -1.50254E+03
 -6.13998E+03 -8.97786E+03  1.60045E+02 -1.29477E+04  7.51176E+03 -1.23553E+04  1.25920E+04 -3.38756E+03
  1.25926E+04  6.14060E+03  5.68523E+03  1.14649E+04 -2.61547E+03  1.27736E+04 -9.06959E+03  8.05418E+03
 -1.19163E+04  6.13070E+02 -9.30030E+03 -7.72314E+03 -5.91015E+02 -1.06704E+04  5.37285E+03 -7.91713E+03
  7.96996E+03 -3.02927E+03  5.69331E+03  2.27192E+03  1.70507E+03  3.48187E+03  1.30102E+03  1.79152E+03
  2.40909E+03  4.63234E+02  3.05908E+03  1.88854E+03  3.59537E+03  4.45424E+03  3.12467E+03  6.79709E+03
 -2.78873E+03  1.02079E+04 -8.68189E+03  9.80510E+03 -1.28802E+04  3.04427E+03 -1.34947E+04 -5.33648E+03
 -6.34807E+03 -1.23218E+04  2.07962E+03 -1.43641E+04  7.70918E+03 -9.40118E+03  1.02854E+04 -2.10530E+03
  8.43801E+03  4.75162E+03  1.96873E+03  7.74821E+03 -3.39261E+03  4.79065E+03 -5.06984E+03 -9.38167E+02
 -2.41699E+03 -5.44199E+03  3.24474E+03 -5.97256E+03  5.39544E+03 -2.78360E+03  4.98287E+03  1.13354E+03
  2.92299E+03  2.35847E+03  1.67350E+03  1.81353E+03 -6.51852E+02  1.88641E+03  1.82894E+03 -2.57619E+02
  2.34337E+03 -8.23219E+02  5.18727E+03  2.22919E+03  2.96068E+03  7.03366E+03 -1.02742E+03  8.91955E+03
 -6.40801E+03  5.68347E+03 -7.83659E+03  1.73219E+03 -7.18761E+03 -2.85730E+03 -2.76870E+03 -4.98785E+03
  7.46808E+02 -5.00585E+03  3.17867E+03 -2.14543E+03  2.77045E+03  2.47060E+03 -1.03620E+03  4.21588E+03
 -5.35461E+03  2.37879E+03 -5.96471E+03 -3.14975E+03 -3.85444E+03 -7.18739E+03  1.09296E+03 -6.96003E+03
  3.99851E+03 -4.71638E+03  4.67188E+03 -3.60687E+02  4.54346E+03  1.94156E+03  7.18074E+02  3.51739E+03
 -2.19592E+03  8.68479E+02 -3.18883E+03 -2.61900E+03  9.46123E+02 -5.08930E+03  6.57893E+03 -4.42578E+03
  7.86147E+03  6.45899E+02  7.99515E+03  5.37137E+03  2.71933E+03  8.55540E+03 -2.45357E+03  7.93134E+03
 -6.79250E+03  3.32052E+03 -7.44366E+03 -7.44772E+02 -3.45944E+03 -5.75144E+03  1.37624E+03 -5.09061E+03
  5.06111E+03 -2.77867E+03  4.93133E+03  2.19001E+03  1.58830E+03  4.55555E+03 -7.73226E+02  4.34891E+03
 -2.08825E+03  3.08598E+03 -2.32488E+03  7.66623E+02 -1.09979E+03  8.10095E+02 -1.13477E+03  2.19291E+03
 -2.09984E+03  3.41681E+03 -5.72294E+03  2.85454E+03 -8.26156E+03  2.59465E+02 -9.31808E+03 -5.51255E+03
 -4.69453E+03 -1.04448E+04  2.38216E+03 -1.29816E+04  7.58680E+03 -9.87364E+03  1.20640E+04 -3.61678E+03
  1.11737E+04  1.98203E+03  6.97785E+03  7.81069E+03  4.00429E+02  8.61121E+03 -3.05072E+03  6.38740E+03
 -4.40051E+03  2.30341E+03 -3.37810E+03 -1.11467E+03 -1.01723E+03 -9.76878E+02 -6.79739E+02  3.21231E+01
 -1.89351E+03  2.85682E+02 -1.89631E+03 -4.39938E+02 -5.12980E+02 -2.04725E+03  2.71199E+02 -3.04165E+03
  4.00541E+03 -2.92731E+03  5.25210E+03 -1.67224E+02  6.23540E+03  4.67979E+03  1.86063E+03  8.42243E+03
 -3.76591E+03  9.81407E+03 -8.84769E+03  5.78582E+03 -1.00536E+04 -8.54839E+02 -7.28169E+03 -6.27501E+03
 -3.10853E+03 -8.49905E+03  2.29832E+03 -8.12484E+03  5.51294E+03 -3.97268E+03  5.55179E+03  4.39034E+00
  3.31833E+03  2.84869E+03 -1.56246E+02  2.16850E+03 -2.11032E+03 -1.25024E+01 -5.37588E+01 -2.06394E+03
  2.76356E+03 -1.19561E+03  3.10107E+03  1.27907E+03  2.11686E+03  3.21653E+03  6.08000E+02  4.09403E+03
 -3.59393E+03  3.98139E+03 -5.94241E+03  5.05638E+02 -5.13757E+03 -4.29640E+03 -6.93909E+02 -7.15970E+03
  4.37138E+03 -5.74541E+03  6.27220E+03 -2.06805E+03  6.17122E+03  1.17283E+03  3.24014E+03  4.87688E+03
  1.00319E+03  5.82217E+03 -2.11919E+03  4.60998E+03 -3.64373E+03  2.36927E+03 -2.96121E+03  6.93645E+02
 -1.36561E+03 -3.65268E+02 -1.78132E+03  6.86599E+02 -2.71863E+03  1.15753E+03 -4.48798E+03 -9.23436E+02
 -4.26816E+03 -2.63274E+03 -1.44295E+03 -5.33574E+03  2.52150E+03 -6.41860E+03  4.90250E+03 -2.77915E+03
  5.37418E+03  7.02283E+02  2.63757E+03  4.01500E+03 -5.39919E+02  5.57273E+03 -4.39585E+03  3.84250E+03
