 $NMID ID='MM_0lb_SNR800_10hz_g40_44.RAW', FMTDAT='(8E13.5)'
 TRAMP=1., VOLUME=1. $END
  3.09729E+05  1.66052E+02  3.37710E+05  2.51003E+05  8.47740E+04  3.38163E+05 -1.32589E+05  2.51455E+05
 -1.91036E+05  8.36915E+04 -1.12081E+05 -3.27048E+04  7.64349E+02 -5.08726E+04  5.34808E+04 -2.47865E+02
  3.55252E+04  5.29130E+04 -1.66983E+04  7.58773E+04 -6.10611E+04  6.42704E+04 -8.51750E+04  3.23460E+04
 -8.17382E+04 -1.13842E+04 -5.77820E+04 -5.19575E+04 -1.50296E+04 -7.05907E+04  2.76990E+04 -4.62556E+04
  4.07370E+04  3.79258E+03  1.69189E+04  4.81994E+04 -3.46009E+04  4.77909E+04 -6.74415E+04 -2.88087E+02
 -5.43964E+04 -5.76105E+04 -6.62804E+03 -7.80248E+04  3.44509E+04 -5.63284E+04  4.90188E+04 -1.79618E+04
  4.46536E+04  1.13511E+04  3.23373E+04  2.60398E+04  1.57875E+04  3.05827E+04 -5.94780E+03  2.79343E+04
 -2.22452E+04  1.20637E+04 -1.86235E+04 -5.29171E+03  6.19583E+03 -7.35282E+03  2.34155E+04  1.30284E+04
  7.19590E+03  3.69363E+04 -3.32643E+04  3.64946E+04 -6.46183E+04  2.20765E+03 -5.80408E+04 -4.38657E+04
 -1.28798E+04 -6.46750E+04  4.09477E+04 -4.67788E+04  5.98281E+04 -2.73211E+03  3.54518E+04  3.37979E+04
 -5.70430E+03  3.82286E+04 -3.08335E+04  1.76504E+04 -3.20620E+04 -3.68047E+03 -1.82487E+04 -1.19291E+04
 -8.93173E+03 -1.44200E+04 -4.52552E+02 -1.88993E+04  8.52491E+03 -2.33113E+04  1.53692E+04 -1.29565E+04
  1.08153E+04  6.03661E+03 -9.65067E+03  1.31734E+04 -2.28534E+04 -5.69100E+03 -8.68178E+03 -3.59259E+04
  2.38335E+04 -4.56461E+04  5.05995E+04 -2.02477E+04  4.71013E+04  1.99697E+04  1.71076E+04  4.57327E+04
 -1.64642E+04  3.52778E+04 -2.68329E+04  2.27698E+03 -1.11892E+04 -2.89449E+04  2.11342E+04 -3.52567E+04
  4.31766E+04 -1.02296E+04  3.88838E+04  2.45495E+04  2.01788E+04  4.96341E+04 -8.10335E+03  5.37106E+04
 -3.39414E+04  3.64206E+04 -4.49478E+04  1.03390E+04 -4.57377E+04 -1.75960E+04 -2.51237E+04 -4.03484E+04
  7.76884E+03 -4.03246E+04  3.32469E+04 -1.60130E+04  3.12015E+04  1.10453E+04  4.55268E+03  2.00230E+04
 -1.38693E+04  9.19678E+03 -1.13227E+04 -7.51467E+03  5.75546E+03 -1.09960E+04  1.87838E+04  5.78879E+03
  1.43510E+04  2.26199E+04 -5.39363E+03  2.66139E+04 -2.30444E+04  1.30687E+04 -2.99807E+04 -3.87978E+03
 -2.35766E+04 -1.80182E+04 -1.03180E+04 -2.33476E+04  4.25678E+03 -2.31975E+04  1.82782E+04 -2.09707E+04
  2.95454E+04 -1.40056E+04  3.55880E+04  4.03826E+03  2.56117E+04  2.28762E+04  4.54797E+03  3.94717E+04
 -1.87762E+04  3.26380E+04 -2.99154E+04  1.12859E+04 -2.19052E+04 -1.02859E+04 -4.51585E+03 -1.30772E+04
  1.03950E+03 -1.55668E+03 -6.29818E+03  7.66452E+03 -1.88432E+04  4.98600E+03 -1.85173E+04 -8.62903E+03
 -1.08142E+04 -2.13536E+04  5.59742E+03 -2.61407E+04  1.71587E+04 -1.85261E+04  2.08386E+04 -1.73725E+03
  1.31964E+04  1.46866E+04 -8.84145E+02  2.18504E+04 -1.54349E+04  1.25363E+04 -2.16101E+04 -4.69161E+03
 -1.55787E+04 -1.97033E+04 -1.86012E+03 -2.64620E+04  1.16892E+04 -2.16686E+04  2.17333E+04 -1.09464E+04
  2.07196E+04 -2.69312E+02  1.49200E+04  5.16600E+03  7.85463E+03  1.13945E+03  1.12849E+04 -1.99317E+03
  2.02368E+04  2.88442E+03  2.30983E+04  1.69723E+04  1.56682E+04  3.46984E+04 -2.85026E+03  4.03932E+04
 -2.32691E+04  3.30880E+04 -3.78311E+04  1.68700E+04 -4.01463E+04 -2.68993E+03 -3.33176E+04 -2.34711E+04
 -1.31535E+04 -3.38846E+04  1.18367E+04 -2.95072E+04  2.57225E+04 -1.41747E+04  2.24329E+04  7.07195E+03
  7.98808E+03  1.74201E+04 -1.07319E+04  1.44172E+04 -1.84704E+04  2.34258E+03 -1.43446E+04 -1.13945E+04
 -1.91594E+02 -1.75344E+04  9.27628E+03 -1.32276E+04  1.19408E+04 -1.62199E+03  3.18309E+03  7.88463E+03
 -7.93984E+03  3.52203E+03 -7.77760E+03 -6.63123E+03 -1.23321E+03 -1.65479E+04  1.12468E+04 -1.74513E+04
  2.04605E+04 -9.71753E+03  2.33211E+04  3.51198E+03  2.01904E+04  1.65446E+04  9.50106E+03  2.60583E+04
 -4.99365E+03  2.79607E+04 -1.79467E+04  1.67107E+04 -2.01132E+04  3.54409E+03 -1.40639E+04 -5.01835E+03
 -5.96950E+03 -6.67389E+03 -7.92500E+02  8.26910E+02 -2.46708E+03  2.88448E+03 -6.38371E+03  4.91953E+03
 -1.25885E+04 -1.27499E+03 -1.34982E+04 -1.11813E+04 -5.36199E+03 -1.75380E+04  5.83372E+03 -1.38604E+04
  1.15645E+04 -5.83013E+03  8.04137E+03  3.91336E+03 -7.45511E+01  6.01410E+03 -6.78922E+03 -1.42125E+02
 -6.23492E+03 -9.18349E+03 -1.07514E+03 -1.36649E+04  7.93517E+03 -1.47591E+04  1.77291E+04 -8.07965E+03
  2.10421E+04  2.21676E+03  1.50421E+04  1.27141E+04  2.73957E+03  1.67027E+04 -8.61206E+03  1.40583E+04
 -1.15490E+04  4.42722E+03 -6.05987E+03 -2.95310E+03  1.82487E+03 -3.87388E+03  7.16450E+03 -1.45766E+03
  6.76468E+03  6.02375E+03  9.94284E+02  1.13255E+04 -7.82201E+03  1.02318E+04 -1.39773E+04  2.66322E+03
 -9.54027E+03 -7.08896E+03  1.69147E+02 -1.24266E+04  7.61802E+03 -6.30828E+03  8.13332E+03  2.29184E+03
  1.92206E+03  8.62863E+03 -7.24204E+03  9.88281E+03 -1.15866E+04  4.21665E+03 -1.19527E+04 -4.09974E+03
 -7.00875E+03 -1.36430E+04  3.06266E+03 -1.55587E+04  1.29293E+04 -9.43966E+03  1.46174E+04  2.44328E+03
  8.85608E+03  1.12968E+04 -1.57700E+03  1.39163E+04 -9.56675E+03  7.78650E+03 -1.11006E+04 -9.22697E+02
 -9.46831E+03 -9.34576E+03 -1.74381E+03 -1.02886E+04  5.72883E+03 -8.54897E+03  6.47995E+03 -3.74849E+03
  4.15612E+03  1.63644E+03 -9.92166E+02  1.74796E+03 -2.64117E+02 -2.71283E+03  2.13771E+03 -6.79195E+03
  9.59921E+03 -3.68019E+03  1.36611E+04  1.30685E+03  1.38180E+04  9.27349E+03  8.95766E+03  1.77039E+04
 -4.23616E+03  2.00867E+04 -1.73933E+04  1.52967E+04 -2.21353E+04  3.15236E+03 -1.79751E+04 -7.94776E+03
 -9.06974E+03 -1.47126E+04 -3.72033E+02 -1.22672E+04  4.51934E+03 -6.45349E+03  3.91339E+03 -4.54753E+03
  3.17657E+03 -2.49402E+03  3.29570E+03 -3.53011E+03  5.11375E+03 -3.31203E+03  6.71258E+03 -1.30154E+03
  9.56599E+03  1.91949E+03  4.53594E+03  8.06980E+03 -2.10279E+03  9.43740E+03 -1.02534E+04  7.48856E+03
 -1.25533E+04 -1.37361E+03 -7.25704E+03 -8.68372E+03 -8.73112E+02 -1.33745E+04  7.33201E+03 -1.32193E+04
  1.38232E+04 -7.23662E+03  1.62011E+04  2.05163E+03  1.16001E+04  1.13272E+04  1.87702E+03  1.52044E+04
 -6.18093E+03  1.26090E+04 -8.28832E+03  4.47187E+03 -5.63419E+03 -1.44753E+03 -2.34687E+03 -1.35093E+03
 -1.30466E+03 -3.96415E+02 -1.96683E+03  2.42120E+03 -5.41092E+03  2.04509E+03 -8.18792E+03 -9.42704E+02
 -6.11155E+03 -8.75685E+03  2.74477E+02 -1.23458E+04  7.88370E+03 -1.18896E+04  1.20982E+04 -3.49916E+03
  1.23066E+04  6.30632E+03  5.38821E+03  1.11701E+04 -2.45627E+03  1.22682E+04 -8.66204E+03  7.58321E+03
 -1.14903E+04  3.66978E+02 -9.25846E+03 -7.38918E+03 -1.27848E+03 -1.04612E+04  4.98524E+03 -7.43363E+03
  8.19668E+03 -2.32615E+03  5.37292E+03  1.87635E+03  2.21121E+03  3.34590E+03  1.30672E+03  1.82460E+03
  2.43197E+03  1.13729E+03  2.90610E+03  1.19189E+03  4.10096E+03  4.35878E+03  3.17898E+03  6.25467E+03
 -2.43896E+03  9.62851E+03 -8.32356E+03  9.99421E+03 -1.27269E+04  2.73180E+03 -1.29284E+04 -4.95792E+03
 -5.70271E+03 -1.25791E+04  2.23122E+03 -1.36772E+04  7.50552E+03 -8.52184E+03  1.02550E+04 -2.31361E+03
  7.76434E+03  4.59006E+03  1.52697E+03  7.12098E+03 -3.44072E+03  4.67113E+03 -4.87971E+03 -9.46553E+02
 -2.13855E+03 -5.31286E+03  2.90667E+03 -5.53330E+03  5.15572E+03 -2.47656E+03  5.07250E+03  1.04872E+03
  3.18752E+03  2.43974E+03  1.10868E+03  2.13534E+03 -1.14890E+03  1.86236E+03  1.36083E+03 -6.27276E+02
  1.95312E+03 -5.68559E+02  5.19794E+03  2.14975E+03  2.81571E+03  6.53074E+03 -1.46400E+03  9.04323E+03
 -5.80001E+03  5.45169E+03 -8.05785E+03  1.41749E+03 -7.05447E+03 -2.85530E+03 -2.51085E+03 -4.75949E+03
  6.56117E+02 -4.81075E+03  3.23805E+03 -2.34116E+03  2.79462E+03  2.44084E+03 -8.80151E+02  4.14340E+03
 -5.19218E+03  2.23401E+03 -5.54592E+03 -3.00638E+03 -3.14788E+03 -7.13673E+03  1.02782E+03 -6.36840E+03
  3.82177E+03 -4.13243E+03  4.37179E+03 -4.67216E+02  4.46343E+03  1.82190E+03  4.62077E+02  3.56901E+03
 -2.54475E+03  1.31695E+03 -2.69177E+03 -2.41392E+03  1.49181E+03 -5.28065E+03  6.20675E+03 -4.37196E+03
  7.69318E+03  5.11708E+02  7.58196E+03  5.20362E+03  2.52834E+03  7.98401E+03 -2.81873E+03  7.31466E+03
 -6.47751E+03  3.42417E+03 -6.73746E+03 -1.09825E+03 -3.71964E+03 -5.07527E+03  1.56984E+03 -4.49948E+03
  4.76721E+03 -2.73660E+03  4.16939E+03  2.45786E+03  1.29543E+03  4.57609E+03 -5.49339E+02  4.06233E+03
 -2.07744E+03  2.51208E+03 -1.96481E+03  9.94419E+02 -6.14224E+02  6.67126E+02 -1.45688E+03  1.63810E+03
 -2.12606E+03  3.10938E+03 -5.36296E+03  2.38764E+03 -7.82811E+03 -7.74924E+01 -8.80608E+03 -5.50602E+03
 -4.76992E+03 -1.03490E+04  2.28923E+03 -1.20641E+04  7.65810E+03 -9.80917E+03  1.18807E+04 -3.79990E+03
  1.04694E+04  2.50440E+03  6.73438E+03  7.27049E+03  5.29255E+02  8.30654E+03 -3.69033E+03  6.10751E+03
 -4.31481E+03  2.70140E+03 -3.26152E+03 -5.99845E+02 -1.40577E+03 -5.96363E+02 -2.28370E+02  2.00165E+02
 -1.54859E+03  1.02130E+02 -2.04768E+03 -1.63125E+02 -4.53017E+02 -2.09904E+03 -1.56833E+02 -3.15922E+03
  3.62525E+03 -2.64904E+03  4.72321E+03 -1.24650E+02  5.61688E+03  4.50496E+03  1.35596E+03  8.15527E+03
 -3.67853E+03  9.15446E+03 -8.61931E+03  5.34188E+03 -1.03247E+04 -7.90572E+02 -7.14080E+03 -6.43510E+03
 -3.45637E+03 -8.34680E+03  1.90606E+03 -7.74879E+03  5.38660E+03 -4.22401E+03  5.21517E+03  9.12430E+01
  3.17526E+03  2.63277E+03 -1.54059E+02  2.54829E+03 -1.65396E+03 -2.89713E+02  6.18664E+00 -1.90996E+03
  2.44267E+03 -1.16867E+03  3.37774E+03  1.30333E+03  2.03576E+03  2.99908E+03  4.12000E+01  4.20547E+03
 -3.74382E+03  3.78871E+03 -5.43040E+03  1.71144E+02 -5.12920E+03 -3.70174E+03 -2.27737E+02 -6.73205E+03
  3.88647E+03 -5.71477E+03  6.21249E+03 -1.60178E+03  5.99413E+03  9.42725E+02  3.77148E+03  5.22524E+03
  8.17096E+02  5.41734E+03 -1.59820E+03  4.55197E+03 -3.38117E+03  2.88207E+03 -2.51590E+03  1.74203E+02
 -1.54830E+03 -6.57816E+00 -1.42895E+03  9.10033E+02 -2.75671E+03  8.46046E+02 -4.06206E+03 -9.71137E+02
 -4.11538E+03 -2.58555E+03 -1.20664E+03 -5.69905E+03  2.48703E+03 -6.02405E+03  4.96829E+03 -2.74201E+03
  5.33184E+03  6.19013E+02  2.76875E+03  3.87716E+03 -2.69623E+02  5.51007E+03 -4.05137E+03  3.37306E+03
