 $NMID ID='MM_0lb_SNR800_14hz_g55_13.RAW', FMTDAT='(8E13.5)'
 TRAMP=1., VOLUME=1. $END
  3.09516E+05  6.02848E+02  3.37771E+05  2.50590E+05  8.45520E+04  3.37927E+05 -1.32857E+05  2.51629E+05
 -1.90434E+05  8.35949E+04 -1.12084E+05 -3.22709E+04  6.53007E+02 -5.06813E+04  5.39219E+04 -5.08520E+02
  3.54316E+04  5.28093E+04 -1.66025E+04  7.57280E+04 -6.07511E+04  6.37891E+04 -8.41981E+04  3.21874E+04
 -8.14199E+04 -1.12649E+04 -5.72391E+04 -5.18183E+04 -1.50012E+04 -6.99839E+04  2.74978E+04 -4.59168E+04
  4.01349E+04  3.68665E+03  1.64531E+04  4.78944E+04 -3.47017E+04  4.76368E+04 -6.68395E+04 -1.23028E+01
 -5.37737E+04 -5.70770E+04 -7.13720E+03 -7.72288E+04  3.40025E+04 -5.53096E+04  4.84795E+04 -1.78030E+04
  4.38429E+04  1.12401E+04  3.17940E+04  2.57634E+04  1.56084E+04  2.95551E+04 -4.83328E+03  2.74240E+04
 -2.24246E+04  1.21711E+04 -1.88615E+04 -4.81900E+03  5.79917E+03 -7.63648E+03  2.25771E+04  1.25211E+04
  7.09969E+03  3.57312E+04 -3.22140E+04  3.56549E+04 -6.37279E+04  2.16214E+03 -5.74617E+04 -4.31741E+04
 -1.24329E+04 -6.36366E+04  4.01562E+04 -4.56982E+04  5.89211E+04 -2.32231E+03  3.47575E+04  3.26012E+04
 -5.90286E+03  3.69808E+04 -3.04665E+04  1.63747E+04 -3.09481E+04 -4.39830E+03 -1.72162E+04 -1.14329E+04
 -8.56509E+03 -1.38001E+04 -5.85080E+02 -1.86142E+04  7.60683E+03 -2.29753E+04  1.57110E+04 -1.34749E+04
  1.13019E+04  5.07282E+03 -8.63795E+03  1.28739E+04 -2.19443E+04 -5.03964E+03 -8.32812E+03 -3.46461E+04
  2.29461E+04 -4.39584E+04  4.84718E+04 -2.00077E+04  4.58104E+04  1.97695E+04  1.59415E+04  4.46159E+04
 -1.59439E+04  3.39214E+04 -2.58277E+04  1.96976E+03 -9.84713E+03 -2.81026E+04  2.09819E+04 -3.44281E+04
  4.17903E+04 -9.56780E+03  3.67247E+04  2.40468E+04  1.89181E+04  4.72434E+04 -8.13689E+03  5.13150E+04
 -3.23590E+04  3.47661E+04 -4.30322E+04  9.77597E+03 -4.31523E+04 -1.71578E+04 -2.38297E+04 -3.85799E+04
  7.50890E+03 -3.84902E+04  3.15919E+04 -1.46902E+04  2.98546E+04  1.10843E+04  4.19615E+03  1.95677E+04
 -1.36299E+04  8.47915E+03 -1.04403E+04 -7.77412E+03  6.28311E+03 -1.06456E+04  1.82704E+04  6.19068E+03
  1.32522E+04  2.20619E+04 -6.00254E+03  2.56020E+04 -2.24261E+04  1.20897E+04 -2.84045E+04 -4.32193E+03
 -2.17044E+04 -1.77533E+04 -9.06494E+03 -2.10692E+04  3.89123E+03 -2.06275E+04  1.66368E+04 -1.86263E+04
  2.69193E+04 -1.30200E+04  3.36350E+04  3.11944E+03  2.43708E+04  2.07311E+04  4.52809E+03  3.72211E+04
 -1.79088E+04  3.08443E+04 -2.85210E+04  1.07882E+04 -2.12044E+04 -1.03786E+04 -4.47939E+03 -1.33928E+04
  1.39198E+03 -2.34291E+03 -5.44574E+03  6.87688E+03 -1.68761E+04  5.22985E+03 -1.68044E+04 -7.05674E+03
 -1.01665E+04 -1.96500E+04  5.35159E+03 -2.35488E+04  1.57072E+04 -1.69830E+04  1.83391E+04 -1.95865E+03
  1.19544E+04  1.38429E+04 -1.12391E+03  1.95972E+04 -1.34331E+04  1.16107E+04 -1.99047E+04 -4.27531E+03
 -1.45489E+04 -1.74013E+04 -1.79850E+03 -2.38093E+04  1.10860E+04 -1.92074E+04  1.98474E+04 -1.00904E+04
  1.85440E+04  1.81366E+02  1.30296E+04  4.54604E+03  7.27883E+03  8.28961E+02  9.75910E+03 -1.48362E+03
  1.80301E+04  2.74596E+03  2.01833E+04  1.53713E+04  1.33395E+04  3.13518E+04 -3.25574E+03  3.56715E+04
 -2.05206E+04  2.85819E+04 -3.32117E+04  1.44123E+04 -3.50194E+04 -2.70493E+03 -2.87010E+04 -2.02224E+04
 -1.19822E+04 -2.90121E+04  9.85036E+03 -2.55600E+04  2.21251E+04 -1.28893E+04  1.97600E+04  5.60985E+03
  7.29317E+03  1.49896E+04 -9.25221E+03  1.27357E+04 -1.65728E+04  2.44945E+03 -1.27206E+04 -1.04129E+04
 -2.38085E+02 -1.56163E+04  8.19314E+03 -1.19441E+04  1.04376E+04 -1.30336E+03  2.39608E+03  6.69535E+03
 -7.26351E+03  2.69924E+03 -6.09853E+03 -5.61378E+03 -4.33569E+02 -1.39331E+04  1.00532E+04 -1.48044E+04
  1.72958E+04 -8.05163E+03  1.86652E+04  2.72384E+03  1.65935E+04  1.39796E+04  7.70142E+03  2.15995E+04
 -3.66516E+03  2.29607E+04 -1.45535E+04  1.45532E+04 -1.65703E+04  3.63801E+03 -1.15402E+04 -3.88260E+03
 -5.50787E+03 -5.20148E+03 -7.36405E+02  9.79012E+02 -2.36531E+03  2.40895E+03 -5.72243E+03  4.57458E+03
 -1.12199E+04 -1.11958E+03 -1.16577E+04 -9.19494E+03 -4.56969E+03 -1.50634E+04  5.33014E+03 -1.18283E+04
  9.87025E+03 -4.93547E+03  7.18500E+03  3.12273E+03  2.28893E+02  4.62948E+03 -5.53056E+03  7.50295E+01
 -5.03029E+03 -7.53092E+03 -9.91951E+02 -1.12299E+04  6.14972E+03 -1.18642E+04  1.45118E+04 -6.23802E+03
  1.73919E+04  1.29800E+03  1.25350E+04  9.75068E+03  2.19715E+03  1.35379E+04 -7.33379E+03  1.16016E+04
 -9.27459E+03  3.26126E+03 -5.10506E+03 -2.09997E+03  1.71150E+03 -3.29860E+03  6.64035E+03 -1.08192E+03
  5.56919E+03  5.13147E+03  9.51353E+02  9.03479E+03 -6.43809E+03  8.79009E+03 -1.14881E+04  2.48253E+03
 -7.68584E+03 -5.77447E+03  2.35052E+02 -9.87873E+03  5.71289E+03 -5.02375E+03  6.14921E+03  2.06496E+03
  1.36274E+03  6.29034E+03 -5.39443E+03  7.78266E+03 -8.86429E+03  3.50868E+03 -8.74526E+03 -3.03422E+03
 -5.26776E+03 -1.03134E+04  2.47856E+03 -1.20546E+04  1.00725E+04 -7.00687E+03  1.08759E+04  1.72349E+03
  7.23646E+03  8.74679E+03 -4.37019E+02  1.10999E+04 -7.54316E+03  5.88069E+03 -8.56794E+03 -7.60994E+02
 -7.92401E+03 -7.54396E+03 -1.42837E+03 -7.80966E+03  3.99550E+03 -6.94811E+03  4.79088E+03 -3.09649E+03
  3.69919E+03  7.93475E+02 -1.32504E+02  1.35092E+03  3.00259E+02 -1.58372E+03  1.23781E+03 -4.10969E+03
  6.73660E+03 -2.06914E+03  9.52563E+03  1.43414E+03  9.82700E+03  6.32243E+03  6.92792E+03  1.30968E+04
 -2.78649E+03  1.48787E+04 -1.29447E+04  1.12111E+04 -1.66902E+04  2.21401E+03 -1.33457E+04 -5.46839E+03
 -6.93572E+03 -1.08474E+04 -4.66455E+02 -8.93802E+03  3.23648E+03 -5.04691E+03  3.10718E+03 -3.68239E+03
  2.25767E+03 -2.17154E+03  3.30491E+03 -3.05828E+03  4.46367E+03 -1.77061E+03  5.33617E+03 -9.08805E+01
  6.97616E+03  1.86208E+03  3.04339E+03  5.77750E+03 -1.75777E+03  6.13414E+03 -7.13309E+03  5.14550E+03
 -8.65715E+03 -9.57599E+02 -4.77511E+03 -6.06086E+03 -4.31088E+02 -9.09241E+03  5.53818E+03 -9.32621E+03
  9.37998E+03 -5.57048E+03  1.18676E+04  1.30046E+03  8.20132E+03  7.78831E+03  1.22210E+03  1.05430E+04
 -4.18896E+03  9.19433E+03 -6.54265E+03  3.25155E+03 -3.88263E+03 -1.46003E+03 -1.53357E+03 -1.31412E+03
 -9.91902E+02  3.63594E+01 -1.33785E+03  2.35578E+03 -3.89478E+03  1.57781E+03 -6.45222E+03 -6.63560E+02
 -3.76468E+03 -6.48856E+03  2.66788E+02 -8.77049E+03  5.22287E+03 -7.96867E+03  8.01500E+03 -2.35158E+03
  8.09334E+03  4.23241E+03  3.73657E+03  7.19165E+03 -1.58047E+03  8.55675E+03 -5.60967E+03  5.52048E+03
 -7.66460E+03  5.67553E+02 -6.10236E+03 -5.17546E+03 -6.59337E+02 -6.55481E+03  3.74654E+03 -4.95074E+03
  5.29824E+03 -2.05990E+03  3.55516E+03  1.31315E+03  1.20905E+03  2.85573E+03  9.42519E+02  1.05089E+03
  1.80842E+03  6.62907E+02  2.18916E+03  1.37919E+03  2.22791E+03  3.47162E+03  2.50626E+03  4.13188E+03
 -1.64325E+03  6.16439E+03 -5.33868E+03  6.76540E+03 -7.62785E+03  2.15141E+03 -8.51782E+03 -2.65594E+03
 -3.77765E+03 -7.78282E+03  1.01017E+03 -9.02980E+03  4.56904E+03 -5.56339E+03  6.45475E+03 -1.34482E+03
  5.24401E+03  3.21595E+03  7.04299E+02  4.77738E+03 -2.17554E+03  2.85595E+03 -2.80242E+03 -3.72066E+02
 -1.71270E+03 -3.59241E+03  2.05156E+03 -2.99133E+03  3.29905E+03 -2.06344E+03  3.06140E+03  1.01509E+03
  1.81254E+03  1.27802E+03  1.03799E+03  7.16660E+02 -7.81356E+02  1.25050E+03  1.69701E+03 -4.36677E+02
  7.87497E+02 -2.72814E+02  3.29129E+03  1.20447E+03  1.12029E+03  4.25581E+03 -5.81423E+02  5.43355E+03
 -3.80383E+03  3.16753E+03 -4.60313E+03  7.97041E+02 -4.26106E+03 -1.77131E+03 -1.16221E+03 -2.48717E+03
  6.72244E+02 -2.71097E+03  1.94895E+03 -1.42324E+03  1.80366E+03  1.86264E+03 -7.57452E+02  2.63027E+03
 -3.21137E+03  1.36485E+03 -3.45530E+03 -2.05812E+03 -1.70998E+03 -4.39470E+03  6.40186E+02 -3.86860E+03
  2.19558E+03 -1.84933E+03  2.60968E+03 -4.22544E+02  2.75271E+03  2.86913E+02  4.33853E+02  2.30864E+03
 -1.15395E+03  6.44354E+02 -1.92031E+03 -9.90677E+02  5.03285E+02 -2.62263E+03  3.64654E+03 -2.40547E+03
  4.19903E+03  6.84609E+02  4.89958E+03  2.49958E+03  1.79133E+03  4.29062E+03 -1.30884E+03  3.99379E+03
 -3.37016E+03  1.48500E+03 -3.72622E+03 -4.73742E+02 -2.09359E+03 -2.83465E+03  9.50667E+02 -2.19099E+03
  3.25990E+03 -1.45075E+03  2.18233E+03  1.14843E+03  4.46388E+02  2.76067E+03 -1.49847E+02  2.48142E+03
 -7.17316E+02  1.83645E+03 -1.10322E+03  6.11313E+02 -4.05241E+02  4.45347E+02 -1.00829E+03  1.17616E+03
 -1.09929E+03  1.92387E+03 -3.30592E+03  1.26476E+03 -4.02192E+03  2.95003E+02 -4.92168E+03 -2.39646E+03
 -2.89266E+03 -5.61528E+03  1.46069E+03 -6.65961E+03  3.72045E+03 -5.46386E+03  6.34700E+03 -1.93823E+03
  5.71004E+03  5.80583E+02  3.34401E+03  3.57097E+03 -3.79106E+02  4.33901E+03 -1.75238E+03  2.96940E+03
 -2.64649E+03  1.33909E+03 -1.17249E+03 -3.55172E+02 -7.46542E+02 -3.02349E+02 -7.48898E+02  1.58795E+02
 -1.25551E+03 -1.00971E+02 -1.55380E+03 -1.26481E+02  1.56909E+02 -1.04657E+03 -2.70804E+02 -1.57876E+03
  2.11378E+03 -1.50824E+03  2.15147E+03  4.60914E+01  2.91569E+03  2.51720E+03  4.24419E+02  4.05282E+03
 -1.84300E+03  5.01603E+03 -4.25880E+03  2.70157E+03 -4.84240E+03 -5.49685E+02 -3.37908E+03 -3.07891E+03
 -1.82940E+03 -3.69046E+03  1.22840E+03 -3.90155E+03  2.39086E+03 -1.68994E+03  2.58626E+03  1.61005E+01
  1.54837E+03  1.12765E+03  6.65385E+01  9.91388E+02 -6.88399E+02 -2.70813E+02 -1.11249E+02 -6.58946E+02
  1.33901E+03 -4.38148E+02  1.46878E+03  7.61491E+02  9.09992E+02  1.66650E+03  4.82998E+01  1.74231E+03
 -1.36895E+03  2.03327E+03 -2.27548E+03  1.28150E+02 -2.90280E+03 -2.00946E+03 -6.97730E+01 -3.03937E+03
  1.56169E+03 -2.35092E+03  2.30389E+03 -6.43210E+02  2.91421E+03  4.21591E+02  1.26626E+03  2.17978E+03
  6.62500E+02  2.15308E+03 -8.51644E+02  1.89492E+03 -1.67738E+03  1.30046E+03 -1.27445E+03  3.22012E+02
 -6.68157E+02 -9.46370E+01 -9.90791E+02  5.82824E+02 -1.15476E+03  5.68741E+02 -1.56450E+03 -6.15529E+02
 -2.09214E+03 -9.04583E+02 -7.09358E+02 -2.71464E+03  1.01931E+03 -3.11538E+03  2.42264E+03 -7.97945E+02
  2.02525E+03 -1.04685E+00  9.03558E+02  1.64231E+03 -9.80284E+01  2.36465E+03 -1.28956E+03  1.91684E+03
