 $NMID ID='MM_0lb_SNR800_13hz_g60_100.RAW', FMTDAT='(8E13.5)'
 TRAMP=1., VOLUME=1. $END
  3.10183E+05  4.49059E+02  3.38082E+05  2.50884E+05  8.50797E+04  3.38419E+05 -1.32415E+05  2.51465E+05
 -1.90638E+05  8.34386E+04 -1.12197E+05 -3.25079E+04  7.21538E+02 -5.06317E+04  5.40073E+04 -2.98355E+02
  3.56422E+04  5.31052E+04 -1.66879E+04  7.54642E+04 -6.11896E+04  6.43595E+04 -8.47763E+04  3.22716E+04
 -8.18932E+04 -1.16220E+04 -5.78567E+04 -5.19623E+04 -1.50796E+04 -7.03824E+04  2.79026E+04 -4.60127E+04
  4.07097E+04  3.55163E+03  1.62359E+04  4.82686E+04 -3.44949E+04  4.77647E+04 -6.75489E+04 -3.51636E+02
 -5.43473E+04 -5.72962E+04 -6.99222E+03 -7.81144E+04  3.43816E+04 -5.59415E+04  4.89519E+04 -1.74661E+04
  4.44730E+04  1.12984E+04  3.26508E+04  2.57930E+04  1.64615E+04  3.02520E+04 -5.61638E+03  2.74728E+04
 -2.20813E+04  1.21550E+04 -1.84025E+04 -5.45572E+03  6.70548E+03 -7.67348E+03  2.33984E+04  1.27953E+04
  7.09104E+03  3.64793E+04 -3.29969E+04  3.67909E+04 -6.48208E+04  2.15468E+03 -5.81513E+04 -4.38289E+04
 -1.25579E+04 -6.46848E+04  4.07357E+04 -4.63947E+04  5.97990E+04 -2.42768E+03  3.56419E+04  3.34706E+04
 -5.80500E+03  3.79353E+04 -3.08698E+04  1.73458E+04 -3.21481E+04 -3.86124E+03 -1.85154E+04 -1.12694E+04
 -8.97640E+03 -1.41997E+04 -5.33957E+02 -1.92969E+04  8.23812E+03 -2.30754E+04  1.59029E+04 -1.30195E+04
  1.08671E+04  5.55700E+03 -9.37792E+03  1.28264E+04 -2.23653E+04 -5.40347E+03 -8.15000E+03 -3.57519E+04
  2.39290E+04 -4.52784E+04  4.99686E+04 -2.04164E+04  4.69028E+04  2.02499E+04  1.65582E+04  4.58371E+04
 -1.61780E+04  3.47145E+04 -2.63465E+04  2.22778E+03 -1.09718E+04 -2.86223E+04  2.17371E+04 -3.57228E+04
  4.29240E+04 -1.00226E+04  3.79023E+04  2.44933E+04  1.97826E+04  4.89434E+04 -7.84632E+03  5.32372E+04
 -3.35957E+04  3.61178E+04 -4.45252E+04  1.04646E+04 -4.52174E+04 -1.74885E+04 -2.48363E+04 -3.98540E+04
  7.73708E+03 -3.98630E+04  3.27375E+04 -1.59559E+04  3.05717E+04  1.11372E+04  4.59934E+03  1.98497E+04
 -1.37193E+04  9.32869E+03 -1.08246E+04 -7.83021E+03  5.79624E+03 -1.10383E+04  1.85833E+04  5.90563E+03
  1.42468E+04  2.23528E+04 -5.58039E+03  2.64963E+04 -2.25223E+04  1.30863E+04 -2.97718E+04 -4.21157E+03
 -2.29130E+04 -1.77122E+04 -9.92829E+03 -2.25453E+04  4.05847E+03 -2.24013E+04  1.79848E+04 -2.07101E+04
  2.90715E+04 -1.36187E+04  3.53687E+04  4.37767E+03  2.57208E+04  2.21946E+04  4.41671E+03  3.86433E+04
 -1.86689E+04  3.19458E+04 -2.91799E+04  1.12313E+04 -2.15354E+04 -1.02767E+04 -4.72993E+03 -1.36879E+04
  1.03044E+03 -2.13372E+03 -6.18278E+03  7.31320E+03 -1.81131E+04  5.06928E+03 -1.81618E+04 -8.38302E+03
 -1.08812E+04 -2.11153E+04  5.67088E+03 -2.55219E+04  1.70771E+04 -1.80575E+04  2.00402E+04 -1.78867E+03
  1.27681E+04  1.42944E+04 -1.01683E+03  2.11276E+04 -1.50896E+04  1.18832E+04 -2.11178E+04 -4.48634E+03
 -1.53384E+04 -1.91998E+04 -1.65584E+03 -2.50715E+04  1.15444E+04 -2.10054E+04  2.10043E+04 -1.03922E+04
  1.98630E+04 -3.04995E+01  1.39598E+04  5.20115E+03  7.69841E+03  1.26508E+03  1.07157E+04 -1.80547E+03
  1.95233E+04  2.88940E+03  2.22603E+04  1.68164E+04  1.47475E+04  3.33582E+04 -2.68681E+03  3.88255E+04
 -2.20649E+04  3.17976E+04 -3.59028E+04  1.60780E+04 -3.82605E+04 -2.67715E+03 -3.14014E+04 -2.21559E+04
 -1.27802E+04 -3.21427E+04  1.11181E+04 -2.80090E+04  2.43007E+04 -1.36002E+04  2.09929E+04  6.43873E+03
  8.06972E+03  1.63836E+04 -9.93955E+03  1.38064E+04 -1.80235E+04  2.75174E+03 -1.36767E+04 -1.12011E+04
 -2.62453E+02 -1.72471E+04  9.07985E+03 -1.22175E+04  1.14567E+04 -1.01499E+03  2.85837E+03  7.31708E+03
 -8.01783E+03  2.87282E+03 -7.24735E+03 -5.94250E+03 -6.58464E+02 -1.54419E+04  1.06655E+04 -1.63065E+04
  1.91810E+04 -8.94240E+03  2.11907E+04  3.30357E+03  1.82709E+04  1.53123E+04  8.37720E+03  2.38905E+04
 -4.23646E+03  2.58491E+04 -1.65807E+04  1.63224E+04 -1.85197E+04  3.52197E+03 -1.28096E+04 -4.25657E+03
 -5.77815E+03 -5.91387E+03 -6.70005E+02  7.27657E+02 -2.47108E+03  3.29554E+03 -6.25185E+03  4.44575E+03
 -1.20954E+04 -5.67971E+02 -1.27420E+04 -1.04123E+04 -5.19572E+03 -1.65914E+04  5.12312E+03 -1.30279E+04
  1.10431E+04 -5.67090E+03  7.90874E+03  3.29752E+03 -2.22384E+01  5.40005E+03 -6.26683E+03 -6.94846E+01
 -6.10298E+03 -8.10435E+03 -1.36870E+03 -1.22848E+04  7.47883E+03 -1.30230E+04  1.61627E+04 -6.39797E+03
  1.88997E+04  1.70019E+03  1.38806E+04  1.12056E+04  2.36693E+03  1.49652E+04 -7.78859E+03  1.28224E+04
 -1.07172E+04  3.79908E+03 -5.16772E+03 -2.75383E+03  1.93368E+03 -3.53352E+03  6.71987E+03 -1.18937E+03
  6.01475E+03  5.40791E+03  1.40784E+03  1.04280E+04 -7.41028E+03  9.79699E+03 -1.24485E+04  2.25199E+03
 -8.26785E+03 -6.25305E+03  1.37463E+02 -1.07333E+04  6.66149E+03 -5.45647E+03  7.36154E+03  2.50631E+03
  1.65938E+03  7.27999E+03 -6.37882E+03  8.77600E+03 -1.00379E+04  4.39649E+03 -1.04580E+04 -3.68121E+03
 -5.74362E+03 -1.18981E+04  2.98903E+03 -1.36640E+04  1.14463E+04 -8.37811E+03  1.26366E+04  1.77542E+03
  7.95812E+03  9.89384E+03 -9.80135E+02  1.22070E+04 -8.96156E+03  6.78933E+03 -1.00427E+04 -1.01536E+03
 -8.64472E+03 -8.17716E+03 -1.93041E+03 -9.03419E+03  4.69266E+03 -7.68743E+03  5.64258E+03 -3.27259E+03
  4.07236E+03  1.24137E+03 -5.57845E+02  1.86526E+03  4.02682E+02 -2.17285E+03  2.01427E+03 -5.17393E+03
  8.15377E+03 -3.14727E+03  1.14971E+04  1.32420E+03  1.16293E+04  7.44979E+03  7.89111E+03  1.50044E+04
 -3.52611E+03  1.73666E+04 -1.49837E+04  1.33601E+04 -1.91744E+04  2.43950E+03 -1.50553E+04 -6.32608E+03
 -7.55842E+03 -1.26508E+04 -4.21651E+02 -1.04867E+04  3.95677E+03 -5.53527E+03  3.61484E+03 -3.78951E+03
  3.12592E+03 -2.72382E+03  3.06575E+03 -3.38243E+03  4.85536E+03 -2.66028E+03  6.03048E+03 -7.30338E+02
  7.84402E+03  1.97752E+03  3.61765E+03  6.23479E+03 -1.80145E+03  7.46661E+03 -7.93684E+03  5.98312E+03
 -1.05731E+04 -9.95793E+02 -6.04402E+03 -7.14284E+03 -3.15206E+02 -1.09610E+04  6.29999E+03 -1.11388E+04
  1.12396E+04 -6.06224E+03  1.37899E+04  1.52370E+03  9.59680E+03  9.48380E+03  1.32146E+03  1.26888E+04
 -5.10335E+03  1.04583E+04 -7.17255E+03  3.43083E+03 -4.75872E+03 -1.58465E+03 -1.93250E+03 -1.39192E+03
 -1.19257E+03 -1.34974E+01 -1.74580E+03  2.56688E+03 -4.54851E+03  1.74748E+03 -7.37382E+03 -1.20735E+03
 -4.81038E+03 -7.36439E+03  2.00347E+02 -9.90230E+03  6.08727E+03 -9.46348E+03  9.47667E+03 -2.90133E+03
  9.28165E+03  4.71641E+03  4.49883E+03  8.71414E+03 -1.97296E+03  9.86810E+03 -6.73912E+03  6.11757E+03
 -9.21628E+03  4.34786E+02 -7.29651E+03 -5.79781E+03 -7.36045E+02 -7.91020E+03  4.46886E+03 -6.09586E+03
  6.19068E+03 -2.39353E+03  3.94064E+03  1.79778E+03  1.15227E+03  2.80022E+03  1.00826E+03  1.26313E+03
  2.22726E+03  9.32196E+02  2.61533E+03  2.17675E+03  2.73032E+03  3.62637E+03  2.57226E+03  5.22134E+03
 -2.13275E+03  7.61474E+03 -6.71138E+03  7.95256E+03 -9.36794E+03  2.18707E+03 -1.05350E+04 -3.69020E+03
 -5.04447E+03 -9.33540E+03  1.54639E+03 -1.09882E+04  5.47136E+03 -6.44619E+03  7.48681E+03 -1.72555E+03
  5.99612E+03  3.70843E+03  1.44046E+03  5.23920E+03 -2.14460E+03  3.04958E+03 -3.38873E+03 -7.18171E+02
 -1.68547E+03 -4.05806E+03  2.24819E+03 -3.95270E+03  3.68467E+03 -2.15003E+03  3.58952E+03  1.07723E+03
  2.05430E+03  1.53093E+03  1.09353E+03  9.01910E+02 -7.12115E+02  1.32523E+03  1.60718E+03 -3.81815E+02
  1.17891E+03 -5.14911E+02  3.58895E+03  1.62400E+03  1.96546E+03  5.41457E+03 -8.89734E+02  6.76318E+03
 -4.37586E+03  4.07759E+03 -5.67290E+03  8.60688E+02 -5.17844E+03 -2.13173E+03 -1.56224E+03 -3.18238E+03
  6.62582E+02 -3.41134E+03  2.32464E+03 -1.71066E+03  1.71241E+03  2.21287E+03 -1.10483E+03  2.98012E+03
 -3.65773E+03  1.76577E+03 -3.70555E+03 -2.30208E+03 -2.37649E+03 -5.31942E+03  7.32277E+02 -4.77725E+03
  2.36733E+03 -2.80502E+03  3.43472E+03 -1.06214E+02  3.27181E+03  9.82782E+02  5.46144E+02  2.82087E+03
 -1.47014E+03  9.35949E+02 -2.06784E+03 -1.65344E+03  1.11091E+03 -3.40597E+03  4.33587E+03 -3.41767E+03
  5.14724E+03  3.88221E+02  5.88114E+03  3.11116E+03  1.92456E+03  5.56460E+03 -1.56665E+03  5.29061E+03
 -4.56542E+03  2.23753E+03 -5.02893E+03 -8.57554E+02 -2.69312E+03 -3.32810E+03  4.29131E+02 -3.20441E+03
  3.37315E+03 -1.87240E+03  2.34135E+03  1.21036E+03  9.23474E+02  3.35918E+03 -7.17403E+01  2.85330E+03
 -1.08988E+03  1.80048E+03 -1.17615E+03  8.27144E+02 -3.56293E+02  7.06820E+02 -1.01885E+03  1.43039E+03
 -1.52885E+03  2.37137E+03 -3.80239E+03  1.99713E+03 -5.09813E+03  3.01826E+02 -6.06343E+03 -3.49256E+03
 -3.14756E+03 -7.00405E+03  1.44980E+03 -8.20307E+03  4.83442E+03 -6.44913E+03  7.99937E+03 -2.61956E+03
  7.15641E+03  1.24942E+03  3.85945E+03  4.63662E+03  5.41858E+01  5.61583E+03 -2.17393E+03  4.01794E+03
 -2.98200E+03  1.29654E+03 -1.78763E+03 -8.58888E+02 -1.00247E+03 -2.03003E+02 -5.49868E+02  1.98810E+01
 -1.11285E+03  3.46803E+02 -1.55559E+03 -1.29752E+02  4.48760E+01 -1.30281E+03 -2.80650E+02 -2.18329E+03
  2.64399E+03 -1.56263E+03  3.00035E+03  2.62257E+02  3.52633E+03  2.85360E+03  7.29016E+02  5.03289E+03
 -2.50515E+03  6.28986E+03 -5.54043E+03  3.63026E+03 -5.91437E+03 -5.90298E+02 -4.36574E+03 -3.80320E+03
 -1.94195E+03 -5.28438E+03  1.09189E+03 -4.46981E+03  3.01896E+03 -2.72115E+03  3.00934E+03  2.81511E+02
  2.23104E+03  1.51083E+03 -4.70478E+02  1.09775E+03 -7.90164E+02  1.78415E+02 -2.48092E+02 -9.31639E+02
  1.46751E+03 -3.64673E+02  1.75577E+03  7.70288E+02  1.15609E+03  1.84464E+03  4.31574E+00  2.28496E+03
 -2.12099E+03  2.32805E+03 -3.21046E+03  5.07672E+01 -3.22423E+03 -1.83593E+03 -6.71601E+02 -3.60441E+03
  2.07501E+03 -3.35148E+03  3.68973E+03 -7.46558E+02  3.95585E+03  5.38969E+02  2.15296E+03  3.01084E+03
  6.12784E+02  2.60680E+03 -1.22061E+03  2.34935E+03 -1.96533E+03  1.50516E+03 -1.35227E+03  2.05630E+02
 -8.68164E+02  2.59550E+02 -1.06282E+03  3.58693E+02 -1.68472E+03  3.71224E+02 -2.69499E+03 -8.18236E+02
 -2.24070E+03 -1.35303E+03 -8.91297E+02 -3.18741E+03  1.78944E+03 -3.55549E+03  2.96567E+03 -1.63625E+03
  2.73138E+03  3.99902E+02  1.45699E+03  2.06650E+03 -8.57761E+01  3.28812E+03 -2.40090E+03  1.83388E+03
