 $NMID ID='MM_0lb_SNR800_14hz_g40_32.RAW', FMTDAT='(8E13.5)'
 TRAMP=1., VOLUME=1. $END
  3.10111E+05  1.10338E+02  3.37349E+05  2.50489E+05  8.45306E+04  3.37806E+05 -1.32558E+05  2.50675E+05
 -1.90212E+05  8.28789E+04 -1.11515E+05 -3.26106E+04  7.50663E+02 -5.06590E+04  5.39587E+04  1.19685E+02
  3.53097E+04  5.27549E+04 -1.66216E+04  7.51809E+04 -6.06929E+04  6.32098E+04 -8.39057E+04  3.18796E+04
 -8.04510E+04 -1.12112E+04 -5.69044E+04 -5.11987E+04 -1.48661E+04 -6.92440E+04  2.70761E+04 -4.55696E+04
  3.97021E+04  3.98123E+03  1.58498E+04  4.78153E+04 -3.44037E+04  4.70173E+04 -6.63451E+04 -4.92711E+02
 -5.27371E+04 -5.66691E+04 -6.26884E+03 -7.67073E+04  3.36351E+04 -5.47316E+04  4.71449E+04 -1.67002E+04
  4.26928E+04  1.12627E+04  3.15460E+04  2.50498E+04  1.58989E+04  2.91642E+04 -5.24526E+03  2.69506E+04
 -2.21016E+04  1.26059E+04 -1.89538E+04 -4.94457E+03  5.34054E+03 -7.33954E+03  2.20367E+04  1.18150E+04
  7.19850E+03  3.47870E+04 -3.15465E+04  3.50526E+04 -6.26925E+04  2.08107E+03 -5.65216E+04 -4.23353E+04
 -1.22076E+04 -6.27908E+04  3.92365E+04 -4.49070E+04  5.75685E+04 -2.17700E+03  3.37490E+04  3.19109E+04
 -5.91547E+03  3.55106E+04 -2.96503E+04  1.51802E+04 -2.97494E+04 -4.88795E+03 -1.59782E+04 -1.05846E+04
 -8.03804E+03 -1.25825E+04 -5.85619E+02 -1.78850E+04  7.18483E+03 -2.28911E+04  1.53086E+04 -1.34723E+04
  1.14589E+04  4.74530E+03 -7.82459E+03  1.32282E+04 -2.08553E+04 -4.03323E+03 -8.05111E+03 -3.27784E+04
  2.21849E+04 -4.27872E+04  4.72485E+04 -1.95258E+04  4.42587E+04  1.92110E+04  1.53182E+04  4.36228E+04
 -1.60624E+04  3.28822E+04 -2.49286E+04  1.90920E+03 -9.65961E+03 -2.72452E+04  2.06073E+04 -3.33689E+04
  4.06680E+04 -8.74448E+03  3.43614E+04  2.36996E+04  1.73321E+04  4.52805E+04 -7.74129E+03  4.84893E+04
 -3.08982E+04  3.28313E+04 -4.08066E+04  9.40272E+03 -4.17648E+04 -1.65945E+04 -2.31813E+04 -3.73146E+04
  7.09583E+03 -3.71424E+04  3.10618E+04 -1.44185E+04  2.88674E+04  1.12615E+04  3.70704E+03  1.86745E+04
 -1.32353E+04  8.26042E+03 -1.02812E+04 -7.92925E+03  5.86188E+03 -1.05906E+04  1.77850E+04  6.25195E+03
  1.31663E+04  2.19625E+04 -6.21247E+03  2.47760E+04 -2.21119E+04  1.07463E+04 -2.74164E+04 -4.88834E+03
 -2.00688E+04 -1.71178E+04 -7.86668E+03 -1.92791E+04  3.61749E+03 -1.84744E+04  1.50709E+04 -1.72887E+04
  2.51819E+04 -1.25976E+04  3.15411E+04  2.71537E+03  2.34169E+04  1.93454E+04  4.09631E+03  3.56505E+04
 -1.73673E+04  2.99970E+04 -2.77600E+04  1.01785E+04 -2.05537E+04 -1.02515E+04 -4.14524E+03 -1.34925E+04
  2.00064E+03 -2.92764E+03 -4.26810E+03  6.39702E+03 -1.58273E+04  5.47884E+03 -1.58178E+04 -6.47517E+03
 -9.78737E+03 -1.83793E+04  4.93421E+03 -2.22751E+04  1.47668E+04 -1.60559E+04  1.73267E+04 -1.58925E+03
  1.09271E+04  1.27507E+04 -1.25975E+03  1.84539E+04 -1.22568E+04  1.05913E+04 -1.82218E+04 -4.00533E+03
 -1.33809E+04 -1.62032E+04 -1.83421E+03 -2.22033E+04  1.01509E+04 -1.79925E+04  1.83509E+04 -9.19807E+03
  1.69568E+04  1.96452E+02  1.23085E+04  4.36975E+03  6.32325E+03  6.13952E+02  9.24423E+03 -1.64625E+03
  1.66263E+04  2.83543E+03  1.85120E+04  1.46045E+04  1.21749E+04  2.92969E+04 -2.74589E+03  3.24594E+04
 -1.89626E+04  2.58326E+04 -3.05413E+04  1.28002E+04 -3.15053E+04 -2.44545E+03 -2.62418E+04 -1.79270E+04
 -1.18833E+04 -2.62822E+04  8.92381E+03 -2.36657E+04  2.04643E+04 -1.21045E+04  1.85150E+04  5.21309E+03
  7.05442E+03  1.35355E+04 -8.78033E+03  1.22996E+04 -1.55493E+04  2.70873E+03 -1.19987E+04 -9.67167E+03
 -3.19829E+02 -1.48701E+04  7.66587E+03 -1.11241E+04  9.40715E+03 -1.55008E+03  1.96207E+03  6.38491E+03
 -6.53126E+03  2.24811E+03 -5.69419E+03 -5.32723E+03 -1.02135E+02 -1.28449E+04  9.34215E+03 -1.33548E+04
  1.56224E+04 -6.93121E+03  1.65934E+04  2.60272E+03  1.47092E+04  1.27014E+04  6.59210E+03  1.93517E+04
 -2.91939E+03  2.08879E+04 -1.32571E+04  1.31067E+04 -1.49567E+04  3.26655E+03 -1.09920E+04 -3.02544E+03
 -4.92204E+03 -4.62508E+03 -8.66100E+02  1.44548E+03 -2.47421E+03  2.74489E+03 -4.80124E+03  4.08797E+03
 -1.01505E+04 -6.13221E+02 -1.11100E+04 -8.64266E+03 -4.33170E+03 -1.43372E+04  4.30298E+03 -1.09886E+04
  9.10807E+03 -4.62517E+03  6.68410E+03  3.06279E+03  3.49143E+02  3.95778E+03 -4.91917E+03  2.34402E+01
 -4.66724E+03 -6.94129E+03 -1.15890E+03 -1.04612E+04  5.26201E+03 -1.06567E+04  1.34477E+04 -5.55117E+03
  1.59115E+04  1.20147E+03  1.12519E+04  8.95469E+03  1.86494E+03  1.20476E+04 -6.70584E+03  1.06343E+04
 -9.06583E+03  3.53868E+03 -4.59080E+03 -1.62716E+03  1.56801E+03 -2.58860E+03  5.82482E+03 -8.62099E+02
  5.02980E+03  4.57104E+03  1.28278E+03  8.60312E+03 -6.14544E+03  8.09630E+03 -1.06500E+04  2.00782E+03
 -6.93047E+03 -5.15046E+03  3.23305E+02 -9.30239E+03  5.48135E+03 -4.40018E+03  5.50231E+03  1.60417E+03
  1.32292E+03  5.43800E+03 -5.36822E+03  6.96262E+03 -7.71615E+03  3.42946E+03 -7.51779E+03 -2.38550E+03
 -4.80836E+03 -9.37230E+03  1.74395E+03 -1.05773E+04  8.86955E+03 -6.79887E+03  9.55910E+03  1.49674E+03
  6.14065E+03  7.96349E+03 -6.62582E+02  1.00985E+04 -7.09650E+03  5.50771E+03 -7.47658E+03 -8.30744E+02
 -7.51885E+03 -7.06292E+03 -1.49235E+03 -7.35186E+03  3.74370E+03 -6.11013E+03  4.35308E+03 -3.44146E+03
  3.47972E+03  8.58050E+02 -2.09984E+02  1.32094E+03 -1.57668E+02 -1.27488E+03  9.45043E+02 -3.85419E+03
  6.41262E+03 -1.97189E+03  8.91292E+03  1.02758E+03  8.73476E+03  5.64770E+03  6.74427E+03  1.20116E+04
 -2.53361E+03  1.35578E+04 -1.16014E+04  9.96738E+03 -1.49670E+04  1.96177E+03 -1.19269E+04 -4.73335E+03
 -6.15261E+03 -9.43305E+03 -1.91202E+02 -7.82580E+03  3.04931E+03 -3.78562E+03  2.82247E+03 -3.09121E+03
  2.29016E+03 -1.87326E+03  3.01698E+03 -2.59448E+03  4.30199E+03 -2.33366E+03  4.82715E+03 -2.55164E+00
  6.17412E+03  1.68114E+03  2.68605E+03  5.17205E+03 -1.88874E+03  5.57933E+03 -6.68062E+03  4.31219E+03
 -8.00639E+03 -1.36736E+03 -4.33459E+03 -5.00368E+03 -1.11204E+02 -8.20685E+03  4.78810E+03 -8.52354E+03
  8.55373E+03 -5.13916E+03  1.06876E+04  1.31162E+03  7.72860E+03  7.43508E+03  1.42236E+03  9.98709E+03
 -3.85367E+03  8.66027E+03 -5.33320E+03  2.73632E+03 -3.36865E+03 -1.06223E+03 -1.23404E+03 -9.16458E+02
 -7.61074E+02  3.88389E+02 -1.57739E+03  2.63892E+03 -3.86736E+03  1.25467E+03 -5.84170E+03 -7.26002E+02
 -3.06222E+03 -5.75306E+03  4.95880E+02 -7.59271E+03  4.62294E+03 -7.20846E+03  6.82009E+03 -1.90982E+03
  7.34886E+03  3.98059E+03  3.31550E+03  6.61711E+03 -1.66647E+03  7.75206E+03 -5.47123E+03  4.64203E+03
 -6.65791E+03  7.23231E+02 -5.32734E+03 -4.22077E+03 -1.26413E+02 -5.85620E+03  2.74002E+03 -4.58307E+03
  4.51283E+03 -1.47111E+03  3.20431E+03  1.05020E+03  1.32577E+03  2.37020E+03  1.04715E+03  1.06447E+03
  2.14749E+03  8.72065E+02  1.99063E+03  1.55573E+03  2.12609E+03  3.19077E+03  1.98376E+03  3.58975E+03
 -1.86158E+03  5.38824E+03 -4.69969E+03  6.49233E+03 -6.92134E+03  2.08883E+03 -7.46317E+03 -2.02203E+03
 -3.40877E+03 -7.16486E+03  1.30313E+03 -7.66668E+03  4.11880E+03 -5.23698E+03  5.96628E+03 -1.58188E+03
  4.40339E+03  2.52130E+03  9.61299E+02  4.09068E+03 -1.66992E+03  2.39903E+03 -2.67134E+03 -2.78327E+02
 -1.29789E+03 -2.82572E+03  1.90011E+03 -3.05525E+03  3.01000E+03 -1.46287E+03  2.73415E+03  5.42486E+02
  1.59019E+03  8.56881E+02  1.06140E+03  5.95041E+02 -7.11669E+02  1.18302E+03  1.73720E+03 -9.22776E+01
  8.07173E+02 -5.04558E+02  3.11947E+03  1.15751E+03  1.35501E+03  4.08195E+03 -6.82246E+02  5.40721E+03
 -3.08790E+03  3.06410E+03 -4.15236E+03  1.07900E+03 -4.20394E+03 -1.46392E+03 -9.59779E+02 -2.70229E+03
  7.33759E+02 -2.94172E+03  1.66327E+03 -1.38416E+03  1.32103E+03  1.68387E+03 -6.69608E+02  1.90506E+03
 -3.00389E+03  1.39478E+03 -2.91320E+03 -1.74084E+03 -1.57062E+03 -3.87931E+03  4.55855E+02 -3.39141E+03
  1.71805E+03 -1.75512E+03  2.25769E+03 -1.42592E+02  2.10398E+03  5.01215E+02  6.24489E+02  2.22009E+03
 -1.13044E+03  4.46472E+02 -1.52806E+03 -1.01002E+03  1.07137E+03 -2.15353E+03  3.35692E+03 -1.91155E+03
  3.35016E+03  5.14366E+02  4.52270E+03  2.22652E+03  1.92727E+03  4.05820E+03 -1.11358E+03  3.97182E+03
 -3.50736E+03  1.14501E+03 -3.35840E+03 -6.53348E+02 -1.86139E+03 -2.76252E+03  7.38152E+02 -2.56406E+03
  3.07800E+03 -1.48938E+03  1.98924E+03  9.74947E+02  8.84522E+02  2.56481E+03 -8.89912E+00  2.22455E+03
 -9.19973E+02  1.88716E+03 -1.07122E+03  4.29546E+02 -4.21011E+02  4.74109E+02 -1.06071E+03  9.21518E+02
 -1.09776E+03  1.92845E+03 -3.02310E+03  1.11998E+03 -3.92763E+03  1.93150E+00 -4.66263E+03 -2.28147E+03
 -2.44421E+03 -5.40252E+03  9.80897E+02 -6.52020E+03  3.29472E+03 -4.80123E+03  5.56202E+03 -1.70216E+03
  5.76992E+03  4.18594E+02  3.24025E+03  3.42542E+03 -7.31893E+01  3.69571E+03 -1.95849E+03  2.58931E+03
 -2.14605E+03  1.30941E+03 -1.16641E+03 -3.42059E+02 -6.98229E+02  1.29266E+02 -5.65858E+02 -1.09883E+02
 -1.50739E+03  6.26079E+01 -1.43911E+03 -1.28653E+02 -1.42564E+02 -1.07873E+03 -3.60458E+02 -1.83609E+03
  2.13770E+03 -1.22905E+03  1.94198E+03  2.32389E+02  2.45863E+03  1.96897E+03  7.73692E+01  3.92364E+03
 -2.03851E+03  4.77743E+03 -3.98617E+03  2.75217E+03 -4.51021E+03 -1.97527E+02 -3.59265E+03 -3.00124E+03
 -1.63803E+03 -3.92718E+03  9.99722E+02 -3.48693E+03  2.00818E+03 -2.05840E+03  2.64402E+03  3.06714E+02
  1.54761E+03  1.11692E+03 -2.62771E+02  1.18068E+03 -9.59349E+02 -2.56060E+02  6.63925E+01 -4.40463E+02
  9.70967E+02  6.04975E+01  1.45618E+03  9.37722E+02  9.31410E+02  1.39806E+03  1.45825E+02  1.65355E+03
 -1.72994E+03  1.84238E+03 -2.34610E+03  6.45967E+01 -2.52975E+03 -1.79475E+03 -2.46596E+02 -3.04827E+03
  1.55412E+03 -2.27461E+03  2.46500E+03 -7.31949E+02  2.76820E+03  6.25514E+01  1.66217E+03  2.12591E+03
  6.65823E+02  1.90830E+03 -8.49823E+02  1.97859E+03 -1.46524E+03  1.19760E+03 -1.16364E+03  2.92566E+02
 -6.91693E+02 -1.20325E+02 -7.35023E+02  3.19951E+02 -1.09451E+03  4.23958E+02 -2.08503E+03 -4.34237E+02
 -1.80358E+03 -6.67248E+02 -6.91843E+02 -2.27898E+03  1.75332E+03 -2.74161E+03  2.21903E+03 -9.20882E+02
  1.94656E+03  2.42004E+02  5.53769E+02  1.42742E+03 -2.62307E+02  2.32324E+03 -1.56531E+03  1.45819E+03
