 $NMID ID='MM_0lb_SNR800_16hz_g50_50.RAW', FMTDAT='(8E13.5)'
 TRAMP=1., VOLUME=1. $END
  3.10068E+05  4.28721E+02  3.37603E+05  2.50649E+05  8.47061E+04  3.37722E+05 -1.32630E+05  2.50766E+05
 -1.89795E+05  8.31263E+04 -1.11354E+05 -3.24893E+04  8.76353E+02 -5.06765E+04  5.36778E+04 -1.64058E+02
  3.52115E+04  5.28124E+04 -1.69220E+04  7.52308E+04 -6.04668E+04  6.31743E+04 -8.39995E+04  3.16436E+04
 -8.03089E+04 -1.13807E+04 -5.68239E+04 -5.08240E+04 -1.51487E+04 -6.88881E+04  2.73819E+04 -4.53797E+04
  3.99966E+04  3.70943E+03  1.59469E+04  4.77966E+04 -3.45671E+04  4.67069E+04 -6.61098E+04 -4.97152E+02
 -5.27861E+04 -5.65469E+04 -6.63358E+03 -7.60747E+04  3.39016E+04 -5.43559E+04  4.74260E+04 -1.69705E+04
  4.28396E+04  1.14991E+04  3.13188E+04  2.51080E+04  1.58780E+04  2.89441E+04 -4.99401E+03  2.70723E+04
 -2.18783E+04  1.25814E+04 -1.88875E+04 -4.68676E+03  5.04114E+03 -7.43980E+03  2.19330E+04  1.16798E+04
  7.02792E+03  3.48305E+04 -3.14288E+04  3.50116E+04 -6.24747E+04  2.10862E+03 -5.64640E+04 -4.20971E+04
 -1.27191E+04 -6.23739E+04  3.91505E+04 -4.44297E+04  5.71576E+04 -2.02372E+03  3.32476E+04  3.14657E+04
 -6.22516E+03  3.52161E+04 -2.94529E+04  1.49606E+04 -2.96089E+04 -4.79502E+03 -1.60207E+04 -1.08041E+04
 -8.08964E+03 -1.25028E+04 -8.87815E+02 -1.76480E+04  7.27691E+03 -2.29565E+04  1.49574E+04 -1.34306E+04
  1.18132E+04  4.69102E+03 -7.41510E+03  1.30671E+04 -2.05888E+04 -3.78115E+03 -8.07399E+03 -3.24594E+04
  2.22413E+04 -4.25676E+04  4.67838E+04 -1.92221E+04  4.37546E+04  1.89229E+04  1.52167E+04  4.32363E+04
 -1.58738E+04  3.27131E+04 -2.43540E+04  1.82513E+03 -9.13244E+03 -2.71496E+04  2.09693E+04 -3.26779E+04
  4.00276E+04 -8.32909E+03  3.40543E+04  2.32122E+04  1.69697E+04  4.49787E+04 -7.97942E+03  4.84131E+04
 -3.05112E+04  3.27002E+04 -4.03309E+04  9.20244E+03 -4.09329E+04 -1.61925E+04 -2.27832E+04 -3.66121E+04
  7.36050E+03 -3.66763E+04  3.08517E+04 -1.39057E+04  2.83347E+04  1.07768E+04  3.59648E+03  1.86801E+04
 -1.32032E+04  8.16455E+03 -9.91399E+03 -7.60550E+03  5.94129E+03 -1.01635E+04  1.76173E+04  6.24219E+03
  1.30196E+04  2.18920E+04 -5.91338E+03  2.41806E+04 -2.19109E+04  1.05895E+04 -2.69514E+04 -5.19812E+03
 -1.91384E+04 -1.69482E+04 -7.28722E+03 -1.87492E+04  4.05822E+03 -1.77545E+04  1.44103E+04 -1.70413E+04
  2.43576E+04 -1.23082E+04  3.07353E+04  1.96805E+03  2.29204E+04  1.86332E+04  4.07954E+03  3.50368E+04
 -1.72192E+04  2.90705E+04 -2.69069E+04  1.02417E+04 -2.03021E+04 -1.05897E+04 -4.26661E+03 -1.33847E+04
  2.00235E+03 -3.38409E+03 -3.95848E+03  6.35083E+03 -1.50234E+04  5.14336E+03 -1.50481E+04 -6.18862E+03
 -9.34247E+03 -1.76654E+04  5.03407E+03 -2.16355E+04  1.41890E+04 -1.57686E+04  1.65452E+04 -1.32015E+03
  1.05564E+04  1.18141E+04 -1.06184E+03  1.77900E+04 -1.18934E+04  9.88819E+03 -1.75181E+04 -3.98133E+03
 -1.31149E+04 -1.56782E+04 -1.83502E+03 -2.14647E+04  9.84354E+03 -1.75686E+04  1.81365E+04 -8.81476E+03
  1.60124E+04  3.06231E+02  1.15371E+04  3.93719E+03  6.08677E+03  6.61248E+02  8.62473E+03 -1.49614E+03
  1.61024E+04  2.84242E+03  1.74397E+04  1.37713E+04  1.13545E+04  2.78644E+04 -3.10288E+03  3.10024E+04
 -1.82243E+04  2.45258E+04 -2.86577E+04  1.20471E+04 -3.00114E+04 -2.28058E+03 -2.50046E+04 -1.73358E+04
 -1.10178E+04 -2.43982E+04  8.42535E+03 -2.21174E+04  1.94192E+04 -1.21011E+04  1.75833E+04  4.71470E+03
  6.99044E+03  1.29084E+04 -8.22339E+03  1.16686E+04 -1.51101E+04  2.50284E+03 -1.17506E+04 -9.19255E+03
 -2.60242E+01 -1.41904E+04  7.17869E+03 -1.04662E+04  9.23406E+03 -1.28790E+03  1.97615E+03  5.55628E+03
 -6.23942E+03  2.19785E+03 -4.84575E+03 -5.35520E+03  5.74760E+01 -1.21428E+04  8.82708E+03 -1.26233E+04
  1.48500E+04 -6.41401E+03  1.56228E+04  2.84106E+03  1.32889E+04  1.14615E+04  6.24168E+03  1.75307E+04
 -2.44592E+03  1.97141E+04 -1.20820E+04  1.22828E+04 -1.37116E+04  3.21768E+03 -1.00222E+04 -3.16895E+03
 -5.14806E+03 -4.21368E+03 -9.34707E+02  1.34175E+03 -2.15906E+03  2.36127E+03 -4.33120E+03  4.21660E+03
 -9.36483E+03 -4.09164E+02 -1.01092E+04 -8.35404E+03 -3.85536E+03 -1.32064E+04  4.24520E+03 -1.01576E+04
  8.64865E+03 -4.51166E+03  6.37847E+03  2.71673E+03  2.90455E+02  3.81626E+03 -4.28395E+03 -1.21333E+02
 -4.37350E+03 -6.60470E+03 -5.74783E+02 -9.16203E+03  5.06857E+03 -9.77814E+03  1.21777E+04 -5.12878E+03
  1.42093E+04  1.03804E+03  1.06723E+04  8.09952E+03  2.25036E+03  1.11612E+04 -6.13831E+03  1.00292E+04
 -8.02333E+03  3.30120E+03 -4.13707E+03 -1.74234E+03  1.47788E+03 -2.05293E+03  5.54684E+03 -9.75933E+02
  4.69723E+03  4.12791E+03  1.12502E+03  7.67364E+03 -5.34372E+03  7.54348E+03 -9.58134E+03  2.16502E+03
 -6.08486E+03 -4.89284E+03  4.07173E+02 -7.97125E+03  4.49587E+03 -3.93043E+03  4.77426E+03  1.48039E+03
  8.08184E+02  4.79627E+03 -5.11442E+03  5.84132E+03 -6.79914E+03  2.80225E+03 -6.33345E+03 -1.79663E+03
 -4.30932E+03 -7.90665E+03  1.77367E+03 -9.42403E+03  8.24306E+03 -5.73530E+03  8.67317E+03  1.17103E+03
  6.13767E+03  7.16327E+03 -1.64646E+02  9.24058E+03 -6.30501E+03  5.07541E+03 -6.82355E+03 -5.62740E+02
 -6.78956E+03 -6.14358E+03 -1.51267E+03 -6.65905E+03  3.18126E+03 -5.50619E+03  3.58980E+03 -3.03854E+03
  3.03590E+03  5.42774E+02 -1.17029E+02  1.43869E+03  4.05380E+01 -5.50001E+02  6.43956E+02 -3.10931E+03
  5.43534E+03 -1.73956E+03  7.52356E+03  9.02912E+02  7.25089E+03  4.76389E+03  6.05808E+03  9.71592E+03
 -1.93391E+03  1.14276E+04 -1.01537E+04  8.64921E+03 -1.32848E+04  1.41951E+03 -1.03485E+04 -3.49818E+03
 -5.19645E+03 -8.50440E+03 -4.56412E+02 -7.06926E+03  3.06778E+03 -3.35442E+03  2.50920E+03 -2.83635E+03
  1.80631E+03 -2.22001E+03  2.30227E+03 -2.79067E+03  4.11800E+03 -1.80560E+03  4.30963E+03  3.04120E+02
  5.70040E+03  1.42323E+03  2.20922E+03  4.28523E+03 -1.71540E+03  4.52726E+03 -5.58160E+03  3.50408E+03
 -6.77650E+03 -1.28384E+03 -3.27966E+03 -4.58672E+03 -9.64900E+00 -7.01225E+03  4.05135E+03 -7.09422E+03
  7.10330E+03 -4.50227E+03  9.01783E+03  3.81409E+02  6.40587E+03  5.88389E+03  1.12575E+03  8.03141E+03
 -2.96876E+03  7.42020E+03 -4.46934E+03  2.54303E+03 -2.67378E+03 -1.08536E+03 -1.11760E+03 -9.01076E+02
 -6.44791E+02  6.16845E+02 -1.06902E+03  2.12926E+03 -3.13941E+03  1.26440E+03 -4.99486E+03 -5.96467E+02
 -2.35085E+03 -5.03203E+03  7.20333E+02 -6.41178E+03  3.82082E+03 -6.15880E+03  5.37007E+03 -1.62114E+03
  6.04332E+03  3.23446E+03  2.72022E+03  4.77543E+03 -8.47873E+02  6.40696E+03 -4.12297E+03  3.86999E+03
 -5.64556E+03  5.84275E+02 -4.73268E+03 -3.41465E+03 -4.85699E+02 -4.79204E+03  2.45193E+03 -3.56802E+03
  3.93820E+03 -1.69415E+03  2.64104E+03  7.19514E+02  5.81425E+02  2.38353E+03  9.21542E+02  1.18029E+03
  1.95950E+03  7.91795E+02  1.54130E+03  1.18525E+03  2.02539E+03  2.65020E+03  1.94803E+03  2.83139E+03
 -1.87509E+03  4.35482E+03 -3.66134E+03  5.29433E+03 -4.76210E+03  1.64352E+03 -6.20475E+03 -1.38405E+03
 -2.66000E+03 -5.58849E+03  9.76812E+02 -6.57439E+03  2.94147E+03 -3.84664E+03  4.84258E+03 -1.03805E+03
  3.73701E+03  2.45264E+03  6.05691E+02  3.50275E+03 -1.13975E+03  2.14852E+03 -1.92291E+03  3.76571E+01
 -1.04316E+03 -2.14138E+03  1.43432E+03 -2.10874E+03  1.99055E+03 -1.34992E+03  2.24053E+03  6.72089E+02
  1.40517E+03  7.42235E+02  8.56409E+02  1.67740E+02 -7.19391E+02  8.92717E+02  1.71146E+03 -2.08719E+02
  4.52760E+02 -2.94073E+02  2.40751E+03  7.69004E+02  6.23646E+02  3.29465E+03 -3.89954E+02  4.13190E+03
 -2.57514E+03  1.77121E+03 -3.31928E+03  6.52262E+02 -3.06284E+03 -1.02388E+03 -7.41561E+02 -1.55674E+03
  3.68562E+02 -1.82228E+03  1.36949E+03 -9.88289E+02  9.76223E+02  1.28983E+03 -8.75313E+02  1.87582E+03
 -2.21043E+03  1.12962E+03 -2.01371E+03 -1.75379E+03 -1.36815E+03 -2.96534E+03  7.54666E+01 -2.62572E+03
  1.20113E+03 -1.22635E+03  1.28373E+03 -1.30701E+00  2.02062E+03  3.25125E+02  2.84327E+02  1.65311E+03
 -7.02012E+02  1.48209E+01 -1.37276E+03 -6.14723E+02  3.38380E+02 -1.65680E+03  2.47383E+03 -1.60363E+03
  2.23095E+03  1.50118E+02  3.54573E+03  1.76694E+03  1.21516E+03  2.69227E+03 -4.47562E+02  2.56344E+03
 -2.34944E+03  8.52180E+02 -2.46629E+03 -1.89052E+02 -1.61004E+03 -2.02500E+03  6.88440E+02 -1.36384E+03
  2.11100E+03 -1.09402E+03  1.46064E+03  8.60140E+02  4.22254E+02  1.94491E+03  3.55542E+01  1.54302E+03
 -4.88404E+02  1.18926E+03 -9.38709E+02  4.31245E+02 -3.24594E+00  5.98824E+02 -9.11690E+02  4.52724E+02
 -6.88491E+02  1.45990E+03 -2.51637E+03  9.27901E+02 -2.84154E+03  1.94351E+02 -3.87140E+03 -1.98207E+03
 -1.66548E+03 -3.62259E+03  1.01210E+03 -4.61622E+03  1.93769E+03 -3.69655E+03  4.23023E+03 -1.53781E+03
  4.18451E+03  1.49887E+02  1.98032E+03  2.76871E+03 -3.87489E+02  2.85671E+03 -9.35760E+02  2.24765E+03
 -1.67941E+03  9.93116E+02 -9.38341E+02 -3.23201E+02 -6.39954E+02 -1.05879E+02 -7.14996E+02 -4.28772E+01
 -9.21342E+02  1.20952E+01 -8.08437E+02  8.15481E+01  3.68354E+01 -7.83980E+02 -5.28304E+02 -1.16500E+03
  1.82550E+03 -8.41501E+02  1.10485E+03  1.62275E+02  1.96447E+03  1.69872E+03 -1.64179E+02  2.47921E+03
 -1.51046E+03  3.52500E+03 -2.66057E+03  2.03772E+03 -3.15043E+03 -2.97475E+02 -2.02437E+03 -1.81749E+03
 -1.26324E+03 -2.39917E+03  3.11796E+02 -2.20013E+03  1.36886E+03 -1.02491E+03  1.23087E+03  1.31043E+02
  1.18200E+03  5.33335E+02  4.37837E+01  7.11008E+02 -7.22554E+02 -1.37358E+01 -1.37581E+02 -7.28148E+02
  5.13927E+02  1.12253E+02  6.70492E+02  7.72767E+02  6.24240E+02  1.13134E+03  4.66447E+02  1.08546E+03
 -1.19825E+03  1.16132E+03 -1.72996E+03  1.26412E+02 -1.27076E+03 -1.22840E+03  1.12583E+02 -2.02574E+03
  1.09449E+03 -1.46492E+03  1.64559E+03 -1.72220E+02  1.46565E+03 -3.64733E+02  8.68516E+02  1.28902E+03
  4.88263E+02  1.16572E+03 -2.94413E+02  1.00356E+03 -9.74994E+02  8.15943E+02 -9.94308E+02  1.75657E+02
 -4.16022E+02  3.90483E+01 -6.89564E+02 -1.14493E+02 -8.97214E+02  2.04268E+02 -1.32307E+03 -3.94179E+02
 -1.60015E+03 -2.87129E+02 -3.21459E+02 -1.64118E+03  1.04329E+03 -2.12240E+03  1.57838E+03 -6.98735E+02
  1.24678E+03  1.75392E+02  1.01234E+02  5.21324E+02 -9.82112E+01  1.35783E+03 -9.23330E+02  1.01941E+03
