 $NMID ID='MM_0lb_SNR800_16hz_g50_67.RAW', FMTDAT='(8E13.5)'
 TRAMP=1., VOLUME=1. $END
  3.09942E+05  3.75186E+02  3.37527E+05  2.50753E+05  8.44518E+04  3.37593E+05 -1.32343E+05  2.50386E+05
 -1.90035E+05  8.28632E+04 -1.11396E+05 -3.26044E+04  7.77171E+02 -5.03907E+04  5.38021E+04 -2.13906E+02
  3.52794E+04  5.30175E+04 -1.68499E+04  7.50923E+04 -6.07937E+04  6.34174E+04 -8.37777E+04  3.17396E+04
 -8.07010E+04 -1.15223E+04 -5.69298E+04 -5.08872E+04 -1.49369E+04 -6.89952E+04  2.74136E+04 -4.56782E+04
  3.98025E+04  3.79478E+03  1.58278E+04  4.74149E+04 -3.42958E+04  4.66846E+04 -6.61492E+04 -2.85427E+02
 -5.30309E+04 -5.62805E+04 -6.88443E+03 -7.61721E+04  3.35936E+04 -5.41015E+04  4.77672E+04 -1.71515E+04
  4.27855E+04  1.11788E+04  3.16085E+04  2.49802E+04  1.56872E+04  2.91256E+04 -4.97686E+03  2.73006E+04
 -2.18181E+04  1.25929E+04 -1.87809E+04 -4.84035E+03  5.22518E+03 -7.38375E+03  2.18265E+04  1.14811E+04
  7.41692E+03  3.45033E+04 -3.15860E+04  3.50102E+04 -6.22211E+04  2.10212E+03 -5.63906E+04 -4.20735E+04
 -1.24161E+04 -6.23373E+04  3.93145E+04 -4.46688E+04  5.75087E+04 -2.13934E+03  3.33859E+04  3.17176E+04
 -6.23261E+03  3.51578E+04 -2.92029E+04  1.50268E+04 -2.94881E+04 -4.96106E+03 -1.59227E+04 -1.05510E+04
 -7.70020E+03 -1.22173E+04 -9.40872E+02 -1.75452E+04  7.17708E+03 -2.28544E+04  1.51590E+04 -1.38178E+04
  1.19604E+04  4.55968E+03 -7.44118E+03  1.26764E+04 -2.06259E+04 -3.67568E+03 -8.21561E+03 -3.24412E+04
  2.21921E+04 -4.24875E+04  4.68852E+04 -1.91099E+04  4.40235E+04  1.90981E+04  1.51894E+04  4.32628E+04
 -1.57954E+04  3.22950E+04 -2.46783E+04  1.50321E+03 -8.96367E+03 -2.72240E+04  2.06303E+04 -3.27330E+04
  3.99378E+04 -8.33260E+03  3.39742E+04  2.33293E+04  1.71558E+04  4.48194E+04 -8.04166E+03  4.81925E+04
 -3.05706E+04  3.22399E+04 -4.04405E+04  9.09854E+03 -4.09800E+04 -1.57338E+04 -2.27676E+04 -3.65533E+04
  6.96121E+03 -3.63860E+04  3.06923E+04 -1.41795E+04  2.81270E+04  1.10236E+04  3.63834E+03  1.84177E+04
 -1.35648E+04  7.77168E+03 -1.01172E+04 -7.57568E+03  6.09503E+03 -1.01563E+04  1.76515E+04  6.14848E+03
  1.32044E+04  2.18547E+04 -6.26133E+03  2.43330E+04 -2.19104E+04  1.04809E+04 -2.70323E+04 -5.36615E+03
 -1.90784E+04 -1.69362E+04 -7.15762E+03 -1.86771E+04  3.82670E+03 -1.74533E+04  1.44179E+04 -1.68432E+04
  2.41651E+04 -1.22140E+04  3.07825E+04  2.16805E+03  2.26060E+04  1.87266E+04  4.16169E+03  3.46219E+04
 -1.69535E+04  2.94295E+04 -2.71161E+04  1.00321E+04 -2.01221E+04 -1.02696E+04 -4.22891E+03 -1.36487E+04
  2.18273E+03 -3.46897E+03 -4.03449E+03  6.00787E+03 -1.49562E+04  5.01123E+03 -1.53018E+04 -6.01609E+03
 -9.63312E+03 -1.77904E+04  4.82188E+03 -2.16917E+04  1.40278E+04 -1.53899E+04  1.67577E+04 -1.44625E+03
  1.06168E+04  1.24482E+04 -7.24585E+02  1.77272E+04 -1.17381E+04  9.81319E+03 -1.78159E+04 -3.76570E+03
 -1.32126E+04 -1.60740E+04 -1.55398E+03 -2.12783E+04  9.53955E+03 -1.71464E+04  1.79747E+04 -8.67519E+03
  1.65362E+04  2.74017E+02  1.17286E+04  4.44148E+03  6.08477E+03  8.61864E+02  8.91904E+03 -1.23620E+03
  1.59308E+04  2.55359E+03  1.73791E+04  1.43697E+04  1.12287E+04  2.80934E+04 -2.98452E+03  3.10625E+04
 -1.78995E+04  2.46280E+04 -2.89703E+04  1.22653E+04 -3.00115E+04 -2.13929E+03 -2.49979E+04 -1.72276E+04
 -1.11403E+04 -2.45591E+04  8.19190E+03 -2.23239E+04  1.95185E+04 -1.19226E+04  1.76343E+04  4.83765E+03
  6.68089E+03  1.30931E+04 -8.18136E+03  1.17264E+04 -1.47270E+04  2.76686E+03 -1.15956E+04 -9.45587E+03
 -1.16017E+02 -1.40607E+04  7.17438E+03 -1.05242E+04  9.18106E+03 -1.16963E+03  1.75993E+03  6.00825E+03
 -6.24106E+03  2.09804E+03 -5.11687E+03 -5.20076E+03 -1.64251E+02 -1.21787E+04  8.94319E+03 -1.22932E+04
  1.48461E+04 -6.20415E+03  1.53693E+04  2.92587E+03  1.32265E+04  1.16478E+04  6.32115E+03  1.76018E+04
 -2.47575E+03  1.94325E+04 -1.18459E+04  1.22289E+04 -1.41757E+04  3.04225E+03 -9.94949E+03 -2.77801E+03
 -5.04680E+03 -4.16009E+03 -6.47571E+02  1.29508E+03 -2.28108E+03  2.41932E+03 -4.29621E+03  3.85722E+03
 -9.28939E+03 -3.48559E+02 -1.01013E+04 -7.99867E+03 -4.15676E+03 -1.29714E+04  4.06676E+03 -1.03093E+04
  8.37273E+03 -4.20351E+03  6.00271E+03  2.82819E+03  2.82411E+02  3.74939E+03 -4.25323E+03  1.19531E+02
 -4.25826E+03 -6.40580E+03 -7.55947E+02 -9.19921E+03  5.13181E+03 -9.52691E+03  1.20920E+04 -5.04708E+03
  1.47095E+04  1.06707E+03  1.04739E+04  8.13895E+03  2.53292E+03  1.10211E+04 -6.31098E+03  9.93607E+03
 -8.44493E+03  3.06940E+03 -4.20782E+03 -1.66545E+03  1.46909E+03 -2.91156E+03  5.12054E+03 -1.04670E+03
  4.80730E+03  4.16692E+03  1.26056E+03  7.71818E+03 -5.34178E+03  7.58877E+03 -9.49098E+03  1.92350E+03
 -6.23040E+03 -4.75101E+03  1.25139E+02 -8.33261E+03  4.70573E+03 -4.19928E+03  4.68503E+03  1.43441E+03
  6.97569E+02  4.82064E+03 -5.16195E+03  6.01438E+03 -6.86467E+03  2.87306E+03 -6.58740E+03 -1.93882E+03
 -3.97888E+03 -7.81517E+03  1.80551E+03 -9.28273E+03  7.99781E+03 -5.61037E+03  8.78606E+03  1.33225E+03
  5.56692E+03  6.73093E+03 -5.36799E+02  8.83401E+03 -6.21805E+03  5.11855E+03 -6.83844E+03 -2.63413E+02
 -7.13200E+03 -6.47133E+03 -1.49322E+03 -6.55998E+03  3.64814E+03 -6.00413E+03  3.99485E+03 -2.87614E+03
  3.27509E+03  9.25226E+02  8.86777E+01  1.60217E+03  2.98253E+02 -9.10759E+02  4.51801E+02 -2.82064E+03
  5.67353E+03 -1.84903E+03  7.75743E+03  9.20606E+02  7.59397E+03  4.72038E+03  6.43857E+03  9.66953E+03
 -1.77791E+03  1.15700E+04 -1.01142E+04  8.59950E+03 -1.29344E+04  1.52026E+03 -1.02606E+04 -4.10366E+03
 -5.09368E+03 -8.73032E+03 -2.15163E+02 -6.65051E+03  2.63679E+03 -3.37106E+03  2.45655E+03 -2.55503E+03
  1.72414E+03 -1.74711E+03  2.56077E+03 -2.85149E+03  3.86556E+03 -1.98301E+03  4.55078E+03  1.92311E+01
  5.48993E+03  1.26739E+03  2.03282E+03  4.54330E+03 -1.45910E+03  4.50239E+03 -5.63473E+03  3.94988E+03
 -6.91911E+03 -1.07246E+03 -3.24758E+03 -4.67968E+03  1.88478E+02 -6.91700E+03  4.60993E+03 -7.20691E+03
  7.58953E+03 -4.15703E+03  8.99964E+03  1.68229E+02  6.23281E+03  5.67077E+03  1.55403E+03  7.95995E+03
 -3.15454E+03  7.04278E+03 -4.45137E+03  2.54609E+03 -3.05041E+03 -1.13808E+03 -7.88544E+02 -5.57295E+02
 -5.25028E+02  2.04494E+02 -1.26655E+03  1.99388E+03 -3.15383E+03  1.26835E+03 -5.25694E+03 -5.06740E+02
 -2.53456E+03 -5.17937E+03  3.32064E+02 -6.31649E+03  3.97857E+03 -6.10299E+03  5.68518E+03 -1.79840E+03
  5.61571E+03  3.39690E+03  2.76101E+03  5.04009E+03 -1.20435E+03  6.13512E+03 -3.98686E+03  3.67131E+03
 -5.70319E+03  7.52380E+02 -4.51571E+03 -3.18167E+03 -2.88945E+02 -4.65740E+03  2.43476E+03 -3.70443E+03
  4.11450E+03 -1.67910E+03  2.50958E+03  9.73277E+02  8.60751E+02  2.29205E+03  6.57379E+02  7.30346E+02
  2.04152E+03  6.25266E+02  1.47787E+03  1.48456E+03  1.49290E+03  2.75558E+03  1.87892E+03  2.76719E+03
 -1.85744E+03  4.42964E+03 -3.79856E+03  5.21748E+03 -4.75543E+03  1.60857E+03 -6.32584E+03 -1.02278E+03
 -2.49129E+03 -5.24814E+03  1.00438E+03 -6.90614E+03  3.13793E+03 -3.43275E+03  4.38866E+03 -1.46049E+03
  3.91985E+03  2.47304E+03  5.95548E+02  3.35902E+03 -1.23304E+03  1.85586E+03 -1.81303E+03 -1.80486E+02
 -9.08566E+02 -2.50682E+03  1.70266E+03 -2.04001E+03  2.22814E+03 -1.24998E+03  1.73105E+03  5.14047E+02
  1.10514E+03  7.61389E+02  9.47266E+02  3.27802E+01 -2.91005E+02  1.19917E+03  1.56008E+03 -1.73567E+02
  4.04116E+02 -2.82961E+02  2.42133E+03  1.09877E+03  9.39998E+02  3.14158E+03 -4.26403E+02  4.18766E+03
 -2.27800E+03  1.84080E+03 -3.30275E+03  7.77004E+02 -3.10435E+03 -1.00577E+03 -5.66845E+02 -1.81210E+03
  4.15421E+02 -2.01565E+03  1.59487E+03 -1.08249E+03  7.10907E+02  1.42633E+03 -9.15619E+02  1.66381E+03
 -2.32010E+03  1.19195E+03 -2.17522E+03 -1.42123E+03 -1.20000E+03 -3.01671E+03  2.09487E+02 -2.60214E+03
  1.18936E+03 -1.04932E+03  1.65422E+03 -6.82715E+01  1.76267E+03  1.95300E+02  4.46658E+02  1.48106E+03
 -6.22364E+02  3.35882E+02 -9.38462E+02 -6.41339E+02  9.50202E+02 -1.65421E+03  2.37170E+03 -1.70066E+03
  2.37541E+03  5.65166E+02  3.73924E+03  1.85755E+03  1.46218E+03  2.83451E+03 -5.53708E+02  2.96571E+03
 -2.12939E+03  1.03010E+03 -2.28429E+03 -1.03725E+02 -1.29596E+03 -1.94652E+03  8.08633E+02 -1.16243E+03
  2.17042E+03 -1.15012E+03  1.38726E+03  8.47986E+02  5.77793E+02  1.92502E+03  1.64886E+01  1.56589E+03
 -5.54160E+02  1.43290E+03 -5.01201E+02  4.51387E+02 -2.06004E+02  2.96712E+02 -9.09161E+02  8.99669E+02
 -7.80766E+02  1.40831E+03 -2.46261E+03  8.64770E+02 -2.75818E+03  1.08966E+02 -3.58928E+03 -1.66017E+03
 -1.60548E+03 -3.75267E+03  9.19126E+02 -4.51682E+03  2.02978E+03 -3.64708E+03  4.26442E+03 -1.49490E+03
  3.77682E+03  7.91194E+01  2.30408E+03  2.53868E+03 -1.72547E+02  2.57472E+03 -1.07030E+03  2.25453E+03
 -1.70084E+03  1.16733E+03 -9.80636E+02 -4.05607E+02 -4.96155E+02  4.05821E+02 -5.86785E+02 -2.83915E+02
 -1.24808E+03 -1.11505E+02 -1.00407E+03  1.60561E+02  1.36013E+02 -8.74354E+02 -1.19151E+02 -1.09163E+03
  1.73281E+03 -1.20405E+03  9.90795E+02 -3.84622E+01  2.07286E+03  1.80388E+03 -3.00089E+02  2.53925E+03
 -1.40877E+03  3.54264E+03 -3.10694E+03  1.73402E+03 -2.69550E+03 -5.58244E+02 -2.38947E+03 -1.72734E+03
 -1.32829E+03 -2.54133E+03  4.47907E+02 -2.10575E+03  1.62236E+03 -9.52142E+02  1.55186E+03 -2.31562E+01
  1.33102E+03  6.74974E+02 -9.31515E+01  5.74605E+02 -5.38950E+02 -3.31064E+02  3.73781E+01 -2.69750E+02
  8.28536E+02  1.65198E+01  7.22945E+02  4.07395E+02  1.49317E+02  8.99854E+02  4.02053E+02  7.85522E+02
 -1.08412E+03  1.02598E+03 -1.43984E+03  3.61671E+02 -1.08633E+03 -1.31374E+03 -2.78907E+01 -2.11788E+03
  7.68873E+02 -1.35465E+03  1.29136E+03 -4.07758E+02  1.80370E+03 -5.67292E+02  8.18936E+02  1.29844E+03
  5.66947E+02  1.32695E+03 -5.15727E+02  1.09441E+03 -1.00657E+03  7.02983E+02 -4.26358E+02  1.24681E+02
 -2.85880E+02 -7.76652E+01 -4.77612E+02 -5.51071E+01 -6.20741E+02  4.79373E+02 -1.31788E+03 -1.11189E+02
 -1.42638E+03 -5.25822E+01 -8.88588E+02 -1.68725E+03  1.03261E+03 -2.27527E+03  1.18179E+03 -4.72687E+02
  1.28663E+03  2.42371E+02  8.11340E+01  6.90491E+02 -1.07961E+02  1.57184E+03 -7.39529E+02  9.05206E+02
