 $NMID ID='MM_0lb_SNR800_19hz_g55_56.RAW', FMTDAT='(8E13.5)'
 TRAMP=1., VOLUME=1. $END
  3.09682E+05  4.70591E+02  3.37591E+05  2.50337E+05  8.43966E+04  3.37691E+05 -1.32354E+05  2.50569E+05
 -1.90086E+05  8.25723E+04 -1.11068E+05 -3.27866E+04  1.49830E+03 -5.02981E+04  5.38417E+04  3.36038E+02
  3.51170E+04  5.24978E+04 -1.66829E+04  7.50822E+04 -6.04284E+04  6.29659E+04 -8.34620E+04  3.18764E+04
 -8.00189E+04 -1.13094E+04 -5.64302E+04 -5.01710E+04 -1.50719E+04 -6.86364E+04  2.68517E+04 -4.52067E+04
  3.93453E+04  4.07796E+03  1.58581E+04  4.71104E+04 -3.40286E+04  4.64224E+04 -6.59411E+04 -2.26507E+02
 -5.22708E+04 -5.63799E+04 -6.35973E+03 -7.56297E+04  3.30866E+04 -5.34585E+04  4.66818E+04 -1.65746E+04
  4.20590E+04  1.10863E+04  3.11761E+04  2.47320E+04  1.57170E+04  2.86183E+04 -4.73846E+03  2.67518E+04
 -2.18419E+04  1.27358E+04 -1.88509E+04 -4.46293E+03  4.78588E+03 -7.66879E+03  2.15020E+04  1.12710E+04
  7.58103E+03  3.37921E+04 -3.07571E+04  3.43324E+04 -6.15786E+04  1.89297E+03 -5.59001E+04 -4.16215E+04
 -1.24965E+04 -6.12987E+04  3.87719E+04 -4.41916E+04  5.60785E+04 -1.90323E+03  3.24194E+04  3.10312E+04
 -6.30615E+03  3.40063E+04 -2.88161E+04  1.42415E+04 -2.82338E+04 -5.02198E+03 -1.50629E+04 -1.03311E+04
 -7.57955E+03 -1.17389E+04 -1.23186E+03 -1.69505E+04  6.97498E+03 -2.25885E+04  1.51370E+04 -1.35518E+04
  1.17725E+04  4.25677E+03 -6.73372E+03  1.29307E+04 -1.98221E+04 -3.18903E+03 -8.09170E+03 -3.11784E+04
  2.12414E+04 -4.14203E+04  4.54374E+04 -1.88612E+04  4.27776E+04  1.85372E+04  1.45423E+04  4.18717E+04
 -1.51532E+04  3.14817E+04 -2.37567E+04  1.08937E+03 -8.72239E+03 -2.67641E+04  2.08178E+04 -3.16083E+04
  3.88381E+04 -7.75562E+03  3.23037E+04  2.30902E+04  1.59278E+04  4.32420E+04 -7.79371E+03  4.62210E+04
 -2.90754E+04  3.03766E+04 -3.83942E+04  8.56640E+03 -3.89369E+04 -1.49837E+04 -2.16952E+04 -3.52536E+04
  7.03809E+03 -3.50413E+04  2.96645E+04 -1.29959E+04  2.71135E+04  1.06983E+04  3.43044E+03  1.78842E+04
 -1.31057E+04  7.31907E+03 -9.66366E+03 -7.45723E+03  6.04966E+03 -1.01306E+04  1.79705E+04  6.31676E+03
  1.26108E+04  2.17144E+04 -6.42900E+03  2.36034E+04 -2.12115E+04  9.65741E+03 -2.57690E+04 -5.95024E+03
 -1.72281E+04 -1.65743E+04 -6.18028E+03 -1.75479E+04  3.74444E+03 -1.54031E+04  1.30333E+04 -1.49546E+04
  2.20323E+04 -1.19018E+04  2.88532E+04  1.48451E+03  2.17764E+04  1.71385E+04  4.23183E+03  3.32060E+04
 -1.62667E+04  2.78441E+04 -2.61710E+04  9.47889E+03 -1.99458E+04 -1.06001E+04 -4.11457E+03 -1.38559E+04
  2.34473E+03 -4.11507E+03 -2.99735E+03  5.58766E+03 -1.32000E+04  4.90710E+03 -1.38628E+04 -5.35060E+03
 -8.57283E+03 -1.60401E+04  4.48287E+03 -1.97209E+04  1.30415E+04 -1.42454E+04  1.50658E+04 -1.25847E+03
  9.33476E+03  1.09786E+04 -9.66694E+02  1.60601E+04 -1.08584E+04  9.17226E+03 -1.57735E+04 -3.35138E+03
 -1.19212E+04 -1.45622E+04 -1.41636E+03 -1.94775E+04  9.04723E+03 -1.57588E+04  1.65538E+04 -7.40597E+03
  1.48786E+04  6.63997E+02  1.06190E+04  3.77468E+03  5.38249E+03  7.48755E+02  7.79014E+03 -1.46383E+03
  1.43020E+04  2.32845E+03  1.55205E+04  1.29761E+04  9.52292E+03  2.55603E+04 -3.04371E+03  2.73977E+04
 -1.61988E+04  2.10593E+04 -2.52678E+04  1.02643E+04 -2.59115E+04 -1.85295E+03 -2.17478E+04 -1.45523E+04
 -1.02658E+04 -2.11083E+04  7.19220E+03 -1.95670E+04  1.67592E+04 -1.10101E+04  1.58799E+04  3.80846E+03
  6.84897E+03  1.13776E+04 -7.24973E+03  1.06673E+04 -1.36306E+04  2.84165E+03 -1.04361E+04 -8.07725E+03
  9.54845E+01 -1.27987E+04  6.41321E+03 -9.60962E+03  8.18650E+03 -1.58113E+03  1.57336E+03  5.15675E+03
 -5.64745E+03  1.47658E+03 -3.97984E+03 -4.51402E+03  3.78498E+02 -1.03105E+04  7.96921E+03 -1.05017E+04
  1.25206E+04 -4.74840E+03  1.25412E+04  2.58760E+03  1.04953E+04  9.99004E+03  5.02410E+03  1.44083E+04
 -1.78897E+03  1.64312E+04 -9.77747E+03  1.02650E+04 -1.13486E+04  2.73544E+03 -8.74318E+03 -1.86099E+03
 -4.64099E+03 -3.39186E+03 -8.29713E+02  1.52995E+03 -2.01497E+03  2.10168E+03 -4.00183E+03  3.55506E+03
 -8.24987E+03 -7.31334E+02 -8.84157E+03 -7.04659E+03 -3.47815E+03 -1.15853E+04  3.56054E+03 -8.67946E+03
  7.27035E+03 -3.71073E+03  5.25673E+03  2.12950E+03  7.48663E+02  2.97638E+03 -3.68691E+03 -9.22684E+01
 -3.52929E+03 -5.08997E+03 -5.07622E+02 -7.51873E+03  4.09635E+03 -8.09793E+03  9.76016E+03 -4.04574E+03
  1.17667E+04  6.79858E+02  8.90514E+03  6.17122E+03  1.87014E+03  9.13966E+03 -5.06912E+03  8.38236E+03
 -7.09842E+03  2.78509E+03 -3.74917E+03 -1.33534E+03  1.14107E+03 -2.09520E+03  4.74052E+03 -1.04528E+03
  4.13096E+03  3.60395E+03  1.04342E+03  6.46771E+03 -4.31296E+03  6.36766E+03 -7.99366E+03  1.63462E+03
 -4.95580E+03 -3.85816E+03  7.48176E+00 -6.63356E+03  3.79343E+03 -3.29090E+03  3.39136E+03  9.93628E+02
  6.44533E+02  3.45075E+03 -4.15483E+03  4.56246E+03 -4.96142E+03  2.39497E+03 -4.52358E+03 -1.22894E+03
 -2.97528E+03 -6.10913E+03  1.18821E+03 -7.26727E+03  6.18711E+03 -4.80561E+03  6.61858E+03  7.99313E+02
  4.49941E+03  5.61642E+03  2.00097E+02  7.33936E+03 -5.04845E+03  4.10662E+03 -5.68048E+03 -3.92899E+02
 -5.76078E+03 -5.36001E+03 -1.54041E+03 -5.24439E+03  2.70040E+03 -4.78898E+03  2.49618E+03 -2.79723E+03
  2.87904E+03  2.81652E+02  2.70256E+02  1.21085E+03  7.41374E+02 -3.89040E+02 -3.27046E+02 -1.75929E+03
  3.94359E+03 -1.03152E+03  5.16888E+03  5.99442E+02  5.41279E+03  3.01178E+03  5.41178E+03  6.88972E+03
 -1.39034E+03  8.12781E+03 -7.73777E+03  6.23558E+03 -9.61012E+03  1.41405E+03 -7.69728E+03 -2.68482E+03
 -3.95394E+03 -6.46467E+03 -5.87052E+02 -4.96765E+03  2.02397E+03 -2.01146E+03  1.66321E+03 -2.03539E+03
  1.23424E+03 -1.42900E+03  2.28288E+03 -2.43920E+03  3.36639E+03 -1.32649E+03  3.55898E+03  2.07173E+02
  4.40825E+03  1.18611E+03  1.13299E+03  3.51390E+03 -1.51547E+03  2.73940E+03 -4.44646E+03  2.59939E+03
 -4.78039E+03 -1.01871E+03 -1.78535E+03 -3.49541E+03  5.04267E+02 -4.65705E+03  3.11182E+03 -5.20639E+03
  4.99394E+03 -3.09706E+03  6.51104E+03 -1.65444E+02  5.02932E+03  4.19399E+03  1.12305E+03  5.84714E+03
 -1.98310E+03  5.61842E+03 -3.32665E+03  1.71899E+03 -1.69422E+03 -1.11835E+03 -3.69016E+02 -6.26408E+02
 -2.87667E+02  4.82774E+02 -8.38667E+02  2.01636E+03 -2.31952E+03  8.66880E+02 -3.81093E+03 -3.19587E+02
 -1.34056E+03 -4.14400E+03  7.67915E+02 -4.35700E+03  2.58811E+03 -4.35644E+03  3.37364E+03 -1.06445E+03
  3.77219E+03  2.16856E+03  1.90884E+03  3.17511E+03 -7.09084E+02  4.32488E+03 -2.46387E+03  2.39862E+03
 -3.54938E+03  5.67664E+02 -3.28324E+03 -2.11086E+03 -3.15972E+02 -3.03374E+03  1.66427E+03 -2.42913E+03
  2.40421E+03 -1.30561E+03  1.58437E+03  3.69009E+02  4.80820E+02  1.73931E+03  8.67715E+02  4.15470E+02
  1.75868E+03  4.69073E+02  1.05676E+03  1.30095E+03  1.05035E+03  2.18114E+03  1.26454E+03  1.57437E+03
 -1.08765E+03  2.57618E+03 -2.26290E+03  3.69916E+03 -2.65120E+03  1.16300E+03 -3.90999E+03 -3.09048E+02
 -1.46828E+03 -3.38236E+03  5.76387E+02 -4.62001E+03  1.70091E+03 -2.49867E+03  2.59286E+03 -7.28230E+02
  2.34255E+03  1.77508E+03  1.81451E+02  2.20756E+03 -7.55289E+02  1.02472E+03 -8.97680E+02 -3.23510E+02
 -4.61154E+02 -1.28662E+03  1.13660E+03 -1.43021E+03  1.12087E+03 -7.11448E+02  1.05546E+03  2.80935E+02
  6.35257E+02  2.72037E+02  9.28247E+02 -7.30166E+01 -2.52453E+02  5.92221E+02  1.46709E+03 -1.54726E+02
 -2.01263E+02 -3.80554E+02  1.70091E+03  6.22278E+02  1.59852E+02  2.37961E+03 -4.89503E+02  2.68291E+03
 -1.31920E+03  9.56784E+02 -1.72607E+03  3.48033E+02 -1.81254E+03 -6.91267E+02 -2.18862E+01 -9.56642E+02
  4.23140E+02 -1.08087E+03  6.96881E+02 -3.69789E+02  3.26431E+02  1.09390E+03 -6.43418E+02  9.79019E+02
 -1.17860E+03  5.85733E+02 -9.75036E+02 -1.32505E+03 -5.90157E+02 -1.95516E+03  1.64756E+02 -1.39369E+03
 -6.89221E+01 -5.13200E+02  6.18745E+02  2.25275E+02  1.30645E+03 -1.83702E+02  3.62005E+02  1.19434E+03
 -1.84161E+02  3.30332E+02 -1.15052E+03  1.32891E+02  6.08582E+02 -7.58404E+02  1.39137E+03 -6.71744E+02
  1.03318E+03  1.73858E+02  2.54456E+03  5.50801E+02  1.19546E+03  1.34208E+03 -2.28410E+02  1.60315E+03
 -1.22590E+03 -5.23660E+01 -1.44440E+03 -4.38789E+02 -8.70517E+02 -1.14097E+03  5.91190E+02 -2.75343E+02
  1.28840E+03 -4.43645E+02  6.51478E+02  7.91456E+02  1.66154E+02  1.28789E+03  6.51882E+02  1.29443E+03
 -1.81742E+02  1.06907E+03 -4.53516E+02  4.06821E+02  1.47555E+02  3.39983E+02 -8.73840E+02  4.25305E+02
 -3.83368E+02  8.49586E+02 -1.67355E+03  3.05415E+02 -1.45191E+03  1.00566E+02 -1.96403E+03 -9.29658E+02
 -9.13617E+02 -1.80197E+03  4.10886E+02 -2.79616E+03  6.81551E+02 -2.21887E+03  2.32813E+03 -8.36138E+02
  1.97315E+03 -2.70729E+02  8.41793E+02  1.33072E+03 -4.28366E+02  1.39780E+03 -6.14176E+02  1.14728E+03
 -6.40247E+02  6.34201E+02 -2.68004E+02 -1.15451E+02 -5.84880E+02  3.89000E+02 -4.94898E+02  2.02693E+02
 -7.27297E+02  1.01465E+01 -8.77483E+02  2.04840E+02  5.08115E+02 -4.98665E+02 -4.58242E+02 -6.85542E+02
  1.46176E+03 -6.04690E+02  2.86465E+02  2.67519E+02  1.01146E+03  7.82197E+02 -6.32409E+02  1.42235E+03
 -8.98264E+02  1.75500E+03 -1.40760E+03  1.16070E+03 -1.33577E+03 -7.43731E+01 -9.39870E+02 -8.11005E+02
 -7.62809E+02 -9.76477E+02  2.39090E+02 -1.13703E+03  2.58046E+02 -5.56512E+02  5.14344E+02  2.53936E+02
  6.54164E+02  6.15531E+02  4.62765E+01  3.10897E+02 -2.35030E+02 -6.83506E+01  2.04624E+02 -1.22877E+02
  3.74666E+02  3.87640E+02  2.11134E+02  4.85475E+02 -2.68242E+02  4.20473E+02  3.71202E+02  4.61872E+01
 -5.58964E+02  7.63835E+02 -3.55993E+02 -1.71412E+01 -5.06510E+02 -3.32615E+02  3.60866E+01 -9.38616E+02
  5.12128E+02 -5.43498E+02  2.77627E+02  7.13744E+01  8.80270E+02 -4.24562E+02  5.51759E+02  7.08106E+02
  3.89643E+02  2.54195E+02 -1.30888E+02  4.60701E+02 -4.14289E+02  6.87572E+02 -3.42836E+02 -5.66950E+01
 -1.85919E+02  3.87323E+01 -3.37786E+02  1.97934E+02 -4.62343E+02  5.03824E+01 -5.71896E+02  9.00298E+00
 -6.51048E+02  2.69128E+02 -5.02776E+02 -6.58410E+02  4.55360E+02 -1.31898E+03  5.48865E+02 -2.02954E+02
  7.92651E+02 -1.32007E+02 -4.79041E+02  1.37180E+02 -1.14438E+02  4.84444E+02 -1.68703E+02  6.56049E+02
