 $NMID ID='MM_0lb_SNR800_8hz_g50_47.RAW', FMTDAT='(8E13.5)'
 TRAMP=1., VOLUME=1. $END
  3.10091E+05  3.43688E+02  3.38167E+05  2.50718E+05  8.52660E+04  3.38717E+05 -1.33032E+05  2.52138E+05
 -1.91225E+05  8.40654E+04 -1.12717E+05 -3.26611E+04 -1.58439E+01 -5.06120E+04  5.39732E+04 -8.49063E+02
  3.60903E+04  5.28677E+04 -1.62955E+04  7.59704E+04 -6.10916E+04  6.44601E+04 -8.49264E+04  3.29993E+04
 -8.29036E+04 -1.16899E+04 -5.86957E+04 -5.26424E+04 -1.52721E+04 -7.17940E+04  2.83470E+04 -4.71439E+04
  4.12517E+04  3.82926E+03  1.64436E+04  4.86981E+04 -3.47237E+04  4.85077E+04 -6.83148E+04  8.11442E+01
 -5.55186E+04 -5.79844E+04 -7.37285E+03 -7.93873E+04  3.52679E+04 -5.73605E+04  4.96771E+04 -1.83656E+04
  4.56066E+04  1.13633E+04  3.31169E+04  2.66662E+04  1.59113E+04  3.06999E+04 -6.17360E+03  2.81770E+04
 -2.22781E+04  1.16716E+04 -1.74642E+04 -5.68268E+03  6.93692E+03 -7.61301E+03  2.35724E+04  1.38619E+04
  6.93413E+03  3.80475E+04 -3.40004E+04  3.74441E+04 -6.61210E+04  1.71880E+03 -5.92536E+04 -4.48225E+04
 -1.29930E+04 -6.61330E+04  4.22433E+04 -4.78612E+04  6.14404E+04 -2.64082E+03  3.77098E+04  3.45021E+04
 -5.04708E+03  4.03395E+04 -3.18960E+04  1.93179E+04 -3.36713E+04 -3.60847E+03 -1.95608E+04 -1.23570E+04
 -9.35333E+03 -1.56324E+04 -1.03150E+02 -2.03510E+04  8.89727E+03 -2.40896E+04  1.58314E+04 -1.25884E+04
  1.03431E+04  6.42372E+03 -1.08420E+04  1.30307E+04 -2.35782E+04 -7.08466E+03 -8.60698E+03 -3.81196E+04
  2.56172E+04 -4.77041E+04  5.30516E+04 -2.09092E+04  4.92112E+04  2.08522E+04  1.78375E+04  4.77511E+04
 -1.65414E+04  3.65136E+04 -2.77451E+04  2.49985E+03 -1.20082E+04 -2.98465E+04  2.16036E+04 -3.73187E+04
  4.56154E+04 -1.15304E+04  4.15978E+04  2.48899E+04  2.24472E+04  5.17652E+04 -8.45156E+03  5.69852E+04
 -3.59819E+04  3.93871E+04 -4.83712E+04  1.13458E+04 -4.86480E+04 -1.91046E+04 -2.65171E+04 -4.27831E+04
  7.85570E+03 -4.29980E+04  3.44678E+04 -1.77486E+04  3.29794E+04  1.15270E+04  5.47704E+03  2.08160E+04
 -1.38133E+04  1.00701E+04 -1.13220E+04 -7.61869E+03  5.84999E+03 -1.19368E+04  1.93448E+04  5.33873E+03
  1.50018E+04  2.27238E+04 -4.74778E+03  2.76131E+04 -2.36700E+04  1.49674E+04 -3.22910E+04 -2.66666E+03
 -2.65276E+04 -1.86704E+04 -1.27089E+04 -2.57518E+04  4.12920E+03 -2.74596E+04  2.02988E+04 -2.38720E+04
  3.27491E+04 -1.47341E+04  3.89770E+04  5.19423E+03  2.73572E+04  2.52338E+04  4.41761E+03  4.23625E+04
 -1.99454E+04  3.45103E+04 -3.12448E+04  1.21592E+04 -2.25465E+04 -1.04878E+04 -5.40279E+03 -1.30358E+04
  3.22384E+02 -5.55976E+02 -8.33007E+03  8.42151E+03 -2.09247E+04  5.16561E+03 -2.12797E+04 -9.84192E+03
 -1.23420E+04 -2.43200E+04  6.49351E+03 -2.85139E+04  1.93020E+04 -2.02228E+04  2.36708E+04 -1.40576E+03
  1.51054E+04  1.67318E+04 -1.78901E+03  2.41920E+04 -1.77615E+04  1.40373E+04 -2.48370E+04 -4.73704E+03
 -1.78121E+04 -2.16355E+04 -2.62568E+03 -2.92677E+04  1.33022E+04 -2.41167E+04  2.41646E+04 -1.27469E+04
  2.28258E+04 -2.56465E+02  1.69356E+04  5.78256E+03  9.20340E+03  1.66855E+03  1.29135E+04 -2.37110E+03
  2.26451E+04  2.96819E+03  2.63669E+04  1.87663E+04  1.83823E+04  3.94003E+04 -2.76572E+03  4.62511E+04
 -2.63373E+04  3.89399E+04 -4.42639E+04  1.98064E+04 -4.69211E+04 -3.22887E+03 -3.77617E+04 -2.71403E+04
 -1.45899E+04 -3.95845E+04  1.37337E+04 -3.43585E+04  2.93957E+04 -1.59648E+04  2.51340E+04  8.11320E+03
  8.42658E+03  1.96228E+04 -1.22666E+04  1.63138E+04 -2.08954E+04  2.40523E+03 -1.57974E+04 -1.29545E+04
 -5.53617E+02 -2.01458E+04  1.08306E+04 -1.54777E+04  1.39927E+04 -1.13360E+03  3.31199E+03  9.32559E+03
 -9.33948E+03  4.44941E+03 -9.82920E+03 -7.02389E+03 -2.41588E+03 -1.93881E+04  1.26609E+04 -2.10693E+04
  2.39557E+04 -1.26629E+04  2.77783E+04  2.97464E+03  2.44669E+04  1.94410E+04  1.15041E+04  3.13989E+04
 -6.34891E+03  3.30242E+04 -2.22932E+04  1.99711E+04 -2.44890E+04  4.08279E+03 -1.64262E+04 -6.31267E+03
 -6.96908E+03 -7.89924E+03 -4.65669E+02  7.69147E+02 -3.12761E+03  3.84401E+03 -7.84232E+03  5.80121E+03
 -1.51563E+04 -8.35181E+02 -1.57712E+04 -1.22601E+04 -6.31420E+03 -1.98357E+04  7.02668E+03 -1.66937E+04
  1.39226E+04 -6.96413E+03  9.77809E+03  4.82320E+03 -3.31357E+02  6.82352E+03 -8.42169E+03 -2.47810E+02
 -8.02648E+03 -1.07619E+04 -1.34363E+03 -1.72123E+04  9.37865E+03 -1.75234E+04  2.10758E+04 -9.53034E+03
  2.52354E+04  2.94646E+03  1.82509E+04  1.60073E+04  3.67118E+03  2.06366E+04 -1.01791E+04  1.67403E+04
 -1.33726E+04  4.81140E+03 -7.44524E+03 -3.72829E+03  2.04855E+03 -4.80266E+03  8.45450E+03 -1.14307E+03
  8.32735E+03  7.81029E+03  1.27970E+03  1.36366E+04 -1.00083E+04  1.32205E+04 -1.61671E+04  3.32138E+03
 -1.17580E+04 -9.20521E+03 -1.36150E+02 -1.47290E+04  9.42925E+03 -7.73380E+03  1.02119E+04  3.47036E+03
  2.94380E+03  1.14636E+04 -8.71435E+03  1.25677E+04 -1.47694E+04  5.82143E+03 -1.58754E+04 -5.56271E+03
 -8.50288E+03 -1.72553E+04  4.42365E+03 -1.95975E+04  1.69420E+04 -1.19306E+04  1.87179E+04  3.49425E+03
  1.07033E+04  1.45561E+04 -1.37505E+03  1.69461E+04 -1.28294E+04  9.55465E+03 -1.40747E+04 -1.80598E+03
 -1.13771E+04 -1.16382E+04 -1.61957E+03 -1.29177E+04  6.97762E+03 -1.06615E+04  8.40643E+03 -3.84431E+03
  5.57876E+03  2.29808E+03 -1.08743E+03  2.21761E+03 -1.23512E+03 -3.94991E+03  2.95803E+03 -8.20824E+03
  1.28303E+04 -5.28618E+03  1.78366E+04  2.46429E+03  1.74270E+04  1.20057E+04  1.06573E+04  2.24670E+04
 -5.34677E+03  2.65064E+04 -2.19854E+04  1.91631E+04 -2.82654E+04  3.47634E+03 -2.30098E+04 -9.66239E+03
 -1.14282E+04 -1.87558E+04 -8.62436E+02 -1.61935E+04  5.81793E+03 -9.06328E+03  6.10757E+03 -5.35454E+03
  4.04144E+03 -3.48300E+03  4.51090E+03 -4.04273E+03  6.39141E+03 -3.50186E+03  8.41531E+03 -1.74340E+03
  1.16321E+04  2.79875E+03  6.40303E+03  1.01492E+04 -2.14970E+03  1.25173E+04 -1.25362E+04  9.69196E+03
 -1.63231E+04 -1.35311E+03 -1.05706E+04 -1.12820E+04 -1.83537E+03 -1.72610E+04  8.90358E+03 -1.74899E+04
  1.83770E+04 -9.82083E+03  2.14901E+04  3.45699E+03  1.46992E+04  1.57948E+04  1.78816E+03  1.99481E+04
 -8.52090E+03  1.56905E+04 -1.13645E+04  5.78410E+03 -7.92330E+03 -1.67410E+03 -3.52801E+03 -2.01406E+03
 -1.38246E+03 -3.47022E+02 -2.29724E+03  3.30543E+03 -6.96271E+03  3.25438E+03 -1.10848E+04 -1.62205E+03
 -8.07473E+03 -1.17386E+04 -1.90679E+02 -1.61180E+04  1.01115E+04 -1.52260E+04  1.67877E+04 -4.64786E+03
  1.65539E+04  8.24155E+03  7.54436E+03  1.50104E+04 -3.65355E+03  1.64461E+04 -1.21783E+04  1.03480E+04
 -1.55738E+04  5.76202E+01 -1.17289E+04 -9.88081E+03 -1.15966E+03 -1.41983E+04  7.63597E+03 -1.04980E+04
  1.09588E+04 -3.03566E+03  6.69045E+03  3.29536E+03  2.39081E+03  4.85004E+03  1.42272E+03  2.42357E+03
  3.17792E+03  1.15162E+03  3.88942E+03  2.10763E+03  5.15919E+03  5.70722E+03  4.21679E+03  9.11950E+03
 -3.17163E+03  1.35738E+04 -1.19287E+04  1.33248E+04 -1.77518E+04  3.39174E+03 -1.81341E+04 -7.55041E+03
 -8.61480E+03 -1.73035E+04  2.51628E+03 -1.86632E+04  1.05733E+04 -1.20606E+04  1.41237E+04 -3.14170E+03
  1.08559E+04  6.21112E+03  2.45859E+03  1.01864E+04 -4.87899E+03  6.24196E+03 -7.12188E+03 -1.41007E+03
 -3.65682E+03 -7.46143E+03  4.27417E+03 -7.47674E+03  7.03025E+03 -3.73387E+03  6.76719E+03  1.60659E+03
  3.93343E+03  3.77765E+03  1.47126E+03  3.39802E+03 -9.72953E+02  2.82813E+03  1.82681E+03 -7.16295E+02
  2.91492E+03 -1.19748E+03  6.72235E+03  2.68908E+03  4.43259E+03  9.05399E+03 -1.18806E+03  1.22695E+04
 -8.13579E+03  7.94168E+03 -1.13000E+04  1.97580E+03 -9.97561E+03 -3.95898E+03 -3.95428E+03 -7.45329E+03
  1.30459E+03 -6.57988E+03  4.53910E+03 -3.41044E+03  4.00876E+03  2.91213E+03 -1.72664E+03  5.79439E+03
 -7.20261E+03  3.49154E+03 -8.23378E+03 -3.83580E+03 -4.34886E+03 -9.68864E+03  1.58327E+03 -1.01897E+04
  5.79491E+03 -5.96002E+03  7.22561E+03 -1.00209E+03  5.90478E+03  2.81726E+03  1.16511E+03  5.24222E+03
 -3.58521E+03  1.74591E+03 -4.23543E+03 -3.70769E+03  1.42338E+03 -7.66052E+03  9.07148E+03 -6.20040E+03
  1.12910E+04  1.06621E+03  1.07353E+04  7.93974E+03  3.81518E+03  1.24272E+04 -4.15248E+03  1.10940E+04
 -9.19632E+03  4.53319E+03 -9.95474E+03 -1.69276E+03 -5.99370E+03 -7.42753E+03  1.51574E+03 -7.52040E+03
  7.44899E+03 -3.50235E+03  6.23294E+03  2.95216E+03  2.10005E+03  6.80736E+03 -1.47873E+03  6.01887E+03
 -3.13859E+03  3.58376E+03 -2.96209E+03  1.11188E+03 -1.27805E+03  1.38610E+03 -2.13152E+03  2.14484E+03
 -3.22569E+03  4.41687E+03 -7.67081E+03  4.17282E+03 -1.19215E+04 -1.17303E+02 -1.30481E+04 -8.01352E+03
 -6.65027E+03 -1.58792E+04  3.00990E+03 -1.80933E+04  1.18255E+04 -1.38942E+04  1.69933E+04 -5.68341E+03
  1.59835E+04  3.72447E+03  9.94125E+03  1.12817E+04  6.71991E+02  1.26813E+04 -4.40333E+03  8.95265E+03
 -7.17367E+03  3.28770E+03 -4.41743E+03 -1.54732E+03 -1.65657E+03 -1.66517E+03 -8.81685E+02 -3.90303E+02
 -1.65799E+03  2.13252E+01 -2.69128E+03 -4.84203E+02 -8.35401E+02 -3.02741E+03  3.57512E+02 -4.66823E+03
  5.31700E+03 -3.60018E+03  7.43441E+03  1.16782E+02  8.88610E+03  6.70492E+03  2.58208E+03  1.25995E+04
 -5.68646E+03  1.40789E+04 -1.31898E+04  8.07644E+03 -1.53552E+04 -1.10872E+03 -1.16151E+04 -9.17907E+03
 -4.34884E+03 -1.27015E+04  3.92739E+03 -1.19791E+04  8.15129E+03 -6.04200E+03  8.22614E+03  1.84093E+02
  4.38649E+03  4.57565E+03 -7.24597E+02  3.70390E+03 -2.20029E+03 -5.37121E+02 -9.38597E+01 -3.13151E+03
  4.03482E+03 -2.46318E+03  4.75978E+03  1.22642E+03  3.86331E+03  5.07532E+03  1.41790E+01  7.34739E+03
 -5.53939E+03  5.73879E+03 -9.01100E+03  3.81643E+02 -7.72242E+03 -6.27239E+03 -1.33745E+03 -1.10804E+04
  6.12824E+03 -9.25823E+03  1.01213E+04 -2.70434E+03  9.95261E+03  2.53150E+03  5.85739E+03  8.35496E+03
  1.18059E+03  8.73562E+03 -3.23823E+03  7.07991E+03 -5.33449E+03  3.34278E+03 -3.89403E+03  3.56106E+02
 -2.32705E+03 -4.53788E+02 -2.71193E+03  1.27463E+03 -4.69621E+03  1.25865E+03 -6.41487E+03 -9.61055E+02
 -6.57188E+03 -4.77829E+03 -2.09165E+03 -8.71616E+03  4.06830E+03 -8.67342E+03  7.29182E+03 -4.01567E+03
  8.88591E+03  1.34759E+03  4.75426E+03  6.58171E+03 -5.94579E+02  8.33812E+03 -6.70569E+03  5.36135E+03
