 $NMID ID='MM_0lb_SNR800_8hz_g50_48.RAW', FMTDAT='(8E13.5)'
 TRAMP=1., VOLUME=1. $END
  3.10206E+05  6.66715E+02  3.37899E+05  2.50880E+05  8.46050E+04  3.38786E+05 -1.32849E+05  2.51850E+05
 -1.90669E+05  8.41237E+04 -1.12395E+05 -3.20643E+04 -1.44841E+02 -5.05999E+04  5.37064E+04 -8.71030E+02
  3.54453E+04  5.27902E+04 -1.61813E+04  7.58316E+04 -6.10900E+04  6.44467E+04 -8.52278E+04  3.24562E+04
 -8.25521E+04 -1.11568E+04 -5.85315E+04 -5.24193E+04 -1.51904E+04 -7.14107E+04  2.83063E+04 -4.70473E+04
  4.11630E+04  4.02637E+03  1.67125E+04  4.86705E+04 -3.46416E+04  4.82358E+04 -6.86524E+04 -1.05689E+01
 -5.53617E+04 -5.77197E+04 -7.89138E+03 -7.96023E+04  3.49496E+04 -5.76722E+04  4.97024E+04 -1.87894E+04
  4.55862E+04  1.16727E+04  3.32606E+04  2.64950E+04  1.62297E+04  3.10555E+04 -5.92940E+03  2.77633E+04
 -2.26499E+04  1.20930E+04 -1.79232E+04 -6.07168E+03  7.36383E+03 -7.60404E+03  2.36359E+04  1.36346E+04
  7.05713E+03  3.74001E+04 -3.42605E+04  3.77749E+04 -6.63520E+04  1.92259E+03 -5.93822E+04 -4.45868E+04
 -1.24946E+04 -6.62590E+04  4.20195E+04 -4.78310E+04  6.17079E+04 -2.12188E+03  3.72035E+04  3.47269E+04
 -4.91238E+03  3.99846E+04 -3.17351E+04  1.86809E+04 -3.38207E+04 -3.61798E+03 -1.95702E+04 -1.22094E+04
 -9.70841E+03 -1.54410E+04 -1.51155E+02 -1.96674E+04  8.62930E+03 -2.33196E+04  1.63904E+04 -1.22849E+04
  1.03894E+04  6.13240E+03 -1.04982E+04  1.28993E+04 -2.40410E+04 -7.37755E+03 -8.59099E+03 -3.82572E+04
  2.54448E+04 -4.77378E+04  5.26484E+04 -2.10436E+04  4.95181E+04  2.12821E+04  1.74242E+04  4.77606E+04
 -1.70265E+04  3.63859E+04 -2.81915E+04  2.84604E+03 -1.17070E+04 -2.99707E+04  2.19260E+04 -3.72410E+04
  4.54107E+04 -1.16217E+04  4.14416E+04  2.51687E+04  2.22341E+04  5.17136E+04 -8.41922E+03  5.73073E+04
 -3.65183E+04  3.90029E+04 -4.87089E+04  1.14717E+04 -4.87197E+04 -1.90608E+04 -2.61779E+04 -4.29528E+04
  7.60564E+03 -4.28738E+04  3.40063E+04 -1.75013E+04  3.26402E+04  1.13107E+04  5.50443E+03  2.10963E+04
 -1.39138E+04  1.04723E+04 -1.13338E+04 -7.84932E+03  5.45402E+03 -1.18131E+04  1.90853E+04  5.53537E+03
  1.49352E+04  2.28293E+04 -4.98826E+03  2.74885E+04 -2.40716E+04  1.44362E+04 -3.23033E+04 -2.62110E+03
 -2.63885E+04 -1.89982E+04 -1.23029E+04 -2.61431E+04  4.78143E+03 -2.73538E+04  2.05935E+04 -2.37150E+04
  3.35074E+04 -1.48133E+04  3.95418E+04  5.35294E+03  2.78060E+04  2.54470E+04  4.75691E+03  4.25245E+04
 -2.00795E+04  3.53192E+04 -3.11773E+04  1.18536E+04 -2.27296E+04 -9.83403E+03 -4.90691E+03 -1.28491E+04
  9.58981E+02 -7.66708E+02 -7.99212E+03  8.52408E+03 -2.10016E+04  4.73216E+03 -2.11770E+04 -1.02164E+04
 -1.25280E+04 -2.41568E+04  6.22725E+03 -2.89365E+04  1.94315E+04 -2.01289E+04  2.35464E+04 -1.72380E+03
  1.50434E+04  1.70022E+04 -1.34378E+03  2.45204E+04 -1.74154E+04  1.37401E+04 -2.47839E+04 -4.85755E+03
 -1.82961E+04 -2.16111E+04 -1.92932E+03 -2.92345E+04  1.34998E+04 -2.41972E+04  2.42547E+04 -1.28628E+04
  2.24423E+04 -3.37337E+02  1.63672E+04  5.29920E+03  9.32410E+03  1.99233E+03  1.28617E+04 -2.16752E+03
  2.26925E+04  2.89941E+03  2.66008E+04  1.93912E+04  1.81364E+04  3.94825E+04 -2.71632E+03  4.60495E+04
 -2.63409E+04  3.85432E+04 -4.43925E+04  2.02329E+04 -4.73466E+04 -3.01797E+03 -3.81937E+04 -2.70788E+04
 -1.47511E+04 -3.93815E+04  1.43522E+04 -3.44233E+04  2.91447E+04 -1.60515E+04  2.51194E+04  8.26227E+03
  8.29082E+03  1.99828E+04 -1.18429E+04  1.64277E+04 -2.10618E+04  3.10902E+03 -1.61567E+04 -1.35356E+04
 -5.71909E+02 -2.02418E+04  1.12448E+04 -1.49577E+04  1.39006E+04 -8.75132E+02  3.52715E+03  8.93493E+03
 -8.98708E+03  4.48898E+03 -9.64123E+03 -7.69735E+03 -2.11038E+03 -1.88810E+04  1.28839E+04 -2.11263E+04
  2.40736E+04 -1.18776E+04  2.79294E+04  3.62011E+03  2.47307E+04  1.93289E+04  1.16653E+04  3.11632E+04
 -6.46644E+03  3.26520E+04 -2.16512E+04  2.05118E+04 -2.43159E+04  4.34568E+03 -1.64461E+04 -6.39226E+03
 -7.00529E+03 -7.51980E+03 -2.59097E+02  6.49691E+02 -3.08515E+03  3.79752E+03 -7.86599E+03  5.21021E+03
 -1.50235E+04 -8.14001E+02 -1.53198E+04 -1.29042E+04 -6.41284E+03 -2.07382E+04  6.95817E+03 -1.63517E+04
  1.37981E+04 -6.87875E+03  9.60507E+03  4.72515E+03 -8.17306E+02  6.90628E+03 -8.33508E+03 -2.74539E+02
 -8.29390E+03 -1.06793E+04 -9.64143E+02 -1.64561E+04  9.94437E+03 -1.77120E+04  2.18321E+04 -9.39541E+03
  2.53484E+04  2.14794E+03  1.82208E+04  1.55491E+04  3.25441E+03  2.05602E+04 -1.01874E+04  1.67968E+04
 -1.36493E+04  4.24875E+03 -6.85146E+03 -3.37232E+03  2.37352E+03 -4.97192E+03  9.02006E+03 -9.02235E+02
  8.14263E+03  7.68326E+03  1.04694E+03  1.36681E+04 -9.72706E+03  1.25545E+04 -1.66702E+04  2.86174E+03
 -1.13583E+04 -8.62140E+03  2.29450E+02 -1.40991E+04  9.33669E+03 -7.18467E+03  1.02345E+04  3.39152E+03
  2.34186E+03  1.15453E+04 -8.99925E+03  1.26567E+04 -1.47647E+04  5.54224E+03 -1.52534E+04 -5.53354E+03
 -8.58015E+03 -1.76149E+04  4.47014E+03 -1.95900E+04  1.67659E+04 -1.16020E+04  1.85869E+04  3.20932E+03
  1.05913E+04  1.45744E+04 -1.89276E+03  1.74159E+04 -1.29311E+04  9.53588E+03 -1.39194E+04 -1.36629E+03
 -1.11581E+04 -1.14138E+04 -1.83444E+03 -1.35702E+04  6.65327E+03 -1.04975E+04  8.65700E+03 -4.07112E+03
  5.49457E+03  2.20810E+03 -1.27497E+03  2.21154E+03 -1.06758E+03 -4.25823E+03  3.50427E+03 -8.03321E+03
  1.29996E+04 -5.69831E+03  1.78228E+04  1.86183E+03  1.74633E+04  1.22639E+04  1.05325E+04  2.36469E+04
 -5.69262E+03  2.65054E+04 -2.16028E+04  1.97602E+04 -2.83100E+04  3.73035E+03 -2.31122E+04 -1.00118E+04
 -1.13903E+04 -1.86444E+04 -2.72875E+02 -1.61653E+04  5.70098E+03 -8.99145E+03  5.67032E+03 -5.64794E+03
  4.45060E+03 -3.23095E+03  4.04417E+03 -4.52609E+03  6.16821E+03 -3.97211E+03  8.86460E+03 -1.67619E+03
  1.21336E+04  2.41950E+03  6.62838E+03  1.04758E+04 -2.55219E+03  1.28228E+04 -1.24664E+04  9.80950E+03
 -1.63076E+04 -1.41212E+03 -1.11524E+04 -1.17452E+04 -1.82255E+03 -1.78443E+04  9.59743E+03 -1.74382E+04
  1.81685E+04 -9.84727E+03  2.21564E+04  3.17001E+03  1.47307E+04  1.54000E+04  1.80227E+03  1.96755E+04
 -8.46682E+03  1.56770E+04 -1.13009E+04  5.92316E+03 -7.56328E+03 -1.90754E+03 -3.03037E+03 -2.93611E+03
 -1.65990E+03 -4.69602E+02 -3.12299E+03  3.88145E+03 -6.70031E+03  2.49349E+03 -1.15214E+04 -1.34023E+03
 -8.72387E+03 -1.12191E+04  3.27151E+02 -1.66965E+04  1.03808E+04 -1.53705E+04  1.66032E+04 -4.83417E+03
  1.65779E+04  7.62129E+03  7.80811E+03  1.47914E+04 -3.35770E+03  1.67490E+04 -1.19208E+04  1.03609E+04
 -1.58863E+04  4.46632E+02 -1.21009E+04 -1.03856E+04 -1.39385E+03 -1.35193E+04  7.36178E+03 -1.01732E+04
  1.02885E+04 -3.13926E+03  7.39126E+03  3.23263E+03  2.78158E+03  4.64040E+03  1.85505E+03  2.53229E+03
  2.88290E+03  1.76558E+03  3.95212E+03  2.48824E+03  5.34497E+03  5.88861E+03  4.44932E+03  9.16132E+03
 -3.31330E+03  1.35297E+04 -1.20523E+04  1.32838E+04 -1.76419E+04  3.43411E+03 -1.76480E+04 -7.51139E+03
 -8.38255E+03 -1.73689E+04  2.34426E+03 -1.84103E+04  1.05303E+04 -1.23298E+04  1.36604E+04 -3.76616E+03
  1.06622E+04  6.28104E+03  2.82353E+03  9.78781E+03 -4.79718E+03  6.37641E+03 -7.11234E+03 -1.06003E+03
 -3.56796E+03 -7.04644E+03  3.93049E+03 -7.42850E+03  7.51641E+03 -3.54459E+03  7.19567E+03  1.68417E+03
  4.40740E+03  3.41317E+03  1.64593E+03  2.75899E+03 -1.17131E+03  2.37297E+03  1.61646E+03 -7.15304E+02
  2.74096E+03 -8.55770E+02  7.25821E+03  2.93404E+03  4.60614E+03  9.37745E+03 -1.65812E+03  1.22062E+04
 -8.14130E+03  8.40797E+03 -1.16572E+04  2.23957E+03 -9.77910E+03 -4.03540E+03 -4.00338E+03 -6.96424E+03
  8.35605E+02 -7.01087E+03  4.68730E+03 -3.44749E+03  4.07150E+03  3.27902E+03 -1.78385E+03  5.90763E+03
 -6.83009E+03  3.11549E+03 -8.46163E+03 -4.38427E+03 -4.75679E+03 -9.06484E+03  1.31771E+03 -9.73612E+03
  5.50701E+03 -5.75311E+03  6.91331E+03 -1.20993E+03  5.69652E+03  3.25534E+03  3.50411E+02  5.46681E+03
 -3.27752E+03  1.37682E+03 -4.45390E+03 -3.61219E+03  1.87690E+03 -7.78482E+03  8.42763E+03 -6.39075E+03
  1.16061E+04  7.84599E+02  1.05596E+04  7.86729E+03  3.18935E+03  1.18075E+04 -4.84928E+03  1.12475E+04
 -9.35539E+03  4.83066E+03 -1.02009E+04 -2.05592E+03 -5.37367E+03 -7.38326E+03  2.14208E+03 -7.33159E+03
  7.68202E+03 -3.79711E+03  6.94683E+03  3.00703E+03  2.09075E+03  6.19306E+03 -1.35870E+03  5.54641E+03
 -3.02382E+03  3.55777E+03 -2.97067E+03  9.83093E+02 -1.59047E+03  1.06087E+03 -1.73820E+03  2.15774E+03
 -2.67207E+03  4.76326E+03 -7.87177E+03  3.98868E+03 -1.15464E+04  1.47943E+02 -1.30356E+04 -7.85623E+03
 -6.54252E+03 -1.61482E+04  2.93942E+03 -1.81394E+04  1.14071E+04 -1.44277E+04  1.70349E+04 -4.97847E+03
  1.59001E+04  3.59328E+03  1.00759E+04  1.08996E+04  8.86736E+02  1.29148E+04 -4.85423E+03  9.28082E+03
 -7.12120E+03  3.19401E+03 -3.84722E+03 -1.52730E+03 -1.02600E+03 -1.33904E+03 -3.90369E+02 -9.08319E+01
 -1.70481E+03  5.31803E+02 -2.59392E+03 -8.30792E+02 -1.29476E+03 -3.08155E+03  8.47702E+01 -4.40511E+03
  5.65775E+03 -3.59765E+03  8.09081E+03  4.79928E+02  8.81847E+03  7.04156E+03  2.75432E+03  1.27374E+04
 -5.97186E+03  1.42560E+04 -1.36212E+04  8.06077E+03 -1.52911E+04 -1.07436E+03 -1.14986E+04 -9.23034E+03
 -4.53068E+03 -1.28993E+04  3.14667E+03 -1.18950E+04  7.87621E+03 -6.72150E+03  8.30129E+03  3.32443E+02
  4.47465E+03  4.23102E+03 -5.72346E+02  3.86355E+03 -2.18857E+03 -2.30334E+02 -9.15247E+00 -3.30899E+03
  4.05240E+03 -2.00117E+03  5.12202E+03  1.70223E+03  3.67541E+03  4.68493E+03  5.85588E+01  6.77113E+03
 -5.29214E+03  5.74498E+03 -8.08695E+03  9.73262E+02 -7.25095E+03 -6.56792E+03 -1.43345E+03 -1.07315E+04
  6.08963E+03 -8.47537E+03  9.92910E+03 -3.09914E+03  1.00193E+04  2.97338E+03  5.69070E+03  7.73724E+03
  1.03201E+03  8.33271E+03 -3.10216E+03  7.06864E+03 -5.33848E+03  3.48273E+03 -4.29388E+03  8.59157E+02
 -2.58038E+03 -5.06908E+02 -2.29343E+03  1.17294E+03 -4.46729E+03  1.59604E+03 -6.34094E+03 -7.02696E+02
 -6.24902E+03 -4.46424E+03 -1.75877E+03 -8.79653E+03  3.72880E+03 -8.58032E+03  7.55259E+03 -4.40728E+03
  8.48199E+03  8.08100E+02  5.11182E+03  5.87284E+03 -7.27188E+02  8.60477E+03 -6.63735E+03  5.37729E+03
