 $NMID ID='MM_0lb_SNR800_10hz_g60_52.RAW', FMTDAT='(8E13.5)'
 TRAMP=1., VOLUME=1. $END
  3.10153E+05  2.87424E+02  3.37837E+05  2.50482E+05  8.49676E+04  3.38415E+05 -1.32622E+05  2.52292E+05
 -1.90558E+05  8.40469E+04 -1.12689E+05 -3.25157E+04  2.52389E+02 -5.08977E+04  5.39058E+04 -8.77797E+01
  3.54639E+04  5.26929E+04 -1.65568E+04  7.56093E+04 -6.08948E+04  6.43560E+04 -8.57009E+04  3.24249E+04
 -8.22189E+04 -1.19644E+04 -5.81206E+04 -5.27427E+04 -1.54220E+04 -7.13923E+04  2.82185E+04 -4.64679E+04
  4.10964E+04  4.02984E+03  1.67312E+04  4.86237E+04 -3.49307E+04  4.84760E+04 -6.83902E+04  1.33849E+02
 -5.51528E+04 -5.79197E+04 -7.34522E+03 -7.94478E+04  3.50746E+04 -5.72840E+04  4.95366E+04 -1.80715E+04
  4.51313E+04  1.13273E+04  3.30425E+04  2.68250E+04  1.61717E+04  3.05604E+04 -6.04497E+03  2.75393E+04
 -2.22950E+04  1.19358E+04 -1.74664E+04 -5.69621E+03  6.85259E+03 -7.87749E+03  2.36723E+04  1.38751E+04
  7.17065E+03  3.72403E+04 -3.38527E+04  3.72686E+04 -6.59708E+04  2.07898E+03 -5.86028E+04 -4.47065E+04
 -1.25905E+04 -6.59325E+04  4.18316E+04 -4.74630E+04  6.13210E+04 -2.83926E+03  3.71578E+04  3.45260E+04
 -5.42621E+03  3.91501E+04 -3.22193E+04  1.89847E+04 -3.32269E+04 -3.29995E+03 -1.92553E+04 -1.17838E+04
 -9.64352E+03 -1.49987E+04 -5.20471E+02 -1.99611E+04  8.41518E+03 -2.34804E+04  1.57691E+04 -1.24586E+04
  1.03729E+04  6.26731E+03 -1.05633E+04  1.29274E+04 -2.35983E+04 -7.14436E+03 -8.67364E+03 -3.76411E+04
  2.49488E+04 -4.69561E+04  5.23847E+04 -2.10386E+04  4.86305E+04  2.07148E+04  1.74899E+04  4.77092E+04
 -1.64880E+04  3.63299E+04 -2.80403E+04  3.06829E+03 -1.19176E+04 -2.98482E+04  2.17028E+04 -3.67819E+04
  4.42784E+04 -1.13741E+04  4.06974E+04  2.46213E+04  2.15877E+04  5.14151E+04 -8.21974E+03  5.63813E+04
 -3.58308E+04  3.83905E+04 -4.79493E+04  1.11253E+04 -4.78458E+04 -1.87017E+04 -2.62427E+04 -4.24728E+04
  7.58518E+03 -4.23013E+04  3.44741E+04 -1.69939E+04  3.21366E+04  1.10515E+04  5.53378E+03  2.12825E+04
 -1.34547E+04  1.00013E+04 -1.10081E+04 -7.37937E+03  5.56195E+03 -1.16426E+04  1.87414E+04  5.97466E+03
  1.47138E+04  2.22992E+04 -5.14179E+03  2.71863E+04 -2.32685E+04  1.46673E+04 -3.17963E+04 -2.90689E+03
 -2.54687E+04 -1.86700E+04 -1.17578E+04 -2.54456E+04  4.43676E+03 -2.58075E+04  2.00260E+04 -2.31748E+04
  3.22040E+04 -1.44455E+04  3.85575E+04  4.76379E+03  2.74637E+04  2.45099E+04  4.11431E+03  4.12181E+04
 -2.01695E+04  3.41259E+04 -3.05455E+04  1.19443E+04 -2.24479E+04 -9.68691E+03 -5.32527E+03 -1.26882E+04
  7.55626E+02 -1.00424E+03 -8.01079E+03  8.34574E+03 -2.03484E+04  4.82392E+03 -2.03261E+04 -9.72404E+03
 -1.20903E+04 -2.34775E+04  6.37915E+03 -2.76964E+04  1.88043E+04 -2.02256E+04  2.27620E+04 -1.67181E+03
  1.45589E+04  1.62448E+04 -1.03703E+03  2.31475E+04 -1.68161E+04  1.34309E+04 -2.38566E+04 -4.47737E+03
 -1.69074E+04 -2.13409E+04 -1.90271E+03 -2.80919E+04  1.34204E+04 -2.32888E+04  2.33679E+04 -1.24058E+04
  2.20155E+04 -2.99237E+02  1.59461E+04  4.97344E+03  8.55851E+03  1.48099E+03  1.20861E+04 -2.23606E+03
  2.20218E+04  2.93152E+03  2.54651E+04  1.83868E+04  1.73565E+04  3.76053E+04 -2.50982E+03  4.49304E+04
 -2.53637E+04  3.71879E+04 -4.18380E+04  1.92629E+04 -4.44743E+04 -3.37324E+03 -3.59796E+04 -2.65851E+04
 -1.42298E+04 -3.76623E+04  1.30365E+04 -3.27688E+04  2.81433E+04 -1.51711E+04  2.41306E+04  7.71891E+03
  8.29665E+03  1.87594E+04 -1.15466E+04  1.58361E+04 -2.05253E+04  2.59413E+03 -1.52530E+04 -1.28090E+04
 -2.01205E+02 -1.94763E+04  1.09506E+04 -1.44479E+04  1.34683E+04 -1.21413E+03  3.39023E+03  8.95715E+03
 -9.10267E+03  4.12013E+03 -9.11223E+03 -6.82327E+03 -1.94264E+03 -1.85750E+04  1.19072E+04 -1.97104E+04
  2.28607E+04 -1.14009E+04  2.63983E+04  3.37745E+03  2.31763E+04  1.85575E+04  1.04804E+04  2.93982E+04
 -5.51509E+03  3.08362E+04 -2.01899E+04  1.94244E+04 -2.25040E+04  3.94449E+03 -1.51639E+04 -5.91891E+03
 -6.31440E+03 -7.08801E+03 -6.41636E+02  1.42207E+02 -2.80666E+03  3.41251E+03 -7.21362E+03  5.63059E+03
 -1.38561E+04 -8.37111E+02 -1.47756E+04 -1.15343E+04 -5.91861E+03 -1.90936E+04  6.51403E+03 -1.60704E+04
  1.28166E+04 -6.30331E+03  9.24340E+03  3.95493E+03 -2.71928E+02  6.18018E+03 -7.47373E+03 -1.95049E+02
 -7.83673E+03 -9.87303E+03 -9.08315E+02 -1.52184E+04  8.92365E+03 -1.64632E+04  1.98260E+04 -8.89552E+03
  2.36211E+04  2.56169E+03  1.71950E+04  1.43006E+04  3.41139E+03  1.90750E+04 -9.31592E+03  1.52481E+04
 -1.29223E+04  4.46700E+03 -6.57016E+03 -3.38699E+03  2.10376E+03 -4.51783E+03  8.05130E+03 -8.04504E+02
  7.39324E+03  7.12511E+03  1.51728E+03  1.28081E+04 -9.14461E+03  1.18518E+04 -1.55602E+04  2.93933E+03
 -1.03663E+04 -7.92503E+03  5.59607E+02 -1.31991E+04  8.59740E+03 -6.66391E+03  9.59446E+03  3.48627E+03
  2.37664E+03  9.84581E+03 -8.37652E+03  1.13911E+04 -1.33685E+04  5.08655E+03 -1.34291E+04 -5.01282E+03
 -7.51117E+03 -1.57159E+04  4.01833E+03 -1.77053E+04  1.49910E+04 -1.07383E+04  1.64052E+04  2.79578E+03
  9.93387E+03  1.36281E+04 -1.79023E+03  1.58215E+04 -1.15466E+04  8.64080E+03 -1.25474E+04 -1.50447E+03
 -1.11530E+04 -9.99077E+03 -1.72471E+03 -1.19175E+04  6.35809E+03 -9.28468E+03  7.29667E+03 -3.72605E+03
  5.25406E+03  1.77459E+03 -1.21224E+03  2.04240E+03 -8.50790E+02 -3.41623E+03  2.31182E+03 -7.23794E+03
  1.12059E+04 -4.79774E+03  1.55889E+04  1.73512E+03  1.55511E+04  1.09851E+04  9.79094E+03  2.06250E+04
 -4.79705E+03  2.34514E+04 -1.94961E+04  1.78335E+04 -2.52647E+04  3.10528E+03 -2.00825E+04 -8.79833E+03
 -9.69314E+03 -1.66663E+04 -1.67974E+02 -1.44500E+04  5.35257E+03 -8.42200E+03  5.19207E+03 -4.79491E+03
  3.77817E+03 -3.10719E+03  3.42245E+03 -3.88079E+03  5.69557E+03 -3.64860E+03  7.91850E+03 -1.38539E+03
  1.04921E+04  2.60828E+03  5.88274E+03  9.23760E+03 -2.31746E+03  1.10744E+04 -1.12058E+04  8.35523E+03
 -1.43463E+04 -1.28540E+03 -9.15735E+03 -1.00026E+04 -1.02153E+03 -1.52942E+04  8.33846E+03 -1.54535E+04
  1.60515E+04 -8.27529E+03  1.89253E+04  2.40613E+03  1.30151E+04  1.33475E+04  2.41111E+03  1.71280E+04
 -7.01072E+03  1.38405E+04 -1.02884E+04  4.93905E+03 -6.85031E+03 -1.48248E+03 -2.73259E+03 -1.79929E+03
 -1.42799E+03 -1.16800E+02 -2.01383E+03  2.72262E+03 -6.16616E+03  2.38897E+03 -1.00121E+04 -1.12346E+03
 -7.28614E+03 -9.69108E+03 -1.57571E+02 -1.42011E+04  8.77119E+03 -1.38221E+04  1.41625E+04 -4.08074E+03
  1.37845E+04  6.75252E+03  6.62648E+03  1.28304E+04 -2.96755E+03  1.44644E+04 -1.01295E+04  8.78038E+03
 -1.33857E+04  4.12628E+02 -1.07985E+04 -8.53279E+03 -1.08786E+03 -1.20493E+04  6.26259E+03 -9.05691E+03
  9.12159E+03 -2.74891E+03  6.06236E+03  2.64680E+03  2.03122E+03  3.83745E+03  1.33268E+03  2.16629E+03
  2.71111E+03  1.24363E+03  3.31199E+03  1.82583E+03  4.29099E+03  4.78708E+03  3.72334E+03  7.70711E+03
 -3.08557E+03  1.13058E+04 -9.75782E+03  1.12854E+04 -1.47165E+04  2.99542E+03 -1.49625E+04 -6.00097E+03
 -7.16975E+03 -1.46369E+04  2.08481E+03 -1.56689E+04  8.37864E+03 -1.03671E+04  1.16823E+04 -2.53456E+03
  8.65084E+03  5.14384E+03  1.76693E+03  8.24683E+03 -3.96848E+03  5.46924E+03 -5.69983E+03 -7.69452E+02
 -2.75205E+03 -6.06375E+03  3.01356E+03 -6.28758E+03  6.03726E+03 -3.18492E+03  5.55298E+03  1.65856E+03
  3.28241E+03  3.32505E+03  1.14260E+03  2.71600E+03 -8.19788E+02  2.27547E+03  2.06189E+03 -3.60509E+02
  2.34479E+03 -8.11976E+02  6.00994E+03  2.48898E+03  3.38407E+03  7.54530E+03 -1.59209E+03  9.85238E+03
 -6.97840E+03  6.48438E+03 -9.48034E+03  1.69040E+03 -8.64430E+03 -3.45780E+03 -2.97728E+03 -6.01994E+03
  5.98123E+02 -5.59319E+03  3.44691E+03 -2.55841E+03  2.97180E+03  2.81702E+03 -1.26467E+03  4.78335E+03
 -6.00890E+03  3.12131E+03 -7.00092E+03 -3.43268E+03 -3.89615E+03 -7.58675E+03  1.20909E+03 -7.76962E+03
  4.57948E+03 -4.53073E+03  5.89492E+03 -3.39530E+02  4.54710E+03  1.69506E+03  9.42011E+02  3.86080E+03
 -3.03402E+03  1.00889E+03 -3.50996E+03 -3.05979E+03  1.45931E+03 -6.11740E+03  6.97535E+03 -4.82257E+03
  9.00961E+03  6.72005E+02  8.64349E+03  5.89300E+03  2.86112E+03  9.15835E+03 -2.98028E+03  8.73907E+03
 -7.65574E+03  3.75406E+03 -8.11565E+03 -1.02944E+03 -4.08564E+03 -6.21119E+03  1.34380E+03 -5.70247E+03
  5.63861E+03 -2.99461E+03  4.72582E+03  2.23477E+03  1.70026E+03  4.99802E+03 -8.86341E+02  4.66427E+03
 -2.42070E+03  2.68204E+03 -2.04086E+03  8.30884E+02 -8.74482E+02  7.92847E+02 -1.67488E+03  1.96215E+03
 -2.18894E+03  3.48333E+03 -6.10144E+03  2.94555E+03 -9.27140E+03  4.27563E+01 -1.05583E+04 -5.89657E+03
 -5.04041E+03 -1.21752E+04  2.19223E+03 -1.40733E+04  9.25117E+03 -1.10405E+04  1.31368E+04 -3.93135E+03
  1.23884E+04  2.78759E+03  7.54651E+03  8.89107E+03  5.51287E+02  9.58949E+03 -4.16112E+03  7.12582E+03
 -5.69763E+03  2.63683E+03 -3.27283E+03 -1.19643E+03 -1.01525E+03 -9.19542E+02 -7.62984E+02 -2.52877E+02
 -1.44193E+03  3.79234E+02 -2.18881E+03 -6.04698E+02 -7.18785E+02 -2.17742E+03  2.40680E+02 -3.47750E+03
  4.32827E+03 -2.91970E+03  5.74664E+03  1.20020E+02  6.82852E+03  4.96669E+03  1.63686E+03  9.18241E+03
 -4.55035E+03  1.04447E+04 -9.77604E+03  6.04716E+03 -1.11164E+04 -1.07986E+03 -8.35334E+03 -7.20552E+03
 -3.60533E+03 -9.95653E+03  2.04219E+03 -8.89640E+03  6.02241E+03 -4.57643E+03  5.94531E+03  2.54162E+02
  3.67022E+03  2.97669E+03 -1.16292E+02  2.82649E+03 -1.58192E+03 -2.79497E+02  5.39239E+01 -2.39146E+03
  3.28671E+03 -1.25246E+03  3.87813E+03  1.07626E+03  2.30961E+03  3.48665E+03  2.99096E+02  4.91707E+03
 -4.43125E+03  4.19227E+03 -6.18052E+03  6.25462E+02 -5.57948E+03 -4.32866E+03 -9.14094E+02 -7.69337E+03
  4.42924E+03 -6.20684E+03  7.35731E+03 -2.16312E+03  6.97085E+03  1.68380E+03  4.21467E+03  5.55129E+03
  1.24769E+03  5.81487E+03 -2.21448E+03  5.22771E+03 -4.02953E+03  2.73017E+03 -3.33062E+03  1.94129E+02
 -1.78117E+03 -3.09843E+02 -1.89460E+03  8.26000E+02 -2.88345E+03  1.13973E+03 -4.51655E+03 -1.02809E+03
 -4.64419E+03 -2.96738E+03 -1.39787E+03 -5.89707E+03  2.96042E+03 -6.37555E+03  5.66210E+03 -3.38590E+03
  6.08262E+03  5.41460E+02  3.61626E+03  4.53678E+03 -4.82507E+02  6.13565E+03 -4.60946E+03  3.65433E+03
