 $NMID ID='MM_0lb_SNR800_9hz_g45_75.RAW', FMTDAT='(8E13.5)'
 TRAMP=1., VOLUME=1. $END
  3.09921E+05  7.24959E+02  3.37781E+05  2.50849E+05  8.45865E+04  3.38618E+05 -1.32863E+05  2.51636E+05
 -1.90714E+05  8.35463E+04 -1.12716E+05 -3.24678E+04  5.83764E+02 -5.11012E+04  5.36996E+04 -6.34046E+02
  3.59035E+04  5.27959E+04 -1.65416E+04  7.57174E+04 -6.09899E+04  6.42195E+04 -8.51429E+04  3.23020E+04
 -8.24469E+04 -1.20351E+04 -5.79693E+04 -5.22841E+04 -1.49218E+04 -7.06816E+04  2.82162E+04 -4.64748E+04
  4.06090E+04  3.54670E+03  1.66807E+04  4.82940E+04 -3.47896E+04  4.76978E+04 -6.79054E+04 -2.88840E+02
 -5.49919E+04 -5.75464E+04 -7.14305E+03 -7.87642E+04  3.47385E+04 -5.67781E+04  4.94995E+04 -1.82611E+04
  4.50784E+04  1.14785E+04  3.29702E+04  2.62409E+04  1.60077E+04  3.03715E+04 -5.53701E+03  2.74190E+04
 -2.24119E+04  1.18261E+04 -1.76297E+04 -5.36822E+03  6.91763E+03 -7.47656E+03  2.35511E+04  1.35405E+04
  7.23459E+03  3.69046E+04 -3.39307E+04  3.70517E+04 -6.56873E+04  2.31331E+03 -5.85377E+04 -4.44412E+04
 -1.26894E+04 -6.52532E+04  4.12540E+04 -4.69500E+04  6.11213E+04 -2.70980E+03  3.62043E+04  3.45076E+04
 -5.64297E+03  3.88612E+04 -3.17196E+04  1.85399E+04 -3.29258E+04 -3.74696E+03 -1.91448E+04 -1.15911E+04
 -9.64874E+03 -1.50707E+04 -2.23116E+02 -1.94242E+04  8.51404E+03 -2.35662E+04  1.60865E+04 -1.28034E+04
  1.07996E+04  6.61086E+03 -1.04410E+04  1.27570E+04 -2.31679E+04 -6.57968E+03 -8.62255E+03 -3.71076E+04
  2.46617E+04 -4.62873E+04  5.15213E+04 -2.07520E+04  4.84584E+04  2.08157E+04  1.73280E+04  4.66044E+04
 -1.66716E+04  3.57333E+04 -2.74943E+04  2.48140E+03 -1.17558E+04 -2.92485E+04  2.19728E+04 -3.66449E+04
  4.40631E+04 -1.07798E+04  4.01806E+04  2.48677E+04  2.08829E+04  5.03161E+04 -8.17083E+03  5.51943E+04
 -3.49482E+04  3.77668E+04 -4.70948E+04  1.10459E+04 -4.68027E+04 -1.80566E+04 -2.57259E+04 -4.18770E+04
  7.89836E+03 -4.15377E+04  3.38758E+04 -1.68575E+04  3.17930E+04  1.13108E+04  5.09321E+03  2.07084E+04
 -1.38561E+04  9.44857E+03 -1.09004E+04 -7.86749E+03  5.72218E+03 -1.10699E+04  1.85295E+04  5.24845E+03
  1.47241E+04  2.27203E+04 -5.53036E+03  2.71571E+04 -2.28939E+04  1.41287E+04 -3.11736E+04 -3.03128E+03
 -2.52044E+04 -1.82920E+04 -1.16392E+04 -2.45544E+04  4.58557E+03 -2.51850E+04  1.94814E+04 -2.26168E+04
  3.14119E+04 -1.39031E+04  3.73861E+04  4.47965E+03  2.66845E+04  2.40158E+04  4.28606E+03  4.09388E+04
 -2.02088E+04  3.35420E+04 -3.06936E+04  1.15411E+04 -2.25642E+04 -1.02900E+04 -5.16256E+03 -1.28547E+04
  8.93804E+02 -1.50949E+03 -7.43578E+03  8.09816E+03 -1.97846E+04  4.88963E+03 -1.98186E+04 -9.40318E+03
 -1.16735E+04 -2.25387E+04  5.78579E+03 -2.73285E+04  1.86906E+04 -1.96697E+04  2.24050E+04 -1.72200E+03
  1.37860E+04  1.57637E+04 -1.53067E+03  2.26125E+04 -1.61716E+04  1.31135E+04 -2.32562E+04 -4.73517E+03
 -1.67626E+04 -2.10061E+04 -2.37308E+03 -2.79542E+04  1.24740E+04 -2.28738E+04  2.24558E+04 -1.18866E+04
  2.12672E+04 -4.16681E+02  1.59901E+04  5.18918E+03  8.66535E+03  1.29357E+03  1.18600E+04 -1.75982E+03
  2.16136E+04  2.87318E+03  2.50522E+04  1.78777E+04  1.67976E+04  3.70566E+04 -2.83272E+03  4.31592E+04
 -2.47583E+04  3.61112E+04 -4.12116E+04  1.80744E+04 -4.36101E+04 -3.15791E+03 -3.54391E+04 -2.53382E+04
 -1.41370E+04 -3.64815E+04  1.31885E+04 -3.23867E+04  2.77868E+04 -1.57225E+04  2.36628E+04  7.41706E+03
  8.09285E+03  1.82624E+04 -1.14111E+04  1.52171E+04 -1.93426E+04  2.40730E+03 -1.50638E+04 -1.25305E+04
 -4.69413E+02 -1.90503E+04  1.03004E+04 -1.38636E+04  1.31164E+04 -1.05365E+03  3.27489E+03  8.55029E+03
 -8.40079E+03  4.01591E+03 -8.52028E+03 -6.75822E+03 -1.90268E+03 -1.75229E+04  1.16850E+04 -1.89777E+04
  2.22941E+04 -1.06032E+04  2.57625E+04  3.14232E+03  2.19910E+04  1.81721E+04  9.95441E+03  2.81747E+04
 -4.98263E+03  3.05336E+04 -2.00942E+04  1.85977E+04 -2.18764E+04  3.93722E+03 -1.48833E+04 -5.80046E+03
 -6.86700E+03 -7.04140E+03 -7.17636E+02  4.44880E+02 -2.93013E+03  3.31924E+03 -7.12838E+03  5.37298E+03
 -1.39721E+04 -1.04098E+03 -1.47941E+04 -1.16242E+04 -5.95991E+03 -1.89898E+04  6.54528E+03 -1.56863E+04
  1.27537E+04 -6.05651E+03  9.07937E+03  3.93647E+03  1.80013E+01  5.94451E+03 -7.95146E+03 -6.14901E+02
 -7.47494E+03 -9.96191E+03 -9.33435E+02 -1.49536E+04  9.13855E+03 -1.59676E+04  1.94444E+04 -8.60918E+03
  2.26617E+04  1.99176E+03  1.66235E+04  1.38123E+04  2.93437E+03  1.87643E+04 -9.60929E+03  1.50032E+04
 -1.22406E+04  4.57146E+03 -6.56477E+03 -3.62764E+03  1.94829E+03 -4.47870E+03  8.53391E+03 -1.33285E+03
  6.81518E+03  6.98609E+03  1.29455E+03  1.24394E+04 -8.87192E+03  1.20186E+04 -1.51690E+04  2.85456E+03
 -1.05739E+04 -7.71149E+03  1.66213E+02 -1.31161E+04  8.72775E+03 -6.49205E+03  9.38054E+03  3.34454E+03
  2.26237E+03  1.00770E+04 -7.67874E+03  1.14886E+04 -1.31721E+04  5.22932E+03 -1.34219E+04 -4.46721E+03
 -7.71491E+03 -1.52866E+04  3.72492E+03 -1.79361E+04  1.51932E+04 -1.04659E+04  1.61833E+04  2.74780E+03
  9.64531E+03  1.31145E+04 -1.58003E+03  1.54990E+04 -1.15124E+04  8.61673E+03 -1.21117E+04 -1.01082E+03
 -1.05105E+04 -1.03107E+04 -1.82370E+03 -1.19660E+04  6.49702E+03 -9.60394E+03  7.66236E+03 -3.24473E+03
  4.62721E+03  1.92071E+03 -9.68588E+02  2.33253E+03 -6.95484E+02 -3.13524E+03  2.55709E+03 -7.45348E+03
  1.09191E+04 -4.36632E+03  1.56249E+04  1.72273E+03  1.50981E+04  1.04953E+04  9.96865E+03  2.01803E+04
 -5.02221E+03  2.35503E+04 -1.95188E+04  1.70332E+04 -2.53924E+04  3.12634E+03 -2.04481E+04 -8.73005E+03
 -9.96205E+03 -1.65712E+04  9.63036E+01 -1.44851E+04  5.24589E+03 -7.84032E+03  4.74138E+03 -5.49135E+03
  3.77814E+03 -2.98257E+03  3.81578E+03 -4.25199E+03  5.79295E+03 -3.25527E+03  7.79621E+03 -1.58654E+03
  1.06410E+04  2.16413E+03  5.84519E+03  8.91478E+03 -2.00901E+03  1.10844E+04 -1.17582E+04  8.30018E+03
 -1.40867E+04 -1.45893E+03 -9.14032E+03 -9.66000E+03 -1.11214E+03 -1.54741E+04  8.45646E+03 -1.47091E+04
  1.59395E+04 -8.45284E+03  1.90213E+04  2.77854E+03  1.34055E+04  1.35188E+04  2.11445E+03  1.72916E+04
 -7.10497E+03  1.39047E+04 -1.04237E+04  4.79026E+03 -6.86536E+03 -1.43553E+03 -2.79919E+03 -2.01648E+03
 -1.46757E+03  1.79110E+02 -2.27729E+03  2.80139E+03 -5.64681E+03  2.23981E+03 -9.98203E+03 -1.61380E+03
 -7.31918E+03 -9.85429E+03 -1.00888E+02 -1.42702E+04  8.31314E+03 -1.32053E+04  1.40500E+04 -3.62015E+03
  1.39707E+04  7.08989E+03  6.48157E+03  1.28874E+04 -2.87449E+03  1.44100E+04 -1.03231E+04  8.60609E+03
 -1.35158E+04  7.50122E+02 -9.69705E+03 -8.75771E+03 -1.19300E+03 -1.18844E+04  6.17130E+03 -9.05223E+03
  9.70462E+03 -2.86332E+03  6.47694E+03  2.36571E+03  1.84529E+03  3.91822E+03  1.16289E+03  2.43507E+03
  2.55505E+03  1.52185E+03  3.35501E+03  1.68142E+03  4.92458E+03  5.23660E+03  3.92576E+03  7.49407E+03
 -2.90400E+03  1.15636E+04 -9.84549E+03  1.15433E+04 -1.50879E+04  2.97582E+03 -1.56009E+04 -5.92999E+03
 -6.85626E+03 -1.47908E+04  2.33541E+03 -1.62125E+04  9.32124E+03 -1.00737E+04  1.16914E+04 -2.51094E+03
  9.03823E+03  5.46495E+03  2.62945E+03  8.27577E+03 -4.23824E+03  5.52195E+03 -6.16927E+03 -8.88487E+02
 -2.48861E+03 -6.26233E+03  3.40720E+03 -6.29929E+03  5.75786E+03 -3.71090E+03  5.89083E+03  1.32346E+03
  3.72209E+03  2.63858E+03  1.57967E+03  2.33919E+03 -3.31834E+02  2.11630E+03  1.58443E+03 -1.07631E+02
  2.55790E+03 -8.89198E+02  5.76146E+03  2.43927E+03  3.24369E+03  8.01974E+03 -1.00882E+03  1.02557E+04
 -7.22597E+03  6.59488E+03 -8.92917E+03  1.72401E+03 -8.54346E+03 -3.53437E+03 -3.48812E+03 -5.85716E+03
  1.06096E+03 -5.56839E+03  3.84512E+03 -2.66673E+03  3.06567E+03  3.31005E+03 -1.39865E+03  4.75722E+03
 -6.22345E+03  3.22527E+03 -6.99028E+03 -3.54520E+03 -3.53869E+03 -8.14733E+03  1.12036E+03 -7.86143E+03
  4.79204E+03 -5.24464E+03  5.73983E+03 -4.58106E+02  4.93757E+03  2.34256E+03  1.09479E+03  4.17501E+03
 -2.98602E+03  1.41328E+03 -3.81079E+03 -2.68879E+03  1.68646E+03 -6.45355E+03  7.42077E+03 -5.66660E+03
  9.57570E+03  5.92136E+02  9.17857E+03  5.88333E+03  2.73618E+03  9.69497E+03 -3.76165E+03  9.41201E+03
 -7.80057E+03  4.04161E+03 -8.04807E+03 -1.34193E+03 -4.35283E+03 -6.45799E+03  1.39880E+03 -5.85563E+03
  5.81002E+03 -3.12968E+03  5.36227E+03  3.02755E+03  1.73288E+03  5.37504E+03 -1.16312E+03  4.57396E+03
 -2.62830E+03  2.88157E+03 -2.65700E+03  7.32182E+02 -7.68558E+02  9.08297E+02 -2.00997E+03  1.87165E+03
 -2.61403E+03  3.85344E+03 -6.51779E+03  3.22470E+03 -9.58442E+03  9.29259E+01 -1.05091E+04 -6.40849E+03
 -5.55598E+03 -1.32213E+04  2.93676E+03 -1.50655E+04  8.81111E+03 -1.18356E+04  1.39964E+04 -4.64930E+03
  1.29727E+04  2.93394E+03  8.08221E+03  8.96833E+03  6.68043E+02  1.03490E+04 -3.98572E+03  7.08791E+03
 -5.56536E+03  2.74992E+03 -3.16093E+03 -1.35850E+03 -1.18824E+03 -1.00790E+03 -6.27398E+02  4.07340E+01
 -1.73020E+03  4.58725E+02 -2.57148E+03 -4.13673E+02 -7.89524E+02 -2.43557E+03 -8.88214E+01 -3.79945E+03
  4.25282E+03 -3.36629E+03  6.09024E+03 -1.82047E+02  7.05292E+03  5.59251E+03  1.77277E+03  1.02053E+04
 -4.92659E+03  1.15626E+04 -1.07829E+04  6.65414E+03 -1.25614E+04 -1.18232E+03 -9.35314E+03 -7.43563E+03
 -3.80001E+03 -1.07050E+04  2.92623E+03 -9.53838E+03  6.33847E+03 -5.67716E+03  6.84767E+03  3.82657E+02
  3.78533E+03  3.45087E+03 -2.38783E+02  3.04911E+03 -2.07490E+03 -2.23877E+02 -3.37798E+01 -2.50455E+03
  3.03015E+03 -1.41981E+03  4.32990E+03  9.93078E+02  2.60895E+03  4.10517E+03 -1.35693E+02  5.68819E+03
 -4.75130E+03  5.08007E+03 -6.87247E+03  7.39830E+02 -5.98166E+03 -4.86571E+03 -8.98751E+02 -8.45361E+03
  4.81797E+03 -7.17104E+03  7.46277E+03 -2.47008E+03  8.04420E+03  2.00978E+03  4.36598E+03  6.57189E+03
  1.07601E+03  6.70882E+03 -2.97523E+03  5.29074E+03 -4.24478E+03  3.13472E+03 -3.72094E+03  3.15117E+02
 -1.54122E+03  1.58897E+02 -1.96670E+03  8.35681E+02 -3.55533E+03  8.93453E+02 -5.44057E+03 -9.23133E+02
 -4.81213E+03 -3.70192E+03 -1.99083E+03 -6.58726E+03  3.13472E+03 -7.03609E+03  6.50473E+03 -3.23074E+03
  6.98228E+03  1.05858E+03  3.94497E+03  4.65039E+03 -5.08082E+02  6.96810E+03 -5.26468E+03  4.53459E+03
