 $NMID ID='MM_0lb_SNR800_7hz_g60_46.RAW', FMTDAT='(8E13.5)'
 TRAMP=1., VOLUME=1. $END
  3.10150E+05  3.92914E+02  3.37660E+05  2.50446E+05  8.47864E+04  3.38803E+05 -1.32966E+05  2.52172E+05
 -1.91205E+05  8.44451E+04 -1.13279E+05 -3.22749E+04  1.43502E+02 -5.05414E+04  5.35957E+04 -8.71528E+02
  3.59602E+04  5.27513E+04 -1.68303E+04  7.59464E+04 -6.13408E+04  6.46238E+04 -8.60135E+04  3.27154E+04
 -8.34127E+04 -1.20922E+04 -5.87504E+04 -5.32829E+04 -1.49884E+04 -7.15126E+04  2.86886E+04 -4.73392E+04
  4.13792E+04  3.50042E+03  1.71814E+04  4.93321E+04 -3.50249E+04  4.88478E+04 -6.89051E+04  2.80392E+02
 -5.56956E+04 -5.84330E+04 -7.20384E+03 -7.96862E+04  3.55537E+04 -5.80552E+04  5.08793E+04 -1.88961E+04
  4.62029E+04  1.22277E+04  3.34208E+04  2.70057E+04  1.59701E+04  3.16654E+04 -5.88925E+03  2.80046E+04
 -2.23821E+04  1.21155E+04 -1.79242E+04 -6.43315E+03  7.50301E+03 -7.59065E+03  2.40335E+04  1.43394E+04
  7.05444E+03  3.84806E+04 -3.47379E+04  3.78492E+04 -6.76000E+04  2.21547E+03 -5.98958E+04 -4.55414E+04
 -1.26901E+04 -6.78062E+04  4.26410E+04 -4.86325E+04  6.25579E+04 -2.50346E+03  3.83160E+04  3.55721E+04
 -5.26945E+03  4.14132E+04 -3.31201E+04  2.04418E+04 -3.50706E+04 -2.73159E+03 -2.08283E+04 -1.24780E+04
 -1.00289E+04 -1.63694E+04 -4.94353E+02 -2.01998E+04  8.71253E+03 -2.38393E+04  1.65128E+04 -1.25793E+04
  1.01148E+04  6.79467E+03 -1.16380E+04  1.28507E+04 -2.46892E+04 -7.58842E+03 -8.96123E+03 -3.99486E+04
  2.68382E+04 -4.88546E+04  5.42643E+04 -2.19294E+04  5.07485E+04  2.16336E+04  1.77465E+04  4.85777E+04
 -1.68671E+04  3.73541E+04 -2.92369E+04  2.92220E+03 -1.24711E+04 -3.06057E+04  2.20918E+04 -3.83700E+04
  4.63275E+04 -1.22060E+04  4.35739E+04  2.55067E+04  2.30908E+04  5.34955E+04 -8.10813E+03  6.01089E+04
 -3.73390E+04  4.08666E+04 -5.10825E+04  1.18354E+04 -5.04921E+04 -1.98025E+04 -2.74314E+04 -4.48639E+04
  7.98137E+03 -4.48807E+04  3.57336E+04 -1.82148E+04  3.35064E+04  1.14516E+04  5.99683E+03  2.17414E+04
 -1.42898E+04  1.03474E+04 -1.21536E+04 -7.16502E+03  5.59021E+03 -1.20356E+04  1.98119E+04  5.11027E+03
  1.54839E+04  2.23857E+04 -4.55519E+03  2.81302E+04 -2.41191E+04  1.59234E+04 -3.37654E+04 -1.51432E+03
 -2.80411E+04 -1.92409E+04 -1.39219E+04 -2.77320E+04  4.47277E+03 -2.91493E+04  2.22996E+04 -2.56852E+04
  3.57834E+04 -1.55429E+04  4.11580E+04  5.90505E+03  2.90175E+04  2.71845E+04  4.76815E+03  4.42829E+04
 -2.12567E+04  3.66754E+04 -3.18041E+04  1.20430E+04 -2.35531E+04 -9.59945E+03 -5.38337E+03 -1.21306E+04
  1.71454E+02 -9.78436E+01 -9.78563E+03  8.66551E+03 -2.31582E+04  4.83781E+03 -2.22819E+04 -1.13878E+04
 -1.29587E+04 -2.58154E+04  6.87889E+03 -3.08248E+04  2.09539E+04 -2.20621E+04  2.56640E+04 -2.00026E+03
  1.68508E+04  1.78081E+04 -1.99611E+03  2.61800E+04 -1.94009E+04  1.50996E+04 -2.69687E+04 -5.24854E+03
 -1.90487E+04 -2.34799E+04 -2.24605E+03 -3.13404E+04  1.38320E+04 -2.59096E+04  2.60394E+04 -1.40467E+04
  2.44626E+04 -5.81397E+02  1.79825E+04  6.08543E+03  1.01718E+04  1.89382E+03  1.33613E+04 -2.45154E+03
  2.50738E+04  3.31281E+03  2.92709E+04  2.00146E+04  2.02268E+04  4.23600E+04 -2.75326E+03  5.06943E+04
 -2.86600E+04  4.32552E+04 -4.83018E+04  2.28923E+04 -5.16240E+04 -3.40307E+03 -4.18431E+04 -3.04393E+04
 -1.59039E+04 -4.29802E+04  1.57098E+04 -3.73919E+04  3.22248E+04 -1.69956E+04  2.72377E+04  9.29125E+03
  8.59602E+03  2.13331E+04 -1.30829E+04  1.79485E+04 -2.23963E+04  2.43257E+03 -1.66315E+04 -1.43810E+04
 -5.93486E+02 -2.18615E+04  1.19163E+04 -1.56062E+04  1.59970E+04 -1.46965E+03  4.10633E+03  1.01269E+04
 -9.92509E+03  5.49295E+03 -1.15153E+04 -7.70418E+03 -2.80061E+03 -2.11202E+04  1.39422E+04 -2.31925E+04
  2.68375E+04 -1.37379E+04  3.23726E+04  3.66255E+03  2.83999E+04  2.22740E+04  1.26875E+04  3.55214E+04
 -7.36145E+03  3.72417E+04 -2.43609E+04  2.27521E+04 -2.70059E+04  4.26063E+03 -1.83600E+04 -7.64044E+03
 -6.88677E+03 -9.52852E+03 -5.47410E+02 -7.12054E+01 -3.04374E+03  4.30364E+03 -8.80623E+03  6.57340E+03
 -1.66544E+04 -1.13507E+03 -1.68264E+04 -1.36786E+04 -6.71118E+03 -2.25078E+04  7.52909E+03 -1.90055E+04
  1.54097E+04 -8.29197E+03  1.09523E+04  5.25578E+03 -9.68564E+02  7.91995E+03 -9.48321E+03 -1.93379E+02
 -9.33448E+03 -1.16202E+04 -8.35209E+02 -1.85701E+04  1.09530E+04 -1.99356E+04  2.39007E+04 -1.10558E+04
  2.85664E+04  3.19424E+03  2.03201E+04  1.73795E+04  3.80606E+03  2.32167E+04 -1.19357E+04  1.88854E+04
 -1.46324E+04  5.63139E+03 -8.14484E+03 -4.36723E+03  2.67480E+03 -5.26218E+03  9.53415E+03 -1.22010E+03
  8.70028E+03  8.33887E+03  9.64093E+02  1.50365E+04 -1.13715E+04  1.47133E+04 -1.89727E+04  3.43645E+03
 -1.36020E+04 -9.81784E+03  1.18073E+02 -1.62347E+04  1.11794E+04 -8.31615E+03  1.17904E+04  4.27375E+03
  3.49127E+03  1.27431E+04 -9.57475E+03  1.44070E+04 -1.68984E+04  6.23769E+03 -1.83222E+04 -7.04614E+03
 -1.04493E+04 -2.01413E+04  5.05901E+03 -2.28484E+04  1.93402E+04 -1.39211E+04  2.11643E+04  4.22536E+03
  1.23954E+04  1.63807E+04 -2.24075E+03  1.95458E+04 -1.41719E+04  1.13561E+04 -1.57691E+04 -1.74888E+03
 -1.30423E+04 -1.30004E+04 -1.88084E+03 -1.53862E+04  8.14208E+03 -1.15416E+04  1.00101E+04 -4.34322E+03
  6.16345E+03  2.67527E+03 -1.87170E+03  1.94512E+03 -1.36380E+03 -4.65985E+03  3.60212E+03 -9.76930E+03
  1.47251E+04 -6.93974E+03  2.10952E+04  2.39465E+03  2.01257E+04  1.46482E+04  1.25798E+04  2.72410E+04
 -6.68078E+03  3.07246E+04 -2.56405E+04  2.26611E+04 -3.30375E+04  4.47390E+03 -2.65689E+04 -1.15939E+04
 -1.30696E+04 -2.15209E+04 -3.51227E+02 -1.85138E+04  6.77571E+03 -1.09382E+04  6.66995E+03 -6.97327E+03
  5.29468E+03 -3.92042E+03  4.88347E+03 -4.73120E+03  7.22024E+03 -5.04698E+03  1.02709E+04 -2.17343E+03
  1.41165E+04  3.40687E+03  8.21087E+03  1.19791E+04 -2.61178E+03  1.54233E+04 -1.44334E+04  1.13933E+04
 -1.90481E+04 -1.68005E+03 -1.30702E+04 -1.33868E+04 -2.12934E+03 -2.11112E+04  1.10642E+04 -2.08709E+04
  2.20891E+04 -1.14624E+04  2.56557E+04  3.56301E+03  1.75636E+04  1.83500E+04  2.62550E+03  2.35528E+04
 -9.78670E+03  1.82469E+04 -1.34605E+04  6.59216E+03 -1.00176E+04 -2.26128E+03 -3.92517E+03 -2.81741E+03
 -1.89361E+03 -2.82859E+02 -3.02632E+03  3.07629E+03 -7.54960E+03  3.06977E+03 -1.25931E+04 -1.90424E+03
 -1.02206E+04 -1.35630E+04 -5.66656E+02 -2.02276E+04  1.21366E+04 -1.83084E+04  1.99981E+04 -5.85088E+03
  1.96607E+04  9.26613E+03  9.37192E+03  1.80310E+04 -3.92678E+03  1.99538E+04 -1.50158E+04  1.25698E+04
 -1.92301E+04  6.29878E+02 -1.45810E+04 -1.24229E+04 -1.82668E+03 -1.70458E+04  9.10339E+03 -1.23432E+04
  1.25855E+04 -3.97690E+03  8.38150E+03  3.43952E+03  3.61221E+03  5.62273E+03  1.94492E+03  3.09284E+03
  2.97661E+03  1.62949E+03  4.44920E+03  2.12793E+03  6.06171E+03  6.83340E+03  5.38900E+03  1.16656E+04
 -3.83031E+03  1.64844E+04 -1.43845E+04  1.58704E+04 -2.17262E+04  3.58680E+03 -2.16112E+04 -9.74284E+03
 -1.06545E+04 -2.09170E+04  3.14430E+03 -2.21367E+04  1.27153E+04 -1.45625E+04  1.76145E+04 -3.92454E+03
  1.31033E+04  7.64768E+03  3.00631E+03  1.18820E+04 -5.59452E+03  8.02596E+03 -8.89458E+03 -1.16928E+03
 -3.74097E+03 -9.34891E+03  4.37802E+03 -9.65316E+03  8.95321E+03 -4.35088E+03  8.95933E+03  1.41303E+03
  5.09951E+03  4.81339E+03  1.59060E+03  4.37364E+03 -8.80378E+02  2.64671E+03  2.19502E+03 -1.01084E+03
  3.62109E+03 -1.75313E+03  8.46142E+03  2.93477E+03  5.46946E+03  1.12804E+04 -1.88180E+03  1.50737E+04
 -1.05298E+04  1.02427E+04 -1.39235E+04  3.02537E+03 -1.20116E+04 -4.53876E+03 -5.19211E+03 -8.89436E+03
  1.22537E+03 -8.13634E+03  5.75442E+03 -3.83327E+03  5.06642E+03  3.61508E+03 -2.35224E+03  7.15538E+03
 -9.46360E+03  4.47876E+03 -1.07091E+04 -4.72879E+03 -5.85911E+03 -1.09208E+04  2.45960E+03 -1.21365E+04
  7.15397E+03 -7.49695E+03  9.31214E+03 -1.00444E+03  6.88233E+03  3.50923E+03  9.45319E+02  6.70128E+03
 -4.29085E+03  1.87938E+03 -5.48714E+03 -4.61695E+03  1.75661E+03 -9.63786E+03  1.14376E+04 -7.87226E+03
  1.45604E+04  9.05438E+02  1.33209E+04  9.53087E+03  3.97896E+03  1.53381E+04 -5.94944E+03  1.36804E+04
 -1.16964E+04  6.62866E+03 -1.24864E+04 -1.86514E+03 -7.10474E+03 -9.61879E+03  2.85900E+03 -9.18392E+03
  9.34841E+03 -4.14434E+03  7.76230E+03  3.95810E+03  2.26142E+03  7.72122E+03 -1.90475E+03  7.00835E+03
 -3.49992E+03  4.07007E+03 -3.77376E+03  1.25951E+03 -2.11171E+03  1.24836E+03 -2.30228E+03  2.71322E+03
 -3.89348E+03  5.67227E+03 -9.69616E+03  4.99837E+03 -1.49378E+04 -3.21715E+02 -1.62121E+04 -9.98263E+03
 -8.59994E+03 -1.97633E+04  3.66058E+03 -2.32123E+04  1.44321E+04 -1.76111E+04  2.18272E+04 -7.03137E+03
  2.05524E+04  4.52231E+03  1.25164E+04  1.42192E+04  2.31367E+03  1.60480E+04 -6.48947E+03  1.17387E+04
 -8.51595E+03  4.23837E+03 -5.67291E+03 -1.51087E+03 -1.81475E+03 -1.57806E+03 -5.03063E+02 -4.13580E+02
 -2.48668E+03  1.42414E+02 -3.32199E+03 -7.74840E+02 -1.91370E+03 -3.73159E+03  4.57817E+02 -5.77993E+03
  6.43993E+03 -5.11294E+03  1.01928E+04 -2.27955E+02  1.15576E+04  8.62753E+03  3.75790E+03  1.57561E+04
 -7.25613E+03  1.80158E+04 -1.71617E+04  1.05580E+04 -1.98317E+04 -1.84564E+03 -1.52076E+04 -1.26061E+04
 -5.78637E+03 -1.66699E+04  4.38601E+03 -1.53095E+04  1.05825E+04 -8.57023E+03  1.11622E+04 -9.81630E+01
  6.05977E+03  5.49143E+03 -3.19793E+02  4.62635E+03 -2.56167E+03 -6.14620E+02  4.65550E+02 -3.89065E+03
  5.00378E+03 -2.49327E+03  6.63422E+03  1.68500E+03  4.54422E+03  6.94251E+03  2.12107E+01  8.98460E+03
 -7.23677E+03  7.60601E+03 -1.14940E+04  6.26544E+02 -1.02208E+04 -7.96752E+03 -2.07820E+03 -1.39773E+04
  7.97267E+03 -1.19629E+04  1.33248E+04 -3.87626E+03  1.29443E+04  3.15836E+03  7.68126E+03  1.03675E+04
  7.52618E+02  1.13048E+04 -4.37593E+03  8.95799E+03 -7.04404E+03  4.73780E+03 -5.99156E+03  7.77058E+02
 -3.19863E+03 -2.21243E+01 -2.84414E+03  1.52794E+03 -5.71314E+03  2.14401E+03 -8.17705E+03 -1.21043E+03
 -7.90929E+03 -6.39138E+03 -2.51198E+03 -1.11614E+04  5.48631E+03 -1.20351E+04  9.92339E+03 -5.95980E+03
  1.15998E+04  1.72285E+03  6.85136E+03  8.28335E+03 -1.06758E+03  1.18905E+04 -8.54886E+03  7.30576E+03
