 $NMID ID='MM_0lb_SNR800_14hz_g60_95.RAW', FMTDAT='(8E13.5)'
 TRAMP=1., VOLUME=1. $END
  3.09863E+05  6.58371E+02  3.37828E+05  2.50584E+05  8.50586E+04  3.37968E+05 -1.32440E+05  2.51490E+05
 -1.90552E+05  8.33396E+04 -1.12383E+05 -3.21264E+04  7.71517E+02 -5.03539E+04  5.38805E+04 -1.48859E+02
  3.56110E+04  5.31692E+04 -1.65612E+04  7.56019E+04 -6.11188E+04  6.37641E+04 -8.45833E+04  3.23537E+04
 -8.14314E+04 -1.14926E+04 -5.77403E+04 -5.16240E+04 -1.48007E+04 -7.05718E+04  2.79661E+04 -4.63775E+04
  4.06497E+04  3.43720E+03  1.65177E+04  4.78943E+04 -3.46104E+04  4.75694E+04 -6.75517E+04  1.69784E+01
 -5.40595E+04 -5.73471E+04 -6.70657E+03 -7.79715E+04  3.45040E+04 -5.59375E+04  4.85806E+04 -1.75693E+04
  4.40149E+04  1.14116E+04  3.23025E+04  2.61237E+04  1.58357E+04  2.97690E+04 -5.51633E+03  2.73481E+04
 -2.22948E+04  1.23837E+04 -1.82465E+04 -5.03279E+03  6.34665E+03 -7.24466E+03  2.25257E+04  1.30095E+04
  7.09370E+03  3.61151E+04 -3.27334E+04  3.61154E+04 -6.43216E+04  1.91095E+03 -5.75628E+04 -4.29528E+04
 -1.23864E+04 -6.37745E+04  4.03292E+04 -4.61577E+04  5.89291E+04 -2.38598E+03  3.53113E+04  3.31526E+04
 -5.76981E+03  3.74343E+04 -3.06082E+04  1.69354E+04 -3.10802E+04 -4.36685E+03 -1.75394E+04 -1.15626E+04
 -8.76397E+03 -1.38237E+04 -7.15095E+02 -1.86267E+04  8.01631E+03 -2.28353E+04  1.59080E+04 -1.33972E+04
  1.10057E+04  5.44702E+03 -9.11213E+03  1.26950E+04 -2.17673E+04 -4.91394E+03 -8.45776E+03 -3.52916E+04
  2.37968E+04 -4.47166E+04  4.93368E+04 -1.98974E+04  4.67651E+04  1.97451E+04  1.63209E+04  4.54581E+04
 -1.61949E+04  3.42801E+04 -2.64236E+04  2.24504E+03 -1.06415E+04 -2.85633E+04  2.11995E+04 -3.48342E+04
  4.27173E+04 -9.69889E+03  3.75678E+04  2.40425E+04  1.92517E+04  4.79136E+04 -7.96240E+03  5.21298E+04
 -3.27929E+04  3.52857E+04 -4.35824E+04  1.02895E+04 -4.42869E+04 -1.72963E+04 -2.45783E+04 -3.94593E+04
  7.46094E+03 -3.93183E+04  3.21991E+04 -1.52479E+04  3.00325E+04  1.05424E+04  4.40620E+03  1.97341E+04
 -1.34574E+04  8.89752E+03 -1.05715E+04 -7.65449E+03  6.04505E+03 -1.11576E+04  1.81615E+04  6.00384E+03
  1.42757E+04  2.26518E+04 -5.57201E+03  2.56986E+04 -2.29525E+04  1.22107E+04 -2.94868E+04 -4.19037E+03
 -2.21618E+04 -1.79440E+04 -8.99476E+03 -2.18592E+04  4.12895E+03 -2.16741E+04  1.71283E+04 -1.95744E+04
  2.78457E+04 -1.30658E+04  3.41782E+04  3.22150E+03  2.48418E+04  2.11784E+04  3.98103E+03  3.77865E+04
 -1.83056E+04  3.14656E+04 -2.82294E+04  1.08238E+04 -2.11433E+04 -1.01908E+04 -4.63902E+03 -1.34722E+04
  1.47149E+03 -2.15247E+03 -5.65867E+03  7.07729E+03 -1.73537E+04  5.53814E+03 -1.72964E+04 -7.77256E+03
 -1.05245E+04 -2.02033E+04  5.23646E+03 -2.43303E+04  1.60162E+04 -1.72415E+04  1.95253E+04 -1.72262E+03
  1.23524E+04  1.38895E+04 -1.27030E+03  2.02583E+04 -1.38157E+04  1.16903E+04 -2.06649E+04 -4.30919E+03
 -1.47554E+04 -1.80334E+04 -1.75714E+03 -2.41586E+04  1.07943E+04 -1.99132E+04  1.99726E+04 -1.03096E+04
  1.88768E+04  5.71162E+01  1.38779E+04  4.75534E+03  7.49182E+03  1.20474E+03  1.02441E+04 -1.78468E+03
  1.85264E+04  2.82580E+03  2.06477E+04  1.57556E+04  1.39881E+04  3.19487E+04 -2.93304E+03  3.64475E+04
 -2.15280E+04  3.00529E+04 -3.44806E+04  1.50716E+04 -3.64757E+04 -2.63796E+03 -2.96726E+04 -2.07052E+04
 -1.26472E+04 -3.01483E+04  1.04907E+04 -2.67836E+04  2.33350E+04 -1.33611E+04  2.02204E+04  6.24749E+03
  7.50210E+03  1.53943E+04 -9.68970E+03  1.33239E+04 -1.70899E+04  2.86230E+03 -1.28719E+04 -1.04582E+04
 -1.43716E+02 -1.60209E+04  8.89701E+03 -1.23401E+04  1.08699E+04 -1.29489E+03  2.29780E+03  6.86437E+03
 -7.28037E+03  2.52824E+03 -6.74740E+03 -6.05711E+03 -7.41236E+02 -1.46042E+04  1.01947E+04 -1.56191E+04
  1.82785E+04 -8.47339E+03  1.95756E+04  3.19321E+03  1.72129E+04  1.43657E+04  8.10919E+03  2.21987E+04
 -3.85734E+03  2.37026E+04 -1.52087E+04  1.53045E+04 -1.72795E+04  3.73247E+03 -1.17685E+04 -3.95320E+03
 -5.49312E+03 -5.41959E+03 -5.95161E+02  8.97294E+02 -2.59775E+03  2.60731E+03 -5.41451E+03  4.44057E+03
 -1.14949E+04 -6.79182E+02 -1.20368E+04 -9.15311E+03 -4.60354E+03 -1.56931E+04  4.73238E+03 -1.18810E+04
  1.00453E+04 -4.85662E+03  7.29155E+03  3.37662E+03  2.49227E+02  4.96766E+03 -5.85485E+03  2.60438E+02
 -5.89791E+03 -7.61882E+03 -1.15747E+03 -1.15236E+04  6.42233E+03 -1.21672E+04  1.50368E+04 -6.81289E+03
  1.79180E+04  1.64711E+03  1.26477E+04  1.06075E+04  2.51361E+03  1.40878E+04 -7.32283E+03  1.17429E+04
 -9.96059E+03  3.57342E+03 -5.09032E+03 -2.31061E+03  1.61838E+03 -3.34705E+03  6.39130E+03 -5.80436E+02
  5.77321E+03  4.90293E+03  1.24365E+03  9.66777E+03 -7.00744E+03  9.52546E+03 -1.20151E+04  2.46122E+03
 -7.93652E+03 -5.59532E+03  2.80717E+02 -1.00327E+04  6.35194E+03 -5.12728E+03  6.43967E+03  2.25322E+03
  1.34997E+03  6.74606E+03 -6.24091E+03  8.00613E+03 -8.98871E+03  3.76291E+03 -9.04565E+03 -3.00644E+03
 -5.56745E+03 -1.08772E+04  2.60425E+03 -1.29038E+04  1.03739E+04 -7.88301E+03  1.14194E+04  1.90440E+03
  7.54616E+03  9.42123E+03 -8.16945E+02  1.15493E+04 -8.18601E+03  6.45781E+03 -8.93289E+03 -1.12685E+03
 -8.13981E+03 -7.54315E+03 -1.47336E+03 -8.31960E+03  4.34500E+03 -7.28450E+03  4.93460E+03 -3.10665E+03
  3.74864E+03  8.19907E+02 -6.72783E+02  1.45141E+03 -4.10842E+01 -1.61101E+03  1.15966E+03 -4.45119E+03
  7.66361E+03 -2.43959E+03  1.02143E+04  1.35206E+03  1.02050E+04  6.76375E+03  7.63822E+03  1.35952E+04
 -2.69247E+03  1.55681E+04 -1.34617E+04  1.16920E+04 -1.72617E+04  2.30687E+03 -1.38818E+04 -5.25928E+03
 -6.92651E+03 -1.11814E+04 -3.66778E+02 -9.28446E+03  3.43903E+03 -4.75698E+03  3.11245E+03 -3.68669E+03
  2.49126E+03 -2.12750E+03  3.16273E+03 -3.34045E+03  4.48776E+03 -2.42662E+03  5.54389E+03 -6.08468E+02
  7.34868E+03  1.72461E+03  3.48791E+03  6.02059E+03 -1.96193E+03  6.44189E+03 -7.56251E+03  5.27709E+03
 -9.03331E+03 -9.88861E+02 -5.15632E+03 -6.30778E+03 -8.58226E+01 -9.52244E+03  5.54180E+03 -9.69744E+03
  9.69407E+03 -5.80259E+03  1.25238E+04  1.14327E+03  8.56095E+03  8.45955E+03  1.48941E+03  1.12103E+04
 -4.76052E+03  9.22167E+03 -6.23983E+03  3.15047E+03 -4.15323E+03 -1.21632E+03 -1.75784E+03 -1.51298E+03
 -4.38519E+02  1.99544E+02 -1.74421E+03  2.47741E+03 -4.00433E+03  1.57451E+03 -6.72041E+03 -7.55180E+02
 -3.96913E+03 -6.49311E+03  1.86059E+02 -9.29491E+03  5.37793E+03 -8.34968E+03  8.13733E+03 -2.53321E+03
  8.59903E+03  3.98343E+03  4.02391E+03  6.93036E+03 -1.65025E+03  8.49090E+03 -5.45924E+03  5.54250E+03
 -7.79885E+03  6.18799E+02 -6.01211E+03 -5.16681E+03 -4.11953E+02 -7.11774E+03  3.57515E+03 -5.30906E+03
  5.66795E+03 -1.94366E+03  3.73638E+03  1.25519E+03  1.07912E+03  2.88684E+03  9.72363E+02  1.23892E+03
  2.24489E+03  7.21908E+02  2.19854E+03  1.26004E+03  2.15306E+03  3.58406E+03  2.43269E+03  4.15971E+03
 -1.77190E+03  6.31153E+03 -5.36169E+03  6.69598E+03 -8.05513E+03  2.21066E+03 -8.88408E+03 -2.91738E+03
 -4.16052E+03 -7.99821E+03  1.16513E+03 -8.91656E+03  4.78695E+03 -5.81940E+03  6.77120E+03 -1.75730E+03
  5.09175E+03  3.30688E+03  9.68361E+02  4.85655E+03 -1.31761E+03  3.01924E+03 -3.16174E+03 -7.06410E+01
 -1.91438E+03 -3.41932E+03  1.72676E+03 -3.70232E+03  3.21848E+03 -1.65382E+03  3.26256E+03  1.09276E+03
  1.98170E+03  1.45194E+03  1.15414E+03  4.11519E+02 -5.49786E+02  1.45226E+03  1.52287E+03 -6.05222E+02
  1.15703E+03 -7.12989E+02  3.14123E+03  1.21278E+03  1.22987E+03  4.37066E+03 -7.02201E+02  5.54454E+03
 -4.02483E+03  3.03487E+03 -4.76153E+03  4.77161E+02 -4.32936E+03 -1.66858E+03 -1.28135E+03 -3.23594E+03
  6.19374E+02 -2.86705E+03  2.18827E+03 -1.49836E+03  1.60044E+03  2.07925E+03 -7.92067E+02  2.43900E+03
 -3.19813E+03  1.31738E+03 -3.26257E+03 -2.21287E+03 -1.60968E+03 -4.25090E+03  7.42858E+02 -4.08057E+03
  2.03161E+03 -2.10745E+03  2.47560E+03 -1.75325E+02  2.60595E+03  1.02239E+03  5.16852E+02  2.36312E+03
 -1.11451E+03  6.08411E+02 -1.72270E+03 -1.08606E+03  1.01387E+03 -3.04071E+03  3.67529E+03 -2.34538E+03
  4.03207E+03  4.27569E+02  4.98045E+03  2.89307E+03  1.80722E+03  4.48440E+03 -1.31218E+03  4.40895E+03
 -3.78028E+03  1.80986E+03 -3.84005E+03 -4.35403E+02 -2.32749E+03 -3.10773E+03  4.20490E+02 -2.34164E+03
  3.22340E+03 -1.44785E+03  2.33166E+03  1.53753E+03  9.91554E+02  3.03879E+03 -5.82104E+01  2.38665E+03
 -7.78166E+02  1.72334E+03 -1.19635E+03  4.84948E+02 -2.01606E+02  3.93221E+02 -1.17871E+03  1.00660E+03
 -1.52319E+03  1.99906E+03 -3.37247E+03  1.85091E+03 -4.16580E+03  1.41147E+02 -5.24306E+03 -2.60412E+03
 -2.33660E+03 -5.78262E+03  1.22339E+03 -6.58637E+03  3.61951E+03 -5.44350E+03  6.24520E+03 -2.22171E+03
  5.90676E+03  1.19740E+03  3.17974E+03  3.68201E+03  1.22269E+02  4.16216E+03 -1.65991E+03  3.31509E+03
 -2.43790E+03  1.12674E+03 -1.56870E+03 -7.46474E+02 -6.11680E+02 -1.41715E+02 -8.19030E+02  2.47338E+02
 -1.12905E+03  3.24448E+02 -1.53976E+03  9.34786E+00 -2.82790E+02 -1.10729E+03 -3.34119E+02 -1.82277E+03
  2.01058E+03 -1.45916E+03  1.81003E+03 -1.46107E+02  3.22472E+03  2.34684E+03  9.25903E+01  3.92255E+03
 -2.21515E+03  4.95136E+03 -4.46726E+03  2.88728E+03 -4.89670E+03 -3.56122E+02 -3.71250E+03 -3.27422E+03
 -1.86465E+03 -4.26614E+03  1.14970E+03 -3.60563E+03  2.37650E+03 -1.43455E+03  2.27353E+03 -1.46480E+02
  1.40101E+03  1.14160E+03 -2.44057E+02  1.17229E+03 -6.82301E+02 -4.79890E+01  1.21772E+02 -4.96227E+02
  1.32908E+03 -3.09239E+02  1.48635E+03  9.06304E+02  9.98903E+02  1.62345E+03  4.17222E+02  1.93097E+03
 -2.04215E+03  1.74488E+03 -2.13930E+03  4.07903E+02 -2.09394E+03 -1.81548E+03 -1.19390E+02 -3.10513E+03
  1.51168E+03 -2.37867E+03  2.47409E+03 -2.06890E+02  2.85230E+03 -1.64720E+02  1.59670E+03  2.20167E+03
  8.70664E+02  2.35994E+03 -1.01479E+03  2.01087E+03 -1.19474E+03  1.54911E+03 -1.12895E+03  3.95093E+02
 -6.65750E+02 -9.38807E+01 -9.71330E+02  3.72053E+02 -1.40566E+03  5.72537E+02 -2.05441E+03 -4.08252E+02
 -2.13797E+03 -8.55254E+02 -4.31484E+02 -2.73417E+03  1.63431E+03 -2.85386E+03  2.59414E+03 -1.18316E+03
  1.90479E+03  4.76853E+02  1.01350E+03  1.13033E+03 -2.21186E+02  2.30553E+03 -1.62469E+03  1.59087E+03
