 $NMID ID='MM_0lb_SNR800_18hz_g40_78.RAW', FMTDAT='(8E13.5)'
 TRAMP=1., VOLUME=1. $END
  3.10101E+05  1.68111E+02  3.37139E+05  2.50124E+05  8.43154E+04  3.37023E+05 -1.32181E+05  2.50060E+05
 -1.89833E+05  8.23618E+04 -1.10754E+05 -3.27708E+04  1.83465E+03 -5.02014E+04  5.39340E+04  4.30126E+02
  3.50852E+04  5.26940E+04 -1.72279E+04  7.48051E+04 -6.03398E+04  6.25304E+04 -8.26974E+04  3.13688E+04
 -7.95706E+04 -1.10512E+04 -5.62678E+04 -4.98736E+04 -1.49518E+04 -6.80354E+04  2.68092E+04 -4.48145E+04
  3.90087E+04  3.94452E+03  1.56987E+04  4.70792E+04 -3.37951E+04  4.60097E+04 -6.52281E+04 -7.38207E+02
 -5.17842E+04 -5.57978E+04 -6.39333E+03 -7.49116E+04  3.30230E+04 -5.29416E+04  4.60768E+04 -1.62117E+04
  4.10688E+04  1.09173E+04  3.03896E+04  2.45685E+04  1.56308E+04  2.81850E+04 -4.40297E+03  2.66131E+04
 -2.17510E+04  1.29864E+04 -1.92894E+04 -4.10590E+03  3.92254E+03 -7.62163E+03  2.09467E+04  1.09050E+04
  7.59610E+03  3.30756E+04 -3.03213E+04  3.37895E+04 -6.08996E+04  2.23335E+03 -5.51545E+04 -4.11420E+04
 -1.24161E+04 -6.02659E+04  3.78822E+04 -4.27715E+04  5.53218E+04 -2.04474E+03  3.17138E+04  3.03882E+04
 -6.56764E+03  3.28820E+04 -2.82230E+04  1.32140E+04 -2.70305E+04 -5.29545E+03 -1.41637E+04 -9.93078E+03
 -7.11408E+03 -1.10814E+04 -1.09199E+03 -1.65387E+04  6.47276E+03 -2.24037E+04  1.49494E+04 -1.40563E+04
  1.21548E+04  4.49290E+03 -5.96192E+03  1.29746E+04 -1.91399E+04 -2.43969E+03 -7.95241E+03 -3.00740E+04
  2.07841E+04 -4.00582E+04  4.43249E+04 -1.85389E+04  4.19803E+04  1.78696E+04  1.39966E+04  4.15220E+04
 -1.52646E+04  3.09490E+04 -2.30452E+04  1.25756E+03 -8.20810E+03 -2.62144E+04  2.03621E+04 -3.08790E+04
  3.75865E+04 -7.20905E+03  3.10441E+04  2.23660E+04  1.50193E+04  4.25520E+04 -7.82694E+03  4.47570E+04
 -2.81016E+04  2.95340E+04 -3.70361E+04  8.13630E+03 -3.78418E+04 -1.52637E+04 -2.07064E+04 -3.37577E+04
  6.97447E+03 -3.36776E+04  2.88710E+04 -1.25977E+04  2.67240E+04  1.05459E+04  3.10873E+03  1.76003E+04
 -1.29827E+04  7.15043E+03 -9.63591E+03 -7.76944E+03  6.00318E+03 -1.00667E+04  1.69767E+04  6.47866E+03
  1.22340E+04  2.11603E+04 -6.82494E+03  2.32096E+04 -2.14175E+04  9.03433E+03 -2.51050E+04 -6.28533E+03
 -1.65556E+04 -1.63346E+04 -5.41269E+03 -1.65062E+04  3.74937E+03 -1.45211E+04  1.21579E+04 -1.40314E+04
  2.06740E+04 -1.14832E+04  2.78306E+04  7.63450E+02  2.11758E+04  1.60403E+04  4.16708E+03  3.21915E+04
 -1.61519E+04  2.74173E+04 -2.55194E+04  9.45741E+03 -1.95908E+04 -1.02310E+04 -4.28762E+03 -1.39735E+04
  2.77152E+03 -4.14393E+03 -2.48000E+03  5.31912E+03 -1.23290E+04  5.10623E+03 -1.32435E+04 -4.82755E+03
 -8.56601E+03 -1.52884E+04  4.45193E+03 -1.89709E+04  1.23691E+04 -1.37960E+04  1.45453E+04 -1.66442E+03
  8.78277E+03  1.05265E+04 -9.87624E+02  1.56821E+04 -1.02994E+04  8.71800E+03 -1.49896E+04 -3.58535E+03
 -1.14906E+04 -1.38263E+04 -1.43013E+03 -1.90373E+04  8.52890E+03 -1.51078E+04  1.59205E+04 -7.08894E+03
  1.43874E+04  6.79795E+02  1.05531E+04  3.59820E+03  5.16243E+03  4.06346E+02  7.63931E+03 -1.36815E+03
  1.37559E+04  2.88583E+03  1.46110E+04  1.25408E+04  9.20764E+03  2.44785E+04 -3.14610E+03  2.64291E+04
 -1.57233E+04  2.00559E+04 -2.41865E+04  9.58535E+03 -2.45327E+04 -1.97596E+03 -2.09632E+04 -1.37433E+04
 -9.97316E+03 -2.02753E+04  6.48420E+03 -1.86004E+04  1.64381E+04 -1.08341E+04  1.52487E+04  3.46416E+03
  6.44740E+03  1.09542E+04 -6.93884E+03  1.02989E+04 -1.33443E+04  2.68158E+03 -1.03818E+04 -7.99053E+03
  3.38810E+01 -1.20528E+04  5.99508E+03 -9.24759E+03  7.92039E+03 -1.18118E+03  1.29690E+03  4.79077E+03
 -5.45676E+03  1.63353E+03 -3.54837E+03 -4.78874E+03  8.83815E+02 -1.02160E+04  7.69690E+03 -9.90872E+03
  1.22356E+04 -4.41935E+03  1.16823E+04  2.83032E+03  1.02608E+04  9.52422E+03  4.99884E+03  1.40497E+04
 -1.50919E+03  1.56841E+04 -9.52326E+03  1.01814E+04 -1.10423E+04  2.68395E+03 -8.47614E+03 -1.78221E+03
 -4.41970E+03 -3.24831E+03 -9.81732E+02  1.45369E+03 -2.15720E+03  1.91761E+03 -3.73029E+03  3.66143E+03
 -7.81851E+03 -3.85901E+02 -8.88896E+03 -6.92839E+03 -3.53202E+03 -1.12384E+04  3.55073E+03 -8.72101E+03
  7.02767E+03 -3.86555E+03  5.00247E+03  2.09698E+03  7.07614E+02  2.92601E+03 -3.57774E+03 -1.21564E+02
 -3.39514E+03 -5.03782E+03 -8.16315E+02 -7.10365E+03  4.01122E+03 -7.60161E+03  9.98808E+03 -4.08907E+03
  1.15206E+04  4.09448E+02  8.71910E+03  5.98384E+03  1.59059E+03  8.37762E+03 -5.30613E+03  8.30242E+03
 -6.87433E+03  2.99324E+03 -3.60213E+03 -1.58310E+03  1.01225E+03 -2.03159E+03  4.88482E+03 -9.49091E+02
  4.25572E+03  3.33752E+03  1.04814E+03  6.27485E+03 -4.22148E+03  6.41484E+03 -7.79986E+03  1.80072E+03
 -5.11152E+03 -3.72434E+03  5.40217E+02 -6.70009E+03  3.72038E+03 -3.28798E+03  3.46562E+03  7.66167E+02
  4.14513E+02  3.26046E+03 -3.91366E+03  4.69819E+03 -4.86164E+03  2.61276E+03 -4.49677E+03 -1.02561E+03
 -2.88955E+03 -5.85384E+03  1.13728E+03 -7.25841E+03  6.00319E+03 -4.48313E+03  6.58906E+03  1.20168E+03
  4.43452E+03  5.08987E+03  6.48258E+01  7.13119E+03 -4.95896E+03  4.26328E+03 -5.46064E+03 -4.31531E+02
 -5.71811E+03 -5.01940E+03 -1.35895E+03 -4.89323E+03  2.19077E+03 -4.73538E+03  2.82934E+03 -3.11503E+03
  2.86468E+03  3.25102E+02 -1.24681E+02  1.38282E+03  5.39106E+02 -2.91328E+02  1.60432E+02 -2.14902E+03
  3.57141E+03 -6.97994E+02  5.59038E+03  4.60806E+02  5.68241E+03  3.34454E+03  5.36675E+03  7.26618E+03
 -1.40708E+03  8.63122E+03 -7.89217E+03  6.47800E+03 -1.00794E+04  1.35578E+03 -7.72399E+03 -2.71493E+03
 -4.25757E+03 -6.59368E+03 -3.67421E+02 -5.10840E+03  2.30767E+03 -2.29917E+03  1.93663E+03 -1.92085E+03
  1.36255E+03 -1.61103E+03  2.36316E+03 -1.87198E+03  3.66747E+03 -1.31069E+03  3.67579E+03  2.33082E+02
  4.84697E+03  8.47463E+02  1.32389E+03  3.40994E+03 -1.22988E+03  2.94351E+03 -4.66850E+03  2.37591E+03
 -4.95264E+03 -1.18770E+03 -1.80403E+03 -3.41091E+03  3.88047E+02 -5.11307E+03  3.40031E+03 -5.40817E+03
  4.87306E+03 -3.22050E+03  6.84993E+03  1.74944E+02  4.98033E+03  4.32783E+03  1.13604E+03  6.08381E+03
 -2.17734E+03  5.65041E+03 -3.41740E+03  1.78365E+03 -2.05867E+03 -8.28478E+02 -4.31685E+02 -6.89692E+02
 -5.41586E+02  6.41191E+02 -9.47283E+02  2.21265E+03 -2.73569E+03  1.10251E+03 -4.22677E+03 -5.14866E+02
 -1.67794E+03 -3.80425E+03  7.23487E+02 -4.77039E+03  2.72415E+03 -4.37480E+03  3.68994E+03 -1.35176E+03
  4.21231E+03  2.44534E+03  1.94487E+03  3.29047E+03 -6.18411E+02  4.63623E+03 -2.84751E+03  2.91801E+03
 -4.08226E+03  5.40633E+02 -3.22010E+03 -2.72878E+03 -1.91931E+02 -3.25804E+03  1.48552E+03 -2.62818E+03
  2.51862E+03 -1.52060E+03  2.00492E+03  4.88638E+02  7.58240E+02  1.51940E+03  8.52818E+02  5.66330E+02
  1.88063E+03  8.92600E+02  1.25396E+03  6.31873E+02  1.36791E+03  2.19519E+03  1.47329E+03  1.91746E+03
 -1.29421E+03  3.10172E+03 -2.78969E+03  4.17335E+03 -3.23100E+03  1.24680E+03 -4.40672E+03 -7.15487E+02
 -1.83442E+03 -3.88394E+03  8.03160E+02 -4.78644E+03  2.02179E+03 -2.70612E+03  3.26976E+03 -9.65973E+02
  2.65267E+03  1.77597E+03  5.78836E+02  2.27856E+03 -5.09438E+02  1.33770E+03 -1.00562E+03  8.00056E+01
 -5.87197E+02 -1.45948E+03  1.32313E+03 -1.83399E+03  1.40117E+03 -1.00511E+03  1.43151E+03  5.73177E+02
  7.03651E+02 -1.38967E+01  6.50868E+02 -4.28981E+02 -2.93139E+02  8.54092E+02  1.43313E+03 -2.31302E+02
 -5.03752E-01 -8.88462E+01  1.93556E+03  6.31141E+02  5.05621E+02  2.27679E+03 -4.50700E+02  3.07030E+03
 -1.55238E+03  1.17333E+03 -2.08535E+03  3.82874E+02 -2.15439E+03 -7.08895E+02 -2.95237E+02 -1.05606E+03
  3.98036E+02 -1.12392E+03  8.87535E+02 -6.41075E+02  6.42416E+02  1.19813E+03 -5.72730E+02  1.24687E+03
 -1.55149E+03  9.61184E+02 -1.57262E+03 -1.37108E+03 -7.58820E+02 -2.47907E+03  1.33007E+02 -1.66882E+03
  4.92865E+02 -6.96104E+02  7.24778E+02  7.09588E+01  1.52484E+03 -1.41791E+02  1.46815E+02  1.05389E+03
 -5.23799E+02  2.02466E+02 -9.10518E+02 -3.08607E+02  1.53758E+02 -9.38536E+02  1.73052E+03 -1.00517E+03
  1.31737E+03  1.11478E+02  2.78455E+03  9.27831E+02  1.15285E+03  1.91039E+03 -5.57169E+02  1.93896E+03
 -1.66392E+03  1.53340E+02 -1.40452E+03 -2.00728E+02 -8.44183E+02 -1.27416E+03  2.75095E+02 -7.69662E+02
  1.52022E+03 -9.02691E+02  7.54925E+02  5.99108E+02  1.27093E+02  1.42254E+03  8.96733E+01  9.87048E+02
 -4.36412E+02  1.17330E+03 -6.01739E+02  1.87059E+02 -1.42983E+00  2.40262E+02 -6.92417E+02  7.13708E+02
 -7.94460E+02  1.14529E+03 -1.77002E+03  7.89903E+02 -1.64724E+03  2.29033E+02 -2.65684E+03 -1.20704E+03
 -1.20862E+03 -2.49177E+03  6.79098E+02 -3.08449E+03  9.80145E+02 -2.73345E+03  3.04553E+03 -1.12638E+03
  2.46196E+03 -1.84225E+02  1.45864E+03  1.81153E+03 -6.06858E+02  1.44003E+03 -1.06981E+03  1.49934E+03
 -1.18278E+03  9.27677E+02 -8.04834E+02 -1.27470E+02 -6.46164E+02 -2.31720E+01 -4.28409E+02  1.75210E+02
 -1.12696E+03 -6.31707E+01 -9.47239E+02  4.72157E+01  4.37552E+02 -4.81120E+02 -2.94142E+02 -1.27055E+03
  1.32947E+03 -7.58150E+02  3.84232E+02  1.35408E+02  1.25129E+03  1.05303E+03 -3.40495E+02  1.53675E+03
 -9.71419E+02  2.38593E+03 -1.80009E+03  1.65385E+03 -2.10707E+03 -2.69076E+01 -1.55126E+03 -1.41164E+03
 -9.35114E+02 -1.46358E+03  2.11260E+02 -1.46684E+03  8.07552E+02 -7.03470E+02  8.11820E+02  5.50510E+00
  8.62694E+02  3.11260E+02 -6.57839E+01  4.40718E+02 -1.20568E+02 -1.20123E+02  4.89682E+00 -8.58189E+01
  5.91181E+02  4.10630E+02  4.83541E+02  4.41064E+02  3.08921E+02  4.11356E+02  1.76844E+02  4.28048E+02
 -7.32694E+02  4.99340E+02 -7.22280E+02 -7.65049E+01 -7.33308E+02 -4.32662E+02 -8.07498E+01 -9.71306E+02
  6.00233E+02 -9.90078E+02  5.55674E+02  2.19326E+01  1.27943E+03 -3.41442E+02  6.36727E+02  8.36007E+02
  6.54464E+02  8.22883E+02 -1.56640E+02  7.16003E+02 -2.71488E+02  7.85705E+02 -2.14792E+02  4.03175E+02
 -1.57879E+02 -1.07166E+02 -4.36593E+02  2.50097E+02 -5.92464E+02  2.81411E+01 -7.06432E+02 -4.90591E+02
 -1.28450E+03 -3.03460E+01 -6.11803E+02 -1.01009E+03  5.21972E+02 -1.76753E+03  8.83174E+02 -2.23834E+02
  7.26177E+02  9.23562E+01 -3.85431E+02  4.68291E+02  2.79563E+01  1.23718E+03 -6.59750E+02  8.55098E+02
