 $NMID ID='MM_0lb_SNR800_9hz_g55_8.RAW', FMTDAT='(8E13.5)'
 TRAMP=1., VOLUME=1. $END
  3.09914E+05  2.45023E+02  3.38112E+05  2.50933E+05  8.50704E+04  3.38741E+05 -1.32430E+05  2.52157E+05
 -1.91161E+05  8.42202E+04 -1.12536E+05 -3.23243E+04  1.32322E+02 -5.11880E+04  5.37290E+04 -5.19026E+02
  3.55155E+04  5.25341E+04 -1.68474E+04  7.60209E+04 -6.11615E+04  6.44288E+04 -8.51365E+04  3.22796E+04
 -8.20585E+04 -1.16435E+04 -5.82354E+04 -5.27324E+04 -1.54752E+04 -7.13816E+04  2.78838E+04 -4.68818E+04
  4.14358E+04  3.51549E+03  1.68207E+04  4.87802E+04 -3.49533E+04  4.79587E+04 -6.84839E+04 -3.50052E+02
 -5.50149E+04 -5.78869E+04 -7.16070E+03 -7.88994E+04  3.49617E+04 -5.70721E+04  5.00209E+04 -1.83447E+04
  4.54252E+04  1.15542E+04  3.29679E+04  2.68642E+04  1.57750E+04  3.06080E+04 -5.79666E+03  2.77428E+04
 -2.23855E+04  1.20875E+04 -1.79885E+04 -5.61012E+03  7.31760E+03 -7.43754E+03  2.34694E+04  1.41557E+04
  7.07591E+03  3.74308E+04 -3.44353E+04  3.75525E+04 -6.59920E+04  1.90010E+03 -5.95341E+04 -4.47679E+04
 -1.22506E+04 -6.62508E+04  4.18565E+04 -4.78770E+04  6.15162E+04 -2.03263E+03  3.69994E+04  3.48569E+04
 -5.28848E+03  3.99334E+04 -3.23306E+04  1.95199E+04 -3.38306E+04 -3.04728E+03 -1.94536E+04 -1.23530E+04
 -9.90048E+03 -1.56422E+04 -7.46593E+02 -2.01181E+04  8.69132E+03 -2.36134E+04  1.62055E+04 -1.26087E+04
  1.07203E+04  6.43871E+03 -1.09230E+04  1.30352E+04 -2.34473E+04 -6.99754E+03 -8.32454E+03 -3.81048E+04
  2.56481E+04 -4.72770E+04  5.24931E+04 -2.13182E+04  4.90505E+04  2.10773E+04  1.72665E+04  4.74579E+04
 -1.66878E+04  3.63444E+04 -2.76131E+04  2.35834E+03 -1.20964E+04 -2.97324E+04  2.19344E+04 -3.70919E+04
  4.50241E+04 -1.13723E+04  4.07219E+04  2.54129E+04  2.16077E+04  5.15756E+04 -8.67447E+03  5.63424E+04
 -3.54018E+04  3.87872E+04 -4.81383E+04  1.08662E+04 -4.80978E+04 -1.87940E+04 -2.63386E+04 -4.28005E+04
  7.66238E+03 -4.28946E+04  3.50525E+04 -1.70044E+04  3.23802E+04  1.09502E+04  5.23019E+03  2.11005E+04
 -1.43533E+04  9.79488E+03 -1.13970E+04 -7.49889E+03  5.80308E+03 -1.18341E+04  1.90267E+04  5.54580E+03
  1.46872E+04  2.29963E+04 -5.03801E+03  2.72510E+04 -2.33244E+04  1.45095E+04 -3.17625E+04 -2.79033E+03
 -2.61246E+04 -1.86237E+04 -1.20412E+04 -2.57344E+04  4.19723E+03 -2.62010E+04  2.02879E+04 -2.37592E+04
  3.29097E+04 -1.42169E+04  3.91348E+04  4.92234E+03  2.73208E+04  2.48067E+04  4.38675E+03  4.16199E+04
 -2.02569E+04  3.45694E+04 -3.08995E+04  1.17699E+04 -2.30181E+04 -1.01318E+04 -5.28099E+03 -1.27303E+04
  3.74372E+02 -1.14274E+03 -7.86896E+03  8.40597E+03 -2.07101E+04  5.47701E+03 -2.05296E+04 -1.00987E+04
 -1.24458E+04 -2.40478E+04  6.01178E+03 -2.83716E+04  1.87066E+04 -1.97945E+04  2.27085E+04 -1.64544E+03
  1.47252E+04  1.65232E+04 -1.16412E+03  2.35789E+04 -1.69661E+04  1.36898E+04 -2.41465E+04 -5.19212E+03
 -1.80283E+04 -2.17308E+04 -2.54631E+03 -2.87189E+04  1.29776E+04 -2.40513E+04  2.34247E+04 -1.24480E+04
  2.23915E+04 -2.66990E+02  1.59166E+04  5.10510E+03  9.45115E+03  1.69048E+03  1.25314E+04 -2.32523E+03
  2.25351E+04  3.06658E+03  2.60709E+04  1.85031E+04  1.79186E+04  3.88359E+04 -2.76605E+03  4.52163E+04
 -2.57872E+04  3.77589E+04 -4.26401E+04  1.93998E+04 -4.64280E+04 -3.34522E+03 -3.66179E+04 -2.65933E+04
 -1.50257E+04 -3.77942E+04  1.37066E+04 -3.28712E+04  2.86503E+04 -1.57633E+04  2.46617E+04  8.18089E+03
  8.23239E+03  1.89825E+04 -1.15484E+04  1.56198E+04 -2.05576E+04  2.52621E+03 -1.57741E+04 -1.34842E+04
 -6.13740E+02 -1.96059E+04  1.07138E+04 -1.47374E+04  1.37259E+04 -1.49431E+03  3.59748E+03  8.99988E+03
 -8.76619E+03  3.97076E+03 -9.33732E+03 -6.70404E+03 -1.65473E+03 -1.87073E+04  1.17986E+04 -2.06606E+04
  2.37264E+04 -1.18525E+04  2.72251E+04  3.02668E+03  2.37062E+04  1.89347E+04  1.13353E+04  3.00450E+04
 -5.73655E+03  3.18266E+04 -2.11064E+04  1.99150E+04 -2.30665E+04  4.08338E+03 -1.59465E+04 -6.34555E+03
 -6.68107E+03 -7.56352E+03 -5.34337E+02  2.92889E+02 -2.77399E+03  3.44450E+03 -7.55354E+03  5.44985E+03
 -1.43661E+04 -1.06609E+03 -1.48830E+04 -1.17942E+04 -5.94365E+03 -1.99036E+04  6.77296E+03 -1.60255E+04
  1.31619E+04 -6.59323E+03  9.21671E+03  4.55247E+03 -1.97683E+02  6.46168E+03 -8.27118E+03 -1.69032E+02
 -7.80050E+03 -1.06113E+04 -1.06351E+03 -1.58360E+04  8.66848E+03 -1.73453E+04  2.05866E+04 -9.15431E+03
  2.43299E+04  2.54945E+03  1.73642E+04  1.46740E+04  3.66009E+03  1.98733E+04 -1.01252E+04  1.62656E+04
 -1.32893E+04  3.93560E+03 -7.07981E+03 -3.33612E+03  2.08890E+03 -4.74872E+03  8.51734E+03 -1.04107E+03
  7.51029E+03  6.74658E+03  8.44794E+02  1.29838E+04 -9.37361E+03  1.22828E+04 -1.60358E+04  2.63059E+03
 -1.10091E+04 -8.85421E+03 -8.41276E+01 -1.42183E+04  8.95077E+03 -6.95875E+03  9.51036E+03  3.25704E+03
  2.30965E+03  1.02144E+04 -8.56668E+03  1.21693E+04 -1.41105E+04  5.56522E+03 -1.46711E+04 -5.57293E+03
 -8.16245E+03 -1.66900E+04  4.27289E+03 -1.89309E+04  1.58593E+04 -1.15182E+04  1.72406E+04  2.82164E+03
  1.01367E+04  1.40580E+04 -1.27727E+03  1.69836E+04 -1.17562E+04  9.10691E+03 -1.29690E+04 -1.40419E+03
 -1.12642E+04 -1.12205E+04 -1.65385E+03 -1.27079E+04  6.83267E+03 -1.00069E+04  8.16788E+03 -3.64250E+03
  5.22528E+03  2.60914E+03 -1.31872E+03  2.22384E+03 -1.01909E+03 -4.03087E+03  2.47726E+03 -7.80322E+03
  1.18267E+04 -4.67324E+03  1.68644E+04  1.84124E+03  1.64995E+04  1.13921E+04  1.02521E+04  2.17352E+04
 -5.27297E+03  2.49531E+04 -2.04703E+04  1.82630E+04 -2.71852E+04  3.30614E+03 -2.14683E+04 -9.77553E+03
 -1.08047E+04 -1.72868E+04  6.90717E+01 -1.47245E+04  5.57972E+03 -9.23436E+03  5.48748E+03 -5.07745E+03
  4.22417E+03 -3.32178E+03  4.38828E+03 -4.10004E+03  6.07486E+03 -3.95125E+03  7.73431E+03 -1.58086E+03
  1.08910E+04  2.55435E+03  6.11909E+03  9.61007E+03 -2.33130E+03  1.21119E+04 -1.16794E+04  9.15614E+03
 -1.53619E+04 -1.19088E+03 -1.02812E+04 -1.07918E+04 -1.66855E+03 -1.62978E+04  8.95268E+03 -1.60811E+04
  1.67710E+04 -9.22450E+03  2.06205E+04  2.92437E+03  1.39861E+04  1.45525E+04  2.04292E+03  1.87875E+04
 -7.71715E+03  1.54738E+04 -1.10492E+04  5.18518E+03 -7.65388E+03 -1.87405E+03 -3.20043E+03 -2.29751E+03
 -1.76652E+03 -9.03536E+01 -2.37647E+03  3.13460E+03 -6.44754E+03  2.42340E+03 -1.02373E+04 -1.82197E+03
 -7.69892E+03 -1.09002E+04 -3.12795E+02 -1.54631E+04  9.73918E+03 -1.42886E+04  1.57558E+04 -4.39349E+03
  1.53847E+04  7.40089E+03  7.13223E+03  1.36843E+04 -3.14012E+03  1.58844E+04 -1.14102E+04  9.56717E+03
 -1.46147E+04  3.63721E+02 -1.12941E+04 -9.16505E+03 -1.63518E+03 -1.32991E+04  6.67307E+03 -9.40837E+03
  1.01633E+04 -3.19821E+03  6.65172E+03  2.83745E+03  2.37437E+03  4.57394E+03  2.02163E+03  2.01133E+03
  2.72812E+03  1.09043E+03  3.69433E+03  1.53178E+03  4.76077E+03  5.36149E+03  3.84565E+03  8.47550E+03
 -3.52042E+03  1.24066E+04 -1.07488E+04  1.16420E+04 -1.58683E+04  3.45383E+03 -1.65433E+04 -6.82139E+03
 -8.16345E+03 -1.52172E+04  2.48237E+03 -1.75959E+04  1.00250E+04 -1.10219E+04  1.31904E+04 -2.53223E+03
  9.78447E+03  5.55949E+03  2.43040E+03  9.03261E+03 -4.66170E+03  5.74178E+03 -6.37230E+03 -7.70062E+02
 -2.89375E+03 -6.48368E+03  3.57417E+03 -6.74148E+03  5.79890E+03 -3.05341E+03  6.81092E+03  9.03210E+02
  3.75148E+03  3.49230E+03  1.35218E+03  2.64061E+03 -7.71324E+02  2.09247E+03  1.69176E+03 -6.45025E+02
  2.38399E+03 -1.09801E+03  6.75256E+03  2.52901E+03  3.74782E+03  8.20045E+03 -1.07712E+03  1.11016E+04
 -7.47616E+03  6.95933E+03 -1.02486E+04  2.33941E+03 -8.86952E+03 -3.35551E+03 -3.25386E+03 -6.16508E+03
  8.52993E+02 -6.62468E+03  3.91401E+03 -2.66977E+03  3.50539E+03  3.24543E+03 -1.68399E+03  5.50781E+03
 -6.99168E+03  3.14417E+03 -7.59667E+03 -3.63032E+03 -4.15702E+03 -8.37891E+03  1.16432E+03 -8.70607E+03
  5.37432E+03 -4.96944E+03  6.70827E+03 -6.95363E+02  5.27947E+03  1.83589E+03  8.42174E+02  4.69518E+03
 -2.87463E+03  1.30816E+03 -3.74371E+03 -3.23620E+03  1.25159E+03 -6.68080E+03  7.93485E+03 -5.12522E+03
  1.00277E+04  6.49579E+02  9.34845E+03  6.93110E+03  3.41677E+03  1.08081E+04 -4.03908E+03  1.01192E+04
 -8.85194E+03  4.26143E+03 -9.15658E+03 -1.43305E+03 -4.48630E+03 -6.65289E+03  1.61223E+03 -6.49997E+03
  6.16967E+03 -3.20748E+03  5.32538E+03  2.79551E+03  1.73415E+03  5.92035E+03 -9.41441E+02  5.50143E+03
 -2.47573E+03  3.11374E+03 -2.52132E+03  1.05799E+03 -1.34071E+03  4.85794E+02 -2.15284E+03  2.24719E+03
 -2.88914E+03  4.22727E+03 -6.83610E+03  3.81029E+03 -1.00898E+04 -6.93146E+00 -1.19463E+04 -7.34780E+03
 -6.00537E+03 -1.36414E+04  2.79311E+03 -1.59378E+04  1.00044E+04 -1.25198E+04  1.49813E+04 -4.73529E+03
  1.40964E+04  2.85751E+03  8.56363E+03  9.69211E+03  6.57520E+02  1.06226E+04 -4.42832E+03  8.05852E+03
 -6.08974E+03  2.97946E+03 -4.16574E+03 -1.30203E+03 -1.05173E+03 -1.13211E+03 -7.13196E+02 -3.56114E+02
 -1.94089E+03  1.46550E+02 -2.47408E+03 -5.47927E+02 -1.05599E+03 -2.82858E+03 -1.00402E+02 -3.68591E+03
  4.46640E+03 -3.32619E+03  6.42057E+03  3.96998E+02  7.25585E+03  6.09913E+03  2.00420E+03  1.11948E+04
 -5.04587E+03  1.22049E+04 -1.12863E+04  7.01395E+03 -1.31892E+04 -8.04306E+02 -1.03772E+04 -8.01800E+03
 -4.30867E+03 -1.13895E+04  3.24591E+03 -1.05340E+04  7.24922E+03 -5.66788E+03  7.31706E+03 -8.77420E+01
  3.75325E+03  3.69882E+03 -2.47426E+02  2.89315E+03 -1.68503E+03 -1.65114E+02  2.44830E+02 -2.76477E+03
  3.17586E+03 -1.28769E+03  4.41228E+03  1.56443E+03  3.01805E+03  3.90679E+03  2.95640E+02  5.65637E+03
 -5.38009E+03  5.22913E+03 -7.49388E+03  1.06550E+03 -6.75744E+03 -5.38826E+03 -1.20281E+03 -8.92143E+03
  5.42130E+03 -7.22136E+03  8.33566E+03 -2.27011E+03  8.60699E+03  2.23043E+03  5.16986E+03  6.98778E+03
  7.20322E+02  7.35193E+03 -3.10064E+03  5.83887E+03 -4.77514E+03  3.39384E+03 -3.81243E+03  3.27977E+02
 -1.19808E+03 -3.28605E+01 -2.11273E+03  1.43520E+03 -4.01474E+03  1.31344E+03 -5.41876E+03 -9.91717E+02
 -5.65475E+03 -4.07369E+03 -1.44073E+03 -7.03620E+03  3.53041E+03 -7.81947E+03  6.78008E+03 -3.76336E+03
  7.08024E+03  7.67201E+02  4.20259E+03  5.40167E+03 -3.77138E+02  7.47264E+03 -5.27784E+03  4.81026E+03
