 $NMID ID='MM_0lb_SNR800_10hz_g50_75.RAW', FMTDAT='(8E13.5)'
 TRAMP=1., VOLUME=1. $END
  3.09615E+05  5.63985E+02  3.38004E+05  2.50818E+05  8.46304E+04  3.39041E+05 -1.32565E+05  2.51575E+05
 -1.90625E+05  8.37544E+04 -1.12559E+05 -3.23291E+04  4.81157E+02 -5.10052E+04  5.37549E+04 -6.15870E+02
  3.52654E+04  5.29391E+04 -1.67657E+04  7.55769E+04 -6.12813E+04  6.38884E+04 -8.51973E+04  3.23434E+04
 -8.20747E+04 -1.17432E+04 -5.80107E+04 -5.23123E+04 -1.51601E+04 -7.06869E+04  2.80921E+04 -4.67354E+04
  4.07676E+04  3.49427E+03  1.70313E+04  4.81413E+04 -3.48858E+04  4.77742E+04 -6.77413E+04  2.50427E+02
 -5.44937E+04 -5.74543E+04 -7.11352E+03 -7.88564E+04  3.43629E+04 -5.65683E+04  4.93871E+04 -1.82769E+04
  4.47035E+04  1.15832E+04  3.26700E+04  2.64624E+04  1.60298E+04  3.02657E+04 -5.73077E+03  2.71512E+04
 -2.24656E+04  1.21198E+04 -1.81901E+04 -5.28904E+03  6.64602E+03 -7.51055E+03  2.34635E+04  1.30937E+04
  7.15073E+03  3.71670E+04 -3.35565E+04  3.67268E+04 -6.53174E+04  2.30253E+03 -5.83927E+04 -4.37601E+04
 -1.27677E+04 -6.53471E+04  4.11034E+04 -4.69360E+04  6.02956E+04 -2.65442E+03  3.62985E+04  3.37703E+04
 -5.94797E+03  3.87530E+04 -3.13168E+04  1.85253E+04 -3.27273E+04 -3.58540E+03 -1.88091E+04 -1.17083E+04
 -9.25351E+03 -1.48515E+04 -3.20837E+01 -1.93492E+04  8.27138E+03 -2.33567E+04  1.58617E+04 -1.30936E+04
  1.08156E+04  6.14647E+03 -9.86165E+03  1.27175E+04 -2.28722E+04 -6.52329E+03 -8.50363E+03 -3.64888E+04
  2.48698E+04 -4.59202E+04  5.12304E+04 -2.06285E+04  4.76844E+04  2.02286E+04  1.69459E+04  4.65868E+04
 -1.67456E+04  3.56292E+04 -2.75134E+04  2.24478E+03 -1.14742E+04 -2.91227E+04  2.14694E+04 -3.59436E+04
  4.37870E+04 -1.07918E+04  3.93588E+04  2.43413E+04  2.08064E+04  5.04083E+04 -8.53636E+03  5.49798E+04
 -3.45103E+04  3.72280E+04 -4.63958E+04  1.11105E+04 -4.65469E+04 -1.80022E+04 -2.52210E+04 -4.13636E+04
  7.84345E+03 -4.15188E+04  3.35322E+04 -1.67637E+04  3.13396E+04  1.08944E+04  5.01376E+03  2.03620E+04
 -1.37230E+04  9.52858E+03 -1.09669E+04 -7.50850E+03  5.61327E+03 -1.14757E+04  1.88283E+04  5.95346E+03
  1.45716E+04  2.26363E+04 -5.58928E+03  2.66312E+04 -2.30461E+04  1.36888E+04 -3.07958E+04 -3.38497E+03
 -2.44649E+04 -1.81098E+04 -1.14019E+04 -2.40466E+04  4.36310E+03 -2.42487E+04  1.90349E+04 -2.18348E+04
  3.12032E+04 -1.39305E+04  3.69387E+04  4.38912E+03  2.66507E+04  2.35278E+04  4.63425E+03  4.00746E+04
 -1.97514E+04  3.30049E+04 -3.02273E+04  1.17391E+04 -2.22643E+04 -9.83575E+03 -4.88247E+03 -1.27574E+04
  1.15598E+03 -1.55155E+03 -6.93922E+03  7.85274E+03 -1.93727E+04  5.12077E+03 -1.97337E+04 -8.98228E+03
 -1.15635E+04 -2.22187E+04  5.73032E+03 -2.69346E+04  1.81071E+04 -1.90488E+04  2.22811E+04 -1.72562E+03
  1.39140E+04  1.55898E+04 -9.88197E+02  2.25246E+04 -1.62234E+04  1.28235E+04 -2.29616E+04 -4.63557E+03
 -1.68542E+04 -2.00721E+04 -1.83667E+03 -2.70431E+04  1.24321E+04 -2.20708E+04  2.26850E+04 -1.15173E+04
  2.07595E+04 -4.13196E+02  1.50193E+04  5.11220E+03  8.53261E+03  1.56858E+03  1.15122E+04 -1.90750E+03
  2.09782E+04  2.83242E+03  2.39646E+04  1.78791E+04  1.61715E+04  3.57422E+04 -2.57345E+03  4.18977E+04
 -2.39401E+04  3.48878E+04 -3.99479E+04  1.79445E+04 -4.21421E+04 -2.92537E+03 -3.45419E+04 -2.44654E+04
 -1.37666E+04 -3.49085E+04  1.24467E+04 -3.10372E+04  2.70107E+04 -1.53146E+04  2.34904E+04  7.58258E+03
  7.61884E+03  1.77228E+04 -1.11675E+04  1.49083E+04 -1.93545E+04  2.96500E+03 -1.45964E+04 -1.21395E+04
 -3.38899E+02 -1.85590E+04  9.77460E+03 -1.35057E+04  1.23559E+04 -1.19595E+03  3.54599E+03  8.28180E+03
 -8.27860E+03  3.53147E+03 -8.63999E+03 -6.76817E+03 -1.30744E+03 -1.70679E+04  1.12704E+04 -1.88319E+04
  2.14676E+04 -1.04518E+04  2.43900E+04  3.21901E+03  2.13865E+04  1.73873E+04  9.92939E+03  2.75068E+04
 -5.03900E+03  2.94111E+04 -1.87568E+04  1.78533E+04 -2.07360E+04  3.78604E+03 -1.43806E+04 -5.42904E+03
 -6.36245E+03 -6.79481E+03 -6.75566E+02  3.63532E+02 -2.93747E+03  3.24752E+03 -6.75896E+03  5.38071E+03
 -1.35392E+04 -1.21250E+03 -1.39174E+04 -1.12103E+04 -5.98260E+03 -1.84705E+04  6.29448E+03 -1.45203E+04
  1.23756E+04 -6.00314E+03  8.87668E+03  3.89675E+03 -4.26772E+02  5.57532E+03 -6.87488E+03 -1.71278E+02
 -6.90455E+03 -9.28750E+03 -9.53179E+02 -1.41743E+04  8.29035E+03 -1.56254E+04  1.90154E+04 -7.98642E+03
  2.21119E+04  1.98720E+03  1.58336E+04  1.36320E+04  2.89882E+03  1.77819E+04 -8.90960E+03  1.45078E+04
 -1.21703E+04  4.01021E+03 -6.29025E+03 -3.33611E+03  2.34800E+03 -4.30681E+03  7.97253E+03 -1.25828E+03
  7.01409E+03  6.62547E+03  1.17903E+03  1.17622E+04 -8.57088E+03  1.11497E+04 -1.45039E+04  2.99783E+03
 -9.93528E+03 -7.67547E+03  5.29290E+02 -1.23926E+04  8.06867E+03 -6.28358E+03  8.64500E+03  3.00451E+03
  2.17570E+03  9.32168E+03 -7.51321E+03  1.06296E+04 -1.23091E+04  4.51178E+03 -1.24507E+04 -4.27497E+03
 -7.14209E+03 -1.45882E+04  3.63912E+03 -1.66000E+04  1.40073E+04 -9.99065E+03  1.55199E+04  2.73161E+03
  9.26533E+03  1.22094E+04 -1.70789E+03  1.44091E+04 -1.08611E+04  7.98432E+03 -1.13621E+04 -1.13274E+03
 -9.99667E+03 -9.98905E+03 -1.74112E+03 -1.09705E+04  5.34249E+03 -9.05987E+03  7.40899E+03 -3.56407E+03
  4.73680E+03  2.09409E+03 -7.87689E+02  1.63689E+03 -1.90529E+02 -2.45390E+03  2.29552E+03 -6.75042E+03
  1.02044E+04 -4.31378E+03  1.49039E+04  1.93420E+03  1.41870E+04  1.00456E+04  9.05947E+03  1.90530E+04
 -4.43502E+03  2.14356E+04 -1.80321E+04  1.61371E+04 -2.36449E+04  3.14888E+03 -1.86950E+04 -8.16279E+03
 -9.43885E+03 -1.54483E+04 -7.65393E+02 -1.32400E+04  4.77767E+03 -7.52677E+03  4.49830E+03 -4.96809E+03
  3.75978E+03 -2.87771E+03  3.51891E+03 -3.85478E+03  5.75747E+03 -3.14218E+03  7.26389E+03 -1.12887E+03
  9.83466E+03  1.90905E+03  5.52755E+03  8.43148E+03 -2.24570E+03  1.00783E+04 -1.01472E+04  7.44463E+03
 -1.33336E+04 -1.35812E+03 -8.50386E+03 -9.48217E+03 -9.98112E+02 -1.41633E+04  7.90062E+03 -1.42925E+04
  1.48429E+04 -7.70504E+03  1.80164E+04  2.07850E+03  1.22990E+04  1.23259E+04  2.29026E+03  1.59343E+04
 -6.73871E+03  1.29218E+04 -9.26661E+03  4.99711E+03 -6.62797E+03 -1.89573E+03 -2.68671E+03 -2.19535E+03
 -1.21817E+03  2.88385E+02 -2.12839E+03  2.54143E+03 -5.69932E+03  2.45303E+03 -9.38032E+03 -1.24438E+03
 -6.36421E+03 -9.23127E+03  4.66197E+02 -1.31031E+04  8.18632E+03 -1.19156E+04  1.29860E+04 -3.57015E+03
  1.27678E+04  6.43616E+03  6.24257E+03  1.17530E+04 -2.60356E+03  1.33650E+04 -9.43191E+03  8.31452E+03
 -1.27059E+04  6.07636E+02 -9.68842E+03 -7.77155E+03 -1.42179E+03 -1.09584E+04  5.80889E+03 -8.45182E+03
  8.21450E+03 -2.61770E+03  5.85143E+03  2.75502E+03  2.19316E+03  4.19912E+03  1.47131E+03  1.71372E+03
  2.49998E+03  1.16691E+03  3.15643E+03  1.63596E+03  4.16742E+03  4.67937E+03  3.22368E+03  6.67330E+03
 -2.49886E+03  1.06602E+04 -9.51249E+03  1.03341E+04 -1.36283E+04  2.52730E+03 -1.41653E+04 -5.59766E+03
 -7.03913E+03 -1.32080E+04  2.05669E+03 -1.47186E+04  7.75925E+03 -9.12824E+03  1.06577E+04 -2.68046E+03
  8.75130E+03  4.85514E+03  2.00913E+03  7.80280E+03 -3.82798E+03  5.09674E+03 -5.25640E+03 -1.06968E+03
 -2.60125E+03 -5.52250E+03  3.21282E+03 -5.67673E+03  5.50861E+03 -2.89238E+03  5.33451E+03  1.59959E+03
  3.35285E+03  2.54162E+03  1.71786E+03  2.04210E+03 -1.12567E+03  1.74010E+03  1.26613E+03 -5.92801E+02
  2.09050E+03 -7.83976E+02  5.59878E+03  2.26161E+03  2.96205E+03  7.26737E+03 -7.03343E+02  9.27025E+03
 -6.39775E+03  5.97131E+03 -8.39325E+03  1.60190E+03 -7.24979E+03 -3.12221E+03 -3.14833E+03 -4.98854E+03
  8.53900E+02 -5.40342E+03  3.45025E+03 -2.22769E+03  3.11156E+03  2.87286E+03 -1.00576E+03  4.57620E+03
 -5.54335E+03  2.68562E+03 -6.10019E+03 -3.36127E+03 -3.28878E+03 -7.38759E+03  8.75789E+02 -7.08997E+03
  4.26576E+03 -3.99366E+03  5.17942E+03 -2.91710E+02  4.16095E+03  1.87133E+03  4.47474E+02  3.77019E+03
 -2.63969E+03  1.03508E+03 -3.30414E+03 -2.14527E+03  1.03746E+03 -5.61479E+03  7.05544E+03 -4.59410E+03
  8.66965E+03  8.60543E+02  7.82201E+03  5.92850E+03  2.63503E+03  8.80165E+03 -2.87249E+03  8.22200E+03
 -6.97468E+03  3.36028E+03 -7.09485E+03 -1.30306E+03 -4.00227E+03 -6.03352E+03  1.62305E+03 -5.39919E+03
  5.52245E+03 -2.82448E+03  4.37441E+03  2.84300E+03  1.49936E+03  5.07789E+03 -4.57001E+02  3.82824E+03
 -2.16979E+03  3.02452E+03 -2.04728E+03  1.04262E+03 -1.04347E+03  9.17090E+02 -1.36026E+03  1.60620E+03
 -2.22840E+03  3.26233E+03 -6.07694E+03  2.68336E+03 -8.40662E+03  4.62066E+02 -9.54533E+03 -6.02476E+03
 -5.25508E+03 -1.12431E+04  1.97172E+03 -1.28590E+04  8.08248E+03 -1.06414E+04  1.24220E+04 -3.74681E+03
  1.12873E+04  1.99518E+03  7.04697E+03  7.79584E+03  5.42403E+02  8.75288E+03 -3.61523E+03  6.69550E+03
 -5.03331E+03  2.08367E+03 -3.00018E+03 -1.16644E+03 -1.20369E+03 -5.82537E+02 -6.81471E+02 -2.47239E+02
 -1.85835E+03  5.09689E+02 -1.93461E+03 -1.38387E+02 -6.80632E+02 -2.40279E+03  1.99796E+02 -3.41917E+03
  4.14664E+03 -2.48454E+03  4.84713E+03  4.09279E+02  6.28327E+03  4.37205E+03  1.53682E+03  8.46459E+03
 -4.17698E+03  9.94337E+03 -9.48424E+03  5.74749E+03 -1.10069E+04 -4.21156E+02 -7.65444E+03 -6.99903E+03
 -3.10038E+03 -9.21233E+03  2.57539E+03 -7.85705E+03  5.43676E+03 -4.60296E+03  5.39381E+03  2.52653E+02
  3.11958E+03  2.92253E+03 -1.14664E+02  2.27156E+03 -1.68357E+03 -3.82203E+02  1.62317E+02 -2.20734E+03
  2.83678E+03 -9.52678E+02  3.32090E+03  1.37512E+03  2.24454E+03  3.18074E+03  3.20350E+02  4.44567E+03
 -3.82989E+03  3.59492E+03 -5.73266E+03  5.18762E+02 -5.08804E+03 -3.59247E+03 -3.85862E+02 -7.48228E+03
  4.19199E+03 -5.97192E+03  6.35317E+03 -1.94086E+03  6.68244E+03  1.45478E+03  3.78466E+03  5.70197E+03
  8.79712E+02  5.69571E+03 -2.18158E+03  4.81275E+03 -3.60875E+03  2.44791E+03 -2.97176E+03  1.06324E+02
 -1.24051E+03  4.23479E+01 -1.72521E+03  5.65154E+02 -3.35766E+03  1.33930E+03 -4.39395E+03 -4.47821E+02
 -4.15255E+03 -3.01968E+03 -1.33004E+03 -6.16998E+03  3.05251E+03 -5.90078E+03  5.35112E+03 -2.67189E+03
  5.43832E+03  7.01887E+02  2.97475E+03  3.78092E+03 -3.18575E+02  5.36485E+03 -4.36844E+03  4.18871E+03
