 $NMID ID='MM_0lb_SNR800_19hz_g55_80.RAW', FMTDAT='(8E13.5)'
 TRAMP=1., VOLUME=1. $END
  3.10125E+05  4.94742E+02  3.37492E+05  2.50163E+05  8.43306E+04  3.37619E+05 -1.32334E+05  2.50453E+05
 -1.89790E+05  8.26527E+04 -1.11052E+05 -3.29924E+04  1.11636E+03 -5.00699E+04  5.37993E+04  1.61602E+02
  3.50304E+04  5.26912E+04 -1.67420E+04  7.50597E+04 -6.06505E+04  6.29368E+04 -8.34911E+04  3.16707E+04
 -7.99863E+04 -1.11796E+04 -5.66762E+04 -5.04921E+04 -1.48352E+04 -6.87036E+04  2.69680E+04 -4.49832E+04
  3.91957E+04  3.66703E+03  1.56085E+04  4.72111E+04 -3.40751E+04  4.67310E+04 -6.59691E+04 -4.15230E+02
 -5.25362E+04 -5.59445E+04 -6.17582E+03 -7.56729E+04  3.32778E+04 -5.38084E+04  4.64899E+04 -1.63898E+04
  4.21659E+04  1.08714E+04  3.11160E+04  2.46306E+04  1.56676E+04  2.84181E+04 -4.78520E+03  2.69321E+04
 -2.19786E+04  1.26483E+04 -1.88990E+04 -4.67856E+03  4.84904E+03 -7.48816E+03  2.14017E+04  1.12985E+04
  7.34662E+03  3.37911E+04 -3.08935E+04  3.46704E+04 -6.18436E+04  2.27226E+03 -5.57031E+04 -4.16426E+04
 -1.27492E+04 -6.14107E+04  3.85821E+04 -4.37851E+04  5.60581E+04 -1.80802E+03  3.24484E+04  3.12689E+04
 -6.33614E+03  3.41464E+04 -2.86834E+04  1.39634E+04 -2.84363E+04 -5.33587E+03 -1.49874E+04 -9.78440E+03
 -7.42804E+03 -1.17608E+04 -7.30217E+02 -1.68297E+04  6.85881E+03 -2.26279E+04  1.49929E+04 -1.41073E+04
  1.20109E+04  4.59002E+03 -6.70884E+03  1.29778E+04 -1.99415E+04 -3.07861E+03 -8.19481E+03 -3.09737E+04
  2.13703E+04 -4.09683E+04  4.54075E+04 -1.86527E+04  4.25799E+04  1.85695E+04  1.47302E+04  4.20662E+04
 -1.54954E+04  3.15001E+04 -2.36751E+04  1.26625E+03 -8.56509E+03 -2.68887E+04  2.07670E+04 -3.14443E+04
  3.89115E+04 -7.63938E+03  3.23995E+04  2.26309E+04  1.57396E+04  4.34106E+04 -7.95414E+03  4.60566E+04
 -2.89674E+04  3.03850E+04 -3.81535E+04  8.39832E+03 -3.90921E+04 -1.55049E+04 -2.16313E+04 -3.50047E+04
  6.95063E+03 -3.49370E+04  2.95028E+04 -1.31161E+04  2.73275E+04  1.04367E+04  3.00364E+03  1.79951E+04
 -1.31151E+04  7.79679E+03 -9.64541E+03 -7.73530E+03  5.93245E+03 -1.01794E+04  1.73968E+04  6.63706E+03
  1.26527E+04  2.16999E+04 -6.68318E+03  2.36465E+04 -2.13786E+04  9.43733E+03 -2.53710E+04 -5.91827E+03
 -1.75241E+04 -1.64624E+04 -6.07154E+03 -1.74477E+04  3.79087E+03 -1.53494E+04  1.32458E+04 -1.50086E+04
  2.21255E+04 -1.16648E+04  2.84430E+04  1.34210E+03  2.17732E+04  1.65392E+04  3.89023E+03  3.29196E+04
 -1.64844E+04  2.79511E+04 -2.59123E+04  9.58842E+03 -1.98699E+04 -1.04612E+04 -3.93442E+03 -1.40376E+04
  2.67089E+03 -3.75045E+03 -3.12385E+03  5.70489E+03 -1.32704E+04  5.06299E+03 -1.37764E+04 -5.12453E+03
 -9.07424E+03 -1.60116E+04  4.68467E+03 -1.99040E+04  1.29078E+04 -1.40905E+04  1.50679E+04 -1.54623E+03
  9.19429E+03  1.15965E+04 -6.15717E+02  1.61640E+04 -1.07682E+04  8.88129E+03 -1.56056E+04 -3.76795E+03
 -1.14322E+04 -1.46126E+04 -1.40000E+03 -1.94104E+04  8.91877E+03 -1.57695E+04  1.62921E+04 -7.49862E+03
  1.51077E+04  5.33750E+02  1.05897E+04  3.98376E+03  5.42039E+03  6.20308E+02  7.77551E+03 -1.57587E+03
  1.40461E+04  2.69631E+03  1.53776E+04  1.30566E+04  9.51220E+03  2.50385E+04 -3.05043E+03  2.72334E+04
 -1.62707E+04  2.09041E+04 -2.52169E+04  1.02921E+04 -2.57603E+04 -1.84047E+03 -2.18908E+04 -1.45427E+04
 -1.05088E+04 -2.11374E+04  6.99014E+03 -1.94305E+04  1.68448E+04 -1.10502E+04  1.59008E+04  3.98390E+03
  6.73218E+03  1.14056E+04 -7.20263E+03  1.05848E+04 -1.36557E+04  2.46333E+03 -1.01801E+04 -7.97098E+03
 -5.12226E+01 -1.27551E+04  6.40143E+03 -9.48914E+03  7.95119E+03 -1.16267E+03  1.37069E+03  5.18412E+03
 -5.58434E+03  1.40358E+03 -3.92397E+03 -4.62464E+03  7.87643E+02 -1.03552E+04  7.98470E+03 -1.01218E+04
  1.26044E+04 -4.91191E+03  1.22657E+04  2.81527E+03  1.05736E+04  9.98301E+03  4.93900E+03  1.46377E+04
 -1.87804E+03  1.63132E+04 -9.87677E+03  1.05052E+04 -1.11663E+04  2.95779E+03 -8.54455E+03 -1.71689E+03
 -4.51315E+03 -3.35723E+03 -7.62801E+02  1.67073E+03 -2.03131E+03  2.03092E+03 -3.90789E+03  3.56399E+03
 -8.15012E+03 -4.70953E+02 -8.52630E+03 -7.31150E+03 -3.53417E+03 -1.17268E+04  3.48631E+03 -8.65241E+03
  7.43375E+03 -4.03189E+03  5.37482E+03  2.20796E+03  6.53826E+02  3.13702E+03 -3.69140E+03  8.02216E+01
 -3.67999E+03 -5.22013E+03 -8.79811E+02 -7.47430E+03  3.86015E+03 -8.11809E+03  1.00536E+04 -4.06741E+03
  1.19626E+04  2.89803E+02  8.61174E+03  6.45927E+03  1.74561E+03  8.93407E+03 -5.52438E+03  8.11813E+03
 -7.16348E+03  2.96707E+03 -3.67886E+03 -1.21171E+03  1.29113E+03 -2.15879E+03  4.69862E+03 -1.13862E+03
  3.90999E+03  3.56568E+03  9.29573E+02  6.37044E+03 -4.57510E+03  6.45344E+03 -7.94102E+03  2.03255E+03
 -4.80459E+03 -3.51650E+03  4.90252E+02 -6.63081E+03  3.92413E+03 -3.39605E+03  3.21226E+03  1.06758E+03
  2.88347E+02  3.52802E+03 -4.23948E+03  5.02223E+03 -4.75576E+03  2.66109E+03 -4.56845E+03 -1.02531E+03
 -3.10893E+03 -6.21032E+03  1.20240E+03 -6.96478E+03  5.99146E+03 -4.71200E+03  6.25874E+03  9.53569E+02
  4.95588E+03  5.20402E+03  2.26545E+02  7.07777E+03 -4.97834E+03  4.11619E+03 -5.32454E+03 -7.03624E+02
 -5.88806E+03 -5.00558E+03 -1.23516E+03 -4.86649E+03  2.57028E+03 -4.58333E+03  2.79410E+03 -2.53825E+03
  2.79221E+03  2.93353E+02 -6.38771E+00  1.19001E+03  5.61939E+02 -3.26964E+02  1.60655E+02 -1.77644E+03
  3.80876E+03 -8.72343E+02  5.41702E+03  7.34070E+02  5.59566E+03  2.91189E+03  5.20776E+03  7.00235E+03
 -1.24642E+03  8.47025E+03 -7.67420E+03  6.53215E+03 -9.89022E+03  1.23354E+03 -7.59491E+03 -2.65769E+03
 -4.38669E+03 -6.53330E+03 -5.36717E+02 -5.19801E+03  2.02550E+03 -2.01421E+03  1.70886E+03 -2.04077E+03
  1.14377E+03 -1.71968E+03  1.95310E+03 -2.41184E+03  3.66697E+03 -1.19578E+03  3.60130E+03  4.14607E+02
  4.46308E+03  1.16430E+03  1.07900E+03  3.19844E+03 -1.40030E+03  2.41792E+03 -4.39291E+03  2.30335E+03
 -4.86636E+03 -8.26753E+02 -1.81733E+03 -2.95464E+03  2.36783E+02 -4.85605E+03  3.15428E+03 -5.33740E+03
  4.99744E+03 -3.05843E+03  6.59656E+03  4.56736E+02  4.59762E+03  3.96301E+03  1.16301E+03  6.13924E+03
 -2.27783E+03  5.78153E+03 -3.47776E+03  1.89847E+03 -1.65793E+03 -7.85659E+02 -6.19585E+02 -5.53815E+02
 -5.75599E+02  4.99655E+02 -1.01112E+03  2.20010E+03 -2.57302E+03  1.14673E+03 -4.01500E+03 -2.76410E+02
 -1.61905E+03 -3.93003E+03  4.07664E+02 -4.40006E+03  2.84535E+03 -4.14860E+03  3.35635E+03 -8.81635E+02
  3.97272E+03  2.48220E+03  1.66896E+03  3.24209E+03 -4.33308E+02  4.23542E+03 -2.41812E+03  2.51471E+03
 -3.53297E+03  7.85818E+02 -3.12725E+03 -2.17877E+03 -2.35885E+02 -3.11280E+03  1.24109E+03 -2.40374E+03
  2.80759E+03 -1.43455E+03  1.72683E+03  4.17492E+02  5.50780E+02  1.41640E+03  7.47694E+02  3.93224E+02
  1.69866E+03  5.87668E+02  1.25229E+03  1.05258E+03  1.02432E+03  2.18111E+03  1.40992E+03  1.68419E+03
 -1.18670E+03  2.80384E+03 -2.21481E+03  3.84991E+03 -2.74345E+03  1.22252E+03 -3.79113E+03 -4.17989E+02
 -1.69394E+03 -3.24405E+03  5.45933E+02 -4.30979E+03  1.80437E+03 -2.09026E+03  2.92171E+03 -6.17512E+02
  2.37130E+03  1.80848E+03  4.01508E+02  2.25296E+03 -6.76967E+02  1.13856E+03 -8.70275E+02 -9.15118E+01
 -2.01049E+02 -1.51492E+03  1.04876E+03 -1.44508E+03  1.15126E+03 -5.94073E+02  1.36660E+03  2.86191E+02
  6.38947E+02 -1.09793E+02  5.78291E+02 -2.16126E+02 -1.79255E+02  4.70132E+02  1.46989E+03 -8.26047E+01
 -3.29470E+01 -3.13044E+02  1.76192E+03  2.79269E+02  1.67576E+02  2.11280E+03 -4.62695E+02  2.86985E+03
 -1.49337E+03  9.74399E+02 -1.75917E+03  5.77090E+01 -1.89216E+03 -5.34415E+02 -2.13134E+01 -8.29824E+02
  3.33698E+02 -8.10640E+02  9.15453E+02 -6.81561E+02  6.55963E+02  1.09581E+03 -8.25234E+02  1.08904E+03
 -1.41737E+03  7.50320E+02 -1.08216E+03 -1.10346E+03 -5.58311E+02 -1.83323E+03  3.02497E+01 -1.20392E+03
  3.44321E+02 -3.67867E+02  6.07344E+02  1.64873E+02  1.22121E+03 -1.50556E+02  3.05120E+02  1.18050E+03
 -4.06146E+02  4.25814E+01 -6.63390E+02 -1.78312E+01  6.21660E+02 -5.65595E+02  1.38653E+03 -8.68333E+02
  9.18943E+02  2.36532E+02  2.64674E+03  4.06778E+02  1.19385E+03  1.22567E+03 -3.49055E+02  1.68200E+03
 -1.16353E+03  2.92266E+02 -1.28679E+03 -1.91899E+02 -9.03747E+02 -1.01793E+03  4.96714E+02 -5.94199E+02
  1.21711E+03 -8.10116E+02  5.81792E+02  1.00759E+03  2.93461E+02  1.02417E+03  1.26269E+02  9.86039E+02
 -3.65417E+02  7.84237E+02 -4.63590E+02  4.49880E+02 -1.18441E+01  5.50387E+02 -6.85402E+02  2.97238E+02
 -5.10834E+02  1.05367E+03 -1.69147E+03  4.98793E+02 -1.40494E+03  3.57574E+01 -2.08826E+03 -1.01020E+03
 -8.71972E+02 -2.09552E+03  4.69732E+02 -2.51539E+03  9.33549E+02 -2.36264E+03  2.33333E+03 -7.26183E+02
  1.84316E+03 -5.03736E+02  5.82037E+02  1.39379E+03 -8.71536E+02  1.25373E+03 -3.90418E+02  1.05272E+03
 -7.91129E+02  4.17612E+02 -5.30297E+02 -1.54714E+02 -4.01174E+02  5.50553E+02 -6.13341E+02 -4.09875E+01
 -1.19015E+03 -3.27127E+02 -5.48444E+02  1.86248E+02  1.17916E+02 -3.36706E+02 -1.45742E+02 -9.61066E+02
  8.96723E+02 -6.09684E+02  3.20191E+02  2.73642E+01  1.07846E+03  9.57509E+02 -2.34837E+02  1.27650E+03
 -8.28767E+02  2.16049E+03 -1.39686E+03  1.12001E+03 -1.56694E+03 -2.83820E+02 -1.30698E+03 -8.56775E+02
 -7.83478E+02 -1.10959E+03  1.42856E+02 -5.73550E+02  5.75027E+02 -3.66149E+02  7.14014E+02  3.39620E+02
  5.79562E+02  9.95445E+01  6.80362E+01  2.44444E+02 -3.10649E+02  2.57364E+01 -1.23235E+01 -4.28433E+02
  4.00901E+02  1.81886E+02  1.33789E+02  2.25184E+02  1.45736E+02  1.36895E+02  5.85279E+02  2.14702E+02
 -2.55271E+02  3.51648E+02 -5.51518E+02  2.02989E+02 -5.98839E+02 -1.62660E+02  3.12877E+01 -6.92426E+02
  3.64091E+02 -5.31187E+02  3.28264E+02  2.91042E+02  6.94886E+02 -4.08014E+02  4.76151E+02  8.56169E+02
  3.83449E+02  3.14815E+02 -4.01864E+02  2.90522E+02 -4.75523E+02  5.47067E+02 -4.82466E+02 -1.46316E+01
 -4.15183E+02  4.05320E+01 -3.93116E+02  4.00282E+02 -7.13045E+02  3.33022E+01 -5.44424E+02  5.21894E+00
 -7.41850E+02  3.06369E+02 -3.36138E+02 -8.25718E+02  4.33532E+02 -1.32175E+03  6.70062E+02 -5.50029E+01
  6.00226E+02  1.58042E+01 -3.52174E+02  1.71139E+02 -6.99330E+01  6.28548E+02 -6.44286E+01  6.50653E+02
