 $NMID ID='MM_0lb_SNR800_20hz_g50_46.RAW', FMTDAT='(8E13.5)'
 TRAMP=1., VOLUME=1. $END
  3.09766E+05  1.25761E+02  3.37022E+05  2.50118E+05  8.44102E+04  3.37376E+05 -1.32738E+05  2.50307E+05
 -1.89779E+05  8.25824E+04 -1.10819E+05 -3.29358E+04  1.39038E+03 -5.04050E+04  5.41509E+04  3.93281E+01
  3.48794E+04  5.27258E+04 -1.70139E+04  7.45987E+04 -6.03420E+04  6.27327E+04 -8.30724E+04  3.12948E+04
 -7.92319E+04 -1.13138E+04 -5.60270E+04 -4.98751E+04 -1.49514E+04 -6.81095E+04  2.64565E+04 -4.47642E+04
  3.89018E+04  3.95276E+03  1.55610E+04  4.69367E+04 -3.39179E+04  4.59320E+04 -6.51337E+04 -8.40209E+02
 -5.16282E+04 -5.56679E+04 -6.19783E+03 -7.48408E+04  3.28898E+04 -5.26916E+04  4.61231E+04 -1.60554E+04
  4.13485E+04  1.12570E+04  3.06948E+04  2.41656E+04  1.56962E+04  2.78995E+04 -4.45363E+03  2.65627E+04
 -2.15972E+04  1.29542E+04 -1.90257E+04 -4.26632E+03  4.00184E+03 -7.55650E+03  2.13530E+04  1.04957E+04
  7.44148E+03  3.30814E+04 -3.03555E+04  3.36904E+04 -6.07752E+04  2.07248E+03 -5.49581E+04 -4.10009E+04
 -1.23921E+04 -6.04461E+04  3.76079E+04 -4.34454E+04  5.53433E+04 -1.95475E+03  3.15689E+04  3.02281E+04
 -6.59495E+03  3.26410E+04 -2.83377E+04  1.31125E+04 -2.71475E+04 -5.45004E+03 -1.37052E+04 -9.69211E+03
 -7.10916E+03 -1.11404E+04 -1.11916E+03 -1.63356E+04  6.42043E+03 -2.24729E+04  1.50378E+04 -1.41141E+04
  1.26782E+04  4.16646E+03 -5.78439E+03  1.29963E+04 -1.86506E+04 -2.24154E+03 -8.07087E+03 -2.94973E+04
  2.04476E+04 -4.02459E+04  4.43638E+04 -1.84148E+04  4.14541E+04  1.80476E+04  1.42532E+04  4.10093E+04
 -1.52000E+04  3.05314E+04 -2.29577E+04  1.14060E+03 -7.88882E+03 -2.60767E+04  2.01715E+04 -3.06188E+04
  3.72602E+04 -6.85125E+03  3.06051E+04  2.24537E+04  1.46337E+04  4.18084E+04 -7.69291E+03  4.45626E+04
 -2.79391E+04  2.90406E+04 -3.66203E+04  8.07691E+03 -3.76473E+04 -1.44064E+04 -2.07816E+04 -3.35851E+04
  6.90656E+03 -3.34478E+04  2.88621E+04 -1.23750E+04  2.65905E+04  1.07570E+04  2.63423E+03  1.75394E+04
 -1.28580E+04  7.23871E+03 -9.34019E+03 -7.70489E+03  5.98871E+03 -1.00997E+04  1.71543E+04  6.63352E+03
  1.20544E+04  2.16792E+04 -6.91983E+03  2.32758E+04 -2.13204E+04  8.72500E+03 -2.44913E+04 -6.39706E+03
 -1.59824E+04 -1.63857E+04 -4.92940E+03 -1.60861E+04  3.69686E+03 -1.37925E+04  1.17847E+04 -1.40299E+04
  2.05161E+04 -1.14596E+04  2.74236E+04  8.04440E+02  2.08721E+04  1.53623E+04  4.12393E+03  3.16002E+04
 -1.56120E+04  2.70306E+04 -2.56340E+04  9.35506E+03 -1.92607E+04 -1.06765E+04 -3.83213E+03 -1.40277E+04
  2.89682E+03 -4.36918E+03 -2.32756E+03  5.18780E+03 -1.23047E+04  5.36034E+03 -1.29400E+04 -4.62267E+03
 -8.03279E+03 -1.48915E+04  4.52657E+03 -1.87512E+04  1.23030E+04 -1.34750E+04  1.37983E+04 -1.36618E+03
  8.57851E+03  1.03714E+04 -9.51742E+02  1.48400E+04 -9.67739E+03  8.43454E+03 -1.47806E+04 -3.39422E+03
 -1.09572E+04 -1.37994E+04 -1.42131E+03 -1.82936E+04  8.11166E+03 -1.47275E+04  1.55442E+04 -6.76768E+03
  1.40495E+04  5.96086E+02  1.00233E+04  3.72625E+03  4.54994E+03  5.13895E+02  7.12596E+03 -1.31331E+03
  1.32844E+04  2.45743E+03  1.37490E+04  1.21158E+04  8.53637E+03  2.35717E+04 -3.13211E+03  2.51317E+04
 -1.49869E+04  1.90663E+04 -2.28158E+04  8.76774E+03 -2.32704E+04 -1.76161E+03 -2.00888E+04 -1.30808E+04
 -9.57256E+03 -1.86642E+04  6.29489E+03 -1.77603E+04  1.56797E+04 -1.06745E+04  1.49348E+04  3.09451E+03
  6.13294E+03  1.04788E+04 -6.61921E+03  9.98485E+03 -1.27647E+04  2.56237E+03 -9.87433E+03 -7.63008E+03
  9.41739E+01 -1.18401E+04  6.03302E+03 -9.03498E+03  7.10333E+03 -1.32417E+03  1.09843E+03  4.73363E+03
 -5.11672E+03  1.12348E+03 -3.18713E+03 -4.25247E+03  9.08436E+02 -9.60843E+03  7.59036E+03 -9.04135E+03
  1.13640E+04 -4.23971E+03  1.04994E+04  2.71648E+03  9.18242E+03  8.65457E+03  4.20371E+03  1.25915E+04
 -1.32860E+03  1.44490E+04 -8.79771E+03  9.45812E+03 -1.03128E+04  2.94001E+03 -7.91375E+03 -1.48685E+03
 -4.22213E+03 -3.14147E+03 -8.27853E+02  1.69749E+03 -1.84969E+03  1.98539E+03 -3.22215E+03  3.51531E+03
 -7.43505E+03 -2.73840E+02 -8.31585E+03 -6.85274E+03 -3.11771E+03 -1.08482E+04  3.03132E+03 -7.92320E+03
  6.71031E+03 -3.36934E+03  4.91943E+03  1.96274E+03  5.09108E+02  2.68438E+03 -2.97375E+03 -2.75199E+02
 -2.82724E+03 -4.57256E+03 -6.26917E+02 -6.46785E+03  3.29988E+03 -7.32737E+03  9.04633E+03 -3.30207E+03
  1.07781E+04  4.99169E+02  7.95681E+03  5.21164E+03  1.65341E+03  7.75338E+03 -4.81935E+03  7.76771E+03
 -6.35000E+03  2.60345E+03 -3.63534E+03 -1.17660E+03  1.29303E+03 -1.42090E+03  4.44742E+03 -8.95740E+02
  4.13190E+03  3.30106E+03  9.85272E+02  5.89361E+03 -3.75909E+03  6.05734E+03 -7.06778E+03  1.62808E+03
 -4.23333E+03 -3.40209E+03  1.63626E+02 -6.10454E+03  3.27480E+03 -3.19913E+03  3.07305E+03  8.33496E+02
  3.66554E+02  2.69951E+03 -3.96210E+03  4.12500E+03 -4.01011E+03  2.21233E+03 -3.65238E+03 -7.00669E+02
 -2.46507E+03 -5.19163E+03  7.46196E+02 -6.32085E+03  5.02997E+03 -4.18681E+03  5.54114E+03  1.02894E+03
  4.34261E+03  4.63742E+03  1.93745E+02  6.00254E+03 -4.51305E+03  3.74693E+03 -4.95726E+03 -2.17034E+02
 -5.08859E+03 -4.60378E+03 -1.43428E+03 -4.60918E+03  2.22089E+03 -3.99346E+03  2.70276E+03 -2.80278E+03
  2.52393E+03  1.58328E+01  3.06702E+02  1.20567E+03  7.36104E+02  6.83723E+01 -1.59459E+02 -1.40424E+03
  3.23563E+03 -4.28990E+02  4.31877E+03  5.17299E+02  4.59603E+03  2.23209E+03  4.98268E+03  5.91327E+03
 -7.63903E+02  7.14330E+03 -6.84752E+03  5.40444E+03 -8.64377E+03  1.10447E+03 -6.71022E+03 -1.91730E+03
 -3.74566E+03 -5.96735E+03 -4.41411E+02 -4.38150E+03  2.22896E+03 -1.74805E+03  1.41004E+03 -1.93054E+03
  1.04658E+03 -1.46696E+03  1.89878E+03 -2.18904E+03  3.33749E+03 -1.17672E+03  3.30880E+03  2.38767E+02
  3.98694E+03  1.07233E+03  8.36772E+02  2.95830E+03 -1.29131E+03  2.15831E+03 -3.82681E+03  2.02252E+03
 -3.78115E+03 -1.12353E+03 -1.13980E+03 -2.90796E+03  4.97813E+02 -4.13290E+03  2.81336E+03 -4.64988E+03
  4.28786E+03 -2.97840E+03  5.80653E+03 -4.60448E+01  4.25132E+03  3.46349E+03  1.32622E+03  5.07026E+03
 -1.71823E+03  5.17538E+03 -2.88139E+03  1.58948E+03 -1.31850E+03 -9.37356E+02 -3.61612E+02 -4.42529E+02
 -5.07193E+02  5.58506E+02 -7.84926E+02  1.73107E+03 -2.38061E+03  8.77505E+02 -3.66538E+03 -3.94285E+02
 -1.11178E+03 -3.38242E+03  1.19219E+03 -3.94989E+03  2.12799E+03 -3.71395E+03  2.75431E+03 -8.75592E+02
  3.22107E+03  2.19839E+03  1.22523E+03  2.60188E+03 -5.74768E+02  3.51947E+03 -2.04338E+03  2.30314E+03
 -2.79739E+03  5.90553E+02 -2.67568E+03 -1.75257E+03 -2.11663E+02 -2.27167E+03  1.11080E+03 -1.87879E+03
  2.11012E+03 -1.19877E+03  1.33352E+03  3.83171E+02  4.60080E+02  1.22762E+03  5.77895E+02  5.98935E+02
  1.66538E+03  5.32300E+02  1.00829E+03  8.13932E+02  8.33769E+02  1.93711E+03  1.31681E+03  1.33673E+03
 -1.06553E+03  2.24770E+03 -1.95411E+03  3.24151E+03 -2.11298E+03  1.20852E+03 -3.29860E+03  1.44397E+02
 -1.19082E+03 -2.74405E+03  3.14067E+02 -3.63782E+03  1.42290E+03 -2.12657E+03  2.29670E+03 -7.93092E+02
  1.81947E+03  1.53406E+03  4.18255E+02  1.97806E+03 -5.18809E+02  8.23359E+02 -7.74938E+02  1.39444E+02
 -5.36630E+02 -1.13885E+03  1.05785E+03 -1.05722E+03  9.23271E+02 -1.15740E+03  1.00842E+03  3.09597E+02
  7.31661E+02  6.38432E+01  7.61136E+02 -5.28371E+02 -2.21795E+02  6.62630E+02  1.69567E+03  2.37328E+01
 -1.00388E+02  1.79841E+02  1.41753E+03  3.52940E+02 -1.27746E+02  2.08245E+03 -2.56051E+02  2.48069E+03
 -1.46475E+03  7.42434E+02 -1.58875E+03  4.05927E+02 -1.41787E+03 -6.01615E+02 -1.03379E+02 -9.00596E+02
  4.12395E+02 -5.81776E+02  5.62307E+02 -4.95949E+02  2.90295E+02  1.15080E+03 -8.16521E+02  8.71441E+02
 -1.18622E+03  5.07216E+02 -5.86173E+02 -1.05312E+03 -5.47633E+02 -1.82787E+03  2.62331E+02 -1.03969E+03
  3.41609E+02 -2.89796E+02  4.20681E+02  3.38079E+02  7.80972E+02 -2.16075E+02 -2.67915E+00  1.03374E+03
 -5.75319E+02 -1.65374E+02 -7.16414E+02  1.10219E+01  3.99657E+02 -4.27718E+02  1.57997E+03 -4.89233E+02
  5.44789E+02  1.95753E+02  2.25244E+03  5.26912E+02  8.55563E+02  1.15259E+03 -1.20889E+02  1.47630E+03
 -1.00485E+03  2.66365E+01 -1.14609E+03  1.08551E+02 -7.27065E+02 -1.12744E+03  2.04693E+02 -3.97466E+02
  1.04413E+03 -4.77168E+02  6.64008E+02  7.06792E+02 -3.03489E+01  1.04848E+03  6.03073E+02  8.56709E+02
 -2.13513E+02  1.08663E+03  2.90212E+01 -5.53988E+01  3.37513E+02  4.31596E+02 -6.97267E+02  3.03463E+02
 -4.74399E+02  6.96013E+02 -1.44595E+03  2.90357E+02 -1.28557E+03  2.40700E+02 -1.88920E+03 -8.09332E+02
 -6.43999E+02 -1.76944E+03  3.03550E+02 -2.31614E+03  5.29997E+02 -1.63974E+03  1.85348E+03 -6.49979E+02
  1.52538E+03 -2.82665E+02  7.18014E+02  1.24081E+03 -4.03992E+02  5.38971E+02 -2.68889E+02  1.10944E+03
 -7.22784E+02  6.09170E+02 -3.52995E+02 -1.76518E+02 -1.95759E+02  3.16750E+02 -7.92537E+02  1.68220E+02
 -1.06790E+03  3.90499E+01 -7.36686E+02 -8.92330E+00  5.35781E+02 -5.42784E+02 -2.68124E+02 -6.50169E+02
  9.52599E+02 -4.28183E+02  2.65907E+01  1.96462E+02  7.28018E+02  6.35192E+02 -6.68030E+02  1.03296E+03
 -7.62978E+02  1.66360E+03 -9.58223E+02  1.02373E+03 -1.18978E+03 -4.15437E+02 -7.69982E+02 -7.91512E+02
 -5.96620E+02 -9.59793E+02  2.95384E+02 -5.81445E+02  1.61978E+02 -4.29119E+02  1.79404E+02  2.78441E+02
  5.31945E+02  3.49158E+02  2.65961E+02  2.32845E+02 -3.10650E+02  2.88964E+02 -2.76809E+02 -3.77131E+02
  2.38688E+02  2.39777E+02 -4.61279E+01  1.72829E+02 -4.34359E+00  1.71508E+02  4.08409E+02  3.07205E+01
 -5.19277E+02  3.97196E+02 -3.23002E+02  5.30746E+01 -6.67342E+02 -3.83539E+02  9.92607E+01 -9.28751E+02
  4.86586E+01 -2.86535E+02  8.51393E+01 -5.91666E+01  7.16887E+02 -6.97430E+02  5.30147E+02  3.09207E+02
  3.94065E+02  2.46172E+02  6.77808E+01  4.19270E+02 -3.51323E+02  5.42730E+02 -1.14831E+02  2.94831E+02
 -1.17886E+02 -5.83048E+01 -2.14972E+02 -1.49791E+02 -4.77160E+02  3.36479E+01 -6.60509E+02 -3.60369E+02
 -8.61251E+02  3.42161E+02 -8.98815E+01 -7.19676E+02  7.27743E+02 -1.29845E+03  5.48656E+02  7.40937E+01
  4.06790E+02  9.54297E+01 -3.58622E+02  1.19307E+02 -8.72575E+00  3.70731E+02 -1.18508E+02  5.98826E+02
