 $NMID ID='MM_0lb_SNR800_20hz_g55_6.RAW', FMTDAT='(8E13.5)'
 TRAMP=1., VOLUME=1. $END
  3.09641E+05  2.89652E+02  3.37095E+05  2.50505E+05  8.41736E+04  3.37358E+05 -1.32534E+05  2.50612E+05
 -1.90088E+05  8.29087E+04 -1.11062E+05 -3.29304E+04  1.33024E+03 -5.03918E+04  5.36950E+04  1.56326E+02
  3.50935E+04  5.28057E+04 -1.65182E+04  7.50039E+04 -6.02953E+04  6.28754E+04 -8.33098E+04  3.14727E+04
 -7.96283E+04 -1.10921E+04 -5.61709E+04 -5.01022E+04 -1.49961E+04 -6.83552E+04  2.68537E+04 -4.48761E+04
  3.89981E+04  3.76507E+03  1.58924E+04  4.71532E+04 -3.38715E+04  4.62577E+04 -6.56760E+04 -6.21121E+02
 -5.22539E+04 -5.61263E+04 -6.26432E+03 -7.55505E+04  3.33818E+04 -5.36339E+04  4.62150E+04 -1.64443E+04
  4.18369E+04  1.13091E+04  3.06711E+04  2.44474E+04  1.56964E+04  2.81636E+04 -4.87226E+03  2.66004E+04
 -2.17685E+04  1.25284E+04 -1.90318E+04 -4.37877E+03  4.55864E+03 -7.58322E+03  2.14120E+04  1.10885E+04
  7.31467E+03  3.33618E+04 -3.06593E+04  3.41410E+04 -6.12133E+04  2.16996E+03 -5.53491E+04 -4.11397E+04
 -1.26560E+04 -6.09034E+04  3.84829E+04 -4.35175E+04  5.58386E+04 -1.72775E+03  3.22341E+04  3.06013E+04
 -6.50926E+03  3.33708E+04 -2.82199E+04  1.34869E+04 -2.77419E+04 -5.24735E+03 -1.47829E+04 -1.01755E+04
 -7.43434E+03 -1.13512E+04 -1.13826E+03 -1.67684E+04  6.70132E+03 -2.26294E+04  1.50898E+04 -1.38419E+04
  1.24056E+04  4.39101E+03 -6.58562E+03  1.30745E+04 -1.95497E+04 -2.67643E+03 -8.10841E+03 -3.05935E+04
  2.08873E+04 -4.05316E+04  4.47472E+04 -1.85658E+04  4.20027E+04  1.82183E+04  1.42545E+04  4.16090E+04
 -1.54138E+04  3.11545E+04 -2.34551E+04  1.12518E+03 -7.97524E+03 -2.63487E+04  2.03670E+04 -3.12193E+04
  3.79171E+04 -7.55362E+03  3.15335E+04  2.26765E+04  1.52066E+04  4.28895E+04 -7.70116E+03  4.50192E+04
 -2.85329E+04  2.99996E+04 -3.74470E+04  8.49218E+03 -3.85327E+04 -1.51889E+04 -2.11470E+04 -3.41797E+04
  7.00431E+03 -3.40678E+04  2.92291E+04 -1.27128E+04  2.69042E+04  1.08503E+04  2.91277E+03  1.75585E+04
 -1.31216E+04  7.26407E+03 -9.66968E+03 -7.59763E+03  5.96580E+03 -9.94422E+03  1.70495E+04  6.53214E+03
  1.23457E+04  2.15914E+04 -6.92532E+03  2.34954E+04 -2.16286E+04  9.20211E+03 -2.51266E+04 -6.39340E+03
 -1.67833E+04 -1.63317E+04 -5.56352E+03 -1.65810E+04  4.24703E+03 -1.47166E+04  1.23292E+04 -1.41027E+04
  2.11003E+04 -1.15632E+04  2.81762E+04  1.06309E+03  2.09235E+04  1.63551E+04  4.21359E+03  3.23488E+04
 -1.59197E+04  2.74180E+04 -2.55906E+04  9.31344E+03 -1.95586E+04 -1.05359E+04 -3.98555E+03 -1.40261E+04
  2.52691E+03 -4.59307E+03 -2.29983E+03  5.38466E+03 -1.26830E+04  4.97139E+03 -1.33317E+04 -4.74376E+03
 -8.27347E+03 -1.53367E+04  4.41539E+03 -1.91747E+04  1.25034E+04 -1.42252E+04  1.43783E+04 -1.53752E+03
  8.69689E+03  1.05442E+04 -8.05640E+02  1.56389E+04 -1.00481E+04  8.65231E+03 -1.52274E+04 -3.71419E+03
 -1.15967E+04 -1.40826E+04 -1.31474E+03 -1.87936E+04  8.54451E+03 -1.46828E+04  1.59642E+04 -7.24912E+03
  1.44155E+04  6.03374E+02  1.00553E+04  3.60923E+03  5.28513E+03  2.77318E+02  7.31475E+03 -1.30765E+03
  1.38814E+04  2.55700E+03  1.42836E+04  1.24488E+04  8.79835E+03  2.45523E+04 -3.10535E+03  2.58916E+04
 -1.52425E+04  1.97933E+04 -2.37563E+04  9.32560E+03 -2.42793E+04 -1.69397E+03 -2.09310E+04 -1.38504E+04
 -9.94547E+03 -1.95544E+04  6.75726E+03 -1.86061E+04  1.59827E+04 -1.06584E+04  1.52872E+04  3.73275E+03
  6.65441E+03  1.09731E+04 -6.73981E+03  1.02641E+04 -1.29062E+04  2.64629E+03 -9.85908E+03 -7.86285E+03
 -1.93989E+02 -1.23157E+04  5.95588E+03 -9.37597E+03  7.64302E+03 -1.32395E+03  1.42572E+03  4.77470E+03
 -5.26990E+03  1.24134E+03 -3.57976E+03 -4.62129E+03  7.61893E+02 -9.85960E+03  7.63356E+03 -9.44810E+03
  1.18212E+04 -4.40721E+03  1.14323E+04  2.82693E+03  9.73290E+03  8.82655E+03  4.65546E+03  1.33170E+04
 -1.59211E+03  1.50151E+04 -8.98706E+03  9.62803E+03 -1.08037E+04  2.81348E+03 -7.96257E+03 -1.85645E+03
 -4.60020E+03 -3.18168E+03 -7.54396E+02  1.69391E+03 -2.00773E+03  1.79465E+03 -3.58952E+03  3.45271E+03
 -7.76199E+03 -3.38967E+02 -8.26917E+03 -7.12589E+03 -3.18718E+03 -1.12660E+04  3.12651E+03 -8.31559E+03
  6.84280E+03 -3.49249E+03  5.05649E+03  1.79379E+03  7.31580E+02  2.76155E+03 -2.97549E+03 -5.60361E+01
 -3.33694E+03 -4.69669E+03 -6.47859E+02 -6.82338E+03  3.53015E+03 -7.30703E+03  9.35301E+03 -3.42595E+03
  1.09947E+04  3.77942E+02  8.22319E+03  5.65049E+03  1.56103E+03  8.15518E+03 -4.96541E+03  7.78426E+03
 -6.76493E+03  2.51203E+03 -3.35793E+03 -1.18180E+03  1.25769E+03 -1.81575E+03  4.26792E+03 -1.05741E+03
  3.82378E+03  2.96334E+03  9.45431E+02  6.06535E+03 -3.94844E+03  6.09154E+03 -7.30335E+03  1.64790E+03
 -4.67917E+03 -3.42965E+03  2.02481E+02 -6.06612E+03  3.22814E+03 -2.76023E+03  3.06949E+03  9.06865E+02
  2.54944E+02  2.97648E+03 -3.96643E+03  4.52743E+03 -4.23809E+03  2.36374E+03 -3.82634E+03 -9.95648E+02
 -2.36931E+03 -5.21971E+03  9.31412E+02 -6.59012E+03  5.45941E+03 -4.08177E+03  5.64229E+03  7.46154E+02
  4.33543E+03  4.70837E+03  3.19453E+02  6.72647E+03 -4.70313E+03  3.96196E+03 -4.45341E+03 -3.83285E+01
 -5.44465E+03 -4.97049E+03 -1.42341E+03 -4.32919E+03  2.31061E+03 -4.39304E+03  2.76553E+03 -2.82668E+03
  2.47972E+03 -9.57647E+01  3.80283E+02  1.38440E+03  8.96109E+02  1.83484E+02  8.51489E+01 -1.36129E+03
  3.34097E+03 -5.67896E+02  4.45720E+03  2.87414E+02  4.94244E+03  2.46521E+03  4.88276E+03  6.09419E+03
 -1.07465E+03  7.69624E+03 -6.85744E+03  5.82484E+03 -8.80521E+03  8.72940E+02 -6.64270E+03 -1.87709E+03
 -3.82961E+03 -5.78348E+03 -5.62075E+02 -4.33208E+03  1.72876E+03 -1.73118E+03  1.59249E+03 -1.88991E+03
  1.11782E+03 -1.28510E+03  1.87229E+03 -2.00745E+03  3.26387E+03 -1.20766E+03  3.59491E+03  5.27481E+02
  3.98987E+03  1.05233E+03  1.20229E+03  3.18070E+03 -1.86227E+03  2.24823E+03 -3.96551E+03  2.10893E+03
 -4.09176E+03 -1.05667E+03 -1.32590E+03 -2.95388E+03  5.34755E+02 -4.17131E+03  2.79934E+03 -4.61283E+03
  4.22222E+03 -3.01655E+03  5.77825E+03  2.76782E+01  4.22448E+03  3.51747E+03  9.84114E+02  5.08237E+03
 -1.82538E+03  5.23611E+03 -2.90664E+03  1.88578E+03 -1.69481E+03 -1.05734E+03 -2.60117E+02 -5.64272E+02
 -3.77330E+02  4.90814E+02 -8.18931E+02  2.12458E+03 -2.11947E+03  8.81539E+02 -3.22282E+03 -2.55747E+02
 -1.23461E+03 -3.69464E+03  9.59281E+02 -3.87534E+03  2.23593E+03 -3.94874E+03  2.83125E+03 -1.00177E+03
  3.33278E+03  2.05034E+03  1.60408E+03  2.74191E+03 -5.68583E+02  3.72539E+03 -2.20653E+03  2.20192E+03
 -3.09442E+03  6.84957E+02 -2.64633E+03 -2.18582E+03  7.88782E+01 -2.84287E+03  1.34312E+03 -1.94566E+03
  2.07260E+03 -9.38473E+02  1.49738E+03  2.94258E+02  3.41158E+02  1.32329E+03  1.14560E+03  3.08512E+02
  1.47914E+03  4.33007E+02  1.10432E+03  9.80305E+02  9.02916E+02  2.03686E+03  1.31806E+03  1.14763E+03
 -1.35192E+03  2.42463E+03 -1.84507E+03  3.36144E+03 -2.20694E+03  1.12050E+03 -3.00071E+03 -1.00201E+02
 -1.37330E+03 -2.79084E+03  4.83269E+02 -3.70032E+03  1.34994E+03 -1.85239E+03  2.37332E+03 -8.13027E+02
  2.20662E+03  1.80151E+03  3.12403E+02  1.93948E+03 -2.79943E+02  5.89741E+02 -7.09280E+02 -1.11943E+02
 -4.80604E+02 -1.16907E+03  1.10382E+03 -1.15703E+03  1.28916E+03 -6.52440E+02  8.13828E+02  4.59366E+02
  5.98128E+02  6.18519E+01  6.86625E+02 -4.26800E+02 -1.65372E+02  6.47187E+02  1.69972E+03 -3.24121E+02
 -3.01183E+02 -1.25610E+02  1.39135E+03  4.10376E+02  3.09019E+01  1.92112E+03 -2.76356E+02  2.35932E+03
 -1.22396E+03  5.37855E+02 -1.46256E+03 -1.62035E+02 -1.71078E+03 -4.01024E+02  3.03271E+02 -5.44534E+02
  1.97339E+02 -8.97846E+02  8.25797E+02 -5.31717E+02  5.44346E+02  1.15432E+03 -9.44979E+02  1.02710E+03
 -9.37049E+02  5.37453E+02 -8.55443E+02 -1.17427E+03 -5.87944E+02 -1.66077E+03  1.69421E+02 -1.27391E+03
  1.00744E+01 -4.17311E+02  5.04443E+02 -3.36039E+01  1.27433E+03 -2.52952E+02  4.38543E+02  9.89835E+02
 -6.60498E+01  7.18051E+01 -8.07525E+02 -2.43830E+02  6.22225E+02 -2.71509E+02  1.42580E+03 -4.46275E+02
  9.75870E+02 -2.42534E+02  2.21728E+03  2.18602E+02  1.27160E+03  9.38655E+02 -2.59972E+02  1.34737E+03
 -7.68391E+02 -1.15004E+02 -1.46423E+03 -8.16327E+01 -4.16306E+02 -8.68158E+02  3.33055E+02 -5.92107E+01
  1.01759E+03 -4.11597E+02  5.75985E+02  5.49630E+02  5.18322E+01  1.04233E+03  2.41875E+02  9.38321E+02
 -1.39944E+02  1.19371E+03 -4.77155E+02  9.18425E+00  1.38438E+02  4.21415E+02 -7.87809E+02  3.55606E+02
 -3.67612E+02  9.00679E+02 -1.35991E+03  6.13326E+01 -1.09543E+03  3.96053E+01 -1.98277E+03 -6.62991E+02
 -6.25829E+02 -1.77556E+03  6.15697E+02 -2.11761E+03  6.98801E+02 -1.98627E+03  2.01901E+03 -7.95060E+02
  1.65183E+03 -3.85111E+02  7.84975E+02  8.48991E+02 -6.47941E+02  9.44901E+02 -4.84897E+02  1.02283E+03
 -6.39629E+02  7.74428E+02 -1.33851E+02 -3.94925E+02 -4.02262E+02  2.16892E+02 -3.98288E+02 -1.12970E+02
 -9.54431E+02 -1.80659E+02 -6.39182E+02 -1.44623E+02  5.84248E+02 -5.69375E+02 -5.25412E+02 -6.73514E+02
  8.88812E+02 -5.68125E+02 -3.39335E+02  2.73899E+02  8.60426E+02  7.29293E+02 -5.86116E+02  9.22414E+02
 -6.48361E+02  1.71258E+03 -1.16371E+03  6.17287E+02 -1.22646E+03 -1.79605E+02 -6.03470E+02 -9.68743E+02
 -7.91460E+02 -7.98897E+02  4.09836E+01 -4.75469E+02  3.20299E+02 -1.89947E+02  8.77240E+01  3.81126E+01
  6.14802E+02  1.15425E+02  1.52863E+02  1.71913E+02 -5.45186E+02  1.93681E+02 -1.62765E+02 -2.24182E+02
  5.19238E+02  1.48813E+02 -1.41693E+02  4.29692E+02 -1.42637E+02  3.44232E+02  4.53316E+02  3.36982E+01
 -3.23349E+02  3.89269E+02 -4.20134E+02  4.87050E+01 -5.20350E+02 -2.79730E+02  7.20573E+01 -7.92271E+02
  1.96461E+02 -3.62878E+02  2.00270E+02  1.28693E+02  7.15610E+02 -7.71090E+02  1.62264E+02  5.12144E+02
  6.09779E+02  2.61758E+02 -4.17761E+00  6.39717E+00 -4.93844E+02  4.51245E+02 -2.31706E+02 -6.51926E+01
  3.48063E-01 -3.96954E+01 -3.60710E+02  1.48909E+02 -3.43788E+02  1.29494E+02 -3.89802E+02 -2.41291E+02
 -8.59427E+02  6.09612E+02 -5.18504E+02 -7.02647E+02  3.95737E+02 -1.18300E+03  6.21115E+02 -8.14449E+01
  5.85759E+02 -9.32303E+01 -5.88538E+02 -1.21545E+02  1.45544E+02  2.73516E+02 -2.86678E+02  2.26561E+02
