 $NMID ID='MM_0lb_SNR800_15hz_g60_24.RAW', FMTDAT='(8E13.5)'
 TRAMP=1., VOLUME=1. $END
  3.09694E+05  5.65222E+02  3.37618E+05  2.50621E+05  8.47436E+04  3.37636E+05 -1.32572E+05  2.51030E+05
 -1.90668E+05  8.35463E+04 -1.11740E+05 -3.24075E+04  9.80496E+02 -5.06674E+04  5.37240E+04 -1.76300E+02
  3.53742E+04  5.25788E+04 -1.70541E+04  7.55543E+04 -6.07919E+04  6.37578E+04 -8.46175E+04  3.20766E+04
 -8.13727E+04 -1.14464E+04 -5.73301E+04 -5.16805E+04 -1.49925E+04 -6.99217E+04  2.75886E+04 -4.59295E+04
  4.03750E+04  3.72237E+03  1.58023E+04  4.80228E+04 -3.43068E+04  4.76397E+04 -6.70929E+04 -3.44744E+02
 -5.38902E+04 -5.68855E+04 -6.90947E+03 -7.74584E+04  3.42292E+04 -5.55490E+04  4.83652E+04 -1.74878E+04
  4.39474E+04  1.12434E+04  3.18541E+04  2.60444E+04  1.59342E+04  2.94935E+04 -5.25123E+03  2.70745E+04
 -2.20919E+04  1.23806E+04 -1.86173E+04 -5.43803E+03  6.27577E+03 -7.59507E+03  2.23135E+04  1.29384E+04
  7.05464E+03  3.57908E+04 -3.24829E+04  3.57596E+04 -6.37557E+04  2.25164E+03 -5.70710E+04 -4.30486E+04
 -1.27397E+04 -6.37495E+04  3.98689E+04 -4.58962E+04  5.88323E+04 -2.43779E+03  3.47694E+04  3.29204E+04
 -5.83906E+03  3.68131E+04 -3.05079E+04  1.64333E+04 -3.09436E+04 -4.21074E+03 -1.72625E+04 -1.11023E+04
 -8.46252E+03 -1.39205E+04 -5.90689E+02 -1.82681E+04  7.79289E+03 -2.28556E+04  1.52169E+04 -1.32024E+04
  1.09791E+04  5.16496E+03 -8.82093E+03  1.29255E+04 -2.18714E+04 -5.06988E+03 -8.17116E+03 -3.42226E+04
  2.35116E+04 -4.43435E+04  4.87218E+04 -1.96365E+04  4.57379E+04  1.94446E+04  1.61126E+04  4.48152E+04
 -1.61029E+04  3.36598E+04 -2.58343E+04  1.96957E+03 -9.70187E+03 -2.79011E+04  2.11170E+04 -3.44834E+04
  4.16767E+04 -9.72426E+03  3.62977E+04  2.39603E+04  1.88782E+04  4.71980E+04 -8.54585E+03  5.11851E+04
 -3.23575E+04  3.42410E+04 -4.30270E+04  9.64929E+03 -4.35611E+04 -1.69465E+04 -2.39025E+04 -3.85315E+04
  7.34385E+03 -3.85582E+04  3.19743E+04 -1.49960E+04  2.98324E+04  1.08908E+04  4.15229E+03  1.94506E+04
 -1.34470E+04  8.48955E+03 -1.02827E+04 -7.45832E+03  5.52353E+03 -1.03381E+04  1.79662E+04  5.73298E+03
  1.36689E+04  2.23506E+04 -5.88671E+03  2.55416E+04 -2.27605E+04  1.17420E+04 -2.88325E+04 -4.45776E+03
 -2.15857E+04 -1.73165E+04 -8.80120E+03 -2.11571E+04  4.18176E+03 -2.02046E+04  1.64743E+04 -1.87113E+04
  2.67441E+04 -1.27961E+04  3.35345E+04  3.25045E+03  2.42939E+04  2.04512E+04  4.03384E+03  3.70566E+04
 -1.79855E+04  3.07125E+04 -2.80344E+04  1.05351E+04 -2.09595E+04 -1.01582E+04 -4.65778E+03 -1.35206E+04
  1.69574E+03 -2.63193E+03 -4.82016E+03  6.82145E+03 -1.68225E+04  5.30726E+03 -1.66589E+04 -7.30550E+03
 -9.98629E+03 -1.95201E+04  5.40629E+03 -2.36137E+04  1.56185E+04 -1.67135E+04  1.86916E+04 -1.76021E+03
  1.15741E+04  1.36208E+04 -1.03799E+03  1.92751E+04 -1.32766E+04  1.09159E+04 -1.94303E+04 -4.27342E+03
 -1.44733E+04 -1.75155E+04 -2.07335E+03 -2.35698E+04  1.05180E+04 -1.94054E+04  1.94006E+04 -9.38223E+03
  1.81661E+04  3.78151E+02  1.26121E+04  4.36213E+03  7.10870E+03  7.27053E+02  9.79384E+03 -1.53500E+03
  1.74284E+04  3.04135E+03  2.00375E+04  1.55309E+04  1.30106E+04  3.06852E+04 -2.81067E+03  3.50912E+04
 -2.01172E+04  2.82621E+04 -3.28159E+04  1.40871E+04 -3.40370E+04 -2.29599E+03 -2.81699E+04 -1.97700E+04
 -1.18766E+04 -2.82989E+04  1.00500E+04 -2.57555E+04  2.18400E+04 -1.30306E+04  1.97888E+04  5.48072E+03
  7.15933E+03  1.45908E+04 -9.20841E+03  1.26022E+04 -1.62911E+04  2.56656E+03 -1.25536E+04 -1.03502E+04
 -3.12993E+02 -1.57828E+04  7.79186E+03 -1.15742E+04  1.02186E+04 -1.51074E+03  2.23024E+03  6.64578E+03
 -6.93834E+03  2.20385E+03 -6.20553E+03 -5.54209E+03 -3.74596E+02 -1.35973E+04  9.44584E+03 -1.43844E+04
  1.68613E+04 -7.68094E+03  1.82237E+04  3.22523E+03  1.59317E+04  1.34968E+04  7.57757E+03  2.06263E+04
 -3.31895E+03  2.26531E+04 -1.44860E+04  1.42162E+04 -1.62501E+04  3.46211E+03 -1.13298E+04 -3.72902E+03
 -5.30304E+03 -4.98455E+03 -7.52373E+02  1.24468E+03 -2.19616E+03  2.94647E+03 -5.01276E+03  4.33028E+03
 -1.07013E+04 -7.40540E+02 -1.12721E+04 -9.50119E+03 -4.45259E+03 -1.46163E+04  4.66992E+03 -1.19593E+04
  9.57314E+03 -4.84782E+03  6.76323E+03  3.18442E+03 -1.97066E+01  4.14234E+03 -5.63833E+03 -5.38819E+02
 -5.16865E+03 -7.03794E+03 -1.14327E+03 -1.06303E+04  6.23458E+03 -1.13502E+04  1.42873E+04 -6.05661E+03
  1.66387E+04  1.41116E+03  1.22653E+04  9.44089E+03  2.70534E+03  1.28746E+04 -7.00163E+03  1.10947E+04
 -9.21807E+03  3.25503E+03 -4.70555E+03 -1.88120E+03  1.70957E+03 -3.06262E+03  6.10291E+03 -8.56806E+02
  5.68239E+03  5.01049E+03  1.13562E+03  8.71805E+03 -6.15416E+03  8.71061E+03 -1.08844E+04  2.40993E+03
 -7.19849E+03 -5.32842E+03  3.67537E+02 -9.25419E+03  5.83449E+03 -4.83037E+03  6.05926E+03  1.97086E+03
  1.25866E+03  5.60992E+03 -5.86512E+03  7.62316E+03 -7.94299E+03  3.55562E+03 -8.24045E+03 -2.68929E+03
 -4.86452E+03 -9.49639E+03  2.06123E+03 -1.15200E+04  9.58461E+03 -7.08170E+03  1.02396E+04  1.57307E+03
  6.56391E+03  8.28347E+03 -7.03650E+02  1.04800E+04 -7.65079E+03  6.15213E+03 -8.05748E+03 -7.25535E+02
 -7.68580E+03 -7.19870E+03 -1.71005E+03 -7.49254E+03  4.06200E+03 -6.66354E+03  4.80373E+03 -3.07383E+03
  3.53857E+03  6.92418E+02 -2.81484E+02  1.50028E+03 -7.58581E+01 -1.21584E+03  8.72695E+02 -3.78099E+03
  6.73980E+03 -2.27235E+03  8.95750E+03  1.05030E+03  9.11852E+03  6.03683E+03  7.14399E+03  1.23282E+04
 -2.38824E+03  1.41267E+04 -1.19469E+04  1.03968E+04 -1.56615E+04  2.03670E+03 -1.24365E+04 -4.95410E+03
 -6.39880E+03 -1.00922E+04 -1.81001E+02 -8.42172E+03  3.11901E+03 -4.20024E+03  2.86622E+03 -3.14792E+03
  2.10518E+03 -1.97932E+03  2.94593E+03 -2.90362E+03  4.15925E+03 -2.02329E+03  5.19917E+03 -3.03253E+02
  6.51853E+03  1.61713E+03  2.79377E+03  5.57646E+03 -1.68941E+03  5.70270E+03 -6.94749E+03  4.83096E+03
 -8.06339E+03 -1.01596E+03 -4.20850E+03 -5.60936E+03 -4.98015E+01 -8.43132E+03  5.09753E+03 -8.76619E+03
  8.91373E+03 -5.10298E+03  1.08989E+04  1.11564E+03  7.96165E+03  7.36655E+03  1.33090E+03  9.75903E+03
 -3.80927E+03  8.63452E+03 -5.61517E+03  2.79812E+03 -3.30056E+03 -1.32834E+03 -1.31653E+03 -1.23014E+03
 -4.68744E+02  2.22321E+02 -1.18398E+03  2.18372E+03 -3.72717E+03  1.50451E+03 -6.00561E+03 -8.84560E+02
 -3.42134E+03 -6.16479E+03  5.37599E+02 -7.72281E+03  4.87525E+03 -6.93157E+03  6.96968E+03 -1.90371E+03
  7.30521E+03  3.86371E+03  3.21998E+03  6.35486E+03 -1.67384E+03  7.59134E+03 -4.86442E+03  4.54280E+03
 -6.62128E+03  2.24068E+02 -5.78301E+03 -4.45818E+03 -2.93492E+02 -5.87355E+03  3.03079E+03 -4.54908E+03
  4.72931E+03 -2.13496E+03  3.11280E+03  9.20547E+02  1.00520E+03  2.24502E+03  9.80704E+02  1.06293E+03
  1.74888E+03  6.87253E+02  1.75115E+03  1.47383E+03  2.33041E+03  3.17059E+03  2.11773E+03  3.21250E+03
 -1.64565E+03  5.75300E+03 -4.80719E+03  6.27355E+03 -6.53059E+03  1.90882E+03 -7.43917E+03 -1.91112E+03
 -3.82021E+03 -6.96441E+03  1.04494E+03 -8.21955E+03  3.91135E+03 -4.41284E+03  5.46194E+03 -1.36836E+03
  4.28795E+03  2.76229E+03  1.03061E+03  4.10439E+03 -1.84400E+03  2.76856E+03 -2.40660E+03 -4.76410E+02
 -1.14478E+03 -2.84940E+03  1.94287E+03 -3.21313E+03  2.39891E+03 -1.67643E+03  2.52763E+03  7.46032E+02
  1.41663E+03  9.33769E+02  9.21215E+02  6.03331E+02 -3.62808E+02  9.45471E+02  1.65159E+03 -2.62402E+02
  6.38784E+02 -2.67684E+02  2.79149E+03  1.31147E+03  1.20026E+03  3.98020E+03 -8.92137E+02  5.18929E+03
 -3.10594E+03  2.52889E+03 -4.08449E+03  6.90294E+02 -3.88094E+03 -1.72084E+03 -9.43276E+02 -2.17560E+03
  1.14342E+03 -2.79909E+03  1.82203E+03 -1.28588E+03  1.22643E+03  1.44142E+03 -6.25230E+02  2.14359E+03
 -2.73546E+03  1.04280E+03 -2.87736E+03 -1.94342E+03 -1.45900E+03 -3.78684E+03  2.72135E+02 -3.29373E+03
  1.62841E+03 -1.56034E+03  2.26687E+03 -1.88118E+02  2.07855E+03  4.60720E+02  5.76079E+02  2.17938E+03
 -6.61915E+02  7.84200E+01 -1.50386E+03 -8.81660E+02  5.59895E+02 -2.22383E+03  3.06131E+03 -2.07895E+03
  3.32506E+03  1.17438E+02  4.46563E+03  2.26989E+03  1.50209E+03  3.57435E+03 -1.17457E+03  3.64619E+03
 -3.05639E+03  1.16435E+03 -3.23931E+03 -3.49091E+02 -1.56051E+03 -2.62095E+03  7.84566E+02 -1.80741E+03
  2.18553E+03 -1.15132E+03  1.78267E+03  1.10913E+03  3.24666E+02  2.35862E+03  6.35230E+01  1.89675E+03
 -7.53570E+02  1.59579E+03 -8.06309E+02  6.00646E+02 -1.03220E+02  7.15023E+02 -6.93444E+02  7.75633E+02
 -6.67326E+02  1.35124E+03 -2.82067E+03  8.46242E+02 -3.60671E+03 -5.49455E+01 -4.38663E+03 -2.26300E+03
 -1.87955E+03 -4.63563E+03  1.03456E+03 -5.46130E+03  3.00563E+03 -4.97405E+03  5.24628E+03 -1.85777E+03
  4.73776E+03  7.29921E+02  2.43293E+03  3.11869E+03 -6.89907E+02  3.31407E+03 -1.71816E+03  2.58180E+03
 -2.13966E+03  9.68208E+02 -9.20023E+02 -5.80898E+02 -6.42807E+02  3.99745E+01 -9.76151E+02 -1.58298E+02
 -9.15716E+02  3.03776E+02 -1.29883E+03 -2.23602E+02  2.62884E+02 -1.05484E+03 -2.24879E+02 -1.61468E+03
  2.00362E+03 -1.22726E+03  1.64771E+03  1.94311E+02  2.33952E+03  1.79814E+03  3.09593E+01  3.22610E+03
 -2.08807E+03  4.07425E+03 -3.54374E+03  2.30805E+03 -3.80389E+03 -3.55873E+02 -3.10937E+03 -2.69016E+03
 -1.35240E+03 -3.23562E+03  9.63417E+02 -2.70997E+03  1.76406E+03 -1.69489E+03  1.83653E+03  7.69611E+01
  1.18858E+03  8.97345E+02  8.47101E+01  1.08456E+03 -6.69195E+02  3.82634E+02  1.69102E+02 -8.19692E+02
  9.66711E+02 -4.22007E+01  8.65678E+02  6.96144E+02  4.80252E+02  9.46450E+02  5.27479E+02  1.07395E+03
 -1.36197E+03  1.29687E+03 -1.66377E+03  4.70747E+02 -1.85709E+03 -8.38662E+02 -3.64252E+02 -2.40086E+03
  1.23744E+03 -1.84929E+03  2.05678E+03 -6.30439E+02  2.20808E+03 -2.03441E+02  1.34704E+03  1.98724E+03
  5.76756E+02  1.82374E+03 -8.83393E+02  9.24454E+02 -9.60465E+02  1.13054E+03 -8.81899E+02  3.89536E+02
 -5.85410E+02 -1.43449E+02 -7.96169E+02  2.82738E+02 -1.32151E+03  2.31952E+02 -1.72218E+03 -2.74331E+02
 -1.72192E+03 -5.04682E+01 -4.79948E+02 -1.87006E+03  1.15238E+03 -2.60290E+03  1.78375E+03 -7.35849E+02
  2.15063E+03  2.95666E+02  2.78399E+02  1.18468E+03  2.52671E+00  1.74214E+03 -1.03763E+03  1.43621E+03
