 $NMID ID='MM_0lb_SNR800_18hz_g50_81.RAW', FMTDAT='(8E13.5)'
 TRAMP=1., VOLUME=1. $END
  3.09998E+05  4.77983E+02  3.37465E+05  2.50276E+05  8.44703E+04  3.37718E+05 -1.32532E+05  2.50443E+05
 -1.89710E+05  8.28073E+04 -1.11449E+05 -3.29175E+04  1.33706E+03 -5.04697E+04  5.38716E+04  3.21122E+02
  3.51467E+04  5.25947E+04 -1.69772E+04  7.51429E+04 -6.04982E+04  6.29208E+04 -8.30688E+04  3.14710E+04
 -7.97266E+04 -1.09307E+04 -5.65351E+04 -5.06058E+04 -1.53471E+04 -6.82543E+04  2.68539E+04 -4.48317E+04
  3.92460E+04  3.88212E+03  1.56980E+04  4.73688E+04 -3.38857E+04  4.64935E+04 -6.59413E+04 -5.21148E+02
 -5.21957E+04 -5.59768E+04 -6.60681E+03 -7.60129E+04  3.33723E+04 -5.36749E+04  4.67873E+04 -1.65314E+04
  4.20516E+04  1.13243E+04  3.10383E+04  2.46993E+04  1.58202E+04  2.85618E+04 -4.81008E+03  2.68637E+04
 -2.15885E+04  1.27402E+04 -1.88285E+04 -4.27338E+03  4.48449E+03 -7.52580E+03  2.15434E+04  1.12172E+04
  7.25805E+03  3.40419E+04 -3.09732E+04  3.44463E+04 -6.18767E+04  2.24715E+03 -5.53836E+04 -4.17687E+04
 -1.25336E+04 -6.12468E+04  3.83408E+04 -4.36323E+04  5.60734E+04 -2.30611E+03  3.23280E+04  3.09404E+04
 -6.40623E+03  3.41041E+04 -2.89101E+04  1.43372E+04 -2.85928E+04 -4.97238E+03 -1.50479E+04 -1.01549E+04
 -7.29620E+03 -1.17612E+04 -1.15092E+03 -1.69067E+04  6.61324E+03 -2.27325E+04  1.48433E+04 -1.38692E+04
  1.21761E+04  4.51490E+03 -6.84497E+03  1.30896E+04 -1.97556E+04 -3.11498E+03 -8.30306E+03 -3.09135E+04
  2.11531E+04 -4.12815E+04  4.52809E+04 -1.88975E+04  4.26461E+04  1.85896E+04  1.48185E+04  4.23329E+04
 -1.54165E+04  3.13144E+04 -2.39203E+04  1.17778E+03 -8.70519E+03 -2.67813E+04  2.05684E+04 -3.14876E+04
  3.87235E+04 -7.70162E+03  3.25093E+04  2.29880E+04  1.63991E+04  4.33765E+04 -7.95274E+03  4.65351E+04
 -2.91271E+04  3.05843E+04 -3.84355E+04  8.63744E+03 -3.93997E+04 -1.51260E+04 -2.13825E+04 -3.53156E+04
  7.23090E+03 -3.49402E+04  2.96663E+04 -1.31819E+04  2.73126E+04  1.07550E+04  3.14113E+03  1.77700E+04
 -1.33427E+04  7.57399E+03 -9.66761E+03 -7.88176E+03  5.94499E+03 -1.02867E+04  1.74291E+04  6.39331E+03
  1.28304E+04  2.20062E+04 -6.49077E+03  2.37256E+04 -2.16289E+04  9.51572E+03 -2.57586E+04 -5.89936E+03
 -1.76004E+04 -1.65055E+04 -6.09512E+03 -1.75787E+04  3.83971E+03 -1.56094E+04  1.28608E+04 -1.50273E+04
  2.21465E+04 -1.18614E+04  2.91953E+04  1.33662E+03  2.19613E+04  1.70541E+04  4.20255E+03  3.32587E+04
 -1.61658E+04  2.79682E+04 -2.61566E+04  9.64435E+03 -1.99898E+04 -1.06491E+04 -4.07572E+03 -1.38326E+04
  2.35635E+03 -3.94712E+03 -3.03419E+03  5.18380E+03 -1.33057E+04  5.22223E+03 -1.41468E+04 -5.30423E+03
 -9.03131E+03 -1.61305E+04  4.54130E+03 -1.99769E+04  1.32169E+04 -1.46540E+04  1.53799E+04 -1.54993E+03
  9.42218E+03  1.10012E+04 -7.46308E+02  1.62055E+04 -1.05265E+04  9.20424E+03 -1.61915E+04 -3.48734E+03
 -1.21167E+04 -1.47358E+04 -1.34341E+03 -1.96807E+04  9.02423E+03 -1.58697E+04  1.65145E+04 -7.74274E+03
  1.53204E+04  4.82352E+02  1.08960E+04  3.81997E+03  5.61247E+03  1.04541E+03  7.83812E+03 -1.64844E+03
  1.42482E+04  2.64607E+03  1.57307E+04  1.33807E+04  9.65278E+03  2.59941E+04 -2.71770E+03  2.79324E+04
 -1.60214E+04  2.15370E+04 -2.56817E+04  1.05346E+04 -2.63514E+04 -2.10567E+03 -2.24266E+04 -1.50670E+04
 -1.06786E+04 -2.15541E+04  7.26563E+03 -1.99584E+04  1.71338E+04 -1.12115E+04  1.62681E+04  3.93350E+03
  6.60727E+03  1.19238E+04 -7.27956E+03  1.07389E+04 -1.38843E+04  2.76739E+03 -1.06338E+04 -8.27903E+03
  1.77890E+02 -1.31460E+04  6.73089E+03 -9.72948E+03  8.54960E+03 -1.28713E+03  1.48249E+03  5.12808E+03
 -5.90341E+03  1.44283E+03 -4.10752E+03 -4.72578E+03  5.99063E+02 -1.08100E+04  8.25436E+03 -1.08371E+04
  1.32473E+04 -5.11736E+03  1.30502E+04  2.96263E+03  1.11899E+04  9.85190E+03  5.40691E+03  1.49668E+04
 -1.68562E+03  1.66892E+04 -1.04440E+04  1.07989E+04 -1.23047E+04  3.04383E+03 -8.87899E+03 -1.99813E+03
 -4.41094E+03 -3.45725E+03 -6.65678E+02  1.54843E+03 -2.14468E+03  2.25973E+03 -3.79156E+03  3.98856E+03
 -8.41795E+03 -4.31131E+02 -9.15323E+03 -7.35172E+03 -3.61206E+03 -1.17794E+04  3.61209E+03 -8.67303E+03
  7.28428E+03 -3.77224E+03  5.52659E+03  2.44051E+03  4.60247E+02  2.99315E+03 -3.70272E+03 -9.40010E+01
 -3.89818E+03 -5.32809E+03 -8.10264E+02 -7.82520E+03  4.35631E+03 -8.09369E+03  1.02534E+04 -4.21435E+03
  1.24206E+04  7.34684E+02  9.04348E+03  6.61962E+03  2.01340E+03  9.30844E+03 -5.45705E+03  8.83502E+03
 -7.03324E+03  3.16224E+03 -3.85739E+03 -1.32887E+03  1.34962E+03 -1.96930E+03  4.86821E+03 -1.33618E+03
  4.28854E+03  3.69672E+03  1.06327E+03  6.91704E+03 -4.45318E+03  6.99309E+03 -8.21498E+03  1.71235E+03
 -5.13262E+03 -3.83037E+03  2.96320E+02 -7.07999E+03  3.90336E+03 -3.61615E+03  3.96622E+03  1.17697E+03
  1.01708E+03  3.70191E+03 -4.44758E+03  5.11251E+03 -5.35242E+03  2.59520E+03 -5.03082E+03 -1.20472E+03
 -3.08737E+03 -6.40668E+03  9.57281E+02 -7.40002E+03  6.23403E+03 -4.58655E+03  7.26319E+03  8.63358E+02
  4.74610E+03  5.66444E+03 -1.22870E+02  7.62070E+03 -5.26866E+03  4.63293E+03 -5.67066E+03 -6.30386E+02
 -6.06596E+03 -5.39111E+03 -1.47791E+03 -5.39118E+03  2.76182E+03 -4.79965E+03  2.90861E+03 -3.19739E+03
  2.99334E+03  4.48212E+02  3.30852E+01  1.36559E+03  6.21083E+02 -2.10556E+02  3.58574E+02 -2.11072E+03
  4.38962E+03 -5.38301E+02  5.72149E+03  8.63075E+02  5.86431E+03  3.42891E+03  5.32184E+03  7.74804E+03
 -1.51487E+03  9.14429E+03 -8.17341E+03  6.97422E+03 -1.02178E+04  1.27617E+03 -8.38824E+03 -2.78949E+03
 -4.47002E+03 -6.87244E+03 -5.59935E+02 -5.56440E+03  2.05167E+03 -2.38303E+03  1.85847E+03 -2.06848E+03
  1.27011E+03 -1.61526E+03  2.10233E+03 -2.32635E+03  3.76169E+03 -1.28059E+03  3.93973E+03  1.91453E+02
  4.79195E+03  1.12981E+03  1.20559E+03  3.84057E+03 -1.55225E+03  3.15860E+03 -5.00155E+03  2.50839E+03
 -5.54980E+03 -1.35287E+03 -2.18926E+03 -3.44586E+03  3.27642E+02 -5.45378E+03  3.37767E+03 -5.65692E+03
  5.53972E+03 -3.44569E+03  7.25764E+03  5.97429E+02  5.17947E+03  4.42091E+03  1.29690E+03  6.16464E+03
 -2.41509E+03  6.36339E+03 -3.57705E+03  1.90271E+03 -2.31114E+03 -9.46481E+02 -5.66987E+02 -7.73425E+02
 -5.52263E+02  4.16091E+02 -7.07563E+02  2.12064E+03 -2.63607E+03  1.10295E+03 -4.32814E+03 -3.21065E+02
 -1.91221E+03 -4.21687E+03  5.54191E+02 -4.98049E+03  3.14871E+03 -4.65596E+03  4.25740E+03 -1.09724E+03
  4.47058E+03  2.25849E+03  1.97177E+03  3.13523E+03 -8.77407E+02  4.68763E+03 -2.94804E+03  3.05399E+03
 -3.89484E+03  6.54309E+02 -3.71665E+03 -2.72840E+03 -5.29772E+02 -3.66288E+03  1.56284E+03 -2.94813E+03
  2.79899E+03 -1.18545E+03  1.94460E+03  6.15366E+02  8.39852E+02  2.06384E+03  6.69998E+02  4.79093E+02
  1.97724E+03  7.02021E+02  1.13939E+03  1.07639E+03  1.24652E+03  2.26103E+03  1.47165E+03  1.97526E+03
 -1.22478E+03  3.32312E+03 -2.77870E+03  4.29906E+03 -3.34858E+03  1.31275E+03 -4.22666E+03 -7.93238E+02
 -1.76184E+03 -3.83261E+03  7.28007E+02 -5.22815E+03  2.21216E+03 -2.81850E+03  3.40741E+03 -1.14247E+03
  2.59733E+03  1.80638E+03  3.48910E+02  2.41027E+03 -5.97743E+02  1.49705E+03 -1.33988E+03 -5.87856E+01
 -7.22102E+02 -1.63427E+03  1.46926E+03 -1.49405E+03  1.32918E+03 -9.82636E+02  1.75020E+03  4.09799E+02
  8.12099E+02  3.93264E+02  6.39391E+02 -5.23719E+01 -2.76508E+02  7.84649E+02  1.37552E+03 -2.17704E+02
  9.41278E+01 -2.63528E+02  1.68274E+03  2.43361E+02  1.92941E+02  2.60843E+03 -1.72728E+02  3.09153E+03
 -1.74610E+03  1.23310E+03 -2.24989E+03  2.91758E+02 -2.44250E+03 -8.83219E+02 -2.67523E+02 -1.21159E+03
  2.02347E+02 -1.43359E+03  9.90700E+02 -5.80583E+02  1.04072E+03  1.52318E+03 -7.64579E+02  1.27069E+03
 -1.70562E+03  4.68999E+02 -1.57621E+03 -1.21160E+03 -8.23349E+02 -2.11960E+03  3.97839E+02 -1.82253E+03
  5.24707E+02 -8.71710E+02  7.85892E+02  3.70590E+02  1.36289E+03 -2.56150E+02  5.72486E+02  1.18888E+03
 -2.21925E+02  2.00147E+02 -8.36214E+02 -8.91791E+01  6.47845E+02 -1.11020E+03  1.85221E+03 -9.04533E+02
  1.42338E+03  3.84270E+02  2.70787E+03  8.38817E+02  1.29053E+03  1.98281E+03 -5.34711E+02  1.85268E+03
 -1.34636E+03  2.52213E+02 -1.57418E+03 -3.20586E+02 -9.30252E+02 -1.70209E+03  3.14256E+02 -5.94666E+02
  1.51821E+03 -7.70550E+02  8.05312E+02  3.98954E+02  1.87741E+02  1.29717E+03 -5.92091E+01  1.34967E+03
 -3.28395E+02  9.56452E+02 -6.07459E+02  1.89776E+02  1.72402E+02  5.00520E+02 -9.12492E+02  6.63722E+02
 -9.11376E+02  9.83710E+02 -1.82535E+03  6.60020E+02 -1.70050E+03  3.45416E+02 -2.43393E+03 -1.17457E+03
 -9.60690E+02 -2.60157E+03  6.25359E+02 -2.91037E+03  1.19317E+03 -2.79624E+03  2.98983E+03 -1.21813E+03
  2.61042E+03  2.14890E+02  1.21489E+03  1.66539E+03 -5.66961E+02  1.33526E+03 -5.74337E+02  1.44912E+03
 -1.01006E+03  7.49382E+02 -3.66597E+02 -5.77442E+01 -4.37031E+02  4.18875E+02 -5.95873E+02 -5.52339E+01
 -9.83538E+02  4.18667E+01 -6.94930E+02 -2.31056E+01  1.81038E+02 -6.01654E+02 -2.72531E+02 -1.00312E+03
  1.01472E+03 -6.73583E+02  4.28219E+02  1.21762E+01  9.93092E+02  1.07343E+03 -2.17876E+02  1.67993E+03
 -1.03655E+03  2.15154E+03 -1.85902E+03  1.37273E+03 -1.78369E+03 -4.68551E+01 -1.16146E+03 -1.43361E+03
 -1.11885E+03 -1.68372E+03  3.35186E+02 -1.18777E+03  8.41723E+02 -5.76500E+02  9.30623E+02  4.36140E+01
  6.54989E+02  3.15443E+02  1.58424E+02  4.11336E+02 -4.63241E+02  1.71309E+02 -2.11925E+01 -2.18264E+02
  7.68941E+02 -3.86564E+01  1.92704E+02  2.68998E+02  2.91128E+00  6.48786E+02  4.58308E+02  4.56192E+02
 -8.95689E+02  5.52470E+02 -6.32473E+02  1.36335E+02 -7.93362E+02 -5.16054E+02  4.01355E+02 -1.06930E+03
  4.83708E+02 -6.47296E+02  8.73271E+02 -6.26496E+01  8.16918E+02 -6.10668E+02  4.82384E+02  8.12942E+02
  4.76432E+02  4.28534E+02 -2.70112E+02  7.37430E+02 -7.52365E+02  6.80768E+02 -3.08217E+02  1.12889E+02
 -1.48070E+02  5.69151E+00 -7.72796E+02  3.53886E+02 -5.81920E+02 -6.74826E+01 -9.46660E+02 -4.32308E+02
 -1.09147E+03  3.11155E+02 -5.15308E+01 -1.09431E+03  8.57139E+02 -1.68901E+03  7.14520E+02 -1.40265E+02
  8.05228E+02  2.17704E+02 -3.14947E+02  1.02040E+02 -8.98179E+01  8.90757E+02 -1.86065E+02  7.40845E+02
