 $NMID ID='MM_0lb_SNR800_7hz_g60_29.RAW', FMTDAT='(8E13.5)'
 TRAMP=1., VOLUME=1. $END
  3.10122E+05  1.03221E+02  3.37938E+05  2.50976E+05  8.50120E+04  3.38865E+05 -1.32736E+05  2.52159E+05
 -1.91377E+05  8.46176E+04 -1.13189E+05 -3.24580E+04  3.54212E+02 -5.11247E+04  5.37386E+04 -1.04440E+03
  3.57791E+04  5.25851E+04 -1.64614E+04  7.63706E+04 -6.13342E+04  6.47109E+04 -8.59358E+04  3.31307E+04
 -8.32306E+04 -1.19248E+04 -5.91835E+04 -5.31746E+04 -1.55573E+04 -7.19338E+04  2.82655E+04 -4.75668E+04
  4.20231E+04  3.64576E+03  1.72423E+04  4.89719E+04 -3.49024E+04  4.88165E+04 -6.88180E+04  3.22654E+02
 -5.57101E+04 -5.78912E+04 -7.81467E+03 -8.08043E+04  3.54048E+04 -5.79376E+04  5.04136E+04 -1.86479E+04
  4.69347E+04  1.15138E+04  3.36672E+04  2.77428E+04  1.63397E+04  3.16293E+04 -5.88545E+03  2.77694E+04
 -2.24685E+04  1.16478E+04 -1.74882E+04 -6.17002E+03  7.56697E+03 -7.84033E+03  2.37609E+04  1.45536E+04
  7.17233E+03  3.87531E+04 -3.47997E+04  3.84250E+04 -6.72790E+04  2.10178E+03 -6.04737E+04 -4.54100E+04
 -1.29264E+04 -6.71254E+04  4.24105E+04 -4.89921E+04  6.33599E+04 -2.97454E+03  3.83897E+04  3.54275E+04
 -4.81720E+03  4.11948E+04 -3.27802E+04  2.05547E+04 -3.53193E+04 -2.81637E+03 -2.07674E+04 -1.27406E+04
 -1.05825E+04 -1.61618E+04 -1.06296E+02 -2.04582E+04  9.14115E+03 -2.39403E+04  1.58842E+04 -1.21168E+04
  9.72850E+03  6.85183E+03 -1.18263E+04  1.27714E+04 -2.51657E+04 -7.69291E+03 -8.85480E+03 -3.99531E+04
  2.65103E+04 -4.90115E+04  5.47881E+04 -2.18445E+04  5.08826E+04  2.18116E+04  1.79757E+04  4.87516E+04
 -1.73863E+04  3.78426E+04 -2.83511E+04  3.32945E+03 -1.21915E+04 -3.03832E+04  2.20098E+04 -3.87522E+04
  4.67633E+04 -1.20772E+04  4.33883E+04  2.55973E+04  2.35288E+04  5.37119E+04 -8.67193E+03  5.93124E+04
 -3.75786E+04  4.06525E+04 -5.07242E+04  1.21577E+04 -5.03571E+04 -1.91583E+04 -2.78131E+04 -4.49684E+04
  7.80888E+03 -4.46491E+04  3.57675E+04 -1.89055E+04  3.35382E+04  1.12130E+04  5.84695E+03  2.18230E+04
 -1.46300E+04  1.04292E+04 -1.17950E+04 -7.51880E+03  5.34468E+03 -1.18899E+04  1.87972E+04  5.71072E+03
  1.57249E+04  2.32141E+04 -5.21008E+03  2.82291E+04 -2.37991E+04  1.57199E+04 -3.37287E+04 -2.48717E+03
 -2.84603E+04 -1.90957E+04 -1.40903E+04 -2.77667E+04  4.45298E+03 -2.93320E+04  2.23258E+04 -2.55984E+04
  3.58561E+04 -1.46301E+04  4.12469E+04  6.04029E+03  2.90850E+04  2.69588E+04  4.66876E+03  4.47798E+04
 -2.17050E+04  3.62454E+04 -3.20254E+04  1.24494E+04 -2.25909E+04 -9.97912E+03 -5.52387E+03 -1.28409E+04
 -2.08502E+01  8.00148E+01 -9.16369E+03  8.95416E+03 -2.27021E+04  5.13579E+03 -2.23661E+04 -1.13106E+04
 -1.31892E+04 -2.58602E+04  6.41872E+03 -3.08503E+04  2.11118E+04 -2.17697E+04  2.55706E+04 -1.68597E+03
  1.66796E+04  1.80350E+04 -1.56578E+03  2.60817E+04 -1.86473E+04  1.48327E+04 -2.65598E+04 -5.10447E+03
 -1.89828E+04 -2.32526E+04 -2.72039E+03 -3.12869E+04  1.42599E+04 -2.64009E+04  2.52187E+04 -1.39745E+04
  2.46520E+04 -4.89240E+02  1.76505E+04  5.85981E+03  9.73735E+03  2.13666E+03  1.41822E+04 -2.51233E+03
  2.48953E+04  3.19713E+03  2.92839E+04  2.01045E+04  2.04397E+04  4.26352E+04 -2.55037E+03  5.10726E+04
 -2.86528E+04  4.30829E+04 -4.79807E+04  2.28976E+04 -5.19448E+04 -3.49248E+03 -4.15428E+04 -3.06927E+04
 -1.55391E+04 -4.34887E+04  1.58367E+04 -3.73093E+04  3.19214E+04 -1.67539E+04  2.74566E+04  9.25976E+03
  8.53367E+03  2.14649E+04 -1.37894E+04  1.79608E+04 -2.29449E+04  2.83608E+03 -1.69835E+04 -1.49712E+04
 -6.15942E+02 -2.19289E+04  1.20558E+04 -1.64081E+04  1.51357E+04 -1.39763E+03  3.89888E+03  1.02604E+04
 -9.45451E+03  5.23557E+03 -1.15205E+04 -8.01695E+03 -3.51622E+03 -2.11350E+04  1.33345E+04 -2.35496E+04
  2.68688E+04 -1.32489E+04  3.15737E+04  3.57616E+03  2.76940E+04  2.17062E+04  1.28467E+04  3.51444E+04
 -7.50190E+03  3.72802E+04 -2.47463E+04  2.26539E+04 -2.65118E+04  3.95929E+03 -1.78478E+04 -7.16594E+03
 -7.78426E+03 -8.65589E+03 -7.01907E+02  1.82238E+02 -3.41063E+03  4.44826E+03 -8.53574E+03  5.64430E+03
 -1.66024E+04 -1.27723E+03 -1.72061E+04 -1.36945E+04 -7.10307E+03 -2.24073E+04  7.85090E+03 -1.94214E+04
  1.55007E+04 -7.17771E+03  1.02302E+04  4.77277E+03 -4.73990E+02  7.42900E+03 -9.85090E+03 -2.18521E+02
 -9.08217E+03 -1.19797E+04 -1.58776E+03 -1.87647E+04  1.15138E+04 -1.98028E+04  2.39526E+04 -1.06265E+04
  2.85100E+04  3.48233E+03  2.01141E+04  1.80959E+04  3.60397E+03  2.31524E+04 -1.11315E+04  1.85669E+04
 -1.56839E+04  4.94269E+03 -8.44986E+03 -4.82880E+03  2.67850E+03 -5.31383E+03  9.29859E+03 -7.99009E+02
  8.68344E+03  8.64552E+03  1.24265E+03  1.55782E+04 -1.10884E+04  1.41782E+04 -1.84168E+04  3.28516E+03
 -1.36261E+04 -1.02899E+04  3.41095E+02 -1.61221E+04  1.10455E+04 -8.57019E+03  1.13976E+04  3.87038E+03
  2.95347E+03  1.26772E+04 -1.00502E+04  1.49947E+04 -1.76779E+04  6.76413E+03 -1.80707E+04 -6.63552E+03
 -1.02692E+04 -1.98867E+04  4.55204E+03 -2.24153E+04  1.97051E+04 -1.36462E+04  2.09767E+04  4.48653E+03
  1.24190E+04  1.66138E+04 -2.13845E+03  1.97044E+04 -1.47874E+04  1.05507E+04 -1.60021E+04 -1.86407E+03
 -1.28829E+04 -1.27987E+04 -1.97948E+03 -1.45077E+04  7.92208E+03 -1.20311E+04  9.72785E+03 -4.09793E+03
  6.22535E+03  2.59916E+03 -1.26966E+03  2.28637E+03 -1.39493E+03 -5.29497E+03  3.86735E+03 -9.94392E+03
  1.46095E+04 -6.35695E+03  2.07377E+04  2.10075E+03  1.96966E+04  1.44119E+04  1.26997E+04  2.67507E+04
 -6.53577E+03  3.09815E+04 -2.54790E+04  2.23127E+04 -3.32645E+04  4.64656E+03 -2.69943E+04 -1.19401E+04
 -1.28942E+04 -2.13595E+04 -6.29579E+02 -1.92058E+04  6.47460E+03 -1.14510E+04  6.80423E+03 -6.92014E+03
  5.20599E+03 -4.25844E+03  4.63306E+03 -4.10027E+03  7.25852E+03 -4.78128E+03  1.08114E+04 -2.67409E+03
  1.39640E+04  2.86383E+03  8.08523E+03  1.22342E+04 -2.42056E+03  1.54609E+04 -1.43857E+04  1.12532E+04
 -1.92187E+04 -1.27845E+03 -1.25903E+04 -1.34523E+04 -2.40281E+03 -2.08064E+04  1.12043E+04 -2.05113E+04
  2.18559E+04 -1.14293E+04  2.57889E+04  3.40328E+03  1.74707E+04  1.81455E+04  2.55681E+03  2.36270E+04
 -1.02510E+04  1.81644E+04 -1.38817E+04  6.99866E+03 -9.86164E+03 -2.23643E+03 -4.22270E+03 -3.18049E+03
 -1.48261E+03 -5.27279E+02 -2.69028E+03  3.64321E+03 -7.80079E+03  2.83372E+03 -1.27928E+04 -1.86769E+03
 -1.00710E+04 -1.30898E+04 -4.59497E+02 -1.94456E+04  1.20580E+04 -1.81916E+04  2.02453E+04 -5.24097E+03
  1.95886E+04  9.65210E+03  9.08368E+03  1.83943E+04 -4.09330E+03  2.02975E+04 -1.47852E+04  1.26156E+04
 -1.89597E+04  7.80526E+02 -1.42175E+04 -1.22295E+04 -2.12655E+03 -1.73891E+04  9.03981E+03 -1.26920E+04
  1.28487E+04 -3.48218E+03  8.92861E+03  3.75464E+03  3.34068E+03  5.95956E+03  1.90281E+03  2.82471E+03
  3.38314E+03  1.13940E+03  4.83038E+03  2.40375E+03  6.32494E+03  6.80211E+03  5.19191E+03  1.09293E+04
 -3.69515E+03  1.63087E+04 -1.42773E+04  1.57968E+04 -2.14304E+04  3.76668E+03 -2.23395E+04 -9.74486E+03
 -1.05271E+04 -2.09688E+04  3.28518E+03 -2.24954E+04  1.31602E+04 -1.47369E+04  1.71381E+04 -3.93297E+03
  1.32327E+04  7.61451E+03  3.19182E+03  1.20072E+04 -6.50991E+03  8.17431E+03 -9.17794E+03 -1.20613E+03
 -4.65765E+03 -9.08006E+03  4.59678E+03 -9.11543E+03  8.71169E+03 -4.53839E+03  9.06652E+03  2.17887E+03
  4.76738E+03  4.71155E+03  1.93050E+03  3.55412E+03 -1.30476E+03  3.11360E+03  1.57398E+03 -7.35177E+02
  3.27116E+03 -1.43991E+03  8.46754E+03  3.12671E+03  5.38127E+03  1.09801E+04 -2.36729E+03  1.49068E+04
 -1.04494E+04  1.03837E+04 -1.36739E+04  2.97925E+03 -1.21804E+04 -5.01333E+03 -5.40421E+03 -8.37563E+03
  1.00434E+03 -8.71621E+03  5.80345E+03 -3.68114E+03  4.84707E+03  3.85197E+03 -1.70408E+03  6.87958E+03
 -8.74029E+03  3.85366E+03 -1.07780E+04 -4.71706E+03 -5.79588E+03 -1.22209E+04  1.27576E+03 -1.24192E+04
  8.06887E+03 -7.46834E+03  9.31295E+03 -1.30273E+03  7.61728E+03  3.66525E+03  9.59604E+02  6.22798E+03
 -4.68188E+03  2.16868E+03 -5.47392E+03 -4.35457E+03  2.28817E+03 -9.59457E+03  1.07485E+04 -7.95233E+03
  1.49876E+04  1.23316E+03  1.37318E+04  9.89579E+03  3.92760E+03  1.52042E+04 -5.50774E+03  1.40237E+04
 -1.17669E+04  6.34060E+03 -1.21520E+04 -1.98979E+03 -6.54638E+03 -9.27666E+03  2.36959E+03 -9.43147E+03
  9.19204E+03 -4.03093E+03  7.82645E+03  3.69258E+03  2.31397E+03  8.03959E+03 -1.53481E+03  7.25285E+03
 -3.69516E+03  4.39855E+03 -3.31830E+03  1.19919E+03 -2.43623E+03  1.50468E+03 -1.77401E+03  2.77432E+03
 -3.81805E+03  5.81705E+03 -9.77552E+03  5.67252E+03 -1.49956E+04  3.97854E+02 -1.67964E+04 -9.81335E+03
 -8.60143E+03 -2.01186E+04  3.76350E+03 -2.29486E+04  1.46688E+04 -1.79752E+04  2.10593E+04 -6.40781E+03
  2.04347E+04  4.23501E+03  1.27268E+04  1.40705E+04  1.51327E+03  1.58578E+04 -6.83636E+03  1.19560E+04
 -8.70495E+03  3.99305E+03 -5.73417E+03 -2.07187E+03 -1.99964E+03 -1.76621E+03 -6.73850E+02 -2.02609E+02
 -2.35873E+03  6.54099E+02 -2.74501E+03 -6.23231E+02 -1.13986E+03 -3.51919E+03  6.40274E+02 -5.52007E+03
  7.33095E+03 -4.77235E+03  9.81529E+03 -2.04314E+02  1.14486E+04  8.74700E+03  3.59401E+03  1.60777E+04
 -7.32558E+03  1.79488E+04 -1.72351E+04  1.08353E+04 -1.99959E+04 -1.29494E+03 -1.49954E+04 -1.19296E+04
 -6.05752E+03 -1.69667E+04  4.42826E+03 -1.53321E+04  1.01884E+04 -8.16292E+03  1.08093E+04  5.71052E+02
  5.65537E+03  5.55669E+03 -5.81296E+02  4.91807E+03 -2.97514E+03 -3.54112E+02  1.95002E+02 -3.48701E+03
  5.20619E+03 -2.54449E+03  6.68055E+03  1.65061E+03  4.36300E+03  6.52010E+03  3.54722E+02  8.83890E+03
 -7.04280E+03  7.49759E+03 -1.13791E+04  6.98177E+02 -9.81770E+03 -7.79004E+03 -1.18739E+03 -1.35056E+04
  7.73079E+03 -1.18441E+04  1.32037E+04 -3.98245E+03  1.24059E+04  3.31236E+03  7.62481E+03  1.05146E+04
  1.11685E+03  1.12973E+04 -4.27738E+03  9.68896E+03 -7.33658E+03  4.89062E+03 -5.85637E+03  7.93338E+02
 -2.97236E+03 -2.49839E+02 -2.96564E+03  1.50556E+03 -5.59162E+03  1.58960E+03 -8.66576E+03 -1.44734E+03
 -8.03324E+03 -6.50155E+03 -2.25182E+03 -1.13231E+04  5.05156E+03 -1.17296E+04  9.85297E+03 -6.13665E+03
  1.12192E+04  1.01403E+03  6.73396E+03  7.99931E+03 -1.24746E+03  1.17463E+04 -9.07048E+03  7.27997E+03
