 $NMID ID='MM_0lb_SNR800_11hz_g60_90.RAW', FMTDAT='(8E13.5)'
 TRAMP=1., VOLUME=1. $END
  3.09784E+05  3.05777E+02  3.37971E+05  2.50839E+05  8.48850E+04  3.38386E+05 -1.32742E+05  2.51618E+05
 -1.90829E+05  8.38684E+04 -1.12536E+05 -3.26265E+04  4.98718E+02 -5.10021E+04  5.39902E+04 -1.72298E+02
  3.53877E+04  5.27024E+04 -1.66076E+04  7.61505E+04 -6.09116E+04  6.44199E+04 -8.55612E+04  3.24091E+04
 -8.26921E+04 -1.17527E+04 -5.83148E+04 -5.24533E+04 -1.47650E+04 -7.07328E+04  2.79005E+04 -4.65210E+04
  4.09756E+04  3.73995E+03  1.64870E+04  4.82579E+04 -3.49319E+04  4.79383E+04 -6.79578E+04 -1.87031E+02
 -5.46791E+04 -5.75772E+04 -7.26435E+03 -7.86595E+04  3.47833E+04 -5.66989E+04  4.98865E+04 -1.80841E+04
  4.50664E+04  1.14535E+04  3.28817E+04  2.68248E+04  1.60399E+04  3.03655E+04 -5.89020E+03  2.74799E+04
 -2.20849E+04  1.20690E+04 -1.84007E+04 -5.60720E+03  6.73585E+03 -7.83811E+03  2.36203E+04  1.35497E+04
  6.96452E+03  3.74509E+04 -3.39819E+04  3.71737E+04 -6.53685E+04  1.98932E+03 -5.90713E+04 -4.42041E+04
 -1.26675E+04 -6.56340E+04  4.15689E+04 -4.71175E+04  6.08037E+04 -2.70235E+03  3.64862E+04  3.41638E+04
 -5.36640E+03  3.91507E+04 -3.13097E+04  1.86136E+04 -3.32772E+04 -3.35970E+03 -1.90238E+04 -1.17822E+04
 -9.10499E+03 -1.46786E+04 -4.91182E+02 -1.98332E+04  8.04459E+03 -2.32864E+04  1.55879E+04 -1.25930E+04
  1.05321E+04  6.10193E+03 -1.02501E+04  1.28266E+04 -2.27789E+04 -6.42000E+03 -8.66670E+03 -3.70561E+04
  2.48704E+04 -4.66225E+04  5.18978E+04 -2.05026E+04  4.81799E+04  2.06621E+04  1.70692E+04  4.68201E+04
 -1.64969E+04  3.59826E+04 -2.73879E+04  2.84549E+03 -1.12972E+04 -2.91818E+04  2.11401E+04 -3.62917E+04
  4.38134E+04 -1.07533E+04  3.98309E+04  2.49456E+04  2.10100E+04  5.02349E+04 -8.34637E+03  5.50317E+04
 -3.50194E+04  3.78560E+04 -4.69268E+04  1.10063E+04 -4.69962E+04 -1.82655E+04 -2.54340E+04 -4.17597E+04
  7.98788E+03 -4.15818E+04  3.38247E+04 -1.67044E+04  3.14585E+04  1.11327E+04  4.77337E+03  2.04281E+04
 -1.38124E+04  9.67544E+03 -1.10099E+04 -7.69154E+03  5.70967E+03 -1.11671E+04  1.88502E+04  5.30239E+03
  1.45768E+04  2.26299E+04 -5.73784E+03  2.68032E+04 -2.33631E+04  1.36042E+04 -3.11761E+04 -3.37799E+03
 -2.47503E+04 -1.81379E+04 -1.13175E+04 -2.44607E+04  4.28400E+03 -2.46522E+04  1.92647E+04 -2.17995E+04
  3.12891E+04 -1.41093E+04  3.69224E+04  5.07956E+03  2.62198E+04  2.36702E+04  4.43114E+03  4.06926E+04
 -1.93650E+04  3.31106E+04 -3.03625E+04  1.15782E+04 -2.18518E+04 -9.92793E+03 -4.97199E+03 -1.28809E+04
  1.02188E+03 -1.35044E+03 -7.18511E+03  7.89889E+03 -1.94224E+04  5.09763E+03 -1.96927E+04 -9.20329E+03
 -1.16193E+04 -2.26715E+04  5.40716E+03 -2.69780E+04  1.82239E+04 -1.95265E+04  2.19103E+04 -1.42309E+03
  1.42651E+04  1.53350E+04 -1.14797E+03  2.24567E+04 -1.56958E+04  1.29811E+04 -2.28651E+04 -4.65603E+03
 -1.66317E+04 -2.00878E+04 -2.40231E+03 -2.72577E+04  1.23021E+04 -2.26549E+04  2.22684E+04 -1.12978E+04
  2.10780E+04 -6.53934E+02  1.53986E+04  4.86169E+03  8.36141E+03  1.48957E+03  1.16729E+04 -1.66319E+03
  2.12417E+04  3.00367E+03  2.43724E+04  1.75124E+04  1.64507E+04  3.65502E+04 -2.59150E+03  4.22022E+04
 -2.41325E+04  3.51443E+04 -4.01862E+04  1.78741E+04 -4.28395E+04 -2.57875E+03 -3.43848E+04 -2.47224E+04
 -1.37054E+04 -3.51992E+04  1.21141E+04 -3.09948E+04  2.66531E+04 -1.45952E+04  2.30243E+04  7.32088E+03
  7.73403E+03  1.78306E+04 -1.09958E+04  1.48907E+04 -1.92759E+04  2.67690E+03 -1.45483E+04 -1.24679E+04
 -1.31449E+02 -1.83834E+04  1.01114E+04 -1.39372E+04  1.25663E+04 -1.18107E+03  3.55552E+03  8.48968E+03
 -8.69692E+03  3.58680E+03 -8.48850E+03 -6.65577E+03 -1.59055E+03 -1.69622E+04  1.12717E+04 -1.86669E+04
  2.17107E+04 -1.01873E+04  2.45928E+04  3.37416E+03  2.15647E+04  1.71265E+04  9.62050E+03  2.73576E+04
 -5.14610E+03  2.92945E+04 -1.87957E+04  1.80529E+04 -2.07541E+04  3.98871E+03 -1.46013E+04 -6.00399E+03
 -6.48918E+03 -6.47155E+03 -4.66857E+02  3.62990E+02 -2.61941E+03  3.35242E+03 -6.98743E+03  4.98011E+03
 -1.34090E+04 -1.27550E+03 -1.43727E+04 -1.12717E+04 -5.43816E+03 -1.85720E+04  5.98368E+03 -1.49490E+04
  1.22545E+04 -5.78722E+03  8.71106E+03  3.93525E+03 -2.25553E+02  5.67325E+03 -7.50846E+03  1.19177E+02
 -7.13936E+03 -9.28107E+03 -1.08955E+03 -1.41339E+04  8.56142E+03 -1.53844E+04  1.88877E+04 -7.96818E+03
  2.17788E+04  2.13335E+03  1.57539E+04  1.32410E+04  3.20676E+03  1.75664E+04 -8.65717E+03  1.45761E+04
 -1.18309E+04  3.79505E+03 -6.01953E+03 -3.16684E+03  2.18225E+03 -3.96809E+03  7.48117E+03 -9.03291E+02
  6.99970E+03  6.74835E+03  5.96578E+02  1.14255E+04 -8.25623E+03  1.12082E+04 -1.43923E+04  2.64234E+03
 -9.90365E+03 -7.61573E+03  5.02067E+02 -1.21716E+04  8.25082E+03 -6.12192E+03  8.33399E+03  3.32616E+03
  2.08827E+03  9.27987E+03 -7.97355E+03  1.04574E+04 -1.24991E+04  4.90921E+03 -1.24448E+04 -4.40284E+03
 -7.23863E+03 -1.41613E+04  3.77721E+03 -1.65448E+04  1.38717E+04 -9.56231E+03  1.53541E+04  2.38714E+03
  9.31338E+03  1.20781E+04 -1.52746E+03  1.47522E+04 -1.04583E+04  7.88286E+03 -1.15603E+04 -1.10357E+03
 -9.74377E+03 -9.76799E+03 -1.58969E+03 -1.10779E+04  6.02926E+03 -9.19871E+03  7.12153E+03 -3.69621E+03
  4.34548E+03  1.77298E+03 -1.10268E+03  2.16276E+03 -6.52890E+02 -2.87593E+03  2.44039E+03 -6.65129E+03
  9.90161E+03 -4.02282E+03  1.44183E+04  1.65503E+03  1.37132E+04  9.64435E+03  8.94031E+03  1.88139E+04
 -4.43422E+03  2.12543E+04 -1.77693E+04  1.54737E+04 -2.30958E+04  2.83571E+03 -1.86688E+04 -8.04706E+03
 -9.30558E+03 -1.52440E+04 -3.51220E+02 -1.30162E+04  4.52350E+03 -7.25049E+03  4.47448E+03 -4.47697E+03
  3.45200E+03 -2.90666E+03  3.56190E+03 -3.57300E+03  5.27272E+03 -3.03155E+03  7.34317E+03 -6.70158E+02
  9.80760E+03  2.21659E+03  4.71954E+03  8.77621E+03 -2.03556E+03  9.72996E+03 -9.84429E+03  7.71999E+03
 -1.27976E+04 -1.44961E+03 -8.20412E+03 -8.88547E+03 -7.96470E+02 -1.37718E+04  7.78562E+03 -1.39467E+04
  1.44715E+04 -7.97977E+03  1.68022E+04  1.91641E+03  1.18453E+04  1.21788E+04  1.67329E+03  1.54943E+04
 -6.36580E+03  1.28926E+04 -9.11681E+03  4.20647E+03 -6.00892E+03 -1.63876E+03 -2.66313E+03 -1.93150E+03
 -9.94825E+02 -7.48588E+01 -1.89694E+03  2.54810E+03 -5.73123E+03  2.01184E+03 -8.92558E+03 -1.38325E+03
 -6.60871E+03 -8.82030E+03 -2.73578E+01 -1.26957E+04  7.97849E+03 -1.19627E+04  1.27095E+04 -3.77784E+03
  1.20423E+04  5.98077E+03  5.42392E+03  1.10933E+04 -2.55756E+03  1.27808E+04 -9.23669E+03  7.67937E+03
 -1.15910E+04  9.07703E+02 -9.16226E+03 -7.70910E+03 -1.16338E+03 -1.07553E+04  5.30882E+03 -7.55808E+03
  7.95614E+03 -2.45961E+03  5.47340E+03  2.49922E+03  2.03873E+03  3.72098E+03  1.14186E+03  1.62831E+03
  2.28182E+03  8.41971E+02  3.37897E+03  1.85933E+03  3.91106E+03  4.35859E+03  3.31820E+03  6.52407E+03
 -2.59113E+03  9.85078E+03 -8.98644E+03  1.00110E+04 -1.27681E+04  2.36770E+03 -1.33654E+04 -5.04763E+03
 -6.14173E+03 -1.22876E+04  2.07704E+03 -1.38454E+04  7.46637E+03 -9.11617E+03  1.00764E+04 -1.90270E+03
  7.97602E+03  4.93070E+03  1.79883E+03  7.08949E+03 -3.33704E+03  4.60755E+03 -4.99349E+03 -5.64538E+02
 -2.50211E+03 -5.47126E+03  3.31171E+03 -5.44565E+03  5.33259E+03 -2.83205E+03  5.42539E+03  1.44464E+03
  3.06697E+03  2.41410E+03  8.92740E+02  1.69754E+03 -4.22695E+02  1.90106E+03  1.71276E+03 -3.49371E+02
  1.89994E+03 -7.02408E+02  5.07814E+03  1.84706E+03  3.29186E+03  6.56664E+03 -1.41466E+03  8.85916E+03
 -6.06049E+03  5.83421E+03 -8.21626E+03  1.37960E+03 -7.03766E+03 -2.88013E+03 -2.39130E+03 -5.04404E+03
  4.70492E+02 -4.92283E+03  3.44793E+03 -2.22014E+03  2.65019E+03  2.69558E+03 -1.43162E+03  4.20418E+03
 -4.98205E+03  2.61776E+03 -5.77049E+03 -3.51121E+03 -3.28267E+03 -6.43341E+03  1.14029E+03 -6.87384E+03
  4.37063E+03 -4.13811E+03  4.62821E+03 -6.63144E+02  4.32321E+03  1.33654E+03  6.07593E+02  3.96260E+03
 -2.50065E+03  8.47951E+02 -2.37095E+03 -2.24259E+03  8.71441E+02 -4.99011E+03  6.00232E+03 -4.00760E+03
  7.37673E+03  5.60418E+02  7.64892E+03  5.01623E+03  2.46303E+03  7.94092E+03 -2.90295E+03  7.57460E+03
 -6.31609E+03  3.17934E+03 -6.47355E+03 -1.32329E+03 -3.46913E+03 -5.12942E+03  1.26587E+03 -4.91455E+03
  4.85471E+03 -2.51972E+03  3.85858E+03  1.94160E+03  1.34337E+03  4.40554E+03 -6.48249E+02  3.75954E+03
 -1.79021E+03  2.52936E+03 -1.73538E+03  7.83282E+02 -9.13656E+02  6.84334E+02 -1.37088E+03  1.68919E+03
 -1.81503E+03  3.28800E+03 -5.27491E+03  2.69587E+03 -7.71447E+03  3.69931E+02 -8.59254E+03 -5.18450E+03
 -4.61823E+03 -1.01577E+04  1.87988E+03 -1.19346E+04  7.22288E+03 -9.43412E+03  1.13025E+04 -3.47998E+03
  1.04326E+04  1.63381E+03  6.02085E+03  6.95060E+03  2.97784E+02  7.52490E+03 -3.26867E+03  5.87568E+03
 -4.39705E+03  2.06570E+03 -2.61039E+03 -9.76076E+02 -1.19465E+03 -1.01290E+03 -6.24495E+02  1.98354E+02
 -1.58365E+03  1.35400E+00 -1.75955E+03 -1.23761E+02 -5.59618E+02 -2.16157E+03  1.63183E+02 -2.94900E+03
  3.72227E+03 -2.37311E+03  4.86930E+03 -9.07151E+01  5.53666E+03  4.67873E+03  9.10083E+02  7.96471E+03
 -3.78735E+03  8.83384E+03 -7.93152E+03  4.84884E+03 -9.52645E+03 -6.27313E+02 -6.91135E+03 -5.72429E+03
 -2.73241E+03 -8.11095E+03  1.94831E+03 -7.44237E+03  5.03900E+03 -3.79388E+03  4.88868E+03  1.32312E+02
  2.66536E+03  2.27349E+03 -3.26901E+02  2.03261E+03 -1.49417E+03  1.12440E+02 -1.58921E+02 -1.54713E+03
  2.36135E+03 -7.76377E+02  3.07020E+03  1.03362E+03  2.32494E+03  2.85581E+03 -7.68378E+01  3.91330E+03
 -3.37292E+03  3.75358E+03 -4.87168E+03  4.52773E+02 -4.73674E+03 -3.30204E+03 -8.49613E+02 -6.34076E+03
  3.78722E+03 -5.09494E+03  5.79347E+03 -1.45315E+03  5.63123E+03  1.28516E+03  3.57389E+03  4.89157E+03
  7.32025E+02  4.91104E+03 -1.99255E+03  3.81565E+03 -3.24709E+03  2.36964E+03 -2.50157E+03  2.12198E+02
 -1.17031E+03 -3.90379E+02 -1.77309E+03  8.48975E+02 -2.33146E+03  9.27293E+02 -3.73108E+03 -3.17319E+02
 -4.00860E+03 -2.10500E+03 -1.26080E+03 -4.96435E+03  2.43117E+03 -5.33753E+03  4.72142E+03 -2.25512E+03
  5.20848E+03  4.83912E+02  2.60515E+03  3.58309E+03 -1.82905E+02  4.92058E+03 -3.76057E+03  2.88576E+03
