 $NMID ID='MM_0lb_SNR800_14hz_g40_47.RAW', FMTDAT='(8E13.5)'
 TRAMP=1., VOLUME=1. $END
  3.09879E+05  4.17570E+02  3.37412E+05  2.50278E+05  8.47317E+04  3.37649E+05 -1.32445E+05  2.50555E+05
 -1.89714E+05  8.29057E+04 -1.11639E+05 -3.28084E+04  1.17884E+03 -5.02837E+04  5.38941E+04  8.93010E+01
  3.52809E+04  5.29011E+04 -1.69571E+04  7.52135E+04 -6.02810E+04  6.34322E+04 -8.36112E+04  3.17710E+04
 -8.05015E+04 -1.13038E+04 -5.68665E+04 -5.10472E+04 -1.48178E+04 -6.93063E+04  2.73444E+04 -4.53980E+04
  3.99568E+04  3.79643E+03  1.59199E+04  4.76968E+04 -3.42004E+04  4.69731E+04 -6.64681E+04 -1.04888E+02
 -5.31410E+04 -5.63960E+04 -6.44380E+03 -7.63843E+04  3.36942E+04 -5.45730E+04  4.73966E+04 -1.71870E+04
  4.28921E+04  1.13287E+04  3.11811E+04  2.48779E+04  1.57290E+04  2.90952E+04 -5.27689E+03  2.69523E+04
 -2.19048E+04  1.23895E+04 -1.85932E+04 -4.87768E+03  5.43986E+03 -7.52872E+03  2.20293E+04  1.18679E+04
  7.30263E+03  3.43792E+04 -3.17385E+04  3.49903E+04 -6.29120E+04  2.45022E+03 -5.68166E+04 -4.22873E+04
 -1.21529E+04 -6.27622E+04  3.96877E+04 -4.47769E+04  5.73566E+04 -2.27732E+03  3.33140E+04  3.21185E+04
 -6.39004E+03  3.53003E+04 -2.95913E+04  1.52999E+04 -2.95804E+04 -4.64093E+03 -1.60153E+04 -1.07588E+04
 -7.99661E+03 -1.24682E+04 -6.69386E+02 -1.76440E+04  7.27066E+03 -2.25541E+04  1.56264E+04 -1.32604E+04
  1.16283E+04  5.14592E+03 -7.91653E+03  1.31792E+04 -2.07469E+04 -3.79300E+03 -8.19276E+03 -3.26416E+04
  2.20077E+04 -4.28640E+04  4.73855E+04 -1.94739E+04  4.43252E+04  1.92584E+04  1.54382E+04  4.33230E+04
 -1.56963E+04  3.26462E+04 -2.48016E+04  1.87026E+03 -9.28468E+03 -2.76681E+04  2.10007E+04 -3.33731E+04
  4.05169E+04 -8.69639E+03  3.45209E+04  2.35272E+04  1.73359E+04  4.54316E+04 -7.68641E+03  4.91306E+04
 -3.09628E+04  3.26991E+04 -4.13178E+04  9.37791E+03 -4.16298E+04 -1.63325E+04 -2.28779E+04 -3.71871E+04
  7.36198E+03 -3.68196E+04  3.09189E+04 -1.42991E+04  2.86084E+04  1.11432E+04  3.70367E+03  1.88766E+04
 -1.33465E+04  7.83129E+03 -1.03672E+04 -7.65940E+03  5.96332E+03 -1.05129E+04  1.77397E+04  6.16596E+03
  1.32556E+04  2.16021E+04 -6.10254E+03  2.49413E+04 -2.20614E+04  1.08872E+04 -2.72989E+04 -5.14953E+03
 -1.98384E+04 -1.73573E+04 -7.60597E+03 -1.95666E+04  3.95645E+03 -1.85287E+04  1.53101E+04 -1.75209E+04
  2.49984E+04 -1.20506E+04  3.15555E+04  2.46119E+03  2.30018E+04  1.92471E+04  4.31370E+03  3.54018E+04
 -1.73118E+04  2.96264E+04 -2.73965E+04  1.02704E+04 -2.05906E+04 -1.01636E+04 -4.03687E+03 -1.37196E+04
  1.77974E+03 -2.83773E+03 -4.25756E+03  6.45949E+03 -1.55784E+04  5.29712E+03 -1.57676E+04 -6.57619E+03
 -9.63152E+03 -1.80302E+04  5.14722E+03 -2.24140E+04  1.47021E+04 -1.57158E+04  1.75729E+04 -1.47967E+03
  1.07772E+04  1.27216E+04 -8.68870E+02  1.86318E+04 -1.23109E+04  1.04109E+04 -1.78624E+04 -3.89146E+03
 -1.35353E+04 -1.64868E+04 -1.61557E+03 -2.22420E+04  9.89012E+03 -1.78324E+04  1.85604E+04 -9.07936E+03
  1.69713E+04  6.40860E+02  1.23847E+04  4.28827E+03  6.43632E+03  6.32154E+02  9.04674E+03 -1.43440E+03
  1.66988E+04  2.87743E+03  1.85734E+04  1.48504E+04  1.20724E+04  2.90317E+04 -3.08066E+03  3.26618E+04
 -1.92183E+04  2.59868E+04 -3.01492E+04  1.29076E+04 -3.15851E+04 -2.26050E+03 -2.61395E+04 -1.82090E+04
 -1.15265E+04 -2.60423E+04  9.00523E+03 -2.38572E+04  2.04826E+04 -1.25527E+04  1.83675E+04  5.26713E+03
  7.22662E+03  1.35775E+04 -8.71862E+03  1.19898E+04 -1.53453E+04  2.58074E+03 -1.22197E+04 -9.66201E+03
 -8.90891E+01 -1.50551E+04  7.79280E+03 -1.09732E+04  9.95727E+03 -1.33849E+03  2.19917E+03  6.30433E+03
 -6.47822E+03  2.07205E+03 -5.66289E+03 -5.47448E+03 -3.86235E+02 -1.31039E+04  9.30216E+03 -1.33430E+04
  1.59291E+04 -6.95067E+03  1.68012E+04  3.37167E+03  1.47249E+04  1.22490E+04  7.12914E+03  1.92106E+04
 -3.02344E+03  2.09282E+04 -1.30929E+04  1.32089E+04 -1.50495E+04  3.33038E+03 -1.09252E+04 -3.11247E+03
 -5.33047E+03 -4.50144E+03 -8.67781E+02  1.21138E+03 -2.39481E+03  2.81758E+03 -4.78079E+03  4.52309E+03
 -1.01823E+04 -5.90342E+02 -1.07261E+04 -9.00052E+03 -4.53821E+03 -1.43635E+04  4.49674E+03 -1.10975E+04
  9.23667E+03 -4.54706E+03  6.75125E+03  3.16608E+03  5.42656E+02  4.25661E+03 -4.95617E+03 -9.63558E+01
 -4.79193E+03 -6.84707E+03 -6.32301E+02 -9.86508E+03  5.56902E+03 -1.04591E+04  1.33133E+04 -5.85867E+03
  1.56426E+04  1.44823E+03  1.13347E+04  8.89620E+03  2.22838E+03  1.22227E+04 -6.79170E+03  1.06411E+04
 -9.08676E+03  3.15639E+03 -4.51870E+03 -1.89561E+03  1.62986E+03 -2.81292E+03  6.01986E+03 -1.10507E+03
  5.19441E+03  4.08975E+03  1.05717E+03  8.06443E+03 -5.93681E+03  8.44919E+03 -1.03331E+04  2.14870E+03
 -6.77063E+03 -5.05959E+03  2.26353E+02 -8.81145E+03  5.58126E+03 -4.35464E+03  5.08412E+03  1.86559E+03
  1.09153E+03  5.64598E+03 -5.16421E+03  6.93616E+03 -7.76530E+03  2.99559E+03 -7.36980E+03 -2.81674E+03
 -4.77011E+03 -9.17541E+03  1.95013E+03 -1.05948E+04  9.14264E+03 -6.68020E+03  9.92577E+03  1.34393E+03
  6.49432E+03  7.46483E+03 -2.77082E+02  9.86271E+03 -6.96746E+03  5.38061E+03 -7.77682E+03 -6.99112E+02
 -7.12428E+03 -6.81012E+03 -1.71724E+03 -7.29605E+03  3.67061E+03 -6.25991E+03  4.56195E+03 -3.16112E+03
  3.51613E+03  7.31049E+02 -6.73413E+01  1.42780E+03  2.35933E+02 -1.16102E+03  9.95665E+02 -3.57806E+03
  6.26372E+03 -1.99622E+03  8.57644E+03  1.34089E+03  8.68546E+03  5.50257E+03  6.84293E+03  1.19532E+04
 -2.60595E+03  1.36504E+04 -1.17003E+04  1.01086E+04 -1.53708E+04  1.75053E+03 -1.20066E+04 -4.35269E+03
 -6.27746E+03 -9.96197E+03 -2.66285E+02 -8.29804E+03  3.26779E+03 -4.10061E+03  2.62709E+03 -2.92888E+03
  2.09156E+03 -1.98868E+03  2.57543E+03 -2.71758E+03  4.07583E+03 -2.04710E+03  5.22774E+03 -2.75623E+02
  6.41158E+03  1.48073E+03  2.33794E+03  5.35262E+03 -1.81315E+03  5.56900E+03 -6.84549E+03  4.53819E+03
 -7.94351E+03 -1.20099E+03 -4.30171E+03 -5.45510E+03 -9.67183E+01 -8.08532E+03  4.97835E+03 -8.62035E+03
  8.66346E+03 -4.98827E+03  1.08008E+04  1.15661E+03  7.61776E+03  7.15743E+03  1.44323E+03  9.49559E+03
 -3.80687E+03  8.39869E+03 -5.61182E+03  3.07834E+03 -3.56178E+03 -1.21092E+03 -1.13261E+03 -8.44725E+02
 -5.39096E+02 -3.30016E+01 -1.21701E+03  2.31664E+03 -3.64148E+03  1.63977E+03 -5.87188E+03 -7.62562E+02
 -3.18008E+03 -5.80786E+03  5.45333E+02 -7.51676E+03  4.71285E+03 -7.12542E+03  6.98055E+03 -2.06681E+03
  7.26969E+03  3.73656E+03  3.47554E+03  6.50920E+03 -1.21436E+03  7.61149E+03 -5.18628E+03  4.87388E+03
 -7.04937E+03  5.99309E+02 -5.85675E+03 -4.57180E+03 -5.76229E+02 -6.11475E+03  2.99664E+03 -4.58387E+03
  4.51278E+03 -1.79899E+03  3.17953E+03  1.06555E+03  1.09968E+03  2.39452E+03  8.82339E+02  5.51928E+02
  2.23099E+03  6.58384E+02  2.16338E+03  1.43496E+03  2.29396E+03  3.18912E+03  2.08644E+03  3.78200E+03
 -1.80105E+03  5.49604E+03 -4.84498E+03  6.46635E+03 -6.61915E+03  1.91189E+03 -7.57606E+03 -2.38391E+03
 -3.49702E+03 -6.88585E+03  1.15936E+03 -7.92634E+03  4.08055E+03 -5.05101E+03  5.87368E+03 -1.50169E+03
  4.45168E+03  2.81479E+03  4.77406E+02  4.01132E+03 -1.87688E+03  2.68101E+03 -2.71389E+03 -3.44543E+02
 -1.37834E+03 -3.08172E+03  1.94835E+03 -2.87877E+03  2.91123E+03 -1.70828E+03  2.97182E+03  4.51176E+02
  1.84964E+03  1.11110E+03  1.24759E+03  5.52781E+02 -5.22988E+02  1.20479E+03  1.41546E+03 -2.43234E+02
  5.35691E+02 -5.74929E+02  3.27376E+03  1.00804E+03  1.43530E+03  4.00349E+03 -6.80587E+02  5.15248E+03
 -3.08620E+03  2.91822E+03 -4.30701E+03  6.33080E+02 -3.74989E+03 -1.67675E+03 -9.36655E+02 -2.68490E+03
  5.32346E+02 -2.53312E+03  1.72598E+03 -1.46944E+03  1.49486E+03  2.03013E+03 -1.01285E+03  2.32955E+03
 -2.61434E+03  1.27113E+03 -2.99949E+03 -1.87521E+03 -1.48018E+03 -4.01839E+03  6.05893E+02 -3.26829E+03
  1.85616E+03 -1.99853E+03  2.27539E+03  6.20712E+01  2.78810E+03  4.73344E+02  4.97631E+02  1.99300E+03
 -1.21328E+03  3.53090E+02 -1.72209E+03 -1.37760E+03  6.26894E+02 -2.55648E+03  3.21725E+03 -1.96643E+03
  3.38648E+03  3.90668E+02  4.43778E+03  2.17597E+03  1.56942E+03  3.91371E+03 -1.11681E+03  4.32710E+03
 -3.39115E+03  1.12887E+03 -3.73408E+03 -5.97227E+02 -1.86884E+03 -2.86291E+03  6.89301E+02 -2.31934E+03
  2.97733E+03 -1.45804E+03  1.97805E+03  1.06142E+03  4.81456E+02  2.38585E+03  3.06166E+01  1.98793E+03
 -9.14565E+02  1.51017E+03 -1.31721E+03  3.50788E+02 -5.05937E+02  2.03351E+02 -6.87731E+02  8.49939E+02
 -1.20701E+03  1.69679E+03 -3.04560E+03  1.22588E+03 -3.99763E+03  3.26020E+02 -4.70906E+03 -2.54852E+03
 -2.24872E+03 -5.30396E+03  1.16635E+03 -6.14820E+03  3.40371E+03 -4.87827E+03  5.98848E+03 -1.84718E+03
  5.52432E+03  7.78065E+02  2.93361E+03  3.55548E+03 -1.68100E+02  4.08950E+03 -1.46491E+03  3.20659E+03
 -2.56761E+03  1.33750E+03 -1.58101E+03 -5.62055E+02 -6.82147E+02 -2.27933E+02 -6.84711E+02 -4.49622E+01
 -1.13878E+03 -2.87737E+02 -1.14930E+03  3.14302E+02  7.57960E+01 -1.37473E+03  7.44933E+00 -1.45505E+03
  2.04832E+03 -1.38009E+03  1.92519E+03  1.60373E+01  3.14967E+03  2.24430E+03  2.31402E+02  3.64781E+03
 -2.30142E+03  4.72037E+03 -4.13734E+03  2.61320E+03 -4.81978E+03 -2.19072E+02 -3.39191E+03 -3.36774E+03
 -1.73572E+03 -3.64313E+03  1.00983E+03 -3.41908E+03  2.31496E+03 -1.90075E+03  2.34873E+03  8.40658E+01
  1.82034E+03  1.16609E+03  2.71082E+01  1.10898E+03 -9.71914E+02 -2.57322E+02 -9.52092E+01 -6.40734E+02
  1.25531E+03 -2.88382E+02  1.53952E+03  5.99884E+02  8.65724E+02  1.36743E+03  7.83559E+01  1.70801E+03
 -1.53585E+03  1.50690E+03 -2.52036E+03  2.01534E+02 -2.18977E+03 -1.44718E+03 -7.26133E+01 -3.13641E+03
  1.75937E+03 -2.49163E+03  2.32458E+03 -3.06032E+02  2.96242E+03  2.17048E+02  1.60643E+03  2.32534E+03
  5.84371E+02  1.87574E+03 -8.79220E+02  1.83826E+03 -1.56471E+03  1.26210E+03 -1.28150E+03  4.38543E+02
 -5.77567E+02  1.58090E+02 -9.09592E+02  4.98729E+02 -1.19589E+03  4.75877E+02 -1.94054E+03 -2.21470E+02
 -2.05601E+03 -5.10695E+02 -3.17767E+02 -2.54385E+03  1.14170E+03 -3.05464E+03  2.17773E+03 -1.22631E+03
  2.15211E+03  4.71565E+02  8.56729E+02  1.31827E+03 -2.67778E+02  2.24995E+03 -1.51541E+03  1.79205E+03
