 $NMID ID='MM_0lb_SNR800_16hz_g45_59.RAW', FMTDAT='(8E13.5)'
 TRAMP=1., VOLUME=1. $END
  3.09723E+05  3.25298E+02  3.37520E+05  2.50435E+05  8.45232E+04  3.37784E+05 -1.32696E+05  2.50290E+05
 -1.89737E+05  8.27804E+04 -1.11442E+05 -3.28726E+04  1.35361E+03 -5.03013E+04  5.38944E+04  1.07995E+02
  3.52004E+04  5.27164E+04 -1.67790E+04  7.49494E+04 -6.03280E+04  6.30677E+04 -8.37705E+04  3.17605E+04
 -8.01995E+04 -1.11520E+04 -5.67411E+04 -5.09154E+04 -1.50251E+04 -6.87564E+04  2.67732E+04 -4.52123E+04
  3.96176E+04  3.77649E+03  1.56223E+04  4.74032E+04 -3.40535E+04  4.68559E+04 -6.62176E+04 -2.86060E+02
 -5.26949E+04 -5.68365E+04 -6.66042E+03 -7.57944E+04  3.34992E+04 -5.40782E+04  4.72186E+04 -1.70748E+04
  4.24072E+04  1.10806E+04  3.14917E+04  2.52613E+04  1.55096E+04  2.89278E+04 -5.01757E+03  2.71886E+04
 -2.15976E+04  1.26979E+04 -1.86550E+04 -4.80673E+03  4.80799E+03 -7.65722E+03  2.17063E+04  1.17718E+04
  6.96953E+03  3.40850E+04 -3.10443E+04  3.46001E+04 -6.22342E+04  2.33408E+03 -5.61371E+04 -4.18542E+04
 -1.22073E+04 -6.19141E+04  3.89222E+04 -4.41029E+04  5.65253E+04 -2.27828E+03  3.27839E+04  3.14377E+04
 -6.07457E+03  3.46200E+04 -2.89925E+04  1.44680E+04 -2.87613E+04 -4.75154E+03 -1.54966E+04 -1.01649E+04
 -7.70856E+03 -1.22845E+04 -6.87111E+02 -1.74378E+04  6.77800E+03 -2.33017E+04  1.50407E+04 -1.36544E+04
  1.15719E+04  4.77340E+03 -7.04964E+03  1.29661E+04 -2.01736E+04 -3.33453E+03 -8.25604E+03 -3.19234E+04
  2.15909E+04 -4.19623E+04  4.61000E+04 -1.92093E+04  4.31249E+04  1.89559E+04  1.51012E+04  4.29664E+04
 -1.55506E+04  3.18450E+04 -2.42585E+04  1.46583E+03 -9.15401E+03 -2.70481E+04  2.04191E+04 -3.25612E+04
  3.98533E+04 -8.18133E+03  3.32789E+04  2.33070E+04  1.62998E+04  4.43337E+04 -7.70931E+03  4.72567E+04
 -2.97087E+04  3.17915E+04 -3.95329E+04  8.97231E+03 -4.05536E+04 -1.55766E+04 -2.21586E+04 -3.63280E+04
  6.84313E+03 -3.59991E+04  3.01641E+04 -1.40418E+04  2.78987E+04  1.09496E+04  3.40559E+03  1.83512E+04
 -1.32280E+04  7.62555E+03 -9.96955E+03 -7.74202E+03  5.77001E+03 -1.03826E+04  1.75436E+04  6.24706E+03
  1.29126E+04  2.17325E+04 -6.48972E+03  2.39461E+04 -2.18123E+04  1.01476E+04 -2.64106E+04 -5.63977E+03
 -1.83319E+04 -1.69941E+04 -6.69066E+03 -1.86431E+04  3.93621E+03 -1.69136E+04  1.37808E+04 -1.61378E+04
  2.36829E+04 -1.23754E+04  3.02063E+04  1.47805E+03  2.26937E+04  1.77218E+04  4.18611E+03  3.42151E+04
 -1.70217E+04  2.89247E+04 -2.67457E+04  9.88734E+03 -2.04114E+04 -1.02139E+04 -4.09939E+03 -1.37846E+04
  2.17278E+03 -3.69150E+03 -3.67708E+03  5.98584E+03 -1.44859E+04  4.99726E+03 -1.44125E+04 -6.00075E+03
 -9.16480E+03 -1.72392E+04  4.70828E+03 -2.08608E+04  1.40096E+04 -1.48945E+04  1.60917E+04 -1.54479E+03
  9.91044E+03  1.21375E+04 -9.33926E+02  1.72693E+04 -1.17564E+04  9.84870E+03 -1.68860E+04 -3.41671E+03
 -1.28295E+04 -1.55002E+04 -1.70776E+03 -2.08639E+04  9.45231E+03 -1.67307E+04  1.73866E+04 -8.57662E+03
  1.61921E+04  3.32653E+02  1.14085E+04  4.45828E+03  5.70655E+03  7.14978E+02  8.58827E+03 -1.60296E+03
  1.53407E+04  2.74544E+03  1.69559E+04  1.37698E+04  1.06706E+04  2.73694E+04 -2.72983E+03  3.02893E+04
 -1.75202E+04  2.35486E+04 -2.77055E+04  1.15849E+04 -2.88300E+04 -2.21162E+03 -2.42755E+04 -1.68140E+04
 -1.11668E+04 -2.35107E+04  8.02730E+03 -2.18396E+04  1.88939E+04 -1.17788E+04  1.74270E+04  4.36980E+03
  6.49879E+03  1.29218E+04 -8.04837E+03  1.15669E+04 -1.46967E+04  2.69594E+03 -1.13998E+04 -9.09320E+03
 -1.99215E+02 -1.39181E+04  6.87325E+03 -1.03048E+04  9.15808E+03 -1.31308E+03  1.57707E+03  5.41729E+03
 -6.17528E+03  1.77648E+03 -4.85220E+03 -5.34800E+03  2.75892E+02 -1.16474E+04  8.44520E+03 -1.17484E+04
  1.42402E+04 -5.92846E+03  1.46525E+04  2.64232E+03  1.28562E+04  1.11340E+04  5.93704E+03  1.66549E+04
 -2.66436E+03  1.88953E+04 -1.16468E+04  1.18603E+04 -1.34530E+04  3.05348E+03 -9.72545E+03 -2.70820E+03
 -4.91284E+03 -4.24026E+03 -8.78697E+02  1.02805E+03 -2.44434E+03  2.55434E+03 -4.42847E+03  3.87251E+03
 -9.20841E+03 -4.13510E+02 -9.80379E+03 -7.89706E+03 -4.04926E+03 -1.29805E+04  4.02342E+03 -9.64574E+03
  8.14013E+03 -4.53014E+03  6.05889E+03  2.35684E+03  3.17427E+02  3.82509E+03 -4.35299E+03 -7.65173E+01
 -3.94139E+03 -6.20777E+03 -6.82986E+02 -8.80930E+03  4.86404E+03 -9.63278E+03  1.15776E+04 -4.76389E+03
  1.37531E+04  1.12990E+03  1.01421E+04  7.69356E+03  2.02679E+03  1.04866E+04 -6.17083E+03  9.58942E+03
 -7.92876E+03  3.17787E+03 -4.13343E+03 -2.00031E+03  1.47924E+03 -2.32540E+03  5.26052E+03 -1.00806E+03
  4.57617E+03  4.40858E+03  1.14042E+03  7.43143E+03 -4.94800E+03  7.36974E+03 -9.25530E+03  2.27076E+03
 -6.10540E+03 -4.56564E+03  4.01283E+02 -7.94061E+03  4.45573E+03 -3.82440E+03  4.20994E+03  1.41927E+03
  8.86929E+02  4.24806E+03 -4.93564E+03  5.99920E+03 -6.42069E+03  2.59277E+03 -6.07486E+03 -1.71752E+03
 -3.83599E+03 -7.75177E+03  1.63628E+03 -9.16035E+03  7.44772E+03 -5.70129E+03  8.21309E+03  1.01038E+03
  5.46031E+03  6.52963E+03 -1.42321E+02  8.75153E+03 -6.35443E+03  4.84370E+03 -6.26602E+03 -5.06503E+02
 -6.72315E+03 -5.93366E+03 -1.18203E+03 -6.31648E+03  2.99483E+03 -5.59466E+03  3.68207E+03 -2.73995E+03
  3.48908E+03  4.28664E+02 -1.26510E+01  1.30328E+03  5.86985E+02 -6.52920E+02  6.64218E+02 -2.94672E+03
  5.25094E+03 -1.40000E+03  7.37001E+03  1.00366E+03  7.31965E+03  4.48199E+03  6.14008E+03  9.48898E+03
 -1.81320E+03  1.09554E+04 -9.72392E+03  8.37245E+03 -1.26095E+04  1.45823E+03 -9.88652E+03 -3.77670E+03
 -5.46434E+03 -8.14324E+03 -2.44734E+02 -6.83162E+03  2.55633E+03 -2.82394E+03  2.22211E+03 -2.63251E+03
  1.69909E+03 -1.68183E+03  2.14683E+03 -2.74121E+03  3.73977E+03 -1.66338E+03  4.47094E+03  1.98902E+02
  5.50113E+03  1.34387E+03  1.95029E+03  4.30364E+03 -1.65124E+03  4.04440E+03 -5.36070E+03  3.47107E+03
 -6.44362E+03 -1.35763E+03 -3.07520E+03 -4.42915E+03  3.17167E+02 -6.70656E+03  3.95701E+03 -7.05940E+03
  7.21908E+03 -4.44434E+03  8.71556E+03  6.72241E+02  6.26827E+03  5.87499E+03  1.24397E+03  7.70496E+03
 -3.19170E+03  7.02392E+03 -4.56183E+03  2.65047E+03 -2.80077E+03 -1.03838E+03 -1.13688E+03 -7.29338E+02
 -4.61493E+02  2.81174E+02 -1.22688E+03  2.19561E+03 -3.19136E+03  1.32927E+03 -4.78887E+03 -5.74204E+02
 -2.57403E+03 -4.95007E+03  9.14069E+02 -6.37292E+03  3.67320E+03 -5.64139E+03  5.35112E+03 -1.76988E+03
  5.62067E+03  3.20053E+03  2.50522E+03  4.57488E+03 -1.18233E+03  5.99944E+03 -3.79866E+03  3.42209E+03
 -5.36914E+03  4.59958E+02 -4.44979E+03 -3.26884E+03 -4.59671E+02 -4.55086E+03  2.32550E+03 -3.66701E+03
  3.57356E+03 -1.76977E+03  2.55804E+03  7.73188E+02  8.81705E+02  1.95274E+03  7.92003E+02  7.33679E+02
  1.73685E+03  6.11563E+02  1.87771E+03  1.06142E+03  1.47346E+03  2.48660E+03  1.56629E+03  2.62857E+03
 -1.54519E+03  4.09145E+03 -3.72505E+03  5.29519E+03 -5.03064E+03  1.31032E+03 -6.13878E+03 -1.11501E+03
 -2.52196E+03 -5.46530E+03  7.96986E+02 -6.30923E+03  3.08405E+03 -3.71669E+03  4.60421E+03 -1.22700E+03
  3.69542E+03  2.26733E+03  4.67616E+02  3.29258E+03 -9.55134E+02  1.79531E+03 -1.62512E+03 -3.48345E+02
 -9.06527E+02 -2.19707E+03  1.80598E+03 -2.18813E+03  1.97241E+03 -1.30650E+03  2.09259E+03  4.59180E+02
  1.24414E+03  8.46413E+02  9.42103E+02 -3.90506E+01 -5.53398E+02  8.91799E+02  1.75119E+03  2.54511E+01
  3.23095E+02 -7.36402E+01  2.46284E+03  7.99682E+02  7.66721E+02  3.01827E+03 -4.38943E+02  4.05760E+03
 -2.76618E+03  1.95498E+03 -3.09963E+03  7.48141E+02 -3.05072E+03 -1.07583E+03 -2.27711E+02 -1.79941E+03
  5.32172E+02 -1.97547E+03  1.19317E+03 -1.22117E+03  8.51023E+02  1.61108E+03 -8.50808E+02  1.85091E+03
 -2.40023E+03  1.27981E+03 -2.09793E+03 -1.77672E+03 -9.64214E+02 -3.27871E+03  9.05058E+01 -2.65722E+03
  9.26597E+02 -9.77578E+02  1.68052E+03  1.22219E+02  1.78974E+03  7.22878E+01  4.88732E+02  1.67714E+03
 -8.51889E+02  1.07206E+02 -1.37927E+03 -3.30658E+02  1.02626E+03 -1.71971E+03  2.68407E+03 -1.43683E+03
  2.36345E+03  2.08771E+02  3.61469E+03  1.54770E+03  1.39270E+03  2.51565E+03 -5.97244E+02  2.73979E+03
 -2.10213E+03  8.78387E+02 -2.21571E+03 -3.40426E+02 -1.37336E+03 -2.34070E+03  3.29401E+02 -1.34952E+03
  2.29439E+03 -1.09545E+03  1.24565E+03  1.08468E+03  2.72362E+02  1.97487E+03  3.16147E+01  1.42123E+03
 -6.95357E+02  1.26747E+03 -7.29248E+02 -3.27384E+01 -6.39182E+01  4.56161E+02 -8.26182E+02  9.63316E+02
 -6.43672E+02  1.40643E+03 -2.53215E+03  9.99926E+02 -3.09604E+03 -1.70208E+02 -3.77006E+03 -1.96997E+03
 -1.87678E+03 -3.53163E+03  6.84417E+02 -4.43704E+03  2.01833E+03 -3.69458E+03  4.26782E+03 -1.54792E+03
  3.69808E+03  8.61179E+01  2.10753E+03  2.35973E+03 -4.26216E+02  2.71653E+03 -1.10768E+03  2.01481E+03
 -1.38649E+03  9.71895E+02 -8.15362E+02 -2.66953E+02 -6.98750E+02  1.85921E+02 -6.09988E+02 -3.11213E+01
 -1.02801E+03 -2.09163E+02 -9.88237E+02  8.68466E+01  2.85317E+02 -9.20981E+02 -1.95737E+02 -9.47731E+02
  1.50492E+03 -1.03845E+03  1.16673E+03  4.91530E+01  1.84228E+03  1.73533E+03 -1.06279E+02  2.57198E+03
 -1.06197E+03  3.43560E+03 -2.75505E+03  2.21770E+03 -2.94339E+03  1.26999E+02 -2.39581E+03 -2.12071E+03
 -1.26687E+03 -2.36109E+03  7.77550E+02 -2.05437E+03  1.45610E+03 -7.62876E+02  1.48382E+03  1.40266E+02
  1.09868E+03  8.04920E+02  5.06693E+01  8.19975E+02 -3.90222E+02 -6.07879E+01  1.25157E+02 -4.23723E+02
  6.49675E+02 -1.76828E+02  9.64026E+02  4.02539E+02  2.89886E+02  5.08820E+02  3.80059E+02  1.17118E+03
 -1.31378E+03  1.00279E+03 -1.31954E+03  2.58794E+02 -1.53396E+03 -9.77098E+02 -1.13191E+02 -2.12705E+03
  1.08706E+03 -1.49249E+03  1.29361E+03 -1.91533E+02  2.14842E+03 -4.05247E+02  9.16179E+02  1.48785E+03
  6.08729E+02  1.37388E+03 -5.87051E+02  1.17033E+03 -1.16388E+03  9.04052E+02 -5.58405E+02 -1.27048E+02
 -2.77763E+01 -2.00823E+02 -3.06746E+02  2.44364E+02 -1.10289E+03  4.71665E+02 -1.60618E+03 -4.38757E+02
 -1.48102E+03 -3.29794E+01 -5.43043E+02 -1.56600E+03  8.78508E+02 -2.19247E+03  8.60459E+02 -7.65491E+02
  1.58414E+03 -2.69443E+01  5.50555E+01  1.00132E+03 -1.69860E+02  1.59560E+03 -5.58564E+02  1.20626E+03
