 $NMID ID='MM_0lb_SNR800_12hz_g45_59.RAW', FMTDAT='(8E13.5)'
 TRAMP=1., VOLUME=1. $END
  3.09730E+05  5.95393E+02  3.37656E+05  2.50519E+05  8.45310E+04  3.38001E+05 -1.32651E+05  2.51256E+05
 -1.90133E+05  8.31433E+04 -1.12046E+05 -3.24230E+04  1.06892E+03 -5.03890E+04  5.34176E+04 -1.71343E+02
  3.56559E+04  5.29894E+04 -1.69078E+04  7.57880E+04 -6.08669E+04  6.38125E+04 -8.44524E+04  3.20260E+04
 -8.14065E+04 -1.13231E+04 -5.73721E+04 -5.14951E+04 -1.52765E+04 -6.99929E+04  2.73754E+04 -4.62000E+04
  4.02554E+04  3.85263E+03  1.59368E+04  4.80476E+04 -3.49383E+04  4.72512E+04 -6.71196E+04 -5.13839E+01
 -5.37982E+04 -5.71101E+04 -7.10195E+03 -7.75615E+04  3.42324E+04 -5.55811E+04  4.82977E+04 -1.76035E+04
  4.37999E+04  1.08899E+04  3.21382E+04  2.58582E+04  1.59584E+04  2.97922E+04 -5.06128E+03  2.75149E+04
 -2.18006E+04  1.24846E+04 -1.86088E+04 -5.31095E+03  5.73281E+03 -7.70806E+03  2.30880E+04  1.29947E+04
  7.61291E+03  3.60879E+04 -3.25517E+04  3.59895E+04 -6.41370E+04  2.13398E+03 -5.75765E+04 -4.37452E+04
 -1.26835E+04 -6.39613E+04  3.99509E+04 -4.57167E+04  5.92875E+04 -2.27516E+03  3.46960E+04  3.30081E+04
 -5.99803E+03  3.69869E+04 -3.06140E+04  1.66213E+04 -3.13062E+04 -4.43733E+03 -1.74918E+04 -1.13263E+04
 -9.07344E+03 -1.36382E+04 -6.23544E+02 -1.83695E+04  7.80312E+03 -2.33469E+04  1.56203E+04 -1.31223E+04
  1.12655E+04  5.37511E+03 -8.71987E+03  1.30800E+04 -2.19723E+04 -5.27547E+03 -8.48805E+03 -3.51402E+04
  2.35836E+04 -4.44833E+04  4.95864E+04 -2.00241E+04  4.61303E+04  2.00060E+04  1.61001E+04  4.53053E+04
 -1.60362E+04  3.43131E+04 -2.62433E+04  2.19267E+03 -1.02830E+04 -2.83981E+04  2.12335E+04 -3.44294E+04
  4.17947E+04 -9.60710E+03  3.70759E+04  2.43435E+04  1.91369E+04  4.79990E+04 -8.21326E+03  5.21560E+04
 -3.27946E+04  3.51320E+04 -4.38217E+04  1.01121E+04 -4.38965E+04 -1.72056E+04 -2.42953E+04 -3.90725E+04
  7.52508E+03 -3.90627E+04  3.23587E+04 -1.51466E+04  3.00208E+04  1.14592E+04  4.16353E+03  1.98698E+04
 -1.33548E+04  8.79812E+03 -1.06039E+04 -7.51071E+03  5.64780E+03 -1.06838E+04  1.82096E+04  5.95733E+03
  1.40082E+04  2.23147E+04 -5.85079E+03  2.55529E+04 -2.26421E+04  1.22723E+04 -2.89939E+04 -4.28118E+03
 -2.20793E+04 -1.76638E+04 -9.07481E+03 -2.18229E+04  4.44382E+03 -2.10947E+04  1.66622E+04 -1.96393E+04
  2.74778E+04 -1.34443E+04  3.39049E+04  3.58282E+03  2.49487E+04  2.12230E+04  4.30387E+03  3.76597E+04
 -1.81008E+04  3.18091E+04 -2.89057E+04  1.09840E+04 -2.12366E+04 -1.02746E+04 -4.40455E+03 -1.34466E+04
  1.34128E+03 -2.23148E+03 -5.61873E+03  7.54990E+03 -1.74873E+04  5.19196E+03 -1.74006E+04 -7.58013E+03
 -1.06302E+04 -2.00037E+04  5.58250E+03 -2.42236E+04  1.61806E+04 -1.76499E+04  1.97105E+04 -1.71812E+03
  1.20999E+04  1.39463E+04 -1.37515E+03  2.02500E+04 -1.41256E+04  1.15163E+04 -2.04343E+04 -4.67097E+03
 -1.48657E+04 -1.80856E+04 -2.07420E+03 -2.46663E+04  1.08227E+04 -2.01634E+04  2.01509E+04 -9.84876E+03
  1.90189E+04  3.70830E+01  1.36714E+04  4.98347E+03  7.21529E+03  9.47579E+02  1.05182E+04 -2.12952E+03
  1.89479E+04  2.82909E+03  2.14034E+04  1.62556E+04  1.38563E+04  3.20282E+04 -2.87261E+03  3.72307E+04
 -2.12728E+04  3.04478E+04 -3.45602E+04  1.52468E+04 -3.64767E+04 -2.57295E+03 -2.99266E+04 -2.12447E+04
 -1.28977E+04 -3.05736E+04  1.06513E+04 -2.72692E+04  2.31632E+04 -1.34870E+04  2.07704E+04  6.01356E+03
  7.74918E+03  1.53789E+04 -9.59966E+03  1.33852E+04 -1.71020E+04  2.36219E+03 -1.32788E+04 -1.09293E+04
 -1.17541E+02 -1.64808E+04  8.52930E+03 -1.20102E+04  1.10151E+04 -1.17231E+03  2.76985E+03  7.14688E+03
 -7.41938E+03  2.76985E+03 -7.26847E+03 -5.98971E+03 -9.11990E+02 -1.50304E+04  1.01595E+04 -1.57291E+04
  1.83775E+04 -8.86862E+03  2.05760E+04  2.65796E+03  1.78429E+04  1.46902E+04  8.25297E+03  2.32781E+04
 -3.65625E+03  2.48072E+04 -1.58796E+04  1.53723E+04 -1.80583E+04  3.56409E+03 -1.26097E+04 -4.58652E+03
 -5.51375E+03 -5.42992E+03 -4.58602E+02  9.14736E+02 -2.62081E+03  2.95614E+03 -5.54616E+03  4.66214E+03
 -1.18756E+04 -7.27102E+02 -1.21799E+04 -1.00176E+04 -5.21055E+03 -1.60603E+04  5.14073E+03 -1.26294E+04
  1.04824E+04 -5.24600E+03  7.47915E+03  3.27637E+03 -1.24300E+02  5.03954E+03 -5.92875E+03 -1.63428E+01
 -5.91537E+03 -7.95427E+03 -9.48377E+02 -1.21938E+04  6.89501E+03 -1.27483E+04  1.55453E+04 -6.64493E+03
  1.84649E+04  1.82794E+03  1.35305E+04  1.08291E+04  2.42441E+03  1.45783E+04 -7.94585E+03  1.26164E+04
 -1.04597E+04  3.57165E+03 -5.29589E+03 -2.55491E+03  1.62513E+03 -2.92750E+03  6.80703E+03 -1.42321E+03
  5.91856E+03  5.25756E+03  1.36708E+03  9.90620E+03 -6.98219E+03  9.49621E+03 -1.24327E+04  2.40273E+03
 -8.04983E+03 -6.16845E+03  2.91799E+02 -1.04597E+04  6.65394E+03 -5.30959E+03  6.84920E+03  2.20576E+03
  1.37514E+03  6.93200E+03 -6.51424E+03  8.74278E+03 -9.82470E+03  3.92486E+03 -9.70248E+03 -3.53927E+03
 -5.83622E+03 -1.19203E+04  2.90192E+03 -1.35144E+04  1.12680E+04 -7.86505E+03  1.24942E+04  1.88401E+03
  7.74320E+03  9.52240E+03 -5.80556E+02  1.23974E+04 -8.58284E+03  6.55590E+03 -9.44886E+03 -1.15650E+03
 -8.43544E+03 -8.06571E+03 -1.54700E+03 -9.01792E+03  4.95070E+03 -7.27250E+03  5.59917E+03 -3.21936E+03
  3.95418E+03  1.08903E+03 -8.60966E+02  1.86299E+03 -3.81135E+02 -2.17335E+03  1.66712E+03 -5.13409E+03
  8.13661E+03 -3.07730E+03  1.15260E+04  1.27667E+03  1.13877E+04  7.68045E+03  7.85746E+03  1.50013E+04
 -3.25257E+03  1.68985E+04 -1.47465E+04  1.30058E+04 -1.88460E+04  2.32135E+03 -1.50108E+04 -6.31332E+03
 -7.65587E+03 -1.23958E+04 -9.06102E+02 -1.02283E+04  3.44399E+03 -5.73728E+03  3.75685E+03 -3.80268E+03
  2.44588E+03 -2.36999E+03  3.01042E+03 -3.27590E+03  4.67338E+03 -2.80926E+03  5.91805E+03 -6.35234E+02
  8.36064E+03  1.70105E+03  3.83880E+03  6.64216E+03 -1.84723E+03  7.42458E+03 -8.57032E+03  6.07695E+03
 -1.06609E+04 -1.28453E+03 -5.57008E+03 -7.31769E+03 -5.13390E+02 -1.05454E+04  6.29506E+03 -1.08691E+04
  1.14261E+04 -6.55748E+03  1.41035E+04  1.67923E+03  9.89967E+03  9.39542E+03  1.50626E+03  1.24593E+04
 -4.76871E+03  1.05373E+04 -7.07877E+03  3.21250E+03 -4.64048E+03 -1.45905E+03 -1.76364E+03 -1.74696E+03
 -1.06535E+03  3.35410E+02 -1.45514E+03  2.47495E+03 -4.68625E+03  1.39538E+03 -7.27363E+03 -1.05629E+03
 -4.89547E+03 -7.53606E+03  3.03645E+02 -1.00426E+04  6.17508E+03 -9.42006E+03  9.42423E+03 -2.80139E+03
  9.86989E+03  4.99817E+03  4.51914E+03  8.70785E+03 -1.48040E+03  9.79181E+03 -7.37563E+03  6.23588E+03
 -9.18000E+03  4.21067E+02 -7.57686E+03 -5.85960E+03 -7.03358E+02 -8.27045E+03  4.25785E+03 -6.21119E+03
  6.40052E+03 -2.05504E+03  4.22886E+03  1.37587E+03  1.40302E+03  3.23773E+03  1.13254E+03  1.76134E+03
  2.53834E+03  6.31270E+02  2.42872E+03  1.49725E+03  3.03163E+03  3.58279E+03  2.47336E+03  5.14877E+03
 -2.01305E+03  8.01988E+03 -6.62461E+03  8.14003E+03 -9.63162E+03  2.15539E+03 -1.02688E+04 -3.59499E+03
 -4.65383E+03 -9.63707E+03  1.76353E+03 -1.09091E+04  5.92247E+03 -6.68648E+03  8.10152E+03 -1.61010E+03
  6.36787E+03  3.86520E+03  1.34742E+03  5.59796E+03 -2.67968E+03  3.60687E+03 -3.65482E+03 -7.58399E+02
 -1.53958E+03 -3.91598E+03  1.96983E+03 -4.39293E+03  3.87664E+03 -2.22588E+03  3.54243E+03  5.68465E+02
  2.45945E+03  1.73690E+03  1.07506E+03  1.15059E+03 -5.85739E+02  1.26244E+03  1.48878E+03 -5.13011E+02
  1.29412E+03 -2.25746E+02  4.14196E+03  1.78011E+03  2.11193E+03  5.53844E+03 -8.69929E+02  6.86634E+03
 -4.70282E+03  4.27072E+03 -6.00236E+03  9.33569E+02 -5.40036E+03 -2.10252E+03 -1.84714E+03 -3.25645E+03
  2.84497E+02 -3.70234E+03  2.43719E+03 -2.02885E+03  2.20531E+03  1.95256E+03 -7.79975E+02  3.07518E+03
 -3.92622E+03  2.16894E+03 -3.85587E+03 -2.31731E+03 -2.60350E+03 -5.28894E+03  7.28945E+02 -5.02285E+03
  2.69943E+03 -2.88035E+03  3.19026E+03 -3.69259E+02  3.52042E+03  1.15518E+03  3.41384E+02  3.06176E+03
 -1.74682E+03  5.83225E+02 -2.19687E+03 -1.72842E+03  1.18180E+03 -3.76900E+03  4.90234E+03 -2.97304E+03
  5.80539E+03  4.74463E+02  6.14070E+03  3.78489E+03  2.01836E+03  6.20662E+03 -1.94704E+03  5.82725E+03
 -4.94382E+03  2.27128E+03 -5.00733E+03 -8.80899E+02 -2.64555E+03 -3.92619E+03  6.17573E+02 -3.55597E+03
  3.85551E+03 -2.22692E+03  2.96916E+03  1.87815E+03  7.58587E+02  3.48656E+03 -2.47874E+02  3.07006E+03
 -1.65412E+03  2.08924E+03 -1.65940E+03  6.93670E+02 -4.56687E+02  8.04942E+02 -1.11100E+03  1.53151E+03
 -1.48881E+03  2.47701E+03 -4.17770E+03  1.69579E+03 -5.92826E+03  1.70217E+02 -6.79900E+03 -3.84224E+03
 -3.43594E+03 -7.64856E+03  1.18203E+03 -8.93547E+03  5.25605E+03 -6.97660E+03  8.91437E+03 -2.92507E+03
  8.30861E+03  1.29661E+03  4.74646E+03  5.27399E+03  2.12645E+02  5.66048E+03 -2.33173E+03  4.13050E+03
 -3.27847E+03  1.69972E+03 -1.71127E+03 -6.79902E+02 -5.75666E+02 -4.64309E+02 -4.81693E+02  2.11625E+01
 -1.88093E+03  3.22842E+01 -1.50617E+03  1.69609E+02 -4.55412E+02 -1.67631E+03 -9.00382E+01 -2.12201E+03
  2.99110E+03 -1.98427E+03  3.27462E+03  1.80965E+02  4.17312E+03  2.84730E+03  3.57159E+02  5.89662E+03
 -2.78651E+03  6.98658E+03 -6.14401E+03  3.71823E+03 -7.07096E+03 -9.02752E+02 -5.14381E+03 -4.53836E+03
 -2.57806E+03 -5.75157E+03  1.35774E+03 -5.24427E+03  3.94351E+03 -3.10265E+03  3.80974E+03  2.56665E+02
  2.26290E+03  1.87721E+03  2.24079E+02  1.51795E+03 -1.10836E+03 -1.75556E+02  4.85857E+01 -1.35190E+03
  2.00002E+03 -5.36801E+02  2.14901E+03  6.81234E+02  1.16596E+03  2.52391E+03  1.87084E+02  2.96757E+03
 -2.17975E+03  2.53726E+03 -3.60387E+03  2.20084E+02 -3.48565E+03 -2.65088E+03 -6.50115E+02 -4.69921E+03
  2.45962E+03 -3.33864E+03  4.11079E+03 -1.32286E+03  4.20336E+03  8.97633E+02  2.54563E+03  3.40931E+03
  6.28014E+02  3.62014E+03 -1.52012E+03  3.07364E+03 -2.32786E+03  1.70159E+03 -2.00717E+03  3.07473E+02
 -7.20521E+02 -5.92723E+01 -1.11844E+03  3.36695E+02 -2.25958E+03  4.03263E+02 -2.61664E+03 -9.31537E+02
 -3.17179E+03 -1.74029E+03 -9.76697E+02 -3.53149E+03  1.83008E+03 -4.23420E+03  3.02226E+03 -2.11149E+03
  3.29971E+03  2.86333E+02  1.31550E+03  2.22526E+03 -4.24987E+02  3.44014E+03 -2.51852E+03  2.24882E+03
