 $NMID ID='MM_0lb_SNR800_11hz_g55_85.RAW', FMTDAT='(8E13.5)'
 TRAMP=1., VOLUME=1. $END
  3.10090E+05  5.82579E+02  3.37730E+05  2.50127E+05  8.50389E+04  3.38673E+05 -1.32945E+05  2.51460E+05
 -1.90456E+05  8.32798E+04 -1.12019E+05 -3.23449E+04  4.68519E+02 -5.03526E+04  5.40424E+04 -7.69902E+02
  3.56624E+04  5.32140E+04 -1.65431E+04  7.56756E+04 -6.11760E+04  6.43615E+04 -8.50097E+04  3.21356E+04
 -8.18824E+04 -1.17951E+04 -5.82920E+04 -5.25713E+04 -1.50413E+04 -7.09303E+04  2.83442E+04 -4.63991E+04
  4.10882E+04  3.68493E+03  1.63971E+04  4.84382E+04 -3.45777E+04  4.78967E+04 -6.77837E+04 -4.10450E+01
 -5.47143E+04 -5.73712E+04 -7.40158E+03 -7.83050E+04  3.42990E+04 -5.67355E+04  4.93360E+04 -1.78924E+04
  4.49841E+04  1.15734E+04  3.29868E+04  2.60900E+04  1.61915E+04  3.01827E+04 -5.30641E+03  2.73879E+04
 -2.21013E+04  1.21575E+04 -1.82285E+04 -5.72885E+03  6.68428E+03 -7.64120E+03  2.33332E+04  1.34404E+04
  7.43334E+03  3.69901E+04 -3.36026E+04  3.65322E+04 -6.55428E+04  2.44169E+03 -5.83134E+04 -4.41885E+04
 -1.26057E+04 -6.52010E+04  4.08660E+04 -4.71668E+04  6.06155E+04 -2.43993E+03  3.59703E+04  3.38289E+04
 -5.69430E+03  3.80679E+04 -3.11277E+04  1.79052E+04 -3.27988E+04 -3.68287E+03 -1.85846E+04 -1.16869E+04
 -9.35830E+03 -1.45092E+04 -6.70245E+01 -1.89624E+04  8.76104E+03 -2.33514E+04  1.59442E+04 -1.24134E+04
  1.09303E+04  5.40532E+03 -1.02679E+04  1.26969E+04 -2.27410E+04 -6.16210E+03 -8.58752E+03 -3.63624E+04
  2.46171E+04 -4.60323E+04  5.10597E+04 -2.05526E+04  4.78565E+04  2.04749E+04  1.69937E+04  4.63214E+04
 -1.63895E+04  3.56257E+04 -2.68575E+04  2.55040E+03 -1.14228E+04 -2.91027E+04  2.13665E+04 -3.58261E+04
  4.40276E+04 -1.03889E+04  3.92631E+04  2.49519E+04  1.99895E+04  4.98637E+04 -8.16031E+03  5.42807E+04
 -3.40991E+04  3.68954E+04 -4.59667E+04  1.08045E+04 -4.60193E+04 -1.80834E+04 -2.51271E+04 -4.09231E+04
  7.47278E+03 -4.07456E+04  3.32926E+04 -1.65401E+04  3.14911E+04  1.11075E+04  5.07695E+03  2.05775E+04
 -1.39796E+04  9.61833E+03 -1.14603E+04 -7.51681E+03  5.72224E+03 -1.10865E+04  1.85118E+04  5.55524E+03
  1.42395E+04  2.27327E+04 -5.52735E+03  2.64842E+04 -2.29637E+04  1.30229E+04 -3.06171E+04 -3.38765E+03
 -2.42003E+04 -1.82339E+04 -1.07591E+04 -2.38196E+04  4.64799E+03 -2.37206E+04  1.87256E+04 -2.14597E+04
  3.03919E+04 -1.36217E+04  3.61511E+04  4.45318E+03  2.55755E+04  2.31978E+04  4.29094E+03  3.97435E+04
 -1.92858E+04  3.29499E+04 -3.01878E+04  1.15748E+04 -2.21415E+04 -1.00521E+04 -4.56663E+03 -1.28292E+04
  1.02098E+03 -1.58166E+03 -6.49176E+03  7.97554E+03 -1.89154E+04  4.84187E+03 -1.91316E+04 -9.08153E+03
 -1.11222E+04 -2.20853E+04  6.05756E+03 -2.62431E+04  1.77697E+04 -1.87709E+04  2.11474E+04 -1.68652E+03
  1.36110E+04  1.52238E+04 -9.64324E+02  2.22774E+04 -1.55981E+04  1.26332E+04 -2.24280E+04 -4.76245E+03
 -1.64289E+04 -2.00629E+04 -1.92442E+03 -2.65861E+04  1.19454E+04 -2.21912E+04  2.19798E+04 -1.09762E+04
  2.07021E+04 -5.08804E+01  1.51377E+04  5.29031E+03  8.08434E+03  1.36031E+03  1.15645E+04 -2.36668E+03
  2.06587E+04  2.75053E+03  2.36748E+04  1.72349E+04  1.59972E+04  3.53694E+04 -2.64291E+03  4.11804E+04
 -2.36104E+04  3.43186E+04 -3.87961E+04  1.78958E+04 -4.13408E+04 -2.97764E+03 -3.35486E+04 -2.37922E+04
 -1.36308E+04 -3.43056E+04  1.22035E+04 -3.03945E+04  2.58912E+04 -1.40254E+04  2.27635E+04  7.20619E+03
  7.48754E+03  1.74792E+04 -1.05143E+04  1.39507E+04 -1.91871E+04  2.46791E+03 -1.44534E+04 -1.16687E+04
  3.54053E+01 -1.80513E+04  9.32052E+03 -1.33132E+04  1.22224E+04 -1.17294E+03  2.86825E+03  8.25581E+03
 -8.15895E+03  3.64761E+03 -8.09200E+03 -6.78796E+03 -1.32662E+03 -1.66990E+04  1.08327E+04 -1.76017E+04
  2.07250E+04 -9.82119E+03  2.34787E+04  3.36317E+03  2.04807E+04  1.67120E+04  9.56918E+03  2.65399E+04
 -5.10029E+03  2.83023E+04 -1.83577E+04  1.74716E+04 -2.06654E+04  3.46530E+03 -1.38373E+04 -5.15584E+03
 -6.20978E+03 -6.38739E+03 -5.13966E+02  7.10955E+02 -3.04180E+03  3.32638E+03 -6.67445E+03  4.88061E+03
 -1.29274E+04 -7.50320E+02 -1.37541E+04 -1.06231E+04 -5.44904E+03 -1.78789E+04  6.03660E+03 -1.43795E+04
  1.16913E+04 -5.76155E+03  8.34302E+03  3.65480E+03 -2.78312E+02  5.54205E+03 -7.14501E+03 -6.40668E+01
 -6.43309E+03 -9.23680E+03 -7.23157E+02 -1.37906E+04  8.21995E+03 -1.49134E+04  1.79379E+04 -7.82923E+03
  2.12751E+04  2.21096E+03  1.54884E+04  1.27758E+04  3.12747E+03  1.72142E+04 -8.79644E+03  1.42139E+04
 -1.14540E+04  4.28769E+03 -6.27585E+03 -2.96885E+03  2.08414E+03 -4.23347E+03  7.81198E+03 -1.22778E+03
  6.85434E+03  6.26749E+03  1.03688E+03  1.12053E+04 -8.07465E+03  1.08230E+04 -1.37040E+04  2.81760E+03
 -9.57249E+03 -7.54805E+03  2.22246E+02 -1.21983E+04  7.96662E+03 -5.78818E+03  8.44328E+03  2.69719E+03
  1.78089E+03  8.56691E+03 -7.57401E+03  1.01581E+04 -1.17901E+04  4.67522E+03 -1.19583E+04 -4.60760E+03
 -6.92518E+03 -1.38432E+04  3.30402E+03 -1.58103E+04  1.32694E+04 -9.62235E+03  1.48176E+04  2.83304E+03
  8.84971E+03  1.17656E+04 -1.12121E+03  1.36247E+04 -1.01329E+04  7.67256E+03 -1.11651E+04 -1.42632E+03
 -9.65247E+03 -9.08719E+03 -1.73564E+03 -1.05453E+04  5.49500E+03 -8.93081E+03  6.77711E+03 -3.57142E+03
  4.34270E+03  1.52348E+03 -4.73937E+02  1.72928E+03 -5.53608E+02 -2.68907E+03  1.99693E+03 -6.06697E+03
  9.81159E+03 -3.75876E+03  1.37270E+04  1.71196E+03  1.35900E+04  9.19350E+03  8.94810E+03  1.82620E+04
 -4.14446E+03  2.07404E+04 -1.71884E+04  1.54706E+04 -2.20327E+04  2.88005E+03 -1.77181E+04 -7.54041E+03
 -8.89038E+03 -1.45718E+04 -4.88274E+02 -1.26276E+04  4.00786E+03 -6.65279E+03  4.61669E+03 -4.80209E+03
  3.34268E+03 -2.99797E+03  3.39830E+03 -3.44248E+03  5.14862E+03 -2.79257E+03  7.02171E+03 -1.24275E+03
  9.01166E+03  1.99680E+03  4.82965E+03  7.81869E+03 -1.92659E+03  9.40474E+03 -9.53245E+03  7.31098E+03
 -1.25244E+04 -1.33745E+03 -7.54000E+03 -8.75305E+03 -9.46809E+02 -1.31987E+04  7.25423E+03 -1.37373E+04
  1.39127E+04 -7.44515E+03  1.65777E+04  1.70247E+03  1.15995E+04  1.18573E+04  1.60957E+03  1.50729E+04
 -5.89198E+03  1.24036E+04 -8.65485E+03  4.20332E+03 -5.65835E+03 -1.80790E+03 -2.63732E+03 -1.60313E+03
 -1.24306E+03 -2.10950E+02 -1.80492E+03  3.14492E+03 -5.18850E+03  1.99228E+03 -8.91047E+03 -1.38358E+03
 -5.84896E+03 -8.44882E+03  8.68756E+01 -1.21250E+04  7.53033E+03 -1.12596E+04  1.22675E+04 -3.51831E+03
  1.22110E+04  5.79605E+03  5.58311E+03  1.08193E+04 -2.50672E+03  1.21430E+04 -8.71564E+03  7.64251E+03
 -1.11503E+04  6.26669E+02 -8.93822E+03 -7.38403E+03 -9.72494E+02 -1.01477E+04  5.13666E+03 -7.45969E+03
  7.47019E+03 -2.24721E+03  5.17843E+03  2.39986E+03  1.79472E+03  3.73831E+03  1.19629E+03  1.88244E+03
  2.77498E+03  7.66637E+02  2.89830E+03  1.31539E+03  3.18083E+03  4.18943E+03  3.15135E+03  6.41720E+03
 -2.26831E+03  9.50967E+03 -8.21351E+03  9.89831E+03 -1.20006E+04  2.55796E+03 -1.25668E+04 -4.58550E+03
 -5.92143E+03 -1.20734E+04  1.97711E+03 -1.30474E+04  7.04460E+03 -8.46673E+03  9.71298E+03 -2.39584E+03
  7.73737E+03  4.75795E+03  1.45005E+03  7.05489E+03 -3.23507E+03  4.49420E+03 -4.66396E+03 -9.12380E+02
 -2.30721E+03 -5.07717E+03  2.57408E+03 -5.22198E+03  4.73150E+03 -2.55127E+03  4.74867E+03  1.14411E+03
  2.78725E+03  2.16250E+03  1.12542E+03  2.53261E+03 -4.37016E+02  1.87988E+03  1.32875E+03 -4.74251E+02
  1.68774E+03 -3.97472E+02  4.93161E+03  1.79764E+03  2.84072E+03  6.57905E+03 -1.24924E+03  8.25739E+03
 -5.53632E+03  5.34300E+03 -7.55392E+03  1.15669E+03 -6.42644E+03 -2.72299E+03 -2.64638E+03 -4.65883E+03
  7.09863E+02 -4.58893E+03  3.07395E+03 -2.29030E+03  2.43043E+03  2.61554E+03 -1.36367E+03  4.32442E+03
 -5.00298E+03  2.47486E+03 -5.68273E+03 -2.83314E+03 -2.98729E+03 -6.34153E+03  6.55866E+02 -6.52284E+03
  3.49898E+03 -3.65125E+03  4.65265E+03 -6.62034E+02  4.06013E+03  1.61778E+03  3.72821E+02  3.78289E+03
 -2.30587E+03  1.29054E+03 -3.05368E+03 -2.04620E+03  1.22251E+03 -4.86301E+03  5.61225E+03 -3.79250E+03
  6.69968E+03  8.15533E+02  7.46923E+03  4.81471E+03  2.54893E+03  7.72802E+03 -2.43865E+03  7.03581E+03
 -6.07623E+03  2.87801E+03 -6.08974E+03 -8.25350E+02 -3.45567E+03 -4.70655E+03  1.02533E+03 -4.30816E+03
  4.67600E+03 -1.83548E+03  4.04184E+03  2.19385E+03  1.37903E+03  4.09172E+03 -7.77335E+02  3.80794E+03
 -1.81049E+03  2.39556E+03 -2.12095E+03  5.99777E+02 -9.23754E+02  8.31253E+02 -1.38478E+03  1.16359E+03
 -1.99222E+03  3.03456E+03 -5.08194E+03  2.69321E+03 -7.04380E+03  1.65906E+01 -8.25355E+03 -5.07894E+03
 -4.34232E+03 -9.51903E+03  1.86172E+03 -1.17513E+04  6.90217E+03 -8.83282E+03  1.06639E+04 -3.19217E+03
  1.00142E+04  2.06580E+03  6.36192E+03  6.88687E+03  4.60738E+02  7.54874E+03 -3.08782E+03  5.76997E+03
 -4.12452E+03  2.02541E+03 -2.70487E+03 -5.11132E+02 -1.12900E+03 -6.64960E+02 -1.20064E+03 -3.73537E+02
 -1.39303E+03 -1.19405E+02 -1.52361E+03 -1.13658E+02 -5.95960E+02 -1.94684E+03 -6.18892E+01 -2.70818E+03
  3.46617E+03 -2.63099E+03  4.51186E+03  1.82622E+02  5.43311E+03  3.84129E+03  1.36025E+03  7.63735E+03
 -3.90393E+03  9.00377E+03 -8.13438E+03  5.34516E+03 -9.09477E+03 -9.06328E+02 -6.70731E+03 -5.29215E+03
 -3.17743E+03 -7.36132E+03  1.93906E+03 -7.47578E+03  4.45438E+03 -3.99550E+03  4.68102E+03  1.58006E+02
  3.15471E+03  1.99977E+03 -3.32812E+02  2.32865E+03 -1.50845E+03  1.22161E+02  4.43757E+01 -1.42743E+03
  2.34820E+03 -1.32017E+03  2.94130E+03  9.34978E+02  1.54526E+03  3.20199E+03  2.67346E+02  3.74545E+03
 -3.03032E+03  3.62128E+03 -4.87702E+03  7.20857E+01 -4.25967E+03 -3.45045E+03 -1.06946E+03 -6.44117E+03
  3.59226E+03 -5.03958E+03  5.42728E+03 -1.28382E+03  5.58200E+03  9.03709E+02  3.24596E+03  4.34016E+03
  1.02719E+03  4.82766E+03 -1.84960E+03  3.89273E+03 -3.44943E+03  2.69564E+03 -2.46903E+03  3.99737E+02
 -1.11943E+03 -3.38003E+02 -1.30492E+03  9.12933E+02 -2.18241E+03  6.82272E+02 -3.52181E+03 -9.22290E+02
 -3.66252E+03 -2.28844E+03 -1.31827E+03 -4.68102E+03  1.93763E+03 -5.26199E+03  4.19598E+03 -2.36396E+03
  4.68735E+03  5.34178E+02  2.20797E+03  3.04825E+03 -3.97938E+02  4.87959E+03 -3.22865E+03  3.16932E+03
