 $NMID ID='MM_0lb_SNR800_16hz_g40_96.RAW', FMTDAT='(8E13.5)'
 TRAMP=1., VOLUME=1. $END
  3.10005E+05  5.23106E+02  3.37548E+05  2.50523E+05  8.44615E+04  3.37626E+05 -1.32428E+05  2.50395E+05
 -1.89911E+05  8.27462E+04 -1.11197E+05 -3.25766E+04  1.65020E+03 -5.05058E+04  5.39721E+04  8.54685E+01
  3.49601E+04  5.31168E+04 -1.68507E+04  7.51669E+04 -6.05833E+04  6.29559E+04 -8.32029E+04  3.15669E+04
 -8.01619E+04 -1.13362E+04 -5.65625E+04 -5.04697E+04 -1.48682E+04 -6.85312E+04  2.69337E+04 -4.48275E+04
  3.92208E+04  3.65189E+03  1.56782E+04  4.74639E+04 -3.39563E+04  4.65466E+04 -6.58891E+04 -1.22719E+02
 -5.25076E+04 -5.64239E+04 -6.58547E+03 -7.58966E+04  3.35208E+04 -5.35373E+04  4.67892E+04 -1.67604E+04
  4.21637E+04  1.09611E+04  3.11405E+04  2.47915E+04  1.58892E+04  2.85371E+04 -4.97840E+03  2.70888E+04
 -2.19266E+04  1.27690E+04 -1.87581E+04 -4.31881E+03  4.46138E+03 -7.45238E+03  2.16569E+04  1.11226E+04
  7.33095E+03  3.38087E+04 -3.10354E+04  3.46785E+04 -6.17016E+04  2.34756E+03 -5.58382E+04 -4.17470E+04
 -1.23697E+04 -6.15598E+04  3.86155E+04 -4.39569E+04  5.60957E+04 -2.21558E+03  3.23260E+04  3.12260E+04
 -6.28474E+03  3.42461E+04 -2.88425E+04  1.42167E+04 -2.85095E+04 -5.18098E+03 -1.49918E+04 -1.04590E+04
 -7.60706E+03 -1.19912E+04 -9.49951E+02 -1.69543E+04  6.98436E+03 -2.29045E+04  1.50255E+04 -1.38922E+04
  1.21189E+04  4.37222E+03 -6.72874E+03  1.30169E+04 -1.97805E+04 -3.09183E+03 -7.93022E+03 -3.17021E+04
  2.12147E+04 -4.13362E+04  4.58660E+04 -1.92486E+04  4.29315E+04  1.88115E+04  1.47736E+04  4.24871E+04
 -1.55263E+04  3.17766E+04 -2.40569E+04  1.35095E+03 -8.77700E+03 -2.69078E+04  2.06989E+04 -3.20014E+04
  3.87289E+04 -7.92031E+03  3.29613E+04  2.29405E+04  1.64958E+04  4.36366E+04 -7.75044E+03  4.69278E+04
 -2.94782E+04  3.09594E+04 -3.88122E+04  8.89545E+03 -3.95740E+04 -1.56510E+04 -2.19336E+04 -3.54590E+04
  6.90125E+03 -3.54422E+04  3.00539E+04 -1.33738E+04  2.78697E+04  1.10130E+04  3.45840E+03  1.84111E+04
 -1.31125E+04  7.52495E+03 -9.79587E+03 -7.65917E+03  5.91382E+03 -1.01934E+04  1.71677E+04  6.65670E+03
  1.26762E+04  2.17854E+04 -6.35251E+03  2.42385E+04 -2.17328E+04  9.93235E+03 -2.60919E+04 -5.61256E+03
 -1.80864E+04 -1.66169E+04 -6.26937E+03 -1.78355E+04  3.81677E+03 -1.65629E+04  1.36917E+04 -1.56972E+04
  2.31056E+04 -1.18656E+04  2.93278E+04  1.76925E+03  2.19542E+04  1.74262E+04  4.01390E+03  3.34566E+04
 -1.65970E+04  2.86924E+04 -2.67491E+04  9.85749E+03 -2.00778E+04 -1.06596E+04 -3.98440E+03 -1.36427E+04
  2.35672E+03 -3.78756E+03 -3.41133E+03  5.81482E+03 -1.38826E+04  4.86179E+03 -1.44368E+04 -5.75341E+03
 -8.82855E+03 -1.67311E+04  4.64414E+03 -2.07857E+04  1.36192E+04 -1.47854E+04  1.61210E+04 -1.46842E+03
  9.91978E+03  1.16502E+04 -7.63994E+02  1.66135E+04 -1.10134E+04  9.33152E+03 -1.67055E+04 -3.36632E+03
 -1.21656E+04 -1.51233E+04 -1.49658E+03 -2.03713E+04  9.13077E+03 -1.63764E+04  1.73780E+04 -8.13702E+03
  1.55350E+04  5.86003E+02  1.11229E+04  4.03071E+03  5.78952E+03  4.83550E+02  8.30984E+03 -1.87985E+03
  1.51550E+04  3.03750E+03  1.62777E+04  1.35392E+04  1.04759E+04  2.65551E+04 -2.79928E+03  2.94653E+04
 -1.71715E+04  2.29095E+04 -2.72160E+04  1.12246E+04 -2.76474E+04 -2.19659E+03 -2.37000E+04 -1.61114E+04
 -1.09194E+04 -2.29492E+04  7.74806E+03 -2.09632E+04  1.84246E+04 -1.16626E+04  1.70071E+04  4.37096E+03
  6.94343E+03  1.25504E+04 -7.99107E+03  1.13303E+04 -1.44558E+04  2.81345E+03 -1.11102E+04 -8.99233E+03
 -8.55565E+01 -1.33205E+04  6.60651E+03 -9.97192E+03  8.68659E+03 -1.32715E+03  1.90850E+03  5.39905E+03
 -6.39862E+03  1.75256E+03 -4.61570E+03 -4.93913E+03  3.54314E+02 -1.14542E+04  8.27936E+03 -1.15990E+04
  1.38006E+04 -5.89522E+03  1.43041E+04  2.66258E+03  1.22239E+04  1.05819E+04  5.70599E+03  1.61948E+04
 -2.01964E+03  1.83072E+04 -1.13500E+04  1.14187E+04 -1.30131E+04  3.15698E+03 -9.57636E+03 -2.49265E+03
 -5.00014E+03 -3.88690E+03 -9.35514E+02  1.26770E+03 -2.00169E+03  2.28639E+03 -4.07809E+03  4.20986E+03
 -8.72624E+03 -5.44468E+02 -9.84135E+03 -7.92373E+03 -4.12209E+03 -1.26975E+04  4.01104E+03 -9.78542E+03
  8.22105E+03 -4.25153E+03  5.74915E+03  2.43992E+03  6.08900E+02  3.55642E+03 -3.90895E+03 -1.09249E+02
 -3.96306E+03 -6.23409E+03 -8.14731E+02 -8.59176E+03  4.72739E+03 -9.05290E+03  1.13987E+04 -4.83532E+03
  1.37908E+04  8.41005E+02  1.01394E+04  7.43362E+03  2.10214E+03  1.01901E+04 -5.85397E+03  9.43197E+03
 -7.78870E+03  3.09056E+03 -4.28833E+03 -1.13263E+03  1.31107E+03 -2.33714E+03  5.20109E+03 -1.32733E+03
  4.51300E+03  3.75807E+03  8.72907E+02  7.28658E+03 -4.94724E+03  7.15419E+03 -8.90997E+03  1.90391E+03
 -5.76181E+03 -4.35843E+03  5.55230E+02 -7.84779E+03  4.33275E+03 -4.09523E+03  4.38628E+03  1.74107E+03
  8.40798E+02  4.50525E+03 -4.63147E+03  5.56516E+03 -5.84204E+03  3.01765E+03 -5.85861E+03 -1.96024E+03
 -3.65944E+03 -7.30562E+03  1.63720E+03 -8.81440E+03  7.55409E+03 -5.73677E+03  7.93464E+03  1.32751E+03
  5.27410E+03  6.50776E+03 -4.78476E+02  8.59011E+03 -5.87030E+03  4.91267E+03 -6.27579E+03 -4.96985E+02
 -6.18838E+03 -6.20861E+03 -1.52591E+03 -6.46253E+03  3.03068E+03 -5.40911E+03  3.56963E+03 -3.16866E+03
  2.96738E+03  4.68226E+02 -2.20467E+02  1.51155E+03  4.71445E+02 -5.50364E+02  9.83980E+01 -2.87883E+03
  4.86957E+03 -1.16356E+03  6.58904E+03  1.04958E+03  7.12221E+03  4.23169E+03  6.34469E+03  8.96006E+03
 -1.86692E+03  1.07816E+04 -9.42618E+03  8.11184E+03 -1.22203E+04  1.62306E+03 -9.42381E+03 -3.64815E+03
 -5.06244E+03 -8.05889E+03 -3.83843E+02 -6.49075E+03  2.56900E+03 -2.96201E+03  2.41319E+03 -2.78336E+03
  1.99121E+03 -2.01191E+03  2.47561E+03 -2.59931E+03  3.89288E+03 -1.76318E+03  4.24298E+03  7.29528E+01
  5.57732E+03  1.56729E+03  1.71012E+03  4.26142E+03 -1.64970E+03  4.25253E+03 -5.58529E+03  3.55245E+03
 -6.37492E+03 -9.03984E+02 -3.05114E+03 -4.31827E+03  3.21579E+02 -6.39737E+03  4.22273E+03 -6.89344E+03
  6.88773E+03 -4.07392E+03  8.72548E+03  9.70896E+02  6.15335E+03  5.55452E+03  1.40431E+03  7.46318E+03
 -2.94283E+03  6.99673E+03 -4.46392E+03  2.34887E+03 -2.38593E+03 -9.34683E+02 -7.13165E+02 -1.06901E+03
 -4.70595E+02  6.35191E+02 -7.93269E+02  2.06328E+03 -2.97956E+03  1.23523E+03 -4.77923E+03 -6.55064E+02
 -2.34166E+03 -4.73057E+03  4.43137E+02 -6.15607E+03  3.54036E+03 -5.91914E+03  5.10043E+03 -1.47536E+03
  5.53970E+03  3.41749E+03  2.41624E+03  4.50154E+03 -7.73587E+02  5.77808E+03 -3.63107E+03  3.43283E+03
 -5.46572E+03  5.76367E+02 -4.32282E+03 -3.17256E+03 -3.34670E+02 -4.74111E+03  2.10419E+03 -3.68087E+03
  3.91519E+03 -1.78978E+03  2.13490E+03  7.46259E+02  8.95497E+02  2.17085E+03  4.87301E+02  4.97857E+02
  1.92387E+03  5.07176E+02  1.61303E+03  1.02086E+03  1.71796E+03  2.61620E+03  2.04378E+03  2.61342E+03
 -1.25815E+03  4.16009E+03 -3.40381E+03  5.14180E+03 -4.99327E+03  1.23253E+03 -5.91466E+03 -1.24069E+03
 -2.72080E+03 -4.91791E+03  7.77193E+02 -6.42773E+03  2.67274E+03 -3.69580E+03  4.41843E+03 -1.00634E+03
  3.28914E+03  2.37483E+03  4.03665E+02  3.13200E+03 -1.19377E+03  1.91542E+03 -1.74687E+03 -1.70168E+02
 -9.16620E+02 -2.15304E+03  1.37781E+03 -2.04244E+03  1.94530E+03 -1.49348E+03  2.24851E+03  5.22418E+02
  1.04612E+03  7.36403E+02  8.22208E+02  7.94037E+01 -3.62830E+02  1.04041E+03  1.38982E+03 -2.61867E+02
  3.01528E+02 -1.30488E+02  2.33059E+03  1.05130E+03  7.54257E+02  3.08355E+03 -3.20636E+02  4.01585E+03
 -2.49148E+03  1.85574E+03 -3.15406E+03  4.84848E+02 -3.16259E+03 -1.05534E+03 -6.13348E+02 -1.47776E+03
  3.88622E+02 -2.01502E+03  1.31644E+03 -9.26936E+02  7.81517E+02  1.36396E+03 -7.96114E+02  1.43157E+03
 -2.06447E+03  9.12184E+02 -2.11108E+03 -1.59565E+03 -1.07079E+03 -2.93494E+03  5.65972E+02 -2.50933E+03
  1.30600E+03 -1.12288E+03  1.19711E+03  2.78016E+02  1.66678E+03  2.73347E+02  1.85878E+02  1.66038E+03
 -9.25719E+02  1.90386E+02 -1.46169E+03 -5.30872E+02  9.77625E+02 -1.61599E+03  2.33806E+03 -1.76174E+03
  2.33024E+03  2.87557E+02  3.84433E+03  1.32073E+03  1.55318E+03  2.85389E+03 -8.52171E+02  2.76495E+03
 -2.43143E+03  4.06808E+02 -2.31127E+03 -3.93920E+02 -1.26954E+03 -2.19281E+03  1.84928E+02 -1.09587E+03
  1.93306E+03 -1.34017E+03  1.24850E+03  9.64772E+02  2.72788E+02  2.08360E+03 -9.09709E+01  1.66955E+03
 -5.93755E+02  1.66886E+03 -6.41492E+02  3.07741E+02 -2.62674E+02  5.32236E+02 -1.11147E+03  8.27412E+02
 -8.01168E+02  1.37096E+03 -2.70999E+03  8.66400E+02 -2.65037E+03  4.28861E+02 -3.34061E+03 -1.67496E+03
 -1.39253E+03 -3.47429E+03  8.91040E+02 -4.26631E+03  2.15407E+03 -3.42318E+03  3.87845E+03 -1.31383E+03
  3.66682E+03  5.86163E+01  1.85602E+03  2.59120E+03 -2.01775E+02  2.78947E+03 -1.13843E+03  2.10481E+03
 -1.49467E+03  9.44691E+02 -1.12643E+03 -3.90880E+02 -6.70776E+02 -4.90404E+01 -8.54751E+02  1.85731E+02
 -1.13653E+03 -7.31900E+01 -7.69650E+02 -2.26616E+01 -5.08188E+01 -7.41912E+02 -1.27616E+02 -1.68841E+03
  1.50658E+03 -9.99249E+02  1.15845E+03  1.74345E+02  1.81352E+03  1.53632E+03 -4.26384E+02  2.64209E+03
 -1.52476E+03  3.41987E+03 -2.52359E+03  2.07460E+03 -3.13979E+03 -3.77409E+02 -2.02011E+03 -2.06452E+03
 -1.26542E+03 -2.64542E+03  8.11070E+02 -2.14168E+03  1.36099E+03 -1.05618E+03  1.41002E+03  2.52934E+00
  1.28530E+03  7.96897E+02 -5.72951E+01  6.89440E+02 -5.54520E+02 -1.26666E+02 -1.91868E+02 -1.43824E+02
  8.45232E+02 -9.63373E+01  4.96648E+02  6.08243E+02  1.39975E+02  1.16791E+03  2.16617E+02  1.06972E+03
 -1.14116E+03  9.10581E+02 -1.08200E+03  3.28834E+02 -1.33335E+03 -8.91827E+02 -1.29060E+02 -1.87177E+03
  1.19635E+03 -1.16738E+03  1.36283E+03 -3.15138E+02  1.78101E+03 -4.42267E+02  7.62150E+02  1.24820E+03
  4.87308E+02  1.25169E+03 -4.87915E+02  1.27793E+03 -8.65912E+02  7.09078E+02 -7.58901E+02  7.65615E+01
 -3.16005E+02 -2.53740E+02 -6.16268E+02  2.39498E+02 -7.87979E+02  2.49100E+02 -1.35203E+03 -4.07868E+02
 -1.77619E+03  1.84480E+02 -2.06648E+02 -1.45869E+03  9.69268E+02 -2.44552E+03  1.06950E+03 -9.73996E+02
  1.13625E+03  2.37020E+02  9.97209E+01  6.88399E+02 -1.63180E+02  1.34162E+03 -8.39462E+02  1.18069E+03
