 $NMID ID='MM_0lb_SNR800_16hz_g60_37.RAW', FMTDAT='(8E13.5)'
 TRAMP=1., VOLUME=1. $END
  3.09762E+05  2.66172E+01  3.37624E+05  2.50885E+05  8.46722E+04  3.38133E+05 -1.32923E+05  2.50998E+05
 -1.90339E+05  8.32299E+04 -1.12137E+05 -3.23935E+04  7.10792E+02 -5.06604E+04  5.40292E+04 -1.67070E+02
  3.56981E+04  5.28481E+04 -1.65543E+04  7.56767E+04 -6.07924E+04  6.35486E+04 -8.44452E+04  3.19127E+04
 -8.10015E+04 -1.14393E+04 -5.71297E+04 -5.14839E+04 -1.49366E+04 -6.96384E+04  2.79684E+04 -4.56988E+04
  4.00772E+04  4.08693E+03  1.64246E+04  4.79380E+04 -3.46476E+04  4.73774E+04 -6.69001E+04 -1.78995E+02
 -5.33411E+04 -5.70193E+04 -7.13488E+03 -7.70490E+04  3.37524E+04 -5.49721E+04  4.81493E+04 -1.74877E+04
  4.34219E+04  1.14245E+04  3.22199E+04  2.58047E+04  1.58683E+04  2.94956E+04 -5.16822E+03  2.74058E+04
 -2.20656E+04  1.23195E+04 -1.89597E+04 -5.18872E+03  5.53767E+03 -7.23560E+03  2.23202E+04  1.25365E+04
  7.40262E+03  3.55050E+04 -3.21727E+04  3.58006E+04 -6.33578E+04  2.43890E+03 -5.72723E+04 -4.30044E+04
 -1.24912E+04 -6.31306E+04  3.97739E+04 -4.53330E+04  5.83110E+04 -2.08409E+03  3.42985E+04  3.25054E+04
 -5.91258E+03  3.60914E+04 -3.01157E+04  1.62041E+04 -3.05609E+04 -4.42553E+03 -1.67866E+04 -1.07833E+04
 -8.03497E+03 -1.33436E+04 -1.14793E+03 -1.82612E+04  7.60768E+03 -2.29752E+04  1.52862E+04 -1.34327E+04
  1.15441E+04  5.19555E+03 -8.29200E+03  1.29062E+04 -2.14081E+04 -4.38995E+03 -8.26460E+03 -3.35552E+04
  2.27423E+04 -4.36794E+04  4.85673E+04 -1.95234E+04  4.49334E+04  1.94153E+04  1.55108E+04  4.41510E+04
 -1.60230E+04  3.34190E+04 -2.53082E+04  1.84580E+03 -1.02030E+04 -2.77880E+04  2.09472E+04 -3.39512E+04
  4.11005E+04 -9.33797E+03  3.55076E+04  2.35700E+04  1.80677E+04  4.64611E+04 -8.16506E+03  5.01701E+04
 -3.15582E+04  3.35477E+04 -4.18674E+04  9.22336E+03 -4.24296E+04 -1.66673E+04 -2.33751E+04 -3.78988E+04
  7.54176E+03 -3.79294E+04  3.13889E+04 -1.47154E+04  2.91646E+04  1.08193E+04  4.05811E+03  1.87794E+04
 -1.33987E+04  8.30031E+03 -1.01651E+04 -7.78665E+03  5.86498E+03 -1.08136E+04  1.79263E+04  6.24757E+03
  1.35786E+04  2.18621E+04 -6.09294E+03  2.47738E+04 -2.22949E+04  1.11868E+04 -2.79040E+04 -4.76698E+03
 -2.05271E+04 -1.72294E+04 -8.29954E+03 -2.03683E+04  3.90892E+03 -1.92572E+04  1.60363E+04 -1.78542E+04
  2.56759E+04 -1.24598E+04  3.20145E+04  2.60731E+03  2.33156E+04  1.98489E+04  4.37203E+03  3.61122E+04
 -1.75680E+04  3.01472E+04 -2.77812E+04  1.03002E+04 -2.08094E+04 -1.00531E+04 -4.10699E+03 -1.35848E+04
  1.80174E+03 -2.72996E+03 -4.89507E+03  6.45415E+03 -1.61982E+04  5.38519E+03 -1.57313E+04 -6.93723E+03
 -9.75622E+03 -1.84050E+04  4.92426E+03 -2.26547E+04  1.52055E+04 -1.63008E+04  1.81612E+04 -1.56314E+03
  1.11202E+04  1.29496E+04 -9.73357E+02  1.87919E+04 -1.29194E+04  1.05590E+04 -1.86238E+04 -4.05477E+03
 -1.36627E+04 -1.67056E+04 -1.67780E+03 -2.26827E+04  1.01059E+04 -1.86003E+04  1.91600E+04 -9.31681E+03
  1.75041E+04  1.24639E+02  1.23931E+04  4.12707E+03  6.64471E+03  1.01628E+03  9.20315E+03 -1.68757E+03
  1.67460E+04  2.51623E+03  1.88360E+04  1.50073E+04  1.22328E+04  2.97704E+04 -2.83463E+03  3.33655E+04
 -1.93555E+04  2.64837E+04 -3.09580E+04  1.32370E+04 -3.22882E+04 -2.52375E+03 -2.68892E+04 -1.85903E+04
 -1.16386E+04 -2.66152E+04  9.04362E+03 -2.40859E+04  2.08077E+04 -1.24471E+04  1.87093E+04  5.00275E+03
  7.31446E+03  1.34589E+04 -8.63507E+03  1.21338E+04 -1.60233E+04  2.57974E+03 -1.18882E+04 -9.69556E+03
 -3.72915E+02 -1.47543E+04  8.03630E+03 -1.12156E+04  9.73100E+03 -1.49172E+03  2.26437E+03  6.17330E+03
 -6.86012E+03  2.49840E+03 -5.48932E+03 -5.39932E+03 -3.99481E+02 -1.26580E+04  8.90990E+03 -1.34240E+04
  1.58388E+04 -7.07784E+03  1.69880E+04  2.74762E+03  1.45384E+04  1.25111E+04  6.65828E+03  1.94771E+04
 -3.27837E+03  2.13021E+04 -1.33182E+04  1.35032E+04 -1.50381E+04  3.43245E+03 -1.09488E+04 -3.52215E+03
 -4.99548E+03 -4.49211E+03 -4.52172E+02  1.02017E+03 -2.33201E+03  2.33476E+03 -4.75133E+03  4.18157E+03
 -9.85660E+03 -6.07425E+02 -1.06543E+04 -8.75307E+03 -4.45418E+03 -1.42969E+04  4.39435E+03 -1.09942E+04
  9.14262E+03 -4.61407E+03  6.35807E+03  2.80516E+03  5.08529E+02  4.00033E+03 -4.99614E+03  7.12719E+01
 -4.76073E+03 -6.80181E+03 -7.20399E+02 -9.68950E+03  5.52900E+03 -1.03523E+04  1.27354E+04 -5.37651E+03
  1.53647E+04  1.42490E+03  1.12929E+04  8.73877E+03  2.24577E+03  1.17993E+04 -6.78522E+03  1.05600E+04
 -8.49345E+03  3.12991E+03 -4.67116E+03 -1.83475E+03  1.47451E+03 -2.80136E+03  6.04492E+03 -8.07143E+02
  5.20431E+03  4.21276E+03  1.33211E+03  8.40489E+03 -5.76151E+03  8.38692E+03 -9.99640E+03  2.11857E+03
 -6.26402E+03 -5.11629E+03  3.54780E+02 -8.83621E+03  5.25448E+03 -4.48545E+03  5.20157E+03  1.82645E+03
  9.43491E+02  5.45063E+03 -5.69005E+03  7.03587E+03 -7.25395E+03  3.19042E+03 -7.40942E+03 -2.41606E+03
 -4.45842E+03 -8.80139E+03  1.82625E+03 -1.00656E+04  8.62823E+03 -6.15512E+03  9.44960E+03  1.43074E+03
  5.98148E+03  7.81025E+03 -1.20734E+02  9.76482E+03 -6.72289E+03  5.61251E+03 -7.54362E+03 -4.72301E+02
 -7.15065E+03 -6.84160E+03 -1.35872E+03 -7.16342E+03  3.83998E+03 -6.02413E+03  4.49573E+03 -2.89809E+03
  3.57309E+03  5.15466E+02 -3.16806E+02  1.38197E+03 -1.32718E+01 -1.24777E+03  6.45421E+02 -3.54526E+03
  5.76213E+03 -1.96690E+03  8.27287E+03  8.02014E+02  8.10760E+03  5.12203E+03  6.34696E+03  1.07474E+04
 -2.25108E+03  1.25725E+04 -1.09954E+04  9.75199E+03 -1.39667E+04  1.73180E+03 -1.09096E+04 -3.85399E+03
 -5.80810E+03 -8.96205E+03 -4.50611E+02 -7.64171E+03  2.91479E+03 -3.79653E+03  2.53294E+03 -2.97816E+03
  2.01842E+03 -1.78302E+03  2.52821E+03 -3.02934E+03  4.11563E+03 -1.95955E+03  4.77280E+03  1.12049E+02
  5.90405E+03  1.48084E+03  2.20993E+03  4.91214E+03 -1.73496E+03  4.65866E+03 -6.12443E+03  4.07698E+03
 -7.09858E+03 -1.10683E+03 -3.39843E+03 -4.96302E+03  1.34343E+02 -7.47146E+03  4.39311E+03 -7.70257E+03
  7.78317E+03 -4.78339E+03  9.64046E+03  1.04974E+03  6.94902E+03  6.32580E+03  1.37712E+03  8.52932E+03
 -2.96795E+03  7.88848E+03 -4.99574E+03  2.57628E+03 -3.06415E+03 -1.11120E+03 -1.06891E+03 -6.78300E+02
 -6.39702E+02  2.02122E+02 -1.54425E+03  1.95034E+03 -3.34995E+03  1.39065E+03 -5.67455E+03 -4.47131E+02
 -3.05133E+03 -5.40708E+03  7.74689E+02 -6.80861E+03  3.76053E+03 -6.26518E+03  6.00801E+03 -1.68993E+03
  6.33535E+03  3.33912E+03  2.98955E+03  5.54692E+03 -1.05225E+03  6.71202E+03 -4.29456E+03  4.31753E+03
 -5.81838E+03  3.47021E+02 -4.83468E+03 -3.72252E+03 -2.24543E+02 -5.25260E+03  2.71086E+03 -4.13163E+03
  4.01314E+03 -1.57750E+03  2.85372E+03  7.21944E+02  7.80563E+02  2.13147E+03  1.11851E+03  8.72078E+02
  2.02337E+03  5.85934E+02  1.52527E+03  1.30421E+03  1.83091E+03  2.80793E+03  1.75617E+03  2.83177E+03
 -1.18938E+03  4.86627E+03 -3.81915E+03  5.55265E+03 -5.64210E+03  1.95046E+03 -6.27596E+03 -1.57538E+03
 -2.82341E+03 -5.93390E+03  9.35811E+02 -7.16255E+03  3.23131E+03 -3.95150E+03  4.86449E+03 -1.15304E+03
  3.65441E+03  2.51288E+03  6.99726E+02  3.48985E+03 -1.11726E+03  2.18507E+03 -2.06876E+03 -4.06346E+01
 -9.49827E+02 -2.25652E+03  1.33597E+03 -2.32826E+03  2.33704E+03 -1.31829E+03  2.06229E+03  5.20455E+02
  1.30841E+03  7.26791E+02  9.79324E+02  5.12283E+02 -4.62080E+02  8.80622E+02  1.54359E+03 -3.06365E+02
  5.93874E+02 -4.25959E+02  2.37004E+03  8.67315E+02  6.49390E+02  3.21091E+03 -4.53069E+02  4.00978E+03
 -2.77278E+03  2.18503E+03 -3.17724E+03  7.84528E+02 -3.08415E+03 -9.95807E+02 -7.64802E+02 -1.87627E+03
  2.95943E+02 -1.74921E+03  1.39485E+03 -1.28453E+03  1.12803E+03  1.79734E+03 -4.80607E+02  1.80071E+03
 -2.30628E+03  1.08518E+03 -2.48511E+03 -1.49200E+03 -1.46315E+03 -3.32972E+03  2.04017E+02 -2.77180E+03
  1.19030E+03 -9.66120E+02  1.85274E+03  3.33763E+01  1.82062E+03  1.73215E+02  2.32273E+02  1.65843E+03
 -7.82376E+02  5.27604E+02 -1.35087E+03 -7.11681E+02  7.65037E+02 -1.56074E+03  2.48767E+03 -1.64562E+03
  2.22004E+03  2.24640E+02  3.75088E+03  1.58233E+03  1.40176E+03  3.04671E+03 -9.70311E+02  3.03353E+03
 -2.49975E+03  8.80853E+02 -2.45082E+03 -3.36869E+02 -1.42800E+03 -2.02670E+03  5.39717E+02 -1.35870E+03
  2.25594E+03 -9.80875E+02  1.02424E+03  9.24296E+02  4.42478E+02  1.94630E+03  2.30091E+02  1.76305E+03
 -6.07448E+02  1.45498E+03 -5.22955E+02  3.70976E+02 -1.14307E+02  5.09742E+02 -6.33876E+02  9.42623E+02
 -9.79042E+02  1.12143E+03 -2.34364E+03  1.10477E+03 -2.83626E+03 -8.91561E+01 -3.72353E+03 -2.03950E+03
 -1.79160E+03 -3.84109E+03  7.72585E+02 -4.59639E+03  1.71461E+03 -3.52592E+03  4.45008E+03 -1.79784E+03
  3.53716E+03  9.81277E+01  2.19901E+03  2.45918E+03 -4.06903E+02  2.55533E+03 -1.33190E+03  1.90120E+03
 -1.75153E+03  1.13261E+03 -9.32511E+02 -4.24990E+02 -3.44749E+02 -2.19862E+02 -7.26015E+02 -1.59273E+02
 -1.40022E+03 -2.49557E+02 -9.34446E+02  1.39468E+02  1.31604E+02 -1.09575E+03 -5.27589E+02 -1.26112E+03
  1.73031E+03 -7.71955E+02  9.56798E+02  4.89159E+01  1.76483E+03  1.78341E+03  3.63786E+01  2.64470E+03
 -1.26285E+03  3.47794E+03 -2.62885E+03  1.92844E+03 -2.95231E+03 -2.82611E+02 -2.17615E+03 -2.02905E+03
 -1.19397E+03 -2.29750E+03  5.29118E+02 -2.25949E+03  1.44684E+03 -1.22173E+03  1.38003E+03  1.05230E+02
  7.93602E+02  6.47029E+02 -1.01726E+02  8.61200E+02 -5.87976E+02 -1.62729E+01 -2.19693E+02 -5.29926E+02
  8.26294E+02  1.05281E+02  6.87178E+02  5.56417E+02  2.76797E+02  8.36491E+02  3.89635E+02  8.80921E+02
 -1.29890E+03  1.14364E+03 -1.35712E+03  5.67008E+01 -1.23826E+03 -1.03746E+03  6.62787E+01 -1.80503E+03
  9.96155E+02 -1.31301E+03  1.05906E+03 -5.65360E+01  1.55028E+03 -1.51094E+02  9.50970E+02  1.18717E+03
  4.28572E+02  1.25530E+03 -5.21208E+02  1.05625E+03 -6.31509E+02  9.41409E+02 -6.08349E+02  8.92896E+01
 -1.37634E+02 -8.76498E+01 -5.54023E+02  1.69850E+02 -8.27363E+02  5.09112E+02 -1.41568E+03 -7.79669E+02
 -1.35331E+03 -2.80109E+02 -8.16014E+02 -1.83914E+03  8.34584E+02 -2.06515E+03  1.40398E+03 -6.13907E+02
  1.29528E+03  7.66732E+01 -2.42947E+01  4.18059E+02 -1.51138E+01  1.37729E+03 -7.39462E+02  1.12143E+03
