 $NMID ID='MM_0lb_SNR800_20hz_g55_24.RAW', FMTDAT='(8E13.5)'
 TRAMP=1., VOLUME=1. $END
  3.09597E+05  4.42558E+02  3.36981E+05  2.50448E+05  8.43595E+04  3.37300E+05 -1.32371E+05  2.50389E+05
 -1.90030E+05  8.24219E+04 -1.11245E+05 -3.28447E+04  1.25401E+03 -5.03050E+04  5.38625E+04  3.75262E+01
  3.50943E+04  5.29031E+04 -1.72087E+04  7.53685E+04 -6.02616E+04  6.27532E+04 -8.30992E+04  3.18683E+04
 -7.99068E+04 -1.12567E+04 -5.64297E+04 -5.02422E+04 -1.50124E+04 -6.85963E+04  2.69716E+04 -4.49693E+04
  3.92411E+04  3.90744E+03  1.54161E+04  4.72670E+04 -3.36804E+04  4.64351E+04 -6.57665E+04 -4.32635E+02
 -5.21944E+04 -5.59641E+04 -6.43182E+03 -7.55122E+04  3.31786E+04 -5.33785E+04  4.62245E+04 -1.65877E+04
  4.19195E+04  1.09483E+04  3.08600E+04  2.44030E+04  1.59885E+04  2.81786E+04 -4.82373E+03  2.69882E+04
 -2.16433E+04  1.27512E+04 -1.90000E+04 -4.42846E+03  4.45890E+03 -7.53762E+03  2.12990E+04  1.11063E+04
  7.44010E+03  3.35954E+04 -3.06954E+04  3.42740E+04 -6.10533E+04  1.88099E+03 -5.53732E+04 -4.12625E+04
 -1.25594E+04 -6.11964E+04  3.83882E+04 -4.36214E+04  5.57625E+04 -1.95216E+03  3.19737E+04  3.08060E+04
 -6.49514E+03  3.31379E+04 -2.86352E+04  1.33672E+04 -2.74657E+04 -5.21076E+03 -1.45573E+04 -1.01242E+04
 -7.39770E+03 -1.16664E+04 -1.27046E+03 -1.67438E+04  6.61764E+03 -2.25949E+04  1.52606E+04 -1.39934E+04
  1.23702E+04  4.26594E+03 -6.54591E+03  1.29380E+04 -1.94227E+04 -2.73812E+03 -8.20723E+03 -3.05148E+04
  2.07490E+04 -4.04266E+04  4.50173E+04 -1.83803E+04  4.19004E+04  1.82935E+04  1.42431E+04  4.18615E+04
 -1.54189E+04  3.08757E+04 -2.33943E+04  8.77339E+02 -8.48803E+03 -2.64240E+04  2.04591E+04 -3.13854E+04
  3.81026E+04 -7.45042E+03  3.13744E+04  2.28168E+04  1.54279E+04  4.24846E+04 -7.92504E+03  4.50746E+04
 -2.85342E+04  2.98358E+04 -3.76649E+04  8.17643E+03 -3.84298E+04 -1.52424E+04 -2.12753E+04 -3.43142E+04
  6.67214E+03 -3.41721E+04  2.91534E+04 -1.28528E+04  2.68713E+04  1.07857E+04  2.59626E+03  1.77927E+04
 -1.31351E+04  7.14676E+03 -9.62461E+03 -7.80569E+03  5.96772E+03 -1.01207E+04  1.71887E+04  6.53104E+03
  1.23971E+04  2.16578E+04 -6.81636E+03  2.34460E+04 -2.13076E+04  9.06321E+03 -2.51250E+04 -6.06925E+03
 -1.65962E+04 -1.64452E+04 -5.48383E+03 -1.64251E+04  3.94871E+03 -1.47493E+04  1.22688E+04 -1.42841E+04
  2.13159E+04 -1.13441E+04  2.78360E+04  8.92129E+02  2.12194E+04  1.62574E+04  3.93785E+03  3.22075E+04
 -1.60702E+04  2.75778E+04 -2.59934E+04  9.64719E+03 -1.94762E+04 -1.03332E+04 -4.07818E+03 -1.41491E+04
  2.40569E+03 -4.29334E+03 -2.70164E+03  5.20665E+03 -1.26690E+04  5.28292E+03 -1.33600E+04 -4.76195E+03
 -8.75641E+03 -1.53642E+04  4.58595E+03 -1.91555E+04  1.22580E+04 -1.37005E+04  1.46998E+04 -1.39007E+03
  9.06279E+03  1.07985E+04 -7.77773E+02  1.54931E+04 -1.01767E+04  8.90926E+03 -1.49990E+04 -3.20640E+03
 -1.14132E+04 -1.41087E+04 -1.46451E+03 -1.86495E+04  8.58473E+03 -1.50175E+04  1.60368E+04 -7.06323E+03
  1.43281E+04  7.04975E+02  1.03651E+04  3.83905E+03  5.05988E+03  3.36310E+02  7.29957E+03 -1.40136E+03
  1.34781E+04  2.47938E+03  1.42774E+04  1.25462E+04  8.96767E+03  2.42414E+04 -3.01357E+03  2.56994E+04
 -1.56729E+04  1.98867E+04 -2.37502E+04  9.60647E+03 -2.41957E+04 -1.90793E+03 -2.10232E+04 -1.38058E+04
 -9.97579E+03 -1.97548E+04  6.55808E+03 -1.84011E+04  1.61351E+04 -1.07095E+04  1.50756E+04  3.48340E+03
  6.43993E+03  1.08371E+04 -6.95707E+03  1.00879E+04 -1.33182E+04  2.77034E+03 -1.03432E+04 -7.75105E+03
 -1.18038E+02 -1.21335E+04  6.13148E+03 -9.12205E+03  7.59586E+03 -1.41767E+03  1.43529E+03  4.77859E+03
 -5.25675E+03  1.56208E+03 -3.71598E+03 -4.33133E+03  6.82653E+02 -9.73245E+03  7.54359E+03 -9.51696E+03
  1.15178E+04 -4.30561E+03  1.11633E+04  2.47409E+03  9.49130E+03  9.00779E+03  5.14069E+03  1.33025E+04
 -1.27276E+03  1.48331E+04 -9.14322E+03  9.64886E+03 -1.06274E+04  2.83740E+03 -8.08622E+03 -1.96680E+03
 -4.42482E+03 -3.02561E+03 -7.21784E+02  1.27034E+03 -2.02451E+03  1.71781E+03 -3.29893E+03  3.45992E+03
 -7.47002E+03 -6.84753E+02 -8.43195E+03 -6.64777E+03 -3.33699E+03 -1.09749E+04  3.11628E+03 -7.95186E+03
  6.82364E+03 -3.88748E+03  4.99051E+03  2.13603E+03  9.00744E+02  2.91585E+03 -2.97945E+03 -2.45855E+02
 -3.22609E+03 -4.83478E+03 -8.52011E+02 -6.70076E+03  3.87753E+03 -7.46139E+03  8.96532E+03 -3.67440E+03
  1.09836E+04  5.06542E+02  8.29247E+03  5.55425E+03  1.49621E+03  7.92605E+03 -4.85137E+03  7.66724E+03
 -6.53101E+03  2.66402E+03 -3.23355E+03 -1.19938E+03  1.26846E+03 -1.77021E+03  4.40510E+03 -1.25300E+03
  3.81089E+03  3.18756E+03  1.38835E+03  5.98701E+03 -4.08331E+03  6.10745E+03 -7.51747E+03  1.66246E+03
 -4.84732E+03 -3.53321E+03  3.79922E+02 -6.28094E+03  3.39397E+03 -3.07047E+03  3.20224E+03  6.51984E+02
  2.71257E+02  2.84635E+03 -3.77180E+03  4.34471E+03 -4.29154E+03  2.08135E+03 -4.00207E+03 -9.34821E+02
 -2.44342E+03 -5.38221E+03  1.04875E+03 -6.55046E+03  5.12225E+03 -4.21680E+03  5.63781E+03  9.69487E+02
  4.18455E+03  4.74192E+03  4.71947E+02  6.75748E+03 -4.53735E+03  3.94123E+03 -4.75874E+03 -3.46546E+02
 -5.11015E+03 -4.73263E+03 -1.30055E+03 -4.53102E+03  2.14028E+03 -4.30100E+03  2.66865E+03 -2.75214E+03
  2.78521E+03 -5.27556E+01  1.42581E+02  1.06559E+03  5.00637E+02 -1.19222E+02 -1.78523E+02 -1.26974E+03
  3.52304E+03 -5.81758E+02  4.34817E+03  5.72592E+02  5.04626E+03  2.67410E+03  5.08226E+03  6.28182E+03
 -9.45613E+02  7.44555E+03 -7.01767E+03  5.72245E+03 -8.64633E+03  8.25890E+02 -6.93384E+03 -2.18251E+03
 -3.87076E+03 -5.52179E+03 -6.36709E+02 -4.53453E+03  1.94110E+03 -1.54876E+03  1.60983E+03 -1.70150E+03
  1.27172E+03 -1.29665E+03  2.25664E+03 -2.19182E+03  2.98347E+03 -1.07348E+03  3.38218E+03  4.80126E+02
  4.01014E+03  1.00659E+03  8.17287E+02  2.82696E+03 -1.27668E+03  2.34029E+03 -3.88531E+03  2.08237E+03
 -4.31104E+03 -9.62193E+02 -1.38748E+03 -2.95511E+03  6.06845E+02 -4.18305E+03  2.77729E+03 -4.51653E+03
  4.38848E+03 -2.87492E+03  5.77986E+03  2.29885E+02  4.25658E+03  3.57025E+03  1.34086E+03  4.97700E+03
 -1.75080E+03  5.16234E+03 -2.56709E+03  1.75717E+03 -1.68513E+03 -1.20049E+03  6.72583E+01 -3.06949E+02
 -3.85020E+02  5.96844E+02 -8.65456E+02  1.87397E+03 -2.26567E+03  1.11402E+03 -3.57658E+03 -3.25058E+02
 -1.13847E+03 -3.79209E+03  9.18371E+02 -3.68825E+03  2.56294E+03 -3.66784E+03  2.59914E+03 -9.42311E+02
  3.30022E+03  1.86708E+03  1.70361E+03  2.38216E+03 -6.89971E+02  3.72069E+03 -2.00480E+03  2.13592E+03
 -3.09395E+03  5.99081E+02 -2.99277E+03 -2.16535E+03  1.28821E+02 -2.61486E+03  1.36776E+03 -2.05699E+03
  2.09203E+03 -1.12216E+03  1.35720E+03 -4.18489E+01  3.85386E+02  1.38949E+03  6.68960E+02  4.38616E+02
  1.69604E+03  5.63334E+02  1.33840E+03  1.04973E+03  7.44955E+02  1.81743E+03  1.15302E+03  1.07424E+03
 -1.17550E+03  2.39913E+03 -1.92460E+03  3.83965E+03 -1.99498E+03  9.69476E+02 -3.36961E+03  8.76650E+01
 -1.17071E+03 -2.64675E+03  5.74769E+02 -3.95745E+03  1.34009E+03 -2.21106E+03  2.26687E+03 -7.46528E+02
  2.06343E+03  1.35898E+03  3.01752E+02  1.59678E+03 -9.10260E+02  8.93086E+02 -6.44957E+02 -2.15380E+02
 -3.35220E+02 -1.14591E+03  1.28493E+03 -1.14432E+03  9.60385E+02 -8.92931E+02  1.14351E+03  2.04922E+02
  4.37499E+02 -5.12955E+01  7.10291E+02 -5.81674E+02 -3.62394E+02  7.40993E+02  1.44545E+03 -2.87716E+02
 -7.42849E+01 -5.51444E+02  1.42004E+03  4.25721E+02 -9.85768E+01  2.08133E+03 -3.34251E+01  2.36341E+03
 -1.27330E+03  8.05269E+02 -1.61686E+03  4.27307E+01 -1.68799E+03 -8.32543E+02  3.08255E+01 -5.72411E+02
  2.40339E+02 -1.08977E+03  5.93222E+02 -6.35529E+02  6.05437E+02  1.27253E+03 -5.14253E+02  6.28462E+02
 -1.13830E+03  4.75239E+02 -6.47231E+02 -1.17357E+03 -5.99355E+02 -1.64737E+03  6.52177E+01 -1.49020E+03
  4.00005E+02 -4.44129E+02  6.68462E+02 -2.76399E+01  9.33435E+02 -1.76396E+02  9.00502E+01  1.07583E+03
 -3.11792E+02 -1.53396E+02 -5.84745E+02 -1.57097E+02  3.51894E+02 -2.61844E+02  1.17994E+03 -6.80065E+02
  7.30429E+02  1.62647E+02  2.31339E+03  5.58170E+02  9.90491E+02  1.07408E+03 -8.42811E+01  1.27628E+03
 -9.32846E+02 -1.12863E+02 -1.09925E+03 -3.21113E+02 -8.66781E+02 -9.24952E+02  1.60679E+02 -2.94551E+02
  1.28324E+03 -4.42376E+02  4.15663E+02  3.79331E+02  1.50697E+02  1.20855E+03  2.62877E+02  9.40520E+02
  2.74980E+02  6.76023E+02 -3.60123E+02  4.86452E+01  1.74018E+02  4.81036E+02 -6.90128E+02  2.82076E+02
 -3.99253E+02  7.13357E+02 -1.47787E+03  3.26180E+02 -8.86053E+02  8.63171E+01 -1.82892E+03 -5.88105E+02
 -6.99277E+02 -1.62127E+03  1.40855E+02 -1.94261E+03  3.77701E+02 -1.94822E+03  1.79297E+03 -8.76695E+02
  1.82695E+03 -3.21317E+02  7.14924E+02  9.95877E+02 -6.83840E+02  9.96016E+02 -3.23371E+02  7.89127E+02
 -4.93105E+02  4.81645E+02 -2.65292E+02  5.06553E+00 -5.69034E+02  3.74909E+02 -4.80244E+02  4.21691E+01
 -1.11875E+03 -8.09384E+00 -5.46242E+02  8.75391E+01  1.99407E+02 -4.00550E+02 -5.22564E+02 -7.91470E+02
  1.12566E+03 -4.08209E+02  2.88326E+01  1.34885E+02  7.58179E+02  1.06731E+03 -6.78983E+02  8.98136E+02
 -1.06281E+03  1.81471E+03 -1.14528E+03  1.17636E+03 -8.25008E+02  3.27631E+01 -7.39910E+02 -1.02251E+03
 -8.37352E+02 -9.56516E+02  3.07405E+02 -6.48796E+02  2.68795E+02 -3.77246E+02  3.21740E+02  1.28481E+02
  3.02360E+02  2.71874E+02  1.62562E+02  3.93843E+02 -2.07535E+02  8.99775E+01 -3.64178E+02  4.01903E+01
  1.74278E+02  2.33611E+02  1.56610E+00  3.77810E+02 -1.37840E+02  2.61899E+01  4.64817E+02 -1.90932E+02
 -2.80332E+02  4.79333E+02 -1.23039E+02 -6.35280E+01 -3.49648E+02 -2.49109E+02 -1.52403E+02 -5.54655E+02
  2.45487E+02 -2.19874E+02  7.65505E+01  2.16892E+02  5.58168E+02 -7.02630E+02  2.39300E+02  2.30101E+02
  4.34623E+02  2.16648E+02 -3.18580E+02  3.03645E+02 -3.44992E+02  2.77516E+02 -1.80170E+02 -3.71255E+01
 -3.07058E+02  1.18771E+02 -2.61224E+02  8.82205E+01 -5.47555E+02  6.53966E+01 -6.23156E+02 -1.12860E+02
 -7.54025E+02  3.99535E+02 -2.63806E+02 -5.70874E+02  4.98754E+02 -1.29107E+03  4.14420E+02 -1.73904E+02
  4.02048E+02  3.74265E+01 -5.22045E+02 -2.62092E+02 -8.22109E+01  3.14897E+02 -2.12932E+02  3.89567E+02
