 $NMID ID='MM_0lb_SNR800_9hz_g55_67.RAW', FMTDAT='(8E13.5)'
 TRAMP=1., VOLUME=1. $END
  3.09735E+05  1.47363E+02  3.38101E+05  2.50961E+05  8.50200E+04  3.38492E+05 -1.32551E+05  2.52347E+05
 -1.91371E+05  8.43183E+04 -1.12887E+05 -3.21002E+04  1.28703E+02 -5.06546E+04  5.37713E+04 -5.09396E+02
  3.60924E+04  5.28875E+04 -1.62523E+04  7.59911E+04 -6.12055E+04  6.47706E+04 -8.51898E+04  3.26895E+04
 -8.32255E+04 -1.17623E+04 -5.82964E+04 -5.21913E+04 -1.50806E+04 -7.15702E+04  2.80298E+04 -4.68035E+04
  4.12069E+04  3.51804E+03  1.70167E+04  4.88020E+04 -3.44870E+04  4.84536E+04 -6.84497E+04 -6.68019E+01
 -5.53707E+04 -5.77152E+04 -7.54191E+03 -7.93846E+04  3.48582E+04 -5.73626E+04  4.99768E+04 -1.86183E+04
  4.60152E+04  1.12445E+04  3.30614E+04  2.63872E+04  1.60488E+04  3.07329E+04 -5.72803E+03  2.80303E+04
 -2.29809E+04  1.16917E+04 -1.83107E+04 -5.69583E+03  7.11870E+03 -7.41311E+03  2.35697E+04  1.44049E+04
  6.61312E+03  3.76787E+04 -3.43796E+04  3.71461E+04 -6.62957E+04  1.95993E+03 -5.88764E+04 -4.46927E+04
 -1.25955E+04 -6.59523E+04  4.21839E+04 -4.78625E+04  6.16985E+04 -2.25358E+03  3.68504E+04  3.49474E+04
 -5.33704E+03  4.00845E+04 -3.21704E+04  1.89533E+04 -3.33006E+04 -3.54240E+03 -1.93620E+04 -1.24017E+04
 -9.49376E+03 -1.55453E+04 -2.13849E+02 -1.98639E+04  8.86950E+03 -2.35500E+04  1.58313E+04 -1.23513E+04
  1.06248E+04  6.53049E+03 -1.06415E+04  1.29206E+04 -2.39006E+04 -6.51931E+03 -8.77371E+03 -3.79538E+04
  2.53542E+04 -4.70071E+04  5.24076E+04 -2.07310E+04  4.90755E+04  2.08297E+04  1.76732E+04  4.77638E+04
 -1.67970E+04  3.66680E+04 -2.77310E+04  2.89068E+03 -1.18801E+04 -3.00375E+04  2.18981E+04 -3.69312E+04
  4.52661E+04 -1.13748E+04  4.06926E+04  2.53423E+04  2.13072E+04  5.20765E+04 -8.52921E+03  5.62992E+04
 -3.57140E+04  3.87004E+04 -4.77025E+04  1.12994E+04 -4.78094E+04 -1.88373E+04 -2.60031E+04 -4.25796E+04
  7.71517E+03 -4.26521E+04  3.43892E+04 -1.75580E+04  3.22122E+04  1.09138E+04  5.30782E+03  2.11003E+04
 -1.39931E+04  9.87432E+03 -1.12735E+04 -7.28502E+03  5.70331E+03 -1.14331E+04  1.89853E+04  5.59143E+03
  1.46782E+04  2.27661E+04 -5.35064E+03  2.69328E+04 -2.38131E+04  1.44786E+04 -3.19405E+04 -2.69423E+03
 -2.62151E+04 -1.82945E+04 -1.19815E+04 -2.54354E+04  4.51754E+03 -2.64358E+04  2.01373E+04 -2.28580E+04
  3.26161E+04 -1.39932E+04  3.86940E+04  5.07838E+03  2.74208E+04  2.47543E+04  4.52592E+03  4.17082E+04
 -1.97652E+04  3.39657E+04 -3.10335E+04  1.16909E+04 -2.28567E+04 -1.00254E+04 -5.00935E+03 -1.29677E+04
  2.64229E+02 -1.02346E+03 -7.86530E+03  8.17641E+03 -2.04919E+04  5.27993E+03 -2.03532E+04 -9.76478E+03
 -1.21939E+04 -2.36174E+04  6.44454E+03 -2.83429E+04  1.94136E+04 -1.96124E+04  2.28398E+04 -2.03190E+03
  1.45858E+04  1.62451E+04 -1.05364E+03  2.37809E+04 -1.72502E+04  1.37640E+04 -2.41331E+04 -5.03021E+03
 -1.74145E+04 -2.13680E+04 -2.01239E+03 -2.81794E+04  1.26303E+04 -2.36489E+04  2.37111E+04 -1.18052E+04
  2.20754E+04 -6.63394E+02  1.65637E+04  5.24552E+03  8.89549E+03  1.41597E+03  1.28567E+04 -2.06902E+03
  2.27283E+04  2.75304E+03  2.58060E+04  1.84898E+04  1.78894E+04  3.83385E+04 -2.29791E+03  4.52328E+04
 -2.56403E+04  3.75822E+04 -4.28595E+04  1.96003E+04 -4.53683E+04 -3.37006E+03 -3.72457E+04 -2.69902E+04
 -1.43139E+04 -3.82713E+04  1.33275E+04 -3.30441E+04  2.82895E+04 -1.58924E+04  2.49456E+04  8.24367E+03
  8.40156E+03  1.92609E+04 -1.16335E+04  1.59500E+04 -2.10188E+04  2.56147E+03 -1.53114E+04 -1.33359E+04
 -4.61943E+02 -1.96955E+04  1.12492E+04 -1.44165E+04  1.34038E+04 -1.42594E+03  3.69632E+03  9.11031E+03
 -9.30239E+03  4.30072E+03 -1.01875E+04 -7.08967E+03 -2.24561E+03 -1.89451E+04  1.22139E+04 -1.98638E+04
  2.32344E+04 -1.15240E+04  2.71285E+04  3.19915E+03  2.37067E+04  1.92063E+04  1.09674E+04  3.00378E+04
 -5.45442E+03  3.19239E+04 -2.09204E+04  1.98028E+04 -2.29128E+04  4.33282E+03 -1.59151E+04 -6.10315E+03
 -6.53641E+03 -7.29894E+03 -2.93410E+02  2.77832E+02 -3.08842E+03  3.81619E+03 -7.92826E+03  5.49214E+03
 -1.43987E+04 -1.02489E+03 -1.50329E+04 -1.22074E+04 -6.05657E+03 -1.99258E+04  7.04288E+03 -1.56292E+04
  1.31988E+04 -6.37064E+03  9.25337E+03  4.56435E+03 -3.28075E+02  6.14806E+03 -8.21349E+03 -2.33687E+02
 -7.68373E+03 -1.02409E+04 -1.09077E+03 -1.62210E+04  9.46069E+03 -1.71368E+04  2.05682E+04 -9.25857E+03
  2.43411E+04  2.42948E+03  1.79839E+04  1.48285E+04  3.20622E+03  1.94810E+04 -9.59875E+03  1.58001E+04
 -1.32300E+04  4.26406E+03 -6.60211E+03 -3.77420E+03  1.59968E+03 -4.42739E+03  8.65943E+03 -9.22111E+02
  7.24793E+03  7.78005E+03  1.00996E+03  1.30021E+04 -9.00234E+03  1.27469E+04 -1.59892E+04  2.93900E+03
 -1.11507E+04 -8.67173E+03 -1.24355E+02 -1.33223E+04  9.39604E+03 -7.22395E+03  9.39469E+03  3.79142E+03
  2.11643E+03  1.03387E+04 -8.38573E+03  1.24359E+04 -1.38457E+04  5.38941E+03 -1.43225E+04 -5.16809E+03
 -8.26430E+03 -1.65653E+04  4.00204E+03 -1.87067E+04  1.61551E+04 -1.10338E+04  1.75471E+04  3.37116E+03
  1.02726E+04  1.38925E+04 -1.64413E+03  1.64996E+04 -1.19176E+04  8.87651E+03 -1.34167E+04 -1.25990E+03
 -1.06446E+04 -1.07890E+04 -1.62317E+03 -1.25832E+04  6.67254E+03 -1.00523E+04  7.93924E+03 -3.35082E+03
  5.06884E+03  2.25266E+03 -1.20671E+03  1.93694E+03 -4.58268E+02 -3.70333E+03  2.67399E+03 -7.95502E+03
  1.20204E+04 -5.30613E+03  1.64251E+04  1.96306E+03  1.59331E+04  1.13997E+04  1.04113E+04  2.18725E+04
 -5.11647E+03  2.46446E+04 -2.07695E+04  1.79679E+04 -2.68430E+04  3.38007E+03 -2.15036E+04 -9.36114E+03
 -1.07890E+04 -1.76699E+04 -3.03543E+02 -1.54681E+04  5.17912E+03 -8.56100E+03  5.22323E+03 -5.30897E+03
  3.82688E+03 -2.96882E+03  4.32833E+03 -4.27867E+03  5.84397E+03 -3.70323E+03  8.29446E+03 -1.23320E+03
  1.09552E+04  2.17898E+03  6.10024E+03  9.55723E+03 -2.35736E+03  1.19965E+04 -1.17026E+04  8.96887E+03
 -1.53333E+04 -1.26323E+03 -9.27748E+03 -1.04629E+04 -1.93877E+03 -1.63270E+04  8.71400E+03 -1.64772E+04
  1.71065E+04 -9.41095E+03  2.01245E+04  3.11086E+03  1.33982E+04  1.41649E+04  2.17680E+03  1.89517E+04
 -7.75009E+03  1.47171E+04 -1.05677E+04  5.31966E+03 -7.60731E+03 -1.62793E+03 -3.38953E+03 -1.79632E+03
 -1.71272E+03 -2.52704E+00 -2.28793E+03  3.25805E+03 -6.21506E+03  2.85121E+03 -1.07511E+04 -1.39821E+03
 -7.33538E+03 -1.07807E+04 -1.85710E+02 -1.55891E+04  9.39704E+03 -1.44008E+04  1.53733E+04 -4.17780E+03
  1.51158E+04  7.55364E+03  7.23157E+03  1.40148E+04 -3.35491E+03  1.53388E+04 -1.12312E+04  9.66687E+03
 -1.44019E+04  6.18320E+02 -1.12859E+04 -9.44418E+03 -1.11342E+03 -1.28942E+04  6.62032E+03 -9.46444E+03
  9.52750E+03 -3.21217E+03  6.56130E+03  2.72444E+03  2.44870E+03  4.56747E+03  1.46566E+03  1.75951E+03
  2.63797E+03  1.37070E+03  4.26384E+03  1.83755E+03  4.11611E+03  5.40474E+03  3.77025E+03  8.32291E+03
 -3.21711E+03  1.22726E+04 -1.08729E+04  1.21040E+04 -1.58567E+04  3.45498E+03 -1.66713E+04 -6.95099E+03
 -8.17621E+03 -1.54474E+04  2.52606E+03 -1.71200E+04  9.83180E+03 -1.10201E+04  1.27741E+04 -3.22027E+03
  9.93324E+03  6.31809E+03  2.29390E+03  8.98271E+03 -4.28557E+03  5.78827E+03 -6.69634E+03 -1.15218E+03
 -3.39121E+03 -6.30458E+03  3.65690E+03 -6.99074E+03  6.92562E+03 -3.15607E+03  6.36133E+03  1.25051E+03
  4.03859E+03  3.17265E+03  1.31514E+03  2.73916E+03 -5.17608E+02  1.94066E+03  1.59174E+03 -8.21977E+02
  2.71734E+03 -7.30332E+02  6.25100E+03  2.75837E+03  4.02281E+03  8.33208E+03 -1.44760E+03  1.10128E+04
 -7.41959E+03  7.19031E+03 -9.76718E+03  1.92521E+03 -9.24217E+03 -3.63124E+03 -3.61099E+03 -6.16610E+03
  1.29544E+03 -6.42166E+03  4.19546E+03 -2.75408E+03  4.03441E+03  2.74461E+03 -1.72462E+03  5.63755E+03
 -6.39390E+03  3.07335E+03 -7.71584E+03 -3.85132E+03 -4.64422E+03 -8.76504E+03  1.38844E+03 -8.83441E+03
  5.56681E+03 -5.35870E+03  6.65905E+03 -1.36197E+02  5.29914E+03  1.90979E+03  6.20272E+02  4.65645E+03
 -2.95337E+03  1.35375E+03 -3.77015E+03 -3.13369E+03  1.48247E+03 -6.86492E+03  7.78791E+03 -4.85903E+03
  1.01621E+04  9.76450E+02  9.75476E+03  6.71353E+03  2.99298E+03  1.02071E+04 -3.70026E+03  9.76352E+03
 -8.45063E+03  4.18947E+03 -8.76144E+03 -1.51656E+03 -4.75628E+03 -6.53333E+03  1.53884E+03 -6.23924E+03
  6.63906E+03 -3.00306E+03  5.47720E+03  2.44203E+03  1.95437E+03  5.95989E+03 -8.91076E+02  5.01881E+03
 -2.94945E+03  3.55376E+03 -2.75791E+03  1.32833E+03 -1.19153E+03  9.12869E+02 -1.99550E+03  2.19050E+03
 -3.14626E+03  3.75638E+03 -6.98248E+03  3.57098E+03 -1.08427E+04  1.70372E+02 -1.16065E+04 -6.72403E+03
 -6.71764E+03 -1.35754E+04  2.59375E+03 -1.63818E+04  1.01445E+04 -1.25143E+04  1.51962E+04 -4.94320E+03
  1.41914E+04  2.99736E+03  8.91343E+03  9.77684E+03  1.07938E+03  1.10529E+04 -4.42796E+03  8.18122E+03
 -6.09308E+03  2.57140E+03 -3.67073E+03 -1.64687E+03 -1.38315E+03 -1.37243E+03 -8.59899E+02 -2.00337E+02
 -1.99199E+03 -1.49768E+02 -1.97498E+03 -6.61813E+02 -8.27887E+02 -2.94641E+03  1.60739E+02 -4.34232E+03
  4.44412E+03 -3.61772E+03  6.77412E+03 -1.70675E+01  7.58756E+03  5.66128E+03  2.18253E+03  1.12694E+04
 -5.13424E+03  1.24761E+04 -1.15608E+04  7.60193E+03 -1.34906E+04 -9.67606E+02 -1.00782E+04 -8.01124E+03
 -4.21276E+03 -1.12407E+04  2.83724E+03 -1.04045E+04  7.46208E+03 -5.81382E+03  7.29377E+03  5.36591E+02
  3.42616E+03  3.70858E+03 -2.14721E+02  2.85995E+03 -2.21120E+03 -5.14321E+01  3.56902E+02 -2.28354E+03
  3.34481E+03 -1.11209E+03  4.53638E+03  1.34323E+03  3.09878E+03  4.23171E+03 -1.75798E+01  5.99620E+03
 -4.65984E+03  4.94847E+03 -7.24071E+03  7.02258E+02 -6.55687E+03 -5.25775E+03 -8.93366E+02 -9.33148E+03
  5.14379E+03 -8.19027E+03  8.65476E+03 -2.32498E+03  8.44224E+03  2.26721E+03  5.06434E+03  6.78340E+03
  9.14323E+02  6.94049E+03 -2.63145E+03  5.94374E+03 -4.89857E+03  3.41377E+03 -3.73782E+03  1.42530E+02
 -1.86846E+03 -5.67062E+02 -1.71896E+03  9.39969E+02 -3.94379E+03  1.15121E+03 -5.37944E+03 -1.51207E+03
 -5.69827E+03 -3.76593E+03 -1.90980E+03 -7.25477E+03  3.50817E+03 -7.75956E+03  6.30572E+03 -3.82403E+03
  7.34128E+03  9.13933E+02  3.72548E+03  5.26973E+03 -4.82814E+02  7.32630E+03 -5.42582E+03  4.86247E+03
