 $NMID ID='MM_0lb_SNR800_8hz_g40_47.RAW', FMTDAT='(8E13.5)'
 TRAMP=1., VOLUME=1. $END
  3.09777E+05  3.72112E+02  3.37853E+05  2.50748E+05  8.48989E+04  3.38305E+05 -1.32919E+05  2.51935E+05
 -1.91139E+05  8.38587E+04 -1.12873E+05 -3.25243E+04  4.87532E+02 -5.07169E+04  5.38724E+04 -6.63585E+02
  3.54438E+04  5.29442E+04 -1.69919E+04  7.61005E+04 -6.14453E+04  6.43712E+04 -8.57133E+04  3.20491E+04
 -8.22365E+04 -1.16158E+04 -5.83667E+04 -5.23052E+04 -1.50351E+04 -7.11367E+04  2.83567E+04 -4.66857E+04
  4.11278E+04  4.02656E+03  1.64652E+04  4.83525E+04 -3.48904E+04  4.83801E+04 -6.86273E+04  3.20190E+02
 -5.47269E+04 -5.77206E+04 -7.20556E+03 -7.87862E+04  3.47581E+04 -5.67266E+04  4.95983E+04 -1.80072E+04
  4.53759E+04  1.12016E+04  3.32431E+04  2.68359E+04  1.59461E+04  3.04696E+04 -5.97922E+03  2.78125E+04
 -2.24472E+04  1.16777E+04 -1.83484E+04 -5.65628E+03  6.71354E+03 -7.07064E+03  2.32391E+04  1.30537E+04
  7.17955E+03  3.77158E+04 -3.41514E+04  3.74239E+04 -6.57321E+04  2.49227E+03 -5.89456E+04 -4.41855E+04
 -1.31497E+04 -6.60153E+04  4.17857E+04 -4.75817E+04  6.13865E+04 -2.90614E+03  3.72330E+04  3.45968E+04
 -5.67053E+03  3.96701E+04 -3.20557E+04  1.85743E+04 -3.37050E+04 -3.33117E+03 -1.96791E+04 -1.19761E+04
 -9.43386E+03 -1.47906E+04 -7.85742E+02 -2.01361E+04  8.49480E+03 -2.32698E+04  1.56301E+04 -1.27113E+04
  1.05196E+04  6.30698E+03 -1.04972E+04  1.25373E+04 -2.33710E+04 -6.60099E+03 -8.39222E+03 -3.79201E+04
  2.51333E+04 -4.67796E+04  5.23067E+04 -2.09336E+04  4.86912E+04  2.07674E+04  1.73578E+04  4.67776E+04
 -1.65495E+04  3.60889E+04 -2.76451E+04  2.51615E+03 -1.13516E+04 -2.93717E+04  2.17347E+04 -3.68646E+04
  4.50059E+04 -1.09773E+04  4.03770E+04  2.49344E+04  2.13968E+04  5.12737E+04 -8.72510E+03  5.62627E+04
 -3.53647E+04  3.83792E+04 -4.77994E+04  1.09010E+04 -4.78431E+04 -1.83928E+04 -2.58355E+04 -4.20214E+04
  8.07256E+03 -4.22298E+04  3.39276E+04 -1.69872E+04  3.21617E+04  1.12665E+04  5.28396E+03  2.10518E+04
 -1.40137E+04  9.95600E+03 -1.12315E+04 -7.60869E+03  5.42569E+03 -1.08997E+04  1.88552E+04  5.44792E+03
  1.49277E+04  2.28105E+04 -4.89650E+03  2.68825E+04 -2.36057E+04  1.45270E+04 -3.15775E+04 -2.69012E+03
 -2.54953E+04 -1.88870E+04 -1.19971E+04 -2.55115E+04  4.43406E+03 -2.61364E+04  2.00426E+04 -2.34840E+04
  3.26420E+04 -1.42376E+04  3.83784E+04  4.96336E+03  2.72237E+04  2.46438E+04  4.49848E+03  4.15777E+04
 -1.98510E+04  3.40369E+04 -3.08821E+04  1.21631E+04 -2.24698E+04 -9.96622E+03 -5.09511E+03 -1.30471E+04
  9.04426E+02 -1.20394E+03 -7.47902E+03  8.25005E+03 -2.07397E+04  5.20308E+03 -1.99958E+04 -9.67519E+03
 -1.16796E+04 -2.35703E+04  6.12151E+03 -2.77705E+04  1.88055E+04 -1.98207E+04  2.26535E+04 -1.75637E+03
  1.43715E+04  1.62428E+04 -1.78718E+03  2.30936E+04 -1.67216E+04  1.35605E+04 -2.42432E+04 -5.21324E+03
 -1.73582E+04 -2.10800E+04 -2.26136E+03 -2.84268E+04  1.32302E+04 -2.35832E+04  2.30275E+04 -1.20771E+04
  2.20601E+04 -4.91876E+02  1.57150E+04  5.29557E+03  8.89479E+03  1.03565E+03  1.24740E+04 -2.08962E+03
  2.23824E+04  2.76174E+03  2.57319E+04  1.84039E+04  1.75593E+04  3.82209E+04 -2.65415E+03  4.47557E+04
 -2.58834E+04  3.72379E+04 -4.22405E+04  1.91769E+04 -4.49848E+04 -3.04385E+03 -3.69813E+04 -2.62950E+04
 -1.44596E+04 -3.77051E+04  1.33941E+04 -3.30227E+04  2.84679E+04 -1.51704E+04  2.47454E+04  7.96299E+03
  7.80431E+03  1.89287E+04 -1.16154E+04  1.53877E+04 -2.01872E+04  2.27652E+03 -1.56842E+04 -1.30567E+04
 -5.91893E+02 -1.96156E+04  1.07201E+04 -1.47891E+04  1.35388E+04 -1.19083E+03  3.70860E+03  8.56454E+03
 -9.08849E+03  3.96987E+03 -9.70885E+03 -7.10796E+03 -1.73438E+03 -1.87793E+04  1.21200E+04 -2.00339E+04
  2.34540E+04 -1.11780E+04  2.65927E+04  3.15250E+03  2.34755E+04  1.89811E+04  1.08025E+04  2.99460E+04
 -5.50853E+03  3.21120E+04 -2.05943E+04  2.00348E+04 -2.30929E+04  3.77029E+03 -1.50905E+04 -6.64550E+03
 -6.67849E+03 -7.51918E+03 -5.40711E+02  5.02427E+02 -2.81667E+03  3.61997E+03 -7.46556E+03  5.62844E+03
 -1.44888E+04 -1.41930E+03 -1.52438E+04 -1.24218E+04 -6.17780E+03 -1.97481E+04  6.73897E+03 -1.61859E+04
  1.31968E+04 -6.75289E+03  8.84458E+03  4.53187E+03 -4.25810E+02  6.34049E+03 -8.34001E+03 -1.91268E+02
 -7.71305E+03 -1.05473E+04 -9.30178E+02 -1.54886E+04  9.35311E+03 -1.70447E+04  2.08520E+04 -9.29338E+03
  2.39321E+04  2.67842E+03  1.75328E+04  1.49709E+04  3.21772E+03  1.90999E+04 -1.00300E+04  1.56766E+04
 -1.28536E+04  4.84251E+03 -6.87536E+03 -3.45952E+03  2.60279E+03 -4.47910E+03  8.66547E+03 -7.20184E+02
  7.34304E+03  6.70776E+03  1.27627E+03  1.28800E+04 -9.36499E+03  1.26609E+04 -1.57749E+04  2.89679E+03
 -1.04824E+04 -8.22382E+03  4.89558E+01 -1.37441E+04  9.40411E+03 -7.06787E+03  9.56265E+03  3.72139E+03
  1.89294E+03  1.04764E+04 -8.46817E+03  1.22609E+04 -1.41379E+04  5.47011E+03 -1.44582E+04 -5.21912E+03
 -8.71885E+03 -1.66070E+04  4.18529E+03 -1.85702E+04  1.61614E+04 -1.09618E+04  1.73333E+04  3.31116E+03
  1.06428E+04  1.37695E+04 -1.29439E+03  1.63466E+04 -1.19806E+04  8.85111E+03 -1.32752E+04 -1.63922E+03
 -1.14229E+04 -1.08816E+04 -2.18698E+03 -1.20875E+04  6.48670E+03 -1.00007E+04  7.93082E+03 -3.96714E+03
  4.71842E+03  1.76816E+03 -1.61281E+03  2.03960E+03 -6.96109E+02 -4.06533E+03  2.51217E+03 -7.67414E+03
  1.20845E+04 -5.05248E+03  1.69126E+04  1.94588E+03  1.61567E+04  1.14454E+04  1.08861E+04  2.18515E+04
 -5.49935E+03  2.52646E+04 -2.06690E+04  1.82778E+04 -2.67720E+04  3.61896E+03 -2.13164E+04 -9.34126E+03
 -1.06697E+04 -1.75322E+04 -4.54376E+02 -1.52670E+04  5.59036E+03 -8.83228E+03  5.81257E+03 -5.59064E+03
  3.93508E+03 -2.83085E+03  4.27509E+03 -4.20361E+03  5.95083E+03 -3.94352E+03  8.46486E+03 -1.87353E+03
  1.15753E+04  2.34570E+03  5.61658E+03  9.59555E+03 -2.39789E+03  1.22304E+04 -1.18560E+04  9.01094E+03
 -1.52485E+04 -9.39927E+02 -1.00502E+04 -1.11616E+04 -1.25856E+03 -1.68205E+04  9.35691E+03 -1.64961E+04
  1.71662E+04 -8.88646E+03  2.06922E+04  3.10294E+03  1.39979E+04  1.44163E+04  2.27232E+03  1.86382E+04
 -7.67615E+03  1.47218E+04 -1.07955E+04  5.21850E+03 -7.51724E+03 -1.95664E+03 -2.98020E+03 -2.72652E+03
 -1.43603E+03 -1.67822E+02 -2.51009E+03  3.36907E+03 -6.58539E+03  3.09705E+03 -1.06213E+04 -1.69854E+03
 -7.49677E+03 -1.04516E+04 -2.74525E+02 -1.58030E+04  9.71525E+03 -1.42787E+04  1.52537E+04 -4.75019E+03
  1.53407E+04  7.62947E+03  7.05386E+03  1.39091E+04 -2.89716E+03  1.54602E+04 -1.17030E+04  9.81003E+03
 -1.49094E+04  3.03799E+02 -1.17286E+04 -9.69305E+03 -1.39230E+03 -1.31127E+04  6.95660E+03 -9.81244E+03
  1.00007E+04 -3.10516E+03  6.78873E+03  2.63025E+03  2.83085E+03  4.64878E+03  1.40106E+03  2.31735E+03
  2.89287E+03  9.48287E+02  3.86217E+03  1.74455E+03  4.81900E+03  5.30697E+03  4.34935E+03  8.42350E+03
 -2.91172E+03  1.30912E+04 -1.11678E+04  1.26100E+04 -1.63433E+04  3.36862E+03 -1.62967E+04 -6.99256E+03
 -8.28892E+03 -1.61038E+04  1.96687E+03 -1.76731E+04  9.60898E+03 -1.13518E+04  1.33396E+04 -2.48606E+03
  1.00420E+04  5.95535E+03  2.33606E+03  9.17109E+03 -4.56917E+03  5.50690E+03 -6.70515E+03 -1.44656E+03
 -2.84926E+03 -6.93664E+03  4.08995E+03 -7.67149E+03  7.00755E+03 -3.33265E+03  6.69894E+03  1.76974E+03
  3.68730E+03  3.41865E+03  1.17046E+03  2.48566E+03 -1.12147E+03  2.46165E+03  1.75581E+03 -7.85403E+02
  2.91642E+03 -8.07559E+02  6.47408E+03  2.69207E+03  3.83785E+03  8.47448E+03 -1.11467E+03  1.14930E+04
 -7.78445E+03  7.81372E+03 -1.06635E+04  2.45417E+03 -9.39876E+03 -3.56519E+03 -3.94659E+03 -6.54667E+03
  1.46868E+03 -6.22515E+03  4.23767E+03 -2.85865E+03  3.67954E+03  3.08638E+03 -1.72543E+03  5.40281E+03
 -6.60158E+03  3.06859E+03 -7.77325E+03 -3.90022E+03 -4.35663E+03 -8.34570E+03  1.17837E+03 -9.49279E+03
  5.43268E+03 -5.59389E+03  6.91052E+03 -9.06076E+02  5.40351E+03  2.58754E+03  5.98701E+02  4.76573E+03
 -3.35550E+03  1.47782E+03 -3.89721E+03 -3.61492E+03  1.04396E+03 -7.14612E+03  8.10920E+03 -5.64171E+03
  1.04782E+04  6.38313E+02  1.02807E+04  7.21394E+03  3.24236E+03  1.15185E+04 -4.08061E+03  1.02403E+04
 -8.38562E+03  5.35266E+03 -9.19490E+03 -1.84602E+03 -5.20434E+03 -7.17112E+03  2.25047E+03 -6.92702E+03
  7.05142E+03 -3.24084E+03  5.62264E+03  3.08987E+03  1.85572E+03  6.35711E+03 -8.26141E+02  5.06672E+03
 -2.56864E+03  3.73191E+03 -2.84389E+03  8.26344E+02 -1.45573E+03  9.98266E+02 -1.55727E+03  2.41862E+03
 -2.52086E+03  3.88552E+03 -7.64956E+03  3.76488E+03 -1.09788E+04 -7.27354E+01 -1.24760E+04 -7.16870E+03
 -6.55275E+03 -1.50399E+04  2.89711E+03 -1.66873E+04  1.10949E+04 -1.33528E+04  1.61801E+04 -5.16727E+03
  1.56738E+04  3.37445E+03  9.59234E+03  1.02739E+04  1.23198E+03  1.13701E+04 -4.51856E+03  8.74168E+03
 -6.55563E+03  3.12282E+03 -3.95434E+03 -1.31387E+03 -1.55985E+03 -1.32559E+03 -6.57115E+02  5.23448E+02
 -1.89534E+03  5.60388E+02 -2.44002E+03 -7.48719E+02 -1.09380E+03 -2.63458E+03  3.97293E+02 -3.77578E+03
  5.41379E+03 -3.82614E+03  7.09508E+03 -1.38900E+02  8.45257E+03  6.14565E+03  2.90819E+03  1.17062E+04
 -5.49410E+03  1.32476E+04 -1.26549E+04  7.61921E+03 -1.43628E+04 -6.97902E+02 -1.12120E+04 -9.11153E+03
 -4.70504E+03 -1.20591E+04  3.07224E+03 -1.06839E+04  7.75549E+03 -6.39521E+03  7.76801E+03  1.16787E+02
  4.10827E+03  3.76614E+03 -6.02773E+02  3.14252E+03 -1.93805E+03  4.49356E+01 -3.23204E+02 -2.99441E+03
  3.44317E+03 -1.92727E+03  5.01541E+03  1.50786E+03  3.11123E+03  4.47983E+03 -2.08855E+02  6.14534E+03
 -5.28331E+03  5.40765E+03 -8.02976E+03  6.69646E+02 -7.31548E+03 -5.79080E+03 -1.48533E+03 -1.00802E+04
  5.40656E+03 -8.13153E+03  9.81920E+03 -2.96360E+03  8.81547E+03  2.63199E+03  5.38943E+03  7.29922E+03
  1.54677E+03  7.69308E+03 -3.29927E+03  6.56565E+03 -4.43003E+03  3.29959E+03 -4.41899E+03  4.84156E+02
 -1.80977E+03 -3.43368E+02 -2.11140E+03  1.03824E+03 -4.30785E+03  1.61361E+03 -6.21152E+03 -8.58919E+02
 -6.11765E+03 -4.01241E+03 -2.28671E+03 -8.31538E+03  3.73305E+03 -8.67397E+03  7.35680E+03 -3.97611E+03
  8.44415E+03  9.60544E+02  4.65949E+03  5.93242E+03 -4.30306E+02  7.99103E+03 -6.66031E+03  5.10419E+03
