 $NMID ID='MM_0lb_SNR800_12hz_g60_41.RAW', FMTDAT='(8E13.5)'
 TRAMP=1., VOLUME=1. $END
  3.09818E+05  2.92445E+02  3.37736E+05  2.50977E+05  8.48455E+04  3.38162E+05 -1.32643E+05  2.51826E+05
 -1.90714E+05  8.37933E+04 -1.12578E+05 -3.23939E+04  5.92628E+02 -5.07680E+04  5.32707E+04 -6.73822E+02
  3.54793E+04  5.25562E+04 -1.66388E+04  7.58734E+04 -6.09891E+04  6.42828E+04 -8.47846E+04  3.21979E+04
 -8.22478E+04 -1.15749E+04 -5.80331E+04 -5.22685E+04 -1.52806E+04 -7.08008E+04  2.78702E+04 -4.66804E+04
  4.10083E+04  3.63723E+03  1.68432E+04  4.84101E+04 -3.43865E+04  4.80933E+04 -6.77080E+04 -6.04664E+01
 -5.46118E+04 -5.76592E+04 -7.16021E+03 -7.83912E+04  3.45160E+04 -5.65359E+04  4.94311E+04 -1.80456E+04
  4.49839E+04  1.14034E+04  3.24260E+04  2.61846E+04  1.62110E+04  3.02892E+04 -5.45415E+03  2.76947E+04
 -2.20905E+04  1.21927E+04 -1.79531E+04 -5.48263E+03  6.60746E+03 -7.29917E+03  2.33004E+04  1.34667E+04
  7.15358E+03  3.72695E+04 -3.33055E+04  3.67260E+04 -6.52841E+04  2.36165E+03 -5.85513E+04 -4.37499E+04
 -1.26269E+04 -6.51403E+04  4.10360E+04 -4.71510E+04  6.05005E+04 -2.56148E+03  3.59424E+04  3.37906E+04
 -5.53625E+03  3.84406E+04 -3.15460E+04  1.78846E+04 -3.26463E+04 -3.81543E+03 -1.84836E+04 -1.16432E+04
 -9.25844E+03 -1.42610E+04 -8.73273E+02 -1.93549E+04  8.51204E+03 -2.33104E+04  1.62622E+04 -1.28199E+04
  1.10316E+04  5.87940E+03 -1.00083E+04  1.28707E+04 -2.28404E+04 -5.99545E+03 -8.64614E+03 -3.64077E+04
  2.45525E+04 -4.58606E+04  5.08436E+04 -2.03338E+04  4.76629E+04  2.01371E+04  1.68553E+04  4.61213E+04
 -1.63206E+04  3.52195E+04 -2.73111E+04  2.71436E+03 -1.14688E+04 -2.86162E+04  2.15077E+04 -3.60442E+04
  4.35781E+04 -1.05577E+04  3.90194E+04  2.47886E+04  2.04376E+04  4.95017E+04 -8.41648E+03  5.43442E+04
 -3.42177E+04  3.73480E+04 -4.60813E+04  1.03199E+04 -4.61080E+04 -1.79349E+04 -2.50312E+04 -4.06740E+04
  7.42187E+03 -4.05861E+04  3.31971E+04 -1.61941E+04  3.12202E+04  1.12335E+04  4.79920E+03  2.00471E+04
 -1.36945E+04  9.24670E+03 -1.11235E+04 -7.35324E+03  5.78142E+03 -1.09331E+04  1.86693E+04  5.66628E+03
  1.42370E+04  2.27877E+04 -5.73105E+03  2.61596E+04 -2.31372E+04  1.34508E+04 -3.05024E+04 -3.49539E+03
 -2.34185E+04 -1.81964E+04 -1.04000E+04 -2.37098E+04  4.45625E+03 -2.34722E+04  1.84927E+04 -2.12994E+04
  3.02207E+04 -1.38474E+04  3.60858E+04  4.16235E+03  2.60865E+04  2.28151E+04  4.14328E+03  3.95239E+04
 -1.91233E+04  3.26803E+04 -2.94475E+04  1.13579E+04 -2.18929E+04 -1.03739E+04 -4.46836E+03 -1.34291E+04
  1.30747E+03 -1.68610E+03 -6.67751E+03  7.90134E+03 -1.86726E+04  5.33914E+03 -1.86981E+04 -8.95306E+03
 -1.14073E+04 -2.17729E+04  5.60517E+03 -2.62952E+04  1.75682E+04 -1.83274E+04  2.13034E+04 -1.55781E+03
  1.35055E+04  1.51113E+04 -1.12288E+03  2.17070E+04 -1.53144E+04  1.23002E+04 -2.16773E+04 -4.53095E+03
 -1.62287E+04 -1.93735E+04 -1.97688E+03 -2.62193E+04  1.17409E+04 -2.15078E+04  2.17065E+04 -1.12221E+04
  2.00842E+04 -6.30385E+01  1.48552E+04  4.71693E+03  8.00476E+03  1.14194E+03  1.12566E+04 -1.80108E+03
  2.06269E+04  3.00201E+03  2.30404E+04  1.69936E+04  1.55677E+04  3.46291E+04 -2.62645E+03  4.09092E+04
 -2.30072E+04  3.32426E+04 -3.76910E+04  1.68621E+04 -4.03595E+04 -2.59224E+03 -3.29200E+04 -2.36102E+04
 -1.36034E+04 -3.37385E+04  1.19046E+04 -2.99391E+04  2.54464E+04 -1.39537E+04  2.20919E+04  7.09281E+03
  7.57002E+03  1.71485E+04 -1.06878E+04  1.45677E+04 -1.83749E+04  2.77768E+03 -1.43666E+04 -1.14490E+04
 -2.42257E+02 -1.78853E+04  9.76480E+03 -1.33640E+04  1.22702E+04 -1.03255E+03  3.13311E+03  7.85873E+03
 -8.07366E+03  3.61230E+03 -7.85130E+03 -6.52317E+03 -1.08061E+03 -1.60696E+04  1.10483E+04 -1.76746E+04
  2.01134E+04 -9.81492E+03  2.26074E+04  3.32725E+03  1.99886E+04  1.63018E+04  9.19050E+03  2.55948E+04
 -4.48457E+03  2.73994E+04 -1.78149E+04  1.71232E+04 -1.98202E+04  3.58895E+03 -1.36182E+04 -4.75526E+03
 -6.03491E+03 -6.20164E+03 -6.43322E+02  7.23638E+02 -2.85342E+03  3.05820E+03 -6.46533E+03  5.43110E+03
 -1.27086E+04 -1.01671E+03 -1.30686E+04 -1.03276E+04 -5.27140E+03 -1.73080E+04  6.01578E+03 -1.38888E+04
  1.17377E+04 -5.81118E+03  8.12794E+03  3.61196E+03  3.15702E+02  5.38146E+03 -6.84141E+03 -1.89676E+02
 -6.59394E+03 -9.03584E+03 -8.61811E+02 -1.34024E+04  7.63710E+03 -1.38390E+04  1.75529E+04 -7.15102E+03
  2.05905E+04  1.89261E+03  1.50393E+04  1.22548E+04  2.87004E+03  1.63881E+04 -8.41372E+03  1.34531E+04
 -1.11712E+04  3.86040E+03 -5.78921E+03 -2.59893E+03  2.12257E+03 -3.66203E+03  7.41271E+03 -1.03270E+03
  6.57067E+03  5.79591E+03  1.31390E+03  1.06956E+04 -8.10903E+03  1.03540E+04 -1.34714E+04  2.35385E+03
 -9.07194E+03 -7.16063E+03  1.53429E+02 -1.12271E+04  7.28303E+03 -5.64657E+03  8.16549E+03  2.97912E+03
  1.87673E+03  8.01979E+03 -6.86451E+03  9.87750E+03 -1.09510E+04  4.75283E+03 -1.13196E+04 -4.11708E+03
 -6.74104E+03 -1.31222E+04  3.57328E+03 -1.48341E+04  1.23709E+04 -9.26337E+03  1.36592E+04  2.31455E+03
  8.78855E+03  1.10461E+04 -1.34457E+03  1.37203E+04 -9.86517E+03  7.50753E+03 -1.08943E+04 -1.23318E+03
 -9.45303E+03 -8.87904E+03 -1.58863E+03 -9.96261E+03  4.96089E+03 -8.03721E+03  6.46162E+03 -3.65708E+03
  4.22858E+03  1.09540E+03 -7.49543E+02  1.74174E+03 -2.18888E+02 -2.43594E+03  1.98613E+03 -5.91519E+03
  9.29840E+03 -3.21395E+03  1.26076E+04  1.31837E+03  1.24923E+04  8.67247E+03  8.94137E+03  1.67585E+04
 -3.69996E+03  1.91733E+04 -1.64042E+04  1.42351E+04 -2.08187E+04  2.77247E+03 -1.69182E+04 -7.12816E+03
 -8.44361E+03 -1.37271E+04 -5.54918E+02 -1.18392E+04  4.30969E+03 -6.47118E+03  3.89411E+03 -4.14292E+03
  2.87967E+03 -2.55621E+03  3.76006E+03 -3.33512E+03  5.01631E+03 -2.89018E+03  6.58400E+03 -1.08681E+03
  8.32485E+03  1.99474E+03  4.36398E+03  7.40393E+03 -1.80487E+03  8.24547E+03 -9.23460E+03  6.93427E+03
 -1.20179E+04 -1.23736E+03 -6.86948E+03 -8.15270E+03 -6.53291E+02 -1.21276E+04  6.85729E+03 -1.24883E+04
  1.27714E+04 -6.88353E+03  1.52518E+04  1.64597E+03  1.04940E+04  1.05290E+04  1.65990E+03  1.34920E+04
 -5.47102E+03  1.18579E+04 -8.39410E+03  4.03654E+03 -5.58510E+03 -1.47238E+03 -2.43239E+03 -1.55038E+03
 -1.41665E+03  1.34099E+02 -1.86438E+03  2.35894E+03 -5.24564E+03  1.97867E+03 -8.32162E+03 -1.00678E+03
 -5.34141E+03 -7.98298E+03  1.41220E+02 -1.14944E+04  7.16748E+03 -1.04062E+04  1.09115E+04 -3.07311E+03
  1.09664E+04  5.47559E+03  4.64327E+03  1.03056E+04 -1.82080E+03  1.10914E+04 -7.71557E+03  6.92404E+03
 -1.04834E+04  7.89856E+02 -8.13642E+03 -6.71553E+03 -1.22577E+03 -9.21425E+03  4.70678E+03 -6.82530E+03
  7.15558E+03 -2.46867E+03  4.97721E+03  2.01223E+03  1.69206E+03  3.41905E+03  1.64394E+03  1.75261E+03
  2.23421E+03  8.17532E+02  2.64930E+03  1.56746E+03  3.30738E+03  4.34342E+03  2.76984E+03  5.91664E+03
 -2.53447E+03  8.61229E+03 -7.69688E+03  8.76466E+03 -1.11836E+04  2.60135E+03 -1.15497E+04 -4.38885E+03
 -5.31924E+03 -1.11081E+04  2.20452E+03 -1.23599E+04  6.65481E+03 -7.51847E+03  9.15572E+03 -2.28610E+03
  7.04133E+03  4.16767E+03  1.54881E+03  6.22668E+03 -3.02203E+03  3.74926E+03 -4.32255E+03 -3.49351E+02
 -1.94161E+03 -4.84792E+03  2.46950E+03 -5.04610E+03  4.30679E+03 -2.28025E+03  3.98257E+03  9.72174E+02
  2.62288E+03  2.20029E+03  1.56549E+03  1.51272E+03 -7.10714E+02  1.30034E+03  1.72530E+03 -3.41822E+02
  1.49269E+03 -7.04421E+02  4.69714E+03  1.78571E+03  1.97127E+03  5.81737E+03 -9.03018E+02  7.74771E+03
 -4.92998E+03  4.93000E+03 -6.68777E+03  1.42955E+03 -6.03701E+03 -2.62159E+03 -2.26633E+03 -3.85176E+03
  5.66619E+02 -4.12604E+03  2.63149E+03 -2.01014E+03  2.18454E+03  2.16491E+03 -1.18857E+03  3.47458E+03
 -4.14112E+03  2.15291E+03 -4.42835E+03 -2.79745E+03 -2.65772E+03 -5.75163E+03  8.63436E+02 -5.71112E+03
  3.54379E+03 -3.17280E+03  3.80666E+03 -1.20863E+02  3.53659E+03  1.26950E+03  6.08984E+02  2.94592E+03
 -2.17155E+03  5.27609E+02 -2.41926E+03 -1.88321E+03  1.20663E+03 -4.34043E+03  4.86023E+03 -3.67590E+03
  6.50661E+03  3.64468E+02  6.93452E+03  4.21400E+03  2.43500E+03  6.77973E+03 -2.19106E+03  6.36722E+03
 -5.18935E+03  2.71266E+03 -5.88561E+03 -8.79482E+02 -3.09247E+03 -4.48778E+03  9.26602E+02 -3.93120E+03
  4.28172E+03 -2.26549E+03  3.48509E+03  1.72771E+03  1.43765E+03  3.71325E+03 -8.54481E+02  3.15463E+03
 -1.82862E+03  1.91939E+03 -1.76900E+03  7.71892E+02 -2.30286E+02  8.02834E+02 -9.81004E+02  1.41360E+03
 -2.02197E+03  3.13008E+03 -4.67319E+03  1.56135E+03 -6.57692E+03  1.97966E+02 -7.14310E+03 -3.94465E+03
 -3.65832E+03 -8.81140E+03  1.55340E+03 -9.67653E+03  6.00743E+03 -7.84769E+03  9.57245E+03 -3.02704E+03
  8.73015E+03  1.35597E+03  5.34485E+03  5.91688E+03  2.58755E+02  6.38651E+03 -2.88762E+03  4.77281E+03
 -3.69490E+03  2.13709E+03 -2.29235E+03 -9.35102E+02 -6.49130E+02 -8.40826E+02 -7.81051E+02  6.03159E-01
 -1.15128E+03  7.90067E+01 -1.80810E+03 -1.83930E+02 -1.37407E+02 -1.59108E+03 -1.27609E+02 -2.63779E+03
  3.00449E+03 -2.16435E+03  3.34948E+03 -1.05769E+02  4.48649E+03  3.40386E+03  9.28827E+02  6.14945E+03
 -3.34238E+03  7.27842E+03 -6.96005E+03  4.36428E+03 -7.73707E+03 -4.73139E+02 -5.42354E+03 -4.90346E+03
 -2.48893E+03 -6.31488E+03  1.64500E+03 -5.84905E+03  3.76961E+03 -3.26426E+03  4.15403E+03  3.30426E+02
  2.64819E+03  1.74909E+03 -2.33726E+02  1.59839E+03 -1.07823E+03 -3.97096E+02 -1.36425E+02 -1.44291E+03
  2.03413E+03 -5.93406E+02  2.43968E+03  1.16938E+03  1.55345E+03  2.92398E+03 -1.11357E+02  2.69995E+03
 -2.51760E+03  2.57777E+03 -3.85446E+03  4.63351E+02 -3.59871E+03 -3.02904E+03 -3.81113E+02 -4.98883E+03
  2.89827E+03 -3.97819E+03  4.32165E+03 -1.13572E+03  4.57369E+03  1.09769E+03  2.52163E+03  3.39313E+03
  5.98532E+02  4.06298E+03 -1.84003E+03  3.07331E+03 -2.54453E+03  1.85929E+03 -2.12643E+03  3.26297E+02
 -9.58872E+02 -2.45997E+02 -1.01620E+03  4.09991E+02 -2.23440E+03  9.50138E+02 -3.00643E+03 -7.67994E+02
 -3.06020E+03 -1.52903E+03 -7.49997E+02 -3.91384E+03  1.60953E+03 -4.64257E+03  3.48848E+03 -2.10310E+03
  4.02224E+03  7.35784E+02  1.99513E+03  2.54045E+03 -1.78341E+02  3.81187E+03 -3.04662E+03  2.53320E+03
