 $NMID ID='MM_0lb_SNR800_16hz_g60_22.RAW', FMTDAT='(8E13.5)'
 TRAMP=1., VOLUME=1. $END
  3.09789E+05  6.31190E+02  3.37767E+05  2.50600E+05  8.47530E+04  3.37877E+05 -1.32842E+05  2.51345E+05
 -1.90598E+05  8.29571E+04 -1.11536E+05 -3.25291E+04  9.52038E+02 -5.03971E+04  5.38707E+04 -6.70019E+01
  3.50811E+04  5.27145E+04 -1.67089E+04  7.56502E+04 -6.09255E+04  6.36217E+04 -8.45957E+04  3.21379E+04
 -8.09873E+04 -1.13932E+04 -5.72300E+04 -5.14042E+04 -1.49205E+04 -6.96223E+04  2.73204E+04 -4.60141E+04
  4.02785E+04  3.54589E+03  1.62291E+04  4.78824E+04 -3.43728E+04  4.71674E+04 -6.70613E+04 -1.35725E+02
 -5.33477E+04 -5.65795E+04 -7.08838E+03 -7.71908E+04  3.39393E+04 -5.52372E+04  4.80598E+04 -1.72532E+04
  4.35945E+04  1.13659E+04  3.20814E+04  2.55422E+04  1.56879E+04  2.94027E+04 -5.39964E+03  2.71676E+04
 -2.22946E+04  1.26786E+04 -1.86226E+04 -5.14234E+03  5.53515E+03 -7.79232E+03  2.23492E+04  1.21337E+04
  6.94947E+03  3.52969E+04 -3.24921E+04  3.57550E+04 -6.34591E+04  2.31272E+03 -5.71402E+04 -4.28166E+04
 -1.26386E+04 -6.33711E+04  3.95548E+04 -4.52043E+04  5.80371E+04 -2.29574E+03  3.42021E+04  3.24723E+04
 -6.08189E+03  3.60033E+04 -3.02580E+04  1.60998E+04 -3.01561E+04 -4.38640E+03 -1.72125E+04 -1.10044E+04
 -8.47162E+03 -1.30393E+04 -4.12824E+02 -1.83516E+04  7.61299E+03 -2.30492E+04  1.55950E+04 -1.35699E+04
  1.13855E+04  5.21119E+03 -8.07741E+03  1.30624E+04 -2.09442E+04 -4.72486E+03 -8.38932E+03 -3.38127E+04
  2.31372E+04 -4.35850E+04  4.81624E+04 -1.99261E+04  4.51432E+04  1.94108E+04  1.58808E+04  4.41330E+04
 -1.58451E+04  3.33865E+04 -2.53558E+04  1.80274E+03 -9.65144E+03 -2.80558E+04  2.07252E+04 -3.38000E+04
  4.12042E+04 -9.21379E+03  3.53469E+04  2.40792E+04  1.81293E+04  4.63584E+04 -7.99361E+03  5.04387E+04
 -3.17497E+04  3.35377E+04 -4.20072E+04  9.68471E+03 -4.26809E+04 -1.66328E+04 -2.35322E+04 -3.76542E+04
  7.23790E+03 -3.78180E+04  3.12937E+04 -1.46678E+04  2.92541E+04  1.08649E+04  4.06694E+03  1.92737E+04
 -1.35291E+04  8.41814E+03 -1.02857E+04 -7.56978E+03  5.58593E+03 -1.05069E+04  1.81794E+04  6.40799E+03
  1.33190E+04  2.21710E+04 -6.09543E+03  2.47520E+04 -2.26125E+04  1.14798E+04 -2.78218E+04 -4.96200E+03
 -2.04970E+04 -1.72280E+04 -8.25682E+03 -2.02379E+04  4.16499E+03 -1.97520E+04  1.54021E+04 -1.78900E+04
  2.59246E+04 -1.25594E+04  3.20584E+04  2.72605E+03  2.37451E+04  1.97207E+04  4.13000E+03  3.59221E+04
 -1.79864E+04  3.03199E+04 -2.79527E+04  1.04529E+04 -2.09046E+04 -1.05129E+04 -4.40068E+03 -1.33758E+04
  1.98972E+03 -2.64296E+03 -4.78592E+03  6.55697E+03 -1.57867E+04  5.42467E+03 -1.60692E+04 -6.89400E+03
 -9.91101E+03 -1.86053E+04  5.32641E+03 -2.26504E+04  1.49349E+04 -1.62306E+04  1.76639E+04 -1.32091E+03
  1.11437E+04  1.27967E+04 -1.05778E+03  1.86880E+04 -1.30523E+04  1.05738E+04 -1.86624E+04 -4.03329E+03
 -1.39456E+04 -1.66295E+04 -2.09356E+03 -2.26311E+04  1.04518E+04 -1.83808E+04  1.91623E+04 -8.97979E+03
  1.74616E+04  2.66217E+02  1.25633E+04  4.35662E+03  6.63428E+03  8.67764E+02  9.27901E+03 -1.98328E+03
  1.69759E+04  2.65987E+03  1.89745E+04  1.47842E+04  1.21472E+04  2.95827E+04 -2.68354E+03  3.31494E+04
 -1.92637E+04  2.67277E+04 -3.10074E+04  1.31179E+04 -3.20319E+04 -2.29019E+03 -2.69347E+04 -1.85215E+04
 -1.15787E+04 -2.66028E+04  8.95892E+03 -2.40874E+04  2.07224E+04 -1.24127E+04  1.89783E+04  5.08190E+03
  7.44564E+03  1.37989E+04 -8.63413E+03  1.25655E+04 -1.58503E+04  2.77020E+03 -1.23116E+04 -1.00970E+04
 -8.34682E+01 -1.50636E+04  7.45804E+03 -1.11537E+04  9.73864E+03 -1.51454E+03  1.93034E+03  6.40041E+03
 -6.61612E+03  2.32234E+03 -5.76406E+03 -5.38026E+03 -4.72532E+02 -1.30466E+04  9.50013E+03 -1.37390E+04
  1.59949E+04 -7.02355E+03  1.69101E+04  3.17404E+03  1.48795E+04  1.26085E+04  6.73727E+03  1.90810E+04
 -2.99756E+03  2.10120E+04 -1.31450E+04  1.31676E+04 -1.52001E+04  3.37180E+03 -1.07101E+04 -3.32840E+03
 -5.49368E+03 -4.57965E+03 -7.10172E+02  1.29722E+03 -2.13644E+03  2.64331E+03 -4.90568E+03  4.23463E+03
 -9.92022E+03 -7.64001E+02 -1.08905E+04 -8.75030E+03 -4.44679E+03 -1.38960E+04  4.40168E+03 -1.11609E+04
  9.36561E+03 -4.87581E+03  6.36270E+03  2.69213E+03  1.52399E+02  4.18951E+03 -4.76821E+03 -8.71649E+01
 -4.61107E+03 -6.69156E+03 -4.59602E+02 -9.80668E+03  5.51471E+03 -1.04514E+04  1.30459E+04 -5.32551E+03
  1.55157E+04  1.00903E+03  1.16064E+04  8.78670E+03  2.20531E+03  1.18002E+04 -6.47728E+03  1.06469E+04
 -8.61063E+03  3.53617E+03 -4.57299E+03 -2.01532E+03  1.59678E+03 -2.68541E+03  5.73236E+03 -1.01789E+03
  5.35858E+03  4.16930E+03  1.10335E+03  7.95557E+03 -6.10688E+03  8.24542E+03 -1.01850E+04  1.81209E+03
 -6.53177E+03 -4.97793E+03  3.99568E+02 -8.47347E+03  4.76623E+03 -4.49364E+03  5.18975E+03  1.35353E+03
  1.09651E+03  5.39031E+03 -5.18292E+03  6.83898E+03 -7.32628E+03  3.31765E+03 -7.13130E+03 -2.09541E+03
 -4.15308E+03 -8.97592E+03  2.00703E+03 -1.03048E+04  8.48656E+03 -6.58599E+03  9.28058E+03  1.77123E+03
  6.05119E+03  7.59580E+03 -3.76388E+02  9.56869E+03 -6.92707E+03  5.35671E+03 -7.55184E+03 -4.04141E+02
 -7.36256E+03 -6.47150E+03 -1.58931E+03 -6.99221E+03  3.69894E+03 -6.11209E+03  4.27585E+03 -2.92705E+03
  3.44761E+03  6.90895E+02 -2.52793E+01  1.27082E+03 -2.09289E+01 -1.03660E+03  8.86778E+02 -3.21061E+03
  6.03294E+03 -1.73702E+03  8.34531E+03  9.29752E+02  8.32946E+03  5.34219E+03  6.54813E+03  1.07007E+04
 -1.82498E+03  1.27642E+04 -1.06121E+04  9.47043E+03 -1.38876E+04  1.80968E+03 -1.14398E+04 -4.22633E+03
 -5.89756E+03 -9.21461E+03 -4.71513E+02 -7.60125E+03  2.79541E+03 -3.68333E+03  2.53871E+03 -2.76735E+03
  1.59270E+03 -2.12816E+03  2.67381E+03 -2.67589E+03  4.05424E+03 -2.07568E+03  4.67920E+03  2.54972E+01
  5.69456E+03  1.51176E+03  2.23315E+03  4.94326E+03 -1.57047E+03  5.04384E+03 -6.09759E+03  4.00351E+03
 -7.02150E+03 -1.35407E+03 -3.65567E+03 -4.88688E+03 -8.19771E+01 -7.97511E+03  4.38531E+03 -7.85430E+03
  7.86876E+03 -4.65246E+03  9.82278E+03  9.37532E+02  6.75500E+03  6.26758E+03  1.35095E+03  8.70743E+03
 -3.13678E+03  7.41954E+03 -4.94909E+03  2.53993E+03 -3.15004E+03 -1.02055E+03 -1.11191E+03 -1.10281E+03
 -6.56193E+02  5.08812E+02 -1.21441E+03  2.04330E+03 -3.41725E+03  1.49269E+03 -5.36052E+03 -6.22102E+02
 -2.76898E+03 -5.35417E+03  6.04877E+02 -7.03136E+03  4.39008E+03 -6.47945E+03  6.24194E+03 -1.64381E+03
  6.40410E+03  3.65803E+03  2.84916E+03  5.41757E+03 -1.06591E+03  6.58655E+03 -4.58662E+03  4.19033E+03
 -6.29688E+03  4.80513E+02 -5.11419E+03 -3.83338E+03 -3.19284E+02 -5.13171E+03  2.57915E+03 -3.92431E+03
  4.10807E+03 -1.62408E+03  2.59201E+03  7.82659E+02  6.85759E+02  2.19487E+03  1.00414E+03  9.72349E+02
  2.04146E+03  7.12934E+02  1.88511E+03  1.25286E+03  1.70712E+03  2.60035E+03  1.74129E+03  2.96943E+03
 -1.59306E+03  4.58389E+03 -4.00538E+03  5.74790E+03 -5.69336E+03  1.68375E+03 -6.66429E+03 -1.36266E+03
 -2.98740E+03 -5.95436E+03  1.06936E+03 -6.74019E+03  3.15627E+03 -4.24206E+03  4.98844E+03 -1.02343E+03
  3.80849E+03  2.62408E+03  7.09221E+02  3.26697E+03 -1.27022E+03  2.25775E+03 -1.72003E+03 -2.99211E+02
 -9.89341E+02 -2.38305E+03  1.86452E+03 -2.54619E+03  2.29691E+03 -1.33529E+03  2.28371E+03  3.76975E+02
  1.46590E+03  5.49831E+02  9.87120E+02  3.09178E+02 -1.87578E+02  9.98942E+02  1.48353E+03 -3.16163E+02
  1.85192E+02 -2.67967E+02  2.46771E+03  9.33910E+02  6.87747E+02  3.40732E+03 -6.88104E+02  3.90987E+03
 -2.45283E+03  2.01761E+03 -3.50009E+03  6.78295E+02 -3.12451E+03 -1.01761E+03 -6.04706E+02 -1.80435E+03
  5.14900E+02 -2.00236E+03  1.47893E+03 -1.06850E+03  8.07550E+02  1.58743E+03 -7.62181E+02  1.97357E+03
 -2.31168E+03  1.12014E+03 -2.47699E+03 -1.90008E+03 -1.13782E+03 -2.97482E+03  2.80962E+02 -2.61270E+03
  1.50298E+03 -1.42262E+03  1.87464E+03  1.01118E+02  1.98709E+03  3.72973E+02  4.21835E+02  1.97477E+03
 -7.66470E+02  2.61444E+02 -1.36666E+03 -7.44661E+02  8.23689E+02 -1.53930E+03  2.61568E+03 -1.84020E+03
  2.48169E+03  7.83249E+01  3.75956E+03  1.52195E+03  1.26749E+03  2.78809E+03 -7.47774E+02  2.86340E+03
 -2.47834E+03  6.97625E+02 -2.41676E+03 -3.38167E+02 -1.32057E+03 -2.10534E+03  6.77210E+02 -1.15687E+03
  2.34071E+03 -1.04311E+03  1.38379E+03  9.42527E+02  5.22559E+02  1.86572E+03 -8.54118E+01  1.61950E+03
 -8.34728E+02  1.21730E+03 -8.41382E+02  5.76374E+02 -2.74799E+02  1.48461E+02 -7.97058E+02  9.06906E+02
 -9.82676E+02  1.61540E+03 -2.58933E+03  8.77219E+02 -2.67230E+03 -1.72679E+01 -3.60216E+03 -1.93363E+03
 -1.88284E+03 -3.93009E+03  5.87010E+02 -4.42369E+03  2.25718E+03 -3.88302E+03  4.32165E+03 -1.37743E+03
  3.93343E+03  3.09953E+02  1.94346E+03  2.63569E+03 -6.82681E+02  2.37881E+03 -1.22201E+03  2.06218E+03
 -1.66701E+03  8.74869E+02 -8.08833E+02 -2.60107E+02 -6.11914E+02  4.37879E+01 -5.62759E+02  1.20379E+02
 -1.26209E+03  9.82272E+01 -1.15838E+03 -2.94669E+00  2.48763E+02 -1.05609E+03  2.94461E+02 -1.31481E+03
  1.67511E+03 -9.35547E+02  1.22791E+03  3.50216E+02  1.83638E+03  1.68809E+03 -3.68082E+01  2.74497E+03
 -1.29830E+03  3.22301E+03 -3.00527E+03  2.22619E+03 -3.16775E+03 -8.25379E+01 -2.31630E+03 -2.15790E+03
 -1.47795E+03 -2.53111E+03  6.52945E+02 -2.16249E+03  1.27948E+03 -9.27438E+02  1.44451E+03  9.21502E+01
  9.13438E+02  6.33845E+02 -3.55651E+01  5.18769E+02 -4.37786E+02 -1.18445E+02  6.15646E+01 -7.06524E+02
  8.48441E+02 -2.16187E+02  5.06390E+02  6.33055E+02  2.52318E+02  9.78622E+02  3.88784E+02  1.02316E+03
 -1.36812E+03  1.09652E+03 -1.42922E+03  5.56019E+01 -1.34865E+03 -7.22869E+02 -3.91177E+01 -2.06714E+03
  8.13958E+02 -1.36790E+03  1.03792E+03 -3.86068E+02  1.74961E+03 -6.77521E+02  8.74364E+02  1.35120E+03
  4.38895E+02  1.13178E+03 -5.20314E+02  7.24272E+02 -6.24642E+02  9.74267E+02 -6.59284E+02  1.81838E+02
 -4.20030E+02  1.11972E+02 -6.17365E+02  6.67218E+01 -1.09857E+03  1.48121E+02 -1.52852E+03 -4.53030E+02
 -1.77171E+03 -2.91794E+02 -4.01027E+02 -1.23026E+03  9.32354E+02 -2.12552E+03  1.32903E+03 -8.08814E+02
  1.25919E+03  4.61360E+02  2.64517E+02  9.72748E+02  1.39332E+02  1.69684E+03 -9.24008E+02  1.12777E+03
