 $NMID ID='MM_0lb_SNR800_19hz_g40_42.RAW', FMTDAT='(8E13.5)'
 TRAMP=1., VOLUME=1. $END
  3.10010E+05  5.12142E+02  3.37085E+05  2.50306E+05  8.43633E+04  3.36969E+05 -1.32235E+05  2.49710E+05
 -1.89430E+05  8.23920E+04 -1.10562E+05 -3.32672E+04  1.68869E+03 -5.01496E+04  5.38847E+04  5.68210E+02
  3.49844E+04  5.29613E+04 -1.68853E+04  7.46973E+04 -6.02355E+04  6.24655E+04 -8.25357E+04  3.13681E+04
 -7.92839E+04 -1.10562E+04 -5.60714E+04 -4.96884E+04 -1.47865E+04 -6.77293E+04  2.64463E+04 -4.45599E+04
  3.86917E+04  4.03402E+03  1.53272E+04  4.69259E+04 -3.35771E+04  4.57106E+04 -6.50367E+04 -7.91994E+02
 -5.12114E+04 -5.54957E+04 -6.05870E+03 -7.44866E+04  3.29694E+04 -5.23315E+04  4.55040E+04 -1.59784E+04
  4.13741E+04  1.10051E+04  3.02664E+04  2.42324E+04  1.57972E+04  2.78863E+04 -4.69119E+03  2.64612E+04
 -2.15036E+04  1.29762E+04 -1.94347E+04 -4.11340E+03  3.95884E+03 -7.89152E+03  2.06921E+04  1.07339E+04
  7.52853E+03  3.25635E+04 -3.01733E+04  3.34939E+04 -6.04171E+04  2.16665E+03 -5.48164E+04 -4.03689E+04
 -1.25007E+04 -5.98165E+04  3.76801E+04 -4.25134E+04  5.48737E+04 -1.83354E+03  3.12313E+04  2.98037E+04
 -6.41916E+03  3.21958E+04 -2.77649E+04  1.25313E+04 -2.65715E+04 -5.30990E+03 -1.37494E+04 -9.71293E+03
 -7.11927E+03 -1.07320E+04 -9.90414E+02 -1.62343E+04  6.43772E+03 -2.22700E+04  1.46153E+04 -1.41042E+04
  1.25179E+04  3.98995E+03 -5.56960E+03  1.27757E+04 -1.87071E+04 -1.95044E+03 -8.02938E+03 -2.95783E+04
  2.04400E+04 -3.95230E+04  4.36756E+04 -1.81550E+04  4.10806E+04  1.79782E+04  1.37421E+04  4.07979E+04
 -1.53829E+04  3.03537E+04 -2.29293E+04  9.90885E+02 -7.53253E+03 -2.57054E+04  2.02590E+04 -3.03421E+04
  3.74700E+04 -6.57890E+03  3.01190E+04  2.22565E+04  1.46034E+04  4.13831E+04 -7.61900E+03  4.36695E+04
 -2.74540E+04  2.85180E+04 -3.58829E+04  8.11957E+03 -3.70213E+04 -1.46326E+04 -2.08128E+04 -3.33790E+04
  6.88261E+03 -3.31882E+04  2.85835E+04 -1.21327E+04  2.62235E+04  1.06804E+04  2.30709E+03  1.75847E+04
 -1.28919E+04  6.93969E+03 -9.33850E+03 -7.85277E+03  5.93342E+03 -9.82080E+03  1.69979E+04  6.45955E+03
  1.17934E+04  2.14087E+04 -6.70603E+03  2.28217E+04 -2.12487E+04  8.71936E+03 -2.40427E+04 -6.93769E+03
 -1.56594E+04 -1.60834E+04 -4.99517E+03 -1.56828E+04  3.60185E+03 -1.33508E+04  1.16040E+04 -1.34459E+04
  2.00052E+04 -1.13614E+04  2.69092E+04  7.18669E+02  2.06196E+04  1.54931E+04  4.08285E+03  3.15569E+04
 -1.56903E+04  2.67543E+04 -2.54339E+04  9.28629E+03 -1.93127E+04 -1.04360E+04 -4.02463E+03 -1.38838E+04
  2.75999E+03 -4.62881E+03 -2.37655E+03  5.06392E+03 -1.22574E+04  5.46973E+03 -1.25178E+04 -4.25121E+03
 -8.10456E+03 -1.46381E+04  4.44611E+03 -1.84706E+04  1.16760E+04 -1.33382E+04  1.37420E+04 -1.54745E+03
  8.25564E+03  9.95192E+03 -9.83840E+02  1.49218E+04 -9.71339E+03  8.24193E+03 -1.45757E+04 -3.19700E+03
 -1.11572E+04 -1.35485E+04 -1.18167E+03 -1.80361E+04  8.36571E+03 -1.46520E+04  1.52144E+04 -6.66970E+03
  1.37747E+04  7.58392E+02  9.75742E+03  3.92441E+03  4.77781E+03  4.49751E+02  7.05254E+03 -1.26839E+03
  1.33064E+04  2.65535E+03  1.36852E+04  1.21857E+04  8.36092E+03  2.34160E+04 -3.41138E+03  2.47545E+04
 -1.47836E+04  1.87711E+04 -2.25534E+04  8.77971E+03 -2.30818E+04 -1.60019E+03 -1.99877E+04 -1.31171E+04
 -9.64081E+03 -1.88968E+04  6.29516E+03 -1.77791E+04  1.55895E+04 -1.03359E+04  1.47907E+04  3.49961E+03
  6.37154E+03  1.04137E+04 -6.69151E+03  9.74181E+03 -1.28906E+04  2.47655E+03 -9.92320E+03 -7.47618E+03
 -5.32474E+01 -1.18363E+04  5.62654E+03 -8.91463E+03  7.46538E+03 -1.25210E+03  1.22221E+03  4.74621E+03
 -5.16982E+03  1.30896E+03 -3.27940E+03 -4.49727E+03  8.54029E+02 -9.50863E+03  7.65548E+03 -9.17094E+03
  1.12335E+04 -4.08437E+03  1.05780E+04  2.53802E+03  9.11307E+03  8.86627E+03  4.30939E+03  1.27993E+04
 -1.21766E+03  1.46926E+04 -8.90919E+03  9.31085E+03 -1.01935E+04  2.73183E+03 -7.62099E+03 -1.55882E+03
 -4.16647E+03 -2.97596E+03 -9.17865E+02  1.79589E+03 -1.88460E+03  1.93546E+03 -3.06403E+03  3.52740E+03
 -7.67981E+03 -5.54478E+02 -7.97700E+03 -6.84779E+03 -3.27339E+03 -1.08154E+04  3.07122E+03 -7.88251E+03
  6.53249E+03 -3.73382E+03  5.01373E+03  2.24063E+03  3.99124E+02  2.77882E+03 -3.11773E+03 -7.48109E+01
 -3.17169E+03 -4.97514E+03 -8.29659E+02 -6.66737E+03  3.48692E+03 -7.24988E+03  9.09954E+03 -3.69976E+03
  1.10624E+04  6.51639E+02  8.28594E+03  5.70755E+03  1.78791E+03  8.08336E+03 -5.00512E+03  7.75482E+03
 -6.53523E+03  2.87784E+03 -3.24467E+03 -9.19762E+02  1.23924E+03 -1.80847E+03  4.41450E+03 -8.41276E+02
  3.94464E+03  3.23168E+03  1.17349E+03  5.51152E+03 -3.89222E+03  6.04279E+03 -7.17299E+03  1.86213E+03
 -4.42844E+03 -3.43195E+03  4.73433E+02 -6.20738E+03  3.32794E+03 -3.33847E+03  3.26493E+03  4.99120E+02
  2.66754E+02  2.88511E+03 -3.96746E+03  4.23977E+03 -4.55095E+03  2.29539E+03 -3.93643E+03 -8.75179E+02
 -2.23955E+03 -5.00186E+03  8.98694E+02 -6.40041E+03  5.40419E+03 -4.28643E+03  5.74132E+03  1.03133E+03
  4.28754E+03  4.60468E+03  1.96067E+02  6.62817E+03 -4.63687E+03  4.18534E+03 -4.82410E+03 -1.95721E+02
 -5.40072E+03 -4.88084E+03 -1.05374E+03 -4.43524E+03  2.57540E+03 -4.40639E+03  2.64149E+03 -2.66330E+03
  2.65566E+03  3.17951E+02  2.30813E+02  1.07703E+03  7.48481E+02  1.10087E+02  2.25228E+02 -1.73053E+03
  3.55934E+03 -6.12803E+02  4.66090E+03  6.43667E+02  5.03395E+03  2.59627E+03  5.27679E+03  6.53243E+03
 -8.49543E+02  7.73155E+03 -7.28808E+03  5.80332E+03 -9.25065E+03  1.23882E+03 -7.42669E+03 -2.35306E+03
 -4.13553E+03 -6.08777E+03 -5.00047E+02 -4.40760E+03  1.96890E+03 -1.88299E+03  1.47986E+03 -1.89488E+03
  9.60161E+02 -1.38426E+03  2.00525E+03 -2.43846E+03  3.40259E+03 -1.13738E+03  3.52720E+03  5.30950E+02
  4.21737E+03  1.01023E+03  8.82108E+02  3.44795E+03 -1.68496E+03  2.35269E+03 -4.06865E+03  2.37662E+03
 -4.35058E+03 -9.96348E+02 -9.56534E+02 -3.11298E+03  7.55344E+02 -4.57548E+03  2.84636E+03 -4.65482E+03
  4.58516E+03 -2.98653E+03  6.15872E+03  5.22547E+01  4.46027E+03  3.73005E+03  9.94956E+02  5.35425E+03
 -2.09356E+03  5.44521E+03 -2.92775E+03  1.49575E+03 -1.59195E+03 -1.16061E+03 -2.50742E+02 -4.43649E+02
 -5.56157E+02  5.60793E+02 -8.23865E+02  2.05415E+03 -2.49873E+03  8.26624E+02 -3.95069E+03 -1.49544E+02
 -1.27634E+03 -3.60384E+03  1.06221E+03 -4.37381E+03  2.51695E+03 -3.86040E+03  3.16235E+03 -1.19780E+03
  3.66614E+03  2.11111E+03  1.54450E+03  2.90099E+03 -9.00525E+02  3.80035E+03 -2.32247E+03  2.53263E+03
 -3.50418E+03  8.91511E+02 -3.26718E+03 -2.23118E+03 -1.77702E+02 -2.92993E+03  1.32095E+03 -2.12703E+03
  2.50958E+03 -1.26035E+03  1.69289E+03  2.08607E+02  1.94266E+02  1.49632E+03  9.33415E+02  3.97378E+02
  1.71789E+03  6.10973E+02  1.23208E+03  1.02502E+03  1.13609E+03  2.16708E+03  1.43777E+03  1.51965E+03
 -1.15765E+03  2.51878E+03 -2.06248E+03  3.92117E+03 -2.44435E+03  1.24795E+03 -3.59440E+03 -2.47840E+02
 -1.64767E+03 -3.02375E+03  5.52669E+02 -4.07734E+03  1.59153E+03 -2.19009E+03  2.52348E+03 -7.43650E+02
  2.14791E+03  1.72749E+03  4.85108E+02  1.92810E+03 -4.23250E+02  1.17258E+03 -6.81463E+02 -3.02774E+02
 -5.12168E+02 -1.19321E+03  1.20497E+03 -1.19685E+03  1.28336E+03 -9.07125E+02  1.32754E+03  6.37855E+02
  8.47853E+02  2.78573E+02  7.73900E+02 -2.07082E+02 -4.77328E+02  5.14343E+02  1.33237E+03 -2.73681E+02
  3.20152E+01 -2.81674E+02  1.69146E+03  6.35776E+02  1.75777E+02  2.07065E+03 -2.72817E+02  2.85471E+03
 -1.33711E+03  8.44472E+02 -1.53430E+03  3.08310E+02 -1.77155E+03 -5.82186E+02 -8.08542E+01 -8.73331E+02
  3.98006E+02 -1.09027E+03  8.02215E+02 -4.62766E+02  5.70600E+02  1.28405E+03 -3.73444E+02  1.12302E+03
 -1.31311E+03  6.74830E+02 -1.10337E+03 -1.23198E+03 -8.36145E+02 -2.07052E+03 -2.18945E+02 -1.35225E+03
  1.13091E+02 -2.25434E+02  6.62551E+02  2.01708E+02  1.11827E+03 -1.69381E+02  1.46465E+02  1.00176E+03
 -3.21397E+02 -8.60952E+01 -8.12405E+02 -1.49180E+02  8.67774E+02 -4.99474E+02  1.60029E+03 -8.37463E+02
  1.07076E+03  1.40501E+02  2.63839E+03  6.77090E+02  1.12408E+03  1.34804E+03 -1.45745E+02  1.73693E+03
 -1.12058E+03 -6.59549E+01 -1.42301E+03 -4.03598E+00 -5.33508E+02 -1.23014E+03  3.83188E+02 -5.72955E+02
  1.52973E+03 -6.37238E+02  6.61764E+02  6.57290E+02  8.18182E+01  1.09693E+03  9.59731E+01  1.43060E+03
 -2.36422E+02  1.37647E+03 -5.67161E+02  3.59850E+02 -4.62374E+01  3.94579E+02 -7.40934E+02  3.65825E+02
 -7.35616E+02  7.32497E+02 -1.57834E+03  5.11166E+02 -1.69162E+03  2.14609E+02 -2.29699E+03 -1.09277E+03
 -9.82235E+02 -1.99322E+03  5.82904E+02 -2.54850E+03  9.08784E+02 -2.27675E+03  2.53428E+03 -1.01374E+03
  2.09683E+03 -1.47279E+02  9.86051E+02  1.36134E+03 -7.62688E+02  1.38963E+03 -4.42227E+02  1.34216E+03
 -8.32652E+02  6.31431E+02 -3.88678E+02 -2.92800E+02 -1.27014E+02  4.05857E+02 -4.52065E+02 -1.31530E+02
 -1.08003E+03 -3.28658E+02 -5.74212E+02  3.14705E+02  5.63865E+02 -5.71152E+02 -2.08637E+02 -6.56970E+02
  9.99938E+02 -3.54751E+02  2.26746E+02 -2.74199E+01  9.12388E+02  1.09732E+03 -5.20741E+02  1.13377E+03
 -6.86637E+02  1.96133E+03 -1.63727E+03  1.13302E+03 -1.60917E+03 -3.70035E+01 -1.18267E+03 -1.06996E+03
 -6.98803E+02 -1.38565E+03  9.11000E+01 -1.22243E+03  7.50433E+02 -6.25582E+02  6.33174E+02  2.46759E+02
  8.52535E+02  3.09107E+02  1.87019E+02  2.10122E+02 -2.37671E+02  1.56916E+01 -1.27186E+02 -3.13245E+02
  3.10390E+02  3.09332E+01  6.20592E+01  3.85560E+02  3.80919E+01  6.38933E+02  2.53261E+02  5.56312E+02
 -7.73702E+02  4.70379E+02 -4.06797E+02  3.62309E+02 -9.81048E+02 -4.44270E+02 -1.45255E+02 -1.33463E+03
  2.20268E+02 -7.28445E+02  2.76924E+02  1.95061E+02  7.60319E+02 -5.17907E+02  2.16687E+02  1.10038E+03
  4.56568E+02  3.82533E+02  4.04709E+01  3.66404E+02 -3.59695E+02  5.54629E+02 -1.57038E+02  1.06713E+02
 -3.43471E+02 -3.70955E+02 -5.45541E+02  2.89940E+02 -4.82970E+02  8.35880E+01 -4.74939E+02 -2.44122E+02
 -1.20288E+03  1.96770E+02 -3.42464E+02 -8.14783E+02  5.95194E+02 -1.84094E+03  8.26846E+02 -2.42964E+02
  7.07099E+02  1.86320E+02 -2.82688E+02  6.09119E+01 -9.78859E+01  6.84981E+02 -2.94666E+02  6.36501E+02
