 $NMID ID='MM_0lb_SNR800_13hz_g60_70.RAW', FMTDAT='(8E13.5)'
 TRAMP=1., VOLUME=1. $END
  3.09727E+05  3.25090E+02  3.38131E+05  2.50594E+05  8.47216E+04  3.38145E+05 -1.32692E+05  2.51426E+05
 -1.90996E+05  8.35102E+04 -1.12125E+05 -3.23517E+04  4.75595E+02 -5.04141E+04  5.33631E+04 -2.45311E+02
  3.53249E+04  5.27772E+04 -1.65587E+04  7.57499E+04 -6.12234E+04  6.41410E+04 -8.48164E+04  3.25269E+04
 -8.17095E+04 -1.18458E+04 -5.81514E+04 -5.18406E+04 -1.52324E+04 -7.04037E+04  2.77090E+04 -4.61696E+04
  4.07840E+04  3.69253E+03  1.62635E+04  4.82396E+04 -3.48242E+04  4.78664E+04 -6.73509E+04 -1.89032E+02
 -5.42663E+04 -5.74085E+04 -7.03078E+03 -7.83561E+04  3.43493E+04 -5.60612E+04  4.91197E+04 -1.79667E+04
  4.44097E+04  1.13922E+04  3.22748E+04  2.59589E+04  1.64750E+04  3.00744E+04 -5.70319E+03  2.74429E+04
 -2.24236E+04  1.22021E+04 -1.80980E+04 -5.19043E+03  6.24947E+03 -7.39469E+03  2.31750E+04  1.34498E+04
  7.57846E+03  3.65455E+04 -3.30955E+04  3.61162E+04 -6.46477E+04  2.31424E+03 -5.83153E+04 -4.35922E+04
 -1.25385E+04 -6.47002E+04  4.08110E+04 -4.67139E+04  5.97260E+04 -2.65198E+03  3.52919E+04  3.36758E+04
 -5.84857E+03  3.78996E+04 -3.10069E+04  1.72232E+04 -3.15950E+04 -4.34088E+03 -1.83633E+04 -1.14978E+04
 -9.04704E+03 -1.44174E+04 -6.63949E+02 -1.87459E+04  8.04511E+03 -2.33423E+04  1.57277E+04 -1.28711E+04
  1.12269E+04  5.75877E+03 -9.25028E+03  1.28958E+04 -2.25278E+04 -5.68222E+03 -8.59986E+03 -3.57819E+04
  2.40070E+04 -4.53162E+04  5.03796E+04 -2.01175E+04  4.68605E+04  2.02172E+04  1.63589E+04  4.57904E+04
 -1.61628E+04  3.46454E+04 -2.63687E+04  2.32697E+03 -1.08464E+04 -2.87431E+04  2.11413E+04 -3.55659E+04
  4.30957E+04 -1.02599E+04  3.77304E+04  2.46067E+04  1.99077E+04  4.86295E+04 -8.26019E+03  5.31449E+04
 -3.36728E+04  3.60258E+04 -4.48565E+04  1.02635E+04 -4.52362E+04 -1.77672E+04 -2.49312E+04 -3.98458E+04
  7.38675E+03 -3.97935E+04  3.30842E+04 -1.61438E+04  3.07559E+04  1.07489E+04  4.72861E+03  2.01130E+04
 -1.37529E+04  9.09205E+03 -1.09080E+04 -7.66480E+03  5.90323E+03 -1.12002E+04  1.85557E+04  5.86745E+03
  1.41030E+04  2.25297E+04 -5.88547E+03  2.61112E+04 -2.29923E+04  1.28762E+04 -2.94681E+04 -3.84074E+03
 -2.27735E+04 -1.81270E+04 -1.01428E+04 -2.28984E+04  4.43938E+03 -2.25790E+04  1.76695E+04 -2.04195E+04
  2.89363E+04 -1.32394E+04  3.50751E+04  3.71273E+03  2.54111E+04  2.19544E+04  4.41792E+03  3.90098E+04
 -1.86646E+04  3.19109E+04 -2.89768E+04  1.08762E+04 -2.14391E+04 -1.04367E+04 -4.83695E+03 -1.32007E+04
  1.53169E+03 -2.04386E+03 -5.86520E+03  7.47779E+03 -1.80451E+04  5.21741E+03 -1.80679E+04 -7.89722E+03
 -1.11699E+04 -2.09253E+04  5.62055E+03 -2.52946E+04  1.70866E+04 -1.81572E+04  2.01297E+04 -1.78818E+03
  1.31740E+04  1.42622E+04 -1.28903E+03  2.07981E+04 -1.49293E+04  1.20204E+04 -2.12368E+04 -4.42502E+03
 -1.52630E+04 -1.87047E+04 -1.91251E+03 -2.55546E+04  1.11864E+04 -2.08572E+04  2.09035E+04 -1.04179E+04
  1.94618E+04 -1.33621E+01  1.42466E+04  4.79769E+03  7.75037E+03  1.11272E+03  1.10574E+04 -1.94467E+03
  1.96109E+04  2.55900E+03  2.20701E+04  1.63003E+04  1.48119E+04  3.31741E+04 -2.73613E+03  3.85167E+04
 -2.20238E+04  3.15342E+04 -3.60439E+04  1.60849E+04 -3.82604E+04 -2.86098E+03 -3.13314E+04 -2.20967E+04
 -1.33517E+04 -3.18390E+04  1.08772E+04 -2.84841E+04  2.43436E+04 -1.38549E+04  2.14138E+04  6.48066E+03
  7.22077E+03  1.62164E+04 -1.01094E+04  1.38944E+04 -1.79738E+04  2.37100E+03 -1.34988E+04 -1.10112E+04
 -3.19815E+02 -1.65274E+04  8.66677E+03 -1.26799E+04  1.15841E+04 -1.69144E+03  3.01025E+03  7.37455E+03
 -7.64354E+03  3.14487E+03 -7.47250E+03 -6.04398E+03 -9.57111E+02 -1.51353E+04  1.02620E+04 -1.67143E+04
  1.92709E+04 -8.93548E+03  2.09022E+04  3.27474E+03  1.83490E+04  1.54581E+04  8.68003E+03  2.41847E+04
 -4.22059E+03  2.59094E+04 -1.66642E+04  1.58331E+04 -1.84204E+04  3.30660E+03 -1.30901E+04 -4.50131E+03
 -5.71793E+03 -5.61926E+03 -9.72564E+02  9.00606E+02 -2.43163E+03  2.86291E+03 -5.94801E+03  4.80802E+03
 -1.18470E+04 -9.24845E+02 -1.19256E+04 -1.01654E+04 -4.80544E+03 -1.63643E+04  5.19482E+03 -1.30955E+04
  1.07920E+04 -5.34374E+03  7.86346E+03  3.18231E+03  5.96665E+00  5.21018E+03 -6.42534E+03 -3.77030E+01
 -5.83925E+03 -8.19875E+03 -1.16046E+03 -1.21874E+04  6.88943E+03 -1.34514E+04  1.60856E+04 -7.07199E+03
  1.89311E+04  1.89086E+03  1.38189E+04  1.11060E+04  2.58395E+03  1.48507E+04 -7.87583E+03  1.26338E+04
 -1.06013E+04  3.98309E+03 -5.47725E+03 -2.76362E+03  2.09828E+03 -3.82824E+03  6.86981E+03 -1.17435E+03
  6.34785E+03  6.00645E+03  1.27078E+03  9.72350E+03 -7.16057E+03  9.99122E+03 -1.22873E+04  2.48545E+03
 -8.56555E+03 -5.98454E+03  2.94678E+02 -1.08617E+04  6.47618E+03 -5.48905E+03  7.12170E+03  2.18969E+03
  1.54778E+03  7.31235E+03 -6.56557E+03  8.99283E+03 -9.92026E+03  3.87288E+03 -1.00155E+04 -3.32881E+03
 -5.73145E+03 -1.17910E+04  2.85619E+03 -1.36279E+04  1.13405E+04 -8.34930E+03  1.24495E+04  2.31028E+03
  7.67412E+03  9.75968E+03 -4.96314E+02  1.24432E+04 -8.91594E+03  6.94155E+03 -9.59508E+03 -1.33912E+03
 -8.94353E+03 -8.45967E+03 -1.59412E+03 -9.03720E+03  5.03752E+03 -7.38060E+03  5.61994E+03 -3.66287E+03
  4.25028E+03  1.66077E+03 -5.47550E+02  1.47250E+03 -3.61705E+02 -2.13531E+03  1.51053E+03 -5.20605E+03
  8.38401E+03 -3.06299E+03  1.15811E+04  1.33118E+03  1.11379E+04  7.83788E+03  8.19426E+03  1.55990E+04
 -3.17568E+03  1.76528E+04 -1.50206E+04  1.30681E+04 -1.91919E+04  2.38112E+03 -1.49706E+04 -6.27863E+03
 -7.54818E+03 -1.25251E+04 -2.41697E+02 -1.07052E+04  3.93685E+03 -5.57705E+03  3.76371E+03 -3.46836E+03
  2.49657E+03 -2.37968E+03  3.08210E+03 -3.41179E+03  4.45766E+03 -2.55993E+03  6.31712E+03 -7.27176E+02
  8.03954E+03  1.89388E+03  3.86212E+03  6.97501E+03 -1.85398E+03  7.44327E+03 -7.91681E+03  5.88472E+03
 -1.05357E+04 -1.07355E+03 -5.82942E+03 -7.36266E+03 -3.77307E+02 -1.12407E+04  6.36085E+03 -1.07897E+04
  1.13317E+04 -6.22331E+03  1.40925E+04  2.08059E+03  9.26773E+03  9.58611E+03  1.63921E+03  1.24707E+04
 -5.05975E+03  1.02573E+04 -7.05670E+03  3.55657E+03 -5.13625E+03 -1.19835E+03 -1.74822E+03 -1.28806E+03
 -1.02788E+03  1.69181E+02 -2.05754E+03  2.49481E+03 -4.32808E+03  2.01058E+03 -7.27726E+03 -1.31558E+03
 -4.71539E+03 -7.35442E+03  6.28437E+02 -1.01505E+04  5.73420E+03 -9.04379E+03  9.55293E+03 -2.87510E+03
  9.63220E+03  4.96582E+03  4.46020E+03  8.46958E+03 -2.00613E+03  1.02623E+04 -6.79459E+03  6.30564E+03
 -9.37473E+03  6.89326E+02 -6.78450E+03 -5.90215E+03 -3.89907E+02 -7.86240E+03  3.84713E+03 -5.93345E+03
  6.14611E+03 -2.15936E+03  4.30710E+03  1.53336E+03  1.24682E+03  3.33304E+03  8.52801E+02  1.32267E+03
  2.19007E+03  8.78642E+02  2.48502E+03  1.41771E+03  2.71184E+03  4.12298E+03  2.51414E+03  5.17399E+03
 -2.12886E+03  7.82819E+03 -6.41863E+03  8.15557E+03 -9.28658E+03  2.34244E+03 -1.00516E+04 -3.36046E+03
 -4.90516E+03 -9.53934E+03  1.14779E+03 -1.08611E+04  5.53317E+03 -6.77319E+03  7.91360E+03 -1.91459E+03
  5.85692E+03  3.81748E+03  1.19083E+03  5.14937E+03 -2.29934E+03  3.33640E+03 -3.66952E+03 -5.42410E+02
 -1.63453E+03 -4.08479E+03  2.09418E+03 -4.07051E+03  3.29196E+03 -2.01211E+03  3.81008E+03  1.13320E+03
  1.84897E+03  1.68170E+03  1.32037E+03  1.33191E+03 -4.37892E+02  1.46472E+03  1.83567E+03 -2.13831E+02
  1.31441E+03 -4.32926E+02  3.50667E+03  1.63046E+03  1.49814E+03  5.25824E+03 -9.12650E+02  6.80582E+03
 -4.27528E+03  3.77960E+03 -5.67582E+03  1.10449E+03 -5.50377E+03 -1.91140E+03 -1.71097E+03 -3.25735E+03
  4.71488E+02 -3.47926E+03  2.13993E+03 -1.55721E+03  1.92323E+03  1.80274E+03 -1.09081E+03  2.85006E+03
 -3.53339E+03  1.86128E+03 -4.16126E+03 -2.21482E+03 -2.55494E+03 -5.01882E+03  1.04766E+03 -4.69163E+03
  2.67357E+03 -2.62146E+03  3.37520E+03 -2.39962E+01  3.00122E+03  9.91870E+02  2.04052E+02  2.66969E+03
 -1.49591E+03  1.07144E+03 -2.01051E+03 -1.23843E+03  1.05603E+03 -3.67235E+03  4.49364E+03 -3.07460E+03
  5.17522E+03  5.29862E+02  6.10068E+03  3.52925E+03  2.04240E+03  5.43974E+03 -1.56829E+03  5.62246E+03
 -4.46941E+03  2.05726E+03 -4.55564E+03 -7.40711E+02 -2.51227E+03 -4.05553E+03  8.94727E+02 -3.30515E+03
  3.61643E+03 -1.49485E+03  3.11554E+03  1.50594E+03  1.07682E+03  3.42158E+03 -3.68053E+02  2.89448E+03
 -1.26705E+03  2.13837E+03 -1.29317E+03  6.94340E+02 -6.52421E+02  4.44184E+02 -1.28989E+03  1.22027E+03
 -1.72667E+03  2.57540E+03 -4.25518E+03  1.65511E+03 -5.34169E+03  7.82451E+01 -6.38561E+03 -3.34850E+03
 -3.11627E+03 -7.37931E+03  1.36855E+03 -8.43115E+03  4.95679E+03 -6.55479E+03  7.74567E+03 -2.64288E+03
  7.11120E+03  1.18101E+03  4.11233E+03  4.91163E+03  1.56723E+02  5.21732E+03 -2.24892E+03  3.93320E+03
 -2.58705E+03  1.73313E+03 -1.98504E+03 -1.68755E+02 -1.02640E+03 -1.84666E+02 -7.81814E+02  2.75550E+01
 -1.38704E+03 -1.64275E+02 -1.53315E+03 -2.07385E+01 -1.25298E+02 -1.15068E+03  1.59522E+02 -2.30845E+03
  2.34887E+03 -1.62046E+03  2.99363E+03  3.54298E+02  3.81426E+03  2.91923E+03  7.71179E+02  5.46077E+03
 -2.35720E+03  6.00600E+03 -5.76562E+03  3.67521E+03 -6.05957E+03 -2.18238E+02 -4.48341E+03 -3.79474E+03
 -2.20912E+03 -5.26645E+03  1.11366E+03 -4.88521E+03  3.24299E+03 -2.33693E+03  3.56023E+03  1.03644E+02
  2.23826E+03  1.38934E+03 -6.33784E+01  1.51669E+03 -9.31662E+02  2.51685E+02  8.72145E+01 -1.28431E+03
  1.62824E+03 -1.44067E+02  1.69685E+03  6.50335E+02  1.33913E+03  1.90882E+03  3.27115E+02  2.23533E+03
 -2.06308E+03  2.18782E+03 -2.97474E+03  2.06100E+02 -2.91807E+03 -2.28270E+03 -6.44292E+02 -4.37150E+03
  2.27814E+03 -3.15923E+03  3.20930E+03 -7.44744E+02  3.16782E+03  5.49444E+02  1.78487E+03  3.02450E+03
  7.23183E+02  2.82818E+03 -1.07495E+03  2.30463E+03 -1.98279E+03  1.85843E+03 -1.61209E+03  1.56934E+02
 -7.63663E+02 -9.23800E+01 -1.11481E+03  4.57044E+02 -1.87646E+03  4.72417E+02 -2.28341E+03 -7.41705E+02
 -2.54625E+03 -1.37188E+03 -1.02997E+03 -3.33534E+03  1.54182E+03 -3.99868E+03  2.55765E+03 -1.22026E+03
  2.88902E+03  1.69477E+02  1.11792E+03  1.74753E+03 -2.76591E+02  3.16270E+03 -2.00986E+03  1.84968E+03
