 $NMID ID='MM_0lb_SNR800_17hz_g40_41.RAW', FMTDAT='(8E13.5)'
 TRAMP=1., VOLUME=1. $END
  3.09762E+05  2.77600E+02  3.37357E+05  2.50423E+05  8.46359E+04  3.37274E+05 -1.32530E+05  2.50190E+05
 -1.89583E+05  8.24842E+04 -1.11185E+05 -3.28008E+04  1.38586E+03 -5.02023E+04  5.40569E+04  2.33756E+02
  3.52907E+04  5.27577E+04 -1.68392E+04  7.48876E+04 -6.02487E+04  6.25813E+04 -8.30235E+04  3.13676E+04
 -7.93440E+04 -1.10835E+04 -5.63368E+04 -5.01450E+04 -1.49978E+04 -6.83069E+04  2.67813E+04 -4.49004E+04
  3.93582E+04  3.97180E+03  1.56285E+04  4.73221E+04 -3.42675E+04  4.61376E+04 -6.51140E+04 -4.28984E+02
 -5.18886E+04 -5.60431E+04 -6.16392E+03 -7.52584E+04  3.29203E+04 -5.35958E+04  4.59818E+04 -1.64520E+04
  4.17285E+04  1.12953E+04  3.08282E+04  2.44104E+04  1.54191E+04  2.83266E+04 -4.60368E+03  2.70330E+04
 -2.15139E+04  1.26544E+04 -1.90503E+04 -4.23059E+03  4.41355E+03 -7.49744E+03  2.13195E+04  1.09818E+04
  7.59414E+03  3.33333E+04 -3.08653E+04  3.41115E+04 -6.16473E+04  2.26259E+03 -5.53849E+04 -4.13700E+04
 -1.24121E+04 -6.08528E+04  3.81638E+04 -4.37401E+04  5.58717E+04 -2.00052E+03  3.20690E+04  3.06417E+04
 -6.42678E+03  3.34075E+04 -2.87286E+04  1.36391E+04 -2.75301E+04 -5.25669E+03 -1.44520E+04 -1.00471E+04
 -7.44633E+03 -1.14182E+04 -9.56020E+02 -1.65369E+04  6.73997E+03 -2.27402E+04  1.51274E+04 -1.40573E+04
  1.17293E+04  4.55964E+03 -6.68936E+03  1.30940E+04 -1.95528E+04 -2.43048E+03 -8.04032E+03 -3.07053E+04
  2.11766E+04 -4.08563E+04  4.49902E+04 -1.87886E+04  4.20471E+04  1.86730E+04  1.43162E+04  4.18489E+04
 -1.53952E+04  3.13382E+04 -2.34774E+04  1.15681E+03 -8.36642E+03 -2.60710E+04  2.04946E+04 -3.13725E+04
  3.83073E+04 -7.44500E+03  3.17491E+04  2.27028E+04  1.56704E+04  4.30950E+04 -7.88724E+03  4.58246E+04
 -2.88983E+04  3.02018E+04 -3.76030E+04  8.34550E+03 -3.87635E+04 -1.51499E+04 -2.15800E+04 -3.48542E+04
  6.83100E+03 -3.45026E+04  2.94951E+04 -1.30399E+04  2.70964E+04  1.08219E+04  2.87305E+03  1.78551E+04
 -1.30986E+04  7.31672E+03 -9.63977E+03 -7.66044E+03  6.01415E+03 -1.02222E+04  1.72940E+04  6.27674E+03
  1.23710E+04  2.14914E+04 -6.55970E+03  2.34291E+04 -2.18066E+04  9.33350E+03 -2.56363E+04 -6.01958E+03
 -1.72671E+04 -1.65326E+04 -5.90402E+03 -1.72606E+04  3.54062E+03 -1.52581E+04  1.29641E+04 -1.51848E+04
  2.18857E+04 -1.17979E+04  2.87566E+04  1.19996E+03  2.15159E+04  1.66913E+04  3.99479E+03  3.28206E+04
 -1.63998E+04  2.78345E+04 -2.60074E+04  9.58627E+03 -2.00671E+04 -1.03154E+04 -4.11920E+03 -1.37850E+04
  2.39975E+03 -3.97593E+03 -2.98914E+03  5.66238E+03 -1.31684E+04  5.25278E+03 -1.39798E+04 -5.40055E+03
 -9.00543E+03 -1.56544E+04  4.40614E+03 -1.98072E+04  1.30550E+04 -1.42064E+04  1.51662E+04 -1.25040E+03
  9.33897E+03  1.11466E+04 -6.42212E+02  1.62401E+04 -1.05989E+04  9.05716E+03 -1.57457E+04 -3.42076E+03
 -1.19706E+04 -1.46048E+04 -1.59209E+03 -1.96368E+04  8.89762E+03 -1.56920E+04  1.65691E+04 -7.65077E+03
  1.52746E+04  6.70922E+02  1.05690E+04  4.04613E+03  5.68548E+03  5.01929E+02  7.77522E+03 -1.63107E+03
  1.44910E+04  2.66455E+03  1.56136E+04  1.30868E+04  9.62108E+03  2.55729E+04 -3.05318E+03  2.77276E+04
 -1.64000E+04  2.13790E+04 -2.53692E+04  1.02076E+04 -2.62328E+04 -1.78257E+03 -2.20816E+04 -1.49620E+04
 -1.04930E+04 -2.17984E+04  7.17670E+03 -1.98640E+04  1.74982E+04 -1.11345E+04  1.61290E+04  3.97865E+03
  6.66446E+03  1.17635E+04 -7.24306E+03  1.06919E+04 -1.39993E+04  2.74916E+03 -1.08879E+04 -8.24526E+03
 -2.12347E+02 -1.30577E+04  6.38903E+03 -9.66147E+03  8.43049E+03 -1.29747E+03  1.42003E+03  5.28925E+03
 -5.98582E+03  1.48090E+03 -4.21504E+03 -4.62740E+03  4.96453E+02 -1.05155E+04  8.34243E+03 -1.07177E+04
  1.28520E+04 -5.23765E+03  1.26658E+04  2.77291E+03  1.12747E+04  1.03792E+04  5.37980E+03  1.51332E+04
 -2.13777E+03  1.70862E+04 -1.02556E+04  1.08394E+04 -1.21623E+04  2.79936E+03 -8.78432E+03 -2.16160E+03
 -4.67540E+03 -3.71635E+03 -8.85388E+02  1.28109E+03 -2.06392E+03  2.17901E+03 -3.69055E+03  3.55639E+03
 -8.50821E+03 -4.40858E+02 -8.98924E+03 -7.37638E+03 -4.04022E+03 -1.20507E+04  3.47283E+03 -9.12949E+03
  7.34323E+03 -3.82728E+03  5.50271E+03  2.31955E+03  4.46744E+02  3.20528E+03 -3.83498E+03 -2.42131E+02
 -3.80935E+03 -5.42174E+03 -8.30906E+02 -8.03430E+03  4.21813E+03 -8.58870E+03  1.07094E+04 -4.38942E+03
  1.25176E+04  8.57551E+02  9.40004E+03  6.80662E+03  2.11804E+03  9.41378E+03 -5.34788E+03  9.03007E+03
 -7.50078E+03  2.79816E+03 -3.94573E+03 -1.50145E+03  1.26100E+03 -2.29170E+03  5.01653E+03 -9.26177E+02
  4.20349E+03  3.70833E+03  1.11776E+03  6.87787E+03 -4.89676E+03  6.83739E+03 -8.12933E+03  1.61450E+03
 -5.61468E+03 -4.03087E+03  1.66521E+02 -7.41641E+03  4.08174E+03 -3.50253E+03  3.85195E+03  1.19817E+03
  6.41464E+02  3.65111E+03 -4.41400E+03  4.96705E+03 -5.46718E+03  2.81373E+03 -5.01750E+03 -1.47560E+03
 -3.21634E+03 -6.67944E+03  1.52352E+03 -7.98779E+03  6.64378E+03 -4.90270E+03  6.84738E+03  1.13522E+03
  5.33013E+03  5.49158E+03  2.52340E+01  7.66546E+03 -5.47425E+03  4.39596E+03 -5.56769E+03 -6.14286E+02
 -6.25894E+03 -5.43889E+03 -1.43799E+03 -5.58811E+03  2.94690E+03 -4.96185E+03  3.37448E+03 -2.86098E+03
  2.82300E+03  4.92616E+02  1.22798E+02  1.36320E+03  1.94263E+02 -2.21510E+02  8.79205E+01 -2.22238E+03
  4.57026E+03 -1.11894E+03  6.58939E+03  1.19824E+03  6.29778E+03  3.74576E+03  5.53691E+03  8.14932E+03
 -1.49122E+03  9.60271E+03 -8.48505E+03  7.29583E+03 -1.10387E+04  1.07918E+03 -8.73728E+03 -3.22899E+03
 -4.85620E+03 -7.10420E+03 -7.33946E+02 -5.75168E+03  2.24427E+03 -2.54666E+03  1.94969E+03 -2.24322E+03
  1.29993E+03 -1.54089E+03  2.18456E+03 -2.43399E+03  3.69735E+03 -1.47756E+03  3.90339E+03  4.93309E+02
  4.99153E+03  1.34941E+03  1.51165E+03  3.75378E+03 -1.50831E+03  3.20036E+03 -4.86519E+03  3.04326E+03
 -5.66071E+03 -9.95442E+02 -2.33710E+03 -3.76993E+03  4.74816E+02 -5.77455E+03  3.49793E+03 -6.23005E+03
  6.00211E+03 -3.96467E+03  7.58755E+03  3.55503E+02  5.25188E+03  5.02949E+03  1.01561E+03  6.65185E+03
 -2.46406E+03  6.47185E+03 -3.86204E+03  2.30284E+03 -2.13419E+03 -7.80648E+02 -3.57624E+02 -7.78339E+02
 -6.55633E+02  6.06770E+02 -9.60804E+02  1.80380E+03 -2.85618E+03  9.70844E+02 -4.67589E+03 -3.72211E+02
 -2.09173E+03 -4.40517E+03  6.66233E+02 -5.24682E+03  2.92597E+03 -5.09095E+03  4.31526E+03 -1.32435E+03
  4.79497E+03  2.76648E+03  2.08124E+03  4.06702E+03 -9.67525E+02  5.13650E+03 -3.21469E+03  2.95632E+03
 -4.56776E+03  8.91160E+02 -3.54930E+03 -2.89246E+03 -2.87339E+02 -3.64527E+03  1.96036E+03 -2.77091E+03
  3.40235E+03 -1.54315E+03  1.76811E+03  4.17279E+02  5.47167E+02  1.81351E+03  9.90325E+02  2.64384E+02
  1.73062E+03  7.22328E+02  1.52425E+03  9.11382E+02  1.31257E+03  2.33301E+03  1.52140E+03  2.16636E+03
 -1.65531E+03  3.77487E+03 -3.10454E+03  4.59248E+03 -3.95569E+03  1.51720E+03 -5.16958E+03 -8.87868E+02
 -2.51792E+03 -4.34796E+03  7.76598E+02 -5.34838E+03  2.53851E+03 -3.06229E+03  3.73903E+03 -9.36666E+02
  2.77278E+03  2.40599E+03  3.51736E+02  2.65974E+03 -9.52522E+02  1.61520E+03 -1.33782E+03 -9.37477E+01
 -4.88161E+02 -2.09154E+03  1.30531E+03 -1.76365E+03  1.84552E+03 -1.08468E+03  1.51170E+03  2.53889E+02
  9.53406E+02  5.27286E+02  6.55386E+02  2.18712E+02 -6.56018E+02  1.08763E+03  1.88088E+03 -4.64059E+02
  2.42447E+02 -4.95165E+02  2.34888E+03  7.55993E+02  2.92745E+02  2.69194E+03 -3.62418E+02  3.19117E+03
 -2.15701E+03  1.47704E+03 -2.52530E+03  4.83868E+02 -2.49079E+03 -9.14071E+02 -5.76963E+02 -1.10402E+03
  4.38960E+02 -1.51330E+03  1.29577E+03 -8.78305E+02  9.11712E+02  1.24361E+03 -8.17026E+02  1.37982E+03
 -1.73269E+03  1.10168E+03 -1.69320E+03 -1.50481E+03 -8.00315E+02 -2.73200E+03 -5.04910E+01 -2.31700E+03
  7.62144E+02 -6.79086E+02  1.35990E+03 -5.25370E+01  1.42776E+03  2.55208E+01  4.78644E+02  1.57307E+03
 -5.79072E+02  4.10115E+02 -1.50017E+03 -3.76916E+02  8.35180E+02 -1.34679E+03  2.14235E+03 -9.83877E+02
  1.87423E+03  5.16847E+01  3.03597E+03  1.18191E+03  9.70898E+02  2.44747E+03 -4.71970E+02  2.11986E+03
 -1.93545E+03  5.81573E+02 -1.84321E+03 -5.24772E+02 -6.93818E+02 -1.93035E+03  2.13415E+02 -7.54100E+02
  1.75856E+03 -8.97082E+02  1.15494E+03  8.43503E+02  5.29637E+02  1.46991E+03  2.95143E+02  1.22398E+03
 -3.58630E+02  1.30555E+03 -5.95452E+02  2.30732E+02  2.38207E+02  5.80392E+02 -9.17445E+02  6.92104E+02
 -8.27239E+02  1.23489E+03 -2.02806E+03  7.37062E+02 -2.10814E+03  1.95065E+02 -3.11381E+03 -1.23770E+03
 -1.51733E+03 -2.99473E+03  7.27344E+02 -3.69310E+03  1.62245E+03 -3.16190E+03  3.65943E+03 -1.26387E+03
  3.11308E+03  3.16687E+02  1.60093E+03  2.22678E+03 -5.71365E+02  2.09049E+03 -8.16822E+02  1.91006E+03
 -9.89201E+02  9.12941E+02 -6.97826E+02 -3.31059E+02 -5.95573E+02  1.20868E+02 -9.73767E+02  1.76318E+02
 -1.30662E+03  1.54556E+02 -1.06746E+03 -5.06018E+01  4.32022E+01 -5.72958E+02 -5.32576E+02 -1.30837E+03
  1.56042E+03 -8.35925E+02  7.79444E+02  3.13603E+02  1.59465E+03  1.64835E+03 -1.47761E+02  2.18648E+03
 -9.66658E+02  2.66665E+03 -2.70187E+03  1.51868E+03 -2.53210E+03 -1.54692E+02 -1.75783E+03 -1.59096E+03
 -1.26054E+03 -1.66993E+03  6.24170E+02 -1.53750E+03  6.87273E+02 -9.20621E+02  1.27268E+03  3.92079E+02
  8.12765E+02  3.64630E+02  2.37915E+02  4.93997E+02 -7.39336E+02 -5.73587E+01  1.66123E+02 -6.30467E+02
  6.17239E+02  7.89419E+01  5.16095E+02  3.68575E+02  3.15410E+02  8.11043E+02  4.02149E+02  8.33800E+02
 -6.19497E+02  1.11167E+03 -8.57906E+02  2.83914E+02 -1.33483E+03 -6.12660E+02 -2.12324E+02 -1.42468E+03
  8.29748E+02 -1.21513E+03  7.86965E+02 -1.21476E+02  1.53450E+03 -5.22095E+02  6.59392E+02  1.21673E+03
  4.74062E+02  9.27672E+02 -4.80706E+02  7.58502E+02 -5.74812E+02  1.04558E+03 -5.30994E+02 -1.57798E+01
 -5.96288E+02 -2.81162E+01 -6.05231E+02  2.41769E+02 -6.76223E+02  6.20671E+01 -1.06363E+03 -4.05401E+02
 -1.54059E+03  2.27519E+02 -4.92001E+02 -1.22721E+03  1.01443E+03 -2.04140E+03  1.41643E+03 -7.13126E+02
  1.20121E+03  1.92623E+02  2.32741E+02  5.64313E+02  7.66108E+00  1.29047E+03 -7.18519E+02  8.35778E+02
