 $NMID ID='MM_0lb_SNR800_13hz_g40_53.RAW', FMTDAT='(8E13.5)'
 TRAMP=1., VOLUME=1. $END
  3.09817E+05  3.52909E+02  3.37582E+05  2.50504E+05  8.48448E+04  3.38228E+05 -1.32727E+05  2.50950E+05
 -1.90275E+05  8.29643E+04 -1.11856E+05 -3.24668E+04  6.23364E+02 -5.02747E+04  5.39993E+04 -2.01584E+02
  3.51872E+04  5.27099E+04 -1.69627E+04  7.54630E+04 -6.07978E+04  6.36146E+04 -8.39237E+04  3.18730E+04
 -8.08018E+04 -1.14274E+04 -5.73837E+04 -5.14026E+04 -1.50294E+04 -6.98271E+04  2.74220E+04 -4.56365E+04
  4.00153E+04  3.76312E+03  1.63274E+04  4.75576E+04 -3.38675E+04  4.70912E+04 -6.67548E+04 -2.40669E+02
 -5.30378E+04 -5.67991E+04 -6.73007E+03 -7.70202E+04  3.39289E+04 -5.50627E+04  4.79684E+04 -1.71869E+04
  4.32316E+04  1.12469E+04  3.15672E+04  2.52487E+04  1.61527E+04  2.91770E+04 -5.23231E+03  2.73639E+04
 -2.22487E+04  1.24054E+04 -1.88034E+04 -4.59096E+03  5.59334E+03 -7.91001E+03  2.20126E+04  1.23256E+04
  7.59758E+03  3.52733E+04 -3.18267E+04  3.52111E+04 -6.32376E+04  2.04169E+03 -5.70640E+04 -4.27806E+04
 -1.26403E+04 -6.32029E+04  3.96248E+04 -4.52128E+04  5.79734E+04 -2.33828E+03  3.41073E+04  3.23253E+04
 -5.82144E+03  3.61879E+04 -3.00641E+04  1.58402E+04 -3.06704E+04 -4.48927E+03 -1.63735E+04 -1.07571E+04
 -8.11352E+03 -1.32814E+04 -5.58644E+02 -1.79843E+04  7.34477E+03 -2.29089E+04  1.52464E+04 -1.33932E+04
  1.12364E+04  5.21041E+03 -8.13016E+03  1.30693E+04 -2.10539E+04 -4.44787E+03 -8.36582E+03 -3.37565E+04
  2.25184E+04 -4.35678E+04  4.79433E+04 -1.94120E+04  4.53350E+04  1.94981E+04  1.58237E+04  4.40392E+04
 -1.58096E+04  3.33478E+04 -2.56444E+04  1.94545E+03 -9.53706E+03 -2.77573E+04  2.12371E+04 -3.37697E+04
  4.12096E+04 -9.46893E+03  3.49890E+04  2.35299E+04  1.85093E+04  4.61891E+04 -7.89228E+03  5.01104E+04
 -3.14897E+04  3.37810E+04 -4.17385E+04  9.49123E+03 -4.25742E+04 -1.63027E+04 -2.34779E+04 -3.83557E+04
  7.61610E+03 -3.79133E+04  3.14987E+04 -1.48379E+04  2.97811E+04  1.07481E+04  3.91792E+03  1.94279E+04
 -1.36503E+04  8.34522E+03 -1.01592E+04 -7.72662E+03  5.51188E+03 -1.09722E+04  1.79342E+04  6.22988E+03
  1.30723E+04  2.22634E+04 -6.12603E+03  2.51137E+04 -2.21756E+04  1.12950E+04 -2.80168E+04 -4.70891E+03
 -2.07365E+04 -1.75544E+04 -8.31127E+03 -2.04594E+04  3.55327E+03 -1.96129E+04  1.56827E+04 -1.84099E+04
  2.63429E+04 -1.26304E+04  3.24380E+04  2.37824E+03  2.36601E+04  1.97643E+04  4.26276E+03  3.63391E+04
 -1.74014E+04  3.03699E+04 -2.80794E+04  1.03199E+04 -2.09147E+04 -1.03593E+04 -4.23787E+03 -1.35508E+04
  1.56735E+03 -2.17084E+03 -4.90707E+03  6.66983E+03 -1.64213E+04  5.25668E+03 -1.66161E+04 -7.16408E+03
 -1.00110E+04 -1.91243E+04  5.23412E+03 -2.32975E+04  1.55529E+04 -1.67856E+04  1.82008E+04 -1.89603E+03
  1.15443E+04  1.32192E+04 -1.25246E+03  1.89212E+04 -1.32799E+04  1.10415E+04 -1.90681E+04 -4.23896E+03
 -1.37128E+04 -1.70395E+04 -1.90543E+03 -2.31631E+04  1.02845E+04 -1.90274E+04  1.92469E+04 -9.34890E+03
  1.77790E+04  4.84286E+02  1.24704E+04  4.37875E+03  6.62129E+03  9.70151E+02  9.68497E+03 -1.68544E+03
  1.76473E+04  2.65123E+03  1.96696E+04  1.53421E+04  1.29689E+04  3.02771E+04 -2.82008E+03  3.44184E+04
 -2.02289E+04  2.75958E+04 -3.20018E+04  1.39733E+04 -3.37035E+04 -2.18542E+03 -2.77910E+04 -1.96167E+04
 -1.21147E+04 -2.79594E+04  9.75497E+03 -2.49211E+04  2.14578E+04 -1.28654E+04  1.95337E+04  5.59551E+03
  7.47577E+03  1.44002E+04 -9.12905E+03  1.26095E+04 -1.63177E+04  2.52046E+03 -1.25239E+04 -9.86087E+03
 -1.89436E+02 -1.55198E+04  7.68887E+03 -1.14549E+04  1.04045E+04 -1.61148E+03  2.18455E+03  6.14293E+03
 -6.94140E+03  2.47532E+03 -6.35367E+03 -5.31060E+03 -9.11718E+02 -1.36244E+04  9.87866E+03 -1.44601E+04
  1.69887E+04 -7.51929E+03  1.78594E+04  3.10913E+03  1.57633E+04  1.32952E+04  7.55964E+03  2.05079E+04
 -3.21555E+03  2.25505E+04 -1.40961E+04  1.40653E+04 -1.60980E+04  3.47481E+03 -1.17432E+04 -3.80688E+03
 -5.46362E+03 -4.86709E+03 -7.43831E+02  7.76370E+02 -2.47544E+03  2.54954E+03 -4.83826E+03  4.50229E+03
 -1.09170E+04 -4.26686E+02 -1.14145E+04 -9.16327E+03 -4.78647E+03 -1.51301E+04  4.84929E+03 -1.17871E+04
  9.81411E+03 -4.98302E+03  6.91710E+03  3.00523E+03  2.26412E+02  4.52113E+03 -5.70044E+03 -1.59704E+02
 -5.31015E+03 -7.01855E+03 -9.71109E+02 -1.08118E+04  6.27001E+03 -1.16853E+04  1.43369E+04 -6.06815E+03
  1.70957E+04  1.60124E+03  1.23399E+04  9.45945E+03  2.46823E+03  1.30789E+04 -7.10330E+03  1.12330E+04
 -9.17981E+03  3.53508E+03 -4.95401E+03 -2.32819E+03  1.53908E+03 -3.02930E+03  6.39764E+03 -8.56494E+02
  5.42373E+03  5.00971E+03  1.25185E+03  9.19630E+03 -6.30357E+03  8.91118E+03 -1.15328E+04  2.11992E+03
 -7.04454E+03 -5.81528E+03  5.55494E+02 -9.50443E+03  5.86950E+03 -4.69122E+03  6.01405E+03  1.72849E+03
  1.20823E+03  6.21518E+03 -5.97020E+03  7.58136E+03 -8.77927E+03  3.69212E+03 -8.72524E+03 -2.91243E+03
 -5.29033E+03 -1.04348E+04  2.34693E+03 -1.15272E+04  1.00379E+04 -6.95127E+03  1.08101E+04  1.79687E+03
  6.91279E+03  8.92667E+03 -6.06325E+02  1.08029E+04 -7.79710E+03  6.03795E+03 -8.36264E+03 -8.02885E+02
 -7.57875E+03 -7.44691E+03 -1.26391E+03 -7.94037E+03  4.16852E+03 -6.70164E+03  4.95479E+03 -3.18959E+03
  3.55392E+03  8.33537E+02 -2.69554E+02  1.44112E+03 -4.29168E+01 -1.49652E+03  9.62873E+02 -4.45672E+03
  7.21121E+03 -2.62849E+03  9.58452E+03  1.16061E+03  9.72202E+03  6.33599E+03  7.16433E+03  1.28968E+04
 -2.92008E+03  1.47266E+04 -1.29978E+04  1.11101E+04 -1.64761E+04  1.94266E+03 -1.32569E+04 -5.28998E+03
 -6.61393E+03 -1.09757E+04 -3.55675E+02 -9.06784E+03  3.44777E+03 -4.70111E+03  3.24499E+03 -3.13993E+03
  2.21519E+03 -2.00254E+03  2.94696E+03 -3.14449E+03  4.47459E+03 -2.37338E+03  5.53248E+03 -3.33045E+02
  7.14815E+03  1.54357E+03  3.07605E+03  5.71193E+03 -1.33826E+03  6.14161E+03 -7.52949E+03  5.23272E+03
 -9.00369E+03 -8.76813E+02 -4.92008E+03 -6.30722E+03 -5.40990E+02 -9.29545E+03  5.57683E+03 -9.49098E+03
  9.72620E+03 -5.47738E+03  1.19458E+04  1.64024E+03  8.45936E+03  8.25440E+03  1.59845E+03  1.10583E+04
 -4.49345E+03  9.15471E+03 -6.33079E+03  2.86265E+03 -4.08452E+03 -1.48857E+03 -1.78728E+03 -1.02903E+03
 -1.09222E+03  1.63540E+02 -1.51546E+03  2.78783E+03 -4.09802E+03  1.64294E+03 -6.48898E+03 -8.81126E+02
 -4.06138E+03 -6.30521E+03  7.29238E+02 -8.83694E+03  5.53347E+03 -8.25928E+03  8.05501E+03 -2.52830E+03
  8.28767E+03  4.24907E+03  3.80267E+03  7.22237E+03 -2.07596E+03  8.66096E+03 -6.02359E+03  5.63037E+03
 -7.66916E+03  7.18541E+02 -6.40195E+03 -4.61139E+03 -7.38986E+02 -6.76945E+03  3.74772E+03 -4.93008E+03
  5.34232E+03 -2.05582E+03  3.74514E+03  1.41264E+03  1.35697E+03  2.75003E+03  1.02612E+03  1.31619E+03
  2.16414E+03  7.97274E+02  2.36762E+03  1.25521E+03  2.50069E+03  3.57118E+03  2.50507E+03  3.96661E+03
 -1.76620E+03  6.79262E+03 -5.72903E+03  7.08784E+03 -8.07376E+03  2.02199E+03 -8.84105E+03 -2.59768E+03
 -4.16037E+03 -8.21757E+03  1.18674E+03 -9.61771E+03  4.79033E+03 -5.54119E+03  6.52386E+03 -1.50299E+03
  5.33861E+03  3.15988E+03  8.24843E+02  4.69280E+03 -2.18529E+03  2.90286E+03 -3.11020E+03 -3.69464E+02
 -1.43547E+03 -3.65188E+03  2.24539E+03 -3.24701E+03  3.21582E+03 -2.18083E+03  3.13421E+03  5.04395E+02
  1.72162E+03  1.31409E+03  1.04129E+03  9.96996E+02 -4.04265E+02  1.41798E+03  1.50472E+03 -4.50719E+02
  1.06872E+03 -5.87724E+02  3.45838E+03  1.28219E+03  1.63023E+03  4.46128E+03 -3.70176E+02  5.82070E+03
 -3.77436E+03  3.64065E+03 -5.19591E+03  1.01751E+03 -4.76646E+03 -1.85322E+03 -1.60500E+03 -2.62159E+03
  5.52050E+02 -3.05759E+03  1.96831E+03 -1.51835E+03  1.54489E+03  1.80827E+03 -1.03600E+03  2.62579E+03
 -3.19706E+03  1.59788E+03 -3.44374E+03 -2.52058E+03 -1.59194E+03 -4.39866E+03  8.08301E+02 -4.27151E+03
  2.09020E+03 -2.14461E+03  2.82129E+03 -6.25247E+01  3.03799E+03  7.41726E+02  4.47192E+02  2.60813E+03
 -1.43482E+03  7.16749E+02 -2.01171E+03 -1.29790E+03  7.90831E+02 -3.16649E+03  4.01322E+03 -2.25691E+03
  4.29993E+03  7.70681E+01  5.37051E+03  2.79857E+03  2.04007E+03  4.96876E+03 -1.85629E+03  4.52843E+03
 -3.84703E+03  1.68878E+03 -4.12639E+03 -4.14629E+02 -2.32051E+03 -3.44193E+03  4.70310E+02 -2.10888E+03
  3.11698E+03 -1.58253E+03  2.37782E+03  1.54701E+03  6.23169E+02  2.85712E+03 -2.16250E+02  2.33001E+03
 -1.27264E+03  2.05395E+03 -1.37334E+03  8.70923E+02 -7.32176E+02  4.28238E+02 -8.20269E+02  1.22671E+03
 -1.50685E+03  1.99275E+03 -3.74167E+03  1.78997E+03 -4.55132E+03  5.34602E+02 -5.55320E+03 -3.14213E+03
 -2.86819E+03 -6.29463E+03  1.42408E+03 -7.60558E+03  4.32503E+03 -5.85163E+03  6.64622E+03 -2.48297E+03
  6.50653E+03  1.13623E+03  3.53889E+03  4.17635E+03 -2.89418E+01  4.92150E+03 -1.70500E+03  3.54559E+03
 -2.35687E+03  1.62469E+03 -1.90482E+03 -5.51497E+02 -5.80146E+02 -2.00558E+02 -4.87114E+02 -7.81866E+00
 -1.10171E+03  3.27065E+02 -1.38026E+03  4.49956E+01  1.97249E+02 -1.14111E+03 -4.29141E+02 -2.19200E+03
  2.25987E+03 -1.59717E+03  2.47477E+03  1.99510E+02  3.62089E+03  2.29421E+03  4.08365E+02  4.36065E+03
 -2.37956E+03  5.53042E+03 -4.81171E+03  3.19290E+03 -5.91392E+03 -4.95049E+02 -4.26878E+03 -3.70721E+03
 -1.71787E+03 -4.46637E+03  1.30910E+03 -4.46325E+03  2.67364E+03 -2.32142E+03  2.79831E+03 -3.71722E+01
  1.68285E+03  1.16013E+03 -2.38902E+02  1.39770E+03 -7.13184E+02 -2.76013E+02  1.76368E+00 -7.51803E+02
  1.58253E+03 -3.15221E+02  1.85206E+03  6.18941E+02  8.81386E+02  1.70657E+03  3.07336E+02  1.79072E+03
 -1.98027E+03  1.93376E+03 -2.56328E+03  3.17216E+02 -2.59010E+03 -2.17435E+03 -1.75841E+02 -3.67781E+03
  1.90274E+03 -2.99998E+03  2.91521E+03 -6.19171E+02  3.37839E+03  1.89544E+02  1.99964E+03  2.72380E+03
  8.86956E+02  2.93621E+03 -1.15152E+03  2.03056E+03 -1.76682E+03  1.49730E+03 -1.63786E+03  2.24165E+02
 -6.22053E+02 -8.11374E+01 -8.21840E+02  3.93942E+02 -1.65065E+03  5.80092E+02 -2.20442E+03 -5.59244E+02
 -2.59675E+03 -1.33165E+03 -6.26690E+02 -3.16613E+03  1.35119E+03 -3.70494E+03  2.40261E+03 -1.42730E+03
  3.00710E+03  3.14591E+02  1.35884E+03  1.82661E+03 -2.70788E+02  3.03554E+03 -2.15652E+03  1.75590E+03
