 $NMID ID='MM_0lb_SNR800_13hz_g45_25.RAW', FMTDAT='(8E13.5)'
 TRAMP=1., VOLUME=1. $END
  3.09818E+05  6.57100E+02  3.37772E+05  2.50929E+05  8.45384E+04  3.37906E+05 -1.32569E+05  2.51162E+05
 -1.90652E+05  8.32073E+04 -1.11767E+05 -3.25096E+04  1.31515E+03 -5.05329E+04  5.37111E+04 -5.58354E+02
  3.52915E+04  5.30124E+04 -1.67696E+04  7.52969E+04 -6.06759E+04  6.35275E+04 -8.44879E+04  3.24456E+04
 -8.16096E+04 -1.13214E+04 -5.71559E+04 -5.14754E+04 -1.51525E+04 -6.94984E+04  2.73363E+04 -4.60587E+04
  4.00755E+04  3.76746E+03  1.62142E+04  4.78701E+04 -3.45025E+04  4.74762E+04 -6.67311E+04 -1.75256E+02
 -5.33035E+04 -5.67139E+04 -6.77492E+03 -7.72843E+04  3.41524E+04 -5.50574E+04  4.80835E+04 -1.69002E+04
  4.33776E+04  1.12428E+04  3.21230E+04  2.53305E+04  1.57904E+04  2.94629E+04 -5.26655E+03  2.71417E+04
 -2.17723E+04  1.23238E+04 -1.83513E+04 -5.30774E+03  5.55154E+03 -7.57710E+03  2.22655E+04  1.22598E+04
  7.22069E+03  3.53806E+04 -3.20185E+04  3.52207E+04 -6.33735E+04  2.04935E+03 -5.70197E+04 -4.30984E+04
 -1.24163E+04 -6.31813E+04  3.99507E+04 -4.58634E+04  5.84874E+04 -2.02754E+03  3.45132E+04  3.24512E+04
 -5.49731E+03  3.59721E+04 -3.00918E+04  1.60957E+04 -3.04183E+04 -4.40183E+03 -1.70549E+04 -1.12487E+04
 -8.60887E+03 -1.33839E+04 -7.78780E+02 -1.82773E+04  7.70587E+03 -2.31861E+04  1.54325E+04 -1.33128E+04
  1.12965E+04  5.04944E+03 -8.39267E+03  1.29558E+04 -2.12099E+04 -4.59032E+03 -8.35279E+03 -3.41118E+04
  2.31877E+04 -4.35646E+04  4.87910E+04 -1.98050E+04  4.52973E+04  1.96393E+04  1.59018E+04  4.45273E+04
 -1.63567E+04  3.35483E+04 -2.55394E+04  1.75160E+03 -1.02892E+04 -2.78790E+04  2.12208E+04 -3.41682E+04
  4.13800E+04 -9.13615E+03  3.61203E+04  2.38127E+04  1.85353E+04  4.70442E+04 -7.98830E+03  5.11052E+04
 -3.20944E+04  3.43733E+04 -4.25499E+04  9.67896E+03 -4.32582E+04 -1.68085E+04 -2.35404E+04 -3.82418E+04
  7.31795E+03 -3.81598E+04  3.18081E+04 -1.49039E+04  2.95832E+04  1.07682E+04  4.31180E+03  1.92941E+04
 -1.37788E+04  8.41219E+03 -1.03917E+04 -7.42099E+03  5.90116E+03 -1.07133E+04  1.80981E+04  5.98927E+03
  1.36109E+04  2.20461E+04 -5.81886E+03  2.51115E+04 -2.25015E+04  1.17098E+04 -2.85144E+04 -4.24144E+03
 -2.10534E+04 -1.75779E+04 -8.74819E+03 -2.13401E+04  3.90359E+03 -2.02114E+04  1.62379E+04 -1.89017E+04
  2.66391E+04 -1.30660E+04  3.31899E+04  3.20546E+03  2.41207E+04  2.03174E+04  4.19122E+03  3.68054E+04
 -1.82480E+04  3.07762E+04 -2.82840E+04  1.07396E+04 -2.10769E+04 -1.01631E+04 -4.59837E+03 -1.33416E+04
  2.01195E+03 -2.98006E+03 -5.30059E+03  6.65132E+03 -1.63762E+04  5.10098E+03 -1.66669E+04 -7.15906E+03
 -1.03824E+04 -1.95575E+04  5.52451E+03 -2.39919E+04  1.55881E+04 -1.70216E+04  1.85850E+04 -1.78635E+03
  1.18330E+04  1.37718E+04 -9.86743E+02  1.93921E+04 -1.33872E+04  1.13793E+04 -1.92878E+04 -3.89519E+03
 -1.43614E+04 -1.74637E+04 -1.79680E+03 -2.37175E+04  1.04498E+04 -1.93481E+04  1.96726E+04 -9.62679E+03
  1.81855E+04  1.77568E+02  1.33467E+04  4.69366E+03  6.80248E+03  1.02697E+03  9.57577E+03 -1.69349E+03
  1.78235E+04  2.80813E+03  1.99406E+04  1.55057E+04  1.31649E+04  3.14272E+04 -2.79403E+03  3.53881E+04
 -2.06095E+04  2.82034E+04 -3.29369E+04  1.45127E+04 -3.43757E+04 -2.40312E+03 -2.85016E+04 -1.97050E+04
 -1.22949E+04 -2.85867E+04  9.72600E+03 -2.60465E+04  2.21567E+04 -1.34177E+04  1.96017E+04  5.64757E+03
  7.19986E+03  1.47785E+04 -9.39516E+03  1.30678E+04 -1.66215E+04  2.48505E+03 -1.27090E+04 -1.04157E+04
 -2.22752E+02 -1.57920E+04  8.23325E+03 -1.16479E+04  1.06939E+04 -1.30153E+03  2.52867E+03  6.70097E+03
 -7.21442E+03  2.91712E+03 -6.62772E+03 -5.69580E+03 -6.38449E+02 -1.40404E+04  9.58934E+03 -1.48147E+04
  1.75409E+04 -8.12773E+03  1.90358E+04  3.04340E+03  1.60671E+04  1.37716E+04  7.75638E+03  2.11934E+04
 -3.47821E+03  2.32062E+04 -1.46785E+04  1.45895E+04 -1.66530E+04  3.39384E+03 -1.19963E+04 -3.97376E+03
 -5.81372E+03 -4.96475E+03 -5.00174E+02  1.02808E+03 -2.51710E+03  2.69949E+03 -5.47526E+03  4.24091E+03
 -1.09976E+04 -7.24045E+02 -1.13918E+04 -9.81015E+03 -4.65161E+03 -1.52467E+04  4.81784E+03 -1.18831E+04
  1.00485E+04 -4.98096E+03  6.93724E+03  3.23745E+03  1.61299E+00  4.57256E+03 -5.51854E+03  3.48621E+01
 -5.19601E+03 -7.43876E+03 -5.83816E+02 -1.13695E+04  6.11320E+03 -1.19984E+04  1.44887E+04 -6.39584E+03
  1.70978E+04  1.41719E+03  1.24541E+04  9.94021E+03  2.67208E+03  1.32806E+04 -7.06060E+03  1.17748E+04
 -9.69155E+03  3.55015E+03 -5.01954E+03 -2.34433E+03  1.97201E+03 -2.98266E+03  6.02593E+03 -1.12179E+03
  5.80796E+03  4.82309E+03  9.65136E+02  9.64148E+03 -6.34241E+03  9.20074E+03 -1.13034E+04  2.17357E+03
 -7.56680E+03 -5.85917E+03  5.44139E+02 -9.84655E+03  5.84811E+03 -5.07148E+03  6.31928E+03  2.22774E+03
  1.48742E+03  6.28511E+03 -5.92331E+03  7.85900E+03 -8.96164E+03  3.63333E+03 -9.05338E+03 -2.84883E+03
 -5.11061E+03 -1.03760E+04  2.53719E+03 -1.20294E+04  1.04341E+04 -7.20739E+03  1.10520E+04  1.96487E+03
  6.92917E+03  8.96907E+03 -7.87715E+02  1.12560E+04 -7.86915E+03  6.32171E+03 -8.59786E+03 -7.92701E+02
 -7.90726E+03 -7.63447E+03 -1.63198E+03 -8.37149E+03  4.22014E+03 -6.76574E+03  5.18563E+03 -3.32995E+03
  3.66869E+03  9.24570E+02 -3.78774E+02  1.47565E+03  1.72614E+00 -1.51099E+03  1.11074E+03 -4.59606E+03
  7.55317E+03 -2.68677E+03  1.04353E+04  1.00509E+03  9.88731E+03  6.80456E+03  7.83652E+03  1.31572E+04
 -2.66601E+03  1.56411E+04 -1.30331E+04  1.15653E+04 -1.68417E+04  2.39024E+03 -1.33205E+04 -5.93764E+03
 -6.94569E+03 -1.10609E+04 -2.91722E+02 -9.53460E+03  3.58011E+03 -4.74859E+03  3.37870E+03 -3.69760E+03
  2.33046E+03 -2.31771E+03  2.95649E+03 -2.91347E+03  4.60208E+03 -2.11045E+03  5.58579E+03 -2.80707E+02
  7.17596E+03  1.97520E+03  3.22170E+03  6.16483E+03 -2.00477E+03  6.68123E+03 -7.30227E+03  5.18283E+03
 -9.05943E+03 -1.03443E+03 -5.22589E+03 -6.59726E+03 -3.11803E+02 -9.83673E+03  6.08069E+03 -1.01278E+04
  1.00874E+04 -5.74793E+03  1.20921E+04  9.83339E+02  8.67766E+03  8.52571E+03  1.79608E+03  1.11042E+04
 -4.30319E+03  9.47606E+03 -6.31351E+03  2.84746E+03 -4.40510E+03 -1.23829E+03 -1.82583E+03 -1.45076E+03
 -7.26126E+02  2.16764E+02 -1.63478E+03  2.31845E+03 -4.34696E+03  1.82393E+03 -6.44016E+03 -5.73817E+02
 -3.89169E+03 -6.93646E+03  3.21875E+02 -8.98023E+03  5.41187E+03 -8.12777E+03  8.64063E+03 -2.49472E+03
  8.54959E+03  4.41441E+03  4.03262E+03  7.43053E+03 -1.90437E+03  9.09344E+03 -6.17927E+03  5.48137E+03
 -8.18038E+03  8.29634E+02 -6.13061E+03 -4.97684E+03 -6.37889E+02 -7.28945E+03  3.64606E+03 -5.31140E+03
  5.53444E+03 -1.68820E+03  3.92167E+03  1.20169E+03  1.18623E+03  2.90314E+03  9.02743E+02  1.32217E+03
  2.03941E+03  8.98170E+02  2.22738E+03  1.34151E+03  2.91665E+03  3.29123E+03  2.24016E+03  4.17452E+03
 -2.11539E+03  6.68696E+03 -5.79830E+03  7.33730E+03 -7.94709E+03  2.26066E+03 -9.00247E+03 -2.62616E+03
 -3.69856E+03 -8.50498E+03  1.22665E+03 -9.87422E+03  4.95010E+03 -6.27471E+03  6.92476E+03 -1.70518E+03
  5.50936E+03  3.34881E+03  9.88467E+02  5.05912E+03 -2.10417E+03  3.07424E+03 -2.99349E+03 -3.63731E+02
 -1.77431E+03 -3.69861E+03  2.06913E+03 -3.61445E+03  3.14745E+03 -1.82856E+03  3.16977E+03  1.02815E+03
  1.98038E+03  1.46474E+03  1.13853E+03  6.99575E+02 -5.96054E+02  1.51352E+03  1.42268E+03 -2.80732E+02
  1.22992E+03 -5.73394E+02  3.30576E+03  1.47827E+03  1.46623E+03  4.66950E+03 -2.65602E+02  5.97256E+03
 -4.23160E+03  3.55581E+03 -4.96043E+03  6.63752E+02 -4.69281E+03 -1.74399E+03 -1.53983E+03 -2.84680E+03
  5.51838E+02 -3.13760E+03  2.36784E+03 -1.14379E+03  1.44623E+03  1.50912E+03 -1.04127E+03  2.56136E+03
 -3.31814E+03  1.98135E+03 -3.69349E+03 -2.13301E+03 -2.23065E+03 -4.81883E+03  9.56647E+02 -4.62676E+03
  2.25660E+03 -2.25534E+03  3.14272E+03 -1.61267E+02  2.91165E+03  1.00961E+03  4.80804E+02  2.37336E+03
 -1.44720E+03  4.62461E+02 -2.03741E+03 -1.23935E+03  1.04029E+03 -3.19173E+03  3.98279E+03 -2.64142E+03
  4.43421E+03  3.22922E+02  5.36965E+03  3.17474E+03  1.75523E+03  5.10514E+03 -1.42809E+03  4.50675E+03
 -4.19252E+03  1.95557E+03 -4.07635E+03 -7.10492E+02 -2.38497E+03 -3.65412E+03  7.50167E+01 -2.68430E+03
  3.18829E+03 -1.75014E+03  2.38404E+03  1.65264E+03  9.81092E+02  2.93472E+03 -1.74207E+02  2.54841E+03
 -1.21353E+03  1.69504E+03 -1.21926E+03  5.31214E+02 -4.09601E+02  9.67769E+02 -1.35678E+03  9.19771E+02
 -1.61083E+03  2.12048E+03 -3.61408E+03  1.49729E+03 -5.02619E+03  4.80618E+02 -5.76425E+03 -3.05526E+03
 -2.68105E+03 -6.61465E+03  1.20103E+03 -7.56565E+03  4.11762E+03 -5.72243E+03  7.03797E+03 -2.26551E+03
  6.76795E+03  1.05042E+03  3.95032E+03  4.60029E+03 -1.59773E+02  4.93207E+03 -2.18449E+03  3.35920E+03
 -2.62227E+03  1.22643E+03 -1.44927E+03 -6.51532E+02 -8.98004E+02 -4.08496E+02 -7.64370E+02 -1.36897E+02
 -1.20623E+03 -5.17384E+01 -1.15579E+03  3.02413E+01 -8.98360E+01 -1.14164E+03  3.77591E+02 -1.81545E+03
  2.33850E+03 -1.85145E+03  2.46914E+03  1.89196E+02  3.39477E+03  2.73849E+03  4.07142E+02  4.69275E+03
 -2.53107E+03  5.47611E+03 -4.90082E+03  3.30712E+03 -5.69817E+03 -2.20822E+02 -4.23995E+03 -3.58313E+03
 -2.03396E+03 -4.79372E+03  9.10755E+02 -4.39880E+03  2.73015E+03 -2.64885E+03  2.85762E+03  1.60323E+02
  1.30749E+03  1.43946E+03 -1.24439E+02  1.22751E+03 -1.09874E+03 -1.06073E+02 -1.28120E+02 -1.12202E+03
  1.60376E+03 -1.02360E+02  1.54743E+03  9.78952E+02  8.75708E+02  1.62098E+03  3.83739E+02  1.94124E+03
 -2.14999E+03  2.39809E+03 -2.74817E+03  3.72691E+02 -2.69586E+03 -2.32147E+03 -1.75057E+02 -4.27647E+03
  1.73766E+03 -3.29626E+03  3.31451E+03 -9.02270E+02  3.77542E+03 -7.92025E+00  1.84783E+03  2.71176E+03
  5.45345E+02  2.38125E+03 -1.00600E+03  2.41739E+03 -1.71832E+03  1.55950E+03 -1.48700E+03 -1.91685E+02
 -7.28697E+02  1.75770E+02 -8.74769E+02  5.27685E+02 -1.58285E+03  3.46983E+02 -2.62760E+03 -6.28630E+02
 -2.27355E+03 -1.26567E+03 -6.80683E+02 -3.29815E+03  1.68935E+03 -3.35396E+03  2.96030E+03 -1.23927E+03
  2.60976E+03  4.96590E+02  1.20294E+03  2.15202E+03 -4.27272E+02  2.93448E+03 -2.10727E+03  1.98227E+03
