 $NMID ID='MM_0lb_SNR800_19hz_g50_89.RAW', FMTDAT='(8E13.5)'
 TRAMP=1., VOLUME=1. $END
  3.09900E+05  3.49403E+02  3.37249E+05  2.50369E+05  8.41398E+04  3.37497E+05 -1.32635E+05  2.50143E+05
 -1.89779E+05  8.24076E+04 -1.10962E+05 -3.28788E+04  1.70099E+03 -5.01894E+04  5.41235E+04  1.80943E+02
  3.51578E+04  5.29151E+04 -1.68046E+04  7.46867E+04 -6.01555E+04  6.27355E+04 -8.33137E+04  3.13663E+04
 -8.00047E+04 -1.10541E+04 -5.62001E+04 -5.03553E+04 -1.47298E+04 -6.86138E+04  2.64422E+04 -4.49638E+04
  3.92830E+04  3.96235E+03  1.58786E+04  4.72371E+04 -3.39317E+04  4.63611E+04 -6.53864E+04 -5.32107E+02
 -5.22270E+04 -5.61870E+04 -6.27657E+03 -7.54476E+04  3.31299E+04 -5.32076E+04  4.64163E+04 -1.63550E+04
  4.16051E+04  1.10226E+04  3.10957E+04  2.45154E+04  1.57100E+04  2.83685E+04 -4.61506E+03  2.66333E+04
 -2.15280E+04  1.28471E+04 -1.93242E+04 -4.19051E+03  4.40486E+03 -7.61262E+03  2.11126E+04  1.10924E+04
  7.31843E+03  3.32063E+04 -3.05785E+04  3.41676E+04 -6.11306E+04  2.09713E+03 -5.52944E+04 -4.14337E+04
 -1.23714E+04 -6.07855E+04  3.80886E+04 -4.37485E+04  5.57713E+04 -2.18615E+03  3.21698E+04  3.04899E+04
 -6.74808E+03  3.33904E+04 -2.85388E+04  1.33727E+04 -2.79608E+04 -5.28120E+03 -1.46294E+04 -1.00554E+04
 -7.37701E+03 -1.16356E+04 -1.08704E+03 -1.65160E+04  6.62215E+03 -2.27338E+04  1.49496E+04 -1.38517E+04
  1.22928E+04  3.97811E+03 -6.35847E+03  1.28935E+04 -1.95165E+04 -2.64141E+03 -8.18953E+03 -3.03991E+04
  2.07927E+04 -4.06816E+04  4.51277E+04 -1.85713E+04  4.19382E+04  1.86327E+04  1.42075E+04  4.17638E+04
 -1.53688E+04  3.12793E+04 -2.35864E+04  1.07967E+03 -8.42788E+03 -2.64989E+04  2.06300E+04 -3.14337E+04
  3.82703E+04 -7.22814E+03  3.16086E+04  2.26531E+04  1.56379E+04  4.25625E+04 -7.67560E+03  4.54359E+04
 -2.85918E+04  3.00176E+04 -3.76098E+04  8.39447E+03 -3.84708E+04 -1.49650E+04 -2.10556E+04 -3.44230E+04
  6.57302E+03 -3.41629E+04  2.93670E+04 -1.28299E+04  2.68265E+04  1.09257E+04  2.80397E+03  1.79532E+04
 -1.30549E+04  7.11393E+03 -9.56503E+03 -7.54502E+03  6.02456E+03 -1.00202E+04  1.72491E+04  6.76038E+03
  1.23913E+04  2.15522E+04 -6.65288E+03  2.33922E+04 -2.14579E+04  9.16474E+03 -2.50941E+04 -6.25961E+03
 -1.69212E+04 -1.63343E+04 -5.45620E+03 -1.70248E+04  3.78185E+03 -1.48094E+04  1.23199E+04 -1.43982E+04
  2.12492E+04 -1.17192E+04  2.82711E+04  1.23288E+03  2.09663E+04  1.62825E+04  4.08188E+03  3.24132E+04
 -1.60351E+04  2.77693E+04 -2.59567E+04  9.48169E+03 -1.99991E+04 -1.06611E+04 -4.18082E+03 -1.41020E+04
  2.60697E+03 -4.16192E+03 -2.74637E+03  5.60302E+03 -1.29838E+04  5.40508E+03 -1.35276E+04 -4.93882E+03
 -8.61032E+03 -1.54810E+04  4.45219E+03 -1.95155E+04  1.25542E+04 -1.39944E+04  1.46421E+04 -1.60698E+03
  9.10641E+03  1.05776E+04 -8.58463E+02  1.55636E+04 -1.02168E+04  8.73853E+03 -1.51581E+04 -3.30235E+03
 -1.15665E+04 -1.41077E+04 -1.34956E+03 -1.88075E+04  8.56580E+03 -1.52262E+04  1.61985E+04 -7.25383E+03
  1.42971E+04  7.50553E+02  1.02015E+04  3.97726E+03  4.86161E+03  5.88515E+02  7.51252E+03 -1.38582E+03
  1.39087E+04  2.57097E+03  1.45514E+04  1.27375E+04  9.10046E+03  2.44453E+04 -3.05820E+03  2.62632E+04
 -1.57738E+04  2.02136E+04 -2.42580E+04  9.74880E+03 -2.47298E+04 -1.83704E+03 -2.11734E+04 -1.41333E+04
 -1.02657E+04 -2.00431E+04  6.49529E+03 -1.91656E+04  1.65960E+04 -1.09776E+04  1.55474E+04  3.60894E+03
  6.64101E+03  1.09969E+04 -7.02465E+03  1.02176E+04 -1.31721E+04  2.83460E+03 -1.03430E+04 -7.77413E+03
 -9.91422E+01 -1.21369E+04  6.25027E+03 -9.40679E+03  7.99445E+03 -1.26370E+03  1.28001E+03  4.80612E+03
 -5.60512E+03  1.38319E+03 -3.50443E+03 -4.37968E+03  5.64503E+02 -1.00643E+04  7.69351E+03 -9.52337E+03
  1.18580E+04 -4.65772E+03  1.17736E+04  2.57534E+03  1.01008E+04  9.08281E+03  5.25051E+03  1.37352E+04
 -1.82160E+03  1.58322E+04 -9.28610E+03  9.96405E+03 -1.11717E+04  3.00808E+03 -8.36151E+03 -1.96402E+03
 -4.51924E+03 -3.12022E+03 -8.78732E+02  1.36022E+03 -2.16483E+03  2.13248E+03 -3.54322E+03  3.54292E+03
 -7.80532E+03 -6.14580E+02 -8.66744E+03 -7.01099E+03 -3.70994E+03 -1.13480E+04  3.43857E+03 -8.49028E+03
  7.05284E+03 -3.72750E+03  5.27322E+03  2.11017E+03  7.09729E+02  2.92899E+03 -3.53464E+03 -1.22864E+02
 -3.34561E+03 -5.06941E+03 -9.16008E+02 -6.98979E+03  3.94038E+03 -7.70603E+03  9.80552E+03 -4.08171E+03
  1.13820E+04  5.27251E+02  8.46044E+03  5.96118E+03  1.76673E+03  8.40185E+03 -5.16878E+03  8.22982E+03
 -6.80362E+03  2.74599E+03 -3.59984E+03 -1.06960E+03  1.40460E+03 -1.91306E+03  4.93628E+03 -6.44656E+02
  3.98133E+03  3.34946E+03  1.21954E+03  6.28328E+03 -4.28775E+03  6.42900E+03 -7.70615E+03  1.80005E+03
 -4.80466E+03 -3.53391E+03  1.54525E+02 -6.76001E+03  3.67595E+03 -3.03257E+03  3.30921E+03  8.60242E+02
  2.14236E+02  3.38329E+03 -3.97064E+03  4.67682E+03 -4.50220E+03  2.33738E+03 -4.21753E+03 -1.02965E+03
 -3.01466E+03 -5.47214E+03  1.05784E+03 -6.64044E+03  5.75100E+03 -4.52184E+03  6.37399E+03  9.72091E+02
  4.33770E+03  5.16253E+03  2.90685E+02  7.10635E+03 -5.15754E+03  4.21411E+03 -5.18626E+03 -4.21638E+02
 -5.49667E+03 -4.81644E+03 -1.38007E+03 -5.03996E+03  2.57304E+03 -4.30765E+03  2.60984E+03 -2.97067E+03
  2.90766E+03  1.32121E+02 -1.01519E+02  1.12921E+03  7.57466E+02 -2.07381E+02  1.85555E+02 -1.60484E+03
  3.73621E+03 -7.05154E+02  4.79903E+03  6.57120E+02  5.33334E+03  2.77314E+03  5.14936E+03  6.85380E+03
 -1.14987E+03  8.03004E+03 -7.31671E+03  6.39281E+03 -9.67318E+03  1.18895E+03 -7.75244E+03 -2.36709E+03
 -4.14026E+03 -6.25626E+03 -2.26330E+02 -5.00053E+03  1.89366E+03 -1.80708E+03  1.34976E+03 -1.93896E+03
  1.12293E+03 -1.49977E+03  2.01248E+03 -2.27028E+03  3.62862E+03 -1.31051E+03  3.70713E+03  3.92702E+02
  4.39265E+03  1.30097E+03  1.03137E+03  3.08767E+03 -1.47647E+03  2.36175E+03 -4.49296E+03  2.58192E+03
 -4.61174E+03 -1.03042E+03 -1.44851E+03 -3.35787E+03  6.08875E+02 -4.65351E+03  2.84286E+03 -4.86426E+03
  4.92901E+03 -3.07755E+03  6.33184E+03  4.03531E+01  4.53125E+03  3.93332E+03  7.53106E+02  5.55988E+03
 -1.84469E+03  5.63802E+03 -3.44398E+03  1.80285E+03 -1.90267E+03 -8.18208E+02 -4.46281E+02 -6.18006E+02
 -5.12315E+02  7.06774E+02 -6.64793E+02  1.92138E+03 -2.55179E+03  1.25485E+03 -3.90343E+03 -1.22516E+02
 -1.88453E+03 -3.86878E+03  8.92789E+02 -4.29458E+03  2.39636E+03 -4.07611E+03  3.45018E+03 -1.18036E+03
  3.90299E+03  2.32186E+03  1.67638E+03  3.03946E+03 -6.26344E+02  4.23072E+03 -2.55634E+03  2.76524E+03
 -3.38540E+03  6.29465E+02 -3.16467E+03 -2.39335E+03 -2.38803E+02 -3.05449E+03  1.59797E+03 -2.17846E+03
  2.48529E+03 -1.23484E+03  1.58776E+03  3.37100E+02  4.99162E+02  1.67271E+03  9.42315E+02  3.46367E+02
  1.66170E+03  7.63279E+02  1.20418E+03  8.09621E+02  1.07006E+03  1.97405E+03  1.43261E+03  1.46534E+03
 -1.25302E+03  2.58570E+03 -2.30963E+03  3.71463E+03 -2.82853E+03  1.24508E+03 -3.95481E+03 -7.95275E+02
 -1.59673E+03 -2.99734E+03  5.84338E+02 -4.37605E+03  1.66750E+03 -2.40300E+03  2.85813E+03 -7.71900E+02
  2.20190E+03  1.67345E+03  4.01815E+02  1.82950E+03 -7.81859E+02  1.46203E+03 -8.81207E+02 -2.79474E+02
 -6.16519E+02 -1.23001E+03  9.19512E+02 -1.49365E+03  1.17955E+03 -9.34796E+02  1.35030E+03  4.82441E+02
  6.12937E+02  1.63169E+02  6.74529E+02 -4.40214E+02 -1.47840E+02  6.91131E+02  1.28240E+03 -4.41623E+02
 -1.51304E+02 -1.65946E+01  1.50677E+03  7.75535E+02  2.87951E+02  2.27025E+03 -3.86079E+02  2.42266E+03
 -1.53251E+03  1.04402E+03 -1.73333E+03  4.59082E+02 -2.09446E+03 -5.18962E+02 -1.68566E+02 -1.22056E+03
  3.37653E+02 -1.05507E+03  7.72770E+02 -8.18470E+02  4.16218E+02  1.26867E+03 -8.98831E+02  1.29065E+03
 -1.35224E+03  4.54785E+02 -1.01625E+03 -1.05901E+03 -8.36370E+02 -1.86784E+03  2.20580E+02 -1.45685E+03
  2.70711E+02 -2.16427E+02  4.98543E+02  3.19610E+02  1.18786E+03 -8.44248E+01  3.71600E+02  8.63939E+02
 -4.13175E+02  2.70194E+02 -9.52196E+02 -1.50457E+02  7.97495E+02 -5.70512E+02  1.44496E+03 -6.46191E+02
  1.06319E+03  4.39527E+02  2.67939E+03  3.87146E+02  1.10499E+03  1.57439E+03 -4.42825E+02  1.17623E+03
 -1.22541E+03 -1.08210E+01 -1.34315E+03 -2.60874E+01 -9.17600E+02 -1.35917E+03  1.33720E+02 -2.92070E+02
  1.31523E+03 -5.70016E+02  7.71525E+02  5.97867E+02  2.76506E+02  1.12448E+03  1.87963E+02  1.27927E+03
 -5.62973E+02  8.16428E+02 -1.62211E+02 -6.33799E+01 -6.79473E+01  3.95929E+02 -8.14810E+02  5.03104E+02
 -7.80355E+02  9.28808E+02 -1.67441E+03  6.15061E+02 -1.44666E+03  2.85004E+02 -2.20228E+03 -1.03156E+03
 -1.04068E+03 -1.94155E+03  6.19182E+02 -2.64277E+03  7.50135E+02 -2.26560E+03  2.56901E+03 -8.40783E+02
  1.96075E+03 -3.79672E+02  1.20462E+03  1.43681E+03 -4.56604E+02  1.14440E+03 -7.38506E+02  1.05980E+03
 -8.32939E+02  8.59483E+02 -4.05034E+02 -6.26017E+01 -6.00881E+02  2.44217E+02 -6.20376E+02 -8.67887E+01
 -1.14976E+03 -6.54698E+01 -1.00809E+03 -1.42921E+02  3.76789E+02 -4.42158E+02 -3.01402E+02 -9.68828E+02
  1.16797E+03 -4.42024E+02  2.77051E+02  1.77781E+02  8.86750E+02  1.04268E+03 -7.27037E+02  1.29662E+03
 -8.30073E+02  1.90720E+03 -1.58504E+03  9.36002E+02 -1.39707E+03 -1.11882E+02 -1.01377E+03 -1.19464E+03
 -9.25285E+02 -1.20118E+03  3.66155E+02 -1.06326E+03  3.92347E+02 -5.72837E+02  6.45431E+02  1.42961E+02
  5.57000E+02  2.87558E+02  1.51314E+02  3.86384E+02 -1.71971E+02  2.07159E+01 -3.21641E+01 -1.90910E+02
  5.03375E+02  3.06710E+02  1.59037E+02  9.34484E+01 -2.24066E+01  1.99359E+02  4.91623E+02  2.11845E+02
 -7.11108E+02  6.18137E+02 -2.79416E+02  2.44752E+02 -6.36567E+02 -2.08515E+02  3.39670E+02 -8.24263E+02
  4.59030E+02 -7.91176E+02  5.27312E+02  4.36587E+01  7.16424E+02 -5.15708E+02  1.53248E+01  6.54752E+02
  4.65161E+02  4.13053E+02 -1.70061E+02  4.15567E+02 -4.58554E+02  4.34435E+02 -3.48770E+02  1.04624E+02
 -1.60952E+02 -1.24675E+02 -5.66450E+02  2.96758E+01 -2.77143E+02  1.48535E+00 -8.03261E+02 -3.78544E+02
 -1.00618E+03  3.28650E+02 -4.23399E+02 -8.27547E+02  3.39617E+02 -1.45625E+03  3.70934E+02 -1.57120E+02
  4.82044E+02  2.13635E+01 -2.85242E+02 -1.57105E+02  2.01278E+01  6.93043E+02 -1.24486E+02  5.13526E+02
