 $NMID ID='MM_0lb_SNR800_9hz_g60_92.RAW', FMTDAT='(8E13.5)'
 TRAMP=1., VOLUME=1. $END
  3.09875E+05  7.67820E+02  3.37824E+05  2.50743E+05  8.50753E+04  3.38681E+05 -1.32519E+05  2.52120E+05
 -1.90986E+05  8.43573E+04 -1.12842E+05 -3.24666E+04  3.66199E+02 -5.08194E+04  5.32843E+04 -2.53064E+02
  3.59117E+04  5.28761E+04 -1.70089E+04  7.64037E+04 -6.13721E+04  6.45533E+04 -8.55807E+04  3.26256E+04
 -8.29053E+04 -1.16065E+04 -5.83455E+04 -5.25778E+04 -1.50890E+04 -7.08839E+04  2.85585E+04 -4.73641E+04
  4.16024E+04  3.49718E+03  1.70319E+04  4.89323E+04 -3.51000E+04  4.85151E+04 -6.88833E+04  2.11659E+02
 -5.49097E+04 -5.83698E+04 -7.43899E+03 -7.99435E+04  3.49115E+04 -5.73972E+04  5.00464E+04 -1.83749E+04
  4.59542E+04  1.13330E+04  3.30409E+04  2.71683E+04  1.62375E+04  3.10711E+04 -6.16676E+03  2.77003E+04
 -2.28888E+04  1.21484E+04 -1.74320E+04 -5.82522E+03  7.50671E+03 -7.82882E+03  2.37641E+04  1.41398E+04
  7.35609E+03  3.78084E+04 -3.42364E+04  3.72585E+04 -6.65124E+04  2.33831E+03 -5.92625E+04 -4.46744E+04
 -1.22869E+04 -6.64568E+04  4.22547E+04 -4.80201E+04  6.15034E+04 -2.59288E+03  3.71500E+04  3.44297E+04
 -5.38133E+03  4.03721E+04 -3.23548E+04  1.93041E+04 -3.41764E+04 -3.49666E+03 -1.96019E+04 -1.24058E+04
 -9.54676E+03 -1.53991E+04 -2.31320E+02 -2.03236E+04  8.41166E+03 -2.36829E+04  1.59711E+04 -1.26063E+04
  1.05638E+04  6.55727E+03 -1.10634E+04  1.27927E+04 -2.37467E+04 -7.14186E+03 -8.84661E+03 -3.81271E+04
  2.60227E+04 -4.72906E+04  5.30391E+04 -2.13651E+04  4.96779E+04  2.13300E+04  1.81031E+04  4.75951E+04
 -1.70457E+04  3.66570E+04 -2.82123E+04  3.04947E+03 -1.19669E+04 -2.99990E+04  2.16240E+04 -3.75620E+04
  4.52318E+04 -1.17615E+04  4.14732E+04  2.57296E+04  2.19303E+04  5.20628E+04 -8.33589E+03  5.70705E+04
 -3.61577E+04  3.96093E+04 -4.89011E+04  1.18378E+04 -4.86903E+04 -1.87893E+04 -2.69033E+04 -4.30973E+04
  7.93449E+03 -4.32328E+04  3.47457E+04 -1.79101E+04  3.23532E+04  1.08257E+04  5.19827E+03  2.10335E+04
 -1.39572E+04  9.55386E+03 -1.15720E+04 -7.64287E+03  5.74817E+03 -1.13484E+04  1.89376E+04  5.47875E+03
  1.51621E+04  2.30171E+04 -4.77969E+03  2.74028E+04 -2.33605E+04  1.50788E+04 -3.20736E+04 -2.69369E+03
 -2.62708E+04 -1.93056E+04 -1.24717E+04 -2.57714E+04  4.50521E+03 -2.69272E+04  2.07563E+04 -2.40529E+04
  3.36487E+04 -1.49494E+04  3.90935E+04  5.36298E+03  2.76562E+04  2.53663E+04  4.49732E+03  4.25495E+04
 -2.03971E+04  3.47398E+04 -3.11726E+04  1.22410E+04 -2.27952E+04 -9.98886E+03 -5.02339E+03 -1.25724E+04
  8.66150E+02 -6.57968E+02 -8.58283E+03  8.50710E+03 -2.11474E+04  5.12577E+03 -2.11444E+04 -9.85921E+03
 -1.22807E+04 -2.38667E+04  6.12693E+03 -2.87815E+04  1.96934E+04 -2.07652E+04  2.32710E+04 -1.60111E+03
  1.50406E+04  1.69071E+04 -1.59276E+03  2.44695E+04 -1.71565E+04  1.40407E+04 -2.44998E+04 -4.75679E+03
 -1.80653E+04 -2.20567E+04 -2.50082E+03 -2.91269E+04  1.33035E+04 -2.41575E+04  2.39939E+04 -1.27162E+04
  2.29724E+04 -3.97119E+02  1.65855E+04  5.54145E+03  9.00234E+03  1.38187E+03  1.26953E+04 -2.08059E+03
  2.28150E+04  2.77152E+03  2.62875E+04  1.88193E+04  1.83349E+04  3.91451E+04 -2.90288E+03  4.60243E+04
 -2.63628E+04  3.90602E+04 -4.42435E+04  2.03451E+04 -4.72804E+04 -3.65589E+03 -3.81481E+04 -2.77855E+04
 -1.48027E+04 -3.91960E+04  1.36565E+04 -3.42479E+04  2.93237E+04 -1.54733E+04  2.53903E+04  8.17305E+03
  8.35941E+03  1.97545E+04 -1.20631E+04  1.62157E+04 -2.11651E+04  2.77608E+03 -1.55781E+04 -1.33942E+04
 -2.11808E+02 -2.00300E+04  1.13971E+04 -1.51743E+04  1.39744E+04 -1.05933E+03  3.79321E+03  9.57388E+03
 -9.19558E+03  4.41976E+03 -9.88073E+03 -7.30472E+03 -2.28693E+03 -1.95373E+04  1.24816E+04 -2.09184E+04
  2.45941E+04 -1.20769E+04  2.77800E+04  3.59885E+03  2.42498E+04  1.97954E+04  1.10891E+04  3.10054E+04
 -5.91144E+03  3.33698E+04 -2.15601E+04  2.04451E+04 -2.43239E+04  4.35733E+03 -1.59650E+04 -6.34110E+03
 -6.75806E+03 -7.60967E+03 -7.00189E+02  4.49835E+02 -3.21903E+03  3.30232E+03 -7.99109E+03  5.43097E+03
 -1.46235E+04 -1.08061E+03 -1.57938E+04 -1.22996E+04 -5.84036E+03 -2.03653E+04  6.61159E+03 -1.65912E+04
  1.34428E+04 -6.62643E+03  9.48724E+03  4.85592E+03 -4.40158E+02  6.59683E+03 -8.55540E+03  1.56885E+02
 -8.15705E+03 -1.03324E+04 -1.16705E+03 -1.63825E+04  9.61667E+03 -1.76729E+04  2.15487E+04 -9.60984E+03
  2.48285E+04  2.52053E+03  1.79609E+04  1.55432E+04  3.46472E+03  2.01153E+04 -1.05833E+04  1.61831E+04
 -1.34813E+04  4.55884E+03 -6.85021E+03 -3.79075E+03  2.65890E+03 -4.30085E+03  8.60795E+03 -9.43914E+02
  7.88264E+03  7.36460E+03  1.35664E+03  1.34179E+04 -9.94144E+03  1.30344E+04 -1.60019E+04  2.98285E+03
 -1.19695E+04 -8.67656E+03  4.33904E+02 -1.46972E+04  9.39103E+03 -7.31715E+03  1.02104E+04  3.59095E+03
  2.81682E+03  1.05929E+04 -8.44257E+03  1.26031E+04 -1.48003E+04  5.57180E+03 -1.49719E+04 -5.86225E+03
 -8.34406E+03 -1.69938E+04  4.28070E+03 -1.94439E+04  1.65341E+04 -1.12114E+04  1.80431E+04  3.14391E+03
  1.08909E+04  1.46882E+04 -2.16489E+03  1.69417E+04 -1.25343E+04  9.35900E+03 -1.37328E+04 -1.70616E+03
 -1.11446E+04 -1.11272E+04 -2.09473E+03 -1.26523E+04  6.63203E+03 -9.96323E+03  8.72332E+03 -3.60354E+03
  5.59967E+03  2.54955E+03 -9.82783E+02  2.01554E+03 -9.88583E+02 -4.09605E+03  3.04448E+03 -8.47263E+03
  1.22153E+04 -5.47380E+03  1.75543E+04  1.74893E+03  1.72158E+04  1.19798E+04  1.07334E+04  2.27275E+04
 -5.19517E+03  2.60113E+04 -2.10668E+04  1.89507E+04 -2.75628E+04  3.30961E+03 -2.18686E+04 -9.52915E+03
 -1.13631E+04 -1.80917E+04 -2.54330E+02 -1.58652E+04  5.72010E+03 -8.89548E+03  5.70966E+03 -5.52021E+03
  4.32835E+03 -3.08910E+03  4.24705E+03 -4.29280E+03  5.97785E+03 -4.01110E+03  8.37432E+03 -1.71877E+03
  1.15749E+04  2.34125E+03  6.63646E+03  1.01661E+04 -2.41909E+03  1.24521E+04 -1.22169E+04  9.59872E+03
 -1.60516E+04 -1.36934E+03 -1.06120E+04 -1.13038E+04 -1.56059E+03 -1.70232E+04  9.86561E+03 -1.69286E+04
  1.77853E+04 -9.89754E+03  2.12303E+04  2.64991E+03  1.45332E+04  1.48420E+04  2.62324E+03  1.92242E+04
 -8.05029E+03  1.52639E+04 -1.17614E+04  4.96902E+03 -7.89505E+03 -1.85002E+03 -3.39159E+03 -2.17209E+03
 -1.38280E+03  1.67733E+01 -2.19175E+03  3.20255E+03 -6.63831E+03  2.88267E+03 -1.12856E+04 -1.72493E+03
 -8.32939E+03 -1.07302E+04 -9.06081E+01 -1.57802E+04  9.63456E+03 -1.48011E+04  1.59634E+04 -4.69048E+03
  1.56720E+04  7.65551E+03  7.55565E+03  1.42171E+04 -3.25766E+03  1.59165E+04 -1.15560E+04  9.57885E+03
 -1.48598E+04  6.02841E+02 -1.13934E+04 -9.56996E+03 -1.46530E+03 -1.34166E+04  6.88368E+03 -9.97593E+03
  1.02021E+04 -3.07181E+03  7.57668E+03  2.87387E+03  2.45656E+03  5.10575E+03  1.33009E+03  2.28715E+03
  2.58590E+03  1.14058E+03  3.99176E+03  2.19767E+03  5.01655E+03  5.58603E+03  4.39549E+03  8.64823E+03
 -3.03842E+03  1.28344E+04 -1.14830E+04  1.29274E+04 -1.66535E+04  3.13066E+03 -1.70079E+04 -7.19590E+03
 -7.82003E+03 -1.61628E+04  2.25383E+03 -1.77349E+04  9.30531E+03 -1.15915E+04  1.35411E+04 -2.65930E+03
  1.03298E+04  6.49406E+03  2.45458E+03  9.55351E+03 -5.03995E+03  6.39588E+03 -6.73224E+03 -1.20697E+03
 -3.23581E+03 -7.14775E+03  3.97081E+03 -7.16736E+03  6.91993E+03 -3.77234E+03  6.70366E+03  1.12049E+03
  3.90627E+03  3.43731E+03  1.68434E+03  2.91698E+03 -7.14282E+02  2.24644E+03  1.51071E+03 -5.09231E+02
  2.62574E+03 -4.50670E+02  6.13010E+03  3.03075E+03  3.90771E+03  8.58172E+03 -1.61874E+03  1.17338E+04
 -7.83867E+03  7.60178E+03 -1.01765E+04  1.97657E+03 -9.37684E+03 -3.71544E+03 -3.68816E+03 -6.65583E+03
  1.44276E+03 -6.23730E+03  4.41468E+03 -3.37733E+03  3.75638E+03  3.35372E+03 -1.43016E+03  5.53921E+03
 -7.18574E+03  3.10543E+03 -7.83509E+03 -3.60617E+03 -4.56673E+03 -8.71535E+03  1.59878E+03 -8.87663E+03
  5.60735E+03 -5.18481E+03  6.86388E+03 -3.33040E+02  5.46536E+03  2.02043E+03  8.15127E+02  4.61347E+03
 -3.45389E+03  1.50992E+03 -4.25016E+03 -3.13122E+03  1.43268E+03 -6.89197E+03  8.21689E+03 -6.48843E+03
  1.09296E+04  9.37366E+02  9.72517E+03  7.68085E+03  2.97196E+03  1.12448E+04 -3.96829E+03  9.95646E+03
 -9.28697E+03  4.52670E+03 -9.29885E+03 -1.26305E+03 -4.91440E+03 -6.76102E+03  1.78540E+03 -6.85698E+03
  6.70207E+03 -3.32558E+03  5.62980E+03  2.94885E+03  1.89968E+03  6.02790E+03 -9.66756E+02  5.45403E+03
 -2.96892E+03  3.00296E+03 -2.47455E+03  1.06089E+03 -1.53271E+03  1.22334E+03 -1.36709E+03  1.84968E+03
 -2.80693E+03  4.46421E+03 -7.05194E+03  3.66435E+03 -1.09791E+04  2.45112E+02 -1.25615E+04 -6.87728E+03
 -6.81567E+03 -1.44219E+04  2.93777E+03 -1.61322E+04  1.03118E+04 -1.28664E+04  1.58732E+04 -4.92334E+03
  1.45723E+04  2.68678E+03  8.65168E+03  1.04551E+04  7.97513E+02  1.16658E+04 -4.65095E+03  8.39644E+03
 -6.55510E+03  3.09054E+03 -4.24554E+03 -1.08547E+03 -1.25686E+03 -1.32983E+03 -5.19543E+02  1.44733E+02
 -2.22408E+03  3.27703E+02 -2.19616E+03 -7.17383E+02 -9.08508E+02 -2.87106E+03  4.21097E+02 -4.02556E+03
  5.13483E+03 -3.53086E+03  7.02642E+03  3.39875E+02  7.74775E+03  5.79374E+03  2.35187E+03  1.15146E+04
 -5.41844E+03  1.25369E+04 -1.21979E+04  7.47184E+03 -1.40584E+04 -9.52878E+02 -1.00620E+04 -8.58747E+03
 -4.61892E+03 -1.17781E+04  3.10571E+03 -1.03437E+04  7.56190E+03 -5.99076E+03  7.63861E+03  8.61699E+01
  3.89971E+03  3.44632E+03 -5.23166E+02  3.32930E+03 -1.78614E+03 -3.56212E+02  1.71004E+02 -2.70098E+03
  3.22724E+03 -2.13022E+03  4.50245E+03  1.27292E+03  3.26348E+03  4.62893E+03 -1.55806E+02  5.85140E+03
 -4.96842E+03  5.15718E+03 -7.33310E+03  8.80431E+02 -6.84095E+03 -5.40643E+03 -1.03290E+03 -1.00272E+04
  5.46396E+03 -8.32785E+03  8.91321E+03 -2.55084E+03  8.41503E+03  2.18434E+03  4.97851E+03  7.00239E+03
  1.24975E+03  7.44059E+03 -2.90009E+03  6.29825E+03 -4.98651E+03  3.37898E+03 -4.06059E+03  3.55670E+02
 -2.00606E+03 -9.86879E+01 -1.85064E+03  1.02096E+03 -3.98480E+03  1.66608E+03 -5.88646E+03 -1.51368E+03
 -5.69775E+03 -4.10837E+03 -2.03522E+03 -8.09630E+03  3.67446E+03 -8.01517E+03  6.48719E+03 -3.54302E+03
  7.53553E+03  6.57145E+02  4.09760E+03  5.21194E+03 -7.92719E+02  7.94783E+03 -6.17580E+03  5.06510E+03
