 $NMID ID='MM_0lb_SNR800_18hz_g45_44.RAW', FMTDAT='(8E13.5)'
 TRAMP=1., VOLUME=1. $END
  3.09692E+05  4.03637E+02  3.37260E+05  2.50338E+05  8.45090E+04  3.37607E+05 -1.32466E+05  2.50164E+05
 -1.89717E+05  8.24853E+04 -1.11183E+05 -3.28618E+04  1.88918E+03 -5.04519E+04  5.37234E+04  1.23526E+02
  3.50747E+04  5.28263E+04 -1.69877E+04  7.48944E+04 -6.00938E+04  6.28260E+04 -8.30341E+04  3.15339E+04
 -7.97823E+04 -1.13679E+04 -5.61720E+04 -5.01116E+04 -1.47590E+04 -6.84706E+04  2.67337E+04 -4.47470E+04
  3.90441E+04  3.76250E+03  1.57870E+04  4.73968E+04 -3.41266E+04  4.63251E+04 -6.53416E+04 -5.42270E+02
 -5.23177E+04 -5.63437E+04 -6.13952E+03 -7.52581E+04  3.32484E+04 -5.32022E+04  4.63180E+04 -1.66708E+04
  4.15514E+04  1.10693E+04  3.09306E+04  2.44802E+04  1.60056E+04  2.82772E+04 -4.67819E+03  2.69126E+04
 -2.15917E+04  1.26583E+04 -1.94179E+04 -4.31158E+03  4.26797E+03 -7.60195E+03  2.12508E+04  1.10633E+04
  7.20546E+03  3.33186E+04 -3.07454E+04  3.38294E+04 -6.11701E+04  1.97406E+03 -5.52756E+04 -4.10515E+04
 -1.23045E+04 -6.08643E+04  3.84612E+04 -4.32190E+04  5.55051E+04 -2.04030E+03  3.17648E+04  3.08207E+04
 -6.38299E+03  3.30701E+04 -2.85760E+04  1.31663E+04 -2.79407E+04 -5.42347E+03 -1.45893E+04 -1.02166E+04
 -7.69495E+03 -1.14582E+04 -8.49803E+02 -1.67490E+04  6.62685E+03 -2.27084E+04  1.46088E+04 -1.40887E+04
  1.25769E+04  4.48609E+03 -6.19736E+03  1.32536E+04 -1.94747E+04 -2.37622E+03 -7.95911E+03 -3.02740E+04
  2.08888E+04 -4.06016E+04  4.51060E+04 -1.86068E+04  4.20814E+04  1.83056E+04  1.41985E+04  4.19513E+04
 -1.51751E+04  3.08389E+04 -2.32497E+04  9.59835E+02 -8.26945E+03 -2.62707E+04  2.03671E+04 -3.15379E+04
  3.81950E+04 -7.23817E+03  3.16951E+04  2.27165E+04  1.56290E+04  4.26249E+04 -7.70363E+03  4.52751E+04
 -2.86286E+04  2.98590E+04 -3.75877E+04  8.14848E+03 -3.85666E+04 -1.54645E+04 -2.14666E+04 -3.45475E+04
  6.93428E+03 -3.40602E+04  2.93208E+04 -1.27710E+04  2.69708E+04  1.07036E+04  2.96424E+03  1.79081E+04
 -1.28025E+04  7.33786E+03 -9.64775E+03 -7.63277E+03  5.84447E+03 -9.97420E+03  1.72336E+04  6.72254E+03
  1.24224E+04  2.14774E+04 -6.66066E+03  2.33785E+04 -2.18464E+04  9.19264E+03 -2.52239E+04 -6.07914E+03
 -1.69976E+04 -1.66528E+04 -6.07371E+03 -1.66172E+04  3.62206E+03 -1.49420E+04  1.27005E+04 -1.46050E+04
  2.15015E+04 -1.16887E+04  2.84488E+04  9.86242E+02  2.12586E+04  1.63958E+04  3.97880E+03  3.24107E+04
 -1.62232E+04  2.77098E+04 -2.59061E+04  9.44407E+03 -1.96453E+04 -1.06726E+04 -4.01963E+03 -1.38431E+04
  2.54188E+03 -3.83615E+03 -3.05119E+03  5.56037E+03 -1.30578E+04  5.05360E+03 -1.36004E+04 -5.22499E+03
 -8.74200E+03 -1.54418E+04  4.91948E+03 -1.97634E+04  1.26683E+04 -1.43777E+04  1.51027E+04 -1.33051E+03
  8.97136E+03  1.09476E+04 -7.08961E+02  1.57955E+04 -1.04409E+04  8.86519E+03 -1.56870E+04 -3.34034E+03
 -1.17320E+04 -1.43723E+04 -1.44511E+03 -1.91242E+04  9.00181E+03 -1.54065E+04  1.61908E+04 -7.30006E+03
  1.47849E+04  6.21688E+02  1.03061E+04  4.09994E+03  5.39113E+03  4.64634E+02  7.80003E+03 -1.36980E+03
  1.42258E+04  2.34529E+03  1.50484E+04  1.26972E+04  9.28268E+03  2.52111E+04 -3.27379E+03  2.69944E+04
 -1.57730E+04  2.07357E+04 -2.51235E+04  9.79052E+03 -2.55333E+04 -1.95572E+03 -2.16531E+04 -1.47757E+04
 -1.01287E+04 -2.07270E+04  6.90412E+03 -1.94010E+04  1.67483E+04 -1.06669E+04  1.59206E+04  4.18164E+03
  6.58881E+03  1.14949E+04 -6.94473E+03  1.06585E+04 -1.34121E+04  2.66857E+03 -1.05740E+04 -8.01561E+03
 -1.82098E+02 -1.26805E+04  6.01923E+03 -9.56527E+03  7.91003E+03 -1.43452E+03  1.40195E+03  4.80555E+03
 -5.27934E+03  1.50286E+03 -3.74462E+03 -4.49169E+03  5.70678E+02 -1.05025E+04  7.92789E+03 -1.01045E+04
  1.26433E+04 -4.65143E+03  1.25580E+04  2.73134E+03  1.05021E+04  9.46499E+03  5.16267E+03  1.42855E+04
 -1.57667E+03  1.61132E+04 -9.82535E+03  1.00633E+04 -1.14620E+04  2.97867E+03 -8.49651E+03 -1.99092E+03
 -4.42318E+03 -3.42401E+03 -6.77504E+02  1.51535E+03 -2.09341E+03  1.78177E+03 -3.61622E+03  3.81032E+03
 -8.13102E+03 -5.45415E+02 -8.96037E+03 -7.08574E+03 -3.88074E+03 -1.16224E+04  3.41215E+03 -8.84039E+03
  7.12904E+03 -3.62089E+03  5.41233E+03  2.33477E+03  7.82368E+02  3.11038E+03 -3.66888E+03 -8.16846E+01
 -3.38256E+03 -5.26568E+03 -6.67379E+02 -7.38559E+03  4.03191E+03 -8.14927E+03  1.03032E+04 -4.10705E+03
  1.18591E+04  4.30510E+02  9.03574E+03  5.99966E+03  1.81925E+03  8.87252E+03 -5.55073E+03  8.10214E+03
 -6.88549E+03  3.12981E+03 -3.73304E+03 -1.36178E+03  1.22628E+03 -1.95085E+03  4.77050E+03 -1.08660E+03
  4.24438E+03  3.27778E+03  1.11915E+03  6.28054E+03 -4.46333E+03  6.61058E+03 -7.96844E+03  1.74137E+03
 -4.85465E+03 -3.84196E+03  5.20836E+02 -6.85473E+03  3.61433E+03 -3.13178E+03  3.63661E+03  1.00629E+03
  4.71295E+02  3.13005E+03 -3.99027E+03  4.98325E+03 -5.04538E+03  2.01202E+03 -4.69119E+03 -1.22367E+03
 -3.25149E+03 -5.96753E+03  1.26306E+03 -7.51122E+03  6.16655E+03 -4.87125E+03  6.83345E+03  9.96019E+02
  4.93424E+03  5.33203E+03 -4.80937E+01  7.63270E+03 -5.08357E+03  4.39777E+03 -5.59209E+03 -4.70599E+02
 -5.81578E+03 -5.10357E+03 -1.46400E+03 -5.03198E+03  2.56371E+03 -4.88153E+03  3.11885E+03 -2.90232E+03
  2.67694E+03  2.79290E+02 -8.01992E+00  1.10535E+03  6.47682E+02 -3.69495E+02  7.65111E+01 -1.61782E+03
  4.09466E+03 -8.03838E+02  5.48924E+03  8.71012E+02  5.87208E+03  3.29102E+03  5.65906E+03  7.75213E+03
 -1.45781E+03  8.57796E+03 -7.96160E+03  6.80348E+03 -1.00764E+04  1.18131E+03 -8.28043E+03 -2.69820E+03
 -4.18080E+03 -6.71283E+03 -2.88352E+02 -5.56078E+03  2.14319E+03 -2.37122E+03  1.85851E+03 -1.93151E+03
  1.33471E+03 -1.47983E+03  2.13287E+03 -2.44553E+03  3.45211E+03 -1.21333E+03  3.83219E+03  6.01257E+02
  4.57520E+03  1.14564E+03  1.14442E+03  3.32802E+03 -1.65803E+03  3.07751E+03 -4.58104E+03  2.77620E+03
 -5.01847E+03 -9.51438E+02 -2.15507E+03 -3.14326E+03  2.13899E+02 -5.50186E+03  3.51105E+03 -5.58465E+03
  5.20240E+03 -3.10685E+03  6.85780E+03  3.99208E+02  4.76534E+03  4.42157E+03  1.22369E+03  6.31084E+03
 -2.18325E+03  6.11149E+03 -3.24587E+03  1.89375E+03 -1.78684E+03 -1.35630E+03 -3.94644E+02 -8.40638E+02
 -4.73457E+02  3.27190E+02 -1.10991E+03  2.03120E+03 -2.57703E+03  1.18150E+03 -4.30586E+03 -4.51084E+02
 -1.69521E+03 -4.21690E+03  1.06201E+03 -4.82844E+03  2.79330E+03 -4.35969E+03  3.89831E+03 -1.01270E+03
  4.19496E+03  2.59407E+03  2.32719E+03  3.43707E+03 -1.02237E+03  4.70790E+03 -2.99937E+03  2.78179E+03
 -4.04193E+03  4.42535E+02 -3.67270E+03 -2.59837E+03 -2.15851E+02 -3.36617E+03  1.37583E+03 -2.40256E+03
  2.93141E+03 -1.24990E+03  2.00263E+03  3.69535E+02  6.97683E+02  1.65869E+03  7.86754E+02  4.61869E+02
  1.91292E+03  5.67890E+02  1.17758E+03  1.13255E+03  1.30195E+03  2.15553E+03  1.40338E+03  1.84833E+03
 -1.36273E+03  3.03783E+03 -2.64646E+03  4.05628E+03 -3.16530E+03  1.41276E+03 -4.45270E+03 -7.76395E+02
 -1.83889E+03 -3.80192E+03  6.44731E+02 -4.90128E+03  1.98255E+03 -2.72713E+03  3.30708E+03 -1.03952E+03
  2.50014E+03  2.01609E+03  2.92428E+02  2.19711E+03 -6.17346E+02  1.35947E+03 -1.16601E+03 -3.28847E+02
 -7.54006E+02 -1.70996E+03  1.49654E+03 -1.56885E+03  1.34865E+03 -8.12481E+02  1.43917E+03  4.81095E+02
  1.09344E+03  4.78565E+02  7.07727E+02 -1.59922E+02 -6.68314E+01  7.31467E+02  1.36669E+03 -2.24836E+02
  5.00593E+00 -1.28415E+02  1.89900E+03  5.81921E+02  4.70393E+02  2.35149E+03 -4.05296E+02  3.08466E+03
 -1.81051E+03  1.20512E+03 -2.08771E+03  3.61949E+02 -2.35566E+03 -8.74500E+02 -1.83732E+02 -1.19073E+03
  2.76419E+02 -1.16931E+03  9.02394E+02 -9.29736E+02  6.82382E+02  1.13478E+03 -5.39908E+02  1.29361E+03
 -1.64798E+03  8.46830E+02 -1.20810E+03 -1.40853E+03 -8.99222E+02 -2.28655E+03  1.92538E+02 -1.71147E+03
  7.36524E+02 -3.79879E+02  8.01750E+02 -7.87785E+01  1.12316E+03 -1.79786E+02  4.79353E+02  1.18387E+03
 -3.17137E+02  2.97891E+02 -9.57616E+02 -3.38280E+02  8.56505E+02 -8.98685E+02  2.01070E+03 -1.09270E+03
  1.50877E+03  2.38378E+02  2.75816E+03  8.38550E+02  9.58261E+02  1.71738E+03 -2.41077E+02  1.83775E+03
 -1.70273E+03  3.93263E+02 -1.99716E+03 -1.66085E+02 -9.22457E+02 -1.28691E+03  4.33093E+02 -5.31894E+02
  1.68625E+03 -5.87691E+02  7.04888E+02  9.89451E+02 -5.21780E+01  1.45678E+03  5.98213E+02  1.01891E+03
 -1.59851E+02  1.14948E+03 -6.25587E+02  2.34464E+02 -5.48851E+02  4.13920E+02 -6.74127E+02  5.99978E+02
 -4.99345E+02  1.46790E+03 -1.92677E+03  5.20953E+02 -1.92436E+03  4.23140E+01 -2.31129E+03 -9.76427E+02
 -1.20963E+03 -2.44820E+03  6.73688E+02 -3.34999E+03  1.10263E+03 -2.48137E+03  2.93426E+03 -9.19329E+02
  2.69402E+03  3.00061E+01  1.04812E+03  1.86116E+03 -5.35047E+02  1.55941E+03 -7.19052E+02  1.18031E+03
 -1.21081E+03  8.81142E+02 -5.65386E+02 -3.42594E+02 -5.71889E+02  3.62228E+02 -5.90884E+02  5.76632E+01
 -1.23078E+03  4.91617E+01 -6.24800E+02  7.61741E+01  6.52314E+01 -5.65012E+02 -8.25901E+02 -7.22336E+02
  1.55114E+03 -6.94085E+02  5.20300E+02  2.08344E+02  1.47542E+03  1.09398E+03 -4.03867E+02  1.73765E+03
 -1.23494E+03  2.69085E+03 -1.58869E+03  1.22148E+03 -2.13163E+03 -2.18265E+02 -1.35139E+03 -1.52480E+03
 -7.24462E+02 -1.56935E+03  4.45568E+02 -1.17695E+03  7.02010E+02 -9.47291E+02  9.33936E+02  3.88275E+02
  8.40450E+02  3.76133E+02  1.30833E+02  4.22734E+02 -2.70260E+02 -5.76777E+00  1.23779E+02 -2.74640E+02
  4.05249E+02  1.72691E+02  1.93888E+02  3.86711E+02  2.20439E+02  5.74486E+02  4.52537E+02  2.16601E+02
 -4.60550E+02  5.94688E+02 -6.05594E+02  3.03273E+02 -7.30147E+02 -3.55755E+02 -2.88165E+01 -1.16956E+03
  6.52129E+02 -1.06875E+03  6.32173E+02 -4.89491E+02  1.10064E+03 -5.71496E+02  4.33835E+02  7.72053E+02
  2.41957E+02  8.57400E+02 -3.17099E+02  5.07136E+02 -7.50148E+02  8.63434E+02 -3.53932E+02  8.42776E+01
 -6.61817E+01 -6.03967E+01 -5.76459E+02  3.24748E+02 -4.19906E+02  2.34698E+02 -7.58810E+02 -3.36327E+02
 -1.18674E+03  2.16722E+02 -2.36563E+02 -9.41524E+02  3.33265E+02 -1.64447E+03  7.94868E+02 -4.80332E+02
  7.84625E+02  1.89475E+02 -2.85927E+02  4.95010E+02  4.50373E+01  8.24011E+02 -3.39013E+02  6.41113E+02
