 $NMID ID='MM_0lb_SNR800_15hz_g45_98.RAW', FMTDAT='(8E13.5)'
 TRAMP=1., VOLUME=1. $END
  3.09828E+05  2.88218E+02  3.37673E+05  2.50451E+05  8.44397E+04  3.37581E+05 -1.32518E+05  2.50666E+05
 -1.90016E+05  8.27887E+04 -1.11631E+05 -3.27980E+04  1.25535E+03 -5.05410E+04  5.40097E+04 -1.81461E+01
  3.50253E+04  5.30078E+04 -1.68843E+04  7.54033E+04 -6.05362E+04  6.31545E+04 -8.36620E+04  3.18547E+04
 -8.03624E+04 -1.11074E+04 -5.71151E+04 -5.07220E+04 -1.48728E+04 -6.89847E+04  2.72154E+04 -4.53062E+04
  3.99660E+04  3.70108E+03  1.61701E+04  4.74105E+04 -3.45042E+04  4.69326E+04 -6.63193E+04 -4.28584E+02
 -5.30936E+04 -5.64326E+04 -6.71184E+03 -7.65951E+04  3.37353E+04 -5.44696E+04  4.75809E+04 -1.69530E+04
  4.25574E+04  1.08526E+04  3.15367E+04  2.51060E+04  1.58829E+04  2.90350E+04 -5.25050E+03  2.71450E+04
 -2.18681E+04  1.24965E+04 -1.88585E+04 -4.81308E+03  5.17151E+03 -7.29928E+03  2.17864E+04  1.15446E+04
  7.41425E+03  3.45806E+04 -3.15145E+04  3.51214E+04 -6.29028E+04  2.15860E+03 -5.65527E+04 -4.24010E+04
 -1.24737E+04 -6.24434E+04  3.92258E+04 -4.46311E+04  5.71288E+04 -2.05373E+03  3.32695E+04  3.18716E+04
 -5.99469E+03  3.49387E+04 -2.93159E+04  1.50403E+04 -2.93261E+04 -4.94437E+03 -1.57752E+04 -1.05016E+04
 -7.97168E+03 -1.25204E+04 -8.67959E+02 -1.77972E+04  7.27913E+03 -2.29520E+04  1.53234E+04 -1.32657E+04
  1.19518E+04  4.93902E+03 -7.76400E+03  1.30870E+04 -2.04229E+04 -3.75568E+03 -8.68279E+03 -3.25125E+04
  2.21555E+04 -4.23244E+04  4.69900E+04 -1.95004E+04  4.37156E+04  1.93011E+04  1.54590E+04  4.33864E+04
 -1.60136E+04  3.28899E+04 -2.45258E+04  1.48452E+03 -9.39327E+03 -2.74185E+04  2.09532E+04 -3.29795E+04
  4.01799E+04 -8.36910E+03  3.41696E+04  2.34722E+04  1.70881E+04  4.52088E+04 -7.91308E+03  4.88736E+04
 -3.04775E+04  3.28069E+04 -4.05155E+04  9.07150E+03 -4.10971E+04 -1.59836E+04 -2.29060E+04 -3.70620E+04
  7.07971E+03 -3.65310E+04  3.05911E+04 -1.43282E+04  2.86499E+04  1.06805E+04  3.60499E+03  1.87706E+04
 -1.36028E+04  8.09819E+03 -9.84841E+03 -7.99907E+03  5.88454E+03 -1.04751E+04  1.78359E+04  6.05267E+03
  1.32823E+04  2.19242E+04 -6.24761E+03  2.46385E+04 -2.22017E+04  1.10223E+04 -2.68904E+04 -5.29985E+03
 -1.93123E+04 -1.69457E+04 -7.42459E+03 -1.88411E+04  3.86862E+03 -1.80970E+04  1.48012E+04 -1.69487E+04
  2.46461E+04 -1.23354E+04  3.09914E+04  2.38272E+03  2.30448E+04  1.88638E+04  4.03143E+03  3.48555E+04
 -1.73516E+04  2.94012E+04 -2.75389E+04  1.04655E+04 -2.03278E+04 -1.05571E+04 -4.24347E+03 -1.35483E+04
  2.19986E+03 -3.44461E+03 -3.95793E+03  6.09756E+03 -1.50534E+04  5.29283E+03 -1.51068E+04 -6.28048E+03
 -9.60571E+03 -1.80472E+04  4.81070E+03 -2.17017E+04  1.43915E+04 -1.53448E+04  1.68524E+04 -1.19287E+03
  1.05022E+04  1.25503E+04 -1.00522E+03  1.76187E+04 -1.20281E+04  1.04064E+04 -1.79888E+04 -3.89875E+03
 -1.33019E+04 -1.59289E+04 -1.65931E+03 -2.14565E+04  9.72801E+03 -1.77858E+04  1.82133E+04 -8.69958E+03
  1.66911E+04  3.72020E+02  1.20123E+04  4.44372E+03  6.14381E+03  8.78362E+02  9.11598E+03 -1.47348E+03
  1.60900E+04  2.65873E+03  1.78931E+04  1.43222E+04  1.12808E+04  2.82990E+04 -3.06538E+03  3.14315E+04
 -1.85691E+04  2.50396E+04 -2.94534E+04  1.25142E+04 -3.05784E+04 -2.36588E+03 -2.58765E+04 -1.74245E+04
 -1.13880E+04 -2.54744E+04  8.76887E+03 -2.29063E+04  1.99264E+04 -1.22487E+04  1.82147E+04  4.72924E+03
  6.88421E+03  1.33852E+04 -8.38436E+03  1.17479E+04 -1.53939E+04  2.73512E+03 -1.16575E+04 -9.28548E+03
 -1.95688E+02 -1.45466E+04  7.50867E+03 -1.06983E+04  9.45056E+03 -1.10758E+03  2.15741E+03  6.00202E+03
 -6.35904E+03  1.96740E+03 -5.08042E+03 -5.28251E+03 -1.23069E+02 -1.24344E+04  9.04888E+03 -1.27150E+04
  1.51522E+04 -6.47305E+03  1.61423E+04  2.78395E+03  1.36971E+04  1.24861E+04  6.41830E+03  1.80956E+04
 -2.67504E+03  2.01247E+04 -1.28445E+04  1.26980E+04 -1.43647E+04  3.48409E+03 -1.02507E+04 -3.08595E+03
 -5.13521E+03 -4.37442E+03 -7.81734E+02  1.16279E+03 -2.48003E+03  2.52061E+03 -4.84561E+03  4.03501E+03
 -9.95320E+03 -8.15182E+02 -1.04364E+04 -8.38976E+03 -4.30131E+03 -1.36670E+04  4.25993E+03 -1.03797E+04
  8.69092E+03 -4.46956E+03  6.42843E+03  2.49933E+03  3.50523E+02  3.94567E+03 -4.83549E+03 -1.10522E+02
 -4.45509E+03 -6.51457E+03 -8.24390E+02 -9.56571E+03  5.21308E+03 -9.89707E+03  1.26418E+04 -5.30525E+03
  1.50930E+04  1.12989E+03  1.13285E+04  8.30050E+03  2.25881E+03  1.13041E+04 -6.12905E+03  1.03005E+04
 -8.45260E+03  3.01360E+03 -4.64654E+03 -1.71227E+03  1.58525E+03 -2.39110E+03  5.69775E+03 -7.85933E+02
  5.25458E+03  4.22913E+03  1.13854E+03  8.27519E+03 -5.82428E+03  7.92004E+03 -9.80184E+03  2.25334E+03
 -6.35040E+03 -4.86706E+03  3.09802E+02 -8.34944E+03  5.16627E+03 -4.40827E+03  5.08300E+03  1.68641E+03
  9.38337E+02  4.98587E+03 -5.21943E+03  6.43339E+03 -7.00965E+03  3.06902E+03 -7.00429E+03 -2.30216E+03
 -4.23590E+03 -8.46338E+03  2.01508E+03 -1.01686E+04  8.75315E+03 -6.35457E+03  9.11540E+03  1.25879E+03
  6.03365E+03  7.42317E+03 -3.25184E+02  9.60941E+03 -6.66189E+03  5.38081E+03 -7.27280E+03 -6.88735E+02
 -6.90764E+03 -6.71305E+03 -1.29790E+03 -6.99064E+03  3.54280E+03 -5.97411E+03  4.16232E+03 -3.12704E+03
  3.33249E+03  6.37941E+02  5.25217E+00  1.37312E+03  5.34413E+01 -1.05760E+03  6.28124E+02 -3.33394E+03
  5.71308E+03 -1.73402E+03  7.93014E+03  1.25253E+03  7.95509E+03  5.13178E+03  6.93177E+03  1.03708E+04
 -2.18819E+03  1.23860E+04 -1.07797E+04  9.43544E+03 -1.40379E+04  1.66133E+03 -1.09888E+04 -4.03870E+03
 -5.77341E+03 -9.41376E+03 -2.29111E+02 -7.37702E+03  2.97905E+03 -3.56525E+03  2.55317E+03 -2.95788E+03
  2.05718E+03 -1.84449E+03  2.50672E+03 -2.92029E+03  4.49316E+03 -1.82973E+03  4.66783E+03  3.71864E+01
  5.89385E+03  1.60564E+03  2.31229E+03  5.22251E+03 -1.80469E+03  4.74213E+03 -6.33863E+03  4.19011E+03
 -7.51385E+03 -1.17463E+03 -3.80199E+03 -4.87677E+03  4.79095E+01 -7.34892E+03  4.43341E+03 -7.73933E+03
  7.76723E+03 -4.52770E+03  9.75633E+03  1.04314E+03  7.03100E+03  6.60238E+03  1.37864E+03  8.71638E+03
 -3.54628E+03  7.89752E+03 -4.95515E+03  2.66861E+03 -3.22429E+03 -1.01032E+03 -1.10228E+03 -9.28657E+02
 -8.39262E+02  2.93265E+02 -9.88704E+02  2.60440E+03 -3.28526E+03  1.30250E+03 -5.71088E+03 -5.02255E+02
 -2.60912E+03 -5.51640E+03  6.69542E+02 -7.08807E+03  4.12071E+03 -6.60608E+03  6.26312E+03 -1.62627E+03
  6.65312E+03  3.46323E+03  2.71528E+03  5.74263E+03 -1.37503E+03  6.78885E+03 -4.41097E+03  4.30143E+03
 -6.10825E+03  6.29009E+02 -5.21093E+03 -4.17743E+03 -4.90880E+02 -5.27723E+03  2.83305E+03 -4.11410E+03
  4.26394E+03 -1.61199E+03  2.84867E+03  6.95128E+02  8.73710E+02  2.41186E+03  9.34362E+02  9.97898E+02
  1.70293E+03  7.72488E+02  1.59762E+03  1.29726E+03  1.98925E+03  3.00868E+03  1.92949E+03  2.98658E+03
 -1.91661E+03  4.80427E+03 -3.97571E+03  5.57901E+03 -5.90857E+03  1.71436E+03 -6.79394E+03 -1.76368E+03
 -3.01228E+03 -6.26712E+03  8.83499E+02 -7.17972E+03  3.87637E+03 -4.44248E+03  5.26654E+03 -1.28739E+03
  3.80659E+03  2.69969E+03  9.50698E+02  3.81156E+03 -1.50188E+03  2.38815E+03 -1.92704E+03 -1.77221E+02
 -1.07968E+03 -2.85654E+03  1.50050E+03 -2.60137E+03  2.63232E+03 -1.22910E+03  2.39038E+03  7.16433E+02
  1.54933E+03  1.24735E+03  9.39665E+02  3.53235E+02 -6.82710E+02  1.10161E+03  1.61733E+03 -1.37764E+02
  3.62389E+02 -2.92538E+02  2.59011E+03  9.41589E+02  6.74107E+02  3.66707E+03 -4.07435E+02  4.38938E+03
 -2.79733E+03  2.42201E+03 -3.51522E+03  6.64216E+02 -3.68948E+03 -1.63929E+03 -8.05016E+02 -2.01478E+03
  7.48607E+02 -2.36308E+03  1.59373E+03 -8.98418E+02  1.17394E+03  1.79873E+03 -9.02079E+02  2.15310E+03
 -2.43318E+03  1.20511E+03 -2.27148E+03 -1.75248E+03 -1.45747E+03 -3.51469E+03  1.07941E+02 -2.82625E+03
  1.59144E+03 -1.48021E+03  1.82082E+03  1.65255E+02  2.04529E+03  5.06448E+02  2.29101E+02  1.79979E+03
 -8.45656E+02  1.97199E+02 -1.35725E+03 -6.35175E+02  6.15659E+02 -2.13353E+03  3.01428E+03 -1.79580E+03
  2.74844E+03  2.70011E+02  4.09262E+03  1.89768E+03  1.56943E+03  3.32763E+03 -9.43360E+02  3.69729E+03
 -2.46817E+03  1.36533E+03 -3.06649E+03 -6.23357E+02 -1.51289E+03 -2.54222E+03  5.14665E+02 -1.86682E+03
  2.34710E+03 -1.04938E+03  1.66589E+03  1.09638E+03  3.95787E+02  2.53682E+03 -1.14265E+01  2.13198E+03
 -7.18991E+02  1.77494E+03 -6.55204E+02  4.88255E+02 -1.30524E+02  3.16791E+02 -9.56360E+02  6.56599E+02
 -9.38775E+02  1.56130E+03 -2.79091E+03  9.27027E+02 -3.48006E+03 -8.69784E+01 -4.35447E+03 -2.06536E+03
 -2.02604E+03 -4.57628E+03  8.07510E+02 -5.31073E+03  2.85043E+03 -4.06487E+03  5.07962E+03 -1.58705E+03
  4.80643E+03  5.28205E+02  2.25717E+03  3.17034E+03 -3.62436E+02  2.80583E+03 -1.35615E+03  2.76488E+03
 -1.88946E+03  1.20273E+03 -1.19139E+03 -3.42291E+02 -5.61673E+02 -1.51267E+02 -6.49999E+02  2.15532E+02
 -1.29204E+03  1.87023E+02 -1.36227E+03  2.53192E+00  5.20981E+01 -1.00490E+03 -3.40693E+02 -1.54473E+03
  1.60696E+03 -1.23887E+03  1.52651E+03 -1.29695E+02  2.35688E+03  2.04764E+03 -3.91390E+01  3.27474E+03
 -1.89255E+03  4.12897E+03 -3.36102E+03  2.29929E+03 -4.13760E+03 -2.93293E+02 -2.92521E+03 -2.22262E+03
 -1.18317E+03 -3.22563E+03  6.95910E+02 -2.69199E+03  1.72697E+03 -1.30367E+03  1.75810E+03  3.36844E+02
  1.10219E+03  8.76652E+02 -1.68543E+02  8.48918E+02 -5.66738E+02 -3.40130E+02 -1.63973E+02 -5.94185E+02
  9.32283E+02  1.08329E+01  9.12081E+02  3.72415E+02  4.88497E+02  1.45205E+03  4.55908E+02  1.29969E+03
 -1.37979E+03  1.41772E+03 -1.68812E+03  1.26506E+02 -1.82485E+03 -1.44155E+03 -2.26315E+02 -2.37653E+03
  1.28449E+03 -1.88685E+03  1.93460E+03 -1.54502E+02  2.19536E+03 -2.06879E+01  1.42434E+03  1.60037E+03
  4.39571E+02  1.49322E+03 -5.17859E+02  1.35976E+03 -1.33954E+03  1.10961E+03 -1.00519E+03  3.68943E+02
 -5.93207E+02 -2.32158E+02 -6.68780E+02  1.87504E+02 -1.24881E+03  2.77510E+02 -1.51086E+03 -6.65735E+02
 -1.90946E+03 -3.19358E+02 -5.83027E+02 -1.65106E+03  1.35386E+03 -2.72044E+03  1.67092E+03 -9.23533E+02
  2.22496E+03  3.16424E+02  8.51760E+02  1.10205E+03 -1.91103E+02  1.50124E+03 -1.16284E+03  1.37274E+03
