 $NMID ID='MM_0lb_SNR800_11hz_g60_51.RAW', FMTDAT='(8E13.5)'
 TRAMP=1., VOLUME=1. $END
  3.09830E+05 -9.83199E+01  3.37804E+05  2.50888E+05  8.50439E+04  3.38732E+05 -1.32626E+05  2.51949E+05
 -1.90990E+05  8.34535E+04 -1.12758E+05 -3.23597E+04  1.09850E+02 -5.05172E+04  5.38883E+04 -6.35938E+02
  3.54074E+04  5.29352E+04 -1.64072E+04  7.63442E+04 -6.11297E+04  6.45014E+04 -8.55067E+04  3.27135E+04
 -8.19111E+04 -1.16623E+04 -5.82248E+04 -5.23200E+04 -1.51621E+04 -7.06454E+04  2.83688E+04 -4.65404E+04
  4.08034E+04  4.16799E+03  1.67007E+04  4.83505E+04 -3.46112E+04  4.78468E+04 -6.80479E+04  1.69796E+02
 -5.47678E+04 -5.75120E+04 -7.09521E+03 -7.85381E+04  3.42019E+04 -5.66578E+04  4.99019E+04 -1.82458E+04
  4.54760E+04  1.12296E+04  3.28889E+04  2.66898E+04  1.57045E+04  3.02832E+04 -5.80007E+03  2.73949E+04
 -2.24767E+04  1.16537E+04 -1.86095E+04 -5.57910E+03  6.91076E+03 -7.36412E+03  2.36295E+04  1.36219E+04
  7.06759E+03  3.76999E+04 -3.35291E+04  3.72231E+04 -6.58236E+04  2.18503E+03 -5.88218E+04 -4.45441E+04
 -1.25100E+04 -6.56512E+04  4.14776E+04 -4.73820E+04  6.06462E+04 -2.45494E+03  3.62652E+04  3.41673E+04
 -5.32735E+03  3.87956E+04 -3.13409E+04  1.85747E+04 -3.29052E+04 -3.68653E+03 -1.89550E+04 -1.21937E+04
 -9.39825E+03 -1.50033E+04 -3.96111E+02 -1.97887E+04  8.49196E+03 -2.32462E+04  1.60430E+04 -1.23098E+04
  1.05348E+04  6.47180E+03 -9.98266E+03  1.29819E+04 -2.33957E+04 -6.09013E+03 -8.77580E+03 -3.73655E+04
  2.45723E+04 -4.63122E+04  5.15841E+04 -2.00636E+04  4.81355E+04  2.05248E+04  1.73001E+04  4.62963E+04
 -1.66228E+04  3.59393E+04 -2.76249E+04  3.07656E+03 -1.14054E+04 -2.94592E+04  2.15648E+04 -3.64204E+04
  4.42148E+04 -1.07814E+04  3.96181E+04  2.49603E+04  2.06745E+04  5.10701E+04 -8.11950E+03  5.52032E+04
 -3.51371E+04  3.81412E+04 -4.68127E+04  1.09449E+04 -4.68157E+04 -1.84723E+04 -2.58921E+04 -4.12713E+04
  7.84910E+03 -4.15130E+04  3.38878E+04 -1.65768E+04  3.14255E+04  1.11790E+04  5.51287E+03  2.02359E+04
 -1.38234E+04  9.66748E+03 -1.09105E+04 -7.96430E+03  5.55102E+03 -1.09816E+04  1.90645E+04  5.98078E+03
  1.48290E+04  2.26128E+04 -5.27680E+03  2.64695E+04 -2.31014E+04  1.38252E+04 -3.10927E+04 -3.26066E+03
 -2.51016E+04 -1.85331E+04 -1.17505E+04 -2.43611E+04  4.20809E+03 -2.49415E+04  1.92672E+04 -2.27188E+04
  3.07194E+04 -1.39906E+04  3.72806E+04  4.42208E+03  2.64602E+04  2.35684E+04  4.55707E+03  4.03525E+04
 -1.93624E+04  3.31511E+04 -3.01979E+04  1.14077E+04 -2.20448E+04 -1.05935E+04 -4.38473E+03 -1.29903E+04
  8.88200E+02 -1.27107E+03 -7.24520E+03  7.91334E+03 -1.95823E+04  4.61314E+03 -1.97361E+04 -9.28617E+03
 -1.16526E+04 -2.24634E+04  5.99888E+03 -2.72127E+04  1.79356E+04 -1.94011E+04  2.18985E+04 -1.43895E+03
  1.41233E+04  1.55198E+04 -1.24459E+03  2.26921E+04 -1.57270E+04  1.32920E+04 -2.26724E+04 -4.73154E+03
 -1.67840E+04 -1.99621E+04 -2.52091E+03 -2.71366E+04  1.22575E+04 -2.26625E+04  2.25032E+04 -1.16162E+04
  2.12809E+04 -2.02202E+02  1.52830E+04  5.61432E+03  8.54219E+03  1.52174E+03  1.17544E+04 -2.10896E+03
  2.13060E+04  2.80818E+03  2.42021E+04  1.77798E+04  1.62291E+04  3.63552E+04 -2.69639E+03  4.22759E+04
 -2.44674E+04  3.55542E+04 -3.96529E+04  1.81121E+04 -4.22595E+04 -2.88122E+03 -3.46156E+04 -2.47687E+04
 -1.38757E+04 -3.52989E+04  1.24513E+04 -3.07925E+04  2.67639E+04 -1.46922E+04  2.29038E+04  7.30326E+03
  7.98856E+03  1.77967E+04 -1.10645E+04  1.49797E+04 -1.93229E+04  2.60851E+03 -1.46235E+04 -1.22859E+04
 -1.94487E+02 -1.87096E+04  9.96684E+03 -1.36989E+04  1.26798E+04 -1.54298E+03  3.14916E+03  7.95613E+03
 -8.32178E+03  3.38031E+03 -8.38604E+03 -6.57555E+03 -1.50225E+03 -1.70632E+04  1.18280E+04 -1.86715E+04
  2.18787E+04 -1.04113E+04  2.48302E+04  3.47491E+03  2.14090E+04  1.76064E+04  1.01901E+04  2.74195E+04
 -4.78210E+03  2.92525E+04 -1.93097E+04  1.84642E+04 -2.11147E+04  3.87814E+03 -1.44959E+04 -5.51581E+03
 -6.42922E+03 -6.84725E+03 -4.78505E+02  5.73647E+02 -2.78842E+03  3.44329E+03 -6.78597E+03  5.23982E+03
 -1.27978E+04 -6.79679E+02 -1.36222E+04 -1.14833E+04 -5.63948E+03 -1.84067E+04  5.80190E+03 -1.49052E+04
  1.22184E+04 -5.90262E+03  8.94302E+03  3.80312E+03 -2.00600E+02  5.79308E+03 -7.22566E+03  3.76405E+01
 -6.70067E+03 -9.34638E+03 -7.33411E+02 -1.43149E+04  8.41325E+03 -1.50388E+04  1.86711E+04 -8.10564E+03
  2.15746E+04  1.77272E+03  1.59305E+04  1.33935E+04  3.09621E+03  1.73659E+04 -9.15626E+03  1.44985E+04
 -1.18227E+04  3.93946E+03 -6.41528E+03 -3.03726E+03  2.29028E+03 -3.90637E+03  7.92247E+03 -1.07488E+03
  6.89599E+03  6.39717E+03  1.32726E+03  1.18293E+04 -8.63175E+03  1.13781E+04 -1.43865E+04  2.21071E+03
 -1.00796E+04 -7.23670E+03  2.69503E+02 -1.22398E+04  8.28217E+03 -6.58009E+03  8.41661E+03  2.99007E+03
  1.91125E+03  8.87442E+03 -7.13127E+03  1.05888E+04 -1.22272E+04  4.80446E+03 -1.25507E+04 -4.28021E+03
 -7.51523E+03 -1.45694E+04  3.42270E+03 -1.67013E+04  1.39727E+04 -9.72027E+03  1.53009E+04  2.99025E+03
  8.98485E+03  1.18953E+04 -1.26756E+03  1.45541E+04 -1.08483E+04  8.68216E+03 -1.17216E+04 -1.18780E+03
 -9.69050E+03 -9.44441E+03 -1.98049E+03 -1.06564E+04  5.67115E+03 -8.65309E+03  7.14286E+03 -3.36383E+03
  4.66736E+03  1.91934E+03 -7.84724E+02  1.49884E+03 -5.60298E+02 -3.01027E+03  1.74643E+03 -6.74688E+03
  1.01899E+04 -4.19843E+03  1.43077E+04  1.59691E+03  1.37740E+04  9.55943E+03  9.44516E+03  1.85274E+04
 -4.53067E+03  2.17931E+04 -1.76486E+04  1.57460E+04 -2.31743E+04  2.92894E+03 -1.88647E+04 -8.01511E+03
 -9.31599E+03 -1.50617E+04 -3.25622E+02 -1.30038E+04  4.82805E+03 -7.21830E+03  4.78610E+03 -4.59994E+03
  3.54130E+03 -2.72076E+03  3.92741E+03 -4.02531E+03  5.38952E+03 -3.04773E+03  7.23753E+03 -9.75693E+02
  9.50147E+03  2.24439E+03  5.02216E+03  8.58276E+03 -1.83601E+03  9.34229E+03 -1.00118E+04  7.68049E+03
 -1.32514E+04 -1.34593E+03 -7.72951E+03 -9.16807E+03 -9.56254E+02 -1.38313E+04  7.94551E+03 -1.39348E+04
  1.43956E+04 -7.50749E+03  1.69782E+04  1.99401E+03  1.13385E+04  1.21378E+04  1.57327E+03  1.55980E+04
 -6.68636E+03  1.28160E+04 -8.78158E+03  4.42391E+03 -6.36149E+03 -1.58297E+03 -2.22803E+03 -1.80587E+03
 -1.02250E+03  1.21970E+02 -2.12219E+03  2.87895E+03 -5.63989E+03  1.82840E+03 -9.24501E+03 -1.16518E+03
 -6.02483E+03 -8.69524E+03  1.76121E+02 -1.26771E+04  7.76988E+03 -1.22013E+04  1.24233E+04 -3.57873E+03
  1.25327E+04  6.00595E+03  5.58369E+03  1.13979E+04 -2.51910E+03  1.28924E+04 -8.71531E+03  7.90941E+03
 -1.14966E+04  9.56410E+02 -9.30901E+03 -7.63638E+03 -9.19111E+02 -1.03800E+04  5.34440E+03 -7.73377E+03
  7.99471E+03 -2.57528E+03  5.32763E+03  2.40706E+03  1.70459E+03  3.90852E+03  1.23991E+03  1.67837E+03
  2.70130E+03  1.05848E+03  3.25226E+03  1.90077E+03  4.15235E+03  4.56939E+03  3.02393E+03  6.64621E+03
 -2.64521E+03  9.62565E+03 -8.31214E+03  1.03011E+04 -1.24437E+04  2.95882E+03 -1.33315E+04 -5.10731E+03
 -6.44411E+03 -1.25231E+04  1.49144E+03 -1.40527E+04  7.57950E+03 -8.54150E+03  1.03729E+04 -2.32834E+03
  7.63207E+03  4.42621E+03  1.89465E+03  7.03550E+03 -3.64453E+03  4.45725E+03 -4.92522E+03 -4.76203E+02
 -2.26186E+03 -4.96046E+03  3.20600E+03 -5.54469E+03  5.10869E+03 -2.60415E+03  4.95297E+03  1.27443E+03
  2.93692E+03  2.62827E+03  1.40211E+03  2.36924E+03 -2.97627E+02  1.64646E+03  1.59885E+03 -7.73795E+02
  2.03064E+03 -1.45292E+02  5.13840E+03  2.13971E+03  2.81213E+03  6.69719E+03 -1.01808E+03  8.63174E+03
 -5.80113E+03  5.23664E+03 -7.75840E+03  9.96181E+02 -7.02537E+03 -2.65169E+03 -2.72191E+03 -5.12250E+03
  7.48367E+02 -4.53065E+03  3.17680E+03 -2.44997E+03  2.64881E+03  2.71524E+03 -1.19966E+03  4.14998E+03
 -5.16445E+03  2.54767E+03 -5.53473E+03 -3.23641E+03 -3.08726E+03 -6.92473E+03  9.84557E+02 -7.18809E+03
  3.95824E+03 -3.80816E+03  4.71463E+03 -4.56823E+02  4.16634E+03  1.84101E+03  3.13752E+02  3.66281E+03
 -2.34612E+03  1.03890E+03 -3.06406E+03 -2.38234E+03  1.24450E+03 -4.89567E+03  6.32141E+03 -4.39795E+03
  7.25475E+03  6.67902E+02  7.93231E+03  5.30935E+03  1.97470E+03  7.96599E+03 -2.53437E+03  7.65472E+03
 -6.37165E+03  3.42355E+03 -6.45333E+03 -8.29585E+02 -3.50449E+03 -5.14795E+03  1.33683E+03 -4.76840E+03
  4.72903E+03 -2.21477E+03  4.07016E+03  1.95180E+03  1.77779E+03  4.22882E+03 -5.50341E+02  3.31162E+03
 -1.69155E+03  2.52405E+03 -1.89514E+03  5.46905E+02 -6.13955E+02  1.04149E+03 -1.27891E+03  1.22172E+03
 -1.87858E+03  3.18585E+03 -5.44979E+03  2.69062E+03 -7.63274E+03  4.48491E+02 -9.07780E+03 -4.77243E+03
 -4.61786E+03 -1.02559E+04  1.98344E+03 -1.16462E+04  7.16571E+03 -9.17056E+03  1.12570E+04 -3.35973E+03
  1.01417E+04  1.55379E+03  6.76010E+03  6.99745E+03  3.87628E+02  7.91089E+03 -2.89047E+03  5.99918E+03
 -4.84204E+03  2.14172E+03 -2.68307E+03 -9.41576E+02 -7.89980E+02 -7.22531E+02 -5.25128E+02 -2.24936E+02
 -1.61323E+03  4.07466E+02 -1.56576E+03 -2.74486E+02 -3.43690E+02 -1.89146E+03 -1.76861E+01 -3.30328E+03
  3.49892E+03 -2.39176E+03  4.63080E+03 -1.25585E+02  5.20184E+03  4.18847E+03  1.41833E+03  7.76019E+03
 -3.88157E+03  9.02598E+03 -8.30369E+03  4.95573E+03 -9.18359E+03 -6.87115E+02 -7.22408E+03 -5.61527E+03
 -3.43011E+03 -7.89027E+03  2.04793E+03 -7.15856E+03  4.94157E+03 -3.98951E+03  4.69021E+03  4.54937E+02
  2.69088E+03  2.49487E+03 -1.40580E+02  1.88220E+03 -1.69179E+03 -4.09456E+02  1.48600E+02 -2.01864E+03
  1.89988E+03 -9.85302E+02  2.53171E+03  1.11718E+03  1.73077E+03  3.15411E+03  2.68884E+01  3.83456E+03
 -3.50082E+03  3.19811E+03 -4.88224E+03  3.39155E+02 -4.70088E+03 -3.75906E+03 -7.48807E+02 -6.37925E+03
  3.30000E+03 -5.03370E+03  5.63570E+03 -1.67952E+03  5.70296E+03  9.73746E+02  3.08849E+03  4.38209E+03
  9.56619E+02  5.01861E+03 -2.22031E+03  4.13291E+03 -3.11708E+03  2.44328E+03 -2.54694E+03  4.64494E+02
 -1.24946E+03 -4.64102E+02 -1.31526E+03  5.15795E+02 -2.63928E+03  1.05987E+03 -3.58740E+03 -9.53181E+02
 -3.78944E+03 -2.14521E+03 -1.04978E+03 -5.16209E+03  2.50544E+03 -5.35414E+03  4.42543E+03 -2.24500E+03
  5.12108E+03  7.29940E+02  2.85597E+03  3.52480E+03 -3.54814E+02  4.96391E+03 -3.67451E+03  3.10590E+03
