 $NMID ID='MM_0lb_SNR800_10hz_g60_31.RAW', FMTDAT='(8E13.5)'
 TRAMP=1., VOLUME=1. $END
  3.09554E+05  4.80339E+02  3.37777E+05  2.50943E+05  8.51235E+04  3.38412E+05 -1.32807E+05  2.51940E+05
 -1.90764E+05  8.37441E+04 -1.12278E+05 -3.21887E+04  5.71301E+02 -5.07731E+04  5.35223E+04 -5.59955E+02
  3.53733E+04  5.24309E+04 -1.62642E+04  7.62309E+04 -6.15139E+04  6.43906E+04 -8.52178E+04  3.25124E+04
 -8.22394E+04 -1.16138E+04 -5.81779E+04 -5.26441E+04 -1.52265E+04 -7.10109E+04  2.84143E+04 -4.67891E+04
  4.14761E+04  3.83351E+03  1.66206E+04  4.83070E+04 -3.48172E+04  4.81248E+04 -6.79357E+04 -1.80738E+02
 -5.52745E+04 -5.75560E+04 -7.70231E+03 -7.93229E+04  3.45688E+04 -5.73462E+04  4.98930E+04 -1.83527E+04
  4.55044E+04  1.12265E+04  3.29053E+04  2.63832E+04  1.60866E+04  3.07981E+04 -5.75420E+03  2.77101E+04
 -2.29292E+04  1.22480E+04 -1.79959E+04 -5.75686E+03  7.12904E+03 -7.36975E+03  2.36649E+04  1.35871E+04
  7.06141E+03  3.74323E+04 -3.42747E+04  3.71418E+04 -6.61117E+04  1.66918E+03 -5.87863E+04 -4.47812E+04
 -1.27110E+04 -6.62060E+04  4.22080E+04 -4.72273E+04  6.10309E+04 -2.41851E+03  3.67609E+04  3.46130E+04
 -5.18867E+03  3.97888E+04 -3.20049E+04  1.89742E+04 -3.38313E+04 -3.52386E+03 -1.99312E+04 -1.22114E+04
 -9.48789E+03 -1.53261E+04 -6.92035E+02 -1.98673E+04  7.85959E+03 -2.35054E+04  1.63680E+04 -1.22669E+04
  1.05463E+04  6.49006E+03 -1.08944E+04  1.28802E+04 -2.35823E+04 -6.80351E+03 -8.79205E+03 -3.77175E+04
  2.56405E+04 -4.72679E+04  5.22558E+04 -2.12660E+04  4.87265E+04  2.10481E+04  1.72087E+04  4.74343E+04
 -1.67523E+04  3.62808E+04 -2.75080E+04  2.90392E+03 -1.19087E+04 -2.98301E+04  2.18651E+04 -3.70579E+04
  4.51610E+04 -1.11922E+04  4.06317E+04  2.48315E+04  2.15531E+04  5.19690E+04 -7.90318E+03  5.65187E+04
 -3.55860E+04  3.81365E+04 -4.76595E+04  1.12254E+04 -4.77373E+04 -1.87793E+04 -2.65236E+04 -4.22204E+04
  8.02634E+03 -4.21436E+04  3.39655E+04 -1.76055E+04  3.17811E+04  1.12760E+04  5.15442E+03  2.08058E+04
 -1.38092E+04  9.32439E+03 -1.12284E+04 -7.36058E+03  5.89152E+03 -1.14642E+04  1.88370E+04  5.58077E+03
  1.49813E+04  2.27297E+04 -5.49400E+03  2.72621E+04 -2.31759E+04  1.39827E+04 -3.16540E+04 -3.07618E+03
 -2.56667E+04 -1.83842E+04 -1.20102E+04 -2.52579E+04  4.56212E+03 -2.57816E+04  1.99351E+04 -2.30609E+04
  3.23522E+04 -1.41117E+04  3.80564E+04  5.10377E+03  2.73706E+04  2.48136E+04  4.65469E+03  4.14959E+04
 -2.01009E+04  3.37141E+04 -3.06168E+04  1.17330E+04 -2.23333E+04 -1.02052E+04 -4.73836E+03 -1.32207E+04
  9.54359E+02 -1.30399E+03 -7.94256E+03  8.30053E+03 -2.06554E+04  5.27425E+03 -2.05756E+04 -9.48880E+03
 -1.19857E+04 -2.34790E+04  6.62762E+03 -2.78581E+04  1.88218E+04 -2.01363E+04  2.31497E+04 -1.73567E+03
  1.41467E+04  1.62524E+04 -1.21824E+03  2.32390E+04 -1.64770E+04  1.36739E+04 -2.37964E+04 -4.80303E+03
 -1.73280E+04 -2.10103E+04 -2.20533E+03 -2.79087E+04  1.25120E+04 -2.34664E+04  2.32119E+04 -1.23287E+04
  2.15910E+04 -1.70816E+02  1.60403E+04  4.97211E+03  9.18930E+03  1.24517E+03  1.20273E+04 -1.94251E+03
  2.21380E+04  2.72305E+03  2.54965E+04  1.86733E+04  1.74574E+04  3.75686E+04 -3.10166E+03  4.45455E+04
 -2.57924E+04  3.69472E+04 -4.21468E+04  1.92305E+04 -4.47507E+04 -3.25446E+03 -3.62135E+04 -2.66642E+04
 -1.45938E+04 -3.78808E+04  1.29480E+04 -3.26305E+04  2.79525E+04 -1.52991E+04  2.40869E+04  7.82813E+03
  8.02106E+03  1.85241E+04 -1.18081E+04  1.51938E+04 -2.00374E+04  2.35362E+03 -1.52918E+04 -1.29145E+04
  2.59560E+02 -1.89447E+04  1.07572E+04 -1.44599E+04  1.33858E+04 -1.21904E+03  3.42585E+03  8.73299E+03
 -8.82865E+03  3.98145E+03 -8.79913E+03 -6.68905E+03 -1.82477E+03 -1.78716E+04  1.15766E+04 -2.00051E+04
  2.32042E+04 -1.13506E+04  2.62094E+04  3.30015E+03  2.30409E+04  1.84165E+04  1.07661E+04  2.90434E+04
 -5.59357E+03  3.10027E+04 -1.99143E+04  1.92322E+04 -2.28694E+04  4.46081E+03 -1.53891E+04 -6.19595E+03
 -6.69903E+03 -7.27763E+03 -7.14633E+02  1.65793E+02 -2.99885E+03  3.51460E+03 -7.25741E+03  5.17827E+03
 -1.43860E+04 -7.81546E+02 -1.46273E+04 -1.14099E+04 -6.10250E+03 -1.92102E+04  5.86365E+03 -1.54483E+04
  1.23445E+04 -6.59625E+03  9.42440E+03  4.04266E+03 -3.71344E+02  6.08271E+03 -8.09772E+03 -1.15082E+02
 -7.50629E+03 -9.87106E+03 -1.53006E+03 -1.53901E+04  9.04844E+03 -1.65142E+04  1.99709E+04 -8.65286E+03
  2.36321E+04  2.43101E+03  1.72776E+04  1.42206E+04  3.39795E+03  1.90623E+04 -9.46226E+03  1.52301E+04
 -1.28298E+04  3.98885E+03 -6.38653E+03 -3.30220E+03  2.68042E+03 -4.48202E+03  8.35748E+03 -9.13522E+02
  7.35605E+03  7.27658E+03  1.10172E+03  1.25961E+04 -9.29386E+03  1.20757E+04 -1.52244E+04  2.99160E+03
 -1.07638E+04 -8.41490E+03  4.62787E+02 -1.31949E+04  8.78089E+03 -6.58339E+03  9.15065E+03  3.58114E+03
  2.39046E+03  1.01570E+04 -7.96989E+03  1.16745E+04 -1.35805E+04  5.05227E+03 -1.43808E+04 -4.92112E+03
 -8.34995E+03 -1.56833E+04  3.81830E+03 -1.79887E+04  1.50435E+04 -1.06468E+04  1.68094E+04  2.75354E+03
  9.72365E+03  1.31562E+04 -1.48810E+03  1.53518E+04 -1.11861E+04  8.41313E+03 -1.25679E+04 -1.04066E+03
 -1.04681E+04 -1.02549E+04 -1.74941E+03 -1.17153E+04  6.21935E+03 -9.48849E+03  7.93920E+03 -3.67098E+03
  4.96341E+03  2.17068E+03 -1.02819E+03  1.83458E+03 -5.57621E+02 -3.32692E+03  2.70945E+03 -7.39748E+03
  1.14856E+04 -4.79701E+03  1.59927E+04  2.03682E+03  1.54274E+04  1.09497E+04  1.01753E+04  2.07547E+04
 -4.74345E+03  2.29904E+04 -1.94371E+04  1.70491E+04 -2.51993E+04  3.32863E+03 -2.06960E+04 -8.67665E+03
 -1.00016E+04 -1.67083E+04 -1.76311E+02 -1.45351E+04  4.87958E+03 -8.24012E+03  4.89629E+03 -5.05703E+03
  4.07195E+03 -2.68905E+03  3.86504E+03 -3.75613E+03  5.69398E+03 -3.66500E+03  8.02505E+03 -1.46820E+03
  1.07239E+04  2.23839E+03  5.81529E+03  9.09784E+03 -2.41495E+03  1.10431E+04 -1.07856E+04  7.82867E+03
 -1.45175E+04 -1.40614E+03 -9.24766E+03 -1.01230E+04 -1.52191E+03 -1.51649E+04  8.37403E+03 -1.52804E+04
  1.58237E+04 -8.96251E+03  1.94515E+04  2.45566E+03  1.34344E+04  1.37644E+04  1.85491E+03  1.68531E+04
 -6.66447E+03  1.42004E+04 -1.02787E+04  4.87910E+03 -7.20043E+03 -1.54779E+03 -2.78016E+03 -1.81841E+03
 -1.45705E+03 -9.98594E+01 -2.21640E+03  2.99710E+03 -5.96846E+03  2.19920E+03 -9.96746E+03 -1.54630E+03
 -6.87244E+03 -9.60595E+03 -1.85185E+01 -1.40138E+04  8.53076E+03 -1.30175E+04  1.43209E+04 -3.99005E+03
  1.39190E+04  6.83473E+03  6.65203E+03  1.27747E+04 -2.54908E+03  1.42980E+04 -1.01543E+04  9.12341E+03
 -1.36089E+04  4.44477E+02 -1.04737E+04 -8.76736E+03 -1.13472E+03 -1.14571E+04  6.45438E+03 -8.70883E+03
  9.35897E+03 -2.77524E+03  6.37542E+03  2.60346E+03  2.02370E+03  3.98862E+03  1.65630E+03  1.83634E+03
  2.85972E+03  1.11428E+03  3.18286E+03  1.88302E+03  4.21351E+03  5.41704E+03  3.65356E+03  7.63723E+03
 -3.03244E+03  1.11534E+04 -9.52708E+03  1.11785E+04 -1.48083E+04  3.28001E+03 -1.52122E+04 -6.56477E+03
 -7.23085E+03 -1.42388E+04  2.22410E+03 -1.58079E+04  8.65249E+03 -1.00942E+04  1.21679E+04 -2.39022E+03
  9.26426E+03  5.69940E+03  1.66763E+03  8.62710E+03 -3.72417E+03  5.30610E+03 -5.87556E+03 -1.08297E+03
 -2.74203E+03 -6.38791E+03  3.65719E+03 -6.20486E+03  5.87203E+03 -3.02908E+03  5.91336E+03  1.48047E+03
  3.44390E+03  2.89863E+03  1.19600E+03  2.29498E+03 -7.92910E+02  2.50716E+03  1.91293E+03 -2.78106E+02
  2.31996E+03 -9.55969E+02  5.73758E+03  2.05578E+03  3.52679E+03  8.01403E+03 -1.28704E+03  1.01986E+04
 -6.36922E+03  6.88281E+03 -9.14856E+03  1.85237E+03 -8.42527E+03 -3.26190E+03 -3.23124E+03 -5.47585E+03
  9.97192E+02 -5.69394E+03  3.64704E+03 -2.77801E+03  3.55128E+03  2.68723E+03 -1.71064E+03  4.48983E+03
 -5.70147E+03  3.02187E+03 -7.21763E+03 -3.01761E+03 -4.08365E+03 -7.97209E+03  9.14013E+02 -7.99265E+03
  4.61136E+03 -4.45057E+03  5.82088E+03 -3.39598E+02  4.65068E+03  2.08807E+03  7.99257E+02  4.03297E+03
 -2.64151E+03  1.42619E+03 -3.21121E+03 -2.50558E+03  1.31705E+03 -5.72262E+03  7.10468E+03 -4.80220E+03
  8.88368E+03  8.65755E+02  8.87968E+03  6.13889E+03  2.92647E+03  9.47125E+03 -3.19703E+03  8.80640E+03
 -7.47724E+03  4.02309E+03 -7.81190E+03 -1.04295E+03 -4.74789E+03 -5.88947E+03  1.11196E+03 -5.66674E+03
  5.91856E+03 -2.97874E+03  5.11405E+03  2.74897E+03  1.66786E+03  5.44583E+03 -7.31549E+02  4.39502E+03
 -2.34903E+03  2.86014E+03 -2.08648E+03  8.41530E+02 -1.10195E+03  9.96201E+02 -1.34179E+03  1.73541E+03
 -2.36023E+03  3.64981E+03 -6.22935E+03  3.38860E+03 -9.35588E+03 -8.30064E+01 -1.02985E+04 -5.81448E+03
 -5.57862E+03 -1.24780E+04  2.82955E+03 -1.38895E+04  8.37173E+03 -1.08088E+04  1.33687E+04 -4.15725E+03
  1.25313E+04  2.37004E+03  8.10198E+03  8.57459E+03  3.75147E+02  9.77393E+03 -3.81883E+03  6.88239E+03
 -5.42156E+03  2.56445E+03 -2.92345E+03 -9.06574E+02 -1.51035E+03 -9.96635E+02 -4.58943E+02 -7.62699E+02
 -1.85559E+03  1.41111E+02 -1.91800E+03 -4.98492E+02 -8.18021E+02 -2.19183E+03  2.07076E+02 -3.39701E+03
  4.22246E+03 -2.95635E+03  5.78457E+03 -1.46374E+02  6.91396E+03  5.21336E+03  1.92541E+03  9.48226E+03
 -4.20031E+03  1.07296E+04 -1.01423E+04  6.30994E+03 -1.16603E+04 -1.10010E+03 -8.95769E+03 -6.93915E+03
 -3.40187E+03 -9.45944E+03  2.63837E+03 -8.81415E+03  5.97023E+03 -4.81841E+03  6.12618E+03  2.85721E+02
  3.34508E+03  2.65126E+03 -2.57519E+02  2.99965E+03 -1.75045E+03 -3.77565E+02 -1.99651E+02 -2.25634E+03
  2.78224E+03 -1.00155E+03  3.78305E+03  1.16174E+03  2.14783E+03  3.52520E+03  7.92202E+01  4.80163E+03
 -3.89232E+03  4.02200E+03 -6.43702E+03  4.77214E+02 -5.24060E+03 -4.49290E+03 -7.75927E+02 -8.26001E+03
  4.22488E+03 -6.01163E+03  7.11062E+03 -2.06318E+03  7.06338E+03  1.55014E+03  4.35401E+03  6.02557E+03
  1.21267E+03  6.76454E+03 -2.30856E+03  4.89847E+03 -3.92004E+03  2.74733E+03 -3.04434E+03  4.69098E+02
 -1.51433E+03  3.77036E+00 -1.63590E+03  1.10116E+03 -3.17711E+03  1.26068E+03 -4.69433E+03 -4.44228E+02
 -4.48452E+03 -2.89316E+03 -1.22578E+03 -6.28194E+03  2.92033E+03 -6.54043E+03  5.63775E+03 -2.86525E+03
  6.27866E+03  9.02725E+02  3.48969E+03  4.17732E+03 -5.62822E+02  6.32068E+03 -4.72871E+03  3.76669E+03
