 $NMID ID='MM_0lb_SNR800_20hz_g45_38.RAW', FMTDAT='(8E13.5)'
 TRAMP=1., VOLUME=1. $END
  3.10010E+05  1.79411E+02  3.36943E+05  2.50296E+05  8.43925E+04  3.37023E+05 -1.32388E+05  2.49977E+05
 -1.89397E+05  8.23391E+04 -1.10693E+05 -3.28005E+04  1.58615E+03 -5.00449E+04  5.37600E+04  2.87527E+02
  3.51854E+04  5.29323E+04 -1.71818E+04  7.44932E+04 -6.02387E+04  6.23605E+04 -8.25561E+04  3.13436E+04
 -7.93262E+04 -1.10480E+04 -5.56762E+04 -4.97827E+04 -1.50341E+04 -6.79104E+04  2.64938E+04 -4.43486E+04
  3.87338E+04  4.03395E+03  1.50449E+04  4.70234E+04 -3.39051E+04  4.56555E+04 -6.51810E+04 -2.53424E+02
 -5.16232E+04 -5.57591E+04 -5.62888E+03 -7.46723E+04  3.27340E+04 -5.25397E+04  4.59058E+04 -1.58018E+04
  4.10074E+04  1.10655E+04  3.05099E+04  2.41948E+04  1.57235E+04  2.77597E+04 -4.55594E+03  2.66094E+04
 -2.16563E+04  1.27813E+04 -1.92779E+04 -3.83091E+03  3.88601E+03 -7.56075E+03  2.08360E+04  1.04214E+04
  7.29394E+03  3.26985E+04 -2.98156E+04  3.36371E+04 -6.03254E+04  2.24741E+03 -5.48363E+04 -4.07516E+04
 -1.21658E+04 -6.00344E+04  3.75809E+04 -4.28093E+04  5.46151E+04 -2.02334E+03  3.11633E+04  2.97587E+04
 -6.77421E+03  3.19367E+04 -2.76690E+04  1.24818E+04 -2.68746E+04 -5.60010E+03 -1.36538E+04 -9.60707E+03
 -6.83904E+03 -1.06514E+04 -1.32561E+03 -1.61617E+04  6.11378E+03 -2.24998E+04  1.49093E+04 -1.41228E+04
  1.24740E+04  3.96539E+03 -5.44218E+03  1.32238E+04 -1.87511E+04 -1.91901E+03 -7.97768E+03 -2.94936E+04
  2.01182E+04 -3.94256E+04  4.34249E+04 -1.81912E+04  4.08325E+04  1.79436E+04  1.39727E+04  4.06074E+04
 -1.52098E+04  3.03261E+04 -2.26776E+04  6.56073E+02 -7.89134E+03 -2.59410E+04  2.04971E+04 -3.01179E+04
  3.70893E+04 -6.82063E+03  2.99657E+04  2.24265E+04  1.44937E+04  4.13153E+04 -7.43198E+03  4.37799E+04
 -2.73764E+04  2.86647E+04 -3.58145E+04  7.72048E+03 -3.69407E+04 -1.47006E+04 -2.05576E+04 -3.32678E+04
  6.62385E+03 -3.30309E+04  2.86249E+04 -1.18620E+04  2.60507E+04  1.08131E+04  2.59500E+03  1.72185E+04
 -1.29993E+04  7.11993E+03 -9.41009E+03 -7.67073E+03  5.86344E+03 -1.01240E+04  1.72593E+04  6.62852E+03
  1.19390E+04  2.14787E+04 -6.96302E+03  2.26123E+04 -2.09850E+04  8.31073E+03 -2.39628E+04 -6.59944E+03
 -1.53727E+04 -1.62992E+04 -4.73910E+03 -1.57550E+04  3.74472E+03 -1.30338E+04  1.14149E+04 -1.31729E+04
  1.96555E+04 -1.14952E+04  2.69200E+04  2.60216E+02  2.04528E+04  1.49551E+04  3.95045E+03  3.10349E+04
 -1.56316E+04  2.66634E+04 -2.51081E+04  8.93228E+03 -1.91780E+04 -1.02719E+04 -3.79240E+03 -1.40045E+04
  2.65973E+03 -4.58810E+03 -2.03857E+03  4.87589E+03 -1.18521E+04  5.14095E+03 -1.23938E+04 -4.44736E+03
 -8.13423E+03 -1.42986E+04  4.10032E+03 -1.81213E+04  1.17715E+04 -1.32777E+04  1.34478E+04 -1.36270E+03
  8.08239E+03  9.88328E+03 -7.16904E+02  1.45964E+04 -9.50581E+03  8.14824E+03 -1.44109E+04 -3.06816E+03
 -1.07874E+04 -1.31138E+04 -1.24329E+03 -1.75792E+04  8.04863E+03 -1.42861E+04  1.51759E+04 -6.52045E+03
  1.36166E+04  5.97172E+02  9.61995E+03  3.50425E+03  4.62449E+03  3.95757E+02  6.90979E+03 -1.56823E+03
  1.25638E+04  2.65326E+03  1.34636E+04  1.20488E+04  7.95146E+03  2.29745E+04 -3.21105E+03  2.43157E+04
 -1.43970E+04  1.82194E+04 -2.21320E+04  8.39456E+03 -2.22377E+04 -1.55464E+03 -1.96666E+04 -1.25625E+04
 -9.53816E+03 -1.80699E+04  5.94353E+03 -1.74721E+04  1.50045E+04 -1.03905E+04  1.44437E+04  3.18780E+03
  6.31863E+03  1.00417E+04 -6.59578E+03  9.86375E+03 -1.22870E+04  2.58632E+03 -9.59854E+03 -7.57198E+03
  3.92415E+02 -1.11242E+04  5.69556E+03 -9.01990E+03  7.15125E+03 -1.42323E+03  1.34025E+03  4.85888E+03
 -5.10978E+03  6.92881E+02 -3.07646E+03 -4.49696E+03  1.03402E+03 -9.14573E+03  7.33261E+03 -8.99000E+03
  1.09691E+04 -3.65224E+03  1.03307E+04  2.87838E+03  8.67834E+03  8.17263E+03  4.35612E+03  1.23367E+04
 -1.14487E+03  1.41695E+04 -8.20723E+03  8.91268E+03 -9.88458E+03  2.80107E+03 -7.47410E+03 -1.44055E+03
 -4.17876E+03 -2.74076E+03 -8.77107E+02  1.48567E+03 -1.93899E+03  1.64456E+03 -3.21486E+03  3.12671E+03
 -7.14990E+03 -3.32351E+02 -8.12899E+03 -6.56651E+03 -3.36340E+03 -1.03142E+04  3.36252E+03 -7.51512E+03
  6.51665E+03 -3.67196E+03  4.67261E+03  1.82850E+03  6.93939E+02  2.26830E+03 -2.94617E+03 -2.28866E+02
 -2.88912E+03 -4.60115E+03 -6.70441E+02 -6.28008E+03  3.60399E+03 -6.89619E+03  8.47607E+03 -3.50425E+03
  1.00853E+04  2.87308E+02  7.51890E+03  5.48193E+03  2.02432E+03  7.50458E+03 -4.81386E+03  7.62266E+03
 -6.35740E+03  2.72998E+03 -3.32650E+03 -9.04141E+02  1.01673E+03 -1.67251E+03  4.43742E+03 -1.04240E+03
  3.63065E+03  2.97033E+03  1.03712E+03  5.28187E+03 -3.99426E+03  5.57729E+03 -6.91937E+03  1.48628E+03
 -4.23056E+03 -3.00180E+03  1.78120E+02 -6.02850E+03  3.23144E+03 -3.10076E+03  2.88992E+03  4.63549E+02
  1.87091E+02  2.62912E+03 -3.43696E+03  3.96410E+03 -3.84064E+03  2.06844E+03 -3.22418E+03 -7.16318E+02
 -2.61130E+03 -4.81689E+03  8.81115E+02 -5.93455E+03  4.66813E+03 -4.06453E+03  4.89645E+03  9.41561E+02
  4.04351E+03  4.36084E+03  3.65793E+02  6.14475E+03 -4.21851E+03  3.75674E+03 -4.12977E+03 -4.88603E+02
 -5.15108E+03 -4.77273E+03 -1.44704E+03 -4.31897E+03  2.28124E+03 -4.01632E+03  2.37458E+03 -2.88638E+03
  2.45733E+03 -4.13597E+01  3.66615E+02  1.37140E+03  6.93209E+02  1.24770E+02 -2.92718E+02 -1.10963E+03
  2.97643E+03 -4.25441E+02  4.10385E+03  5.80772E+02  4.53524E+03  2.17830E+03  4.87203E+03  6.00227E+03
 -8.63395E+02  7.12668E+03 -6.66045E+03  5.20040E+03 -8.27096E+03  9.72397E+02 -6.41912E+03 -1.95775E+03
 -3.65099E+03 -5.67257E+03 -2.01175E+02 -4.29360E+03  1.85780E+03 -1.68956E+03  1.40468E+03 -1.52975E+03
  9.57841E+02 -1.52419E+03  1.94062E+03 -2.08924E+03  3.29905E+03 -1.24666E+03  3.18854E+03  5.32741E+02
  4.06311E+03  1.34085E+03  7.21710E+02  2.74604E+03 -1.48156E+03  2.08749E+03 -3.93630E+03  1.88778E+03
 -4.03133E+03 -9.56748E+02 -8.66314E+02 -2.71245E+03  6.65246E+02 -3.81869E+03  2.78341E+03 -4.42362E+03
  4.28691E+03 -2.89545E+03  5.53926E+03  2.18224E+02  4.06547E+03  3.52704E+03  9.83767E+02  4.92339E+03
 -1.56867E+03  5.36984E+03 -2.78236E+03  1.51301E+03 -1.57467E+03 -7.54825E+02 -4.70464E+02 -4.22855E+02
 -5.11997E+02  1.55569E+02 -9.75380E+02  1.85888E+03 -2.17450E+03  1.03399E+03 -3.49212E+03 -1.76830E+02
 -1.10077E+03 -3.36878E+03  7.29862E+02 -3.77907E+03  2.05689E+03 -3.66585E+03  2.61632E+03 -1.05446E+03
  3.23117E+03  1.88422E+03  1.33093E+03  2.75240E+03 -5.57139E+02  3.69291E+03 -2.03056E+03  1.99722E+03
 -3.26952E+03  6.69710E+02 -2.80206E+03 -1.83807E+03 -2.00534E+02 -2.47347E+03  1.14424E+03 -2.24716E+03
  2.29796E+03 -1.11259E+03  1.57159E+03  8.99305E+01  5.17227E+02  1.53958E+03  8.72696E+02  1.84492E+02
  1.47617E+03  6.87555E+02  1.06551E+03  8.00352E+02  8.29115E+02  2.06330E+03  1.29380E+03  1.42109E+03
 -9.46217E+02  2.25461E+03 -1.82366E+03  3.53092E+03 -2.24019E+03  1.31329E+03 -3.16498E+03  1.69228E+02
 -1.23076E+03 -2.84043E+03  3.42498E+02 -3.63509E+03  1.45911E+03 -1.93514E+03  2.10111E+03 -7.76031E+02
  1.73717E+03  1.33213E+03  1.12613E+02  1.73844E+03 -4.68366E+02  1.02650E+03 -6.49719E+02  8.17537E+01
 -5.29008E+02 -1.22325E+03  1.12680E+03 -1.16543E+03  1.00803E+03 -8.58314E+02  9.88629E+02  3.37828E+02
  9.12326E+02 -5.90076E+01  6.87068E+02 -3.72540E+02 -2.79147E+02  5.85222E+02  1.32559E+03 -2.23990E+02
 -1.01465E+02 -1.48891E+02  1.37933E+03  4.17713E+02  1.85654E+01  1.82385E+03 -2.31659E+02  2.01376E+03
 -1.52361E+03  5.73180E+02 -1.43716E+03 -3.03880E+00 -1.63675E+03 -3.50361E+02  6.81331E+01 -4.96892E+02
  3.56312E+02 -9.75136E+02  7.36474E+02 -4.27102E+02  3.62179E+02  1.01262E+03 -4.74460E+02  8.02638E+02
 -1.10574E+03  4.32360E+02 -4.77802E+02 -1.31485E+03 -4.87174E+02 -1.78072E+03 -1.44770E+02 -1.37457E+03
  6.97229E+01 -2.36221E+02  3.26439E+02  2.55995E+02  1.11335E+03 -2.55777E+02  2.99661E+02  8.96299E+02
 -1.84824E+02  1.81057E+02 -6.95328E+02  4.21291E+01  4.69554E+02 -3.18743E+02  1.15530E+03 -4.87098E+02
  4.85608E+02  7.87450E+01  2.42772E+03  4.97985E+02  1.03345E+03  9.01810E+02  6.51808E+01  1.40630E+03
 -8.68345E+02 -3.88871E+01 -1.01139E+03 -2.47002E+02 -5.82253E+02 -1.13659E+03  2.44957E+02 -5.98332E+01
  1.14660E+03 -4.87118E+02  5.69680E+02  4.19527E+02  3.73176E+02  1.12877E+03  3.26946E+02  7.77544E+02
 -2.25618E+02  9.91746E+02 -5.43319E+02  3.61071E+02  3.71835E+02  4.49583E+02 -8.66768E+02  5.36322E+02
 -4.92434E+02  1.09460E+03 -1.58164E+03  5.15757E+02 -1.31632E+03  1.13253E+02 -1.87729E+03 -5.52651E+02
 -6.13570E+02 -1.75033E+03  2.73502E+02 -2.14883E+03  5.09855E+02 -1.76724E+03  2.14097E+03 -9.53661E+02
  2.00553E+03 -2.23047E+02  8.22765E+02  1.34483E+03 -6.35710E+02  8.97685E+02 -3.92500E+02  1.09696E+03
 -6.95015E+02  5.03067E+02 -3.63640E+02 -1.21521E+02 -4.57134E+02  2.74617E+02 -7.71902E+02  7.80652E+01
 -9.58203E+02 -1.69119E+02 -8.03325E+02  1.50980E+02 -7.12370E+01 -3.57542E+02 -7.04796E+02 -5.45289E+02
  9.15766E+02 -3.29207E+02  2.02440E+02  2.10968E+02  7.75569E+02  5.69075E+02 -5.09258E+02  8.66132E+02
 -7.05111E+02  1.59721E+03 -1.04679E+03  8.92908E+02 -1.28238E+03 -1.57013E+02 -7.50747E+02 -1.27790E+03
 -8.90402E+02 -7.92747E+02  4.54848E+01 -6.96956E+02  1.95605E+02 -5.65944E+02  4.35390E+02  1.48623E+02
  5.07942E+02 -1.22862E+02  8.28030E+01  1.17230E+02 -1.96829E+02 -1.02948E+02 -3.55684E+01  2.13171E+01
  6.37734E+02  4.63691E+02  1.21999E+02  4.62491E+02 -7.97090E+01  1.78175E+02  5.83067E+02  2.34746E+01
 -3.47460E+02  4.78041E+02 -3.73622E+02  3.65682E+02 -3.60935E+02 -1.91279E+02  2.22503E+02 -1.04151E+03
  1.33507E+02 -5.41149E+02 -1.58025E+01  1.13810E+02  5.64793E+02 -4.75992E+02  8.12133E+00  6.46563E+02
  5.56630E+02  2.30060E+02 -1.59241E+02  3.20708E+02 -1.30278E+02  3.24445E+02  6.69119E+00  1.33646E+02
 -3.50105E+00 -2.53187E+02 -3.40406E+02 -9.59916E+01 -6.98671E+02  2.60933E+01 -3.80816E+02 -2.23070E+02
 -6.89915E+02  2.84748E+02 -4.12439E+02 -8.14600E+02  5.60448E+02 -1.50399E+03  3.30140E+02 -3.68628E+01
  4.07914E+02 -1.29764E+02 -4.31147E+02 -1.39720E+01 -2.03277E+01  8.86065E+02 -2.77156E+02  6.27213E+02
