 $NMID ID='MM_0lb_SNR800_13hz_g45_12.RAW', FMTDAT='(8E13.5)'
 TRAMP=1., VOLUME=1. $END
  3.09776E+05  5.18255E+02  3.37490E+05  2.50657E+05  8.47810E+04  3.37984E+05 -1.32331E+05  2.51260E+05
 -1.90329E+05  8.31751E+04 -1.11420E+05 -3.24326E+04  6.96547E+02 -5.04150E+04  5.38453E+04 -2.43582E+02
  3.54989E+04  5.30126E+04 -1.67657E+04  7.53265E+04 -6.05826E+04  6.37882E+04 -8.42463E+04  3.22168E+04
 -8.10742E+04 -1.14656E+04 -5.72827E+04 -5.12631E+04 -1.51522E+04 -6.96579E+04  2.75456E+04 -4.59908E+04
  4.02347E+04  3.54372E+03  1.62815E+04  4.78541E+04 -3.42491E+04  4.74026E+04 -6.67463E+04 -2.57736E+02
 -5.33078E+04 -5.69767E+04 -6.90394E+03 -7.71631E+04  3.40546E+04 -5.52095E+04  4.81846E+04 -1.72929E+04
  4.33898E+04  1.14759E+04  3.19101E+04  2.55104E+04  1.58570E+04  2.94902E+04 -5.25674E+03  2.74799E+04
 -2.24411E+04  1.24856E+04 -1.85027E+04 -5.02139E+03  5.81823E+03 -7.34184E+03  2.23636E+04  1.23793E+04
  7.26524E+03  3.54821E+04 -3.21735E+04  3.54791E+04 -6.34624E+04  2.26783E+03 -5.69720E+04 -4.30166E+04
 -1.23162E+04 -6.35980E+04  4.01472E+04 -4.56121E+04  5.82926E+04 -2.51803E+03  3.44826E+04  3.25909E+04
 -5.99656E+03  3.60474E+04 -3.01169E+04  1.62875E+04 -3.09280E+04 -4.33440E+03 -1.73624E+04 -1.11224E+04
 -8.37858E+03 -1.34106E+04 -5.69365E+02 -1.79604E+04  7.78781E+03 -2.31047E+04  1.53301E+04 -1.33609E+04
  1.14520E+04  5.16825E+03 -8.38402E+03  1.29712E+04 -2.14908E+04 -4.59659E+03 -7.78229E+03 -3.41397E+04
  2.29283E+04 -4.40113E+04  4.85137E+04 -1.99626E+04  4.51578E+04  1.93617E+04  1.60715E+04  4.46109E+04
 -1.60605E+04  3.37920E+04 -2.57793E+04  1.99776E+03 -9.97714E+03 -2.79254E+04  2.10406E+04 -3.39067E+04
  4.13288E+04 -9.20339E+03  3.59853E+04  2.39323E+04  1.83548E+04  4.69549E+04 -8.10502E+03  5.07746E+04
 -3.19002E+04  3.42969E+04 -4.25895E+04  9.87841E+03 -4.30449E+04 -1.71255E+04 -2.40554E+04 -3.84563E+04
  7.40223E+03 -3.81174E+04  3.15821E+04 -1.53362E+04  2.95048E+04  1.09221E+04  3.98432E+03  1.92497E+04
 -1.37030E+04  8.47005E+03 -1.01866E+04 -7.65632E+03  5.90408E+03 -1.06660E+04  1.79508E+04  6.14450E+03
  1.33463E+04  2.21107E+04 -6.00773E+03  2.50385E+04 -2.21645E+04  1.18198E+04 -2.88012E+04 -4.90855E+03
 -2.11552E+04 -1.76295E+04 -8.67006E+03 -2.09236E+04  3.75843E+03 -2.03281E+04  1.62397E+04 -1.87901E+04
  2.70107E+04 -1.32097E+04  3.33090E+04  2.95800E+03  2.43461E+04  2.06007E+04  4.60818E+03  3.66377E+04
 -1.77165E+04  3.08028E+04 -2.84249E+04  1.05136E+04 -2.07158E+04 -1.01867E+04 -4.33601E+03 -1.38812E+04
  1.76500E+03 -2.17226E+03 -5.39431E+03  6.84724E+03 -1.63464E+04  5.11423E+03 -1.66604E+04 -7.39139E+03
 -1.01694E+04 -1.96817E+04  5.07342E+03 -2.35924E+04  1.53047E+04 -1.70830E+04  1.83766E+04 -1.77891E+03
  1.18880E+04  1.35178E+04 -1.05802E+03  1.93060E+04 -1.33554E+04  1.10159E+04 -1.93595E+04 -4.19274E+03
 -1.41777E+04 -1.76605E+04 -2.10774E+03 -2.34047E+04  1.04061E+04 -1.93576E+04  1.96174E+04 -9.51516E+03
  1.84758E+04  2.38294E+02  1.32362E+04  4.45996E+03  7.07350E+03  6.61328E+02  9.88817E+03 -1.59982E+03
  1.80126E+04  2.67726E+03  2.00818E+04  1.54120E+04  1.28581E+04  3.08909E+04 -2.82507E+03  3.52686E+04
 -2.03528E+04  2.84558E+04 -3.31887E+04  1.41704E+04 -3.43461E+04 -2.57040E+03 -2.85124E+04 -1.98282E+04
 -1.22265E+04 -2.87083E+04  9.71995E+03 -2.57825E+04  2.23198E+04 -1.32190E+04  1.94347E+04  5.70059E+03
  7.26767E+03  1.49250E+04 -9.20481E+03  1.27444E+04 -1.66529E+04  2.78481E+03 -1.26623E+04 -1.04634E+04
 -5.48103E+02 -1.56720E+04  8.52771E+03 -1.18558E+04  1.06211E+04 -1.53333E+03  2.39309E+03  6.86147E+03
 -6.94835E+03  2.50721E+03 -6.13738E+03 -5.62189E+03 -6.27858E+02 -1.40712E+04  9.77871E+03 -1.46471E+04
  1.70883E+04 -7.75069E+03  1.86747E+04  3.17086E+03  1.64255E+04  1.40213E+04  7.82653E+03  2.16809E+04
 -3.74861E+03  2.32720E+04 -1.48309E+04  1.42286E+04 -1.71261E+04  3.29647E+03 -1.20875E+04 -3.69547E+03
 -5.68411E+03 -5.03129E+03 -6.01218E+02  1.04711E+03 -2.61788E+03  2.74207E+03 -5.40826E+03  4.56429E+03
 -1.09327E+04 -5.82469E+02 -1.14396E+04 -9.37770E+03 -4.60568E+03 -1.54639E+04  5.03504E+03 -1.20207E+04
  1.01296E+04 -5.15728E+03  7.13869E+03  3.00835E+03  3.63871E+02  4.83202E+03 -5.54945E+03 -3.14000E+02
 -5.54202E+03 -7.24725E+03 -8.31306E+02 -1.09086E+04  6.55028E+03 -1.20524E+04  1.47388E+04 -5.99940E+03
  1.70956E+04  1.31454E+03  1.29526E+04  9.83564E+03  2.55231E+03  1.34975E+04 -7.33205E+03  1.13916E+04
 -9.60249E+03  3.44507E+03 -5.19106E+03 -2.14950E+03  1.63527E+03 -2.97047E+03  6.41763E+03 -1.01406E+03
  5.78821E+03  4.96445E+03  1.01956E+03  9.33983E+03 -6.59474E+03  9.23786E+03 -1.14429E+04  2.33795E+03
 -7.66754E+03 -6.07298E+03  1.90429E+02 -9.74770E+03  6.17274E+03 -5.03064E+03  5.92172E+03  2.24808E+03
  1.37913E+03  6.35692E+03 -6.17496E+03  7.97855E+03 -8.80982E+03  3.77275E+03 -8.81611E+03 -2.71288E+03
 -5.33195E+03 -1.05299E+04  2.51747E+03 -1.19774E+04  1.04613E+04 -7.25851E+03  1.09780E+04  1.87308E+03
  7.01581E+03  8.72233E+03 -5.89991E+02  1.14260E+04 -8.08829E+03  5.91422E+03 -8.75342E+03 -7.29431E+02
 -7.93856E+03 -7.50418E+03 -1.34960E+03 -8.04542E+03  4.19801E+03 -7.00700E+03  5.22406E+03 -3.07903E+03
  3.94270E+03  8.73994E+02 -6.59216E+02  1.58327E+03 -1.00057E+02 -1.57929E+03  1.34333E+03 -4.45959E+03
  7.32783E+03 -2.29029E+03  1.02134E+04  1.24504E+03  1.02690E+04  6.53840E+03  7.73568E+03  1.32563E+04
 -2.80573E+03  1.53463E+04 -1.31779E+04  1.16294E+04 -1.69879E+04  2.36375E+03 -1.35298E+04 -5.43211E+03
 -6.99924E+03 -1.12385E+04 -3.62937E+02 -9.11814E+03  3.46677E+03 -5.01327E+03  3.28202E+03 -3.52017E+03
  2.36463E+03 -2.40364E+03  3.05578E+03 -2.79739E+03  4.54187E+03 -2.12143E+03  5.56497E+03 -3.47853E+02
  7.26944E+03  1.77316E+03  3.05079E+03  6.28211E+03 -2.15609E+03  6.75554E+03 -7.30118E+03  5.16473E+03
 -9.36508E+03 -1.17419E+03 -5.31590E+03 -6.16522E+03 -5.03015E+02 -9.73254E+03  5.80490E+03 -9.77368E+03
  1.01404E+04 -5.72541E+03  1.24863E+04  1.16562E+03  9.15408E+03  8.76842E+03  1.48573E+03  1.10040E+04
 -4.47124E+03  9.46414E+03 -6.77685E+03  3.58877E+03 -4.21331E+03 -1.42794E+03 -1.78851E+03 -1.18663E+03
 -1.05067E+03  6.99195E+01 -1.60706E+03  2.44238E+03 -3.97269E+03  1.58188E+03 -6.67849E+03 -1.07092E+03
 -4.33886E+03 -6.88007E+03  5.26676E+02 -8.85698E+03  5.08141E+03 -8.00071E+03  8.57146E+03 -2.65495E+03
  8.94808E+03  4.03376E+03  4.22146E+03  7.71113E+03 -1.65636E+03  8.81928E+03 -5.76536E+03  5.08531E+03
 -7.95187E+03  5.32676E+02 -6.29934E+03 -5.17824E+03 -9.38344E+02 -7.10868E+03  3.49995E+03 -5.28229E+03
  5.21172E+03 -1.79978E+03  3.78917E+03  1.36802E+03  1.43078E+03  2.91280E+03  8.79589E+02  1.02915E+03
  2.05446E+03  5.23877E+02  2.02678E+03  1.30409E+03  2.48295E+03  3.50041E+03  2.01197E+03  4.05478E+03
 -1.81304E+03  6.86577E+03 -6.06951E+03  7.13097E+03 -8.12988E+03  2.10102E+03 -9.04598E+03 -2.53022E+03
 -3.98417E+03 -8.45819E+03  1.47040E+03 -9.58391E+03  5.04705E+03 -5.92768E+03  6.87251E+03 -1.79465E+03
  5.60455E+03  3.41126E+03  1.22055E+03  4.73003E+03 -2.30692E+03  2.96342E+03 -3.34301E+03 -4.53580E+02
 -1.54976E+03 -3.83246E+03  2.15219E+03 -3.82859E+03  3.23397E+03 -1.91276E+03  3.13163E+03  5.56394E+02
  1.63597E+03  1.24194E+03  1.17907E+03  1.04304E+03 -4.08851E+02  1.25689E+03  1.79420E+03 -1.62107E+02
  1.06749E+03 -4.41629E+02  3.55247E+03  1.38996E+03  1.44420E+03  4.67478E+03 -8.32555E+02  5.93857E+03
 -4.26657E+03  3.49554E+03 -4.76167E+03  7.34954E+02 -4.56235E+03 -1.80997E+03 -1.61214E+03 -2.47119E+03
  6.93056E+02 -3.10149E+03  2.10162E+03 -1.84337E+03  1.56255E+03  1.95129E+03 -1.08752E+03  2.54600E+03
 -3.29455E+03  1.66200E+03 -3.66222E+03 -2.10914E+03 -2.39175E+03 -4.62589E+03  5.14162E+02 -4.34266E+03
  2.45986E+03 -2.45441E+03  2.68595E+03 -4.29801E+01  2.93782E+03  9.43170E+02  2.41760E+02  2.80791E+03
 -1.43822E+03  3.33122E+02 -1.97575E+03 -1.25074E+03  1.28718E+03 -2.86643E+03  4.16251E+03 -2.91898E+03
  4.44972E+03  4.08538E+02  5.36162E+03  3.03241E+03  1.99478E+03  4.68891E+03 -1.48201E+03  4.91594E+03
 -4.14152E+03  1.54072E+03 -4.24874E+03 -6.34304E+02 -2.11946E+03 -3.13496E+03  7.13846E+02 -2.67259E+03
  3.30026E+03 -1.62301E+03  2.49114E+03  1.48227E+03  7.61622E+02  2.97083E+03 -4.74040E+02  2.64942E+03
 -1.28904E+03  2.05872E+03 -9.23683E+02  4.29930E+02 -3.76849E+02  4.29232E+02 -1.24474E+03  1.11543E+03
 -1.48366E+03  1.97692E+03 -3.69015E+03  1.78340E+03 -4.67648E+03  2.34846E+02 -5.67451E+03 -2.98218E+03
 -2.56834E+03 -6.57162E+03  1.24416E+03 -7.38342E+03  4.29481E+03 -5.87750E+03  7.28550E+03 -2.56869E+03
  6.68764E+03  7.96894E+02  3.76605E+03  4.23133E+03  2.26415E+01  4.49484E+03 -1.84742E+03  3.99502E+03
 -3.03332E+03  1.68135E+03 -1.51802E+03 -5.58285E+02 -7.17877E+02 -1.72474E+02 -7.50695E+02  1.38757E+02
 -1.35521E+03 -3.91978E+01 -1.20574E+03 -2.87299E+01 -5.08207E+01 -1.39759E+03 -1.54648E+02 -1.68976E+03
  2.37040E+03 -1.64042E+03  2.58870E+03 -7.79072E+01  3.37898E+03  2.88969E+03  5.99120E+02  4.56920E+03
 -2.37288E+03  5.61511E+03 -5.03845E+03  3.44314E+03 -5.91939E+03 -2.37880E+02 -4.51240E+03 -3.71575E+03
 -2.04254E+03 -4.74702E+03  1.28558E+03 -4.07003E+03  2.86044E+03 -2.28746E+03  3.02009E+03 -1.00991E+02
  1.64415E+03  1.60891E+03  2.22553E+02  1.45743E+03 -9.80059E+02 -1.13416E+02 -4.24468E+01 -1.12437E+03
  1.76643E+03 -3.73868E+02  1.67548E+03  8.86209E+02  1.01547E+03  1.86040E+03  3.31263E+02  1.93755E+03
 -1.90670E+03  2.50410E+03 -2.68501E+03  2.54403E+02 -2.36198E+03 -2.27919E+03 -3.98384E+02 -3.54534E+03
  1.85019E+03 -2.93769E+03  3.14808E+03 -9.96441E+02  3.59349E+03  6.30493E+01  1.86334E+03  2.96655E+03
  6.27499E+02  3.00929E+03 -1.08856E+03  2.47806E+03 -1.93650E+03  1.48092E+03 -1.77368E+03  5.27380E+01
 -5.42493E+02 -3.46949E+02 -7.79164E+02  4.81552E+02 -1.59954E+03  5.71659E+02 -2.71818E+03 -5.78281E+02
 -2.37593E+03 -1.04728E+03 -1.10575E+03 -3.15136E+03  1.68924E+03 -3.71695E+03  2.54408E+03 -1.16443E+03
  3.09852E+03  1.22813E+02  1.00956E+03  1.76203E+03 -1.00184E+02  2.87008E+03 -2.09364E+03  2.28404E+03
