 $NMID ID='MM_0lb_SNR800_8hz_g45_66.RAW', FMTDAT='(8E13.5)'
 TRAMP=1., VOLUME=1. $END
  3.09558E+05  5.71717E+02  3.38038E+05  2.50781E+05  8.50485E+04  3.38809E+05 -1.32502E+05  2.52126E+05
 -1.91036E+05  8.39459E+04 -1.12724E+05 -3.25191E+04 -1.01389E+02 -5.05766E+04  5.39563E+04 -5.89052E+02
  3.60466E+04  5.29400E+04 -1.66290E+04  7.61327E+04 -6.12797E+04  6.44855E+04 -8.57245E+04  3.27373E+04
 -8.25531E+04 -1.18443E+04 -5.90778E+04 -5.22468E+04 -1.49854E+04 -7.13482E+04  2.79632E+04 -4.70937E+04
  4.12908E+04  3.88825E+03  1.67401E+04  4.82635E+04 -3.47219E+04  4.80739E+04 -6.82695E+04  2.65363E+02
 -5.48399E+04 -5.82267E+04 -7.89178E+03 -7.88666E+04  3.48400E+04 -5.72150E+04  5.03828E+04 -1.81285E+04
  4.55737E+04  1.12445E+04  3.29823E+04  2.71748E+04  1.54300E+04  3.09298E+04 -5.87043E+03  2.80973E+04
 -2.23091E+04  1.11780E+04 -1.79239E+04 -6.14607E+03  7.27853E+03 -7.66492E+03  2.30837E+04  1.39952E+04
  7.03653E+03  3.77270E+04 -3.43204E+04  3.73187E+04 -6.59846E+04  1.99713E+03 -5.92194E+04 -4.49642E+04
 -1.27870E+04 -6.62307E+04  4.18404E+04 -4.77177E+04  6.14488E+04 -2.65204E+03  3.71184E+04  3.45009E+04
 -5.42857E+03  3.97503E+04 -3.17711E+04  1.86551E+04 -3.38059E+04 -3.31290E+03 -1.95402E+04 -1.19440E+04
 -9.50757E+03 -1.54837E+04 -6.49634E+02 -2.00447E+04  8.47235E+03 -2.35129E+04  1.58698E+04 -1.26088E+04
  1.01078E+04  6.53865E+03 -1.08486E+04  1.30172E+04 -2.34038E+04 -6.82154E+03 -8.86813E+03 -3.81008E+04
  2.55109E+04 -4.70223E+04  5.25395E+04 -2.09489E+04  4.86921E+04  2.08154E+04  1.74050E+04  4.73065E+04
 -1.70332E+04  3.60073E+04 -2.76283E+04  2.72446E+03 -1.18919E+04 -2.94043E+04  2.14996E+04 -3.73190E+04
  4.51035E+04 -1.12278E+04  4.08650E+04  2.54428E+04  2.16758E+04  5.15736E+04 -8.29349E+03  5.68067E+04
 -3.59341E+04  3.90891E+04 -4.80162E+04  1.11130E+04 -4.83624E+04 -1.86082E+04 -2.62266E+04 -4.23583E+04
  7.72780E+03 -4.24401E+04  3.43762E+04 -1.69687E+04  3.25309E+04  1.12223E+04  5.77367E+03  2.07413E+04
 -1.41017E+04  9.44096E+03 -1.14921E+04 -7.61414E+03  5.33716E+03 -1.14344E+04  1.92181E+04  5.40948E+03
  1.46760E+04  2.28135E+04 -5.51809E+03  2.75125E+04 -2.34271E+04  1.49491E+04 -3.17869E+04 -2.57108E+03
 -2.58941E+04 -1.85874E+04 -1.17570E+04 -2.51018E+04  4.29498E+03 -2.59386E+04  1.98950E+04 -2.35144E+04
  3.24623E+04 -1.41720E+04  3.86988E+04  5.22551E+03  2.74242E+04  2.50548E+04  4.52679E+03  4.14322E+04
 -1.96326E+04  3.47028E+04 -3.10651E+04  1.14533E+04 -2.23224E+04 -9.87350E+03 -4.76627E+03 -1.27200E+04
  3.87666E+02 -1.38165E+03 -7.86002E+03  8.53889E+03 -2.08266E+04  4.84954E+03 -2.09212E+04 -9.61845E+03
 -1.21707E+04 -2.37256E+04  6.35032E+03 -2.83842E+04  1.89463E+04 -2.00270E+04  2.32289E+04 -1.66138E+03
  1.50257E+04  1.64453E+04 -1.15506E+03  2.42398E+04 -1.72442E+04  1.35404E+04 -2.38874E+04 -5.04128E+03
 -1.73124E+04 -2.15329E+04 -2.00706E+03 -2.87198E+04  1.28363E+04 -2.41017E+04  2.34804E+04 -1.19171E+04
  2.21026E+04 -2.16986E+01  1.63028E+04  5.07118E+03  9.05787E+03  1.61922E+03  1.26923E+04 -2.13425E+03
  2.27718E+04  2.95071E+03  2.61367E+04  1.88671E+04  1.80146E+04  3.86489E+04 -2.35769E+03  4.57489E+04
 -2.53670E+04  3.81350E+04 -4.33440E+04  2.01730E+04 -4.60520E+04 -3.22245E+03 -3.72441E+04 -2.70864E+04
 -1.43946E+04 -3.85683E+04  1.36081E+04 -3.36354E+04  2.86364E+04 -1.57091E+04  2.50347E+04  8.33897E+03
  8.24722E+03  1.96270E+04 -1.21272E+04  1.57608E+04 -2.10565E+04  2.78917E+03 -1.57372E+04 -1.31615E+04
 -2.45343E+02 -2.00888E+04  1.08316E+04 -1.47717E+04  1.38751E+04 -1.47037E+03  3.55770E+03  9.32983E+03
 -8.57478E+03  4.46636E+03 -9.96669E+03 -7.17778E+03 -1.62349E+03 -1.87319E+04  1.23072E+04 -2.05043E+04
  2.38989E+04 -1.16285E+04  2.73537E+04  3.54974E+03  2.36127E+04  1.94177E+04  1.09947E+04  3.06747E+04
 -6.26199E+03  3.26493E+04 -2.11796E+04  2.00707E+04 -2.38386E+04  3.92611E+03 -1.58081E+04 -6.11360E+03
 -6.60874E+03 -7.47631E+03 -3.37906E+02  5.67953E+02 -3.08120E+03  3.66687E+03 -7.38019E+03  5.62023E+03
 -1.48699E+04 -7.74767E+02 -1.55891E+04 -1.24620E+04 -5.92530E+03 -2.02030E+04  6.85270E+03 -1.62297E+04
  1.30245E+04 -6.66912E+03  9.19889E+03  4.52691E+03 -4.96202E+02  6.07303E+03 -8.25350E+03 -1.06952E+02
 -8.21772E+03 -1.03918E+04 -1.19162E+03 -1.63883E+04  9.35230E+03 -1.72375E+04  2.10046E+04 -9.18478E+03
  2.42891E+04  2.37417E+03  1.81887E+04  1.52764E+04  3.79084E+03  1.97993E+04 -1.01958E+04  1.58266E+04
 -1.33600E+04  4.69956E+03 -7.18086E+03 -3.96573E+03  2.12300E+03 -4.43991E+03  8.90286E+03 -7.63457E+02
  7.93623E+03  7.49752E+03  1.14113E+03  1.33769E+04 -9.71905E+03  1.29010E+04 -1.61150E+04  2.90162E+03
 -1.15077E+04 -8.77549E+03  1.31245E+02 -1.42523E+04  8.95863E+03 -7.09031E+03  9.56704E+03  3.77873E+03
  2.45557E+03  1.08087E+04 -8.65756E+03  1.23138E+04 -1.48219E+04  5.65816E+03 -1.47683E+04 -5.29266E+03
 -8.68830E+03 -1.68170E+04  4.48054E+03 -1.90141E+04  1.61565E+04 -1.16151E+04  1.79932E+04  3.10059E+03
  1.06695E+04  1.42883E+04 -1.89759E+03  1.67057E+04 -1.21585E+04  9.19612E+03 -1.38828E+04 -1.38062E+03
 -1.13952E+04 -1.09296E+04 -1.88597E+03 -1.30891E+04  6.56927E+03 -1.05320E+04  8.36934E+03 -3.87218E+03
  4.70093E+03  2.09927E+03 -8.58179E+02  1.93457E+03 -8.70648E+02 -3.65306E+03  2.71463E+03 -8.50712E+03
  1.24270E+04 -5.05546E+03  1.72671E+04  1.49393E+03  1.70866E+04  1.17055E+04  1.06112E+04  2.23259E+04
 -5.53273E+03  2.58330E+04 -2.13120E+04  1.89332E+04 -2.77163E+04  3.89289E+03 -2.21370E+04 -9.44576E+03
 -1.12355E+04 -1.77614E+04 -3.31335E+02 -1.59028E+04  5.28992E+03 -8.89478E+03  5.67067E+03 -5.33939E+03
  3.82020E+03 -3.57837E+03  4.20615E+03 -3.99677E+03  5.98140E+03 -3.59066E+03  8.82007E+03 -1.72402E+03
  1.15334E+04  2.75244E+03  6.29182E+03  9.98396E+03 -2.52765E+03  1.20855E+04 -1.20036E+04  9.65288E+03
 -1.58027E+04 -1.41339E+03 -9.87356E+03 -1.12746E+04 -2.07935E+03 -1.68759E+04  9.19300E+03 -1.68571E+04
  1.77456E+04 -9.50025E+03  2.11087E+04  3.03337E+03  1.46115E+04  1.49301E+04  2.41657E+03  1.91064E+04
 -8.37504E+03  1.53520E+04 -1.11760E+04  4.95022E+03 -7.58660E+03 -1.73496E+03 -3.08592E+03 -2.20626E+03
 -1.59176E+03 -6.26247E+02 -2.49238E+03  3.04525E+03 -6.49663E+03  2.11123E+03 -1.06689E+04 -1.48572E+03
 -7.95346E+03 -1.08681E+04 -2.92743E+02 -1.56611E+04  9.65993E+03 -1.42266E+04  1.63499E+04 -4.81095E+03
  1.64589E+04  7.69773E+03  7.35966E+03  1.44445E+04 -3.64462E+03  1.65527E+04 -1.14884E+04  9.99710E+03
 -1.53137E+04  5.11001E+02 -1.17144E+04 -9.77623E+03 -1.48013E+03 -1.33056E+04  7.05033E+03 -1.02850E+04
  1.04050E+04 -3.29501E+03  6.78785E+03  2.95414E+03  2.63066E+03  4.35445E+03  1.66079E+03  2.06649E+03
  2.72169E+03  1.32409E+03  3.67798E+03  1.78726E+03  4.54173E+03  5.45857E+03  4.46876E+03  8.72254E+03
 -3.48682E+03  1.31114E+04 -1.14290E+04  1.27472E+04 -1.68344E+04  3.00549E+03 -1.76369E+04 -6.96237E+03
 -8.20256E+03 -1.65258E+04  2.66819E+03 -1.82650E+04  9.66325E+03 -1.14340E+04  1.35766E+04 -2.95929E+03
  1.02777E+04  6.23632E+03  2.04480E+03  9.45084E+03 -4.93556E+03  6.28504E+03 -6.76808E+03 -1.14742E+03
 -3.35305E+03 -7.17466E+03  3.42057E+03 -7.56236E+03  6.85960E+03 -3.84952E+03  6.86130E+03  1.60051E+03
  4.07264E+03  3.82409E+03  1.18547E+03  2.79048E+03 -6.72953E+02  2.38879E+03  1.96743E+03 -5.07611E+02
  2.49903E+03 -8.65153E+02  6.73572E+03  2.35478E+03  4.17216E+03  8.86016E+03 -1.58303E+03  1.16944E+04
 -8.21375E+03  8.27664E+03 -1.11874E+04  2.04304E+03 -9.60172E+03 -3.72015E+03 -4.15715E+03 -6.92548E+03
  1.23945E+03 -6.54838E+03  4.80857E+03 -2.69504E+03  3.83821E+03  3.33538E+03 -1.67307E+03  5.70231E+03
 -6.87654E+03  2.75389E+03 -8.70281E+03 -4.07867E+03 -4.76420E+03 -9.47742E+03  1.19223E+03 -9.77877E+03
  5.68076E+03 -5.54494E+03  6.81177E+03 -7.76176E+02  5.29746E+03  2.36701E+03  1.16445E+03  5.01663E+03
 -3.70195E+03  1.69658E+03 -4.00353E+03 -3.47474E+03  1.89742E+03 -7.73769E+03  8.43050E+03 -6.15213E+03
  1.09257E+04  8.97270E+02  1.00507E+04  7.83453E+03  3.74734E+03  1.13002E+04 -4.00512E+03  1.05970E+04
 -8.99185E+03  4.51000E+03 -9.53070E+03 -1.33717E+03 -5.22100E+03 -7.31703E+03  1.75228E+03 -6.64420E+03
  7.10007E+03 -3.34994E+03  5.62076E+03  3.25085E+03  1.47520E+03  5.98731E+03 -8.14185E+02  5.23171E+03
 -2.75821E+03  3.58566E+03 -3.08238E+03  1.25800E+03 -1.68037E+03  1.25481E+03 -1.81419E+03  2.04327E+03
 -3.15952E+03  4.72028E+03 -7.51807E+03  4.07134E+03 -1.16205E+04  5.11434E+02 -1.30519E+04 -7.64433E+03
 -6.76772E+03 -1.51394E+04  2.93151E+03 -1.77482E+04  1.07432E+04 -1.34343E+04  1.66347E+04 -4.81921E+03
  1.49634E+04  2.96172E+03  9.90448E+03  1.04451E+04  7.55888E+02  1.19022E+04 -5.18072E+03  9.16199E+03
 -6.41577E+03  3.14499E+03 -4.16357E+03 -1.15046E+03 -8.66344E+02 -1.21211E+03 -6.41020E+02  3.33043E+02
 -2.15094E+03  2.98932E+02 -3.00527E+03 -5.16802E+02 -9.36881E+02 -2.82142E+03  1.18926E+02 -4.73137E+03
  5.26883E+03 -4.16682E+03  7.49672E+03 -2.45940E+02  8.45939E+03  6.39165E+03  2.62143E+03  1.19615E+04
 -5.38219E+03  1.34596E+04 -1.30833E+04  8.52848E+03 -1.52316E+04 -1.23546E+03 -1.12779E+04 -9.16114E+03
 -4.78964E+03 -1.27204E+04  3.08731E+03 -1.14637E+04  7.81129E+03 -6.66847E+03  7.98075E+03  5.75774E+01
  4.29366E+03  4.67792E+03 -4.07455E+02  3.33342E+03 -2.42023E+03 -2.93170E+02 -1.44468E+02 -2.71569E+03
  3.70206E+03 -1.95508E+03  4.98201E+03  2.03136E+03  3.05558E+03  4.95326E+03  2.01881E+02  6.53935E+03
 -5.19940E+03  5.91673E+03 -8.70773E+03  1.19610E+02 -6.94830E+03 -5.80297E+03 -9.05208E+02 -1.04897E+04
  5.47402E+03 -8.93137E+03  1.01554E+04 -2.74235E+03  9.39369E+03  2.59365E+03  5.31148E+03  7.62688E+03
  1.00934E+03  8.06891E+03 -3.60706E+03  6.25076E+03 -5.32986E+03  3.46117E+03 -3.81305E+03  1.86647E+02
 -2.57460E+03 -4.59945E+02 -2.34643E+03  7.14546E+02 -4.95328E+03  1.36140E+03 -6.23713E+03 -1.25007E+03
 -6.29310E+03 -3.83462E+03 -1.79275E+03 -8.16574E+03  3.73632E+03 -8.66333E+03  7.66129E+03 -3.97307E+03
  8.07959E+03  1.51353E+03  4.54441E+03  5.65316E+03 -4.14644E+02  8.59079E+03 -6.70234E+03  6.14778E+03
