 $NMID ID='MM_0lb_SNR800_11hz_g55_52.RAW', FMTDAT='(8E13.5)'
 TRAMP=1., VOLUME=1. $END
  3.09671E+05  1.32294E+02  3.37856E+05  2.51044E+05  8.50409E+04  3.38226E+05 -1.32722E+05  2.51780E+05
 -1.90659E+05  8.38748E+04 -1.12468E+05 -3.24515E+04  4.84156E+02 -5.04919E+04  5.37377E+04 -2.99994E+02
  3.54172E+04  5.28235E+04 -1.69274E+04  7.62207E+04 -6.13724E+04  6.41610E+04 -8.52204E+04  3.22388E+04
 -8.17967E+04 -1.17186E+04 -5.82846E+04 -5.23035E+04 -1.51347E+04 -7.02257E+04  2.79243E+04 -4.66421E+04
  4.09088E+04  3.59524E+03  1.69235E+04  4.83668E+04 -3.51582E+04  4.79568E+04 -6.79722E+04  8.62241E+01
 -5.43953E+04 -5.74629E+04 -7.05539E+03 -7.81158E+04  3.42880E+04 -5.60829E+04  4.93395E+04 -1.79079E+04
  4.48062E+04  1.12732E+04  3.26750E+04  2.62982E+04  1.60110E+04  3.04731E+04 -5.70775E+03  2.76554E+04
 -2.25233E+04  1.19727E+04 -1.83525E+04 -5.59801E+03  6.48376E+03 -7.26610E+03  2.33170E+04  1.30382E+04
  6.74120E+03  3.67881E+04 -3.38091E+04  3.67636E+04 -6.51075E+04  2.06233E+03 -5.82357E+04 -4.37523E+04
 -1.25230E+04 -6.50737E+04  4.12891E+04 -4.70406E+04  6.04449E+04 -2.29222E+03  3.59543E+04  3.40906E+04
 -5.79926E+03  3.81860E+04 -3.16852E+04  1.79813E+04 -3.24557E+04 -3.96443E+03 -1.86124E+04 -1.15033E+04
 -9.21274E+03 -1.44597E+04 -3.41615E+02 -1.93109E+04  8.29768E+03 -2.33644E+04  1.57780E+04 -1.27960E+04
  1.08666E+04  6.02984E+03 -9.79744E+03  1.28041E+04 -2.29201E+04 -6.36783E+03 -8.42227E+03 -3.64220E+04
  2.46983E+04 -4.59275E+04  5.11341E+04 -2.05287E+04  4.78342E+04  2.06315E+04  1.69135E+04  4.63919E+04
 -1.63596E+04  3.53131E+04 -2.66307E+04  2.47114E+03 -1.10921E+04 -2.89132E+04  2.13599E+04 -3.61829E+04
  4.36394E+04 -1.05509E+04  3.91536E+04  2.47708E+04  2.03150E+04  4.96950E+04 -8.29098E+03  5.45399E+04
 -3.45891E+04  3.77052E+04 -4.61137E+04  1.08283E+04 -4.64964E+04 -1.80183E+04 -2.53286E+04 -4.10076E+04
  7.65982E+03 -4.09814E+04  3.36687E+04 -1.65320E+04  3.16226E+04  1.11430E+04  4.86138E+03  2.03680E+04
 -1.37556E+04  8.97660E+03 -1.07585E+04 -7.55622E+03  5.80812E+03 -1.14689E+04  1.83445E+04  5.57877E+03
  1.41783E+04  2.24182E+04 -5.20053E+03  2.68367E+04 -2.32513E+04  1.36352E+04 -3.04254E+04 -2.90523E+03
 -2.39049E+04 -1.79112E+04 -1.05587E+04 -2.36981E+04  4.30105E+03 -2.42443E+04  1.88324E+04 -2.17686E+04
  3.01431E+04 -1.37139E+04  3.61509E+04  4.28076E+03  2.60534E+04  2.31661E+04  4.26185E+03  4.00350E+04
 -1.90989E+04  3.31573E+04 -3.00729E+04  1.15508E+04 -2.20256E+04 -1.05455E+04 -4.82891E+03 -1.28525E+04
  9.86579E+02 -1.81281E+03 -6.60317E+03  7.78738E+03 -1.89799E+04  5.26248E+03 -1.94115E+04 -8.84194E+03
 -1.14824E+04 -2.21593E+04  5.43593E+03 -2.60743E+04  1.76312E+04 -1.87101E+04  2.11033E+04 -2.11220E+03
  1.35713E+04  1.56490E+04 -1.25043E+03  2.22795E+04 -1.53059E+04  1.24525E+04 -2.18304E+04 -4.33522E+03
 -1.58780E+04 -1.96152E+04 -2.20291E+03 -2.62513E+04  1.20883E+04 -2.20245E+04  2.18752E+04 -1.14272E+04
  2.06892E+04  1.73743E+02  1.53408E+04  4.99886E+03  8.16490E+03  1.15853E+03  1.11511E+04 -2.03931E+03
  2.06807E+04  2.93429E+03  2.36872E+04  1.71356E+04  1.61757E+04  3.52862E+04 -2.45988E+03  4.13377E+04
 -2.38932E+04  3.39465E+04 -3.83348E+04  1.76919E+04 -4.14183E+04 -3.02946E+03 -3.38554E+04 -2.42930E+04
 -1.36934E+04 -3.40121E+04  1.20753E+04 -3.01861E+04  2.55611E+04 -1.43190E+04  2.26370E+04  7.07860E+03
  7.63838E+03  1.71378E+04 -1.09635E+04  1.46560E+04 -1.89193E+04  2.50473E+03 -1.42137E+04 -1.21839E+04
 -3.87593E+02 -1.82214E+04  9.84125E+03 -1.33404E+04  1.23674E+04 -1.44843E+03  2.98851E+03  8.20248E+03
 -7.85108E+03  3.38080E+03 -8.31479E+03 -6.42579E+03 -1.57648E+03 -1.66872E+04  1.12609E+04 -1.80795E+04
  2.09312E+04 -1.03696E+04  2.33018E+04  3.23822E+03  2.03485E+04  1.68424E+04  9.47465E+03  2.64710E+04
 -4.33648E+03  2.82942E+04 -1.83653E+04  1.72276E+04 -2.05481E+04  3.73334E+03 -1.39196E+04 -5.29204E+03
 -6.18524E+03 -6.07313E+03 -7.38739E+02  1.03748E+02 -3.12989E+03  2.97057E+03 -6.78544E+03  5.18691E+03
 -1.28666E+04 -1.07576E+03 -1.32935E+04 -1.10065E+04 -5.80803E+03 -1.81130E+04  5.73750E+03 -1.42087E+04
  1.16174E+04 -5.97523E+03  8.36913E+03  3.74979E+03  1.45896E+02  5.92130E+03 -6.65479E+03 -1.20978E+02
 -6.60565E+03 -8.51050E+03 -1.01268E+03 -1.39080E+04  8.04988E+03 -1.41595E+04  1.78911E+04 -7.65859E+03
  2.13092E+04  1.91464E+03  1.52700E+04  1.28179E+04  3.29195E+03  1.66332E+04 -8.78021E+03  1.40695E+04
 -1.17007E+04  3.70815E+03 -5.86541E+03 -3.40311E+03  2.26193E+03 -4.04459E+03  7.47703E+03 -1.04622E+03
  6.62036E+03  6.00103E+03  9.42364E+02  1.15304E+04 -8.19945E+03  1.07714E+04 -1.39842E+04  2.43749E+03
 -9.13165E+03 -7.17943E+03  1.85353E+02 -1.21977E+04  7.61892E+03 -6.28640E+03  8.30377E+03  2.95158E+03
  1.98688E+03  8.59223E+03 -7.65508E+03  9.94084E+03 -1.16290E+04  4.36409E+03 -1.18769E+04 -3.96151E+03
 -6.87148E+03 -1.39190E+04  3.29579E+03 -1.55736E+04  1.34369E+04 -9.56068E+03  1.42852E+04  2.69169E+03
  8.84764E+03  1.18432E+04 -1.11517E+03  1.37689E+04 -9.85956E+03  7.62297E+03 -1.13550E+04 -1.04776E+03
 -9.44678E+03 -9.30757E+03 -1.45499E+03 -1.03263E+04  5.54729E+03 -8.46386E+03  6.84179E+03 -3.50504E+03
  4.75652E+03  1.43122E+03 -7.82036E+02  1.98075E+03 -3.35197E+02 -2.71998E+03  1.98138E+03 -6.48115E+03
  9.65294E+03 -4.49007E+03  1.35359E+04  1.39588E+03  1.34271E+04  9.24278E+03  9.00789E+03  1.79253E+04
 -4.07711E+03  2.05134E+04 -1.70114E+04  1.54387E+04 -2.21597E+04  2.62944E+03 -1.77993E+04 -7.31002E+03
 -9.01693E+03 -1.45594E+04 -5.28952E+02 -1.24738E+04  4.68598E+03 -6.95284E+03  4.13163E+03 -4.60696E+03
  3.24686E+03 -3.19843E+03  3.33865E+03 -3.84402E+03  4.92367E+03 -2.94863E+03  6.84219E+03 -7.20020E+02
  9.49906E+03  2.14026E+03  4.45928E+03  8.08940E+03 -2.04085E+03  9.01914E+03 -9.70356E+03  7.29158E+03
 -1.27456E+04 -1.19900E+03 -7.53263E+03 -8.79117E+03 -8.24093E+02 -1.30315E+04  7.64423E+03 -1.32496E+04
  1.39920E+04 -7.23174E+03  1.63924E+04  2.20198E+03  1.12239E+04  1.12743E+04  1.98545E+03  1.47870E+04
 -5.90853E+03  1.22312E+04 -8.79085E+03  4.18357E+03 -6.09554E+03 -1.66040E+03 -2.53777E+03 -2.04566E+03
 -1.25118E+03 -3.09262E+02 -2.16201E+03  3.12932E+03 -5.63311E+03  2.21766E+03 -8.29880E+03 -9.75967E+02
 -5.90030E+03 -8.41304E+03  1.23486E+02 -1.22376E+04  7.66484E+03 -1.11476E+04  1.19176E+04 -3.44729E+03
  1.20202E+04  5.89834E+03  5.59397E+03  1.04327E+04 -2.16968E+03  1.21892E+04 -8.21742E+03  7.84139E+03
 -1.15627E+04  5.02201E+02 -8.90926E+03 -7.71503E+03 -5.61169E+02 -1.00189E+04  5.55818E+03 -7.52148E+03
  7.67488E+03 -2.43752E+03  5.21277E+03  1.80015E+03  1.49031E+03  3.42521E+03  1.19912E+03  1.59441E+03
  2.47749E+03  9.32950E+02  2.75142E+03  1.34887E+03  3.51107E+03  3.88297E+03  2.91115E+03  6.04406E+03
 -2.44670E+03  9.80583E+03 -8.34972E+03  9.63512E+03 -1.21796E+04  2.75411E+03 -1.26849E+04 -4.66149E+03
 -6.34040E+03 -1.19738E+04  1.58869E+03 -1.34355E+04  7.23778E+03 -8.32279E+03  9.89703E+03 -2.47177E+03
  7.21386E+03  4.84119E+03  1.54582E+03  7.09985E+03 -3.13197E+03  4.44593E+03 -4.89225E+03 -6.92803E+02
 -2.04197E+03 -5.36809E+03  2.70215E+03 -5.21968E+03  5.13498E+03 -2.75540E+03  4.90500E+03  9.69528E+02
  3.07012E+03  2.33655E+03  1.39753E+03  2.29766E+03 -5.95180E+02  1.61813E+03  1.50704E+03 -6.24664E+02
  1.95547E+03 -4.76614E+02  4.82622E+03  2.67819E+03  2.50364E+03  6.44308E+03 -1.05390E+03  8.34756E+03
 -5.74675E+03  5.40882E+03 -7.46749E+03  1.56963E+03 -6.29975E+03 -3.07640E+03 -2.52990E+03 -4.86627E+03
  7.09827E+02 -4.63895E+03  2.94239E+03 -2.24604E+03  2.52358E+03  1.93849E+03 -9.43148E+02  3.75794E+03
 -4.91303E+03  2.36215E+03 -5.46342E+03 -3.09477E+03 -3.18084E+03 -6.48372E+03  8.19384E+02 -6.56380E+03
  3.71517E+03 -3.55128E+03  4.60474E+03 -2.40659E+02  4.02367E+03  2.05474E+03  5.24325E+02  3.45675E+03
 -2.02298E+03  7.52620E+02 -2.94789E+03 -2.48843E+03  1.46541E+03 -5.22044E+03  5.91340E+03 -4.06252E+03
  7.00725E+03  4.97481E+02  7.52167E+03  4.84942E+03  2.76668E+03  7.66471E+03 -2.71146E+03  6.83184E+03
 -6.35018E+03  3.01424E+03 -6.06802E+03 -6.30759E+02 -3.52477E+03 -4.82982E+03  1.09972E+03 -4.29276E+03
  4.68352E+03 -2.27223E+03  3.91393E+03  2.39087E+03  1.31133E+03  4.26974E+03 -3.13536E+02  3.18333E+03
 -1.69706E+03  2.94264E+03 -1.85122E+03  7.96342E+02 -8.28281E+02  9.10756E+02 -1.23744E+03  1.64421E+03
 -1.90494E+03  2.94706E+03 -5.37448E+03  2.71989E+03 -7.27044E+03  4.79172E+02 -8.32915E+03 -4.62143E+03
 -4.70770E+03 -9.76726E+03  1.84236E+03 -1.11513E+04  6.79643E+03 -9.12098E+03  1.08581E+04 -3.44451E+03
  9.89591E+03  1.89622E+03  6.33049E+03  6.54769E+03  3.50002E+02  8.01146E+03 -3.07928E+03  5.85090E+03
 -3.99127E+03  2.40043E+03 -2.49386E+03 -7.30763E+02 -8.61359E+02 -3.76022E+02 -8.77894E+02 -1.06858E+02
 -1.63244E+03 -4.43238E+01 -2.05616E+03 -9.39009E+01 -5.49737E+02 -1.92648E+03  8.41463E+01 -2.65363E+03
  3.70400E+03 -2.09698E+03  4.70150E+03 -2.98637E+00  5.12517E+03  4.29975E+03  1.24596E+03  7.25229E+03
 -3.49067E+03  8.76123E+03 -8.07830E+03  4.71527E+03 -8.82607E+03 -8.31100E+02 -6.51542E+03 -5.58637E+03
 -2.67299E+03 -7.57342E+03  1.89829E+03 -6.87755E+03  4.65153E+03 -3.65477E+03  4.58052E+03  4.75534E+02
  2.39525E+03  2.08692E+03  9.85436E+01  2.09320E+03 -1.27852E+03  1.23060E+02  2.02728E+02 -1.79575E+03
  2.30460E+03 -6.06109E+02  3.06838E+03  7.52782E+02  2.13522E+03  2.50601E+03  5.40206E+01  3.65728E+03
 -3.01799E+03  3.22110E+03 -5.10337E+03  1.08064E+02 -4.40285E+03 -3.50841E+03 -7.59697E+02 -6.39588E+03
  3.31361E+03 -4.84046E+03  5.04324E+03 -1.50849E+03  5.62280E+03  1.08747E+03  3.24782E+03  4.55250E+03
  6.16462E+02  4.34605E+03 -1.98053E+03  3.69784E+03 -2.92321E+03  2.49562E+03 -2.74840E+03  3.06879E+02
 -1.78269E+03 -1.33776E+02 -1.33423E+03  2.50215E+02 -2.87157E+03  7.08827E+02 -3.93434E+03 -8.14343E+02
 -3.45354E+03 -2.28974E+03 -7.33397E+02 -5.10110E+03  2.36888E+03 -5.13391E+03  3.94080E+03 -2.51838E+03
  4.25183E+03  3.64561E+02  2.18696E+03  2.70398E+03 -4.21031E+02  5.03852E+03 -3.60778E+03  2.98120E+03
