 $NMID ID='MM_0lb_SNR800_15hz_g45_73.RAW', FMTDAT='(8E13.5)'
 TRAMP=1., VOLUME=1. $END
  3.09777E+05  2.34063E+02  3.37642E+05  2.50388E+05  8.44642E+04  3.37425E+05 -1.32360E+05  2.50819E+05
 -1.89836E+05  8.28816E+04 -1.11534E+05 -3.28773E+04  1.25657E+03 -5.02445E+04  5.38317E+04  2.00159E+02
  3.54124E+04  5.27608E+04 -1.69597E+04  7.54815E+04 -6.04311E+04  6.31349E+04 -8.36584E+04  3.19119E+04
 -8.08542E+04 -1.14227E+04 -5.70320E+04 -5.09944E+04 -1.52634E+04 -6.90416E+04  2.72839E+04 -4.53489E+04
  3.95252E+04  3.94912E+03  1.58905E+04  4.77422E+04 -3.41936E+04  4.68017E+04 -6.65144E+04 -6.66067E+02
 -5.28342E+04 -5.63530E+04 -6.72956E+03 -7.61470E+04  3.34794E+04 -5.43574E+04  4.74649E+04 -1.69067E+04
  4.25785E+04  1.10351E+04  3.15526E+04  2.51109E+04  1.57833E+04  2.88620E+04 -5.30112E+03  2.69253E+04
 -2.19570E+04  1.25602E+04 -1.88329E+04 -4.85089E+03  5.17917E+03 -7.43127E+03  2.17398E+04  1.19914E+04
  7.13296E+03  3.43642E+04 -3.17822E+04  3.45407E+04 -6.26606E+04  1.92223E+03 -5.62791E+04 -4.22850E+04
 -1.23287E+04 -6.23411E+04  3.94176E+04 -4.47407E+04  5.72804E+04 -2.16729E+03  3.33584E+04  3.14774E+04
 -6.21586E+03  3.52914E+04 -2.90778E+04  1.48859E+04 -2.93715E+04 -5.04501E+03 -1.61050E+04 -1.05982E+04
 -7.82043E+03 -1.26715E+04 -8.09922E+02 -1.76474E+04  7.31071E+03 -2.30465E+04  1.53475E+04 -1.36290E+04
  1.17282E+04  4.99478E+03 -7.78409E+03  1.30003E+04 -2.07281E+04 -3.56469E+03 -8.40395E+03 -3.24771E+04
  2.19728E+04 -4.26634E+04  4.71996E+04 -1.91765E+04  4.41867E+04  1.91502E+04  1.51828E+04  4.33813E+04
 -1.56645E+04  3.26273E+04 -2.46956E+04  1.33070E+03 -9.15618E+03 -2.72436E+04  2.07324E+04 -3.33169E+04
  4.00688E+04 -8.54384E+03  3.43358E+04  2.32246E+04  1.72019E+04  4.50767E+04 -7.99330E+03  4.87182E+04
 -3.05464E+04  3.26017E+04 -4.05055E+04  9.24302E+03 -4.12181E+04 -1.62638E+04 -2.25475E+04 -3.65657E+04
  7.42819E+03 -3.66766E+04  3.07677E+04 -1.39854E+04  2.86436E+04  1.11181E+04  3.98484E+03  1.85851E+04
 -1.34911E+04  8.15357E+03 -1.02509E+04 -7.63758E+03  5.88130E+03 -1.04066E+04  1.77521E+04  6.14657E+03
  1.33866E+04  2.16413E+04 -5.88305E+03  2.44531E+04 -2.21467E+04  1.08087E+04 -2.68195E+04 -5.60376E+03
 -1.93482E+04 -1.71206E+04 -7.43431E+03 -1.92019E+04  4.10447E+03 -1.81319E+04  1.47473E+04 -1.68303E+04
  2.44594E+04 -1.27255E+04  3.09821E+04  2.53747E+03  2.31086E+04  1.86905E+04  4.18507E+03  3.51443E+04
 -1.70329E+04  2.93315E+04 -2.71325E+04  1.03132E+04 -2.02927E+04 -9.93236E+03 -4.10927E+03 -1.34081E+04
  1.91871E+03 -3.22910E+03 -4.13575E+03  6.09151E+03 -1.50642E+04  5.16596E+03 -1.53890E+04 -6.61220E+03
 -9.47312E+03 -1.78374E+04  5.00646E+03 -2.16367E+04  1.44962E+04 -1.55583E+04  1.70971E+04 -1.49889E+03
  1.08863E+04  1.24724E+04 -9.23843E+02  1.81831E+04 -1.23484E+04  1.01166E+04 -1.81086E+04 -3.64882E+03
 -1.33216E+04 -1.66410E+04 -1.63281E+03 -2.16393E+04  9.82490E+03 -1.77748E+04  1.82645E+04 -8.77081E+03
  1.67895E+04  4.70118E+02  1.20357E+04  4.64109E+03  6.41540E+03  9.89690E+02  9.10979E+03 -1.36340E+03
  1.59767E+04  2.73416E+03  1.79634E+04  1.41467E+04  1.14023E+04  2.85441E+04 -2.66210E+03  3.16480E+04
 -1.85299E+04  2.50642E+04 -2.93135E+04  1.26881E+04 -3.08469E+04 -2.42681E+03 -2.54711E+04 -1.79654E+04
 -1.14039E+04 -2.54906E+04  8.55858E+03 -2.31581E+04  1.96918E+04 -1.21161E+04  1.82346E+04  4.91457E+03
  7.11612E+03  1.33526E+04 -8.43281E+03  1.23781E+04 -1.54163E+04  2.66762E+03 -1.15999E+04 -9.22242E+03
 -2.72467E+02 -1.41388E+04  7.32688E+03 -1.08604E+04  9.50238E+03 -1.21847E+03  1.87436E+03  5.95044E+03
 -6.75736E+03  2.08771E+03 -5.45883E+03 -5.01629E+03  3.67627E+02 -1.24860E+04  8.89525E+03 -1.26522E+04
  1.54383E+04 -6.45474E+03  1.58942E+04  2.97411E+03  1.37297E+04  1.20866E+04  6.29145E+03  1.82274E+04
 -2.90481E+03  2.00990E+04 -1.25761E+04  1.25874E+04 -1.42860E+04  3.30936E+03 -1.03163E+04 -3.12201E+03
 -5.29620E+03 -4.33444E+03 -7.83733E+02  1.14959E+03 -2.22752E+03  2.32420E+03 -4.93167E+03  4.16354E+03
 -9.55914E+03 -8.57872E+02 -1.05301E+04 -8.55114E+03 -3.90144E+03 -1.36442E+04  4.45763E+03 -1.04718E+04
  8.41944E+03 -4.68392E+03  6.28936E+03  2.43385E+03  2.90732E+02  3.79749E+03 -4.46030E+03 -4.44677E+02
 -4.35889E+03 -6.38582E+03 -9.29239E+02 -9.72650E+03  5.20437E+03 -1.03343E+04  1.27461E+04 -5.20081E+03
  1.48093E+04  1.12756E+03  1.09501E+04  8.46224E+03  2.27193E+03  1.18393E+04 -6.44688E+03  1.04225E+04
 -8.43579E+03  3.31619E+03 -4.70581E+03 -2.15777E+03  1.75744E+03 -2.63423E+03  5.85961E+03 -9.84927E+02
  5.19542E+03  4.51564E+03  1.04053E+03  8.03378E+03 -5.39797E+03  7.76275E+03 -9.99785E+03  1.90778E+03
 -6.25187E+03 -4.79225E+03  1.89405E+02 -8.49618E+03  5.04726E+03 -4.46508E+03  5.00335E+03  1.72282E+03
  1.07877E+03  4.88415E+03 -5.26753E+03  6.60721E+03 -7.28415E+03  3.10498E+03 -7.21694E+03 -2.30344E+03
 -4.20053E+03 -8.68925E+03  2.10176E+03 -9.95161E+03  8.40776E+03 -6.26547E+03  8.73234E+03  1.26209E+03
  6.34897E+03  7.44235E+03 -3.88389E+02  9.77827E+03 -6.60428E+03  5.20259E+03 -7.44602E+03 -4.40614E+02
 -7.30874E+03 -6.63198E+03 -1.61948E+03 -6.82709E+03  3.61582E+03 -6.01874E+03  3.97551E+03 -2.92440E+03
  3.25720E+03  5.00560E+02  1.63932E+02  1.59720E+03 -7.43725E+01 -1.17232E+03  8.54087E+02 -3.30092E+03
  5.63507E+03 -1.78046E+03  7.91555E+03  1.14927E+03  7.74746E+03  5.07175E+03  6.67443E+03  1.07058E+04
 -2.16388E+03  1.24949E+04 -1.06738E+04  9.33121E+03 -1.39130E+04  1.70248E+03 -1.11372E+04 -4.09443E+03
 -5.70174E+03 -9.41260E+03 -1.18411E+02 -7.43083E+03  2.85731E+03 -3.65690E+03  2.85280E+03 -3.11556E+03
  1.96073E+03 -1.72995E+03  2.62134E+03 -2.85345E+03  3.90929E+03 -1.77898E+03  4.60626E+03 -1.21520E+02
  5.92017E+03  1.58184E+03  2.28731E+03  5.14742E+03 -1.76427E+03  5.02845E+03 -6.25895E+03  4.28556E+03
 -7.12669E+03 -1.07402E+03 -3.70431E+03 -5.26138E+03 -1.98446E+01 -7.14307E+03  4.89393E+03 -7.73071E+03
  7.70783E+03 -5.00071E+03  9.68648E+03  6.75312E+02  7.00042E+03  6.68054E+03  1.10977E+03  8.85474E+03
 -3.66100E+03  8.19344E+03 -5.17689E+03  2.61713E+03 -3.00965E+03 -1.31638E+03 -7.95091E+02 -9.04675E+02
 -6.96160E+02  7.33371E+02 -1.42590E+03  2.22923E+03 -3.29648E+03  1.22851E+03 -5.56154E+03 -6.65059E+02
 -2.81113E+03 -5.76732E+03  8.74849E+02 -7.16644E+03  4.42170E+03 -6.66173E+03  6.35548E+03 -1.69998E+03
  6.67926E+03  3.58369E+03  3.06242E+03  5.66995E+03 -1.32058E+03  6.81549E+03 -4.48165E+03  4.44255E+03
 -6.38141E+03  3.80649E+02 -5.20130E+03 -3.97302E+03 -5.71677E+02 -5.39540E+03  2.81060E+03 -4.02645E+03
  4.30978E+03 -1.79486E+03  2.82899E+03  9.60523E+02  9.54206E+02  2.32897E+03  9.43537E+02  9.59956E+02
  1.79753E+03  7.11527E+02  1.84016E+03  1.15307E+03  1.83435E+03  2.86990E+03  1.97684E+03  3.27422E+03
 -1.65057E+03  5.22594E+03 -4.18544E+03  5.76262E+03 -5.50670E+03  1.54838E+03 -6.70682E+03 -1.82450E+03
 -2.95537E+03 -6.07883E+03  1.08204E+03 -7.56769E+03  3.69661E+03 -4.32568E+03  5.15735E+03 -1.59067E+03
  4.07378E+03  2.46772E+03  4.27655E+02  3.44499E+03 -1.61305E+03  2.30091E+03 -2.29975E+03  1.46627E+02
 -1.35149E+03 -2.53425E+03  1.49490E+03 -2.62916E+03  2.38550E+03 -1.46197E+03  2.67051E+03  5.26618E+02
  1.12541E+03  6.65387E+02  6.81163E+02  3.04137E+02 -4.54778E+02  9.64717E+02  1.48647E+03 -3.15867E+02
  2.31035E+02 -9.25902E+01  2.73186E+03  1.15807E+03  8.20524E+02  3.73392E+03 -5.08942E+02  4.50266E+03
 -3.03412E+03  2.28473E+03 -3.69817E+03  6.59411E+02 -3.53266E+03 -1.07005E+03 -7.70749E+02 -1.92225E+03
  8.22365E+02 -2.34584E+03  1.53689E+03 -1.17010E+03  1.25144E+03  1.61287E+03 -1.08762E+03  2.02514E+03
 -2.30402E+03  1.19733E+03 -2.83214E+03 -1.86528E+03 -1.18443E+03 -3.67558E+03  5.59758E+02 -2.88488E+03
  1.35835E+03 -1.63058E+03  1.90025E+03  9.69955E+01  2.15533E+03  4.12586E+02  3.03400E+02  1.93455E+03
 -1.06198E+03  4.50642E+02 -1.52094E+03 -6.97516E+02  7.49764E+02 -1.82856E+03  2.87089E+03 -1.97374E+03
  3.02020E+03  5.00762E+02  4.28851E+03  2.10533E+03  1.09872E+03  3.39991E+03 -9.34127E+02  3.35742E+03
 -2.83535E+03  1.21866E+03 -2.65347E+03 -3.25698E+02 -1.41521E+03 -2.45368E+03  5.89125E+02 -1.69189E+03
  2.65397E+03 -9.18285E+02  1.62474E+03  1.23176E+03  4.43324E+02  2.12000E+03  2.83016E+01  1.92212E+03
 -9.05579E+02  1.69962E+03 -7.12625E+02  3.00649E+02 -1.49089E+01  6.04818E+02 -7.43426E+02  7.12785E+02
 -9.18787E+02  1.75272E+03 -2.73009E+03  9.95028E+02 -3.41799E+03  3.52468E+02 -3.96971E+03 -2.22062E+03
 -1.77079E+03 -4.60898E+03  1.04352E+03 -5.41688E+03  2.60832E+03 -4.29644E+03  5.20091E+03 -1.68541E+03
  4.49681E+03  3.84284E+02  2.54212E+03  3.19208E+03 -6.71672E+02  3.13519E+03 -1.44759E+03  2.56625E+03
 -1.88220E+03  1.10792E+03 -1.19070E+03 -5.37937E+02 -3.04326E+02  3.11067E+02 -7.24243E+02  2.71343E+01
 -1.33337E+03 -2.37572E+02 -1.14275E+03  9.51285E+01 -1.24431E+02 -8.86525E+02  9.48601E+00 -1.51644E+03
  2.38116E+03 -1.24742E+03  1.58724E+03  2.74651E+02  2.12120E+03  1.82180E+03  1.45792E+02  3.16457E+03
 -1.56651E+03  4.20213E+03 -3.31661E+03  2.23415E+03 -3.71044E+03 -3.60132E+02 -2.43870E+03 -2.52061E+03
 -1.31568E+03 -3.26953E+03  7.00158E+02 -2.77337E+03  1.75353E+03 -1.49144E+03  1.66046E+03 -5.09322E+01
  1.15390E+03  1.03614E+03 -1.70782E+02  1.16319E+03 -4.02387E+02  9.62014E+01 -1.18369E+02 -6.03441E+02
  1.14426E+03 -1.40121E+02  9.19256E+02  6.36824E+02  6.57125E+02  1.26702E+03  2.97749E+01  9.23516E+02
 -1.22272E+03  1.45959E+03 -1.58613E+03  1.33078E+02 -1.96794E+03 -1.05665E+03 -3.11753E+02 -2.50067E+03
  1.24067E+03 -1.91937E+03  1.98067E+03 -3.78570E+02  2.51417E+03  7.52697E+00  6.91241E+02  1.91036E+03
  5.74252E+02  1.77081E+03 -7.10206E+02  1.60321E+03 -1.14017E+03  8.26104E+02 -8.75734E+02  2.52274E+02
 -5.54448E+02 -2.78954E+02 -6.48732E+02 -1.36758E+02 -1.28027E+03  2.70272E+02 -1.37796E+03 -4.42593E+02
 -1.84267E+03 -3.81176E+02 -7.90882E+02 -2.00805E+03  1.04711E+03 -2.55030E+03  1.79122E+03 -7.06196E+02
  1.67378E+03  2.25357E+02  6.88556E+02  8.22756E+02 -4.34194E+02  1.83705E+03 -1.28218E+03  1.53106E+03
