 $NMID ID='MM_0lb_SNR800_18hz_g60_44.RAW', FMTDAT='(8E13.5)'
 TRAMP=1., VOLUME=1. $END
  3.09855E+05  3.58859E+02  3.37391E+05  2.50773E+05  8.46345E+04  3.37667E+05 -1.32357E+05  2.50788E+05
 -1.89961E+05  8.27989E+04 -1.11932E+05 -3.26300E+04  1.00470E+03 -5.04650E+04  5.34992E+04 -1.50296E+02
  3.51875E+04  5.29359E+04 -1.67094E+04  7.54592E+04 -6.09270E+04  6.31751E+04 -8.38767E+04  3.18483E+04
 -8.10591E+04 -1.12606E+04 -5.65810E+04 -5.10388E+04 -1.50089E+04 -6.92435E+04  2.70453E+04 -4.57934E+04
  3.98647E+04  4.04951E+03  1.63669E+04  4.75821E+04 -3.42872E+04  4.64810E+04 -6.64498E+04 -1.91003E+02
 -5.26606E+04 -5.65886E+04 -6.67084E+03 -7.68557E+04  3.36660E+04 -5.45578E+04  4.75211E+04 -1.73197E+04
  4.28491E+04  1.11391E+04  3.15929E+04  2.52753E+04  1.57830E+04  2.91254E+04 -5.23814E+03  2.72601E+04
 -2.19108E+04  1.24268E+04 -1.91909E+04 -4.79633E+03  5.07545E+03 -7.34572E+03  2.20099E+04  1.20843E+04
  7.43783E+03  3.48130E+04 -3.16410E+04  3.51509E+04 -6.26294E+04  2.05303E+03 -5.65869E+04 -4.21984E+04
 -1.26740E+04 -6.25227E+04  3.91666E+04 -4.45760E+04  5.72191E+04 -2.29893E+03  3.33567E+04  3.18593E+04
 -6.25514E+03  3.51935E+04 -2.93769E+04  1.48807E+04 -2.91865E+04 -4.76770E+03 -1.61609E+04 -1.06684E+04
 -7.98182E+03 -1.26135E+04 -9.56238E+02 -1.75024E+04  7.29599E+03 -2.27832E+04  1.53252E+04 -1.33268E+04
  1.15357E+04  4.88223E+03 -7.36031E+03  1.31157E+04 -2.04994E+04 -3.64772E+03 -8.20710E+03 -3.23129E+04
  2.21962E+04 -4.24318E+04  4.68424E+04 -1.92383E+04  4.40280E+04  1.89345E+04  1.50429E+04  4.33136E+04
 -1.58250E+04  3.26096E+04 -2.47357E+04  1.38709E+03 -9.20395E+03 -2.72172E+04  2.08476E+04 -3.27522E+04
  3.95962E+04 -8.45982E+03  3.39609E+04  2.33696E+04  1.72300E+04  4.50149E+04 -7.89283E+03  4.82681E+04
 -3.01225E+04  3.22023E+04 -4.02901E+04  9.40991E+03 -4.07460E+04 -1.60175E+04 -2.25511E+04 -3.64337E+04
  7.06915E+03 -3.63243E+04  3.05156E+04 -1.38031E+04  2.80595E+04  1.07438E+04  3.48707E+03  1.86333E+04
 -1.33126E+04  8.00339E+03 -1.01707E+04 -7.86138E+03  5.83585E+03 -1.02839E+04  1.75866E+04  6.06638E+03
  1.30699E+04  2.19359E+04 -6.11894E+03  2.42095E+04 -2.18692E+04  1.08796E+04 -2.68080E+04 -5.50610E+03
 -1.85986E+04 -1.68731E+04 -6.89912E+03 -1.89520E+04  3.77242E+03 -1.75131E+04  1.41942E+04 -1.65272E+04
  2.38326E+04 -1.23043E+04  3.05330E+04  1.94310E+03  2.26022E+04  1.82221E+04  3.99671E+03  3.46386E+04
 -1.69029E+04  2.88898E+04 -2.69348E+04  1.00142E+04 -2.02486E+04 -1.04573E+04 -4.02553E+03 -1.36124E+04
  2.12659E+03 -3.36837E+03 -3.88914E+03  6.15528E+03 -1.42963E+04  5.45016E+03 -1.50685E+04 -6.05027E+03
 -8.98299E+03 -1.72409E+04  4.97701E+03 -2.12596E+04  1.39762E+04 -1.52291E+04  1.63895E+04 -1.78990E+03
  1.01079E+04  1.17603E+04 -8.35912E+02  1.74068E+04 -1.16419E+04  9.80878E+03 -1.72307E+04 -3.59848E+03
 -1.25092E+04 -1.56312E+04 -1.66829E+03 -2.10077E+04  9.73823E+03 -1.70117E+04  1.73251E+04 -8.15395E+03
  1.63056E+04  5.36351E+02  1.13239E+04  3.99195E+03  6.08643E+03  6.13992E+02  8.21292E+03 -1.55330E+03
  1.54390E+04  2.55639E+03  1.67234E+04  1.37035E+04  1.11427E+04  2.69944E+04 -3.03874E+03  2.99507E+04
 -1.76270E+04  2.33050E+04 -2.76755E+04  1.15311E+04 -2.85233E+04 -2.02299E+03 -2.42394E+04 -1.61078E+04
 -1.07537E+04 -2.37449E+04  7.87105E+03 -2.13787E+04  1.88020E+04 -1.15600E+04  1.69160E+04  4.40997E+03
  6.59497E+03  1.23678E+04 -7.89346E+03  1.13272E+04 -1.46009E+04  2.49626E+03 -1.10830E+04 -8.63079E+03
  6.65381E+00 -1.34669E+04  6.84980E+03 -1.00331E+04  8.66158E+03 -1.42393E+03  1.63320E+03  5.39074E+03
 -6.09213E+03  2.01593E+03 -4.75478E+03 -4.97806E+03  6.46211E+02 -1.15011E+04  8.75616E+03 -1.17181E+04
  1.39030E+04 -5.95883E+03  1.42585E+04  2.81693E+03  1.22351E+04  1.10120E+04  5.95620E+03  1.66183E+04
 -2.30256E+03  1.82563E+04 -1.12437E+04  1.15353E+04 -1.29638E+04  3.09885E+03 -9.81677E+03 -2.53766E+03
 -4.92938E+03 -4.19949E+03 -7.84641E+02  1.20520E+03 -2.23012E+03  2.10717E+03 -4.07558E+03  3.77102E+03
 -8.72646E+03 -4.91578E+02 -9.85004E+03 -7.91345E+03 -3.92746E+03 -1.27381E+04  3.96747E+03 -9.37181E+03
  7.85396E+03 -4.17339E+03  5.75077E+03  2.35068E+03  5.14989E+02  3.60120E+03 -4.10631E+03  3.51019E+01
 -3.99081E+03 -5.69103E+03 -9.20478E+02 -8.42973E+03  4.64356E+03 -9.09991E+03  1.12222E+04 -4.45614E+03
  1.30726E+04  7.26469E+02  9.94502E+03  7.08211E+03  1.79343E+03  9.89180E+03 -5.78509E+03  8.96649E+03
 -7.78906E+03  3.07189E+03 -4.07688E+03 -1.86605E+03  1.63787E+03 -2.02828E+03  5.15696E+03 -1.16049E+03
  4.58890E+03  3.68594E+03  7.84388E+02  7.06805E+03 -5.06867E+03  7.18364E+03 -8.80360E+03  1.83305E+03
 -5.52138E+03 -4.15431E+03  1.16994E+02 -7.36805E+03  4.08126E+03 -3.92925E+03  4.09234E+03  1.14959E+03
  6.73083E+02  4.29073E+03 -4.40158E+03  5.43421E+03 -5.66774E+03  2.78654E+03 -5.44682E+03 -1.62874E+03
 -3.30016E+03 -7.34333E+03  1.18868E+03 -8.40428E+03  6.76005E+03 -5.48976E+03  7.73513E+03  1.21991E+03
  4.97267E+03  6.11304E+03 -3.73163E+01  8.22761E+03 -5.66901E+03  4.46374E+03 -6.18638E+03 -6.21383E+02
 -6.20328E+03 -5.89490E+03 -1.51224E+03 -5.75058E+03  2.79628E+03 -4.96090E+03  3.38739E+03 -2.76112E+03
  2.92143E+03  2.77917E+02  2.25831E+02  1.50261E+03  4.17425E+02 -5.39691E+02  3.73333E+02 -2.33781E+03
  4.69719E+03 -1.27513E+03  6.04732E+03  7.27565E+02  6.57251E+03  3.70544E+03  5.93670E+03  8.37122E+03
 -1.54235E+03  9.94356E+03 -8.85055E+03  7.48317E+03 -1.12886E+04  1.38285E+03 -8.82471E+03 -2.87623E+03
 -4.86133E+03 -7.40372E+03 -3.26967E+02 -5.74068E+03  2.38595E+03 -2.43465E+03  2.04802E+03 -2.12534E+03
  1.59245E+03 -1.71497E+03  2.34121E+03 -2.48524E+03  3.72732E+03 -1.68250E+03  3.83058E+03  2.49506E+01
  5.00765E+03  1.03481E+03  1.44529E+03  3.93442E+03 -1.57045E+03  3.64000E+03 -5.15561E+03  3.33149E+03
 -5.88068E+03 -1.09047E+03 -2.36273E+03 -3.67046E+03  5.69627E+02 -5.80976E+03  3.85018E+03 -6.07322E+03
  5.92805E+03 -3.51217E+03  7.54911E+03  3.57283E+02  5.72995E+03  4.81268E+03  1.27126E+03  6.85678E+03
 -2.57908E+03  6.22021E+03 -4.00428E+03  2.25270E+03 -2.34567E+03 -1.12220E+03 -5.38387E+02 -7.98456E+02
 -4.67904E+02  1.68051E+02 -9.32664E+02  2.11287E+03 -2.70790E+03  1.39668E+03 -4.32230E+03 -2.95934E+02
 -1.68755E+03 -4.51620E+03  8.30324E+02 -5.43955E+03  3.15475E+03 -4.86854E+03  4.43453E+03 -1.41253E+03
  4.82792E+03  2.83468E+03  2.07536E+03  3.88630E+03 -1.06798E+03  4.70547E+03 -3.17372E+03  3.14475E+03
 -4.41530E+03  6.40009E+02 -3.96334E+03 -3.13235E+03 -4.64715E+02 -3.71927E+03  1.95729E+03 -2.55023E+03
  2.70799E+03 -1.51698E+03  1.97845E+03  3.13140E+02  7.25797E+02  1.87256E+03  6.92056E+02  3.64649E+02
  1.78508E+03  5.49603E+02  1.01613E+03  9.76322E+02  1.31847E+03  2.25041E+03  1.55308E+03  1.83944E+03
 -1.28652E+03  3.61278E+03 -2.62277E+03  4.57505E+03 -3.68822E+03  1.40822E+03 -4.64655E+03 -8.10909E+02
 -2.03688E+03 -3.97196E+03  5.19764E+02 -5.15151E+03  2.06324E+03 -2.68618E+03  3.60847E+03 -9.85949E+02
  2.69090E+03  1.88100E+03  5.11423E+02  2.67713E+03 -5.98438E+02  1.56664E+03 -1.22329E+03 -2.28814E+02
 -8.13272E+02 -1.61033E+03  1.37934E+03 -1.72743E+03  1.54648E+03 -1.16035E+03  1.73899E+03  5.14231E+02
  7.09313E+02  5.08809E+02  1.06962E+03 -2.84988E+02 -4.89073E+02  6.94284E+02  1.35881E+03 -3.79847E+02
  2.63802E+02 -2.83979E+02  1.67063E+03  5.92102E+02  3.38558E+02  2.99389E+03 -1.66658E+02  3.45369E+03
 -2.02341E+03  1.30515E+03 -2.37683E+03  4.19562E+02 -2.35554E+03 -8.00426E+02 -3.44501E+02 -1.16142E+03
  4.89562E+02 -1.49316E+03  9.83630E+02 -6.67797E+02  1.02894E+03  9.97588E+02 -6.61933E+02  1.40762E+03
 -1.47569E+03  9.33677E+02 -1.30740E+03 -1.19077E+03 -5.84743E+02 -2.30976E+03  2.23277E+02 -1.78121E+03
  9.20114E+02 -7.83930E+02  6.76851E+02  3.03962E+02  1.25893E+03  1.46920E+01  5.52532E+02  1.17696E+03
 -2.43377E+02 -7.38167E+01 -1.04826E+03 -2.89555E+02  7.18273E+02 -7.63834E+02  1.67557E+03 -1.20257E+03
  1.26560E+03  2.47055E+02  3.03630E+03  8.67457E+02  1.13188E+03  1.93526E+03 -4.68204E+02  2.17890E+03
 -1.26351E+03  1.89792E+02 -1.64857E+03 -2.97070E+02 -1.02673E+03 -1.53721E+03  3.76986E+02 -7.17616E+02
  1.53561E+03 -5.44997E+02  9.99793E+02  5.42965E+02  1.73596E+02  1.25571E+03  2.82746E+02  9.24364E+02
 -5.05709E+02  1.19999E+03 -4.15685E+02  3.27026E+02  1.68534E+02  5.33799E+02 -8.50588E+02  5.85993E+02
 -7.08897E+02  1.24332E+03 -1.76279E+03  5.85079E+02 -1.69262E+03  1.05646E+02 -2.42041E+03 -1.16634E+03
 -1.09633E+03 -2.60842E+03  8.03629E+02 -3.18038E+03  1.14931E+03 -2.60332E+03  3.04469E+03 -9.71661E+02
  2.29569E+03  5.41119E+00  1.27041E+03  1.51465E+03 -4.08533E+02  1.50491E+03 -1.02385E+03  1.45732E+03
 -1.16255E+03  8.11725E+02 -4.41694E+02 -1.09262E+02 -4.34361E+02  1.66627E+02 -6.88253E+02 -6.96681E+01
 -1.14907E+03  1.08273E+02 -7.09619E+02  5.18361E+01  1.35771E+02 -8.20478E+02 -4.16799E+02 -8.45003E+02
  1.20156E+03 -6.15681E+02  4.58725E+02 -5.69352E+01  1.22297E+03  9.63039E+02 -1.55452E+02  1.68649E+03
 -9.81582E+02  2.28310E+03 -1.79522E+03  1.25514E+03 -1.80174E+03 -7.61242E+01 -1.16928E+03 -1.27531E+03
 -8.95187E+02 -1.26063E+03  2.74125E+01 -1.34999E+03  5.82950E+02 -4.31654E+02  8.34846E+02  1.77939E+01
  4.23967E+02  2.04933E+02 -1.43667E+01  5.60672E+02 -1.61450E+02 -3.49889E+02 -2.55731E+02 -2.78327E+02
  3.34782E+02  3.47397E+02  3.63094E+02  4.13403E+02  2.63784E+00  4.13282E+02  2.80093E+02  2.89094E+02
 -2.85082E+02  6.06593E+02 -6.72800E+02  2.33268E+02 -9.99458E+02 -5.20911E+02 -2.58454E+01 -1.23817E+03
  8.13058E+02 -4.45635E+02  5.86134E+02  2.26872E+01  7.56495E+02 -5.23234E+02  4.91269E+02  8.56896E+02
  3.22471E+02  5.70529E+02 -2.52967E+02  2.81685E+02 -7.04893E+02  3.97506E+02 -2.59595E+02  3.99653E+02
 -2.38442E+02 -1.65500E+01 -4.95474E+02  2.05217E+02 -6.74733E+02  2.09440E+02 -8.32740E+02 -2.26112E+02
 -1.25530E+03  8.37742E+01 -2.99961E+02 -8.94941E+02  7.12033E+02 -1.66852E+03  8.34757E+02 -9.01985E+01
  7.25995E+02  1.43009E+01 -4.10282E+02  5.01469E+02 -1.02120E+02  1.21771E+03 -6.16189E+02  7.51897E+02
