 $NMID ID='MM_0lb_SNR800_17hz_g40_77.RAW', FMTDAT='(8E13.5)'
 TRAMP=1., VOLUME=1. $END
  3.10099E+05  4.33652E+02  3.37078E+05  2.50498E+05  8.43646E+04  3.37652E+05 -1.32643E+05  2.50216E+05
 -1.89715E+05  8.25416E+04 -1.11051E+05 -3.28343E+04  1.49776E+03 -5.01444E+04  5.37217E+04  2.50751E+02
  3.50478E+04  5.27260E+04 -1.69467E+04  7.48147E+04 -6.03497E+04  6.26814E+04 -8.29256E+04  3.15451E+04
 -7.95710E+04 -1.10948E+04 -5.61699E+04 -5.01076E+04 -1.50872E+04 -6.80917E+04  2.65374E+04 -4.48378E+04
  3.91149E+04  3.90200E+03  1.55549E+04  4.72006E+04 -3.40655E+04  4.62345E+04 -6.57347E+04 -4.88549E+02
 -5.20600E+04 -5.61147E+04 -6.13828E+03 -7.49947E+04  3.34268E+04 -5.31831E+04  4.64213E+04 -1.61925E+04
  4.13790E+04  1.11556E+04  3.07766E+04  2.45099E+04  1.55981E+04  2.83468E+04 -4.83222E+03  2.70185E+04
 -2.17553E+04  1.25544E+04 -1.89774E+04 -4.63434E+03  4.31074E+03 -7.48050E+03  2.13237E+04  1.12547E+04
  7.48159E+03  3.35767E+04 -3.04740E+04  3.41440E+04 -6.14542E+04  2.26151E+03 -5.56062E+04 -4.15608E+04
 -1.23304E+04 -6.07891E+04  3.82484E+04 -4.35417E+04  5.58905E+04 -1.99308E+03  3.21231E+04  3.06236E+04
 -6.55043E+03  3.32862E+04 -2.85561E+04  1.36407E+04 -2.80541E+04 -5.22980E+03 -1.45477E+04 -1.02021E+04
 -7.48389E+03 -1.12801E+04 -1.00668E+03 -1.71090E+04  6.52550E+03 -2.25001E+04  1.50298E+04 -1.38866E+04
  1.19120E+04  4.63598E+03 -6.42835E+03  1.28097E+04 -1.97154E+04 -2.61544E+03 -8.03905E+03 -3.05536E+04
  2.11025E+04 -4.07770E+04  4.53492E+04 -1.88294E+04  4.23483E+04  1.84653E+04  1.41594E+04  4.21134E+04
 -1.53120E+04  3.13039E+04 -2.34173E+04  9.42145E+02 -8.45799E+03 -2.66817E+04  2.04787E+04 -3.15267E+04
  3.84997E+04 -7.53791E+03  3.19750E+04  2.29054E+04  1.56185E+04  4.31336E+04 -7.66199E+03  4.57063E+04
 -2.90534E+04  3.04250E+04 -3.77838E+04  8.57303E+03 -3.86421E+04 -1.50568E+04 -2.15378E+04 -3.50224E+04
  6.76816E+03 -3.46003E+04  2.90844E+04 -1.31066E+04  2.70592E+04  1.08650E+04  3.21176E+03  1.78513E+04
 -1.33386E+04  7.15713E+03 -9.77588E+03 -7.77076E+03  5.93358E+03 -1.01422E+04  1.72341E+04  6.22881E+03
  1.28033E+04  2.17293E+04 -6.51427E+03  2.32024E+04 -2.17683E+04  9.50537E+03 -2.56064E+04 -6.07233E+03
 -1.72529E+04 -1.66849E+04 -6.00072E+03 -1.73061E+04  4.05839E+03 -1.51448E+04  1.30947E+04 -1.47964E+04
  2.20591E+04 -1.19319E+04  2.86898E+04  1.52526E+03  2.17333E+04  1.68264E+04  4.01202E+03  3.31175E+04
 -1.65560E+04  2.80018E+04 -2.61066E+04  9.77153E+03 -1.98692E+04 -1.03719E+04 -3.81712E+03 -1.39028E+04
  2.75729E+03 -4.04621E+03 -3.14370E+03  5.72563E+03 -1.34644E+04  5.23737E+03 -1.39392E+04 -4.92051E+03
 -8.80687E+03 -1.59336E+04  4.74046E+03 -1.99713E+04  1.29759E+04 -1.43809E+04  1.51765E+04 -1.65769E+03
  9.18024E+03  1.12823E+04 -7.65827E+02  1.62198E+04 -1.06844E+04  9.02119E+03 -1.60816E+04 -3.61375E+03
 -1.19808E+04 -1.48220E+04 -1.32140E+03 -1.94678E+04  8.86040E+03 -1.55086E+04  1.64083E+04 -7.57560E+03
  1.52445E+04  4.86293E+02  1.09879E+04  3.77582E+03  5.30248E+03  6.36949E+02  7.99405E+03 -1.47259E+03
  1.44595E+04  2.66622E+03  1.55043E+04  1.31586E+04  9.74839E+03  2.54030E+04 -3.09029E+03  2.80062E+04
 -1.63591E+04  2.13864E+04 -2.54160E+04  1.03659E+04 -2.62343E+04 -1.77165E+03 -2.24086E+04 -1.47675E+04
 -1.00894E+04 -2.14889E+04  7.10436E+03 -1.97982E+04  1.70230E+04 -1.09405E+04  1.61811E+04  3.94572E+03
  6.49816E+03  1.16865E+04 -7.49100E+03  1.10700E+04 -1.37755E+04  2.51153E+03 -1.05249E+04 -8.28646E+03
 -3.19791E+02 -1.27278E+04  6.41195E+03 -9.73131E+03  8.20024E+03 -1.30824E+03  1.60620E+03  5.30287E+03
 -5.91720E+03  1.73673E+03 -3.98472E+03 -4.89410E+03  5.05280E+02 -1.07829E+04  8.34768E+03 -1.06628E+04
  1.32675E+04 -5.26073E+03  1.32002E+04  2.72936E+03  1.12442E+04  9.90594E+03  5.31915E+03  1.49391E+04
 -1.74112E+03  1.68496E+04 -1.04092E+04  1.06093E+04 -1.17814E+04  3.39571E+03 -9.12409E+03 -2.12640E+03
 -4.41383E+03 -3.79549E+03 -6.28341E+02  1.28475E+03 -2.22871E+03  2.30023E+03 -4.10482E+03  3.85147E+03
 -8.42745E+03 -3.53935E+02 -9.45919E+03 -7.39157E+03 -3.79309E+03 -1.19738E+04  4.03240E+03 -9.25645E+03
  7.74538E+03 -3.70592E+03  5.58717E+03  2.23398E+03  4.15134E+02  3.15947E+03 -3.74846E+03 -1.90221E+02
 -3.76802E+03 -5.47374E+03 -7.54210E+02 -7.67459E+03  4.57399E+03 -8.31800E+03  1.05681E+04 -4.19851E+03
  1.25818E+04  6.80440E+02  9.26357E+03  6.97083E+03  1.75440E+03  9.37451E+03 -5.52479E+03  8.86054E+03
 -7.26392E+03  2.85849E+03 -3.80133E+03 -1.29014E+03  1.14287E+03 -1.97828E+03  4.90055E+03 -1.16947E+03
  4.34102E+03  3.57963E+03  1.15237E+03  6.50400E+03 -4.66006E+03  6.50548E+03 -8.33133E+03  1.83454E+03
 -5.25958E+03 -3.91952E+03  3.65177E+02 -7.37322E+03  4.15462E+03 -3.27813E+03  4.11694E+03  9.81460E+02
  3.80174E+02  3.55636E+03 -4.62141E+03  5.16329E+03 -5.43684E+03  2.74104E+03 -5.19973E+03 -1.63193E+03
 -3.22514E+03 -6.76364E+03  1.42053E+03 -7.89145E+03  6.69056E+03 -4.93680E+03  7.23525E+03  1.17865E+03
  5.07026E+03  5.73614E+03  1.12427E+02  7.80775E+03 -5.61596E+03  4.64246E+03 -5.76199E+03 -4.51919E+02
 -6.08667E+03 -5.68048E+03 -1.39106E+03 -5.53936E+03  2.68733E+03 -5.27224E+03  3.14953E+03 -3.09466E+03
  3.19728E+03  4.57038E+02  3.32567E+01  1.46477E+03  4.25653E+02 -3.43293E+02  3.07784E+02 -2.24837E+03
  4.51267E+03 -1.21130E+03  6.06774E+03  7.97008E+02  6.53791E+03  4.00378E+03  5.63439E+03  8.31263E+03
 -1.59270E+03  9.75671E+03 -8.87394E+03  7.42098E+03 -1.10041E+04  1.37929E+03 -8.62276E+03 -2.88465E+03
 -4.67815E+03 -7.48789E+03 -3.88074E+02 -5.87465E+03  2.65472E+03 -2.35909E+03  1.85152E+03 -2.23613E+03
  1.44395E+03 -1.76886E+03  2.25146E+03 -2.68041E+03  3.59013E+03 -1.54614E+03  4.07775E+03  1.96474E+02
  5.02462E+03  1.39580E+03  1.43670E+03  4.01038E+03 -1.49216E+03  3.54115E+03 -4.71077E+03  3.08476E+03
 -5.54582E+03 -1.09817E+03 -2.35027E+03 -3.67852E+03  2.26844E+02 -5.67850E+03  3.41916E+03 -6.12570E+03
  6.02302E+03 -3.60601E+03  7.55223E+03  3.86068E+02  5.70605E+03  4.88652E+03  1.30748E+03  6.99978E+03
 -2.81891E+03  6.38804E+03 -3.65371E+03  1.97301E+03 -2.12473E+03 -1.14660E+03 -7.18749E+02 -5.88250E+02
 -4.94609E+02  4.44306E+02 -9.52763E+02  2.12959E+03 -2.92919E+03  1.38550E+03 -4.87737E+03 -6.48782E+02
 -1.96650E+03 -4.54886E+03  6.04856E+02 -5.29353E+03  3.08228E+03 -4.88548E+03  4.30913E+03 -1.44489E+03
  4.89565E+03  2.51838E+03  2.30977E+03  4.09217E+03 -5.80696E+02  5.35645E+03 -3.21212E+03  3.28870E+03
 -4.65928E+03  4.86598E+02 -3.85495E+03 -2.83347E+03 -2.12512E+02 -4.06333E+03  1.86471E+03 -2.78127E+03
  3.20796E+03 -1.36312E+03  2.08215E+03  4.58352E+02  3.58991E+02  1.84565E+03  8.74356E+02  7.73969E+02
  1.90928E+03  1.09897E+03  1.44843E+03  1.01320E+03  1.42792E+03  2.37422E+03  1.36454E+03  2.23966E+03
 -1.23258E+03  3.51109E+03 -3.08336E+03  4.45841E+03 -3.90629E+03  1.27218E+03 -5.09971E+03 -8.91584E+02
 -1.86219E+03 -4.48384E+03  8.20205E+02 -5.47175E+03  2.70546E+03 -3.09534E+03  3.66790E+03 -1.08382E+03
  3.09400E+03  2.15170E+03  4.91150E+02  2.71380E+03 -6.89536E+02  1.46889E+03 -1.49675E+03 -3.79546E+02
 -7.07586E+02 -1.99645E+03  1.51719E+03 -1.67666E+03  1.43077E+03 -1.14371E+03  1.78839E+03  4.43114E+02
  9.44276E+02  4.67476E+02  8.42931E+02  1.62475E+01 -4.40732E+02  1.07669E+03  1.45491E+03 -2.33310E+02
  2.88850E+02 -2.37287E+02  2.09679E+03  7.45071E+02  2.59341E+02  2.80329E+03 -6.83933E+02  3.34993E+03
 -2.02576E+03  1.18265E+03 -2.40637E+03  4.71627E+02 -2.32552E+03 -8.46905E+02 -5.47407E+02 -1.30733E+03
  5.23527E+02 -1.42640E+03  1.20055E+03 -7.91041E+02  9.72612E+02  1.11306E+03 -7.11102E+02  1.63843E+03
 -1.83562E+03  1.05841E+03 -1.59506E+03 -1.44424E+03 -8.18379E+02 -2.65541E+03  1.07936E+01 -2.08362E+03
  6.43860E+02 -1.02329E+03  1.34233E+03  2.82365E+01  1.44100E+03 -1.64330E+01  1.91951E+02  1.43831E+03
 -2.48832E+02  2.67915E+02 -1.14979E+03 -1.99715E+02  6.08262E+02 -1.58011E+03  1.72877E+03 -1.31487E+03
  1.94376E+03  2.85281E+02  3.40424E+03  1.14467E+03  9.92649E+02  2.39685E+03 -6.33503E+02  2.48936E+03
 -1.78014E+03  6.03741E+02 -2.13224E+03 -1.14887E+02 -8.46709E+02 -1.59128E+03  5.67029E+02 -1.04395E+03
  1.75495E+03 -8.13723E+02  1.16886E+03  8.33309E+02  3.63407E+02  1.65701E+03  2.51460E+02  1.49502E+03
 -6.47567E+02  1.25455E+03 -3.55551E+02  2.74102E+02 -1.82481E+02  4.14471E+02 -6.90707E+02  6.79805E+02
 -6.58914E+02  1.36791E+03 -2.07940E+03  7.26617E+02 -2.18244E+03  2.38304E+02 -3.10604E+03 -1.41637E+03
 -8.72330E+02 -3.13985E+03  6.74259E+02 -3.47163E+03  1.44092E+03 -3.11831E+03  3.41413E+03 -1.33922E+03
  3.25337E+03  2.76833E+02  1.42743E+03  2.07843E+03 -4.14367E+02  2.19813E+03 -8.58128E+02  2.00420E+03
 -1.09679E+03  1.02315E+03 -7.83463E+02 -3.43144E+02 -2.65582E+02  2.50989E+02 -9.77861E+02 -1.94532E+02
 -1.23163E+03  1.21697E+02 -1.10114E+03 -1.76353E+02  3.60893E+02 -9.06811E+02 -3.50165E+02 -9.65566E+02
  1.39505E+03 -4.75169E+02  7.68909E+02  1.42209E+02  1.54704E+03  1.41124E+03 -3.76783E+02  2.09616E+03
 -1.17821E+03  2.78362E+03 -2.23247E+03  1.52109E+03 -2.48827E+03 -2.39509E+02 -1.78225E+03 -1.86320E+03
 -1.08979E+03 -1.83253E+03  4.33747E+02 -1.78762E+03  8.15239E+02 -9.20390E+02  8.80163E+02  2.16612E+02
  9.37377E+02  6.62795E+02  9.69893E+01  1.03513E+03 -3.88633E+02 -6.36014E+01  4.69581E+01 -3.42242E+02
  6.82768E+02  8.10084E+01  3.91618E+02  4.24807E+02 -1.83047E+02  6.56621E+02  5.16827E+02  6.13802E+02
 -1.00743E+03  6.22343E+02 -1.02431E+03  2.94378E+01 -1.19980E+03 -9.97785E+02  3.22849E+01 -1.79825E+03
  7.88207E+02 -1.22868E+03  1.03701E+03  1.59973E+01  1.24959E+03 -6.49240E+02  9.88014E+02  9.04037E+02
  6.82676E+02  1.24675E+03 -2.22802E+02  1.19186E+03 -6.49863E+02  4.39860E+02 -7.13456E+02 -5.10793E+01
 -3.31557E+02 -3.10112E+01 -6.99489E+02  4.13618E+02 -7.06353E+02  1.64453E+02 -1.25257E+03 -4.64741E+02
 -1.45622E+03  2.40718E+02 -4.17270E+02 -1.44480E+03  8.75610E+02 -1.81552E+03  1.07629E+03 -5.32213E+02
  1.12526E+03  1.12348E+02 -1.77987E+01  5.66819E+02 -1.46666E+02  1.20081E+03 -6.60874E+02  1.04136E+03
