 $NMID ID='MM_0lb_SNR800_17hz_g45_89.RAW', FMTDAT='(8E13.5)'
 TRAMP=1., VOLUME=1. $END
  3.09662E+05  6.55225E+02  3.37328E+05  2.50391E+05  8.44507E+04  3.37439E+05 -1.32720E+05  2.50684E+05
 -1.89568E+05  8.23634E+04 -1.10943E+05 -3.26436E+04  1.53958E+03 -5.02792E+04  5.39339E+04  1.00215E+02
  3.52754E+04  5.30188E+04 -1.71390E+04  7.47756E+04 -6.04275E+04  6.29377E+04 -8.34295E+04  3.14416E+04
 -8.00041E+04 -1.10880E+04 -5.61883E+04 -5.05046E+04 -1.49393E+04 -6.85908E+04  2.70327E+04 -4.48413E+04
  3.94354E+04  4.07202E+03  1.60339E+04  4.72216E+04 -3.42858E+04  4.65754E+04 -6.55827E+04 -3.74747E+02
 -5.25409E+04 -5.60164E+04 -6.39120E+03 -7.56694E+04  3.33124E+04 -5.37030E+04  4.68155E+04 -1.62623E+04
  4.20267E+04  1.10383E+04  3.12027E+04  2.48115E+04  1.57951E+04  2.86483E+04 -4.76607E+03  2.70857E+04
 -2.18163E+04  1.27486E+04 -1.88286E+04 -4.40919E+03  4.44024E+03 -7.61006E+03  2.14346E+04  1.15253E+04
  7.49483E+03  3.40426E+04 -3.08704E+04  3.42357E+04 -6.14669E+04  2.11448E+03 -5.56784E+04 -4.15236E+04
 -1.19654E+04 -6.15531E+04  3.85716E+04 -4.39118E+04  5.62930E+04 -2.17661E+03  3.27335E+04  3.11602E+04
 -6.43693E+03  3.36930E+04 -2.86330E+04  1.39174E+04 -2.83553E+04 -5.21442E+03 -1.50463E+04 -1.03659E+04
 -7.48364E+03 -1.20071E+04 -1.03647E+03 -1.69830E+04  6.58660E+03 -2.28805E+04  1.51647E+04 -1.35674E+04
  1.19506E+04  4.46743E+03 -6.82382E+03  1.30319E+04 -1.97497E+04 -3.24373E+03 -8.24478E+03 -3.11499E+04
  2.15319E+04 -4.12082E+04  4.55573E+04 -1.88058E+04  4.29195E+04  1.85829E+04  1.46493E+04  4.23719E+04
 -1.53944E+04  3.13638E+04 -2.37088E+04  1.19637E+03 -8.96251E+03 -2.65837E+04  2.06846E+04 -3.18332E+04
  3.90285E+04 -8.08990E+03  3.27143E+04  2.27451E+04  1.61237E+04  4.35700E+04 -8.07730E+03  4.66387E+04
 -2.92063E+04  3.06880E+04 -3.88158E+04  8.80862E+03 -3.91564E+04 -1.51933E+04 -2.18697E+04 -3.53613E+04
  7.04411E+03 -3.51052E+04  2.97135E+04 -1.31501E+04  2.75766E+04  1.10254E+04  2.97361E+03  1.80811E+04
 -1.31874E+04  7.52890E+03 -9.49954E+03 -7.60893E+03  5.98169E+03 -1.03415E+04  1.75676E+04  6.48982E+03
  1.27571E+04  2.17683E+04 -6.36977E+03  2.37344E+04 -2.16722E+04  9.84802E+03 -2.57198E+04 -6.08645E+03
 -1.76902E+04 -1.64155E+04 -6.07485E+03 -1.79791E+04  4.02980E+03 -1.60832E+04  1.33765E+04 -1.51514E+04
  2.24312E+04 -1.20185E+04  2.91235E+04  1.52276E+03  2.19678E+04  1.76041E+04  3.98733E+03  3.33720E+04
 -1.64752E+04  2.82415E+04 -2.61108E+04  9.69677E+03 -2.01924E+04 -1.00760E+04 -3.89748E+03 -1.41860E+04
  2.65957E+03 -3.55557E+03 -3.31987E+03  5.77139E+03 -1.37381E+04  5.26958E+03 -1.44039E+04 -5.52740E+03
 -8.85692E+03 -1.64088E+04  4.41441E+03 -2.04099E+04  1.31710E+04 -1.46229E+04  1.57989E+04 -1.42848E+03
  9.24624E+03  1.13840E+04 -9.77470E+02  1.63333E+04 -1.09594E+04  9.26837E+03 -1.64230E+04 -3.40480E+03
 -1.21426E+04 -1.47080E+04 -1.39058E+03 -2.02229E+04  9.12312E+03 -1.60860E+04  1.70658E+04 -7.64120E+03
  1.52655E+04  4.88360E+02  1.10164E+04  4.13673E+03  5.60169E+03  7.26935E+02  8.34909E+03 -1.57197E+03
  1.50522E+04  2.91551E+03  1.57517E+04  1.34542E+04  9.93208E+03  2.62807E+04 -2.89611E+03  2.82953E+04
 -1.69246E+04  2.22501E+04 -2.64181E+04  1.05026E+04 -2.72357E+04 -1.97616E+03 -2.29593E+04 -1.55392E+04
 -1.04494E+04 -2.22334E+04  7.45277E+03 -2.06713E+04  1.77641E+04 -1.13767E+04  1.63936E+04  4.04144E+03
  6.64002E+03  1.20726E+04 -7.59035E+03  1.08209E+04 -1.38386E+04  2.48569E+03 -1.08877E+04 -8.86690E+03
  2.99116E+02 -1.29103E+04  6.73550E+03 -9.85392E+03  8.47025E+03 -1.28331E+03  1.45460E+03  5.17825E+03
 -6.10934E+03  1.58517E+03 -4.27663E+03 -4.68913E+03  5.07798E+02 -1.12514E+04  8.36172E+03 -1.12700E+04
  1.33586E+04 -5.33989E+03  1.33216E+04  2.91009E+03  1.15072E+04  1.01540E+04  5.59806E+03  1.53393E+04
 -2.24821E+03  1.72212E+04 -1.07960E+04  1.10076E+04 -1.24727E+04  3.17658E+03 -9.14458E+03 -2.15585E+03
 -4.56565E+03 -3.53589E+03 -7.87780E+02  1.24257E+03 -2.14602E+03  2.19318E+03 -4.32902E+03  3.84007E+03
 -8.74342E+03 -6.11968E+02 -9.70516E+03 -7.46580E+03 -3.93426E+03 -1.23044E+04  3.63744E+03 -9.37020E+03
  8.11727E+03 -4.05066E+03  5.88684E+03  2.35398E+03  5.50567E+02  3.19168E+03 -3.70359E+03 -1.96586E+02
 -3.89712E+03 -5.66532E+03 -9.39710E+02 -8.00784E+03  4.39277E+03 -8.95225E+03  1.08746E+04 -4.47168E+03
  1.26873E+04  8.72259E+02  9.59308E+03  7.06630E+03  1.82381E+03  9.69270E+03 -5.76576E+03  8.93453E+03
 -7.61460E+03  2.98308E+03 -3.65635E+03 -1.39329E+03  1.39257E+03 -1.96423E+03  5.07787E+03 -1.05108E+03
  4.66647E+03  3.73896E+03  1.21831E+03  6.80273E+03 -4.84943E+03  7.01602E+03 -8.53363E+03  1.92634E+03
 -5.64474E+03 -4.18039E+03  3.10714E+02 -7.34581E+03  4.03999E+03 -3.85886E+03  4.03379E+03  1.11648E+03
  7.67452E+02  3.80350E+03 -4.75192E+03  5.13001E+03 -5.92334E+03  2.67664E+03 -5.26054E+03 -1.49948E+03
 -3.22344E+03 -6.97920E+03  1.51218E+03 -7.84952E+03  6.85720E+03 -5.39473E+03  7.53233E+03  1.49076E+03
  5.36904E+03  5.95875E+03 -1.47676E+01  8.41101E+03 -5.67679E+03  5.04234E+03 -6.13866E+03 -3.28596E+02
 -6.36230E+03 -5.78145E+03 -1.33996E+03 -6.01969E+03  2.98844E+03 -5.20327E+03  3.27093E+03 -3.06948E+03
  3.11983E+03  6.34230E+02 -6.99286E+01  1.05415E+03  4.23051E+02 -4.80895E+02  2.78108E+02 -2.17768E+03
  4.70249E+03 -1.41781E+03  6.47055E+03  1.00377E+03  6.57929E+03  3.66810E+03  6.14966E+03  8.39705E+03
 -1.66383E+03  9.79443E+03 -9.08472E+03  7.39409E+03 -1.16942E+04  1.31827E+03 -8.88820E+03 -2.83063E+03
 -4.79540E+03 -7.49214E+03 -1.89053E+02 -6.23383E+03  2.64927E+03 -2.57244E+03  1.98224E+03 -2.55469E+03
  1.61316E+03 -1.40936E+03  2.20788E+03 -2.47196E+03  3.85150E+03 -1.41286E+03  3.72089E+03  5.23181E+02
  5.10641E+03  1.48638E+03  1.54559E+03  4.02101E+03 -1.84169E+03  3.58939E+03 -5.49380E+03  3.21091E+03
 -5.94393E+03 -1.04827E+03 -2.27402E+03 -4.07162E+03  3.15192E+02 -5.95466E+03  3.59912E+03 -6.07697E+03
  6.14320E+03 -3.74400E+03  7.78610E+03  3.27087E+02  5.81833E+03  5.34163E+03  1.21812E+03  6.79887E+03
 -2.54228E+03  6.49689E+03 -3.85904E+03  2.14274E+03 -2.15665E+03 -1.00315E+03 -7.68568E+02 -7.14730E+02
 -4.87083E+02  2.43958E+02 -1.29058E+03  1.85433E+03 -2.80126E+03  1.22924E+03 -4.54525E+03 -3.07057E+02
 -1.98527E+03 -4.70655E+03  8.18341E+02 -5.51293E+03  3.19230E+03 -4.98696E+03  4.39356E+03 -1.19545E+03
  5.28370E+03  2.62839E+03  2.29751E+03  3.90494E+03 -1.11891E+03  5.19712E+03 -3.55051E+03  3.19951E+03
 -4.55516E+03  3.23633E+02 -3.87560E+03 -2.83999E+03 -1.96339E+02 -3.65109E+03  1.85568E+03 -2.75686E+03
  3.16521E+03 -1.68071E+03  2.05954E+03  6.06692E+02  5.03338E+02  1.73241E+03  8.99145E+02  5.29331E+02
  2.00331E+03  6.40116E+02  1.56522E+03  1.27858E+03  1.26581E+03  2.43390E+03  1.54518E+03  2.13735E+03
 -1.30451E+03  3.58370E+03 -3.04185E+03  4.72641E+03 -4.15436E+03  1.20822E+03 -5.29573E+03 -7.23986E+02
 -2.34563E+03 -4.57276E+03  9.59751E+02 -5.58712E+03  2.67029E+03 -3.40631E+03  3.93233E+03 -1.24662E+03
  2.70068E+03  2.34371E+03  5.00171E+02  2.60111E+03 -1.16567E+03  1.33853E+03 -1.41955E+03 -1.63277E+02
 -1.01309E+03 -2.08484E+03  1.47489E+03 -2.06080E+03  1.50876E+03 -1.08924E+03  1.70835E+03  5.04696E+02
  1.07796E+03  6.12192E+02  6.22842E+02  2.39259E+01 -3.84331E+02  7.12386E+02  1.52304E+03 -2.55611E+02
  8.35041E+01 -1.93663E+02  2.19495E+03  8.83231E+02  6.99088E+02  2.67287E+03 -3.69298E+02  3.50780E+03
 -1.68571E+03  1.48404E+03 -2.91638E+03  4.48302E+02 -2.66328E+03 -8.92796E+02 -2.73980E+02 -1.48138E+03
  4.21454E+02 -1.43122E+03  1.08991E+03 -8.14097E+02  1.02979E+03  1.38545E+03 -7.99731E+02  1.54217E+03
 -1.95453E+03  1.01762E+03 -1.51658E+03 -1.28042E+03 -1.22274E+03 -2.83212E+03  2.76867E+02 -2.05679E+03
  7.16101E+02 -6.67535E+02  1.26871E+03  1.94288E+02  1.89331E+03  8.57884E+01  2.33978E+02  1.36881E+03
 -4.95377E+02  1.20804E+02 -1.07740E+03 -3.23705E+02  4.94825E+02 -1.38322E+03  2.00824E+03 -1.25948E+03
  1.91074E+03  2.99005E+02  3.56469E+03  1.11273E+03  1.64853E+03  2.19543E+03 -3.79265E+02  2.31288E+03
 -2.04327E+03  4.20357E+02 -2.04297E+03 -2.56452E+02 -1.21191E+03 -1.42265E+03  4.42747E+02 -9.07870E+02
  1.77067E+03 -1.10451E+03  1.21579E+03  6.01457E+02  3.55916E+02  1.54775E+03  4.13496E+02  1.41492E+03
 -4.90760E+02  1.13668E+03 -8.72463E+02  4.99609E+02 -3.50809E+01  3.38416E+02 -6.40946E+02  6.55570E+02
 -4.80485E+02  1.28840E+03 -2.09886E+03  5.71772E+02 -2.18133E+03  1.86671E+02 -2.96089E+03 -1.57623E+03
 -1.48857E+03 -2.91781E+03  6.20296E+02 -3.70238E+03  1.42712E+03 -2.95174E+03  3.33052E+03 -1.30369E+03
  3.32909E+03  2.89089E+02  1.68043E+03  2.13368E+03 -4.49602E+02  2.18166E+03 -8.66112E+02  1.64266E+03
 -1.24032E+03  1.03046E+03 -7.51461E+02 -5.33890E+02 -2.12876E+02  1.53522E+02 -8.03138E+02 -8.14523E+01
 -9.26032E+02  1.13054E+02 -8.37917E+02  2.44027E+02  2.03500E+01 -6.71293E+02 -2.74127E+02 -1.07589E+03
  1.17579E+03 -6.59662E+02  5.61178E+02  1.93500E+02  1.32898E+03  1.16099E+03 -3.70882E+02  2.05296E+03
 -1.03193E+03  2.82654E+03 -2.00768E+03  1.61299E+03 -2.37835E+03 -2.50336E+02 -1.80261E+03 -1.46869E+03
 -1.40973E+03 -1.94746E+03  4.53990E+02 -1.80934E+03  9.03001E+02 -9.75790E+02  8.09560E+02  2.86698E+02
  9.94551E+02  7.76867E+02  1.09063E+01  4.11932E+02 -4.63551E+02  8.85628E+01 -1.86377E+02 -3.00895E+02
  7.67703E+02  2.22439E+01  5.01917E+02  5.64535E+02  3.62433E+02  9.14240E+02  3.22244E+02  5.89684E+02
 -1.01129E+03  8.41345E+02 -8.89345E+02 -2.00968E+02 -7.81500E+02 -5.51082E+02 -5.97344E+01 -1.47546E+03
  9.96866E+02 -1.23109E+03  1.01501E+03 -4.98154E+02  1.40373E+03 -2.69403E+02  5.48599E+02  1.32408E+03
  6.17643E+02  8.73153E+02 -7.92016E+01  9.20355E+02 -7.63851E+02  5.05120E+02 -6.61159E+02  1.93042E+02
 -2.61401E+02 -2.59867E+00 -7.17015E+02  1.77336E+02 -1.21595E+03  2.33061E+02 -1.01764E+03 -2.48469E+02
 -1.27813E+03  2.16010E+02 -6.09262E+02 -1.36633E+03  1.05267E+03 -1.97393E+03  9.41796E+02 -3.27710E+02
  9.53464E+02 -5.62736E+01 -1.65890E+01  6.62064E+02 -5.68222E+01  1.12523E+03 -5.37154E+02  1.10984E+03
