 $NMID ID='MM_0lb_SNR800_14hz_g60_29.RAW', FMTDAT='(8E13.5)'
 TRAMP=1., VOLUME=1. $END
  3.09803E+05  7.13458E+02  3.37779E+05  2.50405E+05  8.47970E+04  3.38296E+05 -1.32654E+05  2.51635E+05
 -1.90453E+05  8.36757E+04 -1.11997E+05 -3.26982E+04  4.22916E+02 -5.06458E+04  5.37711E+04 -3.24434E+02
  3.55314E+04  5.27973E+04 -1.65927E+04  7.56166E+04 -6.08029E+04  6.40495E+04 -8.47664E+04  3.22523E+04
 -8.16790E+04 -1.14868E+04 -5.76209E+04 -5.17888E+04 -1.53347E+04 -7.03570E+04  2.76510E+04 -4.60440E+04
  4.04947E+04  3.95021E+03  1.63699E+04  4.82272E+04 -3.46019E+04  4.77435E+04 -6.68691E+04 -4.18085E+01
 -5.38557E+04 -5.72634E+04 -7.21044E+03 -7.76226E+04  3.41013E+04 -5.57404E+04  4.87125E+04 -1.76013E+04
  4.42571E+04  1.13099E+04  3.23808E+04  2.60335E+04  1.59649E+04  2.98746E+04 -5.56332E+03  2.75653E+04
 -2.24514E+04  1.21989E+04 -1.85257E+04 -5.31863E+03  6.07801E+03 -7.56958E+03  2.28972E+04  1.29402E+04
  6.89604E+03  3.60043E+04 -3.28296E+04  3.58233E+04 -6.40408E+04  2.26686E+03 -5.76561E+04 -4.39157E+04
 -1.24568E+04 -6.41420E+04  4.04999E+04 -4.63125E+04  5.91111E+04 -2.34807E+03  3.50073E+04  3.32290E+04
 -6.00955E+03  3.72524E+04 -3.07549E+04  1.71426E+04 -3.13345E+04 -4.15067E+03 -1.74815E+04 -1.13645E+04
 -8.67920E+03 -1.40536E+04 -6.08533E+02 -1.85052E+04  7.91537E+03 -2.32296E+04  1.56588E+04 -1.27866E+04
  1.08924E+04  5.45382E+03 -8.89227E+03  1.28597E+04 -2.20626E+04 -5.12080E+03 -8.82837E+03 -3.50333E+04
  2.38058E+04 -4.47955E+04  4.93848E+04 -1.97069E+04  4.66471E+04  1.99682E+04  1.62893E+04  4.51609E+04
 -1.63131E+04  3.43694E+04 -2.60555E+04  2.26415E+03 -1.04101E+04 -2.85254E+04  2.13080E+04 -3.48432E+04
  4.23034E+04 -9.69852E+03  3.73039E+04  2.43732E+04  1.92753E+04  4.83220E+04 -8.01036E+03  5.22072E+04
 -3.29611E+04  3.55780E+04 -4.40635E+04  1.00495E+04 -4.41808E+04 -1.72906E+04 -2.42154E+04 -3.94647E+04
  7.45805E+03 -3.92599E+04  3.23761E+04 -1.56490E+04  2.99519E+04  1.10085E+04  4.33580E+03  1.95636E+04
 -1.36206E+04  8.76578E+03 -1.09143E+04 -7.44435E+03  5.60658E+03 -1.08948E+04  1.80294E+04  6.08736E+03
  1.39993E+04  2.23083E+04 -5.83621E+03  2.56475E+04 -2.28031E+04  1.23435E+04 -2.89351E+04 -4.64334E+03
 -2.21265E+04 -1.79468E+04 -9.34225E+03 -2.20155E+04  4.22321E+03 -2.13695E+04  1.71464E+04 -1.99440E+04
  2.79355E+04 -1.30517E+04  3.44644E+04  3.40929E+03  2.50855E+04  2.14026E+04  4.26140E+03  3.79564E+04
 -1.84065E+04  3.15079E+04 -2.86716E+04  1.07956E+04 -2.16347E+04 -1.05992E+04 -4.39354E+03 -1.34249E+04
  1.33751E+03 -2.39964E+03 -5.78513E+03  6.88123E+03 -1.71338E+04  4.90869E+03 -1.76366E+04 -8.07609E+03
 -1.03635E+04 -2.03270E+04  5.36726E+03 -2.44940E+04  1.65671E+04 -1.72401E+04  1.93722E+04 -1.54310E+03
  1.22914E+04  1.36354E+04 -1.08281E+03  2.00675E+04 -1.38895E+04  1.16991E+04 -2.04411E+04 -4.31149E+03
 -1.48062E+04 -1.81792E+04 -1.76452E+03 -2.45711E+04  1.06872E+04 -2.00778E+04  2.02872E+04 -1.00160E+04
  1.85159E+04  2.28793E+02  1.35694E+04  4.77098E+03  7.10570E+03  9.14751E+02  1.02454E+04 -1.55015E+03
  1.85636E+04  2.82466E+03  2.07702E+04  1.57161E+04  1.38141E+04  3.22240E+04 -3.26164E+03  3.62109E+04
 -2.12171E+04  2.96383E+04 -3.43389E+04  1.50917E+04 -3.64141E+04 -2.47967E+03 -2.98418E+04 -2.08387E+04
 -1.23979E+04 -3.01067E+04  1.03429E+04 -2.67343E+04  2.31459E+04 -1.34416E+04  2.05157E+04  5.73041E+03
  7.42416E+03  1.52280E+04 -9.55752E+03  1.33650E+04 -1.71801E+04  2.64031E+03 -1.27569E+04 -1.05488E+04
 -2.25582E+02 -1.63391E+04  8.42928E+03 -1.20561E+04  1.12292E+04 -1.15641E+03  2.42574E+03  7.21757E+03
 -7.49971E+03  2.53133E+03 -6.79488E+03 -5.78539E+03 -8.17697E+02 -1.47531E+04  9.59502E+03 -1.52845E+04
  1.79336E+04 -8.23179E+03  1.97096E+04  2.92308E+03  1.69333E+04  1.46924E+04  8.03099E+03  2.21262E+04
 -3.81274E+03  2.42326E+04 -1.53305E+04  1.51834E+04 -1.71343E+04  3.58117E+03 -1.22726E+04 -3.68302E+03
 -5.82092E+03 -5.37628E+03 -7.44161E+02  1.12637E+03 -2.35586E+03  3.15982E+03 -5.73124E+03  4.58288E+03
 -1.13419E+04 -6.72882E+02 -1.19653E+04 -9.92095E+03 -4.84228E+03 -1.57151E+04  5.08637E+03 -1.24409E+04
  1.02227E+04 -5.29819E+03  7.37270E+03  3.34290E+03  1.75076E+02  4.96307E+03 -5.86034E+03 -3.86196E+02
 -5.62335E+03 -7.94307E+03 -8.36293E+02 -1.12575E+04  6.51159E+03 -1.22928E+04  1.49260E+04 -6.48091E+03
  1.77618E+04  1.48033E+03  1.31877E+04  1.04385E+04  2.46322E+03  1.36222E+04 -7.42251E+03  1.19065E+04
 -1.00549E+04  3.61964E+03 -5.02165E+03 -2.34360E+03  1.54426E+03 -2.97490E+03  6.65925E+03 -9.09326E+02
  5.83159E+03  5.59227E+03  1.31761E+03  9.41995E+03 -6.96747E+03  9.15216E+03 -1.16093E+04  2.24566E+03
 -7.94033E+03 -5.79462E+03  4.73603E+02 -1.01572E+04  6.58233E+03 -4.92041E+03  6.61591E+03  2.01185E+03
  1.33126E+03  6.36625E+03 -6.23267E+03  8.32825E+03 -9.27713E+03  3.45280E+03 -9.60905E+03 -2.83733E+03
 -5.04414E+03 -1.08701E+04  2.38422E+03 -1.25572E+04  1.03535E+04 -7.65874E+03  1.13230E+04  1.90735E+03
  7.24470E+03  9.34957E+03 -1.01311E+03  1.16228E+04 -8.04951E+03  6.54020E+03 -9.00282E+03 -8.28373E+02
 -8.12025E+03 -7.36671E+03 -1.69726E+03 -8.52664E+03  4.39426E+03 -6.88105E+03  5.39175E+03 -3.14011E+03
  3.89571E+03  9.06907E+02 -4.03860E+02  1.95394E+03  4.20249E+00 -1.64196E+03  1.23470E+03 -4.61536E+03
  7.45345E+03 -2.78724E+03  1.01596E+04  1.19048E+03  1.04966E+04  6.64972E+03  7.46766E+03  1.34834E+04
 -2.96700E+03  1.52301E+04 -1.34105E+04  1.18165E+04 -1.70967E+04  2.05019E+03 -1.37889E+04 -5.38737E+03
 -6.99028E+03 -1.13674E+04  9.09096E+01 -9.51312E+03  3.73886E+03 -4.56424E+03  3.37942E+03 -3.25356E+03
  2.32468E+03 -2.46305E+03  2.56712E+03 -2.82754E+03  4.56964E+03 -2.51085E+03  5.54890E+03 -2.71763E+02
  7.37262E+03  1.83018E+03  2.99660E+03  6.24590E+03 -1.71033E+03  6.72502E+03 -7.78442E+03  5.39156E+03
 -9.27027E+03 -9.64110E+02 -5.19348E+03 -6.51030E+03 -2.35411E+02 -9.83591E+03  5.42864E+03 -9.95924E+03
  9.96129E+03 -5.69955E+03  1.19207E+04  1.27921E+03  8.64937E+03  8.05123E+03  1.67580E+03  1.10703E+04
 -4.66029E+03  9.29926E+03 -6.47133E+03  3.34128E+03 -4.38638E+03 -1.34650E+03 -1.59662E+03 -9.85287E+02
 -1.17925E+03  3.68423E+02 -1.69558E+03  2.40316E+03 -3.90982E+03  1.65186E+03 -6.66947E+03 -6.46908E+02
 -3.99235E+03 -6.65041E+03  5.22176E+02 -8.80865E+03  5.22195E+03 -8.15763E+03  7.90760E+03 -2.47218E+03
  8.49186E+03  4.39526E+03  3.84324E+03  7.56844E+03 -1.61652E+03  8.79448E+03 -5.97080E+03  5.21596E+03
 -8.06855E+03  2.26859E+02 -6.68224E+03 -4.86629E+03 -9.40881E+02 -6.96258E+03  3.69427E+03 -5.16434E+03
  5.46770E+03 -2.10148E+03  4.14405E+03  1.25713E+03  1.16350E+03  2.83149E+03  1.12269E+03  9.48996E+02
  2.43691E+03  6.19187E+02  2.17594E+03  1.31351E+03  2.26474E+03  3.56688E+03  2.22363E+03  4.12768E+03
 -1.85538E+03  6.48473E+03 -5.59353E+03  6.89733E+03 -7.90809E+03  1.99674E+03 -8.70554E+03 -2.71484E+03
 -4.33153E+03 -8.54667E+03  8.72068E+02 -9.54183E+03  4.76862E+03 -5.66261E+03  6.74588E+03 -1.59932E+03
  5.21901E+03  3.00336E+03  9.44938E+02  4.88712E+03 -2.24503E+03  3.10508E+03 -3.05496E+03 -5.08431E+01
 -1.63355E+03 -3.60957E+03  2.11708E+03 -3.11851E+03  2.98769E+03 -2.20478E+03  3.12361E+03  8.76649E+02
  1.67743E+03  1.31513E+03  1.15326E+03  7.19324E+02 -3.78069E+02  1.08543E+03  1.76107E+03 -3.06390E+02
  6.57661E+02 -3.67647E+02  3.16837E+03  1.05548E+03  1.54446E+03  4.44204E+03 -6.36992E+02  5.85104E+03
 -4.18927E+03  3.07564E+03 -4.70211E+03  9.60865E+02 -4.36964E+03 -1.87187E+03 -1.08207E+03 -2.79185E+03
  7.06528E+02 -2.74554E+03  1.61667E+03 -1.49918E+03  1.70065E+03  1.98761E+03 -1.14966E+03  2.58636E+03
 -2.87868E+03  1.63316E+03 -3.52034E+03 -1.95354E+03 -2.05848E+03 -3.96548E+03  5.89584E+02 -4.07863E+03
  2.29874E+03 -2.40495E+03  2.48979E+03 -4.50869E+02  2.64266E+03  7.86850E+02  1.18984E+02  2.32990E+03
 -1.38630E+03  4.54486E+02 -1.83684E+03 -1.16858E+03  8.92862E+02 -2.76793E+03  3.87666E+03 -2.49552E+03
  4.13302E+03  4.77018E+02  5.49377E+03  2.84662E+03  1.76389E+03  4.53680E+03 -1.18366E+03  4.41953E+03
 -3.34722E+03  1.44636E+03 -3.76538E+03 -7.56844E+02 -2.15728E+03 -3.00800E+03  5.80705E+02 -2.30614E+03
  2.94002E+03 -1.02504E+03  2.18979E+03  1.22904E+03  6.20774E+02  2.40503E+03 -3.55664E+02  2.29885E+03
 -1.18472E+03  1.94970E+03 -1.11079E+03  3.96462E+02 -2.34158E+02  3.10670E+02 -1.03129E+03  8.13312E+02
 -1.42730E+03  1.76242E+03 -3.14907E+03  1.20013E+03 -4.16328E+03  9.61996E+01 -5.24447E+03 -2.64892E+03
 -2.61479E+03 -6.15756E+03  1.03587E+03 -6.72245E+03  3.44362E+03 -5.22921E+03  6.36751E+03 -2.09134E+03
  5.96594E+03  8.02530E+02  3.37347E+03  3.88578E+03 -1.75188E+01  4.30874E+03 -1.66476E+03  3.27436E+03
 -2.74557E+03  1.51180E+03 -1.22570E+03 -5.33720E+02 -9.39363E+02  8.57826E+01 -5.74555E+02  1.12951E+01
 -1.12894E+03  9.34010E+01 -9.48140E+02 -3.89582E+02  9.57492E+01 -1.17492E+03 -5.31421E+02 -1.82639E+03
  2.02878E+03 -1.42760E+03  2.16674E+03  3.52582E+02  3.01052E+03  2.40712E+03  2.13148E+02  3.99033E+03
 -2.29780E+03  5.36988E+03 -4.20859E+03  3.17116E+03 -5.06347E+03 -4.02398E+02 -3.73748E+03 -3.21146E+03
 -1.95682E+03 -3.84463E+03  1.13768E+03 -3.81628E+03  2.09192E+03 -1.87317E+03  2.55844E+03  3.18249E+02
  1.59074E+03  1.43115E+03 -7.41768E+01  1.27964E+03 -7.81596E+02 -2.22630E+02  2.02004E+02 -8.01673E+02
  1.49161E+03 -2.15508E+02  1.31048E+03  8.49250E+02  1.03771E+03  1.40031E+03  5.06568E+02  1.80437E+03
 -1.87109E+03  1.70032E+03 -2.12426E+03  4.21327E+02 -2.14904E+03 -1.67488E+03 -1.41512E+02 -3.34337E+03
  1.53204E+03 -2.50479E+03  2.68562E+03 -4.12209E+02  2.45961E+03 -2.16850E+02  1.64853E+03  2.35510E+03
  7.38159E+02  2.47009E+03 -9.80693E+02  2.08174E+03 -2.00720E+03  1.49844E+03 -1.70425E+03  4.27991E+02
 -9.58908E+02  2.08773E+01 -1.19621E+03  1.76100E+02 -1.65283E+03  3.53269E+02 -1.95557E+03 -1.64494E+02
 -2.03198E+03 -1.01829E+03 -6.02415E+02 -2.54869E+03  1.31195E+03 -3.02979E+03  1.98914E+03 -1.22474E+03
  2.20834E+03  3.82815E+02  8.34829E+02  1.45644E+03 -1.99360E+01  2.18313E+03 -1.62364E+03  1.34154E+03
