 $NMID ID='MM_0lb_SNR800_9hz_g55_77.RAW', FMTDAT='(8E13.5)'
 TRAMP=1., VOLUME=1. $END
  3.09785E+05  1.37680E+02  3.37888E+05  2.50721E+05  8.49955E+04  3.38741E+05 -1.33022E+05  2.51473E+05
 -1.90805E+05  8.41589E+04 -1.12502E+05 -3.25685E+04  2.38651E+02 -5.07577E+04  5.37146E+04 -3.90334E+02
  3.55858E+04  5.24690E+04 -1.64050E+04  7.61189E+04 -6.15275E+04  6.44334E+04 -8.56525E+04  3.25507E+04
 -8.25354E+04 -1.16462E+04 -5.83698E+04 -5.20764E+04 -1.51562E+04 -7.14136E+04  2.84956E+04 -4.68213E+04
  4.10782E+04  3.76638E+03  1.71374E+04  4.87281E+04 -3.42031E+04  4.83520E+04 -6.86317E+04  5.82611E+01
 -5.47165E+04 -5.78026E+04 -7.72285E+03 -7.91729E+04  3.50022E+04 -5.72720E+04  4.99733E+04 -1.86342E+04
  4.48356E+04  1.14402E+04  3.28233E+04  2.66698E+04  1.54419E+04  3.07001E+04 -6.12121E+03  2.76965E+04
 -2.25011E+04  1.15485E+04 -1.77436E+04 -5.82290E+03  7.21584E+03 -7.45191E+03  2.35829E+04  1.38330E+04
  7.24972E+03  3.76586E+04 -3.39306E+04  3.70632E+04 -6.60781E+04  2.36224E+03 -5.90820E+04 -4.48379E+04
 -1.26882E+04 -6.63101E+04  4.16474E+04 -4.78178E+04  6.15856E+04 -2.33592E+03  3.69666E+04  3.47851E+04
 -5.54155E+03  3.98919E+04 -3.23932E+04  1.92802E+04 -3.38403E+04 -3.46397E+03 -1.97607E+04 -1.20985E+04
 -9.07407E+03 -1.54902E+04 -7.50561E+02 -1.97175E+04  8.21228E+03 -2.37980E+04  1.59385E+04 -1.25565E+04
  1.03469E+04  6.10931E+03 -1.04348E+04  1.29238E+04 -2.39003E+04 -6.83401E+03 -8.78753E+03 -3.77530E+04
  2.48646E+04 -4.71234E+04  5.29011E+04 -2.12071E+04  4.90440E+04  2.11437E+04  1.75200E+04  4.72630E+04
 -1.65542E+04  3.60923E+04 -2.78034E+04  2.97899E+03 -1.19895E+04 -2.95085E+04  2.15432E+04 -3.70794E+04
  4.48602E+04 -1.12685E+04  4.10755E+04  2.47608E+04  2.19913E+04  5.10300E+04 -8.38853E+03  5.65327E+04
 -3.59254E+04  3.86422E+04 -4.80251E+04  1.10883E+04 -4.82740E+04 -1.88371E+04 -2.65226E+04 -4.27327E+04
  7.82862E+03 -4.22711E+04  3.43990E+04 -1.72718E+04  3.23371E+04  1.15947E+04  5.10445E+03  2.12386E+04
 -1.37735E+04  9.79641E+03 -1.15429E+04 -7.46282E+03  5.49092E+03 -1.12742E+04  1.90069E+04  5.45740E+03
  1.50835E+04  2.29080E+04 -5.41264E+03  2.71959E+04 -2.34435E+04  1.49003E+04 -3.17362E+04 -2.35301E+03
 -2.58220E+04 -1.86731E+04 -1.18534E+04 -2.56370E+04  4.85035E+03 -2.60959E+04  2.03620E+04 -2.33878E+04
  3.28890E+04 -1.41968E+04  3.86850E+04  5.11716E+03  2.73231E+04  2.48560E+04  4.34278E+03  4.18138E+04
 -2.00524E+04  3.43493E+04 -3.10335E+04  1.23715E+04 -2.25308E+04 -1.00524E+04 -5.06334E+03 -1.30794E+04
  5.59996E+02 -1.10780E+03 -7.80921E+03  8.35276E+03 -2.08059E+04  4.61796E+03 -2.02135E+04 -1.01780E+04
 -1.20654E+04 -2.39491E+04  6.30220E+03 -2.79813E+04  1.90309E+04 -2.05090E+04  2.31255E+04 -2.15767E+03
  1.48242E+04  1.68961E+04 -1.31444E+03  2.35681E+04 -1.72132E+04  1.35031E+04 -2.40589E+04 -5.16075E+03
 -1.72737E+04 -2.14166E+04 -1.96398E+03 -2.86218E+04  1.31323E+04 -2.38792E+04  2.35352E+04 -1.23711E+04
  2.22766E+04 -4.33459E+02  1.60769E+04  5.20159E+03  9.12465E+03  1.12855E+03  1.24147E+04 -1.98377E+03
  2.25433E+04  2.98538E+03  2.60148E+04  1.87470E+04  1.77316E+04  3.83250E+04 -2.72211E+03  4.51908E+04
 -2.57386E+04  3.76342E+04 -4.27866E+04  1.95952E+04 -4.57976E+04 -3.44656E+03 -3.69965E+04 -2.65713E+04
 -1.47974E+04 -3.80791E+04  1.36146E+04 -3.33793E+04  2.86719E+04 -1.54559E+04  2.45659E+04  7.92877E+03
  8.19028E+03  1.94805E+04 -1.20262E+04  1.58817E+04 -2.04371E+04  2.39075E+03 -1.56020E+04 -1.33414E+04
 -3.88140E+02 -1.98888E+04  1.03741E+04 -1.44878E+04  1.35806E+04 -1.20748E+03  3.98873E+03  8.89462E+03
 -9.23271E+03  3.87800E+03 -9.19937E+03 -7.11474E+03 -1.98135E+03 -1.85106E+04  1.18952E+04 -2.03295E+04
  2.38404E+04 -1.16234E+04  2.68476E+04  3.39794E+03  2.35657E+04  1.93917E+04  1.08487E+04  2.97670E+04
 -5.71938E+03  3.19584E+04 -2.11140E+04  1.97931E+04 -2.36097E+04  4.16936E+03 -1.54321E+04 -6.15995E+03
 -6.86702E+03 -7.25193E+03 -8.62377E+02  4.04797E+02 -3.15112E+03  3.34988E+03 -7.48344E+03  5.17591E+03
 -1.42602E+04 -1.15895E+03 -1.48241E+04 -1.23942E+04 -6.36823E+03 -1.99415E+04  6.71838E+03 -1.60145E+04
  1.32805E+04 -6.64723E+03  9.69043E+03  4.47117E+03 -3.94012E+02  6.81474E+03 -8.10051E+03 -1.96682E+02
 -7.66966E+03 -1.02857E+04 -8.06578E+02 -1.58819E+04  9.42521E+03 -1.69578E+04  2.07259E+04 -8.95900E+03
  2.38701E+04  2.46626E+03  1.76875E+04  1.50715E+04  3.08258E+03  1.95707E+04 -9.78532E+03  1.61565E+04
 -1.28339E+04  4.63225E+03 -6.57525E+03 -3.26014E+03  1.88044E+03 -4.46677E+03  8.17965E+03 -1.12683E+03
  7.79407E+03  6.97559E+03  1.14484E+03  1.29662E+04 -9.06638E+03  1.22032E+04 -1.59956E+04  2.83380E+03
 -1.08989E+04 -8.47904E+03  6.59303E+02 -1.41943E+04  9.29797E+03 -7.08272E+03  9.63947E+03  3.14850E+03
  2.52875E+03  1.04430E+04 -8.50839E+03  1.20418E+04 -1.45241E+04  4.90609E+03 -1.46537E+04 -5.21218E+03
 -8.03963E+03 -1.66061E+04  4.28540E+03 -1.88315E+04  1.61561E+04 -1.14166E+04  1.73310E+04  3.28471E+03
  1.02424E+04  1.37489E+04 -1.80287E+03  1.61377E+04 -1.19200E+04  8.99087E+03 -1.31101E+04 -1.29318E+03
 -1.09068E+04 -1.05427E+04 -1.31003E+03 -1.26306E+04  6.67023E+03 -9.98196E+03  7.69879E+03 -4.05503E+03
  5.08141E+03  1.80803E+03 -1.21647E+03  1.83735E+03 -4.26150E+02 -3.67840E+03  3.16891E+03 -8.20157E+03
  1.23971E+04 -5.06627E+03  1.63945E+04  1.56711E+03  1.66030E+04  1.16465E+04  1.05318E+04  2.15325E+04
 -5.29642E+03  2.49871E+04 -2.03439E+04  1.80300E+04 -2.69645E+04  3.97727E+03 -2.13510E+04 -9.41400E+03
 -1.11605E+04 -1.75211E+04 -5.14429E+02 -1.51510E+04  5.55601E+03 -8.98303E+03  5.34277E+03 -5.78122E+03
  4.02529E+03 -3.01431E+03  4.00426E+03 -3.92868E+03  5.73385E+03 -3.60267E+03  8.56269E+03 -1.21595E+03
  1.08570E+04  2.59535E+03  5.95449E+03  9.68942E+03 -2.47796E+03  1.24091E+04 -1.16663E+04  9.05681E+03
 -1.51979E+04 -1.38979E+03 -9.90974E+03 -1.08713E+04 -1.37625E+03 -1.66051E+04  9.19566E+03 -1.66689E+04
  1.69988E+04 -8.98369E+03  2.03982E+04  3.11524E+03  1.39080E+04  1.44782E+04  2.23449E+03  1.85021E+04
 -7.80328E+03  1.46042E+04 -1.05945E+04  5.47179E+03 -7.34629E+03 -1.83523E+03 -2.91181E+03 -2.45189E+03
 -1.25229E+03 -1.12420E+02 -2.55746E+03  3.18814E+03 -6.00130E+03  2.24757E+03 -1.07173E+04 -1.33220E+03
 -7.87620E+03 -1.03493E+04 -3.52051E+02 -1.53005E+04  9.27241E+03 -1.39196E+04  1.53109E+04 -5.00949E+03
  1.48068E+04  7.38605E+03  7.46742E+03  1.37297E+04 -3.05906E+03  1.52920E+04 -1.14689E+04  9.69222E+03
 -1.45834E+04 -2.36876E+01 -1.11266E+04 -9.19147E+03 -1.28432E+03 -1.27596E+04  6.99491E+03 -9.53797E+03
  9.61003E+03 -2.84943E+03  6.69041E+03  2.52861E+03  2.65566E+03  4.57972E+03  1.42332E+03  2.51863E+03
  2.50671E+03  1.10815E+03  3.51006E+03  2.09325E+03  4.64088E+03  4.77577E+03  4.14474E+03  8.27178E+03
 -2.90465E+03  1.22796E+04 -1.09905E+04  1.19977E+04 -1.68657E+04  3.43898E+03 -1.63899E+04 -6.54555E+03
 -8.17688E+03 -1.59062E+04  2.28515E+03 -1.72829E+04  9.75639E+03 -1.08740E+04  1.27656E+04 -2.74681E+03
  1.00806E+04  5.76464E+03  1.96771E+03  8.98363E+03 -4.87415E+03  5.59617E+03 -6.85808E+03 -1.17435E+03
 -2.89770E+03 -7.09570E+03  3.41661E+03 -7.12141E+03  6.66331E+03 -3.48081E+03  6.38182E+03  1.47861E+03
  3.52029E+03  3.00145E+03  1.43555E+03  2.82313E+03 -1.13943E+03  2.17423E+03  1.77792E+03 -5.25212E+02
  2.80475E+03 -8.15110E+02  6.55118E+03  2.73334E+03  3.60299E+03  8.28767E+03 -1.35813E+03  1.15703E+04
 -7.63957E+03  7.36109E+03 -1.00066E+04  2.42267E+03 -9.06445E+03 -3.58290E+03 -3.71016E+03 -6.08268E+03
  8.27757E+02 -6.62336E+03  4.58343E+03 -2.98155E+03  3.46298E+03  3.07046E+03 -1.12485E+03  5.60932E+03
 -6.72560E+03  2.77913E+03 -7.88771E+03 -3.69720E+03 -4.35347E+03 -8.46973E+03  1.55942E+03 -9.04539E+03
  5.13908E+03 -5.29176E+03  6.54172E+03 -7.51888E+02  5.21222E+03  2.24436E+03  9.37468E+02  4.47328E+03
 -3.15954E+03  1.33019E+03 -3.95539E+03 -3.73227E+03  1.82805E+03 -6.95921E+03  7.56354E+03 -5.63351E+03
  9.85473E+03  8.29720E+02  9.70265E+03  7.04828E+03  3.04939E+03  1.08656E+04 -4.01806E+03  1.01889E+04
 -8.41069E+03  4.22568E+03 -8.92569E+03 -1.51086E+03 -5.11793E+03 -7.00854E+03  1.53175E+03 -6.44219E+03
  6.22952E+03 -3.16262E+03  5.42878E+03  2.84277E+03  1.97458E+03  5.46862E+03 -8.59570E+02  4.87997E+03
 -2.46899E+03  3.25886E+03 -2.46476E+03  1.22312E+03 -1.16391E+03  1.14918E+03 -1.66682E+03  2.15404E+03
 -2.60459E+03  3.86124E+03 -6.71643E+03  3.78828E+03 -1.05506E+04  5.84229E+02 -1.15333E+04 -6.84274E+03
 -6.09065E+03 -1.35913E+04  2.88287E+03 -1.58188E+04  9.74075E+03 -1.23716E+04  1.57270E+04 -4.81608E+03
  1.43951E+04  2.86725E+03  9.17424E+03  9.81358E+03  7.65166E+02  1.06914E+04 -4.36652E+03  7.96464E+03
 -6.21726E+03  2.93824E+03 -3.70768E+03 -1.25757E+03 -1.40834E+03 -9.51595E+02 -5.99755E+02  1.26799E+02
 -1.66148E+03  4.01091E+02 -2.41250E+03 -7.84933E+02 -1.00124E+03 -2.56491E+03  6.80839E+02 -3.96314E+03
  4.95724E+03 -2.90861E+03  6.69308E+03 -2.16015E+02  7.82279E+03  5.86570E+03  2.21197E+03  1.09643E+04
 -5.39055E+03  1.21532E+04 -1.17495E+04  6.77939E+03 -1.35494E+04 -8.68385E+02 -1.02929E+04 -8.03418E+03
 -4.13729E+03 -1.15579E+04  2.67423E+03 -1.03882E+04  6.99956E+03 -5.70828E+03  7.15110E+03 -8.48800E+00
  4.25168E+03  3.84554E+03 -8.66207E+02  2.97084E+03 -2.38894E+03 -2.50353E+02 -2.61991E+02 -2.69564E+03
  3.60690E+03 -1.10356E+03  4.48577E+03  1.42703E+03  2.80620E+03  4.57298E+03  3.25965E+02  5.66450E+03
 -4.96466E+03  4.99338E+03 -7.29943E+03  7.63054E+02 -6.27888E+03 -5.15699E+03 -1.20208E+03 -9.12249E+03
  5.48254E+03 -7.44114E+03  8.80106E+03 -2.14335E+03  8.27549E+03  1.99815E+03  5.30716E+03  6.82372E+03
  1.15780E+03  7.50157E+03 -3.08348E+03  6.26221E+03 -4.36652E+03  3.51476E+03 -3.77830E+03  4.50765E+02
 -1.87902E+03 -7.61359E+02 -2.02598E+03  7.77003E+02 -3.65607E+03  1.19205E+03 -5.85915E+03 -1.31285E+03
 -5.12025E+03 -4.21674E+03 -1.50372E+03 -7.32611E+03  3.48288E+03 -7.91714E+03  6.56299E+03 -3.30709E+03
  7.00586E+03  1.06722E+03  4.17641E+03  5.11739E+03 -5.76048E+02  7.60344E+03 -5.56363E+03  5.01273E+03
