 $NMID ID='MM_0lb_SNR800_8hz_g40_81.RAW', FMTDAT='(8E13.5)'
 TRAMP=1., VOLUME=1. $END
  3.09643E+05  4.73867E+02  3.37939E+05  2.50570E+05  8.48218E+04  3.38646E+05 -1.32722E+05  2.51720E+05
 -1.90719E+05  8.35097E+04 -1.12590E+05 -3.26153E+04  5.82585E+02 -5.04835E+04  5.35264E+04 -5.78975E+02
  3.55121E+04  5.28430E+04 -1.64293E+04  7.63096E+04 -6.15240E+04  6.45185E+04 -8.54135E+04  3.26585E+04
 -8.24694E+04 -1.17090E+04 -5.82850E+04 -5.21518E+04 -1.56173E+04 -7.15165E+04  2.76264E+04 -4.67415E+04
  4.07887E+04  3.78025E+03  1.67915E+04  4.88535E+04 -3.48589E+04  4.80902E+04 -6.81608E+04 -1.17695E+00
 -5.46211E+04 -5.78996E+04 -7.18149E+03 -7.91623E+04  3.47142E+04 -5.70444E+04  4.98952E+04 -1.83697E+04
  4.55365E+04  1.16897E+04  3.30780E+04  2.66674E+04  1.60611E+04  3.04820E+04 -6.01379E+03  2.75281E+04
 -2.29716E+04  1.18477E+04 -1.80799E+04 -5.68325E+03  7.15500E+03 -7.13377E+03  2.31800E+04  1.34633E+04
  7.35137E+03  3.78351E+04 -3.41201E+04  3.69599E+04 -6.59479E+04  2.15858E+03 -5.86621E+04 -4.44077E+04
 -1.28315E+04 -6.60128E+04  4.14956E+04 -4.72361E+04  6.13402E+04 -2.59228E+03  3.67666E+04  3.43824E+04
 -5.77848E+03  3.94779E+04 -3.15579E+04  1.89322E+04 -3.32759E+04 -3.66272E+03 -1.91079E+04 -1.19526E+04
 -9.66711E+03 -1.51636E+04 -7.83870E+02 -1.96432E+04  8.56056E+03 -2.33889E+04  1.60393E+04 -1.24267E+04
  1.04706E+04  6.01322E+03 -1.05837E+04  1.28221E+04 -2.36912E+04 -6.88575E+03 -8.51837E+03 -3.73849E+04
  2.51245E+04 -4.70094E+04  5.21288E+04 -2.13037E+04  4.85030E+04  2.04771E+04  1.73908E+04  4.71581E+04
 -1.67137E+04  3.64714E+04 -2.75910E+04  2.39209E+03 -1.18465E+04 -2.89426E+04  2.16624E+04 -3.71112E+04
  4.47684E+04 -1.11249E+04  4.02975E+04  2.50093E+04  2.12667E+04  5.10686E+04 -8.33069E+03  5.60603E+04
 -3.55217E+04  3.85062E+04 -4.75627E+04  1.11991E+04 -4.78993E+04 -1.84865E+04 -2.62617E+04 -4.18707E+04
  7.72393E+03 -4.17950E+04  3.40932E+04 -1.72363E+04  3.20471E+04  1.11390E+04  5.14132E+03  2.08182E+04
 -1.37625E+04  9.38484E+03 -1.09400E+04 -7.48681E+03  5.93956E+03 -1.13278E+04  1.91521E+04  5.86797E+03
  1.49328E+04  2.25978E+04 -5.24838E+03  2.68895E+04 -2.34051E+04  1.45990E+04 -3.13052E+04 -2.61082E+03
 -2.53581E+04 -1.88878E+04 -1.20387E+04 -2.53205E+04  4.17840E+03 -2.56060E+04  1.97842E+04 -2.33633E+04
  3.18889E+04 -1.43017E+04  3.83438E+04  4.92810E+03  2.73271E+04  2.45645E+04  4.23981E+03  4.14408E+04
 -1.98277E+04  3.37222E+04 -3.04990E+04  1.17462E+04 -2.25702E+04 -1.00671E+04 -5.26333E+03 -1.25952E+04
  1.02570E+03 -1.00574E+03 -7.34490E+03  8.13219E+03 -2.03019E+04  5.03487E+03 -2.07188E+04 -9.52720E+03
 -1.20550E+04 -2.35302E+04  6.00927E+03 -2.75187E+04  1.88149E+04 -1.99877E+04  2.28613E+04 -1.89281E+03
  1.48254E+04  1.61849E+04 -1.23045E+03  2.34711E+04 -1.65960E+04  1.35277E+04 -2.40237E+04 -4.72243E+03
 -1.70413E+04 -2.09371E+04 -2.43294E+03 -2.79490E+04  1.26434E+04 -2.36031E+04  2.33649E+04 -1.25249E+04
  2.24910E+04 -3.64827E+02  1.57523E+04  5.30736E+03  9.02108E+03  1.25236E+03  1.21639E+04 -1.82416E+03
  2.26914E+04  2.83011E+03  2.60201E+04  1.82026E+04  1.76001E+04  3.82037E+04 -2.49393E+03  4.47014E+04
 -2.54803E+04  3.74409E+04 -4.23030E+04  1.94796E+04 -4.53385E+04 -3.43482E+03 -3.68138E+04 -2.63247E+04
 -1.42524E+04 -3.75540E+04  1.36661E+04 -3.29405E+04  2.83738E+04 -1.52452E+04  2.47495E+04  8.01586E+03
  8.30886E+03  1.90469E+04 -1.16780E+04  1.55167E+04 -2.00714E+04  2.25252E+03 -1.54307E+04 -1.25823E+04
 -4.68272E+02 -1.89278E+04  1.01602E+04 -1.47080E+04  1.31822E+04 -1.35792E+03  3.23895E+03  8.80909E+03
 -8.89519E+03  4.04220E+03 -9.45811E+03 -7.02702E+03 -1.74125E+03 -1.85348E+04  1.22627E+04 -1.95881E+04
  2.34068E+04 -1.12102E+04  2.68625E+04  3.34930E+03  2.33960E+04  1.87688E+04  1.06649E+04  2.96903E+04
 -5.50131E+03  3.17653E+04 -2.11363E+04  1.96254E+04 -2.32161E+04  4.17353E+03 -1.57051E+04 -6.45738E+03
 -6.73944E+03 -7.32908E+03 -4.09109E+02  3.92347E+02 -2.79764E+03  3.90013E+03 -7.28160E+03  5.53525E+03
 -1.48364E+04 -8.03924E+02 -1.48223E+04 -1.21439E+04 -6.17419E+03 -2.00761E+04  6.28368E+03 -1.62812E+04
  1.34485E+04 -6.86732E+03  9.08773E+03  4.69199E+03 -4.56517E+02  6.33612E+03 -7.99963E+03 -4.50731E+02
 -8.21874E+03 -1.05352E+04 -1.17800E+03 -1.59291E+04  9.48555E+03 -1.71204E+04  2.03208E+04 -9.46440E+03
  2.38354E+04  2.45456E+03  1.73676E+04  1.47175E+04  3.79567E+03  1.96238E+04 -9.95648E+03  1.59001E+04
 -1.31556E+04  4.87369E+03 -6.62863E+03 -3.45386E+03  2.08465E+03 -4.44032E+03  8.01828E+03 -9.19992E+02
  7.07629E+03  6.76107E+03  1.20807E+03  1.31449E+04 -9.32510E+03  1.20552E+04 -1.58684E+04  3.16624E+03
 -1.10613E+04 -8.95185E+03 -2.31640E+02 -1.40377E+04  9.13512E+03 -6.75374E+03  9.82239E+03  3.50401E+03
  2.74233E+03  1.03305E+04 -8.30239E+03  1.23486E+04 -1.40147E+04  5.63424E+03 -1.46050E+04 -5.37433E+03
 -8.30305E+03 -1.65233E+04  4.45498E+03 -1.90693E+04  1.58697E+04 -1.14387E+04  1.75411E+04  3.26025E+03
  9.96008E+03  1.36412E+04 -1.89375E+03  1.62933E+04 -1.20294E+04  9.05868E+03 -1.32894E+04 -1.69643E+03
 -1.08094E+04 -1.08200E+04 -1.59665E+03 -1.25927E+04  6.57761E+03 -9.87120E+03  8.26085E+03 -4.02986E+03
  5.31324E+03  2.08153E+03 -1.21278E+03  2.39444E+03 -7.17308E+02 -3.68089E+03  3.10223E+03 -7.63555E+03
  1.21454E+04 -4.98297E+03  1.71350E+04  2.15974E+03  1.63753E+04  1.17579E+04  1.03640E+04  2.20144E+04
 -5.27959E+03  2.51511E+04 -2.13936E+04  1.83294E+04 -2.71558E+04  3.68619E+03 -2.18879E+04 -9.28095E+03
 -1.10870E+04 -1.80221E+04 -2.48231E+02 -1.46031E+04  5.56353E+03 -8.52317E+03  4.84064E+03 -5.68131E+03
  3.99745E+03 -3.11440E+03  3.83884E+03 -4.37195E+03  6.03572E+03 -3.85850E+03  8.63148E+03 -1.26475E+03
  1.10502E+04  2.59645E+03  6.22334E+03  1.00669E+04 -2.23335E+03  1.21365E+04 -1.18054E+04  9.17696E+03
 -1.52999E+04 -1.58087E+03 -9.79819E+03 -1.12129E+04 -1.25507E+03 -1.67453E+04  9.38478E+03 -1.68328E+04
  1.75054E+04 -8.72003E+03  2.07613E+04  2.70658E+03  1.39983E+04  1.42252E+04  2.20206E+03  1.83947E+04
 -7.95259E+03  1.54657E+04 -1.09625E+04  5.35547E+03 -7.41934E+03 -1.28246E+03 -3.78299E+03 -2.16217E+03
 -1.53873E+03  4.96753E+01 -2.47395E+03  2.92260E+03 -5.91211E+03  2.45719E+03 -1.07504E+04 -1.68808E+03
 -8.14893E+03 -1.04689E+04  9.68998E+00 -1.54340E+04  9.67904E+03 -1.41559E+04  1.55051E+04 -4.51755E+03
  1.56974E+04  7.33378E+03  7.02214E+03  1.38056E+04 -3.07240E+03  1.58287E+04 -1.08637E+04  9.82879E+03
 -1.47197E+04  6.58368E+02 -1.12801E+04 -9.14565E+03 -1.46021E+03 -1.30361E+04  6.79517E+03 -9.70331E+03
  1.02192E+04 -2.81830E+03  7.11957E+03  2.85512E+03  2.58992E+03  4.97937E+03  1.65661E+03  2.36623E+03
  2.96965E+03  1.31292E+03  3.96712E+03  2.03757E+03  4.52864E+03  5.33082E+03  4.10687E+03  8.38815E+03
 -3.13293E+03  1.25357E+04 -1.10099E+04  1.23233E+04 -1.63991E+04  2.77088E+03 -1.64759E+04 -7.10070E+03
 -8.05817E+03 -1.64162E+04  2.77334E+03 -1.75069E+04  9.67036E+03 -1.13784E+04  1.32983E+04 -2.83868E+03
  1.09809E+04  6.43428E+03  2.69704E+03  9.38086E+03 -4.65109E+03  5.62590E+03 -6.32831E+03 -1.17206E+03
 -3.23952E+03 -7.24937E+03  3.73183E+03 -7.24230E+03  6.48734E+03 -3.95885E+03  6.53995E+03  1.57662E+03
  4.00556E+03  3.49091E+03  1.29964E+03  3.17084E+03 -1.15157E+03  2.33105E+03  2.03968E+03 -6.62240E+02
  2.48061E+03 -7.66439E+02  6.13032E+03  2.68741E+03  4.10479E+03  8.72888E+03 -1.59014E+03  1.11982E+04
 -7.55616E+03  7.73866E+03 -1.07801E+04  2.54071E+03 -9.29999E+03 -4.03276E+03 -3.18504E+03 -6.40227E+03
  1.03902E+03 -6.41080E+03  4.40863E+03 -2.73797E+03  3.64172E+03  3.40237E+03 -1.37549E+03  5.76887E+03
 -6.58082E+03  3.25614E+03 -7.97419E+03 -3.69318E+03 -4.40026E+03 -8.76195E+03  1.47988E+03 -8.90153E+03
  5.85904E+03 -5.55239E+03  6.07402E+03 -4.79557E+02  5.28008E+03  2.84104E+03  9.62148E+02  4.88196E+03
 -3.21259E+03  1.20427E+03 -3.89969E+03 -3.44802E+03  1.45987E+03 -7.06547E+03  7.97796E+03 -5.90453E+03
  1.11481E+04  9.14138E+02  1.03000E+04  6.77902E+03  3.12989E+03  1.10950E+04 -3.62158E+03  1.01442E+04
 -8.73432E+03  4.95585E+03 -9.42513E+03 -1.11674E+03 -5.25000E+03 -7.36015E+03  1.55094E+03 -6.93887E+03
  6.98007E+03 -3.27916E+03  5.96736E+03  2.94633E+03  1.65306E+03  5.94848E+03 -1.14338E+03  5.36196E+03
 -2.73087E+03  3.45986E+03 -2.88227E+03  1.11018E+03 -1.15039E+03  1.09242E+03 -1.91714E+03  2.38692E+03
 -2.90158E+03  4.52712E+03 -7.26738E+03  3.88277E+03 -1.10728E+04 -3.16708E+02 -1.25197E+04 -7.66649E+03
 -6.40943E+03 -1.47534E+04  2.94865E+03 -1.67403E+04  1.06465E+04 -1.33462E+04  1.60528E+04 -4.88225E+03
  1.48008E+04  3.35861E+03  9.25012E+03  1.04597E+04  1.18833E+03  1.16096E+04 -4.55661E+03  8.59778E+03
 -6.15290E+03  2.84064E+03 -4.10477E+03 -1.24333E+03 -1.23895E+03 -1.43398E+03 -1.05149E+03 -1.08343E+02
 -1.90281E+03  8.01845E+02 -2.66540E+03 -5.42632E+02 -8.97290E+02 -2.87347E+03  9.74873E+01 -4.50373E+03
  5.51058E+03 -3.51237E+03  7.38140E+03  1.90238E+02  8.30019E+03  6.90684E+03  2.13983E+03  1.16165E+04
 -5.52990E+03  1.33067E+04 -1.23617E+04  7.83910E+03 -1.41872E+04 -1.29360E+03 -1.09614E+04 -8.43456E+03
 -4.33559E+03 -1.22804E+04  3.29039E+03 -1.14588E+04  7.73128E+03 -6.25417E+03  7.82341E+03 -1.54847E+01
  4.00670E+03  4.28474E+03 -5.89844E+02  3.44543E+03 -2.08165E+03 -1.70293E+02  5.30673E+02 -2.85255E+03
  3.63286E+03 -1.83362E+03  4.75261E+03  1.64540E+03  3.18029E+03  4.87456E+03 -2.63825E+02  6.04793E+03
 -5.40036E+03  5.12818E+03 -8.55655E+03  3.00981E+02 -6.68664E+03 -5.55565E+03 -1.33270E+03 -1.01054E+04
  5.63771E+03 -8.36185E+03  9.36225E+03 -2.57254E+03  9.61197E+03  2.06766E+03  5.49506E+03  7.22101E+03
  8.75156E+02  7.56640E+03 -2.95076E+03  6.72731E+03 -5.11131E+03  3.85319E+03 -4.26300E+03  4.71803E+02
 -2.34869E+03 -1.50805E+02 -2.16222E+03  1.04608E+03 -3.92412E+03  1.44600E+03 -6.27935E+03 -1.56183E+03
 -5.84086E+03 -4.20574E+03 -1.96417E+03 -8.02833E+03  3.64024E+03 -8.73290E+03  6.94073E+03 -4.75611E+03
  7.64770E+03  1.06777E+03  4.65696E+03  6.03751E+03 -4.22974E+02  8.08000E+03 -6.39592E+03  5.44535E+03
