 $NMID ID='MM_0lb_SNR800_18hz_g45_31.RAW', FMTDAT='(8E13.5)'
 TRAMP=1., VOLUME=1. $END
  3.09916E+05  4.37917E+02  3.37413E+05  2.50319E+05  8.44946E+04  3.37043E+05 -1.32401E+05  2.50372E+05
 -1.89587E+05  8.27112E+04 -1.10997E+05 -3.31025E+04  1.43876E+03 -5.01084E+04  5.38995E+04  1.15001E+02
  3.52473E+04  5.27402E+04 -1.70614E+04  7.49004E+04 -6.07071E+04  6.29895E+04 -8.31330E+04  3.16667E+04
 -7.97091E+04 -1.10432E+04 -5.63557E+04 -5.02454E+04 -1.49254E+04 -6.84388E+04  2.69324E+04 -4.48200E+04
  3.88930E+04  3.79711E+03  1.55510E+04  4.69978E+04 -3.41495E+04  4.62957E+04 -6.53835E+04 -4.39976E+02
 -5.22577E+04 -5.58907E+04 -6.44462E+03 -7.51311E+04  3.30757E+04 -5.31784E+04  4.61912E+04 -1.63338E+04
  4.15901E+04  1.09662E+04  3.09247E+04  2.46191E+04  1.58109E+04  2.82594E+04 -4.64803E+03  2.67463E+04
 -2.19020E+04  1.25093E+04 -1.92206E+04 -4.33183E+03  3.98950E+03 -7.58440E+03  2.12536E+04  1.11201E+04
  7.56717E+03  3.33352E+04 -3.03839E+04  3.40064E+04 -6.10262E+04  2.15123E+03 -5.50042E+04 -4.13496E+04
 -1.25015E+04 -6.10308E+04  3.80527E+04 -4.32878E+04  5.56418E+04 -1.76828E+03  3.19040E+04  3.04783E+04
 -6.58335E+03  3.32601E+04 -2.84526E+04  1.36780E+04 -2.76348E+04 -5.40237E+03 -1.46060E+04 -9.95243E+03
 -7.65409E+03 -1.13966E+04 -8.56027E+02 -1.65136E+04  6.77562E+03 -2.26021E+04  1.50322E+04 -1.38356E+04
  1.21263E+04  4.24684E+03 -6.68308E+03  1.27930E+04 -1.95292E+04 -2.38615E+03 -8.08269E+03 -3.04021E+04
  2.10596E+04 -4.07144E+04  4.48212E+04 -1.87840E+04  4.20757E+04  1.85293E+04  1.44916E+04  4.20160E+04
 -1.54242E+04  3.14033E+04 -2.36740E+04  1.19317E+03 -8.49412E+03 -2.65336E+04  2.03594E+04 -3.12613E+04
  3.80840E+04 -7.26484E+03  3.16044E+04  2.28971E+04  1.56104E+04  4.27701E+04 -7.75102E+03  4.57109E+04
 -2.86333E+04  3.00248E+04 -3.73081E+04  8.46940E+03 -3.85011E+04 -1.51096E+04 -2.12843E+04 -3.48759E+04
  6.79504E+03 -3.41912E+04  2.93527E+04 -1.32632E+04  2.68715E+04  1.08237E+04  2.82216E+03  1.78358E+04
 -1.31990E+04  7.36445E+03 -9.92494E+03 -7.59231E+03  6.10229E+03 -1.01965E+04  1.73537E+04  6.41378E+03
  1.22810E+04  2.20424E+04 -6.64814E+03  2.36215E+04 -2.13208E+04  9.27576E+03 -2.53961E+04 -6.09830E+03
 -1.68732E+04 -1.66688E+04 -5.47846E+03 -1.71881E+04  3.75020E+03 -1.49358E+04  1.27451E+04 -1.45506E+04
  2.16160E+04 -1.17017E+04  2.83698E+04  1.31929E+03  2.16187E+04  1.64385E+04  3.82838E+03  3.24355E+04
 -1.60165E+04  2.76445E+04 -2.58751E+04  9.46319E+03 -1.95586E+04 -1.07334E+04 -3.97731E+03 -1.37928E+04
  2.77497E+03 -4.19056E+03 -2.59832E+03  5.38910E+03 -1.30694E+04  5.47798E+03 -1.38865E+04 -5.19042E+03
 -8.79106E+03 -1.58266E+04  4.60079E+03 -1.98146E+04  1.27519E+04 -1.40598E+04  1.45814E+04 -1.47572E+03
  9.12943E+03  1.10191E+04 -9.78102E+02  1.59035E+04 -1.04668E+04  8.88092E+03 -1.54889E+04 -3.51835E+03
 -1.15002E+04 -1.45284E+04 -1.38356E+03 -1.91735E+04  8.75251E+03 -1.53824E+04  1.63480E+04 -7.29971E+03
  1.47398E+04  6.48133E+02  1.06239E+04  4.10610E+03  5.22574E+03  4.83652E+02  7.72687E+03 -1.38081E+03
  1.39835E+04  2.56164E+03  1.50193E+04  1.28312E+04  9.11930E+03  2.49388E+04 -3.14057E+03  2.69688E+04
 -1.60405E+04  2.04654E+04 -2.48119E+04  9.75389E+03 -2.54700E+04 -1.78409E+03 -2.18306E+04 -1.43240E+04
 -1.01243E+04 -2.06043E+04  7.03740E+03 -1.94484E+04  1.68617E+04 -1.08183E+04  1.59357E+04  3.89912E+03
  6.80842E+03  1.13725E+04 -7.52694E+03  1.06485E+04 -1.36515E+04  2.90346E+03 -1.03251E+04 -8.21990E+03
 -9.59220E+01 -1.25958E+04  6.40643E+03 -9.29973E+03  7.97614E+03 -1.15185E+03  1.17000E+03  4.92866E+03
 -5.86550E+03  1.23780E+03 -3.89261E+03 -4.84634E+03  6.00888E+02 -1.04233E+04  8.00175E+03 -1.02520E+04
  1.26400E+04 -4.74724E+03  1.25012E+04  2.78748E+03  1.04250E+04  9.70616E+03  5.09409E+03  1.43595E+04
 -1.93659E+03  1.62230E+04 -9.91745E+03  1.01536E+04 -1.18220E+04  2.67820E+03 -8.48788E+03 -2.02466E+03
 -4.73304E+03 -3.53046E+03 -8.92965E+02  1.65335E+03 -1.70923E+03  2.01878E+03 -3.28309E+03  3.50600E+03
 -8.25605E+03 -2.89595E+02 -8.64994E+03 -7.11660E+03 -3.83739E+03 -1.14944E+04  3.64367E+03 -8.51035E+03
  7.42181E+03 -3.94100E+03  5.16713E+03  2.28484E+03  7.00593E+02  3.11617E+03 -3.32498E+03 -2.80073E+02
 -3.53286E+03 -5.24732E+03 -6.01937E+02 -7.18198E+03  4.00143E+03 -8.32862E+03  9.99055E+03 -3.86758E+03
  1.20752E+04  6.93304E+02  9.05478E+03  6.27616E+03  1.73611E+03  8.84942E+03 -5.24453E+03  8.65363E+03
 -7.11825E+03  2.81052E+03 -3.59947E+03 -1.33953E+03  1.46665E+03 -2.27288E+03  4.77311E+03 -8.78070E+02
  4.29757E+03  3.29133E+03  1.23953E+03  6.61759E+03 -4.61641E+03  6.48832E+03 -8.01454E+03  1.73449E+03
 -5.22517E+03 -3.77426E+03  4.26453E+02 -6.96367E+03  3.95244E+03 -3.48087E+03  3.89554E+03  8.31386E+02
  4.63432E+02  3.34279E+03 -4.19576E+03  4.73007E+03 -5.12735E+03  2.34463E+03 -4.21628E+03 -1.25733E+03
 -2.92544E+03 -6.55626E+03  1.18566E+03 -7.23700E+03  6.17903E+03 -4.97307E+03  6.74807E+03  9.63766E+02
  4.36954E+03  5.45635E+03  1.74854E+02  7.46802E+03 -5.11793E+03  4.48114E+03 -5.44274E+03 -4.64137E+02
 -6.02534E+03 -5.47923E+03 -1.17975E+03 -5.23363E+03  2.64910E+03 -4.82861E+03  3.04618E+03 -3.19542E+03
  3.08479E+03  1.52285E+02  3.05200E+02  1.15680E+03  4.93351E+02 -1.09810E+02  2.59260E+02 -2.10113E+03
  4.17625E+03 -7.91096E+02  5.59702E+03  7.58513E+02  6.00668E+03  3.28973E+03  5.46073E+03  7.49870E+03
 -1.19967E+03  8.99517E+03 -8.29176E+03  6.76392E+03 -1.03692E+04  1.24640E+03 -7.93779E+03 -2.76299E+03
 -4.46310E+03 -6.77268E+03 -2.44165E+02 -5.23357E+03  2.08374E+03 -2.14308E+03  1.84785E+03 -2.28105E+03
  1.34449E+03 -1.30109E+03  2.28096E+03 -2.09980E+03  3.68499E+03 -1.21191E+03  3.96499E+03  3.21960E+02
  4.69927E+03  1.11429E+03  1.17543E+03  3.72675E+03 -1.51207E+03  3.17094E+03 -4.51215E+03  2.84521E+03
 -5.18412E+03 -9.18840E+02 -2.02326E+03 -3.23373E+03  4.01715E+02 -5.35756E+03  3.48543E+03 -5.82688E+03
  5.13339E+03 -3.36073E+03  7.27889E+03  3.15736E+02  5.23327E+03  4.51245E+03  1.20873E+03  6.59621E+03
 -2.25788E+03  5.99823E+03 -3.33377E+03  1.96255E+03 -2.20148E+03 -9.02241E+02 -5.45537E+02 -3.71028E+02
 -7.17874E+02  3.25233E+02 -9.08241E+02  2.13893E+03 -2.22784E+03  1.43005E+03 -4.25721E+03 -5.86969E+02
 -1.37688E+03 -4.50103E+03  9.05021E+02 -4.93407E+03  3.04955E+03 -4.63695E+03  3.83571E+03 -1.27215E+03
  4.20846E+03  2.60147E+03  1.70868E+03  3.43032E+03 -7.67603E+02  4.60487E+03 -2.58433E+03  2.94214E+03
 -4.07749E+03  6.35044E+02 -3.54384E+03 -2.51384E+03 -1.19081E+02 -3.47653E+03  1.88468E+03 -2.53321E+03
  2.64409E+03 -1.30130E+03  2.09935E+03  6.16682E+02  4.39618E+02  1.86699E+03  5.78477E+02  1.58429E+02
  1.91746E+03  4.49513E+02  1.37370E+03  1.04549E+03  1.03066E+03  2.37372E+03  1.35493E+03  1.95374E+03
 -1.42595E+03  3.15867E+03 -2.58253E+03  4.51550E+03 -3.39547E+03  1.07172E+03 -4.51438E+03 -5.05366E+02
 -1.86021E+03 -3.88295E+03  5.97358E+02 -4.93744E+03  1.90688E+03 -2.80354E+03  3.08279E+03 -9.04515E+02
  2.73507E+03  1.88416E+03  4.22183E+02  2.32890E+03 -8.85561E+02  1.35321E+03 -1.23235E+03 -1.57122E+02
 -5.16119E+02 -1.41705E+03  9.55410E+02 -1.52590E+03  1.42873E+03 -1.22691E+03  1.52841E+03  4.47223E+02
  8.79261E+02  3.81724E+02  7.39057E+02  7.58767E+01 -3.25107E+02  7.14661E+02  1.52776E+03 -2.66952E+02
 -5.72872E+01 -1.30084E+02  1.89078E+03  5.65631E+02  2.88712E+02  2.53448E+03 -2.63990E+02  2.90489E+03
 -1.50567E+03  1.18144E+03 -1.83236E+03  6.26763E+02 -2.09593E+03 -7.56598E+02 -1.12551E+02 -1.18593E+03
  4.57471E+02 -1.35599E+03  9.52653E+02 -9.65062E+02  7.26596E+02  1.29750E+03 -9.07750E+02  8.74927E+02
 -1.67208E+03  9.21463E+02 -1.21588E+03 -1.52463E+03 -7.06665E+02 -2.27599E+03  8.43382E+01 -1.67869E+03
  8.08343E+02 -5.44742E+02  5.15353E+02  5.53625E+01  1.67568E+03 -1.59845E+02  2.95556E+02  1.03840E+03
 -3.87715E+02  1.53649E+02 -1.11837E+03 -9.14619E+01  3.55537E+02 -1.04090E+03  1.52967E+03 -7.64631E+02
  1.65336E+03  4.67183E+01  2.94345E+03  6.86818E+02  1.28946E+03  1.64849E+03 -4.13191E+02  1.84246E+03
 -1.36145E+03  3.75265E+02 -1.55689E+03 -1.86039E+02 -1.00394E+03 -1.68810E+03  3.69281E+02 -4.74597E+02
  1.49087E+03 -5.83642E+02  5.92326E+02  8.09326E+02  2.45993E+02  1.22025E+03  1.98294E+02  9.91716E+02
 -4.46482E+02  1.24707E+03 -5.01342E+02  3.97027E+02  1.53099E+02  4.38205E+02 -9.27250E+02  4.89615E+02
 -5.53235E+02  1.24265E+03 -1.95442E+03  6.03561E+02 -1.74085E+03  4.09241E+01 -2.56039E+03 -1.18557E+03
 -9.87298E+02 -2.45800E+03  5.79107E+02 -3.17369E+03  1.11031E+03 -2.49464E+03  3.09704E+03 -1.29737E+03
  2.70496E+03 -3.58023E+01  1.28612E+03  1.79257E+03 -6.27123E+02  1.55788E+03 -7.65642E+02  1.42635E+03
 -1.17412E+03  8.63867E+02 -6.66153E+02 -5.12138E+02 -2.57591E+02  2.18511E+02 -6.80077E+02  2.18888E+02
 -9.64369E+02 -1.05688E+02 -6.84147E+02  1.00406E+02  3.58459E+02 -5.94350E+02 -2.85688E+02 -9.02378E+02
  1.54673E+03 -6.75023E+02  5.67615E+02  8.54139E+01  1.19745E+03  7.86881E+02 -6.04120E+02  1.57910E+03
 -1.02300E+03  2.38489E+03 -2.04247E+03  1.58357E+03 -2.04515E+03 -1.89177E+02 -1.40072E+03 -1.31811E+03
 -7.89324E+02 -1.26619E+03  3.31965E+02 -1.29314E+03  8.59005E+02 -1.11177E+03  5.01565E+02  3.58358E+01
  6.51116E+02  4.63201E+02  1.21503E+01  4.92778E+02 -2.57707E+02 -2.70420E+02 -7.63986E+01 -3.63236E+02
  7.39529E+02  2.01523E+02  6.39186E+02  6.38622E+02  2.34874E+02  6.32758E+02  4.09047E+02  5.37030E+02
 -8.30938E+02  8.13118E+02 -4.16627E+02  5.77199E+02 -9.12256E+02 -4.68278E+02  6.41942E+01 -1.37040E+03
  6.08415E+02 -7.60420E+02  5.12871E+02 -4.71076E+01  1.23173E+03 -5.98940E+02  3.34053E+02  7.84945E+02
  3.52666E+02  7.31816E+02 -2.77311E+02  5.18814E+02 -4.57609E+02  5.25520E+02 -4.77862E+02  2.14935E+02
 -6.50059E+01 -7.63437E+01 -5.39292E+02  1.11028E+02 -8.44136E+02  1.90551E+02 -6.97434E+02 -4.52596E+01
 -9.23201E+02  5.32558E+02 -2.85933E+02 -9.25619E+02  7.06056E+02 -1.82991E+03  1.02471E+03 -3.26076E+02
  8.91675E+02  8.54708E+01 -2.26644E+02  4.23495E+02 -4.01011E+02  9.07118E+02 -2.66487E+02  8.36123E+02
