 $NMID ID='MM_0lb_SNR800_18hz_g60_22.RAW', FMTDAT='(8E13.5)'
 TRAMP=1., VOLUME=1. $END
  3.09773E+05  4.72429E+02  3.37560E+05  2.50590E+05  8.48077E+04  3.37672E+05 -1.32723E+05  2.50696E+05
 -1.90074E+05  8.28768E+04 -1.11554E+05 -3.25092E+04  1.29709E+03 -5.05664E+04  5.36501E+04  1.81962E+02
  3.51908E+04  5.26208E+04 -1.68092E+04  7.54814E+04 -6.05009E+04  6.33579E+04 -8.37990E+04  3.17667E+04
 -8.06312E+04 -1.09104E+04 -5.69420E+04 -5.11105E+04 -1.51195E+04 -6.92716E+04  2.71564E+04 -4.53174E+04
  3.97506E+04  3.67130E+03  1.61781E+04  4.76603E+04 -3.43961E+04  4.70828E+04 -6.64263E+04 -3.91097E+02
 -5.30301E+04 -5.65375E+04 -6.83135E+03 -7.62780E+04  3.36854E+04 -5.44389E+04  4.75129E+04 -1.73643E+04
  4.29783E+04  1.11683E+04  3.14241E+04  2.51157E+04  1.57630E+04  2.93791E+04 -5.29252E+03  2.70634E+04
 -2.18875E+04  1.27291E+04 -1.87610E+04 -4.78799E+03  5.10354E+03 -7.65221E+03  2.18482E+04  1.19379E+04
  7.41736E+03  3.45886E+04 -3.15070E+04  3.50948E+04 -6.26288E+04  2.22221E+03 -5.66495E+04 -4.24503E+04
 -1.25922E+04 -6.24747E+04  3.93176E+04 -4.43902E+04  5.75961E+04 -1.99575E+03  3.34778E+04  3.20063E+04
 -5.79474E+03  3.51480E+04 -2.97627E+04  1.52514E+04 -2.93712E+04 -4.72387E+03 -1.59225E+04 -1.05974E+04
 -8.24429E+03 -1.23453E+04 -7.67212E+02 -1.75286E+04  7.44651E+03 -2.28881E+04  1.51071E+04 -1.33693E+04
  1.16677E+04  4.64529E+03 -7.57818E+03  1.27792E+04 -2.05669E+04 -3.80020E+03 -8.39170E+03 -3.27006E+04
  2.21566E+04 -4.21504E+04  4.69821E+04 -1.95064E+04  4.39631E+04  1.89319E+04  1.53453E+04  4.33684E+04
 -1.58942E+04  3.27057E+04 -2.45831E+04  1.68962E+03 -9.38980E+03 -2.72618E+04  2.09122E+04 -3.27847E+04
  3.98276E+04 -8.36790E+03  3.38868E+04  2.33484E+04  1.68229E+04  4.49537E+04 -7.91248E+03  4.80955E+04
 -3.00521E+04  3.23321E+04 -3.97005E+04  8.69671E+03 -4.07795E+04 -1.59874E+04 -2.26419E+04 -3.65472E+04
  7.18082E+03 -3.62054E+04  3.05326E+04 -1.37711E+04  2.82671E+04  1.07979E+04  3.49842E+03  1.86505E+04
 -1.32368E+04  7.97120E+03 -9.85654E+03 -7.45375E+03  5.92697E+03 -1.06429E+04  1.79503E+04  6.11638E+03
  1.29497E+04  2.17066E+04 -6.17471E+03  2.43542E+04 -2.21183E+04  1.05322E+04 -2.67086E+04 -5.44656E+03
 -1.90238E+04 -1.65722E+04 -7.00746E+03 -1.92293E+04  3.96574E+03 -1.73218E+04  1.43550E+04 -1.64173E+04
  2.40344E+04 -1.23694E+04  3.03597E+04  1.84486E+03  2.26488E+04  1.81514E+04  4.27966E+03  3.44791E+04
 -1.68494E+04  2.87984E+04 -2.68832E+04  9.90627E+03 -2.03538E+04 -1.03308E+04 -4.23897E+03 -1.37393E+04
  2.10977E+03 -3.32029E+03 -3.78455E+03  6.09856E+03 -1.44496E+04  5.28492E+03 -1.49568E+04 -6.02946E+03
 -9.22158E+03 -1.71361E+04  4.83271E+03 -2.10765E+04  1.38758E+04 -1.52310E+04  1.63700E+04 -1.31236E+03
  1.00352E+04  1.20714E+04 -7.92624E+02  1.72629E+04 -1.19428E+04  9.79160E+03 -1.70873E+04 -3.71452E+03
 -1.29642E+04 -1.56186E+04 -1.76948E+03 -2.08606E+04  9.60386E+03 -1.69863E+04  1.71966E+04 -8.39147E+03
  1.61620E+04  4.67938E+02  1.15400E+04  3.96016E+03  6.07680E+03  6.40940E+02  8.65897E+03 -1.50444E+03
  1.55245E+04  2.66858E+03  1.69527E+04  1.35533E+04  1.08121E+04  2.73469E+04 -3.06669E+03  3.01694E+04
 -1.76701E+04  2.37714E+04 -2.77282E+04  1.15570E+04 -2.87700E+04 -1.79198E+03 -2.42697E+04 -1.64213E+04
 -1.07409E+04 -2.36319E+04  7.98060E+03 -2.16037E+04  1.88983E+04 -1.16535E+04  1.71807E+04  4.67758E+03
  6.74694E+03  1.24971E+04 -7.86830E+03  1.11646E+04 -1.44451E+04  2.72003E+03 -1.14326E+04 -8.95900E+03
 -3.11028E+02 -1.35947E+04  6.79551E+03 -1.00362E+04  8.93565E+03 -1.72394E+03  1.77840E+03  5.70269E+03
 -6.07623E+03  1.77166E+03 -4.75587E+03 -4.97214E+03  1.25851E+02 -1.14367E+04  8.63128E+03 -1.17733E+04
  1.40758E+04 -5.85365E+03  1.42637E+04  2.85794E+03  1.25346E+04  1.10842E+04  5.87157E+03  1.66660E+04
 -2.25788E+03  1.83800E+04 -1.09414E+04  1.16114E+04 -1.29048E+04  3.10544E+03 -9.45478E+03 -2.53757E+03
 -4.77007E+03 -3.62810E+03 -6.66031E+02  1.26732E+03 -2.15922E+03  2.12716E+03 -4.14460E+03  3.87099E+03
 -9.11164E+03 -9.43460E+02 -9.90518E+03 -8.05254E+03 -4.04460E+03 -1.24992E+04  3.91016E+03 -9.36242E+03
  8.05101E+03 -4.25931E+03  5.79234E+03  2.41711E+03  5.18825E+02  3.30040E+03 -4.48388E+03  1.45920E+02
 -3.77884E+03 -5.82369E+03 -7.05373E+02 -8.23640E+03  4.36778E+03 -9.16751E+03  1.12009E+04 -4.80757E+03
  1.29975E+04  7.82106E+02  9.93685E+03  7.33662E+03  1.87085E+03  9.97590E+03 -6.08198E+03  9.15994E+03
 -7.46089E+03  3.06547E+03 -4.08980E+03 -1.50937E+03  1.37614E+03 -2.24890E+03  5.32253E+03 -8.75159E+02
  4.70809E+03  3.83666E+03  9.60324E+02  7.32078E+03 -4.82709E+03  6.78993E+03 -8.81467E+03  1.94608E+03
 -5.45262E+03 -4.38542E+03  2.42761E+02 -7.40355E+03  4.23813E+03 -3.78571E+03  4.59310E+03  1.47626E+03
  8.23728E+02  4.25262E+03 -4.66058E+03  5.49477E+03 -5.72645E+03  2.41394E+03 -5.63970E+03 -1.53251E+03
 -3.19569E+03 -6.90168E+03  1.52213E+03 -8.01979E+03  7.14182E+03 -5.39454E+03  7.82590E+03  1.20932E+03
  5.23360E+03  6.29682E+03 -2.69698E+02  8.63504E+03 -5.80773E+03  4.85213E+03 -6.02132E+03 -4.86916E+02
 -6.00245E+03 -5.83692E+03 -1.25696E+03 -5.77438E+03  2.98597E+03 -5.03566E+03  3.55488E+03 -3.25696E+03
  2.84772E+03  3.37763E+02  1.54110E+02  1.49109E+03  4.41427E+02 -5.96798E+02  4.60963E+02 -2.27088E+03
  4.65747E+03 -1.23817E+03  6.58622E+03  7.26681E+02  6.31107E+03  3.82428E+03  5.55523E+03  8.29048E+03
 -1.56468E+03  9.69598E+03 -8.52068E+03  7.67157E+03 -1.12417E+04  1.72498E+03 -8.65157E+03 -3.03654E+03
 -4.79877E+03 -7.65234E+03 -7.49902E+02 -5.95267E+03  1.93632E+03 -2.49930E+03  1.95591E+03 -2.41386E+03
  1.20060E+03 -2.02793E+03  2.08307E+03 -2.85256E+03  3.50731E+03 -1.73772E+03  3.87423E+03  3.05473E+02
  4.87840E+03  1.49533E+03  1.35376E+03  3.95812E+03 -1.70772E+03  3.26202E+03 -4.83747E+03  3.05522E+03
 -5.75652E+03 -8.67481E+02 -2.25479E+03 -3.88065E+03  4.03045E+02 -5.61504E+03  3.37257E+03 -5.76491E+03
  5.72452E+03 -3.64828E+03  7.52835E+03  4.72857E+02  5.45677E+03  4.76248E+03  1.15259E+03  6.62902E+03
 -2.69458E+03  6.46468E+03 -3.62504E+03  1.98320E+03 -2.44509E+03 -1.20069E+03 -5.39929E+02 -4.75968E+02
 -4.46081E+02  1.08526E+02 -9.65792E+02  1.97469E+03 -2.69752E+03  1.12853E+03 -4.39849E+03 -4.40845E+02
 -1.93077E+03 -4.36382E+03  7.65138E+02 -5.19794E+03  2.95865E+03 -5.19207E+03  4.24589E+03 -1.24284E+03
  4.55219E+03  2.66471E+03  2.36156E+03  3.67373E+03 -1.00944E+03  5.09572E+03 -3.07718E+03  3.11932E+03
 -4.39663E+03  4.65768E+02 -3.77427E+03 -2.71017E+03 -4.83406E+02 -3.64913E+03  1.72071E+03 -3.06444E+03
  3.15756E+03 -1.25430E+03  1.89742E+03  5.76691E+02  5.42335E+02  2.13472E+03  6.99482E+02  6.98960E+02
  1.63311E+03  3.08174E+02  1.30806E+03  9.92901E+02  1.20386E+03  2.52305E+03  1.52616E+03  1.89883E+03
 -1.06474E+03  3.17165E+03 -3.08672E+03  4.54840E+03 -3.58822E+03  1.34070E+03 -4.57604E+03 -3.23975E+02
 -2.08130E+03 -4.15781E+03  5.89343E+02 -4.95445E+03  2.18386E+03 -2.82667E+03  3.42398E+03 -7.74088E+02
  2.77655E+03  1.99681E+03  4.46308E+02  2.76556E+03 -9.51502E+02  1.28518E+03 -1.29266E+03 -2.93200E+02
 -5.58450E+02 -1.86786E+03  1.24614E+03 -1.50918E+03  1.63678E+03 -1.18240E+03  1.56608E+03  5.50574E+02
  9.18644E+02  2.66041E+02  5.86390E+02 -1.65137E+02 -7.83084E+02  4.64911E+02  1.48106E+03 -1.19896E+02
  4.40162E+01 -4.11979E+02  1.79379E+03  6.17566E+02  3.95845E+02  2.62566E+03 -2.43324E+02  2.98316E+03
 -1.92584E+03  1.27336E+03 -2.22398E+03  3.86878E+02 -2.44673E+03 -1.01024E+03 -3.78409E+02 -1.28053E+03
  4.05067E+02 -1.48443E+03  1.10658E+03 -6.82645E+02  6.43306E+02  1.31963E+03 -6.51203E+02  1.25858E+03
 -1.63419E+03  8.08168E+02 -1.46458E+03 -1.35850E+03 -9.83891E+02 -2.13048E+03 -6.38258E+01 -2.03731E+03
  6.87811E+02 -4.83043E+02  8.81869E+02  1.99337E+02  1.43203E+03 -8.54299E+01  4.28392E+02  1.21170E+03
 -3.28649E+02  1.28874E+02 -1.08377E+03 -1.77091E+02  5.18163E+02 -1.04989E+03  1.72671E+03 -9.62312E+02
  1.48701E+03  1.92864E+02  2.89929E+03  9.12892E+02  1.18979E+03  1.60820E+03 -1.30204E+02  1.94458E+03
 -1.60074E+03  4.63136E+02 -1.40748E+03  1.92966E+00 -9.16264E+02 -1.08157E+03  4.78046E+02 -8.90821E+02
  1.45245E+03 -8.62757E+02  8.05430E+02  7.85118E+02  2.48471E+02  1.53533E+03  2.82897E+02  1.00592E+03
 -6.53671E+02  1.36168E+03 -3.98583E+02  3.63899E+02  1.30060E+02  4.72299E+02 -8.22671E+02  7.66284E+02
 -7.76197E+02  1.24100E+03 -1.94905E+03  7.74156E+02 -1.61885E+03  3.74526E+02 -2.42148E+03 -1.15480E+03
 -1.13389E+03 -2.34923E+03  4.24665E+02 -3.18777E+03  1.28159E+03 -2.80352E+03  2.86315E+03 -1.01130E+03
  2.49444E+03 -1.55690E+02  1.50475E+03  1.85572E+03 -5.20261E+02  1.62762E+03 -7.42054E+02  1.40986E+03
 -9.70043E+02  9.38813E+02 -3.84683E+02 -5.84825E+02 -5.27684E+02  4.21248E+02 -8.77794E+02  7.19050E+01
 -1.39294E+03 -1.94429E+02 -1.06199E+03 -9.78254E+01  4.03860E+01 -8.08234E+02 -3.46178E+02 -8.00464E+02
  1.40530E+03 -7.05628E+02  4.26699E+02  4.63562E+01  1.14772E+03  1.26342E+03 -2.98060E+02  1.56146E+03
 -7.54488E+02  2.47949E+03 -1.75721E+03  1.21827E+03 -1.98791E+03 -2.01120E+02 -1.41428E+03 -1.41749E+03
 -1.21189E+03 -1.36647E+03  3.13924E+02 -1.40203E+03  9.55761E+02 -2.55222E+02  6.71234E+02 -2.00869E+01
  7.15321E+02  3.92339E+02  3.69353E+02  3.35915E+02 -7.04534E+02  1.03623E+02 -2.00276E+02 -5.50705E+02
  6.40213E+02  2.43567E+02  5.48903E+01  4.65924E+02  1.03532E+02  2.19717E+02  1.50902E+02  3.34220E+02
 -5.37974E+02  9.39336E+02 -6.52698E+02  5.20052E+02 -6.62537E+02 -2.72928E+02  9.52370E+01 -1.27714E+03
  5.10194E+02 -9.14828E+02  3.53130E+02  3.22066E+01  9.84589E+02 -5.15622E+02  4.34587E+02  8.92508E+02
  4.25793E+02  6.37740E+02  6.77589E+01  3.81500E+02 -5.28727E+02  4.93272E+02 -5.94484E+02  1.64697E+01
 -1.71144E+02 -2.66313E+02 -3.47854E+02 -1.41081E+02 -5.38964E+02 -8.74743E+01 -8.00392E+02 -2.25249E+02
 -1.00824E+03  3.43697E+02 -5.27240E+02 -1.05181E+03  6.51686E+02 -1.56120E+03  8.15826E+02 -3.44315E+02
  7.07175E+02 -2.01335E+02 -2.22741E+02  3.46512E+02 -2.94110E+02  9.92870E+02 -4.08731E+02  6.21099E+02
