 $NMID ID='MM_0lb_SNR800_14hz_g40_34.RAW', FMTDAT='(8E13.5)'
 TRAMP=1., VOLUME=1. $END
  3.09972E+05  3.97663E+02  3.37331E+05  2.50953E+05  8.49070E+04  3.37688E+05 -1.32659E+05  2.50830E+05
 -1.90124E+05  8.30586E+04 -1.11316E+05 -3.30938E+04  1.30442E+03 -5.05305E+04  5.36511E+04 -1.66141E+02
  3.52512E+04  5.27950E+04 -1.68338E+04  7.52216E+04 -6.05831E+04  6.31684E+04 -8.38110E+04  3.19912E+04
 -8.05798E+04 -1.15956E+04 -5.68086E+04 -5.06335E+04 -1.49264E+04 -6.92787E+04  2.72295E+04 -4.53522E+04
  4.00111E+04  3.82894E+03  1.60647E+04  4.75528E+04 -3.43105E+04  4.69712E+04 -6.63711E+04 -1.96796E+02
 -5.28953E+04 -5.64798E+04 -6.49089E+03 -7.67565E+04  3.37728E+04 -5.42609E+04  4.75642E+04 -1.67493E+04
  4.30577E+04  1.12263E+04  3.15095E+04  2.50677E+04  1.58026E+04  2.90975E+04 -5.17801E+03  2.70491E+04
 -2.19203E+04  1.22711E+04 -1.85326E+04 -4.80135E+03  5.46479E+03 -7.48360E+03  2.21898E+04  1.20178E+04
  7.41866E+03  3.48096E+04 -3.18167E+04  3.52529E+04 -6.27910E+04  2.11040E+03 -5.67799E+04 -4.22890E+04
 -1.24101E+04 -6.27277E+04  3.96037E+04 -4.44647E+04  5.74116E+04 -2.18064E+03  3.38072E+04  3.18550E+04
 -6.26474E+03  3.52362E+04 -2.95148E+04  1.52158E+04 -2.96484E+04 -4.91981E+03 -1.59391E+04 -1.07875E+04
 -7.93194E+03 -1.25790E+04 -9.96070E+02 -1.76382E+04  7.41510E+03 -2.32034E+04  1.51119E+04 -1.36809E+04
  1.14138E+04  4.85636E+03 -7.65243E+03  1.30154E+04 -2.11361E+04 -3.75854E+03 -8.36727E+03 -3.28266E+04
  2.23642E+04 -4.30147E+04  4.72939E+04 -1.90215E+04  4.46246E+04  1.89881E+04  1.52641E+04  4.37591E+04
 -1.59373E+04  3.30257E+04 -2.46569E+04  1.90935E+03 -9.32433E+03 -2.74671E+04  2.08052E+04 -3.31833E+04
  4.03788E+04 -8.55006E+03  3.47393E+04  2.36937E+04  1.75211E+04  4.57531E+04 -7.75224E+03  4.87885E+04
 -3.10905E+04  3.30988E+04 -4.08979E+04  9.25952E+03 -4.17437E+04 -1.62522E+04 -2.32758E+04 -3.71049E+04
  7.04167E+03 -3.68104E+04  3.10203E+04 -1.43701E+04  2.86853E+04  1.11188E+04  3.66584E+03  1.88336E+04
 -1.29719E+04  7.99982E+03 -1.04263E+04 -7.47399E+03  5.88644E+03 -1.05416E+04  1.78287E+04  6.30800E+03
  1.32289E+04  2.18391E+04 -6.22171E+03  2.43452E+04 -2.21613E+04  1.08274E+04 -2.73701E+04 -5.06595E+03
 -1.98395E+04 -1.71991E+04 -7.65603E+03 -1.93630E+04  3.50339E+03 -1.83796E+04  1.51722E+04 -1.74239E+04
  2.50867E+04 -1.26539E+04  3.11582E+04  2.34832E+03  2.30802E+04  1.90554E+04  4.23188E+03  3.54140E+04
 -1.72818E+04  2.98361E+04 -2.75561E+04  1.03205E+04 -2.06084E+04 -1.01867E+04 -4.24158E+03 -1.35901E+04
  2.18846E+03 -3.21240E+03 -4.52036E+03  6.59509E+03 -1.55659E+04  5.23233E+03 -1.56482E+04 -6.79614E+03
 -9.86665E+03 -1.79940E+04  5.28705E+03 -2.20382E+04  1.47198E+04 -1.59417E+04  1.71054E+04 -1.79303E+03
  1.08479E+04  1.28421E+04 -1.14469E+03  1.83137E+04 -1.26303E+04  1.03697E+04 -1.83010E+04 -3.95355E+03
 -1.31391E+04 -1.66419E+04 -1.60231E+03 -2.22060E+04  1.01462E+04 -1.80588E+04  1.84973E+04 -8.81725E+03
  1.69631E+04  3.73839E+02  1.23721E+04  4.22222E+03  6.15958E+03  1.00565E+03  9.37824E+03 -1.54033E+03
  1.67164E+04  2.91830E+03  1.84149E+04  1.45989E+04  1.21585E+04  2.90752E+04 -2.65498E+03  3.25859E+04
 -1.92672E+04  2.59853E+04 -3.04123E+04  1.28382E+04 -3.16000E+04 -2.21580E+03 -2.66884E+04 -1.84066E+04
 -1.16037E+04 -2.61097E+04  9.09391E+03 -2.37154E+04  2.05427E+04 -1.24940E+04  1.84963E+04  5.02527E+03
  7.19634E+03  1.34243E+04 -8.73993E+03  1.20330E+04 -1.60397E+04  2.68203E+03 -1.20748E+04 -9.95559E+03
 -1.84187E+02 -1.45921E+04  7.73034E+03 -1.11650E+04  9.72588E+03 -1.47706E+03  1.77243E+03  6.46877E+03
 -6.50789E+03  2.33441E+03 -5.68945E+03 -5.17274E+03 -1.94687E+01 -1.30771E+04  9.31455E+03 -1.34259E+04
  1.59667E+04 -6.81478E+03  1.65139E+04  2.78084E+03  1.43362E+04  1.24465E+04  6.88454E+03  1.92052E+04
 -2.92666E+03  2.07096E+04 -1.34444E+04  1.31023E+04 -1.49802E+04  3.33515E+03 -1.06077E+04 -3.04642E+03
 -5.14715E+03 -4.48171E+03 -6.18699E+02  1.23139E+03 -2.58857E+03  2.63686E+03 -5.20313E+03  4.17475E+03
 -9.86375E+03 -7.62678E+02 -1.06674E+04 -8.58707E+03 -4.45226E+03 -1.39863E+04  4.42170E+03 -1.11159E+04
  9.02936E+03 -4.47978E+03  6.60279E+03  2.58406E+03  5.44477E+02  4.43178E+03 -4.95200E+03 -4.98588E+02
 -4.63171E+03 -7.21605E+03 -7.27086E+02 -1.00181E+04  5.47137E+03 -1.09057E+04  1.31407E+04 -5.47683E+03
  1.58201E+04  1.18542E+03  1.16225E+04  8.85990E+03  2.52330E+03  1.21762E+04 -6.82130E+03  1.06727E+04
 -8.54881E+03  3.23179E+03 -4.50389E+03 -2.07504E+03  1.56356E+03 -2.97904E+03  6.15445E+03 -9.80762E+02
  5.10691E+03  4.61780E+03  6.06869E+02  8.36131E+03 -6.09843E+03  8.10727E+03 -1.00162E+04  2.22301E+03
 -6.86052E+03 -5.44168E+03  2.45920E+02 -8.83012E+03  5.54012E+03 -4.57199E+03  5.45457E+03  1.70484E+03
  1.05434E+03  5.62678E+03 -5.44298E+03  7.03912E+03 -7.59234E+03  3.00360E+03 -7.68618E+03 -2.23671E+03
 -4.41548E+03 -8.80074E+03  2.27685E+03 -1.10528E+04  8.95166E+03 -6.73128E+03  9.83432E+03  1.43189E+03
  6.34506E+03  7.77276E+03 -2.30463E+02  9.76271E+03 -7.12669E+03  5.51635E+03 -7.32872E+03 -6.68248E+02
 -7.39685E+03 -6.71363E+03 -1.57121E+03 -7.49173E+03  3.78490E+03 -6.08839E+03  4.31305E+03 -3.06991E+03
  3.38410E+03  6.35843E+02 -5.23534E+01  1.49191E+03  1.07509E+02 -1.35025E+03  1.05857E+03 -3.73383E+03
  6.54947E+03 -1.80471E+03  8.79758E+03  1.19257E+03  8.87040E+03  5.53066E+03  6.78579E+03  1.16676E+04
 -2.53525E+03  1.35243E+04 -1.16686E+04  9.95130E+03 -1.49140E+04  1.96465E+03 -1.19670E+04 -4.70713E+03
 -6.39355E+03 -9.98006E+03 -4.36448E+02 -7.98513E+03  3.02545E+03 -4.19938E+03  2.96095E+03 -3.16203E+03
  2.16968E+03 -1.97872E+03  2.85233E+03 -2.90612E+03  3.90861E+03 -2.09786E+03  4.95298E+03 -1.25612E+02
  6.39480E+03  1.35475E+03  3.02313E+03  5.41178E+03 -1.91343E+03  5.52754E+03 -6.60727E+03  4.58877E+03
 -7.90975E+03 -1.30230E+03 -3.94114E+03 -5.58939E+03 -2.36465E+02 -8.30655E+03  4.66195E+03 -8.58928E+03
  8.68392E+03 -5.04035E+03  1.06342E+04  1.07038E+03  7.22657E+03  7.13413E+03  1.45327E+03  9.79907E+03
 -3.77878E+03  8.63040E+03 -5.52865E+03  3.12665E+03 -3.24820E+03 -1.09629E+03 -1.35056E+03 -1.21388E+03
 -8.43496E+02  1.28474E+02 -1.53425E+03  2.25518E+03 -3.71559E+03  1.61297E+03 -5.87116E+03 -7.92618E+02
 -3.24219E+03 -5.82485E+03  6.42011E+02 -7.68770E+03  4.35814E+03 -7.04501E+03  6.94705E+03 -1.88849E+03
  7.35254E+03  3.82391E+03  3.46610E+03  6.43733E+03 -1.45545E+03  7.55681E+03 -4.86419E+03  4.92572E+03
 -7.05839E+03  9.45422E+02 -5.72562E+03 -4.34816E+03 -4.91885E+02 -6.30976E+03  3.04887E+03 -4.51754E+03
  4.71661E+03 -2.02148E+03  3.18909E+03  9.42990E+02  1.06590E+03  2.31806E+03  9.61472E+02  9.82138E+02
  2.03279E+03  4.82783E+02  1.86243E+03  9.93406E+02  2.00912E+03  3.11575E+03  2.24286E+03  3.44510E+03
 -1.54666E+03  5.46218E+03 -4.95268E+03  6.36023E+03 -6.91560E+03  1.87461E+03 -7.37512E+03 -2.18223E+03
 -3.40740E+03 -6.89700E+03  1.20021E+03 -8.20100E+03  4.10033E+03 -4.34936E+03  5.96932E+03 -1.34620E+03
  4.43749E+03  3.17302E+03  1.33199E+03  4.25094E+03 -1.82465E+03  2.69251E+03 -2.57305E+03 -9.99344E+01
 -1.32942E+03 -2.96617E+03  1.78427E+03 -3.16403E+03  2.83799E+03 -1.50821E+03  2.79117E+03  7.93504E+02
  1.51939E+03  1.20501E+03  9.65037E+02  4.23102E+02 -6.21973E+02  8.17190E+02  1.40536E+03 -5.63864E+02
  8.32068E+02 -3.70837E+02  3.07250E+03  1.15524E+03  9.24391E+02  3.87963E+03 -9.92937E+02  5.20452E+03
 -3.24991E+03  2.70993E+03 -4.34430E+03  1.11485E+03 -4.07765E+03 -1.78820E+03 -1.00836E+03 -2.22409E+03
  7.27745E+02 -2.62424E+03  1.59874E+03 -1.55931E+03  1.60341E+03  1.77028E+03 -1.12608E+03  2.44058E+03
 -2.91799E+03  1.12674E+03 -2.80418E+03 -1.89020E+03 -1.46568E+03 -4.41343E+03  5.29146E+02 -3.60276E+03
  1.67686E+03 -1.81474E+03  2.21979E+03 -1.07253E+02  2.29995E+03  3.73246E+02  5.96197E+02  1.82113E+03
 -8.60985E+02  7.22104E+02 -1.58504E+03 -9.12759E+02  1.17385E+03 -2.59747E+03  3.35363E+03 -2.37688E+03
  3.79368E+03  6.23862E+02  4.67916E+03  2.28832E+03  1.54771E+03  3.82912E+03 -1.09207E+03  3.98755E+03
 -3.73930E+03  1.20165E+03 -3.46914E+03 -6.65525E+02 -1.60281E+03 -2.53126E+03  8.40848E+02 -2.14898E+03
  2.66125E+03 -1.38451E+03  2.02339E+03  1.41057E+03  5.55774E+02  2.38957E+03 -1.37494E+02  2.18478E+03
 -6.64462E+02  1.96122E+03 -1.00064E+03  4.62337E+02 -3.85660E+02  3.84669E+02 -9.59928E+02  7.72274E+02
 -1.38430E+03  1.52596E+03 -3.35790E+03  1.40945E+03 -4.17573E+03  1.28712E+02 -4.86033E+03 -2.46993E+03
 -2.18645E+03 -5.37292E+03  1.12207E+03 -6.11099E+03  3.33989E+03 -4.89443E+03  5.72425E+03 -1.60549E+03
  5.29257E+03  9.33030E+02  3.26935E+03  3.85890E+03 -4.36604E+01  3.85023E+03 -1.72045E+03  2.86971E+03
 -2.55042E+03  1.13904E+03 -1.65159E+03 -3.87576E+02 -4.84559E+02 -1.34512E+02 -6.27137E+02 -2.59776E+02
 -1.33338E+03 -2.44733E+01 -9.37183E+02 -6.13909E+01 -8.59552E+01 -8.66713E+02 -4.16367E+01 -1.48499E+03
  1.88812E+03 -1.46492E+03  1.77820E+03  1.87231E+02  2.65539E+03  2.24140E+03  2.67370E+02  3.75585E+03
 -1.60634E+03  5.03609E+03 -3.93271E+03  2.75453E+03 -4.60877E+03 -4.05259E+02 -3.47583E+03 -2.87992E+03
 -1.60020E+03 -3.76655E+03  7.83780E+02 -3.40603E+03  2.14776E+03 -1.53245E+03  2.63127E+03  2.67174E+02
  1.09229E+03  9.31613E+02  1.42553E+02  9.29753E+02 -9.27750E+02 -9.40597E+01  1.48849E+02 -5.62235E+02
  1.06075E+03 -3.49217E+02  1.18753E+03  5.99946E+02  4.38487E+02  1.14514E+03  8.80049E+01  1.52300E+03
 -1.60524E+03  1.48495E+03 -2.11701E+03  1.87156E+02 -2.01921E+03 -1.52256E+03 -1.86520E+01 -2.72304E+03
  1.43728E+03 -2.44146E+03  2.28133E+03 -5.68422E+02  2.32307E+03  2.12539E+02  1.50056E+03  2.31846E+03
  9.02038E+02  2.38458E+03 -8.65819E+02  1.69972E+03 -1.53003E+03  1.39944E+03 -1.41272E+03  6.39786E+01
 -9.33180E+02 -8.80510E+01 -9.68365E+02  4.53857E+02 -1.32376E+03  4.71015E+02 -1.81616E+03 -6.37422E+01
 -1.86264E+03 -7.77358E+02 -6.50089E+02 -2.28108E+03  1.31848E+03 -3.01823E+03  1.83312E+03 -1.19905E+03
  2.29706E+03  2.84711E+02  9.45796E+02  1.55371E+03 -2.14536E+02  2.45182E+03 -1.40678E+03  1.34335E+03
