 $NMID ID='MM_0lb_SNR800_16hz_g40_97.RAW', FMTDAT='(8E13.5)'
 TRAMP=1., VOLUME=1. $END
  3.09725E+05  3.77375E+02  3.37394E+05  2.50283E+05  8.45964E+04  3.37857E+05 -1.32581E+05  2.50617E+05
 -1.89736E+05  8.25783E+04 -1.11179E+05 -3.27524E+04  1.05780E+03 -5.04651E+04  5.38871E+04  2.49048E+02
  3.54142E+04  5.27120E+04 -1.72509E+04  7.49055E+04 -6.04338E+04  6.30608E+04 -8.31799E+04  3.17244E+04
 -7.98822E+04 -1.10689E+04 -5.68751E+04 -5.05236E+04 -1.50384E+04 -6.85210E+04  2.71821E+04 -4.52013E+04
  3.93101E+04  3.54900E+03  1.56772E+04  4.73549E+04 -3.37604E+04  4.62918E+04 -6.57195E+04 -4.77763E+02
 -5.25357E+04 -5.64405E+04 -6.28611E+03 -7.60389E+04  3.32444E+04 -5.37703E+04  4.67132E+04 -1.67315E+04
  4.21307E+04  1.11629E+04  3.10880E+04  2.48289E+04  1.58020E+04  2.86444E+04 -4.79476E+03  2.70688E+04
 -2.20085E+04  1.24458E+04 -1.91999E+04 -4.42945E+03  4.49764E+03 -7.58476E+03  2.16273E+04  1.11988E+04
  7.31740E+03  3.39550E+04 -3.10104E+04  3.46089E+04 -6.15504E+04  2.13664E+03 -5.59112E+04 -4.16753E+04
 -1.24013E+04 -6.13923E+04  3.83526E+04 -4.41619E+04  5.63251E+04 -2.32619E+03  3.24652E+04  3.10659E+04
 -6.25646E+03  3.39274E+04 -2.86008E+04  1.44249E+04 -2.84131E+04 -5.21205E+03 -1.54121E+04 -1.04432E+04
 -7.37962E+03 -1.19475E+04 -9.85363E+02 -1.69820E+04  6.88657E+03 -2.26670E+04  1.52783E+04 -1.36666E+04
  1.18204E+04  4.54469E+03 -6.83460E+03  1.33644E+04 -1.97540E+04 -3.15461E+03 -8.32255E+03 -3.13300E+04
  2.14236E+04 -4.13103E+04  4.59733E+04 -1.88254E+04  4.29971E+04  1.84559E+04  1.47053E+04  4.24477E+04
 -1.58883E+04  3.16764E+04 -2.41440E+04  1.33279E+03 -8.57964E+03 -2.71674E+04  2.07628E+04 -3.18769E+04
  3.89129E+04 -8.08305E+03  3.24954E+04  2.29490E+04  1.62660E+04  4.39397E+04 -8.04399E+03  4.66560E+04
 -2.95466E+04  3.10237E+04 -3.91791E+04  8.71911E+03 -3.97593E+04 -1.56933E+04 -2.17978E+04 -3.57180E+04
  7.44649E+03 -3.53513E+04  2.99801E+04 -1.33169E+04  2.76355E+04  1.08040E+04  3.39327E+03  1.80582E+04
 -1.31135E+04  7.63271E+03 -9.77639E+03 -7.61346E+03  5.81271E+03 -1.01998E+04  1.73166E+04  6.52839E+03
  1.26647E+04  2.17428E+04 -6.57037E+03  2.39703E+04 -2.17010E+04  9.71845E+03 -2.59952E+04 -5.73102E+03
 -1.79225E+04 -1.68454E+04 -6.54512E+03 -1.79727E+04  4.06139E+03 -1.63745E+04  1.35950E+04 -1.54118E+04
  2.29149E+04 -1.19994E+04  2.92913E+04  1.73344E+03  2.23316E+04  1.76871E+04  3.93936E+03  3.37216E+04
 -1.67172E+04  2.87199E+04 -2.65649E+04  9.95874E+03 -2.01085E+04 -1.05036E+04 -4.11677E+03 -1.36716E+04
  2.43435E+03 -3.66880E+03 -3.14770E+03  5.76886E+03 -1.40988E+04  5.21197E+03 -1.46824E+04 -5.95239E+03
 -9.19955E+03 -1.66663E+04  5.10776E+03 -2.08628E+04  1.35004E+04 -1.48523E+04  1.58478E+04 -1.66462E+03
  1.00111E+04  1.15801E+04 -7.52388E+02  1.65812E+04 -1.12858E+04  9.76632E+03 -1.67259E+04 -3.49662E+03
 -1.24565E+04 -1.51378E+04 -1.82825E+03 -2.04602E+04  9.28476E+03 -1.66656E+04  1.72828E+04 -7.78838E+03
  1.56313E+04  4.63522E+02  1.10297E+04  4.11747E+03  5.98979E+03  6.99824E+02  8.58721E+03 -1.43974E+03
  1.50714E+04  2.77460E+03  1.62938E+04  1.34774E+04  1.01843E+04  2.63540E+04 -2.75934E+03  2.91790E+04
 -1.73897E+04  2.28444E+04 -2.69423E+04  1.10834E+04 -2.80706E+04 -1.78811E+03 -2.34318E+04 -1.58316E+04
 -1.07206E+04 -2.31143E+04  7.70756E+03 -2.12596E+04  1.83492E+04 -1.14871E+04  1.66422E+04  4.43745E+03
  6.73227E+03  1.23631E+04 -7.73915E+03  1.13970E+04 -1.42692E+04  2.65088E+03 -1.12114E+04 -8.72293E+03
  8.12461E+01 -1.35382E+04  6.92989E+03 -1.02550E+04  8.71664E+03 -1.34153E+03  1.79959E+03  5.54654E+03
 -5.86983E+03  1.79409E+03 -4.63075E+03 -4.88708E+03  1.86389E+02 -1.14260E+04  8.24454E+03 -1.16573E+04
  1.38497E+04 -5.83269E+03  1.41691E+04  3.08660E+03  1.20541E+04  1.05396E+04  5.96374E+03  1.60577E+04
 -2.13934E+03  1.84168E+04 -1.11612E+04  1.16222E+04 -1.28004E+04  2.76839E+03 -9.48418E+03 -2.69700E+03
 -4.73935E+03 -3.83486E+03 -5.91024E+02  1.44292E+03 -2.06793E+03  2.20505E+03 -4.27146E+03  3.74246E+03
 -8.90467E+03 -4.41269E+02 -9.63977E+03 -7.86201E+03 -4.15627E+03 -1.27659E+04  3.78062E+03 -9.46768E+03
  8.08499E+03 -4.38355E+03  5.72546E+03  2.47199E+03  5.84794E+02  3.14360E+03 -3.70864E+03 -2.46639E+02
 -4.07883E+03 -5.71526E+03 -7.81101E+02 -8.53809E+03  4.55070E+03 -9.05806E+03  1.14669E+04 -4.83638E+03
  1.37032E+04  1.19892E+03  9.78803E+03  7.64115E+03  2.03071E+03  1.02755E+04 -5.80695E+03  9.44390E+03
 -7.99379E+03  3.07297E+03 -4.04869E+03 -1.55667E+03  1.29370E+03 -2.30609E+03  5.09312E+03 -1.08333E+03
  4.62984E+03  4.06568E+03  9.55159E+02  7.10640E+03 -5.33440E+03  6.59270E+03 -9.10194E+03  1.75968E+03
 -5.57680E+03 -4.65614E+03  1.78121E+02 -7.53704E+03  4.63086E+03 -3.80486E+03  4.38262E+03  1.35482E+03
  6.40786E+02  4.09211E+03 -4.64000E+03  5.69691E+03 -6.02401E+03  2.90274E+03 -5.87674E+03 -1.67448E+03
 -3.68604E+03 -7.13258E+03  1.41745E+03 -8.89724E+03  7.11268E+03 -5.66964E+03  7.82774E+03  1.20405E+03
  5.66172E+03  6.48479E+03  2.82353E+02  8.71143E+03 -6.26973E+03  4.92038E+03 -6.65164E+03 -4.73628E+02
 -6.53193E+03 -6.04491E+03 -1.49948E+03 -5.92951E+03  3.28530E+03 -5.42765E+03  3.66938E+03 -2.73872E+03
  3.36427E+03  7.43311E+02 -4.09065E+02  1.48495E+03  6.84730E+02 -4.29924E+02  2.53532E+02 -2.57129E+03
  5.05175E+03 -1.48337E+03  6.71462E+03  1.07088E+03  7.05966E+03  3.80726E+03  5.89583E+03  9.22869E+03
 -1.87443E+03  1.09202E+04 -9.66616E+03  8.05929E+03 -1.21510E+04  1.61848E+03 -9.53134E+03 -3.85896E+03
 -4.91161E+03 -7.82564E+03 -3.28226E+02 -6.46397E+03  2.62104E+03 -2.94083E+03  2.20094E+03 -2.44552E+03
  1.48303E+03 -1.71503E+03  2.39623E+03 -2.67862E+03  3.89897E+03 -1.51864E+03  4.41916E+03  2.49461E+02
  5.45750E+03  1.46666E+03  1.73315E+03  4.57059E+03 -1.48773E+03  4.05018E+03 -5.54144E+03  3.29067E+03
 -6.01719E+03 -1.08619E+03 -3.09782E+03 -4.31948E+03 -3.73631E+01 -6.75813E+03  3.94014E+03 -6.97271E+03
  6.88103E+03 -4.10907E+03  8.30387E+03  4.91488E+02  5.91365E+03  5.30335E+03  1.05226E+03  7.36751E+03
 -2.69684E+03  7.06717E+03 -4.39867E+03  2.52506E+03 -2.40513E+03 -1.17775E+03 -1.02319E+03 -9.40634E+02
 -7.86191E+02  4.72500E+02 -1.14201E+03  2.04480E+03 -3.17916E+03  1.36178E+03 -4.99805E+03 -4.66265E+02
 -2.61364E+03 -4.98091E+03  7.15714E+02 -6.00696E+03  3.89762E+03 -5.72724E+03  5.24370E+03 -1.78965E+03
  5.60347E+03  3.16175E+03  2.80056E+03  4.69407E+03 -1.01789E+03  5.41390E+03 -3.49752E+03  3.54180E+03
 -5.01350E+03  4.05251E+02 -4.32121E+03 -3.40650E+03 -3.74801E+02 -4.81086E+03  2.40180E+03 -3.42485E+03
  3.67060E+03 -1.83672E+03  2.07162E+03  6.91734E+02  7.82714E+02  2.33501E+03  8.79509E+02  5.55710E+02
  2.22588E+03  4.49996E+02  1.42935E+03  9.13055E+02  1.26864E+03  2.82505E+03  1.91818E+03  2.66709E+03
 -1.73866E+03  3.97841E+03 -3.57046E+03  5.09667E+03 -4.60098E+03  1.61914E+03 -5.82447E+03 -1.19417E+03
 -2.62814E+03 -5.38308E+03  1.30237E+03 -6.39988E+03  2.72310E+03 -3.76422E+03  4.31776E+03 -1.14977E+03
  3.39725E+03  2.52163E+03  5.15787E+02  3.26053E+03 -1.31748E+03  1.76114E+03 -1.71676E+03 -3.51024E+02
 -1.07334E+03 -2.40502E+03  1.45809E+03 -2.29345E+03  2.06382E+03 -1.00785E+03  2.13177E+03  6.41290E+02
  1.14938E+03  2.27706E+02  7.86807E+02 -1.32665E+02 -2.59495E+02  8.35002E+02  1.67831E+03  8.64212E+01
  3.54513E+02 -5.37059E+02  2.39279E+03  8.90204E+02  6.02543E+02  3.04037E+03 -7.27875E+02  3.97901E+03
 -2.34034E+03  1.74067E+03 -3.03010E+03  2.34052E+02 -3.05397E+03 -8.12897E+02 -6.69140E+02 -1.54027E+03
  2.48760E+02 -1.70185E+03  1.31389E+03 -1.05262E+03  1.36047E+03  1.45305E+03 -8.50110E+02  1.75871E+03
 -1.93903E+03  1.01070E+03 -1.97060E+03 -1.85083E+03 -1.17935E+03 -2.91240E+03  3.12802E+02 -2.38028E+03
  1.25703E+03 -9.91765E+02  1.20060E+03 -3.59770E+01  1.95144E+03 -5.16500E+01  4.97205E+02  1.38215E+03
 -1.03324E+03  3.32467E+02 -1.22823E+03 -4.67727E+02  7.44665E+02 -1.59281E+03  2.75469E+03 -1.50792E+03
  2.18383E+03  2.77543E+02  3.51499E+03  1.38521E+03  1.26950E+03  2.59208E+03 -7.52450E+02  2.55266E+03
 -1.89567E+03  9.03570E+02 -2.07519E+03 -2.70524E+02 -1.38712E+03 -2.06730E+03  6.71990E+02 -1.28747E+03
  2.00650E+03 -9.45774E+02  1.26678E+03  1.08757E+03  4.15492E+02  1.77397E+03 -5.98317E+01  1.62840E+03
 -5.67392E+02  1.63961E+03 -4.08471E+02  2.08213E+02 -1.23940E+02  6.78160E+02 -9.38054E+02  1.02955E+03
 -8.93172E+02  1.33634E+03 -2.51668E+03  7.13633E+02 -2.95898E+03  2.83589E+02 -3.43434E+03 -1.83767E+03
 -1.58195E+03 -3.80391E+03  8.90272E+02 -4.16539E+03  2.32140E+03 -3.55274E+03  4.14486E+03 -1.31837E+03
  3.91989E+03  2.56909E+02  2.10111E+03  2.36056E+03 -2.46378E+02  2.57692E+03 -1.18705E+03  2.15114E+03
 -1.56696E+03  9.68442E+02 -7.62154E+02 -1.01491E+02 -6.69034E+02  2.16176E+02 -1.05397E+03  4.23146E+01
 -1.20481E+03 -1.22561E+02 -1.10980E+03 -8.27981E+01  1.45730E+02 -1.05270E+03 -4.48827E+02 -1.41424E+03
  1.55890E+03 -9.60032E+02  9.27688E+02  2.89193E+02  1.84881E+03  1.55978E+03 -2.12169E+02  2.58721E+03
 -1.33942E+03  3.18033E+03 -2.73381E+03  1.94302E+03 -3.36372E+03  9.33161E+01 -1.98084E+03 -1.99858E+03
 -1.26147E+03 -2.17516E+03  5.96545E+02 -2.18414E+03  1.41842E+03 -1.17762E+03  1.32940E+03  1.13302E+02
  1.23793E+03  7.76723E+02  2.23938E+02  8.69530E+02 -6.49001E+02 -1.04654E+02 -1.72248E+02 -5.86527E+02
  5.74510E+02  2.42102E+02  8.81099E+02  8.04549E+02  4.03976E+02  7.12775E+02  3.29341E+02  9.41822E+02
 -1.14192E+03  1.11470E+03 -1.63265E+03  4.10951E+02 -1.24779E+03 -8.18312E+02 -2.19987E+02 -1.96403E+03
  9.47710E+02 -1.37268E+03  1.54510E+03 -1.67633E+02  1.68452E+03 -4.38647E+02  1.25935E+03  1.30274E+03
  8.10731E+02  1.29987E+03 -6.45347E+02  1.32321E+03 -1.25263E+03  8.82367E+02 -8.14259E+02  3.31636E+02
 -1.54117E+02 -1.00389E+02 -7.84923E+02  5.06803E+02 -9.49377E+02  2.72893E+02 -1.33605E+03 -4.35330E+02
 -1.70860E+03 -3.62068E+02 -4.61377E+02 -1.54050E+03  1.30248E+03 -2.30296E+03  1.30098E+03 -3.86968E+02
  9.40269E+02  4.32723E+02  6.51473E+02  1.06691E+03 -7.50945E+01  1.57047E+03 -8.32186E+02  1.20271E+03
