 $NMID ID='MM_0lb_SNR800_19hz_g40_38.RAW', FMTDAT='(8E13.5)'
 TRAMP=1., VOLUME=1. $END
  3.09584E+05  6.25174E+02  3.37186E+05  2.50418E+05  8.39937E+04  3.36940E+05 -1.32330E+05  2.50014E+05
 -1.89283E+05  8.23061E+04 -1.10681E+05 -3.30614E+04  1.75705E+03 -5.04413E+04  5.40257E+04  4.74218E+02
  3.51429E+04  5.29872E+04 -1.71032E+04  7.47735E+04 -6.02271E+04  6.27068E+04 -8.25213E+04  3.13046E+04
 -7.90159E+04 -1.09732E+04 -5.57847E+04 -4.98734E+04 -1.49809E+04 -6.76339E+04  2.65199E+04 -4.42708E+04
  3.89589E+04  4.04966E+03  1.54227E+04  4.66224E+04 -3.39173E+04  4.58535E+04 -6.48657E+04 -6.70721E+02
 -5.16460E+04 -5.56244E+04 -5.98576E+03 -7.49117E+04  3.25608E+04 -5.28555E+04  4.57188E+04 -1.61342E+04
  4.12969E+04  1.10919E+04  3.06048E+04  2.42013E+04  1.59110E+04  2.78260E+04 -4.58833E+03  2.68042E+04
 -2.15995E+04  1.27169E+04 -1.92164E+04 -4.18554E+03  3.94207E+03 -7.61716E+03  2.05583E+04  1.05131E+04
  7.32621E+03  3.26567E+04 -2.99890E+04  3.34513E+04 -6.03881E+04  2.37096E+03 -5.47383E+04 -4.05694E+04
 -1.24824E+04 -6.02926E+04  3.77829E+04 -4.28229E+04  5.44475E+04 -1.80184E+03  3.10904E+04  2.99769E+04
 -6.67601E+03  3.21429E+04 -2.80325E+04  1.25478E+04 -2.67969E+04 -5.54106E+03 -1.35334E+04 -9.51152E+03
 -7.09346E+03 -1.08427E+04 -1.09403E+03 -1.62820E+04  6.35547E+03 -2.23021E+04  1.48561E+04 -1.39934E+04
  1.25610E+04  3.92091E+03 -5.70616E+03  1.29365E+04 -1.87383E+04 -1.79401E+03 -8.15459E+03 -2.95217E+04
  2.04508E+04 -3.98073E+04  4.34438E+04 -1.82945E+04  4.11300E+04  1.81276E+04  1.37505E+04  4.08846E+04
 -1.51145E+04  3.04758E+04 -2.32338E+04  8.57526E+02 -7.98420E+03 -2.56055E+04  2.05613E+04 -3.01210E+04
  3.73875E+04 -6.70053E+03  3.03166E+04  2.24173E+04  1.46901E+04  4.13440E+04 -7.64903E+03  4.38289E+04
 -2.74486E+04  2.88916E+04 -3.61861E+04  7.99421E+03 -3.69649E+04 -1.46479E+04 -2.05947E+04 -3.34505E+04
  7.08641E+03 -3.31704E+04  2.85630E+04 -1.21574E+04  2.61155E+04  1.03920E+04  2.61354E+03  1.71448E+04
 -1.30651E+04  6.83389E+03 -9.34460E+03 -7.67408E+03  6.09903E+03 -9.82863E+03  1.71764E+04  6.49512E+03
  1.21287E+04  2.17469E+04 -6.91420E+03  2.30380E+04 -2.12069E+04  8.69859E+03 -2.43852E+04 -6.63237E+03
 -1.56971E+04 -1.58307E+04 -5.06331E+03 -1.59583E+04  3.81752E+03 -1.32396E+04  1.15821E+04 -1.33324E+04
  1.99994E+04 -1.15927E+04  2.70586E+04  4.47398E+02  2.04486E+04  1.52698E+04  4.00299E+03  3.14440E+04
 -1.56832E+04  2.68475E+04 -2.51989E+04  8.98999E+03 -1.93193E+04 -1.02673E+04 -4.03705E+03 -1.42325E+04
  2.89456E+03 -4.58444E+03 -2.16856E+03  4.92137E+03 -1.22839E+04  5.49878E+03 -1.26265E+04 -4.30970E+03
 -8.52405E+03 -1.45771E+04  4.30488E+03 -1.83822E+04  1.19554E+04 -1.35546E+04  1.36582E+04 -1.51734E+03
  8.36649E+03  1.05059E+04 -9.44234E+02  1.45949E+04 -9.58478E+03  8.52699E+03 -1.45943E+04 -3.18681E+03
 -1.08401E+04 -1.34297E+04 -1.23043E+03 -1.81457E+04  8.20377E+03 -1.47566E+04  1.51465E+04 -6.66891E+03
  1.40687E+04  8.39912E+02  9.89028E+03  3.53352E+03  5.10086E+03  3.84276E+02  7.00841E+03 -1.50456E+03
  1.31967E+04  2.89098E+03  1.38389E+04  1.20590E+04  8.16727E+03  2.35120E+04 -3.19647E+03  2.44622E+04
 -1.49183E+04  1.85887E+04 -2.27933E+04  8.62726E+03 -2.31138E+04 -1.71960E+03 -1.98879E+04 -1.30096E+04
 -9.78447E+03 -1.88590E+04  6.15985E+03 -1.77170E+04  1.55132E+04 -1.04614E+04  1.47516E+04  3.23556E+03
  6.42120E+03  1.05090E+04 -6.73765E+03  9.97901E+03 -1.27169E+04  2.80121E+03 -9.98002E+03 -7.42879E+03
 -1.96757E+02 -1.18700E+04  5.76034E+03 -9.11423E+03  7.36353E+03 -1.36898E+03  1.22650E+03  4.70316E+03
 -5.40593E+03  9.13779E+02 -3.30343E+03 -4.37904E+03  9.03705E+02 -9.44282E+03  7.50597E+03 -9.18575E+03
  1.13168E+04 -3.91694E+03  1.08706E+04  2.78591E+03  9.15266E+03  8.46703E+03  4.32143E+03  1.26936E+04
 -9.52309E+02  1.47660E+04 -8.82531E+03  9.54292E+03 -1.05326E+04  2.85527E+03 -7.87279E+03 -1.82794E+03
 -4.49460E+03 -3.20181E+03 -5.57740E+02  1.50707E+03 -1.79689E+03  1.89914E+03 -3.57763E+03  3.35034E+03
 -7.53357E+03 -4.56524E+02 -8.47247E+03 -6.86213E+03 -3.11536E+03 -1.08440E+04  3.46432E+03 -8.04381E+03
  6.81296E+03 -3.52968E+03  5.00847E+03  1.78906E+03  7.06824E+02  2.95099E+03 -3.15120E+03 -2.84100E+01
 -3.12315E+03 -4.77983E+03 -8.66350E+02 -6.64988E+03  3.62740E+03 -7.15994E+03  9.09396E+03 -3.62105E+03
  1.07732E+04  3.81419E+02  8.38284E+03  5.29102E+03  1.64316E+03  7.79907E+03 -4.75951E+03  7.63560E+03
 -6.47089E+03  2.85098E+03 -3.52211E+03 -1.02389E+03  1.36175E+03 -1.54623E+03  4.57309E+03 -9.01613E+02
  3.90408E+03  2.84450E+03  8.07292E+02  6.03803E+03 -4.27614E+03  6.15763E+03 -7.21878E+03  1.98420E+03
 -4.60635E+03 -2.94795E+03  3.59886E+02 -6.23869E+03  3.30493E+03 -2.88457E+03  3.01174E+03  6.73744E+02
  7.94417E+01  2.96803E+03 -3.77084E+03  4.14353E+03 -4.11915E+03  2.03965E+03 -3.82741E+03 -5.35834E+02
 -2.64385E+03 -5.58759E+03  8.68978E+02 -6.36480E+03  5.43412E+03 -4.26247E+03  5.91528E+03  9.57063E+02
  4.36920E+03  4.88419E+03  1.60338E+02  6.68462E+03 -4.67652E+03  3.87035E+03 -4.33655E+03 -3.90059E+02
 -5.42596E+03 -4.74995E+03 -1.26640E+03 -4.65395E+03  2.25651E+03 -4.24804E+03  2.80261E+03 -2.91046E+03
  2.83105E+03  2.22371E+02  7.48156E+01  1.02395E+03  6.29887E+02  9.71392E+00 -1.99388E+02 -1.39656E+03
  3.40970E+03 -5.25950E+02  4.75020E+03  3.47329E+02  4.95659E+03  2.45835E+03  5.09673E+03  6.60962E+03
 -1.16657E+03  7.42963E+03 -6.95323E+03  5.90288E+03 -9.07245E+03  1.03835E+03 -7.06364E+03 -2.17814E+03
 -3.87133E+03 -5.65272E+03 -4.96242E+02 -4.68304E+03  1.87160E+03 -2.13032E+03  1.48501E+03 -1.87956E+03
  1.18900E+03 -1.49608E+03  2.14276E+03 -2.15852E+03  3.41862E+03 -1.35006E+03  3.48361E+03  6.96453E+02
  4.03142E+03  8.14660E+02  1.14816E+03  3.23359E+03 -1.48247E+03  2.54888E+03 -3.84292E+03  2.21424E+03
 -4.07633E+03 -1.03670E+03 -1.33662E+03 -2.94832E+03  5.87454E+02 -4.31729E+03  3.11143E+03 -4.78555E+03
  4.53586E+03 -2.89885E+03  6.31954E+03  6.24496E+01  4.49735E+03  3.71122E+03  1.15483E+03  5.58697E+03
 -1.73565E+03  5.51326E+03 -3.05997E+03  1.67083E+03 -1.57119E+03 -1.18924E+03 -4.13590E+02 -6.04463E+02
 -2.23584E+02  5.57303E+02 -9.99763E+02  1.87270E+03 -2.36807E+03  9.75403E+02 -3.84668E+03  7.54390E+01
 -1.01471E+03 -3.77856E+03  8.61521E+02 -4.28961E+03  2.51033E+03 -4.03049E+03  3.09900E+03 -9.30576E+02
  3.56939E+03  2.13785E+03  1.58812E+03  2.74599E+03 -7.42724E+02  3.97573E+03 -2.20439E+03  2.24257E+03
 -3.53569E+03  6.89392E+02 -3.06614E+03 -2.14860E+03 -3.15941E+02 -2.60734E+03  1.59275E+03 -1.98351E+03
  2.74385E+03 -1.50756E+03  1.58681E+03  4.24147E+02  5.32149E+02  1.57299E+03  9.89612E+02  4.39636E+02
  1.82136E+03  7.05940E+02  8.40289E+02  1.22545E+03  6.67993E+02  1.81110E+03  1.53382E+03  1.48661E+03
 -9.68483E+02  2.69070E+03 -2.16256E+03  3.83734E+03 -2.26806E+03  1.22085E+03 -3.56447E+03 -1.82940E+01
 -1.51834E+03 -3.01392E+03  4.67599E+02 -4.21988E+03  1.71072E+03 -2.36114E+03  2.79869E+03 -9.78350E+02
  2.16587E+03  1.70768E+03  2.30313E+02  2.10878E+03 -6.69739E+02  1.08830E+03 -8.90848E+02 -2.38440E+02
 -5.24492E+02 -1.29640E+03  1.14160E+03 -1.37025E+03  1.19836E+03 -9.52180E+02  1.24825E+03  3.40234E+02
  3.99388E+02  1.65285E+02  8.83970E+02 -3.48561E+02 -2.35224E+02  6.52242E+02  1.62214E+03 -1.81561E+02
 -1.47066E+02 -2.07941E+02  1.51737E+03  4.75653E+02  2.30444E+02  2.23777E+03 -4.11738E+02  2.73795E+03
 -1.54256E+03  6.14660E+02 -1.72009E+03  3.16474E+02 -2.07978E+03 -6.07664E+02 -7.11235E+01 -6.71452E+02
  2.93341E+02 -1.26005E+03  7.05470E+02 -8.10192E+02  4.76175E+02  1.29894E+03 -5.41839E+02  7.31623E+02
 -1.13611E+03  5.64501E+02 -7.99686E+02 -1.35387E+03 -7.71792E+02 -1.94027E+03  6.15529E+01 -1.50480E+03
  3.79348E+02 -2.46058E+02  8.71208E+02  2.88254E+02  1.33232E+03  1.70933E+01  9.57014E+01  1.20557E+03
 -1.68301E+02  1.12941E+01 -9.91528E+02 -1.43796E+02  7.21233E+02 -6.16181E+02  1.32016E+03 -7.56226E+02
  1.16474E+03  2.51445E+02  2.66640E+03  5.99783E+02  1.07661E+03  1.63679E+03 -1.73206E+02  1.63030E+03
 -1.01364E+03  2.83581E+02 -1.04128E+03  1.46622E+02 -8.20361E+02 -1.30975E+03  2.47890E+02 -4.47795E+02
  1.55290E+03 -7.31542E+02  6.98058E+02  6.36367E+02  4.60787E+02  1.05975E+03  7.14377E+01  9.60734E+02
 -1.76917E+02  1.17997E+03 -5.90201E+02  1.02133E+01 -7.44971E+01  4.39525E+02 -8.26469E+02  4.62394E+02
 -5.72244E+02  8.02275E+02 -1.63643E+03  5.76267E+02 -1.73358E+03  2.15997E+02 -2.28673E+03 -8.72504E+02
 -8.89142E+02 -2.00352E+03  5.32619E+02 -2.58811E+03  8.70073E+02 -2.33450E+03  2.91613E+03 -1.10521E+03
  2.12987E+03  2.13712E+01  1.08146E+03  1.46356E+03 -7.15956E+02  1.16995E+03 -6.59534E+02  1.14399E+03
 -7.01813E+02  7.15995E+02 -4.27592E+02 -1.16667E+02 -3.97254E+02  3.21304E+02 -3.00667E+02  2.43952E+01
 -9.53334E+02 -1.49453E+02 -9.36054E+02  1.87617E+02  3.71597E+02 -6.07661E+02 -5.05793E+02 -7.47662E+02
  1.08610E+03 -5.13773E+02  4.94586E+02  3.58204E+02  1.04399E+03  1.08414E+03 -5.72532E+02  1.31468E+03
 -9.43005E+02  2.35883E+03 -1.26341E+03  1.29598E+03 -1.42090E+03 -3.58011E+02 -1.24893E+03 -1.10431E+03
 -8.86433E+02 -1.17361E+03  2.84268E+02 -1.13687E+03  5.74243E+02 -5.20069E+02  5.05373E+02  1.67214E+02
  6.95653E+02  5.30848E+02  3.11333E+02  4.32387E+01 -4.06361E+02  1.48297E+02 -7.09391E+01 -4.01185E+02
  4.65492E+02  9.67170E+01  9.77617E+01  3.75206E+02  2.29153E+02  5.32777E+02  6.30581E+02  2.57771E+02
 -3.95381E+02  6.60299E+02 -6.47729E+02  1.18302E+02 -8.10527E+02 -3.25801E+02 -1.12907E+02 -1.11628E+03
  4.70987E+02 -5.34138E+02  4.53274E+02 -1.31527E+01  9.48765E+02 -5.73166E+02  4.47977E+02  7.32998E+02
  5.19592E+02  4.68824E+02 -4.30416E+02  5.28209E+02 -5.83090E+02  5.66997E+02 -3.48872E+02  2.61623E+02
  5.01652E+01 -8.75700E+01 -3.50924E+02 -2.32318E+01 -3.90328E+02  1.58617E+02 -6.63376E+02 -1.45050E+02
 -1.18972E+03  4.32097E+02 -5.58711E+02 -7.54699E+02  8.29974E+02 -1.41291E+03  3.88795E+02  1.34863E+01
  4.80877E+02  1.73092E+02 -2.84156E+02  1.25167E+02  1.11528E+02  8.41733E+02 -3.50661E+02  9.15905E+02
