 $NMID ID='MM_0lb_SNR800_17hz_g45_21.RAW', FMTDAT='(8E13.5)'
 TRAMP=1., VOLUME=1. $END
  3.09741E+05  3.08769E+02  3.37227E+05  2.50590E+05  8.45537E+04  3.37446E+05 -1.32459E+05  2.50453E+05
 -1.90041E+05  8.24645E+04 -1.11285E+05 -3.29336E+04  1.61951E+03 -5.00256E+04  5.35888E+04  1.47962E+02
  3.51146E+04  5.26510E+04 -1.70685E+04  7.53368E+04 -6.03796E+04  6.30066E+04 -8.33119E+04  3.16647E+04
 -7.99847E+04 -1.13343E+04 -5.64019E+04 -5.02224E+04 -1.51993E+04 -6.88539E+04  2.68940E+04 -4.52686E+04
  3.91864E+04  3.79946E+03  1.57319E+04  4.73668E+04 -3.41043E+04  4.65089E+04 -6.52635E+04 -5.72948E+02
 -5.25729E+04 -5.60785E+04 -6.50723E+03 -7.56972E+04  3.32943E+04 -5.35505E+04  4.68810E+04 -1.66927E+04
  4.20640E+04  1.12331E+04  3.08225E+04  2.46411E+04  1.59919E+04  2.85201E+04 -4.79044E+03  2.67396E+04
 -2.19917E+04  1.27658E+04 -1.89693E+04 -4.33102E+03  4.20153E+03 -7.47321E+03  2.18098E+04  1.14416E+04
  7.26526E+03  3.38121E+04 -3.08381E+04  3.40786E+04 -6.15370E+04  2.02302E+03 -5.55915E+04 -4.17283E+04
 -1.24183E+04 -6.12301E+04  3.83516E+04 -4.38228E+04  5.59130E+04 -2.03102E+03  3.26982E+04  3.09930E+04
 -6.53062E+03  3.38251E+04 -2.87266E+04  1.40479E+04 -2.83969E+04 -5.02577E+03 -1.53724E+04 -1.03583E+04
 -7.58646E+03 -1.19413E+04 -1.09665E+03 -1.71500E+04  6.86319E+03 -2.25848E+04  1.49261E+04 -1.36395E+04
  1.20896E+04  4.86683E+03 -6.65673E+03  1.29487E+04 -1.97880E+04 -2.93898E+03 -8.10645E+03 -3.15030E+04
  2.10321E+04 -4.11599E+04  4.58029E+04 -1.91172E+04  4.27785E+04  1.86347E+04  1.43953E+04  4.24022E+04
 -1.54866E+04  3.17498E+04 -2.38078E+04  1.44375E+03 -8.51933E+03 -2.69675E+04  2.04097E+04 -3.19954E+04
  3.88565E+04 -7.62566E+03  3.26612E+04  2.27957E+04  1.58183E+04  4.38854E+04 -7.75483E+03  4.64368E+04
 -2.92287E+04  3.08816E+04 -3.85756E+04  8.78545E+03 -3.95433E+04 -1.54556E+04 -2.21410E+04 -3.54695E+04
  7.00793E+03 -3.48967E+04  2.99973E+04 -1.32540E+04  2.71863E+04  1.06696E+04  3.11301E+03  1.82370E+04
 -1.34639E+04  7.60508E+03 -9.69832E+03 -7.64267E+03  6.04463E+03 -1.01974E+04  1.74742E+04  6.42784E+03
  1.25928E+04  2.17231E+04 -6.68660E+03  2.38196E+04 -2.15951E+04  9.79987E+03 -2.58540E+04 -6.09778E+03
 -1.78346E+04 -1.68652E+04 -6.35263E+03 -1.75806E+04  3.81618E+03 -1.59292E+04  1.32562E+04 -1.55201E+04
  2.25735E+04 -1.17089E+04  2.90118E+04  1.33498E+03  2.18519E+04  1.71286E+04  4.05161E+03  3.32776E+04
 -1.63755E+04  2.83354E+04 -2.63297E+04  9.45545E+03 -2.00394E+04 -1.00194E+04 -3.90240E+03 -1.38355E+04
  2.31416E+03 -3.72963E+03 -3.22369E+03  5.75982E+03 -1.37149E+04  5.19378E+03 -1.39784E+04 -5.54781E+03
 -8.83554E+03 -1.61700E+04  4.81085E+03 -2.00957E+04  1.32527E+04 -1.45685E+04  1.52927E+04 -1.48740E+03
  9.48114E+03  1.13634E+04 -6.35787E+02  1.65934E+04 -1.10717E+04  9.21014E+03 -1.63861E+04 -3.75830E+03
 -1.21296E+04 -1.50593E+04 -1.39655E+03 -2.00473E+04  9.03284E+03 -1.60492E+04  1.68245E+04 -7.79387E+03
  1.54167E+04  4.42003E+02  1.10668E+04  3.92453E+03  5.59334E+03  6.91182E+02  8.10198E+03 -1.34898E+03
  1.45280E+04  2.69811E+03  1.58542E+04  1.33795E+04  1.01410E+04  2.61223E+04 -2.98762E+03  2.85825E+04
 -1.67569E+04  2.23113E+04 -2.64883E+04  1.08047E+04 -2.71290E+04 -2.01525E+03 -2.27490E+04 -1.55252E+04
 -1.08387E+04 -2.23225E+04  7.78139E+03 -2.04955E+04  1.77211E+04 -1.12287E+04  1.65058E+04  4.01574E+03
  6.41522E+03  1.18327E+04 -7.36340E+03  1.11712E+04 -1.41198E+04  2.42793E+03 -1.06855E+04 -8.45886E+03
 -3.95732E+01 -1.31559E+04  6.91282E+03 -1.01746E+04  8.53688E+03 -1.33371E+03  1.75908E+03  5.35715E+03
 -5.87819E+03  1.49122E+03 -4.40808E+03 -4.87342E+03  3.41431E+02 -1.09223E+04  8.16285E+03 -1.11495E+04
  1.33298E+04 -5.41984E+03  1.32352E+04  2.77594E+03  1.18937E+04  1.02734E+04  5.31642E+03  1.56302E+04
 -1.92485E+03  1.74023E+04 -1.08692E+04  1.08910E+04 -1.24663E+04  3.19520E+03 -9.18974E+03 -2.04662E+03
 -4.65523E+03 -3.73549E+03 -7.10740E+02  1.37658E+03 -2.37318E+03  2.14911E+03 -4.23525E+03  3.67117E+03
 -8.58726E+03 -5.12053E+02 -9.50234E+03 -7.63634E+03 -4.00939E+03 -1.24159E+04  3.87045E+03 -9.48933E+03
  7.73887E+03 -4.10368E+03  5.64213E+03  2.64167E+03  4.24870E+02  3.34490E+03 -3.79417E+03 -2.30718E+02
 -4.22943E+03 -5.67555E+03 -6.77954E+02 -8.28921E+03  4.60784E+03 -8.52851E+03  1.07617E+04 -4.68661E+03
  1.32011E+04  5.82951E+02  9.63453E+03  7.15630E+03  1.96956E+03  9.81104E+03 -5.85032E+03  8.86037E+03
 -7.50551E+03  2.70517E+03 -3.81234E+03 -1.73736E+03  1.28305E+03 -2.22687E+03  5.11673E+03 -9.35731E+02
  4.06561E+03  3.66529E+03  8.68275E+02  7.09664E+03 -4.92379E+03  7.11390E+03 -8.61602E+03  2.11349E+03
 -5.50847E+03 -4.05968E+03  1.09007E+02 -7.49015E+03  4.03684E+03 -3.75516E+03  4.07741E+03  1.05773E+03
  7.17176E+02  3.83321E+03 -4.50097E+03  5.34340E+03 -5.88444E+03  2.40670E+03 -5.54193E+03 -1.60318E+03
 -3.53413E+03 -6.93980E+03  1.58052E+03 -8.09970E+03  7.01304E+03 -5.09692E+03  7.34242E+03  1.01861E+03
  5.31780E+03  6.19047E+03 -1.11120E+02  7.84933E+03 -5.66702E+03  4.89201E+03 -5.85229E+03 -6.58484E+02
 -6.11609E+03 -5.58617E+03 -1.60390E+03 -5.90277E+03  2.67322E+03 -5.15743E+03  3.69169E+03 -2.90027E+03
  3.31658E+03  3.68346E+02  6.31702E+01  1.12209E+03  3.35763E+02 -4.48341E+02  4.80791E+02 -2.33789E+03
  4.57612E+03 -1.21350E+03  6.09762E+03  8.01841E+02  6.69924E+03  3.81492E+03  5.84794E+03  8.07921E+03
 -1.56027E+03  9.90559E+03 -8.72037E+03  7.37354E+03 -1.11754E+04  1.37922E+03 -8.73612E+03 -3.34220E+03
 -4.94955E+03 -7.65974E+03 -4.45170E+02 -5.79457E+03  2.47608E+03 -2.60467E+03  2.15844E+03 -2.58233E+03
  1.45085E+03 -1.75417E+03  2.42503E+03 -2.50849E+03  3.30863E+03 -1.45520E+03  3.83532E+03  2.26438E+02
  5.48484E+03  1.40860E+03  1.48492E+03  3.94696E+03 -1.67915E+03  3.66089E+03 -5.01183E+03  3.16155E+03
 -5.63093E+03 -1.10968E+03 -2.53318E+03 -3.82832E+03  2.97595E+02 -6.01148E+03  3.57425E+03 -6.19185E+03
  6.06789E+03 -3.90514E+03  7.95804E+03  3.62340E+02  5.94494E+03  5.26360E+03  1.36619E+03  7.05965E+03
 -2.38693E+03  6.62918E+03 -4.04063E+03  2.19243E+03 -2.34205E+03 -9.62323E+02 -7.23647E+02 -9.39183E+02
 -7.29815E+02  5.05410E+02 -1.06850E+03  2.34378E+03 -2.55685E+03  1.16652E+03 -4.49551E+03 -5.35847E+02
 -1.75688E+03 -4.81396E+03  7.48453E+02 -5.80114E+03  3.37162E+03 -5.08200E+03  4.59506E+03 -1.53095E+03
  4.81752E+03  2.95060E+03  2.47838E+03  4.19484E+03 -1.02285E+03  5.44418E+03 -3.39659E+03  3.28564E+03
 -4.59753E+03  3.49504E+02 -3.98663E+03 -2.78519E+03 -1.70336E+02 -3.72673E+03  1.79112E+03 -3.15106E+03
  3.61243E+03 -1.50952E+03  2.43247E+03  7.07427E+02  6.94316E+02  2.10548E+03  8.39188E+02  5.90344E+02
  1.77643E+03  6.05540E+02  1.12238E+03  1.23498E+03  1.42836E+03  2.51365E+03  1.83974E+03  2.32086E+03
 -1.34597E+03  3.44714E+03 -2.90834E+03  4.53264E+03 -4.11909E+03  1.56905E+03 -5.20731E+03 -1.01970E+03
 -2.14363E+03 -4.73018E+03  8.03507E+02 -5.51932E+03  2.54968E+03 -3.07418E+03  3.89170E+03 -9.65592E+02
  3.05703E+03  2.17120E+03  4.19912E+02  2.73867E+03 -8.65596E+02  1.30016E+03 -1.29079E+03 -1.66918E+02
 -1.06222E+03 -2.02402E+03  1.24215E+03 -1.91999E+03  1.70375E+03 -1.00945E+03  1.68436E+03  3.01599E+02
  1.04326E+03  3.40843E+02  8.36466E+02  1.68224E+02 -1.17226E+02  9.80710E+02  1.67688E+03 -2.28398E+02
 -1.57652E+02 -7.23755E+01  2.05028E+03  6.20890E+02  5.43224E+02  2.83581E+03 -5.25016E+02  3.72257E+03
 -2.02865E+03  1.70931E+03 -2.66475E+03  5.20994E+02 -2.90567E+03 -9.38008E+02 -2.72975E+02 -1.37663E+03
  4.65960E+02 -1.34215E+03  1.30294E+03 -8.58827E+02  9.05071E+02  1.67731E+03 -7.15619E+02  1.64880E+03
 -1.81629E+03  8.10494E+02 -1.55729E+03 -1.73016E+03 -9.68989E+02 -2.41527E+03  3.93035E+02 -2.23376E+03
  6.18289E+02 -9.11148E+02  1.28977E+03  9.25428E+01  1.63276E+03  4.69095E+01  1.24293E+02  1.40774E+03
 -4.81098E+02  1.37236E+02 -1.04696E+03 -4.78760E+02  8.25005E+02 -1.22226E+03  2.05980E+03 -1.29173E+03
  1.93998E+03  1.67123E+02  3.01484E+03  1.37356E+03  1.25782E+03  2.18345E+03 -6.72304E+02  2.47295E+03
 -2.03132E+03  3.62988E+02 -1.93137E+03 -2.99165E+02 -1.06502E+03 -1.81548E+03  2.78889E+02 -8.50927E+02
  1.65056E+03 -9.81564E+02  1.10574E+03  7.37240E+02  5.07899E+02  1.42853E+03  1.92444E+02  1.44146E+03
 -3.94239E+02  1.29640E+03 -3.14923E+02  2.26418E+02  1.67977E+02  4.93695E+02 -8.04551E+02  7.98836E+02
 -9.34276E+02  1.17041E+03 -1.88820E+03  8.19623E+02 -2.17583E+03  1.73659E+02 -3.10812E+03 -1.74083E+03
 -1.30915E+03 -3.00156E+03  7.90515E+02 -3.95174E+03  1.52031E+03 -3.01921E+03  3.75147E+03 -1.12524E+03
  3.25942E+03  4.41106E+01  1.53770E+03  1.87129E+03 -5.05196E+02  2.01439E+03 -1.15349E+03  1.63209E+03
 -1.13495E+03  7.56326E+02 -9.66145E+02 -3.83374E+02 -4.40282E+02 -1.64305E+02 -6.43978E+02  9.02814E+01
 -1.22573E+03 -6.11542E+00 -9.29007E+02  8.29854E+01  2.88486E+02 -8.73597E+02 -1.03984E+02 -1.27188E+03
  1.24614E+03 -5.45019E+02  6.36474E+02  1.62301E+02  1.64219E+03  1.41206E+03 -1.87156E+02  1.98332E+03
 -1.07606E+03  2.75622E+03 -2.03842E+03  1.64800E+03 -2.41807E+03  1.85979E+02 -1.85810E+03 -1.48740E+03
 -1.18480E+03 -1.87489E+03  4.79813E+02 -1.52046E+03  8.81169E+02 -6.90279E+02  1.22400E+03 -1.95016E+02
  8.30238E+02  3.97059E+02 -4.44784E+01  7.26204E+02 -4.32299E+02  1.89643E+02 -1.76868E+02 -3.25852E+02
  5.79957E+02  2.88718E+02  5.16669E+02  2.76369E+02  3.26325E+01  5.72332E+02  5.98288E+02  6.96885E+02
 -9.77533E+02  9.64120E+02 -9.57812E+02  2.14446E+02 -1.16217E+03 -7.21201E+02 -2.13179E+02 -1.63645E+03
  5.67322E+02 -9.61804E+02  1.01589E+03 -2.82988E+02  1.66746E+03 -4.69131E+01  6.71947E+02  1.05587E+03
  5.95650E+02  8.60584E+02 -3.82798E+02  1.00946E+03 -7.72102E+02  8.70144E+02 -4.92924E+02 -1.81417E+01
 -2.87837E+02  1.04155E+02 -6.29407E+02  1.61786E+02 -6.94383E+02  2.69428E+02 -1.22218E+03 -5.29731E+02
 -1.22756E+03  1.77322E+01 -2.83968E+02 -1.45664E+03  7.29696E+02 -2.08704E+03  9.86296E+02 -4.23055E+02
  1.16162E+03  2.59649E+02  5.84446E+01  4.24552E+02 -2.45190E+02  1.16233E+03 -8.50185E+02  1.05679E+03
