 $NMID ID='MM_0lb_SNR800_9hz_g40_96.RAW', FMTDAT='(8E13.5)'
 TRAMP=1., VOLUME=1. $END
  3.10036E+05  2.76692E+02  3.37911E+05  2.50589E+05  8.46001E+04  3.38090E+05 -1.32720E+05  2.51428E+05
 -1.90897E+05  8.34443E+04 -1.12258E+05 -3.22552E+04  4.51876E+02 -5.08191E+04  5.36389E+04 -7.49884E+02
  3.55141E+04  5.31885E+04 -1.66911E+04  7.61497E+04 -6.09483E+04  6.39014E+04 -8.46858E+04  3.23892E+04
 -8.20530E+04 -1.16444E+04 -5.82217E+04 -5.25367E+04 -1.51245E+04 -7.04910E+04  2.85666E+04 -4.66984E+04
  4.06628E+04  3.96524E+03  1.68713E+04  4.84100E+04 -3.45298E+04  4.83569E+04 -6.78655E+04 -5.24207E+01
 -5.48131E+04 -5.76813E+04 -7.08851E+03 -7.86225E+04  3.47745E+04 -5.62563E+04  4.93288E+04 -1.85116E+04
  4.47055E+04  1.13206E+04  3.24468E+04  2.62346E+04  1.64007E+04  3.04187E+04 -6.01501E+03  2.78072E+04
 -2.19910E+04  1.20038E+04 -1.79917E+04 -5.67371E+03  6.80293E+03 -6.88767E+03  2.31034E+04  1.32896E+04
  7.31336E+03  3.66931E+04 -3.30553E+04  3.65674E+04 -6.53222E+04  2.35689E+03 -5.84616E+04 -4.42918E+04
 -1.28287E+04 -6.50952E+04  4.16930E+04 -4.73708E+04  6.06357E+04 -2.53781E+03  3.61360E+04  3.44969E+04
 -6.17070E+03  3.86237E+04 -3.08932E+04  1.82069E+04 -3.27920E+04 -4.15185E+03 -1.89292E+04 -1.15901E+04
 -9.50081E+03 -1.48456E+04 -2.73144E+02 -1.92587E+04  8.49488E+03 -2.33332E+04  1.57439E+04 -1.27499E+04
  1.05816E+04  5.77982E+03 -9.83557E+03  1.26477E+04 -2.35729E+04 -6.08149E+03 -8.35859E+03 -3.66796E+04
  2.47209E+04 -4.62478E+04  5.10540E+04 -2.05001E+04  4.78902E+04  2.06292E+04  1.66605E+04  4.66886E+04
 -1.65948E+04  3.53906E+04 -2.74558E+04  2.87353E+03 -1.14177E+04 -2.89148E+04  2.09509E+04 -3.63996E+04
  4.40606E+04 -1.07326E+04  3.95712E+04  2.49536E+04  2.09131E+04  5.02488E+04 -8.35073E+03  5.48317E+04
 -3.46931E+04  3.75303E+04 -4.62176E+04  1.09996E+04 -4.66846E+04 -1.80777E+04 -2.56738E+04 -4.11169E+04
  7.68613E+03 -4.11303E+04  3.36445E+04 -1.64667E+04  3.15407E+04  1.14566E+04  5.28387E+03  2.06222E+04
 -1.38352E+04  9.23753E+03 -1.10161E+04 -7.58069E+03  5.37718E+03 -1.15117E+04  1.78964E+04  5.34789E+03
  1.48166E+04  2.26609E+04 -4.97077E+03  2.68031E+04 -2.32975E+04  1.36875E+04 -3.12335E+04 -3.26479E+03
 -2.45677E+04 -1.81743E+04 -1.05873E+04 -2.41621E+04  4.22960E+03 -2.44044E+04  1.90281E+04 -2.17857E+04
  3.10936E+04 -1.39804E+04  3.70741E+04  4.72630E+03  2.65213E+04  2.35290E+04  4.12203E+03  4.04396E+04
 -1.94807E+04  3.32284E+04 -3.02079E+04  1.17160E+04 -2.23572E+04 -1.05576E+04 -4.92680E+03 -1.30614E+04
  9.36192E+02 -1.30229E+03 -7.29168E+03  7.74827E+03 -1.95164E+04  5.16263E+03 -1.93163E+04 -9.21770E+03
 -1.17785E+04 -2.26476E+04  5.96410E+03 -2.75225E+04  1.77801E+04 -1.92455E+04  2.17372E+04 -2.02142E+03
  1.41188E+04  1.55179E+04 -1.59656E+03  2.26360E+04 -1.56964E+04  1.31955E+04 -2.29591E+04 -4.62364E+03
 -1.66288E+04 -2.03981E+04 -2.25936E+03 -2.70801E+04  1.20470E+04 -2.26976E+04  2.25019E+04 -1.18459E+04
  2.11620E+04 -3.21178E+02  1.54357E+04  5.26600E+03  8.31394E+03  1.33555E+03  1.17717E+04 -2.32158E+03
  2.09632E+04  2.84713E+03  2.48117E+04  1.74463E+04  1.63593E+04  3.63296E+04 -2.88766E+03  4.26228E+04
 -2.39625E+04  3.55210E+04 -4.00040E+04  1.83506E+04 -4.25776E+04 -2.80594E+03 -3.44313E+04 -2.47467E+04
 -1.40098E+04 -3.53083E+04  1.27362E+04 -3.13879E+04  2.65803E+04 -1.50985E+04  2.29499E+04  7.68018E+03
  8.06578E+03  1.78862E+04 -1.13469E+04  1.50135E+04 -1.95083E+04  2.36368E+03 -1.46921E+04 -1.23198E+04
 -5.36620E+02 -1.85209E+04  1.02125E+04 -1.33978E+04  1.26829E+04 -1.38474E+03  3.43622E+03  8.23347E+03
 -7.97511E+03  4.30817E+03 -8.37038E+03 -6.64740E+03 -1.19596E+03 -1.72900E+04  1.14932E+04 -1.88110E+04
  2.20139E+04 -1.07982E+04  2.49942E+04  3.21320E+03  2.17703E+04  1.80059E+04  9.77461E+03  2.74743E+04
 -5.21906E+03  2.95142E+04 -1.93410E+04  1.82643E+04 -2.10804E+04  3.96352E+03 -1.49261E+04 -5.25518E+03
 -6.46413E+03 -6.83799E+03 -1.50926E+02  2.49986E+02 -2.81981E+03  3.28944E+03 -6.84918E+03  5.62151E+03
 -1.37476E+04 -9.93399E+02 -1.42995E+04 -1.13758E+04 -5.71346E+03 -1.84615E+04  5.99495E+03 -1.48975E+04
  1.21513E+04 -5.88496E+03  8.82950E+03  4.17559E+03  9.97454E+00  6.00593E+03 -7.71594E+03 -2.79785E+02
 -7.04315E+03 -9.34746E+03 -1.15105E+03 -1.48997E+04  8.64709E+03 -1.59391E+04  1.90837E+04 -8.79087E+03
  2.24485E+04  2.12585E+03  1.64508E+04  1.37359E+04  3.13153E+03  1.82771E+04 -9.29101E+03  1.50560E+04
 -1.25258E+04  4.34136E+03 -6.23159E+03 -3.58743E+03  2.41438E+03 -4.34842E+03  8.01740E+03 -1.07235E+03
  7.21293E+03  6.57171E+03  1.12561E+03  1.22148E+04 -8.73581E+03  1.14157E+04 -1.50178E+04  2.58141E+03
 -1.04938E+04 -7.63937E+03  1.76370E+02 -1.28803E+04  8.27345E+03 -6.54881E+03  8.70590E+03  3.07370E+03
  1.77403E+03  9.63843E+03 -7.63706E+03  1.14163E+04 -1.25742E+04  5.02962E+03 -1.33193E+04 -4.83086E+03
 -7.61458E+03 -1.45315E+04  3.55329E+03 -1.68559E+04  1.46206E+04 -1.03598E+04  1.58899E+04  2.86973E+03
  9.54751E+03  1.24072E+04 -1.47728E+03  1.52158E+04 -1.13043E+04  8.14963E+03 -1.22902E+04 -1.48994E+03
 -1.05745E+04 -9.71895E+03 -1.92264E+03 -1.14848E+04  5.92167E+03 -9.28118E+03  7.20201E+03 -3.34682E+03
  4.76863E+03  1.89021E+03 -1.05892E+03  2.13777E+03 -7.13990E+02 -3.52708E+03  2.28930E+03 -7.05286E+03
  1.10648E+04 -4.84819E+03  1.49977E+04  1.92874E+03  1.49819E+04  1.01104E+04  1.00261E+04  1.93831E+04
 -4.80395E+03  2.25011E+04 -1.89620E+04  1.68042E+04 -2.46713E+04  3.06928E+03 -2.00009E+04 -8.39186E+03
 -9.65664E+03 -1.62104E+04 -6.54431E+02 -1.36791E+04  5.12491E+03 -8.50356E+03  5.36825E+03 -5.14959E+03
  3.60032E+03 -2.30333E+03  3.69666E+03 -3.81893E+03  5.78334E+03 -3.13500E+03  7.81894E+03 -1.54291E+03
  1.02144E+04  2.58691E+03  5.38300E+03  8.86757E+03 -2.24539E+03  1.05280E+04 -1.08777E+04  8.25477E+03
 -1.34881E+04 -1.11615E+03 -8.99272E+03 -9.50630E+03 -1.05330E+03 -1.49904E+04  8.36019E+03 -1.46703E+04
  1.57166E+04 -8.33520E+03  1.85411E+04  2.15630E+03  1.29698E+04  1.29636E+04  1.60397E+03  1.68366E+04
 -6.80416E+03  1.42457E+04 -9.88119E+03  5.02838E+03 -6.30096E+03 -1.56794E+03 -2.73098E+03 -1.99037E+03
 -1.46685E+03 -2.37214E+02 -2.02131E+03  3.10711E+03 -5.86317E+03  2.36475E+03 -9.76816E+03 -1.65033E+03
 -6.84905E+03 -9.54115E+03 -1.80016E+02 -1.38326E+04  8.24882E+03 -1.27277E+04  1.35730E+04 -3.73127E+03
  1.38218E+04  7.14057E+03  6.40322E+03  1.20403E+04 -2.67414E+03  1.39170E+04 -9.85137E+03  8.88681E+03
 -1.29958E+04  6.68471E+02 -1.01296E+04 -8.83477E+03 -1.33259E+03 -1.17831E+04  5.86693E+03 -8.00412E+03
  8.92584E+03 -3.08309E+03  5.99189E+03  2.55565E+03  2.16635E+03  3.84118E+03  9.13129E+02  1.89938E+03
  3.03673E+03  1.10061E+03  3.60990E+03  1.76991E+03  4.02582E+03  4.59859E+03  3.21724E+03  7.67396E+03
 -2.72549E+03  1.10778E+04 -1.00148E+04  1.11110E+04 -1.45659E+04  2.42728E+03 -1.48908E+04 -5.41194E+03
 -6.85936E+03 -1.39642E+04  1.90943E+03 -1.55953E+04  9.09451E+03 -9.81939E+03  1.20310E+04 -2.69327E+03
  8.71156E+03  5.61291E+03  2.20483E+03  8.41199E+03 -3.83705E+03  4.94864E+03 -5.67864E+03 -1.01558E+03
 -2.75011E+03 -5.80294E+03  3.58135E+03 -6.26277E+03  5.57603E+03 -2.91060E+03  5.51638E+03  1.19256E+03
  3.31288E+03  2.77709E+03  1.94632E+03  2.37390E+03 -8.10234E+02  2.19409E+03  1.78233E+03 -6.81049E+02
  2.12331E+03 -8.70488E+02  5.81153E+03  2.25860E+03  3.17110E+03  7.89216E+03 -9.52148E+02  9.94649E+03
 -7.00676E+03  6.53690E+03 -9.15552E+03  1.59608E+03 -8.50388E+03 -3.25456E+03 -2.99992E+03 -5.63127E+03
  9.94508E+02 -5.82312E+03  3.74220E+03 -2.61040E+03  2.95223E+03  2.72783E+03 -1.46806E+03  4.21269E+03
 -5.56519E+03  2.94637E+03 -6.86980E+03 -3.32259E+03 -4.08781E+03 -7.39807E+03  1.15514E+03 -8.07855E+03
  4.94040E+03 -4.58372E+03  5.69826E+03 -4.98999E+02  5.03797E+03  2.27613E+03  7.73148E+02  4.21239E+03
 -3.04422E+03  1.38330E+03 -3.70580E+03 -2.56952E+03  1.20265E+03 -6.20397E+03  7.26511E+03 -5.13621E+03
  9.03018E+03  8.05803E+02  9.10080E+03  6.22583E+03  3.13281E+03  9.39397E+03 -2.97937E+03  9.03209E+03
 -7.86679E+03  3.99904E+03 -7.92686E+03 -1.27655E+03 -4.49121E+03 -5.85347E+03  1.13008E+03 -5.65549E+03
  6.04697E+03 -2.93890E+03  5.18214E+03  2.64310E+03  1.54801E+03  5.15613E+03 -8.82015E+02  4.42544E+03
 -2.48734E+03  2.80196E+03 -2.41564E+03  1.26793E+03 -9.78680E+02  9.46958E+02 -1.43820E+03  1.97904E+03
 -2.33912E+03  3.59774E+03 -6.24671E+03  3.35048E+03 -9.57549E+03  9.68179E+01 -1.08303E+04 -6.38780E+03
 -5.54899E+03 -1.28288E+04  2.37822E+03 -1.42113E+04  9.01081E+03 -1.16389E+04  1.39542E+04 -3.99474E+03
  1.27048E+04  2.73551E+03  8.14646E+03  8.83362E+03  6.37274E+02  9.78003E+03 -4.15864E+03  7.62519E+03
 -5.62462E+03  2.87319E+03 -3.43428E+03 -1.15957E+03 -1.42442E+03 -5.51068E+02 -8.57364E+02 -3.06891E+02
 -1.71012E+03  2.08659E+02 -2.17696E+03 -4.64933E+02 -8.88814E+02 -2.27398E+03  2.25787E+02 -3.74777E+03
  4.43045E+03 -3.32587E+03  6.23039E+03  7.57528E+01  6.50038E+03  5.42853E+03  1.76379E+03  9.60135E+03
 -4.35375E+03  1.10428E+04 -1.01768E+04  6.13338E+03 -1.18242E+04 -1.00766E+03 -9.15850E+03 -7.44366E+03
 -3.68111E+03 -1.02010E+04  2.90728E+03 -9.67027E+03  6.41715E+03 -4.94498E+03  6.53261E+03  4.99879E+02
  3.90070E+03  3.32175E+03 -5.47506E+02  2.88703E+03 -1.85812E+03 -6.73612E+01 -2.05512E+00 -2.93655E+03
  3.25582E+03 -1.47025E+03  3.86991E+03  9.58358E+02  2.75045E+03  3.68449E+03  3.56445E+02  4.94118E+03
 -4.34758E+03  4.43955E+03 -6.74597E+03  2.97012E+02 -5.37235E+03 -4.53768E+03 -1.13892E+03 -7.99472E+03
  4.89995E+03 -7.16356E+03  7.41883E+03 -1.94542E+03  7.68251E+03  1.99946E+03  4.31621E+03  5.72419E+03
  1.15606E+03  6.50099E+03 -2.61604E+03  5.58100E+03 -4.21731E+03  2.80386E+03 -3.95214E+03  4.03871E+02
 -1.79095E+03 -5.41982E+00 -2.05269E+03  1.26822E+03 -3.16953E+03  1.14284E+03 -5.21317E+03 -7.61424E+02
 -4.93921E+03 -3.30778E+03 -1.49432E+03 -6.68231E+03  3.29429E+03 -7.06905E+03  5.93031E+03 -3.21939E+03
  6.62827E+03  8.15085E+02  3.47497E+03  4.88414E+03 -7.05106E+02  6.21990E+03 -4.94254E+03  4.05209E+03
