 $NMID ID='MM_0lb_SNR800_17hz_g40_79.RAW', FMTDAT='(8E13.5)'
 TRAMP=1., VOLUME=1. $END
  3.09998E+05  3.65205E+02  3.36966E+05  2.50632E+05  8.42638E+04  3.37514E+05 -1.32352E+05  2.50035E+05
 -1.89605E+05  8.25160E+04 -1.11329E+05 -3.28611E+04  1.80102E+03 -5.04674E+04  5.39132E+04  2.53732E+02
  3.52461E+04  5.25429E+04 -1.69129E+04  7.46822E+04 -6.04696E+04  6.25624E+04 -8.28115E+04  3.13294E+04
 -7.98835E+04 -1.09431E+04 -5.65532E+04 -5.00746E+04 -1.49754E+04 -6.82116E+04  2.65755E+04 -4.51251E+04
  3.91178E+04  3.93708E+03  1.57971E+04  4.70780E+04 -3.39766E+04  4.60211E+04 -6.54840E+04 -9.17856E+02
 -5.20985E+04 -5.59442E+04 -6.18085E+03 -7.52321E+04  3.33160E+04 -5.32716E+04  4.63996E+04 -1.59369E+04
  4.18329E+04  1.09344E+04  3.07394E+04  2.44482E+04  1.57195E+04  2.83288E+04 -4.62123E+03  2.68002E+04
 -2.15189E+04  1.27648E+04 -1.90722E+04 -4.30586E+03  4.43950E+03 -7.52000E+03  2.13709E+04  1.10383E+04
  7.68761E+03  3.34860E+04 -3.09354E+04  3.41728E+04 -6.12784E+04  2.05480E+03 -5.58094E+04 -4.13364E+04
 -1.23856E+04 -6.10433E+04  3.85701E+04 -4.36137E+04  5.56218E+04 -2.13649E+03  3.21078E+04  3.09419E+04
 -6.38500E+03  3.35815E+04 -2.83406E+04  1.37531E+04 -2.78002E+04 -5.30038E+03 -1.44793E+04 -1.00698E+04
 -7.31195E+03 -1.15018E+04 -8.16784E+02 -1.70151E+04  6.70277E+03 -2.23949E+04  1.50279E+04 -1.38783E+04
  1.19569E+04  4.22583E+03 -6.83369E+03  1.29971E+04 -1.97522E+04 -2.49517E+03 -7.78277E+03 -3.04701E+04
  2.09815E+04 -4.09413E+04  4.51059E+04 -1.86374E+04  4.24809E+04  1.86254E+04  1.46462E+04  4.18469E+04
 -1.55900E+04  3.13039E+04 -2.38540E+04  1.13890E+03 -8.20223E+03 -2.65880E+04  2.06078E+04 -3.17418E+04
  3.82650E+04 -7.53845E+03  3.19294E+04  2.29655E+04  1.52454E+04  4.30385E+04 -7.89840E+03  4.56108E+04
 -2.87904E+04  3.03970E+04 -3.78482E+04  8.44840E+03 -3.91587E+04 -1.49807E+04 -2.13650E+04 -3.48241E+04
  6.98892E+03 -3.46470E+04  2.94703E+04 -1.28351E+04  2.71009E+04  1.03561E+04  3.06264E+03  1.81186E+04
 -1.32264E+04  7.44563E+03 -9.86384E+03 -7.39562E+03  5.99224E+03 -1.01254E+04  1.73836E+04  6.48902E+03
  1.23969E+04  2.15876E+04 -6.30829E+03  2.35845E+04 -2.15997E+04  9.79355E+03 -2.52345E+04 -6.27183E+03
 -1.71665E+04 -1.67927E+04 -6.19128E+03 -1.72240E+04  3.56129E+03 -1.54437E+04  1.30670E+04 -1.50271E+04
  2.19275E+04 -1.16764E+04  2.86398E+04  1.35889E+03  2.14353E+04  1.66322E+04  3.95509E+03  3.29437E+04
 -1.60879E+04  2.78385E+04 -2.63956E+04  9.34445E+03 -1.99665E+04 -1.05458E+04 -3.66314E+03 -1.39809E+04
  2.52998E+03 -4.00635E+03 -3.08653E+03  5.75197E+03 -1.35373E+04  5.30939E+03 -1.40540E+04 -5.25521E+03
 -8.88126E+03 -1.58508E+04  4.50852E+03 -1.97816E+04  1.30055E+04 -1.46235E+04  1.49701E+04 -1.45533E+03
  9.42442E+03  1.10191E+04 -7.68635E+02  1.60812E+04 -1.07898E+04  9.13908E+03 -1.58513E+04 -3.58039E+03
 -1.19142E+04 -1.46694E+04 -1.38461E+03 -1.95476E+04  8.86809E+03 -1.58229E+04  1.63425E+04 -7.37295E+03
  1.48973E+04  4.89418E+02  1.08264E+04  3.86485E+03  5.36679E+03  7.30037E+02  7.82169E+03 -1.50295E+03
  1.43474E+04  2.55632E+03  1.54956E+04  1.31565E+04  9.84346E+03  2.51915E+04 -2.97688E+03  2.79434E+04
 -1.62535E+04  2.13218E+04 -2.52809E+04  1.01960E+04 -2.61360E+04 -1.76165E+03 -2.24258E+04 -1.52908E+04
 -1.03764E+04 -2.11728E+04  7.33098E+03 -1.97705E+04  1.75162E+04 -1.11341E+04  1.62041E+04  4.16061E+03
  6.54963E+03  1.15069E+04 -7.47113E+03  1.07257E+04 -1.36212E+04  2.71808E+03 -1.06166E+04 -8.35342E+03
  1.55460E+02 -1.29251E+04  6.53756E+03 -9.92311E+03  8.31087E+03 -1.38337E+03  1.34547E+03  5.28972E+03
 -5.76456E+03  1.33769E+03 -3.80543E+03 -4.85807E+03  4.85162E+02 -1.08111E+04  8.10664E+03 -1.07797E+04
  1.28844E+04 -4.98451E+03  1.28622E+04  2.56156E+03  1.11960E+04  1.01595E+04  5.41252E+03  1.51386E+04
 -1.79390E+03  1.72708E+04 -1.01820E+04  1.07048E+04 -1.19487E+04  2.88855E+03 -8.85126E+03 -2.35481E+03
 -4.47977E+03 -3.56229E+03 -6.82905E+02  1.50717E+03 -2.09678E+03  1.73356E+03 -4.06076E+03  3.84751E+03
 -8.56299E+03 -6.08181E+02 -9.20359E+03 -7.40437E+03 -3.75547E+03 -1.20605E+04  3.81332E+03 -9.02969E+03
  7.61961E+03 -3.77916E+03  5.50235E+03  2.15863E+03  1.91754E+02  3.51659E+03 -3.59559E+03 -2.35105E+02
 -3.63618E+03 -5.40954E+03 -7.91377E+02 -8.09928E+03  4.11578E+03 -8.39131E+03  1.06161E+04 -4.28426E+03
  1.26215E+04  8.48842E+02  9.29014E+03  6.82622E+03  1.86524E+03  9.49966E+03 -5.51997E+03  8.64419E+03
 -7.10707E+03  3.00233E+03 -3.89475E+03 -1.46077E+03  1.05500E+03 -2.01238E+03  5.10811E+03 -9.65896E+02
  4.69229E+03  3.64730E+03  1.04528E+03  6.95694E+03 -4.53960E+03  6.73598E+03 -8.19130E+03  1.78460E+03
 -5.38937E+03 -3.85195E+03  3.17756E+02 -7.39317E+03  3.93730E+03 -3.41832E+03  3.96336E+03  1.14938E+03
  8.13610E+02  4.13553E+03 -4.20454E+03  5.49036E+03 -5.30627E+03  2.37975E+03 -5.47432E+03 -1.64099E+03
 -3.15945E+03 -6.80103E+03  1.21082E+03 -7.79787E+03  6.69171E+03 -5.13304E+03  7.13506E+03  1.17732E+03
  5.02336E+03  5.66014E+03  1.21969E+02  7.70825E+03 -5.46116E+03  4.65310E+03 -6.03164E+03 -4.73139E+02
 -5.79899E+03 -5.70955E+03 -1.63598E+03 -5.91736E+03  2.59533E+03 -4.70003E+03  3.37534E+03 -2.81240E+03
  3.10651E+03  3.64496E+02 -3.74961E+01  1.54853E+03  5.53742E+02 -2.42041E+02  4.64869E+02 -2.20978E+03
  4.54711E+03 -1.11236E+03  6.02456E+03  3.36236E+02  6.34314E+03  3.61172E+03  5.63816E+03  8.19494E+03
 -1.50060E+03  9.73581E+03 -8.66742E+03  7.48895E+03 -1.11536E+04  1.20128E+03 -8.91815E+03 -3.22757E+03
 -4.44593E+03 -7.29560E+03 -2.65541E+02 -5.81858E+03  2.58312E+03 -2.41168E+03  1.97533E+03 -2.21873E+03
  1.57163E+03 -1.77325E+03  2.23870E+03 -2.56777E+03  3.59824E+03 -1.16408E+03  3.86089E+03  3.30305E+02
  5.02615E+03  1.42362E+03  1.58817E+03  3.97573E+03 -1.62886E+03  3.26061E+03 -4.94991E+03  2.86385E+03
 -5.52781E+03 -1.09343E+03 -2.35490E+03 -3.75247E+03  4.09440E+02 -5.49343E+03  3.74508E+03 -6.12034E+03
  5.98402E+03 -3.45985E+03  7.55421E+03  2.00617E+02  5.45805E+03  4.83237E+03  1.20622E+03  6.42202E+03
 -2.35506E+03  6.27099E+03 -4.12974E+03  2.14940E+03 -2.15560E+03 -1.26321E+03 -7.37410E+02 -6.55419E+02
 -5.19156E+02  4.09278E+01 -1.23831E+03  1.91940E+03 -2.62850E+03  1.38500E+03 -4.55607E+03 -6.23682E+02
 -1.83404E+03 -4.49953E+03  5.97886E+02 -5.21016E+03  3.11475E+03 -5.47989E+03  4.31219E+03 -1.56617E+03
  4.83318E+03  2.83441E+03  2.38165E+03  4.20454E+03 -1.18353E+03  5.15594E+03 -3.36133E+03  2.95971E+03
 -4.86065E+03  7.20146E+02 -4.11451E+03 -2.85778E+03 -3.13838E+02 -3.78157E+03  1.88054E+03 -2.89389E+03
  3.23334E+03 -1.46029E+03  1.92044E+03  7.03778E+02  5.39301E+02  1.79085E+03  9.57574E+02  2.45226E+02
  1.74274E+03  4.70683E+02  1.20732E+03  1.21246E+03  1.39117E+03  2.31808E+03  1.54417E+03  2.50933E+03
 -1.21220E+03  3.61749E+03 -3.03804E+03  4.97937E+03 -4.19565E+03  1.47230E+03 -4.98205E+03 -1.13216E+03
 -2.15058E+03 -4.57606E+03  8.52989E+02 -5.63644E+03  2.44475E+03 -3.38288E+03  3.67762E+03 -1.13007E+03
  2.94143E+03  2.10387E+03  4.41302E+02  2.69660E+03 -1.10480E+03  1.52780E+03 -1.73290E+03 -2.54104E+01
 -8.46797E+02 -2.12185E+03  1.51799E+03 -1.93241E+03  1.54080E+03 -1.12021E+03  1.49760E+03  4.41270E+02
  7.94764E+02  4.07127E+02  8.08869E+02 -1.63728E+01 -2.66224E+02  7.77839E+02  1.62583E+03 -2.08023E+02
  2.62739E+02 -2.90331E+02  2.10081E+03  7.17670E+02  6.85515E+02  2.83211E+03 -5.20758E+02  3.46521E+03
 -2.01444E+03  1.46546E+03 -2.55378E+03  4.44808E+02 -2.90638E+03 -1.07644E+03 -6.18744E+02 -1.36080E+03
  2.80307E+02 -1.54530E+03  8.90654E+02 -5.61498E+02  8.05293E+02  1.63750E+03 -6.29578E+02  1.27988E+03
 -1.95122E+03  7.27009E+02 -1.34949E+03 -1.42767E+03 -9.77805E+02 -2.58618E+03  4.28144E+02 -1.99201E+03
  6.61158E+02 -8.80173E+02  1.42376E+03  3.37967E+02  1.57019E+03  3.40338E+01  2.79618E+02  1.60570E+03
 -4.84261E+02 -2.75685E+01 -1.10068E+03 -2.50317E+02  6.84255E+02 -1.22439E+03  2.08543E+03 -1.18747E+03
  1.97680E+03 -6.46772E+01  3.26019E+03  1.14525E+03  1.30527E+03  2.03207E+03 -5.96790E+02  2.47169E+03
 -1.88038E+03  3.95175E+02 -2.04947E+03 -4.47022E+02 -1.03875E+03 -1.50093E+03  5.83371E+02 -9.20200E+02
  1.73861E+03 -7.28501E+02  1.05464E+03  8.65860E+02 -6.62876E+01  1.34853E+03  2.39436E+02  1.25985E+03
 -7.16224E+02  1.28789E+03 -3.43541E+02  3.00771E+02 -2.78722E+02  8.12790E+02 -5.46328E+02  6.80551E+02
 -8.16584E+02  1.10421E+03 -2.30988E+03  6.23626E+02 -2.25506E+03  2.91334E+01 -3.43467E+03 -1.37724E+03
 -1.21089E+03 -2.74032E+03  7.04469E+02 -3.50531E+03  1.70269E+03 -3.10480E+03  3.58640E+03 -1.34800E+03
  3.33232E+03 -1.06979E+02  1.86527E+03  2.02812E+03 -3.22923E+02  2.00565E+03 -9.54397E+02  1.65717E+03
 -1.19295E+03  9.02979E+02 -5.81667E+02 -4.89516E+02 -7.27798E+02  1.98179E+02 -7.88556E+02 -2.15460E+01
 -1.30782E+03 -1.07965E+02 -7.73687E+02 -3.77614E+01  1.30552E+02 -6.64993E+02 -4.56627E+02 -1.08819E+03
  1.69664E+03 -6.68505E+02  7.67708E+02  1.05125E+02  1.34173E+03  1.28525E+03 -1.40021E+02  1.93232E+03
 -1.13312E+03  2.88793E+03 -2.20142E+03  1.39813E+03 -2.81482E+03 -3.07253E+02 -1.62752E+03 -1.58664E+03
 -1.01012E+03 -2.06269E+03  2.16157E+02 -1.84056E+03  9.57864E+02 -7.88605E+02  1.03620E+03 -3.15175E+00
  9.05842E+02  4.84361E+02  8.60977E+00  5.09810E+02 -6.80684E+02 -9.70963E+01 -3.54466E+02 -3.92044E+02
  4.55998E+02 -1.19824E+02  7.79983E+02  6.52640E+02  3.03768E+02  7.20890E+02  5.70811E+02  3.02999E+02
 -7.68398E+02  8.99565E+02 -9.98009E+02  4.11697E+02 -1.14151E+03 -8.74515E+02 -1.87979E+02 -1.67187E+03
  8.35631E+02 -9.30410E+02  6.84047E+02 -4.18974E+01  1.58025E+03 -6.93907E+02  5.29054E+02  1.28185E+03
  4.40309E+02  7.98726E+02 -4.10390E+02  8.23587E+02 -7.62678E+02  7.11522E+02 -5.91884E+02 -7.38855E+00
 -2.50892E+02  5.00192E+01 -4.88938E+02  2.00021E+02 -9.06070E+02  2.30265E+02 -1.04014E+03 -4.09485E+02
 -1.39727E+03 -3.21922E+02 -3.23535E+02 -1.52426E+03  7.89348E+02 -1.80324E+03  1.20177E+03 -6.09619E+02
  1.00510E+03  3.66769E+02  8.73695E+01  4.73450E+02 -4.47356E+02  1.37780E+03 -4.16374E+02  9.36403E+02
