 $NMID ID='MM_0lb_SNR800_19hz_g50_15.RAW', FMTDAT='(8E13.5)'
 TRAMP=1., VOLUME=1. $END
  3.09969E+05  3.25312E+02  3.37317E+05  2.50538E+05  8.42042E+04  3.37325E+05 -1.32669E+05  2.50238E+05
 -1.89682E+05  8.25412E+04 -1.11060E+05 -3.26584E+04  1.27841E+03 -5.01636E+04  5.39132E+04 -1.39129E+01
  3.51648E+04  5.28903E+04 -1.69169E+04  7.49725E+04 -6.04639E+04  6.26315E+04 -8.32224E+04  3.16455E+04
 -7.98836E+04 -1.10871E+04 -5.63181E+04 -5.03281E+04 -1.50699E+04 -6.84589E+04  2.68047E+04 -4.48807E+04
  3.90063E+04  3.93185E+03  1.54640E+04  4.70604E+04 -3.38767E+04  4.60302E+04 -6.55097E+04 -6.14315E+02
 -5.21159E+04 -5.62282E+04 -6.14270E+03 -7.55898E+04  3.31761E+04 -5.33838E+04  4.63290E+04 -1.63101E+04
  4.15686E+04  1.11757E+04  3.07975E+04  2.46016E+04  1.59320E+04  2.83086E+04 -4.52101E+03  2.67566E+04
 -2.16657E+04  1.26829E+04 -1.91676E+04 -4.35156E+03  4.32584E+03 -7.32472E+03  2.15459E+04  1.10249E+04
  7.25003E+03  3.33038E+04 -3.05954E+04  3.40681E+04 -6.09215E+04  2.04143E+03 -5.52454E+04 -4.11375E+04
 -1.22997E+04 -6.07024E+04  3.81135E+04 -4.35642E+04  5.57357E+04 -2.11090E+03  3.16787E+04  3.06004E+04
 -6.39051E+03  3.32750E+04 -2.84723E+04  1.34177E+04 -2.76798E+04 -5.04921E+03 -1.45609E+04 -1.01267E+04
 -7.40722E+03 -1.15108E+04 -1.14323E+03 -1.68012E+04  6.56899E+03 -2.25392E+04  1.50645E+04 -1.37902E+04
  1.21090E+04  4.29808E+03 -6.29523E+03  1.28547E+04 -1.93525E+04 -2.43727E+03 -8.03936E+03 -3.05710E+04
  2.09358E+04 -4.06550E+04  4.48153E+04 -1.83854E+04  4.21299E+04  1.84504E+04  1.43116E+04  4.17435E+04
 -1.54716E+04  3.10328E+04 -2.37737E+04  8.11972E+02 -8.24470E+03 -2.65777E+04  2.05509E+04 -3.16147E+04
  3.80500E+04 -7.42594E+03  3.17534E+04  2.26109E+04  1.55467E+04  4.24817E+04 -7.26013E+03  4.52434E+04
 -2.83689E+04  2.98994E+04 -3.75348E+04  8.33442E+03 -3.85947E+04 -1.51250E+04 -2.11028E+04 -3.41470E+04
  6.89909E+03 -3.40634E+04  2.91973E+04 -1.28065E+04  2.68837E+04  1.07550E+04  2.89145E+03  1.77861E+04
 -1.28692E+04  7.09951E+03 -9.64570E+03 -7.55648E+03  6.03062E+03 -9.75864E+03  1.72719E+04  6.33432E+03
  1.24561E+04  2.18478E+04 -6.86355E+03  2.37200E+04 -2.12902E+04  9.35171E+03 -2.49062E+04 -6.45696E+03
 -1.67586E+04 -1.63256E+04 -5.74654E+03 -1.66403E+04  3.87824E+03 -1.46635E+04  1.25231E+04 -1.44170E+04
  2.15735E+04 -1.16624E+04  2.79749E+04  1.32879E+03  2.12512E+04  1.64547E+04  4.08840E+03  3.22126E+04
 -1.59431E+04  2.75241E+04 -2.59827E+04  9.45439E+03 -1.97736E+04 -1.04202E+04 -4.09969E+03 -1.39716E+04
  2.59297E+03 -4.13786E+03 -2.82564E+03  5.22190E+03 -1.30316E+04  5.22875E+03 -1.32507E+04 -4.99377E+03
 -8.42620E+03 -1.52817E+04  4.80838E+03 -1.94902E+04  1.22523E+04 -1.41036E+04  1.43772E+04 -1.49074E+03
  8.90425E+03  1.10015E+04 -6.04033E+02  1.57202E+04 -1.01697E+04  9.01028E+03 -1.53429E+04 -3.77870E+03
 -1.16096E+04 -1.41741E+04 -1.53818E+03 -1.89051E+04  8.78146E+03 -1.50136E+04  1.59855E+04 -7.52330E+03
  1.45018E+04  9.01841E+02  1.03816E+04  3.65061E+03  5.07776E+03  5.95010E+02  7.56703E+03 -1.34382E+03
  1.37271E+04  2.79004E+03  1.43810E+04  1.23168E+04  8.97860E+03  2.45652E+04 -2.97123E+03  2.64507E+04
 -1.55077E+04  2.02456E+04 -2.42439E+04  9.67393E+03 -2.49737E+04 -1.91976E+03 -2.13181E+04 -1.39954E+04
 -1.01278E+04 -2.00775E+04  6.75999E+03 -1.89949E+04  1.67325E+04 -1.07040E+04  1.55505E+04  3.44779E+03
  6.61663E+03  1.11423E+04 -7.09059E+03  1.02790E+04 -1.34216E+04  2.50086E+03 -1.03922E+04 -7.95946E+03
 -1.70402E+02 -1.21241E+04  6.30282E+03 -9.13654E+03  7.80826E+03 -9.94641E+02  1.16982E+03  4.97179E+03
 -5.54631E+03  1.37251E+03 -3.67041E+03 -4.59436E+03  6.83710E+02 -1.01412E+04  7.95817E+03 -9.78055E+03
  1.20566E+04 -4.56105E+03  1.18730E+04  2.67032E+03  1.01400E+04  9.24785E+03  4.85460E+03  1.39878E+04
 -1.76980E+03  1.56735E+04 -9.42036E+03  9.72797E+03 -1.10316E+04  2.85874E+03 -8.19003E+03 -1.92132E+03
 -4.41695E+03 -2.98666E+03 -8.74566E+02  1.68817E+03 -1.88652E+03  1.98033E+03 -3.63662E+03  3.64170E+03
 -7.99876E+03 -5.83147E+02 -8.62067E+03 -7.16773E+03 -3.24639E+03 -1.14820E+04  3.48739E+03 -8.40035E+03
  7.29987E+03 -3.88982E+03  4.98236E+03  2.02722E+03  6.24667E+02  3.15623E+03 -3.36750E+03 -8.27936E+01
 -3.38569E+03 -5.01941E+03 -8.92602E+02 -6.80642E+03  3.39790E+03 -7.76580E+03  9.74944E+03 -3.74573E+03
  1.13018E+04  5.84833E+02  8.66096E+03  6.07601E+03  1.72509E+03  8.47174E+03 -5.35146E+03  7.75933E+03
 -6.85212E+03  2.63646E+03 -3.36767E+03 -1.23359E+03  1.11968E+03 -1.64151E+03  4.58660E+03 -8.95807E+02
  3.91898E+03  3.33954E+03  1.10197E+03  6.03042E+03 -4.46563E+03  6.35609E+03 -7.98421E+03  1.68740E+03
 -4.68266E+03 -3.76248E+03  4.36769E+02 -6.70224E+03  3.55037E+03 -3.43114E+03  3.26493E+03  8.62118E+02
  2.95779E+02  3.24135E+03 -4.05143E+03  4.64200E+03 -4.99935E+03  2.35610E+03 -4.22722E+03 -1.13822E+03
 -2.53780E+03 -5.78850E+03  1.11456E+03 -7.02366E+03  5.69247E+03 -4.58983E+03  6.01163E+03  9.30859E+02
  4.62230E+03  4.85125E+03  3.22663E+02  7.02692E+03 -4.87565E+03  4.13953E+03 -5.17589E+03 -2.31317E+02
 -5.60823E+03 -5.01661E+03 -1.32631E+03 -4.92422E+03  2.41541E+03 -4.78565E+03  2.69114E+03 -2.89216E+03
  2.66718E+03  3.23874E+02 -1.04292E+02  1.27683E+03  4.92716E+02 -3.31110E+02  1.38637E+02 -1.76093E+03
  3.70930E+03 -7.40089E+02  4.92976E+03  8.81209E+02  5.20478E+03  3.00541E+03  5.25053E+03  6.80199E+03
 -1.32249E+03  8.00574E+03 -7.47489E+03  6.35894E+03 -9.16175E+03  9.77748E+02 -7.62234E+03 -2.31614E+03
 -4.08044E+03 -6.01722E+03 -5.01509E+02 -4.68693E+03  2.21396E+03 -1.74309E+03  1.75381E+03 -2.18051E+03
  1.09889E+03 -1.72084E+03  1.81028E+03 -2.31791E+03  3.42530E+03 -1.47223E+03  3.61404E+03  4.09778E+02
  4.44046E+03  1.19083E+03  1.03287E+03  3.44431E+03 -1.71952E+03  2.53652E+03 -4.28928E+03  2.80790E+03
 -4.59619E+03 -1.04256E+03 -1.56193E+03 -3.12934E+03  6.24515E+02 -4.68621E+03  3.22393E+03 -5.10333E+03
  4.80800E+03 -3.39903E+03  6.34164E+03 -9.81129E+01  4.85440E+03  3.54387E+03  1.25648E+03  5.73566E+03
 -1.79883E+03  5.64724E+03 -3.22521E+03  1.66594E+03 -1.67416E+03 -9.59281E+02 -4.11711E+02 -5.37104E+02
 -4.40345E+02  6.22636E+02 -8.27869E+02  1.59957E+03 -2.34805E+03  7.81573E+02 -3.88792E+03 -3.96225E+02
 -1.40076E+03 -3.88015E+03  8.88683E+02 -4.29420E+03  2.70266E+03 -4.11765E+03  3.28650E+03 -1.04266E+03
  3.64878E+03  2.26669E+03  1.75449E+03  2.94083E+03 -8.07457E+02  4.06493E+03 -2.22953E+03  2.69950E+03
 -3.57399E+03  7.28024E+02 -2.93887E+03 -2.14783E+03 -1.26648E+02 -3.05229E+03  1.55536E+03 -2.39966E+03
  2.63799E+03 -1.36864E+03  1.75677E+03  4.43775E+02  4.17552E+02  1.51173E+03  1.08894E+03  4.55780E+02
  1.53015E+03  5.02919E+02  1.15408E+03  1.04082E+03  8.69769E+02  1.94944E+03  1.29549E+03  1.32580E+03
 -9.31041E+02  2.28320E+03 -2.09313E+03  3.94573E+03 -2.82875E+03  1.26298E+03 -3.88308E+03 -1.57494E+02
 -1.63331E+03 -3.18793E+03  5.47699E+02 -4.28562E+03  1.50960E+03 -2.22685E+03  2.85119E+03 -9.67685E+02
  2.46058E+03  1.65755E+03  2.73823E+01  1.97755E+03 -7.68044E+02  1.10300E+03 -7.52020E+02  3.61429E+01
 -6.99120E+02 -1.46048E+03  1.29179E+03 -1.36211E+03  1.15145E+03 -7.77662E+02  1.28199E+03  2.26080E+02
  3.72770E+02  3.27037E+02  5.86073E+02 -3.33386E+02 -4.34716E+02  8.22255E+02  1.49021E+03 -2.16200E+02
 -1.98409E+02 -9.78138E+01  1.72418E+03  5.61080E+02  4.70226E+01  2.29468E+03 -3.78610E+02  2.37554E+03
 -1.51266E+03  7.11321E+02 -1.93301E+03  4.04631E+02 -2.11900E+03 -9.19786E+02 -7.38212E+01 -1.26405E+03
  3.07593E+02 -1.00013E+03  7.65081E+02 -3.17118E+02  6.31749E+02  1.07485E+03 -7.49682E+02  1.02487E+03
 -1.17595E+03  5.72112E+02 -1.14015E+03 -1.34366E+03 -5.02216E+02 -1.81953E+03  3.93811E+02 -1.55141E+03
  5.69502E+02 -6.89330E+02  6.04080E+02  3.19472E+01  1.02577E+03 -1.55430E+02  3.17385E+02  9.99326E+02
 -1.74292E+02 -9.43878E+01 -7.15593E+02  2.59000E+02  4.42821E+02 -4.77803E+02  1.38031E+03 -8.31111E+02
  1.00910E+03  2.94040E+02  2.51399E+03  7.56712E+02  1.12181E+03  1.53754E+03 -2.94715E+02  1.57196E+03
 -1.13919E+03 -6.85375E+00 -1.25679E+03 -1.54910E+02 -6.04763E+02 -1.23820E+03  2.76177E+02 -6.83608E+02
  1.54175E+03 -6.41286E+02  4.82053E+02  6.24479E+02 -1.84196E+01  1.43809E+03  1.86153E+02  9.15985E+02
 -4.75068E+01  1.37031E+03 -5.06114E+02  6.59350E+01 -3.17525E+02  4.48862E+02 -7.65717E+02  6.01197E+02
 -3.85596E+02  9.23198E+02 -1.80742E+03  5.24693E+02 -1.78821E+03 -9.07751E+01 -1.89115E+03 -6.46407E+02
 -9.80109E+02 -2.21344E+03  3.19191E+02 -2.59919E+03  1.12640E+03 -2.01054E+03  2.25569E+03 -8.78303E+02
  2.19887E+03 -2.70706E+02  1.00295E+03  1.67586E+03 -4.91538E+02  1.10815E+03 -4.72486E+02  9.18628E+02
 -7.87003E+02  5.80517E+02 -5.11028E+02 -8.04569E+01 -5.37296E+02  1.91294E+02 -7.72033E+02  6.60417E+01
 -1.20296E+03 -7.36086E+01 -8.52699E+02  2.35236E+02  6.05670E+01 -7.62323E+02 -4.77155E+02 -9.92072E+02
  1.07939E+03 -6.73735E+02  3.38721E+02  9.04337E+01  1.07962E+03  8.21970E+02 -4.10793E+02  1.20064E+03
 -8.36682E+02  2.12618E+03 -1.35934E+03  1.33752E+03 -1.17593E+03 -2.15915E+02 -1.34733E+03 -9.74777E+02
 -6.64476E+02 -1.26286E+03  1.21089E+02 -9.41461E+02  6.73569E+02 -5.56422E+02  4.90334E+02  9.67324E+01
  8.53296E+02  1.95950E+02  6.04805E+01  5.74682E+02 -3.92146E+02  9.61656E+01 -2.02293E+02 -3.18229E+02
  3.88139E+02  9.31398E+01 -7.58128E+01  5.64284E+02  9.12343E+01  4.89763E+02  4.84954E+02  1.94280E+02
 -4.02971E+02  6.68767E+02 -6.93657E+02  2.68633E+01 -6.01762E+02 -1.50569E+02  1.53119E+02 -1.00760E+03
  3.88342E+02 -6.39136E+02  5.77430E+02  2.48882E+02  6.33318E+02 -7.01966E+02  3.04257E+02  7.27754E+02
  3.06111E+02  5.18483E+02 -6.09784E+00  3.53239E+01 -3.35772E+02  4.94323E+02 -2.45519E+02  5.13449E+01
 -3.84467E+02 -2.24548E+02 -5.60903E+02  4.18276E+02 -6.73600E+02  3.05269E+02 -5.46332E+02 -5.04253E+02
 -9.47761E+02  2.27040E+02 -3.12442E+02 -5.23001E+02  5.59339E+02 -1.53851E+03  7.29957E+02 -6.03762E+01
  7.83042E+02 -5.51989E+01 -5.28754E+02 -1.24456E+02  1.08033E+02  6.83933E+02 -2.51877E+02  8.74276E+02
