 $NMID ID='MM_0lb_SNR800_11hz_g40_43.RAW', FMTDAT='(8E13.5)'
 TRAMP=1., VOLUME=1. $END
  3.09945E+05  4.63668E+02  3.37583E+05  2.50676E+05  8.46131E+04  3.38112E+05 -1.32523E+05  2.51464E+05
 -1.90522E+05  8.32708E+04 -1.12252E+05 -3.23445E+04  4.09258E+02 -5.05504E+04  5.37901E+04 -4.12948E+02
  3.57159E+04  5.34102E+04 -1.68235E+04  7.56561E+04 -6.08525E+04  6.38169E+04 -8.43344E+04  3.25224E+04
 -8.15972E+04 -1.17804E+04 -5.76337E+04 -5.14126E+04 -1.52749E+04 -7.02889E+04  2.78451E+04 -4.63094E+04
  4.05733E+04  3.65808E+03  1.62748E+04  4.80982E+04 -3.43241E+04  4.74524E+04 -6.73350E+04 -3.93189E+02
 -5.36717E+04 -5.70960E+04 -7.18821E+03 -7.78850E+04  3.38622E+04 -5.56955E+04  4.87461E+04 -1.78645E+04
  4.38427E+04  1.14955E+04  3.21826E+04  2.57396E+04  1.58706E+04  2.96542E+04 -4.95504E+03  2.75576E+04
 -2.23834E+04  1.18355E+04 -1.84357E+04 -5.41461E+03  6.16840E+03 -7.14239E+03  2.25283E+04  1.26628E+04
  7.36003E+03  3.63478E+04 -3.28781E+04  3.60925E+04 -6.42279E+04  2.20729E+03 -5.76681E+04 -4.36097E+04
 -1.24295E+04 -6.43468E+04  4.03296E+04 -4.60100E+04  5.92825E+04 -2.70166E+03  3.50568E+04  3.32944E+04
 -5.81079E+03  3.75547E+04 -3.05739E+04  1.71926E+04 -3.14523E+04 -4.01584E+03 -1.80297E+04 -1.12135E+04
 -8.77428E+03 -1.36377E+04 -8.63855E+02 -1.84803E+04  8.24548E+03 -2.28607E+04  1.55441E+04 -1.28046E+04
  1.10227E+04  5.84803E+03 -9.27285E+03  1.23709E+04 -2.20043E+04 -5.25057E+03 -8.38062E+03 -3.50697E+04
  2.35674E+04 -4.45244E+04  4.94811E+04 -2.01053E+04  4.62205E+04  2.00741E+04  1.63069E+04  4.49311E+04
 -1.60133E+04  3.40703E+04 -2.60311E+04  2.07401E+03 -1.06898E+04 -2.86106E+04  2.07995E+04 -3.52143E+04
  4.22251E+04 -9.97613E+03  3.75621E+04  2.41056E+04  1.90843E+04  4.81085E+04 -8.35748E+03  5.25877E+04
 -3.34018E+04  3.51246E+04 -4.42085E+04  1.00741E+04 -4.44790E+04 -1.70750E+04 -2.43693E+04 -3.93383E+04
  7.82739E+03 -3.94783E+04  3.25444E+04 -1.55463E+04  3.04783E+04  1.10613E+04  4.47341E+03  2.00917E+04
 -1.39320E+04  8.95660E+03 -1.08721E+04 -7.63798E+03  5.92438E+03 -1.07872E+04  1.86102E+04  5.99042E+03
  1.41511E+04  2.24001E+04 -5.92723E+03  2.59691E+04 -2.25763E+04  1.23547E+04 -2.94286E+04 -4.00554E+03
 -2.26844E+04 -1.76436E+04 -9.86361E+03 -2.21153E+04  4.21724E+03 -2.22279E+04  1.74194E+04 -2.01847E+04
  2.87944E+04 -1.31759E+04  3.44224E+04  3.79354E+03  2.51065E+04  2.19517E+04  4.40024E+03  3.85316E+04
 -1.84066E+04  3.17473E+04 -2.90553E+04  1.08779E+04 -2.13651E+04 -1.04678E+04 -4.63416E+03 -1.30414E+04
  1.35055E+03 -1.97338E+03 -6.42418E+03  6.92497E+03 -1.79961E+04  4.99742E+03 -1.75979E+04 -7.88564E+03
 -1.08287E+04 -2.06779E+04  5.60006E+03 -2.50767E+04  1.63951E+04 -1.76504E+04  2.01681E+04 -1.72300E+03
  1.28099E+04  1.44152E+04 -1.01956E+03  2.08534E+04 -1.44642E+04  1.16215E+04 -2.09922E+04 -4.72203E+03
 -1.50727E+04 -1.87303E+04 -2.07121E+03 -2.46579E+04  1.13284E+04 -2.01835E+04  2.05040E+04 -1.05821E+04
  1.92351E+04  1.64164E+02  1.36275E+04  4.52837E+03  7.36336E+03  1.35657E+03  1.06076E+04 -1.58917E+03
  1.92203E+04  2.74323E+03  2.20228E+04  1.64580E+04  1.46188E+04  3.32107E+04 -2.43479E+03  3.84463E+04
 -2.19561E+04  3.10842E+04 -3.59813E+04  1.61088E+04 -3.78311E+04 -2.55422E+03 -3.10437E+04 -2.21188E+04
 -1.28407E+04 -3.14627E+04  1.11380E+04 -2.79908E+04  2.40428E+04 -1.34837E+04  2.14658E+04  6.14488E+03
  7.25444E+03  1.60195E+04 -9.91232E+03  1.37479E+04 -1.77778E+04  2.60491E+03 -1.31871E+04 -1.09668E+04
 -3.69548E+02 -1.70960E+04  8.87127E+03 -1.25153E+04  1.15181E+04 -1.71896E+03  2.61382E+03  7.27287E+03
 -7.64005E+03  3.26125E+03 -7.38575E+03 -6.10810E+03 -1.01933E+03 -1.54834E+04  1.02109E+04 -1.60064E+04
  1.94797E+04 -8.89379E+03  2.08871E+04  3.23245E+03  1.85962E+04  1.54083E+04  8.35690E+03  2.39116E+04
 -4.27608E+03  2.61151E+04 -1.68256E+04  1.61172E+04 -1.85537E+04  3.44788E+03 -1.29197E+04 -4.48366E+03
 -5.70808E+03 -5.70604E+03 -6.20095E+02  5.77456E+02 -2.59440E+03  3.01509E+03 -6.28814E+03  4.88332E+03
 -1.20348E+04 -9.71332E+02 -1.29234E+04 -1.04468E+04 -5.28299E+03 -1.64596E+04  5.57990E+03 -1.34633E+04
  1.10105E+04 -5.51368E+03  7.76053E+03  3.86010E+03 -2.33449E+01  5.16633E+03 -6.11008E+03 -6.64848E+02
 -6.24288E+03 -7.90645E+03 -1.03065E+03 -1.27561E+04  7.45020E+03 -1.35154E+04  1.64069E+04 -7.34588E+03
  1.94620E+04  1.77096E+03  1.44578E+04  1.14949E+04  2.61550E+03  1.57653E+04 -8.38524E+03  1.30878E+04
 -1.07774E+04  4.02288E+03 -5.49142E+03 -2.73923E+03  2.04877E+03 -3.65851E+03  7.12818E+03 -7.21463E+02
  6.29666E+03  6.00325E+03  8.17876E+02  1.02162E+04 -7.15766E+03  1.01589E+04 -1.27875E+04  2.30836E+03
 -8.94015E+03 -6.68883E+03  3.90969E+02 -1.11328E+04  7.40266E+03 -5.70452E+03  7.41534E+03  2.56813E+03
  1.55436E+03  7.72527E+03 -7.13133E+03  9.23127E+03 -1.05973E+04  4.01316E+03 -1.04379E+04 -3.78297E+03
 -6.11940E+03 -1.24115E+04  3.17087E+03 -1.44871E+04  1.19673E+04 -8.82655E+03  1.34119E+04  2.17544E+03
  8.44007E+03  1.07553E+04 -1.05547E+03  1.26955E+04 -9.00012E+03  7.02511E+03 -9.75358E+03 -9.45359E+02
 -9.06575E+03 -8.51401E+03 -1.97598E+03 -9.56729E+03  4.67610E+03 -7.84283E+03  6.17242E+03 -3.44555E+03
  4.29483E+03  1.31851E+03 -5.19398E+02  1.52035E+03 -5.62429E+01 -2.40160E+03  1.97560E+03 -5.66367E+03
  8.67688E+03 -3.77180E+03  1.22486E+04  1.65525E+03  1.20569E+04  7.98363E+03  8.27622E+03  1.59381E+04
 -3.56368E+03  1.83778E+04 -1.54912E+04  1.34315E+04 -1.99139E+04  2.44692E+03 -1.61262E+04 -7.04043E+03
 -8.23688E+03 -1.33677E+04 -1.23660E+02 -1.14935E+04  3.96288E+03 -6.01576E+03  3.69322E+03 -3.80052E+03
  3.14466E+03 -2.53533E+03  2.91017E+03 -3.48062E+03  5.20754E+03 -3.27288E+03  6.53153E+03 -7.82097E+02
  8.05180E+03  1.78254E+03  4.11541E+03  7.00459E+03 -2.22189E+03  7.95894E+03 -8.61577E+03  6.47857E+03
 -1.12113E+04 -1.18676E+03 -6.85702E+03 -7.93717E+03 -5.99369E+02 -1.22715E+04  6.61655E+03 -1.18931E+04
  1.22946E+04 -6.85884E+03  1.49858E+04  1.50750E+03  1.06471E+04  1.04796E+04  1.71874E+03  1.34924E+04
 -5.63042E+03  1.14563E+04 -7.82293E+03  3.72115E+03 -5.21981E+03 -1.61316E+03 -2.04845E+03 -1.64323E+03
 -1.06910E+03  2.05243E+02 -1.45747E+03  2.58265E+03 -4.85590E+03  1.62783E+03 -8.21684E+03 -1.33179E+03
 -5.33229E+03 -7.89487E+03  3.93972E+02 -1.11353E+04  6.58743E+03 -9.83164E+03  1.05857E+04 -3.14694E+03
  1.01938E+04  5.44675E+03  4.75616E+03  9.33332E+03 -2.28596E+03  1.11358E+04 -7.85377E+03  6.80887E+03
 -1.01817E+04  6.06865E+02 -7.55875E+03 -6.59674E+03 -1.13803E+03 -8.62159E+03  4.70668E+03 -6.54020E+03
  7.00481E+03 -2.38369E+03  4.53801E+03  1.43987E+03  1.91363E+03  3.29269E+03  1.27274E+03  1.74583E+03
  2.40092E+03  1.09531E+03  2.41171E+03  1.52368E+03  3.03881E+03  4.10511E+03  2.84344E+03  5.70819E+03
 -2.07761E+03  8.46314E+03 -7.41065E+03  8.53051E+03 -1.06908E+04  2.38632E+03 -1.10866E+04 -3.92281E+03
 -5.41503E+03 -1.10058E+04  1.43998E+03 -1.19422E+04  6.40842E+03 -7.44443E+03  9.19440E+03 -2.11235E+03
  7.41293E+03  4.05096E+03  1.75072E+03  6.19401E+03 -3.18172E+03  4.07010E+03 -4.46144E+03 -5.44778E+02
 -2.13442E+03 -4.35577E+03  2.83508E+03 -4.82212E+03  4.53824E+03 -2.22069E+03  4.33248E+03  1.05383E+03
  2.42943E+03  2.22189E+03  1.21437E+03  1.63080E+03 -7.44086E+02  1.81244E+03  2.08607E+03 -4.87162E+02
  1.04098E+03 -5.23410E+02  4.71514E+03  1.74505E+03  2.58577E+03  5.80044E+03 -8.54542E+02  7.52538E+03
 -5.02408E+03  4.39694E+03 -6.57971E+03  1.18807E+03 -6.00806E+03 -2.26959E+03 -2.11377E+03 -3.99797E+03
  8.64825E+02 -4.28408E+03  2.73807E+03 -1.99470E+03  2.27344E+03  2.25248E+03 -1.13134E+03  3.61083E+03
 -4.39660E+03  2.41920E+03 -4.67231E+03 -2.66436E+03 -2.91544E+03 -5.75854E+03  6.31711E+02 -5.60881E+03
  3.44795E+03 -3.56754E+03  4.14551E+03 -7.80031E+01  3.89788E+03  1.32506E+03  5.57206E+02  3.21448E+03
 -2.06661E+03  7.76082E+02 -2.84630E+03 -1.88004E+03  1.06660E+03 -4.21559E+03  5.42244E+03 -3.17521E+03
  6.58895E+03  8.49449E+02  6.56223E+03  4.41659E+03  2.29202E+03  6.60293E+03 -2.35398E+03  6.49874E+03
 -5.29743E+03  2.67150E+03 -5.46538E+03 -9.00798E+02 -3.41718E+03 -4.49454E+03  1.04283E+03 -4.26346E+03
  4.34469E+03 -1.87721E+03  3.78761E+03  1.53473E+03  8.20002E+02  3.87935E+03 -4.74091E+02  3.39906E+03
 -1.89910E+03  2.70389E+03 -1.54329E+03  7.04100E+02 -1.10812E+03  8.47400E+02 -1.03724E+03  1.49720E+03
 -1.71655E+03  2.58014E+03 -4.97312E+03  2.69201E+03 -6.64266E+03  4.75526E+02 -7.91727E+03 -4.12951E+03
 -3.85607E+03 -8.77981E+03  1.76712E+03 -1.04043E+04  6.11361E+03 -8.13586E+03  9.98311E+03 -3.17890E+03
  9.20362E+03  1.79298E+03  5.55269E+03  6.64980E+03 -2.54896E+01  7.04802E+03 -3.09517E+03  5.32284E+03
 -3.72262E+03  2.10240E+03 -2.39981E+03 -9.40759E+02 -9.76282E+02 -2.20975E+02 -5.35669E+02  2.11100E+02
 -1.58774E+03  7.47532E+01 -1.51666E+03 -3.17788E+02 -5.74509E+02 -1.77153E+03  9.14285E+00 -2.69629E+03
  3.46516E+03 -2.31068E+03  3.97612E+03  5.03144E+02  4.68837E+03  3.72411E+03  1.15525E+03  6.69483E+03
 -3.07297E+03  8.03908E+03 -7.45200E+03  4.84817E+03 -8.05683E+03 -7.93874E+02 -6.39420E+03 -4.92436E+03
 -2.73256E+03 -7.08461E+03  1.86030E+03 -6.43855E+03  4.36927E+03 -3.13593E+03  4.50530E+03  1.60687E+02
  2.42190E+03  2.18562E+03 -3.26453E+02  2.14974E+03 -1.67074E+03 -1.31818E+01  2.07609E+02 -1.42228E+03
  1.74409E+03 -8.72873E+02  2.40903E+03  1.02194E+03  1.68596E+03  2.68137E+03  3.93407E+02  3.26115E+03
 -2.93819E+03  3.21835E+03 -4.57036E+03  4.85372E+02 -3.85301E+03 -3.11297E+03 -8.80873E+02 -5.48064E+03
  2.78649E+03 -4.38689E+03  4.88136E+03 -1.58328E+03  5.20028E+03  9.60221E+02  2.97528E+03  4.29604E+03
  7.86987E+02  3.84747E+03 -1.54265E+03  3.43793E+03 -2.57198E+03  2.14629E+03 -2.19816E+03  1.50755E+02
 -1.79281E+03 -2.58513E+02 -1.22744E+03  8.96038E+02 -2.12676E+03  8.16047E+02 -3.37103E+03 -8.08082E+02
 -3.24490E+03 -2.27852E+03 -1.20037E+03 -4.51671E+03  1.92472E+03 -4.89547E+03  3.86801E+03 -2.34802E+03
  4.40368E+03  3.41514E+02  2.30293E+03  3.13159E+03 -1.10156E+02  4.25250E+03 -3.55488E+03  2.55403E+03
