 $NMID ID='MM_0lb_SNR800_16hz_g50_18.RAW', FMTDAT='(8E13.5)'
 TRAMP=1., VOLUME=1. $END
  3.10042E+05  2.71002E+02  3.37177E+05  2.50457E+05  8.45742E+04  3.37785E+05 -1.32619E+05  2.50691E+05
 -1.90125E+05  8.27734E+04 -1.11652E+05 -3.25415E+04  1.04182E+03 -5.05557E+04  5.38862E+04 -9.98399E+01
  3.52331E+04  5.31409E+04 -1.68078E+04  7.50834E+04 -6.07738E+04  6.31962E+04 -8.34706E+04  3.17595E+04
 -8.03611E+04 -1.13331E+04 -5.68710E+04 -5.09627E+04 -1.49878E+04 -6.93013E+04  2.70796E+04 -4.54493E+04
  3.98105E+04  3.90016E+03  1.61983E+04  4.73564E+04 -3.39393E+04  4.67139E+04 -6.59866E+04 -1.70672E+02
 -5.29020E+04 -5.64936E+04 -6.81628E+03 -7.64149E+04  3.34939E+04 -5.41061E+04  4.73057E+04 -1.69641E+04
  4.27172E+04  1.12177E+04  3.14496E+04  2.51686E+04  1.58554E+04  2.87987E+04 -5.16500E+03  2.71054E+04
 -2.16048E+04  1.25347E+04 -1.88507E+04 -5.13634E+03  5.07984E+03 -7.32372E+03  2.19288E+04  1.16681E+04
  7.38009E+03  3.47301E+04 -3.14239E+04  3.49020E+04 -6.24952E+04  2.32478E+03 -5.62515E+04 -4.20763E+04
 -1.23956E+04 -6.21323E+04  3.90248E+04 -4.45634E+04  5.72501E+04 -2.30189E+03  3.33463E+04  3.19257E+04
 -6.06497E+03  3.48928E+04 -2.94350E+04  1.48982E+04 -2.94860E+04 -4.98927E+03 -1.58005E+04 -1.07744E+04
 -8.13656E+03 -1.24521E+04 -7.69563E+02 -1.75207E+04  7.26552E+03 -2.27203E+04  1.51275E+04 -1.34990E+04
  1.17279E+04  4.82223E+03 -7.63452E+03  1.31807E+04 -2.02410E+04 -3.84131E+03 -8.20126E+03 -3.26006E+04
  2.19395E+04 -4.22606E+04  4.66204E+04 -1.91828E+04  4.40789E+04  1.90346E+04  1.52301E+04  4.34054E+04
 -1.55695E+04  3.24759E+04 -2.47440E+04  1.35489E+03 -9.42818E+03 -2.72239E+04  2.09001E+04 -3.29049E+04
  4.01904E+04 -8.47757E+03  3.37150E+04  2.31838E+04  1.67318E+04  4.48402E+04 -8.31255E+03  4.82702E+04
 -3.05134E+04  3.25224E+04 -4.03431E+04  9.00395E+03 -4.07559E+04 -1.58638E+04 -2.28662E+04 -3.66948E+04
  7.03204E+03 -3.64375E+04  3.05508E+04 -1.40890E+04  2.84790E+04  1.07532E+04  3.72039E+03  1.86821E+04
 -1.33205E+04  7.94121E+03 -9.97211E+03 -7.63395E+03  5.74869E+03 -1.03941E+04  1.77055E+04  6.39619E+03
  1.28386E+04  2.22222E+04 -6.29132E+03  2.44232E+04 -2.17879E+04  1.06612E+04 -2.69127E+04 -5.35738E+03
 -1.91061E+04 -1.68371E+04 -7.41228E+03 -1.89181E+04  4.07636E+03 -1.76304E+04  1.43068E+04 -1.67993E+04
  2.45060E+04 -1.23090E+04  3.07899E+04  2.27698E+03  2.26720E+04  1.86754E+04  3.99299E+03  3.48857E+04
 -1.70254E+04  2.91955E+04 -2.69981E+04  9.99966E+03 -2.02954E+04 -1.04190E+04 -4.03893E+03 -1.37543E+04
  1.99671E+03 -3.36278E+03 -3.83655E+03  6.35919E+03 -1.48932E+04  5.34317E+03 -1.51361E+04 -6.12972E+03
 -9.58867E+03 -1.76905E+04  5.01983E+03 -2.15525E+04  1.42929E+04 -1.53821E+04  1.66136E+04 -1.33506E+03
  1.04463E+04  1.24306E+04 -1.03225E+03  1.74044E+04 -1.18443E+04  9.97766E+03 -1.73910E+04 -3.78218E+03
 -1.30767E+04 -1.58237E+04 -1.58403E+03 -2.15730E+04  9.64377E+03 -1.72762E+04  1.79154E+04 -8.78397E+03
  1.62587E+04  4.06507E+02  1.17854E+04  4.31159E+03  6.34724E+03  6.88164E+02  8.68429E+03 -1.42737E+03
  1.59840E+04  2.76307E+03  1.74795E+04  1.42421E+04  1.13551E+04  2.79438E+04 -3.15338E+03  3.08862E+04
 -1.78561E+04  2.43823E+04 -2.86596E+04  1.20215E+04 -3.00857E+04 -2.11848E+03 -2.51684E+04 -1.71021E+04
 -1.14154E+04 -2.44856E+04  8.34594E+03 -2.25304E+04  1.94321E+04 -1.18665E+04  1.78774E+04  4.66492E+03
  6.84414E+03  1.29835E+04 -8.29671E+03  1.18541E+04 -1.49520E+04  2.27008E+03 -1.15722E+04 -9.10488E+03
 -2.63925E+02 -1.40269E+04  7.04074E+03 -1.05633E+04  8.98291E+03 -1.53444E+03  1.49007E+03  5.48373E+03
 -6.25786E+03  1.81305E+03 -4.89635E+03 -5.15948E+03 -5.58122E+00 -1.17204E+04  8.85169E+03 -1.22819E+04
  1.49204E+04 -6.09100E+03  1.51930E+04  2.55544E+03  1.34742E+04  1.17073E+04  6.36716E+03  1.77693E+04
 -2.44344E+03  1.95641E+04 -1.21625E+04  1.22013E+04 -1.39371E+04  3.17510E+03 -1.01585E+04 -2.96681E+03
 -4.98403E+03 -4.24005E+03 -6.52061E+02  1.10691E+03 -2.45457E+03  2.21291E+03 -4.40330E+03  4.01692E+03
 -9.47517E+03 -7.85020E+02 -9.92299E+03 -8.28279E+03 -4.03669E+03 -1.31254E+04  4.37610E+03 -1.01503E+04
  8.47884E+03 -4.40732E+03  6.12943E+03  2.31744E+03  2.66235E+02  3.80163E+03 -4.61002E+03 -6.28491E+01
 -4.60673E+03 -6.24984E+03 -1.03261E+03 -9.10614E+03  5.25183E+03 -9.62605E+03  1.22458E+04 -5.18589E+03
  1.45222E+04  1.00895E+03  1.06116E+04  7.94755E+03  2.35983E+03  1.10169E+04 -6.09997E+03  9.72443E+03
 -7.76753E+03  2.96268E+03 -4.23942E+03 -1.55899E+03  1.37107E+03 -2.24744E+03  5.16748E+03 -9.54040E+02
  4.68576E+03  4.41553E+03  1.30619E+03  7.65060E+03 -5.75010E+03  7.65598E+03 -9.29718E+03  2.20154E+03
 -6.09884E+03 -4.54872E+03  3.21139E+02 -8.20626E+03  4.91610E+03 -3.74431E+03  4.64859E+03  1.41946E+03
  7.87991E+02  4.82166E+03 -4.88368E+03  6.29667E+03 -6.55974E+03  2.85600E+03 -6.49778E+03 -1.93122E+03
 -4.03669E+03 -8.10464E+03  1.71537E+03 -9.18473E+03  8.06276E+03 -6.01415E+03  8.60554E+03  1.20346E+03
  5.61410E+03  7.07378E+03 -1.99520E+02  9.00601E+03 -6.41748E+03  4.94581E+03 -6.67193E+03 -7.75590E+02
 -6.58086E+03 -6.28752E+03 -1.40309E+03 -6.48620E+03  3.37535E+03 -5.50159E+03  3.85729E+03 -2.95134E+03
  3.17275E+03  7.99844E+02 -9.18023E+01  1.37670E+03  1.43203E+02 -9.90860E+02  7.91052E+02 -2.83899E+03
  5.25934E+03 -1.87972E+03  7.30209E+03  7.93956E+02  7.33523E+03  4.45772E+03  6.46184E+03  9.88436E+03
 -2.28119E+03  1.13694E+04 -9.79294E+03  8.68929E+03 -1.27844E+04  1.63282E+03 -1.01701E+04 -4.02660E+03
 -5.26959E+03 -8.55503E+03 -4.41571E+02 -6.86228E+03  2.74839E+03 -3.15024E+03  2.32324E+03 -2.59036E+03
  1.69417E+03 -1.53586E+03  2.58070E+03 -2.51793E+03  3.57875E+03 -1.53576E+03  4.69250E+03  1.42326E+01
  5.64165E+03  1.29108E+03  1.89040E+03  4.47155E+03 -1.92300E+03  4.38063E+03 -5.71275E+03  3.55990E+03
 -6.49401E+03 -1.34766E+03 -3.41540E+03 -4.48522E+03  8.97401E+01 -6.98579E+03  4.18072E+03 -7.35683E+03
  7.29319E+03 -4.27023E+03  9.34400E+03  7.25943E+02  6.47838E+03  6.14158E+03  1.10384E+03  8.31470E+03
 -3.12122E+03  7.48156E+03 -4.73907E+03  2.49638E+03 -3.10017E+03 -1.15965E+03 -7.24622E+02 -7.24867E+02
 -4.25291E+02  1.71616E+02 -1.00938E+03  2.08572E+03 -3.13130E+03  1.39682E+03 -5.34569E+03 -7.50690E+02
 -2.59259E+03 -5.22238E+03  9.05696E+02 -6.38975E+03  3.85253E+03 -6.04810E+03  5.58317E+03 -1.62587E+03
  5.92562E+03  3.16858E+03  2.75335E+03  5.28053E+03 -9.71900E+02  6.21653E+03 -4.22480E+03  3.69744E+03
 -5.45633E+03  8.10961E+02 -4.51132E+03 -3.41273E+03 -1.20611E+02 -4.43481E+03  2.55213E+03 -3.66322E+03
  4.07231E+03 -1.55103E+03  2.47942E+03  7.67559E+02  7.89496E+02  2.02594E+03  6.42888E+02  7.56262E+02
  1.83353E+03  4.96167E+02  1.49892E+03  9.81525E+02  1.97420E+03  2.49078E+03  1.91763E+03  2.69040E+03
 -1.40643E+03  4.54110E+03 -3.52781E+03  5.24508E+03 -4.90985E+03  1.59367E+03 -6.37565E+03 -1.31173E+03
 -2.56450E+03 -5.36836E+03  6.89195E+02 -6.89755E+03  3.31458E+03 -3.78826E+03  4.54252E+03 -1.21419E+03
  3.89151E+03  2.13220E+03  9.59394E+02  3.00547E+03 -1.14596E+03  2.01683E+03 -2.14295E+03  3.05639E+01
 -1.11669E+03 -2.29357E+03  1.86984E+03 -2.15154E+03  2.05667E+03 -1.32710E+03  2.18516E+03  5.25437E+02
  1.20659E+03  5.28773E+02  4.67664E+02  3.17197E+02 -5.63557E+02  1.03100E+03  1.57788E+03 -3.22110E+02
  5.63847E+02 -3.51996E+02  2.91451E+03  1.01848E+03  1.06811E+03  2.86364E+03 -2.16551E+02  3.96026E+03
 -2.54599E+03  2.03011E+03 -3.62300E+03  4.34036E+02 -3.21917E+03 -1.05450E+03 -8.72028E+02 -1.93339E+03
  4.51479E+02 -1.99783E+03  1.29442E+03 -9.28150E+02  9.14886E+02  1.62404E+03 -7.54907E+02  1.73533E+03
 -2.18317E+03  9.94105E+02 -2.05498E+03 -1.84644E+03 -1.24949E+03 -3.00412E+03  5.20620E+02 -2.38473E+03
  1.21470E+03 -1.42168E+03  1.36883E+03  1.33309E+02  1.82010E+03  3.08388E+02  4.39747E+02  1.19721E+03
 -8.09000E+02  2.40485E+02 -1.37732E+03 -4.91102E+02  7.67370E+02 -1.31946E+03  2.64883E+03 -1.68326E+03
  2.21626E+03  3.63996E+02  3.84931E+03  1.31504E+03  1.57960E+03  2.69225E+03 -6.18433E+02  2.74036E+03
 -2.45591E+03  8.99266E+02 -2.58175E+03 -2.75448E+02 -1.15146E+03 -2.16344E+03  4.23877E+02 -1.34376E+03
  2.22419E+03 -1.29088E+03  1.26434E+03  7.86139E+02  3.73351E+02  1.78698E+03  1.37052E+01  1.96365E+03
 -8.60196E+02  1.48522E+03 -3.79423E+02  3.45332E+02 -1.70789E+02  4.30053E+02 -1.05460E+03  8.92378E+02
 -1.04083E+03  1.51158E+03 -2.60423E+03  9.10901E+02 -2.75628E+03  1.83846E+02 -3.57351E+03 -1.60556E+03
 -1.87739E+03 -3.53775E+03  6.68562E+02 -4.28422E+03  2.13923E+03 -3.71651E+03  4.19840E+03 -1.23538E+03
  3.57328E+03  2.15188E+02  2.04638E+03  2.30992E+03 -6.47067E+02  2.74665E+03 -9.90833E+02  2.27084E+03
 -1.58241E+03  1.16181E+03 -9.66463E+02 -2.82165E+02 -3.33071E+02 -6.99389E+01 -5.86466E+02  1.43170E+02
 -1.01731E+03 -1.04628E+02 -1.10100E+03 -1.37303E+02  2.45326E+02 -8.81283E+02 -2.83431E+02 -1.27765E+03
  1.47978E+03 -1.00173E+03  1.18127E+03  1.30236E+02  1.83219E+03  1.52246E+03 -2.71342E+02  2.52646E+03
 -1.57841E+03  3.26381E+03 -2.65196E+03  1.85804E+03 -3.24102E+03 -1.73581E+02 -2.30837E+03 -2.01532E+03
 -1.29001E+03 -2.44919E+03  6.07025E+02 -2.34125E+03  1.60904E+03 -1.15004E+03  1.62715E+03  1.62490E+02
  9.17553E+02  6.00936E+02  1.04699E+02  8.27499E+02 -4.41287E+02 -3.76801E+02  1.43848E+02 -3.77076E+02
  8.76768E+02  1.65309E+02  7.86647E+02  3.56547E+02  2.23731E+02  9.29786E+02  2.24020E+02  7.67370E+02
 -1.18179E+03  1.50421E+03 -9.80396E+02  3.56847E+02 -1.31510E+03 -1.00892E+03  1.78766E+02 -2.25807E+03
  1.25869E+03 -1.50637E+03  1.38208E+03 -2.97392E+02  2.03382E+03 -2.63299E+02  8.40370E+02  1.34965E+03
  2.26929E+02  1.12987E+03 -1.96898E+02  8.40162E+02 -1.27321E+03  8.54404E+02 -6.00094E+02  1.10071E+02
 -3.99033E+02 -1.53360E+02 -7.17746E+02 -1.62120E+01 -7.91810E+02  4.57140E+02 -1.24845E+03 -4.23314E+02
 -1.59789E+03 -3.57737E+02 -5.57186E+02 -1.46175E+03  8.99476E+02 -2.37058E+03  1.15602E+03 -1.29669E+02
  1.22119E+03  7.66814E+01  3.60124E+02  7.44063E+02 -4.45027E+00  1.55434E+03 -8.55390E+02  9.21191E+02
