 $NMID ID='MM_0lb_SNR800_12hz_g50_7.RAW', FMTDAT='(8E13.5)'
 TRAMP=1., VOLUME=1. $END
  3.09735E+05  7.98375E+02  3.37864E+05  2.50817E+05  8.47504E+04  3.38248E+05 -1.32932E+05  2.51563E+05
 -1.90356E+05  8.37479E+04 -1.11867E+05 -3.25323E+04  8.06915E+02 -5.04272E+04  5.35327E+04 -2.03442E+02
  3.55229E+04  5.27061E+04 -1.69156E+04  7.56991E+04 -6.08966E+04  6.37252E+04 -8.44630E+04  3.23585E+04
 -8.19536E+04 -1.13797E+04 -5.77732E+04 -5.20504E+04 -1.51385E+04 -7.01983E+04  2.78747E+04 -4.58075E+04
  4.07023E+04  3.57005E+03  1.65076E+04  4.82653E+04 -3.43483E+04  4.74339E+04 -6.73325E+04  7.79736E+01
 -5.38614E+04 -5.72260E+04 -6.99256E+03 -7.81307E+04  3.39457E+04 -5.60403E+04  4.85760E+04 -1.80913E+04
  4.37629E+04  1.14971E+04  3.25889E+04  2.59930E+04  1.59556E+04  2.98615E+04 -5.33452E+03  2.76462E+04
 -2.22603E+04  1.23075E+04 -1.81185E+04 -5.61691E+03  6.42031E+03 -7.58480E+03  2.29426E+04  1.32301E+04
  7.03820E+03  3.61233E+04 -3.30867E+04  3.61664E+04 -6.46396E+04  2.07495E+03 -5.78298E+04 -4.34038E+04
 -1.27917E+04 -6.46097E+04  4.11001E+04 -4.65267E+04  5.97263E+04 -2.38369E+03  3.52204E+04  3.33368E+04
 -5.77272E+03  3.74947E+04 -3.09784E+04  1.70407E+04 -3.17763E+04 -4.34239E+03 -1.76862E+04 -1.12766E+04
 -8.39340E+03 -1.39057E+04 -4.41471E+02 -1.84939E+04  7.56607E+03 -2.35196E+04  1.59190E+04 -1.32854E+04
  1.10499E+04  5.75604E+03 -9.42776E+03  1.29528E+04 -2.23407E+04 -5.45570E+03 -8.29766E+03 -3.50253E+04
  2.39108E+04 -4.51176E+04  5.00877E+04 -2.06773E+04  4.63587E+04  2.00230E+04  1.62816E+04  4.52907E+04
 -1.60247E+04  3.45449E+04 -2.60523E+04  2.17663E+03 -1.02566E+04 -2.87768E+04  2.10214E+04 -3.48156E+04
  4.26311E+04 -9.97112E+03  3.74590E+04  2.44619E+04  1.98479E+04  4.84724E+04 -8.31448E+03  5.26598E+04
 -3.34344E+04  3.55395E+04 -4.42349E+04  1.01531E+04 -4.47284E+04 -1.72964E+04 -2.46643E+04 -3.98021E+04
  7.23704E+03 -3.95640E+04  3.23373E+04 -1.57895E+04  3.05473E+04  1.08432E+04  4.49492E+03  1.96933E+04
 -1.36544E+04  8.96434E+03 -1.08695E+04 -7.63558E+03  5.54873E+03 -1.08770E+04  1.84190E+04  5.61253E+03
  1.38717E+04  2.22904E+04 -5.59995E+03  2.59375E+04 -2.30217E+04  1.24722E+04 -2.96015E+04 -4.31636E+03
 -2.25805E+04 -1.76291E+04 -9.66128E+03 -2.18920E+04  4.16702E+03 -2.21502E+04  1.74364E+04 -2.02511E+04
  2.86026E+04 -1.32878E+04  3.46999E+04  3.85239E+03  2.49174E+04  2.18528E+04  4.29017E+03  3.84865E+04
 -1.82496E+04  3.19296E+04 -2.90680E+04  1.13039E+04 -2.16277E+04 -1.04790E+04 -4.70338E+03 -1.30280E+04
  1.44470E+03 -1.88969E+03 -5.75652E+03  7.14682E+03 -1.77716E+04  5.01107E+03 -1.75711E+04 -8.31570E+03
 -1.05227E+04 -2.06453E+04  5.27804E+03 -2.50867E+04  1.65571E+04 -1.81525E+04  1.96158E+04 -1.46874E+03
  1.25822E+04  1.41530E+04 -1.37001E+03  2.09184E+04 -1.44448E+04  1.17921E+04 -2.08912E+04 -4.40241E+03
 -1.51178E+04 -1.85533E+04 -2.02927E+03 -2.48636E+04  1.11184E+04 -2.05816E+04  2.07772E+04 -1.05604E+04
  1.94446E+04  9.46692E+01  1.39907E+04  4.57202E+03  7.32448E+03  9.10809E+02  1.06996E+04 -1.76722E+03
  1.90516E+04  2.89846E+03  2.15645E+04  1.64426E+04  1.47121E+04  3.27967E+04 -2.58141E+03  3.80157E+04
 -2.21810E+04  3.10869E+04 -3.56841E+04  1.56195E+04 -3.79705E+04 -3.06256E+03 -3.12057E+04 -2.20168E+04
 -1.28719E+04 -3.13776E+04  1.07201E+04 -2.80912E+04  2.36585E+04 -1.36820E+04  2.11589E+04  6.47316E+03
  7.39786E+03  1.60666E+04 -9.99200E+03  1.39286E+04 -1.76055E+04  2.49118E+03 -1.38312E+04 -1.10060E+04
  6.12705E+01 -1.64750E+04  8.77078E+03 -1.27042E+04  1.14116E+04 -1.59091E+03  2.68712E+03  7.09033E+03
 -7.65144E+03  2.95024E+03 -7.35263E+03 -6.07743E+03 -1.18207E+03 -1.55226E+04  1.03253E+04 -1.63967E+04
  1.92109E+04 -8.97866E+03  2.09934E+04  3.08339E+03  1.86743E+04  1.52261E+04  8.01936E+03  2.37919E+04
 -4.02609E+03  2.57047E+04 -1.63853E+04  1.59903E+04 -1.84234E+04  3.96045E+03 -1.28216E+04 -4.18797E+03
 -5.73470E+03 -6.16317E+03 -7.00929E+02  6.58920E+02 -2.69081E+03  3.08580E+03 -5.97392E+03  5.08314E+03
 -1.20235E+04 -6.98357E+02 -1.24764E+04 -1.00293E+04 -5.09553E+03 -1.65058E+04  5.38996E+03 -1.31521E+04
  1.08694E+04 -5.69300E+03  7.42019E+03  3.20852E+03 -4.79360E+01  4.90433E+03 -6.23237E+03 -2.59616E+02
 -6.07965E+03 -8.05100E+03 -8.15028E+02 -1.27179E+04  7.26372E+03 -1.33017E+04  1.64565E+04 -7.27003E+03
  1.92431E+04  1.71025E+03  1.38523E+04  1.12941E+04  2.48965E+03  1.53138E+04 -7.83267E+03  1.26795E+04
 -1.05484E+04  3.62854E+03 -5.59237E+03 -2.36814E+03  1.95525E+03 -3.70579E+03  6.92365E+03 -9.74015E+02
  6.34209E+03  5.81999E+03  1.29154E+03  1.03738E+04 -7.37201E+03  1.00482E+04 -1.27384E+04  2.30290E+03
 -8.40731E+03 -6.60851E+03  7.83235E+02 -1.08978E+04  6.62388E+03 -5.26171E+03  7.14914E+03  2.40213E+03
  1.50444E+03  7.51569E+03 -6.27671E+03  8.72428E+03 -1.00230E+04  3.67247E+03 -1.02553E+04 -3.69440E+03
 -5.90646E+03 -1.18198E+04  2.50009E+03 -1.41738E+04  1.18102E+04 -8.33998E+03  1.26678E+04  1.93900E+03
  7.51500E+03  1.03123E+04 -1.07768E+03  1.25011E+04 -8.98190E+03  6.87131E+03 -9.74643E+03 -1.34297E+03
 -8.91136E+03 -8.06559E+03 -1.73428E+03 -9.45728E+03  4.85366E+03 -7.80607E+03  5.80360E+03 -3.20231E+03
  4.21341E+03  1.34752E+03 -4.97577E+02  1.47432E+03 -1.34232E+02 -2.10331E+03  1.85600E+03 -5.41820E+03
  8.56247E+03 -3.35788E+03  1.15497E+04  1.22226E+03  1.14056E+04  8.15158E+03  8.44426E+03  1.53795E+04
 -3.61920E+03  1.76072E+04 -1.51220E+04  1.33750E+04 -1.95093E+04  2.40479E+03 -1.56468E+04 -6.60241E+03
 -7.54325E+03 -1.28812E+04 -2.87362E+02 -1.08369E+04  4.05966E+03 -5.89412E+03  4.09794E+03 -3.55175E+03
  2.73664E+03 -2.66404E+03  3.29955E+03 -3.38878E+03  4.67861E+03 -2.48273E+03  6.67410E+03 -8.12286E+02
  8.47087E+03  1.87277E+03  3.76443E+03  6.98995E+03 -1.54774E+03  7.98696E+03 -8.49878E+03  6.10775E+03
 -1.11757E+04 -1.10063E+03 -5.89160E+03 -7.35517E+03 -8.21609E+02 -1.13233E+04  6.51524E+03 -1.14598E+04
  1.18462E+04 -6.33676E+03  1.38036E+04  1.70682E+03  1.01828E+04  9.70437E+03  1.88133E+03  1.29207E+04
 -5.23320E+03  1.06549E+04 -7.36993E+03  3.76482E+03 -4.90595E+03 -1.54106E+03 -1.87538E+03 -1.68957E+03
 -8.74274E+02  2.69125E+02 -1.99071E+03  2.15739E+03 -4.51140E+03  2.31551E+03 -7.44111E+03 -1.22371E+03
 -4.83329E+03 -7.35545E+03  8.41361E+01 -1.03404E+04  6.55567E+03 -9.46868E+03  9.56860E+03 -2.48046E+03
  9.84313E+03  5.03232E+03  4.42219E+03  9.07997E+03 -2.25707E+03  1.05371E+04 -7.43169E+03  6.72680E+03
 -9.62877E+03  4.43926E+02 -7.11969E+03 -6.05100E+03 -7.83092E+02 -8.44478E+03  4.01677E+03 -6.22447E+03
  6.64256E+03 -2.39994E+03  4.34433E+03  1.41051E+03  1.23798E+03  3.48748E+03  1.06287E+03  1.22620E+03
  2.63864E+03  9.49487E+02  2.74278E+03  1.45300E+03  2.87235E+03  3.62165E+03  2.60827E+03  4.91961E+03
 -2.10502E+03  8.01996E+03 -7.13316E+03  8.61983E+03 -1.00941E+04  2.25023E+03 -1.06860E+04 -3.63582E+03
 -4.94522E+03 -9.89782E+03  1.56930E+03 -1.14517E+04  6.14658E+03 -6.97673E+03  8.38984E+03 -1.53549E+03
  6.59626E+03  4.09449E+03  1.53989E+03  5.63426E+03 -2.91310E+03  3.69229E+03 -4.09861E+03 -4.76643E+02
 -1.63948E+03 -4.17754E+03  2.47637E+03 -4.47317E+03  4.58805E+03 -2.19268E+03  3.98499E+03  4.13888E+02
  2.66936E+03  1.73155E+03  9.11458E+02  1.21946E+03 -3.29691E+02  1.57304E+03  1.59612E+03 -5.86262E+02
  1.22675E+03 -7.19212E+02  4.41670E+03  1.56437E+03  1.85287E+03  5.33682E+03 -9.69968E+02  7.14348E+03
 -4.78882E+03  4.06523E+03 -6.06955E+03  1.44876E+03 -6.06399E+03 -2.38242E+03 -1.80338E+03 -4.01699E+03
  8.89335E+02 -3.93528E+03  2.64698E+03 -1.84123E+03  1.83221E+03  2.33056E+03 -7.04371E+02  3.22319E+03
 -3.96292E+03  1.81997E+03 -4.22738E+03 -2.49569E+03 -2.69823E+03 -5.05241E+03  7.13479E+02 -5.19513E+03
  2.87590E+03 -2.56489E+03  3.67871E+03 -3.16484E+02  3.49829E+03  1.10675E+03  7.42754E+02  3.22323E+03
 -1.75103E+03  8.79522E+02 -2.44348E+03 -1.87723E+03  1.13226E+03 -3.95563E+03  4.72308E+03 -3.08417E+03
  5.73300E+03  3.74904E+02  6.07866E+03  3.96557E+03  2.12362E+03  6.09448E+03 -1.66101E+03  5.66957E+03
 -4.57818E+03  2.14747E+03 -5.41410E+03 -8.23693E+02 -3.07739E+03 -4.54533E+03  1.22571E+03 -3.47344E+03
  3.72479E+03 -1.87823E+03  3.03124E+03  1.69987E+03  1.32332E+03  3.53704E+03 -3.41804E+02  3.41904E+03
 -1.61501E+03  2.18617E+03 -1.46365E+03  6.45278E+02 -3.91745E+02  6.85680E+02 -1.38523E+03  1.27313E+03
 -1.37194E+03  2.66897E+03 -4.34019E+03  2.05151E+03 -6.06752E+03  5.83312E+02 -7.17430E+03 -3.91825E+03
 -3.43914E+03 -8.19274E+03  1.85355E+03 -9.44638E+03  5.37178E+03 -7.40534E+03  8.50867E+03 -2.70592E+03
  8.09917E+03  1.35290E+03  5.05207E+03  5.50406E+03  3.50902E+02  6.26381E+03 -2.47492E+03  4.85372E+03
 -3.57486E+03  1.48359E+03 -2.30403E+03 -4.05683E+02 -1.25875E+03 -2.51933E+02 -6.77058E+02  1.58876E+02
 -1.43650E+03  6.06090E+02 -1.64932E+03 -3.04163E+02 -1.75734E+02 -1.60585E+03 -1.05932E+02 -2.25113E+03
  3.19414E+03 -2.12436E+03  3.21143E+03  5.17072E+01  4.24048E+03  3.24763E+03  7.83722E+02  5.79529E+03
 -2.71774E+03  7.45724E+03 -6.53138E+03  4.02499E+03 -6.95818E+03 -5.55819E+02 -5.44651E+03 -4.79508E+03
 -2.21405E+03 -5.85909E+03  1.43038E+03 -5.24623E+03  3.52854E+03 -3.01600E+03  3.87444E+03  1.89206E+02
  2.22456E+03  2.01645E+03 -1.88259E+02  1.68093E+03 -1.38646E+03 -1.04224E+02  5.09179E+01 -1.31923E+03
  1.96484E+03 -3.81210E+02  2.25864E+03  6.03508E+02  1.37349E+03  2.31426E+03  6.97596E+01  2.80524E+03
 -2.68434E+03  2.83352E+03 -3.37910E+03  6.30985E+02 -3.53397E+03 -2.85859E+03 -5.95632E+02 -4.78395E+03
  2.79598E+03 -3.84585E+03  4.40852E+03 -8.52759E+02  4.37103E+03  8.62576E+02  2.61813E+03  3.43531E+03
  8.01597E+02  3.53299E+03 -1.04452E+03  2.83452E+03 -2.50224E+03  1.53918E+03 -2.11678E+03  3.20696E+02
 -1.13431E+03 -2.06663E+02 -1.61053E+03  5.50765E+02 -2.24316E+03  7.64242E+02 -2.92085E+03 -6.56580E+02
 -2.88320E+03 -1.45416E+03 -8.63036E+02 -3.73864E+03  2.25143E+03 -3.81103E+03  3.11461E+03 -2.03503E+03
  3.84634E+03  3.81936E+02  1.48843E+03  2.25768E+03 -3.71104E+02  3.94767E+03 -2.51911E+03  2.23254E+03
