 $NMID ID='MM_0lb_SNR800_16hz_g55_12.RAW', FMTDAT='(8E13.5)'
 TRAMP=1., VOLUME=1. $END
  3.09915E+05  4.07969E+02  3.37594E+05  2.50791E+05  8.49875E+04  3.37756E+05 -1.32550E+05  2.51027E+05
 -1.89974E+05  8.26599E+04 -1.11621E+05 -3.25185E+04  9.60763E+02 -5.04543E+04  5.37850E+04 -6.07105E+01
  3.54406E+04  5.29728E+04 -1.64833E+04  7.54890E+04 -6.08588E+04  6.33971E+04 -8.39891E+04  3.19701E+04
 -8.10620E+04 -1.13688E+04 -5.70524E+04 -5.11954E+04 -1.49843E+04 -6.94186E+04  2.72168E+04 -4.57018E+04
  4.01362E+04  3.77477E+03  1.60792E+04  4.77020E+04 -3.43842E+04  4.70757E+04 -6.64029E+04 -9.19285E+01
 -5.32719E+04 -5.67927E+04 -6.61541E+03 -7.68572E+04  3.35891E+04 -5.49224E+04  4.76427E+04 -1.74862E+04
  4.31978E+04  1.12457E+04  3.18761E+04  2.52074E+04  1.58888E+04  2.90038E+04 -5.33391E+03  2.68002E+04
 -2.20865E+04  1.25438E+04 -1.85778E+04 -5.15605E+03  5.42183E+03 -7.35903E+03  2.19659E+04  1.21236E+04
  7.25561E+03  3.47405E+04 -3.17242E+04  3.52654E+04 -6.28387E+04  2.28232E+03 -5.67629E+04 -4.22850E+04
 -1.27652E+04 -6.26691E+04  3.94660E+04 -4.51265E+04  5.77579E+04 -2.02750E+03  3.37674E+04  3.18873E+04
 -6.24341E+03  3.57531E+04 -2.96611E+04  1.54864E+04 -2.98479E+04 -4.73320E+03 -1.62973E+04 -1.07899E+04
 -8.45643E+03 -1.27849E+04 -4.34129E+02 -1.78452E+04  7.28221E+03 -2.29371E+04  1.53491E+04 -1.36133E+04
  1.13111E+04  5.03791E+03 -7.49929E+03  1.26149E+04 -2.06560E+04 -4.25015E+03 -8.50794E+03 -3.29792E+04
  2.21703E+04 -4.29081E+04  4.75773E+04 -1.94964E+04  4.44626E+04  1.92286E+04  1.53878E+04  4.35450E+04
 -1.57614E+04  3.30601E+04 -2.56078E+04  1.85742E+03 -9.58525E+03 -2.74603E+04  2.06963E+04 -3.35097E+04
  4.05774E+04 -8.61352E+03  3.44792E+04  2.35118E+04  1.74073E+04  4.57360E+04 -7.90897E+03  4.91570E+04
 -3.13036E+04  3.30645E+04 -4.11645E+04  9.44028E+03 -4.17071E+04 -1.61878E+04 -2.27163E+04 -3.73547E+04
  7.22333E+03 -3.68832E+04  3.09687E+04 -1.43482E+04  2.85443E+04  1.10771E+04  3.90543E+03  1.87574E+04
 -1.33662E+04  8.38643E+03 -1.04452E+04 -7.66243E+03  5.94401E+03 -1.06512E+04  1.79183E+04  6.11844E+03
  1.36364E+04  2.19394E+04 -6.18194E+03  2.45579E+04 -2.22489E+04  1.10801E+04 -2.73303E+04 -5.10540E+03
 -1.97283E+04 -1.69763E+04 -7.73724E+03 -1.96994E+04  3.79652E+03 -1.84710E+04  1.47672E+04 -1.74801E+04
  2.50967E+04 -1.23931E+04  3.12697E+04  2.75610E+03  2.32448E+04  1.89024E+04  4.29976E+03  3.54005E+04
 -1.70318E+04  2.97461E+04 -2.76453E+04  1.02321E+04 -2.09084E+04 -1.03216E+04 -4.33883E+03 -1.35968E+04
  1.95199E+03 -3.06866E+03 -4.00888E+03  6.36700E+03 -1.53732E+04  4.88312E+03 -1.56008E+04 -6.61353E+03
 -9.81875E+03 -1.81487E+04  4.92013E+03 -2.18096E+04  1.48975E+04 -1.57772E+04  1.70954E+04 -1.70237E+03
  1.09030E+04  1.28283E+04 -9.54642E+02  1.79624E+04 -1.21610E+04  1.01168E+04 -1.79819E+04 -3.80802E+03
 -1.34338E+04 -1.63734E+04 -1.86885E+03 -2.18583E+04  1.01921E+04 -1.80755E+04  1.82726E+04 -8.85656E+03
  1.68658E+04  1.56067E+02  1.22226E+04  4.23272E+03  6.48535E+03  6.41465E+02  9.40326E+03 -1.56197E+03
  1.62617E+04  2.80503E+03  1.81122E+04  1.45779E+04  1.16173E+04  2.86495E+04 -2.60475E+03  3.20649E+04
 -1.84736E+04  2.55062E+04 -2.99060E+04  1.24866E+04 -3.11351E+04 -2.40142E+03 -2.57166E+04 -1.78907E+04
 -1.15552E+04 -2.55031E+04  8.85253E+03 -2.31799E+04  1.99362E+04 -1.22850E+04  1.82639E+04  4.60118E+03
  6.94556E+03  1.34558E+04 -8.50569E+03  1.21085E+04 -1.54315E+04  2.55617E+03 -1.18411E+04 -9.49446E+03
  1.36426E+02 -1.45064E+04  7.52936E+03 -1.09713E+04  9.54515E+03 -1.11665E+03  1.92421E+03  6.44023E+03
 -6.63811E+03  2.22249E+03 -5.15188E+03 -5.30692E+03 -3.74243E+01 -1.26406E+04  9.32109E+03 -1.30769E+04
  1.53475E+04 -6.57192E+03  1.58603E+04  3.03178E+03  1.36703E+04  1.21095E+04  6.52171E+03  1.83675E+04
 -2.96671E+03  2.01464E+04 -1.29643E+04  1.27814E+04 -1.46201E+04  3.25059E+03 -1.04844E+04 -2.71335E+03
 -5.26446E+03 -4.20995E+03 -5.01539E+02  1.08221E+03 -2.34140E+03  2.31780E+03 -4.70787E+03  4.13268E+03
 -1.00779E+04 -8.20435E+02 -1.04203E+04 -8.59043E+03 -4.15740E+03 -1.35753E+04  4.34260E+03 -1.03681E+04
  8.90512E+03 -4.21224E+03  6.30340E+03  2.82801E+03  4.05668E+02  3.98579E+03 -4.56104E+03 -5.71278E+01
 -4.80828E+03 -6.51447E+03 -9.58921E+02 -9.58719E+03  5.05088E+03 -1.01750E+04  1.24729E+04 -5.41792E+03
  1.47173E+04  1.27873E+03  1.09388E+04  8.48304E+03  1.99804E+03  1.14491E+04 -6.61316E+03  1.03130E+04
 -8.59612E+03  3.22316E+03 -4.60639E+03 -1.62338E+03  1.36877E+03 -2.48224E+03  5.41200E+03 -9.69654E+02
  4.86944E+03  4.30274E+03  1.05147E+03  7.90222E+03 -5.37954E+03  7.92087E+03 -9.79840E+03  1.77592E+03
 -6.59987E+03 -4.87102E+03  3.19997E+02 -8.25885E+03  5.00341E+03 -4.14433E+03  4.86438E+03  1.95698E+03
  8.62849E+02  4.83887E+03 -4.99783E+03  6.34069E+03 -7.10216E+03  2.94372E+03 -6.48811E+03 -2.09700E+03
 -3.96435E+03 -8.38872E+03  1.83196E+03 -9.52565E+03  8.65815E+03 -6.06645E+03  9.01056E+03  1.57245E+03
  5.72434E+03  7.38147E+03 -3.19814E+02  9.17490E+03 -6.77653E+03  5.43776E+03 -7.14079E+03 -6.37371E+02
 -6.79876E+03 -6.35754E+03 -1.32330E+03 -6.50884E+03  3.68883E+03 -5.92202E+03  4.12608E+03 -3.07496E+03
  3.10878E+03  5.40547E+02 -2.44817E+01  1.74353E+03  1.16062E+02 -8.48666E+02  7.87772E+02 -3.27690E+03
  5.43256E+03 -1.70686E+03  7.67287E+03  9.02571E+02  7.73511E+03  4.99653E+03  6.46770E+03  1.02984E+04
 -1.88888E+03  1.21805E+04 -1.06191E+04  9.08044E+03 -1.34592E+04  1.44055E+03 -1.09000E+04 -3.89581E+03
 -5.38101E+03 -9.07671E+03 -5.90563E+02 -7.10070E+03  2.87280E+03 -3.54042E+03  2.30743E+03 -3.04947E+03
  2.07217E+03 -1.91871E+03  2.62566E+03 -2.69208E+03  3.98305E+03 -1.52046E+03  4.51632E+03 -9.89676E+00
  5.95349E+03  1.30407E+03  2.08621E+03  4.72192E+03 -1.50554E+03  4.69555E+03 -5.90917E+03  3.93292E+03
 -6.96427E+03 -1.03062E+03 -3.41002E+03 -4.59871E+03 -1.07736E+02 -7.23762E+03  4.02936E+03 -7.53472E+03
  7.49336E+03 -4.44419E+03  9.31842E+03  6.68843E+02  6.72010E+03  6.39590E+03  1.39931E+03  8.32927E+03
 -3.22982E+03  7.41055E+03 -4.86788E+03  2.57475E+03 -3.14266E+03 -1.17155E+03 -1.18254E+03 -9.22800E+02
 -6.54282E+02  2.67237E+02 -1.09078E+03  2.21857E+03 -3.15450E+03  1.40507E+03 -5.42392E+03 -3.95965E+02
 -2.89851E+03 -5.28480E+03  8.00280E+02 -6.62766E+03  4.14866E+03 -6.35208E+03  5.49073E+03 -1.66698E+03
  6.46565E+03  3.01822E+03  2.73960E+03  5.24578E+03 -1.16248E+03  6.40536E+03 -4.25730E+03  3.91717E+03
 -5.69614E+03  6.40552E+02 -4.84557E+03 -3.54259E+03 -3.66488E+02 -5.23899E+03  2.51620E+03 -3.85861E+03
  4.02814E+03 -1.56842E+03  2.62272E+03  9.76258E+02  1.10976E+03  2.01557E+03  1.03639E+03  8.57856E+02
  2.09355E+03  5.17374E+02  1.93417E+03  1.10905E+03  1.66260E+03  2.40607E+03  1.61880E+03  2.84910E+03
 -1.39149E+03  4.61012E+03 -4.13654E+03  5.51472E+03 -5.38863E+03  1.65236E+03 -6.06683E+03 -1.65111E+03
 -2.89140E+03 -5.94431E+03  9.22582E+02 -6.67804E+03  3.18209E+03 -4.04367E+03  4.87470E+03 -1.41640E+03
  3.93367E+03  2.49364E+03  7.86850E+02  3.43490E+03 -1.46755E+03  1.84018E+03 -2.09786E+03 -3.62840E+02
 -1.09953E+03 -2.58298E+03  1.42854E+03 -2.36567E+03  1.97454E+03 -1.28606E+03  2.22015E+03  6.99187E+02
  1.32544E+03  8.25587E+02  6.17031E+02  3.37262E+02 -3.53213E+02  6.77397E+02  1.61756E+03 -1.19603E+02
  3.48437E+02 -3.29421E+02  2.65961E+03  1.14368E+03  7.82505E+02  3.03126E+03 -7.29499E+02  3.84748E+03
 -2.33855E+03  2.07671E+03 -3.57292E+03  5.45382E+02 -3.38652E+03 -1.14484E+03 -8.92805E+02 -1.90393E+03
  7.66332E+02 -1.98801E+03  1.18952E+03 -1.08357E+03  1.18154E+03  1.62509E+03 -8.82270E+02  1.34585E+03
 -1.92501E+03  9.87815E+02 -2.14362E+03 -1.66151E+03 -1.63150E+03 -3.34506E+03  3.97637E+02 -2.53460E+03
  1.14908E+03 -1.14693E+03  1.59435E+03  1.05333E+02  2.12058E+03  2.03136E+02  3.29251E+02  1.74622E+03
 -6.82658E+02  1.42055E+02 -1.38153E+03 -2.21525E+02  6.30571E+02 -1.84987E+03  2.41581E+03 -1.55773E+03
  2.59470E+03  2.42935E+02  3.72775E+03  1.64261E+03  1.14245E+03  2.69759E+03 -5.37221E+02  3.02775E+03
 -2.13703E+03  6.43218E+02 -2.59999E+03 -2.51111E+02 -1.71021E+03 -1.78187E+03  5.03756E+02 -1.50639E+03
  2.03289E+03 -9.53693E+02  1.27505E+03  1.12830E+03  4.84984E+02  1.91198E+03  6.00750E+01  1.64403E+03
 -4.75867E+02  1.29731E+03 -7.28460E+02  1.51962E+02 -1.57989E+02  6.00925E+02 -1.05448E+03  6.41987E+02
 -7.73092E+02  1.20956E+03 -2.44805E+03  6.37382E+02 -2.90878E+03  5.56984E+01 -3.33644E+03 -1.71982E+03
 -1.68889E+03 -3.53918E+03  6.94999E+02 -4.61004E+03  2.11055E+03 -3.60777E+03  4.25800E+03 -1.47996E+03
  4.00494E+03  2.59621E+02  2.42565E+03  2.60241E+03 -3.26348E+02  2.48073E+03 -1.13275E+03  2.08081E+03
 -1.84332E+03  8.41456E+02 -8.75222E+02 -1.52372E+02 -5.97071E+02  3.67506E+02 -5.94816E+02  2.97475E+02
 -1.19930E+03 -2.49482E+02 -1.05106E+03  7.02630E+01  2.61820E+02 -9.46618E+02 -2.84337E+01 -1.08913E+03
  1.48984E+03 -1.01916E+03  1.25078E+03 -1.97560E+02  1.65339E+03  1.56772E+03  2.35865E+01  2.56299E+03
 -1.50432E+03  3.60498E+03 -2.95991E+03  1.74980E+03 -3.03198E+03 -2.26101E+02 -2.09281E+03 -2.07023E+03
 -1.33908E+03 -2.44684E+03  7.26184E+02 -2.29597E+03  1.50667E+03 -1.07040E+03  1.31771E+03 -2.36134E+01
  1.16880E+03  5.39843E+02  1.15578E+02  4.91306E+02 -6.37608E+02 -1.69635E+02 -4.65901E+00 -4.15578E+02
  8.45036E+02 -5.43696E+01  5.87974E+02  6.78411E+02  4.11139E+02  8.27749E+02  9.78282E+01  8.10782E+02
 -9.39145E+02  8.36934E+02 -1.17202E+03  2.56497E+02 -1.47320E+03 -1.02106E+03  1.01897E+02 -2.02909E+03
  1.21886E+03 -1.30040E+03  1.40450E+03 -2.10495E+02  1.98295E+03 -4.19134E+02  1.07613E+03  1.25409E+03
  6.06685E+02  1.17835E+03 -6.87655E+02  1.17101E+03 -9.01273E+02  1.18009E+03 -7.11660E+02  3.92207E+02
 -5.03958E+02 -1.91701E+02 -6.22180E+02  1.46290E+02 -6.79465E+02  4.11759E+02 -1.19755E+03 -6.35127E+02
 -1.64864E+03 -2.78587E+02 -4.50008E+02 -1.52971E+03  9.13931E+02 -2.17452E+03  1.43684E+03 -9.70574E+02
  1.35671E+03 -2.32053E+00  1.71655E+02  9.41037E+02 -7.01673E+01  1.40649E+03 -6.10956E+02  1.06661E+03
