 $NMID ID='MM_0lb_SNR800_11hz_g45_89.RAW', FMTDAT='(8E13.5)'
 TRAMP=1., VOLUME=1. $END
  3.10124E+05  3.38613E+02  3.37684E+05  2.50598E+05  8.46864E+04  3.38356E+05 -1.32694E+05  2.51544E+05
 -1.90532E+05  8.36560E+04 -1.12261E+05 -3.24863E+04  4.35038E+02 -5.04278E+04  5.36974E+04 -5.66401E+02
  3.55730E+04  5.25560E+04 -1.66054E+04  7.55573E+04 -6.09701E+04  6.41845E+04 -8.49178E+04  3.21795E+04
 -8.17126E+04 -1.12878E+04 -5.76438E+04 -5.14913E+04 -1.51937E+04 -7.01285E+04  2.79977E+04 -4.61574E+04
  4.03718E+04  3.82191E+03  1.65568E+04  4.81632E+04 -3.45635E+04  4.75808E+04 -6.73911E+04 -1.86589E+02
 -5.41325E+04 -5.73963E+04 -6.75863E+03 -7.79508E+04  3.40608E+04 -5.60312E+04  4.90947E+04 -1.79453E+04
  4.43752E+04  1.11296E+04  3.24828E+04  2.63739E+04  1.58788E+04  2.99065E+04 -5.30693E+03  2.72014E+04
 -2.21895E+04  1.18138E+04 -1.81116E+04 -5.14537E+03  6.24618E+03 -7.54296E+03  2.29503E+04  1.26493E+04
  7.25094E+03  3.62384E+04 -3.30828E+04  3.59505E+04 -6.44730E+04  2.15668E+03 -5.79905E+04 -4.41372E+04
 -1.26272E+04 -6.42416E+04  4.03910E+04 -4.63146E+04  5.98893E+04 -2.37562E+03  3.56814E+04  3.32575E+04
 -5.89266E+03  3.72817E+04 -3.04162E+04  1.75497E+04 -3.21570E+04 -3.87388E+03 -1.79380E+04 -1.15679E+04
 -8.96600E+03 -1.39059E+04 -4.04165E+02 -1.89136E+04  7.78765E+03 -2.32906E+04  1.57714E+04 -1.31544E+04
  1.13159E+04  5.58504E+03 -9.36177E+03  1.27580E+04 -2.22561E+04 -5.69086E+03 -8.43905E+03 -3.57486E+04
  2.39012E+04 -4.56238E+04  5.02449E+04 -2.03235E+04  4.67404E+04  2.02689E+04  1.62911E+04  4.54010E+04
 -1.62926E+04  3.48587E+04 -2.63227E+04  2.20684E+03 -1.09419E+04 -2.84105E+04  2.13984E+04 -3.55646E+04
  4.26768E+04 -9.93161E+03  3.80068E+04  2.40699E+04  1.99846E+04  4.86176E+04 -8.03285E+03  5.33776E+04
 -3.35399E+04  3.59491E+04 -4.46520E+04  1.00244E+04 -4.51454E+04 -1.74300E+04 -2.45565E+04 -4.01176E+04
  7.64572E+03 -4.01026E+04  3.25172E+04 -1.57277E+04  3.08163E+04  1.10197E+04  4.22439E+03  2.00214E+04
 -1.35502E+04  9.21409E+03 -1.08648E+04 -7.83660E+03  6.01004E+03 -1.04889E+04  1.84422E+04  5.64016E+03
  1.40499E+04  2.26382E+04 -5.48859E+03  2.62209E+04 -2.28512E+04  1.25685E+04 -2.96381E+04 -3.78345E+03
 -2.26409E+04 -1.77981E+04 -9.81452E+03 -2.22578E+04  4.02055E+03 -2.24906E+04  1.74819E+04 -2.06167E+04
  2.90636E+04 -1.35523E+04  3.51952E+04  3.57551E+03  2.54515E+04  2.21607E+04  4.30033E+03  3.86525E+04
 -1.87495E+04  3.19696E+04 -2.93674E+04  1.10136E+04 -2.14237E+04 -1.05473E+04 -4.28297E+03 -1.30996E+04
  8.52672E+02 -2.28730E+03 -6.21537E+03  7.19062E+03 -1.78279E+04  5.22124E+03 -1.81793E+04 -8.41201E+03
 -1.09020E+04 -2.11014E+04  5.60877E+03 -2.52417E+04  1.69175E+04 -1.82271E+04  2.06077E+04 -1.63513E+03
  1.29674E+04  1.41833E+04 -1.27909E+03  2.10795E+04 -1.47557E+04  1.20451E+04 -2.12486E+04 -4.64442E+03
 -1.56096E+04 -1.89994E+04 -2.23812E+03 -2.54151E+04  1.16719E+04 -2.08241E+04  2.12687E+04 -1.07377E+04
  1.96277E+04  8.19446E+01  1.44935E+04  4.63289E+03  7.60445E+03  1.34167E+03  1.05929E+04 -2.16437E+03
  1.97997E+04  3.10407E+03  2.21061E+04  1.65559E+04  1.53117E+04  3.41429E+04 -2.47862E+03  3.92621E+04
 -2.26640E+04  3.22547E+04 -3.66256E+04  1.65487E+04 -3.89465E+04 -2.83042E+03 -3.15883E+04 -2.24064E+04
 -1.38589E+04 -3.21848E+04  1.17510E+04 -2.86851E+04  2.47061E+04 -1.41717E+04  2.16491E+04  6.69270E+03
  7.74978E+03  1.67378E+04 -1.00750E+04  1.40140E+04 -1.82108E+04  2.66802E+03 -1.36424E+04 -1.20500E+04
 -5.05482E+02 -1.70793E+04  9.20138E+03 -1.28333E+04  1.17405E+04 -1.48344E+03  2.75476E+03  7.44510E+03
 -7.67419E+03  3.23597E+03 -6.92409E+03 -5.76941E+03 -1.11740E+03 -1.57515E+04  1.03192E+04 -1.71298E+04
  1.98702E+04 -9.37908E+03  2.19951E+04  3.35682E+03  1.93907E+04  1.58455E+04  8.99339E+03  2.46528E+04
 -4.51341E+03  2.66005E+04 -1.69436E+04  1.63487E+04 -1.90333E+04  3.71761E+03 -1.36775E+04 -5.03632E+03
 -5.76359E+03 -6.02497E+03 -7.90282E+02  7.92727E+02 -2.66871E+03  2.91055E+03 -5.93750E+03  4.50726E+03
 -1.24896E+04 -8.71494E+02 -1.26797E+04 -1.03990E+04 -5.23168E+03 -1.70727E+04  5.40231E+03 -1.35058E+04
  1.13422E+04 -5.78463E+03  7.67054E+03  3.50514E+03  6.77882E+01  4.88140E+03 -6.49657E+03  8.65744E+01
 -6.12599E+03 -8.27059E+03 -1.35252E+03 -1.33103E+04  7.48303E+03 -1.39648E+04  1.70466E+04 -6.92354E+03
  2.00512E+04  1.62426E+03  1.46355E+04  1.17156E+04  3.06505E+03  1.58957E+04 -8.23850E+03  1.31852E+04
 -1.07770E+04  3.98009E+03 -5.90282E+03 -2.63993E+03  1.65949E+03 -3.61568E+03  7.22002E+03 -1.27520E+03
  6.12698E+03  6.17614E+03  8.36042E+02  1.11092E+04 -7.85578E+03  1.02960E+04 -1.35158E+04  2.72589E+03
 -9.27745E+03 -6.63949E+03  3.82055E+02 -1.15856E+04  7.05797E+03 -5.71890E+03  7.61169E+03  2.60240E+03
  1.52301E+03  8.10335E+03 -7.05876E+03  9.33198E+03 -1.08410E+04  4.53505E+03 -1.10778E+04 -3.47998E+03
 -6.58397E+03 -1.29877E+04  3.13777E+03 -1.47440E+04  1.23856E+04 -8.99760E+03  1.35328E+04  2.06653E+03
  8.45588E+03  1.08941E+04 -1.14367E+03  1.29466E+04 -9.27710E+03  7.39937E+03 -1.04065E+04 -1.44446E+03
 -8.99767E+03 -8.76049E+03 -1.89348E+03 -9.93864E+03  5.05223E+03 -8.23346E+03  6.44995E+03 -3.53324E+03
  4.45444E+03  1.55585E+03 -5.87208E+02  1.78109E+03  9.68369E+01 -2.02305E+03  2.06662E+03 -5.65616E+03
  9.16534E+03 -3.58661E+03  1.27193E+04  1.92996E+03  1.22556E+04  8.28704E+03  8.61082E+03  1.70301E+04
 -3.97258E+03  1.91205E+04 -1.57104E+04  1.39094E+04 -2.07710E+04  2.66493E+03 -1.64521E+04 -7.21778E+03
 -8.00460E+03 -1.35081E+04 -4.31644E+02 -1.12781E+04  4.41336E+03 -6.34326E+03  4.45749E+03 -4.08925E+03
  2.91288E+03 -2.52977E+03  3.41058E+03 -3.46989E+03  5.05941E+03 -2.65317E+03  6.68293E+03 -6.34272E+02
  8.92626E+03  2.07103E+03  4.06611E+03  7.29192E+03 -2.29363E+03  8.30465E+03 -9.06952E+03  6.96691E+03
 -1.16639E+04 -1.37166E+03 -7.09956E+03 -8.03044E+03 -5.31785E+02 -1.22874E+04  6.84695E+03 -1.21950E+04
  1.27661E+04 -7.09566E+03  1.53003E+04  2.14346E+03  1.04608E+04  1.05085E+04  1.67874E+03  1.39363E+04
 -5.61729E+03  1.17130E+04 -7.98813E+03  3.92419E+03 -5.42683E+03 -1.37162E+03 -1.83346E+03 -1.40831E+03
 -9.71560E+02 -1.34312E+02 -1.80007E+03  2.75748E+03 -5.11989E+03  2.05388E+03 -7.68491E+03 -1.40646E+03
 -5.36473E+03 -7.86613E+03  6.20958E+01 -1.16354E+04  7.03442E+03 -1.06254E+04  1.06978E+04 -3.41854E+03
  1.10860E+04  5.65931E+03  5.15435E+03  1.01668E+04 -2.10960E+03  1.10704E+04 -8.03252E+03  7.00026E+03
 -1.04821E+04  5.20852E+02 -8.06843E+03 -6.92714E+03 -1.11127E+03 -9.36519E+03  4.90598E+03 -6.91803E+03
  7.07771E+03 -2.68503E+03  4.54113E+03  1.76786E+03  1.72722E+03  3.39837E+03  1.34563E+03  1.86286E+03
  2.47317E+03  1.10120E+03  2.76520E+03  1.64168E+03  3.32513E+03  4.04685E+03  3.01943E+03  5.97319E+03
 -2.45491E+03  8.60272E+03 -7.49976E+03  9.20521E+03 -1.11626E+04  2.28438E+03 -1.16586E+04 -3.96031E+03
 -5.50936E+03 -1.14061E+04  1.58415E+03 -1.25465E+04  6.72123E+03 -8.06149E+03  9.28418E+03 -2.09882E+03
  7.19047E+03  4.54930E+03  1.25071E+03  6.47437E+03 -2.85152E+03  3.95465E+03 -4.53654E+03 -5.95574E+02
 -2.30427E+03 -4.58479E+03  2.40424E+03 -4.89893E+03  4.65743E+03 -2.28863E+03  4.49112E+03  1.17963E+03
  2.60137E+03  2.17251E+03  1.11226E+03  1.55819E+03 -5.34966E+02  1.07954E+03  1.23880E+03 -3.62513E+02
  1.93520E+03 -7.08297E+02  4.69619E+03  1.83063E+03  2.32273E+03  6.35141E+03 -1.15788E+03  8.07432E+03
 -5.35401E+03  5.14109E+03 -6.98767E+03  1.78762E+03 -6.12000E+03 -2.25865E+03 -2.17151E+03 -4.29548E+03
  6.18548E+02 -4.21657E+03  3.05988E+03 -1.79590E+03  2.34017E+03  2.26673E+03 -1.39068E+03  3.55809E+03
 -4.84782E+03  1.98295E+03 -5.20510E+03 -2.95678E+03 -2.96648E+03 -6.13395E+03  3.80806E+02 -5.89763E+03
  3.12698E+03 -3.40941E+03  4.51061E+03 -6.11045E+02  3.50889E+03  1.17918E+03  8.96569E+02  3.37992E+03
 -1.91598E+03  1.07661E+03 -2.46223E+03 -2.02963E+03  9.36220E+02 -4.48264E+03  5.61201E+03 -3.59362E+03
  6.96890E+03  7.50349E+02  6.75651E+03  4.52896E+03  2.43622E+03  7.17338E+03 -2.04367E+03  6.41857E+03
 -5.71944E+03  2.30306E+03 -6.07045E+03 -7.64020E+02 -3.08296E+03 -4.68565E+03  1.31937E+03 -4.33331E+03
  4.55528E+03 -2.42719E+03  3.94660E+03  1.75710E+03  9.42736E+02  4.18102E+03 -3.31020E+02  3.87404E+03
 -1.69720E+03  2.70746E+03 -1.68230E+03  1.00042E+03 -6.91797E+02  9.13957E+02 -1.53248E+03  1.59118E+03
 -1.76861E+03  2.85632E+03 -5.04626E+03  2.53765E+03 -6.76408E+03  1.46294E+02 -8.12839E+03 -4.43272E+03
 -3.53053E+03 -9.32666E+03  2.09981E+03 -1.05718E+04  6.58280E+03 -8.47172E+03  1.01826E+04 -3.25452E+03
  9.59829E+03  1.64215E+03  6.01142E+03  6.60527E+03  1.74817E+02  6.95435E+03 -2.93586E+03  5.18065E+03
 -3.92491E+03  2.86559E+03 -2.44098E+03 -4.38740E+02 -7.01309E+02 -2.03453E+02 -9.42615E+02 -2.15967E+02
 -1.54218E+03  2.77321E+02 -1.53720E+03  1.72248E+01 -2.06325E+02 -1.53253E+03 -2.51851E+02 -2.67787E+03
  3.44428E+03 -2.00158E+03  4.00712E+03  5.73002E+01  4.93719E+03  3.84572E+03  1.56738E+03  7.31108E+03
 -3.39819E+03  8.10808E+03 -7.48132E+03  4.75609E+03 -8.13477E+03 -2.96977E+02 -6.13831E+03 -5.10001E+03
 -2.80711E+03 -7.44671E+03  1.79515E+03 -6.51222E+03  4.68481E+03 -3.64089E+03  4.56646E+03  5.43340E+02
  2.50724E+03  2.58596E+03  1.57236E+02  2.20617E+03 -1.03752E+03 -2.49134E+02 -2.17413E+02 -1.66289E+03
  2.37039E+03 -9.11932E+02  2.43278E+03  1.12900E+03  1.83738E+03  2.71273E+03  1.24867E+02  3.31307E+03
 -2.87803E+03  3.36921E+03 -4.40870E+03  5.81247E+02 -3.77184E+03 -3.38762E+03 -7.52669E+02 -5.71966E+03
  3.28366E+03 -4.59951E+03  5.14780E+03 -1.04195E+03  4.89148E+03  1.02811E+03  2.95520E+03  4.34873E+03
  9.31903E+02  4.24982E+03 -1.63126E+03  3.85566E+03 -2.57071E+03  1.82327E+03 -2.50619E+03  6.16853E+02
 -1.10272E+03  1.59713E+02 -1.33923E+03  4.97700E+02 -2.53851E+03  1.08867E+03 -3.71586E+03 -6.39080E+02
 -3.35743E+03 -2.20898E+03 -1.26665E+03 -4.66898E+03  2.13981E+03 -5.08425E+03  4.02322E+03 -2.20075E+03
  4.37390E+03  6.55951E+02  1.77664E+03  2.94536E+03 -2.89533E+02  4.58119E+03 -3.38999E+03  2.74248E+03
