 $NMID ID='MM_0lb_SNR800_11hz_g55_45.RAW', FMTDAT='(8E13.5)'
 TRAMP=1., VOLUME=1. $END
  3.09485E+05  1.86768E+02  3.37877E+05  2.50800E+05  8.45515E+04  3.38805E+05 -1.32389E+05  2.51455E+05
 -1.90755E+05  8.35007E+04 -1.12473E+05 -3.26327E+04  4.93186E+02 -5.05961E+04  5.37181E+04 -3.73556E+02
  3.54792E+04  5.31454E+04 -1.66583E+04  7.62087E+04 -6.14394E+04  6.44064E+04 -8.51328E+04  3.22144E+04
 -8.21818E+04 -1.14314E+04 -5.80567E+04 -5.16045E+04 -1.54693E+04 -7.06881E+04  2.81869E+04 -4.64867E+04
  4.04599E+04  3.98946E+03  1.62701E+04  4.82642E+04 -3.46245E+04  4.76890E+04 -6.77661E+04 -1.98342E+02
 -5.48739E+04 -5.76415E+04 -6.96110E+03 -7.84921E+04  3.41635E+04 -5.60709E+04  4.92559E+04 -1.77559E+04
  4.45965E+04  1.15600E+04  3.24395E+04  2.58581E+04  1.60547E+04  3.02678E+04 -6.04135E+03  2.79940E+04
 -2.23598E+04  1.21064E+04 -1.83458E+04 -5.63466E+03  6.77254E+03 -7.33163E+03  2.30557E+04  1.33725E+04
  7.06255E+03  3.70613E+04 -3.33558E+04  3.68647E+04 -6.48599E+04  2.47383E+03 -5.82655E+04 -4.38180E+04
 -1.22103E+04 -6.51685E+04  4.11944E+04 -4.68705E+04  6.02810E+04 -2.61166E+03  3.58303E+04  3.39417E+04
 -5.09196E+03  3.83462E+04 -3.12735E+04  1.78060E+04 -3.23774E+04 -3.84054E+03 -1.89952E+04 -1.16352E+04
 -9.47578E+03 -1.43194E+04 -9.77277E+01 -1.91381E+04  8.08964E+03 -2.34370E+04  1.58550E+04 -1.28513E+04
  1.05251E+04  6.08827E+03 -9.92778E+03  1.28607E+04 -2.29607E+04 -6.15498E+03 -8.79628E+03 -3.63788E+04
  2.46430E+04 -4.59301E+04  5.07971E+04 -2.05032E+04  4.77176E+04  2.06744E+04  1.67184E+04  4.62486E+04
 -1.68782E+04  3.53240E+04 -2.68109E+04  2.40998E+03 -1.08974E+04 -2.88844E+04  2.14528E+04 -3.58824E+04
  4.33231E+04 -1.11813E+04  3.89651E+04  2.46524E+04  2.07137E+04  4.98802E+04 -8.05950E+03  5.44575E+04
 -3.45036E+04  3.69502E+04 -4.58070E+04  1.04170E+04 -4.62600E+04 -1.83892E+04 -2.56205E+04 -4.09621E+04
  7.68157E+03 -4.09149E+04  3.33215E+04 -1.68002E+04  3.14688E+04  1.09816E+04  4.60043E+03  2.03972E+04
 -1.38159E+04  9.38043E+03 -1.09566E+04 -7.55643E+03  5.55997E+03 -1.08904E+04  1.84762E+04  5.61308E+03
  1.44026E+04  2.24576E+04 -5.05830E+03  2.64361E+04 -2.28692E+04  1.36202E+04 -3.07963E+04 -3.25277E+03
 -2.43743E+04 -1.82881E+04 -1.07176E+04 -2.40106E+04  4.30971E+03 -2.38104E+04  1.89745E+04 -2.17009E+04
  3.03098E+04 -1.38458E+04  3.68308E+04  4.09451E+03  2.62397E+04  2.33050E+04  4.45611E+03  3.98141E+04
 -1.94415E+04  3.29047E+04 -2.99613E+04  1.16859E+04 -2.16713E+04 -1.04125E+04 -4.29603E+03 -1.31021E+04
  1.30799E+03 -1.55035E+03 -6.95774E+03  7.58287E+03 -1.89143E+04  5.18487E+03 -1.87116E+04 -8.75874E+03
 -1.16235E+04 -2.21692E+04  5.63220E+03 -2.64193E+04  1.78776E+04 -1.86589E+04  2.13152E+04 -1.39216E+03
  1.40152E+04  1.50412E+04 -1.45269E+03  2.20523E+04 -1.53361E+04  1.28146E+04 -2.22228E+04 -4.69196E+03
 -1.62612E+04 -2.00621E+04 -2.18435E+03 -2.63677E+04  1.20212E+04 -2.20386E+04  2.18905E+04 -1.10568E+04
  2.06075E+04  2.05072E+02  1.52432E+04  4.68278E+03  8.15245E+03  8.97065E+02  1.17211E+04 -2.11719E+03
  2.03119E+04  3.13880E+03  2.36403E+04  1.72559E+04  1.61501E+04  3.50678E+04 -2.82508E+03  4.11288E+04
 -2.34909E+04  3.42398E+04 -3.89520E+04  1.73691E+04 -4.12094E+04 -3.08719E+03 -3.32698E+04 -2.36721E+04
 -1.35270E+04 -3.43878E+04  1.21432E+04 -3.03949E+04  2.58824E+04 -1.44834E+04  2.28500E+04  7.14113E+03
  8.00190E+03  1.72391E+04 -1.08089E+04  1.49151E+04 -1.85693E+04  2.95288E+03 -1.43728E+04 -1.23792E+04
 -2.55181E+02 -1.83919E+04  9.89345E+03 -1.34863E+04  1.24124E+04 -1.35248E+03  2.57753E+03  8.39156E+03
 -8.23916E+03  3.75418E+03 -8.33109E+03 -6.67621E+03 -1.44138E+03 -1.64891E+04  1.09378E+04 -1.81435E+04
  2.10362E+04 -9.85033E+03  2.36116E+04  2.96258E+03  2.05276E+04  1.64063E+04  9.45648E+03  2.64287E+04
 -4.57162E+03  2.86870E+04 -1.85470E+04  1.77148E+04 -2.02474E+04  3.87881E+03 -1.38643E+04 -5.17795E+03
 -6.26430E+03 -6.45088E+03 -9.48002E+02  6.52815E+02 -2.58708E+03  3.33709E+03 -6.66432E+03  5.25903E+03
 -1.30977E+04 -8.68087E+02 -1.35823E+04 -1.09020E+04 -5.56786E+03 -1.78905E+04  5.73352E+03 -1.43576E+04
  1.19413E+04 -5.60844E+03  8.45314E+03  3.97366E+03 -2.58658E+01  5.37271E+03 -7.00782E+03  2.49299E+01
 -6.49404E+03 -9.37744E+03 -1.08045E+03 -1.40729E+04  8.42565E+03 -1.47051E+04  1.82716E+04 -7.66189E+03
  2.12950E+04  2.25169E+03  1.54637E+04  1.28919E+04  2.78205E+03  1.68695E+04 -8.78486E+03  1.42296E+04
 -1.15303E+04  4.11354E+03 -5.96522E+03 -3.17629E+03  1.79494E+03 -3.64019E+03  7.59927E+03 -1.16266E+03
  6.72408E+03  5.78361E+03  8.14669E+02  1.11926E+04 -8.24700E+03  1.07140E+04 -1.41545E+04  2.18689E+03
 -9.64048E+03 -6.89580E+03  3.50466E+02 -1.19699E+04  8.13917E+03 -6.33792E+03  8.25586E+03  2.66767E+03
  1.68331E+03  8.58487E+03 -7.16259E+03  9.89305E+03 -1.16696E+04  4.64726E+03 -1.21938E+04 -3.92806E+03
 -7.01803E+03 -1.38162E+04  3.41199E+03 -1.60094E+04  1.33561E+04 -9.50476E+03  1.45200E+04  2.62156E+03
  8.77966E+03  1.12262E+04 -1.06081E+03  1.39162E+04 -1.02082E+04  7.99845E+03 -1.14218E+04 -1.32591E+03
 -9.55545E+03 -9.24114E+03 -1.91129E+03 -1.02863E+04  5.70369E+03 -8.17617E+03  6.66372E+03 -3.63430E+03
  4.99289E+03  1.77360E+03 -8.37930E+02  1.58061E+03 -2.49475E+02 -2.57348E+03  2.46947E+03 -6.54788E+03
  9.96114E+03 -4.03795E+03  1.36514E+04  1.55904E+03  1.32047E+04  8.97869E+03  9.07177E+03  1.74888E+04
 -4.06890E+03  2.06386E+04 -1.67956E+04  1.54309E+04 -2.16910E+04  3.19284E+03 -1.81623E+04 -7.60419E+03
 -8.46977E+03 -1.46653E+04 -3.77636E+02 -1.24004E+04  4.74212E+03 -6.95187E+03  4.60359E+03 -4.63675E+03
  3.14211E+03 -2.62142E+03  3.14468E+03 -3.71051E+03  4.93966E+03 -3.11316E+03  6.79462E+03 -1.14254E+03
  9.36455E+03  2.34044E+03  4.28973E+03  8.05750E+03 -1.95468E+03  9.52636E+03 -9.66893E+03  7.15555E+03
 -1.23662E+04 -1.23630E+03 -7.62829E+03 -8.52803E+03 -1.01560E+03 -1.32044E+04  7.17844E+03 -1.31342E+04
  1.34617E+04 -7.37664E+03  1.61211E+04  2.14130E+03  1.16680E+04  1.16609E+04  1.83092E+03  1.48806E+04
 -5.65719E+03  1.22599E+04 -9.19020E+03  4.29029E+03 -6.11702E+03 -1.76577E+03 -2.53105E+03 -1.50775E+03
 -1.08732E+03 -5.52782E+01 -1.90317E+03  2.68980E+03 -5.14848E+03  1.96546E+03 -8.45927E+03 -9.91815E+02
 -5.88370E+03 -8.75097E+03  2.26252E+02 -1.21820E+04  7.38887E+03 -1.13629E+04  1.19633E+04 -3.45279E+03
  1.19125E+04  5.92956E+03  5.49138E+03  1.05669E+04 -2.61598E+03  1.22799E+04 -8.74780E+03  7.75107E+03
 -1.14311E+04  3.48327E+02 -8.88518E+03 -7.30398E+03 -7.89166E+02 -9.72592E+03  5.04393E+03 -7.39885E+03
  7.48615E+03 -2.38644E+03  5.37146E+03  1.77656E+03  1.82807E+03  3.54708E+03  1.22470E+03  1.67752E+03
  2.31739E+03  1.33970E+03  3.00268E+03  1.54422E+03  3.52780E+03  4.59998E+03  3.20164E+03  6.51912E+03
 -2.67274E+03  9.58394E+03 -8.23575E+03  9.94149E+03 -1.20330E+04  2.61714E+03 -1.28023E+04 -4.66439E+03
 -6.11533E+03 -1.17979E+04  1.96450E+03 -1.31505E+04  7.63876E+03 -8.28472E+03  9.71842E+03 -2.26636E+03
  7.95983E+03  4.61981E+03  1.55381E+03  7.02679E+03 -3.20107E+03  3.93425E+03 -4.81350E+03 -3.44300E+02
 -2.12545E+03 -5.04014E+03  2.74247E+03 -5.47012E+03  5.21567E+03 -2.59091E+03  4.28475E+03  1.12485E+03
  2.55669E+03  2.50216E+03  1.00347E+03  1.79347E+03 -6.88638E+02  1.81436E+03  1.45933E+03 -7.12515E+01
  1.71117E+03 -8.88836E+02  4.66359E+03  2.18616E+03  2.51368E+03  6.35134E+03 -8.40165E+02  8.41528E+03
 -5.54166E+03  5.39550E+03 -7.62188E+03  1.68927E+03 -6.80049E+03 -2.47886E+03 -2.18752E+03 -4.28781E+03
  7.41848E+02 -4.56871E+03  2.93293E+03 -2.22203E+03  3.00771E+03  2.65282E+03 -1.41295E+03  4.04276E+03
 -4.70136E+03  2.36182E+03 -5.34181E+03 -2.80494E+03 -3.27028E+03 -6.42895E+03  8.06996E+02 -6.53673E+03
  3.43383E+03 -3.88717E+03  4.62038E+03 -6.49786E+02  4.35541E+03  1.51162E+03  4.70487E+02  3.43693E+03
 -2.34347E+03  1.24081E+03 -2.79241E+03 -2.00560E+03  1.24300E+03 -5.00053E+03  5.81143E+03 -4.04235E+03
  7.16156E+03  4.04381E+02  7.27779E+03  4.90149E+03  2.52199E+03  7.28869E+03 -2.54388E+03  7.57551E+03
 -6.02428E+03  3.03619E+03 -6.39124E+03 -7.92826E+02 -3.51871E+03 -5.37149E+03  9.74613E+02 -4.67029E+03
  4.62046E+03 -2.13858E+03  4.04111E+03  1.93590E+03  1.27062E+03  4.37494E+03 -3.96352E+02  3.67123E+03
 -2.29704E+03  2.46677E+03 -1.50815E+03  7.50186E+02 -8.93675E+02  1.12146E+03 -1.45601E+03  1.33271E+03
 -2.49623E+03  2.68596E+03 -5.22422E+03  2.54201E+03 -7.36330E+03  4.28295E+02 -8.62746E+03 -4.87328E+03
 -4.70765E+03 -9.70371E+03  1.65299E+03 -1.15166E+04  6.69257E+03 -8.78156E+03  1.09270E+04 -3.62266E+03
  1.00112E+04  1.94167E+03  6.12327E+03  7.23082E+03  2.30482E+02  7.69273E+03 -2.58768E+03  5.82189E+03
 -4.33434E+03  1.99582E+03 -2.35400E+03 -9.89461E+02 -8.46980E+02 -5.48951E+02 -9.62373E+02 -1.74434E+02
 -1.75306E+03  3.26561E+02 -1.48543E+03 -2.58662E+02 -2.14940E+02 -1.69249E+03  1.96030E+02 -3.08754E+03
  3.48649E+03 -2.08091E+03  4.35398E+03 -8.60936E+01  5.18741E+03  4.31511E+03  9.07469E+02  7.33597E+03
 -3.84766E+03  8.65260E+03 -7.83801E+03  5.04083E+03 -9.05212E+03 -7.40788E+02 -6.72414E+03 -5.95969E+03
 -2.85876E+03 -7.68173E+03  1.99612E+03 -7.16349E+03  4.58357E+03 -3.47514E+03  4.74314E+03  5.15226E+02
  2.80921E+03  2.57208E+03  5.03168E+01  2.19130E+03 -1.28851E+03  5.43040E+01  7.41767E+01 -1.75771E+03
  2.27461E+03 -7.63115E+02  2.90313E+03  1.39249E+03  2.19411E+03  2.92682E+03  2.31553E+02  3.23677E+03
 -3.15896E+03  3.22572E+03 -4.50582E+03  2.17482E+02 -4.44863E+03 -3.52380E+03 -6.82702E+02 -5.65059E+03
  3.45209E+03 -5.15269E+03  5.22257E+03 -1.49633E+03  5.49320E+03  1.04985E+03  3.17425E+03  4.64191E+03
  9.29331E+02  4.96128E+03 -1.39432E+03  3.84833E+03 -3.14297E+03  2.11483E+03 -2.85956E+03  3.53396E+02
 -1.59357E+03 -2.49863E+02 -1.11399E+03  3.17051E+02 -2.16028E+03  8.66501E+02 -3.84991E+03 -7.12515E+02
 -3.76273E+03 -2.61563E+03 -1.10543E+03 -4.71141E+03  2.31441E+03 -5.48933E+03  4.24097E+03 -2.31471E+03
  4.51820E+03  6.44543E+02  2.03403E+03  3.36236E+03 -4.09380E+02  4.90350E+03 -3.66341E+03  3.63510E+03
