 $NMID ID='MM_0lb_SNR800_11hz_g55_87.RAW', FMTDAT='(8E13.5)'
 TRAMP=1., VOLUME=1. $END
  3.09783E+05  2.08238E+02  3.37554E+05  2.50557E+05  8.51956E+04  3.38423E+05 -1.32904E+05  2.51864E+05
 -1.90620E+05  8.35617E+04 -1.12412E+05 -3.22706E+04  3.72117E+02 -5.05353E+04  5.38667E+04 -2.89577E+02
  3.62410E+04  5.30513E+04 -1.67986E+04  7.57536E+04 -6.10779E+04  6.43339E+04 -8.46913E+04  3.25440E+04
 -8.17085E+04 -1.16886E+04 -5.79803E+04 -5.23263E+04 -1.52549E+04 -7.04235E+04  2.77953E+04 -4.68292E+04
  4.06272E+04  3.60851E+03  1.64684E+04  4.85575E+04 -3.44346E+04  4.79918E+04 -6.82714E+04  1.48255E+02
 -5.45623E+04 -5.74384E+04 -7.05740E+03 -7.84382E+04  3.46221E+04 -5.66742E+04  4.90527E+04 -1.76784E+04
  4.45542E+04  1.15896E+04  3.28516E+04  2.64404E+04  1.61501E+04  3.02522E+04 -5.87905E+03  2.71846E+04
 -2.21925E+04  1.21518E+04 -1.84840E+04 -5.16321E+03  6.61837E+03 -7.55871E+03  2.27778E+04  1.34855E+04
  7.14178E+03  3.66617E+04 -3.33867E+04  3.67082E+04 -6.48608E+04  2.23419E+03 -5.85218E+04 -4.43602E+04
 -1.27973E+04 -6.50982E+04  4.12398E+04 -4.69752E+04  6.03963E+04 -2.46019E+03  3.61829E+04  3.41578E+04
 -5.76453E+03  3.82646E+04 -3.08783E+04  1.78746E+04 -3.27233E+04 -4.04200E+03 -1.84247E+04 -1.16976E+04
 -9.06222E+03 -1.45487E+04 -4.30651E+02 -1.93383E+04  8.11028E+03 -2.33778E+04  1.60902E+04 -1.27769E+04
  1.09191E+04  6.06721E+03 -9.86910E+03  1.28266E+04 -2.29993E+04 -6.00733E+03 -8.72088E+03 -3.63140E+04
  2.41910E+04 -4.61685E+04  5.12896E+04 -2.09388E+04  4.75609E+04  2.02937E+04  1.65642E+04  4.62632E+04
 -1.64528E+04  3.57160E+04 -2.70034E+04  2.47339E+03 -1.13837E+04 -2.92013E+04  2.14596E+04 -3.60876E+04
  4.36705E+04 -1.04407E+04  3.90201E+04  2.48081E+04  2.06796E+04  4.97267E+04 -8.50526E+03  5.40656E+04
 -3.43631E+04  3.70957E+04 -4.58456E+04  1.05966E+04 -4.63010E+04 -1.80507E+04 -2.57432E+04 -4.11472E+04
  7.63749E+03 -4.06877E+04  3.34578E+04 -1.66652E+04  3.15506E+04  1.10559E+04  5.30737E+03  2.06340E+04
 -1.41941E+04  9.47317E+03 -1.09397E+04 -7.45979E+03  5.80213E+03 -1.13376E+04  1.85052E+04  5.69109E+03
  1.42591E+04  2.20461E+04 -5.77756E+03  2.65137E+04 -2.32957E+04  1.33677E+04 -3.05925E+04 -3.71884E+03
 -2.44437E+04 -1.82087E+04 -1.06656E+04 -2.34848E+04  4.19430E+03 -2.35524E+04  1.86916E+04 -2.18794E+04
  3.04041E+04 -1.35223E+04  3.63520E+04  4.44612E+03  2.63665E+04  2.36062E+04  3.76337E+03  3.98753E+04
 -1.91750E+04  3.31581E+04 -3.00438E+04  1.13848E+04 -2.19495E+04 -1.01559E+04 -4.75097E+03 -1.31213E+04
  9.06099E+02 -1.72254E+03 -6.79043E+03  7.89958E+03 -1.87635E+04  4.82008E+03 -1.93661E+04 -9.03734E+03
 -1.14630E+04 -2.19596E+04  5.74133E+03 -2.64461E+04  1.79290E+04 -1.90710E+04  2.09853E+04 -1.52994E+03
  1.32131E+04  1.50568E+04 -1.32728E+03  2.21659E+04 -1.52602E+04  1.24845E+04 -2.18690E+04 -4.35330E+03
 -1.64996E+04 -1.95333E+04 -1.96472E+03 -2.67846E+04  1.21220E+04 -2.18801E+04  2.26437E+04 -1.12751E+04
  2.06077E+04 -6.02372E+01  1.46722E+04  4.91895E+03  7.93301E+03  1.18221E+03  1.16906E+04 -2.35621E+03
  2.10397E+04  2.40032E+03  2.34667E+04  1.69409E+04  1.58351E+04  3.52790E+04 -2.72472E+03  4.10092E+04
 -2.38749E+04  3.39677E+04 -3.89033E+04  1.75099E+04 -4.09683E+04 -2.83524E+03 -3.35403E+04 -2.40670E+04
 -1.35085E+04 -3.41743E+04  1.19596E+04 -2.97869E+04  2.58051E+04 -1.44240E+04  2.25889E+04  7.29102E+03
  8.30823E+03  1.72231E+04 -1.03268E+04  1.45298E+04 -1.88617E+04  2.69103E+03 -1.42926E+04 -1.17330E+04
 -5.21998E+02 -1.77338E+04  9.66505E+03 -1.34350E+04  1.23232E+04 -1.18078E+03  3.01335E+03  8.06828E+03
 -8.26881E+03  3.79618E+03 -7.94422E+03 -6.60878E+03 -1.31899E+03 -1.70494E+04  1.09554E+04 -1.82323E+04
  2.07862E+04 -9.75738E+03  2.36418E+04  3.05325E+03  2.02588E+04  1.68531E+04  9.55322E+03  2.59290E+04
 -5.10651E+03  2.82443E+04 -1.81691E+04  1.79532E+04 -2.04657E+04  3.48387E+03 -1.41029E+04 -5.00667E+03
 -6.33530E+03 -6.44129E+03 -5.13297E+02  8.87398E+02 -2.93069E+03  3.40071E+03 -6.76409E+03  5.11176E+03
 -1.32035E+04 -1.06614E+03 -1.35821E+04 -1.09090E+04 -5.54412E+03 -1.80223E+04  5.77687E+03 -1.45746E+04
  1.19444E+04 -5.93472E+03  8.15731E+03  3.85448E+03 -5.04220E+02  5.74337E+03 -7.05839E+03 -3.00790E+02
 -6.59269E+03 -8.98298E+03 -1.34374E+03 -1.38450E+04  8.02891E+03 -1.48162E+04  1.79810E+04 -7.74639E+03
  2.12860E+04  2.19304E+03  1.54775E+04  1.28655E+04  3.16139E+03  1.69493E+04 -8.38859E+03  1.45163E+04
 -1.14811E+04  4.27599E+03 -6.34359E+03 -3.23746E+03  2.16843E+03 -3.45150E+03  7.66154E+03 -8.09321E+02
  6.95463E+03  6.45774E+03  1.47825E+03  1.14412E+04 -8.24676E+03  1.08918E+04 -1.40222E+04  2.77117E+03
 -9.81470E+03 -7.15502E+03  3.82161E+01 -1.17914E+04  7.59615E+03 -6.06217E+03  7.86322E+03  3.03561E+03
  1.57252E+03  8.89828E+03 -7.11244E+03  1.01491E+04 -1.14128E+04  4.54718E+03 -1.18702E+04 -4.05262E+03
 -7.16433E+03 -1.39750E+04  3.37642E+03 -1.59332E+04  1.32918E+04 -9.39163E+03  1.44490E+04  2.51589E+03
  8.89317E+03  1.19971E+04 -1.04409E+03  1.36479E+04 -1.01929E+04  7.64454E+03 -1.10579E+04 -1.32170E+03
 -1.02076E+04 -9.26688E+03 -1.53193E+03 -1.03435E+04  5.42166E+03 -8.75225E+03  6.74014E+03 -3.13748E+03
  4.51915E+03  1.66423E+03 -8.71287E+02  2.03852E+03 -2.79592E+02 -2.36960E+03  1.99972E+03 -6.28337E+03
  9.82464E+03 -3.72512E+03  1.37712E+04  1.44524E+03  1.35707E+04  9.14102E+03  9.33349E+03  1.77436E+04
 -4.21768E+03  2.08273E+04 -1.73705E+04  1.50434E+04 -2.21349E+04  2.88281E+03 -1.76900E+04 -7.42529E+03
 -8.93267E+03 -1.44238E+04 -4.25807E+02 -1.23828E+04  4.93270E+03 -6.71525E+03  4.44676E+03 -4.66582E+03
  3.34032E+03 -2.51625E+03  3.62247E+03 -3.67338E+03  5.01630E+03 -3.23833E+03  6.78922E+03 -1.29693E+03
  9.18446E+03  2.40001E+03  4.78683E+03  7.69717E+03 -2.15997E+03  9.67899E+03 -9.41813E+03  7.34265E+03
 -1.24023E+04 -1.41768E+03 -7.94548E+03 -8.80492E+03 -1.11718E+03 -1.34581E+04  7.19606E+03 -1.32367E+04
  1.39288E+04 -7.65132E+03  1.64141E+04  2.16984E+03  1.14534E+04  1.14314E+04  1.43753E+03  1.48622E+04
 -6.17042E+03  1.20439E+04 -8.89187E+03  3.90992E+03 -5.84949E+03 -1.67616E+03 -2.31480E+03 -1.86425E+03
 -1.14840E+03  4.21072E+01 -1.80770E+03  2.68758E+03 -5.47623E+03  2.23346E+03 -8.56647E+03 -1.17087E+03
 -5.98531E+03 -8.22255E+03 -6.52154E+01 -1.22271E+04  7.47407E+03 -1.14168E+04  1.19824E+04 -3.19538E+03
  1.24454E+04  6.10828E+03  5.74536E+03  1.04831E+04 -2.10406E+03  1.20525E+04 -8.66353E+03  7.56253E+03
 -1.14819E+04  1.58720E+02 -8.80642E+03 -7.27001E+03 -9.48169E+02 -9.62851E+03  5.14229E+03 -7.33371E+03
  7.81821E+03 -2.37129E+03  5.52704E+03  1.98199E+03  1.83484E+03  3.80269E+03  1.76870E+03  2.01641E+03
  2.44045E+03  7.66803E+02  3.10049E+03  2.05014E+03  3.70569E+03  4.49297E+03  3.33210E+03  6.23790E+03
 -2.44312E+03  9.51558E+03 -8.46426E+03  9.92743E+03 -1.20434E+04  2.82515E+03 -1.25115E+04 -4.94483E+03
 -6.01417E+03 -1.20729E+04  1.82703E+03 -1.34182E+04  7.17269E+03 -8.52241E+03  9.79217E+03 -2.52792E+03
  7.67223E+03  4.33954E+03  1.47145E+03  7.19892E+03 -3.60106E+03  4.35116E+03 -4.69841E+03 -8.44403E+02
 -2.26376E+03 -5.43002E+03  2.81414E+03 -5.46397E+03  4.78715E+03 -2.48893E+03  4.77974E+03  9.90634E+02
  2.96847E+03  2.08218E+03  1.15190E+03  2.19315E+03 -4.58037E+02  1.59838E+03  1.96151E+03 -1.56221E+02
  1.56211E+03 -4.68860E+02  4.91005E+03  1.95344E+03  2.54855E+03  6.69668E+03 -8.85129E+02  8.26720E+03
 -5.81239E+03  5.34522E+03 -7.48497E+03  1.53930E+03 -6.61451E+03 -2.62005E+03 -2.43339E+03 -4.54922E+03
  4.78502E+02 -4.54924E+03  3.53070E+03 -2.07216E+03  2.60476E+03  2.39896E+03 -1.37415E+03  3.86651E+03
 -5.30527E+03  2.55227E+03 -5.03716E+03 -2.85362E+03 -3.40818E+03 -6.32004E+03  8.59350E+02 -6.53080E+03
  3.94236E+03 -3.64539E+03  4.17937E+03 -2.64546E+02  3.55067E+03  1.60509E+03  6.33010E+02  3.29211E+03
 -2.03447E+03  1.11819E+03 -2.95824E+03 -2.03940E+03  9.74297E+02 -4.39075E+03  5.34396E+03 -3.95753E+03
  7.37382E+03  6.25105E+02  7.32028E+03  4.77641E+03  2.21812E+03  7.74889E+03 -2.76881E+03  7.27640E+03
 -6.22638E+03  3.28961E+03 -6.47931E+03 -9.84478E+02 -3.41448E+03 -5.28444E+03  1.43565E+03 -4.83214E+03
  4.59818E+03 -2.11768E+03  4.29149E+03  2.22202E+03  1.15461E+03  4.02765E+03 -6.30019E+02  3.74247E+03
 -1.87619E+03  2.94281E+03 -1.56824E+03  9.30092E+02 -1.06956E+03  1.18870E+03 -1.11140E+03  1.41691E+03
 -2.33720E+03  2.95442E+03 -5.05076E+03  2.80362E+03 -7.65707E+03  1.95748E+02 -8.59881E+03 -5.00145E+03
 -4.23925E+03 -9.81939E+03  1.96904E+03 -1.16899E+04  7.17473E+03 -8.95071E+03  1.07266E+04 -3.41953E+03
  1.02698E+04  1.97088E+03  6.42560E+03  6.63717E+03  5.65801E+02  7.54746E+03 -2.97160E+03  5.58185E+03
 -4.24724E+03  2.11357E+03 -2.59101E+03 -8.98222E+02 -6.77793E+02 -8.09369E+02 -8.81182E+02  4.75799E+02
 -1.48140E+03  3.22262E+02 -1.50785E+03 -2.71308E+02 -8.05123E+02 -1.77268E+03  1.16824E+02 -2.77860E+03
  3.60851E+03 -2.85100E+03  4.37375E+03 -2.38043E+01  5.25052E+03  3.69934E+03  9.55176E+02  7.40564E+03
 -3.40956E+03  8.49296E+03 -8.09902E+03  5.10499E+03 -9.49169E+03 -6.85305E+02 -6.86937E+03 -5.51258E+03
 -2.98599E+03 -7.74652E+03  1.99124E+03 -7.15413E+03  4.73660E+03 -3.71925E+03  4.88203E+03  5.04049E+02
  2.87141E+03  2.51907E+03 -1.88210E+02  2.03044E+03 -1.47361E+03 -4.46694E+01 -1.04305E+02 -1.50023E+03
  2.68014E+03 -6.69842E+02  2.87609E+03  7.54671E+02  1.99260E+03  2.76808E+03  2.94479E+02  3.37623E+03
 -3.03474E+03  3.14531E+03 -4.68159E+03  3.14811E+02 -3.99928E+03 -3.11582E+03 -7.62491E+02 -6.20105E+03
  3.26436E+03 -5.16461E+03  5.32185E+03 -1.47089E+03  5.11628E+03  1.07639E+03  3.41717E+03  4.77311E+03
  7.21560E+02  4.69284E+03 -2.32287E+03  4.34380E+03 -3.18421E+03  2.40109E+03 -2.77850E+03  2.20822E+01
 -1.47453E+03 -4.07316E+02 -1.61817E+03  4.68897E+02 -2.50950E+03  7.13987E+02 -3.97006E+03 -1.03948E+03
 -3.96794E+03 -2.20470E+03 -1.34840E+03 -4.88105E+03  2.13569E+03 -5.52992E+03  4.16889E+03 -2.10489E+03
  4.59989E+03  7.04363E+02  2.39051E+03  3.22966E+03 -2.92998E+02  4.88845E+03 -3.68413E+03  3.58052E+03
