 $NMID ID='MM_0lb_SNR800_14hz_g45_81.RAW', FMTDAT='(8E13.5)'
 TRAMP=1., VOLUME=1. $END
  3.09778E+05  2.46372E+02  3.37505E+05  2.50800E+05  8.45276E+04  3.37631E+05 -1.32603E+05  2.51010E+05
 -1.89917E+05  8.31844E+04 -1.11779E+05 -3.26051E+04  1.12190E+03 -5.06592E+04  5.38646E+04 -2.63184E+02
  3.50873E+04  5.30127E+04 -1.68806E+04  7.54566E+04 -6.04060E+04  6.34056E+04 -8.40168E+04  3.19479E+04
 -8.07630E+04 -1.14699E+04 -5.73664E+04 -5.10818E+04 -1.49179E+04 -6.96607E+04  2.75859E+04 -4.58040E+04
  3.98803E+04  3.84618E+03  1.63819E+04  4.77000E+04 -3.42541E+04  4.70423E+04 -6.66982E+04 -2.23197E+02
 -5.32768E+04 -5.64954E+04 -6.55487E+03 -7.70685E+04  3.38883E+04 -5.47668E+04  4.76432E+04 -1.73076E+04
  4.30306E+04  1.12987E+04  3.15621E+04  2.55194E+04  1.62643E+04  2.91047E+04 -4.90013E+03  2.71740E+04
 -2.21741E+04  1.24046E+04 -1.82556E+04 -5.05229E+03  5.34873E+03 -7.66141E+03  2.19505E+04  1.20833E+04
  7.00796E+03  3.49281E+04 -3.20823E+04  3.53682E+04 -6.32407E+04  2.08777E+03 -5.67254E+04 -4.28228E+04
 -1.25321E+04 -6.27902E+04  3.98396E+04 -4.52815E+04  5.80437E+04 -2.27621E+03  3.36556E+04  3.24135E+04
 -6.19642E+03  3.57229E+04 -2.94962E+04  1.58770E+04 -3.00505E+04 -4.86213E+03 -1.64120E+04 -1.08483E+04
 -8.25626E+03 -1.29451E+04 -5.70346E+02 -1.81958E+04  7.13530E+03 -2.29552E+04  1.54844E+04 -1.33872E+04
  1.13337E+04  4.92175E+03 -8.23926E+03  1.28051E+04 -2.10776E+04 -4.19474E+03 -8.26410E+03 -3.33190E+04
  2.22988E+04 -4.28223E+04  4.77880E+04 -1.95384E+04  4.46099E+04  1.92462E+04  1.55699E+04  4.43094E+04
 -1.57177E+04  3.32565E+04 -2.52437E+04  2.02703E+03 -9.73495E+03 -2.76361E+04  2.10679E+04 -3.38548E+04
  4.03958E+04 -9.00695E+03  3.50767E+04  2.35900E+04  1.79504E+04  4.61515E+04 -8.20643E+03  4.95692E+04
 -3.13274E+04  3.35269E+04 -4.13663E+04  9.44383E+03 -4.20933E+04 -1.63765E+04 -2.33327E+04 -3.75571E+04
  7.35901E+03 -3.76370E+04  3.09900E+04 -1.44144E+04  2.88552E+04  1.08836E+04  3.67024E+03  1.88584E+04
 -1.33491E+04  8.07254E+03 -1.01531E+04 -7.51122E+03  5.91240E+03 -1.05689E+04  1.83129E+04  6.25848E+03
  1.32898E+04  2.19645E+04 -6.07636E+03  2.49608E+04 -2.22803E+04  1.11028E+04 -2.77736E+04 -5.13750E+03
 -2.01303E+04 -1.70354E+04 -8.27882E+03 -2.00378E+04  3.94079E+03 -1.90035E+04  1.54315E+04 -1.80749E+04
  2.54695E+04 -1.27439E+04  3.19780E+04  2.19105E+03  2.34435E+04  1.99898E+04  4.39772E+03  3.59848E+04
 -1.73919E+04  3.02733E+04 -2.79064E+04  1.05717E+04 -2.05552E+04 -1.05304E+04 -4.40508E+03 -1.34577E+04
  1.85297E+03 -2.92952E+03 -4.76696E+03  6.56043E+03 -1.57140E+04  5.20136E+03 -1.62934E+04 -6.86744E+03
 -9.95508E+03 -1.84542E+04  5.20479E+03 -2.25124E+04  1.48621E+04 -1.61534E+04  1.77249E+04 -1.60803E+03
  1.10719E+04  1.28518E+04 -1.25631E+03  1.89937E+04 -1.26827E+04  1.05621E+04 -1.87323E+04 -3.83241E+03
 -1.37620E+04 -1.66405E+04 -1.73868E+03 -2.26902E+04  9.98790E+03 -1.85156E+04  1.86518E+04 -9.06420E+03
  1.71363E+04  4.12634E+02  1.27061E+04  4.13162E+03  6.92135E+03  9.43220E+02  9.26684E+03 -1.45190E+03
  1.70146E+04  2.45935E+03  1.89879E+04  1.48627E+04  1.24409E+04  2.99604E+04 -3.08612E+03  3.30823E+04
 -1.93543E+04  2.66601E+04 -3.09922E+04  1.33672E+04 -3.27045E+04 -2.42833E+03 -2.70724E+04 -1.89767E+04
 -1.13998E+04 -2.68282E+04  9.19978E+03 -2.44187E+04  2.10987E+04 -1.24445E+04  1.89702E+04  5.29635E+03
  7.01998E+03  1.41469E+04 -8.65121E+03  1.23276E+04 -1.59714E+04  2.47299E+03 -1.22454E+04 -9.84580E+03
 -4.06257E+01 -1.48481E+04  7.53020E+03 -1.14575E+04  1.00418E+04 -1.39178E+03  2.59188E+03  6.43996E+03
 -6.77599E+03  2.20086E+03 -5.47889E+03 -5.17915E+03 -1.09648E+02 -1.34058E+04  9.34812E+03 -1.33424E+04
  1.62255E+04 -7.00005E+03  1.74171E+04  2.82803E+03  1.49451E+04  1.29866E+04  7.19167E+03  1.96677E+04
 -2.94093E+03  2.17621E+04 -1.34757E+04  1.34599E+04 -1.55273E+04  3.21973E+03 -1.09256E+04 -3.32604E+03
 -5.28169E+03 -4.66798E+03 -1.07872E+03  9.42923E+02 -2.10941E+03  2.25109E+03 -5.01440E+03  4.09950E+03
 -1.01763E+04 -7.76211E+02 -1.12540E+04 -9.22524E+03 -4.57059E+03 -1.44591E+04  4.68423E+03 -1.11246E+04
  9.44291E+03 -4.71004E+03  6.71396E+03  3.13126E+03  2.40220E+02  4.06347E+03 -5.31093E+03 -4.29312E+02
 -4.85960E+03 -7.01304E+03 -7.54055E+02 -1.01621E+04  6.00466E+03 -1.10731E+04  1.36812E+04 -5.86947E+03
  1.61405E+04  1.53646E+03  1.15791E+04  9.43584E+03  2.24955E+03  1.24141E+04 -6.82637E+03  1.09966E+04
 -9.10552E+03  3.59101E+03 -4.85226E+03 -1.96761E+03  1.88542E+03 -2.81068E+03  6.24699E+03 -1.07524E+03
  5.52619E+03  4.64381E+03  9.88185E+02  8.70625E+03 -6.20756E+03  8.47400E+03 -1.04601E+04  2.30488E+03
 -6.99118E+03 -5.11827E+03  3.49120E+02 -9.10281E+03  5.69809E+03 -4.38063E+03  5.79393E+03  2.07175E+03
  8.75522E+02  5.76552E+03 -5.56103E+03  7.36624E+03 -8.16231E+03  3.83465E+03 -7.82381E+03 -2.30991E+03
 -4.47366E+03 -9.44653E+03  2.10174E+03 -1.10965E+04  9.35723E+03 -6.75144E+03  1.01068E+04  1.84959E+03
  6.80240E+03  8.12959E+03 -6.52395E+02  1.05926E+04 -7.13191E+03  5.99899E+03 -7.99246E+03 -7.37439E+02
 -7.14455E+03 -7.21374E+03 -1.52790E+03 -7.19492E+03  3.70023E+03 -6.59462E+03  4.47914E+03 -3.05996E+03
  3.48046E+03  9.54061E+02 -3.71518E+02  1.39038E+03  3.55233E+02 -1.10626E+03  8.45507E+02 -3.70100E+03
  6.16991E+03 -2.22189E+03  8.79862E+03  8.99376E+02  8.93594E+03  5.66533E+03  6.96217E+03  1.20559E+04
 -2.61347E+03  1.36821E+04 -1.18916E+04  1.03655E+04 -1.52929E+04  1.69122E+03 -1.24483E+04 -4.65425E+03
 -6.41121E+03 -1.00782E+04 -4.74605E+02 -8.34534E+03  3.11587E+03 -4.37747E+03  3.06159E+03 -3.21976E+03
  2.13771E+03 -1.85176E+03  2.82400E+03 -3.04107E+03  4.28238E+03 -2.22848E+03  5.05505E+03 -3.13988E+02
  6.64483E+03  1.82625E+03  2.61270E+03  5.69601E+03 -1.90427E+03  5.74499E+03 -6.73892E+03  4.85544E+03
 -8.24480E+03 -9.38105E+02 -4.52792E+03 -5.43999E+03 -1.39720E+02 -8.37758E+03  5.06473E+03 -9.24338E+03
  9.12788E+03 -5.03027E+03  1.08169E+04  8.12358E+02  7.72019E+03  7.51403E+03  1.53120E+03  9.96449E+03
 -3.94309E+03  8.72162E+03 -5.84138E+03  3.19261E+03 -3.91000E+03 -9.15604E+02 -1.19503E+03 -1.12806E+03
 -8.41152E+02  4.37504E+02 -1.35981E+03  2.33922E+03 -3.64889E+03  1.60090E+03 -5.92430E+03 -5.98595E+02
 -3.27937E+03 -6.24462E+03  3.58033E+02 -7.94789E+03  4.58191E+03 -7.78440E+03  7.33737E+03 -2.24420E+03
  7.72246E+03  4.03514E+03  3.46513E+03  6.52107E+03 -1.74717E+03  7.84371E+03 -5.37865E+03  5.21192E+03
 -7.15882E+03  6.64532E+02 -5.56675E+03 -4.60163E+03 -5.35397E+02 -5.82923E+03  3.23028E+03 -4.72227E+03
  4.85714E+03 -2.08014E+03  3.21193E+03  1.48280E+03  1.22495E+03  2.59013E+03  1.02715E+03  1.06493E+03
  1.93781E+03  5.03825E+02  1.85108E+03  1.31404E+03  2.15714E+03  3.18517E+03  2.16609E+03  3.81748E+03
 -1.96574E+03  6.04520E+03 -4.81748E+03  6.51707E+03 -6.63751E+03  1.71909E+03 -8.06050E+03 -2.28122E+03
 -3.62572E+03 -7.21425E+03  1.15389E+03 -8.45792E+03  4.10500E+03 -5.15174E+03  5.97413E+03 -1.64798E+03
  4.66328E+03  3.20618E+03  8.37448E+02  4.47521E+03 -2.18715E+03  2.72246E+03 -2.71643E+03 -8.04607E+01
 -1.32391E+03 -3.03829E+03  1.66783E+03 -2.96675E+03  3.10123E+03 -1.51718E+03  3.00784E+03  7.50274E+02
  1.37388E+03  1.17985E+03  7.27468E+02  5.17305E+02 -3.85550E+02  1.12778E+03  1.50010E+03 -4.38586E+02
  1.08845E+03 -9.49808E+01  3.01263E+03  1.39122E+03  1.36112E+03  4.17678E+03 -4.19424E+02  5.46568E+03
 -2.86226E+03  3.06815E+03 -4.30028E+03  8.15902E+02 -4.21451E+03 -1.69763E+03 -1.06997E+03 -2.54642E+03
  6.35438E+02 -2.80589E+03  1.84372E+03 -1.37492E+03  1.52660E+03  1.62908E+03 -8.47507E+02  2.38062E+03
 -2.86218E+03  1.43552E+03 -2.85746E+03 -2.07655E+03 -1.56254E+03 -4.10140E+03  8.09261E+02 -3.50649E+03
  1.89111E+03 -1.83756E+03  2.38489E+03 -2.19724E+02  2.57292E+03  5.16668E+02  7.27506E+02  2.15100E+03
 -1.15556E+03  1.47638E+02 -1.42631E+03 -8.20289E+02  9.07233E+02 -2.55114E+03  3.32726E+03 -2.29934E+03
  3.77350E+03  2.75365E+02  4.65078E+03  2.39418E+03  1.47531E+03  4.02459E+03 -1.11306E+03  4.08875E+03
 -3.46724E+03  1.46199E+03 -3.49846E+03 -2.04731E+02 -1.74303E+03 -2.52790E+03  6.32967E+02 -2.33443E+03
  2.82987E+03 -1.57559E+03  2.36678E+03  1.17006E+03  7.58152E+02  2.48303E+03 -8.16595E+01  2.22859E+03
 -1.25535E+03  2.02302E+03 -1.13288E+03  4.21986E+02 -3.95986E+02  2.14765E+02 -8.69743E+02  1.04298E+03
 -1.41193E+03  1.91875E+03 -3.12640E+03  1.25742E+03 -4.03488E+03  2.96048E+02 -4.88364E+03 -2.94036E+03
 -2.39259E+03 -5.87455E+03  1.04279E+03 -6.13952E+03  3.31670E+03 -4.96430E+03  5.98029E+03 -1.98468E+03
  5.87414E+03  6.20796E+02  3.10288E+03  3.74035E+03 -1.39228E+02  3.50778E+03 -1.51146E+03  2.99845E+03
 -2.00984E+03  1.02930E+03 -1.40351E+03 -2.45357E+02 -5.39034E+02 -8.74802E+01 -7.25057E+02  7.30778E+01
 -1.52752E+03  9.31969E+01 -1.44718E+03 -2.75140E+02 -1.29744E+01 -1.08830E+03 -5.63439E+02 -1.71635E+03
  2.16254E+03 -1.44081E+03  2.03381E+03  1.52633E+02  3.26151E+03  2.18140E+03  3.29095E+02  3.95389E+03
 -1.90720E+03  4.77963E+03 -4.24868E+03  2.95635E+03 -4.47395E+03 -5.38771E+02 -3.39291E+03 -3.00853E+03
 -1.63621E+03 -3.95969E+03  1.00374E+03 -3.55990E+03  2.44584E+03 -1.71013E+03  2.25480E+03 -3.32459E+01
  1.51254E+03  1.25345E+03 -1.65843E+02  9.69901E+02 -8.44304E+02  1.43249E+01  1.98332E+02 -8.50166E+02
  1.23147E+03 -2.23591E+02  1.12704E+03  7.87242E+02  6.89392E+02  1.53350E+03  2.91657E+02  1.52760E+03
 -1.11520E+03  1.49891E+03 -1.91831E+03  1.50047E+02 -2.25987E+03 -1.48675E+03 -3.83212E+02 -3.42124E+03
  1.55565E+03 -2.41063E+03  2.75929E+03 -4.99011E+02  2.74287E+03 -8.37570E+01  1.52224E+03  2.09254E+03
  4.25721E+02  2.12842E+03 -9.84209E+02  1.76089E+03 -1.47091E+03  1.08910E+03 -1.28919E+03  4.49029E+02
 -4.24582E+02 -8.49936E+01 -1.01720E+03  2.47561E+02 -1.66796E+03  3.46245E+02 -1.93955E+03 -3.16869E+02
 -1.91911E+03 -4.80994E+02 -7.79259E+02 -2.41885E+03  1.23710E+03 -2.88104E+03  2.22676E+03 -1.20590E+03
  2.47535E+03  3.18364E+02  8.78848E+02  1.58162E+03 -1.44746E+02  2.24524E+03 -1.38288E+03  1.73270E+03
