 $NMID ID='MM_0lb_SNR800_18hz_g60_82.RAW', FMTDAT='(8E13.5)'
 TRAMP=1., VOLUME=1. $END
  3.09560E+05  5.61414E+02  3.37624E+05  2.50599E+05  8.47969E+04  3.37566E+05 -1.32468E+05  2.50951E+05
 -1.90475E+05  8.28563E+04 -1.11630E+05 -3.29208E+04  9.90820E+02 -5.06465E+04  5.39198E+04  7.04601E+00
  3.53456E+04  5.26909E+04 -1.68448E+04  7.51321E+04 -6.05839E+04  6.34059E+04 -8.40820E+04  3.15418E+04
 -8.05460E+04 -1.14151E+04 -5.69024E+04 -5.10062E+04 -1.51471E+04 -6.93576E+04  2.70786E+04 -4.52456E+04
  3.98816E+04  3.83087E+03  1.59125E+04  4.77054E+04 -3.43543E+04  4.69906E+04 -6.63179E+04 -3.49035E+02
 -5.29945E+04 -5.63773E+04 -6.58685E+03 -7.66038E+04  3.38340E+04 -5.45307E+04  4.75645E+04 -1.70162E+04
  4.26910E+04  1.13363E+04  3.15620E+04  2.51330E+04  1.59059E+04  2.90663E+04 -5.16929E+03  2.71424E+04
 -2.19397E+04  1.26179E+04 -1.84499E+04 -4.78845E+03  5.21639E+03 -7.35900E+03  2.19885E+04  1.19286E+04
  7.25166E+03  3.44608E+04 -3.16457E+04  3.47464E+04 -6.26684E+04  2.16944E+03 -5.62529E+04 -4.20391E+04
 -1.22774E+04 -6.23115E+04  3.93099E+04 -4.46109E+04  5.76683E+04 -2.12229E+03  3.32685E+04  3.16465E+04
 -6.31579E+03  3.51601E+04 -2.95139E+04  1.50717E+04 -2.93701E+04 -4.99399E+03 -1.59345E+04 -1.06466E+04
 -8.13716E+03 -1.24364E+04 -9.53780E+02 -1.75777E+04  7.09114E+03 -2.30857E+04  1.51312E+04 -1.34535E+04
  1.18759E+04  5.09379E+03 -7.41948E+03  1.32061E+04 -2.02611E+04 -3.72443E+03 -8.15501E+03 -3.23919E+04
  2.20900E+04 -4.23560E+04  4.68199E+04 -1.91627E+04  4.39037E+04  1.91364E+04  1.52244E+04  4.31124E+04
 -1.59691E+04  3.25600E+04 -2.47821E+04  1.44103E+03 -9.35097E+03 -2.72298E+04  2.09033E+04 -3.26295E+04
  3.98181E+04 -7.90510E+03  3.39532E+04  2.32861E+04  1.70138E+04  4.48451E+04 -7.85995E+03  4.83544E+04
 -3.00983E+04  3.24015E+04 -3.98841E+04  9.40717E+03 -4.05938E+04 -1.61256E+04 -2.25264E+04 -3.64729E+04
  7.25132E+03 -3.60571E+04  3.05481E+04 -1.39420E+04  2.82196E+04  1.07382E+04  3.41717E+03  1.85676E+04
 -1.38390E+04  8.05886E+03 -9.83749E+03 -7.59072E+03  5.78375E+03 -1.04358E+04  1.73371E+04  6.25048E+03
  1.30252E+04  2.17933E+04 -5.89569E+03  2.44682E+04 -2.18688E+04  1.03953E+04 -2.67587E+04 -5.47927E+03
 -1.87632E+04 -1.68091E+04 -7.23763E+03 -1.90103E+04  4.20403E+03 -1.70272E+04  1.41086E+04 -1.61300E+04
  2.39285E+04 -1.22023E+04  3.03244E+04  1.87996E+03  2.29826E+04  1.84364E+04  4.27626E+03  3.45473E+04
 -1.69864E+04  2.91474E+04 -2.71779E+04  1.00762E+04 -2.02217E+04 -1.05491E+04 -4.19149E+03 -1.38377E+04
  2.21527E+03 -3.70082E+03 -3.78636E+03  6.23294E+03 -1.46719E+04  5.26000E+03 -1.47511E+04 -6.23129E+03
 -9.42589E+03 -1.70854E+04  4.97854E+03 -2.14187E+04  1.39232E+04 -1.53042E+04  1.63821E+04 -1.60218E+03
  9.99823E+03  1.19704E+04 -1.20039E+03  1.71458E+04 -1.14153E+04  9.70967E+03 -1.69164E+04 -3.74413E+03
 -1.28073E+04 -1.53692E+04 -1.66103E+03 -2.05613E+04  9.50317E+03 -1.71845E+04  1.74450E+04 -8.18960E+03
  1.60345E+04  3.53063E+02  1.17660E+04  4.04124E+03  5.78105E+03  8.16680E+02  8.58214E+03 -1.52950E+03
  1.52813E+04  2.96344E+03  1.67489E+04  1.39107E+04  1.05243E+04  2.69582E+04 -2.87332E+03  2.98597E+04
 -1.74671E+04  2.34302E+04 -2.77075E+04  1.12912E+04 -2.87522E+04 -2.20622E+03 -2.42426E+04 -1.65986E+04
 -1.10199E+04 -2.33935E+04  7.55411E+03 -2.15739E+04  1.84450E+04 -1.17438E+04  1.68254E+04  4.32714E+03
  7.11191E+03  1.24250E+04 -7.76932E+03  1.13751E+04 -1.44620E+04  2.60920E+03 -1.10996E+04 -8.67308E+03
 -2.95036E+02 -1.35003E+04  6.65094E+03 -1.05609E+04  8.72755E+03 -1.70268E+03  1.75251E+03  5.49233E+03
 -5.85880E+03  1.82834E+03 -4.49068E+03 -4.96016E+03  4.49185E+02 -1.17095E+04  8.68721E+03 -1.15056E+04
  1.38850E+04 -5.73847E+03  1.47283E+04  2.73735E+03  1.26243E+04  1.10227E+04  5.71385E+03  1.62176E+04
 -2.29562E+03  1.82072E+04 -1.12252E+04  1.15407E+04 -1.27072E+04  3.10321E+03 -9.42140E+03 -2.62586E+03
 -4.77256E+03 -3.75720E+03 -8.50463E+02  1.53156E+03 -1.75383E+03  2.23933E+03 -4.34033E+03  3.77383E+03
 -8.92115E+03 -5.08077E+02 -9.76601E+03 -7.91689E+03 -4.20517E+03 -1.25928E+04  3.84462E+03 -9.66671E+03
  8.03509E+03 -4.03597E+03  5.76288E+03  2.36002E+03  4.60127E+02  3.68948E+03 -3.87631E+03  1.49203E+02
 -3.98656E+03 -5.89659E+03 -5.75949E+02 -8.14127E+03  4.60534E+03 -9.01481E+03  1.12256E+04 -4.53587E+03
  1.32243E+04  5.66067E+02  9.89675E+03  7.04104E+03  1.96503E+03  9.83667E+03 -5.79503E+03  9.10166E+03
 -7.42625E+03  3.13237E+03 -4.03007E+03 -1.37878E+03  1.39434E+03 -1.98006E+03  4.96848E+03 -8.30239E+02
  4.45109E+03  3.91843E+03  1.05622E+03  7.40845E+03 -4.92697E+03  7.30774E+03 -9.03093E+03  1.61671E+03
 -5.43901E+03 -4.02372E+03  3.35660E+02 -7.45257E+03  3.97705E+03 -3.80920E+03  4.05202E+03  1.24572E+03
  5.04010E+02  4.16623E+03 -4.65884E+03  5.44421E+03 -5.60064E+03  2.55604E+03 -5.45926E+03 -1.32951E+03
 -3.62922E+03 -7.05102E+03  1.40647E+03 -8.36879E+03  7.00227E+03 -5.18135E+03  7.46506E+03  1.06341E+03
  5.61043E+03  5.99745E+03 -2.38945E+01  7.94081E+03 -5.68949E+03  4.70458E+03 -6.05498E+03 -6.05597E+02
 -6.28425E+03 -5.82152E+03 -1.00447E+03 -5.83057E+03  2.86481E+03 -5.02775E+03  3.33235E+03 -3.28627E+03
  2.94836E+03  1.82339E+02  1.89688E+02  1.44990E+03  4.68499E+02 -3.98143E+02  5.65293E+02 -2.22177E+03
  4.61125E+03 -1.22279E+03  6.27907E+03  6.27026E+02  6.58117E+03  3.85607E+03  5.55609E+03  8.65603E+03
 -1.40924E+03  1.01005E+04 -8.80231E+03  7.55647E+03 -1.11539E+04  1.44992E+03 -8.91384E+03 -3.28462E+03
 -4.72950E+03 -7.46550E+03 -4.59917E+02 -5.84215E+03  2.32687E+03 -2.74566E+03  1.83705E+03 -2.42703E+03
  1.24676E+03 -1.62689E+03  2.25958E+03 -2.43199E+03  3.67278E+03 -1.45756E+03  3.74480E+03  3.23495E+02
  5.11305E+03  1.10234E+03  1.50979E+03  3.75027E+03 -1.67318E+03  3.40936E+03 -4.89625E+03  3.07969E+03
 -5.83480E+03 -1.12463E+03 -2.62535E+03 -3.52782E+03  2.40421E+02 -6.08570E+03  3.51411E+03 -5.61372E+03
  5.93378E+03 -3.50917E+03  7.64210E+03  5.26008E+02  5.47415E+03  5.13397E+03  1.31224E+03  6.94308E+03
 -2.75346E+03  6.41172E+03 -3.78766E+03  2.09881E+03 -2.23794E+03 -7.90519E+02 -7.40586E+02 -5.76137E+02
 -3.01830E+02  3.92325E+02 -1.09380E+03  1.99966E+03 -2.92056E+03  1.21892E+03 -4.42383E+03 -3.55645E+02
 -1.81931E+03 -4.37236E+03  8.45724E+02 -5.48090E+03  3.03911E+03 -4.90734E+03  4.19002E+03 -1.37706E+03
  4.97258E+03  2.70104E+03  2.29103E+03  3.88616E+03 -5.98079E+02  5.00650E+03 -3.15121E+03  3.14872E+03
 -4.51317E+03  4.58468E+02 -3.71047E+03 -2.70823E+03 -5.24349E+02 -3.64949E+03  2.03749E+03 -2.92539E+03
  2.95713E+03 -1.52600E+03  2.00226E+03  5.17887E+02  6.23907E+02  1.37359E+03  8.06427E+02  8.14152E+02
  1.63305E+03  5.61587E+02  1.15188E+03  1.27857E+03  1.09138E+03  2.19160E+03  1.58396E+03  2.26227E+03
 -1.36023E+03  3.50935E+03 -3.12369E+03  4.61159E+03 -3.36388E+03  1.44400E+03 -4.75539E+03 -5.69229E+02
 -2.13600E+03 -4.14552E+03  7.16866E+02 -5.48880E+03  2.08406E+03 -3.04311E+03  3.65227E+03 -9.21206E+02
  2.90578E+03  1.85418E+03  4.61463E+02  2.55596E+03 -9.95213E+02  1.32271E+03 -1.19490E+03 -2.81147E+02
 -3.96850E+02 -1.71123E+03  1.31104E+03 -1.76360E+03  1.29690E+03 -1.18141E+03  1.48881E+03  2.07786E+02
  1.06200E+03  4.33407E+02  7.76263E+02 -2.20597E+02  1.59360E+01  7.74812E+02  1.60298E+03 -1.64222E+02
  2.48929E+02 -1.33650E+02  1.98613E+03  3.51326E+02  6.18636E+02  2.53987E+03 -6.96153E+02  3.43550E+03
 -1.79508E+03  1.32970E+03 -2.22199E+03  3.79489E+02 -2.44537E+03 -6.00829E+02 -3.60521E+02 -1.04533E+03
  2.78173E+02 -1.22532E+03  8.53993E+02 -6.52162E+02  7.96226E+02  1.27047E+03 -7.81456E+02  1.38801E+03
 -1.62418E+03  8.29873E+02 -1.38285E+03 -1.48756E+03 -9.64692E+02 -2.20164E+03  1.26714E+02 -1.83824E+03
  3.75054E+02 -5.78350E+02  7.27065E+02  1.30915E+02  1.39551E+03 -1.94993E+02  3.80373E+02  1.38314E+03
 -5.29677E+02  1.76460E+02 -1.03989E+03 -3.63035E+02  6.96235E+02 -6.39629E+02  1.74528E+03 -8.48813E+02
  1.50438E+03  2.15622E+02  3.03424E+03  7.42419E+02  9.80940E+02  2.03204E+03 -3.57645E+02  2.21609E+03
 -1.71400E+03  2.03312E+02 -1.47237E+03 -2.32582E+02 -1.14143E+03 -1.55317E+03  1.34436E+02 -6.88745E+02
  1.31915E+03 -5.32767E+02  8.08028E+02  6.40212E+02  1.45757E+02  1.58919E+03  2.03862E+01  1.18912E+03
 -2.76804E+02  9.29423E+02 -7.81244E+02  4.49074E+02 -3.25539E+02  3.31186E+02 -6.35672E+02  5.50756E+02
 -7.19541E+02  1.11283E+03 -1.86768E+03  6.61725E+02 -1.73177E+03 -1.27520E+02 -2.54996E+03 -1.23959E+03
 -1.16931E+03 -2.47102E+03  5.54843E+02 -2.96842E+03  9.59493E+02 -2.61742E+03  2.88868E+03 -1.36838E+03
  2.61020E+03  1.29700E+02  1.17908E+03  1.69877E+03 -5.00563E+02  1.50992E+03 -6.70311E+02  1.34453E+03
 -8.88531E+02  7.69790E+02 -6.43156E+02 -5.29853E+02 -2.62415E+02  7.68297E+01 -6.17531E+02  5.17067E+01
 -9.88851E+02  1.58659E+02 -5.11023E+02  1.43138E+02  1.51208E+02 -5.34226E+02 -2.55335E+02 -8.90059E+02
  1.26599E+03 -6.78608E+02  6.60984E+02  2.31840E+02  1.37518E+03  1.13180E+03 -2.37163E+02  1.49479E+03
 -1.12446E+03  2.31980E+03 -1.80986E+03  1.17816E+03 -1.78279E+03 -3.09069E+02 -1.20910E+03 -1.37048E+03
 -6.89963E+02 -1.32254E+03  5.70544E+02 -1.05030E+03  9.30871E+02 -6.35348E+02  7.75508E+02  3.60848E+01
  7.88575E+02  2.74327E+02  1.03932E+02  6.09445E+02 -2.51835E+02  2.49152E+02 -1.23190E+01 -3.46625E+02
  3.66580E+02  3.24358E+02  3.49942E+02  3.86441E+02  2.95843E+02  5.95424E+02  3.31894E+02  2.46771E+02
 -4.41118E+02  5.61809E+02 -4.68645E+02  1.49531E+02 -8.42706E+02 -5.12257E+02 -2.05476E+01 -1.12371E+03
  4.47664E+02 -8.41929E+02  5.62655E+02  2.10389E+02  1.10757E+03 -4.81598E+02  4.24827E+02  9.78910E+02
  6.14211E+02  3.95856E+02 -1.33845E+01  6.62765E+02 -3.72563E+02  6.36826E+02 -3.01778E+02  1.51933E+02
 -1.53003E+02  1.25310E+02 -2.42238E+02  2.54925E+02 -6.72364E+02  1.50191E+02 -8.16201E+02 -1.88392E+02
 -1.00024E+03  2.12639E+02 -3.14743E+02 -9.00803E+02  5.57556E+02 -1.41639E+03  6.39129E+02 -1.52184E+02
  8.54555E+02  1.16463E+02 -2.64860E+02  3.45874E+02 -2.15187E+02  8.97504E+02 -4.12418E+02  6.13860E+02
