 $NMID ID='MM_0lb_SNR800_13hz_g45_88.RAW', FMTDAT='(8E13.5)'
 TRAMP=1., VOLUME=1. $END
  3.10050E+05  7.33755E+02  3.37539E+05  2.50418E+05  8.48820E+04  3.37842E+05 -1.32513E+05  2.51200E+05
 -1.90118E+05  8.32656E+04 -1.11756E+05 -3.24154E+04  5.26909E+02 -5.07096E+04  5.37128E+04 -2.88661E+02
  3.53078E+04  5.29621E+04 -1.69086E+04  7.56332E+04 -6.08396E+04  6.32733E+04 -8.40990E+04  3.21476E+04
 -8.12722E+04 -1.14762E+04 -5.72176E+04 -5.10386E+04 -1.46898E+04 -6.97847E+04  2.75445E+04 -4.58872E+04
  4.01440E+04  3.71312E+03  1.63006E+04  4.79446E+04 -3.44820E+04  4.71899E+04 -6.70000E+04 -2.10265E+01
 -5.34221E+04 -5.69780E+04 -6.68535E+03 -7.70315E+04  3.39622E+04 -5.49499E+04  4.81880E+04 -1.74691E+04
  4.34872E+04  1.13527E+04  3.23262E+04  2.59053E+04  1.58677E+04  2.95302E+04 -5.24407E+03  2.73988E+04
 -2.19980E+04  1.24007E+04 -1.85262E+04 -4.92961E+03  6.02939E+03 -7.61104E+03  2.22941E+04  1.25812E+04
  7.27641E+03  3.54248E+04 -3.23969E+04  3.54029E+04 -6.34984E+04  2.27383E+03 -5.70472E+04 -4.29496E+04
 -1.25143E+04 -6.32925E+04  3.96182E+04 -4.53683E+04  5.84811E+04 -2.12372E+03  3.44812E+04  3.26060E+04
 -6.06546E+03  3.60030E+04 -3.01266E+04  1.59843E+04 -3.08167E+04 -4.13804E+03 -1.66452E+04 -1.10893E+04
 -8.10613E+03 -1.29370E+04 -8.55063E+02 -1.78131E+04  7.43991E+03 -2.31885E+04  1.54208E+04 -1.29651E+04
  1.14501E+04  5.41100E+03 -8.45589E+03  1.30703E+04 -2.13158E+04 -4.67089E+03 -8.47688E+03 -3.44638E+04
  2.27258E+04 -4.39828E+04  4.83875E+04 -1.97123E+04  4.55793E+04  1.93258E+04  1.59322E+04  4.44855E+04
 -1.61771E+04  3.36992E+04 -2.59488E+04  2.02395E+03 -9.78831E+03 -2.78194E+04  2.13144E+04 -3.45538E+04
  4.13396E+04 -9.13645E+03  3.55941E+04  2.40145E+04  1.84799E+04  4.68485E+04 -7.94915E+03  5.05283E+04
 -3.21711E+04  3.40905E+04 -4.24704E+04  9.81158E+03 -4.33098E+04 -1.68596E+04 -2.33334E+04 -3.83952E+04
  7.46948E+03 -3.81449E+04  3.18379E+04 -1.49932E+04  2.94808E+04  1.11290E+04  4.05908E+03  1.93811E+04
 -1.38205E+04  8.58434E+03 -1.01698E+04 -7.74244E+03  5.78514E+03 -1.05833E+04  1.80785E+04  6.16868E+03
  1.35326E+04  2.22300E+04 -5.94927E+03  2.52847E+04 -2.24265E+04  1.18698E+04 -2.81412E+04 -4.99726E+03
 -2.07618E+04 -1.74749E+04 -8.47582E+03 -2.05986E+04  3.98544E+03 -2.04755E+04  1.61316E+04 -1.86892E+04
  2.67520E+04 -1.30635E+04  3.34632E+04  2.70978E+03  2.42002E+04  2.00369E+04  4.17996E+03  3.69247E+04
 -1.79952E+04  3.07534E+04 -2.82552E+04  1.06449E+04 -2.10572E+04 -1.04451E+04 -4.47836E+03 -1.36317E+04
  1.69190E+03 -2.62861E+03 -5.28777E+03  6.55177E+03 -1.66411E+04  5.31022E+03 -1.67897E+04 -7.34879E+03
 -1.01913E+04 -1.97425E+04  5.10741E+03 -2.33245E+04  1.55236E+04 -1.68058E+04  1.84472E+04 -1.71870E+03
  1.18270E+04  1.37704E+04 -1.19564E+03  1.96962E+04 -1.35977E+04  1.07809E+04 -1.94656E+04 -4.09434E+03
 -1.44452E+04 -1.75525E+04 -1.86385E+03 -2.36205E+04  1.05700E+04 -1.95120E+04  1.94524E+04 -9.82145E+03
  1.83367E+04  1.18613E+02  1.29008E+04  4.45278E+03  6.73674E+03  1.03593E+03  9.96482E+03 -1.80636E+03
  1.78812E+04  2.49009E+03  1.99554E+04  1.53011E+04  1.29995E+04  3.11410E+04 -3.04833E+03  3.53543E+04
 -2.00720E+04  2.84833E+04 -3.29430E+04  1.45524E+04 -3.47695E+04 -2.52004E+03 -2.84905E+04 -2.02416E+04
 -1.22282E+04 -2.86142E+04  9.84876E+03 -2.56875E+04  2.21616E+04 -1.32661E+04  1.97832E+04  5.87769E+03
  7.47230E+03  1.47759E+04 -8.88937E+03  1.32222E+04 -1.68549E+04  2.76737E+03 -1.26528E+04 -9.95291E+03
 -2.90193E+02 -1.59691E+04  8.24910E+03 -1.21355E+04  1.05297E+04 -8.90948E+02  2.26027E+03  6.93563E+03
 -7.04381E+03  2.78217E+03 -6.48142E+03 -5.60076E+03 -6.95666E+02 -1.36405E+04  9.72306E+03 -1.50235E+04
  1.74275E+04 -7.87295E+03  1.89247E+04  2.95764E+03  1.62121E+04  1.39424E+04  7.77887E+03  2.10925E+04
 -3.70939E+03  2.31632E+04 -1.46831E+04  1.47278E+04 -1.67155E+04  3.18749E+03 -1.17967E+04 -3.54950E+03
 -5.41645E+03 -4.86576E+03 -7.51887E+02  9.16807E+02 -2.34943E+03  2.88956E+03 -5.23659E+03  4.59508E+03
 -1.08374E+04 -9.63798E+02 -1.16445E+04 -9.69624E+03 -4.45171E+03 -1.52038E+04  5.07556E+03 -1.15475E+04
  9.68983E+03 -5.08840E+03  7.01501E+03  3.29942E+03  9.19662E+01  4.71958E+03 -5.33249E+03 -3.09091E+02
 -5.41166E+03 -7.70364E+03 -9.44248E+02 -1.12641E+04  6.51731E+03 -1.17826E+04  1.47751E+04 -6.26792E+03
  1.72866E+04  1.59202E+03  1.26258E+04  1.00260E+04  2.20734E+03  1.34085E+04 -7.04700E+03  1.17006E+04
 -9.84098E+03  3.82516E+03 -5.10917E+03 -2.47816E+03  1.75211E+03 -2.78937E+03  6.72511E+03 -5.13653E+02
  5.70781E+03  4.96770E+03  1.15580E+03  9.39364E+03 -6.76366E+03  8.99015E+03 -1.17200E+04  2.19016E+03
 -7.68234E+03 -5.76844E+03  2.63287E+02 -9.80016E+03  6.22597E+03 -4.97111E+03  6.27848E+03  1.83037E+03
  1.16758E+03  6.74521E+03 -5.91059E+03  8.07939E+03 -8.84084E+03  3.61319E+03 -8.85770E+03 -3.06488E+03
 -5.29255E+03 -1.03587E+04  2.16975E+03 -1.23079E+04  1.03258E+04 -7.37434E+03  1.12864E+04  2.12688E+03
  6.99322E+03  8.89798E+03 -7.18767E+02  1.11290E+04 -8.27631E+03  6.18142E+03 -8.80879E+03 -9.45579E+02
 -7.76735E+03 -7.39000E+03 -1.32389E+03 -8.39930E+03  4.25117E+03 -7.01438E+03  5.10477E+03 -3.42025E+03
  3.75107E+03  8.65021E+02 -1.32367E+02  1.54035E+03  7.58066E+01 -1.92627E+03  1.34378E+03 -4.44466E+03
  7.33888E+03 -2.57624E+03  1.01085E+04  1.28326E+03  1.03092E+04  6.38612E+03  7.26072E+03  1.31529E+04
 -2.80787E+03  1.52341E+04 -1.29478E+04  1.18123E+04 -1.70267E+04  2.24093E+03 -1.36259E+04 -5.52089E+03
 -6.74014E+03 -1.13609E+04 -4.77241E+02 -9.43133E+03  3.45899E+03 -4.72150E+03  3.21722E+03 -3.60721E+03
  2.49813E+03 -2.45844E+03  2.84690E+03 -3.13346E+03  4.61615E+03 -2.44154E+03  5.34725E+03 -3.66702E+02
  7.11880E+03  1.77112E+03  2.98584E+03  6.06622E+03 -1.93243E+03  6.85513E+03 -7.18709E+03  5.37366E+03
 -9.25031E+03 -1.00644E+03 -5.36343E+03 -6.40632E+03 -5.62900E+02 -9.58902E+03  5.61635E+03 -1.00301E+04
  1.00752E+04 -5.32932E+03  1.20482E+04  1.42531E+03  8.79009E+03  7.96373E+03  1.36681E+03  1.12162E+04
 -4.57128E+03  9.39849E+03 -6.29449E+03  3.28633E+03 -3.92741E+03 -1.17557E+03 -1.78711E+03 -1.28416E+03
 -1.03541E+03  4.41336E+02 -1.27299E+03  2.28915E+03 -3.83342E+03  2.01894E+03 -6.46965E+03 -8.68619E+02
 -4.26908E+03 -6.70444E+03  4.47851E+02 -9.03420E+03  5.65473E+03 -8.56042E+03  8.10811E+03 -2.25556E+03
  8.45280E+03  4.14385E+03  4.00019E+03  7.68513E+03 -1.52753E+03  8.81892E+03 -6.19953E+03  5.50800E+03
 -7.83717E+03  4.26264E+02 -6.19984E+03 -5.42484E+03 -7.48183E+02 -7.20495E+03  3.35979E+03 -5.18904E+03
  5.50050E+03 -2.04938E+03  3.48730E+03  1.33124E+03  1.01898E+03  2.73016E+03  8.29068E+02  1.24628E+03
  2.38236E+03  6.97510E+02  1.90717E+03  1.45068E+03  2.32001E+03  3.29186E+03  2.60641E+03  4.20107E+03
 -1.91347E+03  6.73668E+03 -5.55597E+03  7.38282E+03 -8.04843E+03  1.94798E+03 -9.08868E+03 -3.28171E+03
 -3.90897E+03 -8.38520E+03  1.36568E+03 -9.74562E+03  5.20622E+03 -5.95244E+03  7.31268E+03 -1.63395E+03
  5.35007E+03  3.62968E+03  1.30962E+03  4.75043E+03 -2.25010E+03  3.23469E+03 -3.08029E+03 -5.54261E+02
 -1.59787E+03 -3.62913E+03  2.00159E+03 -3.93514E+03  3.41478E+03 -1.78909E+03  3.34546E+03  1.00634E+03
  1.85510E+03  1.72310E+03  7.50410E+02  1.16753E+03 -7.14567E+02  1.35391E+03  1.50474E+03 -6.08447E+02
  7.95495E+02 -1.62254E+02  3.77708E+03  1.36824E+03  1.76506E+03  4.45938E+03 -7.13034E+02  5.77529E+03
 -4.04728E+03  3.58566E+03 -5.26660E+03  9.94791E+02 -4.92484E+03 -1.91274E+03 -1.34082E+03 -3.08853E+03
  5.75120E+02 -2.87849E+03  2.11270E+03 -1.21265E+03  1.70917E+03  2.05332E+03 -1.04199E+03  2.80569E+03
 -3.48933E+03  1.61250E+03 -3.48895E+03 -2.55627E+03 -2.00367E+03 -4.40500E+03  6.76261E+02 -4.66391E+03
  2.07813E+03 -2.28021E+03  2.94422E+03 -1.14295E+02  2.92120E+03  9.63881E+02  8.35154E+02  2.42738E+03
 -1.51544E+03  8.16843E+02 -2.28434E+03 -1.33343E+03  9.19808E+02 -2.92425E+03  4.25777E+03 -2.40464E+03
  4.21827E+03  4.04117E+02  4.90006E+03  2.94570E+03  1.61881E+03  4.96151E+03 -1.69479E+03  5.03692E+03
 -4.59772E+03  1.84401E+03 -4.16268E+03 -4.58561E+02 -2.39138E+03 -3.50033E+03  3.49234E+02 -2.93375E+03
  3.27675E+03 -1.61522E+03  2.64683E+03  1.38335E+03  6.66129E+02  2.83652E+03 -4.90685E+02  2.38710E+03
 -1.29574E+03  2.05777E+03 -1.21916E+03  5.53511E+02 -7.79595E+02  6.88289E+02 -8.94198E+02  8.63684E+02
 -1.60785E+03  1.98468E+03 -3.59503E+03  1.44979E+03 -4.63170E+03  1.74783E+02 -5.40708E+03 -3.24233E+03
 -2.97570E+03 -6.32775E+03  1.47132E+03 -7.73887E+03  3.85846E+03 -6.13711E+03  7.40051E+03 -2.23271E+03
  6.86669E+03  9.36733E+02  3.93915E+03  4.73464E+03 -4.26394E+02  4.72269E+03 -2.19292E+03  3.69516E+03
 -2.84786E+03  1.53686E+03 -1.24024E+03 -7.30380E+02 -6.21829E+02  5.98326E+01 -7.00104E+02 -1.46806E+02
 -1.29926E+03  4.14895E+02 -1.57785E+03 -1.76617E+02 -2.20385E+02 -1.44841E+03 -2.18190E+02 -1.84221E+03
  2.37358E+03 -1.53625E+03  2.40100E+03  6.97774E+01  3.16782E+03  2.79676E+03  3.61179E+02  4.43511E+03
 -2.44101E+03  5.77298E+03 -5.14634E+03  3.12224E+03 -5.93591E+03 -5.51329E+02 -4.36601E+03 -3.87847E+03
 -2.14399E+03 -4.67517E+03  9.66183E+02 -3.94192E+03  2.66794E+03 -2.57255E+03  3.22089E+03 -1.38917E+02
  2.10981E+03  1.33426E+03 -1.93474E+02  1.36122E+03 -1.19959E+03  5.99052E+01  1.74260E+02 -1.19508E+03
  1.96530E+03 -5.31087E+02  1.42736E+03  9.44237E+02  1.20920E+03  2.07659E+03  4.30777E+02  2.08729E+03
 -1.83051E+03  1.97512E+03 -2.81326E+03  6.86831E+01 -2.52793E+03 -1.97203E+03 -1.38640E+02 -3.87081E+03
  1.93594E+03 -2.90566E+03  2.94510E+03 -7.55689E+02  3.56842E+03  1.77359E+02  1.90627E+03  3.17445E+03
  6.25708E+02  2.93415E+03 -1.09092E+03  2.36278E+03 -1.49803E+03  1.86293E+03 -1.61095E+03  4.25795E+02
 -8.95722E+02  1.38319E+01 -7.11908E+02  4.17516E+02 -1.58597E+03  4.67366E+02 -2.67258E+03 -4.60155E+02
 -2.37572E+03 -1.20622E+03 -7.98172E+02 -2.77547E+03  1.74337E+03 -3.46567E+03  2.76909E+03 -1.27946E+03
  2.92775E+03  1.29422E+02  9.48439E+02  1.76524E+03 -2.52071E+02  3.12698E+03 -1.82674E+03  2.07876E+03
