 $NMID ID='MM_0lb_SNR800_16hz_g45_89.RAW', FMTDAT='(8E13.5)'
 TRAMP=1., VOLUME=1. $END
  3.09843E+05 -1.77612E+01  3.37612E+05  2.50476E+05  8.46236E+04  3.37713E+05 -1.32759E+05  2.50429E+05
 -1.90131E+05  8.27989E+04 -1.11119E+05 -3.27679E+04  9.88506E+02 -5.02234E+04  5.40732E+04 -8.76110E+01
  3.51107E+04  5.27840E+04 -1.67793E+04  7.51622E+04 -6.05594E+04  6.32166E+04 -8.34053E+04  3.19539E+04
 -8.03689E+04 -1.11312E+04 -5.65637E+04 -5.02586E+04 -1.46045E+04 -6.90095E+04  2.70471E+04 -4.50363E+04
  3.96531E+04  3.85054E+03  1.55557E+04  4.75504E+04 -3.40417E+04  4.64973E+04 -6.58606E+04 -1.15426E+02
 -5.27176E+04 -5.63206E+04 -6.77236E+03 -7.59053E+04  3.35518E+04 -5.39771E+04  4.69978E+04 -1.67743E+04
  4.21879E+04  1.10216E+04  3.13046E+04  2.50082E+04  1.57752E+04  2.88506E+04 -4.83213E+03  2.71347E+04
 -2.18101E+04  1.22690E+04 -1.87638E+04 -4.99818E+03  4.60129E+03 -7.46818E+03  2.16432E+04  1.12829E+04
  7.22972E+03  3.41094E+04 -3.11544E+04  3.46048E+04 -6.20045E+04  2.38500E+03 -5.62833E+04 -4.19843E+04
 -1.24057E+04 -6.15154E+04  3.88433E+04 -4.44383E+04  5.67100E+04 -2.19327E+03  3.32774E+04  3.12507E+04
 -6.44743E+03  3.42733E+04 -2.89518E+04  1.43846E+04 -2.87615E+04 -4.94790E+03 -1.53673E+04 -1.06589E+04
 -7.82723E+03 -1.23590E+04 -7.76682E+02 -1.72557E+04  7.02806E+03 -2.23607E+04  1.50629E+04 -1.38007E+04
  1.17061E+04  4.62408E+03 -7.21914E+03  1.32033E+04 -2.01879E+04 -3.41803E+03 -7.82353E+03 -3.19531E+04
  2.18325E+04 -4.18617E+04  4.63838E+04 -1.92865E+04  4.32748E+04  1.86991E+04  1.47290E+04  4.27464E+04
 -1.50784E+04  3.23791E+04 -2.41844E+04  1.40808E+03 -8.93985E+03 -2.67763E+04  2.08464E+04 -3.23962E+04
  3.94089E+04 -8.12819E+03  3.32236E+04  2.30081E+04  1.66652E+04  4.44498E+04 -7.80371E+03  4.72305E+04
 -3.00547E+04  3.16547E+04 -3.93653E+04  8.74882E+03 -4.02421E+04 -1.57469E+04 -2.22385E+04 -3.59128E+04
  7.29891E+03 -3.58133E+04  3.03441E+04 -1.36315E+04  2.79359E+04  1.09523E+04  3.41289E+03  1.84727E+04
 -1.31407E+04  7.67598E+03 -1.00046E+04 -7.49094E+03  6.15587E+03 -1.04895E+04  1.76243E+04  6.11504E+03
  1.27797E+04  2.19359E+04 -6.10586E+03  2.41553E+04 -2.19433E+04  1.02257E+04 -2.62739E+04 -5.80732E+03
 -1.81420E+04 -1.67487E+04 -7.00949E+03 -1.86940E+04  3.74722E+03 -1.68752E+04  1.39982E+04 -1.61962E+04
  2.35312E+04 -1.20803E+04  3.01425E+04  1.93614E+03  2.26093E+04  1.81754E+04  4.23941E+03  3.40072E+04
 -1.69773E+04  2.88442E+04 -2.70698E+04  9.88574E+03 -2.00642E+04 -1.04093E+04 -4.26299E+03 -1.34307E+04
  2.43880E+03 -3.37885E+03 -3.69272E+03  6.07509E+03 -1.45037E+04  5.23857E+03 -1.50935E+04 -5.99506E+03
 -9.56343E+03 -1.71275E+04  4.82491E+03 -2.12966E+04  1.40847E+04 -1.54029E+04  1.63477E+04 -1.53211E+03
  1.01153E+04  1.20995E+04 -1.05773E+03  1.70212E+04 -1.15413E+04  9.65193E+03 -1.72544E+04 -3.53391E+03
 -1.25564E+04 -1.55855E+04 -1.64627E+03 -2.09346E+04  9.44116E+03 -1.68521E+04  1.75678E+04 -8.18173E+03
  1.64579E+04  4.86780E+02  1.14568E+04  4.28379E+03  5.91431E+03  6.51177E+02  8.45667E+03 -1.38400E+03
  1.56603E+04  2.83006E+03  1.69174E+04  1.38754E+04  1.06996E+04  2.71582E+04 -3.06012E+03  3.00263E+04
 -1.72357E+04  2.35785E+04 -2.77998E+04  1.14796E+04 -2.90864E+04 -2.33870E+03 -2.44366E+04 -1.64667E+04
 -1.09710E+04 -2.38117E+04  8.16946E+03 -2.19159E+04  1.89161E+04 -1.17477E+04  1.71504E+04  4.75682E+03
  7.02349E+03  1.26230E+04 -7.94380E+03  1.14506E+04 -1.45291E+04  2.66822E+03 -1.14776E+04 -9.03222E+03
 -2.23348E+02 -1.38231E+04  7.10468E+03 -1.03330E+04  8.65652E+03 -1.35644E+03  1.73379E+03  5.84736E+03
 -5.96271E+03  2.12360E+03 -4.86743E+03 -4.78520E+03 -1.16449E+01 -1.17441E+04  8.58735E+03 -1.18164E+04
  1.42954E+04 -6.05585E+03  1.45918E+04  2.95621E+03  1.27735E+04  1.10544E+04  5.94274E+03  1.68249E+04
 -2.62684E+03  1.89705E+04 -1.16586E+04  1.18505E+04 -1.33835E+04  3.41926E+03 -9.81675E+03 -2.65482E+03
 -4.88485E+03 -4.01039E+03 -8.75809E+02  1.18915E+03 -1.96421E+03  2.09199E+03 -4.35053E+03  4.16587E+03
 -9.30457E+03 -6.51036E+02 -9.77172E+03 -7.99867E+03 -4.16713E+03 -1.29001E+04  4.11413E+03 -9.68327E+03
  8.01359E+03 -4.39003E+03  6.02579E+03  2.65764E+03  4.36746E+02  3.73739E+03 -4.19892E+03 -1.12120E+02
 -4.14548E+03 -5.90422E+03 -9.18271E+02 -8.79584E+03  4.74371E+03 -9.42606E+03  1.16148E+04 -4.67544E+03
  1.40756E+04  9.15559E+02  1.01402E+04  7.34331E+03  1.87859E+03  1.07611E+04 -6.09312E+03  9.68121E+03
 -7.93782E+03  3.12517E+03 -4.43321E+03 -1.41354E+03  1.36263E+03 -2.42103E+03  5.40945E+03 -1.02736E+03
  4.57293E+03  3.77263E+03  9.15295E+02  7.47167E+03 -5.07301E+03  7.38754E+03 -9.26882E+03  2.26156E+03
 -6.04254E+03 -4.50498E+03  1.49323E+02 -7.66050E+03  4.48759E+03 -4.04107E+03  4.34562E+03  1.47827E+03
  8.03313E+02  4.37947E+03 -4.76577E+03  6.04101E+03 -6.37055E+03  3.10028E+03 -6.01222E+03 -1.94091E+03
 -3.82260E+03 -7.72966E+03  1.63299E+03 -9.04494E+03  7.50332E+03 -5.55949E+03  8.44474E+03  1.31715E+03
  5.30119E+03  6.90888E+03 -1.78258E+02  8.62294E+03 -6.25739E+03  4.89179E+03 -6.40093E+03 -7.05176E+02
 -6.45436E+03 -6.02245E+03 -1.49343E+03 -6.02692E+03  3.30469E+03 -5.22164E+03  3.81381E+03 -3.08782E+03
  3.35647E+03  6.72145E+02 -1.86117E+02  1.57174E+03 -8.30684E+01 -7.59050E+02  5.85746E+02 -2.70213E+03
  5.39630E+03 -1.08591E+03  7.17541E+03  9.26050E+02  7.22005E+03  4.41770E+03  6.03859E+03  9.68413E+03
 -1.90768E+03  1.11829E+04 -9.82773E+03  8.20150E+03 -1.25454E+04  1.48191E+03 -1.02092E+04 -3.92653E+03
 -5.25802E+03 -8.24963E+03 -2.65194E+02 -6.68231E+03  2.56985E+03 -2.90058E+03  2.26313E+03 -2.57082E+03
  1.72807E+03 -1.78210E+03  2.52195E+03 -2.54830E+03  3.88584E+03 -1.46702E+03  4.12435E+03  1.60218E+02
  5.29700E+03  1.44510E+03  1.99842E+03  4.35067E+03 -1.25850E+03  4.21414E+03 -5.63035E+03  3.67619E+03
 -6.47497E+03 -7.59172E+02 -3.16690E+03 -4.65175E+03  2.56671E+02 -6.73543E+03  4.09952E+03 -6.97238E+03
  6.90355E+03 -4.35132E+03  8.96629E+03  7.04840E+02  6.44958E+03  6.02120E+03  1.37355E+03  7.92027E+03
 -2.92843E+03  6.99114E+03 -4.33164E+03  2.33661E+03 -2.59058E+03 -1.38864E+03 -9.94341E+02 -8.68635E+02
 -6.48716E+02  3.84541E+02 -1.21902E+03  2.10184E+03 -3.11144E+03  1.25947E+03 -5.27475E+03 -4.77006E+02
 -2.31424E+03 -4.94554E+03  7.86867E+02 -6.41073E+03  3.73452E+03 -5.83954E+03  5.53956E+03 -1.38921E+03
  5.68469E+03  2.93220E+03  2.72295E+03  4.78167E+03 -1.25008E+03  5.74150E+03 -4.14298E+03  3.99125E+03
 -5.24357E+03  7.46365E+02 -4.50666E+03 -3.40405E+03 -3.53727E+02 -4.63536E+03  2.22719E+03 -3.72962E+03
  3.58552E+03 -1.64778E+03  2.19108E+03  8.72425E+02  6.89046E+02  1.99859E+03  1.08092E+03  5.96154E+02
  1.63913E+03  6.62764E+02  1.50351E+03  1.16760E+03  1.54273E+03  2.72252E+03  1.65237E+03  2.69423E+03
 -1.46758E+03  4.16305E+03 -3.71212E+03  5.29928E+03 -4.99375E+03  1.51729E+03 -5.84186E+03 -1.27407E+03
 -2.59088E+03 -5.33300E+03  8.10563E+02 -6.29174E+03  3.11442E+03 -4.00457E+03  4.45062E+03 -1.31269E+03
  3.46743E+03  2.14309E+03  6.00038E+02  3.26651E+03 -1.25946E+03  2.13465E+03 -1.99991E+03 -2.41646E+02
 -8.50603E+02 -2.41565E+03  1.54059E+03 -2.22982E+03  2.20717E+03 -1.40467E+03  2.12262E+03  3.10292E+02
  9.30504E+02  6.03570E+02  8.04990E+02  6.85271E+01 -5.33835E+02  8.15853E+02  1.56074E+03 -3.02476E+02
  3.17805E+02 -4.86313E+02  2.43086E+03  9.74131E+02  6.57034E+02  3.41081E+03 -3.14165E+02  4.09421E+03
 -2.85097E+03  1.83390E+03 -3.38835E+03  3.33715E+02 -2.91716E+03 -1.16439E+03 -5.42037E+02 -1.69346E+03
  3.33518E+02 -1.95117E+03  1.56700E+03 -9.53722E+02  8.60757E+02  1.48406E+03 -1.06638E+03  1.78308E+03
 -2.01357E+03  8.54247E+02 -2.05449E+03 -1.95568E+03 -1.10702E+03 -2.94868E+03  2.31367E+02 -2.34714E+03
  1.12468E+03 -1.32794E+03  1.32372E+03  2.50937E+02  1.71561E+03  9.97063E+01  5.62656E+02  1.58990E+03
 -6.42347E+02  1.86247E+02 -1.21206E+03 -7.19525E+02  4.08443E+02 -1.58369E+03  2.49247E+03 -1.58598E+03
  2.29155E+03  1.79471E+02  3.83149E+03  1.49842E+03  1.41692E+03  2.96044E+03 -5.30849E+02  2.89652E+03
 -2.26693E+03  7.87547E+02 -2.35110E+03 -3.04993E+02 -1.12788E+03 -1.84551E+03  4.63950E+02 -1.05824E+03
  2.39697E+03 -1.12978E+03  1.44422E+03  1.00319E+03  4.39380E+02  2.15288E+03 -1.01869E+02  1.53303E+03
 -9.52425E+02  1.28921E+03 -6.70689E+02  2.59093E+02 -3.14882E+02  5.00807E+02 -7.60829E+02  6.89921E+02
 -7.53389E+02  1.21206E+03 -2.45131E+03  8.10130E+02 -2.70588E+03  3.40716E+02 -3.44359E+03 -1.56480E+03
 -1.39564E+03 -3.67699E+03  1.00158E+03 -4.44442E+03  2.09434E+03 -3.70760E+03  4.54038E+03 -1.71713E+03
  3.67300E+03  4.05317E+01  2.03652E+03  2.40646E+03 -4.17227E+02  2.56978E+03 -1.26256E+03  2.12054E+03
 -1.59481E+03  8.57896E+02 -8.52632E+02 -3.67472E+02 -3.69358E+02 -2.80355E+02 -7.42870E+02 -2.68721E+02
 -1.31444E+03 -8.46622E+01 -7.59400E+02  1.10665E+02 -5.20079E+01 -8.25565E+02 -5.86959E+02 -1.08726E+03
  1.27700E+03 -7.99783E+02  1.06512E+03  1.22313E+02  1.85891E+03  1.74191E+03 -2.36197E+02  2.59233E+03
 -1.55639E+03  3.41247E+03 -2.72685E+03  1.47770E+03 -3.13519E+03 -3.03552E+02 -1.98653E+03 -1.86607E+03
 -1.24896E+03 -2.64560E+03  1.62338E+02 -2.24712E+03  1.49574E+03 -1.19196E+03  1.67752E+03  1.27620E+02
  9.51119E+02  7.37588E+02  1.42848E+02  5.79452E+02 -4.15214E+02  5.58756E+01  1.82990E+02 -5.28106E+02
  7.28877E+02  2.74840E+02  8.94975E+02  4.19202E+02  3.17311E+02  8.56357E+02  1.75531E+02  8.63907E+02
 -1.17217E+03  1.18318E+03 -1.44681E+03  3.72602E+02 -1.47451E+03 -1.14281E+03 -3.20773E+01 -1.93077E+03
  1.20944E+03 -1.76721E+03  1.26555E+03 -2.63408E+02  1.82210E+03 -3.23278E+02  9.93989E+02  1.69514E+03
  5.62995E+02  1.18256E+03 -4.19798E+02  8.55040E+02 -1.10359E+03  7.90901E+02 -7.27738E+02 -1.14025E+02
 -3.46282E+02 -4.47360E+02 -5.52614E+02 -8.04047E+01 -9.90814E+02  5.44655E+01 -9.67318E+02 -5.19254E+02
 -1.65729E+03 -2.66556E+02 -3.98465E+02 -1.67462E+03  1.04446E+03 -2.30559E+03  1.39634E+03 -5.96216E+02
  1.25791E+03  3.95980E+02  3.63687E+02  1.12282E+03 -3.01227E+02  1.38943E+03 -9.11654E+02  1.37771E+03
