 $NMID ID='MM_0lb_SNR800_19hz_g55_99.RAW', FMTDAT='(8E13.5)'
 TRAMP=1., VOLUME=1. $END
  3.10066E+05  4.63935E+02  3.37655E+05  2.50338E+05  8.42828E+04  3.37585E+05 -1.32439E+05  2.50519E+05
 -1.89881E+05  8.26507E+04 -1.11439E+05 -3.26582E+04  1.00557E+03 -5.02287E+04  5.39687E+04  4.28147E+01
  3.51634E+04  5.26855E+04 -1.68850E+04  7.50505E+04 -6.05670E+04  6.29946E+04 -8.31322E+04  3.16319E+04
 -7.99461E+04 -1.12505E+04 -5.66112E+04 -5.07301E+04 -1.49916E+04 -6.84865E+04  2.68034E+04 -4.48940E+04
  3.94124E+04  3.96033E+03  1.58643E+04  4.73415E+04 -3.41736E+04  4.65916E+04 -6.55839E+04 -4.99037E+02
 -5.24509E+04 -5.61187E+04 -6.12611E+03 -7.57636E+04  3.34574E+04 -5.34137E+04  4.65961E+04 -1.64306E+04
  4.17663E+04  1.13021E+04  3.10737E+04  2.46851E+04  1.57057E+04  2.88321E+04 -5.13865E+03  2.71408E+04
 -2.18131E+04  1.26999E+04 -1.92308E+04 -4.58828E+03  4.74802E+03 -7.35621E+03  2.17190E+04  1.10970E+04
  7.26751E+03  3.37877E+04 -3.08764E+04  3.45991E+04 -6.16294E+04  2.28858E+03 -5.60232E+04 -4.14995E+04
 -1.24614E+04 -6.17028E+04  3.84285E+04 -4.39294E+04  5.66334E+04 -2.17058E+03  3.24163E+04  3.10390E+04
 -6.20721E+03  3.36142E+04 -2.86202E+04  1.40363E+04 -2.83436E+04 -5.09066E+03 -1.51049E+04 -1.02558E+04
 -7.67561E+03 -1.16854E+04 -1.11904E+03 -1.70392E+04  6.72877E+03 -2.28508E+04  1.51648E+04 -1.39765E+04
  1.23145E+04  4.36557E+03 -6.61063E+03  1.32159E+04 -1.98698E+04 -3.04803E+03 -8.16898E+03 -3.10993E+04
  2.13691E+04 -4.13823E+04  4.57363E+04 -1.86731E+04  4.26931E+04  1.87100E+04  1.42284E+04  4.22842E+04
 -1.54933E+04  3.13481E+04 -2.38067E+04  1.41838E+03 -8.47003E+03 -2.67550E+04  2.07176E+04 -3.18517E+04
  3.85840E+04 -7.82593E+03  3.24577E+04  2.30736E+04  1.57841E+04  4.34221E+04 -7.90264E+03  4.61097E+04
 -2.91027E+04  3.06767E+04 -3.81302E+04  8.57794E+03 -3.92804E+04 -1.54454E+04 -2.17073E+04 -3.53184E+04
  6.95234E+03 -3.47911E+04  2.94618E+04 -1.32858E+04  2.74459E+04  1.05531E+04  3.19515E+03  1.81343E+04
 -1.34623E+04  7.54185E+03 -9.67970E+03 -7.76959E+03  5.93392E+03 -1.00440E+04  1.73308E+04  6.00562E+03
  1.25080E+04  2.14952E+04 -6.35437E+03  2.34713E+04 -2.15417E+04  9.63376E+03 -2.56104E+04 -5.93336E+03
 -1.72981E+04 -1.66066E+04 -6.25350E+03 -1.74794E+04  3.62070E+03 -1.53828E+04  1.30845E+04 -1.49297E+04
  2.18687E+04 -1.17123E+04  2.89600E+04  1.31295E+03  2.15953E+04  1.68777E+04  4.28582E+03  3.29482E+04
 -1.63872E+04  2.80474E+04 -2.62215E+04  9.38548E+03 -1.99796E+04 -1.04872E+04 -3.78331E+03 -1.37915E+04
  2.56771E+03 -3.98193E+03 -2.93042E+03  5.68986E+03 -1.35295E+04  5.26163E+03 -1.36922E+04 -5.07082E+03
 -8.62191E+03 -1.60667E+04  4.73009E+03 -1.99357E+04  1.28229E+04 -1.44994E+04  1.50062E+04 -1.53010E+03
  9.15960E+03  1.09521E+04 -1.06330E+03  1.60333E+04 -1.05096E+04  9.22320E+03 -1.60124E+04 -3.50224E+03
 -1.17431E+04 -1.44965E+04 -1.34480E+03 -1.94672E+04  8.84187E+03 -1.60252E+04  1.63478E+04 -7.53635E+03
  1.47305E+04  2.32650E+02  1.05540E+04  3.73780E+03  5.35610E+03  4.57870E+02  7.91755E+03 -1.49129E+03
  1.42756E+04  2.42141E+03  1.50476E+04  1.27897E+04  9.38001E+03  2.51840E+04 -2.94389E+03  2.72331E+04
 -1.60512E+04  2.10733E+04 -2.50635E+04  1.00061E+04 -2.57142E+04 -1.85283E+03 -2.19014E+04 -1.48713E+04
 -1.04202E+04 -2.09898E+04  7.06113E+03 -1.95154E+04  1.70967E+04 -1.09812E+04  1.60216E+04  3.83740E+03
  6.58686E+03  1.16794E+04 -7.00726E+03  1.06828E+04 -1.34228E+04  2.64005E+03 -1.07563E+04 -8.24062E+03
 -2.80214E+02 -1.24224E+04  6.39104E+03 -9.33617E+03  8.27449E+03 -1.26154E+03  1.69296E+03  5.23829E+03
 -5.70771E+03  1.48275E+03 -3.91795E+03 -4.80210E+03  7.07367E+02 -1.04358E+04  7.71669E+03 -1.03032E+04
  1.23922E+04 -4.91905E+03  1.24414E+04  2.70614E+03  1.07499E+04  9.60166E+03  5.19187E+03  1.42234E+04
 -1.79078E+03  1.65366E+04 -9.75134E+03  1.05958E+04 -1.13858E+04  2.94696E+03 -8.71397E+03 -2.15380E+03
 -4.55516E+03 -3.63349E+03 -9.04317E+02  1.41792E+03 -1.94261E+03  2.15756E+03 -3.72272E+03  3.48760E+03
 -8.17556E+03 -5.64065E+02 -8.81139E+03 -7.28993E+03 -3.78497E+03 -1.17930E+04  3.70984E+03 -8.57833E+03
  7.28735E+03 -3.72928E+03  5.17253E+03  1.95277E+03  4.03389E+02  3.12982E+03 -3.47718E+03  1.75583E+02
 -3.25528E+03 -5.17457E+03 -4.90600E+02 -7.06271E+03  3.78506E+03 -7.90562E+03  1.00689E+04 -4.04381E+03
  1.18974E+04  6.06287E+02  8.77519E+03  5.98831E+03  1.70645E+03  8.58717E+03 -5.09501E+03  8.67247E+03
 -6.84441E+03  2.87193E+03 -3.72447E+03 -1.22546E+03  1.30314E+03 -1.91084E+03  4.93029E+03 -1.03218E+03
  4.27122E+03  3.41461E+03  1.18681E+03  6.16731E+03 -4.28137E+03  6.50918E+03 -8.08331E+03  1.61175E+03
 -4.83722E+03 -3.73222E+03  5.65148E+02 -6.61688E+03  3.77965E+03 -3.22774E+03  3.64670E+03  8.68907E+02
  2.50931E+02  3.31052E+03 -3.61959E+03  4.72052E+03 -5.19972E+03  2.64691E+03 -4.58792E+03 -9.61891E+02
 -3.24420E+03 -6.00886E+03  1.16121E+03 -6.93568E+03  6.00289E+03 -4.27559E+03  6.51118E+03  1.00355E+03
  4.75229E+03  4.98735E+03  1.33606E+02  7.24417E+03 -5.18721E+03  4.25924E+03 -5.18844E+03 -2.76667E+02
 -5.78917E+03 -4.98370E+03 -1.51347E+03 -4.87911E+03  2.56674E+03 -4.76574E+03  3.04623E+03 -2.78173E+03
  2.77986E+03  1.79987E+02  1.41175E+02  1.28447E+03  5.81972E+02 -4.00550E+02  1.52203E+02 -1.74130E+03
  3.79847E+03 -5.56505E+02  5.47819E+03  8.53063E+02  5.32893E+03  2.97516E+03  5.41414E+03  7.13653E+03
 -1.40546E+03  8.45043E+03 -7.69239E+03  6.47420E+03 -9.89832E+03  1.13947E+03 -7.81385E+03 -2.38251E+03
 -4.43314E+03 -6.20483E+03 -6.02278E+02 -4.99330E+03  2.06255E+03 -2.25195E+03  1.40266E+03 -1.81824E+03
  1.15224E+03 -1.43483E+03  2.17129E+03 -2.38103E+03  3.52559E+03 -1.41513E+03  3.72278E+03  1.62883E+02
  4.52297E+03  1.14516E+03  9.66422E+02  3.50689E+03 -1.56758E+03  2.46467E+03 -4.43539E+03  2.43418E+03
 -4.85719E+03 -8.88628E+02 -1.75556E+03 -3.33129E+03  4.62130E+02 -4.81866E+03  3.18751E+03 -5.23640E+03
  4.93271E+03 -3.18520E+03  6.46629E+03  1.71791E+02  4.76468E+03  3.88787E+03  1.03478E+03  5.84042E+03
 -1.95035E+03  5.81981E+03 -3.14764E+03  1.74309E+03 -1.75327E+03 -9.13173E+02 -3.27178E+02 -6.06815E+02
 -4.96788E+02  8.23025E+02 -7.94747E+02  1.95632E+03 -2.60860E+03  1.01500E+03 -3.68028E+03 -1.23863E+02
 -1.24614E+03 -4.03793E+03  9.10251E+02 -4.47687E+03  2.86072E+03 -4.09824E+03  3.40017E+03 -1.07871E+03
  3.94025E+03  2.14776E+03  2.01705E+03  2.84875E+03 -5.94488E+02  3.87890E+03 -2.49568E+03  2.66806E+03
 -3.70095E+03  4.02151E+02 -3.27997E+03 -2.48658E+03 -1.25270E+02 -2.98176E+03  1.48668E+03 -2.46911E+03
  2.43441E+03 -1.72930E+03  1.51011E+03  3.92051E+02 -9.86141E+01  1.61673E+03  7.54820E+02  3.32038E+02
  1.88406E+03  4.62832E+02  1.17964E+03  8.00372E+02  1.05344E+03  2.34952E+03  1.48248E+03  1.67740E+03
 -1.32096E+03  2.79868E+03 -2.60793E+03  3.85700E+03 -2.87192E+03  1.36152E+03 -3.87626E+03 -4.06707E+02
 -1.59083E+03 -3.43632E+03  6.74252E+02 -4.41337E+03  1.69423E+03 -2.24400E+03  2.82709E+03 -1.02499E+03
  2.24254E+03  1.66195E+03  2.59700E+02  2.11342E+03 -5.69081E+02  1.24271E+03 -9.09474E+02 -1.99519E+02
 -7.77616E+02 -1.56072E+03  1.39884E+03 -1.17653E+03  1.27632E+03 -6.08194E+02  1.33421E+03  3.77587E+02
  6.07337E+02  1.01824E+02  9.10158E+02 -3.68328E+02 -2.13839E+02  6.92076E+02  1.35394E+03 -7.93962E+01
 -2.15851E+02 -1.44111E+01  1.75213E+03  2.11223E+02  8.71315E+01  2.33418E+03 -3.17210E+02  2.71548E+03
 -1.38794E+03  1.00675E+03 -1.55810E+03  3.19293E+02 -1.93652E+03 -5.85700E+02 -1.27007E+02 -8.10228E+02
  2.99204E+02 -1.03253E+03  1.24320E+03 -6.14639E+02  7.91151E+02  9.65069E+02 -7.09619E+02  1.07088E+03
 -1.36480E+03  4.94676E+02 -9.41048E+02 -1.36012E+03 -7.55557E+02 -1.89727E+03  1.88133E+02 -1.57785E+03
  2.01138E+02 -5.42767E+02  8.02806E+02  2.74812E+02  1.30149E+03  5.16500E+00  2.61075E+02  8.23517E+02
 -1.77293E+02  1.71106E+02 -8.20740E+02 -1.90617E+02  5.39099E+02 -7.85975E+02  1.58781E+03 -8.57748E+02
  9.51133E+02  9.59014E+01  2.93204E+03  5.30099E+02  1.15561E+03  1.17986E+03 -1.31314E+02  1.58767E+03
 -1.28872E+03  8.75824E+01 -1.25766E+03 -1.01132E+02 -7.65117E+02 -1.00116E+03  3.74695E+02 -4.77415E+02
  1.14283E+03 -7.30115E+02  8.80347E+02  4.80355E+02  1.91757E+02  1.10177E+03  3.21264E+02  1.08442E+03
 -3.66830E+02  1.10181E+03 -2.98384E+02  1.23958E+02 -2.90646E+01  4.24982E+02 -9.04765E+02  6.82200E+02
 -7.46320E+02  7.40152E+02 -1.41676E+03  7.40991E+02 -1.41585E+03  1.26520E+01 -2.15716E+03 -7.24496E+02
 -7.54997E+02 -1.64731E+03  5.18191E+02 -2.56109E+03  7.63470E+02 -2.04647E+03  2.24542E+03 -9.30484E+02
  1.84059E+03  7.28092E+00  9.69998E+02  1.28889E+03 -4.33799E+02  1.17021E+03 -4.53978E+02  1.18137E+03
 -7.25813E+02  6.95858E+02 -4.91535E+02 -2.50707E+02 -3.23636E+02  2.56266E+02 -4.93370E+02 -1.52188E+02
 -9.38208E+02 -3.12536E+02 -6.68290E+02 -1.68186E+02  3.63088E+02 -2.89038E+02 -5.53971E+02 -6.70382E+02
  1.29750E+03 -5.23234E+02  3.58153E+02  2.38835E+02  9.49239E+02  1.10116E+03 -8.34209E+02  1.22993E+03
 -7.59280E+02  2.25908E+03 -1.47648E+03  1.15359E+03 -1.70919E+03 -4.47906E+01 -8.21753E+02 -1.00789E+03
 -6.86697E+02 -1.25204E+03  2.22013E+02 -7.05440E+02  5.33931E+02 -4.32647E+02  4.53507E+02 -1.80523E+02
  7.03577E+02  1.06956E+02  2.09754E+02 -1.96274E+00 -8.87148E+01  1.80173E-01 -7.45427E+01 -1.71685E+02
  4.83527E+02 -2.68168E+01 -2.81888E+00  4.81462E+02  1.64143E+02  2.83978E+02  4.98837E+02  3.57606E+01
 -1.96502E+02  4.37196E+02 -2.79635E+02 -5.04649E+01 -6.94298E+02 -2.54536E+02  1.66088E+02 -7.74175E+02
  3.41309E+02 -2.55847E+02  5.37437E+02  5.79599E+01  7.77508E+02 -5.59211E+02  3.36740E+02  7.12801E+02
  3.65769E+02  2.67616E+02  6.78606E+01  4.61380E+02 -3.46519E+02  4.66396E+02 -4.30141E+02  1.17071E+02
 -1.64695E+02 -9.37794E+01 -4.87119E+02  2.71173E+01 -4.31829E+02  2.05724E+02 -5.81688E+02 -1.49630E+02
 -8.99101E+02  2.58835E+01 -5.27180E+02 -6.97528E+02  5.28139E+02 -1.34583E+03  8.56427E+02 -2.05355E+02
  9.87849E+01 -8.63349E+01 -3.55260E+02  3.83913E+01 -5.26540E+01  3.34959E+02 -3.01311E+02  6.44268E+02
