 $NMID ID='MM_0lb_SNR800_13hz_g60_31.RAW', FMTDAT='(8E13.5)'
 TRAMP=1., VOLUME=1. $END
  3.09712E+05  7.01995E+02  3.37912E+05  2.50997E+05  8.51959E+04  3.38024E+05 -1.32602E+05  2.51516E+05
 -1.90620E+05  8.36487E+04 -1.12317E+05 -3.24939E+04  4.67141E+02 -5.06174E+04  5.39137E+04 -5.42479E+02
  3.54290E+04  5.27465E+04 -1.64935E+04  7.58156E+04 -6.10357E+04  6.41227E+04 -8.48858E+04  3.20155E+04
 -8.18267E+04 -1.15645E+04 -5.77750E+04 -5.18878E+04 -1.52929E+04 -7.05191E+04  2.76094E+04 -4.62265E+04
  4.06242E+04  3.68328E+03  1.63897E+04  4.83520E+04 -3.46595E+04  4.76920E+04 -6.75441E+04  5.23831E+00
 -5.43686E+04 -5.72658E+04 -6.82005E+03 -7.83230E+04  3.42223E+04 -5.61395E+04  4.90780E+04 -1.76345E+04
  4.45650E+04  1.12633E+04  3.25630E+04  2.57290E+04  1.61112E+04  3.01083E+04 -5.13360E+03  2.75975E+04
 -2.22058E+04  1.21535E+04 -1.82648E+04 -5.46113E+03  6.61444E+03 -7.33596E+03  2.30957E+04  1.29376E+04
  7.11111E+03  3.67339E+04 -3.30375E+04  3.61557E+04 -6.47649E+04  2.16625E+03 -5.80379E+04 -4.36571E+04
 -1.28146E+04 -6.49671E+04  4.09396E+04 -4.63207E+04  5.97659E+04 -2.33149E+03  3.55925E+04  3.34065E+04
 -5.96021E+03  3.78406E+04 -3.07776E+04  1.77820E+04 -3.17257E+04 -4.14489E+03 -1.81368E+04 -1.13328E+04
 -8.90113E+03 -1.42428E+04 -4.35384E+02 -1.87179E+04  8.12985E+03 -2.32091E+04  1.57932E+04 -1.32466E+04
  1.08332E+04  5.86237E+03 -9.15919E+03  1.29415E+04 -2.25328E+04 -5.46942E+03 -8.40298E+03 -3.58430E+04
  2.39713E+04 -4.54637E+04  5.03933E+04 -2.00273E+04  4.69724E+04  2.01224E+04  1.64858E+04  4.54946E+04
 -1.62014E+04  3.46383E+04 -2.63126E+04  2.00710E+03 -1.09661E+04 -2.86563E+04  2.12323E+04 -3.50616E+04
  4.29639E+04 -9.89541E+03  3.79246E+04  2.43428E+04  2.00667E+04  4.88449E+04 -8.10966E+03  5.31012E+04
 -3.35810E+04  3.62054E+04 -4.47242E+04  1.03589E+04 -4.53645E+04 -1.77913E+04 -2.46387E+04 -3.97978E+04
  7.45181E+03 -3.99087E+04  3.27098E+04 -1.56428E+04  3.04015E+04  1.14554E+04  4.82773E+03  1.97993E+04
 -1.38377E+04  8.74507E+03 -1.06914E+04 -7.53322E+03  5.68815E+03 -1.10387E+04  1.84136E+04  5.82312E+03
  1.40250E+04  2.26976E+04 -5.62377E+03  2.62456E+04 -2.28934E+04  1.26697E+04 -2.98477E+04 -3.78364E+03
 -2.29576E+04 -1.79860E+04 -9.90074E+03 -2.28639E+04  4.34785E+03 -2.25306E+04  1.75238E+04 -2.06896E+04
  2.89311E+04 -1.33645E+04  3.51518E+04  3.94783E+03  2.54307E+04  2.19094E+04  4.50422E+03  3.87097E+04
 -1.84779E+04  3.19838E+04 -2.92953E+04  1.08691E+04 -2.15583E+04 -1.02544E+04 -4.70038E+03 -1.32108E+04
  1.38223E+03 -1.86257E+03 -5.91752E+03  7.68853E+03 -1.82051E+04  4.88609E+03 -1.82645E+04 -8.44209E+03
 -1.08955E+04 -2.10522E+04  5.65971E+03 -2.51229E+04  1.66742E+04 -1.78063E+04  2.02709E+04 -1.50626E+03
  1.26286E+04  1.46001E+04 -1.00377E+03  2.08450E+04 -1.44457E+04  1.18271E+04 -2.10688E+04 -4.40631E+03
 -1.52908E+04 -1.88544E+04 -2.00106E+03 -2.51525E+04  1.13291E+04 -2.09819E+04  2.08185E+04 -1.05260E+04
  1.98365E+04  3.73968E+01  1.42598E+04  4.90666E+03  7.69405E+03  1.24564E+03  1.07376E+04 -1.91259E+03
  1.91660E+04  2.80047E+03  2.19695E+04  1.64860E+04  1.47884E+04  3.34342E+04 -3.08810E+03  3.85992E+04
 -2.18099E+04  3.13046E+04 -3.61829E+04  1.58906E+04 -3.81354E+04 -2.73480E+03 -3.15901E+04 -2.23045E+04
 -1.28616E+04 -3.20827E+04  1.13209E+04 -2.82474E+04  2.40808E+04 -1.37835E+04  2.13072E+04  6.42059E+03
  7.72436E+03  1.60940E+04 -1.00757E+04  1.39619E+04 -1.77751E+04  2.51792E+03 -1.38357E+04 -1.17633E+04
 -6.92607E+01 -1.73122E+04  9.23454E+03 -1.29244E+04  1.16513E+04 -9.95326E+02  2.61312E+03  7.25130E+03
 -7.45142E+03  2.99272E+03 -7.34336E+03 -6.36876E+03 -9.77278E+02 -1.55235E+04  1.03832E+04 -1.64017E+04
  1.92963E+04 -8.94651E+03  2.13899E+04  2.85267E+03  1.83539E+04  1.52967E+04  8.87171E+03  2.40300E+04
 -4.28276E+03  2.58832E+04 -1.66321E+04  1.59220E+04 -1.81719E+04  3.63430E+03 -1.27018E+04 -4.45983E+03
 -5.87402E+03 -5.82454E+03 -5.79067E+02  8.43554E+02 -2.42790E+03  2.84427E+03 -5.82466E+03  4.69165E+03
 -1.19361E+04 -7.25214E+02 -1.27291E+04 -9.73959E+03 -5.08391E+03 -1.65150E+04  5.13778E+03 -1.29897E+04
  1.06204E+04 -5.41820E+03  7.46463E+03  3.38347E+03 -2.87306E+02  5.15530E+03 -6.31793E+03 -1.94296E+02
 -5.83328E+03 -8.41874E+03 -8.61965E+02 -1.25793E+04  7.34530E+03 -1.31890E+04  1.65478E+04 -7.18212E+03
  1.88533E+04  1.70041E+03  1.38946E+04  1.13244E+04  2.69874E+03  1.51374E+04 -8.13763E+03  1.28841E+04
 -1.05581E+04  3.82856E+03 -5.66095E+03 -2.71002E+03  2.18182E+03 -3.47692E+03  7.12103E+03 -9.31398E+02
  6.49266E+03  5.62453E+03  1.17276E+03  1.04181E+04 -7.51589E+03  9.69289E+03 -1.23956E+04  2.60522E+03
 -8.80199E+03 -6.62042E+03  9.87352E+00 -1.06028E+04  6.91717E+03 -5.73925E+03  7.38836E+03  2.49597E+03
  1.46148E+03  7.43144E+03 -6.60398E+03  8.81752E+03 -1.00185E+04  4.03153E+03 -1.00928E+04 -3.28979E+03
 -6.27301E+03 -1.16625E+04  3.04659E+03 -1.36416E+04  1.14892E+04 -8.07865E+03  1.25993E+04  2.22621E+03
  7.98489E+03  9.93313E+03 -4.11965E+02  1.24614E+04 -8.84106E+03  6.90136E+03 -1.00953E+04 -1.01307E+03
 -8.67388E+03 -8.45595E+03 -1.80131E+03 -9.24351E+03  4.65567E+03 -7.69581E+03  5.84267E+03 -3.32857E+03
  3.89468E+03  1.21795E+03 -6.49616E+02  1.75834E+03 -5.44835E+02 -2.25645E+03  1.60080E+03 -5.23263E+03
  8.18374E+03 -2.96075E+03  1.14689E+04  1.31500E+03  1.13046E+04  7.66953E+03  7.97510E+03  1.51592E+04
 -3.72408E+03  1.71072E+04 -1.46821E+04  1.24944E+04 -1.91076E+04  2.36741E+03 -1.52304E+04 -6.23926E+03
 -7.64499E+03 -1.27348E+04 -1.11554E+02 -1.04455E+04  3.88881E+03 -5.47544E+03  3.92414E+03 -4.01198E+03
  2.82654E+03 -2.37292E+03  3.14752E+03 -3.14054E+03  5.25861E+03 -2.91461E+03  5.99428E+03 -5.89549E+02
  8.22743E+03  1.76219E+03  3.99610E+03  6.87586E+03 -1.93211E+03  7.73121E+03 -8.32332E+03  6.29661E+03
 -1.01572E+04 -1.15635E+03 -5.83925E+03 -7.02291E+03 -8.50893E+02 -1.11007E+04  6.39463E+03 -1.07696E+04
  1.13150E+04 -6.31333E+03  1.34242E+04  1.45560E+03  9.76053E+03  9.75482E+03  1.70113E+03  1.23697E+04
 -4.90356E+03  1.01640E+04 -7.27145E+03  3.71731E+03 -4.54379E+03 -1.35089E+03 -1.53481E+03 -1.53529E+03
 -6.66159E+02  1.09335E+02 -1.53119E+03  2.23033E+03 -4.22962E+03  1.66846E+03 -7.56351E+03 -9.38608E+02
 -4.56203E+03 -7.36365E+03  3.89532E+02 -9.64859E+03  6.20362E+03 -9.43323E+03  9.61996E+03 -2.68006E+03
  9.34905E+03  4.83279E+03  4.12947E+03  8.11905E+03 -1.99103E+03  9.84729E+03 -6.88830E+03  6.25770E+03
 -9.01588E+03  5.65306E+02 -7.22038E+03 -6.06544E+03 -8.47381E+02 -7.77629E+03  4.05989E+03 -5.79128E+03
  6.17991E+03 -2.10938E+03  4.22952E+03  1.42848E+03  1.51720E+03  3.07443E+03  8.92769E+02  1.23298E+03
  2.07634E+03  8.33638E+02  1.99365E+03  1.75396E+03  2.55074E+03  4.12137E+03  2.61715E+03  5.03331E+03
 -2.59758E+03  7.67102E+03 -6.32477E+03  8.25153E+03 -9.45514E+03  2.05514E+03 -1.01899E+04 -3.46908E+03
 -4.41527E+03 -9.64262E+03  1.25182E+03 -1.10503E+04  5.48927E+03 -6.55288E+03  7.69468E+03 -1.70952E+03
  6.14451E+03  3.84795E+03  1.09783E+03  5.60964E+03 -2.69345E+03  3.09740E+03 -3.61176E+03 -5.58991E+02
 -1.81260E+03 -4.33047E+03  2.57011E+03 -3.63072E+03  3.82276E+03 -1.98107E+03  3.96613E+03  8.07438E+02
  1.89265E+03  1.88753E+03  8.91199E+02  1.18205E+03 -4.67887E+02  1.36788E+03  1.80943E+03 -4.85716E+02
  1.19637E+03 -7.77079E+02  4.14886E+03  1.42524E+03  1.44550E+03  5.06459E+03 -4.31001E+02  6.59354E+03
 -4.24020E+03  3.90589E+03 -5.78570E+03  1.27350E+03 -5.09360E+03 -2.19576E+03 -1.76681E+03 -3.59747E+03
  9.59768E+02 -3.10960E+03  2.16737E+03 -1.34312E+03  2.06964E+03  1.86928E+03 -1.00742E+03  3.05231E+03
 -3.76396E+03  1.92150E+03 -4.14260E+03 -2.28053E+03 -1.93267E+03 -5.17317E+03  8.07016E+02 -4.60511E+03
  2.51321E+03 -2.74730E+03  3.36862E+03 -4.08957E+02  2.76638E+03  1.13303E+03  6.31294E+02  2.72167E+03
 -1.64571E+03  6.92264E+02 -2.21366E+03 -1.71887E+03  7.82959E+02 -3.25669E+03  4.27411E+03 -2.88745E+03
  4.82293E+03  2.70157E+02  5.83530E+03  3.37912E+03  1.82885E+03  5.34060E+03 -1.68178E+03  5.35990E+03
 -4.50006E+03  2.00429E+03 -4.56237E+03 -3.94853E+02 -2.71249E+03 -3.64235E+03  6.92327E+02 -2.99307E+03
  3.64775E+03 -1.64427E+03  2.48008E+03  1.45497E+03  6.66715E+02  3.22246E+03 -2.61977E+02  2.84807E+03
 -1.51366E+03  2.03267E+03 -1.22292E+03  3.08336E+02 -5.68896E+02  4.92690E+02 -1.05490E+03  1.47318E+03
 -1.39320E+03  2.32476E+03 -3.91977E+03  1.87641E+03 -5.36520E+03  6.77801E+00 -6.26953E+03 -3.43288E+03
 -2.87608E+03 -7.19095E+03  1.53914E+03 -8.16454E+03  4.31210E+03 -6.72142E+03  7.68172E+03 -2.45312E+03
  7.32288E+03  1.04881E+03  4.18959E+03  5.02189E+03  3.72598E+02  5.50979E+03 -2.11816E+03  4.07981E+03
 -3.16106E+03  1.63557E+03 -1.92132E+03 -6.89673E+02 -9.37243E+02 -1.29990E+02 -1.22751E+03 -3.62668E+02
 -1.29896E+03  2.98252E+02 -1.85150E+03  2.43670E+01 -1.76323E+00 -1.56371E+03 -9.36711E+01 -2.10791E+03
  2.54560E+03 -2.05747E+03  2.69404E+03  2.41068E+02  4.00308E+03  2.80953E+03  4.37763E+02  4.68171E+03
 -2.37265E+03  6.08671E+03 -5.36615E+03  3.82449E+03 -6.33512E+03 -4.92359E+02 -4.18829E+03 -3.82469E+03
 -2.17016E+03 -5.22253E+03  1.24018E+03 -4.72224E+03  3.03358E+03 -2.39614E+03  2.93569E+03  6.87741E+01
  2.06149E+03  2.04662E+03 -3.87304E+02  1.43187E+03 -1.13398E+03  1.74339E+01  1.57069E+02 -1.10760E+03
  1.73440E+03 -5.63683E+02  1.90885E+03  6.29803E+02  1.23200E+03  2.14743E+03  2.18891E+02  2.15442E+03
 -2.19707E+03  2.40435E+03 -2.67930E+03  4.82464E+02 -2.94549E+03 -2.25265E+03 -2.86377E+02 -4.26303E+03
  2.17495E+03 -3.15485E+03  3.04149E+03 -9.24542E+02  3.84397E+03  4.33016E+02  2.26693E+03  3.10992E+03
  4.70974E+02  3.09338E+03 -1.12644E+03  2.30537E+03 -1.58261E+03  1.49132E+03 -1.39859E+03  3.06231E+02
 -8.00911E+02 -4.08027E+02 -9.27907E+02  1.88280E+02 -1.95038E+03  4.80056E+02 -2.75912E+03 -3.04135E+02
 -2.37312E+03 -1.29823E+03 -7.19523E+02 -3.30186E+03  1.76062E+03 -3.83896E+03  2.78062E+03 -1.38431E+03
  2.46378E+03  6.45772E+02  1.06901E+03  2.02672E+03 -3.05286E+02  3.05073E+03 -2.15821E+03  1.75090E+03
