 $NMID ID='MM_0lb_SNR800_17hz_g60_52.RAW', FMTDAT='(8E13.5)'
 TRAMP=1., VOLUME=1. $END
  3.10042E+05  2.68601E+02  3.37786E+05  2.50895E+05  8.43822E+04  3.37865E+05 -1.32510E+05  2.50940E+05
 -1.90372E+05  8.30854E+04 -1.11595E+05 -3.25414E+04  9.79826E+02 -5.07180E+04  5.38729E+04 -2.76638E+01
  3.51368E+04  5.28113E+04 -1.67889E+04  7.57511E+04 -6.05054E+04  6.35991E+04 -8.42821E+04  3.20830E+04
 -8.08777E+04 -1.14730E+04 -5.71361E+04 -5.13367E+04 -1.52518E+04 -6.95198E+04  2.73952E+04 -4.57461E+04
  3.99968E+04  3.70174E+03  1.58753E+04  4.74761E+04 -3.41940E+04  4.70071E+04 -6.65470E+04 -1.75078E+02
 -5.34418E+04 -5.69604E+04 -6.73352E+03 -7.68340E+04  3.38700E+04 -5.48001E+04  4.76631E+04 -1.72827E+04
  4.34993E+04  1.11811E+04  3.16992E+04  2.56017E+04  1.57912E+04  2.90243E+04 -5.15867E+03  2.72659E+04
 -2.18132E+04  1.27052E+04 -1.85729E+04 -5.08222E+03  5.15059E+03 -7.43968E+03  2.22427E+04  1.21489E+04
  7.26693E+03  3.49085E+04 -3.17644E+04  3.53149E+04 -6.28703E+04  1.86767E+03 -5.69984E+04 -4.25686E+04
 -1.24647E+04 -6.25225E+04  3.92812E+04 -4.48505E+04  5.76334E+04 -2.07865E+03  3.38306E+04  3.19450E+04
 -6.11776E+03  3.57554E+04 -3.00446E+04  1.56673E+04 -2.99183E+04 -4.76132E+03 -1.64286E+04 -1.09114E+04
 -8.38260E+03 -1.27587E+04 -7.21008E+02 -1.80297E+04  7.39198E+03 -2.28515E+04  1.52573E+04 -1.35342E+04
  1.14033E+04  5.06857E+03 -7.98370E+03  1.30283E+04 -2.10045E+04 -4.12267E+03 -8.07903E+03 -3.31483E+04
  2.29941E+04 -4.32247E+04  4.72154E+04 -1.94450E+04  4.47083E+04  1.92328E+04  1.57436E+04  4.35737E+04
 -1.59147E+04  3.30517E+04 -2.47815E+04  1.68861E+03 -9.70077E+03 -2.75336E+04  2.09230E+04 -3.31438E+04
  4.03525E+04 -8.54526E+03  3.50046E+04  2.36301E+04  1.75209E+04  4.55193E+04 -8.03424E+03  4.89168E+04
 -3.08210E+04  3.30357E+04 -4.10411E+04  9.17077E+03 -4.15081E+04 -1.61410E+04 -2.31694E+04 -3.73541E+04
  7.10162E+03 -3.70899E+04  3.10482E+04 -1.43859E+04  2.88127E+04  1.08580E+04  3.70423E+03  1.88207E+04
 -1.36060E+04  7.89846E+03 -1.03706E+04 -7.57333E+03  5.85881E+03 -1.06628E+04  1.79759E+04  6.29727E+03
  1.30521E+04  2.20451E+04 -6.44551E+03  2.45722E+04 -2.19454E+04  1.07791E+04 -2.73062E+04 -5.01910E+03
 -1.95443E+04 -1.69299E+04 -7.82799E+03 -1.94069E+04  3.90575E+03 -1.84881E+04  1.48453E+04 -1.72558E+04
  2.45769E+04 -1.25320E+04  3.14848E+04  2.53581E+03  2.33211E+04  1.92688E+04  4.27995E+03  3.50253E+04
 -1.73031E+04  2.96525E+04 -2.74057E+04  1.03932E+04 -2.07374E+04 -1.03090E+04 -4.01642E+03 -1.34519E+04
  2.42610E+03 -2.95467E+03 -4.38132E+03  6.47574E+03 -1.52976E+04  5.13736E+03 -1.57806E+04 -6.45305E+03
 -9.57315E+03 -1.80803E+04  4.84392E+03 -2.19849E+04  1.42877E+04 -1.56325E+04  1.68721E+04 -1.59877E+03
  1.06646E+04  1.25952E+04 -1.11500E+03  1.79415E+04 -1.17630E+04  1.00090E+04 -1.79068E+04 -3.74057E+03
 -1.32819E+04 -1.61937E+04 -1.78500E+03 -2.17729E+04  9.90772E+03 -1.77006E+04  1.81009E+04 -8.89672E+03
  1.67224E+04  6.59082E+02  1.21622E+04  4.13332E+03  5.99463E+03  7.12861E+02  8.94793E+03 -1.74782E+03
  1.63905E+04  2.67803E+03  1.78215E+04  1.46761E+04  1.15646E+04  2.84235E+04 -2.95360E+03  3.13671E+04
 -1.83415E+04  2.48029E+04 -2.93388E+04  1.23780E+04 -3.02848E+04 -2.02626E+03 -2.54273E+04 -1.74490E+04
 -1.11860E+04 -2.47691E+04  8.49775E+03 -2.26112E+04  1.97861E+04 -1.17875E+04  1.79146E+04  4.76776E+03
  6.99927E+03  1.33802E+04 -8.66695E+03  1.17831E+04 -1.51581E+04  2.60111E+03 -1.16819E+04 -9.38855E+03
 -8.03587E+01 -1.42578E+04  7.41877E+03 -1.06593E+04  9.42312E+03 -1.39997E+03  1.86913E+03  6.09260E+03
 -6.25683E+03  2.18105E+03 -5.08107E+03 -5.18412E+03  2.71742E+01 -1.20143E+04  8.99598E+03 -1.23934E+04
  1.49731E+04 -6.55597E+03  1.54493E+04  2.93538E+03  1.32873E+04  1.18740E+04  6.67415E+03  1.79799E+04
 -2.73008E+03  1.97826E+04 -1.20435E+04  1.24885E+04 -1.39853E+04  3.38414E+03 -1.01237E+04 -3.02852E+03
 -4.87395E+03 -4.46549E+03 -7.56780E+02  1.44401E+03 -2.29322E+03  2.38720E+03 -4.50220E+03  4.14868E+03
 -9.45757E+03 -6.36640E+02 -1.03685E+04 -7.90262E+03 -4.35147E+03 -1.31968E+04  4.08278E+03 -1.02074E+04
  8.45571E+03 -4.53062E+03  6.31005E+03  2.47348E+03  4.06172E+02  3.65603E+03 -4.65371E+03 -3.93988E+02
 -4.55503E+03 -6.16568E+03 -6.02677E+02 -8.81867E+03  5.12381E+03 -9.72229E+03  1.21014E+04 -5.49540E+03
  1.41186E+04  1.12739E+03  1.05955E+04  7.86456E+03  2.16219E+03  1.10214E+04 -6.21703E+03  9.54915E+03
 -8.01201E+03  3.31985E+03 -4.10319E+03 -1.54561E+03  1.69884E+03 -2.54448E+03  5.33750E+03 -1.17488E+03
  4.96400E+03  3.94652E+03  1.18846E+03  7.39282E+03 -5.22873E+03  7.54462E+03 -9.19144E+03  1.88953E+03
 -6.20160E+03 -4.74049E+03  3.81107E+02 -8.16413E+03  4.91089E+03 -3.82031E+03  4.73200E+03  1.51013E+03
  8.81145E+02  4.71719E+03 -4.58502E+03  5.91061E+03 -6.60547E+03  2.75342E+03 -6.32583E+03 -1.94846E+03
 -4.06511E+03 -7.88228E+03  1.63166E+03 -9.14335E+03  7.91884E+03 -5.74699E+03  8.45799E+03  1.41025E+03
  5.44647E+03  6.71710E+03 -1.96153E+02  8.95804E+03 -6.35801E+03  4.98402E+03 -6.57508E+03 -5.10769E+02
 -6.66392E+03 -6.12181E+03 -1.62142E+03 -6.33133E+03  3.29154E+03 -5.47905E+03  3.68867E+03 -3.22141E+03
  3.40980E+03  7.87547E+02 -2.98382E+02  1.05121E+03  2.17249E+02 -5.48286E+02  7.59319E+02 -2.81404E+03
  5.52538E+03 -1.37029E+03  6.99614E+03  9.81541E+02  7.10556E+03  4.55667E+03  6.27348E+03  9.62206E+03
 -1.83713E+03  1.11685E+04 -9.77048E+03  8.36012E+03 -1.26068E+04  1.38104E+03 -9.61914E+03 -3.98590E+03
 -5.36345E+03 -8.28966E+03 -2.43627E+02 -6.67050E+03  2.56782E+03 -3.14720E+03  2.48535E+03 -2.87510E+03
  1.77028E+03 -1.82089E+03  2.51315E+03 -2.34020E+03  3.75553E+03 -1.42962E+03  4.38489E+03  2.07729E+02
  5.47376E+03  1.15833E+03  2.14805E+03  4.24188E+03 -1.79401E+03  4.30430E+03 -5.32859E+03  3.62347E+03
 -6.26307E+03 -1.16259E+03 -2.98220E+03 -4.64761E+03  4.54670E+02 -6.93235E+03  4.01090E+03 -6.99605E+03
  6.75534E+03 -4.13827E+03  8.78754E+03  3.57414E+02  6.17144E+03  5.67170E+03  9.79165E+02  7.69214E+03
 -2.52155E+03  7.28693E+03 -4.32599E+03  2.16257E+03 -2.64077E+03 -1.05535E+03 -6.73310E+02 -8.81746E+02
 -6.26849E+02  5.01968E+02 -1.20008E+03  2.14151E+03 -3.13052E+03  1.49213E+03 -4.72382E+03 -8.89395E+02
 -2.36966E+03 -4.88291E+03  6.33456E+02 -6.04021E+03  3.59230E+03 -5.83804E+03  4.94702E+03 -1.45064E+03
  5.30013E+03  3.28290E+03  2.55961E+03  4.66508E+03 -1.34386E+03  5.76746E+03 -3.77254E+03  3.60431E+03
 -4.87401E+03  5.03503E+02 -4.23882E+03 -3.28301E+03 -5.42319E+02 -4.65674E+03  2.21014E+03 -3.57777E+03
  3.52520E+03 -1.64656E+03  2.44329E+03  4.04573E+02  5.66918E+02  2.12563E+03  7.51167E+02  4.29094E+02
  1.96575E+03  6.73355E+02  1.62651E+03  1.17783E+03  1.29807E+03  2.56838E+03  1.82720E+03  2.17904E+03
 -1.61802E+03  4.01202E+03 -3.58337E+03  4.92749E+03 -4.38785E+03  1.48409E+03 -5.49578E+03 -9.84487E+02
 -2.16020E+03 -4.99859E+03  7.28665E+02 -6.22914E+03  2.90308E+03 -3.39992E+03  4.14270E+03 -1.01345E+03
  3.46085E+03  2.15019E+03  6.38961E+02  3.23915E+03 -1.02960E+03  1.81642E+03 -1.70849E+03 -5.66912E+00
 -9.27643E+02 -1.89988E+03  1.19861E+03 -2.24613E+03  1.95375E+03 -1.24639E+03  1.97035E+03  6.66730E+02
  1.21007E+03  5.71486E+02  8.45728E+02  1.24595E+02 -8.59226E+01  9.50797E+02  1.39735E+03  1.89211E+01
  3.51455E+02 -2.21470E+02  2.28809E+03  7.62908E+02  5.62194E+02  2.78099E+03 -5.88521E+02  3.30224E+03
 -2.16014E+03  1.83467E+03 -2.61784E+03  3.21796E+02 -2.81941E+03 -1.09021E+03 -4.75822E+02 -1.39037E+03
  5.07665E+02 -1.52806E+03  1.21692E+03 -9.24979E+02  8.58252E+02  1.38850E+03 -9.93355E+02  1.52831E+03
 -1.78928E+03  1.02261E+03 -1.72300E+03 -1.64548E+03 -1.09134E+03 -2.71049E+03  1.11175E+02 -2.26968E+03
  8.96721E+02 -8.21374E+02  1.13184E+03  4.39751E+02  1.64145E+03  2.13808E+02  1.49113E+02  1.28986E+03
 -5.10173E+02 -3.38285E+01 -1.22349E+03 -5.11216E+02  7.71258E+02 -1.55799E+03  2.09620E+03 -1.13746E+03
  1.73254E+03  3.96004E+01  3.42384E+03  9.49128E+02  1.23944E+03  2.45831E+03 -3.50466E+02  2.33253E+03
 -1.88759E+03  3.42762E+02 -2.01149E+03 -1.59607E+02 -1.06920E+03 -1.86971E+03  2.77010E+02 -8.74518E+02
  1.94885E+03 -1.17231E+03  9.71325E+02  7.36980E+02  1.03916E+02  1.69759E+03  1.09848E+02  1.33677E+03
 -7.34269E+02  1.22289E+03 -4.74863E+02  1.84185E+02 -2.27061E+02  1.57239E+02 -7.46802E+02  5.72383E+02
 -1.05559E+03  1.15258E+03 -2.14132E+03  7.19682E+02 -2.35982E+03  1.80033E+02 -2.92409E+03 -1.15543E+03
 -1.21608E+03 -3.06912E+03  4.95369E+02 -3.80622E+03  1.69293E+03 -3.28983E+03  3.48846E+03 -1.11738E+03
  2.96000E+03  2.37593E+02  1.50416E+03  2.19468E+03 -5.07867E+02  1.95489E+03 -7.69355E+02  1.89047E+03
 -1.45630E+03  5.99592E+02 -7.05185E+02 -6.20148E+02 -6.15807E+02  1.56496E+02 -5.03546E+02  1.14687E+02
 -1.09138E+03 -1.00309E+02 -8.18182E+02  6.78975E+01  1.65336E+02 -1.01900E+03 -5.64780E+02 -8.75402E+02
  1.38063E+03 -9.00031E+02  4.98875E+02  2.14497E+02  1.56553E+03  1.05374E+03 -4.07526E+02  2.02416E+03
 -1.35357E+03  2.68559E+03 -2.21423E+03  1.31043E+03 -2.37580E+03 -9.93026E+01 -1.86692E+03 -1.76093E+03
 -1.03159E+03 -2.06369E+03  3.74206E+02 -1.80934E+03  9.10036E+02 -8.28337E+02  1.19617E+03  1.02905E+02
  7.95196E+02  4.74232E+02 -7.04305E+01  4.34112E+02 -3.88298E+02 -3.70266E+02 -1.32806E+02 -2.94369E+02
  7.16608E+02  1.56603E+02  6.20145E+02  3.73559E+02  2.14843E+02  1.05818E+03  3.15199E+02  5.19978E+02
 -8.87929E+02  6.91500E+02 -9.79854E+02  3.85962E+02 -1.19182E+03 -9.08105E+02 -2.91496E+02 -1.78271E+03
  8.24388E+02 -9.04200E+02  7.53013E+02 -5.66698E+01  1.23470E+03 -3.24812E+02  4.09900E+02  7.58635E+02
  5.44547E+02  5.84880E+02 -3.42771E+02  8.07029E+02 -6.90416E+02  8.03299E+02 -3.73983E+02  1.12410E+02
 -1.78937E+02 -3.38849E+02 -3.11263E+02  3.21575E+02 -5.17892E+02  5.58153E+01 -8.20728E+02 -7.77000E+01
 -1.20958E+03  2.59336E+02 -4.40429E+02 -1.16923E+03  6.44514E+02 -1.95926E+03  1.19486E+03 -4.13390E+02
  9.57407E+02  1.36538E+01  6.54254E+01  6.98120E+02 -4.32485E+02  1.06133E+03 -7.57675E+02  1.25361E+03
