 $NMID ID='MM_0lb_SNR800_10hz_g45_86.RAW', FMTDAT='(8E13.5)'
 TRAMP=1., VOLUME=1. $END
  3.09784E+05  7.93880E+02  3.37735E+05  2.50638E+05  8.49411E+04  3.38528E+05 -1.32626E+05  2.51724E+05
 -1.90929E+05  8.35328E+04 -1.12368E+05 -3.23857E+04  3.49838E+02 -5.09072E+04  5.39097E+04 -6.59109E+02
  3.54571E+04  5.28730E+04 -1.63619E+04  7.59913E+04 -6.11947E+04  6.41595E+04 -8.45962E+04  3.25228E+04
 -8.20570E+04 -1.17851E+04 -5.77951E+04 -5.25053E+04 -1.52109E+04 -7.04840E+04  2.77015E+04 -4.63758E+04
  4.07462E+04  3.81952E+03  1.63499E+04  4.80203E+04 -3.44807E+04  4.79519E+04 -6.73227E+04 -5.53541E+01
 -5.44759E+04 -5.70041E+04 -7.18667E+03 -7.82214E+04  3.44796E+04 -5.66824E+04  4.90863E+04 -1.81742E+04
  4.51266E+04  1.12197E+04  3.27357E+04  2.64080E+04  1.64678E+04  3.01377E+04 -5.48201E+03  2.70385E+04
 -2.25656E+04  1.20048E+04 -1.84242E+04 -5.28054E+03  6.53381E+03 -7.51695E+03  2.29946E+04  1.33902E+04
  6.93540E+03  3.69452E+04 -3.33225E+04  3.66537E+04 -6.50201E+04  1.73337E+03 -5.83198E+04 -4.37685E+04
 -1.24584E+04 -6.51607E+04  4.10996E+04 -4.65192E+04  6.06947E+04 -2.36572E+03  3.58107E+04  3.35963E+04
 -5.09600E+03  3.85029E+04 -3.13279E+04  1.81597E+04 -3.23939E+04 -3.33365E+03 -1.82433E+04 -1.17475E+04
 -8.91522E+03 -1.43086E+04 -1.00204E+03 -1.91856E+04  8.00365E+03 -2.33838E+04  1.54980E+04 -1.29364E+04
  1.06075E+04  5.66822E+03 -9.68335E+03  1.27315E+04 -2.26565E+04 -6.33388E+03 -8.54613E+03 -3.63969E+04
  2.43429E+04 -4.60190E+04  5.05877E+04 -2.07432E+04  4.74017E+04  2.04252E+04  1.70524E+04  4.64626E+04
 -1.62480E+04  3.50968E+04 -2.68997E+04  2.75767E+03 -1.13177E+04 -2.90834E+04  2.14670E+04 -3.58123E+04
  4.38767E+04 -1.05071E+04  3.88042E+04  2.48299E+04  2.06756E+04  4.98206E+04 -8.31817E+03  5.41038E+04
 -3.43357E+04  3.69125E+04 -4.56921E+04  1.03493E+04 -4.58663E+04 -1.80879E+04 -2.56349E+04 -4.09394E+04
  7.21466E+03 -4.06818E+04  3.34521E+04 -1.63074E+04  3.09714E+04  1.09679E+04  4.68527E+03  2.04207E+04
 -1.36840E+04  9.35298E+03 -1.08783E+04 -7.58385E+03  5.89574E+03 -1.10668E+04  1.81501E+04  5.88692E+03
  1.46683E+04  2.24754E+04 -5.67617E+03  2.64314E+04 -2.31465E+04  1.33236E+04 -3.04319E+04 -3.50310E+03
 -2.37248E+04 -1.83817E+04 -1.04350E+04 -2.36958E+04  4.45992E+03 -2.40946E+04  1.83307E+04 -2.15388E+04
  3.02636E+04 -1.38313E+04  3.62288E+04  3.86247E+03  2.62676E+04  2.31910E+04  4.60799E+03  3.92946E+04
 -1.92452E+04  3.29687E+04 -2.96199E+04  1.13942E+04 -2.19949E+04 -1.01422E+04 -5.06656E+03 -1.33956E+04
  1.38274E+03 -1.51412E+03 -6.61837E+03  7.98085E+03 -1.89982E+04  5.03773E+03 -1.88816E+04 -9.11750E+03
 -1.14227E+04 -2.17165E+04  6.03641E+03 -2.62580E+04  1.76148E+04 -1.87631E+04  2.13393E+04 -1.48317E+03
  1.35318E+04  1.52500E+04 -1.51571E+03  2.18396E+04 -1.55470E+04  1.25029E+04 -2.27334E+04 -4.58271E+03
 -1.63139E+04 -1.94291E+04 -1.97961E+03 -2.66517E+04  1.21593E+04 -2.18468E+04  2.18763E+04 -1.13489E+04
  2.07128E+04  3.86577E+02  1.50835E+04  5.11895E+03  8.16385E+03  1.22235E+03  1.16674E+04 -1.89757E+03
  2.08065E+04  2.71499E+03  2.38602E+04  1.73984E+04  1.56255E+04  3.54875E+04 -2.70091E+03  4.10521E+04
 -2.35294E+04  3.41327E+04 -3.86310E+04  1.72643E+04 -4.10400E+04 -2.80494E+03 -3.36768E+04 -2.37459E+04
 -1.36875E+04 -3.41174E+04  1.15149E+04 -3.02517E+04  2.56758E+04 -1.44124E+04  2.23395E+04  6.88004E+03
  7.99634E+03  1.73031E+04 -1.06045E+04  1.45614E+04 -1.88674E+04  2.65030E+03 -1.48303E+04 -1.19975E+04
 -2.66766E+02 -1.78609E+04  1.00274E+04 -1.38644E+04  1.28154E+04 -1.30142E+03  3.09973E+03  8.06813E+03
 -8.25091E+03  3.70506E+03 -8.27149E+03 -6.56557E+03 -1.53891E+03 -1.64267E+04  1.14411E+04 -1.76988E+04
  2.08790E+04 -9.93001E+03  2.35862E+04  3.45620E+03  2.08967E+04  1.71483E+04  9.64270E+03  2.67722E+04
 -4.81449E+03  2.84585E+04 -1.84042E+04  1.76990E+04 -2.06399E+04  3.75039E+03 -1.41090E+04 -5.15223E+03
 -6.30735E+03 -6.32746E+03 -7.39972E+02  8.59939E+02 -2.67822E+03  3.23127E+03 -6.23122E+03  4.95397E+03
 -1.29378E+04 -6.52297E+02 -1.33289E+04 -1.09869E+04 -5.79224E+03 -1.83298E+04  5.70429E+03 -1.47118E+04
  1.17700E+04 -5.88342E+03  8.55197E+03  4.01467E+03 -2.75418E+01  5.28544E+03 -6.66630E+03 -3.42072E+02
 -6.91865E+03 -9.29321E+03 -9.84789E+02 -1.41987E+04  7.84977E+03 -1.48175E+04  1.80899E+04 -7.94038E+03
  2.12934E+04  2.23667E+03  1.58949E+04  1.30478E+04  3.20306E+03  1.75211E+04 -8.87049E+03  1.39193E+04
 -1.15965E+04  3.85578E+03 -6.01851E+03 -2.86186E+03  2.31619E+03 -3.85789E+03  8.05534E+03 -9.65638E+02
  6.57645E+03  5.71585E+03  1.36968E+03  1.14874E+04 -8.23565E+03  1.11161E+04 -1.41599E+04  2.45572E+03
 -9.68491E+03 -7.31237E+03  1.47723E+02 -1.21546E+04  7.73388E+03 -6.08120E+03  8.26160E+03  2.86386E+03
  1.76438E+03  8.83596E+03 -7.35981E+03  1.02398E+04 -1.21004E+04  4.93057E+03 -1.22026E+04 -4.18471E+03
 -7.03226E+03 -1.41503E+04  3.29186E+03 -1.60971E+04  1.39862E+04 -9.94994E+03  1.47654E+04  2.24668E+03
  8.68410E+03  1.16006E+04 -1.38024E+03  1.44833E+04 -1.06676E+04  7.89444E+03 -1.15615E+04 -1.37552E+03
 -9.81810E+03 -9.57389E+03 -1.73358E+03 -1.05724E+04  5.37834E+03 -8.30513E+03  6.75075E+03 -3.54283E+03
  4.57616E+03  1.88647E+03 -8.77392E+02  1.97920E+03 -6.19868E+02 -2.88022E+03  1.92586E+03 -6.27990E+03
  1.02894E+04 -4.45195E+03  1.39351E+04  1.85329E+03  1.36354E+04  9.92230E+03  9.57120E+03  1.81709E+04
 -4.35865E+03  2.10496E+04 -1.74476E+04  1.54427E+04 -2.26707E+04  3.01181E+03 -1.83242E+04 -8.12016E+03
 -9.04674E+03 -1.49777E+04 -3.33780E+02 -1.29351E+04  4.58985E+03 -6.50497E+03  4.62490E+03 -4.66448E+03
  2.98219E+03 -2.76490E+03  3.22385E+03 -3.74949E+03  5.21969E+03 -3.08174E+03  6.74468E+03 -9.88449E+02
  9.53770E+03  2.23756E+03  5.01990E+03  7.96130E+03 -1.90155E+03  9.84092E+03 -1.00924E+04  7.35088E+03
 -1.28674E+04 -1.26435E+03 -8.02293E+03 -8.86213E+03 -1.13802E+03 -1.35942E+04  7.56006E+03 -1.34676E+04
  1.42674E+04 -7.85955E+03  1.71526E+04  2.28859E+03  1.18303E+04  1.21732E+04  2.08047E+03  1.55786E+04
 -6.49140E+03  1.25933E+04 -8.96932E+03  4.41470E+03 -6.45415E+03 -1.77627E+03 -2.85811E+03 -1.72320E+03
 -1.16914E+03  3.00707E+00 -2.21699E+03  2.92713E+03 -5.47340E+03  2.01484E+03 -9.02873E+03 -1.34770E+03
 -5.96109E+03 -8.88034E+03 -2.04747E+02 -1.29462E+04  7.65479E+03 -1.17332E+04  1.23082E+04 -3.32431E+03
  1.23586E+04  6.15311E+03  6.09456E+03  1.15498E+04 -2.39971E+03  1.31078E+04 -8.79740E+03  8.14109E+03
 -1.19582E+04  3.57956E+02 -9.00501E+03 -7.75749E+03 -7.67137E+02 -1.03511E+04  5.37832E+03 -7.94604E+03
  7.98605E+03 -2.87683E+03  5.49334E+03  2.16014E+03  1.94542E+03  3.80664E+03  1.69813E+03  1.94593E+03
  2.78354E+03  1.04075E+03  3.11003E+03  1.54967E+03  3.95059E+03  4.68791E+03  3.22050E+03  6.86855E+03
 -2.76632E+03  9.99086E+03 -8.73570E+03  1.04121E+04 -1.29844E+04  2.30915E+03 -1.34883E+04 -5.02209E+03
 -6.26387E+03 -1.28566E+04  1.96773E+03 -1.44970E+04  7.90492E+03 -8.86139E+03  1.04481E+04 -2.47243E+03
  8.18631E+03  5.02614E+03  1.83833E+03  7.60541E+03 -3.66390E+03  4.37154E+03 -5.52002E+03 -9.09651E+02
 -2.35968E+03 -5.31796E+03  3.28343E+03 -5.68075E+03  5.42419E+03 -2.95932E+03  5.00026E+03  9.42605E+02
  3.02680E+03  2.94661E+03  1.37018E+03  2.29830E+03 -6.39256E+02  1.50189E+03  1.48248E+03 -4.26992E+02
  1.92899E+03 -9.51829E+02  4.93702E+03  1.93812E+03  2.93987E+03  7.15578E+03 -1.10953E+03  9.00651E+03
 -6.11193E+03  5.69075E+03 -7.97398E+03  1.77600E+03 -7.33968E+03 -2.87774E+03 -2.63358E+03 -4.62936E+03
  8.44123E+02 -4.77876E+03  3.25635E+03 -2.14007E+03  3.06847E+03  2.42275E+03 -1.19304E+03  3.86250E+03
 -4.74702E+03  2.51002E+03 -6.12925E+03 -3.33064E+03 -3.62933E+03 -7.02208E+03  1.15276E+03 -7.00844E+03
  3.81952E+03 -4.22426E+03  5.06958E+03 -5.36264E+02  4.45880E+03  1.66075E+03  6.06158E+02  3.77599E+03
 -2.39685E+03  6.78557E+02 -3.13973E+03 -2.18723E+03  1.18722E+03 -5.27491E+03  6.71731E+03 -4.50118E+03
  7.84098E+03  4.71382E+02  8.01781E+03  5.34915E+03  2.20865E+03  8.47763E+03 -3.40610E+03  7.77146E+03
 -6.94075E+03  3.32772E+03 -7.26754E+03 -9.50770E+02 -3.65415E+03 -5.74869E+03  1.14665E+03 -5.14545E+03
  5.20730E+03 -2.47057E+03  4.51755E+03  2.24376E+03  1.80834E+03  4.57070E+03 -3.85192E+02  4.27396E+03
 -2.19096E+03  2.56788E+03 -1.81311E+03  1.04305E+03 -8.97956E+02  9.56543E+02 -1.58750E+03  1.26629E+03
 -2.33186E+03  3.38070E+03 -5.99925E+03  2.89882E+03 -8.09399E+03  2.17912E+02 -9.44334E+03 -5.45596E+03
 -4.65212E+03 -1.06630E+04  2.18836E+03 -1.26055E+04  7.78490E+03 -9.63494E+03  1.19245E+04 -3.78380E+03
  1.09450E+04  2.19219E+03  6.37855E+03  6.86392E+03  3.91346E+02  8.68822E+03 -3.35146E+03  6.59785E+03
 -4.94719E+03  2.27804E+03 -3.01960E+03 -1.30142E+03 -1.02579E+03 -3.94969E+02 -7.44291E+02  9.62640E+01
 -1.86557E+03  8.80275E+02 -2.24893E+03 -5.19125E+02 -8.38199E+02 -2.07603E+03  1.75316E+02 -3.36672E+03
  3.66951E+03 -2.87117E+03  5.18353E+03  1.69874E+02  5.57044E+03  4.27820E+03  1.64409E+03  8.46063E+03
 -3.92764E+03  9.97756E+03 -8.94745E+03  5.83528E+03 -9.84991E+03 -1.08171E+03 -7.79417E+03 -6.41464E+03
 -3.24658E+03 -8.51248E+03  2.26246E+03 -8.19447E+03  5.02272E+03 -4.50546E+03  5.64692E+03  4.32907E+02
  3.20764E+03  2.86022E+03 -8.23355E+01  2.05293E+03 -1.23746E+03 -1.76430E+02  3.91483E+02 -1.84081E+03
  2.17680E+03 -1.10900E+03  3.20242E+03  1.60895E+03  2.10126E+03  2.99928E+03  4.68161E+02  4.11973E+03
 -3.54045E+03  3.56198E+03 -5.48941E+03  3.09567E+02 -4.98198E+03 -3.94265E+03 -6.39421E+02 -6.97467E+03
  4.32053E+03 -5.96765E+03  6.47390E+03 -2.00455E+03  6.73909E+03  1.02443E+03  3.69931E+03  5.25479E+03
  9.75259E+02  5.59172E+03 -2.10205E+03  4.38706E+03 -3.44928E+03  2.69244E+03 -3.07456E+03  5.39441E+02
 -1.77968E+03 -2.77803E+01 -1.78766E+03  8.17524E+02 -2.96842E+03  1.04568E+03 -4.14721E+03 -8.58142E+02
 -4.17954E+03 -2.83821E+03 -1.24019E+03 -5.39330E+03  2.71414E+03 -6.03005E+03  4.74436E+03 -2.59315E+03
  4.84614E+03  6.91156E+02  3.08430E+03  3.80126E+03 -3.52769E+02  6.02609E+03 -4.12362E+03  4.01134E+03
