 $NMID ID='MM_0lb_SNR800_18hz_g50_59.RAW', FMTDAT='(8E13.5)'
 TRAMP=1., VOLUME=1. $END
  3.09818E+05  4.85487E+02  3.37205E+05  2.50417E+05  8.45228E+04  3.37281E+05 -1.32417E+05  2.50308E+05
 -1.89970E+05  8.28677E+04 -1.11038E+05 -3.26093E+04  1.46509E+03 -5.03215E+04  5.40133E+04  1.13657E+02
  3.51734E+04  5.28732E+04 -1.69092E+04  7.51438E+04 -6.03135E+04  6.28456E+04 -8.32476E+04  3.15841E+04
 -8.00458E+04 -1.13465E+04 -5.61763E+04 -5.02191E+04 -1.49852E+04 -6.84514E+04  2.69419E+04 -4.50998E+04
  3.94585E+04  3.76398E+03  1.56520E+04  4.72826E+04 -3.40867E+04  4.67864E+04 -6.56343E+04 -4.57297E+02
 -5.26101E+04 -5.60606E+04 -6.22339E+03 -7.56590E+04  3.31850E+04 -5.37992E+04  4.67710E+04 -1.63731E+04
  4.22942E+04  1.08606E+04  3.10575E+04  2.44106E+04  1.56959E+04  2.86197E+04 -4.53082E+03  2.67300E+04
 -2.19063E+04  1.25902E+04 -1.88640E+04 -4.42132E+03  4.62413E+03 -7.52843E+03  2.12254E+04  1.12904E+04
  7.50526E+03  3.38413E+04 -3.09520E+04  3.46122E+04 -6.12485E+04  2.23067E+03 -5.55879E+04 -4.15401E+04
 -1.21518E+04 -6.15814E+04  3.83034E+04 -4.38439E+04  5.64197E+04 -2.11129E+03  3.24104E+04  3.09630E+04
 -6.15355E+03  3.38593E+04 -2.85820E+04  1.41322E+04 -2.83727E+04 -5.06453E+03 -1.49746E+04 -1.03525E+04
 -7.81924E+03 -1.18454E+04 -8.89856E+02 -1.70119E+04  6.67320E+03 -2.25829E+04  1.51178E+04 -1.38559E+04
  1.23632E+04  4.62900E+03 -6.53782E+03  1.30909E+04 -2.00291E+04 -3.14081E+03 -8.35072E+03 -3.11168E+04
  2.12353E+04 -4.12492E+04  4.55743E+04 -1.87619E+04  4.25985E+04  1.84793E+04  1.44431E+04  4.22128E+04
 -1.54320E+04  3.15368E+04 -2.40163E+04  1.31611E+03 -8.61018E+03 -2.65611E+04  2.05804E+04 -3.15476E+04
  3.85579E+04 -7.66255E+03  3.24299E+04  2.30432E+04  1.60352E+04  4.36060E+04 -7.93326E+03  4.61968E+04
 -2.92562E+04  3.06565E+04 -3.84725E+04  8.42609E+03 -3.94266E+04 -1.56648E+04 -2.15236E+04 -3.48937E+04
  6.86913E+03 -3.49759E+04  2.97460E+04 -1.33817E+04  2.73755E+04  1.08167E+04  3.30687E+03  1.79746E+04
 -1.34225E+04  7.59359E+03 -9.96338E+03 -7.47292E+03  6.35155E+03 -1.03503E+04  1.74244E+04  6.36064E+03
  1.27443E+04  2.15487E+04 -6.30683E+03  2.38084E+04 -2.14156E+04  9.57643E+03 -2.56039E+04 -6.10885E+03
 -1.75924E+04 -1.65990E+04 -6.36192E+03 -1.75559E+04  3.51471E+03 -1.53941E+04  1.32343E+04 -1.53575E+04
  2.22936E+04 -1.19908E+04  2.86979E+04  1.52342E+03  2.15637E+04  1.71246E+04  3.81797E+03  3.34799E+04
 -1.62902E+04  2.80564E+04 -2.62704E+04  9.72901E+03 -1.96561E+04 -1.04718E+04 -3.85509E+03 -1.37077E+04
  2.39880E+03 -3.85956E+03 -3.22046E+03  5.66337E+03 -1.36686E+04  5.19221E+03 -1.40418E+04 -5.14444E+03
 -8.89159E+03 -1.61089E+04  4.34548E+03 -1.99834E+04  1.30048E+04 -1.46220E+04  1.53556E+04 -1.76542E+03
  9.16017E+03  1.14878E+04 -1.15627E+03  1.61461E+04 -1.10897E+04  9.21289E+03 -1.59686E+04 -3.42775E+03
 -1.20899E+04 -1.46263E+04 -1.38471E+03 -1.96161E+04  8.80803E+03 -1.60460E+04  1.65077E+04 -7.52043E+03
  1.50868E+04  8.19084E+02  1.05355E+04  3.98544E+03  5.22272E+03  5.96331E+02  7.90342E+03 -1.34384E+03
  1.42878E+04  2.83157E+03  1.53815E+04  1.31752E+04  9.71357E+03  2.57199E+04 -3.06426E+03  2.79979E+04
 -1.65195E+04  2.14666E+04 -2.54853E+04  1.04546E+04 -2.66701E+04 -2.01850E+03 -2.24390E+04 -1.51756E+04
 -1.03584E+04 -2.12712E+04  7.26896E+03 -1.97720E+04  1.73879E+04 -1.12935E+04  1.63813E+04  4.10750E+03
  6.82206E+03  1.18783E+04 -7.29105E+03  1.07196E+04 -1.38668E+04  2.44657E+03 -1.05940E+04 -8.53161E+03
 -1.35817E+02 -1.28823E+04  6.75077E+03 -9.68197E+03  8.17155E+03 -1.09887E+03  1.44253E+03  5.29053E+03
 -5.46936E+03  1.19236E+03 -4.08403E+03 -4.58905E+03  7.24692E+02 -1.08582E+04  7.98912E+03 -1.06978E+04
  1.29350E+04 -5.25059E+03  1.28085E+04  2.78174E+03  1.09889E+04  9.94377E+03  5.17056E+03  1.49025E+04
 -1.93196E+03  1.70287E+04 -1.05050E+04  1.07087E+04 -1.19574E+04  3.11513E+03 -9.05475E+03 -2.16133E+03
 -4.60245E+03 -3.62862E+03 -8.48751E+02  1.74033E+03 -1.94029E+03  2.31060E+03 -4.03057E+03  3.65814E+03
 -8.52895E+03 -5.60555E+02 -8.81557E+03 -7.60451E+03 -3.47632E+03 -1.19400E+04  4.05569E+03 -8.90762E+03
  7.51959E+03 -3.84984E+03  5.64342E+03  2.11986E+03  5.35623E+02  3.25991E+03 -3.57857E+03 -2.49461E+02
 -3.62069E+03 -5.42539E+03 -9.01458E+02 -7.66652E+03  4.24766E+03 -8.65517E+03  1.07971E+04 -4.33647E+03
  1.23391E+04  6.46185E+02  9.31390E+03  6.59663E+03  1.87276E+03  9.33795E+03 -5.39741E+03  8.61279E+03
 -6.93448E+03  2.94645E+03 -3.45000E+03 -1.48736E+03  1.20463E+03 -1.64902E+03  4.84045E+03 -1.04985E+03
  4.02030E+03  3.62596E+03  1.12659E+03  6.48094E+03 -4.90236E+03  6.40624E+03 -8.35632E+03  2.13283E+03
 -5.08058E+03 -3.77401E+03  5.31798E+02 -7.09973E+03  3.94017E+03 -3.64437E+03  3.97015E+03  1.12209E+03
  3.87793E+02  3.50658E+03 -4.19755E+03  5.12326E+03 -5.59626E+03  2.45358E+03 -5.02459E+03 -1.10071E+03
 -2.95358E+03 -6.46425E+03  1.32974E+03 -7.32148E+03  6.60701E+03 -5.00809E+03  6.83277E+03  9.97890E+02
  4.80208E+03  5.43583E+03  1.93085E+02  7.71146E+03 -5.19925E+03  4.34313E+03 -5.27990E+03 -3.83511E+02
 -6.31033E+03 -5.61738E+03 -1.32919E+03 -5.07013E+03  2.58500E+03 -4.92835E+03  3.06682E+03 -2.93662E+03
  2.91186E+03  2.22155E+02  5.21372E+01  1.26162E+03  3.33146E+02 -6.25995E+02  1.02756E+02 -2.22395E+03
  4.18918E+03 -8.91471E+02  5.30943E+03  9.02709E+02  5.87211E+03  3.32950E+03  5.27730E+03  7.52270E+03
 -1.26064E+03  9.11793E+03 -8.08642E+03  6.81371E+03 -1.05741E+04  9.89344E+02 -8.23219E+03 -2.74330E+03
 -4.32094E+03 -6.57442E+03 -1.80712E+02 -5.78173E+03  2.31343E+03 -2.46875E+03  1.84646E+03 -2.33096E+03
  1.26045E+03 -1.52242E+03  2.13962E+03 -2.58412E+03  3.61636E+03 -1.19402E+03  3.74407E+03  3.51739E+02
  4.43308E+03  1.45653E+03  1.25313E+03  3.64133E+03 -1.70127E+03  3.05917E+03 -4.74935E+03  2.78988E+03
 -5.46369E+03 -1.24709E+03 -1.88607E+03 -3.64280E+03  2.63885E+02 -5.30694E+03  3.26338E+03 -5.83456E+03
  5.71577E+03 -3.49899E+03  7.19578E+03  1.14369E+02  5.42212E+03  4.46187E+03  1.09699E+03  6.52109E+03
 -2.36017E+03  6.27487E+03 -3.58984E+03  2.10218E+03 -2.00026E+03 -1.11441E+03 -6.64202E+02 -6.03883E+02
 -4.67257E+02  3.83594E+02 -9.34416E+02  2.16620E+03 -2.66631E+03  1.18967E+03 -4.33813E+03 -3.23897E+02
 -1.67568E+03 -4.51145E+03  8.84431E+02 -5.11335E+03  3.14683E+03 -4.76007E+03  4.19878E+03 -1.23847E+03
  4.52191E+03  2.45696E+03  1.89766E+03  3.75504E+03 -5.81718E+02  4.87093E+03 -2.88412E+03  2.99472E+03
 -4.00084E+03  6.66953E+02 -3.65490E+03 -2.72192E+03 -2.13086E+02 -3.50506E+03  1.89301E+03 -2.45219E+03
  3.07431E+03 -1.66518E+03  1.67264E+03  3.60296E+02  5.32997E+02  1.41438E+03  9.36757E+02  8.07681E+02
  1.67447E+03  7.53365E+02  1.43382E+03  1.22101E+03  1.33076E+03  2.47569E+03  1.33241E+03  1.80617E+03
 -1.21326E+03  2.95221E+03 -2.44481E+03  4.31160E+03 -3.35788E+03  1.29167E+03 -4.48858E+03 -5.36620E+02
 -2.13041E+03 -3.88992E+03  3.74477E+02 -5.19495E+03  2.23075E+03 -2.69544E+03  3.34201E+03 -8.70808E+02
  2.49171E+03  1.76073E+03  3.52033E+02  2.51430E+03 -5.52263E+02  1.06909E+03 -1.05656E+03  4.12202E+01
 -6.62166E+02 -1.69569E+03  1.39593E+03 -1.75825E+03  1.25263E+03 -1.01368E+03  1.48353E+03  6.29810E+02
  6.25774E+02  3.07978E+02  6.63868E+02 -9.95822E+01 -4.50607E+02  7.45822E+02  1.68385E+03 -7.45945E+01
  2.92845E+02 -1.62978E+02  1.81500E+03  7.88532E+02  2.80137E+02  2.49547E+03 -6.22590E+02  2.95776E+03
 -1.78796E+03  1.23784E+03 -2.01655E+03  2.66126E+02 -2.19049E+03 -9.41498E+02 -1.36995E+02 -1.17124E+03
  4.96880E+02 -1.13655E+03  1.37945E+03 -6.04208E+02  4.84603E+02  1.48307E+03 -6.20031E+02  1.51677E+03
 -1.55524E+03  1.04435E+03 -1.26514E+03 -1.48725E+03 -9.07395E+02 -2.26552E+03  1.37830E+02 -1.81130E+03
  6.13081E+02 -4.33602E+02  1.06803E+03 -3.70872E+01  1.51893E+03  1.56835E+02  2.19840E+02  1.36369E+03
 -1.90955E+02  1.31517E+02 -1.03876E+03 -1.29555E+02  7.03402E+02 -9.89651E+02  1.72758E+03 -6.91199E+02
  1.69581E+03  2.54213E+02  2.88591E+03  7.37375E+02  1.25366E+03  1.69686E+03 -1.72587E+02  1.91627E+03
 -1.29229E+03  3.98950E+02 -1.43906E+03 -2.07286E+02 -8.33658E+02 -1.47483E+03  1.40508E+02 -5.89619E+02
  1.60418E+03 -9.10470E+02  9.03649E+02  7.47547E+02 -4.54244E+01  1.53990E+03  2.45152E+02  1.41123E+03
 -3.28224E+02  1.04041E+03 -7.07564E+02  3.81034E+02  2.21289E+02  4.42839E+01 -7.28205E+02  7.88340E+02
 -8.17309E+02  1.19053E+03 -1.85216E+03  5.31377E+02 -1.88924E+03  3.68507E+02 -2.64439E+03 -8.05108E+02
 -9.87012E+02 -2.25964E+03  6.75229E+02 -3.10348E+03  1.08262E+03 -2.59913E+03  2.88456E+03 -8.85427E+02
  2.72380E+03  3.22127E+01  1.17047E+03  1.92824E+03 -8.29343E+02  1.55350E+03 -6.84653E+02  1.36004E+03
 -1.12262E+03  9.22242E+02 -5.12410E+02 -9.30608E+01 -6.71854E+02  3.50798E+02 -9.69973E+02 -6.94652E+01
 -1.10523E+03  1.39244E+02 -9.83975E+02  1.82299E+01  1.09737E+02 -8.23742E+02 -2.17732E+02 -1.12718E+03
  1.52178E+03 -6.78125E+02  4.77903E+02  2.88642E+02  1.42885E+03  1.20584E+03 -3.73677E+02  1.79520E+03
 -8.44361E+02  2.57279E+03 -1.53639E+03  1.29235E+03 -1.81654E+03 -3.75668E+02 -1.57989E+03 -1.27225E+03
 -5.90319E+02 -1.47755E+03  2.48245E+02 -1.56046E+03  6.71840E+02 -5.71033E+02  6.84601E+02 -9.48187E+01
  7.97113E+02  2.86162E+02  1.31478E+02  3.34250E+02 -5.55311E+02  1.28362E+02  5.06886E+00 -2.69511E+02
  2.55470E+02  1.30803E+02  2.36949E+02  4.15852E+02  7.54393E+01  2.89167E+02  5.71350E+02  4.21886E+02
 -2.34737E+02  5.80616E+02 -6.98938E+02  3.77074E+01 -1.13508E+03 -3.99635E+02  9.77855E+01 -1.31943E+03
  5.48836E+02 -7.65686E+02  5.86290E+02 -6.69662E+01  1.11039E+03 -5.96201E+02  6.39047E+02  1.00780E+03
  4.32772E+02  7.23942E+02 -2.26962E+02  6.10193E+02 -5.70409E+02  8.28301E+02 -4.91872E+02  1.54546E+02
  1.62723E+02  1.27547E+02 -4.89812E+02  2.79136E+02 -6.51069E+02  2.62685E+02 -8.78305E+02 -1.32122E+02
 -1.20453E+03  3.30154E+02 -2.03153E+02 -7.78570E+02  5.55471E+02 -1.61865E+03  7.91504E+02 -3.11083E+02
  7.39681E+02  1.40711E+02 -3.70558E+02  6.29344E+02 -2.27528E+02  1.01486E+03 -4.74536E+02  6.72256E+02
