 $NMID ID='MM_0lb_SNR800_9hz_g45_46.RAW', FMTDAT='(8E13.5)'
 TRAMP=1., VOLUME=1. $END
  3.10067E+05  5.05799E+02  3.37867E+05  2.50830E+05  8.47138E+04  3.38377E+05 -1.32786E+05  2.51701E+05
 -1.91053E+05  8.39072E+04 -1.12155E+05 -3.22483E+04  4.83003E+02 -5.08926E+04  5.40135E+04 -6.80313E+02
  3.56267E+04  5.27568E+04 -1.72442E+04  7.58574E+04 -6.08134E+04  6.45761E+04 -8.53813E+04  3.25195E+04
 -8.25819E+04 -1.17697E+04 -5.78217E+04 -5.22815E+04 -1.56521E+04 -7.08735E+04  2.83407E+04 -4.67194E+04
  4.13839E+04  3.98952E+03  1.70626E+04  4.88742E+04 -3.46128E+04  4.79632E+04 -6.77563E+04 -2.88515E+01
 -5.44086E+04 -5.78918E+04 -7.41776E+03 -7.85838E+04  3.47492E+04 -5.69621E+04  4.96925E+04 -1.82959E+04
  4.47509E+04  1.16425E+04  3.27620E+04  2.61318E+04  1.60548E+04  3.06354E+04 -5.80201E+03  2.76964E+04
 -2.26957E+04  1.21546E+04 -1.80584E+04 -5.58919E+03  7.18817E+03 -7.05656E+03  2.32191E+04  1.33046E+04
  7.39037E+03  3.71885E+04 -3.38625E+04  3.70116E+04 -6.55245E+04  2.08928E+03 -5.85886E+04 -4.37920E+04
 -1.28174E+04 -6.54682E+04  4.16355E+04 -4.73465E+04  6.12791E+04 -1.90528E+03  3.64578E+04  3.46944E+04
 -5.46054E+03  3.93741E+04 -3.19303E+04  1.84741E+04 -3.31576E+04 -3.39403E+03 -1.90597E+04 -1.17373E+04
 -9.50130E+03 -1.49162E+04 -9.76611E+02 -1.94844E+04  8.76821E+03 -2.30670E+04  1.55516E+04 -1.27881E+04
  1.09604E+04  5.94220E+03 -1.02809E+04  1.23849E+04 -2.33773E+04 -6.39735E+03 -8.37761E+03 -3.69175E+04
  2.44729E+04 -4.63167E+04  5.12757E+04 -2.08036E+04  4.81554E+04  2.06381E+04  1.71140E+04  4.67797E+04
 -1.67400E+04  3.57551E+04 -2.70626E+04  2.69626E+03 -1.13170E+04 -2.95655E+04  2.17284E+04 -3.65386E+04
  4.44087E+04 -1.05800E+04  3.99892E+04  2.50681E+04  2.09661E+04  5.08971E+04 -8.34620E+03  5.56106E+04
 -3.48517E+04  3.77650E+04 -4.69217E+04  1.07783E+04 -4.68406E+04 -1.83510E+04 -2.58076E+04 -4.20848E+04
  7.70120E+03 -4.17609E+04  3.41293E+04 -1.65378E+04  3.16169E+04  1.11464E+04  5.30844E+03  2.08291E+04
 -1.41145E+04  9.85542E+03 -1.12065E+04 -7.56732E+03  5.36785E+03 -1.11116E+04  1.85823E+04  5.49491E+03
  1.49422E+04  2.26881E+04 -5.02973E+03  2.67324E+04 -2.35081E+04  1.45801E+04 -3.12369E+04 -2.65246E+03
 -2.53924E+04 -1.83067E+04 -1.14518E+04 -2.45362E+04  4.04062E+03 -2.53520E+04  1.90338E+04 -2.25421E+04
  3.11213E+04 -1.40212E+04  3.79068E+04  4.74429E+03  2.64150E+04  2.35181E+04  4.59065E+03  4.11067E+04
 -1.92560E+04  3.34426E+04 -3.03488E+04  1.18554E+04 -2.21222E+04 -1.02243E+04 -4.92053E+03 -1.30552E+04
  9.21829E+02 -1.55714E+03 -7.25603E+03  7.87156E+03 -1.96959E+04  5.12372E+03 -1.98337E+04 -9.33568E+03
 -1.24018E+04 -2.32178E+04  6.01122E+03 -2.70800E+04  1.84088E+04 -1.95193E+04  2.23722E+04 -1.78950E+03
  1.40129E+04  1.58778E+04 -1.57869E+03  2.31001E+04 -1.61219E+04  1.32742E+04 -2.33240E+04 -4.68013E+03
 -1.67891E+04 -2.07507E+04 -2.32222E+03 -2.76621E+04  1.23105E+04 -2.27433E+04  2.28206E+04 -1.21499E+04
  2.15810E+04 -2.54833E+02  1.57285E+04  5.03857E+03  8.27409E+03  1.15582E+03  1.22673E+04 -2.11219E+03
  2.15465E+04  2.96415E+03  2.48486E+04  1.80852E+04  1.69284E+04  3.64000E+04 -2.89944E+03  4.31675E+04
 -2.45683E+04  3.62034E+04 -4.05869E+04  1.85402E+04 -4.35294E+04 -2.97735E+03 -3.55764E+04 -2.54049E+04
 -1.40666E+04 -3.65008E+04  1.28897E+04 -3.22964E+04  2.72604E+04 -1.49974E+04  2.36028E+04  7.46553E+03
  8.02756E+03  1.86667E+04 -1.15863E+04  1.52835E+04 -1.98174E+04  2.48429E+03 -1.49720E+04 -1.25726E+04
 -2.38608E+02 -1.89061E+04  1.05636E+04 -1.42613E+04  1.29613E+04 -1.10983E+03  3.41898E+03  8.51314E+03
 -8.59866E+03  3.92680E+03 -8.67221E+03 -6.66044E+03 -1.58031E+03 -1.77154E+04  1.23292E+04 -1.95063E+04
  2.24209E+04 -1.09561E+04  2.52769E+04  2.78244E+03  2.22058E+04  1.80027E+04  1.04671E+04  2.82217E+04
 -5.29873E+03  3.04199E+04 -1.98935E+04  1.89035E+04 -2.20181E+04  3.47016E+03 -1.47688E+04 -5.68393E+03
 -6.47978E+03 -6.92075E+03 -9.06725E+02  3.73913E+02 -2.83976E+03  3.46841E+03 -7.51377E+03  5.39083E+03
 -1.40171E+04 -1.12660E+03 -1.42861E+04 -1.18148E+04 -5.61211E+03 -1.90974E+04  6.34205E+03 -1.53743E+04
  1.28172E+04 -6.45735E+03  9.08904E+03  3.92068E+03 -3.35460E+02  6.17876E+03 -7.83314E+03  4.94614E+02
 -7.46700E+03 -9.92573E+03 -1.34145E+03 -1.51927E+04  8.82898E+03 -1.57083E+04  1.93823E+04 -8.53157E+03
  2.29873E+04  2.56325E+03  1.64572E+04  1.35645E+04  3.75184E+03  1.84579E+04 -9.17586E+03  1.54961E+04
 -1.24256E+04  4.59495E+03 -6.22262E+03 -3.40393E+03  2.51689E+03 -4.18895E+03  8.23425E+03 -9.07683E+02
  7.04280E+03  6.73960E+03  1.09876E+03  1.23094E+04 -8.70523E+03  1.15099E+04 -1.53513E+04  2.98164E+03
 -1.04871E+04 -7.75796E+03  3.82097E+02 -1.32429E+04  8.52889E+03 -6.62668E+03  9.37463E+03  3.28791E+03
  1.93277E+03  9.78749E+03 -8.06706E+03  1.11545E+04 -1.33126E+04  4.88416E+03 -1.39176E+04 -4.51398E+03
 -8.08760E+03 -1.53553E+04  3.65669E+03 -1.74348E+04  1.43939E+04 -1.04268E+04  1.61542E+04  2.61721E+03
  9.52709E+03  1.25388E+04 -1.63132E+03  1.53629E+04 -1.17699E+04  8.29265E+03 -1.29180E+04 -8.88840E+02
 -1.04562E+04 -1.02795E+04 -1.44288E+03 -1.17442E+04  6.51924E+03 -9.09892E+03  7.70686E+03 -3.44948E+03
  5.02274E+03  1.98272E+03 -1.14535E+03  2.18641E+03 -4.62728E+02 -3.45604E+03  2.67071E+03 -7.41683E+03
  1.17622E+04 -4.54589E+03  1.55350E+04  1.63397E+03  1.51371E+04  1.09104E+04  1.01708E+04  2.03180E+04
 -5.32723E+03  2.38373E+04 -1.95501E+04  1.69511E+04 -2.49901E+04  3.46549E+03 -1.99533E+04 -8.70952E+03
 -1.02597E+04 -1.62672E+04 -5.85082E+02 -1.42992E+04  4.76153E+03 -7.87376E+03  4.82085E+03 -5.42953E+03
  3.47066E+03 -2.81531E+03  3.76580E+03 -4.00207E+03  5.80046E+03 -3.35394E+03  7.69383E+03 -1.27594E+03
  1.01126E+04  2.59950E+03  5.70634E+03  9.35783E+03 -2.59817E+03  1.09891E+04 -1.13108E+04  8.40705E+03
 -1.39145E+04 -8.21180E+02 -9.23404E+03 -9.96571E+03 -1.04096E+03 -1.54031E+04  8.57287E+03 -1.52128E+04
  1.60678E+04 -8.48517E+03  1.90186E+04  2.53836E+03  1.30513E+04  1.35334E+04  2.13678E+03  1.71825E+04
 -7.31230E+03  1.38602E+04 -9.71785E+03  4.64873E+03 -6.67560E+03 -1.63237E+03 -2.81249E+03 -2.17512E+03
 -1.56047E+03 -1.21673E+02 -2.44371E+03  2.98831E+03 -6.30701E+03  2.57418E+03 -9.97414E+03 -1.28990E+03
 -7.08502E+03 -9.89169E+03  5.29616E+02 -1.40968E+04  9.08633E+03 -1.30160E+04  1.39678E+04 -3.86514E+03
  1.43524E+04  7.36035E+03  6.53081E+03  1.24648E+04 -2.36747E+03  1.47101E+04 -1.02799E+04  8.94906E+03
 -1.33961E+04  5.95956E+02 -1.05396E+04 -8.49281E+03 -1.52992E+03 -1.17799E+04  6.00779E+03 -8.49372E+03
  9.25257E+03 -3.16335E+03  6.39891E+03  2.69906E+03  2.28908E+03  4.04443E+03  1.18493E+03  2.06503E+03
  2.78619E+03  1.08921E+03  3.79531E+03  2.11806E+03  4.36617E+03  4.85453E+03  3.50423E+03  7.49207E+03
 -2.75228E+03  1.11059E+04 -1.02224E+04  1.14595E+04 -1.47502E+04  2.63816E+03 -1.50629E+04 -6.11213E+03
 -7.28706E+03 -1.48575E+04  2.45438E+03 -1.60746E+04  8.86046E+03 -1.00910E+04  1.20138E+04 -2.63896E+03
  9.30743E+03  5.19662E+03  1.69421E+03  8.26361E+03 -3.97409E+03  5.44304E+03 -5.91099E+03 -9.42866E+02
 -2.48641E+03 -6.23575E+03  3.13291E+03 -6.55511E+03  6.46829E+03 -3.18615E+03  5.73601E+03  8.95235E+02
  3.13409E+03  3.02770E+03  1.21776E+03  2.47470E+03 -6.98713E+02  2.09626E+03  2.10377E+03 -5.04717E+02
  2.65047E+03 -9.00828E+02  5.88211E+03  2.40466E+03  3.57816E+03  7.82030E+03 -1.51256E+03  9.78678E+03
 -6.92022E+03  6.55598E+03 -9.20964E+03  2.04091E+03 -8.26123E+03 -3.17983E+03 -3.33725E+03 -5.63766E+03
  1.10926E+03 -5.85475E+03  3.98713E+03 -2.76126E+03  3.35589E+03  2.86373E+03 -1.32715E+03  4.80849E+03
 -6.11731E+03  2.58950E+03 -6.77128E+03 -3.02445E+03 -3.67548E+03 -8.06824E+03  1.44937E+03 -8.15072E+03
  4.25316E+03 -5.05222E+03  5.70198E+03 -3.98507E+02  5.06764E+03  2.41067E+03  1.02652E+03  4.14189E+03
 -2.69818E+03  1.60535E+03 -3.50338E+03 -2.45792E+03  1.42610E+03 -6.49951E+03  7.36098E+03 -5.25900E+03
  9.50068E+03  4.57924E+02  8.74078E+03  6.30018E+03  2.96177E+03  9.70760E+03 -3.32211E+03  9.42963E+03
 -8.17158E+03  4.06687E+03 -8.34416E+03 -1.50957E+03 -4.36308E+03 -6.71583E+03  1.55407E+03 -5.97964E+03
  6.22683E+03 -2.95500E+03  4.88219E+03  2.46300E+03  1.85794E+03  5.64379E+03 -8.90688E+02  4.79888E+03
 -2.38919E+03  2.72263E+03 -2.57560E+03  9.32250E+02 -1.24363E+03  9.37604E+02 -1.54002E+03  2.16377E+03
 -2.89388E+03  3.64944E+03 -6.62875E+03  3.12221E+03 -9.54916E+03 -2.55417E+02 -1.09755E+04 -6.64471E+03
 -5.42756E+03 -1.26263E+04  2.98965E+03 -1.47353E+04  9.38837E+03 -1.14225E+04  1.40013E+04 -4.29691E+03
  1.33100E+04  2.81921E+03  7.66479E+03  9.10649E+03  9.18505E+02  9.89084E+03 -3.88681E+03  7.59196E+03
 -5.93778E+03  2.71856E+03 -3.51447E+03 -1.02237E+03 -1.57311E+03 -1.09305E+03 -7.15346E+02 -1.71008E+02
 -2.09559E+03 -5.11306E+01 -2.04223E+03 -3.02385E+02 -6.56819E+02 -2.17565E+03  2.55609E+02 -3.69973E+03
  4.72232E+03 -2.94195E+03  6.26341E+03 -1.04085E+02  7.13466E+03  5.41985E+03  1.45760E+03  9.93776E+03
 -4.86841E+03  1.15762E+04 -1.05121E+04  7.10366E+03 -1.24727E+04 -2.40974E+02 -9.36005E+03 -7.51050E+03
 -4.01133E+03 -1.04171E+04  2.97948E+03 -9.57827E+03  6.18936E+03 -5.32373E+03  6.60582E+03  2.14456E+02
  3.43460E+03  3.58824E+03 -2.54830E+02  2.72238E+03 -2.20995E+03 -3.92580E+01 -1.06803E+02 -2.52944E+03
  2.92250E+03 -1.21180E+03  4.19654E+03  1.30938E+03  2.67553E+03  4.18400E+03 -1.05344E+02  5.36624E+03
 -4.59871E+03  4.25652E+03 -6.78964E+03  6.78808E+02 -6.03602E+03 -4.90859E+03 -9.38620E+02 -8.48222E+03
  4.92210E+03 -7.06932E+03  7.73138E+03 -2.18397E+03  7.76788E+03  1.85338E+03  4.58846E+03  6.65274E+03
  6.61685E+02  7.18384E+03 -2.99143E+03  5.22560E+03 -4.26608E+03  3.16247E+03 -3.87213E+03  2.52520E+02
 -1.64287E+03 -6.80710E+02 -1.99340E+03  7.85109E+02 -3.87307E+03  1.27043E+03 -5.43021E+03 -7.75090E+02
 -5.31912E+03 -3.66634E+03 -1.34679E+03 -6.88661E+03  3.23241E+03 -7.83418E+03  5.86294E+03 -3.25702E+03
  6.72319E+03  6.90041E+02  3.82981E+03  4.80013E+03 -4.66634E+02  6.44075E+03 -5.57701E+03  4.40198E+03
