 $NMID ID='MM_0lb_SNR800_18hz_g55_93.RAW', FMTDAT='(8E13.5)'
 TRAMP=1., VOLUME=1. $END
  3.09862E+05  1.59855E+02  3.37731E+05  2.50691E+05  8.46042E+04  3.37550E+05 -1.32695E+05  2.50631E+05
 -1.90272E+05  8.25310E+04 -1.11224E+05 -3.26579E+04  9.63617E+02 -5.02847E+04  5.37593E+04  1.38451E+01
  3.48970E+04  5.28625E+04 -1.68903E+04  7.52832E+04 -6.05356E+04  6.32261E+04 -8.34590E+04  3.18735E+04
 -8.07520E+04 -1.14462E+04 -5.67801E+04 -5.07322E+04 -1.48431E+04 -6.88424E+04  2.71947E+04 -4.55370E+04
  3.95712E+04  3.70094E+03  1.57805E+04  4.71821E+04 -3.42504E+04  4.67535E+04 -6.60510E+04 -2.77045E+02
 -5.28310E+04 -5.63959E+04 -6.52767E+03 -7.58869E+04  3.33946E+04 -5.43171E+04  4.71337E+04 -1.68095E+04
  4.21291E+04  1.10029E+04  3.12956E+04  2.50185E+04  1.58943E+04  2.88010E+04 -4.87610E+03  2.72619E+04
 -2.14782E+04  1.23799E+04 -1.88023E+04 -4.25938E+03  4.86578E+03 -7.82910E+03  2.17605E+04  1.14193E+04
  7.39519E+03  3.39856E+04 -3.10343E+04  3.46063E+04 -6.19480E+04  2.15101E+03 -5.60955E+04 -4.19323E+04
 -1.25397E+04 -6.20565E+04  3.88955E+04 -4.42072E+04  5.69875E+04 -2.22218E+03  3.29406E+04  3.14277E+04
 -5.96561E+03  3.45625E+04 -2.92035E+04  1.43625E+04 -2.88315E+04 -4.76655E+03 -1.56627E+04 -1.05134E+04
 -7.94649E+03 -1.21573E+04 -7.05723E+02 -1.73706E+04  6.90486E+03 -2.28948E+04  1.50102E+04 -1.35233E+04
  1.19002E+04  4.96298E+03 -7.14358E+03  1.33014E+04 -2.01652E+04 -3.25039E+03 -8.24026E+03 -3.18674E+04
  2.17382E+04 -4.17255E+04  4.61016E+04 -1.89081E+04  4.33404E+04  1.89463E+04  1.50426E+04  4.27520E+04
 -1.55962E+04  3.22774E+04 -2.41118E+04  1.34743E+03 -8.81383E+03 -2.68723E+04  2.07515E+04 -3.22145E+04
  3.91950E+04 -7.87345E+03  3.33699E+04  2.34148E+04  1.67423E+04  4.41340E+04 -7.54121E+03  4.74382E+04
 -2.97878E+04  3.15658E+04 -3.90888E+04  8.54374E+03 -3.99673E+04 -1.57564E+04 -2.20655E+04 -3.57696E+04
  7.07741E+03 -3.53433E+04  3.00841E+04 -1.38085E+04  2.79975E+04  1.09287E+04  3.48250E+03  1.83773E+04
 -1.32858E+04  7.64613E+03 -9.68525E+03 -7.64763E+03  5.81293E+03 -1.02070E+04  1.72998E+04  6.37791E+03
  1.27458E+04  2.15801E+04 -6.40219E+03  2.39115E+04 -2.17760E+04  1.01045E+04 -2.63485E+04 -5.58591E+03
 -1.82848E+04 -1.66068E+04 -6.71284E+03 -1.81738E+04  4.04398E+03 -1.63780E+04  1.35827E+04 -1.56868E+04
  2.29824E+04 -1.22029E+04  2.97113E+04  1.67851E+03  2.21675E+04  1.76073E+04  4.05884E+03  3.39163E+04
 -1.64545E+04  2.86164E+04 -2.64922E+04  9.76559E+03 -2.00749E+04 -1.05484E+04 -4.20813E+03 -1.37171E+04
  2.44970E+03 -3.92324E+03 -3.62540E+03  5.86496E+03 -1.38295E+04  4.87066E+03 -1.43980E+04 -5.48666E+03
 -9.29414E+03 -1.67828E+04  4.78683E+03 -2.04196E+04  1.35104E+04 -1.49361E+04  1.55654E+04 -1.39319E+03
  9.88936E+03  1.19698E+04 -1.00967E+03  1.66189E+04 -1.13586E+04  9.57110E+03 -1.63832E+04 -3.57921E+03
 -1.24295E+04 -1.52014E+04 -1.81011E+03 -2.06114E+04  9.19381E+03 -1.62558E+04  1.72463E+04 -7.93259E+03
  1.55129E+04  5.90812E+02  1.14493E+04  4.11228E+03  5.61381E+03  8.13997E+02  8.37707E+03 -1.38084E+03
  1.49258E+04  2.63639E+03  1.62209E+04  1.35102E+04  1.04570E+04  2.62720E+04 -2.93911E+03  2.88818E+04
 -1.68798E+04  2.25045E+04 -2.65503E+04  1.07999E+04 -2.78165E+04 -1.92504E+03 -2.35010E+04 -1.56865E+04
 -1.07872E+04 -2.25468E+04  7.83552E+03 -2.07392E+04  1.81074E+04 -1.13675E+04  1.64908E+04  4.27203E+03
  6.58442E+03  1.20382E+04 -7.86570E+03  1.10081E+04 -1.42342E+04  2.89733E+03 -1.11698E+04 -8.41475E+03
  9.01190E+01 -1.30597E+04  6.51303E+03 -9.99115E+03  8.53523E+03 -1.19731E+03  1.64486E+03  5.41587E+03
 -5.97278E+03  1.64887E+03 -4.31250E+03 -5.01639E+03  3.85744E+02 -1.11663E+04  8.34854E+03 -1.12489E+04
  1.35685E+04 -5.31510E+03  1.32993E+04  2.99157E+03  1.17135E+04  1.02818E+04  5.72537E+03  1.56726E+04
 -2.03051E+03  1.76042E+04 -1.07126E+04  1.11408E+04 -1.23779E+04  2.79715E+03 -9.33498E+03 -2.34092E+03
 -4.95192E+03 -3.66632E+03 -5.93352E+02  1.39342E+03 -2.00481E+03  2.06865E+03 -3.96631E+03  3.53570E+03
 -8.62145E+03 -3.66766E+02 -9.17544E+03 -7.74322E+03 -3.56555E+03 -1.23271E+04  3.60509E+03 -9.00022E+03
  7.59406E+03 -4.00144E+03  5.72870E+03  2.53411E+03  6.64180E+02  3.24922E+03 -3.66536E+03 -4.68194E+02
 -3.78908E+03 -5.34536E+03 -5.93783E+02 -8.05085E+03  4.35541E+03 -8.73007E+03  1.12305E+04 -4.54691E+03
  1.28930E+04  9.41618E+02  9.32398E+03  6.72296E+03  1.99573E+03  9.35576E+03 -5.64236E+03  8.96585E+03
 -7.63234E+03  3.19645E+03 -3.95109E+03 -1.33330E+03  1.55465E+03 -2.16565E+03  4.79000E+03 -6.67263E+02
  4.32469E+03  3.71031E+03  1.16714E+03  7.25435E+03 -4.84137E+03  6.95633E+03 -8.34097E+03  1.85518E+03
 -5.33596E+03 -3.97070E+03  3.27616E+02 -7.15078E+03  4.05820E+03 -3.67764E+03  4.01236E+03  1.44938E+03
  4.42955E+02  3.56930E+03 -4.58097E+03  5.28728E+03 -5.52097E+03  2.68504E+03 -5.06257E+03 -1.50599E+03
 -3.09695E+03 -6.73958E+03  1.29022E+03 -7.89876E+03  6.57875E+03 -5.00798E+03  7.31903E+03  1.13887E+03
  4.92746E+03  6.16690E+03 -7.70237E+00  7.97658E+03 -5.74603E+03  4.52232E+03 -5.80856E+03 -8.21586E+02
 -6.06805E+03 -5.52709E+03 -1.37213E+03 -5.39354E+03  2.78269E+03 -5.06699E+03  3.21985E+03 -2.80598E+03
  2.92638E+03  3.20790E+02  9.49166E+01  1.35829E+03  3.06509E+02 -6.60928E+02  4.13039E+02 -2.16698E+03
  4.07195E+03 -8.58405E+02  5.94003E+03  5.99888E+02  6.00616E+03  3.50700E+03  5.56177E+03  7.99539E+03
 -1.43899E+03  9.51637E+03 -8.46405E+03  7.23040E+03 -1.09909E+04  1.45652E+03 -8.40064E+03 -2.90537E+03
 -4.76699E+03 -7.15130E+03 -6.63030E+01 -5.79720E+03  2.25261E+03 -2.68463E+03  1.79440E+03 -2.61732E+03
  1.45785E+03 -1.73342E+03  1.86798E+03 -2.56342E+03  3.79992E+03 -1.26074E+03  4.02139E+03  1.72357E+02
  4.87453E+03  1.22328E+03  1.36766E+03  3.69772E+03 -1.64920E+03  3.36061E+03 -4.75304E+03  3.06131E+03
 -5.39907E+03 -7.58150E+02 -2.22985E+03 -3.70491E+03  3.78745E+02 -5.46904E+03  3.35338E+03 -5.87780E+03
  5.73891E+03 -3.48553E+03  7.15778E+03  3.14835E+02  5.48186E+03  4.73608E+03  1.32923E+03  6.53769E+03
 -2.22750E+03  6.07935E+03 -3.63368E+03  1.98403E+03 -2.11724E+03 -1.28925E+03 -5.62893E+02 -7.94958E+02
 -4.83576E+02  3.70152E+02 -1.08942E+03  2.27637E+03 -2.45851E+03  1.10436E+03 -4.47398E+03 -5.13969E+02
 -1.87332E+03 -4.18446E+03  7.35846E+02 -5.31820E+03  3.00455E+03 -4.59109E+03  4.21138E+03 -1.26001E+03
  4.77292E+03  2.48169E+03  2.04853E+03  4.05652E+03 -7.89122E+02  4.88484E+03 -2.72714E+03  2.70219E+03
 -4.18932E+03  6.54898E+02 -3.45022E+03 -2.67799E+03 -1.46252E+02 -3.52765E+03  1.87810E+03 -2.63082E+03
  3.18296E+03 -1.42243E+03  2.15140E+03  5.40268E+02  3.31809E+02  1.64141E+03  8.04168E+02  7.43460E+02
  1.80491E+03  5.71435E+02  1.41725E+03  1.08842E+03  1.15724E+03  2.60796E+03  1.72485E+03  2.07365E+03
 -1.29376E+03  3.07514E+03 -2.75937E+03  4.53717E+03 -3.23305E+03  1.42480E+03 -4.56065E+03 -6.40525E+02
 -1.95307E+03 -3.96942E+03  7.70116E+02 -4.82516E+03  2.34779E+03 -2.83861E+03  3.23212E+03 -8.94029E+02
  2.40437E+03  1.97075E+03  4.76749E+02  2.29396E+03 -7.17986E+02  1.39640E+03 -1.16391E+03 -9.01677E+01
 -6.77136E+02 -1.74180E+03  1.37042E+03 -1.58425E+03  1.56081E+03 -8.81715E+02  1.56544E+03  7.03962E+02
  7.68770E+02  5.32918E+02  9.60796E+02 -1.15508E+02 -4.78358E+02  7.43260E+02  1.77552E+03 -1.59615E+02
  2.24916E+02 -1.05452E+02  2.11910E+03  6.52713E+02  2.83720E+02  2.55960E+03 -3.69155E+02  3.05777E+03
 -2.17606E+03  9.94905E+02 -2.24835E+03  3.94698E+02 -2.43638E+03 -8.54979E+02 -3.15821E+02 -1.26248E+03
  3.45784E+02 -1.26464E+03  8.01116E+02 -8.83007E+02  6.86109E+02  1.17970E+03 -7.25220E+02  1.30535E+03
 -1.65633E+03  7.75337E+02 -1.28185E+03 -1.45534E+03 -9.50337E+02 -2.05337E+03  1.67379E+02 -1.81327E+03
  7.95963E+02 -4.72082E+02  1.06737E+03  2.43949E+02  1.17808E+03 -1.25064E+02  4.57950E+02  1.27857E+03
 -2.86124E+02 -1.11340E+02 -1.13087E+03 -3.60657E+02  4.50392E+02 -7.60664E+02  1.62205E+03 -8.18630E+02
  1.44281E+03  2.41035E+02  2.59863E+03  8.40564E+02  1.11070E+03  1.83508E+03 -2.89437E+02  2.25993E+03
 -1.46577E+03  6.20372E+02 -1.89658E+03 -2.71090E+02 -1.10936E+03 -1.58564E+03  3.57292E+02 -4.14032E+02
  1.43031E+03 -6.90087E+02  9.70656E+02  8.64307E+02  3.15619E+02  1.44987E+03  1.72509E+02  1.26977E+03
 -5.38504E+02  1.20022E+03 -5.92307E+02  1.06403E+02 -8.07249E+01  3.73420E+02 -1.01732E+03  4.31979E+02
 -7.90787E+02  1.38147E+03 -1.83395E+03  4.64320E+02 -1.82277E+03  1.32936E+01 -2.33271E+03 -9.80002E+02
 -1.41415E+03 -2.25016E+03  5.55335E+02 -2.95963E+03  1.23714E+03 -2.76207E+03  2.95480E+03 -1.09822E+03
  2.64110E+03  4.08657E+01  1.40680E+03  1.53939E+03 -3.23096E+02  1.53003E+03 -5.20054E+02  1.19793E+03
 -1.07467E+03  6.07224E+02 -3.42333E+02 -1.38186E+02 -6.29748E+02  2.45007E+02 -5.32580E+02  1.66132E+02
 -1.05246E+03  1.27448E+02 -8.48395E+02 -4.82509E+01  2.94283E+02 -7.78295E+02 -1.86278E+02 -9.64455E+02
  1.16258E+03 -9.53134E+02  6.50446E+02  2.09918E+02  1.23739E+03  1.26080E+03 -3.03557E+02  1.51592E+03
 -1.25206E+03  2.31554E+03 -1.71521E+03  1.21600E+03 -2.23372E+03 -4.57067E+02 -1.80665E+03 -1.23522E+03
 -7.57160E+02 -1.68101E+03  2.80247E+02 -1.27062E+03  9.10779E+02 -4.15458E+02  6.29537E+02  2.40611E+02
  9.32541E+02  6.31414E+02  9.79032E+01  4.10614E+02 -3.92500E+02 -1.25300E+02 -1.75470E+02 -2.52570E+02
  5.37011E+02  3.17455E+02  2.73952E+02  6.92033E+02 -1.93277E+01  3.69437E+02  2.81704E+02  4.63570E+02
 -9.02127E+02  6.10959E+02 -4.29437E+02  1.57911E+02 -9.85659E+02 -3.79979E+02  7.69434E+01 -1.45811E+03
  2.70699E+02 -6.34951E+02  5.40568E+02  8.17345E+01  1.44170E+03 -2.49197E+02  4.86281E+02  5.57298E+02
  3.57531E+02  4.51278E+02 -1.78962E+02  6.99623E+02 -2.08159E+02  4.70336E+02 -1.28890E+02  8.45332E+00
 -2.92318E+02 -1.94813E+02 -3.99778E+02  3.60855E+02 -5.99287E+02  4.54435E+00 -1.03278E+03 -4.44579E+02
 -1.29272E+03  2.82088E+02 -5.15058E+02 -1.04184E+03  6.78256E+02 -1.51744E+03  9.50934E+02 -3.89352E+02
  8.16573E+02 -3.22100E+01 -4.72296E+02  3.05273E+02 -1.67092E+02  1.02115E+03 -6.30897E+02  7.82128E+02
