 $NMID ID='MM_0lb_SNR800_18hz_g55_6.RAW', FMTDAT='(8E13.5)'
 TRAMP=1., VOLUME=1. $END
  3.09891E+05  4.33820E+02  3.37216E+05  2.50678E+05  8.43667E+04  3.37348E+05 -1.32607E+05  2.50776E+05
 -1.90034E+05  8.27677E+04 -1.11400E+05 -3.27648E+04  1.39229E+03 -5.02896E+04  5.40653E+04 -5.63582E-01
  3.51863E+04  5.30352E+04 -1.69136E+04  7.53197E+04 -6.03190E+04  6.33384E+04 -8.39088E+04  3.18102E+04
 -8.02030E+04 -1.15002E+04 -5.66899E+04 -5.05134E+04 -1.50560E+04 -6.89648E+04  2.72630E+04 -4.53658E+04
  3.93906E+04  3.89196E+03  1.58289E+04  4.74048E+04 -3.41813E+04  4.65622E+04 -6.59938E+04 -6.68148E+02
 -5.27165E+04 -5.66285E+04 -6.53252E+03 -7.64085E+04  3.34946E+04 -5.38597E+04  4.72393E+04 -1.67198E+04
  4.21533E+04  1.13173E+04  3.12358E+04  2.51332E+04  1.60077E+04  2.87543E+04 -4.84620E+03  2.69177E+04
 -2.18368E+04  1.29102E+04 -1.90315E+04 -4.49477E+03  5.19618E+03 -7.69119E+03  2.18258E+04  1.15310E+04
  7.27419E+03  3.42260E+04 -3.10175E+04  3.45666E+04 -6.20839E+04  2.02458E+03 -5.63570E+04 -4.19089E+04
 -1.22175E+04 -6.18255E+04  3.87094E+04 -4.40177E+04  5.66299E+04 -2.07571E+03  3.28555E+04  3.14892E+04
 -6.33386E+03  3.45943E+04 -2.91253E+04  1.43655E+04 -2.87358E+04 -4.91835E+03 -1.50959E+04 -1.05130E+04
 -7.76656E+03 -1.23551E+04 -9.67354E+02 -1.71995E+04  6.72292E+03 -2.27165E+04  1.51598E+04 -1.36217E+04
  1.13262E+04  4.93595E+03 -6.99632E+03  1.31082E+04 -2.01571E+04 -3.41041E+03 -8.19703E+03 -3.17698E+04
  2.19351E+04 -4.15129E+04  4.61453E+04 -1.90486E+04  4.33553E+04  1.90633E+04  1.48230E+04  4.24652E+04
 -1.57006E+04  3.18336E+04 -2.43115E+04  1.48179E+03 -8.93705E+03 -2.69337E+04  2.07027E+04 -3.20350E+04
  3.92624E+04 -8.22365E+03  3.31096E+04  2.31810E+04  1.64074E+04  4.39584E+04 -7.45232E+03  4.71115E+04
 -2.95604E+04  3.13552E+04 -3.89603E+04  8.86238E+03 -4.00158E+04 -1.55795E+04 -2.21484E+04 -3.55360E+04
  6.98128E+03 -3.58495E+04  3.00890E+04 -1.35653E+04  2.77245E+04  1.07659E+04  3.36676E+03  1.81301E+04
 -1.34951E+04  7.58418E+03 -9.87786E+03 -7.34817E+03  5.74006E+03 -1.03558E+04  1.76884E+04  6.32392E+03
  1.27116E+04  2.16344E+04 -6.15435E+03  2.40976E+04 -2.16203E+04  9.92132E+03 -2.60883E+04 -5.88839E+03
 -1.83931E+04 -1.67063E+04 -6.57374E+03 -1.83746E+04  3.91459E+03 -1.64047E+04  1.38178E+04 -1.57537E+04
  2.27985E+04 -1.20880E+04  2.97920E+04  1.66152E+03  2.20274E+04  1.76866E+04  4.22703E+03  3.40054E+04
 -1.64612E+04  2.85774E+04 -2.65759E+04  1.00627E+04 -1.99625E+04 -1.05025E+04 -4.11044E+03 -1.38930E+04
  2.24968E+03 -3.84413E+03 -3.53654E+03  5.72607E+03 -1.38959E+04  5.30307E+03 -1.42110E+04 -5.77860E+03
 -8.87365E+03 -1.66535E+04  4.86205E+03 -2.06320E+04  1.34421E+04 -1.49305E+04  1.54221E+04 -1.28583E+03
  9.67511E+03  1.17301E+04 -6.73072E+02  1.68949E+04 -1.12270E+04  9.23916E+03 -1.65913E+04 -3.59925E+03
 -1.23801E+04 -1.53161E+04 -1.49014E+03 -2.03500E+04  8.90750E+03 -1.64668E+04  1.69563E+04 -7.70473E+03
  1.56708E+04  4.11126E+02  1.12092E+04  4.02838E+03  5.42092E+03  5.09007E+02  8.31349E+03 -1.68083E+03
  1.49715E+04  2.71582E+03  1.62247E+04  1.32759E+04  1.01934E+04  2.63299E+04 -3.22302E+03  2.93223E+04
 -1.69576E+04  2.25105E+04 -2.64630E+04  1.10099E+04 -2.75336E+04 -1.89651E+03 -2.31680E+04 -1.56643E+04
 -1.07524E+04 -2.26867E+04  7.47704E+03 -2.06754E+04  1.80112E+04 -1.18103E+04  1.66635E+04  4.46648E+03
  6.97177E+03  1.19613E+04 -7.58811E+03  1.12728E+04 -1.43435E+04  2.52137E+03 -1.10749E+04 -8.27487E+03
 -4.39553E+02 -1.30667E+04  6.63094E+03 -1.00657E+04  8.41084E+03 -1.21543E+03  1.59099E+03  5.50922E+03
 -5.95412E+03  1.57373E+03 -4.41682E+03 -5.24829E+03  5.40300E+02 -1.10280E+04  8.58502E+03 -1.10764E+04
  1.34890E+04 -5.26527E+03  1.34250E+04  2.74495E+03  1.14614E+04  1.01489E+04  5.62328E+03  1.58977E+04
 -1.91065E+03  1.73264E+04 -1.10642E+04  1.12305E+04 -1.21143E+04  2.93628E+03 -9.37035E+03 -2.25198E+03
 -4.51438E+03 -3.91634E+03 -6.92939E+02  1.58768E+03 -2.03991E+03  2.22018E+03 -3.89031E+03  3.68416E+03
 -8.69686E+03 -5.55084E+02 -9.62072E+03 -7.34364E+03 -3.70064E+03 -1.25488E+04  3.83264E+03 -9.11415E+03
  7.53389E+03 -3.96114E+03  5.77381E+03  2.16059E+03  6.78748E+02  3.50353E+03 -4.09819E+03  3.97744E+01
 -3.60107E+03 -5.38788E+03 -7.67794E+02 -7.97050E+03  4.56133E+03 -8.69312E+03  1.09557E+04 -4.52144E+03
  1.27709E+04  8.22976E+02  9.61147E+03  6.93564E+03  1.79333E+03  9.45752E+03 -5.66287E+03  8.87305E+03
 -7.31147E+03  3.03438E+03 -3.58543E+03 -1.32068E+03  1.44264E+03 -2.26763E+03  5.46201E+03 -1.00310E+03
  4.28494E+03  3.69752E+03  1.10095E+03  6.95052E+03 -4.76013E+03  6.86666E+03 -8.53099E+03  1.83263E+03
 -5.61493E+03 -3.87240E+03  3.14802E+02 -7.14135E+03  4.30131E+03 -3.31482E+03  3.91092E+03  1.33761E+03
  6.84114E+02  3.91854E+03 -4.45294E+03  5.35098E+03 -5.71814E+03  2.72290E+03 -5.12455E+03 -1.32611E+03
 -3.47506E+03 -6.96422E+03  1.42331E+03 -7.75979E+03  6.85444E+03 -5.05148E+03  7.15357E+03  1.20508E+03
  4.69722E+03  6.16258E+03  7.18056E+01  8.06165E+03 -5.19827E+03  4.62156E+03 -5.70326E+03 -6.16461E+02
 -6.38296E+03 -5.46013E+03 -1.59149E+03 -5.61516E+03  2.95901E+03 -4.81060E+03  3.15993E+03 -2.93674E+03
  3.29835E+03  4.23049E+02  1.17871E+02  1.24822E+03  6.41869E+02 -4.69732E+02  1.50604E+02 -2.25364E+03
  4.46090E+03 -1.09993E+03  5.88107E+03  6.86978E+02  6.36399E+03  3.45408E+03  5.68912E+03  8.14406E+03
 -1.48135E+03  9.64646E+03 -8.30545E+03  7.19223E+03 -1.10545E+04  1.46003E+03 -8.44112E+03 -2.88101E+03
 -4.60363E+03 -7.50754E+03 -3.22619E+02 -5.73822E+03  2.13767E+03 -2.27598E+03  1.99661E+03 -2.29843E+03
  1.50404E+03 -1.59845E+03  2.16808E+03 -2.48643E+03  3.60636E+03 -1.54826E+03  3.89078E+03  3.69411E+02
  4.75363E+03  1.07677E+03  1.13525E+03  4.00337E+03 -1.48761E+03  3.35766E+03 -4.61473E+03  2.95103E+03
 -5.27123E+03 -1.09804E+03 -2.17777E+03 -3.79893E+03  2.56475E+02 -5.53638E+03  3.50313E+03 -5.73854E+03
  5.74434E+03 -3.58807E+03  7.42285E+03  2.60642E+02  5.46392E+03  4.52771E+03  1.18428E+03  6.88839E+03
 -2.17083E+03  6.46579E+03 -3.81720E+03  2.36643E+03 -2.17365E+03 -1.13349E+03 -5.07329E+02 -3.29151E+02
 -4.04717E+02 -1.34797E+00 -9.91368E+02  1.85337E+03 -2.57824E+03  1.16832E+03 -4.17178E+03 -6.03213E+02
 -1.71673E+03 -4.59005E+03  4.30578E+02 -5.01985E+03  3.06758E+03 -4.59503E+03  4.40692E+03 -1.23696E+03
  4.55330E+03  2.69465E+03  1.98374E+03  3.60712E+03 -7.89081E+02  4.97564E+03 -2.99225E+03  3.15515E+03
 -4.32525E+03  7.45339E+02 -3.90582E+03 -2.68418E+03 -5.90140E+02 -3.34670E+03  1.81983E+03 -2.94196E+03
  2.92306E+03 -1.17547E+03  1.80957E+03  5.64392E+02  5.39351E+02  1.93162E+03  1.00059E+03  5.55649E+02
  1.59678E+03  7.15303E+02  1.22979E+03  1.02155E+03  1.23334E+03  2.43710E+03  1.46813E+03  2.07305E+03
 -1.29997E+03  3.46012E+03 -2.75031E+03  4.58807E+03 -3.39470E+03  1.33257E+03 -4.86126E+03 -4.12422E+02
 -1.85988E+03 -4.20398E+03  5.87098E+02 -5.02142E+03  1.92432E+03 -3.04351E+03  3.49727E+03 -1.01806E+03
  2.62844E+03  1.78189E+03  3.31539E+02  2.67427E+03 -7.05063E+02  1.45278E+03 -1.30196E+03 -4.86958E+02
 -6.61709E+02 -1.63672E+03  1.31540E+03 -1.80064E+03  1.51141E+03 -1.02345E+03  1.40279E+03  5.53042E+02
  9.24783E+02  4.51319E+02  9.71280E+02 -2.40320E+02 -1.31804E+02  4.92908E+02  1.60468E+03 -6.14611E+01
 -7.15792E+01 -2.52239E+02  1.63297E+03  5.75011E+02  3.68097E+02  2.42124E+03 -3.96158E+02  3.20021E+03
 -1.90199E+03  1.59657E+03 -1.95449E+03  3.06035E+02 -2.17768E+03 -3.81383E+02 -2.53043E+02 -9.01463E+02
  2.86793E+02 -1.29785E+03  9.85215E+02 -1.00018E+03  5.24849E+02  1.40550E+03 -8.24439E+02  1.30417E+03
 -1.91472E+03  9.05061E+02 -1.63324E+03 -1.54584E+03 -6.76022E+02 -2.35498E+03  3.16016E+02 -1.87994E+03
  5.13477E+02 -7.72636E+02  1.11818E+03  1.74257E+02  1.50984E+03 -1.87761E+00  2.35668E+01  1.30505E+03
 -4.28189E+02  2.17366E+02 -9.52349E+02 -4.23921E+02  7.26734E+02 -1.16617E+03  1.75954E+03 -1.15855E+03
  1.58435E+03  1.95551E+02  3.06669E+03  7.10935E+02  1.07410E+03  1.74609E+03 -3.33136E+02  1.83078E+03
 -1.44469E+03  3.38413E+02 -1.82332E+03 -2.88098E+02 -9.76335E+02 -1.50376E+03  5.61476E+02 -6.77713E+02
  1.38499E+03 -6.75175E+02  8.93547E+02  7.93817E+02  1.38950E+02  1.29308E+03  3.57556E+02  1.39374E+03
 -3.15743E+02  9.49236E+02 -5.89815E+02  2.59943E+02 -5.29259E+01  4.26007E+02 -7.56582E+02  5.29432E+02
 -8.27647E+02  1.36227E+03 -1.86056E+03  4.71388E+02 -1.81860E+03  1.82298E+02 -2.50229E+03 -1.05343E+03
 -1.00047E+03 -2.62059E+03  4.50702E+02 -3.25241E+03  1.37552E+03 -2.59865E+03  2.84759E+03 -9.52538E+02
  2.89570E+03 -2.83292E+01  1.41034E+03  1.40823E+03 -6.90356E+02  1.67824E+03 -1.10028E+03  1.20500E+03
 -8.76254E+02  8.20193E+02 -6.41623E+02 -2.00436E+02 -5.34792E+02  2.08700E+02 -4.19280E+02  9.01672E+01
 -8.79525E+02 -8.55702E+00 -9.34185E+02 -6.15915E+00  2.31862E+02 -6.84480E+02 -4.49403E+02 -1.06355E+03
  1.41166E+03 -8.77310E+02  4.66496E+02 -8.56252E+01  1.26310E+03  1.19241E+03 -4.01775E+02  1.56087E+03
 -9.48091E+02  2.24761E+03 -1.70764E+03  1.26231E+03 -1.65748E+03 -3.14016E+02 -1.17799E+03 -1.38869E+03
 -6.52745E+02 -1.38892E+03  6.06792E+01 -1.37904E+03  7.03292E+02 -8.40873E+02  6.06620E+02  2.51967E+02
  6.48917E+02  5.51744E+02 -5.13379E+01  4.32361E+02 -4.47801E+02  1.74698E+02 -5.21969E+01 -2.70911E+02
  6.62208E+02  1.06976E+02  1.88948E+02  5.72060E+02  3.63288E+02  4.29590E+02  5.53339E+02  2.93030E+02
 -5.18068E+02  5.25632E+02 -4.76989E+02  2.06332E+02 -9.51924E+02 -4.35265E+02  2.44611E+02 -1.22248E+03
  7.81739E+02 -9.22984E+02  5.45896E+02  1.05275E+02  9.01433E+02 -7.44263E+02  5.55778E+02  6.14348E+02
  3.25590E+02  5.52671E+02 -2.87679E+02  7.13527E+02 -5.97248E+02  5.89735E+02 -3.27306E+01  2.04504E+02
 -2.32090E+02  1.36906E+02 -3.34464E+02  7.70848E+01 -5.33358E+02  3.56567E+02 -8.47379E+02 -1.87958E+02
 -1.40204E+03  2.30756E+02 -2.40472E+02 -9.71944E+02  9.44464E+02 -1.66146E+03  8.95648E+02 -2.69995E+02
  6.33857E+02 -1.41427E+02 -3.48284E+02  2.12328E+02 -1.74597E+02  6.86972E+02 -4.24978E+02  9.23190E+02
