 $NMID ID='MM_0lb_SNR800_14hz_g55_17.RAW', FMTDAT='(8E13.5)'
 TRAMP=1., VOLUME=1. $END
  3.09801E+05  4.27429E+02  3.37805E+05  2.50748E+05  8.45972E+04  3.38116E+05 -1.32211E+05  2.51109E+05
 -1.90482E+05  8.36376E+04 -1.12181E+05 -3.27857E+04  7.94044E+02 -5.04203E+04  5.38882E+04 -1.27909E+02
  3.55433E+04  5.29160E+04 -1.67454E+04  7.54940E+04 -6.08585E+04  6.36825E+04 -8.45782E+04  3.19893E+04
 -8.10903E+04 -1.13363E+04 -5.72521E+04 -5.12412E+04 -1.50021E+04 -6.99379E+04  2.77846E+04 -4.59007E+04
  4.01881E+04  3.71409E+03  1.63829E+04  4.79642E+04 -3.45154E+04  4.74135E+04 -6.67217E+04 -2.74143E+02
 -5.40750E+04 -5.70980E+04 -6.89356E+03 -7.72429E+04  3.39286E+04 -5.55588E+04  4.85343E+04 -1.77756E+04
  4.41227E+04  1.15118E+04  3.21626E+04  2.58045E+04  1.58899E+04  2.92567E+04 -5.30984E+03  2.70541E+04
 -2.20515E+04  1.24205E+04 -1.84972E+04 -4.92764E+03  5.63300E+03 -7.55568E+03  2.24672E+04  1.24657E+04
  7.06234E+03  3.56102E+04 -3.26534E+04  3.56042E+04 -6.39672E+04  2.06437E+03 -5.72629E+04 -4.30424E+04
 -1.23384E+04 -6.38327E+04  4.00133E+04 -4.57061E+04  5.87100E+04 -2.56106E+03  3.48890E+04  3.28283E+04
 -6.06371E+03  3.66671E+04 -3.04668E+04  1.63689E+04 -3.13124E+04 -4.27445E+03 -1.72455E+04 -1.12844E+04
 -8.59803E+03 -1.37773E+04 -6.53603E+02 -1.84235E+04  7.90529E+03 -2.30117E+04  1.56773E+04 -1.35221E+04
  1.12909E+04  5.47928E+03 -8.45842E+03  1.30419E+04 -2.17961E+04 -4.97130E+03 -8.29848E+03 -3.43018E+04
  2.32254E+04 -4.43405E+04  4.87128E+04 -1.99343E+04  4.57024E+04  1.98601E+04  1.59155E+04  4.48906E+04
 -1.60463E+04  3.37993E+04 -2.57964E+04  1.86735E+03 -1.01875E+04 -2.80611E+04  2.12150E+04 -3.46109E+04
  4.15858E+04 -9.50603E+03  3.66503E+04  2.42083E+04  1.87539E+04  4.72877E+04 -8.10193E+03  5.14430E+04
 -3.22653E+04  3.46441E+04 -4.27270E+04  9.92906E+03 -4.35339E+04 -1.69810E+04 -2.34239E+04 -3.87054E+04
  7.61141E+03 -3.84004E+04  3.18610E+04 -1.51384E+04  2.99075E+04  1.08663E+04  4.39532E+03  1.96549E+04
 -1.38727E+04  8.65890E+03 -1.01116E+04 -7.64465E+03  6.03661E+03 -1.08313E+04  1.82697E+04  5.73312E+03
  1.37616E+04  2.22096E+04 -6.05014E+03  2.55645E+04 -2.24363E+04  1.15836E+04 -2.84932E+04 -4.44630E+03
 -2.14768E+04 -1.77030E+04 -8.94026E+03 -2.11213E+04  4.09473E+03 -2.07499E+04  1.63211E+04 -1.88108E+04
  2.70488E+04 -1.29466E+04  3.35586E+04  3.26342E+03  2.45686E+04  2.09466E+04  4.06433E+03  3.68653E+04
 -1.79097E+04  3.10391E+04 -2.82337E+04  1.09249E+04 -2.11855E+04 -1.02527E+04 -4.46395E+03 -1.34719E+04
  1.52927E+03 -2.71232E+03 -5.28637E+03  6.85699E+03 -1.66294E+04  5.01962E+03 -1.67893E+04 -7.32470E+03
 -1.03833E+04 -1.93437E+04  5.09292E+03 -2.40714E+04  1.58939E+04 -1.70219E+04  1.87158E+04 -1.43235E+03
  1.18302E+04  1.35533E+04 -1.22127E+03  1.96236E+04 -1.34303E+04  1.13174E+04 -1.98167E+04 -4.27067E+03
 -1.42016E+04 -1.77146E+04 -1.91409E+03 -2.34246E+04  1.08149E+04 -1.94107E+04  1.95148E+04 -9.38221E+03
  1.84133E+04 -4.81814E+00  1.30076E+04  4.39493E+03  6.94497E+03  1.08409E+03  9.88261E+03 -1.61822E+03
  1.79548E+04  2.60501E+03  2.02562E+04  1.57917E+04  1.32829E+04  3.13283E+04 -2.75808E+03  3.51500E+04
 -2.04326E+04  2.88141E+04 -3.33237E+04  1.46127E+04 -3.49242E+04 -2.13477E+03 -2.88991E+04 -2.01990E+04
 -1.23953E+04 -2.87656E+04  1.01296E+04 -2.58948E+04  2.23246E+04 -1.29167E+04  1.96704E+04  5.51211E+03
  7.32143E+03  1.49320E+04 -9.47143E+03  1.31649E+04 -1.66525E+04  2.64816E+03 -1.26380E+04 -1.03117E+04
 -3.58030E+02 -1.59779E+04  8.45643E+03 -1.20811E+04  1.08561E+04 -1.56420E+03  2.17469E+03  6.73403E+03
 -7.00573E+03  2.34251E+03 -6.19687E+03 -6.00013E+03 -6.25563E+02 -1.41969E+04  1.00123E+04 -1.50732E+04
  1.72754E+04 -7.97046E+03  1.88946E+04  3.07241E+03  1.64315E+04  1.40959E+04  7.69403E+03  2.12866E+04
 -3.57560E+03  2.29521E+04 -1.45089E+04  1.43663E+04 -1.66807E+04  3.31309E+03 -1.17570E+04 -3.85086E+03
 -5.39227E+03 -5.14527E+03 -8.89485E+02  1.14575E+03 -2.53108E+03  2.62024E+03 -5.42676E+03  4.20623E+03
 -1.07055E+04 -8.69740E+02 -1.15698E+04 -9.34521E+03 -4.73061E+03 -1.50036E+04  4.80268E+03 -1.20760E+04
  1.01117E+04 -4.96281E+03  7.41596E+03  3.22294E+03  2.92266E+02  4.42211E+03 -4.92385E+03 -3.25395E+01
 -5.34789E+03 -7.63479E+03 -1.03552E+03 -1.09930E+04  6.32290E+03 -1.18891E+04  1.42973E+04 -6.41727E+03
  1.70346E+04  1.42330E+03  1.26049E+04  1.01006E+04  2.68537E+03  1.34363E+04 -7.01503E+03  1.14946E+04
 -9.38411E+03  3.31370E+03 -4.80790E+03 -2.08794E+03  1.66158E+03 -3.16281E+03  6.29230E+03 -8.54619E+02
  5.60287E+03  4.98587E+03  1.25961E+03  8.97583E+03 -6.72744E+03  9.20768E+03 -1.12453E+04  2.11976E+03
 -7.26077E+03 -5.84515E+03  4.54704E+02 -9.48443E+03  5.93262E+03 -4.90372E+03  6.10169E+03  2.19904E+03
  1.36392E+03  6.25087E+03 -5.89483E+03  7.34964E+03 -8.75062E+03  3.39417E+03 -8.41653E+03 -2.85210E+03
 -5.28568E+03 -1.01782E+04  2.19475E+03 -1.20786E+04  1.02079E+04 -7.41919E+03  1.07787E+04  1.84334E+03
  7.11897E+03  8.74730E+03 -4.75982E+02  1.08824E+04 -8.23727E+03  6.13762E+03 -8.31307E+03 -7.94299E+02
 -8.03455E+03 -7.47049E+03 -1.49251E+03 -8.02532E+03  4.44311E+03 -6.51379E+03  5.20291E+03 -3.10513E+03
  3.66610E+03  7.66358E+02 -9.01487E+02  1.84783E+03  8.75891E+01 -1.26424E+03  1.47515E+03 -4.48576E+03
  7.25404E+03 -2.48347E+03  9.96831E+03  1.04348E+03  9.59810E+03  6.65482E+03  7.29101E+03  1.27379E+04
 -2.71923E+03  1.50003E+04 -1.28302E+04  1.12188E+04 -1.66982E+04  1.72093E+03 -1.30384E+04 -5.49850E+03
 -6.64532E+03 -1.08503E+04 -2.84937E+02 -9.07736E+03  3.13036E+03 -4.76895E+03  3.29754E+03 -3.54211E+03
  2.24367E+03 -1.97532E+03  2.97081E+03 -2.88623E+03  4.48925E+03 -2.32816E+03  5.46765E+03 -3.18970E+02
  7.06608E+03  1.87213E+03  2.80104E+03  5.96064E+03 -1.97590E+03  6.36850E+03 -7.54554E+03  5.12749E+03
 -8.71114E+03 -1.36398E+03 -4.78310E+03 -6.26731E+03 -4.14741E+02 -9.06216E+03  5.23913E+03 -9.43069E+03
  9.58123E+03 -5.32780E+03  1.15289E+04  1.27286E+03  7.91420E+03  7.90039E+03  1.20402E+03  1.07441E+04
 -4.35096E+03  9.27534E+03 -6.25306E+03  3.20825E+03 -3.82006E+03 -1.30180E+03 -1.28377E+03 -1.43201E+03
 -7.62406E+02  3.12660E+02 -1.48605E+03  2.24867E+03 -3.84341E+03  1.59473E+03 -6.54203E+03 -1.17194E+03
 -3.68541E+03 -6.15423E+03  6.34601E+02 -8.49512E+03  5.24803E+03 -8.02450E+03  7.92991E+03 -2.30552E+03
  7.94883E+03  4.31560E+03  3.87899E+03  7.17802E+03 -1.74522E+03  8.62927E+03 -5.79060E+03  5.32026E+03
 -7.74524E+03  6.16933E+02 -6.18354E+03 -4.99287E+03 -6.63499E+02 -6.72907E+03  3.53288E+03 -5.11097E+03
  5.24548E+03 -1.92283E+03  3.74090E+03  1.15423E+03  1.27334E+03  2.88397E+03  8.09139E+02  9.44749E+02
  2.14677E+03  9.66339E+02  2.27204E+03  1.31141E+03  2.41421E+03  3.41447E+03  2.53157E+03  3.93269E+03
 -1.90425E+03  6.24262E+03 -5.32142E+03  6.81718E+03 -7.54255E+03  1.94344E+03 -8.07579E+03 -2.42307E+03
 -3.73339E+03 -7.83019E+03  1.37543E+03 -8.74542E+03  4.56171E+03 -5.34641E+03  6.39657E+03 -1.36723E+03
  4.84414E+03  3.20587E+03  9.60527E+02  4.68048E+03 -1.90990E+03  2.97676E+03 -3.03098E+03 -1.51314E+02
 -1.54334E+03 -3.35667E+03  1.68091E+03 -3.10520E+03  3.26172E+03 -1.90981E+03  3.18990E+03  6.38536E+02
  1.50464E+03  1.06758E+03  9.81545E+02  6.09794E+02 -3.75259E+02  1.20890E+03  1.73566E+03 -4.11337E+02
  6.10051E+02 -4.43163E+02  3.32342E+03  1.41137E+03  1.51299E+03  4.37003E+03 -6.93109E+02  5.15078E+03
 -3.66686E+03  2.87376E+03 -4.47827E+03  9.04884E+02 -4.07537E+03 -1.54304E+03 -9.50867E+02 -2.43883E+03
  6.04881E+02 -3.36443E+03  1.91588E+03 -1.54325E+03  1.65368E+03  1.75434E+03 -1.05698E+03  2.49275E+03
 -3.16390E+03  1.31883E+03 -3.54395E+03 -2.21942E+03 -1.92805E+03 -3.96916E+03  6.64910E+02 -3.39657E+03
  2.09455E+03 -2.06124E+03  2.68963E+03  3.30403E+01  2.65190E+03  5.42638E+02  3.52958E+02  2.14203E+03
 -1.35640E+03  4.24862E+02 -2.11507E+03 -8.87699E+02  9.54580E+02 -2.71332E+03  3.71528E+03 -2.31522E+03
  3.93072E+03  4.84475E+02  4.76987E+03  2.69696E+03  1.47906E+03  4.14923E+03 -1.28399E+03  4.42647E+03
 -3.37995E+03  1.65737E+03 -3.66613E+03 -6.33538E+02 -1.94858E+03 -3.13162E+03  7.63091E+02 -1.93513E+03
  2.94510E+03 -1.46544E+03  2.21724E+03  1.39500E+03  9.22059E+02  2.91755E+03 -3.18813E+02  2.11166E+03
 -9.22461E+02  1.91908E+03 -1.25496E+03  5.86807E+02 -5.21021E+02  7.39103E+02 -1.22671E+03  7.83382E+02
 -1.07552E+03  1.88366E+03 -3.31638E+03  1.23172E+03 -4.50243E+03  4.94828E+02 -5.00813E+03 -2.56947E+03
 -2.77574E+03 -5.74779E+03  1.16336E+03 -6.38564E+03  3.49372E+03 -5.30801E+03  6.16332E+03 -2.19598E+03
  5.60230E+03  4.35374E+02  3.16543E+03  3.53776E+03 -5.25256E+01  4.11673E+03 -1.69929E+03  3.03294E+03
 -2.45406E+03  1.20745E+03 -1.60678E+03 -3.61894E+02 -5.83331E+02 -1.30676E+02 -5.43170E+02 -3.37131E+00
 -1.32075E+03  2.45393E+02 -1.00367E+03  1.50968E+02 -2.06032E+02 -1.02480E+03 -2.14068E+02 -1.64785E+03
  2.14265E+03 -1.19002E+03  1.78487E+03 -2.91957E+01  2.52176E+03  2.51582E+03  2.15090E+02  3.99446E+03
 -2.11699E+03  4.98170E+03 -4.50110E+03  2.64978E+03 -4.93291E+03 -5.28900E+02 -3.49731E+03 -2.84264E+03
 -1.65322E+03 -3.93454E+03  6.86577E+02 -3.05465E+03  2.74769E+03 -1.83380E+03  2.68138E+03  1.33400E+02
  1.48835E+03  1.17091E+03 -1.26326E+02  1.07834E+03 -6.48637E+02 -6.25404E+01  2.64677E+02 -8.75443E+02
  9.09139E+02 -2.76437E+02  1.46643E+03  6.63425E+02  6.18677E+02  1.39640E+03  1.84518E+02  1.55512E+03
 -1.84699E+03  1.66427E+03 -1.99372E+03  7.07864E+01 -2.17384E+03 -1.99865E+03 -4.50226E+02 -3.03792E+03
  1.98210E+03 -2.17449E+03  2.32439E+03 -7.52890E+02  2.88342E+03  1.87956E+02  1.65754E+03  2.31084E+03
  1.87830E+02  1.64908E+03 -1.01854E+03  2.28980E+03 -1.73433E+03  1.12818E+03 -1.32129E+03  5.44784E+02
 -4.29441E+02 -2.43535E+02 -8.18563E+02  4.83310E+02 -1.23727E+03  5.25970E+02 -1.82685E+03 -5.94077E+02
 -2.12302E+03 -7.58376E+02 -8.30319E+02 -2.66620E+03  1.04840E+03 -2.97251E+03  2.03986E+03 -9.98575E+02
  2.26944E+03  4.21041E+02  4.68724E+02  1.42231E+03 -1.17143E+02  2.23005E+03 -1.65886E+03  1.70457E+03
