 $NMID ID='MM_0lb_SNR800_10hz_g60_79.RAW', FMTDAT='(8E13.5)'
 TRAMP=1., VOLUME=1. $END
  3.09659E+05  6.44970E+02  3.38042E+05  2.50969E+05  8.52745E+04  3.38730E+05 -1.32663E+05  2.52019E+05
 -1.90818E+05  8.35936E+04 -1.12886E+05 -3.21859E+04  3.16866E+02 -5.06532E+04  5.37903E+04 -8.29746E+02
  3.54217E+04  5.27455E+04 -1.65553E+04  7.61459E+04 -6.15223E+04  6.45961E+04 -8.56003E+04  3.25354E+04
 -8.24933E+04 -1.17827E+04 -5.84121E+04 -5.20119E+04 -1.50182E+04 -7.14051E+04  2.81762E+04 -4.70302E+04
  4.14491E+04  3.59336E+03  1.68384E+04  4.86186E+04 -3.45849E+04  4.82221E+04 -6.81115E+04  2.04589E+02
 -5.48315E+04 -5.79262E+04 -7.02917E+03 -7.89111E+04  3.46642E+04 -5.66845E+04  5.00354E+04 -1.85866E+04
  4.53801E+04  1.14177E+04  3.30498E+04  2.66044E+04  1.59458E+04  3.04552E+04 -5.84194E+03  2.79828E+04
 -2.20936E+04  1.19100E+04 -1.79485E+04 -5.65619E+03  7.23284E+03 -7.61421E+03  2.33233E+04  1.39100E+04
  6.65909E+03  3.76653E+04 -3.39973E+04  3.74220E+04 -6.60020E+04  1.92272E+03 -5.90663E+04 -4.46870E+04
 -1.27018E+04 -6.59775E+04  4.16356E+04 -4.77448E+04  6.13687E+04 -2.75324E+03  3.70730E+04  3.44848E+04
 -5.45937E+03  3.96506E+04 -3.18545E+04  1.86448E+04 -3.36916E+04 -3.67962E+03 -1.99402E+04 -1.19883E+04
 -9.34391E+03 -1.53076E+04 -5.82253E+02 -1.97300E+04  8.17062E+03 -2.34435E+04  1.62674E+04 -1.27110E+04
  1.02445E+04  6.16123E+03 -1.09308E+04  1.29359E+04 -2.38023E+04 -6.84575E+03 -8.63610E+03 -3.79051E+04
  2.50907E+04 -4.71888E+04  5.24286E+04 -2.13697E+04  4.89240E+04  2.08493E+04  1.73485E+04  4.73627E+04
 -1.62667E+04  3.63940E+04 -2.74497E+04  2.90331E+03 -1.13745E+04 -2.94248E+04  2.12268E+04 -3.67551E+04
  4.51485E+04 -1.11322E+04  4.02920E+04  2.47123E+04  2.19513E+04  5.11702E+04 -8.99874E+03  5.66436E+04
 -3.56044E+04  3.86128E+04 -4.76744E+04  1.11035E+04 -4.78699E+04 -1.84767E+04 -2.62500E+04 -4.23186E+04
  7.79429E+03 -4.19622E+04  3.44691E+04 -1.70479E+04  3.20377E+04  1.09782E+04  5.20736E+03  2.10965E+04
 -1.39913E+04  9.70299E+03 -1.13897E+04 -7.88914E+03  5.64173E+03 -1.14392E+04  1.86171E+04  5.47271E+03
  1.50446E+04  2.25293E+04 -4.99637E+03  2.64967E+04 -2.35945E+04  1.44672E+04 -3.19823E+04 -2.71984E+03
 -2.54682E+04 -1.85405E+04 -1.20854E+04 -2.52723E+04  4.72940E+03 -2.57604E+04  2.00568E+04 -2.33161E+04
  3.25535E+04 -1.44476E+04  3.80338E+04  5.35614E+03  2.71174E+04  2.41225E+04  4.54506E+03  4.14422E+04
 -2.00598E+04  3.39637E+04 -3.09648E+04  1.18459E+04 -2.27045E+04 -9.88431E+03 -4.75738E+03 -1.23255E+04
  9.53076E+02 -9.54638E+02 -7.70064E+03  8.68265E+03 -2.02146E+04  5.11622E+03 -2.04630E+04 -9.70280E+03
 -1.20093E+04 -2.31988E+04  6.00857E+03 -2.81321E+04  1.89029E+04 -1.98258E+04  2.27559E+04 -1.74156E+03
  1.46863E+04  1.64010E+04 -1.16376E+03  2.35072E+04 -1.67835E+04  1.38468E+04 -2.37156E+04 -4.91802E+03
 -1.70769E+04 -2.13603E+04 -2.23848E+03 -2.80104E+04  1.28596E+04 -2.33355E+04  2.34174E+04 -1.20398E+04
  2.17355E+04 -2.41863E+02  1.57453E+04  5.12513E+03  8.65727E+03  1.38379E+03  1.19913E+04 -1.85293E+03
  2.26006E+04  3.06175E+03  2.58431E+04  1.85875E+04  1.75591E+04  3.75266E+04 -2.69965E+03  4.39575E+04
 -2.56536E+04  3.71758E+04 -4.21105E+04  1.91568E+04 -4.47961E+04 -3.01637E+03 -3.63635E+04 -2.65347E+04
 -1.41477E+04 -3.72700E+04  1.34356E+04 -3.27215E+04  2.78027E+04 -1.55337E+04  2.40154E+04  7.72731E+03
  8.31613E+03  1.84403E+04 -1.19683E+04  1.57463E+04 -2.03763E+04  2.54197E+03 -1.53807E+04 -1.30146E+04
 -2.71102E+02 -1.93637E+04  1.08811E+04 -1.44530E+04  1.36121E+04 -1.28234E+03  3.93437E+03  8.98752E+03
 -8.73531E+03  4.11319E+03 -9.21506E+03 -7.05060E+03 -1.79494E+03 -1.81169E+04  1.18944E+04 -1.98729E+04
  2.29935E+04 -1.11322E+04  2.64763E+04  3.09400E+03  2.26417E+04  1.82459E+04  1.03064E+04  2.88293E+04
 -5.56550E+03  3.11257E+04 -2.02753E+04  1.91483E+04 -2.30337E+04  3.96175E+03 -1.54989E+04 -5.87066E+03
 -6.37263E+03 -7.23510E+03 -3.57077E+02  2.62643E+02 -2.97827E+03  3.50960E+03 -7.13080E+03  5.64400E+03
 -1.43326E+04 -1.00340E+03 -1.49748E+04 -1.20529E+04 -5.79776E+03 -1.91918E+04  6.27910E+03 -1.55425E+04
  1.27402E+04 -6.69465E+03  8.71209E+03  4.24144E+03 -3.72162E+02  6.15031E+03 -7.66646E+03 -9.37002E+01
 -8.00536E+03 -1.00558E+04 -1.05411E+03 -1.54236E+04  9.01363E+03 -1.63647E+04  1.98027E+04 -8.80868E+03
  2.34591E+04  2.14130E+03  1.67484E+04  1.43045E+04  3.28170E+03  1.91202E+04 -9.40075E+03  1.51013E+04
 -1.27634E+04  4.55742E+03 -6.84717E+03 -3.54770E+03  2.12653E+03 -4.26594E+03  8.07189E+03 -9.25502E+02
  7.28681E+03  7.16629E+03  1.38027E+03  1.28189E+04 -9.45379E+03  1.19324E+04 -1.55581E+04  3.05615E+03
 -1.03000E+04 -8.42996E+03  1.81284E+02 -1.33528E+04  9.00203E+03 -6.93035E+03  9.25243E+03  3.23864E+03
  2.30658E+03  9.94178E+03 -8.29386E+03  1.17689E+04 -1.34679E+04  5.37942E+03 -1.35877E+04 -5.25161E+03
 -7.93852E+03 -1.55625E+04  4.18948E+03 -1.79681E+04  1.52549E+04 -1.07388E+04  1.65834E+04  3.12786E+03
  9.87708E+03  1.30591E+04 -1.78785E+03  1.58046E+04 -1.15855E+04  8.85716E+03 -1.25552E+04 -1.36394E+03
 -1.05923E+04 -1.01547E+04 -1.62021E+03 -1.21749E+04  6.32415E+03 -9.46105E+03  7.65606E+03 -3.71529E+03
  5.05837E+03  2.06992E+03 -1.36267E+03  2.11670E+03 -5.02042E+02 -3.16186E+03  2.25480E+03 -6.92103E+03
  1.16023E+04 -4.31240E+03  1.58857E+04  1.63664E+03  1.56136E+04  1.07811E+04  9.75009E+03  2.03494E+04
 -4.76221E+03  2.34008E+04 -1.98802E+04  1.68317E+04 -2.52330E+04  3.80660E+03 -1.99001E+04 -8.95849E+03
 -1.02154E+04 -1.69016E+04 -2.01332E+02 -1.46560E+04  5.54536E+03 -7.87501E+03  5.39133E+03 -5.27446E+03
  3.63936E+03 -2.85083E+03  3.76320E+03 -3.95553E+03  5.83889E+03 -3.41500E+03  7.66119E+03 -1.30111E+03
  1.07748E+04  1.81164E+03  5.84218E+03  9.12380E+03 -2.28019E+03  1.10041E+04 -1.11842E+04  8.18447E+03
 -1.43624E+04 -1.35049E+03 -9.32785E+03 -9.96273E+03 -1.36860E+03 -1.55325E+04  8.55331E+03 -1.55826E+04
  1.59938E+04 -8.60461E+03  1.86978E+04  2.78460E+03  1.31322E+04  1.33864E+04  2.18473E+03  1.71755E+04
 -6.90407E+03  1.39834E+04 -1.02793E+04  4.79220E+03 -7.09896E+03 -1.71752E+03 -2.60070E+03 -2.03538E+03
 -1.42260E+03 -4.16971E+01 -2.74530E+03  2.95119E+03 -6.30223E+03  2.51441E+03 -1.00538E+04 -1.42784E+03
 -7.39740E+03 -9.90887E+03 -8.46712E+01 -1.39988E+04  8.64164E+03 -1.32757E+04  1.40162E+04 -4.20650E+03
  1.38331E+04  6.71077E+03  6.90593E+03  1.26236E+04 -2.56511E+03  1.48515E+04 -1.03091E+04  8.93951E+03
 -1.32629E+04  4.15089E+02 -1.03968E+04 -8.41499E+03 -1.23490E+03 -1.14207E+04  6.37011E+03 -8.96404E+03
  9.40059E+03 -2.53615E+03  6.31349E+03  1.94316E+03  2.40857E+03  4.09308E+03  1.38642E+03  1.44443E+03
  2.37125E+03  7.86290E+02  3.48827E+03  2.16207E+03  4.04312E+03  5.18554E+03  3.75631E+03  7.44697E+03
 -2.91989E+03  1.13508E+04 -1.02171E+04  1.10736E+04 -1.45985E+04  2.81302E+03 -1.47348E+04 -6.22583E+03
 -7.42771E+03 -1.42528E+04  2.12343E+03 -1.58572E+04  8.65053E+03 -1.03135E+04  1.18531E+04 -2.89866E+03
  9.13276E+03  5.51795E+03  2.36342E+03  8.70496E+03 -4.16886E+03  5.17582E+03 -5.84782E+03 -7.56713E+02
 -2.95253E+03 -6.45929E+03  3.14472E+03 -6.64150E+03  5.91000E+03 -2.83275E+03  5.81941E+03  1.54681E+03
  3.49003E+03  2.94508E+03  1.55201E+03  2.64647E+03 -6.10680E+02  1.65776E+03  1.50128E+03 -3.73121E+02
  2.26174E+03 -6.66205E+02  6.19353E+03  2.56130E+03  3.57885E+03  7.51148E+03 -1.37834E+03  1.00437E+04
 -6.62326E+03  6.64873E+03 -9.40396E+03  1.91568E+03 -7.53237E+03 -3.13922E+03 -3.29292E+03 -5.47347E+03
  9.00870E+02 -5.70401E+03  3.64429E+03 -2.62694E+03  3.09758E+03  2.63568E+03 -1.46111E+03  4.83327E+03
 -6.05187E+03  2.89433E+03 -6.67331E+03 -3.47824E+03 -3.74504E+03 -7.56685E+03  1.08866E+03 -7.78135E+03
  4.40080E+03 -4.61816E+03  5.88566E+03 -7.55826E+02  4.81622E+03  2.18491E+03  4.73355E+02  4.17713E+03
 -2.35285E+03  1.37668E+03 -3.95887E+03 -2.78461E+03  1.34434E+03 -5.89077E+03  7.15100E+03 -5.04012E+03
  8.85347E+03  8.45177E+02  8.63882E+03  5.74399E+03  3.20683E+03  9.45126E+03 -3.34594E+03  8.98324E+03
 -7.86725E+03  3.71451E+03 -7.72000E+03 -1.21037E+03 -4.71173E+03 -6.26877E+03  1.05681E+03 -6.06134E+03
  6.01583E+03 -2.64016E+03  5.05441E+03  2.40536E+03  1.76707E+03  4.98421E+03 -5.69116E+02  4.47138E+03
 -2.55070E+03  2.77395E+03 -2.17368E+03  8.76057E+02 -9.95733E+02  9.74249E+02 -1.45044E+03  2.04920E+03
 -2.74412E+03  3.29737E+03 -6.43678E+03  3.22809E+03 -9.11877E+03 -9.20475E+01 -1.06031E+04 -6.23893E+03
 -5.58438E+03 -1.20363E+04  2.48013E+03 -1.42817E+04  8.58437E+03 -1.12170E+04  1.30979E+04 -3.84167E+03
  1.24947E+04  2.25709E+03  7.61845E+03  8.57402E+03  3.37567E+02  9.63080E+03 -4.02212E+03  7.13953E+03
 -5.36543E+03  2.72426E+03 -3.39493E+03 -1.03617E+03 -1.39798E+03 -7.45444E+02 -5.15404E+02  7.07745E+01
 -1.67217E+03  2.48892E+02 -2.13231E+03  7.79695E+01 -5.50927E+02 -2.00061E+03 -1.06832E+02 -3.60310E+03
  4.14870E+03 -3.08534E+03  5.74198E+03  5.05039E+02  6.67905E+03  5.04559E+03  2.22266E+03  9.33455E+03
 -4.69321E+03  1.07993E+04 -9.85497E+03  6.02725E+03 -1.15847E+04 -1.07645E+03 -8.38826E+03 -7.03879E+03
 -3.88303E+03 -9.52571E+03  2.37932E+03 -8.85926E+03  6.07714E+03 -4.56472E+03  6.39445E+03 -7.68806E+01
  3.64370E+03  2.90145E+03 -2.27964E+02  2.36749E+03 -1.90148E+03 -3.34927E+02  2.60070E+02 -2.17188E+03
  2.98045E+03 -1.23002E+03  3.42933E+03  1.30065E+03  2.42218E+03  3.72483E+03 -2.64413E+02  4.57863E+03
 -3.91812E+03  4.19295E+03 -5.89127E+03  4.89873E+02 -5.61165E+03 -4.66025E+03 -6.87043E+02 -7.54853E+03
  4.53228E+03 -6.32091E+03  7.04717E+03 -2.30961E+03  7.42072E+03  1.19769E+03  4.42885E+03  6.12332E+03
  9.37436E+02  6.42462E+03 -2.35687E+03  4.83357E+03 -4.10711E+03  3.12529E+03 -2.91181E+03  7.00408E+02
 -1.45362E+03 -3.76103E+02 -1.82209E+03  9.00593E+02 -3.34541E+03  8.92260E+02 -4.61186E+03 -1.29968E+03
 -4.73612E+03 -2.98277E+03 -1.31955E+03 -6.20548E+03  3.25172E+03 -6.78668E+03  5.51869E+03 -2.99485E+03
  6.30914E+03  5.97156E+02  3.49553E+03  4.27786E+03 -3.22186E+02  5.81550E+03 -4.21331E+03  3.92940E+03
