 $NMID ID='MM_0lb_SNR800_10hz_g50_10.RAW', FMTDAT='(8E13.5)'
 TRAMP=1., VOLUME=1. $END
  3.09862E+05  1.91321E+02  3.37529E+05  2.50667E+05  8.50866E+04  3.38302E+05 -1.32847E+05  2.51820E+05
 -1.90805E+05  8.36438E+04 -1.12269E+05 -3.24623E+04  4.10938E+02 -5.07529E+04  5.36674E+04 -2.33988E+02
  3.56845E+04  5.29799E+04 -1.64813E+04  7.58093E+04 -6.09027E+04  6.40055E+04 -8.51758E+04  3.23882E+04
 -8.22854E+04 -1.16569E+04 -5.85503E+04 -5.21644E+04 -1.55908E+04 -7.11065E+04  2.80055E+04 -4.65667E+04
  4.07207E+04  2.97496E+03  1.65434E+04  4.86924E+04 -3.46580E+04  4.83721E+04 -6.73866E+04 -3.38232E+02
 -5.43473E+04 -5.74198E+04 -7.20697E+03 -7.86073E+04  3.45492E+04 -5.63347E+04  4.91759E+04 -1.80112E+04
  4.48296E+04  1.13000E+04  3.34116E+04  2.63139E+04  1.59120E+04  3.06094E+04 -5.94745E+03  2.74685E+04
 -2.26775E+04  1.19958E+04 -1.82578E+04 -5.70830E+03  6.69260E+03 -7.65813E+03  2.35298E+04  1.32917E+04
  7.41116E+03  3.69284E+04 -3.33079E+04  3.69676E+04 -6.49491E+04  1.98378E+03 -5.83148E+04 -4.40264E+04
 -1.24582E+04 -6.55128E+04  4.12626E+04 -4.67347E+04  6.03892E+04 -2.31304E+03  3.62653E+04  3.39347E+04
 -5.81732E+03  3.90366E+04 -3.14999E+04  1.82351E+04 -3.30169E+04 -3.57823E+03 -1.86316E+04 -1.18784E+04
 -8.94461E+03 -1.43813E+04 -8.77803E+02 -1.93865E+04  8.35583E+03 -2.32878E+04  1.58721E+04 -1.31337E+04
  1.05948E+04  5.82901E+03 -1.01191E+04  1.31601E+04 -2.29963E+04 -6.04001E+03 -8.84946E+03 -3.66650E+04
  2.45060E+04 -4.58158E+04  5.11534E+04 -2.06308E+04  4.77690E+04  2.04354E+04  1.72579E+04  4.62498E+04
 -1.66389E+04  3.54876E+04 -2.73546E+04  2.59237E+03 -1.12657E+04 -2.92315E+04  2.15162E+04 -3.63516E+04
  4.38740E+04 -1.09917E+04  3.93687E+04  2.48700E+04  2.04181E+04  5.00719E+04 -8.33280E+03  5.49239E+04
 -3.44215E+04  3.75025E+04 -4.65791E+04  1.04773E+04 -4.67198E+04 -1.83031E+04 -2.57289E+04 -4.15619E+04
  8.08584E+03 -4.11168E+04  3.40356E+04 -1.68523E+04  3.14575E+04  1.15430E+04  5.13253E+03  2.03544E+04
 -1.37601E+04  9.69290E+03 -1.10048E+04 -7.59107E+03  5.12543E+03 -1.13318E+04  1.86711E+04  5.75348E+03
  1.47487E+04  2.29857E+04 -5.14877E+03  2.67441E+04 -2.33043E+04  1.39146E+04 -3.06702E+04 -3.13817E+03
 -2.46007E+04 -1.85685E+04 -1.06892E+04 -2.41599E+04  4.14064E+03 -2.44809E+04  1.91017E+04 -2.19107E+04
  3.10352E+04 -1.36493E+04  3.68159E+04  4.60047E+03  2.64979E+04  2.30924E+04  4.42681E+03  3.99542E+04
 -1.97328E+04  3.31729E+04 -2.98676E+04  1.15748E+04 -2.20429E+04 -1.03955E+04 -4.65795E+03 -1.31060E+04
  8.63005E+02 -1.69825E+03 -7.10160E+03  7.75479E+03 -1.92142E+04  5.21309E+03 -1.92143E+04 -9.24081E+03
 -1.14343E+04 -2.24128E+04  5.78223E+03 -2.67958E+04  1.81706E+04 -1.92575E+04  2.21591E+04 -1.81444E+03
  1.39166E+04  1.51417E+04 -1.05205E+03  2.24183E+04 -1.60916E+04  1.29765E+04 -2.28665E+04 -4.92195E+03
 -1.64563E+04 -1.99845E+04 -2.39765E+03 -2.68837E+04  1.22906E+04 -2.22300E+04  2.22917E+04 -1.19179E+04
  2.12673E+04 -3.12491E+02  1.53536E+04  5.06469E+03  8.25038E+03  1.18493E+03  1.13569E+04 -1.34163E+03
  2.16704E+04  2.36581E+03  2.43931E+04  1.75401E+04  1.60864E+04  3.64295E+04 -2.86566E+03  4.23537E+04
 -2.38348E+04  3.51277E+04 -3.94866E+04  1.82966E+04 -4.23623E+04 -2.82078E+03 -3.42487E+04 -2.45502E+04
 -1.36612E+04 -3.49580E+04  1.24284E+04 -3.03844E+04  2.64876E+04 -1.46868E+04  2.31774E+04  7.77913E+03
  8.04628E+03  1.74340E+04 -1.16058E+04  1.48685E+04 -1.92902E+04  2.53721E+03 -1.42206E+04 -1.21133E+04
 -1.20797E+02 -1.85669E+04  9.42921E+03 -1.35778E+04  1.26826E+04 -1.37907E+03  3.38654E+03  8.36661E+03
 -8.51109E+03  3.74175E+03 -8.45109E+03 -6.91456E+03 -1.57844E+03 -1.70211E+04  1.14516E+04 -1.88996E+04
  2.15338E+04 -1.03992E+04  2.44442E+04  3.38289E+03  2.12887E+04  1.70778E+04  1.00667E+04  2.73118E+04
 -4.92494E+03  2.92913E+04 -1.89594E+04  1.79594E+04 -2.09173E+04  4.12535E+03 -1.42395E+04 -5.28948E+03
 -6.45295E+03 -6.74840E+03 -9.93406E+02  4.83108E+02 -2.92141E+03  3.17140E+03 -7.04383E+03  5.59980E+03
 -1.38488E+04 -1.29197E+03 -1.38580E+04 -1.15925E+04 -5.44859E+03 -1.86612E+04  6.35798E+03 -1.51229E+04
  1.21905E+04 -6.64838E+03  8.50329E+03  3.93521E+03 -2.45528E+02  6.08965E+03 -7.64686E+03 -7.01052E+01
 -6.76657E+03 -9.45525E+03 -1.01460E+03 -1.45213E+04  8.21695E+03 -1.49106E+04  1.83403E+04 -8.26342E+03
  2.20307E+04  2.24306E+03  1.56071E+04  1.34809E+04  3.34613E+03  1.76288E+04 -8.50078E+03  1.47249E+04
 -1.15870E+04  4.55091E+03 -6.23513E+03 -3.27437E+03  2.10484E+03 -4.52724E+03  7.92201E+03 -1.00380E+03
  7.29524E+03  6.05754E+03  1.32483E+03  1.18935E+04 -8.42059E+03  1.17162E+04 -1.45899E+04  2.44579E+03
 -1.04272E+04 -7.47457E+03  2.64423E+02 -1.25645E+04  8.08291E+03 -6.37156E+03  8.35936E+03  3.18095E+03
  2.23588E+03  9.10583E+03 -7.65026E+03  1.05595E+04 -1.21559E+04  4.69381E+03 -1.26241E+04 -4.49912E+03
 -7.41355E+03 -1.47604E+04  3.74203E+03 -1.63632E+04  1.43897E+04 -1.00464E+04  1.56332E+04  2.51653E+03
  9.18635E+03  1.23578E+04 -1.45208E+03  1.46656E+04 -1.11580E+04  8.13929E+03 -1.15341E+04 -1.30080E+03
 -1.01735E+04 -9.37124E+03 -1.66698E+03 -1.12949E+04  5.97029E+03 -9.13929E+03  7.05344E+03 -3.62176E+03
  4.81059E+03  1.88364E+03 -8.09297E+02  1.65261E+03 -6.84574E+02 -3.29474E+03  2.70744E+03 -6.62020E+03
  1.03581E+04 -4.63796E+03  1.46680E+04  1.56237E+03  1.43569E+04  1.01600E+04  9.51471E+03  1.90730E+04
 -4.40133E+03  2.18213E+04 -1.78812E+04  1.60865E+04 -2.36573E+04  2.55753E+03 -1.89402E+04 -7.99832E+03
 -9.34152E+03 -1.51928E+04 -5.58736E+02 -1.32130E+04  4.79408E+03 -7.38684E+03  4.87529E+03 -4.61040E+03
  3.36560E+03 -2.70119E+03  3.90428E+03 -3.75914E+03  5.58793E+03 -3.35970E+03  7.21451E+03 -1.22767E+03
  1.01319E+04  2.17531E+03  5.43560E+03  8.82055E+03 -1.89963E+03  9.97576E+03 -1.04017E+04  8.01212E+03
 -1.32391E+04 -9.79980E+02 -7.60766E+03 -9.58502E+03 -1.12749E+03 -1.41793E+04  8.24857E+03 -1.41244E+04
  1.45758E+04 -7.64289E+03  1.77296E+04  2.67221E+03  1.24176E+04  1.24934E+04  1.52366E+03  1.65408E+04
 -6.38840E+03  1.27909E+04 -9.13055E+03  4.43236E+03 -6.09120E+03 -1.64271E+03 -2.37232E+03 -1.60997E+03
 -1.41393E+03  6.76239E+01 -2.08038E+03  2.45377E+03 -5.39828E+03  2.30919E+03 -8.89050E+03 -1.36646E+03
 -6.80362E+03 -8.87851E+03 -1.80119E+02 -1.31369E+04  7.81059E+03 -1.20198E+04  1.31558E+04 -3.78481E+03
  1.26448E+04  6.05972E+03  5.85854E+03  1.19102E+04 -2.57602E+03  1.30078E+04 -9.62853E+03  7.86223E+03
 -1.20853E+04  4.31972E+02 -9.34602E+03 -8.25238E+03 -1.17749E+03 -1.08784E+04  5.81828E+03 -7.97989E+03
  8.37015E+03 -2.28345E+03  5.61344E+03  2.11090E+03  1.84525E+03  3.68407E+03  1.65958E+03  1.78033E+03
  2.59756E+03  1.17111E+03  3.08140E+03  1.96545E+03  3.83841E+03  4.63078E+03  3.49241E+03  7.06052E+03
 -2.66159E+03  1.03019E+04 -8.90874E+03  1.06547E+04 -1.32658E+04  2.43059E+03 -1.40492E+04 -5.30296E+03
 -6.93375E+03 -1.31455E+04  1.66428E+03 -1.44390E+04  7.65005E+03 -9.36752E+03  1.09562E+04 -2.72388E+03
  8.33687E+03  5.33840E+03  1.80462E+03  7.85291E+03 -3.93483E+03  4.90491E+03 -5.09797E+03 -3.27341E+02
 -2.76276E+03 -5.32473E+03  3.09860E+03 -5.80835E+03  5.74578E+03 -2.73077E+03  5.12999E+03  1.21325E+03
  2.96267E+03  2.45229E+03  1.44001E+03  2.41510E+03 -4.72289E+02  1.64973E+03  1.53620E+03 -6.46329E+02
  1.80615E+03 -4.51369E+02  5.30555E+03  2.42642E+03  3.10508E+03  6.90038E+03 -1.53202E+03  9.47671E+03
 -6.39434E+03  6.32339E+03 -8.66914E+03  1.77949E+03 -7.38304E+03 -3.23500E+03 -2.70779E+03 -5.23005E+03
  3.39681E+02 -5.18654E+03  3.67982E+03 -2.24179E+03  3.00309E+03  2.60875E+03 -1.78867E+03  4.22491E+03
 -5.51482E+03  2.33883E+03 -6.31866E+03 -2.86367E+03 -3.67593E+03 -7.20489E+03  1.04149E+03 -7.32493E+03
  3.91360E+03 -3.98257E+03  5.18217E+03 -4.76788E+02  4.42777E+03  2.17124E+03  9.99399E+02  3.74260E+03
 -2.32664E+03  1.05341E+03 -3.44970E+03 -2.07923E+03  1.43992E+03 -5.30182E+03  6.38152E+03 -4.05815E+03
  8.16926E+03  5.64189E+02  8.19325E+03  5.42162E+03  2.63014E+03  8.55581E+03 -3.41592E+03  7.96529E+03
 -6.84377E+03  3.52064E+03 -7.27793E+03 -1.15255E+03 -4.03668E+03 -5.59200E+03  1.09787E+03 -5.44895E+03
  5.47619E+03 -2.66051E+03  4.68515E+03  2.20680E+03  1.44100E+03  4.87537E+03 -5.39780E+02  4.19854E+03
 -2.16467E+03  2.51745E+03 -2.03859E+03  1.00071E+03 -1.01851E+03  8.50181E+02 -1.52242E+03  2.09492E+03
 -1.84477E+03  3.58267E+03 -6.01893E+03  3.12698E+03 -8.66874E+03 -1.35330E+02 -9.77527E+03 -5.22888E+03
 -5.24919E+03 -1.10176E+04  2.26411E+03 -1.31607E+04  8.16884E+03 -1.00648E+04  1.22587E+04 -4.13176E+03
  1.15778E+04  2.19160E+03  7.14059E+03  7.94924E+03  5.08550E+02  8.75525E+03 -3.88448E+03  6.52212E+03
 -5.03548E+03  2.29183E+03 -3.13263E+03 -1.20624E+03 -1.36108E+03 -5.74512E+02 -7.98282E+02 -6.90580E+01
 -1.61256E+03  4.03667E+02 -1.97855E+03  1.03476E+02 -4.79431E+02 -2.14292E+03  2.91322E+02 -3.14416E+03
  3.89139E+03 -2.98140E+03  5.07714E+03  3.14946E+02  6.20865E+03  4.76620E+03  1.71435E+03  8.84049E+03
 -4.31504E+03  1.00703E+04 -9.70241E+03  5.89985E+03 -1.08477E+04 -8.54195E+02 -7.77581E+03 -6.83660E+03
 -3.36255E+03 -9.09548E+03  2.07428E+03 -8.36192E+03  5.83727E+03 -4.49890E+03  5.58026E+03  3.73729E+02
  3.59952E+03  2.53648E+03  2.72382E+01  2.62469E+03 -2.15103E+03 -4.46313E+01 -1.46837E+02 -2.49080E+03
  2.79398E+03 -1.24816E+03  3.37080E+03  1.42348E+03  2.29988E+03  3.48743E+03  1.86236E+02  4.39869E+03
 -3.70210E+03  4.06214E+03 -5.77666E+03  3.97729E+02 -5.28925E+03 -4.12377E+03 -8.37987E+02 -7.36193E+03
  4.23180E+03 -6.04783E+03  6.64202E+03 -2.07653E+03  6.55308E+03  1.72418E+03  3.44512E+03  5.24743E+03
  8.56657E+02  5.98721E+03 -2.21342E+03  4.54428E+03 -3.90780E+03  2.95470E+03 -2.74794E+03  5.43831E+02
 -1.38998E+03  1.37177E+01 -1.75292E+03  5.83294E+02 -2.72075E+03  1.22512E+03 -4.63436E+03 -7.85282E+02
 -4.17398E+03 -3.25402E+03 -1.33176E+03 -5.52286E+03  2.68831E+03 -6.43762E+03  5.16660E+03 -3.30395E+03
  5.16931E+03  7.06546E+02  2.92106E+03  3.97763E+03 -5.41256E+02  5.69813E+03 -4.28768E+03  3.59209E+03
