 $NMID ID='MM_0lb_SNR800_17hz_g40_92.RAW', FMTDAT='(8E13.5)'
 TRAMP=1., VOLUME=1. $END
  3.09540E+05  2.28040E+02  3.37169E+05  2.50406E+05  8.45117E+04  3.37191E+05 -1.32602E+05  2.50201E+05
 -1.89819E+05  8.25906E+04 -1.11183E+05 -3.28685E+04  1.80171E+03 -5.02122E+04  5.40451E+04  1.40545E+02
  3.52145E+04  5.26433E+04 -1.67422E+04  7.49435E+04 -6.03085E+04  6.28419E+04 -8.26659E+04  3.14643E+04
 -7.96775E+04 -1.10519E+04 -5.62131E+04 -5.02458E+04 -1.49880E+04 -6.79397E+04  2.67284E+04 -4.50090E+04
  3.92124E+04  4.16639E+03  1.54947E+04  4.72915E+04 -3.42182E+04  4.63338E+04 -6.53558E+04 -2.84141E+02
 -5.20292E+04 -5.59477E+04 -6.10878E+03 -7.51257E+04  3.29911E+04 -5.34096E+04  4.65170E+04 -1.64037E+04
  4.17598E+04  1.10975E+04  3.07086E+04  2.46810E+04  1.60442E+04  2.82853E+04 -4.65799E+03  2.66643E+04
 -2.18177E+04  1.27738E+04 -1.88933E+04 -4.46110E+03  4.34844E+03 -7.50911E+03  2.16284E+04  1.09519E+04
  7.44197E+03  3.33033E+04 -3.04671E+04  3.42884E+04 -6.12918E+04  2.21446E+03 -5.58152E+04 -4.11816E+04
 -1.21997E+04 -6.11422E+04  3.79095E+04 -4.33834E+04  5.60099E+04 -1.91086E+03  3.24206E+04  3.06128E+04
 -6.56860E+03  3.34612E+04 -2.85552E+04  1.34869E+04 -2.76307E+04 -5.30466E+03 -1.46706E+04 -1.03319E+04
 -7.32292E+03 -1.17558E+04 -7.74672E+02 -1.67433E+04  6.73594E+03 -2.28909E+04  1.50287E+04 -1.38671E+04
  1.24503E+04  4.36879E+03 -6.47101E+03  1.33623E+04 -1.94878E+04 -2.83039E+03 -8.03451E+03 -3.08134E+04
  2.10179E+04 -4.09032E+04  4.50292E+04 -1.87155E+04  4.20083E+04  1.82047E+04  1.46854E+04  4.19857E+04
 -1.52529E+04  3.13432E+04 -2.35213E+04  1.18923E+03 -8.44686E+03 -2.64908E+04  2.01915E+04 -3.12174E+04
  3.82733E+04 -7.35893E+03  3.19144E+04  2.28510E+04  1.57868E+04  4.29208E+04 -8.00137E+03  4.58470E+04
 -2.88353E+04  3.02628E+04 -3.81605E+04  8.18243E+03 -3.89137E+04 -1.51021E+04 -2.15573E+04 -3.48537E+04
  6.80182E+03 -3.46196E+04  2.93945E+04 -1.27196E+04  2.72518E+04  1.09704E+04  3.01991E+03  1.80066E+04
 -1.30894E+04  7.58388E+03 -9.51356E+03 -7.69657E+03  5.96479E+03 -1.01907E+04  1.73789E+04  6.16549E+03
  1.25932E+04  2.15584E+04 -6.68131E+03  2.34408E+04 -2.16348E+04  9.50590E+03 -2.54245E+04 -6.14916E+03
 -1.72207E+04 -1.64288E+04 -6.03255E+03 -1.75387E+04  3.49657E+03 -1.53916E+04  1.31746E+04 -1.49603E+04
  2.19981E+04 -1.17353E+04  2.86732E+04  1.27146E+03  2.12856E+04  1.67001E+04  3.90652E+03  3.30631E+04
 -1.63140E+04  2.81747E+04 -2.61611E+04  9.60056E+03 -1.97987E+04 -1.02417E+04 -3.93602E+03 -1.39705E+04
  2.40669E+03 -4.12156E+03 -2.71937E+03  5.53549E+03 -1.35276E+04  5.21735E+03 -1.37767E+04 -5.11294E+03
 -8.55153E+03 -1.56369E+04  4.41766E+03 -1.98475E+04  1.29977E+04 -1.43607E+04  1.49424E+04 -1.72831E+03
  9.36115E+03  1.12675E+04 -7.81498E+02  1.63532E+04 -1.07289E+04  8.87048E+03 -1.57012E+04 -3.40637E+03
 -1.21142E+04 -1.47154E+04 -1.37876E+03 -1.98701E+04  9.06987E+03 -1.59754E+04  1.64701E+04 -7.47518E+03
  1.49160E+04  6.76070E+02  1.07479E+04  3.70697E+03  5.41672E+03  4.03163E+02  7.82751E+03 -1.52535E+03
  1.45185E+04  2.79115E+03  1.55099E+04  1.31132E+04  9.73140E+03  2.55858E+04 -3.13394E+03  2.77261E+04
 -1.65561E+04  2.11743E+04 -2.54486E+04  1.04740E+04 -2.61991E+04 -1.81120E+03 -2.23608E+04 -1.48965E+04
 -1.05350E+04 -2.14354E+04  6.88182E+03 -2.00910E+04  1.71476E+04 -1.13304E+04  1.61836E+04  3.76680E+03
  6.47851E+03  1.15281E+04 -7.24616E+03  1.08919E+04 -1.36504E+04  2.44622E+03 -1.11395E+04 -8.06824E+03
 -5.81993E+01 -1.29254E+04  6.44870E+03 -9.75875E+03  8.52897E+03 -1.55660E+03  1.78007E+03  5.30011E+03
 -5.80983E+03  1.47140E+03 -4.34365E+03 -4.74125E+03  4.47149E+02 -1.05358E+04  8.10571E+03 -1.07407E+04
  1.30642E+04 -5.22328E+03  1.29637E+04  2.78125E+03  1.11165E+04  9.88223E+03  5.54908E+03  1.52328E+04
 -2.12647E+03  1.67571E+04 -1.04158E+04  1.09759E+04 -1.18976E+04  2.92735E+03 -8.67088E+03 -2.35154E+03
 -4.62568E+03 -3.62025E+03 -7.34121E+02  1.56440E+03 -1.93367E+03  1.96726E+03 -3.97131E+03  3.75314E+03
 -8.39294E+03 -6.35777E+02 -9.19044E+03 -7.60438E+03 -3.75438E+03 -1.21840E+04  3.68830E+03 -9.18080E+03
  7.68462E+03 -3.70840E+03  5.22204E+03  2.17333E+03  5.64573E+02  3.23139E+03 -3.63419E+03 -3.19455E+02
 -3.43756E+03 -5.59973E+03 -7.73503E+02 -8.04687E+03  4.23041E+03 -8.77460E+03  1.09027E+04 -4.12222E+03
  1.24219E+04  5.68917E+02  9.31026E+03  6.86986E+03  2.13038E+03  9.28655E+03 -5.58494E+03  9.03698E+03
 -7.46784E+03  2.80776E+03 -3.69461E+03 -1.58612E+03  1.41183E+03 -2.10506E+03  5.02538E+03 -7.54485E+02
  4.32165E+03  3.78491E+03  1.01538E+03  6.48335E+03 -4.61624E+03  6.71444E+03 -8.36109E+03  1.61179E+03
 -5.07256E+03 -3.97234E+03  3.46656E+02 -7.19548E+03  4.03426E+03 -3.85209E+03  3.67135E+03  1.21235E+03
  4.71117E+02  3.62995E+03 -4.31527E+03  5.17830E+03 -5.28249E+03  2.40334E+03 -5.11307E+03 -1.66293E+03
 -3.29206E+03 -6.42708E+03  1.27602E+03 -7.55629E+03  6.48765E+03 -5.25779E+03  7.17861E+03  1.28109E+03
  5.26129E+03  5.85848E+03  2.03727E+02  7.89129E+03 -5.58444E+03  4.31906E+03 -5.80196E+03 -5.33965E+02
 -6.04129E+03 -5.28202E+03 -1.34890E+03 -5.46196E+03  2.80898E+03 -4.81002E+03  3.15089E+03 -2.96012E+03
  3.20703E+03  4.90712E+02  4.75299E+01  1.42669E+03  3.12229E+02 -6.36960E+02  2.80314E+02 -2.23138E+03
  4.11061E+03 -1.06134E+03  5.85865E+03  7.30338E+02  6.00264E+03  3.76929E+03  5.68848E+03  8.13438E+03
 -1.10855E+03  9.50589E+03 -8.45134E+03  7.22595E+03 -1.09835E+04  1.39425E+03 -8.89642E+03 -3.00851E+03
 -4.78568E+03 -7.20478E+03 -6.07848E+02 -6.18260E+03  2.19633E+03 -2.63521E+03  1.98021E+03 -2.16400E+03
  1.39537E+03 -1.34891E+03  2.08610E+03 -2.36530E+03  3.58606E+03 -1.40522E+03  3.94600E+03 -1.59109E+01
  4.79920E+03  1.24898E+03  1.53417E+03  3.85604E+03 -1.59300E+03  3.25516E+03 -5.04385E+03  3.08539E+03
 -5.65069E+03 -1.11344E+03 -2.27839E+03 -3.63052E+03  3.37194E+02 -5.85731E+03  3.25704E+03 -6.10775E+03
  5.87506E+03 -3.65000E+03  7.79715E+03  3.91150E+02  5.55143E+03  5.06276E+03  1.05857E+03  6.70373E+03
 -2.45450E+03  6.53627E+03 -3.66780E+03  2.11070E+03 -2.18759E+03 -1.13071E+03 -6.11361E+02 -7.03974E+02
 -6.89185E+02  6.26782E+02 -8.46268E+02  2.18390E+03 -2.68404E+03  1.05567E+03 -4.24216E+03 -2.91337E+02
 -1.67928E+03 -4.68017E+03  9.26201E+02 -5.16581E+03  3.04560E+03 -5.20169E+03  4.24341E+03 -1.59381E+03
  5.14880E+03  2.69282E+03  2.20830E+03  3.80040E+03 -9.62984E+02  5.26503E+03 -3.17606E+03  2.98392E+03
 -4.53174E+03  5.85234E+02 -3.87250E+03 -2.73556E+03 -6.54959E+02 -3.56842E+03  1.94081E+03 -2.83574E+03
  3.22780E+03 -1.33040E+03  1.93939E+03  7.33968E+02  6.78816E+02  2.03999E+03  7.70795E+02  6.06887E+02
  1.57758E+03  5.39038E+02  1.33847E+03  1.09788E+03  1.40639E+03  2.66644E+03  1.53200E+03  2.26961E+03
 -1.57097E+03  3.61639E+03 -2.88954E+03  4.64427E+03 -4.00559E+03  1.50836E+03 -4.71509E+03 -9.37337E+02
 -1.80559E+03 -4.39290E+03  6.30788E+02 -5.46026E+03  2.48412E+03 -3.10427E+03  3.67518E+03 -1.07778E+03
  3.01827E+03  2.06821E+03  6.20491E+02  2.53726E+03 -1.09543E+03  1.55953E+03 -1.53545E+03  6.27534E+01
 -9.05547E+02 -2.14518E+03  1.70816E+03 -1.74800E+03  1.91112E+03 -1.34529E+03  1.64863E+03  3.58284E+02
  9.37498E+02  6.70876E+02  8.77448E+02  5.47036E+01 -4.43792E+02  8.63818E+02  1.67391E+03 -7.37872E+01
  3.14074E+02 -2.83907E+02  2.16875E+03  3.42169E+02  6.76185E+02  2.68967E+03 -4.22337E+02  3.53909E+03
 -1.93982E+03  1.51529E+03 -2.70279E+03  2.23054E+02 -2.40307E+03 -1.03961E+03 -1.71569E+02 -1.24752E+03
  5.92674E+02 -1.70888E+03  1.09015E+03 -9.38908E+02  1.11156E+03  1.33807E+03 -1.06574E+03  1.20616E+03
 -1.86541E+03  1.09004E+03 -1.47970E+03 -1.62103E+03 -1.05422E+03 -2.80072E+03  8.42279E+01 -2.13212E+03
  8.89188E+02 -9.04033E+02  1.14085E+03  2.83312E+02  1.80331E+03 -6.50057E+01  1.77225E+02  1.42525E+03
 -5.22650E+02  3.77065E+02 -1.31954E+03 -3.40134E+02  3.58165E+02 -1.23602E+03  1.79908E+03 -1.10129E+03
  2.10148E+03  2.01457E+02  3.16806E+03  8.88739E+02  1.23116E+03  2.08187E+03 -3.03979E+02  2.31700E+03
 -1.98766E+03  4.03553E+02 -1.86780E+03 -2.98141E+02 -8.39414E+02 -1.98850E+03  3.47864E+02 -9.95098E+02
  1.63796E+03 -8.58922E+02  1.20229E+03  8.79144E+02  8.41563E+01  1.75680E+03  1.73275E+02  1.35827E+03
 -3.48013E+02  1.13901E+03 -4.35996E+02 -9.84287E+01 -1.40856E+02  7.03208E+02 -7.78365E+02  4.00227E+02
 -6.33813E+02  1.22103E+03 -2.19758E+03  7.29348E+02 -2.05516E+03  1.71934E+02 -3.06359E+03 -1.27644E+03
 -1.50473E+03 -3.06866E+03  4.24082E+02 -3.55178E+03  1.66666E+03 -2.90176E+03  3.51044E+03 -1.45050E+03
  3.14735E+03  9.42922E+01  1.73420E+03  1.91432E+03 -1.48059E+02  1.77576E+03 -8.05336E+02  1.47152E+03
 -1.49440E+03  8.90475E+02 -5.08529E+02 -8.59735E+01 -3.81141E+02  9.48803E+01 -9.14635E+02  6.86303E+01
 -1.06444E+03  2.10602E+01 -1.01893E+03  1.22547E+02  5.69494E+01 -7.63129E+02 -4.50248E+02 -1.20700E+03
  1.50439E+03 -6.95109E+02  8.21871E+02  1.54181E+02  1.52197E+03  1.43950E+03 -2.31336E+02  2.09440E+03
 -1.27761E+03  2.69167E+03 -2.06808E+03  1.62047E+03 -2.45992E+03 -2.51037E+02 -1.56940E+03 -1.48030E+03
 -1.24062E+03 -2.03307E+03  3.90630E+02 -1.76683E+03  9.44680E+02 -9.70023E+02  1.03026E+03  1.96478E+02
  1.00419E+03  3.09138E+02 -1.44532E+01  4.20782E+02 -5.13341E+02  8.67873E+01 -2.32779E+02 -5.15014E+02
  5.82878E+02 -1.21246E+02  3.23834E+02  2.39341E+02  1.67281E+02  6.96790E+02  2.91461E+02  3.18242E+02
 -8.10675E+02  7.74813E+02 -9.49455E+02  4.65112E+02 -1.13057E+03 -1.02629E+03  3.43133E+01 -1.72410E+03
  7.88033E+02 -1.27544E+03  1.03562E+03  1.28538E+02  1.48363E+03 -3.00097E+02  5.43316E+02  9.36392E+02
  1.70371E+02  1.01291E+03 -3.81052E+02  9.20237E+02 -8.78171E+02  8.82847E+02 -6.76011E+02  4.62993E+01
 -3.15668E+02 -1.42948E+02 -3.91993E+02  1.53717E+02 -6.09211E+02  4.28475E+02 -1.17360E+03 -1.33271E+02
 -1.08729E+03 -4.44282E+01 -3.13445E+02 -1.37558E+03  5.73692E+02 -1.97956E+03  1.07916E+03 -1.94394E+02
  1.14847E+03  3.09266E+01 -4.05944E+02  5.24066E+02  2.27052E+01  1.24866E+03 -8.13064E+02  1.05627E+03
