 $NMID ID='MM_0lb_SNR800_9hz_g55_45.RAW', FMTDAT='(8E13.5)'
 TRAMP=1., VOLUME=1. $END
  3.09696E+05  3.77955E+02  3.37914E+05  2.51108E+05  8.49904E+04  3.38422E+05 -1.32574E+05  2.51667E+05
 -1.91000E+05  8.41128E+04 -1.12539E+05 -3.24341E+04 -6.48081E+01 -5.06919E+04  5.34430E+04 -5.48724E+02
  3.61316E+04  5.26223E+04 -1.62955E+04  7.60680E+04 -6.16123E+04  6.50150E+04 -8.53785E+04  3.26359E+04
 -8.22031E+04 -1.18899E+04 -5.80528E+04 -5.26867E+04 -1.50833E+04 -7.13855E+04  2.84094E+04 -4.72515E+04
  4.08496E+04  3.52894E+03  1.68713E+04  4.88083E+04 -3.49265E+04  4.82679E+04 -6.82910E+04  2.28783E+02
 -5.46950E+04 -5.80883E+04 -7.52401E+03 -7.91809E+04  3.47397E+04 -5.71344E+04  4.98743E+04 -1.86268E+04
  4.54463E+04  1.17834E+04  3.27361E+04  2.71118E+04  1.60102E+04  3.11339E+04 -6.32563E+03  2.80854E+04
 -2.23219E+04  1.17922E+04 -1.78436E+04 -6.09532E+03  7.13006E+03 -7.29080E+03  2.33464E+04  1.40070E+04
  6.90515E+03  3.77086E+04 -3.41845E+04  3.71069E+04 -6.57980E+04  2.22458E+03 -5.93677E+04 -4.48715E+04
 -1.21863E+04 -6.60933E+04  4.17043E+04 -4.77219E+04  6.13098E+04 -2.37466E+03  3.69713E+04  3.46775E+04
 -5.03534E+03  3.94399E+04 -3.21697E+04  1.90344E+04 -3.32360E+04 -3.58916E+03 -1.94816E+04 -1.21804E+04
 -9.80870E+03 -1.52158E+04 -4.36438E+02 -2.02148E+04  8.87607E+03 -2.37634E+04  1.59949E+04 -1.23914E+04
  1.07796E+04  6.30572E+03 -1.04857E+04  1.31736E+04 -2.37412E+04 -6.68923E+03 -8.74026E+03 -3.77448E+04
  2.55304E+04 -4.73914E+04  5.25006E+04 -2.09710E+04  4.91107E+04  2.06740E+04  1.74757E+04  4.74250E+04
 -1.69345E+04  3.66931E+04 -2.77879E+04  2.74700E+03 -1.17472E+04 -2.96427E+04  2.15036E+04 -3.71541E+04
  4.50430E+04 -1.11657E+04  4.11894E+04  2.51752E+04  2.20463E+04  5.19272E+04 -8.73862E+03  5.68459E+04
 -3.56718E+04  3.87786E+04 -4.79866E+04  1.10757E+04 -4.82822E+04 -1.88430E+04 -2.65705E+04 -4.22361E+04
  7.90727E+03 -4.20967E+04  3.46430E+04 -1.73462E+04  3.22755E+04  1.12113E+04  5.53019E+03  2.10902E+04
 -1.37608E+04  9.67339E+03 -1.15665E+04 -7.32020E+03  5.63470E+03 -1.14298E+04  1.86363E+04  5.65063E+03
  1.48708E+04  2.31894E+04 -5.16684E+03  2.74012E+04 -2.37190E+04  1.51066E+04 -3.19651E+04 -2.99497E+03
 -2.57775E+04 -1.88377E+04 -1.23871E+04 -2.52210E+04  4.23270E+03 -2.66139E+04  2.00073E+04 -2.35530E+04
  3.28899E+04 -1.43440E+04  3.84719E+04  5.08901E+03  2.76110E+04  2.45819E+04  4.47925E+03  4.19140E+04
 -1.99150E+04  3.42804E+04 -3.06785E+04  1.18993E+04 -2.24362E+04 -9.98757E+03 -4.88314E+03 -1.27448E+04
  3.33173E+02 -9.50012E+02 -8.29952E+03  8.27968E+03 -1.99014E+04  5.04989E+03 -2.04531E+04 -9.84578E+03
 -1.17730E+04 -2.34155E+04  6.57168E+03 -2.82160E+04  1.89647E+04 -2.04678E+04  2.30902E+04 -1.68022E+03
  1.51487E+04  1.65458E+04 -1.14104E+03  2.38098E+04 -1.66675E+04  1.37614E+04 -2.37012E+04 -5.16387E+03
 -1.73618E+04 -2.12560E+04 -2.49471E+03 -2.85703E+04  1.29299E+04 -2.36720E+04  2.36331E+04 -1.25195E+04
  2.22998E+04 -3.23903E+02  1.55043E+04  5.51756E+03  8.86898E+03  1.43962E+03  1.26555E+04 -2.26263E+03
  2.26750E+04  2.95191E+03  2.62196E+04  1.86514E+04  1.80462E+04  3.84416E+04 -2.25226E+03  4.50389E+04
 -2.56639E+04  3.78672E+04 -4.26323E+04  2.01243E+04 -4.57134E+04 -3.33465E+03 -3.71231E+04 -2.68312E+04
 -1.46336E+04 -3.81935E+04  1.38089E+04 -3.28198E+04  2.86041E+04 -1.57448E+04  2.48574E+04  7.81556E+03
  8.63960E+03  1.93409E+04 -1.16645E+04  1.57496E+04 -2.08288E+04  2.37873E+03 -1.56141E+04 -1.35087E+04
 -4.53888E+02 -1.96290E+04  1.08165E+04 -1.48760E+04  1.34580E+04 -1.40446E+03  3.54963E+03  8.89790E+03
 -9.09188E+03  4.78427E+03 -9.48922E+03 -7.11513E+03 -2.02084E+03 -1.83293E+04  1.22617E+04 -2.06673E+04
  2.35747E+04 -1.18981E+04  2.66694E+04  3.35736E+03  2.38337E+04  1.93604E+04  1.10543E+04  2.98565E+04
 -5.68281E+03  3.23202E+04 -2.05388E+04  1.97779E+04 -2.31718E+04  3.67775E+03 -1.57417E+04 -5.93101E+03
 -6.58813E+03 -7.71653E+03 -1.21409E+03  4.88644E+02 -2.69700E+03  3.39695E+03 -8.01341E+03  5.68558E+03
 -1.47748E+04 -5.49467E+02 -1.58210E+04 -1.22820E+04 -6.06203E+03 -1.97676E+04  6.48312E+03 -1.61307E+04
  1.31725E+04 -6.92826E+03  9.53884E+03  4.24694E+03 -3.79783E+02  6.53455E+03 -7.91446E+03 -1.34393E+01
 -7.64394E+03 -1.02834E+04 -1.16345E+03 -1.58389E+04  9.45126E+03 -1.66921E+04  2.04281E+04 -9.46140E+03
  2.43323E+04  2.12063E+03  1.74298E+04  1.53253E+04  3.48544E+03  1.96653E+04 -9.95963E+03  1.57901E+04
 -1.29127E+04  4.46190E+03 -6.78503E+03 -3.20153E+03  2.10694E+03 -4.38752E+03  8.51984E+03 -8.84984E+02
  7.75913E+03  7.11609E+03  1.41269E+03  1.33540E+04 -8.96170E+03  1.22121E+04 -1.56856E+04  2.56400E+03
 -1.07797E+04 -8.80816E+03  1.07464E+02 -1.33473E+04  9.27208E+03 -7.20204E+03  1.00785E+04  2.93557E+03
  2.55288E+03  1.02759E+04 -8.64429E+03  1.17058E+04 -1.43034E+04  5.44751E+03 -1.41847E+04 -5.30127E+03
 -8.23138E+03 -1.68154E+04  3.90854E+03 -1.85914E+04  1.57088E+04 -1.13210E+04  1.74358E+04  3.20558E+03
  1.02808E+04  1.33828E+04 -1.48444E+03  1.62119E+04 -1.16620E+04  9.14780E+03 -1.33835E+04 -1.34022E+03
 -1.09523E+04 -1.08415E+04 -1.70445E+03 -1.28058E+04  6.52030E+03 -9.75682E+03  8.10677E+03 -4.00839E+03
  4.86296E+03  2.24010E+03 -8.91667E+02  2.11646E+03 -8.22079E+02 -3.72635E+03  2.41264E+03 -7.51082E+03
  1.25021E+04 -5.05516E+03  1.60579E+04  1.75060E+03  1.64218E+04  1.16875E+04  1.02435E+04  2.18271E+04
 -4.95426E+03  2.47760E+04 -2.03336E+04  1.84359E+04 -2.64612E+04  3.71014E+03 -2.14034E+04 -9.48935E+03
 -1.09291E+04 -1.74575E+04 -5.60325E+02 -1.54032E+04  5.53421E+03 -8.32686E+03  5.31322E+03 -5.37279E+03
  4.07607E+03 -3.41059E+03  4.16627E+03 -4.09997E+03  6.30402E+03 -3.89738E+03  8.48276E+03 -1.75504E+03
  1.08824E+04  2.59577E+03  6.36794E+03  9.96525E+03 -2.02389E+03  1.17189E+04 -1.14973E+04  9.01315E+03
 -1.54731E+04 -1.12050E+03 -9.39034E+03 -1.06740E+04 -1.43809E+03 -1.63704E+04  9.18730E+03 -1.64231E+04
  1.71887E+04 -9.10023E+03  2.02493E+04  3.16222E+03  1.39561E+04  1.46112E+04  1.94182E+03  1.84880E+04
 -7.49848E+03  1.46755E+04 -1.05575E+04  4.85839E+03 -7.49687E+03 -1.78212E+03 -3.10731E+03 -2.63313E+03
 -1.09454E+03 -3.56033E+02 -2.57585E+03  3.39763E+03 -6.01879E+03  2.54466E+03 -1.07857E+04 -1.89691E+03
 -7.58078E+03 -1.03381E+04 -1.89418E+02 -1.53186E+04  9.22131E+03 -1.43168E+04  1.51644E+04 -4.42296E+03
  1.53713E+04  7.13360E+03  7.08700E+03  1.35424E+04 -3.49131E+03  1.56897E+04 -1.09866E+04  9.89991E+03
 -1.41065E+04  5.77560E+02 -1.10674E+04 -9.47404E+03 -1.35673E+03 -1.29217E+04  6.46320E+03 -9.63838E+03
  9.27453E+03 -3.10309E+03  6.75805E+03  2.67774E+03  2.17410E+03  4.71008E+03  1.72742E+03  2.40813E+03
  2.96461E+03  1.25564E+03  3.42188E+03  1.87624E+03  4.96321E+03  5.15315E+03  4.06177E+03  8.26568E+03
 -3.11710E+03  1.22095E+04 -1.08317E+04  1.24761E+04 -1.64683E+04  3.35463E+03 -1.65019E+04 -6.84028E+03
 -7.84653E+03 -1.58634E+04  2.50570E+03 -1.73362E+04  9.60664E+03 -1.10475E+04  1.26169E+04 -2.74192E+03
  1.01438E+04  5.86294E+03  2.59100E+03  9.41421E+03 -4.61294E+03  5.45535E+03 -6.57331E+03 -1.11056E+03
 -2.72620E+03 -6.88012E+03  3.62151E+03 -7.17753E+03  6.37957E+03 -3.25683E+03  6.75245E+03  1.18103E+03
  3.83849E+03  3.85484E+03  1.65497E+03  2.50485E+03 -9.83537E+02  2.08811E+03  1.26302E+03 -7.80498E+02
  2.61842E+03 -1.17196E+03  6.39385E+03  2.92755E+03  3.56824E+03  8.59937E+03 -1.60210E+03  1.12690E+04
 -7.46648E+03  7.63992E+03 -1.00807E+04  2.14067E+03 -8.93225E+03 -3.70454E+03 -3.89454E+03 -6.53805E+03
  1.16169E+03 -5.80746E+03  4.43796E+03 -2.75352E+03  3.58629E+03  2.79723E+03 -1.88584E+03  5.01564E+03
 -6.44094E+03  3.23275E+03 -7.90641E+03 -3.96277E+03 -4.48826E+03 -8.52721E+03  1.28153E+03 -8.78411E+03
  5.10159E+03 -4.81831E+03  6.33934E+03 -5.65502E+02  5.21753E+03  2.00636E+03  7.18747E+02  4.45710E+03
 -3.11066E+03  1.33726E+03 -3.71941E+03 -2.97391E+03  1.39943E+03 -6.91204E+03  7.89029E+03 -5.32519E+03
  9.75957E+03  6.47156E+02  9.60188E+03  6.69494E+03  3.15532E+03  1.05614E+04 -3.85838E+03  1.00054E+04
 -8.59636E+03  4.44375E+03 -8.71632E+03 -1.30175E+03 -4.79314E+03 -6.88464E+03  8.70947E+02 -6.05930E+03
  6.64344E+03 -3.45251E+03  5.56681E+03  2.70504E+03  1.39204E+03  5.93509E+03 -1.15492E+03  4.87667E+03
 -2.75599E+03  3.51574E+03 -2.51876E+03  9.68332E+02 -1.21972E+03  8.98903E+02 -1.54085E+03  2.22756E+03
 -2.72112E+03  4.34261E+03 -7.27256E+03  3.30782E+03 -1.02655E+04  4.69979E+02 -1.17994E+04 -7.16126E+03
 -5.99869E+03 -1.39194E+04  2.65785E+03 -1.60036E+04  1.02243E+04 -1.23665E+04  1.48332E+04 -4.77656E+03
  1.46692E+04  3.42092E+03  8.57833E+03  9.12617E+03  8.60739E+02  1.09621E+04 -4.46854E+03  8.04202E+03
 -5.87388E+03  3.42180E+03 -3.88561E+03 -1.31023E+03 -1.43243E+03 -1.25736E+03 -2.95641E+02  2.63042E+02
 -1.87588E+03  1.68463E+02 -2.42481E+03 -7.55343E+02 -3.46725E+02 -2.66661E+03  2.78032E+02 -4.10688E+03
  4.90917E+03 -3.29334E+03  6.88748E+03  3.30908E+02  7.75259E+03  6.13271E+03  2.01918E+03  1.08459E+04
 -5.72496E+03  1.21746E+04 -1.10831E+04  7.40533E+03 -1.38218E+04 -1.12900E+03 -1.02636E+04 -8.51011E+03
 -4.37838E+03 -1.09102E+04  2.53783E+03 -1.02040E+04  6.94472E+03 -5.39745E+03  7.19803E+03  5.68472E+02
  4.44363E+03  3.56679E+03 -5.14919E+02  3.45159E+03 -2.39821E+03 -5.15582E+02 -1.50942E+02 -2.35410E+03
  3.64538E+03 -1.38208E+03  4.86205E+03  1.72548E+03  2.38326E+03  4.22747E+03 -1.45843E+02  6.11143E+03
 -4.54377E+03  4.61440E+03 -7.78290E+03  8.53957E+02 -6.55559E+03 -5.22300E+03 -1.07898E+03 -9.01777E+03
  4.87267E+03 -7.66800E+03  8.46259E+03 -2.37037E+03  8.64756E+03  2.07502E+03  4.76814E+03  7.18764E+03
  8.53923E+02  7.09827E+03 -2.30438E+03  5.74737E+03 -4.51152E+03  3.21038E+03 -3.85559E+03  3.46289E+02
 -1.90771E+03 -1.37129E+02 -2.07832E+03  8.22182E+02 -3.95910E+03  1.22401E+03 -5.19078E+03 -1.24864E+03
 -5.61973E+03 -4.15459E+03 -1.78550E+03 -7.39738E+03  3.30359E+03 -7.99544E+03  6.82859E+03 -3.69115E+03
  7.08110E+03  5.84594E+02  3.75623E+03  5.54687E+03 -7.96193E+02  7.53111E+03 -5.32026E+03  4.45247E+03
