 $NMID ID='MM_0lb_SNR800_7hz_g40_23.RAW', FMTDAT='(8E13.5)'
 TRAMP=1., VOLUME=1. $END
  3.09747E+05  2.24820E+02  3.38275E+05  2.50841E+05  8.47760E+04  3.38707E+05 -1.32352E+05  2.52290E+05
 -1.91134E+05  8.40639E+04 -1.12343E+05 -3.26019E+04 -2.57514E+01 -5.09945E+04  5.36066E+04 -5.10908E+02
  3.52243E+04  5.27996E+04 -1.64944E+04  7.57982E+04 -6.15037E+04  6.41182E+04 -8.55103E+04  3.28427E+04
 -8.25528E+04 -1.23160E+04 -5.78014E+04 -5.28848E+04 -1.47719E+04 -7.11999E+04  2.82140E+04 -4.66375E+04
  4.13994E+04  3.78058E+03  1.70889E+04  4.88880E+04 -3.51063E+04  4.86646E+04 -6.82782E+04  2.30991E+02
 -5.53444E+04 -5.83022E+04 -7.46516E+03 -7.98446E+04  3.47057E+04 -5.74495E+04  5.00077E+04 -1.85634E+04
  4.56294E+04  1.14657E+04  3.31731E+04  2.65886E+04  1.59261E+04  3.06024E+04 -6.49944E+03  2.78792E+04
 -2.23294E+04  1.17680E+04 -1.78994E+04 -5.88582E+03  7.42114E+03 -7.67463E+03  2.34562E+04  1.41407E+04
  7.45264E+03  3.83680E+04 -3.44465E+04  3.76414E+04 -6.67695E+04  1.73693E+03 -5.95098E+04 -4.49841E+04
 -1.25659E+04 -6.68005E+04  4.19954E+04 -4.83172E+04  6.20994E+04 -2.51400E+03  3.72452E+04  3.51421E+04
 -5.09581E+03  4.00849E+04 -3.21219E+04  1.91950E+04 -3.40596E+04 -3.33783E+03 -2.00675E+04 -1.23769E+04
 -9.38479E+03 -1.56701E+04 -4.10800E+02 -2.05514E+04  8.58594E+03 -2.32769E+04  1.56515E+04 -1.26787E+04
  1.06458E+04  6.03067E+03 -1.10797E+04  1.25246E+04 -2.39556E+04 -6.90466E+03 -8.80014E+03 -3.82941E+04
  2.59949E+04 -4.74142E+04  5.30456E+04 -2.14077E+04  4.92083E+04  2.08973E+04  1.83352E+04  4.80238E+04
 -1.69463E+04  3.69324E+04 -2.81568E+04  2.79428E+03 -1.22557E+04 -2.97011E+04  2.16844E+04 -3.82895E+04
  4.57365E+04 -1.15935E+04  4.11853E+04  2.54190E+04  2.21441E+04  5.22417E+04 -8.42731E+03  5.77562E+04
 -3.63362E+04  3.92060E+04 -4.88435E+04  1.18342E+04 -4.87823E+04 -1.87594E+04 -2.69074E+04 -4.29314E+04
  7.78252E+03 -4.26087E+04  3.53402E+04 -1.81881E+04  3.24021E+04  1.10708E+04  5.86602E+03  2.15525E+04
 -1.39154E+04  1.00759E+04 -1.16472E+04 -7.67519E+03  5.58422E+03 -1.15371E+04  1.91949E+04  5.33773E+03
  1.52880E+04  2.29413E+04 -4.90614E+03  2.77125E+04 -2.39163E+04  1.45744E+04 -3.22123E+04 -2.08033E+03
 -2.65477E+04 -1.85516E+04 -1.25309E+04 -2.63318E+04  4.45674E+03 -2.74516E+04  2.06521E+04 -2.41435E+04
  3.35571E+04 -1.44063E+04  3.93603E+04  5.45081E+03  2.74842E+04  2.55376E+04  4.40841E+03  4.27752E+04
 -2.04145E+04  3.46681E+04 -3.14285E+04  1.19869E+04 -2.29135E+04 -1.04528E+04 -5.23277E+03 -1.28754E+04
  5.22521E+02 -6.29944E+02 -8.49853E+03  8.88779E+03 -2.13811E+04  5.03008E+03 -2.15166E+04 -1.04238E+04
 -1.28434E+04 -2.47397E+04  6.65302E+03 -2.85875E+04  1.93290E+04 -2.04441E+04  2.39056E+04 -2.32424E+03
  1.54805E+04  1.67733E+04 -1.59914E+03  2.46248E+04 -1.77862E+04  1.41242E+04 -2.51658E+04 -5.33057E+03
 -1.80664E+04 -2.23754E+04 -2.13253E+03 -2.94014E+04  1.31599E+04 -2.49314E+04  2.40802E+04 -1.28415E+04
  2.28731E+04 -4.82731E+02  1.70885E+04  5.59055E+03  9.43209E+03  1.43319E+03  1.32276E+04 -1.97218E+03
  2.35531E+04  3.28481E+03  2.72974E+04  1.89255E+04  1.82692E+04  3.95210E+04 -2.82757E+03  4.74377E+04
 -2.64116E+04  3.92321E+04 -4.52510E+04  2.08228E+04 -4.79696E+04 -3.44379E+03 -3.85196E+04 -2.82820E+04
 -1.50872E+04 -4.01587E+04  1.38689E+04 -3.51825E+04  2.97143E+04 -1.60611E+04  2.60198E+04  8.03609E+03
  8.23732E+03  1.97274E+04 -1.26055E+04  1.63037E+04 -2.14942E+04  2.38919E+03 -1.61535E+04 -1.36675E+04
 -6.57394E+02 -2.01400E+04  1.12597E+04 -1.52798E+04  1.40727E+04 -1.31825E+03  3.74735E+03  9.27244E+03
 -8.80078E+03  4.82637E+03 -1.06048E+04 -7.11590E+03 -2.92620E+03 -1.92560E+04  1.33742E+04 -2.20062E+04
  2.50122E+04 -1.22558E+04  2.85021E+04  3.53235E+03  2.47557E+04  2.06396E+04  1.18935E+04  3.18377E+04
 -6.19735E+03  3.35515E+04 -2.21555E+04  2.09825E+04 -2.47073E+04  4.28069E+03 -1.70027E+04 -6.23899E+03
 -7.07303E+03 -7.86939E+03 -2.08977E+02  3.87264E+02 -3.35010E+03  3.76526E+03 -8.30923E+03  5.65936E+03
 -1.49658E+04 -6.63811E+02 -1.55777E+04 -1.22091E+04 -6.61250E+03 -2.08060E+04  6.98311E+03 -1.70432E+04
  1.39281E+04 -6.99179E+03  9.91704E+03  4.67330E+03 -3.78382E+02  6.58769E+03 -8.60394E+03  2.77722E+01
 -8.28337E+03 -1.09227E+04 -1.09933E+03 -1.67864E+04  1.01680E+04 -1.85002E+04  2.25756E+04 -9.70437E+03
  2.62134E+04  2.95628E+03  1.84887E+04  1.59437E+04  3.65103E+03  2.15023E+04 -1.00771E+04  1.71866E+04
 -1.37095E+04  4.69522E+03 -7.15108E+03 -3.65158E+03  2.60379E+03 -4.98105E+03  8.67810E+03 -1.01083E+03
  7.77836E+03  7.54222E+03  1.30218E+03  1.42574E+04 -1.01766E+04  1.27011E+04 -1.68528E+04  3.15396E+03
 -1.17411E+04 -9.47854E+03 -2.93440E+02 -1.48424E+04  1.01177E+04 -7.63595E+03  1.00847E+04  3.98639E+03
  2.04092E+03  1.15653E+04 -8.70808E+03  1.31539E+04 -1.56648E+04  5.44294E+03 -1.61722E+04 -5.75160E+03
 -9.41173E+03 -1.78180E+04  4.44722E+03 -2.03655E+04  1.70890E+04 -1.20205E+04  1.88127E+04  3.28993E+03
  1.14085E+04  1.50558E+04 -1.92171E+03  1.77817E+04 -1.31073E+04  9.83831E+03 -1.47801E+04 -1.02250E+03
 -1.21397E+04 -1.19098E+04 -2.06174E+03 -1.36351E+04  7.19485E+03 -1.08145E+04  8.66089E+03 -4.09245E+03
  5.81098E+03  2.77708E+03 -1.48213E+03  2.36693E+03 -1.35018E+03 -4.00305E+03  2.99885E+03 -8.88953E+03
  1.31131E+04 -6.16352E+03  1.84439E+04  2.25830E+03  1.80853E+04  1.30906E+04  1.11564E+04  2.40357E+04
 -6.09910E+03  2.74473E+04 -2.32064E+04  2.03915E+04 -2.97597E+04  4.20355E+03 -2.38673E+04 -1.01034E+04
 -1.19798E+04 -1.96766E+04 -5.79824E+02 -1.68593E+04  6.24765E+03 -9.81363E+03  5.95741E+03 -6.31351E+03
  4.32504E+03 -3.61166E+03  4.09571E+03 -4.32703E+03  6.13658E+03 -3.99173E+03  8.83359E+03 -2.02775E+03
  1.23365E+04  2.35686E+03  6.97367E+03  1.05837E+04 -2.14168E+03  1.30872E+04 -1.31948E+04  1.02088E+04
 -1.76336E+04 -1.67109E+03 -1.11962E+04 -1.21420E+04 -1.70653E+03 -1.85744E+04  1.03538E+04 -1.81155E+04
  1.93141E+04 -1.02376E+04  2.28302E+04  3.17028E+03  1.59362E+04  1.61269E+04  2.11674E+03  2.08441E+04
 -8.47393E+03  1.66120E+04 -1.21908E+04  5.57953E+03 -8.19463E+03 -1.88199E+03 -3.90379E+03 -2.21831E+03
 -1.66027E+03 -6.12434E+02 -2.54935E+03  2.74180E+03 -6.87529E+03  3.12320E+03 -1.18637E+04 -1.99775E+03
 -9.04212E+03 -1.16570E+04 -4.58534E+02 -1.70851E+04  1.03658E+04 -1.61432E+04  1.69197E+04 -5.21637E+03
  1.76847E+04  8.47251E+03  7.77625E+03  1.56841E+04 -3.50587E+03  1.77866E+04 -1.27799E+04  1.07356E+04
 -1.70367E+04  3.48241E+02 -1.27762E+04 -1.03718E+04 -1.76844E+03 -1.50110E+04  7.97349E+03 -1.13159E+04
  1.14026E+04 -3.61014E+03  7.53660E+03  3.14196E+03  2.76592E+03  5.09596E+03  1.88437E+03  2.47954E+03
  3.25903E+03  8.87229E+02  4.10947E+03  2.26365E+03  5.07795E+03  5.68013E+03  4.73152E+03  9.86247E+03
 -3.32673E+03  1.43630E+04 -1.27172E+04  1.40955E+04 -1.85627E+04  3.23421E+03 -1.95279E+04 -8.34739E+03
 -9.15118E+03 -1.80729E+04  2.39985E+03 -2.02605E+04  1.12853E+04 -1.34187E+04  1.50076E+04 -3.00631E+03
  1.13805E+04  6.49725E+03  3.02948E+03  1.07556E+04 -5.05797E+03  6.69376E+03 -7.48180E+03 -1.44839E+03
 -3.60796E+03 -7.70649E+03  4.65134E+03 -8.27987E+03  7.56837E+03 -3.45019E+03  7.78943E+03  2.15256E+03
  4.95171E+03  4.03385E+03  1.49524E+03  3.74611E+03 -8.37976E+02  2.70546E+03  1.95786E+03 -4.48288E+02
  3.46234E+03 -1.35237E+03  7.58603E+03  3.01234E+03  4.56291E+03  9.76308E+03 -1.50064E+03  1.26506E+04
 -8.89881E+03  9.25167E+03 -1.18766E+04  2.60812E+03 -1.05370E+04 -3.95419E+03 -4.77119E+03 -7.49687E+03
  1.39870E+03 -8.04302E+03  4.95621E+03 -3.42667E+03  4.04802E+03  3.45273E+03 -2.19562E+03  6.45741E+03
 -7.72434E+03  3.37852E+03 -9.21023E+03 -4.13042E+03 -5.06510E+03 -1.05716E+04  1.72432E+03 -1.11148E+04
  6.32226E+03 -6.54649E+03  8.20015E+03 -7.18309E+02  6.11812E+03  3.01270E+03  9.64182E+02  5.83826E+03
 -4.18215E+03  2.28257E+03 -4.84750E+03 -3.56659E+03  1.53719E+03 -8.30636E+03  9.28545E+03 -6.58436E+03
  1.26590E+04  1.03852E+03  1.15512E+04  8.07862E+03  3.19045E+03  1.28334E+04 -4.56919E+03  1.22442E+04
 -1.09012E+04  6.02820E+03 -1.10388E+04 -2.17562E+03 -6.08706E+03 -8.31620E+03  1.57758E+03 -7.64742E+03
  7.77117E+03 -4.00078E+03  7.23241E+03  3.37769E+03  2.38775E+03  6.77063E+03 -1.63330E+03  6.08175E+03
 -3.54093E+03  4.00829E+03 -3.34455E+03  1.31515E+03 -1.60116E+03  1.58001E+03 -2.08868E+03  2.22159E+03
 -3.71615E+03  4.95160E+03 -8.75441E+03  4.63910E+03 -1.33371E+04  3.40758E+01 -1.41929E+04 -8.75904E+03
 -7.33033E+03 -1.72566E+04  3.15002E+03 -1.98035E+04  1.31012E+04 -1.52156E+04  1.85808E+04 -5.90747E+03
  1.76897E+04  3.81054E+03  1.08146E+04  1.21754E+04  1.20261E+03  1.37553E+04 -5.44218E+03  1.00646E+04
 -7.47486E+03  3.82960E+03 -4.67156E+03 -1.28355E+03 -1.75819E+03 -1.23644E+03 -4.87386E+02 -1.68401E+02
 -2.64104E+03  7.23820E+02 -3.10531E+03 -6.82900E+02 -1.02519E+03 -3.09953E+03  8.48701E+02 -5.62990E+03
  5.94611E+03 -4.77736E+03  8.77778E+03 -1.84213E+02  9.99428E+03  7.55533E+03  2.49783E+03  1.37731E+04
 -6.06586E+03  1.53039E+04 -1.48874E+04  9.30592E+03 -1.71644E+04 -1.32201E+03 -1.27175E+04 -1.06073E+04
 -5.53715E+03 -1.45518E+04  4.01094E+03 -1.35148E+04  9.06812E+03 -7.60885E+03  9.66628E+03  6.57160E+02
  5.04379E+03  4.79973E+03 -2.65683E+02  3.92929E+03 -2.89065E+03 -1.86809E+02  1.38317E+02 -3.87438E+03
  3.99335E+03 -2.31454E+03  5.65383E+03  1.47965E+03  4.31006E+03  5.29960E+03 -1.00277E+02  7.50701E+03
 -5.90676E+03  6.63882E+03 -9.70359E+03  6.90813E+02 -8.48409E+03 -7.06829E+03 -1.30009E+03 -1.19268E+04
  6.79621E+03 -1.06055E+04  1.13324E+04 -3.25730E+03  1.11550E+04  3.05935E+03  6.31023E+03  9.20180E+03
  9.80638E+02  1.01472E+04 -3.84800E+03  7.77229E+03 -5.83824E+03  4.15892E+03 -4.83290E+03  2.87796E+02
 -2.79447E+03 -3.28285E+02 -3.19458E+03  1.19523E+03 -4.85921E+03  1.77915E+03 -7.33665E+03 -1.28401E+03
 -7.24786E+03 -5.93140E+03 -2.48337E+03 -1.00137E+04  4.02895E+03 -9.86762E+03  8.94522E+03 -4.88143E+03
  9.77684E+03  1.40113E+03  5.27301E+03  7.52366E+03 -9.17678E+02  9.74115E+03 -7.61924E+03  6.44230E+03
