 $NMID ID='MM_0lb_SNR800_18hz_g40_57.RAW', FMTDAT='(8E13.5)'
 TRAMP=1., VOLUME=1. $END
  3.09962E+05  4.03627E+02  3.37309E+05  2.50333E+05  8.44661E+04  3.36981E+05 -1.32281E+05  2.49984E+05
 -1.89605E+05  8.24913E+04 -1.10932E+05 -3.28564E+04  1.41396E+03 -5.02393E+04  5.36478E+04  1.82637E+02
  3.51203E+04  5.29816E+04 -1.71273E+04  7.48262E+04 -6.03845E+04  6.25713E+04 -8.28175E+04  3.12640E+04
 -7.93105E+04 -1.11739E+04 -5.61968E+04 -5.01157E+04 -1.49586E+04 -6.82400E+04  2.64672E+04 -4.46402E+04
  3.87115E+04  4.11251E+03  1.55909E+04  4.68882E+04 -3.37342E+04  4.62066E+04 -6.50467E+04 -3.92045E+02
 -5.19927E+04 -5.58499E+04 -5.99483E+03 -7.48942E+04  3.28105E+04 -5.29406E+04  4.60822E+04 -1.59488E+04
  4.14198E+04  1.08797E+04  3.05822E+04  2.42711E+04  1.57964E+04  2.80038E+04 -4.63696E+03  2.68308E+04
 -2.17551E+04  1.28505E+04 -1.94039E+04 -4.11389E+03  4.18560E+03 -7.55375E+03  2.11564E+04  1.08248E+04
  7.52933E+03  3.28636E+04 -3.01565E+04  3.39886E+04 -6.09502E+04  1.99922E+03 -5.51559E+04 -4.12950E+04
 -1.24572E+04 -6.06011E+04  3.77796E+04 -4.30224E+04  5.49800E+04 -2.14002E+03  3.17239E+04  3.05688E+04
 -6.69230E+03  3.27447E+04 -2.80271E+04  1.30295E+04 -2.71655E+04 -5.21602E+03 -1.43114E+04 -1.00957E+04
 -7.15609E+03 -1.13513E+04 -7.85441E+02 -1.65446E+04  6.44804E+03 -2.26903E+04  1.50581E+04 -1.39690E+04
  1.22289E+04  4.21141E+03 -6.10254E+03  1.31859E+04 -1.91910E+04 -2.24334E+03 -8.09713E+03 -3.02671E+04
  2.04398E+04 -4.01911E+04  4.42488E+04 -1.84328E+04  4.15629E+04  1.82309E+04  1.40840E+04  4.16173E+04
 -1.54522E+04  3.08291E+04 -2.32266E+04  1.12106E+03 -8.13802E+03 -2.62802E+04  2.04427E+04 -3.09966E+04
  3.75919E+04 -7.03612E+03  3.11681E+04  2.27936E+04  1.50323E+04  4.23533E+04 -7.86855E+03  4.47669E+04
 -2.81231E+04  2.96052E+04 -3.67295E+04  8.10001E+03 -3.81669E+04 -1.49269E+04 -2.10381E+04 -3.42579E+04
  7.00141E+03 -3.39144E+04  2.91586E+04 -1.22442E+04  2.66765E+04  1.06602E+04  2.58304E+03  1.74266E+04
 -1.32425E+04  7.10138E+03 -9.55275E+03 -7.52055E+03  5.99346E+03 -9.83517E+03  1.72570E+04  6.68954E+03
  1.22074E+04  2.17676E+04 -6.69491E+03  2.32384E+04 -2.12688E+04  9.14799E+03 -2.50046E+04 -6.54786E+03
 -1.64246E+04 -1.63380E+04 -5.47722E+03 -1.63523E+04  3.77535E+03 -1.41120E+04  1.24546E+04 -1.41355E+04
  2.07598E+04 -1.15005E+04  2.76965E+04  9.95856E+02  2.09238E+04  1.58142E+04  3.97803E+03  3.19433E+04
 -1.59343E+04  2.76424E+04 -2.59538E+04  9.35346E+03 -1.96236E+04 -1.04810E+04 -3.97863E+03 -1.41263E+04
  2.88330E+03 -4.30449E+03 -2.58555E+03  5.38447E+03 -1.27011E+04  5.38700E+03 -1.32435E+04 -4.61342E+03
 -8.45424E+03 -1.52429E+04  4.59495E+03 -1.93084E+04  1.21620E+04 -1.38150E+04  1.43498E+04 -1.30052E+03
  9.10669E+03  1.06983E+04 -8.92366E+02  1.55103E+04 -1.02628E+04  8.78490E+03 -1.53995E+04 -3.56903E+03
 -1.14139E+04 -1.39031E+04 -1.67497E+03 -1.87459E+04  8.40719E+03 -1.49559E+04  1.59063E+04 -7.13905E+03
  1.42459E+04  7.27648E+02  1.00523E+04  3.98306E+03  5.16997E+03  5.37995E+02  7.49149E+03 -1.17817E+03
  1.36636E+04  2.61165E+03  1.45539E+04  1.24692E+04  9.12050E+03  2.44656E+04 -3.07738E+03  2.63267E+04
 -1.56732E+04  2.00898E+04 -2.39171E+04  9.81271E+03 -2.47750E+04 -1.87740E+03 -2.14480E+04 -1.41122E+04
 -9.83136E+03 -2.00838E+04  6.57666E+03 -1.88323E+04  1.63239E+04 -1.06373E+04  1.53953E+04  3.68197E+03
  6.31497E+03  1.12034E+04 -7.12769E+03  1.04846E+04 -1.31937E+04  2.49338E+03 -1.03545E+04 -7.86575E+03
 -1.36301E+02 -1.21252E+04  6.09424E+03 -9.46677E+03  7.82153E+03 -1.51441E+03  1.31874E+03  5.03688E+03
 -5.33119E+03  1.39798E+03 -3.60211E+03 -4.57922E+03  6.87042E+02 -9.75893E+03  7.68905E+03 -1.00641E+04
  1.24440E+04 -4.45817E+03  1.15899E+04  2.48428E+03  1.02281E+04  9.50077E+03  4.76284E+03  1.40397E+04
 -1.54887E+03  1.56448E+04 -9.63867E+03  1.00424E+04 -1.08335E+04  2.65555E+03 -8.40133E+03 -2.03034E+03
 -4.53979E+03 -3.23833E+03 -8.42659E+02  1.54417E+03 -2.23647E+03  2.07446E+03 -3.58806E+03  3.61695E+03
 -8.23274E+03 -1.82339E+02 -8.59518E+03 -7.14664E+03 -3.43764E+03 -1.14489E+04  3.55743E+03 -8.33572E+03
  7.14776E+03 -3.64638E+03  5.08814E+03  2.02173E+03  6.58374E+02  2.78683E+03 -3.48665E+03 -2.67749E+02
 -3.35371E+03 -4.96842E+03 -4.92484E+02 -7.04169E+03  3.82916E+03 -7.67145E+03  9.66945E+03 -3.92774E+03
  1.18662E+04  7.42420E+02  8.76899E+03  6.08049E+03  1.40295E+03  8.59695E+03 -5.17649E+03  8.28640E+03
 -7.21481E+03  2.91637E+03 -3.56817E+03 -1.17208E+03  1.40290E+03 -1.81363E+03  5.13352E+03 -1.05538E+03
  3.99460E+03  3.48131E+03  9.74254E+02  6.43316E+03 -4.41880E+03  6.41326E+03 -7.99352E+03  1.72066E+03
 -4.91129E+03 -3.68695E+03  5.47915E+02 -6.84481E+03  3.66521E+03 -3.15671E+03  3.51803E+03  1.02087E+03
  6.09849E+02  3.18315E+03 -4.04711E+03  4.77628E+03 -4.73281E+03  2.35434E+03 -4.35429E+03 -1.07013E+03
 -2.90357E+03 -5.84709E+03  1.05757E+03 -7.18820E+03  6.09077E+03 -4.61065E+03  6.36343E+03  8.95261E+02
  4.45922E+03  5.09203E+03  4.19930E+02  7.12916E+03 -5.30849E+03  4.22504E+03 -5.37917E+03 -5.67821E+02
 -5.67100E+03 -4.98100E+03 -1.27307E+03 -5.11890E+03  2.62785E+03 -4.57253E+03  2.79302E+03 -2.74950E+03
  2.75455E+03  1.89301E+02 -2.05285E+02  1.36672E+03  5.40986E+02 -2.26640E+02  2.13701E+02 -2.00543E+03
  3.96957E+03 -8.77534E+02  5.30628E+03  6.37842E+02  5.66250E+03  2.94585E+03  5.30043E+03  7.21876E+03
 -1.26894E+03  8.52096E+03 -7.31735E+03  6.61916E+03 -1.00598E+04  9.57270E+02 -7.86642E+03 -2.61899E+03
 -4.13072E+03 -6.47103E+03 -5.77696E+02 -5.26745E+03  2.01321E+03 -2.05784E+03  1.69084E+03 -2.05990E+03
  1.37815E+03 -1.48803E+03  2.10088E+03 -2.36027E+03  3.44280E+03 -1.37717E+03  3.56331E+03  4.73479E+02
  4.58358E+03  1.06811E+03  1.01457E+03  3.38105E+03 -1.61525E+03  2.94823E+03 -4.34908E+03  2.48683E+03
 -4.99528E+03 -9.48260E+02 -1.90172E+03 -3.36879E+03  6.34676E+02 -5.06782E+03  2.98122E+03 -5.40259E+03
  5.06763E+03 -3.64848E+03  6.85224E+03 -2.91146E+01  4.93722E+03  4.50609E+03  1.08873E+03  5.80122E+03
 -2.31387E+03  5.42019E+03 -3.43047E+03  1.91993E+03 -1.94625E+03 -9.99899E+02 -7.45187E+02 -5.44476E+02
 -3.83063E+02  4.00934E+02 -9.21772E+02  2.00688E+03 -2.61480E+03  1.38315E+03 -4.11652E+03 -5.08379E+02
 -1.45409E+03 -3.80068E+03  9.01664E+02 -4.64987E+03  2.80564E+03 -4.20303E+03  3.70990E+03 -9.06822E+02
  4.20552E+03  2.55508E+03  1.92560E+03  3.33742E+03 -8.32511E+02  4.35015E+03 -2.70391E+03  2.74134E+03
 -3.76117E+03  5.52406E+02 -3.63176E+03 -2.53045E+03 -1.76924E+02 -3.36158E+03  1.56204E+03 -2.37051E+03
  2.75240E+03 -1.45769E+03  1.73314E+03  3.75986E+02  6.61135E+02  1.52090E+03  9.52271E+02  5.18596E+02
  1.59341E+03  4.78599E+02  1.40139E+03  1.12111E+03  1.17624E+03  2.22630E+03  1.57216E+03  1.91850E+03
 -1.16685E+03  3.16579E+03 -2.56465E+03  3.93568E+03 -3.38794E+03  1.17984E+03 -4.29866E+03 -5.60251E+02
 -1.94841E+03 -3.69972E+03  7.53424E+02 -4.69579E+03  2.03374E+03 -2.89426E+03  3.24199E+03 -1.10261E+03
  2.75666E+03  1.83096E+03  3.57227E+02  2.52970E+03 -6.25495E+02  1.53913E+03 -9.34904E+02 -7.50359E+01
 -3.35816E+02 -1.64680E+03  1.24920E+03 -1.44542E+03  1.50970E+03 -1.09553E+03  1.24983E+03  4.55262E+02
  7.23105E+02  1.67930E+02  9.09007E+02 -1.28064E+02 -1.93546E+02  8.57077E+02  1.45369E+03 -1.42570E+02
  2.89146E+02 -4.72070E+01  2.11439E+03  6.88532E+02  2.99168E+02  2.37547E+03 -4.11136E+02  3.06443E+03
 -1.59286E+03  1.18909E+03 -1.95213E+03  2.59250E+02 -2.35233E+03 -8.37634E+02 -2.12937E+02 -1.06666E+03
  6.55332E+02 -1.27471E+03  7.38252E+02 -8.68840E+02  5.42818E+02  1.22283E+03 -5.01088E+02  8.60794E+02
 -1.56469E+03  6.06702E+02 -1.37151E+03 -1.47016E+03 -7.91633E+02 -2.38640E+03  1.95203E+02 -1.71794E+03
  2.38551E+02 -7.12938E+02  6.99481E+02  2.17080E+02  1.31528E+03 -6.36449E+01  3.26869E+02  1.29701E+03
 -2.46800E+02  3.97154E+01 -1.31107E+03 -2.83224E+02  5.11201E+02 -8.16416E+02  1.82572E+03 -9.48526E+02
  1.54613E+03  1.97709E+02  2.77567E+03  1.12318E+03  1.09046E+03  1.97577E+03 -5.47112E+02  1.80454E+03
 -1.65735E+03  1.91719E+02 -1.73772E+03 -9.55306E+01 -1.07255E+03 -1.55026E+03  7.57669E+01 -3.68165E+02
  1.57311E+03 -6.98969E+02  9.00538E+02  8.63336E+02  2.34612E+02  1.28213E+03  1.06724E+02  8.46601E+02
 -4.63714E+02  1.34107E+03 -4.64565E+02  5.16169E+02  1.90650E+02  5.85785E+02 -8.94817E+02  4.26274E+02
 -7.39772E+02  1.14750E+03 -1.89291E+03  6.70415E+02 -1.71907E+03  9.64971E+01 -2.74266E+03 -1.30367E+03
 -1.32497E+03 -2.31413E+03  3.46240E+02 -2.78336E+03  1.09251E+03 -2.48237E+03  2.99291E+03 -1.08331E+03
  2.84308E+03 -1.49386E+02  1.26374E+03  1.68697E+03 -4.25746E+02  1.59887E+03 -7.48114E+02  1.45089E+03
 -8.88608E+02  6.90039E+02 -5.98103E+02 -3.24416E+02 -4.77247E+02  1.86401E+02 -5.31109E+02 -8.10807E+01
 -1.07491E+03  1.26789E+02 -7.13464E+02  5.11052E+01  3.43272E+02 -6.83855E+02 -6.02705E+02 -1.07200E+03
  1.29367E+03 -6.25224E+02  3.97525E+02  6.39953E+01  1.26369E+03  1.07820E+03 -2.20627E+02  1.73122E+03
 -1.18352E+03  2.55492E+03 -1.81021E+03  1.49194E+03 -2.05403E+03 -1.50757E+02 -1.40371E+03 -1.54435E+03
 -9.45002E+02 -1.40329E+03  6.78375E+01 -1.43080E+03  5.60327E+02 -9.25813E+02  6.53478E+02  1.60713E+02
  8.75393E+02  2.97040E+02 -4.03446E+01  1.56408E+02 -3.27412E+02  5.10819E+01 -2.36543E+01 -2.84997E+01
  4.08304E+02  2.06832E+02  3.51751E+02  4.49777E+02  2.47886E+02  4.89008E+02  5.36741E+02  3.88222E+02
 -9.58992E+02  9.06760E+02 -8.98604E+02  2.41373E+02 -1.03298E+03 -4.61010E+02 -2.19847E+02 -1.36322E+03
  4.61289E+02 -1.01954E+03  6.01058E+02 -3.17703E+02  1.30127E+03 -3.24211E+02  4.23732E+02  9.41736E+02
  5.28383E+02  6.84303E+02 -2.81012E+02  6.97312E+02 -8.50498E+02  6.96905E+02 -3.21582E+02  1.45468E+02
 -8.77006E+01 -2.23667E+02 -5.37612E+02  1.53449E+02 -5.67350E+02 -4.39779E+01 -7.03320E+02 -2.22182E+02
 -9.29089E+02  4.14157E+02 -3.76233E+02 -1.01555E+03  6.33692E+02 -1.72622E+03  9.62791E+02 -6.44332E+02
  6.36462E+02  1.43204E+02 -3.71902E+01  3.03733E+02 -3.38547E+02  8.33432E+02 -3.87526E+02  6.00895E+02
