 $NMID ID='MM_0lb_SNR800_9hz_g55_75.RAW', FMTDAT='(8E13.5)'
 TRAMP=1., VOLUME=1. $END
  3.09925E+05  3.24895E+02  3.37871E+05  2.50699E+05  8.48669E+04  3.38632E+05 -1.32738E+05  2.51893E+05
 -1.91089E+05  8.38450E+04 -1.12448E+05 -3.20220E+04  2.10995E+02 -5.10599E+04  5.39054E+04 -4.75335E+02
  3.56847E+04  5.29560E+04 -1.71252E+04  7.62871E+04 -6.12987E+04  6.45690E+04 -8.54065E+04  3.25353E+04
 -8.23890E+04 -1.20094E+04 -5.81632E+04 -5.23067E+04 -1.54078E+04 -7.11260E+04  2.83519E+04 -4.68781E+04
  4.11385E+04  3.43826E+03  1.71496E+04  4.88954E+04 -3.47221E+04  4.83659E+04 -6.83912E+04  2.60254E+02
 -5.52350E+04 -5.75712E+04 -7.46696E+03 -7.93358E+04  3.52678E+04 -5.77549E+04  4.98729E+04 -1.87011E+04
  4.53963E+04  1.16563E+04  3.28304E+04  2.66346E+04  1.59442E+04  3.07710E+04 -6.03201E+03  2.72870E+04
 -2.28053E+04  1.18083E+04 -1.78988E+04 -5.69055E+03  6.91219E+03 -7.20004E+03  2.35192E+04  1.38596E+04
  6.81171E+03  3.73035E+04 -3.40576E+04  3.71301E+04 -6.62527E+04  2.18510E+03 -5.90187E+04 -4.51071E+04
 -1.25477E+04 -6.66422E+04  4.18574E+04 -4.73620E+04  6.15877E+04 -2.47500E+03  3.69611E+04  3.41976E+04
 -5.70387E+03  3.97679E+04 -3.19322E+04  1.93121E+04 -3.37181E+04 -3.10384E+03 -1.91448E+04 -1.20632E+04
 -9.63100E+03 -1.54234E+04  1.37197E+01 -2.01266E+04  8.39284E+03 -2.35068E+04  1.62485E+04 -1.26819E+04
  1.04510E+04  6.34307E+03 -1.08642E+04  1.28024E+04 -2.31370E+04 -6.55085E+03 -8.76908E+03 -3.78041E+04
  2.56029E+04 -4.70021E+04  5.22850E+04 -2.07854E+04  4.88999E+04  2.09627E+04  1.79720E+04  4.75644E+04
 -1.68585E+04  3.57533E+04 -2.79018E+04  2.55381E+03 -1.18967E+04 -2.95538E+04  2.21362E+04 -3.70231E+04
  4.52754E+04 -1.12447E+04  4.12945E+04  2.50073E+04  2.15889E+04  5.13877E+04 -8.22474E+03  5.68810E+04
 -3.60767E+04  3.87484E+04 -4.78531E+04  1.12964E+04 -4.81714E+04 -1.87993E+04 -2.61159E+04 -4.29335E+04
  7.92542E+03 -4.25365E+04  3.47703E+04 -1.73880E+04  3.25669E+04  1.12962E+04  5.41832E+03  2.07308E+04
 -1.36523E+04  9.88494E+03 -1.09894E+04 -8.01848E+03  5.62590E+03 -1.15196E+04  1.92671E+04  5.05988E+03
  1.53170E+04  2.26033E+04 -5.26445E+03  2.72411E+04 -2.29552E+04  1.42652E+04 -3.18718E+04 -2.98871E+03
 -2.58260E+04 -1.85756E+04 -1.23046E+04 -2.56223E+04  4.05979E+03 -2.62160E+04  2.03413E+04 -2.36356E+04
  3.28551E+04 -1.48012E+04  3.88124E+04  5.11613E+03  2.74726E+04  2.53849E+04  4.27191E+03  4.21780E+04
 -2.00686E+04  3.38966E+04 -3.07586E+04  1.20038E+04 -2.27357E+04 -9.78408E+03 -4.66104E+03 -1.29395E+04
  8.70022E+02 -7.50585E+02 -7.85026E+03  8.61924E+03 -2.06514E+04  5.02911E+03 -2.02592E+04 -9.91260E+03
 -1.25490E+04 -2.35488E+04  6.19776E+03 -2.78567E+04  1.87229E+04 -1.99058E+04  2.30338E+04 -1.48338E+03
  1.51070E+04  1.66154E+04 -1.56645E+03  2.39094E+04 -1.71055E+04  1.39286E+04 -2.41052E+04 -5.04722E+03
 -1.74271E+04 -2.15816E+04 -2.34065E+03 -2.84899E+04  1.29773E+04 -2.37806E+04  2.35960E+04 -1.22033E+04
  2.24774E+04 -7.93657E+02  1.60330E+04  5.10538E+03  8.78445E+03  1.39892E+03  1.23161E+04 -1.87982E+03
  2.27049E+04  2.30529E+03  2.61839E+04  1.86511E+04  1.77367E+04  3.85691E+04 -2.57125E+03  4.53753E+04
 -2.55390E+04  3.76111E+04 -4.25155E+04  1.97842E+04 -4.59743E+04 -3.21808E+03 -3.69196E+04 -2.68140E+04
 -1.43967E+04 -3.78179E+04  1.36574E+04 -3.36502E+04  2.87968E+04 -1.55329E+04  2.48712E+04  8.48893E+03
  8.36596E+03  1.89983E+04 -1.21673E+04  1.62351E+04 -2.07422E+04  2.81621E+03 -1.52877E+04 -1.35135E+04
 -8.08061E+01 -1.96513E+04  1.08817E+04 -1.47628E+04  1.38412E+04 -9.87973E+02  3.75342E+03  9.03074E+03
 -8.94459E+03  4.04361E+03 -9.72173E+03 -7.24406E+03 -1.95209E+03 -1.85973E+04  1.21237E+04 -2.04349E+04
  2.36047E+04 -1.15596E+04  2.68845E+04  3.50132E+03  2.37541E+04  1.89394E+04  1.07788E+04  2.98741E+04
 -5.75316E+03  3.18477E+04 -2.08515E+04  1.96887E+04 -2.33791E+04  4.37197E+03 -1.54649E+04 -6.11124E+03
 -6.66526E+03 -7.83915E+03 -5.32145E+02  2.22002E+02 -2.99798E+03  3.76729E+03 -7.98275E+03  5.41512E+03
 -1.48367E+04 -1.10561E+03 -1.49408E+04 -1.19762E+04 -5.92178E+03 -1.96056E+04  6.64942E+03 -1.59336E+04
  1.27656E+04 -6.48578E+03  9.36111E+03  4.17367E+03 -4.55840E+02  6.34147E+03 -8.67860E+03 -3.62497E+02
 -7.54548E+03 -1.01543E+04 -1.42168E+03 -1.59987E+04  9.25589E+03 -1.70641E+04  2.04327E+04 -9.03779E+03
  2.41875E+04  2.80108E+03  1.76778E+04  1.49986E+04  3.51096E+03  1.94220E+04 -9.91644E+03  1.59908E+04
 -1.31138E+04  4.73504E+03 -6.43969E+03 -3.71632E+03  2.01366E+03 -4.71757E+03  8.31200E+03 -1.10257E+03
  7.67057E+03  7.05779E+03  1.06582E+03  1.27755E+04 -8.95550E+03  1.26148E+04 -1.58190E+04  3.19210E+03
 -1.11164E+04 -8.52898E+03  3.02854E+02 -1.38992E+04  9.09010E+03 -7.07017E+03  9.81005E+03  3.94802E+03
  2.34425E+03  1.06564E+04 -8.09673E+03  1.19776E+04 -1.38187E+04  5.36533E+03 -1.45401E+04 -5.39351E+03
 -8.59997E+03 -1.65321E+04  3.89528E+03 -1.86857E+04  1.61978E+04 -1.10783E+04  1.73819E+04  3.47347E+03
  1.01872E+04  1.36774E+04 -1.52142E+03  1.61488E+04 -1.17281E+04  9.06719E+03 -1.32617E+04 -1.24058E+03
 -1.08467E+04 -1.07427E+04 -1.83261E+03 -1.22979E+04  6.58767E+03 -9.71886E+03  8.48627E+03 -3.72591E+03
  5.27612E+03  2.51001E+03 -1.22041E+03  1.92090E+03 -1.17763E+03 -3.46215E+03  3.06664E+03 -8.12411E+03
  1.21545E+04 -5.23591E+03  1.63985E+04  1.46794E+03  1.63346E+04  1.14872E+04  1.03476E+04  2.17993E+04
 -5.36611E+03  2.46541E+04 -2.04846E+04  1.81955E+04 -2.65456E+04  3.23896E+03 -2.14521E+04 -9.68866E+03
 -1.08941E+04 -1.72790E+04 -7.19629E+02 -1.51831E+04  5.60670E+03 -8.24083E+03  5.44303E+03 -5.44716E+03
  4.18104E+03 -3.12560E+03  4.15253E+03 -3.74676E+03  5.88975E+03 -3.56502E+03  8.64652E+03 -1.67835E+03
  1.10744E+04  2.66173E+03  5.96070E+03  9.76931E+03 -2.37734E+03  1.16167E+04 -1.20631E+04  8.49370E+03
 -1.54605E+04 -1.39471E+03 -9.67773E+03 -1.06949E+04 -1.61748E+03 -1.66323E+04  9.30557E+03 -1.68469E+04
  1.71133E+04 -9.20000E+03  2.08223E+04  2.99394E+03  1.41593E+04  1.43771E+04  2.03703E+03  1.83336E+04
 -7.28378E+03  1.47675E+04 -1.11591E+04  5.04242E+03 -7.65102E+03 -1.62430E+03 -2.96873E+03 -2.30724E+03
 -1.31219E+03 -3.05432E+01 -2.32352E+03  2.97047E+03 -6.55119E+03  2.28411E+03 -1.05670E+04 -1.55233E+03
 -7.56498E+03 -1.10208E+04 -3.11813E+02 -1.52451E+04  9.78669E+03 -1.41719E+04  1.52768E+04 -4.50511E+03
  1.55028E+04  7.46960E+03  7.39994E+03  1.41565E+04 -3.14242E+03  1.55777E+04 -1.12356E+04  9.78462E+03
 -1.48780E+04 -1.70328E+02 -1.11965E+04 -9.19802E+03 -1.12831E+03 -1.28232E+04  6.53856E+03 -9.68524E+03
  9.66702E+03 -3.06264E+03  6.27757E+03  2.83518E+03  2.37594E+03  4.87290E+03  1.29454E+03  2.40675E+03
  2.97167E+03  1.54822E+03  3.29778E+03  2.14836E+03  4.75278E+03  5.15320E+03  3.92600E+03  8.20899E+03
 -3.03638E+03  1.21328E+04 -1.08442E+04  1.20913E+04 -1.60434E+04  3.24385E+03 -1.65663E+04 -6.56074E+03
 -8.06012E+03 -1.54812E+04  2.54359E+03 -1.65629E+04  9.51909E+03 -1.10321E+04  1.25807E+04 -2.41356E+03
  1.02101E+04  5.48698E+03  2.15600E+03  8.51991E+03 -4.72772E+03  6.01233E+03 -6.45884E+03 -1.09440E+03
 -3.11693E+03 -6.98620E+03  3.70566E+03 -6.82662E+03  6.67090E+03 -3.53590E+03  6.16035E+03  1.41075E+03
  3.84231E+03  3.46698E+03  1.19431E+03  2.78658E+03 -8.03918E+02  2.51502E+03  1.73528E+03 -7.72052E+02
  3.06867E+03 -9.71062E+02  6.57532E+03  2.00884E+03  3.24652E+03  8.17682E+03 -1.20073E+03  1.12787E+04
 -7.37449E+03  7.14737E+03 -9.97430E+03  2.51562E+03 -8.83970E+03 -3.74515E+03 -3.70311E+03 -6.53495E+03
  9.50481E+02 -6.66341E+03  4.25324E+03 -2.56056E+03  3.78030E+03  3.18372E+03 -1.36852E+03  5.17754E+03
 -6.79777E+03  2.90102E+03 -7.67621E+03 -3.71850E+03 -4.15000E+03 -9.06408E+03  1.41487E+03 -8.55431E+03
  5.02202E+03 -5.64298E+03  6.23165E+03 -4.36399E+02  5.20682E+03  2.31406E+03  7.39996E+02  4.87595E+03
 -3.37850E+03  1.34912E+03 -4.17657E+03 -3.22972E+03  1.52628E+03 -6.50316E+03  7.55005E+03 -5.38758E+03
  1.02581E+04  1.01312E+03  9.95808E+03  6.96268E+03  3.22591E+03  1.01678E+04 -4.20614E+03  9.96088E+03
 -8.46150E+03  4.22468E+03 -8.75503E+03 -1.56330E+03 -5.18388E+03 -7.12561E+03  1.70410E+03 -6.52834E+03
  6.62521E+03 -3.25655E+03  5.49860E+03  2.75734E+03  1.77103E+03  5.80488E+03 -1.32203E+03  4.85434E+03
 -2.93914E+03  3.27752E+03 -2.56574E+03  1.16869E+03 -8.81388E+02  8.45851E+02 -1.64108E+03  1.65972E+03
 -2.83322E+03  3.84762E+03 -6.60251E+03  4.00488E+03 -1.05092E+04  3.68420E+02 -1.14258E+04 -7.20798E+03
 -6.07495E+03 -1.36965E+04  2.57724E+03 -1.59152E+04  9.55374E+03 -1.27737E+04  1.50805E+04 -4.64636E+03
  1.45842E+04  2.95288E+03  8.66714E+03  9.36181E+03  4.64006E+02  1.07488E+04 -4.25286E+03  8.02747E+03
 -6.15351E+03  2.58281E+03 -3.70581E+03 -1.40382E+03 -1.21709E+03 -1.39118E+03 -9.40201E+02 -3.21601E+02
 -1.75604E+03  4.17723E+02 -2.64838E+03 -3.51360E+02 -1.32637E+03 -2.74177E+03  4.53099E+01 -4.18175E+03
  5.19468E+03 -3.60970E+03  6.69832E+03 -2.94632E+02  7.33089E+03  5.46633E+03  2.32215E+03  1.04715E+04
 -5.34303E+03  1.24414E+04 -1.17154E+04  7.45905E+03 -1.34208E+04 -1.41007E+03 -9.87435E+03 -8.43243E+03
 -4.14028E+03 -1.11900E+04  2.89150E+03 -1.03544E+04  7.23283E+03 -5.17715E+03  7.06408E+03  2.57362E+02
  3.72503E+03  3.52882E+03 -1.53476E+02  2.93354E+03 -1.87639E+03  2.21512E+02  2.90118E+02 -2.89682E+03
  3.68694E+03 -1.88474E+03  4.40582E+03  1.53527E+03  3.01191E+03  4.19248E+03  1.12913E+02  5.85567E+03
 -4.76688E+03  5.13050E+03 -7.39877E+03  4.40257E+02 -6.57532E+03 -4.87445E+03 -1.08614E+03 -8.97537E+03
  5.30192E+03 -7.61824E+03  8.37252E+03 -2.27609E+03  8.61037E+03  2.60919E+03  4.76944E+03  6.82357E+03
  9.38542E+02  7.15988E+03 -2.98986E+03  5.91470E+03 -4.25297E+03  3.36084E+03 -4.16995E+03  4.66670E+02
 -1.94689E+03  7.48166E+01 -1.78055E+03  1.04535E+03 -3.79556E+03  1.11677E+03 -5.57100E+03 -1.14579E+03
 -5.65816E+03 -3.92479E+03 -1.52102E+03 -7.04059E+03  3.13970E+03 -7.26119E+03  6.32000E+03 -3.56831E+03
  6.99028E+03  7.86547E+02  3.79052E+03  4.93942E+03 -7.44502E+02  7.62332E+03 -5.79081E+03  4.76777E+03
