 $NMID ID='MM_0lb_SNR800_20hz_g40_27.RAW', FMTDAT='(8E13.5)'
 TRAMP=1., VOLUME=1. $END
  3.09770E+05  2.61814E+02  3.37210E+05  2.50320E+05  8.43523E+04  3.37303E+05 -1.32468E+05  2.49882E+05
 -1.89546E+05  8.22228E+04 -1.10717E+05 -3.29644E+04  2.02225E+03 -5.01500E+04  5.42199E+04  4.62732E+02
  3.49915E+04  5.28570E+04 -1.70229E+04  7.43339E+04 -6.00523E+04  6.23445E+04 -8.23337E+04  3.10661E+04
 -7.88185E+04 -1.09767E+04 -5.59172E+04 -4.94567E+04 -1.48360E+04 -6.73862E+04  2.63808E+04 -4.41263E+04
  3.84997E+04  3.95497E+03  1.51998E+04  4.65655E+04 -3.38283E+04  4.56698E+04 -6.46037E+04 -7.59974E+02
 -5.13504E+04 -5.52054E+04 -6.11227E+03 -7.40736E+04  3.27375E+04 -5.21547E+04  4.53993E+04 -1.58695E+04
  4.04449E+04  1.07906E+04  3.01925E+04  2.38475E+04  1.58140E+04  2.75182E+04 -4.22301E+03  2.65634E+04
 -2.15222E+04  1.30194E+04 -1.96881E+04 -3.69267E+03  3.65007E+03 -7.84846E+03  2.05744E+04  1.01680E+04
  7.57937E+03  3.20862E+04 -2.96164E+04  3.32273E+04 -5.97470E+04  2.31483E+03 -5.45362E+04 -4.03303E+04
 -1.24955E+04 -5.92556E+04  3.73979E+04 -4.22913E+04  5.43313E+04 -1.98288E+03  3.06012E+04  2.97438E+04
 -6.86310E+03  3.16747E+04 -2.74846E+04  1.21458E+04 -2.61564E+04 -5.87175E+03 -1.29699E+04 -9.56143E+03
 -6.63890E+03 -1.02437E+04 -1.39376E+03 -1.58711E+04  6.24701E+03 -2.23967E+04  1.43822E+04 -1.43791E+04
  1.27249E+04  3.97394E+03 -5.30729E+03  1.32656E+04 -1.86720E+04 -1.65616E+03 -8.05186E+03 -2.86331E+04
  1.97127E+04 -3.89874E+04  4.30279E+04 -1.81296E+04  4.05538E+04  1.77456E+04  1.37021E+04  4.01956E+04
 -1.49741E+04  2.97850E+04 -2.25329E+04  4.48038E+02 -7.57582E+03 -2.57773E+04  2.01264E+04 -2.98993E+04
  3.67775E+04 -6.56545E+03  2.94597E+04  2.23191E+04  1.40574E+04  4.06901E+04 -7.88591E+03  4.26966E+04
 -2.68261E+04  2.79896E+04 -3.51495E+04  7.45779E+03 -3.60919E+04 -1.40583E+04 -2.03384E+04 -3.27933E+04
  6.66913E+03 -3.24131E+04  2.82227E+04 -1.18426E+04  2.57489E+04  1.06918E+04  2.60974E+03  1.70140E+04
 -1.27498E+04  6.87007E+03 -9.07349E+03 -7.76153E+03  6.00782E+03 -9.89570E+03  1.67737E+04  6.35728E+03
  1.17319E+04  2.12940E+04 -6.77478E+03  2.26643E+04 -2.11025E+04  8.33230E+03 -2.37559E+04 -6.83312E+03
 -1.53786E+04 -1.59207E+04 -4.48800E+03 -1.50200E+04  3.78047E+03 -1.23576E+04  1.06012E+04 -1.29539E+04
  1.91299E+04 -1.11573E+04  2.60050E+04  4.04361E+02  2.02514E+04  1.47167E+04  3.92135E+03  3.05286E+04
 -1.54265E+04  2.62885E+04 -2.49655E+04  9.04830E+03 -1.91473E+04 -1.04393E+04 -3.66623E+03 -1.41544E+04
  2.81812E+03 -4.59572E+03 -1.59779E+03  5.07736E+03 -1.17320E+04  5.38925E+03 -1.20186E+04 -4.11007E+03
 -7.71009E+03 -1.38262E+04  4.23720E+03 -1.79491E+04  1.12022E+04 -1.29569E+04  1.32476E+04 -1.51310E+03
  7.86746E+03  9.75038E+03 -8.65544E+02  1.45025E+04 -8.97781E+03  7.85623E+03 -1.39611E+04 -2.87128E+03
 -1.04891E+04 -1.28880E+04 -1.30808E+03 -1.73757E+04  7.85918E+03 -1.39392E+04  1.49043E+04 -6.21003E+03
  1.31750E+04  8.19456E+02  9.23188E+03  3.59286E+03  4.47582E+03  3.75681E+02  6.52770E+03 -1.26785E+03
  1.28076E+04  2.65447E+03  1.25241E+04  1.17330E+04  7.65384E+03  2.21956E+04 -3.03378E+03  2.36141E+04
 -1.40813E+04  1.73947E+04 -2.14478E+04  8.17033E+03 -2.17857E+04 -1.77471E+03 -1.90044E+04 -1.21650E+04
 -9.35087E+03 -1.76670E+04  5.68875E+03 -1.68236E+04  1.46753E+04 -1.01138E+04  1.41302E+04  3.01756E+03
  6.26157E+03  9.82266E+03 -6.06441E+03  9.62316E+03 -1.24634E+04  2.74061E+03 -9.52742E+03 -7.08920E+03
 -2.27834E+01 -1.14453E+04  5.75307E+03 -8.53823E+03  6.97395E+03 -1.57569E+03  1.05908E+03  4.47713E+03
 -5.25488E+03  8.95995E+02 -2.87034E+03 -4.49696E+03  8.99913E+02 -8.39780E+03  7.29165E+03 -8.54302E+03
  1.04889E+04 -3.62136E+03  9.91211E+03  2.67245E+03  8.21830E+03  8.04867E+03  4.03249E+03  1.14825E+04
 -8.80155E+02  1.37103E+04 -7.77941E+03  8.67659E+03 -9.63555E+03  2.64039E+03 -7.22224E+03 -1.37609E+03
 -4.16769E+03 -2.78331E+03 -8.59559E+02  1.75812E+03 -1.66789E+03  1.73311E+03 -3.30953E+03  3.17475E+03
 -7.16409E+03 -2.41532E+02 -8.01136E+03 -6.59514E+03 -3.02575E+03 -1.06030E+04  3.19174E+03 -7.47861E+03
  6.19122E+03 -3.35086E+03  5.11441E+03  1.97892E+03  8.14820E+02  2.92120E+03 -3.00777E+03 -3.10953E+02
 -3.05039E+03 -4.35607E+03 -6.58854E+02 -6.14384E+03  3.32981E+03 -6.69110E+03  8.40592E+03 -3.25783E+03
  9.91397E+03  3.98210E+02  7.66245E+03  4.96928E+03  1.56837E+03  7.01924E+03 -4.81838E+03  7.22800E+03
 -6.08994E+03  2.69879E+03 -3.01144E+03 -8.90450E+02  1.39607E+03 -1.59896E+03  4.34285E+03 -1.01097E+03
  3.88281E+03  2.91709E+03  1.07639E+03  5.43230E+03 -3.94138E+03  5.69998E+03 -6.96859E+03  1.84526E+03
 -4.04710E+03 -2.99783E+03  3.80462E+02 -5.71020E+03  3.00660E+03 -2.73720E+03  2.71714E+03  6.85456E+02
  5.54240E+01  2.43533E+03 -3.51293E+03  4.00138E+03 -3.74029E+03  1.92060E+03 -3.52474E+03 -7.66966E+02
 -2.40412E+03 -4.84125E+03  7.76213E+02 -5.72132E+03  4.61275E+03 -3.89256E+03  5.34996E+03  4.79892E+02
  4.11041E+03  3.98927E+03  4.27647E+02  6.33012E+03 -4.07632E+03  3.75108E+03 -4.41824E+03 -4.17331E+02
 -4.84887E+03 -4.58113E+03 -1.22367E+03 -4.10949E+03  2.18834E+03 -3.94449E+03  2.43804E+03 -2.72859E+03
  2.36373E+03  6.05646E+01 -1.01270E+02  1.23671E+03  4.76093E+02  1.55831E+02 -1.20613E+02 -1.24112E+03
  3.09347E+03 -1.88383E+02  3.96176E+03  4.88260E+02  4.25036E+03  2.13353E+03  4.75545E+03  5.71840E+03
 -6.07497E+02  6.79918E+03 -6.14150E+03  5.56070E+03 -8.46999E+03  7.64931E+02 -6.38232E+03 -1.97387E+03
 -3.44726E+03 -5.31902E+03 -6.88770E+02 -4.05545E+03  1.72218E+03 -1.69016E+03  1.45356E+03 -1.83968E+03
  9.67772E+02 -1.06037E+03  1.98893E+03 -2.05458E+03  3.19273E+03 -8.89528E+02  3.22526E+03  3.17089E+02
  4.03837E+03  9.45012E+02  7.46610E+02  2.62074E+03 -1.51193E+03  2.00850E+03 -3.67641E+03  2.15013E+03
 -3.69274E+03 -1.10382E+03 -1.11404E+03 -2.79472E+03  6.16718E+02 -3.97875E+03  2.70493E+03 -4.31153E+03
  3.89530E+03 -2.77832E+03  5.62000E+03 -3.42727E+02  4.03101E+03  3.14701E+03  8.03370E+02  5.10687E+03
 -1.40343E+03  4.82930E+03 -2.74476E+03  1.66235E+03 -1.40394E+03 -6.01636E+02 -2.22779E+02 -4.54630E+02
 -2.90585E+02  4.41747E+02 -6.61491E+02  1.87349E+03 -2.18180E+03  8.60044E+02 -3.66793E+03 -1.03523E+02
 -9.78082E+02 -3.57669E+03  6.64578E+02 -3.66367E+03  2.15359E+03 -3.66267E+03  2.54190E+03 -8.69738E+02
  3.21154E+03  2.19516E+03  1.50200E+03  2.36921E+03 -5.74415E+02  3.23330E+03 -1.94526E+03  2.31117E+03
 -2.68846E+03  3.53685E+02 -2.82059E+03 -1.58307E+03 -1.90113E+02 -2.30180E+03  1.01854E+03 -1.99377E+03
  2.09389E+03 -1.19303E+03  1.61764E+03  4.77728E+02  2.44790E+02  1.47708E+03  9.01637E+02  3.60601E+02
  1.50500E+03  4.85674E+02  8.06257E+02  8.16800E+02  7.80871E+02  2.10863E+03  1.66337E+03  1.06925E+03
 -1.25428E+03  2.24866E+03 -1.83569E+03  3.51067E+03 -1.96295E+03  1.08013E+03 -3.09970E+03  1.53009E+02
 -1.17447E+03 -2.76782E+03  5.95981E+02 -3.76088E+03  1.55047E+03 -1.94820E+03  2.19654E+03 -8.50563E+02
  1.92574E+03  1.58326E+03  1.76577E+02  1.70308E+03 -3.05419E+02  9.26174E+02 -8.99286E+02 -1.20771E+02
 -5.41256E+02 -1.05306E+03  1.04100E+03 -1.09844E+03  6.51999E+02 -7.00429E+02  1.21016E+03  1.84239E+02
  6.66856E+02  2.74431E+02  7.69426E+02 -6.19270E+02 -2.91246E+02  6.76699E+02  1.69047E+03 -2.20276E+02
 -7.45632E+01  9.60254E+01  1.83524E+03  5.32500E+02 -2.79072E+02  1.81423E+03 -5.01504E+02  2.37874E+03
 -1.22020E+03  5.14942E+02 -1.37213E+03  5.25148E+01 -1.82372E+03 -4.29300E+02 -1.21824E+02 -6.12693E+02
  7.18472E+02 -8.88190E+02  6.69066E+02 -4.76885E+02  3.12722E+02  1.37412E+03 -5.72025E+02  8.12671E+02
 -1.23790E+03  5.59021E+02 -8.78797E+02 -9.26068E+02 -5.80869E+02 -2.00991E+03  1.86920E+02 -1.15854E+03
  8.57991E+01 -1.50375E+02  2.36657E+02  3.51757E+02  1.03905E+03 -2.22295E+02  9.30644E+01  9.43358E+02
 -1.10989E+02  1.61662E+02 -9.50439E+02 -1.24921E+02  6.34355E+02 -3.95562E+02  1.53715E+03 -4.81522E+02
  7.10940E+02  9.16400E+01  2.40958E+03  3.90580E+02  1.05266E+03  8.33333E+02  1.23686E+02  1.42225E+03
 -1.16021E+03 -5.70073E+01 -1.33606E+03  7.19385E+01 -6.43482E+02 -9.25398E+02  4.27717E+02 -3.21038E+02
  1.32834E+03 -6.56500E+02  5.45512E+02  6.01247E+02 -9.47349E+00  1.15547E+03  4.08418E+02  8.72276E+02
 -1.14078E+02  1.11637E+03 -3.24078E+02  3.81487E+02  6.73893E+01  3.41559E+02 -7.44875E+02  4.25341E+02
 -5.33308E+02  1.01523E+03 -1.53272E+03  3.78694E+02 -1.19687E+03  3.52874E+00 -1.84577E+03 -6.11235E+02
 -9.12917E+02 -2.02302E+03  4.91011E+02 -2.15333E+03  6.14020E+02 -1.96456E+03  2.39126E+03 -7.53862E+02
  1.77378E+03 -1.68368E+02  1.04231E+03  1.22024E+03 -1.93032E+02  1.02284E+03 -5.20840E+02  9.94364E+02
 -7.52698E+02  4.71439E+02 -4.03372E+02  1.45906E+02 -6.84132E+02  4.17861E+02 -6.56001E+02 -3.14605E+02
 -6.68967E+02 -4.08290E+01 -7.04487E+02  1.26843E+01  1.90058E+02 -5.63677E+02 -2.50484E+02 -6.67046E+02
  1.17202E+03 -3.89808E+02  2.09839E+02  2.01189E+01  7.07134E+02  6.94984E+02 -4.05094E+02  1.07046E+03
 -6.72666E+02  1.81018E+03 -1.31639E+03  9.61342E+02 -1.34236E+03 -2.85630E+02 -8.74123E+02 -9.41934E+02
 -6.88209E+02 -9.65303E+02  1.08333E+02 -5.51428E+02  3.41030E+02 -4.06651E+02  5.13163E+02 -2.37977E+02
  3.74894E+02  3.10129E+02  1.79839E+02  3.55824E+02 -4.00814E+02 -1.65599E+02 -1.60118E+02 -2.14720E+02
  2.83824E+02 -5.92455E+00  1.41364E+01  3.76908E+02  4.15909E+01  5.47361E+02  4.62649E+02  9.10237E+00
 -3.07059E+02  5.40219E+02 -5.46561E+02  7.12021E+01 -2.87552E+02 -2.51795E+02 -6.62750E+01 -8.50044E+02
  4.35043E+02 -3.37037E+02  2.44147E+02  1.84736E+02  6.04201E+02 -7.82829E+02  2.94907E+02  5.44747E+02
  3.75901E+02  2.51025E+02  1.87789E+02  2.55149E+02 -6.79647E+02  4.05283E+02 -1.00588E+01  3.12813E+01
  1.16968E+02  8.88089E+01 -5.09373E+02  3.03712E+02 -2.78614E+02 -1.54689E+02 -6.05420E+02 -1.66154E+02
 -1.02807E+03  2.26663E+02 -4.43066E+02 -7.69755E+02  6.76459E+02 -1.48890E+03  6.10797E+02 -2.02907E+02
  8.32447E+02 -8.15146E+01 -2.27789E+02  1.44269E+02 -1.81742E+02  7.80692E+02 -2.57573E+02  5.76789E+02
