 $NMID ID='MM_0lb_SNR800_16hz_g45_46.RAW', FMTDAT='(8E13.5)'
 TRAMP=1., VOLUME=1. $END
  3.09691E+05  2.73676E+02  3.37356E+05  2.50167E+05  8.44316E+04  3.37481E+05 -1.32380E+05  2.50817E+05
 -1.90113E+05  8.26262E+04 -1.11104E+05 -3.27346E+04  1.42180E+03 -5.03814E+04  5.37901E+04  1.40160E+02
  3.49376E+04  5.29880E+04 -1.70174E+04  7.52182E+04 -6.07011E+04  6.30182E+04 -8.35154E+04  3.16511E+04
 -7.98029E+04 -1.11182E+04 -5.69010E+04 -5.06490E+04 -1.49962E+04 -6.89818E+04  2.70299E+04 -4.51535E+04
  3.93934E+04  3.59185E+03  1.56434E+04  4.73399E+04 -3.42173E+04  4.66089E+04 -6.59947E+04 -3.64049E+02
 -5.27373E+04 -5.62666E+04 -6.61647E+03 -7.60006E+04  3.32277E+04 -5.38479E+04  4.70623E+04 -1.65613E+04
  4.22567E+04  1.15529E+04  3.12198E+04  2.50145E+04  1.61646E+04  2.87535E+04 -4.93950E+03  2.70579E+04
 -2.16880E+04  1.27184E+04 -1.88681E+04 -4.53394E+03  4.85819E+03 -7.47380E+03  2.16584E+04  1.16642E+04
  7.14897E+03  3.43420E+04 -3.11551E+04  3.49202E+04 -6.23768E+04  2.09638E+03 -5.59909E+04 -4.18290E+04
 -1.23382E+04 -6.19856E+04  3.90539E+04 -4.43297E+04  5.67495E+04 -1.99041E+03  3.29557E+04  3.13094E+04
 -6.21055E+03  3.47274E+04 -2.93127E+04  1.46737E+04 -2.91338E+04 -5.06772E+03 -1.51657E+04 -1.05425E+04
 -7.58509E+03 -1.21209E+04 -7.32324E+02 -1.73130E+04  6.79213E+03 -2.27488E+04  1.51129E+04 -1.37441E+04
  1.18305E+04  4.35888E+03 -7.36549E+03  1.27417E+04 -2.02413E+04 -3.53650E+03 -8.19819E+03 -3.19629E+04
  2.17012E+04 -4.17121E+04  4.63546E+04 -1.93733E+04  4.32947E+04  1.86035E+04  1.47739E+04  4.27611E+04
 -1.52419E+04  3.20723E+04 -2.40892E+04  1.33072E+03 -8.87750E+03 -2.70016E+04  2.07432E+04 -3.22983E+04
  3.92827E+04 -8.11520E+03  3.30431E+04  2.31084E+04  1.66461E+04  4.42057E+04 -7.68910E+03  4.71565E+04
 -3.00449E+04  3.18090E+04 -3.92378E+04  9.11790E+03 -4.03002E+04 -1.56828E+04 -2.23986E+04 -3.59876E+04
  7.11703E+03 -3.60511E+04  3.03703E+04 -1.38374E+04  2.76196E+04  1.09692E+04  3.04236E+03  1.81925E+04
 -1.33569E+04  7.83310E+03 -9.64947E+03 -7.51987E+03  5.84345E+03 -1.03847E+04  1.77696E+04  6.18782E+03
  1.30130E+04  2.19638E+04 -6.44424E+03  2.40210E+04 -2.17228E+04  1.00526E+04 -2.64519E+04 -5.52062E+03
 -1.86298E+04 -1.68269E+04 -6.82978E+03 -1.85194E+04  4.12511E+03 -1.69164E+04  1.39040E+04 -1.61570E+04
  2.34889E+04 -1.22773E+04  3.02597E+04  2.01457E+03  2.24288E+04  1.76599E+04  4.16465E+03  3.42022E+04
 -1.66458E+04  2.87771E+04 -2.71155E+04  1.00029E+04 -2.03287E+04 -1.06025E+04 -3.95287E+03 -1.38238E+04
  2.23196E+03 -3.36994E+03 -3.60696E+03  5.75640E+03 -1.42778E+04  5.32173E+03 -1.45856E+04 -6.05512E+03
 -9.48952E+03 -1.70016E+04  5.01099E+03 -2.08894E+04  1.40133E+04 -1.53232E+04  1.62193E+04 -1.42097E+03
  9.96841E+03  1.18246E+04 -8.34692E+02  1.71603E+04 -1.14353E+04  9.73804E+03 -1.71459E+04 -3.70741E+03
 -1.24445E+04 -1.53959E+04 -1.42851E+03 -2.08497E+04  9.25404E+03 -1.70918E+04  1.75684E+04 -8.59061E+03
  1.61571E+04  2.69087E+02  1.14678E+04  4.27150E+03  6.04823E+03  5.44940E+02  8.66161E+03 -1.70673E+03
  1.55962E+04  2.65934E+03  1.65920E+04  1.39735E+04  1.06765E+04  2.72189E+04 -2.99752E+03  3.01811E+04
 -1.77888E+04  2.35453E+04 -2.79848E+04  1.15320E+04 -2.87332E+04 -2.39880E+03 -2.41397E+04 -1.62903E+04
 -1.10279E+04 -2.35626E+04  8.37335E+03 -2.16231E+04  1.87622E+04 -1.14190E+04  1.74501E+04  4.38245E+03
  6.85917E+03  1.24220E+04 -7.71270E+03  1.13402E+04 -1.46781E+04  2.38914E+03 -1.13346E+04 -8.99074E+03
 -3.75462E+02 -1.37432E+04  7.18442E+03 -1.03775E+04  9.01205E+03 -1.33051E+03  1.60046E+03  5.67506E+03
 -6.16776E+03  2.00721E+03 -4.86398E+03 -5.35907E+03 -7.44953E+01 -1.17931E+04  8.67690E+03 -1.21419E+04
  1.42882E+04 -5.74900E+03  1.47846E+04  2.69889E+03  1.26141E+04  1.10217E+04  6.12703E+03  1.71436E+04
 -2.59063E+03  1.86647E+04 -1.17444E+04  1.19973E+04 -1.34518E+04  3.14333E+03 -9.53753E+03 -2.58627E+03
 -4.65021E+03 -4.11892E+03 -4.75344E+02  1.39421E+03 -2.29549E+03  2.04091E+03 -4.38420E+03  3.74221E+03
 -9.23394E+03 -6.41961E+02 -9.79597E+03 -8.24149E+03 -4.08918E+03 -1.29539E+04  4.01663E+03 -1.01577E+04
  8.25966E+03 -4.07501E+03  5.91749E+03  2.68626E+03  6.18967E+02  3.55926E+03 -4.58712E+03 -1.80658E+02
 -4.26033E+03 -6.07577E+03 -7.84589E+02 -8.80720E+03  4.71700E+03 -9.60627E+03  1.18190E+04 -4.81132E+03
  1.38883E+04  9.61668E+02  1.03859E+04  7.57955E+03  1.94710E+03  1.05659E+04 -6.10053E+03  9.85289E+03
 -7.77249E+03  3.24559E+03 -4.12837E+03 -1.57585E+03  1.39820E+03 -2.30746E+03  5.47761E+03 -1.14218E+03
  4.67694E+03  4.06255E+03  9.96994E+02  7.76686E+03 -5.28297E+03  7.55590E+03 -9.35006E+03  1.95986E+03
 -5.78331E+03 -4.37353E+03  3.07479E+02 -7.91798E+03  4.61119E+03 -4.02181E+03  4.46893E+03  1.37812E+03
  7.73278E+02  4.58787E+03 -4.44775E+03  5.97583E+03 -6.23796E+03  3.01759E+03 -6.22234E+03 -1.71913E+03
 -3.85146E+03 -7.62651E+03  1.80151E+03 -9.37519E+03  7.65033E+03 -6.02040E+03  8.12362E+03  1.47110E+03
  5.36203E+03  6.79271E+03  6.18073E+01  8.61360E+03 -6.38886E+03  4.82282E+03 -6.45483E+03 -6.59531E+02
 -6.40887E+03 -6.05158E+03 -1.48466E+03 -6.08023E+03  3.02367E+03 -5.30053E+03  3.88407E+03 -2.92853E+03
  3.15302E+03  4.47234E+02 -2.54459E+02  1.50053E+03  2.97044E+02 -8.51151E+02  5.98462E+02 -2.67600E+03
  5.12975E+03 -1.71314E+03  7.16414E+03  7.96629E+02  7.22058E+03  4.42282E+03  6.38272E+03  9.66400E+03
 -2.08196E+03  1.09604E+04 -9.91592E+03  8.19124E+03 -1.26460E+04  1.50329E+03 -1.01202E+04 -3.63819E+03
 -5.15765E+03 -8.56856E+03 -2.57274E+02 -6.65945E+03  2.70756E+03 -3.14147E+03  2.42236E+03 -2.69667E+03
  1.57333E+03 -1.82685E+03  2.42437E+03 -2.74216E+03  3.81138E+03 -1.67374E+03  4.29212E+03  8.97520E+01
  5.28202E+03  1.51623E+03  1.81758E+03  4.55691E+03 -1.70662E+03  4.41931E+03 -5.47096E+03  3.72333E+03
 -6.44955E+03 -1.07373E+03 -3.19311E+03 -4.63211E+03  1.82802E+02 -6.98500E+03  4.15210E+03 -7.12680E+03
  6.85407E+03 -4.11891E+03  9.05495E+03  8.69068E+02  6.38415E+03  5.99411E+03  1.55922E+03  7.79704E+03
 -3.23342E+03  7.08512E+03 -4.71416E+03  2.22163E+03 -2.64900E+03 -1.23199E+03 -8.49034E+02 -8.11300E+02
 -6.47448E+02  1.93572E+02 -1.22424E+03  1.93865E+03 -3.39664E+03  1.13774E+03 -5.33041E+03 -5.57937E+02
 -2.63224E+03 -5.13084E+03  6.33630E+02 -6.50770E+03  3.84194E+03 -5.98379E+03  5.28973E+03 -1.81607E+03
  5.49484E+03  3.31024E+03  2.58131E+03  4.70296E+03 -1.30293E+03  6.24094E+03 -3.97043E+03  3.86541E+03
 -5.23515E+03  4.93926E+02 -4.47208E+03 -3.43301E+03 -5.21225E+02 -4.58797E+03  2.50369E+03 -3.61601E+03
  3.77618E+03 -1.64496E+03  2.68944E+03  5.90730E+02  4.78757E+02  2.20883E+03  7.40343E+02  7.83572E+02
  1.94156E+03  5.33655E+02  1.87629E+03  1.27159E+03  1.60339E+03  2.64275E+03  1.73839E+03  2.77623E+03
 -1.20712E+03  4.19309E+03 -3.97473E+03  5.37512E+03 -4.98320E+03  1.66678E+03 -5.96699E+03 -1.38755E+03
 -2.34450E+03 -5.06668E+03  6.64846E+02 -6.64074E+03  2.88317E+03 -3.75081E+03  4.63614E+03 -9.55714E+02
  3.29316E+03  2.47891E+03  8.40329E+02  3.27797E+03 -1.46907E+03  2.24125E+03 -1.68711E+03 -4.97963E+02
 -9.74922E+02 -2.23368E+03  1.28879E+03 -2.20814E+03  1.88984E+03 -1.11335E+03  1.71143E+03  5.11779E+02
  1.46147E+03  4.96413E+02  7.27481E+02  1.38498E+01 -4.00405E+02  8.69048E+02  1.47407E+03 -1.76977E+02
  4.55817E+02 -4.73173E+02  2.35639E+03  8.11599E+02  7.73560E+02  3.34447E+03 -5.82390E+02  4.03745E+03
 -2.19305E+03  2.01045E+03 -3.01322E+03  3.88479E+02 -3.02278E+03 -1.24683E+03 -7.40086E+02 -1.62792E+03
  5.25376E+02 -1.76599E+03  1.35132E+03 -9.87932E+02  1.17729E+03  1.56042E+03 -8.23056E+02  1.83609E+03
 -2.04702E+03  9.17241E+02 -1.87553E+03 -1.74838E+03 -1.18378E+03 -3.19029E+03  2.48655E+02 -2.46181E+03
  1.14747E+03 -1.27574E+03  1.73000E+03 -1.88857E+02  1.82008E+03  1.71857E+02  3.10346E+02  1.87651E+03
 -6.56437E+02  2.25457E+02 -1.44203E+03 -5.79698E+02  7.06283E+02 -1.56593E+03  2.25671E+03 -1.20760E+03
  2.71493E+03  1.96001E+02  3.70176E+03  1.46841E+03  1.12942E+03  3.04345E+03 -4.90539E+02  3.14696E+03
 -2.36601E+03  3.94033E+02 -2.53757E+03 -6.04019E+02 -1.28181E+03 -1.72036E+03  2.10782E+02 -1.37817E+03
  2.13129E+03 -8.50790E+02  1.38638E+03  7.12609E+02  2.25124E+02  1.83014E+03  1.91021E+02  1.48216E+03
 -3.44353E+02  1.55358E+03 -6.62491E+02  3.08221E+02 -3.57310E+02  6.16434E+02 -6.89318E+02  6.93223E+02
 -1.08270E+03  1.41723E+03 -2.32971E+03  1.02745E+03 -2.74896E+03  8.27555E+01 -3.52571E+03 -1.76336E+03
 -1.46734E+03 -3.70919E+03  8.18394E+02 -4.43261E+03  1.95217E+03 -3.80606E+03  4.25262E+03 -1.47824E+03
  3.58443E+03  4.36982E+02  1.94342E+03  2.48683E+03 -5.39397E+02  2.58363E+03 -1.07833E+03  2.35470E+03
 -1.73693E+03  1.07337E+03 -8.69784E+02 -5.10615E+02 -4.66975E+02  5.19130E+01 -7.48208E+02 -1.13256E+02
 -1.11679E+03 -2.37228E+02 -1.01137E+03  7.57292E+01  1.89532E+02 -7.02490E+02 -5.90289E+02 -1.34688E+03
  1.89215E+03 -9.69303E+02  8.61092E+02 -8.19940E+01  1.88055E+03  1.53055E+03  9.21296E+01  2.40203E+03
 -1.57781E+03  3.50593E+03 -2.78872E+03  1.85019E+03 -3.12460E+03 -2.99151E+02 -2.07440E+03 -1.82276E+03
 -1.43375E+03 -2.33297E+03  3.83651E+02 -2.14117E+03  1.56978E+03 -1.26322E+03  1.26939E+03  2.43245E+02
  8.67905E+02  5.34297E+02 -2.86627E+02  8.41295E+02 -2.71281E+02  7.28043E+01  2.65127E+01 -1.99018E+02
  8.92455E+02  1.39899E+02  6.65903E+02  6.63289E+02  3.45186E+02  8.44931E+02  4.34861E+02  7.43551E+02
 -1.16704E+03  9.94125E+02 -1.03108E+03  3.74590E+02 -1.54565E+03 -6.95108E+02 -2.27695E+02 -2.12585E+03
  1.03306E+03 -1.35027E+03  1.29535E+03 -1.68303E+02  1.77884E+03 -4.77980E+02  9.75366E+02  1.70385E+03
  7.70746E+02  1.05138E+03 -5.11716E+02  9.85279E+02 -8.67031E+02  8.12676E+02 -6.70447E+02  6.34391E+01
 -6.23802E+02  1.59549E+02 -5.60873E+02  1.65083E+02 -9.40363E+02  3.20378E+02 -8.69886E+02 -3.01514E+02
 -1.67534E+03 -2.92384E+02 -5.13750E+02 -1.82897E+03  6.78112E+02 -2.28708E+03  1.24160E+03 -5.63535E+02
  1.55626E+03  1.44660E+02  4.67685E+02  8.47051E+02 -3.50298E+02  1.56637E+03 -9.98599E+02  1.04429E+03
