 $NMID ID='MM_0lb_SNR800_12hz_g55_84.RAW', FMTDAT='(8E13.5)'
 TRAMP=1., VOLUME=1. $END
  3.09650E+05  2.91696E+02  3.37620E+05  2.51059E+05  8.47982E+04  3.38520E+05 -1.32616E+05  2.51579E+05
 -1.90494E+05  8.34752E+04 -1.12257E+05 -3.23784E+04  5.25928E+02 -5.05083E+04  5.36549E+04 -2.35558E+02
  3.52843E+04  5.25390E+04 -1.66730E+04  7.56224E+04 -6.10759E+04  6.44518E+04 -8.52146E+04  3.26572E+04
 -8.17921E+04 -1.16355E+04 -5.78323E+04 -5.21670E+04 -1.50184E+04 -7.03339E+04  2.73781E+04 -4.63743E+04
  4.07443E+04  3.79180E+03  1.64917E+04  4.80772E+04 -3.44656E+04  4.80606E+04 -6.77093E+04 -5.36442E+01
 -5.42157E+04 -5.70906E+04 -7.06567E+03 -7.81833E+04  3.46087E+04 -5.60508E+04  4.89747E+04 -1.77466E+04
  4.42660E+04  1.13163E+04  3.25322E+04  2.60602E+04  1.57391E+04  3.02205E+04 -5.83258E+03  2.73018E+04
 -2.22402E+04  1.18446E+04 -1.84103E+04 -5.20970E+03  6.28884E+03 -7.62862E+03  2.30733E+04  1.32420E+04
  7.08601E+03  3.62783E+04 -3.31051E+04  3.64883E+04 -6.46139E+04  2.49014E+03 -5.81179E+04 -4.38063E+04
 -1.24275E+04 -6.44011E+04  4.04566E+04 -4.64734E+04  5.99694E+04 -2.30290E+03  3.54136E+04  3.36693E+04
 -5.74497E+03  3.84422E+04 -3.10232E+04  1.74678E+04 -3.22681E+04 -3.99041E+03 -1.79423E+04 -1.17760E+04
 -8.78704E+03 -1.39380E+04 -4.42240E+02 -1.90571E+04  8.12858E+03 -2.31849E+04  1.57115E+04 -1.29048E+04
  1.07914E+04  5.72105E+03 -9.60904E+03  1.29398E+04 -2.23845E+04 -5.61942E+03 -8.13257E+03 -3.57003E+04
  2.37787E+04 -4.52297E+04  5.06203E+04 -2.02905E+04  4.69514E+04  2.03091E+04  1.66765E+04  4.61421E+04
 -1.64645E+04  3.47946E+04 -2.67780E+04  2.26221E+03 -1.10222E+04 -2.88963E+04  2.13701E+04 -3.57216E+04
  4.30307E+04 -1.00958E+04  3.84623E+04  2.45534E+04  2.00136E+04  4.92442E+04 -8.47656E+03  5.34023E+04
 -3.38408E+04  3.61816E+04 -4.51412E+04  1.02990E+04 -4.53331E+04 -1.76143E+04 -2.49705E+04 -4.03835E+04
  7.64304E+03 -4.04174E+04  3.28900E+04 -1.56974E+04  3.09134E+04  1.09272E+04  4.63912E+03  2.02138E+04
 -1.36200E+04  9.33551E+03 -1.06833E+04 -7.68046E+03  5.62255E+03 -1.08448E+04  1.85181E+04  5.72002E+03
  1.39406E+04  2.24146E+04 -5.77894E+03  2.62243E+04 -2.26827E+04  1.30676E+04 -2.99645E+04 -4.20402E+03
 -2.30383E+04 -1.78035E+04 -9.96544E+03 -2.27293E+04  4.17841E+03 -2.28232E+04  1.79584E+04 -2.05097E+04
  2.92313E+04 -1.35619E+04  3.51820E+04  4.15353E+03  2.56000E+04  2.26861E+04  4.24562E+03  3.86819E+04
 -1.88035E+04  3.21191E+04 -2.94436E+04  1.13101E+04 -2.16549E+04 -9.77114E+03 -4.85316E+03 -1.30361E+04
  1.21174E+03 -1.83694E+03 -6.59831E+03  7.80162E+03 -1.79888E+04  5.06512E+03 -1.86085E+04 -8.46636E+03
 -1.11876E+04 -2.13861E+04  5.88666E+03 -2.53994E+04  1.69855E+04 -1.81918E+04  2.06129E+04 -1.89499E+03
  1.29617E+04  1.47691E+04 -1.20286E+03  2.11706E+04 -1.48001E+04  1.22648E+04 -2.10915E+04 -4.51898E+03
 -1.54651E+04 -1.87965E+04 -2.22720E+03 -2.57159E+04  1.14935E+04 -2.12184E+04  2.13423E+04 -1.07017E+04
  1.98709E+04  5.74084E+01  1.45334E+04  4.79353E+03  7.86275E+03  7.03038E+02  1.06311E+04 -1.99876E+03
  1.97944E+04  2.69729E+03  2.23496E+04  1.68256E+04  1.48212E+04  3.41240E+04 -2.72564E+03  3.92230E+04
 -2.25744E+04  3.21870E+04 -3.69224E+04  1.65800E+04 -3.88808E+04 -2.69668E+03 -3.22197E+04 -2.26283E+04
 -1.31468E+04 -3.24482E+04  1.15985E+04 -2.84910E+04  2.47965E+04 -1.40559E+04  2.17263E+04  6.71192E+03
  7.55886E+03  1.65111E+04 -1.01821E+04  1.43857E+04 -1.80390E+04  2.75682E+03 -1.37804E+04 -1.19796E+04
 -2.00163E+02 -1.75270E+04  8.98172E+03 -1.30950E+04  1.19997E+04 -1.30405E+03  2.76538E+03  7.68962E+03
 -7.48594E+03  2.87708E+03 -7.46868E+03 -6.17253E+03 -8.35864E+02 -1.54650E+04  1.06876E+04 -1.67899E+04
  1.97030E+04 -9.39321E+03  2.19881E+04  3.53133E+03  1.92459E+04  1.56354E+04  9.12557E+03  2.43990E+04
 -4.47754E+03  2.61169E+04 -1.69823E+04  1.63934E+04 -1.88792E+04  3.74544E+03 -1.33642E+04 -4.62202E+03
 -5.91480E+03 -6.10872E+03 -1.01501E+03  5.49283E+02 -2.40255E+03  2.78324E+03 -6.20839E+03  5.07781E+03
 -1.23254E+04 -8.69085E+02 -1.28502E+04 -1.04333E+04 -5.09997E+03 -1.69785E+04  5.44601E+03 -1.37111E+04
  1.08338E+04 -5.25695E+03  8.01045E+03  3.58948E+03 -3.04033E+02  4.94250E+03 -6.55136E+03 -2.60947E+02
 -6.36664E+03 -8.54941E+03 -1.10181E+03 -1.30788E+04  7.38196E+03 -1.38917E+04  1.69119E+04 -7.21219E+03
  1.96676E+04  2.10946E+03  1.42992E+04  1.16406E+04  2.73717E+03  1.54564E+04 -8.27696E+03  1.32312E+04
 -1.07065E+04  3.83241E+03 -5.28231E+03 -2.52243E+03  1.84172E+03 -3.76027E+03  7.02982E+03 -1.15170E+03
  6.31895E+03  6.10119E+03  6.76801E+02  1.04212E+04 -7.45365E+03  9.95302E+03 -1.31869E+04  2.82035E+03
 -9.03035E+03 -6.80441E+03  4.59942E+02 -1.10339E+04  7.21673E+03 -5.49105E+03  7.29552E+03  2.78193E+03
  1.54985E+03  7.53622E+03 -6.79878E+03  9.31859E+03 -1.05134E+04  4.32082E+03 -1.09215E+04 -3.80584E+03
 -6.31680E+03 -1.24415E+04  2.92475E+03 -1.45287E+04  1.23490E+04 -8.92109E+03  1.32273E+04  2.12995E+03
  8.22446E+03  1.04984E+04 -1.00964E+03  1.27710E+04 -9.23946E+03  7.25113E+03 -1.04015E+04 -8.96261E+02
 -8.88700E+03 -8.61283E+03 -1.45998E+03 -9.58158E+03  5.36762E+03 -7.93879E+03  6.15582E+03 -3.48949E+03
  4.13400E+03  1.72950E+03 -1.10996E+03  1.84686E+03 -3.94549E+02 -2.53570E+03  1.83606E+03 -5.44551E+03
  8.94000E+03 -3.52950E+03  1.24244E+04  1.52804E+03  1.21613E+04  8.45195E+03  8.53500E+03  1.63256E+04
 -3.81930E+03  1.85690E+04 -1.56471E+04  1.37400E+04 -2.01612E+04  2.51654E+03 -1.65696E+04 -6.98448E+03
 -8.07741E+03 -1.32777E+04 -1.76195E+02 -1.11633E+04  4.24728E+03 -5.98490E+03  3.91008E+03 -4.21010E+03
  3.07150E+03 -2.67653E+03  3.13117E+03 -3.29834E+03  4.79448E+03 -2.94117E+03  6.56888E+03 -9.18069E+02
  8.46623E+03  2.34884E+03  4.08096E+03  6.95317E+03 -2.00507E+03  8.40182E+03 -8.91654E+03  6.49359E+03
 -1.12132E+04 -1.37780E+03 -6.69993E+03 -7.61875E+03 -7.83160E+02 -1.20421E+04  6.62187E+03 -1.18160E+04
  1.23852E+04 -6.86912E+03  1.49284E+04  1.90482E+03  1.01544E+04  1.00707E+04  1.56911E+03  1.36005E+04
 -5.35352E+03  1.11249E+04 -7.64737E+03  3.66562E+03 -4.88086E+03 -1.30872E+03 -1.81594E+03 -1.53219E+03
 -9.18102E+02  2.94251E+02 -1.98228E+03  2.38975E+03 -4.60949E+03  1.66224E+03 -8.10296E+03 -1.11546E+03
 -4.74033E+03 -8.02975E+03  1.82715E+02 -1.09578E+04  7.02812E+03 -1.02419E+04  1.04440E+04 -3.06131E+03
  1.08331E+04  5.19995E+03  4.82192E+03  9.15198E+03 -1.93801E+03  1.08628E+04 -7.63045E+03  6.80346E+03
 -9.88126E+03  6.55083E+02 -7.76149E+03 -6.55887E+03 -6.48146E+02 -8.59398E+03  4.64200E+03 -6.84679E+03
  6.74203E+03 -2.09140E+03  4.40317E+03  2.03976E+03  1.69183E+03  3.16644E+03  1.39215E+03  1.58832E+03
  2.43751E+03  7.77513E+02  2.77422E+03  1.42064E+03  3.34942E+03  3.96838E+03  2.90593E+03  5.06168E+03
 -2.37883E+03  8.14544E+03 -7.17686E+03  8.35909E+03 -1.08117E+04  2.32946E+03 -1.08842E+04 -4.15797E+03
 -5.11119E+03 -1.02401E+04  1.14948E+03 -1.16597E+04  6.18310E+03 -7.28219E+03  8.50220E+03 -2.06765E+03
  6.58028E+03  3.88451E+03  1.38071E+03  6.24716E+03 -2.90500E+03  3.75653E+03 -3.93872E+03 -5.13091E+02
 -1.98632E+03 -4.52083E+03  2.56332E+03 -4.72624E+03  4.29767E+03 -2.23773E+03  3.89448E+03  7.23478E+02
  2.64453E+03  1.44987E+03  1.39946E+03  1.22157E+03 -5.86703E+02  1.81515E+03  1.60647E+03 -7.20826E+02
  1.59551E+03 -5.87248E+02  4.47886E+03  1.90098E+03  2.13750E+03  5.48892E+03 -9.61639E+02  7.22707E+03
 -4.99943E+03  4.28436E+03 -6.45647E+03  1.34038E+03 -5.82778E+03 -2.10911E+03 -2.16546E+03 -3.50663E+03
  7.04579E+02 -4.26247E+03  2.64554E+03 -2.07731E+03  2.09901E+03  2.20504E+03 -1.14089E+03  2.80922E+03
 -4.24033E+03  2.58139E+03 -4.68164E+03 -2.62311E+03 -2.39218E+03 -5.77726E+03  7.22928E+02 -5.35909E+03
  3.13927E+03 -3.19487E+03  3.72117E+03 -1.41713E+02  3.16615E+03  1.08623E+03  3.78032E+02  3.00471E+03
 -1.92384E+03  7.33961E+02 -2.71079E+03 -1.73188E+03  1.34499E+03 -4.16813E+03  5.51935E+03 -3.17803E+03
  5.71574E+03  4.44333E+02  6.38133E+03  4.32551E+03  1.97565E+03  6.27707E+03 -1.90853E+03  5.82197E+03
 -5.17210E+03  2.55165E+03 -5.26321E+03 -8.69097E+02 -3.02615E+03 -4.25527E+03  1.18302E+03 -3.86878E+03
  4.04000E+03 -1.63897E+03  3.25997E+03  1.73727E+03  1.25829E+03  3.65538E+03 -3.57839E+02  3.11397E+03
 -1.74362E+03  2.52314E+03 -1.69553E+03  8.65844E+02 -5.31918E+02  7.69574E+02 -1.17860E+03  1.33849E+03
 -1.60103E+03  2.36010E+03 -4.69255E+03  1.86153E+03 -6.13549E+03  3.68143E+02 -7.46986E+03 -3.90164E+03
 -3.58160E+03 -8.42326E+03  1.70396E+03 -9.87596E+03  5.36296E+03 -7.32103E+03  8.99770E+03 -2.55081E+03
  8.66597E+03  1.42052E+03  5.08164E+03  5.91854E+03  2.51913E+02  6.28423E+03 -2.12385E+03  4.61390E+03
 -3.62756E+03  1.88348E+03 -2.08963E+03 -7.81325E+02 -8.11976E+02 -2.68362E+02 -6.33684E+02 -4.63386E+02
 -1.59180E+03  2.31824E+02 -1.52519E+03 -1.86166E+01 -4.50565E+02 -1.46381E+03 -3.76678E+02 -2.31571E+03
  3.19901E+03 -2.24009E+03  3.56309E+03  8.14676E+01  4.45885E+03  3.13808E+03  6.61168E+02  6.06994E+03
 -3.06492E+03  7.37251E+03 -6.43249E+03  4.05638E+03 -7.53169E+03 -8.09091E+02 -5.59179E+03 -4.39716E+03
 -2.33156E+03 -5.90846E+03  1.28828E+03 -5.60220E+03  3.89006E+03 -3.16398E+03  3.98962E+03  2.74297E+01
  2.33547E+03  2.01102E+03 -1.98513E+02  1.79186E+03 -1.12552E+03  3.38442E+02  2.80243E+02 -1.25907E+03
  1.93492E+03 -6.87073E+02  2.36136E+03  1.09030E+03  1.34172E+03  2.55994E+03  5.85660E+02  3.12760E+03
 -2.50749E+03  2.88838E+03 -4.03201E+03  4.66351E+02 -3.45408E+03 -2.64545E+03 -6.02847E+02 -4.83603E+03
  2.88474E+03 -4.00908E+03  4.16712E+03 -1.18316E+03  4.18666E+03  8.51945E+02  2.39913E+03  3.68345E+03
  6.14575E+02  3.78687E+03 -1.18708E+03  3.01840E+03 -2.50250E+03  1.86952E+03 -2.07096E+03  3.85215E+02
 -1.06860E+03 -3.54724E+02 -9.16618E+02  5.64882E+02 -2.17310E+03  6.93376E+02 -3.02178E+03 -1.06461E+03
 -3.17072E+03 -1.61285E+03 -1.09357E+03 -3.71098E+03  2.10919E+03 -4.36405E+03  3.35567E+03 -1.67011E+03
  3.87784E+03  4.97825E+02  2.09079E+03  2.93918E+03 -6.94725E+02  3.93653E+03 -2.71071E+03  2.49737E+03
