 $NMID ID='MM_0lb_SNR800_18hz_g60_23.RAW', FMTDAT='(8E13.5)'
 TRAMP=1., VOLUME=1. $END
  3.09780E+05  1.89640E+02  3.37437E+05  2.50348E+05  8.44344E+04  3.37718E+05 -1.32644E+05  2.50840E+05
 -1.90134E+05  8.29479E+04 -1.11469E+05 -3.26326E+04  9.30391E+02 -5.04960E+04  5.37405E+04 -1.69592E+02
  3.52918E+04  5.30767E+04 -1.69903E+04  7.54161E+04 -6.04065E+04  6.33705E+04 -8.40279E+04  3.19346E+04
 -8.08063E+04 -1.15440E+04 -5.73921E+04 -5.10459E+04 -1.52778E+04 -6.90283E+04  2.73302E+04 -4.57127E+04
  3.96131E+04  3.68960E+03  1.62873E+04  4.76064E+04 -3.43251E+04  4.68641E+04 -6.60605E+04 -3.60649E+02
 -5.30400E+04 -5.63459E+04 -6.64152E+03 -7.64870E+04  3.35298E+04 -5.45092E+04  4.73035E+04 -1.72632E+04
  4.30172E+04  1.10673E+04  3.12052E+04  2.50116E+04  1.57850E+04  2.90334E+04 -4.92554E+03  2.72654E+04
 -2.20227E+04  1.24617E+04 -1.88000E+04 -4.58393E+03  4.97987E+03 -7.40673E+03  2.18586E+04  1.16342E+04
  7.51912E+03  3.46218E+04 -3.16952E+04  3.51577E+04 -6.27499E+04  2.19169E+03 -5.62272E+04 -4.24713E+04
 -1.24239E+04 -6.23226E+04  3.93138E+04 -4.44925E+04  5.74511E+04 -2.23747E+03  3.32673E+04  3.16661E+04
 -6.51511E+03  3.53794E+04 -2.92809E+04  1.50323E+04 -2.95971E+04 -4.91818E+03 -1.62052E+04 -1.07836E+04
 -7.81361E+03 -1.25635E+04 -9.59005E+02 -1.73585E+04  7.28396E+03 -2.29552E+04  1.52846E+04 -1.36085E+04
  1.16558E+04  4.74151E+03 -7.62838E+03  1.28598E+04 -2.04405E+04 -3.83053E+03 -8.18141E+03 -3.23933E+04
  2.21924E+04 -4.22266E+04  4.69907E+04 -1.92060E+04  4.38149E+04  1.88450E+04  1.48108E+04  4.34111E+04
 -1.57548E+04  3.25926E+04 -2.46426E+04  1.67186E+03 -9.39500E+03 -2.74568E+04  2.09783E+04 -3.26394E+04
  3.97916E+04 -8.50295E+03  3.37801E+04  2.33649E+04  1.67349E+04  4.50350E+04 -7.66336E+03  4.85536E+04
 -3.04455E+04  3.24133E+04 -4.00369E+04  9.14334E+03 -4.11261E+04 -1.60540E+04 -2.23768E+04 -3.65969E+04
  7.32128E+03 -3.64937E+04  3.04395E+04 -1.36997E+04  2.82645E+04  1.08683E+04  3.60393E+03  1.87608E+04
 -1.35188E+04  7.67269E+03 -1.00685E+04 -7.56911E+03  5.93948E+03 -1.03676E+04  1.78681E+04  6.20725E+03
  1.30274E+04  2.19014E+04 -6.39298E+03  2.43329E+04 -2.20017E+04  1.01905E+04 -2.67460E+04 -5.39743E+03
 -1.87307E+04 -1.66769E+04 -7.08335E+03 -1.87377E+04  4.02646E+03 -1.75809E+04  1.43539E+04 -1.65071E+04
  2.39316E+04 -1.26401E+04  3.04347E+04  1.95870E+03  2.25779E+04  1.81961E+04  4.09953E+03  3.45844E+04
 -1.71343E+04  2.92691E+04 -2.69827E+04  9.73187E+03 -2.02604E+04 -1.02983E+04 -4.48086E+03 -1.35514E+04
  2.19193E+03 -3.72501E+03 -3.84517E+03  6.03737E+03 -1.44184E+04  5.21848E+03 -1.49899E+04 -5.84368E+03
 -9.55751E+03 -1.71149E+04  4.86171E+03 -2.11267E+04  1.41782E+04 -1.53332E+04  1.64673E+04 -1.42439E+03
  1.04162E+04  1.21153E+04 -1.01949E+03  1.72588E+04 -1.15068E+04  9.90379E+03 -1.70998E+04 -3.58909E+03
 -1.28535E+04 -1.57452E+04 -1.60675E+03 -2.07446E+04  9.89300E+03 -1.69497E+04  1.73727E+04 -8.42110E+03
  1.60980E+04  3.56690E+02  1.15231E+04  4.07982E+03  5.85032E+03  4.23515E+02  8.49639E+03 -1.53041E+03
  1.57612E+04  2.72053E+03  1.68708E+04  1.38452E+04  1.05593E+04  2.68520E+04 -3.06119E+03  3.01452E+04
 -1.75979E+04  2.33298E+04 -2.74743E+04  1.15410E+04 -2.86501E+04 -2.10587E+03 -2.41318E+04 -1.64058E+04
 -1.10395E+04 -2.33902E+04  7.98845E+03 -2.16025E+04  1.86312E+04 -1.15607E+04  1.73251E+04  4.54243E+03
  6.75410E+03  1.26914E+04 -7.45674E+03  1.11940E+04 -1.46897E+04  2.85373E+03 -1.11893E+04 -8.85991E+03
  2.91968E+01 -1.35372E+04  7.01045E+03 -1.02079E+04  8.64321E+03 -1.19048E+03  1.77938E+03  5.84259E+03
 -5.91398E+03  2.00323E+03 -4.57168E+03 -4.59800E+03  2.22684E+02 -1.14837E+04  8.57034E+03 -1.18490E+04
  1.41398E+04 -5.86646E+03  1.43237E+04  2.75921E+03  1.20610E+04  1.08942E+04  5.72420E+03  1.62880E+04
 -2.44893E+03  1.84757E+04 -1.13325E+04  1.15349E+04 -1.29528E+04  3.18976E+03 -9.45289E+03 -2.58264E+03
 -4.98403E+03 -4.05251E+03 -8.38816E+02  1.26971E+03 -2.00969E+03  2.09005E+03 -4.21038E+03  3.81468E+03
 -8.91282E+03 -4.49898E+02 -9.88390E+03 -7.82216E+03 -3.72360E+03 -1.28059E+04  3.98158E+03 -9.89355E+03
  7.90251E+03 -4.29879E+03  5.65386E+03  2.75883E+03  6.33713E+02  3.79279E+03 -3.80494E+03 -1.81117E+02
 -4.05378E+03 -5.90766E+03 -1.14075E+03 -8.25059E+03  4.66606E+03 -9.11763E+03  1.13939E+04 -4.29692E+03
  1.33011E+04  8.12685E+02  9.90672E+03  7.38637E+03  1.58179E+03  1.00756E+04 -5.98154E+03  9.13398E+03
 -7.70220E+03  2.80995E+03 -4.12870E+03 -1.66804E+03  1.65845E+03 -2.18490E+03  5.18861E+03 -1.12603E+03
  4.56945E+03  4.28972E+03  1.04227E+03  7.06792E+03 -4.82338E+03  7.18791E+03 -8.99716E+03  1.69148E+03
 -5.58087E+03 -4.15744E+03  3.60372E+02 -7.34433E+03  3.82530E+03 -3.82625E+03  4.03409E+03  1.28392E+03
  5.27337E+02  4.06176E+03 -4.69542E+03  5.65164E+03 -5.78695E+03  2.76427E+03 -5.35338E+03 -1.51973E+03
 -3.27627E+03 -6.84288E+03  1.54597E+03 -8.30144E+03  7.01427E+03 -5.40703E+03  7.37049E+03  1.00634E+03
  5.07306E+03  6.21189E+03 -2.28616E+02  8.46903E+03 -5.55877E+03  4.68504E+03 -5.93530E+03 -7.15215E+02
 -6.38901E+03 -5.96648E+03 -1.38464E+03 -5.78732E+03  2.91537E+03 -5.01418E+03  3.54698E+03 -2.94697E+03
  3.01376E+03  2.17657E+02  4.44575E+01  1.39135E+03  1.59428E+02 -5.41689E+02  3.00591E+02 -2.44466E+03
  4.86659E+03 -1.32487E+03  6.04597E+03  6.37353E+02  6.53775E+03  3.87059E+03  5.67251E+03  8.44029E+03
 -1.80150E+03  1.00353E+04 -8.50385E+03  7.61685E+03 -1.10140E+04  1.64173E+03 -9.03096E+03 -3.11309E+03
 -4.96714E+03 -7.42710E+03 -2.11900E+02 -5.92656E+03  2.39594E+03 -2.69383E+03  2.01858E+03 -2.35521E+03
  1.10391E+03 -1.88642E+03  2.24630E+03 -2.54822E+03  3.73361E+03 -1.24213E+03  3.97524E+03  4.46564E+02
  5.08964E+03  1.27640E+03  1.72605E+03  3.75381E+03 -1.59776E+03  3.44264E+03 -4.80407E+03  3.08819E+03
 -5.40429E+03 -1.32902E+03 -2.36731E+03 -4.19332E+03  5.22051E+02 -5.88795E+03  3.68184E+03 -6.22489E+03
  5.88071E+03 -3.46976E+03  7.46989E+03  9.33456E+01  4.97754E+03  4.56482E+03  1.38864E+03  6.43632E+03
 -2.68138E+03  6.59741E+03 -3.56363E+03  2.04272E+03 -2.30640E+03 -1.08668E+03 -6.49271E+02 -7.35547E+02
 -4.73926E+02  4.59750E+02 -1.33699E+03  2.07095E+03 -2.98192E+03  1.35682E+03 -4.42120E+03 -2.66185E+02
 -1.97137E+03 -4.46801E+03  7.35055E+02 -5.29485E+03  3.09767E+03 -5.13476E+03  4.30118E+03 -1.09969E+03
  4.59850E+03  2.53848E+03  2.31032E+03  3.76878E+03 -8.54635E+02  5.23260E+03 -3.21517E+03  3.21347E+03
 -4.58836E+03  8.72906E+02 -3.40116E+03 -2.81432E+03 -6.96872E+01 -3.61621E+03  1.69488E+03 -2.63530E+03
  3.15853E+03 -1.36215E+03  1.96076E+03  4.77592E+02  4.73291E+02  2.02767E+03  6.31146E+02  3.96936E+02
  1.86016E+03  5.09016E+02  1.49488E+03  9.70644E+02  1.25300E+03  2.08849E+03  1.51883E+03  2.02826E+03
 -1.33322E+03  3.19717E+03 -2.79294E+03  4.23902E+03 -3.62097E+03  1.25567E+03 -4.62990E+03 -7.50941E+02
 -2.07325E+03 -4.35193E+03  4.23256E+02 -5.24704E+03  2.21376E+03 -2.90830E+03  3.48261E+03 -1.04360E+03
  2.73613E+03  1.99178E+03  3.55475E+02  2.44800E+03 -6.89493E+02  1.50324E+03 -9.25741E+02 -1.62461E+02
 -7.91233E+02 -1.50580E+03  1.35651E+03 -1.72760E+03  1.49927E+03 -8.36543E+02  1.24689E+03  3.60461E+02
  9.35502E+02  3.18087E+02  7.74761E+02 -2.43265E+02 -3.96232E+02  7.47719E+02  1.65380E+03 -1.65700E+02
  2.01083E+02 -1.29123E+02  1.91128E+03  6.03984E+02  5.30133E+02  2.54708E+03 -4.54938E+02  3.22441E+03
 -1.81133E+03  1.25281E+03 -2.35222E+03  3.98485E+02 -2.38626E+03 -1.05675E+03 -1.57038E+02 -1.09299E+03
  2.92503E+02 -1.33980E+03  1.11888E+03 -7.52658E+02  6.79927E+02  1.52917E+03 -7.31019E+02  1.32678E+03
 -1.49566E+03  7.14931E+02 -1.29150E+03 -1.31061E+03 -1.14207E+03 -2.32498E+03  8.43548E+00 -1.82773E+03
  4.92964E+02 -6.66162E+02  9.01960E+02  4.40543E+02  1.24369E+03 -2.21301E+02  3.14125E+02  1.14728E+03
 -5.30415E+02  8.48897E+01 -9.94816E+02 -6.43444E+01  5.70079E+02 -8.83379E+02  1.90451E+03 -1.12264E+03
  1.32177E+03  1.56934E+02  2.87155E+03  8.86567E+02  1.11254E+03  1.69839E+03 -3.28272E+02  2.00662E+03
 -1.69430E+03  5.19991E+02 -1.73853E+03 -3.62372E+02 -7.84349E+02 -1.28757E+03  4.46327E+02 -5.31907E+02
  1.61001E+03 -5.01543E+02  8.39914E+02  3.97930E+02  2.60604E+02  1.47860E+03  2.22987E+02  1.28104E+03
 -6.74471E+02  9.77850E+02 -7.48184E+02 -1.29852E+02  1.21466E+01  4.63754E+02 -5.58209E+02  5.28457E+02
 -5.96990E+02  1.11827E+03 -1.88592E+03  5.75982E+02 -1.88321E+03 -6.47141E+01 -2.52971E+03 -9.35082E+02
 -1.24204E+03 -2.45741E+03  5.60244E+02 -2.87585E+03  1.09391E+03 -2.38534E+03  3.19349E+03 -8.67764E+02
  2.38158E+03 -8.14002E+01  1.37013E+03  1.29535E+03 -6.31844E+02  1.29580E+03 -4.86942E+02  1.42939E+03
 -8.38764E+02  1.13854E+03 -5.38667E+02 -1.08563E+02 -1.87318E+02  1.13786E+02 -7.80549E+02  1.68932E+02
 -1.13680E+03  9.39809E+01 -1.08764E+03  1.48735E+02  1.26879E+01 -4.95212E+02 -4.55718E+02 -8.74661E+02
  1.18120E+03 -5.40040E+02  2.81396E+02  2.00438E+02  1.25025E+03  1.35419E+03 -4.53303E+02  1.52390E+03
 -9.44830E+02  2.34018E+03 -1.78673E+03  1.42292E+03 -1.60060E+03 -3.68935E+02 -1.09899E+03 -1.44121E+03
 -7.30436E+02 -1.52328E+03 -1.99471E+01 -9.72499E+02  2.82882E+02 -5.40993E+02  5.63500E+02  4.67455E+01
  8.67655E+02  3.52996E+02 -1.29298E+02  2.78410E+02 -1.51030E+02  1.36792E+02 -3.01457E+02  1.75196E+01
  6.33427E+02  1.47552E+02  7.50767E+01  2.97546E+02  4.45885E+01  6.06895E+02  7.21761E+02  1.48949E+02
 -4.09185E+02  6.27119E+02 -6.26922E+02 -9.51526E+01 -6.85554E+02 -5.10842E+02  6.56421E+01 -1.00088E+03
  2.46944E+02 -7.48016E+02  6.86251E+02 -2.30697E+02  8.28621E+02 -5.58003E+02  4.65865E+02  8.77783E+02
  3.82270E+02  6.78028E+02 -6.09508E+02  8.64875E+02 -2.00746E+02  6.56764E+02 -1.97069E+02  1.91057E+02
 -5.41660E+01 -1.19231E+02 -4.75705E+02  2.83567E+02 -3.77923E+02  3.40793E+02 -8.48164E+02 -6.00537E+02
 -9.66389E+02  3.45171E+02 -2.26731E+02 -1.18609E+03  7.30662E+02 -1.77723E+03  7.99254E+02 -3.48868E+02
  4.22624E+02  1.79135E+02 -3.25566E+02  5.09330E+02  2.01423E+01  8.03556E+02 -2.08527E+02  5.08051E+02
