 $NMID ID='MM_0lb_SNR800_9hz_g55_62.RAW', FMTDAT='(8E13.5)'
 TRAMP=1., VOLUME=1. $END
  3.09666E+05  6.76110E+02  3.37833E+05  2.50782E+05  8.49042E+04  3.38744E+05 -1.32446E+05  2.52045E+05
 -1.90855E+05  8.37778E+04 -1.13142E+05 -3.25503E+04  5.45260E+01 -5.10479E+04  5.35757E+04 -3.13845E+02
  3.58921E+04  5.27680E+04 -1.65689E+04  7.61368E+04 -6.15308E+04  6.43506E+04 -8.53638E+04  3.26408E+04
 -8.24112E+04 -1.17110E+04 -5.80599E+04 -5.25125E+04 -1.52539E+04 -7.10042E+04  2.82695E+04 -4.70344E+04
  4.12887E+04  3.32495E+03  1.67192E+04  4.83988E+04 -3.49948E+04  4.85627E+04 -6.81404E+04 -3.73364E+02
 -5.50330E+04 -5.76264E+04 -7.34447E+03 -7.94052E+04  3.47072E+04 -5.71584E+04  4.95058E+04 -1.81759E+04
  4.56914E+04  1.19960E+04  3.31058E+04  2.68346E+04  1.62897E+04  3.06552E+04 -5.93477E+03  2.80180E+04
 -2.25054E+04  1.22849E+04 -1.78023E+04 -5.81971E+03  7.28785E+03 -7.37946E+03  2.36030E+04  1.38728E+04
  7.33528E+03  3.78828E+04 -3.36623E+04  3.74117E+04 -6.58812E+04  2.09540E+03 -5.87772E+04 -4.47168E+04
 -1.28694E+04 -6.60087E+04  4.17741E+04 -4.77753E+04  6.17365E+04 -2.01429E+03  3.69028E+04  3.47831E+04
 -4.94592E+03  3.93546E+04 -3.18859E+04  1.91374E+04 -3.32594E+04 -3.70864E+03 -1.96141E+04 -1.19481E+04
 -1.00219E+04 -1.55850E+04 -7.64872E+02 -1.99748E+04  8.89412E+03 -2.35103E+04  1.60207E+04 -1.30511E+04
  1.06832E+04  6.00875E+03 -1.10996E+04  1.32475E+04 -2.39646E+04 -6.92499E+03 -8.79900E+03 -3.80398E+04
  2.54851E+04 -4.71068E+04  5.26274E+04 -2.13890E+04  4.86455E+04  2.06100E+04  1.71197E+04  4.75045E+04
 -1.69964E+04  3.63304E+04 -2.78082E+04  2.33685E+03 -1.20627E+04 -2.95285E+04  2.17580E+04 -3.74261E+04
  4.52468E+04 -1.11794E+04  4.05859E+04  2.51990E+04  2.18371E+04  5.17029E+04 -8.20972E+03  5.66763E+04
 -3.58299E+04  3.86101E+04 -4.79680E+04  1.16271E+04 -4.83285E+04 -1.89259E+04 -2.63085E+04 -4.29575E+04
  8.21043E+03 -4.27303E+04  3.44842E+04 -1.73860E+04  3.25564E+04  1.09921E+04  5.22595E+03  2.13084E+04
 -1.38927E+04  1.00270E+04 -1.15652E+04 -7.58320E+03  5.73551E+03 -1.10876E+04  1.86578E+04  5.05253E+03
  1.51422E+04  2.29446E+04 -5.16614E+03  2.74864E+04 -2.35122E+04  1.48015E+04 -3.20488E+04 -2.93980E+03
 -2.59670E+04 -1.86856E+04 -1.21079E+04 -2.54534E+04  4.46578E+03 -2.64070E+04  2.01945E+04 -2.33875E+04
  3.26168E+04 -1.45629E+04  3.87904E+04  5.07791E+03  2.75124E+04  2.47204E+04  4.47223E+03  4.19081E+04
 -1.99182E+04  3.42810E+04 -3.09939E+04  1.19867E+04 -2.26719E+04 -1.01138E+04 -4.86034E+03 -1.27951E+04
  8.79216E+02 -9.24948E+02 -7.85847E+03  8.42856E+03 -2.07459E+04  4.86341E+03 -2.04900E+04 -9.74177E+03
 -1.19757E+04 -2.38923E+04  6.57249E+03 -2.80491E+04  1.89589E+04 -2.02815E+04  2.32778E+04 -1.98812E+03
  1.48844E+04  1.64701E+04 -1.21281E+03  2.34903E+04 -1.71074E+04  1.34768E+04 -2.40411E+04 -4.72310E+03
 -1.75805E+04 -2.14152E+04 -2.43674E+03 -2.85913E+04  1.26484E+04 -2.39547E+04  2.35587E+04 -1.20520E+04
  2.25798E+04 -1.63705E+02  1.61611E+04  5.21240E+03  9.32207E+03  1.09842E+03  1.22537E+04 -1.92832E+03
  2.22272E+04  2.84573E+03  2.62449E+04  1.86830E+04  1.79119E+04  3.83794E+04 -2.56884E+03  4.54537E+04
 -2.59339E+04  3.81128E+04 -4.28903E+04  1.96029E+04 -4.59223E+04 -3.56376E+03 -3.66664E+04 -2.68464E+04
 -1.44583E+04 -3.84864E+04  1.35135E+04 -3.33326E+04  2.89400E+04 -1.52933E+04  2.46012E+04  7.86932E+03
  8.32253E+03  1.92938E+04 -1.20390E+04  1.57502E+04 -2.07488E+04  2.61872E+03 -1.57447E+04 -1.37820E+04
 -3.80680E+02 -1.91846E+04  1.03303E+04 -1.50458E+04  1.38262E+04 -1.11135E+03  3.18105E+03  8.62938E+03
 -8.75959E+03  4.19165E+03 -9.19026E+03 -7.22163E+03 -2.09044E+03 -1.85285E+04  1.20462E+04 -2.03195E+04
  2.35335E+04 -1.15272E+04  2.69568E+04  3.23526E+03  2.36169E+04  1.90569E+04  1.06300E+04  3.02163E+04
 -6.01505E+03  3.20015E+04 -2.10716E+04  1.96559E+04 -2.35760E+04  4.22926E+03 -1.56039E+04 -6.31019E+03
 -6.28608E+03 -7.92281E+03 -4.52045E+02  1.37284E+02 -2.66762E+03  3.25378E+03 -7.64686E+03  5.60688E+03
 -1.45625E+04 -9.06265E+02 -1.48934E+04 -1.18011E+04 -6.33812E+03 -1.98604E+04  6.39942E+03 -1.61331E+04
  1.33801E+04 -6.83753E+03  9.57597E+03  4.45040E+03 -3.43781E+02  6.57198E+03 -8.39431E+03  2.07006E+02
 -7.83754E+03 -1.01917E+04 -1.30202E+03 -1.60781E+04  9.28603E+03 -1.68574E+04  2.06909E+04 -8.98561E+03
  2.44819E+04  2.55345E+03  1.76745E+04  1.46715E+04  3.53471E+03  1.93969E+04 -9.64251E+03  1.57605E+04
 -1.27461E+04  4.20746E+03 -6.41094E+03 -3.55320E+03  2.56063E+03 -4.46431E+03  8.54975E+03 -1.06566E+03
  7.54686E+03  7.33820E+03  1.19173E+03  1.28367E+04 -9.51044E+03  1.26192E+04 -1.61005E+04  2.55925E+03
 -1.08526E+04 -8.94173E+03  5.67531E+02 -1.41747E+04  9.51268E+03 -6.83814E+03  9.36504E+03  3.84460E+03
  2.81820E+03  1.02765E+04 -8.64107E+03  1.18772E+04 -1.43449E+04  5.04636E+03 -1.45760E+04 -5.17575E+03
 -8.16447E+03 -1.63334E+04  4.29309E+03 -1.89132E+04  1.59612E+04 -1.12481E+04  1.76938E+04  2.88906E+03
  1.01941E+04  1.33842E+04 -1.01601E+03  1.63558E+04 -1.18565E+04  9.27345E+03 -1.31223E+04 -1.24813E+03
 -1.11282E+04 -1.11288E+04 -1.74608E+03 -1.23671E+04  6.66271E+03 -9.92656E+03  8.34677E+03 -4.10351E+03
  5.11786E+03  2.12574E+03 -1.18445E+03  2.11624E+03 -8.02407E+02 -3.81145E+03  2.92565E+03 -7.68343E+03
  1.16928E+04 -4.92376E+03  1.65117E+04  2.06797E+03  1.62120E+04  1.15248E+04  1.05675E+04  2.17804E+04
 -5.91072E+03  2.51235E+04 -2.03280E+04  1.81773E+04 -2.67938E+04  3.21810E+03 -2.17500E+04 -9.57016E+03
 -1.08325E+04 -1.76577E+04 -1.90208E+02 -1.50973E+04  5.41718E+03 -8.77618E+03  5.52680E+03 -5.50705E+03
  4.28720E+03 -3.59195E+03  4.09765E+03 -4.61661E+03  6.06556E+03 -3.49736E+03  8.35022E+03 -1.78813E+03
  1.11769E+04  2.58016E+03  6.22979E+03  1.00346E+04 -1.96245E+03  1.18414E+04 -1.17490E+04  9.06658E+03
 -1.55863E+04 -1.66618E+03 -9.68088E+03 -1.07283E+04 -1.49851E+03 -1.60871E+04  8.97389E+03 -1.63825E+04
  1.71827E+04 -9.11195E+03  2.01662E+04  3.21367E+03  1.37859E+04  1.40199E+04  1.74209E+03  1.85426E+04
 -7.87101E+03  1.49903E+04 -1.07528E+04  4.95829E+03 -7.09751E+03 -1.95569E+03 -3.30833E+03 -2.58387E+03
 -1.64281E+03 -2.82263E+02 -2.47799E+03  3.18080E+03 -6.20885E+03  2.82528E+03 -1.02543E+04 -1.68035E+03
 -7.69302E+03 -1.04487E+04 -1.02480E+02 -1.54817E+04  9.61565E+03 -1.40463E+04  1.51423E+04 -4.41033E+03
  1.51857E+04  7.29772E+03  7.34069E+03  1.35792E+04 -2.87483E+03  1.56348E+04 -1.11504E+04  1.01417E+04
 -1.45846E+04  8.23316E+02 -1.11653E+04 -9.42741E+03 -1.32590E+03 -1.32836E+04  6.39192E+03 -9.85600E+03
  9.49245E+03 -3.33106E+03  6.59966E+03  2.88705E+03  2.01627E+03  4.26523E+03  1.41589E+03  2.32128E+03
  2.91874E+03  1.04582E+03  3.83081E+03  2.07074E+03  4.74703E+03  5.25216E+03  3.96529E+03  8.30775E+03
 -3.20215E+03  1.20383E+04 -1.07029E+04  1.23298E+04 -1.61293E+04  2.99983E+03 -1.65620E+04 -6.68576E+03
 -8.02335E+03 -1.61128E+04  2.43879E+03 -1.71793E+04  9.77799E+03 -1.10824E+04  1.32043E+04 -2.97870E+03
  9.99139E+03  6.08647E+03  2.59397E+03  8.80259E+03 -4.56618E+03  6.08378E+03 -6.57954E+03 -7.37242E+02
 -3.11437E+03 -6.77837E+03  3.55324E+03 -7.09239E+03  6.85982E+03 -3.57606E+03  6.20659E+03  1.61574E+03
  3.82581E+03  2.90121E+03  1.42903E+03  2.76199E+03 -7.03913E+02  2.22353E+03  1.52121E+03 -6.37710E+02
  2.69942E+03 -1.06364E+03  6.40663E+03  2.34361E+03  3.40347E+03  8.51114E+03 -1.22196E+03  1.16140E+04
 -7.67234E+03  7.44108E+03 -1.03788E+04  2.06978E+03 -8.67620E+03 -3.38867E+03 -3.52117E+03 -6.02778E+03
  9.56310E+02 -6.06280E+03  4.04260E+03 -2.78865E+03  3.51512E+03  3.21592E+03 -1.39901E+03  5.33745E+03
 -6.36849E+03  2.91710E+03 -7.27475E+03 -3.76520E+03 -4.01975E+03 -8.48197E+03  1.31498E+03 -9.17209E+03
  5.28261E+03 -5.62832E+03  6.43039E+03 -7.03695E+02  5.42659E+03  2.03724E+03  1.34178E+02  4.83874E+03
 -3.19304E+03  1.95349E+03 -4.11171E+03 -3.11510E+03  1.75664E+03 -7.02093E+03  7.95428E+03 -5.60088E+03
  1.04739E+04  3.74710E+02  9.62294E+03  7.23205E+03  2.92316E+03  1.03141E+04 -4.00430E+03  9.61569E+03
 -8.86881E+03  4.50590E+03 -9.00014E+03 -1.10852E+03 -5.12369E+03 -7.15307E+03  1.41756E+03 -6.04705E+03
  6.64743E+03 -3.20416E+03  5.39245E+03  3.39029E+03  1.47880E+03  5.60387E+03 -1.00831E+03  4.75304E+03
 -2.73241E+03  3.37177E+03 -2.77820E+03  1.06565E+03 -1.19008E+03  9.59788E+02 -1.54112E+03  1.99550E+03
 -2.95365E+03  3.70112E+03 -7.08520E+03  3.93257E+03 -1.00710E+04  1.29473E+02 -1.17481E+04 -6.98557E+03
 -6.03662E+03 -1.38577E+04  3.02017E+03 -1.60902E+04  1.02515E+04 -1.22098E+04  1.53969E+04 -4.55374E+03
  1.40898E+04  3.03527E+03  8.95508E+03  9.40051E+03  6.78205E+02  1.05225E+04 -4.47896E+03  7.84811E+03
 -5.98117E+03  2.95279E+03 -4.05592E+03 -1.06845E+03 -1.32941E+03 -1.33318E+03 -4.80489E+02 -7.75572E+01
 -2.51728E+03  2.29832E+01 -1.98967E+03  2.04108E+01 -6.27294E+02 -2.59573E+03  8.47424E+02 -4.15926E+03
  5.16920E+03 -3.77292E+03  6.54866E+03 -3.09177E+02  7.62461E+03  5.65434E+03  2.28542E+03  1.07671E+04
 -5.35167E+03  1.22861E+04 -1.18577E+04  7.32575E+03 -1.32905E+04 -1.14329E+03 -1.00023E+04 -8.31961E+03
 -4.24794E+03 -1.12525E+04  2.88910E+03 -1.02109E+04  7.20081E+03 -5.50260E+03  7.60220E+03  5.15276E+02
  4.02606E+03  3.88656E+03 -4.02232E+02  2.87398E+03 -2.09392E+03 -3.08522E+02  4.39728E+02 -2.83935E+03
  3.62820E+03 -1.82311E+03  4.60012E+03  1.66677E+03  3.27272E+03  4.08283E+03  1.82598E+02  5.81835E+03
 -4.69824E+03  4.58243E+03 -7.02400E+03  6.91402E+02 -6.76436E+03 -5.49973E+03 -5.88472E+02 -9.43370E+03
  5.35925E+03 -7.97320E+03  8.47995E+03 -2.46248E+03  8.40489E+03  2.35663E+03  5.06801E+03  7.01903E+03
  9.04837E+02  7.20886E+03 -2.91312E+03  5.82775E+03 -4.84626E+03  3.02886E+03 -3.90350E+03  7.45877E+02
 -1.88674E+03 -6.69745E+02 -2.24367E+03  7.76747E+02 -3.75853E+03  1.45738E+03 -5.73690E+03 -1.26570E+03
 -5.55535E+03 -3.75374E+03 -1.83902E+03 -7.47811E+03  3.20377E+03 -7.37836E+03  6.75778E+03 -3.51498E+03
  7.14726E+03  1.33607E+03  3.95352E+03  5.14223E+03 -3.34645E+02  7.12288E+03 -5.72820E+03  5.03836E+03
