 $NMID ID='MM_0lb_SNR800_18hz_g55_77.RAW', FMTDAT='(8E13.5)'
 TRAMP=1., VOLUME=1. $END
  3.09669E+05  6.43200E+02  3.37437E+05  2.50362E+05  8.44880E+04  3.37467E+05 -1.32651E+05  2.50645E+05
 -1.90127E+05  8.27535E+04 -1.11219E+05 -3.27188E+04  1.24372E+03 -5.04255E+04  5.37594E+04 -1.34496E+02
  3.52876E+04  5.28317E+04 -1.70479E+04  7.53247E+04 -6.07212E+04  6.33048E+04 -8.34483E+04  3.18035E+04
 -8.05271E+04 -1.11238E+04 -5.65467E+04 -5.08367E+04 -1.50450E+04 -6.92112E+04  2.70997E+04 -4.51072E+04
  3.93402E+04  4.00813E+03  1.57649E+04  4.76331E+04 -3.40083E+04  4.67723E+04 -6.58203E+04 -3.34066E+02
 -5.25777E+04 -5.62020E+04 -6.42634E+03 -7.62208E+04  3.36856E+04 -5.37355E+04  4.72751E+04 -1.68726E+04
  4.24146E+04  1.10516E+04  3.13086E+04  2.47508E+04  1.59135E+04  2.88699E+04 -4.49343E+03  2.72033E+04
 -2.17289E+04  1.25711E+04 -1.87547E+04 -4.64559E+03  4.90689E+03 -7.76749E+03  2.19646E+04  1.19099E+04
  7.46116E+03  3.40574E+04 -3.10451E+04  3.47225E+04 -6.21406E+04  2.22213E+03 -5.63764E+04 -4.21819E+04
 -1.24398E+04 -6.19993E+04  3.88772E+04 -4.40308E+04  5.67641E+04 -1.99894E+03  3.28812E+04  3.14067E+04
 -6.04758E+03  3.46610E+04 -2.92357E+04  1.45051E+04 -2.88206E+04 -5.09471E+03 -1.54305E+04 -1.05010E+04
 -7.66779E+03 -1.24900E+04 -8.62595E+02 -1.72348E+04  6.90467E+03 -2.26454E+04  1.53137E+04 -1.36021E+04
  1.18557E+04  4.65356E+03 -7.20705E+03  1.32521E+04 -2.00968E+04 -3.34232E+03 -7.96506E+03 -3.16063E+04
  2.17835E+04 -4.18843E+04  4.59615E+04 -1.92140E+04  4.33159E+04  1.88727E+04  1.47862E+04  4.24765E+04
 -1.55747E+04  3.19106E+04 -2.42481E+04  1.25934E+03 -8.97200E+03 -2.68227E+04  2.08763E+04 -3.24261E+04
  3.93029E+04 -7.88811E+03  3.27752E+04  2.32039E+04  1.65485E+04  4.42293E+04 -7.65257E+03  4.74617E+04
 -2.96762E+04  3.16848E+04 -3.90954E+04  9.26274E+03 -4.00685E+04 -1.57901E+04 -2.24773E+04 -3.57926E+04
  6.86168E+03 -3.53381E+04  2.97848E+04 -1.34314E+04  2.77140E+04  1.09056E+04  3.43418E+03  1.82852E+04
 -1.32718E+04  7.61624E+03 -9.89755E+03 -7.60481E+03  6.11109E+03 -1.04063E+04  1.77877E+04  6.21259E+03
  1.27026E+04  2.15744E+04 -6.38234E+03  2.39516E+04 -2.17455E+04  1.00976E+04 -2.64430E+04 -5.99626E+03
 -1.83711E+04 -1.66771E+04 -6.47745E+03 -1.82106E+04  4.01626E+03 -1.65408E+04  1.36415E+04 -1.59684E+04
  2.27642E+04 -1.19704E+04  2.97440E+04  1.99008E+03  2.19840E+04  1.76295E+04  4.26587E+03  3.38117E+04
 -1.67705E+04  2.86582E+04 -2.67218E+04  9.62189E+03 -2.00992E+04 -1.04438E+04 -4.19499E+03 -1.36860E+04
  2.25908E+03 -3.86703E+03 -3.54185E+03  5.92020E+03 -1.41860E+04  5.05737E+03 -1.42753E+04 -5.60583E+03
 -9.17892E+03 -1.66674E+04  4.82337E+03 -2.06885E+04  1.37060E+04 -1.47479E+04  1.58314E+04 -1.41009E+03
  9.52968E+03  1.13359E+04 -1.10603E+03  1.66042E+04 -1.12966E+04  9.59875E+03 -1.64336E+04 -3.31419E+03
 -1.20571E+04 -1.46097E+04 -1.49719E+03 -2.03789E+04  9.14752E+03 -1.63253E+04  1.73041E+04 -7.81019E+03
  1.53330E+04  5.01434E+02  1.10685E+04  4.13087E+03  5.88207E+03  5.40325E+02  7.94419E+03 -1.35177E+03
  1.50659E+04  2.58488E+03  1.60686E+04  1.32998E+04  1.04153E+04  2.63511E+04 -2.89520E+03  2.88462E+04
 -1.71262E+04  2.27488E+04 -2.68612E+04  1.11728E+04 -2.75384E+04 -2.15241E+03 -2.31366E+04 -1.57594E+04
 -1.07574E+04 -2.23013E+04  7.66859E+03 -2.06855E+04  1.79697E+04 -1.13803E+04  1.67739E+04  4.28117E+03
  6.64893E+03  1.20629E+04 -7.71902E+03  1.09021E+04 -1.42682E+04  2.24695E+03 -1.06470E+04 -8.66112E+03
 -2.66000E+01 -1.31491E+04  6.66102E+03 -9.90803E+03  8.30389E+03 -1.37339E+03  1.48094E+03  5.39990E+03
 -5.96507E+03  1.46843E+03 -4.41782E+03 -4.98766E+03  7.21777E+01 -1.07979E+04  8.29026E+03 -1.12410E+04
  1.34988E+04 -5.39925E+03  1.36322E+04  2.92903E+03  1.17317E+04  1.04294E+04  5.57658E+03  1.55464E+04
 -2.16809E+03  1.75455E+04 -1.06360E+04  1.11712E+04 -1.23079E+04  2.96124E+03 -9.06768E+03 -2.43064E+03
 -4.54151E+03 -3.94424E+03 -9.38707E+02  1.51073E+03 -1.83529E+03  2.16319E+03 -4.21070E+03  3.92544E+03
 -8.39476E+03 -4.75164E+02 -9.52034E+03 -7.97532E+03 -4.08131E+03 -1.20242E+04  3.70681E+03 -8.83367E+03
  7.86185E+03 -4.14193E+03  5.37357E+03  2.58509E+03  5.76239E+02  3.37372E+03 -3.83924E+03 -1.34664E+02
 -3.74757E+03 -5.84736E+03 -6.31580E+02 -8.00771E+03  4.27404E+03 -8.44954E+03  1.06217E+04 -4.37684E+03
  1.26951E+04  6.87872E+02  9.39724E+03  6.82751E+03  2.13386E+03  9.70032E+03 -5.63593E+03  8.51561E+03
 -7.45478E+03  2.95498E+03 -3.73026E+03 -1.50248E+03  1.43427E+03 -2.08810E+03  5.16953E+03 -9.93155E+02
  4.45631E+03  3.64539E+03  1.24608E+03  6.89278E+03 -4.77656E+03  6.76726E+03 -8.49764E+03  2.02867E+03
 -5.50008E+03 -3.76361E+03  2.27307E+02 -7.22852E+03  4.41916E+03 -3.69746E+03  4.07987E+03  1.48250E+03
  1.50486E+02  3.84025E+03 -4.80954E+03  5.11465E+03 -5.60685E+03  2.68513E+03 -5.12344E+03 -1.32934E+03
 -3.16791E+03 -6.91326E+03  1.60070E+03 -7.95957E+03  6.74694E+03 -5.09302E+03  7.05257E+03  9.16974E+02
  5.18724E+03  5.94699E+03 -1.60157E+02  7.71229E+03 -5.54697E+03  4.56979E+03 -5.79242E+03 -5.88255E+02
 -5.90425E+03 -5.57579E+03 -1.25521E+03 -5.55001E+03  2.76077E+03 -4.88423E+03  3.33571E+03 -2.78056E+03
  2.88133E+03  2.38946E+02  2.60013E+02  1.85549E+03  3.32208E+02 -3.54978E+02  2.98973E+02 -2.42026E+03
  4.18368E+03 -1.13338E+03  5.84531E+03  6.56295E+02  6.46132E+03  3.52653E+03  5.56675E+03  8.09010E+03
 -1.75342E+03  9.23880E+03 -8.21493E+03  6.99965E+03 -1.10303E+04  1.29508E+03 -8.59487E+03 -2.91288E+03
 -4.49120E+03 -7.20952E+03 -4.21918E+02 -5.78936E+03  2.23697E+03 -2.59280E+03  2.15945E+03 -2.02973E+03
  1.40331E+03 -1.49650E+03  2.50336E+03 -2.58441E+03  3.81259E+03 -1.35981E+03  4.15486E+03  2.84278E+02
  4.90698E+03  1.20193E+03  1.52027E+03  3.94675E+03 -1.73404E+03  2.99256E+03 -4.76196E+03  2.90293E+03
 -5.55743E+03 -1.14846E+03 -2.43610E+03 -3.73274E+03  3.32307E+02 -5.78851E+03  3.61951E+03 -5.90350E+03
  5.66820E+03 -3.46643E+03  7.46853E+03  3.64541E+02  5.29163E+03  4.48473E+03  1.10668E+03  6.51008E+03
 -2.55556E+03  6.23936E+03 -3.62816E+03  1.87801E+03 -2.19944E+03 -7.13771E+02 -7.25243E+02 -4.26181E+02
 -6.94338E+02  4.22899E+02 -9.66509E+02  2.04245E+03 -2.68459E+03  9.27180E+02 -4.19319E+03 -7.25961E+02
 -1.72873E+03 -4.36154E+03  7.35549E+02 -5.13847E+03  3.25552E+03 -4.72773E+03  4.06241E+03 -1.26699E+03
  4.38680E+03  2.64904E+03  2.10395E+03  3.61106E+03 -5.96920E+02  4.96200E+03 -3.18859E+03  2.84613E+03
 -4.38386E+03  5.02337E+02 -3.66261E+03 -2.86858E+03 -2.68535E+02 -3.38930E+03  1.66795E+03 -2.99562E+03
  3.00631E+03 -1.11393E+03  1.97449E+03  4.19312E+02  4.56551E+02  1.50684E+03  8.63177E+02  6.73665E+02
  1.64756E+03  5.52150E+02  1.16329E+03  1.13915E+03  1.04293E+03  2.05123E+03  1.70371E+03  1.77193E+03
 -1.03618E+03  3.58719E+03 -2.75845E+03  4.36883E+03 -3.64906E+03  1.60127E+03 -4.51320E+03 -8.90540E+02
 -1.93642E+03 -4.02206E+03  7.23932E+02 -5.02745E+03  2.19423E+03 -2.91184E+03  3.69664E+03 -1.07126E+03
  2.78580E+03  1.94303E+03  5.55281E+02  2.22152E+03 -9.81896E+02  1.44268E+03 -1.24467E+03 -2.88405E+02
 -7.97761E+02 -1.59530E+03  1.51731E+03 -1.80498E+03  1.55418E+03 -1.05752E+03  1.59504E+03  4.21857E+02
  7.88974E+02  5.77066E+02  1.09967E+03 -3.61773E+01 -3.95737E+02  5.84015E+02  1.70014E+03  3.60959E+01
  1.85535E+02 -1.34866E+02  2.01991E+03  4.22881E+02  3.48350E+02  2.56241E+03 -3.26698E+02  3.20194E+03
 -1.99762E+03  1.06948E+03 -1.94504E+03  3.30450E+02 -2.35782E+03 -7.13160E+02 -1.62053E+02 -9.56462E+02
  7.57284E+02 -1.17743E+03  9.55279E+02 -5.62917E+02  4.89400E+02  1.18190E+03 -5.95411E+02  1.27656E+03
 -1.66115E+03  8.45702E+02 -1.30768E+03 -1.12422E+03 -6.27714E+02 -2.51512E+03  1.67238E+02 -1.62246E+03
  6.18362E+02 -5.14003E+02  8.52582E+02  7.30386E+01  1.66567E+03  6.27678E+01  7.57353E+01  1.39205E+03
 -3.33635E+02 -2.19354E+01 -9.29819E+02 -1.61303E+02  6.61981E+02 -8.95885E+02  1.99636E+03 -9.33518E+02
  1.50732E+03  3.72804E+02  2.83809E+03  1.09520E+03  1.00505E+03  1.69920E+03 -3.95216E+02  2.12459E+03
 -1.41267E+03  1.07897E+02 -1.71823E+03 -1.30464E+02 -8.97994E+02 -1.37502E+03  4.90471E+02 -6.61020E+02
  1.59323E+03 -7.73955E+02  7.87710E+02  6.88645E+02  2.24900E+02  1.51275E+03 -1.11031E+02  1.33937E+03
 -2.25164E+02  1.28769E+03 -5.21475E+02  1.77051E+02  4.81736E+01  3.00013E+02 -8.37950E+02  4.70729E+02
 -5.26673E+02  1.14842E+03 -2.03390E+03  4.73301E+02 -1.91703E+03  2.61272E+02 -2.40535E+03 -1.14315E+03
 -1.23965E+03 -2.59766E+03  4.06795E+02 -2.82362E+03  1.26687E+03 -2.54677E+03  2.76416E+03 -1.17928E+03
  2.61275E+03 -3.16573E+02  1.40054E+03  1.65744E+03 -3.40170E+02  1.43208E+03 -3.84976E+02  1.43641E+03
 -9.89599E+02  1.00380E+03 -6.13041E+02  7.37443E+01 -6.54237E+02  3.49303E+02 -9.19080E+02 -2.92499E+02
 -1.57106E+03 -5.78698E+01 -1.00084E+03  4.72197E+01  6.65907E+02 -5.32323E+02 -3.13929E+02 -7.73744E+02
  1.16417E+03 -6.61723E+02  4.65124E+02  5.47517E+01  8.71328E+02  1.03638E+03 -4.76015E+02  1.40364E+03
 -1.00104E+03  2.69686E+03 -1.50192E+03  1.22029E+03 -1.71336E+03 -2.38628E+02 -1.16982E+03 -1.06512E+03
 -8.13323E+02 -1.30497E+03  4.04808E+02 -1.57768E+03  7.29007E+02 -7.22948E+02  4.99985E+02  1.47008E+02
  1.14035E+03  2.55233E+02 -7.22855E+00  3.81270E+02 -3.94613E+02  4.67906E+01  1.97653E+02 -3.44201E+02
  4.49868E+02  2.00666E+02  4.59989E+02  4.51080E+02  2.70020E+02  3.37978E+02  3.01690E+02  1.93356E+02
 -5.50643E+02  7.83914E+02 -6.18111E+02  1.50176E+02 -8.94955E+02 -4.91229E+02  2.19118E+02 -1.16163E+03
  4.35559E+02 -6.45355E+02  8.88250E+02  1.17727E+02  1.20892E+03 -5.35988E+02  2.96730E+02  9.24194E+02
  4.14124E+02  5.08857E+02 -2.99456E+02  3.76948E+02 -5.08818E+02  5.85367E+02 -2.65562E+02 -7.76503E+01
 -1.62564E+02 -1.93288E+02 -4.80554E+02  2.18042E+02 -6.87531E+02 -7.59782E+01 -8.62874E+02 -4.37124E+02
 -1.15078E+03  3.56577E+02 -2.41011E+02 -9.62398E+02  9.19877E+02 -1.39099E+03  8.38290E+02 -2.79969E+02
  5.79838E+02 -2.57950E+02 -1.85007E+02  1.87110E+02  1.38905E+02  5.31156E+02 -3.29582E+02  8.03666E+02
