 $NMID ID='MM_0lb_SNR800_18hz_g45_11.RAW', FMTDAT='(8E13.5)'
 TRAMP=1., VOLUME=1. $END
  3.09726E+05  1.12248E+02  3.37476E+05  2.49974E+05  8.45963E+04  3.37450E+05 -1.32725E+05  2.50188E+05
 -1.89775E+05  8.25245E+04 -1.10916E+05 -3.28186E+04  1.36453E+03 -5.05827E+04  5.37446E+04  2.59184E+02
  3.49946E+04  5.27204E+04 -1.70439E+04  7.48652E+04 -6.02568E+04  6.27605E+04 -8.28318E+04  3.15892E+04
 -7.96404E+04 -1.11685E+04 -5.63660E+04 -5.02448E+04 -1.47522E+04 -6.81511E+04  2.69591E+04 -4.49162E+04
  3.90892E+04  3.93231E+03  1.56626E+04  4.70882E+04 -3.38795E+04  4.61977E+04 -6.54999E+04 -6.35707E+02
 -5.21260E+04 -5.59115E+04 -6.38659E+03 -7.53019E+04  3.30235E+04 -5.32411E+04  4.68579E+04 -1.64457E+04
  4.19070E+04  1.09606E+04  3.07752E+04  2.46897E+04  1.53763E+04  2.82510E+04 -4.68159E+03  2.66493E+04
 -2.20723E+04  1.26364E+04 -1.92257E+04 -4.44050E+03  4.53663E+03 -7.59234E+03  2.14526E+04  1.11575E+04
  7.43957E+03  3.33590E+04 -3.05761E+04  3.38818E+04 -6.13289E+04  1.96075E+03 -5.55053E+04 -4.11352E+04
 -1.22899E+04 -6.09129E+04  3.81149E+04 -4.34927E+04  5.58187E+04 -1.90305E+03  3.20324E+04  3.07466E+04
 -6.40626E+03  3.32543E+04 -2.84146E+04  1.35456E+04 -2.78843E+04 -5.53328E+03 -1.46263E+04 -9.96442E+03
 -7.62230E+03 -1.16299E+04 -7.49442E+02 -1.63537E+04  6.63015E+03 -2.24730E+04  1.50366E+04 -1.38908E+04
  1.21260E+04  4.30801E+03 -6.23520E+03  1.29917E+04 -1.96480E+04 -2.67867E+03 -8.11034E+03 -3.06071E+04
  2.09306E+04 -4.06633E+04  4.50111E+04 -1.87114E+04  4.23118E+04  1.83991E+04  1.42941E+04  4.19793E+04
 -1.53288E+04  3.09918E+04 -2.34922E+04  1.08065E+03 -8.30368E+03 -2.65443E+04  2.06034E+04 -3.13448E+04
  3.80090E+04 -7.19441E+03  3.17345E+04  2.28524E+04  1.58636E+04  4.28469E+04 -7.73002E+03  4.54972E+04
 -2.85189E+04  3.01833E+04 -3.76998E+04  8.50296E+03 -3.85172E+04 -1.51829E+04 -2.13107E+04 -3.44617E+04
  6.64119E+03 -3.42805E+04  2.92043E+04 -1.27416E+04  2.70252E+04  1.09886E+04  2.99854E+03  1.76877E+04
 -1.33431E+04  7.29382E+03 -9.61543E+03 -7.96082E+03  6.03200E+03 -1.01622E+04  1.71091E+04  6.55244E+03
  1.21962E+04  2.15638E+04 -6.54537E+03  2.35156E+04 -2.15980E+04  9.19864E+03 -2.50400E+04 -6.18471E+03
 -1.70546E+04 -1.66143E+04 -5.69333E+03 -1.69056E+04  3.92966E+03 -1.47976E+04  1.28895E+04 -1.46812E+04
  2.17290E+04 -1.16142E+04  2.83370E+04  1.06663E+03  2.16478E+04  1.65363E+04  3.99693E+03  3.27986E+04
 -1.60664E+04  2.74576E+04 -2.57577E+04  9.47612E+03 -1.98718E+04 -1.02287E+04 -3.98364E+03 -1.37415E+04
  2.55320E+03 -4.31240E+03 -2.48824E+03  5.46682E+03 -1.32303E+04  5.02457E+03 -1.34535E+04 -5.26268E+03
 -8.67792E+03 -1.59244E+04  4.69058E+03 -1.96980E+04  1.27925E+04 -1.39812E+04  1.48186E+04 -1.73563E+03
  9.10333E+03  1.09176E+04 -6.68255E+02  1.55539E+04 -1.06075E+04  9.07630E+03 -1.56072E+04 -3.43955E+03
 -1.16494E+04 -1.43710E+04 -1.43633E+03 -1.91400E+04  8.67272E+03 -1.54605E+04  1.61287E+04 -7.26884E+03
  1.45120E+04  5.15280E+02  1.06285E+04  4.02986E+03  5.30641E+03  6.96713E+02  7.84994E+03 -1.54013E+03
  1.38438E+04  2.58615E+03  1.47927E+04  1.27533E+04  9.29801E+03  2.51093E+04 -3.17434E+03  2.72201E+04
 -1.61052E+04  2.03299E+04 -2.47770E+04  1.00229E+04 -2.54227E+04 -2.09329E+03 -2.16603E+04 -1.48486E+04
 -9.98488E+03 -2.06695E+04  7.10172E+03 -1.94979E+04  1.67809E+04 -1.09589E+04  1.58756E+04  3.68033E+03
  6.56734E+03  1.13844E+04 -7.13032E+03  1.04967E+04 -1.34734E+04  2.58608E+03 -1.04489E+04 -8.17579E+03
 -2.11872E+02 -1.27506E+04  6.20086E+03 -9.44102E+03  8.03883E+03 -1.17618E+03  1.37029E+03  4.93963E+03
 -5.53104E+03  1.47421E+03 -3.94827E+03 -4.67439E+03  7.30652E+02 -1.03823E+04  7.88543E+03 -1.03533E+04
  1.27575E+04 -4.81606E+03  1.23420E+04  2.52386E+03  1.05851E+04  9.70850E+03  4.78010E+03  1.42773E+04
 -1.95731E+03  1.62408E+04 -1.02104E+04  1.03822E+04 -1.14427E+04  2.84835E+03 -8.66780E+03 -1.90837E+03
 -4.37923E+03 -3.15346E+03 -8.99395E+02  1.35712E+03 -2.24137E+03  1.97821E+03 -3.41322E+03  3.67611E+03
 -8.38691E+03 -5.38319E+02 -8.96119E+03 -7.11647E+03 -3.68971E+03 -1.16635E+04  3.83517E+03 -8.85251E+03
  7.41324E+03 -4.01256E+03  5.27767E+03  2.28833E+03  5.38908E+02  3.18821E+03 -3.61895E+03  1.18172E+02
 -3.52929E+03 -5.24759E+03 -5.43485E+02 -7.39578E+03  4.29155E+03 -8.12189E+03  1.00486E+04 -4.31456E+03
  1.17701E+04  5.70489E+02  8.93352E+03  6.22270E+03  1.69691E+03  8.92076E+03 -5.62008E+03  8.43052E+03
 -7.18066E+03  2.82569E+03 -3.75177E+03 -1.36526E+03  1.48166E+03 -1.80182E+03  4.92899E+03 -1.10356E+03
  4.23295E+03  3.45812E+03  8.75524E+02  6.35830E+03 -4.55010E+03  6.38297E+03 -7.85388E+03  1.77291E+03
 -5.24440E+03 -3.77953E+03  3.70129E+02 -6.85509E+03  3.81058E+03 -3.09341E+03  4.03135E+03  7.47925E+02
  6.52697E+02  3.26968E+03 -4.10544E+03  4.81414E+03 -4.97187E+03  2.27018E+03 -4.75451E+03 -1.23009E+03
 -3.18733E+03 -6.37637E+03  1.16831E+03 -7.50966E+03  6.35995E+03 -4.80757E+03  6.62585E+03  1.06254E+03
  4.55610E+03  5.56700E+03  2.05408E+02  7.47838E+03 -5.25674E+03  4.65408E+03 -5.66042E+03 -3.36515E+02
 -5.97478E+03 -5.30178E+03 -1.57274E+03 -5.03136E+03  2.55486E+03 -4.87025E+03  3.19916E+03 -2.98936E+03
  2.90419E+03  2.32054E+02  2.26404E+00  1.49858E+03  5.89488E+02 -5.33030E+02  1.85334E+02 -2.07983E+03
  4.05255E+03 -6.85538E+02  5.48209E+03  6.49906E+02  5.47975E+03  3.49016E+03  5.48137E+03  7.39696E+03
 -1.11547E+03  8.80419E+03 -7.88696E+03  6.59566E+03 -1.02105E+04  1.47752E+03 -8.24756E+03 -2.54832E+03
 -4.25192E+03 -6.77890E+03 -7.80003E+02 -5.41743E+03  2.04252E+03 -2.24856E+03  1.59425E+03 -1.83254E+03
  1.22612E+03 -1.72376E+03  2.19666E+03 -2.46783E+03  3.37838E+03 -1.50953E+03  3.81902E+03  2.70029E+02
  4.34089E+03  1.38376E+03  1.23766E+03  3.43273E+03 -1.60930E+03  3.02577E+03 -4.39116E+03  2.82610E+03
 -5.13030E+03 -1.14611E+03 -2.21001E+03 -3.75443E+03  5.12287E+02 -5.40272E+03  3.46333E+03 -5.30075E+03
  5.35092E+03 -3.28541E+03  7.03255E+03  4.73634E+02  5.01790E+03  4.35379E+03  1.09150E+03  6.16251E+03
 -2.45756E+03  6.00180E+03 -3.61525E+03  1.84139E+03 -2.25151E+03 -1.07113E+03 -5.69312E+02 -4.40160E+02
 -5.26515E+02  3.84624E+02 -9.25133E+02  1.92558E+03 -2.49198E+03  9.00562E+02 -4.24001E+03 -4.60626E+02
 -1.61719E+03 -4.14318E+03  7.35866E+02 -4.59147E+03  2.68382E+03 -4.77321E+03  3.64991E+03 -1.33370E+03
  4.22514E+03  2.21313E+03  1.83314E+03  3.37298E+03 -8.58223E+02  4.62535E+03 -2.67321E+03  2.63273E+03
 -4.16340E+03  3.99664E+02 -3.48655E+03 -2.32623E+03 -1.12759E+02 -3.51113E+03  1.66762E+03 -2.87954E+03
  2.85202E+03 -1.49833E+03  1.99262E+03  3.69220E+02  2.97722E+02  1.52533E+03  7.91145E+02  6.80319E+02
  1.79269E+03  5.52741E+02  1.36667E+03  8.54838E+02  1.30796E+03  2.34445E+03  1.59132E+03  2.27206E+03
 -1.31655E+03  3.23244E+03 -2.55858E+03  4.30032E+03 -3.19922E+03  1.00283E+03 -4.15610E+03 -2.97839E+02
 -2.06721E+03 -3.96242E+03  6.46844E+02 -4.77225E+03  2.12108E+03 -2.75933E+03  3.22148E+03 -9.98705E+02
  2.67595E+03  1.97358E+03  4.55625E+02  2.35717E+03 -9.93838E+02  1.44400E+03 -1.06427E+03  3.42368E+02
 -7.44882E+02 -1.81266E+03  1.22024E+03 -1.30662E+03  1.37605E+03 -1.14399E+03  1.67089E+03  4.73011E+02
  6.46388E+02  4.89482E+02  6.07253E+02 -5.02683E+01 -3.64256E+02  5.32485E+02  1.58263E+03 -5.59276E+02
  3.09790E+02 -2.62672E+02  1.86631E+03  4.55720E+02  9.36975E+01  2.33002E+03 -4.06163E+02  2.79800E+03
 -1.83859E+03  1.05414E+03 -2.04366E+03  3.41170E+02 -2.41080E+03 -7.42165E+02 -2.38911E+02 -1.00805E+03
  6.67333E+02 -1.38545E+03  8.58440E+02 -5.52586E+02  7.42855E+02  1.17300E+03 -6.38501E+02  1.03473E+03
 -1.67568E+03  7.83609E+02 -1.24856E+03 -1.27027E+03 -7.10236E+02 -1.96606E+03  1.28166E+02 -1.80849E+03
  4.46326E+02 -4.86855E+02  1.15116E+03  4.52780E+01  1.28443E+03 -1.19104E+02  4.88455E+02  1.06536E+03
 -3.92686E+02  3.40956E+02 -1.06750E+03 -1.21463E+02  6.56322E+02 -1.19366E+03  1.98285E+03 -8.97992E+02
  1.27668E+03  1.76171E+02  3.06488E+03  8.46743E+02  1.17124E+03  1.58966E+03 -4.83008E+02  1.94538E+03
 -1.76003E+03  3.88166E+02 -1.33788E+03 -1.49554E+02 -8.26790E+02 -1.22231E+03  8.29393E+01 -7.64808E+02
  1.23221E+03 -7.24604E+02  7.31277E+02  8.22609E+02  3.36519E+02  1.44586E+03  5.19743E+02  1.07330E+03
 -4.47968E+02  1.10766E+03 -3.80284E+02  1.90511E+02  6.97990E+01  5.41544E+02 -9.40477E+02  5.19582E+02
 -6.62910E+02  1.07996E+03 -2.19992E+03  5.71681E+02 -1.83679E+03  1.81150E+02 -2.43817E+03 -1.14929E+03
 -1.15755E+03 -2.36064E+03  3.90070E+02 -2.91449E+03  1.14582E+03 -2.68474E+03  3.24319E+03 -1.01593E+03
  2.57529E+03 -4.57326E+01  1.55674E+03  1.90005E+03 -3.35191E+02  1.80237E+03 -4.98905E+02  1.34577E+03
 -1.05965E+03  7.55675E+02 -5.52861E+02 -3.60317E+02 -7.06830E+02  8.27258E+01 -6.92043E+02  2.96314E+02
 -1.24360E+03 -1.00392E+02 -9.92450E+02  5.58114E+01  1.69546E+02 -5.61458E+02 -4.10365E+02 -7.01718E+02
  1.24094E+03 -5.22124E+02  5.17407E+02  1.99324E+02  1.63712E+03  9.60911E+02 -5.75323E+02  1.42450E+03
 -9.05203E+02  2.22024E+03 -1.75166E+03  1.41863E+03 -1.93906E+03 -3.71254E+01 -1.34256E+03 -1.41048E+03
 -8.67878E+02 -1.45288E+03  4.42493E+02 -1.36041E+03  9.53583E+02 -5.23834E+02  9.48403E+02  1.55418E+02
  5.60483E+02  2.18713E+02  1.94454E+02  1.70842E+02 -4.00781E+02 -6.19263E+01 -2.00460E+02 -2.40077E+02
  7.13892E+02  5.10716E+01  3.23125E+02  6.20494E+02  2.50139E+01  6.06730E+02  2.44047E+02  2.18015E+02
 -5.93770E+02  8.63149E+02 -7.03702E+02  3.08709E+02 -9.70392E+02 -5.34876E+02 -5.03156E+01 -1.21959E+03
  5.14748E+02 -8.44476E+02  6.72218E+02 -1.50654E+02  9.37042E+02 -5.29866E+02  3.30781E+02  8.49582E+02
  3.27652E+02  8.21268E+02 -3.07625E+02  9.08861E+02 -6.01160E+02  7.12224E+02 -4.89794E+02  3.00979E+02
 -1.44990E+02 -8.24992E+01 -3.62305E+02  1.73372E+02 -7.00239E+02  8.41872E+01 -9.86935E+02 -3.79468E+02
 -1.03056E+03  1.94616E+02 -4.04070E+02 -9.60130E+02  7.15750E+02 -1.67490E+03  1.09948E+03 -4.79284E+02
  9.13695E+02 -7.08758E+01 -1.77505E+02  4.28242E+02 -8.74172E+01  1.00989E+03 -6.76903E+02  5.89633E+02
