 $NMID ID='MM_0lb_SNR800_11hz_g60_72.RAW', FMTDAT='(8E13.5)'
 TRAMP=1., VOLUME=1. $END
  3.09995E+05  2.87991E+02  3.37979E+05  2.50700E+05  8.52237E+04  3.38632E+05 -1.32599E+05  2.51883E+05
 -1.90999E+05  8.38908E+04 -1.12759E+05 -3.25493E+04  5.88063E+01 -5.06968E+04  5.37587E+04 -4.05310E+02
  3.54314E+04  5.31453E+04 -1.65275E+04  7.59435E+04 -6.14282E+04  6.43854E+04 -8.53546E+04  3.25026E+04
 -8.23808E+04 -1.17471E+04 -5.81504E+04 -5.23906E+04 -1.52061E+04 -7.07090E+04  2.78398E+04 -4.62975E+04
  4.11507E+04  4.02443E+03  1.65944E+04  4.84374E+04 -3.47791E+04  4.81571E+04 -6.78917E+04 -1.04270E+02
 -5.47861E+04 -5.75631E+04 -7.10432E+03 -7.85648E+04  3.44646E+04 -5.70206E+04  4.95639E+04 -1.81881E+04
  4.54945E+04  1.14546E+04  3.30153E+04  2.66717E+04  1.59705E+04  3.02514E+04 -5.45509E+03  2.76253E+04
 -2.24787E+04  1.19321E+04 -1.81494E+04 -5.34280E+03  6.84115E+03 -7.35071E+03  2.36223E+04  1.38691E+04
  6.81251E+03  3.72246E+04 -3.37823E+04  3.71188E+04 -6.57364E+04  2.23879E+03 -5.86359E+04 -4.42279E+04
 -1.24177E+04 -6.56634E+04  4.16941E+04 -4.71411E+04  6.11673E+04 -2.25119E+03  3.68027E+04  3.37633E+04
 -5.34520E+03  3.93178E+04 -3.12500E+04  1.86527E+04 -3.29867E+04 -3.81988E+03 -1.88480E+04 -1.15600E+04
 -9.47559E+03 -1.48026E+04 -5.35356E+02 -1.96161E+04  8.13143E+03 -2.34588E+04  1.63016E+04 -1.27157E+04
  1.08479E+04  6.33717E+03 -1.01476E+04  1.26365E+04 -2.32902E+04 -6.02210E+03 -8.79447E+03 -3.70819E+04
  2.52984E+04 -4.64636E+04  5.15858E+04 -2.05654E+04  4.80905E+04  2.04101E+04  1.68149E+04  4.69378E+04
 -1.66342E+04  3.57423E+04 -2.75579E+04  2.38545E+03 -1.15467E+04 -2.90631E+04  2.15616E+04 -3.66049E+04
  4.41043E+04 -1.11398E+04  3.96962E+04  2.49753E+04  2.12136E+04  5.04712E+04 -8.41767E+03  5.52236E+04
 -3.51828E+04  3.79317E+04 -4.68323E+04  1.06412E+04 -4.69989E+04 -1.82803E+04 -2.57183E+04 -4.16338E+04
  7.78200E+03 -4.14350E+04  3.35100E+04 -1.68494E+04  3.21034E+04  1.09827E+04  5.10465E+03  2.05227E+04
 -1.42553E+04  9.44794E+03 -1.09276E+04 -7.56205E+03  5.82980E+03 -1.14119E+04  1.86370E+04  5.52288E+03
  1.44694E+04  2.23945E+04 -5.27735E+03  2.70197E+04 -2.31236E+04  1.35715E+04 -3.06872E+04 -2.88816E+03
 -2.45270E+04 -1.86472E+04 -1.12862E+04 -2.42414E+04  4.63156E+03 -2.45491E+04  1.92604E+04 -2.24234E+04
  3.12320E+04 -1.39771E+04  3.71116E+04  4.88371E+03  2.66698E+04  2.37182E+04  4.51706E+03  4.05901E+04
 -1.95992E+04  3.35350E+04 -2.97644E+04  1.20048E+04 -2.22590E+04 -1.04462E+04 -4.83649E+03 -1.28296E+04
  1.00790E+03 -1.29816E+03 -7.09515E+03  8.17475E+03 -1.94778E+04  5.14555E+03 -1.98912E+04 -9.23171E+03
 -1.14480E+04 -2.27609E+04  6.04371E+03 -2.72782E+04  1.80912E+04 -1.93094E+04  2.17738E+04 -1.99780E+03
  1.40733E+04  1.57857E+04 -1.16870E+03  2.25194E+04 -1.62029E+04  1.28460E+04 -2.32050E+04 -4.34972E+03
 -1.72140E+04 -2.02733E+04 -2.22944E+03 -2.70165E+04  1.23630E+04 -2.22877E+04  2.21168E+04 -1.15951E+04
  2.11933E+04 -1.92516E+02  1.56352E+04  5.03039E+03  8.49811E+03  1.51435E+03  1.14827E+04 -2.06837E+03
  2.13019E+04  3.19264E+03  2.37598E+04  1.76853E+04  1.62235E+04  3.60651E+04 -2.56297E+03  4.22967E+04
 -2.41638E+04  3.51091E+04 -4.01174E+04  1.84522E+04 -4.24440E+04 -3.41486E+03 -3.45982E+04 -2.47573E+04
 -1.36124E+04 -3.51949E+04  1.23431E+04 -3.13218E+04  2.66029E+04 -1.46311E+04  2.31546E+04  7.60552E+03
  7.87244E+03  1.81564E+04 -1.10210E+04  1.47502E+04 -1.90324E+04  2.36959E+03 -1.45775E+04 -1.22467E+04
 -7.16799E+02 -1.84444E+04  9.77276E+03 -1.43760E+04  1.27511E+04 -1.37868E+03  3.48122E+03  8.28852E+03
 -8.41901E+03  4.09382E+03 -8.80527E+03 -7.03966E+03 -1.56233E+03 -1.68866E+04  1.16228E+04 -1.84044E+04
  2.17917E+04 -1.02330E+04  2.42678E+04  3.28556E+03  2.10974E+04  1.77503E+04  1.00472E+04  2.74307E+04
 -5.26924E+03  2.91070E+04 -1.92949E+04  1.77861E+04 -2.12324E+04  3.52869E+03 -1.43063E+04 -5.50524E+03
 -6.37925E+03 -6.55702E+03 -8.51760E+02  4.55725E+02 -2.57187E+03  3.42906E+03 -6.54930E+03  5.35901E+03
 -1.31696E+04 -8.79644E+02 -1.37143E+04 -1.11771E+04 -5.41814E+03 -1.80530E+04  6.35559E+03 -1.48073E+04
  1.21308E+04 -6.27076E+03  8.93953E+03  4.14931E+03 -2.40850E+02  5.91199E+03 -6.85398E+03 -3.60274E+02
 -6.53505E+03 -9.11553E+03 -7.39394E+02 -1.45846E+04  8.74886E+03 -1.53115E+04  1.85813E+04 -8.13432E+03
  2.18593E+04  2.12147E+03  1.60055E+04  1.32880E+04  2.89457E+03  1.74381E+04 -9.20656E+03  1.45120E+04
 -1.17543E+04  4.15057E+03 -6.16300E+03 -2.95182E+03  2.10750E+03 -3.92970E+03  8.06925E+03 -1.13926E+03
  7.26646E+03  6.30438E+03  9.92015E+02  1.18357E+04 -8.80428E+03  1.13049E+04 -1.42516E+04  2.37148E+03
 -1.01812E+04 -7.83640E+03  3.85951E+02 -1.25419E+04  7.64217E+03 -6.25381E+03  8.16309E+03  2.97121E+03
  1.74374E+03  8.70968E+03 -7.68148E+03  1.08109E+04 -1.25999E+04  4.82359E+03 -1.25153E+04 -4.78242E+03
 -7.12758E+03 -1.43824E+04  3.53925E+03 -1.64886E+04  1.37508E+04 -9.88248E+03  1.50881E+04  2.50352E+03
  9.36783E+03  1.18797E+04 -1.46035E+03  1.44533E+04 -1.04213E+04  8.13308E+03 -1.16633E+04 -8.78985E+02
 -1.03107E+04 -9.61896E+03 -1.80800E+03 -1.07203E+04  5.86185E+03 -8.75745E+03  6.84192E+03 -3.48479E+03
  4.62398E+03  1.86088E+03 -9.32277E+02  1.56638E+03 -6.25717E+02 -3.30980E+03  2.53096E+03 -6.59137E+03
  1.04210E+04 -4.17431E+03  1.40066E+04  1.70738E+03  1.39826E+04  9.56923E+03  9.30126E+03  1.84600E+04
 -4.34281E+03  2.12207E+04 -1.79972E+04  1.58688E+04 -2.32024E+04  2.97123E+03 -1.85230E+04 -7.89039E+03
 -9.23824E+03 -1.51718E+04 -3.77180E+02 -1.32196E+04  4.62585E+03 -7.12767E+03  4.91337E+03 -4.95632E+03
  3.48907E+03 -3.06549E+03  3.56967E+03 -3.77834E+03  5.40359E+03 -3.15578E+03  7.24901E+03 -8.37282E+02
  9.66803E+03  2.03623E+03  5.06886E+03  8.14739E+03 -1.96473E+03  9.71902E+03 -1.01942E+04  7.41729E+03
 -1.27878E+04 -1.16836E+03 -8.13700E+03 -8.89046E+03 -1.13533E+03 -1.38787E+04  7.82332E+03 -1.36259E+04
  1.42372E+04 -7.81497E+03  1.70530E+04  2.00069E+03  1.10687E+04  1.18135E+04  1.97784E+03  1.57325E+04
 -6.37207E+03  1.25599E+04 -8.83884E+03  4.36858E+03 -5.88454E+03 -1.37292E+03 -2.50234E+03 -1.92667E+03
 -1.42581E+03  3.96297E+02 -1.96754E+03  2.96411E+03 -5.13330E+03  2.51355E+03 -9.04077E+03 -1.04021E+03
 -5.83522E+03 -8.70666E+03  3.75449E+02 -1.25954E+04  7.85462E+03 -1.19167E+04  1.22352E+04 -3.40012E+03
  1.23336E+04  6.44328E+03  5.75958E+03  1.12520E+04 -2.09783E+03  1.24475E+04 -9.19176E+03  7.89222E+03
 -1.19037E+04  5.44733E+02 -9.17518E+03 -7.63963E+03 -1.32256E+03 -1.05951E+04  5.46264E+03 -7.68415E+03
  8.19296E+03 -2.51746E+03  5.37450E+03  1.95147E+03  1.47985E+03  4.12906E+03  1.36693E+03  1.56822E+03
  2.78620E+03  1.01610E+03  3.12364E+03  1.73343E+03  3.77124E+03  4.45799E+03  3.15736E+03  6.97247E+03
 -2.59774E+03  9.99665E+03 -8.42909E+03  9.99200E+03 -1.26077E+04  2.48173E+03 -1.28953E+04 -5.11189E+03
 -6.46691E+03 -1.24675E+04  1.88234E+03 -1.39403E+04  7.42911E+03 -9.28430E+03  1.01794E+04 -2.49518E+03
  8.21931E+03  4.77939E+03  1.60319E+03  7.44183E+03 -3.53144E+03  4.42862E+03 -5.22523E+03 -1.22049E+03
 -2.67409E+03 -5.46179E+03  2.63893E+03 -5.80432E+03  5.35315E+03 -2.98349E+03  5.36747E+03  1.10881E+03
  3.07969E+03  2.13215E+03  1.29947E+03  1.80777E+03 -8.28364E+02  1.76527E+03  1.73861E+03 -3.79093E+02
  1.64096E+03 -7.33344E+02  4.76777E+03  2.11557E+03  2.72270E+03  7.16228E+03 -9.11712E+02  8.78273E+03
 -6.15207E+03  5.59294E+03 -7.71694E+03  1.45057E+03 -7.29608E+03 -2.78721E+03 -2.61547E+03 -4.75459E+03
  1.21398E+03 -4.63859E+03  3.08844E+03 -2.19378E+03  2.36953E+03  2.36489E+03 -1.51566E+03  3.96083E+03
 -5.39416E+03  2.66723E+03 -5.44261E+03 -2.79630E+03 -2.67565E+03 -7.09514E+03  1.31791E+03 -6.79433E+03
  3.93544E+03 -4.05295E+03  4.98307E+03 -4.47636E+02  4.35231E+03  1.68007E+03  1.75314E+02  3.40999E+03
 -2.24266E+03  1.27136E+03 -2.96471E+03 -2.18173E+03  1.35622E+03 -5.20479E+03  6.19199E+03 -4.10231E+03
  7.62603E+03  5.77575E+02  7.78629E+03  5.12423E+03  2.44386E+03  7.88232E+03 -2.57319E+03  7.30823E+03
 -6.28364E+03  3.11519E+03 -6.78039E+03 -9.17250E+02 -3.40717E+03 -5.51671E+03  1.17201E+03 -4.71565E+03
  5.31887E+03 -2.49228E+03  3.80246E+03  2.31992E+03  1.49524E+03  4.54596E+03 -5.39630E+02  3.79213E+03
 -1.83000E+03  2.63721E+03 -1.93943E+03  7.40128E+02 -1.24660E+03  7.19976E+02 -1.51782E+03  1.45306E+03
 -1.92949E+03  3.08327E+03 -5.51312E+03  2.67267E+03 -7.68161E+03 -1.60258E+02 -8.97776E+03 -4.88103E+03
 -4.78551E+03 -1.04523E+04  1.86777E+03 -1.18235E+04  7.01228E+03 -9.25499E+03  1.09084E+04 -3.58525E+03
  1.05493E+04  2.52675E+03  6.46338E+03  6.83790E+03  4.01703E+02  7.77749E+03 -3.19258E+03  6.29271E+03
 -4.38078E+03  2.14386E+03 -2.89843E+03 -6.19949E+02 -8.15638E+02 -9.29887E+02 -8.71175E+02  9.73683E+01
 -1.85462E+03  1.53625E+02 -1.82224E+03 -2.88390E+02 -3.73370E+02 -1.97410E+03  2.09136E+02 -2.93087E+03
  3.42940E+03 -2.23796E+03  4.88690E+03 -1.20123E+02  5.54986E+03  4.23971E+03  1.47894E+03  8.02060E+03
 -3.57596E+03  9.06131E+03 -8.31577E+03  5.01665E+03 -8.97727E+03 -8.95323E+02 -7.20055E+03 -5.72403E+03
 -3.26509E+03 -7.68755E+03  2.03305E+03 -7.26511E+03  4.99518E+03 -4.00869E+03  5.18641E+03  2.59139E+02
  3.09421E+03  2.66633E+03 -3.73608E+02  2.44714E+03 -1.28449E+03 -2.51852E+01  1.32042E+02 -1.74829E+03
  2.22549E+03 -1.01005E+03  2.69556E+03  1.41118E+03  1.61972E+03  2.93432E+03  8.16390E+02  3.97362E+03
 -2.99218E+03  3.14322E+03 -4.81259E+03  5.40085E+02 -4.71610E+03 -3.71297E+03 -4.80415E+02 -6.29630E+03
  3.58794E+03 -5.37504E+03  5.38217E+03 -1.74151E+03  5.79666E+03  1.28409E+03  2.93871E+03  4.71796E+03
  7.02135E+02  5.10408E+03 -1.38968E+03  4.08880E+03 -2.99511E+03  2.29536E+03 -2.47952E+03  8.27649E+00
 -1.15994E+03 -4.10441E+02 -1.62277E+03  8.85243E+02 -2.63396E+03  7.44785E+02 -4.06282E+03 -5.79004E+02
 -3.64857E+03 -2.37131E+03 -1.28917E+03 -4.86248E+03  2.44782E+03 -5.42327E+03  4.52118E+03 -2.50345E+03
  4.49628E+03  1.03305E+03  2.35924E+03  3.07295E+03 -3.07218E+02  4.83439E+03 -3.53783E+03  2.78050E+03
