 $NMID ID='MM_0lb_SNR800_11hz_g60_4.RAW', FMTDAT='(8E13.5)'
 TRAMP=1., VOLUME=1. $END
  3.09901E+05  1.08848E+02  3.37505E+05  2.50386E+05  8.47412E+04  3.38524E+05 -1.32400E+05  2.52005E+05
 -1.90977E+05  8.35496E+04 -1.12691E+05 -3.26084E+04  2.75082E+02 -5.09274E+04  5.35641E+04 -7.21854E+02
  3.55653E+04  5.30655E+04 -1.67372E+04  7.61259E+04 -6.14284E+04  6.42705E+04 -8.50305E+04  3.27962E+04
 -8.21139E+04 -1.17785E+04 -5.81438E+04 -5.23800E+04 -1.52002E+04 -7.05358E+04  2.80932E+04 -4.64365E+04
  4.11604E+04  4.12728E+03  1.68906E+04  4.85315E+04 -3.49447E+04  4.78094E+04 -6.81804E+04 -1.38100E+01
 -5.49307E+04 -5.76618E+04 -7.05800E+03 -7.88087E+04  3.45649E+04 -5.64885E+04  4.95167E+04 -1.86582E+04
  4.52277E+04  1.15727E+04  3.25448E+04  2.65257E+04  1.61239E+04  3.05585E+04 -5.62061E+03  2.75527E+04
 -2.20769E+04  1.19334E+04 -1.81800E+04 -5.79379E+03  6.90954E+03 -7.31174E+03  2.32052E+04  1.38043E+04
  7.40143E+03  3.76052E+04 -3.36366E+04  3.68435E+04 -6.54297E+04  2.21337E+03 -5.85771E+04 -4.41315E+04
 -1.24899E+04 -6.56763E+04  4.15205E+04 -4.68904E+04  6.07395E+04 -2.34489E+03  3.65394E+04  3.39364E+04
 -5.35828E+03  3.86279E+04 -3.18288E+04  1.89526E+04 -3.33299E+04 -3.61042E+03 -1.89005E+04 -1.17742E+04
 -9.34022E+03 -1.50109E+04 -1.09648E+02 -1.92700E+04  8.30997E+03 -2.32620E+04  1.60513E+04 -1.26401E+04
  1.07975E+04  5.95152E+03 -1.02930E+04  1.29480E+04 -2.35674E+04 -6.39133E+03 -8.45632E+03 -3.65236E+04
  2.47914E+04 -4.65161E+04  5.14422E+04 -2.07788E+04  4.78114E+04  2.07315E+04  1.71858E+04  4.67041E+04
 -1.65596E+04  3.57307E+04 -2.67667E+04  2.28429E+03 -1.16970E+04 -2.92483E+04  2.13348E+04 -3.69138E+04
  4.42096E+04 -1.09455E+04  3.98307E+04  2.47636E+04  2.08500E+04  5.01833E+04 -7.84996E+03  5.55160E+04
 -3.44854E+04  3.79342E+04 -4.66480E+04  1.08176E+04 -4.69987E+04 -1.84801E+04 -2.59865E+04 -4.17915E+04
  7.73486E+03 -4.16592E+04  3.37523E+04 -1.68536E+04  3.17997E+04  1.11143E+04  4.71796E+03  2.02733E+04
 -1.38480E+04  9.72919E+03 -1.11334E+04 -7.51671E+03  5.75141E+03 -1.12765E+04  1.86312E+04  5.61562E+03
  1.47588E+04  2.28023E+04 -5.56676E+03  2.69565E+04 -2.32792E+04  1.36671E+04 -3.13161E+04 -3.43078E+03
 -2.48486E+04 -1.83797E+04 -1.13937E+04 -2.38263E+04  4.17251E+03 -2.46414E+04  1.91532E+04 -2.22425E+04
  3.10722E+04 -1.40162E+04  3.72357E+04  4.73681E+03  2.65161E+04  2.38323E+04  4.26025E+03  4.05497E+04
 -1.93289E+04  3.34387E+04 -2.97646E+04  1.15717E+04 -2.23241E+04 -1.00582E+04 -4.78392E+03 -1.27671E+04
  9.42512E+02 -1.62024E+03 -6.72232E+03  8.15126E+03 -1.95919E+04  5.05160E+03 -1.94238E+04 -9.28586E+03
 -1.14250E+04 -2.26313E+04  5.81273E+03 -2.70803E+04  1.82103E+04 -1.94043E+04  2.17354E+04 -1.88728E+03
  1.42476E+04  1.58487E+04 -1.65940E+03  2.22335E+04 -1.57948E+04  1.29405E+04 -2.31827E+04 -4.92016E+03
 -1.65094E+04 -2.00013E+04 -2.33956E+03 -2.72955E+04  1.23699E+04 -2.23422E+04  2.22006E+04 -1.17028E+04
  2.08775E+04 -1.02221E+02  1.56372E+04  5.13927E+03  8.93247E+03  1.19226E+03  1.13693E+04 -1.95899E+03
  2.13385E+04  3.12340E+03  2.46024E+04  1.77162E+04  1.65284E+04  3.63636E+04 -2.49922E+03  4.23067E+04
 -2.44929E+04  3.54069E+04 -3.99219E+04  1.77873E+04 -4.22616E+04 -3.19886E+03 -3.44721E+04 -2.47478E+04
 -1.38899E+04 -3.54383E+04  1.24285E+04 -3.13409E+04  2.67598E+04 -1.49082E+04  2.32852E+04  7.54386E+03
  8.00422E+03  1.77942E+04 -1.07681E+04  1.52559E+04 -1.97688E+04  2.39852E+03 -1.45205E+04 -1.23126E+04
 -4.90043E+02 -1.85094E+04  1.00332E+04 -1.38365E+04  1.27508E+04 -1.52324E+03  2.90066E+03  8.34546E+03
 -8.22166E+03  4.08233E+03 -8.63188E+03 -6.21433E+03 -1.46753E+03 -1.71975E+04  1.15725E+04 -1.87280E+04
  2.17405E+04 -1.07015E+04  2.46084E+04  3.48150E+03  2.11893E+04  1.74101E+04  9.74678E+03  2.75229E+04
 -5.28489E+03  2.91971E+04 -1.90333E+04  1.83091E+04 -2.12437E+04  3.96754E+03 -1.45571E+04 -5.35181E+03
 -5.96047E+03 -6.64046E+03 -6.96256E+02  5.36978E+02 -3.09768E+03  3.49175E+03 -6.80104E+03  5.06178E+03
 -1.34825E+04 -9.91418E+02 -1.40273E+04 -1.11014E+04 -5.80671E+03 -1.83808E+04  5.99368E+03 -1.47594E+04
  1.20778E+04 -6.15851E+03  8.49591E+03  3.81672E+03 -2.82996E+02  5.89788E+03 -7.30421E+03 -2.05488E+02
 -6.97171E+03 -9.65206E+03 -1.03173E+03 -1.42565E+04  8.19560E+03 -1.53571E+04  1.86054E+04 -8.33674E+03
  2.20114E+04  2.43806E+03  1.65072E+04  1.30910E+04  3.08422E+03  1.74555E+04 -9.05573E+03  1.44689E+04
 -1.19384E+04  4.49186E+03 -6.21829E+03 -2.90791E+03  1.75693E+03 -4.41747E+03  7.56176E+03 -1.27425E+03
  6.67514E+03  6.35733E+03  1.51978E+03  1.19244E+04 -8.13626E+03  1.10408E+04 -1.45251E+04  2.65308E+03
 -1.01191E+04 -7.28500E+03  6.53185E+01 -1.24932E+04  7.73030E+03 -6.13321E+03  8.18396E+03  3.21959E+03
  2.12949E+03  8.71990E+03 -7.52597E+03  1.03388E+04 -1.22580E+04  4.33559E+03 -1.26998E+04 -4.42277E+03
 -7.19176E+03 -1.45515E+04  3.69211E+03 -1.66689E+04  1.35628E+04 -9.68275E+03  1.55114E+04  2.68440E+03
  9.18699E+03  1.21102E+04 -1.25181E+03  1.46418E+04 -1.03782E+04  7.98234E+03 -1.16097E+04 -1.02809E+03
 -9.49989E+03 -9.70525E+03 -1.84496E+03 -1.09579E+04  5.80127E+03 -8.56682E+03  6.83351E+03 -3.67938E+03
  4.56721E+03  2.08500E+03 -8.91071E+02  1.63397E+03 -5.94050E+02 -2.59372E+03  2.33142E+03 -6.28409E+03
  1.01794E+04 -4.08684E+03  1.40160E+04  1.79271E+03  1.40019E+04  9.59990E+03  9.58561E+03  1.84194E+04
 -4.67851E+03  2.10113E+04 -1.77860E+04  1.60800E+04 -2.29811E+04  2.67952E+03 -1.86650E+04 -7.91187E+03
 -9.08425E+03 -1.50185E+04 -3.40248E+02 -1.28895E+04  4.89084E+03 -6.87584E+03  4.48177E+03 -4.59378E+03
  3.41463E+03 -3.02462E+03  3.54046E+03 -3.34344E+03  5.68109E+03 -3.46520E+03  7.42732E+03 -1.37380E+03
  9.33586E+03  2.22543E+03  5.22559E+03  8.30445E+03 -2.15591E+03  9.74751E+03 -1.02727E+04  7.25333E+03
 -1.26878E+04 -1.17327E+03 -8.05288E+03 -9.08846E+03 -1.40390E+03 -1.34782E+04  7.82646E+03 -1.37029E+04
  1.42037E+04 -7.73675E+03  1.75015E+04  2.40994E+03  1.15449E+04  1.17429E+04  1.72077E+03  1.53305E+04
 -6.41850E+03  1.31536E+04 -9.42926E+03  4.54945E+03 -6.01117E+03 -2.30183E+03 -2.83493E+03 -1.90822E+03
 -1.31560E+03 -4.08006E+02 -2.34163E+03  2.80270E+03 -5.50394E+03  2.35371E+03 -8.93945E+03 -1.20896E+03
 -6.31457E+03 -8.78876E+03 -1.21180E+02 -1.29332E+04  7.45124E+03 -1.18780E+04  1.28865E+04 -3.56209E+03
  1.28396E+04  6.06543E+03  5.39784E+03  1.11979E+04 -2.61595E+03  1.27421E+04 -8.87057E+03  7.93053E+03
 -1.18796E+04  1.70874E+02 -9.58988E+03 -7.96896E+03 -1.34876E+03 -1.06011E+04  5.56198E+03 -8.25353E+03
  7.68437E+03 -2.38311E+03  5.76334E+03  2.03954E+03  1.88029E+03  3.61925E+03  1.21070E+03  1.94976E+03
  2.69330E+03  1.13054E+03  3.33499E+03  1.75709E+03  3.63077E+03  4.29058E+03  3.16949E+03  6.36154E+03
 -2.61757E+03  9.76883E+03 -8.68770E+03  1.01692E+04 -1.27803E+04  2.52575E+03 -1.29768E+04 -5.50070E+03
 -6.10899E+03 -1.24058E+04  1.82018E+03 -1.40445E+04  7.43348E+03 -8.65220E+03  1.02448E+04 -2.02580E+03
  8.12331E+03  4.66886E+03  1.93602E+03  7.03386E+03 -3.33446E+03  4.66118E+03 -5.28596E+03 -7.12791E+02
 -2.53887E+03 -5.45581E+03  2.83527E+03 -5.53287E+03  5.26844E+03 -2.75378E+03  4.74850E+03  1.31714E+03
  2.96376E+03  2.33213E+03  1.20442E+03  1.86357E+03 -6.83112E+02  1.66638E+03  1.88110E+03 -6.30517E+02
  1.97695E+03 -5.42488E+02  5.17783E+03  2.39250E+03  2.96397E+03  6.53062E+03 -1.15167E+03  8.71298E+03
 -5.82271E+03  5.70172E+03 -7.70772E+03  1.20847E+03 -6.86152E+03 -2.78434E+03 -2.22749E+03 -4.88281E+03
  5.73837E+02 -4.66537E+03  3.25187E+03 -2.27574E+03  2.53486E+03  2.37871E+03 -1.22810E+03  4.09746E+03
 -5.11654E+03  2.50034E+03 -5.68188E+03 -2.95411E+03 -3.02914E+03 -7.21718E+03  8.03094E+02 -6.84670E+03
  3.71785E+03 -3.59404E+03  4.99797E+03 -3.30225E+02  4.17353E+03  1.50699E+03  5.10357E+02  3.53400E+03
 -2.43542E+03  1.23500E+03 -3.28987E+03 -2.21336E+03  1.04718E+03 -5.08958E+03  5.55155E+03 -4.26578E+03
  7.39799E+03  5.68640E+02  8.14377E+03  4.76054E+03  2.41897E+03  7.89205E+03 -3.32505E+03  7.26317E+03
 -6.39778E+03  2.73350E+03 -6.59963E+03 -1.22387E+03 -3.47428E+03 -5.36859E+03  1.35274E+03 -4.66344E+03
  4.95045E+03 -2.24107E+03  4.02192E+03  2.09125E+03  1.41599E+03  4.29908E+03 -6.62353E+02  4.01595E+03
 -1.83960E+03  2.73930E+03 -2.24259E+03  1.04775E+03 -1.18255E+03  8.42405E+02 -1.21149E+03  1.57381E+03
 -2.14008E+03  2.92329E+03 -5.54008E+03  2.66346E+03 -7.57415E+03  3.62978E+02 -8.81246E+03 -5.04084E+03
 -4.86598E+03 -1.02854E+04  1.92179E+03 -1.19635E+04  7.29266E+03 -8.96173E+03  1.13050E+04 -3.63047E+03
  1.05154E+04  2.14198E+03  6.18573E+03  6.98187E+03  6.59889E+02  8.03064E+03 -2.94585E+03  6.24918E+03
 -4.53292E+03  2.05882E+03 -2.72187E+03 -8.97416E+02 -9.28827E+02 -3.75116E+02 -8.06028E+02  1.89251E+01
 -1.62227E+03  1.25483E+02 -1.95672E+03 -1.02589E+02 -5.48717E+02 -2.23201E+03  8.72588E+01 -2.95475E+03
  3.83486E+03 -2.70769E+03  4.59661E+03 -1.48327E+02  5.30725E+03  4.22865E+03  1.48162E+03  7.94058E+03
 -3.91011E+03  9.08319E+03 -8.35340E+03  5.37865E+03 -9.55663E+03 -8.60963E+02 -7.42241E+03 -5.50569E+03
 -3.16902E+03 -7.94746E+03  1.98043E+03 -7.15226E+03  5.26114E+03 -3.92976E+03  5.18381E+03  9.31868E+01
  2.54775E+03  2.36514E+03 -3.87050E+02  2.31477E+03 -1.73294E+03 -2.76768E+02 -4.69798E+01 -1.57828E+03
  2.32378E+03 -1.07995E+03  2.66362E+03  1.19377E+03  2.10451E+03  3.21629E+03  1.90712E+02  3.63952E+03
 -3.09877E+03  3.24484E+03 -5.09931E+03  4.50436E+02 -4.40486E+03 -3.73543E+03 -6.37183E+02 -6.03256E+03
  3.64294E+03 -5.26848E+03  5.38527E+03 -1.55055E+03  5.54709E+03  9.92263E+02  3.14801E+03  4.80744E+03
  9.73334E+02  5.00277E+03 -1.91906E+03  3.58497E+03 -3.14324E+03  2.38772E+03 -2.65358E+03  2.77507E+02
 -1.58185E+03 -1.55519E+02 -1.37460E+03  1.13580E+03 -2.69640E+03  9.30848E+02 -3.85006E+03 -8.89982E+02
 -3.96246E+03 -2.30092E+03 -1.08473E+03 -5.22234E+03  2.56733E+03 -5.46816E+03  4.38606E+03 -2.50954E+03
  5.04142E+03  7.14123E+02  2.38590E+03  3.37297E+03  3.87616E+00  4.91982E+03 -3.60772E+03  3.37794E+03
