 $NMID ID='MM_0lb_SNR800_9hz_g50_31.RAW', FMTDAT='(8E13.5)'
 TRAMP=1., VOLUME=1. $END
  3.09495E+05  3.86479E+02  3.38114E+05  2.50887E+05  8.49298E+04  3.39156E+05 -1.32488E+05  2.52024E+05
 -1.91041E+05  8.37335E+04 -1.12476E+05 -3.21514E+04  2.44101E+02 -5.06533E+04  5.37570E+04 -4.58482E+02
  3.57346E+04  5.29891E+04 -1.65692E+04  7.56535E+04 -6.12289E+04  6.44649E+04 -8.53554E+04  3.24160E+04
 -8.23764E+04 -1.20897E+04 -5.80291E+04 -5.23875E+04 -1.51928E+04 -7.09898E+04  2.80791E+04 -4.65524E+04
  4.14076E+04  4.17381E+03  1.65160E+04  4.85721E+04 -3.46703E+04  4.83525E+04 -6.79903E+04  3.73193E+02
 -5.48675E+04 -5.77541E+04 -6.88066E+03 -7.92165E+04  3.46933E+04 -5.69769E+04  4.97658E+04 -1.81448E+04
  4.55476E+04  1.16089E+04  3.26294E+04  2.66635E+04  1.56523E+04  3.07972E+04 -5.49851E+03  2.75886E+04
 -2.22166E+04  1.19319E+04 -1.81755E+04 -5.56795E+03  7.20480E+03 -7.53568E+03  2.37301E+04  1.36368E+04
  6.75608E+03  3.76624E+04 -3.39120E+04  3.68107E+04 -6.62372E+04  2.29946E+03 -5.89601E+04 -4.43360E+04
 -1.26230E+04 -6.57253E+04  4.17602E+04 -4.72603E+04  6.16603E+04 -2.19171E+03  3.69008E+04  3.49188E+04
 -5.31163E+03  3.90168E+04 -3.14012E+04  1.88623E+04 -3.33570E+04 -3.73826E+03 -1.92785E+04 -1.22254E+04
 -9.41166E+03 -1.51096E+04 -5.28446E+01 -1.95132E+04  8.48776E+03 -2.33632E+04  1.61765E+04 -1.26594E+04
  1.02992E+04  6.69956E+03 -1.04475E+04  1.27506E+04 -2.35444E+04 -6.72756E+03 -8.37150E+03 -3.75092E+04
  2.52390E+04 -4.66967E+04  5.21915E+04 -2.07136E+04  4.85589E+04  2.11744E+04  1.75115E+04  4.68850E+04
 -1.69170E+04  3.60974E+04 -2.78103E+04  2.56468E+03 -1.15936E+04 -2.95685E+04  2.17220E+04 -3.66531E+04
  4.44696E+04 -1.09269E+04  4.02677E+04  2.51055E+04  2.15835E+04  5.05408E+04 -8.31058E+03  5.61328E+04
 -3.54130E+04  3.83601E+04 -4.76005E+04  1.11554E+04 -4.76672E+04 -1.84972E+04 -2.61529E+04 -4.17301E+04
  7.70979E+03 -4.20634E+04  3.39886E+04 -1.71314E+04  3.18287E+04  1.12739E+04  5.04717E+03  2.06394E+04
 -1.36412E+04  9.97447E+03 -1.12564E+04 -7.76261E+03  5.94404E+03 -1.13348E+04  1.88366E+04  5.48135E+03
  1.51641E+04  2.30736E+04 -5.31720E+03  2.69648E+04 -2.32387E+04  1.42753E+04 -3.19042E+04 -2.89917E+03
 -2.55626E+04 -1.82909E+04 -1.16808E+04 -2.49741E+04  4.13147E+03 -2.60188E+04  1.99030E+04 -2.29891E+04
  3.22726E+04 -1.41264E+04  3.75378E+04  5.02414E+03  2.74013E+04  2.42270E+04  4.37553E+03  4.11387E+04
 -2.00539E+04  3.38897E+04 -3.07315E+04  1.21489E+04 -2.23775E+04 -1.03636E+04 -4.98066E+03 -1.28462E+04
  6.86219E+02 -1.28112E+03 -7.55807E+03  8.10628E+03 -2.02632E+04  5.25444E+03 -2.00033E+04 -9.80165E+03
 -1.17659E+04 -2.34837E+04  6.49654E+03 -2.77694E+04  1.86387E+04 -1.94192E+04  2.28214E+04 -1.94991E+03
  1.43901E+04  1.63687E+04 -1.14429E+03  2.36628E+04 -1.67716E+04  1.37190E+04 -2.39645E+04 -5.09016E+03
 -1.73836E+04 -2.09983E+04 -2.31743E+03 -2.77881E+04  1.27710E+04 -2.37152E+04  2.31088E+04 -1.20734E+04
  2.27372E+04 -6.22289E+02  1.60924E+04  5.38780E+03  8.77073E+03  1.33642E+03  1.19046E+04 -2.18922E+03
  2.24326E+04  3.08969E+03  2.54696E+04  1.80283E+04  1.71594E+04  3.76124E+04 -2.16503E+03  4.44917E+04
 -2.54797E+04  3.71703E+04 -4.17259E+04  1.93587E+04 -4.48839E+04 -3.23804E+03 -3.62561E+04 -2.64150E+04
 -1.41010E+04 -3.75397E+04  1.31272E+04 -3.26777E+04  2.79011E+04 -1.55152E+04  2.41266E+04  7.79147E+03
  7.72272E+03  1.88501E+04 -1.16441E+04  1.57459E+04 -2.02636E+04  2.50765E+03 -1.57433E+04 -1.26680E+04
 -4.42686E+02 -1.95376E+04  9.83977E+03 -1.45251E+04  1.30528E+04 -1.67134E+03  3.77980E+03  8.72841E+03
 -8.77681E+03  4.46964E+03 -9.31337E+03 -6.89400E+03 -1.95340E+03 -1.82105E+04  1.17417E+04 -2.00622E+04
  2.30218E+04 -1.10204E+04  2.61297E+04  3.36241E+03  2.26345E+04  1.87456E+04  1.04503E+04  2.91593E+04
 -5.39428E+03  3.11983E+04 -2.07449E+04  1.90999E+04 -2.25086E+04  4.05449E+03 -1.50904E+04 -5.74149E+03
 -6.60724E+03 -7.31386E+03 -1.13490E+03  6.36778E+02 -2.43169E+03  3.64355E+03 -7.43739E+03  5.15364E+03
 -1.41699E+04 -1.27049E+03 -1.47714E+04 -1.14739E+04 -6.08897E+03 -1.97758E+04  6.33538E+03 -1.53923E+04
  1.29400E+04 -6.68689E+03  9.27170E+03  4.05157E+03 -2.83565E+02  6.39351E+03 -7.72615E+03 -1.61736E+02
 -7.73099E+03 -1.00936E+04 -7.23245E+02 -1.57528E+04  9.25323E+03 -1.63281E+04  1.99272E+04 -8.95027E+03
  2.40526E+04  2.21787E+03  1.74387E+04  1.43929E+04  3.61566E+03  1.90650E+04 -9.80881E+03  1.53201E+04
 -1.25888E+04  5.03556E+03 -6.97215E+03 -3.45409E+03  2.22307E+03 -4.46571E+03  8.27436E+03 -1.00974E+03
  7.37353E+03  6.97542E+03  1.52459E+03  1.28967E+04 -8.95063E+03  1.22451E+04 -1.55317E+04  2.82212E+03
 -1.02983E+04 -8.26401E+03 -4.32347E+01 -1.32074E+04  8.80572E+03 -6.84264E+03  9.13536E+03  3.80358E+03
  2.33764E+03  1.02335E+04 -8.46075E+03  1.12578E+04 -1.37152E+04  4.84155E+03 -1.40231E+04 -4.89604E+03
 -8.10578E+03 -1.57342E+04  3.90812E+03 -1.80481E+04  1.54118E+04 -1.09856E+04  1.70002E+04  2.82689E+03
  9.81980E+03  1.30452E+04 -1.82357E+03  1.59313E+04 -1.16773E+04  8.69120E+03 -1.32462E+04 -1.22841E+03
 -1.05111E+04 -1.07219E+04 -1.77144E+03 -1.20855E+04  6.06097E+03 -9.51837E+03  7.79428E+03 -3.36333E+03
  4.56383E+03  2.26914E+03 -1.19313E+03  1.97611E+03 -8.10334E+02 -3.40356E+03  2.78714E+03 -7.20518E+03
  1.16141E+04 -4.85243E+03  1.63737E+04  1.50702E+03  1.53825E+04  1.08460E+04  1.02466E+04  2.07898E+04
 -4.88743E+03  2.37517E+04 -2.01409E+04  1.75929E+04 -2.58431E+04  3.56752E+03 -2.09104E+04 -9.25683E+03
 -1.04725E+04 -1.67191E+04 -3.59252E+02 -1.48457E+04  5.28834E+03 -8.20112E+03  5.59761E+03 -4.85082E+03
  4.11225E+03 -3.04307E+03  4.28975E+03 -4.12687E+03  5.74508E+03 -3.80229E+03  7.90837E+03 -1.49401E+03
  1.07713E+04  2.40586E+03  5.64801E+03  9.34652E+03 -2.34278E+03  1.15579E+04 -1.12948E+04  8.31092E+03
 -1.44267E+04 -1.13267E+03 -9.23468E+03 -1.03966E+04 -1.19066E+03 -1.63193E+04  8.97075E+03 -1.60295E+04
  1.66404E+04 -8.86219E+03  1.93655E+04  3.04378E+03  1.36445E+04  1.39100E+04  2.34811E+03  1.76402E+04
 -7.36585E+03  1.42235E+04 -1.00887E+04  5.18431E+03 -7.05362E+03 -1.88856E+03 -3.43997E+03 -1.93711E+03
 -1.40004E+03 -1.58927E+02 -2.05133E+03  3.31520E+03 -6.12249E+03  2.27191E+03 -1.03721E+04 -1.25817E+03
 -7.13147E+03 -1.04830E+04  2.11502E+02 -1.49272E+04  9.06581E+03 -1.34690E+04  1.48209E+04 -4.23336E+03
  1.44365E+04  7.35590E+03  7.20907E+03  1.30362E+04 -3.25543E+03  1.47667E+04 -1.07527E+04  9.44261E+03
 -1.41379E+04 -8.73816E+01 -1.07803E+04 -8.83909E+03 -1.42581E+03 -1.27788E+04  6.02450E+03 -8.94449E+03
  9.03385E+03 -2.84194E+03  6.61081E+03  2.71829E+03  2.41907E+03  4.26197E+03  1.52680E+03  2.36928E+03
  2.87805E+03  7.47644E+02  3.45348E+03  1.86245E+03  4.83913E+03  4.87112E+03  4.09619E+03  8.10051E+03
 -2.89035E+03  1.19758E+04 -1.03620E+04  1.18105E+04 -1.55253E+04  2.83180E+03 -1.57113E+04 -6.58064E+03
 -7.79405E+03 -1.55311E+04  2.12620E+03 -1.65629E+04  9.14905E+03 -1.07515E+04  1.24259E+04 -2.73359E+03
  9.46503E+03  5.63196E+03  2.12257E+03  8.50201E+03 -3.71697E+03  5.70072E+03 -6.09867E+03 -7.96676E+02
 -2.69907E+03 -6.24751E+03  3.78056E+03 -6.86978E+03  6.04957E+03 -3.03050E+03  6.24436E+03  8.91654E+02
  3.85716E+03  2.94804E+03  1.38255E+03  2.16851E+03 -9.47485E+02  2.01301E+03  1.70000E+03 -9.90489E+02
  2.17248E+03 -8.20511E+02  6.08385E+03  2.76964E+03  3.44709E+03  8.12355E+03 -1.64153E+03  1.07722E+04
 -7.30541E+03  7.23221E+03 -9.49181E+03  1.84852E+03 -8.61457E+03 -3.32458E+03 -3.72665E+03 -6.06017E+03
  1.12200E+03 -6.06270E+03  4.02240E+03 -2.62686E+03  3.24107E+03  3.12754E+03 -1.70289E+03  4.93642E+03
 -6.46196E+03  3.02608E+03 -7.24643E+03 -3.52666E+03 -4.47293E+03 -8.41193E+03  1.49375E+03 -8.73455E+03
  4.91194E+03 -5.09960E+03  6.30313E+03 -6.31489E+02  5.33033E+03  2.16574E+03  7.68757E+02  4.55086E+03
 -3.05423E+03  1.92051E+03 -3.97549E+03 -3.05698E+03  1.48526E+03 -6.60537E+03  7.85894E+03 -5.11652E+03
  9.82341E+03  7.38624E+02  9.35914E+03  6.23774E+03  2.87900E+03  1.05410E+04 -3.53482E+03  9.65955E+03
 -8.09778E+03  4.04156E+03 -8.90704E+03 -1.57384E+03 -4.63016E+03 -6.24050E+03  1.62046E+03 -6.53034E+03
  6.12634E+03 -2.63945E+03  5.73791E+03  3.11416E+03  1.94597E+03  5.46071E+03 -8.50432E+02  4.81085E+03
 -2.71373E+03  3.25290E+03 -2.30977E+03  1.06490E+03 -8.42488E+02  8.97835E+02 -1.89969E+03  2.15433E+03
 -2.73807E+03  3.80003E+03 -7.19136E+03  3.16479E+03 -9.67921E+03 -4.47388E+01 -1.11586E+04 -6.59589E+03
 -6.12036E+03 -1.34584E+04  2.33851E+03 -1.59346E+04  9.98250E+03 -1.18619E+04  1.48262E+04 -4.77033E+03
  1.36245E+04  3.02734E+03  8.02438E+03  9.25138E+03  9.82243E+02  1.05019E+04 -4.23375E+03  7.68536E+03
 -5.66457E+03  3.06442E+03 -3.96839E+03 -1.14751E+03 -1.50517E+03 -1.15780E+03 -5.51286E+02 -2.94491E+02
 -1.64480E+03  1.68755E+01 -2.47351E+03 -4.09035E+02 -7.86851E+02 -2.40883E+03  2.25615E+02 -3.56177E+03
  4.55228E+03 -3.18753E+03  6.19624E+03  2.25275E+02  7.61947E+03  6.04099E+03  1.90090E+03  1.00985E+04
 -4.99709E+03  1.19383E+04 -1.14804E+04  7.06027E+03 -1.27767E+04 -1.03062E+03 -9.49207E+03 -7.35798E+03
 -3.55095E+03 -1.06783E+04  2.84908E+03 -1.00214E+04  7.01630E+03 -5.44589E+03  7.50715E+03  1.98033E+02
  4.06714E+03  3.19852E+03 -6.48501E+02  3.37943E+03 -2.11195E+03  7.23196E+00 -2.62643E+02 -2.19633E+03
  3.12570E+03 -1.58841E+03  4.19273E+03  1.77095E+03  2.79591E+03  4.09739E+03  3.13820E+02  5.34090E+03
 -5.01911E+03  4.84144E+03 -7.26396E+03  3.27088E+02 -6.50075E+03 -5.18334E+03 -1.01996E+03 -8.78647E+03
  4.74171E+03 -7.28377E+03  8.54685E+03 -2.41697E+03  8.09152E+03  1.88062E+03  5.03379E+03  6.14724E+03
  8.54574E+02  6.82564E+03 -2.85568E+03  5.60865E+03 -4.44927E+03  3.05940E+03 -3.97302E+03  8.41527E+02
 -1.80829E+03 -6.28866E+02 -2.02440E+03  9.01674E+02 -3.27285E+03  1.78855E+03 -5.26865E+03 -7.29140E+02
 -5.25482E+03 -3.94145E+03 -1.74785E+03 -7.01326E+03  3.44136E+03 -7.18814E+03  6.41651E+03 -3.48833E+03
  6.76667E+03  1.01058E+03  4.03223E+03  5.11347E+03 -5.45483E+02  7.06094E+03 -5.16732E+03  4.70169E+03
