 $NMID ID='MM_0lb_SNR800_10hz_g60_14.RAW', FMTDAT='(8E13.5)'
 TRAMP=1., VOLUME=1. $END
  3.10198E+05  1.40613E+02  3.37966E+05  2.51230E+05  8.53837E+04  3.38861E+05 -1.32815E+05  2.51727E+05
 -1.90809E+05  8.36037E+04 -1.12632E+05 -3.28871E+04  3.98117E+01 -5.05837E+04  5.37740E+04 -5.01515E+02
  3.57412E+04  5.26620E+04 -1.66651E+04  7.63035E+04 -6.15506E+04  6.47483E+04 -8.55425E+04  3.28546E+04
 -8.27666E+04 -1.19538E+04 -5.83875E+04 -5.22056E+04 -1.51984E+04 -7.12206E+04  2.81997E+04 -4.66412E+04
  4.12701E+04  3.56719E+03  1.69153E+04  4.87453E+04 -3.46764E+04  4.82681E+04 -6.84677E+04  4.75171E+02
 -5.49675E+04 -5.77598E+04 -7.46005E+03 -7.90879E+04  3.51661E+04 -5.73101E+04  4.99383E+04 -1.84964E+04
  4.58345E+04  1.16717E+04  3.32927E+04  2.68526E+04  1.58886E+04  3.05208E+04 -5.56148E+03  2.73678E+04
 -2.22454E+04  1.16382E+04 -1.81827E+04 -5.65587E+03  7.47839E+03 -7.70542E+03  2.40400E+04  1.37977E+04
  6.79850E+03  3.74021E+04 -3.41045E+04  3.70360E+04 -6.59943E+04  1.93831E+03 -5.91836E+04 -4.42470E+04
 -1.28000E+04 -6.57513E+04  4.18348E+04 -4.76263E+04  6.12627E+04 -2.36835E+03  3.70449E+04  3.42917E+04
 -5.78787E+03  3.96470E+04 -3.20920E+04  1.90798E+04 -3.34698E+04 -3.53538E+03 -1.94976E+04 -1.23095E+04
 -9.37694E+03 -1.55590E+04 -2.78624E+02 -2.01772E+04  8.64314E+03 -2.32818E+04  1.63904E+04 -1.29314E+04
  1.06491E+04  6.50771E+03 -1.04661E+04  1.28270E+04 -2.35596E+04 -6.41485E+03 -8.89014E+03 -3.76650E+04
  2.51527E+04 -4.68334E+04  5.21729E+04 -2.10286E+04  4.87981E+04  2.05090E+04  1.69909E+04  4.70493E+04
 -1.68673E+04  3.64167E+04 -2.78559E+04  2.90214E+03 -1.16313E+04 -2.95244E+04  2.14323E+04 -3.70742E+04
  4.52167E+04 -1.09273E+04  4.06796E+04  2.49047E+04  2.12478E+04  5.14137E+04 -7.85898E+03  5.62778E+04
 -3.56925E+04  3.82796E+04 -4.75852E+04  1.13710E+04 -4.78879E+04 -1.87905E+04 -2.61249E+04 -4.23740E+04
  8.10589E+03 -4.20343E+04  3.42509E+04 -1.75983E+04  3.22446E+04  1.09427E+04  4.92796E+03  2.12130E+04
 -1.41571E+04  9.76732E+03 -1.14176E+04 -7.44700E+03  5.58028E+03 -1.14216E+04  1.88361E+04  5.52310E+03
  1.50913E+04  2.27856E+04 -5.09438E+03  2.76563E+04 -2.32197E+04  1.45117E+04 -3.14082E+04 -2.95481E+03
 -2.57669E+04 -1.82229E+04 -1.19156E+04 -2.51812E+04  3.97481E+03 -2.63055E+04  2.02054E+04 -2.26978E+04
  3.25879E+04 -1.40453E+04  3.79879E+04  5.74539E+03  2.73180E+04  2.45223E+04  4.14891E+03  4.14569E+04
 -2.00730E+04  3.41392E+04 -3.08247E+04  1.18661E+04 -2.25057E+04 -1.00761E+04 -4.79077E+03 -1.30086E+04
  6.77909E+02 -7.81050E+02 -7.40028E+03  8.44944E+03 -2.02600E+04  5.16863E+03 -2.03977E+04 -9.76185E+03
 -1.17047E+04 -2.36811E+04  5.89934E+03 -2.73465E+04  1.91451E+04 -2.01801E+04  2.26770E+04 -2.00570E+03
  1.44396E+04  1.63455E+04 -1.48617E+03  2.33682E+04 -1.64294E+04  1.35835E+04 -2.36693E+04 -5.19897E+03
 -1.70774E+04 -2.10897E+04 -2.22414E+03 -2.80531E+04  1.29818E+04 -2.33477E+04  2.33103E+04 -1.24217E+04
  2.23262E+04 -4.52849E+02  1.59914E+04  5.34890E+03  8.74517E+03  1.51215E+03  1.24261E+04 -2.16368E+03
  2.22241E+04  2.47999E+03  2.52211E+04  1.82214E+04  1.74904E+04  3.74822E+04 -2.87050E+03  4.40125E+04
 -2.52335E+04  3.67403E+04 -4.15081E+04  1.92308E+04 -4.51105E+04 -3.34144E+03 -3.61822E+04 -2.59682E+04
 -1.46294E+04 -3.73148E+04  1.33931E+04 -3.27484E+04  2.78809E+04 -1.50089E+04  2.45815E+04  7.56664E+03
  8.02761E+03  1.87376E+04 -1.18554E+04  1.59188E+04 -2.00360E+04  2.87295E+03 -1.54880E+04 -1.31421E+04
 -4.79774E+02 -1.96216E+04  1.02838E+04 -1.43066E+04  1.33775E+04 -1.43433E+03  3.20619E+03  8.57019E+03
 -8.49715E+03  3.71363E+03 -9.12994E+03 -6.75383E+03 -1.78651E+03 -1.86190E+04  1.21936E+04 -1.96012E+04
  2.33837E+04 -1.06769E+04  2.60779E+04  3.04550E+03  2.32959E+04  1.84118E+04  1.07654E+04  2.91949E+04
 -5.71905E+03  3.06929E+04 -2.03473E+04  1.91134E+04 -2.25973E+04  4.16544E+03 -1.52023E+04 -6.08738E+03
 -6.50890E+03 -6.95990E+03 -7.55183E+02  5.55330E+02 -2.67533E+03  3.47282E+03 -7.15099E+03  5.40678E+03
 -1.36983E+04 -1.30802E+03 -1.47890E+04 -1.17752E+04 -5.69062E+03 -1.91893E+04  6.45626E+03 -1.56456E+04
  1.29910E+04 -6.53171E+03  8.99041E+03  4.15633E+03 -3.32620E+02  6.03758E+03 -7.90784E+03 -3.71045E+02
 -7.14849E+03 -9.83191E+03 -9.67169E+02 -1.54951E+04  9.07586E+03 -1.61511E+04  1.98837E+04 -9.06145E+03
  2.31379E+04  2.27615E+03  1.74420E+04  1.40917E+04  3.30887E+03  1.88556E+04 -9.89132E+03  1.56128E+04
 -1.29022E+04  3.96607E+03 -6.63287E+03 -3.56481E+03  2.07972E+03 -4.41599E+03  8.19729E+03 -1.27445E+03
  7.75730E+03  6.96352E+03  8.98414E+02  1.28771E+04 -9.17025E+03  1.20102E+04 -1.50107E+04  2.87771E+03
 -1.08268E+04 -8.08373E+03  3.89927E+02 -1.33564E+04  8.71892E+03 -6.83329E+03  9.31131E+03  3.33975E+03
  2.28731E+03  9.83735E+03 -8.12986E+03  1.15456E+04 -1.33648E+04  5.20239E+03 -1.39798E+04 -4.52976E+03
 -7.68085E+03 -1.57116E+04  4.01626E+03 -1.80040E+04  1.53661E+04 -1.08218E+04  1.66088E+04  3.16389E+03
  9.60958E+03  1.29813E+04 -1.21710E+03  1.54983E+04 -1.15436E+04  9.12380E+03 -1.26512E+04 -1.36476E+03
 -1.07829E+04 -1.02774E+04 -1.63494E+03 -1.23131E+04  6.41568E+03 -9.66980E+03  7.39176E+03 -3.65083E+03
  4.91304E+03  1.74441E+03 -1.03592E+03  2.13620E+03 -5.29053E+02 -3.27429E+03  2.74207E+03 -7.32525E+03
  1.12129E+04 -4.93160E+03  1.56521E+04  1.51826E+03  1.59467E+04  1.10062E+04  9.50337E+03  2.03222E+04
 -4.87847E+03  2.38841E+04 -1.93202E+04  1.74888E+04 -2.52800E+04  3.17737E+03 -2.03419E+04 -9.02939E+03
 -1.01681E+04 -1.66033E+04 -4.77514E+02 -1.47113E+04  5.11998E+03 -7.94693E+03  5.28864E+03 -5.15766E+03
  3.82895E+03 -3.01596E+03  3.94723E+03 -4.03365E+03  5.88258E+03 -3.51315E+03  7.86030E+03 -1.31811E+03
  1.08291E+04  2.30423E+03  6.34419E+03  8.91114E+03 -2.66696E+03  1.09053E+04 -1.09596E+04  8.28966E+03
 -1.47060E+04 -1.83453E+03 -9.23683E+03 -1.00052E+04 -1.47394E+03 -1.53648E+04  8.16855E+03 -1.56705E+04
  1.60138E+04 -7.92641E+03  1.89898E+04  2.34694E+03  1.35285E+04  1.35839E+04  2.20250E+03  1.71177E+04
 -6.67402E+03  1.38065E+04 -1.03176E+04  4.49500E+03 -7.01530E+03 -1.91579E+03 -2.68291E+03 -2.25281E+03
 -1.47946E+03 -2.79348E+02 -2.42163E+03  2.86638E+03 -6.00894E+03  2.55838E+03 -9.87824E+03 -1.51486E+03
 -7.26144E+03 -9.78374E+03 -1.14758E+02 -1.42091E+04  8.50241E+03 -1.29872E+04  1.43392E+04 -4.15690E+03
  1.44285E+04  6.95087E+03  6.37599E+03  1.27373E+04 -2.87550E+03  1.43578E+04 -1.01567E+04  8.60178E+03
 -1.35788E+04  4.39798E+02 -1.03191E+04 -8.97688E+03 -1.33461E+03 -1.18448E+04  6.41540E+03 -8.86390E+03
  8.95092E+03 -2.86276E+03  5.78941E+03  2.80396E+03  1.73480E+03  4.08025E+03  1.70908E+03  2.18294E+03
  2.86696E+03  1.34549E+03  3.45993E+03  1.83347E+03  4.33936E+03  5.21917E+03  3.60836E+03  7.64724E+03
 -2.93122E+03  1.09124E+04 -1.03297E+04  1.15321E+04 -1.52000E+04  3.06448E+03 -1.49518E+04 -6.15110E+03
 -7.80663E+03 -1.42101E+04  2.22465E+03 -1.62138E+04  8.47917E+03 -1.00036E+04  1.19160E+04 -2.68562E+03
  8.88959E+03  5.56310E+03  2.11327E+03  8.09780E+03 -4.29085E+03  5.27061E+03 -5.67118E+03 -8.83825E+02
 -2.74922E+03 -6.36865E+03  3.11939E+03 -6.36237E+03  6.13391E+03 -3.16045E+03  5.89645E+03  1.14176E+03
  3.60765E+03  3.06042E+03  1.03181E+03  2.54960E+03 -8.57183E+02  2.12773E+03  1.58590E+03 -4.18556E+02
  2.32171E+03 -1.16390E+03  6.03172E+03  2.25668E+03  2.96139E+03  7.33962E+03 -8.66758E+02  9.97108E+03
 -6.89667E+03  6.80643E+03 -9.01625E+03  1.88302E+03 -8.05664E+03 -3.09254E+03 -3.79931E+03 -5.78219E+03
  1.02506E+03 -5.16839E+03  3.45581E+03 -2.53879E+03  2.83308E+03  2.70677E+03 -1.17997E+03  4.64413E+03
 -5.74796E+03  2.82618E+03 -6.63498E+03 -3.72877E+03 -4.17582E+03 -7.79260E+03  8.91094E+02 -7.72166E+03
  4.47946E+03 -4.68341E+03  5.78561E+03 -4.26242E+01  4.98738E+03  1.91807E+03  6.03782E+02  4.09492E+03
 -2.77264E+03  1.53497E+03 -3.58838E+03 -2.48973E+03  1.39560E+03 -6.25043E+03  6.82445E+03 -4.89797E+03
  9.22567E+03  6.27101E+02  8.59843E+03  6.13684E+03  3.23691E+03  9.38466E+03 -2.89258E+03  8.97327E+03
 -7.95694E+03  3.94777E+03 -7.96559E+03 -1.02067E+03 -4.25438E+03 -6.03866E+03  1.32141E+03 -5.57242E+03
  5.62687E+03 -2.92352E+03  5.01425E+03  2.45833E+03  1.67425E+03  5.25172E+03 -7.99216E+02  4.73752E+03
 -2.35010E+03  3.32951E+03 -2.10981E+03  3.22732E+02 -1.09750E+03  8.65478E+02 -1.42947E+03  2.32706E+03
 -2.60135E+03  3.76697E+03 -5.88738E+03  3.32376E+03 -9.04080E+03  5.11895E+02 -1.01236E+04 -6.15006E+03
 -5.51394E+03 -1.21898E+04  2.27111E+03 -1.42167E+04  8.54975E+03 -1.10738E+04  1.32704E+04 -4.18217E+03
  1.26422E+04  2.55222E+03  7.83191E+03  8.41848E+03  8.06073E+02  9.46761E+03 -3.71522E+03  6.98287E+03
 -5.31777E+03  2.54952E+03 -3.42257E+03 -9.93053E+02 -1.18709E+03 -7.21299E+02 -5.66334E+02 -2.04488E+02
 -1.57589E+03 -3.88685E+02 -2.25310E+03 -3.23545E+02 -1.12423E+03 -2.12658E+03  1.11852E+02 -3.49175E+03
  4.40232E+03 -3.13145E+03  5.47859E+03  1.44921E+01  6.68622E+03  4.88391E+03  1.99997E+03  9.10489E+03
 -4.57868E+03  1.06848E+04 -9.68764E+03  6.19506E+03 -1.17344E+04 -9.23692E+02 -8.49159E+03 -7.11966E+03
 -3.96668E+03 -9.78238E+03  2.26007E+03 -8.58682E+03  6.27004E+03 -4.50118E+03  6.31526E+03  3.12345E+02
  3.45450E+03  2.97410E+03 -3.55607E+02  2.66781E+03 -1.88484E+03 -6.97859E+01  2.48925E+02 -2.33641E+03
  3.17736E+03 -1.24852E+03  3.93217E+03  1.22159E+03  2.31352E+03  3.44990E+03  1.72864E+02  4.37825E+03
 -3.99718E+03  4.02793E+03 -6.22118E+03  5.49263E+02 -5.84550E+03 -4.18148E+03 -9.90572E+02 -7.90702E+03
  4.06218E+03 -6.24204E+03  7.43590E+03 -2.13454E+03  7.20738E+03  1.65444E+03  3.94145E+03  5.77707E+03
  9.00345E+02  5.78152E+03 -2.32095E+03  5.40085E+03 -3.79016E+03  2.66442E+03 -3.16335E+03  6.84190E+02
 -1.94940E+03 -3.06685E+02 -1.79487E+03  9.38191E+02 -3.41341E+03  9.55664E+02 -4.82644E+03 -1.37348E+03
 -4.41327E+03 -2.90465E+03 -1.31603E+03 -6.17469E+03  3.05587E+03 -6.41414E+03  5.43701E+03 -3.09678E+03
  6.02204E+03  9.57290E+02  3.58796E+03  4.14043E+03 -4.63996E+02  6.18985E+03 -4.57934E+03  3.89459E+03
