 $NMID ID='MM_0lb_SNR800_12hz_g45_36.RAW', FMTDAT='(8E13.5)'
 TRAMP=1., VOLUME=1. $END
  3.09946E+05  2.82315E+02  3.37385E+05  2.50571E+05  8.46205E+04  3.38104E+05 -1.32436E+05  2.51191E+05
 -1.90366E+05  8.33976E+04 -1.11975E+05 -3.27578E+04  5.42776E+02 -5.03771E+04  5.39398E+04 -3.33252E+02
  3.58200E+04  5.26924E+04 -1.66268E+04  7.55244E+04 -6.08001E+04  6.40056E+04 -8.43220E+04  3.21194E+04
 -8.11619E+04 -1.16796E+04 -5.78284E+04 -5.16992E+04 -1.52724E+04 -6.97762E+04  2.77634E+04 -4.61590E+04
  4.05692E+04  3.87273E+03  1.63646E+04  4.81416E+04 -3.49929E+04  4.74148E+04 -6.70485E+04 -1.04790E+02
 -5.42558E+04 -5.69571E+04 -6.74584E+03 -7.75918E+04  3.42485E+04 -5.54769E+04  4.84621E+04 -1.75333E+04
  4.39352E+04  1.13935E+04  3.20129E+04  2.57474E+04  1.57454E+04  2.97025E+04 -5.54739E+03  2.72562E+04
 -2.19992E+04  1.23962E+04 -1.85961E+04 -5.08119E+03  6.09630E+03 -7.40790E+03  2.27638E+04  1.28102E+04
  7.01699E+03  3.57959E+04 -3.26273E+04  3.58196E+04 -6.38002E+04  2.10616E+03 -5.73190E+04 -4.29026E+04
 -1.24479E+04 -6.38987E+04  4.02017E+04 -4.57711E+04  5.90109E+04 -2.33542E+03  3.48325E+04  3.30716E+04
 -6.12471E+03  3.67212E+04 -3.05008E+04  1.60883E+04 -3.08530E+04 -3.89950E+03 -1.75835E+04 -1.14882E+04
 -8.71603E+03 -1.34965E+04 -8.57705E+02 -1.86710E+04  7.99858E+03 -2.31796E+04  1.56463E+04 -1.34723E+04
  1.13329E+04  5.40411E+03 -8.84961E+03  1.29288E+04 -2.19917E+04 -4.92166E+03 -8.38472E+03 -3.50340E+04
  2.33809E+04 -4.42183E+04  4.92650E+04 -2.00780E+04  4.59681E+04  1.99814E+04  1.60508E+04  4.53317E+04
 -1.63970E+04  3.42951E+04 -2.60091E+04  2.31554E+03 -1.04284E+04 -2.83386E+04  2.11926E+04 -3.44415E+04
  4.21732E+04 -9.50029E+03  3.68538E+04  2.38272E+04  1.90163E+04  4.77798E+04 -8.23978E+03  5.20591E+04
 -3.26779E+04  3.49777E+04 -4.32805E+04  1.01424E+04 -4.37336E+04 -1.70933E+04 -2.42622E+04 -3.90835E+04
  7.39229E+03 -3.92329E+04  3.21825E+04 -1.55206E+04  3.01503E+04  1.09148E+04  4.38484E+03  1.98830E+04
 -1.34173E+04  8.79111E+03 -1.05386E+04 -7.75474E+03  5.80456E+03 -1.06839E+04  1.84347E+04  5.67627E+03
  1.37830E+04  2.23212E+04 -5.79718E+03  2.57374E+04 -2.26457E+04  1.23139E+04 -2.89867E+04 -4.28259E+03
 -2.19865E+04 -1.75907E+04 -9.06573E+03 -2.17313E+04  4.47221E+03 -2.14014E+04  1.74901E+04 -1.96248E+04
  2.77929E+04 -1.35475E+04  3.42662E+04  3.51759E+03  2.46249E+04  2.11717E+04  4.21523E+03  3.74273E+04
 -1.83050E+04  3.17555E+04 -2.89638E+04  1.09623E+04 -2.14565E+04 -1.00604E+04 -4.21824E+03 -1.33563E+04
  1.40607E+03 -2.30023E+03 -5.75507E+03  7.02774E+03 -1.71714E+04  5.21794E+03 -1.74362E+04 -7.77994E+03
 -1.06207E+04 -2.02186E+04  5.47385E+03 -2.45382E+04  1.63343E+04 -1.73775E+04  1.91781E+04 -1.66789E+03
  1.20044E+04  1.39391E+04 -8.48431E+02  2.05157E+04 -1.44731E+04  1.18598E+04 -2.02882E+04 -4.08521E+03
 -1.48131E+04 -1.81367E+04 -1.89630E+03 -2.46903E+04  1.11448E+04 -1.99556E+04  2.02336E+04 -1.00422E+04
  1.90707E+04  4.75368E+01  1.34842E+04  4.42303E+03  7.19194E+03  1.02895E+03  1.07128E+04 -1.78788E+03
  1.90328E+04  3.04803E+03  2.11829E+04  1.59971E+04  1.41829E+04  3.25370E+04 -2.78175E+03  3.66122E+04
 -2.17047E+04  3.01415E+04 -3.49342E+04  1.55581E+04 -3.68384E+04 -3.21063E+03 -3.02951E+04 -2.12762E+04
 -1.25632E+04 -3.04340E+04  1.07503E+04 -2.72473E+04  2.34601E+04 -1.35333E+04  2.07898E+04  6.01227E+03
  7.58444E+03  1.55413E+04 -1.00178E+04  1.38862E+04 -1.71774E+04  2.80101E+03 -1.35478E+04 -1.04997E+04
 -4.10725E+02 -1.63758E+04  8.72435E+03 -1.24187E+04  1.11930E+04 -1.47665E+03  2.99076E+03  7.56856E+03
 -7.39238E+03  2.93209E+03 -6.72869E+03 -5.92224E+03 -9.11942E+02 -1.49402E+04  1.00703E+04 -1.56764E+04
  1.84783E+04 -8.44919E+03  2.06110E+04  3.25653E+03  1.80080E+04  1.47931E+04  8.16969E+03  2.29961E+04
 -3.92642E+03  2.52857E+04 -1.61048E+04  1.55366E+04 -1.79295E+04  3.53296E+03 -1.23221E+04 -4.43020E+03
 -5.70967E+03 -5.58673E+03 -6.03101E+02  7.34929E+02 -2.73475E+03  2.86377E+03 -5.79749E+03  4.84750E+03
 -1.14105E+04 -9.14325E+02 -1.19647E+04 -1.01412E+04 -4.82246E+03 -1.61849E+04  5.20828E+03 -1.28395E+04
  1.04065E+04 -5.23624E+03  7.34867E+03  3.11304E+03 -3.01411E+02  4.92735E+03 -6.10159E+03 -6.93899E+01
 -6.13722E+03 -8.12671E+03 -8.98599E+02 -1.18739E+04  7.04897E+03 -1.27323E+04  1.56236E+04 -6.84453E+03
  1.85157E+04  1.85912E+03  1.34449E+04  1.10097E+04  2.71415E+03  1.45170E+04 -7.88707E+03  1.25061E+04
 -9.92332E+03  4.05909E+03 -5.22892E+03 -2.62467E+03  1.70098E+03 -3.61098E+03  6.49967E+03 -1.03730E+03
  5.96483E+03  5.51987E+03  1.39300E+03  9.96837E+03 -7.18415E+03  9.41845E+03 -1.24010E+04  2.21227E+03
 -8.17352E+03 -6.60286E+03  1.36119E+02 -1.05441E+04  6.29155E+03 -5.57165E+03  6.83604E+03  2.26302E+03
  1.34891E+03  7.23428E+03 -6.44872E+03  8.77079E+03 -9.72680E+03  4.06452E+03 -9.55737E+03 -3.39630E+03
 -5.85767E+03 -1.16215E+04  2.66965E+03 -1.31240E+04  1.10456E+04 -8.33483E+03  1.25161E+04  2.19356E+03
  7.78432E+03  9.91521E+03 -7.77942E+02  1.18444E+04 -8.72566E+03  6.81182E+03 -9.43261E+03 -7.70752E+02
 -8.74907E+03 -8.30142E+03 -1.33155E+03 -8.93881E+03  4.48216E+03 -7.58534E+03  5.81162E+03 -3.21483E+03
  4.11494E+03  1.28267E+03 -5.57192E+02  1.95017E+03 -6.82110E+01 -1.67805E+03  2.09435E+03 -5.06690E+03
  8.22575E+03 -3.25459E+03  1.10621E+04  1.26666E+03  1.08415E+04  7.33101E+03  7.78498E+03  1.48783E+04
 -3.11554E+03  1.70766E+04 -1.44887E+04  1.30177E+04 -1.88612E+04  2.65266E+03 -1.53764E+04 -6.03852E+03
 -7.36706E+03 -1.20884E+04 -5.48874E+02 -1.04685E+04  3.79825E+03 -5.69135E+03  3.56472E+03 -3.94451E+03
  2.93073E+03 -2.51050E+03  3.10779E+03 -3.26930E+03  4.52441E+03 -2.66261E+03  6.24390E+03 -4.50529E+02
  8.09941E+03  2.23801E+03  3.90607E+03  6.48928E+03 -2.09053E+03  7.45581E+03 -8.07077E+03  6.05625E+03
 -1.02231E+04 -9.70998E+02 -6.11727E+03 -6.99436E+03 -5.20815E+02 -1.11851E+04  6.24393E+03 -1.08269E+04
  1.14373E+04 -6.35331E+03  1.37411E+04  1.60316E+03  9.58704E+03  9.57112E+03  1.53478E+03  1.27690E+04
 -5.07073E+03  1.04507E+04 -7.25564E+03  3.28550E+03 -4.91912E+03 -1.08777E+03 -1.94304E+03 -1.72738E+03
 -9.49043E+02  4.82096E+01 -1.65537E+03  2.47983E+03 -4.46828E+03  1.59430E+03 -7.39943E+03 -1.03411E+03
 -4.84201E+03 -7.23190E+03  3.52506E+01 -1.00343E+04  5.96505E+03 -9.33608E+03  9.53009E+03 -2.65037E+03
  9.18418E+03  4.89374E+03  4.44609E+03  8.93365E+03 -2.01663E+03  1.01298E+04 -6.91452E+03  6.34256E+03
 -9.35474E+03  4.48740E+02 -7.27862E+03 -5.90045E+03 -6.89403E+02 -8.07920E+03  4.21314E+03 -5.94575E+03
  6.48886E+03 -2.25724E+03  4.24592E+03  1.42129E+03  1.42830E+03  3.35804E+03  1.61421E+03  1.42838E+03
  2.38334E+03  6.65174E+02  2.39041E+03  1.75701E+03  3.34632E+03  3.59902E+03  2.72437E+03  4.86767E+03
 -2.44593E+03  7.32295E+03 -6.77386E+03  8.12983E+03 -9.54185E+03  2.08704E+03 -1.03189E+04 -3.74422E+03
 -4.95507E+03 -9.63601E+03  1.36296E+03 -1.08355E+04  5.67734E+03 -6.71542E+03  7.80522E+03 -1.84342E+03
  6.23088E+03  4.03942E+03  1.19434E+03  5.34889E+03 -2.70181E+03  3.70799E+03 -3.71734E+03 -4.19396E+02
 -1.82880E+03 -3.92031E+03  2.40054E+03 -4.53898E+03  3.76789E+03 -2.01291E+03  4.05445E+03  1.00322E+03
  2.20145E+03  1.91190E+03  9.83842E+02  1.33413E+03 -2.77979E+02  1.48547E+03  1.63631E+03 -3.69505E+02
  1.19517E+03 -7.10076E+02  4.18232E+03  1.58007E+03  1.92948E+03  5.53703E+03 -8.98922E+02  6.79639E+03
 -4.23632E+03  4.34869E+03 -5.95924E+03  1.56482E+03 -5.44679E+03 -2.28465E+03 -1.64894E+03 -3.68006E+03
  8.56058E+02 -3.53656E+03  2.53992E+03 -1.80734E+03  2.08669E+03  1.92266E+03 -1.07784E+03  3.23612E+03
 -3.73424E+03  2.27496E+03 -4.29260E+03 -2.68836E+03 -2.41358E+03 -5.39636E+03  8.61092E+02 -4.83010E+03
  2.59750E+03 -2.78100E+03  3.16158E+03 -1.16955E+02  3.55322E+03  1.34398E+03  6.55861E+02  3.22541E+03
 -1.58477E+03  9.16299E+02 -2.20370E+03 -1.78459E+03  7.10267E+02 -3.72452E+03  4.86440E+03 -3.36271E+03
  5.27355E+03  6.50879E+02  6.15344E+03  3.80974E+03  2.20494E+03  5.89162E+03 -1.82316E+03  6.01132E+03
 -4.48403E+03  2.35712E+03 -5.14420E+03 -9.04591E+02 -2.68598E+03 -4.15672E+03  1.39734E+03 -3.20623E+03
  3.83879E+03 -1.82076E+03  3.24431E+03  1.71458E+03  1.15902E+03  3.04732E+03 -2.43612E+02  3.10202E+03
 -1.69406E+03  2.09009E+03 -1.52171E+03  8.22749E+02 -8.67242E+02  3.48218E+02 -1.00856E+03  1.17104E+03
 -1.65372E+03  2.55254E+03 -4.50317E+03  2.07013E+03 -5.84632E+03  2.62970E+01 -6.71484E+03 -3.73906E+03
 -3.67458E+03 -7.86469E+03  1.73018E+03 -9.57630E+03  5.30015E+03 -7.18703E+03  8.80782E+03 -2.87056E+03
  7.81486E+03  1.38436E+03  5.08913E+03  5.28677E+03  1.00960E+02  6.07727E+03 -2.29993E+03  4.56828E+03
 -3.36822E+03  2.09996E+03 -2.15145E+03 -7.16909E+02 -8.12348E+02 -2.64076E+02 -7.57172E+02 -2.09256E+02
 -1.62458E+03  1.17347E+02 -1.40750E+03 -1.25560E+02 -1.55718E+01 -1.64905E+03  1.28362E+01 -2.27697E+03
  3.29747E+03 -1.96794E+03  3.12835E+03  2.42923E+02  4.21917E+03  3.20089E+03  8.38977E+02  5.78034E+03
 -2.75055E+03  7.13097E+03 -5.91125E+03  4.30832E+03 -6.82089E+03 -4.55003E+01 -4.95896E+03 -4.52145E+03
 -2.05530E+03 -5.94963E+03  1.33384E+03 -5.46724E+03  3.84188E+03 -2.60141E+03  3.63332E+03  4.91635E+01
  2.35031E+03  1.77194E+03 -1.79853E+02  1.64274E+03 -1.22224E+03 -2.88562E+02 -2.93357E+02 -1.23127E+03
  1.93070E+03 -6.18546E+02  1.82453E+03  5.04130E+02  1.26254E+03  2.33328E+03  5.98510E+02  2.63395E+03
 -2.47829E+03  3.03889E+03 -3.56772E+03 -1.11243E+02 -3.48465E+03 -2.65313E+03 -6.17677E+02 -4.71285E+03
  2.68610E+03 -4.13095E+03  4.04822E+03 -1.11816E+03  4.27924E+03  5.08927E+02  2.48477E+03  3.33338E+03
  7.79175E+02  3.31458E+03 -1.24451E+03  2.81528E+03 -2.27994E+03  1.82934E+03 -1.44489E+03  2.03102E+02
 -1.04767E+03 -7.48859E+01 -1.00480E+03  5.61627E+02 -1.90038E+03  8.07911E+02 -2.79644E+03 -4.47654E+02
 -3.16978E+03 -1.38176E+03 -8.94431E+02 -3.72776E+03  1.82947E+03 -3.88055E+03  3.54367E+03 -1.72806E+03
  3.95630E+03  1.99637E+02  1.33374E+03  2.29724E+03 -3.72269E+02  4.09799E+03 -2.74172E+03  2.28454E+03
