 $NMID ID='MM_0lb_SNR800_8hz_g40_63.RAW', FMTDAT='(8E13.5)'
 TRAMP=1., VOLUME=1. $END
  3.09820E+05  5.00590E+01  3.37974E+05  2.51098E+05  8.52715E+04  3.38824E+05 -1.32641E+05  2.52197E+05
 -1.91150E+05  8.34959E+04 -1.12096E+05 -3.24914E+04  2.47552E+01 -5.07927E+04  5.33843E+04 -5.95716E+02
  3.57412E+04  5.26519E+04 -1.71919E+04  7.55528E+04 -6.14761E+04  6.42705E+04 -8.53215E+04  3.26436E+04
 -8.24028E+04 -1.16911E+04 -5.79475E+04 -5.21868E+04 -1.53250E+04 -7.09285E+04  2.81477E+04 -4.70747E+04
  4.10661E+04  3.14892E+03  1.67382E+04  4.84449E+04 -3.52376E+04  4.86568E+04 -6.83082E+04 -1.22138E+01
 -5.51088E+04 -5.77613E+04 -7.23728E+03 -7.88776E+04  3.51027E+04 -5.71567E+04  4.95598E+04 -1.87543E+04
  4.55527E+04  1.14040E+04  3.30378E+04  2.68737E+04  1.62371E+04  3.05604E+04 -5.76226E+03  2.77467E+04
 -2.23292E+04  1.17789E+04 -1.78841E+04 -5.90817E+03  6.99672E+03 -7.18460E+03  2.35446E+04  1.40033E+04
  7.36686E+03  3.72732E+04 -3.34716E+04  3.69686E+04 -6.59212E+04  2.11287E+03 -5.89409E+04 -4.45243E+04
 -1.27654E+04 -6.61996E+04  4.14517E+04 -4.76752E+04  6.14668E+04 -2.42006E+03  3.68209E+04  3.43817E+04
 -5.58871E+03  3.96147E+04 -3.23192E+04  1.87745E+04 -3.36062E+04 -3.94106E+03 -1.89964E+04 -1.21056E+04
 -9.69297E+03 -1.53009E+04 -4.31887E+02 -1.97629E+04  8.37532E+03 -2.33083E+04  1.56690E+04 -1.23288E+04
  1.03148E+04  6.73998E+03 -1.05872E+04  1.26395E+04 -2.30963E+04 -6.69015E+03 -8.89481E+03 -3.77466E+04
  2.52847E+04 -4.68473E+04  5.22565E+04 -2.09609E+04  4.89358E+04  2.09961E+04  1.73915E+04  4.68788E+04
 -1.66472E+04  3.56989E+04 -2.76870E+04  2.67701E+03 -1.20127E+04 -2.96770E+04  2.15707E+04 -3.65921E+04
  4.45525E+04 -1.09682E+04  4.07522E+04  2.50400E+04  2.14697E+04  5.12558E+04 -8.40543E+03  5.61895E+04
 -3.52761E+04  3.86651E+04 -4.78240E+04  1.07213E+04 -4.74908E+04 -1.86985E+04 -2.58822E+04 -4.19665E+04
  7.76641E+03 -4.24576E+04  3.44971E+04 -1.73605E+04  3.24387E+04  1.12298E+04  5.15204E+03  2.12810E+04
 -1.39573E+04  9.70045E+03 -1.12695E+04 -8.00349E+03  6.05188E+03 -1.16248E+04  1.93084E+04  5.45102E+03
  1.46805E+04  2.24926E+04 -5.57502E+03  2.73195E+04 -2.33014E+04  1.39737E+04 -3.19598E+04 -3.17296E+03
 -2.55120E+04 -1.83209E+04 -1.17711E+04 -2.55376E+04  4.15459E+03 -2.56590E+04  1.91857E+04 -2.31684E+04
  3.18139E+04 -1.41713E+04  3.83074E+04  4.79353E+03  2.71067E+04  2.43385E+04  4.63040E+03  4.18555E+04
 -2.01335E+04  3.41015E+04 -3.06408E+04  1.14648E+04 -2.25827E+04 -1.00867E+04 -4.99227E+03 -1.27743E+04
  1.02662E+03 -7.05519E+02 -7.88616E+03  8.19851E+03 -2.03038E+04  5.40763E+03 -2.04320E+04 -9.98648E+03
 -1.19547E+04 -2.31473E+04  6.17888E+03 -2.82014E+04  1.89782E+04 -2.00270E+04  2.29645E+04 -1.96894E+03
  1.44594E+04  1.66065E+04 -1.17788E+03  2.31258E+04 -1.64764E+04  1.35672E+04 -2.40810E+04 -4.65168E+03
 -1.75069E+04 -2.10279E+04 -2.27780E+03 -2.82882E+04  1.27165E+04 -2.35183E+04  2.35514E+04 -1.25239E+04
  2.19948E+04 -2.44095E+02  1.62916E+04  5.31305E+03  8.94242E+03  1.31301E+03  1.24164E+04 -2.07486E+03
  2.23635E+04  2.74517E+03  2.59110E+04  1.88488E+04  1.76131E+04  3.83366E+04 -2.63818E+03  4.49703E+04
 -2.57967E+04  3.74704E+04 -4.19000E+04  1.94506E+04 -4.52055E+04 -3.28391E+03 -3.63805E+04 -2.66498E+04
 -1.44297E+04 -3.72755E+04  1.35773E+04 -3.30000E+04  2.86429E+04 -1.51444E+04  2.45610E+04  7.67835E+03
  7.84830E+03  1.90551E+04 -1.14771E+04  1.57156E+04 -2.06174E+04  2.64490E+03 -1.50361E+04 -1.32905E+04
 -5.84140E+02 -1.96377E+04  1.09682E+04 -1.45112E+04  1.33993E+04 -1.36400E+03  3.68617E+03  8.84776E+03
 -9.06905E+03  3.78048E+03 -9.00993E+03 -6.85360E+03 -1.72945E+03 -1.81476E+04  1.20707E+04 -2.03151E+04
  2.32873E+04 -1.15253E+04  2.65105E+04  3.52324E+03  2.33253E+04  1.86946E+04  1.06636E+04  2.99307E+04
 -5.90581E+03  3.16883E+04 -2.06641E+04  1.98444E+04 -2.31087E+04  4.01721E+03 -1.56144E+04 -5.98844E+03
 -6.79080E+03 -7.70849E+03 -5.47416E+02  3.00639E+02 -3.09892E+03  3.26349E+03 -7.34940E+03  5.46615E+03
 -1.45571E+04 -1.01605E+03 -1.49471E+04 -1.21852E+04 -6.07209E+03 -1.94407E+04  6.50106E+03 -1.62257E+04
  1.30912E+04 -6.50517E+03  9.50170E+03  4.82809E+03 -3.88760E+02  6.81023E+03 -7.56576E+03  2.16398E+02
 -7.92158E+03 -1.05188E+04 -1.25636E+03 -1.58683E+04  8.71360E+03 -1.65517E+04  2.04680E+04 -9.08666E+03
  2.37176E+04  2.17467E+03  1.77700E+04  1.49044E+04  3.61774E+03  1.98492E+04 -9.99617E+03  1.59212E+04
 -1.30405E+04  4.98171E+03 -7.02400E+03 -3.92731E+03  2.25967E+03 -4.13965E+03  8.40669E+03 -6.25301E+02
  7.66515E+03  7.21289E+03  1.43550E+03  1.24281E+04 -9.20504E+03  1.21891E+04 -1.53177E+04  3.28914E+03
 -1.11844E+04 -8.85396E+03  3.83454E+02 -1.38120E+04  8.92451E+03 -6.87846E+03  9.48415E+03  3.65358E+03
  2.32676E+03  1.05646E+04 -8.43694E+03  1.14362E+04 -1.35251E+04  5.46536E+03 -1.41416E+04 -5.52827E+03
 -8.45442E+03 -1.61050E+04  3.62710E+03 -1.83461E+04  1.60977E+04 -1.11124E+04  1.74654E+04  3.10965E+03
  1.03346E+04  1.38843E+04 -1.68116E+03  1.65706E+04 -1.21603E+04  8.95647E+03 -1.33746E+04 -1.02385E+03
 -1.13630E+04 -1.06465E+04 -1.69742E+03 -1.27278E+04  6.45530E+03 -9.74512E+03  7.95406E+03 -3.56152E+03
  4.66208E+03  2.26338E+03 -1.31985E+03  1.96744E+03 -7.97518E+02 -3.84976E+03  3.09673E+03 -8.21006E+03
  1.26205E+04 -5.45843E+03  1.68688E+04  2.18012E+03  1.64924E+04  1.14354E+04  1.00543E+04  2.17629E+04
 -5.27739E+03  2.50584E+04 -2.03834E+04  1.88754E+04 -2.67920E+04  3.55487E+03 -2.13811E+04 -9.50363E+03
 -1.11584E+04 -1.79889E+04 -7.32700E+02 -1.57000E+04  5.82396E+03 -8.77255E+03  5.36839E+03 -5.65537E+03
  4.04713E+03 -3.30919E+03  4.31510E+03 -4.35291E+03  5.72184E+03 -3.73857E+03  8.69856E+03 -1.56240E+03
  1.08257E+04  2.46316E+03  6.20699E+03  9.53712E+03 -2.80874E+03  1.20799E+04 -1.22750E+04  8.89376E+03
 -1.55811E+04 -1.20596E+03 -9.91228E+03 -1.08317E+04 -1.68414E+03 -1.71595E+04  9.28664E+03 -1.64100E+04
  1.69610E+04 -9.50209E+03  2.01982E+04  2.74286E+03  1.38838E+04  1.44828E+04  2.27094E+03  1.83031E+04
 -7.79792E+03  1.51014E+04 -1.06625E+04  5.36361E+03 -7.63351E+03 -1.47113E+03 -3.31397E+03 -2.50704E+03
 -1.59128E+03 -5.42508E+02 -2.45710E+03  3.36100E+03 -6.15662E+03  2.76396E+03 -1.02563E+04 -1.94965E+03
 -7.98804E+03 -1.05955E+04 -6.34306E+01 -1.52069E+04  9.73238E+03 -1.44417E+04  1.57399E+04 -4.26669E+03
  1.56669E+04  7.58500E+03  7.25050E+03  1.41836E+04 -3.01230E+03  1.56939E+04 -1.13201E+04  9.78196E+03
 -1.51157E+04  5.11030E+02 -1.09967E+04 -9.65629E+03 -9.76613E+02 -1.31960E+04  7.19970E+03 -1.02200E+04
  9.92342E+03 -3.06466E+03  7.03457E+03  2.56535E+03  2.56273E+03  4.86646E+03  7.68511E+02  2.12094E+03
  2.81706E+03  1.12318E+03  3.66087E+03  2.10866E+03  4.55506E+03  5.71839E+03  4.12235E+03  8.89216E+03
 -3.08819E+03  1.26076E+04 -1.10816E+04  1.22584E+04 -1.68154E+04  3.55114E+03 -1.62975E+04 -7.05618E+03
 -8.06192E+03 -1.63551E+04  2.59143E+03 -1.71483E+04  9.85270E+03 -1.11454E+04  1.37196E+04 -3.33425E+03
  1.03074E+04  6.05754E+03  2.38070E+03  9.19823E+03 -5.14802E+03  6.13845E+03 -6.28681E+03 -9.60060E+02
 -3.36231E+03 -7.10885E+03  3.23384E+03 -7.46630E+03  7.06298E+03 -3.59035E+03  6.35393E+03  1.70031E+03
  4.04594E+03  3.07150E+03  1.32140E+03  2.66182E+03 -7.43938E+02  2.22852E+03  1.55578E+03 -6.74149E+02
  2.74652E+03 -6.69773E+02  6.64414E+03  2.08420E+03  4.15107E+03  8.35777E+03 -1.08083E+03  1.14367E+04
 -7.49662E+03  7.86515E+03 -1.09852E+04  2.02895E+03 -9.48078E+03 -3.58297E+03 -3.97717E+03 -6.20433E+03
  1.16864E+03 -6.56741E+03  4.70657E+03 -3.22907E+03  3.75702E+03  3.08183E+03 -1.86988E+03  5.72902E+03
 -6.94758E+03  3.28861E+03 -7.67346E+03 -3.82991E+03 -4.12379E+03 -9.03460E+03  1.80786E+03 -9.23142E+03
  5.34478E+03 -5.62097E+03  6.87105E+03 -8.28800E+02  5.25884E+03  2.75636E+03  7.15247E+02  4.89454E+03
 -3.50987E+03  1.50616E+03 -4.00295E+03 -3.45054E+03  1.41970E+03 -6.62823E+03  8.13055E+03 -5.90816E+03
  1.06912E+04  8.10652E+02  9.91425E+03  7.01413E+03  3.10802E+03  1.11026E+04 -4.40699E+03  1.02874E+04
 -8.93751E+03  4.70472E+03 -9.19478E+03 -1.41164E+03 -5.04290E+03 -7.11964E+03  1.47050E+03 -6.73673E+03
  6.68811E+03 -3.06845E+03  5.67784E+03  2.73697E+03  2.25582E+03  6.08679E+03 -1.08697E+03  5.25690E+03
 -3.05685E+03  3.05280E+03 -3.12605E+03  1.47646E+03 -1.57162E+03  9.95386E+02 -1.82096E+03  2.26873E+03
 -3.20839E+03  4.23368E+03 -7.67166E+03  3.70528E+03 -1.14026E+04  3.61003E+02 -1.22346E+04 -7.51928E+03
 -6.13564E+03 -1.48252E+04  3.03813E+03 -1.66719E+04  1.03750E+04 -1.33899E+04  1.61444E+04 -5.33939E+03
  1.49554E+04  3.47679E+03  9.03613E+03  1.01319E+04  1.32557E+03  1.14372E+04 -4.49313E+03  9.02233E+03
 -6.79249E+03  3.07775E+03 -4.01757E+03 -1.18698E+03 -1.17294E+03 -1.33657E+03 -3.04070E+02 -2.93942E+02
 -1.72937E+03  2.97590E+02 -2.38426E+03 -5.77136E+02 -8.65081E+02 -2.55120E+03  2.69501E+02 -4.57321E+03
  5.43598E+03 -3.78501E+03  7.72403E+03 -2.56564E+01  8.36952E+03  6.03416E+03  1.91026E+03  1.16491E+04
 -5.39083E+03  1.32052E+04 -1.21788E+04  8.12952E+03 -1.40700E+04 -1.14554E+03 -1.05635E+04 -8.59448E+03
 -4.30589E+03 -1.18885E+04  2.76953E+03 -1.12560E+04  7.34999E+03 -6.15174E+03  7.70265E+03  2.33668E+02
  4.53328E+03  3.77445E+03 -9.70925E+02  3.47251E+03 -1.95887E+03 -3.91897E+02  2.01267E+02 -2.84772E+03
  3.72814E+03 -1.77693E+03  4.71990E+03  1.61002E+03  2.99426E+03  4.54566E+03  1.99057E+02  6.22153E+03
 -5.30314E+03  5.46960E+03 -7.63592E+03  1.26597E+03 -7.26741E+03 -6.07823E+03 -1.37963E+03 -1.01589E+04
  5.74106E+03 -7.86259E+03  9.42206E+03 -2.55902E+03  9.71971E+03  2.43857E+03  5.39293E+03  7.37693E+03
  1.37691E+03  7.91826E+03 -3.00275E+03  6.20809E+03 -5.12027E+03  3.77792E+03 -4.24968E+03  6.02136E+02
 -2.59843E+03 -3.15962E+02 -2.31548E+03  7.37414E+02 -4.12809E+03  1.19558E+03 -6.42530E+03 -1.41252E+03
 -5.36670E+03 -4.35101E+03 -1.41040E+03 -8.04788E+03  3.60741E+03 -8.14367E+03  7.10192E+03 -4.31224E+03
  8.12111E+03  9.39661E+02  4.57734E+03  5.86177E+03 -5.13902E+02  8.08354E+03 -6.02692E+03  5.03273E+03
