 $NMID ID='MM_0lb_SNR800_14hz_g40_26.RAW', FMTDAT='(8E13.5)'
 TRAMP=1., VOLUME=1. $END
  3.09699E+05  3.19231E+02  3.37381E+05  2.50372E+05  8.46329E+04  3.38050E+05 -1.32646E+05  2.50614E+05
 -1.89942E+05  8.30409E+04 -1.11319E+05 -3.28952E+04  8.49027E+02 -5.05320E+04  5.40179E+04 -5.15076E+01
  3.48369E+04  5.28531E+04 -1.69509E+04  7.53783E+04 -6.08300E+04  6.32236E+04 -8.39999E+04  3.16975E+04
 -8.04420E+04 -1.13677E+04 -5.71141E+04 -5.08502E+04 -1.51493E+04 -6.90221E+04  2.72713E+04 -4.57575E+04
  3.99073E+04  4.13218E+03  1.62361E+04  4.75969E+04 -3.39682E+04  4.66952E+04 -6.63622E+04 -3.53104E+02
 -5.29546E+04 -5.67344E+04 -7.19107E+03 -7.64308E+04  3.40030E+04 -5.46354E+04  4.76627E+04 -1.69196E+04
  4.29444E+04  1.13902E+04  3.13442E+04  2.52481E+04  1.54024E+04  2.89626E+04 -5.30204E+03  2.70560E+04
 -2.21655E+04  1.25495E+04 -1.87520E+04 -4.66440E+03  5.43378E+03 -7.47612E+03  2.19048E+04  1.20131E+04
  7.22363E+03  3.47846E+04 -3.17762E+04  3.48947E+04 -6.23374E+04  2.13795E+03 -5.66593E+04 -4.22703E+04
 -1.25028E+04 -6.23864E+04  3.94036E+04 -4.49553E+04  5.75398E+04 -2.11079E+03  3.35318E+04  3.19762E+04
 -5.99981E+03  3.52731E+04 -2.94256E+04  1.52397E+04 -2.97255E+04 -4.63953E+03 -1.61046E+04 -1.07181E+04
 -8.24981E+03 -1.25739E+04 -8.01106E+02 -1.78727E+04  7.23015E+03 -2.28945E+04  1.55525E+04 -1.35732E+04
  1.15448E+04  5.10100E+03 -7.85139E+03  1.29929E+04 -2.07115E+04 -4.07405E+03 -8.22193E+03 -3.28735E+04
  2.22232E+04 -4.25356E+04  4.73786E+04 -1.95926E+04  4.41769E+04  1.90772E+04  1.51685E+04  4.33187E+04
 -1.58186E+04  3.29837E+04 -2.46547E+04  1.79139E+03 -9.70021E+03 -2.76415E+04  2.07239E+04 -3.30142E+04
  4.01368E+04 -8.61941E+03  3.45273E+04  2.34973E+04  1.75426E+04  4.54465E+04 -7.88537E+03  4.90837E+04
 -3.11496E+04  3.26801E+04 -4.10031E+04  8.94820E+03 -4.17810E+04 -1.63618E+04 -2.29975E+04 -3.73301E+04
  7.14247E+03 -3.68365E+04  3.07717E+04 -1.42367E+04  2.87497E+04  1.09723E+04  3.46939E+03  1.88467E+04
 -1.34782E+04  7.97766E+03 -1.04595E+04 -7.28565E+03  5.80959E+03 -1.05955E+04  1.78682E+04  6.00895E+03
  1.29123E+04  2.16238E+04 -5.95060E+03  2.47485E+04 -2.19756E+04  1.11724E+04 -2.73406E+04 -5.13618E+03
 -1.98065E+04 -1.73207E+04 -7.59712E+03 -1.98074E+04  3.86292E+03 -1.85141E+04  1.51214E+04 -1.73815E+04
  2.51035E+04 -1.23974E+04  3.15699E+04  2.63925E+03  2.33731E+04  1.92117E+04  4.27690E+03  3.54941E+04
 -1.72687E+04  2.95633E+04 -2.72177E+04  1.05067E+04 -2.05950E+04 -1.03179E+04 -4.52894E+03 -1.33455E+04
  1.84824E+03 -3.37032E+03 -4.34834E+03  6.40789E+03 -1.54082E+04  4.77144E+03 -1.56352E+04 -6.38020E+03
 -9.57633E+03 -1.79280E+04  5.10572E+03 -2.22633E+04  1.46936E+04 -1.61797E+04  1.71535E+04 -1.45795E+03
  1.07368E+04  1.26458E+04 -8.30591E+02  1.84372E+04 -1.26568E+04  1.06192E+04 -1.82076E+04 -4.07750E+03
 -1.33807E+04 -1.63135E+04 -1.84823E+03 -2.21599E+04  1.00202E+04 -1.77983E+04  1.86496E+04 -9.18305E+03
  1.70899E+04  5.57997E+02  1.27807E+04  4.35479E+03  6.45806E+03  8.24553E+02  9.30943E+03 -1.42934E+03
  1.63164E+04  2.82375E+03  1.83849E+04  1.47251E+04  1.20545E+04  2.94965E+04 -2.86918E+03  3.26142E+04
 -1.88987E+04  2.61483E+04 -3.03849E+04  1.29920E+04 -3.15709E+04 -2.30676E+03 -2.64779E+04 -1.84525E+04
 -1.14912E+04 -2.61738E+04  8.76785E+03 -2.36666E+04  2.04048E+04 -1.22729E+04  1.85910E+04  5.25465E+03
  7.17197E+03  1.32797E+04 -8.49651E+03  1.23535E+04 -1.56439E+04  2.46011E+03 -1.17159E+04 -9.39943E+03
 -1.50043E+02 -1.47591E+04  7.33672E+03 -1.10741E+04  9.58467E+03 -1.39815E+03  2.17042E+03  6.18847E+03
 -6.39255E+03  1.97785E+03 -5.50769E+03 -5.12606E+03  1.22726E+02 -1.28632E+04  9.16439E+03 -1.34520E+04
  1.58200E+04 -7.10184E+03  1.67494E+04  3.12713E+03  1.46450E+04  1.26463E+04  6.62406E+03  1.91688E+04
 -2.85924E+03  2.11460E+04 -1.34299E+04  1.33084E+04 -1.49769E+04  3.17823E+03 -1.10461E+04 -3.08396E+03
 -5.32339E+03 -4.50314E+03 -5.31336E+02  9.09313E+02 -2.34239E+03  2.43446E+03 -5.10354E+03  4.34101E+03
 -9.74342E+03 -5.42076E+02 -1.08451E+04 -8.99289E+03 -4.23032E+03 -1.41774E+04  4.64723E+03 -1.08529E+04
  9.02792E+03 -4.45740E+03  6.84107E+03  2.88669E+03  3.85713E+02  4.29348E+03 -4.87856E+03  1.15684E+02
 -4.55788E+03 -6.67710E+03 -1.03084E+03 -9.59615E+03  5.55177E+03 -1.06881E+04  1.33635E+04 -5.42061E+03
  1.56995E+04  1.45398E+03  1.14762E+04  8.84943E+03  2.09900E+03  1.20930E+04 -6.86844E+03  1.08328E+04
 -9.06529E+03  3.60199E+03 -4.47166E+03 -2.15167E+03  1.59010E+03 -2.54732E+03  6.05719E+03 -1.13860E+03
  5.48824E+03  4.56966E+03  1.08103E+03  8.39295E+03 -5.97131E+03  7.99678E+03 -1.05723E+04  2.26428E+03
 -6.75500E+03 -5.32678E+03  3.88422E+02 -8.88952E+03  5.48302E+03 -4.67603E+03  5.40308E+03  1.73408E+03
  1.12866E+03  5.30057E+03 -5.43957E+03  7.02684E+03 -7.46244E+03  3.26095E+03 -7.85714E+03 -2.50424E+03
 -4.37555E+03 -9.18523E+03  1.95468E+03 -1.05082E+04  8.72261E+03 -6.75493E+03  9.68013E+03  1.30953E+03
  6.40875E+03  7.58311E+03 -4.07146E+02  1.03020E+04 -7.13593E+03  5.96759E+03 -7.79126E+03 -8.72344E+02
 -7.26179E+03 -6.93286E+03 -1.13091E+03 -7.39458E+03  3.81173E+03 -6.08520E+03  4.62858E+03 -3.03132E+03
  3.67071E+03  7.61931E+02 -4.59048E+02  1.62591E+03  3.41698E+02 -8.97203E+02  9.37098E+02 -3.57581E+03
  6.69991E+03 -2.15769E+03  8.77099E+03  9.22522E+02  8.81835E+03  5.77924E+03  7.00860E+03  1.17299E+04
 -2.31884E+03  1.34046E+04 -1.17954E+04  1.02347E+04 -1.47474E+04  1.84417E+03 -1.17334E+04 -4.70483E+03
 -6.17455E+03 -9.99887E+03 -4.22239E+02 -8.43378E+03  3.24312E+03 -4.12029E+03  2.61028E+03 -3.29613E+03
  2.02725E+03 -1.76928E+03  2.49194E+03 -2.99594E+03  4.22719E+03 -2.16690E+03  5.23231E+03  1.61511E+02
  6.36135E+03  2.02466E+03  2.34367E+03  5.20135E+03 -1.90822E+03  5.37580E+03 -6.87306E+03  4.19561E+03
 -7.66670E+03 -1.37538E+03 -4.31583E+03 -5.59606E+03 -3.44729E+02 -8.57261E+03  4.78179E+03 -8.62561E+03
  8.56156E+03 -5.04397E+03  1.05834E+04  1.08436E+03  7.74921E+03  7.20597E+03  1.17230E+03  9.57541E+03
 -3.71867E+03  8.31151E+03 -5.45829E+03  3.18301E+03 -3.46805E+03 -1.40157E+03 -1.48317E+03 -1.20982E+03
 -7.52800E+02  2.51079E+02 -1.32051E+03  2.43120E+03 -3.59013E+03  1.44719E+03 -5.81039E+03 -5.59550E+02
 -3.60472E+03 -5.96866E+03  5.55954E+02 -7.86956E+03  4.82450E+03 -7.06658E+03  7.10094E+03 -1.82297E+03
  7.25222E+03  3.92909E+03  3.33772E+03  6.40237E+03 -1.35435E+03  7.73236E+03 -5.08954E+03  4.57058E+03
 -6.79596E+03  5.02445E+02 -5.57751E+03 -4.50596E+03 -8.17146E+02 -5.94889E+03  3.07098E+03 -4.47503E+03
  4.61965E+03 -1.65766E+03  3.09951E+03  7.25527E+02  1.07062E+03  2.32525E+03  1.30735E+03  8.26558E+02
  1.85269E+03  3.45291E+02  1.91815E+03  1.26346E+03  2.05775E+03  3.21971E+03  2.08196E+03  3.86727E+03
 -1.71908E+03  5.50797E+03 -4.66561E+03  6.43635E+03 -6.66119E+03  1.86397E+03 -7.54428E+03 -2.21728E+03
 -3.30506E+03 -7.21511E+03  1.12864E+03 -8.35373E+03  4.11245E+03 -4.72705E+03  5.70265E+03 -1.23085E+03
  4.57780E+03  2.85401E+03  9.67887E+02  4.23784E+03 -1.86580E+03  2.68955E+03 -2.58829E+03 -8.03686E+01
 -1.16320E+03 -2.93871E+03  1.75306E+03 -3.19948E+03  2.83208E+03 -1.75028E+03  2.68354E+03  7.50943E+02
  1.44240E+03  1.04893E+03  9.95320E+02  5.42165E+02 -6.22970E+02  9.55112E+02  1.63035E+03 -3.93474E+02
  6.99377E+02 -6.98918E+02  3.17657E+03  1.05472E+03  1.19724E+03  4.06215E+03 -6.29160E+02  4.80471E+03
 -3.12855E+03  2.74976E+03 -4.36461E+03  1.10937E+03 -3.62709E+03 -1.47998E+03 -1.01838E+03 -2.24472E+03
  1.68900E+02 -2.59023E+03  1.58463E+03 -1.42680E+03  1.21149E+03  1.56677E+03 -7.70841E+02  2.52458E+03
 -2.76533E+03  1.32054E+03 -3.17145E+03 -2.36885E+03 -1.61828E+03 -3.88913E+03  2.24198E+02 -3.60604E+03
  1.62517E+03 -1.82919E+03  2.42555E+03 -2.69802E+02  2.44609E+03  7.61580E+02  5.47272E+02  2.03129E+03
 -1.01934E+03  3.81220E+02 -1.84307E+03 -8.81304E+02  1.13587E+03 -2.27022E+03  3.48366E+03 -2.19954E+03
  3.42734E+03  3.24152E+02  4.98668E+03  2.25907E+03  1.55373E+03  4.06783E+03 -1.35865E+03  3.66433E+03
 -3.37612E+03  1.45252E+03 -3.65437E+03 -3.42244E+02 -2.01688E+03 -2.71940E+03  7.66370E+02 -2.16805E+03
  2.90863E+03 -9.08481E+02  2.14169E+03  1.06828E+03  6.33745E+02  2.48680E+03 -6.89861E+01  2.20295E+03
 -1.18327E+03  1.55783E+03 -6.19670E+02  4.79540E+02 -5.39904E+01  5.42012E+02 -9.68321E+02  8.35319E+02
 -1.14992E+03  1.94978E+03 -3.40656E+03  1.03524E+03 -4.09911E+03  5.90795E+02 -4.74655E+03 -2.42881E+03
 -2.31394E+03 -5.00577E+03  7.91424E+02 -5.98135E+03  3.16518E+03 -5.18799E+03  5.77980E+03 -2.06432E+03
  5.62056E+03  7.79886E+02  3.14741E+03  3.79214E+03 -1.54575E+02  3.99876E+03 -1.86947E+03  3.09046E+03
 -2.30115E+03  1.46103E+03 -1.70989E+03 -4.79729E+02 -6.29870E+02 -4.63882E+01 -6.74242E+02  4.12886E+00
 -1.23203E+03 -7.47373E+01 -1.06534E+03 -1.95210E+02 -1.42950E+02 -8.94219E+02 -3.38343E+02 -1.81746E+03
  2.12069E+03 -1.53211E+03  1.92279E+03 -6.17675E+01  2.70511E+03  2.16255E+03  2.61729E+02  3.89030E+03
 -1.87846E+03  4.92662E+03 -3.97610E+03  2.82563E+03 -4.71737E+03 -4.95709E+02 -3.61655E+03 -2.68380E+03
 -1.52955E+03 -3.75108E+03  9.80733E+02 -3.42530E+03  2.35651E+03 -1.70635E+03  2.09726E+03  2.53000E+02
  1.72621E+03  8.63746E+02  1.67547E+02  1.00458E+03 -3.91747E+02 -2.98756E+02 -7.88379E+01 -7.83743E+02
  1.42259E+03 -3.97008E+02  1.19791E+03  7.07475E+02  9.22048E+02  1.50702E+03  3.49380E+02  1.69328E+03
 -1.43930E+03  1.47697E+03 -2.31330E+03  1.24432E+01 -2.39537E+03 -1.62537E+03 -1.59509E+02 -2.92826E+03
  1.27343E+03 -2.50193E+03  2.26765E+03 -6.42161E+02  2.68276E+03 -1.61515E+02  1.67976E+03  2.23999E+03
  7.56726E+02  2.17718E+03 -8.50147E+02  2.07880E+03 -1.47646E+03  1.28092E+03 -1.10176E+03  2.75453E+02
 -4.26684E+02 -1.75393E+01 -8.04821E+02  8.19768E+01 -1.30347E+03  3.73456E+02 -1.66937E+03 -4.52426E+02
 -1.86412E+03 -5.05679E+02 -5.14400E+02 -2.52662E+03  1.47006E+03 -3.13114E+03  2.03016E+03 -1.08709E+03
  2.44837E+03  3.99636E+02  6.02870E+02  1.44040E+03 -3.13267E+02  2.22042E+03 -1.42216E+03  1.49660E+03
