 $NMID ID='MM_0lb_SNR800_7hz_g60_51.RAW', FMTDAT='(8E13.5)'
 TRAMP=1., VOLUME=1. $END
  3.09594E+05  5.40024E+02  3.38416E+05  2.50761E+05  8.53892E+04  3.38828E+05 -1.32046E+05  2.52610E+05
 -1.91074E+05  8.45039E+04 -1.12687E+05 -3.25718E+04 -4.57867E+02 -5.04960E+04  5.41581E+04 -1.36467E+02
  3.55370E+04  5.29511E+04 -1.64579E+04  7.67205E+04 -6.13694E+04  6.48728E+04 -8.62058E+04  3.32437E+04
 -8.31976E+04 -1.22342E+04 -5.87670E+04 -5.30772E+04 -1.49352E+04 -7.16508E+04  2.85454E+04 -4.73141E+04
  4.17412E+04  3.45119E+03  1.69831E+04  4.89977E+04 -3.49319E+04  4.88791E+04 -6.91164E+04  3.55496E+02
 -5.63611E+04 -5.86596E+04 -7.43809E+03 -7.98309E+04  3.50512E+04 -5.80956E+04  5.09488E+04 -1.89093E+04
  4.63093E+04  1.18649E+04  3.36143E+04  2.72790E+04  1.61131E+04  3.12933E+04 -6.74334E+03  2.79856E+04
 -2.24937E+04  1.17896E+04 -1.72612E+04 -6.42181E+03  7.86883E+03 -7.34719E+03  2.45062E+04  1.46929E+04
  7.32494E+03  3.89223E+04 -3.52449E+04  3.81420E+04 -6.67639E+04  1.81461E+03 -5.97345E+04 -4.53571E+04
 -1.22991E+04 -6.73785E+04  4.24121E+04 -4.88431E+04  6.30900E+04 -2.47390E+03  3.82928E+04  3.61296E+04
 -5.08478E+03  4.15222E+04 -3.26464E+04  2.01679E+04 -3.50646E+04 -3.06239E+03 -2.04357E+04 -1.24425E+04
 -1.03206E+04 -1.57937E+04 -1.41856E+02 -2.08897E+04  9.20711E+03 -2.35271E+04  1.67884E+04 -1.22489E+04
  1.01128E+04  6.74660E+03 -1.19567E+04  1.28324E+04 -2.43034E+04 -7.59014E+03 -9.12344E+03 -3.97522E+04
  2.64705E+04 -4.87080E+04  5.44723E+04 -2.13735E+04  5.10778E+04  2.15108E+04  1.85464E+04  4.86634E+04
 -1.69906E+04  3.77225E+04 -2.93281E+04  2.66247E+03 -1.25518E+04 -3.07367E+04  2.15510E+04 -3.86911E+04
  4.72368E+04 -1.28314E+04  4.33628E+04  2.56463E+04  2.38572E+04  5.37865E+04 -8.70286E+03  5.91508E+04
 -3.78112E+04  4.09604E+04 -5.05806E+04  1.18682E+04 -5.05997E+04 -1.99067E+04 -2.73572E+04 -4.46852E+04
  8.21715E+03 -4.48807E+04  3.57418E+04 -1.87736E+04  3.35951E+04  1.17389E+04  6.14556E+03  2.16457E+04
 -1.41466E+04  9.89044E+03 -1.19935E+04 -7.67443E+03  5.64158E+03 -1.17263E+04  1.92006E+04  5.08453E+03
  1.56335E+04  2.27416E+04 -5.34538E+03  2.84024E+04 -2.40701E+04  1.58670E+04 -3.34641E+04 -1.44478E+03
 -2.80402E+04 -1.91091E+04 -1.41643E+04 -2.79005E+04  4.76616E+03 -2.98255E+04  2.25526E+04 -2.61925E+04
  3.58354E+04 -1.54082E+04  4.12009E+04  6.26375E+03  2.89382E+04  2.66447E+04  4.80640E+03  4.44501E+04
 -2.09141E+04  3.63605E+04 -3.28293E+04  1.25621E+04 -2.34210E+04 -1.02540E+04 -5.20824E+03 -1.25428E+04
 -2.27680E+02  1.81527E+01 -9.66172E+03  9.11753E+03 -2.25669E+04  5.06455E+03 -2.22024E+04 -1.11947E+04
 -1.33168E+04 -2.60729E+04  6.76732E+03 -3.11831E+04  2.06684E+04 -2.19327E+04  2.55277E+04 -1.70697E+03
  1.63473E+04  1.82062E+04 -1.80151E+03  2.59358E+04 -1.87169E+04  1.51802E+04 -2.64883E+04 -5.21632E+03
 -1.90382E+04 -2.33333E+04 -2.56819E+03 -3.14220E+04  1.38448E+04 -2.62785E+04  2.55686E+04 -1.29940E+04
  2.43685E+04 -9.45662E+02  1.81898E+04  5.84332E+03  1.03818E+04  1.75453E+03  1.38167E+04 -2.07086E+03
  2.47427E+04  2.63597E+03  2.93852E+04  2.07017E+04  2.04913E+04  4.25625E+04 -2.52496E+03  5.06334E+04
 -2.91370E+04  4.24020E+04 -4.80487E+04  2.25433E+04 -5.17890E+04 -4.05959E+03 -4.21937E+04 -3.03522E+04
 -1.57387E+04 -4.35578E+04  1.54524E+04 -3.71613E+04  3.22632E+04 -1.72890E+04  2.76329E+04  9.94881E+03
  8.41237E+03  2.14356E+04 -1.32354E+04  1.73640E+04 -2.28458E+04  2.37907E+03 -1.73610E+04 -1.49223E+04
 -4.09393E+01 -2.19589E+04  1.17702E+04 -1.61940E+04  1.53262E+04 -1.56280E+03  4.41890E+03  1.06128E+04
 -1.02812E+04  5.63899E+03 -1.13951E+04 -7.76430E+03 -2.69887E+03 -2.08852E+04  1.35450E+04 -2.35795E+04
  2.68258E+04 -1.39718E+04  3.15549E+04  3.62228E+03  2.77892E+04  2.24046E+04  1.29099E+04  3.51400E+04
 -7.15754E+03  3.67077E+04 -2.42543E+04  2.30522E+04 -2.67676E+04  4.17076E+03 -1.80778E+04 -7.54720E+03
 -7.22279E+03 -8.71278E+03 -8.28383E+02  3.64369E+02 -3.55854E+03  4.09308E+03 -8.80927E+03  6.05558E+03
 -1.66104E+04 -1.65454E+03 -1.67447E+04 -1.34309E+04 -7.01332E+03 -2.26110E+04  7.45556E+03 -1.86361E+04
  1.49974E+04 -7.54067E+03  1.04034E+04  5.20678E+03 -7.87778E+02  7.53249E+03 -9.92282E+03 -2.33364E+02
 -9.23352E+03 -1.19792E+04 -1.36747E+03 -1.91417E+04  1.12691E+04 -2.01141E+04  2.38203E+04 -1.04248E+04
  2.85613E+04  3.06682E+03  2.05450E+04  1.76842E+04  4.16803E+03  2.29631E+04 -1.15557E+04  1.84056E+04
 -1.55692E+04  5.27619E+03 -7.70658E+03 -4.36800E+03  2.38091E+03 -5.92857E+03  9.70463E+03 -1.09697E+03
  8.58388E+03  8.23212E+03  1.27038E+03  1.49058E+04 -1.09712E+04  1.44651E+04 -1.85425E+04  3.37309E+03
 -1.32275E+04 -1.03176E+04  1.21557E+02 -1.62046E+04  1.12429E+04 -8.16814E+03  1.15295E+04  4.46767E+03
  3.10359E+03  1.31779E+04 -1.01858E+04  1.45503E+04 -1.75741E+04  6.77716E+03 -1.75706E+04 -6.79329E+03
 -1.00068E+04 -1.99088E+04  4.98363E+03 -2.28614E+04  1.99549E+04 -1.34960E+04  2.12234E+04  3.44841E+03
  1.23562E+04  1.69599E+04 -2.14212E+03  1.96002E+04 -1.47644E+04  1.09205E+04 -1.60320E+04 -1.66714E+03
 -1.26969E+04 -1.27389E+04 -1.52924E+03 -1.54191E+04  8.24152E+03 -1.13330E+04  9.72548E+03 -3.96044E+03
  5.85389E+03  3.12997E+03 -1.32955E+03  2.08884E+03 -1.18201E+03 -4.43443E+03  3.26008E+03 -9.81778E+03
  1.50319E+04 -6.77760E+03  2.12056E+04  2.35641E+03  2.02068E+04  1.45416E+04  1.26916E+04  2.71418E+04
 -6.68970E+03  3.09058E+04 -2.56013E+04  2.25146E+04 -3.29922E+04  4.24019E+03 -2.72479E+04 -1.22021E+04
 -1.31514E+04 -2.22580E+04 -2.50395E+02 -1.88908E+04  6.30726E+03 -1.05758E+04  6.72659E+03 -6.61714E+03
  5.30568E+03 -4.02436E+03  4.92581E+03 -4.21673E+03  6.87906E+03 -4.60056E+03  1.00289E+04 -2.38040E+03
  1.32435E+04  3.06836E+03  8.24606E+03  1.16545E+04 -2.65529E+03  1.58736E+04 -1.49078E+04  1.13850E+04
 -1.94472E+04 -1.53488E+03 -1.29340E+04 -1.34406E+04 -2.62640E+03 -2.03783E+04  1.16023E+04 -2.08380E+04
  2.16063E+04 -1.14086E+04  2.54550E+04  3.98168E+03  1.76851E+04  1.83021E+04  2.43726E+03  2.36526E+04
 -9.45981E+03  1.88580E+04 -1.39923E+04  6.60531E+03 -9.46357E+03 -2.20338E+03 -4.10214E+03 -3.01702E+03
 -1.95882E+03 -7.72931E+02 -2.89730E+03  3.65131E+03 -7.59746E+03  3.05834E+03 -1.33249E+04 -2.04256E+03
 -1.00097E+04 -1.31185E+04 -6.31949E+02 -1.90983E+04  1.18480E+04 -1.80211E+04  2.03093E+04 -5.77880E+03
  1.98860E+04  8.99854E+03  9.27127E+03  1.83380E+04 -4.16929E+03  2.02824E+04 -1.48405E+04  1.25311E+04
 -1.91384E+04  7.55881E+02 -1.44246E+04 -1.22049E+04 -1.34777E+03 -1.66909E+04  8.72136E+03 -1.24237E+04
  1.24340E+04 -3.69077E+03  8.98524E+03  3.71095E+03  3.22893E+03  6.01599E+03  1.78862E+03  2.20040E+03
  3.42520E+03  1.63726E+03  4.72538E+03  2.78744E+03  6.14574E+03  6.48688E+03  4.78375E+03  1.19227E+04
 -3.82437E+03  1.65463E+04 -1.44060E+04  1.55794E+04 -2.13616E+04  3.83547E+03 -2.16634E+04 -9.87997E+03
 -1.05708E+04 -2.13169E+04  2.60937E+03 -2.20718E+04  1.28560E+04 -1.45202E+04  1.71907E+04 -3.61497E+03
  1.30800E+04  7.71549E+03  3.10773E+03  1.18917E+04 -6.43462E+03  8.14837E+03 -8.94722E+03 -1.74592E+03
 -4.28846E+03 -9.03915E+03  5.22903E+03 -9.33188E+03  9.13070E+03 -4.47173E+03  8.59580E+03  1.79746E+03
  5.05536E+03  4.50827E+03  1.85773E+03  4.29066E+03 -8.93309E+02  2.77671E+03  1.50909E+03 -8.01934E+02
  4.27894E+03 -1.48796E+03  8.37549E+03  3.66174E+03  5.58839E+03  1.13210E+04 -1.64798E+03  1.46765E+04
 -1.01216E+04  1.03075E+04 -1.39623E+04  2.52494E+03 -1.19095E+04 -4.19918E+03 -5.33388E+03 -8.98354E+03
  1.28300E+03 -8.34840E+03  5.24985E+03 -4.05350E+03  4.36532E+03  4.06316E+03 -2.04465E+03  6.93185E+03
 -8.68131E+03  4.43312E+03 -1.05669E+04 -4.75900E+03 -5.74638E+03 -1.15783E+04  1.91969E+03 -1.24334E+04
  7.36700E+03 -7.49022E+03  8.79610E+03 -1.26226E+03  7.24847E+03  3.43884E+03  6.99195E+02  6.21195E+03
 -4.59341E+03  2.36536E+03 -5.22541E+03 -4.31677E+03  1.86334E+03 -9.94765E+03  1.11281E+04 -7.57698E+03
  1.46433E+04  6.78316E+02  1.29646E+04  9.91959E+03  3.87372E+03  1.51228E+04 -5.43020E+03  1.37742E+04
 -1.25712E+04  6.79620E+03 -1.24376E+04 -2.27144E+03 -6.70292E+03 -9.42554E+03  2.56072E+03 -9.67116E+03
  8.92772E+03 -4.45319E+03  8.37550E+03  3.76504E+03  2.97264E+03  7.77944E+03 -1.39351E+03  7.30948E+03
 -4.08412E+03  4.86081E+03 -3.71384E+03  1.03080E+03 -1.59442E+03  1.22015E+03 -2.11104E+03  2.64969E+03
 -3.62750E+03  5.52595E+03 -9.86777E+03  5.00223E+03 -1.49210E+04  3.79737E+02 -1.62735E+04 -9.75889E+03
 -8.81631E+03 -1.97555E+04  4.05070E+03 -2.30106E+04  1.46253E+04 -1.72881E+04  2.15133E+04 -6.53377E+03
  2.05677E+04  4.67714E+03  1.29438E+04  1.40848E+04  1.46037E+03  1.59666E+04 -6.40153E+03  1.17586E+04
 -8.79136E+03  4.46198E+03 -5.78871E+03 -1.87391E+03 -1.63009E+03 -1.60317E+03 -8.07191E+02 -1.76581E+02
 -2.16575E+03  1.02125E+02 -2.84067E+03 -4.13399E+02 -9.78166E+02 -3.87080E+03  2.93252E+02 -5.61378E+03
  7.15594E+03 -5.26251E+03  9.58180E+03 -3.17964E+02  1.10760E+04  8.35552E+03  3.77165E+03  1.59626E+04
 -7.76428E+03  1.79141E+04 -1.73522E+04  1.06830E+04 -1.98670E+04 -8.61627E+02 -1.47590E+04 -1.22163E+04
 -6.25989E+03 -1.69669E+04  4.52560E+03 -1.49926E+04  1.09482E+04 -8.10230E+03  1.16284E+04  1.73770E+02
  5.70246E+03  5.59269E+03 -1.16174E+03  4.69128E+03 -3.33320E+03 -5.78883E+02 -1.19106E+02 -4.02737E+03
  5.14547E+03 -2.67857E+03  6.45505E+03  1.86632E+03  4.67214E+03  6.48481E+03 -1.34448E+02  8.74446E+03
 -7.27121E+03  7.53065E+03 -1.12958E+04  5.68099E+02 -1.01188E+04 -8.05288E+03 -1.91601E+03 -1.36429E+04
  8.24643E+03 -1.17609E+04  1.36453E+04 -3.78933E+03  1.26488E+04  4.01003E+03  7.32792E+03  1.00219E+04
  1.29104E+03  1.11851E+04 -5.13354E+03  9.41851E+03 -6.49365E+03  5.13134E+03 -6.09240E+03  1.00947E+03
 -3.22996E+03 -2.24769E+02 -3.13330E+03  1.06938E+03 -5.76948E+03  2.03194E+03 -9.05233E+03 -1.63032E+03
 -7.62002E+03 -6.41015E+03 -1.88056E+03 -1.13320E+04  5.08478E+03 -1.17979E+04  1.04635E+04 -6.11609E+03
  1.15010E+04  1.35778E+03  6.70805E+03  8.02505E+03 -7.35847E+02  1.20675E+04 -8.91848E+03  7.30691E+03
