 $NMID ID='MM_0lb_SNR800_19hz_g50_66.RAW', FMTDAT='(8E13.5)'
 TRAMP=1., VOLUME=1. $END
  3.09782E+05  3.90488E+02  3.37452E+05  2.50241E+05  8.43498E+04  3.37210E+05 -1.32315E+05  2.50327E+05
 -1.89686E+05  8.27156E+04 -1.11125E+05 -3.28066E+04  1.50322E+03 -5.04116E+04  5.39832E+04  7.98897E+01
  3.48413E+04  5.28645E+04 -1.69056E+04  7.49946E+04 -6.05310E+04  6.28147E+04 -8.29688E+04  3.16341E+04
 -7.96864E+04 -1.09915E+04 -5.62385E+04 -5.02695E+04 -1.49986E+04 -6.83508E+04  2.68749E+04 -4.52869E+04
  3.91165E+04  3.75835E+03  1.55659E+04  4.68687E+04 -3.38616E+04  4.64226E+04 -6.54637E+04 -5.05793E+02
 -5.18772E+04 -5.58800E+04 -6.27189E+03 -7.52341E+04  3.30741E+04 -5.33220E+04  4.62992E+04 -1.63782E+04
  4.17775E+04  1.11458E+04  3.06469E+04  2.44419E+04  1.59314E+04  2.84420E+04 -4.59503E+03  2.67834E+04
 -2.16189E+04  1.28264E+04 -1.90318E+04 -3.98469E+03  4.22432E+03 -7.60337E+03  2.13579E+04  1.08310E+04
  7.45990E+03  3.33903E+04 -3.04313E+04  3.40229E+04 -6.12723E+04  2.05832E+03 -5.54330E+04 -4.11968E+04
 -1.23638E+04 -6.07623E+04  3.80785E+04 -4.33549E+04  5.54732E+04 -1.85183E+03  3.20758E+04  3.07685E+04
 -6.38631E+03  3.32783E+04 -2.82417E+04  1.34572E+04 -2.78154E+04 -5.09695E+03 -1.44596E+04 -9.96682E+03
 -7.09882E+03 -1.15325E+04 -1.05522E+03 -1.67872E+04  6.66970E+03 -2.25370E+04  1.50200E+04 -1.39122E+04
  1.22690E+04  4.40302E+03 -6.40774E+03  1.28208E+04 -1.93744E+04 -2.49600E+03 -8.09763E+03 -3.06036E+04
  2.07870E+04 -4.07330E+04  4.48683E+04 -1.86667E+04  4.19156E+04  1.83183E+04  1.42702E+04  4.16249E+04
 -1.50828E+04  3.11538E+04 -2.34367E+04  1.13338E+03 -8.18476E+03 -2.63642E+04  2.03221E+04 -3.12396E+04
  3.81938E+04 -7.15787E+03  3.15599E+04  2.28410E+04  1.54110E+04  4.25160E+04 -7.85228E+03  4.54083E+04
 -2.85982E+04  2.99352E+04 -3.73860E+04  8.13567E+03 -3.84434E+04 -1.51692E+04 -2.10431E+04 -3.48292E+04
  6.71872E+03 -3.40470E+04  2.92475E+04 -1.24991E+04  2.69180E+04  1.07180E+04  3.19070E+03  1.76973E+04
 -1.29982E+04  7.40691E+03 -9.46532E+03 -7.39727E+03  6.07153E+03 -1.00695E+04  1.71741E+04  6.46303E+03
  1.23529E+04  2.15785E+04 -6.68773E+03  2.32917E+04 -2.13011E+04  8.93971E+03 -2.51425E+04 -6.19117E+03
 -1.67643E+04 -1.62091E+04 -5.69977E+03 -1.70190E+04  3.66195E+03 -1.47606E+04  1.25151E+04 -1.43085E+04
  2.12209E+04 -1.18263E+04  2.80062E+04  1.00908E+03  2.11624E+04  1.65661E+04  3.98333E+03  3.27045E+04
 -1.60083E+04  2.76137E+04 -2.57829E+04  9.31630E+03 -1.99466E+04 -1.04449E+04 -3.94701E+03 -1.37198E+04
  2.45577E+03 -4.23030E+03 -2.72176E+03  5.39714E+03 -1.31400E+04  5.05679E+03 -1.34491E+04 -4.71502E+03
 -8.47789E+03 -1.54481E+04  4.33668E+03 -1.92459E+04  1.24327E+04 -1.41879E+04  1.45616E+04 -1.43672E+03
  8.93775E+03  1.03495E+04 -4.87821E+02  1.55452E+04 -1.02433E+04  8.56475E+03 -1.55297E+04 -3.47061E+03
 -1.14731E+04 -1.40996E+04 -1.52733E+03 -1.89784E+04  8.52026E+03 -1.53023E+04  1.60479E+04 -7.27476E+03
  1.44355E+04  9.62835E+02  1.04794E+04  3.86299E+03  5.14744E+03  5.93857E+02  7.04422E+03 -1.23192E+03
  1.35764E+04  2.63581E+03  1.46773E+04  1.28127E+04  9.30378E+03  2.45245E+04 -3.17379E+03  2.66530E+04
 -1.56187E+04  2.02628E+04 -2.43179E+04  9.46010E+03 -2.46491E+04 -1.66465E+03 -2.10982E+04 -1.42133E+04
 -9.82763E+03 -2.03380E+04  6.87406E+03 -1.89543E+04  1.65558E+04 -1.08795E+04  1.54449E+04  3.46299E+03
  6.50573E+03  1.12629E+04 -6.81235E+03  1.01630E+04 -1.34457E+04  2.52951E+03 -1.03052E+04 -7.98833E+03
 -1.90299E+02 -1.23655E+04  6.18480E+03 -9.55938E+03  7.85261E+03 -1.18380E+03  1.47028E+03  4.95925E+03
 -5.66199E+03  1.22686E+03 -3.49734E+03 -4.52898E+03  6.47335E+02 -9.77100E+03  7.83986E+03 -1.01316E+04
  1.20264E+04 -4.73408E+03  1.16752E+04  2.57955E+03  1.02062E+04  9.36893E+03  4.86245E+03  1.36609E+04
 -1.83890E+03  1.56222E+04 -9.59384E+03  9.86477E+03 -1.08130E+04  2.97656E+03 -8.45912E+03 -1.64203E+03
 -4.54629E+03 -3.46349E+03 -8.30428E+02  1.33781E+03 -2.00582E+03  1.76985E+03 -3.86257E+03  3.35808E+03
 -7.86429E+03 -7.19385E+02 -8.73409E+03 -7.12942E+03 -3.74168E+03 -1.15016E+04  3.66230E+03 -8.63678E+03
  6.89746E+03 -3.58885E+03  5.30826E+03  1.85257E+03  5.84946E+02  3.09223E+03 -3.48778E+03 -6.17466E+01
 -3.27920E+03 -5.04674E+03 -7.16105E+02 -6.94638E+03  3.95165E+03 -7.70937E+03  9.86184E+03 -3.95640E+03
  1.14041E+04  4.12636E+02  8.65508E+03  5.78562E+03  1.95275E+03  8.55641E+03 -5.34003E+03  8.12113E+03
 -6.92643E+03  2.70407E+03 -3.38664E+03 -1.20396E+03  1.29309E+03 -1.81378E+03  4.56776E+03 -7.23446E+02
  3.87274E+03  3.31383E+03  1.04064E+03  6.37559E+03 -4.23552E+03  6.15774E+03 -7.74001E+03  1.62655E+03
 -4.76372E+03 -3.48562E+03  4.02776E+02 -6.86604E+03  3.94517E+03 -3.09154E+03  3.30957E+03  1.02578E+03
  5.01679E+02  3.31033E+03 -3.95949E+03  4.53412E+03 -4.90820E+03  2.54634E+03 -4.48385E+03 -8.83134E+02
 -2.76923E+03 -5.58483E+03  1.11959E+03 -6.97236E+03  5.56076E+03 -4.37336E+03  6.35814E+03  7.98716E+02
  4.35216E+03  5.17335E+03  1.98177E+02  6.94501E+03 -4.74161E+03  4.05344E+03 -4.97617E+03 -2.17514E+02
 -5.98869E+03 -5.04273E+03 -1.46651E+03 -4.78212E+03  2.41884E+03 -4.20756E+03  2.91883E+03 -2.69413E+03
  2.57401E+03 -9.25979E+00 -1.25905E+02  1.42561E+03  5.62912E+02 -2.67116E+01  3.08928E+02 -1.71425E+03
  3.81747E+03 -4.56481E+02  4.99042E+03  6.75331E+02  5.40905E+03  2.69963E+03  5.21381E+03  7.18932E+03
 -1.22519E+03  8.09314E+03 -7.48202E+03  6.29255E+03 -9.36538E+03  1.10026E+03 -7.53550E+03 -2.35153E+03
 -4.05216E+03 -6.02221E+03 -6.46810E+02 -4.99059E+03  2.31443E+03 -2.03338E+03  1.70154E+03 -2.02836E+03
  1.34920E+03 -1.46062E+03  2.08963E+03 -2.41512E+03  3.50664E+03 -1.28248E+03  3.79146E+03  4.67623E+02
  4.19023E+03  9.25400E+02  6.81954E+02  3.07398E+03 -1.54864E+03  2.58001E+03 -4.12501E+03  2.54973E+03
 -4.91890E+03 -9.15116E+02 -1.29526E+03 -3.23053E+03  7.19948E+02 -4.58866E+03  3.08729E+03 -5.18812E+03
  5.09459E+03 -3.20277E+03  6.18066E+03  1.05633E+02  4.72013E+03  4.20166E+03  1.03864E+03  6.08348E+03
 -2.10345E+03  5.81123E+03 -3.32157E+03  1.98613E+03 -1.70077E+03 -1.07438E+03 -9.82515E+01 -5.58152E+02
 -4.00906E+02  2.61046E+02 -8.49560E+02  2.03770E+03 -2.45090E+03  9.98851E+02 -3.62054E+03 -3.90373E+02
 -1.45435E+03 -3.94428E+03  7.14526E+02 -4.47394E+03  2.50277E+03 -4.17248E+03  3.32172E+03 -8.44095E+02
  3.74554E+03  2.37810E+03  1.49741E+03  3.09398E+03 -7.22569E+02  3.84617E+03 -2.29567E+03  2.24944E+03
 -3.55730E+03  4.92550E+02 -3.19942E+03 -2.18717E+03 -3.86420E+02 -3.07819E+03  1.52658E+03 -2.05818E+03
  2.49564E+03 -1.40050E+03  1.47510E+03  7.50129E+01  5.46239E+02  1.82130E+03  8.96167E+02  3.51556E+02
  1.67822E+03  4.45462E+02  1.17051E+03  1.00386E+03  9.55225E+02  1.95395E+03  1.27026E+03  1.61202E+03
 -1.29767E+03  2.75703E+03 -2.17987E+03  3.92503E+03 -2.47747E+03  1.36694E+03 -4.10782E+03 -4.45855E+02
 -1.69260E+03 -3.21421E+03  5.44627E+02 -4.33012E+03  1.86994E+03 -2.48155E+03  2.96507E+03 -9.95011E+02
  2.41924E+03  1.86145E+03  1.29231E+02  2.12416E+03 -4.64678E+02  1.16776E+03 -9.03721E+02 -2.93998E+02
 -5.39029E+02 -1.34438E+03  1.20533E+03 -1.46195E+03  1.24927E+03 -9.66279E+02  9.81617E+02  1.97859E+02
  7.28388E+02  8.77494E+01  6.42056E+02 -4.54108E+02 -5.39790E+02  6.90842E+02  1.35752E+03 -2.69194E+02
 -4.01073E+02 -5.86935E+01  1.88006E+03  7.18249E+02  1.49108E+02  2.26353E+03 -3.88310E+02  2.61401E+03
 -1.53703E+03  4.94193E+02 -1.97204E+03  4.85698E+02 -1.84225E+03 -7.05359E+02 -2.44735E+02 -1.01842E+03
  6.56267E+02 -1.37540E+03  8.16867E+02 -4.06656E+02  3.20882E+02  1.44942E+03 -5.60998E+02  8.98014E+02
 -1.64954E+03  8.91007E+02 -8.94367E+02 -1.21646E+03 -3.25612E+02 -1.69823E+03  1.48697E+02 -1.50533E+03
  4.68688E+02 -4.09894E+02  7.56375E+02  5.98719E+01  1.23761E+03 -1.80186E+02  5.13660E+02  1.26315E+03
 -1.39375E+02  8.64880E+01 -6.62657E+02 -3.27853E+02  4.95283E+02 -5.00002E+02  1.75419E+03 -6.30250E+02
  1.22212E+03 -1.45099E+02  2.34845E+03  4.76538E+02  1.06703E+03  1.71943E+03 -6.47543E+02  1.32208E+03
 -1.39101E+03 -8.23498E+00 -1.13092E+03 -7.69231E+01 -9.37512E+02 -1.28949E+03  8.66163E+01 -2.55420E+02
  1.45555E+03 -8.72719E+02  5.48989E+02  5.90614E+02  2.80477E+02  1.05942E+03  5.35472E+02  8.47993E+02
 -3.13288E+02  1.29638E+03 -3.02002E+02  2.60695E+02  1.03239E+02  2.76276E+02 -3.82914E+02  3.47601E+02
 -8.33753E+02  9.23090E+02 -1.64612E+03  5.79698E+02 -1.39963E+03  1.14340E+02 -1.96514E+03 -8.23804E+02
 -1.06645E+03 -1.95376E+03  4.81800E+02 -2.50383E+03  8.51537E+02 -2.19043E+03  2.44302E+03 -1.07721E+03
  1.89708E+03 -2.66161E+02  8.69031E+02  1.49311E+03 -7.52037E+02  1.18153E+03 -3.51485E+02  1.30042E+03
 -8.41559E+02  8.18582E+02 -1.41522E+02 -3.03654E+02 -3.57119E+02  5.23612E+02 -5.62691E+02  1.01875E+02
 -7.00885E+02 -2.94246E+02 -6.52492E+02 -6.11837E+01  4.57963E+02 -3.01179E+02 -4.66247E+02 -8.00750E+02
  1.25535E+03 -5.53787E+02  3.65517E+02  2.49570E+02  1.20957E+03  9.77219E+02 -4.79161E+02  1.20015E+03
 -8.54531E+02  2.15266E+03 -1.74230E+03  1.04734E+03 -1.39699E+03 -2.00528E+02 -9.40402E+02 -1.21652E+03
 -7.48423E+02 -1.03514E+03  2.10031E+02 -8.12012E+02  6.16084E+02 -3.41275E+02  4.04911E+02  5.51812E+02
  8.09890E+02  5.55272E+02 -9.79729E+01  6.68711E+02 -4.43679E+02  1.94611E+02 -2.27826E+02 -4.69472E+02
  4.13536E+02  1.76232E+02 -8.16825E+01  3.06769E+02  5.95848E+01  1.50941E+02  6.52091E+02  7.82849E+01
 -4.80615E+02  5.81611E+02 -2.60902E+02  1.31688E+02 -6.68563E+02 -2.57721E+02  1.72988E+02 -7.62929E+02
  2.93803E+02 -5.20924E+02  1.17080E+02 -2.87995E+01  5.63884E+02 -6.11163E+02  4.50434E+02  7.05318E+02
  3.38392E+02  4.26813E+02 -1.49042E+02  4.26961E+02 -2.71915E+02  4.12198E+02 -1.48000E+02  4.55052E+02
 -3.51012E+02 -1.99131E+02 -6.24863E+02  1.50875E+02 -5.72148E+02  5.93527E+01 -7.92437E+02 -2.54682E+02
 -9.17947E+02  3.34855E+02 -5.69970E+02 -8.78870E+02  5.80591E+02 -1.66078E+03  5.80658E+02 -2.11508E+02
  6.56692E+02  1.42000E+02 -4.64378E+02  2.05545E+02 -1.57130E+02  6.78571E+02 -1.64982E+02  9.79138E+02
