 $NMID ID='MM_0lb_SNR800_17hz_g50_90.RAW', FMTDAT='(8E13.5)'
 TRAMP=1., VOLUME=1. $END
  3.10222E+05  5.10485E+02  3.37216E+05  2.50629E+05  8.44072E+04  3.37536E+05 -1.32173E+05  2.50559E+05
 -1.89933E+05  8.28350E+04 -1.11328E+05 -3.26169E+04  1.25948E+03 -5.03842E+04  5.38733E+04  5.66861E+01
  3.51099E+04  5.29886E+04 -1.71865E+04  7.50332E+04 -6.04745E+04  6.30030E+04 -8.35490E+04  3.18248E+04
 -8.02981E+04 -1.12312E+04 -5.66533E+04 -5.05823E+04 -1.53551E+04 -6.92011E+04  2.70534E+04 -4.51230E+04
  3.97415E+04  3.83584E+03  1.56626E+04  4.71017E+04 -3.42394E+04  4.68406E+04 -6.62858E+04 -5.62371E+02
 -5.27181E+04 -5.62210E+04 -6.40946E+03 -7.58498E+04  3.34243E+04 -5.37156E+04  4.70833E+04 -1.65772E+04
  4.25895E+04  1.11304E+04  3.10411E+04  2.48911E+04  1.57459E+04  2.86558E+04 -4.91593E+03  2.68875E+04
 -2.18270E+04  1.27364E+04 -1.87657E+04 -5.02054E+03  4.76960E+03 -7.65559E+03  2.18130E+04  1.14342E+04
  7.00075E+03  3.40963E+04 -3.11759E+04  3.49065E+04 -6.21863E+04  2.25928E+03 -5.60813E+04 -4.18327E+04
 -1.21928E+04 -6.20132E+04  3.87675E+04 -4.44044E+04  5.67328E+04 -2.01796E+03  3.29459E+04  3.11913E+04
 -6.61071E+03  3.45354E+04 -2.91910E+04  1.46512E+04 -2.86310E+04 -4.71148E+03 -1.54516E+04 -1.01967E+04
 -7.83656E+03 -1.20926E+04 -8.66210E+02 -1.71885E+04  6.90721E+03 -2.28997E+04  1.50206E+04 -1.36793E+04
  1.17854E+04  4.56611E+03 -7.10360E+03  1.30474E+04 -2.00837E+04 -3.29853E+03 -8.22452E+03 -3.16895E+04
  2.15325E+04 -4.16710E+04  4.59620E+04 -1.91557E+04  4.31050E+04  1.85566E+04  1.49021E+04  4.25652E+04
 -1.56665E+04  3.19794E+04 -2.41074E+04  1.35566E+03 -8.93828E+03 -2.66089E+04  2.06994E+04 -3.26269E+04
  3.92181E+04 -8.11396E+03  3.32907E+04  2.31812E+04  1.68353E+04  4.41755E+04 -7.94120E+03  4.73760E+04
 -2.98525E+04  3.15387E+04 -3.93902E+04  8.77714E+03 -4.01062E+04 -1.56949E+04 -2.22917E+04 -3.58255E+04
  6.94010E+03 -3.55461E+04  3.00818E+04 -1.37378E+04  2.78530E+04  1.08615E+04  3.24151E+03  1.84432E+04
 -1.30802E+04  7.74231E+03 -9.90119E+03 -7.63817E+03  6.07415E+03 -1.04192E+04  1.75718E+04  6.21550E+03
  1.27010E+04  2.19277E+04 -6.37520E+03  2.38577E+04 -2.16824E+04  9.90053E+03 -2.64361E+04 -5.89514E+03
 -1.81980E+04 -1.66271E+04 -6.85051E+03 -1.82001E+04  3.68557E+03 -1.66098E+04  1.36631E+04 -1.56660E+04
  2.33569E+04 -1.20675E+04  2.98298E+04  2.14087E+03  2.22790E+04  1.77174E+04  4.32057E+03  3.39719E+04
 -1.67738E+04  2.85241E+04 -2.66277E+04  9.71289E+03 -2.00264E+04 -1.03705E+04 -4.39517E+03 -1.38913E+04
  2.14601E+03 -3.65390E+03 -3.41110E+03  5.96348E+03 -1.41695E+04  5.28842E+03 -1.43929E+04 -5.81026E+03
 -9.14271E+03 -1.68414E+04  4.89073E+03 -2.07770E+04  1.34978E+04 -1.51903E+04  1.59082E+04 -1.47404E+03
  9.77464E+03  1.14946E+04 -8.25642E+02  1.70745E+04 -1.13897E+04  9.66899E+03 -1.69889E+04 -3.70943E+03
 -1.23662E+04 -1.54199E+04 -1.83412E+03 -2.04912E+04  9.37322E+03 -1.67169E+04  1.74307E+04 -7.91509E+03
  1.59200E+04  3.16309E+02  1.14585E+04  4.19106E+03  5.82562E+03  6.01960E+02  8.28813E+03 -1.14987E+03
  1.50657E+04  2.78494E+03  1.64731E+04  1.38322E+04  1.05304E+04  2.65374E+04 -3.16181E+03  2.90897E+04
 -1.70864E+04  2.28345E+04 -2.72165E+04  1.10214E+04 -2.83600E+04 -2.18101E+03 -2.35243E+04 -1.61195E+04
 -1.09928E+04 -2.30817E+04  7.67023E+03 -2.10711E+04  1.83815E+04 -1.14677E+04  1.67625E+04  4.37870E+03
  6.72846E+03  1.26697E+04 -7.48856E+03  1.14183E+04 -1.44124E+04  2.82244E+03 -1.11846E+04 -8.70899E+03
 -1.05551E+02 -1.34723E+04  6.59289E+03 -1.03918E+04  8.88201E+03 -1.46877E+03  1.63584E+03  5.60971E+03
 -6.14516E+03  1.81336E+03 -4.60339E+03 -4.87651E+03  4.05499E+02 -1.14614E+04  8.41698E+03 -1.15953E+04
  1.40972E+04 -5.67079E+03  1.40263E+04  2.94302E+03  1.23056E+04  1.07318E+04  5.83851E+03  1.63492E+04
 -2.18301E+03  1.79680E+04 -1.12500E+04  1.13366E+04 -1.27481E+04  3.07908E+03 -9.37680E+03 -2.48823E+03
 -4.98106E+03 -3.81945E+03 -6.28310E+02  1.41505E+03 -1.82686E+03  2.13279E+03 -4.03974E+03  3.31199E+03
 -8.77012E+03 -5.93257E+02 -9.38788E+03 -7.65060E+03 -3.85187E+03 -1.25907E+04  4.04773E+03 -9.25803E+03
  8.16700E+03 -4.02448E+03  5.73371E+03  2.21355E+03  4.25930E+02  3.59758E+03 -4.20311E+03 -4.16513E+02
 -3.92883E+03 -5.77209E+03 -7.02320E+02 -8.48181E+03  4.75184E+03 -9.19680E+03  1.13196E+04 -4.88211E+03
  1.33084E+04  8.81256E+02  9.85075E+03  7.37953E+03  2.18831E+03  1.03520E+04 -5.77502E+03  9.39513E+03
 -7.81365E+03  2.73830E+03 -3.88263E+03 -1.63704E+03  1.40869E+03 -2.24234E+03  5.35259E+03 -8.80675E+02
  4.53728E+03  3.97753E+03  9.62332E+02  7.38166E+03 -5.00857E+03  7.01742E+03 -9.18917E+03  1.49213E+03
 -5.42586E+03 -4.52501E+03  3.96984E+02 -7.74601E+03  4.18776E+03 -3.76413E+03  4.24544E+03  1.40974E+03
  6.72743E+02  4.05331E+03 -4.48233E+03  5.96725E+03 -5.71439E+03  2.74343E+03 -5.63862E+03 -1.62150E+03
 -3.74283E+03 -7.25843E+03  1.78913E+03 -8.43818E+03  7.05971E+03 -5.35371E+03  7.50573E+03  1.12393E+03
  5.65754E+03  6.40309E+03 -3.74558E+02  7.97581E+03 -5.55957E+03  4.74751E+03 -6.16841E+03 -3.04975E+02
 -6.40880E+03 -5.71005E+03 -1.47281E+03 -5.79891E+03  2.88858E+03 -5.06952E+03  3.58227E+03 -2.87791E+03
  3.03860E+03  3.09680E+02  6.61962E+00  1.34503E+03  2.25683E+02 -5.20944E+02  4.03924E+02 -2.52450E+03
  4.83984E+03 -1.34293E+03  6.59135E+03  7.45864E+02  6.72395E+03  3.97565E+03  5.71438E+03  8.84880E+03
 -1.38205E+03  1.03643E+04 -9.09283E+03  8.17331E+03 -1.14757E+04  1.25863E+03 -8.97422E+03 -3.49500E+03
 -4.74315E+03 -7.75356E+03 -3.96509E+02 -6.05550E+03  2.43741E+03 -3.07179E+03  2.24043E+03 -2.21086E+03
  1.56295E+03 -1.83455E+03  2.32111E+03 -2.08368E+03  3.74592E+03 -1.65270E+03  4.08541E+03  1.20947E+02
  5.26124E+03  1.28039E+03  1.42861E+03  3.74997E+03 -1.74062E+03  3.59891E+03 -5.27971E+03  3.28247E+03
 -5.69502E+03 -7.93232E+02 -2.60606E+03 -4.13887E+03  6.48053E+01 -6.02961E+03  3.74274E+03 -6.31068E+03
  6.14602E+03 -3.99505E+03  8.08367E+03  6.57609E+02  5.66593E+03  5.57341E+03  1.17816E+03  6.99676E+03
 -2.76954E+03  6.85893E+03 -4.17647E+03  2.19587E+03 -2.42141E+03 -1.05817E+03 -8.64282E+02 -9.94447E+02
 -5.49592E+02  5.10654E+02 -9.98289E+02  2.09137E+03 -2.51358E+03  1.40926E+03 -4.81218E+03 -5.51344E+02
 -2.22929E+03 -4.82553E+03  8.89894E+02 -5.76876E+03  3.51307E+03 -5.17498E+03  4.61145E+03 -1.67697E+03
  5.20298E+03  2.68533E+03  2.18287E+03  4.22970E+03 -1.07414E+03  5.41019E+03 -3.34444E+03  3.28187E+03
 -4.76493E+03  5.42921E+02 -3.96060E+03 -3.27535E+03 -5.69645E+02 -4.15906E+03  2.31646E+03 -3.15589E+03
  3.36547E+03 -1.46445E+03  2.11342E+03  7.52934E+02  7.63149E+02  2.12759E+03  8.94250E+02  8.74163E+02
  1.85806E+03  5.02939E+02  1.49764E+03  1.00369E+03  1.17206E+03  2.64241E+03  1.53820E+03  2.45327E+03
 -1.58576E+03  3.51033E+03 -3.33722E+03  4.73447E+03 -3.82057E+03  1.16473E+03 -5.16315E+03 -1.18593E+03
 -1.96472E+03 -5.03349E+03  1.16175E+03 -5.76775E+03  2.59157E+03 -3.02873E+03  4.03910E+03 -8.09676E+02
  3.35781E+03  2.20764E+03  4.91956E+02  3.03615E+03 -7.60035E+02  1.35996E+03 -1.39436E+03 -5.22685E+02
 -6.39887E+02 -1.87161E+03  1.14410E+03 -2.11009E+03  1.65215E+03 -1.12308E+03  1.75370E+03  2.00828E+02
  1.10080E+03  3.71188E+02  9.02092E+02 -8.15464E+01 -2.16655E+02  8.93530E+02  1.59411E+03 -1.12593E+02
 -2.13059E+01 -9.10353E+01  2.11503E+03  9.58906E+02  5.27781E+02  2.72886E+03 -5.34385E+02  3.63361E+03
 -2.04957E+03  1.66787E+03 -2.57635E+03  3.28333E+02 -2.91564E+03 -9.97780E+02 -3.53688E+02 -1.06007E+03
  6.81757E+02 -1.88814E+03  1.19804E+03 -1.00103E+03  1.01475E+03  1.29496E+03 -1.22599E+03  1.15517E+03
 -1.74169E+03  7.78911E+02 -1.57693E+03 -1.52161E+03 -1.20583E+03 -2.41284E+03  2.39071E+02 -2.13598E+03
  1.07199E+03 -1.33924E+03  1.10222E+03  2.85777E+02  1.47250E+03  2.76464E+02  2.41832E+02  1.28534E+03
 -3.74260E+02  2.33022E+02 -1.50334E+03 -5.28287E+02  6.01957E+02 -1.29546E+03  1.88585E+03 -1.17000E+03
  1.69757E+03  2.49403E+02  3.37609E+03  1.03423E+03  1.12559E+03  2.16162E+03 -6.46286E+02  2.41391E+03
 -2.05940E+03  6.46060E+02 -2.16195E+03 -4.83153E+02 -1.21015E+03 -1.91218E+03  2.70898E+02 -9.30210E+02
  1.69546E+03 -5.75671E+02  1.05464E+03  1.07308E+03  4.23444E+02  1.74585E+03  3.04146E+02  1.06179E+03
 -3.43754E+02  1.35755E+03 -6.55981E+02  1.29936E+02  2.10665E+01  5.74794E+02 -5.54884E+02  3.83264E+02
 -6.48745E+02  1.15048E+03 -2.25259E+03  6.04506E+02 -2.29060E+03  2.05926E+02 -2.95186E+03 -1.21965E+03
 -1.58611E+03 -3.00868E+03  4.01453E+02 -3.65113E+03  1.70786E+03 -2.83251E+03  3.56454E+03 -1.00598E+03
  3.44051E+03 -1.85674E+02  1.59883E+03  1.88957E+03 -3.81548E+02  2.35997E+03 -1.21703E+03  1.44680E+03
 -1.31268E+03  1.02407E+03 -8.50506E+02  3.22045E+01 -3.87940E+02  2.06573E+02 -7.30210E+02 -1.08831E+02
 -1.02219E+03  2.97768E+02 -8.92476E+02  7.64151E+01 -3.59618E+01 -7.23256E+02 -4.13713E+02 -9.80007E+02
  1.40676E+03 -9.09778E+02  8.15251E+02  2.22289E+02  1.74985E+03  1.11376E+03  4.29819E+01  1.88252E+03
 -1.46061E+03  2.69533E+03 -2.18704E+03  1.77099E+03 -2.56219E+03 -1.90072E+02 -1.77347E+03 -1.46873E+03
 -1.01621E+03 -1.88385E+03  4.07506E+02 -1.71111E+03  7.69049E+02 -8.98225E+02  9.78637E+02 -1.60058E+02
  1.00077E+03  5.51603E+02  1.82940E+02  4.77612E+02 -6.49164E+02 -2.31892E+02 -2.00547E+02 -4.98873E+02
  6.71067E+02  5.87586E+01  3.93396E+02  5.36625E+02  3.02293E+02  4.85453E+02  9.69358E+01  5.51277E+02
 -1.03038E+03  9.43526E+02 -9.48453E+02 -9.68114E+00 -1.10171E+03 -9.05637E+02  5.26979E+00 -1.43561E+03
  7.83998E+02 -1.02656E+03  1.19310E+03 -1.70368E+02  1.38122E+03 -4.21519E+02  5.54258E+02  1.32067E+03
  2.17876E+02  6.16066E+02 -2.24457E+02  8.49560E+02 -7.01317E+02  8.85829E+02 -4.55607E+02  3.89509E+02
 -2.43719E+02 -3.00172E+02 -4.66762E+02  6.31506E+01 -6.48141E+02  3.04074E+02 -1.02902E+03 -5.76894E+02
 -1.20030E+03  1.91028E+02 -3.71517E+02 -1.17074E+03  6.17084E+02 -1.88312E+03  1.20620E+03 -6.58598E+02
  1.02293E+03  1.43922E+02 -8.19628E+00  9.83288E+02  1.08174E+02  8.87119E+02 -3.65256E+02  5.68136E+02
