 $NMID ID='MM_0lb_SNR800_15hz_g55_46.RAW', FMTDAT='(8E13.5)'
 TRAMP=1., VOLUME=1. $END
  3.09544E+05  9.77468E+01  3.37814E+05  2.50737E+05  8.44577E+04  3.37926E+05 -1.32627E+05  2.51146E+05
 -1.90274E+05  8.31647E+04 -1.11592E+05 -3.25018E+04  8.91974E+02 -5.05112E+04  5.37199E+04 -1.16154E+02
  3.53511E+04  5.31936E+04 -1.69423E+04  7.53794E+04 -6.06647E+04  6.34731E+04 -8.40419E+04  3.20256E+04
 -8.09402E+04 -1.13866E+04 -5.73097E+04 -5.10997E+04 -1.48412E+04 -6.95684E+04  2.75693E+04 -4.57414E+04
  3.98947E+04  4.05153E+03  1.62942E+04  4.78129E+04 -3.45802E+04  4.75644E+04 -6.67382E+04 -6.23361E+01
 -5.34448E+04 -5.70208E+04 -6.67788E+03 -7.72020E+04  3.38581E+04 -5.50944E+04  4.82410E+04 -1.70862E+04
  4.31376E+04  1.15522E+04  3.16353E+04  2.54980E+04  1.57747E+04  2.92027E+04 -5.39449E+03  2.71831E+04
 -2.18674E+04  1.20226E+04 -1.84420E+04 -4.89900E+03  5.47983E+03 -7.32054E+03  2.23006E+04  1.24506E+04
  7.23367E+03  3.52534E+04 -3.22133E+04  3.54019E+04 -6.34983E+04  1.98222E+03 -5.68786E+04 -4.26487E+04
 -1.27345E+04 -6.30885E+04  3.98567E+04 -4.53617E+04  5.82183E+04 -2.50586E+03  3.40409E+04  3.23828E+04
 -6.13609E+03  3.60369E+04 -3.00526E+04  1.58350E+04 -3.02132E+04 -4.30940E+03 -1.66517E+04 -1.07817E+04
 -8.54905E+03 -1.31349E+04 -7.31316E+02 -1.78770E+04  7.66804E+03 -2.34492E+04  1.54882E+04 -1.33451E+04
  1.13526E+04  5.19137E+03 -8.40374E+03  1.31897E+04 -2.11716E+04 -4.25989E+03 -8.17279E+03 -3.37802E+04
  2.26592E+04 -4.37164E+04  4.81484E+04 -1.95508E+04  4.50739E+04  1.93330E+04  1.58269E+04  4.44322E+04
 -1.57055E+04  3.37403E+04 -2.52936E+04  1.99365E+03 -1.01591E+04 -2.76520E+04  2.13329E+04 -3.36023E+04
  4.09735E+04 -9.07701E+03  3.56663E+04  2.40907E+04  1.78282E+04  4.66253E+04 -8.13762E+03  5.02737E+04
 -3.16644E+04  3.38716E+04 -4.16621E+04  9.65929E+03 -4.27054E+04 -1.62743E+04 -2.35357E+04 -3.80208E+04
  7.42908E+03 -3.77139E+04  3.17990E+04 -1.46794E+04  2.92791E+04  1.10197E+04  3.98004E+03  1.94404E+04
 -1.36324E+04  8.41713E+03 -1.03480E+04 -7.61173E+03  5.87594E+03 -1.06450E+04  1.80608E+04  6.08278E+03
  1.34660E+04  2.22975E+04 -6.02965E+03  2.47739E+04 -2.24577E+04  1.14654E+04 -2.80302E+04 -4.65820E+03
 -2.07543E+04 -1.73585E+04 -8.34814E+03 -2.03243E+04  3.98978E+03 -1.96209E+04  1.58703E+04 -1.79213E+04
  2.62597E+04 -1.28705E+04  3.25916E+04  2.91384E+03  2.36400E+04  1.96799E+04  4.38685E+03  3.61648E+04
 -1.75387E+04  3.03658E+04 -2.79713E+04  1.04429E+04 -2.06208E+04 -1.01315E+04 -4.17141E+03 -1.33790E+04
  1.66509E+03 -3.07768E+03 -4.79443E+03  6.44132E+03 -1.58784E+04  4.72918E+03 -1.62690E+04 -6.99577E+03
 -9.95619E+03 -1.87437E+04  5.38806E+03 -2.28845E+04  1.51584E+04 -1.66225E+04  1.80017E+04 -1.51061E+03
  1.12360E+04  1.30587E+04 -8.00478E+02  1.90126E+04 -1.28534E+04  1.06776E+04 -1.88006E+04 -4.33331E+03
 -1.36120E+04 -1.70844E+04 -1.92084E+03 -2.27867E+04  1.00498E+04 -1.87363E+04  1.88243E+04 -9.11132E+03
  1.79618E+04  1.98334E+02  1.27794E+04  4.31810E+03  6.83942E+03  9.88613E+02  9.32627E+03 -1.53373E+03
  1.73130E+04  2.60985E+03  1.91242E+04  1.48178E+04  1.25162E+04  2.96591E+04 -2.87888E+03  3.34626E+04
 -1.97392E+04  2.67272E+04 -3.15407E+04  1.36089E+04 -3.28539E+04 -2.61722E+03 -2.73126E+04 -1.89145E+04
 -1.17114E+04 -2.72465E+04  9.00069E+03 -2.44555E+04  2.11017E+04 -1.24921E+04  1.91931E+04  5.26809E+03
  7.14157E+03  1.43785E+04 -8.78975E+03  1.26047E+04 -1.63088E+04  2.66568E+03 -1.22151E+04 -1.00125E+04
 -2.99522E+02 -1.49314E+04  7.83771E+03 -1.12651E+04  9.65288E+03 -1.53384E+03  2.10106E+03  6.57622E+03
 -7.09950E+03  2.09622E+03 -5.93216E+03 -5.45478E+03 -3.82874E+02 -1.32864E+04  9.58362E+03 -1.39330E+04
  1.63005E+04 -7.00861E+03  1.74332E+04  3.00933E+03  1.51686E+04  1.27654E+04  7.17963E+03  1.97270E+04
 -3.02545E+03  2.17733E+04 -1.34441E+04  1.35009E+04 -1.55226E+04  3.19127E+03 -1.10532E+04 -3.36955E+03
 -5.36417E+03 -4.84555E+03 -8.43728E+02  8.54102E+02 -2.22652E+03  2.96233E+03 -4.97611E+03  4.26627E+03
 -1.04064E+04 -5.64953E+02 -1.10204E+04 -9.21910E+03 -4.37879E+03 -1.44022E+04  4.37155E+03 -1.14942E+04
  9.46287E+03 -4.71757E+03  6.37535E+03  3.06559E+03  3.89112E+02  4.24288E+03 -4.92257E+03 -2.72158E+02
 -4.90039E+03 -6.62121E+03 -8.73011E+02 -1.04477E+04  5.66128E+03 -1.10904E+04  1.34052E+04 -5.41093E+03
  1.58018E+04  9.44056E+02  1.17678E+04  9.23479E+03  2.18089E+03  1.24194E+04 -6.86814E+03  1.04832E+04
 -9.26757E+03  3.40312E+03 -4.27075E+03 -1.85608E+03  1.54429E+03 -3.12850E+03  6.11983E+03 -9.06699E+02
  5.24427E+03  4.61683E+03  1.25299E+03  8.56696E+03 -5.98876E+03  8.46640E+03 -1.06928E+04  2.26469E+03
 -6.85705E+03 -5.25711E+03  4.85760E+02 -9.04190E+03  5.29203E+03 -4.69158E+03  5.47276E+03  1.57870E+03
  9.06865E+02  5.52863E+03 -5.48115E+03  7.12128E+03 -7.85714E+03  3.20643E+03 -7.34972E+03 -2.50113E+03
 -4.75537E+03 -9.39179E+03  2.02389E+03 -1.09255E+04  9.07117E+03 -6.68608E+03  9.82070E+03  1.57243E+03
  6.71880E+03  7.64276E+03 -3.61743E+02  1.02418E+04 -7.53693E+03  5.72848E+03 -7.58813E+03 -5.94839E+02
 -7.33687E+03 -6.72388E+03 -1.52797E+03 -7.32077E+03  3.35456E+03 -6.42014E+03  4.86067E+03 -3.07812E+03
  3.26539E+03  9.21355E+02 -3.62601E+02  1.13879E+03  2.05396E+02 -1.11520E+03  1.23237E+03 -3.23180E+03
  6.52459E+03 -1.95002E+03  8.66759E+03  9.86215E+02  8.98458E+03  5.84342E+03  6.59934E+03  1.15072E+04
 -2.20198E+03  1.30778E+04 -1.13857E+04  9.83749E+03 -1.47386E+04  2.14306E+03 -1.18203E+04 -4.43946E+03
 -6.11646E+03 -9.52747E+03 -4.85917E+02 -8.27127E+03  2.95501E+03 -4.13245E+03  2.62209E+03 -3.28423E+03
  1.90136E+03 -1.97405E+03  2.90572E+03 -2.97992E+03  3.93859E+03 -2.18794E+03  5.20144E+03 -1.39561E+02
  6.46583E+03  1.43809E+03  2.58053E+03  5.14236E+03 -1.70453E+03  5.52409E+03 -6.39195E+03  4.49011E+03
 -7.49536E+03 -1.22681E+03 -4.27406E+03 -5.39382E+03  3.22342E+02 -8.46522E+03  5.10837E+03 -8.30163E+03
  8.39785E+03 -5.20655E+03  1.07168E+04  1.03443E+03  7.77096E+03  7.00061E+03  1.64412E+03  9.67441E+03
 -3.76216E+03  8.14591E+03 -5.38665E+03  2.93117E+03 -3.67228E+03 -1.25055E+03 -1.11731E+03 -1.05153E+03
 -7.77635E+02  2.90184E+02 -1.35316E+03  1.99703E+03 -3.71076E+03  1.47445E+03 -5.79849E+03 -1.57151E+02
 -3.37871E+03 -5.62323E+03  5.29289E+02 -7.49664E+03  4.31578E+03 -6.76786E+03  6.41683E+03 -1.84108E+03
  7.17790E+03  3.76594E+03  3.09133E+03  6.10535E+03 -1.72455E+03  7.34394E+03 -4.94760E+03  4.35382E+03
 -6.58799E+03  9.71436E+02 -5.05049E+03 -4.42223E+03 -4.61577E+02 -5.38561E+03  2.93409E+03 -4.04852E+03
  4.61402E+03 -1.71544E+03  3.04481E+03  1.03131E+03  8.54745E+02  2.62240E+03  6.94445E+02  5.06376E+02
  1.96974E+03  7.51221E+02  1.93922E+03  1.24372E+03  2.13010E+03  3.00117E+03  2.06060E+03  3.45207E+03
 -1.90171E+03  5.21887E+03 -4.56645E+03  6.36255E+03 -6.30484E+03  1.88649E+03 -7.23782E+03 -2.31112E+03
 -3.29865E+03 -6.79901E+03  9.15786E+02 -7.55116E+03  3.95701E+03 -4.79376E+03  5.47936E+03 -1.43499E+03
  4.30103E+03  2.75831E+03  7.17950E+02  4.09090E+03 -1.89443E+03  2.27664E+03 -2.19015E+03 -4.92845E+02
 -1.13872E+03 -2.66675E+03  1.90124E+03 -3.01080E+03  2.57909E+03 -1.56394E+03  2.40922E+03  5.53875E+02
  1.34736E+03  8.15604E+02  8.05764E+02  4.39742E+02 -6.03215E+02  9.24317E+02  1.53285E+03 -1.90118E+02
  3.54905E+02 -3.13147E+02  2.79658E+03  9.81093E+02  1.07683E+03  3.81649E+03 -5.29585E+02  4.69958E+03
 -3.01906E+03  2.70900E+03 -3.70267E+03  6.65465E+02 -3.77442E+03 -1.34604E+03 -7.17556E+02 -2.23772E+03
  5.17637E+02 -2.26022E+03  1.63939E+03 -1.00062E+03  1.33374E+03  1.70561E+03 -7.27812E+02  2.38355E+03
 -2.75585E+03  1.23805E+03 -2.25176E+03 -1.98173E+03 -1.69046E+03 -3.46640E+03  5.92363E+02 -3.17915E+03
  1.54046E+03 -1.42844E+03  2.25209E+03  2.70682E+01  2.33531E+03  5.51887E+02  3.04669E+02  2.00927E+03
 -9.67195E+02  4.86033E+02 -1.65543E+03 -8.81292E+02  5.70384E+02 -2.29888E+03  2.73280E+03 -1.73090E+03
  3.53750E+03  6.62389E+02  4.08654E+03  1.99391E+03  1.88554E+03  3.48859E+03 -6.72866E+02  3.59048E+03
 -3.08248E+03  1.21958E+03 -3.01106E+03 -2.19506E+02 -1.73569E+03 -2.50038E+03  4.69946E+02 -2.03507E+03
  2.66249E+03 -1.58579E+03  1.61099E+03  1.20008E+03  4.45030E+02  1.96208E+03  1.46470E+02  2.26353E+03
 -6.82407E+02  1.35541E+03 -7.39819E+02  2.04182E+02 -6.52980E+00  3.70505E+02 -9.12987E+02  9.99959E+02
 -1.04915E+03  1.38849E+03 -3.18207E+03  1.25601E+03 -3.59958E+03  1.89121E+02 -4.09834E+03 -2.01540E+03
 -2.13370E+03 -4.69235E+03  9.78178E+02 -5.42494E+03  2.80291E+03 -4.63886E+03  5.36132E+03 -1.87630E+03
  4.65839E+03  6.14296E+02  2.53506E+03  3.39800E+03 -2.92915E+02  3.01074E+03 -1.33961E+03  2.53456E+03
 -1.97691E+03  1.24933E+03 -1.28347E+03 -7.96080E+01 -8.66627E+02  1.41070E+02 -1.00624E+03 -5.68966E+01
 -1.09739E+03 -1.45955E+02 -1.25977E+03  1.17730E+02 -4.96741E+01 -8.79909E+02 -3.03635E+02 -1.64256E+03
  2.30440E+03 -1.26529E+03  1.48007E+03  2.38205E+02  2.21488E+03  2.10759E+03  8.95706E+01  3.23206E+03
 -1.54747E+03  3.98507E+03 -3.43514E+03  2.28022E+03 -3.76854E+03 -4.58711E+02 -2.85507E+03 -2.67025E+03
 -1.62788E+03 -3.09288E+03  7.54620E+02 -2.82464E+03  2.07478E+03 -1.24219E+03  2.06506E+03  2.73640E+02
  9.52131E+02  9.39703E+02  7.04514E+01  8.69231E+02 -3.59968E+02 -2.20400E+02 -1.51173E+02 -2.41265E+02
  9.77522E+02 -1.42773E+02  1.47695E+03  6.45985E+02  7.05897E+02  1.23143E+03  4.46218E+02  1.25996E+03
 -1.37921E+03  1.34472E+03 -1.65848E+03  1.44568E+02 -1.76872E+03 -1.02803E+03 -1.07297E+02 -2.40851E+03
  1.25437E+03 -1.81018E+03  1.77163E+03 -3.57528E+02  2.01775E+03 -2.06031E+02  1.01208E+03  1.96818E+03
  4.69455E+02  1.42601E+03 -5.82272E+02  1.53997E+03 -1.35678E+03  9.91382E+02 -1.03708E+03  2.65972E+01
 -3.42896E+02  5.23810E+00 -5.76834E+02  3.67015E+02 -1.09577E+03  5.21583E+02 -1.39531E+03 -2.71280E+02
 -1.99281E+03 -3.73223E+02 -3.21546E+02 -2.32910E+03  1.11332E+03 -2.66531E+03  1.55370E+03 -7.70959E+02
  1.97739E+03  1.17444E+02  4.05345E+02  9.42680E+02 -3.32425E+02  1.47625E+03 -1.17027E+03  1.21934E+03
