 $NMID ID='MM_0lb_SNR800_14hz_g60_5.RAW', FMTDAT='(8E13.5)'
 TRAMP=1., VOLUME=1. $END
  3.09588E+05  4.51119E+02  3.37879E+05  2.50758E+05  8.46795E+04  3.38191E+05 -1.32814E+05  2.51530E+05
 -1.90752E+05  8.32650E+04 -1.11812E+05 -3.22376E+04  4.64270E+02 -5.07157E+04  5.37643E+04 -3.85196E+02
  3.52832E+04  5.29854E+04 -1.69455E+04  7.59381E+04 -6.10097E+04  6.38818E+04 -8.46884E+04  3.23674E+04
 -8.17663E+04 -1.15346E+04 -5.76064E+04 -5.17678E+04 -1.53614E+04 -7.01594E+04  2.75913E+04 -4.62166E+04
  4.03678E+04  4.12167E+03  1.62198E+04  4.83487E+04 -3.43257E+04  4.77912E+04 -6.71339E+04 -5.12324E+02
 -5.36525E+04 -5.70544E+04 -7.23138E+03 -7.79271E+04  3.43570E+04 -5.57605E+04  4.85440E+04 -1.73846E+04
  4.38775E+04  1.11278E+04  3.23179E+04  2.57782E+04  1.59781E+04  3.00988E+04 -5.59339E+03  2.78417E+04
 -2.19803E+04  1.25802E+04 -1.85262E+04 -5.22257E+03  6.21361E+03 -7.26661E+03  2.26592E+04  1.27014E+04
  7.05368E+03  3.60361E+04 -3.28026E+04  3.61804E+04 -6.40734E+04  2.19507E+03 -5.79264E+04 -4.35590E+04
 -1.21991E+04 -6.43641E+04  4.06590E+04 -4.61070E+04  5.95636E+04 -2.36645E+03  3.50580E+04  3.29630E+04
 -6.04864E+03  3.74396E+04 -3.08257E+04  1.68615E+04 -3.14672E+04 -4.17410E+03 -1.73887E+04 -1.15916E+04
 -8.81079E+03 -1.43124E+04 -8.42194E+02 -1.88046E+04  7.72530E+03 -2.33252E+04  1.56297E+04 -1.31455E+04
  1.11612E+04  5.60554E+03 -9.05666E+03  1.27052E+04 -2.20443E+04 -5.21641E+03 -8.83363E+03 -3.50196E+04
  2.34405E+04 -4.47203E+04  4.93614E+04 -2.01923E+04  4.62150E+04  2.01545E+04  1.63907E+04  4.51427E+04
 -1.63663E+04  3.44975E+04 -2.63238E+04  2.08033E+03 -1.06933E+04 -2.84668E+04  2.11690E+04 -3.48774E+04
  4.22995E+04 -9.86236E+03  3.75221E+04  2.40870E+04  1.92170E+04  4.78670E+04 -7.64205E+03  5.22304E+04
 -3.31705E+04  3.53178E+04 -4.39365E+04  9.91354E+03 -4.40118E+04 -1.74149E+04 -2.44356E+04 -3.94623E+04
  7.39706E+03 -3.91152E+04  3.22051E+04 -1.54457E+04  3.02467E+04  1.14704E+04  4.28524E+03  1.97898E+04
 -1.36734E+04  9.04588E+03 -1.05478E+04 -7.47600E+03  5.82968E+03 -1.08756E+04  1.81602E+04  5.88728E+03
  1.40962E+04  2.21674E+04 -5.59638E+03  2.54363E+04 -2.27314E+04  1.22685E+04 -2.90756E+04 -4.29766E+03
 -2.22244E+04 -1.76882E+04 -9.31004E+03 -2.17039E+04  4.15068E+03 -2.11736E+04  1.66408E+04 -1.97608E+04
  2.78225E+04 -1.33015E+04  3.43139E+04  3.43315E+03  2.46132E+04  2.11664E+04  4.13246E+03  3.78244E+04
 -1.85876E+04  3.15182E+04 -2.88596E+04  1.07932E+04 -2.13350E+04 -1.01718E+04 -4.55598E+03 -1.34346E+04
  1.67036E+03 -2.09440E+03 -5.56540E+03  7.25884E+03 -1.75228E+04  4.85995E+03 -1.72608E+04 -7.59053E+03
 -1.04833E+04 -2.03385E+04  5.80500E+03 -2.43219E+04  1.62647E+04 -1.73255E+04  1.96908E+04 -1.34170E+03
  1.21188E+04  1.38728E+04 -1.13969E+03  2.02718E+04 -1.40837E+04  1.15991E+04 -2.01786E+04 -4.44492E+03
 -1.49418E+04 -1.80456E+04 -1.93510E+03 -2.43761E+04  1.08475E+04 -2.01179E+04  2.00523E+04 -1.01725E+04
  1.89275E+04 -1.32190E+02  1.35778E+04  4.68639E+03  7.29064E+03  9.89722E+02  1.02282E+04 -1.73184E+03
  1.85179E+04  2.39187E+03  2.12542E+04  1.57406E+04  1.42723E+04  3.22393E+04 -2.57647E+03  3.67129E+04
 -2.12352E+04  2.96957E+04 -3.42576E+04  1.50587E+04 -3.60808E+04 -3.08244E+03 -2.91426E+04 -2.08168E+04
 -1.20959E+04 -3.00223E+04  1.03073E+04 -2.65518E+04  2.29166E+04 -1.33909E+04  2.01998E+04  6.10043E+03
  7.47984E+03  1.52682E+04 -9.46341E+03  1.33913E+04 -1.71700E+04  2.84676E+03 -1.30150E+04 -1.04932E+04
 -5.61571E+02 -1.60848E+04  8.45295E+03 -1.21079E+04  1.07750E+04 -1.40151E+03  2.39132E+03  7.23126E+03
 -7.28305E+03  2.83632E+03 -6.60991E+03 -6.08280E+03 -9.54267E+02 -1.42051E+04  1.00549E+04 -1.53691E+04
  1.79925E+04 -8.14404E+03  1.94790E+04  2.92200E+03  1.70754E+04  1.43351E+04  7.73062E+03  2.22320E+04
 -3.76636E+03  2.38344E+04 -1.56162E+04  1.52306E+04 -1.72562E+04  3.70350E+03 -1.23040E+04 -4.13652E+03
 -5.51128E+03 -5.69920E+03 -7.05183E+02  8.69730E+02 -2.44932E+03  2.57922E+03 -5.69864E+03  4.30719E+03
 -1.14295E+04 -7.81785E+02 -1.19345E+04 -9.88005E+03 -4.62903E+03 -1.59368E+04  5.13013E+03 -1.21221E+04
  1.04183E+04 -5.39056E+03  7.51325E+03  3.25836E+03  1.58001E+02  4.71861E+03 -5.93279E+03 -5.25977E+01
 -5.26581E+03 -7.49044E+03 -6.78116E+02 -1.14663E+04  6.44232E+03 -1.20552E+04  1.52060E+04 -6.43441E+03
  1.81116E+04  1.51102E+03  1.29941E+04  1.05736E+04  2.62086E+03  1.37564E+04 -7.44614E+03  1.19700E+04
 -9.64994E+03  3.59820E+03 -5.26568E+03 -2.42914E+03  1.42856E+03 -3.31799E+03  6.84655E+03 -9.47250E+02
  5.77599E+03  5.26820E+03  9.62535E+02  9.37188E+03 -6.96489E+03  9.48088E+03 -1.17158E+04  2.50532E+03
 -8.30606E+03 -5.85802E+03  2.25697E+02 -1.00647E+04  6.22169E+03 -5.19568E+03  6.48259E+03  2.16263E+03
  1.33768E+03  6.49979E+03 -6.41388E+03  7.65351E+03 -9.11380E+03  3.71325E+03 -8.53204E+03 -3.26341E+03
 -5.36916E+03 -1.05652E+04  2.37827E+03 -1.24206E+04  1.00192E+04 -7.47812E+03  1.17695E+04  2.00093E+03
  7.15174E+03  9.22602E+03 -8.03002E+02  1.13816E+04 -8.24879E+03  6.65998E+03 -9.07780E+03 -8.46886E+02
 -8.05924E+03 -7.85377E+03 -1.68918E+03 -8.40027E+03  4.61092E+03 -6.85510E+03  5.17931E+03 -3.33271E+03
  4.14744E+03  1.28430E+03 -4.11515E+02  1.66710E+03  2.34614E+01 -1.77468E+03  1.23791E+03 -4.59152E+03
  7.62638E+03 -2.64574E+03  1.04093E+04  1.03813E+03  1.04599E+04  6.61640E+03  7.57428E+03  1.38170E+04
 -2.94924E+03  1.54707E+04 -1.35123E+04  1.13382E+04 -1.72534E+04  2.32159E+03 -1.37030E+04 -5.53380E+03
 -7.30261E+03 -1.11411E+04 -8.04999E+02 -9.74200E+03  3.49154E+03 -5.11501E+03  3.38765E+03 -3.56896E+03
  2.39946E+03 -2.58662E+03  3.10539E+03 -3.18934E+03  4.50979E+03 -2.35986E+03  5.63533E+03 -3.41717E+02
  7.29768E+03  1.74676E+03  3.28285E+03  5.84059E+03 -1.97021E+03  6.48884E+03 -7.32733E+03  5.06780E+03
 -9.09789E+03 -1.30972E+03 -4.98268E+03 -6.43865E+03 -2.55679E+02 -9.43742E+03  5.36004E+03 -9.63346E+03
  1.02189E+04 -5.45010E+03  1.23720E+04  1.46024E+03  8.82926E+03  8.16038E+03  1.84990E+03  1.11138E+04
 -4.41130E+03  9.40175E+03 -6.37357E+03  3.16712E+03 -4.31113E+03 -1.39850E+03 -1.58054E+03 -1.43855E+03
 -7.34927E+02  9.85229E+01 -1.65115E+03  2.56639E+03 -3.89342E+03  1.80989E+03 -6.69732E+03 -9.48508E+02
 -3.80350E+03 -6.85876E+03  3.82507E+02 -8.73637E+03  5.39095E+03 -8.30966E+03  8.12862E+03 -2.33885E+03
  7.81710E+03  4.55079E+03  4.04557E+03  7.57276E+03 -1.52477E+03  8.67290E+03 -5.71383E+03  5.31200E+03
 -7.86450E+03  7.09741E+02 -6.21540E+03 -5.43343E+03 -4.71091E+02 -7.11917E+03  3.60220E+03 -5.38364E+03
  5.34699E+03 -2.02446E+03  3.63647E+03  1.06381E+03  1.29277E+03  2.69036E+03  1.07136E+03  1.15051E+03
  2.05553E+03  6.47277E+02  2.21012E+03  1.28033E+03  2.61498E+03  3.22567E+03  2.61683E+03  4.04011E+03
 -2.24900E+03  6.56958E+03 -5.75920E+03  6.94089E+03 -7.89970E+03  2.02270E+03 -9.07296E+03 -2.96423E+03
 -4.14130E+03 -8.37084E+03  1.31660E+03 -9.34629E+03  4.81961E+03 -5.60468E+03  6.79257E+03 -1.48984E+03
  5.04169E+03  3.20848E+03  1.24263E+03  4.80378E+03 -1.87940E+03  2.86077E+03 -3.07705E+03 -5.12142E+02
 -1.58982E+03 -3.35121E+03  1.88203E+03 -3.38106E+03  3.34072E+03 -1.52443E+03  3.15927E+03  7.42984E+02
  1.85206E+03  1.22963E+03  1.22157E+03  8.92960E+02 -4.40666E+02  1.55259E+03  1.66823E+03 -2.77207E+02
  8.13646E+02 -4.55068E+02  3.28817E+03  1.61064E+03  1.48698E+03  4.39349E+03 -6.13773E+02  5.58931E+03
 -3.69472E+03  3.34495E+03 -4.87478E+03  8.55332E+02 -4.36172E+03 -2.11301E+03 -1.40903E+03 -2.83902E+03
  7.73002E+02 -2.93815E+03  2.18043E+03 -1.27220E+03  1.51678E+03  1.77249E+03 -1.19485E+03  2.79237E+03
 -3.28065E+03  1.50802E+03 -3.30826E+03 -2.05717E+03 -1.79542E+03 -4.41726E+03  2.99898E+02 -4.20614E+03
  2.13754E+03 -2.36946E+03  2.78484E+03 -3.53163E+02  2.72446E+03  5.44519E+02  4.30304E+02  2.13381E+03
 -1.37159E+03  2.26515E+02 -2.02273E+03 -1.27829E+03  8.38794E+02 -2.96509E+03  3.56930E+03 -2.30920E+03
  4.07477E+03  5.95158E+02  4.84310E+03  2.64863E+03  1.74348E+03  4.65338E+03 -1.08826E+03  4.37228E+03
 -3.86688E+03  1.54675E+03 -3.63874E+03 -5.84970E+02 -1.95161E+03 -2.94937E+03  8.45861E+02 -2.38959E+03
  2.95498E+03 -1.66839E+03  2.39713E+03  1.51323E+03  7.07430E+02  2.61948E+03  4.63233E+01  2.47193E+03
 -1.15439E+03  1.55828E+03 -1.06026E+03  3.99854E+02 -4.22090E+02  6.33015E+02 -1.09385E+03  1.17851E+03
 -1.02552E+03  1.98078E+03 -3.75810E+03  1.72530E+03 -4.31312E+03  4.48570E+02 -5.21395E+03 -2.59489E+03
 -2.72985E+03 -5.90988E+03  1.06144E+03 -7.09661E+03  3.46014E+03 -5.56989E+03  6.34185E+03 -2.22473E+03
  5.57120E+03  7.70099E+02  3.53804E+03  3.79628E+03 -2.67580E+02  4.36313E+03 -1.64960E+03  3.37629E+03
 -2.39959E+03  1.11908E+03 -1.22451E+03 -4.52156E+02 -4.11960E+02 -3.74187E+02 -4.82015E+02  8.26696E+01
 -1.19719E+03  1.83896E+02 -1.52488E+03 -5.60551E+00  1.25819E+02 -1.13097E+03 -3.40570E+02 -1.46153E+03
  2.23362E+03 -1.53624E+03  2.21813E+03  5.97278E+01  3.40132E+03  2.26188E+03  3.14662E+02  4.19570E+03
 -2.09792E+03  4.75413E+03 -4.44969E+03  3.18830E+03 -5.17264E+03 -3.18089E+02 -3.74885E+03 -3.20633E+03
 -2.13059E+03 -4.15233E+03  1.08557E+03 -3.49106E+03  2.29893E+03 -1.90705E+03  2.60426E+03  4.57280E+01
  1.41787E+03  1.12923E+03 -3.70899E+02  1.01770E+03 -4.78362E+02  4.57931E+02  2.03848E+02 -1.00997E+03
  1.12477E+03 -4.63705E+02  1.40112E+03  5.46170E+02  4.34774E+02  1.48552E+03  2.16920E+02  1.61369E+03
 -2.13612E+03  1.68540E+03 -2.56658E+03  3.72035E+02 -2.20594E+03 -1.70040E+03 -1.36398E+02 -3.28574E+03
  1.73084E+03 -2.54199E+03  2.39624E+03 -4.64479E+02  2.86728E+03 -7.72572E+01  1.62465E+03  2.29292E+03
  1.47632E+02  2.39880E+03 -7.82393E+02  1.86342E+03 -1.73774E+03  1.51447E+03 -1.21659E+03  3.66273E+02
 -3.62609E+02 -1.74415E+02 -9.05247E+02  4.57372E+02 -1.26556E+03  5.16376E+02 -2.17327E+03 -7.67276E+02
 -2.40194E+03 -6.11215E+02 -4.65324E+02 -2.40906E+03  1.26950E+03 -2.80227E+03  2.29811E+03 -1.33571E+03
  2.41923E+03  4.48740E+02  6.32240E+02  1.73043E+03 -6.08563E+02  2.15041E+03 -1.58645E+03  1.50079E+03
