 $NMID ID='MM_0lb_SNR800_8hz_g45_17.RAW', FMTDAT='(8E13.5)'
 TRAMP=1., VOLUME=1. $END
  3.09779E+05  6.31039E+02  3.38068E+05  2.51041E+05  8.46972E+04  3.38618E+05 -1.32605E+05  2.51521E+05
 -1.90846E+05  8.33620E+04 -1.12616E+05 -3.21530E+04  2.59479E+02 -5.04440E+04  5.34870E+04 -3.08909E+02
  3.57048E+04  5.29833E+04 -1.65418E+04  7.58055E+04 -6.16079E+04  6.48311E+04 -8.54907E+04  3.29199E+04
 -8.19099E+04 -1.14937E+04 -5.81704E+04 -5.22809E+04 -1.53318E+04 -7.08000E+04  2.82223E+04 -4.70078E+04
  4.14666E+04  3.74388E+03  1.69862E+04  4.85186E+04 -3.49415E+04  4.78324E+04 -6.82571E+04  1.43814E+02
 -5.54018E+04 -5.77294E+04 -7.24784E+03 -7.88821E+04  3.48711E+04 -5.73059E+04  4.96687E+04 -1.80315E+04
  4.55571E+04  1.12942E+04  3.32488E+04  2.67218E+04  1.59696E+04  3.11026E+04 -5.98859E+03  2.80848E+04
 -2.23759E+04  1.19411E+04 -1.75939E+04 -6.12901E+03  7.53966E+03 -7.87919E+03  2.36432E+04  1.37783E+04
  6.93338E+03  3.77505E+04 -3.41701E+04  3.74471E+04 -6.60539E+04  1.92908E+03 -5.92901E+04 -4.43838E+04
 -1.28754E+04 -6.60634E+04  4.16917E+04 -4.72283E+04  6.15168E+04 -2.48853E+03  3.72408E+04  3.47226E+04
 -5.37181E+03  3.94595E+04 -3.23250E+04  1.92054E+04 -3.35655E+04 -3.36947E+03 -1.97076E+04 -1.20581E+04
 -9.49692E+03 -1.52485E+04 -2.60007E+02 -1.99641E+04  8.43681E+03 -2.37456E+04  1.57915E+04 -1.23929E+04
  1.03397E+04  6.29211E+03 -1.03610E+04  1.26415E+04 -2.39591E+04 -6.89713E+03 -8.01583E+03 -3.78223E+04
  2.51977E+04 -4.70740E+04  5.26898E+04 -2.08781E+04  4.90163E+04  2.16742E+04  1.69288E+04  4.73232E+04
 -1.67966E+04  3.62451E+04 -2.75186E+04  2.57085E+03 -1.19528E+04 -2.94400E+04  2.16052E+04 -3.69453E+04
  4.53886E+04 -1.10412E+04  4.11082E+04  2.52450E+04  2.18963E+04  5.14644E+04 -8.71743E+03  5.68727E+04
 -3.57265E+04  3.87840E+04 -4.82136E+04  1.11494E+04 -4.77637E+04 -1.89145E+04 -2.63066E+04 -4.28342E+04
  8.14804E+03 -4.23997E+04  3.46131E+04 -1.78859E+04  3.23538E+04  1.05885E+04  4.95038E+03  2.09850E+04
 -1.37180E+04  9.92639E+03 -1.16525E+04 -7.33934E+03  5.77935E+03 -1.13396E+04  1.89409E+04  5.13595E+03
  1.47657E+04  2.26695E+04 -4.88694E+03  2.78405E+04 -2.35648E+04  1.46101E+04 -3.23077E+04 -2.72805E+03
 -2.59299E+04 -1.85301E+04 -1.24730E+04 -2.56045E+04  4.13868E+03 -2.64669E+04  2.04855E+04 -2.33298E+04
  3.26802E+04 -1.45876E+04  3.88802E+04  4.80321E+03  2.71851E+04  2.48862E+04  5.03734E+03  4.20222E+04
 -2.01508E+04  3.41118E+04 -3.06735E+04  1.16916E+04 -2.24224E+04 -1.06094E+04 -4.78748E+03 -1.25674E+04
  3.67706E+02 -1.55071E+03 -8.15093E+03  8.45433E+03 -2.09321E+04  5.02652E+03 -2.09162E+04 -1.02835E+04
 -1.19232E+04 -2.42219E+04  6.08692E+03 -2.82620E+04  1.96432E+04 -2.03975E+04  2.29373E+04 -1.42712E+03
  1.49977E+04  1.60436E+04 -1.31042E+03  2.36134E+04 -1.68153E+04  1.39280E+04 -2.41552E+04 -5.11638E+03
 -1.76189E+04 -2.12793E+04 -2.42252E+03 -2.86025E+04  1.31392E+04 -2.41517E+04  2.37158E+04 -1.25692E+04
  2.21937E+04  1.73506E+02  1.63214E+04  5.36539E+03  9.02174E+03  1.23226E+03  1.22478E+04 -2.21331E+03
  2.25068E+04  2.89318E+03  2.63054E+04  1.85649E+04  1.80830E+04  3.83867E+04 -2.45278E+03  4.57156E+04
 -2.58162E+04  3.80538E+04 -4.33315E+04  1.98955E+04 -4.63160E+04 -3.80386E+03 -3.74189E+04 -2.70990E+04
 -1.48901E+04 -3.79262E+04  1.37172E+04 -3.33470E+04  2.90736E+04 -1.57163E+04  2.46530E+04  8.04843E+03
  8.39840E+03  1.96606E+04 -1.17666E+04  1.59656E+04 -2.04909E+04  2.32228E+03 -1.55521E+04 -1.30744E+04
 -8.99779E+02 -1.98102E+04  1.07272E+04 -1.49882E+04  1.36229E+04 -1.33193E+03  3.90397E+03  9.29726E+03
 -9.36410E+03  4.69206E+03 -9.12219E+03 -7.64596E+03 -1.80028E+03 -1.85772E+04  1.22758E+04 -2.07571E+04
  2.33897E+04 -1.18395E+04  2.75896E+04  3.10056E+03  2.37524E+04  1.89581E+04  1.08209E+04  3.03735E+04
 -5.99480E+03  3.28260E+04 -2.11371E+04  1.99744E+04 -2.33452E+04  3.97850E+03 -1.59403E+04 -6.10935E+03
 -6.37718E+03 -7.22342E+03 -7.24935E+02  1.33805E+02 -3.21555E+03  3.49844E+03 -7.26219E+03  5.12251E+03
 -1.44964E+04 -1.70694E+03 -1.53353E+04 -1.23469E+04 -6.30622E+03 -1.99278E+04  6.38646E+03 -1.63520E+04
  1.35735E+04 -6.74910E+03  8.95577E+03  4.55278E+03 -6.36345E+02  6.61347E+03 -8.53543E+03  5.27659E+01
 -7.48371E+03 -9.86984E+03 -9.58722E+02 -1.60664E+04  9.57664E+03 -1.75072E+04  2.12983E+04 -9.51199E+03
  2.45413E+04  2.52437E+03  1.79682E+04  1.47544E+04  3.32598E+03  1.98515E+04 -9.61805E+03  1.60852E+04
 -1.30905E+04  4.81592E+03 -6.44775E+03 -3.47980E+03  2.25327E+03 -4.72088E+03  8.51425E+03 -1.14486E+03
  7.78630E+03  7.08155E+03  8.35165E+02  1.32700E+04 -1.01114E+04  1.23670E+04 -1.62033E+04  3.18022E+03
 -1.14837E+04 -8.61288E+03  2.58264E+02 -1.42254E+04  9.59294E+03 -7.34897E+03  9.91474E+03  3.68356E+03
  2.67117E+03  1.11244E+04 -8.68611E+03  1.24968E+04 -1.46505E+04  5.06754E+03 -1.48198E+04 -5.41768E+03
 -8.62700E+03 -1.65525E+04  4.26495E+03 -1.92286E+04  1.63740E+04 -1.16774E+04  1.85415E+04  3.03770E+03
  1.05284E+04  1.43458E+04 -1.79366E+03  1.65318E+04 -1.25549E+04  9.31095E+03 -1.38418E+04 -1.47336E+03
 -1.15471E+04 -1.14969E+04 -1.29463E+03 -1.27279E+04  7.11705E+03 -1.03083E+04  8.11453E+03 -3.62656E+03
  5.42853E+03  2.23223E+03 -8.52465E+02  2.17151E+03 -1.01060E+03 -3.35194E+03  2.31935E+03 -8.18717E+03
  1.21659E+04 -5.35976E+03  1.74382E+04  2.24094E+03  1.67789E+04  1.19865E+04  1.06229E+04  2.23772E+04
 -5.38695E+03  2.53716E+04 -2.17800E+04  1.90043E+04 -2.79297E+04  3.87448E+03 -2.21713E+04 -9.47202E+03
 -1.10432E+04 -1.82754E+04 -4.08462E+02 -1.50776E+04  5.90961E+03 -9.09398E+03  5.27642E+03 -5.74223E+03
  4.05206E+03 -3.30566E+03  4.27805E+03 -4.10175E+03  6.30777E+03 -3.79945E+03  8.45737E+03 -1.58437E+03
  1.20344E+04  2.95508E+03  6.35411E+03  9.77430E+03 -2.51764E+03  1.23844E+04 -1.23732E+04  9.54946E+03
 -1.51898E+04 -1.87232E+03 -1.05058E+04 -1.13103E+04 -1.63112E+03 -1.77550E+04  9.75979E+03 -1.73007E+04
  1.75804E+04 -9.14802E+03  2.08751E+04  2.86923E+03  1.48042E+04  1.53349E+04  2.10789E+03  1.89715E+04
 -8.14596E+03  1.55702E+04 -1.14120E+04  5.39961E+03 -7.65092E+03 -1.55560E+03 -3.20498E+03 -1.95260E+03
 -1.93775E+03 -6.15308E+02 -2.48456E+03  3.17489E+03 -6.60947E+03  2.53480E+03 -1.11895E+04 -1.38285E+03
 -7.77268E+03 -1.12228E+04 -2.19225E+02 -1.61673E+04  9.57700E+03 -1.46742E+04  1.64730E+04 -4.27685E+03
  1.56651E+04  7.84560E+03  7.62016E+03  1.45230E+04 -3.20573E+03  1.62721E+04 -1.16110E+04  1.03093E+04
 -1.53735E+04  4.74244E+02 -1.14279E+04 -9.79779E+03 -1.29025E+03 -1.36371E+04  6.96274E+03 -9.71113E+03
  1.05366E+04 -3.04066E+03  7.36448E+03  3.07549E+03  2.45381E+03  4.63352E+03  1.23303E+03  2.10746E+03
  3.13708E+03  1.39865E+03  3.41400E+03  1.98827E+03  4.48818E+03  5.87053E+03  4.01299E+03  8.47062E+03
 -2.92954E+03  1.29016E+04 -1.14111E+04  1.25783E+04 -1.66225E+04  3.25305E+03 -1.70614E+04 -7.28523E+03
 -8.14005E+03 -1.68000E+04  2.37616E+03 -1.83085E+04  1.02003E+04 -1.17036E+04  1.38166E+04 -3.05631E+03
  1.01599E+04  6.23420E+03  2.24138E+03  9.73154E+03 -4.63833E+03  6.76163E+03 -6.45461E+03 -5.38458E+02
 -2.91349E+03 -7.47332E+03  3.69101E+03 -7.20943E+03  7.58910E+03 -3.61421E+03  6.87198E+03  1.26182E+03
  3.98558E+03  3.23336E+03  2.06274E+03  3.17028E+03 -3.68307E+02  2.19371E+03  1.67874E+03 -4.23175E+02
  2.96760E+03 -1.01972E+03  6.88938E+03  2.72912E+03  3.87160E+03  9.00791E+03 -1.30354E+03  1.20355E+04
 -8.01428E+03  8.23916E+03 -1.05965E+04  1.75034E+03 -9.80007E+03 -3.89040E+03 -3.72424E+03 -6.47340E+03
  9.97979E+02 -6.10413E+03  4.49871E+03 -2.94345E+03  3.80309E+03  3.27845E+03 -1.69021E+03  5.68839E+03
 -7.04726E+03  3.17623E+03 -8.23522E+03 -3.89574E+03 -4.71161E+03 -9.27511E+03  1.17614E+03 -9.15790E+03
  5.46102E+03 -5.50270E+03  7.00620E+03 -2.92802E+02  5.41800E+03  2.85808E+03  8.54757E+02  4.90116E+03
 -3.47000E+03  1.02842E+03 -4.50267E+03 -3.90628E+03  1.84781E+03 -7.54419E+03  8.37611E+03 -5.75016E+03
  1.08978E+04  1.24365E+03  1.05217E+04  7.49565E+03  3.22182E+03  1.15099E+04 -4.09350E+03  1.06287E+04
 -9.45427E+03  4.80977E+03 -9.61049E+03 -1.64811E+03 -5.30562E+03 -7.53411E+03  1.55281E+03 -7.11609E+03
  7.31354E+03 -3.14207E+03  6.06115E+03  2.97366E+03  2.28040E+03  5.97727E+03 -1.05462E+03  5.63857E+03
 -2.87135E+03  3.81510E+03 -2.66710E+03  1.20789E+03 -1.18875E+03  1.02686E+03 -1.87966E+03  2.34712E+03
 -2.75458E+03  4.33173E+03 -7.68419E+03  4.16589E+03 -1.11775E+04  2.29921E+02 -1.30263E+04 -7.50536E+03
 -6.74103E+03 -1.49561E+04  3.59073E+03 -1.78318E+04  1.07105E+04 -1.38539E+04  1.69664E+04 -5.30316E+03
  1.56777E+04  3.63010E+03  9.70442E+03  1.05107E+04  7.55200E+02  1.21592E+04 -4.71073E+03  8.79378E+03
 -6.55973E+03  3.26005E+03 -3.94839E+03 -1.54342E+03 -1.51178E+03 -1.03001E+03 -1.01499E+03 -1.71705E+02
 -1.68225E+03  7.11175E+02 -2.45376E+03 -3.49183E+02 -1.43835E+03 -2.89531E+03  4.30848E+02 -4.46616E+03
  5.36708E+03 -4.15065E+03  7.32727E+03 -8.23964E+01  8.29329E+03  5.89936E+03  2.34613E+03  1.19999E+04
 -6.15870E+03  1.35090E+04 -1.33280E+04  7.75672E+03 -1.49399E+04 -9.11004E+02 -1.11283E+04 -8.95692E+03
 -4.13570E+03 -1.19257E+04  3.34079E+03 -1.09174E+04  8.20863E+03 -6.30243E+03  8.07227E+03  6.74545E+02
  4.23700E+03  4.35496E+03 -4.82424E+02  3.14657E+03 -2.45261E+03 -3.96429E+02 -2.78632E+02 -2.88833E+03
  3.37433E+03 -2.41208E+03  4.97567E+03  1.12251E+03  3.33321E+03  4.88982E+03  2.86176E+02  6.48747E+03
 -5.53993E+03  5.68785E+03 -8.74502E+03  9.72135E+02 -7.26757E+03 -6.12926E+03 -1.50000E+03 -1.03239E+04
  6.08699E+03 -8.73422E+03  9.66845E+03 -3.19896E+03  9.17944E+03  2.78709E+03  5.61408E+03  7.60623E+03
  1.09238E+03  8.61584E+03 -3.01249E+03  6.95955E+03 -5.49142E+03  3.37782E+03 -4.12156E+03  4.48568E+02
 -1.84795E+03 -2.56888E+02 -2.64985E+03  1.08015E+03 -4.28421E+03  1.48217E+03 -6.23966E+03 -1.26577E+03
 -6.09610E+03 -4.82078E+03 -1.84835E+03 -8.60183E+03  4.19065E+03 -8.85129E+03  7.39434E+03 -4.12746E+03
  8.24323E+03  9.84272E+02  4.76306E+03  6.45187E+03 -8.59180E+02  8.68279E+03 -5.86618E+03  5.45519E+03
