 $NMID ID='MM_0lb_SNR800_8hz_g60_25.RAW', FMTDAT='(8E13.5)'
 TRAMP=1., VOLUME=1. $END
  3.10125E+05  4.03958E+02  3.38062E+05  2.50853E+05  8.49279E+04  3.38655E+05 -1.32538E+05  2.52516E+05
 -1.91345E+05  8.39322E+04 -1.12839E+05 -3.23169E+04  7.15410E+01 -5.06365E+04  5.34112E+04 -6.49162E+02
  3.55033E+04  5.28696E+04 -1.65163E+04  7.65481E+04 -6.17919E+04  6.43842E+04 -8.60203E+04  3.26794E+04
 -8.28837E+04 -1.19342E+04 -5.87750E+04 -5.31792E+04 -1.53414E+04 -7.16959E+04  2.82464E+04 -4.71390E+04
  4.14803E+04  3.52199E+03  1.69634E+04  4.89953E+04 -3.50042E+04  4.84059E+04 -6.85811E+04 -2.10176E+02
 -5.52205E+04 -5.80487E+04 -7.95733E+03 -8.00188E+04  3.45729E+04 -5.80050E+04  5.07285E+04 -1.86664E+04
  4.65089E+04  1.18192E+04  3.38621E+04  2.69637E+04  1.56973E+04  3.08290E+04 -6.13518E+03  2.81293E+04
 -2.30415E+04  1.19763E+04 -1.77605E+04 -6.07533E+03  7.66205E+03 -7.62037E+03  2.42478E+04  1.39374E+04
  7.32557E+03  3.83531E+04 -3.46171E+04  3.77408E+04 -6.64550E+04  2.10723E+03 -5.96566E+04 -4.49192E+04
 -1.27918E+04 -6.68953E+04  4.26339E+04 -4.84292E+04  6.25088E+04 -2.76347E+03  3.81754E+04  3.50821E+04
 -5.35578E+03  4.10986E+04 -3.23609E+04  2.02002E+04 -3.45938E+04 -3.65590E+03 -1.98479E+04 -1.26955E+04
 -9.89684E+03 -1.60872E+04 -1.03870E+02 -2.03332E+04  8.68995E+03 -2.38195E+04  1.62459E+04 -1.18436E+04
  9.73451E+03  6.48573E+03 -1.13940E+04  1.29406E+04 -2.44513E+04 -7.66116E+03 -9.36254E+03 -3.86349E+04
  2.62749E+04 -4.82814E+04  5.38393E+04 -2.16013E+04  4.98350E+04  2.09372E+04  1.81301E+04  4.82748E+04
 -1.66352E+04  3.74266E+04 -2.87398E+04  2.73404E+03 -1.22754E+04 -3.03077E+04  2.18932E+04 -3.76599E+04
  4.61198E+04 -1.20457E+04  4.20395E+04  2.52988E+04  2.22875E+04  5.29895E+04 -8.25583E+03  5.81266E+04
 -3.70017E+04  4.05767E+04 -4.97536E+04  1.18825E+04 -4.99755E+04 -1.92947E+04 -2.79149E+04 -4.40248E+04
  8.12534E+03 -4.42146E+04  3.56922E+04 -1.78685E+04  3.35143E+04  1.11943E+04  5.67977E+03  2.16252E+04
 -1.38757E+04  1.05623E+04 -1.12011E+04 -7.76575E+03  5.45800E+03 -1.17205E+04  1.95762E+04  5.19384E+03
  1.54713E+04  2.28871E+04 -5.41687E+03  2.75898E+04 -2.40403E+04  1.58280E+04 -3.30452E+04 -2.62360E+03
 -2.70077E+04 -1.91426E+04 -1.29985E+04 -2.72821E+04  4.73857E+03 -2.82675E+04  2.10157E+04 -2.53792E+04
  3.44449E+04 -1.48679E+04  4.06703E+04  5.99914E+03  2.84867E+04  2.61387E+04  4.22815E+03  4.34011E+04
 -2.05640E+04  3.52293E+04 -3.22560E+04  1.25852E+04 -2.33090E+04 -1.04004E+04 -4.97977E+03 -1.28078E+04
  3.37484E+02 -3.45311E+02 -9.04591E+03  8.91634E+03 -2.20600E+04  4.91717E+03 -2.22704E+04 -1.03753E+04
 -1.26582E+04 -2.49888E+04  6.31465E+03 -2.95506E+04  2.03093E+04 -2.11281E+04  2.46204E+04 -1.65929E+03
  1.55163E+04  1.77222E+04 -1.66488E+03  2.47478E+04 -1.79938E+04  1.42890E+04 -2.55526E+04 -5.23365E+03
 -1.86227E+04 -2.27158E+04 -2.24316E+03 -3.03689E+04  1.35384E+04 -2.54903E+04  2.54544E+04 -1.33619E+04
  2.35071E+04 -1.02168E+03  1.69819E+04  5.32147E+03  9.32903E+03  1.58697E+03  1.32960E+04 -1.78013E+03
  2.39159E+04  3.06443E+03  2.79853E+04  1.96421E+04  1.93307E+04  4.05757E+04 -2.28231E+03  4.86500E+04
 -2.76281E+04  4.10657E+04 -4.60074E+04  2.15618E+04 -4.94768E+04 -3.69512E+03 -4.00954E+04 -2.94960E+04
 -1.55185E+04 -4.10689E+04  1.47113E+04 -3.60788E+04  3.05372E+04 -1.65864E+04  2.63937E+04  9.02387E+03
  8.49509E+03  2.04215E+04 -1.25825E+04  1.74454E+04 -2.17279E+04  2.76031E+03 -1.63278E+04 -1.40097E+04
 -7.18244E+02 -2.10840E+04  1.17508E+04 -1.51420E+04  1.47298E+04 -1.20146E+03  3.90520E+03  9.89062E+03
 -9.64241E+03  4.55254E+03 -1.02768E+04 -7.33238E+03 -2.50089E+03 -1.94891E+04  1.28731E+04 -2.19764E+04
  2.55034E+04 -1.31076E+04  2.93429E+04  3.47818E+03  2.58555E+04  2.07719E+04  1.17513E+04  3.31764E+04
 -6.11046E+03  3.45673E+04 -2.32086E+04  2.10972E+04 -2.58630E+04  4.52524E+03 -1.71242E+04 -6.45986E+03
 -7.06813E+03 -7.86276E+03 -6.71474E+02 -8.37872E+01 -3.00409E+03  3.80039E+03 -8.34089E+03  5.84586E+03
 -1.58032E+04 -9.93925E+02 -1.65076E+04 -1.29899E+04 -6.50490E+03 -2.14360E+04  7.37900E+03 -1.77632E+04
  1.43848E+04 -7.05476E+03  1.03460E+04  4.87304E+03 -5.21835E+02  7.08894E+03 -9.04708E+03 -2.98131E+02
 -8.78228E+03 -1.12050E+04 -1.14623E+03 -1.76115E+04  1.02511E+04 -1.90251E+04  2.23179E+04 -1.01530E+04
  2.65276E+04  3.39277E+03  1.92355E+04  1.62546E+04  2.89758E+03  2.17943E+04 -1.07705E+04  1.79669E+04
 -1.43800E+04  4.91938E+03 -7.31145E+03 -4.12115E+03  2.62070E+03 -5.17353E+03  9.14400E+03 -1.52890E+03
  8.60634E+03  7.97320E+03  1.42018E+03  1.37959E+04 -1.04446E+04  1.36136E+04 -1.75857E+04  3.37348E+03
 -1.21323E+04 -9.24958E+03  2.19140E+01 -1.52256E+04  1.06523E+04 -8.11339E+03  1.06708E+04  4.31863E+03
  2.61762E+03  1.20318E+04 -9.44089E+03  1.32097E+04 -1.57064E+04  5.82106E+03 -1.64489E+04 -6.06848E+03
 -8.56483E+03 -1.85472E+04  4.74023E+03 -2.13306E+04  1.75891E+04 -1.20372E+04  1.97882E+04  3.61007E+03
  1.11175E+04  1.58106E+04 -2.40470E+03  1.80443E+04 -1.31871E+04  9.76216E+03 -1.53635E+04 -1.70051E+03
 -1.25165E+04 -1.20762E+04 -1.87704E+03 -1.42548E+04  7.64997E+03 -1.10063E+04  9.37413E+03 -3.52530E+03
  6.02712E+03  2.67598E+03 -1.60488E+03  2.59069E+03 -8.58751E+02 -4.57342E+03  3.36386E+03 -9.55182E+03
  1.37865E+04 -6.18679E+03  1.88436E+04  2.54234E+03  1.87816E+04  1.31057E+04  1.09278E+04  2.47360E+04
 -5.94624E+03  2.79425E+04 -2.31536E+04  2.06882E+04 -3.00086E+04  3.55901E+03 -2.48097E+04 -1.04515E+04
 -1.20681E+04 -1.95049E+04 -4.80600E+02 -1.72685E+04  6.39365E+03 -1.01579E+04  6.42775E+03 -5.84440E+03
  4.47905E+03 -3.94694E+03  4.12147E+03 -4.49896E+03  6.46509E+03 -4.23221E+03  9.63456E+03 -2.16906E+03
  1.22018E+04  3.18650E+03  7.60094E+03  1.09175E+04 -2.44175E+03  1.37839E+04 -1.31494E+04  1.07057E+04
 -1.72581E+04 -1.09692E+03 -1.16306E+04 -1.23553E+04 -1.36776E+03 -1.89456E+04  1.01682E+04 -1.83576E+04
  1.96572E+04 -1.00043E+04  2.27369E+04  3.34366E+03  1.63564E+04  1.61671E+04  2.10374E+03  2.08957E+04
 -9.34814E+03  1.68064E+04 -1.26867E+04  5.85034E+03 -8.63881E+03 -2.23419E+03 -3.72251E+03 -2.56738E+03
 -1.74562E+03 -3.02854E+02 -2.24945E+03  3.63242E+03 -7.02404E+03  2.52873E+03 -1.20315E+04 -1.99567E+03
 -8.50877E+03 -1.15584E+04 -2.68858E+02 -1.78574E+04  1.12528E+04 -1.63011E+04  1.80187E+04 -5.10081E+03
  1.74472E+04  8.39649E+03  8.02875E+03  1.66073E+04 -3.67367E+03  1.80764E+04 -1.28534E+04  1.10757E+04
 -1.71710E+04  7.53106E+02 -1.30174E+04 -1.07160E+04 -1.32774E+03 -1.46552E+04  7.64802E+03 -1.11601E+04
  1.09078E+04 -3.65203E+03  7.99914E+03  3.53402E+03  3.08282E+03  5.00515E+03  1.28399E+03  2.65982E+03
  3.02642E+03  1.38695E+03  4.25867E+03  1.78940E+03  5.66002E+03  5.55446E+03  4.32261E+03  9.88058E+03
 -3.60314E+03  1.42729E+04 -1.28191E+04  1.44946E+04 -1.88549E+04  3.54066E+03 -1.92999E+04 -8.21661E+03
 -9.28866E+03 -1.78222E+04  2.72556E+03 -2.02286E+04  1.13658E+04 -1.28649E+04  1.51023E+04 -3.34663E+03
  1.19459E+04  6.99336E+03  2.61380E+03  1.09799E+04 -5.07900E+03  6.79058E+03 -7.42197E+03 -1.10976E+03
 -3.68557E+03 -8.18251E+03  4.35082E+03 -8.68385E+03  7.66270E+03 -3.32785E+03  7.42135E+03  1.95793E+03
  3.96185E+03  4.03507E+03  1.70386E+03  3.40287E+03 -1.36739E+03  2.72412E+03  2.02465E+03 -6.29897E+02
  3.39236E+03 -1.26481E+03  7.20093E+03  2.75107E+03  4.48826E+03  9.76885E+03 -1.38801E+03  1.30110E+04
 -9.19908E+03  8.69289E+03 -1.20083E+04  2.32802E+03 -1.11104E+04 -4.44981E+03 -4.30385E+03 -7.73764E+03
  9.08669E+02 -7.81489E+03  5.31253E+03 -3.58968E+03  4.19022E+03  3.72956E+03 -1.53215E+03  6.00706E+03
 -8.08908E+03  3.26795E+03 -9.39075E+03 -4.43070E+03 -5.26109E+03 -1.02047E+04  1.91675E+03 -1.10570E+04
  6.64442E+03 -6.60598E+03  7.99312E+03 -1.26343E+03  6.59776E+03  3.34593E+03  7.80755E+02  5.47923E+03
 -4.03065E+03  1.66926E+03 -4.26971E+03 -4.37238E+03  1.67399E+03 -8.28540E+03  9.90091E+03 -6.89228E+03
  1.24366E+04  9.73759E+02  1.12934E+04  8.52178E+03  3.50104E+03  1.28976E+04 -4.56998E+03  1.23450E+04
 -1.03383E+04  5.58000E+03 -1.08639E+04 -1.61928E+03 -5.89385E+03 -8.36013E+03  2.16216E+03 -8.55185E+03
  7.32671E+03 -3.45834E+03  6.91722E+03  2.96401E+03  2.51431E+03  6.83690E+03 -1.35460E+03  5.91999E+03
 -3.06187E+03  4.36836E+03 -3.22144E+03  1.10807E+03 -1.71961E+03  1.30528E+03 -1.62430E+03  2.39173E+03
 -3.15846E+03  4.46407E+03 -8.18130E+03  4.80713E+03 -1.25116E+04 -4.45928E+01 -1.39125E+04 -8.67889E+03
 -7.45047E+03 -1.69262E+04  3.33253E+03 -1.93193E+04  1.23567E+04 -1.50037E+04  1.83871E+04 -5.80790E+03
  1.76529E+04  3.71814E+03  1.07498E+04  1.22095E+04  1.44989E+03  1.40878E+04 -5.19916E+03  1.00146E+04
 -7.70971E+03  3.80511E+03 -4.72510E+03 -1.99994E+03 -1.49605E+03 -1.76784E+03 -1.09616E+03  6.62180E+01
 -1.97825E+03  5.42624E+02 -2.64855E+03 -7.42149E+02 -1.29098E+03 -3.18059E+03  3.34533E+02 -4.84678E+03
  6.00286E+03 -3.84022E+03  8.70255E+03 -6.88579E+01  9.65951E+03  7.49069E+03  3.23907E+03  1.36149E+04
 -6.17953E+03  1.56354E+04 -1.44227E+04  8.70831E+03 -1.69403E+04 -1.37404E+03 -1.23863E+04 -9.72768E+03
 -4.97246E+03 -1.39239E+04  3.79785E+03 -1.30764E+04  8.98660E+03 -7.63468E+03  9.75579E+03  1.10217E+02
  5.10811E+03  4.62672E+03 -2.15844E+02  4.06508E+03 -2.82749E+03  2.91682E+02 -1.67989E+02 -3.18560E+03
  4.23253E+03 -2.67782E+03  6.03088E+03  1.67462E+03  3.74633E+03  5.50570E+03 -2.27353E+02  7.36471E+03
 -5.87807E+03  6.15023E+03 -9.39657E+03  6.49636E+02 -8.48453E+03 -6.89810E+03 -1.49596E+03 -1.20955E+04
  6.49538E+03 -9.73419E+03  1.08884E+04 -2.77743E+03  1.04933E+04  2.85018E+03  6.18022E+03  8.59218E+03
  1.15391E+03  9.08999E+03 -4.26966E+03  7.48116E+03 -5.62782E+03  4.06269E+03 -5.27798E+03  8.64846E+02
 -2.69705E+03 -4.02947E+02 -2.55159E+03  7.31037E+02 -4.65479E+03  1.41434E+03 -7.15758E+03 -1.05966E+03
 -6.87976E+03 -5.34378E+03 -2.16464E+03 -9.51839E+03  4.21243E+03 -9.85029E+03  8.26789E+03 -4.42079E+03
  9.44849E+03  1.06410E+03  5.59466E+03  6.86096E+03 -4.46053E+02  9.40736E+03 -7.55561E+03  5.80481E+03
