 $NMID ID='MM_0lb_SNR800_20hz_g55_81.RAW', FMTDAT='(8E13.5)'
 TRAMP=1., VOLUME=1. $END
  3.09887E+05  4.80817E+02  3.37244E+05  2.50451E+05  8.43029E+04  3.37453E+05 -1.32316E+05  2.50103E+05
 -1.89886E+05  8.26914E+04 -1.10995E+05 -3.29121E+04  1.06127E+03 -5.03518E+04  5.37790E+04  4.52762E+02
  3.49326E+04  5.29094E+04 -1.67980E+04  7.46778E+04 -6.04325E+04  6.29098E+04 -8.29913E+04  3.12924E+04
 -7.98493E+04 -1.09721E+04 -5.65359E+04 -5.03699E+04 -1.48477E+04 -6.84761E+04  2.67241E+04 -4.47750E+04
  3.93864E+04  3.73734E+03  1.53578E+04  4.70306E+04 -3.37317E+04  4.63984E+04 -6.53446E+04 -4.61204E+02
 -5.22405E+04 -5.58362E+04 -6.21518E+03 -7.53449E+04  3.32849E+04 -5.35091E+04  4.65700E+04 -1.64613E+04
  4.18087E+04  1.11841E+04  3.10496E+04  2.44581E+04  1.54602E+04  2.85204E+04 -4.58504E+03  2.69434E+04
 -2.18880E+04  1.28716E+04 -1.91904E+04 -4.21775E+03  4.57119E+03 -7.51644E+03  2.13140E+04  1.11308E+04
  7.68142E+03  3.33975E+04 -3.05833E+04  3.42022E+04 -6.11028E+04  2.23087E+03 -5.54891E+04 -4.15221E+04
 -1.23978E+04 -6.10169E+04  3.78928E+04 -4.36277E+04  5.56089E+04 -2.28652E+03  3.22849E+04  3.05753E+04
 -6.26757E+03  3.32358E+04 -2.83769E+04  1.38471E+04 -2.77273E+04 -5.32624E+03 -1.47765E+04 -1.03104E+04
 -7.52710E+03 -1.16013E+04 -7.04664E+02 -1.65954E+04  6.85457E+03 -2.27831E+04  1.50832E+04 -1.38643E+04
  1.22709E+04  4.45262E+03 -6.38397E+03  1.30243E+04 -1.92983E+04 -2.42730E+03 -7.85143E+03 -3.05218E+04
  2.08038E+04 -4.07652E+04  4.46954E+04 -1.85174E+04  4.21832E+04  1.82770E+04  1.43018E+04  4.16838E+04
 -1.53161E+04  3.11561E+04 -2.36527E+04  1.18142E+03 -8.25221E+03 -2.63308E+04  2.03068E+04 -3.13063E+04
  3.77865E+04 -7.41129E+03  3.13485E+04  2.26883E+04  1.54327E+04  4.27521E+04 -7.95214E+03  4.54891E+04
 -2.83813E+04  3.00490E+04 -3.75585E+04  8.35238E+03 -3.81152E+04 -1.51717E+04 -2.14453E+04 -3.45237E+04
  6.94354E+03 -3.43448E+04  2.91529E+04 -1.25728E+04  2.69732E+04  1.05103E+04  2.54579E+03  1.75922E+04
 -1.30296E+04  7.29065E+03 -9.50494E+03 -7.70889E+03  6.13570E+03 -1.00660E+04  1.71957E+04  6.66082E+03
  1.25660E+04  2.17334E+04 -6.56624E+03  2.30004E+04 -2.16064E+04  8.93087E+03 -2.49631E+04 -6.35079E+03
 -1.66293E+04 -1.66066E+04 -5.17886E+03 -1.64966E+04  3.75862E+03 -1.48040E+04  1.21092E+04 -1.45013E+04
  2.11836E+04 -1.16751E+04  2.80331E+04  1.07377E+03  2.11491E+04  1.59489E+04  4.02360E+03  3.20566E+04
 -1.59268E+04  2.73992E+04 -2.57261E+04  9.26500E+03 -1.94106E+04 -1.05048E+04 -3.97425E+03 -1.40515E+04
  2.55802E+03 -4.06964E+03 -2.44417E+03  5.60123E+03 -1.28052E+04  5.13027E+03 -1.32965E+04 -4.74211E+03
 -8.57131E+03 -1.54308E+04  4.66937E+03 -1.89938E+04  1.20817E+04 -1.37052E+04  1.42719E+04 -1.41911E+03
  8.83893E+03  1.08176E+04 -8.29758E+02  1.51578E+04 -9.75464E+03  8.91031E+03 -1.49833E+04 -3.70062E+03
 -1.12890E+04 -1.43089E+04 -1.45882E+03 -1.87768E+04  8.58818E+03 -1.50896E+04  1.56379E+04 -7.21181E+03
  1.45794E+04  8.71778E+02  1.02889E+04  3.75843E+03  5.12849E+03  4.00251E+02  7.63337E+03 -1.54398E+03
  1.33644E+04  2.58672E+03  1.44193E+04  1.27352E+04  8.78704E+03  2.42501E+04 -2.80800E+03  2.57787E+04
 -1.54554E+04  1.96404E+04 -2.38271E+04  9.45368E+03 -2.42459E+04 -1.69328E+03 -2.09033E+04 -1.35827E+04
 -9.80122E+03 -1.96782E+04  6.76217E+03 -1.85419E+04  1.61643E+04 -1.06470E+04  1.52113E+04  3.71921E+03
  6.25781E+03  1.10109E+04 -6.93680E+03  1.02933E+04 -1.28927E+04  2.47440E+03 -9.98816E+03 -7.53876E+03
 -1.72892E+02 -1.21646E+04  5.98318E+03 -9.13625E+03  7.61515E+03 -1.31931E+03  1.45916E+03  4.94285E+03
 -5.35552E+03  8.07442E+02 -3.23748E+03 -4.69596E+03  7.37233E+02 -9.75369E+03  7.79082E+03 -9.75388E+03
  1.21691E+04 -4.46445E+03  1.13492E+04  2.80170E+03  9.54338E+03  9.26360E+03  4.63933E+03  1.33294E+04
 -1.41309E+03  1.48155E+04 -9.20681E+03  9.40708E+03 -1.05177E+04  2.88965E+03 -7.89165E+03 -1.43644E+03
 -4.46055E+03 -3.13892E+03 -5.67450E+02  1.35705E+03 -1.85793E+03  1.89532E+03 -3.44432E+03  3.48080E+03
 -7.64374E+03 -3.87471E+02 -8.32464E+03 -7.14067E+03 -3.74022E+03 -1.10307E+04  3.23090E+03 -8.07419E+03
  6.72345E+03 -3.38056E+03  4.79231E+03  2.13447E+03  4.26788E+02  2.81799E+03 -2.95217E+03 -1.64993E+02
 -2.82985E+03 -4.92586E+03 -7.70753E+02 -6.84416E+03  3.77669E+03 -7.49413E+03  9.37460E+03 -3.72427E+03
  1.09048E+04  4.04138E+02  8.35850E+03  5.86097E+03  1.51254E+03  8.13886E+03 -4.99922E+03  8.09248E+03
 -6.79673E+03  2.69535E+03 -3.21686E+03 -1.41404E+03  1.40594E+03 -1.77951E+03  4.69558E+03 -9.10869E+02
  4.01659E+03  3.17625E+03  1.04877E+03  5.84146E+03 -4.09118E+03  6.07262E+03 -7.37191E+03  1.69531E+03
 -4.43552E+03 -3.29692E+03  2.73457E+02 -6.15322E+03  3.39064E+03 -2.92331E+03  3.13766E+03  6.18633E+02
  3.78707E+02  3.16149E+03 -3.57037E+03  4.46300E+03 -4.27471E+03  2.09292E+03 -3.76152E+03 -1.08762E+03
 -2.53389E+03 -5.26908E+03  8.74004E+02 -6.27003E+03  5.35721E+03 -4.25315E+03  5.61227E+03  9.66414E+02
  4.50337E+03  4.79254E+03  3.66323E+02  6.51702E+03 -4.45277E+03  3.80404E+03 -4.49189E+03 -5.14589E+02
 -5.48281E+03 -4.84058E+03 -1.50381E+03 -4.40010E+03  2.35351E+03 -4.20589E+03  2.54544E+03 -3.04110E+03
  2.80251E+03  1.34319E+02  1.24469E+02  1.18528E+03  4.97222E+02 -9.19958E-01  7.53743E+01 -1.51211E+03
  3.55516E+03 -4.07737E+02  4.39890E+03  3.06555E+02  4.85782E+03  2.42668E+03  5.03020E+03  6.41569E+03
 -1.02759E+03  7.31928E+03 -7.08665E+03  5.71185E+03 -8.71721E+03  1.23268E+03 -6.83737E+03 -1.98225E+03
 -3.67686E+03 -5.94690E+03 -7.27152E+02 -4.56479E+03  1.82428E+03 -1.69058E+03  1.51561E+03 -1.91870E+03
  1.24826E+03 -1.33681E+03  2.05956E+03 -2.15289E+03  3.28337E+03 -1.07859E+03  3.34610E+03  5.57835E+02
  4.31219E+03  1.28936E+03  4.71314E+02  2.63416E+03 -1.56018E+03  2.03752E+03 -3.72491E+03  2.21014E+03
 -4.37567E+03 -9.17148E+02 -1.50521E+03 -2.80475E+03  2.95256E+02 -4.04808E+03  2.65258E+03 -4.83805E+03
  4.26766E+03 -2.87927E+03  5.90494E+03  1.96343E+02  4.23620E+03  3.51184E+03  1.15690E+03  5.29350E+03
 -1.66071E+03  5.00819E+03 -2.91921E+03  1.65132E+03 -1.50787E+03 -1.08261E+03 -3.55711E+02 -4.09443E+02
 -4.03841E+02  3.13837E+02 -8.34108E+02  1.82792E+03 -2.10985E+03  1.07276E+03 -3.77041E+03 -1.10449E+02
 -1.19403E+03 -3.42573E+03  9.90385E+02 -3.90568E+03  2.25779E+03 -3.67333E+03  2.93651E+03 -1.00488E+03
  3.27838E+03  1.83332E+03  1.72537E+03  2.97509E+03 -4.81177E+02  3.64974E+03 -2.05749E+03  2.19587E+03
 -2.90804E+03  4.32798E+02 -2.60577E+03 -1.81719E+03 -1.00750E+02 -2.49877E+03  1.11564E+03 -1.92942E+03
  2.19785E+03 -1.11050E+03  1.40907E+03  2.15999E+02  1.91092E+02  1.36323E+03  6.35695E+02  2.78997E+02
  1.82702E+03  5.76161E+02  8.20705E+02  1.09693E+03  9.03959E+02  2.04909E+03  1.31048E+03  1.19647E+03
 -1.08476E+03  2.51399E+03 -2.30247E+03  3.70968E+03 -2.04742E+03  1.10093E+03 -3.54554E+03 -9.86717E+01
 -1.26929E+03 -2.68712E+03  5.91135E+02 -3.49515E+03  1.26496E+03 -2.03373E+03  2.53014E+03 -8.91846E+02
  2.11011E+03  1.69045E+03  2.98112E+02  2.01474E+03 -5.35369E+02  1.12041E+03 -7.98630E+02  1.03128E+02
 -7.34068E+02 -1.16857E+03  8.50833E+02 -1.01460E+03  7.18167E+02 -6.59516E+02  7.59788E+02  1.85193E+02
  5.01126E+02  9.42809E+01  8.21018E+02 -3.99762E+02 -1.46443E+01  5.92024E+02  1.63796E+03 -3.42119E+02
 -1.20336E+02 -4.63422E+02  1.67589E+03  3.72113E+02  1.41931E+02  2.00539E+03 -2.30690E+02  2.40935E+03
 -1.08842E+03  7.57924E+02 -1.62666E+03  4.53879E+02 -1.41766E+03 -1.41599E+02  2.12114E+02 -3.94274E+02
  3.75006E+02 -6.09003E+02  4.94793E+02 -5.81166E+02  4.64729E+02  1.02561E+03 -6.14010E+02  5.15469E+02
 -1.24914E+03  4.82580E+02 -7.58766E+02 -1.47634E+03 -6.02683E+02 -1.76221E+03  2.98948E+02 -1.18083E+03
 -2.82033E+02 -3.02357E+02  3.41653E+02  2.91578E+02  9.64039E+02 -2.45528E+02  4.13338E+02  1.14329E+03
 -2.67699E+02 -1.42439E+02 -7.47555E+02  3.32383E+02  5.95804E+02 -4.25863E+02  1.25679E+03 -5.72656E+02
  6.15473E+02  6.23413E+01  2.43151E+03  3.34637E+02  9.62832E+02  1.13260E+03 -2.63143E+02  1.44734E+03
 -1.10818E+03  1.13787E+02 -1.16840E+03 -4.38527E+01 -5.96994E+02 -9.47753E+02  3.29186E+02  4.91329E+00
  1.19153E+03 -6.73188E+02  4.24026E+02  4.14719E+02  7.63514E+01  9.29619E+02  3.45201E+02  7.81408E+02
 -1.30901E+02  1.17498E+03 -2.86221E+02  3.85607E+02 -2.01912E+01  3.38224E+02 -8.92865E+02  4.64995E+02
 -4.45114E+02  8.72762E+02 -1.38609E+03  1.80836E+02 -1.35895E+03 -8.11530E+01 -1.87837E+03 -6.21599E+02
 -7.00480E+02 -1.57911E+03  3.34600E+02 -2.01955E+03  2.96593E+02 -2.09220E+03  2.02220E+03 -8.32809E+02
  1.71541E+03 -3.89114E+02  8.07720E+02  1.08610E+03 -4.37376E+02  5.21602E+02 -6.08925E+02  8.32997E+02
 -3.71764E+02  5.02491E+02 -4.28953E+02 -2.92340E+01 -3.19561E+02  5.16733E+02 -5.95698E+02  9.06307E+00
 -7.75286E+02 -5.77448E+01 -6.75674E+02 -5.48782E+00  5.19898E+02 -4.81701E+02 -2.26275E+02 -7.13857E+02
  7.51592E+02 -3.46914E+02 -4.21055E+01  1.27613E+02  8.81381E+02  8.18052E+02 -8.15864E+02  7.79425E+02
 -5.96326E+02  1.63685E+03 -8.81066E+02  1.04525E+03 -1.03247E+03 -3.83620E+02 -5.11927E+02 -7.57170E+02
 -7.77359E+02 -7.42381E+02  1.36910E+02 -6.16680E+02  1.43076E+02 -4.28503E+02  4.82318E+02  2.28571E+02
  7.06947E+02  2.29604E+02 -2.37648E+02  3.19918E+02 -2.21054E+02  3.11266E+01 -3.61359E+01 -4.04089E+00
  2.83128E+02  2.16679E+02  1.46803E+02  5.91808E+02  1.29009E+02  2.03355E+02  6.42025E+02  5.02113E+01
 -4.39191E+02  1.71874E+02 -2.31351E+02  2.25548E+02 -4.52310E+02 -3.66893E+02 -8.05404E+01 -8.22186E+02
  3.80072E+02 -5.44869E+01  1.53384E+02  1.56986E+02  6.27047E+02 -7.89698E+02  1.95305E+02  5.86571E+02
  3.41439E+02  4.69428E+02  6.14706E+00  3.61841E+02 -1.69876E+02  2.14909E+02 -2.91476E+02  1.04127E+02
 -7.75810E-01 -1.47145E+02 -2.56420E+02  3.90173E+02 -2.71808E+02 -1.65929E+02 -5.54212E+02 -1.74992E+02
 -9.38069E+02  2.34541E+02 -3.10866E+02 -5.52358E+02  4.70410E+02 -9.93075E+02  3.94699E+02 -1.25173E+02
  3.05670E+02  1.01370E+02 -4.27972E+02  2.11906E+02 -1.04658E+02  7.01428E+02  1.40008E+02  6.23481E+02
