 $NMID ID='MM_0lb_SNR800_9hz_g55_18.RAW', FMTDAT='(8E13.5)'
 TRAMP=1., VOLUME=1. $END
  3.09471E+05  2.06258E+02  3.38304E+05  2.50639E+05  8.53619E+04  3.38465E+05 -1.32813E+05  2.52199E+05
 -1.90669E+05  8.40520E+04 -1.12648E+05 -3.20250E+04  2.88084E+02 -5.07204E+04  5.38007E+04 -3.21336E+02
  3.57699E+04  5.28945E+04 -1.65705E+04  7.59128E+04 -6.10607E+04  6.49082E+04 -8.53734E+04  3.27081E+04
 -8.23942E+04 -1.18570E+04 -5.81383E+04 -5.24893E+04 -1.50668E+04 -7.14088E+04  2.82387E+04 -4.72110E+04
  4.11166E+04  3.75521E+03  1.72839E+04  4.86663E+04 -3.47425E+04  4.80568E+04 -6.81811E+04  9.07134E+01
 -5.55067E+04 -5.78288E+04 -7.69475E+03 -7.92037E+04  3.50977E+04 -5.72697E+04  5.01481E+04 -1.88995E+04
  4.53000E+04  1.14033E+04  3.30688E+04  2.70340E+04  1.56958E+04  3.03850E+04 -6.13038E+03  2.74986E+04
 -2.26230E+04  1.17898E+04 -1.78589E+04 -5.87104E+03  7.40920E+03 -7.55205E+03  2.36139E+04  1.40986E+04
  7.48884E+03  3.77688E+04 -3.41284E+04  3.69962E+04 -6.59372E+04  1.73136E+03 -5.89585E+04 -4.45579E+04
 -1.26655E+04 -6.63986E+04  4.17655E+04 -4.73385E+04  6.18076E+04 -2.77264E+03  3.69515E+04  3.47910E+04
 -5.40714E+03  3.96618E+04 -3.21203E+04  1.93134E+04 -3.33617E+04 -3.56956E+03 -1.89646E+04 -1.24296E+04
 -9.90054E+03 -1.50472E+04 -6.96316E+02 -1.98831E+04  8.92535E+03 -2.37637E+04  1.58204E+04 -1.32146E+04
  1.06184E+04  6.63873E+03 -1.05514E+04  1.33304E+04 -2.38243E+04 -6.75405E+03 -8.76235E+03 -3.79530E+04
  2.53953E+04 -4.71711E+04  5.25575E+04 -2.10433E+04  4.87274E+04  2.06530E+04  1.70809E+04  4.74067E+04
 -1.69514E+04  3.64900E+04 -2.78325E+04  2.78895E+03 -1.20952E+04 -2.94499E+04  2.11393E+04 -3.72138E+04
  4.49914E+04 -1.15907E+04  4.11167E+04  2.50911E+04  2.18190E+04  5.14869E+04 -8.20142E+03  5.70437E+04
 -3.61136E+04  3.87423E+04 -4.83202E+04  1.08589E+04 -4.84969E+04 -1.88031E+04 -2.64517E+04 -4.24177E+04
  7.99563E+03 -4.26200E+04  3.44074E+04 -1.74736E+04  3.23408E+04  1.12304E+04  5.36757E+03  2.08973E+04
 -1.40066E+04  9.87817E+03 -1.05593E+04 -7.40221E+03  5.45184E+03 -1.15529E+04  1.90393E+04  5.76341E+03
  1.48820E+04  2.27379E+04 -5.47392E+03  2.72828E+04 -2.32006E+04  1.48663E+04 -3.21613E+04 -2.37030E+03
 -2.64126E+04 -1.87347E+04 -1.21737E+04 -2.52779E+04  4.89215E+03 -2.64827E+04  2.01847E+04 -2.31740E+04
  3.28006E+04 -1.43698E+04  3.90982E+04  5.48362E+03  2.70702E+04  2.47999E+04  4.81177E+03  4.18341E+04
 -2.03692E+04  3.39356E+04 -3.07124E+04  1.18779E+04 -2.28150E+04 -1.03354E+04 -4.81298E+03 -1.26754E+04
  6.68667E+02 -1.04129E+03 -7.88648E+03  8.44348E+03 -2.08086E+04  4.88891E+03 -2.05043E+04 -9.95080E+03
 -1.23251E+04 -2.40996E+04  5.96058E+03 -2.79111E+04  1.88657E+04 -2.03503E+04  2.32568E+04 -2.00009E+03
  1.50843E+04  1.63629E+04 -1.40676E+03  2.37883E+04 -1.69679E+04  1.37131E+04 -2.44092E+04 -4.79280E+03
 -1.75015E+04 -2.15673E+04 -2.65083E+03 -2.86832E+04  1.30741E+04 -2.35378E+04  2.33773E+04 -1.24233E+04
  2.19560E+04 -5.42332E+02  1.64516E+04  5.41564E+03  9.17163E+03  1.08694E+03  1.23703E+04 -2.22864E+03
  2.22668E+04  2.86216E+03  2.64322E+04  1.86204E+04  1.81172E+04  3.87078E+04 -2.64877E+03  4.53481E+04
 -2.56725E+04  3.75167E+04 -4.31021E+04  1.95623E+04 -4.60147E+04 -3.39105E+03 -3.72763E+04 -2.66772E+04
 -1.47679E+04 -3.84476E+04  1.33032E+04 -3.35074E+04  2.86747E+04 -1.55046E+04  2.48521E+04  8.38757E+03
  8.38907E+03  1.92629E+04 -1.20427E+04  1.57515E+04 -2.04547E+04  2.13182E+03 -1.50716E+04 -1.32625E+04
 -1.81366E+02 -1.96830E+04  1.08817E+04 -1.46101E+04  1.36571E+04 -9.00016E+02  3.43201E+03  9.16362E+03
 -9.09759E+03  4.67634E+03 -9.33282E+03 -7.21722E+03 -2.39021E+03 -1.89529E+04  1.17332E+04 -2.07606E+04
  2.35848E+04 -1.13617E+04  2.68980E+04  3.33134E+03  2.35050E+04  1.88658E+04  1.13511E+04  3.03657E+04
 -5.83942E+03  3.18455E+04 -2.10538E+04  1.98764E+04 -2.35766E+04  3.93325E+03 -1.56452E+04 -6.13566E+03
 -7.10329E+03 -7.64002E+03 -5.55732E+02  6.39684E+02 -2.80647E+03  3.68525E+03 -7.26860E+03  5.72377E+03
 -1.48172E+04 -9.19876E+02 -1.48571E+04 -1.22146E+04 -6.05189E+03 -1.99113E+04  6.32402E+03 -1.61714E+04
  1.32064E+04 -7.06538E+03  9.46856E+03  4.47746E+03 -2.00678E+02  6.43551E+03 -7.90869E+03 -3.50653E+02
 -7.62398E+03 -1.02311E+04 -1.05504E+03 -1.57227E+04  9.45621E+03 -1.68914E+04  2.11318E+04 -9.25728E+03
  2.37189E+04  2.54583E+03  1.78719E+04  1.49826E+04  3.87636E+03  1.95366E+04 -9.90410E+03  1.63940E+04
 -1.30818E+04  4.36651E+03 -6.86171E+03 -3.42822E+03  1.84396E+03 -4.28715E+03  8.48553E+03 -1.13110E+03
  7.39893E+03  7.27636E+03  1.60504E+03  1.32752E+04 -9.35604E+03  1.25422E+04 -1.59532E+04  2.91879E+03
 -1.11011E+04 -8.36180E+03  3.50666E+02 -1.37854E+04  8.96782E+03 -7.16408E+03  9.45612E+03  3.74409E+03
  2.14256E+03  1.07701E+04 -8.46103E+03  1.23670E+04 -1.42821E+04  5.34826E+03 -1.43300E+04 -4.97555E+03
 -8.59984E+03 -1.63013E+04  3.73030E+03 -1.86591E+04  1.62130E+04 -1.15237E+04  1.76101E+04  3.51580E+03
  1.01285E+04  1.38699E+04 -1.61804E+03  1.61752E+04 -1.17799E+04  9.21154E+03 -1.34907E+04 -1.22063E+03
 -1.10987E+04 -1.07718E+04 -1.98719E+03 -1.26594E+04  6.33294E+03 -1.03898E+04  8.26611E+03 -3.96608E+03
  5.08510E+03  2.17055E+03 -1.31828E+03  1.79469E+03 -7.46560E+02 -3.53606E+03  2.73115E+03 -7.63626E+03
  1.20677E+04 -5.10842E+03  1.61846E+04  1.87695E+03  1.61720E+04  1.16626E+04  1.00343E+04  2.16041E+04
 -4.97512E+03  2.54062E+04 -2.04563E+04  1.82898E+04 -2.67860E+04  3.91562E+03 -2.17512E+04 -9.58193E+03
 -1.05611E+04 -1.75837E+04 -6.25105E+01 -1.48594E+04  5.22043E+03 -8.29084E+03  5.56908E+03 -5.12172E+03
  4.09708E+03 -3.17810E+03  3.93461E+03 -3.86076E+03  6.39149E+03 -3.92295E+03  8.28199E+03 -1.57337E+03
  1.13077E+04  2.63623E+03  5.74615E+03  9.78891E+03 -2.52958E+03  1.17591E+04 -1.23209E+04  9.19511E+03
 -1.50842E+04 -1.21020E+03 -9.84511E+03 -1.08286E+04 -1.68730E+03 -1.67175E+04  8.64520E+03 -1.63899E+04
  1.67698E+04 -9.00716E+03  2.04850E+04  3.04485E+03  1.39415E+04  1.43276E+04  2.16308E+03  1.85668E+04
 -7.28226E+03  1.46591E+04 -1.09932E+04  5.12003E+03 -7.36240E+03 -2.16830E+03 -3.25613E+03 -2.02750E+03
 -1.54143E+03 -4.13258E+02 -2.04276E+03  2.70626E+03 -5.95947E+03  2.58161E+03 -1.09437E+04 -2.01075E+03
 -7.76879E+03 -1.05963E+04 -1.09943E+02 -1.54910E+04  9.37038E+03 -1.37396E+04  1.56330E+04 -4.26397E+03
  1.51899E+04  7.22853E+03  7.08895E+03  1.36867E+04 -3.32548E+03  1.55737E+04 -1.12802E+04  9.58734E+03
 -1.43422E+04  7.88802E+02 -1.11011E+04 -9.52776E+03 -1.14532E+03 -1.30553E+04  6.88557E+03 -9.62070E+03
  1.01806E+04 -2.83312E+03  6.83147E+03  2.49431E+03  2.92707E+03  4.16328E+03  1.16970E+03  2.53339E+03
  2.94658E+03  1.19818E+03  3.58845E+03  1.56937E+03  4.57840E+03  5.66514E+03  3.81405E+03  8.58397E+03
 -2.95905E+03  1.24814E+04 -1.10550E+04  1.19781E+04 -1.62161E+04  2.89537E+03 -1.67486E+04 -6.81257E+03
 -7.90862E+03 -1.56906E+04  2.57006E+03 -1.69987E+04  9.54129E+03 -1.08409E+04  1.30862E+04 -3.30745E+03
  9.67773E+03  6.08549E+03  2.57237E+03  9.26824E+03 -4.70945E+03  6.13162E+03 -6.50699E+03 -1.33143E+03
 -3.31068E+03 -6.91367E+03  3.44873E+03 -6.89920E+03  6.38717E+03 -3.43445E+03  6.14767E+03  1.14366E+03
  4.09135E+03  3.28489E+03  1.58909E+03  2.56319E+03 -8.35226E+02  1.86979E+03  1.39104E+03 -4.55287E+02
  2.76953E+03 -6.34758E+02  6.53536E+03  2.43603E+03  3.63643E+03  8.41512E+03 -1.25984E+03  1.13963E+04
 -7.73173E+03  7.15256E+03 -1.02027E+04  1.84246E+03 -9.61806E+03 -3.47690E+03 -3.61080E+03 -6.40256E+03
  6.88466E+02 -6.53436E+03  4.57820E+03 -2.93045E+03  3.57012E+03  3.10176E+03 -1.58388E+03  5.09512E+03
 -6.27074E+03  3.27904E+03 -7.53482E+03 -3.40526E+03 -4.43503E+03 -8.41370E+03  1.53660E+03 -8.94282E+03
  5.48997E+03 -5.41181E+03  6.35485E+03 -1.35463E+02  5.23373E+03  2.48474E+03  5.17802E+02  5.00104E+03
 -3.03117E+03  1.59008E+03 -3.67879E+03 -3.19571E+03  1.50807E+03 -6.43470E+03  7.59204E+03 -5.53753E+03
  1.03797E+04  1.03078E+03  9.54637E+03  6.59654E+03  2.86706E+03  1.04322E+04 -3.68110E+03  9.70880E+03
 -8.54595E+03  4.38958E+03 -8.85444E+03 -1.56323E+03 -4.95631E+03 -6.70623E+03  1.76661E+03 -6.85542E+03
  6.39559E+03 -3.00763E+03  5.68459E+03  2.62233E+03  1.86453E+03  5.69717E+03 -1.02593E+03  5.06295E+03
 -2.74679E+03  3.12070E+03 -2.45614E+03  8.96436E+02 -1.21296E+03  1.35834E+03 -2.01280E+03  2.11469E+03
 -2.49151E+03  3.85592E+03 -7.03426E+03  3.28593E+03 -1.02136E+04  5.09903E+02 -1.15354E+04 -6.85279E+03
 -6.14504E+03 -1.38672E+04  2.85888E+03 -1.61061E+04  9.99316E+03 -1.23674E+04  1.49766E+04 -4.82892E+03
  1.39945E+04  3.27876E+03  8.71270E+03  9.41097E+03  7.22777E+02  1.16674E+04 -3.73872E+03  8.33148E+03
 -6.42637E+03  2.86598E+03 -3.85188E+03 -1.13557E+03 -1.51424E+03 -1.18809E+03 -5.80972E+02 -3.11786E+02
 -1.79230E+03  5.66741E+02 -2.19702E+03 -4.09699E+02 -9.82234E+02 -2.42967E+03  4.55692E+02 -4.42317E+03
  4.88904E+03 -3.54354E+03  6.66750E+03  1.88905E+02  7.97074E+03  5.88597E+03  2.20731E+03  1.12831E+04
 -5.15222E+03  1.25348E+04 -1.16582E+04  7.08852E+03 -1.34947E+04 -9.57368E+02 -1.00047E+04 -7.72070E+03
 -4.52975E+03 -1.10396E+04  2.68792E+03 -1.03060E+04  7.40486E+03 -5.68004E+03  7.51952E+03  6.71941E+02
  3.73668E+03  3.78960E+03 -5.31945E+02  2.86099E+03 -2.00899E+03 -2.02350E+02 -1.26199E+02 -2.86215E+03
  3.39975E+03 -1.66759E+03  4.33919E+03  1.84230E+03  2.93022E+03  3.90139E+03  9.02086E+01  5.81524E+03
 -4.85810E+03  5.38661E+03 -7.47371E+03  4.94100E+02 -6.36298E+03 -5.26834E+03 -4.25485E+02 -9.10191E+03
  4.94492E+03 -7.75885E+03  8.06486E+03 -2.31771E+03  8.80719E+03  2.37108E+03  5.10197E+03  6.47833E+03
  8.49414E+02  7.47509E+03 -3.34684E+03  6.02431E+03 -4.45248E+03  3.17423E+03 -3.57122E+03  4.27210E+02
 -2.23885E+03 -4.38077E+02 -2.22547E+03  9.07561E+02 -3.80120E+03  1.69621E+03 -5.60615E+03 -1.13969E+03
 -5.30704E+03 -3.40740E+03 -1.85355E+03 -7.28611E+03  3.56276E+03 -7.75117E+03  6.43042E+03 -3.61694E+03
  7.39273E+03  1.25470E+03  3.72925E+03  5.69482E+03 -7.31092E+02  7.54052E+03 -5.57244E+03  4.80414E+03
