 $NMID ID='MM_0lb_SNR800_13hz_g50_71.RAW', FMTDAT='(8E13.5)'
 TRAMP=1., VOLUME=1. $END
  3.09615E+05  3.76058E+02  3.37753E+05  2.50420E+05  8.49015E+04  3.38355E+05 -1.32646E+05  2.51006E+05
 -1.90467E+05  8.33968E+04 -1.11983E+05 -3.27257E+04  8.19855E+02 -5.03050E+04  5.38376E+04 -2.10777E+02
  3.50979E+04  5.29570E+04 -1.67969E+04  7.50234E+04 -6.07086E+04  6.38085E+04 -8.43434E+04  3.19733E+04
 -8.12701E+04 -1.18728E+04 -5.75786E+04 -5.14605E+04 -1.50625E+04 -7.01363E+04  2.77499E+04 -4.59006E+04
  4.04728E+04  3.89725E+03  1.65570E+04  4.80884E+04 -3.47498E+04  4.75168E+04 -6.70624E+04 -1.34341E+02
 -5.38062E+04 -5.74220E+04 -6.88069E+03 -7.75427E+04  3.41799E+04 -5.53775E+04  4.84049E+04 -1.72686E+04
  4.38877E+04  1.14610E+04  3.20469E+04  2.56471E+04  1.56075E+04  2.97288E+04 -5.61042E+03  2.70769E+04
 -2.20857E+04  1.23924E+04 -1.84264E+04 -5.17794E+03  5.99653E+03 -7.39652E+03  2.28179E+04  1.25219E+04
  7.11508E+03  3.54484E+04 -3.26996E+04  3.56486E+04 -6.36365E+04  2.37452E+03 -5.74483E+04 -4.26777E+04
 -1.26858E+04 -6.35924E+04  4.01747E+04 -4.56512E+04  5.93012E+04 -2.33962E+03  3.46662E+04  3.27113E+04
 -5.91062E+03  3.68827E+04 -3.05656E+04  1.66204E+04 -3.07036E+04 -4.35753E+03 -1.73362E+04 -1.13526E+04
 -8.63344E+03 -1.33975E+04 -3.07042E+02 -1.83451E+04  7.75036E+03 -2.29594E+04  1.55324E+04 -1.31051E+04
  1.12499E+04  5.77675E+03 -8.79535E+03  1.31431E+04 -2.19499E+04 -4.87109E+03 -8.45858E+03 -3.43252E+04
  2.33364E+04 -4.39082E+04  4.88560E+04 -1.98158E+04  4.60300E+04  1.92322E+04  1.63356E+04  4.50820E+04
 -1.62367E+04  3.41152E+04 -2.58220E+04  2.41957E+03 -1.04662E+04 -2.79164E+04  2.12911E+04 -3.44072E+04
  4.18389E+04 -9.50549E+03  3.65765E+04  2.37790E+04  1.87763E+04  4.74959E+04 -8.15906E+03  5.16098E+04
 -3.25683E+04  3.47310E+04 -4.34531E+04  9.92778E+03 -4.38443E+04 -1.69476E+04 -2.43062E+04 -3.89703E+04
  7.30342E+03 -3.86771E+04  3.23018E+04 -1.52769E+04  3.01840E+04  1.10027E+04  4.53261E+03  1.97184E+04
 -1.36753E+04  8.73744E+03 -1.03624E+04 -7.41949E+03  5.84115E+03 -1.09344E+04  1.85195E+04  5.98155E+03
  1.37158E+04  2.22796E+04 -6.18580E+03  2.55704E+04 -2.26359E+04  1.19501E+04 -2.88390E+04 -4.46153E+03
 -2.18278E+04 -1.75567E+04 -8.97455E+03 -2.15815E+04  4.26980E+03 -2.10271E+04  1.66537E+04 -1.94018E+04
  2.73379E+04 -1.32222E+04  3.39478E+04  2.91807E+03  2.44774E+04  2.11985E+04  4.20820E+03  3.76089E+04
 -1.81492E+04  3.10774E+04 -2.81279E+04  1.04623E+04 -2.13684E+04 -1.00572E+04 -4.19078E+03 -1.34086E+04
  1.85931E+03 -2.64776E+03 -5.63043E+03  6.86076E+03 -1.71061E+04  5.14465E+03 -1.71604E+04 -7.39218E+03
 -1.01274E+04 -1.95817E+04  5.11527E+03 -2.44895E+04  1.60329E+04 -1.71900E+04  1.93790E+04 -1.90145E+03
  1.20570E+04  1.39363E+04 -1.22129E+03  2.02779E+04 -1.39131E+04  1.15565E+04 -1.97999E+04 -4.09639E+03
 -1.47070E+04 -1.80584E+04 -1.70848E+03 -2.38945E+04  1.08856E+04 -2.02057E+04  2.01026E+04 -9.97592E+03
  1.87090E+04  2.69029E+02  1.30532E+04  4.79040E+03  6.99806E+03  1.04172E+03  1.00803E+04 -1.92303E+03
  1.83367E+04  2.87739E+03  2.04626E+04  1.60331E+04  1.37698E+04  3.16097E+04 -2.60779E+03  3.61989E+04
 -2.09299E+04  2.93100E+04 -3.38535E+04  1.48417E+04 -3.51498E+04 -2.58116E+03 -2.94427E+04 -2.04587E+04
 -1.20051E+04 -2.94539E+04  9.80945E+03 -2.62919E+04  2.26846E+04 -1.32570E+04  2.01784E+04  5.81469E+03
  7.54144E+03  1.54133E+04 -9.36709E+03  1.32439E+04 -1.67021E+04  2.31478E+03 -1.27918E+04 -1.05303E+04
 -3.56442E+01 -1.60390E+04  8.38722E+03 -1.19888E+04  1.06874E+04 -1.23605E+03  2.39739E+03  7.39275E+03
 -7.14781E+03  2.74454E+03 -6.61267E+03 -6.13247E+03 -5.03583E+02 -1.41690E+04  1.03452E+04 -1.50915E+04
  1.80062E+04 -8.14245E+03  1.96570E+04  3.07905E+03  1.73100E+04  1.44007E+04  7.76143E+03  2.20373E+04
 -3.57648E+03  2.37246E+04 -1.53486E+04  1.47855E+04 -1.73591E+04  3.60159E+03 -1.22855E+04 -3.84181E+03
 -5.60696E+03 -5.27671E+03 -6.38788E+02  6.17173E+02 -2.28175E+03  2.91680E+03 -5.57689E+03  4.81504E+03
 -1.09742E+04 -8.84158E+02 -1.19361E+04 -9.51878E+03 -4.55481E+03 -1.57159E+04  5.00733E+03 -1.24491E+04
  1.01905E+04 -5.43599E+03  7.11352E+03  3.40705E+03  2.71677E+02  4.69639E+03 -5.51591E+03 -5.72516E+02
 -5.39150E+03 -7.65900E+03 -1.27702E+03 -1.15736E+04  6.28005E+03 -1.22000E+04  1.49919E+04 -6.86124E+03
  1.78579E+04  1.47033E+03  1.31089E+04  1.05610E+04  2.70183E+03  1.38750E+04 -7.60468E+03  1.18903E+04
 -1.01858E+04  3.84497E+03 -5.22298E+03 -2.37401E+03  1.59371E+03 -2.99366E+03  6.46201E+03 -1.10507E+03
  6.16878E+03  5.21047E+03  9.89160E+02  9.56430E+03 -7.02443E+03  9.48708E+03 -1.15809E+04  2.58751E+03
 -7.59438E+03 -5.98786E+03 -1.02497E+02 -9.69218E+03  6.43322E+03 -4.97671E+03  6.43653E+03  2.38163E+03
  1.26440E+03  6.89623E+03 -6.19148E+03  8.03156E+03 -9.22800E+03  3.78832E+03 -9.45784E+03 -2.89291E+03
 -5.64954E+03 -1.10385E+04  2.73090E+03 -1.24570E+04  1.07598E+04 -7.53539E+03  1.15866E+04  1.75102E+03
  7.46579E+03  9.07662E+03 -7.30924E+02  1.15932E+04 -8.20570E+03  6.35675E+03 -9.07735E+03 -8.39101E+02
 -8.23616E+03 -7.63829E+03 -1.47232E+03 -8.52833E+03  4.28470E+03 -7.04295E+03  5.15200E+03 -2.98252E+03
  3.43852E+03  1.40862E+03 -4.06344E+02  1.75150E+03 -5.32630E+02 -1.82337E+03  1.36230E+03 -4.33958E+03
  7.26189E+03 -2.32442E+03  1.03232E+04  1.33927E+03  1.04341E+04  7.07593E+03  7.25270E+03  1.40833E+04
 -2.84118E+03  1.60761E+04 -1.35701E+04  1.20251E+04 -1.76417E+04  2.29644E+03 -1.38852E+04 -5.47833E+03
 -7.63007E+03 -1.16025E+04 -1.73114E+02 -9.75084E+03  3.62148E+03 -4.89168E+03  3.69440E+03 -3.59887E+03
  2.72436E+03 -2.46708E+03  3.47475E+03 -2.81490E+03  4.87691E+03 -2.62295E+03  6.35751E+03 -3.16860E+02
  7.73621E+03  1.81904E+03  3.05506E+03  6.11213E+03 -1.84494E+03  6.56766E+03 -7.72087E+03  5.68896E+03
 -1.00102E+04 -1.06488E+03 -5.28477E+03 -6.91794E+03 -4.28726E+02 -1.02429E+04  5.81324E+03 -1.03588E+04
  1.02240E+04 -5.90638E+03  1.29652E+04  1.53155E+03  9.07254E+03  8.63240E+03  1.64304E+03  1.13496E+04
 -4.58947E+03  1.00482E+04 -6.73503E+03  3.21082E+03 -4.34486E+03 -1.20176E+03 -1.63484E+03 -1.25840E+03
 -1.20869E+03  2.90094E+02 -1.51314E+03  2.65080E+03 -4.41758E+03  1.65674E+03 -6.93137E+03 -8.72582E+02
 -4.00852E+03 -7.19426E+03  1.47117E+02 -9.28585E+03  5.78422E+03 -8.46267E+03  9.07016E+03 -2.56838E+03
  8.75227E+03  4.21377E+03  4.07488E+03  7.88317E+03 -1.92443E+03  9.29905E+03 -6.24470E+03  5.95818E+03
 -8.55618E+03  8.68279E+02 -6.61979E+03 -5.54507E+03 -7.03952E+02 -7.51360E+03  3.83029E+03 -5.29454E+03
  5.70590E+03 -2.14974E+03  3.84593E+03  1.31710E+03  1.33670E+03  2.79630E+03  1.10312E+03  1.22830E+03
  2.21124E+03  9.10746E+02  2.19909E+03  1.31375E+03  2.46557E+03  3.71488E+03  2.43578E+03  4.38884E+03
 -2.38943E+03  6.86345E+03 -6.00826E+03  7.66244E+03 -8.36105E+03  2.01710E+03 -9.31519E+03 -2.97056E+03
 -4.66911E+03 -8.65539E+03  1.56191E+03 -9.95360E+03  5.63133E+03 -5.96371E+03  6.96674E+03 -1.58177E+03
  5.48181E+03  3.36712E+03  1.45713E+03  5.22794E+03 -2.27479E+03  2.98894E+03 -3.13595E+03 -6.23899E+02
 -1.52224E+03 -3.61710E+03  2.42908E+03 -3.66124E+03  3.62340E+03 -2.04469E+03  3.34438E+03  8.07701E+02
  1.72633E+03  1.51359E+03  1.10423E+03  1.08608E+03 -5.33169E+02  1.41904E+03  1.50466E+03 -5.41170E+02
  8.13784E+02 -2.81979E+02  3.59627E+03  1.36749E+03  1.85709E+03  4.85825E+03 -4.44284E+02  6.28964E+03
 -4.30814E+03  3.75164E+03 -5.22572E+03  7.67990E+02 -4.95120E+03 -2.29424E+03 -1.57824E+03 -3.14808E+03
  7.62282E+02 -3.32858E+03  2.33799E+03 -1.82864E+03  1.59221E+03  2.04186E+03 -1.08930E+03  2.61001E+03
 -3.51644E+03  1.88692E+03 -3.71661E+03 -2.11170E+03 -2.24680E+03 -4.71853E+03  4.63813E+02 -4.51256E+03
  2.46479E+03 -2.34692E+03  3.11606E+03 -2.05761E+02  2.84365E+03  4.75379E+02  5.55028E+02  2.67397E+03
 -1.30007E+03  5.95747E+02 -2.04702E+03 -1.38099E+03  1.11140E+03 -3.46050E+03  4.08222E+03 -2.87612E+03
  4.70462E+03  2.79543E+02  5.32613E+03  3.34624E+03  1.90271E+03  4.89776E+03 -1.56708E+03  4.92317E+03
 -4.27225E+03  1.73418E+03 -4.64570E+03 -1.10189E+03 -2.19815E+03 -3.18068E+03  8.20378E+02 -2.84103E+03
  3.40481E+03 -1.52075E+03  2.57438E+03  1.44806E+03  8.54721E+02  2.85821E+03 -9.34585E+01  2.58728E+03
 -1.16425E+03  2.14945E+03 -1.10998E+03  1.91061E+02 -3.97526E+02  3.95097E+02 -1.19292E+03  1.14655E+03
 -1.42748E+03  1.99070E+03 -3.43145E+03  1.54082E+03 -5.11308E+03  5.36988E+02 -6.37597E+03 -3.44149E+03
 -3.17054E+03 -6.74443E+03  1.24010E+03 -7.99701E+03  4.29548E+03 -6.18918E+03  7.40411E+03 -2.68034E+03
  6.68726E+03  1.01378E+03  3.74192E+03  4.39519E+03  2.87815E+02  5.17050E+03 -2.19380E+03  3.76313E+03
 -2.95855E+03  1.39576E+03 -2.15578E+03 -9.72170E+02 -9.94408E+02 -2.59396E+02 -7.97757E+02  1.66757E+02
 -1.05609E+03  6.59552E+01 -1.10104E+03 -1.73981E+02 -3.00698E+02 -1.51718E+03 -9.98216E+01 -1.98262E+03
  2.66225E+03 -1.49619E+03  2.41101E+03  2.69200E+02  3.44272E+03  2.70667E+03  8.86388E+02  4.60088E+03
 -2.46993E+03  5.59923E+03 -5.32979E+03  3.44636E+03 -5.82595E+03 -6.16173E+02 -4.38904E+03 -3.71743E+03
 -1.77739E+03 -4.71075E+03  9.10602E+02 -4.51853E+03  3.12001E+03 -2.18111E+03  2.85987E+03  2.53248E+01
  1.75819E+03  1.51947E+03  2.99826E+02  1.04103E+03 -1.18970E+03 -1.51689E+02 -4.04781E+02 -1.14761E+03
  1.63184E+03 -3.98142E+02  1.61694E+03  7.78271E+02  1.38284E+03  1.82805E+03  1.33626E+02  2.40924E+03
 -2.00803E+03  2.00189E+03 -2.92894E+03  3.32974E+02 -2.81631E+03 -2.14869E+03 -3.93900E+02 -3.97255E+03
  2.27525E+03 -3.09996E+03  3.26582E+03 -1.17646E+03  3.65879E+03  4.21665E+02  1.87324E+03  2.88793E+03
  6.66023E+02  3.17192E+03 -1.08753E+03  2.31492E+03 -1.90155E+03  1.74832E+03 -1.63272E+03  4.12522E+02
 -7.49825E+02  2.14910E+02 -9.54571E+02  4.87272E+02 -1.77145E+03  6.60746E+01 -2.37278E+03 -3.90013E+02
 -2.26255E+03 -1.21150E+03 -7.86112E+02 -2.93480E+03  1.58025E+03 -3.75407E+03  2.54418E+03 -1.40642E+03
  2.71031E+03  3.49095E+01  7.33566E+02  1.72723E+03 -1.40897E+02  3.19186E+03 -2.14316E+03  1.49106E+03
