 $NMID ID='MM_0lb_SNR800_16hz_g60_24.RAW', FMTDAT='(8E13.5)'
 TRAMP=1., VOLUME=1. $END
  3.09554E+05  4.35857E+02  3.37405E+05  2.50676E+05  8.44695E+04  3.38408E+05 -1.32524E+05  2.51409E+05
 -1.90221E+05  8.33255E+04 -1.11845E+05 -3.27587E+04  8.17104E+02 -5.04308E+04  5.36426E+04 -3.07970E+02
  3.53823E+04  5.27461E+04 -1.68198E+04  7.56251E+04 -6.09142E+04  6.34531E+04 -8.41314E+04  3.20488E+04
 -8.11240E+04 -1.15625E+04 -5.73191E+04 -5.10445E+04 -1.50740E+04 -6.97771E+04  2.73740E+04 -4.57498E+04
  4.01248E+04  3.76447E+03  1.62299E+04  4.78118E+04 -3.43685E+04  4.74711E+04 -6.70065E+04 -2.51016E+02
 -5.37276E+04 -5.68286E+04 -6.74596E+03 -7.69785E+04  3.35865E+04 -5.50463E+04  4.82206E+04 -1.70372E+04
  4.32828E+04  1.14061E+04  3.18599E+04  2.52445E+04  1.56062E+04  2.92886E+04 -5.33210E+03  2.75295E+04
 -2.22106E+04  1.24515E+04 -1.87779E+04 -5.15654E+03  6.04869E+03 -7.68761E+03  2.24095E+04  1.23558E+04
  7.42497E+03  3.51756E+04 -3.25539E+04  3.55902E+04 -6.35413E+04  2.10024E+03 -5.73941E+04 -4.29953E+04
 -1.25221E+04 -6.30552E+04  3.97820E+04 -4.52310E+04  5.83285E+04 -2.12780E+03  3.41763E+04  3.21519E+04
 -6.26672E+03  3.60588E+04 -3.03949E+04  1.61472E+04 -3.04826E+04 -4.52857E+03 -1.69149E+04 -1.06703E+04
 -8.45518E+03 -1.32087E+04 -5.29038E+02 -1.80328E+04  7.58674E+03 -2.32900E+04  1.53451E+04 -1.32420E+04
  1.12348E+04  5.12894E+03 -8.42657E+03  1.31143E+04 -2.09234E+04 -4.34363E+03 -8.28822E+03 -3.35326E+04
  2.29891E+04 -4.38485E+04  4.80647E+04 -1.95542E+04  4.51886E+04  1.94897E+04  1.55638E+04  4.39190E+04
 -1.59391E+04  3.33934E+04 -2.53117E+04  1.89133E+03 -9.57840E+03 -2.78419E+04  2.11672E+04 -3.38249E+04
  4.09680E+04 -9.07208E+03  3.56793E+04  2.39660E+04  1.82391E+04  4.66599E+04 -8.04859E+03  5.01035E+04
 -3.16892E+04  3.39390E+04 -4.20056E+04  9.66270E+03 -4.24837E+04 -1.68221E+04 -2.36390E+04 -3.77662E+04
  7.53100E+03 -3.75298E+04  3.14837E+04 -1.48574E+04  2.88409E+04  1.09164E+04  3.79368E+03  1.92725E+04
 -1.33277E+04  8.39575E+03 -1.02329E+04 -7.38213E+03  5.73092E+03 -1.06764E+04  1.79703E+04  5.84219E+03
  1.34596E+04  2.21430E+04 -6.08938E+03  2.51034E+04 -2.23279E+04  1.11831E+04 -2.80796E+04 -5.10272E+03
 -2.02690E+04 -1.73123E+04 -8.26394E+03 -2.02385E+04  3.97201E+03 -1.93181E+04  1.56857E+04 -1.80272E+04
  2.58106E+04 -1.26366E+04  3.22528E+04  2.72568E+03  2.37434E+04  1.97434E+04  4.40669E+03  3.60023E+04
 -1.75037E+04  3.01762E+04 -2.76626E+04  1.08287E+04 -2.06488E+04 -1.02410E+04 -4.44845E+03 -1.34202E+04
  2.03127E+03 -3.21097E+03 -4.38563E+03  6.70769E+03 -1.58921E+04  5.36303E+03 -1.61989E+04 -6.69999E+03
 -1.02680E+04 -1.87498E+04  5.10391E+03 -2.26607E+04  1.52211E+04 -1.65022E+04  1.76621E+04 -1.45545E+03
  1.12060E+04  1.27882E+04 -8.93295E+02  1.87803E+04 -1.30740E+04  1.07002E+04 -1.85358E+04 -4.00465E+03
 -1.37891E+04 -1.66577E+04 -1.93075E+03 -2.27018E+04  1.00141E+04 -1.83960E+04  1.86783E+04 -9.39627E+03
  1.76686E+04  8.87917E+01  1.25880E+04  4.62214E+03  6.58113E+03  1.08897E+03  9.25023E+03 -1.75880E+03
  1.70781E+04  2.70435E+03  1.89884E+04  1.48550E+04  1.22059E+04  2.95603E+04 -2.89083E+03  3.31698E+04
 -1.96069E+04  2.66243E+04 -3.06571E+04  1.33139E+04 -3.22055E+04 -1.83227E+03 -2.71261E+04 -1.87700E+04
 -1.18816E+04 -2.69292E+04  9.02022E+03 -2.39451E+04  2.05585E+04 -1.25325E+04  1.88448E+04  4.77484E+03
  7.07311E+03  1.40842E+04 -8.67675E+03  1.24592E+04 -1.57354E+04  2.72994E+03 -1.22703E+04 -9.94776E+03
 -3.93867E+01 -1.47883E+04  7.76250E+03 -1.12576E+04  1.00308E+04 -1.55249E+03  2.09858E+03  6.34708E+03
 -6.73522E+03  2.17244E+03 -5.81635E+03 -5.30253E+03 -4.45882E+02 -1.26985E+04  9.18707E+03 -1.34646E+04
  1.57910E+04 -6.67783E+03  1.67929E+04  2.81484E+03  1.42693E+04  1.27410E+04  7.15240E+03  1.92742E+04
 -3.04759E+03  2.09634E+04 -1.30344E+04  1.31216E+04 -1.52449E+04  3.16788E+03 -1.05631E+04 -3.27232E+03
 -5.42622E+03 -4.36258E+03 -6.42444E+02  1.07369E+03 -2.47504E+03  2.43877E+03 -4.71319E+03  4.24620E+03
 -1.00137E+04 -3.92327E+02 -1.06828E+04 -8.59668E+03 -4.38993E+03 -1.42479E+04  4.48074E+03 -1.08902E+04
  9.05425E+03 -4.63031E+03  6.48515E+03  2.78035E+03  5.65298E+02  4.10456E+03 -4.70165E+03 -1.15015E+02
 -4.81224E+03 -6.76455E+03 -1.00626E+03 -9.99828E+03  5.75025E+03 -1.03398E+04  1.30745E+04 -5.44404E+03
  1.53249E+04  1.11107E+03  1.12972E+04  8.51772E+03  1.96385E+03  1.18216E+04 -6.49745E+03  1.04355E+04
 -8.57165E+03  3.23026E+03 -4.69893E+03 -1.90616E+03  1.69672E+03 -2.61437E+03  6.03885E+03 -1.31235E+03
  5.01629E+03  4.21518E+03  1.02157E+03  8.38104E+03 -5.95313E+03  8.32784E+03 -1.01785E+04  1.91546E+03
 -6.60781E+03 -4.92580E+03  3.52240E+02 -8.71444E+03  5.26837E+03 -4.20744E+03  5.47958E+03  1.53529E+03
  9.32096E+02  5.34149E+03 -5.13463E+03  6.65560E+03 -7.44569E+03  3.38051E+03 -7.21251E+03 -2.28152E+03
 -4.65010E+03 -8.72179E+03  2.02745E+03 -1.00659E+04  8.59129E+03 -6.28248E+03  9.44180E+03  1.57789E+03
  5.91251E+03  7.55850E+03 -4.80336E+02  9.54281E+03 -6.84301E+03  5.68616E+03 -7.43414E+03 -4.93181E+02
 -7.06100E+03 -6.51863E+03 -1.44084E+03 -6.99469E+03  3.85916E+03 -5.85130E+03  4.11053E+03 -3.14540E+03
  3.52796E+03  5.39218E+02 -8.61005E+01  1.59737E+03  2.76541E+02 -1.07905E+03  6.16877E+02 -3.17924E+03
  5.61204E+03 -1.82606E+03  8.28002E+03  1.08465E+03  8.25760E+03  5.22418E+03  6.29019E+03  1.09306E+04
 -2.25550E+03  1.23402E+04 -1.07505E+04  9.47306E+03 -1.41939E+04  1.70246E+03 -1.10214E+04 -4.08287E+03
 -6.04251E+03 -9.24131E+03 -4.16197E+02 -7.65358E+03  2.87832E+03 -3.80830E+03  2.68842E+03 -2.82501E+03
  1.83942E+03 -1.86975E+03  2.40677E+03 -2.57380E+03  4.00563E+03 -1.71261E+03  4.96034E+03 -2.21106E+02
  6.08513E+03  1.41076E+03  2.26109E+03  5.05792E+03 -2.03596E+03  5.18445E+03 -6.23489E+03  4.17916E+03
 -7.44393E+03 -1.22345E+03 -3.78265E+03 -5.34627E+03 -2.38785E+02 -7.33612E+03  4.74310E+03 -7.77194E+03
  7.71321E+03 -4.29771E+03  9.61480E+03  9.06723E+02  7.23653E+03  6.44475E+03  1.38097E+03  8.73335E+03
 -3.36678E+03  7.78310E+03 -4.85560E+03  2.57920E+03 -2.94794E+03 -1.41243E+03 -1.03510E+03 -9.68973E+02
 -5.50696E+02  3.09614E+02 -1.35826E+03  2.51694E+03 -3.43432E+03  1.60266E+03 -5.47135E+03 -7.50754E+02
 -2.84399E+03 -5.34239E+03  7.05988E+02 -7.01824E+03  3.97643E+03 -6.50562E+03  5.89856E+03 -1.64569E+03
  6.24836E+03  3.40857E+03  2.94147E+03  5.41575E+03 -1.20293E+03  6.74806E+03 -4.30926E+03  4.23104E+03
 -6.11287E+03  5.80923E+02 -4.99541E+03 -3.65380E+03 -5.35206E+02 -5.11464E+03  2.69635E+03 -3.89983E+03
  4.08200E+03 -1.88145E+03  2.77519E+03  9.20533E+02  8.44076E+02  2.11437E+03  5.79607E+02  9.41101E+02
  1.91655E+03  3.23580E+02  1.80294E+03  1.12235E+03  1.72397E+03  2.72395E+03  1.96632E+03  3.08958E+03
 -1.75051E+03  5.10775E+03 -4.28303E+03  5.58502E+03 -5.46109E+03  1.67359E+03 -6.39164E+03 -1.80041E+03
 -2.90555E+03 -5.88264E+03  9.76980E+02 -7.15149E+03  3.34407E+03 -4.38536E+03  4.62391E+03 -1.07768E+03
  4.11543E+03  2.45950E+03  1.00255E+03  3.45892E+03 -1.54308E+03  2.09840E+03 -2.19185E+03 -3.58011E+02
 -8.54517E+02 -2.48507E+03  1.59145E+03 -2.74595E+03  1.81254E+03 -1.56828E+03  2.31642E+03  4.76539E+02
  1.41982E+03  7.12319E+02  4.96743E+02  3.96911E+02 -3.62807E+02  9.68443E+02  1.68795E+03 -7.76704E+01
  4.38373E+02 -1.61343E+02  2.76952E+03  1.08467E+03  8.99935E+02  3.66646E+03 -5.79624E+02  4.28455E+03
 -2.41079E+03  2.15395E+03 -3.39537E+03  8.24762E+02 -3.37222E+03 -8.76141E+02 -6.22396E+02 -1.79829E+03
  6.43750E+02 -1.89996E+03  1.32408E+03 -1.39547E+03  1.43900E+03  1.72899E+03 -9.30192E+02  1.76215E+03
 -2.30263E+03  1.08962E+03 -2.41627E+03 -1.61070E+03 -7.89363E+02 -3.26197E+03  5.10765E+02 -2.80324E+03
  1.25216E+03 -1.30631E+03  1.66462E+03 -2.66983E+02  1.75432E+03  2.61200E+02  5.64094E+02  1.87949E+03
 -8.45684E+02  3.37679E+02 -1.40889E+03 -9.81171E+02  8.72893E+02 -1.73856E+03  2.50541E+03 -9.27950E+02
  2.66230E+03  3.13127E+02  3.69750E+03  1.54744E+03  1.27386E+03  2.94994E+03 -7.31254E+02  3.05668E+03
 -2.30227E+03  1.02954E+03 -2.37117E+03 -3.45910E+02 -1.77728E+03 -1.75180E+03  4.09607E+02 -1.43800E+03
  1.99629E+03 -1.23121E+03  1.17913E+03  8.89355E+02  4.16570E+02  2.01683E+03  2.54889E+02  2.11272E+03
 -7.01171E+02  1.43400E+03 -7.14274E+02  5.24509E+02  9.26394E+01  5.98226E+02 -9.49844E+02  9.85412E+02
 -6.59648E+02  1.25115E+03 -2.40571E+03  7.78606E+02 -2.63119E+03  2.20286E+02 -3.69282E+03 -1.53872E+03
 -1.73366E+03 -3.66716E+03  9.44641E+02 -4.53522E+03  2.21945E+03 -3.79636E+03  4.55787E+03 -1.51626E+03
  3.80511E+03  4.39360E+02  1.96881E+03  2.56471E+03 -2.41805E+02  2.62675E+03 -9.68143E+02  2.27412E+03
 -1.74906E+03  1.11529E+03 -9.04026E+02 -3.27093E+02 -7.40478E+02 -1.37723E+02 -6.21887E+02  1.04514E+01
 -1.21236E+03 -1.19059E+02 -9.41052E+02 -1.27310E+02 -1.07824E+02 -9.25466E+02  3.74319E+01 -1.02347E+03
  1.26354E+03 -9.23884E+02  8.21540E+02  1.13410E+02  2.00823E+03  1.46228E+03 -2.28487E+02  2.37569E+03
 -1.29282E+03  3.24241E+03 -2.85282E+03  2.20159E+03 -2.98101E+03 -2.92673E+02 -2.19118E+03 -1.98392E+03
 -1.26599E+03 -2.46183E+03  5.63697E+02 -1.99716E+03  1.44671E+03 -1.14813E+03  1.53185E+03  6.33424E+02
  1.07045E+03  5.89636E+02  3.03278E+01  6.13870E+02 -6.36846E+02  5.71578E+01 -4.67731E+02 -3.71370E+02
  1.15536E+03  1.60369E+01  5.00561E+02  6.04518E+02  5.29545E+02  7.33683E+02  3.82654E+02  8.74878E+02
 -8.55443E+02  1.20790E+03 -1.31623E+03  3.25591E+02 -1.40278E+03 -8.77479E+02 -1.12956E+02 -1.91528E+03
  7.68560E+02 -1.57747E+03  1.11954E+03 -2.31282E+02  1.67548E+03 -3.77823E+02  1.03222E+03  1.38061E+03
  6.15005E+02  1.40152E+03 -4.38426E+02  1.23246E+03 -1.18690E+03  1.03241E+03 -7.45053E+02  1.38581E+02
 -4.04527E+02 -5.76504E+01 -6.20315E+02  1.11698E+02 -1.30759E+03  1.85439E+02 -1.34177E+03 -3.49305E+02
 -1.32052E+03 -2.37871E+02 -5.64162E+02 -1.28449E+03  8.76586E+02 -2.09827E+03  1.14693E+03 -5.06936E+02
  1.12615E+03  4.41912E+01 -1.45547E+02  7.53456E+02 -7.57060E+01  1.55974E+03 -9.08493E+02  1.36354E+03
