 $NMID ID='MM_0lb_SNR800_13hz_g50_5.RAW', FMTDAT='(8E13.5)'
 TRAMP=1., VOLUME=1. $END
  3.09451E+05  5.03998E+02  3.37482E+05  2.50423E+05  8.51091E+04  3.38042E+05 -1.32351E+05  2.51124E+05
 -1.90387E+05  8.31929E+04 -1.11900E+05 -3.29793E+04  7.03510E+02 -5.05124E+04  5.37346E+04 -4.87350E+02
  3.53588E+04  5.27927E+04 -1.70149E+04  7.54616E+04 -6.09249E+04  6.37096E+04 -8.43415E+04  3.21515E+04
 -8.10331E+04 -1.11541E+04 -5.77171E+04 -5.13011E+04 -1.50365E+04 -6.96751E+04  2.78240E+04 -4.58791E+04
  4.04460E+04  3.80786E+03  1.63494E+04  4.79192E+04 -3.44993E+04  4.72608E+04 -6.68606E+04 -6.21623E+02
 -5.36416E+04 -5.71533E+04 -6.56812E+03 -7.73955E+04  3.42526E+04 -5.55302E+04  4.83918E+04 -1.72450E+04
  4.37598E+04  1.15117E+04  3.24516E+04  2.57504E+04  1.58400E+04  2.95686E+04 -5.23966E+03  2.73786E+04
 -2.20360E+04  1.23194E+04 -1.85668E+04 -5.03487E+03  6.01989E+03 -7.75450E+03  2.24911E+04  1.26619E+04
  7.29077E+03  3.57309E+04 -3.20400E+04  3.60012E+04 -6.38505E+04  2.31135E+03 -5.74243E+04 -4.32561E+04
 -1.28230E+04 -6.37480E+04  4.04415E+04 -4.60794E+04  5.86142E+04 -2.34869E+03  3.48730E+04  3.29508E+04
 -6.06919E+03  3.67328E+04 -3.04986E+04  1.67317E+04 -3.12011E+04 -4.09797E+03 -1.75087E+04 -1.11544E+04
 -8.45863E+03 -1.36894E+04 -7.83594E+02 -1.82830E+04  7.83715E+03 -2.33500E+04  1.53937E+04 -1.31443E+04
  1.14516E+04  5.49468E+03 -8.83956E+03  1.30366E+04 -2.18383E+04 -5.13328E+03 -8.27400E+03 -3.47281E+04
  2.33126E+04 -4.45420E+04  4.87916E+04 -1.99885E+04  4.59168E+04  1.95499E+04  1.60349E+04  4.49581E+04
 -1.58889E+04  3.40576E+04 -2.54967E+04  1.86504E+03 -1.02107E+04 -2.81705E+04  2.11051E+04 -3.45301E+04
  4.15945E+04 -9.42063E+03  3.65635E+04  2.40760E+04  1.85646E+04  4.78073E+04 -8.15354E+03  5.16350E+04
 -3.24542E+04  3.45451E+04 -4.32318E+04  1.01473E+04 -4.36205E+04 -1.71758E+04 -2.41755E+04 -3.87503E+04
  7.47038E+03 -3.86553E+04  3.19816E+04 -1.52278E+04  2.99271E+04  1.10426E+04  4.49657E+03  1.95691E+04
 -1.38785E+04  8.78920E+03 -1.03086E+04 -7.81241E+03  5.94204E+03 -1.06201E+04  1.81701E+04  6.14266E+03
  1.37337E+04  2.20198E+04 -5.96322E+03  2.57473E+04 -2.23988E+04  1.24083E+04 -2.88175E+04 -3.93443E+03
 -2.15387E+04 -1.77143E+04 -9.08634E+03 -2.13339E+04  4.24518E+03 -2.12074E+04  1.68208E+04 -1.93723E+04
  2.74598E+04 -1.29718E+04  3.38445E+04  3.08130E+03  2.46330E+04  2.07168E+04  3.98030E+03  3.74501E+04
 -1.84657E+04  3.05587E+04 -2.88489E+04  1.06072E+04 -2.08534E+04 -1.02137E+04 -4.69064E+03 -1.32090E+04
  1.48346E+03 -2.58630E+03 -5.59763E+03  6.96915E+03 -1.68427E+04  5.06160E+03 -1.71851E+04 -7.38516E+03
 -1.03896E+04 -1.99982E+04  5.74789E+03 -2.39972E+04  1.58857E+04 -1.69226E+04  1.92990E+04 -1.60076E+03
  1.19992E+04  1.39819E+04 -8.70018E+02  2.02831E+04 -1.39024E+04  1.12933E+04 -1.97139E+04 -4.02804E+03
 -1.47258E+04 -1.78584E+04 -1.93178E+03 -2.41306E+04  1.08413E+04 -1.97429E+04  1.98400E+04 -9.79307E+03
  1.86669E+04 -3.34325E+01  1.35146E+04  4.44083E+03  7.19797E+03  1.31887E+03  1.01773E+04 -1.67762E+03
  1.84557E+04  2.76229E+03  2.06753E+04  1.52806E+04  1.38423E+04  3.20089E+04 -2.78911E+03  3.63054E+04
 -2.11422E+04  2.92671E+04 -3.38836E+04  1.48288E+04 -3.59506E+04 -2.32169E+03 -2.96233E+04 -2.03889E+04
 -1.26566E+04 -2.96095E+04  1.01092E+04 -2.64892E+04  2.24724E+04 -1.32793E+04  1.99721E+04  5.89622E+03
  7.55886E+03  1.57470E+04 -9.61553E+03  1.31883E+04 -1.73444E+04  2.63720E+03 -1.26423E+04 -1.07723E+04
 -2.83911E+02 -1.59901E+04  8.31018E+03 -1.20402E+04  1.06870E+04 -1.56545E+03  2.18342E+03  6.70409E+03
 -7.29217E+03  2.50666E+03 -6.55392E+03 -5.95986E+03 -7.30013E+02 -1.43677E+04  9.91278E+03 -1.51362E+04
  1.78614E+04 -7.94085E+03  1.95257E+04  3.08970E+03  1.69594E+04  1.45273E+04  7.90328E+03  2.22431E+04
 -3.78618E+03  2.36681E+04 -1.55941E+04  1.50587E+04 -1.72927E+04  3.38392E+03 -1.21891E+04 -3.97396E+03
 -5.63664E+03 -5.46596E+03 -5.07540E+02  9.79608E+02 -2.53657E+03  2.83783E+03 -5.57888E+03  4.78746E+03
 -1.15557E+04 -5.26628E+02 -1.18457E+04 -9.69062E+03 -4.69847E+03 -1.56339E+04  5.17996E+03 -1.23001E+04
  1.00650E+04 -5.08749E+03  7.23615E+03  3.19270E+03  1.40030E+02  4.72127E+03 -5.49548E+03 -3.01348E+01
 -5.73493E+03 -8.07100E+03 -7.59344E+02 -1.15485E+04  6.67633E+03 -1.22565E+04  1.52734E+04 -6.35554E+03
  1.79731E+04  1.42789E+03  1.32791E+04  1.04032E+04  2.43168E+03  1.40792E+04 -7.50888E+03  1.20163E+04
 -9.98905E+03  3.75789E+03 -5.08320E+03 -2.46494E+03  1.65478E+03 -3.34912E+03  6.28241E+03 -1.19082E+03
  5.76183E+03  5.38131E+03  1.25968E+03  9.52255E+03 -6.67417E+03  9.20065E+03 -1.13318E+04  2.31001E+03
 -7.57784E+03 -6.36095E+03  2.44229E+02 -1.00816E+04  6.45426E+03 -5.20181E+03  6.40366E+03  2.26663E+03
  1.53360E+03  6.72193E+03 -6.26173E+03  8.20284E+03 -9.23470E+03  3.51058E+03 -9.28291E+03 -3.33513E+03
 -5.62051E+03 -1.07304E+04  2.57416E+03 -1.27643E+04  1.06568E+04 -7.84073E+03  1.15775E+04  2.14485E+03
  7.23497E+03  9.01344E+03 -7.85799E+02  1.14805E+04 -8.60033E+03  6.39908E+03 -8.96573E+03 -9.65772E+02
 -8.31322E+03 -7.80003E+03 -1.70564E+03 -8.52641E+03  4.19289E+03 -6.87377E+03  5.28651E+03 -3.04027E+03
  3.78946E+03  1.29936E+03 -3.33649E+02  1.58308E+03  1.90850E+01 -1.89290E+03  1.47925E+03 -4.78508E+03
  7.70440E+03 -2.83381E+03  1.05165E+04  1.21359E+03  1.05803E+04  6.96087E+03  7.58308E+03  1.39648E+04
 -2.99056E+03  1.63143E+04 -1.32779E+04  1.21090E+04 -1.75863E+04  2.32090E+03 -1.40374E+04 -5.75572E+03
 -7.30818E+03 -1.16129E+04 -4.30651E+02 -9.55377E+03  3.88861E+03 -5.02384E+03  3.49173E+03 -3.85486E+03
  2.58854E+03 -2.27033E+03  3.00384E+03 -2.88787E+03  4.90755E+03 -2.72098E+03  5.80852E+03 -4.79846E+02
  7.45605E+03  1.88030E+03  3.30482E+03  6.56366E+03 -2.04013E+03  7.04236E+03 -7.60067E+03  5.32773E+03
 -9.55582E+03 -1.18064E+03 -5.15923E+03 -6.73069E+03 -3.40229E+02 -1.02143E+04  5.29447E+03 -1.03046E+04
  1.05052E+04 -6.09350E+03  1.28699E+04  1.33755E+03  9.19852E+03  8.51657E+03  1.43414E+03  1.17160E+04
 -4.74372E+03  9.88314E+03 -6.77322E+03  3.36769E+03 -4.02946E+03 -1.24916E+03 -1.86736E+03 -1.59499E+03
 -9.35920E+02  1.85707E+02 -1.48513E+03  2.18389E+03 -4.20959E+03  1.68605E+03 -7.14039E+03 -9.70239E+02
 -4.28636E+03 -6.67335E+03  4.47298E+02 -9.45459E+03  5.54713E+03 -8.40695E+03  9.05343E+03 -2.64083E+03
  8.97921E+03  5.04343E+03  4.26247E+03  8.05812E+03 -1.86404E+03  8.90654E+03 -6.54517E+03  5.80105E+03
 -8.29922E+03  5.91016E+02 -6.83717E+03 -5.71853E+03 -7.52245E+02 -7.58441E+03  3.71491E+03 -5.57881E+03
  5.71080E+03 -2.29306E+03  3.99851E+03  1.48852E+03  1.25846E+03  2.80159E+03  9.54956E+02  1.09108E+03
  2.15047E+03  6.75584E+02  2.17871E+03  1.68200E+03  2.81594E+03  3.63836E+03  2.66513E+03  4.49701E+03
 -1.93196E+03  6.92335E+03 -5.88197E+03  7.26397E+03 -8.53789E+03  2.09247E+03 -9.08372E+03 -3.00051E+03
 -4.56827E+03 -8.92704E+03  1.58993E+03 -9.98518E+03  5.13565E+03 -6.22259E+03  6.94065E+03 -1.94462E+03
  5.45435E+03  3.38734E+03  1.12707E+03  5.15242E+03 -2.12214E+03  3.00355E+03 -3.18869E+03 -1.97667E+02
 -1.73960E+03 -3.78182E+03  2.11742E+03 -3.85297E+03  3.51130E+03 -1.90830E+03  3.39479E+03  8.28743E+02
  2.20321E+03  1.90851E+03  1.09226E+03  8.00641E+02 -6.79018E+02  1.07441E+03  1.75758E+03 -1.47816E+02
  1.17394E+03 -3.61233E+02  3.76234E+03  1.16471E+03  1.67232E+03  4.76495E+03 -7.89547E+02  6.15104E+03
 -3.79960E+03  3.51415E+03 -5.43803E+03  7.86505E+02 -5.07066E+03 -1.84695E+03 -1.39598E+03 -2.87629E+03
  4.43886E+02 -3.39543E+03  2.20444E+03 -1.72135E+03  1.75877E+03  1.88697E+03 -1.11195E+03  3.03427E+03
 -3.40992E+03  1.63985E+03 -3.69991E+03 -1.72333E+03 -1.77299E+03 -4.55075E+03  5.05488E+02 -4.55897E+03
  2.56464E+03 -2.32781E+03  3.11346E+03 -3.15599E+02  2.76992E+03  5.15452E+02  7.02844E+02  2.24708E+03
 -1.90158E+03  3.03049E+02 -2.12549E+03 -1.70231E+03  1.06856E+03 -3.40868E+03  4.24122E+03 -2.47545E+03
  4.55620E+03  3.36694E+02  5.52416E+03  3.02530E+03  1.75038E+03  5.37769E+03 -1.64909E+03  4.94192E+03
 -4.31333E+03  1.72355E+03 -4.15276E+03 -6.88686E+02 -2.66827E+03 -3.33519E+03  7.24288E+02 -2.65127E+03
  3.31128E+03 -1.63678E+03  2.85523E+03  1.55845E+03  8.67643E+02  3.10166E+03 -1.03555E+02  2.27727E+03
 -1.45867E+03  1.82208E+03 -1.20953E+03  6.84226E+02 -1.98108E+02  8.10443E+02 -1.01821E+03  1.07488E+03
 -1.31469E+03  2.13941E+03 -4.06983E+03  1.62803E+03 -4.82233E+03  2.39946E+02 -5.65790E+03 -3.37208E+03
 -3.05952E+03 -6.46467E+03  1.16648E+03 -7.77130E+03  4.51864E+03 -6.06973E+03  7.32913E+03 -2.65530E+03
  6.73505E+03  1.05357E+03  3.95261E+03  4.47769E+03 -1.22972E+02  4.91021E+03 -1.78324E+03  4.24376E+03
 -2.91934E+03  1.55587E+03 -1.77800E+03 -3.52388E+02 -1.11342E+03  2.49676E+02 -5.83236E+02 -2.80667E+02
 -1.31113E+03  3.65938E+01 -1.09231E+03  1.56075E+02 -7.14540E+01 -1.42914E+03  1.29465E+02 -1.95088E+03
  2.51527E+03 -1.38812E+03  2.69558E+03 -3.16381E+02  3.60169E+03  2.84427E+03  4.87278E+02  4.44477E+03
 -2.57659E+03  5.90723E+03 -5.39166E+03  3.38752E+03 -5.76872E+03 -2.98687E+02 -4.47756E+03 -3.42599E+03
 -2.35332E+03 -5.02468E+03  1.25374E+03 -4.34480E+03  2.91462E+03 -2.76250E+03  3.09061E+03  1.91733E+02
  1.62402E+03  1.35998E+03 -6.29784E+02  1.28463E+03 -1.04388E+03 -2.52112E+02 -2.96597E+02 -1.08414E+03
  1.78336E+03 -4.86632E+02  1.66557E+03  5.08867E+02  1.18063E+03  1.87436E+03  1.47797E+02  2.20060E+03
 -1.96669E+03  2.30823E+03 -2.98507E+03  1.22583E+02 -2.95501E+03 -2.14292E+03 -6.04376E+02 -4.07769E+03
  2.35622E+03 -3.18378E+03  3.33766E+03 -9.06209E+02  3.30085E+03  3.22364E+02  2.06676E+03  2.69956E+03
  6.79502E+02  2.93675E+03 -1.02273E+03  2.46390E+03 -1.84045E+03  1.23493E+03 -1.64554E+03  6.08615E+02
 -8.94663E+02  5.83316E+01 -1.25994E+03  6.32051E+02 -1.80595E+03  8.37337E+02 -2.28696E+03 -1.55820E+02
 -2.79286E+03 -1.22107E+03 -5.61593E+02 -3.15516E+03  1.64422E+03 -3.87801E+03  2.72007E+03 -1.46638E+03
  2.79435E+03  4.07291E+02  1.07451E+03  2.21580E+03  8.27515E+01  3.24437E+03 -2.31395E+03  1.80559E+03
