 $NMID ID='MM_0lb_SNR800_7hz_g60_32.RAW', FMTDAT='(8E13.5)'
 TRAMP=1., VOLUME=1. $END
  3.09870E+05  2.63091E+02  3.37869E+05  2.51126E+05  8.54160E+04  3.39170E+05 -1.32833E+05  2.51910E+05
 -1.91179E+05  8.38393E+04 -1.13426E+05 -3.20669E+04  4.91273E+01 -5.06470E+04  5.40415E+04 -9.13715E+02
  3.56370E+04  5.32917E+04 -1.68489E+04  7.61974E+04 -6.16402E+04  6.50926E+04 -8.61405E+04  3.27071E+04
 -8.29855E+04 -1.16107E+04 -5.85018E+04 -5.32409E+04 -1.48785E+04 -7.22265E+04  2.90636E+04 -4.73027E+04
  4.16542E+04  3.27558E+03  1.72342E+04  4.91835E+04 -3.50469E+04  4.88822E+04 -6.90988E+04  1.13250E+02
 -5.56513E+04 -5.84261E+04 -7.53600E+03 -8.03458E+04  3.55547E+04 -5.82016E+04  5.09414E+04 -1.93809E+04
  4.64673E+04  1.18261E+04  3.34996E+04  2.74706E+04  1.58932E+04  3.16124E+04 -5.93629E+03  2.78861E+04
 -2.26438E+04  1.17637E+04 -1.76839E+04 -6.34149E+03  8.03073E+03 -7.72165E+03  2.42538E+04  1.43228E+04
  6.83979E+03  3.89128E+04 -3.50316E+04  3.80828E+04 -6.72963E+04  1.96812E+03 -5.98417E+04 -4.56256E+04
 -1.26866E+04 -6.69868E+04  4.26836E+04 -4.89289E+04  6.27018E+04 -2.99327E+03  3.81461E+04  3.54649E+04
 -5.02346E+03  4.14532E+04 -3.26538E+04  2.00834E+04 -3.49150E+04 -2.62438E+03 -2.07948E+04 -1.23251E+04
 -1.07559E+04 -1.59258E+04 -6.02886E+02 -2.07774E+04  9.10679E+03 -2.37197E+04  1.63016E+04 -1.22707E+04
  9.85949E+03  6.22195E+03 -1.20278E+04  1.28252E+04 -2.46830E+04 -8.37554E+03 -8.82289E+03 -3.97737E+04
  2.64378E+04 -4.88109E+04  5.39845E+04 -2.17344E+04  5.07056E+04  2.16455E+04  1.78501E+04  4.92799E+04
 -1.74641E+04  3.73924E+04 -2.87944E+04  3.37652E+03 -1.31332E+04 -3.05166E+04  2.23969E+04 -3.84847E+04
  4.71070E+04 -1.23975E+04  4.30608E+04  2.57851E+04  2.35194E+04  5.39496E+04 -8.14397E+03  5.95764E+04
 -3.77084E+04  4.08337E+04 -5.06147E+04  1.24226E+04 -5.07655E+04 -1.98717E+04 -2.78385E+04 -4.48836E+04
  7.93791E+03 -4.48858E+04  3.57629E+04 -1.84357E+04  3.38600E+04  1.11714E+04  6.35339E+03  2.23767E+04
 -1.39295E+04  1.04480E+04 -1.21352E+04 -6.91732E+03  5.25778E+03 -1.19296E+04  1.93183E+04  5.09710E+03
  1.50286E+04  2.29963E+04 -4.43604E+03  2.85670E+04 -2.33163E+04  1.55182E+04 -3.38517E+04 -1.69295E+03
 -2.83822E+04 -1.91001E+04 -1.37342E+04 -2.77554E+04  4.71688E+03 -2.97503E+04  2.19673E+04 -2.58481E+04
  3.61336E+04 -1.54126E+04  4.11683E+04  6.34218E+03  2.87569E+04  2.68818E+04  4.88226E+03  4.40199E+04
 -2.10235E+04  3.61953E+04 -3.22823E+04  1.23857E+04 -2.31631E+04 -1.01249E+04 -5.38529E+03 -1.31372E+04
 -8.90360E+01 -3.36905E+02 -8.97162E+03  9.34320E+03 -2.28431E+04  4.53871E+03 -2.24961E+04 -1.08928E+04
 -1.33631E+04 -2.61322E+04  5.98236E+03 -3.06616E+04  2.07972E+04 -2.18276E+04  2.56593E+04 -2.44762E+03
  1.66264E+04  1.85720E+04 -1.22546E+03  2.59373E+04 -1.94537E+04  1.47530E+04 -2.68006E+04 -5.06433E+03
 -1.93379E+04 -2.35143E+04 -2.47137E+03 -3.11979E+04  1.40110E+04 -2.59129E+04  2.57188E+04 -1.37991E+04
  2.42770E+04 -3.49849E+02  1.75439E+04  6.14201E+03  1.05475E+04  2.02650E+03  1.42877E+04 -2.36072E+03
  2.51149E+04  3.50119E+03  2.92936E+04  2.05900E+04  2.03793E+04  4.25395E+04 -2.76452E+03  5.04478E+04
 -2.86415E+04  4.29239E+04 -4.79365E+04  2.25402E+04 -5.17079E+04 -3.88679E+03 -4.18354E+04 -3.05415E+04
 -1.59988E+04 -4.37745E+04  1.59426E+04 -3.78789E+04  3.19904E+04 -1.63830E+04  2.70244E+04  9.68865E+03
  8.59359E+03  2.20320E+04 -1.36331E+04  1.79845E+04 -2.27922E+04  2.56841E+03 -1.71002E+04 -1.46132E+04
 -3.97009E+02 -2.18952E+04  1.24690E+04 -1.60080E+04  1.55239E+04 -1.41232E+03  4.15494E+03  1.00458E+04
 -1.04422E+04  5.02229E+03 -1.08948E+04 -7.97862E+03 -2.68256E+03 -2.09010E+04  1.33446E+04 -2.32178E+04
  2.68102E+04 -1.36436E+04  3.14792E+04  3.80540E+03  2.78465E+04  2.17166E+04  1.24569E+04  3.50201E+04
 -6.94588E+03  3.71247E+04 -2.50912E+04  2.31126E+04 -2.73039E+04  4.25774E+03 -1.79710E+04 -7.74316E+03
 -7.45366E+03 -8.82250E+03 -3.47983E+02  3.11479E+02 -3.17896E+03  4.00407E+03 -9.25185E+03  6.03029E+03
 -1.66351E+04 -9.94097E+02 -1.75872E+04 -1.35973E+04 -7.03154E+03 -2.23888E+04  7.82116E+03 -1.86720E+04
  1.49365E+04 -7.31193E+03  1.06500E+04  5.32555E+03 -3.46392E+02  7.99765E+03 -9.68863E+03 -2.07839E+02
 -9.39959E+03 -1.26175E+04 -1.61779E+03 -1.87956E+04  1.11310E+04 -1.94489E+04  2.42858E+04 -1.09240E+04
  2.81494E+04  2.87927E+03  2.05236E+04  1.82030E+04  4.05524E+03  2.29335E+04 -1.18614E+04  1.85294E+04
 -1.47112E+04  5.10792E+03 -7.58929E+03 -4.68205E+03  2.06012E+03 -5.54245E+03  9.87668E+03 -9.96604E+02
  8.52793E+03  8.82881E+03  1.01271E+03  1.51954E+04 -1.06276E+04  1.40151E+04 -1.84730E+04  3.42244E+03
 -1.31719E+04 -1.03196E+04  4.04991E+02 -1.65564E+04  1.15044E+04 -8.67886E+03  1.18422E+04  4.40106E+03
  2.94580E+03  1.31485E+04 -1.02182E+04  1.45982E+04 -1.74150E+04  6.59654E+03 -1.83598E+04 -7.23740E+03
 -9.50568E+03 -2.01539E+04  5.03287E+03 -2.28073E+04  1.96203E+04 -1.38248E+04  2.11686E+04  4.03061E+03
  1.21296E+04  1.68334E+04 -2.26147E+03  1.97702E+04 -1.43320E+04  1.02526E+04 -1.62484E+04 -1.94546E+03
 -1.27541E+04 -1.30339E+04 -2.08751E+03 -1.55938E+04  8.10555E+03 -1.16246E+04  1.01278E+04 -4.19432E+03
  5.59757E+03  2.86245E+03 -1.45938E+03  2.55124E+03 -7.75450E+02 -5.20269E+03  3.46512E+03 -9.93529E+03
  1.46454E+04 -6.94288E+03  2.04597E+04  1.92519E+03  2.02571E+04  1.51708E+04  1.25305E+04  2.70275E+04
 -6.32872E+03  3.05332E+04 -2.47525E+04  2.26731E+04 -3.32227E+04  4.64921E+03 -2.66546E+04 -1.20057E+04
 -1.30230E+04 -2.17096E+04 -5.09360E+02 -1.90130E+04  6.60814E+03 -1.09232E+04  7.14259E+03 -6.88961E+03
  4.87839E+03 -3.98803E+03  5.05536E+03 -4.70090E+03  7.13510E+03 -4.83128E+03  1.02098E+04 -2.55695E+03
  1.37741E+04  3.16352E+03  8.54667E+03  1.16666E+04 -2.53468E+03  1.55774E+04 -1.45718E+04  1.14979E+04
 -1.88455E+04 -1.35743E+03 -1.30002E+04 -1.32582E+04 -2.24554E+03 -2.04664E+04  1.16150E+04 -2.06322E+04
  2.21019E+04 -1.14415E+04  2.59305E+04  3.59087E+03  1.75877E+04  1.82267E+04  2.74225E+03  2.30728E+04
 -9.69036E+03  1.90191E+04 -1.38094E+04  6.48663E+03 -9.85586E+03 -2.03320E+03 -3.87295E+03 -3.36815E+03
 -2.23751E+03 -5.26808E+02 -3.31856E+03  3.62191E+03 -7.60460E+03  3.62073E+03 -1.33834E+04 -1.89760E+03
 -1.02405E+04 -1.28471E+04 -3.86247E+02 -1.99994E+04  1.22466E+04 -1.77139E+04  2.01696E+04 -6.10974E+03
  2.00552E+04  1.00159E+04  9.49327E+03  1.81151E+04 -3.88891E+03  2.04498E+04 -1.48650E+04  1.24269E+04
 -1.86259E+04  5.76540E+02 -1.42892E+04 -1.23602E+04 -1.60152E+03 -1.68243E+04  8.44057E+03 -1.25814E+04
  1.33781E+04 -3.83454E+03  8.70004E+03  3.35698E+03  3.39444E+03  5.62832E+03  1.42679E+03  3.01892E+03
  3.37980E+03  1.72275E+03  5.40420E+03  2.36060E+03  5.88109E+03  6.40684E+03  4.83670E+03  1.09100E+04
 -3.96351E+03  1.68359E+04 -1.42178E+04  1.56957E+04 -2.15874E+04  4.00950E+03 -2.18972E+04 -9.73167E+03
 -1.01973E+04 -2.09040E+04  2.98721E+03 -2.30102E+04  1.29843E+04 -1.48919E+04  1.73457E+04 -3.77899E+03
  1.37153E+04  7.57924E+03  2.97302E+03  1.22177E+04 -6.29600E+03  7.76580E+03 -8.76095E+03 -1.49022E+03
 -4.02994E+03 -9.01648E+03  4.43474E+03 -9.98805E+03  8.51628E+03 -4.55892E+03  7.98136E+03  1.66351E+03
  5.24097E+03  4.35483E+03  1.65649E+03  3.69641E+03 -9.45018E+02  2.36321E+03  1.64810E+03 -1.24939E+03
  3.92284E+03 -1.22578E+03  8.53198E+03  3.44676E+03  5.47953E+03  1.11044E+04 -1.78413E+03  1.48303E+04
 -1.00666E+04  1.08504E+04 -1.41068E+04  3.30896E+03 -1.20358E+04 -4.77623E+03 -5.10622E+03 -8.31676E+03
  1.38234E+03 -8.57504E+03  5.50792E+03 -3.96727E+03  4.60825E+03  3.88928E+03 -1.93115E+03  6.89081E+03
 -8.81984E+03  4.91496E+03 -1.06921E+04 -4.69190E+03 -5.83182E+03 -1.17786E+04  1.96368E+03 -1.26226E+04
  7.66226E+03 -7.78314E+03  9.12750E+03 -1.32057E+03  6.79229E+03  3.28613E+03  9.83634E+02  6.53814E+03
 -4.46975E+03  2.23118E+03 -5.66650E+03 -4.59965E+03  2.00146E+03 -9.43546E+03  1.07726E+04 -7.63896E+03
  1.44356E+04  1.10049E+03  1.31330E+04  9.50699E+03  3.72057E+03  1.52235E+04 -5.39975E+03  1.38234E+04
 -1.19126E+04  6.15914E+03 -1.26117E+04 -2.09628E+03 -6.99729E+03 -9.68233E+03  2.14235E+03 -9.63179E+03
  8.98560E+03 -4.60725E+03  8.05652E+03  3.55469E+03  2.90827E+03  8.22912E+03 -1.49733E+03  6.65845E+03
 -3.79130E+03  4.21632E+03 -3.43564E+03  1.23943E+03 -1.74568E+03  7.41180E+02 -1.94015E+03  3.12229E+03
 -3.51102E+03  5.34189E+03 -9.38029E+03  5.32205E+03 -1.43739E+04 -2.37471E+00 -1.61198E+04 -1.01684E+04
 -8.96632E+03 -1.98072E+04  4.07889E+03 -2.28903E+04  1.43050E+04 -1.74164E+04  2.17456E+04 -6.93729E+03
  2.00790E+04  4.79070E+03  1.30299E+04  1.38095E+04  1.85471E+03  1.59767E+04 -5.83966E+03  1.15516E+04
 -9.19991E+03  4.20482E+03 -5.27392E+03 -1.77857E+03 -2.23446E+03 -1.73137E+03 -8.13449E+02  9.72314E+01
 -2.15143E+03  1.20879E+02 -3.00457E+03 -8.50426E+02 -1.07298E+03 -3.47642E+03  9.55775E+02 -5.89297E+03
  6.47324E+03 -5.20527E+03  1.01949E+04  7.68261E+01  1.10662E+04  8.32676E+03  3.78721E+03  1.58660E+04
 -7.40928E+03  1.83127E+04 -1.72562E+04  1.05188E+04 -1.96774E+04 -1.74564E+03 -1.51028E+04 -1.14388E+04
 -6.02093E+03 -1.62404E+04  4.35461E+03 -1.54569E+04  1.13046E+04 -8.45637E+03  1.11731E+04  4.23351E+02
  6.17380E+03  5.14626E+03 -7.02820E+02  5.20497E+03 -2.83280E+03 -4.13168E+02 -2.14612E+02 -3.82447E+03
  5.30866E+03 -3.03695E+03  6.62228E+03  1.87515E+03  4.46308E+03  6.99343E+03 -8.90127E+01  8.95909E+03
 -7.20820E+03  7.25224E+03 -1.15157E+04  1.04772E+03 -1.03616E+04 -7.85126E+03 -1.47733E+03 -1.43245E+04
  8.22671E+03 -1.18849E+04  1.29800E+04 -4.03629E+03  1.24350E+04  3.89962E+03  7.07655E+03  1.01946E+04
  1.31874E+03  1.15305E+04 -4.38780E+03  9.26509E+03 -7.36351E+03  5.01878E+03 -5.52159E+03  1.09250E+02
 -3.26490E+03 -5.17111E+02 -2.66541E+03  1.14162E+03 -5.81085E+03  1.56694E+03 -8.26876E+03 -1.70844E+03
 -8.09770E+03 -6.55363E+03 -2.39444E+03 -1.11543E+04  5.37938E+03 -1.14599E+04  1.04017E+04 -5.91774E+03
  1.11421E+04  2.14329E+03  6.76405E+03  8.22345E+03 -1.08007E+03  1.13272E+04 -8.93795E+03  7.04431E+03
