 $NMID ID='MM_0lb_SNR200_13hz_g55_77.RAW', FMTDAT='(8E13.5)'
 TRAMP=1., VOLUME=1. $END
  3.09902E+05  5.44067E+02  3.37579E+05  2.51468E+05  8.48506E+04  3.39418E+05 -1.34525E+05  2.50643E+05
 -1.91721E+05  8.30441E+04 -1.11866E+05 -3.44434E+04  8.52216E+02 -4.94351E+04  5.45489E+04  8.26559E+02
  3.48947E+04  5.23590E+04 -1.67007E+04  7.70348E+04 -6.03129E+04  6.42018E+04 -8.40854E+04  3.38559E+04
 -8.02268E+04 -1.12854E+04 -5.76847E+04 -5.01338E+04 -1.50528E+04 -6.93744E+04  2.88999E+04 -4.77024E+04
  4.13684E+04  3.25177E+03  1.70456E+04  4.89917E+04 -3.36030E+04  4.76246E+04 -6.65926E+04 -3.33770E+02
 -5.36009E+04 -5.69302E+04 -6.36232E+03 -7.86455E+04  3.35991E+04 -5.55744E+04  4.88757E+04 -1.66015E+04
  4.36753E+04  1.20632E+04  3.16859E+04  2.53944E+04  1.57695E+04  2.99960E+04 -4.45522E+03  2.82536E+04
 -2.17890E+04  1.27019E+04 -1.68215E+04 -5.44387E+03  5.90954E+03 -8.15487E+03  2.24994E+04  1.28717E+04
  8.31455E+03  3.60145E+04 -3.26440E+04  3.61171E+04 -6.38231E+04  1.42104E+03 -5.80344E+04 -4.39618E+04
 -1.33817E+04 -6.37041E+04  3.98496E+04 -4.55415E+04  5.82156E+04 -2.42045E+03  3.49085E+04  3.24364E+04
 -4.92299E+03  3.58609E+04 -2.95363E+04  1.53586E+04 -3.09689E+04 -4.64921E+03 -1.85539E+04 -1.25810E+04
 -9.20296E+03 -1.25680E+04 -2.81775E+03 -1.83608E+04  8.19424E+03 -2.26367E+04  1.47183E+04 -1.45733E+04
  1.07529E+04  5.72124E+03 -9.49550E+03  1.15194E+04 -2.29116E+04 -5.81510E+03 -9.17480E+03 -3.50791E+04
  2.31369E+04 -4.45784E+04  4.88639E+04 -1.83248E+04  4.75099E+04  1.95852E+04  1.69813E+04  4.57624E+04
 -1.62265E+04  3.45497E+04 -2.71346E+04  3.44215E+03 -1.14704E+04 -2.92842E+04  2.07579E+04 -3.54308E+04
  4.11982E+04 -9.33019E+03  3.66656E+04  2.51427E+04  2.07688E+04  4.81821E+04 -8.20479E+03  5.19562E+04
 -3.35097E+04  3.60210E+04 -4.46457E+04  9.86590E+03 -4.54146E+04 -1.64505E+04 -2.45676E+04 -3.83435E+04
  7.80707E+03 -4.04346E+04  3.32194E+04 -1.53765E+04  3.02488E+04  1.04523E+04  4.16236E+03  1.99510E+04
 -1.40231E+04  8.86206E+03 -8.77777E+03 -8.50016E+03  6.06952E+03 -1.07471E+04  1.72941E+04  6.52006E+03
  1.44466E+04  2.25030E+04 -6.47544E+03  2.56882E+04 -2.29945E+04  1.29019E+04 -2.89860E+04 -4.29608E+03
 -2.07784E+04 -1.88471E+04 -8.59946E+03 -2.18880E+04  3.49529E+03 -2.19323E+04  1.61958E+04 -1.90536E+04
  2.75084E+04 -1.19173E+04  3.43259E+04  3.85730E+03  2.47673E+04  2.17192E+04  6.25133E+03  3.74904E+04
 -1.86823E+04  3.13424E+04 -2.95119E+04  9.88284E+03 -2.17722E+04 -1.02119E+04 -5.37962E+03 -1.30445E+04
  3.37036E+03 -3.71463E+03 -6.78302E+03  6.39541E+03 -1.73096E+04  5.43687E+03 -1.80531E+04 -7.58819E+03
 -1.09874E+04 -1.88020E+04  5.68844E+03 -2.43321E+04  1.69483E+04 -1.79699E+04  1.97106E+04 -6.47694E+02
  1.20364E+04  1.31489E+04 -2.53134E+03  2.08310E+04 -1.38981E+04  1.20324E+04 -2.03874E+04 -4.70670E+03
 -1.52277E+04 -1.88952E+04 -2.22585E+03 -2.55742E+04  1.07710E+04 -2.15710E+04  2.02607E+04 -9.12562E+03
  1.92346E+04 -2.08557E+02  1.50230E+04  3.31274E+03  9.04032E+03  1.87558E+02  1.13365E+04 -1.22682E+03
  1.80084E+04  3.97934E+03  2.02748E+04  1.78382E+04  1.48276E+04  3.24722E+04 -2.74208E+03  3.69185E+04
 -1.91717E+04  3.03156E+04 -3.38699E+04  1.60154E+04 -3.68248E+04 -2.82752E+03 -2.95633E+04 -2.07500E+04
 -1.26995E+04 -3.09587E+04  1.13909E+04 -2.69797E+04  2.34029E+04 -1.37098E+04  1.98561E+04  7.40377E+03
  6.82431E+03  1.66224E+04 -9.22229E+03  1.40295E+04 -1.74544E+04  3.03266E+03 -1.29765E+04 -1.16642E+04
 -1.22782E+03 -1.54410E+04  9.17251E+03 -1.28211E+04  1.04641E+04 -1.66688E+03  2.53859E+03  6.19772E+03
 -7.71714E+03  4.20798E+03 -6.90802E+03 -5.80046E+03 -1.23485E+03 -1.44597E+04  9.10423E+03 -1.64759E+04
  1.86941E+04 -8.57545E+03  2.06723E+04  3.94386E+03  1.73811E+04  1.58643E+04  7.77126E+03  2.26753E+04
 -4.28999E+03  2.38154E+04 -1.41422E+04  1.54788E+04 -1.71965E+04  3.21240E+03 -1.22718E+04 -3.50815E+03
 -5.16599E+03 -5.51665E+03  9.70865E+01  7.83762E+02 -3.94043E+03  3.31294E+03 -5.51341E+03  5.86117E+03
 -1.20378E+04  3.27787E+02 -1.25856E+04 -1.00528E+04 -4.41942E+03 -1.50363E+04  4.70589E+03 -1.21795E+04
  1.15674E+04 -4.50380E+03  7.48449E+03  3.17274E+03  3.49385E+02  4.92413E+03 -5.59926E+03 -2.29922E+02
 -5.11404E+03 -8.23549E+03 -2.45855E+03 -1.20725E+04  7.11110E+03 -1.23722E+04  1.51975E+04 -6.59250E+03
  1.79292E+04  1.87833E+03  1.34611E+04  1.02380E+04  2.06093E+03  1.50302E+04 -5.94446E+03  1.14846E+04
 -9.54518E+03  4.20079E+03 -6.09169E+03 -2.22397E+03  2.70536E+03 -2.76511E+03  6.15703E+03  2.88575E+02
  6.53174E+03  4.00393E+03  5.61530E+02  9.53465E+03 -7.05610E+03  9.75623E+03 -1.24795E+04  1.86905E+03
 -7.94104E+03 -5.18428E+03 -4.39084E+00 -1.10335E+04  5.92958E+03 -5.59640E+03  7.89491E+03  2.45483E+03
  7.28270E+02  6.39991E+03 -6.31400E+03  1.00477E+04 -9.73040E+03  3.15289E+03 -9.71854E+03 -3.93530E+03
 -4.67664E+03 -1.09733E+04  2.73730E+03 -1.27011E+04  1.21352E+04 -8.58699E+03  1.21105E+04  6.86879E+02
  8.58806E+03  9.94017E+03 -5.71546E+02  1.06217E+04 -7.84638E+03  6.15087E+03 -1.08179E+04  6.86235E+01
 -9.63590E+03 -9.19564E+03 -9.36845E+02 -8.39969E+03  3.83865E+03 -6.69691E+03  5.49504E+03 -3.38460E+03
  4.99798E+03  8.63272E+02 -9.91738E+02  2.70049E+03 -8.08106E+02 -2.55281E+03  5.64062E+02 -4.82138E+03
  8.12765E+03 -2.84255E+03  1.18189E+04  1.16606E+03  1.16334E+04  8.48022E+03  8.59424E+03  1.47129E+04
 -3.22486E+03  1.76437E+04 -1.49723E+04  1.35773E+04 -1.85730E+04  2.76831E+03 -1.30223E+04 -5.28376E+03
 -8.55502E+03 -1.12253E+04 -4.25872E+02 -9.76886E+03  4.17600E+03 -4.00442E+03  3.07125E+03 -3.70714E+03
  2.57945E+03 -3.09162E+03  2.81965E+03 -1.72463E+03  4.42902E+03 -1.56541E+03  6.38043E+03 -2.74744E+02
  8.36839E+03  1.56479E+03  5.22170E+03  6.69824E+03 -7.53432E+02  7.99130E+03 -8.85821E+03  5.93505E+03
 -1.12303E+04 -6.50525E+02 -5.63859E+03 -6.90992E+03 -1.47834E+03 -9.92989E+03  4.84336E+03 -1.02997E+04
  9.93931E+03 -5.76197E+03  1.27427E+04  4.28628E+02  9.61727E+03  8.71713E+03  1.65306E+03  1.16242E+04
 -3.96516E+03  9.74706E+03 -7.56012E+03  4.09980E+03 -4.05871E+03 -1.61527E+03 -1.62771E+03 -1.40864E+03
  3.97014E+01 -2.20325E+01 -1.40143E+03  3.03942E+03 -3.80662E+03  1.42305E+03 -7.59817E+03 -7.90064E+02
 -4.72687E+03 -6.48568E+03 -1.50339E+02 -9.88706E+03  5.83151E+03 -7.97486E+03  9.53130E+03 -3.14965E+03
  1.02499E+04  5.29950E+03  3.43120E+03  7.67685E+03 -3.25057E+03  9.41384E+03 -7.50953E+03  5.37572E+03
 -8.43698E+03  1.72638E+03 -7.15730E+03 -4.45787E+03 -8.96787E+02 -7.77285E+03  4.73054E+03 -6.28857E+03
  5.59945E+03 -1.79378E+03  4.23941E+03  2.53412E+03  9.76875E+02  3.84308E+03  6.32398E+02  4.60868E+02
  1.72662E+03  1.78890E+02  3.14969E+03 -5.52151E+02  1.02430E+03  2.74518E+03  3.45991E+03  3.98964E+03
 -2.44127E+03  7.19233E+03 -6.83315E+03  8.15423E+03 -9.00462E+03  2.25235E+03 -1.00469E+04 -2.55845E+03
 -5.09168E+03 -9.71623E+03  1.87368E+03 -1.08143E+04  5.97113E+03 -7.41335E+03  6.20401E+03 -1.23095E+03
  5.41662E+03  4.22439E+03  2.50874E+03  5.73978E+03 -2.91407E+03  4.45648E+03 -3.41483E+03 -2.77568E+02
 -2.98921E+03 -3.96483E+03  1.20946E+03 -5.64855E+03  2.42465E+03 -2.49132E+03  3.20001E+03  1.54938E+03
  1.24609E+03  1.60001E+03  9.58369E+02 -9.60886E+01 -1.91416E+03  1.51432E+03  8.51187E+02  2.52730E+02
  2.37000E+03  1.19308E+01  3.92891E+03  2.28041E+03  2.40082E+03  5.19799E+03 -1.47103E+02  5.22775E+03
 -4.21802E+03  4.35111E+03 -6.13611E+03  3.05565E+03 -4.03100E+03 -2.70901E+03 -3.02367E+03 -3.98150E+03
  1.21342E+03 -2.75006E+03  3.64116E+03 -1.55191E+03  4.10053E+02  1.56394E+03 -4.30011E+02  3.06989E+03
 -4.30344E+03  1.29975E+03 -3.93997E+03 -1.55760E+03 -1.04258E+03 -4.63030E+03  7.51293E+02 -6.10664E+03
  3.20142E+03 -1.94676E+03  3.38706E+03 -9.66482E+01  1.88522E+03  1.65719E+03 -5.36281E+02  1.23991E+03
 -1.83199E+03 -3.31712E+02 -1.07829E+03 -2.19217E+03 -3.39535E+01 -3.78865E+03  4.44304E+03 -3.32125E+03
  4.57670E+03  4.28717E+02  5.22320E+03  4.69405E+03  1.24548E+03  5.54671E+03 -3.27552E+03  4.08915E+03
 -3.43256E+03  2.89040E+03 -4.01453E+03 -9.13111E+02 -3.11578E+03 -3.41475E+03  2.59581E+03 -3.24767E+03
  3.45435E+03 -2.67918E+03  2.45782E+03  1.97028E+03  9.54041E+02  2.68365E+03  6.90032E+02  2.16239E+03
 -1.26175E+03  4.91366E+02 -1.36002E+03  8.07533E+00 -8.63291E+02  1.86230E+03 -1.02406E+03  1.16673E+03
 -1.10294E+03  1.77156E+03 -4.22940E+03  1.41109E+03 -5.65956E+03 -8.97581E+02 -6.49872E+03 -3.64547E+03
 -2.25840E+03 -7.91467E+03  1.31658E+03 -7.52269E+03  4.56175E+03 -6.08740E+03  7.72344E+03 -2.60048E+03
  8.32173E+03  9.69186E+02  3.96557E+03  4.92777E+03  3.09033E+02  5.33611E+03 -3.77810E+03  4.14964E+03
 -3.46994E+03  1.19097E+03 -1.90384E+03 -1.14569E+03 -2.82955E+02 -3.73828E+02 -1.36339E+03  4.80187E+02
 -7.34291E+02 -1.10514E+03 -2.57895E+03 -5.48264E+02 -1.02793E+03 -1.88099E+03  4.04598E+02 -9.77523E+02
  2.78331E+03 -4.38059E+02  2.97847E+03 -3.01612E+02  3.65852E+03  3.45354E+03  4.99798E+02  5.15058E+03
 -1.89147E+03  6.53153E+03 -5.24153E+03  3.78541E+03 -5.94411E+03 -1.65808E+03 -6.01679E+03 -3.36884E+03
 -2.13837E+03 -4.02015E+03  1.85759E+03 -2.61528E+03  3.05244E+03 -2.57094E+03  2.33085E+03 -2.16168E+02
  2.07902E+03  8.94981E+02 -8.41664E+02  2.94393E+01 -1.47587E+02  1.46391E+02  3.16561E+01 -1.52964E+03
  2.43560E+03  1.43664E+02  1.25882E+03  1.12691E+03  2.00487E+03  2.88166E+03  7.87348E+02  8.59126E+02
 -2.11343E+03  2.63333E+03 -3.80138E+03  2.48318E+01 -2.89572E+03 -2.12526E+03 -7.12235E+02 -4.42156E+03
  2.75398E+03 -4.59158E+03  3.21795E+03  8.52277E+02  4.45430E+03  9.71516E+01  3.17717E+03  3.34425E+03
  4.29376E+02  2.82500E+03 -1.60447E+02  2.89879E+03 -1.91841E+03  2.21714E+03 -1.53352E+03 -3.38035E+02
 -5.30224E+02 -1.30056E+03 -1.23218E+03 -9.33403E+02 -1.80934E+03  1.02950E+03 -2.16947E+03  2.43022E+02
 -3.14640E+03 -2.50607E+03 -1.12463E+03 -3.03010E+03  2.17088E+03 -4.57992E+03  3.81047E+03 -5.65747E+02
  3.53273E+03  2.13602E+02  1.31212E+03  2.26951E+03 -1.14174E+03  3.08859E+03 -2.00960E+03  1.84978E+03
