 $NMID ID='MM_0lb_SNR200_8hz_g45_44.RAW', FMTDAT='(8E13.5)'
 TRAMP=1., VOLUME=1. $END
  3.08337E+05 -1.85694E+01  3.39168E+05  2.51844E+05  8.41004E+04  3.38966E+05 -1.32048E+05  2.52153E+05
 -1.90811E+05  8.43019E+04 -1.12172E+05 -3.10338E+04  1.89729E+03 -5.13574E+04  5.26666E+04  6.62176E+02
  3.65414E+04  5.40740E+04 -1.73523E+04  7.74405E+04 -6.21664E+04  6.41970E+04 -8.52646E+04  3.29400E+04
 -8.23631E+04 -1.06184E+04 -5.74749E+04 -5.21059E+04 -1.48009E+04 -7.10955E+04  2.91283E+04 -4.63306E+04
  4.19028E+04  3.75587E+03  1.61735E+04  4.73614E+04 -3.49956E+04  4.69351E+04 -6.94834E+04 -1.65381E+01
 -5.66138E+04 -5.85678E+04 -6.64127E+03 -7.91941E+04  3.56866E+04 -5.68700E+04  5.05121E+04 -1.98337E+04
  4.56569E+04  1.12398E+04  3.28790E+04  2.69612E+04  1.57962E+04  3.18098E+04 -5.19783E+03  2.72973E+04
 -2.32926E+04  1.14689E+04 -1.70968E+04 -7.01340E+03  7.67474E+03 -6.52247E+03  2.34742E+04  1.36197E+04
  5.70208E+03  3.70293E+04 -3.40038E+04  3.68934E+04 -6.64137E+04  2.35067E+03 -5.94186E+04 -4.40456E+04
 -1.27481E+04 -6.55493E+04  4.15998E+04 -4.78893E+04  6.09178E+04 -2.59913E+03  3.80041E+04  3.50232E+04
 -6.43261E+03  4.01381E+04 -3.20572E+04  1.87629E+04 -3.20921E+04 -2.37705E+03 -1.94536E+04 -1.33821E+04
 -9.64738E+03 -1.56624E+04 -5.65921E+02 -2.05125E+04  7.84955E+03 -2.39460E+04  1.68485E+04 -1.18139E+04
  1.05081E+04  6.48360E+03 -1.01685E+04  1.25192E+04 -2.38858E+04 -7.34528E+03 -8.58071E+03 -3.76497E+04
  2.41535E+04 -4.55790E+04  5.20689E+04 -2.18445E+04  5.02193E+04  2.15755E+04  1.54144E+04  4.47526E+04
 -1.71836E+04  3.73539E+04 -2.65022E+04  2.60345E+03 -1.12756E+04 -2.82452E+04  2.13127E+04 -3.72775E+04
  4.49785E+04 -1.15526E+04  4.08196E+04  2.57597E+04  2.11543E+04  5.05800E+04 -8.82959E+03  5.68783E+04
 -3.64336E+04  3.96937E+04 -4.82580E+04  1.21558E+04 -4.88156E+04 -1.87485E+04 -2.68588E+04 -4.20353E+04
  9.20548E+03 -4.44765E+04  3.63692E+04 -1.68583E+04  3.23232E+04  1.34638E+04  4.61065E+03  2.21527E+04
 -1.47898E+04  9.60805E+03 -1.28666E+04 -6.57939E+03  5.84093E+03 -1.30435E+04  2.00469E+04  6.68268E+03
  1.51749E+04  2.07550E+04 -4.11271E+03  2.85651E+04 -2.35996E+04  1.38433E+04 -3.10972E+04 -3.11940E+03
 -2.52598E+04 -1.74085E+04 -1.06483E+04 -2.58871E+04  5.95357E+03 -2.48403E+04  1.94968E+04 -2.34072E+04
  3.20799E+04 -1.55087E+04  3.75781E+04  4.33151E+03  2.83411E+04  2.66126E+04  4.39225E+03  4.15019E+04
 -2.07850E+04  3.51884E+04 -3.05679E+04  1.17188E+04 -2.22636E+04 -9.75002E+03 -6.03752E+03 -1.02695E+04
  2.25104E+03 -1.69018E+03 -8.31473E+03  9.21092E+03 -2.04156E+04  4.58609E+03 -1.88554E+04 -9.96679E+03
 -1.13126E+04 -2.34284E+04  6.50437E+03 -2.70992E+04  1.81066E+04 -1.94268E+04  2.33929E+04 -7.77494E+02
  1.45437E+04  1.61031E+04 -4.16770E+02  2.36760E+04 -1.73231E+04  1.28726E+04 -2.31584E+04 -4.74324E+03
 -1.86743E+04 -2.19493E+04 -1.82952E+03 -2.97028E+04  1.34710E+04 -2.43440E+04  2.43669E+04 -1.21554E+04
  2.14048E+04  1.09447E+03  1.81081E+04  6.92966E+03  9.55193E+03  8.45682E+02  1.25222E+04  5.03790E+01
  2.33708E+04  3.73925E+03  2.60281E+04  1.86881E+04  1.82646E+04  4.01025E+04 -3.32570E+03  4.68604E+04
 -2.54688E+04  3.75511E+04 -4.18755E+04  1.83926E+04 -4.41595E+04 -2.73493E+03 -3.71303E+04 -2.69923E+04
 -1.59833E+04 -3.76080E+04  1.37519E+04 -3.31808E+04  2.85570E+04 -1.69192E+04  2.52985E+04  9.06190E+03
  8.09421E+03  1.78577E+04 -1.19188E+04  1.61014E+04 -2.09589E+04  7.23838E+02 -1.55769E+04 -1.30044E+04
 -2.90410E+02 -2.04631E+04  1.02797E+04 -1.44084E+04  1.37475E+04  8.43805E+01  3.64459E+03  9.56407E+03
 -7.95948E+03  6.12842E+03 -8.75135E+03 -6.18236E+03  5.34663E+01 -1.92960E+04  1.19503E+04 -2.14488E+04
  2.21608E+04 -1.14537E+04  2.76663E+04  2.61886E+03  2.29771E+04  2.02295E+04  1.06438E+04  3.02492E+04
 -6.49514E+03  3.15979E+04 -2.33680E+04  2.02253E+04 -2.22239E+04  4.15803E+03 -1.51797E+04 -5.55929E+03
 -6.51127E+03 -8.02294E+03 -5.17843E+02 -5.55446E+02 -3.05261E+03  2.19386E+03 -8.45832E+03  3.97672E+03
 -1.41803E+04 -1.48215E+03 -1.54394E+04 -1.38026E+04 -7.52548E+03 -1.99362E+04  7.15535E+03 -1.54284E+04
  1.32943E+04 -7.30736E+03  9.97540E+03  5.16631E+03  1.53169E+03  4.48687E+03 -9.47218E+03 -6.36814E+02
 -6.27408E+03 -1.15512E+04 -6.82110E+02 -1.56372E+04  8.98963E+03 -1.65788E+04  2.00164E+04 -8.84837E+03
  2.43101E+04  4.38278E+03  1.69816E+04  1.52901E+04  3.52568E+03  2.04712E+04 -1.02522E+04  1.61723E+04
 -1.31078E+04  5.37325E+03 -7.29776E+03 -3.85703E+03  2.16041E+03 -2.39866E+03  7.89191E+03 -1.31552E+03
  7.55035E+03  7.41833E+03  1.81535E+03  1.30527E+04 -1.05354E+04  1.22446E+04 -1.60824E+04  3.85598E+03
 -1.22445E+04 -6.78261E+03  1.43578E+03 -1.47056E+04  1.00321E+04 -8.10780E+03  1.11306E+04  3.37383E+03
  2.20428E+03  1.14819E+04 -7.31387E+03  1.36623E+04 -1.50153E+04  4.49293E+03 -1.44958E+04 -4.73572E+03
 -7.33728E+03 -1.78336E+04  3.23993E+03 -1.84409E+04  1.51142E+04 -1.24256E+04  1.84425E+04  1.40612E+03
  1.01178E+04  1.49244E+04 -1.28847E+03  1.62268E+04 -1.08352E+04  1.05312E+04 -1.27049E+04 -3.34679E+02
 -1.04178E+04 -1.07778E+04 -1.41694E+03 -1.27525E+04  7.55307E+03 -9.73358E+03  9.59597E+03 -4.02125E+03
  4.90182E+03  2.09405E+03 -1.73447E+03  1.68293E+03 -1.99729E+03 -4.23539E+03  2.43646E+03 -7.68940E+03
  1.33229E+04 -5.51278E+03  1.74161E+04  2.00112E+03  1.79167E+04  1.16536E+04  1.05253E+04  2.24698E+04
 -5.59147E+03  2.74585E+04 -2.31113E+04  1.88267E+04 -2.90664E+04  4.44607E+03 -2.21349E+04 -8.43705E+03
 -1.18370E+04 -1.84382E+04 -1.47812E+03 -1.60500E+04  5.89754E+03 -7.89408E+03  6.00343E+03 -5.14076E+03
  3.87012E+03 -2.64469E+03  3.67187E+03 -3.83737E+03  6.27653E+03 -3.67193E+03  6.92168E+03 -2.07112E+03
  1.23315E+04  4.59865E+03  5.63180E+03  9.30067E+03 -5.45265E+03  1.16943E+04 -1.17276E+04  8.69063E+03
 -1.54680E+04 -2.17227E+03 -9.90332E+03 -1.19541E+04 -1.64665E+03 -1.63538E+04  9.87017E+03 -1.89979E+04
  1.84592E+04 -9.33305E+03  2.12178E+04  3.45409E+03  1.62462E+04  1.42399E+04  3.50446E+03  1.85367E+04
 -7.83774E+03  1.38374E+04 -1.19453E+04  5.06598E+03 -7.69765E+03 -1.87615E+03 -3.07488E+03 -1.60015E+03
 -1.29832E+03 -1.72033E+03 -3.36289E+03  3.48526E+03 -5.17151E+03  1.98325E+03 -1.01414E+04 -3.00915E+03
 -8.01576E+03 -1.00826E+04 -4.52219E+02 -1.58461E+04  9.07107E+03 -1.28444E+04  1.46690E+04 -4.11879E+03
  1.62293E+04  7.76890E+03  8.63081E+03  1.37853E+04 -3.32710E+03  1.66312E+04 -1.22891E+04  1.06105E+04
 -1.55137E+04 -9.66865E+02 -1.22872E+04 -1.03013E+04 -2.54454E+03 -1.36270E+04  6.49817E+03 -9.99432E+03
  1.06668E+04 -2.52993E+03  6.94637E+03  3.34417E+03  1.66587E+03  4.01064E+03 -1.08186E+03  2.54671E+03
  3.30133E+03  5.87651E+02  3.05407E+03  1.87738E+03  4.64580E+03  5.21543E+03  5.44838E+03  9.63201E+03
 -2.54651E+03  1.33632E+04 -1.15719E+04  1.15930E+04 -1.70183E+04  3.61035E+03 -1.52259E+04 -6.07481E+03
 -7.35839E+03 -1.66495E+04  1.66890E+03 -1.78833E+04  9.42431E+03 -1.24179E+04  1.29734E+04 -2.17726E+03
  9.88855E+03  7.99931E+03  2.35151E+03  9.70211E+03 -4.59520E+03  4.80880E+03 -5.65238E+03 -1.34901E+03
 -3.53458E+03 -6.39667E+03  4.27943E+03 -7.95420E+03  6.87326E+03 -3.56356E+03  6.37448E+03  1.43423E+03
  3.34022E+03  4.40807E+03  3.51596E+03  3.37280E+03 -8.33233E+02  2.68934E+03  1.53686E+03 -3.63117E+02
  1.80746E+03 -1.11644E+03  6.97996E+03  2.67893E+03  3.18689E+03  9.52156E+03 -1.47731E+03  1.23012E+04
 -7.90797E+03  7.46822E+03 -9.99695E+03  2.83158E+03 -9.63362E+03 -4.51128E+03 -4.78511E+03 -6.09370E+03
  6.97404E+02 -7.05187E+03  4.79628E+03 -2.92435E+03  1.13442E+03  4.43341E+03 -1.54164E+03  5.32793E+03
 -5.48637E+03  3.02490E+03 -7.76154E+03 -5.25817E+03 -5.29974E+03 -1.03165E+04  1.73123E+03 -8.73471E+03
  6.01636E+03 -5.47996E+03  5.02318E+03 -8.07289E+02  5.91361E+03  3.71089E+03  1.87567E+03  3.82379E+03
 -2.92263E+03  3.82805E+03 -4.06614E+03 -4.16268E+03  2.01532E+03 -6.69376E+03  7.77735E+03 -6.06411E+03
  9.66814E+03 -5.08752E+02  9.17058E+03  7.60492E+03  2.81298E+03  1.15337E+04 -4.17418E+03  1.10028E+04
 -9.28436E+03  4.46362E+03 -9.01333E+03 -1.39108E+03 -5.37213E+03 -6.97003E+03  1.45205E+03 -6.87683E+03
  5.11480E+03 -3.81480E+03  8.71683E+03  2.47236E+03  3.80604E+03  7.08316E+03  1.73970E+02  4.44057E+03
 -2.29763E+03  3.23112E+03 -4.49426E+03  8.35987E+02 -1.78552E+03  2.22845E+03 -3.70715E+03  1.09745E+03
 -2.66135E+03  3.26336E+03 -8.10790E+03  2.22557E+03 -1.08009E+04  2.01470E+02 -1.26707E+04 -7.50247E+03
 -7.32081E+03 -1.48063E+04  3.67545E+03 -1.74803E+04  1.12109E+04 -1.30534E+04  1.69940E+04 -4.59172E+03
  1.58210E+04  3.24040E+03  9.31474E+03  1.05736E+04  1.91808E+03  1.21714E+04 -3.48018E+03  8.14783E+03
 -6.70717E+03  1.41258E+03 -5.53140E+03  4.93611E+02 -2.22534E+03 -1.03791E+03 -1.42086E+02 -1.11465E+03
 -1.35445E+03  1.88253E+03 -2.93828E+03  8.81918E+02 -1.39096E+03 -3.06107E+03  4.95217E+02 -4.47821E+03
  5.24248E+03 -5.24079E+03  7.01668E+03  1.42159E+03  9.20927E+03  7.28485E+03  2.99875E+03  1.29738E+04
 -4.88082E+03  1.45188E+04 -1.25797E+04  7.88373E+03 -1.47992E+04  6.45855E+02 -1.09805E+04 -1.13317E+04
 -3.16130E+03 -1.31963E+04  3.87321E+03 -1.25129E+04  6.91167E+03 -6.29433E+03  9.70730E+03  1.89363E+03
  5.59635E+03  4.17260E+03 -1.26482E+03  3.34553E+03 -2.36801E+03 -9.77575E+02  6.87769E+02 -2.83175E+03
  3.57583E+03 -3.21315E+03  6.35870E+03  1.87919E+03  3.11992E+03  6.89198E+03 -2.07209E+02  7.12158E+03
 -5.76581E+03  6.01007E+03 -8.63485E+03  6.34983E+02 -6.42975E+03 -6.14457E+03 -6.67469E+02 -9.98914E+03
  4.55734E+03 -7.61577E+03  8.19922E+03 -3.15105E+03  8.05824E+03  2.12627E+03  6.53646E+03  7.68256E+03
  3.03352E+02  9.50591E+03 -1.35737E+03  7.38093E+03 -5.77269E+03  2.19145E+03 -3.93192E+03  4.84173E+02
 -2.18324E+03  4.70451E+01 -1.46283E+03  4.90442E+02 -3.93777E+03  2.42382E+01 -6.09760E+03 -2.74232E+03
 -7.45064E+03 -4.92547E+03 -1.21637E+03 -5.67892E+03  2.93989E+03 -8.01452E+03  7.50530E+03 -4.37028E+03
  8.97473E+03  2.24871E+03  4.23890E+03  7.05290E+03 -4.42967E+02  8.34754E+03 -6.84805E+03  5.75871E+03
