 $NMID ID='MM_0lb_SNR200_14hz_g60_29.RAW', FMTDAT='(8E13.5)'
 TRAMP=1., VOLUME=1. $END
  3.09374E+05  8.91338E+02  3.38063E+05  2.51675E+05  8.51667E+04  3.38639E+05 -1.33468E+05  2.51832E+05
 -1.90625E+05  8.35485E+04 -1.12208E+05 -3.13408E+04  8.27654E+02 -4.95091E+04  5.39924E+04 -3.88389E+02
  3.52416E+04  5.36155E+04 -1.67973E+04  7.59051E+04 -6.21410E+04  6.37158E+04 -8.49608E+04  3.12920E+04
 -8.06097E+04 -1.16212E+04 -5.82673E+04 -5.16564E+04 -1.45683E+04 -6.99109E+04  2.73571E+04 -4.60199E+04
  4.05664E+04  4.54045E+03  1.57656E+04  4.85149E+04 -3.39396E+04  4.75584E+04 -6.85122E+04 -9.78214E+02
 -5.25826E+04 -5.77479E+04 -7.08820E+03 -7.79236E+04  3.49041E+04 -5.51646E+04  4.83938E+04 -1.90299E+04
  4.34290E+04  1.15919E+04  3.06804E+04  2.63055E+04  1.56279E+04  2.98857E+04 -4.35718E+03  2.83438E+04
 -2.27196E+04  1.20444E+04 -1.91940E+04 -5.72668E+03  5.74513E+03 -6.98013E+03  2.31249E+04  1.33498E+04
  7.71779E+03  3.67507E+04 -3.30825E+04  3.52988E+04 -6.43416E+04  2.73040E+03 -5.90167E+04 -4.34679E+04
 -1.25670E+04 -6.53846E+04  3.95389E+04 -4.64425E+04  5.88407E+04 -2.38931E+03  3.50694E+04  3.29067E+04
 -4.77585E+03  3.72617E+04 -3.20768E+04  1.72996E+04 -3.13905E+04 -4.00451E+03 -1.80718E+04 -1.15537E+04
 -7.61230E+03 -1.37923E+04 -2.63109E+03 -1.75492E+04  8.02655E+03 -2.32632E+04  1.63322E+04 -1.27493E+04
  1.03835E+04  5.51235E+03 -9.11805E+03  1.15223E+04 -2.28664E+04 -4.58465E+03 -9.06499E+03 -3.52486E+04
  2.30234E+04 -4.45437E+04  4.80306E+04 -2.05940E+04  4.58572E+04  1.98666E+04  1.68265E+04  4.54316E+04
 -1.55998E+04  3.41730E+04 -2.67257E+04  2.42498E+03 -9.63205E+03 -2.85343E+04  2.18966E+04 -3.38383E+04
  4.25996E+04 -1.05112E+04  3.76870E+04  2.34508E+04  2.01545E+04  4.63708E+04 -7.07939E+03  5.24867E+04
 -3.41588E+04  3.57192E+04 -4.27142E+04  9.10008E+03 -4.49965E+04 -1.75519E+04 -2.24343E+04 -3.96921E+04
  9.08061E+03 -3.82843E+04  3.11152E+04 -1.46329E+04  3.01638E+04  1.16804E+04  3.42332E+03  1.99942E+04
 -1.35112E+04  9.56405E+03 -1.09997E+04 -8.52563E+03  4.71658E+03 -1.00318E+04  1.75962E+04  5.34924E+03
  1.35038E+04  2.17928E+04 -5.51451E+03  2.54348E+04 -2.28729E+04  1.13191E+04 -2.83037E+04 -3.71581E+03
 -2.10309E+04 -1.82763E+04 -9.63329E+03 -2.26154E+04  3.86039E+03 -2.16510E+04  1.69262E+04 -1.99968E+04
  2.71419E+04 -1.29316E+04  3.40318E+04  3.45432E+03  2.49959E+04  2.09293E+04  3.16771E+03  3.87132E+04
 -1.71294E+04  3.32233E+04 -2.81061E+04  1.10701E+04 -2.10822E+04 -1.10336E+04 -4.30690E+03 -1.29504E+04
  2.22153E+03 -3.23274E+03 -4.27819E+03  6.57792E+03 -1.80446E+04  4.37377E+03 -1.81741E+04 -7.91152E+03
 -1.08050E+04 -2.02182E+04  5.34687E+03 -2.44709E+04  1.68535E+04 -1.80572E+04  1.94864E+04 -2.51897E+03
  1.38801E+04  1.40626E+04 -4.58444E+02  2.10154E+04 -1.28740E+04  1.07981E+04 -2.07471E+04 -4.01282E+03
 -1.41565E+04 -1.81753E+04 -1.16158E+03 -2.36725E+04  1.05569E+04 -1.98595E+04  2.07470E+04 -9.00876E+03
  2.00525E+04 -7.75668E+02  1.32864E+04  4.39022E+03  7.24279E+03  1.71284E+03  1.00734E+04 -1.98176E+03
  1.86339E+04  2.87784E+03  2.05792E+04  1.54952E+04  1.36211E+04  3.28267E+04 -2.41807E+03  3.63053E+04
 -2.06694E+04  2.97829E+04 -3.44082E+04  1.59084E+04 -3.68223E+04 -3.32259E+03 -2.87042E+04 -2.13616E+04
 -1.21189E+04 -2.96275E+04  1.07603E+04 -2.67114E+04  2.23831E+04 -1.33733E+04  2.00355E+04  5.64578E+03
  6.92241E+03  1.54828E+04 -1.05816E+04  1.30608E+04 -1.72681E+04  2.01419E+03 -1.18676E+04 -1.10734E+04
 -6.36407E+02 -1.57687E+04  7.90343E+03 -1.23740E+04  9.64886E+03 -2.00673E+03  1.22017E+03  6.84807E+03
 -8.33196E+03  3.47579E+03 -7.58984E+03 -5.46720E+03 -1.09027E+03 -1.51783E+04  1.03996E+04 -1.62365E+04
  1.82677E+04 -7.94985E+03  1.93950E+04  2.69750E+03  1.81623E+04  1.42997E+04  8.44208E+03  2.15254E+04
 -3.59200E+03  2.40567E+04 -1.63844E+04  1.45559E+04 -1.68950E+04  3.80608E+03 -1.13047E+04 -3.14262E+03
 -5.72308E+03 -5.08226E+03 -1.26976E+03  1.09687E+03 -3.29992E+03  3.27234E+03 -5.34431E+03  3.93653E+03
 -1.13333E+04  5.28660E+02 -1.19708E+04 -1.04092E+04 -3.77160E+03 -1.60943E+04  5.29008E+03 -1.28498E+04
  9.95637E+03 -5.85054E+03  7.11393E+03  3.72282E+03  1.03849E+03  5.01056E+03 -6.66163E+03 -1.40427E+02
 -7.57703E+03 -8.27523E+03 -4.57071E+02 -1.15357E+04  6.40781E+03 -1.17447E+04  1.52041E+04 -5.94662E+03
  1.74207E+04  5.72680E+02  1.26654E+04  1.06258E+04  2.42934E+03  1.43944E+04 -6.62683E+03  1.21763E+04
 -9.73954E+03  4.47149E+03 -5.69611E+03 -3.35161E+03  3.29161E+03 -1.47452E+03  6.35676E+03 -1.75009E+03
  6.00160E+03  5.66986E+03  2.21917E+03  8.82679E+03 -6.01687E+03  8.41305E+03 -1.15825E+04  2.54461E+03
 -7.79402E+03 -6.10254E+03 -2.98499E+02 -1.09274E+04  6.29099E+03 -5.83054E+03  6.54476E+03  2.26522E+03
  2.24142E+03  6.60510E+03 -5.19916E+03  8.73732E+03 -8.93506E+03  4.10984E+03 -9.44839E+03 -3.84901E+03
 -4.94070E+03 -1.03974E+04  3.59543E+03 -1.16344E+04  1.00077E+04 -6.85031E+03  1.12230E+04  8.06948E+02
  8.09596E+03  8.40626E+03 -6.38004E+01  1.19260E+04 -6.75610E+03  7.63887E+03 -7.73288E+03 -1.11100E+03
 -9.07507E+03 -7.25691E+03 -2.46165E+03 -8.03997E+03  5.08292E+03 -6.79238E+03  4.95123E+03 -3.48232E+03
  3.48246E+03  2.63042E+03 -4.47454E+02  8.90770E+02  1.03876E+03 -9.17863E+02  2.45801E+02 -4.19576E+03
  7.06292E+03 -1.08046E+03  1.00294E+04  2.33376E+03  1.00446E+04  6.76793E+03  8.30669E+03  1.44452E+04
 -2.83268E+03  1.59128E+04 -1.24796E+04  9.86887E+03 -1.85916E+04  2.31535E+03 -1.47800E+04 -6.50125E+03
 -6.60104E+03 -1.14105E+04  6.35496E+01 -8.77330E+03  2.64920E+03 -4.48612E+03  3.26481E+03 -3.26642E+03
  2.37533E+03 -1.63453E+03  2.99475E+03 -2.64019E+03  3.09744E+03 -2.10198E+03  5.48412E+03 -5.20586E+02
  8.37443E+03  2.08766E+03  3.36531E+03  6.65390E+03 -1.34975E+03  6.12371E+03 -7.88850E+03  6.01900E+03
 -9.05248E+03 -1.49784E+03 -5.13906E+03 -7.41024E+03  3.59801E+02 -9.10664E+03  6.63991E+03 -8.92496E+03
  9.34941E+03 -5.11748E+03  1.34304E+04  1.86770E+03  9.30048E+03  6.37191E+03  1.59199E+03  1.00348E+04
 -3.16778E+03  9.71883E+03 -7.39837E+03  1.58837E+03 -4.70271E+03 -7.88417E+02 -1.69981E+03  3.37112E+02
 -7.33977E+02 -1.16746E+02 -1.68426E+03  2.63566E+03 -4.60009E+03  9.11795E+02 -5.67953E+03 -7.73445E+02
 -4.07935E+03 -6.74852E+03  4.43513E+02 -9.02728E+03  5.81931E+03 -8.75035E+03  7.55154E+03 -1.56825E+03
  9.22427E+03  3.80188E+03  3.59567E+03  8.19024E+03 -1.56538E+03  9.29259E+03 -6.37480E+03  3.33325E+03
 -8.25553E+03  1.32036E+02 -6.59365E+03 -4.74095E+03  4.19573E+01 -6.98028E+03  2.33194E+03 -5.08341E+03
  5.32505E+03 -2.88140E+03  2.34999E+03  7.10783E+02  1.53031E+03  3.28413E+03  5.81644E+02  1.42327E+03
  2.46825E+03 -1.26187E+02  1.95318E+03  1.85807E+03  2.78950E+03  2.75507E+03  1.62450E+03  4.89515E+03
 -1.81108E+03  6.75149E+03 -4.92106E+03  5.78861E+03 -7.95505E+03  2.10614E+03 -8.61473E+03 -4.21322E+03
 -4.66006E+03 -7.68397E+03  2.13776E+03 -1.04786E+04  4.30591E+03 -6.33432E+03  7.37754E+03 -1.84280E+03
  3.75169E+03  2.47799E+03  8.46820E+02  3.70394E+03 -2.16699E+03  3.13823E+03 -3.72099E+03 -5.57135E+02
 -1.80337E+03 -2.97361E+03  1.16326E+03 -3.05523E+03  3.90512E+03 -1.48009E+03  3.17124E+03 -6.52335E+02
  5.99165E+02  8.97614E+02  1.19986E+03  1.23988E+03  4.57947E+02  2.24611E+03  2.14252E+03  6.81715E+01
 -2.23021E+02 -4.65578E+02  3.67928E+03  1.19767E+03  8.61335E+02  4.92288E+03 -9.06559E+02  5.85489E+03
 -3.35178E+03  3.13654E+03 -4.46476E+03  1.54849E+03 -5.86544E+03 -1.91127E+03 -2.67349E+03 -3.04922E+03
  4.99354E+02 -3.75609E+03  1.67765E+03 -1.28534E+03  1.67590E+03  2.23451E+03 -2.08706E+03  2.09619E+03
 -3.06581E+03  2.29976E+03 -3.75954E+03 -1.53557E+03 -1.80888E+03 -6.03766E+03  3.09826E+02 -3.85083E+03
  2.29405E+03 -2.44636E+03  2.95198E+03 -5.07532E+02  2.31159E+03  6.21953E+02  1.41468E+03  2.16741E+03
 -5.24246E+02 -7.84250E+01 -2.18008E+03 -8.22323E+02  1.51478E+03 -1.73813E+03  3.55026E+03 -3.23963E+03
  3.58687E+03 -9.66377E+01  4.49725E+03  2.35304E+03  1.58954E+03  4.10684E+03 -1.33747E+03  4.21622E+03
 -5.33636E+03  1.40943E+03 -3.43887E+03 -5.02583E+02 -2.63159E+03 -3.52766E+03  2.99676E+02 -2.82912E+03
  3.12511E+03 -1.84737E+03  1.66189E+03  1.83547E+03  7.99783E+02  2.33232E+03  8.42938E+01  2.22730E+03
 -2.65783E+02  2.24978E+03 -1.02552E+03  8.27667E+02 -8.78197E+02  9.61957E+01 -9.17838E+02  6.07790E+02
 -2.48435E+03  1.17941E+03 -4.04678E+03  1.19364E+03 -3.96152E+03  2.27815E+02 -5.08776E+03 -1.64862E+03
 -2.38102E+03 -7.12965E+03  1.81918E+03 -6.02673E+03  4.34585E+03 -6.22915E+03  5.85262E+03 -1.68361E+03
  7.12310E+03 -2.62758E+02  4.39204E+03  3.57906E+03 -1.50799E+03  3.68566E+03 -2.67034E+03  3.17550E+03
 -1.12709E+03  2.48639E+03 -3.31720E+03 -5.75856E+02  1.23737E+02 -5.58207E+02 -1.44542E+03 -4.53230E+02
 -7.39982E+02  4.21842E+02 -1.07215E+02 -1.35519E+03  1.53093E+03 -1.52575E+03  1.19366E+02 -1.68058E+03
  3.08758E+03 -2.08722E+03  2.06765E+03 -5.51945E+02  3.83004E+03  9.56628E+02  2.72858E+02  4.74773E+03
 -2.92396E+03  6.33169E+03 -3.81187E+03  2.48203E+03 -4.24585E+03  2.86090E+02 -3.41459E+03 -3.12963E+03
 -2.71225E+03 -3.51352E+03  2.15969E+02 -3.80963E+03  3.19911E+03 -1.90208E+03  2.06095E+03  2.45444E+01
  1.84750E+03  1.53605E+03  4.67616E+01 -2.62745E+02  5.60815E+02 -4.36742E+02  1.16373E+03 -1.05916E+03
  6.20287E+02 -5.23236E+02  1.28684E+03  7.28703E+02  2.12830E+03  2.33236E+03  6.01287E+02  1.56038E+03
 -1.47166E+03  1.99900E+03 -1.00684E+03 -3.39375E+02 -1.32786E+03 -1.94474E+03 -8.69989E+02 -3.23824E+03
  2.02342E+03 -4.45464E+03  2.89838E+03  1.01032E+03  2.57743E+03  1.81958E+03  1.56038E+03  3.07708E+03
  5.40353E+02  2.93515E+03 -5.32707E+02  2.29494E+03 -1.17876E+03  1.46958E+03 -1.49819E+03  7.63424E+01
 -4.46508E+01 -4.06354E+02 -1.54929E+03 -2.02658E+02 -1.92111E+03  5.53525E+02 -1.08063E+03 -4.52470E+02
 -2.78583E+03 -3.50500E+02  9.01117E+01 -1.46474E+03  6.32588E+02 -2.58250E+03  2.55712E+02 -3.96952E+02
  2.52215E+03  2.95516E+02 -4.04200E+02  7.45798E+02  3.31569E+02  2.65091E+03 -3.22486E+03  1.00498E+03
