 $NMID ID='MM_0lb_SNR200_8hz_g55_26.RAW', FMTDAT='(8E13.5)'
 TRAMP=1., VOLUME=1. $END
  3.10219E+05 -2.30730E+02  3.38366E+05  2.50075E+05  8.60339E+04  3.38744E+05 -1.31643E+05  2.51756E+05
 -1.90722E+05  8.38883E+04 -1.13261E+05 -3.17123E+04  4.20139E+02 -5.12630E+04  5.48361E+04 -2.08398E+03
  3.54787E+04  5.34256E+04 -1.68520E+04  7.46855E+04 -6.18503E+04  6.47992E+04 -8.51208E+04  3.24973E+04
 -8.21118E+04 -1.16780E+04 -5.95727E+04 -5.21215E+04 -1.46249E+04 -7.18442E+04  2.86382E+04 -4.61922E+04
  4.20804E+04  4.30827E+03  1.84001E+04  5.04680E+04 -3.29981E+04  4.79528E+04 -7.00375E+04  1.01682E+02
 -5.60831E+04 -5.75854E+04 -7.51662E+03 -8.06652E+04  3.41145E+04 -5.52618E+04  4.89181E+04 -1.66272E+04
  4.58540E+04  1.00413E+04  3.52154E+04  2.69026E+04  1.56170E+04  3.02669E+04 -6.12642E+03  2.66809E+04
 -2.17898E+04  1.24144E+04 -1.74380E+04 -5.10878E+03  7.27224E+03 -7.66740E+03  2.48691E+04  1.39717E+04
  5.41356E+03  3.72238E+04 -3.37743E+04  3.62456E+04 -6.63199E+04  2.46085E+03 -5.88104E+04 -4.47630E+04
 -1.17787E+04 -6.68746E+04  4.18734E+04 -4.75046E+04  6.16825E+04 -2.27245E+03  3.64038E+04  3.48751E+04
 -4.95927E+03  3.98619E+04 -3.09496E+04  1.88009E+04 -3.42843E+04 -2.76237E+03 -2.09362E+04 -1.18884E+04
 -1.07994E+04 -1.56968E+04  1.16837E+02 -1.89564E+04  8.71106E+03 -2.15304E+04  1.60191E+04 -1.32167E+04
  1.04646E+04  8.11833E+03 -1.11440E+04  1.38163E+04 -2.51356E+04 -9.11672E+03 -7.57610E+03 -3.88721E+04
  2.60248E+04 -4.78124E+04  5.36141E+04 -2.12913E+04  4.91342E+04  2.14946E+04  1.86095E+04  4.95437E+04
 -1.69163E+04  3.67565E+04 -2.87125E+04  3.84396E+03 -1.17979E+04 -2.90925E+04  2.32327E+04 -3.73651E+04
  4.72686E+04 -1.21128E+04  4.20548E+04  2.62079E+04  2.36492E+04  5.30294E+04 -9.28223E+03  5.72024E+04
 -3.72490E+04  3.97478E+04 -5.05084E+04  1.22226E+04 -4.72634E+04 -1.97252E+04 -2.73695E+04 -4.31595E+04
  7.21622E+03 -4.33946E+04  3.57623E+04 -1.87224E+04  3.32637E+04  1.19745E+04  7.16639E+03  2.08328E+04
 -1.44153E+04  8.53023E+03 -1.19632E+04 -8.39268E+03  5.35643E+03 -1.05184E+04  1.87150E+04  6.17437E+03
  1.65981E+04  2.27669E+04 -6.17850E+03  2.87192E+04 -2.33000E+04  1.30958E+04 -3.18943E+04 -3.82514E+02
 -2.79393E+04 -2.02141E+04 -1.23085E+04 -2.68136E+04  5.46551E+03 -2.61067E+04  2.35634E+04 -2.57759E+04
  3.41775E+04 -1.31144E+04  3.92095E+04  5.38153E+03  2.67763E+04  2.56095E+04  4.30558E+03  4.28497E+04
 -1.94304E+04  3.52161E+04 -3.26535E+04  9.33516E+03 -2.30100E+04 -9.28855E+03 -5.26159E+03 -1.28790E+04
  1.31811E+03  5.41065E+02 -8.15590E+03  8.53965E+03 -2.15897E+04  5.31524E+03 -2.04548E+04 -1.09285E+04
 -1.31488E+04 -2.30417E+04  6.66921E+03 -2.88974E+04  1.94971E+04 -2.13797E+04  2.53728E+04 -1.49494E+03
  1.34694E+04  1.61505E+04  1.10768E+02  2.37715E+04 -1.72432E+04  1.48375E+04 -2.60855E+04 -5.34280E+03
 -1.85152E+04 -2.14878E+04 -2.63584E+03 -2.88239E+04  1.34554E+04 -2.39842E+04  2.37362E+04 -1.24997E+04
  2.30231E+04 -6.58684E+02  1.68071E+04  6.21422E+03  9.10989E+03  1.88679E+03  1.21232E+04 -2.48952E+03
  2.55938E+04  3.18193E+03  2.64553E+04  2.04470E+04  1.66732E+04  4.07726E+04 -2.55166E+03  4.89932E+04
 -2.92460E+04  4.00269E+04 -4.53968E+04  2.03312E+04 -4.90365E+04 -4.06920E+03 -3.96375E+04 -2.78809E+04
 -1.33791E+04 -4.04378E+04  1.40326E+04 -3.68502E+04  3.14563E+04 -1.64882E+04  2.41766E+04  7.33700E+03
  8.73193E+03  2.01435E+04 -1.12731E+04  1.74299E+04 -2.14581E+04  2.77249E+03 -1.60541E+04 -1.44662E+04
 -1.70458E+03 -1.98484E+04  1.12665E+04 -1.49008E+04  1.40605E+04 -1.76127E+03  3.90471E+03  9.40093E+03
 -1.02273E+04  3.12808E+03 -1.07479E+04 -5.52021E+03 -2.54997E+03 -1.89348E+04  1.23637E+04 -2.34840E+04
  2.36819E+04 -1.15890E+04  2.98336E+04  2.33139E+03  2.72473E+04  1.94362E+04  1.07973E+04  3.16045E+04
 -6.49068E+03  3.38583E+04 -2.38608E+04  2.20756E+04 -2.34514E+04  3.96194E+03 -1.69842E+04 -6.49354E+03
 -7.72160E+03 -9.83056E+03 -1.84836E+03  1.94450E+03 -2.45249E+03  2.83043E+03 -6.22229E+03  6.62611E+03
 -1.55373E+04 -1.75403E+03 -1.59058E+04 -1.27999E+04 -8.14595E+03 -2.07963E+04  7.41548E+03 -1.63360E+04
  1.39031E+04 -5.30148E+03  1.12290E+04  4.10666E+03 -1.54104E+02  5.27400E+03 -9.42215E+03 -1.35716E+03
 -9.11679E+03 -1.04163E+04 -7.90093E+02 -1.59858E+04  1.17097E+04 -1.90104E+04  2.17569E+04 -1.01213E+04
  2.45659E+04  3.45788E+03  1.92864E+04  1.57841E+04  2.97256E+03  2.07064E+04 -1.10576E+04  1.72714E+04
 -1.35578E+04  4.63043E+03 -7.25902E+03 -3.95862E+03  2.58506E+03 -4.08038E+03  7.65520E+03 -4.06425E+01
  9.14057E+03  9.44513E+03  1.36901E+03  1.43601E+04 -1.07703E+04  1.31019E+04 -1.71419E+04  2.16722E+03
 -1.17856E+04 -1.09542E+04  4.78481E+01 -1.52152E+04  1.00299E+04 -7.06233E+03  1.08805E+04  3.80384E+03
  2.84906E+03  1.21050E+04 -9.75342E+03  1.44917E+04 -1.66627E+04  5.60075E+03 -1.45508E+04 -6.41235E+03
 -9.45102E+03 -1.69637E+04  4.71639E+03 -2.06621E+04  1.84316E+04 -1.28119E+04  1.75316E+04  2.85554E+03
  1.17176E+04  1.47446E+04 -3.99609E+02  1.78775E+04 -1.26674E+04  1.00405E+04 -1.53397E+04 -1.45919E+03
 -1.11739E+04 -1.08711E+04 -2.20682E+03 -1.17190E+04  7.29200E+03 -1.25538E+04  8.19135E+03 -4.37224E+03
  5.52458E+03  2.08224E+03 -9.82068E+02  3.15198E+03 -1.43775E+03 -4.80394E+03  3.92055E+03 -6.77213E+03
  1.44975E+04 -5.59564E+03  1.81633E+04  4.60742E+02  1.94335E+04  1.22048E+04  1.10416E+04  2.20946E+04
 -5.85934E+03  2.66949E+04 -2.02748E+04  2.22942E+04 -2.89347E+04  5.35206E+03 -2.39668E+04 -8.60580E+03
 -1.18289E+04 -2.00492E+04  1.52651E+03 -1.79493E+04  4.93021E+03 -9.02672E+03  5.68353E+03 -5.97102E+03
  3.82537E+03 -3.37799E+03  3.16639E+03 -4.53020E+03  6.78536E+03 -3.15210E+03  9.26403E+03 -2.26933E+03
  1.02510E+04  3.08325E+03  7.95475E+03  1.07558E+04 -2.37632E+03  1.22747E+04 -1.14826E+04  1.03998E+04
 -1.57196E+04  6.58464E+02 -1.19600E+04 -1.16076E+04 -4.16517E+02 -1.87935E+04  1.03655E+04 -1.88166E+04
  1.82830E+04 -8.91452E+03  2.36413E+04  2.41996E+03  1.43375E+04  1.75671E+04  1.58473E+03  1.95851E+04
 -9.69931E+03  1.61700E+04 -1.33517E+04  4.02412E+03 -8.23706E+03 -2.12896E+03 -3.23407E+03 -3.23537E+03
 -3.37222E+03  2.13309E+02 -1.67995E+03  4.05159E+03 -8.38664E+03  3.05882E+03 -1.09147E+04 -2.05955E+03
 -8.18247E+03 -1.06771E+04 -1.52635E+02 -1.84106E+04  1.11392E+04 -1.67197E+04  1.72662E+04 -3.99521E+03
  1.52421E+04  7.85563E+03  9.28254E+03  1.57379E+04 -2.59608E+03  1.83082E+04 -1.24849E+04  1.10300E+04
 -1.69743E+04  6.37321E+02 -1.27445E+04 -1.08212E+04  7.72179E+02 -1.32145E+04  6.55731E+03 -1.13331E+04
  1.09864E+04 -3.67350E+03  7.88131E+03  2.52803E+03  3.29893E+03  6.67353E+03  8.21025E+02  2.13537E+03
  3.69850E+03 -1.10631E+02  3.25047E+03  8.23910E+02  5.24676E+03  6.29636E+03  3.02116E+03  9.34943E+03
 -2.93157E+03  1.43940E+04 -1.32253E+04  1.51821E+04 -1.81629E+04  4.21322E+03 -1.96970E+04 -6.31056E+03
 -9.07041E+03 -1.69566E+04  1.64115E+03 -1.97292E+04  1.06033E+04 -1.31639E+04  1.45649E+04 -3.52255E+03
  1.14000E+04  5.54390E+03  2.07458E+03  1.02903E+04 -5.94049E+03  8.68676E+03 -8.39196E+03 -8.84898E+02
 -4.73404E+03 -7.55827E+03  4.68966E+03 -8.47345E+03  8.45518E+03 -3.74322E+03  7.17593E+03  5.74109E+02
  6.70224E+03  3.50075E+03  2.03529E+03  7.62953E+02  2.14780E+02  1.61375E+03  3.75340E+02 -8.97194E+02
  4.83088E+03 -1.44725E+03  8.12410E+03  3.19978E+03  5.18844E+03  1.02035E+04 -2.46047E+03  1.31458E+04
 -7.07413E+03  1.07025E+04 -1.11208E+04  2.81514E+03 -1.09086E+04 -4.87432E+03 -4.46181E+03 -6.16440E+03
 -1.77587E+03 -7.90176E+03  4.98164E+03 -3.21828E+03  1.52707E+03  4.19859E+03 -1.92229E+03  6.66926E+03
 -7.82193E+03  3.58307E+03 -8.05444E+03 -2.36598E+03 -5.40207E+03 -1.14521E+04  1.62936E+03 -1.06965E+04
  5.87053E+03 -5.49800E+03  7.06356E+03 -1.47448E+03  6.31489E+03  3.28186E+03 -1.62933E+03  3.12257E+03
 -2.14665E+03  2.36610E+03 -4.39569E+03 -4.05442E+03  6.72408E+02 -7.54263E+03  1.08129E+04 -5.43484E+03
  1.28808E+04 -1.73854E+03  1.05595E+04  7.86057E+03  5.08037E+03  1.36254E+04 -4.73841E+03  1.06275E+04
 -9.00796E+03  4.33949E+03 -1.06527E+04 -3.12403E+03 -4.62950E+03 -7.65190E+03  3.02942E+03 -7.39349E+03
  7.24284E+03 -4.10295E+03  6.93374E+03  3.50475E+03  2.26297E+03  6.69986E+03 -7.71193E+02  5.03562E+03
 -2.23546E+03  2.72925E+03 -3.54643E+03  1.30525E+03 -2.00672E+03  1.63783E+03 -2.50481E+03  3.37161E+03
 -9.09509E+02  4.22306E+03 -7.78075E+03  4.41880E+03 -1.09626E+04  7.19240E+02 -1.31667E+04 -7.90498E+03
 -6.76559E+03 -1.68359E+04  1.43466E+03 -1.98466E+04  1.14348E+04 -1.35129E+04  1.82877E+04 -3.66345E+03
  1.73733E+04  3.91680E+03  1.11361E+04  1.08984E+04  9.63020E+02  1.38682E+04 -5.59137E+03  9.10233E+03
 -6.49419E+03  3.69299E+03 -4.61035E+03 -2.50882E+03 -1.14140E+03 -1.81863E+02 -3.93168E+02  1.96462E+03
 -8.86833E+02  2.43586E+03 -3.39379E+03 -7.10783E+02 -2.22618E+03 -2.52065E+03  4.79785E+02 -4.89805E+03
  5.90116E+03 -2.71108E+03  8.04591E+03 -1.68912E+01  7.98548E+03  8.79004E+03  2.53677E+03  1.29926E+04
 -5.71800E+03  1.51949E+04 -1.48125E+04  9.67094E+03 -1.48463E+04 -1.77605E+03 -1.27442E+04 -9.55310E+03
 -5.04539E+03 -1.34862E+04  3.46592E+03 -1.18124E+04  7.29581E+03 -6.19111E+03  9.37141E+03 -3.28786E+02
  5.64977E+03  4.46262E+03 -7.53989E+02  2.81005E+03 -2.33664E+03  2.23610E+02  7.53591E+02 -3.94574E+03
  6.72780E+03 -3.42584E+03  7.57898E+03  6.13206E+02  3.73206E+03  5.73146E+03  1.83736E+03  7.00194E+03
 -5.77197E+03  5.32365E+03 -9.68369E+03 -2.67559E+02 -7.85744E+03 -6.31079E+03 -2.97200E+03 -1.22027E+04
  7.46861E+03 -9.90647E+03  1.04678E+04 -2.17824E+03  1.01265E+04  2.96703E+03  3.17617E+03  6.95040E+03
  1.10246E+03  8.41904E+03 -5.58463E+03  6.56707E+03 -5.70315E+03  4.16511E+03 -5.47758E+03  8.10669E+02
 -2.88595E+03  2.54024E+02 -1.64637E+03  6.68414E+02 -4.01265E+03  4.08042E+03 -6.37042E+03 -4.24619E+02
 -6.40644E+03 -4.44922E+03 -1.30038E+03 -1.04102E+04  2.35940E+03 -1.11149E+04  6.25759E+03 -3.92309E+03
  7.47843E+03  1.02122E+03  5.39097E+03  5.39036E+03 -1.63631E+03  7.59063E+03 -6.39006E+03  6.83167E+03
