 $NMID ID='MM_0lb_SNR200_19hz_g40_30.RAW', FMTDAT='(8E13.5)'
 TRAMP=1., VOLUME=1. $END
  3.09857E+05 -2.52390E+00  3.37176E+05  2.49664E+05  8.46187E+04  3.36170E+05 -1.32318E+05  2.50366E+05
 -1.89455E+05  8.29853E+04 -1.10651E+05 -3.27589E+04  1.36880E+03 -5.02846E+04  5.50312E+04  1.15645E+03
  3.54264E+04  5.30109E+04 -1.77117E+04  7.44412E+04 -6.02812E+04  6.30297E+04 -8.24476E+04  3.11243E+04
 -7.88416E+04 -1.10970E+04 -5.63933E+04 -4.97219E+04 -1.48528E+04 -6.70323E+04  2.61965E+04 -4.43118E+04
  3.90406E+04  3.81868E+03  1.58185E+04  4.67973E+04 -3.32653E+04  4.65078E+04 -6.44318E+04 -6.90711E+02
 -5.16459E+04 -5.47924E+04 -7.29640E+03 -7.47092E+04  3.23232E+04 -5.18086E+04  4.57972E+04 -1.60910E+04
  4.08551E+04  1.17833E+04  3.02996E+04  2.44977E+04  1.63140E+04  2.76622E+04 -4.09966E+03  2.63616E+04
 -2.18318E+04  1.22207E+04 -1.97941E+04 -4.59695E+03  4.37371E+03 -7.45491E+03  2.14366E+04  9.87802E+03
  6.95621E+03  3.33147E+04 -3.09092E+04  3.24071E+04 -5.97667E+04  3.14211E+03 -5.53504E+04 -4.08516E+04
 -1.30206E+04 -5.91927E+04  3.82811E+04 -4.29379E+04  5.43967E+04 -2.25620E+03  3.09130E+04  2.90922E+04
 -7.37126E+03  3.19279E+04 -2.86681E+04  1.20535E+04 -2.79826E+04 -5.08165E+03 -1.21561E+04 -1.01784E+04
 -7.01375E+03 -1.07426E+04 -1.95377E+03 -1.64332E+04  6.77942E+03 -2.30469E+04  1.56336E+04 -1.43170E+04
  1.25690E+04  3.59776E+03 -6.15167E+03  1.32119E+04 -1.91554E+04 -1.30254E+03 -8.58119E+03 -2.98293E+04
  1.98281E+04 -4.05204E+04  4.52749E+04 -1.85343E+04  4.10722E+04  1.79041E+04  1.40557E+04  3.97374E+04
 -1.52845E+04  2.95498E+04 -2.28161E+04  7.17749E+02 -7.24562E+03 -2.62010E+04  2.00673E+04 -3.01528E+04
  3.61406E+04 -7.20982E+03  3.14253E+04  2.21634E+04  1.44842E+04  4.13470E+04 -7.73641E+03  4.35394E+04
 -2.75000E+04  2.74029E+04 -3.66458E+04  7.20357E+03 -3.61576E+04 -1.45044E+04 -2.03546E+04 -3.42400E+04
  7.31137E+03 -3.23050E+04  2.92338E+04 -1.30094E+04  2.51597E+04  1.02185E+04  3.21962E+03  1.71754E+04
 -1.40038E+04  6.15912E+03 -1.03056E+04 -7.51559E+03  6.16797E+03 -1.09089E+04  1.64941E+04  6.71003E+03
  1.27355E+04  2.18830E+04 -7.77671E+03  2.27761E+04 -2.08475E+04  8.22987E+03 -2.37521E+04 -7.18868E+03
 -1.52785E+04 -1.67643E+04 -3.79432E+03 -1.62624E+04  3.42875E+03 -1.36131E+04  1.16488E+04 -1.39560E+04
  1.99889E+04 -1.19669E+04  2.69835E+04  1.37671E+03  1.99688E+04  1.50842E+04  3.17200E+03  3.22828E+04
 -1.55889E+04  2.70791E+04 -2.59461E+04  9.89863E+03 -1.93092E+04 -9.65630E+03 -3.70501E+03 -1.38148E+04
  3.90527E+03 -4.14165E+03 -2.10410E+03  5.54184E+03 -1.19523E+04  4.50499E+03 -1.28181E+04 -3.99253E+03
 -8.40213E+03 -1.54421E+04  4.43558E+03 -1.87615E+04  1.21439E+04 -1.35686E+04  1.54231E+04 -1.87230E+03
  7.25995E+03  1.07515E+04 -1.03193E+03  1.50417E+04 -9.55737E+03  8.03199E+03 -1.46594E+04 -2.20043E+03
 -1.12721E+04 -1.39631E+04 -1.75626E+03 -1.87752E+04  8.08649E+03 -1.47782E+04  1.62469E+04 -7.03274E+03
  1.35277E+04  1.30651E+03  9.76096E+03  3.12534E+03  5.73594E+03  9.48497E+01  6.96212E+03 -2.31333E+03
  1.37156E+04  2.65452E+03  1.34804E+04  1.18356E+04  8.66972E+03  2.33121E+04 -4.27311E+03  2.50167E+04
 -1.47298E+04  1.83269E+04 -2.35868E+04  8.27064E+03 -2.23303E+04 -1.25988E+03 -1.92022E+04 -1.28929E+04
 -9.63824E+03 -1.86847E+04  7.42607E+03 -1.78491E+04  1.55609E+04 -1.03835E+04  1.46596E+04  2.95578E+03
  6.70466E+03  1.02405E+04 -7.22787E+03  9.15206E+03 -1.34184E+04  2.75900E+03 -9.63427E+03 -7.92599E+03
 -2.75022E+01 -1.16729E+04  5.66396E+03 -8.05699E+03  7.08221E+03 -5.21774E+02  1.32922E+02  4.40959E+03
 -4.67976E+03  3.64899E+02 -3.83834E+03 -3.24213E+03  2.90894E+01 -1.01189E+04  7.17691E+03 -8.76946E+03
  1.08393E+04 -4.48197E+03  1.00259E+04  2.16347E+03  8.89319E+03  9.13395E+03  4.31745E+03  1.38648E+04
 -1.87363E+03  1.34170E+04 -8.13085E+03  9.98883E+03 -1.08698E+04  3.62026E+03 -7.69345E+03 -2.00901E+02
 -4.52965E+03 -3.38210E+03 -1.54134E+03  8.75665E+02 -2.72629E+03  1.57432E+03 -3.52872E+03  3.37386E+03
 -7.09546E+03 -8.77047E+02 -7.94642E+03 -7.54365E+03 -3.87056E+03 -1.14215E+04  3.10163E+03 -8.25448E+03
  7.41899E+03 -3.99021E+03  4.26139E+03  2.05043E+03  4.89927E+01  2.92447E+03 -3.02027E+03 -2.59190E+02
 -3.33382E+03 -5.19542E+03 -1.52253E+03 -6.92236E+03  3.70630E+03 -7.15906E+03  8.30852E+03 -3.76473E+03
  1.03328E+04 -5.49619E+02  7.65390E+03  5.99491E+03  1.07611E+03  7.49556E+03 -4.55737E+03  8.53859E+03
 -7.08979E+03  2.95162E+03 -4.22829E+03 -7.42129E+02  1.40937E+03 -1.61478E+03  5.00445E+03 -9.07109E+02
  3.23463E+03  3.99431E+03  1.10927E+03  5.25736E+03 -3.91192E+03  6.83449E+03 -7.66198E+03  1.39480E+03
 -3.50587E+03 -3.20399E+03 -5.27247E+02 -6.11720E+03  1.80722E+03 -2.54315E+03  3.01054E+03  6.06576E+02
  2.54965E+01  3.83949E+03 -3.63456E+03  4.19204E+03 -4.69164E+03  1.78254E+03 -3.25232E+03 -8.95080E+02
 -2.98933E+03 -5.21011E+03  7.66708E+02 -6.17102E+03  5.12810E+03 -4.56201E+03  4.79657E+03  2.53476E+02
  4.72563E+03  4.69085E+03  5.71998E+01  6.36827E+03 -5.55234E+03  3.27248E+03 -4.59368E+03 -1.23762E+03
 -6.22247E+03 -4.91890E+03 -1.45732E+03 -3.94523E+03  1.82224E+03 -4.37847E+03  3.22652E+03 -2.88470E+03
  3.13570E+03  2.43402E+02  7.37634E+02  1.41517E+03  3.05393E+02  3.01059E+02  5.91272E+02 -1.83617E+03
  2.87897E+03 -2.50840E+02  5.11230E+03  9.48929E+02  5.14591E+03  2.08491E+03  4.09114E+03  6.32033E+03
 -1.43922E+03  7.49515E+03 -6.63403E+03  6.33849E+03 -9.21985E+03  3.31277E+02 -7.16389E+03 -2.96857E+03
 -2.67943E+03 -6.89171E+03 -4.67717E+02 -4.49415E+03  2.39559E+03 -1.88762E+03  1.79944E+03 -1.48446E+03
  6.05995E+02 -1.77960E+03  2.36919E+03 -2.71110E+03  3.93898E+03 -8.32552E+02  3.48842E+03  8.09287E+02
  4.13728E+03  5.79253E+02  1.59951E+03  2.61887E+03 -1.97915E+03  3.81275E+03 -5.13124E+03  2.49570E+03
 -4.88820E+03 -9.22518E+02 -2.01444E+03 -2.86746E+03  4.98376E+02 -4.86883E+03  2.82172E+03 -4.93646E+03
  4.95154E+03 -2.21634E+03  6.10177E+03 -1.26841E+02  4.72523E+03  4.01880E+03  8.68814E+02  4.77038E+03
 -1.00885E+03  5.07525E+03 -3.66382E+03  5.52466E+02 -1.60985E+03 -1.41733E+03 -2.69525E+02 -4.79682E+02
  8.44702E+00  1.24630E+03 -9.99697E+02  2.16591E+03 -3.14261E+03  4.01728E+02 -3.62305E+03  4.96761E+01
 -1.27141E+03 -4.45373E+03  5.98325E+02 -5.31101E+03  2.83534E+03 -3.44260E+03  2.68993E+03 -1.02670E+03
  2.87868E+03  2.00501E+03  1.39013E+03  3.37106E+03 -3.85564E+02  3.86262E+03 -2.68017E+03  2.30341E+03
 -2.18860E+03  1.45423E+03 -2.59612E+03 -2.18746E+03  1.15214E+03 -2.29332E+03  1.29217E+03 -2.56756E+03
  2.41562E+03 -9.17061E+02  1.53207E+03  3.98012E+02  3.44287E+02  1.91459E+03  1.79061E+03  7.27100E+02
  1.97866E+03  2.22223E+03  5.45345E+02  1.42916E+03  1.26813E+03  1.64785E+03  1.14293E+03  1.08171E+03
 -9.06526E+02  2.61738E+03 -3.31924E+03  3.72582E+03 -2.60643E+03  1.47661E+02 -4.26955E+03 -7.12932E+02
 -2.55680E+03 -3.85339E+03  7.41997E+02 -3.99353E+03  1.82921E+03 -2.65152E+03  3.42166E+03 -1.04188E+03
  2.08015E+03  1.87677E+03  1.58700E+02  2.60856E+03 -7.98595E+01  1.66836E+03  4.29821E+02  1.91623E+02
 -1.97002E+02 -1.25348E+03  1.49378E+03 -2.06967E+03  1.65059E+03 -5.72924E+02  1.28537E+03 -6.83316E+01
  1.52362E+03 -1.18868E+03 -7.90108E+02 -3.88933E+02  1.17292E+01  1.21271E+02  2.17434E+03 -1.23263E+03
  2.06169E+02  7.42909E+02  2.49989E+03 -9.40833E+02 -3.67905E+02  2.21393E+03 -6.40599E+01  2.27047E+03
 -1.96475E+03  4.52613E+02 -2.33610E+03  3.44350E+02 -2.80370E+03 -9.61637E+02 -1.79412E+02 -1.57056E+03
 -9.63115E+02 -8.59824E+02  5.04690E+02 -1.46540E+03  7.69498E+00  8.06516E+02 -1.52627E+02  5.07823E+02
 -1.48112E+02  9.38313E+02 -1.07311E+03 -9.81278E+02 -8.14791E+02 -2.64422E+03 -3.12009E+02 -6.21381E+02
 -6.37221E+02 -5.61615E+02  2.79469E+02  9.00001E+02  1.60061E+03 -2.59313E+02  1.03509E+03  2.80221E+02
 -3.70693E+02  2.65140E+02 -1.76386E+03  3.07572E+02 -3.79313E+02 -5.23192E+02  8.90039E+02 -7.63018E+02
  1.04953E+03  7.33569E+02  2.38237E+03  3.56389E+02  1.29498E+03  1.83484E+03 -2.82064E+02  3.82251E+02
 -5.63130E+02  1.53507E+02 -6.45850E+02 -2.21943E+02 -3.91721E+02 -1.41581E+03  1.11160E+03 -1.93168E+02
  4.66526E+02 -9.03356E+02  1.07212E+03  1.06191E+03 -1.14769E+02  1.03719E+02  5.33481E+02  1.06995E+03
  2.52633E+02  1.42935E+03 -9.47648E+02  1.54600E+02 -4.14969E+02 -6.05100E+02 -8.50847E+02  4.06640E+02
 -1.87925E+03  7.36865E+02 -1.12912E+03  5.42550E+02 -1.97745E+03  3.81252E+02 -3.08146E+03 -4.58463E+02
 -1.12468E+03 -1.49018E+03  1.21264E+03 -2.79917E+03  9.00332E+02 -2.19079E+03  2.56455E+03 -1.29585E+03
  1.49235E+03  8.70837E+01  9.07843E+02  1.13894E+03 -1.08229E+02  2.31333E+03  4.44760E+01  1.18990E+03
 -6.79204E+02  1.43643E+03 -1.24496E+03 -1.19820E+03 -3.46974E+02  6.73637E+02 -6.72653E+02 -4.95348E+02
 -2.14447E+03  2.47424E+02 -1.06296E+03 -1.64787E+02 -7.88198E+02 -5.30248E+02 -5.19904E+02 -7.58969E+02
  5.34150E+02 -6.36254E+02 -8.03380E+01  9.85286E+01  8.36990E+02  1.81033E+03 -6.53119E+02  1.40226E+03
 -1.76298E+03  1.89237E+03 -4.78467E+01  1.73112E+02 -1.57837E+03 -4.14977E+02 -1.66696E+03 -8.63106E+02
 -1.63827E+03 -9.85264E+02  3.60853E+02 -1.51931E+03  5.66213E+02 -2.01417E+03  1.04110E+03  1.89512E+02
  8.93641E+02  2.24212E+01  1.62346E+02  5.52615E+02 -8.16362E+02 -1.18055E+03 -3.73199E+02 -9.91064E+02
  7.31054E+02  1.82987E+02  5.18742E+01  9.50650E+02  3.55180E+02  4.96731E+02 -1.00165E+02  7.27781E+02
  5.03559E+02 -4.63227E+02 -1.31297E+03  8.19547E+02 -1.13366E+03 -8.18140E+02  3.69079E+02 -1.00886E+03
  1.01142E+03 -3.89872E+02 -1.61206E+02 -3.09746E+02 -6.79542E+02 -7.30845E+02  1.34237E+02  6.03161E+02
  6.75094E+02 -2.78432E+02 -8.06670E+02  7.43338E+02 -4.29378E+02  1.91464E+03  1.08161E+02 -2.89292E+02
 -3.05467E+02 -1.47437E+02 -1.96947E+02  1.23649E+02 -7.91539E+02  6.60954E+02 -4.32634E+02  5.99420E+01
 -1.91137E+03  8.36997E+02 -6.24925E+02 -1.32270E+03  9.81936E+02 -5.42663E+02  5.60970E+02 -5.34436E+02
  5.11868E+02 -1.36247E+02 -2.35953E+02  6.59789E+02 -4.96611E+01  7.94999E+02 -6.76857E+02  8.66546E+02
