 $NMID ID='MM_0lb_SNR200_16hz_g60_77.RAW', FMTDAT='(8E13.5)'
 TRAMP=1., VOLUME=1. $END
  3.10452E+05  5.69823E+02  3.36996E+05  2.50024E+05  8.47246E+04  3.38365E+05 -1.32734E+05  2.50151E+05
 -1.89794E+05  8.35479E+04 -1.11372E+05 -3.10965E+04  7.77404E+02 -5.21093E+04  5.46545E+04 -2.05471E+02
  3.50536E+04  5.32459E+04 -1.66888E+04  7.49229E+04 -6.18022E+04  6.36133E+04 -8.27602E+04  3.14083E+04
 -8.14646E+04 -1.29073E+04 -5.71563E+04 -5.24152E+04 -1.50520E+04 -6.92197E+04  2.65445E+04 -4.49487E+04
  4.07840E+04  4.49123E+03  1.64593E+04  4.79214E+04 -3.44507E+04  4.80740E+04 -6.67371E+04  6.42122E+01
 -5.22124E+04 -5.86641E+04 -6.52944E+03 -7.69821E+04  3.56085E+04 -5.60887E+04  4.80092E+04 -1.74396E+04
  4.47073E+04  1.05484E+04  3.35588E+04  2.66578E+04  1.64481E+04  2.92484E+04 -5.75755E+03  2.78716E+04
 -2.20196E+04  1.23013E+04 -1.91489E+04 -5.40458E+03  3.97967E+03 -6.59968E+03  2.33654E+04  1.17911E+04
  8.16435E+03  3.60833E+04 -3.14503E+04  3.54752E+04 -6.35670E+04  2.21801E+03 -5.69100E+04 -4.28436E+04
 -1.23301E+04 -6.39252E+04  4.04230E+04 -4.42983E+04  5.75897E+04 -2.57254E+03  3.33781E+04  3.28318E+04
 -6.54390E+03  3.61923E+04 -2.95907E+04  1.53196E+04 -3.02460E+04 -4.34138E+03 -1.75774E+04 -1.10919E+04
 -8.33317E+03 -1.42731E+04 -7.99830E+02 -1.81017E+04  7.70099E+03 -2.20340E+04  1.52166E+04 -1.38007E+04
  1.07407E+04  4.21573E+03 -8.12980E+03  1.30736E+04 -2.14957E+04 -4.34307E+03 -8.61809E+03 -3.50037E+04
  2.29736E+04 -4.31364E+04  4.86459E+04 -2.03084E+04  4.50658E+04  1.92451E+04  1.56178E+04  4.31386E+04
 -1.68098E+04  3.13432E+04 -2.50155E+04  2.12064E+03 -9.54703E+03 -2.86547E+04  2.07724E+04 -3.34204E+04
  4.14622E+04 -8.83908E+03  3.55067E+04  2.47973E+04  1.72974E+04  4.60378E+04 -8.74649E+03  4.86294E+04
 -3.17083E+04  3.35176E+04 -4.19002E+04  8.62790E+03 -4.24391E+04 -1.67405E+04 -2.39137E+04 -3.79419E+04
  7.96113E+03 -3.90800E+04  3.18028E+04 -1.60344E+04  2.93534E+04  1.04677E+04  4.30385E+03  1.89813E+04
 -1.38065E+04  7.82127E+03 -8.89286E+03 -8.65240E+03  6.51653E+03 -1.07471E+04  1.81464E+04  6.58898E+03
  1.39499E+04  2.13926E+04 -5.98605E+03  2.45209E+04 -2.26975E+04  1.03905E+04 -2.68417E+04 -5.17455E+03
 -2.07629E+04 -1.81043E+04 -9.47653E+03 -2.02683E+04  4.09593E+03 -1.95993E+04  1.62343E+04 -1.87063E+04
  2.58131E+04 -1.29859E+04  3.34046E+04  3.00203E+03  2.52314E+04  2.03512E+04  4.64742E+03  3.54224E+04
 -1.85310E+04  2.94165E+04 -2.81109E+04  1.17653E+04 -2.06757E+04 -9.51172E+03 -4.68007E+03 -1.40292E+04
  2.14249E+03 -3.27251E+03 -4.20562E+03  6.38718E+03 -1.48578E+04  5.56736E+03 -1.61462E+04 -7.41341E+03
 -1.09247E+04 -1.83325E+04  5.95591E+03 -2.22306E+04  1.53857E+04 -1.57929E+04  1.90780E+04 -9.21174E+02
  1.23674E+04  1.32511E+04 -1.03510E+03  1.95130E+04 -1.35200E+04  1.00733E+04 -1.85696E+04 -4.47262E+03
 -1.44287E+04 -1.70606E+04 -2.35319E+03 -2.22323E+04  9.54478E+03 -1.84161E+04  1.84484E+04 -9.11719E+03
  1.78343E+04  7.53847E+02  1.27903E+04  4.85522E+03  5.58316E+03  1.49338E+03  1.05655E+04 -1.27256E+03
  1.66574E+04  2.40877E+03  1.79485E+04  1.41644E+04  1.23075E+04  2.98060E+04 -3.19490E+03  3.36108E+04
 -1.94519E+04  2.69374E+04 -3.15801E+04  1.36374E+04 -3.28500E+04 -3.11898E+03 -2.67213E+04 -1.78778E+04
 -1.13548E+04 -2.64193E+04  9.88869E+03 -2.34459E+04  1.97940E+04 -1.18435E+04  1.71807E+04  5.27822E+03
  6.81518E+03  1.49192E+04 -9.03937E+03  1.23273E+04 -1.58026E+04  1.93549E+03 -1.22682E+04 -9.73861E+03
  9.42098E+01 -1.39151E+04  7.60481E+03 -1.13797E+04  1.00988E+04 -3.07311E+03  1.79254E+03  7.45089E+03
 -6.54810E+03  3.39768E+03 -4.25710E+03 -5.21638E+03 -6.42701E+02 -1.31720E+04  9.44430E+03 -1.24398E+04
  1.69478E+04 -5.00761E+03  1.67250E+04  1.66829E+03  1.43391E+04  1.29529E+04  6.32337E+03  2.00045E+04
 -2.94025E+03  2.05900E+04 -1.31203E+04  1.36219E+04 -1.55591E+04  3.89519E+03 -1.09327E+04 -3.27161E+03
 -5.79376E+03 -5.48434E+03  1.96139E+02  1.41188E+03 -2.29527E+03  3.54753E+03 -5.14112E+03  5.57083E+03
 -1.01268E+04 -4.39176E+02 -1.04578E+04 -8.78986E+03 -3.45753E+03 -1.41707E+04  4.78480E+03 -1.12287E+04
  9.36513E+03 -4.66890E+03  6.30756E+03  3.61933E+03  3.20794E+02  3.85499E+03 -5.22741E+03  6.17705E+02
 -4.27580E+03 -6.81696E+03 -7.50599E+02 -1.02292E+04  5.35377E+03 -1.03297E+04  1.31654E+04 -5.28408E+03
  1.49380E+04  8.96756E+02  1.12848E+04  8.68907E+03  1.64213E+03  1.06832E+04 -6.60633E+03  1.08347E+04
 -8.28021E+03  2.73370E+03 -5.27626E+03 -2.55411E+03  1.68356E+03 -2.49942E+03  4.86217E+03 -1.04452E+03
  5.00701E+03  4.48018E+03  1.34818E+03  9.13565E+03 -5.69489E+03  9.18854E+03 -1.02307E+04  1.66907E+03
 -7.40801E+03 -4.93866E+03  1.24063E+03 -9.32382E+03  5.97611E+03 -4.47663E+03  5.74433E+03  2.24966E+03
  1.56034E+03  6.26438E+03 -6.30451E+03  6.86899E+03 -6.58623E+03  3.75184E+03 -7.55207E+03 -2.85214E+03
 -3.49262E+03 -9.69928E+03  1.77962E+03 -1.15583E+04  8.51692E+03 -6.57900E+03  9.79117E+03  1.26953E+03
  5.81687E+03  7.25787E+03  4.79205E+02  9.87104E+03 -6.71314E+03  5.61414E+03 -8.11569E+03 -3.31375E+02
 -7.44835E+03 -6.72731E+03 -1.93833E+03 -7.29479E+03  3.83092E+03 -6.14855E+03  4.35100E+03 -3.34263E+03
  4.39209E+03 -6.25506E+02  4.88438E+02  9.83127E+02  3.29207E+02 -2.15787E+00  1.46969E+03 -3.07850E+03
  6.43414E+03 -1.57068E+03  8.72932E+03  1.62157E+03  8.20168E+03  4.81278E+03  7.45794E+03  1.14678E+04
 -1.95938E+03  1.20728E+04 -1.17461E+04  9.36339E+03 -1.37405E+04  2.12809E+03 -1.05415E+04 -3.83518E+03
 -5.93266E+03 -9.28370E+03 -1.48356E+02 -8.05908E+03  2.64955E+03 -3.79979E+03  3.09647E+03 -3.06388E+03
  1.67995E+03 -2.38087E+03  2.69646E+03 -3.67681E+03  4.37016E+03 -2.22930E+03  5.67836E+03  1.69610E+02
  5.88535E+03  1.74733E+03  1.39153E+03  5.81237E+03 -2.25363E+03  4.50251E+03 -5.10692E+03  4.39927E+03
 -5.68166E+03 -8.10943E+01 -5.21392E+03 -5.50177E+03 -4.64446E+02 -7.18394E+03  3.81111E+03 -7.51811E+03
  7.68555E+03 -4.04241E+03  9.93876E+03  5.78494E+01  7.23533E+03  7.43060E+03  7.41952E+02  9.65613E+03
 -3.02951E+03  7.98339E+03 -4.66014E+03  3.00898E+03 -2.76276E+03 -1.26893E+03 -1.36983E+03 -1.07589E+03
 -1.46506E+03  6.12433E+02 -7.57975E+02  1.65985E+03 -3.43970E+03  2.43667E+03 -6.91599E+03 -3.29174E+02
 -3.23859E+03 -5.42374E+03 -4.99222E+02 -6.43813E+03  4.09242E+03 -5.82920E+03  5.87079E+03 -1.62281E+03
  7.21709E+03  3.00683E+03  2.11291E+03  5.97895E+03 -1.79938E+03  5.35630E+03 -3.73555E+03  4.06897E+03
 -6.59449E+03  6.15067E+02 -4.38708E+03 -3.28787E+03  2.74609E+02 -4.92215E+03  2.94679E+03 -4.23580E+03
  3.44205E+03 -1.05395E+03  2.65622E+03 -1.35227E+03  4.60248E+02  1.97698E+03  7.47367E+02  6.10346E+02
  1.97109E+03  8.32788E+01  1.10324E+03  1.03862E+03  3.30163E+03  2.73314E+03  1.82653E+03  2.35489E+03
 -1.83018E+03  4.12716E+03 -5.17504E+03  5.40015E+03 -6.27434E+03  2.50629E+03 -5.83453E+03 -2.69357E+03
 -2.93003E+03 -5.76101E+03  6.98304E+02 -8.60303E+03  4.10925E+03 -4.29426E+03  5.45772E+03 -3.33164E+02
  3.62873E+03  2.19579E+03  5.88891E+02  5.44908E+03 -1.52721E+03  1.26542E+03 -2.19099E+03 -1.01171E+03
 -9.78896E+02 -2.06091E+03  1.89404E+03 -2.00696E+03  2.09547E+03 -1.59924E+03  1.39908E+03  4.25324E+02
 -1.40311E+02  1.80294E+03  1.76742E+03  2.70917E+02 -4.92368E+02  9.61467E+02  1.61706E+03  2.80982E+02
  5.53467E+02 -1.05985E+03  2.69032E+03  4.03332E+02  1.85419E+03  2.61958E+03 -3.54203E+02  4.63161E+03
 -1.99482E+03  2.06894E+03 -3.82645E+03 -5.09659E+02 -3.08249E+03  2.20476E+02 -3.56814E+02 -2.49582E+03
 -5.73676E+01 -1.60458E+03  1.38453E+03 -1.83629E+03 -7.05386E+02  2.23868E+03 -1.80824E+03  9.73391E+02
 -2.50115E+03  5.25778E+02 -2.36854E+03 -2.19954E+03 -6.67576E+02 -2.81222E+03 -8.94836E+02 -3.14867E+03
  1.59375E+03 -1.32789E+03  6.24319E+02  3.06182E+01  3.09533E+03  1.28436E+03  6.01542E+02  5.80073E+02
 -5.93279E+02  1.99136E+02 -6.00780E+02 -1.37577E+03  6.50279E+02 -2.26709E+03  3.21516E+03 -1.99373E+03
  1.67653E+03  7.12147E+02  2.12844E+03  6.50589E+02  1.55318E+03  3.44681E+03 -5.44374E+02  2.52117E+03
 -3.46886E+03  6.80707E+02 -1.99897E+03  1.38153E+02 -2.53426E+03 -2.90873E+03  7.73545E+02 -1.03657E+03
  1.48412E+03 -5.03460E+02  1.02875E+03  1.58997E+03  7.86055E+02  1.45208E+03  6.48592E+02  1.78151E+03
 -9.52244E+02  2.85539E+03 -3.12269E+02  1.23807E+03 -3.11231E+02 -6.62992E+02 -1.47360E+03  7.49839E+02
 -1.10628E+03  1.79884E+03 -3.41064E+03  3.82031E+02 -2.59793E+03  1.51816E+03 -2.89022E+03 -1.57015E+03
 -2.30219E+03 -2.78479E+03  4.11176E+02 -5.15292E+03  1.58239E+03 -3.71358E+03  3.57392E+03 -1.53727E+03
  4.18077E+03 -1.21523E+02  1.77454E+03  3.18256E+03 -1.29583E+03  2.61861E+03 -1.17389E+03  2.12935E+03
 -1.35914E+03  1.27099E+03 -5.13715E+02 -8.33549E+02 -7.75872E+02 -4.90066E+02  3.46380E+02  3.36914E+02
 -8.60243E+02 -3.83223E+02 -5.47815E+02 -1.37361E+03  5.54664E+02 -4.12108E+02 -8.04415E+02 -8.13947E+02
  2.53506E+03  2.75211E+01  4.64992E+02 -7.65591E+00  1.18740E+03  2.75653E+03  1.64230E+02  2.94871E+03
 -1.87046E+03  3.41804E+03 -2.55865E+03  3.15632E+03 -2.66349E+03 -2.01343E+02 -1.61493E+03 -1.59885E+03
 -1.39284E+03 -2.69262E+03  7.11710E+02 -2.16935E+03  7.77611E+02 -1.52082E+03  1.65547E+03 -1.96272E+02
  8.28541E+02  5.31256E+02  7.02910E+02  6.39378E+02 -1.27069E+03 -9.18211E+01 -5.39053E+01  2.23826E+02
  2.32413E+03 -1.86108E+02  9.79954E+02 -1.67070E+02  5.11949E+02  1.07976E+03  6.73156E+02  7.49328E+02
 -1.40599E+03  2.58787E+02 -1.74304E+02  8.69434E+02  2.99464E+02 -8.40685E+02 -5.74919E+02 -2.21254E+03
  1.19645E+03 -1.54845E+03  1.29351E+03  6.15393E+02  1.43956E+03  6.53301E+02  1.35995E+02  3.71721E+02
 -9.60778E+01  7.20409E+02  1.23825E+02  6.78069E+02 -1.81739E+03  4.55186E+02 -1.18153E+03  5.37594E+01
 -3.74607E+02 -3.94320E+02 -4.20156E+02 -6.79448E+01 -1.32044E+03  1.09719E+03 -1.17224E+03 -1.33656E+03
 -1.87864E+03  3.77544E+02 -4.27942E+01 -1.02704E+03  1.05045E+03 -1.22806E+03  1.28627E+03 -4.15833E+02
  1.38744E+03  1.37622E+02 -2.77102E+02 -5.45011E+02 -8.63441E+01  2.32274E+03 -2.59658E+03  4.23655E+02
