 $NMID ID='MM_0lb_SNR200_16hz_g45_40.RAW', FMTDAT='(8E13.5)'
 TRAMP=1., VOLUME=1. $END
  3.09997E+05  3.36903E+02  3.38328E+05  2.51207E+05  8.45287E+04  3.37650E+05 -1.32649E+05  2.50928E+05
 -1.89789E+05  8.17483E+04 -1.11089E+05 -3.21938E+04  1.51124E+03 -5.05296E+04  5.41802E+04  1.31926E+02
  3.61830E+04  5.16917E+04 -1.64776E+04  7.47955E+04 -6.14739E+04  6.35919E+04 -8.31170E+04  3.17767E+04
 -8.00942E+04 -1.11086E+04 -5.71240E+04 -4.98211E+04 -1.63260E+04 -6.86820E+04  2.64801E+04 -4.48072E+04
  3.98041E+04  3.46573E+03  1.56934E+04  4.57691E+04 -3.44928E+04  4.70671E+04 -6.62444E+04 -6.42800E+02
 -5.26182E+04 -5.62644E+04 -5.33703E+03 -7.61785E+04  3.37127E+04 -5.52469E+04  4.65790E+04 -1.62026E+04
  4.37367E+04  1.24164E+04  3.10475E+04  2.48942E+04  1.56336E+04  2.89116E+04 -5.36439E+03  2.67764E+04
 -2.23807E+04  1.19749E+04 -1.86372E+04 -4.41682E+03  4.39068E+03 -8.05121E+03  2.20669E+04  1.18218E+04
  6.75719E+03  3.44085E+04 -3.04840E+04  3.46280E+04 -6.17340E+04  3.54144E+03 -5.50490E+04 -4.22713E+04
 -1.24616E+04 -6.09998E+04  3.91417E+04 -4.30470E+04  5.54860E+04 -1.79309E+03  3.31282E+04  3.18334E+04
 -6.07461E+03  3.42184E+04 -2.79587E+04  1.46438E+04 -2.81872E+04 -4.84038E+03 -1.50062E+04 -1.04388E+04
 -8.33202E+03 -1.23878E+04  6.74631E+02 -1.69199E+04  6.95267E+03 -2.26203E+04  1.50780E+04 -1.41643E+04
  1.14074E+04  5.22790E+03 -7.28236E+03  1.26427E+04 -2.12630E+04 -2.66417E+03 -7.36783E+03 -3.17737E+04
  2.25471E+04 -4.15112E+04  4.63627E+04 -1.90003E+04  4.40262E+04  1.82726E+04  1.40486E+04  4.24467E+04
 -1.54609E+04  3.18758E+04 -2.44717E+04  1.85427E+03 -8.65114E+03 -2.82399E+04  2.07826E+04 -3.29574E+04
  3.87515E+04 -8.39317E+03  3.34577E+04  2.25924E+04  1.67134E+04  4.41963E+04 -8.75840E+03  4.72749E+04
 -2.98696E+04  3.11999E+04 -3.94157E+04  9.08127E+03 -4.05943E+04 -1.58917E+04 -2.24472E+04 -3.64917E+04
  5.42982E+03 -3.66641E+04  3.04695E+04 -1.48671E+04  2.84621E+04  1.11580E+04  4.05004E+03  1.91899E+04
 -1.29368E+04  6.55242E+03 -9.97093E+03 -7.76614E+03  4.86041E+03 -1.04199E+04  1.74073E+04  5.12911E+03
  1.15212E+04  2.22412E+04 -5.90568E+03  2.43559E+04 -2.22377E+04  1.06851E+04 -2.53443E+04 -6.84130E+03
 -1.77916E+04 -1.66525E+04 -6.94848E+03 -1.94268E+04  4.17637E+03 -1.72799E+04  1.51403E+04 -1.57380E+04
  2.30564E+04 -1.19529E+04  3.04386E+04  9.68299E+02  2.23217E+04  1.75447E+04  4.44250E+03  3.42989E+04
 -1.75954E+04  2.85268E+04 -2.69152E+04  1.05905E+04 -2.03882E+04 -1.00952E+04 -5.00848E+03 -1.41453E+04
  1.89886E+03 -3.22261E+03 -3.59046E+03  6.80374E+03 -1.30540E+04  4.57453E+03 -1.46004E+04 -5.88953E+03
 -9.09364E+03 -1.61498E+04  3.82233E+03 -2.16599E+04  1.47302E+04 -1.55631E+04  1.48199E+04 -5.08601E+02
  1.03331E+04  1.19522E+04 -1.26841E+03  1.66808E+04 -1.29292E+04  9.90718E+03 -1.81637E+04 -3.09361E+03
 -1.28385E+04 -1.43376E+04 -1.33229E+03 -2.01321E+04  9.94175E+03 -1.59128E+04  1.81242E+04 -8.49975E+03
  1.64706E+04  2.32952E+02  1.27214E+04  3.87673E+03  5.54549E+03  5.27987E+02  8.80406E+03 -1.57296E+03
  1.58079E+04  2.52444E+03  1.69472E+04  1.35255E+04  1.01118E+04  2.78621E+04 -4.39668E+03  2.87130E+04
 -1.67204E+04  2.36415E+04 -2.75471E+04  1.13527E+04 -2.88766E+04 -2.70727E+03 -2.42324E+04 -1.71539E+04
 -1.18094E+04 -2.42429E+04  9.01549E+03 -2.09420E+04  2.03794E+04 -1.17926E+04  1.73903E+04  4.09569E+03
  6.92359E+03  1.27951E+04 -7.48021E+03  1.16938E+04 -1.47117E+04  2.50686E+03 -1.09660E+04 -8.07522E+03
  5.54369E+02 -1.41570E+04  6.41823E+03 -1.01028E+04  8.08481E+03 -2.31340E+03  1.27830E+03  6.00397E+03
 -5.83048E+03  2.19897E+03 -5.47213E+03 -4.56465E+03  2.51227E+02 -1.09067E+04  8.57824E+03 -1.11124E+04
  1.34774E+04 -5.48882E+03  1.40692E+04  3.41229E+03  1.27551E+04  1.14686E+04  4.56961E+03  1.66392E+04
 -1.88118E+03  1.90877E+04 -1.12545E+04  1.14415E+04 -1.29938E+04  3.66756E+03 -1.01571E+04 -3.58641E+03
 -6.12315E+03 -2.93600E+03 -4.77023E+02  8.02453E+02 -1.35552E+03  2.79631E+03 -3.34582E+03  4.09474E+03
 -8.78320E+03 -8.01979E+02 -9.71838E+03 -7.87984E+03 -4.89742E+03 -1.45966E+04  3.95585E+03 -9.93644E+03
  8.57832E+03 -5.68312E+03  6.02819E+03  2.28816E+03  7.02292E+02  3.58523E+03 -4.54635E+03  2.97012E+02
 -4.33468E+03 -5.43897E+03 -1.54801E+03 -9.36091E+03  4.53411E+03 -1.06749E+04  1.25559E+04 -4.56022E+03
  1.44421E+04  1.22960E+03  1.01655E+04  8.40622E+03  1.58643E+03  9.43390E+03 -6.30586E+03  9.03162E+03
 -8.52646E+03  2.86819E+03 -4.67283E+03 -1.21476E+03  8.82049E+02 -1.96973E+03  5.20063E+03 -2.20562E+03
  3.22932E+03  3.45212E+03  1.32281E+03  7.90442E+03 -5.20812E+03  9.85015E+03 -9.30823E+03  2.28924E+03
 -6.52403E+03 -4.37796E+03 -1.11346E+03 -8.05196E+03  4.68510E+03 -4.10546E+03  4.07804E+03  1.96561E+03
  1.59283E+03  4.79836E+03 -5.53949E+03  5.52578E+03 -6.38255E+03  1.78400E+03 -6.78052E+03 -3.27170E+03
 -3.56643E+03 -7.86312E+03  1.61730E+03 -9.46987E+03  7.96738E+03 -5.67845E+03  7.76929E+03  1.40931E+03
  5.91165E+03  6.92841E+03  2.71990E+02  8.06266E+03 -7.52473E+03  4.04955E+03 -7.41071E+03  1.11411E+03
 -5.84993E+03 -5.92705E+03 -1.78256E+03 -6.71789E+03  3.25938E+03 -6.01468E+03  2.53418E+03 -2.88024E+03
  2.65246E+03 -2.26871E+02  1.06976E+03  1.61002E+03  6.90552E+02 -3.04866E+02  3.68800E+02 -3.62880E+03
  4.47280E+03 -1.25469E+03  6.02712E+03  1.12032E+03  8.25604E+03  4.15707E+03  5.43935E+03  9.24839E+03
 -3.02657E+03  1.09538E+04 -8.87618E+03  8.35249E+03 -1.28600E+04  1.91184E+03 -1.03821E+04 -3.53680E+03
 -4.99098E+03 -8.47128E+03 -7.05539E+01 -7.38302E+03  1.61176E+03 -2.21340E+03  1.20016E+03 -1.60334E+03
  8.32869E+01 -3.28958E+03  2.17891E+03 -3.11981E+03  5.01358E+03 -1.80816E+03  4.70375E+03 -2.43955E+02
  6.66872E+03  1.20457E+03  2.01896E+03  4.58016E+03 -2.86079E+03  4.44444E+03 -6.16896E+03  2.87235E+03
 -6.74651E+03 -2.37124E+03 -2.77409E+03 -4.28395E+03 -9.94882E+02 -6.02068E+03  3.92225E+03 -6.61043E+03
  7.09200E+03 -3.95534E+03  8.21870E+03 -6.64506E+00  7.33003E+03  5.77862E+03  9.16372E+02  7.79450E+03
 -2.63705E+03  7.09358E+03 -5.77971E+03  1.86163E+03 -2.61557E+03 -1.81841E+03 -8.24402E+02 -1.15229E+03
 -4.97878E+02 -1.11563E+02 -1.01750E+03  1.30748E+03 -3.04434E+03  4.20515E+02 -4.48834E+03 -5.75752E+02
 -2.90096E+03 -5.35570E+03  8.61718E+02 -7.17523E+03  3.75145E+03 -5.78751E+03  5.35034E+03 -1.97341E+03
  5.97282E+03  3.44003E+03  3.59833E+03  5.02285E+03 -8.80724E+02  5.99742E+03 -4.16698E+03  4.01257E+03
 -5.88419E+03  2.27835E+02 -5.22608E+03 -4.29791E+03 -2.57197E+02 -4.61748E+03  1.53990E+03 -2.91562E+03
  3.32324E+03 -2.03177E+03  3.06743E+03  8.80329E+02 -3.85247E+02  2.09729E+03  1.22689E+02 -7.33985E+02
  2.21086E+03  3.65319E+02  1.44461E+03  9.04016E+02  1.43293E+03  3.47624E+03  5.65576E+02  2.99652E+03
 -2.65762E+03  4.25252E+03 -2.86464E+03  4.74253E+03 -4.92239E+03  1.52910E+03 -6.07570E+03 -2.04756E+03
 -1.95569E+03 -6.27577E+03  1.96913E+03 -6.99257E+03  3.89835E+03 -2.70419E+03  4.84271E+03 -1.31518E+03
  3.18391E+03  9.12088E+02  1.23450E+03  3.32156E+03 -5.21608E+02  1.06511E+03 -2.30098E+03  3.62345E+02
 -7.67626E+02 -4.66154E+02  2.91326E+03 -2.58858E+03  3.01532E+03 -6.50766E+02  1.36339E+03  4.61943E+02
  1.78989E+03  6.01904E+02  4.82224E+02  1.29059E+03  1.03808E+03  1.61663E+03  1.63583E+03  2.09376E+02
  9.51498E+01  1.89481E+02  2.36783E+03  6.45665E+02  9.08154E+02  3.24840E+03 -1.05919E+03  3.85643E+03
 -1.95622E+03  1.28777E+03 -4.07097E+03  5.89677E+02 -3.31532E+03 -7.33877E+02 -2.32357E+03 -2.10672E+03
  1.49024E+03 -1.03704E+03  1.04498E+03 -5.85214E+01  1.49431E+03  9.69750E+02 -3.14420E+02  1.52305E+03
 -1.79567E+03  4.08403E+02 -2.08085E+03 -1.14981E+03 -7.72973E+02 -2.91761E+03  4.83474E+02 -3.29919E+03
  6.61576E+02 -1.14141E+03  1.45236E+03  5.45969E+02  3.88299E+03  1.42804E+03  7.19574E+02  2.28650E+03
 -1.25158E+03  8.93626E+02 -1.68463E+03 -5.65122E+02  3.98778E+02 -1.00384E+03  3.38194E+03 -2.08767E+03
  3.30862E+03  4.56687E+02  4.68810E+03  1.03454E+03  1.44917E+03  3.14958E+03 -1.34941E+03  2.84823E+03
 -1.80434E+03  5.04954E+02 -2.85467E+03 -1.72288E+03 -1.75818E+03 -2.35134E+03 -2.86865E+02 -1.19421E+03
  2.56130E+03 -9.20483E+02  2.23316E+03  1.59568E+03  1.24165E+03  1.26234E+03  1.40445E+01  2.83930E+03
  4.84742E+02  1.69002E+03  2.06551E+01  4.06032E+02 -8.06090E+02 -2.93416E+01 -1.31408E+03  1.08999E+03
 -1.75035E+03  2.59120E+03 -2.02487E+03  1.32957E+03 -2.89198E+03  3.73044E+02 -3.88767E+03 -2.30303E+03
 -1.89017E+03 -2.88737E+03  7.38164E+02 -4.42293E+03  2.17196E+03 -3.31006E+03  4.67192E+03 -2.45336E+02
  3.66444E+03  5.82447E+02  2.60324E+03  1.43530E+03 -2.45312E+02  2.98555E+03 -4.04701E+02  3.14230E+03
 -2.29030E+03  1.14023E+03 -6.67201E+02 -7.77582E+02  2.25480E+02 -1.03055E+03 -1.18515E+03  7.79038E+02
 -1.52468E+03  8.37715E+02 -1.37012E+03  9.67945E+01 -1.14584E+01 -9.53334E+02 -1.11609E+03 -5.89412E+02
  2.42318E+03 -1.73724E+03  4.15573E+02  9.19304E+02  2.21834E+03  2.20417E+03 -9.08781E+02  2.51651E+03
 -1.35759E+03  4.37236E+03 -2.43749E+03  1.96049E+03 -2.76611E+03 -9.69840E+02 -2.40491E+03 -3.54469E+03
 -9.89054E+02 -9.14443E+02  1.39045E+03 -3.43168E+03  5.27336E+02 -1.53331E+03  5.20636E+02 -1.47681E+02
  9.40390E+02  1.15699E+03 -5.19802E+01  8.88089E+02  9.47089E+01  1.07671E+03 -1.05876E+03 -1.12582E+03
  2.45760E+03 -7.01739E+01  8.57341E+02  5.67477E+00  4.15716E+02  1.40744E+03  2.58934E+02  1.01952E+03
 -8.25382E+01  7.92174E+02 -8.82224E+02 -1.10937E+02 -1.39939E+03 -6.38644E+02 -2.76309E+02 -1.33617E+03
  6.15695E+02 -1.31129E+03  1.02357E+03 -7.47077E+02  2.50394E+03 -2.67547E+02  5.33163E+02  7.40025E+02
  1.04828E+03  1.76482E+03  3.71042E+02  1.27040E+03 -1.74159E+03  4.53424E+02 -1.91260E+03  8.30948E+02
 -5.75760E+02  1.40269E+02 -9.94244E+02  7.77008E+02 -9.55503E+02 -3.77633E+01 -6.54366E+02  1.32266E+02
 -2.08435E+03  7.56500E+02 -9.50749E+02 -2.04266E+03  6.95156E+00 -1.58671E+03  1.13791E+03 -1.26944E+03
  1.41194E+03  1.21269E+02  1.49602E+02  6.55719E+02 -6.01491E+02  8.25526E+02 -4.74764E+02  6.31241E+02
