 $NMID ID='MM_0lb_SNR200_10hz_g60_48.RAW', FMTDAT='(8E13.5)'
 TRAMP=1., VOLUME=1. $END
  3.10988E+05  1.51217E+02  3.36712E+05  2.49388E+05  8.50772E+04  3.38409E+05 -1.32222E+05  2.50481E+05
 -1.92213E+05  8.52769E+04 -1.10819E+05 -3.34259E+04 -2.02076E+02 -5.19261E+04  5.30728E+04  1.11929E+02
  3.50533E+04  5.25312E+04 -1.59476E+04  7.60442E+04 -5.91056E+04  6.42698E+04 -8.60960E+04  3.29418E+04
 -8.29030E+04 -1.17651E+04 -5.87174E+04 -5.32598E+04 -1.50372E+04 -6.91690E+04  2.79351E+04 -4.62115E+04
  4.23957E+04  2.84678E+03  1.74365E+04  4.83384E+04 -3.47345E+04  4.72646E+04 -6.97240E+04  5.10747E+02
 -5.53448E+04 -5.82995E+04 -6.83028E+03 -7.88672E+04  3.32045E+04 -5.54083E+04  4.96790E+04 -1.72478E+04
  4.47996E+04  1.12573E+04  3.19855E+04  2.70250E+04  1.54212E+04  3.14845E+04 -5.87162E+03  2.81353E+04
 -2.32995E+04  1.15333E+04 -1.81247E+04 -6.40937E+03  6.92686E+03 -7.92999E+03  2.38206E+04  1.48390E+04
  6.40138E+03  3.90342E+04 -3.32273E+04  3.71495E+04 -6.61106E+04  2.73612E+03 -5.97322E+04 -4.49762E+04
 -1.19159E+04 -6.64787E+04  4.26460E+04 -4.73024E+04  6.18252E+04 -8.49480E+02  3.65895E+04  3.40530E+04
 -5.08780E+03  3.90150E+04 -3.16560E+04  1.94067E+04 -3.32256E+04 -3.98162E+03 -1.76958E+04 -1.26949E+04
 -9.10546E+03 -1.58897E+04  1.21439E+01 -2.06023E+04  8.47744E+03 -2.33861E+04  1.61462E+04 -1.15415E+04
  1.15644E+04  5.92758E+03 -1.10817E+04  1.25722E+04 -2.32240E+04 -6.09234E+03 -8.89356E+03 -3.84331E+04
  2.49875E+04 -4.71794E+04  5.22759E+04 -2.06410E+04  4.74383E+04  2.13487E+04  1.77250E+04  4.66380E+04
 -1.76314E+04  3.62674E+04 -2.76390E+04  3.11635E+03 -1.25584E+04 -2.92917E+04  2.16999E+04 -3.60817E+04
  4.43662E+04 -1.03140E+04  3.98206E+04  2.39808E+04  2.20105E+04  5.03494E+04 -8.98475E+03  5.54369E+04
 -3.52418E+04  3.85252E+04 -4.78936E+04  1.03012E+04 -4.69028E+04 -1.75101E+04 -2.50661E+04 -4.29451E+04
  7.40202E+03 -4.21121E+04  3.45752E+04 -1.68235E+04  3.41005E+04  1.14107E+04  6.07731E+03  2.21849E+04
 -1.39660E+04  8.69721E+03 -1.06590E+04 -6.74440E+03  4.82175E+03 -1.21272E+04  1.83224E+04  4.62380E+03
  1.47297E+04  2.20217E+04 -4.72525E+03  2.69207E+04 -2.40001E+04  1.40808E+04 -2.98832E+04 -2.52786E+03
 -2.59585E+04 -1.85028E+04 -1.13493E+04 -2.62964E+04  4.45740E+03 -2.72736E+04  2.13439E+04 -2.41370E+04
  3.22457E+04 -1.29976E+04  3.69002E+04  3.54130E+03  2.66385E+04  2.59201E+04  3.61194E+03  4.28635E+04
 -1.83884E+04  3.39955E+04 -3.04855E+04  1.20784E+04 -2.28390E+04 -1.00011E+04 -4.92462E+03 -1.16856E+04
  8.33054E+01 -9.21720E+02 -8.30927E+03  7.24799E+03 -1.94623E+04  6.24519E+03 -2.06892E+04 -9.51973E+03
 -1.15102E+04 -2.21518E+04  6.87427E+03 -2.80162E+04  1.96211E+04 -1.97705E+04  2.16172E+04 -1.50410E+03
  1.59108E+04  1.58250E+04 -1.24541E+03  2.26450E+04 -1.69323E+04  1.29737E+04 -2.34621E+04 -4.85446E+03
 -1.77961E+04 -2.04926E+04 -8.35605E+02 -2.91365E+04  1.36741E+04 -2.25476E+04  2.40995E+04 -1.32070E+04
  2.08827E+04 -4.06434E+02  1.64764E+04  6.49563E+03  7.52326E+03 -7.27097E+02  1.16777E+04 -4.67837E+03
  2.33140E+04  3.23394E+03  2.50915E+04  1.82497E+04  1.53251E+04  3.83764E+04 -2.63428E+03  4.30362E+04
 -2.46243E+04  3.77893E+04 -4.17486E+04  1.88911E+04 -4.45853E+04 -3.27806E+03 -3.74215E+04 -2.64007E+04
 -1.38902E+04 -3.72319E+04  1.35070E+04 -3.29709E+04  2.60595E+04 -1.48701E+04  2.46339E+04  7.55612E+03
  8.89101E+03  1.77733E+04 -1.02076E+04  1.60071E+04 -1.97738E+04  3.60381E+03 -1.51267E+04 -1.25274E+04
  1.40381E+02 -1.91848E+04  1.27820E+04 -1.43749E+04  1.36321E+04 -2.23807E+03  2.63813E+03  9.73897E+03
 -8.43134E+03  2.72889E+03 -9.46892E+03 -6.29875E+03 -1.27052E+03 -1.83883E+04  1.19644E+04 -2.11042E+04
  2.32520E+04 -1.20207E+04  2.68018E+04  2.40719E+03  2.30845E+04  1.71277E+04  1.06909E+04  3.06942E+04
 -5.75838E+03  3.05743E+04 -2.16747E+04  2.17826E+04 -2.27522E+04  2.32224E+03 -1.55104E+04 -7.25021E+03
 -6.95813E+03 -9.18215E+03 -7.66834E+02 -4.85099E+02 -1.54255E+03  4.78806E+03 -7.84323E+03  6.49549E+03
 -1.44901E+04 -3.59211E+01 -1.48570E+04 -1.27371E+04 -5.04315E+03 -2.02505E+04  6.93038E+03 -1.49817E+04
  1.38090E+04 -6.78699E+03  7.72933E+03  5.13020E+03 -1.49015E+03  5.36281E+03 -7.17925E+03 -1.19859E+03
 -6.75319E+03 -9.69589E+03 -1.36147E+03 -1.44574E+04  8.08443E+03 -1.57626E+04  1.95633E+04 -9.46891E+03
  2.29483E+04  2.50481E+03  1.69644E+04  1.46488E+04  2.04546E+03  1.86945E+04 -1.14597E+04  1.58594E+04
 -1.22498E+04  4.70362E+03 -6.78723E+03 -3.25392E+03  1.88894E+03 -3.78975E+03  7.44573E+03 -1.86852E+03
  7.18406E+03  6.86288E+03  8.12151E+02  1.29436E+04 -8.15199E+03  1.20160E+04 -1.51036E+04  2.38824E+03
 -1.00919E+04 -8.99226E+03 -9.63743E+02 -1.37571E+04  8.27655E+03 -7.55539E+03  9.41205E+03  4.31087E+03
  2.93474E+03  9.99227E+03 -6.95856E+03  1.08789E+04 -1.55284E+04  5.82121E+03 -1.28347E+04 -5.70286E+03
 -7.11332E+03 -1.59005E+04  2.00045E+03 -1.81690E+04  1.43934E+04 -1.04227E+04  1.65790E+04  3.43204E+03
  1.06083E+04  1.37825E+04 -1.52010E+03  1.79894E+04 -1.22826E+04  8.15128E+03 -1.17923E+04 -1.84493E+03
 -1.19218E+04 -9.70610E+03 -2.63264E+03 -1.02097E+04  5.84237E+03 -9.34690E+03  6.77915E+03 -4.52550E+03
  5.44650E+03  9.38112E+02 -1.47642E+03  1.96342E+03 -2.23398E+03 -1.13942E+03  3.37415E+03 -6.59122E+03
  1.13553E+04 -4.75207E+03  1.57893E+04  1.46004E+03  1.46518E+04  1.01713E+04  9.69612E+03  1.89466E+04
 -5.86650E+03  2.42044E+04 -2.10452E+04  1.76306E+04 -2.58122E+04  3.12453E+03 -1.90257E+04 -8.00572E+03
 -1.02287E+04 -1.65885E+04  8.72440E+01 -1.45751E+04  5.89408E+03 -7.83044E+03  4.41955E+03 -5.08363E+03
  4.44563E+03 -3.03781E+03  2.36448E+03 -3.47421E+03  4.49763E+03 -3.12821E+03  8.29722E+03  1.14557E+02
  1.05945E+04  3.18512E+03  5.56731E+03  9.44207E+03 -2.96982E+03  1.03431E+04 -9.94671E+03  8.75985E+03
 -1.49819E+04 -1.70222E+03 -8.61327E+03 -9.98696E+03 -2.15916E+03 -1.56338E+04  7.45976E+03 -1.50489E+04
  1.54919E+04 -9.58458E+03  1.86437E+04  3.32290E+03  1.26962E+04  1.43847E+04  2.03902E+03  1.76303E+04
 -7.86272E+03  1.48187E+04 -1.13933E+04  6.62787E+03 -8.45811E+03 -1.11167E+03 -3.59112E+03 -2.23524E+03
 -1.55735E+03  2.55287E+02 -9.60314E+02  3.67136E+03 -7.10679E+03  2.11015E+03 -9.30521E+03 -9.38771E+01
 -6.32850E+03 -1.03946E+04 -1.07159E+03 -1.38565E+04  9.47025E+03 -1.28691E+04  1.41080E+04 -4.76120E+03
  1.37589E+04  6.84754E+03  6.01630E+03  1.27664E+04 -2.32632E+03  1.43853E+04 -1.00233E+04  7.96069E+03
 -1.33641E+04 -4.88340E+02 -1.07370E+04 -9.04571E+03 -1.77478E+03 -1.13750E+04  7.67649E+03 -9.19999E+03
  1.04112E+04 -2.74172E+03  7.61092E+03  2.61748E+03  1.38147E+03  4.16338E+03  4.54187E+02  4.45502E+03
  4.04139E+03  1.27498E+03  4.31546E+03  3.35751E+03  4.69467E+03  5.58713E+03  5.35056E+03  7.77349E+03
 -3.51785E+03  1.10236E+04 -1.02095E+04  1.09604E+04 -1.39404E+04  2.42555E+03 -1.38530E+04 -7.22336E+03
 -5.73266E+03 -1.51674E+04  3.87644E+03 -1.55919E+04  8.67129E+03 -9.00854E+03  1.25946E+04 -1.77555E+03
  9.43112E+03  5.94165E+03  2.06855E+03  8.07162E+03 -3.71236E+03  5.29489E+03 -5.85568E+03 -4.94010E+02
 -1.60496E+03 -6.31985E+03  4.01950E+03 -6.70896E+03  6.96054E+03 -1.32761E+03  7.18013E+03  4.50172E+02
  2.81457E+03  3.49974E+03  1.49418E+03  1.58907E+03 -1.85595E+03  5.86158E+02  7.30677E+02 -1.85482E+02
  3.79867E+03 -1.53866E+03  5.67107E+03  2.16672E+03  2.47767E+03  9.05993E+03 -1.35000E+03  1.00664E+04
 -5.95168E+03  5.62032E+03 -9.45588E+03  2.18188E+03 -7.55140E+03 -3.93353E+03 -4.35430E+03 -5.56360E+03
  2.77706E+03 -4.48986E+03  4.73808E+03 -4.05318E+03  2.95446E+03  3.65898E+03 -1.16188E+03  4.66393E+03
 -7.02829E+03  3.55688E+03 -7.65876E+03 -2.55363E+03 -3.19610E+03 -7.22117E+03  2.32766E+03 -9.04248E+03
  2.64037E+03 -4.50338E+03  4.54816E+03  2.01832E+02  4.74783E+03  9.57495E+02  8.26244E+02  5.05251E+03
 -2.81229E+03  1.40976E+03 -4.90406E+03 -3.19524E+03  1.00989E+03 -6.36122E+03  6.53056E+03 -5.03742E+03
  1.00958E+04  7.09572E+02  9.50372E+03  5.59547E+03  2.78474E+03  9.15236E+03 -4.41720E+03  8.99066E+03
 -7.75510E+03  4.39989E+03 -7.54637E+03 -1.50530E+03 -6.02687E+03 -5.21799E+03  2.11280E+03 -6.89165E+03
  3.88009E+03 -3.35542E+03  4.95387E+03  2.21833E+03  1.98682E+03  5.14700E+03 -1.10979E+03  3.39107E+03
 -2.81044E+03  3.90944E+03 -2.39051E+03  1.74343E+03 -1.60928E+03  6.03734E+02 -2.41162E+02  2.69672E+03
 -4.27880E+03  2.85590E+03 -4.92452E+03  1.61212E+03 -1.04808E+04  1.67936E+03 -1.05322E+04 -5.43494E+03
 -4.00477E+03 -1.28324E+04  1.60454E+03 -1.44851E+04  8.50741E+03 -1.13578E+04  1.30071E+04 -3.93538E+03
  1.24342E+04  1.84860E+03  7.09238E+03  9.52589E+03 -6.52703E+02  9.36737E+03 -3.21624E+03  7.51820E+03
 -6.10774E+03  3.38003E+03 -2.83828E+03 -5.57221E+01 -3.62324E+03 -4.32540E+02 -6.51495E+02 -9.77064E+02
 -2.33870E+03  9.94198E+02 -2.72299E+03 -3.84137E+02  9.38816E+02 -2.50629E+03 -1.02693E+03 -3.85404E+03
  4.06482E+03 -2.06385E+03  5.06175E+03 -4.85431E+02  6.55645E+03  3.59419E+03  2.43600E+03  1.03916E+04
 -3.34119E+03  1.12564E+04 -7.69444E+03  7.77454E+03 -1.26654E+04 -1.09282E+03 -8.44945E+03 -6.33616E+03
 -4.65621E+03 -8.98679E+03  2.39373E+03 -8.87113E+03  6.53144E+03 -3.66290E+03  7.17669E+03  3.84386E+02
  3.52227E+03  2.92342E+03  2.18694E+01  1.62572E+03 -2.22116E+03 -8.44943E+01  5.49477E+02 -2.28268E+03
  3.16359E+03 -2.27190E+03  2.22311E+03  1.41798E+03  3.08525E+03  2.71640E+03 -3.26368E+01  3.73158E+03
 -3.88326E+03  4.59989E+03 -5.86167E+03 -4.80837E+02 -5.63018E+03 -4.32148E+03 -5.01335E+02 -7.24480E+03
  3.92443E+03 -5.46355E+03  6.99892E+03 -2.34417E+03  7.98443E+03  1.42941E+03  4.36170E+03  5.63580E+03
  2.08806E+02  3.70756E+03 -2.33663E+03  4.40967E+03 -4.68833E+03  3.85545E+03 -3.11441E+03  1.43796E+03
 -1.86297E+03  4.54488E+02 -2.46143E+03  1.13501E+03 -2.52839E+03 -4.81740E+01 -4.25832E+03 -1.17877E+03
 -5.28011E+03 -2.50852E+03 -3.83272E+02 -5.59246E+03  2.77145E+03 -5.29610E+03  6.15809E+03 -2.26487E+03
  7.02136E+03  6.85457E+02  4.07259E+03  4.19203E+03 -4.20778E+02  5.47895E+03 -6.22863E+03  4.31634E+03
