 $NMID ID='MM_0lb_SNR200_14hz_g60_59.RAW', FMTDAT='(8E13.5)'
 TRAMP=1., VOLUME=1. $END
  3.10396E+05  1.21933E+03  3.38150E+05  2.51033E+05  8.43955E+04  3.37202E+05 -1.32087E+05  2.50480E+05
 -1.90144E+05  8.28530E+04 -1.12497E+05 -3.33924E+04  1.87210E+03 -5.08357E+04  5.33933E+04 -1.01443E+03
  3.68944E+04  5.32505E+04 -1.77427E+04  7.55255E+04 -6.05296E+04  6.44576E+04 -8.49660E+04  3.35391E+04
 -8.06093E+04 -1.09950E+04 -5.79887E+04 -5.09023E+04 -1.48372E+04 -7.02576E+04  2.80459E+04 -4.63027E+04
  4.13448E+04  3.20445E+03  1.59714E+04  4.78830E+04 -3.39597E+04  4.82725E+04 -6.83439E+04  5.10245E+01
 -5.36223E+04 -5.79987E+04 -7.79508E+03 -7.81811E+04  3.50744E+04 -5.62935E+04  4.88462E+04 -1.78687E+04
  4.53830E+04  1.18642E+04  3.18037E+04  2.71871E+04  1.59893E+04  2.83244E+04 -6.79389E+03  2.71693E+04
 -2.15707E+04  1.22616E+04 -1.84870E+04 -4.39140E+03  5.94265E+03 -8.52320E+03  2.32600E+04  1.43415E+04
  6.84912E+03  3.62380E+04 -3.36015E+04  3.71457E+04 -6.43785E+04  9.43139E+02 -5.73839E+04 -4.27288E+04
 -1.20371E+04 -6.41375E+04  4.04265E+04 -4.61749E+04  6.00082E+04 -3.54173E+03  3.65888E+04  3.29286E+04
 -5.01680E+03  3.87164E+04 -3.02419E+04  1.65609E+04 -3.39461E+04 -4.50775E+03 -1.74534E+04 -1.13694E+04
 -7.55697E+03 -1.50234E+04 -1.29825E+03 -1.82285E+04  7.42818E+03 -2.33122E+04  1.64437E+04 -1.37623E+04
  1.16550E+04  5.48980E+03 -8.76716E+03  1.22607E+04 -2.18367E+04 -5.85167E+03 -8.02754E+03 -3.42619E+04
  2.46732E+04 -4.41995E+04  5.00782E+04 -1.95692E+04  4.61434E+04  1.92094E+04  1.64090E+04  4.38833E+04
 -1.58556E+04  3.46496E+04 -2.68050E+04  8.99812E+02 -1.02168E+04 -2.80979E+04  2.11538E+04 -3.50263E+04
  4.23953E+04 -9.28779E+03  3.71046E+04  2.44239E+04  1.97533E+04  4.81466E+04 -7.19856E+03  5.28256E+04
 -3.35115E+04  3.50563E+04 -4.40681E+04  1.01989E+04 -4.46585E+04 -1.76471E+04 -2.32297E+04 -3.92540E+04
  7.00505E+03 -3.85640E+04  3.28631E+04 -1.54778E+04  3.02345E+04  1.15670E+04  4.05622E+03  2.08263E+04
 -1.40327E+04  9.37839E+03 -9.90380E+03 -6.92327E+03  5.01696E+03 -9.94506E+03  1.92545E+04  6.31343E+03
  1.36188E+04  2.19141E+04 -6.12087E+03  2.51134E+04 -2.30891E+04  1.25214E+04 -2.85386E+04 -3.89021E+03
 -2.28949E+04 -1.67772E+04 -1.00782E+04 -2.10116E+04  4.34113E+03 -2.22799E+04  1.65023E+04 -2.00472E+04
  2.82933E+04 -1.25053E+04  3.46916E+04  2.56487E+03  2.45359E+04  2.18404E+04  4.22860E+03  3.71388E+04
 -1.86125E+04  3.07583E+04 -2.80215E+04  1.01383E+04 -2.02498E+04 -1.00380E+04 -4.43492E+03 -1.38874E+04
  2.14970E+03 -2.66034E+03 -4.72499E+03  7.70720E+03 -1.69193E+04  5.73750E+03 -1.83427E+04 -9.05306E+03
 -1.12564E+04 -2.07695E+04  5.26404E+03 -2.40428E+04  1.77523E+04 -1.73055E+04  1.87608E+04 -1.47528E+03
  1.21035E+04  1.43107E+04 -1.18975E+02  1.93458E+04 -1.45048E+04  1.14609E+04 -2.13451E+04 -4.01740E+03
 -1.52067E+04 -1.81629E+04 -2.61937E+03 -2.53587E+04  1.17078E+04 -2.10378E+04  1.98711E+04 -1.06703E+04
  1.94855E+04 -8.49197E+02  1.32271E+04  4.53763E+03  8.51113E+03  1.33627E+03  1.04664E+04 -1.57597E+03
  1.81345E+04  2.92821E+03  2.14177E+04  1.65651E+04  1.36713E+04  3.16595E+04 -2.61533E+03  3.59220E+04
 -2.03365E+04  2.96416E+04 -3.51917E+04  1.59165E+04 -3.64138E+04 -3.41241E+03 -3.04196E+04 -2.15938E+04
 -1.17169E+04 -3.04471E+04  1.02133E+04 -2.53776E+04  2.36342E+04 -1.21695E+04  2.10101E+04  5.80300E+03
  7.96136E+03  1.60020E+04 -1.05305E+04  1.33450E+04 -1.72253E+04  2.25999E+03 -1.20249E+04 -1.06878E+04
  1.72749E+02 -1.66079E+04  9.77654E+03 -1.22248E+04  1.19447E+04 -2.14381E+03  4.17171E+03  7.98890E+03
 -7.54774E+03  4.40887E+03 -6.29699E+03 -5.57297E+03 -7.38952E+01 -1.51526E+04  1.02653E+04 -1.53301E+04
  1.90816E+04 -7.30659E+03  1.96185E+04  3.65324E+03  1.75076E+04  1.28973E+04  8.81319E+03  2.22630E+04
 -3.86012E+03  2.46295E+04 -1.59320E+04  1.53575E+04 -1.68989E+04  3.22979E+03 -1.16049E+04 -5.07328E+03
 -5.79830E+03 -5.39738E+03 -1.55594E+03  1.31549E+03 -3.06627E+03  2.77362E+03 -5.38563E+03  4.58194E+03
 -1.19125E+04 -3.53624E+02 -1.20632E+04 -9.72967E+03 -4.74546E+03 -1.60310E+04  5.14333E+03 -1.18679E+04
  9.09680E+03 -5.01575E+03  6.66991E+03  2.47762E+03  2.05599E+02  5.69123E+03 -5.39258E+03 -1.46403E+03
 -4.57521E+03 -8.52659E+03 -1.39374E+03 -1.27363E+04  6.28841E+03 -1.25099E+04  1.66928E+04 -7.06422E+03
  1.81031E+04  1.25399E+03  1.50987E+04  1.06931E+04  2.99833E+03  1.46222E+04 -6.98054E+03  1.19274E+04
 -1.14278E+04  3.28916E+03 -5.02931E+03 -3.47127E+03  1.72876E+03 -2.24159E+03  6.47505E+03 -1.42868E+03
  6.54210E+03  4.26172E+03  3.16983E+02  1.07448E+04 -5.92913E+03  9.04740E+03 -1.14791E+04  3.12986E+03
 -8.69654E+03 -6.65790E+03  1.61294E+02 -1.00702E+04  6.16520E+03 -5.64186E+03  5.94202E+03  1.21422E+03
  8.17818E+02  7.00566E+03 -5.40585E+03  7.15491E+03 -9.04342E+03  4.43952E+03 -8.80795E+03 -2.75285E+03
 -4.86594E+03 -1.12321E+04  2.04230E+03 -1.23531E+04  1.02848E+04 -6.54964E+03  1.03426E+04  1.34780E+03
  7.69616E+03  9.09801E+03 -8.23114E+02  1.09594E+04 -8.30800E+03  6.84170E+03 -1.01574E+04  1.60660E+02
 -8.14668E+03 -8.06135E+03 -1.49460E+03 -7.70480E+03  3.81326E+03 -6.53871E+03  4.74329E+03 -3.26918E+03
  3.94508E+03  6.98751E+02 -1.12823E+03  1.03544E+03 -8.53670E+02 -1.88277E+03  2.75321E+03 -3.81105E+03
  5.87308E+03 -3.36373E+03  1.09928E+04  2.19087E+03  1.05455E+04  6.94194E+03  7.04060E+03  1.38588E+04
 -3.25722E+03  1.45912E+04 -1.43736E+04  1.16064E+04 -1.73203E+04  9.79201E+02 -1.38892E+04 -4.91894E+03
 -6.94334E+03 -1.14699E+04 -2.70780E+02 -9.94990E+03  3.42733E+03 -5.78193E+03  4.47467E+03 -4.01960E+03
  3.88630E+03 -3.29941E+03  2.19541E+03 -2.60476E+03  4.16717E+03 -2.91094E+03  6.41581E+03 -4.86088E+02
  7.78863E+03  2.99689E+03  3.08957E+03  6.37446E+03 -1.60481E+03  6.06117E+03 -7.80567E+03  5.48897E+03
 -8.63961E+03 -2.01772E+03 -4.15505E+03 -6.59457E+03 -1.33942E+03 -9.58124E+03  4.63077E+03 -1.19621E+04
  9.66682E+03 -5.01240E+03  1.27350E+04  2.12994E+03  8.16108E+03  8.39966E+03  1.05473E+03  1.18483E+04
 -5.20107E+03  9.40464E+03 -6.71786E+03  2.68283E+03 -3.66164E+03 -2.11134E+03 -4.95325E+02 -1.07764E+03
 -1.36983E+03  1.40824E+02 -5.89774E+02  3.02942E+03 -4.12939E+03  2.05739E+03 -7.65664E+03 -8.78776E+02
 -5.35505E+03 -7.27421E+03 -4.42654E+02 -9.02925E+03  5.46208E+03 -8.44733E+03  8.60243E+03 -2.13660E+03
  8.46541E+03  4.57956E+03  2.25471E+03  6.84413E+03 -1.38509E+03  9.01027E+03 -6.20613E+03  5.14074E+03
 -8.41943E+03 -1.91698E+02 -5.13550E+03 -5.17102E+03  5.38968E+02 -7.07356E+03  4.00126E+03 -4.68849E+03
  5.21431E+03 -5.92592E+02  3.70259E+03  3.93717E+02  8.73047E+02  3.50631E+03  1.59795E+03  9.46151E+02
  2.08464E+03 -1.27809E+02  2.82353E+03  1.15389E+03  2.17891E+03  3.72816E+03  2.46549E+03  4.89941E+03
 -2.43611E+03  4.74004E+03 -5.88338E+03  6.81106E+03 -9.05002E+03  2.22127E+03 -7.80656E+03 -3.98745E+03
 -4.67457E+03 -7.74378E+03  3.07989E+03 -1.00626E+04  4.48008E+03 -6.00581E+03  5.99707E+03 -1.07276E+03
  4.83766E+03  3.01736E+03  1.26585E+03  4.57666E+03 -2.30806E+03  1.82226E+03 -2.98903E+03  1.49582E+03
 -1.62222E+03 -2.31899E+03  1.35826E+03 -2.38585E+03  3.88374E+03 -2.13112E+03  3.97435E+03  1.20929E+03
  2.64018E+03  1.56813E+03  4.25691E+02  3.08902E+02 -9.59801E+02  1.70272E+03  1.18538E+03 -3.28625E+02
  1.27246E+03 -9.73833E+02  3.05549E+03  1.07991E+03  1.45778E+03  3.47803E+03 -5.67850E+02  6.06443E+03
 -4.42843E+03  2.73690E+03 -5.14898E+03 -2.35112E+02 -4.52836E+03 -9.70121E+02 -1.60421E+03 -3.59404E+03
  3.57873E+02 -2.04671E+03  1.15452E+03 -1.42938E+03  1.02964E+03  9.89285E+02 -1.58451E+03  1.45643E+03
 -4.62050E+03  3.29130E+03 -3.37415E+03 -1.43167E+03 -2.20405E+03 -3.54935E+03  1.63774E+03 -3.14014E+03
  1.57564E+03 -2.57943E+02  2.06703E+03 -3.34049E+02  2.45697E+03  1.10750E+03  1.20042E+03  2.32236E+03
 -1.28097E+03  7.55074E+02 -1.46077E+03 -8.34915E+02 -1.18143E+02 -2.92081E+03  3.33386E+03 -2.09595E+03
  3.75202E+03 -3.21686E+02  4.67110E+03  2.34937E+03  3.38503E+03  5.07375E+03 -1.82922E+03  3.62454E+03
 -3.81275E+03  1.68492E+03 -3.96953E+03 -6.20077E+02 -2.60351E+03 -3.29349E+03  2.03833E+03 -1.62267E+03
  2.52041E+03 -2.12571E+03  1.68546E+03  2.28857E+03  1.03504E+03  2.72264E+03  2.21196E+02  3.13526E+03
 -1.05206E+03  1.57980E+03 -1.19590E+02  1.12159E+03 -5.60119E+01 -8.73457E+02 -9.42290E+02  1.17609E+03
 -1.06649E+03  1.11882E+03 -2.85722E+03  2.99952E+03 -5.12988E+03  2.62529E+02 -5.38054E+03 -2.47729E+03
 -1.52605E+03 -6.01353E+03  1.85525E+03 -7.27412E+03  2.75577E+03 -4.95469E+03  5.34442E+03 -2.32862E+03
  5.42449E+03  1.06565E+03  4.04439E+03  4.25071E+03 -4.66921E+02  4.72381E+03 -3.16130E+03  3.33286E+03
 -2.71496E+03  9.33054E+02 -2.53574E+03 -6.00983E+02 -1.47769E+03  1.91730E+02 -1.13007E+03  1.49072E+02
 -9.27800E+02 -7.52999E+01 -1.94913E+03 -1.64995E+02 -3.38071E+02 -1.95252E+03 -2.85260E+02 -2.16613E+03
  2.99346E+03 -1.23404E+03  2.47396E+03  5.56269E+02  2.53585E+03  1.50944E+03  7.62522E+02  4.17636E+03
 -2.48476E+03  6.06862E+03 -5.61540E+03  2.74983E+03 -4.73625E+03 -1.01049E+03 -3.79749E+03 -2.99639E+03
 -1.91675E+03 -4.81244E+03  2.30155E+03 -3.87093E+03  2.61135E+03 -2.73054E+03  3.52176E+03  9.52039E+02
  1.60395E+03  1.29730E+03  2.93116E+02  1.59485E+03  1.05456E+02  6.40295E+02  1.53261E+03 -1.08084E+03
  2.43936E+03 -2.46803E+02  1.99724E+02 -1.97521E+02 -2.03915E+02  1.20566E+03  1.09043E+02  7.46279E+02
 -1.57279E+03  1.88264E+03 -2.99752E+03 -1.04048E+03 -2.32361E+03 -1.11527E+03  7.50256E+02 -2.15034E+03
  7.24136E+02 -1.49185E+03  1.99012E+03 -1.76388E+02  2.67265E+03 -3.62184E+02  2.22264E+03  1.24670E+03
 -3.42969E+02  2.13594E+03 -2.09086E+03  1.86745E+03 -1.48578E+03  1.41507E+03 -2.02126E+03  8.03191E+02
  9.64759E+02  1.59876E+02 -1.18792E+03  4.53698E+02 -1.56760E+03 -6.98585E+02 -1.39502E+03 -3.62001E+02
 -9.70377E+02 -2.25941E+03 -1.05455E+03 -2.98030E+03  6.78480E+02 -2.74081E+03  1.40236E+03 -1.75958E+02
  2.81435E+03  7.58774E+02  1.76138E+03  1.69157E+03 -1.54150E+03  2.95451E+03 -1.19231E+03  1.69307E+03
