 $NMID ID='MM_0lb_SNR200_12hz_g40_43.RAW', FMTDAT='(8E13.5)'
 TRAMP=1., VOLUME=1. $END
  3.10881E+05  8.26747E+02  3.37675E+05  2.49667E+05  8.45743E+04  3.37564E+05 -1.33189E+05  2.50913E+05
 -1.91006E+05  8.30213E+04 -1.10834E+05 -3.15955E+04  7.50346E+02 -5.00156E+04  5.40917E+04 -1.41976E+03
  3.54600E+04  5.18310E+04 -1.64919E+04  7.56832E+04 -6.00603E+04  6.34632E+04 -8.48245E+04  3.30383E+04
 -8.10000E+04 -1.12012E+04 -5.87618E+04 -5.17937E+04 -1.49815E+04 -6.90735E+04  2.69652E+04 -4.56766E+04
  4.05138E+04  4.78506E+03  1.70174E+04  4.81725E+04 -3.43675E+04  4.71607E+04 -6.71372E+04 -4.32173E+02
 -5.51710E+04 -5.61860E+04 -6.81735E+03 -7.71650E+04  3.41347E+04 -5.51524E+04  4.86473E+04 -1.76073E+04
  4.36900E+04  1.07470E+04  3.27413E+04  2.45848E+04  1.45408E+04  2.94336E+04 -4.66997E+03  2.78525E+04
 -2.14994E+04  1.05055E+04 -1.73643E+04 -5.52925E+03  4.91150E+03 -7.32568E+03  2.32827E+04  1.15894E+04
  6.83602E+03  3.47484E+04 -3.25179E+04  3.58553E+04 -6.38339E+04  3.31303E+03 -5.67795E+04 -4.27342E+04
 -1.27144E+04 -6.33443E+04  3.98620E+04 -4.67268E+04  5.88441E+04 -1.87892E+03  3.53417E+04  3.23966E+04
 -6.05704E+03  3.69501E+04 -3.06303E+04  1.67055E+04 -3.19518E+04 -4.08421E+03 -1.64677E+04 -1.06719E+04
 -7.72234E+03 -1.40688E+04 -3.87065E+02 -1.75952E+04  8.55589E+03 -2.29182E+04  1.56641E+04 -1.34433E+04
  1.06960E+04  5.14916E+03 -8.62176E+03  1.34546E+04 -2.22284E+04 -4.28094E+03 -8.84246E+03 -3.54219E+04
  2.45111E+04 -4.47216E+04  4.84462E+04 -2.11637E+04  4.43475E+04  2.01125E+04  1.62221E+04  4.47977E+04
 -1.53101E+04  3.37091E+04 -2.49157E+04  2.31112E+03 -9.47286E+03 -2.86728E+04  2.02417E+04 -3.47798E+04
  4.22579E+04 -8.17313E+03  3.68644E+04  2.37743E+04  1.85932E+04  4.70639E+04 -7.93358E+03  5.26764E+04
 -3.11756E+04  3.41322E+04 -4.46680E+04  9.75909E+03 -4.38568E+04 -1.70844E+04 -2.46633E+04 -3.80176E+04
  6.92262E+03 -3.78463E+04  3.31575E+04 -1.49595E+04  2.98967E+04  1.09805E+04  4.12173E+03  2.03451E+04
 -1.30716E+04  8.00445E+03 -1.04893E+04 -8.14055E+03  5.77398E+03 -1.08016E+04  1.85685E+04  5.14490E+03
  1.33171E+04  2.19299E+04 -6.05510E+03  2.52980E+04 -2.19948E+04  1.19130E+04 -2.80321E+04 -5.45055E+03
 -2.26661E+04 -1.82705E+04 -9.77805E+03 -2.17189E+04  4.73847E+03 -2.18900E+04  1.66587E+04 -1.90912E+04
  2.72917E+04 -1.35913E+04  3.56076E+04  2.85227E+03  2.54527E+04  2.05662E+04  3.76912E+03  3.73898E+04
 -1.78412E+04  3.02064E+04 -2.83647E+04  9.85104E+03 -1.97322E+04 -9.87528E+03 -5.12339E+03 -1.29071E+04
  2.31003E+03 -3.69179E+03 -3.69829E+03  8.14631E+03 -1.67890E+04  4.76081E+03 -1.63330E+04 -8.49767E+03
 -1.07118E+04 -1.93992E+04  6.17752E+03 -2.34938E+04  1.54361E+04 -1.75337E+04  1.99974E+04 -1.53630E+03
  1.16688E+04  1.38886E+04 -1.17785E+02  2.13394E+04 -1.38816E+04  1.17249E+04 -1.92905E+04 -4.64524E+03
 -1.49870E+04 -1.86843E+04 -2.29952E+03 -2.47919E+04  1.12658E+04 -1.89726E+04  2.02549E+04 -9.82986E+03
  1.86364E+04  4.60330E+02  1.41488E+04  5.39930E+03  7.43142E+03  4.65181E+01  9.71905E+03 -2.33317E+03
  1.86915E+04  2.33542E+03  1.96146E+04  1.62039E+04  1.38766E+04  3.09041E+04 -2.39973E+03  3.58951E+04
 -2.07791E+04  2.83087E+04 -3.45263E+04  1.54709E+04 -3.50865E+04 -1.90576E+03 -2.97532E+04 -1.99024E+04
 -1.26408E+04 -3.02068E+04  1.04767E+04 -2.54833E+04  2.16067E+04 -1.26585E+04  1.96502E+04  7.28478E+03
  7.06633E+03  1.64030E+04 -9.40152E+03  1.24528E+04 -1.72121E+04  1.79095E+03 -1.28675E+04 -1.18265E+04
 -1.20051E+03 -1.55618E+04  7.75887E+03 -1.27635E+04  1.05254E+04 -7.35304E+02  2.33071E+03  8.65043E+03
 -6.32921E+03  2.55488E+03 -6.63355E+03 -6.53497E+03  2.00790E+02 -1.54241E+04  1.04985E+04 -1.56306E+04
  1.87426E+04 -8.89809E+03  1.84334E+04  3.72348E+03  1.69491E+04  1.40671E+04  6.85304E+03  2.14905E+04
 -5.20591E+03  2.37847E+04 -1.65484E+04  1.49391E+04 -1.76726E+04  2.58696E+03 -1.23237E+04 -3.31930E+03
 -4.87904E+03 -6.58134E+03 -5.60202E+02  1.83029E+03 -1.31658E+03  1.70926E+03 -6.09319E+03  5.52130E+03
 -1.15080E+04  2.97564E+02 -1.25331E+04 -9.89388E+03 -3.90736E+03 -1.61802E+04  4.13449E+03 -1.40907E+04
  9.25107E+03 -4.37136E+03  7.34940E+03  3.03078E+03  1.12928E+03  4.27507E+03 -6.44646E+03 -1.76078E+03
 -5.45099E+03 -7.60729E+03 -2.42086E+03 -1.11893E+04  6.83111E+03 -1.13088E+04  1.45767E+04 -6.07582E+03
  1.81239E+04  1.41710E+03  1.33852E+04  1.05134E+04  2.30220E+03  1.29207E+04 -7.84072E+03  1.42424E+04
 -9.80113E+03  3.91612E+03 -6.69316E+03 -4.32239E+03  1.97058E+03 -3.80567E+03  7.61312E+03 -1.38898E+03
  5.30851E+03  3.15901E+03  7.13302E+02  9.82542E+03 -7.48576E+03  9.51731E+03 -1.20627E+04  4.11306E+03
 -8.61778E+03 -7.88507E+03 -9.02638E+02 -1.03771E+04  6.24015E+03 -4.62090E+03  6.03782E+03  3.45637E+02
  1.51325E+03  6.20522E+03 -6.20530E+03  8.97292E+03 -8.84480E+03  4.64211E+03 -9.71608E+03 -3.37713E+03
 -6.22439E+03 -1.08899E+04  3.67069E+03 -1.16775E+04  1.08548E+04 -6.71944E+03  1.16289E+04  2.94009E+03
  6.88653E+03  9.31194E+03 -1.23940E+03  1.25947E+04 -9.05223E+03  6.41911E+03 -1.03049E+04 -1.44566E+03
 -8.93605E+03 -8.28678E+03 -1.08078E+03 -8.16143E+03  5.73546E+03 -6.73151E+03  4.31380E+03 -2.62728E+03
  3.69897E+03  8.11877E+02 -1.03991E+03  1.67978E+03 -1.08719E+03 -1.63115E+03  1.41189E+03 -4.93301E+03
  7.69608E+03 -3.77945E+03  1.15424E+04  9.29127E+02  1.16647E+04  5.84628E+03  7.02394E+03  1.46745E+04
 -2.97514E+03  1.81846E+04 -1.41489E+04  1.41496E+04 -1.80802E+04  1.81225E+03 -1.48775E+04 -5.63631E+03
 -8.13016E+03 -1.07947E+04 -9.26980E+02 -1.08365E+04  3.97940E+03 -5.46976E+03  4.31574E+03 -3.89860E+03
  1.34751E+03 -3.37133E+03  3.07002E+03 -2.89342E+03  5.00313E+03 -4.30348E+03  6.47054E+03 -4.89387E+02
  8.35337E+03  2.90609E+03  4.21733E+03  6.00648E+03 -1.30082E+03  9.15007E+03 -8.18330E+03  6.37266E+03
 -9.25079E+03 -6.02362E+02 -6.08971E+03 -8.14902E+03  5.31993E+02 -1.01764E+04  6.15638E+03 -1.12785E+04
  1.01595E+04 -5.82945E+03  1.42490E+04  1.93974E+03  9.35325E+03  1.01636E+04  1.25895E+03  1.26397E+04
 -6.31032E+03  9.97029E+03 -7.10154E+03  4.20080E+03 -4.11551E+03 -9.69627E+02 -1.57875E+03 -1.85217E+03
 -3.83050E+02 -6.00449E+02 -1.97885E+03  2.91794E+03 -4.08605E+03  1.46080E+03 -7.84599E+03 -5.29859E+02
 -3.59729E+03 -7.25425E+03  6.73754E+02 -8.88990E+03  6.32931E+03 -9.79100E+03  8.58556E+03 -2.77327E+03
  1.02091E+04  5.68136E+03  4.38573E+03  8.35457E+03 -2.03644E+03  8.92981E+03 -5.72883E+03  5.97120E+03
 -8.65152E+03  2.90230E+02 -8.38102E+03 -6.66322E+03 -2.52553E+02 -7.51199E+03  3.59131E+03 -5.59186E+03
  5.70606E+03 -2.25374E+03  4.54819E+03  2.62131E+03  1.42659E+03  4.71717E+03  9.86890E+02  6.18084E+02
  2.28089E+03  1.07987E+03  2.85295E+03  1.91328E+03  2.34654E+03  4.55708E+03  2.57638E+03  5.12707E+03
 -1.64775E+03  6.99581E+03 -4.80481E+03  7.90398E+03 -9.78852E+03  2.60031E+03 -1.04190E+04 -3.85023E+03
 -4.69655E+03 -8.33769E+03  4.92618E+02 -1.01730E+04  4.45656E+03 -6.07662E+03  9.02277E+03 -1.70075E+03
  7.27258E+03  3.89172E+03  1.88740E+03  4.88508E+03 -2.12851E+03  5.11909E+03 -3.10985E+03  3.15803E+02
 -3.22365E+03 -3.50310E+03  2.74324E+03 -4.41896E+03  3.66494E+03 -2.46919E+03  4.05023E+03  1.09904E+03
  2.44060E+03  1.47486E+03  1.56730E+03  2.58378E+03 -2.25635E+03 -3.19673E+02  1.34334E+03 -1.00801E+03
  3.51579E+02  4.01248E+00  4.96450E+03  9.93801E+02  2.33928E+03  5.65587E+03 -1.78670E+03  6.50929E+03
 -4.17238E+03  3.87987E+03 -5.30773E+03  1.24898E+03 -5.20902E+03 -6.22751E+02 -2.91884E+03 -2.83756E+03
  1.28684E+02 -2.70053E+03  3.80547E+03 -1.83357E+03  2.33141E+03  3.64386E+03 -2.07003E+03  3.01334E+03
 -4.26986E+03  1.88116E+03 -4.46234E+03 -2.06140E+03 -2.52868E+03 -4.59981E+03  1.00379E+03 -4.42914E+03
  2.58200E+03 -2.85767E+03  2.54020E+03 -5.77167E+02  2.84750E+03  9.00976E+02  2.02544E+02  3.01402E+03
 -7.39196E+02  5.16811E+02 -2.75090E+03 -5.97402E+02  7.48146E+02 -2.79256E+03  4.64273E+03 -2.99590E+03
  4.67842E+03  4.53455E+02  4.85976E+03  2.99217E+03  1.32403E+03  5.40022E+03 -2.16991E+03  6.22765E+03
 -6.01491E+03  2.24615E+03 -4.65251E+03 -3.87479E+02 -2.02569E+03 -3.73144E+03  4.66468E+02 -3.49398E+03
  3.34803E+03 -2.19066E+03  3.53629E+03  1.54991E+03  5.52320E+02  2.20330E+03 -1.26798E+03  2.32599E+03
 -1.92457E+03  9.76182E+02 -1.32312E+03  1.83150E+02  4.77063E+01  9.22154E+02 -1.31441E+03  1.19777E+03
 -8.61106E+02  2.98076E+03 -5.26679E+03  1.23173E+03 -6.85971E+03  1.34099E+03 -5.81932E+03 -4.97024E+03
 -4.49481E+03 -7.78759E+03  2.31962E+03 -8.17552E+03  5.45306E+03 -7.30926E+03  8.29498E+03 -2.91030E+03
  7.34820E+03  1.60079E+03  4.59259E+03  5.29717E+03  7.60433E+01  5.57968E+03 -1.03170E+03  4.95295E+03
 -3.47023E+03  2.16904E+03 -2.38922E+03 -8.57945E+02 -1.43649E+03  9.68460E+01 -1.04028E+02 -1.78848E+02
 -2.22135E+03 -9.09410E+02 -1.27288E+03 -3.79984E+02 -5.70201E+02 -5.87165E+02 -1.22379E+01 -3.61737E+03
  3.15850E+03 -1.26571E+03  2.39725E+03 -1.02427E+03  4.00773E+03  3.87019E+03  9.65748E+02  4.93626E+03
 -2.53763E+03  6.22002E+03 -4.82807E+03  3.11437E+03 -7.23730E+03 -2.07298E+02 -4.48342E+03 -3.05887E+03
 -2.35574E+03 -5.80559E+03  2.61636E+03 -5.14578E+03  4.06060E+03 -1.79527E+03  2.17308E+03  1.34306E+03
  1.38560E+03  1.14984E+03 -4.04557E+02  1.77044E+03 -3.87650E+01 -9.61419E+02 -5.75273E+02 -1.30112E+03
  2.71589E+03 -3.54022E+02  1.30167E+03  9.10016E+02  1.14974E+03  2.11057E+03 -1.22337E+02  1.12146E+03
 -2.59457E+03  2.55907E+03 -3.72681E+03 -1.56484E+03 -3.38639E+03 -1.34629E+03 -1.29052E+00 -3.28834E+03
  2.52621E+03 -3.85269E+03  3.84150E+03 -2.41946E+03  3.34529E+03  1.23955E+03  1.55565E+03  3.26494E+03
  5.50246E+02  3.41513E+03 -1.58353E+03  3.31550E+03 -1.72739E+03  2.90857E+03 -2.00542E+03  1.89125E+02
 -1.22820E+03  4.04809E+02 -1.78635E+03  6.87273E+02 -5.31218E+02  3.56526E+02 -4.06321E+03 -8.36447E+02
 -2.69049E+03 -2.14226E+03 -7.80057E+02 -4.31238E+03  1.50585E+03 -3.64437E+03  2.42920E+03 -2.52275E+03
  2.19703E+03  1.29408E+03  2.47084E+03  1.61518E+03 -6.53966E+02  4.13444E+03 -2.87465E+03  2.01017E+03
