 $NMID ID='MM_0lb_SNR200_20hz_g60_1.RAW', FMTDAT='(8E13.5)'
 TRAMP=1., VOLUME=1. $END
  3.10260E+05  2.15660E+02  3.36898E+05  2.50448E+05  8.46254E+04  3.38438E+05 -1.32490E+05  2.50532E+05
 -1.90656E+05  8.24938E+04 -1.10424E+05 -3.19574E+04  1.27549E+03 -4.96106E+04  5.36711E+04 -2.35429E+02
  3.55311E+04  5.32950E+04 -1.80909E+04  7.45660E+04 -6.07320E+04  6.34444E+04 -8.33954E+04  3.19246E+04
 -8.12980E+04 -1.05323E+04 -5.66565E+04 -5.01694E+04 -1.41682E+04 -6.91117E+04  2.75426E+04 -4.51526E+04
  3.94091E+04  2.93007E+03  1.60451E+04  4.74671E+04 -3.52343E+04  4.61783E+04 -6.63514E+04 -9.22096E+01
 -5.22193E+04 -5.62083E+04 -5.81151E+03 -7.57645E+04  3.40922E+04 -5.38812E+04  4.72605E+04 -1.68117E+04
  4.22108E+04  1.11754E+04  3.11338E+04  2.45418E+04  1.58963E+04  2.81322E+04 -5.27736E+03  2.69529E+04
 -2.24711E+04  1.29633E+04 -1.88431E+04 -4.64791E+03  4.37843E+03 -6.95911E+03  2.28130E+04  1.17718E+04
  7.33051E+03  3.41238E+04 -3.08781E+04  3.39340E+04 -6.27217E+04  2.37106E+03 -5.57687E+04 -4.13230E+04
 -1.16669E+04 -6.21030E+04  3.79051E+04 -4.39826E+04  5.60572E+04 -1.69114E+03  3.25282E+04  3.09975E+04
 -6.11555E+03  3.42284E+04 -2.81163E+04  1.45617E+04 -2.85080E+04 -5.13821E+03 -1.48214E+04 -1.15261E+04
 -7.95198E+03 -1.25489E+04 -1.36569E+03 -1.66799E+04  6.62736E+03 -2.27657E+04  1.52545E+04 -1.44501E+04
  1.13579E+04  4.91278E+03 -7.73444E+03  1.25148E+04 -2.07039E+04 -3.14787E+03 -8.04120E+03 -3.12672E+04
  2.08377E+04 -4.10598E+04  4.58411E+04 -1.82566E+04  4.18730E+04  1.79945E+04  1.50659E+04  4.24076E+04
 -1.46967E+04  3.24065E+04 -2.41320E+04  1.89203E+02 -8.03382E+03 -2.64490E+04  2.08220E+04 -3.18865E+04
  3.82779E+04 -7.94076E+03  3.17894E+04  2.35003E+04  1.53982E+04  4.35637E+04 -7.97539E+03  4.64157E+04
 -2.98816E+04  2.97429E+04 -3.83653E+04  8.40058E+03 -3.93511E+04 -1.46034E+04 -2.13778E+04 -3.58243E+04
  5.88884E+03 -3.55384E+04  2.93583E+04 -1.33600E+04  2.78571E+04  1.14202E+04  2.42377E+03  1.74061E+04
 -1.33997E+04  7.65188E+03 -9.32401E+03 -8.33222E+03  5.78137E+03 -1.07643E+04  1.77234E+04  7.09274E+03
  1.36073E+04  2.14775E+04 -6.50259E+03  2.40313E+04 -2.21839E+04  9.83771E+03 -2.59654E+04 -5.76101E+03
 -1.73937E+04 -1.60350E+04 -5.18696E+03 -1.80683E+04  4.25155E+03 -1.66352E+04  1.31064E+04 -1.61516E+04
  2.21694E+04 -1.19799E+04  2.78358E+04  1.26146E+03  2.29523E+04  1.72067E+04  4.88652E+03  3.22466E+04
 -1.57894E+04  2.67536E+04 -2.56460E+04  9.51923E+03 -2.02165E+04 -1.03306E+04 -3.91371E+03 -1.29765E+04
  2.41072E+03 -3.83531E+03 -3.41531E+03  5.24921E+03 -1.39367E+04  5.00279E+03 -1.44510E+04 -5.09142E+03
 -8.98285E+03 -1.57436E+04  4.01077E+03 -1.97740E+04  1.23234E+04 -1.43190E+04  1.52006E+04 -6.92652E+02
  9.73783E+03  1.12819E+04 -4.02658E+02  1.60290E+04 -9.50002E+03  8.37921E+03 -1.63322E+04 -4.89671E+03
 -1.12692E+04 -1.44728E+04 -1.68548E+03 -1.90326E+04  9.22315E+03 -1.53520E+04  1.58503E+04 -7.66516E+03
  1.35945E+04  1.35362E+02  1.03408E+04  4.09472E+03  6.12159E+03  3.38400E+02  7.19005E+03 -1.78202E+03
  1.44262E+04  2.80188E+03  1.50761E+04  1.21102E+04  7.72932E+03  2.57191E+04 -2.73144E+03  2.73383E+04
 -1.53247E+04  1.99902E+04 -2.40510E+04  1.02437E+04 -2.55160E+04 -1.73836E+03 -2.12329E+04 -1.39944E+04
 -1.02151E+04 -2.05247E+04  6.21811E+03 -1.94665E+04  1.68633E+04 -1.13428E+04  1.49356E+04  4.32064E+03
  6.53621E+03  1.11011E+04 -7.39040E+03  1.00249E+04 -1.37233E+04  3.44302E+03 -1.03074E+04 -8.45561E+03
  1.00138E+02 -1.27004E+04  6.76059E+03 -9.63344E+03  7.46536E+03 -1.25013E+03  1.30056E+03  5.38122E+03
 -6.60431E+03  7.94105E+02 -4.62722E+03 -4.68819E+03  2.71783E+02 -1.04840E+04  7.91971E+03 -1.04602E+04
  1.20480E+04 -3.90222E+03  1.23244E+04  2.72358E+03  1.00659E+04  9.49600E+03  5.07040E+03  1.36233E+04
 -1.79910E+03  1.54277E+04 -9.39080E+03  1.05922E+04 -1.08588E+04  2.49599E+03 -8.51529E+03 -1.36565E+03
 -5.10587E+03 -3.66741E+03 -1.01167E+03  8.02738E+02 -2.67071E+03  2.33056E+03 -4.01374E+03  4.22170E+03
 -8.72538E+03 -1.71321E+03 -8.13295E+03 -7.35982E+03 -3.76621E+03 -1.11279E+04  3.92406E+03 -7.67566E+03
  6.47638E+03 -3.62013E+03  5.37825E+03  2.75560E+03 -1.24898E+02  3.14710E+03 -3.50042E+03 -5.47517E+01
 -4.90946E+03 -4.49523E+03 -1.62581E+03 -6.15277E+03  4.27590E+03 -7.39418E+03  1.00655E+04 -4.34233E+03
  1.07412E+04  1.48988E+03  8.59144E+03  6.26671E+03  1.43443E+03  8.45488E+03 -4.49988E+03  8.44401E+03
 -6.79413E+03  3.30340E+03 -3.94076E+03 -1.17724E+03  7.79473E+02 -1.80883E+03  5.07603E+03 -1.65730E+03
  4.36849E+03  3.39054E+03  1.13854E+03  5.67493E+03 -4.34895E+03  6.13008E+03 -8.22733E+03  1.51332E+03
 -4.29798E+03 -3.67947E+03  1.01851E+03 -6.45225E+03  3.47931E+03 -3.56919E+03  3.37297E+03 -2.87502E+02
 -3.39350E+02  3.24978E+03 -3.02305E+03  3.95200E+03 -4.34996E+03  2.74733E+03 -4.45754E+03 -9.57203E+02
 -3.09415E+03 -5.27107E+03  7.38028E+01 -6.92426E+03  5.55863E+03 -3.97382E+03  4.90539E+03  1.27387E+03
  4.21895E+03  5.50558E+03 -8.37924E+01  6.30991E+03 -4.23072E+03  5.32373E+03 -3.91592E+03 -1.28885E+03
 -5.20029E+03 -4.99798E+03 -2.40881E+03 -3.39878E+03  3.05024E+03 -5.31334E+03  2.52146E+03 -2.88009E+03
  2.59845E+03  1.83916E+02  6.56143E+02  8.12665E+02  4.70259E+02  1.83051E+01 -2.59518E+02 -8.04299E+02
  3.10651E+03 -7.86303E+02  4.59382E+03 -2.69027E+02  4.47060E+03  2.72131E+03  5.52483E+03  5.99349E+03
 -6.09139E+02  7.56965E+03 -7.19362E+03  6.37893E+03 -9.08927E+03  1.15550E+03 -7.43683E+03 -2.27902E+03
 -4.55809E+03 -5.68506E+03 -4.39698E+02 -4.29276E+03  2.32608E+03 -1.91002E+03  1.14849E+03 -1.85024E+03
  1.60884E+03 -4.85787E+02  1.88002E+03 -2.07667E+03  2.36622E+03 -1.95484E+03  3.44671E+03 -1.47510E+02
  4.73466E+03  4.97550E+02  1.07299E+03  3.93987E+03 -6.40042E+02  1.26181E+03 -5.05579E+03  2.15845E+03
 -5.14631E+03 -6.73945E+02 -6.87355E+02 -3.15485E+03 -7.75844E+01 -4.52706E+03  3.46738E+03 -4.49909E+03
  4.30156E+03 -2.33831E+03  4.47714E+03  8.93334E+02  4.98319E+03  4.17838E+03  1.68241E+03  5.88486E+03
 -1.25429E+03  6.47926E+03 -2.95796E+03  1.22976E+03 -1.55273E+03 -1.61001E+02 -4.03897E+02 -1.72555E+02
 -3.88995E+02  1.28209E+02 -3.99228E+02  1.93629E+03 -2.72334E+03  1.53869E+03 -3.99516E+03 -1.94527E+03
 -1.27049E+03 -3.38671E+03  1.25485E+03 -4.89300E+03  2.69595E+03 -4.22372E+03  3.12435E+03 -1.43621E+03
  3.26180E+03  1.87752E+03  1.89059E+03  2.22356E+03 -3.79233E+02  3.88605E+03 -3.08862E+03  1.65539E+03
 -2.15504E+03 -4.62140E+02 -3.73720E+03 -2.99857E+03 -1.63477E+02 -2.14799E+03  1.83589E+03 -2.32778E+03
  2.45161E+03 -1.55502E+03  3.31652E+03  2.84262E+02  1.48795E+02  1.98530E+03  6.49385E+02  1.30161E+02
  2.77530E+03 -1.12035E+02  1.05793E+03  1.22132E+03  6.69396E+02  2.38028E+03  9.70420E+02  2.34216E+03
 -6.96229E+02  2.52018E+03 -2.50300E+03  3.81262E+03 -2.87451E+03  1.56508E+03 -2.26788E+03  7.42242E+02
 -1.93502E+03 -3.88993E+03  1.35277E+03 -4.33720E+03  2.06454E+03 -1.75417E+03  1.59035E+03 -2.38633E+03
  1.67607E+03  2.28025E+03 -3.09410E+02  2.00512E+03 -7.47841E+02  9.03455E+02 -7.63650E+02  1.18916E+03
  5.58217E+02 -9.93188E+02  1.95530E+03 -5.22252E+02  1.02477E+03  1.19126E+02  6.87626E+02  1.60694E+02
  6.69904E+02  5.82321E+02  5.68635E+02 -1.08757E+03 -3.34193E+01  1.03278E+03  2.23469E+03  1.83712E+02
 -1.22796E+03 -5.61634E+02  1.93629E+03  8.49005E+02  2.51998E+01  2.20740E+03 -3.04246E+02  1.05773E+03
 -1.48217E+03  4.93605E+02 -7.41852E+02  6.04864E+02 -1.37301E+03 -4.50485E+01 -1.06596E+03  1.49017E+02
  1.36223E+02 -2.65185E+02  2.67910E+02 -1.88471E+02  6.94163E+02  7.38302E+02 -6.69858E+02 -1.81533E+02
 -1.10848E+03  7.98296E+02 -8.23258E+02 -1.05304E+03 -5.03000E+02 -2.03866E+03  4.34276E+01 -1.19891E+03
  6.47564E+02 -3.38971E+02  6.84927E+02  4.12476E+02  1.93083E+03 -2.75694E+02  8.22721E+02  1.66369E+03
 -2.21159E+02 -2.61983E+02 -2.18462E+02 -6.75616E+02  1.40182E+03  7.98384E+01  1.55543E+03 -5.56259E+02
  3.32600E+02 -1.85860E+02  1.88911E+03 -1.37759E+03  1.05681E+03  3.94378E+02 -5.48950E+02  5.35043E+02
  7.87741E+01  8.56306E+01 -1.68578E+03  5.21525E+02 -7.21620E+02 -6.45255E+01 -7.42789E+02 -3.15976E+02
  1.06461E+03  5.11718E+00  1.74754E+02 -9.80428E+01  8.89445E+02 -4.65058E+02 -8.28276E+02  1.17895E+03
 -5.35882E+02  2.08912E+03 -1.76602E+01 -2.15275E+02  4.29799E+01  5.54781E+02 -1.30557E+03 -6.61024E+01
  2.84376E+02  3.03374E+02 -5.56015E+02  8.42184E+02 -2.03999E+03  8.60066E+02 -2.19456E+03 -2.08636E+02
 -9.91196E+02 -2.14097E+03 -2.03894E+02 -2.90672E+03  1.02458E+03 -2.49713E+03  1.88570E+03 -9.06130E+02
  1.38672E+03 -1.07552E+03  6.16949E+02  8.12078E+02 -4.48305E+02  8.64175E+02 -1.34826E+03  1.76647E+03
 -1.13827E+03  1.72556E+03 -5.92799E+02 -4.67945E+02 -1.64948E+02  6.98143E+02 -1.00051E+03  1.40668E+02
 -6.43981E+02  7.09394E+00  1.70480E+02  1.01518E+03  8.50290E+02 -9.78099E+02 -8.39956E+02  6.18180E+02
  5.75804E+02 -4.08284E+02  2.37863E+02  8.01996E+02  1.60807E+03 -2.26192E+01 -1.24413E+03  6.28492E+02
 -1.61741E+03  1.81537E+03 -1.17606E+03  1.60241E+03 -1.43865E+03  3.63189E+02 -7.74730E+02 -3.71084E+02
 -5.47593E+02 -1.92658E+03 -1.04209E+02  7.07974E+02  8.90335E+02 -9.67089E+02  2.40842E+02 -2.77316E+00
  3.86946E+02  8.24444E+02  1.03864E+03  5.87012E+02 -1.39121E+03 -5.78828E+00 -6.19173E+01 -3.79367E+02
  8.33681E+02 -2.03839E+01  2.98094E+02  3.93020E+02 -8.16809E+02  7.23704E+02  1.32794E+03 -3.06006E+02
 -8.72731E+02  6.28484E+02  5.88601E+02  1.35697E+01 -8.27200E+02 -1.15269E+03  6.43080E+01 -1.05193E+03
 -5.17301E+02 -2.32251E+03  4.00515E+02 -4.62814E+02  9.92284E+02 -4.87531E+02  1.87205E+03 -1.89144E+01
  3.02996E+02 -2.68245E+02 -1.02209E+03  5.41978E+00  1.13447E+03  4.05677E+02 -8.42144E+01 -8.75915E+02
 -9.76935E+02 -3.17398E+02 -5.35961E+02 -3.79265E+02  1.76569E+02  1.48993E+03  1.09240E+02 -8.81109E+02
 -1.61637E+03  5.83687E+02 -8.38805E+02 -2.55801E+02  9.62395E+02 -8.83100E+02  4.39789E+02 -2.01751E+02
  4.11483E+02 -6.36777E+02 -1.39800E+03 -3.98145E+02 -3.84523E+02  3.86961E+02  1.03659E+02  8.99629E+02
