 $NMID ID='MM_0lb_SNR200_16hz_g60_46.RAW', FMTDAT='(8E13.5)'
 TRAMP=1., VOLUME=1. $END
  3.09999E+05  6.36756E+02  3.37936E+05  2.49801E+05  8.47904E+04  3.38042E+05 -1.32643E+05  2.51733E+05
 -1.90575E+05  8.40726E+04 -1.11914E+05 -3.25420E+04  5.88472E+02 -5.15051E+04  5.25031E+04 -8.92916E+02
  3.60419E+04  5.32239E+04 -1.70326E+04  7.60829E+04 -6.16327E+04  6.42907E+04 -8.39154E+04  3.14964E+04
 -8.19030E+04 -1.20684E+04 -5.65752E+04 -5.13204E+04 -1.52280E+04 -7.00321E+04  2.83886E+04 -4.52488E+04
  4.06691E+04  3.47645E+03  1.48072E+04  4.73814E+04 -3.49423E+04  4.66063E+04 -6.81276E+04 -2.74283E+02
 -5.26579E+04 -5.74549E+04 -6.49714E+03 -7.70328E+04  3.48234E+04 -5.50463E+04  4.83109E+04 -1.73782E+04
  4.39661E+04  1.11498E+04  3.35194E+04  2.55706E+04  1.61222E+04  2.85240E+04 -6.40784E+03  2.80035E+04
 -2.16396E+04  1.25159E+04 -1.81195E+04 -4.52678E+03  5.31328E+03 -9.74230E+03  2.18896E+04  1.23657E+04
  6.76451E+03  3.62917E+04 -3.28561E+04  3.52881E+04 -6.22636E+04  3.30202E+03 -5.66108E+04 -4.23418E+04
 -1.31329E+04 -6.35354E+04  3.90571E+04 -4.61508E+04  5.79510E+04 -1.64498E+03  3.51564E+04  3.29908E+04
 -6.00059E+03  3.57565E+04 -2.91680E+04  1.64035E+04 -3.09607E+04 -4.12662E+03 -1.64208E+04 -1.07160E+04
 -8.17371E+03 -1.42451E+04  8.48762E+01 -1.80925E+04  7.12128E+03 -2.25568E+04  1.60931E+04 -1.28398E+04
  1.24639E+04  5.74961E+03 -8.64609E+03  1.41534E+04 -2.10518E+04 -5.59503E+03 -7.86039E+03 -3.38110E+04
  2.17511E+04 -4.28832E+04  4.69342E+04 -1.87285E+04  4.38924E+04  2.12178E+04  1.76709E+04  4.32800E+04
 -1.54817E+04  3.37761E+04 -2.47429E+04  1.54701E+03 -9.33734E+03 -2.78858E+04  2.11540E+04 -3.38747E+04
  4.22247E+04 -8.60563E+03  3.59189E+04  2.37489E+04  1.96099E+04  4.65557E+04 -7.63954E+03  4.82965E+04
 -3.15375E+04  3.35645E+04 -4.32004E+04  8.95289E+03 -4.25682E+04 -1.65396E+04 -2.45717E+04 -3.74958E+04
  7.51002E+03 -3.78049E+04  3.19208E+04 -1.38408E+04  3.01986E+04  1.15749E+04  4.73166E+03  1.93443E+04
 -1.33579E+04  8.27891E+03 -1.13115E+04 -7.21543E+03  5.72019E+03 -9.87947E+03  1.80545E+04  7.51234E+03
  1.42929E+04  2.13934E+04 -6.21362E+03  2.45897E+04 -2.18202E+04  1.09874E+04 -2.73626E+04 -5.28000E+03
 -2.05336E+04 -1.72884E+04 -7.57993E+03 -2.03428E+04  4.55070E+03 -1.90368E+04  1.56331E+04 -1.84450E+04
  2.63503E+04 -1.35717E+04  3.10514E+04  2.10810E+03  2.37720E+04  1.87736E+04  4.42654E+03  3.66573E+04
 -1.85776E+04  2.99632E+04 -2.89052E+04  1.12533E+04 -2.13169E+04 -9.21872E+03 -4.49714E+03 -1.36248E+04
  2.20501E+03 -2.78669E+03 -4.33813E+03  6.47077E+03 -1.42381E+04  5.35606E+03 -1.63350E+04 -7.07863E+03
 -9.63652E+03 -1.80889E+04  4.95707E+03 -2.29257E+04  1.64534E+04 -1.63265E+04  1.74377E+04 -1.34750E+03
  1.11333E+04  1.30805E+04  5.60405E+01  1.81180E+04 -1.20488E+04  1.13575E+04 -1.84148E+04 -3.04282E+03
 -1.39134E+04 -1.68452E+04 -1.34341E+03 -2.22113E+04  1.06474E+04 -1.88729E+04  1.91894E+04 -8.94953E+03
  1.70759E+04 -1.18887E+02  1.28871E+04  4.56592E+03  6.78008E+03  8.02439E+02  8.75675E+03 -1.53006E+03
  1.77793E+04  3.00244E+03  1.89386E+04  1.56635E+04  1.15994E+04  2.91436E+04 -2.16964E+03  3.27195E+04
 -1.89948E+04  2.66151E+04 -3.11243E+04  1.28800E+04 -3.24218E+04 -3.53266E+03 -2.74447E+04 -1.97102E+04
 -1.19447E+04 -2.71639E+04  9.45670E+03 -2.32786E+04  2.19725E+04 -1.17813E+04  1.77808E+04  5.37616E+03
  6.88913E+03  1.29842E+04 -8.14191E+03  1.21147E+04 -1.47186E+04  2.59020E+03 -1.21876E+04 -1.07019E+04
  3.92416E+01 -1.44698E+04  8.25363E+03 -1.15366E+04  9.62193E+03 -1.77791E+03  2.16774E+03  6.74055E+03
 -6.28432E+03  1.34810E+03 -6.29501E+03 -6.12324E+03 -1.77466E+03 -1.24637E+04  8.28927E+03 -1.31795E+04
  1.54948E+04 -6.92814E+03  1.86140E+04  3.64699E+03  1.43386E+04  1.24732E+04  6.98648E+03  1.86247E+04
 -4.03096E+03  2.13862E+04 -1.38029E+04  1.26613E+04 -1.62678E+04  4.14249E+03 -1.10308E+04 -4.13867E+03
 -4.69910E+03 -4.67503E+03 -6.74521E+02  3.07954E+02 -3.22089E+03  2.73853E+03 -4.45444E+03  4.46151E+03
 -9.26403E+03 -1.05759E+03 -1.00417E+04 -7.91270E+03 -2.73679E+03 -1.46164E+04  4.30849E+03 -1.08765E+04
  1.03492E+04 -4.41513E+03  6.21210E+03  2.94674E+03 -1.29031E+03  4.41759E+03 -5.18685E+03 -2.23161E+02
 -4.25244E+03 -7.72871E+03 -1.36708E+03 -1.02897E+04  6.10081E+03 -1.13883E+04  1.24744E+04 -5.54794E+03
  1.62261E+04  1.45899E+03  1.05386E+04  9.40123E+03  1.00880E+03  1.24319E+04 -5.10934E+03  9.82584E+03
 -8.72174E+03  4.29823E+03 -3.77867E+03 -2.34181E+03  7.97576E+02 -2.31759E+03  5.09507E+03 -2.49885E+03
  4.87011E+03  5.73560E+03  1.87111E+03  8.29372E+03 -4.23812E+03  8.86741E+03 -9.80278E+03  9.64718E+02
 -6.64160E+03 -4.98757E+03  5.72492E+02 -9.94984E+03  4.34460E+03 -4.14732E+03  4.94626E+03  1.70959E+03
  5.43555E+02  5.92370E+03 -4.22367E+03  6.34340E+03 -7.87208E+03  2.82770E+03 -7.95379E+03 -3.23435E+03
 -4.81772E+03 -8.22199E+03  2.03909E+03 -9.83626E+03  8.51614E+03 -6.44565E+03  9.24927E+03  1.14764E+03
  7.30953E+03  8.12587E+03  2.09433E+02  9.68251E+03 -6.55725E+03  5.16670E+03 -8.16684E+03  1.66838E+02
 -6.96330E+03 -5.20269E+03 -1.47043E+03 -7.72099E+03  3.33975E+03 -7.35448E+03  3.51511E+03 -1.98393E+03
  3.58877E+03  2.59893E+01  1.60096E+02  1.62439E+03  1.70760E+03 -1.70843E+03  7.80523E+02 -2.18486E+03
  5.81123E+03 -2.60618E+03  7.74261E+03  1.74132E+02  9.57074E+03  5.05719E+03  6.97503E+03  1.03647E+04
 -2.40228E+03  1.15534E+04 -1.07334E+04  1.04420E+04 -1.26420E+04  2.28883E+03 -1.14769E+04 -4.03563E+03
 -5.50476E+03 -8.93618E+03  4.10399E+02 -6.81052E+03  2.96425E+03 -4.25973E+03  3.58699E+03 -2.17959E+03
  1.20451E+03 -2.43776E+03  4.69806E+03 -2.67824E+03  4.03001E+03 -2.04414E+03  4.40078E+03  6.55005E+02
  6.08591E+03  2.33130E+03  2.42053E+03  4.28957E+03 -2.21890E+03  4.80501E+03 -7.07888E+03  4.07223E+03
 -7.27552E+03 -1.10457E+03 -3.42952E+03 -5.41541E+03 -9.94570E+02 -6.64143E+03  5.03308E+03 -7.64615E+03
  6.56149E+03 -3.52875E+03  9.45378E+03  3.98965E+02  6.80508E+03  6.06464E+03  2.36400E+03  9.71435E+03
 -3.06466E+03  7.72242E+03 -5.18090E+03  2.31467E+03 -3.28721E+03 -1.64606E+03 -9.85371E+02 -1.16505E+03
  9.31437E+02 -4.45133E+02 -1.44852E+03  2.18879E+03 -3.07604E+03  1.14845E+03 -5.18992E+03 -5.48771E+01
 -2.92516E+03 -5.67279E+03  4.67478E+02 -7.02877E+03  4.81718E+03 -6.40947E+03  5.52645E+03 -1.08390E+03
  5.80887E+03  3.97151E+03  2.27757E+03  4.86778E+03 -1.72917E+03  7.00319E+03 -4.15686E+03  4.28443E+03
 -5.51985E+03  1.13666E+03 -4.68930E+03 -4.67409E+03 -1.32177E+03 -5.29668E+03  2.21475E+03 -4.44626E+03
  4.56625E+03 -1.65968E+03  2.19481E+03  1.21880E+03  5.72813E+02  2.39004E+03  6.23084E+01  1.38735E+03
  2.20380E+03  1.31899E+03  1.58193E+03  2.10981E+03  2.60745E+01  3.42499E+03  1.52528E+03  2.74403E+03
 -1.19258E+03  4.72682E+03 -5.05124E+03  6.93851E+03 -6.04815E+03  1.40910E+03 -5.50270E+03 -1.37199E+03
 -3.83137E+03 -6.09729E+03  2.38368E+02 -5.91719E+03  3.98487E+03 -4.87844E+03  5.99319E+03 -6.81588E+02
  4.11364E+03  2.98462E+03  4.60423E+01  3.15301E+03 -1.45630E+03  1.30157E+03 -2.29910E+03 -1.23809E+03
 -6.25010E+02 -1.29221E+03  2.64108E+03 -1.53050E+03  2.22419E+03 -1.82296E+03  2.74847E+03  6.20720E+02
  2.52453E+03  8.47654E+02  9.25603E+02 -3.52413E+02 -1.11036E+03  5.10551E+01  1.64108E+03 -4.80743E+02
 -9.16611E+02 -5.48313E+02  2.72375E+03  5.99072E+02  1.50996E+03  3.92046E+03  2.16613E+02  4.58988E+03
 -2.25741E+03  2.76827E+03 -2.60166E+03  3.92291E+02 -3.28198E+03 -2.06135E+02 -8.36070E+02 -2.08253E+03
  2.08642E+02 -2.97099E+03  6.86750E+02  1.03111E+03  2.01771E+03  1.90020E+03 -1.57192E+03  2.44055E+03
 -2.19977E+03  8.94475E+02 -2.51888E+03 -1.68569E+03  2.94287E+02 -3.23301E+03 -5.62628E+02 -2.50635E+03
  4.86803E+02 -1.22276E+03  2.12039E+03  1.01489E+02  2.59196E+03  6.51752E+02  4.56994E+02  1.24818E+03
 -1.08389E+03 -4.27734E+02 -1.15458E+02 -8.33389E+02  8.71555E+02 -2.03557E+03  2.75849E+03 -1.19725E+03
  2.39989E+03  3.78987E+02  4.62540E+03  1.68780E+03  5.85095E+02  2.28796E+03 -1.26759E+03  2.67937E+03
 -2.88848E+03 -3.45469E+02 -1.54284E+03 -2.52510E+02 -7.86049E+02 -2.31310E+03  8.72633E+02 -2.17504E+03
  1.40719E+03 -1.05157E+03  1.75438E+03  1.31256E+03  1.12060E+03  1.38437E+03 -7.32489E+02  2.43463E+03
 -2.93107E+02  1.38396E+02 -9.65264E+02  7.91543E+02 -1.25250E+03  5.24154E+02 -5.06427E+02  1.27563E+03
 -5.85182E+02  9.90190E+02 -3.47940E+03  1.26416E+03 -2.70668E+03  6.43706E+02 -3.34624E+03 -2.22710E+03
 -1.56738E+03 -4.17349E+03  1.31285E+03 -5.13439E+03  3.33779E+03 -4.34265E+03  4.48774E+03 -1.00584E+03
  4.12936E+03  1.80809E+03  9.30616E+02  1.59772E+03  4.73831E+02  2.56432E+03 -7.08081E+02  1.72302E+03
 -1.60144E+03  1.65581E+03 -2.29526E+03 -3.67788E+02  1.13581E+03  8.36224E+02 -4.27218E+02  4.34061E+02
 -8.43721E+02  4.92730E+02  1.89038E+02  2.92384E+02  1.45337E+03 -9.53491E+02 -6.59853E+02 -1.17154E+03
  2.01294E+03 -5.18381E+02  6.80626E+02  6.35500E+02  1.56737E+03  2.21774E+03 -1.99719E+02  1.91313E+03
 -1.52386E+03  3.04673E+03 -2.53480E+03  1.59133E+03 -2.74494E+03 -2.77381E+02 -1.99249E+03 -8.79369E+02
 -2.49184E+03 -1.33663E+03  1.26448E+03 -2.97705E+03 -5.29771E+00 -8.02586E+02  1.32671E+03  2.90213E+02
  1.45359E+03  5.26487E+02  1.12690E+03  6.45855E+02 -1.23370E+01  1.47280E+02  2.12786E+02 -8.37778E+02
 -2.04673E+02 -6.29675E+02  1.66117E+03 -3.98437E+02  1.85043E+01  5.94775E+02  1.85420E+02  5.65329E+02
 -1.13468E+03  1.98801E+03 -1.91324E+03  6.54507E+02 -1.29806E+03 -1.04133E+03  2.16882E+02 -1.99616E+03
  1.57066E+02 -2.36093E+03  1.05937E+03  3.54939E+02  1.20314E+03 -2.33478E+02  6.73125E+02  1.97400E+03
  1.07598E+03  6.26045E+02 -3.35027E+02  8.77019E+02 -1.96747E+03  8.77962E+02 -4.22246E+02  1.18955E+02
 -1.57243E+03  1.49869E+02 -9.12933E+02 -4.42428E+02 -9.16391E+01  3.94483E+02 -6.47003E+02 -2.20389E+02
 -1.73484E+03  2.84173E+02 -8.41653E+02 -2.58132E+03  6.85724E+02 -2.59314E+03  1.27343E+03 -8.72995E+02
  5.07775E+02 -6.01531E+02  9.26963E+02 -3.43450E+02  5.38010E+02  1.82745E+03 -1.37969E+03  1.19431E+03
