 $NMID ID='MM_0lb_SNR200_10hz_g55_62.RAW', FMTDAT='(8E13.5)'
 TRAMP=1., VOLUME=1. $END
  3.10628E+05  7.45106E+02  3.36700E+05  2.50641E+05  8.39528E+04  3.37667E+05 -1.33575E+05  2.52623E+05
 -1.91492E+05  8.47532E+04 -1.12293E+05 -3.28112E+04  2.06803E+03 -5.15072E+04  5.37584E+04 -6.07161E+02
  3.47509E+04  5.45965E+04 -1.65754E+04  7.39998E+04 -6.07056E+04  6.45243E+04 -8.48635E+04  3.25546E+04
 -8.25910E+04 -1.24543E+04 -5.86014E+04 -5.32429E+04 -1.49270E+04 -7.05786E+04  2.82539E+04 -4.61900E+04
  4.07908E+04  4.18391E+03  1.66540E+04  4.66066E+04 -3.61981E+04  4.83642E+04 -6.79382E+04 -6.68758E+02
 -5.57205E+04 -5.76724E+04 -8.23085E+03 -7.92445E+04  3.43880E+04 -5.78409E+04  4.86437E+04 -1.75812E+04
  4.46139E+04  1.31579E+04  3.36594E+04  2.63326E+04  1.50488E+04  3.11359E+04 -4.68945E+03  2.74754E+04
 -2.18052E+04  1.21498E+04 -1.79322E+04 -5.06125E+03  7.25063E+03 -6.40999E+03  2.31568E+04  1.21958E+04
  8.35710E+03  3.86202E+04 -3.38701E+04  3.83610E+04 -6.45324E+04  2.17821E+03 -5.79753E+04 -4.55495E+04
 -1.10061E+04 -6.55216E+04  4.26692E+04 -4.83515E+04  6.10982E+04 -1.66401E+03  3.66467E+04  3.41932E+04
 -6.57146E+03  3.98867E+04 -3.16896E+04  1.84408E+04 -3.46125E+04 -2.81855E+03 -1.97965E+04 -1.25068E+04
 -9.09245E+03 -1.50527E+04 -2.49124E+02 -1.86681E+04  7.63260E+03 -2.30082E+04  1.37712E+04 -1.34097E+04
  1.11035E+04  4.63750E+03 -1.09735E+04  1.24726E+04 -2.47259E+04 -4.79701E+03 -8.59289E+03 -3.74766E+04
  2.55446E+04 -4.70439E+04  4.99069E+04 -2.13434E+04  4.73376E+04  2.21850E+04  1.68360E+04  4.63796E+04
 -1.67897E+04  3.66338E+04 -2.69827E+04  2.60164E+03 -1.19306E+04 -2.98432E+04  2.23693E+04 -3.66818E+04
  4.50372E+04 -1.02436E+04  4.06052E+04  2.72424E+04  2.14304E+04  5.05867E+04 -1.02959E+04  5.59254E+04
 -3.57399E+04  3.71387E+04 -4.65777E+04  1.10330E+04 -4.78660E+04 -1.93093E+04 -2.68052E+04 -4.23292E+04
  7.08473E+03 -4.31649E+04  3.43184E+04 -1.63571E+04  3.10192E+04  1.14363E+04  4.39247E+03  1.97048E+04
 -1.27710E+04  9.75950E+03 -1.10262E+04 -7.68989E+03  4.65736E+03 -1.20691E+04  1.85283E+04  4.85052E+03
  1.44973E+04  2.36361E+04 -5.43880E+03  2.88555E+04 -2.23403E+04  1.37843E+04 -3.05998E+04 -2.19227E+03
 -2.44475E+04 -1.77269E+04 -1.06781E+04 -2.41324E+04  3.70314E+03 -2.60921E+04  1.98316E+04 -2.30190E+04
  3.15134E+04 -1.39360E+04  3.74645E+04  4.88777E+03  2.72379E+04  2.42033E+04  3.92686E+03  4.05126E+04
 -1.91051E+04  3.34408E+04 -2.94028E+04  1.07190E+04 -2.28395E+04 -1.06126E+04 -3.80133E+03 -1.14005E+04
  7.37276E+00 -4.01679E+02 -7.07501E+03  7.21463E+03 -1.95660E+04  6.05797E+03 -1.98375E+04 -9.66412E+03
 -1.29966E+04 -2.34420E+04  7.57381E+03 -2.72610E+04  1.85067E+04 -1.92562E+04  2.04928E+04 -1.15265E+03
  1.57513E+04  1.53757E+04 -1.52659E+03  2.29065E+04 -1.72943E+04  1.29181E+04 -2.30745E+04 -4.34365E+03
 -1.73842E+04 -2.13806E+04 -2.04676E+03 -2.74919E+04  1.17271E+04 -2.30124E+04  2.22392E+04 -1.21908E+04
  2.04942E+04  7.25981E+02  1.48632E+04  5.38311E+03  7.04667E+03  2.70517E+03  1.24800E+04 -1.93562E+03
  2.27764E+04  1.91069E+03  2.47404E+04  1.73050E+04  1.73057E+04  3.68874E+04 -3.51618E+03  4.28740E+04
 -2.58353E+04  3.74963E+04 -3.99334E+04  1.91479E+04 -4.37887E+04 -2.84785E+03 -3.60083E+04 -2.33354E+04
 -1.33991E+04 -3.52305E+04  1.23259E+04 -3.31379E+04  2.69722E+04 -1.63687E+04  2.40431E+04  6.99983E+03
  7.76982E+03  1.90617E+04 -1.19840E+04  1.66697E+04 -2.03827E+04  1.00914E+03 -1.72377E+04 -1.16345E+04
  4.14823E+02 -1.90569E+04  1.06194E+04 -1.41857E+04  1.30592E+04 -3.77375E+02  1.24246E+03  8.93930E+03
 -9.37391E+03  3.05928E+03 -8.53819E+03 -6.72678E+03 -2.06218E+03 -1.88079E+04  1.19443E+04 -1.97514E+04
  2.19982E+04 -1.23117E+04  2.54938E+04  2.23140E+03  2.18773E+04  1.71264E+04  1.02522E+04  2.80026E+04
 -5.26323E+03  3.08714E+04 -1.86326E+04  1.84218E+04 -2.21701E+04  3.36678E+03 -1.42595E+04 -5.75315E+03
 -5.52512E+03 -7.09187E+03  2.52869E+02  1.98381E+02 -4.31246E+03  5.20587E+03 -7.17594E+03  6.10416E+03
 -1.29633E+04 -9.70517E+02 -1.47378E+04 -1.09293E+04 -6.27423E+03 -1.98143E+04  5.29718E+03 -1.43950E+04
  1.16092E+04 -6.76651E+03  9.20818E+03  4.67090E+03 -8.95939E+02  7.09368E+03 -8.20427E+03  9.76741E+02
 -6.94244E+03 -8.68287E+03 -1.70065E+03 -1.60050E+04  1.01166E+04 -1.49230E+04  1.79739E+04 -9.18579E+03
  2.20258E+04  2.37749E+03  1.79612E+04  1.41617E+04  4.08736E+03  1.64771E+04 -9.26059E+03  1.40913E+04
 -1.14753E+04  4.35342E+03 -6.43130E+03 -3.24331E+03  1.36578E+03 -4.53998E+03  7.95686E+03 -8.07006E+02
  7.96855E+03  8.38513E+03  1.00408E+03  1.19738E+04 -7.92844E+03  1.28026E+04 -1.44372E+04  4.75796E+03
 -9.09453E+03 -6.00680E+03  7.49685E+02 -1.41320E+04  7.79969E+03 -4.87440E+03  9.59756E+03  4.12955E+03
  1.46748E+03  8.41038E+03 -9.29502E+03  1.06589E+04 -1.35087E+04  5.97349E+03 -1.31197E+04 -5.33955E+03
 -6.76631E+03 -1.54731E+04  3.56749E+03 -1.85385E+04  1.43088E+04 -1.09741E+04  1.48819E+04  3.00785E+03
  1.03342E+04  1.34234E+04 -1.57988E+03  1.48060E+04 -9.97780E+03  9.13193E+03 -1.16849E+04 -3.73161E+02
 -1.12026E+04 -9.90410E+03 -1.35049E+03 -1.09532E+04  5.83990E+03 -9.85834E+03  7.13448E+03 -3.69681E+03
  5.27524E+03  2.06239E+03 -1.89120E+03  2.61264E+03 -7.13495E+02 -2.64219E+03  1.94933E+03 -7.60743E+03
  9.94989E+03 -5.00616E+03  1.62211E+04  9.87745E+02  1.45816E+04  9.98676E+03  8.65389E+03  1.94496E+04
 -3.72687E+03  2.26471E+04 -1.70574E+04  1.74706E+04 -2.40616E+04  3.91206E+03 -1.95869E+04 -8.51463E+03
 -9.57411E+03 -1.66506E+04  5.88214E+01 -1.41545E+04  5.00988E+03 -7.58239E+03  4.80374E+03 -6.02184E+03
  3.83464E+03 -2.81059E+03  4.09657E+03 -2.99626E+03  6.40868E+03 -3.22114E+03  8.67443E+03 -6.60126E+02
  1.15941E+04  2.40963E+03  5.66344E+03  8.98330E+03 -1.04916E+03  1.04844E+04 -1.03608E+04  6.71830E+03
 -1.29811E+04 -2.55130E+03 -7.09216E+03 -1.05819E+04 -1.41952E+03 -1.45542E+04  7.57940E+03 -1.49204E+04
  1.38427E+04 -8.99911E+03  1.81550E+04  1.58204E+03  1.29668E+04  1.29099E+04  1.51622E+03  1.71896E+04
 -6.48508E+03  1.31948E+04 -1.01122E+04  5.58958E+03 -6.94483E+03 -2.00106E+03 -3.44236E+03 -2.14394E+03
 -6.58790E+02  1.42358E+01 -1.99340E+03  2.23539E+03 -5.88864E+03  2.52119E+03 -8.82963E+03 -2.02670E+03
 -5.16081E+03 -9.33020E+03 -1.52038E+03 -1.52950E+04  9.32004E+03 -1.17728E+04  1.56592E+04 -3.76281E+03
  1.43531E+04  8.20774E+03  5.06763E+03  1.18924E+04 -2.67762E+03  1.33308E+04 -8.16073E+03  7.36080E+03
 -1.23661E+04  2.99022E+02 -1.03871E+04 -8.40162E+03 -1.36955E+03 -1.06262E+04  5.41506E+03 -8.23510E+03
  8.19035E+03 -4.00025E+03  7.36995E+03  2.76067E+03  8.09662E+02  3.74446E+03  1.46137E+03  2.66698E+03
  2.35360E+03  1.98496E+03  1.39093E+03  1.12214E+03  3.36624E+03  4.74751E+03  3.17180E+03  6.77528E+03
 -2.21938E+03  1.06578E+04 -9.91540E+03  1.01329E+04 -1.41614E+04  2.07679E+03 -1.40626E+04 -5.21615E+03
 -6.67967E+03 -1.31177E+04  1.38863E+03 -1.39601E+04  9.06145E+03 -8.56828E+03  1.18668E+04 -2.35593E+03
  8.64651E+03  6.15658E+03  2.28143E+03  8.86700E+03 -4.00185E+03  4.76168E+03 -7.23388E+03 -1.32347E+03
 -2.14233E+03 -6.21593E+03  2.81266E+03 -5.51841E+03  5.58476E+03 -1.61037E+03  5.69645E+03  1.39508E+03
  3.16452E+03  3.70613E+03  1.87208E+03  2.05205E+03  7.76379E+02  2.33167E+03  3.29026E+02 -1.19266E+03
  1.00665E+03 -1.64809E+03  5.39214E+03  3.17278E+03  3.15034E+03  7.33062E+03 -6.03379E+02  8.98575E+03
 -6.56262E+03  5.19644E+03 -8.30886E+03  2.25598E+03 -7.62284E+03 -1.98561E+03 -2.06995E+03 -4.50030E+03
  4.44826E+02 -5.62386E+03  3.35677E+03 -1.97778E+03  2.87701E+03  3.53291E+03 -1.96608E+03  4.48903E+03
 -5.23675E+03  3.24453E+03 -6.83705E+03 -3.14806E+03 -4.68181E+03 -6.69414E+03  1.86194E+03 -7.64262E+03
  3.03363E+03 -4.03914E+03  4.08414E+03  6.26010E+02  4.62164E+03  1.82736E+03  5.37119E+02  4.25285E+03
 -2.98774E+03  1.12512E+03 -4.07889E+03 -3.03586E+03  9.06585E+01 -6.54154E+03  6.63210E+03 -4.49103E+03
  8.19234E+03  1.26009E+03  7.51064E+03  6.70285E+03  1.38794E+03  9.62280E+03 -2.76073E+03  8.48740E+03
 -7.88025E+03  2.01988E+03 -7.70157E+03 -1.44937E+03 -4.08282E+03 -6.83363E+03  3.29397E+03 -5.31005E+03
  5.54270E+03 -2.13590E+03  4.80951E+03  3.18482E+03  9.54042E+02  4.38072E+03 -6.24279E+02  3.94777E+03
 -2.57927E+03  4.75250E+03 -6.84393E+02  2.37715E+03 -1.68782E+03  1.32109E+03 -4.21323E+02  1.98980E+03
 -1.73068E+03  2.63727E+03 -5.93655E+03  2.67256E+03 -8.29319E+03 -1.01075E+03 -1.18740E+04 -6.67534E+03
 -5.30350E+03 -1.25109E+04  2.36225E+03 -1.29424E+04  7.78405E+03 -1.12772E+04  1.24769E+04 -4.03473E+03
  1.21241E+04  2.27590E+03  7.98742E+03  8.24949E+03  7.24748E+02  9.17403E+03 -4.69984E+03  5.70688E+03
 -3.35228E+03  1.89724E+03 -1.76279E+03 -1.99631E+03 -1.38874E+03 -2.12084E+02 -1.92382E+03  2.17940E+02
 -1.95235E+03  8.45694E+02 -1.56805E+03 -5.21953E+02 -8.69562E+02 -3.41158E+03 -1.92165E+03 -3.14732E+03
  3.82466E+03 -2.37543E+03  4.25476E+03 -1.01772E+03  6.54573E+03  4.69445E+03  1.65960E+03  1.00997E+04
 -3.91036E+03  1.06842E+04 -9.32693E+03  6.00529E+03 -1.31848E+04 -1.33166E+02 -7.40046E+03 -6.48478E+03
 -3.83329E+03 -9.70573E+03  2.54590E+03 -7.76835E+03  5.97554E+03 -4.67249E+03  7.70574E+03  3.10822E+02
  3.96835E+03  1.95250E+03  2.56559E+02  8.89152E+02 -1.14833E+03  6.89198E+02 -3.67233E+02 -2.40316E+03
  3.24139E+03 -3.37434E+02  3.28883E+03  7.09071E+02  1.30049E+03  4.36602E+03  3.00302E+02  4.23793E+03
 -3.74808E+03  5.43239E+03 -7.17601E+03  1.51104E+03 -3.91619E+03 -3.65076E+03  2.78347E+02 -7.75407E+03
  5.42876E+03 -6.35859E+03  7.90647E+03 -2.30316E+03  7.41711E+03  1.78770E+03  4.94341E+03  4.21491E+03
  5.97864E+02  5.97732E+03 -1.24418E+03  3.44327E+03 -5.03723E+03  2.23526E+03 -4.18389E+03  8.36585E+02
 -3.38469E+03  5.70852E+02 -1.24920E+03  8.79164E+02 -2.93613E+03  2.46408E+03 -4.21623E+03  5.20773E+02
 -5.15726E+03 -2.44944E+03 -1.83943E+03 -6.79869E+03  3.91198E+03 -6.00194E+03  5.98915E+03 -3.75974E+03
  6.26189E+03  6.08531E+02  3.54012E+03  3.39845E+03  4.44400E+02  5.98392E+03 -4.85027E+03  2.98384E+03
