 $NMID ID='MM_0lb_SNR200_9hz_g50_62.RAW', FMTDAT='(8E13.5)'
 TRAMP=1., VOLUME=1. $END
  3.09582E+05  1.62035E+02  3.37799E+05  2.50958E+05  8.46621E+04  3.39122E+05 -1.32311E+05  2.50519E+05
 -1.90449E+05  8.37978E+04 -1.13419E+05 -3.31335E+04 -2.45049E+02 -4.97974E+04  5.37701E+04  7.13769E+02
  3.23931E+04  5.32096E+04 -1.70205E+04  7.64959E+04 -6.17675E+04  6.50271E+04 -8.64761E+04  3.37856E+04
 -8.20518E+04 -1.01725E+04 -5.84355E+04 -5.29403E+04 -1.44145E+04 -6.97632E+04  2.85949E+04 -4.63668E+04
  4.23791E+04  4.46796E+03  1.72480E+04  4.71876E+04 -3.56563E+04  4.83094E+04 -6.90369E+04  2.75273E+02
 -5.57507E+04 -5.86482E+04 -7.18117E+03 -7.88574E+04  3.45172E+04 -5.78455E+04  4.86985E+04 -1.84434E+04
  4.38985E+04  1.13140E+04  3.31608E+04  2.60863E+04  1.62221E+04  3.10946E+04 -5.50899E+03  2.86232E+04
 -2.08747E+04  1.33186E+04 -1.79354E+04 -5.19786E+03  6.93324E+03 -7.63623E+03  2.35038E+04  1.50012E+04
  6.05301E+03  3.89298E+04 -3.41388E+04  3.68877E+04 -6.42333E+04  1.55434E+03 -6.07265E+04 -4.51877E+04
 -1.26716E+04 -6.61676E+04  4.09501E+04 -4.84857E+04  6.11774E+04 -3.85435E+03  3.58097E+04  3.34299E+04
 -5.42522E+03  4.02190E+04 -3.18313E+04  2.00581E+04 -3.23476E+04 -4.55677E+03 -1.94920E+04 -1.26586E+04
 -8.30915E+03 -1.53218E+04 -9.75732E+02 -1.88148E+04  9.43530E+03 -2.39712E+04  1.50609E+04 -1.30123E+04
  1.02415E+04  7.01777E+03 -1.13452E+04  1.14504E+04 -2.31143E+04 -7.57417E+03 -1.00476E+04 -3.82273E+04
  2.52347E+04 -4.61231E+04  5.15817E+04 -2.13015E+04  4.86046E+04  2.02017E+04  1.69788E+04  4.79226E+04
 -1.65202E+04  3.63816E+04 -2.81957E+04  1.88444E+03 -1.16816E+04 -2.86694E+04  2.20427E+04 -3.65359E+04
  4.35284E+04 -1.14496E+04  4.05444E+04  2.55178E+04  2.18943E+04  5.07093E+04 -7.12864E+03  5.43207E+04
 -3.49793E+04  3.83226E+04 -4.67847E+04  1.07053E+04 -4.73267E+04 -1.84154E+04 -2.55855E+04 -4.21437E+04
  8.05014E+03 -4.01536E+04  3.31050E+04 -1.75757E+04  3.03132E+04  9.48112E+03  4.37453E+03  2.11789E+04
 -1.36807E+04  9.61089E+03 -1.09573E+04 -5.92354E+03  6.26426E+03 -1.14324E+04  1.98923E+04  6.65449E+03
  1.59601E+04  2.17902E+04 -5.39126E+03  2.80159E+04 -2.23322E+04  1.47920E+04 -3.32738E+04 -2.74339E+03
 -2.48372E+04 -1.89073E+04 -1.03101E+04 -2.55378E+04  5.38294E+03 -2.54943E+04  2.01300E+04 -2.07277E+04
  3.30013E+04 -1.54200E+04  3.84903E+04  4.68262E+03  2.55690E+04  2.51041E+04  4.52143E+03  4.02581E+04
 -1.97210E+04  3.36161E+04 -3.20281E+04  1.19146E+04 -2.27084E+04 -1.11165E+04 -4.25918E+03 -1.20081E+04
  2.36897E+03 -6.99474E+02 -8.83692E+03  7.65394E+03 -1.82872E+04  6.38553E+03 -1.88324E+04 -8.99905E+03
 -1.25076E+04 -2.24300E+04  6.25905E+03 -2.87149E+04  1.78206E+04 -1.93029E+04  2.29805E+04 -2.40801E+03
  1.60141E+04  1.72838E+04 -2.06340E+03  2.27000E+04 -1.61789E+04  1.56254E+04 -2.27248E+04 -5.80348E+03
 -1.62256E+04 -2.05642E+04 -2.58894E+03 -2.87222E+04  1.12378E+04 -2.27496E+04  2.25379E+04 -1.15268E+04
  2.04298E+04 -8.70087E+01  1.44392E+04  5.71810E+03  8.77235E+03  1.77576E+03  1.17019E+04 -1.72918E+03
  2.17034E+04  1.24870E+03  2.52149E+04  1.90580E+04  1.63251E+04  3.73215E+04 -3.15354E+03  4.45462E+04
 -2.54935E+04  3.57112E+04 -4.13163E+04  1.97292E+04 -4.56394E+04 -3.43232E+03 -3.66850E+04 -2.65961E+04
 -1.46151E+04 -3.64857E+04  1.35332E+04 -3.25469E+04  2.87647E+04 -1.37411E+04  2.30752E+04  6.56489E+03
  7.03487E+03  1.86944E+04 -1.08227E+04  1.54560E+04 -1.95703E+04  7.81286E+02 -1.44562E+04 -1.31625E+04
 -5.36019E+02 -1.96428E+04  1.17126E+04 -1.45237E+04  1.25738E+04 -7.41910E+02  4.52310E+03  9.13795E+03
 -7.93925E+03  6.16954E+03 -8.37401E+03 -8.34067E+03 -1.93565E+03 -1.81963E+04  1.26068E+04 -1.84594E+04
  2.16734E+04 -1.23322E+04  2.45720E+04  2.69330E+03  2.32873E+04  1.89875E+04  1.06544E+04  2.86481E+04
 -6.92364E+03  3.17996E+04 -2.10696E+04  1.82655E+04 -2.10347E+04  2.67628E+03 -1.53878E+04 -5.89625E+03
 -6.76779E+03 -8.38733E+03 -4.16140E+02 -1.53902E+02 -2.47683E+03  2.24838E+03 -6.91360E+03  5.13001E+03
 -1.45411E+04 -1.94460E+03 -1.33697E+04 -1.14867E+04 -6.35477E+03 -2.03554E+04  6.92027E+03 -1.52987E+04
  1.34042E+04 -8.56749E+03  8.92644E+03  4.64151E+03 -1.92420E+03  5.14443E+03 -7.90083E+03 -3.47414E+02
 -7.07598E+03 -1.02222E+04 -1.76794E+03 -1.48302E+04  9.47085E+03 -1.43239E+04  1.88284E+04 -9.60235E+03
  2.25489E+04  2.05386E+03  1.78437E+04  1.32483E+04  2.31167E+03  1.99974E+04 -9.29215E+03  1.47023E+04
 -1.33273E+04  2.91093E+03 -7.67417E+03 -3.55620E+03  2.96171E+03 -3.75495E+03  7.46496E+03 -1.46908E+03
  6.93266E+03  5.85144E+03  9.24652E+02  1.30132E+04 -9.63649E+03  9.84742E+03 -1.60026E+04  4.24681E+03
 -1.07071E+04 -7.61208E+03 -5.85153E+02 -1.49505E+04  1.04385E+04 -7.87505E+03  8.18201E+03  2.90506E+03
  2.63964E+03  1.09972E+04 -1.00062E+04  1.30396E+04 -1.40120E+04  5.78576E+03 -1.60231E+04 -4.29076E+03
 -8.54494E+03 -1.50509E+04  4.77483E+03 -1.80245E+04  1.35039E+04 -9.78377E+03  1.54118E+04  3.26424E+03
  1.06494E+04  1.33313E+04 -1.66349E+03  1.51196E+04 -1.16280E+04  7.20551E+03 -1.24165E+04 -6.39694E+02
 -1.12315E+04 -1.05821E+04  4.28855E+02 -1.19609E+04  6.50002E+03 -9.25705E+03  8.54194E+03 -4.17198E+03
  4.07434E+03  2.45320E+03 -1.38094E+03  2.43629E+03 -2.44186E+02 -4.40290E+03  2.60790E+03 -8.13178E+03
  1.17025E+04 -5.13800E+03  1.62273E+04  1.58368E+03  1.57617E+04  1.20255E+04  9.68670E+03  2.09146E+04
 -5.92338E+03  2.43535E+04 -1.88573E+04  1.78731E+04 -2.49880E+04  3.61919E+03 -1.97504E+04 -1.01161E+04
 -9.88627E+03 -1.69899E+04  9.67488E+02 -1.64868E+04  3.56420E+03 -8.95974E+03  5.43292E+03 -5.68700E+03
  4.62657E+03 -3.59960E+03  2.45944E+03 -4.34962E+03  7.22840E+03 -4.97634E+03  9.60193E+03 -7.47010E+02
  1.09702E+04  1.60079E+03  5.12098E+03  8.52411E+03 -8.67034E+02  1.17005E+04 -1.25814E+04  8.71534E+03
 -1.50049E+04 -2.68889E+03 -8.84871E+03 -9.16083E+03 -2.74914E+02 -1.67446E+04  9.12767E+03 -1.66573E+04
  1.53384E+04 -8.94911E+03  2.03577E+04  3.73008E+03  1.26734E+04  1.40941E+04  2.57421E+03  1.82059E+04
 -5.66648E+03  1.44249E+04 -1.02959E+04  5.14822E+03 -5.70823E+03 -3.52166E+02 -2.54415E+03 -1.90772E+03
 -1.01603E+03 -6.35845E+02 -6.35969E+02  2.32921E+03 -5.79260E+03  3.17908E+03 -9.72245E+03 -5.55956E+02
 -6.77641E+03 -1.05694E+04 -9.36337E+02 -1.36975E+04  9.12559E+03 -1.36416E+04  1.48483E+04 -3.19138E+03
  1.37689E+04  6.94846E+03  8.33964E+03  1.19036E+04 -2.08208E+03  1.47865E+04 -9.61929E+03  7.76271E+03
 -1.50336E+04  6.00360E+02 -8.92236E+03 -8.08897E+03 -7.50520E+02 -1.31200E+04  6.69097E+03 -9.64427E+03
  9.03399E+03 -3.44554E+03  7.00967E+03  3.55043E+03  2.34984E+03  4.91170E+03  2.09540E+03  2.75205E+03
  3.02713E+03  1.01960E+03  4.22749E+03  2.38751E+03  4.31080E+03  4.20467E+03  3.71482E+03  8.96746E+03
 -3.50415E+03  1.11955E+04 -1.04147E+04  1.35615E+04 -1.62021E+04  1.69212E+03 -1.61122E+04 -6.04790E+03
 -9.31634E+03 -1.47983E+04  1.84027E+03 -1.71515E+04  8.81448E+03 -9.40864E+03  1.27037E+04 -3.02790E+03
  8.82560E+03  4.94375E+03  3.97973E+03  8.84522E+03 -4.38495E+03  4.93889E+03 -3.86018E+03 -6.18723E+02
 -2.16534E+03 -5.62290E+03  3.68960E+03 -7.58696E+03  6.35776E+03 -2.42286E+03  5.45766E+03  2.39588E+03
  3.14404E+03  3.89562E+03  8.88822E+02  2.26820E+03 -1.82878E+03  1.92511E+03  1.48787E+03  4.42068E+01
  2.77047E+03 -1.16332E+03  5.98992E+03  2.58784E+03  4.27419E+03  7.89626E+03 -1.22088E+03  1.10514E+04
 -7.46135E+03  7.92851E+03 -8.77581E+03  2.42870E+03 -8.50437E+03 -2.42811E+03 -3.33284E+03 -6.47973E+03
  1.30864E+03 -5.28332E+03  4.97226E+03 -1.65801E+03  2.95226E+03  3.79586E+03 -1.34916E+03  6.48982E+03
 -6.51980E+03  2.52066E+03 -7.08433E+03 -3.19690E+03 -1.92024E+03 -7.49082E+03  2.58327E+02 -8.77772E+03
  5.85690E+03 -4.06733E+03  5.89769E+03  6.46367E+02  4.98355E+03  2.95420E+03  1.14234E+02  5.54612E+03
 -1.51967E+03 -9.65122E+02 -3.64746E+03 -4.05964E+03  9.43755E+02 -7.18954E+03  7.52440E+03 -4.77905E+03
  1.05066E+04  2.02663E+03  9.62285E+03  5.13308E+03  2.44971E+03  9.38199E+03 -2.46524E+03  1.05789E+04
 -7.85822E+03  5.56045E+03 -8.92403E+03 -9.74073E+02 -4.81587E+03 -7.52957E+03  1.17450E+03 -6.57471E+03
  6.04668E+03 -1.79877E+03  3.87215E+03  3.97103E+03  8.61622E+02  4.21766E+03 -1.52988E+03  4.43159E+03
 -3.07349E+03  3.51192E+03 -2.66736E+03  3.10654E+03 -3.66727E+01  1.08732E+03 -7.29135E+02  2.65622E+03
 -3.12673E+03  4.25601E+03 -6.58988E+03  3.79412E+03 -9.38099E+03  9.05166E+02 -1.15902E+04 -5.89549E+03
 -6.39144E+03 -1.27977E+04  2.16850E+03 -1.69835E+04  9.03032E+03 -1.36807E+04  1.50388E+04 -3.67287E+03
  1.29670E+04  2.73977E+03  8.23355E+03  9.26999E+03  1.76167E+03  1.11504E+04 -4.23719E+03  7.86461E+03
 -4.66033E+03  2.82066E+03 -4.10603E+03 -3.19242E+03 -1.83284E+03 -1.34924E+03 -1.02126E+03  4.73823E+02
 -1.09752E+03  2.37595E+02 -4.42012E+03 -2.24159E+03 -1.28972E+03 -2.62976E+03  1.15771E+03 -4.84100E+03
  4.60421E+03 -3.43728E+03  6.75095E+03  1.79478E+03  7.51745E+03  5.52761E+03  3.34653E+03  1.04525E+04
 -5.66588E+03  1.22595E+04 -1.14458E+04  8.47369E+03 -1.26984E+04  3.01787E+02 -1.03304E+04 -7.68623E+03
 -4.08753E+03 -1.17728E+04  1.07164E+03 -1.18285E+04  7.99600E+03 -5.39498E+03  6.99308E+03  2.75240E+02
  3.01220E+03  4.53139E+03  3.31965E+02  3.59794E+03 -2.52370E+03 -6.07701E+02 -8.09922E+02 -2.42948E+03
  4.36750E+03 -2.11852E+03  4.69560E+03  2.12288E+03  2.61846E+03  3.83387E+03 -6.93426E+02  6.14398E+03
 -3.80870E+03  3.99637E+03 -5.53095E+03 -1.79666E+02 -6.10023E+03 -2.91556E+03 -5.50847E+02 -8.35019E+03
  5.14628E+03 -6.96246E+03  7.40571E+03 -1.84917E+03  6.86126E+03  2.01172E+03  5.42145E+03  5.43657E+03
  5.82363E+02  6.25597E+03 -3.14561E+03  5.86397E+03 -5.26918E+03  3.42591E+03 -4.65991E+03  1.15360E+03
 -1.20781E+03  1.00286E+03 -1.96789E+03  2.17982E+03 -3.54584E+03  1.25520E+02 -4.96558E+03 -1.32143E+02
 -5.12290E+03 -4.37317E+03 -1.71252E+03 -7.16953E+03  3.75115E+03 -9.64028E+03  6.87340E+03 -2.95688E+03
  8.50370E+03 -1.86383E+02  2.07363E+03  5.35679E+03 -1.52320E+02  8.53675E+03 -6.73340E+03  4.56027E+03
