 $NMID ID='MM_0lb_SNR200_10hz_g40_82.RAW', FMTDAT='(8E13.5)'
 TRAMP=1., VOLUME=1. $END
  3.10151E+05  4.43125E+01  3.38693E+05  2.51951E+05  8.39359E+04  3.38160E+05 -1.32209E+05  2.51604E+05
 -1.90432E+05  8.26143E+04 -1.13834E+05 -3.15734E+04  5.56683E+02 -4.94819E+04  5.32771E+04 -1.63650E+02
  3.44025E+04  5.30046E+04 -1.74158E+04  7.71278E+04 -6.21291E+04  6.46216E+04 -8.40557E+04  3.18641E+04
 -8.12518E+04 -1.08711E+04 -5.76464E+04 -5.16803E+04 -1.62445E+04 -6.98578E+04  2.67233E+04 -4.67356E+04
  4.06014E+04  5.07609E+03  1.55522E+04  4.99741E+04 -3.51849E+04  4.65637E+04 -6.78988E+04 -9.68111E+02
 -5.35100E+04 -5.76486E+04 -7.12882E+03 -7.61898E+04  3.31675E+04 -5.65051E+04  4.95094E+04 -1.61265E+04
  4.45853E+04  1.13160E+04  3.42290E+04  2.54527E+04  1.48564E+04  3.18016E+04 -6.11412E+03  2.69634E+04
 -2.36872E+04  1.33403E+04 -1.90559E+04 -5.75040E+03  6.73105E+03 -7.68985E+03  2.33483E+04  1.30004E+04
  5.85772E+03  3.69841E+04 -3.40349E+04  3.74099E+04 -6.57877E+04  2.93742E+03 -5.71282E+04 -4.42567E+04
 -1.21781E+04 -6.58020E+04  3.87919E+04 -4.62679E+04  5.99768E+04 -2.06397E+03  3.49800E+04  3.34437E+04
 -5.23439E+03  3.82237E+04 -3.05688E+04  1.76836E+04 -3.15646E+04 -4.36681E+03 -1.86602E+04 -1.07129E+04
 -7.85545E+03 -1.52468E+04  3.24416E+02 -2.00316E+04  7.21313E+03 -2.34119E+04  1.43930E+04 -1.26795E+04
  1.08031E+04  6.00787E+03 -8.85389E+03  1.22057E+04 -2.30391E+04 -7.11856E+03 -7.50073E+03 -3.53295E+04
  2.41178E+04 -4.72767E+04  4.99827E+04 -2.15571E+04  4.63713E+04  1.98436E+04  1.48757E+04  4.46667E+04
 -1.65989E+04  3.36794E+04 -2.59326E+04  2.99341E+03 -1.06463E+04 -2.92405E+04  2.05538E+04 -3.56331E+04
  4.29712E+04 -1.15042E+04  3.71436E+04  2.40628E+04  1.87805E+04  4.93313E+04 -6.50944E+03  5.36345E+04
 -3.28912E+04  3.61070E+04 -4.44377E+04  1.05922E+04 -4.63562E+04 -1.74713E+04 -2.52657E+04 -4.08677E+04
  8.36041E+03 -3.96926E+04  3.32892E+04 -1.55961E+04  3.13042E+04  8.68227E+03  4.96475E+03  2.13736E+04
 -1.34612E+04  9.88991E+03 -1.03849E+04 -7.29715E+03  6.71896E+03 -1.13442E+04  1.91265E+04  6.40650E+03
  1.40193E+04  2.31122E+04 -5.16593E+03  2.64281E+04 -2.28124E+04  1.26529E+04 -3.11626E+04 -3.24778E+03
 -2.25270E+04 -1.79953E+04 -1.12179E+04 -2.27976E+04  4.63250E+03 -2.30293E+04  1.80645E+04 -2.12999E+04
  2.95518E+04 -1.39840E+04  3.59549E+04  3.67065E+03  2.68233E+04  2.24153E+04  4.52147E+03  3.99376E+04
 -1.90479E+04  3.27572E+04 -3.11685E+04  1.15311E+04 -2.22187E+04 -9.81243E+03 -5.51681E+03 -1.35977E+04
  8.81801E+02 -1.33418E+03 -6.51113E+03  7.99576E+03 -1.87373E+04  5.31717E+03 -1.88410E+04 -8.70170E+03
 -1.06567E+04 -2.19221E+04  4.34186E+03 -2.69454E+04  1.76791E+04 -1.76726E+04  2.10803E+04 -1.42212E+03
  1.45261E+04  1.50581E+04 -5.55551E+02  2.31679E+04 -1.48442E+04  1.32395E+04 -2.14063E+04 -5.13932E+03
 -1.52566E+04 -1.93241E+04 -1.87888E+03 -2.61253E+04  1.19551E+04 -2.11595E+04  2.10817E+04 -1.03966E+04
  2.04787E+04 -5.28946E+02  1.42776E+04  3.95582E+03  8.88777E+03  1.47284E+03  1.11053E+04 -1.64675E+03
  2.08203E+04  3.57553E+03  2.39968E+04  1.75131E+04  1.52846E+04  3.43748E+04 -2.61484E+03  3.92633E+04
 -2.25091E+04  3.26044E+04 -3.77732E+04  1.67686E+04 -3.99443E+04 -3.61150E+03 -3.23860E+04 -2.46106E+04
 -1.28722E+04 -3.34502E+04  1.07324E+04 -2.76881E+04  2.49321E+04 -1.42630E+04  2.40520E+04  5.98227E+03
  9.09186E+03  1.72757E+04 -1.06555E+04  1.34227E+04 -1.91329E+04  1.41470E+03 -1.52689E+04 -1.06930E+04
  4.72209E+02 -1.89895E+04  9.67183E+03 -1.23856E+04  1.16426E+04 -2.19020E+03  2.02271E+03  7.26508E+03
 -7.50166E+03  2.96771E+03 -7.92473E+03 -5.83528E+03 -2.52926E+03 -1.57645E+04  1.13333E+04 -1.65022E+04
  2.16975E+04 -1.06196E+04  2.39406E+04  1.63481E+03  1.98363E+04  1.47552E+04  8.75598E+03  2.52914E+04
 -3.59544E+03  2.75423E+04 -1.86621E+04  1.66544E+04 -2.04773E+04  4.31805E+03 -1.43600E+04 -4.75494E+03
 -5.73910E+03 -7.22575E+03  4.64055E+02 -6.21303E+02 -3.24222E+03  2.77083E+03 -5.85161E+03  5.25241E+03
 -1.29271E+04 -1.75596E+03 -1.27642E+04 -1.02301E+04 -5.50379E+03 -1.74999E+04  6.13221E+03 -1.47533E+04
  1.22965E+04 -5.04475E+03  7.51055E+03  4.34124E+03 -1.33765E+03  6.19028E+03 -7.46556E+03  2.19043E+02
 -6.37755E+03 -8.88112E+03  9.43845E+01 -1.37521E+04  8.54138E+03 -1.55002E+04  1.69910E+04 -8.93790E+03
  2.00583E+04  1.86563E+03  1.56685E+04  1.21663E+04  3.81589E+03  1.51528E+04 -8.17069E+03  1.29821E+04
 -1.11221E+04  4.11255E+03 -6.41746E+03 -3.48500E+03  1.35114E+03 -4.53593E+03  6.06486E+03  3.52765E+02
  6.46985E+03  6.96276E+03  1.08577E+03  1.09533E+04 -7.60504E+03  1.14719E+04 -1.31771E+04  2.95888E+03
 -8.80867E+03 -8.45454E+03  3.82740E+02 -1.09902E+04  8.94342E+03 -6.58724E+03  7.57035E+03  3.14385E+03
  1.39488E+03  1.01123E+04 -6.40571E+03  1.15580E+04 -1.16172E+04  4.55047E+03 -1.16003E+04 -2.73192E+03
 -6.40205E+03 -1.38011E+04  2.53787E+03 -1.68132E+04  1.40404E+04 -8.95017E+03  1.35045E+04  2.43938E+03
  1.02742E+04  1.18255E+04 -1.27479E+03  1.46410E+04 -8.02083E+03  8.11981E+03 -1.05674E+04 -4.13013E+02
 -1.01701E+04 -9.40173E+03 -2.93136E+02 -1.12091E+04  6.47501E+03 -8.16407E+03  6.59495E+03 -4.22976E+03
  4.80988E+03  2.15990E+03  3.08907E+01  1.33444E+03 -5.02904E+02 -1.89080E+03  1.53066E+03 -5.78616E+03
  9.79338E+03 -5.10616E+03  1.36864E+04  1.65932E+03  1.19484E+04  9.14109E+03  9.18224E+03  1.66905E+04
 -4.39631E+03  2.19457E+04 -1.64265E+04  1.52600E+04 -2.27978E+04  3.27676E+03 -1.67672E+04 -9.02986E+03
 -7.93004E+03 -1.52218E+04 -8.80274E+02 -1.40384E+04  4.60997E+03 -6.43214E+03  4.28207E+03 -3.94449E+03
  2.94733E+03 -1.69712E+03  5.94506E+03 -3.87805E+03  5.99043E+03 -3.70809E+03  7.64705E+03 -4.42138E+02
  8.47076E+03  2.38066E+03  3.10919E+03  7.49629E+03 -2.24682E+03  8.80284E+03 -1.13147E+04  7.46333E+03
 -1.31379E+04 -7.37782E+02 -7.09988E+03 -7.76468E+03 -5.55917E+02 -1.36329E+04  7.09124E+03 -1.40611E+04
  1.28981E+04 -6.46720E+03  1.74062E+04  1.52558E+03  1.04887E+04  1.16735E+04  1.91236E+03  1.57198E+04
 -5.73947E+03  1.27336E+04 -7.94813E+03  3.16013E+03 -6.22665E+03 -3.44946E+03 -2.21243E+03 -2.81299E+03
 -1.26390E+03 -7.11591E+02 -1.30279E+03  2.50923E+03 -5.89025E+03  1.43244E+03 -8.29490E+03 -1.22736E+03
 -5.28378E+03 -9.94266E+03 -5.73093E+02 -1.30245E+04  8.51261E+03 -1.22668E+04  1.29741E+04 -3.22684E+03
  1.19055E+04  6.48629E+03  4.19055E+03  9.64902E+03 -1.13334E+03  1.23752E+04 -8.63377E+03  7.49764E+03
 -1.04270E+04 -6.83773E+02 -9.90779E+03 -6.27577E+03 -1.87461E+03 -9.78542E+03  4.69917E+03 -7.67654E+03
  6.49693E+03 -1.42423E+03  4.43422E+03  1.17935E+03  1.40481E+03  2.46197E+03  1.01225E+03  2.54892E+03
  2.76034E+03  1.78649E+03  3.00882E+03  1.54556E+03  5.01787E+03  3.66086E+03  4.21991E+03  6.57166E+03
 -3.14024E+03  8.43844E+03 -8.49956E+03  9.16348E+03 -1.32837E+04  2.67246E+03 -1.25718E+04 -5.80254E+03
 -6.12754E+03 -1.23848E+04  2.71136E+03 -1.42996E+04  6.80270E+03 -9.97576E+03  1.07574E+04 -2.42080E+03
  6.58952E+03  4.73723E+03  3.42932E+03  7.87923E+03 -2.89798E+03  4.90642E+03 -5.93057E+03 -1.74673E+03
 -3.61874E+03 -5.00371E+03  4.52725E+03 -5.55855E+03  5.28953E+03 -2.67268E+03  4.56660E+03  7.63017E+02
  2.86338E+03  3.71262E+03  1.53677E+03  1.87809E+03  2.17176E+02  1.13115E+03  1.61801E+03 -1.21173E+03
  2.71660E+03 -7.99086E+02  5.32347E+03  1.80297E+03  3.16045E+03  6.54533E+03 -1.56596E+02  8.19633E+03
 -3.92824E+03  6.50008E+03 -8.29333E+03  9.11944E+02 -7.55161E+03 -1.50405E+03 -1.43085E+03 -5.34144E+03
  5.89455E+02 -3.79748E+03  3.07330E+03 -1.75974E+03  3.94481E+03  4.10653E+03 -3.26940E+02  4.16311E+03
 -4.82165E+03  2.12407E+03 -5.66113E+03 -2.76088E+03 -1.97486E+03 -7.23350E+03  3.55056E+02 -7.10104E+03
  3.66061E+03 -2.56085E+03  4.80315E+03 -3.84017E+02  2.94164E+03  3.23758E+03  2.68708E+02  3.72330E+03
 -1.01507E+03  1.80017E+03 -1.85755E+03 -2.19587E+03  1.72974E+03 -4.36234E+03  6.06831E+03 -4.24805E+03
  7.71547E+03 -4.29545E+01  7.73198E+03  5.83848E+03  2.65133E+03  7.92804E+03 -1.72841E+03  7.84089E+03
 -6.11651E+03  1.28108E+03 -8.05229E+03 -1.89049E+03 -4.85689E+03 -4.40216E+03  1.48963E+03 -5.38844E+03
  4.29382E+03 -3.50399E+03  5.81879E+03  2.14570E+03  2.53803E+03  3.91570E+03 -1.05038E+03  3.33986E+03
 -1.31978E+03  2.11647E+03 -1.21008E+03  6.88567E+02 -1.27362E+03  1.11422E+03 -3.34381E+03  1.72697E+03
 -2.53168E+03  1.31090E+03 -5.41371E+03  3.50487E+03 -7.71857E+03  4.52176E+02 -8.84582E+03 -4.11531E+03
 -3.89258E+03 -1.25032E+04  1.64544E+03 -1.34940E+04  6.68504E+03 -6.60196E+03  9.34163E+03 -2.61657E+03
  1.12053E+04  2.34455E+03  7.06333E+03  8.95024E+03  1.76236E+02  8.34473E+03 -3.82203E+03  6.27759E+03
 -5.55129E+03  2.02397E+03 -2.87474E+03  2.65451E+02 -1.17832E+01 -1.67523E+03  4.75428E+01 -2.10722E+03
 -2.54899E+03 -8.18551E+02 -3.28742E+03  1.14172E+03 -2.65129E+02 -1.72992E+03 -9.42190E+02 -2.06695E+03
  4.24289E+03 -3.77574E+03  4.81533E+03  1.24548E+03  6.27425E+03  4.49033E+03  7.60455E+02  8.43020E+03
 -5.80286E+03  1.01508E+04 -9.40560E+03  5.16650E+03 -9.81425E+03 -6.88478E+02 -7.59917E+03 -6.69831E+03
 -3.75431E+03 -8.90832E+03  1.35851E+03 -6.79537E+03  4.22757E+03 -4.62924E+03  5.45078E+03  3.09058E+02
  1.73954E+03  4.24345E+03  1.15903E+03  1.15002E+03 -1.87223E+03  3.38680E+01  3.02434E+02 -1.47655E+03
  3.13568E+03 -1.38808E+03  2.17503E+03  1.03489E+03  1.28729E+03  3.13731E+03 -3.14560E+02  5.52971E+03
 -1.88183E+03  2.26551E+03 -5.60741E+03 -1.21272E+02 -5.65820E+03 -3.96767E+03 -1.00940E+03 -6.13188E+03
  3.74833E+03 -5.32818E+03  6.89769E+03 -1.69864E+03  6.48446E+03  6.09075E+02  3.39933E+03  5.90880E+03
  5.34544E+02  5.63188E+03 -1.53747E+03  2.68220E+03 -4.91341E+03  3.52187E+03 -3.44276E+03  1.20674E+03
 -1.31758E+03 -1.58119E+02 -1.24517E+03  9.35677E+02 -4.38816E+03  8.53245E+02 -4.53702E+03  2.56340E+02
 -4.84448E+03 -1.50833E+03 -1.44684E+03 -4.52024E+03  2.30142E+03 -6.92198E+03  5.51496E+03 -2.35188E+03
  6.44889E+03  1.04997E+03  1.54433E+03  3.88204E+03  5.27406E+02  5.01007E+03 -3.56117E+03  3.69189E+03
