 $NMID ID='MM_0lb_SNR200_20hz_g60_49.RAW', FMTDAT='(8E13.5)'
 TRAMP=1., VOLUME=1. $END
  3.09907E+05 -1.50721E+01  3.37523E+05  2.51625E+05  8.52078E+04  3.37995E+05 -1.31823E+05  2.51064E+05
 -1.90436E+05  8.23937E+04 -1.10977E+05 -3.28473E+04  1.19654E+03 -5.03691E+04  5.45058E+04  5.69827E+02
  3.49509E+04  5.25135E+04 -1.74585E+04  7.53661E+04 -6.08389E+04  6.35581E+04 -8.19465E+04  3.18912E+04
 -7.94383E+04 -1.03440E+04 -5.71994E+04 -5.06767E+04 -1.47693E+04 -6.83796E+04  2.75270E+04 -4.47928E+04
  3.93590E+04  3.98748E+03  1.57002E+04  4.76058E+04 -3.49075E+04  4.66223E+04 -6.55225E+04 -1.10810E+03
 -5.22072E+04 -5.54602E+04 -6.45620E+03 -7.61802E+04  3.31400E+04 -5.32191E+04  4.73598E+04 -1.64672E+04
  4.26057E+04  1.11957E+04  3.06751E+04  2.49381E+04  1.56521E+04  2.83267E+04 -4.82072E+03  2.62058E+04
 -2.15878E+04  1.39973E+04 -1.83832E+04 -4.18613E+03  4.89110E+03 -7.09873E+03  2.08471E+04  1.16740E+04
  7.22435E+03  3.34812E+04 -3.18506E+04  3.43129E+04 -6.17718E+04  3.08754E+03 -5.51596E+04 -4.15898E+04
 -1.15756E+04 -6.25849E+04  3.76782E+04 -4.45794E+04  5.58650E+04 -2.14234E+03  3.28107E+04  3.02055E+04
 -5.70212E+03  3.33022E+04 -2.82686E+04  1.41220E+04 -2.93754E+04 -4.62259E+03 -1.61580E+04 -9.59206E+03
 -7.34496E+03 -1.18030E+04 -1.07591E+03 -1.72462E+04  6.27726E+03 -2.26216E+04  1.51237E+04 -1.39517E+04
  1.13927E+04  3.16783E+03 -7.63354E+03  1.34771E+04 -1.84872E+04 -3.22743E+03 -7.62420E+03 -3.05924E+04
  2.12108E+04 -4.07288E+04  4.48938E+04 -1.92793E+04  4.17429E+04  1.83308E+04  1.31787E+04  4.17701E+04
 -1.50007E+04  3.29579E+04 -2.39838E+04  1.09412E+03 -8.65744E+03 -2.66039E+04  2.05410E+04 -3.19974E+04
  3.85837E+04 -8.21324E+03  3.23562E+04  2.25816E+04  1.58967E+04  4.30311E+04 -6.77425E+03  4.61838E+04
 -2.96986E+04  2.98690E+04 -3.79172E+04  9.67433E+03 -3.99274E+04 -1.49912E+04 -2.22338E+04 -3.56706E+04
  6.12507E+03 -3.51895E+04  2.96299E+04 -1.35713E+04  2.66332E+04  1.03858E+04  3.22121E+03  1.80456E+04
 -1.23398E+04  7.40415E+03 -1.04743E+04 -7.76025E+03  6.88739E+03 -1.07502E+04  1.77326E+04  7.34009E+03
  1.27164E+04  2.12540E+04 -6.80252E+03  2.37679E+04 -2.25078E+04  9.88898E+03 -2.45981E+04 -6.52815E+03
 -1.70281E+04 -1.68245E+04 -5.30896E+03 -1.70363E+04  4.18309E+03 -1.55284E+04  1.32929E+04 -1.48875E+04
  2.22420E+04 -1.16988E+04  2.90035E+04  1.13132E+02  2.17470E+04  1.74535E+04  4.45363E+03  3.28078E+04
 -1.68376E+04  2.74258E+04 -2.65416E+04  8.42359E+03 -2.02713E+04 -1.11001E+04 -3.70646E+03 -1.40049E+04
  2.87414E+03 -3.80623E+03 -3.34257E+03  5.98885E+03 -1.27330E+04  5.36132E+03 -1.38112E+04 -5.69475E+03
 -9.22629E+03 -1.45749E+04  5.10134E+03 -1.91037E+04  1.17797E+04 -1.38049E+04  1.55583E+04 -1.28634E+03
  8.80740E+03  9.73629E+03 -9.30196E+02  1.58360E+04 -1.03313E+04  9.38219E+03 -1.54142E+04 -4.27742E+03
 -1.22037E+04 -1.49678E+04 -1.07967E+03 -1.93851E+04  8.15841E+03 -1.52246E+04  1.67962E+04 -7.17664E+03
  1.47653E+04  8.27020E+02  1.12536E+04  2.96462E+03  4.99705E+03  9.12437E+02  8.69052E+03 -1.68491E+03
  1.39246E+04  2.86255E+03  1.52452E+04  1.35645E+04  8.31455E+03  2.45939E+04 -3.67822E+03  2.73723E+04
 -1.58529E+04  2.06176E+04 -2.56455E+04  9.58068E+03 -2.56712E+04 -1.90181E+03 -2.19113E+04 -1.50721E+04
 -1.03318E+04 -2.08820E+04  7.77397E+03 -1.98850E+04  1.72517E+04 -1.09768E+04  1.61070E+04  3.80244E+03
  6.20217E+03  1.13568E+04 -7.38955E+03  1.03129E+04 -1.31689E+04  2.22520E+03 -1.04668E+04 -8.71146E+03
  2.11996E+02 -1.26051E+04  6.84598E+03 -9.58429E+03  7.76636E+03 -1.37001E+03  1.34421E+03  5.68959E+03
 -5.80517E+03  2.39621E+03 -4.19641E+03 -4.05555E+03  3.37666E+02 -1.10014E+04  8.13736E+03 -9.59977E+03
  1.24173E+04 -4.37426E+03  1.15328E+04  3.42747E+03  1.02513E+04  9.48964E+03  5.48720E+03  1.36166E+04
 -1.57895E+03  1.55361E+04 -8.94551E+03  1.00059E+04 -1.04696E+04  2.17288E+03 -7.91215E+03 -2.69244E+03
 -4.41363E+03 -2.82858E+03 -3.87777E+02  2.01781E+03 -1.39248E+03  2.34947E+03 -3.22840E+03  3.39009E+03
 -7.31085E+03 -1.49848E+02 -9.15743E+03 -6.85721E+03 -3.89882E+03 -1.11851E+04  3.03143E+03 -6.92956E+03
  7.22324E+03 -3.68646E+03  5.24394E+03  1.32722E+03  1.24423E+03  2.80828E+03 -3.48828E+03 -9.78202E+02
 -3.10756E+03 -5.52562E+03 -7.19137E+02 -6.63881E+03  5.13264E+03 -7.70649E+03  9.80039E+03 -5.17271E+03
  1.14232E+04  5.48788E+02  8.35689E+03  5.40527E+03  1.44434E+03  7.65556E+03 -5.68994E+03  8.81744E+03
 -6.10462E+03  3.16943E+03 -2.38844E+03 -1.79269E+03  1.64601E+03 -1.26658E+03  5.00393E+03 -1.92589E+03
  3.99076E+03  3.27336E+03  1.31257E+03  6.16047E+03 -5.08317E+03  5.79497E+03 -8.36111E+03  2.87916E+03
 -3.77194E+03 -3.14848E+03  9.56104E+02 -6.52187E+03  2.94332E+03 -2.72946E+03  2.74350E+03  1.12021E+03
 -8.78132E+01  2.15867E+03 -4.25037E+03  4.41565E+03 -4.08855E+03  3.69505E+03 -4.84832E+03 -8.10772E+02
 -2.46487E+03 -5.93845E+03  1.15699E+03 -7.38083E+03  5.23728E+03 -3.68638E+03  5.76463E+03  5.44590E+02
  5.26773E+03  5.83235E+03 -2.69094E+02  6.35981E+03 -5.47868E+03  3.89831E+03 -5.69183E+03 -1.22006E+03
 -6.03803E+03 -4.79625E+03 -7.30049E+02 -4.94012E+03  2.76146E+03 -3.52048E+03  3.08946E+03 -1.86838E+03
  3.20241E+03  4.06034E+02  7.51146E+02  4.73589E+02  5.41581E+02  4.66077E+02 -1.51406E+02 -1.41409E+03
  3.96151E+03 -2.12650E+02  4.76779E+03  1.37045E+03  4.36431E+03  1.72869E+03  5.50327E+03  6.88330E+03
 -1.65857E+03  7.81196E+03 -7.60014E+03  6.52768E+03 -9.16621E+03  1.98501E+03 -6.93969E+03 -1.73083E+03
 -2.54763E+03 -6.14130E+03  2.89531E+02 -4.47184E+03  2.54356E+03 -1.80953E+03  1.76087E+03 -1.83416E+03
  1.65535E+03 -1.39773E+03  2.72217E+03 -3.62301E+03  2.98711E+03 -9.88886E+02  3.34736E+03  9.11469E+02
  4.63663E+03  1.07558E+03  8.92033E+02  3.44336E+03 -9.25334E+02  1.71881E+03 -4.08238E+03  2.15955E+03
 -4.57201E+03 -1.28515E+03 -1.20858E+03 -3.39442E+03 -2.92353E+02 -5.07904E+03  3.02462E+03 -4.60617E+03
  3.89276E+03 -3.27408E+03  5.97578E+03 -7.30298E+02  5.03265E+03  3.41375E+03  1.42434E+03  3.65611E+03
 -1.65959E+03  4.41362E+03 -3.31866E+03  2.71095E+03 -1.28251E+03 -1.09601E+03 -5.48779E+02 -1.15640E+03
 -9.88562E+02  4.32669E+02 -1.00780E+03  1.64785E+03 -2.29487E+03  2.06065E+03 -3.99754E+03 -8.96625E+02
 -2.12893E+03 -2.68510E+03  1.19018E+03 -3.94561E+03  1.57379E+03 -3.65324E+03  3.46567E+03 -1.98051E+03
  3.71345E+03  2.55132E+03  7.77945E+02  2.49062E+03  3.63845E+01  4.04975E+03 -2.31731E+03  1.23135E+03
 -3.64493E+03 -4.77147E+02 -3.04273E+03 -1.74471E+03 -1.24074E+02 -2.61399E+03  2.86519E+03 -1.92107E+03
  2.21918E+03 -7.92307E+02  2.36043E+03  7.19207E+01 -8.42185E+02  1.42466E+03  1.37712E+03  8.84952E+01
  1.17590E+03  9.66476E+02  1.21957E+03  1.10276E+03  1.01509E+03  2.54643E+03  1.39317E+03  1.77889E+03
 -1.25824E+03  1.89206E+03 -9.91980E+02  3.29662E+03 -2.56717E+03  1.70517E+03 -3.89530E+03  7.43414E+02
 -1.35551E+03 -3.30055E+03  8.31148E+02 -4.31565E+03  1.20723E+03 -2.87776E+03  2.47154E+03  6.44565E+02
  1.42641E+03  7.08590E+02  4.34884E+02  1.89642E+03  3.10605E+02 -5.91134E+02 -1.30303E+03 -5.39932E+02
 -1.04455E+03 -1.15362E+03  2.52178E+03 -9.74091E+02  1.16474E+03 -8.77797E+02  1.73153E+03  3.15099E+01
  5.34313E+02 -1.97812E+02  1.03350E+03 -1.31764E+03 -7.48112E+02  6.37127E+02  1.04584E+03 -1.30351E+03
 -6.84553E+02 -6.98390E+02  1.71237E+03  1.71348E+02 -8.43683E+01  1.29042E+03 -1.27066E+03  1.92655E+03
 -1.85445E+03  5.72969E+02 -2.33191E+03 -7.05990E+02 -6.07734E+02  7.65619E+02 -2.61706E+02 -1.98012E+02
 -6.20903E+02 -1.60130E+02  1.64403E+02 -1.07670E+03  4.73230E+02  4.10353E+02 -9.20322E+02  1.07196E+03
 -1.00066E+03  1.27190E+03 -4.63099E+02 -7.63203E+02  1.86566E+02 -2.74612E+03  7.43689E+02 -8.60340E+02
  4.30380E+02 -6.07826E+02 -6.61712E+02  4.72138E+02  1.73834E+03  8.23531E+02  3.67851E+02  1.08855E+03
 -6.42811E+02  6.17873E+02 -6.53362E+02  5.75740E+02  6.41984E+02 -3.46353E+02  1.59912E+03 -1.24733E+03
  4.77643E+02  1.72035E+02  1.88039E+03  1.15984E-01  3.04444E+02  1.95562E+03 -5.88286E+02  4.48429E+02
  6.14527E+01 -4.31472E+02 -8.17035E+02  5.93743E+02 -8.02762E+02 -3.94482E+02 -2.85630E+02 -5.26198E+02
  1.32841E+03  5.98191E+02  9.66818E+02  1.57865E+03  6.24076E+01  1.38399E+03  2.91710E+02 -1.60738E+02
 -5.01289E+02  1.13169E+03 -4.58491E+02  7.40927E+02 -2.19518E+02 -2.49658E+02 -8.15054E+02  1.38168E+02
  5.39962E+02  8.39632E+02 -8.28016E+02  1.69629E+02 -8.57258E+02  8.10286E+02 -3.24813E+03 -8.64929E+02
 -4.36665E+02 -1.88607E+03 -2.05645E+02 -1.33893E+03  3.82582E+02 -1.87843E+03  2.54395E+03 -1.59622E+03
  2.63993E+03 -2.16157E+02  6.23812E+01  1.32070E+03 -1.37120E+03  5.82527E+02 -2.44066E+02  9.24444E+01
 -1.74015E+03  2.77868E+02 -1.41393E+02 -1.27763E+02 -6.96430E+02 -5.62837E+02 -4.31020E+02 -5.26875E+01
 -9.48122E+02  1.21247E+03 -1.30874E+03  8.00391E+02  1.52208E+03 -8.37686E+02 -8.16224E+02 -7.10014E+02
  7.22448E+02 -4.29000E+02  4.49888E+02  7.07072E+02  2.43693E+02  2.92384E+02 -1.16745E+03  7.15119E+02
 -7.69717E+02  1.09584E+03 -1.39086E+03  7.91145E+02 -5.18990E+02 -1.42682E+02 -9.38546E+02 -1.41601E+03
 -6.89871E+02 -1.09652E+03 -2.57678E+02  4.11736E+02  8.54682E+02 -6.20991E+02 -4.35054E+02  1.14593E+03
  6.76201E+02 -1.02987E+02 -5.60622E+02 -4.15967E+02 -6.34725E+02 -3.65527E+02 -4.00141E+01 -7.42885E+02
  6.89955E+02 -2.98357E+01  6.91657E+02 -5.97890E+01 -1.05504E+02 -5.08036E+02  3.61842E+02 -3.86573E+02
 -7.67648E+02 -8.87705E+02 -7.23603E+02  5.47936E+02 -1.90212E+02 -1.24347E+03 -4.00247E+02 -9.40491E+02
  1.72283E+03 -4.95816E+02  4.91118E+02 -1.99479E+02  1.28418E+03 -1.45621E+03 -1.14312E+01 -9.12030E+02
  4.79118E+02  1.85426E+02 -1.48951E+02  4.38586E+01 -2.24015E+02  5.06424E+01 -1.76540E+03  1.02829E+03
 -9.97773E+02  1.25504E+02 -4.92450E+02  1.39488E+03 -3.80296E+02  4.22127E+02 -6.42095E+02 -5.91008E+02
  5.01097E+01 -2.16219E+02 -2.98091E+00 -1.07875E+03  2.92057E+02 -7.36777E+02  1.43041E+03  3.47444E+02
  5.00718E+02 -5.85143E+02 -3.91712E+01 -6.14937E+01  5.06294E+02 -2.66967E+02 -9.78125E+02 -2.39254E+01
