 $NMID ID='MM_0lb_SNR200_12hz_g50_39.RAW', FMTDAT='(8E13.5)'
 TRAMP=1., VOLUME=1. $END
  3.09505E+05  3.76344E+02  3.36638E+05  2.50539E+05  8.51489E+04  3.38115E+05 -1.32787E+05  2.51123E+05
 -1.89968E+05  8.31105E+04 -1.11843E+05 -3.16659E+04  1.43656E+03 -5.06801E+04  5.20043E+04 -6.79414E+02
  3.53257E+04  5.24660E+04 -1.64931E+04  7.48702E+04 -6.06579E+04  6.46576E+04 -8.37896E+04  3.16242E+04
 -8.14134E+04 -1.17458E+04 -5.77654E+04 -5.16006E+04 -1.56112E+04 -7.04713E+04  2.66495E+04 -4.57578E+04
  3.99931E+04  1.75595E+03  1.57797E+04  4.90485E+04 -3.44143E+04  4.84707E+04 -6.84091E+04  8.44215E+02
 -5.51642E+04 -5.76267E+04 -6.18508E+03 -7.72026E+04  3.32776E+04 -5.67514E+04  4.71808E+04 -1.80818E+04
  4.43344E+04  1.08377E+04  3.28148E+04  2.53198E+04  1.67423E+04  3.06610E+04 -6.00941E+03  2.80417E+04
 -2.22220E+04  1.26597E+04 -1.91347E+04 -5.88295E+03  6.23113E+03 -7.47133E+03  2.16083E+04  1.32272E+04
  6.62919E+03  3.59598E+04 -3.33899E+04  3.61373E+04 -6.38665E+04  1.50929E+03 -5.81014E+04 -4.35648E+04
 -1.36701E+04 -6.44856E+04  4.18228E+04 -4.55567E+04  5.95614E+04 -2.95577E+03  3.58502E+04  3.33523E+04
 -5.22810E+03  3.88572E+04 -3.03130E+04  1.82910E+04 -3.13170E+04 -4.46289E+03 -1.73213E+04 -1.05508E+04
 -9.22201E+03 -1.35152E+04 -2.17811E+02 -1.90259E+04  7.31545E+03 -2.19518E+04  1.58679E+04 -1.35062E+04
  1.10470E+04  6.72181E+03 -9.22107E+03  1.17874E+04 -2.21058E+04 -5.30075E+03 -7.57897E+03 -3.58694E+04
  2.39206E+04 -4.58896E+04  4.83692E+04 -1.98812E+04  4.82449E+04  2.01350E+04  1.66055E+04  4.63280E+04
 -1.54813E+04  3.43920E+04 -2.51746E+04  1.38403E+03 -1.01208E+04 -2.86544E+04  2.11430E+04 -3.49176E+04
  4.34316E+04 -1.07702E+04  3.76638E+04  2.42933E+04  2.03483E+04  4.96074E+04 -8.94442E+03  5.19641E+04
 -3.40487E+04  3.48726E+04 -4.41277E+04  7.80139E+03 -4.38889E+04 -1.79779E+04 -2.53440E+04 -4.01621E+04
  7.67764E+03 -4.00237E+04  3.24918E+04 -1.65453E+04  3.04142E+04  1.20212E+04  5.49240E+03  2.02452E+04
 -1.30469E+04  8.12658E+03 -1.10692E+04 -6.45232E+03  5.64329E+03 -1.17434E+04  1.73636E+04  5.73835E+03
  1.44622E+04  2.36227E+04 -5.61044E+03  2.60875E+04 -2.25687E+04  1.23069E+04 -3.07237E+04 -5.53415E+03
 -2.06388E+04 -1.79462E+04 -8.72327E+03 -2.29156E+04  4.44430E+03 -2.02299E+04  1.75902E+04 -2.12925E+04
  2.93215E+04 -1.30877E+04  3.52258E+04  3.93162E+03  2.54411E+04  2.17411E+04  3.97299E+03  3.77386E+04
 -1.86689E+04  3.22344E+04 -2.85154E+04  9.98073E+03 -2.24192E+04 -9.75261E+03 -4.69113E+03 -1.17118E+04
  2.82648E+03 -1.84899E+03 -5.80006E+03  7.06881E+03 -1.79177E+04  5.99599E+03 -1.66036E+04 -8.51451E+03
 -1.09393E+04 -2.20148E+04  4.28535E+03 -2.44713E+04  1.62595E+04 -1.79630E+04  2.04274E+04 -1.66732E+03
  1.22697E+04  1.55169E+04 -1.79713E+03  2.12238E+04 -1.39600E+04  1.19221E+04 -1.89505E+04 -3.46888E+03
 -1.55902E+04 -1.94817E+04 -1.53635E+03 -2.59603E+04  1.12377E+04 -1.98821E+04  2.02244E+04 -1.07114E+04
  1.95290E+04  1.24317E+02  1.29591E+04  3.04982E+03  5.50263E+03  8.92427E+02  9.45101E+03 -2.64729E+03
  1.81149E+04  2.92279E+03  2.09080E+04  1.49074E+04  1.42984E+04  3.40943E+04 -3.29543E+03  3.63202E+04
 -2.21966E+04  3.18523E+04 -3.60177E+04  1.55024E+04 -3.81511E+04 -3.39864E+03 -3.08853E+04 -2.16027E+04
 -1.19952E+04 -3.08526E+04  1.12091E+04 -2.73347E+04  2.35614E+04 -1.35018E+04  2.12398E+04  6.03719E+03
  8.57664E+03  1.61556E+04 -9.42127E+03  1.37917E+04 -1.75817E+04  2.29329E+03 -1.28536E+04 -1.15852E+04
 -9.02681E+02 -1.58868E+04  8.85274E+03 -1.23724E+04  1.18469E+04 -2.70631E+03  3.19291E+03  7.12870E+03
 -6.01432E+03  1.65168E+03 -7.57044E+03 -6.96394E+03 -1.64026E+03 -1.55576E+04  1.18192E+04 -1.52249E+04
  1.86002E+04 -8.98487E+03  2.17888E+04  2.82907E+03  1.88054E+04  1.55662E+04  9.04357E+03  2.37904E+04
 -3.76557E+03  2.46880E+04 -1.61958E+04  1.70076E+04 -1.85562E+04  3.73317E+03 -1.19926E+04 -4.95354E+03
 -6.37539E+03 -6.60468E+03 -9.50763E+01  1.85363E+03 -3.37965E+03  3.73953E+03 -6.91970E+03  4.97893E+03
 -1.13853E+04 -1.52300E+03 -1.10045E+04 -1.11103E+04 -4.45823E+03 -1.60882E+04  6.55625E+03 -1.28020E+04
  1.17240E+04 -5.94524E+03  6.89371E+03  3.51920E+03 -5.19145E+02  4.92763E+03 -6.25890E+03 -5.81307E+02
 -4.93933E+03 -8.10297E+03 -8.01382E+02 -1.24607E+04  7.42084E+03 -1.38150E+04  1.71570E+04 -6.83235E+03
  2.03085E+04  1.66807E+03  1.42188E+04  1.08675E+04  1.07692E+03  1.56380E+04 -7.62787E+03  1.20765E+04
 -9.90147E+03  2.98447E+03 -4.54420E+03 -2.19229E+03  8.41914E+02 -3.14626E+03  7.29241E+03 -2.34138E+03
  5.13486E+03  6.28558E+03  1.78258E+03  9.70685E+03 -8.07381E+03  1.02711E+04 -1.15533E+04  3.28522E+03
 -8.11288E+03 -7.00345E+03  1.09339E+02 -1.07036E+04  6.23269E+03 -6.23675E+03  8.17683E+03  2.90007E+03
  1.28470E+03  5.84507E+03 -5.70219E+03  1.05267E+04 -1.07451E+04  4.68352E+03 -1.08585E+04 -4.18918E+03
 -6.49812E+03 -1.22894E+04  2.55041E+03 -1.43401E+04  1.31301E+04 -6.23899E+03  1.33396E+04  2.31710E+03
  8.77890E+03  9.39114E+03 -3.97844E+02  1.20849E+04 -9.92041E+03  6.38597E+03 -9.19795E+03 -1.77316E+03
 -8.54757E+03 -8.41652E+03 -3.70879E+02 -9.12789E+03  4.81526E+03 -7.83053E+03  6.35429E+03 -3.15857E+03
  4.43987E+03  1.56537E+03  1.61230E+02  1.63149E+03  4.44780E+02 -2.06188E+03  2.16562E+03 -5.58583E+03
  8.25731E+03 -3.63424E+03  1.23910E+04  1.54488E+03  1.22913E+04  8.49033E+03  8.92778E+03  1.64924E+04
 -3.82694E+03  1.83037E+04 -1.53410E+04  1.38487E+04 -2.02986E+04  2.96423E+03 -1.61506E+04 -7.19335E+03
 -7.05067E+03 -1.29936E+04  1.52698E+03 -1.14841E+04  4.52293E+03 -6.25319E+03  2.66400E+03 -4.66571E+03
  2.84224E+03 -2.02964E+03  3.18163E+03 -3.90236E+03  5.42631E+03 -2.43062E+03  7.91409E+03 -1.18589E+03
  8.64332E+03  1.24653E+03  4.05566E+03  8.11754E+03 -1.55914E+03  8.70788E+03 -8.36659E+03  6.28776E+03
 -1.11683E+04 -1.07047E+03 -6.23862E+03 -6.66398E+03 -1.24664E+03 -1.28479E+04  5.54311E+03 -1.16268E+04
  1.02808E+04 -6.09362E+03  1.48083E+04  3.08180E+03  9.70186E+03  9.35215E+03  2.01506E+03  1.38092E+04
 -4.32089E+03  1.04761E+04 -7.25700E+03  2.47436E+03 -4.30085E+03 -2.10177E+03 -2.47600E+03 -2.10999E+03
 -1.16458E+03  1.13603E+03 -2.30599E+03  4.00387E+03 -5.31084E+03  3.02732E+03 -6.75176E+03 -1.65400E+03
 -4.50831E+03 -6.10192E+03  9.28663E+01 -1.07613E+04  6.62119E+03 -9.84817E+03  8.63082E+03 -2.66533E+03
  9.41211E+03  5.10961E+03  3.59483E+03  9.25404E+03 -1.63327E+03  9.87676E+03 -7.61523E+03  6.77099E+03
 -1.05992E+04  1.22397E+03 -8.09964E+03 -6.48101E+03 -1.63840E+03 -9.01148E+03  3.12303E+03 -7.29331E+03
  6.55768E+03 -2.01444E+03  5.24715E+03  1.77077E+03  1.10479E+03  2.99916E+03  1.68998E+02  1.08388E+03
  3.39639E+03  5.69232E+02  2.86488E+03  2.51381E+03  3.24158E+03  4.53924E+03  4.20821E+03  5.18876E+03
 -2.79145E+03  8.74656E+03 -5.86440E+03  8.81909E+03 -9.29048E+03  1.96169E+03 -1.19405E+04 -3.66536E+03
 -5.23956E+03 -1.13661E+04  1.76051E+03 -1.18644E+04  5.76764E+03 -7.56262E+03  8.98089E+03 -1.69630E+03
  7.42078E+03  2.32587E+03  1.63341E+03  6.18873E+03 -2.50267E+03  3.29712E+03 -3.69561E+03  5.58761E+02
 -2.27562E+03 -4.56562E+03  2.59706E+03 -3.98179E+03  4.31361E+03 -1.79081E+03  3.87560E+03  1.45960E+03
  3.84085E+03  2.28838E+03  8.42192E+02  7.68716E+02 -1.07288E+03  1.38426E+03  3.02859E+03  1.86447E+02
  1.84306E+03  1.46055E+02  4.44635E+03  2.46300E+03  2.14971E+03  5.94501E+03 -2.70945E+02  6.70520E+03
 -4.39873E+03  5.37136E+03 -4.87579E+03  2.10231E+03 -5.21198E+03 -1.12016E+03 -2.43831E+03 -3.19441E+03
  1.36624E+03 -3.94869E+03  3.09439E+03 -2.14486E+03  1.58717E+03  2.19192E+03 -1.55993E+02  3.66497E+03
 -4.11040E+03  1.79392E+03 -4.42668E+03 -2.07476E+03 -2.01113E+03 -4.59849E+03  1.46791E+03 -4.65566E+03
  3.52222E+03 -2.98722E+03  3.05436E+03 -1.71685E+03  2.35594E+03  2.35166E+02  5.47767E+02  2.85444E+03
 -1.38214E+03  1.40716E+03 -2.27021E+03 -1.87127E+03  1.33889E+03 -3.78616E+03  4.39581E+03 -3.83440E+03
  5.92708E+03 -4.47134E+02  5.67442E+03  3.97215E+03  2.65688E+03  6.37823E+03 -2.48916E+03  5.68837E+03
 -4.59475E+03  2.06314E+03 -5.59884E+03  2.17183E+02 -3.34923E+03 -3.29380E+03  1.40018E+03 -4.01204E+03
  3.24036E+03 -1.98473E+03  2.67714E+03  1.44161E+03  1.39607E+03  2.39029E+03  8.73471E+01  3.59512E+03
 -9.76590E+02  2.32052E+03 -1.69163E+03  7.13161E+02 -1.99733E+01  9.39198E+02 -7.31262E+02  6.64640E+02
 -1.41869E+03  3.07475E+03 -3.57128E+03  2.85307E+03 -5.60664E+03  5.11333E+02 -7.07701E+03 -3.52056E+03
 -3.61243E+03 -9.83914E+03  1.62648E+03 -1.00141E+04  4.51359E+03 -7.20044E+03  7.52061E+03 -1.87459E+03
  7.36357E+03  7.99933E+02  4.55498E+03  6.04058E+03  1.31728E+03  6.30480E+03 -1.55864E+03  5.14933E+03
 -2.62195E+03  5.88195E+02 -1.71645E+03  3.84925E+02 -1.74331E+03 -8.90984E+02  4.96206E+02  3.83385E+02
  4.29507E+02 -2.92618E+02 -1.04145E+03  2.39785E+02  4.46816E+02 -1.57542E+03 -7.89741E+01 -2.87979E+03
  4.06838E+03 -1.24355E+03  2.67495E+03 -5.71141E+02  5.51334E+03  2.96713E+03  1.03928E+03  6.93045E+03
 -2.09693E+03  6.96271E+03 -6.96748E+03  4.53122E+03 -7.82811E+03 -5.74333E+02 -6.71114E+03 -4.63361E+03
 -2.06126E+03 -6.05634E+03  2.71190E+02 -4.68451E+03  3.84369E+03 -3.47750E+03  2.73618E+03 -2.21291E+02
  2.02809E+03  2.57048E+03  2.57199E+02  3.69186E+02 -1.17225E+03 -3.07479E+02 -1.12474E+03 -1.11694E+03
  1.89878E+03  1.17753E+03  8.89793E+02 -3.31239E+02  1.14323E+03  2.67626E+03 -1.22163E+02  2.37172E+03
 -2.44441E+03  2.06471E+03 -4.02703E+03  1.10802E+03 -2.67303E+03 -2.14199E+03 -2.88134E+02 -6.81963E+03
  2.15332E+03 -2.51122E+03  2.99771E+03 -7.17329E+02  5.10869E+03  8.44017E+01  1.25532E+03  3.48109E+03
 -5.08182E+02  3.63011E+03 -6.96009E+02  4.53811E+03 -2.30651E+03  2.23420E+03 -6.67394E+02 -3.17707E+02
 -1.71654E+03 -5.41797E+02 -2.04000E+03  9.52044E+02 -1.86351E+03  2.51835E+02 -2.78378E+03 -1.01718E+03
 -3.22769E+03 -2.16363E+03 -2.07917E+02 -5.82337E+03  1.96926E+03 -4.02243E+03  2.88676E+03 -2.23045E+03
  4.55057E+03  8.60148E+02  1.81300E+03  3.31876E+03 -1.91048E+03  4.06749E+03 -2.39194E+03  2.67970E+03
