 $NMID ID='MM_0lb_SNR200_15hz_g40_91.RAW', FMTDAT='(8E13.5)'
 TRAMP=1., VOLUME=1. $END
  3.09640E+05  1.03515E+03  3.37218E+05  2.50090E+05  8.50241E+04  3.37168E+05 -1.32857E+05  2.50838E+05
 -1.89620E+05  8.19385E+04 -1.09508E+05 -3.26501E+04  1.47950E+03 -5.07917E+04  5.29128E+04  8.99100E+02
  3.53708E+04  5.13423E+04 -1.67895E+04  7.44535E+04 -5.99696E+04  6.30120E+04 -8.29650E+04  3.15199E+04
 -7.91188E+04 -1.11321E+04 -5.66737E+04 -5.21641E+04 -1.58496E+04 -6.90675E+04  2.80523E+04 -4.48258E+04
  3.95348E+04  4.01333E+03  1.60264E+04  4.64097E+04 -3.43050E+04  4.68594E+04 -6.60691E+04 -3.36774E+02
 -5.26757E+04 -5.55691E+04 -6.11032E+03 -7.58381E+04  3.39805E+04 -5.42478E+04  4.59606E+04 -1.84455E+04
  4.27250E+04  1.13525E+04  3.09493E+04  2.46349E+04  1.57533E+04  2.83909E+04 -6.01381E+03  2.74149E+04
 -2.28182E+04  1.19448E+04 -1.93053E+04 -3.77175E+03  5.12060E+03 -7.78694E+03  2.28722E+04  1.21969E+04
  8.13907E+03  3.44033E+04 -3.13443E+04  3.56183E+04 -6.34529E+04  1.96127E+03 -5.62166E+04 -4.28804E+04
 -1.26791E+04 -6.16509E+04  3.93131E+04 -4.44525E+04  5.77398E+04 -1.15008E+03  3.32316E+04  3.18194E+04
 -6.06489E+03  3.49210E+04 -2.89962E+04  1.52492E+04 -2.89833E+04 -5.54965E+03 -1.54872E+04 -1.07768E+04
 -7.98837E+03 -1.31338E+04 -1.48860E+03 -1.67430E+04  6.91679E+03 -2.23805E+04  1.52597E+04 -1.30755E+04
  1.15852E+04  5.81840E+03 -7.82835E+03  1.40347E+04 -2.10437E+04 -3.72804E+03 -8.66105E+03 -3.19570E+04
  2.17033E+04 -4.09589E+04  4.61327E+04 -1.91682E+04  4.32416E+04  1.88820E+04  1.36531E+04  4.27652E+04
 -1.42728E+04  3.16703E+04 -2.45533E+04  1.75916E+03 -8.74140E+03 -2.76193E+04  2.20420E+04 -3.23942E+04
  3.97145E+04 -8.40813E+03  3.41091E+04  2.31430E+04  1.67663E+04  4.53978E+04 -7.11218E+03  4.68708E+04
 -3.04774E+04  3.24581E+04 -3.96343E+04  8.86089E+03 -4.11391E+04 -1.55273E+04 -2.25801E+04 -3.59257E+04
  7.81205E+03 -3.57869E+04  3.13608E+04 -1.31577E+04  2.78693E+04  1.09158E+04  3.03523E+03  1.98948E+04
 -1.25911E+04  7.59997E+03 -1.00299E+04 -6.87672E+03  6.33245E+03 -1.00139E+04  1.74104E+04  7.11371E+03
  1.34858E+04  2.17202E+04 -6.61672E+03  2.48106E+04 -2.23357E+04  1.04560E+04 -2.65911E+04 -6.51599E+03
 -1.84704E+04 -1.69565E+04 -6.85631E+03 -1.92836E+04  4.11429E+03 -1.69289E+04  1.40305E+04 -1.55276E+04
  2.47963E+04 -1.18843E+04  3.11031E+04  2.12660E+03  2.20966E+04  1.90821E+04  4.56874E+03  3.50783E+04
 -1.70176E+04  2.87818E+04 -2.77499E+04  1.01366E+04 -2.05611E+04 -9.91604E+03 -4.29746E+03 -1.34403E+04
  2.54939E+03 -3.94162E+03 -3.67939E+03  5.28807E+03 -1.42703E+04  5.14783E+03 -1.46502E+04 -7.39437E+03
 -9.88502E+03 -1.66376E+04  5.69389E+03 -2.16230E+04  1.46243E+04 -1.55304E+04  1.68519E+04 -1.96051E+03
  1.01790E+04  1.11932E+04 -1.38082E+03  1.68493E+04 -1.18379E+04  9.31276E+03 -1.76706E+04 -3.35639E+03
 -1.27547E+04 -1.55568E+04 -2.58587E+03 -2.07111E+04  9.15665E+03 -1.67142E+04  1.77468E+04 -9.88312E+03
  1.57964E+04  1.05495E+03  1.17667E+04  4.10726E+03  6.84116E+03  1.41910E+03  9.24385E+03 -2.31026E+03
  1.69019E+04  2.00777E+03  1.70177E+04  1.37540E+04  1.16016E+04  2.76642E+04 -3.02984E+03  3.19660E+04
 -1.75239E+04  2.45955E+04 -2.79040E+04  1.13868E+04 -3.03870E+04 -1.78584E+03 -2.51354E+04 -1.79407E+04
 -1.17059E+04 -2.54982E+04  8.33999E+03 -2.22667E+04  1.98962E+04 -1.17999E+04  1.81125E+04  4.77054E+03
  6.22022E+03  1.33192E+04 -6.76967E+03  1.16888E+04 -1.52329E+04  3.18361E+03 -1.14583E+04 -9.24146E+03
 -3.56920E+02 -1.40974E+04  6.97680E+03 -9.89005E+03  9.34091E+03 -4.07825E+02  2.91158E+03  5.15880E+03
 -6.18153E+03  1.87680E+03 -3.71661E+03 -4.75948E+03 -3.94503E+02 -1.21148E+04  9.32926E+03 -1.20849E+04
  1.36888E+04 -5.85292E+03  1.49742E+04  2.59707E+03  1.32755E+04  1.29783E+04  7.94167E+03  1.77126E+04
 -2.37351E+03  2.05610E+04 -1.22148E+04  1.17930E+04 -1.39756E+04  3.91163E+03 -1.02271E+04 -2.24654E+03
 -5.36826E+03 -3.57556E+03 -2.46707E+03  1.77797E+03 -2.56343E+03  3.68383E+03 -5.02409E+03  3.79971E+03
 -9.78020E+03 -8.12843E+02 -9.11683E+03 -8.32723E+03 -4.98343E+03 -1.37374E+04  4.48306E+03 -9.45479E+03
  8.20592E+03 -4.28509E+03  6.35489E+03  2.27655E+03  5.76746E+02  4.03507E+03 -4.68235E+03 -1.67431E+03
 -4.73667E+03 -6.61101E+03 -1.43449E+03 -8.73695E+03  5.02846E+03 -1.00191E+04  1.14751E+04 -4.75970E+03
  1.54874E+04  1.24062E+03  1.12504E+04  8.24032E+03  2.65342E+03  1.20414E+04 -7.62268E+03  1.02464E+04
 -8.19145E+03  4.02614E+03 -3.86949E+03 -1.13532E+03  1.76502E+03 -2.45042E+03  5.44140E+03 -8.19964E+02
  3.93525E+03  3.87413E+03  1.12612E+03  7.29149E+03 -5.50082E+03  7.53346E+03 -9.08312E+03  1.01724E+03
 -6.72972E+03 -4.75948E+03  1.73000E+02 -8.67325E+03  4.04386E+03 -4.15067E+03  4.24847E+03  1.88546E+03
  4.38404E+02  4.87529E+03 -5.01578E+03  6.45138E+03 -7.63274E+03  2.62625E+03 -6.49713E+03 -2.16245E+03
 -4.60609E+03 -8.77261E+03  4.79562E+02 -9.78026E+03  7.83452E+03 -6.20884E+03  9.38560E+03  1.39752E+03
  6.93279E+03  7.15766E+03 -2.77002E+02  8.57830E+03 -6.44563E+03  5.85469E+03 -7.38292E+03 -1.60713E+03
 -6.51887E+03 -6.17384E+03 -1.52963E+03 -6.20871E+03  3.56007E+03 -6.05428E+03  5.01559E+03 -2.63087E+03
  2.59769E+03  8.06082E+02  6.69689E+02  1.17753E+03 -2.47376E+02 -1.42216E+02  7.13190E+02 -3.65923E+03
  6.36080E+03 -1.74606E+03  7.43614E+03  4.36230E+02  7.30408E+03  4.37943E+03  6.89275E+03  1.04071E+04
 -6.95268E+02  1.13270E+04 -9.96687E+03  8.59325E+03 -1.37198E+04  2.75519E+03 -1.08904E+04 -3.93314E+03
 -5.98402E+03 -7.94284E+03 -7.11580E+02 -6.54916E+03  2.66362E+03 -3.64608E+03  1.93917E+03 -2.93509E+03
  1.79831E+03 -2.18375E+03  1.99351E+03 -3.18585E+03  4.37721E+03 -2.19202E+03  4.43977E+03  9.74617E+02
  6.32946E+03  1.04511E+03  1.64682E+03  4.73854E+03 -1.11161E+03  5.12634E+03 -5.01867E+03  4.25045E+03
 -5.86642E+03 -7.49557E+02 -3.03847E+03 -4.51142E+03 -4.03719E+02 -6.41842E+03  3.66146E+03 -6.59442E+03
  8.68432E+03 -3.96129E+03  9.64135E+03 -1.56154E+02  7.57872E+03  6.10027E+03  9.76333E+02  8.35472E+03
 -2.77046E+03  7.43983E+03 -5.31588E+03  2.11019E+03 -2.62908E+03 -9.64439E+02 -9.48125E+02 -1.25953E+03
 -2.91307E+02  4.49176E+02 -9.89945E+02  3.69944E+03 -4.17806E+03  1.98875E+03 -5.91611E+03 -3.15929E+02
 -2.56649E+03 -5.65479E+03  1.53983E+03 -7.13279E+03  3.99217E+03 -6.68197E+03  5.68324E+03 -1.58964E+03
  5.77555E+03  3.28261E+03  3.05612E+03  5.76930E+03 -7.58692E+02  7.28125E+03 -4.67891E+03  4.04406E+03
 -5.68385E+03  1.25025E+03 -4.80928E+03 -5.11858E+03 -1.41967E+03 -5.39018E+03  4.07464E+03 -4.87803E+03
  3.65821E+03 -1.71542E+03  3.03140E+03  1.52312E+03  2.62108E+02  2.39829E+03  9.78679E+02  1.23542E+03
  1.53553E+03  2.00685E+03  2.72801E+03  7.95031E+02  1.49516E+03  2.26571E+03  5.70293E+02  1.71123E+03
 -2.02612E+03  4.48977E+03 -4.76313E+03  4.82673E+03 -6.40412E+03  1.03995E+03 -6.05772E+03 -2.68661E+03
 -3.24073E+03 -6.11722E+03  1.72878E+03 -7.53206E+03  4.29818E+03 -4.43857E+03  5.35284E+03 -1.69317E+03
  3.14323E+03  3.25793E+03  6.23898E+02  3.95173E+03 -2.09574E+03  2.79455E+03 -2.76487E+03  3.70585E+01
 -1.40821E+03 -3.21177E+03  2.36253E+03 -3.75464E+03  1.76894E+03 -1.94345E+03  2.14716E+03  6.30126E+02
  2.19033E+03  1.73073E+02  1.04578E+03 -4.33080E+02 -3.02448E+02  1.11598E+03  1.97103E+03  4.11530E+02
 -7.83851E+01  3.84267E+01  3.20320E+03  3.08416E+02  1.27617E+03  4.53042E+03  7.63463E+01  3.53485E+03
 -2.73729E+03  1.46364E+03 -3.11359E+03 -2.24010E+02 -4.02644E+03 -1.56514E+02 -5.51797E+02 -1.45402E+03
  2.70554E+02 -2.76151E+03  1.50219E+03 -1.20429E+03  1.62790E+03  1.56627E+03 -1.92848E+03  1.92107E+03
 -2.32000E+03  1.73793E+03 -2.28685E+03 -2.47728E+03 -1.50076E+03 -3.22085E+03  6.47199E+01 -4.40399E+03
  1.93062E+03 -2.02315E+03  3.15006E+03 -2.66505E+02  2.73002E+03  4.44691E+01  6.38424E+02  2.27712E+03
 -6.34965E+02 -8.75999E+02 -1.05199E+03 -7.55564E+02  4.08278E+02 -1.86856E+03  3.64692E+03 -2.25562E+03
  3.09903E+03  1.70843E+03  4.42806E+03  2.25684E+03  6.55223E+02  1.57429E+03 -1.35910E+03  2.52987E+03
 -1.97844E+03  1.39045E+03 -1.14966E+03 -4.91003E+02 -2.16575E+03 -2.02711E+03 -9.52708E+01 -1.80472E+03
  2.38607E+03 -1.08458E+03  5.83926E+02  9.35552E+02  4.22090E+02  2.75107E+03 -2.20498E+02  2.04681E+03
 -1.54249E+03  1.50360E+03 -5.28737E+02  3.74445E+02 -7.86232E+02  1.71275E+03 -1.79178E+03  6.11309E+02
 -8.19252E+02  1.79627E+03 -2.90320E+03  6.95394E+01 -3.17945E+03  9.96302E+01 -2.75591E+03 -1.85573E+03
 -2.39211E+03 -3.66628E+03  6.07728E+02 -6.12186E+03  1.83833E+03 -5.87008E+03  5.16444E+03 -2.34263E+02
  4.89455E+03  6.35158E+02  1.87798E+03  2.51565E+03  3.51355E+02  4.31972E+03 -2.29240E+03  1.75570E+03
 -2.60297E+03  1.53213E+03 -9.12718E+02 -7.48493E+01 -4.57989E+02 -5.54225E+02 -1.29241E+03 -5.56823E+02
 -1.17232E+03  9.58204E+02 -2.44995E+03 -5.14045E+02  4.13706E+02  3.34283E+01  6.80825E+02 -1.30057E+03
  2.08011E+03 -1.24565E+03  9.08208E+02 -2.15679E+02  1.19853E+03  1.31814E+03  4.30159E+02  2.39808E+03
 -2.69125E+03  4.28284E+03 -3.34747E+03  1.71162E+03 -4.06770E+03 -2.80857E+02 -2.45228E+03 -2.44064E+03
 -1.89852E+03 -4.63334E+03  1.03145E+03 -2.34424E+03  2.74917E+03 -1.31419E+02  1.30408E+03 -9.57619E+02
  1.50378E+03 -1.13013E+03  1.31153E+02  3.22310E+02 -2.15958E+03  3.93767E+02 -1.19189E+03 -2.95337E+02
  1.17018E+03 -1.05948E+02  1.23743E+03 -1.13190E+02 -4.50252E+02  1.45287E+03  7.06969E+02  1.21739E+03
 -1.62003E+03  8.31551E+02 -4.33491E+02  7.76372E+02 -1.68771E+03 -4.64987E+02 -4.78821E+01 -3.47732E+03
  1.00926E+03 -1.76090E+03  1.97714E+03 -1.23385E+03  2.41508E+03 -2.87547E+02  1.16964E+03  1.98541E+03
  5.35548E+02  1.78031E+03  3.37414E+02  1.45055E+03 -9.52647E+02  9.31118E+02 -1.24045E+03  1.88313E+01
  1.70686E+02 -4.64606E+02 -2.14209E+03  6.51463E+02 -1.49946E+03  9.90080E+02 -1.65229E+03 -1.57736E+02
 -1.99962E+03 -8.57749E+02 -3.98799E+02 -1.60801E+03  2.14310E+02 -2.47128E+03  8.36440E+02 -1.70761E+03
  2.28925E+03 -2.46817E+02 -8.45158E+02  1.51467E+03  1.16895E+01  1.76658E+03 -2.44140E+02  1.00611E+03
