 $NMID ID='MM_0lb_SNR200_12hz_g55_69.RAW', FMTDAT='(8E13.5)'
 TRAMP=1., VOLUME=1. $END
  3.09805E+05  3.51915E+02  3.36831E+05  2.51023E+05  8.45548E+04  3.37603E+05 -1.33266E+05  2.52151E+05
 -1.91058E+05  8.37992E+04 -1.11575E+05 -3.26250E+04  1.23915E+03 -5.06129E+04  5.44364E+04 -4.35329E+02
  3.40986E+04  5.36214E+04 -1.75172E+04  7.57282E+04 -6.06660E+04  6.43729E+04 -8.54057E+04  3.23627E+04
 -8.15574E+04 -1.17883E+04 -5.75857E+04 -5.10386E+04 -1.66859E+04 -7.11144E+04  2.75181E+04 -4.66658E+04
  4.12064E+04  3.95826E+03  1.54877E+04  4.88087E+04 -3.48665E+04  4.79463E+04 -6.77533E+04  4.44060E+02
 -5.44814E+04 -5.90088E+04 -7.23936E+03 -7.79085E+04  3.50557E+04 -5.57195E+04  4.91878E+04 -1.81452E+04
  4.46165E+04  1.22878E+04  3.17610E+04  2.59815E+04  1.70457E+04  3.10761E+04 -5.60503E+03  2.82296E+04
 -2.24301E+04  1.22244E+04 -1.86065E+04 -4.90591E+03  6.90426E+03 -7.72600E+03  2.30826E+04  1.35074E+04
  7.64825E+03  3.80893E+04 -3.39300E+04  3.59186E+04 -6.45649E+04  2.18573E+03 -5.74441E+04 -4.46784E+04
 -1.20576E+04 -6.56970E+04  4.07478E+04 -4.71129E+04  6.05215E+04 -1.53879E+03  3.63756E+04  3.27734E+04
 -5.40676E+03  3.78894E+04 -3.06949E+04  1.83085E+04 -3.16222E+04 -2.56823E+03 -1.88634E+04 -1.10151E+04
 -1.01444E+04 -1.48568E+04 -2.95192E+02 -1.95869E+04  7.59608E+03 -2.24385E+04  1.62990E+04 -1.34558E+04
  1.10012E+04  5.30249E+03 -1.06327E+04  1.32726E+04 -2.13818E+04 -5.66782E+03 -8.76685E+03 -3.49665E+04
  2.34753E+04 -4.52039E+04  4.94981E+04 -2.09287E+04  4.79213E+04  1.93404E+04  1.56279E+04  4.54255E+04
 -1.64402E+04  3.46559E+04 -2.71800E+04  2.62560E+03 -1.01569E+04 -3.03962E+04  2.15569E+04 -3.63497E+04
  4.40011E+04 -1.14233E+04  3.85516E+04  2.45822E+04  2.02143E+04  4.99057E+04 -8.04870E+03  5.39978E+04
 -3.41691E+04  3.68521E+04 -4.49914E+04  1.04553E+04 -4.55449E+04 -1.77040E+04 -2.43669E+04 -3.96103E+04
  7.42135E+03 -4.00923E+04  3.29898E+04 -1.54090E+04  3.02009E+04  1.10922E+04  4.57995E+03  2.01329E+04
 -1.53437E+04  8.37134E+03 -1.08460E+04 -7.13167E+03  4.96595E+03 -1.18651E+04  1.95416E+04  6.61964E+03
  1.34459E+04  2.27789E+04 -6.27336E+03  2.62246E+04 -2.33194E+04  1.32279E+04 -3.14830E+04 -4.37634E+03
 -2.27364E+04 -1.65827E+04 -8.98960E+03 -2.38483E+04  4.59932E+03 -2.28518E+04  1.68125E+04 -2.16240E+04
  3.01506E+04 -1.29908E+04  3.60104E+04  4.16006E+03  2.60971E+04  2.26372E+04  6.07586E+03  3.95986E+04
 -1.98363E+04  3.28687E+04 -2.80885E+04  1.23768E+04 -2.21167E+04 -9.97035E+03 -4.99888E+03 -1.33105E+04
  9.90572E+02 -1.82216E+03 -5.69095E+03  6.60632E+03 -1.83879E+04  6.31176E+03 -1.80024E+04 -9.63899E+03
 -1.21665E+04 -2.07953E+04  5.98163E+03 -2.61748E+04  1.77440E+04 -1.94068E+04  1.97048E+04 -2.56306E+03
  1.38400E+04  1.40367E+04  1.27057E+02  2.03317E+04 -1.43855E+04  1.12955E+04 -2.23761E+04 -4.43039E+03
 -1.61615E+04 -1.92714E+04 -3.48376E+03 -2.60527E+04  1.06593E+04 -2.16954E+04  2.15549E+04 -1.05634E+04
  1.89864E+04 -1.19718E+03  1.41404E+04  4.93913E+03  8.53818E+03  9.35680E+02  1.08244E+04 -2.71062E+03
  1.98946E+04  4.03389E+03  2.21145E+04  1.59918E+04  1.53681E+04  3.53897E+04 -2.10537E+03  3.91341E+04
 -2.23228E+04  3.23006E+04 -3.67457E+04  1.69103E+04 -3.98073E+04 -2.88174E+03 -3.09882E+04 -2.34057E+04
 -1.46535E+04 -3.18740E+04  1.16031E+04 -2.80698E+04  2.50814E+04 -1.40262E+04  2.11254E+04  7.14090E+03
  9.43258E+03  1.63441E+04 -1.06054E+04  1.36588E+04 -1.76624E+04  2.06749E+03 -1.28898E+04 -1.26023E+04
  4.93093E+02 -1.70735E+04  9.48656E+03 -1.36039E+04  1.18779E+04 -2.36930E+03  2.79221E+03  6.45422E+03
 -7.12768E+03  3.90095E+03 -7.88225E+03 -5.91836E+03 -1.64956E+03 -1.55776E+04  1.16144E+04 -1.73265E+04
  1.96630E+04 -9.69197E+03  2.16569E+04  2.70972E+03  1.93784E+04  1.50660E+04  9.11876E+03  2.49743E+04
 -3.81374E+03  2.71209E+04 -1.69811E+04  1.59646E+04 -2.02632E+04  2.50763E+03 -1.27585E+04 -3.94902E+03
 -6.43374E+03 -7.09840E+03 -1.46033E+03  1.24512E+03 -3.90937E+03  2.40591E+03 -5.46509E+03  4.08751E+03
 -1.18054E+04 -6.05250E+02 -1.28895E+04 -1.08827E+04 -5.09046E+03 -1.63227E+04  4.81403E+03 -1.38254E+04
  1.19217E+04 -6.50112E+03  6.93140E+03  3.65651E+03 -9.96571E+02  4.42427E+03 -5.90343E+03 -7.63799E+02
 -6.66876E+03 -7.47641E+03 -2.10549E+03 -1.48125E+04  8.67958E+03 -1.27337E+04  1.61029E+04 -6.95396E+03
  1.90317E+04  3.47418E+03  1.27027E+04  1.23346E+04  2.49054E+03  1.56395E+04 -9.14842E+03  1.39848E+04
 -1.08697E+04  3.56321E+03 -6.00620E+03 -3.71070E+03  1.96706E+03 -4.74699E+03  7.06160E+03 -6.03592E+02
  7.27001E+03  4.93085E+03  6.03633E+02  1.02750E+04 -7.13194E+03  1.02064E+04 -1.24809E+04  3.09886E+03
 -7.22727E+03 -7.22650E+03  4.21078E+02 -1.13192E+04  7.88272E+03 -6.40153E+03  7.26847E+03  5.98235E+02
  2.42037E+03  7.94153E+03 -5.50370E+03  8.57595E+03 -1.05178E+04  4.00911E+03 -1.08319E+04 -3.42045E+03
 -6.59644E+03 -1.17612E+04  4.65070E+03 -1.35461E+04  1.31012E+04 -8.52331E+03  1.30813E+04  2.19959E+03
  9.22561E+03  9.90708E+03 -4.11766E+02  1.26076E+04 -9.42129E+03  7.09513E+03 -1.08217E+04 -5.64313E+02
 -8.51932E+03 -8.15549E+03 -3.60755E+03 -8.40509E+03  4.40102E+03 -8.93919E+03  5.88037E+03 -4.45306E+03
  4.77522E+03  2.00210E+03 -3.42663E+02  1.28844E+03 -3.45291E+02 -2.83132E+03  1.49758E+03 -5.29738E+03
  7.96903E+03 -5.66208E+03  1.40138E+04  1.71895E+02  1.28837E+04  8.98423E+03  8.40582E+03  1.52524E+04
 -4.76794E+03  1.88681E+04 -1.55170E+04  1.22846E+04 -2.08105E+04  1.81715E+03 -1.52102E+04 -6.26993E+03
 -8.09336E+03 -1.26554E+04 -2.39284E+03 -1.13971E+04  4.69477E+03 -5.08629E+03  4.29548E+03 -4.69965E+03
  2.14512E+03 -3.05440E+03  3.74093E+03 -2.88916E+03  4.71281E+03 -2.30744E+03  5.08653E+03 -4.34440E+02
  8.36045E+03  2.17601E+03  5.06166E+03  7.38130E+03 -2.59914E+03  8.44759E+03 -8.28884E+03  8.26523E+03
 -1.10631E+04 -9.70643E+02 -6.26390E+03 -8.17563E+03 -9.22890E+02 -1.34596E+04  6.37002E+03 -1.16192E+04
  1.18891E+04 -7.11694E+03  1.43046E+04  2.13818E+03  1.17437E+04  9.67979E+03  1.23767E+03  1.17184E+04
 -3.98734E+03  1.28507E+04 -8.38636E+03  3.97556E+03 -4.64846E+03 -1.53010E+03 -1.03321E+03 -6.99119E+02
 -1.04515E+03  1.31591E+03 -6.61309E+02  3.55518E+03 -5.04516E+03  4.93287E+02 -7.41589E+03  5.02625E+01
 -4.06199E+03 -7.45882E+03  1.07128E+03 -1.03722E+04  5.79030E+03 -9.52141E+03  1.05877E+04 -2.90796E+03
  1.14107E+04  3.92540E+03  4.40872E+03  9.92818E+03 -1.52691E+03  1.03112E+04 -8.16729E+03  5.36037E+03
 -8.97574E+03  7.71691E-01 -7.09072E+03 -5.68278E+03 -1.39858E+03 -8.06340E+03  4.16820E+03 -5.43486E+03
  6.09537E+03 -2.35147E+03  4.44544E+03  2.61923E+03  3.04101E+03  3.17311E+03  2.70925E+02  2.13549E+02
  2.89551E+03  1.33249E+03  2.47551E+03  1.78475E+03  2.71396E+03  4.48574E+03  2.90687E+03  5.62692E+03
 -1.81358E+03  7.97728E+03 -7.45265E+03  9.58899E+03 -1.11048E+04  3.50107E+03 -1.18099E+04 -4.07776E+03
 -3.04881E+03 -1.14156E+04  1.94821E+03 -1.17915E+04  5.45853E+03 -7.60886E+03  8.82349E+03 -2.72199E+03
  5.79096E+03  3.68654E+03  6.55849E+02  6.49368E+03 -3.14279E+03  4.02430E+03 -3.11594E+03 -1.02090E+02
 -3.03610E+03 -3.79939E+03  2.14275E+03 -3.84763E+03  4.15205E+03 -1.53918E+03  4.96449E+03  7.16900E+02
  1.26175E+03  1.35724E+03  3.06149E+02  7.31707E+02 -4.45585E+02 -1.57618E+02  4.46183E+02  3.22799E+01
  1.12031E+03  1.11132E+02  4.64982E+03  2.41049E+03  1.78411E+03  5.66169E+03 -3.54309E+02  8.14674E+03
 -4.08123E+03  5.10280E+03 -5.11803E+03  1.34592E+03 -6.21520E+03 -3.22651E+03 -2.86577E+03 -3.03947E+03
  5.99543E+02 -4.23023E+03  2.74801E+03 -3.86985E+02  3.16817E+03  1.87154E+03 -2.35852E+03  2.86147E+03
 -5.52636E+03  1.15175E+03 -4.33712E+03 -2.99305E+03 -3.74570E+03 -5.02999E+03  9.35739E+02 -4.39517E+03
  1.88696E+03 -3.24350E+03  4.16558E+03 -5.86687E+02  2.46444E+03  1.88718E+03 -8.95838E+02  3.61898E+03
 -1.14279E+03  3.45718E+01 -2.27501E+03 -1.38747E+03  1.08641E+03 -3.91291E+03  4.54661E+03 -4.20626E+03
  6.84665E+03  1.63223E+03  6.68322E+03  4.25007E+03  3.15343E+03  6.14474E+03 -2.31015E+03  4.43628E+03
 -5.78855E+03  2.59070E+03 -6.67284E+03 -1.65721E+03 -2.80723E+03 -4.69552E+03  1.89254E+03 -2.74470E+03
  3.46217E+03 -1.99317E+03  3.74748E+03  9.60480E+02  1.49284E+03  2.85719E+03 -6.38141E+02  3.00815E+03
 -1.12339E+03  1.47715E+03 -5.28658E+02  9.12728E+02 -5.91229E+02  4.06981E+02 -1.62884E+02  1.12173E+03
 -1.67577E+03  9.01823E+02 -4.72590E+03  1.39395E+03 -6.07659E+03  1.09176E+03 -6.57478E+03 -3.23706E+03
 -4.84841E+03 -8.47308E+03  5.76590E+02 -9.53733E+03  5.05144E+03 -6.96982E+03  8.93328E+03 -2.73881E+03
  8.89090E+03  1.53091E+03  5.04341E+03  6.33781E+03  2.04072E+02  6.43104E+03 -3.41434E+03  4.18218E+03
 -4.95264E+03  2.03461E+03 -2.24978E+03 -2.39301E+02 -1.18837E+02 -1.33642E+03 -8.98028E+01  1.83853E+02
 -2.18054E+03  1.28047E+03 -1.43545E+03 -2.70101E+02  4.79789E+02 -3.31143E+03 -3.61501E+02 -2.94276E+03
  2.77959E+03 -2.40747E+03  4.56599E+03 -5.70988E+01  4.90223E+03  3.94485E+03 -1.59560E+03  6.33063E+03
 -2.69695E+03  8.23389E+03 -5.83068E+03  4.97150E+03 -7.92080E+03  9.60274E+01 -4.03594E+03 -3.92106E+03
 -2.83420E+03 -6.22501E+03  1.64764E+03 -5.51834E+03  4.00465E+03 -3.84999E+03  4.03025E+03  7.14541E+02
  1.74481E+03  2.80065E+03 -5.08508E+01  1.94416E+03  2.46585E+02 -9.63735E+02  4.06076E+02 -1.29191E+03
  3.30280E+03  8.95080E+01  1.42021E+03  1.01334E+03  1.73122E+03  1.51142E+03  1.63399E+02  4.14901E+03
 -2.27447E+03  3.21482E+03 -4.01063E+03  2.65295E+02 -2.17223E+03 -2.38045E+03 -8.88275E+02 -6.13640E+03
  2.26014E+03 -3.45205E+03  5.05464E+03 -1.09460E+03  5.37779E+03  7.52807E+02  1.72231E+03  3.66040E+03
  1.49509E+01  2.40149E+03 -1.78789E+03  2.59106E+03 -8.73478E+02  1.15562E+03 -2.08286E+03  1.21923E+03
 -1.31815E+03 -9.58223E+02 -7.46039E+02 -5.36863E+02 -2.51183E+03  1.92457E+03 -4.02137E+03  6.00682E+00
 -2.77889E+03 -1.21898E+03 -8.51913E+02 -4.46153E+03  2.35942E+03 -5.35271E+03  3.29246E+03 -1.42743E+03
  2.70526E+03  1.45849E+03  2.44626E+03  1.39670E+03  2.73652E+02  2.90186E+03 -2.92099E+03  2.98191E+03
