 $NMID ID='MM_0lb_SNR200_13hz_g55_95.RAW', FMTDAT='(8E13.5)'
 TRAMP=1., VOLUME=1. $END
  3.09957E+05  6.27607E+02  3.37820E+05  2.50094E+05  8.38888E+04  3.37012E+05 -1.32076E+05  2.51873E+05
 -1.91337E+05  8.40487E+04 -1.12993E+05 -3.33275E+04  9.98959E+02 -5.12767E+04  5.39206E+04 -1.17836E+03
  3.57715E+04  5.34115E+04 -1.69468E+04  7.66710E+04 -6.11128E+04  6.55511E+04 -8.59993E+04  3.28868E+04
 -8.17850E+04 -1.26059E+04 -5.73790E+04 -5.16394E+04 -1.28754E+04 -7.00830E+04  2.80125E+04 -4.68382E+04
  4.05764E+04  4.00984E+03  1.57465E+04  4.83372E+04 -3.45861E+04  4.52750E+04 -6.73778E+04 -2.35814E+03
 -5.55488E+04 -5.61082E+04 -7.11793E+03 -7.75105E+04  3.39262E+04 -5.51366E+04  4.88651E+04 -1.81549E+04
  4.41787E+04  1.05143E+04  3.29647E+04  2.63388E+04  1.58458E+04  2.95398E+04 -5.04372E+03  2.71424E+04
 -2.20690E+04  1.24549E+04 -1.79265E+04 -4.94830E+03  5.38240E+03 -7.97171E+03  2.38275E+04  1.25588E+04
  6.38256E+03  3.57447E+04 -3.21365E+04  3.51768E+04 -6.32948E+04  1.72223E+03 -5.83148E+04 -4.27636E+04
 -1.12020E+04 -6.36473E+04  4.13878E+04 -4.69732E+04  5.76212E+04 -1.20376E+03  3.58518E+04  3.36541E+04
 -6.34024E+03  3.87531E+04 -3.02318E+04  1.75037E+04 -3.15955E+04 -3.68712E+03 -1.68677E+04 -1.01385E+04
 -9.01028E+03 -1.44358E+04 -2.02660E+02 -2.00006E+04  8.84131E+03 -2.40208E+04  1.59047E+04 -1.42763E+04
  1.10640E+04  5.86635E+03 -8.85143E+03  1.32854E+04 -2.21150E+04 -5.33812E+03 -9.96686E+03 -3.61724E+04
  2.37039E+04 -4.50517E+04  5.01429E+04 -2.06551E+04  4.57644E+04  1.95471E+04  1.58224E+04  4.49902E+04
 -1.68831E+04  3.35644E+04 -2.49718E+04  8.24293E+02 -9.77921E+03 -2.75848E+04  2.08153E+04 -3.49198E+04
  4.24496E+04 -9.42161E+03  3.86431E+04  2.48739E+04  1.98772E+04  4.78110E+04 -7.93087E+03  5.16502E+04
 -3.25105E+04  3.43374E+04 -4.46953E+04  1.03675E+04 -4.45539E+04 -1.80862E+04 -2.47916E+04 -4.01460E+04
  6.63508E+03 -3.96510E+04  3.34841E+04 -1.49823E+04  3.06594E+04  1.14600E+04  4.37402E+03  2.00071E+04
 -1.38224E+04  9.80924E+03 -9.93161E+03 -6.31051E+03  6.26181E+03 -1.01312E+04  1.78396E+04  5.57138E+03
  1.51778E+04  2.23699E+04 -5.68754E+03  2.54217E+04 -2.22011E+04  1.19846E+04 -2.85429E+04 -4.09105E+03
 -2.31435E+04 -1.85923E+04 -1.04344E+04 -2.21979E+04  5.33237E+03 -2.20832E+04  1.77401E+04 -1.98803E+04
  2.94140E+04 -1.28829E+04  3.48500E+04  3.71205E+03  2.64775E+04  2.19137E+04  5.70881E+03  3.78091E+04
 -1.74687E+04  3.27707E+04 -2.92330E+04  1.13418E+04 -2.14045E+04 -9.75889E+03 -3.83242E+03 -1.50479E+04
  2.03525E+03 -2.31980E+03 -7.05075E+03  6.99709E+03 -1.79874E+04  4.74874E+03 -1.83613E+04 -8.45906E+03
 -1.13037E+04 -2.15829E+04  4.35429E+03 -2.46849E+04  1.54585E+04 -1.80269E+04  1.93763E+04 -1.50390E+03
  1.18219E+04  1.44377E+04  9.68027E+01  2.04536E+04 -1.51141E+04  1.13522E+04 -2.09085E+04 -4.30959E+03
 -1.42704E+04 -1.83929E+04 -2.83366E+03 -2.37154E+04  1.06551E+04 -2.13325E+04  2.09098E+04 -9.59176E+03
  1.90466E+04 -3.71411E+01  1.34144E+04  4.35788E+03  9.15651E+03  5.48987E+02  1.08706E+04 -2.38941E+03
  2.03148E+04  2.79756E+03  2.20958E+04  1.53598E+04  1.38685E+04  3.34844E+04 -2.57518E+03  3.75395E+04
 -2.25833E+04  3.06899E+04 -3.50715E+04  1.59072E+04 -3.73690E+04 -1.43944E+03 -3.07911E+04 -2.14005E+04
 -1.25636E+04 -3.13352E+04  1.01086E+04 -2.71473E+04  2.29947E+04 -1.21653E+04  2.05382E+04  7.35667E+03
  7.20645E+03  1.55420E+04 -8.59548E+03  1.43286E+04 -1.71305E+04  2.08066E+03 -1.36748E+04 -8.87827E+03
 -9.98212E+01 -1.72290E+04  7.83586E+03 -1.12876E+04  9.90179E+03 -8.67386E+02  2.67334E+03  7.98719E+03
 -6.80128E+03  2.11306E+03 -7.75825E+03 -4.83860E+03 -9.45292E+02 -1.44614E+04  1.06320E+04 -1.59731E+04
  1.99633E+04 -9.32348E+03  2.07598E+04  2.19900E+03  1.78624E+04  1.55367E+04  8.40428E+03  2.08285E+04
 -3.26515E+03  2.51932E+04 -1.59150E+04  1.62956E+04 -1.82162E+04  2.21741E+03 -1.28018E+04 -5.41552E+03
 -6.60462E+03 -5.06814E+03 -8.91352E+02  6.35912E+02 -2.23523E+03  2.71679E+03 -6.79988E+03  5.16169E+03
 -1.25229E+04  1.78271E+02 -1.26065E+04 -8.44139E+03 -5.27219E+03 -1.55778E+04  5.15183E+03 -1.39262E+04
  1.01402E+04 -5.94640E+03  6.77217E+03  4.14420E+03  3.71933E+02  5.48628E+03 -5.92131E+03 -2.10129E+03
 -5.50465E+03 -6.64599E+03 -1.15458E+03 -1.25298E+04  7.48740E+03 -1.33520E+04  1.60547E+04 -6.62374E+03
  1.82214E+04  2.60493E+02  1.43272E+04  1.03028E+04  2.34096E+03  1.47024E+04 -7.23958E+03  1.20097E+04
 -1.09379E+04  2.98713E+03 -6.82490E+03 -2.41386E+03  1.95336E+03 -2.98873E+03  7.03375E+03 -4.49990E+02
  6.20389E+03  4.78489E+03  1.07239E+03  1.00037E+04 -8.03190E+03  9.26703E+03 -1.26984E+04  2.50708E+03
 -9.07205E+03 -6.88258E+03 -8.62965E+02 -1.09606E+04  7.14744E+03 -5.43716E+03  6.08437E+03  3.08655E+03
  2.89021E+03  7.12848E+03 -6.70143E+03  9.30795E+03 -1.00292E+04  3.25425E+03 -1.09522E+04 -2.77420E+03
 -7.16897E+03 -1.19398E+04  2.63586E+03 -1.26125E+04  9.61569E+03 -8.23926E+03  1.20312E+04  2.39698E+03
  7.15666E+03  1.00624E+04 -1.65765E+03  1.16857E+04 -8.70656E+03  6.59708E+03 -9.02709E+03 -1.73427E+03
 -8.40263E+03 -8.22280E+03 -2.40241E+03 -9.08860E+03  5.01125E+03 -7.42452E+03  5.40033E+03 -3.85067E+03
  3.30986E+03  1.49072E+03 -5.63622E+02 -1.42127E+00 -4.57369E+02 -2.51620E+03  2.01241E+03 -3.99218E+03
  7.01058E+03 -2.87103E+03  1.06004E+04  1.36132E+03  9.86783E+03  6.37502E+03  7.74870E+03  1.46553E+04
 -2.36797E+03  1.65937E+04 -1.29294E+04  1.38270E+04 -1.85896E+04  3.37281E+03 -1.45508E+04 -6.22367E+03
 -7.37126E+03 -1.26199E+04  8.51092E+01 -1.02827E+04  4.41250E+03 -6.23686E+03  2.84438E+03 -3.94810E+03
  1.54007E+03 -2.98883E+03  3.52733E+03 -3.00042E+03  5.74707E+03 -1.44137E+03  6.11552E+03 -2.23295E+03
  7.97255E+03  2.27352E+03  4.41520E+03  7.00614E+03 -2.79062E+03  7.61538E+03 -7.42783E+03  4.93393E+03
 -1.03889E+04 -1.42972E+03 -5.49260E+03 -7.65982E+03 -7.62226E+02 -1.29186E+04  5.62336E+03 -1.05262E+04
  9.63435E+03 -4.86790E+03  1.29648E+04  1.18435E+03  9.54813E+03  8.65075E+03  1.41545E+03  1.34875E+04
 -5.21709E+03  1.00842E+04 -6.63523E+03  2.53633E+03 -4.82329E+03 -3.03183E+03 -2.41629E+03 -9.25647E+02
 -8.64896E+02 -7.80992E+01 -1.12721E+03  2.47788E+03 -5.11176E+03  1.49920E+03 -6.27066E+03  4.89340E+01
 -4.57753E+03 -6.21930E+03  4.08404E+02 -1.09766E+04  5.45789E+03 -1.04046E+04  9.80050E+03 -2.10860E+03
  9.75020E+03  4.61410E+03  4.26263E+03  9.15101E+03 -2.08531E+03  1.00102E+04 -6.30715E+03  5.98681E+03
 -9.80312E+03  3.09481E+01 -7.25343E+03 -5.02650E+03  1.11437E+02 -7.07933E+03  3.24401E+03 -5.30778E+03
  5.36232E+03 -2.15185E+03  2.79021E+03  1.97724E+03  1.40870E+03  3.37452E+03  1.53631E+03  1.65245E+03
  1.96065E+03 -4.63545E+02  2.93113E+03  7.78645E+02  2.14107E+03  3.27285E+03  3.80230E+03  4.34965E+03
 -3.28930E+03  7.85145E+03 -6.29941E+03  7.86438E+03 -8.12670E+03  8.98975E+02 -1.04550E+04 -4.59442E+03
 -4.35319E+03 -1.00115E+04  2.08211E+03 -9.65328E+03  4.68905E+03 -6.01305E+03  7.75618E+03 -1.36102E+03
  5.95626E+03  3.79397E+03  1.54381E+03  5.78259E+03 -2.40829E+03  2.38583E+03 -2.92524E+03 -1.50928E+03
 -2.03539E+03 -4.25630E+03  1.79173E+03 -4.48934E+03  5.17885E+03 -2.44516E+03  4.50575E+03  2.04610E+02
  2.09548E+03  3.21374E+03  2.61346E+03  2.60245E+01  9.19125E+02  1.09798E+03  1.33705E+03  2.54582E+02
 -5.28946E+01 -5.35353E+02  2.93209E+03  1.47452E+03  1.58810E+03  5.04049E+03  4.10078E+01  7.64110E+03
 -5.11284E+03  4.42890E+03 -5.67336E+03  5.44473E+02 -5.36979E+03 -1.58301E+03 -1.56831E+03 -4.09344E+03
  1.66138E+03 -3.17796E+03  2.58694E+03 -1.46259E+03  5.69706E+02  1.66885E+03 -1.39110E+03  3.10398E+03
 -3.27275E+03  9.98267E+02 -5.76924E+03 -1.31395E+03 -2.74238E+03 -4.39337E+03  1.45057E+02 -4.50698E+03
  2.63715E+03 -3.11386E+03  4.54139E+03 -1.34317E+03  1.74658E+03  8.18248E+02  5.04452E+02  3.41715E+03
 -3.97087E+02  8.43851E+02 -2.16755E+03 -2.26656E+03  6.69133E+02 -3.44740E+03  3.34967E+03 -3.13601E+03
  4.00390E+03  1.62890E+03  6.60635E+03  3.35147E+03  1.86187E+03  3.84208E+03 -1.95842E+03  6.04954E+03
 -3.74243E+03  1.32367E+03 -4.19015E+03 -1.89389E+03 -2.41008E+03 -3.63215E+03  8.52217E+02 -3.02047E+03
  4.38035E+03 -1.43575E+03  2.94373E+03  1.52503E+03  1.58497E+03  2.14359E+03  1.43149E+02  2.18436E+03
 -7.69270E+02  2.31295E+03 -9.02320E+02  2.17821E+02 -1.67051E+03  2.74016E+03 -5.48038E+02  1.71220E+03
 -8.71402E+02  1.20202E+03 -4.17050E+03  2.76266E+03 -6.42035E+03 -7.04653E+02 -7.07709E+03 -3.74506E+03
 -2.24912E+03 -5.87042E+03  1.33445E+03 -7.68321E+03  4.34936E+03 -6.29776E+03  7.37706E+03 -1.92887E+03
  7.19498E+03  1.58454E+03  4.42788E+03  3.84064E+03  2.18629E+02  3.98885E+03 -2.28399E+03  4.42992E+03
 -2.97248E+03  4.98572E+02 -1.46396E+03 -8.96740E+02 -2.65777E+03 -4.10706E+02 -1.83066E+02  1.43668E+02
 -6.20635E+02  8.58427E+02 -3.95807E+02  2.56386E+02  6.37145E+02 -1.29021E+03 -2.04287E+02 -2.98998E+03
  1.87364E+03 -2.42652E+03  2.25079E+03 -9.54584E+02  2.73842E+03  3.85368E+03  8.01235E+02  3.85848E+03
 -1.38804E+03  5.45965E+03 -4.32341E+03  2.82209E+03 -6.35442E+03  3.69435E+02 -3.69512E+03 -2.82007E+03
 -2.63594E+03 -4.79648E+03  8.42301E+02 -4.62947E+03  2.73580E+03 -2.90641E+03  1.73673E+03 -6.57096E+01
  8.54883E+02  2.44376E+03  5.92099E+00  5.94833E+02 -4.04441E+02  3.23772E+02  1.76384E+03 -1.69747E+02
  1.16652E+03 -3.43223E+02  2.13180E+03  7.34294E+02  2.41040E+03  1.41157E+03 -4.01740E+02  2.35232E+03
 -9.20564E+02  2.84568E+03 -3.71930E+03  6.09952E+02 -2.01876E+03 -2.01495E+03  8.15683E+02 -3.37855E+03
  2.01632E+03 -3.72465E+03  3.88199E+03  5.12078E+02  3.66854E+03 -1.34567E+02  2.96250E+03  3.23422E+03
 -1.00864E+02  2.55389E+03 -1.25902E+02  3.02887E+03 -3.15539E+03  1.52535E+03 -1.99306E+03 -4.14730E+02
 -3.71423E+02  1.97964E+03 -8.56203E+02 -1.02135E+03 -8.64446E+02  1.68331E+03 -2.36039E+03  4.58022E+02
 -3.40191E+03 -1.64721E+03 -1.74233E+03 -2.12710E+03  9.09949E+02 -4.93009E+03  2.42286E+03 -1.83694E+03
  3.52680E+03  1.03635E+02  7.30491E+02  2.00781E+03 -7.61312E+02  1.94156E+03 -9.71299E+02  2.74251E+03
