 $NMID ID='MM_0lb_SNR200_17hz_g50_10.RAW', FMTDAT='(8E13.5)'
 TRAMP=1., VOLUME=1. $END
  3.10050E+05 -5.57055E+02  3.37243E+05  2.49709E+05  8.42501E+04  3.37373E+05 -1.33373E+05  2.51755E+05
 -1.90029E+05  8.24918E+04 -1.10971E+05 -3.25617E+04  1.27615E+03 -5.07880E+04  5.32627E+04  3.79793E+02
  3.48766E+04  5.36220E+04 -1.60866E+04  7.55243E+04 -5.98981E+04  6.29672E+04 -8.33287E+04  3.12803E+04
 -7.89572E+04 -1.04975E+04 -5.70040E+04 -5.07491E+04 -1.49360E+04 -6.87852E+04  2.63327E+04 -4.51266E+04
  3.92638E+04  4.70082E+03  1.64343E+04  4.71018E+04 -3.39782E+04  4.71012E+04 -6.56842E+04  1.09664E+02
 -5.27044E+04 -5.74938E+04 -5.44845E+03 -7.51772E+04  3.32053E+04 -5.45005E+04  4.72783E+04 -1.65363E+04
  4.22304E+04  1.05948E+04  3.13581E+04  2.52240E+04  1.63727E+04  2.95942E+04 -5.25634E+03  2.69307E+04
 -2.10321E+04  1.19435E+04 -1.84059E+04 -4.78987E+03  4.77571E+03 -7.11714E+03  2.22410E+04  1.18157E+04
  8.17158E+03  3.37759E+04 -2.99014E+04  3.48909E+04 -6.26813E+04  2.34262E+03 -5.55533E+04 -4.15389E+04
 -1.22321E+04 -6.17256E+04  3.84146E+04 -4.45606E+04  5.76319E+04 -2.78191E+03  3.37376E+04  3.13718E+04
 -6.60522E+03  3.31862E+04 -2.87006E+04  1.50058E+04 -2.87956E+04 -5.62797E+03 -1.46068E+04 -1.09071E+04
 -7.26633E+03 -1.21362E+04  1.28775E+02 -1.65293E+04  6.93334E+03 -2.24304E+04  1.50506E+04 -1.35370E+04
  1.03808E+04  3.78773E+03 -7.47963E+03  1.36728E+04 -2.01183E+04 -3.07729E+03 -9.37036E+03 -3.13097E+04
  2.11639E+04 -4.21612E+04  4.59082E+04 -1.80388E+04  4.42255E+04  1.91692E+04  1.54161E+04  4.22694E+04
 -1.60748E+04  3.18734E+04 -2.51727E+04  1.81417E+03 -9.69355E+03 -2.74463E+04  2.02817E+04 -3.25785E+04
  3.99677E+04 -7.76966E+03  3.22640E+04  2.28030E+04  1.53531E+04  4.37616E+04 -8.40580E+03  4.71069E+04
 -2.90827E+04  3.06557E+04 -3.96466E+04  8.83773E+03 -4.00337E+04 -1.52205E+04 -2.28477E+04 -3.51729E+04
  7.08759E+03 -3.52524E+04  2.95028E+04 -1.35421E+04  2.80480E+04  1.18903E+04  2.74751E+03  1.80240E+04
 -1.26619E+04  8.25978E+03 -1.08941E+04 -7.75482E+03  5.56054E+03 -1.07666E+04  1.56979E+04  5.50878E+03
  1.28983E+04  2.18191E+04 -6.15193E+03  2.40201E+04 -2.06737E+04  1.00910E+04 -2.70032E+04 -5.91973E+03
 -1.90709E+04 -1.61963E+04 -7.79955E+03 -1.96315E+04  4.43383E+03 -1.75374E+04  1.28826E+04 -1.48311E+04
  2.25172E+04 -1.17327E+04  2.89566E+04  2.14796E+03  2.18538E+04  1.87088E+04  3.78515E+03  3.39884E+04
 -1.61391E+04  2.90785E+04 -2.64167E+04  1.04269E+04 -2.14049E+04 -1.14205E+04 -4.33197E+03 -1.41531E+04
  3.15197E+03 -3.51770E+03 -2.78128E+03  6.11900E+03 -1.35729E+04  4.90347E+03 -1.42287E+04 -5.95711E+03
 -9.71215E+03 -1.65287E+04  3.80360E+03 -2.13679E+04  1.32188E+04 -1.47693E+04  1.61550E+04 -2.34422E+02
  9.74111E+03  1.15864E+04 -8.43758E+02  1.74881E+04 -1.12524E+04  9.24522E+03 -1.68156E+04 -4.38442E+03
 -1.18645E+04 -1.61438E+04 -1.23295E+03 -2.10520E+04  9.43210E+03 -1.68283E+04  1.74213E+04 -9.83350E+03
  1.57094E+04  4.96429E+02  1.24419E+04  3.62984E+03  5.13245E+03  4.92530E+02  8.02355E+03 -1.63055E+03
  1.55853E+04  2.73854E+03  1.73552E+04  1.28790E+04  1.04263E+04  2.74695E+04 -2.94679E+03  2.95120E+04
 -1.75431E+04  2.30911E+04 -2.75481E+04  1.05090E+04 -2.78344E+04 -1.16239E+03 -2.29086E+04 -1.62098E+04
 -1.05108E+04 -2.24609E+04  9.24601E+03 -2.06364E+04  1.76700E+04 -1.10737E+04  1.68399E+04  3.91851E+03
  6.01309E+03  1.21360E+04 -8.04049E+03  1.17882E+04 -1.46280E+04  1.90659E+03 -1.12684E+04 -9.43246E+03
 -9.99345E+02 -1.36847E+04  7.30276E+03 -8.88493E+03  8.34854E+03 -1.04936E+03  2.27444E+03  5.00013E+03
 -7.33179E+03  1.87602E+03 -4.12964E+03 -5.36426E+03  9.59600E+01 -1.03313E+04  7.82562E+03 -1.09841E+04
  1.31798E+04 -6.16063E+03  1.47984E+04  1.88850E+03  1.33933E+04  1.01253E+04  6.01061E+03  1.67866E+04
 -2.44479E+03  1.77090E+04 -1.12632E+04  1.19922E+04 -1.26186E+04  2.99625E+03 -9.45743E+03 -3.10895E+03
 -4.90559E+03 -2.27856E+03 -6.29466E+02  1.40301E+03 -1.72073E+03  2.38667E+03 -4.98039E+03  3.33722E+03
 -9.88076E+03  3.17716E+02 -1.05492E+04 -8.57183E+03 -4.03795E+03 -1.33588E+04  3.29623E+03 -9.61146E+03
  8.20007E+03 -3.26007E+03  5.94779E+03  1.39230E+03 -1.33842E+02  3.21884E+03 -3.68650E+03 -8.95849E+02
 -4.38527E+03 -5.52872E+03 -1.03512E+03 -7.91656E+03  4.98635E+03 -8.10832E+03  1.21776E+04 -5.07535E+03
  1.34699E+04  2.22294E+02  1.02261E+04  7.00893E+03  1.85932E+03  8.85360E+03 -5.37567E+03  8.20396E+03
 -8.00618E+03  2.83827E+03 -3.65182E+03 -1.17053E+03  1.96951E+03 -2.01527E+03  4.75427E+03  7.58568E+01
  5.14980E+03  4.00608E+03  1.13565E+03  6.02562E+03 -4.98592E+03  7.05424E+03 -9.71424E+03  1.08600E+03
 -4.28575E+03 -4.69147E+03  1.03647E+03 -6.88490E+03  3.59378E+03 -4.40718E+03  4.73469E+03  4.38237E+02
  3.94544E+02  4.12821E+03 -4.47574E+03  5.35514E+03 -5.87530E+03  2.95813E+03 -6.05676E+03 -1.92991E+03
 -3.65373E+03 -6.33964E+03  1.42512E+03 -8.44231E+03  7.51720E+03 -4.37552E+03  8.66455E+03  1.14506E+03
  5.19599E+03  6.05076E+03 -5.33828E+02  8.37106E+03 -4.88269E+03  4.72761E+03 -5.31158E+03 -9.04871E+02
 -6.72406E+03 -5.70813E+03 -7.78531E+02 -5.71235E+03  4.32176E+03 -5.64585E+03  3.31473E+03 -3.16086E+03
  2.04539E+03  2.93895E+02  5.76841E+02  1.54795E+03 -4.00698E+02 -1.70934E+03 -5.73134E+02 -3.32881E+03
  4.71142E+03 -1.38214E+03  6.95571E+03  1.12391E+03  7.00491E+03  4.89727E+03  6.17375E+03  8.35168E+03
 -1.05360E+03  9.87116E+03 -8.86024E+03  8.47777E+03 -1.20201E+04  4.94869E+02 -9.16983E+03 -3.23923E+03
 -4.24417E+03 -7.03025E+03  1.48815E+02 -6.52465E+03  3.04806E+03 -2.65848E+03  9.80741E+02 -1.70490E+03
  1.15699E+03 -2.98300E+03  2.16208E+03 -2.70045E+03  4.32547E+03 -1.52162E+03  4.98530E+03  3.52874E+02
  5.08620E+03  1.35281E+03  1.11927E+03  3.71172E+03 -2.91630E+02  2.44723E+03 -5.49750E+03  2.63960E+03
 -6.37335E+03 -1.25196E+03 -2.40766E+03 -4.19173E+03 -3.27235E+02 -5.69846E+03  3.56009E+03 -5.95840E+03
  6.25977E+03 -4.36929E+03  8.78165E+03  4.47478E+02  6.67025E+03  4.60766E+03  1.54650E+03  6.70579E+03
 -2.59894E+03  5.48172E+03 -4.43256E+03  2.16315E+03 -2.60217E+03 -6.88777E+02  2.64169E+02  4.44006E+02
 -1.01599E+03  3.46506E+02 -1.25724E+03  1.94075E+03 -3.64888E+03  9.99620E+02 -4.48701E+03 -9.36229E+02
 -2.21987E+03 -5.19483E+03 -8.42455E+01 -5.40172E+03  3.30759E+03 -5.32239E+03  4.16610E+03 -1.55970E+03
  4.90078E+03  2.43632E+03  1.45413E+03  3.32823E+03 -1.20565E+03  5.40728E+03 -3.73802E+03  4.30373E+03
 -4.26188E+03  2.75224E+02 -3.49357E+03 -3.71945E+03  4.61431E+02 -3.32986E+03  2.36170E+03 -4.02816E+03
  4.23814E+03 -8.29247E+02  2.47923E+03  4.21441E+01  4.83251E+02  1.26878E+03 -1.95976E+01  5.81185E+02
  2.59492E+03 -2.18811E+01  1.50756E+03  7.12036E+02  1.12763E+03  1.70822E+03  1.10658E+03  2.67298E+03
 -2.33479E+03  3.65456E+03 -3.62703E+03  4.38086E+03 -4.94683E+03  1.74098E+03 -4.99384E+03 -1.01793E+03
 -2.63611E+03 -4.09967E+03  1.25562E+03 -5.61475E+03  3.09860E+03 -2.50315E+03  4.44794E+03 -1.24825E+03
  3.54346E+03  2.08352E+03 -9.41237E+02  2.77486E+03 -3.36936E+02  1.64555E+03 -1.67438E+03 -9.03876E+02
  3.85821E+02 -1.99281E+03  1.66039E+03 -2.75253E+03  9.32297E+02 -1.24543E+03  1.31125E+03 -1.04281E+02
  1.11885E+03  1.14958E+03  4.30237E+02 -3.13734E+02 -1.39917E+02  7.04063E+02  1.59613E+03 -5.62859E+02
 -1.20414E+02 -5.10917E+02  6.64671E+02  5.18996E+02  6.54612E+02  3.79945E+03 -5.65718E+02  5.26649E+03
 -2.98892E+03  1.77684E+03 -2.10478E+03  1.31991E+03 -1.75922E+03 -1.98736E+03  8.99618E+02 -1.55451E+03
  2.12988E+01 -1.50375E+03  1.45105E+03 -4.09330E+01  5.11311E+02  1.78658E+03 -1.29022E+03  1.31816E+03
 -1.52842E+03  8.88704E+02 -1.36630E+03 -1.58016E+03 -2.85910E+02 -2.54208E+03 -2.95154E+02 -1.80774E+03
 -7.36665E+02 -8.49313E+02  4.64685E+02  4.47564E+02  1.53876E+03  8.76112E+01  2.29134E+02  1.91396E+03
  1.86809E+01  2.06517E+02 -1.45488E+03 -3.04244E+02  2.14782E+03 -7.84091E+02  2.88081E+03 -9.55998E+02
  1.98884E+03 -2.79284E+02  3.57259E+03  1.78727E+03  1.33979E+03  8.88660E+02 -6.51128E+02  2.79159E+03
 -7.96396E+02  4.84698E+02 -1.96215E+03  9.71781E+02 -6.78684E+02 -2.16100E+03  7.09507E+02 -1.36306E+02
  2.64951E+03 -6.65271E+02  1.55158E+03  4.84443E+02 -6.01085E+02  9.58162E+02 -7.72677E+01  1.35173E+03
 -7.48411E+02  4.58951E+02 -1.55876E+03  6.39266E+01 -3.31366E+02  7.76702E+02 -1.28775E+03  1.02726E+03
 -1.92260E+03  4.23929E+01 -1.96167E+03  4.81543E+02 -3.52936E+03 -4.60144E+01 -3.39608E+03 -1.95102E+03
 -1.39567E+03 -2.61302E+03  9.11317E+02 -3.79268E+03  1.40704E+03 -3.56360E+03  3.99544E+03 -1.11661E+03
  3.05811E+03 -3.37131E+02  1.22919E+03  1.73115E+03 -7.47260E+01  2.08574E+03 -7.57246E+02  7.69755E+02
 -1.67685E+03  1.86743E+01 -4.51111E+02 -5.90583E+02  4.01371E+02 -2.00233E+02  5.40638E+02  3.57023E+02
 -1.24680E+03 -2.22854E+02 -9.39655E+02 -1.90067E+02 -2.22422E+02 -6.36269E+02  9.29288E+02 -5.49456E+02
  2.07893E+03 -3.66415E+02  3.30755E+02  1.98307E+03  2.36428E+03  1.20796E+03 -6.95260E+02  2.04909E+03
 -1.36148E+03  2.40430E+03 -2.57007E+03  1.89739E+03 -1.74887E+03 -5.98527E+02 -2.22234E+03 -1.18505E+03
 -7.33106E+02 -1.71786E+03  1.07703E+01 -2.45684E+03  1.19029E+03  3.01199E+02 -2.25255E+02  1.60685E+01
  2.18953E+02  7.55994E+02  2.70031E+01  2.17954E+02 -1.11505E+03 -2.53190E+02  6.02115E+02  6.98340E+02
  5.17900E+02 -1.74852E+02  1.12218E+03  1.14959E+03  4.63720E+02 -2.03349E+02  1.21304E+03  2.08282E+03
 -5.76856E+02  1.35395E+03 -1.77589E+03  1.62640E+03 -1.41071E+03 -1.15710E+03  1.58999E+03 -2.66169E+03
  7.32414E+02 -1.72916E+03  1.58279E+03 -5.42430E+02  7.21082E+02 -7.94794E+02  6.37861E+02  1.17848E+03
  6.93718E+02  1.68292E+02 -2.04820E+02  9.03157E+02 -6.14722E+02  6.15107E+02 -1.58841E+02 -1.39885E+02
 -2.88265E+02 -4.49447E+02 -9.19289E+02 -2.58658E+02 -3.71836E+02  6.73662E+02 -1.47787E+03 -2.30461E+02
 -1.66070E+03 -3.82757E+02 -6.05808E+02 -1.41564E+03  8.22303E+02 -1.72916E+03  1.56195E+03  3.69495E+00
  1.99851E+03  6.76287E+01 -1.54189E+02  4.22036E+02  2.10384E+02  2.40894E+03 -8.61450E+02  1.09881E+01
