 $NMID ID='MM_0lb_SNR200_12hz_g40_94.RAW', FMTDAT='(8E13.5)'
 TRAMP=1., VOLUME=1. $END
  3.10276E+05  1.58191E+02  3.38456E+05  2.50394E+05  8.55078E+04  3.37915E+05 -1.32829E+05  2.50869E+05
 -1.89021E+05  8.43597E+04 -1.11249E+05 -3.06860E+04  3.47742E+02 -5.05838E+04  5.33009E+04  4.77134E+02
  3.66741E+04  5.26295E+04 -1.60467E+04  7.49978E+04 -6.12869E+04  6.56477E+04 -8.42107E+04  3.31669E+04
 -8.16425E+04 -1.12702E+04 -5.66836E+04 -5.11520E+04 -1.56669E+04 -7.02788E+04  2.73513E+04 -4.47566E+04
  4.03876E+04  4.05169E+03  1.58324E+04  4.68635E+04 -3.40939E+04  4.73817E+04 -6.70294E+04 -1.52758E+03
 -5.43625E+04 -5.65747E+04 -6.58189E+03 -7.62833E+04  3.32265E+04 -5.52986E+04  4.87955E+04 -1.86192E+04
  4.30380E+04  1.08218E+04  3.24339E+04  2.54901E+04  1.50743E+04  2.98710E+04 -5.76750E+03  2.82463E+04
 -2.11767E+04  1.43157E+04 -1.81853E+04 -4.21881E+03  5.77202E+03 -7.05059E+03  2.16842E+04  1.25164E+04
  6.99116E+03  3.67782E+04 -3.25698E+04  3.61203E+04 -6.41100E+04  3.49183E+03 -5.72160E+04 -4.33787E+04
 -1.37483E+04 -6.37363E+04  3.99498E+04 -4.41546E+04  5.96524E+04 -1.80891E+03  3.37122E+04  3.21174E+04
 -6.13473E+03  3.68229E+04 -3.00347E+04  1.72997E+04 -3.06072E+04 -4.34828E+03 -1.64665E+04 -1.04499E+04
 -8.21980E+03 -1.27336E+04 -4.30786E+02 -1.81477E+04  7.35665E+03 -2.45528E+04  1.42495E+04 -1.40743E+04
  1.11220E+04  5.72337E+03 -8.58626E+03  1.33306E+04 -2.16747E+04 -4.91179E+03 -7.98424E+03 -3.49035E+04
  2.38989E+04 -4.36809E+04  4.89976E+04 -1.88571E+04  4.58727E+04  1.87378E+04  1.47484E+04  4.44336E+04
 -1.56547E+04  3.55087E+04 -2.55632E+04  1.25058E+03 -9.93000E+03 -2.68185E+04  2.08672E+04 -3.53878E+04
  4.24164E+04 -9.02370E+03  3.61775E+04  2.40965E+04  1.85556E+04  4.77859E+04 -7.24035E+03  5.25235E+04
 -3.28369E+04  3.45391E+04 -4.16964E+04  9.48550E+03 -4.31417E+04 -1.67682E+04 -2.41571E+04 -3.81752E+04
  7.54644E+03 -3.97526E+04  3.11566E+04 -1.55927E+04  2.94005E+04  1.01813E+04  4.88371E+03  1.91864E+04
 -1.25030E+04  8.07887E+03 -1.19361E+04 -7.23353E+03  5.21171E+03 -1.04969E+04  1.70999E+04  5.36290E+03
  1.39944E+04  2.15953E+04 -6.04715E+03  2.62927E+04 -2.32191E+04  1.13534E+04 -2.87871E+04 -5.24128E+03
 -2.21150E+04 -1.74785E+04 -9.09853E+03 -2.14857E+04  2.97302E+03 -2.03432E+04  1.61098E+04 -1.89094E+04
  2.58164E+04 -1.29244E+04  3.24692E+04  3.17699E+03  2.47733E+04  2.06159E+04  5.79647E+03  3.85771E+04
 -1.83419E+04  3.00433E+04 -2.80011E+04  1.06161E+04 -2.04874E+04 -1.02579E+04 -4.17117E+03 -1.38597E+04
  2.12085E+03 -2.04535E+03 -5.36238E+03  6.30124E+03 -1.65108E+04  4.93807E+03 -1.69024E+04 -7.60656E+03
 -1.13171E+04 -1.96761E+04  7.05474E+03 -2.42230E+04  1.70736E+04 -1.67499E+04  1.93717E+04 -1.58758E+03
  1.17570E+04  1.35664E+04 -6.31930E+02  1.99236E+04 -1.33327E+04  1.11514E+04 -2.06521E+04 -3.75724E+03
 -1.57632E+04 -1.73170E+04 -1.02472E+03 -2.39031E+04  1.12656E+04 -1.91089E+04  1.99378E+04 -1.05829E+04
  1.78901E+04 -3.40652E+02  1.24310E+04  3.64305E+03  6.22964E+03  1.69466E+03  1.07444E+04 -1.99949E+03
  1.72580E+04  1.74074E+03  1.98164E+04  1.63061E+04  1.36020E+04  3.07161E+04 -2.74357E+03  3.55211E+04
 -2.11565E+04  2.95547E+04 -3.47412E+04  1.49897E+04 -3.55045E+04 -1.70083E+03 -2.87953E+04 -2.01356E+04
 -1.18667E+04 -2.93156E+04  9.26100E+03 -2.57234E+04  2.29916E+04 -1.28606E+04  1.86749E+04  6.71590E+03
  7.75090E+03  1.65848E+04 -9.65095E+03  1.35971E+04 -1.60073E+04  2.25219E+03 -1.30630E+04 -1.09282E+04
 -4.48590E+02 -1.51293E+04  7.63759E+03 -1.27634E+04  1.13828E+04  4.50059E+02  2.21810E+03  6.85483E+03
 -6.36830E+03  2.61966E+03 -8.16077E+03 -6.52754E+03  4.62982E+02 -1.34903E+04  9.89130E+03 -1.58049E+04
  1.64514E+04 -8.82162E+03  2.10062E+04  2.61800E+03  1.69151E+04  1.34798E+04  9.75778E+03  2.11363E+04
 -3.93001E+03  2.43266E+04 -1.36764E+04  1.52187E+04 -1.73148E+04  3.13318E+03 -1.16453E+04 -4.52255E+03
 -5.43935E+03 -4.91274E+03 -5.33206E+02  8.89576E+02 -2.60609E+03  2.56776E+03 -5.18406E+03  4.65200E+03
 -1.19284E+04  6.45543E+02 -1.32211E+04 -1.00180E+04 -4.52275E+03 -1.63598E+04  4.87138E+03 -1.30516E+04
  1.05126E+04 -5.15075E+03  7.26318E+03  3.13468E+03 -1.36583E+03  4.95687E+03 -5.76150E+03 -5.09491E+02
 -5.03829E+03 -7.96169E+03 -2.06854E+03 -1.25289E+04  6.83432E+03 -1.22126E+04  1.42864E+04 -7.16110E+03
  1.82613E+04  9.57668E+02  1.27131E+04  9.86582E+03  2.23253E+03  1.40533E+04 -8.01994E+03  1.31611E+04
 -1.09880E+04  4.36922E+03 -5.34704E+03 -3.32092E+03  2.70096E+03 -2.71245E+03  6.70195E+03 -5.93599E+02
  6.41810E+03  5.12064E+03  1.36613E+03  9.30249E+03 -7.49288E+03  9.42485E+03 -1.31049E+04  2.13502E+03
 -7.52396E+03 -6.91069E+03  9.48677E+02 -9.68727E+03  6.66396E+03 -4.85109E+03  6.85891E+03  2.44855E+03
  9.98478E+02  7.23134E+03 -5.48562E+03  7.79590E+03 -1.01615E+04  3.68234E+03 -9.63158E+03 -4.09991E+03
 -5.86358E+03 -1.14577E+04  1.78058E+03 -1.40466E+04  1.08605E+04 -7.61210E+03  1.25785E+04  2.33161E+03
  8.34645E+03  9.67920E+03 -3.95425E+02  1.17295E+04 -8.05821E+03  6.40301E+03 -9.46456E+03  2.64005E+01
 -8.05962E+03 -7.32654E+03 -2.57467E+03 -8.82795E+03  4.96965E+03 -6.31062E+03  5.11026E+03 -3.16538E+03
  3.11584E+03  3.20310E+03 -6.96085E+02  1.62238E+03  1.51121E+02 -1.67509E+03  2.03736E+03 -5.89810E+03
  7.81267E+03 -2.27003E+03  1.01783E+04  2.57637E+03  1.22710E+04  7.19823E+03  8.80211E+03  1.37882E+04
 -4.09424E+03  1.70719E+04 -1.34321E+04  1.33930E+04 -1.86529E+04  3.08372E+03 -1.37900E+04 -6.25794E+03
 -8.38495E+03 -1.29477E+04 -1.07225E+02 -1.11686E+04  4.52964E+03 -5.19820E+03  3.37813E+03 -3.81228E+03
  2.59163E+03 -2.28147E+03  3.08660E+03 -3.40480E+03  5.46939E+03 -1.65688E+03  6.49786E+03 -4.65277E+02
  7.51609E+03  1.76929E+03  2.87365E+03  5.65738E+03 -2.81000E+03  6.66497E+03 -8.72996E+03  7.05115E+03
 -9.95808E+03 -1.27521E+03 -5.71525E+03 -7.60242E+03 -1.32647E+03 -1.19585E+04  6.61649E+03 -9.98031E+03
  1.06412E+04 -5.84507E+03  1.46862E+04  1.78280E+03  9.67191E+03  9.10618E+03  1.78505E+03  1.18336E+04
 -4.54566E+03  9.93535E+03 -7.38287E+03  3.16895E+03 -5.38300E+03 -1.10096E+03 -1.56287E+03 -1.28444E+03
 -6.81571E+02 -1.19211E+02 -1.47619E+03  2.76911E+03 -3.72555E+03  1.74372E+03 -6.79988E+03 -2.02490E+03
 -4.86385E+03 -6.59917E+03  1.29735E+03 -8.97028E+03  6.89304E+03 -8.59087E+03  9.16792E+03 -2.49510E+03
  9.08773E+03  5.09080E+03  3.78092E+03  9.83707E+03 -3.11917E+03  1.01645E+04 -6.44435E+03  5.34644E+03
 -1.07579E+04  3.59174E+02 -8.42588E+03 -6.11373E+03 -1.74179E+03 -7.20367E+03  1.65550E+03 -6.63097E+03
  7.15425E+03 -2.75226E+03  3.84393E+03  1.82067E+03  9.36304E+02  3.67438E+03  1.34394E+03  1.87914E+03
  2.80210E+03  1.78180E+03  1.44751E+03  1.28638E+03  1.71131E+03  4.29774E+03  3.88008E+03  6.97151E+03
 -2.99117E+03  7.15575E+03 -5.91691E+03  8.66818E+03 -9.19808E+03  1.11180E+03 -9.95645E+03 -2.51814E+03
 -4.67979E+03 -8.77093E+03  1.98033E+03 -1.04118E+04  5.43511E+03 -5.70618E+03  7.68994E+03 -1.33352E+03
  7.56149E+03  3.49843E+03  2.05147E+03  6.25603E+03 -3.40051E+03  2.04693E+03 -5.11072E+03  3.39733E+02
 -1.13774E+03 -4.46559E+03  1.27835E+03 -5.07816E+03  3.82397E+03 -1.02544E+03  3.30056E+03 -1.61449E+02
  1.54577E+03  2.45611E+03  8.23318E+02  1.78114E+02  7.62203E+02  2.81658E+03  1.67485E+03  1.24448E+03
  1.82360E+03 -1.25179E+03  3.46840E+03  1.82030E+03  2.05416E+02  4.81134E+03  4.90864E+02  6.21305E+03
 -4.28204E+03  4.35731E+03 -6.09952E+03  1.60736E+03 -5.45276E+03 -2.22584E+03 -1.94946E+03 -4.89852E+03
  7.35510E+02 -4.68133E+03  3.20085E+03  2.05621E+02  2.26076E+03  9.63688E+02 -3.36939E+02  2.52317E+03
 -3.76152E+03  1.29438E+03 -4.34378E+03 -1.51608E+03 -1.71867E+03 -3.86570E+03  1.70601E+03 -5.29573E+03
  2.63214E+03 -2.04828E+03  3.66183E+03 -2.09317E+03  2.88785E+03  1.23909E+03  1.32931E+03  2.06614E+03
 -1.56076E+03  2.51805E+01 -1.35813E+03 -1.60547E+03  1.06368E+03 -4.21683E+03  5.68555E+03 -3.86628E+03
  5.69534E+03  4.40565E+02  4.57740E+03  3.96864E+03  2.95656E+03  5.44608E+03 -1.98943E+03  5.36192E+03
 -4.64426E+03  2.59921E+03 -5.45900E+03  1.75317E+02 -1.91699E+03 -5.24647E+03  8.38966E+02 -3.78070E+03
  6.07490E+03 -8.10085E+02  3.83141E+03  5.66314E+02  1.97590E+03  1.82465E+03 -4.04380E+02  2.86991E+03
 -7.86483E+02  2.59061E+03 -1.99516E+03  6.14416E+01  2.60692E+02  8.98024E+02 -7.06047E+02  2.42212E+03
 -1.78042E+03  2.98381E+03 -5.10386E+03  7.51113E+02 -4.65798E+03  4.42088E+02 -7.10074E+03 -4.43136E+03
 -3.52294E+03 -7.78853E+03  1.69555E+03 -8.87655E+03  5.55198E+03 -6.85736E+03  8.81938E+03 -2.20999E+03
  7.41051E+03  1.64479E+03  4.84805E+03  4.19653E+03  2.83115E+01  3.93904E+03 -2.51667E+03  4.63993E+03
 -3.76858E+03  1.86578E+03 -3.44934E+03  3.81965E+00 -7.29011E+02 -1.42380E+03 -1.97739E+03 -1.53081E+02
 -7.05783E+02 -6.23785E+02 -1.93525E+03 -2.75949E+02  3.82097E+02 -1.61502E+03  1.95382E+02 -2.37619E+03
  3.45661E+03 -2.49857E+03  4.30358E+03 -1.02100E+03  3.37307E+03  3.79517E+03  6.74372E+02  5.86756E+03
 -1.70877E+03  6.54104E+03 -4.91802E+03  3.66308E+03 -5.12675E+03 -1.05794E+03 -5.29332E+03 -4.54796E+03
 -3.03296E+03 -5.59583E+03  1.20265E+03 -4.66274E+03  4.06054E+03 -2.53088E+03  3.68517E+03  1.26434E+02
  2.49517E+03  1.34804E+03 -6.13059E+02  2.02177E+03 -1.51637E+03  4.41079E+02 -5.45270E+02 -2.18406E+03
  1.58918E+03  7.02735E+02  2.32325E+03  1.85818E+03  9.04564E+02  1.38009E+03 -5.80837E+02  3.42057E+03
 -2.92289E+03  2.16792E+03 -4.02465E+03 -1.76375E+02 -2.57347E+03 -4.22524E+03 -2.36364E+03 -5.07396E+03
  2.22813E+03 -3.20341E+03  5.02399E+03  2.13245E+02  3.69932E+03  1.33663E+03  2.66443E+03  4.21298E+03
  8.27583E+02  2.37604E+03 -1.27331E+03  2.58721E+03 -2.81045E+03  1.65602E+03 -1.80240E+03  4.66778E+02
 -1.44678E+03 -9.96854E+02 -1.49518E+03 -1.21397E+03 -2.01138E+03  7.88995E+02 -3.23967E+03  3.68011E+01
 -3.10485E+03 -1.91764E+03 -2.11364E+03 -4.06383E+03  2.35266E+03 -4.55095E+03  2.09040E+03 -2.76012E+03
  4.18352E+03  6.42230E+02  3.23421E+03  1.32631E+03  3.28133E+02  4.49355E+03 -1.07709E+03  2.42447E+03
