 $NMID ID='MM_0lb_SNR200_13hz_g60_12.RAW', FMTDAT='(8E13.5)'
 TRAMP=1., VOLUME=1. $END
  3.09850E+05  1.35099E+03  3.37722E+05  2.50540E+05  8.41084E+04  3.38472E+05 -1.33020E+05  2.52270E+05
 -1.91581E+05  8.36530E+04 -1.11443E+05 -3.16360E+04  3.48300E+02 -5.10407E+04  5.23887E+04  5.33456E+02
  3.44125E+04  5.31613E+04 -1.62999E+04  7.52078E+04 -6.06214E+04  6.39331E+04 -8.44049E+04  3.16784E+04
 -8.15276E+04 -1.21879E+04 -5.93034E+04 -5.15460E+04 -1.53659E+04 -6.94992E+04  2.73739E+04 -4.57950E+04
  3.99632E+04  5.86333E+03  1.67395E+04  4.88419E+04 -3.44535E+04  4.80285E+04 -6.81642E+04 -4.12020E+01
 -5.45226E+04 -5.78504E+04 -5.61937E+03 -7.82787E+04  3.43162E+04 -5.61594E+04  4.84283E+04 -1.76854E+04
  4.35450E+04  9.54797E+03  3.20036E+04  2.56355E+04  1.45627E+04  2.89027E+04 -6.04953E+03  2.73264E+04
 -2.28793E+04  1.16424E+04 -1.69809E+04 -4.81891E+03  6.82547E+03 -6.72238E+03  2.30429E+04  1.19942E+04
  6.72478E+03  3.53303E+04 -3.28661E+04  3.51753E+04 -6.30514E+04  1.87988E+03 -5.80865E+04 -4.36351E+04
 -1.21808E+04 -6.29477E+04  4.19925E+04 -4.79852E+04  5.90553E+04 -2.47132E+03  3.76194E+04  3.20228E+04
 -5.96214E+03  3.64281E+04 -3.05683E+04  1.60934E+04 -3.31534E+04 -3.52209E+03 -1.85627E+04 -1.15503E+04
 -8.07990E+03 -1.39585E+04 -6.22020E+02 -1.93176E+04  7.82722E+03 -2.29991E+04  1.62451E+04 -1.38647E+04
  1.01963E+04  4.98567E+03 -1.07383E+04  1.24105E+04 -2.36218E+04 -5.89708E+03 -8.48476E+03 -3.58495E+04
  2.41068E+04 -4.63880E+04  5.11629E+04 -2.01191E+04  4.70395E+04  2.02587E+04  1.72928E+04  4.55470E+04
 -1.62809E+04  3.38982E+04 -2.57042E+04  2.39071E+03 -1.07328E+04 -2.84574E+04  2.21241E+04 -3.55883E+04
  4.18188E+04 -1.00179E+04  3.98946E+04  2.37411E+04  1.94505E+04  4.80080E+04 -7.88563E+03  5.30970E+04
 -3.23588E+04  3.62451E+04 -4.34534E+04  1.07009E+04 -4.45997E+04 -1.78543E+04 -2.36144E+04 -3.94536E+04
  8.20065E+03 -3.88983E+04  3.23879E+04 -1.61295E+04  3.09313E+04  1.06489E+04  4.59294E+03  2.03965E+04
 -1.30807E+04  9.09717E+03 -1.06240E+04 -8.44706E+03  6.28253E+03 -1.15141E+04  1.86949E+04  4.74635E+03
  1.56138E+04  2.17682E+04 -4.42614E+03  2.59950E+04 -2.27516E+04  1.29489E+04 -3.00250E+04 -5.33717E+03
 -2.19725E+04 -1.75386E+04 -1.07415E+04 -2.21159E+04  3.05398E+03 -2.23225E+04  1.74588E+04 -2.15131E+04
  2.96866E+04 -1.25865E+04  3.49688E+04  4.42877E+03  2.57392E+04  2.20203E+04  4.24474E+03  3.98047E+04
 -1.78813E+04  3.17874E+04 -2.97947E+04  1.10151E+04 -2.11595E+04 -9.15987E+03 -4.04387E+03 -1.33928E+04
  1.17395E+03 -2.42006E+03 -7.00002E+03  6.06722E+03 -1.74197E+04  3.97572E+03 -1.82060E+04 -8.66220E+03
 -1.01131E+04 -2.05719E+04  5.13153E+03 -2.40510E+04  1.72773E+04 -1.87430E+04  1.95386E+04 -1.19095E+03
  1.24228E+04  1.50005E+04 -1.27191E+03  2.01826E+04 -1.53746E+04  1.22617E+04 -2.07109E+04 -3.88881E+03
 -1.61393E+04 -1.94811E+04 -2.51004E+03 -2.54995E+04  1.16153E+04 -2.04438E+04  2.00796E+04 -1.04071E+04
  1.97680E+04 -2.70157E+00  1.49579E+04  5.57415E+03  8.56555E+03  1.23941E+02  1.08147E+04 -1.71332E+03
  1.91756E+04  3.28365E+03  2.18920E+04  1.82207E+04  1.43313E+04  3.33167E+04 -2.27020E+03  3.81686E+04
 -2.32823E+04  3.13720E+04 -3.46273E+04  1.60579E+04 -3.80514E+04 -3.91775E+03 -2.97326E+04 -2.26403E+04
 -1.25194E+04 -3.23258E+04  1.03125E+04 -2.79719E+04  2.49399E+04 -1.48474E+04  2.16744E+04  5.37922E+03
  6.83292E+03  1.72689E+04 -1.01160E+04  1.38423E+04 -1.85600E+04  2.55268E+03 -1.34988E+04 -1.20122E+04
 -1.91885E+02 -1.63119E+04  9.66480E+03 -1.30693E+04  1.18147E+04 -2.01060E+03  3.18877E+03  7.05181E+03
 -8.17423E+03  2.77876E+03 -7.76520E+03 -6.82090E+03 -1.66917E+03 -1.55675E+04  9.91848E+03 -1.73459E+04
  1.83798E+04 -9.15212E+03  2.13485E+04  2.27393E+03  1.91530E+04  1.44813E+04  7.97299E+03  2.33068E+04
 -3.69230E+03  2.53092E+04 -1.56197E+04  1.69674E+04 -1.81327E+04  3.56180E+03 -1.15036E+04 -3.78475E+03
 -4.26552E+03 -6.01032E+03  3.54341E+02  8.73676E+02 -8.82140E+02  2.63746E+03 -6.49723E+03  4.02731E+03
 -1.21220E+04  1.59454E+02 -1.21804E+04 -1.03857E+04 -5.57320E+03 -1.50720E+04  5.20163E+03 -1.33345E+04
  1.14357E+04 -6.74359E+03  7.42767E+03  4.19211E+03  5.15846E+02  4.50572E+03 -5.11934E+03 -5.83112E+02
 -4.89505E+03 -8.68070E+03 -2.60360E+02 -1.16952E+04  6.70280E+03 -1.32985E+04  1.62472E+04 -7.16424E+03
  1.83019E+04  2.04605E+03  1.27268E+04  1.10317E+04  3.59272E+03  1.46593E+04 -7.94477E+03  1.37730E+04
 -1.00884E+04  4.56760E+03 -5.81487E+03 -3.32431E+03  2.29401E+03 -3.01259E+03  6.40090E+03 -1.54113E+03
  5.88210E+03  5.79597E+03  1.07108E+03  1.10338E+04 -6.77593E+03  9.93682E+03 -1.24786E+04  2.12183E+03
 -8.26487E+03 -6.91921E+03  4.83306E+02 -1.07092E+04  6.29176E+03 -5.48170E+03  6.51412E+03  3.10346E+03
  1.75941E+03  6.89651E+03 -5.46737E+03  7.72042E+03 -9.22687E+03  4.25931E+03 -1.04110E+04 -3.55084E+03
 -7.22508E+03 -1.27655E+04  2.75090E+03 -1.36416E+04  1.09387E+04 -8.70293E+03  1.21819E+04  2.33601E+03
  6.80466E+03  9.97990E+03 -1.73333E+03  1.19589E+04 -8.84049E+03  5.94296E+03 -1.03807E+04 -9.49188E+02
 -8.58946E+03 -9.03899E+03 -1.23753E+03 -9.33081E+03  4.66111E+03 -8.59530E+03  5.09479E+03 -3.76685E+03
  3.96920E+03  1.61096E+03  6.25839E+02  9.50484E+02  7.77701E+02 -1.10662E+03  7.67569E+02 -3.58039E+03
  8.48881E+03 -3.03689E+03  1.07301E+04  3.20768E+02  1.28089E+04  7.86731E+03  7.68439E+03  1.58585E+04
 -2.76427E+03  1.61847E+04 -1.43605E+04  1.24181E+04 -1.77693E+04  3.03120E+03 -1.51842E+04 -5.89710E+03
 -7.39636E+03 -1.23955E+04 -9.51516E+02 -1.08974E+04  3.97116E+03 -6.96881E+03  3.02408E+03 -3.73488E+03
  2.53109E+03 -2.69485E+03  2.81484E+03 -3.36907E+03  4.39935E+03 -2.96984E+03  6.71092E+03  6.42559E+01
  7.80556E+03  1.63607E+03  5.16447E+03  7.51339E+03 -2.77771E+03  5.82817E+03 -9.70326E+03  6.36364E+03
 -1.04850E+04 -1.58013E+03 -4.85525E+03 -7.15427E+03  1.20612E+02 -1.08093E+04  5.68822E+03 -1.12490E+04
  1.01083E+04 -6.00036E+03  1.46635E+04  3.26120E+03  9.64163E+03  9.22035E+03  1.85985E+03  1.25215E+04
 -4.43010E+03  1.10776E+04 -6.70580E+03  4.77967E+03 -3.62622E+03 -2.18356E+03 -1.72461E+03 -4.54400E+02
  4.92022E+02 -3.25548E+02 -2.02715E+03  1.74678E+03 -3.98529E+03 -9.60132E+01 -5.94217E+03 -1.26716E+03
 -3.92927E+03 -7.47119E+03  4.82010E+02 -1.07705E+04  7.45213E+03 -9.27710E+03  9.01611E+03 -2.24477E+03
  1.03177E+04  6.57269E+03  4.92669E+03  8.62133E+03 -2.95140E+03  9.95574E+03 -6.67879E+03  6.53517E+03
 -7.75087E+03  2.17848E+03 -6.50883E+03 -6.03620E+03 -8.59510E+02 -9.14275E+03  2.98239E+03 -6.95441E+03
  7.94155E+03 -2.88393E+03  3.86316E+03  1.05460E+03  2.37645E+03  3.22802E+03  1.29105E+03  1.22531E+03
  2.12598E+03  4.47198E+02  2.74503E+03  1.88917E+03  2.43548E+03  4.12338E+03  1.60312E+03  5.47467E+03
 -1.82371E+03  7.08658E+03 -5.65868E+03  8.43536E+03 -9.82476E+03  1.49380E+03 -9.49730E+03 -4.42030E+03
 -5.62174E+03 -1.03044E+04 -6.82561E+02 -9.32500E+03  4.37036E+03 -6.29167E+03  7.91900E+03 -2.57985E+03
  6.07798E+03  2.15183E+03  2.05875E+03  5.26915E+03 -2.88053E+03  3.28251E+03 -2.94823E+03 -1.00031E+03
 -2.60684E+03 -3.50993E+03  2.13998E+03 -4.17021E+03  3.06323E+03 -2.61644E+03  3.86615E+03  1.00298E+03
  2.56915E+03  1.80951E+03  2.42490E+03  1.26705E+03 -1.64079E+03  1.58901E+03  1.77365E+03  1.00401E+03
  1.50000E+03 -1.07484E+03  2.96028E+03  1.14104E+03  5.15856E+02  5.22972E+03 -2.15921E+03  7.00871E+03
 -4.18710E+03  3.84403E+03 -6.40515E+03  8.87981E+02 -5.91628E+03 -1.00534E+03 -9.00133E+02 -3.01960E+03
  5.49371E+02 -3.38620E+03  1.91020E+03 -1.29795E+03  2.24842E+03  2.02385E+03 -1.23934E+03  2.35855E+03
 -3.58530E+03  1.89927E+03 -4.38645E+03 -1.36794E+03 -1.89640E+03 -4.64945E+03  1.00452E+03 -6.11071E+03
  3.36802E+03 -3.30829E+03  2.12211E+03 -5.47836E+02  3.02058E+03  1.76599E+03  3.27207E+02  2.59781E+03
 -2.47119E+03  4.74135E+02 -3.32478E+03 -5.92192E+02  3.07156E+03 -3.46477E+03  4.70892E+03 -3.01122E+03
  5.59131E+03  2.16703E+02  5.81584E+03  3.73432E+03  3.18440E+03  6.19949E+03 -2.85836E+03  6.11902E+03
 -2.49008E+03  3.19685E+02 -6.27605E+03 -3.81856E+01 -3.26786E+03 -3.83917E+03  5.67031E+02 -3.64270E+03
  2.92611E+03 -2.51113E+03  2.61622E+03  1.46763E+02  6.76946E+02  3.73203E+03 -1.47229E+03  3.12468E+03
 -1.88860E+03  1.82643E+03 -4.37598E+01  1.10881E+03 -7.06979E+02  3.43645E+02 -2.39159E+03  8.38523E+02
 -4.37332E+02  2.06667E+03 -3.46092E+03  1.62645E+03 -4.52936E+03  3.60433E+02 -5.61594E+03 -3.08465E+03
 -1.91438E+03 -7.06158E+03  2.61996E+03 -8.39291E+03  4.83831E+03 -6.94095E+03  9.25911E+03 -1.88867E+03
  6.32685E+03  4.38078E+02  4.63336E+03  5.32203E+03  1.82597E+02  4.77611E+03 -1.81736E+03  5.58546E+03
 -2.70268E+03  9.30621E+02 -1.95756E+03 -4.71044E+02 -2.99425E+02 -9.27931E+02 -1.74224E+02  4.02428E+02
 -1.79043E+03  9.18805E+01 -1.04051E+03 -7.17888E+02 -4.73350E+02 -2.12231E+03 -1.18365E+03 -2.39090E+03
  2.27865E+03 -9.53177E+02  2.93707E+03 -4.03095E+02  3.13275E+03  3.04510E+03 -1.34105E+02  4.83316E+03
 -1.59212E+03  7.90457E+03 -6.18499E+03  2.88046E+03 -6.19778E+03 -1.80265E+03 -3.51067E+03 -4.18173E+03
 -2.73520E+03 -5.21576E+03  1.24776E+03 -4.91586E+03  2.50192E+03 -2.93207E+03  2.87499E+03 -5.12160E+02
  2.34722E+03  1.77058E+03 -6.72644E+02  1.33983E+03 -1.77157E+03 -7.50571E+02 -6.92559E+02 -1.22199E+02
  2.58993E+03 -1.71998E+02  1.33196E+03  1.76669E+03  1.33331E+03  1.96689E+03 -4.93487E+02  2.79381E+03
 -1.90700E+03  1.67039E+03 -1.91090E+03  8.79600E+02 -2.74039E+03 -1.82303E+03  5.77798E+01 -2.62434E+03
  2.43718E+03 -3.52259E+03  4.07851E+03 -9.13288E+02  2.65983E+03  1.39721E+03  1.45323E+03  2.91716E+03
 -4.41177E+02  3.36603E+03 -3.15900E+02  3.33991E+03 -2.28839E+03  4.10245E+02 -1.46094E+03 -4.08174E+02
  9.42036E+02  2.95355E+02 -8.92332E+02  1.16549E+03 -1.12659E+03  5.09664E+01 -1.60091E+03 -1.80140E+03
 -1.87694E+03 -1.94136E+03  5.87804E-01 -4.07686E+03  2.73118E+03 -3.65748E+03  1.39550E+03 -2.15180E+03
  2.53699E+03  1.95366E+02  8.87359E+02  2.32095E+03  2.68840E+02  3.51958E+03 -7.85953E+02  2.56529E+03
