 $NMID ID='MM_0lb_SNR200_16hz_g40_56.RAW', FMTDAT='(8E13.5)'
 TRAMP=1., VOLUME=1. $END
  3.09793E+05 -5.58638E+02  3.38018E+05  2.50825E+05  8.44516E+04  3.37424E+05 -1.31935E+05  2.49815E+05
 -1.90201E+05  8.26150E+04 -1.10012E+05 -3.29935E+04  2.10010E+03 -5.04078E+04  5.36304E+04  2.36373E+02
  3.52465E+04  5.34021E+04 -1.90316E+04  7.63379E+04 -6.04951E+04  6.33094E+04 -8.37919E+04  3.15078E+04
 -7.90584E+04 -1.03854E+04 -5.63930E+04 -5.14443E+04 -1.54641E+04 -6.88311E+04  2.74378E+04 -4.56978E+04
  3.90990E+04  3.32704E+03  1.64995E+04  4.67552E+04 -3.42872E+04  4.63999E+04 -6.58478E+04 -2.46813E+02
 -5.31039E+04 -5.61199E+04 -6.31799E+03 -7.53881E+04  3.24998E+04 -5.37503E+04  4.72152E+04 -1.55948E+04
  4.17383E+04  1.08778E+04  3.12488E+04  2.45300E+04  1.54644E+04  2.82602E+04 -4.28939E+03  2.75527E+04
 -2.30825E+04  1.24855E+04 -1.86007E+04 -3.42111E+03  5.14956E+03 -8.27098E+03  2.18089E+04  1.05262E+04
  8.63933E+03  3.26995E+04 -3.15487E+04  3.42440E+04 -6.26955E+04  2.55329E+03 -5.57124E+04 -4.07566E+04
 -1.22483E+04 -6.22985E+04  3.94477E+04 -4.45925E+04  5.46169E+04 -1.49843E+03  3.22885E+04  3.05531E+04
 -6.64919E+03  3.45578E+04 -2.95419E+04  1.42054E+04 -2.82726E+04 -5.74991E+03 -1.47507E+04 -1.08693E+04
 -7.21531E+03 -1.21658E+04 -1.64632E+03 -1.70736E+04  6.41992E+03 -2.15830E+04  1.55336E+04 -1.24005E+04
  1.20786E+04  5.21298E+03 -6.36518E+03  1.40792E+04 -2.01870E+04 -2.94590E+03 -8.23760E+03 -3.22464E+04
  2.11201E+04 -4.18661E+04  4.61067E+04 -1.91098E+04  4.27476E+04  1.96552E+04  1.30647E+04  4.34001E+04
 -1.61273E+04  3.22547E+04 -2.36659E+04  1.46322E+03 -8.72353E+03 -2.62314E+04  1.93649E+04 -3.21022E+04
  3.88710E+04 -8.31557E+03  3.40488E+04  2.32323E+04  1.64740E+04  4.34795E+04 -7.45046E+03  4.72007E+04
 -2.98321E+04  2.92086E+04 -3.80736E+04  9.08017E+03 -3.99070E+04 -1.59199E+04 -2.19278E+04 -3.56942E+04
  7.13999E+03 -3.53119E+04  2.95794E+04 -1.32004E+04  2.90452E+04  1.07947E+04  2.58174E+03  1.72129E+04
 -1.30533E+04  8.46337E+03 -1.01520E+04 -8.41802E+03  5.32550E+03 -9.78355E+03  1.79404E+04  6.17798E+03
  1.21631E+04  2.24739E+04 -6.74731E+03  2.47403E+04 -2.22866E+04  9.57874E+03 -2.52560E+04 -7.27953E+03
 -1.69013E+04 -1.57125E+04 -5.62400E+03 -1.75618E+04  3.38680E+03 -1.63249E+04  1.39454E+04 -1.44835E+04
  2.31957E+04 -1.17695E+04  2.88866E+04  1.77394E+03  2.28494E+04  1.79932E+04  4.77254E+03  3.34261E+04
 -1.65958E+04  2.85169E+04 -2.51452E+04  9.46454E+03 -1.97820E+04 -1.06760E+04 -4.14144E+03 -1.34552E+04
  2.46743E+03 -4.28568E+03 -2.59391E+03  6.54401E+03 -1.38794E+04  5.71389E+03 -1.41902E+04 -5.17981E+03
 -1.00488E+04 -1.65541E+04  4.15530E+03 -1.95919E+04  1.25895E+04 -1.45313E+04  1.65389E+04 -1.48286E+03
  1.04229E+04  1.23762E+04 -1.09344E+03  1.71822E+04 -1.07194E+04  9.48880E+03 -1.64486E+04 -4.66458E+03
 -1.20188E+04 -1.43396E+04 -2.37330E+03 -2.09094E+04  8.17813E+03 -1.61478E+04  1.70319E+04 -7.03328E+03
  1.57129E+04  1.85209E+03  1.25275E+04  4.37182E+03  5.47383E+03 -9.90108E+02  8.63188E+03 -8.40814E+02
  1.46141E+04  2.99430E+03  1.61899E+04  1.41222E+04  1.06100E+04  2.60057E+04 -3.22426E+03  2.92008E+04
 -1.78180E+04  2.21730E+04 -2.72802E+04  1.17334E+04 -2.85037E+04 -1.72772E+03 -2.37201E+04 -1.73835E+04
 -1.09667E+04 -2.23497E+04  7.99581E+03 -2.18866E+04  1.79897E+04 -1.04775E+04  1.73581E+04  2.85987E+03
  7.03579E+03  1.31446E+04 -7.59736E+03  1.03777E+04 -1.47927E+04  3.70921E+03 -1.03898E+04 -8.96551E+03
 -7.52982E+02 -1.39448E+04  7.20213E+03 -1.07443E+04  9.74292E+03 -1.01776E+03  1.15137E+03  5.33756E+03
 -5.99064E+03  2.56583E+03 -4.21741E+03 -4.16791E+03 -6.83381E+02 -1.10510E+04  9.20844E+03 -1.04222E+04
  1.44028E+04 -4.82048E+03  1.30248E+04  3.78584E+03  1.28538E+04  1.13080E+04  7.10854E+03  1.52233E+04
 -2.70939E+03  1.83691E+04 -1.03029E+04  1.14458E+04 -1.23869E+04  2.28607E+03 -9.37661E+03 -3.67632E+03
 -4.08550E+03 -4.57140E+03 -9.30588E+02  1.51887E+03 -9.99936E+02  2.42574E+03 -4.27090E+03  3.40750E+03
 -8.84462E+03 -3.96583E+02 -9.21403E+03 -7.73150E+03 -3.90912E+03 -1.36452E+04  4.16407E+03 -9.03497E+03
  7.47765E+03 -5.18960E+03  6.75873E+03  2.78022E+03 -1.57388E+02  3.65078E+03 -4.54128E+03  5.69378E+02
 -4.12956E+03 -6.22973E+03  4.59826E+02 -8.01274E+03  4.30615E+03 -8.60268E+03  1.03648E+04 -5.29382E+03
  1.38262E+04  1.36770E+03  1.01703E+04  9.46911E+03  2.70285E+03  1.08957E+04 -7.27915E+03  8.68484E+03
 -7.68606E+03  2.06949E+03 -2.35771E+03 -1.61536E+03  1.59808E+03 -3.10628E+03  5.64565E+03 -3.29131E+02
  4.68629E+03  3.62205E+03  1.45950E+03  7.74952E+03 -4.67731E+03  6.81866E+03 -8.76493E+03  1.58776E+03
 -6.09684E+03 -3.89620E+03 -6.43529E+01 -8.45351E+03  4.26572E+03 -3.81598E+03  4.28876E+03  9.54808E+02
  1.21878E+03  4.24386E+03 -3.73356E+03  5.51615E+03 -6.39285E+03  2.54242E+03 -6.68884E+03 -2.24362E+03
 -2.53447E+03 -7.97231E+03  5.39554E+02 -8.86843E+03  7.02476E+03 -5.89684E+03  8.50098E+03  4.13283E+02
  5.81709E+03  7.09774E+03 -5.86566E+02  8.61049E+03 -5.10879E+03  5.51462E+03 -6.88859E+03 -5.82850E+02
 -6.80853E+03 -7.06268E+03 -1.88548E+03 -6.26123E+03  3.12325E+03 -5.03612E+03  4.12199E+03 -3.39555E+03
  3.89076E+03 -9.13686E+02 -7.53103E+02  6.28818E+02  2.42448E+02 -3.19996E+02  1.47855E+03 -2.57397E+03
  5.14227E+03 -2.36715E+03  6.68434E+03  2.26691E+02  7.71485E+03  4.84923E+03  6.55461E+03  1.02938E+04
 -1.88889E+03  1.07174E+04 -9.93438E+03  7.05617E+03 -1.18399E+04  2.44804E+03 -9.02485E+03 -4.80013E+03
 -4.52223E+03 -7.78145E+03 -9.40492E+02 -6.46946E+03  1.94750E+03 -2.52017E+03  2.43593E+03 -3.40852E+03
  2.18693E+03 -2.27380E+03  3.16219E+03 -5.56090E+02  3.82114E+03 -2.10550E+03  3.86664E+03 -3.64589E+01
  5.43697E+03  2.51323E+02  1.67771E+03  4.16614E+03 -9.77004E+02  3.55681E+03 -4.74445E+03  3.87780E+03
 -6.56720E+03 -1.64076E+03 -2.45126E+03 -4.61855E+03  3.73993E+02 -5.62094E+03  4.35223E+03 -7.48337E+03
  6.70213E+03 -3.62464E+03  8.76892E+03  8.67512E+02  7.04751E+03  6.34872E+03  1.77527E+03  7.77164E+03
 -2.78278E+03  7.59669E+03 -4.70681E+03  1.68431E+03 -2.99868E+03 -7.21549E+02 -7.86014E+02 -1.18872E+03
 -9.11004E+02 -3.07164E+02 -8.87391E+02  2.79562E+03 -3.42394E+03  1.83875E+03 -5.15543E+03 -1.15936E+01
 -3.22958E+03 -4.61104E+03  6.38380E+02 -6.08755E+03  3.36320E+03 -5.87650E+03  5.41224E+03 -2.40953E+03
  5.35343E+03  3.80311E+03  2.57204E+03  4.72955E+03 -1.57044E+03  6.34905E+03 -3.54903E+03  3.65303E+03
 -5.20072E+03 -2.13528E+02 -4.22314E+03 -3.27726E+03 -1.12149E+02 -5.05028E+03  1.67194E+03 -3.65961E+03
  3.71549E+03 -1.23941E+03  1.70896E+03  1.67928E+02  8.59350E+02  2.02969E+03 -1.76579E+02  1.61902E+03
  1.34637E+03  6.19075E+02  1.31567E+03  1.60919E+02  1.86837E+03  2.62575E+03  2.45300E+03  3.42472E+03
 -1.89581E+03  3.59887E+03 -4.78197E+03  5.34566E+03 -4.81967E+03  2.66641E+03 -5.69096E+03 -1.41378E+03
 -1.52412E+03 -5.33390E+03  3.98605E+02 -6.92193E+03  3.11016E+03 -3.04776E+03  4.47076E+03 -1.37172E+03
  4.23383E+03  2.56722E+03 -1.96946E+02  3.59338E+03 -1.21080E+03  2.40279E+03 -2.94091E+03  7.60408E+02
 -6.19639E+02 -1.71016E+03  2.27786E+03 -1.41895E+03  5.40469E+02 -1.11805E+03  2.02018E+03  3.56362E+02
  5.44787E+02  4.35640E+02  1.19807E+03 -2.37965E+02 -1.68679E+02  9.02468E+02  1.87523E+03 -9.53708E+01
  9.45217E+02  6.91074E+02  1.99193E+03  7.95316E+02  1.75001E+03  2.71851E+03  6.11368E+02  4.26341E+03
 -2.18897E+03  5.24071E+02 -4.11452E+03  1.07439E+03 -3.56198E+03 -9.49130E+02 -3.06280E+02 -8.03927E+02
  7.91396E+01 -2.61674E+03  1.82350E+03  2.47511E+02  4.44100E+02  1.00522E+03 -1.11692E+03  2.37976E+03
 -2.57013E+03  7.61499E+02 -1.62814E+03 -2.33228E+03 -1.24958E+03 -3.84488E+03 -3.65588E+01 -2.54263E+03
  1.64845E+03 -1.12874E+03  1.71945E+03 -1.46744E+00  1.30919E+03  3.55092E+02 -1.79536E+02  1.86251E+03
  7.11346E+01 -2.49982E+02 -9.46047E+02 -3.83750E+02  5.05703E+02 -1.36543E+03  3.60732E+03 -1.40092E+03
  1.51501E+03 -1.57101E+02  3.93750E+03  1.90054E+03  7.63020E+02  3.50402E+03 -6.24784E+02  3.20813E+03
 -2.82573E+03  3.77386E+02 -2.16602E+03 -2.70792E+02 -1.39107E+03 -2.54473E+03  8.04226E+01 -2.00113E+03
  1.76420E+03 -2.11022E+03  1.58307E+03  7.69297E+02  3.48224E+02  6.87580E+02  1.19935E+02  1.73499E+03
 -3.75236E+01  1.23257E+03 -9.34784E+02 -2.24874E+01 -8.95112E+02  1.46859E+03 -2.45293E+03  9.24635E+02
 -1.18818E+03  2.92580E+03 -2.18644E+03  1.10926E+03 -2.58436E+03  1.30737E+01 -4.70030E+03 -1.84284E+03
 -1.76375E+03 -4.70797E+03  6.07685E+02 -3.94918E+03  1.81125E+03 -4.25431E+03  4.43312E+03 -4.08898E+02
  3.92348E+03  2.86785E+01  2.01864E+03  2.07538E+03  4.78263E+02  3.04382E+03 -1.25810E+03  2.11715E+03
 -2.02406E+03  3.41175E+02 -8.71605E+02 -5.95308E+02 -6.14561E+02 -5.22719E+01 -1.09023E+02 -1.54092E+02
 -4.02001E+02 -5.47211E+02 -9.57503E+02  1.77794E+02 -1.16156E+03 -5.36272E+02  4.42515E+02 -1.62658E+03
  1.71429E+03 -6.24706E+01  6.02576E+02 -2.07237E+02  2.15687E+03  8.15855E+02  4.95879E+02  2.19445E+03
  2.49327E+02  2.76925E+03 -2.77737E+03  3.30661E+03 -2.67548E+03 -2.32085E+02 -2.00708E+03 -1.73016E+03
 -1.13391E+02 -2.19268E+03 -1.24430E+02 -2.89175E+03  1.28208E+03 -1.54995E+03  2.27951E+03 -1.81512E+02
  1.55598E+03  2.28368E+02 -6.46503E+02  1.17645E+03 -7.51935E+01  4.46099E+02 -5.35586E+02 -5.91150E+01
 -3.68933E+02  7.18697E+02  1.11403E+03  9.60459E+02  6.33529E+02  7.83180E+02 -9.17835E+02  7.42783E+02
 -1.60073E+03  1.91029E+03 -6.39802E+02  3.41190E+02 -9.87621E+02 -9.95880E+02 -8.90423E+02 -1.77216E+03
  8.29363E+02 -1.83403E+03  1.35285E+03 -4.65048E+02  2.68764E+03  1.50967E+02  1.06172E+03  1.78760E+03
  7.50488E+02  2.53149E+03 -6.24080E+02  8.44815E+02 -7.84497E+02  1.17000E+03 -7.38614E+02  3.02711E+02
 -5.41263E+02 -4.62388E+02 -2.18447E+03  5.28165E+02 -1.02946E+03  5.76394E+02 -2.07813E+03 -3.85447E+02
 -1.71518E+03 -9.99014E+02 -9.71549E+02 -1.38828E+03  9.96517E+02 -2.41089E+03  1.50557E+03 -1.59025E+03
  1.36529E+03 -7.85717E+02  1.19336E+03  5.26994E+02 -1.05221E+03  1.50421E+03 -3.06052E+02  8.38073E+02
