 $NMID ID='MM_0lb_SNR200_8hz_g40_45.RAW', FMTDAT='(8E13.5)'
 TRAMP=1., VOLUME=1. $END
  3.10539E+05 -3.25295E+02  3.37610E+05  2.49410E+05  8.44462E+04  3.37715E+05 -1.31689E+05  2.51638E+05
 -1.91878E+05  8.50848E+04 -1.12793E+05 -3.21468E+04  5.88778E+02 -5.09098E+04  5.32639E+04 -1.31128E+03
  3.39892E+04  5.27672E+04 -1.64325E+04  7.54538E+04 -6.31065E+04  6.48409E+04 -8.60955E+04  3.10512E+04
 -8.12908E+04 -1.23205E+04 -5.80972E+04 -5.32856E+04 -1.52757E+04 -7.13785E+04  2.90489E+04 -4.63661E+04
  4.24495E+04  2.83560E+03  1.74208E+04  4.72870E+04 -3.53006E+04  4.95935E+04 -6.91326E+04 -7.93320E+02
 -5.49499E+04 -5.68581E+04 -7.03448E+03 -7.97781E+04  3.50190E+04 -5.69298E+04  4.98763E+04 -1.88650E+04
  4.64232E+04  1.09324E+04  3.35069E+04  2.55241E+04  1.56510E+04  3.14622E+04 -6.66185E+03  2.81295E+04
 -2.27184E+04  1.07747E+04 -1.66740E+04 -4.80915E+03  6.56727E+03 -7.56085E+03  2.41592E+04  1.31308E+04
  7.66455E+03  3.85046E+04 -3.45457E+04  3.57549E+04 -6.55585E+04  3.14717E+03 -5.71502E+04 -4.59201E+04
 -1.23078E+04 -6.67563E+04  4.29856E+04 -4.94829E+04  6.06715E+04 -2.07141E+03  3.79779E+04  3.46883E+04
 -5.20233E+03  3.92358E+04 -3.27469E+04  1.79178E+04 -3.37294E+04 -2.81598E+03 -1.91431E+04 -1.10952E+04
 -7.98682E+03 -1.59548E+04 -2.17253E+03 -1.96451E+04  8.51413E+03 -2.36325E+04  1.55629E+04 -1.28607E+04
  1.04502E+04  4.53765E+03 -1.10335E+04  1.22102E+04 -2.48265E+04 -5.98144E+03 -8.61159E+03 -3.68427E+04
  2.49432E+04 -4.81214E+04  5.10092E+04 -2.05005E+04  4.80989E+04  2.20623E+04  1.79163E+04  4.72356E+04
 -1.46692E+04  3.59675E+04 -2.65538E+04  3.00954E+03 -1.22335E+04 -2.76504E+04  2.21022E+04 -3.76374E+04
  4.48616E+04 -1.23802E+04  4.21555E+04  2.55830E+04  2.19997E+04  4.95775E+04 -7.88869E+03  5.63446E+04
 -3.34846E+04  3.77813E+04 -4.76274E+04  1.17704E+04 -4.71515E+04 -1.74429E+04 -2.67958E+04 -4.26489E+04
  7.57144E+03 -4.12892E+04  3.44656E+04 -1.52467E+04  3.18886E+04  1.22161E+04  5.07608E+03  1.97311E+04
 -1.38452E+04  9.77741E+03 -1.18649E+04 -6.55275E+03  5.63030E+03 -1.09826E+04  1.81600E+04  3.97754E+03
  1.44995E+04  2.27306E+04 -5.29945E+03  2.75185E+04 -2.34029E+04  1.35535E+04 -3.07756E+04 -1.77506E+03
 -2.40778E+04 -1.78818E+04 -9.51027E+03 -2.64007E+04  3.84566E+03 -2.52011E+04  1.88997E+04 -2.39648E+04
  3.19802E+04 -1.46048E+04  3.75998E+04  4.01744E+03  2.76659E+04  2.41941E+04  4.12430E+03  4.13157E+04
 -2.05571E+04  3.41177E+04 -2.96271E+04  1.36690E+04 -2.18423E+04 -1.00797E+04 -6.04106E+03 -1.15353E+04
  5.83024E+02 -1.40095E+02 -7.66409E+03  7.17424E+03 -1.97707E+04  2.86329E+03 -2.09228E+04 -9.82807E+03
 -1.18766E+04 -2.26867E+04  6.24550E+03 -2.93337E+04  1.95110E+04 -1.91345E+04  2.34151E+04 -2.06129E+03
  1.41288E+04  1.74652E+04 -7.00698E+02  2.37874E+04 -1.69789E+04  1.30804E+04 -2.29491E+04 -3.77141E+03
 -1.83901E+04 -2.14143E+04 -7.54151E+02 -2.90589E+04  1.25562E+04 -2.37408E+04  2.60639E+04 -1.09368E+04
  2.05140E+04 -1.29386E+03  1.65588E+04  3.57377E+03  8.48151E+03  1.95793E+03  1.22095E+04 -1.83265E+03
  2.22916E+04  4.05904E+03  2.71204E+04  1.94378E+04  1.75657E+04  3.81699E+04 -1.56348E+03  4.47805E+04
 -2.56287E+04  3.79464E+04 -4.26124E+04  1.96132E+04 -4.49396E+04 -2.26465E+03 -3.71518E+04 -2.60191E+04
 -1.59034E+04 -3.75334E+04  1.24894E+04 -3.34708E+04  2.90373E+04 -1.49567E+04  2.51111E+04  7.54205E+03
  9.20851E+03  1.90528E+04 -1.20612E+04  1.65004E+04 -1.95231E+04  1.59958E+03 -1.57582E+04 -1.29992E+04
 -1.57034E+02 -2.14205E+04  9.27542E+03 -1.26926E+04  1.30143E+04 -1.92476E+03  4.17150E+03  9.72586E+03
 -7.93299E+03  4.78728E+03 -7.67259E+03 -6.92868E+03 -3.21115E+03 -1.78670E+04  1.18130E+04 -1.99600E+04
  2.31695E+04 -1.14743E+04  2.73725E+04  2.90776E+03  2.29824E+04  1.87321E+04  1.17334E+04  3.08776E+04
 -4.89586E+03  3.19833E+04 -2.14339E+04  1.89752E+04 -2.26581E+04  4.51647E+03 -1.79010E+04 -5.00487E+03
 -5.65288E+03 -6.79369E+03 -1.71537E+03 -2.34671E+02 -1.49206E+03  2.36654E+03 -8.14792E+03  5.97584E+03
 -1.41551E+04 -2.26986E+03 -1.43332E+04 -1.21598E+04 -5.03479E+03 -1.92445E+04  6.46997E+03 -1.70904E+04
  1.36440E+04 -6.73866E+03  1.08376E+04  3.89512E+03  2.42430E+02  5.96858E+03 -8.42012E+03 -1.05047E+03
 -7.33074E+03 -8.72585E+03 -6.68800E+01 -1.62801E+04  7.76644E+03 -1.66861E+04  1.97367E+04 -9.44879E+03
  2.59116E+04  2.69706E+03  1.84224E+04  1.44800E+04  4.86848E+03  1.95135E+04 -1.05126E+04  1.61802E+04
 -1.49804E+04  4.81305E+03 -7.32191E+03 -2.17085E+03  1.61042E+03 -4.95295E+03  8.98266E+03 -1.71083E+03
  8.23821E+03  8.83733E+03  1.40441E+03  1.45063E+04 -9.26593E+03  1.35098E+04 -1.59183E+04  2.55497E+03
 -1.10190E+04 -8.21475E+03 -2.03758E+02 -1.48756E+04  8.03573E+03 -8.58703E+03  9.57029E+03  4.92703E+03
  1.06015E+03  9.93948E+03 -7.53620E+03  1.22421E+04 -1.49118E+04  6.43899E+03 -1.38509E+04 -4.81556E+03
 -9.40354E+03 -1.61063E+04  3.61415E+03 -1.82071E+04  1.75192E+04 -1.10168E+04  1.75135E+04  2.20513E+03
  1.05270E+04  1.30125E+04 -1.67106E+03  1.47743E+04 -1.22685E+04  8.04497E+03 -1.33277E+04 -4.57262E+01
 -1.02118E+04 -1.11140E+04 -5.01879E+02 -1.29516E+04  6.26892E+03 -1.00535E+04  7.97697E+03 -4.04362E+03
  4.44912E+03  2.74427E+03 -2.88860E+03  1.80138E+03 -2.17596E+03 -3.92739E+03  2.44235E+03 -8.23094E+03
  1.30172E+04 -4.17179E+03  1.66490E+04  6.84124E+02  1.69406E+04  1.14851E+04  1.02760E+04  2.22218E+04
 -4.91016E+03  2.56080E+04 -2.01415E+04  1.83387E+04 -2.68209E+04  2.26314E+03 -1.99443E+04 -7.39290E+03
 -1.01978E+04 -1.62084E+04 -8.35132E+02 -1.52322E+04  7.23502E+03 -8.59564E+03  4.49412E+03 -7.21177E+03
  5.69843E+03 -2.87137E+03  2.08722E+03 -3.77216E+03  8.54116E+03 -3.13620E+03  8.94189E+03 -3.43202E+01
  9.07167E+03  2.80464E+03  5.80917E+03  9.65802E+03 -2.27062E+03  1.22167E+04 -1.15840E+04  7.16593E+03
 -1.61036E+04 -2.23878E+03 -1.08429E+04 -1.03180E+04 -2.22411E+03 -1.65083E+04  8.39264E+03 -1.64519E+04
  1.82200E+04 -8.13719E+03  2.11046E+04  3.29872E+03  1.35838E+04  1.45395E+04  3.04022E+03  2.05193E+04
 -8.70307E+03  1.68462E+04 -1.18423E+04  4.78337E+03 -8.59274E+03 -1.54337E+03 -3.65401E+03 -3.04578E+03
 -2.09964E+03 -3.22565E+02 -2.68317E+03  2.71677E+03 -6.43672E+03  2.90291E+03 -9.38584E+03 -1.71190E+03
 -7.76104E+03 -1.03494E+04  7.78885E+02 -1.48483E+04  9.58642E+03 -1.39039E+04  1.80687E+04 -3.98958E+03
  1.51264E+04  8.66667E+03  6.92804E+03  1.44396E+04 -4.73582E+03  1.69561E+04 -1.20603E+04  1.14328E+04
 -1.64984E+04  4.31099E+02 -1.18632E+04 -9.82656E+03 -1.40021E+02 -1.42074E+04  6.30147E+03 -1.10929E+04
  1.03218E+04 -4.42150E+03  6.63313E+03  1.56671E+03  2.40788E+03  3.80998E+03  1.27066E+03  1.88267E+03
  2.11821E+03  6.63686E+02  3.16651E+03  1.99987E+03  4.16349E+03  4.52126E+03  2.55581E+03  9.18496E+03
 -2.46607E+03  1.21086E+04 -1.27857E+04  1.27478E+04 -1.66975E+04  4.72031E+03 -1.79793E+04 -6.88681E+03
 -9.10410E+03 -1.49214E+04  2.74747E+03 -1.76625E+04  9.98571E+03 -1.16229E+04  1.32879E+04 -4.02945E+03
  1.25058E+04  7.72148E+03  2.75301E+03  8.03505E+03 -3.85238E+03  6.27158E+03 -6.26793E+03 -2.04756E+03
 -3.40060E+03 -6.07430E+03  2.82663E+03 -8.54310E+03  6.42949E+03 -3.41779E+03  7.63896E+03  1.40781E+03
  3.05942E+03  2.94269E+03  1.81769E+03  2.20124E+03 -1.54891E+03  2.45469E+03  1.25288E+03 -4.56801E+01
  2.45134E+03 -3.03643E+03  6.60519E+03  9.93664E+02  4.30691E+03  7.39098E+03 -2.11004E+03  1.24189E+04
 -7.57880E+03  6.83222E+03 -1.12189E+04  2.13049E+03 -8.14563E+03 -4.35461E+03 -3.75371E+03 -6.84833E+03
  1.30425E+03 -7.19392E+03  5.90402E+03 -2.83792E+03  3.74668E+03  4.96988E+03 -1.72624E+03  4.39735E+03
 -6.79959E+03  3.49716E+03 -9.46025E+03 -3.43093E+03 -3.87220E+03 -8.70498E+03  1.22310E+03 -9.57414E+03
  6.23814E+03 -8.74524E+03  6.69404E+03 -1.01318E+03  5.21440E+03  3.11365E+03  3.07201E+03  4.90466E+03
 -2.63229E+03  1.03728E+03 -4.85413E+03 -2.72951E+03  2.87457E+02 -6.43194E+03  7.55452E+03 -7.35811E+03
  9.77393E+03  1.58791E+03  9.82328E+03  6.59210E+03  1.91501E+03  1.06716E+04 -3.60395E+03  1.15088E+04
 -8.53377E+03  4.75736E+03 -7.97488E+03 -1.36280E+03 -6.23320E+03 -9.00020E+03  1.22531E+03 -6.72880E+03
  5.80744E+03 -3.38013E+03  6.47948E+03  3.56072E+03  9.91419E+02  7.43806E+03  7.81832E+01  6.45106E+03
 -3.18370E+03  3.10255E+03 -1.91130E+03  3.82063E+02 -1.82064E+03  1.22595E+03 -1.68962E+02  2.14811E+03
 -4.89697E+03  4.40049E+03 -8.22400E+03  2.76691E+03 -8.88047E+03  4.29855E+02 -1.20863E+04 -6.96947E+03
 -6.13570E+03 -1.54712E+04  1.28508E+03 -1.74972E+04  1.17216E+04 -1.25783E+04  1.76261E+04 -3.89612E+03
  1.43911E+04  3.14090E+03  8.17113E+03  1.03082E+04  7.65419E+02  1.07853E+04 -4.75337E+03  8.30030E+03
 -6.08503E+03  4.63941E+03 -5.23273E+03 -2.52906E+03 -9.18384E+02  3.90818E+02  7.18018E+02 -1.34015E+03
 -2.51491E+03  1.11209E+02 -2.87169E+03 -1.74763E+03 -9.18590E+02 -2.62681E+03 -5.00473E+02 -4.22151E+03
  4.95805E+03 -3.90025E+03  7.92236E+03 -4.73851E+02  8.79552E+03  6.31975E+03  2.77778E+03  1.13131E+04
 -6.49575E+03  1.27387E+04 -1.32196E+04  7.95908E+03 -1.41768E+04 -7.64971E+02 -1.14496E+04 -9.43891E+03
 -4.02341E+03 -1.04331E+04  4.59908E+03 -1.14378E+04  6.90412E+03 -5.98813E+03  8.56084E+03  7.58939E+02
  4.66092E+03  4.30264E+03 -1.81654E+03  3.26859E+03 -2.76318E+03 -6.07997E+02  1.49227E+03 -2.22632E+03
  4.78036E+03 -1.31704E+03  4.93121E+03  1.96062E+03  3.49683E+03  5.14804E+03 -8.37347E+02  5.90808E+03
 -4.56848E+03  3.97719E+03 -8.41387E+03 -1.73666E+02 -6.24138E+03 -6.69445E+03 -2.50667E+03 -1.05431E+04
  7.16696E+03 -8.22563E+03  1.04989E+04 -2.34700E+03  8.88221E+03  2.97893E+03  5.72346E+03  7.26327E+03
  7.25186E+02  7.18217E+03 -2.67700E+03  6.87489E+03 -5.14132E+03  4.23762E+03 -4.87525E+03  1.81934E+03
 -1.69472E+03 -1.82983E+03 -1.08280E+03  2.12662E+03 -3.35793E+03  2.23538E+03 -4.54521E+03 -1.17095E+03
 -7.58593E+03 -4.53975E+03 -3.25725E+03 -6.94402E+03  2.77126E+03 -8.01073E+03  8.86474E+03 -4.64909E+03
  8.96437E+03  1.36138E+03  6.56851E+03  5.47111E+03  5.58889E+02  8.16461E+03 -6.15938E+03  3.54372E+03
