 $NMID ID='MM_0lb_SNR200_19hz_g45_80.RAW', FMTDAT='(8E13.5)'
 TRAMP=1., VOLUME=1. $END
  3.10346E+05 -9.60145E+02  3.36479E+05  2.50049E+05  8.44836E+04  3.38065E+05 -1.32668E+05  2.50575E+05
 -1.88716E+05  8.28675E+04 -1.12004E+05 -3.24906E+04  1.34559E+03 -5.03909E+04  5.41773E+04 -3.03029E+02
  3.47687E+04  5.27305E+04 -1.66928E+04  7.55015E+04 -6.00862E+04  6.30001E+04 -8.29414E+04  3.15907E+04
 -7.91184E+04 -1.11378E+04 -5.56149E+04 -5.09519E+04 -1.47285E+04 -6.86654E+04  2.73845E+04 -4.50886E+04
  3.89160E+04  3.53197E+03  1.56295E+04  4.72863E+04 -3.50096E+04  4.62298E+04 -6.48029E+04 -1.06297E+02
 -5.15813E+04 -5.63798E+04 -5.86144E+03 -7.52234E+04  3.23071E+04 -5.31371E+04  4.51394E+04 -1.52436E+04
  4.06786E+04  1.18594E+04  2.99802E+04  2.37644E+04  1.45542E+04  2.77977E+04 -4.13110E+03  2.66341E+04
 -2.13240E+04  1.34068E+04 -1.81469E+04 -4.16394E+03  3.36899E+03 -7.30577E+03  2.15473E+04  9.64469E+03
  7.43721E+03  3.25364E+04 -2.99486E+04  3.34207E+04 -6.05631E+04  2.60082E+03 -5.53240E+04 -4.09860E+04
 -1.18371E+04 -5.99783E+04  3.76832E+04 -4.29527E+04  5.43463E+04 -1.37789E+03  3.18869E+04  3.13714E+04
 -6.43503E+03  3.33387E+04 -2.87832E+04  1.29449E+04 -2.81270E+04 -5.20428E+03 -1.46269E+04 -1.00821E+04
 -6.76389E+03 -1.16366E+04 -1.51347E+03 -1.47361E+04  6.66904E+03 -2.34319E+04  1.54171E+04 -1.42749E+04
  1.20543E+04  3.88112E+03 -5.42320E+03  1.42790E+04 -1.92573E+04 -8.54921E+02 -7.81823E+03 -2.96350E+04
  2.09475E+04 -3.97441E+04  4.44751E+04 -1.83061E+04  4.01908E+04  1.83589E+04  1.46762E+04  3.99282E+04
 -1.55625E+04  3.05430E+04 -2.28396E+04  1.58839E+03 -7.94841E+03 -2.54619E+04  2.04353E+04 -3.13498E+04
  3.84631E+04 -8.31794E+03  3.11712E+04  2.20728E+04  1.44824E+04  4.19706E+04 -7.97743E+03  4.45051E+04
 -2.79849E+04  2.88754E+04 -3.65494E+04  6.77180E+03 -3.90292E+04 -1.42278E+04 -2.21131E+04 -3.37431E+04
  7.56103E+03 -3.35691E+04  2.76274E+04 -1.30650E+04  2.60744E+04  9.56625E+03  2.68131E+03  1.74015E+04
 -1.33720E+04  7.35746E+03 -8.11114E+03 -8.21390E+03  6.09180E+03 -9.06371E+03  1.80221E+04  6.83049E+03
  1.24400E+04  2.11378E+04 -7.15888E+03  2.29779E+04 -2.17650E+04  9.24505E+03 -2.43036E+04 -6.09912E+03
 -1.67353E+04 -1.50994E+04 -4.20495E+03 -1.58452E+04  3.21957E+03 -1.35334E+04  1.19548E+04 -1.42775E+04
  1.96131E+04 -1.16852E+04  2.80179E+04  1.04801E+03  2.19743E+04  1.60549E+04  3.63170E+03  3.22917E+04
 -1.61956E+04  2.77258E+04 -2.51494E+04  9.77603E+03 -2.02182E+04 -1.03503E+04 -3.26410E+03 -1.30087E+04
  2.75548E+03 -4.53125E+03 -1.91116E+03  4.12359E+03 -1.28212E+04  6.15216E+03 -1.25699E+04 -4.47824E+03
 -8.21555E+03 -1.45698E+04  3.84059E+03 -1.87893E+04  1.19613E+04 -1.40759E+04  1.37079E+04 -9.37420E+02
  9.52588E+03  1.15950E+04 -1.15207E+03  1.52390E+04 -1.02129E+04  9.83895E+03 -1.48512E+04 -3.41962E+03
 -1.12641E+04 -1.44553E+04 -1.49044E+03 -1.90950E+04  8.63054E+03 -1.50523E+04  1.60846E+04 -6.55343E+03
  1.45737E+04  4.47512E+02  1.01419E+04  3.65316E+03  5.68668E+03  2.62690E+02  7.41694E+03 -2.23734E+03
  1.40060E+04  2.93507E+03  1.47727E+04  1.28039E+04  9.70619E+03  2.29726E+04 -4.13873E+03  2.67126E+04
 -1.51546E+04  1.92027E+04 -2.31512E+04  9.18894E+03 -2.35323E+04 -2.09209E+03 -2.05801E+04 -1.30200E+04
 -9.27420E+03 -1.91580E+04  5.91070E+03 -1.78040E+04  1.66297E+04 -1.03897E+04  1.54086E+04  3.00201E+03
  6.27129E+03  1.09089E+04 -6.58281E+03  9.72423E+03 -1.27218E+04  3.15842E+03 -9.03215E+03 -8.63020E+03
  4.48853E+02 -1.12099E+04  5.37123E+03 -8.88234E+03  6.92784E+03 -4.47892E+02  4.77624E+02  4.59139E+03
 -5.50065E+03  2.95102E+02 -3.83248E+03 -4.53669E+03 -1.86454E+02 -9.44644E+03  7.83251E+03 -9.93972E+03
  1.21867E+04 -4.91271E+03  1.11665E+04  3.12522E+03  1.03992E+04  9.12170E+03  4.74568E+03  1.28624E+04
 -1.38519E+03  1.55446E+04 -9.76556E+03  1.07694E+04 -1.03260E+04  2.81576E+03 -8.29329E+03 -2.09199E+03
 -5.17355E+03 -2.86604E+03 -9.16846E+02  2.42856E+03 -2.37043E+03  1.51855E+03 -2.84674E+03  3.52740E+03
 -7.96718E+03  3.48102E+02 -8.49960E+03 -6.75346E+03 -3.30847E+03 -1.22172E+04  2.60418E+03 -8.90053E+03
  6.75397E+03 -4.27843E+03  4.72990E+03  1.31658E+03  2.19848E+02  3.02976E+03 -3.87832E+03 -8.43626E+02
 -2.66402E+03 -4.46075E+03 -6.58726E+02 -6.45301E+03  3.91983E+03 -7.43521E+03  8.58756E+03 -3.81763E+03
  1.20912E+04  1.33000E+03  8.08075E+03  5.45717E+03  2.41812E+03  8.63439E+03 -5.18210E+03  8.06166E+03
 -7.38289E+03  1.47007E+03 -1.94820E+03 -1.12414E+03  1.71351E+03 -2.77012E+03  3.72735E+03 -1.96068E+03
  3.55160E+03  3.76099E+03  9.12432E+02  6.63694E+03 -3.51031E+03  6.24265E+03 -7.18765E+03  2.19476E+03
 -5.41717E+03 -2.54572E+03  7.34374E+02 -6.12502E+03  3.46122E+03 -2.80016E+03  3.83288E+03  9.34334E+02
 -3.94718E+02  3.14486E+03 -5.07308E+03  2.96558E+03 -5.07577E+03  2.64048E+03 -4.79515E+03  2.51423E+02
 -1.50026E+03 -4.58164E+03  6.00403E+02 -6.66969E+03  3.49560E+03 -5.07128E+03  5.72511E+03  5.98243E+02
  4.97204E+03  5.95026E+03  1.95986E+03  6.78394E+03 -3.13209E+03  3.60482E+03 -4.78037E+03 -1.32577E+03
 -5.23532E+03 -5.16564E+03 -1.68740E+03 -5.24472E+03  2.32955E+03 -4.82007E+03  2.50961E+03 -2.35870E+03
  2.99019E+03  7.83230E+02  1.00519E+03  4.46432E+02  8.11910E+02 -5.75010E+02 -1.22205E+02 -7.63536E+02
  2.52022E+03 -2.64216E+02  4.50403E+03  7.12375E+02  5.10229E+03  2.62273E+03  4.04072E+03  6.18504E+03
 -1.44853E+03  7.89392E+03 -7.14240E+03  6.23583E+03 -9.32897E+03  3.73991E+01 -6.53424E+03 -1.56959E+03
 -4.04193E+03 -5.93862E+03 -6.42474E+02 -5.14686E+03  1.84222E+03 -8.17979E+02  2.76740E+03 -2.07760E+03
  4.43050E+02 -1.06533E+03  2.09216E+03 -1.24176E+03  3.70071E+03 -2.42689E+02  3.38832E+03 -7.19975E+02
  4.80197E+03  1.59848E+03  1.12482E+03  2.93723E+03 -1.24127E+03  1.97629E+03 -5.08204E+03  3.45358E+03
 -4.53299E+03 -7.49789E+02 -3.54149E+02 -3.57882E+03 -7.57739E+02 -5.08702E+03  2.91635E+03 -5.25183E+03
  4.67753E+03 -3.73091E+03  7.01759E+03 -8.54829E+02  4.18001E+03  4.14611E+03  1.10007E+03  6.11941E+03
 -2.05163E+02  6.15011E+03 -2.91121E+03  1.47775E+03 -2.58369E+03 -1.77987E+03 -1.83854E+02 -2.21190E+02
 -3.19855E+01  4.18930E+02 -8.22030E+02  2.09981E+03 -2.24371E+03  1.11685E+03 -3.63651E+03 -9.46082E+02
 -1.24675E+03 -3.86295E+03 -1.33295E+02 -4.43452E+03  3.51831E+03 -3.90936E+03  2.83448E+03 -2.52477E+02
  2.65571E+03  2.72573E+03  3.30866E+02  3.15066E+03 -2.36574E+03  5.06590E+03 -1.07562E+03  3.27292E+03
 -3.35001E+03  1.00629E+03 -1.77895E+03 -1.21457E+03 -4.13039E+02 -2.31292E+03  2.68178E+03 -1.99585E+03
  2.46894E+03 -7.67204E+02  2.06116E+03  1.12337E+03  4.61909E+02  2.37828E+03  3.59647E+02  1.48469E+02
  2.38911E+03  4.67430E+02  1.40595E+03  1.77761E+03  3.36964E+02  2.48570E+03  2.01334E+03  1.19675E+03
 -2.07539E+02  2.09655E+03 -2.75662E+03  4.31107E+03 -1.90793E+03  1.43432E+03 -3.78015E+03 -2.25462E+02
 -2.49057E+03 -3.48553E+03  7.49147E+02 -5.58439E+03  1.34609E+03 -2.86985E+03  3.10622E+03 -1.19183E+03
  1.57457E+03  1.18238E+03  4.14808E+02  3.00864E+03 -4.51951E+02  1.26350E+03 -7.72290E+02 -6.54142E+02
 -1.09735E+03 -1.40097E+03  8.81243E+02 -2.85089E+03  1.22669E+03 -8.49155E+02  2.04780E+02  4.39091E+02
  1.40015E+03  2.27874E+02 -4.92319E+02  1.22343E+03 -1.79954E+02  6.62225E+02  1.46771E+03 -3.14891E+01
  6.94384E+02  1.01720E+03  1.80195E+03  3.19847E+02 -1.02663E+03  2.64383E+03 -5.06131E+02  2.62969E+03
 -1.14459E+03  7.36938E+02 -2.27568E+03  1.19768E+03 -1.96882E+03 -6.49954E+02 -4.23696E+02  5.86816E+02
  7.66689E+01 -1.16411E+03  4.19930E+02 -1.16839E+03  5.73358E+02  1.81786E+03 -1.31636E+03  9.13567E+02
 -9.04793E+02  6.48839E+02 -1.46255E+03 -1.15874E+03  1.34065E+02 -1.00508E+03 -1.38105E+02 -1.50943E+03
 -3.47512E+02 -7.43811E+02  1.07385E+03 -2.88435E+01  1.78540E+03 -6.79912E+02 -1.69476E+02  5.59989E+02
 -1.08934E+02 -8.77642E+02 -6.67633E+02  5.07819E+02  1.37982E+03 -1.09626E+03  1.78453E+03 -5.56140E+02
  1.58753E+03  4.51637E+02  2.83332E+03 -2.70405E+02  1.47558E+03  1.30277E+03  5.81780E+02  1.69221E+03
 -2.18380E+03  6.53792E+02 -9.64807E+02  7.44153E+02 -3.59558E+02 -8.31089E+02  8.29228E+02  4.23313E+01
  1.33319E+03 -9.91184E+02  7.31641E+01  5.61997E+02  3.16034E+02  1.52867E+03  5.64352E+02  1.14150E+03
 -6.71159E+02  1.06647E+03 -4.66968E+02 -6.67912E+00 -3.00300E+02  3.91416E+02 -3.63130E+02  1.07061E+03
  1.00855E+03  1.13583E+03 -1.85955E+03 -6.83537E+02 -9.40130E+02  2.62612E+02 -2.86606E+03 -1.59737E+03
 -1.65457E+03 -2.62830E+03  2.20531E+03 -2.70386E+03  9.09089E+02 -2.61607E+03  3.99631E+03 -3.98675E+01
  2.75370E+03  1.55214E+02 -3.85257E+02  1.73443E+03 -7.99322E+02  8.82012E+02  6.51900E+01  1.05348E+03
 -2.01438E+03  6.96457E+02 -1.10873E+02 -4.38573E+02 -5.84043E+02  9.11547E+02 -7.50347E+02 -1.85721E+02
 -1.85483E+03 -5.05339E+02 -6.57657E+02  1.23323E+03 -7.42457E+02 -1.42414E+03  3.02643E+02 -3.93715E+02
  4.47145E+02 -9.43854E+02 -4.72182E+02 -6.89841E+01  1.24052E+03  1.15499E+03 -7.88741E+02  1.32179E+03
 -1.08162E+03  1.56045E+03 -1.10617E+03  2.15443E+03 -1.91050E+03 -2.89551E+02 -1.50108E+03 -9.67003E+02
 -3.33758E+02 -2.43039E+02  1.21135E+02 -5.21656E+02 -1.78511E+02 -1.09400E+03 -1.55454E+02 -3.70871E+02
  2.26351E+02  5.04264E+02 -1.64110E+02  9.62008E+02 -1.02147E+03  4.83495E+02 -2.77025E+02  5.36384E+02
 -4.64266E+02  4.38648E+02 -5.59024E+02  6.73027E+02  4.25801E+02 -5.32522E+02  7.10104E+02  2.03490E+01
 -6.36610E+02  1.36345E+03 -7.18260E+02 -3.13154E+02 -1.03185E+03 -1.26039E+03 -3.78801E+02 -3.94425E+02
  1.14544E+03 -1.07349E+03  8.90877E+01  9.24290E+01  6.58716E+02 -1.28656E+03 -4.14697E+02  9.65772E+02
  3.46302E+02  3.78116E+02 -1.17216E+03  4.70882E+02 -1.08622E+03  5.77577E+02  6.44674E+02 -7.35510E+02
 -6.31516E+02  7.11699E+02 -8.62047E+02  3.56474E+02 -7.50282E+02  3.80560E+02 -1.09609E+03 -3.57812E+02
 -1.39927E+02  1.20219E+03 -5.67949E+02  4.34055E+02  1.87643E+03 -2.02178E+03 -1.50056E+02 -6.78506E+02
  2.79895E+02  6.19610E+02 -6.88484E+02 -2.10483E+02 -4.27470E+02  1.18134E+03 -3.17336E+02  8.15804E+02
