 $NMID ID='MM_0lb_SNR200_10hz_g60_77.RAW', FMTDAT='(8E13.5)'
 TRAMP=1., VOLUME=1. $END
  3.10224E+05  4.06059E+02  3.39065E+05  2.50183E+05  8.56979E+04  3.38286E+05 -1.34005E+05  2.51970E+05
 -1.91541E+05  8.59757E+04 -1.12813E+05 -3.23319E+04  3.15096E+02 -5.09171E+04  5.32642E+04 -1.98382E+03
  3.49397E+04  5.07383E+04 -1.55543E+04  7.62509E+04 -6.32134E+04  6.37508E+04 -8.55530E+04  3.12484E+04
 -8.17156E+04 -1.30716E+04 -5.81032E+04 -5.17740E+04 -1.54364E+04 -7.01021E+04  2.86571E+04 -4.76289E+04
  4.11937E+04  4.15351E+03  1.63810E+04  4.72466E+04 -3.45251E+04  4.83953E+04 -6.85265E+04  4.70825E+02
 -5.56347E+04 -5.83808E+04 -7.50721E+03 -7.93022E+04  3.41231E+04 -5.73369E+04  4.90303E+04 -1.83427E+04
  4.62998E+04  1.30241E+04  3.41534E+04  2.84803E+04  1.61530E+04  2.91601E+04 -5.81633E+03  2.71031E+04
 -2.24039E+04  1.05837E+04 -1.94746E+04 -3.17120E+03  8.71130E+03 -8.43103E+03  2.39923E+04  1.48978E+04
  6.26844E+03  3.69121E+04 -3.37828E+04  3.78561E+04 -6.61649E+04  1.70973E+03 -5.81675E+04 -4.57997E+04
 -1.36118E+04 -6.63410E+04  4.16013E+04 -4.71697E+04  6.11940E+04 -1.41640E+03  3.79259E+04  3.44249E+04
 -5.51718E+03  3.85786E+04 -3.35688E+04  1.98114E+04 -3.40818E+04 -2.75848E+03 -2.01384E+04 -1.15961E+04
 -9.12764E+03 -1.41972E+04 -6.46972E+02 -2.07612E+04  1.00714E+04 -2.40706E+04  1.57083E+04 -1.20698E+04
  1.24700E+04  5.34124E+03 -1.06691E+04  1.15904E+04 -2.46368E+04 -7.56019E+03 -9.65650E+03 -3.72868E+04
  2.47224E+04 -4.68557E+04  5.24950E+04 -2.00348E+04  4.91291E+04  2.12348E+04  1.81438E+04  4.61234E+04
 -1.84559E+04  3.47575E+04 -2.72376E+04  2.45462E+03 -1.12768E+04 -2.93758E+04  2.01274E+04 -3.65842E+04
  4.61484E+04 -1.10880E+04  4.07357E+04  2.52525E+04  2.09278E+04  4.99743E+04 -8.82659E+03  5.63205E+04
 -3.71509E+04  3.81841E+04 -4.68455E+04  1.04007E+04 -4.75987E+04 -1.86463E+04 -2.51954E+04 -4.22324E+04
  8.51172E+03 -4.28491E+04  3.41680E+04 -1.73929E+04  3.22057E+04  1.17966E+04  5.50369E+03  2.06582E+04
 -1.57019E+04  1.00145E+04 -1.11059E+04 -7.17501E+03  5.21134E+03 -1.17939E+04  1.96293E+04  5.06289E+03
  1.46888E+04  2.20218E+04 -5.12523E+03  2.68957E+04 -2.37768E+04  1.53066E+04 -3.22568E+04 -2.46711E+03
 -2.57947E+04 -1.84067E+04 -1.18705E+04 -2.47622E+04  3.89352E+03 -2.61541E+04  1.93015E+04 -2.30031E+04
  3.23213E+04 -1.38767E+04  3.86173E+04  4.72927E+03  2.91120E+04  2.57456E+04  5.17939E+03  4.15464E+04
 -1.98900E+04  3.45221E+04 -3.02151E+04  1.17613E+04 -2.25322E+04 -1.02554E+04 -4.86917E+03 -1.46547E+04
  6.62649E+02 -1.19409E+03 -8.45030E+03  7.09559E+03 -2.08276E+04  5.03542E+03 -2.13345E+04 -9.69467E+03
 -1.12120E+04 -2.41200E+04  7.05150E+03 -2.73402E+04  1.91073E+04 -2.07328E+04  2.27971E+04 -1.39979E+03
  1.62953E+04  1.74155E+04 -2.00121E+03  2.30061E+04 -1.79508E+04  1.36679E+04 -2.31406E+04 -3.73783E+03
 -1.84601E+04 -2.12433E+04 -2.76303E+03 -2.92674E+04  1.33211E+04 -2.21019E+04  2.32420E+04 -1.21492E+04
  2.10955E+04 -1.03001E+03  1.67235E+04  5.50891E+03  8.11688E+03  2.46756E+03  1.28623E+04 -3.13487E+03
  2.22493E+04  3.93005E+03  2.54390E+04  1.86675E+04  1.81592E+04  3.84059E+04 -3.18961E+03  4.52434E+04
 -2.45104E+04  3.80315E+04 -4.33873E+04  1.83716E+04 -4.52382E+04 -4.18109E+03 -3.64961E+04 -2.62177E+04
 -1.54533E+04 -3.82105E+04  1.26503E+04 -3.26458E+04  2.79673E+04 -1.60585E+04  2.32505E+04  7.65455E+03
  8.30387E+03  1.72790E+04 -1.18693E+04  1.60444E+04 -1.89133E+04  3.09092E+03 -1.49964E+04 -1.37542E+04
 -2.70465E+02 -1.91778E+04  1.12281E+04 -1.52172E+04  1.21519E+04 -2.43240E+02  2.98791E+03  7.79274E+03
 -8.36421E+03  4.94650E+03 -8.27525E+03 -7.98679E+03 -4.55051E+02 -1.76546E+04  1.26020E+04 -1.97541E+04
  2.34283E+04 -1.10058E+04  2.50881E+04  2.21467E+03  2.36895E+04  1.84599E+04  1.31794E+04  2.86674E+04
 -5.59928E+03  3.08891E+04 -2.19079E+04  1.83529E+04 -2.25328E+04  3.59986E+03 -1.59595E+04 -5.14258E+03
 -5.85369E+03 -6.72568E+03 -6.06525E+02  1.17709E+03 -1.77425E+03  4.77716E+03 -6.33659E+03  5.83404E+03
 -1.59240E+04 -2.22445E+03 -1.53038E+04 -1.17477E+04 -5.61066E+03 -1.84948E+04  8.22789E+03 -1.55234E+04
  1.17524E+04 -5.22400E+03  1.07607E+04  5.11163E+03 -9.92828E+02  5.85738E+03 -7.56764E+03  1.12647E+02
 -8.85468E+03 -9.70100E+03 -2.44929E+02 -1.69013E+04  9.98983E+03 -1.61416E+04  1.98627E+04 -9.11842E+03
  2.24295E+04  2.21737E+03  1.68807E+04  1.36021E+04  3.53584E+03  1.94776E+04 -9.68105E+03  1.55940E+04
 -1.36691E+04  4.12139E+03 -8.62576E+03 -3.06943E+03  2.94568E+03 -5.26107E+03  9.18834E+03 -2.07508E+03
  8.03502E+03  5.47914E+03  1.83734E+03  1.26293E+04 -8.68580E+03  1.13323E+04 -1.54327E+04  1.57933E+03
 -1.14592E+04 -7.59339E+03  2.72779E+02 -1.25271E+04  8.50861E+03 -6.82413E+03  9.31443E+03  4.70882E+03
  2.01904E+03  1.11439E+04 -9.03979E+03  1.08031E+04 -1.24099E+04  6.36641E+03 -1.46005E+04 -4.42733E+03
 -8.51199E+03 -1.64277E+04  5.65117E+03 -1.79736E+04  1.60556E+04 -1.16690E+04  1.70116E+04  2.43029E+03
  9.43560E+03  1.40902E+04 -2.63799E+03  1.70777E+04 -1.05508E+04  8.27973E+03 -1.17280E+04 -2.13065E+03
 -1.16626E+04 -1.07628E+04 -1.02992E+03 -1.11942E+04  5.55991E+03 -1.00150E+04  6.32830E+03 -3.54407E+03
  5.26841E+03  1.14085E+03  7.58707E+01  2.10149E+03  9.25173E+01 -2.93931E+03  2.67289E+03 -7.87406E+03
  1.08960E+04 -3.28092E+03  1.57838E+04  1.41979E+03  1.52826E+04  9.77229E+03  1.03082E+04  2.09208E+04
 -4.67135E+03  2.33734E+04 -1.88730E+04  1.72948E+04 -2.56984E+04  2.68483E+03 -1.91304E+04 -8.82563E+03
 -1.02635E+04 -1.68983E+04  8.41643E+01 -1.41821E+04  4.42971E+03 -9.05080E+03  4.59399E+03 -7.37268E+03
  3.62839E+03 -3.16764E+03  4.63683E+03 -3.96925E+03  6.64737E+03 -2.30616E+03  7.33817E+03 -2.32351E+03
  1.00083E+04  3.55490E+03  7.00816E+03  8.44178E+03 -2.86092E+03  1.16588E+04 -1.19795E+04  8.42821E+03
 -1.43357E+04 -8.56795E+02 -1.03907E+04 -1.04074E+04 -2.21850E+02 -1.48117E+04  8.66942E+03 -1.60259E+04
  1.66008E+04 -8.00541E+03  1.91229E+04  1.19681E+03  1.33129E+04  1.33685E+04  7.87289E+02  1.68399E+04
 -8.04551E+03  1.37924E+04 -8.41605E+03  5.04101E+03 -7.64147E+03 -2.27629E+03 -3.61212E+03 -3.18440E+03
 -6.11822E+02  5.54029E+02 -1.38413E+03  1.95328E+03 -5.68387E+03  1.80039E+03 -9.88121E+03 -7.61057E+02
 -6.34213E+03 -9.92126E+03 -2.62464E+03 -1.49753E+04  7.45687E+03 -1.27927E+04  1.34195E+04 -2.96084E+03
  1.34926E+04  5.99768E+03  7.84600E+03  1.31680E+04 -4.34428E+03  1.28548E+04 -9.84482E+03  9.98788E+03
 -1.39202E+04  1.10048E+03 -1.02026E+04 -8.41338E+03 -5.23797E+02 -1.07227E+04  6.11013E+03 -8.28973E+03
  8.59922E+03 -4.30762E+03  4.31640E+03  1.61042E+03  1.71071E+03  3.62789E+03  2.11306E+03  6.91389E+02
  3.00876E+03  2.71488E+02  4.46728E+03  1.81239E+03  3.54142E+03  4.65270E+03  4.38295E+03  6.87947E+03
 -3.42607E+03  1.31952E+04 -9.85327E+03  9.43234E+03 -1.44235E+04  3.01809E+03 -1.47951E+04 -5.46007E+03
 -8.29655E+03 -1.59093E+04  2.23895E+03 -1.61622E+04  8.56258E+03 -1.00561E+04  1.19416E+04 -2.64045E+03
  8.91162E+03  4.54533E+03  2.41096E+03  9.09094E+03 -4.84114E+03  5.39526E+03 -6.58495E+03 -7.13089E+02
 -3.27921E+03 -5.31947E+03  4.40333E+03 -6.21974E+03  7.33660E+03 -3.57448E+03  5.04842E+03  1.49724E+03
  4.94158E+03  2.14733E+03  8.35155E+02  1.49743E+03 -5.63294E+02  2.29603E+03  1.89574E+03 -1.41588E+03
  2.02001E+03 -1.60093E+02  4.95482E+03  3.38177E+03  4.00446E+03  8.30119E+03 -2.00620E+03  1.10807E+04
 -5.15880E+03  7.42184E+03 -9.37934E+03  2.03261E+03 -8.09690E+03 -2.73690E+03 -2.95417E+03 -5.59532E+03
  1.01477E+03 -4.87198E+03  3.06618E+03 -3.63181E+03  1.33879E+03  2.54369E+03 -9.38610E+02  5.11404E+03
 -6.80651E+03  2.83019E+03 -6.70022E+03 -2.89724E+03 -3.93334E+03 -8.90224E+03  1.11984E+03 -8.03484E+03
  5.22621E+03 -3.74611E+03  6.14258E+03 -5.67565E+02  4.34349E+03  3.20674E+03  1.04486E+03  4.74767E+03
 -2.92100E+03  1.47589E+03 -3.97576E+03 -3.26161E+03  3.35628E+02 -5.30975E+03  6.47313E+03 -4.75877E+03
  8.22585E+03  7.67184E+02  8.26033E+03  6.69018E+03  3.91990E+03  1.00755E+04 -2.74356E+03  9.11737E+03
 -7.71433E+03  2.54692E+03 -7.62282E+03 -9.01921E+02 -3.59294E+03 -5.37686E+03  3.26338E+03 -5.24149E+03
  6.50107E+03 -2.24676E+03  4.66268E+03  2.77102E+03  3.57431E+03  3.97410E+03 -1.19461E+02  3.52872E+03
 -1.18933E+03  3.19678E+03 -2.09341E+03  8.76184E+02 -1.53233E+03  7.89602E+02 -2.43121E+03  1.15486E+03
 -2.85667E+03  3.23432E+03 -6.80923E+03  1.09084E+03 -1.03556E+04  8.52520E+02 -9.95161E+03 -7.16144E+03
 -5.19755E+03 -1.03567E+04  2.21190E+03 -1.54237E+04  9.17053E+03 -1.10518E+04  1.32731E+04 -3.47544E+03
  1.16424E+04  1.99745E+03  6.60661E+03  8.95829E+03  1.64523E+02  8.74195E+03 -3.83196E+03  8.37031E+03
 -4.11327E+03  2.40535E+03 -1.89819E+03 -1.52960E+03 -4.00035E+02  9.88431E+01 -2.05870E+03 -1.32877E+02
 -7.22180E+02  4.03394E+02 -2.41294E+03 -9.85594E+02 -5.09639E+02 -3.22069E+03  8.45810E+02 -2.52234E+03
  3.31462E+03 -4.07366E+03  5.90282E+03  2.27519E+03  5.83531E+03  5.38773E+03  1.72425E+03  8.71271E+03
 -6.01918E+03  1.04404E+04 -1.04649E+04  6.61058E+03 -1.21261E+04 -2.68474E+02 -7.11508E+03 -6.43153E+03
 -2.26184E+03 -9.58188E+03  1.48839E+03 -9.35829E+03  4.99204E+03 -5.11099E+03  6.74699E+03 -5.93202E+01
  3.43234E+03  1.21998E+03  1.44917E+02  3.41182E+03 -6.56340E+02  2.05701E+02 -7.06079E+02 -1.25094E+03
  1.51231E+03 -4.67000E+02  3.49648E+03  1.45908E+03  1.60563E+03  3.82538E+03 -3.49717E+02  5.05517E+03
 -3.09739E+03  4.93446E+03 -6.30597E+03 -4.82049E+02 -7.18908E+03 -5.23849E+03 -1.98846E+03 -7.59638E+03
  4.94713E+03 -7.10723E+03  6.96160E+03 -1.49900E+03  7.25953E+03  2.42259E+03  4.17900E+03  6.75037E+03
 -5.45967E+02  8.72624E+03 -1.86573E+03  3.83382E+03 -4.16687E+03  2.25817E+03 -1.97417E+03  5.25150E+02
 -6.52202E+02  4.57753E+02 -2.53609E+03  4.38044E+02 -2.96596E+03  1.95691E+03 -4.56212E+03 -2.03410E+02
 -5.14923E+03 -2.90419E+03 -1.46196E+03 -6.47634E+03  3.21600E+03 -7.67990E+03  5.28852E+03 -4.27103E+03
  4.43076E+03 -1.01558E+03  3.24700E+03  4.52472E+03 -1.07351E+03  6.87977E+03 -4.65988E+03  4.48797E+03
