 $NMID ID='MM_0lb_SNR200_20hz_g45_40.RAW', FMTDAT='(8E13.5)'
 TRAMP=1., VOLUME=1. $END
  3.09458E+05 -1.01967E+02  3.36914E+05  2.49815E+05  8.40843E+04  3.37176E+05 -1.32624E+05  2.50184E+05
 -1.89289E+05  8.31445E+04 -1.10133E+05 -3.30544E+04  2.38821E+03 -5.01663E+04  5.34597E+04  1.77291E+03
  3.46918E+04  5.31042E+04 -1.69639E+04  7.49255E+04 -6.04100E+04  6.26357E+04 -8.16938E+04  2.97324E+04
 -7.99924E+04 -1.01605E+04 -5.65544E+04 -4.97365E+04 -1.41877E+04 -6.79656E+04  2.65484E+04 -4.46761E+04
  3.93659E+04  4.31626E+03  1.58637E+04  4.68124E+04 -3.37011E+04  4.48250E+04 -6.49234E+04 -4.61356E+02
 -5.18382E+04 -5.48073E+04 -5.80498E+03 -7.48596E+04  3.23108E+04 -5.31004E+04  4.62285E+04 -1.63219E+04
  4.17731E+04  1.08981E+04  3.03293E+04  2.31787E+04  1.66000E+04  2.79505E+04 -4.45585E+03  2.66301E+04
 -2.14724E+04  1.43661E+04 -1.83672E+04 -3.83428E+03  3.18943E+03 -6.23524E+03  2.11503E+04  1.10322E+04
  6.85893E+03  3.29167E+04 -2.97450E+04  3.30214E+04 -6.06821E+04  2.20910E+03 -5.50635E+04 -4.11922E+04
 -1.14617E+04 -5.91795E+04  3.76543E+04 -4.28648E+04  5.37459E+04 -2.68763E+03  3.12440E+04  3.00107E+04
 -6.84724E+03  3.21255E+04 -2.76324E+04  1.23010E+04 -2.56997E+04 -5.60532E+03 -1.41973E+04 -9.68267E+03
 -6.60336E+03 -1.06376E+04 -1.12559E+03 -1.61526E+04  6.78455E+03 -2.22469E+04  1.50678E+04 -1.33799E+04
  1.20174E+04  4.69357E+03 -5.52854E+03  1.33508E+04 -1.80167E+04 -8.25840E+02 -7.34513E+03 -2.95747E+04
  1.95509E+04 -3.92509E+04  4.30430E+04 -1.84520E+04  4.11292E+04  1.79786E+04  1.40191E+04  4.07197E+04
 -1.48647E+04  2.96921E+04 -2.25873E+04  1.23703E+03 -8.67976E+03 -2.50796E+04  2.12096E+04 -3.08734E+04
  3.69121E+04 -6.43573E+03  3.07196E+04  2.17905E+04  1.43051E+04  4.15446E+04 -8.29735E+03  4.32279E+04
 -2.85429E+04  2.82332E+04 -3.51828E+04  7.88976E+03 -3.65999E+04 -1.38464E+04 -2.05511E+04 -3.44696E+04
  6.11243E+03 -3.39109E+04  2.78678E+04 -1.16137E+04  2.64369E+04  1.10372E+04  2.60102E+03  1.66748E+04
 -1.25398E+04  7.21366E+03 -8.74131E+03 -7.74566E+03  5.97342E+03 -9.28383E+03  1.64876E+04  7.23882E+03
  1.22288E+04  2.16404E+04 -7.68440E+03  2.23864E+04 -2.18796E+04  8.54653E+03 -2.40698E+04 -6.87437E+03
 -1.57879E+04 -1.64817E+04 -3.46384E+03 -1.41349E+04  3.79125E+03 -1.27696E+04  1.14746E+04 -1.35194E+04
  1.92849E+04 -1.08758E+04  2.62655E+04 -5.75360E+02  2.01902E+04  1.52201E+04  4.91872E+03  3.08173E+04
 -1.58344E+04  2.69119E+04 -2.50294E+04  8.92109E+03 -1.78612E+04 -1.04414E+04 -3.76170E+03 -1.43766E+04
  2.49248E+03 -4.60609E+03 -2.12127E+03  4.30776E+03 -1.16621E+04  5.87489E+03 -1.17430E+04 -5.59329E+03
 -8.13141E+03 -1.48679E+04  4.47096E+03 -1.79213E+04  1.12085E+04 -1.25387E+04  1.32866E+04 -5.61535E+02
  8.11253E+03  1.00192E+04 -5.39891E+02  1.42512E+04 -9.48038E+03  8.67823E+03 -1.46212E+04 -3.83095E+03
 -1.06306E+04 -1.35534E+04 -1.40945E+03 -1.80945E+04  9.23132E+03 -1.37274E+04  1.49920E+04 -6.43147E+03
  1.41506E+04 -1.58776E+02  9.28264E+03  3.48473E+03  5.22699E+03  9.54959E+02  7.38409E+03 -1.05806E+03
  1.18919E+04  2.43181E+03  1.36385E+04  1.17578E+04  7.81199E+03  2.33720E+04 -3.56832E+03  2.34537E+04
 -1.39574E+04  1.89368E+04 -2.20709E+04  8.26206E+03 -2.26590E+04 -1.54960E+03 -1.91932E+04 -1.30685E+04
 -9.53139E+03 -1.84723E+04  5.65761E+03 -1.78179E+04  1.54259E+04 -9.99377E+03  1.43117E+04  3.79470E+03
  6.97574E+03  1.06638E+04 -5.68742E+03  9.76093E+03 -1.24188E+04  3.07594E+03 -9.56877E+03 -7.13763E+03
 -8.25836E+01 -1.14026E+04  5.59401E+03 -9.90692E+03  7.65940E+03 -1.00248E+03  1.00955E+03  4.19520E+03
 -5.12566E+03  6.20693E+02 -3.43263E+03 -4.92773E+03  1.87071E+02 -9.68099E+03  6.91720E+03 -8.18671E+03
  1.08741E+04 -4.43840E+03  9.79348E+03  1.87414E+03  8.65560E+03  7.98576E+03  4.40227E+03  1.20060E+04
 -1.59511E+03  1.30934E+04 -8.04435E+03  8.29784E+03 -9.46271E+03  2.30759E+03 -7.80359E+03 -1.34134E+03
 -3.62030E+03 -3.62609E+03 -1.38207E+02  1.96451E+03 -1.54642E+03  1.64866E+03 -2.59825E+03  3.09420E+03
 -7.19237E+03 -6.64679E+02 -8.27280E+03 -7.48812E+03 -3.08981E+03 -1.10604E+04  2.47804E+03 -7.26465E+03
  5.49031E+03 -3.87764E+03  3.19255E+03  1.75865E+03  8.26963E+02  3.00924E+03 -2.33747E+03 -1.30522E+03
 -3.13841E+03 -5.00943E+03 -6.19871E+02 -6.84965E+03  3.13434E+03 -6.16879E+03  9.19556E+03 -3.44412E+03
  9.99271E+03  5.02478E+02  7.63513E+03  5.04972E+03  1.78456E+03  7.03973E+03 -5.01908E+03  6.97086E+03
 -6.37178E+03  2.59736E+03 -2.68553E+03 -5.29681E+02  7.56205E+02 -1.49220E+03  2.91238E+03  1.72472E+02
  3.61388E+03  2.80660E+03  1.36713E+03  5.60044E+03 -5.70819E+03  5.69908E+03 -7.20142E+03  1.90755E+03
 -3.04911E+03 -3.61293E+03  6.41349E+02 -5.67943E+03  3.36884E+03 -3.21678E+03  3.78089E+03 -2.35857E+02
  8.04852E+02  2.52014E+03 -3.51035E+03  3.56772E+03 -3.43753E+03  1.80175E+03 -3.52840E+03 -1.28700E+03
 -2.57680E+03 -4.94888E+03  1.73338E+03 -5.47502E+03  4.24336E+03 -4.45598E+03  6.35194E+03  1.16856E+03
  3.50735E+03  4.75810E+03 -1.67369E+01  5.83822E+03 -3.86899E+03  3.03453E+03 -5.00533E+03 -1.88566E+02
 -4.64744E+03 -4.85555E+03 -1.37917E+03 -4.81038E+03  1.96736E+03 -3.37093E+03  2.80925E+03 -2.64235E+03
  2.56447E+03 -9.08694E+02  2.22073E+02  1.13976E+03  7.62044E+02 -1.63278E+02  2.62234E+02 -1.07765E+03
  3.40205E+03 -8.91013E+02  4.50555E+03  6.43355E+02  5.62636E+03  2.27333E+03  4.59951E+03  5.77554E+03
 -9.41735E+02  7.18438E+03 -7.48911E+03  4.52520E+03 -9.16493E+03  1.38807E+03 -6.13295E+03 -2.13192E+03
 -3.29962E+03 -6.02149E+03 -8.38214E+02 -3.92034E+03  1.71253E+03 -3.05216E+03  2.53821E+03 -1.60403E+03
  8.83559E+02 -1.76351E+03  1.92071E+03 -1.51176E+03  3.82519E+03 -1.19054E+03  4.44814E+03  6.25170E+02
  3.20069E+03  1.83632E+03  3.14906E+02  2.83179E+03 -1.65497E+03  2.56168E+03 -3.23512E+03  2.23372E+03
 -3.80882E+03 -1.39555E+03 -1.20918E+03 -2.80095E+03  1.00791E+03 -3.04222E+03  2.76154E+03 -5.30335E+03
  4.41873E+03 -2.53754E+03  5.96873E+03  2.24825E+02  4.59805E+03  3.13607E+03  1.33111E+03  4.37547E+03
 -1.36535E+03  5.31434E+03 -2.00515E+03  1.27836E+03 -1.72314E+03 -1.25833E+03  7.54009E+01 -2.02736E+02
  4.95819E+02  8.06776E+02 -1.81695E+00  2.08790E+03 -2.16848E+03  9.88711E+02 -4.01764E+03 -5.20371E+02
 -1.25805E+03 -3.64856E+03  6.36996E+02 -3.84385E+03  1.77465E+03 -2.97033E+03  2.31784E+03 -1.43153E+03
  2.87170E+03  2.70258E+03  1.66222E+03  2.50949E+03 -3.59296E+02  3.70365E+03 -1.52562E+03  1.17888E+03
 -2.71214E+03  5.79795E+02 -2.78558E+03 -1.97988E+03  7.06043E+01 -1.40104E+03  7.73316E+02 -2.29166E+03
  1.85804E+03 -1.08514E+03  7.14731E+02 -9.74069E+01  1.01612E+03  1.97211E+03  2.37799E+02  7.68812E+01
  1.45627E+03 -1.63354E+02  6.24672E+02  1.25329E+03  2.40509E+02  2.14247E+03  2.07921E+03  1.21886E+03
 -4.28956E+02  1.67709E+03 -2.04718E+03  5.14126E+03 -3.17904E+03  8.25898E+02 -3.51898E+03 -1.10881E+02
 -6.15416E+02 -3.18094E+03  1.29689E+03 -3.24126E+03  1.81374E+03 -1.94361E+03  2.43855E+03 -1.07496E+03
  1.48035E+03  1.23818E+03  4.98489E+02  2.41161E+03 -8.90988E+02  8.48948E+02 -1.18929E+03  2.65806E+02
  3.96623E+01 -1.80349E+03  2.14145E+03 -7.85512E+02  1.32149E+03 -3.37243E+02  8.99053E+02  8.93365E+02
  5.71888E+02  6.19325E+02  4.93714E+02 -8.70145E+02 -1.91845E+02  1.38599E+03  2.24814E+03 -1.23197E+02
 -2.17578E+02 -1.45128E+02  1.19645E+03  3.97361E+02  6.63461E+01  2.18598E+03  7.86933E+02  2.88857E+03
 -2.23061E+03  9.03154E+02 -1.07735E+03 -1.04336E+02 -8.39441E+02 -7.00438E+02 -4.19968E+02 -6.56317E+01
 -3.86236E+02 -9.82305E+02  9.34078E+02 -7.16225E+02  1.58623E+02  1.12035E+03 -1.41673E+02 -1.67248E+02
 -1.55952E+03  5.41374E+02 -2.52460E+02 -1.90981E+03 -1.02135E+02 -1.22694E+03  2.84209E+01 -1.69987E+03
  8.86018E+02 -2.51874E+02  6.36135E+02  8.98310E+02  1.24465E+03 -2.01237E+01 -5.15996E+01  6.79074E+02
 -1.25270E+03 -1.78835E+02 -3.86658E+02 -5.89935E+01  4.46100E+02  2.47769E+02  1.76445E+03 -7.08151E+02
  7.46264E+02  5.98483E+02  2.26750E+03  3.91636E+02  1.97824E+02  9.48907E+02  7.72406E+01  1.47462E+03
 -2.17775E+03 -2.96629E+02 -1.58013E+03  8.66155E+02 -1.33386E+02 -1.71572E+03 -4.00875E+01 -2.98676E+02
  1.82299E+03 -9.84680E+02 -1.02600E+02  9.32656E+02 -1.15554E+02  1.07180E+03 -2.09472E+02  1.49172E+03
 -1.03685E+03  1.08571E+03 -1.32297E+03 -1.93895E+02 -3.03713E+02  2.30680E+02 -9.43017E+02  9.44878E+02
 -2.23783E+02  1.17715E+03 -1.93950E+03  7.62670E+02 -4.87556E+02  5.90027E+02 -1.61570E+03  6.10139E+02
 -4.06231E+02 -2.32298E+03  1.71992E+03 -2.38569E+03  4.34383E+02 -1.50367E+03  2.82186E+03 -1.02351E+03
  1.70383E+03 -7.78665E+01  1.19576E+03 -1.25730E+02 -2.10153E+02  1.31409E+03 -6.18871E+02  1.09492E+03
 -6.86325E+02  3.37737E+02 -1.28761E+02 -6.02788E+02 -4.62033E+02  4.09469E+02 -5.39431E+02 -9.94597E+01
 -1.40608E+03 -1.91662E+02 -1.07001E+03 -1.14744E+02 -2.89434E+02 -1.29206E+03 -7.82216E+02 -2.17013E+02
  1.23049E+03 -1.15819E+03  6.46291E+02  5.84861E+01  6.56119E+02  8.84003E+02 -5.28919E+02  3.97990E+02
 -6.95850E+02  1.13380E+03 -8.24745E+02  1.11398E+03 -1.65763E+03 -1.34408E+03 -3.33323E+02 -6.46731E+02
 -2.07815E+02  3.61644E+01 -9.58815E+01 -7.69616E+02  5.25138E+02 -4.07878E+02 -5.92061E+01  3.28300E+01
  6.47673E+02  2.09168E+01 -1.46661E+02 -2.54041E+02 -8.39445E+01  3.36715E+02  2.46470E+02 -1.20278E+03
  8.14587E+02  1.31162E+02  1.85448E+01  2.46101E+02  8.25931E+02  1.83477E+03  2.43841E+02  8.12150E+02
  2.42926E+02  5.02255E+02 -7.02389E+02 -3.52907E+02 -7.92022E+02 -1.09174E+02 -6.47574E+02 -1.19028E+03
  6.03659E+02 -1.09299E+03  2.70836E+01 -2.35977E+02  6.91124E+02 -1.42303E+03 -2.51093E+02  1.09125E+03
  2.58570E+02  6.06818E+02 -3.65179E+01 -1.20381E+03 -8.24405E+02  2.49720E+02 -5.82203E+02 -6.35526E+02
 -8.88579E+02 -4.03052E+02  3.74334E+02  2.63888E+02 -8.81772E+02 -3.76287E+02 -2.90971E+02 -1.26997E+02
 -1.52377E+03  4.63513E+02 -1.25783E+03  3.81838E+02  9.03443E+02 -1.70333E+03 -1.65475E+02 -7.11384E+02
  9.78070E+02  1.36661E+03  3.05862E+02  6.81603E+02  6.01252E+02 -1.17566E+02  1.06654E+03  1.88684E+03
