 $NMID ID='MM_0lb_SNR200_11hz_g60_95.RAW', FMTDAT='(8E13.5)'
 TRAMP=1., VOLUME=1. $END
  3.08521E+05  6.60102E+02  3.38263E+05  2.50284E+05  8.43123E+04  3.38593E+05 -1.33167E+05  2.51209E+05
 -1.90296E+05  8.37595E+04 -1.12448E+05 -3.32219E+04  1.20018E+03 -5.02239E+04  5.49735E+04 -1.03711E+03
  3.33638E+04  5.37189E+04 -1.70355E+04  7.49824E+04 -6.08957E+04  6.55280E+04 -8.66611E+04  3.19886E+04
 -8.22348E+04 -1.12790E+04 -5.65644E+04 -5.29947E+04 -1.57671E+04 -6.95982E+04  2.70722E+04 -4.78014E+04
  4.13294E+04  2.58390E+03  1.73918E+04  4.75367E+04 -3.47629E+04  4.74557E+04 -6.77887E+04  1.28635E+03
 -5.60000E+04 -5.78549E+04 -6.16198E+03 -7.80271E+04  3.44350E+04 -5.82326E+04  4.96519E+04 -1.70210E+04
  4.51205E+04  1.00924E+04  3.19144E+04  2.72147E+04  1.53604E+04  3.08232E+04 -5.52361E+03  2.77209E+04
 -2.09396E+04  1.23421E+04 -1.75890E+04 -4.87214E+03  7.66663E+03 -7.62077E+03  2.52524E+04  1.24195E+04
  7.87912E+03  3.79001E+04 -3.34793E+04  3.71824E+04 -6.54749E+04  1.50980E+03 -5.89259E+04 -4.49732E+04
 -1.31788E+04 -6.58435E+04  4.00131E+04 -4.86597E+04  6.13492E+04 -3.52518E+03  3.72832E+04  3.27291E+04
 -5.59256E+03  3.96625E+04 -3.05253E+04  1.84880E+04 -3.29982E+04 -3.77731E+03 -2.00203E+04 -1.11638E+04
 -1.08894E+04 -1.48084E+04 -1.48949E+02 -1.83134E+04  8.07586E+03 -2.41349E+04  1.65148E+04 -1.14016E+04
  1.14766E+04  6.36634E+03 -9.46155E+03  1.36539E+04 -2.24727E+04 -4.72911E+03 -8.56999E+03 -3.75175E+04
  2.49993E+04 -4.57806E+04  5.06776E+04 -2.08536E+04  4.78573E+04  2.12751E+04  1.64714E+04  4.72533E+04
 -1.59018E+04  3.54857E+04 -2.74464E+04  2.77004E+03 -1.19913E+04 -2.83376E+04  2.10692E+04 -3.61258E+04
  4.42639E+04 -1.15784E+04  4.02585E+04  2.50544E+04  1.96747E+04  4.95014E+04 -9.17380E+03  5.44514E+04
 -3.49744E+04  3.78470E+04 -4.78945E+04  1.01933E+04 -4.75148E+04 -1.80634E+04 -2.55949E+04 -4.12574E+04
  8.18503E+03 -4.07184E+04  3.36502E+04 -1.66884E+04  3.20501E+04  1.07832E+04  5.65472E+03  2.04583E+04
 -1.39492E+04  9.66116E+03 -1.13011E+04 -6.26975E+03  5.86552E+03 -1.20680E+04  1.87159E+04  6.85820E+03
  1.50636E+04  2.21612E+04 -4.67441E+03  2.74307E+04 -2.28108E+04  1.48666E+04 -3.06238E+04 -2.44802E+03
 -2.39099E+04 -1.96839E+04 -9.93590E+03 -2.36720E+04  4.56679E+03 -2.61474E+04  1.81317E+04 -2.13819E+04
  3.06228E+04 -1.33889E+04  3.71421E+04  3.94131E+03  2.65364E+04  2.60903E+04  3.82726E+03  4.09221E+04
 -1.87214E+04  3.34163E+04 -3.17878E+04  1.16188E+04 -2.35771E+04 -8.88488E+03 -5.99448E+03 -1.23699E+04
  1.73615E+02 -2.15559E+03 -8.63045E+03  7.27826E+03 -1.96130E+04  4.60451E+03 -1.93463E+04 -9.37882E+03
 -1.04314E+04 -2.12993E+04  6.56676E+03 -2.60698E+04  1.90904E+04 -1.88856E+04  2.27607E+04 -1.03137E+03
  1.53528E+04  1.55135E+04 -9.78001E+02  2.29424E+04 -1.73860E+04  1.35009E+04 -2.28166E+04 -3.44122E+03
 -1.70195E+04 -2.00242E+04 -2.49829E+03 -2.83048E+04  1.29758E+04 -2.30250E+04  2.21511E+04 -1.27032E+04
  2.16657E+04  6.88946E+02  1.65989E+04  3.79407E+03  8.88728E+03  6.58585E+02  1.05910E+04 -1.40065E+03
  2.25858E+04  2.63137E+03  2.40660E+04  1.68410E+04  1.56255E+04  3.51096E+04 -2.97177E+03  4.25377E+04
 -2.40428E+04  3.55708E+04 -3.99904E+04  1.72113E+04 -4.20166E+04 -2.08642E+03 -3.39795E+04 -2.37768E+04
 -1.53233E+04 -3.58164E+04  1.20785E+04 -3.16768E+04  2.73075E+04 -1.56606E+04  2.33145E+04  6.44555E+03
  7.73719E+03  1.82760E+04 -1.07466E+04  1.47110E+04 -1.87346E+04  5.04537E+03 -1.54294E+04 -1.15229E+04
 -9.82989E+02 -1.82223E+04  1.01938E+04 -1.25052E+04  1.20278E+04 -1.68989E+03  3.34926E+03  8.50685E+03
 -8.26730E+03  2.74535E+03 -9.19345E+03 -6.61512E+03 -1.77627E+03 -1.77897E+04  1.16588E+04 -1.72347E+04
  2.17452E+04 -1.02533E+04  2.42002E+04  4.04197E+03  2.23505E+04  1.80960E+04  9.80751E+03  2.80932E+04
 -5.31492E+03  3.02034E+04 -1.83242E+04  1.85810E+04 -2.16981E+04  3.02484E+03 -1.41140E+04 -5.88546E+03
 -7.02190E+03 -7.73283E+03 -2.80166E+03 -1.73019E+02 -1.70607E+03  3.97809E+03 -7.12948E+03  3.85183E+03
 -1.30332E+04  6.06598E+01 -1.44899E+04 -1.11294E+04 -6.07104E+03 -1.90866E+04  6.39140E+03 -1.53617E+04
  1.24160E+04 -5.95460E+03  7.75279E+03  5.08523E+03 -7.13898E+02  6.05219E+03 -8.41377E+03 -1.19783E+03
 -6.39513E+03 -8.43502E+03 -4.63618E+02 -1.50149E+04  8.74818E+03 -1.46861E+04  1.83756E+04 -8.85368E+03
  2.26935E+04  2.80769E+03  1.71369E+04  1.39786E+04  3.50208E+03  1.63819E+04 -8.98784E+03  1.50423E+04
 -1.20952E+04  5.35054E+03 -6.14959E+03 -4.16797E+03  7.15286E+02 -4.40470E+03  6.05189E+03  5.72872E+02
  8.11622E+03  7.04181E+03  1.74169E+03  1.29813E+04 -8.38950E+03  1.22048E+04 -1.38626E+04  2.45510E+03
 -9.70754E+03 -7.23757E+03  3.88720E+02 -1.32838E+04  1.05173E+04 -7.22805E+03  7.05554E+03  3.11173E+03
  2.20072E+03  9.68422E+03 -7.92928E+03  1.13235E+04 -1.28808E+04  6.24387E+03 -1.24344E+04 -4.96833E+03
 -8.39763E+03 -1.42147E+04  2.96292E+03 -1.61719E+04  1.37760E+04 -9.58607E+03  1.46249E+04  2.17321E+03
  8.47351E+03  1.17047E+04 -9.63380E+02  1.43413E+04 -1.08741E+04  7.14377E+03 -1.19354E+04 -9.03104E+02
 -8.92116E+03 -9.94895E+03 -2.34447E+03 -1.00082E+04  7.31727E+03 -1.01212E+04  7.66252E+03 -3.33205E+03
  4.31787E+03  1.61475E+03  7.13208E+01  1.79367E+03 -1.77945E+03 -4.49564E+03  2.01600E+03 -6.28987E+03
  1.07781E+04 -5.34164E+03  1.64917E+04  1.70914E+03  1.52565E+04  1.03467E+04  1.12564E+04  1.96820E+04
 -4.73217E+03  1.96815E+04 -1.84251E+04  1.57867E+04 -2.40483E+04  3.29502E+03 -1.93526E+04 -7.05377E+03
 -8.38835E+03 -1.47828E+04 -3.00165E+02 -1.27992E+04  3.51387E+03 -7.80374E+03  4.82544E+03 -3.91596E+03
  2.64474E+03 -1.61177E+03  4.29846E+03 -3.80218E+03  4.78641E+03 -3.39469E+03  7.41210E+03 -1.02853E+03
  9.18375E+03  1.80736E+03  6.27779E+03  8.68096E+03 -2.39936E+03  1.09908E+04 -1.05953E+04  7.31861E+03
 -1.38551E+04 -1.05512E+03 -7.24443E+03 -1.00817E+04 -2.67312E+03 -1.52314E+04  7.72798E+03 -1.33748E+04
  1.45379E+04 -7.61289E+03  1.63034E+04  2.55589E+03  1.13472E+04  1.11953E+04  2.51793E+03  1.42642E+04
 -6.91570E+03  1.25153E+04 -7.77511E+03  3.94116E+03 -6.96427E+03 -3.28295E+03 -3.67190E+03 -2.67624E+03
 -1.15733E+03 -1.56163E+03 -3.04727E+03  2.19271E+03 -5.47281E+03  2.40459E+03 -8.14180E+03 -1.53970E+02
 -5.50166E+03 -9.41010E+03  6.04053E+01 -1.25799E+04  8.37924E+03 -1.30248E+04  1.22328E+04 -6.07652E+03
  1.24904E+04  5.49382E+03  6.10361E+03  1.11037E+04 -2.27019E+03  1.26206E+04 -9.54999E+03  6.70936E+03
 -1.12145E+04  1.22128E+03 -9.25196E+03 -8.64881E+03 -2.46070E+03 -1.04340E+04  4.74858E+03 -8.53031E+03
  8.50385E+03 -1.89500E+03  5.71285E+03  1.55973E+03  2.44880E+03  2.02151E+03  3.48480E+02  3.04952E+03
  2.05684E+03  2.63697E+03  3.43759E+03  1.22348E+03  4.20767E+03  6.12259E+03  3.86692E+03  5.87231E+03
 -2.23784E+03  1.01004E+04 -7.28083E+03  1.03814E+04 -1.25117E+04  3.28096E+03 -1.25115E+04 -4.88063E+03
 -6.00423E+03 -1.18084E+04  2.14953E+03 -1.39248E+04  8.15687E+03 -8.57673E+03  1.09475E+04 -3.01523E+03
  6.19698E+03  4.59250E+03  1.57580E+03  7.32888E+03 -2.49882E+03  3.67784E+03 -5.01040E+03 -1.79684E+03
 -1.79871E+03 -5.58802E+03  3.34240E+03 -6.11439E+03  4.21397E+03 -3.33264E+03  5.30763E+03  1.83831E+02
  2.14965E+03  2.06555E+03  2.15022E+03  2.09758E+03  4.33256E+02  1.32783E+03  2.07358E+03  1.47853E+02
  2.10292E+03 -6.84941E+02  4.89221E+03  1.64763E+03  2.18779E+03  6.40230E+03 -1.85926E+03  7.91902E+03
 -5.70312E+03  6.37995E+03 -8.54642E+03  5.69200E+02 -7.64125E+03 -2.70479E+03 -2.56175E+03 -5.11371E+03
 -3.85528E+02 -4.90258E+03  1.74645E+03 -3.04255E+03  3.16930E+03  2.30117E+03 -1.62805E+03  4.79932E+03
 -5.44900E+03  1.27704E+03 -5.45861E+03 -2.29965E+03 -2.46526E+03 -6.56778E+03 -1.76773E+02 -6.10839E+03
  3.04797E+03 -4.23574E+03  4.73932E+03  1.21448E+02  5.61126E+03  2.15567E+03  1.70959E+03  3.47047E+03
 -2.17868E+03  1.64404E+03 -1.67070E+03 -2.38897E+03 -1.44770E+00 -4.58354E+03  6.21785E+03 -5.22170E+03
  8.40641E+03  1.16313E+03  7.55196E+03  3.60496E+03  2.15780E+03  7.94587E+03 -2.85120E+03  6.72786E+03
 -6.59466E+03  3.14811E+03 -5.71183E+03 -1.76489E+03 -3.10157E+03 -6.38872E+03  2.77755E+03 -3.25621E+03
  6.21995E+03 -3.07540E+03  2.56127E+03  2.18575E+03  1.19074E+03  3.82278E+03 -1.38528E+02  3.00718E+03
 -2.39554E+03  2.14498E+03 -1.08730E+03  1.29014E+03 -1.82537E+02 -6.72579E+01 -3.18580E+03  2.00790E+03
 -3.06953E+03  2.55478E+03 -5.99138E+03  3.20452E+03 -8.33442E+03  1.17363E+03 -9.12397E+03 -4.78982E+03
 -4.89591E+03 -1.04640E+04  2.77672E+03 -1.09935E+04  8.70970E+03 -8.78083E+03  1.02653E+04 -4.19500E+03
  1.10081E+04  9.59819E+02  4.77018E+03  6.36955E+03  4.71073E+02  6.28369E+03 -3.44582E+03  6.10023E+03
 -5.07525E+03  1.94802E+03 -3.16399E+03 -1.85626E+03  5.95456E+02 -1.49268E+03 -1.20573E+03  7.04769E+02
 -2.04369E+03 -1.61580E+02 -3.38728E+03  9.62398E+02 -8.29882E+02 -9.86562E+02 -6.79701E+02 -3.16384E+03
  3.35651E+03 -1.98156E+03  3.43571E+03 -1.08457E+03  4.86649E+03  5.81164E+03  2.25745E+02  7.24858E+03
 -3.94146E+03  9.02707E+03 -8.33996E+03  4.81272E+03 -9.67520E+03  2.37365E+02 -7.38387E+03 -5.64446E+03
 -3.41161E+03 -8.46419E+03  1.32132E+03 -7.63921E+03  6.20879E+03 -3.71773E+03  4.97955E+03 -3.64777E+02
  3.46502E+03  4.30403E+02  4.39352E+02  1.88553E+03 -1.63522E+03 -1.23810E+03 -1.84942E+02 -1.72288E+03
  2.70661E+03  6.63284E+02  2.84650E+03  1.12277E+03  3.05603E+03  3.40080E+03  7.24488E+02  2.87421E+03
 -4.51010E+03  1.71972E+03 -3.22854E+03  7.70073E+02 -4.93803E+03 -2.98822E+03 -1.30259E+03 -5.01649E+03
  2.45080E+03 -5.57978E+03  5.02258E+03 -1.84765E+03  6.79845E+03  2.14518E+03  4.59402E+03  5.14878E+03
  1.50613E+03  5.61641E+03 -2.53936E+03  3.94012E+03 -3.39734E+03  2.30182E+03 -1.86657E+03 -1.33531E+03
 -1.17322E+03 -1.17366E+03 -4.45624E+02  1.32434E+03 -1.74824E+03  2.35816E+02 -4.31403E+03 -1.00332E+01
 -4.96442E+03 -2.91281E+03 -1.15934E+03 -4.58322E+03  3.02373E+03 -5.66193E+03  5.61953E+03 -2.27579E+03
  5.19256E+03  7.49046E+02  2.61604E+03  3.23540E+03  1.13025E+02  6.57752E+03 -4.42421E+03  3.82715E+03
