 $NMID ID='MM_0lb_SNR200_15hz_g50_60.RAW', FMTDAT='(8E13.5)'
 TRAMP=1., VOLUME=1. $END
  3.08766E+05  4.73508E+02  3.38890E+05  2.50729E+05  8.42853E+04  3.37647E+05 -1.32554E+05  2.50561E+05
 -1.89442E+05  8.26501E+04 -1.11742E+05 -3.24351E+04  6.93025E+02 -5.05435E+04  5.45035E+04 -9.24811E+01
  3.54816E+04  5.29703E+04 -1.69520E+04  7.38914E+04 -6.05269E+04  6.30138E+04 -8.40463E+04  3.24135E+04
 -8.13929E+04 -1.19613E+04 -5.80166E+04 -5.20014E+04 -1.59406E+04 -6.96141E+04  2.73023E+04 -4.53820E+04
  3.98718E+04  3.70485E+03  1.48764E+04  4.80482E+04 -3.30622E+04  4.64879E+04 -6.64225E+04 -1.41920E+02
 -5.29164E+04 -5.70997E+04 -7.06229E+03 -7.58696E+04  3.41640E+04 -5.53391E+04  4.92509E+04 -1.59877E+04
  4.22264E+04  1.27068E+04  3.05601E+04  2.56439E+04  1.42459E+04  2.94586E+04 -4.42270E+03  2.70487E+04
 -2.13049E+04  1.23820E+04 -1.90551E+04 -5.72636E+03  6.00160E+03 -8.50422E+03  2.11358E+04  1.31595E+04
  7.77563E+03  3.45136E+04 -3.08982E+04  3.49673E+04 -6.24879E+04  3.03128E+03 -5.59048E+04 -4.31111E+04
 -1.27240E+04 -6.17354E+04  3.94554E+04 -4.33790E+04  5.83991E+04 -1.48720E+03  3.26429E+04  3.22543E+04
 -4.97007E+03  3.56909E+04 -3.02901E+04  1.52594E+04 -2.91895E+04 -4.20462E+03 -1.71821E+04 -1.05130E+04
 -8.14319E+03 -1.32666E+04 -1.70880E+03 -1.78412E+04  7.09016E+03 -2.38098E+04  1.50084E+04 -1.23264E+04
  1.20551E+04  4.12770E+03 -7.57958E+03  1.35421E+04 -2.10810E+04 -3.70974E+03 -9.12206E+03 -3.17674E+04
  2.29955E+04 -4.33437E+04  4.77243E+04 -1.91059E+04  4.52091E+04  1.83656E+04  1.57279E+04  4.38537E+04
 -1.61411E+04  3.23262E+04 -2.45794E+04  2.18817E+03 -9.57340E+03 -2.81309E+04  2.15711E+04 -3.37017E+04
  4.17706E+04 -7.86406E+03  3.54247E+04  2.34574E+04  1.78595E+04  4.64688E+04 -8.56784E+03  4.88405E+04
 -3.06592E+04  3.34291E+04 -4.11273E+04  9.90083E+03 -4.14320E+04 -1.55847E+04 -2.26200E+04 -3.69004E+04
  7.68077E+03 -3.68977E+04  3.00728E+04 -1.49401E+04  2.83952E+04  1.10401E+04  3.83752E+03  1.93549E+04
 -1.37055E+04  8.27179E+03 -9.73480E+03 -8.03356E+03  5.72017E+03 -1.07571E+04  1.77691E+04  5.35216E+03
  1.29851E+04  2.23671E+04 -5.18010E+03  2.45205E+04 -2.33641E+04  1.04167E+04 -2.91817E+04 -5.22733E+03
 -2.00812E+04 -1.58262E+04 -9.84213E+03 -1.91908E+04  3.46631E+03 -1.85282E+04  1.53635E+04 -1.67104E+04
  2.36940E+04 -1.24754E+04  3.23112E+04  2.76661E+03  2.31886E+04  1.94123E+04  4.12748E+03  3.54729E+04
 -1.74452E+04  2.97154E+04 -2.80247E+04  1.06483E+04 -2.04806E+04 -1.05635E+04 -3.68148E+03 -1.33898E+04
  1.99139E+03 -4.72357E+03 -4.31602E+03  7.05042E+03 -1.46800E+04  4.49104E+03 -1.53161E+04 -6.61480E+03
 -1.11338E+04 -1.90407E+04  5.53657E+03 -2.38563E+04  1.61181E+04 -1.45066E+04  1.79559E+04 -2.02044E+03
  1.06862E+04  1.12880E+04 -1.11494E+03  1.88399E+04 -1.29586E+04  1.05742E+04 -1.80855E+04 -3.62010E+03
 -1.43158E+04 -1.65296E+04 -6.25174E+02 -2.36214E+04  9.04524E+03 -1.76994E+04  1.90440E+04 -7.65878E+03
  1.62955E+04  2.50326E+01  1.17811E+04  3.93337E+03  5.31901E+03  8.60015E+02  9.31364E+03 -8.99261E+02
  1.69289E+04  2.57054E+03  1.83056E+04  1.38366E+04  1.16982E+04  2.98938E+04 -3.06821E+03  3.31356E+04
 -1.81411E+04  2.51202E+04 -2.94002E+04  1.23782E+04 -3.17429E+04 -3.63873E+03 -2.65407E+04 -1.66727E+04
 -1.14046E+04 -2.60698E+04  8.61079E+03 -2.48482E+04  2.13602E+04 -1.32132E+04  1.76681E+04  4.93535E+03
  6.75610E+03  1.36785E+04 -7.56275E+03  1.17210E+04 -1.54030E+04  2.10134E+03 -1.19246E+04 -9.83628E+03
  7.17683E+02 -1.62826E+04  8.08163E+03 -1.20351E+04  1.14569E+04 -2.26177E+03  2.13983E+03  5.84829E+03
 -6.11281E+03  1.75521E+03 -5.18664E+03 -6.14564E+03 -1.09646E+03 -1.27364E+04  9.87930E+03 -1.32435E+04
  1.58122E+04 -6.77590E+03  1.62365E+04  1.97352E+03  1.56698E+04  1.25392E+04  6.09129E+03  1.80484E+04
 -3.60593E+03  2.20945E+04 -1.22824E+04  1.43159E+04 -1.59851E+04  2.74674E+03 -1.09966E+04 -2.79252E+03
 -4.85261E+03 -4.55816E+03 -5.95079E+01  8.29078E+02 -2.33294E+03  3.02987E+03 -3.68212E+03  4.23517E+03
 -1.16718E+04 -1.13694E+03 -1.08513E+04 -7.56298E+03 -3.98372E+03 -1.46427E+04  4.66115E+03 -1.08906E+04
  8.51468E+03 -5.44586E+03  7.22628E+03  2.22242E+03  9.22263E+02  2.96669E+03 -5.12999E+03  4.09533E+00
 -4.41509E+03 -6.95273E+03 -1.26723E+03 -8.99375E+03  5.97578E+03 -1.07387E+04  1.35743E+04 -5.95269E+03
  1.51091E+04  7.32712E+02  1.10787E+04  8.57151E+03  2.08197E+03  1.14817E+04 -6.85966E+03  1.07408E+04
 -8.20284E+03  3.32806E+03 -3.26729E+03 -1.03561E+03  1.66611E+03 -1.45893E+03  5.53768E+03 -1.67552E+03
  5.26739E+03  4.47082E+03  1.06775E+03  8.85396E+03 -5.58484E+03  7.17810E+03 -9.32574E+03  2.82937E+03
 -6.70686E+03 -5.12513E+03  7.32368E+02 -8.78778E+03  5.74258E+03 -4.40158E+03  5.96432E+03  2.37705E+03
  1.81616E+03  5.92288E+03 -5.17893E+03  7.14640E+03 -8.24641E+03  3.77266E+03 -6.03867E+03 -2.24971E+03
 -4.93481E+03 -9.79394E+03  2.40447E+03 -9.59632E+03  8.83069E+03 -7.21617E+03  9.91311E+03  1.55297E+03
  5.29239E+03  6.81487E+03 -2.78099E+02  1.05125E+04 -6.42758E+03  5.13726E+03 -6.64972E+03 -7.74932E+02
 -6.82847E+03 -5.61970E+03 -1.10409E+03 -7.92839E+03  3.72749E+03 -6.18720E+03  3.47554E+03 -4.01500E+03
  3.30895E+03  4.57493E+02 -3.83783E+02  6.43089E+02 -1.19827E+03 -1.59307E+03  1.58011E+02 -3.15841E+03
  6.78759E+03 -2.02687E+03  7.60444E+03  1.51562E+03  8.23393E+03  5.49041E+03  7.33996E+03  1.21590E+04
 -1.97988E+03  1.37667E+04 -1.18360E+04  8.23452E+03 -1.61103E+04  1.91759E+03 -1.12704E+04 -5.41355E+03
 -5.30565E+03 -9.38512E+03 -1.90943E+03 -8.10656E+03  2.84130E+03 -4.04323E+03  2.96502E+03 -3.19597E+03
  2.35850E+03 -1.26596E+03  2.53166E+03 -3.45990E+03  4.53742E+03 -2.36383E+03  4.32372E+03 -5.17225E+02
  7.61441E+03  1.89786E+03  2.95348E+03  4.77375E+03 -1.31328E+03  5.86868E+03 -5.86256E+03  5.13359E+03
 -7.37213E+03 -1.41159E+03 -4.13978E+03 -5.18936E+03 -5.41774E+02 -8.01185E+03  3.03420E+03 -7.55468E+03
  7.51950E+03 -4.97700E+03  1.02677E+04  1.24274E+03  7.32771E+03  6.78854E+03  9.63632E+02  9.65147E+03
 -2.54227E+03  8.89433E+03 -5.39882E+03  1.95356E+03 -2.89632E+03 -1.86211E+03 -9.60198E+00  1.94020E+02
 -3.73568E+02 -7.23830E+02 -2.10042E+03  2.28332E+03 -2.68354E+03  1.98370E+03 -6.59825E+03  3.14794E+02
 -3.84413E+03 -6.11503E+03  4.53845E+02 -7.54468E+03  4.64596E+03 -6.46184E+03  5.96839E+03 -1.59653E+03
  5.98054E+03  4.38141E+03  2.97522E+03  5.94596E+03 -2.08277E+03  7.52027E+03 -5.78409E+03  4.17768E+03
 -6.56947E+03  8.60369E+01 -5.62519E+03 -5.69899E+03 -5.25748E+02 -5.50562E+03  3.72852E+03 -4.34707E+03
  3.81178E+03 -1.90829E+03  3.56363E+03 -3.89517E+02  7.04401E+02  2.64602E+03  4.57446E+02  7.15168E+02
  1.87300E+03 -1.01847E+03  2.96776E+03  9.38376E+02  2.32812E+03  2.56933E+03  2.36067E+03  2.78560E+03
 -1.54081E+03  4.47174E+03 -4.16855E+03  5.98492E+03 -5.52941E+03  2.14421E+03 -6.63846E+03 -1.10490E+03
 -2.54305E+03 -5.58567E+03  8.79840E+02 -7.79766E+03  3.58376E+03 -2.32959E+03  5.90882E+03 -2.61336E+03
  4.02763E+03  3.47923E+03  1.19027E+02  3.69552E+03 -9.73543E+02  2.35631E+03 -1.74464E+03  4.69746E+02
 -9.25400E+02 -2.82700E+03  1.49934E+03 -2.65057E+03  2.26337E+03 -1.32821E+03  2.29844E+03  6.12642E+02
  2.35753E+03  3.93861E+02  3.14972E+02  1.30548E+03 -6.54667E+02  2.95394E+01  1.20862E+03 -8.13880E+02
 -8.45549E+02 -7.98190E+02  1.42691E+03  1.87085E+03  3.65605E+02  3.56296E+03 -5.50712E+02  4.36832E+03
 -2.18095E+03  2.81253E+03 -2.90694E+03 -7.81709E+02 -3.58069E+03 -1.86720E+03 -1.27112E+03 -2.01911E+03
  1.03743E+03 -1.35596E+03  1.80126E+03 -2.15236E+03  1.50182E+03  2.37922E+03 -1.90494E+03  2.23137E+03
 -3.15251E+03  7.60299E+02 -1.92279E+03 -2.63025E+03 -1.92496E+03 -3.12720E+03  1.93733E+02 -2.51250E+03
  7.86335E+02 -1.39707E+03  1.41405E+03  9.85824E+02  2.71013E+03  6.68098E+02  4.56820E+02  2.62843E+03
 -6.57709E+02  1.11081E+03 -2.61692E+03 -1.36474E+03  1.76757E+02 -2.37440E+03  3.50648E+03 -1.32486E+03
  3.26726E+03  3.56404E+02  3.84904E+03  2.63778E+03  2.09712E+03  2.72480E+03 -1.07796E+03  3.53697E+03
 -4.80799E+03  1.32757E+03 -2.98457E+03 -5.22161E+02 -3.33773E+02 -1.68001E+03 -5.87267E+02 -1.98030E+03
  2.30114E+03 -9.68760E+02  2.22204E+03  1.47552E+03  5.56998E+02  2.37907E+03 -6.86561E+02  2.10820E+03
 -1.12945E+03  1.76210E+03 -1.82672E+03  2.03501E+03  6.69276E+02  5.97561E+02 -1.21891E+03  1.20905E+03
 -7.64241E+01  6.88002E+02 -2.98563E+03  2.20950E+03 -3.41449E+03  9.06991E+02 -4.40825E+03 -2.40267E+03
 -2.14236E+03 -4.84902E+03  7.43539E+02 -5.20613E+03  2.33563E+03 -5.15959E+03  4.21532E+03 -2.53463E+03
  4.55743E+03  1.22047E+03  2.20667E+03  4.45818E+03 -2.55533E+02  2.36821E+03 -8.48207E+02  2.59950E+03
 -2.38330E+03  1.15888E+03 -1.72026E+03 -1.28554E+03 -4.14348E+02 -4.18915E+02 -5.59672E+02 -3.84220E+02
 -1.46090E+03 -3.13410E+02  3.90576E+02 -8.70468E+02 -1.05326E+03 -1.07586E+03 -7.04639E+02 -2.92055E+03
  1.03253E+03 -2.20754E+03  2.06208E+02  7.70270E+02  1.97162E+03  1.28380E+03 -1.00742E+03  4.17464E+03
 -1.98077E+03  4.54486E+03 -3.21936E+03  2.06190E+03 -4.55182E+03 -7.16767E+02 -2.08048E+03 -4.18573E+03
 -1.64746E+03 -2.70249E+03  2.94976E+02 -2.96816E+03  5.45278E+02 -1.72283E+03  1.95432E+03  3.58666E+02
  4.02854E+02  1.81001E+03  1.64664E+03  2.23904E+03 -1.13295E+02  1.36342E+02 -5.28213E+02 -1.38849E+03
  4.45742E+01 -1.32659E+03 -6.84445E+01  2.10301E+03  8.77764E+02  3.60422E+02  7.11627E+02  1.25954E+03
 -1.50152E+03  1.32767E+03 -1.46729E+03  2.10365E+02 -1.13113E+03 -1.50866E+03 -1.63191E+03 -3.63499E+03
  1.20457E+03 -1.25655E+03  1.38550E+03 -6.64822E+02  2.07196E+03  9.00631E+01  1.28789E+03  2.65227E+03
  3.57889E+02  2.25587E+03  3.98698E+02  2.08483E+03 -1.97749E+03  1.36619E+03 -1.73108E+03 -2.30971E+02
 -1.13270E+03  5.20218E+01 -1.63743E+03  1.01904E+03 -1.94359E+03  1.00995E+03 -3.96627E+02 -5.83470E+02
 -2.17672E+03 -4.86726E+02 -1.02567E+03 -2.80256E+03  1.30465E+03 -2.04520E+03  1.51017E+03  6.50476E+02
  2.00471E+03  9.79875E+02 -1.40212E+03  9.51295E+02 -7.16511E+02  1.68331E+03 -7.71715E+02  6.42644E+02
