 $NMID ID='MM_0lb_SNR200_7hz_g60_3.RAW', FMTDAT='(8E13.5)'
 TRAMP=1., VOLUME=1. $END
  3.07807E+05  1.44832E+02  3.37276E+05  2.51596E+05  8.67701E+04  3.38237E+05 -1.30930E+05  2.51425E+05
 -1.90092E+05  8.42285E+04 -1.14423E+05 -3.03862E+04 -1.87371E+03 -5.16932E+04  5.25286E+04  4.00258E+02
  3.68088E+04  5.35789E+04 -1.70314E+04  7.82161E+04 -6.25076E+04  6.69905E+04 -8.62950E+04  3.22729E+04
 -8.34170E+04 -1.28814E+04 -5.87620E+04 -5.18386E+04 -1.61865E+04 -7.04576E+04  3.04105E+04 -4.80907E+04
  4.24413E+04  3.40010E+03  1.52968E+04  5.02266E+04 -3.41921E+04  4.93559E+04 -6.77431E+04  1.22991E+03
 -5.55480E+04 -5.82684E+04 -8.07294E+03 -7.99783E+04  3.63750E+04 -5.87685E+04  5.07309E+04 -1.87723E+04
  4.76060E+04  1.28304E+04  3.48329E+04  2.60617E+04  1.49197E+04  3.08522E+04 -6.00729E+03  3.01775E+04
 -2.24901E+04  1.22410E+04 -1.72791E+04 -4.92111E+03  7.59947E+03 -6.26609E+03  2.30390E+04  1.29298E+04
  4.50695E+03  3.90947E+04 -3.68103E+04  3.76610E+04 -6.71724E+04  4.99181E+03 -6.00032E+04 -4.52052E+04
 -1.32749E+04 -6.91248E+04  4.41455E+04 -4.75381E+04  6.47090E+04 -3.86778E+03  3.83200E+04  3.45641E+04
 -5.54108E+03  4.04757E+04 -3.14202E+04  1.96430E+04 -3.30205E+04 -2.29030E+03 -2.18259E+04 -1.13266E+04
 -1.10392E+04 -1.66954E+04  1.31405E+03 -2.17900E+04  8.51860E+03 -2.47849E+04  1.65307E+04 -1.22395E+04
  9.97164E+03  7.57625E+03 -1.23798E+04  1.26769E+04 -2.36699E+04 -7.96173E+03 -8.73375E+03 -3.88582E+04
  2.77512E+04 -4.88685E+04  5.41274E+04 -2.24015E+04  5.09495E+04  2.07653E+04  1.95872E+04  5.12234E+04
 -1.60585E+04  3.83413E+04 -2.80090E+04  2.92305E+03 -1.31117E+04 -3.13753E+04  2.21060E+04 -3.90142E+04
  4.83023E+04 -1.16964E+04  4.33093E+04  2.48613E+04  2.33831E+04  5.32538E+04 -9.59169E+03  6.07760E+04
 -3.93789E+04  4.07121E+04 -5.12175E+04  1.17679E+04 -5.19991E+04 -2.03650E+04 -2.96488E+04 -4.55193E+04
  8.28901E+03 -4.26530E+04  3.52895E+04 -1.95057E+04  3.21236E+04  1.31314E+04  4.96095E+03  2.37332E+04
 -1.57318E+04  9.91492E+03 -1.15203E+04 -8.60316E+03  7.09706E+03 -1.26094E+04  1.87225E+04  4.70353E+03
  1.39175E+04  2.08471E+04 -5.49018E+03  3.01449E+04 -2.52098E+04  1.42707E+04 -3.42260E+04 -2.03258E+03
 -2.69762E+04 -1.89935E+04 -1.44337E+04 -2.92038E+04  4.29321E+03 -2.94414E+04  2.46803E+04 -2.51319E+04
  3.40893E+04 -1.38542E+04  4.18233E+04  4.82613E+03  2.82140E+04  2.64809E+04  4.24337E+03  4.41070E+04
 -1.99653E+04  3.53146E+04 -3.25884E+04  1.39927E+04 -2.31247E+04 -9.29099E+03 -5.26901E+03 -1.41592E+04
 -1.29888E+03 -1.18267E+03 -9.19938E+03  8.81914E+03 -2.21852E+04  4.35835E+03 -2.07325E+04 -1.14745E+04
 -1.26423E+04 -2.64379E+04  8.40842E+03 -3.14562E+04  2.09547E+04 -2.39567E+04  2.55536E+04 -9.80896E+02
  1.71967E+04  1.85965E+04 -2.48301E+03  2.51975E+04 -1.89703E+04  1.36994E+04 -2.77496E+04 -6.73513E+03
 -2.01274E+04 -2.26008E+04 -3.47439E+03 -3.11781E+04  1.26289E+04 -2.61799E+04  2.49554E+04 -1.27095E+04
  2.52190E+04 -1.59779E+03  1.77606E+04  4.99093E+03  9.49123E+03  1.65363E+03  1.40117E+04 -1.50935E+03
  2.43799E+04  2.96245E+03  3.04835E+04  1.92310E+04  2.28320E+04  4.18704E+04 -2.95176E+03  5.01378E+04
 -2.87586E+04  4.30803E+04 -4.83481E+04  2.22237E+04 -5.24207E+04 -4.33507E+03 -4.21633E+04 -2.97274E+04
 -1.57134E+04 -4.29407E+04  1.55158E+04 -3.87047E+04  3.34763E+04 -1.74938E+04  2.52700E+04  8.41789E+03
  1.04551E+04  2.08499E+04 -1.38032E+04  1.57719E+04 -2.35565E+04  1.20277E+03 -1.55935E+04 -1.36946E+04
 -3.69368E+02 -2.23173E+04  1.22130E+04 -1.57979E+04  1.40308E+04 -2.63077E+03  5.40248E+03  1.05897E+04
 -1.15307E+04  4.54278E+03 -1.07718E+04 -8.22778E+03 -1.78510E+03 -2.12078E+04  1.16767E+04 -2.30041E+04
  2.56999E+04 -1.42798E+04  3.10549E+04  1.05592E+03  2.71691E+04  2.10320E+04  1.29285E+04  3.44834E+04
 -7.45579E+03  3.66414E+04 -2.54892E+04  2.44008E+04 -2.67249E+04  5.06101E+03 -1.93892E+04 -5.59772E+03
 -6.89446E+03 -7.57171E+03  1.65504E+02 -1.44267E+02 -2.40687E+03  3.46709E+03 -1.02767E+04  2.92923E+03
 -1.54815E+04  2.42733E+02 -1.69513E+04 -1.31196E+04 -6.66959E+03 -2.05826E+04  9.74444E+03 -1.85445E+04
  1.58122E+04 -9.68760E+03  1.06251E+04  4.14121E+03 -2.74053E+03  6.40043E+03 -9.47314E+03 -1.02917E+03
 -7.29483E+03 -1.21628E+04 -7.43580E+02 -1.84070E+04  1.05554E+04 -1.89951E+04  2.30463E+04 -1.05295E+04
  2.71144E+04  2.41521E+03  2.03790E+04  1.79512E+04  3.71021E+03  2.36906E+04 -1.15132E+04  2.07468E+04
 -1.53666E+04  4.75612E+03 -6.46550E+03 -4.88109E+03  2.15673E+03 -6.79997E+03  9.95233E+03 -4.26029E+02
  7.97721E+03  8.09786E+03  1.20100E+03  1.38243E+04 -1.00272E+04  1.32556E+04 -1.92646E+04  4.25817E+03
 -1.25301E+04 -1.18622E+04  1.04469E+03 -1.65037E+04  1.09290E+04 -7.70345E+03  1.01994E+04  5.28715E+03
  2.56399E+03  1.45890E+04 -9.57528E+03  1.62429E+04 -1.67971E+04  7.95609E+03 -1.89163E+04 -6.83876E+03
 -8.64563E+03 -2.17580E+04  5.58058E+03 -2.41167E+04  2.00294E+04 -1.31228E+04  2.17730E+04  2.42763E+03
  1.41168E+04  1.49060E+04 -1.02664E+03  1.98913E+04 -1.36909E+04  9.39295E+03 -1.69548E+04 -4.05007E+03
 -1.25646E+04 -1.21646E+04 -2.11115E+03 -1.54923E+04  8.38389E+03 -1.26734E+04  7.72542E+03 -4.29934E+03
  6.95584E+03  2.37347E+03 -2.47457E+03  2.11828E+03 -1.67624E+03 -6.24743E+03  3.12482E+03 -9.73373E+03
  1.15552E+04 -7.14096E+03  2.05671E+04  2.62909E+03  2.10294E+04  1.41574E+04  1.23574E+04  2.56718E+04
 -4.53642E+03  3.10602E+04 -2.50207E+04  2.20635E+04 -3.67812E+04  3.83572E+03 -2.52838E+04 -1.06261E+04
 -1.22823E+04 -2.26208E+04 -9.98823E+02 -1.95690E+04  6.72012E+03 -1.14827E+04  5.47796E+03 -5.05659E+03
  5.17931E+03 -3.79855E+03  4.75000E+03 -4.94235E+03  7.41872E+03 -5.39077E+03  1.04659E+04 -2.15536E+03
  1.60485E+04  2.85791E+03  8.58344E+03  1.23998E+04 -3.21971E+03  1.54452E+04 -1.37972E+04  1.21575E+04
 -1.90110E+04 -1.07260E+03 -1.37428E+04 -1.37059E+04 -3.13720E+03 -1.99394E+04  1.27880E+04 -1.93450E+04
  2.14356E+04 -1.33627E+04  2.42865E+04  3.13636E+03  1.88083E+04  1.80926E+04  3.02957E+03  2.36061E+04
 -1.03722E+04  1.75699E+04 -1.23608E+04  6.66902E+03 -1.01787E+04 -1.99478E+03 -4.72911E+03 -1.00266E+03
 -1.50111E+03  5.32574E+02 -3.35110E+03  2.23154E+03 -9.33616E+03  5.25629E+03 -1.30825E+04 -3.94138E+03
 -9.95864E+03 -1.42869E+04 -7.14984E+02 -1.91371E+04  1.21841E+04 -1.75521E+04  1.84744E+04 -6.67712E+03
  1.99687E+04  9.55545E+03  8.66485E+03  1.66075E+04 -4.54838E+03  1.90922E+04 -1.30235E+04  1.27868E+04
 -1.97433E+04 -5.43087E+02 -1.36948E+04 -1.15878E+04 -1.71719E+03 -1.76166E+04  7.97153E+03 -1.44928E+04
  1.31150E+04 -2.26668E+03  9.14339E+03  3.48094E+03  5.26389E+03  6.74432E+03  2.25967E+03  4.61085E+03
  3.37195E+03  3.08921E+03  4.98442E+03  2.60217E+03  5.82831E+03  6.93637E+03  4.80640E+03  1.09092E+04
 -3.63676E+03  1.66053E+04 -1.46077E+04  1.51788E+04 -2.15374E+04  2.84061E+03 -2.15923E+04 -9.14073E+03
 -1.27770E+04 -2.07681E+04  3.58952E+03 -2.15221E+04  1.39809E+04 -1.53543E+04  1.70688E+04 -4.76411E+03
  1.47624E+04  6.96369E+03  5.58136E+03  1.20805E+04 -6.21342E+03  7.20577E+03 -9.72389E+03 -1.05542E+03
 -3.53478E+03 -8.82505E+03  5.71933E+03 -9.00446E+03  9.36573E+03 -4.86506E+03  8.02283E+03  1.81803E+03
  5.26726E+03  1.57432E+03  2.02208E+03  5.33125E+03 -5.71814E+02  3.28256E+03  1.02001E+03 -9.48212E+02
  3.48335E+03 -1.75451E+03  9.79808E+03  3.11101E+03  3.36918E+03  1.08186E+04 -3.13101E+03  1.54424E+04
 -1.09290E+04  1.16663E+04 -1.37469E+04  3.58862E+03 -1.15396E+04 -3.87407E+03 -6.27650E+03 -8.55288E+03
  2.03921E+03 -9.55850E+03  5.22068E+03 -3.26048E+03  5.86170E+03  4.07207E+03 -3.62627E+03  7.31184E+03
 -7.80870E+03  3.21598E+03 -1.05466E+04 -3.50201E+03 -5.14856E+03 -1.11306E+04  2.16017E+03 -1.22633E+04
  7.57157E+03 -8.46131E+03  8.91994E+03 -1.23004E+03  5.80128E+03  3.00013E+03  3.11062E+02  6.68121E+03
 -5.02787E+03  3.75981E+03 -4.73158E+03 -5.86287E+03  2.03248E+03 -1.06367E+04  9.81193E+03 -7.62155E+03
  1.43412E+04  2.08438E+03  1.43311E+04  1.11011E+04  3.13263E+03  1.38225E+04 -5.48035E+03  1.50609E+04
 -9.77284E+03  7.51343E+03 -1.45382E+04 -1.86138E+03 -7.16025E+03 -9.86107E+03  7.64383E+02 -1.13050E+04
  8.04618E+03 -4.24315E+03  8.70073E+03  2.32112E+03  3.94659E+03  9.36081E+03 -1.29236E+03  7.57409E+03
 -4.34134E+03  2.76688E+03 -2.75429E+03  3.22139E+03 -8.07331E+02  1.33264E+03 -2.84666E+03  3.26705E+03
 -4.74918E+03  4.80958E+03 -9.57376E+03  5.67049E+03 -1.33582E+04  5.90517E+02 -1.66137E+04 -9.84705E+03
 -9.04727E+03 -1.98250E+04  2.81295E+03 -2.36782E+04  1.51730E+04 -1.81856E+04  2.24436E+04 -7.10709E+03
  2.03935E+04  4.36913E+03  1.09492E+04  1.47101E+04  2.25691E+03  1.53952E+04 -5.62747E+03  9.17779E+03
 -9.45466E+03  1.39234E+03 -5.43479E+03 -2.46304E+03 -1.21710E+03 -1.56867E+03 -1.40881E+03  6.34519E+02
 -3.46424E+03  2.16650E+03 -2.15880E+03 -2.92225E+03 -8.03876E+02 -4.39969E+03  2.57386E+03 -6.59027E+03
  5.99818E+03 -4.62379E+03  1.16698E+04 -2.09243E+03  1.09157E+04  8.66486E+03  2.50835E+03  1.50236E+04
 -7.79313E+03  1.73427E+04 -1.80542E+04  9.12495E+03 -2.07957E+04 -2.13039E+03 -1.51673E+04 -1.29874E+04
 -4.74244E+03 -1.54475E+04  3.65991E+03 -1.47730E+04  1.11535E+04 -6.85091E+03  1.34919E+04 -8.51730E+02
  6.20361E+03  5.81415E+03 -6.48326E+02  5.45383E+03 -3.02576E+03 -1.38681E+02  1.33480E+03 -3.33344E+03
  6.96886E+03 -2.28399E+03  6.61660E+03  1.15054E+03  5.15938E+03  4.72821E+03 -3.53455E+02  8.10935E+03
 -4.18919E+03  6.83501E+03 -1.16817E+04  6.56597E+02 -1.09495E+04 -7.96172E+03 -1.95682E+03 -1.45020E+04
  6.64473E+03 -1.06888E+04  1.27980E+04 -3.74312E+03  1.31160E+04  3.23010E+03  7.80842E+03  8.89867E+03
  1.43884E+03  1.13328E+04 -4.99936E+03  7.53434E+03 -7.14268E+03  5.00409E+03 -6.04541E+03 -8.43329E+02
 -2.11160E+03 -1.96543E+03 -1.53701E+03  3.03924E+03 -5.18629E+03  3.48536E+03 -1.00176E+04 -6.46021E+02
 -8.56735E+03 -4.83376E+03 -1.21389E+03 -1.09206E+04  4.76510E+03 -1.48234E+04  1.10504E+04 -5.64522E+03
  9.55568E+03  2.11982E+03  7.66391E+03  7.24972E+03 -7.95570E+02  1.29682E+04 -6.00432E+03  7.14617E+03
