 $NMID ID='MM_0lb_SNR200_17hz_g45_70.RAW', FMTDAT='(8E13.5)'
 TRAMP=1., VOLUME=1. $END
  3.10251E+05  1.19602E+03  3.37504E+05  2.50197E+05  8.42566E+04  3.38551E+05 -1.32100E+05  2.51154E+05
 -1.89725E+05  8.26192E+04 -1.10568E+05 -3.44334E+04  1.18913E+03 -5.01683E+04  5.48469E+04  7.34626E+01
  3.49717E+04  5.26806E+04 -1.75499E+04  7.60549E+04 -5.98127E+04  6.34649E+04 -8.33998E+04  3.07145E+04
 -8.02859E+04 -1.09192E+04 -5.64647E+04 -5.15363E+04 -1.55315E+04 -6.86086E+04  2.73281E+04 -4.53188E+04
  4.04614E+04  3.68935E+03  1.63646E+04  4.74700E+04 -3.42485E+04  4.61349E+04 -6.57858E+04 -4.68431E+02
 -5.20503E+04 -5.70698E+04 -6.60474E+03 -7.54251E+04  3.32454E+04 -5.37988E+04  4.70912E+04 -1.59138E+04
  4.25907E+04  1.07904E+04  3.12934E+04  2.48173E+04  1.58395E+04  2.81897E+04 -4.69407E+03  2.60951E+04
 -2.20201E+04  1.16368E+04 -2.06771E+04 -4.01159E+03  5.69276E+03 -7.52365E+03  2.21518E+04  1.16308E+04
  7.89617E+03  3.42272E+04 -3.04040E+04  3.37095E+04 -6.15716E+04  2.28872E+03 -5.64286E+04 -4.16641E+04
 -1.19736E+04 -6.14649E+04  3.91897E+04 -4.35186E+04  5.69499E+04 -3.15524E+03  3.25880E+04  3.13078E+04
 -6.24656E+03  3.32277E+04 -2.83843E+04  1.40443E+04 -2.76589E+04 -5.63546E+03 -1.49700E+04 -1.01982E+04
 -7.42876E+03 -1.20894E+04 -8.85351E+02 -1.80692E+04  7.74391E+03 -2.30585E+04  1.48329E+04 -1.41679E+04
  1.21104E+04  4.96415E+03 -5.96630E+03  1.27104E+04 -1.93777E+04 -2.54900E+03 -8.04258E+03 -3.02489E+04
  2.14065E+04 -4.24040E+04  4.58847E+04 -1.92767E+04  4.26343E+04  1.85031E+04  1.46250E+04  4.30438E+04
 -1.54486E+04  3.14196E+04 -2.30936E+04  6.37121E+02 -8.82608E+03 -2.64835E+04  2.03291E+04 -3.13247E+04
  3.90504E+04 -6.92095E+03  3.21202E+04  2.23799E+04  1.43901E+04  4.26281E+04 -8.85335E+03  4.72659E+04
 -2.99405E+04  3.06362E+04 -3.86833E+04  8.89669E+03 -3.95296E+04 -1.57304E+04 -2.25935E+04 -3.56233E+04
  7.24117E+03 -3.46557E+04  3.02381E+04 -1.36931E+04  2.71580E+04  1.10451E+04  3.00903E+03  1.86608E+04
 -1.32903E+04  7.60204E+03 -9.70340E+03 -8.70473E+03  5.44319E+03 -1.09681E+04  1.72987E+04  6.28486E+03
  1.34066E+04  2.24847E+04 -7.24802E+03  2.22646E+04 -2.12713E+04  9.82054E+03 -2.74898E+04 -6.65982E+03
 -1.64903E+04 -1.62080E+04 -6.06725E+03 -1.88282E+04  3.44404E+03 -1.55040E+04  1.34188E+04 -1.54750E+04
  2.17449E+04 -1.20117E+04  2.94662E+04  9.85088E+02  2.19357E+04  1.70942E+04  4.30632E+03  3.42498E+04
 -1.64913E+04  2.79604E+04 -2.57057E+04  1.00434E+04 -1.91345E+04 -1.05652E+04 -4.53863E+03 -1.51149E+04
  1.86273E+03 -4.20972E+03 -2.89935E+03  5.57579E+03 -1.52876E+04  5.24062E+03 -1.29542E+04 -5.55054E+03
 -8.94440E+03 -1.66270E+04  3.83770E+03 -2.05384E+04  1.32129E+04 -1.44245E+04  1.64061E+04 -1.17835E+03
  9.26804E+03  1.11077E+04 -1.14406E+03  1.62980E+04 -1.15193E+04  9.73367E+03 -1.61835E+04 -2.76043E+03
 -1.16714E+04 -1.54851E+04 -8.78700E+02 -2.05333E+04  8.60237E+03 -1.56760E+04  1.71474E+04 -7.71250E+03
  1.58232E+04 -4.00837E+01  1.12017E+04  3.37729E+03  5.50406E+03  7.27518E+02  7.59313E+03 -1.70046E+03
  1.40761E+04  3.30848E+03  1.72054E+04  1.36374E+04  9.46500E+03  2.57083E+04 -2.71040E+03  2.85766E+04
 -1.57540E+04  2.22961E+04 -2.59635E+04  1.08905E+04 -2.75300E+04 -1.59389E+03 -2.33033E+04 -1.56049E+04
 -1.04551E+04 -2.27462E+04  7.75242E+03 -2.03888E+04  1.73735E+04 -1.12496E+04  1.59541E+04  3.87522E+03
  6.09979E+03  1.21191E+04 -8.05390E+03  1.05347E+04 -1.31757E+04  2.71228E+03 -1.17004E+04 -8.79509E+03
 -1.29994E+02 -1.39553E+04  6.92508E+03 -1.02042E+04  8.22410E+03 -7.23708E+02  4.76306E+02  4.80753E+03
 -5.97261E+03  2.15119E+03 -3.29055E+03 -4.47897E+03 -1.03616E+03 -1.14550E+04  8.80278E+03 -1.03509E+04
  1.30810E+04 -5.42490E+03  1.34719E+04  2.45120E+03  1.22514E+04  9.96737E+03  5.22073E+03  1.60267E+04
 -1.53475E+03  1.88767E+04 -1.13433E+04  1.07798E+04 -1.26829E+04  3.85871E+03 -8.67086E+03 -1.92616E+03
 -4.56565E+03 -2.64527E+03 -1.38338E+02  6.25299E+02 -2.39592E+03  1.35528E+03 -4.64936E+03  3.69380E+03
 -8.56506E+03 -1.44637E+03 -8.70796E+03 -7.61227E+03 -4.55987E+03 -1.20780E+04  2.67027E+03 -9.18371E+03
  8.61770E+03 -3.59353E+03  5.38801E+03  3.00841E+03  2.13686E+03  4.41219E+03 -4.28412E+03  6.44100E+02
 -3.35854E+03 -5.76116E+03 -8.50981E+02 -8.69528E+03  4.54291E+03 -7.76717E+03  1.09267E+04 -4.40118E+03
  1.26955E+04  3.93281E+02  9.82646E+03  8.39719E+03  1.74478E+03  1.00486E+04 -5.40910E+03  7.75746E+03
 -7.36151E+03  3.30069E+03 -4.05883E+03 -1.86787E+03  1.29880E+03 -2.05598E+03  4.39085E+03 -1.72705E+03
  4.48047E+03  3.69913E+03  1.87653E+03  6.54967E+03 -4.83094E+03  7.08113E+03 -9.05960E+03  2.29668E+03
 -5.09092E+03 -3.50408E+03  1.56566E+02 -6.99650E+03  3.78372E+03 -3.61334E+03  5.38249E+03  1.64856E+03
  1.67519E+03  3.63141E+03 -3.18409E+03  3.82371E+03 -6.11468E+03  3.23465E+03 -5.40098E+03 -2.48683E+03
 -2.63990E+03 -6.17295E+03  1.23854E+03 -7.08607E+03  8.43871E+03 -4.73855E+03  8.86255E+03  1.25565E+03
  5.52181E+03  7.23377E+03  7.11043E+02  7.92831E+03 -5.13660E+03  4.34073E+03 -5.97970E+03 -8.11228E+02
 -6.18168E+03 -6.73252E+03 -2.01045E+03 -6.85744E+03  2.74803E+03 -5.08191E+03  3.39633E+03 -2.16506E+03
  3.50511E+03  5.26455E+02  6.65433E+02  9.32676E+02 -5.62893E+02  8.92223E+02 -4.56219E+02 -2.69353E+03
  3.95529E+03  1.33628E+02  6.47229E+03  1.21012E+03  6.73304E+03  4.07578E+03  5.51239E+03  9.07540E+03
 -2.06892E+03  1.00731E+04 -9.19763E+03  6.42904E+03 -1.09171E+04  1.33627E+03 -9.04695E+03 -3.18274E+03
 -5.43382E+03 -6.76286E+03 -6.57246E+02 -5.88695E+03  3.28748E+03 -4.75100E+03  2.65621E+03 -2.49234E+03
  1.53472E+03 -1.68946E+03  1.74944E+03 -1.78435E+03  2.95476E+03 -1.39905E+03  4.92199E+03  1.15911E+03
  5.34359E+03  5.00517E+02  1.84547E+03  3.11394E+03 -2.40471E+03  2.89916E+03 -4.96298E+03  2.99577E+03
 -5.99425E+03 -8.04630E+02 -2.45478E+03 -4.04195E+03 -4.12482E+02 -5.73223E+03  3.86667E+03 -6.61937E+03
  6.15686E+03 -4.75833E+03  7.97316E+03  9.59097E+02  6.03604E+03  5.86505E+03  1.18658E+03  6.81250E+03
 -3.64738E+03  6.24535E+03 -3.90724E+03  1.99074E+03 -2.54860E+03 -1.88512E+03  9.58338E+01 -7.41879E+02
 -1.50252E+03  2.21505E+02 -1.51037E+03  2.69150E+03 -2.88557E+03  1.02736E+03 -4.33115E+03 -1.24731E+03
 -1.96500E+03 -4.46260E+03 -3.86548E+02 -4.60545E+03  2.62669E+03 -6.43130E+03  4.03781E+03 -1.31039E+03
  5.53656E+03  3.26436E+03  2.67974E+03  4.80951E+03 -2.83882E+02  5.71303E+03 -3.17873E+03  3.23419E+03
 -4.35061E+03  1.28862E+03 -4.97878E+03 -2.45479E+03 -4.90935E+02 -3.18459E+03  1.63405E+03 -3.46462E+03
  3.45918E+03 -1.19516E+03  2.59122E+03 -1.14522E+01 -3.09925E+02  4.92912E+02  1.16822E+03 -1.85285E+02
  9.71092E+02  1.15766E+03  1.56493E+03  8.34784E+02  6.68899E+02  2.70480E+03  5.10109E+02  2.82211E+03
 -2.07447E+02  3.70682E+03 -2.72447E+03  4.81329E+03 -4.56603E+03  1.53240E+03 -5.16918E+03 -1.53987E+03
 -2.37600E+03 -3.83522E+03 -2.47350E+02 -6.40718E+03  2.42866E+03 -2.65564E+03  3.81157E+03  9.43147E+01
  3.84550E+03  2.04296E+03  4.86885E+02  2.57617E+03 -9.56483E+02  6.90294E+02 -1.47251E+03 -1.12400E+03
 -5.24470E+02 -2.15469E+03  1.23642E+03 -3.03759E+03  2.04922E+03 -1.06530E+03  1.15851E+03 -1.78174E+02
  1.25862E+03  1.21100E+03  9.65788E+02  1.48878E+03 -7.67252E+02  6.64092E+02  1.64970E+03  2.98914E+02
  1.08985E+03 -1.09030E+03  2.18731E+03  9.79165E+02 -7.20933E+02  2.87064E+03 -3.82553E+02  3.88421E+03
 -2.33843E+03  2.32867E+03 -1.36310E+03 -3.94013E+02 -3.09855E+03 -2.98324E+02 -7.90538E+02  6.08718E+01
  9.90166E+02 -2.78246E+03  1.80302E+03 -4.72862E+02  7.84264E+02  2.09872E+03 -1.18979E+03  9.73528E+02
 -2.53564E+03  1.50152E+03 -1.09480E+03 -3.30209E+02 -6.90798E+02 -2.94144E+03  5.27675E+02 -2.46741E+03
 -2.83545E+02 -1.28617E+03  8.24972E+02 -1.34549E+03  1.03672E+03  1.08898E+03  7.82936E+01  2.12197E+03
 -1.85056E+02  4.97593E+02 -1.29444E+03 -4.46373E+02  1.87846E+02 -7.42891E+02  1.96042E+03 -5.83161E+02
  9.62571E+02  2.00025E+02  3.66328E+03  1.08607E+03  1.69600E+03  2.51356E+03 -6.57618E+02  2.38946E+03
 -1.66823E+03  3.56848E+01 -1.34774E+03  2.46000E+00 -9.25405E+02 -2.11638E+03  7.43852E+02 -2.44374E+02
  1.98335E+03 -2.16639E+02  1.57878E+03  8.88860E+02  6.24800E+02  2.16020E+03  2.15712E+02  1.46661E+03
 -5.03147E+02  4.00713E+02 -5.77744E+02 -2.58085E+02  8.53682E+02 -2.20585E+02 -6.36856E+02  6.67955E+02
 -4.97004E+02  7.79259E+02 -1.23903E+03  4.07658E+02 -2.28544E+03 -1.04316E+02 -3.61988E+03 -1.36237E+03
 -1.02080E+03 -4.13663E+03  1.46424E+02 -3.01119E+03  1.62676E+03 -3.60471E+03  3.69996E+03 -9.72048E+02
  3.65059E+03  6.14407E+01  2.36909E+03  2.32787E+03  5.71705E+02  2.57680E+03 -3.44862E+02  2.16142E+03
 -8.77351E+02  9.79742E+02  5.76451E+01  6.84540E+02 -1.63407E+02 -4.49311E+02 -1.17313E+03 -4.27696E+02
 -2.14537E+02 -2.31484E+02 -4.10837E+02  4.29352E+02  1.55145E+03  1.86418E+02  1.56034E+02 -1.08585E+03
  1.47526E+03 -3.83028E+02 -1.41530E+01  4.15872E+02  2.68336E+03  1.44578E+03 -3.39167E+02  2.54994E+03
 -1.20898E+03  2.02562E+03 -2.24495E+03  1.51314E+03 -3.19776E+03 -3.17872E+02 -1.90902E+03 -1.90892E+03
 -6.80765E+02 -2.01696E+03  1.64777E+03 -1.06968E+03  1.14692E+03 -1.93694E+03  1.74364E+03 -4.16010E+02
  1.28402E+03  1.88308E+03 -3.22709E+02 -1.67731E+02 -1.41369E+02 -6.65394E+02  8.23093E+02  2.32495E+02
 -9.95411E+00  3.43026E+02  6.22854E+02  1.37736E+03  7.60723E+01  9.08848E+02  3.09836E+02  9.70620E+02
 -1.20712E+03  6.84812E+02 -1.13809E+03 -9.53071E+02 -1.56050E+03 -1.42956E+03 -8.34100E+02 -2.47290E+03
  8.41516E+02 -8.48982E+02 -5.88125E+02  1.65079E+03  4.12752E+02 -3.41924E+02  1.81557E+03  1.62259E+03
  1.45175E+03  1.77223E+03 -1.20596E+03  1.14498E+03 -1.32035E+03  8.58736E+02 -3.46981E+02 -3.28930E+01
 -3.58167E+02 -9.15323E+02 -1.00881E+02  3.62685E+02 -7.71668E+02  3.21513E+02 -7.01223E+02  6.17369E+02
 -1.66675E+03 -1.87336E+02 -1.19180E+02 -1.83723E+03  4.78474E+02 -1.84029E+03  1.08031E+03 -6.38468E+02
 -2.57890E+02  7.61447E+02  3.20358E+01  1.14222E+03 -6.07279E+01  1.89343E+03 -1.28299E+03  9.06274E+02
