 $NMID ID='MM_0lb_SNR200_7hz_g60_83.RAW', FMTDAT='(8E13.5)'
 TRAMP=1., VOLUME=1. $END
  3.10703E+05 -2.07637E+02  3.36700E+05  2.50974E+05  8.45005E+04  3.39699E+05 -1.31195E+05  2.53659E+05
 -1.90305E+05  8.24616E+04 -1.13376E+05 -3.23468E+04  1.45057E+03 -5.11056E+04  5.42388E+04 -1.05355E+03
  3.75947E+04  5.21786E+04 -1.71423E+04  7.64806E+04 -6.10220E+04  6.43867E+04 -8.70666E+04  3.31489E+04
 -8.32244E+04 -1.28055E+04 -5.73494E+04 -5.22241E+04 -1.55031E+04 -7.09234E+04  2.82582E+04 -4.53559E+04
  4.00392E+04  2.95780E+03  1.84678E+04  4.83694E+04 -3.34789E+04  4.83481E+04 -6.89595E+04 -8.08273E+02
 -5.58845E+04 -5.73901E+04 -8.23619E+03 -7.93677E+04  3.50301E+04 -5.90077E+04  4.95707E+04 -1.99130E+04
  4.59426E+04  1.17119E+04  3.32729E+04  2.61453E+04  1.44920E+04  3.13622E+04 -4.22173E+03  2.90425E+04
 -2.34298E+04  1.24417E+04 -1.63567E+04 -6.64619E+03  8.49748E+03 -8.03588E+03  2.30654E+04  1.68375E+04
  7.28239E+03  3.80492E+04 -3.52894E+04  3.66911E+04 -6.65658E+04 -4.51093E+02 -5.91204E+04 -4.55633E+04
 -1.23319E+04 -6.70637E+04  4.40159E+04 -4.85889E+04  6.26245E+04 -1.40028E+03  3.75681E+04  3.55447E+04
 -5.08745E+03  4.27556E+04 -3.31692E+04  2.11719E+04 -3.56894E+04 -1.74051E+03 -2.10341E+04 -1.34747E+04
 -9.31103E+03 -1.64081E+04  6.05778E+02 -2.08028E+04  9.08041E+03 -2.30799E+04  1.60975E+04 -1.16315E+04
  1.10570E+04  8.95785E+03 -1.27615E+04  1.18930E+04 -2.36955E+04 -8.93912E+03 -8.80665E+03 -4.00289E+04
  2.59970E+04 -4.90856E+04  5.67102E+04 -2.06724E+04  5.01093E+04  2.43786E+04  1.85466E+04  4.82614E+04
 -1.53071E+04  3.60943E+04 -2.86300E+04  2.52126E+03 -1.26076E+04 -3.17105E+04  2.17498E+04 -3.80387E+04
  4.69071E+04 -1.15711E+04  4.28825E+04  2.63210E+04  2.32500E+04  5.51880E+04 -9.20844E+03  6.05351E+04
 -3.63756E+04  4.20477E+04 -5.20475E+04  1.25245E+04 -4.99689E+04 -1.94319E+04 -2.79451E+04 -4.25417E+04
  9.69967E+03 -4.29934E+04  3.44432E+04 -1.93921E+04  3.25631E+04  9.55768E+03  4.98164E+03  2.20535E+04
 -1.42658E+04  9.93829E+03 -1.30230E+04 -7.86457E+03  2.55850E+03 -1.22104E+04  2.23091E+04  4.81315E+03
  1.56474E+04  2.44392E+04 -4.64887E+03  2.87562E+04 -2.48603E+04  1.68786E+04 -3.26123E+04 -9.28357E+02
 -2.91700E+04 -1.81362E+04 -1.47590E+04 -2.82713E+04  5.06634E+03 -2.85263E+04  2.24017E+04 -2.61467E+04
  3.57585E+04 -1.50647E+04  4.04748E+04  6.54413E+03  2.91734E+04  2.73433E+04  3.76786E+03  4.57256E+04
 -2.19114E+04  3.53260E+04 -3.28487E+04  1.40372E+04 -2.40846E+04 -9.75468E+03 -5.92689E+03 -1.28687E+04
 -1.55158E+03 -1.96748E+02 -7.69775E+03  9.16662E+03 -2.32522E+04  3.61195E+03 -2.18476E+04 -1.17025E+04
 -1.28272E+04 -2.69676E+04  6.14871E+03 -3.20670E+04  2.02696E+04 -2.14516E+04  2.53959E+04 -1.26912E+03
  1.50812E+04  2.07508E+04  4.89639E+02  2.77529E+04 -1.93273E+04  1.56847E+04 -2.70655E+04 -6.52499E+03
 -1.97460E+04 -2.41953E+04 -1.36043E+03 -3.16491E+04  1.49192E+04 -2.64982E+04  2.62347E+04 -1.30533E+04
  2.43053E+04 -2.99602E+03  1.74602E+04  4.75862E+03  9.94087E+03  3.33885E+02  1.46788E+04 -1.84865E+03
  2.62496E+04  2.49026E+03  3.08639E+04  2.07582E+04  1.97685E+04  4.37098E+04 -2.42505E+03  5.04768E+04
 -3.03359E+04  4.11829E+04 -4.95905E+04  2.35419E+04 -5.34465E+04 -2.87016E+03 -4.05755E+04 -2.96339E+04
 -1.59382E+04 -4.17395E+04  1.48429E+04 -3.72884E+04  3.16663E+04 -1.67421E+04  2.85054E+04  1.00455E+04
  8.32304E+03  2.33626E+04 -1.39966E+04  1.74023E+04 -2.21200E+04  2.12208E+03 -1.71580E+04 -1.52908E+04
 -9.02728E+02 -2.02846E+04  1.39621E+04 -1.83628E+04  1.52304E+04 -1.44357E+03  4.58635E+03  1.07045E+04
 -9.96607E+03  4.20841E+03 -1.14567E+04 -6.46990E+03 -1.95203E+03 -2.07395E+04  1.46478E+04 -2.42014E+04
  2.77613E+04 -1.46756E+04  3.00949E+04  3.82718E+03  2.89663E+04  2.49282E+04  1.34325E+04  3.34652E+04
 -6.46589E+03  3.83529E+04 -2.36268E+04  2.17456E+04 -2.70439E+04  3.12069E+03 -1.76900E+04 -8.00536E+03
 -6.82619E+03 -7.08334E+03  3.09583E+02 -1.19817E+03 -2.45150E+03  4.34860E+03 -7.56890E+03  7.41337E+03
 -1.80959E+04  8.78108E+02 -1.80873E+04 -1.36225E+04 -6.91604E+03 -2.22572E+04  7.75809E+03 -1.95743E+04
  1.49725E+04 -7.01098E+03  1.02608E+04  7.47201E+03  2.56240E+03  8.16118E+03 -1.01625E+04 -6.50628E+02
 -9.49673E+03 -1.38891E+04 -7.72287E+01 -1.89405E+04  1.15937E+04 -1.98426E+04  2.46336E+04 -1.09445E+04
  2.81423E+04  1.36228E+03  2.11919E+04  1.69594E+04  1.88298E+03  2.42746E+04 -1.13105E+04  1.96315E+04
 -1.45401E+04  4.84046E+03 -7.30185E+03 -1.77796E+03  1.35737E+03 -5.01023E+03  1.01436E+04 -4.74422E+02
  8.32405E+03  8.81276E+03  1.87662E+03  1.54464E+04 -9.69335E+03  1.39586E+04 -1.80991E+04  4.09656E+03
 -1.21823E+04 -9.91810E+03  8.28274E+02 -1.48240E+04  1.04566E+04 -6.83418E+03  1.23132E+04  4.32444E+03
  2.42892E+03  1.29393E+04 -8.38359E+03  1.66955E+04 -1.74857E+04  6.32093E+03 -1.99277E+04 -7.63042E+03
 -1.03862E+04 -1.90187E+04  5.39356E+03 -2.29942E+04  1.96902E+04 -1.30853E+04  2.23512E+04  5.19620E+03
  1.32691E+04  1.65826E+04  2.65938E+02  1.91551E+04 -1.34706E+04  1.00573E+04 -1.68182E+04 -6.51310E+02
 -1.31394E+04 -1.32575E+04 -1.20380E+03 -1.52818E+04  6.58531E+03 -1.08426E+04  1.00275E+04 -3.28648E+03
  5.21120E+03  2.12238E+03 -1.38839E+03  3.72681E+03 -2.48303E+03 -5.00805E+03  6.08797E+03 -9.19203E+03
  1.41760E+04 -6.83872E+03  2.09644E+04  6.95130E+02  2.12144E+04  1.26558E+04  1.20742E+04  2.60936E+04
 -6.97331E+03  3.06500E+04 -2.37349E+04  2.25935E+04 -3.25179E+04  5.45668E+03 -2.60643E+04 -1.32814E+04
 -1.30993E+04 -2.33900E+04  5.71879E+02 -1.88473E+04  7.60536E+03 -1.07471E+04  4.88116E+03 -7.18947E+03
  4.01608E+03 -3.53494E+03  5.30072E+03 -4.25554E+03  6.97962E+03 -5.89061E+03  1.02995E+04 -2.46902E+03
  1.36398E+04  1.83901E+03  7.77727E+03  1.21139E+04 -2.06474E+03  1.57723E+04 -1.55676E+04  1.11774E+04
 -1.68000E+04  8.09443E+02 -1.31661E+04 -1.40056E+04 -1.90923E+03 -1.92834E+04  9.97829E+03 -2.09893E+04
  2.07742E+04 -1.42024E+04  2.61418E+04  3.48762E+03  1.63998E+04  1.83312E+04  1.80659E+03  2.15763E+04
 -1.00062E+04  1.91661E+04 -1.22568E+04  5.08879E+03 -9.12856E+03 -2.03819E+03 -3.86808E+03 -1.64414E+03
 -2.98896E+03 -1.88232E+03 -1.91725E+03  3.04641E+03 -9.18434E+03  2.35716E+03 -1.28429E+04 -3.29720E+03
 -1.28429E+04 -1.51742E+04  2.77207E+02 -1.97090E+04  1.09979E+04 -1.81637E+04  2.20536E+04 -4.11229E+03
  1.99071E+04  1.22254E+04  9.31697E+03  1.92036E+04 -5.43650E+03  2.09483E+04 -1.54763E+04  1.18074E+04
 -2.02503E+04  2.37982E+03 -1.73504E+04 -1.39224E+04 -1.07131E+03 -1.76147E+04  1.02059E+04 -1.29308E+04
  1.24057E+04 -5.18251E+03  7.21609E+03  2.99343E+03  3.69961E+03  4.81751E+03  2.95984E+03  2.57012E+03
  4.40116E+03  8.56052E+02  4.29724E+03  2.66117E+03  8.19724E+03  6.60688E+03  4.76009E+03  1.17769E+04
 -4.14393E+03  1.79892E+04 -1.23054E+04  1.72624E+04 -1.98214E+04  2.92485E+03 -2.21219E+04 -9.92135E+03
 -1.02029E+04 -2.12862E+04  2.79077E+03 -2.26763E+04  1.18258E+04 -1.64936E+04  1.69908E+04 -4.16908E+03
  1.23710E+04  6.56540E+03  9.17128E+02  1.24271E+04 -6.18748E+03  9.97229E+03 -1.07136E+04 -8.03546E+02
 -4.56510E+03 -9.80788E+03  6.89431E+03 -1.08292E+04  7.05177E+03 -2.74815E+03  7.49859E+03  2.71318E+03
  5.47338E+03  2.85875E+03  1.27932E+03  3.74558E+03 -1.94171E+03  2.14324E+03  1.98039E+03 -6.70220E+01
  2.66404E+03 -2.42301E+03  8.10454E+03  3.87193E+03  5.82206E+03  1.15548E+04  3.46204E+02  1.44947E+04
 -1.06787E+04  1.09574E+04 -1.40736E+04  2.88260E+03 -1.15459E+04 -3.88711E+03 -6.34428E+03 -7.88371E+03
  1.51279E+03 -9.92934E+03  5.13443E+03 -3.34950E+03  6.04398E+03  4.20684E+03 -1.15159E+03  9.67769E+03
 -9.71872E+03  2.47763E+03 -9.67796E+03 -3.43617E+03 -7.06079E+03 -1.07169E+04  3.19953E+03 -1.28633E+04
  5.70501E+03 -7.12493E+03  9.08607E+03  3.62078E+02  5.72270E+03  4.95699E+03  1.70364E+03  7.23137E+03
 -3.95188E+03  2.73696E+03 -5.36838E+03 -4.74126E+03  1.19723E+03 -9.62389E+03  9.96760E+03 -8.46207E+03
  1.19824E+04  2.27101E+02  1.22492E+04  9.38233E+03  5.41792E+03  1.38371E+04 -5.79176E+03  1.57430E+04
 -1.32512E+04  5.52587E+03 -1.19455E+04 -5.73592E+02 -7.55380E+03 -1.01029E+04  2.60964E+03 -9.26235E+03
  8.35274E+03 -5.62991E+03  8.42622E+03  3.19861E+03  4.76590E+03  6.78167E+03 -1.87051E+03  6.66156E+03
 -2.79360E+03  1.51839E+03 -1.85736E+03  1.03121E+03 -8.36881E+02  2.49095E+03 -3.11194E+03  2.44216E+03
 -3.48752E+03  4.61089E+03 -9.54147E+03  6.55985E+03 -1.44794E+04  2.40843E+02 -1.60265E+04 -9.94326E+03
 -7.70749E+03 -2.15134E+04  3.14892E+03 -2.33107E+04  1.35505E+04 -1.64436E+04  2.20739E+04 -8.43874E+03
  1.91773E+04  6.06470E+03  1.21412E+04  1.38714E+04  2.21611E+03  1.67298E+04 -7.14690E+03  1.14634E+04
 -9.66324E+03  4.72458E+03 -8.35555E+03 -1.05052E+03 -1.38882E+03 -3.14113E+03 -1.43531E+03 -1.26899E+03
 -1.48344E+03  8.40527E+02 -2.87485E+03 -2.82722E+03 -2.87436E+03 -3.44013E+03 -1.69681E+03 -4.18233E+03
  8.82843E+03 -4.43710E+03  9.24114E+03  8.74318E+02  8.67890E+03  9.86937E+03  3.78456E+03  1.74493E+04
 -6.88344E+03  1.72071E+04 -1.67005E+04  1.18206E+04 -1.91256E+04 -2.06491E+03 -1.68159E+04 -1.13551E+04
 -6.47142E+03 -1.77630E+04  5.09612E+03 -1.69726E+04  1.15200E+04 -9.31652E+03  1.26427E+04  4.40659E+01
  4.88550E+03  4.03494E+03 -2.15805E+03  6.00349E+03 -4.07269E+03  1.14620E+02 -1.46290E+03 -1.81918E+03
  3.83296E+03 -1.68684E+03  8.60082E+03  1.92930E+03  4.85000E+03  5.85062E+03  1.12426E+03  7.95672E+03
 -7.99604E+03  7.31285E+03 -1.23884E+04  1.33577E+03 -1.14725E+04 -8.35831E+03 -3.40808E+03 -1.41601E+04
  6.69888E+03 -1.00985E+04  1.23172E+04 -5.21437E+03  1.18866E+04  3.60076E+03  7.93577E+03  1.08326E+04
 -1.64727E+02  1.16476E+04 -4.55225E+03  1.07753E+04 -4.86680E+03  3.34299E+03 -7.61859E+03  1.18107E+03
 -2.96795E+03  1.38120E+03  9.95144E+02  5.43979E+02 -7.01823E+03  1.96576E+03 -1.04750E+04 -1.73363E+03
 -6.89828E+03 -5.90958E+03 -5.10536E+03 -1.17589E+04  4.09382E+03 -1.22550E+04  8.81184E+03 -6.57842E+03
  1.03235E+04  1.65586E+03  7.56160E+03  9.59950E+03 -1.35226E+03  9.98356E+03 -9.97164E+03  6.58885E+03
