 $NMID ID='MM_0lb_SNR200_15hz_g40_48.RAW', FMTDAT='(8E13.5)'
 TRAMP=1., VOLUME=1. $END
  3.09654E+05  1.15529E+03  3.38025E+05  2.50466E+05  8.37013E+04  3.37024E+05 -1.32703E+05  2.50175E+05
 -1.89941E+05  8.31009E+04 -1.11060E+05 -3.23430E+04  5.46287E+02 -5.05043E+04  5.47907E+04 -1.57875E+02
  3.42658E+04  5.27415E+04 -1.69493E+04  7.61205E+04 -6.11085E+04  6.30840E+04 -8.39896E+04  3.20431E+04
 -8.03803E+04 -1.12311E+04 -5.74870E+04 -5.00168E+04 -1.47792E+04 -6.99540E+04  2.75717E+04 -4.57932E+04
  4.01858E+04  2.71352E+03  1.60405E+04  4.73856E+04 -3.33824E+04  4.65947E+04 -6.68476E+04 -1.89587E+02
 -5.29185E+04 -5.73357E+04 -6.04500E+03 -7.62861E+04  3.27130E+04 -5.26981E+04  4.69664E+04 -1.75017E+04
  4.32429E+04  1.10274E+04  3.01614E+04  2.53052E+04  1.63566E+04  2.86632E+04 -3.82704E+03  2.68712E+04
 -2.13606E+04  1.32779E+04 -1.94319E+04 -4.71601E+03  5.38313E+03 -8.65899E+03  2.11685E+04  1.26986E+04
  7.55539E+03  3.56832E+04 -3.12828E+04  3.49973E+04 -6.21876E+04  2.64171E+03 -5.69082E+04 -4.19604E+04
 -1.19839E+04 -6.22717E+04  3.82742E+04 -4.43041E+04  5.67362E+04 -1.34783E+03  3.17565E+04  3.22772E+04
 -6.19077E+03  3.40965E+04 -2.80089E+04  1.39475E+04 -2.91953E+04 -4.87811E+03 -1.53670E+04 -1.11350E+04
 -7.31323E+03 -1.20537E+04 -4.12087E+02 -1.67956E+04  7.07692E+03 -2.33827E+04  1.54141E+04 -1.26273E+04
  1.15173E+04  4.80629E+03 -7.33267E+03  1.13694E+04 -1.94944E+04 -2.91483E+03 -7.61543E+03 -3.18045E+04
  2.17433E+04 -3.98808E+04  4.64007E+04 -1.90349E+04  4.18621E+04  1.73030E+04  1.53663E+04  4.34986E+04
 -1.45120E+04  3.27803E+04 -2.34202E+04  8.05318E+02 -8.67950E+03 -2.65067E+04  2.04831E+04 -3.21667E+04
  3.86720E+04 -9.03934E+03  3.42530E+04  2.40690E+04  1.59411E+04  4.36114E+04 -6.90531E+03  4.82555E+04
 -3.02504E+04  3.20450E+04 -3.92593E+04  9.14999E+03 -4.02657E+04 -1.51938E+04 -2.18963E+04 -3.55873E+04
  7.22000E+03 -3.64760E+04  3.14854E+04 -1.31802E+04  2.71741E+04  1.02294E+04  3.65199E+03  1.87254E+04
 -1.35063E+04  8.07145E+03 -1.05156E+04 -7.73017E+03  5.94573E+03 -1.09965E+04  1.78336E+04  7.03566E+03
  1.43505E+04  2.05418E+04 -6.20087E+03  2.37922E+04 -2.23466E+04  1.07293E+04 -2.68217E+04 -4.59210E+03
 -1.81123E+04 -1.72257E+04 -7.89275E+03 -1.87098E+04  3.45147E+03 -1.71748E+04  1.40856E+04 -1.53346E+04
  2.42542E+04 -1.32959E+04  3.07317E+04  2.91514E+03  2.23072E+04  1.79969E+04  4.63537E+03  3.52710E+04
 -1.76548E+04  2.79913E+04 -2.75133E+04  9.89424E+03 -2.00613E+04 -1.22360E+04 -4.72651E+03 -1.34026E+04
  2.60693E+03 -3.22847E+03 -4.09877E+03  5.82772E+03 -1.53089E+04  4.90396E+03 -1.47939E+04 -6.39182E+03
 -8.45008E+03 -1.70077E+04  5.94619E+03 -2.20025E+04  1.39144E+04 -1.45909E+04  1.74366E+04 -6.29498E+02
  1.08783E+04  1.09952E+04 -7.85464E+02  1.75513E+04 -1.25279E+04  1.09712E+04 -1.72603E+04 -3.44805E+03
 -1.29986E+04 -1.52034E+04 -1.72205E+03 -2.14273E+04  8.43746E+03 -1.70905E+04  1.77651E+04 -8.83092E+03
  1.63855E+04  7.80785E+02  1.14771E+04  4.01246E+03  5.70309E+03 -1.24828E+02  9.54107E+03 -7.84814E+02
  1.49143E+04  2.38980E+03  1.72074E+04  1.38062E+04  1.04675E+04  2.73839E+04 -2.32419E+03  3.05242E+04
 -1.77136E+04  2.44632E+04 -2.89542E+04  1.17284E+04 -2.93818E+04 -1.45630E+03 -2.51416E+04 -1.59472E+04
 -1.00938E+04 -2.46599E+04  7.83881E+03 -2.21266E+04  1.92815E+04 -1.18808E+04  1.72496E+04  3.81447E+03
  7.49729E+03  1.24841E+04 -7.61337E+03  1.14016E+04 -1.48122E+04  2.11460E+03 -1.13833E+04 -8.90753E+03
 -1.26460E+03 -1.34417E+04  7.42348E+03 -1.02434E+04  9.44387E+03 -1.32332E+03  2.29754E+03  6.73910E+03
 -6.36450E+03  2.35837E+03 -4.38981E+03 -5.21987E+03  8.86235E+02 -1.23372E+04  9.54232E+03 -1.20565E+04
  1.49288E+04 -5.27920E+03  1.53776E+04  2.66629E+03  1.28724E+04  1.14552E+04  5.96898E+03  1.70990E+04
 -3.71234E+03  2.08062E+04 -1.27041E+04  1.27066E+04 -1.46496E+04  4.01448E+03 -1.00195E+04 -2.64522E+03
 -4.84397E+03 -3.66983E+03 -1.26016E+03  1.24005E+03 -1.99490E+03  2.24062E+03 -6.22105E+03  4.24292E+03
 -9.53959E+03 -2.55553E+02 -1.07541E+04 -8.21125E+03 -3.52710E+03 -1.28248E+04  4.13451E+03 -1.06878E+04
  8.10533E+03 -5.30039E+03  6.93563E+03  2.76296E+03  5.38540E+02  3.34690E+03 -2.41478E+03 -5.14985E+02
 -4.64326E+03 -5.36672E+03  7.42044E+02 -9.14249E+03  5.38008E+03 -1.08128E+04  1.26708E+04 -5.35279E+03
  1.53727E+04  5.65681E+02  9.50934E+03  8.31757E+03  1.89472E+03  1.03433E+04 -6.19829E+03  9.60821E+03
 -8.24432E+03  4.07447E+03 -5.60878E+03 -1.53735E+03  1.80087E+03 -2.03488E+03  5.23599E+03 -1.42446E+03
  4.24315E+03  4.76081E+03  9.17535E+02  8.60803E+03 -5.82708E+03  8.26010E+03 -9.40889E+03  2.45266E+03
 -5.96766E+03 -4.64028E+03  2.69574E+02 -9.47055E+03  4.32949E+03 -3.99239E+03  4.13493E+03  2.12402E+02
  7.44907E+02  5.58522E+03 -6.16692E+03  6.00830E+03 -6.59649E+03  9.39542E+02 -6.92922E+03 -1.41433E+03
 -3.88152E+03 -8.11234E+03  1.72908E+03 -1.02118E+04  7.58267E+03 -6.05456E+03  9.77301E+03  2.44046E+03
  7.32018E+03  7.41126E+03  4.95048E+02  9.83487E+03 -6.66368E+03  4.42243E+03 -8.76356E+03  2.95048E+02
 -5.82366E+03 -6.57190E+03 -2.49703E+03 -7.10403E+03  3.90708E+03 -5.85678E+03  3.52422E+03 -2.38758E+03
  3.54492E+03  9.19447E+02 -2.84316E+02  2.43262E+03 -1.55056E+01 -1.26821E+03  1.10100E+03 -3.74672E+03
  5.27960E+03 -1.94740E+03  6.91202E+03  1.19201E+03  8.49821E+03  5.73749E+03  5.83061E+03  1.01021E+04
 -2.81853E+03  1.17956E+04 -1.08763E+04  8.36978E+03 -1.33221E+04  1.00542E+03 -1.18940E+04 -3.83153E+03
 -5.54755E+03 -8.42383E+03 -1.71284E+03 -7.56520E+03  2.19443E+03 -2.94540E+03  3.16321E+03 -2.05744E+03
  1.18615E+03 -1.12590E+03  2.38054E+03 -8.45877E+02  4.28456E+03 -1.34054E+03  4.07849E+03 -7.62190E+02
  6.18573E+03  1.41175E+03  2.65772E+03  4.67407E+03 -4.72708E+02  4.74840E+03 -6.15189E+03  3.76317E+03
 -7.41253E+03 -1.12073E+03 -4.83196E+03 -3.94274E+03  3.46936E+02 -6.80224E+03  4.41370E+03 -8.52914E+03
  8.78356E+03 -4.57074E+03  1.00355E+04  1.69610E+03  6.60652E+03  5.36234E+03  9.49147E+02  8.76092E+03
 -3.94793E+03  8.09050E+03 -5.11511E+03  2.48992E+03 -3.59328E+03 -1.69028E+03 -6.35590E+02 -1.66408E+03
 -3.01412E+02  9.74597E+02 -9.41927E+02  2.61041E+03 -3.43116E+03  1.01935E+03 -4.59849E+03 -4.13623E+02
 -2.60649E+03 -5.12590E+03  1.83867E+02 -6.01196E+03  3.05587E+03 -5.60153E+03  6.65726E+03 -2.30368E+03
  6.00271E+03  2.37925E+03  2.79994E+03  5.97228E+03 -9.59313E+02  7.00526E+03 -4.58181E+03  2.66505E+03
 -5.51760E+03 -2.01626E+01 -6.36108E+03 -3.84085E+03  7.38227E+01 -5.38014E+03  1.97151E+03 -3.99320E+03
  5.43428E+03 -1.20216E+03  3.35089E+03  1.87059E+03  7.47103E+02  2.05814E+03  1.97624E+03  5.02092E+02
  1.58788E+03  1.99059E+02  6.64455E+02  2.48225E+03  1.72767E+03  2.61479E+03  1.64221E+03  2.37803E+03
 -2.30950E+03  3.82909E+03 -4.29010E+03  3.99818E+03 -6.60719E+03  2.83848E+03 -5.58362E+03  1.43732E+02
 -1.44555E+03 -5.86700E+03  8.48680E+02 -7.83553E+03  3.79095E+03 -4.73514E+03  5.38049E+03 -2.35265E+03
  3.77111E+03  3.17953E+03  1.12205E+03  3.28735E+03 -1.00914E+03  1.99766E+03 -9.36236E+02 -1.44000E+03
 -1.99366E+03 -2.52308E+03  1.36318E+03 -2.32895E+03  2.24070E+03 -1.73298E+03  2.62587E+03  1.45710E+03
  2.05303E+03  1.40641E+03  7.06025E+02  4.51207E+02 -7.18945E+02  1.10369E+03  1.24454E+03 -4.12040E+02
  2.87120E+02 -2.14671E+02  2.61755E+03  5.44586E+01 -1.63615E+02  4.95600E+03 -6.00638E+01  4.59416E+03
 -3.42419E+03  1.66678E+03 -4.40497E+03  1.10015E+03 -4.05681E+03 -8.18245E+02 -7.77573E+02 -2.60596E+03
 -3.44269E+02 -1.33025E+03  7.71053E+01 -1.13592E+03  1.37786E+03  2.30753E+03 -9.32774E+02  1.63011E+03
 -2.13667E+03  5.19957E+02 -3.13066E+03 -1.01721E+03 -6.08167E+02 -4.16704E+03  5.39307E+02 -1.66052E+03
  1.03660E+03 -1.40131E+03  1.65108E+03  1.14237E+03  1.45296E+03  6.01502E+02  8.93220E+02  1.98991E+03
 -6.54260E+02 -5.48346E+02 -9.28397E+02 -9.76206E+02  8.54714E+02 -1.74157E+03  3.01751E+03 -1.13319E+03
  4.03840E+03  8.30488E+02  4.53721E+03  1.97675E+03  3.98646E+02  2.79782E+03 -1.08498E+03  3.35667E+03
 -2.13657E+03  1.15658E+03 -3.08703E+03 -3.99431E-01 -1.41487E+03 -1.90173E+03  2.49390E+01 -2.36571E+03
  9.48791E+02 -1.39625E+03  1.35612E+03  8.48946E+02 -6.56749E+02  2.40475E+03  1.08332E+03  2.91055E+03
 -5.89319E+02  1.93356E+03 -1.69678E+03  3.97070E+02 -1.83196E+01  4.41637E+02 -5.38041E+02  1.00716E+03
 -4.91406E+02  1.35133E+03 -2.29292E+03  1.95361E+03 -2.25361E+03  1.41762E+03 -3.21414E+03 -1.68550E+03
 -1.77819E+03 -4.43559E+03  2.60340E+02 -5.63639E+03  3.53093E+03 -3.84268E+03  4.29990E+03 -1.94550E+03
  3.17286E+03  3.74311E+02  6.30807E+02  3.16589E+03 -3.40558E+02  2.57588E+03 -1.36051E+03  2.79177E+03
 -1.71142E+03  1.23631E+02 -4.42017E+02  6.43095E+01  8.64999E+01 -4.33956E+02 -5.10760E+02 -6.26653E+02
 -3.67198E+02  1.57878E+03  3.94106E+01 -7.52266E+02 -1.82323E+02  6.38460E+02  4.74125E+02 -1.09813E+03
  2.11175E+03 -6.22822E+02  6.84159E+02  4.54535E+00  2.19608E+03  1.73669E+03 -3.96798E+02  3.87415E+03
 -3.30125E+02  3.32388E+03 -4.15495E+03  1.55549E+03 -3.44345E+03 -1.89244E+02 -3.06844E+03 -2.09597E+03
 -1.33890E+03 -3.27224E+03 -3.14636E+01 -3.47298E+03  1.83643E+03 -1.70182E+03  1.61053E+03  1.05148E+03
  1.91623E+03  1.70653E+03 -5.41955E+02  1.34038E+03 -7.42195E+02 -1.60345E+02  5.26039E+02 -1.01753E+03
 -5.58073E+02 -1.23459E+03  1.54087E+03 -4.35443E+02  1.42989E+02  8.26679E+02  2.49181E+02  2.11766E+03
 -6.28995E+02  1.56161E+03 -2.36043E+03 -2.93070E+01 -2.24795E+03 -1.25321E+03  2.26351E+02 -2.25647E+03
  1.79910E+03 -1.74540E+03  3.12899E+03 -5.52347E+02  2.18038E+03  5.17754E+02  9.12677E+02  1.87181E+03
  8.32399E+02  1.28857E+03 -2.91443E+02  1.02496E+03 -1.87002E+03  2.03824E+02 -6.60767E+02  9.68155E+01
 -4.53009E+02 -7.18070E+02 -1.15116E+03  4.46503E+02 -7.54932E+01 -2.55293E+01 -3.68067E+02 -4.34659E+02
 -1.60559E+03 -3.25244E+02 -3.65694E+02 -2.56080E+03  6.81202E+02 -2.19979E+03  7.34361E+02 -9.58123E+02
  1.72823E+03  9.04534E+02  6.96469E+01  4.13893E+02  4.07228E+02  1.30794E+03 -1.67730E+03  2.08174E+03
