 $NMID ID='MM_0lb_SNR200_10hz_g55_15.RAW', FMTDAT='(8E13.5)'
 TRAMP=1., VOLUME=1. $END
  3.09626E+05  2.59637E+02  3.38909E+05  2.51579E+05  8.52728E+04  3.37752E+05 -1.30923E+05  2.51581E+05
 -1.91483E+05  8.33086E+04 -1.14088E+05 -3.23178E+04 -2.62896E+02 -5.07242E+04  5.28008E+04 -5.72686E+02
  3.60099E+04  5.22282E+04 -1.67865E+04  7.70090E+04 -6.07591E+04  6.38131E+04 -8.45028E+04  3.24314E+04
 -8.18322E+04 -1.08279E+04 -5.96297E+04 -5.25509E+04 -1.63745E+04 -7.06806E+04  2.70300E+04 -4.73422E+04
  4.06048E+04  3.89728E+03  1.70339E+04  4.80553E+04 -3.38994E+04  4.95987E+04 -6.78653E+04 -7.53875E+02
 -5.65279E+04 -5.83338E+04 -7.09414E+03 -7.71029E+04  3.39804E+04 -5.72289E+04  4.91564E+04 -1.82801E+04
  4.40062E+04  1.19656E+04  3.31142E+04  2.66261E+04  1.59061E+04  2.97204E+04 -4.88289E+03  2.71121E+04
 -2.19643E+04  1.20563E+04 -1.80169E+04 -6.48388E+03  6.02508E+03 -7.50086E+03  2.25355E+04  1.41306E+04
  8.17941E+03  3.65852E+04 -3.43028E+04  3.80067E+04 -6.50212E+04  3.91975E+03 -5.91933E+04 -4.49676E+04
 -1.20640E+04 -6.47330E+04  4.15407E+04 -4.68510E+04  6.05813E+04 -2.52289E+03  3.64086E+04  3.40417E+04
 -5.33083E+03  3.91717E+04 -3.10596E+04  1.77920E+04 -3.16681E+04 -3.43106E+03 -1.92629E+04 -1.10801E+04
 -1.08758E+04 -1.47593E+04 -4.37277E+02 -2.00989E+04  7.34394E+03 -2.35282E+04  1.53873E+04 -1.27826E+04
  9.45626E+03  6.74645E+03 -1.04756E+04  1.27246E+04 -2.32963E+04 -5.25817E+03 -1.01288E+04 -3.75866E+04
  2.41786E+04 -4.70536E+04  5.31796E+04 -2.23014E+04  4.93521E+04  2.07428E+04  1.62600E+04  4.62997E+04
 -1.58520E+04  3.62583E+04 -2.82408E+04  3.40474E+03 -1.30572E+04 -2.97700E+04  2.15037E+04 -3.75232E+04
  4.59003E+04 -1.11723E+04  3.99463E+04  2.35466E+04  2.13590E+04  4.97983E+04 -7.73085E+03  5.55465E+04
 -3.62775E+04  3.75288E+04 -4.74590E+04  1.09430E+04 -4.72392E+04 -1.79307E+04 -2.61162E+04 -4.39056E+04
  8.24867E+03 -4.08391E+04  3.47216E+04 -1.63725E+04  3.19069E+04  1.12182E+04  4.83765E+03  2.23535E+04
 -1.35292E+04  1.00379E+04 -1.05361E+04 -7.33574E+03  6.82568E+03 -1.25854E+04  1.72163E+04  5.87966E+03
  1.44279E+04  2.30844E+04 -5.19075E+03  2.77551E+04 -2.25161E+04  1.33252E+04 -3.10946E+04 -2.36816E+03
 -2.56807E+04 -1.93914E+04 -1.10871E+04 -2.51678E+04  3.33127E+03 -2.52676E+04  1.84449E+04 -2.23503E+04
  3.11346E+04 -1.35124E+04  3.71808E+04  5.14285E+03  2.66341E+04  2.49370E+04  3.93375E+03  4.09667E+04
 -1.97542E+04  3.38966E+04 -3.07901E+04  1.27101E+04 -2.15794E+04 -1.01647E+04 -6.26701E+03 -1.27554E+04
  4.39690E+02 -1.16776E+03 -8.01159E+03  7.78146E+03 -2.00924E+04  6.38170E+03 -1.91021E+04 -9.55633E+03
 -1.21634E+04 -2.13753E+04  6.70188E+03 -2.68848E+04  1.91656E+04 -1.98840E+04  2.30460E+04 -3.33718E+03
  1.50083E+04  1.50185E+04  7.18220E+01  2.28827E+04 -1.62073E+04  1.13739E+04 -2.30453E+04 -5.52519E+03
 -1.76927E+04 -2.08152E+04 -2.92673E+03 -2.78072E+04  1.22967E+04 -2.35946E+04  2.34185E+04 -1.24012E+04
  2.19396E+04 -6.61949E+02  1.56340E+04  5.58084E+03  7.13596E+03  1.80412E+03  1.12456E+04 -2.72129E+03
  2.15310E+04  2.29751E+03  2.41507E+04  1.79282E+04  1.80006E+04  3.71314E+04 -1.42962E+03  4.33173E+04
 -2.52851E+04  3.55875E+04 -4.02340E+04  1.84250E+04 -4.25407E+04 -3.46468E+03 -3.60917E+04 -2.46693E+04
 -1.28405E+04 -3.72360E+04  1.09208E+04 -3.23617E+04  2.74415E+04 -1.49039E+04  2.42503E+04  7.90966E+03
  7.76068E+03  1.72848E+04 -1.12698E+04  1.57818E+04 -1.96207E+04  4.48457E+03 -1.65266E+04 -1.36749E+04
 -2.57020E+03 -1.77608E+04  9.75670E+03 -1.31163E+04  1.38060E+04 -6.38297E+02  3.62992E+03  7.57879E+03
 -7.46806E+03  2.68570E+03 -1.06458E+04 -7.09140E+03 -1.80223E+03 -1.77016E+04  1.06258E+04 -1.91396E+04
  2.11404E+04 -1.05410E+04  2.50808E+04  3.81872E+03  2.19804E+04  1.81295E+04  9.77850E+03  2.84378E+04
 -5.26465E+03  3.11100E+04 -1.94644E+04  1.84711E+04 -2.13504E+04  3.58856E+03 -1.44608E+04 -5.95350E+03
 -6.93408E+03 -7.99364E+03 -1.79746E+03  8.01380E+02 -3.33182E+03  2.06039E+03 -7.55578E+03  5.01250E+03
 -1.37045E+04 -9.89379E+02 -1.45487E+04 -1.01693E+04 -4.87131E+03 -1.86197E+04  6.95527E+03 -1.49332E+04
  1.19972E+04 -7.37070E+03  8.95016E+03  3.69333E+03 -3.75463E+02  7.09595E+03 -7.44183E+03 -1.26867E+03
 -8.11743E+03 -9.07613E+03 -1.34566E+03 -1.44270E+04  8.68845E+03 -1.56634E+04  1.95017E+04 -9.23947E+03
  2.44534E+04  4.19295E+03  1.57667E+04  1.29105E+04  1.51388E+03  1.87933E+04 -9.02679E+03  1.62128E+04
 -1.14657E+04  4.63996E+03 -6.58579E+03 -3.80212E+03  1.64216E+03 -3.57663E+03  9.70099E+03  2.57605E+02
  6.67401E+03  7.34326E+03  8.50433E+02  1.41119E+04 -8.25670E+03  1.20586E+04 -1.46850E+04  2.23975E+03
 -9.78622E+03 -7.95592E+03  1.65991E+03 -1.34633E+04  8.17764E+03 -7.84366E+03  8.09909E+03  2.99904E+03
  2.06124E+03  8.51380E+03 -7.34247E+03  1.12764E+04 -1.25692E+04  5.13730E+03 -1.18962E+04 -3.75057E+03
 -8.29025E+03 -1.51360E+04  2.99212E+03 -1.78177E+04  1.43537E+04 -1.14685E+04  1.49978E+04  3.87195E+03
  1.00906E+04  1.32614E+04 -1.78129E+03  1.56771E+04 -1.19850E+04  6.66440E+03 -1.17704E+04 -2.26005E+03
 -1.07512E+04 -8.98126E+03 -1.16240E+03 -1.29367E+04  6.13900E+03 -9.26083E+03  5.90208E+03 -5.35519E+03
  4.90040E+03  3.03222E+03 -3.44868E+02  2.61413E+03 -1.35063E+03 -4.33951E+03  2.41897E+03 -6.82954E+03
  8.75755E+03 -4.74223E+03  1.48356E+04  2.45485E+03  1.57902E+04  1.08363E+04  8.95882E+03  1.92467E+04
 -5.05087E+03  2.30552E+04 -1.92490E+04  1.74579E+04 -2.43567E+04  3.64502E+03 -1.93682E+04 -7.03830E+03
 -1.06717E+04 -1.78073E+04 -5.34327E+02 -1.39736E+04  4.65319E+03 -8.42134E+03  7.02169E+03 -5.74192E+03
  2.86321E+03 -3.09833E+03  2.93944E+03 -2.60944E+03  5.07772E+03 -1.34467E+03  7.36529E+03 -1.23573E+03
  1.05870E+04  2.11392E+03  5.84127E+03  7.60343E+03 -1.68935E+03  1.02414E+04 -1.11972E+04  8.42551E+03
 -1.30128E+04 -4.22362E+02 -9.50536E+03 -9.37127E+03 -5.83168E+02 -1.63660E+04  7.93009E+03 -1.60115E+04
  1.61996E+04 -8.22690E+03  1.80575E+04  3.49120E+03  1.32973E+04  1.29481E+04  3.47143E+03  1.57151E+04
 -6.34326E+03  1.50354E+04 -9.29289E+03  5.37762E+03 -6.01909E+03 -6.52325E+02 -3.35830E+03 -1.24641E+03
 -1.21935E+03 -6.50315E+01 -1.56393E+03  2.71932E+03 -6.10708E+03  3.24619E+03 -9.54433E+03 -9.21839E+02
 -5.40232E+03 -8.28285E+03  1.46096E+03 -1.51550E+04  6.30689E+03 -1.10861E+04  1.24804E+04 -4.19121E+03
  1.41170E+04  7.04361E+03  6.62036E+03  1.11940E+04 -1.83754E+03  1.37792E+04 -9.67484E+03  9.11026E+03
 -1.24340E+04 -1.30283E+02 -1.16958E+04 -8.56426E+03 -1.35873E+03 -1.08355E+04  6.14466E+03 -7.84468E+03
  8.52287E+03 -1.88266E+03  5.84635E+03  1.83776E+02  2.40904E+03  3.78459E+03  1.40195E+03  1.98711E+03
  2.90144E+03  6.41380E+02  2.31620E+03  2.10375E+03  4.59849E+03  4.03304E+03  2.85081E+03  7.31798E+03
 -2.95594E+03  1.01367E+04 -8.34543E+03  1.12810E+04 -1.41449E+04  3.62905E+03 -1.42553E+04 -5.90262E+03
 -7.17233E+03 -1.47572E+04  1.97150E+03 -1.48151E+04  8.98462E+03 -1.11509E+04  1.27265E+04 -2.86099E+03
  7.94033E+03  5.46727E+03  2.82204E+03  7.89102E+03 -3.64025E+03  5.86664E+03 -4.79623E+03 -9.85189E+01
 -2.90507E+03 -6.28412E+03  3.58836E+03 -5.48728E+03  5.44914E+03 -2.10314E+03  4.27864E+03  9.61788E+02
  4.11405E+03  3.78263E+03 -4.53034E+02  1.00133E+03 -1.39199E+03  3.12934E+03  2.43439E+03 -9.99377E+01
  2.24578E+03 -1.45134E+03  7.16525E+03  2.53308E+03  1.88414E+03  7.53574E+03 -3.19015E+03  9.82633E+03
 -7.59052E+03  6.56688E+03 -8.42589E+03  2.01263E+03 -7.37472E+03 -3.95067E+03 -4.69467E+03 -5.94204E+03
  4.71639E+02 -6.03318E+03  3.45336E+03 -3.34326E+03  2.98015E+03  2.75291E+03 -2.04615E+03  5.57014E+03
 -5.49253E+03  1.71036E+03 -5.42583E+03 -2.97666E+03 -4.31205E+03 -8.08489E+03  1.55401E+03 -8.28572E+03
  5.26793E+03 -5.26253E+03  6.45343E+03 -1.25672E+03  3.81704E+03 -9.78978E+01  1.33372E+03  3.57112E+03
 -1.77894E+03 -4.58912E+02 -3.16165E+03 -3.50634E+03  6.07606E+02 -5.66679E+03  6.73156E+03 -5.28239E+03
  8.42589E+03  2.95888E+02  7.66379E+03  5.04343E+03  1.45681E+03  1.10133E+04 -3.06717E+03  7.55888E+03
 -5.64306E+03  3.60673E+03 -8.00345E+03 -1.19540E+03 -6.36532E+03 -6.64164E+03  2.51389E+03 -5.50355E+03
  5.52782E+03 -2.25128E+03  4.40459E+03  3.43567E+03  1.37016E+03  4.37441E+03 -8.53406E+02  5.61679E+03
 -2.14106E+03  2.58239E+03 -1.78249E+03  1.15678E+03 -5.88353E+02  3.62503E+02 -5.77902E+02  1.81117E+03
 -2.33373E+03  3.10759E+03 -6.22641E+03  2.45108E+03 -8.80694E+03 -8.15465E+02 -9.96992E+03 -6.15335E+03
 -4.95092E+03 -1.18350E+04  2.16536E+03 -1.41447E+04  8.87328E+03 -1.01125E+04  1.23797E+04 -4.31462E+03
  1.18254E+04  2.92212E+03  8.22926E+03  7.33284E+03 -1.60681E+03  1.00056E+04 -4.80660E+03  7.16514E+03
 -5.52023E+03  3.18085E+03 -2.44673E+03 -1.24105E+02 -9.13551E+02 -8.15419E+02 -2.19351E+03 -1.78482E+02
 -1.09835E+03 -2.57588E+02 -8.70165E+02 -6.74619E+02 -1.46245E+03 -1.69853E+03 -4.19445E+02 -5.19987E+03
  3.59182E+03 -3.39125E+03  5.03205E+03 -2.01585E+02  7.53515E+03  4.21453E+03  1.80202E+03  7.73719E+03
 -4.45947E+03  1.03396E+04 -9.20592E+03  5.89930E+03 -1.01920E+04  5.02088E+02 -6.77353E+03 -8.02685E+03
 -5.55128E+03 -7.85237E+03  1.12227E+03 -6.37124E+03  5.92653E+03 -4.57927E+03  5.95206E+03  1.81329E+03
  3.09849E+03  3.12025E+03  1.25847E+02  4.04794E+03 -8.44776E+02 -1.02890E+03 -2.34477E+02 -1.13564E+03
  1.90860E+03 -4.75415E+02  3.00056E+03  5.97497E+02  1.86323E+03  2.77690E+03  1.29359E+02  3.48065E+03
 -3.89674E+03  3.44292E+03 -5.42134E+03 -1.20380E+03 -4.96229E+03 -3.81225E+03  6.42400E+02 -6.96124E+03
  4.28055E+03 -8.26694E+03  7.64528E+03 -1.49013E+03  7.55764E+03  9.50760E+02  5.18403E+03  6.17613E+03
  1.60418E+03  5.26759E+03 -2.83829E+03  5.14533E+03 -3.34654E+03  1.59660E+03 -3.38748E+03  2.34536E+02
 -2.84369E+03 -1.15620E+01 -1.02721E+03  9.47958E+02 -3.52028E+03  3.80930E+02 -4.85887E+03 -4.47567E+02
 -3.55111E+03 -2.26124E+03 -8.61424E+02 -7.22857E+03  2.10083E+03 -4.80562E+03  6.12787E+03 -2.12946E+03
  5.21024E+03 -3.43819E+02  2.28352E+03  3.23901E+03 -1.62560E+03  5.94775E+03 -4.60400E+03  2.66889E+03
