 $NMID ID='MM_0lb_SNR200_13hz_g55_36.RAW', FMTDAT='(8E13.5)'
 TRAMP=1., VOLUME=1. $END
  3.09503E+05  1.48705E+03  3.38191E+05  2.51338E+05  8.47973E+04  3.36660E+05 -1.33935E+05  2.51231E+05
 -1.91074E+05  8.27799E+04 -1.11708E+05 -3.11031E+04 -1.47267E+02 -5.01624E+04  5.32479E+04 -3.67002E+02
  3.54953E+04  5.25870E+04 -1.62722E+04  7.62017E+04 -6.16211E+04  6.40250E+04 -8.50512E+04  3.21218E+04
 -8.29853E+04 -1.12987E+04 -5.76100E+04 -5.28066E+04 -1.43557E+04 -7.09539E+04  2.78817E+04 -4.56655E+04
  3.97366E+04  3.04656E+03  1.60894E+04  4.93198E+04 -3.32271E+04  4.66418E+04 -6.71279E+04 -1.14314E+02
 -5.46416E+04 -5.62984E+04 -6.04408E+03 -7.76347E+04  3.39774E+04 -5.58148E+04  4.80021E+04 -1.81538E+04
  4.52588E+04  1.12324E+04  3.24057E+04  2.65817E+04  1.58324E+04  3.05129E+04 -5.73730E+03  2.64983E+04
 -2.19108E+04  1.14108E+04 -1.83457E+04 -5.41644E+03  6.78739E+03 -7.02627E+03  2.31289E+04  1.25113E+04
  7.43425E+03  3.54675E+04 -3.35275E+04  3.63067E+04 -6.46241E+04  2.94708E+03 -5.83214E+04 -4.35738E+04
 -1.29045E+04 -6.43908E+04  4.10910E+04 -4.62603E+04  5.94085E+04 -1.50408E+03  3.55084E+04  3.23502E+04
 -6.96393E+03  3.80317E+04 -3.02959E+04  1.78294E+04 -3.06698E+04 -4.04101E+03 -1.81787E+04 -1.22143E+04
 -9.68975E+03 -1.36810E+04  3.34662E+02 -1.98508E+04  7.76839E+03 -2.24792E+04  1.50345E+04 -1.37369E+04
  1.17665E+04  4.45487E+03 -8.17456E+03  1.34805E+04 -2.21738E+04 -4.94092E+03 -7.76332E+03 -3.42965E+04
  2.27782E+04 -4.46871E+04  5.03828E+04 -2.03196E+04  4.65928E+04  1.93456E+04  1.69604E+04  4.56859E+04
 -1.51842E+04  3.49043E+04 -2.61943E+04  3.61331E+03 -1.06894E+04 -2.87266E+04  2.05956E+04 -3.45989E+04
  4.25725E+04 -1.14756E+04  3.78997E+04  2.36215E+04  1.86586E+04  4.74243E+04 -8.37532E+03  5.18927E+04
 -3.29794E+04  3.45891E+04 -4.45213E+04  9.63607E+03 -4.47467E+04 -1.80853E+04 -2.46706E+04 -3.91301E+04
  9.27601E+03 -3.79766E+04  3.36037E+04 -1.52455E+04  3.07825E+04  1.12804E+04  4.31348E+03  2.10458E+04
 -1.29707E+04  9.83750E+03 -1.01418E+04 -8.67134E+03  5.37427E+03 -1.09149E+04  1.75014E+04  6.18587E+03
  1.39327E+04  2.24141E+04 -4.27871E+03  2.64888E+04 -2.19327E+04  1.13992E+04 -2.97780E+04 -3.70110E+03
 -2.21037E+04 -1.84667E+04 -9.83017E+03 -2.13104E+04  4.47761E+03 -2.20895E+04  1.71922E+04 -1.95618E+04
  3.03098E+04 -1.19103E+04  3.25856E+04  1.77740E+03  2.47076E+04  2.14242E+04  4.32816E+03  3.86175E+04
 -1.81726E+04  3.18722E+04 -2.80607E+04  9.35043E+03 -2.20618E+04 -1.15128E+04 -5.97176E+03 -1.37137E+04
  3.08371E+02 -1.75253E+03 -4.15538E+03  8.12590E+03 -1.86255E+04  5.84904E+03 -1.80502E+04 -9.17336E+03
 -9.54277E+03 -1.93577E+04  4.71284E+03 -2.46936E+04  1.58214E+04 -1.75828E+04  1.92579E+04 -2.30712E+03
  1.15539E+04  1.48859E+04 -2.45423E+03  2.08445E+04 -1.44447E+04  1.25762E+04 -2.00321E+04 -2.58842E+03
 -1.44568E+04 -1.93461E+04 -2.48909E+03 -2.37669E+04  1.03033E+04 -2.02575E+04  2.00514E+04 -1.10023E+04
  1.90107E+04  3.59309E+02  1.26573E+04  4.27029E+03  7.63465E+03  1.92388E+03  9.33910E+03 -1.33300E+03
  1.83811E+04  3.54812E+03  2.16071E+04  1.62443E+04  1.49329E+04  3.17652E+04 -2.77251E+03  3.63034E+04
 -2.22428E+04  3.05760E+04 -3.44960E+04  1.46706E+04 -3.58486E+04 -2.62370E+03 -3.06086E+04 -2.07472E+04
 -1.26461E+04 -3.11305E+04  1.08569E+04 -2.72604E+04  2.22057E+04 -1.32095E+04  2.11930E+04  5.81301E+03
  6.99011E+03  1.72416E+04 -9.89704E+03  1.40077E+04 -1.68078E+04  2.85893E+03 -1.24507E+04 -1.07784E+04
  6.23256E+02 -1.60439E+04  8.25176E+03 -1.18127E+04  1.04914E+04 -2.13196E+03  3.81905E+03  7.28484E+03
 -7.33944E+03  2.76091E+03 -6.77504E+03 -4.96037E+03 -2.12726E+02 -1.44261E+04  1.11290E+04 -1.50119E+04
  1.96236E+04 -6.85520E+03  1.90231E+04  4.15169E+03  1.72994E+04  1.55656E+04  6.36221E+03  2.32855E+04
 -3.34314E+03  2.56166E+04 -1.65082E+04  1.43147E+04 -1.74196E+04  3.82159E+03 -1.42219E+04 -3.69256E+03
 -4.79852E+03 -5.98192E+03 -1.46041E+03  4.47303E+02 -2.57809E+03  2.90724E+03 -5.87571E+03  5.89613E+03
 -1.19838E+04 -4.23645E+02 -1.31530E+04 -8.53465E+03 -3.92606E+03 -1.72836E+04  4.71820E+03 -1.41000E+04
  9.72394E+03 -4.25125E+03  7.31402E+03  2.00942E+03  5.69446E+01  5.21483E+03 -5.79585E+03 -6.03374E+02
 -5.29570E+03 -8.28537E+03 -8.80309E+02 -1.24508E+04  6.91674E+03 -1.31707E+04  1.58656E+04 -5.97334E+03
  1.77212E+04  2.68340E+03  1.32665E+04  1.12498E+04  3.91624E+03  1.64026E+04 -7.18643E+03  1.28549E+04
 -1.06253E+04  4.27359E+03 -6.54849E+03 -1.85886E+03  2.76573E+03 -3.52217E+03  7.50411E+03 -1.86477E+03
  5.67086E+03  4.51935E+03  1.14023E+03  1.01273E+04 -7.31161E+03  9.65888E+03 -1.25275E+04  3.13492E+03
 -7.61737E+03 -6.00116E+03  8.19661E+02 -9.65230E+03  7.38195E+03 -4.51277E+03  6.14964E+03  2.48954E+03
 -2.17288E+02  7.09765E+03 -5.19533E+03  8.51977E+03 -9.01261E+03  4.50825E+03 -1.04871E+04 -2.78061E+03
 -5.39322E+03 -1.11968E+04  2.55859E+03 -1.20509E+04  1.15070E+04 -9.34912E+03  1.22817E+04  1.53039E+03
  7.33743E+03  9.51868E+03  3.48077E+02  1.21183E+04 -9.14194E+03  6.99585E+03 -9.31170E+03 -3.08671E+03
 -8.32064E+03 -6.95884E+03 -1.70991E+03 -8.40234E+03  5.61197E+03 -8.08299E+03  6.84768E+03 -3.65928E+03
  4.23822E+03  2.07792E+02 -6.25422E+02  1.96190E+03  3.38283E+02 -2.37634E+03  2.13092E+03 -4.77894E+03
  8.78594E+03 -2.58447E+03  1.17985E+04  1.79451E+03  1.19355E+04  8.16897E+03  8.13360E+03  1.51522E+04
 -3.18381E+03  1.64665E+04 -1.45010E+04  1.17531E+04 -1.85714E+04  3.85997E+03 -1.42030E+04 -6.51897E+03
 -8.19310E+03 -1.18943E+04  6.84933E+02 -1.04285E+04  4.77338E+03 -4.52431E+03  3.26331E+03 -3.34921E+03
  3.72414E+03 -2.51952E+03  3.00123E+03 -1.89614E+03  5.34791E+03 -3.56512E+03  4.92867E+03 -3.79371E+02
  8.83354E+03  1.91227E+03  3.42001E+03  6.12844E+03 -8.46992E+02  6.48488E+03 -7.21780E+03  5.10180E+03
 -9.15724E+03  1.13845E+03 -5.71737E+03 -5.19141E+03 -9.11330E+02 -1.09352E+04  5.89685E+03 -1.06859E+04
  1.10787E+04 -6.52286E+03  1.34027E+04  2.30984E+03  9.31429E+03  9.74005E+03  1.58671E+03  1.32267E+04
 -6.22201E+03  1.08439E+04 -7.78003E+03  4.22948E+03 -5.44858E+03 -1.00505E+03 -3.43322E+03 -2.12271E+03
 -6.37765E+02 -4.68212E-02 -1.46131E+03  3.38566E+03 -3.83429E+03  2.25122E+03 -7.44834E+03  8.13530E+01
 -4.66584E+03 -6.84786E+03  9.16718E+02 -8.88340E+03  5.76985E+03 -9.12906E+03  9.03179E+03 -2.22190E+03
  8.77941E+03  6.49020E+03  3.52456E+03  7.48937E+03 -2.71024E+03  9.17620E+03 -6.93529E+03  6.61951E+03
 -1.01619E+04  7.69702E+02 -7.08073E+03 -4.64721E+03 -1.89149E+03 -7.73468E+03  3.40871E+03 -4.82886E+03
  5.72645E+03 -6.54608E+02  4.80562E+03  3.40227E+03  1.49160E+03  3.25242E+03  7.58158E+02  9.35055E+02
  1.33242E+03  3.58216E+02  3.44632E+03  1.53785E+03  3.07805E+03  3.52428E+03  2.30835E+03  5.60753E+03
 -2.50453E+03  6.82733E+03 -5.34986E+03  8.07190E+03 -8.97770E+03  8.37347E+02 -9.65039E+03 -2.46737E+03
 -6.14407E+03 -9.17197E+03  1.23494E+03 -1.07767E+04  5.30819E+03 -5.46561E+03  6.93379E+03 -2.93809E+03
  5.16853E+03  2.50182E+03  1.15732E+02  5.99783E+03 -2.51696E+03  3.25949E+03 -4.24459E+03 -9.04110E+02
 -1.99996E+03 -4.51260E+03  1.32768E+03 -2.58914E+03  4.12273E+03 -2.93524E+03  4.99502E+03  2.27182E+01
  2.67739E+03  1.95237E+03  1.23052E+03  1.95586E+03 -3.88759E+02  2.41114E+03 -1.74590E+02 -1.79017E+03
  2.46225E+03 -6.63739E+02  3.36781E+03  2.12832E+03  2.14007E+03  5.01351E+03 -1.60701E+03  6.25427E+03
 -4.23796E+03  3.67476E+03 -4.93445E+03  1.19239E+03 -4.71684E+03 -3.25166E+03 -2.29925E+03 -3.31411E+03
  5.38517E+02 -2.56800E+03  7.59000E+02 -2.69987E+03  1.54274E+03  2.23339E+03 -6.13414E+02  3.96435E+03
 -3.23885E+03  1.66546E+03 -3.95759E+03 -1.98854E+03 -2.64357E+03 -5.93011E+03  1.29362E+02 -5.15502E+03
  2.59779E+03 -1.91186E+03  4.03837E+03 -9.87107E+02  2.49306E+03  1.39779E+03  1.03463E+03  3.84738E+03
 -1.16796E+03  1.15985E+03 -1.67445E+03 -3.09377E+02  8.30554E+02 -3.24357E+03  4.18350E+03 -3.00481E+03
  5.36437E+03  1.06693E+03  6.20837E+03  5.16142E+03  9.90178E+02  5.73908E+03 -1.16543E+03  5.52703E+03
 -4.27224E+03  1.74805E+03 -5.13947E+03 -1.35635E+03 -1.55125E+03 -3.85057E+03  3.22498E+02 -2.77885E+03
  3.04369E+03 -3.77186E+02  1.75916E+03  7.70545E+02  1.21117E+03  3.35685E+03 -3.94154E+02  2.38882E+03
 -1.07788E+03  2.14513E+03 -2.24377E+03 -4.33587E+02 -1.33726E+03  1.24015E+02 -2.40001E+02  1.09672E+03
 -1.08929E+03  1.25813E+03 -2.83140E+03  7.91570E+02 -4.53186E+03  1.37237E+03 -6.42857E+03 -4.00099E+03
 -2.20456E+03 -7.20510E+03  1.75518E+03 -7.49868E+03  5.39283E+03 -6.34483E+03  6.84288E+03 -1.33719E+03
  5.67611E+03  9.82264E+02  3.50010E+03  4.55364E+03 -3.54720E+02  4.78527E+03 -1.91710E+03  4.71531E+03
 -2.53249E+03  8.54831E+02 -1.62817E+03 -6.81684E+02 -1.30652E+03 -1.27885E+02 -7.88835E+02  8.62195E+02
 -1.55572E+03  1.15698E+03 -9.62912E+02  1.77970E+03 -1.72361E+03 -1.19416E+03  1.52401E+02 -2.14859E+03
  1.94650E+03 -1.65467E+03  2.55153E+03 -8.87951E+02  3.04841E+03  4.03146E+03  6.93641E+02  4.85434E+03
 -2.35793E+03  5.57817E+03 -5.88001E+03  3.41353E+03 -5.91495E+03 -8.93213E+02 -4.00404E+03 -2.89143E+03
 -2.10718E+03 -4.72394E+03  1.54665E+03 -4.86191E+03  9.58910E+02 -2.72141E+03  2.73251E+03 -4.89445E+02
  1.26307E+02  3.02969E+03 -6.50142E+00  3.08413E+03 -5.57887E+02 -8.75397E+02 -1.38402E+03 -1.68740E+03
  1.81888E+03  8.57904E+02  1.25509E+03  4.82754E+02  1.33325E+03  1.54112E+03 -3.96486E+02  1.65470E+03
 -4.11796E+03  5.74825E+02 -3.09631E+03  3.88032E+02 -3.35981E+03 -3.34250E+03  2.87950E+02 -5.06746E+03
  2.40106E+03 -4.21254E+03  4.08403E+03 -1.53037E+03  3.68067E+03  4.50822E+02  2.50779E+03  3.48027E+03
  7.52597E+02  2.83676E+03 -9.73046E+01  3.27114E+03 -1.92999E+03  1.50524E+03 -1.77474E+03 -2.62874E+02
 -1.55445E+03 -2.14567E+02 -1.60231E+03  1.42298E+02 -1.22750E+03  1.73212E+01 -2.79209E+03 -5.15528E+02
 -2.48196E+03 -8.83625E+02 -7.98923E+02 -3.92255E+03  2.45918E+03 -3.64326E+03  3.22420E+03 -1.07035E+03
  2.40390E+03 -6.28210E+02  6.19859E+02  2.05835E+03 -7.10126E+02  2.18083E+03 -1.21137E+03  1.69184E+03
