 $NMID ID='MM_0lb_SNR200_12hz_g45_56.RAW', FMTDAT='(8E13.5)'
 TRAMP=1., VOLUME=1. $END
  3.08980E+05  9.89987E+02  3.36738E+05  2.50452E+05  8.52427E+04  3.39175E+05 -1.33795E+05  2.51045E+05
 -1.90971E+05  8.13646E+04 -1.10633E+05 -3.30133E+04  5.10488E+02 -5.02083E+04  5.31879E+04 -2.54170E+02
  3.59447E+04  5.27810E+04 -1.68503E+04  7.53663E+04 -5.97634E+04  6.38693E+04 -8.50237E+04  3.23405E+04
 -8.03544E+04 -1.00479E+04 -5.80878E+04 -5.05961E+04 -1.42674E+04 -7.14432E+04  2.75021E+04 -4.58644E+04
  3.92955E+04  4.12554E+03  1.58857E+04  4.83200E+04 -3.41613E+04  4.70246E+04 -6.61890E+04 -3.50386E+02
 -5.43381E+04 -5.77880E+04 -6.27321E+03 -7.64653E+04  3.43434E+04 -5.70584E+04  4.78762E+04 -1.77987E+04
  4.47817E+04  1.33230E+04  3.18840E+04  2.68013E+04  1.57658E+04  2.91702E+04 -5.00587E+03  2.72555E+04
 -2.18621E+04  1.24927E+04 -1.95465E+04 -5.23917E+03  5.65843E+03 -7.07374E+03  2.22065E+04  1.26423E+04
  6.86190E+03  3.69930E+04 -3.22828E+04  3.55892E+04 -6.40983E+04  1.12903E+03 -5.69841E+04 -4.35974E+04
 -1.15508E+04 -6.46690E+04  3.84699E+04 -4.67547E+04  5.79778E+04 -1.04197E+03  3.58523E+04  3.31259E+04
 -5.88259E+03  3.72353E+04 -3.03405E+04  1.72039E+04 -3.20073E+04 -3.67858E+03 -1.72524E+04 -1.17080E+04
 -7.34650E+03 -1.43947E+04 -9.59248E+02 -1.75445E+04  8.55928E+03 -2.27453E+04  1.45950E+04 -1.23515E+04
  9.69598E+03  5.10971E+03 -8.73632E+03  1.26386E+04 -2.13350E+04 -5.81581E+03 -9.11068E+03 -3.57856E+04
  2.37288E+04 -4.45546E+04  5.02586E+04 -2.10408E+04  4.65378E+04  1.91783E+04  1.59833E+04  4.59397E+04
 -1.58850E+04  3.41901E+04 -2.61459E+04  2.63142E+03 -1.00131E+04 -2.93074E+04  2.16207E+04 -3.42238E+04
  4.22005E+04 -9.54952E+03  3.73041E+04  2.34870E+04  1.99100E+04  4.78069E+04 -7.48251E+03  5.27989E+04
 -3.22678E+04  3.47432E+04 -4.45648E+04  1.00492E+04 -4.40936E+04 -1.88075E+04 -2.33281E+04 -3.93516E+04
  7.78292E+03 -3.86851E+04  3.28313E+04 -1.51792E+04  3.04127E+04  1.17000E+04  5.19192E+03  1.91613E+04
 -1.30107E+04  1.03082E+04 -1.03920E+04 -7.82907E+03  5.68525E+03 -9.98101E+03  1.91470E+04  4.29745E+03
  1.39816E+04  2.18624E+04 -4.35713E+03  2.56366E+04 -2.33616E+04  1.10051E+04 -2.88924E+04 -3.76134E+03
 -2.28745E+04 -1.83826E+04 -9.87234E+03 -2.13035E+04  3.48170E+03 -2.08474E+04  1.74038E+04 -1.80804E+04
  2.79241E+04 -1.28827E+04  3.34562E+04  4.52410E+03  2.47198E+04  2.27302E+04  2.13929E+03  3.75686E+04
 -1.89828E+04  3.21425E+04 -2.90698E+04  1.08577E+04 -2.18088E+04 -9.58507E+03 -4.75898E+03 -1.25693E+04
  1.49555E+03 -2.41155E+03 -5.55462E+03  7.67286E+03 -1.68576E+04  3.63855E+03 -1.81764E+04 -7.82011E+03
 -1.05775E+04 -2.03050E+04  5.96245E+03 -2.38990E+04  1.65750E+04 -1.75030E+04  1.96345E+04 -1.37987E+03
  1.21283E+04  1.47976E+04 -4.34084E+02  2.01993E+04 -1.33206E+04  1.15471E+04 -1.96886E+04 -5.44540E+03
 -1.37726E+04 -1.89654E+04 -2.41931E+03 -2.44296E+04  1.09348E+04 -2.04440E+04  2.08359E+04 -1.07533E+04
  1.96773E+04  1.09450E+03  1.37601E+04  4.83185E+03  8.98290E+03  1.82076E+03  1.04450E+04 -2.70897E+02
  1.84145E+04  3.49988E+03  2.02174E+04  1.51857E+04  1.32878E+04  3.41004E+04 -2.12630E+03  3.83031E+04
 -2.13259E+04  3.05050E+04 -3.32036E+04  1.58416E+04 -3.71256E+04 -3.79360E+03 -3.06951E+04 -2.11669E+04
 -1.36552E+04 -3.02485E+04  1.02607E+04 -2.68429E+04  2.25710E+04 -1.26139E+04  2.05838E+04  7.13811E+03
  6.73801E+03  1.67318E+04 -9.67527E+03  1.22283E+04 -1.73515E+04  2.42801E+03 -1.28570E+04 -1.06870E+04
  7.50340E+02 -1.72044E+04  7.79585E+03 -1.30631E+04  1.04981E+04 -4.11846E+02  3.37209E+03  7.51972E+03
 -7.68533E+03  2.04755E+03 -6.77378E+03 -7.31518E+03  5.73335E+02 -1.53740E+04  1.07669E+04 -1.51379E+04
  1.90661E+04 -8.84070E+03  2.08266E+04  2.97734E+03  1.80064E+04  1.46564E+04  9.31963E+03  2.22603E+04
 -1.97245E+03  2.37536E+04 -1.51458E+04  1.71236E+04 -1.79767E+04  3.14435E+03 -1.24166E+04 -3.85952E+03
 -6.57141E+03 -5.09438E+03 -2.81894E+02  1.29829E+03 -2.45029E+03  6.72961E+02 -4.70744E+03  5.07918E+03
 -1.08091E+04 -1.01896E+03 -1.36469E+04 -1.09957E+04 -6.13948E+03 -1.66876E+04  6.84537E+03 -1.25605E+04
  1.09521E+04 -5.32162E+03  7.51418E+03  5.04727E+03  2.36033E+02  5.15219E+03 -6.71139E+03  4.53289E+02
 -4.49421E+03 -6.27446E+03 -9.65762E+02 -1.23582E+04  7.10714E+03 -1.34402E+04  1.65818E+04 -6.35107E+03
  2.00165E+04  2.44863E+03  1.41495E+04  1.19288E+04  2.89348E+03  1.47778E+04 -7.56332E+03  1.20385E+04
 -1.03211E+04  2.74679E+03 -4.26827E+03 -1.77502E+03  2.45601E+03 -3.20942E+03  6.37319E+03  5.66917E+02
  5.83147E+03  4.26203E+03  1.92157E+03  1.05168E+04 -6.82432E+03  9.79643E+03 -1.27055E+04  2.67994E+03
 -8.32020E+03 -6.27186E+03  7.75800E+02 -1.00764E+04  7.20022E+03 -5.58626E+03  7.80789E+03  1.62332E+03
  2.62890E+03  7.36101E+03 -5.48331E+03  6.72577E+03 -9.91549E+03  3.61597E+03 -1.03342E+04 -4.53043E+03
 -5.89725E+03 -1.22667E+04  2.83304E+03 -1.37957E+04  1.19390E+04 -1.03085E+04  1.20605E+04  2.28171E+03
  6.77122E+03  1.15883E+04 -2.01034E+03  1.13399E+04 -8.43989E+03  6.80226E+03 -1.00224E+04 -7.46439E+02
 -7.26578E+03 -7.99923E+03 -3.50808E+02 -9.46079E+03  4.50938E+03 -7.71936E+03  5.72195E+03 -2.82464E+03
  3.79296E+03  1.51396E+03 -1.54649E+03  7.68540E+02  5.65215E+02 -2.14056E+03  5.37915E+02 -4.29621E+03
  9.06158E+03 -3.25972E+03  1.12974E+04  2.00988E+03  1.09681E+04  7.27484E+03  9.57893E+03  1.46747E+04
 -4.24383E+03  1.80600E+04 -1.28231E+04  1.30973E+04 -1.94426E+04  1.89104E+03 -1.59112E+04 -7.31519E+03
 -8.33937E+03 -1.14410E+04 -1.32157E+03 -9.86677E+03  4.03139E+03 -6.96106E+03  4.18984E+03 -4.22024E+03
  3.39150E+03 -1.47355E+01  3.37935E+03 -4.22076E+03  3.96756E+03 -2.01323E+03  7.15203E+03 -5.65084E+02
  8.48096E+03  7.38785E+02  4.20651E+03  8.14271E+03 -1.56770E+03  7.90593E+03 -8.38351E+03  5.22055E+03
 -1.02907E+04 -1.62377E+03 -5.18718E+03 -7.11999E+03 -9.36673E+02 -1.03766E+04  7.88406E+03 -1.16861E+04
  1.15410E+04 -5.63565E+03  1.42445E+04  7.21742E+02  9.50922E+03  9.75695E+03  1.70620E+03  1.17910E+04
 -5.46691E+03  1.01732E+04 -9.02800E+03  3.99428E+03 -5.44425E+03 -7.80244E+02 -2.33222E+03 -2.56967E+03
 -6.55724E+02 -2.70399E+02 -1.07002E+03  1.57469E+03 -4.71671E+03  1.58351E+03 -7.37907E+03 -4.41671E+02
 -3.14594E+03 -7.48555E+03 -8.76305E+01 -1.03420E+04  6.41584E+03 -8.55617E+03  9.83216E+03 -2.81051E+03
  9.37809E+03  4.63977E+03  6.45497E+03  8.95860E+03 -2.03977E+03  9.96457E+03 -6.10625E+03  6.12943E+03
 -9.99715E+03  2.29086E+03 -8.07459E+03 -6.20315E+03 -5.80250E+02 -6.65275E+03  3.76524E+03 -5.32578E+03
  7.10316E+03 -2.03580E+03  3.75414E+03  1.28908E+03  1.67748E+03  3.24429E+03  1.86388E+03  7.42543E+02
  3.56667E+03  1.85600E+03  2.84474E+03  8.48154E+02  2.70004E+03  4.78937E+03  2.02175E+03  5.77861E+03
 -2.15037E+03  6.93758E+03 -6.59700E+03  8.61189E+03 -9.81995E+03  2.58210E+03 -9.76476E+03 -2.76318E+03
 -3.77740E+03 -9.51483E+03  1.38404E+03 -1.06072E+04  6.06702E+03 -6.01919E+03  8.32477E+03 -1.36339E+03
  5.46432E+03  3.75214E+03  2.71175E+03  5.64380E+03 -3.26290E+03  3.97338E+03 -4.28653E+03  1.35565E+01
 -3.23397E+03 -5.22191E+03  2.14816E+03 -3.33709E+03  3.55084E+03 -2.75261E+03  4.55445E+03  5.37618E+02
  2.11576E+03  1.54269E+03 -1.13820E+01  2.45079E+03 -9.29000E+02  1.64721E+03  1.64839E+03 -1.49616E+02
  1.20461E+03 -8.07980E+02  2.89893E+03  3.56937E+02  7.78290E+02  4.55935E+03  3.41588E+01  6.70188E+03
 -4.61015E+03  3.48395E+03 -5.14580E+03  1.39280E+03 -4.64670E+03 -2.98721E+03 -2.74433E+03 -4.42060E+03
 -6.55348E+02 -3.36550E+03  3.00330E+03 -1.51344E+03  3.86971E+03  2.71889E+03 -7.10724E+02  3.54113E+03
 -5.11854E+03  1.12906E+03 -3.77105E+03 -2.59616E+03 -2.02719E+03 -4.71675E+03  1.08619E+03 -6.51576E+03
  3.10936E+03 -3.93270E+03  3.06250E+03  8.90273E+00  3.36997E+03  8.53314E+02  3.94870E+02  3.73274E+03
  7.38873E+00  8.79251E+02 -3.13508E+03 -2.41377E+03  3.25241E+01 -2.05373E+03  5.82244E+03 -3.55413E+03
  3.83591E+03  1.21632E+03  4.71828E+03  4.17746E+03  2.34739E+03  5.85533E+03 -2.67493E+03  6.68434E+03
 -4.94759E+03  3.09973E+03 -4.67124E+03 -5.37558E+02 -2.21104E+03 -5.76525E+03 -1.52173E+02 -3.20477E+03
  3.27582E+03 -2.30663E+03  1.92296E+03  1.69792E+03  1.81295E+03  2.26757E+03 -5.04653E+02  4.36036E+03
 -2.97619E+03  1.69609E+03 -8.27798E+02  2.94044E+02 -5.04354E+02  5.34714E+01 -9.41409E+02  4.61058E+02
  2.44978E+01  2.49542E+03 -5.44472E+03  2.06700E+03 -5.87661E+03  7.47321E+02 -6.51868E+03 -3.20739E+03
 -3.16996E+03 -7.92003E+03  1.04677E+03 -8.75519E+03  5.22346E+03 -5.60163E+03  8.65457E+03 -3.57068E+03
  8.20015E+03  2.11011E+03  4.14256E+03  4.77798E+03 -1.28154E+02  5.37406E+03 -1.73351E+03  3.65503E+03
 -2.28900E+03  2.38872E+03 -1.87616E+03 -8.22330E+02 -9.47531E+02  8.97435E+02 -8.62173E+02  1.17353E+03
 -5.33730E+02 -4.30246E+02 -1.19581E+03  2.00092E+02 -2.46094E+02 -1.16422E+03  8.52554E+02 -1.90733E+03
  1.98590E+03 -1.21137E+03  2.56031E+03  1.10439E+02  3.99017E+03  3.17193E+03  8.31903E+02  5.25026E+03
 -2.65592E+03  7.62928E+03 -6.07064E+03  4.36472E+03 -6.97488E+03 -1.62230E+03 -6.20137E+03 -3.88239E+03
 -3.68391E+03 -5.25886E+03  1.03123E+03 -3.19247E+03  3.33809E+03 -2.54342E+03  4.28661E+03  2.79209E+02
  1.13075E+03  2.27558E+03 -8.74554E+02  1.14957E+03 -2.62870E+03  3.77372E+02 -1.17875E+03 -5.24962E+02
  2.79911E+03 -4.80085E+01  1.69900E+03  8.14429E+02  8.02923E+02  1.42927E+03  1.13778E+03  2.57376E+03
 -2.26236E+03  3.67047E+03 -3.85576E+03  3.50763E+02 -4.54950E+03 -1.69534E+03 -1.30252E+03 -3.34962E+03
  2.69430E+03 -3.24974E+03  4.12173E+03 -2.56725E+03  2.98356E+03  1.14582E+03  3.23134E+03  3.83081E+03
  1.84352E+03  3.85473E+03 -7.20946E+02  3.70858E+03 -2.53754E+03  1.74291E+03 -1.78912E+03  4.40187E+02
 -8.79568E+02  6.87225E+01 -1.39192E+03  8.26132E+02 -1.17464E+03 -1.12056E+03 -2.49936E+03  2.24127E+02
 -1.99017E+03 -2.97140E+03  6.88034E+02 -3.00068E+03  3.39771E+02 -5.26917E+03  4.12900E+03 -7.80560E+02
  4.15686E+03 -3.72621E+01  1.84501E+03  2.74085E+03 -5.28130E+02  3.33666E+03 -3.27781E+03  3.07022E+03
