 $NMID ID='MM_0lb_SNR200_7hz_g40_50.RAW', FMTDAT='(8E13.5)'
 TRAMP=1., VOLUME=1. $END
  3.09010E+05 -1.49286E+03  3.38384E+05  2.51777E+05  8.55340E+04  3.36993E+05 -1.32623E+05  2.52769E+05
 -1.91748E+05  8.43063E+04 -1.15067E+05 -3.36285E+04  1.79888E+03 -5.11224E+04  5.37859E+04 -3.52164E+03
  3.53596E+04  5.19015E+04 -1.67563E+04  7.60766E+04 -6.13058E+04  6.42479E+04 -8.53372E+04  3.29016E+04
 -8.25545E+04 -1.02520E+04 -5.99465E+04 -5.25169E+04 -1.55822E+04 -7.23034E+04  2.85608E+04 -4.82944E+04
  4.07955E+04  3.82740E+03  1.78247E+04  4.91992E+04 -3.38223E+04  4.93939E+04 -6.94498E+04  5.01773E+02
 -5.66109E+04 -5.93042E+04 -8.29496E+03 -7.80424E+04  3.48968E+04 -5.73642E+04  4.91545E+04 -1.83685E+04
  4.57433E+04  1.16858E+04  3.34717E+04  2.81180E+04  1.62621E+04  3.23951E+04 -5.04223E+03  2.70418E+04
 -2.42531E+04  1.19594E+04 -2.03280E+04 -4.90415E+03  8.20272E+03 -6.58057E+03  2.32310E+04  1.29820E+04
  8.22957E+03  3.74922E+04 -3.43486E+04  3.85134E+04 -6.49451E+04  1.50293E+03 -6.11380E+04 -4.37064E+04
 -1.29544E+04 -6.57555E+04  4.25080E+04 -4.80729E+04  6.24869E+04 -3.32165E+03  3.66864E+04  3.67933E+04
 -6.73031E+03  4.01393E+04 -3.30419E+04  1.89285E+04 -3.59540E+04 -3.26171E+03 -2.09330E+04 -1.22957E+04
 -1.03762E+04 -1.49976E+04  5.59470E+01 -1.95313E+04  7.77989E+03 -2.36453E+04  1.54976E+04 -1.29387E+04
  1.25522E+04  8.47963E+03 -1.07390E+04  1.42824E+04 -2.41986E+04 -6.54066E+03 -8.63519E+03 -3.82091E+04
  2.54877E+04 -4.85178E+04  5.36989E+04 -1.95922E+04  4.92107E+04  2.21546E+04  1.93294E+04  4.76011E+04
 -1.57120E+04  3.74274E+04 -2.85500E+04  2.62946E+03 -1.23487E+04 -2.94857E+04  2.24637E+04 -3.63050E+04
  4.51457E+04 -1.19187E+04  4.07398E+04  2.54828E+04  2.11534E+04  5.24279E+04 -8.49474E+03  5.59495E+04
 -3.53811E+04  4.09159E+04 -4.89292E+04  1.08805E+04 -4.84834E+04 -1.97376E+04 -2.68405E+04 -4.33355E+04
  7.80151E+03 -4.15925E+04  3.36057E+04 -1.76657E+04  3.25478E+04  9.45791E+03  7.30430E+03  2.19964E+04
 -1.35284E+04  1.08969E+04 -1.23023E+04 -7.75165E+03  7.16685E+03 -1.13625E+04  1.93974E+04  6.71494E+03
  1.70340E+04  2.35512E+04 -4.65723E+03  2.83485E+04 -2.51493E+04  1.55202E+04 -3.34469E+04 -2.37747E+03
 -2.53061E+04 -1.94164E+04 -1.15576E+04 -2.66602E+04  4.11316E+03 -2.63530E+04  2.13517E+04 -2.33420E+04
  3.36312E+04 -1.38163E+04  4.04476E+04  5.08576E+03  2.76084E+04  2.57517E+04  4.30196E+03  4.24464E+04
 -2.08653E+04  3.49563E+04 -3.06775E+04  1.22789E+04 -2.32724E+04 -1.05232E+04 -5.16853E+03 -1.34957E+04
  1.12952E+03 -4.07904E+02 -9.03932E+03  1.13979E+04 -2.05157E+04  5.02046E+03 -2.20095E+04 -9.79109E+03
 -1.26082E+04 -2.57223E+04  6.24014E+03 -3.05159E+04  1.94810E+04 -2.08922E+04  2.41985E+04 -1.97063E+03
  1.61574E+04  1.72523E+04 -1.46936E+03  2.42381E+04 -1.77790E+04  1.58294E+04 -2.57376E+04 -4.58043E+03
 -1.83181E+04 -2.15045E+04 -2.35149E+03 -2.88354E+04  1.43211E+04 -2.50629E+04  2.36662E+04 -1.26191E+04
  2.22572E+04 -1.50277E+03  1.70504E+04  4.37937E+03  1.07490E+04  1.32354E+03  1.43460E+04 -2.07703E+03
  2.24589E+04  3.02734E+03  2.64299E+04  2.04692E+04  1.90087E+04  4.06666E+04 -2.94677E+03  4.71858E+04
 -2.60713E+04  3.88890E+04 -4.37543E+04  2.23629E+04 -4.78408E+04 -3.63077E+03 -3.87142E+04 -2.81425E+04
 -1.74753E+04 -3.94090E+04  1.35030E+04 -3.41957E+04  3.15140E+04 -1.60586E+04  2.57965E+04  7.67908E+03
  9.28355E+03  2.04958E+04 -1.16526E+04  1.66746E+04 -2.10474E+04  2.88358E+03 -1.56168E+04 -1.31609E+04
 -6.30463E+02 -1.84787E+04  1.13727E+04 -1.31559E+04  1.45440E+04 -1.05142E+03  5.51135E+03  7.48483E+03
 -9.33616E+03  4.46976E+03 -1.08567E+04 -9.22744E+03 -9.72437E+02 -1.95922E+04  1.08526E+04 -2.16926E+04
  2.45804E+04 -1.13258E+04  2.74908E+04  1.97254E+03  2.43369E+04  1.84767E+04  1.12915E+04  3.39355E+04
 -6.88317E+03  3.38263E+04 -2.16158E+04  2.10852E+04 -2.48039E+04  3.67465E+03 -1.63380E+04 -6.75681E+03
 -7.76489E+03 -8.28666E+03 -5.18749E+02 -4.21353E+02 -3.64259E+03  3.87634E+03 -1.01642E+04  4.15099E+03
 -1.36084E+04 -2.01574E+03 -1.41971E+04 -1.33389E+04 -6.92957E+03 -2.04046E+04  6.11879E+03 -1.61727E+04
  1.43503E+04 -6.38059E+03  9.60616E+03  5.49491E+03 -1.27407E+03  5.52718E+03 -9.70344E+03 -6.31573E+02
 -9.28845E+03 -1.10902E+04 -1.76178E+02 -1.69615E+04  9.72416E+03 -1.68361E+04  2.14974E+04 -8.97635E+03
  2.42467E+04  1.86506E+03  1.77561E+04  1.56994E+04  3.42659E+03  1.98894E+04 -8.75909E+03  1.88079E+04
 -1.41677E+04  4.21641E+03 -7.20486E+03 -2.64613E+03  2.23382E+03 -5.14468E+03  7.34879E+03 -1.64948E+03
  8.87467E+03  8.62834E+03  3.53023E+03  1.45154E+04 -8.93951E+03  1.36498E+04 -1.75994E+04  3.33875E+03
 -1.27867E+04 -8.55703E+03  4.54895E+02 -1.54532E+04  1.04177E+04 -7.32965E+03  9.95137E+03  4.75678E+03
  2.41221E+03  1.10689E+04 -8.67126E+03  1.24509E+04 -1.51728E+04  6.39662E+03 -1.69957E+04 -5.95293E+03
 -9.24391E+03 -1.76511E+04  5.41856E+03 -1.94192E+04  1.84268E+04 -1.26093E+04  1.92378E+04  4.18467E+03
  1.04478E+04  1.34022E+04 -2.78700E+03  1.83858E+04 -1.43209E+04  1.01467E+04 -1.56564E+04 -2.87471E+03
 -1.12906E+04 -1.07940E+04 -1.76289E+03 -1.18816E+04  6.90764E+03 -1.27152E+04  8.65718E+03 -2.44392E+03
  5.10994E+03  1.93232E+03 -3.18912E+03  1.27179E+03 -8.05946E+02 -4.74038E+03  3.97701E+03 -8.94694E+03
  1.18470E+04 -4.07250E+03  1.71064E+04  3.41996E+03  1.88736E+04  1.27960E+04  1.07453E+04  2.26670E+04
 -6.26952E+03  2.81596E+04 -2.12423E+04  2.10968E+04 -3.17251E+04  3.59289E+03 -2.41142E+04 -1.03326E+04
 -1.25316E+04 -1.91965E+04 -2.35443E+02 -1.71568E+04  5.86458E+03 -8.10807E+03  6.01661E+03 -4.24337E+03
  4.46290E+03 -3.75668E+03  2.58121E+03 -5.72781E+03  7.36133E+03 -5.11248E+03  8.34519E+03 -1.18898E+03
  1.26333E+04  2.48214E+03  7.99298E+03  1.08527E+04 -3.42096E+03  1.32122E+04 -1.48908E+04  8.97796E+03
 -1.77189E+04 -1.79474E+03 -1.09552E+04 -1.14016E+04 -3.82777E+03 -1.93319E+04  8.61298E+03 -1.93929E+04
  1.92568E+04 -1.02475E+04  2.19079E+04  2.42989E+03  1.43933E+04  1.66439E+04  3.90142E+03  1.99239E+04
 -9.01207E+03  1.61948E+04 -1.28299E+04  5.95428E+03 -8.45910E+03 -3.42961E+03 -4.93694E+03 -2.89407E+03
 -2.35820E+03 -4.82946E+02 -3.31333E+03  3.72463E+03 -6.74144E+03  3.46051E+03 -9.83894E+03 -3.19391E+03
 -1.01421E+04 -1.15879E+04  2.25619E+02 -1.81554E+04  1.02564E+04 -1.51076E+04  1.69069E+04 -4.29685E+03
  1.67378E+04  9.47301E+03  7.79347E+03  1.57682E+04 -3.22682E+03  1.77382E+04 -1.38848E+04  1.23509E+04
 -1.56646E+04 -8.31945E+02 -1.09946E+04 -9.69590E+03 -3.49044E+03 -1.46800E+04  7.98340E+03 -9.81902E+03
  1.13475E+04 -3.46672E+03  9.02868E+03  2.90147E+03  3.83861E+03  3.89768E+03  3.47494E+02  3.12579E+03
  1.88700E+03  2.23712E+03  4.33947E+03  1.92592E+03  3.97615E+03  7.18600E+03  4.57859E+03  8.84797E+03
 -4.68152E+03  1.38729E+04 -1.37396E+04  1.48914E+04 -2.02451E+04  3.90676E+03 -2.03219E+04 -8.07727E+03
 -8.86841E+03 -1.84256E+04  3.37303E+03 -2.14654E+04  1.16669E+04 -1.43618E+04  1.46303E+04 -4.04312E+03
  1.13105E+04  6.92034E+03  1.72202E+03  1.08724E+04 -5.20877E+03  4.99220E+03 -8.37437E+03 -1.55251E+03
 -3.08772E+03 -7.65873E+03  5.39259E+03 -6.83827E+03  7.28241E+03 -3.38035E+03  6.73220E+03 -3.48887E+02
  6.17304E+03  3.39089E+03  1.81853E+03  4.36081E+03 -6.88331E+02  2.89671E+03  3.67435E+03 -4.63386E+02
  2.40506E+03 -2.04968E+03  8.37981E+03  3.75233E+03  3.66695E+03  9.86905E+03 -9.49157E+02  1.19677E+04
 -8.50537E+03  1.06109E+04 -1.24518E+04  2.38337E+03 -1.02430E+04 -2.91132E+03 -5.67659E+03 -7.53499E+03
  8.23426E+02 -7.62750E+03  4.79305E+03 -4.89113E+03  4.75286E+03  3.75026E+03 -1.40074E+03  5.58308E+03
 -6.98391E+03  5.47830E+03 -1.06206E+04 -4.34664E+03 -6.05100E+03 -1.05193E+04  1.00261E+03 -1.16978E+04
  6.20043E+03 -7.08964E+03  8.33446E+03 -9.36617E+02  6.91620E+03  2.12982E+03  1.16415E+03  6.54577E+03
 -3.69687E+03  8.80362E+02 -4.70077E+03 -2.85849E+03  1.48719E+02 -7.66136E+03  8.43101E+03 -6.63674E+03
  1.40943E+04  3.26236E+02  9.85497E+03  8.75239E+03  4.03355E+03  1.36839E+04 -4.97707E+03  1.33056E+04
 -9.44387E+03  6.71673E+03 -1.04628E+04 -2.13885E+03 -6.11027E+03 -8.22756E+03  1.77300E+03 -8.62992E+03
  9.54762E+03 -3.74673E+03  7.21744E+03  2.32111E+03  2.26972E+03  5.27989E+03 -1.13281E+03  7.42000E+03
 -3.53340E+03  4.87934E+03 -2.71681E+03  1.41724E+03 -2.59682E+03  1.66456E+03 -1.41461E+03  4.22161E+03
 -1.43085E+03  4.23000E+03 -9.01489E+03  4.21435E+03 -1.14103E+04 -7.44830E+02 -1.50782E+04 -7.69569E+03
 -6.09297E+03 -1.94208E+04  3.08972E+03 -1.81040E+04  1.16084E+04 -1.50415E+04  1.74098E+04 -5.83589E+03
  1.82763E+04  2.69110E+03  1.19481E+04  1.00120E+04  2.74586E+03  1.45178E+04 -5.12676E+03  8.96282E+03
 -5.69634E+03  5.19271E+03 -3.46050E+03 -6.70313E+02 -1.16168E+03 -3.01599E+03 -3.20258E+02 -1.79042E+03
 -1.50171E+03 -3.98978E+02 -3.72432E+03 -1.46298E+03 -3.72714E+02 -3.44991E+03  7.81757E+02 -6.72866E+03
  6.45845E+03 -3.79348E+03  9.77489E+03 -9.40123E+02  9.22028E+03  6.89465E+03  2.22404E+03  1.52917E+04
 -5.23546E+03  1.38872E+04 -1.50482E+04  7.17275E+03 -1.74106E+04 -4.17674E+02 -1.33426E+04 -1.05990E+04
 -5.68346E+03 -1.29086E+04  4.48700E+03 -1.29434E+04  1.09196E+04 -5.45352E+03  1.10410E+04  8.17592E+02
  5.24322E+03  6.24364E+03  2.88076E+02  4.08119E+03 -3.27743E+03  1.53947E+03 -2.65254E+02 -2.09509E+03
  3.72720E+03 -3.08154E+03  7.73462E+03  6.41179E+00  3.43932E+03  5.06899E+03 -8.45975E+01  8.64403E+03
 -8.85449E+03  6.60694E+03 -8.02761E+03  1.83015E+03 -9.52318E+03 -7.52347E+03 -2.62822E+03 -1.14771E+04
  6.89118E+03 -1.02535E+04  1.14741E+04 -5.27025E+03  1.07827E+04  1.94832E+03  5.42737E+03  8.24665E+03
 -2.05426E+02  1.04538E+04 -5.03441E+03  9.07272E+03 -6.52752E+03  4.68368E+03 -3.08680E+03  7.88649E+02
 -3.00491E+03 -9.27167E+02 -3.54867E+03  2.23062E+03 -5.07871E+03  1.96183E+03 -7.42180E+03 -2.42733E+03
 -7.30737E+03 -5.18220E+03 -2.23293E+03 -1.02775E+04  3.86939E+03 -1.11103E+04  8.85021E+03 -4.56973E+03
  1.05180E+04  6.99904E+02  5.63641E+03  5.49611E+03 -1.57469E+03  1.06245E+04 -6.78364E+03  6.02732E+03
