 $NMID ID='MM_0lb_SNR200_7hz_g50_76.RAW', FMTDAT='(8E13.5)'
 TRAMP=1., VOLUME=1. $END
  3.12165E+05  7.66356E+02  3.39739E+05  2.50774E+05  8.51986E+04  3.39547E+05 -1.32601E+05  2.51967E+05
 -1.90653E+05  8.34400E+04 -1.13796E+05 -3.25201E+04  7.83148E+02 -5.07365E+04  5.39911E+04  7.35124E+02
  3.55982E+04  5.18495E+04 -1.55555E+04  7.60012E+04 -6.18171E+04  6.44491E+04 -8.68120E+04  3.27183E+04
 -8.24667E+04 -1.01116E+04 -5.90113E+04 -5.26579E+04 -1.53715E+04 -7.11005E+04  2.75218E+04 -4.77887E+04
  4.00089E+04  2.04419E+03  1.63923E+04  4.95267E+04 -3.52953E+04  4.83619E+04 -6.76321E+04  7.29980E+02
 -5.66282E+04 -5.80806E+04 -6.89434E+03 -7.84738E+04  3.41565E+04 -5.78057E+04  5.20944E+04 -1.85116E+04
  4.60916E+04  1.18744E+04  3.09555E+04  2.81453E+04  1.63445E+04  3.27886E+04 -5.15366E+03  2.97158E+04
 -2.35495E+04  1.31855E+04 -1.66891E+04 -4.57471E+03  8.45674E+03 -7.23177E+03  2.44166E+04  1.50849E+04
  8.55430E+03  3.72825E+04 -3.43272E+04  3.66066E+04 -6.57631E+04  3.98298E+03 -6.04817E+04 -4.35832E+04
 -1.38343E+04 -6.51060E+04  4.34260E+04 -4.77991E+04  6.15109E+04 -2.45624E+03  3.79330E+04  3.51104E+04
 -5.22500E+03  4.08650E+04 -3.28983E+04  1.94875E+04 -3.40718E+04 -3.70873E+03 -2.04601E+04 -1.13997E+04
 -1.05594E+04 -1.63802E+04  4.23589E+02 -1.94340E+04  9.27029E+03 -2.40835E+04  1.52144E+04 -1.36176E+04
  1.06624E+04  7.15813E+03 -1.16210E+04  1.19196E+04 -2.46344E+04 -6.69989E+03 -8.92219E+03 -3.87892E+04
  2.42271E+04 -4.85838E+04  5.40742E+04 -2.24040E+04  4.85932E+04  2.22534E+04  1.62680E+04  4.91752E+04
 -1.65252E+04  3.72878E+04 -2.96112E+04  2.54886E+03 -1.22718E+04 -2.97794E+04  2.09573E+04 -3.74598E+04
  4.49659E+04 -1.07514E+04  4.38350E+04  2.27707E+04  2.31615E+04  5.26899E+04 -7.07867E+03  5.94215E+04
 -3.73823E+04  4.22356E+04 -5.08821E+04  1.08417E+04 -5.10694E+04 -1.83761E+04 -2.67269E+04 -4.53880E+04
  7.55761E+03 -4.35308E+04  3.40982E+04 -1.73192E+04  3.39824E+04  1.09478E+04  4.61047E+03  2.17434E+04
 -1.40792E+04  1.02988E+04 -1.06143E+04 -9.15506E+03  6.46208E+03 -1.26012E+04  1.76584E+04  3.19096E+03
  1.49888E+04  2.36863E+04 -4.21002E+03  2.90135E+04 -2.36931E+04  1.48875E+04 -3.33709E+04 -1.78226E+03
 -2.70163E+04 -1.95191E+04 -1.28027E+04 -2.71852E+04  4.36543E+03 -2.88998E+04  2.21742E+04 -2.43967E+04
  3.52431E+04 -1.41116E+04  4.24022E+04  5.12367E+03  2.90217E+04  2.60247E+04  5.04658E+03  4.42954E+04
 -2.01901E+04  3.49633E+04 -3.10724E+04  1.07845E+04 -2.24302E+04 -9.28749E+03 -4.54222E+03 -1.37515E+04
  1.33712E+03  1.89443E+02 -9.01988E+03  9.07361E+03 -2.29333E+04  4.26484E+03 -2.14465E+04 -1.15400E+04
 -1.30158E+04 -2.55516E+04  6.18618E+03 -3.14549E+04  1.90145E+04 -2.16013E+04  2.50640E+04 -9.30122E+02
  1.52176E+04  1.69127E+04 -2.82082E+03  2.46373E+04 -1.87087E+04  1.31356E+04 -2.73934E+04 -4.58025E+03
 -1.90039E+04 -2.15211E+04 -3.19080E+03 -2.95729E+04  1.38423E+04 -2.51896E+04  2.26539E+04 -1.34282E+04
  2.30114E+04 -2.80565E+02  1.60736E+04  5.37368E+03  1.00988E+04  1.49741E+03  1.36621E+04 -1.74149E+03
  2.45459E+04  2.29537E+03  2.81515E+04  2.06471E+04  1.95925E+04  3.91998E+04 -2.09463E+03  4.75231E+04
 -2.85117E+04  4.04664E+04 -4.65589E+04  2.14151E+04 -5.06194E+04 -2.79848E+03 -4.07946E+04 -2.92553E+04
 -1.65856E+04 -4.29596E+04  1.56485E+04 -3.57351E+04  2.98365E+04 -1.60199E+04  2.77282E+04  8.92287E+03
  1.10321E+04  2.09260E+04 -1.14520E+04  1.67818E+04 -2.08075E+04  3.03741E+03 -1.38279E+04 -1.45626E+04
 -7.75290E+02 -2.10634E+04  1.23157E+04 -1.57044E+04  1.48068E+04 -1.63217E+03  2.84150E+03  9.16588E+03
 -1.16550E+04  4.01084E+03 -9.95665E+03 -7.25432E+03 -2.60618E+03 -1.99263E+04  1.24702E+04 -2.25785E+04
  2.60240E+04 -1.21835E+04  2.96030E+04  4.15205E+03  2.70410E+04  2.17346E+04  1.32774E+04  3.16854E+04
 -6.99792E+03  3.49451E+04 -2.44129E+04  2.26963E+04 -2.43431E+04  4.64816E+03 -1.81818E+04 -6.28679E+03
 -5.42980E+03 -7.71928E+03  3.44126E+01  4.11260E+02 -2.33988E+03  3.89199E+03 -8.60611E+03  5.28007E+03
 -1.55179E+04 -3.10668E+03 -1.76859E+04 -1.18214E+04 -7.57102E+03 -2.15912E+04  4.73439E+03 -1.84752E+04
  1.36132E+04 -7.49204E+03  9.22707E+03  4.91221E+03 -8.70465E+02  7.35155E+03 -1.00023E+04  3.43681E+02
 -9.74688E+03 -1.08814E+04 -4.74575E+03 -1.78205E+04  1.05008E+04 -1.88786E+04  2.41576E+04 -8.67194E+03
  2.88627E+04  3.32677E+03  1.85910E+04  1.72801E+04  4.58114E+03  2.23986E+04 -1.31117E+04  1.73501E+04
 -1.45274E+04  5.81637E+03 -7.43417E+03 -3.48042E+03  2.71496E+03 -5.29608E+03  9.46008E+03 -2.04942E+03
  9.07664E+03  9.29188E+03  1.94754E+03  1.35282E+04 -9.81206E+03  1.40341E+04 -1.76160E+04  6.41007E+03
 -1.27267E+04 -1.00266E+04 -1.04073E+03 -1.52770E+04  1.06446E+04 -7.64076E+03  1.24471E+04  3.74818E+03
  2.86465E+03  9.43812E+03 -9.16428E+03  1.40326E+04 -1.71719E+04  6.28627E+03 -1.67683E+04 -8.36315E+03
 -1.06871E+04 -1.88154E+04  5.05541E+03 -2.21826E+04  1.87227E+04 -1.16685E+04  2.09987E+04  3.24685E+03
  1.20915E+04  1.67216E+04 -1.06039E+03  1.81547E+04 -1.43129E+04  1.07307E+04 -1.53292E+04 -2.58186E+03
 -1.11313E+04 -1.20984E+04 -3.25479E+03 -1.26855E+04  7.63083E+03 -9.61860E+03  8.35854E+03 -3.88746E+03
  6.34508E+03  2.27378E+03 -1.25015E+03  3.53679E+03 -3.72163E+03 -5.32140E+03  3.93539E+03 -1.07535E+04
  1.22200E+04 -4.53604E+03  1.89298E+04  1.30023E+03  1.82264E+04  1.43375E+04  1.36382E+04  2.51306E+04
 -5.31494E+03  2.95555E+04 -2.29754E+04  2.24301E+04 -3.29948E+04  2.78514E+03 -2.35870E+04 -1.16492E+04
 -1.23043E+04 -2.24086E+04 -1.05567E+01 -1.84312E+04  6.58581E+03 -9.67385E+03  7.82637E+03 -4.73358E+03
  4.40124E+03 -4.12603E+03  5.17666E+03 -3.90330E+03  8.62036E+03 -4.32875E+03  1.01114E+04 -8.40102E+02
  1.27597E+04 -3.90316E+00  7.34127E+03  9.55561E+03 -3.81774E+03  1.44771E+04 -1.34715E+04  1.06305E+04
 -1.84811E+04 -3.76984E+03 -1.29356E+04 -1.22251E+04 -8.13729E+02 -1.86900E+04  1.21017E+04 -2.00907E+04
  1.98228E+04 -1.14987E+04  2.42092E+04  2.52583E+03  1.43222E+04  1.70271E+04  1.24322E+03  2.13333E+04
 -9.17637E+03  1.65198E+04 -1.42059E+04  6.08535E+03 -8.34425E+03 -2.86760E+03 -4.30042E+03 -3.45819E+03
 -1.37465E+03 -7.36089E+02 -4.17675E+03  2.30597E+03 -5.83962E+03  2.17373E+03 -1.16145E+04 -2.66833E+03
 -9.94024E+03 -1.19073E+04 -2.12665E+02 -1.72883E+04  1.10527E+04 -1.76994E+04  2.10747E+04 -5.79885E+03
  2.01048E+04  9.32083E+03  7.90833E+03  1.75485E+04 -3.93781E+03  1.76926E+04 -1.26563E+04  1.07807E+04
 -1.90963E+04  2.53132E+02 -1.26222E+04 -1.00272E+04 -1.38509E+03 -1.51306E+04  7.46208E+03 -1.15047E+04
  1.19711E+04 -4.54716E+03  6.36481E+03  1.60591E+03  4.20963E+03  3.64779E+03  1.35160E+03  1.32652E+03
  2.35001E+03  4.32963E+02  4.01238E+03  2.88580E+03  5.03450E+03  8.09842E+03  3.40376E+03  1.07826E+04
 -3.22381E+03  1.44438E+04 -1.34106E+04  1.43987E+04 -2.07725E+04  3.76281E+03 -2.20207E+04 -8.93612E+03
 -9.10105E+03 -1.93910E+04  2.63342E+03 -2.20728E+04  1.10114E+04 -1.40349E+04  1.44949E+04 -2.96296E+03
  1.18326E+04  8.69596E+03  2.47587E+03  9.54712E+03 -7.03807E+03  7.73344E+03 -1.00469E+04 -1.95151E+03
 -4.08144E+03 -7.76145E+03  4.10235E+03 -1.03281E+04  7.99929E+03 -4.07340E+03  8.67090E+03  1.60450E+03
  2.32522E+03  3.55203E+03  1.00767E+02  2.88604E+03  8.93050E+01  3.39864E+03 -6.90050E+02 -1.13314E+03
  2.20152E+03 -3.25642E+02  8.34638E+03  3.56657E+03  3.27043E+03  9.87144E+03 -2.90817E+03  1.43813E+04
 -9.48335E+03  1.02904E+04 -1.18380E+04  3.36278E+03 -1.01983E+04 -3.03496E+03 -4.96391E+03 -7.81439E+03
  5.53662E+02 -8.06647E+03  3.49799E+03 -3.42349E+03  5.70763E+03  3.04515E+03 -1.62906E+03  6.40265E+03
 -7.06645E+03  2.89374E+03 -7.65879E+03 -5.85594E+03 -5.50506E+03 -1.08572E+04  1.81114E+03 -9.80991E+03
  7.49932E+03 -5.17872E+03  8.25688E+03 -2.55632E+03  6.25632E+03  3.98150E+03  1.84216E+03  5.79801E+03
 -3.94175E+03  2.17923E+03 -6.33822E+03 -5.11751E+03 -1.55567E+02 -8.52299E+03  1.10833E+04 -6.97209E+03
  1.20208E+04  1.49395E+03  1.14676E+04  9.53344E+03  3.71223E+03  1.37630E+04 -4.91869E+03  1.15160E+04
 -1.03295E+04  7.34644E+03 -1.13975E+04 -2.26040E+03 -4.44863E+03 -7.84352E+03  1.65740E+03 -7.79770E+03
  9.30974E+03 -4.64235E+03  5.89038E+03  3.20519E+03  1.64610E+03  6.16557E+03 -3.65045E+03  5.46767E+03
 -4.49448E+03  6.36389E+03 -2.20161E+03  1.17978E+03 -4.68843E+03  1.30567E+03 -7.81943E+02  2.24549E+03
 -4.60697E+03  6.41017E+03 -9.35899E+03  4.78309E+03 -1.36784E+04  1.26231E+03 -1.38872E+04 -9.34853E+03
 -9.66855E+03 -1.95233E+04  3.77071E+03 -2.14906E+04  1.55840E+04 -1.69884E+04  2.14035E+04 -4.06859E+03
  1.90235E+04  4.91859E+03  1.15890E+04  1.28111E+04  8.08175E+02  1.49931E+04 -7.00345E+03  1.04774E+04
 -9.28261E+03  4.40501E+03 -6.54951E+03 -2.78775E+03 -1.11594E+03 -2.55048E+03  3.94284E+02 -2.05601E+02
 -3.56797E+03 -5.32199E+02 -4.15300E+03  1.04416E+02 -2.57074E+03 -3.76004E+03 -2.43902E+02 -4.80013E+03
  6.46986E+03 -5.88353E+03  1.11995E+04 -4.60674E+02  8.25412E+03  6.72285E+03  1.78421E+03  1.50913E+04
 -8.74339E+03  1.59399E+04 -1.60695E+04  9.24706E+03 -1.88645E+04 -1.79103E+03 -1.33581E+04 -1.15543E+04
 -6.44928E+03 -1.37579E+04  6.85990E+03 -1.35473E+04  1.10414E+04 -9.23160E+03  1.14185E+04 -1.93972E+02
  5.07483E+03  6.08679E+03  1.34619E+02  3.95690E+03 -3.40192E+03 -7.40253E+02  1.60047E+02 -2.01533E+03
  3.92908E+03 -1.23493E+03  7.41047E+03  2.44168E+03  4.80642E+03  4.22072E+03  1.73594E+02  8.57453E+03
 -7.57278E+03  5.70688E+03 -1.15286E+04  1.03039E+03 -9.68742E+03 -6.99589E+03 -7.75863E+02 -1.24876E+04
  8.26053E+03 -1.26226E+04  1.29716E+04 -2.64683E+03  1.07389E+04  3.21663E+03  7.24815E+03  7.17928E+03
  2.28710E+02  8.52748E+03 -4.76896E+03  8.90955E+03 -5.68251E+03  5.53224E+03 -5.45417E+03  9.00551E+02
 -2.91826E+03  7.62988E+02 -2.31655E+03  1.60125E+03 -3.84452E+03  2.16848E+03 -7.76646E+03 -1.37617E+03
 -7.93635E+03 -4.08455E+03 -2.78341E+03 -8.62278E+03  5.27309E+03 -1.23707E+04  9.77775E+03 -5.21876E+03
  1.03597E+04  1.76828E+03  4.20819E+03  6.48171E+03 -3.61199E+03  1.14399E+04 -7.20356E+03  8.01358E+03
