 $NMID ID='MM_0lb_SNR200_16hz_g40_67.RAW', FMTDAT='(8E13.5)'
 TRAMP=1., VOLUME=1. $END
  3.10259E+05  3.82173E+02  3.37605E+05  2.50505E+05  8.34180E+04  3.37020E+05 -1.33513E+05  2.50600E+05
 -1.89948E+05  8.28208E+04 -1.11205E+05 -3.18968E+04  7.94102E+02 -5.04449E+04  5.33134E+04  4.15231E+02
  3.52678E+04  5.28234E+04 -1.69724E+04  7.44957E+04 -5.93594E+04  6.33908E+04 -8.26236E+04  3.19785E+04
 -7.96813E+04 -1.14950E+04 -5.71465E+04 -5.05576E+04 -1.49539E+04 -6.88233E+04  2.62601E+04 -4.49343E+04
  3.92631E+04  4.11221E+03  1.60694E+04  4.68959E+04 -3.32935E+04  4.74441E+04 -6.56888E+04 -1.19921E+03
 -5.27801E+04 -5.61972E+04 -7.44160E+03 -7.55080E+04  3.40326E+04 -5.35267E+04  4.75039E+04 -1.52719E+04
  4.25212E+04  1.10983E+04  3.06681E+04  2.38833E+04  1.49806E+04  2.89585E+04 -3.65276E+03  2.71792E+04
 -2.14402E+04  1.23133E+04 -2.04552E+04 -4.54438E+03  4.69002E+03 -8.62980E+03  2.10403E+04  1.22615E+04
  8.63811E+03  3.32001E+04 -2.94237E+04  3.47722E+04 -6.11311E+04  1.91533E+03 -5.49709E+04 -4.11320E+04
 -1.21372E+04 -6.08358E+04  3.83637E+04 -4.30217E+04  5.65108E+04 -2.66084E+03  3.18081E+04  3.06480E+04
 -7.17464E+03  3.47136E+04 -2.86545E+04  1.33156E+04 -2.88560E+04 -4.65059E+03 -1.54926E+04 -1.01408E+04
 -8.59813E+03 -1.20866E+04 -8.06349E+02 -1.66945E+04  5.83057E+03 -2.17846E+04  1.46637E+04 -1.31180E+04
  1.20488E+04  4.05925E+03 -6.60736E+03  1.33531E+04 -1.91484E+04 -2.93450E+03 -7.49549E+03 -3.20917E+04
  2.16412E+04 -4.22771E+04  4.49335E+04 -1.84596E+04  4.25163E+04  1.80617E+04  1.56105E+04  4.12926E+04
 -1.54227E+04  3.15001E+04 -2.44603E+04  1.23293E+03 -9.93702E+03 -2.66046E+04  2.07380E+04 -3.22488E+04
  3.91244E+04 -7.04723E+03  3.25132E+04  2.28536E+04  1.54698E+04  4.33707E+04 -9.26795E+03  4.68257E+04
 -3.00516E+04  3.01875E+04 -3.85890E+04  8.05975E+03 -3.93938E+04 -1.55908E+04 -2.18242E+04 -3.54599E+04
  7.23331E+03 -3.57626E+04  2.92495E+04 -1.32226E+04  2.71171E+04  1.10156E+04  3.02370E+03  1.88508E+04
 -1.34009E+04  5.74201E+03 -1.01337E+04 -7.36101E+03  5.90102E+03 -1.01410E+04  1.77665E+04  6.05398E+03
  1.27345E+04  2.10431E+04 -6.64535E+03  2.42911E+04 -2.12307E+04  1.03317E+04 -2.59563E+04 -5.43603E+03
 -1.79575E+04 -1.65692E+04 -6.23616E+03 -1.78265E+04  4.55901E+03 -1.64125E+04  1.34549E+04 -1.52187E+04
  2.23454E+04 -1.13564E+04  2.93064E+04  7.40726E+02  2.29561E+04  1.68082E+04  4.60656E+03  3.29651E+04
 -1.72002E+04  2.79979E+04 -2.56830E+04  1.04417E+04 -2.13791E+04 -1.13632E+04 -4.00641E+03 -1.47271E+04
  2.19751E+03 -3.74920E+03 -2.98744E+03  6.01773E+03 -1.42924E+04  5.01400E+03 -1.37773E+04 -6.43932E+03
 -8.96696E+03 -1.66283E+04  5.31018E+03 -2.13369E+04  1.38008E+04 -1.48851E+04  1.75791E+04 -1.61855E+03
  9.73750E+03  1.15222E+04 -1.84021E+03  1.61428E+04 -1.14418E+04  8.79509E+03 -1.68156E+04 -3.39232E+03
 -1.30829E+04 -1.51033E+04 -1.78384E+03 -2.13246E+04  9.84290E+03 -1.67948E+04  1.80515E+04 -8.73726E+03
  1.67824E+04 -2.53063E+02  1.20830E+04  3.89696E+03  4.76014E+03  1.98479E+02  7.94666E+03 -1.70960E+03
  1.55696E+04  2.76556E+03  1.58673E+04  1.41399E+04  1.08646E+04  2.65999E+04 -3.56600E+03  2.86826E+04
 -1.75939E+04  2.31010E+04 -2.73812E+04  1.18119E+04 -2.80603E+04 -1.97711E+03 -2.38645E+04 -1.63077E+04
 -1.16816E+04 -2.45358E+04  7.35779E+03 -2.15792E+04  1.76199E+04 -1.08813E+04  1.65601E+04  5.79093E+03
  6.06503E+03  1.14222E+04 -8.93761E+03  1.07267E+04 -1.36696E+04  3.16606E+03 -1.15895E+04 -7.38870E+03
 -1.71458E+02 -1.28592E+04  7.33778E+03 -1.04650E+04  8.27143E+03 -2.60275E+03  2.57974E+03  5.11557E+03
 -5.78964E+03  7.50346E+02 -4.38616E+03 -5.13308E+03 -1.78134E+02 -1.15393E+04  8.11750E+03 -1.18684E+04
  1.39335E+04 -6.17330E+03  1.47957E+04  3.02964E+03  1.25334E+04  1.03717E+04  5.71221E+03  1.58415E+04
 -1.46231E+03  1.83868E+04 -1.18033E+04  1.09292E+04 -1.28637E+04  3.21200E+03 -9.74414E+03 -3.11501E+03
 -4.50064E+03 -3.66380E+03 -8.52243E+02  1.52425E+03 -3.05007E+03  1.24227E+03 -4.06013E+03  4.09744E+03
 -8.57942E+03 -7.28199E+02 -8.97768E+03 -6.51589E+03 -4.65197E+03 -1.27154E+04  3.38019E+03 -9.34608E+03
  7.73356E+03 -4.51019E+03  6.76878E+03  1.68205E+03  3.16865E+02  2.91629E+03 -4.59958E+03 -3.31060E+02
 -4.38905E+03 -6.35574E+03 -1.53057E+03 -6.94031E+03  3.46909E+03 -8.73889E+03  1.15910E+04 -4.46315E+03
  1.14530E+04  2.10064E+03  9.56123E+03  7.80352E+03  2.45852E+03  1.00741E+04 -5.76702E+03  9.08465E+03
 -7.36875E+03  3.62033E+03 -4.20057E+03 -1.92442E+03  2.06053E+03 -2.14957E+03  5.65080E+03 -1.29261E+02
  5.18949E+03  2.91306E+03  8.06407E+02  6.37769E+03 -4.76424E+03  6.05406E+03 -9.45876E+03  1.53695E+03
 -6.37233E+03 -4.07759E+03  6.20111E+02 -7.84864E+03  4.71159E+03 -4.35857E+03  3.55337E+03  1.51681E+03
  2.53246E+02  4.78399E+03 -5.42333E+03  5.88325E+03 -6.33858E+03  3.12048E+03 -5.15003E+03 -2.42365E+03
 -4.46216E+03 -7.41990E+03  1.26290E+03 -8.65148E+03  8.35600E+03 -5.38811E+03  8.57561E+03  1.83522E+02
  6.38379E+03  6.14262E+03 -6.35682E+01  8.43908E+03 -6.20343E+03  4.34138E+03 -7.03414E+03 -2.36065E+00
 -6.34696E+03 -5.93807E+03 -2.46451E+03 -6.36205E+03  2.97369E+03 -5.56419E+03  3.69751E+03 -3.14428E+03
  3.05699E+03  1.19145E+03 -3.16064E+01  1.36348E+03 -1.42139E+02 -1.32817E+03  4.47939E+02 -2.64440E+03
  5.26424E+03 -1.13065E+03  6.93895E+03  8.68232E+02  8.23035E+03  4.55977E+03  7.05701E+03  9.90252E+03
 -2.51669E+03  1.16678E+04 -9.78669E+03  8.39381E+03 -1.25678E+04  1.12272E+03 -8.92671E+03 -2.90913E+03
 -4.66598E+03 -7.47528E+03  3.15367E+02 -6.53931E+03  2.92518E+03 -2.10441E+03  2.95797E+03 -3.46361E+03
  1.43396E+03 -1.88510E+03  3.80683E+03 -2.56181E+03  4.34761E+03 -1.09757E+03  4.33930E+03  6.19247E+02
  5.97338E+03  7.56074E+02  1.68030E+03  4.37615E+03 -1.32250E+03  3.67663E+03 -5.64656E+03  4.56968E+03
 -6.84571E+03 -3.42733E+02 -2.70433E+03 -4.48797E+03  2.93199E+02 -6.58824E+03  3.82671E+03 -6.83929E+03
  6.28746E+03 -4.15712E+03  8.65784E+03  8.92953E+01  6.01676E+03  5.61262E+03  2.26282E+03  6.81605E+03
 -2.28390E+03  7.10002E+03 -4.31283E+03  2.33558E+03 -2.27432E+03 -1.44986E+03 -3.53933E+02 -6.16684E+02
 -1.33080E+03 -6.11405E+02 -6.31460E+02  2.12399E+03 -3.68673E+03  8.59277E+02 -5.21439E+03 -1.37546E+03
 -2.90958E+03 -4.56649E+03  1.64036E+03 -5.33667E+03  1.64595E+03 -4.43400E+03  5.41192E+03 -1.57514E+03
  5.55901E+03  3.37211E+03  3.08647E+03  4.46474E+03 -1.00676E+03  6.42105E+03 -2.73297E+03  4.16463E+03
 -5.47433E+03  4.90915E+02 -4.31405E+03 -3.84801E+03 -7.92780E+02 -4.45533E+03  1.67984E+03 -3.80357E+03
  3.29923E+03 -2.14437E+03  3.12026E+03  9.07967E+02 -4.08215E+02  2.08966E+03  2.29202E+03  1.72106E+03
  2.70399E+03  6.55842E+02  1.25502E+03  8.22165E+02  7.46332E+02  2.79792E+03  2.17527E+03  2.17194E+03
 -1.46167E+03  4.83791E+03 -3.95286E+03  4.30343E+03 -5.21024E+03  1.99323E+03 -5.46889E+03 -7.44443E+02
 -2.57935E+03 -4.18596E+03  2.57878E+02 -5.15907E+03  3.49166E+03 -3.91914E+03  3.97886E+03 -7.83496E+02
  3.99703E+03  2.36821E+03  6.92117E+02  1.71277E+03 -1.24241E+03  2.13214E+03 -1.89062E+03 -5.02775E+02
 -1.94792E+02 -1.97648E+03  1.00685E+03 -1.95014E+03  1.06281E+03 -6.06675E+02  2.17233E+03  1.62545E+03
  1.87780E+03  1.15362E+03 -2.45525E+02  3.49749E+02  2.29624E+02  4.42769E+02  2.17393E+03  1.82017E+02
  2.53519E+02 -1.41118E+03  1.49101E+03  1.27493E+03 -4.14988E+02  3.88459E+03 -5.31741E+02  3.60689E+03
 -3.17008E+03  1.63098E+03 -2.08277E+03  2.71377E+02 -2.63223E+03 -5.91692E+02 -1.04217E+03 -2.01606E+03
  9.73874E+01 -2.11588E+03  2.64687E+03 -6.85987E+02  2.14686E+03  8.01634E+02 -1.83073E+03  2.75912E+03
 -2.55565E+03  9.81830E+02 -2.91106E+03 -7.54758E+02 -7.72995E+02 -3.53746E+03  3.95015E+02 -2.69197E+03
  7.90598E+02 -1.79308E+03  2.81405E+03  2.25061E+02  3.04142E+03 -2.82688E+02 -6.12492E+02  1.27196E+03
  2.92541E+02  3.19454E+02 -1.59541E+03  4.75834E+01  1.00748E+03 -1.33121E+03  3.31688E+03 -1.25396E+03
  2.95504E+03  4.80417E+00  3.68228E+03  2.46533E+03  7.32713E+02  2.69307E+03 -1.45658E+03  2.25309E+03
 -3.36147E+03  1.14948E+02 -2.52345E+03 -4.71720E+02 -1.10764E+03 -1.83258E+03 -1.58170E+02 -8.80474E+02
  2.38184E+03 -1.01197E+03  1.60666E+03  4.04224E+02  1.14708E+02  1.71221E+03 -1.07921E+02  2.40955E+03
 -2.19895E+02  4.60809E+02 -1.50273E+03 -8.66064E+02  5.87080E+01  1.24307E+03 -9.83945E+02  7.07678E+02
 -4.54698E+02  9.71291E+02 -1.87858E+03  5.52062E+02 -1.99743E+03 -5.14862E+02 -4.34547E+03 -2.37386E+03
 -1.86871E+03 -2.92586E+03 -2.82142E+02 -4.73407E+03  2.37650E+03 -4.67966E+03  4.98856E+03 -1.16381E+03
  4.58296E+03  6.59249E+02  1.61956E+03  2.99895E+03  1.22163E+02  2.95960E+03 -3.75790E+02  4.55788E+02
 -1.21033E+03  7.60134E+02 -5.60027E+02 -4.74069E+02 -1.52678E+03 -1.06503E+02 -5.61031E+02 -6.91857E+02
 -6.88574E+02  5.30723E+01 -4.21685E+02  3.90281E+02 -7.71479E+02 -1.53146E+03 -3.82828E+02 -1.83958E+03
  2.45882E+03 -4.05809E+02  5.51533E+02 -2.80445E+02  1.02945E+03  2.04152E+03 -4.94135E+02  1.32544E+03
 -1.78050E+03  3.81171E+03 -3.85760E+03  1.64624E+03 -2.55413E+03  3.68462E+01 -2.44223E+03 -1.68573E+03
 -1.14237E+03 -1.94208E+03  3.42414E+02 -1.90125E+03  1.44682E+03 -6.57371E+02  1.83786E+03  2.68941E+02
  4.14042E+02 -3.54820E+02 -1.45643E+02  3.93328E+02  5.91817E+02  5.05772E+02  4.57696E+02  3.89878E+02
 -3.59009E+02 -7.20332E+02  3.35097E+02  1.29415E+02  9.46020E+02  3.53569E+02 -3.25992E+01  2.53905E+03
 -2.51834E+02  1.97390E+03 -8.64471E+02  2.62832E+01 -2.63126E+03 -6.44562E+02 -1.77153E+03 -1.57566E+03
  8.19147E+02 -1.08424E+03  2.50277E+03 -7.35517E+02  1.97169E+03  1.43526E+02  1.70471E+03  6.22387E+02
 -5.71304E+02  7.59477E+02 -2.82882E+02  9.97888E+02 -1.52445E+03  1.25503E+02  5.35455E+02  9.17061E+02
 -2.73073E+02  1.30238E+02 -1.50381E+03  1.86117E+03 -7.80793E+02  9.83800E+02 -7.93102E+02 -1.09194E+03
 -1.61080E+03 -1.55149E+03  1.31856E+02 -2.23031E+03  5.37113E+02 -2.86243E+03  2.19220E+03  2.21484E+02
  5.69804E+02 -3.36671E+02  1.18049E+03  4.07989E+02  2.44101E+01  2.32924E+03 -1.25048E+03  5.15043E+02
