 $NMID ID='MM_0lb_SNR200_9hz_g55_73.RAW', FMTDAT='(8E13.5)'
 TRAMP=1., VOLUME=1. $END
  3.08790E+05  8.43769E+01  3.38453E+05  2.51413E+05  8.49287E+04  3.37691E+05 -1.32676E+05  2.52488E+05
 -1.92393E+05  8.26284E+04 -1.10334E+05 -3.22811E+04  1.96807E+03 -5.04852E+04  5.28882E+04  6.45658E+02
  3.55549E+04  5.44059E+04 -1.57018E+04  7.74947E+04 -6.36977E+04  6.44983E+04 -8.41403E+04  3.32047E+04
 -8.40933E+04 -1.27514E+04 -5.89711E+04 -5.27377E+04 -1.40219E+04 -7.13806E+04  2.75763E+04 -4.64867E+04
  4.25420E+04  3.09924E+03  1.68162E+04  4.87917E+04 -3.50382E+04  4.77971E+04 -6.78243E+04  1.80883E+02
 -5.48156E+04 -5.78006E+04 -6.67234E+03 -7.88206E+04  3.54335E+04 -5.78596E+04  5.07747E+04 -1.89135E+04
  4.49211E+04  1.16171E+04  3.11789E+04  2.66685E+04  1.51770E+04  2.92245E+04 -6.76628E+03  2.85841E+04
 -2.25655E+04  1.18148E+04 -1.68149E+04 -5.42396E+03  6.63043E+03 -7.00112E+03  2.33836E+04  1.44301E+04
  7.23578E+03  3.68979E+04 -3.40472E+04  3.72688E+04 -6.51484E+04  2.54903E+03 -5.79737E+04 -4.54671E+04
 -1.45290E+04 -6.70242E+04  4.30241E+04 -4.87511E+04  6.22892E+04 -2.73829E+03  3.89158E+04  3.37058E+04
 -4.99929E+03  3.93719E+04 -3.15352E+04  1.83518E+04 -3.25550E+04 -3.45447E+03 -1.94889E+04 -1.15501E+04
 -1.01587E+04 -1.71831E+04  5.97411E+01 -1.95749E+04  8.38383E+03 -2.30152E+04  1.68690E+04 -1.33584E+04
  1.07266E+04  6.79405E+03 -1.03096E+04  1.32543E+04 -2.33563E+04 -6.93169E+03 -9.47190E+03 -3.89412E+04
  2.49901E+04 -4.70086E+04  5.25630E+04 -2.03555E+04  4.93234E+04  2.11779E+04  1.82176E+04  4.69880E+04
 -1.76701E+04  3.52091E+04 -2.75343E+04  2.53850E+03 -1.23582E+04 -3.08974E+04  2.08979E+04 -3.58967E+04
  4.41382E+04 -1.21658E+04  4.04971E+04  2.39155E+04  2.24743E+04  5.10653E+04 -8.92164E+03  5.64653E+04
 -3.54742E+04  3.87547E+04 -4.69373E+04  1.25847E+04 -4.74233E+04 -1.92085E+04 -2.64302E+04 -4.18634E+04
  7.52793E+03 -4.30406E+04  3.58130E+04 -1.79914E+04  3.22334E+04  1.08611E+04  4.81268E+03  2.02624E+04
 -1.61143E+04  9.10069E+03 -1.03083E+04 -8.48706E+03  5.70892E+03 -1.11388E+04  1.67125E+04  5.48642E+03
  1.43894E+04  2.17073E+04 -4.01057E+03  2.66947E+04 -2.24787E+04  1.50406E+04 -3.13382E+04 -2.08877E+03
 -2.75088E+04 -1.93533E+04 -1.18893E+04 -2.57814E+04  3.69137E+03 -2.76020E+04  2.11751E+04 -2.38728E+04
  3.29571E+04 -1.40352E+04  3.81534E+04  5.26841E+03  2.72330E+04  2.59993E+04  4.95140E+03  4.24498E+04
 -1.93627E+04  3.36121E+04 -3.10293E+04  1.29332E+04 -2.27437E+04 -1.06778E+04 -5.17131E+03 -1.37737E+04
 -2.47777E+02 -1.90160E+03 -9.61267E+03  8.07591E+03 -2.09535E+04  4.56367E+03 -1.97615E+04 -9.89533E+03
 -1.23635E+04 -2.26240E+04  7.16485E+03 -2.88382E+04  1.94778E+04 -1.90204E+04  2.21975E+04 -1.98145E+03
  1.49048E+04  1.64881E+04 -2.58415E+03  2.56589E+04 -1.76214E+04  1.35650E+04 -2.31549E+04 -4.42743E+03
 -1.77584E+04 -2.04722E+04 -3.67555E+03 -2.98050E+04  1.17680E+04 -2.34821E+04  2.24133E+04 -1.32831E+04
  2.33512E+04 -5.14995E+02  1.65429E+04  6.92236E+03  1.03301E+04  9.87001E+02  1.21152E+04 -1.49913E+03
  2.19029E+04  4.33345E+03  2.74921E+04  1.84753E+04  1.89614E+04  3.89925E+04 -2.81896E+03  4.50297E+04
 -2.80282E+04  3.70024E+04 -4.28156E+04  2.02021E+04 -4.56983E+04 -3.13236E+03 -3.64911E+04 -2.73246E+04
 -1.42655E+04 -3.91545E+04  1.33434E+04 -3.44480E+04  2.79911E+04 -1.40988E+04  2.52386E+04  8.38441E+03
  8.81830E+03  1.95432E+04 -1.20179E+04  1.54574E+04 -2.31109E+04  2.03999E+03 -1.51029E+04 -1.29893E+04
 -1.15307E+02 -2.02826E+04  1.31852E+04 -1.55302E+04  1.46500E+04 -1.32402E+03  3.49213E+03  8.01546E+03
 -9.60269E+03  3.61894E+03 -8.00534E+03 -8.55435E+03 -1.12052E+03 -1.65576E+04  1.19875E+04 -2.08672E+04
  2.36106E+04 -1.14000E+04  2.71926E+04  2.94233E+03  2.31446E+04  1.85254E+04  1.14272E+04  3.10753E+04
 -5.37741E+03  3.28551E+04 -2.11484E+04  2.06235E+04 -2.29375E+04  3.93403E+03 -1.71204E+04 -5.56911E+03
 -5.46934E+03 -7.09239E+03 -1.96221E+03 -3.63150E+02 -1.72159E+03  3.64431E+03 -8.02483E+03  4.79319E+03
 -1.57669E+04 -5.32681E+02 -1.52590E+04 -1.03519E+04 -7.17709E+03 -1.79292E+04  7.82459E+03 -1.56217E+04
  1.42390E+04 -6.03870E+03  9.80991E+03  5.24077E+03  4.07294E+02  5.73166E+03 -7.88997E+03 -1.25896E+03
 -9.22862E+03 -9.96132E+03 -1.82851E+03 -1.75249E+04  1.01399E+04 -1.58964E+04  2.04380E+04 -9.39686E+03
  2.26291E+04  2.38570E+03  1.82443E+04  1.44584E+04  4.02338E+03  2.04170E+04 -8.74570E+03  1.50929E+04
 -1.19763E+04  5.19770E+03 -5.88891E+03 -2.62672E+03  2.80552E+03 -5.17831E+03  7.27546E+03 -4.50073E+02
  7.81846E+03  7.14974E+03  1.50997E+03  1.37775E+04 -9.89623E+03  1.20951E+04 -1.64041E+04  3.66621E+03
 -1.08412E+04 -8.59593E+03  5.22502E+02 -1.45074E+04  9.76479E+03 -5.91886E+03  9.52511E+03  2.53567E+03
  2.75832E+03  9.60621E+03 -8.15147E+03  1.28400E+04 -1.26587E+04  6.13452E+03 -1.33593E+04 -5.44013E+03
 -7.29068E+03 -1.63512E+04  5.66123E+03 -1.82365E+04  1.75199E+04 -1.13939E+04  1.79855E+04  2.99032E+03
  9.66633E+03  1.28470E+04 -2.54358E+03  1.77493E+04 -1.07994E+04  8.59466E+03 -1.47979E+04 -1.79907E+03
 -1.01052E+04 -9.57326E+03 -3.27712E+03 -1.09766E+04  7.31005E+03 -9.50910E+03  7.12107E+03 -3.51648E+03
  6.41788E+03  3.34701E+03 -1.41490E+03  2.98900E+02 -7.65898E+02 -3.28719E+03  3.05144E+03 -7.39217E+03
  1.11329E+04 -5.10860E+03  1.67512E+04  2.76519E+03  1.51213E+04  1.33359E+04  9.72988E+03  2.28112E+04
 -3.58026E+03  2.63183E+04 -2.04399E+04  2.01047E+04 -2.57347E+04  3.32871E+03 -2.21014E+04 -8.57906E+03
 -1.20892E+04 -1.66454E+04  1.17251E+03 -1.33677E+04  5.43725E+03 -8.73755E+03  6.73449E+03 -4.42747E+03
  3.95099E+03 -2.54058E+03  5.58369E+03 -3.39688E+03  5.91803E+03 -4.35379E+03  8.49921E+03 -1.31424E+03
  1.16925E+04  2.39750E+03  5.31944E+03  9.99192E+03 -2.86721E+03  1.29188E+04 -1.16360E+04  9.08088E+03
 -1.48493E+04 -2.49531E+03 -1.01381E+04 -1.18850E+04 -4.85244E+02 -1.72604E+04  6.71010E+03 -1.72307E+04
  1.67248E+04 -9.39225E+03  2.05180E+04  3.09367E+03  1.41510E+04  1.38341E+04  2.97810E+03  1.75088E+04
 -8.01398E+03  1.34371E+04 -1.15388E+04  5.88811E+03 -7.44418E+03 -1.41875E+03 -2.23055E+03 -1.25386E+03
 -7.34292E+02 -3.15548E+02 -1.32334E+03  4.05414E+03 -6.20065E+03  3.66591E+03 -1.08986E+04 -1.38582E+03
 -7.65153E+03 -1.01861E+04  9.94479E+02 -1.54406E+04  9.68651E+03 -1.39266E+04  1.56217E+04 -4.40915E+03
  1.58453E+04  7.50250E+03  6.28667E+03  1.34096E+04 -3.68304E+03  1.57567E+04 -1.11138E+04  9.55957E+03
 -1.52039E+04  1.25088E+03 -1.00337E+04 -9.33406E+03  4.22665E+02 -1.46096E+04  6.56139E+03 -1.01573E+04
  9.42283E+03 -2.63761E+03  7.06106E+03  3.57468E+03  5.00655E+02  4.47041E+03  1.63647E+03  1.86167E+03
  4.00034E+03  1.25234E+03  4.53546E+03  1.42457E+03  3.34137E+03  4.67824E+03  3.34900E+03  7.67414E+03
 -4.37256E+03  1.42122E+04 -1.05607E+04  1.21955E+04 -1.71765E+04  3.44647E+03 -1.60601E+04 -5.82345E+03
 -9.33958E+03 -1.44464E+04  1.61741E+03 -1.75212E+04  8.60336E+03 -1.02772E+04  1.27742E+04 -3.45963E+03
  9.74503E+03  7.54130E+03  3.28228E+03  8.89103E+03 -5.48696E+03  6.57811E+03 -6.39049E+03 -2.36081E+03
 -2.28828E+03 -6.13836E+03  3.33818E+03 -6.52371E+03  7.29647E+03 -3.45853E+03  6.69096E+03  7.13691E+02
  3.87600E+03  3.78183E+03  2.22351E+03  2.09669E+03 -1.65048E+03  2.17540E+03  1.99717E+03 -2.09152E+03
  3.38093E+03 -1.59960E+03  5.31022E+03  2.12329E+03  4.96222E+03  7.95543E+03 -1.37625E+03  1.08891E+04
 -6.30631E+03  7.45296E+03 -9.84197E+03  1.06892E+03 -9.75397E+03 -2.33272E+03 -4.09959E+03 -7.03800E+03
  1.31681E+03 -6.67471E+03  3.92667E+03 -2.61550E+03  3.26730E+03  4.14310E+03 -2.24667E+03  4.81666E+03
 -5.92317E+03  2.84266E+03 -7.05557E+03 -3.82365E+03 -2.75377E+03 -7.85805E+03  1.02594E+03 -7.41432E+03
  5.05791E+03 -5.48064E+03  5.76665E+03  6.73505E+02  5.57762E+03  2.08745E+03  9.06877E+02  6.84307E+03
 -2.12566E+03  7.62793E+02 -4.41492E+03 -1.35410E+03  9.38418E+02 -6.60120E+03  8.45166E+03 -5.53435E+03
  1.10103E+04  5.13181E+02  9.14321E+03  6.94779E+03  3.16061E+03  1.28608E+04 -3.40639E+03  1.08144E+04
 -9.32907E+03  6.25974E+03 -7.48319E+03 -1.13168E+03 -5.40961E+03 -6.94918E+03  2.81403E+03 -6.01823E+03
  6.09028E+03 -3.82021E+03  5.17259E+03  2.68290E+03  1.79485E+03  6.76773E+03 -7.95645E+02  5.66210E+03
 -2.01019E+03  3.65216E+03 -2.28104E+03  2.51447E+03 -1.03624E+03 -5.70763E+02 -5.95849E+02  1.67474E+03
 -2.23829E+03  4.52628E+03 -6.32974E+03  4.26101E+03 -1.04760E+04 -1.69331E+02 -1.10071E+04 -8.13676E+03
 -6.70422E+03 -1.49541E+04  2.28054E+03 -1.52878E+04  1.03370E+04 -1.22466E+04  1.50264E+04 -5.74016E+03
  1.28035E+04  3.24882E+03  9.66246E+03  9.85011E+03  3.88706E+02  1.12336E+04 -4.28611E+03  7.80058E+03
 -6.66781E+03  3.86728E+03 -3.64772E+03  3.78699E+01 -1.98806E+03 -1.45506E+03  9.03814E+02 -1.37114E+03
 -1.38619E+03 -2.59136E+02 -2.99441E+03  1.49307E+02 -1.69577E+03 -1.43207E+03  1.65926E+03 -4.49665E+03
  3.22323E+03 -3.37012E+03  7.09713E+03  1.02319E+03  8.92738E+03  5.71560E+03  1.20045E+03  1.19453E+04
 -6.58560E+03  1.21604E+04 -1.19692E+04  8.78253E+03 -1.19948E+04 -1.74653E+03 -1.05442E+04 -9.08798E+03
 -2.87235E+03 -1.13178E+04  2.27555E+03 -1.05036E+04  6.22278E+03 -6.11883E+03  8.32266E+03  1.57480E+03
  4.53901E+03  2.62443E+03 -4.51862E+02  4.31840E+03 -1.80420E+03 -1.11214E+03  8.94047E+02 -1.56985E+03
  2.73246E+03 -1.80853E+03  4.86862E+03  1.11556E+03  3.65067E+03  4.74317E+03  6.09300E+02  5.41977E+03
 -4.48877E+03  6.69476E+03 -6.34148E+03  6.90522E+02 -7.06385E+03 -4.94266E+03 -1.29511E+03 -9.20013E+03
  7.00976E+03 -8.65463E+03  8.53842E+03 -3.30678E+03  8.98512E+03  2.26225E+03  5.13171E+03  7.04609E+03
  1.18004E+03  7.46783E+03 -3.94807E+03  4.67300E+03 -3.21091E+03  3.98747E+03 -2.88637E+03 -5.56673E+02
 -1.27023E+03 -2.75244E+02 -2.19075E+03  1.62956E+03 -2.63504E+03  2.15201E+03 -4.84812E+03 -1.53088E+03
 -5.33881E+03 -4.85863E+03 -3.34590E+03 -6.51106E+03  4.33897E+03 -8.22384E+03  6.83598E+03 -3.65991E+03
  7.70343E+03  2.05261E+03  3.50166E+03  4.85372E+03 -1.24097E+02  8.58770E+03 -5.61796E+03  5.00685E+03
