 $NMID ID='MM_0lb_SNR200_20hz_g50_94.RAW', FMTDAT='(8E13.5)'
 TRAMP=1., VOLUME=1. $END
  3.09959E+05 -1.50896E+02  3.36782E+05  2.49859E+05  8.37497E+04  3.37069E+05 -1.32484E+05  2.49737E+05
 -1.89474E+05  8.30071E+04 -1.10004E+05 -3.27090E+04  1.09824E+03 -4.92523E+04  5.44520E+04  1.28479E+03
  3.47012E+04  5.23170E+04 -1.63721E+04  7.47653E+04 -6.04834E+04  6.20391E+04 -8.28648E+04  3.25779E+04
 -7.92111E+04 -1.12417E+04 -5.59997E+04 -4.99666E+04 -1.50806E+04 -6.90006E+04  2.68104E+04 -4.46002E+04
  3.86880E+04  4.01885E+03  1.62500E+04  4.72443E+04 -3.33716E+04  4.57022E+04 -6.51554E+04 -1.93917E+02
 -5.19971E+04 -5.51452E+04 -6.63826E+03 -7.51178E+04  3.36191E+04 -5.27929E+04  4.56841E+04 -1.56525E+04
  4.18440E+04  1.14542E+04  3.03488E+04  2.35047E+04  1.58185E+04  2.71750E+04 -4.57823E+03  2.64366E+04
 -2.09728E+04  1.24163E+04 -1.86229E+04 -3.29090E+03  3.88294E+03 -7.29868E+03  2.04139E+04  1.13141E+04
  7.36209E+03  3.16637E+04 -2.96063E+04  3.39306E+04 -5.95776E+04  1.27947E+03 -5.42379E+04 -4.16809E+04
 -1.27185E+04 -6.06486E+04  3.77021E+04 -4.27005E+04  5.54194E+04 -1.15751E+03  3.10331E+04  3.07543E+04
 -6.79704E+03  3.30231E+04 -2.92171E+04  1.24409E+04 -2.76739E+04 -6.32488E+03 -1.31104E+04 -9.57510E+03
 -8.44275E+03 -1.16041E+04 -1.09928E+03 -1.64946E+04  6.60848E+03 -2.25306E+04  1.41016E+04 -1.42341E+04
  1.25596E+04  4.57379E+03 -6.38434E+03  1.35029E+04 -2.02824E+04 -3.31805E+03 -8.62465E+03 -3.04058E+04
  1.94912E+04 -4.00920E+04  4.28601E+04 -1.73841E+04  4.28391E+04  1.82769E+04  1.55559E+04  4.14558E+04
 -1.50817E+04  3.02554E+04 -2.26896E+04  1.36354E+03 -8.14869E+03 -2.61127E+04  1.99918E+04 -3.02033E+04
  3.70713E+04 -6.59718E+03  3.11790E+04  2.30762E+04  1.43785E+04  4.27721E+04 -8.64253E+03  4.43146E+04
 -2.68192E+04  2.87369E+04 -3.69375E+04  7.26764E+03 -3.73608E+04 -1.47718E+04 -2.01818E+04 -3.30317E+04
  7.12079E+03 -3.36699E+04  2.89414E+04 -1.22603E+04  2.67819E+04  1.11319E+04  2.66690E+03  1.73018E+04
 -1.26169E+04  7.25420E+03 -9.31675E+03 -7.69650E+03  6.72171E+03 -1.08830E+04  1.74947E+04  6.59223E+03
  1.16374E+04  2.12146E+04 -7.51321E+03  2.35669E+04 -2.12419E+04  9.09818E+03 -2.44199E+04 -7.54544E+03
 -1.58142E+04 -1.70818E+04 -4.87350E+03 -1.61240E+04  3.65759E+03 -1.34105E+04  1.21627E+04 -1.25213E+04
  2.08759E+04 -1.19303E+04  2.61092E+04  3.73996E+02  2.04046E+04  1.54402E+04  4.23560E+03  3.18084E+04
 -1.52377E+04  2.70613E+04 -2.58134E+04  8.74520E+03 -1.90492E+04 -1.01583E+04 -3.49429E+03 -1.26346E+04
  2.78742E+03 -3.35690E+03 -3.12939E+03  5.27714E+03 -1.26145E+04  5.93033E+03 -1.29680E+04 -5.95487E+03
 -9.41492E+03 -1.51948E+04  2.47921E+03 -1.91976E+04  1.09778E+04 -1.34409E+04  1.40344E+04 -1.39815E+03
  8.47977E+03  1.13073E+04 -1.40511E+03  1.46642E+04 -1.07456E+04  8.84563E+03 -1.48579E+04 -2.17387E+03
 -1.08441E+04 -1.31251E+04 -1.25329E+03 -1.90221E+04  7.75879E+03 -1.48608E+04  1.51949E+04 -7.54340E+03
  1.36359E+04  1.39219E+03  1.03020E+04  4.30362E+03  5.98810E+03  7.70034E+02  7.48823E+03 -1.29408E+03
  1.29284E+04  3.36076E+03  1.37478E+04  1.18251E+04  7.68445E+03  2.35827E+04 -2.45814E+03  2.42936E+04
 -1.45547E+04  1.88242E+04 -2.37288E+04  9.88763E+03 -2.37437E+04 -2.47936E+03 -1.96446E+04 -1.31145E+04
 -1.00533E+04 -1.96320E+04  6.92324E+03 -1.83163E+04  1.53558E+04 -9.88327E+03  1.48283E+04  2.91699E+03
  5.67875E+03  1.02198E+04 -6.79437E+03  9.95613E+03 -1.31876E+04  2.54027E+03 -1.00351E+04 -7.06483E+03
  3.71680E+02 -1.18084E+04  6.12276E+03 -9.04591E+03  8.14444E+03 -1.19527E+03  2.04223E+03  4.94400E+03
 -4.83990E+03  1.43474E+03 -4.59053E+03 -3.88173E+03  1.78168E+03 -9.05529E+03  7.35004E+03 -8.57251E+03
  1.04634E+04 -4.08003E+03  1.01146E+04  3.72623E+03  9.53804E+03  7.76020E+03  3.79071E+03  1.18176E+04
 -6.84087E+02  1.47465E+04 -9.91654E+03  9.20425E+03 -9.56675E+03  3.85557E+03 -7.75998E+03 -4.81215E+01
 -4.04592E+03 -1.02002E+03 -2.11782E+03  1.78144E+03 -5.10343E+02  2.04585E+03 -4.30211E+03  2.91689E+03
 -8.63298E+03 -5.54050E+02 -8.47288E+03 -7.33650E+03 -4.04982E+03 -1.21552E+04  2.78125E+03 -8.43105E+03
  7.16743E+03 -3.59346E+03  4.97165E+03  1.92807E+03  1.05911E+03  2.49014E+03 -2.83034E+03  1.00724E+02
 -1.48572E+03 -5.60897E+03 -6.38661E+02 -6.26511E+03  3.39912E+03 -5.47087E+03  9.86191E+03 -3.29898E+03
  1.10506E+04  2.93060E+02  7.62674E+03  5.56752E+03  2.69915E+03  7.81360E+03 -4.05419E+03  8.64761E+03
 -6.17610E+03  1.72852E+03 -2.80738E+03 -2.13066E+03  2.03687E+03 -1.65846E+03  3.32032E+03 -1.17922E+03
  4.01700E+03  3.34932E+03  1.17129E+03  5.78157E+03 -4.45411E+03  5.99566E+03 -7.01417E+03  1.53596E+03
 -3.42095E+03 -3.09471E+03  3.36790E+02 -5.72088E+03  2.85116E+03 -2.17238E+03  2.81315E+03  1.48344E+03
  3.37293E+02  1.97067E+03 -3.82778E+03  4.36268E+03 -3.73466E+03  2.12913E+03 -2.77232E+03 -8.63318E+02
 -3.16831E+03 -5.79908E+03  1.11580E+03 -7.21113E+03  6.07967E+03 -4.16473E+03  6.11081E+03  9.48334E+02
  3.67593E+03  4.42771E+03 -5.56807E+00  6.70953E+03 -5.07483E+03  4.02142E+03 -3.88652E+03  3.81016E+02
 -5.15731E+03 -5.35368E+03 -1.47706E+03 -5.00831E+03  1.12063E+03 -3.47756E+03  2.64732E+03 -2.85954E+03
  2.55607E+03  7.74678E+01  2.88115E+01  1.06554E+03  5.63451E+02 -1.20293E+03  5.02645E+02 -5.99077E+02
  2.99712E+03  2.00612E+02  4.22374E+03 -1.48607E+02  4.86377E+03  2.64481E+03  4.11992E+03  6.70575E+03
 -2.32620E+02  8.02343E+03 -6.79185E+03  6.18518E+03 -9.40013E+03  1.54352E+03 -6.94420E+03 -2.46785E+03
 -3.62325E+03 -7.03664E+03 -3.97911E+02 -4.25925E+03  1.14837E+03 -1.57003E+03  2.11365E+03 -1.76479E+03
  1.57754E+03 -1.17146E+03  2.29038E+03 -2.36652E+03  2.68053E+03 -1.48315E+03  3.35199E+03  6.62087E+02
  5.06574E+03  4.16427E+02  7.05640E+02  3.94226E+03 -1.08743E+03  2.09169E+03 -3.90760E+03  2.47957E+03
 -3.07432E+03 -1.33017E+03 -1.11243E+03 -3.48027E+03  2.30573E+02 -3.99495E+03  2.65042E+03 -4.70929E+03
  4.78315E+03 -3.12615E+03  5.82857E+03 -4.17609E+01  4.99805E+03  3.41137E+03  1.21324E+03  4.88198E+03
 -1.14212E+03  4.83258E+03 -2.62621E+03  1.33058E+03 -2.70558E+03 -1.31964E+03 -8.49557E+02  5.97107E+02
 -2.51270E+02  8.36477E+01 -6.69844E+02  1.90521E+03 -2.58299E+03  6.39656E+02 -2.99922E+03 -1.15994E+03
 -1.11454E+03 -2.84584E+03  1.77846E+03 -3.40846E+03  2.04635E+03 -3.68811E+03  1.88880E+03 -1.02974E+03
  3.05267E+03  2.81812E+03  3.20456E+03  2.48432E+03 -1.00721E+03  3.80092E+03 -1.47379E+03  2.09272E+03
 -2.75586E+03  1.07466E+03 -3.45721E+03 -3.00896E+03  1.12382E+01 -2.56794E+03  1.15559E+03 -2.43430E+03
  2.22616E+03 -1.67811E+03  2.30295E+03  1.60446E+02  4.36848E+02  2.61146E+03  1.85015E+02  4.99802E+02
  1.49298E+03  4.82784E+02  4.08140E+02  1.38275E+03  5.19678E+02  1.76026E+03  2.06043E+03  1.99921E+03
 -8.77535E+02  2.35582E+03 -1.99058E+03  2.61934E+03 -1.78908E+03  1.25436E+03 -2.79791E+03  1.10338E+02
 -5.11222E+02 -3.36142E+03  1.71594E+02 -4.23212E+03  1.44133E+03 -1.95848E+03  2.05411E+03 -7.01590E+02
  2.63629E+03  6.32267E+02 -3.86712E+02  2.13075E+03 -4.53458E+02  1.21528E+03 -8.66017E+02  4.71683E+02
 -8.46484E+02 -5.47126E+02  2.68059E+03 -5.68919E+01  6.41296E+02 -6.51810E+02  1.56322E+03 -4.63272E+02
  1.61639E+03 -9.39955E+02  1.62351E+02  3.30406E+02  1.05731E+02  9.27642E+00  2.32848E+03 -4.36575E+02
 -3.40575E+02  3.09036E+01  1.27803E+03 -1.67774E+02 -2.99176E+02  2.94574E+03 -8.14179E+02  2.52963E+03
 -1.14835E+03  1.47808E+03 -9.83112E+02 -2.23438E+02 -1.98411E+03  3.32389E+01  8.32396E+02 -8.96493E+01
  3.44694E+02 -1.04149E+03  2.27318E+02 -1.44462E+03  4.87895E+02  6.27403E+02 -1.50481E+03  2.61876E+02
 -2.08504E+03  2.54651E+02 -1.65567E+02 -1.37624E+03  3.12089E+02 -1.77179E+03  8.33008E+02 -6.37181E+02
 -6.24865E+02 -7.92120E+02  4.82183E+02  7.85527E+02  6.84760E+02 -1.08844E+03 -3.83576E+02  1.03149E+03
 -6.55183E+02  3.01835E+02 -8.76646E+02 -6.07267E+02  2.68259E+02 -1.14862E+03  2.03037E+03 -8.37961E+02
  8.93326E+02  9.72530E+02  1.87268E+03 -3.43145E+01  1.91914E+03  1.00797E+03  1.49829E+02  1.17373E+03
 -1.59237E+03  1.07381E+02 -1.21225E+03  7.48726E+01 -2.09426E+02 -1.48376E+03  2.56846E+02  4.50146E+01
  6.25285E+02 -1.07918E+03  6.46008E+02  5.27282E+02 -3.28352E+02  1.46997E+03 -8.20299E+02  6.73988E+02
  4.04901E+02  7.99314E+02  1.05639E+03 -1.96164E+02 -2.84044E+02  3.98941E+02 -1.16046E+03  1.34033E+02
  9.31280E+01  1.13925E+03 -1.51951E+03  8.74164E+02 -2.56202E+03  3.21957E+02 -6.45935E+02 -1.58350E+02
 -7.40931E+02 -2.46627E+03 -3.82426E+01 -1.80259E+03  8.89438E+02 -2.32673E+03  2.62142E+03 -1.22190E+03
  2.05222E+03 -3.39603E+02  1.88033E+02  1.08233E+03 -1.07474E+03  7.15359E+02 -1.11403E+03  1.48329E+03
 -1.21542E+03  1.59600E+03 -2.34870E+02  1.27373E+03 -7.88350E+02  4.11215E+02 -4.30618E+02 -1.28453E+02
 -1.07062E+03  3.65586E+02 -2.27713E+03  3.25660E+02  7.04373E+02 -1.27950E+03  5.32221E+02 -9.65562E+02
  1.58447E+03  6.58408E+01  1.44298E+03 -5.85115E+02  6.97028E+02 -1.29009E+02  7.82183E+01  1.07062E+03
  2.56432E+02  1.80932E+03 -6.95733E+02  1.74316E+03 -2.78826E+02  4.07464E+02 -2.99054E+02 -1.32082E+03
 -7.13157E+02 -4.45036E+02 -8.06890E+01 -8.09263E+02  1.19644E+03 -6.88039E+02  4.63043E+01  3.03532E+02
  1.84322E+03 -5.89134E+02  6.06747E+00  6.65140E+02  5.32934E+02 -8.48742E+02 -2.24916E+03 -1.96546E+02
  9.51714E+02  1.32267E+03  4.50075E+02 -3.56649E+01  2.91636E+01 -1.05478E+02  9.78144E+02 -1.53871E+03
  1.07429E+02 -2.16412E+02 -5.80322E+02  2.65288E+02 -8.07430E+02 -7.80258E+02 -1.77471E+02 -1.37970E+03
  3.06889E+02 -4.31288E+02  1.04889E+02  2.88853E+02  1.79354E+03 -9.20961E+02  4.70305E+02 -2.12961E+01
  1.20206E+02  6.03201E+02  7.50131E+02 -1.14158E+01 -8.68066E+02  1.19948E+03 -7.48573E+02  5.05906E+02
 -8.21838E+01  9.14774E+01 -1.01355E+03  1.54860E+02 -7.29674E+02 -2.38415E+02 -4.29445E+02 -3.06447E+02
 -1.22627E+03  2.31743E+02  2.34178E+02 -2.42884E+02  2.51708E+02 -1.48193E+03  7.42347E+01  3.36585E+02
 -3.84785E+02 -6.14644E+02  2.08319E+02 -1.10200E+03  5.34460E+02  1.71644E+03  2.67773E+02  4.32027E+02
