 $NMID ID='MM_0lb_SNR200_7hz_g55_90.RAW', FMTDAT='(8E13.5)'
 TRAMP=1., VOLUME=1. $END
  3.10960E+05  1.17857E+03  3.37760E+05  2.51280E+05  8.31960E+04  3.40144E+05 -1.33030E+05  2.52541E+05
 -1.92486E+05  8.34107E+04 -1.11330E+05 -3.19487E+04  5.36466E+01 -5.13035E+04  5.30119E+04 -2.38962E+03
  3.67245E+04  5.49711E+04 -1.69026E+04  7.57369E+04 -6.25461E+04  6.31347E+04 -8.70582E+04  3.28696E+04
 -8.44984E+04 -1.14011E+04 -5.86804E+04 -5.32617E+04 -1.71073E+04 -6.92842E+04  2.83020E+04 -4.71840E+04
  4.24600E+04  3.36527E+03  1.50176E+04  4.85631E+04 -3.49997E+04  4.86800E+04 -6.81204E+04  2.40435E+02
 -5.39232E+04 -5.86695E+04 -7.92758E+03 -8.11586E+04  3.63244E+04 -5.95130E+04  5.03013E+04 -1.96467E+04
  4.27755E+04  1.18081E+04  3.37953E+04  2.55259E+04  1.59513E+04  3.20561E+04 -5.37787E+03  2.74954E+04
 -2.07194E+04  1.37146E+04 -1.86128E+04 -5.12601E+03  8.03595E+03 -8.66432E+03  2.45371E+04  1.48977E+04
  7.24971E+03  3.79079E+04 -3.64618E+04  3.96305E+04 -6.61324E+04  1.59292E+03 -5.95299E+04 -4.53846E+04
 -1.35773E+04 -6.65554E+04  4.11863E+04 -4.76053E+04  6.34767E+04 -2.35718E+03  3.81142E+04  3.53405E+04
 -5.16476E+03  4.01671E+04 -3.39670E+04  2.01393E+04 -3.43915E+04 -2.99404E+03 -2.25891E+04 -1.28445E+04
 -9.92506E+03 -1.69640E+04 -5.16596E+02 -1.92902E+04  6.37575E+03 -2.28482E+04  1.52225E+04 -1.21418E+04
  1.01548E+04  7.81392E+03 -1.09776E+04  1.33849E+04 -2.46657E+04 -8.63011E+03 -8.43622E+03 -4.07477E+04
  2.65586E+04 -4.72940E+04  5.44528E+04 -2.11783E+04  4.93268E+04  2.15593E+04  1.86927E+04  4.82961E+04
 -1.55695E+04  3.80987E+04 -2.89240E+04  2.65515E+03 -1.11325E+04 -3.03447E+04  2.10157E+04 -3.95399E+04
  4.54951E+04 -1.39151E+04  4.18029E+04  2.51388E+04  2.35318E+04  5.28429E+04 -9.14272E+03  5.87484E+04
 -3.72650E+04  4.07467E+04 -4.91180E+04  1.10318E+04 -4.96884E+04 -1.87796E+04 -2.76415E+04 -4.37428E+04
  8.65995E+03 -4.37480E+04  3.50706E+04 -1.85881E+04  3.48176E+04  9.26478E+03  5.88138E+03  2.17290E+04
 -1.48405E+04  1.02636E+04 -1.12756E+04 -5.73455E+03  6.85771E+03 -1.22273E+04  2.10202E+04  5.68932E+03
  1.39393E+04  2.23545E+04 -3.26072E+03  2.81942E+04 -2.42488E+04  1.46290E+04 -3.33574E+04 -1.50009E+03
 -2.86898E+04 -2.09210E+04 -1.47015E+04 -2.89893E+04  4.17902E+03 -2.97289E+04  2.15090E+04 -2.61458E+04
  3.56509E+04 -1.62292E+04  4.10790E+04  6.40954E+03  2.97646E+04  2.69367E+04  5.18133E+03  4.37749E+04
 -2.06846E+04  3.48282E+04 -3.19800E+04  1.40655E+04 -2.30026E+04 -8.85484E+03 -5.88370E+03 -1.21193E+04
  5.15905E+02 -6.08821E+02 -8.32307E+03  1.04704E+04 -2.18406E+04  4.82954E+03 -2.27402E+04 -1.18177E+04
 -1.14204E+04 -2.64840E+04  6.92555E+03 -2.92063E+04  2.14706E+04 -2.06122E+04  2.52992E+04 -3.35805E+03
  1.57207E+04  1.80949E+04  8.39128E+02  2.55284E+04 -2.03410E+04  1.39143E+04 -2.64474E+04 -5.13555E+03
 -1.85610E+04 -2.29388E+04 -2.89446E+03 -3.13088E+04  1.33363E+04 -2.58774E+04  2.36673E+04 -1.34588E+04
  2.45821E+04  2.08666E+02  1.81261E+04  4.70471E+03  9.40826E+03  1.34300E+02  1.32022E+04 -1.90906E+03
  2.47322E+04  2.37454E+03  2.83607E+04  1.84223E+04  1.99922E+04  4.32452E+04 -3.01356E+03  4.81029E+04
 -2.90139E+04  4.25557E+04 -4.66228E+04  2.15121E+04 -5.03352E+04 -2.52808E+03 -4.06750E+04 -2.87513E+04
 -1.57362E+04 -4.28674E+04  1.56084E+04 -3.54175E+04  3.11290E+04 -1.76816E+04  2.75039E+04  9.73512E+03
  7.32106E+03  2.10592E+04 -1.36380E+04  1.52129E+04 -2.29257E+04  3.51882E+03 -1.73162E+04 -1.39931E+04
 -2.20740E+02 -2.03784E+04  1.29144E+04 -1.42263E+04  1.54591E+04 -9.25127E+02  5.13296E+03  1.09743E+04
 -9.78158E+03  5.17261E+03 -1.09681E+04 -8.44726E+03 -2.23966E+03 -2.12135E+04  1.18831E+04 -2.25807E+04
  2.55532E+04 -1.20856E+04  3.10820E+04  3.84486E+03  2.64599E+04  2.18949E+04  1.12104E+04  3.39553E+04
 -6.27159E+03  3.69686E+04 -2.49440E+04  2.13780E+04 -2.60878E+04  5.08538E+03 -1.63922E+04 -8.51572E+03
 -7.73651E+03 -8.85628E+03 -1.81969E+03  9.14032E+02 -1.37096E+03  3.51785E+03 -8.40319E+03  5.33076E+03
 -1.47156E+04 -1.74145E+03 -1.55044E+04 -1.10085E+04 -7.50425E+03 -2.08894E+04  7.75057E+03 -1.90406E+04
  1.52855E+04 -8.48560E+03  1.08878E+04  4.31403E+03 -8.04897E+02  8.01980E+03 -7.90891E+03 -2.05323E+03
 -8.28546E+03 -1.07185E+04  3.30668E+01 -1.73934E+04  1.06919E+04 -1.88079E+04  2.34408E+04 -1.01070E+04
  2.85717E+04  2.14268E+03  1.74596E+04  1.61226E+04  3.05931E+03  2.31226E+04 -1.24297E+04  1.80596E+04
 -1.47934E+04  3.25733E+03 -6.75298E+03 -5.39637E+03  4.57430E+03 -3.62187E+03  9.33054E+03 -1.58086E+03
  7.93578E+03  8.95132E+03  1.85002E+03  1.75804E+04 -1.06819E+04  1.43583E+04 -1.81828E+04  1.95788E+03
 -1.38817E+04 -8.70413E+03 -1.03569E+02 -1.68401E+04  1.06786E+04 -8.37027E+03  9.94203E+03  5.34821E+03
  3.00528E+03  1.30600E+04 -1.18851E+04  1.41190E+04 -1.47779E+04  6.19024E+03 -1.91524E+04 -5.98581E+03
 -1.10799E+04 -2.01520E+04  4.89163E+03 -2.33601E+04  1.95267E+04 -1.27110E+04  2.15327E+04  2.89467E+03
  1.31401E+04  1.61179E+04 -1.87983E+03  1.95049E+04 -1.29842E+04  1.09690E+04 -1.46537E+04 -8.38027E+02
 -1.29538E+04 -1.24469E+04 -2.21667E+03 -1.46949E+04  7.31607E+03 -1.20139E+04  1.06333E+04 -5.46607E+03
  5.01422E+03  2.95844E+03 -1.15201E+03  3.93799E+03 -1.52910E+02 -5.70415E+03  3.57740E+03 -8.89955E+03
  1.64595E+04 -5.89861E+03  1.98325E+04  2.22947E+03  1.98518E+04  1.36055E+04  1.38164E+04  2.68175E+04
 -6.40290E+03  2.90091E+04 -2.39773E+04  2.32036E+04 -3.26565E+04  5.53860E+03 -2.64021E+04 -1.30862E+04
 -1.31203E+04 -2.07682E+04  4.60161E+02 -1.78042E+04  6.63782E+03 -9.48637E+03  4.09414E+03 -7.43976E+03
  4.83418E+03 -3.59418E+03  4.50210E+03 -2.52806E+03  6.77426E+03 -3.70436E+03  1.01828E+04 -2.31462E+03
  1.25054E+04  4.94064E+03  6.14992E+03  1.08198E+04 -2.47225E+02  1.41433E+04 -1.34952E+04  1.09124E+04
 -1.92452E+04 -1.02023E+03 -1.27626E+04 -1.28731E+04 -1.36958E+03 -2.20744E+04  1.05588E+04 -1.97674E+04
  2.14911E+04 -1.21183E+04  2.52931E+04  5.07289E+03  1.72730E+04  1.74110E+04  2.12264E+03  2.12592E+04
 -9.71935E+03  1.78686E+04 -1.38281E+04  6.10311E+03 -8.03175E+03 -1.74836E+03 -5.21067E+03 -2.46782E+03
 -9.74428E+02  1.57448E+02 -1.69727E+03  3.78102E+03 -7.70520E+03  4.66827E+03 -1.25470E+04 -2.50327E+03
 -8.72598E+03 -1.37948E+04 -1.29701E+03 -1.86350E+04  1.00455E+04 -1.76218E+04  1.94629E+04 -4.35117E+03
  1.86398E+04  1.00865E+04  1.01528E+04  1.76685E+04 -4.68132E+03  1.90616E+04 -1.32375E+04  1.24727E+04
 -1.86336E+04  3.05826E+02 -1.44034E+04 -1.27801E+04 -7.09476E+01 -1.81876E+04  9.73764E+03 -1.15708E+04
  1.19397E+04 -3.20352E+03  7.40971E+03  4.10813E+03  3.08115E+03  5.43109E+03  2.39904E+02  1.51517E+03
  3.61583E+03  1.98792E+03  5.17589E+03  1.97607E+03  5.70144E+03  5.62565E+03  5.21325E+03  9.38982E+03
 -2.97090E+03  1.58695E+04 -1.38376E+04  1.48059E+04 -2.20412E+04  5.12043E+03 -2.12524E+04 -8.96207E+03
 -9.27700E+03 -1.98365E+04  3.75037E+03 -2.12689E+04  1.05609E+04 -1.26037E+04  1.87220E+04 -4.53676E+03
  1.24623E+04  8.10099E+03  3.83923E+03  1.15906E+04 -6.12609E+03  6.98879E+03 -7.66015E+03 -1.37788E+03
 -5.53799E+03 -8.78738E+03  5.73616E+03 -8.82097E+03  7.97418E+03 -3.99299E+03  7.73520E+03  2.59839E+03
  4.01543E+03  3.92240E+03  2.91945E+03  4.99361E+03 -2.22149E+03  4.54407E+03  3.59347E+03 -7.54522E+02
  3.39478E+03  1.33323E+03  8.75527E+03  3.98611E+03  2.94741E+03  1.14464E+04 -2.35013E+03  1.60280E+04
 -9.95308E+03  9.44473E+03 -1.50035E+04  4.02520E+03 -1.17623E+04 -5.95754E+03 -5.78796E+03 -7.81217E+03
  7.29667E+02 -6.14421E+03  4.62924E+03 -3.40646E+03  4.94101E+03  5.05043E+03 -9.68978E+02  7.60730E+03
 -8.75918E+03  6.03761E+03 -1.01127E+04 -4.70665E+03 -7.44529E+03 -9.80730E+03  1.47880E+03 -1.16980E+04
  5.63901E+03 -4.67419E+03  8.97071E+03  1.23586E+03  5.58219E+03  4.20220E+03  1.28468E+03  4.30903E+03
 -5.95687E+03  2.09157E+03 -4.17222E+03 -1.87868E+03  1.22117E+03 -9.94534E+03  9.49146E+03 -8.18709E+03
  1.50034E+04  5.29579E+02  1.25039E+04  1.06417E+04  2.71576E+03  1.54949E+04 -5.59438E+03  1.34114E+04
 -1.32583E+04  5.65709E+03 -1.33377E+04 -2.60723E+02 -6.93931E+03 -9.32764E+03  2.08502E+03 -9.71088E+03
  7.25091E+03 -3.27682E+03  7.79754E+03  6.77908E+03  2.53355E+03  7.69972E+03 -1.01556E+03  6.68020E+03
 -3.18251E+03  2.40047E+03 -2.68127E+03  1.81635E+03 -1.12204E+03  2.82938E+02 -1.72110E+03  1.84166E+03
 -2.62924E+03  5.39557E+03 -1.09674E+04  5.56690E+03 -1.51013E+04  7.36636E+02 -1.39260E+04 -1.02702E+04
 -8.51977E+03 -1.88574E+04  4.12623E+03 -2.24415E+04  1.42687E+04 -1.70666E+04  2.14462E+04 -5.41269E+03
  2.01536E+04  3.87065E+03  1.34378E+04  1.51334E+04  2.18986E+03  1.69135E+04 -5.07643E+03  1.06380E+04
 -6.47828E+03  5.36475E+03 -4.19648E+03 -1.52860E+03 -1.00382E+03 -1.22376E+03 -1.14454E+03 -3.41531E+02
 -2.11933E+03 -2.93359E+02 -1.61110E+03  2.31035E+02 -1.12642E+02 -2.80814E+03 -3.93571E+02 -3.25040E+03
  8.18035E+03 -5.53118E+03  9.64923E+03 -1.51489E+03  1.18979E+04  8.22565E+03  3.02851E+03  1.48995E+04
 -8.89272E+03  1.54676E+04 -1.53958E+04  1.07884E+04 -1.95849E+04 -3.49892E+03 -1.42645E+04 -1.05399E+04
 -6.07827E+03 -1.74018E+04  4.54049E+03 -1.49956E+04  1.14026E+04 -7.43798E+03  1.07248E+04 -5.58690E+00
  5.91257E+03  5.87270E+03  1.01008E+02  3.71966E+03 -2.51629E+03  7.56108E+02  8.82604E+01 -1.46756E+03
  5.24661E+03 -3.17886E+03  4.88389E+03 -7.23790E+02  3.67686E+03  5.42686E+03 -1.24859E+02  8.45092E+03
 -7.21675E+03  8.30690E+03 -1.02077E+04  7.17404E+02 -8.91895E+03 -8.52358E+03 -2.47347E+03 -1.22440E+04
  9.83756E+03 -1.07242E+04  1.39669E+04 -3.93221E+03  1.33174E+04  5.28151E+03  8.15179E+03  1.00815E+04
  2.64989E+03  1.18547E+04 -2.65487E+03  8.46081E+03 -7.80612E+03  5.15478E+03 -5.21572E+03  7.35824E+02
 -3.04015E+03  1.11574E+03 -3.31862E+03  1.30699E+03 -5.39870E+03  2.04605E+03 -8.33713E+03 -3.25179E+03
 -8.35118E+03 -6.99319E+03 -3.33229E+03 -1.16032E+04  4.87927E+03 -1.06015E+04  1.02588E+04 -5.68140E+03
  8.98906E+03  9.65010E+02  6.14099E+03  8.25152E+03 -1.99103E+02  9.33247E+03 -7.76090E+03  7.47251E+03
