 $NMID ID='MM_0lb_SNR200_17hz_g60_51.RAW', FMTDAT='(8E13.5)'
 TRAMP=1., VOLUME=1. $END
  3.09426E+05  1.75910E+02  3.36701E+05  2.50009E+05  8.51290E+04  3.38515E+05 -1.32858E+05  2.51026E+05
 -1.89469E+05  8.22461E+04 -1.11366E+05 -3.28617E+04  1.52034E+03 -5.17504E+04  5.33439E+04 -9.75798E+02
  3.55511E+04  5.24984E+04 -1.63236E+04  7.48424E+04 -6.07001E+04  6.32769E+04 -8.46300E+04  3.19566E+04
 -8.07932E+04 -1.14089E+04 -5.69576E+04 -5.05596E+04 -1.52604E+04 -6.97286E+04  2.64708E+04 -4.63408E+04
  4.06609E+04  2.85719E+03  1.61438E+04  4.77957E+04 -3.45434E+04  4.69864E+04 -6.58003E+04 -1.35357E+01
 -5.39065E+04 -5.71046E+04 -5.86568E+03 -7.67287E+04  3.37706E+04 -5.54840E+04  4.78410E+04 -1.72939E+04
  4.23765E+04  1.03421E+04  3.08691E+04  2.51330E+04  1.60229E+04  2.96260E+04 -5.05669E+03  2.71791E+04
 -2.18837E+04  1.26023E+04 -1.82439E+04 -4.72937E+03  5.22115E+03 -7.59684E+03  2.27288E+04  1.29999E+04
  6.89993E+03  3.49551E+04 -3.19319E+04  3.54194E+04 -6.22984E+04  1.91791E+03 -5.68143E+04 -4.25107E+04
 -1.33619E+04 -6.38426E+04  3.98902E+04 -4.54022E+04  5.71122E+04 -2.63028E+03  3.40083E+04  3.21676E+04
 -5.53573E+03  3.53847E+04 -2.91940E+04  1.43929E+04 -3.00750E+04 -5.58182E+03 -1.56180E+04 -1.10597E+04
 -7.34387E+03 -1.36231E+04 -3.12659E+02 -1.77864E+04  7.32236E+03 -2.31447E+04  1.54611E+04 -1.41793E+04
  1.14246E+04  5.37034E+03 -7.24984E+03  1.39777E+04 -2.12148E+04 -5.63759E+03 -8.70554E+03 -3.39106E+04
  2.17703E+04 -4.23243E+04  4.72026E+04 -1.92794E+04  4.45796E+04  1.95725E+04  1.45730E+04  4.43767E+04
 -1.55403E+04  3.31421E+04 -2.44286E+04  1.42724E+03 -1.08957E+04 -2.63381E+04  2.16864E+04 -3.28953E+04
  4.08109E+04 -9.03733E+03  3.44448E+04  2.43947E+04  1.80207E+04  4.63635E+04 -8.24210E+03  4.92367E+04
 -3.05828E+04  3.37293E+04 -4.14427E+04  9.37046E+03 -4.16130E+04 -1.70373E+04 -2.19828E+04 -3.73912E+04
  8.05109E+03 -3.62608E+04  3.12477E+04 -1.31380E+04  2.82061E+04  1.03033E+04  2.95607E+03  1.84496E+04
 -1.36894E+04  7.94932E+03 -1.00763E+04 -7.55591E+03  5.81538E+03 -1.08487E+04  1.83807E+04  6.10990E+03
  1.39586E+04  2.15266E+04 -6.76659E+03  2.59279E+04 -2.24237E+04  1.09219E+04 -2.75179E+04 -5.06104E+03
 -1.91141E+04 -1.71850E+04 -7.54997E+03 -1.97771E+04  3.80550E+03 -1.77230E+04  1.42693E+04 -1.70696E+04
  2.40770E+04 -1.19155E+04  3.05277E+04  1.79590E+03  2.32202E+04  1.84290E+04  4.60425E+03  3.53647E+04
 -1.79449E+04  2.97170E+04 -2.69773E+04  9.67433E+03 -2.09191E+04 -1.10514E+04 -3.65909E+03 -1.39830E+04
  1.54413E+03 -2.55598E+03 -3.42559E+03  6.91713E+03 -1.66604E+04  5.13506E+03 -1.56666E+04 -7.25278E+03
 -9.87505E+03 -1.89714E+04  4.04180E+03 -2.21982E+04  1.48893E+04 -1.53482E+04  1.61145E+04 -1.12404E+03
  1.11536E+04  1.22777E+04 -1.12276E+03  1.85545E+04 -1.28611E+04  9.76348E+03 -1.71620E+04 -3.86412E+03
 -1.22167E+04 -1.53815E+04 -1.15122E+03 -2.22075E+04  1.00156E+04 -1.71144E+04  1.92805E+04 -7.66503E+03
  1.78786E+04  9.00796E+01  1.14385E+04  4.34840E+03  5.76428E+03  1.72002E+03  8.22716E+03 -1.51097E+03
  1.76414E+04  3.42483E+03  1.76337E+04  1.40262E+04  1.17409E+04  2.84362E+04 -3.11727E+03  3.13457E+04
 -1.82669E+04  2.50669E+04 -2.90446E+04  1.18048E+04 -3.15866E+04 -2.53005E+03 -2.49562E+04 -1.77295E+04
 -1.10460E+04 -2.42571E+04  8.27654E+03 -2.45859E+04  1.99554E+04 -1.23415E+04  1.76473E+04  5.38963E+03
  7.08580E+03  1.14706E+04 -8.25752E+03  1.17046E+04 -1.59313E+04  2.92842E+03 -1.10658E+04 -9.21444E+03
 -3.22355E+02 -1.53105E+04  7.11855E+03 -1.00913E+04  7.90393E+03 -1.75802E+03  1.86880E+03  5.68730E+03
 -7.20726E+03  2.00459E+03 -5.32695E+03 -5.48568E+03  6.84113E+02 -1.15636E+04  8.36601E+03 -1.25029E+04
  1.56423E+04 -6.50728E+03  1.50024E+04  2.33704E+03  1.31586E+04  1.27884E+04  7.33934E+03  1.67932E+04
 -2.07270E+03  1.86355E+04 -1.28299E+04  1.30173E+04 -1.36615E+04  2.63845E+03 -8.88265E+03 -2.57310E+03
 -4.74083E+03 -4.28245E+03 -1.22528E+03  5.75207E+02 -1.34169E+03  2.42846E+03 -4.90158E+03  3.80138E+03
 -9.95869E+03 -4.47313E+02 -1.04547E+04 -8.52872E+03 -4.37640E+03 -1.30579E+04  4.14963E+03 -9.53728E+03
  8.67880E+03 -4.33913E+03  5.28301E+03  3.02258E+03  1.52202E+02  4.68888E+03 -3.87673E+03  6.44372E+02
 -3.76486E+03 -6.27229E+03 -1.72064E+03 -9.09067E+03  5.43710E+03 -9.75500E+03  1.23380E+04 -4.94018E+03
  1.38947E+04  6.04972E+02  1.08822E+04  9.09371E+03  7.08628E+02  1.00812E+04 -6.43050E+03  9.81730E+03
 -7.66257E+03  2.70548E+03 -4.38516E+03 -2.28260E+03  5.54783E+02 -2.16145E+03  5.70740E+03 -7.00092E+02
  6.18661E+03  4.59712E+03  1.33921E+03  7.87092E+03 -5.45385E+03  7.91366E+03 -1.04661E+04  1.19701E+03
 -5.82458E+03 -3.70614E+03  8.83945E+02 -7.07283E+03  6.99169E+03 -4.41756E+03  4.35181E+03  2.00184E+03
  8.42724E+02  3.58700E+03 -5.87928E+03  6.59634E+03 -6.19355E+03  2.58323E+03 -5.89013E+03 -2.36000E+03
 -3.56464E+03 -7.76608E+03  3.24161E+03 -1.00468E+04  8.22167E+03 -5.70304E+03  9.74767E+03  2.44659E+03
  6.54438E+03  6.75184E+03 -4.83408E+01  1.00276E+04 -6.15363E+03  4.52404E+03 -7.11797E+03  4.80393E+02
 -6.56029E+03 -5.55788E+03 -2.15737E+03 -6.46662E+03  3.80559E+03 -5.25188E+03  3.41273E+03 -3.63067E+03
  3.31093E+03  2.00586E+02 -1.98402E+01  1.05824E+03  1.46771E+02 -7.39357E+02  7.06923E+02 -3.39219E+03
  5.56382E+03 -7.72600E+02  7.08886E+03  4.65346E+02  6.97304E+03  4.10323E+03  6.22812E+03  8.60371E+03
 -1.18172E+03  1.01400E+04 -9.32792E+03  8.11071E+03 -1.27786E+04  1.29057E+03 -1.00775E+04 -3.08663E+03
 -4.43421E+03 -8.00245E+03 -2.27282E+02 -5.65518E+03  2.55494E+03 -1.78302E+03  1.68664E+03 -2.28210E+03
  1.94062E+03 -1.13313E+03  2.39938E+03 -3.03668E+03  2.94569E+03 -2.06475E+03  4.48926E+03 -5.82861E+02
  5.32677E+03  1.09522E+03  2.24288E+03  4.81245E+03 -2.87526E+03  4.68083E+03 -5.27633E+03  4.38200E+03
 -7.08511E+03 -1.11397E+03 -3.14953E+03 -4.44847E+03  9.36535E+02 -7.29521E+03  4.44621E+03 -6.01050E+03
  6.65801E+03 -3.42630E+03  8.40209E+03  7.18821E+02  6.88674E+03  5.96950E+03  1.37398E+03  8.37562E+03
 -2.89109E+03  6.59586E+03 -3.21226E+03  2.76714E+03 -3.82492E+03 -1.09676E+03 -2.39747E+03 -1.39156E+03
 -1.47139E+03  2.61955E+02 -1.88524E+03  1.39194E+03 -3.95317E+03  4.07815E+02 -5.34478E+03 -1.75233E+02
 -2.76770E+03 -5.00885E+03  7.12066E+02 -4.81533E+03  3.40459E+03 -5.99767E+03  4.21252E+03 -2.22517E+03
  5.98026E+03  3.15636E+03  2.94070E+03  5.25002E+03 -1.29735E+03  5.81554E+03 -2.46003E+03  3.24822E+03
 -5.57122E+03 -2.32494E+02 -5.31777E+03 -3.21175E+03  5.20480E+02 -4.92057E+03  2.47574E+03 -3.33013E+03
  3.46957E+03 -2.93577E+03  5.10125E+02  9.88065E+02 -4.02394E+02  2.85892E+03  4.73059E+02 -6.69325E+02
  1.84060E+03  9.17403E+02  2.61749E+03  1.07798E+03  2.69418E+03  2.33799E+03  1.93949E+03  2.66444E+03
 -1.53625E+03  2.62346E+03 -3.63725E+03  5.63260E+03 -4.27785E+03  1.15624E+02 -5.71852E+03 -4.70324E+02
 -2.36775E+03 -3.97058E+03  1.05215E+03 -6.09451E+03  2.34488E+03 -3.94946E+03  3.80854E+03 -1.43591E+03
  2.80965E+03  3.37497E+03  5.65298E+02  2.01985E+03 -5.82719E+02  1.21749E+03 -1.76835E+03 -1.29533E+02
 -1.26826E+03 -1.84785E+03  9.80206E+02 -1.72014E+03  1.49793E+03 -1.70580E+03  1.51114E+03  8.68050E+02
  8.28417E+02 -1.82451E+02  1.96481E+03  1.36981E+02 -3.25465E+01  9.80089E+02  1.24109E+03 -6.91467E+02
  3.67042E+02  8.46407E+01  2.13847E+03  1.55360E+03 -1.63206E+02  3.64236E+03  3.38720E+02  3.95328E+03
 -2.62247E+03  1.93464E+03 -3.48669E+03  8.03825E+02 -1.71634E+03 -7.09365E+02 -1.14748E+03 -1.14046E+03
 -8.69770E+02 -2.45602E+03  7.83422E+02 -1.13135E+03  2.07021E+03  2.27640E+03  8.08936E+02  1.38456E+03
 -2.45535E+03 -4.66062E+01 -1.20265E+03 -2.06179E+03 -9.68370E+02 -2.24448E+03  4.52801E+02 -2.05544E+03
  8.06164E+02 -7.20218E+02  7.74995E+02  1.88403E+02  2.00887E+03 -1.04605E+03  9.43554E+02  1.77007E+03
 -1.72082E+03  2.95005E+02 -1.69595E+03 -3.41646E+01  5.54627E+02 -2.20074E+03  1.75677E+03 -8.60555E+02
  1.78564E+03 -4.43814E+02  2.68534E+03  1.65157E+03  5.55595E+02  2.79300E+03  5.29612E+02  1.27783E+03
 -2.64656E+03  6.96707E+02 -3.09803E+03  2.88295E+02 -1.35267E+03 -1.72864E+03  4.23108E+02 -8.63988E+02
  5.92341E+02 -1.53192E+02  1.61619E+03  4.97548E+02  6.46917E+02  3.23356E+03 -7.19638E+02  1.26920E+03
 -5.51531E+02  5.83035E+02 -6.74407E+02  7.90692E+02  1.96745E+02  8.32419E+02 -9.80345E+02  2.23228E+02
 -1.30279E+02  1.40429E+03 -1.51188E+03  7.53706E+02 -2.50367E+03 -2.28309E+02 -3.43573E+03 -1.13270E+03
 -1.37268E+03 -2.47063E+03  7.23690E+02 -3.83635E+03  9.34558E+02 -3.96126E+03  2.67520E+03 -1.36488E+03
  2.24087E+03 -4.20434E+02  1.01250E+03  2.54463E+03 -5.49888E+02  1.73610E+03 -1.71488E+03  1.32999E+03
 -2.17875E+03  2.14249E+03 -4.48961E+02 -8.41290E+02 -4.08664E+02  1.61478E+03 -6.05389E+02  4.40942E+02
 -1.33023E+03 -1.00057E+03 -1.94801E+03  1.01896E+02 -3.84437E+02 -1.23176E+03  1.21202E+02 -8.13893E+02
  1.57042E+03 -1.00394E+03  1.38677E+03  3.64771E+02  1.52618E+03  2.68783E+03 -3.62474E+02  7.56211E+02
 -1.95043E+03  3.11054E+03 -2.56210E+03  1.78577E+03 -2.75865E+03  2.86676E+02 -6.64406E+02 -1.72984E+03
 -1.30045E+03 -2.37275E+03  8.28052E+02 -1.81567E+03  7.93305E+02  1.35752E+02  1.03416E+03 -2.22141E+02
  8.52197E+02  5.57768E+02 -4.46063E+02  6.81646E+02  9.49577E+02 -3.72280E+02 -1.51506E+02 -1.52630E+03
  1.55717E+03 -8.33954E+02  7.43269E+02  6.10384E+02  2.72114E+01  9.51686E+02  3.83177E+02  2.02023E+03
 -1.03627E+03  1.78598E+03 -1.00936E+03  6.87163E+02  4.36112E+02 -1.21433E+03  1.00384E+03 -1.65570E+03
  7.35079E+02 -1.03719E+03  5.63598E+02 -2.97591E+02  4.12268E+02 -6.22609E+02  1.11679E+03  1.09685E+03
  4.03922E+01 -3.16737E+02 -1.14176E+03  1.03898E+03 -1.26309E+03 -5.54481E+02  2.78108E+02 -5.31705E+02
  4.22453E+02 -3.35320E+02 -1.57536E+03 -1.74988E+02 -1.04985E+03 -5.80386E+02 -1.30364E+03 -7.73814E+02
 -8.06126E+02  2.05322E+02  2.09714E+02 -1.60026E+03  7.88597E+02 -2.16455E+03  2.41759E+03 -5.30284E+02
  1.12361E+03  1.02058E+02 -1.06665E+03 -1.06425E+02  3.59910E+02  9.27152E+02 -1.42086E+03  1.54491E+02
