 $NMID ID='MM_0lb_SNR200_11hz_g60_91.RAW', FMTDAT='(8E13.5)'
 TRAMP=1., VOLUME=1. $END
  3.11045E+05  6.78084E+02  3.36905E+05  2.50452E+05  8.49670E+04  3.40360E+05 -1.32926E+05  2.51433E+05
 -1.91532E+05  8.49771E+04 -1.12487E+05 -3.17722E+04  4.38134E+02 -5.08505E+04  5.36627E+04 -6.63193E+02
  3.57793E+04  5.36194E+04 -1.68666E+04  7.55501E+04 -6.15756E+04  6.32852E+04 -8.54452E+04  3.15290E+04
 -8.10142E+04 -1.11404E+04 -5.83340E+04 -5.34572E+04 -1.54712E+04 -7.05805E+04  2.91476E+04 -4.69036E+04
  4.13463E+04  3.81243E+03  1.58280E+04  5.00012E+04 -3.53891E+04  4.89581E+04 -6.89057E+04  2.10730E+02
 -5.45021E+04 -5.75772E+04 -6.86334E+03 -7.91264E+04  3.54460E+04 -5.71330E+04  5.06600E+04 -1.79987E+04
  4.52336E+04  1.03266E+04  3.24913E+04  2.73752E+04  1.64141E+04  3.09255E+04 -5.83965E+03  2.81690E+04
 -2.22696E+04  1.40547E+04 -1.65021E+04 -5.60415E+03  7.65098E+03 -8.17319E+03  2.29542E+04  1.40510E+04
  6.91285E+03  3.69036E+04 -3.34220E+04  3.71970E+04 -6.47711E+04  1.66906E+03 -5.87922E+04 -4.42702E+04
 -1.22748E+04 -6.43522E+04  4.12719E+04 -4.70955E+04  6.11208E+04 -3.05429E+03  3.62669E+04  3.29750E+04
 -4.30649E+03  4.03072E+04 -2.97587E+04  1.79203E+04 -3.30341E+04 -4.31618E+03 -1.91253E+04 -1.12960E+04
 -8.74268E+03 -1.32885E+04  2.74046E+02 -2.13944E+04  8.62171E+03 -2.35048E+04  1.51808E+04 -1.23734E+04
  1.31818E+04  5.87261E+03 -9.81627E+03  1.44294E+04 -2.05462E+04 -6.25046E+03 -7.78612E+03 -3.66157E+04
  2.44896E+04 -4.50213E+04  5.11821E+04 -2.05665E+04  4.80990E+04  2.11981E+04  1.75437E+04  4.69995E+04
 -1.58335E+04  3.51116E+04 -2.69977E+04  2.89576E+03 -1.14920E+04 -2.96990E+04  2.22961E+04 -3.71933E+04
  4.32197E+04 -1.03518E+04  4.00248E+04  2.49745E+04  2.03067E+04  4.72228E+04 -8.00217E+03  5.46040E+04
 -3.50213E+04  3.78124E+04 -4.61503E+04  1.01897E+04 -4.75895E+04 -1.83646E+04 -2.57345E+04 -4.21511E+04
  6.72014E+03 -3.97882E+04  3.37739E+04 -1.62418E+04  3.27877E+04  1.08565E+04  5.69866E+03  2.03558E+04
 -1.43467E+04  9.62488E+03 -1.05410E+04 -6.22263E+03  4.50459E+03 -1.07412E+04  1.75895E+04  5.05722E+03
  1.53106E+04  2.21983E+04 -5.58183E+03  2.59179E+04 -2.43870E+04  1.28004E+04 -3.17292E+04 -3.69165E+03
 -2.35969E+04 -1.83814E+04 -1.01701E+04 -2.30763E+04  5.06508E+03 -2.48910E+04  1.90185E+04 -2.09791E+04
  3.21090E+04 -1.39060E+04  3.63923E+04  4.55171E+03  2.65955E+04  2.46109E+04  3.91744E+03  4.10442E+04
 -1.98440E+04  3.45859E+04 -2.96313E+04  1.22967E+04 -2.22475E+04 -1.10346E+04 -5.90853E+03 -1.38362E+04
  1.80514E+03 -1.62733E+03 -7.28767E+03  8.82703E+03 -2.01681E+04  4.47985E+03 -2.03703E+04 -1.09104E+04
 -1.00551E+04 -2.27986E+04  5.38804E+03 -2.71725E+04  1.85010E+04 -1.93341E+04  2.23047E+04 -1.54012E+03
  1.53168E+04  1.54892E+04 -1.26368E+03  2.30900E+04 -1.59727E+04  1.24407E+04 -2.42119E+04 -4.35753E+03
 -1.69826E+04 -2.08387E+04 -2.02287E+03 -2.51920E+04  1.33460E+04 -2.10699E+04  2.30228E+04 -1.19099E+04
  2.15439E+04 -9.50633E+01  1.59225E+04  4.67163E+03  8.09955E+03  1.16900E+03  1.04181E+04 -1.93617E+03
  2.09143E+04  1.61136E+03  2.42552E+04  1.84917E+04  1.65373E+04  3.57112E+04 -3.28728E+03  4.29362E+04
 -2.39982E+04  3.48899E+04 -3.88964E+04  1.89565E+04 -4.13563E+04 -3.59352E+03 -3.35585E+04 -2.48057E+04
 -1.51583E+04 -3.48207E+04  1.22828E+04 -3.05211E+04  2.67406E+04 -1.53855E+04  2.42031E+04  8.19004E+03
  9.25507E+03  1.86363E+04 -1.15905E+04  1.48790E+04 -2.04156E+04  2.84988E+03 -1.47141E+04 -1.32770E+04
  4.55464E+02 -1.84956E+04  1.13376E+04 -1.40098E+04  1.27515E+04 -8.12814E+02  3.63423E+03  8.92153E+03
 -7.06640E+03  4.47333E+03 -8.20561E+03 -6.71478E+03 -1.72603E+03 -1.80551E+04  1.12588E+04 -1.86047E+04
  2.23268E+04 -9.29711E+03  2.38894E+04  3.69047E+03  2.05222E+04  1.60100E+04  1.10515E+04  2.56743E+04
 -5.61482E+03  2.96681E+04 -1.93579E+04  1.72383E+04 -2.17726E+04  5.05869E+03 -1.43878E+04 -6.58135E+03
 -7.90209E+03 -7.79511E+03 -9.35162E+02  8.63250E+02 -3.27397E+03  2.45169E+03 -6.84837E+03  3.68605E+03
 -1.25039E+04 -5.58957E+02 -1.49810E+04 -1.09165E+04 -4.62224E+03 -1.87052E+04  6.33576E+03 -1.46495E+04
  1.26859E+04 -5.55354E+03  7.78369E+03  4.38092E+03 -1.96864E+02  5.77657E+03 -7.13190E+03 -8.24888E+02
 -8.47241E+03 -8.52826E+03 -6.39704E+02 -1.52400E+04  8.63011E+03 -1.63049E+04  1.79512E+04 -8.21928E+03
  2.24851E+04  1.86673E+03  1.51998E+04  1.35053E+04  2.57082E+03  1.79444E+04 -7.13379E+03  1.48459E+04
 -1.23425E+04  4.96702E+03 -6.74352E+03 -3.22447E+03  1.80146E+03 -4.32457E+03  7.46485E+03 -5.20964E+02
  7.97693E+03  7.47211E+03  8.78292E+02  1.15856E+04 -6.45828E+03  1.02814E+04 -1.40982E+04  2.57934E+03
 -9.93919E+03 -6.07649E+03  5.28731E+02 -1.14585E+04  9.75452E+03 -6.89686E+03  9.04519E+03  4.77222E+03
  2.72103E+03  8.91629E+03 -8.48082E+03  1.08181E+04 -1.24979E+04  5.31573E+03 -1.28059E+04 -4.10559E+03
 -8.12608E+03 -1.58202E+04  3.30509E+03 -1.59233E+04  1.40297E+04 -9.42209E+03  1.66985E+04  2.92203E+03
  7.40850E+03  1.10812E+04 -1.06680E+02  1.33149E+04 -1.11509E+04  8.24054E+03 -1.23855E+04 -2.79933E+03
 -9.76685E+03 -9.56347E+03 -1.81938E+03 -1.03345E+04  5.59910E+03 -8.85205E+03  7.25858E+03 -3.95014E+03
  4.38782E+03  3.16548E+03 -1.82527E+03  1.90287E+03 -6.23097E+02 -2.74268E+03  1.40487E+03 -6.65831E+03
  1.09792E+04 -5.04670E+03  1.42280E+04  1.31426E+03  1.44000E+04  8.88009E+03  9.53930E+03  1.76647E+04
 -4.68755E+03  2.26311E+04 -1.73190E+04  1.75586E+04 -2.32080E+04  1.74071E+03 -1.91955E+04 -7.56696E+03
 -9.07368E+03 -1.41786E+04 -2.05258E+03 -1.44115E+04  4.83771E+03 -7.04322E+03  4.37614E+03 -4.50735E+03
  4.29148E+03 -1.14054E+03  2.68548E+03 -4.10879E+03  6.71723E+03 -3.10123E+03  7.24860E+03 -9.00296E+02
  8.37559E+03  3.04049E+03  5.61890E+03  6.31155E+03 -3.34017E+03  1.16231E+04 -1.11696E+04  7.01054E+03
 -1.42501E+04 -8.13430E+02 -8.09896E+03 -9.09304E+03 -1.04533E+03 -1.36152E+04  7.12986E+03 -1.37073E+04
  1.24559E+04 -7.15728E+03  1.87357E+04  2.98086E+03  1.18633E+04  1.06219E+04  2.01280E+03  1.56827E+04
 -7.74275E+03  1.31147E+04 -7.64820E+03  4.12527E+03 -5.44345E+03 -3.11800E+03 -2.76853E+03 -1.94260E+03
 -9.55759E+02 -7.59768E+02 -1.43134E+03  3.66613E+03 -6.18571E+03  2.08905E+03 -8.70126E+03 -9.67037E+02
 -5.90262E+03 -1.02845E+04 -3.31642E+02 -1.33318E+04  6.23419E+03 -1.19210E+04  1.11128E+04 -3.14655E+03
  1.25986E+04  6.39546E+03  6.60374E+03  1.21106E+04 -3.43752E+03  1.29183E+04 -8.31168E+03  8.46137E+03
 -1.12034E+04 -3.30779E+02 -8.79497E+03 -6.55750E+03 -8.53106E+02 -9.96643E+03  5.58451E+03 -6.21365E+03
  7.64874E+03 -2.97517E+03  5.60527E+03  1.75887E+03  3.35459E+03  4.07408E+03  6.99933E+02  2.24120E+03
  2.35721E+03  2.35488E+03  4.34468E+03  2.33389E+03  5.44959E+03  4.80942E+03  3.00366E+03  6.45566E+03
 -3.55466E+03  1.06458E+04 -8.60101E+03  1.03175E+04 -1.30390E+04  1.87466E+03 -1.32032E+04 -7.01890E+03
 -7.88830E+03 -1.36017E+04  2.71147E+03 -1.43068E+04  8.39044E+03 -7.92896E+03  1.14293E+04 -2.24858E+03
  8.15453E+03  5.57099E+03  3.31750E+03  7.56116E+03 -3.13637E+03  5.40701E+03 -5.30891E+03 -4.63199E+02
 -3.56648E+03 -7.13469E+03  2.66638E+03 -4.95222E+03  5.13714E+03 -2.67643E+03  4.35080E+03  1.73973E+03
  1.11686E+03  4.74849E+02  2.14595E+03  2.17031E+03 -1.51463E+03  2.25287E+03  7.23042E+02 -1.04212E+03
  2.25308E+03 -3.66962E+02  5.35430E+03  1.72373E+03  2.62445E+03  6.32099E+03 -9.88022E+01  1.01885E+04
 -5.80227E+03  4.76836E+03 -8.65603E+03  1.21803E+03 -6.41929E+03 -2.45032E+03 -1.48346E+03 -4.03672E+03
  9.09368E+01 -3.36684E+03  3.50339E+03 -1.71666E+03  3.00144E+03  1.28185E+03 -6.44825E+02  5.40500E+03
 -4.46406E+03  2.54757E+03 -5.51008E+03 -3.14586E+03 -3.23149E+03 -7.20723E+03  5.79380E+02 -6.97614E+03
  5.31362E+03 -3.21344E+03  4.26673E+03 -1.45631E+03  3.00326E+03  8.73160E+02  7.13108E+02  5.95653E+03
 -3.93876E+03  2.68795E+03 -2.57369E+03 -1.74423E+03  1.44345E+03 -4.25401E+03  5.59323E+03 -3.54654E+03
  8.19219E+03  8.78612E+01  7.16013E+03  4.82025E+03  1.87276E+03  7.58468E+03 -2.44996E+03  6.89569E+03
 -5.76775E+03  3.03033E+03 -6.02107E+03 -2.15821E+03 -2.71483E+03 -4.10510E+03  1.89944E+03 -4.20959E+03
  3.93005E+03 -2.37193E+03  3.94016E+03  2.88164E+03  1.17708E+03  5.95983E+03  4.13141E+02  3.12185E+03
 -2.04166E+03  2.66022E+03 -3.09820E+03  8.87769E+02  4.89004E+02  5.38356E+02 -2.67715E+03  2.28033E+03
 -5.44743E+02  3.01366E+03 -6.09753E+03  3.50829E+03 -7.32047E+03  9.14378E+02 -1.09176E+04 -4.87224E+03
 -4.52044E+03 -9.26368E+03  2.64462E+03 -1.12619E+04  7.01461E+03 -9.25228E+03  1.02230E+04 -2.96713E+03
  9.85483E+03  2.34867E+03  6.98959E+03  7.11202E+03 -3.84571E+01  8.02683E+03 -3.90766E+03  5.99362E+03
 -5.53397E+03  2.45810E+03 -2.99430E+03 -1.61598E+03 -1.26997E+03 -7.37989E+02 -1.28012E+03  1.20873E+02
 -3.34275E+03 -7.55536E+02 -1.96387E+03  4.57260E+02 -6.74099E+02 -2.85587E+03  1.06304E+03 -3.53582E+03
  3.45007E+03 -1.83476E+03  3.40953E+03  3.65136E+02  6.27048E+03  5.44529E+03  5.34011E+02  9.19815E+03
 -3.86855E+03  9.32498E+03 -9.16299E+03  5.22466E+03 -8.68639E+03 -2.47224E+02 -6.48560E+03 -5.29341E+03
 -2.07124E+03 -8.32042E+03  2.63556E+03 -7.07343E+03  4.61755E+03 -3.81792E+03  4.38217E+03 -4.27330E+01
  4.11160E+03  1.60652E+03  6.03990E+02  2.25933E+03 -1.60022E+03 -6.05488E+01 -2.08289E+03 -8.57720E+02
  1.95105E+03 -1.26440E+03  1.24749E+03  1.83947E+03  2.83756E+03  9.69953E+02  7.30288E+02  4.87747E+03
 -1.77911E+03  3.80261E+03 -4.82908E+03  1.79338E+03 -3.38912E+03 -4.00563E+03 -1.72421E+03 -6.23216E+03
  3.85838E+03 -4.88448E+03  5.88266E+03 -3.41639E+03  5.37719E+03  7.57643E+00  3.68301E+03  4.80724E+03
  2.00383E+02  4.49260E+03 -2.27671E+03  4.97261E+03 -1.36016E+03  1.76722E+03 -1.51002E+03  2.78258E+02
 -1.13804E+03 -1.02970E+03 -1.29949E+03  9.39601E+02 -1.72482E+03  1.62440E+03 -4.82056E+03 -1.89240E+02
 -3.28671E+03 -2.72485E+03 -1.00232E+03 -5.61481E+03  2.75264E+03 -4.99863E+03  3.06073E+03 -2.88308E+03
  4.81284E+03  9.63052E+02  3.26284E+03  4.52125E+03 -9.52237E+02  3.37287E+03 -3.58265E+03  3.14278E+03
