 $NMID ID='MM_0lb_SNR200_20hz_g55_34.RAW', FMTDAT='(8E13.5)'
 TRAMP=1., VOLUME=1. $END
  3.10131E+05  5.60507E+02  3.36488E+05  2.50490E+05  8.47182E+04  3.37096E+05 -1.32598E+05  2.50224E+05
 -1.89084E+05  8.22175E+04 -1.11509E+05 -3.20883E+04  7.82842E+02 -5.01468E+04  5.43012E+04  4.78510E+02
  3.58374E+04  5.31987E+04 -1.65107E+04  7.40925E+04 -6.10325E+04  6.31642E+04 -8.26014E+04  3.17644E+04
 -8.01595E+04 -1.20477E+04 -5.70530E+04 -5.03767E+04 -1.56673E+04 -6.74683E+04  2.72207E+04 -4.61849E+04
  3.84310E+04  4.06646E+03  1.50868E+04  4.73237E+04 -3.42250E+04  4.69403E+04 -6.53981E+04 -3.82201E+01
 -5.33757E+04 -5.70210E+04 -6.79642E+03 -7.49760E+04  3.27985E+04 -5.40914E+04  4.61529E+04 -1.61989E+04
  4.21820E+04  1.04552E+04  3.15847E+04  2.39290E+04  1.55887E+04  2.79995E+04 -4.41496E+03  2.66306E+04
 -2.17163E+04  1.34224E+04 -1.97932E+04 -4.70811E+03  5.30756E+03 -7.14344E+03  2.10914E+04  1.09957E+04
  6.96517E+03  3.39921E+04 -3.09664E+04  3.39762E+04 -6.22478E+04  3.04194E+03 -5.56514E+04 -4.19617E+04
 -1.30680E+04 -6.15113E+04  3.84280E+04 -4.31036E+04  5.55101E+04 -9.64625E+02  3.25607E+04  3.02293E+04
 -6.71561E+03  3.34961E+04 -2.78432E+04  1.28531E+04 -2.67974E+04 -5.72513E+03 -1.41240E+04 -9.62166E+03
 -7.62215E+03 -1.23829E+04 -3.64121E+01 -1.59809E+04  5.08245E+03 -2.38460E+04  1.46160E+04 -1.39522E+04
  1.29908E+04  4.33351E+03 -5.73826E+03  1.27495E+04 -1.95145E+04 -2.91627E+03 -8.48390E+03 -2.94504E+04
  2.08058E+04 -4.07926E+04  4.53111E+04 -1.90354E+04  4.23377E+04  1.75969E+04  1.39826E+04  4.22402E+04
 -1.54552E+04  3.16992E+04 -2.41169E+04  5.65567E+02 -8.23120E+03 -2.65572E+04  2.02920E+04 -3.14593E+04
  3.75473E+04 -7.73167E+03  3.11926E+04  2.26979E+04  1.59340E+04  4.37435E+04 -8.11283E+03  4.62598E+04
 -2.81739E+04  3.01212E+04 -3.81821E+04  7.65088E+03 -3.78465E+04 -1.41576E+04 -2.12092E+04 -3.47155E+04
  7.46952E+03 -3.46177E+04  3.00679E+04 -1.22034E+04  2.74833E+04  1.08508E+04  2.09117E+03  1.81929E+04
 -1.27065E+04  8.12464E+03 -8.80557E+03 -7.50564E+03  5.70422E+03 -1.07276E+04  1.84433E+04  8.05844E+03
  1.34337E+04  2.05695E+04 -6.31063E+03  2.46214E+04 -2.01780E+04  8.78691E+03 -2.50400E+04 -6.83643E+03
 -1.66165E+04 -1.64340E+04 -5.08329E+03 -1.78405E+04  3.00572E+03 -1.58432E+04  1.18627E+04 -1.36169E+04
  2.07644E+04 -1.16367E+04  2.80982E+04  3.68465E+02  2.20135E+04  1.71866E+04  2.83134E+03  3.19843E+04
 -1.54080E+04  2.80297E+04 -2.57019E+04  8.95208E+03 -1.98664E+04 -1.05858E+04 -3.07467E+03 -1.41921E+04
  2.56398E+03 -3.29542E+03 -2.89572E+03  4.70585E+03 -1.25287E+04  5.19616E+03 -1.29425E+04 -4.62999E+03
 -9.32438E+03 -1.53539E+04  4.30685E+03 -1.96517E+04  1.22496E+04 -1.38305E+04  1.42489E+04 -1.34985E+03
  8.68298E+03  1.12863E+04 -1.18413E+03  1.54506E+04 -1.00611E+04  7.54336E+03 -1.54129E+04 -3.09719E+03
 -1.13047E+04 -1.35547E+04 -1.42057E+03 -1.81376E+04  9.48969E+03 -1.54240E+04  1.59461E+04 -6.09296E+03
  1.47394E+04  9.00167E+02  1.00732E+04  5.50150E+03  4.59468E+03  3.22560E+02  7.78691E+03 -6.50311E+02
  1.32612E+04  3.28066E+03  1.45990E+04  1.23371E+04  9.06028E+03  2.39901E+04 -2.75974E+03  2.65573E+04
 -1.55401E+04  1.92821E+04 -2.38969E+04  8.86754E+03 -2.42141E+04 -2.16258E+03 -2.07287E+04 -1.43510E+04
 -1.05117E+04 -1.90430E+04  6.32760E+03 -1.97230E+04  1.68446E+04 -1.06325E+04  1.49204E+04  3.87072E+03
  6.74136E+03  1.05322E+04 -6.55320E+03  1.11340E+04 -1.35704E+04  3.22006E+03 -1.01497E+04 -7.62064E+03
  8.27914E+02 -1.30287E+04  5.70411E+03 -9.52720E+03  8.41162E+03 -2.56304E+03  9.56147E+02  5.07604E+03
 -5.38409E+03  1.74442E+03 -3.32413E+03 -4.63531E+03  4.34612E+02 -9.11227E+03  8.14490E+03 -9.76974E+03
  1.18883E+04 -4.30186E+03  1.14773E+04  3.29505E+03  1.03504E+04  8.48047E+03  4.28917E+03  1.36901E+04
 -7.63072E+02  1.53879E+04 -8.64573E+03  9.68312E+03 -9.77183E+03  3.81817E+03 -8.28207E+03 -2.02683E+03
 -3.46692E+03 -4.03546E+03 -2.78984E+02  2.77058E+03 -2.39843E+03  1.37312E+03 -3.81652E+03  4.11900E+03
 -8.58372E+03 -5.86717E+02 -8.57329E+03 -6.68566E+03 -3.57300E+03 -1.10477E+04  3.96766E+03 -8.51644E+03
  6.24838E+03 -3.63662E+03  5.82164E+03  2.01412E+03  1.04805E+03  2.68811E+03 -2.32022E+03 -1.07044E+03
 -3.58902E+03 -4.55850E+03 -5.24846E+02 -6.34130E+03  2.47334E+03 -7.38966E+03  8.91714E+03 -2.90955E+03
  1.05696E+04  8.18738E+02  7.34794E+03  5.53245E+03  1.52952E+03  7.71169E+03 -5.62835E+03  8.07555E+03
 -6.22203E+03  2.81387E+03 -3.53157E+03 -1.02275E+03  1.29561E+03 -1.91401E+03  4.61493E+03 -7.96895E+02
  4.97571E+03  2.92330E+03  9.51646E+02  6.24686E+03 -4.00303E+03  5.68491E+03 -8.79903E+03  1.90301E+03
 -4.08233E+03 -3.83285E+03  1.60957E+03 -6.22738E+03  4.60626E+03 -4.34797E+03  3.46102E+03  1.39089E+02
  4.07159E+02  2.09789E+03 -4.10713E+03  3.58895E+03 -4.42907E+03  2.28695E+03 -4.45102E+03 -1.06972E+03
 -1.29885E+03 -5.70825E+03 -2.72301E+02 -5.88815E+03  4.84471E+03 -3.90385E+03  5.68129E+03  6.55376E+02
  4.46245E+03  3.40826E+03 -5.28315E+02  6.52695E+03 -4.97185E+03  3.67785E+03 -4.61485E+03 -1.47853E+03
 -5.31253E+03 -5.11750E+03 -1.56546E+03 -4.12656E+03  2.65664E+03 -4.38192E+03  3.16173E+03 -2.91268E+03
  2.50996E+03  3.26502E+01  1.99636E+02  1.93067E+03  1.41594E+03  5.07221E+02 -4.56167E+02 -2.98860E+03
  3.24612E+03 -6.07162E+02  4.49039E+03  4.55338E+02  4.45940E+03  2.23808E+03  5.01033E+03  7.58748E+03
  2.20310E+01  7.24888E+03 -6.11158E+03  5.65591E+03 -9.43020E+03  6.53916E+02 -6.13583E+03 -2.63979E+03
 -3.53079E+03 -5.65102E+03  5.23079E+02 -4.35582E+03  3.94385E+02 -1.55608E+03  2.30500E+03 -1.42342E+03
  1.17919E+03 -1.87570E+03  2.44131E+03 -2.34689E+03  2.49318E+03 -6.79418E+02  3.40649E+03  2.40184E+01
  4.36300E+03  1.27356E+03  2.44336E+02  3.73258E+03 -2.25870E+03  2.26199E+03 -4.43406E+03  3.57325E+03
 -4.64366E+03 -2.31900E+02 -1.14187E+03 -2.52710E+03  3.09952E+02 -3.56819E+03  2.36934E+03 -4.58459E+03
  4.17768E+03 -3.31400E+03  5.60915E+03 -7.50973E+01  4.93996E+03  3.98214E+03  5.59637E+02  4.86783E+03
 -2.01204E+03  5.41173E+03 -3.32187E+03  1.52660E+03 -8.67228E+02 -5.44685E+02  6.75621E+02 -4.24023E+02
 -3.13422E+02 -9.29017E+02 -3.46192E+02  2.69997E+03 -2.09803E+03  1.67020E+03 -3.92584E+03 -6.06896E+02
 -1.03606E+03 -3.54513E+03  1.03897E+03 -3.92599E+03  2.81692E+03 -2.91714E+03  3.48661E+03 -1.39502E+03
  3.95393E+03  1.68510E+03  2.01916E+03  3.03200E+03 -2.96151E+02  3.44349E+03 -2.13409E+03  2.28621E+03
 -3.83149E+03  1.81440E+02 -3.95445E+03 -3.01678E+03 -3.35629E+01 -3.26041E+03  1.71627E+03 -2.35646E+03
  1.51136E+03 -1.99041E+03  1.24328E+03  1.34053E+03  9.80638E+02  2.00900E+03  5.39446E+02 -6.60959E+02
  5.74474E+02 -7.13282E+01 -3.19987E+02  1.38329E+03  9.65507E+00  1.77736E+03  1.09252E+03  1.51507E+03
 -6.83911E+02  2.18708E+03 -2.18395E+03  3.77104E+03 -2.56449E+03  7.59064E+02 -2.22062E+03 -3.00455E+02
 -6.89822E+02 -3.44715E+03  4.56981E+02 -4.23843E+03  3.52576E+02 -1.19038E+03  2.74320E+03 -1.15073E+03
  1.89399E+03  1.49947E+03  5.64945E+02  2.11189E+03  1.79793E+02  1.33122E+03 -1.52314E+03 -7.52042E+02
 -9.45638E+02 -1.43188E+03 -4.79197E+00 -7.45744E+02  7.99204E+02 -1.87422E+03  1.25219E+03 -3.68279E+02
  9.68830E+02  1.16717E+03  2.00029E+02 -2.01704E+02 -6.44706E+02  1.17020E+03  1.90582E+03 -4.89410E+02
 -4.29126E+02 -6.93612E+01  1.19398E+03  1.32255E+03 -1.19981E+03  7.69995E+02  5.52514E+02  1.98878E+03
 -1.70522E+03  9.25441E+02 -1.09778E+03  3.70335E+02 -1.18861E+03 -1.13573E+02  8.70960E+01 -9.10990E+02
 -4.33563E+01 -1.79696E+03  3.00459E+02 -1.69382E+02  1.55950E+03  1.02445E+03  4.92363E+02  7.10295E+02
 -8.32202E+02  7.73888E+02 -1.55923E+03 -1.28684E+03 -8.11015E+02 -1.14463E+03 -5.12560E+01 -1.18188E+03
  9.06635E+02 -7.65935E+02  8.42387E+02 -1.40128E+02  2.03412E+03  3.96448E+02  4.19066E+02  2.19975E+02
 -1.65251E+02  8.47921E+02 -1.04483E+03  4.35402E+02  1.28302E+03 -8.63120E+01  1.14464E+03 -6.20099E+02
  4.31328E+02 -9.93075E+02  1.98838E+03  9.70074E+02  1.50281E+03  2.09562E+03  4.35180E+02  1.70547E+03
 -1.34090E+03  4.14375E+02 -1.78681E+03  6.10050E+01 -5.53010E+02 -7.76158E+02 -3.48229E+02  1.01260E+02
  7.37728E+02 -1.18493E+03  2.67939E+02  8.29875E+00 -7.67295E+01  1.55644E+03 -5.25870E+01  1.13969E+03
 -3.42242E+01  4.88052E+02 -1.01101E+03 -1.13544E+01  2.40795E+02  6.75296E+02 -5.50946E+02  3.60658E+02
 -5.08332E+02  7.40438E+02 -1.80909E+03  5.08348E+02 -9.09579E+02 -2.78601E+02 -2.02582E+03 -8.19196E+02
 -7.63471E+02 -1.11296E+03  6.48930E+02 -2.47503E+03  5.36108E+01 -1.95009E+03  1.83490E+03 -9.09552E+02
  2.01372E+03 -4.15503E+02  1.14218E+03  5.95608E+02 -2.70522E+02 -2.60792E+01 -1.03399E+03 -2.35003E+01
 -1.21849E+03  9.20626E+02 -8.99303E+02  1.22087E+03 -2.63296E+02  1.08393E+03 -9.74730E+02  5.26868E+02
 -1.09499E+03 -8.41747E+02 -6.54982E+00 -4.42568E+01 -3.87629E+02 -6.33017E+02 -4.28161E+02 -1.36297E+03
  1.12895E+03 -7.77109E+02  5.99759E+02  6.39140E+02  8.32402E+02  3.45999E+02  3.66054E+02  2.03475E+03
 -1.50474E+03  1.44130E+03 -1.23195E+03  1.17050E+03 -2.44901E+02 -9.41510E+01 -1.42784E+03 -1.72998E+03
 -1.85952E+02 -1.14618E+03  1.47394E+03 -6.59512E+02  1.12856E+03  4.88622E+02  8.66647E+02  1.57232E+02
  1.11329E+02  1.62995E+02  5.36498E+02  1.96920E+02 -5.37029E+02 -1.16883E+03  8.87811E+02  6.95596E+02
 -8.21217E+01 -7.03915E+02  7.20506E+02  6.71955E+02 -7.59678E+02  9.68506E+01  2.15758E+03 -3.68402E+02
 -4.88513E+02  1.42362E+03  2.87053E+02 -1.01776E+02 -4.44599E+02  1.33032E+03 -5.59459E+02 -6.03130E+02
  3.18451E+02 -5.14946E+02  2.99280E+02 -3.37844E+02  1.06711E+03 -1.51027E+03  6.41107E+02  1.09878E+03
  1.01603E+02  6.02022E+02 -1.43777E+01 -1.13823E+03 -4.77052E+02  2.61165E+02  1.39582E+02  4.67117E+02
 -4.32600E+02 -3.80484E+01 -1.14494E+03 -1.24633E+02  5.06427E+02 -2.23960E+01 -9.28373E+02 -9.16346E+02
  1.24980E+02  7.53032E+02  1.24580E+02  1.09364E+01  8.79778E+02 -1.95011E+03  2.64118E+02 -2.88421E+02
  8.50144E+01 -4.11750E+02  5.04752E+02 -1.02584E+02  1.48063E+02  6.95683E+02  6.76954E+01 -7.79027E+02
