 $NMID ID='MM_0lb_SNR200_8hz_g55_17.RAW', FMTDAT='(8E13.5)'
 TRAMP=1., VOLUME=1. $END
  3.09410E+05 -1.06383E+03  3.37671E+05  2.49435E+05  8.37486E+04  3.38936E+05 -1.34665E+05  2.52100E+05
 -1.91521E+05  8.37757E+04 -1.14258E+05 -3.21993E+04  4.47478E+02 -5.12514E+04  5.29333E+04 -9.35731E+02
  3.54903E+04  5.48972E+04 -1.70952E+04  7.47031E+04 -6.09387E+04  6.51539E+04 -8.59531E+04  3.08763E+04
 -8.19206E+04 -1.01939E+04 -5.93914E+04 -5.42085E+04 -1.56774E+04 -7.03179E+04  2.92187E+04 -4.66456E+04
  4.20528E+04  3.68696E+03  1.77667E+04  4.86914E+04 -3.54131E+04  4.91870E+04 -6.85203E+04 -6.55079E+02
 -5.55806E+04 -5.86115E+04 -8.38989E+03 -8.07921E+04  3.75220E+04 -5.81015E+04  5.12169E+04 -1.74294E+04
  4.64938E+04  1.07751E+04  3.30799E+04  2.79199E+04  1.71329E+04  2.92468E+04 -4.09919E+03  2.73647E+04
 -2.53871E+04  1.24078E+04 -1.77221E+04 -6.26850E+03  7.56964E+03 -8.36552E+03  2.38061E+04  1.53870E+04
  7.75773E+03  3.86667E+04 -3.41913E+04  3.74690E+04 -6.71706E+04  3.29014E+03 -5.91278E+04 -4.66749E+04
 -1.29782E+04 -6.70888E+04  4.18189E+04 -4.83640E+04  6.11316E+04 -1.97601E+03  3.82710E+04  3.49042E+04
 -6.44673E+03  4.10580E+04 -3.09393E+04  2.09170E+04 -3.38781E+04 -2.53045E+03 -1.95148E+04 -1.21625E+04
 -1.02583E+04 -1.54101E+04 -9.90700E+02 -1.98291E+04  7.57242E+03 -2.39778E+04  1.62530E+04 -1.22402E+04
  1.07087E+04  5.90083E+03 -1.30672E+04  1.32904E+04 -2.38637E+04 -6.93654E+03 -7.51035E+03 -3.72550E+04
  2.61480E+04 -4.68048E+04  5.43131E+04 -2.10815E+04  4.87190E+04  2.07086E+04  1.67015E+04  4.84221E+04
 -1.41957E+04  3.79726E+04 -2.86602E+04  1.57945E+03 -1.22544E+04 -3.11694E+04  2.10849E+04 -3.81216E+04
  4.59458E+04 -1.04720E+04  4.05108E+04  2.71274E+04  2.26543E+04  5.26759E+04 -7.51854E+03  5.92416E+04
 -3.63067E+04  4.03641E+04 -4.84298E+04  1.12675E+04 -4.76151E+04 -1.86954E+04 -2.68814E+04 -4.39638E+04
  8.62609E+03 -4.22478E+04  3.46774E+04 -1.85087E+04  3.09049E+04  1.09934E+04  6.46588E+03  2.10563E+04
 -1.48007E+04  9.67793E+03 -1.20401E+04 -6.36609E+03  5.23265E+03 -1.30193E+04  1.91641E+04  6.12681E+03
  1.69587E+04  2.43609E+04 -4.51886E+03  2.48628E+04 -2.35960E+04  1.55995E+04 -3.15611E+04 -2.07577E+03
 -2.63344E+04 -1.83976E+04 -1.39874E+04 -2.52851E+04  4.09727E+03 -2.59872E+04  2.10006E+04 -2.40285E+04
  3.38112E+04 -1.44445E+04  3.90997E+04  6.56495E+03  2.83853E+04  2.34609E+04  5.09902E+03  4.28599E+04
 -2.19446E+04  3.53398E+04 -3.12494E+04  1.39383E+04 -2.41280E+04 -9.55699E+03 -5.46141E+03 -1.31142E+04
 -1.63221E+03 -2.35409E+03 -8.98109E+03  8.64675E+03 -2.20934E+04  5.44181E+03 -2.10713E+04 -1.05535E+04
 -1.26782E+04 -2.37707E+04  6.61825E+03 -2.87898E+04  1.98422E+04 -1.94197E+04  2.31877E+04 -1.83772E+03
  1.62894E+04  1.74248E+04 -1.99667E+03  2.24528E+04 -1.70059E+04  1.41278E+04 -2.51391E+04 -5.42668E+03
 -1.86185E+04 -2.18012E+04 -2.22088E+03 -2.91870E+04  1.45467E+04 -2.45339E+04  2.44204E+04 -1.28569E+04
  2.45865E+04 -2.77554E+02  1.60788E+04  5.33267E+03  8.89555E+03  2.77538E+03  1.35361E+04 -2.44852E+03
  2.42964E+04 -2.66259E+02  2.85362E+04  1.82474E+04  1.74572E+04  3.94433E+04 -2.82803E+03  4.72500E+04
 -2.67194E+04  3.90837E+04 -4.42081E+04  2.08259E+04 -4.83966E+04 -4.52092E+03 -3.78308E+04 -2.87487E+04
 -1.28600E+04 -4.00489E+04  1.60054E+04 -3.66598E+04  2.94523E+04 -1.65543E+04  2.57983E+04  7.73100E+03
  8.22278E+03  2.18117E+04 -1.31205E+04  1.88202E+04 -2.10050E+04  3.07027E+03 -1.51965E+04 -1.49507E+04
 -1.61733E+03 -2.03274E+04  1.19723E+04 -1.58129E+04  1.27760E+04 -1.06934E+03  2.47978E+03  8.04371E+03
 -9.23798E+03  4.67694E+03 -1.00974E+04 -7.41269E+03 -3.51017E+03 -2.06012E+04  1.06400E+04 -2.29193E+04
  2.51446E+04 -1.14687E+04  2.80071E+04  3.10562E+03  2.54605E+04  1.97127E+04  1.20765E+04  3.18729E+04
 -6.51607E+03  3.34277E+04 -2.26275E+04  2.07024E+04 -2.54768E+04  5.05692E+03 -1.87094E+04 -6.12006E+03
 -7.66607E+03 -9.57607E+03 -1.00935E+03  1.33226E+03 -3.30667E+03  3.91605E+03 -6.40407E+03  4.98050E+03
 -1.59510E+04 -2.13111E+03 -1.59951E+04 -1.30230E+04 -7.29995E+03 -2.06328E+04  6.62490E+03 -1.76634E+04
  1.45096E+04 -7.09551E+03  9.97656E+03  3.53705E+03  9.01678E+02  7.29727E+03 -8.37034E+03 -1.47788E+03
 -7.98693E+03 -1.03268E+04 -2.09578E+03 -1.68274E+04  7.79639E+03 -1.81721E+04  2.17144E+04 -9.62093E+03
  2.49644E+04  4.38461E+03  1.87104E+04  1.69485E+04  3.70119E+03  2.10838E+04 -1.10481E+04  1.57698E+04
 -1.09925E+04  3.92901E+03 -7.78797E+03 -5.47270E+03  4.36056E+03 -4.65402E+03  9.20949E+03 -1.66988E+03
  7.66836E+03  6.84415E+03  2.99784E+02  1.38425E+04 -1.11625E+04  1.19932E+04 -1.67071E+04  3.07825E+03
 -1.26009E+04 -8.67862E+03  1.46833E+03 -1.46230E+04  1.01240E+04 -8.34284E+03  1.01812E+04  3.61349E+03
  1.83278E+03  1.16012E+04 -9.36516E+03  1.17858E+04 -1.47385E+04  5.84853E+03 -1.68243E+04 -5.92625E+03
 -7.46126E+03 -1.68413E+04  4.58432E+03 -2.00250E+04  1.57805E+04 -1.23017E+04  2.03000E+04  4.54279E+03
  1.11683E+04  1.64042E+04 -6.20606E+02  1.63914E+04 -1.33626E+04  1.02307E+04 -1.65763E+04 -9.19516E+02
 -1.35296E+04 -1.28286E+04 -1.68836E+03 -1.32294E+04  8.46918E+03 -1.03013E+04  8.17896E+03 -4.64096E+03
  6.06630E+03  3.10118E+03  2.16095E+02  1.40765E+03 -1.56478E+03 -4.57384E+03  2.20488E+03 -8.55996E+03
  1.38915E+04 -4.90925E+03  1.80318E+04  8.94796E+02  1.85809E+04  1.32917E+04  1.13096E+04  2.49189E+04
 -5.51967E+03  2.62015E+04 -2.32676E+04  2.04152E+04 -2.65695E+04  4.07298E+03 -2.41858E+04 -1.13218E+04
 -1.27276E+04 -2.05521E+04  2.05534E+02 -1.74664E+04  5.00397E+03 -9.27093E+03  7.77323E+03 -6.01447E+03
  3.95642E+03 -2.07131E+03  3.64946E+03 -4.88761E+03  6.70719E+03 -4.70650E+03  9.74419E+03 -1.76382E+03
  1.18217E+04  2.41407E+03  5.95254E+03  1.18909E+04 -1.78303E+03  1.32424E+04 -1.20355E+04  1.15970E+04
 -1.65963E+04 -2.28349E+03 -1.02553E+04 -1.19775E+04 -3.74746E+03 -1.74255E+04  8.78530E+03 -1.84305E+04
  1.82392E+04 -1.00194E+04  2.09832E+04  1.99045E+03  1.61999E+04  1.84746E+04  2.01482E+03  2.03665E+04
 -8.72542E+03  1.56605E+04 -1.21775E+04  3.44096E+03 -7.65851E+03 -1.32234E+03 -3.30388E+03 -2.99561E+03
 -2.49190E+03 -8.22209E+02 -2.36074E+03  1.83768E+03 -6.42150E+03  3.24342E+03 -1.00996E+04 -2.40031E+03
 -8.83638E+03 -1.15838E+04 -9.54279E+02 -1.67579E+04  9.06322E+03 -1.79542E+04  1.60712E+04 -4.32358E+03
  1.63125E+04  8.40788E+03  8.27121E+03  1.45245E+04 -3.21344E+03  1.72342E+04 -1.12794E+04  1.04395E+04
 -1.63683E+04  1.41087E+03 -1.27035E+04 -1.15511E+04 -1.53971E+03 -1.27180E+04  7.74425E+03 -1.06992E+04
  1.17958E+04 -3.42555E+03  6.64847E+03  4.45077E+03  4.42922E+03  3.93562E+03  6.98569E+02  2.99509E+03
  5.28208E+03  1.75420E+03  5.91445E+03  2.76753E+03  4.87365E+03  4.89462E+03  4.67137E+03  1.05324E+04
 -2.20378E+03  1.38054E+04 -1.26919E+04  1.45874E+04 -1.94479E+04  4.79029E+03 -1.95969E+04 -8.54248E+03
 -9.82863E+03 -2.00093E+04  9.25747E+02 -2.02414E+04  9.79450E+03 -1.16680E+04  1.54798E+04 -3.88901E+03
  1.21117E+04  6.26048E+03  1.57995E+03  9.46356E+03 -5.44917E+03  6.29225E+03 -8.05135E+03 -7.14543E+02
 -3.94701E+03 -6.58990E+03  3.81808E+03 -9.61405E+03  6.77962E+03 -2.57756E+03  8.45302E+03  6.02881E+02
  5.35564E+03  3.45992E+03  2.68157E+03  3.51399E+03 -2.73622E+03  3.27266E+03  2.28057E+03 -1.66931E+03
  3.96977E+03 -1.91771E+03  8.23486E+03  3.96167E+03  5.42238E+03  9.08173E+03  1.11141E+02  1.27364E+04
 -8.81701E+03  9.56325E+03 -1.19423E+04  9.96987E+02 -9.80165E+03 -4.05989E+03 -3.67566E+03 -5.75215E+03
  2.25371E+03 -7.96366E+03  4.07264E+03 -2.90488E+03  3.01695E+03  3.15799E+03 -4.01109E+02  5.19378E+03
 -6.73288E+03  3.47737E+03 -6.98240E+03 -3.69247E+03 -5.17235E+03 -9.96942E+03  2.92955E+03 -9.46624E+03
  3.33057E+03 -5.17840E+03  9.10807E+03  1.54690E+02  4.90786E+03  3.04610E+03  8.74119E+02  4.90467E+03
 -3.34526E+03  1.17576E+03 -4.65876E+03 -2.44085E+03  1.75307E+03 -8.74125E+03  9.35234E+03 -7.06133E+03
  1.27129E+04 -6.09474E+01  1.10645E+04  8.54463E+03  3.33997E+03  1.38241E+04 -4.58948E+03  1.22123E+04
 -9.59723E+03  5.20984E+03 -9.70494E+03 -1.17289E+03 -4.26870E+03 -7.28780E+03  9.10614E+02 -8.13054E+03
  7.43249E+03 -3.51346E+03  8.46095E+03  3.88642E+03  2.96776E+03  6.66182E+03 -1.10745E+03  6.26670E+03
 -2.34625E+03  1.81790E+03 -5.04664E+03  2.81475E+03 -1.94600E+03  3.84529E+02 -4.41553E+01  7.10334E+02
 -2.62309E+03  5.07498E+03 -7.68622E+03  4.35410E+03 -1.26092E+04  3.46426E+02 -1.40907E+04 -8.18084E+03
 -7.39758E+03 -1.64988E+04  1.60158E+03 -1.93691E+04  1.08519E+04 -1.47375E+04  1.73463E+04 -5.33891E+03
  1.73265E+04  4.26684E+03  1.29226E+04  1.07373E+04  1.06478E+03  1.30803E+04 -5.89780E+03  1.03333E+04
 -6.81477E+03  2.02852E+03 -3.88155E+03 -2.23462E+03 -1.98477E+03 -2.38173E+03 -1.22260E+03  3.08281E+02
 -2.67090E+03  5.67848E+02 -2.67049E+03 -5.24932E+02  1.80539E+00 -3.58739E+03  7.90735E+01 -5.70602E+03
  7.20848E+03 -5.33954E+03  8.06355E+03  1.34930E+03  8.56654E+03  6.56981E+03  2.75417E+03  1.35400E+04
 -6.61748E+03  1.33110E+04 -1.37336E+04  8.49384E+03 -1.59219E+04 -3.46670E+03 -1.15946E+04 -9.78865E+03
 -4.09359E+03 -1.19036E+04  3.14804E+03 -1.41738E+04  8.01416E+03 -6.54197E+03  1.18420E+04 -8.56092E+02
  6.17609E+03  5.78413E+03 -2.02013E+03  3.01940E+03 -7.71119E+02 -1.40120E+03  6.46635E+02 -4.00354E+03
  4.47047E+03 -1.09310E+03  4.88001E+03  2.43497E+03  2.88970E+03  6.03165E+03 -1.38725E+03  8.01831E+03
 -5.98069E+03  4.27417E+03 -1.08463E+04  6.87118E+01 -8.97078E+03 -4.34188E+03  2.02825E+03 -1.13196E+04
  5.84133E+03 -9.21575E+03  1.00129E+04 -2.26678E+03  1.12300E+04  1.72443E+03  7.25721E+03  9.66606E+03
  9.98748E+02  8.20805E+03 -3.31463E+03  7.22898E+03 -4.60483E+03  4.24882E+03 -4.93897E+03  1.37908E+03
 -1.80063E+03  7.90871E+02 -3.13105E+03  2.43558E+03 -4.26885E+03  1.40707E+03 -6.57113E+03 -1.01817E+02
 -6.63035E+03 -4.48280E+03 -1.38075E+03 -1.10231E+04  3.93101E+03 -1.01572E+04  8.76452E+03 -5.07023E+03
  9.74143E+03  8.41380E+01  4.83055E+03  5.55615E+03 -1.02683E+03  8.47024E+03 -6.10393E+03  4.21096E+03
