 $NMID ID='MM_0lb_SNR200_19hz_g60_25.RAW', FMTDAT='(8E13.5)'
 TRAMP=1., VOLUME=1. $END
  3.09921E+05  1.63831E+03  3.37360E+05  2.49950E+05  8.39519E+04  3.37281E+05 -1.31681E+05  2.50145E+05
 -1.90892E+05  8.39150E+04 -1.12235E+05 -3.24027E+04  9.54217E+02 -5.08323E+04  5.26567E+04 -1.56621E+02
  3.56170E+04  5.32763E+04 -1.61826E+04  7.55415E+04 -6.05331E+04  6.38249E+04 -8.29920E+04  3.13457E+04
 -8.05175E+04 -1.10900E+04 -5.72269E+04 -4.99360E+04 -1.60714E+04 -6.88923E+04  2.74853E+04 -4.52232E+04
  3.86929E+04  3.49534E+03  1.54262E+04  4.73070E+04 -3.44469E+04  4.58573E+04 -6.67783E+04 -1.32334E+03
 -5.27730E+04 -5.72365E+04 -5.67442E+03 -7.68663E+04  3.36435E+04 -5.47594E+04  4.74956E+04 -1.74520E+04
  4.31668E+04  1.21607E+04  3.09804E+04  2.54436E+04  1.65582E+04  2.83753E+04 -4.03161E+03  2.64333E+04
 -2.25972E+04  1.25556E+04 -1.83145E+04 -4.41045E+03  4.57311E+03 -6.99268E+03  2.19507E+04  1.12274E+04
  7.41903E+03  3.49190E+04 -3.17962E+04  3.48872E+04 -6.21508E+04  1.35452E+03 -5.63101E+04 -4.16334E+04
 -1.35911E+04 -6.07123E+04  3.98344E+04 -4.49234E+04  5.79538E+04 -1.87049E+03  3.23925E+04  3.21558E+04
 -6.11793E+03  3.47159E+04 -2.83614E+04  1.51988E+04 -2.92541E+04 -4.71988E+03 -1.49171E+04 -1.13345E+04
 -8.01509E+03 -1.25614E+04 -1.27905E+03 -1.74785E+04  7.30961E+03 -2.25819E+04  1.56409E+04 -1.45889E+04
  1.18953E+04  5.38794E+03 -7.03719E+03  1.24164E+04 -2.02016E+04 -3.25257E+03 -7.54043E+03 -3.23624E+04
  2.31753E+04 -4.04755E+04  4.65484E+04 -1.93748E+04  4.30707E+04  1.85114E+04  1.50353E+04  4.37237E+04
 -1.58257E+04  3.09411E+04 -2.46788E+04  2.13761E+03 -8.79029E+03 -2.67705E+04  2.01983E+04 -3.24090E+04
  3.84073E+04 -8.87483E+03  3.29774E+04  2.20919E+04  1.67232E+04  4.35798E+04 -8.61344E+03  4.72949E+04
 -2.95707E+04  3.11160E+04 -3.91923E+04  7.17160E+03 -4.06691E+04 -1.54358E+04 -2.29520E+04 -3.63526E+04
  7.00053E+03 -3.60821E+04  3.01796E+04 -1.36815E+04  2.88919E+04  1.15433E+04  4.55675E+03  1.87109E+04
 -1.33046E+04  7.73811E+03 -1.00809E+04 -7.66351E+03  6.05498E+03 -1.00786E+04  1.81129E+04  6.27838E+03
  1.27625E+04  2.24653E+04 -6.10789E+03  2.36310E+04 -2.14891E+04  1.01705E+04 -2.58213E+04 -6.05816E+03
 -1.75979E+04 -1.64511E+04 -6.70162E+03 -1.67732E+04  3.23332E+03 -1.72028E+04  1.24840E+04 -1.48270E+04
  2.25703E+04 -1.23872E+04  2.91940E+04  1.39771E+03  2.25326E+04  1.78601E+04  4.22615E+03  3.36368E+04
 -1.67947E+04  2.87107E+04 -2.55674E+04  9.81872E+03 -2.06197E+04 -1.07978E+04 -3.89507E+03 -1.25078E+04
  2.43936E+03 -2.92772E+03 -3.92125E+03  5.45156E+03 -1.36512E+04  4.95926E+03 -1.37694E+04 -6.26887E+03
 -9.51004E+03 -1.68829E+04  4.97666E+03 -2.08693E+04  1.36293E+04 -1.50866E+04  1.64185E+04 -9.62428E+02
  9.38965E+03  1.11728E+04 -1.75176E+03  1.56839E+04 -1.13983E+04  9.97461E+03 -1.71907E+04 -3.98834E+03
 -1.30204E+04 -1.62681E+04 -2.07025E+03 -1.92601E+04  9.13010E+03 -1.65979E+04  1.75657E+04 -7.71335E+03
  1.53032E+04  1.88030E+02  1.08881E+04  3.37244E+03  5.55555E+03  5.94679E+02  7.77448E+03 -1.42747E+03
  1.43291E+04  3.83581E+03  1.46333E+04  1.32320E+04  1.01798E+04  2.62837E+04 -2.93661E+03  2.82898E+04
 -1.67575E+04  2.23665E+04 -2.66906E+04  1.14198E+04 -2.67316E+04 -1.71023E+03 -2.25525E+04 -1.53767E+04
 -1.05283E+04 -2.16967E+04  6.91176E+03 -2.08145E+04  1.76835E+04 -1.12220E+04  1.68483E+04  4.07172E+03
  5.78030E+03  1.20825E+04 -8.06438E+03  1.02299E+04 -1.36533E+04  2.79749E+03 -1.08903E+04 -8.24790E+03
 -4.03602E+02 -1.32684E+04  6.42768E+03 -1.10761E+04  8.13517E+03 -2.13514E+03  1.35652E+03  5.56723E+03
 -5.13823E+03  3.48482E+02 -3.54862E+03 -4.78140E+03  2.39033E+02 -1.15041E+04  8.06642E+03 -9.87759E+03
  1.36939E+04 -5.09661E+03  1.17433E+04  2.47538E+03  1.20738E+04  9.88694E+03  5.29146E+03  1.49117E+04
 -1.58133E+03  1.58345E+04 -1.05261E+04  1.04902E+04 -1.19874E+04  3.32253E+03 -1.00235E+04 -9.02057E+02
 -5.34156E+03 -3.47898E+03 -9.88606E+02  2.29842E+03 -1.80116E+03  1.24325E+03 -3.41210E+03  5.00329E+03
 -8.86360E+03 -2.29052E+01 -9.10268E+03 -7.38619E+03 -4.83183E+03 -1.28482E+04  4.27229E+03 -8.45702E+03
  7.63433E+03 -5.01978E+03  5.32903E+03  2.48207E+03  1.91796E+03  3.26077E+03 -3.35932E+03  2.14222E+02
 -2.58446E+03 -4.86954E+03 -1.54489E+03 -7.03856E+03  4.25999E+03 -8.21118E+03  9.28833E+03 -3.05314E+03
  1.32712E+04 -4.54596E+01  8.28257E+03  7.51245E+03  1.21076E+03  9.15070E+03 -5.73477E+03  8.49602E+03
 -6.76040E+03  3.09771E+03 -4.19714E+03 -1.55020E+03  8.03340E+02 -7.42781E+02  4.81172E+03  5.54576E+01
  4.03404E+03  3.58712E+03  1.11374E+03  6.98214E+03 -4.75384E+03  6.99032E+03 -7.39000E+03  2.21073E+03
 -5.45744E+03 -4.44876E+03  3.31187E+01 -7.36607E+03  2.98350E+03 -3.23400E+03  5.55405E+03  1.37522E+03
  7.94787E+02  4.23933E+03 -3.99904E+03  5.34549E+03 -5.53909E+03  1.82351E+03 -4.01904E+03 -2.31153E+03
 -3.04251E+03 -6.38566E+03  2.02490E+03 -7.12894E+03  6.40576E+03 -6.17118E+03  7.28746E+03  1.02994E+03
  4.31855E+03  5.81182E+03  1.99454E+02  7.89507E+03 -5.17670E+03  4.91428E+03 -6.05399E+03 -3.16296E+02
 -6.37988E+03 -5.69167E+03 -9.76281E+02 -5.51742E+03  2.73655E+03 -5.20130E+03  2.85444E+03 -2.96674E+03
  3.17128E+03 -2.49197E+02 -9.79931E+01  1.14305E+03  1.41943E+03 -8.51152E+01  2.79017E+02 -1.04164E+03
  4.05334E+03 -1.96389E+03  5.70137E+03  3.42951E+02  6.22077E+03  3.04197E+03  5.38202E+03  7.92526E+03
  1.42085E+02  9.22079E+03 -7.65386E+03  7.12859E+03 -9.62728E+03  1.56621E+03 -7.90892E+03 -3.22099E+03
 -5.06532E+03 -5.98503E+03 -9.12287E+02 -5.52118E+03  2.11365E+03 -1.95982E+03  3.67583E+03 -2.67353E+03
  7.59293E+02 -1.86269E+03  2.08059E+03 -2.64574E+03  5.10877E+03 -1.99602E+03  4.04513E+03 -2.32647E+02
  4.40921E+03  1.72691E+03  1.51412E+03  2.66452E+03 -1.67811E+03  2.84686E+03 -4.91035E+03  3.32625E+03
 -5.37751E+03 -1.68476E+03 -1.22381E+03 -3.86516E+03  8.56161E+02 -3.88217E+03  3.75582E+03 -4.84517E+03
  5.89216E+03 -3.18676E+03  7.16236E+03 -3.96986E+02  4.59667E+03  4.12372E+03  2.14677E+02  5.87601E+03
 -1.50562E+03  6.98316E+03 -3.75358E+03  2.50478E+03 -1.32864E+03 -5.10461E+02 -8.37622E+02 -4.64631E+02
 -9.26100E+02  6.78962E+02 -1.41681E+03  1.99620E+03 -2.40928E+03  1.61626E+03 -3.45607E+03 -1.05978E+03
 -8.24014E+02 -3.95753E+03 -8.91087E+00 -4.18751E+03  1.95919E+03 -4.08483E+03  3.65281E+03 -4.46361E+02
  3.74167E+03  3.68647E+03  1.54099E+03  4.12968E+03 -2.89328E+02  4.57007E+03 -3.22548E+03  2.67939E+03
 -2.97078E+03 -1.65069E+02 -2.68231E+03 -2.74192E+03 -1.19932E+03 -2.51880E+03  1.80041E+03 -1.93516E+03
  2.56513E+03 -7.83186E+02  2.24481E+03  1.19485E+02  3.44017E+02  1.91776E+03 -1.50610E+02  8.37497E+02
  1.96181E+03  9.14192E+01  7.32190E+02  1.10929E+03  1.57571E+03  2.04493E+03  1.77431E+03  9.96928E+02
 -9.19991E+02  2.62729E+03 -2.29355E+03  3.92147E+03 -2.42885E+03  1.16872E+03 -4.36689E+03 -6.64427E+02
 -7.29034E+02 -3.80315E+03 -2.63050E+02 -4.02536E+03  2.47155E+03 -1.71066E+03  2.95346E+03 -1.15993E+03
  2.63901E+03  1.36856E+03  1.04998E+03  2.29492E+03 -9.79434E+02  7.85234E+02 -1.00876E+03 -4.47825E+02
 -2.28391E+02 -1.10802E+03  8.95278E+02 -9.89189E+02  7.62427E+02 -5.96606E+02  1.54278E+03 -3.22682E+02
 -2.69412E+02  2.67467E+02  8.87528E+02 -1.15034E+03 -6.17493E+02  7.13418E+02  2.18868E+03  4.99505E+01
 -6.14756E+02  3.42739E+02  3.42249E+03  8.14536E+02  1.19676E+02  2.39187E+03  1.20223E+03  2.84486E+03
 -2.06125E+03  8.09438E+01 -2.10516E+03  8.73125E+02 -2.64228E+03 -1.06800E+03  1.00604E+02 -6.73361E+02
  1.87818E+02 -1.39731E+03  9.27760E+02 -4.38839E+02  2.42932E+02  1.24672E+03 -9.18672E+02  1.09860E+03
 -2.35545E+03  2.81722E+02 -1.44066E+03 -1.19533E+03 -8.99185E+02 -1.66940E+03 -3.02873E+02 -2.83889E+03
  3.98232E+02 -2.94386E+01  7.28542E+02  1.31112E+02  8.96511E+02 -4.99083E+02  1.94442E+03  3.58938E+02
 -6.16897E+01  1.48105E+03 -1.64899E+02 -9.13368E+02 -6.04785E+02 -6.04223E+02  2.55431E+03 -2.03786E+01
  8.95685E+02  6.47289E+02  3.61297E+03  5.58174E+02  1.81740E+03  1.22213E+03  2.47803E+02  1.65830E+03
 -1.27960E+03  3.15115E+02 -2.01832E+03 -6.97014E+02 -9.94027E+02 -1.46197E+03  3.06906E+02 -3.07725E+02
  8.46224E+02 -1.55189E+02  5.78597E+02  2.06305E+02 -1.87216E+02  1.59632E+03  1.29140E+02  1.24977E+03
 -2.89784E+02  3.22324E+02  9.20967E+02 -7.69672E+01  4.59435E+02  1.05924E+03 -7.50355E+02  6.37815E+02
 -8.15627E+02  1.84662E+03 -1.72286E+03 -1.98334E+02 -1.56797E+03  6.65765E+01 -1.23551E+03 -1.45694E+03
 -5.21648E+02 -1.95492E+03  5.74407E+02 -3.14999E+03  9.10977E+02 -2.28667E+03  3.52069E+03 -7.09404E+02
  2.07650E+03  9.63071E+02  4.08136E+02  1.03252E+03  2.36593E+02  1.29548E+03 -4.55702E+02  1.40468E+03
 -9.80300E+02  1.52997E+03 -1.98613E+03 -1.85169E+02 -6.00799E+01  3.30730E+02 -1.17556E+03 -1.06204E+03
 -1.34846E+03  1.11425E+03 -3.19908E+02  3.40039E+02  8.19627E+02 -1.45187E+03 -5.99639E+02 -5.44143E+02
  6.91270E+02 -1.32042E+03 -3.60450E+02  2.20680E+02  1.64438E+03  1.36413E+03 -1.31658E+03  2.14728E+02
 -1.33008E+03  2.57418E+03 -1.59805E+03  1.75815E+03 -1.39868E+03 -3.70459E+02 -5.17939E+02 -1.56681E+03
 -1.99722E+02 -1.80281E+03  2.74222E+02 -1.76803E+03  2.38738E+03 -1.65591E+02 -3.41458E+02  8.83053E+02
  1.38730E+02 -8.61491E+02 -1.39203E+02  3.37040E+02 -2.65028E+02  3.17584E+02  1.13714E+02 -1.55788E+02
  9.57670E+02 -3.72950E+02  4.39056E+02  2.25609E+02  2.00651E+02  6.38814E+02  7.57728E+02 -1.56758E+03
 -1.07952E+03 -1.41098E+02  2.54305E+02 -6.30089E+02 -3.12482E+02  3.65898E+02 -2.98257E+02 -2.33817E+02
  9.67320E+02 -4.83048E+02  2.17464E+02  8.23033E+02  3.67654E+02  5.37314E+02  8.15833E+02  1.39667E+02
  4.58171E+02  4.25446E+02 -1.84436E+02  1.05605E+03 -1.48390E+02  8.48571E+02 -3.48179E+01 -4.21662E+02
  8.67889E+02  5.43009E+02  3.34743E+02 -6.91487E+01 -9.94014E+02  2.98294E+02 -2.44548E+02  6.49834E+01
 -1.66531E+03 -1.67643E+02  5.26491E+02 -5.67918E+02  1.05158E+03 -6.42134E+02  9.72906E+01 -3.22300E+02
  5.88330E+02 -7.26816E+02 -3.81231E+02 -8.40859E+02 -4.95641E+02  1.37552E+03 -3.85938E+02  1.02860E+03
