 $NMID ID='MM_0lb_SNR200_15hz_g55_12.RAW', FMTDAT='(8E13.5)'
 TRAMP=1., VOLUME=1. $END
  3.12216E+05  5.87132E+02  3.38801E+05  2.50256E+05  8.55083E+04  3.37483E+05 -1.31893E+05  2.51179E+05
 -1.90843E+05  8.35042E+04 -1.12500E+05 -3.24286E+04  1.24366E+03 -5.03263E+04  5.41351E+04 -2.86155E+02
  3.60327E+04  5.23201E+04 -1.71195E+04  7.63084E+04 -6.07352E+04  6.39775E+04 -8.41280E+04  3.12799E+04
 -8.08771E+04 -1.10109E+04 -5.78873E+04 -5.24970E+04 -1.61952E+04 -6.89889E+04  2.76325E+04 -4.64593E+04
  4.04769E+04  4.32738E+03  1.58274E+04  4.70915E+04 -3.47410E+04  4.66444E+04 -6.82334E+04 -3.60446E+02
 -5.39647E+04 -5.73618E+04 -7.17471E+03 -7.62191E+04  3.44214E+04 -5.50279E+04  4.70483E+04 -1.67875E+04
  4.25125E+04  1.11805E+04  3.19736E+04  2.60893E+04  1.69488E+04  2.88621E+04 -5.50643E+03  2.71568E+04
 -2.23559E+04  1.22833E+04 -1.78805E+04 -5.42425E+03  6.65353E+03 -7.67942E+03  2.18280E+04  1.27098E+04
  7.40277E+03  3.54768E+04 -3.22647E+04  3.61630E+04 -6.28423E+04  2.62862E+03 -5.77271E+04 -4.26478E+04
 -1.38048E+04 -6.26557E+04  4.06175E+04 -4.50794E+04  5.77669E+04 -1.66582E+03  3.46421E+04  3.18499E+04
 -7.29850E+03  3.66481E+04 -2.98276E+04  1.55700E+04 -2.97684E+04 -5.04762E+03 -1.75584E+04 -9.26212E+03
 -8.63526E+03 -1.42871E+04 -1.31475E+03 -1.82438E+04  7.47086E+03 -2.33109E+04  1.53628E+04 -1.31352E+04
  1.23863E+04  4.96202E+03 -8.45158E+03  1.27202E+04 -2.05723E+04 -4.03090E+03 -9.33410E+03 -3.41311E+04
  2.31134E+04 -4.25525E+04  4.80125E+04 -2.04621E+04  4.46891E+04  2.00154E+04  1.63175E+04  4.30543E+04
 -1.46192E+04  3.45966E+04 -2.56415E+04  6.88286E+02 -9.61325E+03 -2.76731E+04  2.10375E+04 -3.30578E+04
  4.12314E+04 -9.39587E+03  3.41596E+04  2.41948E+04  1.89529E+04  4.71048E+04 -8.25939E+03  5.02753E+04
 -3.15446E+04  3.51759E+04 -4.19949E+04  1.00003E+04 -4.30087E+04 -1.68472E+04 -2.40678E+04 -3.90173E+04
  7.36926E+03 -3.82224E+04  3.23088E+04 -1.50905E+04  2.95839E+04  1.11078E+04  4.01756E+03  1.94504E+04
 -1.31362E+04  8.59652E+03 -1.03412E+04 -7.69606E+03  6.10799E+03 -1.11874E+04  1.83653E+04  6.79163E+03
  1.33526E+04  2.06214E+04 -5.86411E+03  2.49084E+04 -2.23819E+04  1.15770E+04 -2.83048E+04 -5.07719E+03
 -2.05647E+04 -1.77213E+04 -8.10495E+03 -1.90389E+04  4.42879E+03 -1.97877E+04  1.64792E+04 -1.84307E+04
  2.60045E+04 -1.15115E+04  3.31579E+04  2.83395E+03  2.40683E+04  1.98124E+04  4.02257E+03  3.47534E+04
 -1.76224E+04  3.16398E+04 -2.63080E+04  1.07186E+04 -2.08513E+04 -1.15164E+04 -3.69523E+03 -1.43908E+04
  1.69906E+03 -4.40118E+03 -3.51898E+03  6.76400E+03 -1.72460E+04  4.68316E+03 -1.72153E+04 -7.25223E+03
 -1.11474E+04 -1.89956E+04  6.48911E+03 -2.29123E+04  1.56588E+04 -1.69673E+04  1.68664E+04 -1.17845E+03
  1.11894E+04  1.44999E+04 -8.71518E+02  1.79779E+04 -1.24911E+04  1.08294E+04 -1.90175E+04 -4.58069E+03
 -1.45153E+04 -1.74556E+04 -3.22333E+03 -2.14023E+04  1.03412E+04 -1.80446E+04  1.78501E+04 -9.60148E+03
  1.79028E+04  4.73657E+02  1.16496E+04  3.98067E+03  5.59899E+03  1.47688E+03  9.85290E+03  2.97798E+02
  1.77027E+04  2.90798E+03  1.83765E+04  1.54504E+04  1.26303E+04  3.08265E+04 -2.25424E+03  3.41202E+04
 -1.92208E+04  2.66583E+04 -3.13162E+04  1.37143E+04 -3.23817E+04 -2.50185E+03 -2.74448E+04 -1.89458E+04
 -1.29575E+04 -2.86247E+04  8.44744E+03 -2.37646E+04  2.10652E+04 -1.19130E+04  1.97503E+04  6.07005E+03
  6.93463E+03  1.35031E+04 -8.98344E+03  1.27688E+04 -1.62210E+04  2.97439E+03 -1.24395E+04 -1.02043E+04
 -2.99019E+02 -1.50772E+04  7.38714E+03 -1.16919E+04  1.01476E+04 -1.38351E+03  1.38049E+03  6.34226E+03
 -7.02345E+03  1.31410E+03 -6.61938E+03 -5.40524E+03 -7.16822E+02 -1.32483E+04  9.73566E+03 -1.51207E+04
  1.69356E+04 -6.24493E+03  1.71228E+04  3.59600E+03  1.58253E+04  1.26773E+04  7.70199E+03  1.99375E+04
 -3.74214E+03  2.19391E+04 -1.42971E+04  1.33186E+04 -1.53992E+04  3.75164E+03 -1.14431E+04 -4.22971E+03
 -6.11744E+03 -4.41260E+03 -1.42743E+03  1.41671E+03 -2.19508E+03  3.16123E+03 -4.79818E+03  5.16234E+03
 -9.95575E+03 -1.26486E+03 -1.10346E+04 -9.16065E+03 -5.36048E+03 -1.32566E+04  3.92639E+03 -1.18194E+04
  1.01738E+04 -3.66314E+03  6.21939E+03  3.10330E+03  1.42979E+03  4.59499E+03 -4.48976E+03 -7.36389E+01
 -5.65086E+03 -6.85610E+03 -8.31281E+02 -1.06094E+04  4.67149E+03 -1.06120E+04  1.37725E+04 -6.87544E+03
  1.58422E+04  1.39901E+03  1.28643E+04  9.45987E+03  3.10358E+03  1.17753E+04 -6.92768E+03  1.14408E+04
 -8.99273E+03  3.15345E+03 -5.17873E+03 -1.70614E+03  1.32299E+03 -2.66473E+03  6.07364E+03 -1.25233E+03
  5.70114E+03  5.22669E+03  8.60109E+02  9.56639E+03 -5.14131E+03  7.43496E+03 -1.06718E+04  2.60538E+03
 -6.61606E+03 -6.22757E+03  7.41136E+00 -7.95320E+03  5.44809E+03 -4.20545E+03  6.11502E+03  1.57815E+03
  8.59771E+02  6.03225E+03 -5.51810E+03  6.78536E+03 -7.03512E+03  2.93568E+03 -8.54799E+03 -1.98099E+03
 -4.16590E+03 -9.63039E+03  1.60538E+03 -9.72695E+03  8.38640E+03 -7.19103E+03  1.06005E+04 -3.35983E+02
  5.39991E+03  8.80030E+03  5.26641E+02  9.85220E+03 -7.97832E+03  5.16096E+03 -7.55687E+03 -9.24396E+02
 -7.62194E+03 -6.98482E+03 -1.83018E+03 -8.09630E+03  3.95697E+03 -6.39453E+03  4.04005E+03 -3.40664E+03
  3.73117E+03  2.16000E+02 -2.85014E+02  2.06417E+03  1.31057E+02 -8.59063E+02  2.50225E+02 -2.93492E+03
  5.51349E+03 -2.06719E+03  8.22927E+03  8.37970E+02  8.64124E+03  5.50254E+03  7.38116E+03  1.19374E+04
 -2.09410E+03  1.27761E+04 -1.21256E+04  1.04996E+04 -1.52818E+04  1.66444E+03 -1.24967E+04 -4.52310E+03
 -6.32845E+03 -9.57850E+03 -6.78215E+02 -8.76643E+03  3.96956E+03 -3.02481E+03  4.05310E+03 -3.32494E+03
  1.88797E+03 -2.75945E+03  3.19588E+03 -3.78474E+03  5.18015E+03 -1.84832E+03  5.02555E+03  7.91044E+02
  6.81060E+03  9.22386E+02  2.54749E+03  4.70142E+03 -3.42963E+03  5.36413E+03 -7.88901E+03  3.65267E+03
 -6.99061E+03 -6.58985E+02 -4.89402E+03 -4.95109E+03  5.66796E+02 -9.03985E+03  4.46446E+03 -7.76979E+03
  7.89613E+03 -4.19775E+03  9.97874E+03  7.82675E+02  8.04490E+03  8.62639E+03  1.19451E+03  8.68884E+03
 -4.18215E+03  7.79963E+03 -5.04056E+03  3.88936E+03 -3.92048E+03 -1.21527E+03 -1.57953E+03 -2.43108E+03
 -4.39903E+02  6.32089E+02 -1.01605E+03  1.72253E+03 -3.41853E+03  1.32768E+03 -5.91096E+03 -5.11106E+02
 -2.98039E+03 -5.82827E+03  5.76609E+02 -7.31681E+03  3.21724E+03 -7.02125E+03  6.76331E+03 -2.36491E+03
  7.03875E+03  4.56625E+03  2.36785E+03  6.85286E+03 -1.33013E+03  8.88777E+03 -6.17618E+03  4.71972E+03
 -5.85085E+03  1.15750E+03 -5.52072E+03 -4.72111E+03 -7.88102E+01 -4.80278E+03  2.87341E+03 -3.15193E+03
  4.32215E+03 -1.82522E+03  3.57983E+03  1.89499E+03  1.31961E+03  2.20114E+03  2.64452E+03 -6.02857E+01
  1.04437E+03  1.61176E+03  9.20514E+02  4.38933E+02  1.96733E+03  3.17478E+03  1.18934E+03  4.66041E+03
 -1.32294E+03  5.55177E+03 -5.41187E+03  6.91599E+03 -7.43981E+03  2.76659E+03 -7.69668E+03 -2.58113E+03
 -4.35796E+03 -6.05609E+03  1.69524E+03 -7.26967E+03  3.08008E+03 -5.55414E+03  5.53793E+03 -1.86798E+03
  4.70556E+03  4.23612E+03  6.92165E+02  4.10513E+03 -1.72113E+03  2.76956E+03 -4.03991E+03  8.27165E+02
 -8.94604E+02 -2.64462E+03  1.38796E+03 -1.78264E+03  2.51540E+03 -8.23172E+02  2.62237E+03  9.90212E+02
  1.98230E+03  1.41198E+03  1.41153E+03  2.77957E+02 -3.04104E+02  7.58671E+02  1.32244E+03  8.26610E+02
  8.72592E+02  2.23136E+02  3.27911E+03  1.16317E+03  2.19382E+03  2.91991E+03  2.49570E+02  6.28436E+03
 -3.40244E+03  3.02436E+03 -4.55873E+03  7.63058E+02 -3.56018E+03 -1.96473E+03 -8.75065E+02 -1.67138E+03
  2.57655E+02 -3.16011E+03  2.56649E+02 -2.01504E+03  1.44901E+03  2.54906E+03 -1.23629E+03  2.14814E+03
 -2.78894E+03  1.61900E+03 -2.04426E+03 -2.63790E+03 -7.07992E+02 -3.64645E+03 -6.51636E+02 -3.70444E+03
  2.34478E+03 -3.19624E+03  4.19729E+03  4.37160E+01  1.85602E+03 -8.56276E+01 -6.91462E+02  1.14075E+03
 -9.24229E+02  8.70086E+02 -2.06588E+03 -1.73501E+03  4.64218E+02 -2.67263E+03  2.34168E+03 -1.48695E+03
  2.33876E+03 -6.57693E+01  3.07869E+03  2.82759E+03  1.78506E+03  4.90034E+03 -1.04637E+03  3.05584E+03
 -2.94093E+03  7.42181E+02 -2.55499E+03 -8.86790E+02 -2.33949E+03 -2.72801E+03  2.61827E+03 -1.83573E+03
  3.40092E+03 -6.65411E+02  2.20531E+03  3.99617E+02  7.49713E+02  2.81579E+03 -4.48015E+01  1.94826E+03
 -6.65486E+02  1.15442E+03 -1.25438E+03  7.77401E+02 -1.11093E+03  6.83680E+02  3.57939E+02  2.07899E+02
 -1.06890E+03  1.68298E+03 -3.49408E+03  1.77209E+03 -4.37777E+03 -2.03155E+02 -3.95292E+03 -1.99030E+03
 -2.54406E+03 -4.38881E+03  1.00238E+03 -6.03293E+03  3.05362E+03 -5.31479E+03  4.26089E+03 -1.55728E+03
  5.11495E+03  6.32180E+02  1.95734E+03  3.23369E+03 -1.01391E+03  4.17151E+03 -2.57284E+03  2.06141E+03
 -1.91072E+03  9.24715E+02 -1.24350E+03 -1.70229E+03 -1.03681E+03 -1.08437E+03 -1.00571E+03  9.95617E+02
  1.13961E+02  1.44796E+02 -4.85464E+02 -4.59132E+00 -5.89717E+02 -5.02435E+02 -2.53863E+02 -1.48726E+03
  2.07056E+03 -7.27352E+02  1.65313E+03  5.74514E+02  3.29257E+03  2.69924E+03  6.76402E+02  2.62399E+03
 -2.19320E+03  3.97832E+03 -3.60582E+03  2.94134E+03 -3.77529E+03  1.47932E+02 -2.97915E+03 -3.20043E+03
  2.78594E+02 -2.75749E+03  4.82861E+02 -2.72481E+03  8.13615E+02 -1.24661E+02  1.11776E+03  2.84747E+02
  9.37588E+02  5.56567E+02  1.15887E+03  4.50723E+02  1.88791E+02  6.52462E+02 -6.94775E+02  1.79852E+02
  1.95490E+03  9.99802E+02  1.69773E+03  1.01302E+03  1.02539E+02  3.31201E+02  3.07545E+02  1.20664E+03
 -2.45582E+03  8.54790E+02 -2.16086E+03 -5.80630E+02 -1.70541E+03 -1.04686E+03 -9.21654E+02 -1.01905E+03
  4.06205E+02 -2.26624E+03  2.40126E+03 -6.71446E+02  1.14493E+03  2.24412E+02  8.82497E+02  1.33284E+03
  3.90585E+02  2.14779E+03 -6.96850E+02  1.86123E+03 -1.31821E+03  1.52807E+03 -1.02056E+03  3.70689E+02
 -4.57435E+02  2.68526E+01 -5.04740E+02 -5.74228E+02 -1.04257E+03  7.40877E+02 -1.36309E+03 -7.31426E+02
 -2.56428E+03  5.54348E+02 -7.98199E+02 -1.04329E+03  1.97286E+03 -1.65779E+03  1.02237E+03 -8.51347E+02
  2.15452E+03  1.38753E+02  4.55784E+02  1.44405E+03 -1.08290E+03  1.05005E+03 -8.60294E+02 -2.79528E+00
