 $NMID ID='MM_0lb_SNR200_17hz_g45_94.RAW', FMTDAT='(8E13.5)'
 TRAMP=1., VOLUME=1. $END
  3.10070E+05 -6.68978E+02  3.38206E+05  2.50175E+05  8.40496E+04  3.36726E+05 -1.32525E+05  2.50616E+05
 -1.90579E+05  8.29522E+04 -1.10501E+05 -3.26395E+04  1.65218E+03 -5.05408E+04  5.41990E+04 -4.22910E+01
  3.47168E+04  5.26766E+04 -1.70049E+04  7.51970E+04 -6.05796E+04  6.31665E+04 -8.40345E+04  3.26318E+04
 -7.99327E+04 -1.06601E+04 -5.73132E+04 -5.10890E+04 -1.48330E+04 -6.78762E+04  2.72796E+04 -4.39575E+04
  3.96601E+04  3.91174E+03  1.59745E+04  4.69068E+04 -3.41240E+04  4.66965E+04 -6.58291E+04 -8.50403E+02
 -5.30592E+04 -5.69721E+04 -6.37783E+03 -7.71926E+04  3.36479E+04 -5.30170E+04  4.65402E+04 -1.55631E+04
  4.25657E+04  1.11821E+04  3.09500E+04  2.48896E+04  1.62478E+04  2.90020E+04 -4.89686E+03  2.65692E+04
 -2.18994E+04  1.24931E+04 -1.95414E+04 -4.23181E+03  4.37432E+03 -6.83869E+03  2.15408E+04  1.26837E+04
  8.12376E+03  3.31592E+04 -3.04893E+04  3.43631E+04 -6.14858E+04  3.17322E+03 -5.52031E+04 -4.27274E+04
 -1.22300E+04 -6.27736E+04  3.86818E+04 -4.24406E+04  5.61921E+04 -1.44285E+03  3.28256E+04  3.09684E+04
 -6.02028E+03  3.38123E+04 -2.91075E+04  1.56366E+04 -2.90715E+04 -6.48169E+03 -1.50991E+04 -1.04241E+04
 -7.48734E+03 -1.15052E+04 -6.79314E+02 -1.74505E+04  7.59103E+03 -2.21171E+04  1.47899E+04 -1.35328E+04
  1.15706E+04  3.74515E+03 -6.80111E+03  1.33174E+04 -1.84863E+04 -3.62457E+03 -8.53237E+03 -3.06785E+04
  2.06263E+04 -4.14219E+04  4.52724E+04 -1.88127E+04  4.35109E+04  1.86576E+04  1.33048E+04  4.21838E+04
 -1.57375E+04  3.12123E+04 -2.49531E+04  1.63554E+03 -8.06012E+03 -2.70992E+04  2.22620E+04 -3.21621E+04
  3.88489E+04 -7.56991E+03  3.28893E+04  2.25113E+04  1.62404E+04  4.27260E+04 -7.94037E+03  4.56021E+04
 -2.91380E+04  3.04504E+04 -3.78088E+04  8.22263E+03 -3.96639E+04 -1.60001E+04 -2.13823E+04 -3.59547E+04
  7.32144E+03 -3.57349E+04  2.88374E+04 -1.31077E+04  2.67547E+04  1.07638E+04  2.97791E+03  1.66888E+04
 -1.30914E+04  7.70461E+03 -8.90102E+03 -6.97430E+03  5.50148E+03 -1.05725E+04  1.66705E+04  6.51264E+03
  1.27161E+04  2.20738E+04 -7.28860E+03  2.34182E+04 -2.10674E+04  9.90638E+03 -2.58979E+04 -6.12381E+03
 -1.84608E+04 -1.58699E+04 -5.70861E+03 -1.76974E+04  4.39221E+03 -1.54583E+04  1.23795E+04 -1.49012E+04
  2.22199E+04 -1.23677E+04  2.87612E+04  2.26140E+03  2.15670E+04  1.72761E+04  4.72434E+03  3.38586E+04
 -1.65189E+04  2.90807E+04 -2.63799E+04  9.71418E+03 -1.93770E+04 -1.02474E+04 -4.00020E+03 -1.42557E+04
  2.80042E+03 -4.79591E+03 -2.65235E+03  5.33020E+03 -1.45091E+04  5.26722E+03 -1.43518E+04 -5.25245E+03
 -9.46651E+03 -1.54928E+04  4.55317E+03 -1.92602E+04  1.39847E+04 -1.33711E+04  1.55087E+04 -4.52040E+02
  1.02790E+04  1.14449E+04 -2.77980E+02  1.50280E+04 -1.08622E+04  8.78674E+03 -1.58621E+04 -3.50368E+03
 -1.15961E+04 -1.42931E+04 -8.01471E+01 -2.10144E+04  8.56155E+03 -1.55807E+04  1.74935E+04 -7.36686E+03
  1.52788E+04  9.45741E+02  1.00663E+04  3.93940E+03  5.78516E+03  8.50545E+02  8.63991E+03 -2.11935E+03
  1.49817E+04  3.23299E+03  1.60966E+04  1.43067E+04  9.18024E+03  2.56777E+04 -3.08751E+03  2.83313E+04
 -1.69942E+04  2.10322E+04 -2.65520E+04  1.09124E+04 -2.62553E+04 -1.77157E+03 -2.21451E+04 -1.54983E+04
 -9.26184E+03 -2.18760E+04  7.15688E+03 -2.02780E+04  1.74264E+04 -1.05956E+04  1.74456E+04  3.71283E+03
  7.12639E+03  1.26983E+04 -7.04069E+03  1.17007E+04 -1.36901E+04  3.35760E+03 -1.08476E+04 -8.70845E+03
  5.49235E+01 -1.28573E+04  6.49117E+03 -9.01811E+03  8.89825E+03 -1.64651E+03  8.25450E+02  6.49568E+03
 -4.36158E+03  2.06939E+03 -4.17662E+03 -4.12110E+03  7.32337E+02 -1.11663E+04  7.05664E+03 -1.05599E+04
  1.31758E+04 -5.00757E+03  1.39534E+04  2.58011E+03  1.01648E+04  1.00324E+04  6.34525E+03  1.53951E+04
 -2.99295E+03  1.78518E+04 -1.17504E+04  1.19463E+04 -1.23961E+04  3.35888E+03 -9.89052E+03 -2.29817E+03
 -5.41182E+03 -3.44707E+03 -2.26121E+03  1.85809E+03 -1.52820E+03  2.50115E+03 -3.48056E+03  3.29167E+03
 -8.66684E+03 -2.10921E+02 -8.10989E+03 -6.96102E+03 -4.52202E+03 -1.39405E+04  3.70240E+03 -9.99511E+03
  7.13104E+03 -3.30304E+03  5.44365E+03  1.39477E+03  2.55213E+02  3.37224E+03 -3.86185E+03 -3.62288E+02
 -3.40744E+03 -6.34528E+03 -7.12882E+02 -7.92815E+03  4.93905E+03 -9.13081E+03  9.93404E+03 -3.96403E+03
  1.28936E+04  5.39457E+02  1.03403E+04  7.83695E+03  1.10980E+03  9.92894E+03 -6.46998E+03  8.02857E+03
 -7.46452E+03  3.08949E+03 -3.29598E+03 -1.51191E+03  1.29763E+03 -2.54521E+03  4.57311E+03 -1.47521E+03
  3.87663E+03  3.14427E+03  2.05723E+03  4.55725E+03 -4.63955E+03  5.77336E+03 -8.82089E+03  2.27062E+03
 -5.54545E+03 -4.29774E+03 -5.78286E+01 -7.71240E+03  4.18138E+03 -4.20284E+03  4.05781E+03  1.42922E+03
  5.57794E+02  3.29512E+03 -3.92163E+03  5.97786E+03 -5.17786E+03  1.65337E+03 -6.17004E+03 -7.77969E+02
 -2.77492E+03 -6.65819E+03  1.41734E+03 -7.90588E+03  7.09978E+03 -5.56200E+03  7.45939E+03  1.35737E+03
  5.52439E+03  5.99491E+03  1.97764E+02  8.67616E+03 -5.76429E+03  5.15428E+03 -5.49893E+03  7.78869E+02
 -5.57265E+03 -5.83300E+03 -1.24034E+03 -5.81891E+03  3.46643E+03 -6.58693E+03  3.50633E+03 -2.13254E+03
  3.27049E+03 -1.42188E+01  7.49783E+02  1.45281E+03  1.32278E+03 -1.21853E+03  1.50439E+03 -2.85258E+03
  4.24577E+03 -2.29546E+03  7.40282E+03  3.31929E+02  7.21699E+03  2.43439E+03  6.41057E+03  6.83025E+03
 -2.17589E+03  9.91168E+03 -9.16063E+03  8.47518E+03 -1.14323E+04  1.56742E+03 -9.45138E+03 -2.85965E+03
 -4.76617E+03 -8.03654E+03 -7.47496E+02 -6.80266E+03  3.31154E+03 -2.63158E+03  1.82886E+03 -2.90880E+03
  2.80900E+03 -1.62440E+03  1.11302E+03 -2.93231E+03  3.33630E+03 -1.76288E+03  3.69445E+03  1.30296E+02
  4.47591E+03  1.41316E+03  1.43193E+03  5.15623E+03 -1.86339E+03  3.50006E+03 -5.31522E+03  2.12734E+03
 -4.57637E+03 -1.29248E+03 -3.67577E+03 -3.40035E+03  5.02892E+02 -6.68879E+03  4.68666E+03 -6.57934E+03
  5.75756E+03 -3.91424E+03  8.55961E+03  5.10910E+01  6.37443E+03  3.97057E+03  1.40826E+03  6.89189E+03
 -3.19823E+03  6.95554E+03 -3.77668E+03  2.05399E+03 -2.58055E+03 -1.28690E+03 -8.12451E+02 -3.83439E+02
 -3.61649E+02 -5.16765E+02 -7.77419E+02  7.77210E+02 -2.45556E+03  1.53448E+03 -4.37428E+03 -8.15147E+01
 -2.43421E+03 -4.33035E+03  6.33751E+02 -5.58284E+03  1.62537E+03 -4.92409E+03  3.93146E+03 -1.75489E+03
  6.61282E+03  2.45102E+03  2.60908E+03  3.62744E+03 -2.06251E+03  5.71415E+03 -2.48858E+03  2.49645E+03
 -4.70477E+03  1.18889E+03 -3.53125E+03 -3.28335E+03 -2.46059E+02 -4.09022E+03  1.66601E+03 -3.80887E+03
  2.64949E+03 -7.03619E+02  1.70313E+03  3.53366E+02  1.26765E+03  2.16484E+03  5.97943E+02  1.22128E+03
  2.41780E+03 -1.69456E+02  8.33726E+02  7.10116E+02 -9.39074E+01  2.42089E+03  2.13519E+03  2.25752E+03
 -1.10740E+03  2.70535E+03 -3.47210E+03  4.33395E+03 -4.40697E+03  6.88361E+02 -4.37076E+03 -7.36008E+02
 -2.63036E+03 -5.12583E+03  1.39290E+03 -6.56768E+03  3.63168E+03 -2.94530E+03  3.98293E+03 -7.80910E+02
  2.15464E+03  1.40003E+03  4.60438E+02  2.91047E+03 -1.38150E+03  1.02014E+03 -5.08127E+02 -2.01751E+02
 -1.33463E+03 -2.39947E+03  1.08353E+03 -2.69091E+03  2.55043E+03 -9.40801E+02  1.39061E+03  6.59336E+01
  4.67576E+02  1.05791E+03  1.68125E+03 -1.71154E+02  4.58008E+02 -4.08955E+02  2.71749E+03 -5.40840E+02
  3.46082E+02 -6.49700E+02  2.36587E+03  5.69335E+02  2.84613E+02  2.67882E+03 -1.27136E+03  3.33060E+03
 -1.72366E+03  1.68387E+03 -1.82419E+03  1.37157E+03 -3.19897E+03 -3.93131E+02  1.38608E+02 -2.04430E+03
  1.11174E+03 -2.29838E+03  1.58900E+03 -1.01030E+03  1.47931E+02  2.47143E+03 -2.23944E+03  9.94229E+02
 -2.38020E+03  5.82969E+02 -5.73926E+02 -1.49323E+03 -4.13158E+02 -3.99739E+03 -8.64331E+02 -2.58010E+03
  5.16218E+02 -8.55161E+02  7.24674E+02 -3.09544E+02  9.88747E+02  7.57826E+02 -2.07896E+01  1.28477E+03
 -5.39294E+02 -3.00176E+02 -1.93604E+03 -7.50719E+02  5.73661E+02 -1.25147E+03  1.52203E+03 -3.84626E+02
  2.18397E+03  3.74770E+02  4.32662E+03  7.12944E+02  1.42458E+03  1.90409E+03 -6.68846E+02  1.69383E+03
 -1.50579E+03 -3.15968E+02 -1.43769E+03 -1.27660E+02  8.72910E+02 -1.67324E+03  1.30689E+03 -1.91674E+03
  2.79526E+03 -1.05464E+03  7.53706E+02  1.26716E+03 -3.15007E+02  2.69592E+03  2.32603E+02  1.60081E+03
 -1.65599E+03  1.83846E+03 -7.22584E+02  2.99198E+02 -4.71257E+02  2.36725E+02 -1.15736E+03  1.15109E+03
 -5.09515E+02  2.20568E+03 -2.38259E+03  1.04224E+03 -2.58992E+03 -3.64968E+00 -3.10407E+03 -1.68829E+03
 -1.61127E+03 -3.55416E+03  3.60255E+01 -3.44825E+03  2.50722E+03 -3.13247E+03  3.72971E+03 -1.65789E+03
  2.80801E+03 -8.43915E+01  1.38270E+03  2.18650E+03 -4.80769E+02  2.85118E+03 -1.19424E+03  1.95631E+03
 -1.28617E+03  5.96982E+02 -6.55350E+02 -8.73427E+02 -4.78547E+02 -4.82092E+01 -2.65571E+02 -7.14790E+02
 -3.76134E+02  2.15813E+02 -1.08954E+03  2.28940E+02 -8.77898E+02 -5.26811E+02  4.93845E+02 -1.19807E+03
  1.39545E+03 -3.73868E+02  1.23613E+02  3.20437E+02  9.36906E+02  3.20127E+03  3.28523E+02  2.50548E+03
 -1.52374E+03  2.43817E+03 -2.88264E+03  1.30395E+03 -1.28636E+03  6.82416E+01 -1.01042E+03 -1.64696E+03
  4.86058E+02 -8.04624E+02  8.12123E+02 -1.57511E+03  1.44568E+03 -8.98528E+02  1.55130E+03  5.72628E+02
  9.23658E+02  5.64455E+02  2.16391E+01  1.92204E+01 -7.55942E+02 -6.34674E+02  9.00423E+02 -1.40383E+03
  1.68811E+03  1.39643E+02  3.08965E+02  1.10918E+03  3.67333E+02  1.32028E+03 -1.34303E+02  9.87769E+02
  2.20420E+01 -4.21663E+02 -2.22925E+03  6.25756E+02 -1.64268E+03 -8.45713E+02  7.80270E+02 -1.72092E+03
  4.47523E+02 -1.61492E+03  1.35061E+03  7.01207E+02  1.36518E+03 -8.14498E+02  5.27501E+02  9.12497E+02
 -6.49462E+02  1.02237E+03  8.08881E+02  9.86278E+02 -6.68390E+02  1.89637E+03 -5.40231E+02  3.76266E+02
 -7.15287E+02  5.76647E+02 -1.59495E+03 -3.96431E+02 -7.08566E+02  6.10889E+02 -2.49894E+03 -8.83347E+02
 -3.48025E+01  1.23108E+02  4.42686E+02 -5.72311E+02  7.19765E+02 -7.04566E+02  8.52995E+02 -6.04745E+02
  8.12644E+02  6.62627E+02  4.75024E+02 -9.31649E+02 -1.26324E+02  4.56776E+02 -5.23418E+02  1.48507E+03
