 $NMID ID='MM_0lb_SNR200_11hz_g60_2.RAW', FMTDAT='(8E13.5)'
 TRAMP=1., VOLUME=1. $END
  3.09360E+05 -1.11230E+03  3.38407E+05  2.48737E+05  8.48742E+04  3.38285E+05 -1.32199E+05  2.51408E+05
 -1.90609E+05  8.29837E+04 -1.11994E+05 -3.34316E+04  4.10644E+02 -5.10552E+04  5.41401E+04  3.15537E+02
  3.64337E+04  5.32103E+04 -1.71051E+04  7.56737E+04 -6.30615E+04  6.44894E+04 -8.49531E+04  3.15167E+04
 -8.25705E+04 -1.18043E+04 -5.84404E+04 -5.24196E+04 -1.50178E+04 -7.00588E+04  2.84267E+04 -4.68319E+04
  4.10875E+04  4.85305E+03  1.66438E+04  4.79877E+04 -3.45704E+04  4.85979E+04 -6.75699E+04 -4.48573E+02
 -5.58031E+04 -5.66558E+04 -7.89174E+03 -7.95089E+04  3.33649E+04 -5.76295E+04  5.04135E+04 -1.83412E+04
  4.49189E+04  1.14761E+04  3.27268E+04  2.57902E+04  1.58783E+04  3.06892E+04 -6.37770E+03  2.86758E+04
 -2.16965E+04  1.11327E+04 -1.83956E+04 -5.92499E+03  7.60960E+03 -7.86550E+03  2.37072E+04  1.43605E+04
  6.57604E+03  3.71115E+04 -3.39597E+04  3.67216E+04 -6.59578E+04  3.50079E+03 -5.96023E+04 -4.37952E+04
 -1.25103E+04 -6.59377E+04  4.14317E+04 -4.77131E+04  6.18729E+04 -2.74323E+03  3.65940E+04  3.42537E+04
 -6.00328E+03  4.00388E+04 -3.20472E+04  1.81577E+04 -3.36244E+04 -2.41320E+03 -2.01798E+04 -1.11640E+04
 -9.42680E+03 -1.45078E+04  1.30951E+02 -1.89157E+04  7.53345E+03 -2.25758E+04  1.70715E+04 -1.34456E+04
  1.03914E+04  5.96190E+03 -1.03676E+04  1.14028E+04 -2.25631E+04 -6.99118E+03 -8.23654E+03 -3.54099E+04
  2.40090E+04 -4.69831E+04  5.19914E+04 -2.03752E+04  4.87680E+04  2.06021E+04  1.51220E+04  4.52760E+04
 -1.70784E+04  3.62966E+04 -2.75669E+04  3.26369E+03 -1.07878E+04 -3.02832E+04  2.06387E+04 -3.52629E+04
  4.46382E+04 -1.03891E+04  4.04593E+04  2.53704E+04  2.04543E+04  5.00714E+04 -9.45889E+03  5.47909E+04
 -3.48086E+04  3.79999E+04 -4.57993E+04  1.01839E+04 -4.79245E+04 -1.76817E+04 -2.41412E+04 -4.07054E+04
  9.74050E+03 -4.31388E+04  3.40403E+04 -1.46694E+04  3.19624E+04  1.15377E+04  4.05833E+03  2.16915E+04
 -1.39655E+04  9.03728E+03 -1.06524E+04 -7.79574E+03  5.19321E+03 -1.12760E+04  2.00541E+04  7.02311E+03
  1.57501E+04  2.30385E+04 -6.27802E+03  2.83256E+04 -2.31851E+04  1.32274E+04 -3.08455E+04 -4.39842E+03
 -2.54008E+04 -1.77786E+04 -1.22244E+04 -2.44639E+04  4.95778E+03 -2.36876E+04  1.94382E+04 -2.24476E+04
  3.18944E+04 -1.37077E+04  3.75393E+04  4.07309E+03  2.71296E+04  2.45824E+04  2.35555E+03  3.97836E+04
 -1.85843E+04  3.24015E+04 -2.88804E+04  1.16532E+04 -2.22985E+04 -1.00798E+04 -3.63637E+03 -1.28649E+04
  5.30019E+02 -2.34217E+03 -8.16902E+03  7.72468E+03 -1.95022E+04  6.37760E+03 -2.13175E+04 -8.73919E+03
 -1.00877E+04 -2.21366E+04  5.81466E+03 -2.66641E+04  1.82349E+04 -1.92844E+04  2.27121E+04 -2.82537E+03
  1.17663E+04  1.67419E+04 -1.59977E+03  2.19436E+04 -1.58824E+04  1.29710E+04 -2.39897E+04 -4.74873E+03
 -1.74257E+04 -2.03362E+04 -1.94762E+03 -2.56566E+04  1.18849E+04 -2.38723E+04  2.28943E+04 -1.07026E+04
  2.06211E+04  1.99100E+01  1.57756E+04  5.37410E+03  9.50590E+03 -1.00328E+02  1.18984E+04 -1.15546E+03
  2.08697E+04  2.49957E+03  2.31341E+04  1.68465E+04  1.64926E+04  3.55460E+04 -2.19161E+03  4.26231E+04
 -2.47912E+04  3.49638E+04 -4.01609E+04  1.95995E+04 -4.22610E+04 -3.33827E+03 -3.49912E+04 -2.46030E+04
 -1.30845E+04 -3.44603E+04  1.17786E+04 -3.11224E+04  2.50005E+04 -1.38469E+04  2.33955E+04  8.11834E+03
  8.39612E+03  1.77835E+04 -1.19057E+04  1.38891E+04 -1.96506E+04  3.19522E+03 -1.41851E+04 -1.29871E+04
 -9.40035E+02 -1.86291E+04  1.05896E+04 -1.40209E+04  1.31522E+04 -1.89311E+03  2.94995E+03  9.48518E+03
 -9.23710E+03  3.36541E+03 -7.12691E+03 -7.24563E+03 -1.80041E+03 -1.58730E+04  1.07360E+04 -1.69051E+04
  2.23346E+04 -9.84972E+03  2.46853E+04  3.34886E+03  2.09215E+04  1.75238E+04  9.34003E+03  2.69735E+04
 -3.94465E+03  2.82200E+04 -1.94708E+04  1.76681E+04 -1.96896E+04  4.11717E+03 -1.57460E+04 -4.61449E+03
 -8.01927E+03 -6.20667E+03 -6.68155E+02  2.75663E+03 -1.94660E+03  3.09566E+03 -8.00619E+03  4.55634E+03
 -1.26372E+04 -1.37567E+03 -1.30757E+04 -1.07921E+04 -5.29963E+03 -1.72718E+04  5.94200E+03 -1.45395E+04
  1.14500E+04 -6.00555E+03  8.87306E+03  5.67737E+03 -2.64869E+02  6.64265E+03 -8.87086E+03  3.61384E+01
 -7.42397E+03 -8.80516E+03 -1.79709E+03 -1.50805E+04  8.22874E+03 -1.62846E+04  1.88866E+04 -8.50141E+03
  2.14246E+04  1.90449E+03  1.74720E+04  1.39307E+04  4.07481E+03  1.62527E+04 -9.63440E+03  1.42586E+04
 -9.84488E+03  3.50439E+03 -5.93639E+03 -2.23686E+03  3.25032E+03 -3.68850E+03  8.98097E+03 -7.58779E+02
  6.72435E+03  7.85934E+03  1.82110E+03  1.13103E+04 -8.64667E+03  1.13052E+04 -1.33864E+04  2.59356E+03
 -9.22076E+03 -7.59147E+03  2.29699E+02 -1.35002E+04  8.28302E+03 -7.21923E+03  9.15808E+03  3.07144E+03
  1.61414E+03  9.23896E+03 -8.20551E+03  1.18591E+04 -1.22628E+04  5.55007E+03 -1.21106E+04 -3.63373E+03
 -7.26152E+03 -1.47529E+04  4.13449E+03 -1.76553E+04  1.49558E+04 -9.14971E+03  1.52583E+04  1.29777E+03
  1.02409E+04  1.20513E+04 -6.22882E+02  1.34516E+04 -1.06062E+04  8.11915E+03 -1.14593E+04 -1.73465E+03
 -9.89856E+03 -8.97872E+03 -2.20568E+03 -9.96199E+03  6.00710E+03 -9.16519E+03  7.03109E+03 -4.15010E+03
  6.52346E+03  3.48321E+03 -8.32820E+02  7.49792E+02  1.23174E+02 -3.54322E+03  2.44684E+03 -6.30987E+03
  1.19962E+04 -5.52014E+03  1.51195E+04  1.29150E+03  1.35916E+04  9.65212E+03  8.09859E+03  1.85030E+04
 -4.62832E+03  2.23806E+04 -1.55450E+04  1.68873E+04 -2.16120E+04  4.22993E+03 -1.88835E+04 -7.05415E+03
 -1.07169E+04 -1.46878E+04 -3.91417E+02 -1.38646E+04  3.35846E+03 -6.29585E+03  5.00671E+03 -3.36711E+03
  2.76288E+03 -1.29053E+03  2.84367E+03 -3.43356E+03  4.53112E+03 -3.13714E+03  6.72878E+03 -1.33994E+03
  9.83438E+03  1.30760E+03  5.65612E+03  8.77382E+03 -1.76319E+03  9.75727E+03 -9.83763E+03  8.67108E+03
 -1.30415E+04 -2.52356E+03 -9.48342E+03 -1.09747E+04 -5.69461E+02 -1.49308E+04  7.19066E+03 -1.38048E+04
  1.31867E+04 -7.08069E+03  1.74087E+04  1.24074E+03  1.20774E+04  1.17050E+04  2.80667E+03  1.53125E+04
 -7.95761E+03  1.35624E+04 -9.56282E+03  4.86369E+03 -7.32984E+03 -1.47271E+03 -1.83823E+03 -2.21433E+03
 -1.02035E+03  8.94621E+02 -1.19188E+03  3.54772E+03 -6.37684E+03  1.47184E+03 -8.30844E+03 -1.61420E+03
 -7.52479E+03 -8.80608E+03  4.54788E+02 -1.27533E+04  7.42126E+03 -1.33862E+04  1.36407E+04 -3.05198E+03
  1.22452E+04  4.54914E+03  5.45919E+03  1.25625E+04 -2.86031E+03  1.17611E+04 -8.65367E+03  7.96735E+03
 -1.26594E+04  5.36004E+02 -8.51236E+03 -7.34094E+03  3.69480E+02 -1.08814E+04  6.91505E+03 -7.22220E+03
  8.51203E+03 -2.18595E+03  6.10076E+03  2.70072E+03  8.57928E+02  4.39857E+03  1.58738E+03  1.13865E+03
  2.10793E+03  1.63976E+03  2.09029E+03  1.67861E+03  3.37060E+03  4.73527E+03  3.66688E+03  6.84558E+03
 -1.73221E+03  1.11680E+04 -8.58347E+03  1.05787E+04 -1.38422E+04  2.61654E+03 -1.29907E+04 -4.24185E+03
 -5.74547E+03 -1.43439E+04  2.94759E+03 -1.40228E+04  7.64034E+03 -8.93044E+03  1.01861E+04 -7.47660E+02
  8.01978E+03  5.60236E+03  2.10265E+03  7.07490E+03 -2.70606E+03  4.88047E+03 -6.21741E+03 -2.50920E+02
 -2.40383E+03 -5.21024E+03  1.95308E+03 -5.63649E+03  4.38811E+03 -2.70059E+03  6.22538E+03  4.96985E+02
  1.81780E+03  1.79543E+03  1.89166E+03  3.48269E+03 -6.29582E+02  2.75741E+03  8.21914E+02 -8.97713E+02
  8.38057E+02  3.71513E+02  5.26050E+03  2.40782E+03  1.21117E+03  7.67103E+03 -3.25945E+02  9.53237E+03
 -5.43138E+03  6.85898E+03 -8.50468E+03  5.24854E+02 -5.16911E+03 -4.12415E+03 -2.50482E+03 -4.96660E+03
 -4.60719E+02 -5.87035E+03  3.94248E+03 -2.38974E+03  2.78572E+03  2.50084E+03 -2.92527E+03  4.54830E+03
 -4.67858E+03  1.98409E+03 -5.22110E+03 -2.43888E+03 -4.54312E+03 -6.19710E+03 -4.77147E+01 -7.27975E+03
  3.89943E+03 -3.94424E+03  5.06189E+03 -9.42557E+02  4.45097E+03  2.12729E+03 -1.90702E+02  3.50418E+03
 -2.16641E+03  1.71392E+03 -3.30262E+03 -2.48489E+03  1.20322E+03 -4.58300E+03  6.29729E+03 -3.95788E+03
  8.29537E+03  1.53121E+03  8.83358E+03  5.08956E+03  3.22754E+03  7.24861E+03 -1.84210E+03  8.50161E+03
 -6.89394E+03  2.00828E+03 -5.77360E+03  1.71649E+02 -3.32157E+03 -5.85158E+03  1.21350E+03 -5.75540E+03
  4.37635E+03 -2.52571E+03  3.59782E+03  1.12138E+03  8.89608E+02  4.51563E+03 -9.24401E+02  3.02502E+03
 -3.11284E+03  2.63869E+03 -2.53052E+03 -2.04101E+02 -1.75138E+01  8.49464E+02 -3.07925E+03  1.26833E+02
 -2.30714E+03  1.25941E+03 -5.25391E+03  2.56893E+03 -6.98002E+03 -1.17174E+03 -8.70581E+03 -4.90757E+03
 -4.61476E+03 -9.36552E+03  1.55676E+03 -1.21793E+04  7.00588E+03 -1.07419E+04  1.06644E+04 -3.61389E+03
  9.44422E+03  5.09604E+02  5.80570E+03  6.20952E+03  2.12683E+02  6.62203E+03 -2.45250E+03  6.41282E+03
 -3.73346E+03  3.64952E+03 -3.68616E+03 -3.48275E+02 -6.39015E+02 -8.55874E+02 -1.03555E+03 -1.27603E+03
 -2.77974E+03  1.11577E+02 -2.38522E+03  6.28749E+01 -8.16322E+02 -2.06011E+03  6.98269E+02 -2.28472E+03
  3.88001E+03 -2.81405E+03  4.80209E+03  2.68512E+02  5.54058E+03  3.12109E+03  1.73092E+03  8.31652E+03
 -3.78834E+03  8.23853E+03 -7.25384E+03  4.55405E+03 -9.90730E+03 -1.04933E+03 -6.91775E+03 -5.15365E+03
 -2.82037E+03 -5.84041E+03  3.00453E+03 -6.38256E+03  3.36107E+03 -3.48270E+03  5.16479E+03  2.23863E+02
  2.86927E+03  2.56522E+03  6.45294E+02  2.17544E+03 -2.44612E+03 -1.25102E+02 -1.70101E+03 -2.05607E+03
  2.06336E+03 -1.74725E+03  2.97960E+03 -4.26877E+01  2.17638E+03  2.21626E+03 -7.32222E+02  3.72673E+03
 -2.27606E+03  3.12218E+03 -2.83858E+03  1.17760E+02 -5.09439E+03 -3.23538E+03  3.07995E+02 -6.31198E+03
  3.85876E+03 -5.34533E+03  5.60787E+03 -1.86281E+03  5.85404E+03  9.21985E+02  3.52642E+03  4.21193E+03
  4.87126E+02  3.98880E+03 -3.92369E+02  3.57820E+03 -4.79430E+03  9.92132E+02 -3.67564E+03  1.79964E+03
 -2.14613E+02 -3.48453E+02 -1.06926E+03  1.25818E+03 -2.99052E+03  5.84681E+02 -5.53312E+03  6.78861E+02
 -2.07938E+03 -3.83364E+03 -1.22494E+03 -4.15443E+03  3.84045E+03 -5.31965E+03  3.65296E+03 -1.09832E+03
  5.81696E+03  6.90770E+02  2.41725E+03  3.03203E+03 -1.33046E+03  3.74175E+03 -2.85137E+03  3.01732E+03
