 $NMID ID='MM_0lb_SNR200_8hz_g55_96.RAW', FMTDAT='(8E13.5)'
 TRAMP=1., VOLUME=1. $END
  3.09775E+05 -2.14191E+03  3.38713E+05  2.51872E+05  8.56260E+04  3.39368E+05 -1.32895E+05  2.52050E+05
 -1.91375E+05  8.47765E+04 -1.13982E+05 -3.17285E+04  1.40990E+03 -5.04090E+04  5.43413E+04 -8.19364E+02
  3.64833E+04  5.22619E+04 -1.78565E+04  7.51231E+04 -6.09797E+04  6.67426E+04 -8.50714E+04  3.38635E+04
 -8.37113E+04 -1.21805E+04 -5.98795E+04 -5.36341E+04 -1.57410E+04 -7.14967E+04  2.83111E+04 -4.77872E+04
  4.07995E+04  2.73856E+03  1.70782E+04  4.92785E+04 -3.50787E+04  5.05533E+04 -6.72335E+04  5.06872E+02
 -5.56479E+04 -5.85162E+04 -6.81685E+03 -7.95756E+04  3.45360E+04 -5.96180E+04  4.92115E+04 -1.85317E+04
  4.64882E+04  1.29032E+04  3.23334E+04  2.74096E+04  1.64492E+04  3.16782E+04 -7.92563E+03  2.69507E+04
 -1.96948E+04  1.18658E+04 -1.67979E+04 -5.87910E+03  6.18954E+03 -7.47876E+03  2.35259E+04  1.57630E+04
  5.36452E+03  3.87171E+04 -3.30366E+04  3.78042E+04 -6.65463E+04  2.37774E+03 -6.00931E+04 -4.46259E+04
 -1.30198E+04 -6.56494E+04  4.15355E+04 -4.68765E+04  6.17792E+04 -2.05989E+03  3.72067E+04  3.53678E+04
 -4.35357E+03  3.95247E+04 -3.28910E+04  1.88378E+04 -3.35393E+04 -2.13605E+03 -1.95786E+04 -1.28102E+04
 -9.98464E+03 -1.53561E+04 -1.80659E+02 -2.04276E+04  1.02971E+04 -2.36843E+04  1.58860E+04 -1.30175E+04
  1.25169E+04  7.99668E+03 -1.13661E+04  1.36634E+04 -2.58844E+04 -6.71665E+03 -8.91209E+03 -4.11037E+04
  2.52132E+04 -4.87745E+04  5.34515E+04 -1.98476E+04  5.04540E+04  2.07291E+04  1.83560E+04  4.85054E+04
 -1.50829E+04  3.71484E+04 -2.57977E+04  2.73821E+03 -1.24271E+04 -2.74670E+04  2.28605E+04 -3.66347E+04
  4.41406E+04 -1.15530E+04  3.98554E+04  2.60198E+04  2.15637E+04  5.14305E+04 -9.48272E+03  5.78421E+04
 -3.71494E+04  3.80643E+04 -4.90451E+04  1.11868E+04 -5.04653E+04 -1.82047E+04 -2.49848E+04 -4.47501E+04
  8.30198E+03 -4.50425E+04  3.50560E+04 -1.82114E+04  3.32754E+04  1.20783E+04  5.43623E+03  2.22845E+04
 -1.27718E+04  1.15710E+04 -9.90065E+03 -7.57869E+03  6.26059E+03 -1.20548E+04  1.95038E+04  4.67648E+03
  1.52630E+04  2.38162E+04 -4.67144E+03  2.70575E+04 -2.46924E+04  1.52421E+04 -3.20391E+04 -2.66396E+03
 -2.71223E+04 -1.98132E+04 -1.22048E+04 -2.58006E+04  3.25855E+03 -2.91540E+04  2.09642E+04 -2.54447E+04
  3.42178E+04 -1.49604E+04  4.05528E+04  6.02313E+03  2.88153E+04  2.62434E+04  4.19019E+03  4.22437E+04
 -2.14011E+04  3.56319E+04 -3.25311E+04  1.38797E+04 -2.13704E+04 -1.04018E+04 -3.88708E+03 -1.23839E+04
  7.10727E+01 -8.15034E+02 -6.87072E+03  8.19245E+03 -2.09644E+04  5.63143E+03 -2.09463E+04 -1.11434E+04
 -1.32463E+04 -2.26104E+04  6.67280E+03 -2.83519E+04  2.07675E+04 -2.04539E+04  2.39448E+04 -1.62127E+03
  1.52021E+04  1.78365E+04 -7.32320E+02  2.37038E+04 -2.03232E+04  1.22653E+04 -2.54423E+04 -4.43446E+03
 -1.82009E+04 -2.29424E+04 -1.72359E+03 -3.09299E+04  1.35287E+04 -2.49275E+04  2.48276E+04 -1.32998E+04
  2.29595E+04  2.12437E+02  1.69205E+04  6.72545E+03  9.27800E+03  8.37644E+02  1.21300E+04 -1.16437E+03
  2.37489E+04  4.10733E+03  2.65119E+04  1.82694E+04  1.85060E+04  4.03901E+04 -4.46044E+03  4.70663E+04
 -2.64975E+04  3.96312E+04 -4.50563E+04  2.17130E+04 -4.95839E+04 -3.43715E+03 -3.81808E+04 -2.69088E+04
 -1.44946E+04 -3.99678E+04  1.42576E+04 -3.59164E+04  3.02040E+04 -1.85234E+04  2.42360E+04  9.84237E+03
  7.78246E+03  1.90688E+04 -1.16996E+04  1.73733E+04 -2.17433E+04  1.39675E+03 -1.69749E+04 -1.43047E+04
  1.10959E+02 -1.92354E+04  1.16738E+04 -1.57086E+04  1.42838E+04 -2.38407E+03  4.71509E+03  9.97986E+03
 -1.06428E+04  5.43762E+03 -1.06187E+04 -7.41163E+03 -1.68757E+03 -1.92611E+04  1.34029E+04 -2.00733E+04
  2.36894E+04 -1.21591E+04  2.84283E+04  3.67525E+03  2.73010E+04  1.91071E+04  1.26765E+04  3.09690E+04
 -6.65687E+03  3.29167E+04 -2.18713E+04  2.03919E+04 -2.50487E+04  4.65218E+03 -1.67389E+04 -6.38982E+03
 -7.56899E+03 -8.01819E+03 -2.84806E+01  1.40827E+03 -4.17694E+03  3.40379E+03 -6.71933E+03  6.51760E+03
 -1.58458E+04 -1.63202E+03 -1.52018E+04 -1.28237E+04 -7.38813E+03 -2.04308E+04  6.66260E+03 -1.72696E+04
  1.47970E+04 -6.10652E+03  9.22146E+03  5.00785E+03 -5.37702E+02  7.52017E+03 -9.95189E+03  2.04749E+03
 -7.14485E+03 -1.02113E+04 -6.94187E+02 -1.45035E+04  8.58296E+03 -1.73794E+04  2.19416E+04 -9.73030E+03
  2.56780E+04  4.34247E+03  1.79952E+04  1.68183E+04  3.59964E+03  2.08200E+04 -1.19320E+04  1.78374E+04
 -1.32117E+04  2.82507E+03 -6.43280E+03 -4.15267E+03  3.49255E+03 -5.23348E+03  8.46692E+03 -8.11970E+02
  9.43879E+03  8.77302E+03  2.77996E+02  1.55946E+04 -9.03566E+03  1.27453E+04 -1.72256E+04  2.49218E+03
 -1.19948E+04 -9.09230E+03  1.96646E+03 -1.37162E+04  9.03289E+03 -8.53633E+03  9.59301E+03  3.14693E+03
  2.72949E+03  1.09211E+04 -9.95815E+03  1.06059E+04 -1.50677E+04  5.87950E+03 -1.66319E+04 -5.64889E+03
 -1.03236E+04 -1.88929E+04  4.86515E+03 -2.19638E+04  1.84367E+04 -1.26645E+04  1.85743E+04  4.69042E+03
  1.14444E+04  1.39689E+04 -8.02195E+01  1.58755E+04 -1.42484E+04  1.00910E+04 -1.39030E+04 -3.74861E+03
 -1.06346E+04 -1.15233E+04 -1.94344E+03 -1.38538E+04  8.78623E+03 -1.21933E+04  8.46835E+03 -4.54590E+03
  4.70490E+03  2.32284E+03 -1.57994E+03  3.02755E+03  1.36119E+02 -3.34112E+03  3.90072E+03 -9.01843E+03
  1.45457E+04 -4.70745E+03  1.98084E+04  2.11439E+03  1.71196E+04  1.32921E+04  1.04780E+04  2.41171E+04
 -4.52252E+03  2.78322E+04 -2.26747E+04  2.23504E+04 -2.77593E+04  1.56479E+03 -2.20779E+04 -9.61327E+03
 -1.15837E+04 -1.95079E+04  3.07133E+02 -1.69474E+04  5.79801E+03 -8.24448E+03  5.68554E+03 -3.90821E+03
  4.08293E+03 -3.95034E+03  5.43083E+03 -4.30499E+03  6.63456E+03 -5.16978E+03  7.86224E+03 -3.81857E+03
  1.26234E+04  3.56957E+03  9.16112E+03  9.72337E+03 -1.82046E+03  1.45561E+04 -1.29862E+04  1.10044E+04
 -1.52600E+04 -1.54346E+03 -1.09966E+04 -1.16041E+04 -2.08781E+03 -1.77354E+04  8.89037E+03 -1.82492E+04
  1.92659E+04 -1.01962E+04  2.26445E+04  2.24550E+03  1.54585E+04  1.56356E+04  2.10212E+03  1.95594E+04
 -9.35415E+03  1.68177E+04 -1.19124E+04  6.37656E+03 -8.29454E+03 -2.51522E+03 -4.02293E+03 -3.06564E+03
 -3.88225E+02 -1.26801E+03 -3.07356E+03  2.56639E+03 -6.84541E+03  2.50360E+03 -1.24957E+04 -2.50827E+02
 -9.04189E+03 -1.05317E+04  1.05395E+03 -1.66892E+04  1.06354E+04 -1.53626E+04  1.88053E+04 -5.47283E+03
  1.60176E+04  9.18478E+03  7.82574E+03  1.56980E+04 -2.50551E+03  1.79669E+04 -1.46635E+04  1.33461E+04
 -1.64684E+04  1.67436E+03 -1.26703E+04 -8.89197E+03 -1.37414E+03 -1.47523E+04  8.82592E+03 -9.47103E+03
  1.11788E+04 -2.18176E+03  8.34495E+03  2.56979E+03  3.57722E+03  7.37895E+03 -9.18955E+02  2.83876E+03
  4.22317E+03  2.31755E+03  5.12265E+03  2.00994E+03  6.39437E+03  6.37928E+03  3.68869E+03  9.64142E+03
 -2.91740E+03  1.31506E+04 -1.32527E+04  1.27680E+04 -1.86540E+04  5.28790E+03 -1.91706E+04 -8.01040E+03
 -8.75363E+03 -1.94846E+04  1.24240E+03 -1.98119E+04  9.61959E+03 -1.29291E+04  1.40826E+04 -3.40003E+03
  1.03087E+04  6.43217E+03  3.24781E+03  8.99497E+03 -3.89885E+03  7.02999E+03 -7.47359E+03 -6.55616E+02
 -3.40187E+03 -7.35313E+03  5.19218E+03 -7.40510E+03  6.07838E+03 -3.03168E+03  6.29795E+03  1.48922E+03
  4.27102E+03  3.98596E+03  8.20247E+02  2.97455E+03 -1.34219E+03  2.01498E+03  2.21936E+03 -5.94531E+02
  4.37230E+03 -3.74888E+03  8.03098E+03  4.59222E+03  4.21133E+03  8.86540E+03 -9.51306E+02  1.31573E+04
 -8.52421E+03  7.54922E+03 -1.21303E+04  3.66555E+03 -1.04467E+04 -4.31683E+03 -5.27331E+03 -6.34449E+03
 -1.27084E+02 -7.84511E+03  3.49005E+03 -2.98463E+03  4.64561E+03  4.85886E+03 -1.80687E+03  5.32894E+03
 -8.61724E+03  2.74757E+03 -1.00395E+04 -3.47412E+03 -6.00596E+03 -1.01964E+04  2.65913E+03 -1.03618E+04
  6.24346E+03 -5.60959E+03  7.61758E+03 -1.20166E+03  6.15427E+03  3.14332E+03  3.48854E+02  4.08651E+03
 -2.77168E+03  4.33696E+02 -4.17680E+03 -4.79701E+03  1.62835E+03 -8.91365E+03  7.64490E+03 -6.25260E+03
  1.27820E+04  2.49719E+02  1.01598E+04  6.70715E+03  3.69824E+03  1.37130E+04 -4.29808E+03  1.11159E+04
 -1.06541E+04  4.15826E+03 -1.06576E+04 -1.26111E+03 -4.50133E+03 -7.21661E+03  1.67250E+03 -5.81112E+03
  7.23163E+03 -4.96041E+03  6.67144E+03  3.70128E+03  1.80775E+03  6.37648E+03 -1.14894E+03  4.37472E+03
 -1.57295E+03  3.66511E+03 -3.43514E+03  1.82874E+03 -6.55354E+02  6.14072E+02 -3.30516E+03  2.14041E+03
 -3.09082E+03  6.76881E+03 -7.50228E+03  5.47514E+03 -1.36368E+04  5.04726E+02 -1.28911E+04 -9.37566E+03
 -7.10747E+03 -1.57663E+04  1.86206E+03 -1.84588E+04  1.24884E+04 -1.28756E+04  1.72784E+04 -6.13182E+03
  1.61819E+04  3.36017E+03  1.05443E+04  1.14751E+04  1.01256E+03  1.16696E+04 -5.15344E+03  9.58824E+03
 -7.80365E+03  3.68543E+03 -4.01403E+03 -3.16657E+03 -3.47210E+02 -2.05745E+03 -7.92449E+02  4.63020E+02
 -2.19744E+03  1.29566E+03 -8.48912E+02  1.15151E+03 -7.22204E+02 -3.66467E+03  2.70559E+02 -2.86508E+03
  4.84465E+03 -4.47974E+03  8.37200E+03  6.64897E+02  8.13544E+03  6.81763E+03  2.69446E+03  1.35550E+04
 -8.53536E+03  1.49616E+04 -1.40811E+04  9.40219E+03 -1.50344E+04 -1.35353E+03 -1.09755E+04 -1.14162E+04
 -3.12097E+03 -1.41399E+04  2.68472E+03 -1.35898E+04  8.98068E+03 -6.89769E+03  7.70558E+03 -3.47550E+02
  3.22019E+03  3.69744E+03  5.92576E+02  4.22642E+03 -2.70289E+03 -5.61801E+02 -6.13405E+02 -2.97438E+03
  4.64085E+03 -3.68294E+03  6.64129E+03  2.05787E+03  1.90127E+03  6.21875E+03 -4.29408E+02  7.67395E+03
 -3.83711E+03  5.46208E+03 -8.30253E+03 -2.10444E+01 -8.15720E+03 -5.73743E+03 -1.61292E+03 -1.05195E+04
  6.82617E+03 -1.06344E+04  1.14655E+04 -4.36766E+03  9.69229E+03  2.80379E+03  7.28692E+03  9.32854E+03
  3.11409E+02  8.26476E+03 -4.58475E+03  7.10086E+03 -5.99330E+03  3.14616E+03 -4.42425E+03 -3.12094E+02
 -1.22861E+03  1.22268E+02 -3.70227E+03  1.17876E+03 -4.39261E+03  1.52439E+03 -7.69778E+03 -1.33953E+03
 -5.11655E+03 -3.65376E+03 -2.04082E+03 -9.22705E+03  4.79243E+03 -9.09635E+03  7.81845E+03 -5.03211E+03
  9.10523E+03  7.55634E+02  5.72755E+03  7.01546E+03 -2.28464E+03  8.73025E+03 -6.52389E+03  3.92154E+03
