 $NMID ID='MM_0lb_SNR200_13hz_g55_76.RAW', FMTDAT='(8E13.5)'
 TRAMP=1., VOLUME=1. $END
  3.08558E+05 -2.29328E+02  3.38217E+05  2.50618E+05  8.70595E+04  3.37073E+05 -1.31944E+05  2.51140E+05
 -1.90420E+05  8.45171E+04 -1.13122E+05 -3.24188E+04  1.12890E+02 -5.00695E+04  5.20581E+04 -1.78134E+02
  3.46334E+04  5.32200E+04 -1.78280E+04  7.55893E+04 -6.08122E+04  6.38423E+04 -8.46369E+04  3.14640E+04
 -8.18721E+04 -1.26316E+04 -5.82002E+04 -5.16094E+04 -1.68559E+04 -6.96834E+04  2.75480E+04 -4.78391E+04
  4.09039E+04  3.17728E+03  1.74932E+04  4.73795E+04 -3.52414E+04  4.67467E+04 -6.81598E+04 -6.01464E+02
 -5.43082E+04 -5.73812E+04 -8.14007E+03 -7.89521E+04  3.47613E+04 -5.53873E+04  4.76891E+04 -1.77732E+04
  4.44511E+04  1.14446E+04  3.14448E+04  2.69901E+04  1.69096E+04  2.93859E+04 -5.61675E+03  2.78590E+04
 -2.23730E+04  1.23167E+04 -1.79048E+04 -6.42541E+03  7.71002E+03 -8.02251E+03  2.28569E+04  1.21121E+04
  7.84179E+03  3.51399E+04 -3.26405E+04  3.56164E+04 -6.39662E+04  2.39915E+03 -5.67633E+04 -4.28338E+04
 -1.24303E+04 -6.43756E+04  4.08476E+04 -4.68197E+04  5.90183E+04 -1.62277E+03  3.43020E+04  3.24390E+04
 -5.81994E+03  3.71260E+04 -3.19653E+04  1.78451E+04 -3.21027E+04 -2.63668E+03 -1.61219E+04 -1.13120E+04
 -7.60338E+03 -1.33024E+04 -3.83510E+00 -1.84530E+04  8.35237E+03 -2.43647E+04  1.50527E+04 -1.44155E+04
  1.10004E+04  6.10221E+03 -8.67413E+03  1.33106E+04 -2.15692E+04 -4.38301E+03 -8.04868E+03 -3.47532E+04
  2.32314E+04 -4.39324E+04  4.76091E+04 -1.98809E+04  4.61765E+04  1.95621E+04  1.71411E+04  4.54996E+04
 -1.58618E+04  3.49543E+04 -2.63096E+04  2.78919E+03 -1.06567E+04 -2.84628E+04  2.18659E+04 -3.51017E+04
  4.14939E+04 -1.07304E+04  3.63627E+04  2.48175E+04  1.91361E+04  4.70737E+04 -7.74670E+03  5.24523E+04
 -3.22757E+04  3.55326E+04 -4.40427E+04  1.02469E+04 -4.53998E+04 -1.74771E+04 -2.47906E+04 -3.81858E+04
  8.20729E+03 -3.91759E+04  3.14872E+04 -1.54409E+04  2.96230E+04  1.14747E+04  4.56457E+03  1.98993E+04
 -1.30991E+04  8.46986E+03 -1.01543E+04 -8.21403E+03  5.89783E+03 -1.18166E+04  1.80831E+04  4.56947E+03
  1.43297E+04  2.17172E+04 -6.04805E+03  2.51663E+04 -2.22355E+04  1.25353E+04 -3.06143E+04 -4.41591E+03
 -2.22064E+04 -1.82989E+04 -9.09449E+03 -2.14582E+04  3.01360E+03 -2.24735E+04  1.69261E+04 -1.88592E+04
  2.77339E+04 -1.22140E+04  3.49054E+04  2.66477E+03  2.63170E+04  2.17438E+04  4.37568E+03  3.70928E+04
 -1.85735E+04  3.21342E+04 -2.84968E+04  1.08045E+04 -2.04614E+04 -9.86015E+03 -4.37241E+03 -1.22895E+04
  1.60840E+03 -1.71490E+03 -6.55034E+03  6.37157E+03 -1.60255E+04  4.68717E+03 -1.95622E+04 -8.51161E+03
 -1.16601E+04 -1.89794E+04  4.89256E+03 -2.48087E+04  1.62756E+04 -1.62297E+04  2.01980E+04 -1.06820E+03
  1.23495E+04  1.39865E+04 -9.60635E+02  2.03099E+04 -1.42925E+04  1.30372E+04 -1.98458E+04 -5.28872E+03
 -1.42735E+04 -1.86154E+04 -2.03194E+03 -2.50672E+04  1.10788E+04 -2.12757E+04  1.95016E+04 -1.01792E+04
  1.98705E+04  9.08032E+02  1.37620E+04  3.19729E+03  8.68272E+03  6.10566E+02  1.05855E+04 -1.90915E+03
  1.90455E+04  2.00652E+03  2.26510E+04  1.43694E+04  1.35649E+04  3.22769E+04 -2.15467E+03  3.88042E+04
 -2.15307E+04  2.97292E+04 -3.66978E+04  1.57225E+04 -3.59325E+04 -1.79759E+03 -2.95862E+04 -2.22568E+04
 -1.29144E+04 -3.04374E+04  9.80957E+03 -2.58608E+04  2.33553E+04 -1.22804E+04  2.11338E+04  5.99772E+03
  8.02587E+03  1.51170E+04 -9.11815E+03  1.34942E+04 -1.78067E+04  2.71250E+03 -1.36207E+04 -1.09992E+04
 -7.28231E+02 -1.61855E+04  9.46982E+03 -1.16973E+04  1.12667E+04 -1.90726E+03  1.77380E+03  7.69596E+03
 -7.27714E+03  2.77152E+03 -7.71430E+03 -6.95957E+03 -1.24261E+03 -1.40904E+04  1.05299E+04 -1.45964E+04
  1.82832E+04 -8.64753E+03  1.92196E+04  2.43861E+03  1.76505E+04  1.51725E+04  8.03050E+03  2.21459E+04
 -3.94452E+03  2.34941E+04 -1.53482E+04  1.54162E+04 -1.71194E+04  3.16756E+03 -1.35997E+04 -5.18342E+03
 -5.43115E+03 -5.18331E+03 -6.69113E+01  1.38138E+03 -2.00616E+03  2.21665E+03 -6.30264E+03  5.33808E+03
 -1.09799E+04 -1.10303E+03 -1.15082E+04 -1.00793E+04 -4.47831E+03 -1.59632E+04  4.07474E+03 -1.25189E+04
  1.06613E+04 -5.35644E+03  8.51456E+03  4.33230E+03  4.42546E+02  4.55715E+03 -6.69128E+03 -2.09143E+02
 -4.70497E+03 -8.71598E+03 -1.12975E+03 -1.09798E+04  6.97817E+03 -1.29109E+04  1.55726E+04 -7.09729E+03
  1.73864E+04  1.23248E+03  1.21390E+04  1.07563E+04  3.17681E+03  1.50227E+04 -7.30883E+03  1.04458E+04
 -9.35104E+03  3.63432E+03 -4.65802E+03 -3.28616E+03  2.52581E+03 -3.11769E+03  6.11917E+03  8.82638E+02
  4.50201E+03  5.23745E+03  3.69579E+02  8.99020E+03 -6.92535E+03  9.64487E+03 -1.17423E+04  7.63085E+02
 -7.84395E+03 -5.99657E+03  1.27955E+03 -1.01671E+04  6.27192E+03 -6.08017E+03  4.92167E+03  3.29182E+03
  1.95828E+03  7.15162E+03 -6.26172E+03  8.01568E+03 -1.12809E+04  4.53416E+03 -1.01661E+04 -3.98558E+03
 -5.10977E+03 -1.11174E+04  2.44536E+03 -1.29895E+04  1.02282E+04 -8.61549E+03  1.24641E+04  8.79213E+02
  9.02483E+03  1.03449E+04  5.30522E+02  1.27650E+04 -8.94566E+03  6.45950E+03 -8.94060E+03 -2.80289E+02
 -8.21980E+03 -8.12327E+03 -8.99422E+02 -8.69130E+03  4.32463E+03 -6.99665E+03  5.39824E+03 -2.68247E+03
  3.29764E+03 -9.27263E+01 -6.98986E+02  2.12646E+03  6.44156E+02 -1.51849E+03 -1.24701E+02 -5.62740E+03
  6.91787E+03 -3.46020E+03  1.12669E+04  7.01700E+02  1.09985E+04  7.12100E+03  6.51241E+03  1.47099E+04
 -2.22639E+03  1.71764E+04 -1.44039E+04  1.19936E+04 -1.77119E+04  3.50535E+03 -1.38676E+04 -6.44480E+03
 -6.31100E+03 -1.12707E+04  8.44722E+01 -1.07290E+04  3.66697E+03 -4.89635E+03  4.03456E+03 -3.11691E+03
  2.86354E+03 -1.30595E+03  2.74288E+03 -3.59140E+03  3.95005E+03 -2.82755E+03  6.21222E+03 -8.41295E+02
  7.72024E+03  1.32233E+03  3.80719E+03  5.93494E+03 -2.56105E+03  6.40909E+03 -7.43954E+03  5.66190E+03
 -1.00537E+04 -2.74812E+03 -5.92129E+03 -7.40155E+03  8.71110E+01 -9.73823E+03  6.44095E+03 -1.08827E+04
  1.04813E+04 -6.18235E+03  1.23898E+04  2.93176E+03  9.63571E+03  8.61013E+03  8.03998E+02  1.08472E+04
 -5.90540E+03  1.12342E+04 -7.51882E+03  4.32532E+03 -4.71050E+03 -8.82090E+02 -2.14649E+03 -3.50605E+03
 -1.33716E+03  6.26520E+02 -1.11894E+03  2.54864E+03 -4.71060E+03  2.91450E+03 -6.59285E+03  7.64352E+02
 -4.29329E+03 -6.86082E+03  9.54062E+02 -8.33127E+03  5.51034E+03 -8.45155E+03  6.51537E+03 -8.52104E+02
  8.26133E+03  4.59387E+03  4.45680E+03  8.03679E+03 -2.46124E+03  1.16479E+04 -6.95575E+03  4.55179E+03
 -8.47401E+03  1.05286E+03 -6.97804E+03 -5.50444E+03  4.21941E+01 -8.76609E+03  3.84007E+03 -6.19201E+03
  6.30863E+03 -2.48255E+03  4.34117E+03  2.60554E+03  2.69700E+03  3.04940E+03  1.79789E+03  6.66716E+02
  2.54733E+03  4.54714E+02  1.90041E+03  1.19545E+03  2.57873E+03  4.40014E+03  2.00672E+03  4.65066E+03
 -2.85354E+03  7.68510E+03 -4.71858E+03  8.76096E+03 -8.79182E+03  1.54456E+03 -8.63099E+03 -2.60861E+03
 -2.91057E+03 -8.37076E+03  2.50582E+03 -1.04593E+04  5.17254E+03 -6.88840E+03  8.06877E+03 -1.35703E+03
  4.73816E+03  2.92892E+03  2.31073E+03  5.01698E+03 -3.11214E+03  3.16172E+03 -3.14242E+03  1.84162E+02
 -1.27109E+03 -1.55431E+03  1.92214E+03 -2.36431E+03  2.54957E+03 -2.35428E+03  3.48075E+03  1.40689E+03
  2.31629E+03  1.63260E+03 -3.12804E+02  1.15603E+02 -2.52522E+03  1.45480E+03  1.60059E+03 -5.80790E+02
  1.42970E+03 -1.27677E+03  2.50598E+03  1.57066E+03  1.14957E+03  4.69141E+03 -1.19736E+03  7.18847E+03
 -3.76984E+03  3.58873E+03 -5.63826E+03  1.23577E+03 -4.94198E+03 -2.25940E+03 -1.17942E+03 -2.99351E+03
 -3.41225E+02 -2.21359E+03  2.28531E+03 -1.64426E+03  2.52449E+03  2.03925E+03 -3.15705E+02  3.13210E+03
 -4.14905E+03  1.96850E+03 -3.15292E+03 -1.83146E+03 -2.26781E+03 -5.25185E+03  6.20405E+02 -5.48751E+03
  2.13352E+03 -2.32226E+03  2.83198E+03  8.15640E+02  2.40116E+03  1.17043E+03  3.34247E+01  2.69243E+03
 -1.61843E+03  8.37481E+02 -2.57938E+03 -2.04953E+03  1.68322E+03 -3.03765E+03  4.56003E+03 -2.29364E+03
  3.46378E+03  1.11770E+03  4.84629E+03  2.67872E+03  2.95258E+03  5.56798E+03 -1.73205E+03  4.33558E+03
 -5.55793E+03  1.02407E+03 -4.66935E+03 -1.21030E+03 -2.45820E+03 -4.51911E+03  7.67835E+02 -2.17794E+03
  3.71640E+03 -1.73163E+03  3.21697E+03  6.60600E+02  1.23642E+03  2.64975E+03 -1.04130E+03  3.65100E+03
 -1.65689E+03  1.57781E+03  3.00046E+01  1.90266E+03 -3.71742E+02  1.13067E+03 -1.14957E+03  8.42790E+02
 -1.20451E+03  5.97776E+02 -3.53936E+03  3.56622E+02 -5.10474E+03 -2.48106E+02 -5.87351E+03 -4.12511E+03
 -2.98149E+03 -5.92782E+03  5.20174E+02 -8.12169E+03  4.48913E+03 -6.32942E+03  8.08554E+03 -1.72778E+03
  7.45711E+03  9.24056E+01  5.27449E+03  4.67671E+03 -7.32902E+02  4.08946E+03 -1.62780E+03  3.42588E+03
 -2.69799E+03  1.28835E+03 -1.78568E+03 -2.58503E+02 -1.23142E+03  7.50596E+02  4.92583E+02 -2.37249E+00
 -1.93862E+03  5.95490E+01 -1.75943E+03 -7.58591E+02 -2.04809E+02 -1.59094E+03 -2.21711E+00 -2.70891E+03
  3.18405E+03 -8.19180E+02  2.07597E+03  8.09092E+02  3.78406E+03  2.70872E+03  1.92786E+01  4.95625E+03
 -3.12842E+03  7.32447E+03 -5.34068E+03  3.17295E+03 -6.75954E+03 -1.42678E+03 -4.75736E+03 -3.90684E+03
 -2.31008E+03 -5.21191E+03  2.69528E+02 -6.09464E+03  3.35578E+03 -3.01313E+03  2.82299E+03 -2.80083E+02
  1.12726E+03  1.36947E+03 -4.05322E+02  2.15254E+03 -1.16016E+03  4.46398E+02  1.16763E+03 -5.72155E+02
  2.14494E+03  1.39494E+01  1.19948E+03  1.29877E+03  1.48631E+02  2.22371E+03  6.45856E+02  7.84430E+02
 -2.93105E+03  2.30831E+03 -3.77894E+03  7.68599E+02 -3.35252E+03 -1.31345E+03 -4.88303E+02 -4.18660E+03
  1.46939E+03 -3.48520E+03  2.91808E+03 -4.53849E+02  2.63250E+03  8.42544E+02  1.02009E+03  2.20580E+03
  1.08294E+03  3.33722E+03 -1.97562E+03  2.57507E+03 -1.96970E+03  7.67782E+02 -1.78486E+03  7.81015E+02
 -5.13442E+02  7.98085E+02 -8.69657E+02 -2.98868E+02 -2.30310E+03 -5.50398E+02 -1.95787E+03  4.54509E+02
 -2.80680E+03 -8.13339E+02 -1.40214E+03 -3.03555E+03  1.24730E+03 -4.06760E+03  2.97775E+03 -1.26578E+03
  2.44271E+03  2.00252E+02  6.20865E+02  1.56977E+03 -4.01558E+02  2.52662E+03 -2.21960E+03  2.99288E+03
