 $NMID ID='MM_0lb_SNR200_15hz_g60_11.RAW', FMTDAT='(8E13.5)'
 TRAMP=1., VOLUME=1. $END
  3.10630E+05  1.07097E+03  3.36758E+05  2.51378E+05  8.60952E+04  3.38602E+05 -1.32359E+05  2.50761E+05
 -1.90727E+05  8.26134E+04 -1.11297E+05 -3.35651E+04  7.15428E+02 -5.20962E+04  5.33108E+04  5.28171E+02
  3.41934E+04  5.22995E+04 -1.59241E+04  7.57383E+04 -6.04311E+04  6.39177E+04 -8.37102E+04  3.24626E+04
 -8.00511E+04 -1.07957E+04 -5.69710E+04 -5.23750E+04 -1.52930E+04 -7.00858E+04  2.78457E+04 -4.49660E+04
  3.99231E+04  3.69134E+03  1.71106E+04  4.80138E+04 -3.44764E+04  4.72017E+04 -6.69875E+04  9.01423E+02
 -5.42132E+04 -5.63692E+04 -5.98860E+03 -7.69911E+04  3.35142E+04 -5.55529E+04  4.75222E+04 -1.85648E+04
  4.27122E+04  1.22574E+04  3.16514E+04  2.55433E+04  1.40343E+04  3.02675E+04 -5.21721E+03  2.78287E+04
 -2.22081E+04  1.09891E+04 -1.73992E+04 -4.92793E+03  5.66163E+03 -7.64440E+03  2.30486E+04  1.29278E+04
  6.74891E+03  3.54227E+04 -3.26469E+04  3.63002E+04 -6.47307E+04  3.10147E+03 -5.63536E+04 -4.43323E+04
 -1.23947E+04 -6.33684E+04  4.06733E+04 -4.57792E+04  5.93241E+04 -3.27878E+03  3.47481E+04  3.38481E+04
 -5.88603E+03  3.79891E+04 -2.97392E+04  1.55172E+04 -3.11879E+04 -4.97622E+03 -1.85179E+04 -1.13677E+04
 -8.86235E+03 -1.42223E+04 -1.00877E+03 -1.79157E+04  6.07105E+03 -2.36026E+04  1.56803E+04 -1.17632E+04
  1.14173E+04  6.79150E+03 -8.71643E+03  1.23554E+04 -2.17623E+04 -4.46826E+03 -8.80904E+03 -3.43850E+04
  2.21843E+04 -4.46789E+04  4.87389E+04 -1.89292E+04  4.51752E+04  1.92959E+04  1.67187E+04  4.47007E+04
 -1.67521E+04  3.42535E+04 -2.58594E+04  1.90445E+03 -1.04789E+04 -2.89490E+04  2.09588E+04 -3.38309E+04
  4.12301E+04 -8.73947E+03  3.56038E+04  2.34392E+04  1.79292E+04  4.68398E+04 -8.24177E+03  5.12966E+04
 -3.20606E+04  3.42381E+04 -4.27124E+04  1.03851E+04 -4.29565E+04 -1.71196E+04 -2.32962E+04 -3.83876E+04
  6.73424E+03 -3.93998E+04  3.16937E+04 -1.51152E+04  3.01067E+04  1.10175E+04  4.88285E+03  1.90236E+04
 -1.41994E+04  8.09892E+03 -1.00166E+04 -7.07105E+03  5.82517E+03 -1.09226E+04  1.79182E+04  6.41940E+03
  1.38523E+04  2.13023E+04 -5.27151E+03  2.45513E+04 -2.18264E+04  1.20987E+04 -2.85908E+04 -4.53790E+03
 -2.12108E+04 -1.71927E+04 -8.12376E+03 -2.00821E+04  3.24779E+03 -2.11241E+04  1.70960E+04 -1.86625E+04
  2.78798E+04 -1.31397E+04  3.28963E+04  3.42034E+03  2.42601E+04  1.97926E+04  3.70048E+03  3.71064E+04
 -1.78695E+04  3.06137E+04 -2.79869E+04  1.00174E+04 -2.20621E+04 -1.07205E+04 -4.25295E+03 -1.39249E+04
  2.17214E+03 -2.32115E+03 -5.85584E+03  7.58587E+03 -1.66850E+04  4.55624E+03 -1.61207E+04 -6.87236E+03
 -8.60419E+03 -1.95286E+04  5.39020E+03 -2.32896E+04  1.57514E+04 -1.70932E+04  1.77456E+04 -2.12588E+03
  1.25613E+04  1.43175E+04 -1.10539E+03  1.91139E+04 -1.31899E+04  1.03457E+04 -2.01144E+04 -3.69028E+03
 -1.58223E+04 -1.78504E+04 -2.19205E+03 -2.32794E+04  1.12651E+04 -2.06169E+04  2.09932E+04 -1.03305E+04
  1.83278E+04  6.17653E+02  1.22726E+04  4.43771E+03  6.30573E+03  4.01720E+02  1.09319E+04 -1.23196E+03
  1.81096E+04  2.34843E+03  1.88220E+04  1.51575E+04  1.17743E+04  3.11645E+04 -1.43557E+03  3.50215E+04
 -2.05450E+04  2.97516E+04 -3.21553E+04  1.33663E+04 -3.47223E+04 -1.20810E+03 -2.81603E+04 -1.96028E+04
 -1.32445E+04 -2.87440E+04  9.88028E+03 -2.59405E+04  2.12717E+04 -1.44968E+04  2.01109E+04  5.45919E+03
  6.85040E+03  1.48600E+04 -8.46093E+03  1.31699E+04 -1.64025E+04  2.18263E+03 -1.24718E+04 -9.48340E+03
 -1.02556E+03 -1.59150E+04  8.01902E+03 -1.17472E+04  9.75864E+03 -5.23658E+02  3.15629E+03  7.42560E+03
 -7.64063E+03  2.84228E+03 -7.01596E+03 -6.64672E+03 -1.04540E+03 -1.31017E+04  1.04014E+04 -1.40441E+04
  1.82496E+04 -7.25980E+03  1.79961E+04  2.05380E+03  1.52282E+04  1.29507E+04  6.56251E+03  2.10269E+04
 -3.79900E+03  2.27606E+04 -1.38344E+04  1.45122E+04 -1.65506E+04  3.79409E+03 -1.00382E+04 -3.27194E+03
 -5.34249E+03 -4.36376E+03 -1.52026E+03  8.27401E+02 -2.22242E+03  2.56680E+03 -6.02253E+03  4.89940E+03
 -1.08947E+04 -9.85628E+02 -1.23271E+04 -9.52669E+03 -5.80455E+03 -1.46977E+04  4.30372E+03 -1.13020E+04
  9.59532E+03 -4.71939E+03  5.93437E+03  1.83603E+03  4.94545E+02  3.81892E+03 -4.85562E+03  4.92675E+02
 -5.60402E+03 -8.65449E+03 -1.01928E+03 -1.01109E+04  6.15575E+03 -1.19082E+04  1.29394E+04 -7.43347E+03
  1.53748E+04  1.68651E+03  1.22341E+04  9.40420E+03  1.54179E+03  1.25732E+04 -7.29065E+03  1.12788E+04
 -9.19064E+03  2.41002E+03 -4.54465E+03 -2.01146E+03  2.65467E+03 -2.94724E+03  6.19525E+03 -6.63217E+02
  5.90944E+03  4.40729E+03  1.76197E+03  7.66469E+03 -4.87948E+03  7.93552E+03 -1.09899E+04  1.99417E+03
 -6.22908E+03 -5.51058E+03 -2.24337E+02 -9.41688E+03  5.60443E+03 -5.39595E+03  5.36045E+03  2.85002E+03
 -3.20942E+01  5.91638E+03 -5.30402E+03  6.98189E+03 -9.06497E+03  4.32904E+03 -8.49815E+03 -2.89032E+03
 -5.38480E+03 -1.02017E+04  1.36655E+03 -1.20517E+04  9.00543E+03 -6.42238E+03  9.77171E+03  2.67178E+03
  5.86042E+03  9.23908E+03  5.49828E+02  1.10104E+04 -7.11985E+03  7.21347E+03 -7.25298E+03 -3.51659E+02
 -7.68793E+03 -7.83115E+03 -2.42563E+03 -7.63483E+03  3.57397E+03 -6.47707E+03  4.05522E+03 -4.51417E+03
  4.47957E+03  9.85132E+02 -1.62661E+02  5.45860E+00  9.87863E+01 -1.63108E+03  8.79492E+02 -3.88939E+03
  6.75516E+03 -2.04908E+03  9.23494E+03  9.49440E+02  8.15107E+03  7.54545E+03  8.27658E+03  1.25631E+04
 -1.99625E+03  1.45058E+04 -1.13964E+04  9.93484E+03 -1.62987E+04  2.77061E+03 -1.23045E+04 -4.50054E+03
 -7.06552E+03 -9.83137E+03  8.17762E+01 -8.30107E+03  4.11644E+03 -4.28291E+03  3.07359E+03 -4.32371E+03
  5.30952E+02 -1.47872E+03  3.82519E+03 -1.82830E+03  5.08783E+03 -2.05318E+03  4.85045E+03 -4.24016E+02
  6.88411E+03  2.74288E+02  2.82319E+03  5.81619E+03 -3.93987E+02  5.87081E+03 -6.75590E+03  3.65675E+03
 -8.64434E+03 -1.02063E+03 -3.51320E+03 -4.82949E+03  3.69713E+02 -7.56212E+03  5.00314E+03 -9.22619E+03
  8.44702E+03 -5.53714E+03  9.83142E+03  1.15693E+03  7.93640E+03  8.16317E+03  1.97060E+03  1.04800E+04
 -4.25113E+03  8.55671E+03 -6.46866E+03  2.79038E+03 -3.36397E+03 -2.18704E+03 -1.17904E+03 -1.33549E+03
 -7.78041E+02  7.58543E+01 -7.46810E+02  2.39729E+03 -1.64461E+03  1.68998E+03 -6.90705E+03 -4.30378E+02
 -3.72829E+03 -6.09620E+03  4.62748E+02 -9.27955E+03  4.78650E+03 -7.26399E+03  6.22050E+03 -2.33089E+03
  7.41963E+03  4.29314E+03  2.99659E+03  5.77354E+03 -4.29516E+02  7.53681E+03 -5.42959E+03  4.64595E+03
 -5.04886E+03  9.27142E+01 -6.80207E+03 -3.50881E+03 -6.29319E+02 -6.28730E+03  3.76540E+03 -4.71305E+03
  4.07174E+03 -6.73960E+02  3.68145E+03  7.26464E+02  2.49402E+03  3.38294E+03  3.76177E+01  1.57143E+03
  1.04305E+03  9.87032E+01  1.30550E+03  7.75479E+02  9.51000E+02  3.28100E+03  1.85162E+03  3.93749E+03
 -3.05559E+03  6.05463E+03 -5.02221E+03  6.53633E+03 -6.88392E+03  1.39900E+03 -7.86837E+03 -1.53767E+03
 -3.48676E+03 -7.82081E+03  8.80902E+02 -7.38363E+03  3.94986E+03 -4.17950E+03  6.73684E+03 -1.98920E+03
  3.17554E+03  1.35421E+03  9.55724E+02  3.51079E+03 -1.79675E+03  2.48058E+03 -2.93346E+03 -1.03512E+03
 -2.32537E+03 -3.54785E+03  2.44616E+03 -2.98250E+03  3.48547E+03 -1.49367E+03  2.25944E+03  4.62422E+02
  2.01571E+03  7.63183E+01  1.89501E+03 -1.04133E+02 -1.12853E+03  9.63453E+02  1.53324E+03 -4.62924E+02
 -3.55908E+02 -1.46792E+03  2.81321E+03  1.13644E+03  1.54160E+03  3.58723E+03 -1.54878E+01  4.83989E+03
 -2.83994E+03  2.25350E+03 -4.57387E+03  1.40145E+03 -3.72475E+03 -1.77812E+03 -9.97158E+02 -2.14288E+03
  1.71092E+02 -2.75034E+03  2.07374E+03 -1.57828E+03  2.40747E+03  7.54899E+02 -8.09108E+02  3.04565E+03
 -2.20204E+03  1.21588E+03 -2.08892E+03 -1.87344E+03 -1.60982E+03 -3.94525E+03  1.30610E+03 -2.85134E+03
  2.15136E+03 -1.87257E+03  1.86724E+03  5.84615E+02  1.53202E+03  1.02348E+03  1.17351E+03  1.07912E+03
 -1.81497E+03  7.35260E-01 -2.61563E+03 -3.96069E+02  2.85381E+02 -1.22048E+03  2.81549E+03 -1.78949E+03
  3.28781E+03  1.71715E+03  5.22487E+03  2.32140E+03  1.69411E+03  3.58136E+03 -7.49288E+02  3.17022E+03
 -1.96079E+03  2.11245E+03 -2.80230E+03 -1.69309E+03 -1.95014E+03 -3.06169E+03  1.42822E+03 -1.27741E+03
  3.46619E+03 -1.06437E+03  1.21290E+03  7.09836E+02  2.43342E+01  5.80671E+02  6.93927E+01  2.17530E+03
 -5.79233E+02  1.40871E+03 -5.15555E+01  1.17263E+03  2.91841E+02  7.41602E+02 -1.49429E+03  1.09433E+02
 -1.08489E+03  2.45955E+03 -1.37143E+03  1.50646E+03 -4.43047E+03  7.98555E+02 -3.97156E+03 -2.10467E+03
 -1.88552E+03 -4.31941E+03  2.25112E+03 -6.02087E+03  3.13346E+03 -4.53469E+03  4.97435E+03 -1.26033E+03
  4.60065E+03  3.03533E+02  3.33704E+03  2.84912E+03 -2.52072E+02  3.39531E+03 -1.20219E+03  2.77939E+03
 -2.20182E+03  1.95414E+02 -1.85033E+03 -9.66162E+02 -8.36809E+02  8.82950E+01 -8.63257E+02  6.24304E+02
 -8.00132E+02 -9.68605E+00 -1.70429E+03 -4.24705E+02  9.21993E+01 -4.02209E+02  2.28303E+02 -1.30699E+03
  7.97666E+02 -3.24940E+02  6.50690E+02  4.29199E+02  2.37997E+03  1.31884E+03 -2.77959E+01  3.21004E+03
 -1.22667E+03  3.53720E+03 -4.20356E+03  1.41557E+03 -5.32268E+03 -6.81452E+02 -2.76954E+03 -3.04995E+03
 -1.73364E+03 -4.79001E+03  9.84996E+02 -1.90557E+03  1.25351E+03 -2.12674E+03  2.34472E+03 -1.59384E+02
  1.34216E+03  1.14827E+03 -1.56708E+02  1.06443E+03 -1.64983E+03  1.25404E+03  3.86128E+02  1.65261E+02
  5.63682E+02 -5.01881E+02  8.39228E+02  9.68380E+02  4.93178E+02  1.20531E+03  8.23730E+02  2.09502E+03
 -1.54069E+03  8.82140E+02 -1.35166E+03  9.41998E+02 -1.45309E+03 -3.93971E+02 -1.13811E+02 -1.99885E+03
  2.19167E+03 -2.95456E+03  2.79394E+03  4.64445E+02  1.62212E+03  1.33649E+02  1.92365E+02  2.61790E+03
  5.73513E+02  2.30136E+03  6.99258E+02  9.72042E+02 -1.19094E+03  8.94965E+02 -1.19794E+02  1.12555E+03
 -7.36088E+02  5.33281E+01 -1.86183E+03  2.15220E+01 -1.12652E+02  1.30212E+02 -1.14838E+03  6.90873E+02
 -2.88651E+03 -6.11798E+02 -3.07883E+02 -1.28541E+03  1.64239E+03 -3.77731E+03  1.41270E+03 -9.75314E+02
  2.52418E+03 -1.31480E+02  9.14679E+02 -1.49553E+02  1.87833E+02  2.64113E+03  1.44912E+02  1.54436E+03
