 $NMID ID='MM_0lb_SNR200_14hz_g40_4.RAW', FMTDAT='(8E13.5)'
 TRAMP=1., VOLUME=1. $END
  3.09516E+05  5.01542E+02  3.36997E+05  2.49708E+05  8.42193E+04  3.37595E+05 -1.32096E+05  2.51341E+05
 -1.89680E+05  8.33961E+04 -1.11814E+05 -3.21891E+04  1.49654E+03 -5.04258E+04  5.33248E+04  1.07888E+02
  3.50990E+04  5.23714E+04 -1.65885E+04  7.52050E+04 -5.98418E+04  6.33507E+04 -8.40844E+04  3.13315E+04
 -7.99057E+04 -1.08537E+04 -5.71712E+04 -4.97128E+04 -1.47247E+04 -6.95188E+04  2.62159E+04 -4.55110E+04
  4.01351E+04  3.87681E+03  1.55491E+04  4.72212E+04 -3.61759E+04  4.69625E+04 -6.67307E+04  1.39010E+03
 -5.21339E+04 -5.56599E+04 -5.71217E+03 -7.74255E+04  3.53041E+04 -5.48524E+04  4.86138E+04 -1.57379E+04
  4.28232E+04  1.09803E+04  3.16895E+04  2.50536E+04  1.63189E+04  2.87524E+04 -4.18497E+03  2.58542E+04
 -2.19548E+04  1.19939E+04 -1.74269E+04 -4.47979E+03  5.02464E+03 -6.71626E+03  2.10884E+04  1.10327E+04
  7.94314E+03  3.46022E+04 -3.20363E+04  3.37375E+04 -6.16933E+04  2.32300E+03 -5.71885E+04 -4.24638E+04
 -1.24274E+04 -6.17354E+04  3.94158E+04 -4.47541E+04  5.81686E+04 -2.27281E+03  3.32864E+04  3.21263E+04
 -6.23626E+03  3.63731E+04 -2.91587E+04  1.55860E+04 -3.04930E+04 -4.03271E+03 -1.60385E+04 -1.04834E+04
 -8.70447E+03 -1.22630E+04  3.37184E+01 -1.71190E+04  6.61882E+03 -2.32629E+04  1.59627E+04 -1.31473E+04
  1.14439E+04  5.57299E+03 -9.09650E+03  1.29912E+04 -1.99574E+04 -3.35749E+03 -7.22070E+03 -3.26664E+04
  2.22693E+04 -4.34723E+04  4.76004E+04 -2.06743E+04  4.46985E+04  1.96565E+04  1.57080E+04  4.33702E+04
 -1.55406E+04  3.28118E+04 -2.36369E+04  1.28654E+03 -7.95969E+03 -2.66071E+04  2.11621E+04 -3.32488E+04
  4.05251E+04 -7.85399E+03  3.50686E+04  2.28984E+04  1.79415E+04  4.58678E+04 -7.56141E+03  4.88776E+04
 -3.15463E+04  3.24998E+04 -4.29971E+04  7.61153E+03 -4.23195E+04 -1.58449E+04 -2.37904E+04 -3.73598E+04
  8.55856E+03 -3.78595E+04  3.06984E+04 -1.35290E+04  2.81838E+04  1.09851E+04  3.57573E+03  1.97607E+04
 -1.40260E+04  7.25939E+03 -9.86515E+03 -6.78998E+03  4.83566E+03 -1.09358E+04  1.64637E+04  6.05908E+03
  1.31682E+04  2.17692E+04 -5.79742E+03  2.48946E+04 -2.18623E+04  1.07310E+04 -2.77568E+04 -5.72222E+03
 -1.88501E+04 -1.84296E+04 -7.35576E+03 -1.98711E+04  3.08011E+03 -1.72749E+04  1.47930E+04 -1.71141E+04
  2.56819E+04 -1.33531E+04  3.09590E+04  2.44817E+03  2.27392E+04  1.91629E+04  3.87920E+03  3.57580E+04
 -1.67841E+04  2.96833E+04 -2.74789E+04  1.07620E+04 -2.04997E+04 -9.74875E+03 -4.52684E+03 -1.22183E+04
  1.96787E+03 -3.15128E+03 -4.67670E+03  5.86015E+03 -1.57825E+04  3.91018E+03 -1.56156E+04 -7.47360E+03
 -9.60643E+03 -1.83566E+04  4.49275E+03 -2.23510E+04  1.31421E+04 -1.66800E+04  1.69475E+04 -1.92576E+03
  1.19314E+04  1.30051E+04 -5.13100E+02  1.83573E+04 -1.16448E+04  1.13801E+04 -1.77711E+04 -3.15521E+03
 -1.33988E+04 -1.68752E+04 -2.76384E+03 -2.13338E+04  1.06716E+04 -1.66643E+04  1.86278E+04 -8.83277E+03
  1.81482E+04  1.67383E+02  1.29272E+04  4.33322E+03  6.90718E+03  8.63824E+02  9.69678E+03 -2.19907E+03
  1.72594E+04  2.51143E+03  1.83730E+04  1.41269E+04  1.10888E+04  2.93836E+04 -4.19178E+03  3.31264E+04
 -2.04106E+04  2.63246E+04 -3.09948E+04  1.23258E+04 -3.07510E+04 -2.21441E+03 -2.55750E+04 -1.96140E+04
 -1.21555E+04 -2.70238E+04  8.70838E+03 -2.29820E+04  2.00300E+04 -1.22830E+04  1.73788E+04  5.13068E+03
  7.07065E+03  1.41980E+04 -9.33466E+03  1.20937E+04 -1.62735E+04  2.67811E+03 -1.26967E+04 -9.22771E+03
 -6.55595E+02 -1.51991E+04  7.11990E+03 -1.17014E+04  9.75226E+03 -2.54431E+03  3.16847E+03  6.64367E+03
 -6.82001E+03  1.98184E+03 -5.20991E+03 -4.78593E+03 -1.25736E+03 -1.36418E+04  9.34541E+03 -1.39679E+04
  1.55701E+04 -7.18003E+03  1.59607E+04  3.28690E+03  1.49914E+04  1.25374E+04  6.66517E+03  1.83803E+04
 -3.04843E+03  2.05888E+04 -1.27556E+04  1.25925E+04 -1.56626E+04  3.38717E+03 -1.09540E+04 -3.87554E+03
 -5.23676E+03 -4.33417E+03 -1.40154E+03  2.35556E+03 -2.98254E+03  2.84333E+03 -5.08536E+03  4.22309E+03
 -9.29243E+03 -5.55761E+02 -1.12011E+04 -8.61576E+03 -4.34286E+03 -1.44152E+04  5.30339E+03 -1.04797E+04
  1.03873E+04 -4.89731E+03  5.09957E+03  3.05596E+03  2.30264E+02  4.29816E+03 -4.89239E+03  8.03345E+02
 -5.97401E+03 -7.81817E+03  2.60665E+02 -9.92869E+03  6.10303E+03 -1.07550E+04  1.26229E+04 -5.21209E+03
  1.64498E+04  1.51889E+03  1.20612E+04  8.39248E+03  2.35586E+03  1.25547E+04 -7.65198E+03  1.24414E+04
 -9.54239E+03  3.78152E+03 -5.27612E+03 -1.70619E+03  2.14214E+03 -2.29414E+03  6.09337E+03 -1.52544E+03
  4.67668E+03  4.20387E+03 -1.96429E+02  9.59868E+03 -6.22524E+03  8.27705E+03 -1.03233E+04  1.21226E+03
 -6.40913E+03 -4.25504E+03  5.11612E+01 -9.74905E+03  5.46296E+03 -3.80550E+03  5.26226E+03  1.62199E+03
  9.46016E+02  6.15657E+03 -5.30191E+03  7.42281E+03 -7.69592E+03  3.31490E+03 -6.92534E+03 -2.42838E+03
 -4.31132E+03 -8.87141E+03  1.44133E+03 -1.01712E+04  9.33669E+03 -6.58046E+03  9.16155E+03  2.00965E+03
  6.68147E+03  7.67965E+03 -4.92912E+02  1.16068E+04 -7.08342E+03  4.29908E+03 -7.72889E+03  5.52273E+01
 -8.14233E+03 -6.36898E+03 -1.41816E+03 -7.22092E+03  3.53526E+03 -7.27692E+03  4.02230E+03 -3.14427E+03
  2.39790E+03  2.20933E+02  5.07875E+02  1.57110E+03  2.79404E+02 -1.16630E+03  8.59453E+02 -3.63786E+03
  6.96530E+03 -1.98750E+03  8.15447E+03  1.07341E+03  8.74605E+03  6.00775E+03  6.39477E+03  1.11556E+04
 -2.60172E+03  1.41693E+04 -1.21425E+04  1.14041E+04 -1.46430E+04  2.74056E+03 -1.28947E+04 -5.97248E+03
 -6.47067E+03 -1.09798E+04 -7.28884E+02 -7.76270E+03  3.01992E+03 -3.33456E+03  1.65282E+03 -3.46302E+03
  2.60233E+03 -2.31872E+03  3.46527E+03 -3.64031E+03  4.75254E+03 -2.18040E+03  5.54572E+03 -1.34664E+03
  5.63343E+03  1.74659E+03  1.59055E+03  7.26318E+03 -1.84783E+03  5.64667E+03 -6.57329E+03  3.70803E+03
 -8.63519E+03  5.11679E+02 -3.82316E+03 -5.42013E+03  2.98295E+02 -8.17213E+03  4.45947E+03 -8.62153E+03
  7.65183E+03 -4.70049E+03  1.00889E+04  5.09931E+02  9.39454E+03  8.02809E+03  1.01846E+03  1.00165E+04
 -2.18912E+03  8.20281E+03 -4.33192E+03  3.48063E+03 -3.61019E+03 -8.99364E+02 -1.26395E+03 -9.72650E+02
 -1.81818E+02  6.10938E+02 -1.53606E+03  2.58155E+03 -3.57230E+03  1.09959E+03 -6.57495E+03 -5.33059E+02
 -3.46814E+03 -5.45875E+03 -6.28359E+02 -8.54956E+03  4.28610E+03 -9.13861E+03  7.17614E+03 -2.37242E+03
  6.49726E+03  4.46638E+03  1.65703E+03  7.21132E+03 -2.45243E+03  6.60635E+03 -2.97859E+03  5.09167E+03
 -5.72389E+03  4.70051E+02 -5.29669E+03 -4.78717E+03 -4.14926E+02 -5.84151E+03  3.52119E+03 -4.78295E+03
  5.61788E+03 -1.90133E+03  3.21686E+03  8.99107E+02  1.34599E+03  2.53199E+03  9.95052E+02  4.97797E+02
  2.10960E+03  3.21364E+02  1.36442E+03  1.66234E+03  1.73676E+03  2.82561E+03  2.51591E+03  3.72100E+03
 -1.32982E+03  5.42566E+03 -4.94311E+03  6.75745E+03 -7.27101E+03  1.56393E+03 -8.77934E+03 -1.18171E+03
 -3.38071E+03 -7.10583E+03  1.87217E+03 -8.51774E+03  4.46599E+03 -4.60183E+03  4.91836E+03 -1.06401E+03
  4.66762E+03  3.90130E+03 -4.40098E+02  4.14931E+03 -2.13862E+03  1.73178E+03 -2.50477E+03 -3.93226E+02
 -6.57534E+02 -3.06531E+03  2.35321E+03 -3.01733E+03  2.67819E+03 -8.96730E+02  1.64606E+03  7.65533E+02
  1.19796E+03  1.63559E+03  1.73404E+03  8.48592E+02 -6.20593E+02  5.83328E+02  2.08492E+03 -1.38968E+03
  1.30293E+03  1.25645E+02  3.07659E+03  1.09756E+03 -8.27931E+01  3.05571E+03 -1.06797E+03  5.24511E+03
 -3.89783E+03  3.35523E+03 -3.66135E+03  1.38078E+03 -4.34539E+03 -1.26801E+03 -1.89762E+03 -2.30347E+03
  7.25561E+02 -3.00117E+03  7.36113E+02 -1.37135E+03  1.47715E+03  7.97278E+02 -8.68916E+02  2.97132E+03
 -3.12504E+03  1.52876E+03 -2.25052E+03 -2.02850E+03 -1.04219E+03 -3.66916E+03  4.40232E+02 -2.97174E+03
  8.79863E+02 -2.27941E+03  2.55009E+03  2.33003E+02  2.32417E+03  1.40734E+03  4.39050E+02  1.94658E+03
 -1.04319E+03  9.15848E+02 -1.77741E+03 -9.13714E+02  1.46132E+03 -1.73327E+03  2.53890E+03 -1.10627E+03
  3.58761E+03 -8.57831E+02  4.89232E+03  3.94652E+03  9.02596E+02  4.52233E+03 -7.52067E+02  3.42713E+03
 -3.32595E+03  7.91450E+02 -3.74537E+03 -9.07410E+02 -3.58357E+03 -3.76690E+03  2.72216E+02 -1.19791E+03
  2.20208E+03 -1.28620E+03  1.45608E+03  5.51778E+02  1.11836E+03  1.68916E+03 -8.97708E+01  2.10311E+03
 -6.09766E+02  1.59239E+03 -1.03969E+03  4.26757E+02 -5.61763E+02 -6.44221E+01 -1.69651E+03  1.24115E+03
 -1.23609E+03  1.57580E+03 -4.02611E+03  1.80904E+03 -3.28255E+03 -9.87635E+01 -4.10985E+03 -2.33166E+03
 -2.88216E+03 -4.26779E+03  7.82239E+02 -6.23889E+03  3.26416E+03 -4.93767E+03  5.71987E+03 -1.68199E+03
  5.64015E+03  1.23464E+03  2.63098E+03  2.95759E+03 -6.24440E+02  2.41121E+03 -1.93882E+03  3.17293E+03
 -2.01562E+03  4.56481E+02 -1.40405E+03  7.44397E+02 -1.03576E+03 -5.68524E+02 -9.59125E+02  4.74205E+01
 -9.80715E+02  7.46469E+02 -1.15682E+03 -2.95477E+02  7.10643E+02 -1.90363E+03 -9.16236E+02 -1.02320E+03
  2.79710E+03 -1.23046E+03  2.99811E+03  9.84715E+02  1.70280E+03  2.97969E+03 -5.41317E+02  4.26651E+03
 -2.77931E+03  3.16669E+03 -4.22738E+03  2.42086E+03 -3.28088E+03 -1.03742E+03 -3.91168E+03 -3.86721E+03
 -1.49170E+03 -4.26986E+03  4.68021E+02 -3.83714E+03  2.36089E+03 -1.31153E+03  2.16057E+03  4.96615E+02
  1.35901E+03  2.20747E+02  1.31905E+03  8.08372E+02  1.79147E+01 -7.04890E+01 -1.75102E+00 -1.12447E+03
  2.08010E+03  4.92714E+02  1.91190E+03  4.30731E+02  7.88774E+02  1.47946E+03 -4.14933E+02  1.15372E+03
 -1.59774E+03  1.31971E+03 -2.00353E+03 -6.09332E+02 -2.48596E+03 -1.67734E+03  1.11831E+03 -2.41017E+03
  1.18254E+03 -2.95198E+03  2.19896E+03 -5.06335E+01  3.10176E+03 -8.29885E+01  2.05064E+03  2.07174E+03
  1.98427E+02  2.08885E+03 -4.91733E+02  2.79690E+03 -7.66697E+02  9.85862E+02 -1.20330E+03 -1.66741E+02
  7.64801E+01  1.35799E+02  3.48980E+02  5.66337E+02 -7.29914E+02  6.23798E+02 -2.64226E+03  8.08890E+02
 -2.30539E+03 -5.30741E+02 -2.46026E+02 -2.20498E+03  2.31478E+03 -3.09069E+03  2.58586E+03 -1.31121E+03
  2.17876E+03  8.64820E+02  8.02763E+02  3.39130E+02 -6.59547E+02  1.22335E+03 -9.22329E+02  7.68404E+01
