 $NMID ID='MM_0lb_SNR200_8hz_g45_12.RAW', FMTDAT='(8E13.5)'
 TRAMP=1., VOLUME=1. $END
  3.10914E+05  2.17680E+03  3.38931E+05  2.51144E+05  8.54708E+04  3.38479E+05 -1.34622E+05  2.52292E+05
 -1.90893E+05  8.44490E+04 -1.11379E+05 -3.44026E+04  9.23419E+02 -5.22602E+04  5.33630E+04 -1.31758E+03
  3.40328E+04  5.28897E+04 -1.78472E+04  7.70303E+04 -6.05947E+04  6.42748E+04 -8.65843E+04  3.03680E+04
 -8.02152E+04 -1.06717E+04 -5.88054E+04 -5.33833E+04 -1.59726E+04 -7.06865E+04  2.82987E+04 -4.67047E+04
  4.16132E+04  4.57422E+03  1.53257E+04  4.87695E+04 -3.47271E+04  4.76527E+04 -6.74048E+04  4.56066E+02
 -5.35861E+04 -5.86515E+04 -7.97975E+03 -7.98292E+04  3.42255E+04 -5.67413E+04  5.00955E+04 -1.95373E+04
  4.46678E+04  9.65623E+03  3.34274E+04  2.72397E+04  1.59937E+04  3.01567E+04 -6.19591E+03  2.68590E+04
 -2.25320E+04  1.25075E+04 -1.78543E+04 -6.16204E+03  8.26924E+03 -7.83376E+03  2.52136E+04  1.27381E+04
  6.46964E+03  3.61298E+04 -3.56580E+04  3.77080E+04 -6.60174E+04  1.30365E+03 -5.88050E+04 -4.66684E+04
 -1.31838E+04 -6.61676E+04  4.01722E+04 -4.68004E+04  6.12957E+04 -4.91256E+03  3.69434E+04  3.30355E+04
 -5.53353E+03  4.07815E+04 -3.22558E+04  1.77789E+04 -3.35348E+04 -4.75517E+03 -1.95523E+04 -1.40339E+04
 -1.00740E+04 -1.40595E+04  4.90523E+02 -2.26558E+04  1.02257E+04 -2.40564E+04  1.66991E+04 -1.20033E+04
  1.01102E+04  4.15078E+03 -1.16843E+04  1.10959E+04 -2.31066E+04 -6.45096E+03 -7.33191E+03 -3.66882E+04
  2.70444E+04 -4.81267E+04  5.34982E+04 -2.27247E+04  4.94792E+04  2.10069E+04  1.64955E+04  4.84970E+04
 -1.49739E+04  3.50930E+04 -2.70320E+04  2.14849E+03 -1.18805E+04 -2.97060E+04  2.17916E+04 -3.76415E+04
  4.50216E+04 -1.06089E+04  4.17741E+04  2.42906E+04  2.27054E+04  5.42694E+04 -7.32313E+03  5.71731E+04
 -3.53532E+04  3.90727E+04 -4.82109E+04  1.01834E+04 -4.82089E+04 -1.85781E+04 -2.70360E+04 -4.17110E+04
  7.36812E+03 -4.22538E+04  3.42096E+04 -1.75724E+04  3.20005E+04  1.17364E+04  5.16127E+03  2.29174E+04
 -1.39470E+04  1.03674E+04 -1.07008E+04 -6.89073E+03  6.62656E+03 -1.27766E+04  2.00051E+04  5.84305E+03
  1.51497E+04  2.33696E+04 -5.02561E+03  2.67002E+04 -2.25778E+04  1.53629E+04 -3.15850E+04 -3.98721E+03
 -2.68884E+04 -1.82661E+04 -1.41829E+04 -2.40065E+04  4.57092E+03 -2.41907E+04  1.98579E+04 -2.33131E+04
  3.27998E+04 -1.40290E+04  3.88751E+04  7.60579E+03  2.78112E+04  2.50191E+04  4.76268E+03  4.29907E+04
 -2.12985E+04  3.35893E+04 -3.12860E+04  1.13030E+04 -2.31364E+04 -9.82866E+03 -5.83998E+03 -1.24687E+04
 -7.44301E+02 -8.70517E+02 -8.30840E+03  8.48339E+03 -2.32558E+04  4.15818E+03 -2.00976E+04 -9.17155E+03
 -1.15619E+04 -2.45483E+04  5.53682E+03 -2.75498E+04  2.03681E+04 -1.97317E+04  2.34489E+04 -2.72372E+03
  1.68826E+04  1.71550E+04  1.03214E+03  2.34635E+04 -1.70784E+04  1.33256E+04 -2.43838E+04 -4.87102E+03
 -1.75164E+04 -2.23069E+04 -1.66718E+03 -2.97570E+04  1.31712E+04 -2.23380E+04  2.45377E+04 -1.09261E+04
  2.39106E+04  6.73437E+02  1.72092E+04  4.39554E+03  8.29873E+03  8.23455E+02  1.27988E+04 -1.09166E+03
  2.14848E+04  4.39147E+03  2.51725E+04  1.98460E+04  1.86408E+04  3.84417E+04 -1.80924E+03  4.54957E+04
 -2.64896E+04  3.80084E+04 -4.17750E+04  2.01666E+04 -4.59776E+04 -5.02355E+03 -3.75394E+04 -2.71147E+04
 -1.49700E+04 -3.98848E+04  1.44858E+04 -3.28260E+04  2.88511E+04 -1.58581E+04  2.30237E+04  8.42264E+03
  7.39161E+03  1.79054E+04 -1.23885E+04  1.51606E+04 -2.08289E+04  1.58832E+03 -1.43450E+04 -1.36189E+04
  5.84355E+02 -1.97552E+04  1.12944E+04 -1.53799E+04  1.32309E+04 -1.01979E+03  2.39595E+03  7.49389E+03
 -9.32562E+03  4.96715E+03 -1.01368E+04 -6.00149E+03 -3.29220E+03 -1.79030E+04  1.34744E+04 -1.95698E+04
  2.43390E+04 -1.11968E+04  2.67281E+04  2.17679E+03  2.34630E+04  2.19632E+04  1.09315E+04  3.03797E+04
 -5.38611E+03  3.29868E+04 -2.07778E+04  2.05164E+04 -2.27871E+04  4.19720E+03 -1.69311E+04 -5.35928E+03
 -6.53890E+03 -7.40053E+03 -1.40495E+03  6.59568E+02 -2.41384E+03  5.14050E+03 -8.52824E+03  4.53549E+03
 -1.32088E+04 -1.08073E+03 -1.30229E+04 -1.23645E+04 -5.64774E+03 -2.10229E+04  7.72680E+03 -1.79225E+04
  1.47830E+04 -8.26917E+03  9.45426E+03  4.33640E+03 -1.80660E+03  8.52048E+03 -6.28309E+03 -9.80574E+02
 -7.30976E+03 -9.79840E+03 -1.14876E+03 -1.70552E+04  9.20851E+03 -1.70272E+04  2.16793E+04 -9.46170E+03
  2.44152E+04  1.49813E+03  1.67698E+04  1.43116E+04  4.06323E+03  1.77838E+04 -9.61984E+03  1.67054E+04
 -1.22508E+04  5.07659E+03 -8.09784E+03 -3.54705E+03  1.70887E+03 -2.94088E+03  9.00575E+03 -1.72989E+03
  8.17596E+03  7.00978E+03  1.78442E+03  1.25639E+04 -9.21897E+03  1.19915E+04 -1.56216E+04  2.65730E+03
 -1.16640E+04 -7.47148E+03  1.48965E+03 -1.38622E+04  9.93377E+03 -7.51525E+03  9.04997E+03  2.13050E+03
  2.43475E+03  9.22278E+03 -8.39110E+03  1.22539E+04 -1.55298E+04  5.59905E+03 -1.56109E+04 -5.44407E+03
 -8.56818E+03 -1.74902E+04  3.69747E+03 -1.96895E+04  1.57602E+04 -1.11364E+04  1.77717E+04  2.66590E+03
  1.10316E+04  1.27115E+04 -1.34935E+03  1.70271E+04 -1.30982E+04  7.38544E+03 -1.38221E+04 -1.57435E+03
 -1.26283E+04 -1.15137E+04 -1.25256E+03 -1.15202E+04  7.44520E+03 -9.50845E+03  8.97593E+03 -4.56193E+03
  4.93319E+03  2.56297E+03 -1.13109E+03  1.03649E+03 -1.29425E+03 -3.98708E+03  3.41517E+03 -7.99949E+03
  1.30263E+04 -5.32788E+03  1.84811E+04  2.87834E+03  1.59256E+04  1.20730E+04  9.47903E+03  2.28428E+04
 -4.13831E+03  2.44876E+04 -2.06659E+04  1.84189E+04 -2.64266E+04  3.31403E+03 -2.33136E+04 -1.03071E+04
 -1.05496E+04 -1.78550E+04 -2.74362E+02 -1.64044E+04  5.97359E+03 -8.53582E+03  5.78076E+03 -4.43420E+03
  4.17841E+03 -4.75333E+03  5.77974E+03 -2.82884E+03  7.65635E+03 -4.14891E+03  9.12169E+03 -3.03902E+03
  1.20348E+04  1.43507E+03  6.01650E+03  1.01075E+04 -2.56238E+03  1.24165E+04 -1.29137E+04  1.04751E+04
 -1.60920E+04 -1.16383E+03 -9.51941E+03 -1.17881E+04 -5.43840E+02 -1.57488E+04  8.34612E+03 -1.82183E+04
  1.63661E+04 -8.38078E+03  2.12346E+04  4.06817E+03  1.51050E+04  1.48648E+04  1.39946E+03  1.82679E+04
 -8.17716E+03  1.42013E+04 -1.07793E+04  4.18800E+03 -6.61603E+03 -1.29626E+03 -2.76776E+03 -2.65525E+03
 -1.98441E+03 -2.77754E+02 -2.78838E+03  3.17525E+03 -5.72880E+03  1.73232E+03 -9.52260E+03 -1.90783E+03
 -6.62077E+03 -1.12746E+04 -7.16398E+02 -1.62601E+04  9.93649E+03 -1.40390E+04  1.56880E+04 -6.00868E+03
  1.68297E+04  7.00903E+03  6.64525E+03  1.44083E+04 -3.19316E+03  1.61444E+04 -1.09755E+04  1.12111E+04
 -1.56395E+04  2.77173E+02 -1.19236E+04 -1.14433E+04 -1.44962E+03 -1.40638E+04  6.85953E+03 -1.12216E+04
  1.01841E+04 -3.16910E+03  5.98094E+03  2.31848E+03  2.70322E+03  4.37301E+03  2.36363E+03  9.46175E+02
  3.53952E+03  8.64187E+02  2.46693E+03  2.85474E+03  3.92651E+03  6.67775E+03  4.94574E+03  8.72184E+03
 -1.96932E+03  1.39505E+04 -1.20693E+04  1.16561E+04 -1.59342E+04  3.20474E+03 -1.74654E+04 -7.35674E+03
 -7.75490E+03 -1.76894E+04  2.73772E+03 -1.76934E+04  1.08579E+04 -1.09246E+04  1.30143E+04 -1.85973E+03
  1.11400E+04  6.49819E+03  3.00828E+03  9.47500E+03 -5.00311E+03  5.59683E+03 -9.08636E+03  1.96519E+02
 -3.81794E+03 -5.88634E+03  2.85889E+03 -5.81818E+03  7.03088E+03 -4.71905E+03  5.76794E+03  2.14407E+03
  4.13897E+03  4.14826E+03  2.03919E+03  1.63750E+03  5.12988E+02  2.44227E+03  2.86207E+03 -5.53685E+02
  3.40397E+03 -1.25545E+03  7.23876E+03  3.12147E+03  3.24959E+03  7.52189E+03 -3.21559E+03  1.11735E+04
 -8.22372E+03  7.74852E+03 -1.25583E+04  2.41754E+03 -1.06178E+04 -3.21785E+03 -3.99024E+03 -6.49603E+03
  2.24150E+03 -6.88681E+03  4.80774E+03 -1.89379E+03  2.53389E+03  3.48167E+03 -2.73872E+03  5.98817E+03
 -7.62105E+03  1.79391E+03 -7.55863E+03 -3.55245E+03 -5.26091E+03 -9.60066E+03  7.11360E+02 -1.01179E+04
  6.35282E+03 -4.59136E+03  7.17905E+03 -1.81111E+02  4.88448E+03  4.40569E+03  1.93553E+03  4.57556E+03
 -3.80064E+03  9.34325E+02 -3.64360E+03 -3.31828E+03  1.22348E+03 -8.70153E+03  7.74101E+03 -5.94895E+03
  1.18397E+04  1.27171E+03  1.07437E+04  6.95254E+03  2.69405E+03  1.14817E+04 -4.68106E+03  1.06712E+04
 -8.72784E+03  5.52497E+03 -9.55922E+03 -1.81074E+03 -4.01821E+03 -8.40549E+03  1.46749E+03 -6.56226E+03
  8.28790E+03 -3.39783E+03  5.92301E+03  3.58749E+03  2.06026E+03  6.96611E+03 -2.37200E+03  5.28837E+03
 -3.46306E+03  3.64041E+03 -1.62634E+03  1.03648E+03 -2.33198E+03  2.85524E+03 -1.93029E+03  2.16519E+03
 -3.62330E+03  3.08787E+03 -8.58659E+03  3.11035E+03 -9.49880E+03  8.89708E+02 -1.33784E+04 -7.70855E+03
 -6.63005E+03 -1.60978E+04  3.18248E+03 -1.74350E+04  1.31590E+04 -1.29518E+04  1.70060E+04 -5.58435E+03
  1.61686E+04  2.24191E+03  9.19129E+03  1.24952E+04  1.88095E+03  1.16016E+04 -2.67866E+03  8.09331E+03
 -6.61173E+03  3.22619E+03 -6.10529E+03 -6.42025E+02 -4.43923E+01 -2.69909E+03 -2.65823E+03  1.49887E+02
 -1.77097E+03  9.96181E+02 -2.27238E+03 -1.06895E+03  4.54945E+02 -2.76708E+03  5.44447E+02 -4.35134E+03
  7.47950E+03 -2.29028E+03  5.69674E+03 -1.11774E+03  9.50613E+03  6.74725E+03  3.62355E+03  1.23225E+04
 -6.34660E+03  1.40325E+04 -1.28963E+04  8.94184E+03 -1.44029E+04 -8.90932E+02 -1.21594E+04 -8.28746E+03
 -3.64631E+03 -1.40178E+04  1.44000E+03 -1.04579E+04  7.35984E+03 -6.23206E+03  7.44696E+03  1.04232E+03
  4.81194E+03  5.24656E+03 -1.28948E+03  5.27568E+03 -8.09101E+02 -5.74928E+02 -2.09425E+02 -4.17190E+03
  5.54072E+03 -2.59573E+03  6.12505E+03  1.35572E+03  4.27572E+03  6.02306E+03  1.17616E+03  5.98085E+03
 -5.86025E+03  6.52659E+03 -8.67083E+03  1.18442E+03 -7.90938E+03 -5.76316E+03 -2.27099E+02 -1.12785E+04
  6.14893E+03 -1.02182E+04  1.15963E+04 -1.58353E+03  9.31737E+03  3.15800E+03  6.92374E+03  7.70878E+03
  1.29693E+03  8.86331E+03 -3.75897E+03  7.72850E+03 -5.77883E+03  3.02375E+03 -4.15440E+03  8.09161E+02
 -4.43152E+03  6.25694E+01 -1.78550E+03 -5.25002E+02 -3.57307E+03  2.85591E+03 -7.25241E+03 -1.70544E+03
 -6.83747E+03 -5.20883E+03 -2.78421E+03 -8.81791E+03  4.59901E+03 -9.84705E+03  8.26318E+03 -2.85922E+03
  8.31378E+03  2.04703E+03  6.50510E+03  7.93374E+03 -1.11964E+03  8.39380E+03 -5.76379E+03  4.25081E+03
