 $NMID ID='MM_0lb_SNR200_10hz_g55_88.RAW', FMTDAT='(8E13.5)'
 TRAMP=1., VOLUME=1. $END
  3.10473E+05  1.07712E+03  3.38164E+05  2.50529E+05  8.55744E+04  3.38304E+05 -1.33294E+05  2.52303E+05
 -1.90132E+05  8.30451E+04 -1.12668E+05 -3.16620E+04 -5.91432E+00 -5.06674E+04  5.25111E+04  5.03564E+01
  3.32597E+04  5.26115E+04 -1.71532E+04  7.59706E+04 -6.09889E+04  6.36334E+04 -8.48318E+04  3.16015E+04
 -8.29476E+04 -1.21958E+04 -5.92375E+04 -5.31288E+04 -1.53644E+04 -6.95592E+04  2.78311E+04 -4.77420E+04
  4.18947E+04  4.34341E+03  1.78491E+04  4.85454E+04 -3.51720E+04  4.95042E+04 -6.80325E+04 -5.82039E+01
 -5.43629E+04 -5.69942E+04 -8.35781E+03 -8.00806E+04  3.45625E+04 -5.66909E+04  5.05101E+04 -1.84644E+04
  4.40009E+04  1.01508E+04  3.41140E+04  2.64929E+04  1.60482E+04  3.00931E+04 -6.35336E+03  2.83551E+04
 -2.28450E+04  1.27461E+04 -1.81023E+04 -5.20071E+03  5.58703E+03 -5.19450E+03  2.36720E+04  1.42193E+04
  6.56928E+03  3.78178E+04 -3.34581E+04  3.63097E+04 -6.54029E+04  2.43525E+03 -5.95689E+04 -4.56029E+04
 -1.14806E+04 -6.61301E+04  4.21574E+04 -4.85306E+04  6.17380E+04 -2.71908E+03  3.68898E+04  3.52553E+04
 -6.90832E+03  3.87345E+04 -3.27031E+04  1.89631E+04 -3.28378E+04 -4.08174E+03 -2.05954E+04 -1.15840E+04
 -7.89544E+03 -1.47840E+04 -1.15083E+02 -2.05680E+04  7.86469E+03 -2.27295E+04  1.65800E+04 -1.21952E+04
  9.43380E+03  5.40220E+03 -9.62206E+03  1.23945E+04 -2.37664E+04 -6.24581E+03 -8.35567E+03 -3.72891E+04
  2.50080E+04 -4.58231E+04  5.04387E+04 -2.14350E+04  4.93076E+04  2.12244E+04  1.79308E+04  4.69191E+04
 -1.55036E+04  3.58546E+04 -2.74056E+04  3.22077E+03 -1.31630E+04 -2.85254E+04  2.16981E+04 -3.73297E+04
  4.41196E+04 -1.17474E+04  4.01811E+04  2.56794E+04  2.10583E+04  5.18728E+04 -9.40854E+03  5.59133E+04
 -3.51478E+04  3.89134E+04 -4.69165E+04  1.06497E+04 -4.60984E+04 -1.88710E+04 -2.52270E+04 -4.24045E+04
  9.70529E+03 -3.98459E+04  3.41559E+04 -1.86545E+04  3.16067E+04  1.02460E+04  3.73106E+03  1.87507E+04
 -1.29643E+04  1.05083E+04 -1.10369E+04 -7.07949E+03  5.93620E+03 -1.10397E+04  1.78718E+04  6.40710E+03
  1.60229E+04  2.27964E+04 -4.42762E+03  2.72571E+04 -2.26697E+04  1.28958E+04 -3.07962E+04 -2.93042E+03
 -2.50557E+04 -1.86080E+04 -1.04865E+04 -2.47652E+04  3.27390E+03 -2.52539E+04  1.89436E+04 -2.20120E+04
  3.10237E+04 -1.51461E+04  3.77628E+04  5.47237E+03  2.52163E+04  2.39892E+04  5.50802E+03  4.07861E+04
 -1.91609E+04  3.46934E+04 -3.08650E+04  1.15456E+04 -2.31318E+04 -1.08809E+04 -5.13337E+03 -1.21944E+04
  1.76348E+03 -7.73044E+02 -6.82780E+03  8.16738E+03 -2.05130E+04  5.87504E+03 -1.90371E+04 -1.05537E+04
 -1.06825E+04 -2.40560E+04  6.79936E+03 -2.69321E+04  1.79599E+04 -1.90469E+04  2.17866E+04 -2.06063E+03
  1.31946E+04  1.48271E+04 -1.65581E+03  2.35038E+04 -1.64317E+04  1.28458E+04 -2.05932E+04 -5.17505E+03
 -1.60186E+04 -2.01144E+04 -1.45632E+03 -2.71761E+04  1.25445E+04 -2.29151E+04  2.39284E+04 -1.24788E+04
  2.13088E+04 -1.21374E+03  1.49895E+04  5.66545E+03  8.34337E+03  1.33482E+03  1.13387E+04 -3.56668E+03
  2.11710E+04  3.27234E+03  2.50411E+04  1.73654E+04  1.83003E+04  3.72923E+04 -2.78767E+03  4.23645E+04
 -2.51796E+04  3.48620E+04 -4.16744E+04  1.87501E+04 -4.21375E+04 -2.25096E+03 -3.63667E+04 -2.45914E+04
 -1.42360E+04 -3.55648E+04  1.35734E+04 -3.02078E+04  2.76768E+04 -1.54301E+04  2.42929E+04  7.63279E+03
  8.38419E+03  1.80094E+04 -1.17206E+04  1.56741E+04 -1.96564E+04  1.25719E+03 -1.59975E+04 -1.12110E+04
 -9.27190E+02 -1.84146E+04  9.45164E+03 -1.46132E+04  1.23921E+04 -2.09549E+03  3.19505E+03  9.02356E+03
 -8.40020E+03  3.43340E+03 -9.79404E+03 -5.33332E+03 -1.79596E+03 -1.77728E+04  1.00845E+04 -1.89744E+04
  2.33391E+04 -9.46795E+03  2.24623E+04  4.14807E+03  2.13641E+04  1.80535E+04  1.09443E+04  2.76493E+04
 -4.60370E+03  3.17241E+04 -2.00779E+04  1.89331E+04 -2.26052E+04  4.41488E+03 -1.46902E+04 -5.72429E+03
 -7.46619E+03 -7.38685E+03 -2.19970E+02  1.94402E+03 -3.11601E+03  3.05298E+03 -6.47077E+03  7.20545E+03
 -1.44839E+04 -5.73982E+02 -1.53591E+04 -1.01587E+04 -5.69176E+03 -1.83046E+04  6.11491E+03 -1.52618E+04
  1.22529E+04 -5.19196E+03  6.85744E+03  3.10683E+03  8.90923E+02  5.41271E+03 -8.50748E+03 -7.58010E+02
 -6.21376E+03 -9.81506E+03 -4.54708E+02 -1.37885E+04  8.43320E+03 -1.46478E+04  1.93176E+04 -7.48771E+03
  2.21030E+04  2.33768E+03  1.69395E+04  1.33455E+04  3.61276E+03  1.78555E+04 -9.74093E+03  1.47439E+04
 -1.26058E+04  4.08375E+03 -6.08849E+03 -4.71569E+03  1.93005E+03 -4.26499E+03  7.07930E+03 -2.20672E+02
  7.48825E+03  6.00047E+03  2.18978E+03  1.29917E+04 -9.38424E+03  1.11808E+04 -1.53299E+04  3.02112E+03
 -1.16764E+04 -9.21513E+03  2.53679E+01 -1.34792E+04  8.01183E+03 -6.14399E+03  8.70177E+03  3.74480E+03
  9.83490E+02  9.72115E+03 -8.35180E+03  1.02998E+04 -1.39180E+04  5.10978E+03 -1.30543E+04 -3.96857E+03
 -6.87881E+03 -1.47610E+04  3.94757E+03 -1.79054E+04  1.44516E+04 -1.02470E+04  1.53483E+04  2.78751E+03
  8.62957E+03  1.32823E+04 -1.42419E+03  1.42412E+04 -1.02679E+04  8.01070E+03 -1.20023E+04 -2.43289E+03
 -9.67367E+03 -8.84363E+03 -1.70914E+03 -1.06748E+04  5.65717E+03 -8.82876E+03  6.80050E+03 -4.34455E+03
  4.73410E+03  2.26191E+03 -2.26718E+03  4.93540E+02 -7.91514E+02 -3.83265E+03  1.96105E+03 -6.84613E+03
  1.18181E+04 -4.39916E+03  1.56844E+04  1.52311E+03  1.46331E+04  9.01108E+03  9.44432E+03  1.96924E+04
 -5.91733E+03  2.16540E+04 -2.05872E+04  1.70503E+04 -2.60714E+04  3.72479E+03 -1.92658E+04 -8.79555E+03
 -9.36465E+03 -1.66661E+04 -7.12863E+02 -1.21338E+04  3.92670E+03 -8.64679E+03  5.53709E+03 -4.40883E+03
  4.14718E+03 -3.48956E+03  4.31873E+03 -4.54248E+03  6.50898E+03 -3.02214E+03  7.37446E+03 -1.10102E+03
  1.03657E+04  2.08737E+03  4.74282E+03  8.47151E+03 -1.85654E+03  8.62216E+03 -9.27683E+03  7.96244E+03
 -1.30281E+04 -1.63443E+03 -9.98791E+03 -1.03352E+04 -1.88304E+03 -1.58507E+04  7.11592E+03 -1.42444E+04
  1.34527E+04 -8.56047E+03  1.70530E+04  3.01979E+03  1.26340E+04  1.26096E+04  2.62438E+03  1.58899E+04
 -7.22869E+03  1.35265E+04 -9.74443E+03  4.95244E+03 -6.03999E+03 -2.05977E+03 -3.11088E+03 -3.38999E+03
  3.96860E+02  7.50653E+02 -3.07715E+03  2.75651E+03 -6.04859E+03  2.87219E+03 -9.98849E+03 -2.28355E+03
 -8.17290E+03 -9.54547E+03 -9.91250E+02 -1.33726E+04  7.73807E+03 -1.36574E+04  1.24875E+04 -4.54928E+03
  1.27577E+04  6.15483E+03  7.00015E+03  1.23597E+04 -2.36350E+03  1.23374E+04 -1.04408E+04  7.71740E+03
 -1.46173E+04  3.14522E+02 -1.01666E+04 -8.05557E+03 -7.96194E+02 -1.04381E+04  4.96059E+03 -7.93523E+03
  9.89008E+03 -1.05683E+03  6.01921E+03  2.67583E+03  2.36472E+03  5.76589E+03  2.63345E+03  1.06565E+03
  2.14110E+03  1.89682E+03  2.87355E+03  1.69619E+03  3.99399E+03  5.04330E+03  3.76614E+03  8.01880E+03
 -1.68415E+03  1.10913E+04 -9.56249E+03  1.13296E+04 -1.41847E+04  3.26333E+03 -1.46799E+04 -7.53606E+03
 -7.99527E+03 -1.31738E+04  3.42456E+03 -1.48549E+04  7.43960E+03 -9.70594E+03  1.09679E+04 -1.41279E+03
  9.15843E+03  6.04047E+03  3.71705E+03  6.82845E+03 -3.64616E+03  5.78095E+03 -6.40487E+03 -1.79571E+02
 -3.81369E+03 -6.53665E+03  3.54975E+03 -5.70220E+03  6.07298E+03 -3.90736E+03  5.21175E+03  7.39945E+02
  2.58946E+03  2.49407E+03  2.71195E+02  2.84040E+03 -7.26527E+02  9.34211E+02  7.73815E+02  1.11174E+03
  2.84324E+03  7.04879E+02  4.79677E+03  3.41923E+03  2.68696E+03  7.26536E+03  4.31652E+02  9.27796E+03
 -6.80463E+03  5.43268E+03 -7.00754E+03  2.98421E+03 -8.05956E+03 -3.60556E+03 -2.02314E+03 -5.85366E+03
  2.02602E+02 -3.66640E+03  4.04968E+03 -2.72279E+03  4.39215E+03  2.57847E+03 -1.58876E+03  4.59824E+03
 -5.58050E+03  4.05249E+03 -6.21219E+03 -2.34960E+03 -3.89871E+03 -6.92552E+03  1.10540E+03 -7.73169E+03
  4.13728E+03 -5.03230E+03  5.65462E+03  1.47237E+02  3.56954E+03  7.88246E+02  3.69939E+02  3.65981E+03
 -1.70362E+03  5.85106E+02 -3.16788E+03 -3.16565E+03  1.13584E+03 -5.22785E+03  5.05004E+03 -5.59068E+03
  9.18846E+03  6.99956E+02  9.39000E+03  6.39767E+03  2.83788E+03  8.79562E+03 -3.72242E+03  8.56300E+03
 -7.74881E+03  3.56929E+03 -8.14772E+03 -2.94839E+03 -4.26125E+03 -6.38149E+03  2.06266E+03 -6.81369E+03
  5.57943E+03 -3.41610E+03  4.03764E+03  2.88626E+03  1.46951E+03  5.43102E+03  4.94302E+02  4.69522E+03
 -2.71890E+03  3.05745E+03 -1.60235E+03  3.75035E+02 -8.05705E+02  2.07748E+03 -1.57140E+03  1.45638E+03
 -2.43089E+03  3.70365E+03 -6.49231E+03  2.62817E+03 -8.08770E+03  5.67666E+02 -8.97739E+03 -5.30901E+03
 -4.76926E+03 -1.11303E+04  2.07459E+03 -1.29775E+04  9.92439E+03 -1.02282E+04  1.39399E+04 -3.78831E+03
  1.06591E+04  3.15886E+03  7.41985E+03  9.01864E+03 -9.11110E+02  9.33022E+03 -2.09434E+03  6.04540E+03
 -5.67313E+03  3.30090E+03 -1.67215E+03  1.32185E+03 -2.63599E+03 -2.03811E+03 -4.64989E+02 -4.71433E+02
 -2.30300E+03  1.56353E+03 -1.53701E+03 -2.14050E+02 -3.60465E+02 -2.19099E+03 -4.64551E+02 -2.30893E+03
  4.20894E+03 -2.95837E+03  5.94229E+03  1.43864E+03  5.25749E+03  5.70124E+03  1.28536E+03  7.71271E+03
 -3.81161E+03  9.90956E+03 -9.40585E+03  6.91671E+03 -1.11673E+04 -1.48250E+02 -8.35172E+03 -6.56597E+03
 -3.92362E+03 -8.32475E+03  3.00592E+03 -8.34302E+03  5.76112E+03 -5.03226E+03  7.76211E+03 -6.08288E+02
  2.51819E+03  3.23966E+03 -8.52021E+02  3.29071E+03 -2.29461E+03 -1.02107E+03 -3.03073E+02 -3.90387E+03
  2.07107E+03 -9.73011E+02  3.57060E+03  5.82576E+02  2.63986E+03  4.01669E+03  7.77908E+01  5.41003E+03
 -4.06311E+03  4.43632E+03 -6.16923E+03  4.34659E+02 -4.19672E+03 -5.39263E+03 -4.46394E+02 -8.35781E+03
  3.68110E+03 -4.82933E+03  6.36024E+03 -3.01558E+03  7.32402E+03  1.21151E+03  4.44547E+03  7.18324E+03
 -3.79431E+01  6.83755E+03 -1.69406E+03  5.49414E+03 -3.37663E+03  4.39568E+03 -2.03996E+03 -2.92877E+02
 -1.63103E+03  6.51576E+02 -1.53245E+03 -5.65050E+02 -2.58127E+03  7.28703E+02 -5.66126E+03 -8.47040E+02
 -4.10177E+03 -3.13618E+03 -2.84122E+03 -5.12177E+03  2.85875E+03 -5.60727E+03  5.75564E+03 -4.02347E+03
  6.20676E+03  2.14942E+03  2.58497E+03  3.90831E+03 -5.05957E+02  6.53894E+03 -6.70250E+03  5.15024E+03
