 $NMID ID='MM_0lb_SNR200_20hz_g40_51.RAW', FMTDAT='(8E13.5)'
 TRAMP=1., VOLUME=1. $END
  3.09290E+05  1.28829E+03  3.36602E+05  2.49711E+05  8.35498E+04  3.36482E+05 -1.30233E+05  2.48915E+05
 -1.89485E+05  8.14388E+04 -1.09922E+05 -3.27498E+04  2.41940E+03 -4.98221E+04  5.38271E+04 -8.13871E+02
  3.57401E+04  5.29188E+04 -1.76123E+04  7.44607E+04 -5.91929E+04  6.21389E+04 -8.21973E+04  3.18893E+04
 -7.97578E+04 -1.05045E+04 -5.46391E+04 -4.93257E+04 -1.48966E+04 -6.78892E+04  2.65699E+04 -4.35184E+04
  3.89407E+04  3.38030E+03  1.55736E+04  4.62256E+04 -3.37761E+04  4.57422E+04 -6.42302E+04 -1.18175E+03
 -5.24163E+04 -5.51890E+04 -6.32253E+03 -7.41910E+04  3.24037E+04 -5.20347E+04  4.59003E+04 -1.61946E+04
  4.07535E+04  1.20198E+04  3.01960E+04  2.40951E+04  1.63539E+04  2.75667E+04 -2.97176E+03  2.57658E+04
 -2.17232E+04  1.24564E+04 -1.90206E+04 -4.04364E+03  3.44010E+03 -7.15930E+03  2.03644E+04  1.09052E+04
  7.05035E+03  3.21081E+04 -2.91692E+04  3.40572E+04 -5.91635E+04  1.78422E+03 -5.38325E+04 -4.04477E+04
 -1.24963E+04 -5.92987E+04  3.58622E+04 -4.14997E+04  5.37853E+04 -1.76333E+03  3.02157E+04  3.01871E+04
 -7.07498E+03  3.11265E+04 -2.70630E+04  1.33437E+04 -2.58923E+04 -5.63284E+03 -1.39077E+04 -1.04429E+04
 -6.48472E+03 -1.11598E+04 -1.69960E+03 -1.55286E+04  6.92936E+03 -2.15677E+04  1.53944E+04 -1.50623E+04
  1.30696E+04  3.38556E+03 -4.49596E+03  1.39003E+04 -1.78836E+04 -1.97376E+03 -7.87814E+03 -2.82605E+04
  1.96517E+04 -3.87845E+04  4.24564E+04 -1.76624E+04  4.06239E+04  1.68153E+04  1.40161E+04  4.03279E+04
 -1.58857E+04  3.09156E+04 -2.28611E+04  7.30580E+02 -7.86640E+03 -2.48370E+04  2.04274E+04 -2.99525E+04
  3.59379E+04 -5.95272E+03  2.88315E+04  2.19649E+04  1.38434E+04  4.06730E+04 -7.60186E+03  4.28044E+04
 -2.63678E+04  2.79014E+04 -3.49510E+04  7.76477E+03 -3.68382E+04 -1.44891E+04 -2.03890E+04 -3.28409E+04
  6.70228E+03 -3.26093E+04  2.84081E+04 -1.27278E+04  2.55563E+04  9.73801E+03  2.33407E+03  1.70139E+04
 -1.20009E+04  7.82127E+03 -8.88699E+03 -7.32899E+03  6.35953E+03 -9.84107E+03  1.70819E+04  6.24356E+03
  1.20858E+04  2.06238E+04 -6.74601E+03  2.23751E+04 -2.00944E+04  8.60139E+03 -2.41947E+04 -6.36834E+03
 -1.42368E+04 -1.72687E+04 -3.85134E+03 -1.54612E+04  4.26168E+03 -1.10623E+04  1.11860E+04 -1.27116E+04
  1.82789E+04 -1.07740E+04  2.61092E+04  4.97849E+02  1.98259E+04  1.38474E+04  3.69697E+03  3.04730E+04
 -1.47186E+04  2.52972E+04 -2.57627E+04  9.07168E+03 -1.98709E+04 -9.99435E+03 -2.92218E+03 -1.26833E+04
  1.70903E+03 -5.03737E+03 -1.76180E+03  3.96522E+03 -1.13819E+04  5.94421E+03 -1.24129E+04 -3.90676E+03
 -7.84330E+03 -1.33972E+04  3.98537E+03 -1.73712E+04  1.08085E+04 -1.24904E+04  1.26096E+04 -2.01469E+03
  8.12934E+03  1.04623E+04 -1.61133E+03  1.34796E+04 -9.25546E+03  6.36754E+03 -1.32062E+04 -3.11293E+03
 -1.08695E+04 -1.28422E+04 -1.42374E+03 -1.79870E+04  7.73060E+03 -1.36400E+04  1.45250E+04 -5.60005E+03
  1.34980E+04  1.24187E+03  9.74070E+03  4.39325E+03  3.78887E+03  7.09405E+02  5.40360E+03 -1.38084E+03
  1.12958E+04  4.48435E+03  1.31969E+04  1.19478E+04  6.96671E+03  2.30569E+04 -1.97140E+03  2.46113E+04
 -1.36412E+04  1.78937E+04 -2.14408E+04  7.93896E+03 -2.17058E+04 -2.51928E+03 -1.80532E+04 -1.18754E+04
 -9.40588E+03 -1.68301E+04  5.64905E+03 -1.64082E+04  1.48968E+04 -1.08170E+04  1.40819E+04  2.86484E+03
  5.97891E+03  9.85476E+03 -6.73331E+03  9.05417E+03 -1.13734E+04  2.70886E+03 -9.48659E+03 -7.23933E+03
 -5.29877E+02 -1.06589E+04  5.16877E+03 -8.53903E+03  7.32993E+03 -1.71117E+03  1.57602E+03  5.31618E+03
 -5.24042E+03  1.22565E+03 -1.90512E+03 -4.42994E+03  1.32934E+03 -8.20642E+03  7.59466E+03 -8.61346E+03
  1.14781E+04 -3.85695E+03  9.90342E+03  2.38572E+03  8.66950E+03  8.02743E+03  3.47989E+03  1.17179E+04
 -1.87711E+03  1.42446E+04 -8.22319E+03  9.46430E+03 -1.00972E+04  1.99540E+03 -7.40706E+03 -1.06110E+03
 -3.29725E+03 -2.09141E+03 -5.34025E+02  2.17627E+03 -1.84622E+03  2.22132E+03 -4.21586E+03  3.06697E+03
 -6.74478E+03 -4.68481E+02 -7.79653E+03 -7.31105E+03 -2.90877E+03 -1.08957E+04  3.46162E+03 -6.58806E+03
  6.39742E+03 -3.03447E+03  4.61500E+03  1.74214E+03  8.63003E+02  2.44444E+03 -2.98917E+03 -7.70687E+02
 -2.00964E+03 -5.43104E+03 -1.32953E+03 -6.12914E+03  2.95255E+03 -6.92104E+03  8.63403E+03 -3.37375E+03
  9.08696E+03  3.52240E+02  7.85887E+03  5.38674E+03  2.24596E+03  9.06173E+03 -4.29053E+03  7.45720E+03
 -6.38939E+03  2.96440E+03 -2.62434E+03 -1.36125E+03  1.43839E+03 -2.42414E+03  4.69116E+03 -6.10949E+02
  3.55513E+03  2.43525E+03  1.59840E+03  5.83541E+03 -3.73791E+03  6.49497E+03 -6.14867E+03  1.31646E+03
 -5.10491E+03 -2.99741E+03  7.22507E+02 -5.58722E+03  2.70624E+03 -2.09876E+03  3.00041E+03 -1.07470E+02
  1.77220E+03  1.45539E+03 -3.60799E+03  4.02311E+03 -3.96310E+03  2.46504E+03 -2.01588E+03  2.98591E+02
 -2.95490E+03 -4.39185E+03  1.26688E+03 -5.45908E+03  4.49818E+03 -3.80301E+03  5.05294E+03  7.66118E+02
  3.96854E+03  5.00073E+03  6.00830E+02  5.44822E+03 -3.74204E+03  2.97536E+03 -5.46288E+03 -1.23624E+03
 -4.50986E+03 -4.90058E+03 -4.84034E+02 -3.63323E+03  1.95503E+03 -3.86374E+03  2.99460E+03 -2.51025E+03
  1.81665E+03 -8.49979E+02  6.13277E+02  1.27418E+03  7.64221E+02 -4.77274E+02 -3.42173E+02 -2.30844E+03
  3.55869E+03 -4.50294E+02  4.14790E+03  4.95510E+02  4.51567E+03  2.62043E+03  4.77192E+03  4.43811E+03
 -6.87602E+02  6.68247E+03 -5.53804E+03  5.84844E+03 -8.67694E+03  1.52794E+03 -6.55685E+03 -1.27327E+03
 -4.40494E+03 -6.25831E+03  2.91367E+02 -3.98226E+03  2.89243E+03 -1.12304E+03  9.88613E+02 -2.11819E+03
  8.60430E+02 -2.06024E+03  1.40739E+03 -2.37116E+03  2.76002E+03 -6.50669E+02  3.22901E+03 -1.10243E+02
  4.00304E+03  8.22829E+02  7.60057E+02  3.46980E+03 -2.26643E+03  1.36630E+03 -4.23415E+03  1.43744E+03
 -3.99458E+03 -9.07815E+01 -1.12708E+03 -2.18590E+03  7.39865E+02 -4.68528E+03  3.50783E+03 -3.48790E+03
  3.76440E+03 -2.33326E+03  6.13317E+03  1.55833E+02  3.96829E+03  3.23267E+03  1.52230E+03  4.68717E+03
 -7.35101E+02  4.95976E+03 -3.08421E+03  1.63623E+03 -1.09604E+03 -1.05979E+03 -8.85167E+02 -1.13205E+02
 -4.74034E+02  4.11001E+02 -8.49144E+02  1.99667E+03 -1.76734E+03  8.34561E+02 -3.45925E+03 -3.10819E+02
 -6.66213E+02 -3.82332E+03  7.15473E+01 -3.71007E+03  2.02225E+03 -3.79995E+03  3.39969E+03 -1.03298E+03
  2.85343E+03  2.15941E+03  1.42599E+03  2.79504E+03 -5.76857E+02  2.97425E+03 -2.69737E+03  2.22834E+03
 -1.92917E+03  7.38459E+02 -3.11978E+03 -3.62535E+03  4.32734E+02 -2.91518E+03  1.36964E+03 -1.79025E+03
  2.70175E+03 -5.02104E+02  2.13456E+03  2.15730E+02  3.92466E+02  1.96198E+03  1.36251E+03 -1.56939E+02
  1.67142E+03  5.00054E+02  5.40554E+02  1.98974E+03  1.11671E+03  2.22838E+03  1.75039E+03  1.68769E+01
 -1.04589E+03  2.01170E+03 -8.71427E+02  3.93316E+03 -2.35305E+03  5.30348E+02 -3.94862E+03 -5.04513E+02
 -1.36695E+03 -3.60081E+03  7.55880E+02 -3.86581E+03  1.06328E+03 -2.38839E+03  2.40029E+03 -1.04633E+03
  1.54096E+03  2.20888E+03  7.44150E+02  1.04969E+03 -5.45524E+02  1.70297E+03  3.95586E+01 -6.41324E+02
 -4.97897E+02 -1.27105E+03  2.11410E+02 -1.12080E+03  1.31055E+03  1.89195E+02  2.41807E+03  1.34839E+03
  9.25568E+02  8.27317E+02  8.37008E+02 -4.61427E+02 -5.04347E+02  3.05153E+02  6.79575E+02  1.79742E+02
  4.47900E+01  5.80359E+02  1.59244E+03 -4.59294E+02 -2.82555E+02  3.03652E+03  3.57628E+02  2.14720E+03
 -8.60853E+02 -1.57975E+02 -2.13079E+03 -1.44458E+01 -1.75621E+03 -3.59004E+02  5.07338E+02 -5.39577E+02
  1.83307E+02 -1.31627E+03  1.12219E+03  1.01120E+02  4.70105E+02  1.46898E+03 -1.67680E+03  1.12654E+03
 -2.26799E+03  3.53432E+01 -6.34580E+02 -3.10882E+02 -8.33136E+02 -1.69210E+03  8.98643E+02 -5.52246E+02
 -3.39169E+02 -4.17434E+02  5.21640E+02  3.09906E+02  1.47027E+03 -2.25585E+02  5.36507E+02  4.45267E+01
 -2.45866E+02  6.46555E+02 -6.36583E+02  1.09588E+01 -3.91836E+02  3.28312E+00  1.16627E+03 -8.64464E+02
  1.30514E+02  1.70464E+02  2.92701E+03  9.74056E+02  9.90721E+02  8.31006E+02 -2.16101E+02  2.28886E+03
 -3.20474E+02 -3.02642E+02 -8.45867E+02 -1.07803E+02 -9.09980E+02 -1.96466E+02  9.29179E+01 -2.73264E+02
  8.80532E+02 -4.22057E+02  2.15139E+02 -3.04161E+01 -4.56488E+02  1.01594E+03  9.80536E+02  4.24815E+02
 -4.73875E+02  1.64918E+03 -9.83110E+02  5.48700E+02  9.40003E+02  1.03338E+03 -1.00276E+03  1.26291E+03
 -2.63261E+02  5.87317E+02 -1.39318E+03  2.54444E+02 -1.82452E+03  2.31952E+02 -2.17518E+03 -1.22050E+02
 -1.02741E+03 -6.76826E+02  6.99586E+02 -2.88285E+03  2.76824E+02 -2.38817E+03  1.94263E+03  1.52719E+02
  2.62558E+03  1.38279E+02  1.04639E+02  1.82871E+03 -7.10630E+02  3.06978E+02 -1.07607E+03  1.17767E+03
 -2.59418E+01  8.72433E+02  3.04847E+02 -1.37937E+02  1.32566E+02  7.52141E+02 -3.52406E+01  1.50514E+02
 -1.65524E+03 -4.55347E+02 -1.42996E+03 -7.07644E+02  4.05016E+02 -7.15569E+02  2.64661E+02 -6.62261E+02
  1.13952E+03 -8.88347E+02 -4.90485E+02 -4.10060E+02  7.63635E+02  5.08643E+02  3.55801E+02  6.11122E+02
 -1.00643E+03  2.01918E+03 -9.81371E+02  1.31490E+03 -9.82429E+02 -2.48117E+02 -8.06828E+02 -5.91989E+02
 -1.09933E+03 -1.84130E+03  2.00604E+02  7.81093E+01 -1.93430E+02 -2.87188E+02  7.39955E+02  9.17340E+01
  7.23118E+02  6.62070E+02  5.14475E+02 -1.88439E+02  7.70298E+02 -1.22405E+02  6.53519E+02  1.78740E+02
  6.44511E+01 -3.91249E+02 -2.56600E+02 -1.47378E+02  7.68422E+02  9.87210E+02  1.70626E+03  3.67355E+02
 -1.07268E+03  7.47036E+02 -2.60968E+02  6.73574E+01 -2.64067E+02 -5.05394E+02  4.59916E+02 -1.41074E+03
  1.29941E+02 -9.13424E+02  2.71620E+02  1.96218E+02  1.80234E+03 -3.19293E+02  1.00921E+03  9.00634E+02
  5.38969E+02 -2.53151E+02 -8.13851E+02  8.72653E+02  2.55179E+02  3.11186E+02  1.21375E+02 -1.69025E+01
 -4.50611E+02  3.88590E+02 -4.94457E+02  5.59260E+02  5.67015E+01  3.66989E+02 -7.26352E+02  8.95246E+01
 -1.82314E+03 -1.67696E+02 -7.56357E+02 -4.69491E+02  5.07470E+02 -1.27250E+03  1.22655E+03  2.98587E+02
  8.33286E+02  3.49261E+02 -2.55578E+02  4.37692E+02  7.67093E+02  1.14127E+03  2.02160E+02  8.06605E+02
