 $NMID ID='MM_0lb_SNR200_15hz_g55_15.RAW', FMTDAT='(8E13.5)'
 TRAMP=1., VOLUME=1. $END
  3.09085E+05  2.88976E+02  3.38239E+05  2.50936E+05  8.47010E+04  3.37567E+05 -1.33117E+05  2.50283E+05
 -1.90225E+05  8.23105E+04 -1.11598E+05 -3.25834E+04  7.36394E+02 -4.94737E+04  5.37322E+04 -2.32067E+01
  3.51709E+04  5.21657E+04 -1.72615E+04  7.60065E+04 -6.09388E+04  6.43518E+04 -8.30060E+04  3.14729E+04
 -8.22626E+04 -1.12550E+04 -5.88012E+04 -5.10058E+04 -1.42206E+04 -6.92267E+04  2.75252E+04 -4.57278E+04
  4.07338E+04  2.86358E+03  1.64273E+04  4.70227E+04 -3.43329E+04  4.82560E+04 -6.66993E+04  5.99219E+02
 -5.33873E+04 -5.76420E+04 -7.66020E+03 -7.73056E+04  3.36891E+04 -5.48817E+04  4.84808E+04 -1.73244E+04
  4.34616E+04  1.17223E+04  3.12636E+04  2.62488E+04  1.63916E+04  2.86098E+04 -5.27231E+03  2.64833E+04
 -2.16666E+04  1.43135E+04 -1.92384E+04 -5.41720E+03  4.67555E+03 -7.79731E+03  2.15870E+04  1.29820E+04
  6.87319E+03  3.52695E+04 -3.23270E+04  3.61341E+04 -6.37014E+04  1.81820E+03 -5.66188E+04 -4.35210E+04
 -1.26379E+04 -6.28794E+04  3.96300E+04 -4.54766E+04  5.84342E+04 -2.45717E+03  3.50266E+04  3.28660E+04
 -6.82333E+03  3.59269E+04 -3.13062E+04  1.57981E+04 -3.05277E+04 -3.48811E+03 -1.58368E+04 -9.78776E+03
 -8.59597E+03 -1.27938E+04 -1.01564E+03 -1.65652E+04  8.69284E+03 -2.24726E+04  1.47364E+04 -1.49008E+04
  1.21372E+04  6.02469E+03 -8.42666E+03  1.25603E+04 -2.09774E+04 -2.92245E+03 -7.97339E+03 -3.36114E+04
  2.34708E+04 -4.39331E+04  4.67002E+04 -1.86587E+04  4.40657E+04  2.10191E+04  1.63625E+04  4.56067E+04
 -1.53759E+04  3.44538E+04 -2.52188E+04  1.94895E+03 -1.02006E+04 -2.73224E+04  2.11492E+04 -3.53387E+04
  4.13137E+04 -9.17146E+03  3.58626E+04  2.33935E+04  1.84053E+04  4.58346E+04 -8.13403E+03  4.95722E+04
 -3.20611E+04  3.40667E+04 -4.10747E+04  9.39149E+03 -4.24212E+04 -1.60178E+04 -2.43927E+04 -3.79385E+04
  6.37129E+03 -3.85579E+04  3.15485E+04 -1.40452E+04  2.86991E+04  9.41429E+03  5.22223E+03  1.88136E+04
 -1.32517E+04  8.83699E+03 -9.96870E+03 -8.63899E+03  6.35574E+03 -1.07064E+04  1.85314E+04  5.83450E+03
  1.34264E+04  2.04766E+04 -5.79319E+03  2.61473E+04 -2.23454E+04  1.19574E+04 -2.79416E+04 -5.12379E+03
 -2.13443E+04 -1.66575E+04 -8.09916E+03 -2.04826E+04  4.33136E+03 -1.89583E+04  1.53741E+04 -1.79656E+04
  2.55796E+04 -1.28598E+04  3.09475E+04  2.96259E+03  2.32913E+04  2.05836E+04  4.61119E+03  3.61825E+04
 -1.83204E+04  3.13047E+04 -2.83127E+04  1.02846E+04 -2.07605E+04 -9.65446E+03 -4.24016E+03 -1.49427E+04
  1.38249E+03 -2.83519E+03 -4.34349E+03  6.53403E+03 -1.60698E+04  4.17942E+03 -1.69834E+04 -8.32304E+03
 -9.53665E+03 -2.05344E+04  5.50744E+03 -2.33477E+04  1.63875E+04 -1.61113E+04  1.66368E+04 -2.07088E+03
  1.04442E+04  1.26752E+04 -9.87982E+02  1.82867E+04 -1.39431E+04  1.07953E+04 -1.87303E+04 -3.79345E+03
 -1.40276E+04 -1.69967E+04 -1.17972E+03 -2.23985E+04  1.04195E+04 -1.93519E+04  1.79758E+04 -7.58866E+03
  1.80190E+04  1.97730E+02  1.32116E+04  3.00971E+03  5.31606E+03 -6.61677E+02  1.00450E+04 -2.85149E+03
  1.79856E+04  2.43966E+03  1.83698E+04  1.55200E+04  1.22196E+04  3.02811E+04 -3.00689E+03  3.34984E+04
 -2.00305E+04  2.73420E+04 -3.08560E+04  1.33029E+04 -3.28815E+04 -1.93911E+03 -2.67365E+04 -1.79235E+04
 -1.16607E+04 -2.68267E+04  9.60340E+03 -2.36855E+04  2.02309E+04 -1.28363E+04  1.92342E+04  5.97900E+03
  6.62930E+03  1.38900E+04 -8.80720E+03  1.28572E+04 -1.70818E+04  3.06591E+03 -1.23335E+04 -9.40174E+03
 -1.26068E+03 -1.53220E+04  7.45926E+03 -1.22683E+04  9.68825E+03 -1.98665E+03  1.76092E+03  6.40343E+03
 -6.56752E+03  2.17168E+03 -5.63202E+03 -5.03467E+03  1.75955E+02 -1.47575E+04  7.87137E+03 -1.38021E+04
  1.63720E+04 -7.02282E+03  1.79633E+04  3.65481E+03  1.54621E+04  1.20412E+04  7.18679E+03  1.97426E+04
 -2.98888E+03  2.33766E+04 -1.43813E+04  1.42085E+04 -1.59409E+04  2.61781E+03 -1.13692E+04 -3.17550E+03
 -5.65688E+03 -4.37140E+03 -5.09793E+02  1.17937E+03 -2.98108E+03  3.52137E+03 -4.74395E+03  4.08081E+03
 -1.11788E+04  2.75890E+02 -1.20987E+04 -9.12527E+03 -5.64055E+03 -1.53858E+04  3.72185E+03 -1.11669E+04
  9.92912E+03 -5.19916E+03  7.12553E+03  3.69971E+03  9.67194E+02  3.36099E+03 -4.58008E+03 -1.20648E+03
 -4.55771E+03 -7.62818E+03 -1.19996E+03 -9.14765E+03  6.49109E+03 -1.15433E+04  1.39341E+04 -5.28398E+03
  1.55110E+04  1.81684E+03  1.19464E+04  7.43435E+03  2.64133E+03  1.09694E+04 -7.01020E+03  1.05888E+04
 -9.15855E+03  3.21709E+03 -5.42300E+03 -1.42103E+03  1.35138E+03 -3.04393E+03  7.06022E+03  9.62510E+00
  6.22320E+03  4.02978E+03  8.03168E+02  9.38934E+03 -6.11293E+03  7.36375E+03 -1.15160E+04  3.12448E+03
 -6.68473E+03 -6.22720E+03  4.50199E+02 -8.85142E+03  5.50560E+03 -5.76349E+03  4.88963E+03  2.10855E+03
  6.79275E+02  5.36326E+03 -5.00176E+03  7.75584E+03 -6.69714E+03  2.90689E+03 -8.18254E+03 -2.00301E+03
 -4.81934E+03 -9.47463E+03  2.77693E+03 -9.36424E+03  9.24952E+03 -5.96267E+03  1.05849E+04  7.40085E+02
  6.56395E+03  6.60180E+03 -1.63236E+03  1.05445E+04 -6.47874E+03  5.72598E+03 -7.46519E+03 -1.64875E+03
 -8.31374E+03 -7.35223E+03 -1.38355E+03 -6.85405E+03  2.49097E+03 -5.76434E+03  5.39635E+03 -2.37440E+03
  4.57363E+03  1.04666E+03  2.84161E+02  1.74346E+03  3.09833E+02 -8.50387E+02  1.44344E+03 -3.21866E+03
  6.42595E+03 -3.14599E+03  9.96212E+03  1.03707E+03  9.32518E+03  5.68326E+03  6.39276E+03  1.17024E+04
 -2.43798E+03  1.38084E+04 -1.10825E+04  9.86428E+03 -1.51753E+04  3.31171E+03 -1.12400E+04 -4.93599E+03
 -6.99920E+03 -1.01835E+04  5.46574E+02 -7.69041E+03  2.89320E+03 -4.40407E+03  3.13564E+03 -3.69014E+03
  2.30114E+03 -2.08033E+03  2.08190E+03 -4.55667E+03  3.25973E+03 -1.51533E+03  3.77115E+03 -3.24442E+01
  6.65116E+03  2.09174E+03  3.40822E+03  4.51539E+03 -1.55104E+03  5.54454E+03 -7.08165E+03  4.68916E+03
 -7.45358E+03 -1.35641E+03 -4.67778E+03 -5.98875E+03  6.63438E+02 -7.86101E+03  5.46149E+03 -7.62845E+03
  8.81012E+03 -5.16736E+03  9.77278E+03  2.17944E+02  7.77071E+03  6.78950E+03  3.79011E+02  9.17672E+03
 -4.98642E+03  8.35763E+03 -4.69468E+03  3.44345E+03 -3.71786E+03 -1.09337E+03 -2.04043E+02 -1.39803E+03
 -3.34924E+01  7.45754E+02 -2.05202E+03  3.18642E+03 -3.26273E+03  1.33492E+03 -5.73631E+03 -1.99216E+03
 -3.75124E+03 -5.80526E+03  6.13606E+02 -7.15028E+03  5.52356E+03 -6.31365E+03  6.97254E+03 -3.18545E+03
  7.51813E+03  4.20099E+03  3.68522E+03  6.05711E+03 -1.72789E+03  7.92325E+03 -4.26637E+03  5.02434E+03
 -6.97244E+03  3.25592E+02 -5.13882E+03 -3.54681E+03  7.89123E+02 -5.59209E+03  2.73192E+03 -3.63623E+03
  5.53224E+03 -1.17700E+03  3.15623E+03 -2.75120E+02  1.11315E+03  4.02490E+03  1.64083E+03 -2.90180E+02
  3.00373E+03  7.76169E+02  2.07506E+03  1.18809E+03  1.98227E+03  3.79322E+03  1.62693E+03  2.69439E+03
 -1.73610E+03  5.85100E+03 -3.20315E+03  5.25569E+03 -7.04663E+03  2.08667E+03 -6.56025E+03 -1.43035E+03
 -4.12951E+03 -6.42011E+03  8.23720E+02 -7.30684E+03  4.11918E+03 -5.27398E+03  5.89944E+03 -1.55105E+03
  3.64055E+03  2.58357E+03  1.48349E+03  4.15535E+03 -1.75898E+03  3.01568E+03 -2.72479E+03 -4.35161E+02
 -7.50472E+02 -3.50295E+03  1.30103E+03 -1.57815E+03  3.69890E+03 -2.32993E+03  2.45740E+03  1.10037E+03
  1.56579E+03  5.35869E+02  9.18632E+01 -6.11816E+02 -2.21806E+02  4.19630E+02  2.26171E+03 -1.14687E+03
  1.86662E+03 -2.59637E+02  3.44294E+03  1.90570E+03  1.43584E+03  5.14207E+03 -9.40873E+02  4.93157E+03
 -2.84188E+03  3.11106E+03 -4.17355E+03  1.28544E+03 -2.37919E+03 -1.42918E+03 -6.87597E+02 -3.25894E+03
  1.74148E+03 -2.29192E+03  1.00557E+03 -2.14823E+03  1.35082E+03  1.77056E+03 -8.27335E+02  2.35242E+03
 -2.38302E+03  4.99437E+02 -1.36730E+03 -2.74680E+03 -4.16092E+02 -4.86520E+03  5.98030E+02 -1.55940E+03
  1.52342E+03 -8.56414E+02  1.87189E+03 -5.17814E+02  2.26507E+03  6.65003E+02  4.02152E+02  2.65013E+03
 -1.45210E+02  3.44333E+02 -2.04247E+03 -2.64125E+03  1.84631E+03 -2.16569E+03  3.37406E+03 -2.54608E+03
  2.72733E+03  1.07895E+02  4.52244E+03  2.04072E+03  2.26553E+03  3.86944E+03  2.77443E+02  3.17759E+03
 -3.64307E+03  8.04833E+02 -3.63098E+03 -2.16990E+02 -6.85476E+02 -3.33882E+03  1.86915E+03 -2.43268E+03
  2.71725E+03 -6.50001E+02  1.82661E+03  1.46695E+03  1.24335E+02  2.49159E+03 -1.36299E+02  1.64483E+03
 -8.60207E+02  1.76793E+03 -4.70320E+02  1.26844E+02 -3.89309E+02  3.76869E+02 -9.70366E+02  1.37188E+03
 -8.97431E+02  1.97385E+03 -3.11868E+03  1.06456E+03 -3.09864E+03 -5.92259E+02 -3.27657E+03 -1.78234E+03
 -2.18596E+03 -5.58685E+03  1.37583E+03 -5.71650E+03  2.55344E+03 -3.79310E+03  4.04700E+03 -2.55476E+03
  5.55581E+03  3.76276E+02  4.26000E+03  3.13590E+03  1.03431E+03  2.60874E+03 -1.73368E+03  1.62723E+03
 -2.72083E+03  1.66052E+03 -4.78819E+02 -1.23014E+01 -1.08754E+03  2.20368E+02 -1.81888E+03 -3.05401E+02
 -1.40671E+03  4.79160E+02 -1.66905E+03  2.94082E+02 -2.14457E+02 -1.25676E+03  5.25693E+02 -4.12018E+02
  1.92458E+03 -4.54381E+02  5.19138E+02  1.06163E+03  1.79819E+03  1.21274E+03 -1.15181E+03  2.77175E+03
 -1.22372E+03  2.22806E+03 -3.82112E+03  3.31977E+03 -3.55486E+03 -4.50062E+02 -2.70696E+03 -3.57397E+03
 -1.11297E+03 -4.32902E+03  7.63185E+02 -3.12696E+03  1.59198E+03 -6.34567E+02  2.19531E+03  4.83539E+02
  1.47759E+03  1.91351E+03  3.84260E+02  2.11951E+03 -1.47072E+03 -1.76062E+03  5.57359E+02 -2.24013E+02
  7.64669E+02 -1.09239E+03  8.08201E+02  9.74411E+02  6.55023E+02 -2.88047E+00 -1.18248E+02  1.34080E+03
 -1.94427E+03  1.25628E+03 -2.56228E+03  3.02492E+02 -2.14836E+03 -6.87359E+02 -5.19124E+01 -1.90235E+03
  1.56143E+03 -1.66660E+03  1.17966E+03 -1.26739E+03  2.44910E+03  6.68071E+02  1.64242E+03  1.59938E+03
  4.79852E+02  3.09567E+03 -1.89257E+02  1.07363E+03 -6.09619E+02  1.24353E+03 -7.42180E+02  1.28139E+03
 -3.57500E+02  4.56917E+01 -9.22651E+02 -6.03716E+01 -4.78964E+02 -4.39009E+02 -1.27115E+03 -1.89608E+03
 -2.85978E+03  1.70613E+02 -1.37489E+03 -2.48397E+03  8.45866E+02 -2.05104E+03  2.20620E+03 -1.68874E+03
  1.66847E+03  6.07085E+02  9.21223E+02  9.89161E+02  4.72289E+02  2.21124E+03 -9.24453E+02  1.12205E+03
