 $NMID ID='MM_0lb_SNR200_17hz_g45_77.RAW', FMTDAT='(8E13.5)'
 TRAMP=1., VOLUME=1. $END
  3.09916E+05  8.88499E+02  3.38250E+05  2.50486E+05  8.57099E+04  3.38824E+05 -1.32639E+05  2.51201E+05
 -1.89288E+05  8.16411E+04 -1.11722E+05 -3.33274E+04  1.88748E+03 -5.01229E+04  5.30557E+04 -7.03519E+02
  3.46439E+04  5.27796E+04 -1.69021E+04  7.40270E+04 -6.07954E+04  6.30700E+04 -8.35704E+04  3.07629E+04
 -8.01093E+04 -1.15008E+04 -5.66507E+04 -5.14883E+04 -1.54231E+04 -6.81438E+04  2.63575E+04 -4.50067E+04
  3.89790E+04  3.08742E+03  1.67521E+04  4.65002E+04 -3.42897E+04  4.57466E+04 -6.57863E+04 -4.96114E+02
 -5.28488E+04 -5.53861E+04 -6.73912E+03 -7.60912E+04  3.28831E+04 -5.38026E+04  4.67764E+04 -1.64455E+04
  4.11295E+04  1.09343E+04  3.09818E+04  2.35503E+04  1.59606E+04  2.95209E+04 -5.44387E+03  2.59235E+04
 -2.21363E+04  1.23522E+04 -2.00017E+04 -4.09008E+03  3.92630E+03 -7.27265E+03  2.11345E+04  1.07408E+04
  6.81995E+03  3.28959E+04 -3.20181E+04  3.41141E+04 -6.17379E+04  2.56585E+03 -5.64576E+04 -4.14534E+04
 -1.17318E+04 -6.18727E+04  3.81158E+04 -4.40463E+04  5.62308E+04 -2.65962E+03  3.27904E+04  3.12808E+04
 -6.11674E+03  3.36926E+04 -2.85795E+04  1.39584E+04 -2.82781E+04 -5.04264E+03 -1.50560E+04 -1.12303E+04
 -6.31596E+03 -1.19917E+04 -7.38001E+02 -1.64478E+04  7.46052E+03 -2.23758E+04  1.43953E+04 -1.31445E+04
  1.22390E+04  4.33393E+03 -5.90707E+03  1.38431E+04 -2.02553E+04 -2.36002E+03 -8.56659E+03 -3.07573E+04
  2.19925E+04 -3.95963E+04  4.54034E+04 -1.94603E+04  4.27443E+04  1.84199E+04  1.53661E+04  4.16913E+04
 -1.64384E+04  3.23603E+04 -2.29710E+04  1.21842E+03 -9.78981E+03 -2.57451E+04  2.05778E+04 -3.17272E+04
  3.85749E+04 -7.93814E+03  3.19381E+04  2.22494E+04  1.75622E+04  4.34227E+04 -8.02929E+03  4.73375E+04
 -2.93519E+04  3.05334E+04 -3.85593E+04  8.72782E+03 -3.92755E+04 -1.56154E+04 -2.21002E+04 -3.48605E+04
  6.77564E+03 -3.47647E+04  2.92721E+04 -1.30362E+04  2.69496E+04  1.10703E+04  3.90690E+03  1.81441E+04
 -1.27906E+04  7.09280E+03 -9.58929E+03 -8.50568E+03  5.31168E+03 -1.09101E+04  1.77112E+04  6.24973E+03
  1.24321E+04  2.10458E+04 -6.02694E+03  2.42594E+04 -2.19669E+04  1.05201E+04 -2.50889E+04 -6.29024E+03
 -1.76318E+04 -1.67103E+04 -6.60341E+03 -1.78728E+04  5.31132E+03 -1.62517E+04  1.26508E+04 -1.50134E+04
  2.26235E+04 -1.17386E+04  2.92599E+04  1.45167E+03  2.19799E+04  1.63653E+04  3.85810E+03  3.30077E+04
 -1.66243E+04  2.79731E+04 -2.63203E+04  9.94731E+03 -2.09310E+04 -1.03272E+04 -3.02223E+03 -1.28963E+04
  2.02710E+03 -3.55960E+03 -2.99762E+03  5.80957E+03 -1.36410E+04  5.66072E+03 -1.48973E+04 -5.35769E+03
 -9.63632E+03 -1.69110E+04  4.45011E+03 -2.01485E+04  1.28532E+04 -1.52207E+04  1.69444E+04 -1.82065E+03
  9.22958E+03  1.19093E+04 -1.28637E+03  1.59861E+04 -9.54919E+03  9.81775E+03 -1.70861E+04 -3.12505E+03
 -1.09965E+04 -1.43845E+04 -1.00434E+03 -2.01452E+04  8.61416E+03 -1.64875E+04  1.74943E+04 -7.33111E+03
  1.55517E+04  9.54824E+00  1.02409E+04  4.37657E+03  5.05070E+03 -2.19662E+02  8.30122E+03 -2.22948E+03
  1.41921E+04  3.78355E+03  1.57567E+04  1.47932E+04  9.31508E+03  2.66838E+04 -4.37968E+03  2.89279E+04
 -1.71094E+04  2.26568E+04 -2.64379E+04  9.98981E+03 -2.72238E+04 -1.47646E+03 -2.33910E+04 -1.60166E+04
 -1.04072E+04 -2.21919E+04  7.60866E+03 -1.98007E+04  1.78117E+04 -1.11934E+04  1.66142E+04  3.16587E+03
  7.28835E+03  1.21411E+04 -8.71737E+03  1.03341E+04 -1.46546E+04  2.66362E+03 -1.07682E+04 -9.26628E+03
 -5.50996E+01 -1.35014E+04  6.60095E+03 -1.02300E+04  8.25289E+03 -1.33616E+03  2.11428E+03  5.76503E+03
 -5.85977E+03  1.97373E+03 -4.22382E+03 -4.84990E+03  2.12665E+02 -1.10526E+04  8.44746E+03 -1.18891E+04
  1.36199E+04 -6.70241E+03  1.21457E+04  2.35588E+03  1.11843E+04  1.10217E+04  4.91376E+03  1.44128E+04
 -2.50180E+03  1.86655E+04 -1.17589E+04  1.06169E+04 -1.14239E+04  2.70162E+03 -1.04024E+04 -2.51917E+03
 -4.16329E+03 -4.39531E+03 -1.32949E+03  2.49331E+03 -1.71334E+03  2.85545E+03 -4.60628E+03  3.69680E+03
 -8.95551E+03 -7.64532E+01 -9.35117E+03 -6.10873E+03 -3.63103E+03 -1.26253E+04  4.55143E+03 -8.80815E+03
  7.89478E+03 -4.08970E+03  5.29480E+03  2.55316E+03  2.31836E+02  3.37433E+03 -4.34043E+03 -1.51626E+03
 -3.37371E+03 -5.73474E+03 -5.95060E+02 -8.66562E+03  4.65865E+03 -8.63266E+03  1.08777E+04 -5.11883E+03
  1.34147E+04  1.29521E+03  8.56646E+03  6.62162E+03  2.42991E+03  9.79408E+03 -5.84879E+03  9.55237E+03
 -7.20861E+03  3.54517E+03 -3.91411E+03 -1.75933E+03  1.21385E+03 -2.66404E+03  4.64777E+03 -8.16699E+02
  5.14154E+03  3.25884E+03  1.19858E+03  6.57511E+03 -5.55964E+03  6.67813E+03 -9.00364E+03  1.61892E+03
 -5.76734E+03 -4.39778E+03 -7.99935E+02 -7.30905E+03  4.58415E+03 -2.78147E+03  4.43439E+03  2.54853E+03
  3.43591E+02  4.15010E+03 -3.35270E+03  5.01426E+03 -7.66690E+03  2.76326E+03 -5.65634E+03 -7.42289E+02
 -3.68712E+03 -7.39610E+03  4.75647E+02 -8.04229E+03  6.49534E+03 -5.90291E+03  8.14472E+03  8.70377E+02
  5.07482E+03  6.41197E+03  1.13039E+03  8.49578E+03 -5.67864E+03  4.27670E+03 -5.75307E+03 -1.37909E+03
 -6.43159E+03 -4.78607E+03 -2.21663E+03 -5.99178E+03  2.57689E+03 -5.83011E+03  2.78372E+03 -2.90704E+03
  2.36945E+03 -1.20397E+02 -4.05126E+02  7.86412E+02  7.65643E+02 -1.07744E+02  9.16752E+01 -3.12966E+03
  4.35802E+03 -1.15959E+03  7.36452E+03  5.06893E+02  7.13247E+03  4.21858E+03  5.18238E+03  8.30709E+03
 -1.43440E+03  1.05903E+04 -8.89997E+03  7.42194E+03 -1.15247E+04  1.57839E+03 -7.83538E+03 -2.71650E+03
 -4.53691E+03 -7.41578E+03 -7.84508E+02 -4.96667E+03  1.96856E+03 -2.97804E+03  2.43193E+03 -2.93553E+03
  9.83988E+02 -1.05113E+03  2.89240E+03 -2.57946E+03  3.45976E+03 -2.32069E+03  5.00092E+03 -1.16263E+02
  5.15937E+03  1.43505E+03  1.61355E+03  4.02034E+03 -1.92840E+03  4.29387E+03 -5.49341E+03  3.86262E+03
 -6.15284E+03 -1.18489E+03 -2.44140E+03 -4.63376E+03  1.73199E+03 -6.46704E+03  2.92684E+03 -6.83908E+03
  6.72443E+03 -4.31934E+03  8.07777E+03  6.00751E+02  5.89532E+03  5.32221E+03  1.26703E+03  7.54748E+03
 -6.51993E+02  5.15504E+03 -3.71283E+03  1.87654E+03 -1.84426E+03 -4.28502E+02 -3.74521E+02  5.18039E+01
 -8.37303E+02  1.52743E+03 -6.95176E+02  2.32905E+03 -2.11561E+03  1.64799E+03 -4.77870E+03 -3.11146E+02
 -3.22161E+03 -4.87258E+03  9.74392E+02 -5.42078E+03  4.25558E+03 -5.11982E+03  3.85038E+03 -2.68100E+02
  4.88910E+03  2.89138E+03  2.04496E+03  2.92944E+03 -1.25604E+00  5.03375E+03 -3.54673E+03  3.04702E+03
 -4.12070E+03 -2.01695E+02 -3.24137E+03 -2.47895E+03  5.92113E+02 -3.48646E+03  2.95288E+03 -3.17057E+03
  3.47760E+03 -2.11192E+03  2.30126E+03  9.50743E+02  9.12915E+02  2.22366E+03  1.72634E+03 -3.97231E+02
  1.26174E+03 -5.97244E+01  1.52916E+03  1.04332E+03  1.90229E+03  1.73158E+03  2.07287E+03  2.40327E+03
 -3.65189E+02  2.46214E+03 -3.94682E+03  5.45454E+03 -4.27726E+03  1.17728E+03 -5.40315E+03 -6.71910E+02
 -2.57697E+03 -5.24919E+03  2.08090E+02 -5.35999E+03  2.48322E+03 -3.22552E+03  4.45234E+03 -5.96769E+02
  3.54119E+03 -2.54566E+02  9.83901E+01  2.17932E+03 -7.66260E+02  1.89326E+03 -1.17830E+03 -7.20255E+02
 -1.28245E+03 -2.68733E+03  1.43750E+03 -2.22008E+03  1.89104E+03 -1.11679E+03  1.18168E+03  1.36374E+03
  1.84344E+03  1.16001E+03  1.53584E+02 -2.54922E+01 -2.80260E+02  9.65451E+02  1.66381E+03 -6.40598E+01
  1.97117E+02  8.59722E+01  1.76129E+03  8.42548E+02  1.58686E+02  4.41000E+03 -5.68788E+02  4.70746E+03
 -2.95892E+03  1.40010E+03 -3.02021E+03  7.49146E+02 -3.78485E+03 -2.29138E+03 -8.72499E+02 -8.14678E+02
  1.91467E+03 -1.89338E+03  1.86151E+03 -4.53048E+02  6.92104E+02  1.31665E+02 -4.27282E+02  1.03168E+03
 -1.00995E+03  1.27879E+03 -2.21484E+03 -1.24613E+03 -4.91263E+02 -2.19427E+03 -4.56535E+01 -1.66557E+03
  1.65060E+03 -9.43706E+02  1.21315E+03  1.03937E+03  1.77002E+03  2.62716E+02 -9.82923E+02  1.53368E+03
 -5.54606E+02 -2.73313E+01 -1.80558E+03 -2.44042E+02  9.62968E+02 -1.50176E+03  2.55204E+03 -2.92498E+03
  1.28570E+03  5.46453E+02  2.90473E+03  8.11337E+02  1.97421E+03  2.38781E+03 -1.14256E+03  1.76903E+03
 -1.78954E+03  1.14163E+03 -2.15764E+03 -8.46784E+01 -1.08264E+03 -1.62673E+03  9.51502E+02 -2.65463E+03
  1.99135E+03 -1.05530E+03  8.70933E+02 -4.30211E+02  8.95258E+02  2.13119E+03  6.91895E+02  1.23958E+02
  2.27742E+02  1.66687E+03 -4.34159E+02  3.86093E+02  8.11925E+02 -4.74694E+02 -6.60636E+02  3.99402E+02
 -5.78165E+02  3.11852E+02 -7.16769E+02  9.16133E+02 -1.70855E+03  3.72408E+02 -2.34295E+03 -1.80412E+03
 -1.41559E+03 -4.02458E+03  8.77949E+02 -3.53453E+03  1.75695E+03 -2.46424E+03  4.22969E+03 -8.09902E+02
  3.18915E+03 -1.75243E+02  2.40776E+03  2.14314E+03 -1.34219E+03  1.46926E+03 -7.48394E+02  8.41458E+02
 -1.76678E+03  8.69128E+02 -3.07740E+02  1.31532E+02 -1.09119E+03  4.02941E+02 -2.69800E+02  3.69131E+02
 -6.90300E+02 -1.22255E+03 -6.17879E+02  2.91007E+02  8.95617E+02 -2.68730E+02 -5.00142E+02 -2.48859E+02
  2.32966E+03 -6.66865E+02  7.28565E+02  5.66739E+02  2.61331E+03  2.08725E+02 -8.96427E+02  2.83903E+03
 -1.51704E+03  2.00529E+03 -2.04937E+03  1.13337E+03 -2.69131E+03 -1.26280E+02 -1.91389E+03 -1.83068E+03
 -1.49401E+03 -1.06953E+03  1.24160E+03 -9.61480E+02  7.89212E+02 -8.14482E+02  7.93358E+02  3.79101E+01
  1.15061E+03  2.95010E+01  8.62290E+02  6.50148E+02 -4.90136E+02 -4.13878E+02  9.66241E+02 -1.86850E+02
  7.58098E+02  5.02770E+01  7.41344E+02  1.48023E+02  4.62109E+02  7.40082E+02  5.07922E+02 -3.89148E+02
 -1.41287E+02  7.56994E+02 -1.17371E+03 -1.05824E+02 -1.40267E+03 -1.25336E+03 -2.87990E+02 -2.89723E+03
  6.81043E+02 -2.08462E+03  1.67302E+03 -5.93832E+02  1.75762E+03  2.45553E+02  6.95938E+02  9.18163E+02
  1.50483E+03  3.37252E+02  1.18375E+02  3.07663E+02 -5.74013E+02  9.70286E+02 -1.45501E+03  3.87018E+02
 -7.73781E+01 -2.91278E+02  5.16036E+02  8.82490E+02 -4.13932E+02 -9.12807E+02 -1.48110E+03  4.24516E+02
 -1.22236E+03  4.70679E+02 -8.27822E+02 -1.37928E+03 -2.42071E+02 -1.64884E+03  1.17558E+03  2.47606E+01
  1.56580E+03 -3.71125E+02 -4.73262E+02 -1.50102E+02  6.36439E+02  1.61966E+03 -2.18577E+02  1.78256E+03
