 $NMID ID='MM_0lb_SNR200_8hz_g40_76.RAW', FMTDAT='(8E13.5)'
 TRAMP=1., VOLUME=1. $END
  3.10563E+05  4.00622E+02  3.38170E+05  2.51277E+05  8.39668E+04  3.37836E+05 -1.32175E+05  2.52891E+05
 -1.91201E+05  8.40429E+04 -1.12341E+05 -3.40168E+04 -3.78498E+02 -5.11536E+04  5.51098E+04 -5.60584E+01
  3.61971E+04  5.26993E+04 -1.88327E+04  7.54810E+04 -5.97405E+04  6.47126E+04 -8.45330E+04  3.18959E+04
 -8.13256E+04 -1.29328E+04 -5.82398E+04 -5.15652E+04 -1.63162E+04 -7.05228E+04  2.91791E+04 -4.76287E+04
  4.20153E+04  2.04300E+03  1.70394E+04  4.75068E+04 -3.34743E+04  4.81463E+04 -6.84458E+04  4.55131E+01
 -5.37112E+04 -5.80735E+04 -6.45702E+03 -7.97785E+04  3.47575E+04 -5.56725E+04  4.96970E+04 -1.73398E+04
  4.65101E+04  1.24737E+04  3.19466E+04  2.58607E+04  1.44909E+04  3.02406E+04 -4.65133E+03  2.89974E+04
 -2.44699E+04  1.23435E+04 -1.77303E+04 -6.03646E+03  5.68011E+03 -6.96691E+03  2.40921E+04  1.33932E+04
  7.55531E+03  3.83660E+04 -3.23978E+04  3.77591E+04 -6.61515E+04  3.60054E+03 -5.65867E+04 -4.54665E+04
 -1.24504E+04 -6.67564E+04  4.07539E+04 -4.74389E+04  6.04275E+04 -1.22916E+03  3.66323E+04  3.34192E+04
 -5.70797E+03  3.87104E+04 -2.98118E+04  1.83082E+04 -3.35532E+04 -1.98685E+03 -1.97531E+04 -1.15214E+04
 -9.41115E+03 -1.54965E+04 -1.87798E+02 -1.85338E+04  9.50958E+03 -2.16246E+04  1.50613E+04 -1.18727E+04
  1.09043E+04  6.95758E+03 -1.07851E+04  1.12936E+04 -2.20878E+04 -9.23876E+03 -8.84386E+03 -3.78369E+04
  2.52603E+04 -4.59169E+04  5.30221E+04 -2.16883E+04  5.02438E+04  2.20471E+04  1.67013E+04  4.69568E+04
 -1.47703E+04  3.61814E+04 -2.83973E+04  3.05597E+03 -1.31903E+04 -2.97712E+04  2.18967E+04 -3.60075E+04
  4.39159E+04 -1.15621E+04  4.25001E+04  2.44916E+04  2.08055E+04  5.26496E+04 -8.95127E+03  5.67640E+04
 -3.45641E+04  4.01588E+04 -4.84824E+04  1.10344E+04 -4.63364E+04 -1.91326E+04 -2.58597E+04 -4.32660E+04
  8.19165E+03 -4.24736E+04  3.49275E+04 -1.62147E+04  3.22121E+04  1.21431E+04  5.07672E+03  1.96287E+04
 -1.38566E+04  1.01813E+04 -1.16207E+04 -7.37518E+03  6.83206E+03 -9.58930E+03  1.88416E+04  5.96573E+03
  1.44602E+04  2.30998E+04 -4.85956E+03  2.85582E+04 -2.26258E+04  1.57971E+04 -3.30788E+04 -4.32987E+03
 -2.52478E+04 -1.73579E+04 -1.20141E+04 -2.72421E+04  3.85681E+03 -2.51313E+04  1.97731E+04 -2.30138E+04
  3.12630E+04 -1.50989E+04  3.99476E+04  4.05784E+03  2.72262E+04  2.43564E+04  5.25507E+03  4.08906E+04
 -2.00341E+04  3.18715E+04 -3.16805E+04  1.15482E+04 -2.20547E+04 -1.01914E+04 -6.70523E+03 -1.19616E+04
  9.20347E+02 -1.27659E+02 -8.32456E+03  9.56067E+03 -2.09278E+04  4.80227E+03 -1.89973E+04 -8.26251E+03
 -1.21928E+04 -2.44054E+04  6.43961E+03 -2.80318E+04  1.73739E+04 -2.01572E+04  2.24523E+04 -8.87269E+02
  1.47130E+04  1.57861E+04 -2.52733E+03  2.15657E+04 -1.78344E+04  1.34486E+04 -2.42693E+04 -4.12836E+03
 -1.72706E+04 -1.99266E+04 -8.14872E+02 -2.84739E+04  1.31393E+04 -2.34650E+04  2.23789E+04 -1.17314E+04
  2.17826E+04  8.25238E+02  1.54428E+04  4.58067E+03  8.52721E+03  9.36471E+02  1.15575E+04 -1.86359E+03
  2.08236E+04  3.04857E+03  2.53748E+04  1.77856E+04  1.68128E+04  3.75317E+04 -2.26771E+03  4.55496E+04
 -2.45978E+04  3.79465E+04 -4.26996E+04  1.92165E+04 -4.66936E+04 -4.69883E+03 -3.70686E+04 -2.64927E+04
 -1.45847E+04 -3.82222E+04  1.34249E+04 -3.39342E+04  2.68904E+04 -1.47810E+04  2.42598E+04  7.41822E+03
  8.14617E+03  1.96907E+04 -1.14650E+04  1.42101E+04 -1.95188E+04  2.77312E+03 -1.51825E+04 -1.39966E+04
 -1.09705E+03 -2.04658E+04  1.06842E+04 -1.30798E+04  1.35112E+04 -1.31835E+03  3.14987E+03  8.79062E+03
 -9.24625E+03  5.68031E+03 -9.60017E+03 -7.37723E+03 -1.17815E+03 -1.75414E+04  1.18761E+04 -2.05524E+04
  2.27367E+04 -1.07978E+04  2.47875E+04  3.64307E+03  2.39306E+04  1.79968E+04  1.32436E+04  3.13130E+04
 -7.09638E+03  3.07760E+04 -2.19708E+04  1.93030E+04 -2.30999E+04  4.03644E+03 -1.59984E+04 -5.75213E+03
 -5.56818E+03 -6.09473E+03 -1.11157E+03  3.07361E+02 -4.32391E+03  3.02822E+03 -6.73270E+03  4.23218E+03
 -1.45578E+04 -1.85574E+03 -1.35895E+04 -1.22043E+04 -6.76848E+03 -1.94249E+04  7.11196E+03 -1.56214E+04
  1.19184E+04 -6.76565E+03  9.23107E+03  3.30584E+03 -9.03892E+02  5.25099E+03 -7.70993E+03 -6.70475E+02
 -5.74844E+03 -1.03652E+04 -1.71382E+03 -1.63477E+04  8.35995E+03 -1.64821E+04  2.03666E+04 -8.92989E+03
  2.38769E+04  2.73978E+03  1.68194E+04  1.48065E+04  4.12825E+03  2.04988E+04 -1.13887E+04  1.58279E+04
 -1.14296E+04  5.17064E+03 -6.95089E+03 -3.40667E+03  1.72493E+03 -4.25259E+03  9.18264E+03 -7.40055E+02
  8.33604E+03  6.35838E+03  3.59163E+03  1.39111E+04 -7.45182E+03  1.22208E+04 -1.60612E+04  2.22929E+03
 -1.07854E+04 -7.95432E+03 -3.17688E+01 -1.54447E+04  1.01588E+04 -7.70500E+03  1.00746E+04  2.73647E+03
  3.06146E+03  9.97315E+03 -6.84760E+03  1.31230E+04 -1.36730E+04  6.22210E+03 -1.45524E+04 -7.00849E+03
 -8.47510E+03 -1.80154E+04  3.24331E+03 -1.76991E+04  1.65813E+04 -1.16500E+04  1.77086E+04  2.80766E+03
  1.15500E+04  1.30808E+04 -1.80351E+03  1.55592E+04 -1.26919E+04  1.00390E+04 -1.31202E+04 -2.84772E+03
 -9.01659E+03 -1.07350E+04 -2.24475E+03 -1.26137E+04  7.31987E+03 -8.23271E+03  8.19210E+03 -3.15845E+03
  6.28962E+03  3.89141E+03 -3.11974E+01  1.13390E+03 -5.18387E+01 -3.24161E+03  1.05723E+03 -8.81957E+03
  1.17838E+04 -5.76877E+03  1.60073E+04  1.02363E+03  1.74662E+04  1.19739E+04  1.01292E+04  2.25828E+04
 -5.68178E+03  2.51922E+04 -2.13406E+04  1.78867E+04 -2.90017E+04  2.94733E+03 -2.22727E+04 -8.85531E+03
 -1.15979E+04 -1.69801E+04  3.91753E+02 -1.42393E+04  6.35991E+03 -8.65166E+03  6.88385E+03 -5.94761E+03
  5.78760E+03 -3.27933E+03  3.79125E+03 -3.88742E+03  5.10346E+03 -4.47962E+03  7.68873E+03 -9.46314E+02
  1.10062E+04  2.38644E+03  5.75166E+03  9.07639E+03 -1.66960E+03  1.09361E+04 -1.10971E+04  8.63218E+03
 -1.66485E+04 -1.51964E+03 -9.98930E+03 -1.11418E+04  5.04707E+02 -1.88396E+04  8.93957E+03 -1.62048E+04
  1.65249E+04 -8.30545E+03  2.12861E+04  3.57083E+03  1.46350E+04  1.26433E+04  1.13049E+03  1.95981E+04
 -7.24632E+03  1.63957E+04 -1.10518E+04  3.71935E+03 -7.38957E+03 -1.99274E+03 -2.89939E+03 -2.33817E+03
 -1.93133E+03  6.31183E+02 -1.89888E+03  3.16228E+03 -6.53363E+03  2.33166E+03 -1.07302E+04 -8.77972E+02
 -5.66969E+03 -1.28824E+04 -3.94941E+02 -1.57256E+04  1.05682E+04 -1.44444E+04  1.59137E+04 -6.20766E+03
  1.44491E+04  6.80802E+03  6.54700E+03  1.31780E+04 -3.23440E+03  1.43972E+04 -9.81214E+03  1.01195E+04
 -1.46459E+04  3.90835E+02 -1.11141E+04 -9.18915E+03 -7.97640E+02 -1.25425E+04  5.67755E+03 -8.54211E+03
  9.10774E+03 -3.88377E+03  7.88377E+03  2.37610E+03  2.11172E+03  3.95911E+03  9.78513E+02  2.04573E+03
  1.20126E+03  7.56764E+02  4.60041E+03  2.53665E+03  4.34156E+03  5.83905E+03  5.23720E+03  7.34643E+03
 -2.44101E+03  1.30755E+04 -1.25295E+04  1.33954E+04 -1.72648E+04  1.87448E+03 -1.75896E+04 -8.77947E+03
 -7.92620E+03 -1.53344E+04  1.07237E+03 -1.89543E+04  1.05787E+04 -1.01741E+04  1.35569E+04 -4.42336E+03
  1.07814E+04  4.61195E+03  2.97340E+03  1.03466E+04 -4.79264E+03  5.65694E+03 -7.00410E+03 -1.12065E+03
 -1.53093E+03 -6.53142E+03  1.61584E+03 -6.63869E+03  7.50281E+03 -4.85228E+03  8.16086E+03  2.52173E+03
  4.27322E+03  2.58490E+03  1.61622E+03  4.13531E+03 -2.35886E+03  1.87401E+03  1.89966E+03 -6.13572E+02
  1.92066E+03 -2.32863E+03  7.32034E+03  3.06326E+03  4.08039E+03  8.55905E+03 -2.96035E+03  1.16212E+04
 -9.16044E+03  7.46717E+03 -1.10406E+04  3.01137E+03 -8.52338E+03 -4.80693E+03 -3.47544E+03 -5.18761E+03
  1.08824E+03 -7.19376E+03  3.42457E+03 -3.01892E+03  2.92201E+03  1.42964E+03 -7.75640E+02  6.30354E+03
 -7.44212E+03  3.21801E+03 -6.92597E+03 -4.23616E+03 -3.43004E+03 -9.61300E+03  2.86444E+03 -8.93026E+03
  7.54193E+03 -6.43797E+03  5.70034E+03 -6.40416E+02  6.05204E+03  2.74934E+03 -2.25639E+00  5.16447E+03
 -3.63239E+03  2.16396E+02 -3.91836E+03 -4.01399E+03  1.55368E+03 -7.06878E+03  7.47418E+03 -6.09043E+03
  1.07431E+04  1.41257E+03  9.02355E+03  6.38955E+03  5.51198E+03  1.05200E+04 -5.67294E+03  9.80423E+03
 -8.94503E+03  4.91850E+03 -9.63080E+03 -2.81620E+03 -5.33655E+03 -7.54060E+03  3.55232E+03 -6.17405E+03
  6.57943E+03 -4.08501E+03  4.98263E+03  3.28706E+03  1.02519E+03  4.89177E+03 -1.29119E+03  6.11087E+03
 -3.22317E+03  3.25579E+03 -2.45937E+03  7.82433E+02 -7.99746E+02  1.31985E+03 -2.12333E+02  2.36958E+03
 -4.01856E+03  4.35563E+03 -6.51131E+03  4.41257E+03 -1.24892E+04 -2.08856E+01 -1.25323E+04 -7.23909E+03
 -7.27094E+03 -1.46964E+04  2.84723E+03 -1.79579E+04  1.16983E+04 -1.35460E+04  1.51247E+04 -6.82238E+03
  1.50877E+04  2.79415E+03  9.68689E+03  1.03989E+04 -1.98720E+02  1.00401E+04 -3.31626E+03  9.62897E+03
 -6.27621E+03  3.45149E+03 -2.81512E+03 -2.50225E+03 -1.87416E+03 -1.64847E+03 -4.93580E+02  1.69755E+03
 -9.75722E+02  1.59529E+03 -2.42100E+03 -1.68813E+03 -7.58107E+02 -1.34639E+03  7.36694E+02 -2.88062E+03
  4.45746E+03 -5.39115E+03  7.93753E+03  2.14530E+02  7.38812E+03  7.41555E+03  2.64605E+03  1.29650E+04
 -6.19541E+03  1.38759E+04 -1.23548E+04  8.02762E+03 -1.33504E+04 -2.18623E+03 -1.09040E+04 -7.97803E+03
 -4.55709E+03 -1.20865E+04  5.11443E+03 -1.37538E+04  5.35828E+03 -7.49856E+03  9.42571E+03 -5.12366E+01
  4.02895E+03  3.71026E+03  4.88404E+02  4.12106E+03 -7.72587E+02 -9.54139E+02 -1.21205E+03 -1.29531E+03
  3.36547E+03 -1.48179E+03  5.14729E+03  4.21207E+02  3.30340E+03  5.08376E+03  1.52426E+03  8.40614E+03
 -4.40929E+03  6.37384E+03 -8.33281E+03 -9.15262E+01 -6.35094E+03 -5.21484E+03 -1.18742E+03 -1.06760E+04
  4.54837E+03 -7.94357E+03  8.20010E+03 -3.95746E+03  9.70808E+03  2.88884E+03  5.08461E+03  7.30214E+03
  1.39936E+03  8.57288E+03 -2.97110E+03  6.68100E+03 -5.08494E+03  3.13274E+03 -4.25690E+03  1.40287E+03
 -1.38742E+03 -1.10337E+03 -2.09760E+03  3.50811E+03 -4.50034E+03  1.85608E+03 -5.84038E+03 -1.59611E+03
 -6.68858E+03 -4.18853E+03 -6.86608E+01 -9.75591E+03  5.30641E+03 -8.97547E+03  7.57545E+03 -4.93332E+03
  6.74491E+03 -1.27068E+02  5.57319E+03  5.71923E+03 -1.48970E+03  8.17546E+03 -5.45361E+03  4.67212E+03
