 $NMID ID='MM_0lb_SNR200_15hz_g55_57.RAW', FMTDAT='(8E13.5)'
 TRAMP=1., VOLUME=1. $END
  3.10736E+05 -4.64521E+02  3.37769E+05  2.48820E+05  8.50827E+04  3.37770E+05 -1.31417E+05  2.50373E+05
 -1.91368E+05  8.44017E+04 -1.12142E+05 -3.35639E+04  7.93931E+02 -5.06974E+04  5.32117E+04  6.30091E+02
  3.59190E+04  5.28193E+04 -1.74506E+04  7.47647E+04 -6.09603E+04  6.37514E+04 -8.41018E+04  3.24566E+04
 -7.95069E+04 -1.06909E+04 -5.76283E+04 -5.25221E+04 -1.42290E+04 -7.01531E+04  2.80416E+04 -4.65490E+04
  4.10288E+04  3.17308E+03  1.64662E+04  4.79721E+04 -3.44039E+04  4.66174E+04 -6.72086E+04 -5.19079E+02
 -5.50019E+04 -5.50537E+04 -7.23745E+03 -7.75169E+04  3.32233E+04 -5.59001E+04  4.74188E+04 -1.68457E+04
  4.40704E+04  1.16110E+04  3.25496E+04  2.66993E+04  1.56310E+04  2.92025E+04 -4.97789E+03  2.67254E+04
 -2.33633E+04  1.26602E+04 -1.87144E+04 -6.11734E+03  5.04450E+03 -7.70466E+03  2.34488E+04  1.15480E+04
  7.84976E+03  3.50319E+04 -3.27959E+04  3.58184E+04 -6.30147E+04  9.41626E+02 -5.61299E+04 -4.32872E+04
 -1.27036E+04 -6.30446E+04  3.93698E+04 -4.51826E+04  5.76803E+04 -1.97891E+03  3.35441E+04  3.38214E+04
 -6.71764E+03  3.75089E+04 -3.05192E+04  1.60080E+04 -3.12416E+04 -4.81660E+03 -1.66564E+04 -1.05645E+04
 -7.93025E+03 -1.34963E+04 -2.95985E+02 -1.81770E+04  5.31783E+03 -2.16972E+04  1.60319E+04 -1.32613E+04
  1.27375E+04  5.20580E+03 -8.67796E+03  1.33994E+04 -2.11220E+04 -4.07086E+03 -7.38839E+03 -3.33259E+04
  2.21582E+04 -4.32538E+04  4.81668E+04 -1.95010E+04  4.45750E+04  2.02070E+04  1.65434E+04  4.33784E+04
 -1.59249E+04  3.36084E+04 -2.49693E+04  2.17254E+03 -9.79589E+03 -2.84496E+04  2.13700E+04 -3.46115E+04
  4.01121E+04 -1.04149E+04  3.54480E+04  2.43535E+04  1.80794E+04  4.71679E+04 -7.02667E+03  5.06596E+04
 -3.21235E+04  3.29964E+04 -4.13265E+04  9.49947E+03 -4.33332E+04 -1.67114E+04 -2.22132E+04 -3.92510E+04
  7.63489E+03 -3.81882E+04  3.10071E+04 -1.56804E+04  2.94972E+04  9.09345E+03  5.67370E+03  1.92059E+04
 -1.30476E+04  8.16976E+03 -1.06858E+04 -7.91767E+03  4.97330E+03 -1.16869E+04  1.88113E+04  6.59194E+03
  1.44520E+04  2.07201E+04 -5.45720E+03  2.53947E+04 -2.23490E+04  1.09689E+04 -2.84601E+04 -5.37900E+03
 -2.12272E+04 -1.72011E+04 -7.68631E+03 -2.06141E+04  4.71272E+03 -1.97592E+04  1.71533E+04 -1.75443E+04
  2.55186E+04 -1.15802E+04  3.07989E+04  2.64983E+03  2.33530E+04  1.99844E+04  5.47018E+03  3.58953E+04
 -1.89412E+04  3.02016E+04 -2.71002E+04  9.81701E+03 -2.00601E+04 -9.95077E+03 -3.33531E+03 -1.37254E+04
  2.30376E+03 -3.90671E+03 -6.32343E+03  6.70203E+03 -1.49600E+04  4.66977E+03 -1.50376E+04 -7.12893E+03
 -9.78209E+03 -1.92465E+04  5.45986E+03 -2.24406E+04  1.52343E+04 -1.61472E+04  1.77718E+04 -1.23870E+03
  1.15032E+04  1.32206E+04 -9.88221E+02  1.88666E+04 -1.28424E+04  9.88588E+03 -1.72972E+04 -3.62048E+03
 -1.37486E+04 -1.65089E+04 -1.79449E+03 -2.33925E+04  1.06626E+04 -1.83408E+04  1.87549E+04 -8.88550E+03
  1.77854E+04 -6.55317E+02  1.24349E+04  4.28911E+03  6.72726E+03 -3.30791E+02  9.75814E+03 -2.13767E+03
  1.65567E+04  3.38447E+03  1.84167E+04  1.59364E+04  1.20161E+04  3.01389E+04 -3.79225E+03  3.32124E+04
 -1.89048E+04  2.68881E+04 -3.16062E+04  1.32815E+04 -3.18534E+04 -2.12376E+03 -2.68110E+04 -1.88323E+04
 -1.17218E+04 -2.70925E+04  8.44092E+03 -2.50074E+04  2.03616E+04 -1.20619E+04  2.02373E+04  5.90894E+03
  6.52339E+03  1.52846E+04 -8.32569E+03  1.33508E+04 -1.53818E+04  2.35662E+03 -1.14539E+04 -9.30306E+03
  1.72083E+03 -1.58917E+04  7.38851E+03 -1.05883E+04  1.08318E+04 -1.19318E+03  2.04751E+03  7.72739E+03
 -6.92588E+03  1.60571E+03 -6.51069E+03 -5.16137E+03 -4.40774E+02 -1.31342E+04  9.31020E+03 -1.33413E+04
  1.60430E+04 -8.46542E+03  1.75672E+04  2.84358E+03  1.54848E+04  1.33425E+04  7.30800E+03  1.96240E+04
 -3.18021E+03  2.12760E+04 -1.44896E+04  1.27605E+04 -1.63668E+04  3.56105E+03 -1.13165E+04 -3.03000E+03
 -4.64226E+03 -5.33178E+03 -1.20300E+03  1.38317E+03 -3.28954E+03  2.05961E+03 -5.96089E+03  3.24977E+03
 -1.08119E+04 -3.04967E+02 -1.08717E+04 -9.51696E+03 -4.39149E+03 -1.35787E+04  5.27776E+03 -1.23636E+04
  1.00748E+04 -3.68342E+03  7.45988E+03  2.26693E+03 -4.70573E+02  4.24370E+03 -4.46739E+03 -1.40892E+02
 -4.45250E+03 -6.01903E+03 -1.41312E+03 -1.09675E+04  6.62425E+03 -1.11287E+04  1.43330E+04 -5.96924E+03
  1.57146E+04  1.10992E+03  1.09107E+04  8.68568E+03  2.49693E+03  1.20160E+04 -7.43021E+03  1.05387E+04
 -8.53755E+03  4.43447E+03 -4.84608E+03 -3.68158E+02  1.53484E+03 -3.61876E+03  6.18972E+03 -5.83460E+02
  4.61383E+03  4.17950E+03  1.30486E+03  9.25978E+03 -5.77404E+03  8.68979E+03 -1.14556E+04  4.12300E+03
 -6.98954E+03 -5.80352E+03  1.40369E+03 -8.69797E+03  3.54359E+03 -4.47644E+03  4.84865E+03  1.38996E+03
  1.03894E+03  6.83927E+03 -4.98209E+03  7.59140E+03 -8.43454E+03  3.34458E+03 -7.62417E+03 -2.82371E+03
 -5.23654E+03 -8.27272E+03  1.58351E+03 -1.13933E+04  8.43876E+03 -6.01851E+03  1.07699E+04  1.40362E+03
  6.08999E+03  8.02250E+03 -9.35946E+02  1.06651E+04 -6.38222E+03  4.88621E+03 -7.50668E+03 -1.46316E+03
 -8.03372E+03 -7.26336E+03 -2.17897E+03 -7.18822E+03  4.85398E+03 -6.23416E+03  4.76112E+03 -3.35010E+03
  2.81918E+03  1.21461E+03 -1.01528E+03  1.52276E+03 -3.46829E+02 -1.21890E+03  6.34814E+02 -3.49010E+03
  5.65970E+03 -1.74313E+03  8.44736E+03  2.42734E+03  8.34957E+03  5.70377E+03  7.03890E+03  1.15949E+04
 -1.85908E+03  1.41191E+04 -1.15323E+04  9.33230E+03 -1.39961E+04  3.02341E+03 -1.24431E+04 -5.00233E+03
 -6.15484E+03 -1.00529E+04  4.54451E+02 -7.70162E+03  3.24272E+03 -3.87019E+03  3.18561E+03 -4.34734E+03
  1.89835E+03 -2.36469E+03  3.10615E+03 -3.23362E+03  5.23838E+03 -1.02956E+03  5.18451E+03 -3.76357E+02
  4.80134E+03  1.14499E+03  2.01607E+03  4.61722E+03 -3.06127E+03  5.60631E+03 -7.03421E+03  4.29575E+03
 -8.50960E+03 -1.76582E+03 -4.39740E+03 -5.81589E+03 -1.47338E+02 -7.08498E+03  4.69213E+03 -8.00887E+03
  1.00484E+04 -4.84917E+03  1.01565E+04  2.25340E+02  7.02404E+03  7.30430E+03  5.86855E+02  8.02849E+03
 -4.14110E+03  7.93164E+03 -5.93939E+03  2.30971E+03 -2.93050E+03 -6.93891E+02 -6.35700E+02 -1.33727E+03
 -2.26376E+02  5.18866E+02 -5.49227E+02  1.54174E+03 -4.79689E+03  1.37707E+03 -6.64425E+03  3.21992E+02
 -3.59570E+03 -5.45696E+03  8.96208E+02 -7.73916E+03  3.96795E+03 -7.86643E+03  5.74170E+03 -2.74280E+03
  7.43303E+03  4.38326E+03  3.41991E+03  7.13518E+03 -7.59815E+02  8.49222E+03 -4.72922E+03  3.49381E+03
 -6.72440E+03 -2.38663E+02 -6.44793E+03 -3.87461E+03 -8.78439E+02 -5.67401E+03  3.87278E+03 -4.78648E+03
  4.27399E+03 -1.99096E+03  3.05739E+03  1.61186E+03  1.54932E+03  2.10362E+03  1.15887E+03  1.10361E+03
  2.21840E+03  7.23313E+02  6.06945E+02  2.37687E+03  2.27429E+03  3.52609E+03  1.08943E+03  2.79148E+03
 -1.75538E+03  5.96529E+03 -4.32159E+03  6.44945E+03 -7.18399E+03  1.93188E+03 -7.49423E+03 -2.20120E+03
 -3.32224E+03 -7.52937E+03  1.70590E+03 -7.20565E+03  3.81541E+03 -4.94611E+03  5.12638E+03 -1.09890E+03
  3.88700E+03  2.32084E+03  1.00086E+03  3.77446E+03 -1.24261E+03  2.90345E+03 -2.19853E+03  6.12147E+02
  3.59345E+02 -1.86767E+03  2.32663E+03 -2.89836E+03  1.06491E+03 -1.35433E+03  2.92015E+03  3.90872E+02
  1.97297E+03  1.85185E+03  1.19598E+03  1.44861E+02  1.78192E+02  1.54651E+02  2.18262E+03  7.57494E+01
  8.63232E+02  6.52091E+02  4.08616E+03  6.18799E+02 -1.11020E+02  4.22852E+03 -6.85990E+02  4.71177E+03
 -3.48206E+03  3.63017E+03 -4.43845E+03  7.32527E+02 -4.09238E+03 -1.56905E+03 -1.48695E+03 -2.48072E+03
  1.17579E+03 -3.29605E+03  1.49576E+03 -2.38828E+03  1.81662E+03  3.10328E+03 -2.87554E+02  1.86872E+03
 -1.14361E+03  1.74795E+03 -3.38685E+03 -1.94944E+03 -1.33912E+03 -2.94190E+03  3.39662E+02 -3.06873E+03
  1.59073E+03 -1.90712E+03  9.33774E+02 -2.59849E+02  2.42047E+03  8.78778E+02 -5.06399E+02  1.91812E+03
 -1.24202E+03  1.94147E+03 -1.74451E+03 -1.20554E+03  5.79266E+02 -2.40767E+03  4.09224E+03 -2.75419E+03
  3.86193E+03  7.97641E+02  3.81509E+03  2.41307E+03  1.09822E+03  4.29707E+03 -1.41254E+03  3.74922E+03
 -2.06706E+03  1.18735E+03 -3.62588E+03 -8.68955E+02 -1.58243E+03 -2.76130E+03 -6.27186E+02 -1.07450E+03
  2.90227E+03 -2.46426E+02  2.78462E+03  8.41887E+02  2.59988E+02  2.40948E+03 -3.18240E+02  5.23920E+02
 -1.31208E+03  5.06006E+01 -2.20664E+02 -7.83583E+02 -2.25175E+02 -4.92903E+02 -5.93741E+02  2.73475E+02
 -5.85024E+02  2.00685E+03 -2.35680E+03  1.33788E+03 -2.53073E+03 -4.86477E+02 -3.81490E+03 -3.60358E+03
 -2.08832E+03 -3.71631E+03  1.59147E+03 -4.74622E+03  2.64728E+03 -3.01152E+03  4.43413E+03 -1.81296E+03
  4.51204E+03  8.87532E+01  2.67282E+03  2.28579E+03 -8.26257E+02  2.82072E+03 -2.02587E+03  2.51785E+03
 -2.06580E+03  2.62423E+03 -1.30129E+03 -4.78590E+02 -6.15611E+02  1.85776E+02 -2.39471E+02  1.30937E+03
 -7.78876E+02 -1.10344E+02 -2.94859E+02 -6.01573E+02  1.83529E+02 -7.38261E+02  3.40106E+01 -4.18138E+02
  1.40818E+03 -1.14005E+03  1.66743E+03  1.00296E+03  2.22700E+03  2.23688E+03  1.59286E+02  4.17596E+03
 -2.26293E+03  4.14744E+03 -3.72683E+03  2.95831E+03 -4.04739E+03 -5.82744E+02 -2.90208E+03 -3.17254E+03
 -1.17273E+03 -3.91670E+03  1.38846E+03 -3.01363E+03  1.14859E+03 -9.00535E+02  5.82779E+02 -7.35134E+02
  2.81872E+03  1.45805E+03 -1.58851E+02  8.16020E+02 -8.17223E+02  4.75760E+02  1.78585E+02 -1.68372E+03
  1.16725E+03  1.15942E+03  2.68574E+02 -1.00045E+02  7.69441E+02  5.93390E+02  7.94730E+02  8.54882E+02
 -8.25198E+02  2.49935E+02 -1.53423E+03 -5.05966E+02 -3.32447E+03 -6.87280E+01 -6.23626E+02 -2.26055E+03
  1.67955E+03 -1.72208E+03  1.91672E+03 -1.48498E+02  2.14180E+03 -1.28659E+03  9.32020E+02  1.97879E+03
  3.54944E+01  1.16662E+03 -1.35253E+03  1.95978E+03 -1.10573E+03  8.31363E+02 -1.43103E+03  7.13089E+02
  3.95405E+02 -1.43402E+02 -5.23676E+02  2.34351E+02 -8.01689E+02 -8.72288E+02 -6.82066E+02  6.12540E+02
 -1.89543E+03 -1.25159E+03 -8.06263E+02 -1.64901E+03  9.49487E+02 -2.33080E+03  1.32609E+03 -9.95068E+02
  2.14369E+03 -5.68059E+02  2.28839E+02  8.93309E+02 -1.34902E+03  1.15301E+03 -1.36635E+03  7.68426E+02
