 $NMID ID='MM_0lb_SNR200_15hz_g40_29.RAW', FMTDAT='(8E13.5)'
 TRAMP=1., VOLUME=1. $END
  3.10284E+05 -3.30059E+02  3.37124E+05  2.50274E+05  8.42522E+04  3.37650E+05 -1.31594E+05  2.51134E+05
 -1.88693E+05  8.16485E+04 -1.11415E+05 -3.27535E+04  1.92434E+03 -5.07263E+04  5.43042E+04  1.62581E+02
  3.49069E+04  5.30234E+04 -1.77712E+04  7.52521E+04 -6.00711E+04  6.30815E+04 -8.42728E+04  3.15046E+04
 -8.14086E+04 -1.10285E+04 -5.72635E+04 -5.01004E+04 -1.66629E+04 -6.85292E+04  2.70877E+04 -4.61794E+04
  3.88622E+04  3.96040E+03  1.61425E+04  4.71575E+04 -3.29151E+04  4.69701E+04 -6.56830E+04 -8.37557E+02
 -5.21548E+04 -5.71913E+04 -7.50870E+03 -7.74643E+04  3.26838E+04 -5.43678E+04  4.72162E+04 -1.57456E+04
  4.37802E+04  1.24185E+04  3.21541E+04  2.34136E+04  1.62924E+04  2.90815E+04 -4.69857E+03  2.75695E+04
 -2.23771E+04  1.17970E+04 -1.92217E+04 -5.66309E+03  4.99986E+03 -7.43772E+03  2.27134E+04  1.20605E+04
  6.66483E+03  3.50068E+04 -3.04811E+04  3.50641E+04 -6.25796E+04  2.52180E+03 -5.64292E+04 -4.18647E+04
 -1.30905E+04 -6.14274E+04  3.86252E+04 -4.45157E+04  5.75196E+04 -1.52919E+03  3.23357E+04  3.09689E+04
 -5.97202E+03  3.50328E+04 -2.88477E+04  1.44657E+04 -2.98227E+04 -4.71024E+03 -1.61606E+04 -1.03756E+04
 -6.29605E+03 -1.17358E+04 -6.26059E+02 -1.84962E+04  6.84534E+03 -2.21569E+04  1.61113E+04 -1.41284E+04
  1.15889E+04  4.46731E+03 -8.27403E+03  1.26389E+04 -1.95159E+04 -2.98000E+03 -8.51387E+03 -3.24520E+04
  2.20089E+04 -4.20073E+04  4.68895E+04 -1.90498E+04  4.33031E+04  1.86826E+04  1.45266E+04  4.39447E+04
 -1.60928E+04  3.26501E+04 -2.57465E+04  2.56155E+03 -9.43927E+03 -2.68224E+04  1.99384E+04 -3.19389E+04
  3.99937E+04 -8.17652E+03  3.38488E+04  2.29647E+04  1.67520E+04  4.49484E+04 -6.89758E+03  4.86165E+04
 -2.98868E+04  3.21069E+04 -3.99739E+04  7.42117E+03 -4.09450E+04 -1.58981E+04 -2.22679E+04 -3.62180E+04
  7.09878E+03 -3.67742E+04  3.07975E+04 -1.42369E+04  2.79811E+04  1.05277E+04  3.87210E+03  1.93938E+04
 -1.30836E+04  7.53630E+03 -1.03316E+04 -8.28541E+03  5.85815E+03 -1.12718E+04  1.81017E+04  5.87806E+03
  1.34071E+04  2.23187E+04 -6.09326E+03  2.44957E+04 -2.19833E+04  1.03156E+04 -2.69390E+04 -4.54705E+03
 -1.85351E+04 -1.72083E+04 -7.69886E+03 -1.89511E+04  2.89677E+03 -1.74451E+04  1.41801E+04 -1.68285E+04
  2.44011E+04 -1.29806E+04  3.10051E+04  2.28841E+03  2.20130E+04  1.84279E+04  4.59379E+03  3.49001E+04
 -1.65749E+04  2.96037E+04 -2.67384E+04  9.92800E+03 -1.88588E+04 -1.04121E+04 -4.00726E+03 -1.42857E+04
  2.04193E+03 -2.38210E+03 -2.76731E+03  6.69941E+03 -1.53766E+04  5.21632E+03 -1.62583E+04 -5.86549E+03
 -1.03908E+04 -1.74130E+04  5.12735E+03 -2.28760E+04  1.44337E+04 -1.54664E+04  1.75569E+04 -2.38657E+03
  1.01808E+04  1.22652E+04  1.60205E+02  1.76029E+04 -1.25783E+04  9.95480E+03 -1.79163E+04 -3.97311E+03
 -1.27156E+04 -1.55195E+04 -8.18404E+02 -2.14047E+04  1.03969E+04 -1.76218E+04  1.72716E+04 -7.45359E+03
  1.62992E+04  1.26748E+03  1.06909E+04  3.90685E+03  5.53643E+03  3.44178E+01  8.02880E+03 -1.31662E+03
  1.58669E+04  3.51146E+03  1.78251E+04  1.36772E+04  1.11748E+04  2.75927E+04 -2.34996E+03  3.14933E+04
 -1.83780E+04  2.42219E+04 -2.96042E+04  1.24209E+04 -3.06709E+04 -2.08443E+03 -2.48648E+04 -1.64887E+04
 -1.17688E+04 -2.40436E+04  7.49567E+03 -2.15793E+04  2.01958E+04 -1.25265E+04  1.76787E+04  3.84186E+03
  6.74754E+03  1.31501E+04 -9.83655E+03  1.10244E+04 -1.42629E+04  2.46270E+03 -1.11178E+04 -8.68424E+03
  1.10810E+02 -1.37093E+04  7.77164E+03 -1.09408E+04  9.28231E+03 -7.82639E+02  9.61310E+02  5.07767E+03
 -6.30442E+03  2.57244E+03 -4.47472E+03 -5.08510E+03  8.15153E+02 -1.18842E+04  7.85880E+03 -1.19545E+04
  1.61637E+04 -7.09880E+03  1.66874E+04  3.94753E+03  1.27284E+04  1.15343E+04  5.84785E+03  1.77002E+04
 -2.09913E+03  1.91825E+04 -1.19679E+04  1.14027E+04 -1.39240E+04  2.98007E+03 -1.03781E+04 -3.74324E+03
 -5.10140E+03 -4.76705E+03 -8.72778E+02  8.54676E+02 -1.62596E+03  1.89655E+03 -3.40253E+03  4.81007E+03
 -9.48577E+03 -1.10477E+03 -1.04064E+04 -8.40816E+03 -3.67498E+03 -1.22870E+04  4.42497E+03 -9.20608E+03
  8.27957E+03 -3.73614E+03  6.23061E+03  2.78715E+03  1.29591E+03  4.09124E+03 -4.23320E+03 -1.51327E+03
 -4.00318E+03 -6.88861E+03 -8.88900E+02 -9.62624E+03  4.95867E+03 -1.00616E+04  1.19421E+04 -5.67211E+03
  1.45032E+04  5.84522E+02  1.10032E+04  8.78153E+03  2.73696E+03  1.01361E+04 -6.22736E+03  1.07150E+04
 -8.71921E+03  2.97776E+03 -3.84393E+03 -2.03019E+03  1.82162E+03 -9.24332E+02  4.54685E+03 -8.09894E+02
  5.50445E+03  4.15470E+03  1.37706E+03  7.29375E+03 -4.78623E+03  7.67615E+03 -8.43819E+03  1.84111E+03
 -5.64829E+03 -3.03788E+03  2.05225E+01 -8.25268E+03  5.57509E+03 -4.06373E+03  4.74918E+03  1.91112E+03
  2.10890E+03  4.26392E+03 -4.74446E+03  6.02598E+03 -8.39566E+03  3.04387E+03 -6.80456E+03 -1.07531E+03
 -4.14984E+03 -9.00859E+03  2.10360E+03 -9.99032E+03  6.77398E+03 -5.63387E+03  9.68580E+03  9.92576E+02
  5.60109E+03  7.41704E+03 -6.86898E+01  8.12998E+03 -6.46342E+03  4.42883E+03 -7.56087E+03 -1.68524E+03
 -6.55695E+03 -5.98436E+03 -2.48527E+03 -7.21642E+03  3.73138E+03 -6.60108E+03  4.22314E+03 -3.39094E+03
  2.56836E+03  2.18261E+02  1.29208E+02  2.30077E+03  7.58170E+02 -1.04765E+03  1.41155E+03 -2.42875E+03
  4.67818E+03 -2.54141E+03  7.29746E+03  1.15710E+03  7.56113E+03  5.36996E+03  6.51273E+03  1.06197E+04
 -2.09526E+03  1.30876E+04 -1.08576E+04  9.41268E+03 -1.36313E+04  1.96559E+03 -1.00069E+04 -3.61573E+03
 -5.51393E+03 -9.34498E+03  1.35260E+02 -6.31038E+03  2.06894E+03 -4.13302E+03  4.01170E+03 -3.41890E+03
  2.14834E+03 -3.92355E+01  3.44184E+03 -2.43980E+03  4.08104E+03 -1.35744E+03  5.37362E+03  7.85837E+02
  5.69140E+03  8.32638E+02  2.96340E+03  5.66791E+03 -1.68117E+03  4.62006E+03 -4.72140E+03  3.29959E+03
 -6.20898E+03 -1.92980E+03 -2.87561E+03 -5.17811E+03 -8.03730E+02 -7.31409E+03  4.74623E+03 -6.98727E+03
  8.37127E+03 -4.71379E+03  9.50930E+03  9.40135E+02  6.86529E+03  7.23424E+03  1.83362E+03  8.44866E+03
 -3.35884E+03  8.17480E+03 -4.70564E+03  2.88180E+03 -4.25979E+03 -1.97538E+03 -1.73720E+03 -1.43699E+03
 -1.61352E+03  9.31192E+02 -1.64105E+03  1.78867E+03 -4.00453E+03  1.55572E+03 -5.18369E+03 -7.03253E+02
 -3.08774E+03 -4.51948E+03  6.96433E+01 -7.61282E+03  3.34998E+03 -7.47751E+03  5.88748E+03 -1.28281E+03
  6.70709E+03  3.18171E+03  3.12420E+03  5.91575E+03 -3.21526E+02  6.34429E+03 -3.79869E+03  4.39926E+03
 -5.76129E+03  1.25515E+03 -5.18032E+03 -4.23321E+03 -4.55988E+02 -5.23934E+03  1.59793E+03 -4.44770E+03
  4.27197E+03 -3.25599E+03  2.42818E+03  3.44988E+02  1.09173E+02  1.85713E+03  1.13505E+03  8.08081E+02
  2.14173E+03  6.22884E+02  1.32118E+03  1.84991E+03  1.19811E+03  1.70805E+03  1.82286E+03  3.11207E+03
 -1.67627E+03  5.73558E+03 -4.54598E+03  5.69153E+03 -5.34630E+03  1.33929E+03 -7.32170E+03 -1.58844E+03
 -2.77659E+03 -6.42735E+03  1.52542E+03 -7.07657E+03  4.04332E+03 -4.09658E+03  6.00311E+03 -7.56165E+02
  3.67789E+03  2.62084E+03  5.32137E+02  3.18549E+03 -8.83088E+02  2.09872E+03 -2.24972E+03  3.10514E+02
 -3.29939E+01 -3.52312E+03  5.61922E+02 -2.01906E+03  1.98331E+03 -1.23304E+03  3.06676E+03  9.33477E+02
  1.27149E+03  1.34655E+03  4.26619E+02 -4.46431E+02 -5.56200E+02  7.10373E+02  1.79059E+03 -5.00260E+01
 -1.44417E+02 -1.25118E+03  2.77835E+03  1.63793E+03  1.14322E+03  3.49868E+03  8.44675E+02  6.38483E+03
 -1.89742E+03  1.74030E+03 -3.90069E+03  7.67262E+02 -1.96654E+03 -1.02763E+03 -1.65230E+03 -1.87867E+03
  6.11996E+02 -2.43328E+03  1.59521E+03 -1.22705E+03  1.16849E+03  1.74049E+03 -1.18106E+03  1.91208E+03
 -2.62207E+03  1.31128E+03 -2.60409E+03 -1.64602E+03 -2.38992E+03 -3.39763E+03  1.29997E+03 -3.01491E+03
  1.91234E+03 -5.54613E+02  3.19103E+03 -2.99126E+02  2.40392E+03  5.79326E+02 -3.68629E+02  9.12690E+02
  4.95360E+02  1.24215E+03 -8.62496E+02  1.49425E+02  1.66813E+02 -2.27238E+03  2.80746E+03 -8.68158E+02
  3.34025E+03  1.91479E+02  3.54699E+03  3.53923E+03  1.09609E+03  3.20138E+03 -1.18087E+03  2.89055E+03
 -3.19124E+03  1.95221E+02 -2.49546E+03  2.74441E+02 -9.09499E+02 -3.24122E+03 -2.98430E+00 -1.78802E+03
  2.33427E+03 -5.30861E+02  8.36229E+02  1.12070E+03  1.41012E+02  2.87762E+03  1.18488E+03  2.67506E+03
 -8.22480E+02  1.68801E+03 -1.10956E+03  1.32833E+03 -6.92514E+02 -2.67322E+02  2.56288E+02  4.32120E+02
 -1.64689E+03  1.31305E+03 -2.20550E+03  1.50214E+03 -3.89248E+03 -8.20107E+01 -3.24972E+03 -2.52137E+03
 -1.47922E+03 -4.66878E+03  1.71149E+03 -4.97830E+03  3.30909E+03 -3.79777E+03  4.27749E+03 -1.69694E+03
  5.82079E+03  3.84312E+02  1.73904E+03  3.08968E+03  8.56483E+02  4.02933E+03 -2.09106E+03  2.75591E+03
 -2.28673E+03  7.00922E+02 -8.25425E+02 -5.93353E+02 -1.35796E+02 -9.64336E+02 -1.50094E+03  5.55896E+02
 -9.82088E+02 -1.17066E+02  6.27616E+01 -8.78082E+02 -2.91795E+02 -1.04917E+03 -4.08299E+02 -7.11661E+02
  2.11943E+03 -8.31903E+02  1.12223E+03  3.48100E+01  1.61859E+03  1.89861E+03 -6.15779E+02  3.01833E+03
 -2.21435E+03  4.19323E+03 -3.47679E+03  1.90444E+03 -4.09004E+03 -1.82460E+02 -2.63459E+03 -2.96389E+03
 -1.60329E+03 -2.67398E+03  1.15374E+03 -3.10747E+03  1.07501E+03 -1.40608E+03  1.93857E+03  6.40960E+02
  1.66150E+03  1.37252E+03 -1.04568E+03 -2.34264E+02 -9.84504E+02 -3.86365E+02 -1.96560E+02 -1.33117E+03
  8.39190E+02 -3.35761E+02  4.88522E+02  1.76665E+03  4.76826E+02  2.21013E+03  3.85557E+02  7.89882E+02
 -1.50038E+03  1.40511E+03 -5.61314E+02  1.23240E+03 -3.26517E+03 -1.44406E+03 -7.56301E+02 -3.20941E+03
  1.48366E+03 -1.02702E+03  1.82601E+03 -5.79153E+02  1.41854E+03 -2.75947E+02  2.16623E+03  2.47906E+03
 -3.71854E+02  7.32345E+02 -7.52312E+02  2.82101E+03 -2.14184E+03  1.99525E+03 -1.33360E+03  1.76594E+02
 -1.03421E+03  8.13572E+02  2.78104E+02  7.71658E+02  5.09462E+02  1.29164E+03 -1.73489E+03  3.23796E+01
 -1.11202E+03  3.93585E+01 -1.06445E+03 -2.74280E+03 -5.99197E+02 -2.63328E+03  1.84018E+03 -1.29068E+02
  1.61413E+03 -4.68786E+02 -2.10704E+02  9.16187E+02  8.34097E+02  1.58044E+03 -6.52143E+02  1.55033E+03
