 $NMID ID='MM_0lb_SNR200_20hz_g50_20.RAW', FMTDAT='(8E13.5)'
 TRAMP=1., VOLUME=1. $END
  3.09796E+05  6.67488E+02  3.36895E+05  2.50497E+05  8.50536E+04  3.36561E+05 -1.32779E+05  2.50565E+05
 -1.90230E+05  8.23004E+04 -1.10512E+05 -3.32684E+04  2.24489E+03 -4.98572E+04  5.39222E+04 -6.23968E+02
  3.55040E+04  5.27806E+04 -1.69861E+04  7.50758E+04 -5.98609E+04  6.21924E+04 -8.24131E+04  3.11362E+04
 -7.97791E+04 -1.08571E+04 -5.65385E+04 -5.07555E+04 -1.51962E+04 -6.91459E+04  2.63378E+04 -4.49717E+04
  3.92481E+04  3.89179E+03  1.50830E+04  4.76354E+04 -3.45651E+04  4.52587E+04 -6.54311E+04 -8.86300E+01
 -5.15766E+04 -5.56418E+04 -6.29510E+03 -7.51459E+04  3.35275E+04 -5.38633E+04  4.52533E+04 -1.66041E+04
  4.10476E+04  1.09177E+04  2.95452E+04  2.41200E+04  1.54946E+04  2.84963E+04 -4.19652E+03  2.58724E+04
 -2.12271E+04  1.24035E+04 -1.90112E+04 -4.04175E+03  4.04315E+03 -6.68816E+03  2.01845E+04  1.06456E+04
  7.94604E+03  3.25617E+04 -2.98121E+04  3.35166E+04 -6.10860E+04  3.00130E+03 -5.53024E+04 -4.09331E+04
 -1.16206E+04 -5.96526E+04  3.72759E+04 -4.37929E+04  5.47376E+04 -1.27038E+03  3.15645E+04  3.03158E+04
 -6.08531E+03  3.30363E+04 -2.87608E+04  1.34391E+04 -2.79890E+04 -5.35275E+03 -1.34522E+04 -9.92908E+03
 -7.79617E+03 -1.09921E+04 -9.62817E+02 -1.62368E+04  6.00981E+03 -2.18958E+04  1.48597E+04 -1.50852E+04
  1.21409E+04  3.54807E+03 -6.29970E+03  1.28453E+04 -1.91444E+04 -1.19488E+03 -9.20720E+03 -3.05976E+04
  2.01114E+04 -4.02108E+04  4.41925E+04 -1.78172E+04  4.10959E+04  1.88947E+04  1.47834E+04  4.12688E+04
 -1.47636E+04  3.09722E+04 -2.25974E+04  1.57393E+03 -8.32335E+03 -2.58014E+04  1.98211E+04 -3.08586E+04
  3.80928E+04 -6.75741E+03  3.06165E+04  2.21900E+04  1.43675E+04  4.13310E+04 -7.70932E+03  4.45840E+04
 -2.84137E+04  2.98085E+04 -3.71696E+04  8.19098E+03 -3.72865E+04 -1.38591E+04 -2.16429E+04 -3.44428E+04
  5.98071E+03 -3.28530E+04  2.84016E+04 -1.25690E+04  2.64618E+04  1.00422E+04  2.53461E+03  1.83197E+04
 -1.25613E+04  6.56263E+03 -9.96908E+03 -6.53568E+03  5.50490E+03 -1.01456E+04  1.69079E+04  7.58912E+03
  1.31534E+04  1.97413E+04 -6.81802E+03  2.36102E+04 -2.12493E+04  8.79894E+03 -2.42994E+04 -6.63397E+03
 -1.74389E+04 -1.58628E+04 -4.90597E+03 -1.50499E+04  2.00018E+03 -1.33570E+04  1.19415E+04 -1.38803E+04
  2.00484E+04 -1.14052E+04  2.69807E+04  1.82487E+03  2.00466E+04  1.61879E+04  4.85474E+03  3.11969E+04
 -1.67389E+04  2.67589E+04 -2.51627E+04  9.24582E+03 -2.03284E+04 -1.04250E+04 -3.17100E+03 -1.34994E+04
  2.90396E+03 -4.20208E+03 -2.80603E+03  5.60260E+03 -1.22068E+04  5.84543E+03 -1.21902E+04 -4.38624E+03
 -8.67911E+03 -1.42981E+04  3.94543E+03 -1.89801E+04  1.19677E+04 -1.41130E+04  1.41530E+04 -1.61028E+03
  8.64627E+03  1.06188E+04 -1.97214E+02  1.52270E+04 -9.70364E+03  8.20910E+03 -1.57522E+04 -2.66068E+03
 -1.00188E+04 -1.27774E+04 -9.17625E+02 -1.80910E+04  9.38799E+03 -1.53986E+04  1.42437E+04 -6.06459E+03
  1.38119E+04  1.45678E+03  9.72482E+03  2.83480E+03  4.57946E+03  7.12493E+02  7.46749E+03 -1.29039E+03
  1.31546E+04  2.22430E+03  1.32171E+04  1.12225E+04  8.60865E+03  2.39373E+04 -2.84403E+03  2.64566E+04
 -1.46054E+04  1.92541E+04 -2.23181E+04  7.34028E+03 -2.29822E+04 -2.00462E+03 -2.06695E+04 -1.25516E+04
 -9.47614E+03 -1.94266E+04  5.45054E+03 -1.81912E+04  1.65070E+04 -1.15024E+04  1.50085E+04  2.55103E+03
  6.08062E+03  1.01716E+04 -5.78063E+03  1.01250E+04 -1.23663E+04  3.15627E+03 -1.02638E+04 -7.86534E+03
  4.71211E+02 -1.11331E+04  6.58318E+03 -9.06734E+03  8.39479E+03 -5.66488E+02  1.66372E+03  3.90635E+03
 -6.22450E+03  1.31112E+03 -2.99657E+03 -4.29256E+03  1.12280E+02 -9.17901E+03  7.61865E+03 -8.72795E+03
  1.14779E+04 -4.27030E+03  1.10557E+04  2.73310E+03  9.48114E+03  7.81620E+03  3.84848E+03  1.23775E+04
 -1.67327E+03  1.46959E+04 -9.25830E+03  9.90561E+03 -1.04112E+04  3.75608E+03 -7.45488E+03 -2.28975E+02
 -3.94417E+03 -2.64274E+03  8.71863E+01  1.21571E+03 -1.71542E+03  2.55471E+03 -3.60551E+03  2.75227E+03
 -7.44442E+03 -7.82885E+02 -8.11370E+03 -7.23851E+03 -3.55729E+03 -1.05856E+04  3.83442E+03 -8.14346E+03
  6.35438E+03 -4.72396E+03  5.79298E+03  2.07457E+03 -1.20043E+02  1.60054E+03 -2.68951E+03 -7.40806E+01
 -3.14745E+03 -4.47175E+03  6.81575E+02 -7.19720E+03  3.13459E+03 -6.72910E+03  9.13516E+03 -4.14190E+03
  1.13297E+04  9.36328E+02  8.09069E+03  6.03879E+03  1.00274E+03  7.74026E+03 -6.32213E+03  6.90125E+03
 -7.02349E+03  2.17129E+03 -2.92790E+03 -2.88831E+02  1.32543E+03 -1.92329E+03  4.36229E+03 -1.39932E+03
  4.12727E+03  3.53446E+03  5.90392E+02  6.31589E+03 -3.60464E+03  6.55481E+03 -7.70056E+03  2.60039E+03
 -3.90093E+03 -3.49231E+03 -3.05190E+02 -5.82216E+03  3.37159E+03 -3.69547E+03  2.93612E+03  1.39854E+03
 -3.00240E+02  2.48584E+03 -2.83413E+03  3.74031E+03 -4.70328E+03  1.82789E+03 -4.51748E+03 -1.36922E+03
 -2.27559E+03 -4.70507E+03  4.26496E+02 -5.51680E+03  4.91432E+03 -3.66466E+03  5.68879E+03  9.13019E+02
  3.90858E+03  3.70682E+03  5.74066E+02  6.26820E+03 -3.96215E+03  3.80557E+03 -4.77717E+03 -4.59696E+01
 -5.63823E+03 -4.29813E+03 -1.43843E+02 -4.92866E+03  1.28618E+03 -4.32668E+03  2.74906E+03 -3.19193E+03
  2.95234E+03 -1.69225E+02 -1.79155E+02  1.75271E+03  8.60418E+02 -8.05799E+02  7.49247E+02 -6.69414E+02
  2.99646E+03  1.67943E+02  4.32434E+03  1.61462E+03  4.33606E+03  2.12101E+03  4.20459E+03  5.17076E+03
 -9.88545E+02  6.17266E+03 -5.83850E+03  4.96214E+03 -8.47134E+03  9.53303E+02 -6.48097E+03 -1.38990E+03
 -3.23611E+03 -5.73074E+03 -2.57540E+01 -3.89506E+03  1.57418E+03 -2.30712E+03  1.68506E+03 -1.92333E+03
  1.91160E+03 -1.42938E+03  1.33513E+03 -2.23625E+03  2.27477E+03 -8.96575E+01  3.79584E+03  2.41601E+02
  3.93749E+03  1.96906E+03  1.22775E+03  2.82490E+03 -7.40335E+02  1.57708E+03 -4.49425E+03  2.29389E+03
 -3.98842E+03 -1.56476E+03 -1.24088E+03 -3.41129E+03  1.03319E+03 -4.02089E+03  3.04108E+03 -3.32419E+03
  4.85464E+03 -2.28220E+03  6.54466E+03  6.58978E+02  4.25997E+03  3.27435E+03  1.36044E+03  4.59405E+03
 -2.26315E+03  5.14484E+03 -2.93546E+03 -1.14615E+01 -1.80058E+03  1.90674E+02 -4.97435E+02 -4.59106E+02
 -1.39732E+03 -9.36836E+00 -1.76853E+02  2.44741E+03 -1.28224E+03  5.97632E+02 -2.75196E+03  3.76024E+02
 -1.06980E+03 -3.32921E+03  1.01211E+03 -3.91386E+03  2.52781E+03 -3.80633E+03  2.90029E+03 -9.89714E+02
  4.10890E+03  2.01340E+03  2.24395E+03  2.76465E+03 -1.13579E+03  3.08525E+03 -2.47842E+03  1.53793E+03
 -3.50209E+03  1.13105E+03 -2.99307E+03 -2.68869E+03 -6.09080E+02 -2.51037E+03  7.64160E+02 -2.05540E+03
  1.42433E+03 -1.74135E+03  1.24498E+03  2.05066E+02  4.90039E+00  1.45499E+03  2.70299E+02 -5.64863E+00
  1.80969E+03  2.35706E+02  1.43323E+03  1.04112E+03  9.62296E+02  1.28835E+03  6.13885E+02  1.74386E+03
 -9.46649E+02  2.08990E+03 -1.36364E+03  4.80621E+03 -1.53775E+03  1.04079E+03 -3.30968E+03 -4.71249E+02
 -8.53084E+02 -2.37793E+03 -1.67387E+02 -5.07463E+03  1.04053E+03 -2.16333E+03  1.57044E+03 -9.26450E+02
  1.90828E+03  1.45877E+03  1.10519E+02  2.89059E+03  7.18130E+02  8.60541E+02  1.75667E+02 -2.82021E+02
 -4.58784E+02  2.56712E+02  1.49897E+03 -1.48828E+03  5.00000E+02 -1.31410E+03  1.14569E+03  2.93570E+02
  1.33724E+03  4.49079E+02  6.54921E+02 -1.91496E+03 -3.03390E+02  6.73704E+02  1.16817E+03 -3.66866E+02
 -5.32819E+02  1.35986E+02  1.92616E+03  5.73502E+02  7.86772E+01  2.02822E+03  3.11249E+02  2.15287E+03
 -1.42981E+03  2.03898E+03 -1.77410E+03 -2.25270E+02 -3.24435E+02 -1.01628E+03 -4.83599E+02 -6.58268E+02
  6.16193E+02 -1.97612E+03  1.70044E+03  3.10175E+02  1.00110E+03  1.09939E+03 -8.75361E+02 -3.33034E+02
 -6.68176E+02  6.67097E+02 -4.99196E+01 -9.38957E+02 -8.06638E+01 -2.52301E+03  3.10702E+02 -4.52032E+02
  7.68230E+02 -1.40253E+02  1.38193E+02 -8.80111E+00  1.37103E+03 -6.77085E+02  7.52852E+02  3.58092E+02
 -5.90569E+02  3.22384E+01  1.02821E+02  1.12153E+02  7.44996E+02 -1.45688E+03  1.38884E+03 -6.82678E+02
  8.22555E+02  3.05509E+02  2.88870E+03  6.29811E+02  6.39360E+01  1.61189E+03 -1.55940E+02  1.71385E+03
 -1.08015E+03 -1.06972E+03 -3.26243E+02  2.60888E+02 -4.78764E+02 -1.43972E+03  1.04092E+03 -3.08812E+02
  7.56610E+02 -2.34326E+02 -3.54678E+02  1.25419E+03 -3.96980E+02  1.60498E+03  4.89203E+02  1.52644E+03
  3.86929E+02  1.21751E+03 -2.38338E+02  6.02296E+02 -1.02235E+02 -3.64147E+01 -5.61977E+02 -5.43564E+02
 -1.97413E+02  6.74771E+02 -2.53410E+03  9.22091E+01 -1.71176E+03  8.03709E+02 -3.29056E+03 -1.81087E+03
 -1.10379E+03 -1.71568E+03 -2.44739E+02 -1.81885E+03  1.09595E+03 -1.59427E+03  2.54008E+03 -5.80287E+02
  2.54304E+03  3.07978E+02  8.19948E+01  1.42136E+03  8.06115E+01  1.83371E+03 -1.23782E+03  8.41769E+02
 -6.40473E+02  2.15835E+02 -5.20806E+02 -5.71297E+02 -1.36300E+03  1.55021E+03 -7.99562E+02 -1.28016E+02
 -5.26741E+02 -1.42994E+01 -1.06177E+03 -6.57122E+02 -7.24969E+02 -1.43449E+03  1.94226E+01 -6.99924E+02
  1.73383E+03 -5.18501E+02 -4.43147E+02  3.91263E+02 -4.24949E+02  1.57001E+03 -7.90820E+02  1.42293E+03
 -2.90811E+02  9.28758E+02 -7.42647E+02  2.25324E+02 -1.74344E+03 -5.55606E+02 -5.29248E+02 -1.31752E+03
 -1.02026E+03 -8.60236E+02 -1.96445E+02 -6.58065E+02  3.73465E+02  2.96274E+02  2.15452E+02  1.40087E+02
  1.42419E+03  6.73005E+02 -1.01001E+03  1.82284E+02 -2.98669E+02 -9.31200E+02  8.12220E+01  6.43976E+01
 -3.51796E+02  1.75720E+02  7.64358E+01 -5.60754E+02  1.17663E+02  9.70511E+01  4.64246E+02  5.69288E+02
  1.97437E+02 -2.06654E+02  6.89658E+01  1.12810E+03 -6.92708E+01  2.98395E+02 -4.14765E+02 -1.17768E+03
 -7.15323E+02 -5.89001E+02  1.95047E+02  2.90142E+02  9.61029E+02 -1.07819E+03  6.81940E+02  8.38568E+01
  3.84766E+01  7.67835E+02 -1.37865E+03  1.65771E+03 -4.98669E+02  6.76346E+01 -1.00906E+03  4.65682E+02
  2.82160E+01  6.19106E+01  7.09022E+02  3.16990E+02  4.42780E+00 -8.28360E+02 -6.61951E+02 -1.00003E+03
 -3.36454E+02 -9.16427E+02  2.01350E+03 -5.96915E+02  4.66671E+02 -1.00559E+03  8.35317E+02  2.10863E+02
  1.27594E+03 -8.14308E+01  6.15662E+02 -5.10788E+02 -4.17129E+02  5.43530E+02 -3.84963E+02  7.66224E+02
