 $NMID ID='MM_0lb_SNR200_7hz_g60_17.RAW', FMTDAT='(8E13.5)'
 TRAMP=1., VOLUME=1. $END
  3.09076E+05 -6.03380E+01  3.38265E+05  2.52366E+05  8.44880E+04  3.37400E+05 -1.31639E+05  2.52560E+05
 -1.92159E+05  8.46954E+04 -1.14042E+05 -3.14301E+04 -1.63483E+03 -5.09641E+04  5.31674E+04 -7.70233E+02
  3.82987E+04  5.26613E+04 -1.62950E+04  7.65089E+04 -6.10894E+04  6.61886E+04 -8.66055E+04  3.17774E+04
 -8.44318E+04 -1.34881E+04 -5.96238E+04 -5.31266E+04 -1.45041E+04 -7.08765E+04  2.84049E+04 -4.91536E+04
  4.32540E+04  6.07249E+03  1.69319E+04  4.87385E+04 -3.48964E+04  4.90074E+04 -6.93675E+04  1.15407E+03
 -5.47741E+04 -5.91855E+04 -6.76890E+03 -8.09595E+04  3.49469E+04 -5.89955E+04  5.03376E+04 -1.93825E+04
  4.65410E+04  1.20585E+04  3.28698E+04  2.64716E+04  1.49910E+04  3.31859E+04 -6.39625E+03  2.70353E+04
 -2.23915E+04  1.18353E+04 -1.75403E+04 -6.81595E+03  6.07668E+03 -6.82699E+03  2.44894E+04  1.55964E+04
  5.29818E+03  3.78620E+04 -3.55878E+04  3.85658E+04 -6.65598E+04  3.24948E+03 -5.97973E+04 -4.58344E+04
 -1.21441E+04 -6.70708E+04  4.26972E+04 -4.91703E+04  6.07104E+04 -4.37181E+03  3.73594E+04  3.63765E+04
 -4.53836E+03  3.88876E+04 -3.28883E+04  1.97769E+04 -3.48382E+04 -2.45957E+03 -2.01644E+04 -1.23910E+04
 -9.99732E+03 -1.48432E+04 -3.33376E+02 -2.23342E+04  9.26477E+03 -2.30566E+04  1.57300E+04 -1.23420E+04
  1.04316E+04  7.34912E+03 -1.23375E+04  1.34259E+04 -2.55848E+04 -5.74234E+03 -9.21564E+03 -3.82016E+04
  2.54646E+04 -5.01660E+04  5.52022E+04 -2.10688E+04  5.16000E+04  2.09128E+04  1.72547E+04  4.79747E+04
 -1.65638E+04  3.85656E+04 -2.88586E+04  2.32505E+03 -1.38062E+04 -3.03840E+04  2.10248E+04 -3.80731E+04
  4.84605E+04 -1.25646E+04  4.48966E+04  2.63253E+04  2.31674E+04  5.10166E+04 -9.54909E+03  5.98956E+04
 -3.63912E+04  3.89834E+04 -5.12409E+04  1.20194E+04 -5.03749E+04 -2.16367E+04 -2.82816E+04 -4.57680E+04
  7.11406E+03 -4.61507E+04  3.50612E+04 -1.96278E+04  3.40532E+04  1.15375E+04  3.90149E+03  2.44923E+04
 -1.39043E+04  1.07267E+04 -1.25096E+04 -7.01361E+03  6.37076E+03 -1.28125E+04  2.03671E+04  4.65299E+03
  1.49458E+04  2.22175E+04 -5.26240E+03  2.88661E+04 -2.47625E+04  1.61996E+04 -3.47578E+04 -2.29030E+03
 -2.75163E+04 -1.88062E+04 -1.32910E+04 -2.80257E+04  5.21187E+03 -2.76366E+04  2.35093E+04 -2.46154E+04
  3.58495E+04 -1.41271E+04  4.04597E+04  7.01409E+03  2.91572E+04  2.66640E+04  4.51913E+03  4.62878E+04
 -2.31949E+04  3.61655E+04 -3.22471E+04  1.31173E+04 -2.52804E+04 -1.05060E+04 -4.57619E+03 -1.07452E+04
 -1.05750E+02 -1.38885E+02 -1.02991E+04  9.77094E+03 -2.05615E+04  6.90045E+03 -2.10992E+04 -1.30075E+04
 -1.37222E+04 -2.53959E+04  6.14592E+03 -3.19916E+04  2.18989E+04 -2.24276E+04  2.62813E+04  5.68800E+02
  1.62132E+04  1.64919E+04 -3.04992E+03  2.59485E+04 -2.06721E+04  1.40074E+04 -2.64832E+04 -6.82886E+03
 -1.93943E+04 -2.23429E+04 -4.13861E+03 -3.10248E+04  1.32770E+04 -2.55743E+04  2.63602E+04 -1.40258E+04
  2.44229E+04  1.19262E+03  1.74596E+04  4.78328E+03  9.38396E+03  3.08687E+03  1.60780E+04 -1.73034E+03
  2.60938E+04  1.65201E+03  2.99344E+04  2.00004E+04  1.89239E+04  4.22058E+04 -1.03877E+03  4.99396E+04
 -2.64131E+04  4.51848E+04 -4.99364E+04  2.21352E+04 -5.32499E+04 -3.79984E+03 -3.98048E+04 -3.14985E+04
 -1.53968E+04 -4.27437E+04  1.36736E+04 -3.82547E+04  3.19359E+04 -1.65169E+04  2.84177E+04  1.02112E+04
  8.90619E+03  2.16231E+04 -1.24624E+04  1.77244E+04 -2.23673E+04  3.05710E+03 -1.64069E+04 -1.46499E+04
  1.91701E+03 -2.33945E+04  1.18909E+04 -1.80581E+04  1.65784E+04  4.77435E+02  5.26548E+03  1.13221E+04
 -9.43755E+03  3.84933E+03 -1.15971E+04 -7.35818E+03 -2.91758E+03 -1.97017E+04  1.45573E+04 -2.39775E+04
  2.82057E+04 -1.38873E+04  3.26562E+04  2.49325E+03  2.64795E+04  2.11404E+04  1.14237E+04  3.48943E+04
 -9.00797E+03  3.65002E+04 -2.55792E+04  2.39667E+04 -2.50638E+04  3.79638E+03 -2.03510E+04 -7.17933E+03
 -7.03358E+03 -9.11045E+03 -2.00549E+03 -9.79164E+02 -1.29345E+03  4.41598E+03 -8.43274E+03  5.11548E+03
 -1.73638E+04 -8.76463E+02 -1.72550E+04 -1.29772E+04 -8.39177E+03 -2.14145E+04  6.51976E+03 -2.07346E+04
  1.63170E+04 -8.26416E+03  1.04451E+04  6.79380E+03  3.67075E+01  9.18933E+03 -9.44209E+03 -3.47994E+01
 -1.15853E+04 -1.14753E+04 -2.00599E+03 -1.80315E+04  1.07731E+04 -1.81430E+04  2.52107E+04 -1.03024E+04
  2.71136E+04  4.47241E+03  2.02149E+04  1.73369E+04  6.31308E+03  2.51941E+04 -1.20073E+04  1.96776E+04
 -1.48818E+04  4.05713E+03 -7.36562E+03 -5.90920E+03  4.07208E+03 -4.43537E+03  1.06952E+04 -1.08842E+03
  8.28592E+03  8.51953E+03 -1.14243E+03  1.65972E+04 -1.02318E+04  1.42708E+04 -1.83421E+04  3.52056E+03
 -1.15912E+04 -1.08696E+04  8.99377E+02 -1.63012E+04  1.16889E+04 -8.39598E+03  1.43060E+04  5.23175E+03
  3.70819E+03  1.21253E+04 -9.70470E+03  1.51490E+04 -1.62575E+04  7.20562E+03 -1.74196E+04 -5.01334E+03
 -1.03903E+04 -2.08404E+04  4.79062E+03 -2.20940E+04  1.89928E+04 -1.31872E+04  2.21105E+04  4.26580E+03
  1.29921E+04  1.88735E+04 -3.66781E+03  1.97170E+04 -1.67680E+04  1.10024E+04 -1.61793E+04 -2.48051E+03
 -1.32946E+04 -1.29001E+04 -1.17326E+03 -1.68731E+04  9.05791E+03 -1.22033E+04  8.72701E+03 -3.66778E+03
  5.20903E+03  2.45369E+03 -3.43370E+03  9.07275E+02 -1.35554E+03 -4.69029E+03  5.02993E+03 -1.06504E+04
  1.65825E+04 -5.24940E+03  2.19265E+04  2.57367E+03  2.05324E+04  1.36448E+04  1.21541E+04  2.45959E+04
 -7.15569E+03  3.18708E+04 -2.56150E+04  2.20760E+04 -3.38722E+04  2.21891E+03 -2.59809E+04 -1.27962E+04
 -1.34399E+04 -2.13130E+04 -4.91191E+02 -1.89554E+04  7.81247E+03 -1.13626E+04  6.52044E+03 -7.28911E+03
  3.80011E+03 -5.36295E+03  5.53046E+03 -4.01434E+03  6.32762E+03 -6.30287E+03  9.91204E+03 -1.53050E+03
  1.18833E+04  3.66149E+03  6.49861E+03  1.20664E+04 -3.85612E+03  1.55421E+04 -1.32904E+04  1.20298E+04
 -1.92367E+04 -2.50303E+03 -1.25411E+04 -1.32111E+04 -2.28810E+03 -2.24102E+04  1.09909E+04 -2.18285E+04
  2.05669E+04 -9.94086E+03  2.64399E+04  2.87593E+03  1.87244E+04  1.92348E+04  3.54074E+03  2.25731E+04
 -1.22026E+04  1.71363E+04 -1.44189E+04  7.06610E+03 -1.16109E+04 -2.44600E+03 -5.25809E+03 -3.34621E+03
 -2.93575E+03 -1.18891E+02 -3.47827E+03  5.29547E+03 -8.83691E+03  2.58725E+03 -1.25621E+04 -1.73480E+02
 -9.18940E+03 -1.29247E+04 -1.29997E+03 -1.79334E+04  1.22988E+04 -1.82420E+04  1.96198E+04 -5.42497E+03
  2.02961E+04  9.86820E+03  8.00512E+03  1.87733E+04 -4.45199E+03  1.98000E+04 -1.54866E+04  1.04979E+04
 -1.74418E+04 -3.61753E+02 -1.41626E+04 -1.04372E+04 -1.21754E+03 -1.66811E+04  1.05285E+04 -1.30801E+04
  1.19969E+04 -4.99818E+03  8.02114E+03  2.93361E+03  5.88323E+03  7.78029E+03  2.03012E+03  3.35068E+03
  3.68543E+03  1.07892E+03  6.73693E+03  1.05956E+03  4.47696E+03  8.65877E+03  4.13590E+03  1.31936E+04
 -1.89187E+03  1.86925E+04 -1.50409E+04  1.70620E+04 -2.22125E+04  3.54900E+03 -2.19769E+04 -1.02826E+04
 -1.00871E+04 -2.22999E+04  1.95409E+03 -2.30076E+04  1.37183E+04 -1.27074E+04  1.71969E+04 -4.03958E+03
  1.29316E+04  8.02293E+03  2.06314E+03  1.22595E+04 -3.90091E+03  8.58212E+03 -9.14985E+03 -2.47462E+03
 -4.89607E+03 -7.95218E+03  2.47581E+03 -8.69449E+03  9.15024E+03 -3.80664E+03  9.66682E+03  4.49889E+02
  4.34537E+03  3.89887E+03  3.51897E+03  5.45120E+03  4.22723E+02  2.66739E+03  1.26950E+03 -1.33451E+03
  4.73082E+03 -7.03821E+01  8.36668E+03  1.36577E+03  6.63991E+03  1.04003E+04 -1.47890E+03  1.46592E+04
 -1.05223E+04  9.85635E+03 -1.65697E+04  3.48940E+03 -1.42976E+04 -4.06996E+03 -4.15274E+03 -8.98797E+03
  2.48923E+03 -8.07908E+03  2.38386E+03 -3.50840E+03  2.95023E+03  2.89268E+03 -1.98075E+03  6.82551E+03
 -8.22820E+03  5.14842E+03 -1.15444E+04 -5.36195E+03 -6.87963E+03 -1.24120E+04  8.30769E+02 -1.21634E+04
  9.24796E+03 -8.62305E+03  8.57309E+03 -1.38286E+02  7.01684E+03  4.51237E+03  7.69314E+02  7.12526E+03
 -5.26179E+03  2.81461E+03 -6.97377E+03 -2.93545E+03  3.83471E+03 -1.10391E+04  1.11947E+04 -7.26852E+03
  1.38791E+04  1.06957E+03  1.56757E+04  1.20786E+04  6.14907E+03  1.53285E+04 -6.13499E+03  1.32191E+04
 -1.23195E+04  6.34679E+03 -1.17290E+04 -1.28267E+03 -9.50696E+03 -8.95067E+03  2.10894E+03 -9.97381E+03
  7.25139E+03 -4.49325E+03  7.14532E+03  4.10949E+03  4.35370E+03  7.11158E+03 -2.22851E+03  8.09813E+03
 -4.74411E+03  5.43531E+03 -4.29927E+03  1.48826E+03 -1.03645E+03  2.78349E+03 -1.40538E+03  1.83430E+03
 -4.40146E+03  5.38179E+03 -1.01665E+04  5.50985E+03 -1.53497E+04  2.34350E+02 -1.75789E+04 -8.90329E+03
 -1.11637E+04 -1.92638E+04  4.45678E+03 -2.32811E+04  1.34430E+04 -1.59576E+04  2.23874E+04 -7.12041E+03
  1.98024E+04  3.65909E+03  1.38414E+04  1.38458E+04  1.40996E+03  1.59104E+04 -4.41925E+03  9.71451E+03
 -9.81563E+03  4.71764E+03 -4.75205E+03 -1.03608E+03 -3.30223E+03 -2.87042E+03 -3.72207E+02 -1.61867E+03
 -1.41899E+03  1.14088E+03 -3.45645E+03  1.67270E+03 -1.48858E+03 -5.28312E+03 -6.11236E+01 -6.67752E+03
  7.32359E+03 -5.08291E+03  9.65079E+03 -4.83215E+02  1.13459E+04  9.16590E+03  2.23894E+03  1.66305E+04
 -7.80039E+03  1.82719E+04 -1.73207E+04  1.19286E+04 -1.92476E+04 -2.16226E+03 -1.40106E+04 -1.30879E+04
 -7.17466E+03 -1.80934E+04  2.96024E+03 -1.46161E+04  1.07686E+04 -9.84841E+03  1.14187E+04  3.42768E+01
  6.40278E+03  4.71722E+03 -1.67050E+02  4.25380E+03 -3.00626E+03 -2.42679E+03  9.33297E+02 -5.63395E+03
  3.90268E+03 -1.72577E+03  5.50189E+03  2.76619E+03  5.60109E+03  5.68440E+03  5.93601E+02  8.72180E+03
 -8.11831E+03  5.83088E+03 -1.17628E+04  5.02098E+02 -1.35534E+04 -8.82283E+03 -1.39723E+03 -1.40620E+04
  6.16056E+03 -1.23384E+04  1.22619E+04 -3.75220E+03  1.35502E+04  2.19813E+03  8.40555E+03  9.65463E+03
  1.30205E+03  1.28312E+04 -4.45003E+03  7.56779E+03 -7.97599E+03  4.45856E+03 -5.48557E+03  1.92356E+03
 -2.65802E+03 -7.09135E+02 -4.38129E+03  1.25247E+03 -6.51947E+03  1.15676E+03 -8.64058E+03 -7.40440E+02
 -8.62593E+03 -6.12887E+03 -3.63908E+03 -9.46334E+03  6.06334E+03 -1.05119E+04  1.10147E+04 -3.99710E+03
  1.16508E+04  1.66687E+03  7.51628E+03  5.89831E+03 -2.50297E+03  1.23598E+04 -8.93967E+03  5.67169E+03
