 $NMID ID='MM_0lb_SNR200_16hz_g45_1.RAW', FMTDAT='(8E13.5)'
 TRAMP=1., VOLUME=1. $END
  3.09249E+05  9.77235E+02  3.37446E+05  2.49289E+05  8.45543E+04  3.38374E+05 -1.32350E+05  2.50411E+05
 -1.89620E+05  8.24698E+04 -1.12058E+05 -3.24449E+04  9.87143E+02 -5.03193E+04  5.41929E+04  2.66573E+02
  3.58271E+04  5.18513E+04 -1.71948E+04  7.58713E+04 -5.96457E+04  6.33643E+04 -8.29920E+04  3.18112E+04
 -7.94948E+04 -1.05839E+04 -5.58465E+04 -5.06462E+04 -1.39349E+04 -6.84725E+04  2.65478E+04 -4.55823E+04
  3.88747E+04  3.38128E+03  1.54860E+04  4.73920E+04 -3.54937E+04  4.68221E+04 -6.64491E+04 -1.28930E+03
 -5.22019E+04 -5.56803E+04 -6.19903E+03 -7.68047E+04  3.42251E+04 -5.42118E+04  4.71869E+04 -1.73463E+04
  4.32083E+04  1.19158E+04  3.05842E+04  2.40675E+04  1.61624E+04  2.73246E+04 -5.45424E+03  2.79798E+04
 -2.10554E+04  1.13068E+04 -1.97535E+04 -5.03158E+03  4.61781E+03 -8.09270E+03  2.25317E+04  1.18342E+04
  7.22860E+03  3.31339E+04 -3.17871E+04  3.51026E+04 -6.22385E+04  1.88388E+03 -5.57162E+04 -4.21550E+04
 -1.22662E+04 -6.22555E+04  3.86716E+04 -4.37607E+04  5.69588E+04 -2.70897E+03  3.32707E+04  3.15693E+04
 -6.12105E+03  3.37360E+04 -2.84230E+04  1.42517E+04 -2.94003E+04 -5.39524E+03 -1.53034E+04 -1.02046E+04
 -7.26803E+03 -1.23522E+04 -1.14411E+03 -1.76693E+04  5.89080E+03 -2.28133E+04  1.47841E+04 -1.25632E+04
  1.13878E+04  5.65538E+03 -7.48640E+03  1.37239E+04 -1.99957E+04 -3.03104E+03 -8.29053E+03 -3.13710E+04
  2.10386E+04 -4.17178E+04  4.59270E+04 -1.90039E+04  4.43850E+04  1.98574E+04  1.45257E+04  4.38717E+04
 -1.68701E+04  3.20330E+04 -2.46385E+04  2.06489E+03 -8.07976E+03 -2.68276E+04  2.06676E+04 -3.22708E+04
  3.94126E+04 -6.99625E+03  3.36294E+04  2.30767E+04  1.55140E+04  4.49589E+04 -6.96158E+03  4.72795E+04
 -3.04095E+04  3.10227E+04 -3.96425E+04  8.02292E+03 -3.93010E+04 -1.54014E+04 -2.30444E+04 -3.69088E+04
  7.25635E+03 -3.61642E+04  2.99438E+04 -1.42414E+04  2.82062E+04  1.06116E+04  4.02259E+03  1.84587E+04
 -1.39152E+04  7.21751E+03 -1.00509E+04 -7.27425E+03  6.78858E+03 -1.00126E+04  1.80658E+04  6.69070E+03
  1.26197E+04  2.23444E+04 -6.07297E+03  2.42974E+04 -2.15220E+04  1.07253E+04 -2.53064E+04 -6.60249E+03
 -1.84271E+04 -1.81399E+04 -6.44199E+03 -1.83066E+04  3.69424E+03 -1.72146E+04  1.45795E+04 -1.52067E+04
  2.23566E+04 -1.14107E+04  2.93394E+04  3.52947E+03  2.16727E+04  1.89520E+04  4.27142E+03  3.31993E+04
 -1.62441E+04  2.87583E+04 -2.69356E+04  9.46712E+03 -2.06975E+04 -1.04349E+04 -5.15541E+03 -1.43985E+04
  2.86986E+03 -3.28208E+03 -3.97116E+03  6.43394E+03 -1.60663E+04  4.69051E+03 -1.47347E+04 -4.86523E+03
 -7.97137E+03 -1.78008E+04  4.80175E+03 -2.10666E+04  1.39186E+04 -1.43096E+04  1.65088E+04 -2.07362E+03
  9.39970E+03  1.23768E+04 -1.14932E+03  1.67792E+04 -1.12963E+04  9.00579E+03 -1.72084E+04 -3.15300E+03
 -1.22975E+04 -1.56828E+04 -3.26990E+02 -2.17437E+04  1.01020E+04 -1.71865E+04  1.74605E+04 -7.99275E+03
  1.60622E+04  6.45377E+02  1.12678E+04  5.54582E+03  6.78857E+03 -1.76653E+01  8.53824E+03 -1.37608E+03
  1.51365E+04  3.45369E+03  1.57173E+04  1.36693E+04  1.10620E+04  2.79712E+04 -3.68081E+03  2.88166E+04
 -1.78554E+04  2.32296E+04 -2.83965E+04  1.20067E+04 -2.82695E+04 -3.21913E+03 -2.36774E+04 -1.63135E+04
 -1.09832E+04 -2.35140E+04  8.40332E+03 -2.12114E+04  1.88934E+04 -1.17348E+04  1.74249E+04  4.45496E+03
  8.72017E+03  1.32323E+04 -8.72585E+03  1.13316E+04 -1.40395E+04  3.27207E+03 -1.14447E+04 -8.59601E+03
 -1.44409E+03 -1.34566E+04  5.81887E+03 -1.14431E+04  7.75729E+03 -9.53213E+02  1.46159E+03  5.73848E+03
 -6.18751E+03  2.89469E+03 -5.56356E+03 -5.25331E+03  3.12687E+02 -1.12595E+04  8.46869E+03 -1.23772E+04
  1.45372E+04 -6.17066E+03  1.56827E+04  2.71366E+03  1.13637E+04  1.14631E+04  5.53970E+03  1.70356E+04
 -2.00693E+03  1.72961E+04 -1.23692E+04  1.13234E+04 -1.34259E+04  3.33065E+03 -9.59906E+03 -1.70314E+03
 -3.95657E+03 -3.42225E+03 -1.47408E+03  4.04529E+02 -1.98086E+03  2.44150E+03 -3.97645E+03  3.08670E+03
 -9.81803E+03  1.24600E+01 -9.78894E+03 -7.95882E+03 -3.99871E+03 -1.33697E+04  3.36321E+03 -9.89102E+03
  8.86636E+03 -3.52570E+03  6.45321E+03  3.78754E+03  7.39684E+02  4.28257E+03 -4.33769E+03  1.97261E+02
 -3.64862E+03 -6.52473E+03 -9.81351E+02 -7.84855E+03  5.80787E+03 -9.52397E+03  1.25816E+04 -5.01637E+03
  1.44345E+04  8.13583E+02  9.34223E+03  8.36564E+03  1.52437E+03  1.06818E+04 -5.39288E+03  8.84677E+03
 -7.72495E+03  2.72072E+03 -4.86379E+03 -1.01667E+03  1.88717E+03 -3.00603E+03  5.64250E+03 -2.46380E+03
  4.01605E+03  3.50461E+03  1.16011E+03  8.04189E+03 -5.55754E+03  7.99663E+03 -8.85021E+03  1.96015E+03
 -5.05738E+03 -4.88692E+03  6.19795E+02 -7.59931E+03  4.65829E+03 -4.43288E+03  5.34534E+03  2.13248E+03
  4.82452E+02  3.98907E+03 -5.10476E+03  6.35932E+03 -5.68656E+03  4.07483E+03 -5.86580E+03 -2.69086E+03
 -3.72421E+03 -8.05125E+03  2.53350E+02 -8.74038E+03  6.90855E+03 -5.89218E+03  8.38548E+03  9.81532E+02
  5.77150E+03  6.64053E+03 -1.54004E+02  7.94089E+03 -6.33960E+03  5.23235E+03 -7.65720E+03 -1.25066E+01
 -7.11618E+03 -6.63980E+03 -2.23669E+03 -6.06258E+03  2.44880E+03 -5.18271E+03  4.14456E+03 -3.57720E+03
  2.35161E+03  9.61281E+02 -4.34270E+02  1.96418E+03  1.37140E+03  2.30030E+02  1.24252E+03 -2.40683E+03
  6.64885E+03 -1.06242E+03  7.63756E+03 -5.58838E+02  7.06479E+03  5.33370E+03  5.50003E+03  1.11660E+04
 -1.71258E+03  1.21544E+04 -1.05377E+04  9.17636E+03 -1.20972E+04  1.94479E+03 -9.84338E+03 -4.76207E+03
 -5.10725E+03 -8.84349E+03 -4.47124E+01 -6.31851E+03  2.92398E+03 -4.10939E+03  2.26491E+03 -3.77677E+03
  1.12824E+03 -1.80824E+03  2.33564E+03 -3.31889E+03  3.95398E+03 -1.33228E+03  4.56974E+03 -7.01151E+02
  6.15516E+03  8.67982E+02  1.33152E+03  5.37801E+03 -1.44562E+03  3.83813E+03 -6.67876E+03  4.27948E+03
 -6.80778E+03 -1.12817E+03 -2.76528E+03 -3.70281E+03 -1.14286E+03 -5.77764E+03  4.78915E+03 -8.42070E+03
  7.63435E+03 -4.59708E+03  7.84800E+03 -5.81932E+02  5.88687E+03  5.74990E+03  1.37396E+03  7.54586E+03
 -3.21094E+03  6.43431E+03 -5.07935E+03  2.91826E+03 -2.64732E+03 -1.93230E+02 -2.76350E+02 -5.31666E+02
  3.62327E+01 -3.97710E+01 -1.45694E+03  2.19229E+03 -3.44247E+03  9.53764E+02 -5.02968E+03 -2.44941E+02
 -4.06525E+03 -4.61547E+03  5.67894E+02 -7.45303E+03  2.97799E+03 -5.61764E+03  4.78655E+03 -2.59398E+03
  5.86612E+03  2.39036E+03  2.94322E+03  5.30607E+03 -1.13403E+03  5.85153E+03 -4.81336E+03  3.76450E+03
 -5.28820E+03 -1.03798E+02 -4.16031E+03 -3.39908E+03 -1.88952E+03 -5.10836E+03  2.22992E+03 -3.30488E+03
  3.82280E+03 -2.78052E+03  1.64790E+03  2.95771E+02  2.63199E+02  2.17639E+03  1.73527E+03 -2.01546E+02
  1.37783E+03  3.46113E+02  1.15473E+03  1.18837E+03  1.43079E+03  3.21805E+03  2.47173E+03  2.76838E+03
 -2.20266E+03  4.31573E+03 -3.19080E+03  6.27029E+03 -4.44595E+03  1.57686E+03 -5.51306E+03 -1.24618E+03
 -2.66777E+03 -6.38592E+03  1.75058E+03 -5.37758E+03  2.44787E+03 -2.71165E+03  4.48526E+03 -1.49646E+03
  3.05273E+03  1.64689E+03 -5.14917E+02  3.40862E+03 -1.56977E+03  1.37848E+03 -2.29884E+03  5.90651E+02
 -7.22870E+02 -1.71371E+03  1.24724E+03 -2.79505E+03  1.49065E+03 -9.80713E+02  1.76849E+03  1.18057E+03
  1.04853E+03  1.00258E+03  1.28657E+03  4.80809E+02  1.04356E+01  1.71396E+03  7.71398E+02 -6.72312E+02
 -8.46619E+02  5.63379E+02  1.77479E+03  6.24754E+02  5.03435E+02  1.84909E+03  1.62701E+02  3.30243E+03
 -2.92048E+03  1.10045E+03 -2.54452E+03  1.41516E+03 -2.26833E+03 -1.56095E+03 -1.31774E+03 -5.87808E+02
 -5.46260E+02 -1.33082E+03  2.14107E+03  2.61745E+02  1.25999E+03  8.74082E+02 -5.27937E+02  1.08478E+03
 -1.78121E+03  1.86627E+03 -1.54147E+03 -2.81932E+03 -1.66716E+02 -3.75837E+03  1.38846E+02 -3.22508E+03
  1.03939E+03 -3.30413E+02  1.41838E+03  9.55785E+02  2.05454E+03  7.12882E+02  8.32086E+02  2.49162E+03
 -8.39106E+02  9.38735E+02 -1.48093E+03 -1.44998E+03  7.25941E+01 -2.37961E+03  1.81376E+03 -2.69471E+03
  1.75952E+03 -5.88377E+02  4.31130E+03  1.75163E+03  2.50834E+03  3.37035E+03 -6.19738E+02  2.42351E+03
 -1.27204E+03  4.75962E+02 -2.97590E+03  4.82864E+02 -1.36194E+03 -2.97648E+03  5.85835E+02 -2.68810E+03
  2.36297E+03 -1.28118E+03  2.25767E+03  1.30314E+03  8.10658E+02  1.05391E+03  4.71079E+02  6.85920E+02
 -6.54428E+02  1.35065E+03 -6.74406E+02  1.86366E+02 -6.89737E+02  7.50023E+02 -1.55464E+03  3.27843E+02
 -6.77124E+02  2.80797E+03 -2.95220E+03  1.42840E+03 -1.87944E+03  1.43323E+03 -3.57662E+03 -3.55082E+03
 -2.02577E+03 -3.67805E+03  9.88749E+02 -3.87582E+03  1.95664E+03 -3.46759E+03  3.63565E+03 -1.04358E+03
  5.85921E+03 -3.18986E+02  1.71245E+03  3.00356E+03 -4.76155E+02  2.64243E+03 -2.30792E+03  1.82398E+03
 -1.91548E+03  1.83752E+03 -1.28630E+03  8.05983E+02 -1.29295E+02 -6.52336E+02 -1.12586E+03  2.15654E+02
 -1.69283E+03 -6.88873E+02 -1.46540E+03  7.04654E+02 -1.64283E+02  6.77631E+01 -5.29456E+02 -1.59740E+03
  1.44017E+03  2.64802E+02  1.78560E+03 -3.40197E+02  1.94051E+03  3.25134E+03  3.45700E+02  1.00960E+03
 -1.04887E+03  1.85682E+03 -2.78284E+03  1.39693E+03 -3.71471E+03  5.26865E+02 -3.16666E+03 -2.02174E+03
 -1.61859E+03 -1.93719E+03  1.26360E+02 -3.04907E+03  1.48172E+03 -7.12648E+02 -1.17689E+02  5.95389E+02
  6.03869E+02  1.07786E+03 -2.96369E+02 -1.49904E+02 -6.20726E+02 -2.46876E+02  1.93671E+02 -1.19000E+03
  7.50211E+02 -8.50638E+02  6.83067E+02 -2.42929E+02  7.90712E+02  1.55412E+03 -5.02456E+01  1.36888E+03
 -7.79487E+02  2.40936E+03 -1.34734E+03 -8.99209E+02 -1.86111E+03 -1.05166E+03  2.97630E+02 -1.29074E+03
  1.45343E+03 -1.95798E+03  9.81347E+02  5.07811E+02  1.23663E+03 -8.29406E+02  1.43451E+03  8.43611E+02
  7.29049E+02  3.35549E+02 -1.29322E+03  1.35364E+03 -7.22354E+02  7.66330E+01 -2.87454E+02  6.30229E+02
  2.36037E+02  3.01120E+02 -1.28106E+03 -2.36933E+02 -9.20989E+02  3.39299E+02  1.05536E+02 -3.80076E+02
 -9.86756E+02 -1.15027E+03 -7.79004E+02 -2.02879E+03  1.52256E+03 -2.04595E+03  1.01253E+03 -4.63598E+02
  4.76787E+02 -6.80237E+01  3.70619E+02  6.88152E+02 -2.36475E+02  2.82152E+03 -1.68341E+03 -1.84260E+02
