 $NMID ID='MM_0lb_SNR200_10hz_g45_2.RAW', FMTDAT='(8E13.5)'
 TRAMP=1., VOLUME=1. $END
  3.09794E+05 -2.70378E+02  3.37884E+05  2.50585E+05  8.48659E+04  3.38110E+05 -1.32938E+05  2.52095E+05
 -1.89920E+05  8.36199E+04 -1.12024E+05 -3.22430E+04  5.26060E+02 -5.08014E+04  5.49565E+04 -3.80547E+02
  3.40983E+04  5.19691E+04 -1.77708E+04  7.59559E+04 -6.23796E+04  6.23203E+04 -8.53540E+04  3.25884E+04
 -8.19658E+04 -1.22347E+04 -5.76751E+04 -5.16342E+04 -1.65979E+04 -7.03098E+04  2.76149E+04 -4.58696E+04
  4.13062E+04  3.36461E+03  1.74152E+04  4.69983E+04 -3.58052E+04  4.81593E+04 -6.88785E+04 -8.18302E+02
 -5.42421E+04 -5.78045E+04 -8.48465E+03 -7.72193E+04  3.62272E+04 -5.65853E+04  5.01276E+04 -1.84098E+04
  4.49095E+04  1.18273E+04  3.15342E+04  2.69442E+04  1.61617E+04  2.90709E+04 -6.04692E+03  2.79091E+04
 -2.31870E+04  1.20194E+04 -1.78470E+04 -5.99578E+03  6.97335E+03 -8.10090E+03  2.31510E+04  1.45197E+04
  8.38610E+03  3.63936E+04 -3.41669E+04  3.66968E+04 -6.48420E+04  1.16477E+03 -5.83564E+04 -4.41496E+04
 -1.06827E+04 -6.45796E+04  4.09293E+04 -4.65664E+04  5.95105E+04 -3.10850E+03  3.62225E+04  3.27499E+04
 -5.38079E+03  3.81071E+04 -3.16649E+04  1.64223E+04 -3.16610E+04 -4.34963E+03 -1.99486E+04 -1.19510E+04
 -9.24734E+03 -1.58777E+04  4.26053E+01 -1.85206E+04  7.79153E+03 -2.39693E+04  1.65021E+04 -1.38699E+04
  1.10747E+04  4.67462E+03 -9.27080E+03  1.22697E+04 -2.28892E+04 -6.63824E+03 -8.38605E+03 -3.51064E+04
  2.48812E+04 -4.52372E+04  5.00374E+04 -2.02115E+04  4.78680E+04  2.05708E+04  1.49769E+04  4.56761E+04
 -1.60830E+04  3.71469E+04 -2.63229E+04  1.95231E+03 -1.10594E+04 -3.06615E+04  2.14908E+04 -3.64383E+04
  4.27916E+04 -1.10854E+04  3.93609E+04  2.40334E+04  2.10618E+04  5.03146E+04 -7.50487E+03  5.59963E+04
 -3.50028E+04  3.77533E+04 -4.58636E+04  1.12459E+04 -4.73947E+04 -1.84245E+04 -2.55391E+04 -4.07887E+04
  7.87985E+03 -4.10158E+04  3.30005E+04 -1.57548E+04  3.15353E+04  1.02649E+04  5.21284E+03  2.01490E+04
 -1.40535E+04  1.00678E+04 -1.10103E+04 -7.26923E+03  6.69324E+03 -1.11287E+04  1.97374E+04  6.98800E+03
  1.55687E+04  2.24029E+04 -5.56341E+03  2.63978E+04 -2.18300E+04  1.41113E+04 -2.95079E+04 -3.35805E+03
 -2.48108E+04 -1.83795E+04 -1.25903E+04 -2.37160E+04  4.35988E+03 -2.42136E+04  1.88436E+04 -2.07360E+04
  3.05126E+04 -1.33526E+04  3.58234E+04  3.87463E+03  2.58451E+04  2.12015E+04  3.25770E+03  3.87990E+04
 -2.04265E+04  3.18302E+04 -2.89946E+04  1.07079E+04 -2.22304E+04 -1.03965E+04 -5.22989E+03 -1.32104E+04
  8.28375E+02 -2.69580E+03 -7.03421E+03  8.50308E+03 -1.81754E+04  5.85615E+03 -1.96450E+04 -8.17780E+03
 -1.06962E+04 -2.24791E+04  5.91381E+03 -2.61997E+04  1.74239E+04 -1.88119E+04  2.07059E+04 -7.65412E+02
  1.33642E+04  1.61726E+04 -1.76894E+03  2.35087E+04 -1.53496E+04  1.24840E+04 -2.07437E+04 -4.25019E+03
 -1.55447E+04 -1.96197E+04 -1.96248E+03 -2.72779E+04  1.26997E+04 -2.06308E+04  2.02052E+04 -1.03939E+04
  2.14968E+04  8.12098E+02  1.51590E+04  5.23284E+03  8.64070E+03  1.64966E+03  1.15674E+04 -7.32984E+02
  2.13755E+04  3.60609E+03  2.40593E+04  1.79819E+04  1.62223E+04  3.54963E+04 -2.69718E+03  4.12645E+04
 -2.28821E+04  3.55910E+04 -4.00166E+04  1.72512E+04 -4.09906E+04 -2.07196E+03 -3.39670E+04 -2.24282E+04
 -1.29888E+04 -3.38992E+04  1.07477E+04 -2.95899E+04  2.55460E+04 -1.47286E+04  2.32446E+04  6.87499E+03
  7.87714E+03  1.78045E+04 -1.01308E+04  1.42882E+04 -1.80885E+04  2.67601E+03 -1.35526E+04 -1.18452E+04
  6.43895E+02 -1.81541E+04  1.07637E+04 -1.41862E+04  1.28137E+04 -8.80500E+02  4.89373E+03  8.23499E+03
 -6.64395E+03  2.32484E+03 -8.27640E+03 -5.32861E+03 -1.92275E+03 -1.58031E+04  1.11433E+04 -1.81165E+04
  2.16807E+04 -1.09232E+04  2.29087E+04  3.50092E+03  2.06515E+04  1.70060E+04  1.04388E+04  2.67711E+04
 -4.03000E+03  2.86421E+04 -1.95673E+04  1.80386E+04 -2.15259E+04  4.25139E+03 -1.34868E+04 -4.97257E+03
 -6.04948E+03 -6.40575E+03 -4.11023E+02  3.40473E+02 -2.17514E+03  3.97613E+03 -6.95180E+03  5.74928E+03
 -1.23102E+04 -1.46349E+03 -1.42411E+04 -9.58591E+03 -6.23825E+03 -1.71724E+04  6.33975E+03 -1.53165E+04
  1.23307E+04 -6.00883E+03  7.76462E+03  2.86513E+03 -3.31973E+02  6.22018E+03 -8.62591E+03  1.34717E+02
 -5.94584E+03 -9.10814E+03 -1.48200E+02 -1.42282E+04  9.11196E+03 -1.44164E+04  1.73359E+04 -7.17946E+03
  2.02209E+04  2.27026E+03  1.79369E+04  1.28293E+04  2.79938E+03  1.61758E+04 -6.53826E+03  1.39079E+04
 -1.10872E+04  4.68497E+03 -5.92507E+03 -2.56866E+03  1.40101E+03 -2.51596E+03  7.87140E+03 -2.92226E+03
  8.25362E+03  6.00900E+03  1.16138E+03  1.05114E+04 -8.01666E+03  1.14576E+04 -1.48263E+04  2.87536E+03
 -9.36940E+03 -7.85176E+03  1.46630E+03 -1.35566E+04  9.38762E+03 -6.17956E+03  7.19927E+03  1.63453E+03
  1.74599E+03  8.44778E+03 -7.32043E+03  1.06839E+04 -1.16063E+04  5.44778E+03 -1.20638E+04 -4.36150E+03
 -8.05691E+03 -1.51789E+04  2.39522E+03 -1.54883E+04  1.42880E+04 -9.59460E+03  1.57542E+04  2.78611E+03
  8.33687E+03  1.21222E+04 -1.04007E+03  1.43134E+04 -1.02286E+04  8.01959E+03 -1.09470E+04 -3.88606E+02
 -1.05717E+04 -9.27874E+03 -1.58691E+03 -1.21818E+04  5.72510E+03 -7.14008E+03  7.41324E+03 -4.56576E+03
  3.68625E+03  9.92623E+02 -2.16305E+03  2.10490E+03 -2.31837E+03 -2.71443E+03  2.41591E+03 -7.60271E+03
  9.89026E+03 -4.72535E+03  1.51531E+04  1.00709E+03  1.39042E+04  8.90805E+03  8.24550E+03  1.86763E+04
 -3.31844E+03  2.17289E+04 -1.72556E+04  1.34876E+04 -2.34495E+04  2.71796E+03 -1.94447E+04 -7.11111E+03
 -9.18345E+03 -1.52516E+04 -3.30967E+02 -1.20132E+04  5.24185E+03 -6.15059E+03  3.50510E+03 -4.30066E+03
  3.72082E+03 -3.78486E+03  2.80146E+03 -3.75705E+03  4.22200E+03 -3.89826E+03  7.58442E+03 -1.69892E+03
  1.01469E+04  1.73408E+03  5.68404E+03  8.99164E+03 -3.34014E+03  9.27333E+03 -1.05881E+04  7.87688E+03
 -1.26753E+04 -1.08645E+03 -6.93962E+03 -8.04224E+03 -2.19849E+02 -1.47825E+04  6.26034E+03 -1.25497E+04
  1.35166E+04 -6.94968E+03  1.67235E+04  3.30827E+03  1.21149E+04  1.16538E+04  1.33050E+03  1.57799E+04
 -6.36706E+03  1.07659E+04 -1.00184E+04  4.88907E+03 -6.77972E+03 -1.11580E+03 -3.40299E+03 -1.85652E+03
 -2.19258E+02 -2.48434E+02 -2.43753E+03  8.43999E+02 -4.69571E+03  2.00316E+03 -9.28759E+03 -1.58831E+03
 -6.61264E+03 -8.57004E+03  1.80066E+03 -1.32631E+04  6.57814E+03 -1.15920E+04  1.38921E+04 -4.91277E+03
  1.30240E+04  4.11355E+03  3.37370E+03  1.16917E+04 -1.92934E+03  1.37002E+04 -8.97069E+03  7.14796E+03
 -1.25526E+04 -5.63786E+02 -9.38161E+03 -7.44820E+03 -1.09340E+03 -9.74902E+03  5.34634E+03 -7.95347E+03
  8.02219E+03 -2.36888E+03  6.57293E+03  2.58209E+03  1.67042E+03  4.45466E+03  1.72838E+03  2.64178E+03
  3.29146E+03  6.54123E+02  3.15876E+03  1.07193E+03  2.43936E+03  5.17286E+03  2.87144E+03  6.11510E+03
 -1.92604E+03  9.05080E+03 -8.29674E+03  1.02871E+04 -1.38028E+04  3.19335E+03 -1.39954E+04 -4.78807E+03
 -6.86235E+03 -1.22540E+04  2.79514E+03 -1.35504E+04  4.99925E+03 -9.40436E+03  1.06191E+04 -1.30783E+03
  6.96622E+03  5.47961E+03  2.04258E+03  6.92598E+03 -3.43384E+03  5.31357E+03 -4.35329E+03 -1.15862E+03
 -2.21280E+03 -5.63287E+03  2.66031E+03 -6.59227E+03  3.81741E+03 -2.09769E+03  3.80302E+03  1.21774E+03
  3.79335E+03  2.08104E+03  3.05044E+03  2.11674E+03  3.56095E+02  1.94323E+03  2.40614E+03 -2.48463E+02
  1.78548E+03 -1.91245E+03  4.99812E+03  2.47789E+03  4.18834E+03  6.96930E+03 -1.88172E+03  9.56649E+03
 -6.86062E+03  6.05069E+03 -7.19939E+03  2.02953E+03 -7.48801E+03 -2.91802E+03 -1.44342E+03 -4.89284E+03
  2.10456E+03 -4.43593E+03  3.23053E+03 -3.37566E+03  4.83293E+03  2.42843E+03 -1.88740E+03  3.20705E+03
 -4.20389E+03  2.24269E+03 -5.23136E+03 -3.20081E+03 -2.28850E+03 -8.00674E+03  1.56580E+03 -7.99639E+03
  5.36342E+03 -3.55806E+03  6.25552E+03 -1.69978E+03  4.38885E+03  3.23421E+03 -8.72199E+02  3.63119E+03
 -2.61529E+03  7.28739E+02 -2.73788E+03 -1.22872E+03  1.14914E+03 -5.26293E+03  5.07652E+03 -4.81108E+03
  8.83671E+03  2.95039E+02  7.15638E+03  7.05469E+03  2.88237E+03  8.91635E+03 -2.52752E+03  8.27816E+03
 -7.09642E+03  1.99114E+03 -6.20313E+03 -2.12599E+03 -4.03652E+03 -5.00629E+03  1.35735E+03 -5.13622E+03
  4.33532E+03 -1.52935E+03  5.24237E+03  3.09011E+03  2.38970E+03  4.25304E+03 -1.02581E+03  2.09590E+03
 -1.54502E+03  3.28548E+03 -2.68870E+03  1.46238E+03  3.97970E+01  1.69668E+03 -1.04225E+03  8.02653E+02
 -2.72518E+03  2.87500E+03 -6.07903E+03  4.20430E+03 -1.01930E+04  1.93127E+02 -9.06829E+03 -6.07539E+03
 -4.53676E+03 -1.15515E+04  2.13196E+03 -1.22505E+04  6.90456E+03 -1.03538E+04  1.19714E+04 -3.34940E+03
  1.10584E+04  1.61774E+03  6.78559E+03  8.25279E+03  2.41886E+02  8.43299E+03 -3.79192E+03  7.47986E+03
 -5.56921E+03  1.68544E+03 -2.05327E+03 -3.42716E+02 -6.37442E+02 -1.72720E+02 -1.85806E+03 -1.00700E+03
 -1.72284E+03 -2.06410E+02 -2.41581E+03 -6.66071E+02 -3.83880E+02 -3.26462E+03  4.58973E+01 -2.14680E+03
  3.99107E+03 -1.58899E+03  5.72260E+03  1.98175E+03  5.70844E+03  5.25393E+03  2.27955E+03  9.28711E+03
 -6.01918E+03  1.02737E+04 -8.26492E+03  5.49610E+03 -9.26287E+03 -1.31706E+02 -7.50450E+03 -6.46764E+03
 -1.18564E+03 -8.90579E+03  2.05807E+03 -8.92710E+03  7.48057E+03 -3.98267E+03  4.92530E+03  2.47356E+03
  3.52495E+03  1.77088E+03 -6.42361E+02  2.58965E+03 -2.04365E+03 -2.79102E+02 -9.15843E+01 -2.79671E+03
  3.81389E+03 -8.12308E+02  3.95686E+03  1.40811E+03  1.71599E+03  4.98104E+03  2.82553E+02  3.94138E+03
 -3.81608E+03  4.04799E+03 -4.04956E+03 -5.79723E+01 -5.36715E+03 -4.01188E+03 -1.56591E+03 -6.90100E+03
  3.49718E+03 -6.58776E+03  5.85829E+03 -2.31155E+03  4.99645E+03  7.30533E+02  4.86233E+03  5.72897E+03
  6.52905E+02  6.03929E+03 -2.14697E+03  3.18530E+03 -3.79671E+03  3.37858E+03 -2.65964E+03  1.12586E+03
 -1.06995E+02  3.03569E+02 -1.79131E+03  1.72521E+03 -2.78043E+03  7.19125E+02 -3.88998E+03 -2.39431E+02
 -3.93870E+03 -2.86421E+03 -1.87274E+03 -5.33809E+03  3.43721E+03 -5.53355E+03  4.42892E+03 -2.26142E+03
  6.79315E+03  1.02706E+03  2.64139E+03  3.42971E+03 -1.32281E+03  4.44661E+03 -4.50789E+03  3.51462E+03
