 $NMID ID='MM_0lb_SNR200_8hz_g60_9.RAW', FMTDAT='(8E13.5)'
 TRAMP=1., VOLUME=1. $END
  3.10561E+05 -3.31025E+02  3.37143E+05  2.51400E+05  8.60241E+04  3.39478E+05 -1.31643E+05  2.52797E+05
 -1.91438E+05  8.35950E+04 -1.13515E+05 -3.19148E+04  8.24316E+02 -5.06667E+04  5.33615E+04  1.03755E+03
  3.48440E+04  5.28194E+04 -1.68603E+04  7.65057E+04 -6.12802E+04  6.26911E+04 -8.76128E+04  3.27171E+04
 -8.38070E+04 -1.06812E+04 -5.80133E+04 -5.34199E+04 -1.66759E+04 -7.12884E+04  2.88879E+04 -4.67313E+04
  4.12996E+04  3.46263E+03  1.70338E+04  4.81353E+04 -3.42721E+04  4.85682E+04 -6.85059E+04  8.78359E+02
 -5.57226E+04 -5.83924E+04 -7.36146E+03 -8.03905E+04  3.39347E+04 -5.78454E+04  5.22686E+04 -1.92556E+04
  4.52164E+04  1.20108E+04  3.18993E+04  2.57153E+04  1.58696E+04  3.07858E+04 -6.98945E+03  2.73538E+04
 -2.19004E+04  1.03008E+04 -1.66983E+04 -5.55254E+03  5.21534E+03 -6.98751E+03  2.49327E+04  1.49015E+04
  7.12482E+03  3.87393E+04 -3.53587E+04  4.00800E+04 -6.72151E+04  2.65714E+03 -6.05900E+04 -4.69599E+04
 -1.43165E+04 -6.53500E+04  4.32507E+04 -5.03122E+04  6.24217E+04 -1.79906E+03  3.73827E+04  3.59036E+04
 -4.50567E+03  4.05512E+04 -3.22326E+04  2.01282E+04 -3.34879E+04 -3.28530E+03 -2.09623E+04 -1.29363E+04
 -1.08181E+04 -1.48438E+04  6.91699E+02 -2.20493E+04  9.47188E+03 -2.58956E+04  1.47848E+04 -1.22771E+04
  1.06702E+04  8.10672E+03 -1.07263E+04  1.33500E+04 -2.34577E+04 -7.74910E+03 -8.51635E+03 -4.04898E+04
  2.65666E+04 -4.70578E+04  5.33524E+04 -2.03167E+04  5.13208E+04  2.08410E+04  1.84720E+04  4.68100E+04
 -1.80260E+04  3.67480E+04 -2.78372E+04  2.13827E+03 -1.22357E+04 -2.94691E+04  2.31423E+04 -3.85025E+04
  4.55746E+04 -1.01840E+04  4.12827E+04  2.55662E+04  2.20746E+04  5.27924E+04 -7.46675E+03  5.93772E+04
 -3.73793E+04  3.97753E+04 -5.02579E+04  1.06441E+04 -4.85569E+04 -1.84803E+04 -2.74830E+04 -4.43752E+04
  6.66410E+03 -4.34116E+04  3.41434E+04 -1.78825E+04  3.35416E+04  1.10595E+04  6.07656E+03  2.02993E+04
 -1.29776E+04  9.42921E+03 -9.90132E+03 -8.67830E+03  4.88881E+03 -1.04366E+04  1.94304E+04  5.00616E+03
  1.55584E+04  2.35443E+04 -5.36194E+03  2.83324E+04 -2.29534E+04  1.52594E+04 -3.16752E+04 -2.44935E+03
 -2.73344E+04 -1.68488E+04 -1.39756E+04 -2.63246E+04  4.46572E+03 -2.74765E+04  2.14514E+04 -2.59745E+04
  3.44918E+04 -1.65432E+04  4.14032E+04  5.06586E+03  2.97121E+04  2.54416E+04  4.87554E+03  4.19798E+04
 -2.01137E+04  3.67024E+04 -3.32231E+04  1.35026E+04 -2.22610E+04 -9.82893E+03 -5.10437E+03 -1.29803E+04
  1.07651E+03  2.23562E+02 -9.45245E+03  8.33734E+03 -2.05310E+04  6.54356E+03 -2.19442E+04 -9.81109E+03
 -1.33822E+04 -2.49139E+04  6.82273E+03 -2.84657E+04  1.96704E+04 -2.14972E+04  2.50489E+04 -1.87054E+03
  1.57702E+04  1.65280E+04  8.31046E+01  2.48102E+04 -1.67352E+04  1.58315E+04 -2.61274E+04 -4.63726E+03
 -1.79010E+04 -2.44929E+04 -7.55165E+02 -2.84843E+04  1.39881E+04 -2.66430E+04  2.52003E+04 -1.38442E+04
  2.51897E+04 -6.34862E+02  1.77863E+04  3.82290E+03  8.56360E+03 -3.48535E+02  1.40722E+04 -2.26319E+03
  2.29523E+04  3.23510E+03  2.71246E+04  2.00168E+04  1.74835E+04  4.04192E+04 -1.73574E+03  4.78569E+04
 -2.70476E+04  4.02367E+04 -4.80874E+04  2.03059E+04 -4.96664E+04 -3.72594E+03 -3.95604E+04 -2.94172E+04
 -1.65576E+04 -4.01291E+04  1.41288E+04 -3.72733E+04  2.98626E+04 -1.71975E+04  2.70722E+04  9.37480E+03
  8.70115E+03  2.12053E+04 -1.29906E+04  1.47303E+04 -2.37035E+04  3.24719E+03 -1.68008E+04 -1.46568E+04
 -2.64585E+02 -2.24146E+04  1.20598E+04 -1.73014E+04  1.46425E+04 -5.88323E+03  2.19531E+03  1.02644E+04
 -9.85237E+03  4.61706E+03 -9.87765E+03 -8.31174E+03 -1.65500E+03 -1.99120E+04  1.29569E+04 -2.20063E+04
  2.60616E+04 -1.30999E+04  2.93276E+04  1.70413E+03  2.64944E+04  2.08486E+04  1.12993E+04  3.44977E+04
 -6.77290E+03  3.44842E+04 -2.35177E+04  2.26957E+04 -2.32323E+04  3.10137E+03 -1.61045E+04 -6.78732E+03
 -6.37042E+03 -7.45572E+03 -4.72672E+02  1.02585E+03 -2.60528E+03  3.70196E+03 -8.84132E+03  6.51042E+03
 -1.65842E+04 -7.86584E+02 -1.58471E+04 -1.27759E+04 -7.51989E+03 -2.33068E+04  6.50144E+03 -1.74709E+04
  1.33417E+04 -6.57783E+03  1.03518E+04  5.82998E+03  2.08473E+02  8.74351E+03 -8.05758E+03 -1.92201E+02
 -8.11416E+03 -1.17903E+04 -1.62122E+03 -1.64325E+04  9.06628E+03 -1.89265E+04  2.26221E+04 -9.32717E+03
  2.85598E+04  2.35377E+03  2.03268E+04  1.81393E+04  4.05360E+03  2.23042E+04 -1.08895E+04  1.75476E+04
 -1.33752E+04  4.72347E+03 -6.51177E+03 -6.64137E+03  1.81631E+03 -5.12466E+03  8.66971E+03 -1.57875E+03
  8.14777E+03  8.66474E+03 -2.63507E+02  1.43698E+04 -1.02509E+04  1.27660E+04 -1.74909E+04  3.26301E+03
 -1.36381E+04 -1.12059E+04  4.29693E+02 -1.53047E+04  9.97813E+03 -8.31731E+03  1.21373E+04  4.96025E+03
  1.91486E+03  1.23711E+04 -9.52486E+03  1.36400E+04 -1.57313E+04  4.63482E+03 -1.74157E+04 -5.56174E+03
 -8.51126E+03 -1.82863E+04  4.20541E+03 -2.15453E+04  1.76453E+04 -1.20041E+04  1.98385E+04  4.82528E+03
  1.17547E+04  1.75114E+04 -6.96170E+02  1.93250E+04 -1.11580E+04  9.63096E+03 -1.33370E+04 -2.32384E+03
 -1.07278E+04 -1.18261E+04 -3.36878E+03 -1.43156E+04  7.45926E+03 -1.01881E+04  9.06616E+03 -2.25980E+03
  4.99977E+03  2.19473E+03 -2.35405E+03  9.65776E+02 -1.34542E+03 -4.90946E+03  2.44748E+03 -8.06875E+03
  1.34801E+04 -6.91601E+03  2.07937E+04  3.43872E+03  1.68121E+04  1.48637E+04  1.26825E+04  2.37936E+04
 -6.34835E+03  2.87411E+04 -2.35686E+04  2.09823E+04 -3.23296E+04  4.43316E+03 -2.65001E+04 -1.11992E+04
 -1.11053E+04 -1.95942E+04 -6.16137E+02 -1.85793E+04  6.12570E+03 -1.18723E+04  7.18269E+03 -7.07047E+03
  2.02521E+03 -4.74248E+03  5.16427E+03 -5.81993E+03  6.46818E+03 -6.35406E+03  8.29856E+03 -3.47033E+03
  1.24656E+04  1.16844E+03  7.28153E+03  1.05846E+04 -2.66469E+03  1.25896E+04 -1.21982E+04  9.70365E+03
 -1.67683E+04 -2.63628E+03 -1.37039E+04 -1.21355E+04 -3.30013E+03 -1.91647E+04  1.07933E+04 -1.85790E+04
  2.07950E+04 -9.91253E+03  2.01823E+04  4.54303E+03  1.69319E+04  1.64926E+04 -2.91926E+02  2.19287E+04
 -9.11985E+03  1.65634E+04 -1.37687E+04  6.82697E+03 -9.55301E+03 -1.02514E+03 -3.50696E+03 -2.40525E+03
 -2.33274E+03 -3.91417E+02 -2.15054E+03  4.03164E+03 -8.87453E+03  3.61458E+03 -1.06167E+04 -1.67220E+03
 -6.81146E+03 -1.37276E+04  7.67064E+02 -1.86461E+04  1.20255E+04 -1.72955E+04  1.88289E+04 -5.53499E+03
  1.66886E+04  8.49755E+03  8.26840E+03  1.69565E+04 -3.04777E+03  1.79717E+04 -1.46940E+04  1.00856E+04
 -1.85914E+04 -1.48111E+02 -1.40781E+04 -1.00568E+04 -1.36895E+03 -1.49842E+04  6.84963E+03 -1.33151E+04
  1.13722E+04 -2.07527E+03  9.44564E+03  2.52869E+03  2.64559E+03  4.79287E+03  1.12370E+03  2.76982E+03
  4.06379E+03  2.32252E+03  5.56520E+03  2.63486E+03  3.51871E+03  6.09267E+03  4.42482E+03  9.58470E+03
 -2.56851E+03  1.48332E+04 -1.36985E+04  1.31477E+04 -2.04785E+04  4.92097E+03 -1.87160E+04 -8.75977E+03
 -1.03090E+04 -1.79878E+04  3.89533E+03 -1.89340E+04  1.10700E+04 -1.23709E+04  1.60331E+04 -3.85149E+03
  1.28717E+04  8.06025E+03  2.26779E+03  1.13927E+04 -3.93119E+03  6.99358E+03 -8.60869E+03 -2.27128E+03
 -3.27529E+03 -6.17525E+03  4.00600E+03 -7.87697E+03  9.36600E+03 -2.76939E+03  8.20393E+03  1.02675E+03
  4.30190E+03  4.53998E+03  1.26882E+03  2.68642E+03 -4.15164E+02  2.87958E+03  8.41123E+02 -1.54537E+03
  4.15369E+03 -7.72557E+01  5.52207E+03  3.76484E+03  5.29491E+03  1.07589E+04 -2.69758E+03  1.15463E+04
 -9.16021E+03  7.53092E+03 -1.21609E+04  1.94304E+03 -1.06066E+04 -4.24949E+03 -3.67096E+03 -7.17297E+03
  1.43296E+03 -7.98289E+03  4.81644E+03 -2.92890E+03  4.56790E+03  2.35268E+03 -6.06835E+02  4.28777E+03
 -6.63625E+03  4.73189E+03 -1.02311E+04 -4.57881E+03 -3.45284E+03 -1.10462E+04  1.56184E+03 -1.13456E+04
  6.06934E+03 -6.66391E+03  8.57235E+03 -4.05279E+02  7.50185E+03  2.13233E+03  7.12046E+02  7.02885E+03
 -3.67070E+03  1.90062E+03 -5.80108E+03 -3.19076E+03  2.10005E+03 -7.98790E+03  7.19879E+03 -6.47948E+03
  1.15057E+04 -1.14720E+02  1.08452E+04  8.04484E+03  5.41230E+03  1.33414E+04 -5.34722E+03  1.21441E+04
 -8.89470E+03  6.24831E+03 -1.07146E+04 -2.74201E+03 -6.16255E+03 -8.80762E+03  1.85870E+03 -6.62645E+03
  8.01858E+03 -3.85158E+03  8.11979E+03  4.50997E+03  1.80557E+03  6.84403E+03 -2.37237E+03  7.09248E+03
 -2.55424E+03  3.24595E+03 -3.18399E+03  1.74598E+03 -2.35352E+03  1.95889E+03 -1.06138E+03  8.37073E+02
 -3.92099E+03  4.43598E+03 -9.32118E+03  5.38294E+03 -1.33091E+04  4.99992E+02 -1.43902E+04 -9.50816E+03
 -6.53589E+03 -1.72052E+04  6.20239E+03 -2.03631E+04  1.23051E+04 -1.36250E+04  1.96119E+04 -6.35712E+03
  1.81097E+04  2.97794E+03  1.14508E+04  1.31594E+04  2.05924E+03  1.28931E+04 -6.20996E+03  1.19917E+04
 -6.74314E+03  4.24405E+03 -3.68857E+03 -2.10319E+03 -1.27690E+03 -7.89801E+02 -1.16850E+03  7.28034E+02
 -2.33560E+03  7.67535E+02 -2.78085E+03 -1.17565E+03 -3.56027E+03 -4.02901E+03  1.16295E+03 -3.46925E+03
  3.98767E+03 -3.30433E+03  7.92730E+03 -1.58857E+03  1.21559E+04  7.67635E+03  4.25768E+03  1.38546E+04
 -6.71396E+03  1.40924E+04 -1.54693E+04  8.19754E+03 -1.53180E+04 -1.98226E+03 -1.10750E+04 -8.58031E+03
 -5.86722E+03 -1.26358E+04  3.19289E+03 -1.31381E+04  9.48434E+03 -7.71597E+03  8.77862E+03  1.51782E+03
  4.29647E+03  4.85900E+03 -1.26447E+03  5.87644E+03 -2.94917E+03 -1.05383E+03 -2.36171E+01 -2.74090E+03
  4.52892E+03 -2.62602E+03  6.91894E+03  9.61168E+02  4.68674E+03  4.58596E+03 -1.55319E+03  6.50155E+03
 -6.92841E+03  6.55722E+03 -9.31018E+03  1.29360E+03 -8.41707E+03 -6.16861E+03 -1.90443E+03 -1.19318E+04
  7.31755E+03 -9.67475E+03  1.21114E+04 -2.45881E+03  1.09731E+04  2.63304E+03  6.93430E+03  9.03435E+03
  1.76190E+03  9.29117E+03 -3.29479E+03  7.17125E+03 -6.50266E+03  5.43784E+03 -6.22094E+03 -4.79806E+02
 -2.32096E+03 -9.83473E+02 -1.87276E+03  2.94977E+03 -5.99751E+03  2.32664E+03 -7.76457E+03 -6.56641E+02
 -5.22649E+03 -4.36873E+03 -2.25571E+03 -8.95628E+03  4.47818E+03 -8.81591E+03  9.58008E+03 -5.19484E+03
  9.69627E+03 -1.56635E+00  6.34223E+03  6.34441E+03 -5.10550E+02  8.97079E+03 -6.12760E+03  6.42478E+03
