 $NMID ID='MM_0lb_SNR200_7hz_g60_42.RAW', FMTDAT='(8E13.5)'
 TRAMP=1., VOLUME=1. $END
  3.10157E+05 -2.40473E+02  3.40875E+05  2.50526E+05  8.46728E+04  3.39364E+05 -1.31157E+05  2.54058E+05
 -1.91847E+05  8.48941E+04 -1.12894E+05 -3.23979E+04 -1.39371E+03 -5.12264E+04  5.36388E+04  4.24245E+02
  3.71599E+04  5.30333E+04 -1.65045E+04  7.63188E+04 -6.21325E+04  6.55476E+04 -8.54128E+04  3.07153E+04
 -8.22634E+04 -1.47067E+04 -5.73370E+04 -5.10443E+04 -1.41161E+04 -7.24298E+04  2.92988E+04 -4.85847E+04
  4.06198E+04  4.76617E+03  1.60732E+04  4.72002E+04 -3.50576E+04  4.81287E+04 -6.82017E+04 -6.39106E+02
 -5.64949E+04 -5.90955E+04 -8.53439E+03 -8.06988E+04  3.53471E+04 -5.76051E+04  5.08995E+04 -1.79231E+04
  4.55708E+04  1.12382E+04  3.48040E+04  2.77143E+04  1.70130E+04  3.12831E+04 -6.14902E+03  3.02908E+04
 -2.22286E+04  1.52686E+04 -1.74590E+04 -7.17463E+03  7.55878E+03 -8.27467E+03  2.59904E+04  1.56732E+04
  6.14843E+03  3.66005E+04 -3.35423E+04  3.78441E+04 -6.64901E+04  1.95262E+03 -6.00822E+04 -4.51505E+04
 -1.16482E+04 -6.55207E+04  4.23007E+04 -4.81188E+04  6.14958E+04 -2.23466E+03  3.91421E+04  3.35449E+04
 -3.91429E+03  3.97121E+04 -3.18642E+04  2.09178E+04 -3.49335E+04 -3.91066E+03 -2.07782E+04 -1.32943E+04
 -1.01423E+04 -1.60232E+04  1.13980E+03 -1.98399E+04  1.07018E+04 -2.39415E+04  1.47841E+04 -1.28841E+04
  8.63163E+03  6.58858E+03 -1.25549E+04  1.16552E+04 -2.52476E+04 -6.85231E+03 -9.66221E+03 -3.98457E+04
  2.61345E+04 -4.98859E+04  5.39237E+04 -2.04691E+04  5.00735E+04  2.12258E+04  1.99050E+04  4.89756E+04
 -1.66323E+04  3.55929E+04 -2.82590E+04  4.55503E+03 -1.25731E+04 -2.83888E+04  2.23258E+04 -3.78993E+04
  4.78510E+04 -1.34008E+04  4.23602E+04  2.91687E+04  2.35270E+04  5.45485E+04 -7.51108E+03  6.06399E+04
 -3.73887E+04  4.17409E+04 -5.02232E+04  1.38227E+04 -5.07156E+04 -2.14129E+04 -2.99869E+04 -4.53376E+04
  8.81338E+03 -4.33632E+04  3.50118E+04 -1.92291E+04  3.36048E+04  1.13114E+04  6.87690E+03  1.98803E+04
 -1.29839E+04  1.12739E+04 -1.30352E+04 -6.37031E+03  6.83872E+03 -9.36282E+03  2.18691E+04  5.26815E+03
  1.48888E+04  2.40471E+04 -4.11344E+03  2.99844E+04 -2.19986E+04  1.60997E+04 -3.34076E+04 -3.64420E+02
 -2.77507E+04 -1.83739E+04 -1.35561E+04 -2.80346E+04  3.14383E+03 -2.84048E+04  2.39056E+04 -2.58516E+04
  3.56314E+04 -1.32416E+04  4.31233E+04  6.66200E+03  2.73021E+04  2.69691E+04  5.58043E+03  4.23205E+04
 -2.12630E+04  3.67149E+04 -3.41634E+04  1.18637E+04 -2.36879E+04 -1.06505E+04 -7.00568E+03 -1.29780E+04
 -1.45267E+03  6.76239E+02 -9.36458E+03  1.18219E+04 -2.29362E+04  5.56131E+03 -2.17952E+04 -1.01717E+04
 -1.36988E+04 -2.68475E+04  7.48206E+03 -2.94570E+04  2.16433E+04 -2.17256E+04  2.59671E+04 -1.71319E+03
  1.63992E+04  1.88755E+04 -2.91616E+03  2.67745E+04 -1.96000E+04  1.46213E+04 -2.61888E+04 -4.76151E+03
 -1.97840E+04 -2.24240E+04 -3.32933E+03 -3.24589E+04  1.43968E+04 -2.65929E+04  2.69442E+04 -1.29742E+04
  2.36362E+04 -1.00375E+02  1.69190E+04  5.82340E+03  8.78689E+03  1.58794E+03  1.59809E+04 -1.25262E+03
  2.39859E+04  2.91785E+03  2.77013E+04  2.02140E+04  1.97941E+04  4.33132E+04 -2.01157E+03  5.16809E+04
 -2.71937E+04  4.27771E+04 -4.92529E+04  2.20462E+04 -5.23577E+04 -3.88311E+03 -4.16181E+04 -2.86148E+04
 -1.58531E+04 -4.39868E+04  1.77025E+04 -3.89425E+04  3.11674E+04 -1.79194E+04  2.78414E+04  1.17948E+04
  7.27516E+03  2.06803E+04 -1.27930E+04  1.75651E+04 -2.26987E+04  1.50309E+03 -1.72944E+04 -1.48608E+04
  4.46821E+02 -2.21472E+04  1.17692E+04 -1.82788E+04  1.59121E+04 -1.42630E+03  2.71408E+03  1.00464E+04
 -9.73668E+03  7.56885E+03 -1.09638E+04 -7.33955E+03 -2.02142E+03 -2.03403E+04  1.39922E+04 -2.30946E+04
  2.78241E+04 -1.34669E+04  3.26148E+04  3.03454E+03  2.97351E+04  2.17035E+04  1.47664E+04  3.52545E+04
 -7.07447E+03  3.74065E+04 -2.54028E+04  2.15550E+04 -2.64587E+04  5.65684E+03 -1.76411E+04 -7.50722E+03
 -6.17570E+03 -8.81948E+03  1.61435E+02 -1.76757E+03 -4.00712E+03  4.03318E+03 -9.70839E+03  3.09542E+03
 -1.63078E+04 -9.31414E+02 -1.77223E+04 -1.41621E+04 -7.72488E+03 -2.28281E+04  8.35838E+03 -1.81513E+04
  1.45313E+04 -9.53496E+03  1.17140E+04  4.01238E+03 -1.39677E+03  8.22837E+03 -1.13681E+04 -5.27752E+02
 -6.93813E+03 -1.18141E+04 -1.19823E+02 -1.87325E+04  1.03250E+04 -2.03949E+04  2.42825E+04 -8.82545E+03
  2.77198E+04  4.30900E+03  2.12131E+04  1.94416E+04  4.31735E+03  2.38030E+04 -1.03046E+04  1.74246E+04
 -1.46372E+04  6.20988E+03 -7.93261E+03 -3.49366E+03  2.58189E+03 -4.10687E+03  9.51253E+03  3.77269E+02
  1.08073E+04  8.30478E+03 -4.33116E+02  1.64461E+04 -1.11282E+04  1.41282E+04 -1.79315E+04  3.51045E+03
 -1.34647E+04 -1.04387E+04 -1.43228E+03 -1.45664E+04  1.15374E+04 -8.11966E+03  1.14331E+04  3.36042E+03
  2.13752E+03  1.37872E+04 -1.12520E+04  1.43809E+04 -1.68850E+04  7.89292E+03 -1.78549E+04 -6.07589E+03
 -9.39067E+03 -2.15931E+04  3.97813E+03 -2.40861E+04  1.88843E+04 -1.22230E+04  1.89940E+04  3.18688E+03
  1.30543E+04  1.59060E+04 -1.08256E+03  2.02283E+04 -1.51373E+04  1.17039E+04 -1.55564E+04 -3.73427E+02
 -1.27863E+04 -1.27177E+04 -1.95957E+03 -1.39382E+04  6.14697E+03 -1.16413E+04  9.59103E+03 -4.45609E+03
  6.70009E+03  2.53620E+03 -2.01555E+03  4.40092E+03 -1.27542E+03 -3.63308E+03  3.53898E+03 -9.10141E+03
  1.54179E+04 -5.87436E+03  2.27443E+04  2.09647E+03  1.89826E+04  1.35099E+04  1.29888E+04  2.73954E+04
 -7.29418E+03  3.10546E+04 -2.62290E+04  2.28601E+04 -3.24116E+04  5.15821E+03 -2.47584E+04 -1.13283E+04
 -1.22349E+04 -2.10653E+04  1.96280E+03 -1.96989E+04  6.31658E+03 -1.01274E+04  8.08565E+03 -5.09514E+03
  4.32866E+03 -3.57203E+03  5.07239E+03 -4.46855E+03  6.68288E+03 -4.94145E+03  1.01579E+04 -2.76817E+03
  1.39681E+04  3.90768E+03  6.81960E+03  1.08870E+04 -2.31186E+03  1.85232E+04 -1.30475E+04  1.20176E+04
 -1.97893E+04 -1.16328E+03 -1.25761E+04 -1.27650E+04 -2.14584E+03 -2.11299E+04  1.23135E+04 -2.03267E+04
  2.19355E+04 -1.14343E+04  2.38680E+04  4.96238E+03  1.83425E+04  2.02072E+04  4.05996E+03  2.26950E+04
 -9.92129E+03  1.94700E+04 -1.40075E+04  6.83892E+03 -1.07449E+04 -1.76804E+03 -5.79652E+03 -1.99937E+03
 -1.84063E+03 -1.14413E+03 -1.35984E+03  3.73096E+03 -7.32197E+03  2.10987E+03 -1.06073E+04 -2.24644E+03
 -1.22144E+04 -1.36882E+04  6.99758E+02 -1.89575E+04  1.32837E+04 -1.78958E+04  1.96262E+04 -5.36111E+03
  2.01887E+04  7.09363E+03  8.20193E+03  1.90616E+04 -4.51799E+03  1.98492E+04 -1.55547E+04  1.22554E+04
 -1.78653E+04 -9.76599E+02 -1.55306E+04 -1.26091E+04 -9.60741E+02 -1.76552E+04  8.67121E+03 -1.21654E+04
  1.25139E+04 -1.32293E+03  8.63364E+03  3.36872E+03  3.95867E+03  5.28683E+03  8.97821E+02  4.04478E+03
  1.68803E+03  9.62809E+02  4.52733E+03  1.47094E+03  7.44047E+03  5.69169E+03  4.08338E+03  1.14365E+04
 -4.79970E+03  1.64837E+04 -1.32208E+04  1.62704E+04 -2.20554E+04  4.46970E+03 -2.06663E+04 -1.06627E+04
 -9.30562E+03 -2.04501E+04  3.87980E+03 -2.31933E+04  1.38150E+04 -1.47025E+04  1.65607E+04 -4.27005E+03
  1.29214E+04  7.47688E+03  3.17501E+03  1.34128E+04 -8.13371E+03  7.69215E+03 -8.59078E+03 -1.83714E+03
 -2.81729E+03 -9.63412E+03  3.56677E+03 -9.46523E+03  9.14817E+03 -4.25494E+03  8.15780E+03  2.07693E+03
  5.93777E+03  4.13032E+03  1.30935E+03  3.00504E+03 -1.23438E+03  2.07593E+03  2.81272E+03 -1.06148E+03
  4.31450E+03 -2.02991E+03  7.90469E+03  1.69374E+03  5.99918E+03  1.18823E+04 -4.23134E+03  1.52412E+04
 -1.05372E+04  9.04169E+03 -1.33731E+04  2.29721E+03 -1.26766E+04 -5.44939E+03 -6.08052E+03 -9.64400E+03
 -5.26020E+02 -8.79477E+03  5.43392E+03 -3.62790E+03  5.70224E+03  3.65069E+03 -2.89725E+03  6.03979E+03
 -9.98701E+03  3.80042E+03 -1.15153E+04 -4.61866E+03 -5.80585E+03 -1.25383E+04  3.16386E+03 -1.21564E+04
  6.95366E+03 -5.68108E+03  8.62678E+03 -1.73972E+03  6.85868E+03  2.16150E+03  8.80391E+02  6.83451E+03
 -5.13595E+03  2.26935E+03 -4.75552E+03 -3.94348E+03 -1.16068E+02 -9.28004E+03  1.17888E+04 -7.07529E+03
  1.42434E+04  3.17850E+03  1.24733E+04  1.07736E+04  2.94666E+03  1.70086E+04 -5.42973E+03  1.30641E+04
 -1.10964E+04  4.87915E+03 -1.24639E+04 -5.40435E+02 -8.22422E+03 -1.05226E+04  1.29929E+03 -8.06418E+03
  9.04804E+03 -5.90622E+03  7.98344E+03  3.68552E+03  5.46822E+03  8.54129E+03 -2.59259E+03  7.70193E+03
 -4.29912E+03  6.56460E+03 -3.14943E+03  1.61100E+03 -1.23794E+03  3.83299E+02 -3.12287E+03  3.13497E+03
 -3.71079E+03  6.62359E+03 -1.09120E+04  5.52433E+03 -1.37888E+04 -8.43456E+02 -1.75304E+04 -7.58147E+03
 -9.17777E+03 -1.90210E+04  1.69599E+03 -2.32911E+04  1.46931E+04 -1.71318E+04  2.21137E+04 -6.31966E+03
  2.09031E+04  4.01257E+03  1.16424E+04  1.28716E+04  7.26489E+02  1.58360E+04 -7.92562E+03  1.34904E+04
 -7.29073E+03  5.37060E+03 -4.79293E+03 -2.07169E+03 -3.40149E+03 -3.07688E+03 -1.09267E+03  1.08822E+03
 -3.84505E+03 -1.39266E+02 -4.36094E+03 -1.69830E+03 -2.37544E+03 -2.68431E+03 -2.11446E+03 -6.57443E+03
  9.55171E+03 -6.13369E+03  1.01192E+04 -1.75475E+03  9.83655E+03  9.57704E+03  2.72399E+03  1.49632E+04
 -8.56828E+03  1.91963E+04 -1.73823E+04  9.73663E+03 -1.94728E+04 -2.48907E+03 -1.53747E+04 -1.25801E+04
 -3.99852E+03 -1.58917E+04  5.05076E+03 -1.46964E+04  1.12397E+04 -7.03219E+03  1.07814E+04  2.45449E+03
  5.14336E+03  4.04980E+03 -2.88740E+02  5.21612E+03 -4.48484E+03 -1.04775E+03  9.02052E+02 -5.29053E+03
  6.07746E+03 -1.15343E+03  6.65533E+03  2.23334E+03  6.73722E+03  6.43306E+03  4.80189E+02  6.57781E+03
 -6.05281E+03  6.65588E+03 -1.18767E+04  4.92733E+02 -1.02484E+04 -9.19404E+03 -3.12712E+03 -1.58202E+04
  8.63973E+03 -1.19480E+04  1.46833E+04 -3.77458E+03  1.12956E+04  3.61219E+03  8.32221E+03  1.02215E+04
  1.73255E+03  1.33661E+04 -4.27982E+03  1.04141E+04 -9.23506E+03  7.63828E+03 -5.25569E+03  4.68319E+02
 -5.31013E+03 -1.40332E+02 -3.58369E+03  1.32935E+03 -5.93389E+03  2.81611E+03 -8.14367E+03 -3.45146E+03
 -9.04410E+03 -5.76735E+03 -3.16933E+03 -1.24247E+04  5.19757E+03 -1.12394E+04  9.51912E+03 -6.08534E+03
  1.24584E+04  1.35778E+03  7.03450E+03  8.38907E+03 -1.26388E+03  1.07817E+04 -7.99881E+03  8.38917E+03
