 $NMID ID='MM_0lb_SNR200_17hz_g40_28.RAW', FMTDAT='(8E13.5)'
 TRAMP=1., VOLUME=1. $END
  3.09637E+05  2.63446E+02  3.37487E+05  2.50382E+05  8.42818E+04  3.38671E+05 -1.32855E+05  2.49748E+05
 -1.90177E+05  8.35292E+04 -1.11905E+05 -3.27271E+04  1.25032E+03 -4.98906E+04  5.39604E+04 -5.55040E+02
  3.37771E+04  5.26396E+04 -1.73473E+04  7.36329E+04 -6.16572E+04  6.25944E+04 -8.30840E+04  3.09890E+04
 -7.96809E+04 -1.09960E+04 -5.67528E+04 -5.05475E+04 -1.55938E+04 -6.80280E+04  2.70105E+04 -4.46596E+04
  3.88191E+04  4.22729E+03  1.53962E+04  4.66680E+04 -3.41785E+04  4.66085E+04 -6.56236E+04 -8.26239E+02
 -5.20371E+04 -5.57000E+04 -5.97766E+03 -7.55446E+04  3.26266E+04 -5.32385E+04  4.65716E+04 -1.70266E+04
  4.31787E+04  1.14326E+04  3.04869E+04  2.40281E+04  1.67838E+04  2.87420E+04 -4.87465E+03  2.67383E+04
 -2.14007E+04  1.22902E+04 -1.95949E+04 -3.87122E+03  2.98021E+03 -8.16057E+03  2.15296E+04  1.12965E+04
  6.88079E+03  3.29061E+04 -3.03823E+04  3.47056E+04 -6.10568E+04  2.98193E+03 -5.64231E+04 -4.12485E+04
 -1.24080E+04 -6.10354E+04  3.86147E+04 -4.39261E+04  5.55729E+04 -1.79994E+03  3.25203E+04  3.14029E+04
 -6.12603E+03  3.42271E+04 -2.88167E+04  1.41468E+04 -2.87473E+04 -4.85483E+03 -1.46397E+04 -1.00768E+04
 -6.94039E+03 -1.09750E+04 -1.96616E+03 -1.64969E+04  6.98192E+03 -2.16041E+04  1.45338E+04 -1.37827E+04
  1.16580E+04  3.37876E+03 -6.35583E+03  1.27923E+04 -1.94557E+04 -2.46141E+03 -8.40516E+03 -3.09575E+04
  2.14966E+04 -4.18308E+04  4.51321E+04 -1.80645E+04  4.22184E+04  1.80310E+04  1.38052E+04  4.02548E+04
 -1.51494E+04  3.11672E+04 -2.43272E+04  5.78321E+02 -8.12480E+03 -2.62863E+04  2.01962E+04 -3.06336E+04
  3.85068E+04 -6.51773E+03  3.19920E+04  2.34864E+04  1.58226E+04  4.18340E+04 -8.34711E+03  4.52151E+04
 -2.83648E+04  2.97588E+04 -3.88015E+04  8.58858E+03 -3.87460E+04 -1.48328E+04 -2.17597E+04 -3.43633E+04
  7.40019E+03 -3.52325E+04  2.93870E+04 -1.25237E+04  2.76311E+04  9.74088E+03  3.56212E+03  1.91325E+04
 -1.33049E+04  6.99606E+03 -9.91827E+03 -6.81126E+03  6.58417E+03 -1.00176E+04  1.80884E+04  7.05119E+03
  1.30678E+04  2.18778E+04 -5.87573E+03  2.39932E+04 -2.11411E+04  9.43337E+03 -2.62251E+04 -6.90637E+03
 -1.81087E+04 -1.66362E+04 -5.98579E+03 -1.61031E+04  4.38991E+03 -1.60542E+04  1.26623E+04 -1.39068E+04
  2.21901E+04 -1.15632E+04  2.90035E+04  1.93334E+03  2.15756E+04  1.68678E+04  3.38145E+03  3.33293E+04
 -1.77219E+04  2.83387E+04 -2.61320E+04  1.01925E+04 -1.98060E+04 -1.01403E+04 -4.41494E+03 -1.26299E+04
  2.90246E+03 -4.81829E+03 -3.20956E+03  6.11930E+03 -1.44749E+04  6.18936E+03 -1.30828E+04 -4.86312E+03
 -1.04165E+04 -1.54490E+04  5.20172E+03 -1.91918E+04  1.30265E+04 -1.39557E+04  1.47438E+04 -6.20262E+02
  9.27430E+03  1.08564E+04 -1.23363E+03  1.62529E+04 -1.07526E+04  8.87201E+03 -1.49159E+04 -4.03046E+03
 -1.20537E+04 -1.51741E+04 -2.23459E+03 -1.97101E+04  8.57252E+03 -1.70925E+04  1.62121E+04 -6.79121E+03
  1.58275E+04  1.65166E+03  1.19956E+04  3.12867E+03  5.32019E+03  3.05339E+02  7.50715E+03 -2.42447E+03
  1.48289E+04  3.03129E+03  1.51316E+04  1.22155E+04  1.02907E+04  2.48507E+04 -2.72723E+03  2.73598E+04
 -1.60785E+04  2.10011E+04 -2.59028E+04  9.92534E+03 -2.58695E+04 -2.65151E+03 -2.29251E+04 -1.40506E+04
 -1.09035E+04 -2.15767E+04  5.88473E+03 -2.06882E+04  1.70920E+04 -1.09195E+04  1.61428E+04  3.77434E+03
  7.21069E+03  1.12186E+04 -7.54596E+03  1.01297E+04 -1.45109E+04  2.23930E+03 -1.12195E+04 -8.45807E+03
 -5.31171E+02 -1.33353E+04  6.80351E+03 -8.48342E+03  8.07612E+03 -1.75124E+03  1.04360E+03  5.90688E+03
 -6.24201E+03  1.17412E+03 -4.45415E+03 -4.64797E+03  5.82296E+02 -1.07061E+04  8.23858E+03 -1.04324E+04
  1.21984E+04 -4.77530E+03  1.20786E+04  1.60668E+03  1.08454E+04  9.81377E+03  5.28289E+03  1.48829E+04
 -1.49947E+03  1.64401E+04 -1.12501E+04  1.05343E+04 -1.27152E+04  2.91746E+03 -9.57541E+03 -2.25122E+03
 -4.57144E+03 -3.52596E+03  5.39849E+02  2.44844E+03 -3.03090E+03  1.96271E+03 -4.85974E+03  3.72029E+03
 -7.80317E+03 -8.95239E+02 -9.48086E+03 -8.32305E+03 -3.43992E+03 -1.20652E+04  3.70710E+03 -8.92085E+03
  7.12177E+03 -3.73188E+03  3.99547E+03  1.99954E+03  7.31314E+02  2.73366E+03 -3.37754E+03 -6.31995E+02
 -3.43259E+03 -5.92585E+03 -1.12772E+03 -7.56010E+03  5.14774E+03 -8.29789E+03  1.07140E+04 -4.66989E+03
  1.21165E+04  1.72194E+03  9.46418E+03  7.42051E+03  1.56585E+03  9.92688E+03 -5.79314E+03  9.15896E+03
 -5.50326E+03  2.99415E+03 -3.57120E+03 -1.37702E+03  1.65144E+03 -3.48348E+03  5.48002E+03 -1.17113E+03
  4.32705E+03  3.52209E+03  9.46428E+02  7.32924E+03 -5.12931E+03  7.30494E+03 -8.30964E+03  1.80892E+03
 -4.62489E+03 -3.54941E+03 -1.07095E+02 -6.83038E+03  4.60006E+03 -4.09199E+03  4.53240E+03  1.12364E+03
  3.44921E+02  4.54436E+03 -4.50133E+03  5.16850E+03 -6.37407E+03  2.97473E+03 -4.65411E+03 -1.29132E+03
 -2.89119E+03 -6.84872E+03  1.21077E+03 -7.40259E+03  7.80634E+03 -5.67458E+03  6.26032E+03 -6.66020E+02
  4.76708E+03  5.35246E+03  5.96411E+02  7.56830E+03 -5.52862E+03  3.89635E+03 -5.71442E+03 -1.10025E+02
 -5.17881E+03 -5.46619E+03 -9.33638E+02 -5.54402E+03  2.03962E+03 -5.54918E+03  3.04226E+03 -2.68932E+03
  2.60308E+03  1.15075E+03  3.17787E+02  1.46653E+03  5.31163E+02 -1.33394E+03  1.27728E+02 -3.46281E+03
  3.70975E+03 -8.80133E+02  6.19112E+03  1.24792E+03  7.01492E+03  3.66585E+03  5.60532E+03  7.18656E+03
 -1.49639E+03  9.16963E+03 -8.94581E+03  7.61649E+03 -1.05745E+04  1.00515E+03 -9.46067E+03 -4.08757E+03
 -4.16750E+03 -6.78027E+03 -7.15485E+02 -6.03933E+03  1.82417E+03 -2.95403E+03  2.05951E+03 -2.62136E+03
  2.14441E+03 -1.85218E+03  3.33470E+03 -1.97153E+03  3.25120E+03 -1.84899E+03  4.89695E+03  4.69586E+01
  5.27534E+03  1.60280E+03  1.77424E+03  3.40175E+03 -1.86436E+03  2.54769E+03 -5.32520E+03  2.56579E+03
 -5.54895E+03 -3.10371E+02 -2.57864E+03 -3.65733E+03  3.78318E+01 -6.02349E+03  3.18033E+03 -6.61333E+03
  6.92385E+03 -3.85054E+03  6.88521E+03  6.91850E+01  6.12697E+03  5.24911E+03  1.99880E+03  6.28270E+03
 -2.08932E+03  5.61629E+03 -2.70987E+03  2.25831E+03 -1.77403E+03 -1.97068E+03  6.41055E+01 -1.04614E+03
 -7.49944E+01 -2.20540E+02 -1.60123E+03  2.55797E+03 -3.16420E+03  1.51074E+03 -3.80827E+03  5.06107E+01
 -1.15278E+03 -3.31911E+03  2.03294E+01 -5.46840E+03  2.94886E+03 -5.34630E+03  3.95708E+03 -8.27434E+02
  5.39054E+03  1.77031E+03  2.74317E+03  3.98549E+03 -1.47712E+03  5.17223E+03 -3.31327E+03  2.99823E+03
 -3.60898E+03  5.51172E+02 -3.15401E+03 -3.75398E+03  7.96952E+02 -3.20217E+03  1.71382E+03 -3.20849E+03
  4.48375E+03 -6.57889E+02  2.02193E+03  8.17651E+02 -4.04999E+02  2.09694E+03 -1.26106E+02  7.22863E+02
  2.43921E+03  9.63123E+02  1.92068E+03  1.62053E+02  1.60664E+03  2.09377E+03  8.26812E+02  2.46547E+03
 -1.29168E+03  4.24696E+03 -2.64288E+03  5.00131E+03 -3.07493E+03  1.42466E+03 -5.26075E+03 -3.39775E+02
 -2.29635E+03 -4.05078E+03 -1.29296E+02 -5.13237E+03  2.72556E+03 -3.37176E+03  5.21713E+03 -1.11943E+03
  2.49909E+03  2.91602E+03  9.90706E+01  3.08207E+03 -1.23438E+03  1.85037E+03 -1.99460E+03  2.25714E+02
 -5.01625E+02 -2.13384E+03  6.22778E+01 -1.04236E+03  1.31424E+03 -1.79742E+03  9.47392E+02  7.59291E+02
  9.31911E+02  3.72774E+02  1.00096E+03  1.09392E+03 -5.20542E+02  1.21930E+03  1.20810E+03 -2.75010E+02
 -4.10890E+02 -9.21246E+01  2.18946E+03  9.95224E+02 -6.83515E+01  2.65341E+03 -8.40549E+02  2.69152E+03
 -3.46609E+03  1.65347E+03 -1.09819E+03  4.84128E+02 -1.64189E+03  2.68855E+02  1.67143E+02 -4.71248E+02
 -4.83556E+01 -1.13900E+03  1.59960E+03 -1.36415E+03  6.99628E+02  1.99544E+03 -2.11408E+02  2.69746E+02
 -1.83780E+03  1.42765E+03 -1.75921E+03 -1.26585E+03 -1.03231E+03 -2.74413E+03 -1.92722E+02 -2.69967E+03
  1.40165E+03  1.55393E+01  1.43985E+03  4.48830E+02  1.29802E+03  5.26088E+02  9.69152E+02  1.12890E+03
 -3.38449E+02  2.62121E+02 -1.27445E+03 -1.09447E+03  3.41877E+02 -7.22816E+02  2.77346E+03 -1.56925E+03
  2.66338E+03  4.25205E+02  3.44306E+03  2.80916E+02  1.21050E+03  2.32948E+03  4.61455E+02  2.86684E+03
 -1.51516E+03 -2.75499E+02 -1.26631E+03 -3.85298E+02 -7.47875E+02 -1.02633E+03  6.34821E+02 -9.26495E+02
  9.19478E+02 -1.35292E+03  1.00732E+03  7.78386E+02  2.71773E+02  6.76457E+02  1.77801E+02  1.60528E+03
 -8.00591E+02  1.77918E+03 -1.43549E+03  5.07133E+02 -1.17160E+03 -5.03578E+02 -8.91905E+00  7.96138E+02
 -4.77648E+02 -1.26621E+02 -2.28398E+03  5.71041E+02 -2.71641E+03  1.08357E+03 -3.85069E+03 -1.10727E+03
 -1.82343E+03 -3.36471E+03  6.91559E+02 -3.67034E+03  1.63063E+03 -3.62952E+03  3.69400E+03 -1.03428E+03
  3.50030E+03  6.93132E+02  2.43919E+03  2.49347E+03 -5.47314E+02  3.41258E+03 -6.43957E+02  1.25064E+03
  5.98958E+01  3.41779E+02  9.66522E+01 -9.65553E+02 -1.19026E+03  3.49613E+02  5.08933E+02 -5.85383E+02
 -5.94835E+02  4.63903E+02  1.32999E+02  2.50454E+02  1.89332E+02 -5.39309E+02 -4.24093E+02 -8.83295E+02
  2.65895E+03 -1.15729E+03  2.91909E+02 -5.68988E+02  2.03863E+03  1.96096E+03 -7.82984E+01  2.62008E+03
 -1.89862E+03  2.67659E+03 -2.44194E+03  1.01599E+03 -2.45704E+03 -2.01114E+02 -1.62452E+03 -1.24339E+03
 -1.91082E+03 -1.25903E+03  1.06427E+02 -2.65301E+03  6.62285E+02 -2.08752E+03  3.45629E+02  3.01609E+00
  1.18348E+03  2.56866E+02  7.67617E+02  6.40518E+02 -1.30581E+03 -5.43933E+01 -3.85207E+02 -4.70140E+02
  1.02078E+03  8.27631E+02  1.36143E+03  7.82217E+01  1.33962E+02  9.77645E+02  4.96482E+02 -2.94776E+02
  5.59685E+02  1.75647E+03 -1.06785E+03 -2.81961E+02 -6.24331E+02 -1.26058E+02  4.82946E+02 -1.65540E+03
 -1.06368E+02 -5.07853E+02  6.49274E+02  2.36091E+02  1.46334E+03  1.05175E+02  1.91226E+03  2.02299E+03
  1.13121E+03  1.32318E+03 -1.64143E+03  1.90511E+03 -1.06959E+03  2.45935E+01  1.35034E+02 -1.68274E+02
 -1.99149E+03  6.21101E+02 -9.28540E+02 -3.45289E+02  5.12096E+01  1.43976E+02 -8.90121E+02 -1.37776E+03
 -8.27388E+02 -4.58852E+02 -1.66488E+03 -1.11702E+03  8.21823E+02 -1.98848E+03  1.78668E+03 -9.06884E+02
  1.15473E+03  4.38007E+01 -6.07119E+02  4.16368E+02  1.31066E+02  1.86107E+03 -8.54069E+02  1.22280E+03
