 $NMID ID='MM_0lb_SNR200_19hz_g60_71.RAW', FMTDAT='(8E13.5)'
 TRAMP=1., VOLUME=1. $END
  3.09182E+05  2.41575E+02  3.36275E+05  2.50361E+05  8.46454E+04  3.37185E+05 -1.33026E+05  2.50794E+05
 -1.89824E+05  8.35533E+04 -1.11632E+05 -3.29856E+04  7.94757E+02 -5.00170E+04  5.42063E+04 -3.59192E+02
  3.54506E+04  5.27410E+04 -1.62073E+04  7.56436E+04 -6.12001E+04  6.36959E+04 -8.51308E+04  3.19692E+04
 -7.93531E+04 -1.10262E+04 -5.74548E+04 -5.16564E+04 -1.51691E+04 -6.88877E+04  2.61136E+04 -4.52694E+04
  3.97042E+04  4.60997E+03  1.52411E+04  4.77645E+04 -3.46599E+04  4.73757E+04 -6.70823E+04 -4.04338E+02
 -5.35440E+04 -5.63648E+04 -6.24454E+03 -7.65935E+04  3.44394E+04 -5.49052E+04  4.77726E+04 -1.52726E+04
  4.13811E+04  1.15775E+04  3.20414E+04  2.54569E+04  1.58404E+04  2.88726E+04 -4.96149E+03  2.67971E+04
 -2.29138E+04  1.11932E+04 -1.87823E+04 -4.53969E+03  5.48320E+03 -6.59278E+03  2.19385E+04  1.07350E+04
  7.98879E+03  3.40723E+04 -3.13677E+04  3.53613E+04 -6.29449E+04  1.95616E+03 -5.67751E+04 -4.25952E+04
 -1.24679E+04 -6.22528E+04  3.96199E+04 -4.48178E+04  5.72426E+04 -2.03790E+03  3.24283E+04  3.17240E+04
 -5.29655E+03  3.45772E+04 -2.82699E+04  1.56079E+04 -2.91669E+04 -5.78677E+03 -1.65868E+04 -9.66724E+03
 -6.47923E+03 -1.23157E+04 -2.16598E+03 -1.71338E+04  7.29916E+03 -2.26314E+04  1.53253E+04 -1.37760E+04
  1.17956E+04  6.03593E+03 -7.27387E+03  1.25404E+04 -2.05048E+04 -3.63582E+03 -8.28397E+03 -3.06616E+04
  2.24847E+04 -4.11246E+04  4.72671E+04 -1.80465E+04  4.37558E+04  1.82771E+04  1.38510E+04  4.26877E+04
 -1.46580E+04  3.23299E+04 -2.42986E+04  1.99382E+03 -8.51898E+03 -2.67946E+04  1.97328E+04 -3.33196E+04
  3.90306E+04 -8.37508E+03  3.31553E+04  2.42590E+04  1.61075E+04  4.39484E+04 -7.62850E+03  4.72380E+04
 -2.95775E+04  3.11110E+04 -4.00442E+04  9.47582E+03 -3.95723E+04 -1.57083E+04 -2.23544E+04 -3.58406E+04
  6.98638E+03 -3.59272E+04  3.04087E+04 -1.36072E+04  2.76812E+04  1.14888E+04  2.75260E+03  1.90361E+04
 -1.42535E+04  7.60012E+03 -1.12183E+04 -7.02457E+03  6.68992E+03 -1.08744E+04  1.80686E+04  7.21279E+03
  1.30033E+04  2.26081E+04 -5.44310E+03  2.43631E+04 -2.25677E+04  1.00075E+04 -2.71633E+04 -5.19822E+03
 -1.89240E+04 -1.60485E+04 -5.99612E+03 -1.74716E+04  4.41421E+03 -1.68239E+04  1.26679E+04 -1.64740E+04
  2.26508E+04 -1.23996E+04  2.88546E+04  2.12230E+03  2.27014E+04  1.80617E+04  3.02243E+03  3.38244E+04
 -1.58841E+04  2.81061E+04 -2.69605E+04  9.49041E+03 -2.02076E+04 -1.04328E+04 -3.25177E+03 -1.39792E+04
  1.46940E+03 -4.62112E+03 -3.11727E+03  6.47700E+03 -1.33376E+04  4.53458E+03 -1.39343E+04 -5.53204E+03
 -8.62412E+03 -1.62474E+04  4.34306E+03 -1.98080E+04  1.31241E+04 -1.47743E+04  1.72532E+04 -1.90137E+03
  9.73463E+03  1.11563E+04 -3.01760E+02  1.69119E+04 -1.17413E+04  9.57640E+03 -1.67382E+04 -3.49098E+03
 -1.18758E+04 -1.49938E+04 -2.12388E+03 -1.96718E+04  9.32656E+03 -1.58973E+04  1.66806E+04 -8.12048E+03
  1.48192E+04  1.22608E+02  1.13792E+04  3.62940E+03  5.29756E+03  1.72717E+02  7.61973E+03 -9.97361E+02
  1.39843E+04  2.23935E+03  1.69981E+04  1.35704E+04  1.00882E+04  2.67679E+04 -3.57183E+03  2.90358E+04
 -1.56846E+04  2.30559E+04 -2.58389E+04  1.13301E+04 -2.66742E+04 -3.34576E+03 -2.39334E+04 -1.55400E+04
 -1.00065E+04 -2.25551E+04  7.98640E+03 -2.10157E+04  1.66798E+04 -1.13737E+04  1.66220E+04  4.55273E+03
  7.21097E+03  1.21310E+04 -7.72593E+03  1.06999E+04 -1.44986E+04  2.30726E+03 -1.16661E+04 -8.27893E+03
 -2.55535E+02 -1.16060E+04  6.39905E+03 -1.00736E+04  9.19055E+03 -1.07270E+03  1.51303E+03  5.05207E+03
 -6.10104E+03  1.76338E+03 -3.71996E+03 -4.82586E+03 -6.91335E+02 -1.08539E+04  8.09291E+03 -1.04292E+04
  1.34572E+04 -5.12703E+03  1.30440E+04  2.85083E+03  1.04908E+04  9.98709E+03  4.24842E+03  1.43248E+04
 -1.61568E+03  1.72781E+04 -1.01748E+04  1.11434E+04 -1.23859E+04  2.63618E+03 -8.14004E+03 -1.98310E+03
 -6.11121E+03 -5.09260E+03 -9.08891E+02  2.29800E+03 -2.56969E+03  1.77940E+03 -2.70298E+03  3.30098E+03
 -8.05976E+03 -2.56783E+02 -8.90269E+03 -7.54056E+03 -3.33336E+03 -1.22103E+04  3.97964E+03 -7.37720E+03
  5.41222E+03 -3.50355E+03  4.65561E+03  1.03906E+03  9.66727E+01  3.30680E+03 -3.66106E+03  3.55606E+02
 -3.91332E+03 -4.61413E+03 -1.07092E+03 -7.97619E+03  4.39515E+03 -9.09010E+03  1.07313E+04 -4.54443E+03
  1.28953E+04  1.47703E+03  9.25064E+03  7.06035E+03  1.18217E+03  9.03283E+03 -4.58760E+03  8.13362E+03
 -7.64448E+03  2.92376E+03 -3.90310E+03 -3.23343E+02  1.83949E+03 -1.72322E+03  4.49686E+03 -1.03329E+03
  4.42560E+03  3.24832E+03  4.58881E+02  6.06600E+03 -5.16143E+03  6.30045E+03 -8.22468E+03  2.01841E+03
 -5.72960E+03 -4.03815E+03  2.87543E+02 -7.02356E+03  3.74180E+03 -2.46682E+03  3.66775E+03  2.13378E+03
  3.61902E+02  3.76189E+03 -4.34594E+03  5.28146E+03 -4.69315E+03  2.29084E+03 -3.71208E+03 -1.32924E+03
 -2.73686E+03 -5.47136E+03  1.79300E+03 -7.77427E+03  6.49944E+03 -4.28972E+03  6.55606E+03  4.72279E+02
  5.19251E+03  4.25050E+03 -7.01269E+02  6.94571E+03 -3.87805E+03  4.64008E+03 -6.34944E+03 -5.06716E+02
 -5.83768E+03 -4.92822E+03 -2.16099E+03 -4.95344E+03  2.03704E+03 -5.50099E+03  2.76997E+03 -3.67536E+03
  2.52550E+03  5.35950E+02 -5.68178E+02  1.11700E+03  1.72852E+03 -1.00279E+03 -4.49371E+02 -2.01832E+03
  3.61876E+03 -9.71192E+02  5.00069E+03  1.07975E+03  5.15520E+03  3.66247E+03  5.74671E+03  7.59581E+03
 -1.63263E+03  8.37640E+03 -8.20257E+03  6.04552E+03 -8.59944E+03  2.00092E+03 -8.96097E+03 -2.67527E+03
 -3.77898E+03 -6.99773E+03 -1.04776E+02 -4.69927E+03  2.48560E+03 -2.15034E+03  2.20398E+03 -2.21453E+03
  8.86934E+02 -1.53880E+03  1.74164E+03 -1.83525E+03  3.59918E+03 -2.29117E+03  4.01542E+03  6.04407E+01
  4.85848E+03  1.06754E+03  1.25210E+03  3.94451E+03 -1.48266E+03  3.58289E+03 -5.18534E+03  1.40034E+03
 -4.99982E+03 -1.46892E+03 -1.71562E+03 -2.84608E+03  5.60239E+02 -4.78079E+03  2.86813E+03 -7.06357E+03
  6.01290E+03 -2.70675E+03  8.01120E+03  2.62512E+02  6.00620E+03  5.04078E+03  9.49258E+02  5.63419E+03
 -1.41480E+03  5.35225E+03 -4.14893E+03  1.91039E+03 -2.43298E+03 -1.27438E+03  1.18493E+02 -2.50837E+02
  4.31812E+01 -6.85581E+01  2.54381E+01  1.92734E+03 -3.22333E+03  7.74931E+02 -4.16622E+03 -2.02432E+02
 -2.60713E+03 -4.30863E+03  1.26497E+03 -4.59076E+03  3.11246E+03 -4.59240E+03  4.75652E+03 -9.02932E+02
  3.78744E+03  2.42515E+03  1.91053E+03  3.49490E+03 -7.52852E+02  4.48506E+03 -3.12925E+03  2.92156E+03
 -2.94265E+03 -2.23314E+02 -3.68519E+03 -3.11144E+03 -2.10604E+02 -3.78550E+03  1.96235E+03 -2.23988E+03
  2.05274E+03 -1.54783E+03  3.16495E+03  1.27052E+03  3.08181E+02  2.05166E+03 -1.00551E+03  1.21589E+03
  1.28650E+03 -4.93621E+02  1.52063E+03  1.49755E+03  8.90568E+02  2.58507E+03  1.88019E+03  8.72676E+02
 -1.07767E+03  2.35392E+03 -1.51300E+03  3.32077E+03 -3.58346E+03  1.95498E+03 -3.77189E+03  9.58581E+02
 -1.55036E+03 -3.03635E+03  1.67286E+03 -2.75138E+03  1.52169E+03 -7.74338E+02  3.54256E+03 -5.37533E+02
  2.95880E+03  2.46775E+03 -3.32430E+02  1.87160E+03 -1.77592E+03  1.47465E+03 -4.44800E+02 -6.60178E+01
 -3.45880E+02 -2.24382E+03  1.30005E+03 -1.37682E+03  2.03863E+03 -1.39246E+03  2.18288E+03  9.14296E+01
  8.19639E+02  3.49696E+01  4.12186E+02  6.31963E+01 -2.22274E+02 -3.55833E+02  1.88864E+03  8.35472E+02
 -1.33393E+03 -4.56059E+02  1.94943E+03  1.18309E+03  5.19420E+02  1.96959E+03 -8.24517E+02  2.47775E+03
 -1.40038E+03  1.01777E+03 -1.28085E+03  2.13513E+02 -1.50138E+03 -6.37037E+02 -8.49811E+01 -1.03390E+03
 -3.98993E+02 -1.01368E+03  1.00134E+02 -5.20205E+02 -1.04951E+02  1.53548E+03 -1.65260E+02  1.54370E+03
 -6.52010E+02  1.23939E+03 -8.10748E+02 -9.14719E+02 -1.98426E+02 -2.07552E+03  1.65418E+03 -6.96935E+02
  5.56641E+02 -1.72512E+02  8.99500E+02 -3.58762E+02  1.54545E+03 -1.66969E+02  5.31189E+02  2.11481E+03
 -5.32834E+02 -2.93862E+02 -1.54555E+03 -6.04817E+02  2.51470E+02 -9.35390E+02  1.89511E+03  6.56424E+01
  2.39263E+03  5.28419E+02  3.93689E+03  4.47329E+02  1.59502E+03  9.79186E+02 -2.52677E+02  1.64390E+03
 -2.23314E+03 -6.19638E+02 -1.05869E+03 -8.10649E+02 -1.80355E+03 -1.76566E+03 -6.47525E+01 -3.14023E+02
  8.88004E+02 -1.54930E+03  8.57273E+02  6.06477E+02  8.56163E+01  7.04184E+02  5.70393E+02 -1.07301E+02
 -1.23711E+02  4.67823E+01  3.81158E+02  3.12461E+02  5.50677E+02  4.30604E+02 -6.98419E+02  8.17406E+02
 -1.02844E+03  9.70144E+02 -1.83277E+03  7.17767E+02 -8.69224E+02  4.95144E+02 -2.14363E+03 -1.09701E+03
 -6.23763E+02 -1.90775E+03  1.97115E+02 -2.25369E+03  1.48912E+03 -2.06677E+03  1.90174E+03 -1.50247E+02
  9.30251E+02  7.63497E+02  6.09919E+02  1.92102E+03 -1.34100E+03  1.13626E+03  1.06697E+02  5.18553E+02
 -1.86266E+03 -2.51249E+01 -2.34730E+02  3.85338E+02 -1.69677E+03 -3.68665E+02 -2.33651E+02  1.16955E+03
 -4.80951E+02  2.42652E+02  7.07987E+02 -4.72398E+02  8.36154E+02 -2.45794E+01 -3.42182E+02 -9.88290E+02
  1.82935E+03 -1.06293E+03  2.68603E+02 -2.22599E+02  1.35474E+03  2.07460E+03 -1.61667E+03  2.78397E+02
 -8.51809E+01  1.13049E+03 -1.14630E+03  1.31459E+03 -2.38467E+03 -3.61709E+02 -1.28028E+03 -1.88467E+03
 -4.27902E+02 -7.16300E+02 -1.01061E+03 -1.11748E+03 -1.51485E+02 -8.09931E+02  7.02071E+02  2.18717E+02
  1.00865E+03 -8.34668E+01  5.52209E+02  4.40919E+02 -5.04475E+02 -7.76543E+01 -1.33607E+02  1.97336E+02
  6.92869E+02  8.67107E+01 -8.76605E+02  2.44942E+02  2.67160E+02  1.19493E+03  3.88645E+02  3.00545E+02
  1.76582E+02  6.57656E+02 -2.08143E+02 -3.87967E+02 -2.51133E+02 -1.14555E+03  6.12887E+02 -1.78025E+03
 -2.61409E+02 -1.08129E+02  6.52855E+02  1.14891E+03  1.39851E+03 -1.32033E+03  3.89473E+02  2.24955E+02
 -1.41799E+03 -5.06890E+02 -1.35566E+02  7.50340E+02 -1.09419E+03 -7.94061E+02  1.79646E+02  9.88367E+02
 -1.97959E+02  3.21055E+01 -7.21154E+02 -3.86578E+02 -4.78605E+02  7.69100E+02  6.32636E+02 -9.08588E+02
 -7.98307E+02  2.41874E+02 -7.68444E+01 -9.92250E+02  1.06109E+03 -1.19501E+03  8.05417E+02 -5.48154E+01
 -2.81442E+01 -6.11201E+02 -7.04927E+02 -6.16855E+02 -1.01227E+03  1.05397E+02 -4.45250E+01 -4.12489E+02
