 $NMID ID='MM_0lb_SNR200_19hz_g50_46.RAW', FMTDAT='(8E13.5)'
 TRAMP=1., VOLUME=1. $END
  3.09997E+05  6.71118E+02  3.37429E+05  2.50194E+05  8.47110E+04  3.36879E+05 -1.33029E+05  2.51311E+05
 -1.89125E+05  8.26725E+04 -1.11265E+05 -3.29513E+04  6.19201E+02 -5.07572E+04  5.40004E+04  8.85937E+02
  3.53675E+04  5.23441E+04 -1.64202E+04  7.55710E+04 -6.00871E+04  6.30457E+04 -8.27283E+04  3.09849E+04
 -7.97774E+04 -1.17139E+04 -5.57425E+04 -5.06512E+04 -1.46646E+04 -6.84122E+04  2.61636E+04 -4.40254E+04
  3.91352E+04  4.38869E+03  1.63309E+04  4.73441E+04 -3.37253E+04  4.58715E+04 -6.52271E+04  2.62796E+02
 -5.24900E+04 -5.60972E+04 -5.84919E+03 -7.57255E+04  3.41265E+04 -5.35244E+04  4.54168E+04 -1.63747E+04
  4.15412E+04  1.03951E+04  3.04501E+04  2.40144E+04  1.65357E+04  2.87946E+04 -4.23799E+03  2.63222E+04
 -2.13844E+04  1.35884E+04 -1.88083E+04 -4.36832E+03  4.29586E+03 -6.95461E+03  2.11420E+04  1.03165E+04
  7.11156E+03  3.26623E+04 -3.06379E+04  3.45951E+04 -6.08017E+04  1.69832E+03 -5.50328E+04 -4.19067E+04
 -1.29039E+04 -6.03624E+04  3.91104E+04 -4.29038E+04  5.53201E+04 -2.26143E+03  3.20577E+04  3.07581E+04
 -7.30345E+03  3.43426E+04 -2.87252E+04  1.45876E+04 -2.76574E+04 -5.47396E+03 -1.43084E+04 -1.03371E+04
 -7.70287E+03 -1.15934E+04 -1.47652E+03 -1.61657E+04  6.65380E+03 -2.32525E+04  1.50975E+04 -1.27055E+04
  1.23730E+04  3.13305E+03 -5.46734E+03  1.29818E+04 -1.99531E+04 -2.98458E+03 -8.08368E+03 -3.11457E+04
  2.07596E+04 -4.02144E+04  4.50027E+04 -1.77292E+04  4.23685E+04  1.83003E+04  1.54946E+04  4.10720E+04
 -1.50673E+04  3.08923E+04 -2.38987E+04  1.44875E+03 -8.22062E+03 -2.54060E+04  1.96278E+04 -3.11494E+04
  3.87545E+04 -6.62893E+03  3.22162E+04  2.21549E+04  1.53634E+04  4.41188E+04 -7.13731E+03  4.55570E+04
 -2.84999E+04  3.11065E+04 -3.82246E+04  8.50122E+03 -3.72913E+04 -1.43112E+04 -2.03225E+04 -3.47709E+04
  8.12535E+03 -3.42398E+04  2.95467E+04 -1.23251E+04  2.64425E+04  1.06506E+04  4.40743E+03  1.79400E+04
 -1.38183E+04  6.72192E+03 -9.65947E+03 -7.62608E+03  6.65075E+03 -1.07763E+04  1.75390E+04  5.45418E+03
  1.25264E+04  2.20643E+04 -5.90916E+03  2.35625E+04 -2.15457E+04  9.13421E+03 -2.56510E+04 -6.19151E+03
 -1.71981E+04 -1.64759E+04 -3.92235E+03 -1.60797E+04  3.09296E+03 -1.41891E+04  1.31633E+04 -1.39889E+04
  2.20698E+04 -1.14133E+04  2.91351E+04  1.24139E+03  2.06887E+04  1.57351E+04  3.89363E+03  3.24911E+04
 -1.56673E+04  2.83648E+04 -2.57436E+04  9.20980E+03 -1.97789E+04 -1.02926E+04 -3.63712E+03 -1.41803E+04
  2.06248E+03 -4.15875E+03 -2.73625E+03  5.22265E+03 -1.37361E+04  5.83545E+03 -1.35462E+04 -5.71964E+03
 -9.67594E+03 -1.46579E+04  4.91864E+03 -1.86149E+04  1.32911E+04 -1.47295E+04  1.40224E+04 -1.27069E+03
  9.87011E+03  9.28203E+03 -1.25345E+03  1.64857E+04 -1.04614E+04  9.59120E+03 -1.59450E+04 -3.32159E+03
 -1.13777E+04 -1.33095E+04 -1.34015E+03 -1.94739E+04  7.83517E+03 -1.57857E+04  1.57537E+04 -7.36969E+03
  1.48766E+04  8.40056E+02  1.04391E+04  4.89654E+03  4.49072E+03  4.26562E+02  7.39190E+03 -1.04926E+03
  1.34864E+04  2.71484E+03  1.43512E+04  1.28195E+04  8.40812E+03  2.41271E+04 -2.93228E+03  2.66143E+04
 -1.54950E+04  2.03832E+04 -2.36108E+04  1.05394E+04 -2.47773E+04 -2.36974E+03 -2.05632E+04 -1.48591E+04
 -1.06005E+04 -1.99860E+04  7.04281E+03 -1.86813E+04  1.59976E+04 -9.85698E+03  1.50857E+04  3.81688E+03
  6.51186E+03  1.08618E+04 -6.66195E+03  1.07855E+04 -1.36314E+04  2.22330E+03 -9.87725E+03 -7.90449E+03
  1.61099E+02 -1.32656E+04  6.09374E+03 -9.67519E+03  8.22611E+03 -1.67385E+03  1.23179E+03  3.98450E+03
 -6.53203E+03  5.82491E+02 -2.70221E+03 -4.39542E+03  9.87362E+02 -9.71607E+03  8.63208E+03 -9.43930E+03
  1.30322E+04 -4.51510E+03  1.17600E+04  3.36931E+03  9.55376E+03  8.96726E+03  4.88620E+03  1.42891E+04
 -2.44978E+03  1.64419E+04 -9.75905E+03  9.98308E+03 -1.15371E+04  2.53250E+03 -8.37041E+03 -1.72743E+03
 -5.68615E+03 -4.14241E+03 -8.27342E+02  2.18583E+03 -2.41888E+03  2.09124E+03 -4.45625E+03  3.66262E+03
 -7.72509E+03  3.63895E+02 -8.86648E+03 -7.76173E+03 -2.38565E+03 -1.11005E+04  4.00555E+03 -8.45450E+03
  6.78380E+03 -3.14357E+03  3.77238E+03  2.27666E+03 -9.89567E+01  3.37142E+03 -2.85338E+03 -1.00235E+03
 -3.39657E+03 -5.52023E+03 -2.75752E+02 -8.32817E+03  4.16505E+03 -7.57262E+03  9.58716E+03 -3.32539E+03
  1.13495E+04  1.30443E+03  9.60893E+03  5.47778E+03  2.52151E+03  8.82152E+03 -5.44648E+03  7.66332E+03
 -7.18590E+03  2.82526E+03 -5.12724E+03 -2.11023E+03  2.02145E+03 -1.93448E+03  4.47313E+03 -1.16669E+03
  4.50977E+03  2.98560E+03  1.99048E+03  5.73513E+03 -4.38856E+03  5.93563E+03 -8.78749E+03  1.68535E+03
 -4.90222E+03 -2.42531E+03 -7.20292E+02 -6.18867E+03  4.19934E+03 -3.62908E+03  3.68084E+03  1.87681E+03
  6.54122E+02  3.54682E+03 -4.33138E+03  4.30080E+03 -4.53630E+03  1.75707E+03 -2.95941E+03 -7.71109E+02
 -2.86839E+03 -5.63175E+03  1.28251E+03 -6.41643E+03  5.94176E+03 -4.58853E+03  6.43990E+03  1.51043E+03
  3.90948E+03  4.73898E+03 -1.00763E+03  6.40601E+03 -5.34453E+03  5.03330E+03 -4.12356E+03 -5.48722E+02
 -7.30246E+03 -5.29777E+03 -1.16191E+03 -3.81550E+03  2.10017E+03 -4.91970E+03  2.43130E+03 -2.94222E+03
  3.21691E+03 -9.27525E+01 -1.27560E+03  2.08012E+03  1.34492E+03  3.73712E+02 -1.37120E+03 -1.25156E+03
  2.91713E+03 -5.45585E+02  4.53434E+03  6.04930E+02  5.22769E+03  3.57118E+03  5.21870E+03  6.88209E+03
  2.76858E+02  8.97792E+03 -7.66399E+03  5.86722E+03 -8.86182E+03  7.70019E+02 -6.80643E+03 -2.92441E+03
 -5.06617E+03 -5.85778E+03 -3.29544E+02 -5.55955E+03  2.19113E+03 -2.14564E+03  3.38570E+02 -2.18135E+03
  1.94149E+02 -1.03352E+03  1.71012E+03 -1.81224E+03  2.45386E+03 -1.40570E+03  3.50035E+03 -6.73615E+02
  3.40179E+03  1.03436E+03  9.62356E+02  3.63039E+03 -2.10511E+03  2.68811E+03 -4.32811E+03  3.20755E+03
 -5.20455E+03 -1.38063E+02 -1.08863E+03 -3.20430E+03  2.85670E+02 -4.36139E+03  3.37837E+03 -4.70004E+03
  4.95382E+03 -3.51424E+03  6.09229E+03  4.16915E+02  4.94886E+03  3.68586E+03  1.36434E+03  5.38928E+03
 -2.37045E+03  5.77530E+03 -2.35675E+03  1.42491E+03 -7.56236E+02 -1.21259E+03 -9.79830E+02 -6.87414E+02
 -5.95203E+02  1.01517E+03  4.06708E+02  1.45456E+03 -2.79841E+03  1.38848E+03 -3.02480E+03 -4.52388E+02
 -9.37107E+02 -3.98291E+03  1.16317E+03 -3.82190E+03  2.24730E+03 -4.82909E+03  3.77979E+03 -1.63864E+03
  4.48485E+03  2.26622E+03  1.77602E+03  2.86044E+03 -7.93885E+02  3.98999E+03 -2.54189E+03  3.25565E+03
 -3.14416E+03  5.86856E+02 -3.27098E+03 -2.15000E+03 -4.00810E+02 -2.73214E+03  1.17761E+03 -3.02285E+03
  2.53061E+03 -7.01291E+02  1.53777E+03  3.77740E+02 -1.48072E+02  2.93142E+03  9.47354E+02  5.87765E+02
  1.23334E+03  4.77426E+02  1.71692E+03  1.16351E+03  4.62439E+02  2.76853E+03  2.10262E+03  1.44931E+03
 -1.14418E+03  2.84558E+03 -1.97912E+03  3.17520E+03 -3.13064E+03  1.52333E+03 -4.03006E+03 -3.85595E+02
 -1.46578E+03 -3.92115E+03  8.96983E+02 -4.94212E+03  1.13179E+03 -1.93566E+03  2.89263E+03 -9.87579E+02
  2.78108E+03  8.22478E+02  6.03109E+02  2.79026E+03 -8.30273E+02  4.84227E+02 -6.13645E+02 -7.26556E+02
 -5.34944E+02 -1.92868E+03  1.99832E+03 -1.71133E+03  1.82283E+03 -1.85778E+03  1.53917E+03  6.85255E+02
  1.26008E+03 -6.93215E+02  9.47445E+02 -1.61951E+01 -2.20416E+02  4.99433E+02  8.20943E+02 -6.09147E+02
  1.43581E+02  1.41446E+02  2.10768E+03 -1.64204E+02  7.85326E+02  1.55531E+03 -2.72425E+02  1.76042E+03
 -1.14533E+03  5.34738E+02 -1.66941E+03  1.50292E+02 -1.25709E+03 -9.77709E+02 -2.28399E+02 -3.74167E+02
  1.32997E+02 -1.47225E+02  9.94205E+02 -6.20933E+02  1.00380E+03  5.56402E+02  7.44866E+02  1.11410E+03
 -1.27787E+03  5.53325E+02 -1.23173E+02 -5.49127E+02 -2.15650E+01 -1.65811E+03  5.98916E+02 -1.43135E+03
  3.42156E+01 -4.86245E+02  3.30063E+02 -5.08809E+02  2.84848E+02 -3.59296E+02  1.29421E+03  1.32756E+03
 -4.27816E+02 -4.74271E+02 -1.67720E+03  2.00602E+02  5.17353E+02 -6.46512E+02  1.39773E+03 -1.16292E+03
  9.68568E+02  6.20946E+02  2.36077E+03 -1.18259E+02  2.04770E+03  1.38932E+03  8.25624E+02  5.88680E+02
 -1.51800E+03  3.27077E+02 -1.52101E+03  2.57560E+01 -1.36663E+03 -5.60077E+02  3.99645E+02  2.73872E+02
  1.47851E+03 -3.48116E+02  2.53217E+02  2.59636E+02  8.04592E+02  1.13515E+03 -1.85124E+02  1.63183E+03
  1.91038E+02  9.37808E+02 -7.24295E+02  4.99561E+02  1.00787E+03  7.36315E+02 -5.64791E+02  1.01513E+03
 -1.25317E+02  1.87286E+03 -3.38225E+03 -7.59059E-01 -1.36536E+03 -6.94685E+02 -3.08292E+03 -1.04722E+03
 -1.22397E+03 -1.97060E+03 -2.40024E+01 -2.52113E+03  3.43055E+02 -1.36468E+03  3.83140E+03 -1.07646E+03
  3.14497E+03 -8.92061E+02  1.57337E+03  1.11270E+03 -6.21464E+02  1.59143E+03 -9.70928E+02  1.40353E+03
 -5.50727E+02  1.60906E+03 -5.09514E+02 -3.13011E+02 -1.13375E+03  7.26133E+02 -5.27533E+02 -6.10399E+02
 -7.74802E+02 -6.23496E+02 -4.38990E+02  3.37063E+02 -1.31369E+02 -1.53831E+03 -1.00360E+03  6.38298E+02
  1.67004E+03  7.10959E+01 -5.39462E+02 -3.75373E+01  9.44295E+02  1.02719E+03 -9.25804E+02  1.74736E+03
 -9.50351E+02  1.38256E+03 -1.00587E+03  2.18698E+03 -1.67092E+03 -9.27503E+02 -1.25339E+01 -1.62791E+03
  2.38272E+02 -1.41010E+03 -1.72635E+02 -2.28755E+02  1.09117E+03  3.51968E+02  5.73031E+02  7.60099E+02
  2.06787E+02  4.60509E+02  5.98642E+02  9.99746E+01 -2.88776E+02 -3.80391E+02 -6.65045E+02 -8.26095E+02
  4.23707E+02  2.31697E+02  1.54662E+02  6.94811E+01 -5.17785E+02  2.19798E-01  3.84762E+02 -8.55760E+01
 -1.15169E+03  1.79037E+03 -3.89333E+02  8.97294E+01 -2.54930E+02 -3.16132E+02  4.37296E+02 -1.49012E+03
  1.23819E+03 -1.69466E+03  2.34132E+02 -3.26850E+02  2.08115E+02 -1.27510E+03  1.44512E+03  2.50490E+02
  1.70377E+03  7.88530E+01 -1.21675E+03  2.69626E+02 -3.90243E+02 -1.86669E+02  3.26573E+01 -1.51759E+02
  3.26305E+02  3.13976E+02 -3.70567E+01  3.54346E+02 -7.67684E+02  6.84841E+02 -1.14202E+03  7.41263E+02
 -1.18136E+03  3.83259E+02 -4.49099E+02 -1.39300E+03  8.38389E+02 -1.25333E+03  5.77430E+02 -1.29586E+01
  3.05759E+02  1.15150E+03 -9.68266E+02  5.32825E+02 -6.12953E+02  9.49471E+02 -1.04763E+02  9.72416E+02
