 $NMID ID='MM_0lb_SNR200_8hz_g45_2.RAW', FMTDAT='(8E13.5)'
 TRAMP=1., VOLUME=1. $END
  3.08659E+05  1.13804E+03  3.37150E+05  2.49868E+05  8.38855E+04  3.39630E+05 -1.32828E+05  2.52974E+05
 -1.89819E+05  8.35163E+04 -1.13222E+05 -3.26406E+04 -9.45294E+02 -5.06893E+04  5.38479E+04  1.06616E+02
  3.51781E+04  5.26310E+04 -1.68727E+04  7.80086E+04 -6.15657E+04  6.43432E+04 -8.45637E+04  3.19006E+04
 -8.39182E+04 -1.20580E+04 -5.78507E+04 -5.31838E+04 -1.39348E+04 -6.96785E+04  2.67503E+04 -4.70614E+04
  4.09935E+04  4.67585E+03  1.73780E+04  4.82758E+04 -3.57418E+04  4.81638E+04 -6.95737E+04  2.14813E+03
 -5.56282E+04 -5.55752E+04 -7.76707E+03 -7.90760E+04  3.42673E+04 -5.66461E+04  5.05284E+04 -1.89970E+04
  4.52124E+04  1.12191E+04  3.32865E+04  2.67399E+04  1.76529E+04  3.00825E+04 -6.74406E+03  2.80355E+04
 -2.41799E+04  1.29949E+04 -1.78552E+04 -4.96030E+03  7.30741E+03 -6.44664E+03  2.46436E+04  1.33619E+04
  6.92528E+03  3.62663E+04 -3.39984E+04  3.62353E+04 -6.55885E+04  2.82396E+03 -5.91421E+04 -4.38784E+04
 -1.33074E+04 -6.57227E+04  4.18142E+04 -4.72596E+04  6.20638E+04 -2.80677E+03  3.60824E+04  3.33060E+04
 -4.59499E+03  3.98507E+04 -3.19332E+04  2.07192E+04 -3.47450E+04 -3.57310E+03 -1.99684E+04 -1.32296E+04
 -9.57492E+03 -1.55427E+04 -1.49355E+03 -2.06743E+04  8.45024E+03 -2.33483E+04  1.52531E+04 -1.24355E+04
  1.05526E+04  6.56538E+03 -9.35728E+03  1.17983E+04 -2.40049E+04 -6.45581E+03 -7.65843E+03 -3.63855E+04
  2.47904E+04 -4.82311E+04  5.27903E+04 -2.19901E+04  4.98800E+04  2.11592E+04  1.75863E+04  4.73578E+04
 -1.64326E+04  3.65067E+04 -2.90685E+04  2.85026E+03 -1.10817E+04 -2.85847E+04  2.13036E+04 -3.61626E+04
  4.48113E+04 -1.12432E+04  4.13212E+04  2.35050E+04  2.03464E+04  5.17867E+04 -7.87221E+03  5.66910E+04
 -3.58194E+04  3.76097E+04 -4.86679E+04  1.12862E+04 -4.86759E+04 -1.83639E+04 -2.71848E+04 -4.20297E+04
  8.62709E+03 -4.18014E+04  3.52228E+04 -1.68916E+04  3.31079E+04  1.15910E+04  4.68340E+03  2.11753E+04
 -1.46271E+04  1.07768E+04 -1.05332E+04 -7.30270E+03  4.81706E+03 -1.25052E+04  1.92221E+04  5.53328E+03
  1.40272E+04  2.25284E+04 -6.09810E+03  2.77937E+04 -2.52385E+04  1.37153E+04 -3.26035E+04 -2.04922E+03
 -2.61499E+04 -1.98214E+04 -1.36289E+04 -2.67514E+04  4.05992E+03 -2.56834E+04  1.99071E+04 -2.36439E+04
  3.33794E+04 -1.22574E+04  3.81590E+04  2.96982E+03  2.63250E+04  2.36107E+04  4.41253E+03  4.12622E+04
 -1.98108E+04  3.35813E+04 -2.97556E+04  1.06944E+04 -2.17213E+04 -9.29914E+03 -4.14016E+03 -1.35758E+04
  1.18054E+03 -1.01762E+03 -1.00205E+04  8.15628E+03 -2.09377E+04  5.06532E+03 -1.95461E+04 -1.07911E+04
 -1.04999E+04 -2.43469E+04  5.65458E+03 -2.74051E+04  1.90473E+04 -1.79978E+04  2.31513E+04 -2.28794E+03
  1.60159E+04  1.63721E+04 -2.95578E+03  2.35616E+04 -1.60233E+04  1.41030E+04 -2.44347E+04 -4.83747E+03
 -1.78648E+04 -2.10944E+04 -3.04726E+03 -2.74741E+04  1.39789E+04 -2.41286E+04  2.39081E+04 -1.29011E+04
  2.22381E+04 -6.87319E+02  1.68088E+04  4.71482E+03  1.11016E+04  5.90154E+02  1.26829E+04 -1.80106E+03
  2.32795E+04  4.34816E+03  2.75155E+04  1.99915E+04  1.69952E+04  3.84237E+04 -2.74167E+03  4.66364E+04
 -2.62188E+04  3.82829E+04 -4.29794E+04  2.01653E+04 -4.64666E+04 -3.66062E+03 -3.64035E+04 -2.61453E+04
 -1.37499E+04 -3.83318E+04  1.40954E+04 -3.41538E+04  2.83557E+04 -1.54532E+04  2.57153E+04  8.65132E+03
  8.82920E+03  1.88186E+04 -1.21759E+04  1.70418E+04 -2.04233E+04  2.52811E+03 -1.65771E+04 -1.28232E+04
 -5.21186E+02 -1.98664E+04  9.56450E+03 -1.47482E+04  1.47159E+04 -9.98305E+02  3.83454E+03  9.17464E+03
 -8.88973E+03  3.70311E+03 -1.05327E+04 -6.66077E+03 -2.72771E+03 -1.77103E+04  1.15360E+04 -2.10977E+04
  2.29393E+04 -1.14245E+04  2.50283E+04  5.13935E+03  2.48685E+04  1.85312E+04  1.09926E+04  3.19800E+04
 -5.11606E+03  3.27102E+04 -2.20017E+04  2.07255E+04 -2.43282E+04  5.55242E+03 -1.52402E+04 -7.05769E+03
 -6.53884E+03 -7.27821E+03  1.24331E+02  2.24555E+02 -3.62346E+03  2.28228E+03 -7.47292E+03  6.54899E+03
 -1.58838E+04 -9.11615E+02 -1.71192E+04 -1.24950E+04 -6.31064E+03 -2.11614E+04  4.81201E+03 -1.65738E+04
  1.30103E+04 -5.04108E+03  1.12403E+04  3.34422E+03 -1.52857E+03  7.46297E+03 -8.76274E+03  8.07388E+02
 -7.41303E+03 -9.40505E+03 -3.41617E+02 -1.61733E+04  1.01875E+04 -1.61215E+04  2.04661E+04 -8.43311E+03
  2.59127E+04  3.66224E+03  1.87679E+04  1.59985E+04  3.17301E+03  1.96987E+04 -1.09377E+04  1.51130E+04
 -1.43436E+04  3.40380E+03 -5.65148E+03 -3.44174E+03  2.71986E+03 -4.94223E+03  9.47160E+03 -2.23575E+03
  7.96250E+03  6.67576E+03  1.39437E+03  1.22646E+04 -7.72295E+03  1.08481E+04 -1.67684E+04  3.25715E+03
 -1.13741E+04 -9.72317E+03 -1.66656E+03 -1.36962E+04  9.08615E+03 -5.39783E+03  1.08307E+04  3.75166E+03
  3.55874E+03  1.13627E+04 -9.92035E+03  1.14748E+04 -1.51057E+04  5.44838E+03 -1.37746E+04 -4.66039E+03
 -8.23625E+03 -1.77616E+04  4.09408E+03 -1.90036E+04  1.58264E+04 -1.20029E+04  1.76381E+04  2.71969E+03
  9.65655E+03  1.46222E+04 -1.19556E+03  1.50903E+04 -1.27019E+04  8.97589E+03 -1.18877E+04 -1.15050E+03
 -1.14691E+04 -1.06296E+04 -2.86679E+03 -1.19736E+04  5.02431E+03 -1.16843E+04  8.63148E+03 -3.61012E+03
  7.14810E+03  3.65851E+03 -2.16317E+03  2.60268E+03  1.23309E+03 -3.37617E+03  1.62219E+03 -9.89926E+03
  1.21384E+04 -6.47291E+03  1.83721E+04  1.75986E+03  1.61241E+04  9.95755E+03  1.17099E+04  2.14748E+04
 -4.02333E+03  2.56824E+04 -2.14253E+04  1.74951E+04 -2.66575E+04  3.98480E+03 -2.23941E+04 -9.60737E+03
 -1.28244E+04 -1.86093E+04 -1.72915E+03 -1.69492E+04  4.97310E+03 -6.86292E+03  7.26838E+03 -5.10274E+03
  4.60593E+03 -3.76698E+03  3.99541E+03 -4.69378E+03  6.29255E+03 -4.86507E+03  8.84771E+03 -3.04605E+03
  1.05783E+04  2.49369E+03  6.18763E+03  1.00016E+04 -3.97487E+03  1.27926E+04 -1.06139E+04  9.20765E+03
 -1.64809E+04 -2.26225E+03 -8.41260E+03 -1.11443E+04 -1.12551E+03 -1.75045E+04  9.84391E+03 -1.58703E+04
  1.93184E+04 -6.71967E+03  2.24308E+04  4.38214E+03  1.42090E+04  1.56917E+04  2.28716E+03  1.90327E+04
 -8.60522E+03  1.50020E+04 -1.14289E+04  4.19956E+03 -6.84813E+03 -1.93675E+03 -4.33362E+03 -1.98805E+03
 -4.61005E+02 -6.77173E+02 -2.76764E+03  2.99961E+03 -5.83573E+03  1.91017E+03 -8.92885E+03 -7.06224E+00
 -9.60746E+03 -1.10939E+04 -6.15517E+02 -1.64124E+04  1.13905E+04 -1.62474E+04  1.69744E+04 -6.42315E+03
  1.63684E+04  6.82332E+03  7.96803E+03  1.52051E+04 -1.60163E+03  1.62448E+04 -9.61360E+03  9.48058E+03
 -1.78073E+04  9.67872E+01 -1.10955E+04 -9.28007E+03 -2.28113E+03 -1.33853E+04  8.49463E+03 -8.71332E+03
  8.41167E+03 -3.11679E+03  8.21994E+03  2.70662E+03  2.25140E+03  5.23719E+03  4.51244E+02  4.06543E+03
  3.22175E+03  3.23338E+03  3.11506E+03  1.77070E+03  6.25011E+03  6.37183E+03  4.81357E+03  7.93492E+03
 -3.16737E+03  1.31460E+04 -1.18821E+04  1.37706E+04 -1.66282E+04  2.86154E+03 -1.73780E+04 -8.22797E+03
 -7.63456E+03 -1.68853E+04  2.41874E+03 -1.65092E+04  1.21395E+04 -1.26238E+04  1.25218E+04 -3.58366E+03
  1.08052E+04  5.36146E+03  3.20224E+03  9.29480E+03 -5.66029E+03  5.46038E+03 -6.79526E+03  8.66831E+02
 -2.68800E+03 -7.62809E+03  3.86237E+03 -6.39306E+03  5.77997E+03 -2.44672E+03  8.02798E+03 -1.20994E+02
  3.19595E+03  3.93875E+03 -8.44236E+01  3.71412E+03 -4.54746E+02  1.61343E+03  2.15130E+03 -1.71965E+03
  2.76645E+03 -2.92311E+02  7.27912E+03  3.45472E+03  4.65498E+03  8.34676E+03 -2.28892E+01  1.22745E+04
 -6.14452E+03  9.33149E+03 -1.15217E+04  2.81286E+03 -1.04406E+04 -4.16653E+03 -5.06559E+03 -8.16486E+03
  6.45015E+02 -7.13191E+03  5.99948E+03 -3.28597E+03  3.57980E+03  4.57217E+03 -2.44029E+03  4.98774E+03
 -6.54472E+03  2.64528E+03 -7.62660E+03 -4.52401E+03 -5.15915E+03 -1.06306E+04  2.28649E+03 -9.80568E+03
  7.49345E+03 -5.88433E+03  9.10267E+03 -3.28200E+02  5.21710E+03  1.37139E+03  2.22515E+03  4.18826E+03
 -5.65482E+03  1.07618E+03 -2.64013E+03 -3.38234E+03  6.39522E+02 -7.02907E+03  8.60336E+03 -6.49170E+03
  1.19406E+04  9.18198E+02  1.10760E+04  7.49428E+03  2.90076E+03  1.17190E+04 -4.42482E+03  8.65360E+03
 -8.31932E+03  5.14070E+03 -1.18429E+04 -7.54037E+02 -5.64822E+03 -7.03403E+03  1.30235E+03 -8.09210E+03
  5.15351E+03 -4.72305E+03  5.38100E+03  2.24604E+03  1.95484E+03  5.76878E+03 -2.60531E+03  4.55712E+03
 -2.28910E+03  1.64661E+03 -3.12330E+03  1.74329E+02 -9.39521E+02  1.33373E+02 -1.30112E+03  2.49669E+03
 -1.27787E+03  4.31874E+03 -7.42441E+03  3.78390E+03 -1.18206E+04  8.28241E+02 -1.47129E+04 -7.65588E+03
 -6.91845E+03 -1.48832E+04  3.02568E+03 -1.80736E+04  1.15304E+04 -1.35069E+04  1.79646E+04 -5.50907E+03
  1.43584E+04  2.32959E+03  1.06682E+04  1.21949E+04  1.96205E+03  9.74946E+03 -3.81714E+03  9.75709E+03
 -6.24690E+03  2.36931E+03 -4.32827E+03 -2.62125E+03 -1.39791E+03 -2.09018E+03  4.08953E+01  1.59003E+03
 -7.97502E+02  8.84076E+02 -1.37617E+03 -1.78293E+01 -1.17438E+03 -2.92243E+03 -1.34277E+03 -5.35685E+03
  3.85576E+03 -1.97586E+03  9.64462E+03  6.99389E+02  9.17016E+03  7.26136E+03  2.26540E+03  1.02334E+04
 -7.00760E+03  1.37052E+04 -1.24915E+04  8.30413E+03 -1.60190E+04  3.52282E+02 -1.20946E+04 -9.47952E+03
 -4.25948E+03 -1.18685E+04  4.13989E+03 -1.17470E+04  8.23421E+03 -6.16568E+03  9.48023E+03 -5.63817E+00
  5.36870E+03  3.75333E+03  1.20641E+02  3.60077E+03 -1.56550E+03  1.35805E+03  3.35457E+02 -1.28820E+03
  3.38456E+03 -2.84323E+03  3.71636E+03  6.34251E+02  3.45409E+03  4.14261E+03 -8.78227E+02  5.46198E+03
 -5.30658E+03  7.52173E+03 -7.31198E+03 -6.14294E+02 -6.43342E+03 -6.29759E+03 -1.95220E+03 -1.08284E+04
  6.74178E+03 -8.13522E+03  1.05144E+04 -4.54664E+03  1.04034E+04  3.88544E+03  6.91541E+03  6.39620E+03
 -6.60201E+02  9.33999E+03 -3.86098E+03  6.30352E+03 -3.89589E+03  4.40847E+03 -4.56327E+03 -1.48154E+02
 -2.36551E+03 -5.98622E+02 -2.93936E+03  2.21133E+03 -3.69967E+03  4.00884E+02 -5.63207E+03 -2.16335E+02
 -4.98333E+03 -5.88599E+03 -2.29841E+03 -7.72861E+03  4.38222E+03 -8.55568E+03  8.10078E+03 -4.51239E+03
  9.34380E+03  3.85116E+01  5.78394E+03  6.56714E+03 -1.54264E+03  7.56552E+03 -7.97472E+03  3.97944E+03
