 $NMID ID='MM_0lb_SNR200_15hz_g40_44.RAW', FMTDAT='(8E13.5)'
 TRAMP=1., VOLUME=1. $END
  3.10459E+05  2.46970E+02  3.37304E+05  2.49616E+05  8.42968E+04  3.37045E+05 -1.32701E+05  2.50766E+05
 -1.90073E+05  8.28480E+04 -1.10926E+05 -3.31972E+04  2.16162E+03 -5.06955E+04  5.38246E+04 -1.41128E+02
  3.54988E+04  5.33571E+04 -1.60258E+04  7.56565E+04 -6.09994E+04  6.41406E+04 -8.40895E+04  3.18713E+04
 -8.12517E+04 -1.09771E+04 -5.67171E+04 -5.04461E+04 -1.60334E+04 -6.95358E+04  2.74534E+04 -4.59216E+04
  3.84733E+04  3.69124E+03  1.61683E+04  4.64872E+04 -3.43633E+04  4.71170E+04 -6.52003E+04 -9.77352E+02
 -5.32164E+04 -5.62309E+04 -7.07780E+03 -7.46416E+04  3.39296E+04 -5.40053E+04  4.71263E+04 -1.62214E+04
  4.24712E+04  1.06910E+04  3.18858E+04  2.53555E+04  1.60208E+04  2.81579E+04 -4.98318E+03  2.66340E+04
 -2.18276E+04  1.26072E+04 -1.96373E+04 -5.25906E+03  5.88549E+03 -7.80687E+03  2.25450E+04  1.19194E+04
  7.44091E+03  3.51063E+04 -3.16027E+04  3.48130E+04 -6.26020E+04  1.75168E+03 -5.58659E+04 -4.08650E+04
 -1.30542E+04 -6.24242E+04  3.89232E+04 -4.34561E+04  5.67656E+04 -1.61591E+03  3.23801E+04  3.06248E+04
 -5.79312E+03  3.53162E+04 -2.87128E+04  1.56291E+04 -2.92695E+04 -4.88289E+03 -1.48952E+04 -1.11805E+04
 -8.19814E+03 -1.32503E+04 -1.17769E+03 -1.70907E+04  7.99877E+03 -2.23964E+04  1.54837E+04 -1.41947E+04
  1.20579E+04  6.36086E+03 -7.62257E+03  1.25540E+04 -2.12290E+04 -2.94400E+03 -6.80352E+03 -3.22020E+04
  2.19124E+04 -4.16157E+04  4.67197E+04 -1.94684E+04  4.33273E+04  1.83815E+04  1.57078E+04  4.30363E+04
 -1.56318E+04  3.30645E+04 -2.49178E+04  1.01913E+03 -9.41411E+03 -2.64708E+04  2.10505E+04 -3.21085E+04
  4.05216E+04 -7.66094E+03  3.39302E+04  2.22528E+04  1.60475E+04  4.46794E+04 -7.95587E+03  4.78669E+04
 -2.88120E+04  3.19488E+04 -3.96914E+04  9.30383E+03 -3.99289E+04 -1.50986E+04 -2.18667E+04 -3.58767E+04
  7.76828E+03 -3.72792E+04  3.02550E+04 -1.33413E+04  2.79696E+04  1.06236E+04  3.05668E+03  1.86064E+04
 -1.39580E+04  7.78407E+03 -1.01590E+04 -7.91498E+03  5.53915E+03 -1.03830E+04  1.68447E+04  6.02714E+03
  1.47257E+04  2.17503E+04 -5.38618E+03  2.46311E+04 -2.08804E+04  9.54864E+03 -2.62496E+04 -4.88735E+03
 -1.84216E+04 -1.51033E+04 -7.20554E+03 -1.94208E+04  3.16687E+03 -1.68941E+04  1.41970E+04 -1.74618E+04
  2.29543E+04 -1.30908E+04  2.95318E+04  3.76851E+03  2.27422E+04  1.73346E+04  5.04023E+03  3.45985E+04
 -1.77873E+04  2.88979E+04 -2.59615E+04  1.01231E+04 -2.05881E+04 -9.50505E+03 -4.81639E+03 -1.36476E+04
  2.49738E+03 -3.50121E+03 -3.57759E+03  5.74105E+03 -1.44759E+04  5.33691E+03 -1.50997E+04 -5.04640E+03
 -8.67989E+03 -1.69969E+04  4.81888E+03 -2.06438E+04  1.38592E+04 -1.48265E+04  1.70038E+04 -2.49177E+03
  1.00357E+04  1.17770E+04 -9.64402E+02  1.82334E+04 -1.19293E+04  9.37968E+03 -1.76120E+04 -3.03636E+03
 -1.30508E+04 -1.49327E+04 -1.02705E+03 -2.15754E+04  9.77889E+03 -1.78474E+04  1.82366E+04 -8.21866E+03
  1.61335E+04  1.36823E+02  1.06373E+04  3.33462E+03  5.48899E+03 -4.88756E+02  8.67464E+03 -9.16308E+02
  1.66627E+04  2.70294E+03  1.73499E+04  1.34926E+04  1.06007E+04  2.82496E+04 -1.91637E+03  3.12370E+04
 -1.85866E+04  2.53151E+04 -2.78694E+04  1.16288E+04 -3.11701E+04 -3.01624E+03 -2.44500E+04 -1.68309E+04
 -9.96269E+03 -2.43672E+04  8.74671E+03 -2.18838E+04  2.01838E+04 -1.30239E+04  1.77752E+04  4.39968E+03
  8.72452E+03  1.19929E+04 -7.54889E+03  1.06841E+04 -1.49521E+04  2.49139E+03 -1.09644E+04 -9.53944E+03
 -4.02340E+02 -1.36721E+04  6.24062E+03 -1.12360E+04  1.04268E+04 -7.57317E+02  1.89843E+03  5.34843E+03
 -6.69117E+03  2.71827E+03 -4.44884E+03 -5.15331E+03 -2.16200E+02 -1.29850E+04  9.48399E+03 -1.26360E+04
  1.49430E+04 -6.23530E+03  1.43238E+04  2.62625E+03  1.28334E+04  1.16031E+04  5.78987E+03  1.89186E+04
 -2.03812E+03  1.90835E+04 -1.25884E+04  1.32895E+04 -1.43022E+04  3.56278E+03 -9.99760E+03 -3.15096E+03
 -5.77795E+03 -3.34106E+03 -1.29765E+03  1.73525E+03 -2.25381E+03  1.86205E+03 -4.59477E+03  3.37848E+03
 -9.03880E+03 -1.32770E+03 -9.84713E+03 -9.16421E+03 -5.38589E+03 -1.32843E+04  4.16933E+03 -1.09332E+04
  9.49549E+03 -3.36073E+03  5.18043E+03  3.61591E+03  1.10164E+02  3.30224E+03 -4.82579E+03 -1.12858E+02
 -4.31282E+03 -5.43254E+03 -1.77697E+03 -8.77656E+03  5.50223E+03 -1.06641E+04  1.16017E+04 -4.77158E+03
  1.51514E+04  2.48215E+03  9.46336E+03  7.92062E+03  2.16588E+03  1.06844E+04 -6.45770E+03  1.01242E+04
 -8.77566E+03  3.27991E+03 -4.39027E+03 -1.37543E+03  9.39626E+01 -3.32690E+03  6.19864E+03 -1.64946E+03
  5.08619E+03  4.54828E+03  1.55484E+03  8.48761E+03 -6.69281E+03  8.60808E+03 -9.92200E+03  2.15924E+03
 -5.51197E+03 -4.28077E+03 -3.27759E+02 -8.42624E+03  5.90392E+03 -3.43924E+03  5.01672E+03  1.12346E+03
  1.44414E+03  4.82645E+03 -3.91108E+03  5.48196E+03 -7.01279E+03  3.01268E+03 -6.88240E+03 -3.21863E+03
 -4.44072E+03 -7.66360E+03  1.11394E+03 -9.85834E+03  7.26534E+03 -6.74068E+03  9.64346E+03  8.19181E+02
  6.25314E+03  8.37139E+03  2.85308E+02  9.70758E+03 -7.33546E+03  5.36203E+03 -6.99247E+03 -1.92398E+03
 -7.17930E+03 -6.97958E+03 -1.47668E+03 -6.47137E+03  3.63468E+03 -5.55100E+03  4.73192E+03 -3.48545E+03
  2.95899E+03  1.14260E+03  4.03753E+02  1.45073E+03  2.67516E+02 -9.53523E+01  2.87794E+02 -2.76126E+03
  4.51122E+03 -2.07146E+03  7.08634E+03  1.72190E+02  8.13581E+03  5.53271E+03  6.68121E+03  1.09272E+04
 -2.56058E+03  1.21043E+04 -1.03059E+04  9.21750E+03 -1.27292E+04  1.87872E+03 -9.82266E+03 -5.27294E+03
 -5.40184E+03 -7.81571E+03  4.26082E+01 -7.15290E+03  2.96829E+03 -2.44993E+03  2.37474E+03 -3.68378E+03
  2.18444E+03 -2.18367E+03  2.19722E+03 -2.62596E+03  2.98003E+03 -1.76588E+03  4.41456E+03  4.09718E+02
  6.08157E+03  7.66454E+02  2.34491E+03  4.46378E+03 -1.59275E+03  4.09022E+03 -6.59919E+03  3.85548E+03
 -8.15692E+03 -1.55552E+03 -3.30656E+03 -3.90900E+03 -2.67937E+02 -7.59561E+03  4.40175E+03 -8.84136E+03
  8.89232E+03 -4.20326E+03  9.81154E+03 -7.86890E+02  8.07569E+03  5.96167E+03  9.89634E+02  7.14022E+03
 -3.18777E+03  6.06696E+03 -5.06105E+03  1.71111E+03 -2.76867E+03 -8.12656E+02 -1.80719E+03 -8.12027E+02
  3.43657E+02  1.86062E+01 -1.11446E+03  1.48509E+03 -3.03141E+03  1.49726E+03 -3.86003E+03  6.76894E+02
 -1.48103E+03 -5.30091E+03  6.18120E+02 -6.17121E+03  4.56145E+03 -6.25773E+03  6.12820E+03 -1.63613E+03
  6.73712E+03  2.75114E+03  1.93414E+03  5.47865E+03 -1.40911E+03  6.81765E+03 -4.45220E+03  3.87648E+03
 -6.89315E+03  1.32021E+03 -4.86274E+03 -4.47152E+03 -2.05546E+03 -5.50618E+03  2.86231E+03 -3.29774E+03
  3.46205E+03 -1.29097E+03  2.77007E+03  9.97180E+02  6.51473E+02  1.42820E+03  1.66461E+03  1.01618E+03
  1.17630E+03  8.32227E+01  1.73356E+03  1.61695E+03  7.03745E+02  3.47852E+03  2.51057E+03  3.44669E+03
 -1.71537E+03  5.27840E+03 -3.19440E+03  5.14053E+03 -5.31258E+03  1.91354E+03 -5.59560E+03  2.59739E+02
 -3.61745E+03 -7.00891E+03  1.08552E+03 -7.70608E+03  2.71282E+03 -5.23684E+03  4.26793E+03 -2.25656E+03
  3.15349E+03  2.51142E+03  8.06773E+02  4.25004E+03 -2.34958E+02  1.53347E+03 -1.16056E+03 -8.88877E+02
 -2.64928E+03 -1.18345E+03  1.75694E+03 -3.12296E+03  3.56387E+03 -1.55869E+03  2.48789E+03  3.15272E+02
  8.42679E+01  5.20776E+02  4.17248E+02  1.34582E+03 -1.12413E+03  1.68946E+03  2.47690E+03 -6.87531E+02
  8.73890E+02  5.96341E+02  1.55207E+03  2.08877E+03  2.47196E+02  2.61274E+03 -1.69051E+02  4.73497E+03
 -2.47602E+03  2.16552E+03 -4.16120E+03  8.93346E+02 -3.04370E+03 -1.11198E+03 -1.29342E+03 -5.60839E+02
  6.19653E+02 -1.79592E+03  2.17254E+03 -7.94622E+02  1.72622E+03  6.23037E+02 -1.50603E+03  1.82340E+03
 -2.04633E+03  3.54070E+02 -2.49436E+03 -1.11855E+03 -7.81021E+02 -3.47997E+03  7.61854E+02 -3.98077E+03
  9.00043E+02 -1.40028E+03  1.81384E+03 -2.85674E+02  1.50906E+03 -3.92520E+02 -2.12394E+02  1.42696E+03
 -9.72182E+02 -4.25217E+02 -1.06160E+03 -5.04009E+02  1.38218E+03 -2.21437E+03  2.48181E+03 -1.10031E+03
  4.01926E+03  1.88832E+02  4.97952E+03  2.38046E+03  8.69542E+02  2.74339E+03 -1.23903E+03  2.99850E+03
 -2.23537E+03  5.50669E+02 -2.35216E+03 -1.69023E+02 -1.53055E+03 -2.08293E+03  7.79072E+02 -1.06141E+03
  2.68911E+03 -1.27942E+03  1.97699E+03  4.62138E+02 -5.77453E+01  1.58415E+03  2.69956E+02  2.05585E+03
 -6.02595E+02  2.02822E+03 -1.29975E+03 -1.07459E+02  1.60736E+03  6.61745E+02 -5.47010E+02  2.35173E+02
 -1.75570E+03  1.18136E+03 -3.05611E+03  4.08143E+02 -3.89877E+03  1.20267E+03 -4.06589E+03 -2.31450E+03
 -2.54584E+03 -4.66218E+03  4.82202E+02 -4.41804E+03  2.71795E+03 -4.74524E+03  5.54089E+03 -1.72694E+03
  3.70354E+03  1.53207E+03  2.27671E+03  3.55275E+03 -5.23283E+01  2.62809E+03 -1.09296E+03  3.12698E+03
 -1.67634E+03  3.41187E+02 -1.74267E+03 -1.41968E+02 -6.20027E+02 -8.28610E+02 -5.73103E+02 -1.55649E+02
 -5.76293E+02 -4.74716E+02  8.51142E+02  4.62037E+02 -1.72899E+02 -2.16027E+03 -4.17536E+02 -1.78602E+03
  1.30778E+03 -1.53781E+03  2.96488E+03  4.44755E+02  2.59587E+03  7.09510E+02  8.88045E+02  3.46669E+03
 -1.45218E+03  3.98371E+03 -3.55500E+03  2.75956E+03 -2.43498E+03 -8.16488E+02 -2.65272E+03 -2.51877E+03
 -1.07233E+03 -4.86160E+03  7.50806E+01 -1.55668E+03  1.67757E+03 -1.24028E+03  3.11686E+03  3.17067E+01
  9.35303E+02  8.59383E+02  3.56740E+02  3.84562E+02 -1.35210E+03 -1.23409E+02 -3.15784E+02 -1.27177E+03
  1.35371E+03  6.32172E+02  7.92933E+02  3.40309E+02  1.08799E+03  2.29325E+03  5.14340E+02  1.69875E+03
 -9.18373E+02  9.83995E+02 -2.54732E+03  1.08376E+03 -1.69730E+03 -4.44057E+02  3.06877E+02 -2.08285E+03
  1.63001E+03 -1.53414E+03  1.67608E+03  4.98489E+02  1.82512E+03  2.07518E+02  6.52146E+02  1.55505E+03
  5.74209E+02  1.60099E+03 -2.69917E+03  3.91591E+02 -1.03016E+03 -7.31237E+02 -7.42472E+02 -2.97647E+02
 -9.26068E+02 -5.09536E+02 -1.19604E+03  1.14096E+03 -1.43813E+03  1.19434E+03 -1.59756E+03 -7.77658E+02
 -2.09356E+03 -7.98417E+02 -2.54481E+03 -2.20092E+03  1.35905E+03 -3.20745E+03  1.09749E+03 -2.20650E+03
  2.69317E+03 -5.66040E+02  6.29213E+02  1.62496E+03 -1.19565E+02  6.31556E+02 -8.76165E+02  2.01346E+03
