 $NMID ID='MM_0lb_SNR200_14hz_g45_29.RAW', FMTDAT='(8E13.5)'
 TRAMP=1., VOLUME=1. $END
  3.10682E+05  3.59001E+02  3.37743E+05  2.50364E+05  8.52487E+04  3.37777E+05 -1.32085E+05  2.51278E+05
 -1.90619E+05  8.26281E+04 -1.13067E+05 -3.26043E+04  4.96584E+02 -5.10610E+04  5.44075E+04 -2.13961E+02
  3.62864E+04  5.21548E+04 -1.66441E+04  7.47017E+04 -6.06133E+04  6.29711E+04 -8.37336E+04  3.27605E+04
 -8.15171E+04 -1.14130E+04 -5.72014E+04 -5.08948E+04 -1.64587E+04 -6.93900E+04  2.63957E+04 -4.53493E+04
  3.86793E+04  4.18186E+03  1.60742E+04  4.76178E+04 -3.20409E+04  4.76629E+04 -6.65620E+04 -1.15937E+02
 -5.24738E+04 -5.65493E+04 -5.28186E+03 -7.71862E+04  3.40955E+04 -5.49621E+04  4.78090E+04 -1.63391E+04
  4.36839E+04  1.06818E+04  3.22373E+04  2.64050E+04  1.59388E+04  2.88291E+04 -5.95674E+03  2.71616E+04
 -2.27927E+04  1.22256E+04 -1.76643E+04 -5.18697E+03  6.01013E+03 -6.63194E+03  2.21506E+04  1.31486E+04
  7.49589E+03  3.56625E+04 -3.18063E+04  3.56120E+04 -6.31413E+04  2.71353E+03 -5.63337E+04 -4.33159E+04
 -1.23091E+04 -6.34586E+04  3.94827E+04 -4.56714E+04  5.84359E+04 -2.92056E+03  3.41272E+04  3.13235E+04
 -7.16064E+03  3.58390E+04 -3.06226E+04  1.53639E+04 -2.90836E+04 -4.86650E+03 -1.61287E+04 -1.03345E+04
 -8.00057E+03 -1.38449E+04 -1.40956E+03 -1.74719E+04  7.59872E+03 -2.27785E+04  1.54660E+04 -1.36695E+04
  1.15119E+04  4.90911E+03 -8.87206E+03  1.20786E+04 -2.19076E+04 -4.26891E+03 -8.54487E+03 -3.34728E+04
  2.25449E+04 -4.38234E+04  4.79915E+04 -1.90255E+04  4.44324E+04  1.80451E+04  1.63157E+04  4.34414E+04
 -1.57271E+04  3.22215E+04 -2.57492E+04  1.55221E+03 -9.87680E+03 -2.81934E+04  2.10344E+04 -3.31080E+04
  3.93024E+04 -9.68550E+03  3.33972E+04  2.31321E+04  1.82904E+04  4.62019E+04 -7.65931E+03  5.06732E+04
 -3.16818E+04  3.42366E+04 -4.06511E+04  8.80562E+03 -4.14019E+04 -1.81320E+04 -2.38611E+04 -3.61728E+04
  7.81125E+03 -3.81395E+04  3.07934E+04 -1.51456E+04  2.85593E+04  1.17160E+04  3.17848E+03  2.00926E+04
 -1.27500E+04  7.47497E+03 -1.04661E+04 -8.41634E+03  5.28481E+03 -1.07616E+04  1.73585E+04  4.62528E+03
  1.32247E+04  2.15283E+04 -6.73209E+03  2.58731E+04 -2.27899E+04  1.15882E+04 -2.73405E+04 -5.13922E+03
 -1.98935E+04 -1.73435E+04 -8.97116E+03 -2.14409E+04  4.76600E+03 -1.86070E+04  1.54354E+04 -1.70983E+04
  2.49602E+04 -1.16758E+04  3.33900E+04  1.51659E+03  2.37068E+04  1.94710E+04  4.66748E+03  3.78444E+04
 -1.85147E+04  2.96983E+04 -2.75550E+04  1.02146E+04 -1.98655E+04 -9.84935E+03 -5.43558E+03 -1.34693E+04
  1.44409E+03 -3.36522E+03 -2.98594E+03  6.86502E+03 -1.68356E+04  4.90916E+03 -1.61443E+04 -6.66236E+03
 -9.60742E+03 -1.81882E+04  5.52758E+03 -2.30697E+04  1.53186E+04 -1.66745E+04  1.85545E+04 -4.53948E+02
  1.17382E+04  1.31796E+04 -7.61968E+02  1.93797E+04 -1.24507E+04  9.76040E+03 -1.89577E+04 -4.07230E+03
 -1.34769E+04 -1.72875E+04 -7.15808E+02 -2.38118E+04  1.10746E+04 -1.72639E+04  1.75121E+04 -7.40320E+03
  1.76453E+04  1.01466E+03  1.29070E+04  3.84557E+03  6.71176E+03  2.50747E+03  9.65959E+03 -2.94286E+03
  1.75775E+04  2.48652E+03  1.87845E+04  1.42528E+04  1.14947E+04  2.92056E+04 -2.70648E+03  3.42426E+04
 -2.02713E+04  2.73694E+04 -3.16725E+04  1.43514E+04 -3.24485E+04 -2.58348E+03 -2.81644E+04 -1.85145E+04
 -1.10093E+04 -2.71303E+04  9.98769E+03 -2.47211E+04  1.96953E+04 -1.13863E+04  1.95870E+04  4.51771E+03
  5.95642E+03  1.36739E+04 -8.85980E+03  1.22500E+04 -1.57381E+04  1.99740E+03 -1.16671E+04 -9.99196E+03
 -9.51623E+02 -1.49022E+04  8.35879E+03 -1.10873E+04  9.66112E+03 -1.39833E+03  2.71394E+03  6.74823E+03
 -7.54557E+03  1.48924E+03 -5.10536E+03 -6.05282E+03 -4.20513E+02 -1.41723E+04  9.57949E+03 -1.43681E+04
  1.75876E+04 -7.00077E+03  1.70205E+04  2.60249E+03  1.40709E+04  1.33785E+04  8.60922E+03  2.09972E+04
 -3.49663E+03  2.12190E+04 -1.40540E+04  1.34750E+04 -1.54177E+04  3.83503E+03 -1.13029E+04 -3.37982E+03
 -4.85762E+03 -5.06899E+03 -1.07794E+03  2.33455E+03 -2.50695E+03  2.46460E+03 -5.78694E+03  5.82019E+03
 -8.99592E+03 -9.79286E+02 -1.09540E+04 -7.76425E+03 -3.94569E+03 -1.40101E+04  3.43174E+03 -1.06746E+04
  8.82183E+03 -4.10789E+03  7.75486E+03  3.21926E+03 -8.48823E+02  3.19715E+03 -5.38924E+03  4.54921E+02
 -4.28738E+03 -7.22960E+03 -2.21761E+03 -1.00886E+04  7.94374E+03 -1.06613E+04  1.26977E+04 -6.59545E+03
  1.57814E+04  1.22871E+03  1.25011E+04  9.63608E+03  2.47595E+03  1.32877E+04 -6.87061E+03  1.14238E+04
 -9.03110E+03  3.71647E+03 -5.41664E+03 -1.67682E+03  1.66783E+03 -3.73272E+03  5.85497E+03 -9.31008E+02
  6.15113E+03  5.15010E+03  1.92384E+03  8.67788E+03 -6.40012E+03  9.47008E+03 -1.06344E+04  2.27218E+03
 -5.85399E+03 -5.06755E+03  3.47683E+02 -8.48662E+03  5.13324E+03 -5.13945E+03  5.95442E+03  1.67593E+03
  8.32966E+01  6.69312E+03 -5.41537E+03  6.70502E+03 -8.10749E+03  3.71976E+03 -8.87762E+03 -2.75197E+03
 -4.76682E+03 -8.95044E+03  1.19308E+03 -1.17506E+04  9.20902E+03 -7.74752E+03  9.52673E+03  1.36736E+03
  6.10689E+03  8.07003E+03 -3.98852E+02  1.12804E+04 -7.94535E+03  6.45805E+03 -8.45961E+03 -9.51563E+01
 -6.89413E+03 -7.53973E+03 -1.65328E+03 -7.62083E+03  3.79714E+03 -5.70283E+03  3.91289E+03 -2.47403E+03
  3.32070E+03  8.00760E+02 -1.19886E+02  1.25890E+03 -1.12889E+03 -2.49714E+03  1.80605E+03 -4.96422E+03
  7.39237E+03 -1.76693E+03  9.25458E+03  1.71281E+03  9.95036E+03  6.26850E+03  7.85145E+03  1.18686E+04
 -2.78337E+03  1.34000E+04 -1.23927E+04  1.13280E+04 -1.46903E+04  1.54127E+03 -1.28548E+04 -4.71351E+03
 -7.89096E+03 -9.70691E+03  6.07677E+02 -8.54218E+03  3.30178E+03 -4.50366E+03  2.93972E+03 -2.64987E+03
  2.03315E+03 -3.17670E+03  3.39599E+03 -3.18063E+03  4.54457E+03 -1.86687E+03  5.12568E+03 -4.37162E+02
  6.73139E+03  9.55555E+02  4.26667E+03  5.15150E+03 -2.80101E+03  6.21851E+03 -5.81364E+03  4.71904E+03
 -8.08304E+03 -7.35812E+02 -4.45229E+03 -4.62351E+03 -7.72285E+02 -8.27366E+03  5.25002E+03 -7.73507E+03
  9.40515E+03 -5.30537E+03  1.12675E+04  5.68647E+02  8.40992E+03  7.74366E+03  1.47626E+03  1.01840E+04
 -2.72284E+03  8.16048E+03 -6.53332E+03  3.37866E+03 -2.54189E+03 -1.97000E+03 -1.70803E+03 -9.23340E+02
  3.41668E+02 -1.95341E+01 -1.83096E+03  2.55302E+03 -2.63253E+03  1.63065E+03 -4.90050E+03 -5.48690E+02
 -3.55423E+03 -5.93614E+03  1.19051E+03 -7.51708E+03  4.76769E+03 -7.33565E+03  7.00236E+03 -2.69154E+03
  7.42030E+03  3.39542E+03  3.43282E+03  6.86236E+03 -1.26523E+03  8.69254E+03 -5.66129E+03  4.20496E+03
 -6.83351E+03  1.87599E+02 -6.65597E+03 -4.26693E+03  1.36445E+02 -6.46458E+03  3.17809E+03 -5.43598E+03
  3.75982E+03 -2.41318E+03  4.12488E+03  1.40343E+03  1.81286E+03  2.87030E+03  7.85750E+00  1.64319E+03
  1.37467E+03  6.08384E+02  1.88924E+03  4.05459E+02  2.98244E+03  3.45051E+03  1.05113E+03  4.60726E+03
 -1.99318E+03  7.53911E+03 -3.85351E+03  7.11804E+03 -7.20915E+03  1.94495E+03 -7.73665E+03 -2.58603E+03
 -4.07211E+03 -7.65115E+03  1.19722E+03 -8.36105E+03  3.74267E+03 -4.29026E+03  5.74146E+03 -1.07153E+03
  4.24307E+03  4.06149E+03  1.38553E+03  4.06309E+03 -1.55942E+03  3.20992E+03 -2.67723E+03  1.43874E+02
 -2.14797E+03 -1.97035E+03  2.79906E+03 -2.98157E+03  2.93435E+03 -2.55881E+03  3.04220E+03  1.18762E+03
  2.15539E+03  2.14681E+03  1.68392E+03  2.44030E+03 -2.00776E+03  7.91463E+02  1.40454E+03  2.43486E+02
  4.84980E+02  2.32010E+01  3.25588E+03  1.57406E+03  7.05556E+01  3.94441E+03 -5.71050E+02  5.14662E+03
 -2.95498E+03  2.92895E+03 -3.67398E+03  1.12011E+03 -4.06075E+03 -2.21835E+03 -8.72331E+02 -2.10771E+03
  4.64749E+02 -4.62811E+03  9.70205E+02 -1.85417E+03  1.02521E+03  7.09011E+02 -5.80256E+02  2.06989E+03
 -3.69363E+03  1.59494E+03 -2.66768E+03  9.52275E+01 -1.42703E+03 -4.84477E+03 -2.15130E+02 -3.04335E+03
  1.28686E+03 -2.01936E+03  2.18694E+03 -8.14371E+02  1.66304E+03  7.79120E+02  1.09649E+03  2.80994E+03
 -6.02830E+02 -3.36550E+02 -2.44586E+03 -9.93610E+02  1.86714E+03 -1.94248E+03  3.16367E+03 -3.24235E+03
  4.74884E+03  6.21037E+02  4.73276E+03  2.52561E+03  2.84701E+03  3.35033E+03 -1.11730E+03  5.54145E+03
 -3.99504E+03  2.01350E+03 -3.30760E+03 -1.50421E+03 -3.13109E+03 -1.76947E+03  1.08458E+03 -2.12906E+03
  3.47909E+03 -1.07265E+03  1.67352E+03  2.67255E+02  1.03663E+03  2.01321E+03 -1.16059E+03  1.80016E+03
 -4.89917E+02  3.16593E+03 -4.14894E+02  2.10893E+02 -1.30916E+03  7.44123E+02 -7.22146E+02  7.45949E+01
 -1.11039E+03  2.72214E+03 -1.94952E+03  2.40113E+03 -4.05697E+03 -2.06577E+02 -5.08987E+03 -2.26091E+03
 -1.46853E+03 -6.16387E+03  4.38030E+02 -6.22488E+03  3.81342E+03 -4.31656E+03  5.09440E+03 -1.91438E+03
  4.35695E+03  1.24000E+03  2.71130E+03  3.21944E+03 -3.69534E+01  3.45653E+03 -2.94752E+03  3.38641E+03
 -2.35871E+03  1.67925E+03 -1.41210E+03 -1.65792E+03 -2.39155E+03  2.43428E+02 -8.53306E+02  2.86273E+02
 -1.54383E+03  1.07173E+02 -9.36346E+02 -2.42682E+02  8.37947E+02 -1.93295E+03  3.95588E+01 -2.71065E+03
  2.25545E+03 -8.08969E+02  2.68035E+03 -5.42940E+02  3.69954E+03  2.74508E+03 -3.75259E+02  4.11601E+03
 -1.54099E+03  4.13393E+03 -4.53155E+03  2.54643E+03 -4.03629E+03 -6.94365E+01 -3.77792E+03 -2.44358E+03
 -1.29258E+03 -4.10754E+03  9.30097E+02 -4.12740E+03  1.92519E+03 -2.99136E+03  2.86454E+03 -1.31162E+02
  8.59287E+02  2.17672E+03 -2.67010E+02 -3.28942E+02 -1.85776E+02 -3.82692E+02  5.13602E+02 -1.82035E+03
  9.57392E+02 -4.63521E+02  1.97121E+03 -9.43122E+01  1.65929E+03  1.89740E+03  4.03505E+02  1.78570E+03
 -2.67685E+03  2.32421E+03 -8.29895E+02  6.13229E+02 -1.35100E+03 -1.39089E+03 -3.42004E+02 -2.58504E+03
  1.72132E+03 -3.15127E+03  2.84299E+03 -9.34954E+02  3.38557E+03 -1.19071E+03  1.44586E+03  1.13491E+03
  1.20823E+03  2.78479E+03 -1.99889E+03  2.47114E+03 -2.85212E+03  5.70426E+01 -4.71562E+02  3.81909E+02
  7.11562E+02 -6.10386E+02 -1.43733E+03  3.09465E+02 -1.35855E+03 -2.83021E+01 -2.11896E+03 -1.14977E+03
 -2.52806E+03 -4.04195E+02 -1.11496E+03 -4.15586E+03  1.86594E+03 -4.33739E+03  1.68138E+03 -9.79236E+02
  1.93236E+03 -8.64688E+02  1.01657E+03  1.36290E+03 -7.79610E+02  1.87113E+03 -9.19544E+02  1.52331E+03
