 $NMID ID='MM_0lb_SNR200_14hz_g50_32.RAW', FMTDAT='(8E13.5)'
 TRAMP=1., VOLUME=1. $END
  3.10701E+05  2.01509E+02  3.37045E+05  2.50152E+05  8.45728E+04  3.38034E+05 -1.33440E+05  2.50498E+05
 -1.91002E+05  8.32057E+04 -1.10925E+05 -3.38193E+04 -4.31175E+02 -5.04972E+04  5.47905E+04 -7.73124E+01
  3.53108E+04  5.12079E+04 -1.74513E+04  7.50642E+04 -6.11042E+04  6.40741E+04 -8.31196E+04  3.30734E+04
 -8.17251E+04 -1.10970E+04 -5.68130E+04 -5.05087E+04 -1.53518E+04 -6.93305E+04  2.66338E+04 -4.65120E+04
  4.02753E+04  2.92277E+03  1.65045E+04  4.74150E+04 -3.42558E+04  4.82938E+04 -6.63861E+04 -1.96342E+02
 -5.29645E+04 -5.64128E+04 -8.53050E+03 -7.80083E+04  3.50789E+04 -5.55872E+04  4.68668E+04 -1.68422E+04
  4.28111E+04  1.19025E+04  3.16869E+04  2.50391E+04  1.62115E+04  2.88143E+04 -4.30333E+03  2.70939E+04
 -2.31404E+04  1.18524E+04 -1.86754E+04 -5.90616E+03  5.26832E+03 -7.63171E+03  2.24792E+04  1.17195E+04
  6.43057E+03  3.55021E+04 -3.28981E+04  3.43132E+04 -6.32074E+04  2.68131E+03 -5.68415E+04 -4.28719E+04
 -1.30704E+04 -6.28742E+04  4.02369E+04 -4.53337E+04  5.99400E+04 -1.92279E+03  3.49396E+04  3.26109E+04
 -6.56834E+03  3.60898E+04 -2.88269E+04  1.64266E+04 -2.98096E+04 -4.45004E+03 -1.67246E+04 -1.11678E+04
 -8.34790E+03 -1.30688E+04 -1.28650E+03 -1.86842E+04  8.05127E+03 -2.30338E+04  1.59086E+04 -1.33243E+04
  1.23680E+04  6.93424E+03 -7.33747E+03  1.35397E+04 -1.91685E+04 -3.15107E+03 -8.19286E+03 -3.48663E+04
  2.13389E+04 -4.32429E+04  4.82776E+04 -2.03400E+04  4.56932E+04  1.88626E+04  1.57502E+04  4.26393E+04
 -1.53161E+04  3.43766E+04 -2.54666E+04  1.30531E+03 -9.66322E+03 -2.76135E+04  2.15180E+04 -3.43956E+04
  4.11431E+04 -9.87975E+03  3.64315E+04  2.39768E+04  1.68344E+04  4.56974E+04 -8.87612E+03  5.16702E+04
 -3.16228E+04  3.43493E+04 -4.19544E+04  1.01218E+04 -4.34764E+04 -1.53306E+04 -2.26783E+04 -3.93562E+04
  6.81519E+03 -3.81912E+04  3.09107E+04 -1.54484E+04  2.89307E+04  1.07156E+04  3.89706E+03  1.81369E+04
 -1.38535E+04  9.73106E+03 -1.00698E+04 -5.99460E+03  5.71045E+03 -1.10676E+04  1.81366E+04  6.25591E+03
  1.33378E+04  2.12662E+04 -5.48880E+03  2.51645E+04 -2.20853E+04  1.07714E+04 -2.82928E+04 -6.21474E+03
 -2.05226E+04 -1.81546E+04 -8.16357E+03 -2.09803E+04  4.15761E+03 -1.90253E+04  1.61645E+04 -1.70038E+04
  2.72336E+04 -1.25912E+04  3.31725E+04  3.79113E+03  2.40513E+04  1.96738E+04  5.15871E+03  3.73649E+04
 -1.70405E+04  3.07363E+04 -2.75875E+04  1.06366E+04 -2.07188E+04 -1.13978E+04 -4.19873E+03 -1.29129E+04
  2.40674E+03 -2.65122E+03 -4.70479E+03  6.54091E+03 -1.72389E+04  5.87049E+03 -1.81571E+04 -7.68334E+03
 -1.09500E+04 -1.99325E+04  5.90072E+03 -2.38916E+04  1.41449E+04 -1.73816E+04  1.74662E+04 -3.13530E+02
  1.14388E+04  1.22458E+04 -1.59647E+02  1.82603E+04 -1.38686E+04  1.16977E+04 -1.93229E+04 -4.81007E+03
 -1.36209E+04 -1.69023E+04 -6.83544E+02 -2.30723E+04  1.05986E+04 -1.91063E+04  1.91381E+04 -8.51613E+03
  1.67383E+04  9.44046E+02  1.31160E+04  3.49688E+03  6.66516E+03  1.63138E+03  8.90704E+03 -2.19015E+03
  1.66598E+04  4.41763E+03  1.93011E+04  1.58234E+04  1.27360E+04  3.04920E+04 -2.29675E+03  3.42637E+04
 -1.92545E+04  2.75463E+04 -3.20637E+04  1.28127E+04 -3.23833E+04 -2.89934E+03 -2.88432E+04 -1.81187E+04
 -1.10996E+04 -2.67891E+04  9.04309E+03 -2.49092E+04  2.14634E+04 -1.19814E+04  1.98036E+04  5.06925E+03
  6.76606E+03  1.47460E+04 -9.02817E+03  1.15190E+04 -1.61359E+04  2.49453E+03 -1.24703E+04 -1.02838E+04
 -1.01278E+03 -1.51401E+04  8.58197E+03 -1.19404E+04  9.04360E+03 -1.89555E+03  2.05901E+03  6.45836E+03
 -6.22474E+03  3.09430E+03 -5.94541E+03 -5.93672E+03 -1.48902E+03 -1.32152E+04  1.02133E+04 -1.41450E+04
  1.82308E+04 -8.66299E+03  1.84718E+04  3.82808E+03  1.58516E+04  1.26128E+04  8.03430E+03  1.98174E+04
 -3.21133E+03  2.25343E+04 -1.37236E+04  1.35871E+04 -1.57954E+04  3.50031E+03 -1.22609E+04 -5.20028E+03
 -5.67181E+03 -5.17023E+03 -4.58930E+02  1.93847E+03 -2.71244E+03  2.64070E+03 -5.78725E+03  4.79025E+03
 -1.11229E+04 -1.33328E+02 -1.14479E+04 -8.91619E+03 -4.96777E+03 -1.55491E+04  3.85672E+03 -1.10470E+04
  1.07941E+04 -4.32393E+03  6.34499E+03  3.75890E+03 -6.09919E+01  5.07738E+03 -5.64955E+03 -8.53322E+02
 -5.49452E+03 -7.65892E+03 -4.53824E+02 -1.02771E+04  5.59699E+03 -9.80749E+03  1.50976E+04 -7.07513E+03
  1.77021E+04  1.30677E+03  1.27245E+04  9.52930E+03  1.12300E+03  1.29529E+04 -6.05704E+03  1.16333E+04
 -8.78968E+03  3.00576E+03 -4.64738E+03 -2.57470E+03  1.71210E+03 -2.39514E+03  5.97463E+03 -1.36288E+03
  5.74284E+03  5.35841E+03  1.41285E+03  8.32421E+03 -6.45728E+03  8.61498E+03 -1.19611E+04  1.80409E+03
 -6.59573E+03 -5.07801E+03  1.69976E+03 -9.66290E+03  5.11661E+03 -3.66694E+03  6.86889E+03  1.78305E+03
  1.36925E+03  5.89430E+03 -4.51228E+03  7.13950E+03 -8.95863E+03  3.17745E+03 -8.28521E+03 -2.19745E+03
 -5.24279E+03 -9.38798E+03  2.69563E+03 -1.08501E+04  9.47137E+03 -6.69321E+03  1.02425E+04  2.08685E+03
  6.98338E+03  9.73371E+03 -5.42937E+02  1.10626E+04 -7.34519E+03  6.02714E+03 -8.19358E+03 -1.01956E+03
 -7.85081E+03 -7.29687E+03 -1.48940E+03 -7.20035E+03  4.12928E+03 -6.95647E+03  5.36493E+03 -3.58752E+03
  3.05627E+03  1.58088E+03  4.06749E+02  1.44298E+03  6.36906E+02 -1.87047E+03  2.30064E+03 -4.07171E+03
  6.20383E+03 -2.24065E+03  1.01368E+04  6.14795E+02  8.90123E+03  5.58403E+03  6.35516E+03  1.19182E+04
 -2.77761E+03  1.37709E+04 -1.23443E+04  1.09416E+04 -1.64396E+04  1.22814E+03 -1.25937E+04 -4.69986E+03
 -6.79086E+03 -1.04265E+04 -2.52230E+02 -9.41702E+03  3.80257E+03 -4.07560E+03  2.77524E+03 -3.24788E+03
  2.38543E+03 -1.41459E+03  2.24141E+03 -2.33042E+03  4.15755E+03 -2.49913E+03  4.18763E+03 -2.03852E+02
  6.99522E+03  1.48584E+03  2.72696E+03  5.92555E+03 -1.69100E+03  6.12289E+03 -6.39243E+03  4.10003E+03
 -9.45920E+03 -1.51754E+03 -5.11094E+03 -6.39934E+03 -1.86876E+02 -8.03862E+03  4.41414E+03 -8.83379E+03
  1.00824E+04 -4.49221E+03  1.11086E+04  2.10634E+02  9.68482E+03  7.38051E+03  1.29689E+03  1.04267E+04
 -4.10586E+03  9.19138E+03 -7.33074E+03  2.59620E+03 -3.40144E+03 -2.13479E+03 -1.52653E+03 -1.85786E+03
 -1.10483E+03  6.56628E+02 -1.23577E+03  2.89913E+03 -5.28243E+03  9.27206E+02 -7.65997E+03 -7.90503E+02
 -2.88517E+03 -5.86143E+03  1.18118E+02 -8.10645E+03  4.70007E+03 -7.75616E+03  6.05096E+03 -1.46546E+03
  8.69733E+03  4.72494E+03  3.37217E+03  6.96391E+03 -2.78700E+03  8.88041E+03 -5.34041E+03  4.62528E+03
 -8.08693E+03  2.29878E+03 -5.82700E+03 -5.85838E+03 -1.12635E+03 -6.64116E+03  3.29154E+03 -3.73890E+03
  5.47619E+03 -2.61722E+03  2.25213E+03  1.82532E+03  7.17078E+02  2.77396E+03  8.78045E+02  2.09229E+03
  1.48038E+03  1.30872E+03  3.04385E+03  2.20274E+03  2.34689E+03  2.58016E+03  2.43989E+03  2.96782E+03
 -1.92369E+03  7.56134E+03 -4.52014E+03  6.51192E+03 -7.51475E+03  1.98922E+03 -9.84401E+03 -4.06838E+03
 -3.83225E+03 -7.24894E+03 -3.41322E+02 -7.46953E+03  4.76670E+03 -4.09188E+03  7.39285E+03 -2.61926E+03
  5.01424E+03  1.71842E+03  1.24579E+03  4.25181E+03 -1.71533E+03  2.28403E+03 -3.29635E+03  4.48523E+02
 -2.19972E+03 -4.01518E+03  1.47075E+03 -2.76793E+03  2.17681E+03 -1.10015E+03  2.83379E+03  9.32455E+02
  1.30061E+03  1.52913E+02  1.58168E+03 -1.02375E+03 -9.90925E+02  1.16646E+03  2.47022E+03 -7.10568E+01
  2.58867E+02  3.16810E+02  4.00174E+03  9.24629E+02  2.52324E+03  4.73204E+03  3.11866E+02  6.07376E+03
 -4.03413E+03  2.94917E+03 -4.50281E+03  1.45252E+03 -3.72951E+03 -1.58140E+03 -2.08637E+03 -2.83170E+03
  1.21944E+03 -2.38583E+03  4.48931E+02 -2.37612E+03  7.52247E+02  2.87217E+03 -3.90602E+02  2.59819E+03
 -2.96688E+03  2.05007E+03 -3.51592E+03 -2.79000E+03 -2.94026E+03 -3.49526E+03  1.27808E+03 -3.91369E+03
  1.64464E+03 -1.72093E+03  2.73194E+03  1.57069E+02  3.19411E+03  9.69919E+02 -6.87918E+02  2.43354E+03
 -2.75317E+03 -6.57470E+01 -2.51443E+03  6.32326E+02  6.10014E+02 -4.64425E+03  3.49141E+03 -2.58800E+03
  3.89987E+03  6.94251E+02  4.03991E+03  2.35295E+03 -2.14389E+01  4.44029E+03 -1.27777E+03  4.18070E+03
 -3.09721E+03  2.07631E+03 -3.28864E+03 -2.15660E+02 -2.04839E+03 -2.71134E+03  4.34243E+02 -1.84602E+03
  4.35456E+03 -1.37949E+03  1.68856E+03  1.90246E+03  1.24949E+03  3.17357E+03 -1.29688E+03  2.26807E+03
 -1.57250E+03  1.86702E+03 -1.91258E+02  6.16758E+02 -1.00465E+02  7.70111E+02 -1.35306E+03  6.36791E+02
 -1.89978E+03  2.42401E+03 -3.92333E+03  1.68470E+03 -4.55954E+03  7.37429E+02 -5.29877E+03 -2.08897E+03
 -3.17635E+03 -5.20633E+03  2.01662E+03 -6.99365E+03  2.90638E+03 -5.40195E+03  6.60667E+03 -6.61394E+02
  5.80691E+03  1.13807E+03  3.07094E+03  3.42523E+03 -1.69742E+03  3.02678E+03 -1.11151E+03  4.19233E+03
 -1.72926E+03  1.51299E+03 -1.58096E+03  8.70413E+02 -1.32012E+03  1.36926E+03 -1.72839E+03  2.41402E+02
 -1.92169E+01 -8.35373E+02 -1.15107E+03 -5.21661E+02  4.95601E+02 -7.42966E+02 -5.23665E+02 -2.00821E+03
  1.07470E+03 -1.62750E+03  2.00947E+03 -3.88538E+02  3.15040E+03  2.53791E+03  1.42639E+02  5.08607E+03
 -1.57540E+03  4.36667E+03 -4.87707E+03  2.06250E+03 -4.16205E+03 -4.94727E+01 -4.15334E+03 -2.78828E+03
 -1.32827E+03 -2.78482E+03  1.48220E+03 -3.07443E+03  1.34461E+03 -1.67350E+03  1.57747E+03  5.02933E+02
  2.21374E+03  1.13382E+03 -1.21965E+03  7.30696E+02 -7.11530E+02  1.18405E+01 -6.29341E+02 -6.10579E+02
  3.31199E+02 -5.80345E+02  9.74901E+01  1.63674E+03  6.19923E+02  2.24814E+03  7.81607E+02  1.13390E+03
 -1.45089E+03  1.95262E+03 -2.84348E+03  3.38949E+02 -3.31487E+03 -2.76027E+03  5.18287E+02 -3.42235E+03
  1.41988E+03 -3.14280E+03  1.75971E+03 -7.06530E+02  2.68495E+03 -6.09801E+02  2.35971E+03  1.28563E+03
  3.75875E+02  3.08322E+03 -1.14366E+02  3.01061E+03 -1.67869E+03  1.04926E+03 -1.41209E+03  1.64359E+02
  7.63924E+01 -1.06845E+03 -1.80120E+03 -2.91086E+02 -1.15560E+03  9.18696E+02 -1.48262E+03  8.37168E+01
 -1.78356E+03 -9.09513E+02 -6.93514E+02 -3.18451E+03  2.04610E+03 -2.57184E+03  3.12090E+03 -1.33948E+03
  2.48756E+03 -4.59490E+02  6.39022E+02  1.36911E+03  1.64743E+02  2.32599E+03 -2.03837E+03  6.53265E+02
