 $NMID ID='MM_0lb_SNR200_11hz_g50_65.RAW', FMTDAT='(8E13.5)'
 TRAMP=1., VOLUME=1. $END
  3.10145E+05  3.69082E+02  3.39101E+05  2.50503E+05  8.37810E+04  3.39322E+05 -1.32604E+05  2.51790E+05
 -1.91340E+05  8.37845E+04 -1.10909E+05 -3.24312E+04  2.67132E+02 -5.04508E+04  5.36729E+04 -1.08866E+03
  3.49818E+04  5.14230E+04 -1.76245E+04  7.65056E+04 -6.06089E+04  6.30920E+04 -8.53539E+04  3.18039E+04
 -8.26012E+04 -1.22973E+04 -5.81176E+04 -5.22353E+04 -1.54085E+04 -7.00027E+04  2.85192E+04 -4.75294E+04
  4.03443E+04  5.20952E+03  1.57008E+04  4.83710E+04 -3.43131E+04  4.77561E+04 -6.62667E+04 -7.54457E+02
 -5.26987E+04 -5.73009E+04 -7.74229E+03 -7.89074E+04  3.49877E+04 -5.67688E+04  4.97987E+04 -1.80285E+04
  4.60388E+04  1.26989E+04  3.08254E+04  2.60695E+04  1.56720E+04  3.08063E+04 -5.64978E+03  2.73994E+04
 -2.22859E+04  1.29762E+04 -1.83908E+04 -4.91575E+03  7.35112E+03 -7.04000E+03  2.35511E+04  1.17688E+04
  6.39965E+03  3.55644E+04 -3.29554E+04  3.71916E+04 -6.56418E+04  1.64751E+03 -5.89447E+04 -4.44619E+04
 -1.33864E+04 -6.56140E+04  4.02339E+04 -4.57957E+04  5.97782E+04 -2.63002E+03  3.60334E+04  3.35620E+04
 -6.04557E+03  3.81194E+04 -2.98007E+04  1.81857E+04 -3.17003E+04 -2.99180E+03 -1.90848E+04 -1.10674E+04
 -9.21946E+03 -1.43876E+04 -4.09848E+02 -1.89156E+04  7.77034E+03 -2.37238E+04  1.61477E+04 -1.29279E+04
  1.08722E+04  6.18334E+03 -9.51066E+03  1.29999E+04 -2.07905E+04 -5.10001E+03 -8.49130E+03 -3.53507E+04
  2.32628E+04 -4.63302E+04  5.02864E+04 -2.12631E+04  4.78062E+04  2.00914E+04  1.67105E+04  4.68701E+04
 -1.58916E+04  3.54935E+04 -2.61551E+04  2.59906E+03 -1.15205E+04 -2.95278E+04  2.16330E+04 -3.55090E+04
  4.25070E+04 -1.12046E+04  3.97228E+04  2.44550E+04  2.03793E+04  4.88357E+04 -8.77813E+03  5.42492E+04
 -3.42465E+04  3.65709E+04 -4.46772E+04  1.10747E+04 -4.60566E+04 -1.92700E+04 -2.48835E+04 -4.16986E+04
  8.86386E+03 -4.09508E+04  3.37019E+04 -1.70893E+04  3.22366E+04  1.11955E+04  5.65246E+03  2.07616E+04
 -1.37980E+04  1.06107E+04 -1.03498E+04 -7.17802E+03  5.20552E+03 -1.09698E+04  1.81580E+04  5.44367E+03
  1.51842E+04  2.17473E+04 -4.08050E+03  2.64364E+04 -2.32370E+04  1.15032E+04 -2.94052E+04 -2.94406E+03
 -2.40589E+04 -1.78475E+04 -1.05221E+04 -2.26916E+04  4.51491E+03 -2.36189E+04  1.84340E+04 -2.15789E+04
  2.95908E+04 -1.51654E+04  3.50107E+04  5.01558E+03  2.52685E+04  2.27060E+04  4.40257E+03  3.89875E+04
 -1.93616E+04  3.18093E+04 -2.96176E+04  1.35247E+04 -2.12196E+04 -1.03968E+04 -5.76005E+03 -1.48326E+04
  7.58342E+02 -1.06114E+03 -7.11564E+03  8.64749E+03 -1.92910E+04  5.27558E+03 -1.77661E+04 -8.74570E+03
 -1.07015E+04 -2.23338E+04  4.79683E+03 -2.64429E+04  1.82457E+04 -1.64395E+04  2.08927E+04 -2.29323E+03
  1.30709E+04  1.46677E+04 -3.21003E+02  2.15247E+04 -1.62153E+04  1.22580E+04 -2.20111E+04 -5.30963E+03
 -1.54118E+04 -2.18010E+04 -2.72940E+03 -2.63590E+04  1.16154E+04 -2.21461E+04  2.28127E+04 -1.11572E+04
  1.90843E+04 -8.78830E+02  1.43376E+04  5.13529E+03  7.16660E+03  3.52551E+02  1.19938E+04 -1.33325E+03
  2.08090E+04  2.80743E+03  2.19847E+04  1.69969E+04  1.58900E+04  3.45162E+04 -3.36634E+03  3.91131E+04
 -2.22934E+04  3.30896E+04 -3.77036E+04  1.64522E+04 -3.96152E+04 -3.85632E+03 -3.36303E+04 -2.47079E+04
 -1.27387E+04 -3.32974E+04  1.21600E+04 -2.84708E+04  2.44445E+04 -1.25110E+04  2.14480E+04  7.09230E+03
  7.32617E+03  1.68561E+04 -1.01759E+04  1.45649E+04 -1.84115E+04  3.10747E+03 -1.44194E+04 -1.19330E+04
  4.56807E+02 -1.69591E+04  1.08336E+04 -1.34488E+04  1.16569E+04 -1.37134E+03  2.87235E+03  7.72319E+03
 -8.56823E+03  2.98998E+03 -7.66472E+03 -7.07972E+03 -2.39166E+03 -1.72543E+04  1.04082E+04 -1.78174E+04
  2.02267E+04 -9.88595E+03  2.19817E+04  2.64948E+03  2.03206E+04  1.65516E+04  9.21804E+03  2.63388E+04
 -3.61922E+03  2.83423E+04 -1.77404E+04  1.75560E+04 -2.06598E+04  4.80458E+03 -1.37753E+04 -4.63398E+03
 -4.87748E+03 -5.30104E+03 -1.10286E+03  1.74180E+03 -3.04565E+03  3.38459E+03 -7.51451E+03  3.84722E+03
 -1.23949E+04 -8.30147E+02 -1.27782E+04 -1.07236E+04 -5.65350E+03 -1.63629E+04  5.40771E+03 -1.46867E+04
  1.07819E+04 -5.60570E+03  8.75879E+03  2.18704E+03  6.00606E+01  4.52758E+03 -6.05743E+03 -1.19213E+03
 -6.53876E+03 -9.90333E+03 -1.74715E+03 -1.36864E+04  8.47165E+03 -1.52796E+04  1.70607E+04 -8.19904E+03
  2.07577E+04  2.87650E+03  1.56365E+04  1.24695E+04  3.44159E+03  1.60200E+04 -8.24399E+03  1.32735E+04
 -1.13186E+04  4.46513E+03 -5.46549E+03 -2.70276E+03  1.44516E+03 -3.29095E+03  7.32284E+03 -1.21094E+03
  7.28000E+03  5.59243E+03  8.78113E+02  1.13780E+04 -7.03951E+03  1.04569E+04 -1.33154E+04  2.74199E+03
 -9.79529E+03 -6.63414E+03 -8.03484E+02 -1.06684E+04  7.15979E+03 -5.61345E+03  6.95161E+03  3.64659E+03
  2.34514E+03  9.25413E+03 -5.40272E+03  9.24149E+03 -1.18680E+04  6.82083E+03 -1.18841E+04 -5.65707E+03
 -5.10259E+03 -1.26008E+04  3.91539E+03 -1.40615E+04  1.26615E+04 -9.99805E+03  1.45169E+04  2.87540E+03
  9.37037E+03  1.05609E+04 -1.39843E+03  1.39471E+04 -9.38615E+03  7.33643E+03 -1.12051E+04 -5.64596E+02
 -8.77760E+03 -8.40030E+03 -2.34203E+03 -1.02256E+04  5.46090E+03 -8.12986E+03  6.58385E+03 -2.95774E+03
  5.09405E+03  2.22207E+03  4.02074E+02  1.76287E+03 -4.75914E+02 -2.63625E+03  3.15978E+03 -5.43505E+03
  9.00752E+03 -3.63307E+03  1.18467E+04  1.07497E+03  1.26652E+04  8.66684E+03  7.20350E+03  1.71836E+04
 -3.81819E+03  1.86361E+04 -1.62635E+04  1.32558E+04 -2.30074E+04  2.80565E+03 -1.60201E+04 -8.20590E+03
 -9.94521E+03 -1.43070E+04 -7.13330E+02 -1.41535E+04  4.01145E+03 -5.70268E+03  4.32246E+03 -4.54349E+03
  5.33063E+03 -2.52309E+03  4.49554E+03 -4.34133E+03  5.65864E+03 -3.54394E+03  6.85362E+03 -7.85455E+02
  8.17372E+03  3.13626E+03  4.27050E+03  9.10072E+03 -1.71247E+03  9.73744E+03 -1.06882E+04  6.50332E+03
 -1.20136E+04 -2.13542E+03 -6.63398E+03 -8.90823E+03 -9.28107E+02 -1.34158E+04  6.84285E+03 -1.48420E+04
  1.31006E+04 -7.20921E+03  1.80764E+04  1.71022E+03  9.83810E+03  1.13287E+04  2.01627E+03  1.37716E+04
 -5.74422E+03  1.29726E+04 -9.20010E+03  5.65334E+03 -5.58641E+03 -3.49936E+02 -2.90969E+03 -1.38178E+03
 -1.34694E+03  1.35898E+03 -9.67446E+02  4.93479E+03 -5.21979E+03  1.32876E+03 -8.00900E+03 -7.86751E+02
 -4.05218E+03 -8.11507E+03 -6.00359E+02 -1.30758E+04  8.10959E+03 -1.03302E+04  1.08476E+04 -3.87374E+03
  1.17520E+04  6.79519E+03  5.36077E+03  1.17846E+04 -1.90453E+03  1.05958E+04 -8.78802E+03  7.67158E+03
 -9.79621E+03  1.35028E+03 -7.35796E+03 -7.08001E+03 -8.96470E+02 -1.01624E+04  5.07058E+03 -7.12249E+03
  9.01500E+03 -2.07549E+03  4.30169E+03  2.78824E+03  2.96046E+03  3.42488E+03  2.57371E+02  1.97811E+03
  2.86613E+03 -1.87248E+02  2.37179E+03  2.11032E+03  3.81024E+03  4.08585E+03  1.64534E+03  6.50443E+03
 -2.65768E+03  9.47020E+03 -9.85637E+03  8.78984E+03 -1.11880E+04  1.61213E+03 -1.19464E+04 -3.63002E+03
 -5.17815E+03 -1.10341E+04  4.13888E+02 -1.26409E+04  7.45605E+03 -8.88327E+03  8.94258E+03 -2.20992E+03
  7.53529E+03  4.14408E+03  1.44672E+03  6.39340E+03 -2.62052E+03  3.49825E+03 -4.89089E+03 -7.71639E+02
 -3.22856E+03 -3.32942E+03  1.44489E+03 -6.78180E+03  4.49825E+03 -2.89122E+03  5.73554E+03  4.82348E+02
  2.90234E+03  3.03114E+03  2.07784E+03  2.56889E+03 -8.67878E+02  2.13404E+03  1.90871E+03  4.66659E+01
  1.81270E+03 -1.19517E+03  4.37085E+03  2.34842E+03  2.19182E+03  6.32078E+03 -1.59609E+03  8.43736E+03
 -4.63709E+03  4.85096E+03 -8.27452E+03  9.97053E+02 -7.45647E+03 -2.20913E+03 -3.27475E+03 -4.70372E+03
  1.66988E+03 -5.52381E+03  1.55953E+03 -1.02660E+03  2.33927E+03  2.33570E+03 -2.26415E+03  4.11560E+03
 -2.91080E+03  2.00480E+03 -5.80628E+03 -2.75614E+03 -2.84201E+03 -6.53302E+03  1.14742E+03 -4.63545E+03
  2.07594E+03 -4.60858E+03  3.74306E+03 -6.70340E+02  5.75035E+03  1.23542E+03  1.11068E+02  3.44581E+03
 -1.95742E+03  1.41565E+03 -3.41813E+03 -2.41248E+03  2.21304E+02 -3.38703E+03  6.12653E+03 -2.94117E+03
  5.64516E+03  6.05197E+02  6.70912E+03  4.11885E+03  1.83108E+03  8.07557E+03 -4.16127E+03  6.51860E+03
 -6.11914E+03  2.86250E+03 -5.94510E+03 -5.60943E+02 -2.36834E+03 -4.42391E+03  1.50950E+03 -4.11783E+03
  4.76417E+03 -1.16762E+03  3.82683E+03  2.58501E+03  1.62778E+03  2.81692E+03 -1.04505E+03  3.25459E+03
 -1.84881E+03  1.62676E+03 -7.69496E+02 -1.09364E+03 -9.29151E+02  2.51678E+02 -1.10110E+03  6.61920E+02
 -2.33065E+03  2.83387E+03 -5.25384E+03  2.36735E+03 -7.85229E+03 -3.68515E+02 -8.82485E+03 -4.47435E+03
 -2.62258E+03 -9.84235E+03  1.26915E+03 -1.13867E+04  6.62363E+03 -8.18924E+03  1.00930E+04 -2.19533E+03
  9.80373E+03  1.68606E+03  5.30780E+03  6.02392E+03 -5.63851E+02  8.19974E+03 -2.13950E+03  5.75820E+03
 -5.88283E+03  7.91205E+02 -2.91952E+03 -1.64537E+03  1.48424E+02  1.42025E+02  3.00280E+02  6.68685E-02
 -1.87024E+03  8.69637E+02 -9.76138E+02 -3.83124E+02 -5.53648E+02 -1.69325E+03  1.00013E+03 -2.74165E+03
  3.52190E+03 -3.09263E+03  3.42004E+03  3.85234E+02  6.01453E+03  4.28857E+03  1.84066E+03  7.61344E+03
 -3.08494E+03  7.57681E+03 -7.94041E+03  5.48798E+03 -9.00359E+03 -1.61831E+01 -5.99697E+03 -5.09937E+03
 -1.96799E+03 -8.13427E+03  1.33459E+03 -7.56720E+03  4.23483E+03 -5.02257E+03  4.57873E+03  6.95457E+01
  2.55933E+03  1.90831E+03 -1.39929E+03  9.71771E+02 -6.42720E+02  3.18182E+02 -8.75350E+02 -1.06742E+03
  1.71052E+03 -6.20325E+02  1.82242E+03  7.58349E+02  2.52223E+03  2.39795E+03 -1.53882E+02  5.05978E+03
 -2.45144E+03  4.90848E+03 -3.40838E+03 -9.10919E+02 -3.59476E+03 -3.46978E+03  1.13506E+03 -6.62171E+03
  3.35215E+03 -4.80970E+03  4.69925E+03 -9.79161E+02  4.39152E+03  1.89292E+03  3.02248E+03  4.87139E+03
  1.86972E+03  5.86957E+03 -3.06341E+03  3.58654E+03 -2.58923E+03  2.39141E+03 -1.59897E+03  1.03341E+03
 -1.75218E+03  7.50324E+01 -1.56086E+03 -1.97942E+02 -1.68726E+03  4.72573E+02 -3.51829E+03 -7.13938E+02
 -4.13749E+03 -2.12299E+03 -4.50753E+02 -4.72963E+03  2.17574E+03 -6.38040E+03  3.95800E+03 -1.89189E+03
  5.99742E+03 -7.26922E+02  2.05140E+03  3.57595E+03 -5.81764E+02  3.68164E+03 -3.19193E+03  2.54874E+03
