 $NMID ID='MM_0lb_SNR200_20hz_g60_18.RAW', FMTDAT='(8E13.5)'
 TRAMP=1., VOLUME=1. $END
  3.10691E+05  2.24263E+02  3.37456E+05  2.49895E+05  8.44908E+04  3.38563E+05 -1.32297E+05  2.51394E+05
 -1.90556E+05  8.27416E+04 -1.11989E+05 -3.31832E+04  1.29731E+03 -5.12654E+04  5.43147E+04 -2.01930E+02
  3.47488E+04  5.27580E+04 -1.66348E+04  7.49765E+04 -5.92669E+04  6.35021E+04 -8.43881E+04  3.05466E+04
 -8.10426E+04 -1.18212E+04 -5.69658E+04 -5.06295E+04 -1.44520E+04 -6.85026E+04  2.68106E+04 -4.52574E+04
  3.95322E+04  3.78861E+03  1.59355E+04  4.83563E+04 -3.36640E+04  4.70702E+04 -6.53054E+04 -1.32582E+03
 -5.23585E+04 -5.60744E+04 -6.53296E+03 -7.64807E+04  3.31116E+04 -5.39703E+04  4.67002E+04 -1.63686E+04
  4.20489E+04  1.08395E+04  3.04765E+04  2.45963E+04  1.60921E+04  2.82252E+04 -4.26770E+03  2.71344E+04
 -2.17236E+04  1.30934E+04 -1.96986E+04 -4.77987E+03  4.73799E+03 -8.83871E+03  2.15554E+04  1.16380E+04
  7.54887E+03  3.46932E+04 -3.11989E+04  3.43685E+04 -6.12447E+04  2.99918E+03 -5.62860E+04 -4.17728E+04
 -1.23202E+04 -6.10277E+04  3.89878E+04 -4.38148E+04  5.60368E+04 -2.47731E+03  3.21844E+04  3.00192E+04
 -5.80878E+03  3.47326E+04 -2.97937E+04  1.38986E+04 -2.85827E+04 -5.67549E+03 -1.55430E+04 -1.06951E+04
 -6.95324E+03 -1.15801E+04 -4.69300E+02 -1.71932E+04  6.67533E+03 -2.24437E+04  1.53552E+04 -1.31346E+04
  1.22164E+04  3.57882E+03 -7.72983E+03  1.28605E+04 -1.97562E+04 -2.45318E+03 -8.53749E+03 -3.15831E+04
  2.07583E+04 -4.06925E+04  4.61922E+04 -1.79900E+04  4.30044E+04  1.83082E+04  1.50392E+04  4.26235E+04
 -1.59782E+04  3.21759E+04 -2.36018E+04  1.10317E+03 -8.92672E+03 -2.68640E+04  2.18745E+04 -3.23740E+04
  3.82248E+04 -7.05213E+03  3.30933E+04  2.30793E+04  1.52987E+04  4.27193E+04 -6.99692E+03  4.63177E+04
 -2.92071E+04  3.01190E+04 -3.94922E+04  8.97643E+03 -4.04813E+04 -1.61668E+04 -2.25260E+04 -3.54906E+04
  7.09825E+03 -3.53634E+04  3.00463E+04 -1.25308E+04  2.77547E+04  1.07107E+04  2.48282E+03  1.66345E+04
 -1.23005E+04  7.72893E+03 -9.28219E+03 -8.30812E+03  6.27302E+03 -9.41729E+03  1.76230E+04  5.96275E+03
  1.29543E+04  2.16351E+04 -7.19939E+03  2.46640E+04 -2.13269E+04  9.64392E+03 -2.58979E+04 -5.47727E+03
 -1.73724E+04 -1.76684E+04 -6.19689E+03 -1.75711E+04  4.46958E+03 -1.49249E+04  1.28160E+04 -1.41752E+04
  2.16866E+04 -1.16778E+04  2.93353E+04  1.43518E+03  2.08524E+04  1.66989E+04  4.40090E+03  3.33617E+04
 -1.61782E+04  2.72775E+04 -2.60989E+04  9.77013E+03 -1.99156E+04 -1.01531E+04 -3.73589E+03 -1.31913E+04
  2.75132E+03 -3.13673E+03 -3.02803E+03  5.43922E+03 -1.30854E+04  5.54613E+03 -1.34826E+04 -5.30269E+03
 -8.76575E+03 -1.60388E+04  4.33178E+03 -2.00418E+04  1.26460E+04 -1.42426E+04  1.51955E+04 -1.47508E+03
  9.18896E+03  1.13580E+04  1.65135E+02  1.61637E+04 -9.60459E+03  9.89866E+03 -1.53162E+04 -3.25493E+03
 -1.19816E+04 -1.41464E+04 -1.72630E+03 -1.92721E+04  8.93031E+03 -1.57425E+04  1.66967E+04 -6.66288E+03
  1.33717E+04  1.03979E+02  1.11778E+04  3.75566E+03  5.49768E+03  9.73756E+02  7.45203E+03 -2.15075E+03
  1.39574E+04  2.24184E+03  1.61859E+04  1.27695E+04  9.55660E+03  2.50583E+04 -3.44969E+03  2.70927E+04
 -1.47738E+04  2.06137E+04 -2.41715E+04  1.00921E+04 -2.52842E+04 -1.91102E+03 -2.22964E+04 -1.51968E+04
 -9.37039E+03 -1.94201E+04  6.87828E+03 -1.91100E+04  1.62263E+04 -1.04947E+04  1.50256E+04  3.31826E+03
  6.07910E+03  1.16566E+04 -6.66802E+03  1.02672E+04 -1.35146E+04  3.12030E+03 -1.06496E+04 -7.93114E+03
 -9.15781E+02 -1.35432E+04  6.58752E+03 -9.40934E+03  8.21300E+03 -1.40484E+03  1.25938E+03  5.31388E+03
 -5.85073E+03  1.07103E+03 -3.98858E+03 -4.33391E+03  1.27857E+03 -1.04829E+04  8.01207E+03 -1.00521E+04
  1.30918E+04 -4.77949E+03  1.28148E+04  3.52285E+03  1.01573E+04  9.70486E+03  5.61705E+03  1.50602E+04
 -1.86425E+03  1.48849E+04 -9.48636E+03  9.00290E+03 -1.07195E+04  4.08350E+03 -8.38988E+03 -7.21930E+02
 -3.56683E+03 -3.79412E+03  6.37163E+02  1.49207E+03 -7.01313E+02  2.40192E+03 -3.93164E+03  2.69042E+03
 -8.34075E+03 -1.69015E+03 -8.97133E+03 -6.89311E+03 -3.05647E+03 -1.14031E+04  3.04678E+03 -8.23250E+03
  7.62322E+03 -3.96203E+03  4.89419E+03  1.13820E+03  7.53493E+02  2.55947E+03 -3.74474E+03  5.67321E+02
 -3.33668E+03 -4.00928E+03 -1.12146E+03 -7.33718E+03  2.56865E+03 -8.66823E+03  9.65601E+03 -3.68247E+03
  1.10035E+04  4.15459E+02  8.53919E+03  6.20940E+03  2.06005E+03  7.88479E+03 -5.21405E+03  8.11743E+03
 -6.76331E+03  1.88027E+03 -3.99514E+03 -1.10650E+03  1.66526E+03 -1.41337E+03  5.84201E+03 -5.35067E+02
  4.08084E+03  2.99511E+03  3.24456E+02  6.22522E+03 -4.16891E+03  6.45705E+03 -7.43898E+03  1.34837E+03
 -4.38095E+03 -3.51974E+03 -4.22513E+02 -6.92129E+03  4.25530E+03 -2.98273E+03  3.41113E+03  6.06067E+02
  2.84789E+02  3.73527E+03 -3.02988E+03  4.48990E+03 -3.79153E+03  2.06711E+03 -3.49566E+03 -1.53944E+03
 -1.75248E+03 -5.86183E+03  5.02690E+02 -7.71080E+03  4.87583E+03 -4.32237E+03  5.67345E+03 -3.35301E+01
  5.02324E+03  5.61047E+03  2.10376E+01  6.03158E+03 -3.92767E+03  3.74034E+03 -4.57762E+03 -8.99786E+01
 -6.00711E+03 -4.82298E+03 -9.26596E+02 -3.98976E+03  1.41150E+03 -4.26744E+03  2.12385E+03 -2.32071E+03
  1.96613E+03  6.53769E+01 -6.13447E+01  1.95005E+03  8.13546E+02 -8.50172E+02  7.78100E+01 -2.07981E+03
  2.73540E+03 -8.15676E+02  4.90957E+03  7.02273E+02  5.11795E+03  3.05621E+03  5.20981E+03  5.79588E+03
 -1.37855E+03  8.10839E+03 -6.80381E+03  5.57808E+03 -8.94781E+03  7.94512E+02 -7.40790E+03 -3.23106E+03
 -4.34228E+03 -6.89509E+03 -6.25805E+02 -4.92328E+03  2.24271E+03 -1.96560E+03  2.03927E+03 -7.13246E+02
  7.23530E+01 -2.27234E+03  2.18376E+03 -1.55921E+03  3.73842E+03 -1.60073E+03  2.81026E+03  8.24268E+02
  4.67273E+03  9.53645E+02  1.42678E+03  2.19803E+03 -1.08840E+03  2.44944E+03 -4.49405E+03  2.85685E+03
 -3.62690E+03 -1.03751E+03 -1.40256E+03 -2.54314E+03  1.90826E+02 -4.29203E+03  3.54579E+03 -3.04419E+03
  4.04793E+03 -2.55223E+03  5.51794E+03  2.93586E+02  4.04501E+03  3.42445E+03  1.00270E+03  5.20121E+03
 -2.02228E+03  5.15535E+03 -2.46969E+03  1.58889E+03 -1.83892E+03 -1.29579E+02 -9.59844E+02 -1.37349E+02
  1.45291E+02  3.24254E+02 -7.17446E+02  2.01013E+03 -2.26173E+03  1.40061E+03 -4.40559E+03  3.39404E+01
 -1.24513E+03 -3.92075E+03  5.23838E+02 -4.77642E+03  2.32785E+03 -4.13337E+03  2.74425E+03 -8.34878E+02
  3.61701E+03  2.57220E+03  5.16459E+02  2.68620E+03  1.34683E+02  4.20028E+03 -2.45249E+03  2.98514E+03
 -3.21969E+03  2.52556E+02 -3.00545E+03 -1.97185E+03 -6.07396E+02 -3.14221E+03  1.78688E+03 -1.37561E+03
  2.75921E+03 -1.32669E+03  1.93371E+03  1.02480E+03  1.42106E+02  1.34852E+03  4.64600E+02  3.35003E+02
  2.16524E+03  4.76945E+02  7.72969E+02  2.38601E+02  1.57390E+02  2.51520E+03  1.88294E+03  2.06928E+03
  2.30799E+02  2.99101E+03 -1.48008E+03  2.83228E+03 -2.12962E+03  2.24418E+03 -3.50794E+03  3.58924E+02
 -1.79223E+03 -3.68101E+03 -3.01610E+02 -4.12158E+03  2.05044E+03 -1.90150E+03  1.90999E+03 -1.26777E+03
  2.76193E+03  1.28288E+03  3.50943E+02  1.95343E+03 -3.94202E+02  1.07509E+03 -5.44595E+02 -2.76417E+02
 -5.41177E+02 -8.91684E+02  1.86231E+03 -9.42312E+02  5.59297E+02 -1.05554E+03  1.44689E+03  4.47217E+02
  1.29663E+03 -3.72148E+02  8.82546E+02 -2.83569E+02 -7.12881E+02 -1.73981E+02  1.65010E+03 -3.36222E+02
  5.00183E+02  6.61759E+00  1.86591E+03  9.21492E+02 -2.06545E+02  1.76646E+03  4.39297E+02  2.49710E+03
 -1.16316E+03  2.13002E+02 -1.95675E+03 -2.30978E+02 -2.34358E+03 -4.89820E+02  1.25830E+03 -1.89735E+03
  9.03967E+02 -2.72543E+02  9.48337E+02  6.43931E+01  4.39831E+02  1.59534E+03  6.09814E+02  1.69742E+03
 -6.83070E+02  4.88486E+02  4.97104E+01 -7.20886E+02 -5.40693E+02 -6.64522E+02 -2.18854E+02 -2.04192E+03
  9.59525E+01 -9.43974E+00 -7.38987E+02  6.41146E+02  6.86879E+02 -6.71984E+02  3.72923E+02  8.92820E+02
  2.97368E+02  7.21215E+02 -8.55000E+02 -9.53976E+02 -1.13903E+03 -1.15376E+03  1.04092E+03 -9.88986E+02
 -5.83515E+02 -4.05483E+02  2.54127E+03 -3.20472E+02 -1.18646E+02  8.03545E+02 -7.09229E+02  1.34549E+03
 -9.11076E+02  3.58675E+02 -6.17999E+02 -3.44399E+02 -4.48401E+02 -7.63149E+02  2.87043E+02 -7.67575E+02
  5.00588E+02 -7.20937E+02  3.80883E+01  6.65980E+02 -1.60579E+02  9.38450E+02  7.89494E+02  5.62545E+02
  2.00041E+01 -1.71581E+02 -6.87774E+02  4.58478E+02  2.56116E+02  1.94204E+02 -2.05361E+03  7.94423E+02
 -1.76641E+02  1.66239E+03 -1.32181E+03  2.70246E+02 -1.23677E+03 -4.57086E+02 -1.76204E+03 -1.36984E+03
 -5.76960E+02 -2.33621E+03  4.42013E+02 -3.41659E+03  7.80718E+02 -2.12272E+03  1.29893E+03 -1.52274E+03
  8.09687E+02 -1.88098E+02  9.79493E+02  1.51989E+03 -9.93621E+02  1.13758E+03  7.38368E+01  1.54802E+03
 -6.88494E+02  1.31555E+03  3.18556E+01 -8.00420E+02 -1.15694E+03  1.95297E+02  1.21653E+02  6.88484E+02
 -1.05999E+03  4.85539E+02 -5.78255E+02 -8.26407E+02  8.46344E+02 -9.05264E+02  2.08163E+02  2.10674E+02
  6.72442E+02 -1.01982E+03 -8.26121E+01 -9.31640E+01  1.11998E+03 -1.25087E+03 -6.49705E+02  8.71677E+02
 -3.18332E+02  1.82466E+03 -1.65924E+03  1.50818E+03 -1.62185E+03  1.34854E+02 -3.78474E+02 -1.81237E+03
 -2.34583E+02 -7.66339E+02  5.25883E+02 -1.17012E+03  5.14914E+02 -9.11665E+02  1.05597E+03 -1.43249E+01
 -2.77813E+02 -2.51247E+02  1.10684E+03  4.48589E+02 -5.15994E+02 -4.62114E+02  2.14578E+01 -3.06288E+02
 -4.00193E+02 -5.60021E+02 -9.96990E+02 -1.07817E+03 -5.66057E+01  9.89813E+02  1.50569E+03 -1.89473E-01
 -6.44646E+02  3.69567E+02 -1.94589E+00 -2.12145E+02 -3.15193E+02  8.33960E+02 -7.01590E+02 -4.81426E+02
  2.05254E+02 -1.29996E+03 -3.81262E+02 -6.09724E+02  7.84694E+02 -7.25509E+02  8.49720E+02  3.89417E+02
  7.66470E+02 -1.45358E+02  5.50754E+02  9.14500E+02 -1.31016E+02  1.07449E+03 -1.02475E+03  4.73567E+02
  4.24712E+01 -1.08140E+03 -4.97839E+02  3.30278E+02 -6.77592E+02  6.72279E+02 -3.59634E+02 -4.15439E+02
 -1.69885E+03 -5.01981E+02 -7.53872E+02  4.38784E+01 -2.97653E+02 -1.40794E+03  1.13133E+02  1.28671E+02
  1.34969E+03  1.01278E+03 -9.20746E+02 -6.12583E+02  1.30848E+03  1.43711E+03 -6.55607E+02 -3.40174E+02
