 $NMID ID='MM_0lb_SNR200_20hz_g50_24.RAW', FMTDAT='(8E13.5)'
 TRAMP=1., VOLUME=1. $END
  3.09696E+05 -6.19592E+02  3.37517E+05  2.50329E+05  8.41810E+04  3.37810E+05 -1.33056E+05  2.49352E+05
 -1.88697E+05  8.26396E+04 -1.09956E+05 -3.31684E+04  1.22122E+03 -4.96827E+04  5.37019E+04  5.52511E+02
  3.51775E+04  5.27000E+04 -1.73569E+04  7.40176E+04 -5.97556E+04  6.26605E+04 -8.37098E+04  3.13266E+04
 -7.93748E+04 -1.08940E+04 -5.66720E+04 -5.04233E+04 -1.44303E+04 -6.77471E+04  2.59015E+04 -4.40303E+04
  3.85878E+04  3.55195E+03  1.56955E+04  4.72316E+04 -3.37065E+04  4.60022E+04 -6.39244E+04 -6.88385E+02
 -5.16293E+04 -5.61320E+04 -6.32332E+03 -7.51780E+04  3.23875E+04 -5.22188E+04  4.59053E+04 -1.62241E+04
  4.12492E+04  1.18341E+04  3.09495E+04  2.50320E+04  1.63432E+04  2.90867E+04 -4.02389E+03  2.70598E+04
 -2.12266E+04  1.25510E+04 -2.03711E+04 -4.22560E+03  4.27830E+03 -7.41482E+03  2.04185E+04  1.03244E+04
  7.14993E+03  3.34416E+04 -3.00842E+04  3.51546E+04 -6.11047E+04  2.83514E+03 -5.47069E+04 -4.18876E+04
 -1.22859E+04 -6.00448E+04  3.80526E+04 -4.34921E+04  5.49031E+04 -1.95191E+03  3.11851E+04  3.00680E+04
 -6.09789E+03  3.37401E+04 -2.80884E+04  1.31630E+04 -2.67815E+04 -5.20329E+03 -1.39327E+04 -9.99288E+03
 -7.28443E+03 -1.09791E+04 -1.28092E+03 -1.70350E+04  6.12714E+03 -2.31131E+04  1.59486E+04 -1.41040E+04
  1.28227E+04  4.63072E+03 -5.90259E+03  1.33786E+04 -1.96370E+04 -1.82756E+03 -7.99667E+03 -3.03240E+04
  2.10718E+04 -3.89135E+04  4.48864E+04 -1.89652E+04  4.17103E+04  1.75189E+04  1.46284E+04  4.18375E+04
 -1.47542E+04  2.97187E+04 -2.33213E+04  9.63595E+02 -8.66922E+03 -2.53462E+04  2.07056E+04 -3.01739E+04
  3.77535E+04 -6.84270E+03  3.10912E+04  2.31247E+04  1.58188E+04  4.24549E+04 -7.26345E+03  4.42826E+04
 -2.79164E+04  3.00211E+04 -3.67461E+04  7.87212E+03 -3.75133E+04 -1.45407E+04 -2.00265E+04 -3.44984E+04
  8.01396E+03 -3.30523E+04  2.88535E+04 -1.32271E+04  2.60398E+04  1.10133E+04  2.77095E+03  1.74311E+04
 -1.35179E+04  7.76631E+03 -9.32779E+03 -7.79515E+03  6.63331E+03 -1.02303E+04  1.65713E+04  6.03196E+03
  1.13803E+04  2.23107E+04 -7.37950E+03  2.27783E+04 -2.14978E+04  8.07002E+03 -2.44327E+04 -6.16810E+03
 -1.54673E+04 -1.65194E+04 -5.30690E+03 -1.67178E+04  5.25084E+03 -1.33612E+04  1.22553E+04 -1.38714E+04
  2.00529E+04 -1.06762E+04  2.73645E+04  2.49041E+02  2.11198E+04  1.57065E+04  3.90957E+03  3.15171E+04
 -1.61165E+04  2.69280E+04 -2.61484E+04  1.01839E+04 -1.95849E+04 -1.01421E+04 -2.65817E+03 -1.45121E+04
  2.86496E+03 -5.93332E+03 -2.50235E+03  5.25571E+03 -1.30155E+04  5.85446E+03 -1.22187E+04 -5.39572E+03
 -8.32253E+03 -1.52827E+04  4.57572E+03 -1.86056E+04  1.20409E+04 -1.44539E+04  1.44991E+04 -1.82301E+03
  8.47462E+03  1.00603E+04  1.16442E+02  1.53659E+04 -9.28308E+03  7.42333E+03 -1.56815E+04 -3.07539E+03
 -1.06678E+04 -1.34078E+04 -1.64525E+03 -1.74361E+04  8.42816E+03 -1.42749E+04  1.55361E+04 -6.32473E+03
  1.40975E+04  3.62967E+02  9.27474E+03  3.26182E+03  5.15416E+03  7.79614E+02  8.03047E+03 -1.82039E+03
  1.45624E+04  2.31547E+03  1.37822E+04  1.17818E+04  8.67680E+03  2.48336E+04 -2.41052E+03  2.38529E+04
 -1.48129E+04  1.90935E+04 -2.30625E+04  8.50156E+03 -2.33582E+04 -1.06119E+03 -2.04186E+04 -1.31562E+04
 -9.66780E+03 -1.91946E+04  6.35261E+03 -1.71201E+04  1.55019E+04 -9.40214E+03  1.45449E+04  2.92290E+03
  6.78283E+03  1.07913E+04 -6.52525E+03  9.37217E+03 -1.28117E+04  2.39320E+03 -9.74337E+03 -7.31505E+03
 -1.40192E+02 -1.20541E+04  5.55756E+03 -9.51393E+03  6.45858E+03 -2.02794E+03  1.04640E+03  4.07252E+03
 -5.07830E+03  1.35262E+03 -3.18454E+03 -4.44349E+03  6.65876E+02 -8.42506E+03  6.49217E+03 -8.13336E+03
  1.14259E+04 -4.05748E+03  1.03252E+04  2.04817E+03  9.89449E+03  9.18843E+03  3.51023E+03  1.28456E+04
 -1.40623E+03  1.44618E+04 -7.63405E+03  9.83035E+03 -9.17526E+03  2.90161E+03 -6.84725E+03 -2.16953E+03
 -4.49500E+03 -2.69677E+03 -8.28329E+02  2.43814E+03 -7.58797E+02  2.15481E+03 -2.67497E+03  3.47294E+03
 -8.32394E+03 -4.98069E+02 -7.38075E+03 -6.56574E+03 -3.35122E+03 -1.09108E+04  3.17917E+03 -9.15343E+03
  6.30917E+03 -4.01145E+03  4.41217E+03  2.25067E+03  2.15717E+02  3.42360E+03 -3.21130E+03  2.71883E+02
 -2.00983E+03 -4.85435E+03 -9.93884E+02 -5.72418E+03  4.23695E+03 -7.25328E+03  9.67474E+03 -3.62130E+03
  1.06823E+04  5.10104E+02  7.25318E+03  4.86695E+03  2.62947E+03  8.26314E+03 -5.02838E+03  6.87112E+03
 -5.17194E+03  2.47560E+03 -3.40668E+03 -1.38259E+03  9.67781E+02 -1.94391E+03  4.85430E+03 -5.44368E+02
  4.29995E+03  2.93878E+03  5.09962E+02  5.83562E+03 -3.93254E+03  5.08197E+03 -7.23187E+03  1.77990E+03
 -5.40339E+03 -3.70831E+03  1.62577E+02 -6.81700E+03  4.59827E+03 -3.42952E+03  3.64696E+03  7.46008E+02
  4.64306E+02  2.48614E+03 -4.88749E+03  4.02041E+03 -3.83998E+03  1.94980E+03 -3.71182E+03 -1.75489E+03
 -1.73033E+03 -5.21646E+03 -2.47631E+01 -6.70723E+03  5.28763E+03 -4.04691E+03  5.68075E+03  1.34979E+03
  5.37805E+03  4.85489E+03  1.12082E+02  5.79909E+03 -4.93723E+03  3.43807E+03 -5.20551E+03 -1.35506E+02
 -5.58147E+03 -4.39119E+03 -8.34082E+02 -5.26311E+03  2.34596E+03 -3.97244E+03  3.36161E+03 -3.05442E+03
  3.33489E+03  9.90760E+02 -3.11244E+01  9.94099E+02  4.06341E+02  8.00357E+02  2.67468E+02 -1.68779E+03
  3.24080E+03  6.57541E+02  3.65883E+03  6.20390E+02  4.80584E+03  2.51189E+03  5.17011E+03  6.24227E+03
 -1.03675E+03  6.30365E+03 -6.52437E+03  5.76295E+03 -8.89001E+03  1.74297E+03 -6.60774E+03 -2.03530E+03
 -3.74564E+03 -5.52597E+03 -1.12202E+03 -5.27913E+03  3.08785E+03 -2.49012E+03  1.55447E+03 -2.10595E+03
  7.15990E+02 -1.77194E+03  2.14096E+03 -1.88004E+03  3.44849E+03 -8.36182E+02  3.09866E+03  3.36598E+02
  3.65164E+03  1.43102E+03  2.75316E+02  3.54346E+03 -1.81113E+03  2.79752E+03 -3.28707E+03  2.50644E+03
 -4.13913E+03  8.21481E+01 -1.47046E+03 -3.90320E+03 -2.07554E+02 -3.96427E+03  3.10481E+03 -4.61624E+03
  3.99524E+03 -3.33671E+03  5.95148E+03  1.31611E+03  3.84943E+03  3.27336E+03  9.35401E+02  4.32380E+03
 -1.68621E+03  5.27619E+03 -2.33643E+03  3.00321E+03 -2.11288E+03 -3.28128E+02 -6.55620E+02 -2.71232E+02
  2.20126E+02  2.74303E+02  2.34698E+02  1.13674E+03 -2.03863E+03  9.76083E+02 -4.16474E+03 -1.59433E+02
 -7.29064E+01 -3.23081E+03  8.89965E+02 -2.97313E+03  1.91333E+03 -3.04582E+03  3.14960E+03 -8.63874E+02
  1.95218E+03  1.53227E+03  7.56344E+02  2.09250E+03 -1.06049E+03  3.59048E+03 -1.61071E+03  2.06880E+03
 -2.98008E+03 -5.20836E+02 -1.73045E+03 -1.73046E+03  2.59762E+01 -1.73213E+03  1.92841E+03 -1.80502E+03
  2.06970E+03  1.21277E+01  1.28848E+03 -3.35148E+02  1.40079E+01 -2.05389E+02  9.06003E+02  6.59340E+02
  1.00692E+03  1.43877E+03  8.47431E+02  3.93321E+02  1.17934E+03  2.30418E+03  1.17033E+03  1.68994E+03
 -1.57349E+03  1.64396E+03 -1.51985E+03  3.85157E+03 -1.97432E+03  1.24968E+03 -3.55245E+03 -3.35636E+02
 -1.13911E+03 -2.96294E+03 -1.66127E+02 -3.00412E+03  1.51836E+03 -1.56281E+03  2.72274E+03 -7.01102E+02
  2.32728E+03  2.08815E+03  9.96897E+02  1.47026E+03 -4.55956E+02  2.51898E+02 -3.53727E+02 -1.43568E+02
 -1.29390E+02 -1.18148E+03  7.20914E+02 -8.10219E+02  1.02856E+03 -1.45699E+03  9.34986E+02 -4.40543E+02
  4.95013E+02  2.03162E+02  1.16917E+03 -5.97271E+02 -3.90399E+02 -4.79647E+01  1.91950E+03  2.23747E+02
  6.76177E+02 -3.79407E+02  2.03613E+03  5.24388E+02 -5.38678E+02  2.35540E+03 -3.25665E+02  2.02614E+03
 -6.15171E+02  4.46809E+02 -1.56212E+03  1.08646E+03 -1.57867E+03 -6.22066E+02 -5.36630E+02  3.44636E+00
  4.37178E+02 -4.55883E+02  4.76698E+02 -3.77149E+02  2.83577E+02  4.16955E+02 -2.57583E+02  2.08367E+03
 -1.24601E+03 -7.08362E+02 -3.80465E+02 -5.69902E+02 -7.35665E+02 -2.39047E+03 -1.75354E+02 -1.19713E+03
  5.71727E+00 -3.54715E+02 -1.45824E+02  2.28505E+02  7.79111E+02  2.37868E+02  5.03937E+01  1.84113E+02
 -7.62203E+01  4.10544E+02 -1.01174E+03 -3.14468E+02  6.92141E+01 -3.15851E+02  8.46578E+02 -1.23607E+03
 -1.92673E+02 -4.86961E+02  2.68813E+03  1.69860E+03  1.10359E+03  8.18347E+02 -8.57300E+02  1.08553E+03
  6.80240E+01  2.69762E+02 -9.08402E+02 -6.90365E+02 -9.86582E+02 -2.09654E+03 -2.89289E+02  1.09863E+03
  7.08242E+02 -4.22102E+02  1.16606E+03  9.75435E+01 -3.13681E+02  1.28657E+03  1.91537E+02  3.17424E+01
 -2.11413E+02  5.57527E+02 -5.77444E+02 -2.95663E+02  5.78032E+02  9.98908E+02 -4.23872E+02  6.44376E+02
 -7.04407E+02  1.14977E+03 -2.05057E+03  8.12880E+02 -1.02166E+03  1.03664E+03 -1.75373E+03 -1.22365E+03
 -3.88269E+02 -2.05628E+03  1.26692E+03 -1.82558E+03  1.76238E+02 -9.07972E+02  1.79225E+03 -1.14918E+03
  1.20431E+03 -3.95357E+02  2.42103E+02  1.58382E+03 -6.17840E+02  5.69095E+02 -1.57860E+02  4.19348E+02
 -4.49138E+02  5.56376E+02  2.50389E+02  1.80046E+02 -7.80815E+02 -2.20922E+02 -4.59609E+02  2.06005E+02
 -2.17537E+02  2.83106E+02 -8.31739E+02  1.28525E+02  2.29881E+02 -1.14189E+03 -3.49702E+02 -9.55758E+02
  1.65082E+03 -1.03229E+03 -6.76402E+02 -3.79491E+02  9.23540E+02  1.62167E+03 -7.76875E+02  4.32616E+02
 -1.20799E+03  2.19099E+03 -1.11080E+03  1.05875E+03 -2.01253E+02 -7.98240E+02 -9.94968E+02 -8.97828E+02
 -1.70053E+03 -1.34584E+03  5.45750E+01 -1.29183E+03  2.33295E+02 -2.95116E+02  2.86975E+02 -1.15123E+03
  4.56083E+02  7.39628E+02  8.65634E+01 -4.39439E+02 -4.75998E+02 -7.09992E+02 -1.83105E+01  2.74247E+02
 -5.45648E+02  6.18661E+02  1.90836E+02  1.13657E+03  5.35843E+02  5.23975E+02  1.11745E+02  1.06126E+03
 -9.62362E+02  6.95878E+02 -6.18080E+02  3.70176E+01  1.75403E+02 -8.63106E+02 -1.63670E+02 -1.36887E+03
  3.51796E+02 -4.30766E+02  3.98931E+02  7.29173E+02  6.84967E+02 -9.34510E+02  4.57453E+02  7.37999E+02
  8.45312E+02  6.21923E+02 -2.56137E+02  4.04590E+02 -2.32040E+02  2.89929E+02  2.91910E+02  3.28023E+02
 -4.31366E+02  5.95182E+02 -3.28053E+01 -1.47605E+01 -4.38767E+02  3.82542E+02 -1.26538E+03  3.01557E+02
 -1.51566E+03 -2.36149E+02 -1.34002E+02 -3.67568E+02  2.64192E+02 -5.18103E+02  5.89918E+02 -9.34132E+02
  9.58115E+02 -4.63191E+02 -2.01339E+02 -1.99097E+02  2.51504E+01 -3.63849E+02 -8.44433E+02 -2.54159E+02
