 $NMID ID='MM_0lb_SNR200_17hz_g45_48.RAW', FMTDAT='(8E13.5)'
 TRAMP=1., VOLUME=1. $END
  3.10032E+05  3.99371E+02  3.37276E+05  2.50221E+05  8.49819E+04  3.37105E+05 -1.31024E+05  2.51270E+05
 -1.90778E+05  8.30837E+04 -1.12226E+05 -3.18039E+04  1.84519E+03 -5.09686E+04  5.39115E+04 -7.34253E+02
  3.52868E+04  5.40663E+04 -1.54971E+04  7.53365E+04 -5.98768E+04  6.23005E+04 -8.27835E+04  3.17341E+04
 -7.99249E+04 -1.16053E+04 -5.63306E+04 -5.11582E+04 -1.52556E+04 -6.92855E+04  2.66502E+04 -4.51348E+04
  3.95382E+04  4.21696E+03  1.55425E+04  4.66146E+04 -3.39910E+04  4.55117E+04 -6.50196E+04 -2.02842E+02
 -5.14776E+04 -5.59378E+04 -6.57734E+03 -7.67295E+04  3.24876E+04 -5.31676E+04  4.72197E+04 -1.64157E+04
  4.26013E+04  1.09953E+04  3.14401E+04  2.49872E+04  1.57534E+04  2.83135E+04 -5.18576E+03  2.73292E+04
 -2.07814E+04  1.20980E+04 -1.89470E+04 -4.02469E+03  5.07647E+03 -8.05391E+03  2.15866E+04  1.15040E+04
  7.63350E+03  3.39947E+04 -3.06202E+04  3.43826E+04 -6.05175E+04  2.38372E+03 -5.54833E+04 -4.13288E+04
 -1.26360E+04 -6.14788E+04  3.88054E+04 -4.38394E+04  5.50463E+04 -2.51764E+03  3.21353E+04  3.03246E+04
 -5.35516E+03  3.41728E+04 -2.90313E+04  1.36084E+04 -2.86770E+04 -4.91167E+03 -1.54270E+04 -1.08790E+04
 -8.15435E+03 -1.19651E+04 -9.20755E+02 -1.67286E+04  6.66907E+03 -2.26668E+04  1.51897E+04 -1.26827E+04
  1.14682E+04  5.44747E+03 -6.91217E+03  1.37187E+04 -2.10081E+04 -1.24111E+03 -8.64493E+03 -3.11480E+04
  2.15173E+04 -4.19578E+04  4.55983E+04 -1.91245E+04  4.21151E+04  1.89785E+04  1.46154E+04  4.31240E+04
 -1.58721E+04  3.07510E+04 -2.43140E+04  1.48027E+03 -8.13719E+03 -2.79200E+04  2.01722E+04 -3.15078E+04
  3.82861E+04 -7.30149E+03  3.24051E+04  2.26418E+04  1.54455E+04  4.29792E+04 -7.11578E+03  4.63123E+04
 -2.95044E+04  3.05873E+04 -3.82394E+04  8.74168E+03 -3.86371E+04 -1.54847E+04 -2.12444E+04 -3.60739E+04
  8.44004E+03 -3.46721E+04  3.04006E+04 -1.30951E+04  2.83815E+04  1.13108E+04  2.49737E+03  1.82457E+04
 -1.44404E+04  6.77136E+03 -8.71452E+03 -8.58208E+03  5.65824E+03 -9.97313E+03  1.80141E+04  6.41592E+03
  1.17479E+04  2.09007E+04 -6.62836E+03  2.40329E+04 -2.13187E+04  9.24435E+03 -2.55816E+04 -5.85548E+03
 -1.74175E+04 -1.70903E+04 -5.41024E+03 -1.80438E+04  4.48551E+03 -1.55505E+04  1.33001E+04 -1.51405E+04
  2.20283E+04 -1.24646E+04  2.90548E+04  4.81274E+02  2.17865E+04  1.77610E+04  4.22223E+03  3.29821E+04
 -1.57650E+04  2.90240E+04 -2.62040E+04  9.51655E+03 -1.90294E+04 -1.02910E+04 -3.77640E+03 -1.36945E+04
  1.71530E+03 -3.91053E+03 -3.13841E+03  6.29846E+03 -1.42184E+04  6.17983E+03 -1.51600E+04 -3.88001E+03
 -9.39038E+03 -1.64549E+04  3.88323E+03 -1.98532E+04  1.33605E+04 -1.36152E+04  1.48673E+04 -2.06010E+03
  8.86947E+03  1.21089E+04 -1.61948E+03  1.66533E+04 -1.01962E+04  8.76722E+03 -1.67751E+04 -3.36553E+03
 -1.35249E+04 -1.54063E+04 -1.99960E+03 -1.96162E+04  8.91043E+03 -1.61998E+04  1.70402E+04 -8.08939E+03
  1.55894E+04  1.36050E+03  1.05127E+04  4.18181E+03  5.63393E+03  6.36827E+02  8.20731E+03 -8.05376E+02
  1.43705E+04  2.66900E+03  1.61194E+04  1.35872E+04  1.09219E+04  2.59288E+04 -3.33532E+03  2.87540E+04
 -1.69973E+04  2.22939E+04 -2.67697E+04  1.02341E+04 -2.77326E+04 -1.89136E+03 -2.38346E+04 -1.58578E+04
 -9.53147E+03 -2.21819E+04  7.84277E+03 -2.02749E+04  1.85213E+04 -1.13455E+04  1.64073E+04  4.95561E+03
  6.53328E+03  1.27757E+04 -6.74177E+03  9.63132E+03 -1.48427E+04  2.48199E+03 -1.09628E+04 -9.16951E+03
 -5.88488E+02 -1.37013E+04  6.02592E+03 -1.01022E+04  8.43649E+03 -1.29386E+03  5.75225E+02  7.23393E+03
 -6.40224E+03  1.16877E+03 -5.82320E+03 -4.57220E+03  1.71368E+03 -1.20490E+04  8.14986E+03 -1.13289E+04
  1.28474E+04 -6.11504E+03  1.35015E+04  2.72039E+03  1.08972E+04  1.02119E+04  5.43391E+03  1.59061E+04
 -2.77623E+03  1.70138E+04 -1.05289E+04  1.15989E+04 -1.31424E+04  2.75811E+03 -9.37797E+03 -2.08401E+03
 -5.59808E+03 -3.32912E+03 -1.01312E+03  1.66466E+03 -1.55635E+03  6.71946E+02 -4.18939E+03  4.09217E+03
 -9.57341E+03 -1.66187E+03 -9.03855E+03 -7.95391E+03 -4.59801E+03 -1.24095E+04  3.38998E+03 -9.30442E+03
  7.70018E+03 -4.15555E+03  5.29782E+03  2.96977E+03  1.25094E+03  3.08170E+03 -3.33798E+03 -1.74843E+02
 -3.43929E+03 -4.50304E+03 -1.60258E+03 -7.22003E+03  4.43833E+03 -8.57021E+03  1.05180E+04 -4.94271E+03
  1.30135E+04 -1.63117E+02  1.07477E+04  7.60821E+03  7.03963E+02  1.07554E+04 -4.76799E+03  8.68450E+03
 -7.23803E+03  1.63303E+03 -3.68095E+03 -5.88289E+02  8.40248E+02 -2.44309E+03  6.54296E+03  7.72221E+01
  3.53934E+03  4.08688E+03  1.32969E+03  7.52375E+03 -5.49021E+03  8.34678E+03 -8.65993E+03  1.50416E+03
 -5.40772E+03 -3.85990E+03  1.82644E+03 -6.85031E+03  5.89717E+03 -4.01611E+03  3.83598E+03  1.83274E+03
  1.63761E+03  3.48835E+03 -4.30129E+03  5.45872E+03 -5.98063E+03  3.29389E+03 -5.48414E+03 -2.20581E+03
 -4.54751E+03 -7.43575E+03  8.70489E+02 -7.24324E+03  7.70835E+03 -5.07197E+03  7.22169E+03 -4.61453E+02
  4.87333E+03  5.96237E+03 -7.53980E+02  9.00363E+03 -5.45240E+03  4.12286E+03 -6.27095E+03 -1.10182E+03
 -6.36828E+03 -5.42003E+03 -1.46912E+03 -4.90620E+03  3.52587E+03 -4.96273E+03  4.04532E+03 -2.53000E+03
  3.51185E+03  7.32959E+02  2.93133E+02  7.23800E+02  8.90846E+02  3.04352E+02  1.13136E+03 -1.86072E+03
  3.73895E+03 -7.60378E+02  5.52951E+03  4.20040E+02  5.73578E+03  3.64882E+03  5.20520E+03  8.60385E+03
 -1.75655E+03  9.86172E+03 -8.75279E+03  8.23330E+03 -1.21688E+04  2.33554E+03 -1.07436E+04 -3.15668E+03
 -4.05481E+03 -7.01614E+03 -1.12494E+03 -5.43844E+03  2.88420E+03 -2.78880E+03  1.79027E+03 -2.45136E+03
  1.58778E+03 -2.03313E+03  1.69996E+03 -2.41045E+03  3.20768E+03 -1.08967E+03  3.43835E+03  7.76913E+02
  5.28335E+03  1.31056E+03  1.63975E+03  3.96231E+03 -1.90010E+03  4.68584E+03 -5.21715E+03  3.14634E+03
 -6.75384E+03 -1.54051E+03 -1.98535E+03 -3.49982E+03  2.01533E+02 -5.00222E+03  5.06385E+03 -5.92785E+03
  5.80756E+03 -4.04021E+03  7.31901E+03 -5.99945E+01  4.72808E+03  4.50114E+03  4.37050E+02  6.97326E+03
 -2.87986E+03  6.89642E+03 -4.06096E+03  1.14652E+03 -3.12700E+03 -1.09930E+03 -1.37024E+03 -9.24238E+02
  4.27993E+02 -1.02771E+02 -1.71909E+03  1.45471E+03 -3.46859E+03  1.76797E+03 -3.48252E+03 -1.38251E+03
 -1.44674E+03 -3.93744E+03 -5.31246E+02 -5.90655E+03  3.84168E+03 -6.24987E+03  3.53181E+03 -2.04649E+03
  5.00132E+03  3.01630E+03  1.89211E+03  4.39809E+03 -1.91544E+03  5.78659E+03 -2.88715E+03  4.27714E+03
 -4.44322E+03  1.34450E+03 -3.14913E+03 -2.93044E+03 -6.32901E+02 -2.76073E+03  1.64410E+03 -3.57170E+03
  2.57602E+03 -7.18907E+02  1.73835E+03  1.00734E+03  1.07968E+03  1.31632E+03  1.05560E+03  1.34725E+03
  1.78146E+03 -6.58806E+01  2.11625E+03  6.06439E+02  1.91769E+03  3.27725E+03  1.30015E+03  1.98614E+03
 -1.29311E+03  3.77222E+03 -3.56174E+03  4.18876E+03 -4.28507E+03  1.72123E+03 -4.86498E+03 -1.44327E+03
 -3.36923E+03 -4.51167E+03  3.80507E+02 -5.62154E+03  2.19718E+03 -2.87501E+03  2.31133E+03 -1.28758E+03
  3.44411E+03  1.30157E+03  9.59123E+02  2.64574E+03  2.12544E+02  1.04530E+03 -1.04311E+03 -3.01834E+02
 -1.79401E+03 -3.32835E+03  1.77232E+03 -1.89550E+03  2.06724E+03 -1.03083E+03  1.69678E+03 -4.76421E+02
  1.19647E+03  5.18624E+02 -9.68309E+02 -4.44638E+02 -6.00937E+02  1.61748E+02  2.03543E+03 -8.42209E+02
 -1.33340E+03 -7.84062E+02  1.21066E+03  1.73384E+03  1.90509E+03  2.51598E+03 -6.14513E+02  3.75911E+03
 -2.56549E+03  2.23578E+03 -3.03375E+03  1.58852E+02 -2.55980E+03 -1.91364E+03 -1.18679E+02 -6.15869E+02
  1.21133E+03 -9.07364E+02  1.21417E+03 -9.40173E+02  4.17918E+02  9.78674E+02 -9.89679E+02  1.83807E+03
 -2.44101E+03  1.20235E+03 -6.20969E+02 -2.23491E+03 -3.62785E+02 -2.98452E+03  1.38031E+03 -1.45138E+03
  1.08463E+03 -1.86814E+03  1.54086E+03  1.23880E+03  1.93699E+02  1.38056E+03  3.08237E+02  2.13210E+03
 -4.47940E+02 -9.32043E+01 -2.03138E+03 -1.10278E+03  8.75883E+02 -1.46920E+03  1.52356E+03 -2.01513E+03
  2.18142E+03  1.25859E+03  3.33921E+03  1.41172E+03  7.67317E+02  3.20139E+03  2.57863E+02  1.64768E+03
 -3.42182E+02  6.49944E+02 -1.40226E+03  1.72594E+02 -2.10699E+03 -1.76875E+03  1.00544E+03 -1.30725E+03
  1.78288E+03 -1.23273E+03  1.30036E+03  1.43841E+02  9.51908E+01  2.15855E+03  3.41212E+02  1.26418E+03
 -5.28952E+02  9.23563E+02 -1.64285E+03  3.51103E+02  6.04274E+02 -1.61252E+02  9.66701E+02  6.72867E+02
 -1.19652E+03  6.19435E+02 -2.59876E+03  1.74287E+03 -6.91021E+02 -4.57543E+01 -3.06929E+03 -7.51940E+02
 -1.39917E+03 -3.40967E+03 -6.42714E+01 -4.15027E+03  1.49668E+03 -2.81460E+03  3.80880E+03 -1.31106E+03
  3.67456E+03 -8.65574E+02  1.56771E+03  3.13157E+03  9.18297E+01  2.64935E+03 -7.95208E+01  1.15624E+03
 -1.08681E+03  3.35947E+02 -1.43974E+03 -2.39414E+02 -1.04819E+03  3.93285E+00 -1.25366E+03 -5.68281E+00
 -8.16126E+00  1.81399E+02 -8.47620E+02  5.89040E+02  9.00010E+02 -6.27041E+02  8.30913E+01 -9.69941E+02
  6.77700E+02 -1.67393E+03  1.00440E+03  2.33811E+02  1.28407E+03  6.99580E+02  5.29386E+02  2.10697E+03
 -9.52592E+02  2.64567E+03 -1.95924E+03  1.67273E+03 -2.53202E+03  2.59877E+02 -1.52852E+03 -2.99824E+03
 -8.86968E+02 -1.99877E+03  2.48609E+02 -6.85809E+02  1.62587E+03 -9.68369E+02  1.67839E+03  4.91698E+02
  2.20119E+02  1.03015E+03  5.65257E+01  4.15069E+02  8.25934E+01  5.88902E+01 -3.75271E+01 -1.55423E+02
  7.12542E+02  2.84297E+02  2.07402E+02 -3.51169E+01  4.63413E+01  8.70647E+02  1.27446E+02  2.69402E+02
 -4.85489E+02 -5.24477E+01 -9.32479E+02  3.41230E+02 -1.30737E+03 -1.23859E-01 -4.25990E+02 -1.40321E+03
  1.27591E+02 -1.59814E+03  1.40713E+03 -9.35597E+02  1.22579E+03 -8.02927E+02  1.39109E+03  1.21169E+03
  7.12115E+02  7.62462E+02 -7.04060E+02  5.41825E+00 -1.05501E+03  2.79640E+01  6.93553E+02  1.09170E+03
  7.55347E+02  6.30906E+02 -6.94995E+02  1.90108E+00 -1.28506E+03  4.90942E+02 -1.32051E+03 -7.55726E+02
 -2.15361E+03 -1.02293E+03 -4.51565E+01 -2.18885E+03  9.64923E+02 -2.56007E+03  8.58476E+02 -1.22198E+02
  3.02975E+03 -2.95851E+02  6.30841E+02 -2.82758E+02 -2.03112E+02  1.21686E+03 -1.38293E+03  1.07865E+03
