 $NMID ID='MM_0lb_SNR200_9hz_g55_81.RAW', FMTDAT='(8E13.5)'
 TRAMP=1., VOLUME=1. $END
  3.09152E+05  1.98889E+03  3.36494E+05  2.51005E+05  8.52327E+04  3.39326E+05 -1.31637E+05  2.52285E+05
 -1.90825E+05  8.31114E+04 -1.12355E+05 -3.23665E+04  1.09002E+03 -5.12748E+04  5.33751E+04 -3.59798E+02
  3.44164E+04  5.24320E+04 -1.61823E+04  7.46301E+04 -6.08451E+04  6.52290E+04 -8.44711E+04  3.32493E+04
 -8.31741E+04 -1.13560E+04 -5.90924E+04 -5.16949E+04 -1.46850E+04 -7.07690E+04  2.83396E+04 -4.63846E+04
  4.24556E+04  3.43840E+03  1.68869E+04  4.87134E+04 -3.43825E+04  4.87906E+04 -6.79017E+04 -1.58063E+03
 -5.34775E+04 -5.60535E+04 -6.30784E+03 -7.82320E+04  3.39523E+04 -5.70656E+04  4.87228E+04 -1.93017E+04
  4.29289E+04  1.09998E+04  3.26612E+04  2.59058E+04  1.71821E+04  3.01858E+04 -6.82632E+03  2.82662E+04
 -2.32610E+04  1.25164E+04 -1.83492E+04 -4.60033E+03  8.06288E+03 -8.52901E+03  2.30093E+04  1.45964E+04
  8.26833E+03  3.89500E+04 -3.44044E+04  3.56357E+04 -6.65209E+04  1.59350E+03 -5.80578E+04 -4.59935E+04
 -1.28018E+04 -6.71095E+04  4.13763E+04 -4.95532E+04  6.18898E+04 -1.25088E+03  3.73811E+04  3.47485E+04
 -3.03552E+03  3.85588E+04 -3.04958E+04  1.79742E+04 -3.42813E+04 -3.19204E+03 -1.87926E+04 -1.26735E+04
 -1.04666E+04 -1.59374E+04  4.33457E+02 -1.95092E+04  8.61312E+03 -2.29616E+04  1.63311E+04 -1.24511E+04
  1.01180E+04  7.62572E+03 -1.04587E+04  1.26706E+04 -2.34608E+04 -7.58915E+03 -7.75532E+03 -3.91627E+04
  2.53358E+04 -4.76599E+04  5.19521E+04 -2.17998E+04  4.87361E+04  2.04943E+04  1.79255E+04  4.74923E+04
 -1.75158E+04  3.68476E+04 -2.80109E+04  2.41570E+03 -1.34311E+04 -2.95583E+04  2.19909E+04 -3.77411E+04
  4.52136E+04 -1.05369E+04  3.95838E+04  2.49021E+04  2.19782E+04  5.24516E+04 -8.65552E+03  5.70141E+04
 -3.65457E+04  3.83840E+04 -4.63818E+04  1.12052E+04 -4.71406E+04 -1.94472E+04 -2.63821E+04 -4.22306E+04
  9.36149E+03 -4.27750E+04  3.49963E+04 -1.78855E+04  3.27165E+04  1.11188E+04  4.50755E+03  2.20272E+04
 -1.47026E+04  1.00199E+04 -1.16123E+04 -7.37842E+03  8.13778E+03 -1.18447E+04  2.02346E+04  5.80563E+03
  1.56024E+04  2.38272E+04 -4.56367E+03  2.61204E+04 -2.24395E+04  1.49594E+04 -3.32948E+04 -2.98016E+03
 -2.72008E+04 -1.98630E+04 -1.28196E+04 -2.58703E+04  3.30700E+03 -2.62614E+04  1.99360E+04 -2.30131E+04
  3.24219E+04 -1.28902E+04  4.03618E+04  5.01052E+03  2.91042E+04  2.49049E+04  5.50367E+03  4.13806E+04
 -1.91751E+04  3.43504E+04 -3.09987E+04  1.07303E+04 -2.18348E+04 -1.17007E+04 -4.40357E+03 -1.21378E+04
  6.99779E+02 -1.33877E+03 -9.47114E+03  7.74533E+03 -2.12948E+04  4.96727E+03 -2.13983E+04 -1.14825E+04
 -1.28071E+04 -2.27297E+04  5.62965E+03 -2.69511E+04  2.00089E+04 -1.91437E+04  2.41646E+04 -1.83906E+03
  1.38121E+04  1.55258E+04 -2.35726E+03  2.29545E+04 -1.72058E+04  1.37608E+04 -2.52478E+04 -4.39848E+03
 -1.87964E+04 -1.99881E+04 -1.89098E+03 -2.86388E+04  1.43638E+04 -2.36838E+04  2.27839E+04 -1.17927E+04
  2.22468E+04 -5.02991E+02  1.58497E+04  4.33043E+03  8.49240E+03  3.00572E+03  1.32600E+04 -1.93786E+03
  2.12039E+04  3.50815E+03  2.57561E+04  1.98902E+04  1.88232E+04  3.85057E+04 -2.47991E+03  4.51387E+04
 -2.58862E+04  3.67870E+04 -4.32803E+04  1.97734E+04 -4.65579E+04 -2.93043E+03 -3.72403E+04 -2.51704E+04
 -1.53149E+04 -3.78388E+04  1.30443E+04 -3.22035E+04  2.97848E+04 -1.50288E+04  2.59510E+04  7.01798E+03
  8.19824E+03  2.08287E+04 -1.11845E+04  1.72523E+04 -1.98869E+04  2.86434E+03 -1.61582E+04 -1.39724E+04
  1.51077E+03 -1.92505E+04  9.86839E+03 -1.33462E+04  1.36161E+04 -1.13742E+03  3.03116E+03  9.03825E+03
 -9.52441E+03  4.49368E+03 -9.25009E+03 -7.16286E+03 -2.07204E+03 -1.78398E+04  1.25086E+04 -2.11054E+04
  2.34460E+04 -1.24912E+04  2.78995E+04  3.80763E+03  2.29915E+04  1.84430E+04  9.76737E+03  3.00017E+04
 -5.44569E+03  3.24001E+04 -1.99614E+04  1.96426E+04 -2.33444E+04  4.46605E+03 -1.61755E+04 -4.64338E+03
 -4.94298E+03 -7.99447E+03 -1.43933E+03  6.03588E+02 -3.39853E+03  4.54703E+03 -7.32472E+03  5.79169E+03
 -1.54005E+04 -4.59697E+02 -1.54793E+04 -1.42297E+04 -4.84060E+03 -2.18299E+04  7.22753E+03 -1.45479E+04
  1.26127E+04 -6.10447E+03  9.76604E+03  6.11139E+03 -6.37074E+01  7.69051E+03 -9.04453E+03 -1.02084E+02
 -6.12330E+03 -1.03847E+04 -9.61538E+02 -1.57695E+04  9.06867E+03 -1.70956E+04  2.17905E+04 -8.36559E+03
  2.40742E+04  1.99286E+03  1.83695E+04  1.59337E+04  4.16763E+03  1.96515E+04 -7.99347E+03  1.51832E+04
 -1.37890E+04  4.21687E+03 -7.53195E+03 -3.57403E+03  2.45941E+03 -3.53968E+03  7.79031E+03 -9.69926E+02
  6.61709E+03  7.66013E+03 -4.19344E+02  1.55970E+04 -9.00693E+03  1.32487E+04 -1.64085E+04  2.92596E+03
 -1.21261E+04 -8.00390E+03  1.02454E+03 -1.40420E+04  9.32037E+03 -6.40540E+03  9.25698E+03  3.57720E+03
  1.38008E+03  9.31587E+03 -1.01142E+04  1.19863E+04 -1.53108E+04  6.53519E+03 -1.42173E+04 -5.15141E+03
 -6.63526E+03 -1.73992E+04  3.08857E+03 -1.92620E+04  1.64577E+04 -1.11268E+04  1.80173E+04  3.36706E+03
  1.00166E+04  1.21244E+04 -3.46449E+03  1.64731E+04 -1.10666E+04  8.94423E+03 -1.25735E+04 -5.15109E+02
 -1.04404E+04 -1.19451E+04 -1.68368E+03 -1.26966E+04  5.54265E+03 -1.11099E+04  8.99448E+03 -4.59470E+03
  4.13446E+03  2.53607E+03 -1.43252E+03  2.94485E+03  2.58493E+02 -2.30827E+03  3.35972E+03 -8.68899E+03
  1.33142E+04 -6.01368E+03  1.66787E+04  1.81459E+03  1.71331E+04  9.52982E+03  1.08236E+04  2.20626E+04
 -5.48002E+03  2.36396E+04 -2.04351E+04  1.98541E+04 -2.63754E+04  2.87886E+03 -2.23563E+04 -9.93360E+03
 -1.16266E+04 -1.73688E+04  2.43362E+02 -1.55145E+04  5.73749E+03 -7.85806E+03  6.34233E+03 -5.14107E+03
  3.91264E+03 -3.26343E+03  3.27972E+03 -5.48285E+03  6.26227E+03 -4.78344E+03  8.17452E+03 -2.09665E+03
  1.15747E+04  1.54688E+03  6.28130E+03  9.71177E+03 -2.50799E+03  1.06979E+04 -1.30718E+04  8.97057E+03
 -1.69106E+04 -3.45374E+02 -9.26337E+03 -1.08250E+04 -1.46400E+03 -1.68944E+04  8.21757E+03 -1.64418E+04
  1.76508E+04 -9.38571E+03  2.02517E+04  2.07663E+03  1.61952E+04  1.35595E+04  1.81291E+03  1.74360E+04
 -7.65407E+03  1.51302E+04 -1.02279E+04  6.22589E+03 -9.49367E+03 -2.64263E+03 -1.30847E+03 -2.20148E+03
 -2.08576E+03 -4.47757E+02 -1.76716E+03  2.62495E+03 -4.72538E+03  4.25664E+03 -1.07661E+04 -1.07326E+03
 -8.03302E+03 -1.10871E+04  5.48412E+02 -1.64714E+04  8.79836E+03 -1.43961E+04  1.53792E+04 -4.24128E+03
  1.55100E+04  6.09352E+03  8.15794E+03  1.62329E+04 -2.87664E+03  1.58772E+04 -9.40015E+03  1.01447E+04
 -1.30207E+04 -1.34920E+03 -1.21037E+04 -1.01473E+04 -1.22713E+03 -1.30836E+04  5.14157E+03 -1.01926E+04
  1.14090E+04 -5.08668E+03  8.12969E+03  2.40393E+03  3.08163E+03  3.25436E+03  2.75753E+03  2.48589E+03
  3.54642E+03  2.10230E+03  3.80072E+03  2.12141E+03  4.21478E+03  5.60261E+03  4.06701E+03  8.87590E+03
 -3.23087E+03  1.21454E+04 -1.20668E+04  1.18134E+04 -1.79448E+04  3.16176E+03 -1.57135E+04 -7.74136E+03
 -8.23157E+03 -1.53536E+04  2.42504E+03 -1.60965E+04  1.07002E+04 -1.27378E+04  1.33991E+04 -2.28558E+03
  1.04779E+04  5.90970E+03  3.38148E+03  9.31577E+03 -3.43810E+03  5.92478E+03 -8.10095E+03 -9.71143E+02
 -3.74176E+03 -7.84464E+03  4.97270E+03 -6.74721E+03  6.26153E+03 -4.13923E+03  5.05324E+03  3.05160E+02
  3.68771E+03  2.66271E+03  2.95220E+03  3.93639E+03 -2.00331E+03  1.79881E+03  2.03161E+03 -4.33166E+02
  1.75661E+03 -2.32697E+02  7.59255E+03  2.22372E+03  3.96143E+03  7.91963E+03 -7.47069E+02  1.21355E+04
 -7.12828E+03  8.52244E+03 -9.81165E+03  1.88653E+03 -8.61467E+03 -4.60205E+03 -4.38501E+03 -5.17602E+03
  1.67711E+03 -7.09677E+03  5.05965E+03 -3.39009E+03  4.31210E+03  3.63376E+03 -2.61052E+03  6.40800E+03
 -6.29221E+03  2.37397E+03 -8.36335E+03 -4.50697E+03 -4.35283E+03 -8.91873E+03  5.39522E+02 -7.73256E+03
  6.09931E+03 -4.53076E+03  6.76860E+03 -4.55486E+02  5.19284E+03  2.97333E+03  6.67715E+02  6.38273E+03
 -5.59898E+02  2.65715E+03 -4.98616E+03 -2.22132E+03  8.08944E+02 -7.78660E+03  7.99796E+03 -5.77364E+03
  1.06509E+04  3.58756E+02  9.63091E+03  6.74476E+03  3.00884E+03  1.20296E+04 -4.57632E+03  1.12464E+04
 -8.03417E+03  4.15471E+03 -9.25036E+03 -1.94042E+03 -4.89069E+03 -6.69567E+03  1.25831E+03 -5.52825E+03
  7.88311E+03 -2.33483E+03  7.47347E+03  3.44097E+03  2.37657E+03  5.60843E+03  1.86831E+03  4.06937E+03
 -4.34330E+03  2.43244E+03 -2.48646E+03  1.28104E+03 -1.26843E+03  9.36286E+02 -1.11413E+03  3.02564E+03
 -1.78631E+03  3.89440E+03 -6.22523E+03  4.21200E+03 -9.92434E+03  1.25473E+02 -1.20719E+04 -6.70100E+03
 -7.78716E+03 -1.33063E+04  1.82624E+03 -1.74333E+04  1.06597E+04 -9.92580E+03  1.49215E+04 -5.77734E+03
  1.43244E+04  4.28137E+03  9.57861E+03  1.06806E+04  4.93265E+02  1.08173E+04 -4.12289E+03  6.84987E+03
 -6.50110E+03  2.08231E+03 -4.23906E+03 -1.48056E+03 -2.49211E+02 -1.68399E+03 -8.77968E+02  1.14333E+03
 -2.20199E+03  3.08322E+02 -1.24217E+03 -1.13782E+03  5.85646E+02 -6.40522E+02  1.17162E+03 -4.36975E+03
  4.71845E+03 -5.05560E+03  6.70782E+03  6.23245E+02  7.67848E+03  6.63878E+03  2.54374E+03  1.04438E+04
 -5.56044E+03  1.30087E+04 -1.19451E+04  7.49948E+03 -1.43371E+04 -2.28121E+03 -1.10410E+04 -6.65263E+03
 -3.01916E+03 -1.16143E+04  2.21527E+03 -9.77988E+03  6.74314E+03 -5.18249E+03  7.22872E+03 -4.65695E+02
  4.49321E+03  4.10123E+03 -1.90748E+03  3.37943E+03 -1.95343E+03  4.47089E+02  2.15952E+02 -4.01951E+03
  3.86582E+03 -3.19851E+03  4.05152E+03  4.45460E+02  3.61302E+03  3.66072E+03  6.39237E+02  4.95346E+03
 -3.68025E+03  4.44737E+03 -8.57244E+03  3.86371E+02 -5.31568E+03 -5.24936E+03 -5.24069E+02 -8.44189E+03
  5.88960E+03 -8.09879E+03  7.46017E+03 -2.52319E+03  8.92114E+03  1.88266E+03  6.47608E+03  7.10978E+03
  1.36785E+03  6.66730E+03 -1.98036E+03  5.98390E+03 -5.16892E+03  4.08475E+03 -2.14312E+03  1.19108E+02
 -1.89514E+03 -1.17421E+03  4.52168E+02  9.38794E+02 -4.24864E+03 -5.12019E+02 -6.56568E+03 -1.31359E+03
 -5.08502E+03 -4.19357E+03 -7.25915E+02 -8.16337E+03  4.59876E+03 -8.07615E+03  6.52439E+03 -4.17235E+03
  8.88593E+03  2.49954E+03  3.25609E+03  4.77080E+03 -1.41470E+03  7.06650E+03 -5.53503E+03  4.79802E+03
