 $NMID ID='MM_0lb_SNR200_18hz_g40_22.RAW', FMTDAT='(8E13.5)'
 TRAMP=1., VOLUME=1. $END
  3.09069E+05  1.50599E+03  3.37079E+05  2.50517E+05  8.49970E+04  3.37384E+05 -1.32394E+05  2.48743E+05
 -1.89164E+05  8.19285E+04 -1.10609E+05 -3.30360E+04  1.82425E+03 -5.00668E+04  5.50064E+04 -9.44861E+02
  3.48326E+04  5.22062E+04 -1.69055E+04  7.35792E+04 -6.06499E+04  6.38729E+04 -8.23188E+04  3.13140E+04
 -7.86481E+04 -1.14267E+04 -5.59809E+04 -5.03496E+04 -1.52095E+04 -6.75049E+04  2.72255E+04 -4.50557E+04
  3.78860E+04  2.97063E+03  1.68587E+04  4.61814E+04 -3.41457E+04  4.59957E+04 -6.44940E+04 -1.51932E+03
 -5.22212E+04 -5.69479E+04 -6.42968E+03 -7.55721E+04  3.30463E+04 -5.41947E+04  4.65913E+04 -1.71560E+04
  4.02982E+04  1.20152E+04  3.06687E+04  2.43808E+04  1.51592E+04  2.79330E+04 -4.96942E+03  2.73040E+04
 -2.20896E+04  1.26905E+04 -1.86083E+04 -4.22212E+03  4.57301E+03 -7.26470E+03  2.10712E+04  1.15466E+04
  7.53956E+03  3.33158E+04 -3.06920E+04  3.46097E+04 -6.10983E+04  1.61727E+03 -5.51098E+04 -4.22741E+04
 -1.28187E+04 -6.09231E+04  3.80314E+04 -4.24317E+04  5.52277E+04 -1.23230E+03  3.10869E+04  3.03515E+04
 -6.80010E+03  3.20368E+04 -2.86945E+04  1.30399E+04 -2.75707E+04 -3.89771E+03 -1.40500E+04 -9.06771E+03
 -7.34925E+03 -1.12208E+04 -6.34464E+02 -1.59527E+04  6.51085E+03 -2.24099E+04  1.47345E+04 -1.32418E+04
  1.19527E+04  4.06014E+03 -6.49937E+03  1.23588E+04 -1.91305E+04 -2.63663E+03 -8.15278E+03 -2.97671E+04
  2.05920E+04 -4.12475E+04  4.37575E+04 -1.85851E+04  4.19930E+04  1.74807E+04  1.41942E+04  4.19179E+04
 -1.44530E+04  3.11746E+04 -2.23361E+04  7.47928E+02 -9.01462E+03 -2.62948E+04  2.07901E+04 -3.01615E+04
  3.83725E+04 -7.13277E+03  2.93967E+04  2.18038E+04  1.48813E+04  4.18066E+04 -8.73303E+03  4.49699E+04
 -2.84797E+04  2.86339E+04 -3.67952E+04  8.12622E+03 -3.78181E+04 -1.53317E+04 -2.10097E+04 -3.40547E+04
  7.62020E+03 -3.44486E+04  2.80374E+04 -1.31945E+04  2.63956E+04  1.05211E+04  2.56708E+03  1.72077E+04
 -1.24666E+04  7.27597E+03 -9.77302E+03 -8.01448E+03  6.32718E+03 -1.07734E+04  1.74899E+04  6.29855E+03
  1.24239E+04  2.08111E+04 -6.29637E+03  2.23378E+04 -2.22454E+04  9.35472E+03 -2.45214E+04 -5.87162E+03
 -1.68110E+04 -1.61255E+04 -3.85603E+03 -1.59139E+04  3.36974E+03 -1.49568E+04  1.25651E+04 -1.41746E+04
  2.07074E+04 -1.13749E+04  2.65616E+04  1.63755E+03  2.23996E+04  1.65139E+04  3.82760E+03  3.22489E+04
 -1.62717E+04  2.71932E+04 -2.57239E+04  9.82088E+03 -1.85398E+04 -9.68792E+03 -4.17704E+03 -1.39971E+04
  2.37726E+03 -3.22159E+03 -1.71723E+03  5.65201E+03 -1.35539E+04  4.58899E+03 -1.38716E+04 -4.40182E+03
 -8.98217E+03 -1.50638E+04  4.13500E+03 -1.86503E+04  1.09851E+04 -1.36887E+04  1.48268E+04 -5.38534E+02
  8.33175E+03  1.06830E+04 -4.92971E+02  1.61407E+04 -1.02948E+04  8.65000E+03 -1.42533E+04 -4.08534E+03
 -1.00314E+04 -1.34225E+04 -1.91798E+03 -1.88435E+04  7.88541E+03 -1.62372E+04  1.56010E+04 -7.24529E+03
  1.37262E+04  9.92248E+02  9.47815E+03  3.78431E+03  5.47194E+03  1.68676E+03  8.18371E+03 -7.54390E+02
  1.35085E+04  2.27225E+03  1.34195E+04  1.20472E+04  8.62283E+03  2.43144E+04 -3.36545E+03  2.62079E+04
 -1.50912E+04  2.06055E+04 -2.46945E+04  9.12153E+03 -2.41854E+04 -2.53675E+03 -2.11995E+04 -1.43636E+04
 -1.03950E+04 -2.07649E+04  6.98580E+03 -1.86484E+04  1.67571E+04 -1.07102E+04  1.51712E+04  3.71287E+03
  6.72884E+03  1.07353E+04 -7.53285E+03  1.08189E+04 -1.45121E+04  3.14474E+03 -1.03464E+04 -8.36301E+03
  5.77103E+02 -1.24454E+04  6.65239E+03 -1.02917E+04  8.23509E+03 -1.20013E+03  3.16666E+02  5.91970E+03
 -5.69949E+03  1.02467E+03 -3.05306E+03 -4.50602E+03  1.32402E+03 -1.03502E+04  7.80619E+03 -1.01199E+04
  1.05346E+04 -4.70092E+03  1.08565E+04  2.85584E+03  1.08638E+04  9.20043E+03  4.81495E+03  1.43223E+04
 -9.55667E+02  1.52530E+04 -9.18368E+03  1.09256E+04 -1.13558E+04  2.82497E+03 -7.83664E+03 -2.52470E+03
 -5.05411E+03 -2.87427E+03 -2.22850E+03  2.04280E+03 -1.43710E+03  2.59346E+03 -4.46088E+03  4.64116E+03
 -7.55625E+03 -1.07018E+03 -9.93546E+03 -6.73686E+03 -3.15289E+03 -1.06156E+04  3.50517E+03 -9.03014E+03
  6.81560E+03 -3.88172E+03  5.11733E+03  2.29078E+03  9.20790E+02  4.42485E+03 -4.17264E+03  4.36224E+02
 -3.35044E+03 -5.23304E+03 -3.13126E+02 -7.37671E+03  4.64107E+03 -7.98002E+03  9.37333E+03 -4.67948E+03
  1.04467E+04  8.58125E+02  9.20178E+03  6.21626E+03  5.47721E+02  8.18187E+03 -5.16007E+03  8.36854E+03
 -6.77637E+03  2.07230E+03 -4.09042E+03 -1.06029E+03  1.31620E+03 -2.41793E+03  4.76308E+03  3.79924E+02
  3.88341E+03  3.07045E+03  1.03403E+03  6.87793E+03 -4.88894E+03  5.72909E+03 -7.44185E+03  3.10905E+03
 -4.84364E+03 -3.41042E+03  1.12791E+03 -6.08305E+03  4.21087E+03 -2.65828E+03  2.82872E+03  9.68992E+02
  1.86514E+02  3.12925E+03 -3.81779E+03  4.57319E+03 -4.94111E+03  2.41271E+03 -5.13496E+03 -1.94380E+03
 -2.70294E+03 -5.58944E+03  1.23203E+03 -7.53840E+03  5.40190E+03 -5.62484E+03  6.88805E+03  1.53576E+02
  4.42775E+03  6.04236E+03 -1.17960E+03  7.53430E+03 -5.43373E+03  4.03767E+03 -6.02614E+03  1.29477E+02
 -5.38993E+03 -5.67664E+03 -1.79478E+03 -5.67209E+03  2.54080E+03 -5.30670E+03  3.12120E+03 -2.99648E+03
  2.54827E+03  1.38615E+03  3.50356E+02  2.07569E+03  1.28651E+02  2.24156E+02  6.00976E+02 -1.57947E+03
  4.48408E+03 -1.58286E+02  4.59905E+03  5.92550E+02  5.55931E+03  2.25157E+03  5.79859E+03  7.88598E+03
 -8.73541E+02  8.55621E+03 -7.09847E+03  6.18085E+03 -1.03046E+04  1.28708E+03 -8.47436E+03 -1.82700E+03
 -4.43504E+03 -6.04940E+03 -1.12432E+02 -5.17615E+03  1.96157E+03 -1.79724E+03  1.22480E+03 -2.04082E+03
  9.42332E+02 -1.65345E+03  2.98344E+03 -2.17232E+03  3.89419E+03 -1.80081E+03  3.30299E+03  1.19563E+03
  4.40322E+03  3.85026E+02  1.87290E+03  3.50898E+03 -1.40307E+03  2.53071E+03 -5.03486E+03  2.73054E+03
 -5.01386E+03 -1.04400E+03 -1.72779E+03 -3.27956E+03  5.95939E+02 -5.05980E+03  2.79561E+03 -5.21304E+03
  5.14051E+03 -3.76115E+03  6.65655E+03  2.09903E+02  5.37094E+03  3.80008E+03 -2.21591E+02  5.42878E+03
 -2.35842E+03  5.50714E+03 -4.00923E+03  2.81864E+03 -1.84713E+03 -8.37550E+02 -4.41853E+02 -1.18589E+03
 -1.55304E+03  1.07374E+03 -9.39237E+02  1.62185E+03 -2.04750E+03  1.10823E+03 -3.28161E+03 -1.06290E+03
 -1.39602E+03 -5.07844E+03  8.71389E+02 -4.52268E+03  3.28060E+03 -3.39282E+03  3.34973E+03 -1.07322E+03
  4.69732E+03  2.25234E+03  2.33800E+03  3.57154E+03 -9.37530E+02  4.53999E+03 -3.14426E+03  2.88911E+03
 -3.32681E+03 -6.17073E+02 -5.01157E+03 -3.18742E+03  1.09882E+03 -3.31024E+03  1.74103E+03 -3.49773E+03
  2.98323E+03 -1.51272E+03  2.11252E+03  9.05452E+02 -5.11273E+01  1.51994E+03  6.02898E+02  9.03110E+02
  1.17972E+03  3.75729E+02  3.56788E+02  1.01455E+03  1.35302E+03  2.74420E+03  2.40959E+03  1.26776E+03
 -1.45089E+03  2.85359E+03 -1.99368E+03  4.67383E+03 -3.85326E+03  1.13632E+03 -4.38104E+03 -3.98459E+02
 -2.34964E+03 -4.56180E+03  1.15443E+03 -4.56286E+03  2.62905E+03 -2.40249E+03  4.24524E+03 -1.32497E+03
  3.16812E+03  2.84166E+03  1.04578E+03  1.37458E+03 -1.29915E+03  1.66269E+03 -2.06324E+03 -1.05553E+02
 -4.02919E+02 -1.12043E+03  1.74608E+03 -1.66038E+03  2.02459E+03  2.59467E+02  1.99104E+03  1.22352E+03
  1.66121E+03  2.04748E+03  3.09085E+02  5.28674E+02 -1.16933E+03  1.64801E+03  1.39175E+03 -5.74420E+02
  3.50580E+02 -1.25609E+02  8.64582E+02  3.87938E+02  9.86396E+02  3.53357E+03 -9.69326E+02  2.89983E+03
 -1.98607E+03  1.49371E+03 -1.13565E+03  6.07581E+02 -1.28755E+03 -5.27653E+02  1.67932E+02 -1.62972E+03
  5.12346E+02 -1.36389E+03 -6.83430E+01 -1.49724E+03  4.12582E+01  1.25890E+03  3.09959E+01  1.94266E+03
 -1.46082E+03 -2.06870E+02 -2.91768E+03 -6.70074E+02 -1.50195E+02 -2.74499E+03  1.28090E+02 -1.56766E+03
  9.98929E+02 -5.58046E+02  1.98787E+02  4.92034E+02  1.68892E+03  6.97338E+02 -1.01039E+01  1.15130E+03
 -5.30485E+02  9.41461E+01 -1.05936E+03  5.35283E+01  7.59396E+02 -2.13712E+03  2.22825E+03 -1.00250E+02
  2.16140E+03  4.80812E+01  2.81756E+03  5.04146E+02  5.54437E+02  8.38842E+02  4.04448E+02  2.25178E+03
 -2.44216E+03  4.31822E+02 -2.20846E+03  1.97256E+02 -4.20836E+02 -2.14469E+03 -8.44870E+02 -7.82354E+02
  1.11230E+03 -4.91859E+02  2.16625E+03  1.22460E+03  5.55343E+02  1.94789E+02 -4.12187E+02  9.11392E+02
  5.54349E+02  1.46655E+03 -1.01286E+03 -6.70916E+02 -4.34752E+02  1.08677E+02 -3.81322E+02  6.23275E+02
 -2.14945E+03  1.85055E+03 -1.65818E+03 -1.64223E+02 -2.39903E+03  9.33727E+02 -3.19508E+03 -4.85443E+02
 -9.74762E+02 -2.71998E+03 -3.29110E+02 -2.73808E+03  1.25805E+03 -2.42663E+03  1.90059E+03 -8.73656E+02
  2.49731E+03 -6.11005E+02  1.19117E+03  1.77387E+03 -5.30625E+02  1.75168E+03 -1.84999E+03  7.69258E+02
 -1.88586E+03  1.76033E+03 -8.91647E+02  4.94373E+02 -1.38313E+03  1.63471E+02 -1.74272E+03 -7.22936E+02
 -1.48511E+03 -1.97611E+02 -8.90458E+02 -5.89062E+02 -1.08970E+02  3.46588E+02 -9.67549E+02 -1.29350E+01
  2.02631E+03 -4.71543E+02 -4.33855E+02  9.06032E+02  1.69531E+03  8.73048E+02 -9.53602E+02  1.13876E+03
 -6.85092E+02  1.72617E+03 -1.40865E+03  2.18109E+03 -2.11592E+03  1.40242E+02 -8.29588E+02 -1.79003E+03
 -1.73360E+03 -1.58706E+03 -2.92893E+02 -3.49513E+02  2.23511E+02 -7.55903E+02  3.27087E+01  7.79753E+02
 -1.47788E+01  1.54267E+03 -1.04957E+02  1.00536E+02 -1.27217E+02 -2.54155E+02 -1.04921E+03 -1.89545E+01
  1.12714E+03 -1.05352E+02 -4.06895E+02 -3.19195E+02  9.57574E+01  3.39888E+01  7.84851E+02 -3.69264E+02
 -1.44627E+03  1.39424E+03 -2.35115E+02  2.46452E+02 -1.21588E+03 -1.30642E+02  1.62392E+02 -1.41911E+03
  6.83157E+02 -5.67738E+02  6.63239E+02 -1.88689E+02  9.75980E+02 -6.99834E+02  6.55024E+02  1.06791E+03
  5.16465E+02  1.38025E+03 -4.31888E+02  9.01245E+02  3.57226E+02 -5.79708E+02 -2.09109E+02  1.72622E+02
  3.03042E+02 -5.81997E+02 -3.35316E+01  9.14562E+02 -2.33379E+02 -5.92597E+02 -5.93846E+02 -9.50235E+02
 -1.58659E+03 -5.20948E+02  7.93808E+02  2.68597E+02  7.69464E+02 -1.40058E+03 -1.02474E+03 -8.50149E+02
  7.93377E+02  2.01346E+02 -1.11634E+03  1.67270E+03  2.91592E+02  9.90706E+02 -1.37237E+03  8.19327E+02
