 $NMID ID='MM_0lb_SNR200_18hz_g45_17.RAW', FMTDAT='(8E13.5)'
 TRAMP=1., VOLUME=1. $END
  3.09472E+05 -2.10668E+02  3.37529E+05  2.50566E+05  8.36172E+04  3.38256E+05 -1.32733E+05  2.49986E+05
 -1.89347E+05  8.27969E+04 -1.10925E+05 -3.30067E+04  8.31793E+02 -5.07537E+04  5.30603E+04 -3.83431E+02
  3.50986E+04  5.39629E+04 -1.76571E+04  7.52965E+04 -6.06268E+04  6.30606E+04 -8.33302E+04  3.09232E+04
 -7.96869E+04 -1.01578E+04 -5.69895E+04 -4.99712E+04 -1.53258E+04 -6.93663E+04  2.76705E+04 -4.41632E+04
  3.83704E+04  3.83812E+03  1.57127E+04  4.62235E+04 -3.35216E+04  4.63364E+04 -6.54694E+04 -1.17263E+03
 -5.16360E+04 -5.62335E+04 -7.18884E+03 -7.52778E+04  3.29019E+04 -5.25142E+04  4.71711E+04 -1.58771E+04
  4.22856E+04  1.13320E+04  3.06215E+04  2.42655E+04  1.55743E+04  2.91919E+04 -4.99087E+03  2.70188E+04
 -2.23031E+04  1.28614E+04 -1.96357E+04 -3.52838E+03  4.97183E+03 -8.57102E+03  1.94616E+04  1.07295E+04
  6.93605E+03  3.29186E+04 -3.07714E+04  3.41299E+04 -6.17573E+04  9.95024E+02 -5.57197E+04 -4.13383E+04
 -1.18538E+04 -6.09679E+04  3.73953E+04 -4.44827E+04  5.63144E+04 -2.39002E+03  3.18633E+04  3.06826E+04
 -6.51288E+03  3.31866E+04 -2.83927E+04  1.43418E+04 -2.78060E+04 -4.04561E+03 -1.48513E+04 -9.93291E+03
 -7.05007E+03 -1.07994E+04 -1.53971E+03 -1.59286E+04  6.00724E+03 -2.19692E+04  1.47720E+04 -1.40929E+04
  1.18517E+04  4.79161E+03 -7.40899E+03  1.40980E+04 -1.89674E+04 -2.61190E+03 -8.23415E+03 -2.96380E+04
  2.03251E+04 -4.13788E+04  4.57498E+04 -1.83664E+04  4.21669E+04  1.86766E+04  1.35218E+04  4.17213E+04
 -1.56398E+04  3.16453E+04 -2.34696E+04  2.32174E+03 -9.22323E+03 -2.64512E+04  2.01974E+04 -3.04145E+04
  3.89301E+04 -6.93222E+03  3.16122E+04  2.20804E+04  1.50369E+04  4.28437E+04 -7.60630E+03  4.60481E+04
 -2.94881E+04  2.98862E+04 -3.73691E+04  8.31004E+03 -3.84853E+04 -1.50253E+04 -2.18708E+04 -3.41468E+04
  7.20857E+03 -3.47433E+04  2.99329E+04 -1.32660E+04  2.74769E+04  1.09731E+04  3.24663E+03  1.78139E+04
 -1.37550E+04  7.17032E+03 -9.69635E+03 -8.59567E+03  5.29066E+03 -1.06053E+04  1.62755E+04  5.29790E+03
  1.27216E+04  2.15128E+04 -5.32993E+03  2.39264E+04 -2.06229E+04  9.75634E+03 -2.50013E+04 -6.48335E+03
 -1.64632E+04 -1.60126E+04 -5.90545E+03 -1.67763E+04  3.99335E+03 -1.53941E+04  1.28575E+04 -1.37763E+04
  2.11351E+04 -1.03683E+04  2.86603E+04  1.72811E+03  2.10651E+04  1.59387E+04  3.54416E+03  3.23494E+04
 -1.60273E+04  2.80255E+04 -2.64498E+04  9.54949E+03 -1.96481E+04 -9.68846E+03 -2.79377E+03 -1.34860E+04
  2.75947E+03 -3.19382E+03 -1.86251E+03  5.11596E+03 -1.33685E+04  4.98157E+03 -1.28953E+04 -5.86350E+03
 -8.00995E+03 -1.61760E+04  4.34637E+03 -1.91639E+04  1.20402E+04 -1.47164E+04  1.39297E+04 -1.81914E+03
  9.23314E+03  1.22476E+04 -7.76815E+01  1.51693E+04 -1.05895E+04  8.68571E+03 -1.55298E+04 -3.65983E+03
 -1.07770E+04 -1.39870E+04 -8.44536E+02 -1.83770E+04  9.10354E+03 -1.54681E+04  1.65203E+04 -7.24503E+03
  1.49679E+04  1.24262E+03  1.05195E+04  3.46379E+03  4.98979E+03  1.87292E+02  7.95548E+03 -2.29781E+03
  1.33775E+04  2.41138E+03  1.54488E+04  1.35305E+04  9.16184E+03  2.50993E+04 -3.22860E+03  2.80304E+04
 -1.48064E+04  2.06390E+04 -2.56937E+04  1.05118E+04 -2.53229E+04 -6.04241E+02 -2.20390E+04 -1.37263E+04
 -1.10584E+04 -2.02081E+04  6.13494E+03 -1.88930E+04  1.81519E+04 -1.11956E+04  1.66671E+04  5.41232E+03
  6.19686E+03  1.08365E+04 -7.49760E+03  1.10230E+04 -1.28240E+04  2.53587E+03 -1.07686E+04 -9.29498E+03
 -7.80522E+02 -1.22993E+04  5.54560E+03 -9.62016E+03  7.84849E+03 -1.03508E+03  2.35292E+03  5.28696E+03
 -4.84398E+03  2.53760E+03 -3.21287E+03 -4.09645E+03  2.32237E+03 -9.84129E+03  7.69286E+03 -9.49497E+03
  1.25959E+04 -3.81154E+03  1.23497E+04  3.67290E+03  1.01292E+04  1.04573E+04  5.05032E+03  1.45551E+04
 -1.89747E+03  1.64100E+04 -9.98592E+03  1.07436E+04 -1.13669E+04  2.51057E+03 -9.38936E+03 -2.75177E+03
 -3.97777E+03 -4.52334E+03  4.34980E+02  1.48122E+03 -2.51684E+03  6.31822E+02 -2.99410E+03  4.08526E+03
 -6.96677E+03  6.82662E+01 -8.48149E+03 -7.45252E+03 -3.32281E+03 -1.13779E+04  3.57471E+03 -8.47121E+03
  6.87586E+03 -3.31917E+03  5.63520E+03  2.72413E+03  1.85743E+02  3.41944E+03 -2.44994E+03 -1.56122E+02
 -2.49218E+03 -5.28339E+03 -5.51518E+02 -8.22068E+03  3.48400E+03 -9.07166E+03  1.02971E+04 -3.76426E+03
  1.14916E+04  4.46936E+01  8.83612E+03  6.66077E+03  1.84317E+03  8.91449E+03 -5.12268E+03  9.23431E+03
 -7.88436E+03  2.41994E+03 -3.48513E+03 -1.37415E+03  1.48088E+03 -1.13273E+03  3.80818E+03 -6.55286E+02
  3.22487E+03  3.91594E+03  1.95382E+03  6.24347E+03 -4.29322E+03  6.29107E+03 -8.82959E+03  9.45132E+02
 -5.54361E+03 -3.97722E+03  3.56942E+02 -6.77879E+03  4.85565E+03 -3.35331E+03  3.74950E+03  7.47761E+02
 -2.67864E+02  3.77067E+03 -3.39432E+03  5.64314E+03 -5.55275E+03  1.80394E+03 -5.79495E+03 -1.92571E+03
 -2.89183E+03 -6.13606E+03  8.98499E+02 -7.35453E+03  5.95967E+03 -5.03957E+03  6.67737E+03  6.46535E+02
  5.89381E+03  5.65137E+03  5.38093E+02  7.05410E+03 -4.94410E+03  3.85568E+03 -5.41279E+03 -2.64670E+02
 -5.19087E+03 -4.87296E+03 -1.16951E+03 -5.48089E+03  2.55907E+03 -3.89120E+03  8.75652E+02 -3.73533E+03
  2.54996E+03 -2.06477E+02 -2.51741E+02  1.43225E+03  5.90190E+02 -9.24610E+02 -3.53781E+02 -1.82462E+03
  4.25247E+03 -1.15369E+03  5.14471E+03  7.11142E+02  6.19806E+03  4.32106E+03  6.30511E+03  7.53097E+03
 -1.35890E+03  8.77570E+03 -8.83775E+03  6.77636E+03 -1.01602E+04  1.40512E+03 -7.67185E+03 -2.88273E+03
 -4.16920E+03 -7.41130E+03 -5.74831E+01 -5.53646E+03  1.75287E+03 -2.01756E+03  2.60216E+03 -2.13995E+03
  1.22789E+03 -1.32357E+03  1.88527E+03 -3.32162E+03  3.49643E+03 -1.51233E+03  4.67721E+03 -9.82806E+02
  4.74976E+03  1.26370E+03  1.55608E+03  3.09478E+03 -1.76347E+03  2.95335E+03 -3.70308E+03  3.52885E+03
 -5.04585E+03 -1.28132E+03 -1.51341E+03 -3.65531E+03  9.98370E+02 -4.46598E+03  4.00172E+03 -5.58754E+03
  5.89703E+03 -4.00566E+03  7.34259E+03 -5.34406E+02  5.25684E+03  4.82548E+03  1.70627E+03  6.95503E+03
 -2.34399E+03  4.71585E+03 -2.65504E+03  1.34700E+03 -2.87420E+03 -1.00294E+03 -1.15440E+03 -7.63905E+02
 -2.60384E+02 -4.22076E+02 -7.53570E+02  2.32974E+03 -2.45436E+03  1.49583E+03 -3.92494E+03 -3.03676E+02
 -1.32944E+03 -2.53386E+03 -2.89987E+02 -4.08736E+03  2.66478E+03 -3.98534E+03  4.19958E+03 -2.48107E+03
  3.70194E+03  1.84694E+03  2.45153E+03  2.57872E+03 -1.14786E+03  5.29764E+03 -3.04977E+03  3.15296E+03
 -3.67592E+03 -6.60458E+02 -4.08999E+03 -2.85030E+03 -9.00377E+02 -2.77722E+03  2.32611E+03 -2.88714E+03
  3.17238E+03 -8.97913E+02  2.25770E+03  4.11058E+02 -6.01695E+02  9.68814E+02  6.92166E+02  6.94466E+02
  2.13223E+03  1.16801E+03  9.10768E+02  2.04680E+03  5.36650E+02  2.45788E+03  1.32606E+03  1.68338E+03
 -2.01486E+03  2.34070E+03 -2.96594E+03  4.80964E+03 -2.60550E+03  1.84435E+03 -4.93306E+03 -8.19349E+02
 -2.50881E+03 -4.50312E+03  1.33348E+01 -4.36265E+03  1.97384E+03 -2.03326E+03  2.10283E+03 -1.50191E+03
  3.68293E+03  1.93882E+03 -4.66723E+02  2.41613E+03 -3.26972E+02  1.08048E+03 -1.16009E+03  1.74852E+02
 -2.27864E+01 -1.47805E+03  2.05231E+03 -2.54300E+03  1.00115E+02 -2.21727E+03  1.49910E+03 -1.08436E+02
  1.28668E+03  8.74793E+02  7.35110E+02 -8.24963E+02 -4.03137E+01  4.21065E+02  2.39018E+03 -3.02616E+02
  6.53225E+02 -3.95357E+02  1.72283E+03  1.27595E+03  7.08059E+02  2.86079E+03 -1.16415E+03  2.19507E+03
 -1.02613E+03  1.22984E+03 -1.58763E+03  8.15778E+02 -1.98611E+03  8.18575E+02 -4.18798E+02 -9.80203E+02
  9.21960E+02 -8.72407E+02  7.88613E+02 -4.04406E+02  8.88917E+02  3.10987E+03 -2.44278E+02  1.53640E+03
 -8.54504E+02  6.49437E+02 -7.89323E+02 -1.79415E+03  3.12744E+01 -1.23735E+03  8.73365E+02 -2.06418E+03
  1.20691E+03 -1.77622E+03  1.49744E+02 -7.93938E+02  2.57657E+03  1.04290E+03 -2.34783E+02  1.00487E+03
 -4.55636E+02 -1.91909E+02 -9.33125E+02 -8.73592E+02  3.50689E+02 -1.66610E+03  1.98538E+03 -1.02157E+03
  1.04463E+03 -1.36029E+02  1.23995E+03  3.05147E+02  4.63400E+02  1.58945E+03  8.86012E+01  3.66067E+03
 -1.39877E+03 -2.91164E+01 -1.55126E+03 -1.27031E+03 -1.01663E+03 -8.61733E+02 -5.37378E+01 -7.75033E+02
  2.30115E+03 -3.73417E+02  7.93802E+02  1.15072E+03  2.13734E+02  1.99000E+03 -1.31119E+01  1.04978E+03
 -3.92826E+01  1.75009E+03  1.09799E+01  4.69041E+02 -8.72731E+02  7.63668E+02 -1.59504E+03  1.46100E+03
 -1.11519E+03  1.24799E+03 -4.19472E+03  1.12707E+03 -1.50671E+03  2.19934E+02 -2.54780E+03 -3.71039E+02
 -1.31012E+03 -2.22640E+03  3.03268E+02 -1.92679E+03 -7.20887E+01 -2.31228E+03  2.68376E+03 -1.92410E+03
  8.94851E+02  6.08786E+01  1.40765E+03  2.69506E+03 -5.34275E+02  1.89440E+03 -1.68553E+03  1.42758E+03
 -1.90580E+03  1.43819E+03 -5.48370E+01 -2.23511E+02 -1.73904E+03  8.42008E+01 -1.17689E+03 -1.00295E+02
 -6.09574E+02 -1.29888E+03  1.13632E+01 -2.10799E+02 -5.44350E+02  9.63607E+01 -3.92008E+02 -1.02184E+03
  8.35409E+02  1.13809E+02  4.45502E+02  6.66451E+02  1.60315E+03  6.42606E+02 -1.12832E+03  1.78812E+03
 -8.40195E+02  2.03226E+03 -9.18426E+02  1.59767E+03 -9.18751E+02 -8.48316E+01 -2.09378E+03 -7.06957E+02
 -9.03149E+02 -1.31094E+03 -6.05961E+01 -5.38714E+02 -4.33797E+02 -2.51094E+01  1.68487E+02 -6.89529E+02
  7.26846E+02  4.98335E+02 -3.66632E+02  9.95026E+02 -7.21113E+02 -3.50845E+02 -2.79321E+02 -4.70936E+02
  2.28347E+02 -3.87736E+01  2.09647E+02  1.15731E+03  3.65130E+02  4.27400E+02 -1.48451E+02 -6.95731E+02
 -9.14200E+01  7.46251E+02 -6.91943E+02  3.12812E+02 -5.33847E+02 -1.03496E+02  1.75399E+01 -1.29455E+03
  8.14938E+02 -1.14247E+03  1.51492E+03 -4.22557E+01  8.13238E+02 -1.57908E+03  9.49860E+02  7.08442E+02
 -3.99844E+02  1.28061E+03  8.04918E+02  2.05673E+02 -1.34489E+03  8.40888E+02 -5.54020E+02  2.05151E+02
  1.01939E+03 -7.81924E+00 -8.03211E+02 -2.24165E+02 -1.00044E+03  1.06446E+03 -4.74403E+02 -3.26191E+02
 -4.80448E+01  3.50467E+02 -7.89255E+02 -1.59373E+03  2.26750E+02 -1.28525E+03  7.44540E+02  7.58316E+02
  7.29544E+02  1.30108E+01 -1.64164E+02  3.71331E+01  1.11683E+02  2.01384E+03 -6.34570E+01  1.90904E+02
