 $NMID ID='MM_0lb_SNR200_11hz_g50_14.RAW', FMTDAT='(8E13.5)'
 TRAMP=1., VOLUME=1. $END
  3.10388E+05 -7.48905E+02  3.37524E+05  2.50051E+05  8.45445E+04  3.37974E+05 -1.32349E+05  2.51635E+05
 -1.90209E+05  8.33659E+04 -1.12846E+05 -3.33396E+04  4.30823E+02 -4.94932E+04  5.41071E+04 -1.60095E+03
  3.40114E+04  5.26400E+04 -1.68549E+04  7.53078E+04 -6.08636E+04  6.57305E+04 -8.39734E+04  3.39987E+04
 -8.22143E+04 -1.19919E+04 -5.82435E+04 -5.11609E+04 -1.43326E+04 -7.04546E+04  2.92995E+04 -4.74074E+04
  4.11100E+04  3.41924E+03  1.51357E+04  4.90728E+04 -3.55837E+04  4.85964E+04 -6.80998E+04  5.44176E+02
 -5.45873E+04 -5.80969E+04 -6.68472E+03 -7.82859E+04  3.40897E+04 -5.57401E+04  4.95709E+04 -1.88630E+04
  4.44980E+04  1.19798E+04  3.17196E+04  2.67291E+04  1.50671E+04  3.08282E+04 -5.38816E+03  2.77827E+04
 -2.38929E+04  1.08491E+04 -1.95647E+04 -4.25624E+03  6.70733E+03 -7.57885E+03  2.43593E+04  1.29881E+04
  7.63739E+03  3.67124E+04 -3.24599E+04  3.82811E+04 -6.42068E+04  2.32428E+03 -5.76537E+04 -4.46075E+04
 -1.26222E+04 -6.47089E+04  4.14458E+04 -4.68133E+04  6.09766E+04 -3.19403E+03  3.57941E+04  3.38849E+04
 -6.94556E+03  3.87616E+04 -3.19160E+04  1.73680E+04 -3.33483E+04 -3.53890E+03 -1.90078E+04 -1.11406E+04
 -9.54868E+03 -1.47355E+04 -1.42985E+02 -1.97136E+04  6.90363E+03 -2.29123E+04  1.47136E+04 -1.36948E+04
  1.07747E+04  4.64339E+03 -1.00933E+04  1.35610E+04 -2.23747E+04 -5.72297E+03 -7.86002E+03 -3.62627E+04
  2.32948E+04 -4.48609E+04  4.93605E+04 -2.09090E+04  4.65533E+04  2.21970E+04  1.62351E+04  4.51514E+04
 -1.57652E+04  3.55378E+04 -2.63764E+04  2.99968E+03 -1.01003E+04 -2.79049E+04  2.18579E+04 -3.52705E+04
  4.37262E+04 -1.03427E+04  3.75209E+04  2.57519E+04  1.89011E+04  4.99498E+04 -7.93813E+03  5.43510E+04
 -3.39865E+04  3.72967E+04 -4.40184E+04  1.07466E+04 -4.58547E+04 -1.62472E+04 -2.46947E+04 -4.10911E+04
  7.61867E+03 -4.09282E+04  3.35304E+04 -1.64692E+04  3.11909E+04  1.06423E+04  5.44124E+03  1.91030E+04
 -1.56161E+04  8.86242E+03 -1.06472E+04 -8.19982E+03  6.43206E+03 -1.18743E+04  1.89873E+04  5.08932E+03
  1.45582E+04  2.17668E+04 -4.85906E+03  2.52674E+04 -2.27567E+04  1.22482E+04 -2.99734E+04 -3.30754E+03
 -2.35757E+04 -1.76867E+04 -1.03188E+04 -2.31648E+04  3.30495E+03 -2.29717E+04  1.80003E+04 -2.15049E+04
  2.92925E+04 -1.28989E+04  3.59136E+04  3.18146E+03  2.53242E+04  2.24322E+04  5.70053E+03  3.84296E+04
 -1.90251E+04  3.21902E+04 -3.01285E+04  9.30326E+03 -2.04387E+04 -1.04032E+04 -6.11338E+03 -1.26573E+04
  2.16195E+03 -2.18386E+03 -6.53021E+03  7.58131E+03 -1.76395E+04  5.28996E+03 -1.78993E+04 -7.56299E+03
 -9.63884E+03 -2.04405E+04  5.83332E+03 -2.68463E+04  1.66524E+04 -1.70755E+04  2.18622E+04 -1.78767E+03
  1.30499E+04  1.38053E+04 -2.11929E+03  2.12553E+04 -1.44850E+04  1.31123E+04 -2.21328E+04 -4.95746E+03
 -1.57850E+04 -1.85638E+04 -3.66465E+03 -2.68748E+04  1.26992E+04 -2.24673E+04  2.05799E+04 -1.19943E+04
  2.02619E+04 -3.25900E+02  1.58744E+04  5.03913E+03  7.64161E+03  7.30251E+02  1.10793E+04 -1.56283E+03
  2.00524E+04  3.33765E+03  2.39902E+04  1.87336E+04  1.56836E+04  3.49214E+04 -2.69398E+03  4.05739E+04
 -2.27849E+04  3.26969E+04 -3.63831E+04  1.68673E+04 -4.11312E+04 -2.18531E+03 -3.30515E+04 -2.26105E+04
 -1.45915E+04 -3.26801E+04  1.12578E+04 -2.85596E+04  2.47471E+04 -1.48559E+04  2.31663E+04  7.86158E+03
  6.95855E+03  1.49779E+04 -1.05551E+04  1.47443E+04 -1.95680E+04  3.18068E+03 -1.43193E+04 -1.34197E+04
  3.76500E+02 -2.00548E+04  9.76202E+03 -1.34879E+04  1.05274E+04 -9.79522E+02  2.04821E+03  6.77263E+03
 -7.92101E+03  2.46369E+03 -8.39681E+03 -6.08454E+03 -1.57990E+03 -1.60522E+04  9.82485E+03 -1.69976E+04
  2.05142E+04 -1.02979E+04  2.17340E+04  3.02270E+03  1.94116E+04  1.68609E+04  8.77971E+03  2.50502E+04
 -4.73511E+03  2.78555E+04 -1.70982E+04  1.72755E+04 -1.95392E+04  3.84771E+03 -1.31091E+04 -4.67170E+03
 -6.36046E+03 -5.10555E+03  8.67769E+02 -8.97635E+00 -1.67717E+03  3.16758E+03 -5.86371E+03  4.75618E+03
 -1.31926E+04 -8.20617E+02 -1.22467E+04 -1.06337E+04 -4.92084E+03 -1.70844E+04  6.63054E+03 -1.48342E+04
  1.11826E+04 -5.81662E+03  6.91790E+03  4.80474E+03 -4.13385E+01  5.94036E+03 -6.30918E+03 -8.46007E+02
 -7.10767E+03 -9.63459E+03 -4.57764E+02 -1.34543E+04  7.97353E+03 -1.41760E+04  1.76283E+04 -6.29909E+03
  2.11510E+04  2.43156E+03  1.59630E+04  1.22329E+04  2.31835E+03  1.59347E+04 -8.34383E+03  1.32307E+04
 -1.17442E+04  4.51958E+03 -4.72646E+03 -2.65914E+03  1.62457E+03 -4.79781E+03  7.55482E+03 -1.40798E+03
  6.95554E+03  6.98909E+03  8.58051E+02  1.09398E+04 -7.78926E+03  9.13763E+03 -1.39480E+04  1.62123E+03
 -9.61733E+03 -6.53645E+03 -2.51126E+02 -1.19533E+04  6.77912E+03 -5.22534E+03  8.16343E+03  3.72080E+03
  3.49031E+03  7.55869E+03 -6.87148E+03  8.51074E+03 -9.51778E+03  3.90756E+03 -1.16526E+04 -3.16048E+03
 -6.17350E+03 -1.18729E+04  5.08614E+03 -1.41541E+04  1.29858E+04 -9.10001E+03  1.40628E+04  3.13804E+03
  8.06143E+03  1.10011E+04 -1.02684E+03  1.27122E+04 -9.77202E+03  6.86667E+03 -1.00793E+04 -1.70368E+03
 -1.04250E+04 -8.37663E+03 -1.44195E+03 -1.08780E+04  5.69407E+03 -7.49502E+03  6.69593E+03 -3.37086E+03
  5.14249E+03  3.23296E+03 -1.50488E+03  1.25570E+03  4.69713E+02 -3.90725E+03  1.00453E+03 -5.19813E+03
  9.79486E+03 -3.24575E+03  1.30034E+04  1.14274E+03  1.32498E+04  1.15907E+04  9.61318E+03  1.79030E+04
 -5.70203E+03  1.93312E+04 -1.59484E+04  1.50781E+04 -2.10294E+04  3.39266E+03 -1.77960E+04 -9.57541E+03
 -8.55211E+03 -1.19396E+04  1.08182E+02 -1.11107E+04  5.45336E+03 -5.56724E+03  4.03048E+03 -5.01855E+03
  1.93433E+03 -3.24866E+03  3.59931E+03 -2.38405E+03  4.95563E+03 -2.77794E+03  6.36037E+03  4.35196E+01
  1.01900E+04  3.17977E+03  3.78495E+03  6.97527E+03 -2.63193E+03  7.96764E+03 -9.43633E+03  6.55318E+03
 -1.17551E+04 -8.77453E+02 -6.89102E+03 -8.39441E+03 -1.57375E+02 -1.25124E+04  7.21251E+03 -1.24461E+04
  1.22741E+04 -6.98477E+03  1.53354E+04  1.66777E+03  1.00706E+04  1.07486E+04  8.60944E+02  1.35521E+04
 -6.24466E+03  1.27682E+04 -8.56765E+03  3.34686E+03 -6.24874E+03 -1.97026E+03 -2.22847E+01 -1.08647E+03
 -1.67922E+02  7.70245E+02 -5.73578E+02  1.99789E+03 -5.80300E+03  1.94926E+03 -8.82165E+03 -2.72682E+02
 -5.96042E+03 -8.53239E+03 -6.69839E+02 -1.26281E+04  7.45824E+03 -9.95032E+03  1.16626E+04 -3.94901E+03
  1.08982E+04  6.35882E+03  5.45135E+03  1.14411E+04 -2.82805E+03  1.17896E+04 -7.81554E+03  8.05493E+03
 -9.61494E+03 -4.84048E+02 -6.89227E+03 -5.69009E+03 -5.42734E+02 -1.03502E+04  4.71997E+03 -6.07117E+03
  8.08823E+03 -2.18793E+03  4.98741E+03  1.29084E+03  2.78790E+03  3.38970E+03  2.12807E+03  6.11995E+02
  3.85175E+03  8.48031E+02  2.14380E+03  2.22257E+03  3.50029E+03  5.03727E+03  3.31831E+03  5.00177E+03
 -3.88727E+03  8.77513E+03 -7.22028E+03  1.07222E+04 -9.81276E+03  2.94964E+03 -1.30995E+04 -4.22638E+03
 -5.73803E+03 -9.76180E+03  2.32873E+03 -1.27346E+04  6.42632E+03 -7.47546E+03  9.34341E+03 -1.61060E+03
  6.79105E+03  5.09284E+03  1.79646E+03  6.37839E+03 -3.76029E+03  2.65649E+03 -5.06057E+03 -1.70042E+03
 -2.83703E+03 -4.53560E+03  3.36130E+03 -5.94654E+03  5.28916E+03 -2.04205E+03  5.05200E+03  1.73039E+03
  2.80079E+03  1.44771E+03  1.66484E+03  1.66165E+03 -5.12130E+01  1.86483E+03  8.47945E+02 -4.60228E+02
  4.07454E+02  8.14477E+01  4.57428E+03  9.29459E+02  2.12053E+03  6.86710E+03  2.11614E+02  8.74756E+03
 -6.02538E+03  4.09293E+03 -8.35125E+03  7.75380E+02 -5.81940E+03 -1.71785E+03 -4.07011E+03 -4.38375E+03
  3.34346E+02 -3.67662E+03  3.75888E+03 -3.23302E+03  1.28786E+03  1.79889E+03 -2.31032E+03  3.59806E+03
 -5.63717E+03  3.11516E+03 -4.50360E+03 -1.86464E+03 -3.83862E+03 -4.52331E+03  2.93851E+02 -5.11544E+03
  3.90704E+03 -3.21127E+03  4.43655E+03 -9.23777E+02  3.65820E+03  1.44533E+03  1.32978E+03  3.93717E+03
 -1.59382E+03  7.67242E+02 -3.20799E+03 -1.14676E+03  1.08416E+03 -4.86161E+03  4.66872E+03 -3.75239E+03
  7.34481E+03  1.51071E+03  7.17674E+03  3.79566E+03  3.42277E+03  6.25467E+03 -2.80868E+03  6.66414E+03
 -5.96063E+03  2.21088E+03 -5.33152E+03 -9.66337E+02 -3.71731E+03 -3.76168E+03  2.18185E+02 -3.03105E+03
  4.37321E+03 -2.09123E+03  4.53029E+03  2.47648E+03  1.56107E+03  4.28723E+03 -4.70752E+02  3.56753E+03
 -2.07092E+03  2.91168E+03 -3.42151E+03 -3.20796E+02 -1.16895E+03  1.44752E+03 -2.80606E+02  1.59286E+03
 -2.94090E+03  3.49598E+03 -4.68755E+03  2.61570E+03 -7.27191E+03  5.47211E+02 -8.23894E+03 -3.96833E+03
 -3.91562E+03 -9.03590E+03  2.21990E+03 -1.15442E+04  7.58832E+03 -8.32337E+03  1.13283E+04 -2.53017E+03
  1.01261E+04  2.30337E+03  6.93689E+03  7.88700E+03 -2.43249E+02  7.31839E+03 -2.56414E+03  5.84081E+03
 -3.38292E+03  2.54890E+03 -1.92908E+03  2.40936E+02 -1.72514E+03 -1.97257E+02 -6.40785E+02 -4.24343E+02
 -2.82456E+03  1.11296E+03 -1.99068E+03 -1.02606E+03  7.00511E+01 -1.71740E+03  1.50844E+03 -3.26015E+03
  2.37413E+03 -2.37300E+03  5.20192E+03  5.44220E+02  5.35401E+03  3.49325E+03  1.47564E+03  5.66569E+03
 -4.42506E+03  7.64730E+03 -6.37207E+03  5.59050E+03 -9.20013E+03 -1.54210E+03 -6.54412E+03 -5.93580E+03
 -1.80763E+03 -8.61333E+03  2.91137E+03 -6.66051E+03  3.45080E+03 -4.22883E+03  3.80230E+03  9.27794E+02
  3.36787E+03  1.53679E+03 -1.42341E+03  2.48878E+03 -1.94570E+03 -6.51249E+02 -5.26836E+02 -9.31130E+02
  2.22551E+03  6.00890E+01  3.56600E+03  9.10666E+02  3.18806E+03  2.93645E+03  1.36681E+03  3.37284E+03
 -3.98777E+03  3.09192E+03 -4.78837E+03 -3.35244E+02 -2.66870E+03 -2.56647E+03 -3.24892E+02 -7.70778E+03
  2.92214E+03 -2.20590E+03  4.04323E+03 -2.62469E+03  5.18177E+03  4.76091E+02  2.67014E+03  4.54286E+03
  8.04399E+02  4.33184E+03 -1.99653E+03  3.13446E+03 -3.03954E+03  2.53116E+03 -3.01242E+03  5.29985E+02
 -1.90941E+03 -8.02099E+02 -1.16507E+03  6.01502E+02 -2.86113E+03 -4.98695E+02 -4.73399E+03 -1.36447E+03
 -3.65994E+03 -2.92876E+03 -1.19289E+03 -5.61015E+03  1.05726E+03 -4.76308E+03  4.12605E+03 -2.00453E+03
  5.25584E+03 -6.29187E+02  1.81796E+03  3.51712E+03 -1.75068E+03  4.09143E+03 -4.36266E+03  3.74878E+03
