 $NMID ID='MM_0lb_SNR200_8hz_g50_19.RAW', FMTDAT='(8E13.5)'
 TRAMP=1., VOLUME=1. $END
  3.08369E+05  1.62863E+03  3.38327E+05  2.51251E+05  8.33414E+04  3.39244E+05 -1.32592E+05  2.50844E+05
 -1.91552E+05  8.37718E+04 -1.12990E+05 -3.16599E+04  7.95939E+02 -5.15444E+04  5.25023E+04 -2.12283E+03
  3.59436E+04  5.27685E+04 -1.65182E+04  7.59036E+04 -6.07314E+04  6.53292E+04 -8.46143E+04  3.34105E+04
 -8.35062E+04 -1.01633E+04 -5.78901E+04 -5.34670E+04 -1.34336E+04 -6.88240E+04  2.82113E+04 -4.64415E+04
  4.24431E+04  4.72179E+03  1.73087E+04  5.01935E+04 -3.56578E+04  4.79757E+04 -6.71107E+04  4.60618E+02
 -5.53823E+04 -5.88963E+04 -7.44805E+03 -7.97971E+04  3.43835E+04 -5.71563E+04  5.19844E+04 -1.91071E+04
  4.61826E+04  1.06701E+04  3.15817E+04  2.86814E+04  1.44841E+04  3.19693E+04 -7.41469E+03  2.92347E+04
 -2.31166E+04  1.12246E+04 -1.78976E+04 -5.55371E+03  6.06282E+03 -6.02072E+03  2.35485E+04  1.53324E+04
  7.50985E+03  3.74602E+04 -3.47641E+04  3.70445E+04 -6.77578E+04  6.59245E+02 -5.90401E+04 -4.53946E+04
 -1.38048E+04 -6.68607E+04  4.25832E+04 -4.75603E+04  6.27387E+04 -3.78065E+03  3.70828E+04  3.38887E+04
 -5.74516E+03  4.04052E+04 -3.16634E+04  1.85315E+04 -3.43555E+04 -1.27457E+03 -2.11411E+04 -1.12064E+04
 -9.66114E+03 -1.47998E+04  6.84612E+01 -2.02700E+04  8.47049E+03 -2.41035E+04  1.49431E+04 -1.34110E+04
  1.01218E+04  8.02938E+03 -1.20055E+04  1.35736E+04 -2.60245E+04 -8.24618E+03 -8.86532E+03 -3.93730E+04
  2.55464E+04 -4.83164E+04  5.26758E+04 -2.26897E+04  4.80180E+04  2.09282E+04  1.78017E+04  4.63492E+04
 -1.62605E+04  3.92094E+04 -2.87715E+04  1.42059E+03 -1.22011E+04 -2.92686E+04  2.21446E+04 -3.86969E+04
  4.57654E+04 -9.24464E+03  4.17054E+04  2.41860E+04  2.07300E+04  5.17385E+04 -1.11388E+04  5.72625E+04
 -3.62239E+04  3.82540E+04 -4.93283E+04  1.26326E+04 -4.84057E+04 -1.86172E+04 -2.60263E+04 -4.13031E+04
  6.72295E+03 -4.28364E+04  3.51132E+04 -1.88021E+04  3.22293E+04  1.10610E+04  5.12723E+03  2.08347E+04
 -1.31775E+04  9.60254E+03 -1.17097E+04 -8.80923E+03  7.88060E+03 -1.17422E+04  1.86565E+04  6.18699E+03
  1.48783E+04  2.27725E+04 -3.90462E+03  2.72442E+04 -2.24805E+04  1.49067E+04 -3.28919E+04 -4.36768E+03
 -2.66414E+04 -1.90996E+04 -1.27897E+04 -2.58428E+04  3.92244E+03 -2.61611E+04  1.86511E+04 -2.40538E+04
  3.31517E+04 -1.41999E+04  3.91234E+04  4.70597E+03  2.79808E+04  2.50445E+04  5.36154E+03  4.17162E+04
 -2.22852E+04  3.49920E+04 -3.15828E+04  1.10625E+04 -2.40026E+04 -1.19336E+04 -5.02700E+03 -1.29850E+04
 -1.35243E+03 -4.49697E+02 -8.67666E+03  6.72815E+03 -2.01828E+04  4.51444E+03 -2.07893E+04 -8.51255E+03
 -1.28860E+04 -2.36788E+04  5.67664E+03 -2.79192E+04  1.89751E+04 -2.12062E+04  2.18995E+04 -1.99423E+03
  1.48476E+04  1.75647E+04 -2.32941E+03  2.49407E+04 -1.69370E+04  1.55954E+04 -2.34570E+04 -6.16180E+03
 -1.90765E+04 -2.09130E+04 -2.24987E+03 -3.06753E+04  1.30469E+04 -2.42376E+04  2.48451E+04 -1.42080E+04
  2.33834E+04 -6.90819E+02  1.54523E+04  7.05835E+03  9.06263E+03  2.06994E+03  1.29742E+04 -4.00739E+02
  2.23874E+04  3.11995E+03  2.68220E+04  1.67342E+04  2.00297E+04  3.91331E+04 -3.29145E+03  4.72349E+04
 -2.61093E+04  3.83989E+04 -4.30592E+04  1.90743E+04 -4.75323E+04 -3.82862E+03 -4.03996E+04 -2.72742E+04
 -1.47369E+04 -4.07700E+04  1.51070E+04 -3.31572E+04  2.99201E+04 -1.70256E+04  2.35600E+04  8.57743E+03
  8.90469E+03  1.91234E+04 -1.14583E+04  1.59253E+04 -2.07263E+04  1.60542E+03 -1.74993E+04 -1.45777E+04
 -6.43964E+02 -2.00310E+04  1.10954E+04 -1.56614E+04  1.36834E+04 -1.26707E+03  4.50787E+03  8.52899E+03
 -9.40347E+03  4.20061E+03 -9.84092E+03 -7.78518E+03 -2.15137E+03 -1.88385E+04  1.24928E+04 -2.16736E+04
  2.40441E+04 -1.21112E+04  2.64713E+04  4.98537E+03  2.47173E+04  1.98239E+04  1.10874E+04  3.05721E+04
 -7.29760E+03  3.40090E+04 -2.20188E+04  2.22502E+04 -2.56945E+04  3.26217E+03 -1.64451E+04 -4.71176E+03
 -8.66392E+03 -7.67522E+03  2.34121E+02 -7.82288E+02 -2.82752E+03  4.02539E+03 -8.82794E+03  4.36256E+03
 -1.65943E+04 -4.14071E+02 -1.66847E+04 -1.08459E+04 -5.20413E+03 -2.05631E+04  5.73417E+03 -1.84807E+04
  1.46577E+04 -7.28288E+03  9.76978E+03  3.79336E+03 -1.07026E+03  5.77439E+03 -9.63811E+03  4.65706E+02
 -7.76768E+03 -1.18438E+04 -9.09694E+02 -1.77100E+04  9.38495E+03 -1.65117E+04  2.17938E+04 -1.02313E+04
  2.48459E+04  1.63582E+03  1.83938E+04  1.32734E+04  3.77231E+03  2.08083E+04 -1.06394E+04  1.69849E+04
 -1.20145E+04  6.14636E+03 -6.32481E+03 -5.09627E+03  1.37025E+03 -5.52975E+03  8.48604E+03 -2.52924E+02
  7.81398E+03  7.73587E+03 -7.20640E+01  1.25807E+04 -9.15283E+03  1.36743E+04 -1.57270E+04  3.17240E+03
 -1.19922E+04 -7.93188E+03  1.87672E+03 -1.62944E+04  6.96830E+03 -7.90909E+03  9.87339E+03  3.42562E+03
  2.34699E+03  1.02460E+04 -8.93239E+03  1.20982E+04 -1.54637E+04  3.92587E+03 -1.20025E+04 -5.20747E+03
 -9.13513E+03 -1.80655E+04  4.73860E+03 -1.77048E+04  1.60484E+04 -1.05533E+04  1.94793E+04  3.98350E+03
  1.08494E+04  1.55447E+04 -2.27768E+03  1.59219E+04 -1.28773E+04  9.29994E+03 -1.38617E+04 -9.86627E+02
 -1.05077E+04 -1.26806E+04 -1.75540E+03 -1.28086E+04  5.14691E+03 -1.13794E+04  8.32267E+03 -4.00566E+03
  6.52616E+03  2.53103E+03 -7.83442E+01  2.57069E+03 -3.42065E+02 -4.64635E+03  3.86105E+03 -9.32106E+03
  1.25860E+04 -6.61919E+03  1.83491E+04  1.13378E+03  1.77181E+04  1.06693E+04  1.04706E+04  2.08393E+04
 -4.95411E+03  2.63991E+04 -2.11289E+04  1.88988E+04 -2.87887E+04  5.01798E+03 -2.42898E+04 -8.99517E+03
 -1.19402E+04 -1.82613E+04  8.48471E+01 -1.65442E+04  6.44971E+03 -9.54658E+03  6.30457E+03 -6.66442E+03
  3.51927E+03 -3.89373E+03  4.14836E+03 -5.16206E+03  7.55695E+03 -4.98178E+03  8.39454E+03 -3.53772E+03
  1.27490E+04  9.18420E+02  6.35834E+03  1.07168E+04 -1.11703E+03  1.27288E+04 -1.38667E+04  9.81118E+03
 -1.72405E+04 -1.00295E+03 -1.02721E+04 -8.85414E+03 -1.35556E+03 -1.59350E+04  8.98937E+03 -1.81502E+04
  1.92661E+04 -9.72941E+03  2.30549E+04  4.32542E+03  1.54553E+04  1.71105E+04  3.03017E+03  1.93899E+04
 -8.63333E+03  1.71418E+04 -1.12338E+04  5.21684E+03 -7.89302E+03 -3.13539E+03 -2.83808E+03 -2.42427E+03
 -1.27615E+03  3.15211E+02 -3.69542E+03  2.01832E+03 -6.61836E+03  2.13783E+03 -1.19087E+04 -1.61046E+03
 -1.00415E+04 -1.24664E+04 -6.12736E+02 -1.81688E+04  9.41456E+03 -1.60300E+04  1.66867E+04 -4.30353E+03
  1.59040E+04  7.41194E+03  6.73823E+03  1.47987E+04 -1.81209E+03  1.73110E+04 -1.29019E+04  9.45722E+03
 -1.60261E+04  7.82427E+02 -1.29016E+04 -1.02891E+04 -1.24760E+03 -1.44973E+04  8.81152E+03 -1.09944E+04
  1.12906E+04 -4.01303E+03  7.40605E+03  3.16883E+03  1.82611E+03  3.95205E+03  1.06195E+03  1.20326E+03
  3.66705E+03  3.87385E+02  4.43478E+03  1.90689E+03  4.23548E+03  6.06534E+03  4.12190E+03  1.11747E+04
 -2.97239E+03  1.35790E+04 -1.26148E+04  1.27409E+04 -1.70076E+04  2.56204E+03 -1.92252E+04 -7.93704E+03
 -8.53474E+03 -1.85232E+04  2.27311E+03 -1.92424E+04  9.97246E+03 -1.27502E+04  1.54584E+04 -1.51105E+03
  1.04840E+04  6.10553E+03  2.99194E+03  9.85964E+03 -4.99780E+03  5.29927E+03 -8.01459E+03 -2.69777E+02
 -2.19661E+03 -7.86198E+03  3.71423E+03 -9.53434E+03  7.72220E+03 -3.58643E+03  6.45543E+03  2.22206E+03
  3.61412E+03  3.95160E+03  2.37386E+03  1.88569E+03 -6.00675E+02  2.18897E+03  7.62908E+02 -6.07280E+01
  1.56388E+03 -1.65683E+03  7.32161E+03  1.00113E+03  2.12917E+03  8.02832E+03 -7.98723E+02  1.31408E+04
 -8.35706E+03  8.52552E+03 -1.11108E+04  1.81952E+03 -8.44382E+03 -5.06884E+03 -3.90638E+03 -7.88042E+03
  1.42127E+03 -5.82849E+03  4.57010E+03 -2.50078E+03  4.78086E+03  2.18206E+03 -7.55304E+02  5.45586E+03
 -6.11386E+03  2.13307E+03 -9.88633E+03 -4.95651E+03 -4.32268E+03 -8.55937E+03 -1.16757E+03 -8.76774E+03
  6.40279E+03 -5.63902E+03  5.51516E+03 -2.75843E+03  6.08635E+03  3.73188E+03  4.92026E+02  5.20667E+03
 -3.63891E+03  3.42431E+03 -3.93466E+03 -3.99491E+03  1.71426E+03 -7.95157E+03  7.79298E+03 -5.85653E+03
  1.19364E+04  1.01632E+03  1.03366E+04  8.84079E+03  4.08194E+03  1.15818E+04 -3.78110E+03  9.74653E+03
 -1.10136E+04  3.68203E+03 -1.10053E+04 -1.43175E+03 -4.39961E+03 -5.69576E+03  1.95558E+03 -7.13341E+03
  7.69507E+03 -4.33479E+03  6.92898E+03  3.91722E+03  2.39384E+03  7.88257E+03 -9.24026E+02  4.95683E+03
 -3.42972E+03  1.84124E+03 -2.62649E+03  2.44001E+03 -3.69573E+02 -5.47157E+02 -8.28328E+02  1.45193E+03
 -3.03030E+03  5.24529E+03 -9.27359E+03  4.64395E+03 -1.21492E+04  5.34195E+01 -1.46473E+04 -7.79341E+03
 -6.29425E+03 -1.48316E+04  3.63932E+03 -1.75678E+04  1.28669E+04 -1.35935E+04  1.78052E+04 -5.28250E+03
  1.66493E+04  5.14936E+03  1.08446E+04  1.06121E+04  9.11709E+02  1.10232E+04 -4.85820E+03  7.81147E+03
 -6.28289E+03  4.59699E+03 -5.10356E+03 -1.10783E+03 -1.69168E+03 -2.33090E+03 -1.29617E+03  2.17339E+01
 -8.56611E+02 -2.70746E+01 -4.61038E+03 -1.75016E+03  1.29134E+03 -3.83809E+03  2.01360E+02 -3.04492E+03
  3.17296E+03 -3.60538E+03  8.14448E+03 -3.99146E+02  6.97021E+03  8.72498E+03  3.83263E+03  1.22957E+04
 -6.84846E+03  1.30902E+04 -1.28795E+04  7.99589E+03 -1.36240E+04 -1.43446E+03 -1.12623E+04 -9.91454E+03
 -7.30171E+03 -1.42998E+04  3.08277E+03 -1.13029E+04  7.80374E+03 -5.90926E+03  8.97197E+03 -1.24729E+03
  4.05030E+03  4.77021E+03 -1.87782E+03  3.83827E+03 -1.85344E+03 -3.71164E+02  1.19895E+02 -3.68989E+03
  3.40100E+03 -2.38683E+03  5.78404E+03  2.34981E+03  3.82984E+03  5.67545E+03 -6.70077E+02  5.84547E+03
 -4.76739E+03  5.00896E+03 -8.67325E+03  7.05144E+02 -8.30362E+03 -5.93091E+03 -1.03306E+03 -1.13661E+04
  7.83143E+03 -1.00884E+04  1.07770E+04 -2.64182E+03  9.51818E+03  5.07332E+03  5.63685E+03  7.83494E+03
  7.71129E+02  8.83390E+03 -4.70177E+03  7.48763E+03 -6.99114E+03  4.62228E+03 -4.32813E+03  2.98398E+02
 -1.68690E+03  5.01958E+02 -2.93640E+03  1.83729E+03 -3.03213E+03  1.52764E+03 -6.70746E+03 -2.42863E+03
 -6.59342E+03 -4.84574E+03 -2.10370E+03 -6.49992E+03  2.83518E+03 -1.06697E+04  5.69885E+03 -1.94763E+03
  9.20777E+03  1.88653E+03  5.66495E+03  8.36982E+03 -7.90702E+02  8.63449E+03 -5.94691E+03  6.85030E+03
