 $NMID ID='MM_0lb_SNR200_19hz_g40_64.RAW', FMTDAT='(8E13.5)'
 TRAMP=1., VOLUME=1. $END
  3.10176E+05  3.52546E+02  3.36830E+05  2.50884E+05  8.38573E+04  3.37747E+05 -1.32731E+05  2.49432E+05
 -1.89605E+05  8.14466E+04 -1.10984E+05 -3.39513E+04  1.62415E+03 -5.17054E+04  5.39255E+04  1.00874E+03
  3.49775E+04  5.14100E+04 -1.66818E+04  7.51060E+04 -6.00314E+04  6.26577E+04 -8.29605E+04  3.19605E+04
 -7.93684E+04 -1.11153E+04 -5.57343E+04 -4.96245E+04 -1.51841E+04 -6.81588E+04  2.58519E+04 -4.46751E+04
  3.75690E+04  4.05629E+03  1.53486E+04  4.57146E+04 -3.31926E+04  4.65169E+04 -6.50814E+04 -7.87342E+02
 -5.13409E+04 -5.48037E+04 -7.53770E+03 -7.31696E+04  3.12051E+04 -5.10701E+04  4.61445E+04 -1.61268E+04
  4.12996E+04  1.19800E+04  3.07442E+04  2.46272E+04  1.55355E+04  2.73936E+04 -4.05952E+03  2.56931E+04
 -2.05657E+04  1.25487E+04 -1.95637E+04 -4.09698E+03  3.39440E+03 -7.57591E+03  1.97542E+04  1.02679E+04
  7.07783E+03  3.21900E+04 -3.02301E+04  3.30071E+04 -6.08942E+04  2.01486E+03 -5.40326E+04 -4.09118E+04
 -1.31262E+04 -5.97019E+04  3.76604E+04 -4.28178E+04  5.39287E+04 -1.07444E+03  3.13516E+04  2.96321E+04
 -6.05639E+03  3.21485E+04 -2.78456E+04  1.17446E+04 -2.66581E+04 -6.09984E+03 -1.29864E+04 -1.01417E+04
 -7.54619E+03 -1.13670E+04 -1.70933E+03 -1.67895E+04  6.84710E+03 -2.14454E+04  1.55126E+04 -1.36713E+04
  1.22494E+04  4.57407E+03 -6.02461E+03  1.16615E+04 -1.77732E+04 -1.73958E+03 -7.91353E+03 -2.94637E+04
  1.95534E+04 -3.94292E+04  4.36499E+04 -1.84812E+04  4.10489E+04  1.67486E+04  1.43931E+04  4.05163E+04
 -1.55173E+04  3.04360E+04 -2.16266E+04  1.13185E+03 -7.75706E+03 -2.51669E+04  2.04706E+04 -3.08012E+04
  3.75449E+04 -6.42311E+03  3.05611E+04  2.15039E+04  1.46517E+04  4.15168E+04 -8.57642E+03  4.35934E+04
 -2.70845E+04  2.90782E+04 -3.66783E+04  8.39046E+03 -3.71905E+04 -1.42151E+04 -2.09936E+04 -3.34069E+04
  5.95968E+03 -3.32142E+04  2.78712E+04 -1.24366E+04  2.64923E+04  1.07121E+04  3.08320E+03  1.77115E+04
 -1.26727E+04  6.66125E+03 -8.83091E+03 -7.15768E+03  6.10048E+03 -9.32076E+03  1.84284E+04  6.02548E+03
  1.25193E+04  2.19117E+04 -6.72700E+03  2.36039E+04 -2.08946E+04  8.35813E+03 -2.48026E+04 -4.97972E+03
 -1.66761E+04 -1.63179E+04 -5.17416E+03 -1.64379E+04  4.09246E+03 -1.38268E+04  1.17129E+04 -1.36173E+04
  1.93847E+04 -1.13080E+04  2.73477E+04  5.21816E+02  2.14783E+04  1.58566E+04  4.25795E+03  3.16732E+04
 -1.65995E+04  2.67754E+04 -2.50039E+04  8.55336E+03 -1.89869E+04 -9.25592E+03 -3.60128E+03 -1.43860E+04
  2.56911E+03 -4.91714E+03 -2.64534E+03  5.16179E+03 -1.17333E+04  5.50240E+03 -1.32211E+04 -5.78459E+03
 -7.75701E+03 -1.48820E+04  4.01880E+03 -1.74582E+04  1.21502E+04 -1.28662E+04  1.35389E+04 -1.42619E+03
  9.42407E+03  1.11099E+04 -3.27764E+02  1.55046E+04 -9.42476E+03  6.88711E+03 -1.42592E+04 -1.98172E+03
 -1.18232E+04 -1.36457E+04 -8.79712E+02 -1.75123E+04  8.65923E+03 -1.42788E+04  1.55973E+04 -7.30566E+03
  1.32939E+04  1.43603E+02  1.01551E+04  3.41928E+03  4.28408E+03  9.89540E+02  6.71499E+03 -1.52714E+03
  1.33273E+04  2.59436E+03  1.31631E+04  1.17981E+04  8.09217E+03  2.28639E+04 -2.36596E+03  2.50222E+04
 -1.42607E+04  1.91964E+04 -2.38987E+04  8.90620E+03 -2.29017E+04 -1.18897E+03 -1.94783E+04 -1.22835E+04
 -9.04020E+03 -2.01856E+04  5.64780E+03 -1.77774E+04  1.54686E+04 -9.78899E+03  1.44696E+04  3.29193E+03
  6.75024E+03  1.06308E+04 -6.76784E+03  9.77918E+03 -1.27051E+04  1.99907E+03 -1.00073E+04 -8.15865E+03
  1.78291E+02 -1.24231E+04  5.41947E+03 -8.61700E+03  7.36911E+03 -1.31671E+03  2.13334E+03  4.93330E+03
 -4.80087E+03  1.00466E+03 -3.36883E+03 -4.21286E+03  9.17119E+02 -1.02828E+04  7.23178E+03 -9.36029E+03
  1.18895E+04 -3.89927E+03  1.00542E+04  2.30462E+03  9.71810E+03  8.00217E+03  4.08149E+03  1.29876E+04
 -5.73972E+02  1.39391E+04 -9.63178E+03  8.44402E+03 -1.06700E+04  2.76602E+03 -7.40447E+03 -9.67641E+02
 -3.99933E+03 -2.88636E+03 -9.51696E+02  2.10059E+03 -2.49006E+03  1.40582E+03 -3.31692E+03  3.43894E+03
 -6.94867E+03 -2.33412E+02 -7.91513E+03 -5.74414E+03 -3.79492E+03 -1.10230E+04  2.95924E+03 -7.15995E+03
  6.27942E+03 -4.44096E+03  5.44737E+03  1.05885E+03  1.40289E+03  2.96025E+03 -2.70944E+03  2.35721E+01
 -3.02994E+03 -4.54241E+03 -1.07669E+03 -6.14185E+03  3.57796E+03 -8.09616E+03  8.66009E+03 -3.96727E+03
  1.08851E+04  8.35844E+02  7.91108E+03  5.31426E+03  1.93827E+03  8.09920E+03 -4.67827E+03  6.95995E+03
 -7.08177E+03  2.97717E+03 -3.92181E+03 -1.17775E+03  5.89158E+02 -1.26964E+03  5.23581E+03 -1.44554E+03
  3.81855E+03  2.61526E+03  1.67657E+02  6.81754E+03 -4.04899E+03  6.58216E+03 -6.86781E+03  2.85700E+03
 -4.46189E+03 -2.60228E+03  3.20932E+02 -5.89568E+03  4.38471E+03 -3.81142E+03  3.27380E+03  2.27038E+03
 -4.40181E+02  2.28223E+03 -3.94373E+03  3.34757E+03 -5.84701E+03  1.39909E+03 -3.23927E+03 -8.82118E+02
 -2.76072E+03 -5.14446E+03  1.56045E+03 -6.17779E+03  4.68028E+03 -4.63370E+03  4.24279E+03  4.01205E+02
  3.64701E+03  6.32457E+03  7.98448E+02  6.28733E+03 -4.53775E+03  4.10573E+03 -5.34435E+03 -1.18690E+03
 -5.07451E+03 -5.21188E+03 -9.97715E+02 -4.77276E+03  2.58454E+03 -4.54779E+03  2.60278E+03 -2.93711E+03
  2.94889E+03 -1.36358E+02  5.00129E+02  1.63930E+03 -6.86575E+01 -4.34129E+02  1.33295E+03 -2.69567E+03
  3.23591E+03  1.41298E+02  4.95872E+03  1.12143E+03  5.24820E+03  3.03799E+03  6.29157E+03  6.26169E+03
 -1.00755E+03  7.62999E+03 -7.00184E+03  6.59078E+03 -9.31178E+03  1.42849E+03 -7.14422E+03 -1.63313E+03
 -3.32485E+03 -5.50991E+03 -3.78428E+02 -5.27272E+03  1.90540E+03 -1.43008E+03  2.01000E+03 -2.83991E+03
  7.49428E+02 -1.77800E+03  1.50686E+03 -1.59133E+03  4.06708E+03 -1.64572E+03  3.26311E+03  5.78865E+02
  4.25722E+03  1.61235E+03  1.07086E+03  2.72142E+03 -1.43885E+03  1.55616E+03 -3.63842E+03  2.08792E+03
 -3.85993E+03 -1.83393E+03 -1.14130E+03 -2.52924E+03  4.04484E+02 -4.51123E+03  2.16073E+03 -4.27928E+03
  4.47376E+03 -3.46848E+03  6.80635E+03  9.43462E+02  4.42638E+03  3.76622E+03  1.70276E+03  6.43991E+03
 -1.41162E+03  6.28064E+03 -2.61328E+03  7.64348E+02 -2.13314E+03 -1.68405E+03 -6.09532E+02 -1.00606E+03
 -1.54218E+03  9.05436E+02 -1.36558E+03  2.20610E+03 -2.22310E+03  3.04152E+02 -3.89867E+03 -1.21861E+01
 -1.47168E+03 -2.74110E+03  6.97634E+02 -3.85588E+03  2.40883E+03 -3.52152E+03  2.88383E+03  3.84031E+02
  4.16745E+03  2.89487E+03  1.53666E+03  2.94972E+03 -1.47703E+03  3.72588E+03 -3.08127E+03  2.71429E+03
 -3.06587E+03  3.65080E+02 -2.90415E+03 -2.93337E+03 -3.69097E+02 -2.57656E+03  1.45892E+03 -2.92798E+03
  2.23502E+03 -1.67174E+03  1.46527E+03 -8.21633E+01 -2.59374E+01  2.01424E+03 -2.13871E+02  1.16361E+03
  2.16191E+03  1.24810E+02  1.47062E+03 -8.88032E+01  1.26080E+03  1.37971E+03  1.85361E+03  1.26883E+03
 -1.76391E+03  2.92255E+03 -1.61100E+03  4.14568E+03 -2.25731E+03  1.04924E+03 -3.18833E+03  2.46248E+02
 -8.08267E+02 -2.58219E+03  2.02651E+03 -4.50513E+03  1.44324E+03 -1.74279E+03  3.23015E+03 -8.31513E+02
  2.20470E+03  1.76679E+02  5.00819E+02  1.38251E+03 -4.47889E+02  1.95506E+03 -2.30826E+03  2.86177E+02
  9.69887E+02 -1.13499E+03  6.26599E+02 -1.25387E+03  9.60892E+02 -1.56694E+03  1.65227E+03 -3.40363E+01
  6.42585E+02  4.85162E+02  5.26322E+02  2.20053E+02  9.73562E+01  1.28638E+03  1.47053E+03 -5.91746E+02
 -4.90352E+02  5.32500E+01  2.05481E+03  1.19446E+03  4.46969E+02  1.59510E+03  4.26609E+02  3.39568E+03
 -1.16959E+03  4.07022E+02 -1.32791E+03 -1.39751E+02 -2.07703E+03 -1.16753E+03 -1.35296E+03 -5.39831E+02
  2.41634E+02 -1.23167E+03  1.00283E+03 -1.04946E+03  4.07220E+02  9.36663E+02 -2.22363E+02  8.70211E+02
 -1.62998E+03  1.14617E+03 -2.84302E+02 -1.31700E+03 -7.36497E+02 -1.99970E+03 -2.50431E+02 -2.13011E+03
  2.56387E+02 -4.13064E+02  6.55940E+02  4.36675E+02  1.98584E+03  1.47129E+02  1.67461E+03  3.37730E+02
  1.32010E+01 -1.07292E+03 -1.33942E+03 -4.52291E+02 -4.59381E+02 -6.69372E+02  1.63080E+03 -1.13711E+03
  3.48900E+02 -6.30047E+01  2.86904E+03  7.49313E+02  1.40651E+03  2.69060E+03 -2.04204E+02  1.10025E+03
 -1.05752E+03 -8.64964E+02 -1.53019E+03 -7.81962E+02 -7.83122E+02 -1.04361E+03  9.77541E+01 -2.73599E+02
  2.11360E+03 -1.60709E+03  1.22427E+03  6.32453E+02  3.01932E+02  1.12002E+03 -2.47275E+02  6.43438E+02
 -1.08500E+02  1.27102E+03  1.38676E+02  4.10233E+01  3.48509E+02 -6.52754E+01 -1.60752E+03  1.11844E+03
 -1.35533E+03  1.62008E+02 -1.77901E+03  4.42432E+02 -6.62500E+02 -6.06677E+02 -2.27909E+03 -4.78543E+02
 -4.72798E+02 -2.65633E+03  1.17698E+03 -2.36627E+03  1.07413E+03 -2.10870E+03  2.29088E+03  3.35138E+02
  2.56366E+03 -8.76099E+02  1.20727E+03  1.48874E+03 -1.09357E+03  1.78347E+03 -5.39262E+02  8.92292E+02
 -8.05791E+02 -1.25039E+02 -4.43917E+02  4.18501E+02 -8.38499E+02  2.13740E+02 -7.54950E+02  5.51565E+02
 -6.39638E+02 -1.62113E+02 -8.52494E+01 -2.98202E+02 -3.52071E+02 -3.50228E+02  1.42704E+02 -1.80163E+03
  2.33560E+02 -2.31337E+02  9.82355E+01  7.46976E+02  1.10075E+03  1.03345E+03  2.21311E+02  1.85122E+03
 -5.47968E+02  2.55224E+03 -5.40660E+02  1.05208E+03 -1.47130E+03  1.08012E+02 -1.36089E+03 -1.25340E+03
 -1.47405E+03 -9.94594E+02 -3.94020E+02 -5.99539E+02  1.67194E+02 -6.54403E+02  5.50018E+02  6.33134E+02
  6.93272E+02 -1.61502E+02  1.44151E+02 -2.36709E+01 -4.05264E+02 -2.15412E+02  6.60920E+02  3.62488E+02
  6.53638E+02  7.11632E+02  1.16748E+03  5.84912E+01  5.42604E+02  6.78095E+01  1.70542E+02  1.18704E+02
 -1.25448E+03  1.34479E+01 -1.04607E+03  8.51577E+02 -1.41267E+03 -1.55274E+02  1.12466E+02 -2.12326E+03
  5.35455E+02 -1.55848E+03  6.99135E+02  4.90110E+02  7.70846E+02 -7.94672E+02  8.34941E+02  3.31136E+02
  9.58938E+02  7.01728E+02  1.98697E+02  7.33930E+02 -1.07711E+03  2.57357E+02  1.29161E+02  6.85756E+01
  3.72923E+01  5.03094E+02 -1.09351E+03 -4.03325E+02 -6.94977E+02 -5.04624E+02 -9.95363E+02 -5.69292E+02
 -2.21248E+03  6.18487E+02 -7.30499E+02 -6.81155E+02  8.25293E+02 -9.20805E+02  1.77762E+03 -7.66307E+02
  3.56779E+02 -1.26726E+02 -1.05815E+03  7.03445E+02  3.09981E+02  1.26681E+03 -4.31351E+01 -1.16558E+02
