 $NMID ID='MM_0lb_SNR200_19hz_g55_98.RAW', FMTDAT='(8E13.5)'
 TRAMP=1., VOLUME=1. $END
  3.09723E+05  4.76750E+02  3.37052E+05  2.50428E+05  8.45601E+04  3.37530E+05 -1.33284E+05  2.50484E+05
 -1.89764E+05  8.20477E+04 -1.11967E+05 -3.30787E+04  1.63280E+03 -4.95153E+04  5.41271E+04  9.52575E+01
  3.45954E+04  5.37633E+04 -1.70007E+04  7.47584E+04 -6.02427E+04  6.36095E+04 -8.31684E+04  3.09035E+04
 -8.05259E+04 -1.19855E+04 -5.70283E+04 -5.11859E+04 -1.56663E+04 -6.81410E+04  2.63025E+04 -4.56236E+04
  4.06828E+04  3.92965E+03  1.59064E+04  4.72017E+04 -3.25632E+04  4.68499E+04 -6.57984E+04 -1.09036E+03
 -5.30109E+04 -5.56017E+04 -6.34914E+03 -7.43295E+04  3.37436E+04 -5.41736E+04  4.71339E+04 -1.56170E+04
  4.16134E+04  1.10663E+04  3.13010E+04  2.44914E+04  1.55202E+04  2.85185E+04 -5.39770E+03  2.71209E+04
 -2.16972E+04  1.21875E+04 -1.90907E+04 -3.57290E+03  5.69899E+03 -8.44760E+03  2.14214E+04  1.05329E+04
  7.23347E+03  3.43631E+04 -3.08526E+04  3.40011E+04 -6.19334E+04  2.94332E+03 -5.63578E+04 -4.05996E+04
 -1.26150E+04 -6.18047E+04  3.83636E+04 -4.37564E+04  5.59945E+04 -1.56450E+03  3.14097E+04  3.07220E+04
 -6.23476E+03  3.45364E+04 -2.94271E+04  1.33722E+04 -2.83729E+04 -5.66050E+03 -1.49209E+04 -1.06812E+04
 -7.29051E+03 -1.18398E+04 -4.59686E+02 -1.65400E+04  6.83309E+03 -2.30677E+04  1.51534E+04 -1.33603E+04
  1.19222E+04  5.29130E+03 -6.65289E+03  1.23541E+04 -2.01744E+04 -1.14310E+03 -9.37728E+03 -3.03673E+04
  2.13550E+04 -4.11418E+04  4.57565E+04 -1.91165E+04  4.34611E+04  1.86950E+04  1.36746E+04  4.10485E+04
 -1.60723E+04  3.15498E+04 -2.42094E+04  5.71266E+02 -8.61890E+03 -2.70766E+04  2.05051E+04 -3.15764E+04
  3.93501E+04 -7.52618E+03  3.16968E+04  2.24787E+04  1.46421E+04  4.27025E+04 -7.80933E+03  4.71492E+04
 -2.94854E+04  3.07051E+04 -3.76208E+04  9.10584E+03 -3.89180E+04 -1.46201E+04 -2.12815E+04 -3.52122E+04
  7.31955E+03 -3.50225E+04  3.00291E+04 -1.26823E+04  2.74802E+04  1.06404E+04  4.29302E+03  1.88799E+04
 -1.33369E+04  8.51233E+03 -9.85700E+03 -7.05286E+03  5.62866E+03 -1.07558E+04  1.76555E+04  6.26329E+03
  1.27429E+04  2.23524E+04 -6.55543E+03  2.29022E+04 -2.17832E+04  1.05069E+04 -2.50996E+04 -7.09784E+03
 -1.73665E+04 -1.66242E+04 -7.36030E+03 -1.63362E+04  3.89980E+03 -1.58927E+04  1.47878E+04 -1.48938E+04
  2.26465E+04 -1.14462E+04  2.96244E+04  1.17326E+03  2.11589E+04  1.68783E+04  3.47797E+03  3.46493E+04
 -1.58647E+04  2.83171E+04 -2.68275E+04  9.59949E+03 -1.92333E+04 -9.90399E+03 -3.11779E+03 -1.42595E+04
  1.90795E+03 -3.09304E+03 -3.52739E+03  5.44304E+03 -1.31130E+04  4.38633E+03 -1.36435E+04 -5.06087E+03
 -8.97796E+03 -1.68252E+04  4.20430E+03 -1.92529E+04  1.30300E+04 -1.43586E+04  1.53581E+04 -1.42494E+03
  8.67582E+03  1.05841E+04 -1.06257E+03  1.74073E+04 -1.17455E+04  8.27102E+03 -1.68255E+04 -3.12062E+03
 -1.15381E+04 -1.43663E+04 -8.10967E+02 -1.96320E+04  8.78654E+03 -1.51673E+04  1.60942E+04 -7.08232E+03
  1.58300E+04  2.71246E+02  1.10467E+04  4.16705E+03  5.63447E+03  5.87743E+02  7.96796E+03 -1.03382E+03
  1.38478E+04  2.38767E+03  1.48769E+04  1.40394E+04  1.01862E+04  2.46175E+04 -2.88171E+03  2.65677E+04
 -1.63082E+04  2.08055E+04 -2.57575E+04  1.00238E+04 -2.58665E+04 -2.57300E+03 -2.25531E+04 -1.43540E+04
 -1.00186E+04 -2.07061E+04  8.91236E+03 -2.05467E+04  1.62137E+04 -1.24725E+04  1.53122E+04  4.22269E+03
  7.09371E+03  1.12049E+04 -7.23644E+03  1.07072E+04 -1.38681E+04  4.32801E+03 -1.05722E+04 -8.42601E+03
  2.60248E+02 -1.26946E+04  6.43116E+03 -9.07342E+03  8.50690E+03 -7.62736E+02  1.34207E+03  4.90572E+03
 -6.01604E+03  2.09253E+03 -3.66601E+03 -5.10498E+03  1.86784E+03 -1.09024E+04  7.75223E+03 -1.05620E+04
  1.22312E+04 -4.83065E+03  1.17516E+04  2.26064E+03  1.07544E+04  1.02788E+04  4.79139E+03  1.39640E+04
 -2.51503E+03  1.69301E+04 -8.89612E+03  1.06170E+04 -1.14562E+04  3.19957E+03 -8.54801E+03 -1.73125E+03
 -5.70891E+03 -2.40288E+03 -1.86910E+01  1.29647E+03 -2.97790E+03  1.97713E+03 -3.70948E+03  3.99435E+03
 -7.71025E+03 -6.04009E+02 -9.29902E+03 -6.18886E+03 -3.57660E+03 -1.13121E+04  4.04272E+03 -8.21476E+03
  7.30575E+03 -4.09953E+03  7.06068E+03  2.42570E+03  9.54208E+02  2.75833E+03 -3.73061E+03 -1.09609E+03
 -3.38801E+03 -5.37306E+03 -1.36981E+03 -6.01387E+03  4.52533E+03 -8.42618E+03  9.37140E+03 -4.86116E+03
  1.18545E+04 -8.79734E+02  9.42521E+03  5.19924E+03  1.11752E+03  8.82981E+03 -5.07056E+03  8.35646E+03
 -8.21791E+03  2.99639E+03 -3.90307E+03 -1.28757E+03  1.68996E+03 -1.94274E+03  5.50369E+03 -6.16742E+02
  3.41972E+03  3.71072E+03  8.87243E+02  7.23159E+03 -4.44224E+03  7.02482E+03 -7.25037E+03  2.59930E+03
 -5.04996E+03 -3.97777E+03  9.27315E+02 -7.69545E+03  4.27442E+03 -3.32872E+03  3.46503E+03  1.51186E+03
  2.14375E+02  3.65607E+03 -4.21227E+03  6.30906E+03 -5.47113E+03  2.50037E+03 -4.39290E+03 -1.44748E+03
 -1.66625E+03 -5.74102E+03  1.59979E+03 -6.14999E+03  6.04682E+03 -4.62981E+03  6.72746E+03  1.61469E+03
  4.59336E+03  6.61799E+03 -6.11246E+02  7.05976E+03 -4.12868E+03  4.89219E+03 -5.11068E+03 -6.57770E+02
 -5.93182E+03 -4.98893E+03 -1.68627E+03 -5.61624E+03  3.16840E+03 -5.55042E+03  3.24145E+03 -3.10912E+03
  2.83691E+03  1.30278E+02  2.88159E+02  2.54866E+02  6.13821E+02  7.91478E+01 -4.40277E+01 -2.06083E+03
  3.37649E+03 -1.40453E+03  4.87436E+03  5.57904E+02  6.08739E+03  2.43524E+03  5.39976E+03  6.63104E+03
 -4.08129E+02  7.96556E+03 -6.91775E+03  6.03931E+03 -8.96190E+03  2.21890E+03 -8.85529E+03 -2.34354E+03
 -4.88500E+03 -5.80189E+03 -6.18874E+02 -5.56208E+03  7.96477E+02 -1.92519E+03  2.08625E+03 -1.74218E+03
  1.02135E+03 -5.57163E+02  2.16353E+03 -2.79103E+03  2.06511E+03 -1.09016E+03  2.95689E+03  1.40818E+03
  5.17871E+03  1.27575E+03 -3.60047E+01  2.81225E+03 -1.87822E+03  2.93605E+03 -3.80536E+03  1.94224E+03
 -5.64485E+03 -1.37093E+03 -8.00116E+02 -3.90474E+03  2.96095E+02 -5.15243E+03  2.40225E+03 -5.79120E+03
  4.94441E+03 -2.76483E+03  7.09967E+03  6.20966E+02  3.41108E+03  4.33312E+03  1.61443E+03  4.91686E+03
 -1.64064E+03  6.65814E+03 -2.68972E+03  8.67256E+02 -1.21723E+03 -7.13957E+02 -1.14600E+03  2.90387E+02
 -1.66895E+02  6.59937E+01 -6.07056E+02  2.74814E+03 -2.61271E+03  4.15735E+02 -3.31329E+03 -3.61381E+02
 -1.15850E+03 -4.53533E+03 -7.07225E+01 -4.82359E+03  1.61986E+03 -3.93227E+03  3.57698E+03 -1.43833E+03
  5.15226E+03  2.66024E+03  2.17276E+03  2.77161E+03 -1.10869E+03  4.68039E+03 -2.30974E+03  2.78285E+03
 -4.08220E+03  2.41095E+02 -3.36812E+03 -2.86671E+03 -8.98610E+02 -3.25382E+03  9.22876E+02 -2.63904E+03
  2.84622E+03 -2.05640E+03  1.56772E+03  4.91234E+02 -2.29479E+02  9.92259E+02  2.73755E+02  9.85704E+01
  2.18959E+03  7.67227E+02  9.82029E+02  9.05635E+02  1.60017E+03  2.60190E+03  1.47796E+03  6.98913E+02
 -1.24825E+02  3.16033E+03 -3.10492E+03  4.02374E+03 -1.62284E+03  8.58301E+02 -2.43823E+03 -1.12614E+02
 -2.05124E+03 -3.56566E+03 -1.53513E+02 -3.73417E+03  4.84809E+02 -2.79832E+03  2.44888E+03 -2.41870E+02
  2.01605E+03  1.96903E+03 -5.07294E+02  1.97142E+03 -7.94269E+02  8.98775E+02 -7.10465E+02 -6.82447E+02
 -6.66791E+02 -2.13274E+03  1.39715E+03 -1.64159E+03  1.29046E+03 -1.60362E+03  1.65884E+03  8.88889E+01
  5.74083E+02  9.27719E+02  2.16180E+03 -1.60543E+03 -7.72881E+02  3.18095E+02  1.01867E+03 -8.10392E+01
  2.04209E+02  4.92078E+02  1.57109E+03  1.99753E+03  6.98506E+02  3.33708E+03  5.57997E+02  3.10052E+03
 -2.05161E+03  1.09455E+03 -1.87597E+03  9.50543E+02 -2.75027E+03 -2.09895E+02 -4.51199E+02  5.24792E+02
  2.72993E+02 -1.69104E+03  1.33160E+03 -3.36054E+02 -1.06595E+02  1.02690E+03 -7.13808E+02  2.29089E+03
 -6.16800E+02  1.82047E+03 -1.55472E+03 -1.00832E+03  1.81682E+02 -2.81847E+03  2.16526E+02 -1.47369E+03
  3.42561E+02 -5.35740E+02  1.57606E+03  2.86276E+02  1.64747E+03  1.02283E+02  3.97524E+02  1.09866E+03
  3.54244E+01  4.84978E+01 -9.55048E+02  4.54352E+02 -3.16395E+02  1.81221E+02  1.88716E+03 -6.61615E+02
  1.63082E+03  6.51895E+02  2.71744E+03  3.63956E+02  1.57168E+03  7.36535E+02  3.75388E+02  1.47423E+03
 -1.20755E+03  9.24877E+02 -2.09184E+03  2.98964E+02 -9.41847E+02 -1.28577E+03  1.43902E+02  3.88557E+02
  1.89604E+03 -1.43182E+02  2.45690E+02  1.64491E+03 -1.40955E+02  8.17011E+02  8.47461E+02  1.21011E+02
 -1.15936E+03  5.23136E+02  8.85154E+02 -9.55847E+02  6.54895E+02  5.84442E+02 -1.18471E+03  3.78746E+02
 -7.16270E+02  1.22476E+03 -1.74555E+03  1.31918E+02 -1.04297E+03  3.96777E+02 -8.82540E+02 -6.23577E+02
 -8.52284E+02 -2.85751E+03  1.10813E+03 -2.23163E+03  1.97658E+01 -2.96988E+03  2.84102E+03 -1.54121E+03
  2.96011E+03 -4.63695E+02  1.00557E+03  1.69722E+03 -1.24752E+03  4.89739E+02 -2.44757E+02  1.02949E+03
 -8.97237E+02  9.25403E+02 -2.82679E+02  6.87206E+02 -9.81973E+02  2.38516E+02 -7.42531E+02 -5.15730E+02
 -1.13778E+03 -2.49987E+02 -5.68548E+02 -5.37496E+02 -6.66544E+02 -9.12337E+02 -5.20434E+02 -2.38874E+02
  2.26086E+03 -5.74963E+02  1.18108E+03  5.33910E+01  8.09629E+02  8.38949E+02 -1.02087E+03  1.25185E+03
 -2.66500E+02  1.47281E+03 -1.74564E+03  1.51792E+03 -1.89788E+03 -8.51561E+01 -7.79953E+02 -1.62923E+03
 -1.05223E+03 -6.63561E+02  3.25694E+02 -4.24147E+02 -3.08973E+02 -1.09260E+03  1.37817E+03 -1.18642E+03
  8.08583E+02  3.24928E+02  6.44192E+02  8.35034E+01 -2.74837E+02 -6.88840E+02 -4.58642E+01 -5.46798E+01
 -5.08419E+02 -1.17894E+02  1.44695E+02 -2.57224E+01 -4.87914E+02 -6.30786E+02  1.33663E+03 -8.59188E+02
 -3.56873E+02  6.67612E+02 -1.99159E+02  3.68499E+01 -8.39340E+02 -3.25502E+02  5.61407E+02 -1.70401E+03
  3.92663E+02 -8.15259E+02 -7.88766E+01  5.21578E+02  7.77465E+02 -3.58672E+02  5.05233E+02  4.09108E+02
  6.56359E+02  1.82352E+03  2.98177E+02 -1.40612E+02  2.29067E+02  5.59278E+02 -1.75436E+01  1.69070E+02
  1.67467E+02 -5.68255E+02 -1.28095E+03 -4.23904E+02 -8.92906E+02  1.29728E+02 -1.32822E+03  1.21732E+02
 -1.38255E+03  4.41634E+02 -1.40330E+03 -1.15111E+03 -3.99975E+02 -2.27005E+03  5.26281E+02 -1.23988E+03
  6.31600E+02  1.11343E+02 -6.89845E+02  2.21850E+02 -1.51713E+02 -1.06711E+03  2.97539E+02  1.33814E+02
