 $NMID ID='MM_0lb_SNR200_17hz_g45_80.RAW', FMTDAT='(8E13.5)'
 TRAMP=1., VOLUME=1. $END
  3.09542E+05  1.18774E+03  3.37778E+05  2.51091E+05  8.42635E+04  3.37266E+05 -1.32877E+05  2.50754E+05
 -1.89992E+05  8.30129E+04 -1.11953E+05 -3.31057E+04  7.94854E+02 -5.03856E+04  5.43375E+04  6.72757E+02
  3.46841E+04  5.24865E+04 -1.71611E+04  7.48018E+04 -6.09939E+04  6.24724E+04 -8.28194E+04  3.10918E+04
 -8.09458E+04 -1.16075E+04 -5.69922E+04 -4.96748E+04 -1.45646E+04 -6.86247E+04  2.75858E+04 -4.51630E+04
  3.95089E+04  3.92143E+03  1.67622E+04  4.76689E+04 -3.32213E+04  4.68186E+04 -6.54585E+04 -5.66341E+02
 -5.30186E+04 -5.65458E+04 -6.42207E+03 -7.56797E+04  3.33873E+04 -5.40572E+04  4.63228E+04 -1.61981E+04
  4.27915E+04  1.03939E+04  3.16656E+04  2.41249E+04  1.64032E+04  2.74333E+04 -4.05084E+03  2.60836E+04
 -2.22861E+04  1.31194E+04 -1.98885E+04 -4.04030E+03  4.01221E+03 -8.38269E+03  2.13787E+04  1.20110E+04
  7.93680E+03  3.35489E+04 -3.05534E+04  3.53727E+04 -6.08125E+04  2.79950E+03 -5.63946E+04 -4.16800E+04
 -1.30045E+04 -6.21913E+04  3.81298E+04 -4.37363E+04  5.60082E+04 -2.25576E+03  3.28670E+04  3.04260E+04
 -4.77842E+03  3.32419E+04 -2.82812E+04  1.27514E+04 -2.79516E+04 -4.30540E+03 -1.54177E+04 -9.44767E+03
 -6.81410E+03 -1.23433E+04 -1.99518E+03 -1.69115E+04  6.48970E+03 -2.31439E+04  1.47669E+04 -1.33567E+04
  1.22951E+04  4.81069E+03 -7.51562E+03  1.34645E+04 -2.04913E+04 -1.65112E+03 -8.20673E+03 -3.10619E+04
  2.03941E+04 -4.15462E+04  4.57154E+04 -1.98035E+04  4.22541E+04  1.88635E+04  1.51513E+04  4.16763E+04
 -1.56818E+04  3.21495E+04 -2.35203E+04  6.24723E+02 -9.97699E+03 -2.70846E+04  2.01460E+04 -3.14604E+04
  4.00640E+04 -7.74063E+03  3.15805E+04  2.35273E+04  1.67875E+04  4.41982E+04 -8.26218E+03  4.60284E+04
 -2.84959E+04  3.02541E+04 -3.87843E+04  8.81403E+03 -3.90464E+04 -1.55824E+04 -2.15932E+04 -3.45414E+04
  6.70385E+03 -3.53092E+04  2.93164E+04 -1.29425E+04  2.77929E+04  1.14270E+04  4.80456E+03  1.87170E+04
 -1.32819E+04  6.99683E+03 -9.20532E+03 -6.57528E+03  5.33658E+03 -1.05625E+04  1.72764E+04  6.78694E+03
  1.15789E+04  2.17793E+04 -6.74012E+03  2.37687E+04 -2.19132E+04  1.01058E+04 -2.47666E+04 -6.82031E+03
 -1.78538E+04 -1.68027E+04 -6.31107E+03 -1.80124E+04  3.84563E+03 -1.68343E+04  1.36842E+04 -1.57401E+04
  2.22662E+04 -1.14977E+04  2.92044E+04  1.90289E+03  2.23164E+04  1.63628E+04  5.88159E+03  3.31127E+04
 -1.60217E+04  2.80848E+04 -2.59767E+04  9.04293E+03 -2.09101E+04 -9.55955E+03 -4.48890E+03 -1.47692E+04
  2.62326E+03 -4.31312E+03 -3.35232E+03  5.84246E+03 -1.29797E+04  4.98994E+03 -1.35965E+04 -3.92381E+03
 -8.94966E+03 -1.55313E+04  3.86882E+03 -2.07103E+04  1.25609E+04 -1.41374E+04  1.51768E+04 -1.52666E+03
  1.02933E+04  1.10694E+04 -1.25995E+03  1.70497E+04 -1.22016E+04  9.53025E+03 -1.65988E+04 -4.45292E+03
 -1.31133E+04 -1.52988E+04 -1.35948E+03 -2.05862E+04  1.01738E+04 -1.57697E+04  1.80923E+04 -7.88129E+03
  1.42640E+04  4.96178E+02  1.07247E+04  3.41111E+03  5.56101E+03  3.68871E+02  7.16264E+03 -1.56731E+03
  1.49847E+04  3.38241E+03  1.59493E+04  1.39414E+04  9.88180E+03  2.56302E+04 -2.95182E+03  2.72922E+04
 -1.64167E+04  2.14675E+04 -2.56132E+04  1.10187E+04 -2.75410E+04 -1.60813E+03 -2.35006E+04 -1.66577E+04
 -9.47020E+03 -2.24681E+04  7.23472E+03 -1.99593E+04  1.71200E+04 -1.19501E+04  1.59549E+04  4.45082E+03
  7.64674E+03  1.18763E+04 -7.80998E+03  1.17714E+04 -1.40071E+04  3.25632E+03 -1.03394E+04 -8.21030E+03
 -2.93334E+02 -1.23597E+04  6.74180E+03 -9.46995E+03  8.04129E+03 -2.44643E+03  8.97905E+02  5.61672E+03
 -5.30919E+03  1.33934E+03 -4.39766E+03 -6.11741E+03 -2.12927E+02 -1.11584E+04  8.31091E+03 -1.04724E+04
  1.26852E+04 -4.85652E+03  1.35707E+04  3.31093E+03  1.23608E+04  1.02307E+04  6.10098E+03  1.64104E+04
 -1.49788E+03  1.68024E+04 -1.10860E+04  1.06007E+04 -1.24662E+04  3.23614E+03 -9.05480E+03 -3.34265E+03
 -3.80771E+03 -3.29170E+03 -5.25083E+02  1.90122E+03 -1.14004E+03  2.00058E+03 -5.92990E+03  3.68668E+03
 -8.40891E+03 -8.52110E+01 -9.57388E+03 -7.85290E+03 -3.92877E+03 -1.20194E+04  4.38838E+03 -1.11050E+04
  8.27786E+03 -4.87129E+03  6.57314E+03  2.81453E+03  1.58327E+03  3.40143E+03 -4.00102E+03  7.60272E+02
 -4.48787E+03 -6.00625E+03 -1.56738E+03 -6.92364E+03  4.09291E+03 -9.09536E+03  1.04250E+04 -5.60917E+03
  1.29078E+04  4.08314E+01  9.80767E+03  6.86238E+03  2.23044E+03  1.01121E+04 -6.03367E+03  7.66189E+03
 -7.48327E+03  3.04704E+03 -3.58736E+03 -1.23791E+02  1.07029E+03 -1.86853E+03  6.16247E+03 -2.00001E+02
  4.75535E+03  4.37462E+03  8.16871E+02  8.10434E+03 -5.45547E+03  6.38065E+03 -7.84513E+03  2.60300E+03
 -5.02932E+03 -4.15448E+03  1.57976E+02 -7.58914E+03  3.65810E+03 -3.49421E+03  4.75459E+03  1.52116E+02
 -2.30878E+02  4.41801E+03 -4.08162E+03  7.22557E+03 -5.65398E+03  1.29740E+03 -5.64543E+03 -2.65577E+03
 -2.97176E+03 -7.70680E+03  1.34362E+03 -7.61794E+03  6.66588E+03 -5.00992E+03  7.14109E+03  7.50543E+02
  5.32178E+03  5.54942E+03 -3.01013E+02  8.41845E+03 -5.47158E+03  4.35148E+03 -5.44983E+03 -2.57735E+02
 -6.92605E+03 -6.65896E+03 -8.78927E+02 -6.40852E+03  3.10708E+03 -6.13743E+03  2.47337E+03 -3.18794E+03
  3.49405E+03  4.80990E+02 -7.59348E+02  1.63232E+03  4.10851E+02  6.92772E+01  1.34916E+03 -2.24349E+03
  2.57950E+03 -9.59781E+02  5.18369E+03  1.16064E+03  5.83404E+03  3.69855E+03  6.46715E+03  7.73028E+03
 -8.57185E+02  9.45869E+03 -8.44834E+03  7.51638E+03 -1.18036E+04  1.43203E+03 -9.86722E+03 -3.65348E+03
 -4.66608E+03 -7.01822E+03 -1.24314E+03 -6.04930E+03  3.31233E+03 -3.11716E+03  2.50626E+03 -2.83043E+03
  1.22463E+03 -1.22612E+03  1.87413E+03 -2.38786E+03  4.12372E+03 -1.01740E+03  4.17566E+03  1.02019E+03
  4.68245E+03  1.40089E+03  1.21224E+03  4.46158E+03 -1.93702E+03  4.19445E+03 -4.79289E+03  2.87863E+03
 -4.15840E+03 -1.03331E+03 -3.47581E+03 -4.05557E+03 -1.21015E+02 -5.98034E+03  2.62330E+03 -6.49139E+03
  6.38954E+03 -4.31066E+03  7.02101E+03  1.38771E+03  5.67308E+03  6.04977E+03  1.37644E+03  6.46232E+03
 -2.03713E+03  6.21268E+03 -3.31066E+03  3.59478E+03 -1.86065E+03 -5.66774E+02 -1.09067E+03 -4.84850E+02
 -1.31559E+03  5.02489E+02 -1.07005E+03  2.60611E+03 -2.89018E+03  1.11609E+03 -5.21302E+03 -1.99345E+02
 -2.25032E+03 -3.43475E+03 -1.60477E+02 -5.32505E+03  2.17605E+03 -5.43540E+03  3.77373E+03 -1.25394E+03
  5.78315E+03  3.03478E+03  2.12700E+03  4.82607E+03 -8.46483E+02  4.70191E+03 -2.88250E+03  2.87003E+03
 -3.18087E+03  1.31809E+02 -4.69841E+03 -3.34170E+03  5.36709E+02 -3.52894E+03  2.35165E+03 -2.67283E+03
  3.16401E+03 -2.07261E+03  1.76839E+03  2.72576E+02  1.78288E+03  1.91805E+03  1.48303E+03  7.27349E+02
  2.68814E+03  1.07301E+02  1.89161E+03  3.71804E+02  1.58721E+03  1.74199E+03  1.96708E+03  2.10431E+03
 -1.36019E+03  3.12792E+03 -3.90805E+03  6.19176E+03 -3.71431E+03  9.37760E+02 -4.41120E+03 -4.73978E+02
 -2.47760E+03 -4.61730E+03  1.11273E+03 -4.63499E+03  2.90653E+03 -2.80791E+03  2.76820E+03 -6.72690E+02
  2.93422E+03  2.97106E+03  1.34345E+03  1.58908E+03 -6.19752E+02  1.42595E+03 -1.89542E+03 -1.05698E+03
  1.13056E+01 -1.84507E+03  2.30121E+03 -2.15092E+03  2.90633E+03 -1.29361E+03  1.05951E+03 -1.45233E+01
  1.18865E+01 -2.46671E+02  8.58970E+02 -1.06499E+03 -1.14484E+03  1.13024E+03  1.06189E+03 -2.12554E+02
  3.49128E+02 -9.57615E+01  1.34668E+03  4.45019E+02  2.56890E+02  9.56639E+02 -8.34740E+02  3.38577E+03
 -1.22858E+03  2.09555E+03 -2.69916E+03  4.51823E+02 -3.01036E+03 -6.16941E+02 -3.40305E+02 -2.29998E+03
 -1.08745E+02 -2.41442E+03  7.16964E+02 -1.01404E+03  1.04506E+03  2.20575E+03 -6.31676E+02  1.24579E+03
 -1.58698E+03  1.62002E+03 -1.25332E+03 -1.36384E+03 -6.40947E+02 -2.24302E+03  2.18897E+02 -2.66528E+03
  8.30106E+02 -1.84799E+03  1.22892E+03  4.48306E+02  9.64472E+02 -5.18838E+02  1.49039E+03  1.88893E+03
 -6.63659E+02  6.14435E+02 -1.22520E+03 -1.08393E+03  6.12985E+02 -1.28004E+03  1.38229E+03 -5.03379E+02
  2.08869E+03  4.70389E+02  3.22071E+03  8.19490E+02  1.03330E+03  2.46484E+03 -9.43791E+02  1.16037E+03
 -1.81725E+03  4.61485E+02 -5.68556E+02 -5.35700E+01 -1.21983E+03 -1.79425E+03  4.70922E+02 -1.57857E+02
  2.41550E+03  1.37479E+02  3.73289E+02  1.11031E+03  5.40798E+02  1.17191E+03  2.17597E+02  2.10232E+03
 -2.11794E+02  1.31110E+03 -9.31770E+00  2.24425E+02 -8.62643E+02 -1.86136E+02 -3.11075E+02  1.03362E+03
 -1.85316E+03  1.67790E+03 -1.86455E+03  1.41071E+02 -3.37938E+03 -3.64785E+02 -3.19751E+03 -2.23755E+03
 -1.68579E+03 -2.69798E+03  1.95650E+03 -3.19616E+03  2.07961E+03 -2.83179E+03  4.75274E+03 -1.43851E+03
  3.17175E+03  5.67761E+02  1.24191E+03  1.83766E+03  5.37018E+01  1.53321E+03 -9.86059E+02  6.85753E+02
 -1.62707E+03  1.31080E+03 -1.58092E+03  2.53507E+02  1.55945E+01  7.58629E+02  1.07137E+02 -8.07824E+02
 -9.86053E+02 -5.44407E+02 -1.19190E+03  1.89260E+02 -1.19403E+01 -8.72928E+02 -7.82675E+02 -7.63011E+02
  1.10836E+03 -1.09634E+03 -1.73484E+02 -1.18578E+02  1.81289E+03  2.14520E+03 -2.77905E+02  2.33220E+03
 -6.05999E+02  3.08288E+03 -2.04704E+03  2.35171E+03 -2.39032E+03 -5.85962E+02 -1.02700E+03 -2.19049E+03
 -5.14650E+02 -1.42553E+03  5.44922E+02 -4.22106E+02  5.20595E+02 -1.22469E+03  1.44690E+03 -7.94534E+01
  1.93671E+03  1.01711E+03 -3.95819E+02 -7.93518E+01 -6.57513E+02  3.49796E+02 -1.07700E+03 -3.35122E+02
  7.13505E+02  2.94986E+02  1.09425E+03  1.05703E+02  6.54010E+02  1.58636E+03  4.70868E+02 -1.31239E+02
 -7.65496E+02  1.74064E+03 -2.94328E+02  3.15392E+02 -1.32483E+03 -8.57770E+02 -8.26033E+02 -2.62823E+03
  1.09725E+03 -7.84553E+02  9.36496E+02 -4.96225E+02  1.19825E+03  3.29613E+01 -4.77068E+02  6.66810E+02
  3.27048E+02  7.19714E+02 -7.70072E+02 -4.08630E+02 -1.37890E+02  4.55280E+02 -1.41794E+03  2.35726E+02
  1.48105E+02 -5.35322E+02 -7.07240E+02 -8.26569E+02 -1.88046E+03  1.32919E+03 -8.21362E+02  5.97844E+02
 -1.02439E+03 -7.88782E+02 -2.22610E+02 -1.12971E+03 -6.19097E+01 -1.91195E+03  2.00230E+03 -6.00232E+02
  8.68377E+02  7.88636E+02 -2.90257E+02  8.78940E+02  1.29803E+02  5.28897E+01 -8.39977E+02  8.69755E+02
