 $NMID ID='MM_0lb_SNR200_10hz_g45_46.RAW', FMTDAT='(8E13.5)'
 TRAMP=1., VOLUME=1. $END
  3.08914E+05 -1.25285E+03  3.37310E+05  2.50429E+05  8.46006E+04  3.38368E+05 -1.32437E+05  2.51758E+05
 -1.89694E+05  8.39119E+04 -1.13023E+05 -3.22685E+04  7.07368E+02 -5.08826E+04  5.39007E+04 -4.75585E+02
  3.55044E+04  5.17340E+04 -1.67445E+04  7.60519E+04 -5.96701E+04  6.43199E+04 -8.58210E+04  3.29987E+04
 -8.19989E+04 -1.14559E+04 -5.80920E+04 -5.15112E+04 -1.65593E+04 -6.83775E+04  2.65004E+04 -4.47995E+04
  4.08829E+04  2.17601E+03  1.76635E+04  4.87479E+04 -3.54710E+04  4.72643E+04 -6.82085E+04 -8.41892E+02
 -5.45970E+04 -5.73190E+04 -7.52371E+03 -7.94091E+04  3.42364E+04 -5.69843E+04  4.82225E+04 -1.73116E+04
  4.44484E+04  1.20225E+04  3.15476E+04  2.55209E+04  1.48313E+04  2.97110E+04 -5.60071E+03  2.84050E+04
 -2.28065E+04  1.24225E+04 -1.76109E+04 -4.99467E+03  7.16852E+03 -8.31334E+03  2.34409E+04  1.42027E+04
  7.58150E+03  3.75162E+04 -3.17894E+04  3.66422E+04 -6.48064E+04  1.88846E+03 -5.93445E+04 -4.50146E+04
 -1.16876E+04 -6.68416E+04  4.13226E+04 -4.67142E+04  5.95028E+04 -3.22490E+03  3.49080E+04  3.40865E+04
 -5.02986E+03  3.95612E+04 -3.35420E+04  1.68340E+04 -3.21713E+04 -3.47198E+03 -1.80340E+04 -1.07759E+04
 -9.56815E+03 -1.45163E+04 -6.61341E+02 -1.77022E+04  8.48866E+03 -2.38524E+04  1.69836E+04 -1.10928E+04
  1.06547E+04  5.29129E+03 -9.95618E+03  1.37492E+04 -2.21821E+04 -6.00643E+03 -8.66888E+03 -3.74001E+04
  2.36167E+04 -4.46116E+04  5.01563E+04 -2.11688E+04  4.73692E+04  2.00282E+04  1.69371E+04  4.67682E+04
 -1.54492E+04  3.61472E+04 -2.73316E+04  2.22508E+03 -1.18164E+04 -2.93555E+04  2.18854E+04 -3.67432E+04
  4.38005E+04 -1.00974E+04  3.92725E+04  2.36521E+04  2.09226E+04  5.12302E+04 -8.61896E+03  5.31128E+04
 -3.48378E+04  3.64629E+04 -4.59533E+04  9.96884E+03 -4.62534E+04 -1.85586E+04 -2.46183E+04 -4.08031E+04
  8.30798E+03 -4.07390E+04  3.24901E+04 -1.60945E+04  3.02946E+04  1.07871E+04  5.01566E+03  1.95620E+04
 -1.39067E+04  8.47873E+03 -1.11749E+04 -7.65210E+03  4.28798E+03 -1.08520E+04  1.79711E+04  6.70867E+03
  1.48491E+04  2.37243E+04 -5.94517E+03  2.71055E+04 -2.41990E+04  1.19512E+04 -3.22906E+04 -3.29401E+03
 -2.31295E+04 -1.69609E+04 -1.21898E+04 -2.40232E+04  4.33675E+03 -2.36393E+04  1.79055E+04 -2.11923E+04
  3.03061E+04 -1.20836E+04  3.54526E+04  3.93943E+03  2.59080E+04  2.34834E+04  5.44261E+03  4.07957E+04
 -1.90596E+04  3.24716E+04 -2.84196E+04  9.82247E+03 -2.22680E+04 -1.21376E+04 -4.36467E+03 -1.30521E+04
  1.19729E+03 -1.87686E+03 -7.36937E+03  8.09308E+03 -1.92997E+04  5.19098E+03 -1.76119E+04 -9.34205E+03
 -1.09324E+04 -2.27341E+04  5.42978E+03 -2.51129E+04  1.86139E+04 -1.86373E+04  2.20584E+04 -2.10890E+03
  1.45937E+04  1.52042E+04 -1.06270E+03  2.26716E+04 -1.37151E+04  1.27259E+04 -2.21170E+04 -4.63903E+03
 -1.69227E+04 -1.87898E+04 -3.75186E+03 -2.67014E+04  1.06198E+04 -2.18926E+04  2.19091E+04 -1.22644E+04
  1.96719E+04 -2.88779E+02  1.42249E+04  5.92976E+03  9.04191E+03  1.08402E+03  1.07645E+04 -2.39046E+03
  2.12109E+04  2.49352E+03  2.30781E+04  1.76334E+04  1.58892E+04  3.37522E+04 -3.85383E+03  4.21715E+04
 -2.32530E+04  3.41276E+04 -3.94939E+04  1.72425E+04 -4.09585E+04 -3.72966E+03 -3.46265E+04 -2.41935E+04
 -1.57325E+04 -3.49862E+04  1.10428E+04 -2.97244E+04  2.74342E+04 -1.49877E+04  2.24639E+04  7.50507E+03
  8.51708E+03  1.74977E+04 -9.78647E+03  1.60597E+04 -1.91091E+04  2.75833E+03 -1.30067E+04 -1.25954E+04
 -1.51328E+03 -1.92361E+04  9.13044E+03 -1.26351E+04  1.36432E+04 -2.30723E+03  2.56427E+03  7.30326E+03
 -7.99671E+03  3.99252E+03 -7.59409E+03 -6.32818E+03 -2.35532E+03 -1.54466E+04  1.09624E+04 -1.88251E+04
  2.05676E+04 -1.06664E+04  2.34120E+04  3.64268E+03  1.99429E+04  1.67459E+04  9.96583E+03  2.57743E+04
 -5.97736E+03  2.82169E+04 -1.98598E+04  1.78756E+04 -1.96950E+04  3.20299E+03 -1.32986E+04 -4.91416E+03
 -6.01380E+03 -5.53421E+03  9.10227E+02  8.14913E+02 -2.58257E+03  9.50635E+01 -6.23054E+03  5.20852E+03
 -1.36336E+04 -5.05099E+02 -1.46618E+04 -1.17690E+04 -5.46950E+03 -1.88587E+04  5.40745E+03 -1.35970E+04
  1.25869E+04 -5.45444E+03  8.76547E+03  4.72284E+03 -6.30283E+02  6.19817E+03 -6.79315E+03 -1.03819E+03
 -7.24346E+03 -8.94423E+03 -1.10429E+03 -1.39627E+04  7.19197E+03 -1.52951E+04  1.76540E+04 -8.80704E+03
  2.13009E+04  1.81620E+03  1.50407E+04  1.40224E+04  2.89503E+03  1.82139E+04 -9.97173E+03  1.47122E+04
 -1.24394E+04  3.04089E+03 -5.86691E+03 -1.83049E+03  3.30696E+03 -3.85293E+03  7.86314E+03 -1.87568E+03
  7.64065E+03  6.83990E+03  1.70408E+03  1.21714E+04 -8.30871E+03  1.13994E+04 -1.33410E+04  3.04835E+03
 -1.04880E+04 -8.65449E+03  9.60018E+02 -1.25083E+04  6.81612E+03 -5.13305E+03  6.77762E+03  3.60890E+03
  2.44838E+03  8.50981E+03 -7.98802E+03  1.15296E+04 -1.23959E+04  6.04231E+03 -1.22623E+04 -4.06600E+03
 -9.15815E+03 -1.53733E+04  4.40493E+03 -1.63402E+04  1.43631E+04 -9.92602E+03  1.50911E+04  3.88310E+03
  9.76495E+03  1.14715E+04 -2.69208E+03  1.48587E+04 -1.04320E+04  5.72785E+03 -1.03685E+04 -1.07674E+03
 -9.34407E+03 -9.30750E+03 -1.95653E+03 -1.12199E+04  5.75317E+03 -9.78446E+03  6.21759E+03 -3.45546E+03
  4.01176E+03  2.02811E+03 -1.24734E+03  2.19450E+03 -7.23561E+02 -3.10214E+03  2.34921E+03 -6.39366E+03
  1.06977E+04 -4.24437E+03  1.40070E+04  8.91149E+02  1.51459E+04  9.84307E+03  9.87951E+03  1.79408E+04
 -5.05160E+03  2.00151E+04 -1.72160E+04  1.69744E+04 -2.24382E+04  3.31885E+03 -1.81169E+04 -8.61225E+03
 -8.87675E+03 -1.58258E+04 -6.89951E+02 -1.45327E+04  3.76639E+03 -7.59702E+03  6.34596E+03 -4.75066E+03
  3.91670E+03 -2.13456E+03  2.51545E+03 -3.83355E+03  5.42081E+03 -1.90695E+03  6.93216E+03 -1.70107E+03
  8.49870E+03  2.86933E+03  5.14119E+03  8.06609E+03 -2.68771E+03  9.67401E+03 -1.03882E+04  8.18272E+03
 -1.28576E+04 -2.82065E+02 -6.36342E+03 -9.83938E+03  6.37775E+02 -1.41878E+04  8.23571E+03 -1.43708E+04
  1.49804E+04 -8.11742E+03  1.51653E+04  2.95676E+03  1.14064E+04  1.14570E+04  1.46163E+03  1.67873E+04
 -6.02866E+03  1.25626E+04 -8.58913E+03  4.61078E+03 -6.39514E+03 -1.93077E+03 -2.13306E+03 -1.74738E+03
  1.19397E+03  8.54806E+01  3.48927E+02  1.69262E+03 -5.68699E+03  1.43177E+03 -8.13683E+03 -9.55296E+02
 -6.72052E+03 -1.00244E+04 -2.75102E+02 -1.23554E+04  7.87085E+03 -1.32461E+04  1.27077E+04 -3.35350E+03
  1.35289E+04  6.75687E+03  5.54913E+03  1.04236E+04 -1.46189E+03  1.17465E+04 -8.65989E+03  7.04808E+03
 -1.22299E+04 -1.00961E+03 -9.76543E+03 -7.86980E+03 -3.21878E+03 -1.15324E+04  6.64031E+03 -7.18039E+03
  7.48803E+03 -2.34710E+03  6.36764E+03  2.01301E+03  2.63366E+03  2.65465E+03  2.40844E+03  1.28207E+03
  2.92008E+03  7.42987E+01  1.99837E+03  3.10460E+03  3.29333E+03  3.97636E+03  4.06578E+03  6.96756E+03
 -4.63023E+03  8.20427E+03 -9.12797E+03  1.01708E+04 -1.40806E+04  2.10701E+03 -1.44143E+04 -4.69926E+03
 -6.04204E+03 -1.33941E+04  2.03872E+03 -1.46422E+04  7.48553E+03 -9.21979E+03  1.00676E+04 -1.81825E+03
  8.88600E+03  4.84076E+03  1.10711E+03  7.11108E+03 -4.06441E+03  4.57235E+03 -5.30169E+03 -1.80284E+03
 -2.70605E+03 -5.51044E+03  3.04062E+03 -4.79476E+03  5.71019E+03 -3.54767E+03  6.02099E+03 -3.91582E+01
  2.37596E+03  2.12283E+03  2.94691E+03  1.43530E+03 -3.97163E+02  2.14844E+03  2.56221E+03 -1.36236E+03
  2.22525E+03  2.61371E+02  5.43234E+03  2.24871E+03  3.56734E+03  6.23018E+03 -1.22702E+03  9.26429E+03
 -5.94319E+03  4.46047E+03 -7.28251E+03  1.64185E+03 -7.15527E+03 -3.99198E+03 -2.52331E+03 -4.62229E+03
  1.55901E+02 -5.87748E+03  4.30227E+03 -4.07179E+03  2.74841E+03  2.45217E+03 -9.58051E+02  4.06901E+03
 -6.39057E+03  3.13032E+03 -6.10273E+03 -2.54769E+03 -4.74714E+03 -5.71876E+03  6.73190E+02 -7.18033E+03
  4.38963E+03 -3.89589E+03  5.70012E+03  1.46313E+01  4.06313E+03  1.45576E+03  3.57609E+02  3.50217E+03
 -1.52814E+03  1.04783E+03 -4.22210E+03 -3.21261E+03  6.95532E+02 -6.50720E+03  4.16648E+03 -3.94431E+03
  7.87075E+03 -9.33117E+02  8.48494E+03  5.70682E+03  3.19830E+03  8.38568E+03 -1.27291E+03  8.21622E+03
 -5.29309E+03  2.37395E+03 -7.19598E+03 -8.14429E+02 -1.68138E+03 -5.77742E+03  1.21872E+03 -3.91059E+03
  5.20777E+03 -1.79573E+03  4.91915E+03  2.35282E+03  6.24636E+02  4.28524E+03 -7.75625E+02  4.50840E+03
 -2.47676E+03  2.12795E+03 -1.57989E+03  2.77022E+02 -1.77562E+03 -2.66555E+02 -8.70943E+02  4.19938E+03
 -1.79611E+03  4.04965E+03 -5.75663E+03  2.27527E+03 -7.80002E+03 -2.47486E+02 -9.68826E+03 -5.96016E+03
 -5.76171E+03 -1.14649E+04  3.76947E+03 -1.29999E+04  6.25877E+03 -8.71064E+03  1.28159E+04 -4.24257E+03
  1.11149E+04  2.14843E+03  6.66594E+03  6.69155E+03  5.97292E+01  8.73805E+03 -3.05797E+03  8.19917E+03
 -3.85297E+03  2.00646E+03 -2.66246E+03 -4.36638E+01  3.97918E+02 -9.92858E+02 -1.53048E+03 -6.07418E+02
 -9.70696E+02  4.64875E+02 -2.25107E+03 -1.67613E+03 -1.27974E+03 -2.20106E+03 -4.95030E+02 -3.70906E+03
  3.88504E+03 -3.29247E+03  4.53260E+03  1.14617E+03  5.62958E+03  3.60346E+03  2.66685E+03  8.49507E+03
 -5.07436E+03  9.82613E+03 -8.77358E+03  6.19621E+03 -8.66684E+03 -1.61667E+03 -8.77448E+03 -6.61554E+03
 -2.48990E+03 -9.08875E+03  9.52603E+02 -8.09512E+03  5.58964E+03 -5.25293E+03  6.32535E+03  1.82547E+01
  2.32822E+03  3.17297E+03 -1.73974E+02  2.80946E+03 -2.05603E+03 -9.35683E+02  1.39168E+02 -2.30625E+03
  2.46897E+03 -1.28550E+02  3.20961E+03  1.61007E+03  2.75771E+03  3.30840E+03  3.61855E+02  6.23966E+03
 -4.84976E+03  2.73194E+03 -5.60495E+03  1.15509E+03 -4.14376E+03 -4.32127E+03  3.24089E+02 -8.72921E+03
  2.52668E+03 -6.41984E+03  5.12908E+03 -1.10185E+03  6.04467E+03  1.32149E+03  3.67802E+03  4.90075E+03
  1.96142E+02  5.53061E+03 -1.04823E+03  5.15413E+03 -4.16352E+03  3.07968E+03 -1.36132E+03  6.95614E+02
 -1.86781E+03  7.87184E+02 -2.61572E+03  1.96120E+02 -3.89473E+03  2.91275E+02 -4.80431E+03 -3.98418E+02
 -2.80898E+03 -2.82797E+03 -3.29518E+02 -4.37573E+03  1.47275E+03 -5.63686E+03  6.27575E+03 -3.26147E+03
  5.48823E+03  2.10035E+03  1.89814E+03  5.35890E+03 -1.18233E+03  6.58833E+03 -2.57655E+03  4.05354E+03
