 $NMID ID='MM_0lb_SNR200_12hz_g50_48.RAW', FMTDAT='(8E13.5)'
 TRAMP=1., VOLUME=1. $END
  3.09248E+05  1.32583E+03  3.36881E+05  2.52228E+05  8.64319E+04  3.38623E+05 -1.32604E+05  2.51717E+05
 -1.90108E+05  8.28624E+04 -1.10211E+05 -3.28405E+04  8.20003E+02 -5.09455E+04  5.37829E+04  2.14303E+03
  3.38655E+04  5.25799E+04 -1.72926E+04  7.48637E+04 -6.10858E+04  6.25131E+04 -8.47630E+04  3.27171E+04
 -8.16665E+04 -1.20895E+04 -5.74551E+04 -5.14192E+04 -1.49205E+04 -6.92322E+04  2.72599E+04 -4.71705E+04
  4.07004E+04  2.89067E+03  1.59039E+04  4.75974E+04 -3.36961E+04  4.83770E+04 -6.78819E+04  5.24734E+02
 -5.37553E+04 -5.71411E+04 -5.99816E+03 -7.83041E+04  3.46619E+04 -5.59386E+04  4.87157E+04 -1.81300E+04
  4.43773E+04  1.25874E+04  3.22374E+04  2.54741E+04  1.58155E+04  3.07892E+04 -4.87522E+03  2.63944E+04
 -2.16272E+04  1.22341E+04 -1.86366E+04 -6.38050E+03  6.29659E+03 -6.98194E+03  2.34448E+04  1.29796E+04
  6.72476E+03  3.71148E+04 -3.19958E+04  3.57621E+04 -6.44793E+04  1.32798E+03 -5.77382E+04 -4.30305E+04
 -1.19870E+04 -6.44851E+04  3.93068E+04 -4.56311E+04  6.04126E+04 -2.05236E+03  3.59745E+04  3.27592E+04
 -6.21826E+03  3.78665E+04 -2.99878E+04  1.63441E+04 -3.18817E+04 -3.56778E+03 -1.75635E+04 -1.12707E+04
 -8.70222E+03 -1.28360E+04 -7.26464E+02 -1.80114E+04  7.38175E+03 -2.34957E+04  1.59973E+04 -1.24471E+04
  1.05032E+04  5.39013E+03 -9.71458E+03  1.34400E+04 -2.17295E+04 -5.10801E+03 -7.91950E+03 -3.57829E+04
  2.39858E+04 -4.36126E+04  5.00506E+04 -2.12684E+04  4.64709E+04  1.94433E+04  1.61200E+04  4.55088E+04
 -1.62104E+04  3.39465E+04 -2.66009E+04  1.44609E+03 -1.00206E+04 -2.75394E+04  2.09920E+04 -3.50075E+04
  4.14813E+04 -9.72363E+03  3.76937E+04  2.40583E+04  2.01601E+04  4.81404E+04 -7.78879E+03  5.23233E+04
 -3.44158E+04  3.55544E+04 -4.37275E+04  1.01757E+04 -4.27934E+04 -1.72852E+04 -2.53543E+04 -3.85437E+04
  8.44177E+03 -3.97976E+04  3.34075E+04 -1.59727E+04  2.95350E+04  1.11656E+04  4.95225E+03  1.87760E+04
 -1.32438E+04  8.04560E+03 -1.05649E+04 -7.67913E+03  6.54338E+03 -1.26403E+04  1.85928E+04  5.50796E+03
  1.48001E+04  2.26563E+04 -5.78405E+03  2.53879E+04 -2.27696E+04  1.16682E+04 -2.95650E+04 -5.02968E+03
 -2.33816E+04 -1.79094E+04 -8.80797E+03 -2.27697E+04  4.80126E+03 -2.22154E+04  1.78898E+04 -2.04029E+04
  2.97839E+04 -1.48632E+04  3.59632E+04  3.36893E+03  2.53034E+04  2.23389E+04  4.69846E+03  3.86033E+04
 -1.99483E+04  3.18456E+04 -2.93971E+04  1.10667E+04 -2.09205E+04 -9.03276E+03 -5.93349E+03 -1.31603E+04
  9.71255E+02 -3.04836E+03 -6.67824E+03  7.88563E+03 -1.83402E+04  5.75277E+03 -1.83045E+04 -7.90216E+03
 -1.10803E+04 -1.99704E+04  5.32311E+03 -2.38294E+04  1.77417E+04 -1.85451E+04  2.03947E+04 -6.24070E+02
  1.24640E+04  1.57813E+04 -1.03993E+03  1.88304E+04 -1.41525E+04  1.34598E+04 -2.22242E+04 -4.99811E+03
 -1.64928E+04 -1.82784E+04 -2.24426E+03 -2.55235E+04  1.15121E+04 -2.12543E+04  1.81718E+04 -1.03133E+04
  1.92111E+04 -2.73697E+02  1.43228E+04  5.77104E+03  9.96776E+03  9.59203E+02  1.03552E+04 -6.09416E+02
  1.89258E+04  1.83176E+03  2.14329E+04  1.58516E+04  1.50179E+04  3.38437E+04 -3.48525E+03  3.84359E+04
 -2.30844E+04  3.08674E+04 -3.62258E+04  1.46422E+04 -3.68175E+04 -2.58454E+03 -3.10627E+04 -2.13729E+04
 -1.17802E+04 -3.07146E+04  9.69340E+03 -2.78214E+04  2.24268E+04 -1.35410E+04  2.00757E+04  5.66596E+03
  7.67639E+03  1.53685E+04 -8.05199E+03  1.29955E+04 -1.87793E+04  2.81903E+03 -1.34457E+04 -1.03569E+04
  2.30436E+02 -1.74658E+04  7.36661E+03 -1.22286E+04  1.08344E+04 -2.35513E+03  2.33787E+03  6.33078E+03
 -7.26144E+03  1.41169E+03 -6.66759E+03 -5.57552E+03 -4.17054E+02 -1.54723E+04  1.20106E+04 -1.55286E+04
  1.94603E+04 -1.00268E+04  2.20306E+04  5.13686E+03  1.73123E+04  1.53674E+04  8.98367E+03  2.45133E+04
 -4.90148E+03  2.59579E+04 -1.59494E+04  1.57547E+04 -1.90852E+04  3.59923E+03 -1.32585E+04 -5.28964E+03
 -7.71284E+03 -5.65643E+03  9.62582E+02  1.30377E+03 -2.94612E+03  3.32381E+03 -7.19593E+03  3.92233E+03
 -1.31952E+04  9.45188E+00 -1.17356E+04 -9.03342E+03 -5.33491E+03 -1.59428E+04  5.19789E+03 -1.29967E+04
  1.10668E+04 -6.80212E+03  8.18966E+03  3.34511E+03  6.64904E+02  4.17012E+03 -6.06926E+03 -6.61330E+02
 -7.83767E+03 -8.30461E+03 -8.79403E+02 -1.13153E+04  7.77961E+03 -1.29618E+04  1.52850E+04 -7.84790E+03
  1.90051E+04  5.37025E+02  1.44024E+04  1.09275E+04  1.68547E+03  1.41936E+04 -7.91636E+03  1.28136E+04
 -1.03352E+04  5.99861E+03 -6.31382E+03 -2.66654E+03  1.29762E+03 -4.45799E+03  6.72408E+03 -4.26458E+02
  5.85491E+03  5.35857E+03  1.01212E+03  1.03769E+04 -5.78784E+03  9.38308E+03 -1.36652E+04  1.76610E+03
 -7.84938E+03 -6.44296E+03  3.23411E+02 -1.03797E+04  8.12613E+03 -5.43040E+03  7.13701E+03  2.94854E+03
  1.09128E+03  6.93832E+03 -6.38252E+03  8.55205E+03 -1.04324E+04  4.13786E+03 -9.52966E+03 -3.29665E+03
 -5.21179E+03 -1.19590E+04  4.39063E+03 -1.37683E+04  1.20715E+04 -9.87158E+03  1.08760E+04  2.33351E+03
  7.89664E+03  9.53889E+03 -1.53618E+03  1.11746E+04 -9.38701E+03  6.38616E+03 -9.50874E+03 -7.77911E+02
 -9.80655E+03 -8.43841E+03 -2.08813E+03 -9.98236E+03  4.58193E+03 -6.39412E+03  4.05618E+03 -4.44117E+03
  5.20858E+03 -6.50916E+02 -5.14439E+02  7.62425E+02 -2.42901E+02 -2.61332E+03  9.67228E+02 -6.11902E+03
  9.48905E+03 -4.65017E+03  1.19520E+04  1.42921E+03  1.10070E+04  7.51549E+03  8.45366E+03  1.51286E+04
 -3.83261E+03  1.81899E+04 -1.53624E+04  1.37269E+04 -1.93571E+04  2.23152E+03 -1.59842E+04 -6.26544E+03
 -7.84025E+03 -1.28812E+04 -2.19568E+02 -1.03801E+04  3.80757E+03 -6.57187E+03  4.23378E+03 -4.20370E+03
  2.79835E+03 -3.44062E+03  2.93358E+03 -3.68753E+03  6.23377E+03 -1.96934E+03  6.62660E+03 -2.28709E+02
  9.03110E+03  8.55759E+02  3.98532E+03  7.02230E+03 -2.65101E+03  8.25928E+03 -8.62422E+03  5.78783E+03
 -1.00063E+04 -1.94157E+03 -6.38925E+03 -7.59291E+03 -1.49341E+03 -1.18251E+04  5.79649E+03 -1.14432E+04
  1.19507E+04 -6.91916E+03  1.38258E+04  9.08681E+02  1.22324E+04  1.03185E+04  2.38340E+03  1.22948E+04
 -4.89781E+03  1.24278E+04 -7.36295E+03  3.82849E+03 -5.22439E+03 -2.04517E+03 -1.94622E+03 -1.50739E+03
 -1.43120E+03  9.75376E+02 -2.02189E+03  3.63333E+03 -4.52155E+03  2.24279E+03 -7.99641E+03  2.80435E+02
 -5.57018E+03 -7.01166E+03 -6.89979E+01 -9.13668E+03  6.81220E+03 -9.58393E+03  9.23521E+03 -2.70918E+03
  1.05256E+04  6.72663E+03  4.48683E+03  9.51269E+03 -2.65594E+03  1.08463E+04 -6.01403E+03  5.60763E+03
 -9.64422E+03  9.71347E+02 -7.23642E+03 -5.93595E+03 -8.16401E+02 -8.88287E+03  2.99232E+03 -6.76352E+03
  6.58545E+03 -1.67032E+03  5.33250E+03  2.00341E+03  1.27126E+03  2.41737E+03  9.35155E+02  1.58170E+03
  2.88426E+03  1.50919E+03  2.89194E+03  2.07503E+03  2.12392E+03  2.06422E+03  2.54816E+03  4.90356E+03
 -1.18073E+03  8.36742E+03 -8.07660E+03  8.77234E+03 -1.03423E+04  2.84334E+03 -1.06816E+04 -4.49751E+03
 -4.99742E+03 -9.96777E+03  3.08969E+03 -1.09023E+04  5.75350E+03 -6.18866E+03  8.00059E+03 -1.97408E+03
  5.67188E+03  4.50585E+03  2.17587E+03  4.44232E+03 -2.03385E+03  3.98992E+03 -4.22795E+03 -2.97565E+02
 -2.02124E+03 -4.25497E+03  2.13656E+03 -3.28385E+03  5.15044E+03 -2.25382E+03  3.63130E+03  7.17323E+02
  1.52317E+03  2.37810E+03  2.02146E+03  1.03589E+03 -7.12816E+02  1.05364E+03  1.35393E+03  7.95060E+02
  2.50910E+03 -4.09714E+02  4.04752E+03  2.45280E+03  1.86985E+03  5.53180E+03 -1.85200E+03  7.04219E+03
 -4.54959E+03  5.41573E+03 -6.44671E+03  1.28613E+03 -5.48342E+03 -2.21423E+03 -9.26785E+02 -4.95476E+03
  8.59888E+02 -3.45650E+03  2.56845E+03 -1.73113E+03  6.62423E+02  1.42876E+03  2.32154E+02  2.48885E+03
 -4.78678E+03  5.57100E+02 -3.91009E+03 -1.77012E+03 -1.58934E+03 -5.65067E+03  1.76439E+03 -5.35989E+03
  1.57585E+03 -4.63882E+03  2.62710E+03  3.18012E+01  1.93408E+03  1.01778E+03 -7.94123E+02  2.51342E+03
 -1.79533E+03  8.12341E+01 -1.51980E+03 -1.45392E+03  1.37239E+03 -3.92449E+03  4.76022E+03 -4.49931E+03
  6.54547E+03  1.51372E+03  6.06918E+03  4.58324E+03  3.20890E+03  7.62199E+03 -1.79793E+03  6.54135E+03
 -7.26422E+03  2.14368E+03 -3.79878E+03 -1.22495E+03 -1.28720E+03 -4.99457E+03 -9.12901E+00 -3.70937E+03
  3.89212E+03 -1.45964E+03  4.01247E+03  9.29447E+02 -8.52116E+01  4.75449E+03 -1.71322E+02  2.67960E+03
 -1.36573E+03  3.30315E+03 -7.00676E+02  5.73785E+02 -8.67922E+02  1.76077E+03 -1.02312E+03  1.45308E+03
 -1.62322E+03  2.49809E+03 -4.55209E+03  2.23943E+03 -6.30865E+03  1.09643E+02 -6.59937E+03 -4.73128E+03
 -3.09567E+03 -8.23005E+03  1.27458E+03 -9.99091E+03  5.19100E+03 -7.48996E+03  9.15132E+03 -3.29329E+03
  9.24534E+03  6.28573E+02  4.95220E+03  4.95434E+03 -6.47264E+02  5.70751E+03 -2.93529E+03  4.93731E+03
 -2.88139E+03  1.95652E+03 -2.71481E+03 -2.83618E+03 -2.30315E+02 -7.44302E+02 -1.65599E+02 -1.89343E+02
 -2.06493E+03 -7.78497E+02 -1.85306E+03  4.61259E+01 -1.37932E+03 -2.11713E+03 -3.59198E+02 -3.17013E+03
  3.11978E+03 -1.11899E+03  3.09451E+03  1.50252E+03  4.28037E+03  3.69922E+03  1.17787E+03  5.71774E+03
 -1.96845E+03  6.24100E+03 -5.48276E+03  4.52671E+03 -8.81118E+03  3.09943E+02 -7.85522E+03 -3.97089E+03
 -2.72312E+03 -5.73014E+03  1.42865E+03 -4.64052E+03  3.86175E+03 -3.17522E+03  3.52936E+03 -9.01375E+02
  1.25523E+03  4.80260E+02  1.26461E+02  2.48334E+03 -8.40667E+02 -2.99112E+02  1.35688E+03 -4.16859E+02
  1.24390E+03 -1.85360E+03  1.57548E+03  1.40853E+03  9.49140E+02  2.05483E+03  1.00784E+03  2.96122E+03
 -1.86615E+03  1.86947E+03 -4.08839E+03 -2.14120E+03 -4.04999E+03 -3.50761E+03  4.97725E+02 -3.80448E+03
  2.05595E+03 -5.85867E+03  4.06141E+03 -1.72743E+03  4.38567E+03  4.64617E+02  2.58774E+03  3.22442E+03
 -6.49413E+01  4.42022E+03 -4.10941E+02  2.32862E+03 -3.81915E+03  2.54848E+03 -2.07704E+03  5.97563E+02
 -9.18498E+02 -4.44140E+02 -7.55762E+02 -1.50274E+02 -2.06263E+03  1.04129E+03 -3.13347E+03 -3.15935E+02
 -4.19322E+03 -1.52896E+03 -1.07515E+03 -4.31238E+03  2.66869E+03 -3.97941E+03  2.95248E+03 -1.34403E+03
  4.01488E+03  1.02880E+03  1.35327E+03  2.67367E+03  1.20511E+03  3.40878E+03 -2.57530E+03  3.07159E+03
