 $NMID ID='MM_0lb_SNR200_7hz_g50_28.RAW', FMTDAT='(8E13.5)'
 TRAMP=1., VOLUME=1. $END
  3.10080E+05  8.26971E+01  3.40033E+05  2.50474E+05  8.51343E+04  3.37254E+05 -1.33136E+05  2.52656E+05
 -1.91255E+05  8.37128E+04 -1.12363E+05 -3.20693E+04 -1.49909E+02 -5.08097E+04  5.52625E+04  2.17472E+03
  3.55702E+04  5.23178E+04 -1.55672E+04  7.68954E+04 -6.10776E+04  6.51280E+04 -8.56533E+04  3.20297E+04
 -8.30000E+04 -1.18618E+04 -5.79662E+04 -5.21047E+04 -1.28915E+04 -7.01702E+04  3.01503E+04 -4.71169E+04
  4.15219E+04  5.01289E+03  1.85900E+04  4.84120E+04 -3.67817E+04  4.85048E+04 -6.87888E+04  5.66067E+02
 -5.46066E+04 -5.54360E+04 -7.04027E+03 -7.83563E+04  3.52277E+04 -5.83302E+04  5.13652E+04 -1.96895E+04
  4.57498E+04  1.08837E+04  3.33748E+04  2.72733E+04  1.63714E+04  3.03332E+04 -6.40060E+03  2.88045E+04
 -2.36806E+04  1.09206E+04 -1.63876E+04 -5.63735E+03  5.99938E+03 -5.65980E+03  2.35981E+04  1.33970E+04
  6.07749E+03  3.77101E+04 -3.53543E+04  3.84185E+04 -6.64254E+04  1.74000E+03 -6.04272E+04 -4.56752E+04
 -1.28563E+04 -6.59825E+04  4.26048E+04 -4.92316E+04  6.28063E+04 -2.22014E+03  3.76510E+04  3.47751E+04
 -5.89355E+03  4.22510E+04 -3.27648E+04  1.95156E+04 -3.39832E+04 -2.96037E+03 -1.92178E+04 -1.34995E+04
 -1.03403E+04 -1.63076E+04 -1.54023E+03 -2.11724E+04  8.27143E+03 -2.61576E+04  1.62236E+04 -1.37043E+04
  1.15140E+04  6.12725E+03 -1.07915E+04  1.20023E+04 -2.44691E+04 -8.23542E+03 -1.03303E+04 -3.74693E+04
  2.52655E+04 -4.90095E+04  5.38149E+04 -2.31871E+04  4.95458E+04  2.17961E+04  1.81094E+04  4.84884E+04
 -1.75549E+04  3.56175E+04 -2.83842E+04  2.28954E+03 -1.19103E+04 -3.09062E+04  2.14600E+04 -3.69191E+04
  4.74634E+04 -1.27668E+04  4.17448E+04  2.66664E+04  2.25579E+04  5.24729E+04 -8.47598E+03  5.88716E+04
 -3.79209E+04  3.94933E+04 -4.85746E+04  1.20959E+04 -4.90638E+04 -1.76111E+04 -2.60611E+04 -4.30465E+04
  6.05800E+03 -4.05408E+04  3.39504E+04 -1.67703E+04  3.31876E+04  1.16416E+04  5.22791E+03  2.04506E+04
 -1.47021E+04  1.01211E+04 -1.22959E+04 -8.67666E+03  6.01911E+03 -1.17182E+04  1.90903E+04  5.33993E+03
  1.56152E+04  2.18363E+04 -4.94410E+03  2.56673E+04 -2.46330E+04  1.46526E+04 -3.28334E+04 -1.80800E+03
 -2.87110E+04 -1.76655E+04 -1.15303E+04 -2.69622E+04  4.61011E+03 -2.72663E+04  2.15914E+04 -2.56402E+04
  3.25836E+04 -1.48543E+04  4.09204E+04  4.52554E+03  2.84551E+04  2.75537E+04  5.17404E+03  4.31767E+04
 -2.05930E+04  3.52345E+04 -3.13217E+04  1.21426E+04 -2.44485E+04 -1.07393E+04 -5.79550E+03 -1.26190E+04
  1.44745E+03  3.21909E+02 -7.87016E+03  9.64700E+03 -2.24926E+04  5.98471E+03 -2.19225E+04 -1.17269E+04
 -1.25112E+04 -2.60446E+04  4.87139E+03 -3.04603E+04  1.90390E+04 -2.29818E+04  2.32813E+04 -9.10946E+02
  1.50499E+04  1.54712E+04 -7.54941E+02  2.42270E+04 -1.76884E+04  1.49346E+04 -2.55178E+04 -5.27034E+03
 -1.80088E+04 -2.29778E+04 -2.58694E+03 -2.89653E+04  1.33886E+04 -2.47542E+04  2.21159E+04 -1.40293E+04
  2.46199E+04 -1.59193E+02  1.67715E+04  6.26248E+03  9.16188E+03  1.87759E+03  1.15583E+04 -2.94497E+03
  2.40573E+04  3.07680E+03  2.87706E+04  2.03085E+04  2.11740E+04  4.09498E+04 -2.92535E+03  5.01450E+04
 -2.81945E+04  3.93617E+04 -4.52597E+04  2.23934E+04 -4.94093E+04 -2.97090E+03 -3.90821E+04 -2.99898E+04
 -1.51815E+04 -4.30721E+04  1.55155E+04 -3.76657E+04  3.28344E+04 -1.48234E+04  2.54035E+04  9.27011E+03
  9.02076E+03  2.10826E+04 -1.16105E+04  1.67140E+04 -2.12655E+04  1.94411E+03 -1.54616E+04 -1.26957E+04
  3.36732E+02 -2.06144E+04  1.23775E+04 -1.65008E+04  1.46499E+04 -6.29619E+02  4.77372E+03  1.09707E+04
 -8.49434E+03  4.53888E+03 -9.01870E+03 -9.07236E+03 -2.08314E+03 -1.95657E+04  1.37899E+04 -2.18702E+04
  2.32351E+04 -1.22989E+04  3.03496E+04  4.80046E+03  2.54120E+04  2.10135E+04  1.25003E+04  3.30581E+04
 -4.44413E+03  3.55884E+04 -2.28942E+04  2.14222E+04 -2.66401E+04  4.46532E+03 -1.74513E+04 -6.50664E+03
 -7.02193E+03 -7.64612E+03 -1.41011E+03 -1.75207E+02 -3.73654E+03  3.88705E+03 -1.04595E+04  5.40696E+03
 -1.74136E+04 -1.22569E+03 -1.75762E+04 -1.27409E+04 -6.93959E+03 -2.30499E+04  8.73177E+03 -1.82450E+04
  1.59779E+04 -7.97624E+03  9.94833E+03  6.80282E+03 -1.06059E+03  7.64255E+03 -1.00288E+04  9.45202E+01
 -8.49163E+03 -1.04205E+04 -9.38428E+02 -1.95232E+04  1.02683E+04 -2.01475E+04  2.41794E+04 -1.04799E+04
  2.85433E+04  3.96325E+03  1.98308E+04  1.61026E+04  4.55943E+03  2.02991E+04 -9.60132E+03  1.72715E+04
 -1.30501E+04  4.90980E+03 -6.35670E+03 -4.10444E+03  3.39863E+03 -7.19903E+03  1.01296E+04 -1.84645E+03
  8.48533E+03  7.40880E+03  2.14917E+03  1.32354E+04 -1.33975E+04  1.38692E+04 -1.84359E+04  3.29410E+03
 -1.30873E+04 -8.73490E+03  8.66919E+02 -1.36808E+04  1.13094E+04 -8.60779E+03  1.15595E+04  4.53950E+03
  2.34354E+03  1.22078E+04 -9.99205E+03  1.28737E+04 -1.65004E+04  4.59799E+03 -1.66691E+04 -6.92106E+03
 -9.81943E+03 -1.82054E+04  4.13591E+03 -2.14423E+04  1.78557E+04 -1.29861E+04  2.07032E+04  3.53833E+03
  1.15131E+04  1.68029E+04 -2.33968E+03  1.96809E+04 -1.43826E+04  9.72209E+03 -1.44060E+04 -9.56582E+02
 -1.17938E+04 -1.25363E+04 -2.13020E+03 -1.33468E+04  8.95321E+03 -1.09206E+04  1.04847E+04 -3.96257E+03
  6.73523E+03  2.09632E+03 -1.13727E+03  3.20427E+03 -2.55866E+03 -5.44691E+03  2.77357E+03 -8.17777E+03
  1.30289E+04 -6.48327E+03  1.85624E+04  1.98522E+03  2.03005E+04  1.50825E+04  1.17851E+04  2.33250E+04
 -5.64286E+03  3.02053E+04 -2.64654E+04  2.17974E+04 -3.14303E+04  3.11726E+03 -2.50853E+04 -9.60362E+03
 -1.34585E+04 -1.98370E+04  1.07546E+03 -1.75622E+04  5.34528E+03 -1.18861E+04  4.17412E+03 -6.79612E+03
  4.04264E+03 -2.40954E+03  4.58120E+03 -3.58283E+03  5.81155E+03 -4.31960E+03  1.01979E+04 -2.23889E+03
  1.16436E+04  3.30908E+03  6.75637E+03  1.26759E+04 -1.59549E+03  1.34961E+04 -1.27781E+04  9.59427E+03
 -1.69262E+04 -2.27169E+03 -1.29376E+04 -1.37136E+04 -1.83063E+03 -1.90935E+04  1.16184E+04 -1.85501E+04
  2.07512E+04 -1.02566E+04  2.36587E+04  6.34629E+03  1.66335E+04  1.63449E+04  3.30166E+03  2.13191E+04
 -1.14884E+04  1.68491E+04 -1.34543E+04  5.78000E+03 -9.68952E+03 -3.08830E+03 -3.42659E+03 -2.47638E+03
 -1.79096E+03 -7.14238E+02 -2.67030E+03  2.84559E+03 -7.72060E+03  4.76350E+03 -1.11149E+04 -1.39818E+03
 -8.95533E+03 -1.11169E+04 -1.16354E+03 -1.82229E+04  1.23068E+04 -1.53663E+04  1.75234E+04 -7.57989E+03
  1.90368E+04  8.82197E+03  8.08238E+03  1.59591E+04 -3.81881E+03  1.80102E+04 -1.39325E+04  1.02858E+04
 -1.93556E+04  1.44218E+03 -1.44313E+04 -9.66067E+03 -1.16484E+03 -1.57359E+04  7.37371E+03 -1.12988E+04
  1.24156E+04 -4.09739E+03  7.60367E+03  2.45664E+03  4.14638E+03  4.78328E+03  1.05732E+03  1.68815E+03
  2.03054E+03  1.56094E+03  4.66534E+03  3.59041E+03  7.11397E+03  5.79675E+03  3.69820E+03  9.05430E+03
 -4.86168E+03  1.39000E+04 -1.38623E+04  1.40351E+04 -1.81438E+04  3.49562E+03 -2.10011E+04 -9.62588E+03
 -7.97156E+03 -1.74851E+04  5.08202E+03 -1.96724E+04  1.24650E+04 -1.40894E+04  1.60532E+04 -1.84705E+03
  1.20134E+04  7.91300E+03  1.44086E+03  1.02540E+04 -6.47127E+03  5.91497E+03 -6.44807E+03  1.90562E+01
 -2.53240E+03 -7.65492E+03  3.94467E+03 -8.80885E+03  9.13775E+03 -3.11202E+03  7.08405E+03  2.22422E+03
  4.77902E+03  3.78694E+03  1.95381E+03  4.33682E+03 -1.20101E+03  3.33716E+03  2.61001E+03  5.28982E+02
  4.35803E+03 -7.30804E+02  5.81390E+03  2.60888E+03  4.01806E+03  1.01060E+04  9.44391E+02  1.23431E+04
 -9.02793E+03  1.06897E+04 -1.25640E+04  2.95104E+03 -1.05590E+04 -6.29707E+03 -6.02424E+03 -9.66439E+03
  7.42885E+02 -8.46073E+03  4.76199E+03 -3.82106E+03  4.62414E+03  4.08296E+03 -3.26480E+03  6.78861E+03
 -7.07790E+03  2.46934E+03 -9.25866E+03 -3.91340E+03 -5.34535E+03 -1.29489E+04  2.59801E+03 -1.22987E+04
  9.55249E+03 -7.53051E+03  8.18153E+03 -3.15945E+01  5.69477E+03  4.00579E+03 -4.22910E+02  6.23935E+03
 -3.77487E+03  2.00986E+03 -5.52266E+03 -4.52688E+03  6.44930E+02 -9.41321E+03  8.56832E+03 -5.28576E+03
  1.53965E+04 -3.31447E+02  1.23383E+04  1.01160E+04  4.08799E+03  1.29733E+04 -5.28233E+03  1.38956E+04
 -1.03873E+04  5.41815E+03 -1.30755E+04 -1.79695E+03 -5.41761E+03 -8.34194E+03  1.45407E+03 -9.29421E+03
  7.29383E+03 -2.83289E+03  5.81953E+03  4.30081E+03  4.52526E+03  7.60188E+03 -2.68993E+03  7.11848E+03
 -4.69540E+03  4.63165E+03 -5.49286E+03  2.08915E+03 -3.21784E+03  8.42261E+02 -1.18197E+03  2.42472E+03
 -1.56300E+03  3.99799E+03 -1.00851E+04  5.55478E+03 -1.45284E+04 -1.07641E+03 -1.47139E+04 -9.65334E+03
 -6.97978E+03 -1.77706E+04  5.64517E+03 -2.05102E+04  1.19817E+04 -1.65271E+04  1.97012E+04 -5.18906E+03
  1.97479E+04  5.05024E+03  1.13346E+04  1.34598E+04  1.71956E+03  1.41077E+04 -6.14080E+03  1.01225E+04
 -9.47688E+03  3.76624E+03 -3.81217E+03 -3.76306E+03 -2.18453E+03 -1.49595E+03 -1.65977E+03  4.98219E+01
 -2.30948E+03 -1.72133E+03 -3.07215E+03 -1.21994E+03 -2.81737E+03 -4.74192E+03  1.13491E+03 -6.49155E+03
  6.16575E+03 -5.14781E+03  9.00846E+03 -5.43607E+02  1.06195E+04  7.14428E+03  4.32004E+03  1.51698E+04
 -7.22744E+03  1.58838E+04 -1.60936E+04  8.69063E+03 -1.75288E+04 -1.35644E+03 -1.35947E+04 -1.13999E+04
 -6.29492E+03 -1.57439E+04  2.65677E+03 -1.49989E+04  1.06608E+04 -9.29053E+03  1.13902E+04  2.57763E+03
  3.43851E+03  7.35320E+03 -4.28733E+02  5.86385E+03 -3.33064E+03 -8.01860E+02  3.92505E+02 -5.39395E+03
  2.46096E+03 -1.65951E+03  5.17390E+03  3.19157E+03  5.80274E+03  5.40607E+03 -5.38225E+02  6.48934E+03
 -7.29656E+03  7.47102E+03 -9.66922E+03  1.14338E+03 -8.69839E+03 -8.35445E+03 -3.43282E+03 -1.30198E+04
  8.56883E+03 -1.07842E+04  1.30994E+04 -4.96239E+03  1.15755E+04  4.86949E+03  5.13372E+03  8.73209E+03
  1.88661E+03  8.88484E+03 -2.19057E+03  9.88230E+03 -8.51506E+03  4.50711E+03 -6.87869E+03 -4.32174E+02
 -3.41771E+03  9.94038E+01 -2.68883E+03  1.11628E+03 -4.77424E+03  2.77500E+03 -7.10170E+03 -9.23532E+02
 -7.45704E+03 -5.11356E+03 -1.13045E+03 -1.23741E+04  3.47823E+03 -1.10460E+04  8.61956E+03 -6.46403E+03
  1.04024E+04  2.62130E+02  4.37866E+03  7.65738E+03 -9.51913E+02  9.05478E+03 -6.49491E+03  5.08330E+03
