 $NMID ID='MM_0lb_SNR200_7hz_g50_10.RAW', FMTDAT='(8E13.5)'
 TRAMP=1., VOLUME=1. $END
  3.09757E+05 -7.90287E+02  3.38153E+05  2.49940E+05  8.44593E+04  3.38102E+05 -1.30165E+05  2.51945E+05
 -1.90708E+05  8.19793E+04 -1.12739E+05 -3.19294E+04 -4.79278E+02 -5.00066E+04  5.31779E+04  1.69740E+03
  3.48836E+04  5.39457E+04 -1.49467E+04  7.53866E+04 -6.30140E+04  6.63659E+04 -8.46241E+04  3.39410E+04
 -8.23562E+04 -1.11195E+04 -5.86165E+04 -5.13894E+04 -1.41502E+04 -7.19293E+04  2.66336E+04 -4.88215E+04
  4.22198E+04  3.65168E+03  1.52749E+04  4.91647E+04 -3.62441E+04  4.86657E+04 -6.73622E+04  5.50165E+02
 -5.55734E+04 -5.84264E+04 -8.63525E+03 -7.80993E+04  3.70362E+04 -5.67069E+04  5.06254E+04 -1.90475E+04
  4.53446E+04  1.32590E+04  3.27954E+04  2.58076E+04  1.58430E+04  3.10887E+04 -6.33183E+03  2.75267E+04
 -2.07920E+04  1.17231E+04 -1.78460E+04 -5.66080E+03  5.56649E+03 -7.20254E+03  2.27802E+04  1.41400E+04
  7.01409E+03  3.84078E+04 -3.28760E+04  3.91431E+04 -6.66889E+04  3.91463E+03 -5.96528E+04 -4.58473E+04
 -1.36443E+04 -6.69827E+04  4.31544E+04 -4.86950E+04  6.37284E+04 -2.59136E+03  3.67936E+04  3.50288E+04
 -6.60293E+03  4.04245E+04 -3.25830E+04  1.98965E+04 -3.57903E+04 -1.06969E+03 -1.97774E+04 -1.30383E+04
 -9.60790E+03 -1.43706E+04 -9.15643E+02 -2.07233E+04  7.16373E+03 -2.26318E+04  1.58706E+04 -1.31493E+04
  1.08287E+04  5.94807E+03 -1.28068E+04  1.15683E+04 -2.37162E+04 -9.29204E+03 -8.78535E+03 -3.85500E+04
  2.64945E+04 -4.92144E+04  5.31844E+04 -2.16264E+04  4.85189E+04  1.92166E+04  1.68859E+04  4.76658E+04
 -1.91097E+04  3.77418E+04 -2.95042E+04  2.42074E+03 -1.18921E+04 -2.97368E+04  1.97912E+04 -3.83504E+04
  4.55220E+04 -1.04351E+04  4.11974E+04  2.53687E+04  2.17353E+04  5.18905E+04 -6.84276E+03  5.80845E+04
 -3.79565E+04  3.84585E+04 -4.95100E+04  1.26395E+04 -4.92127E+04 -1.93783E+04 -2.78687E+04 -4.39580E+04
  7.96572E+03 -4.42625E+04  3.59552E+04 -1.96475E+04  3.25444E+04  1.26066E+04  6.58054E+03  2.07213E+04
 -1.54942E+04  9.96502E+03 -1.14224E+04 -7.75962E+03  6.91102E+03 -1.12259E+04  1.89447E+04  5.71574E+03
  1.35976E+04  2.10728E+04 -4.44124E+03  2.80046E+04 -2.16771E+04  1.56401E+04 -3.26480E+04 -3.27199E+03
 -2.72721E+04 -1.83394E+04 -1.44690E+04 -2.58441E+04  3.33063E+03 -2.89946E+04  2.18106E+04 -2.51052E+04
  3.35305E+04 -1.60557E+04  3.93252E+04  5.37805E+03  2.85512E+04  2.54475E+04  4.84995E+03  4.38621E+04
 -1.87676E+04  3.45717E+04 -3.31764E+04  1.28447E+04 -2.30980E+04 -8.94269E+03 -3.89147E+03 -1.22577E+04
  1.75379E+02  4.33842E+02 -7.89732E+03  8.34007E+03 -2.17584E+04  3.98250E+03 -2.12208E+04 -1.06583E+04
 -1.17027E+04 -2.62270E+04  6.38593E+03 -3.06307E+04  1.98750E+04 -2.14384E+04  2.57859E+04 -1.06852E+03
  1.63189E+04  1.60224E+04 -1.11566E+03  2.52089E+04 -1.94034E+04  1.41839E+04 -2.67285E+04 -4.55381E+03
 -1.91838E+04 -2.22088E+04 -4.32938E+03 -3.06707E+04  1.26851E+04 -2.51134E+04  2.54979E+04 -1.28750E+04
  2.49274E+04 -2.45953E+02  1.99855E+04  7.24370E+03  8.70558E+03  1.45679E+01  1.18258E+04 -4.18470E+02
  2.47069E+04  3.15234E+03  2.66196E+04  1.67405E+04  2.02521E+04  4.02821E+04 -2.42164E+03  4.83453E+04
 -2.81149E+04  4.15659E+04 -4.63891E+04  2.10515E+04 -4.83391E+04 -2.92510E+03 -3.93162E+04 -2.93187E+04
 -1.43289E+04 -4.37873E+04  1.48012E+04 -3.47871E+04  3.18271E+04 -1.48057E+04  2.66008E+04  9.42691E+03
  9.10518E+03  2.07513E+04 -1.25817E+04  1.88715E+04 -2.13887E+04  2.80821E+03 -1.56562E+04 -1.55507E+04
 -1.01940E+03 -2.11438E+04  1.05611E+04 -1.46538E+04  1.58585E+04 -1.98851E+03  3.78435E+03  1.01237E+04
 -8.43283E+03  3.55113E+03 -1.06614E+04 -6.48745E+03 -1.84832E+03 -2.24589E+04  1.37583E+04 -2.23109E+04
  2.69175E+04 -1.21421E+04  3.14047E+04  4.24525E+03  2.77882E+04  2.18831E+04  1.31630E+04  3.33696E+04
 -5.36628E+03  3.45306E+04 -2.25628E+04  2.01174E+04 -2.50558E+04  5.29784E+03 -1.74266E+04 -7.64612E+03
 -6.71707E+03 -8.36071E+03 -1.41777E+03 -1.39054E+02 -3.65872E+03  4.62727E+03 -8.39411E+03  5.45569E+03
 -1.53213E+04 -2.16052E+03 -1.63893E+04 -1.30620E+04 -8.43737E+03 -2.05168E+04  5.80525E+03 -1.88912E+04
  1.56404E+04 -6.46228E+03  9.09763E+03  4.21705E+03  5.54382E+02  7.18464E+03 -8.36696E+03  5.99422E+02
 -8.70415E+03 -1.09785E+04 -1.43372E+03 -1.75948E+04  9.57562E+03 -2.08301E+04  2.44268E+04 -1.04840E+04
  2.69361E+04  3.91994E+03  1.83186E+04  1.63289E+04  3.47423E+03  2.24872E+04 -1.20186E+04  1.79489E+04
 -1.48118E+04  6.19965E+03 -9.41884E+03 -3.26733E+03  2.21280E+03 -4.48925E+03  8.35654E+03 -5.36178E+02
  7.17192E+03  7.71849E+03  1.21081E+03  1.64429E+04 -9.31729E+03  1.25657E+04 -1.93944E+04  4.54260E+03
 -1.01418E+04 -9.55989E+03 -5.50349E+02 -1.55776E+04  1.17965E+04 -8.26519E+03  1.23695E+04  3.63772E+03
  1.66541E+03  1.25169E+04 -8.62005E+03  1.37217E+04 -1.45613E+04  7.45580E+03 -1.75379E+04 -6.75945E+03
 -1.13737E+04 -1.65078E+04  2.98869E+03 -2.39504E+04  1.75700E+04 -1.24606E+04  2.03604E+04  3.00276E+03
  1.09899E+04  1.51464E+04 -6.57300E+02  1.90396E+04 -1.22938E+04  9.78788E+03 -1.38844E+04 -1.13212E+03
 -1.19916E+04 -1.17877E+04 -2.97090E+03 -1.48517E+04  8.02173E+03 -1.08346E+04  8.99955E+03 -3.03743E+03
  5.68448E+03  2.57149E+03 -2.24696E+03  2.08259E+03 -1.72711E+03 -3.37199E+03  2.54734E+03 -7.08366E+03
  1.46554E+04 -7.10324E+03  1.89637E+04  1.04521E+03  1.99631E+04  1.45291E+04  1.15076E+04  2.42839E+04
 -6.57803E+03  3.12896E+04 -2.35232E+04  1.97214E+04 -3.01528E+04  3.24239E+03 -2.50132E+04 -1.08913E+04
 -1.15671E+04 -1.91641E+04  8.34491E+02 -1.86995E+04  6.07020E+03 -1.10920E+04  8.47546E+03 -6.19963E+03
  4.99626E+03 -5.89883E+03  5.42832E+03 -4.66769E+03  5.57159E+03 -5.27648E+03  7.71384E+03 -2.70857E+03
  1.12285E+04  1.63248E+03  6.17089E+03  1.12764E+04 -2.04410E+03  1.38950E+04 -1.31788E+04  1.05168E+04
 -1.74574E+04 -1.59787E+03 -1.29442E+04 -1.32537E+04 -7.42201E+02 -2.01486E+04  8.49346E+03 -1.95516E+04
  2.00368E+04 -1.10050E+04  2.48412E+04  4.05191E+03  1.82038E+04  1.67902E+04  3.24818E+03  2.23881E+04
 -9.17500E+03  1.87052E+04 -1.38554E+04  7.34045E+03 -9.36706E+03 -3.31996E+03 -2.07321E+03 -2.16987E+03
 -1.88222E+03 -2.78861E+03 -2.34881E+03  3.56382E+03 -6.53351E+03  4.43100E+03 -1.02552E+04 -3.78442E+03
 -9.26358E+03 -1.07563E+04 -2.10666E+03 -1.91324E+04  1.12650E+04 -1.41874E+04  1.82820E+04 -5.40791E+03
  1.77100E+04  7.85537E+03  9.58595E+03  1.44490E+04 -1.24705E+03  1.73129E+04 -1.52456E+04  1.34547E+04
 -1.96519E+04  1.36157E+03 -1.39227E+04 -1.12090E+04 -2.12020E+03 -1.39502E+04  8.65421E+03 -1.20616E+04
  9.86185E+03 -2.82766E+03  9.13866E+03  3.69806E+03  3.98447E+03  5.31085E+03  1.27257E+03  2.48388E+03
  3.17486E+03  1.57055E+03  3.08197E+03  2.29039E+03  6.70835E+03  5.93299E+03  4.25010E+03  9.06989E+03
 -3.13889E+03  1.59479E+04 -1.35632E+04  1.39670E+04 -1.88803E+04  3.53665E+03 -2.12407E+04 -8.57739E+03
 -1.19373E+04 -1.97718E+04  3.03542E+03 -2.18750E+04  1.16486E+04 -1.36683E+04  1.52047E+04 -2.72056E+03
  1.29296E+04  7.31040E+03  1.07641E+03  1.11256E+04 -7.52558E+03  8.37093E+03 -7.34050E+03 -1.21320E+03
 -3.83002E+03 -8.84673E+03  4.76106E+03 -8.58989E+03  8.52124E+03 -4.39282E+03  6.91407E+03  1.78775E+03
  5.91421E+03  3.20214E+03  1.59507E+03  4.59731E+03 -1.93981E+03  1.10779E+03  1.22018E+03 -1.14397E+03
  9.11345E+02 -9.57948E+02  8.22827E+03  3.89527E+03  4.00860E+03  9.47152E+03 -2.46248E+03  1.41138E+04
 -1.14837E+04  8.86423E+03 -1.25603E+04  1.00415E+03 -1.18475E+04 -4.59168E+03 -4.76687E+03 -7.00324E+03
  5.46443E+02 -7.61464E+03  7.18868E+03 -2.99627E+03  4.60530E+03  5.16960E+03 -3.01457E+03  7.86738E+03
 -7.90939E+03  2.84850E+03 -8.70073E+03 -3.18346E+03 -4.79235E+03 -1.23210E+04  3.54221E+03 -1.07953E+04
  7.92847E+03 -6.81208E+03  9.27451E+03 -8.25186E+02  6.98862E+03  1.71641E+03  1.96697E+03  6.53945E+03
 -3.30401E+03  1.89636E+03 -5.70050E+03 -4.22090E+03  5.18544E+02 -1.03020E+04  1.05525E+04 -6.46533E+03
  1.31238E+04  2.00387E+03  1.12420E+04  8.61063E+03  3.42783E+03  1.41383E+04 -5.35849E+03  1.39157E+04
 -1.26751E+04  6.15567E+03 -1.04019E+04 -2.68808E+03 -4.80526E+03 -9.63552E+03  2.21033E+03 -7.87106E+03
  8.90208E+03 -3.09872E+03  7.31844E+03  2.10647E+03  2.79967E+03  7.88767E+03 -1.30074E+03  5.86023E+03
 -2.95712E+03  4.24074E+03 -3.62541E+03  8.51704E+02 -1.53331E+03  1.13179E+03 -1.26720E+03  2.16456E+03
 -2.69261E+03  5.99422E+03 -9.28863E+03  4.76557E+03 -1.51024E+04  1.20202E+03 -1.38428E+04 -9.86667E+03
 -8.72136E+03 -1.92137E+04  4.23687E+03 -2.22145E+04  1.33845E+04 -1.52646E+04  2.09919E+04 -6.21755E+03
  1.73007E+04  5.08307E+03  1.19477E+04  1.36346E+04  1.34637E+03  1.44104E+04 -7.47541E+03  1.05007E+04
 -6.73325E+03  4.80755E+03 -3.85016E+03 -1.52034E+03 -1.28403E+03 -1.73676E+03  9.74928E+02 -1.80300E+02
 -1.51435E+03 -6.19356E+02 -4.49585E+03 -4.17796E+02 -1.96721E+03 -4.56408E+03  2.05058E+03 -4.60581E+03
  6.14542E+03 -3.92494E+03  9.81877E+03  9.93984E+02  8.96811E+03  8.24783E+03  2.85045E+03  1.47774E+04
 -6.21042E+03  1.54618E+04 -1.57614E+04  1.02955E+04 -1.94629E+04 -7.93698E+02 -1.33605E+04 -1.16145E+04
 -5.99655E+03 -1.49279E+04  4.52193E+03 -1.42401E+04  9.68013E+03 -8.57822E+03  9.10826E+03  5.05554E+02
  4.43566E+03  3.86454E+03 -1.97730E+03  4.76919E+03 -2.95112E+03  5.58615E+02  3.23926E+02 -3.62144E+03
  3.93176E+03 -2.99594E+03  7.75909E+03  4.60914E+03  2.80103E+03  7.47073E+03  2.21853E+01  7.26393E+03
 -6.59697E+03  7.06818E+03 -9.49929E+03  2.22601E+03 -8.91074E+03 -7.64482E+03 -2.04504E+03 -1.25771E+04
  7.52092E+03 -1.12430E+04  1.14974E+04 -2.78836E+03  1.13595E+04  3.31391E+03  7.30847E+03  9.15270E+03
 -8.53885E+02  1.15966E+04 -2.96484E+03  9.03878E+03 -6.78507E+03  4.50129E+03 -6.90827E+03  2.41965E+03
 -2.04415E+03 -7.52146E+02 -2.22734E+03  1.78787E+03 -5.90806E+03  1.52384E+03 -8.30504E+03 -1.70818E+03
 -6.93716E+03 -5.54179E+03 -1.77555E+03 -8.76812E+03  5.69540E+03 -9.19026E+03  9.26399E+03 -5.84847E+03
  1.14748E+04  3.62394E+03  6.38340E+03  6.82562E+03 -1.22090E+03  9.92033E+03 -9.27560E+03  7.85817E+03
