 $NMID ID='MM_0lb_SNR200_11hz_g50_32.RAW', FMTDAT='(8E13.5)'
 TRAMP=1., VOLUME=1. $END
  3.09876E+05  1.80716E+02  3.38200E+05  2.49785E+05  8.40142E+04  3.38176E+05 -1.31688E+05  2.52302E+05
 -1.89788E+05  8.35363E+04 -1.13741E+05 -3.17247E+04 -5.54187E+02 -4.94697E+04  5.43021E+04  7.04497E+02
  3.62015E+04  5.22845E+04 -1.79640E+04  7.56137E+04 -5.95768E+04  6.34406E+04 -8.52495E+04  3.24940E+04
 -8.07604E+04 -1.21478E+04 -5.74027E+04 -5.24745E+04 -1.50749E+04 -7.09715E+04  2.79301E+04 -4.59810E+04
  4.06864E+04  4.61594E+03  1.78255E+04  4.84273E+04 -3.60575E+04  4.74892E+04 -6.88559E+04  1.61877E+03
 -5.37839E+04 -5.74620E+04 -7.30646E+03 -7.88710E+04  3.45655E+04 -5.53289E+04  4.84812E+04 -1.65038E+04
  4.50673E+04  1.08458E+04  3.22584E+04  2.69579E+04  1.69306E+04  3.12830E+04 -5.21477E+03  2.81127E+04
 -2.26960E+04  1.28914E+04 -1.80845E+04 -5.62026E+03  6.45391E+03 -6.91379E+03  2.30879E+04  1.27134E+04
  7.07912E+03  3.64330E+04 -3.35876E+04  3.53776E+04 -6.32697E+04  9.32617E+02 -5.84683E+04 -4.30649E+04
 -1.19329E+04 -6.51657E+04  4.13699E+04 -4.73878E+04  5.88412E+04 -2.65163E+03  3.50057E+04  3.50960E+04
 -6.06845E+03  3.87139E+04 -2.88895E+04  1.66311E+04 -3.23764E+04 -4.09249E+03 -1.76166E+04 -1.11782E+04
 -9.57154E+03 -1.47331E+04 -1.93189E+03 -1.86653E+04  8.19223E+03 -2.28740E+04  1.62166E+04 -1.47347E+04
  1.15632E+04  5.83436E+03 -9.65585E+03  1.31826E+04 -2.32464E+04 -6.16398E+03 -8.16190E+03 -3.51105E+04
  2.38153E+04 -4.58593E+04  5.22138E+04 -2.08983E+04  4.72562E+04  2.06228E+04  1.60866E+04  4.53985E+04
 -1.52556E+04  3.47955E+04 -2.75880E+04  2.34926E+03 -1.09007E+04 -2.84885E+04  2.05016E+04 -3.63838E+04
  4.27350E+04 -8.69420E+03  4.00472E+04  2.37716E+04  2.02406E+04  4.81435E+04 -9.27489E+03  5.41748E+04
 -3.50053E+04  3.53430E+04 -4.56242E+04  1.07745E+04 -4.65551E+04 -1.74423E+04 -2.46339E+04 -4.17762E+04
  7.50588E+03 -4.03104E+04  3.34252E+04 -1.63226E+04  3.03268E+04  1.06054E+04  3.88964E+03  2.05312E+04
 -1.41234E+04  8.69746E+03 -1.19871E+04 -7.17097E+03  5.68081E+03 -1.08350E+04  1.89532E+04  5.50813E+03
  1.32664E+04  2.18053E+04 -6.82356E+03  2.53238E+04 -2.17060E+04  1.41057E+04 -3.07864E+04 -4.13198E+03
 -2.42780E+04 -1.88136E+04 -1.09372E+04 -2.32497E+04  3.98352E+03 -2.37376E+04  1.80574E+04 -2.08629E+04
  3.04294E+04 -1.32597E+04  3.51197E+04  4.61331E+03  2.62091E+04  2.18673E+04  5.34073E+03  3.86697E+04
 -1.89964E+04  3.24373E+04 -3.01618E+04  1.21699E+04 -2.18296E+04 -1.10673E+04 -3.78592E+03 -1.31611E+04
  1.12122E+03 -3.86122E+02 -5.12607E+03  8.79554E+03 -1.79190E+04  6.16717E+03 -1.89997E+04 -8.97099E+03
 -1.13213E+04 -2.14798E+04  5.47408E+03 -2.49932E+04  1.79266E+04 -1.76126E+04  2.01539E+04 -1.51819E+03
  1.25707E+04  1.35966E+04 -3.62597E+02  2.05367E+04 -1.49156E+04  1.28413E+04 -2.12626E+04 -4.35198E+03
 -1.61544E+04 -1.90565E+04 -2.46398E+03 -2.67311E+04  1.25728E+04 -2.13236E+04  2.10788E+04 -1.02472E+04
  2.15374E+04  1.06219E+03  1.32244E+04  3.20535E+03  8.67642E+03  8.02113E+02  1.13114E+04 -1.41177E+03
  2.00291E+04  1.79543E+03  2.24446E+04  1.76683E+04  1.50472E+04  3.61618E+04 -2.75332E+03  3.92215E+04
 -2.38310E+04  3.31894E+04 -3.63107E+04  1.65058E+04 -3.95820E+04 -2.81418E+03 -3.12660E+04 -2.32850E+04
 -1.44555E+04 -3.31318E+04  1.18733E+04 -3.00743E+04  2.43158E+04 -1.41713E+04  2.33493E+04  7.65316E+03
  6.81864E+03  1.68232E+04 -9.69090E+03  1.46433E+04 -1.73436E+04  2.21521E+03 -1.44665E+04 -1.13264E+04
 -1.39913E+03 -1.76615E+04  9.93840E+03 -1.33150E+04  1.04846E+04 -9.03447E+02  4.20396E+03  7.54018E+03
 -7.47694E+03  4.36101E+03 -8.60779E+03 -5.59837E+03 -9.24554E+02 -1.63098E+04  1.19360E+04 -1.84624E+04
  2.02464E+04 -8.71463E+03  2.12374E+04  3.65531E+03  2.03217E+04  1.69951E+04  8.80476E+03  2.63952E+04
 -4.37565E+03  2.77620E+04 -1.81013E+04  1.59686E+04 -1.81770E+04  3.11925E+03 -1.40834E+04 -5.66160E+03
 -4.15910E+03 -6.71696E+03  1.76352E+02  7.29580E+02 -3.39935E+03  1.04385E+03 -7.77360E+03  4.46524E+03
 -1.30542E+04 -1.65374E+03 -1.25988E+04 -1.10000E+04 -5.34877E+03 -1.62169E+04  5.16650E+03 -1.51966E+04
  1.18510E+04 -6.38067E+03  7.67466E+03  4.75758E+03  1.08371E+02  5.55973E+03 -5.54979E+03 -4.33316E+02
 -7.14629E+03 -9.74039E+03 -2.10164E+03 -1.34316E+04  9.00125E+03 -1.38485E+04  1.77884E+04 -6.89483E+03
  2.00941E+04  2.14034E+03  1.59243E+04  1.10463E+04  4.51093E+03  1.75583E+04 -8.47046E+03  1.33902E+04
 -1.12875E+04  2.83684E+03 -6.02467E+03 -3.30002E+03  2.10353E+03 -2.62456E+03  8.36855E+03 -1.11592E+03
  8.17920E+03  7.08221E+03  9.32420E+02  1.23708E+04 -8.88697E+03  1.24235E+04 -1.38480E+04  2.07593E+03
 -8.89137E+03 -7.39458E+03 -5.58675E+02 -1.23873E+04  7.33858E+03 -5.68479E+03  7.75532E+03  2.44501E+03
  8.40412E+02  8.92933E+03 -7.90623E+03  8.91909E+03 -1.17453E+04  3.31255E+03 -1.09284E+04 -3.69825E+03
 -7.25079E+03 -1.37021E+04  3.53047E+03 -1.44687E+04  1.35550E+04 -9.39322E+03  1.46807E+04  3.88546E+03
  1.00059E+04  1.26904E+04 -1.16159E+03  1.42507E+04 -1.04047E+04  6.63182E+03 -1.09750E+04 -1.42726E+03
 -9.27418E+03 -9.53496E+03 -1.31689E+03 -1.06830E+04  4.39170E+03 -7.58255E+03  6.76111E+03 -1.98480E+03
  3.86181E+03  6.89214E+02 -1.82230E+03  2.89039E+03 -6.09891E+02 -2.63722E+03 -2.73511E+01 -5.98221E+03
  9.98493E+03 -4.29839E+03  1.35049E+04  4.09044E+02  1.22004E+04  9.23695E+03  7.79914E+03  1.86371E+04
 -2.99888E+03  1.94041E+04 -1.52600E+04  1.40344E+04 -2.40835E+04  1.91221E+03 -1.81394E+04 -8.40424E+03
 -8.31122E+03 -1.44732E+04  7.35766E+02 -1.29919E+04  4.82114E+03 -7.34268E+03  3.55251E+03 -3.45365E+03
  3.49706E+03 -2.81329E+03  2.90648E+03 -3.16110E+03  5.81944E+03 -8.36844E+02  6.96979E+03 -8.53023E+02
  8.07853E+03  2.71053E+03  5.30953E+03  7.61690E+03 -1.42072E+03  8.42078E+03 -8.77541E+03  7.53349E+03
 -1.27987E+04 -1.18300E+03 -7.40149E+03 -7.41537E+03  9.78080E+02 -1.21701E+04  7.79753E+03 -1.32402E+04
  1.33575E+04 -7.33460E+03  1.68305E+04  8.29880E+02  1.22378E+04  1.04288E+04  2.08798E+03  1.34961E+04
 -5.70974E+03  1.28842E+04 -8.05506E+03  4.76532E+03 -5.70538E+03 -7.46865E+02 -2.96333E+03 -1.64357E+03
 -2.22654E+02 -7.90634E+02 -1.32327E+03  2.62009E+03 -4.82401E+03  1.77365E+03 -7.90378E+03 -1.11367E+03
 -5.36874E+03 -8.47370E+03  2.02003E+03 -1.18073E+04  6.81510E+03 -1.19153E+04  1.30660E+04 -3.16522E+03
  1.12622E+04  5.07910E+03  4.84661E+03  1.04969E+04 -2.76503E+03  1.22911E+04 -9.51799E+03  6.74568E+03
 -1.13116E+04 -5.00661E+02 -8.95505E+03 -7.52215E+03 -5.70874E+01 -1.03471E+04  4.79720E+03 -8.36694E+03
  8.18193E+03 -9.57992E+02  3.20460E+03  9.85533E+02  2.41648E+03  3.88667E+03  1.76582E+03  2.04241E+03
  3.28670E+03  1.96392E+03  3.95293E+03  2.70265E+03  3.48536E+03  4.91635E+03  3.26404E+03  5.70163E+03
 -2.90304E+03  1.08898E+04 -7.45765E+03  9.60636E+03 -1.16102E+04  2.35366E+03 -1.16331E+04 -3.77071E+03
 -6.46761E+03 -1.17508E+04  2.00153E+03 -1.38662E+04  6.56212E+03 -9.89228E+03  9.41634E+03 -2.11121E+03
  6.71776E+03  5.41218E+03  8.92322E+02  5.79419E+03 -4.05912E+03  3.45565E+03 -5.71391E+03 -7.69134E+02
 -9.84081E+02 -5.71100E+03  3.41366E+03 -5.10062E+03  3.86699E+03 -1.52250E+03  5.39911E+03 -4.98981E+01
  3.62152E+03  1.63101E+03  1.94907E+03  2.21598E+03 -2.40036E+03  5.89959E+02  1.76919E+03 -8.99558E+02
  1.98696E+03 -5.15477E+02  4.61850E+03  1.19609E+03  2.38672E+03  5.69605E+03 -9.17976E+02  7.58694E+03
 -5.62920E+03  3.68174E+03 -7.26907E+03  7.92610E+02 -6.47440E+03 -3.04607E+03 -9.93076E+02 -2.77310E+03
  1.45678E+03 -4.75960E+03  1.54095E+03 -2.59947E+03  1.84942E+03  2.92006E+03 -9.85708E+02  3.33264E+03
 -4.62232E+03  4.03923E+03 -7.46108E+03 -1.64601E+03 -3.41588E+03 -6.04424E+03 -2.39168E+02 -5.18198E+03
  4.25568E+03 -3.59019E+03  3.75188E+03 -1.18318E+03  3.66872E+03  1.40994E+03 -4.12982E+02  3.45907E+03
 -1.01793E+03  8.73983E+02 -2.95951E+03 -7.66911E+02  1.31594E+03 -4.53919E+03  5.10029E+03 -3.70974E+03
  6.05974E+03 -6.39303E+02  6.57549E+03  5.23780E+03  1.88600E+03  6.87356E+03 -1.83345E+03  6.25025E+03
 -6.58920E+03  2.04783E+03 -6.01500E+03 -1.04338E+03 -3.36524E+03 -6.01151E+03  1.33811E+03 -2.68126E+03
  4.35417E+03 -2.69322E+03  3.23112E+03  2.26201E+03  2.48890E+03  4.69080E+03 -4.13557E+02  3.62469E+03
 -1.66708E+03  2.28189E+03 -1.83327E+03  1.57983E+03 -1.47856E+03  1.11247E+03  6.37506E+02  2.55139E+02
 -2.85161E+03  3.33310E+03 -4.96266E+03  1.55368E+03 -7.13309E+03  7.74418E+02 -8.13777E+03 -3.48007E+03
 -4.94861E+03 -1.02180E+04  2.11436E+03 -1.01679E+04  5.61711E+03 -8.53999E+03  9.51361E+03 -3.85300E+03
  1.02088E+04  1.87911E+03  6.14205E+03  8.14391E+03  7.04794E+02  6.45120E+03 -1.29282E+03  4.59798E+03
 -5.12437E+03  5.35185E+02 -2.14330E+03 -7.44381E+02 -2.10558E+03  4.74531E+02 -1.31337E+03  1.38207E+02
 -1.42482E+03 -8.23325E+00 -8.97041E+02 -1.76220E+02 -7.77045E+02 -1.54639E+03  3.18189E+02 -3.56329E+03
  4.59993E+03 -2.05207E+03  3.88591E+03 -5.12520E+02  7.13613E+03  4.06611E+03  1.00298E+03  6.63736E+03
 -4.33029E+03  8.94358E+03 -6.75257E+03  5.39997E+03 -7.70246E+03 -7.15218E+01 -7.42681E+03 -6.43545E+03
 -2.43009E+03 -7.24269E+03  3.41557E+02 -6.70820E+03  5.65848E+03 -3.47597E+03  4.68903E+03 -2.88567E+02
  2.85188E+03  2.61409E+03 -2.02058E+02  2.75101E+03 -2.99429E+03 -8.85690E+02 -1.76347E+02 -1.73179E+03
  1.78706E+03 -1.01233E+03  2.88052E+03  1.28550E+03 -7.07945E+02  2.61994E+03  1.18212E+03  3.74371E+03
 -1.80250E+03  2.74908E+03 -6.31405E+03 -7.98225E+02 -3.88222E+03 -2.70372E+03  1.38989E+02 -6.48578E+03
  3.21651E+03 -4.28333E+03  4.30555E+03 -5.35149E+02  5.81485E+03  4.40894E+02  2.98701E+03  2.88211E+03
  8.76279E+02  5.70915E+03 -2.27040E+03  4.65596E+03 -2.51089E+03  1.41380E+03 -1.52004E+03  4.99941E+02
 -1.78809E+03 -5.65238E+01 -2.13738E+03  1.45675E+03 -2.97265E+03  1.90507E+03 -2.98740E+03 -8.27254E+02
 -3.80286E+03 -1.43576E+03 -1.89527E+03 -4.51802E+03  1.76649E+03 -4.27628E+03  4.07848E+03 -9.08106E+02
  5.02909E+03  7.58281E+02  2.97496E+03  2.58991E+03 -3.57182E+02  3.81072E+03 -3.13046E+03  3.42552E+03
