 $NMID ID='MM_0lb_SNR200_17hz_g55_32.RAW', FMTDAT='(8E13.5)'
 TRAMP=1., VOLUME=1. $END
  3.08943E+05  1.70558E+03  3.37813E+05  2.50835E+05  8.44145E+04  3.36949E+05 -1.32694E+05  2.49028E+05
 -1.90347E+05  8.29798E+04 -1.11980E+05 -3.23583E+04  1.50047E+03 -4.97737E+04  5.50056E+04  4.10619E+02
  3.53191E+04  5.29658E+04 -1.68934E+04  7.47623E+04 -6.09263E+04  6.29570E+04 -8.49831E+04  3.20423E+04
 -8.03653E+04 -1.17463E+04 -5.63727E+04 -5.10521E+04 -1.55142E+04 -6.74039E+04  2.78579E+04 -4.57501E+04
  3.97294E+04  3.34042E+03  1.54420E+04  4.80003E+04 -3.37148E+04  4.74101E+04 -6.64487E+04 -3.07349E+02
 -5.37584E+04 -5.74154E+04 -7.17786E+03 -7.61482E+04  3.24479E+04 -5.45573E+04  4.76336E+04 -1.73715E+04
  4.28711E+04  1.23165E+04  3.20098E+04  2.55969E+04  1.51115E+04  2.91576E+04 -4.72668E+03  2.66621E+04
 -2.24382E+04  1.17438E+04 -1.78031E+04 -4.16563E+03  5.64267E+03 -7.38070E+03  2.16687E+04  1.07286E+04
  7.58527E+03  3.39008E+04 -3.19448E+04  3.45598E+04 -6.41709E+04  3.02809E+03 -5.56072E+04 -4.22945E+04
 -1.24074E+04 -6.19565E+04  3.98607E+04 -4.43248E+04  5.64592E+04 -3.20124E+03  3.39163E+04  3.22224E+04
 -5.90251E+03  3.47678E+04 -2.94909E+04  1.50134E+04 -2.98193E+04 -4.40345E+03 -1.54269E+04 -1.06161E+04
 -9.14895E+03 -1.19948E+04 -8.10385E+02 -1.80349E+04  7.00872E+03 -2.21667E+04  1.50282E+04 -1.23273E+04
  1.18389E+04  4.69760E+03 -8.13739E+03  1.36070E+04 -2.05929E+04 -4.06345E+03 -7.80015E+03 -3.28183E+04
  2.27454E+04 -4.13719E+04  4.59882E+04 -1.96756E+04  4.29887E+04  1.85742E+04  1.40963E+04  4.31049E+04
 -1.57511E+04  3.34026E+04 -2.58152E+04  1.17230E+03 -7.94462E+03 -2.69058E+04  2.09577E+04 -3.23218E+04
  3.91483E+04 -7.98186E+03  3.43043E+04  2.29091E+04  1.71751E+04  4.50874E+04 -8.19130E+03  4.81921E+04
 -3.05147E+04  3.24537E+04 -3.95853E+04  9.75578E+03 -4.06833E+04 -1.54628E+04 -2.21990E+04 -3.63960E+04
  8.49140E+03 -3.49161E+04  3.17430E+04 -1.37468E+04  2.92113E+04  1.14595E+04  3.64583E+03  1.78148E+04
 -1.28810E+04  7.49877E+03 -1.15433E+04 -7.83196E+03  6.13224E+03 -9.98259E+03  1.65606E+04  5.39352E+03
  1.20323E+04  2.14511E+04 -7.68978E+03  2.45495E+04 -2.20074E+04  1.01855E+04 -2.65834E+04 -5.81479E+03
 -1.87694E+04 -1.59618E+04 -8.05461E+03 -1.87341E+04  5.40078E+03 -1.71472E+04  1.39387E+04 -1.70931E+04
  2.38563E+04 -1.27186E+04  3.16764E+04  2.56365E+03  2.38158E+04  1.77931E+04  4.37587E+03  3.49147E+04
 -1.72197E+04  2.97675E+04 -2.66794E+04  9.36250E+03 -2.02918E+04 -9.89580E+03 -3.83528E+03 -1.45040E+04
  2.29890E+03 -3.56832E+03 -4.09153E+03  6.26377E+03 -1.43459E+04  5.14897E+03 -1.43348E+04 -4.76231E+03
 -8.93452E+03 -1.77495E+04  5.43343E+03 -2.16633E+04  1.41177E+04 -1.44493E+04  1.60387E+04 -7.84309E+02
  1.20395E+04  1.25404E+04 -4.41442E+02  1.79970E+04 -1.06956E+04  1.05113E+04 -1.72861E+04 -4.67967E+03
 -1.32895E+04 -1.66699E+04 -1.39564E+03 -2.17714E+04  1.02427E+04 -1.76751E+04  1.82588E+04 -7.65556E+03
  1.62806E+04 -4.73501E+02  1.02863E+04  2.79706E+03  5.63348E+03  1.98076E+02  9.53966E+03 -5.48165E+02
  1.46438E+04  2.45578E+03  1.75268E+04  1.35292E+04  1.19872E+04  2.72423E+04 -3.59444E+03  3.15761E+04
 -1.77343E+04  2.47586E+04 -2.85815E+04  1.25876E+04 -2.81103E+04 -1.70444E+03 -2.40916E+04 -1.75462E+04
 -1.06863E+04 -2.39682E+04  6.04214E+03 -2.15728E+04  1.85767E+04 -1.23473E+04  1.75292E+04  4.77578E+03
  7.32337E+03  1.21972E+04 -8.70829E+03  1.09961E+04 -1.42011E+04  2.08761E+03 -1.12011E+04 -8.87183E+03
 -6.74225E+02 -1.33306E+04  7.59770E+03 -1.11352E+04  7.74011E+03 -9.20583E+02  1.96631E+03  6.43175E+03
 -6.56714E+03  1.53299E+03 -4.51193E+03 -5.31258E+03  1.05473E+02 -1.13923E+04  8.25577E+03 -1.25685E+04
  1.40342E+04 -6.62661E+03  1.47237E+04  3.28127E+03  1.27245E+04  1.11686E+04  6.70130E+03  1.74658E+04
 -2.99324E+03  1.87160E+04 -1.13193E+04  1.13866E+04 -1.26006E+04  3.01292E+03 -9.12041E+03 -2.36791E+03
 -4.65567E+03 -4.51813E+03 -5.55959E+02  6.75294E+02 -1.40592E+03  1.11932E+03 -4.21559E+03  3.95895E+03
 -1.02828E+04 -2.71601E+02 -1.05359E+04 -8.22489E+03 -4.24399E+03 -1.26820E+04  3.57890E+03 -9.02260E+03
  7.87112E+03 -4.42427E+03  5.75687E+03  1.95897E+03  4.65622E+02  3.12592E+03 -3.34870E+03 -9.23137E+01
 -3.78124E+03 -6.64400E+03 -1.11114E+03 -7.87693E+03  4.74375E+03 -9.77789E+03  1.10925E+04 -4.51470E+03
  1.44084E+04  4.18764E+02  9.46162E+03  7.69991E+03  2.52683E+03  1.03022E+04 -6.44181E+03  1.06939E+04
 -6.83185E+03  2.78297E+03 -3.14522E+03 -2.02025E+03  1.49443E+03 -2.77211E+03  4.65652E+03 -1.74278E+03
  4.71925E+03  3.93709E+03  1.02431E+03  7.63951E+03 -5.83107E+03  7.28465E+03 -8.37524E+03  2.65669E+03
 -5.44924E+03 -4.78833E+03  6.40875E+02 -8.13968E+03  4.69562E+03 -2.88696E+03  5.00974E+03  1.96703E+03
  8.46963E+02  3.87563E+03 -4.27256E+03  5.36379E+03 -6.82022E+03  2.33543E+03 -5.91425E+03 -1.90798E+03
 -4.43623E+03 -6.71935E+03  1.67208E+03 -9.27369E+03  7.58119E+03 -5.82524E+03  8.32121E+03  1.30660E+03
  5.47358E+03  6.61423E+03 -6.37547E+02  7.98968E+03 -5.53925E+03  4.30354E+03 -6.35997E+03 -2.33547E+02
 -6.14914E+03 -5.55034E+03 -2.10893E+03 -4.55706E+03  3.37074E+03 -4.54484E+03  3.49480E+03 -2.96776E+03
  3.36995E+03 -9.56669E+01 -2.76834E+02  9.60194E+02  2.00006E+02  6.89693E+02  7.80347E+02 -2.45544E+03
  4.70140E+03 -2.14624E+03  5.99877E+03  9.45127E+02  8.11753E+03  4.03582E+03  6.38639E+03  9.14685E+03
 -1.18381E+03  1.04286E+04 -9.03541E+03  7.97894E+03 -1.09778E+04  1.13908E+03 -1.12651E+04 -2.52891E+03
 -5.02521E+03 -8.48771E+03 -4.23210E+02 -6.40721E+03  2.08999E+03 -2.85005E+03  2.79117E+03 -2.74105E+03
  6.33791E+02 -2.26724E+03  2.29523E+03 -1.41453E+03  3.43559E+03  1.02158E+02  4.39270E+03 -2.09528E+01
  5.67369E+03  1.89661E+03  2.56669E+03  4.51366E+03 -1.58660E+03  3.90121E+03 -6.31200E+03  4.66119E+03
 -5.39470E+03 -1.33686E+03 -2.78523E+03 -4.36601E+03 -1.86083E+02 -6.13301E+03  4.73624E+03 -5.63737E+03
  6.42814E+03 -4.79412E+03  8.80696E+03 -8.86310E+01  5.77982E+03  6.39905E+03  1.98693E+03  6.59848E+03
 -2.48874E+03  7.99484E+03 -4.91724E+03  3.62945E+03 -2.22853E+03 -2.15851E+03 -1.30740E+03 -1.41152E+03
 -2.81764E+02 -5.81410E+02 -1.69456E+03  2.07519E+03 -3.16108E+03  1.30503E+03 -4.69053E+03 -1.98844E+02
 -1.99502E+03 -4.20750E+03  1.41380E+02 -4.99828E+03  3.04544E+03 -4.01195E+03  5.21232E+03 -1.45092E+03
  5.50477E+03  2.48039E+03  2.69242E+03  4.11919E+03 -9.47074E+02  6.09898E+03 -3.18779E+03  4.06093E+03
 -5.53487E+03  6.75817E+02 -4.28465E+03 -3.29325E+03  4.43495E+02 -3.27052E+03  1.88010E+03 -3.46877E+03
  3.38314E+03 -1.85793E+03  2.52072E+03 -4.29892E+02  4.39859E+02  2.08011E+03  1.11310E+03  1.86653E+03
  2.07536E+03  1.30448E+03  6.37458E+02  1.05559E+03  1.23886E+03  2.85554E+03  1.13589E+03  2.61151E+03
 -1.83524E+03  3.12265E+03 -3.73143E+03  4.18473E+03 -4.37634E+03 -5.01317E+02 -5.62158E+03 -1.11956E+03
 -1.48800E+03 -4.87821E+03  1.76801E+03 -6.62438E+03  3.45800E+03 -3.00007E+03  3.47588E+03 -9.58011E+01
  2.93921E+03  2.43627E+03  6.17447E+02  2.32173E+03 -7.85223E+02  2.41739E+03 -1.90796E+03  7.58593E+01
 -1.26191E+03 -1.42910E+03  9.19558E+02 -3.07412E+03  2.77124E+03 -8.58362E+02  1.67634E+03 -2.87872E+02
  6.88922E+02 -2.85206E+02  6.25194E+02 -7.27673E+02 -2.30891E+02 -6.34096E+02  9.83922E+02 -4.73496E+02
  3.00221E+02 -8.45928E+01  1.79716E+03  2.26911E+02  6.53622E+02  1.99168E+03 -2.71315E+02  4.93608E+03
 -2.36181E+03  1.58655E+03 -3.15082E+03  2.08988E+02 -1.15164E+03  2.46271E+02 -1.18488E+02 -9.50158E+02
  1.95062E+03 -6.63718E+02  1.32818E+03 -1.28708E+03  8.31908E+02  1.56451E+03  9.58546E+01  7.25463E+02
 -2.30425E+03  9.46634E+02 -3.71332E+03 -1.71334E+03 -1.14923E+03 -2.10702E+03  6.96868E+02 -2.27623E+03
  6.96817E+02  3.69739E+01  2.67489E+02  7.04729E+02  9.88280E+02  8.51154E+02  6.01514E+02  6.56366E+02
 -3.13725E+02  6.39524E+02 -1.70612E+03 -1.34770E+02  6.16873E+02 -2.29956E+03  1.49365E+03 -1.32247E+03
  1.87621E+03  1.57368E+03  3.28029E+03  1.11880E+03  1.53406E+03  2.40626E+03 -1.87964E+02  1.66004E+03
 -2.00685E+03  1.14805E+02 -2.29075E+03 -1.15893E+03 -2.09255E+03 -2.71622E+03  6.13424E+02 -6.30348E+02
  5.25512E+02 -7.90922E+02  3.58209E+02  5.45445E+02  9.34770E+02  1.25498E+03  1.50945E+03  1.32851E+03
 -1.14928E+03  1.74277E+03  7.79502E+02 -4.43223E+02 -6.28312E+01 -7.43837E+01 -6.34786E+02  7.57830E+02
 -8.87546E+02  1.70384E+03 -1.84209E+03 -4.32344E+02 -1.89369E+03  6.00337E+02 -2.90873E+03 -1.64254E+03
 -1.37616E+03 -1.79107E+03 -3.13564E+02 -4.76664E+03  2.71127E+03 -3.77732E+03  4.28138E+03 -3.08941E+02
  3.59890E+03 -6.06501E+02  1.53827E+03  1.61425E+03  2.68326E+02  1.47879E+03 -1.31053E+03  2.10188E+03
 -1.56342E+03  6.15474E+02 -4.76103E+02 -6.46453E+02  5.39011E+02  3.33863E+02  3.40280E+02 -1.35793E+02
 -8.95470E+02 -1.82862E+02 -1.25330E+03 -6.00667E+02 -2.65797E+02 -7.27352E+02 -1.51095E+03 -1.10928E+03
  1.22275E+03 -5.97923E+02  6.30307E+02 -3.33599E+02  1.26676E+03  9.52360E+02 -7.65052E+02  2.01028E+03
 -4.17389E+02  3.40444E+03 -1.37218E+03  1.30089E+03 -2.13363E+03 -1.04594E+02 -9.94605E+02 -1.33521E+03
 -1.18641E+03 -2.48703E+03  1.01155E+02 -1.62944E+03  1.05087E+03 -1.75482E+03  6.85605E+02  1.04627E+03
  4.89838E+02 -1.44683E+02 -2.13154E+02  6.23518E+02  2.94040E+02 -9.29353E+02  4.25370E+02 -3.94805E+02
 -2.94136E+02  1.35282E+03  6.66974E+02 -5.60767E+02  2.05902E+02  5.11476E+02 -9.24802E+02  6.06016E+01
 -1.15255E+03  2.06388E+03 -9.15667E+02  2.17427E+02 -8.84082E+02 -3.88372E+02 -1.06627E+02 -1.80955E+03
  1.55654E+03 -8.32071E+02  3.68993E+02 -7.45195E+02  7.96347E+02 -1.32327E+03  1.76783E+03  1.80820E+03
  4.18176E+01  6.52194E+02 -4.74347E+02 -4.68310E+02 -6.16424E+02  1.56678E+03  7.96775E+02 -3.24610E+02
 -7.18128E+02 -2.84515E+02 -4.47269E+02 -1.47320E+02 -8.86637E+02 -6.00950E+02 -1.32951E+03 -2.31428E+02
 -7.62530E+02  1.69253E+02 -7.11176E+02 -2.01254E+02  1.46531E+02 -2.13344E+03  1.86845E+03  4.03574E+02
  7.64627E+02  6.55024E+02 -1.20594E+02 -5.43399E+02 -3.83909E+02  1.09892E+03 -5.26381E+02  2.44132E+02
