 $NMID ID='MM_0lb_SNR200_15hz_g45_30.RAW', FMTDAT='(8E13.5)'
 TRAMP=1., VOLUME=1. $END
  3.10132E+05  2.13698E+02  3.37948E+05  2.50913E+05  8.41353E+04  3.36144E+05 -1.32622E+05  2.50888E+05
 -1.90858E+05  8.21492E+04 -1.11805E+05 -3.16565E+04  1.21176E+03 -5.05263E+04  5.32958E+04  7.70675E+02
  3.59098E+04  5.31316E+04 -1.65032E+04  7.48360E+04 -6.04108E+04  6.34041E+04 -8.36790E+04  3.16559E+04
 -8.08519E+04 -1.01851E+04 -5.62531E+04 -5.15240E+04 -1.44403E+04 -6.91709E+04  2.82956E+04 -4.54543E+04
  4.00812E+04  3.36971E+03  1.60282E+04  4.69252E+04 -3.46633E+04  4.60589E+04 -6.50395E+04  2.66191E+02
 -5.25165E+04 -5.67005E+04 -6.30083E+03 -7.66715E+04  3.42168E+04 -5.44846E+04  4.69283E+04 -1.82022E+04
  4.26951E+04  1.16717E+04  3.22336E+04  2.42846E+04  1.55462E+04  2.86105E+04 -5.28158E+03  2.70953E+04
 -2.28019E+04  1.19237E+04 -1.74641E+04 -4.35351E+03  5.18580E+03 -8.32205E+03  2.18398E+04  1.21156E+04
  7.33095E+03  3.45590E+04 -3.22185E+04  3.43872E+04 -6.23009E+04  1.13224E+03 -5.75654E+04 -4.18392E+04
 -1.22516E+04 -6.19026E+04  3.85436E+04 -4.45577E+04  5.74459E+04 -2.47946E+03  3.37536E+04  3.16406E+04
 -5.94663E+03  3.60990E+04 -2.99035E+04  1.47428E+04 -2.90705E+04 -4.54234E+03 -1.61052E+04 -1.08528E+04
 -7.82416E+03 -1.21185E+04 -7.45450E+02 -1.83075E+04  8.36367E+03 -2.25786E+04  1.44850E+04 -1.36635E+04
  1.12703E+04  4.92402E+03 -7.25778E+03  1.32410E+04 -1.94598E+04 -3.63769E+03 -7.58965E+03 -3.28879E+04
  2.30629E+04 -4.16728E+04  4.66232E+04 -2.00048E+04  4.34942E+04  1.82848E+04  1.51360E+04  4.37095E+04
 -1.56665E+04  3.36374E+04 -2.34569E+04  1.86705E+03 -9.01300E+03 -2.62270E+04  2.04286E+04 -3.13521E+04
  3.98058E+04 -8.69613E+03  3.42488E+04  2.31002E+04  1.74088E+04  4.43258E+04 -7.79788E+03  4.77052E+04
 -2.95504E+04  3.31266E+04 -4.13936E+04  8.62385E+03 -4.11901E+04 -1.71328E+04 -2.41433E+04 -3.71259E+04
  7.52313E+03 -3.65031E+04  3.04980E+04 -1.40002E+04  2.89667E+04  1.08080E+04  2.58096E+03  1.76200E+04
 -1.21185E+04  7.49171E+03 -9.81616E+03 -7.42049E+03  6.11872E+03 -1.07474E+04  1.71480E+04  5.90023E+03
  1.18442E+04  2.21769E+04 -5.20814E+03  2.53500E+04 -2.17685E+04  1.14513E+04 -2.65260E+04 -6.66058E+03
 -1.90188E+04 -1.78258E+04 -6.88440E+03 -1.95792E+04  4.82293E+03 -1.91161E+04  1.54798E+04 -1.71573E+04
  2.54152E+04 -1.29704E+04  3.07716E+04  2.61331E+03  2.36264E+04  1.91090E+04  3.96337E+03  3.45403E+04
 -1.77842E+04  2.88182E+04 -2.80729E+04  1.09628E+04 -2.09093E+04 -1.06011E+04 -3.95556E+03 -1.38902E+04
  2.47342E+03 -3.50989E+03 -3.42604E+03  6.73652E+03 -1.55328E+04  4.98856E+03 -1.55480E+04 -7.46354E+03
 -1.14886E+04 -1.65768E+04  4.32052E+03 -2.23618E+04  1.37647E+04 -1.62979E+04  1.77475E+04 -1.11972E+03
  1.15525E+04  1.14904E+04 -1.68771E+03  1.87399E+04 -1.15242E+04  8.59369E+03 -1.68583E+04 -4.63277E+03
 -1.26468E+04 -1.57456E+04 -1.89175E+03 -2.15567E+04  1.04822E+04 -1.88111E+04  1.86476E+04 -9.72508E+03
  1.69297E+04  8.36578E+02  1.23463E+04  4.53010E+03  6.17296E+03  9.98124E+02  9.24346E+03 -1.61726E+03
  1.67105E+04  2.70350E+03  1.83882E+04  1.50152E+04  1.19110E+04  2.81725E+04 -2.81533E+03  3.23731E+04
 -1.92472E+04  2.48103E+04 -2.94872E+04  1.12800E+04 -3.02988E+04 -2.72498E+03 -2.50130E+04 -1.74459E+04
 -1.09846E+04 -2.56246E+04  9.27304E+03 -2.28931E+04  2.06260E+04 -1.27994E+04  1.82676E+04  4.96283E+03
  7.47108E+03  1.31444E+04 -9.09795E+03  1.09224E+04 -1.53918E+04  2.78039E+03 -1.17391E+04 -9.44020E+03
 -7.82377E+02 -1.57269E+04  6.38242E+03 -1.14775E+04  9.38920E+03 -3.00866E+03  1.93174E+03  6.82659E+03
 -6.67200E+03  2.65618E+03 -6.25971E+03 -4.48473E+03 -2.14023E+02 -1.27767E+04  9.23765E+03 -1.29878E+04
  1.48910E+04 -6.43259E+03  1.64817E+04  2.79661E+03  1.50159E+04  1.22540E+04  6.75183E+03  1.76789E+04
 -3.87369E+03  2.00921E+04 -1.22205E+04  1.28264E+04 -1.49989E+04  3.27450E+03 -1.06742E+04 -2.87190E+03
 -4.98970E+03 -4.93425E+03 -1.61888E+03  6.92850E+02 -2.43224E+03  2.27748E+03 -4.02281E+03  3.71481E+03
 -9.62231E+03  1.23164E+02 -9.13542E+03 -7.38893E+03 -4.87034E+03 -1.43039E+04  3.55338E+03 -1.13689E+04
  8.15975E+03 -4.25257E+03  4.66885E+03  2.31302E+03  1.15713E+02  4.30428E+03 -5.12814E+03 -1.08780E+02
 -4.00874E+03 -5.99559E+03 -2.72379E+02 -9.22393E+03  5.76612E+03 -1.10206E+04  1.22144E+04 -6.19762E+03
  1.46582E+04  1.86588E+03  1.09603E+04  8.66699E+03  1.37931E+03  1.11696E+04 -6.80788E+03  9.39334E+03
 -8.72696E+03  4.05787E+03 -5.27404E+03 -1.72344E+03  9.16949E+02 -2.93320E+03  7.21862E+03 -1.68276E+03
  5.76887E+03  5.27269E+03 -8.64764E+01  7.73917E+03 -4.88742E+03  8.20724E+03 -9.78727E+03  2.87940E+03
 -5.50542E+03 -5.34592E+03  5.86923E+02 -9.30097E+03  4.75661E+03 -4.00001E+03  5.22767E+03  1.52682E+03
  1.18168E+03  4.49049E+03 -4.82777E+03  7.20780E+03 -6.70443E+03  2.68462E+03 -6.25826E+03 -2.03390E+03
 -3.46566E+03 -8.79204E+03  2.16366E+03 -1.02895E+04  9.16459E+03 -5.67482E+03  9.46142E+03  1.28860E+03
  5.44640E+03  7.69869E+03  1.92708E+01  8.45215E+03 -7.61665E+03  5.34031E+03 -6.61880E+03  2.98461E+02
 -5.95835E+03 -6.34431E+03 -1.88605E+03 -7.34598E+03  3.58627E+03 -5.22470E+03  4.38494E+03 -2.76155E+03
  3.01238E+03 -3.96031E+02 -8.45322E+02  1.39532E+03  3.12695E+02 -7.61603E+02  4.00630E+02 -2.92399E+03
  5.48230E+03 -1.81591E+03  7.79306E+03  1.28961E+03  7.77144E+03  3.97438E+03  6.06486E+03  1.17476E+04
 -1.78795E+03  1.27123E+04 -1.18156E+04  9.20021E+03 -1.39586E+04  3.70021E+03 -1.10214E+04 -4.50122E+03
 -6.18182E+03 -9.34728E+03  1.51387E+02 -7.33409E+03  3.34365E+03 -3.47124E+03  2.60717E+03 -3.10277E+03
  2.85416E+03 -2.34271E+03  2.46754E+03 -1.82098E+03  3.53603E+03 -1.38911E+03  4.57607E+03 -2.96657E+02
  6.27433E+03  5.19081E+02  2.06234E+03  4.62151E+03 -1.25420E+03  4.72405E+03 -5.91264E+03  3.85657E+03
 -7.01988E+03 -1.72862E+03 -4.37931E+03 -4.42889E+03  6.01471E+02 -7.65812E+03  4.63865E+03 -8.64468E+03
  7.72958E+03 -4.88590E+03  9.07997E+03  1.02408E+03  7.69385E+03  7.35187E+03  1.37465E+03  8.82990E+03
 -3.33260E+03  7.17821E+03 -6.15294E+03  2.16781E+03 -3.18714E+03 -1.29845E+03 -1.64468E+03 -1.54952E+03
 -1.02776E+03 -1.84803E+02 -1.17443E+03  1.70036E+03 -3.12336E+03  1.93694E+03 -4.97779E+03 -2.87365E+01
 -3.37880E+03 -4.16945E+03  5.50290E+02 -7.03029E+03  4.63698E+03 -6.44455E+03  6.74792E+03 -1.51038E+03
  5.86202E+03  3.78987E+03  2.46030E+03  5.61901E+03 -1.82461E+03  7.44253E+03 -4.55571E+03  3.69779E+03
 -6.91443E+03 -2.98385E+02 -5.35393E+03 -4.07152E+03 -1.08826E+03 -4.69625E+03  2.24283E+03 -4.97498E+03
  6.13062E+03 -1.77336E+03  1.93570E+03  1.39618E+03 -1.48939E+01  2.96183E+03  4.61189E+02 -4.22780E+02
  2.10709E+03  1.53924E+03  1.13034E+03  1.43125E+03  9.95586E+02  1.81556E+03  2.52664E+03  4.04840E+03
 -1.58913E+03  5.04415E+03 -5.56706E+03  6.58760E+03 -6.16091E+03  1.52050E+03 -6.88083E+03 -1.38522E+03
 -3.09302E+03 -5.27606E+03  3.33861E+02 -7.93265E+03  4.05215E+03 -4.60051E+03  4.95162E+03 -1.03135E+03
  3.87421E+03  3.48763E+03  3.19334E+02  3.92436E+03 -5.01421E+02  2.92627E+03 -2.54325E+03 -8.27024E+02
 -1.93127E+03 -3.12141E+03  2.85130E+03 -3.74637E+03  2.13562E+03 -1.17234E+03  3.59926E+03  3.68509E+02
  1.12014E+03  4.65394E+02  7.50112E+02  4.53083E+02 -2.48396E+02  1.54233E+03  1.79422E+03 -5.73593E+02
  1.31224E+03 -1.48490E+03  1.75447E+03  1.01739E+03  1.66776E+03  3.26623E+03 -9.97522E+02  4.69652E+03
 -3.04230E+03  3.25267E+03 -3.86026E+03  1.45713E+03 -2.45370E+03 -9.87089E+02 -1.72262E+03 -3.26413E+03
  1.26865E+03 -7.05663E+02  1.16533E+03 -1.35183E+03 -2.13990E+02  2.68028E+03 -5.59190E+02  1.91211E+03
 -3.30322E+03  1.45949E+03 -2.43305E+03 -1.05555E+03 -1.12121E+03 -3.03827E+03  2.39079E+02 -3.52780E+03
  1.16536E+03 -1.35282E+03  2.84981E+03  4.74720E+02  2.40830E+03  3.96120E+02  6.76453E+02  1.72877E+03
 -6.29502E+02  1.94244E+02 -1.32993E+03 -7.35660E+02  3.12897E+02 -2.23484E+03  3.17332E+03 -9.96829E+02
  2.21035E+03  6.49319E+02  3.93117E+03  3.84958E+03  1.71475E+03  2.83133E+03 -1.04098E+03  3.86332E+03
 -2.47467E+03  1.48244E+03 -2.40438E+03  6.79654E+02 -1.22656E+03 -2.53737E+03  1.24948E+03 -2.85366E+03
  2.37137E+03  1.16602E+02  2.78561E+03  1.11957E+03  9.64805E+02  2.29432E+03 -5.87763E+02  3.23573E+03
 -6.30231E+02  1.70069E+03 -7.86361E+02 -1.30192E+02 -7.70077E+02  4.13005E+02 -4.08746E+02 -1.76338E+02
 -1.54963E+03  7.07710E+02 -3.52349E+03  2.20913E+03 -3.29614E+03  6.21186E+02 -3.76485E+03 -1.16518E+03
 -2.92087E+03 -5.13320E+03  1.30381E+03 -5.21030E+03  2.65134E+03 -4.80952E+03  6.16937E+03 -2.44171E+03
  4.21491E+03 -3.94062E+02  2.56196E+03  2.78630E+03 -1.19377E+03  2.64336E+03 -1.12512E+03  1.93314E+03
 -1.79704E+03  2.17595E+03 -1.58757E+03  1.12616E+02 -1.81964E+03 -9.66630E+02 -9.00836E+02  7.64622E+02
 -5.61171E+02  5.47528E+02 -1.28715E+03 -2.29110E+02  7.68227E+02 -2.55447E+02 -1.26269E+02 -1.60802E+03
  1.99199E+03 -2.10273E+03  1.17270E+03  2.33163E+02  1.76167E+03  2.04119E+03  6.74796E+02  1.96871E+03
 -9.04976E+02  4.24084E+03 -3.75743E+03  1.04642E+03 -2.73211E+03  1.79486E+02 -2.86209E+03 -3.45245E+03
 -1.77910E+03 -1.77492E+03  1.24518E+03 -2.75499E+03  2.25977E+03 -1.31583E+03  1.77605E+03  1.25086E+03
 -5.35553E+01  1.11428E+03  2.52867E+02  1.29463E+03  1.53559E+01 -2.86653E+01 -7.82511E+02 -4.69833E+01
  1.19301E+03  7.35345E+01 -7.65467E+02  6.60419E+02  8.27323E+02  1.02666E+03 -8.97999E+01 -1.84480E+02
 -2.73122E+02  9.03950E+02 -2.41276E+03  2.62114E+02 -2.33690E+03 -7.43401E+02  1.22424E+02 -3.45364E+03
  1.40859E+03 -1.34598E+03  2.77747E+03 -1.07637E+03  2.22827E+03 -1.15760E+02  8.77302E+02  1.94440E+03
 -7.58594E+01  1.94892E+03 -4.36868E+02  1.33219E+03 -1.19863E+03  1.13866E+03 -7.77495E+02  1.22526E+03
 -8.79448E+02 -1.28846E+03 -1.06562E+03  9.25352E+02 -3.28616E+02  8.76843E+02 -1.65222E+03 -9.73124E+02
 -1.18664E+03 -4.32349E+02 -1.91735E+03 -2.04846E+03  7.02510E+02 -3.28450E+03  1.51043E+03 -1.00688E+03
  1.70059E+03  5.77812E+02  6.29183E+02  5.64527E+02 -2.94495E+02  1.81938E+03 -8.24842E+02  1.77447E+03
