 $NMID ID='MM_0lb_SNR200_20hz_g50_2.RAW', FMTDAT='(8E13.5)'
 TRAMP=1., VOLUME=1. $END
  3.10299E+05  1.10384E+03  3.36636E+05  2.50868E+05  8.41436E+04  3.37365E+05 -1.32283E+05  2.50678E+05
 -1.89846E+05  8.13595E+04 -1.10573E+05 -3.32902E+04  1.44224E+03 -5.00910E+04  5.32133E+04  8.62628E+02
  3.40924E+04  5.36357E+04 -1.69575E+04  7.49519E+04 -6.11715E+04  6.28847E+04 -8.25964E+04  3.13059E+04
 -7.95511E+04 -1.08100E+04 -5.48768E+04 -5.14093E+04 -1.49581E+04 -6.85852E+04  2.59245E+04 -4.46724E+04
  3.91945E+04  3.61917E+03  1.60765E+04  4.63167E+04 -3.51499E+04  4.64048E+04 -6.44218E+04 -2.68269E+02
 -5.15812E+04 -5.59271E+04 -6.32909E+03 -7.40892E+04  3.38183E+04 -5.35494E+04  4.67566E+04 -1.67500E+04
  4.14141E+04  1.01069E+04  3.10600E+04  2.50202E+04  1.66422E+04  2.86407E+04 -5.04102E+03  2.60081E+04
 -2.06490E+04  1.21711E+04 -1.97883E+04 -4.31457E+03  3.68129E+03 -8.16902E+03  2.07068E+04  1.05873E+04
  6.52364E+03  3.35747E+04 -3.03343E+04  3.26462E+04 -6.00650E+04  2.15476E+03 -5.56469E+04 -4.07435E+04
 -1.18124E+04 -6.03921E+04  3.69538E+04 -4.30699E+04  5.44951E+04 -1.86688E+03  3.04570E+04  3.06514E+04
 -6.08126E+03  3.17890E+04 -2.81883E+04  1.20833E+04 -2.81750E+04 -5.24448E+03 -1.41850E+04 -1.02452E+04
 -7.21315E+03 -1.14094E+04 -1.05859E+03 -1.70532E+04  5.74277E+03 -2.15478E+04  1.41057E+04 -1.43718E+04
  1.35139E+04  3.90358E+03 -5.41042E+03  1.27426E+04 -1.84436E+04 -1.62678E+03 -7.97974E+03 -2.87081E+04
  2.23533E+04 -4.02151E+04  4.42290E+04 -1.80871E+04  4.11335E+04  1.83170E+04  1.38521E+04  4.15573E+04
 -1.56714E+04  3.06714E+04 -2.43807E+04  9.14585E+02 -7.99255E+03 -2.65881E+04  2.07342E+04 -2.97591E+04
  3.69654E+04 -7.49475E+03  3.15292E+04  2.26167E+04  1.46194E+04  4.21433E+04 -7.81220E+03  4.53660E+04
 -2.72088E+04  2.92118E+04 -3.68721E+04  8.67314E+03 -3.66935E+04 -1.44712E+04 -2.19660E+04 -3.35532E+04
  7.56652E+03 -3.42821E+04  2.87101E+04 -1.29995E+04  2.68645E+04  1.08899E+04  3.12915E+03  1.73342E+04
 -1.31183E+04  5.86703E+03 -9.30398E+03 -7.19263E+03  5.85333E+03 -9.58732E+03  1.72493E+04  6.08894E+03
  1.21717E+04  2.20825E+04 -5.81714E+03  2.39146E+04 -2.17322E+04  7.90257E+03 -2.50289E+04 -7.19969E+03
 -1.51178E+04 -1.69254E+04 -5.07173E+03 -1.59729E+04  3.09700E+03 -1.31321E+04  1.21715E+04 -1.42184E+04
  2.03924E+04 -1.22535E+04  2.69424E+04  9.98226E+02  2.09150E+04  1.57096E+04  4.15416E+03  3.17235E+04
 -1.62552E+04  2.72780E+04 -2.60814E+04  9.76484E+03 -2.04808E+04 -1.02161E+04 -3.50098E+03 -1.33869E+04
  2.85036E+03 -4.56085E+03 -2.27399E+03  5.75152E+03 -1.29184E+04  5.55859E+03 -1.24182E+04 -4.37878E+03
 -8.35684E+03 -1.55154E+04  4.67016E+03 -1.91479E+04  1.16616E+04 -1.31254E+04  1.41354E+04 -1.09810E+03
  8.44997E+03  1.06691E+04 -3.66392E+02  1.56166E+04 -9.50087E+03  9.49580E+03 -1.50911E+04 -3.76176E+03
 -1.08362E+04 -1.35767E+04 -1.00077E+03 -1.85146E+04  8.41658E+03 -1.51354E+04  1.57287E+04 -6.68754E+03
  1.37393E+04  7.95672E+02  9.47413E+03  4.07343E+03  5.26787E+03  1.52137E+02  6.57815E+03 -5.88448E+02
  1.32246E+04  2.89044E+03  1.34086E+04  1.28339E+04  8.09823E+03  2.26773E+04 -3.65154E+03  2.46983E+04
 -1.49978E+04  1.88472E+04 -2.31339E+04  7.94587E+03 -2.42304E+04 -1.24103E+03 -1.96228E+04 -1.35647E+04
 -1.04388E+04 -1.82741E+04  6.60154E+03 -1.79141E+04  1.52095E+04 -1.05139E+04  1.53957E+04  4.19737E+03
  6.19624E+03  1.09365E+04 -6.74975E+03  1.06608E+04 -1.25416E+04  3.38409E+03 -9.59959E+03 -7.40569E+03
  7.09970E+02 -1.22626E+04  5.73026E+03 -8.26997E+03  8.34133E+03 -1.26318E+03  1.17220E+03  5.00750E+03
 -5.05160E+03 -3.40678E+02 -3.05762E+03 -4.56843E+03  2.69313E+02 -9.76966E+03  6.98333E+03 -9.88011E+03
  1.16284E+04 -4.17140E+03  1.09870E+04  2.81990E+03  8.76779E+03  8.54667E+03  5.00236E+03  1.31501E+04
 -2.57885E+03  1.48052E+04 -8.80634E+03  1.00043E+04 -9.95535E+03  2.64704E+03 -7.89289E+03 -8.40789E+02
 -4.73035E+03 -3.54744E+03 -1.25288E+02  1.40580E+03 -1.05022E+03  1.74857E+03 -2.64338E+03  3.88243E+03
 -7.22682E+03 -8.08544E+02 -8.37108E+03 -7.40991E+03 -2.59110E+03 -1.06380E+04  3.62036E+03 -7.68495E+03
  7.66917E+03 -3.75573E+03  5.38226E+03  1.89679E+03  4.67678E+02  2.34202E+03 -3.36186E+03  8.51513E+02
 -2.20152E+03 -5.24514E+03 -7.48706E+02 -5.81349E+03  3.63152E+03 -7.89795E+03  8.87664E+03 -4.20081E+03
  1.23462E+04 -3.62590E+02  8.22262E+03  4.40917E+03  2.83899E+03  7.88063E+03 -5.11883E+03  8.25750E+03
 -6.82400E+03  1.91380E+03 -3.10153E+03 -1.50989E+03  1.09996E+03 -1.03394E+03  4.98075E+03 -1.21632E+03
  3.56676E+03  3.14105E+03  8.63946E+01  5.37859E+03 -4.13355E+03  5.14541E+03 -8.04246E+03  1.71576E+03
 -4.54490E+03 -3.18913E+03  5.97095E+02 -5.99061E+03  3.00829E+03 -2.70739E+03  3.37140E+03  1.17725E+03
  4.28022E+02  3.24519E+03 -4.00878E+03  5.17044E+03 -4.60995E+03  2.28582E+03 -3.28339E+03 -6.85752E+02
 -2.70055E+03 -4.72585E+03  1.24119E+03 -6.57590E+03  4.70066E+03 -3.99287E+03  5.30290E+03 -6.20739E+01
  4.07533E+03  4.14217E+03 -1.05544E+03  7.48210E+03 -3.62959E+03  3.00636E+03 -4.03815E+03  3.20493E+02
 -5.68266E+03 -3.73630E+03 -1.55618E+03 -5.60778E+03  2.42202E+03 -4.05986E+03  2.15714E+03 -2.37707E+03
  3.04554E+03  3.12704E+02 -2.39160E+02  1.43417E+03  5.62953E+01 -2.71546E+02  3.21996E+02 -1.93496E+03
  3.70742E+03 -3.75165E+02  4.31700E+03  1.14506E+03  4.58374E+03  1.88319E+03  4.53058E+03  5.46381E+03
  2.79547E+02  7.50476E+03 -6.92618E+03  5.45273E+03 -9.38332E+03  4.88828E+02 -6.93535E+03 -1.70055E+03
 -3.05107E+03 -5.29543E+03  1.15007E+02 -3.95921E+03  1.78480E+03 -2.78613E+03  1.12350E+03 -1.51806E+03
  7.18921E+02 -1.66256E+03  2.83514E+03 -1.31678E+03  3.74840E+03 -2.01894E+03  2.96344E+03  1.04313E+03
  4.49848E+03  6.41730E+02 -4.49665E+01  2.87479E+03 -9.82035E+02  2.45515E+03 -4.24369E+03  1.61970E+03
 -3.30910E+03 -8.47157E+02 -1.40907E+03 -3.79647E+03  3.96788E+02 -5.11716E+03  2.90615E+03 -4.60285E+03
  5.47331E+03 -3.71401E+03  5.90275E+03  3.19965E+02  4.39319E+03  3.38255E+03  2.81742E+03  5.82142E+03
 -2.26470E+03  4.72424E+03 -4.27897E+03  1.64199E+03 -1.94019E+03 -1.42463E+03  2.24781E+02 -3.47255E+02
  4.94943E+02 -3.05693E+02 -3.57971E+02  1.38412E+03 -3.18862E+03  1.40030E+03 -3.37763E+03  2.47643E+02
 -7.22187E+02 -3.22473E+03  1.21996E+03 -4.66396E+03  2.75491E+03 -3.83659E+03  3.15038E+03 -1.33119E+03
  4.01251E+03  2.31669E+03  1.91245E+03  2.59488E+03 -1.31024E+03  3.89257E+03 -2.43737E+03  2.26576E+03
 -3.28178E+03 -5.03707E+02 -2.28309E+03 -1.97251E+03 -5.67989E+02 -1.52065E+03  2.00818E+03 -1.42002E+03
  1.69757E+03 -1.15242E+03  1.16824E+03  5.65456E+02  3.08579E+01  2.07905E+03  9.53939E+02  7.02091E+01
  1.86144E+03  4.04899E+02  1.76378E+03  1.34895E+03  6.74898E+02  2.32378E+03  1.64120E+03  1.54998E+03
 -1.54582E+03  1.39053E+03 -2.52762E+03  4.12559E+03 -1.95457E+03  9.20730E+02 -3.30126E+03 -2.47531E+02
 -9.41336E+02 -3.14510E+03  3.12877E+02 -4.46470E+03  9.52736E+02 -2.56441E+03  2.14332E+03 -1.03255E+03
  2.29400E+03  1.19618E+03 -5.58627E+02  6.07840E+02 -1.00895E+03  2.51487E+01 -1.12667E+03 -6.98930E+02
 -6.19184E+01 -2.26255E+03  7.90998E+02 -2.54716E+03  2.81508E+02 -9.70234E+02  5.30022E+02  4.83567E+01
  1.29874E+02 -6.51798E+02  8.13746E+02 -2.75274E+02  5.05140E+02  5.36197E+02  1.38432E+03 -2.05190E+02
 -5.09521E+02 -6.15179E+02  1.59804E+03  8.14055E+02 -6.81030E+02  1.57847E+03  1.75873E+02  2.77007E+03
 -7.57381E+02  3.47789E+02 -6.99564E+02  8.68302E+02 -1.62252E+03 -7.44416E+02  6.97483E+02 -4.18068E+02
 -8.41222E+01 -1.95971E+03  9.10160E+02 -7.43496E+02  8.23419E+01  1.30474E+03 -4.61319E+02  5.80568E+02
 -2.17214E+02  2.60260E+02 -5.42304E+02 -1.25324E+03 -3.39275E+02 -1.02481E+03  4.25934E+02 -2.37403E+03
 -9.34266E+02 -1.92811E+03  1.16447E+02  9.34791E+02  7.04537E+02 -6.29175E+02  6.98522E+02  3.50437E+02
  1.20557E+03  3.34732E+02 -1.35217E+03  3.41425E+02  1.98950E+02 -8.42424E+02  2.04487E+03 -1.51946E+02
  2.82899E+02  3.02896E+02  3.17619E+03  3.25294E+02  6.30469E+02  1.12027E+03  7.29611E+02  1.91499E+03
 -1.68011E+03  5.07541E+02 -1.44185E+03  6.92560E+02 -1.41811E+03 -9.41819E+02 -3.16926E+02  1.20022E+02
  1.11669E+03 -7.20219E+02  1.22636E+03  9.95576E+02 -1.75937E+02  1.21813E+03  6.06728E+02  1.19136E+03
  7.65309E+02  7.20387E+02 -5.87265E+02  1.71443E+02  6.91523E+02 -3.50559E+02 -2.01133E+02  8.08941E+02
  4.43802E+02  6.55437E+02 -1.72782E+03  1.24789E+02 -7.89786E+02  8.08275E+02 -2.94656E+03 -1.12393E+03
 -5.13043E+02 -5.35329E+02  7.80663E+02 -2.41219E+03 -8.59548E+01 -1.26090E+03  1.84742E+03 -7.21269E+02
  1.80784E+03 -1.21415E+03  2.16466E+02  8.86219E+02 -5.62600E+02  2.35696E+03 -1.59967E+03  5.60904E+02
 -2.92920E+02  6.51783E+01 -2.30995E+02  2.22820E+02 -2.64248E+02  1.03206E+03 -1.28536E+03 -4.77773E+02
 -1.42312E+03  2.65954E+02 -1.00303E+03 -4.24411E+02 -7.29771E+02 -1.29410E+03 -4.20129E+02 -1.28047E+03
  7.81870E+02 -9.26459E+02 -2.60456E+01  5.69962E+02  1.40993E+03  7.48479E+01 -3.62744E+02  2.37258E+03
 -1.13655E+03  1.56763E+03 -1.60865E+03  1.47520E+02 -1.11852E+03 -7.81909E+01 -9.72522E+02 -3.90666E+02
 -8.41510E+02 -1.98735E+03  4.65116E+02 -3.77918E+02  7.28643E+02 -1.39754E+02  2.09245E+02 -3.74861E+00
  1.37394E+03 -1.54681E+03 -5.30948E+02  7.87417E+02 -7.60776E+02 -8.22623E+02 -5.21446E+02  2.10459E+02
  1.13428E+03 -1.98548E+02  2.00527E+02  1.21079E+03  1.22077E+03  6.14484E+02  1.38904E+03  1.44906E+03
  3.80233E+02 -4.63393E+02 -2.11995E+02  1.01989E+03 -6.95173E+01 -1.30940E+03  6.07890E+02 -7.16015E+02
  6.22287E+02  1.34763E+02  4.35161E+02 -1.67861E+02  1.34295E+03 -1.13096E+03  1.71293E+03  4.68781E+02
  1.40066E+03  1.16074E+03 -7.18670E+02  5.63955E+02 -3.56913E+02  5.79553E+02 -1.62131E+02  2.23230E+02
  1.23209E+02 -3.05417E+02 -5.64575E+02  4.92281E+02 -5.99824E+02 -3.17101E+02 -1.65984E+02  6.01867E+02
 -3.40196E+02  1.20335E+03 -7.13040E+01 -1.19581E+03  9.44741E+01 -1.32801E+02  8.90371E+02  2.28383E+02
 -2.38295E+02  6.44566E+02 -9.12331E+02 -3.86381E+02  9.70441E+02  1.31314E+02 -1.88962E+02  1.46977E+02
