 $NMID ID='MM_0lb_SNR200_18hz_g45_29.RAW', FMTDAT='(8E13.5)'
 TRAMP=1., VOLUME=1. $END
  3.10389E+05 -4.34316E+02  3.36901E+05  2.49506E+05  8.40582E+04  3.37964E+05 -1.33076E+05  2.50804E+05
 -1.89318E+05  8.28761E+04 -1.11083E+05 -3.25835E+04  1.68834E+03 -5.07642E+04  5.44617E+04  3.16910E+02
  3.54028E+04  5.26504E+04 -1.62249E+04  7.50467E+04 -6.07427E+04  6.27986E+04 -8.24344E+04  3.17221E+04
 -7.84122E+04 -1.20768E+04 -5.63839E+04 -5.05037E+04 -1.46494E+04 -6.86245E+04  2.69037E+04 -4.53158E+04
  3.89024E+04  4.21719E+03  1.53287E+04  4.59357E+04 -3.41707E+04  4.65992E+04 -6.46519E+04  3.40294E+02
 -5.24315E+04 -5.54018E+04 -7.50348E+03 -7.50182E+04  3.31082E+04 -5.18005E+04  4.67962E+04 -1.67908E+04
  4.14592E+04  1.18969E+04  2.94260E+04  2.41637E+04  1.58870E+04  2.80736E+04 -5.31544E+03  2.67288E+04
 -2.09852E+04  1.25465E+04 -1.92877E+04 -4.82540E+03  3.58866E+03 -7.65973E+03  2.05699E+04  1.00443E+04
  6.49964E+03  3.37007E+04 -3.02993E+04  3.37918E+04 -6.22430E+04  1.67513E+03 -5.52832E+04 -4.12538E+04
 -1.08871E+04 -6.00340E+04  3.77413E+04 -4.27103E+04  5.56238E+04 -2.31993E+03  3.11007E+04  2.89126E+04
 -7.00147E+03  3.27560E+04 -2.87287E+04  1.30507E+04 -2.67220E+04 -6.44598E+03 -1.48415E+04 -1.00997E+04
 -7.67555E+03 -1.11552E+04 -1.08592E+03 -1.64661E+04  6.82153E+03 -2.33191E+04  1.50905E+04 -1.39929E+04
  1.33783E+04  3.68777E+03 -6.37545E+03  1.43461E+04 -2.00521E+04 -2.05386E+03 -7.50243E+03 -2.95108E+04
  2.06669E+04 -3.89700E+04  4.40776E+04 -1.89722E+04  4.21775E+04  1.87730E+04  1.47999E+04  4.06904E+04
 -1.55953E+04  3.18191E+04 -2.30830E+04  1.65685E+03 -8.17868E+03 -2.64656E+04  2.09856E+04 -3.05667E+04
  3.79643E+04 -8.53696E+03  3.17414E+04  2.30082E+04  1.47970E+04  4.22735E+04 -7.27287E+03  4.53283E+04
 -2.81537E+04  2.94947E+04 -3.77628E+04  8.62461E+03 -3.89123E+04 -1.50903E+04 -2.18667E+04 -3.55126E+04
  7.63940E+03 -3.44520E+04  2.76170E+04 -1.18290E+04  2.87770E+04  1.05413E+04  2.04839E+03  1.75897E+04
 -1.33325E+04  7.46447E+03 -9.15422E+03 -7.10367E+03  6.29671E+03 -9.98970E+03  1.66645E+04  6.06059E+03
  1.18738E+04  2.18653E+04 -6.11865E+03  2.43929E+04 -2.09559E+04  9.78984E+03 -2.43164E+04 -5.98261E+03
 -1.69805E+04 -1.65249E+04 -5.00015E+03 -1.68807E+04  3.78892E+03 -1.47387E+04  1.31695E+04 -1.45446E+04
  2.13643E+04 -1.19327E+04  2.82439E+04  1.02296E+03  2.11117E+04  1.56500E+04  3.38652E+03  3.26607E+04
 -1.63368E+04  2.78639E+04 -2.52069E+04  9.98741E+03 -1.88397E+04 -1.07684E+04 -4.10973E+03 -1.42105E+04
  2.72140E+03 -3.19311E+03 -3.30012E+03  5.36300E+03 -1.27814E+04  5.32580E+03 -1.45201E+04 -5.03260E+03
 -8.34570E+03 -1.48964E+04  4.62537E+03 -1.88034E+04  1.16917E+04 -1.40934E+04  1.41856E+04 -1.90843E+03
  8.62790E+03  1.01511E+04 -5.62350E+02  1.57350E+04 -1.05770E+04  8.57192E+03 -1.52357E+04 -3.43041E+03
 -1.15687E+04 -1.47086E+04 -1.38036E+03 -1.91265E+04  1.01216E+04 -1.59994E+04  1.62946E+04 -7.25379E+03
  1.48047E+04  7.18121E+02  1.05951E+04  3.64424E+03  5.69471E+03  1.11810E+03  8.48257E+03 -1.21750E+03
  1.43565E+04  2.66937E+03  1.42748E+04  1.28971E+04  8.82152E+03  2.52518E+04 -3.58346E+03  2.77021E+04
 -1.56799E+04  2.01788E+04 -2.32667E+04  9.07829E+03 -2.54478E+04 -9.81351E+02 -2.19732E+04 -1.41178E+04
 -1.09537E+04 -2.07481E+04  6.07521E+03 -1.95330E+04  1.73756E+04 -1.21829E+04  1.55424E+04  3.18897E+03
  6.14189E+03  1.11880E+04 -6.53421E+03  1.01566E+04 -1.26791E+04  3.50144E+03 -1.07744E+04 -7.90887E+03
 -4.86936E+02 -1.20133E+04  7.03104E+03 -9.07036E+03  8.02837E+03 -1.21525E+03  1.99292E+03  5.84209E+03
 -6.43489E+03  8.69187E+02 -3.34284E+03 -5.08063E+03  5.79283E+01 -9.43262E+03  8.25502E+03 -9.57793E+03
  1.16642E+04 -3.81002E+03  1.14477E+04  2.93383E+03  1.14601E+04  1.05217E+04  5.94153E+03  1.43055E+04
 -2.14194E+03  1.63649E+04 -1.01861E+04  1.02657E+04 -1.18484E+04  2.39209E+03 -9.02137E+03 -1.09792E+03
 -4.59695E+03 -2.85377E+03 -8.34804E+02  1.64327E+03 -3.19534E+03  2.81671E+03 -3.70650E+03  3.36315E+03
 -8.20638E+03 -1.25699E+03 -8.34280E+03 -7.35096E+03 -2.93714E+03 -1.07912E+04  3.90185E+03 -7.80264E+03
  6.12276E+03 -4.79398E+03  5.84114E+03  2.50590E+03  1.18254E+03  3.42322E+03 -3.76940E+03  6.81594E+02
 -4.30173E+03 -5.64629E+03 -7.00006E+02 -7.16899E+03  3.78113E+03 -8.51298E+03  1.06817E+04 -5.11836E+03
  1.15793E+04 -2.23846E+02  8.46355E+03  7.16735E+03  1.98587E+03  9.79220E+03 -5.57573E+03  8.52250E+03
 -7.45117E+03  2.72180E+03 -4.55888E+03 -1.54941E+03  2.21222E+03 -1.79712E+03  4.06750E+03 -1.31708E+03
  5.20034E+03  2.87769E+03  2.00333E+03  6.25051E+03 -5.28726E+03  6.25050E+03 -7.91206E+03  1.97850E+03
 -4.51204E+03 -2.78884E+03  1.03310E+03 -6.04547E+03  4.02389E+03 -2.81422E+03  3.29028E+03  1.31758E+03
  1.90300E+03  4.78329E+03 -3.08702E+03  5.01398E+03 -5.77557E+03  2.38311E+03 -5.49085E+03 -1.42860E+03
 -2.87512E+03 -5.69849E+03  2.76168E+03 -7.72157E+03  5.82597E+03 -5.19745E+03  6.77472E+03  7.97134E+02
  4.25644E+03  5.54463E+03  9.42510E+02  7.20532E+03 -5.79738E+03  3.33057E+03 -5.13058E+03 -6.09955E+02
 -5.43621E+03 -4.51042E+03 -2.35947E+02 -5.33684E+03  2.23157E+03 -4.46461E+03  3.18598E+03 -1.74205E+03
  2.96840E+03 -4.14876E+02  8.45517E+01  1.88026E+03  2.14478E+03 -4.66446E+02  1.96323E+02 -1.11739E+03
  4.18577E+03 -3.88261E+02  6.26497E+03  5.54580E+02  6.39585E+03  3.69389E+03  5.27328E+03  7.32131E+03
 -1.91085E+03  8.12788E+03 -8.02489E+03  6.00369E+03 -9.93896E+03  1.80398E+03 -8.44370E+03 -2.74341E+03
 -4.01256E+03 -8.14915E+03 -1.28594E+03 -4.71489E+03  1.89366E+03 -2.52264E+03  1.48473E+03 -2.05917E+03
  1.80927E+03 -1.55139E+03  1.64909E+03 -2.41126E+03  3.37974E+03 -8.36358E+02  2.72510E+03  4.28899E+02
  4.89834E+03  3.45128E+02  6.66605E+02  3.93688E+03 -1.54638E+03  3.55299E+03 -4.69542E+03  2.05882E+03
 -4.11911E+03 -1.13829E+03 -1.66298E+03 -3.27158E+03  1.53890E+03 -5.70092E+03  2.08137E+03 -5.22051E+03
  4.52425E+03 -3.70415E+03  6.26752E+03  1.94860E+01  4.92286E+03  4.87513E+03  1.25336E+03  6.67724E+03
 -2.38558E+03  5.61278E+03 -4.18938E+03  2.17980E+03 -2.77437E+03 -9.80175E+02 -1.59200E+03 -8.70296E+02
 -6.88053E+02  5.67805E+02 -1.30250E+02  1.64417E+03 -1.93909E+03  1.26974E+03 -2.93094E+03 -9.41685E+02
 -2.24486E+03 -3.01077E+03  1.61442E+03 -4.07698E+03  3.30104E+03 -3.93666E+03  2.82138E+03 -1.32754E+03
  4.99488E+03  2.91261E+03  1.95014E+03  4.11662E+03 -2.35270E+02  4.79074E+03 -2.48819E+03  2.25744E+03
 -3.11135E+03  4.50885E+02 -3.25167E+03 -2.75502E+03 -2.78212E+02 -3.01661E+03  1.51884E+03 -2.38322E+03
  2.66193E+03 -7.97849E+02  2.07931E+03  1.27057E+03  1.19748E+03  1.17747E+03  1.53615E+03  1.36947E+03
  2.77725E+03  8.45447E+02  1.32697E+03  2.09324E+03  5.44159E+02  2.44887E+03  1.51616E+03  1.31081E+03
 -1.03167E+03  2.51672E+03 -2.09399E+03  5.10444E+03 -3.10563E+03  4.54347E+02 -4.86010E+03 -1.95629E+02
 -1.96934E+03 -3.98611E+03 -8.00550E+02 -5.23726E+03  1.85403E+03 -3.77102E+03  4.02549E+03 -7.92356E+02
  1.75268E+03  2.87713E+03  3.87202E+02  3.90070E+03 -1.19029E+03  8.72027E+02 -4.37594E+02 -8.02017E+01
 -3.99680E+02 -1.90638E+03  3.07440E+02 -2.30708E+03  2.18794E+03 -9.28891E+02  1.20343E+03  1.33471E+02
  1.19443E+03 -6.76562E+02 -3.74355E+02 -3.30446E+02  7.89901E+02  1.08148E+03  1.14166E+03  1.48441E+02
  1.56616E+02 -7.65616E+01  2.20333E+03 -8.80431E+01 -5.12532E+01  1.45908E+03 -2.47479E+02  2.77265E+03
 -1.54491E+03  1.50038E+03 -3.24963E+03  4.61708E+02 -3.86616E+03 -3.71621E+02 -5.07244E+01 -1.61530E+03
  8.44982E+02 -8.15551E+02  1.32576E+03 -5.74090E+02  8.62110E+02  1.52202E+03 -1.65001E+03  8.94854E+02
 -1.19549E+03  1.37545E+03 -1.74503E+03 -4.77832E+02 -2.60224E+02 -2.46735E+03 -7.41542E+02 -1.33184E+03
  1.27314E+03 -6.85427E+02  1.77920E+03  5.64177E+02  1.29732E+03 -2.75604E+02 -3.71503E+02  2.99166E+02
 -4.44649E+01 -1.44660E+02  3.37709E+02 -1.53196E+03  1.10243E+03 -1.25226E+03  1.96378E+03 -5.24231E+02
  1.13634E+03 -2.30046E+02  3.00904E+03  6.79548E+02  8.66565E+02  2.08727E+03  5.28006E+02  2.51260E+03
 -1.75315E+03  3.85634E+02 -2.40867E+03 -7.68181E+02 -1.61836E+03 -1.58206E+03  4.66952E+01 -2.82667E+02
  1.45021E+03 -1.52078E+03  1.02202E+03  1.41644E+03  5.86531E+02  5.83011E+02  1.07685E+03  1.52526E+03
 -5.20926E+02  1.36403E+03 -1.11307E+03  1.02193E+03  1.24569E+02  1.17383E+03 -1.40112E+03  4.83008E+02
 -3.64319E+02  5.10967E+02 -2.01303E+03 -3.18569E+01 -7.97056E+02  5.37987E+02 -2.33544E+03 -4.55976E+02
 -1.28367E+03 -3.38492E+03  1.00715E+03 -2.89980E+03  1.91749E+03 -2.34169E+03  3.02662E+03 -1.24581E+03
  2.84931E+03  6.90872E+02  2.15109E+03  1.96329E+03 -1.11636E+03  1.76761E+02 -6.73203E+02  1.55077E+03
 -2.66092E+02  1.22169E+03 -5.84139E+01 -6.94775E+02 -1.36087E+02 -1.02139E+03  2.66444E+02  1.66164E+03
 -8.29111E+02 -2.00295E+02 -7.44666E+02  5.46636E+02 -1.53398E+03  8.83939E+02 -1.40879E+03 -9.17896E+02
  2.03845E+03 -1.27439E+02  3.98034E+02  4.56031E+02  6.04543E+02  1.35505E+03  7.38933E+02  1.48623E+03
  2.76533E+02  2.12411E+03 -1.79182E+03  1.69339E+03 -1.73890E+03  5.45227E+02 -6.07788E+02 -2.71412E+03
 -8.02938E+02 -1.34875E+03  3.54249E+02 -2.08905E+03  3.46650E+02 -1.41123E+03  4.59940E+02 -5.85689E+02
 -2.85579E+02  3.95313E+02  1.71587E+02  1.21197E+03 -1.91000E+03 -9.75466E+02 -1.46849E+03 -4.96641E+02
  8.00242E+02  1.70894E+03 -6.18203E+02  7.61155E+01  4.89832E+02  2.76783E+02  6.51730E+02  5.46724E+02
 -3.85402E+02  8.04108E+02 -2.94077E+02  4.35136E+01 -6.44140E+02 -8.35853E+02 -5.91644E+02 -1.75950E+03
  9.03419E+02  3.57596E+02  9.18275E+02 -7.26785E+02  9.56722E+02 -5.87094E+02  8.19110E+02  5.13459E+02
  1.17919E+03  2.44918E+02  6.46296E+02  1.07283E+03  6.24598E+02  1.30251E+03 -7.27824E+02 -3.94885E+02
  1.57185E+02 -6.06278E+02  9.34989E+02 -4.14913E+02 -1.34362E+03 -1.08906E+03 -1.31135E+03  4.01245E+02
 -7.49693E+02  4.40806E+02  6.08845E+02 -5.49768E+02  9.54815E+02 -1.81385E+03  1.70581E+03  8.06182E+02
  2.97283E+02 -1.04154E+03  8.29358E+02 -1.88662E+02 -5.10887E+02  7.83932E+02 -1.90004E+02  1.56268E+03
