 $NMID ID='MM_0lb_SNR200_7hz_g40_25.RAW', FMTDAT='(8E13.5)'
 TRAMP=1., VOLUME=1. $END
  3.11020E+05  5.55318E+02  3.38370E+05  2.51277E+05  8.54468E+04  3.38647E+05 -1.32021E+05  2.53142E+05
 -1.91507E+05  8.36201E+04 -1.13704E+05 -3.28176E+04  4.56014E+02 -4.98484E+04  5.38827E+04 -1.41009E+03
  3.58407E+04  5.51716E+04 -1.33535E+04  7.73762E+04 -6.15228E+04  6.57893E+04 -8.54754E+04  3.26332E+04
 -8.11088E+04 -1.37684E+04 -5.87859E+04 -5.29512E+04 -1.50230E+04 -7.06317E+04  2.80518E+04 -4.78512E+04
  4.06885E+04  2.01123E+03  1.93454E+04  4.95458E+04 -3.51735E+04  4.86694E+04 -6.89973E+04  5.34501E+02
 -5.45303E+04 -5.87366E+04 -6.82904E+03 -7.90920E+04  3.58937E+04 -5.79789E+04  5.03162E+04 -1.88232E+04
  4.69433E+04  1.09356E+04  3.28587E+04  2.58545E+04  1.53360E+04  3.24902E+04 -5.11043E+03  2.87845E+04
 -2.41990E+04  1.03609E+04 -1.87292E+04 -7.08004E+03  9.04207E+03 -6.00171E+03  2.30459E+04  1.46582E+04
  8.32000E+03  3.83759E+04 -3.45758E+04  3.81151E+04 -6.74319E+04  2.82874E+03 -6.06356E+04 -4.61024E+04
 -1.19417E+04 -6.61290E+04  4.24385E+04 -4.95311E+04  6.05800E+04 -2.95500E+03  3.85896E+04  3.26071E+04
 -5.68492E+03  3.94371E+04 -3.07114E+04  1.94870E+04 -3.34611E+04 -2.71008E+03 -1.85160E+04 -1.24843E+04
 -8.44185E+03 -1.69664E+04 -3.05196E+02 -2.03407E+04  8.30934E+03 -2.24754E+04  1.62663E+04 -1.32608E+04
  1.01394E+04  6.73521E+03 -1.11188E+04  1.29774E+04 -2.35131E+04 -8.46610E+03 -8.89800E+03 -4.03713E+04
  2.43557E+04 -4.62481E+04  5.19067E+04 -2.05134E+04  5.10798E+04  2.14092E+04  1.83301E+04  4.87154E+04
 -1.78572E+04  3.72823E+04 -2.73366E+04  2.32013E+03 -1.08908E+04 -3.02015E+04  2.14697E+04 -3.57527E+04
  4.54607E+04 -1.19335E+04  4.26803E+04  2.59844E+04  2.22717E+04  5.13408E+04 -8.50650E+03  5.71949E+04
 -3.75702E+04  3.88430E+04 -4.86636E+04  1.20806E+04 -5.05145E+04 -1.92018E+04 -2.81746E+04 -4.28847E+04
  7.71274E+03 -4.42872E+04  3.41307E+04 -1.77228E+04  3.42201E+04  9.48880E+03  6.91466E+03  2.05357E+04
 -1.38437E+04  1.03118E+04 -1.09941E+04 -7.70614E+03  6.00720E+03 -1.10229E+04  2.01448E+04  6.65172E+03
  1.64971E+04  2.24796E+04 -5.81656E+03  2.72595E+04 -2.37320E+04  1.65622E+04 -3.30014E+04 -2.11076E+03
 -2.72016E+04 -1.88631E+04 -1.26325E+04 -2.61963E+04  4.59902E+03 -2.58397E+04  2.15296E+04 -2.64562E+04
  3.33801E+04 -1.49085E+04  4.06981E+04  7.39934E+03  2.69464E+04  2.55485E+04  4.35888E+03  4.38681E+04
 -2.03742E+04  3.37986E+04 -3.17795E+04  1.18172E+04 -2.02658E+04 -8.92528E+03 -5.56198E+03 -1.13405E+04
  1.24075E+03 -9.82215E+02 -9.57646E+03  8.55477E+03 -2.21048E+04  6.27378E+03 -2.20964E+04 -1.08888E+04
 -1.11422E+04 -2.49062E+04  7.51259E+03 -2.82619E+04  2.00012E+04 -2.04053E+04  2.40495E+04 -1.60229E+03
  1.41689E+04  1.61800E+04 -2.98723E+03  2.48596E+04 -1.94198E+04  1.12056E+04 -2.46632E+04 -5.51046E+03
 -1.81621E+04 -2.20685E+04 -3.16711E+03 -3.00104E+04  1.50157E+04 -2.42586E+04  2.41706E+04 -1.45505E+04
  2.39589E+04  4.11454E+02  1.74715E+04  5.87904E+03  9.21326E+03  1.03594E+03  1.22630E+04 -2.72675E+03
  2.41891E+04  1.74528E+03  2.67752E+04  1.92872E+04  1.87402E+04  3.75539E+04 -3.49408E+03  4.74411E+04
 -2.66217E+04  4.03273E+04 -4.46163E+04  2.23740E+04 -4.84748E+04 -1.31230E+03 -3.80926E+04 -2.83413E+04
 -1.52203E+04 -4.06280E+04  1.40911E+04 -3.45624E+04  3.13181E+04 -1.65242E+04  2.53012E+04  7.31918E+03
  7.64724E+03  1.96014E+04 -1.20342E+04  1.79950E+04 -2.12385E+04  4.07191E+03 -1.50878E+04 -1.30577E+04
  3.67334E+02 -2.05159E+04  8.67948E+03 -1.50205E+04  1.44065E+04 -5.88226E+02  2.15814E+03  1.07059E+04
 -1.00381E+04  5.68936E+03 -9.08986E+03 -6.77344E+03 -3.21283E+03 -1.96824E+04  1.37898E+04 -2.17456E+04
  2.58098E+04 -1.23793E+04  2.70681E+04  3.69071E+03  2.60046E+04  1.92280E+04  1.13976E+04  3.03720E+04
 -6.71330E+03  3.37290E+04 -2.11961E+04  2.06504E+04 -2.52706E+04  5.47809E+03 -1.71695E+04 -7.55165E+03
 -8.72328E+03 -7.38828E+03 -1.51076E+03 -3.44254E+02 -3.62586E+03  2.25151E+03 -8.32316E+03  5.12933E+03
 -1.35739E+04  7.32016E+02 -1.56276E+04 -1.30752E+04 -7.82567E+03 -2.07084E+04  5.77460E+03 -1.74856E+04
  1.29276E+04 -4.58496E+03  9.60010E+03  5.10557E+03 -1.63189E+03  7.70293E+03 -8.51424E+03 -3.61377E+02
 -9.26952E+03 -1.10997E+04 -5.31758E+02 -1.71935E+04  1.28370E+04 -1.78553E+04  2.14539E+04 -9.65175E+03
  2.58875E+04  3.38445E+03  1.70230E+04  1.71983E+04  2.43447E+03  2.16253E+04 -1.12125E+04  1.77666E+04
 -1.35723E+04  5.70037E+03 -7.76848E+03 -4.66594E+03  1.18424E+03 -5.08934E+03  9.71349E+03 -4.44323E+02
  9.68956E+03  7.02630E+03  2.73065E+03  1.40335E+04 -1.02415E+04  1.30313E+04 -1.58206E+04  9.92880E+02
 -1.12315E+04 -9.74919E+03  8.20757E+02 -1.51118E+04  9.69437E+03 -6.91834E+03  8.82714E+03  4.32517E+03
  3.48896E+03  1.22573E+04 -1.11673E+04  1.37448E+04 -1.56654E+04  7.13595E+03 -1.48004E+04 -5.83831E+03
 -9.33264E+03 -1.85204E+04  5.68924E+03 -2.01593E+04  1.57869E+04 -1.19588E+04  1.90829E+04  3.90922E+03
  1.04858E+04  1.66368E+04 -1.22026E+03  1.70157E+04 -1.27410E+04  9.16655E+03 -1.48965E+04 -6.19076E+02
 -1.15375E+04 -1.25585E+04 -2.49992E+03 -1.30520E+04  7.19667E+03 -1.03904E+04  1.04876E+04 -2.39393E+03
  4.67007E+03  3.08461E+03 -9.34117E+02  1.27863E+03 -1.85886E+03 -3.86783E+03  2.96989E+03 -1.02875E+04
  1.40060E+04 -7.65101E+03  1.96717E+04  3.50562E+03  1.84505E+04  1.45397E+04  1.28568E+04  2.32555E+04
 -6.03839E+03  2.62070E+04 -2.18292E+04  1.95460E+04 -2.90313E+04  3.22065E+03 -2.31776E+04 -1.19314E+04
 -1.07618E+04 -2.10457E+04  2.28734E+02 -1.70138E+04  5.52188E+03 -1.19692E+04  6.64740E+03 -5.56560E+03
  5.93473E+03 -3.02576E+03  3.40015E+03 -4.25215E+03  6.59983E+03 -4.64844E+03  8.14187E+03 -2.29385E+03
  1.32946E+04  3.00064E+03  6.57314E+03  1.10216E+04 -1.48447E+03  1.23233E+04 -1.20159E+04  1.08049E+04
 -1.82375E+04 -1.43472E+03 -1.08207E+04 -1.33062E+04 -3.54500E+03 -1.95401E+04  9.86033E+03 -1.69982E+04
  1.92281E+04 -1.17189E+04  2.22736E+04  2.39728E+03  1.66114E+04  1.69693E+04  2.39323E+03  2.00639E+04
 -9.06644E+03  1.66528E+04 -1.17907E+04  6.00292E+03 -7.39080E+03 -1.85275E+03 -3.61015E+03 -4.44409E+03
 -2.69043E+03  6.94563E+02 -5.31571E+03  4.48762E+03 -5.83860E+03  2.96501E+03 -1.22383E+04 -1.89429E+03
 -8.91655E+03 -1.31411E+04 -7.23369E+02 -1.56722E+04  8.84047E+03 -1.78123E+04  1.82927E+04 -5.35584E+03
  1.93129E+04  1.06227E+04  8.22146E+03  1.56196E+04 -3.94468E+03  1.91979E+04 -1.14229E+04  1.19297E+04
 -1.62329E+04 -3.22681E+02 -1.17111E+04 -1.04232E+04 -8.96992E+02 -1.59486E+04  9.20302E+03 -1.01253E+04
  9.98024E+03 -2.57279E+03  9.33123E+03  2.25919E+03  3.87380E+03  4.82542E+03  2.80377E+03  2.90549E+03
  2.76598E+03 -4.20040E+02  4.87303E+03  3.00288E+03  5.78630E+03  5.52165E+03  3.30380E+03  1.00336E+04
 -3.63361E+03  1.39063E+04 -1.20366E+04  1.35476E+04 -1.69419E+04  3.47835E+03 -1.88378E+04 -9.36223E+03
 -9.44448E+03 -1.89387E+04  2.01168E+03 -1.84203E+04  1.21775E+04 -1.34005E+04  1.56356E+04 -4.23998E+03
  1.16907E+04  7.17095E+03 -3.70839E+00  9.55683E+03 -2.61330E+03  7.20991E+03 -8.12132E+03 -8.61228E+02
 -3.85706E+03 -7.44719E+03  6.20525E+03 -8.58726E+03  7.80411E+03 -5.17002E+03  8.90460E+03  1.24630E+03
  5.21370E+03  2.91527E+03  1.37351E+03  2.21963E+03 -2.42393E+03  2.66939E+03  3.35870E+03 -1.63472E+03
  3.02371E+03 -1.29207E+03  6.22960E+03  3.26088E+03  4.80674E+03  9.90785E+03 -1.72716E+02  1.25258E+04
 -1.00977E+04  8.30952E+03 -1.20673E+04  1.50502E+03 -1.04218E+04 -4.40605E+03 -4.83869E+03 -7.43542E+03
  1.38273E+03 -7.39650E+03  3.84088E+03 -3.04665E+03  3.19030E+03  2.58525E+03 -1.85170E+03  5.90539E+03
 -7.27299E+03  4.13708E+03 -9.41554E+03 -3.29992E+03 -4.22197E+03 -9.74734E+03  1.12580E+03 -9.71669E+03
  5.58247E+03 -6.33134E+03  8.90280E+03  5.96830E+02  6.66017E+03  2.22676E+03  8.01002E+02  5.12551E+03
 -3.39931E+03  2.02065E+03 -3.02519E+03 -3.71803E+03  2.66006E+03 -9.02309E+03  1.07785E+04 -7.22454E+03
  1.31132E+04  3.61104E+02  1.10312E+04  6.32218E+03  4.01578E+03  1.19989E+04 -3.19725E+03  1.21397E+04
 -1.11205E+04  4.86467E+03 -1.18777E+04 -1.38496E+03 -5.37057E+03 -7.83724E+03  2.05283E+03 -9.03408E+03
  8.02835E+03 -3.70571E+03  7.49232E+03  4.30664E+03  1.33651E+03  7.40685E+03 -1.87003E+03  7.91540E+03
 -4.11050E+03  4.77613E+03 -2.56026E+03  1.62709E+03 -1.76461E+03  1.46618E+03 -1.85971E+03  4.27088E+03
 -2.32590E+03  4.19990E+03 -1.01889E+04  5.60933E+03 -1.48553E+04 -4.96233E+02 -1.35230E+04 -7.78238E+03
 -5.55532E+03 -1.78271E+04  3.46115E+03 -2.13989E+04  1.25306E+04 -1.30233E+04  1.99609E+04 -4.86509E+03
  1.79811E+04  4.01818E+03  1.08959E+04  1.17649E+04  3.55972E+02  1.49552E+04 -4.61264E+03  9.89681E+03
 -8.50106E+03  9.60931E+02 -3.56395E+03  2.42377E+02 -1.47179E+03 -4.62295E+02 -1.29380E+02 -9.25273E+01
 -3.17350E+03  9.14774E+02 -2.80175E+03  1.08079E+02 -1.04321E+03 -2.10912E+03  1.89761E+03 -6.27412E+03
  6.33948E+03 -4.96133E+03  8.96349E+03 -1.25346E+03  1.06771E+04  7.10220E+03  4.17286E+03  1.43649E+04
 -7.19413E+03  1.63281E+04 -1.40890E+04  1.01973E+04 -1.78630E+04 -2.84944E+03 -1.30636E+04 -9.20019E+03
 -5.27694E+03 -1.56243E+04  3.36048E+03 -1.40585E+04  7.32949E+03 -7.57178E+03  1.17001E+04  1.33581E+03
  4.17355E+03  3.97237E+03 -8.20849E+02  3.22106E+03 -9.57528E+02 -1.50030E+02 -3.95874E+02 -5.22858E+03
  4.31600E+03 -1.13267E+03  6.54308E+03  1.90973E+03  5.13031E+03  4.54230E+03 -1.89433E+03  5.94015E+03
 -6.33640E+03  6.15941E+03 -8.51542E+03 -1.10581E+02 -8.17185E+03 -6.81775E+03 -1.05329E+03 -1.28022E+04
  7.76352E+03 -8.71365E+03  1.06540E+04 -3.71264E+03  1.25805E+04  1.77537E+03  6.79480E+03  9.12745E+03
  4.09448E+01  8.82565E+03 -4.75793E+03  8.15050E+03 -7.62110E+03  3.52614E+03 -5.92652E+03  9.11410E+02
 -1.59022E+03 -7.77937E+02 -2.61506E+03  1.93027E+03 -5.02996E+03  3.06082E+03 -7.50194E+03 -1.30908E+03
 -9.64685E+03 -4.53339E+03 -1.49811E+03 -1.11217E+04  3.12371E+03 -9.36691E+03  9.13996E+03 -3.60900E+03
  9.66431E+03  2.94212E+03  7.01052E+03  7.92714E+03 -1.28243E+03  1.15780E+04 -6.84393E+03  7.02786E+03
