 $NMID ID='MM_0lb_SNR200_10hz_g50_55.RAW', FMTDAT='(8E13.5)'
 TRAMP=1., VOLUME=1. $END
  3.09668E+05 -3.44118E+02  3.35887E+05  2.50293E+05  8.49071E+04  3.38116E+05 -1.32601E+05  2.51878E+05
 -1.91649E+05  8.26549E+04 -1.12728E+05 -3.37792E+04  1.52992E+03 -4.97936E+04  5.21619E+04 -5.99612E+01
  3.67078E+04  5.11147E+04 -1.83269E+04  7.75002E+04 -6.09521E+04  6.53238E+04 -8.60983E+04  3.17466E+04
 -8.32158E+04 -1.19152E+04 -5.74101E+04 -5.18009E+04 -1.55528E+04 -7.07520E+04  2.80982E+04 -4.86044E+04
  4.22823E+04  3.85550E+03  1.65341E+04  4.89147E+04 -3.40785E+04  4.67389E+04 -6.94963E+04 -1.80245E+01
 -5.45162E+04 -5.77505E+04 -7.17458E+03 -7.75824E+04  3.48036E+04 -5.65398E+04  5.03085E+04 -1.79605E+04
  4.54804E+04  9.72533E+03  3.31856E+04  2.51943E+04  1.62630E+04  3.01765E+04 -6.81681E+03  2.76914E+04
 -2.21965E+04  1.16148E+04 -1.75297E+04 -5.96907E+03  6.81711E+03 -8.08854E+03  2.38723E+04  1.32912E+04
  7.45353E+03  3.86383E+04 -3.29280E+04  3.67525E+04 -6.64306E+04  1.25727E+03 -5.89982E+04 -4.32308E+04
 -1.36101E+04 -6.54117E+04  4.02524E+04 -4.69266E+04  5.95573E+04 -1.62341E+03  3.57953E+04  3.30461E+04
 -4.55495E+03  3.83902E+04 -3.05560E+04  1.76009E+04 -3.33820E+04 -2.45916E+03 -1.86719E+04 -1.29450E+04
 -1.03569E+04 -1.63851E+04 -1.73295E+03 -1.90367E+04  9.56757E+03 -2.22406E+04  1.47101E+04 -1.28274E+04
  1.15000E+04  5.74699E+03 -8.93956E+03  1.33437E+04 -2.26375E+04 -6.17881E+03 -9.22675E+03 -3.75524E+04
  2.48530E+04 -4.60564E+04  5.02371E+04 -2.06479E+04  4.80509E+04  2.07421E+04  1.71307E+04  4.81153E+04
 -1.76669E+04  3.54258E+04 -2.75584E+04  4.16914E+03 -1.07140E+04 -2.98756E+04  2.12928E+04 -3.55775E+04
  4.25795E+04 -1.08547E+04  3.92051E+04  2.55069E+04  1.94260E+04  5.01503E+04 -8.67704E+03  5.38286E+04
 -3.44765E+04  3.78162E+04 -4.60035E+04  1.06889E+04 -4.71495E+04 -1.88709E+04 -2.70488E+04 -4.10837E+04
  9.19425E+03 -4.16337E+04  3.34459E+04 -1.61647E+04  3.08473E+04  1.17171E+04  5.90141E+03  1.99649E+04
 -1.41517E+04  1.00684E+04 -1.14120E+04 -6.55852E+03  7.62962E+03 -1.17486E+04  1.81192E+04  6.59222E+03
  1.35334E+04  2.13867E+04 -4.84625E+03  2.53214E+04 -2.21530E+04  1.28653E+04 -3.11597E+04 -2.38083E+03
 -2.27412E+04 -1.81659E+04 -1.10311E+04 -2.34250E+04  6.01676E+03 -2.50697E+04  1.94829E+04 -2.22102E+04
  3.07808E+04 -1.40916E+04  3.73431E+04  5.12863E+03  2.77044E+04  2.36368E+04  2.41504E+03  3.82476E+04
 -1.98412E+04  3.26979E+04 -3.06090E+04  1.11622E+04 -2.29065E+04 -9.80077E+03 -5.39899E+03 -1.24257E+04
 -4.15379E+02 -1.21914E+03 -6.90040E+03  6.64949E+03 -1.98758E+04  6.31420E+03 -1.91979E+04 -9.36997E+03
 -1.12780E+04 -2.22878E+04  5.78989E+03 -2.66127E+04  1.76612E+04 -1.86817E+04  2.18177E+04 -1.69287E+03
  1.56258E+04  1.57394E+04 -1.73303E+03  2.19109E+04 -1.62392E+04  1.23785E+04 -2.14665E+04 -3.53713E+03
 -1.78227E+04 -1.97179E+04 -2.78832E+03 -2.76836E+04  1.19830E+04 -2.15143E+04  2.17415E+04 -1.35052E+04
  2.02209E+04  1.01092E+02  1.53887E+04  4.90745E+03  7.62515E+03 -3.88449E+01  1.20870E+04 -1.34205E+03
  2.16874E+04  3.15108E+03  2.57421E+04  1.55585E+04  1.66400E+04  3.47712E+04 -3.97460E+03  4.13606E+04
 -2.31599E+04  3.53815E+04 -3.96885E+04  1.83023E+04 -4.26688E+04 -2.98772E+03 -3.39728E+04 -2.40159E+04
 -1.27936E+04 -3.45187E+04  1.34133E+04 -2.98582E+04  2.69446E+04 -1.49316E+04  2.24851E+04  6.76343E+03
  8.18185E+03  1.70346E+04 -1.00163E+04  1.59408E+04 -1.90024E+04  2.51103E+03 -1.36567E+04 -1.21199E+04
 -5.61840E+02 -1.88338E+04  7.68852E+03 -1.36728E+04  1.20152E+04 -1.97747E+03  3.17319E+03  7.81754E+03
 -9.53186E+03  5.47779E+03 -7.44092E+03 -6.67616E+03 -1.70684E+03 -1.67365E+04  1.08027E+04 -1.92608E+04
  2.14206E+04 -9.75971E+03  2.36398E+04  3.11802E+03  2.01680E+04  1.64114E+04  1.00430E+04  2.59749E+04
 -5.79342E+03  2.99233E+04 -1.90550E+04  1.94039E+04 -2.19506E+04  3.72019E+03 -1.56806E+04 -4.85558E+03
 -7.19404E+03 -6.08786E+03 -7.47831E+02  1.26114E+03 -1.31835E+03  3.30799E+03 -6.57349E+03  3.97134E+03
 -1.16423E+04 -1.60151E+02 -1.33266E+04 -1.06535E+04 -7.16791E+03 -1.83193E+04  5.55533E+03 -1.33643E+04
  1.22081E+04 -5.56654E+03  7.60284E+03  2.52215E+03 -1.47580E+03  7.38532E+03 -6.16094E+03  1.23253E+03
 -6.82242E+03 -9.74611E+03 -4.41758E+02 -1.48387E+04  8.32514E+03 -1.48075E+04  1.79050E+04 -9.17502E+03
  2.12447E+04  1.71731E+03  1.63137E+04  1.30783E+04  3.81405E+03  1.93275E+04 -9.66429E+03  1.48835E+04
 -1.23941E+04  3.33200E+03 -6.66062E+03 -3.34995E+03  1.49984E+03 -4.88873E+03  7.42516E+03 -1.13097E+03
  7.14475E+03  5.74871E+03  2.31515E+03  1.14003E+04 -9.05144E+03  1.31470E+04 -1.45617E+04  1.18386E+03
 -9.80022E+03 -7.01220E+03  2.18799E+02 -1.30597E+04  6.84589E+03 -5.81830E+03  9.03502E+03  1.69236E+03
  1.32372E+03  9.78143E+03 -7.65141E+03  1.03933E+04 -1.25096E+04  4.66134E+03 -1.25869E+04 -4.29311E+03
 -7.85093E+03 -1.47244E+04  3.05143E+03 -1.78749E+04  1.49255E+04 -1.03283E+04  1.66681E+04  2.85174E+03
  9.36895E+03  1.18301E+04 -1.57939E+03  1.60832E+04 -1.04730E+04  8.27366E+03 -1.13164E+04 -1.70396E+03
 -9.78466E+03 -1.01615E+04 -1.99547E+03 -1.16964E+04  6.01864E+03 -8.99160E+03  7.46394E+03 -1.97641E+03
  3.33483E+03  2.12744E+03 -1.85142E+03  9.75940E+02 -5.56489E+01 -2.47789E+03  1.99171E+03 -6.65131E+03
  1.06027E+04 -3.81711E+03  1.52863E+04  1.86433E+03  1.38192E+04  8.91680E+03  8.49651E+03  1.96504E+04
 -5.97622E+03  1.95097E+04 -1.73318E+04  1.65699E+04 -2.28554E+04  1.52980E+03 -1.94250E+04 -7.34949E+03
 -9.63394E+03 -1.60309E+04 -1.35031E+03 -1.22623E+04  5.23013E+03 -8.19315E+03  3.72856E+03 -4.91666E+03
  3.68369E+03 -1.35528E+03  4.22434E+03 -2.71853E+03  4.62536E+03 -2.38398E+03  7.02361E+03 -1.44289E+03
  1.07341E+04  3.68665E+03  4.19735E+03  7.62572E+03 -2.92533E+03  9.64417E+03 -1.08330E+04  7.84619E+03
 -1.33803E+04 -7.63785E+02 -7.41074E+03 -8.49491E+03 -7.20388E+02 -1.41117E+04  8.32269E+03 -1.46317E+04
  1.53467E+04 -8.76818E+03  1.84687E+04  1.57860E+02  1.28150E+04  1.21985E+04  1.68989E+03  1.65339E+04
 -6.34966E+03  1.28212E+04 -9.54802E+03  3.98992E+03 -6.32672E+03 -1.74047E+03 -2.48262E+03 -1.96339E+03
 -1.52079E+03 -1.04616E+03 -1.56694E+03  3.29573E+03 -5.39355E+03  1.12550E+03 -9.57544E+03 -2.27090E+03
 -6.33001E+03 -9.83230E+03  9.36071E+02 -1.45671E+04  8.83430E+03 -1.06395E+04  1.18164E+04 -1.91541E+03
  1.36623E+04  6.18377E+03  5.89803E+03  1.05734E+04 -5.32735E+03  1.24085E+04 -1.03172E+04  7.67135E+03
 -1.33194E+04  1.43406E+03 -9.85633E+03 -7.31547E+03 -2.50772E+03 -1.08945E+04  6.08706E+03 -7.07767E+03
  7.65868E+03 -2.28899E+03  4.72089E+03  2.02276E+03  1.58472E+03  4.82089E+03  2.46902E+03  2.50766E+03
  3.05829E+03  1.15952E+03  3.97581E+03  2.01709E+03  2.11038E+03  5.38504E+03  3.19400E+03  7.98729E+03
 -1.78388E+03  1.06765E+04 -9.88718E+03  1.09841E+04 -1.27001E+04  1.89666E+03 -1.48410E+04 -5.94559E+03
 -5.08928E+03 -1.23335E+04  1.74557E+03 -1.54265E+04  7.75905E+03 -8.71109E+03  1.10384E+04 -2.00744E+03
  8.73153E+03  4.02107E+03  1.63080E+03  8.40041E+03 -4.85899E+03  4.95531E+03 -6.01203E+03 -1.13714E+03
 -3.24691E+03 -5.34539E+03  4.05961E+03 -5.98080E+03  4.99372E+03 -2.54613E+03  5.76931E+03  9.65488E+02
  3.68171E+03  2.27384E+03  2.91456E+02  2.19596E+03 -1.32075E+03  1.42067E+03  4.41412E+02 -2.38888E+02
  2.47837E+03 -7.55392E+02  5.54709E+03  1.75115E+03  2.21237E+03  6.64532E+03 -2.83132E+02  7.13638E+03
 -6.48083E+03  6.40137E+03 -9.56751E+03  1.25817E+03 -6.84952E+03 -3.78821E+03 -2.18304E+03 -5.21431E+03
  2.82975E+02 -6.42183E+03  3.70494E+03 -3.37989E+02  2.70311E+03  1.94600E+03 -2.64397E+03  4.99184E+03
 -5.44122E+03  2.09409E+03 -5.52277E+03 -3.12612E+03 -5.02428E+03 -6.16161E+03  8.06890E+02 -6.07043E+03
  4.31392E+03 -5.58659E+03  4.84658E+03 -2.80920E+03  4.32418E+03  3.14891E+03  6.76583E+02  4.86849E+03
 -2.79478E+03  8.13006E+02 -3.35376E+03 -2.48899E+03  1.18948E+03 -5.06609E+03  6.93255E+03 -4.61878E+03
  7.78911E+03  1.41387E+03  8.58317E+03  3.96178E+03  3.21669E+03  9.48787E+03 -3.63049E+03  7.04703E+03
 -7.27464E+03  4.56459E+03 -7.90583E+03 -9.02007E+02 -4.87874E+03 -4.96712E+03  4.30680E+02 -4.34334E+03
  5.09995E+03 -2.30248E+03  5.14563E+03  1.81750E+03  1.30786E+03  4.84876E+03 -4.48156E+02  4.16968E+03
 -5.86344E+02  2.70392E+03 -2.67352E+03 -8.64470E+02 -1.25199E+03 -6.74170E+02 -2.55703E+03  8.98720E+02
 -1.42809E+03  2.32057E+03 -6.57622E+03  3.55730E+03 -8.54652E+03  2.15654E+02 -9.82559E+03 -6.53407E+03
 -4.74287E+03 -1.11382E+04  9.87547E+02 -1.28898E+04  9.09590E+03 -1.12282E+04  1.20098E+04 -3.17860E+03
  1.08309E+04  1.70045E+03  5.03757E+03  8.65106E+03 -2.91884E+01  8.84330E+03 -3.87918E+03  5.96491E+03
 -3.89168E+03  3.49206E+03 -4.63844E+03 -1.60814E+03 -7.26758E+02 -1.54735E+02 -1.37724E+03  5.59360E+02
 -6.58101E+02 -1.93604E+03 -1.84810E+03 -1.13347E+03 -1.24671E+03 -8.80463E+02  4.69549E+02 -3.98966E+03
  3.86717E+03 -4.28779E+03  5.81952E+03 -5.41222E+02  5.49644E+03  4.71337E+03  5.48307E+02  8.35576E+03
 -4.09786E+03  8.53982E+03 -1.01920E+04  6.94902E+03 -1.05332E+04 -3.79873E+02 -9.99510E+03 -7.25186E+03
 -3.34403E+03 -8.17787E+03  2.62510E+03 -6.94599E+03  6.33559E+03 -4.08915E+03  6.23631E+03 -4.42480E+01
  4.50024E+03  3.67911E+03 -1.58260E+03  1.67295E+03 -3.41020E+03  2.49201E+02  2.39050E+02 -1.98935E+03
  2.92504E+03 -1.30407E+03  3.22712E+03  1.56379E+03  1.73647E+03  3.21131E+03  7.95772E+02  5.88182E+03
 -5.12724E+03  3.60536E+03 -6.09331E+03  7.20871E+02 -4.21921E+03 -3.87442E+03 -2.41582E+03 -7.62566E+03
  5.37979E+03 -7.01193E+03  7.56835E+03 -2.39069E+03  6.42670E+03  1.66890E+03  3.91470E+03  5.74855E+03
  9.17398E+02  6.33814E+03 -1.60249E+03  5.36837E+03 -3.74424E+03  2.67147E+03 -2.62128E+03  2.75410E+02
 -7.49803E+02 -1.29285E+03 -2.42999E+03  6.97265E+02 -4.98394E+03  9.13618E+02 -3.91301E+03 -1.56489E+03
 -4.24715E+03 -1.49422E+03 -1.69062E+03 -5.65429E+03  3.30318E+03 -6.42552E+03  5.66890E+03 -1.99295E+03
  5.54262E+03  3.94197E+02  3.15494E+03  4.40424E+03 -5.24430E+02  6.93486E+03 -4.37846E+03  4.01074E+03
