 $NMID ID='MM_0lb_SNR200_12hz_g50_13.RAW', FMTDAT='(8E13.5)'
 TRAMP=1., VOLUME=1. $END
  3.09988E+05 -3.46938E+02  3.36540E+05  2.51592E+05  8.40631E+04  3.37628E+05 -1.32916E+05  2.51891E+05
 -1.89420E+05  8.32958E+04 -1.10939E+05 -3.31801E+04 -1.56296E+02 -5.20200E+04  5.31931E+04 -2.08294E+02
  3.50867E+04  5.36583E+04 -1.72596E+04  7.64260E+04 -6.17699E+04  6.43387E+04 -8.45959E+04  3.26187E+04
 -8.33912E+04 -1.16731E+04 -5.78368E+04 -5.33232E+04 -1.46241E+04 -6.95698E+04  2.77440E+04 -4.57408E+04
  4.07163E+04  2.64399E+03  1.61605E+04  4.76643E+04 -3.45742E+04  4.81352E+04 -6.73587E+04 -1.81888E+02
 -5.38724E+04 -5.69728E+04 -8.56218E+03 -7.71341E+04  3.42013E+04 -5.50000E+04  4.79161E+04 -1.81355E+04
  4.50520E+04  1.14205E+04  3.28110E+04  2.60445E+04  1.46064E+04  2.91327E+04 -5.76877E+03  2.70377E+04
 -2.16424E+04  1.16856E+04 -1.91698E+04 -5.81195E+03  4.91558E+03 -8.29393E+03  2.24025E+04  1.32444E+04
  7.19761E+03  3.62552E+04 -3.28098E+04  3.51445E+04 -6.42670E+04  3.06764E+03 -5.67631E+04 -4.37297E+04
 -1.38737E+04 -6.47978E+04  4.06564E+04 -4.59722E+04  5.93378E+04 -3.12098E+03  3.53045E+04  3.28610E+04
 -5.98301E+03  3.78751E+04 -2.99186E+04  1.57866E+04 -3.23728E+04 -3.51255E+03 -1.74398E+04 -1.05677E+04
 -9.38509E+03 -1.36553E+04  1.00213E+03 -1.82062E+04  7.43189E+03 -2.34670E+04  1.57639E+04 -1.30111E+04
  1.16198E+04  3.94890E+03 -1.05619E+04  1.05034E+04 -2.08443E+04 -5.92465E+03 -8.73350E+03 -3.50241E+04
  2.40678E+04 -4.44123E+04  4.91244E+04 -1.97655E+04  4.65975E+04  1.98240E+04  1.63802E+04  4.57159E+04
 -1.62307E+04  3.44431E+04 -2.50549E+04  2.78376E+03 -1.13740E+04 -2.92157E+04  2.13459E+04 -3.45947E+04
  4.27761E+04 -1.00201E+04  3.78353E+04  2.40865E+04  2.07142E+04  4.89686E+04 -8.17792E+03  5.21707E+04
 -3.42621E+04  3.56648E+04 -4.53641E+04  1.05689E+04 -4.41664E+04 -1.75066E+04 -2.43508E+04 -3.87444E+04
  6.65078E+03 -3.97539E+04  3.32067E+04 -1.60322E+04  3.01863E+04  1.15999E+04  5.64105E+03  1.97239E+04
 -1.36374E+04  8.86634E+03 -1.22575E+04 -8.76256E+03  4.85885E+03 -1.09538E+04  1.66190E+04  6.08732E+03
  1.43259E+04  2.14813E+04 -4.24263E+03  2.65336E+04 -2.25219E+04  1.13905E+04 -2.95195E+04 -5.06698E+03
 -2.28870E+04 -1.80111E+04 -8.81901E+03 -2.25903E+04  4.13849E+03 -2.14895E+04  1.75653E+04 -1.90499E+04
  2.86443E+04 -1.35346E+04  3.39347E+04  3.82261E+03  2.53770E+04  2.19620E+04  4.60271E+03  3.71601E+04
 -1.86052E+04  3.15012E+04 -3.01118E+04  1.15440E+04 -2.08452E+04 -1.04540E+04 -3.49936E+03 -1.36033E+04
  7.50705E+02 -1.34644E+03 -4.66354E+03  7.29893E+03 -1.70093E+04  5.58169E+03 -1.80341E+04 -7.39726E+03
 -1.12466E+04 -2.14677E+04  5.77491E+03 -2.40703E+04  1.60164E+04 -1.82387E+04  1.94273E+04 -4.96681E+02
  1.28268E+04  1.48126E+04 -9.85585E+02  1.98375E+04 -1.45588E+04  1.17133E+04 -2.02101E+04 -2.34259E+03
 -1.46829E+04 -1.89607E+04 -1.35495E+03 -2.53665E+04  1.12018E+04 -1.97034E+04  2.09855E+04 -1.18010E+04
  1.95242E+04  3.05495E+02  1.53363E+04  4.76218E+03  7.57471E+03  5.18748E+02  1.12788E+04 -2.12558E+03
  2.01703E+04  2.80176E+03  2.14880E+04  1.59828E+04  1.41187E+04  3.32784E+04 -2.97904E+03  3.86646E+04
 -2.16782E+04  3.17010E+04 -3.49004E+04  1.60931E+04 -3.80020E+04 -2.21585E+03 -3.14335E+04 -2.20869E+04
 -1.18931E+04 -3.20936E+04  1.06790E+04 -2.68636E+04  2.35639E+04 -1.38132E+04  2.05540E+04  5.89354E+03
  7.88744E+03  1.62293E+04 -9.18252E+03  1.38258E+04 -1.76564E+04  3.49084E+03 -1.41037E+04 -1.13558E+04
  8.21932E+01 -1.68230E+04  9.46037E+03 -1.16970E+04  1.17494E+04 -1.10688E+03  2.69134E+03  7.89838E+03
 -7.03137E+03  3.25285E+03 -7.49755E+03 -7.49701E+03 -1.83443E+03 -1.76331E+04  1.00382E+04 -1.59237E+04
  2.12126E+04 -8.32564E+03  2.00839E+04  2.62403E+03  1.89455E+04  1.65175E+04  8.35468E+03  2.30632E+04
 -4.35568E+03  2.53990E+04 -1.70525E+04  1.40416E+04 -1.86595E+04  4.00830E+03 -1.19399E+04 -4.56901E+03
 -4.66821E+03 -6.25499E+03 -1.65738E+03  2.09892E+03 -2.43492E+03  2.10253E+03 -6.46069E+03  5.05088E+03
 -1.08792E+04 -1.86746E+03 -1.34416E+04 -1.05584E+04 -7.28773E+03 -1.72991E+04  4.31512E+03 -1.44619E+04
  1.02037E+04 -5.91674E+03  8.06558E+03  3.42655E+03  5.30480E+02  5.84419E+03 -4.94420E+03  4.61100E+02
 -7.13725E+03 -9.07481E+03 -4.89789E+02 -1.24984E+04  6.65214E+03 -1.32573E+04  1.59611E+04 -6.41791E+03
  1.93568E+04  1.57416E+03  1.37862E+04  1.14417E+04  3.67555E+03  1.62005E+04 -8.40463E+03  1.17376E+04
 -1.11632E+04  3.12360E+03 -5.45979E+03 -2.55874E+03  1.94470E+03 -2.35154E+03  6.65768E+03 -2.35506E+03
  5.43164E+03  4.71597E+03  1.41268E+03  9.31360E+03 -7.70610E+03  8.95993E+03 -1.20668E+04  2.97971E+03
 -8.33171E+03 -7.00267E+03  1.24659E+03 -1.14905E+04  8.32650E+03 -5.39114E+03  6.97638E+03  3.60686E+03
  5.21355E+01  6.84585E+03 -6.24769E+03  9.23501E+03 -9.77477E+03  4.69402E+03 -9.65405E+03 -3.54698E+03
 -5.98055E+03 -1.15257E+04  3.61776E+03 -1.39439E+04  1.27870E+04 -8.96178E+03  1.38312E+04  2.09099E+03
  7.92990E+03  9.55109E+03 -8.57125E+02  1.28324E+04 -1.00203E+04  7.04678E+03 -1.00365E+04 -7.20013E+02
 -8.28384E+03 -9.21227E+03 -1.99751E+03 -1.12839E+04  4.33188E+03 -8.62099E+03  5.61208E+03 -3.69110E+03
  2.44314E+03  1.15519E+03 -8.39703E+02  2.41065E+03  1.31242E+00 -2.18289E+03  2.13014E+03 -5.58997E+03
  8.77310E+03 -4.18575E+03  1.20575E+04  1.79419E+03  1.18677E+04  8.34273E+03  8.32778E+03  1.47281E+04
 -4.67421E+03  1.87930E+04 -1.39857E+04  1.30709E+04 -1.92588E+04  1.94819E+03 -1.54393E+04 -5.38166E+03
 -9.26000E+03 -1.35013E+04  1.55092E+02 -1.02718E+04  3.32153E+03 -5.48763E+03  4.77189E+03 -3.04532E+03
  3.14753E+03 -2.85972E+03  3.46251E+03 -3.54917E+03  5.24075E+03 -2.58627E+03  4.81137E+03 -1.59200E+02
  8.27305E+03  9.53278E+02  3.22976E+03  7.34315E+03 -1.83727E+03  7.52494E+03 -7.96856E+03  6.03261E+03
 -9.95846E+03 -1.87433E+02 -6.58476E+03 -6.92195E+03  5.79071E+02 -1.18979E+04  7.11957E+03 -1.21712E+04
  1.42638E+04 -6.30306E+03  1.40253E+04  2.47710E+03  1.03101E+04  1.19559E+04  3.04672E+03  1.32391E+04
 -5.17430E+03  1.08623E+04 -7.87117E+03  4.62472E+03 -5.24577E+03 -1.20407E+03 -2.64535E+03 -2.10410E+03
 -1.16879E+03  6.95050E+02 -9.84352E+02  2.18014E+03 -5.29085E+03  3.06033E+03 -6.96568E+03 -9.82849E+02
 -4.78928E+03 -7.26234E+03  3.20723E+02 -1.04486E+04  5.30800E+03 -1.06373E+04  9.49303E+03 -3.47634E+03
  1.10701E+04  6.49252E+03  5.96501E+03  8.85743E+03 -2.21537E+03  1.05689E+04 -8.43279E+03  6.31413E+03
 -9.17115E+03  2.48439E+02 -6.93949E+03 -4.35310E+03  3.29457E+02 -8.58734E+03  5.16623E+03 -5.72388E+03
  6.17405E+03 -1.81792E+03  3.38835E+03  2.26498E+03  7.77494E+02  3.03663E+03  2.19741E+03  1.67768E+03
  2.43861E+03  2.00348E+03  2.77873E+03  1.27607E+03  3.27942E+03  3.57672E+03  1.57649E+03  5.97596E+03
 -2.32351E+03  8.24351E+03 -7.48876E+03  8.56864E+03 -1.05037E+04  2.30410E+03 -1.17923E+04 -5.11002E+03
 -5.30616E+03 -9.70735E+03  2.20177E+03 -1.21690E+04  4.73129E+03 -7.11523E+03  7.19975E+03 -1.32234E+03
  6.70264E+03  4.22916E+03  3.70619E+02  6.89685E+03 -3.04773E+03  3.43802E+03 -4.61709E+03 -4.18025E+02
 -1.74682E+03 -4.54148E+03  1.66976E+03 -2.09767E+03  4.37990E+03 -3.92752E+03  2.68729E+03  1.02821E+03
  2.43754E+03  2.56172E+03  1.86172E+03  5.69287E+02 -7.76202E+02  2.06775E+03  1.59681E+03 -1.10569E+03
  1.30959E+03 -1.49945E+03  3.38148E+03  1.93169E+03  2.03449E+03  6.08765E+03 -6.19705E+02  7.28175E+03
 -5.24665E+03  4.07718E+03 -5.70762E+03  1.42118E+03 -6.30093E+03 -2.73019E+03 -2.56619E+03 -3.33437E+03
  9.94605E+02 -4.22638E+03  1.56170E+03 -1.11399E+03  1.55974E+03  3.83234E+03 -1.51868E+03  2.14787E+03
 -3.20197E+03  1.77637E+03 -4.22919E+03 -3.07082E+03 -3.19115E+03 -6.35996E+03  1.26043E+03 -4.88762E+03
  4.01404E+03 -3.30804E+03  4.00786E+03 -2.00718E+02  3.11092E+03  1.93480E+03  4.73859E+02  3.67362E+03
 -2.02401E+03 -7.01053E+02 -2.09280E+03 -1.69770E+03  8.24674E+02 -4.77549E+03  5.27412E+03 -2.32410E+03
  5.83603E+03  2.08219E+03  5.52296E+03  3.51326E+03  1.62613E+03  5.45148E+03 -3.56425E+03  6.39452E+03
 -4.79466E+03  2.62711E+03 -3.45093E+03 -5.82550E+01 -2.18550E+03 -4.22296E+03  9.80672E+02 -3.76971E+03
  3.82323E+03 -2.59634E+03  1.78441E+03  1.23450E+03  5.88226E+02  4.98937E+03 -9.27596E+02  3.32210E+03
 -9.68958E+02  2.68166E+03 -2.78359E+02 -6.68225E+02 -1.06901E+02  5.63538E+02 -1.51357E+03  9.21584E+02
 -1.24688E+03  3.65871E+03 -4.43302E+03  1.51804E+03 -6.41356E+03 -3.98990E+02 -6.69880E+03 -3.57680E+03
 -3.81818E+03 -7.36131E+03  2.16473E+03 -1.01959E+04  5.88536E+03 -7.04809E+03  8.15901E+03 -2.72520E+03
  8.21589E+03  1.84326E+03  3.41407E+03  5.25056E+03  1.57040E+03  6.35378E+03 -2.81850E+03  3.55420E+03
 -3.82541E+03  5.46405E+02 -1.98124E+03 -8.45516E+02 -4.67013E+02 -1.69101E+03  6.69355E+02 -1.39332E+02
 -2.34098E+03  2.15158E+02 -4.81457E+02 -7.37240E+02 -9.19028E+02 -9.60625E+02  1.53487E+02 -1.51868E+03
  1.66458E+03 -1.78927E+03  4.30711E+03 -6.35349E+02  3.92698E+03  2.54140E+03  1.53512E+02  6.68517E+03
 -3.94277E+03  7.71319E+03 -6.84380E+03  3.57015E+03 -8.38032E+03  5.21422E+02 -6.04355E+03 -4.81107E+03
 -2.52043E+03 -6.01667E+03  1.76672E+03 -4.96684E+03  5.00511E+03 -2.42845E+03  2.40276E+03 -1.32558E+03
  2.84110E+03  1.09476E+03 -5.58529E+02  8.64672E+02 -4.12137E+01 -6.48035E+02  4.47605E+02 -1.64628E+03
  7.96588E+02 -2.18085E+03  2.17954E+03  1.77910E+03  2.17138E+03  3.41062E+02  1.43110E+03  2.90012E+03
 -1.93338E+03  2.61248E+03 -2.90586E+03  1.13356E+02 -4.38467E+03 -3.44537E+03 -1.50337E+02 -4.48336E+03
  3.24992E+03 -2.90271E+03  4.28289E+03 -9.47611E+02  4.55673E+03  1.45507E+03  3.28876E+03  3.37753E+03
  1.22399E+03  2.29097E+03 -2.39303E+03  1.91470E+03 -3.34154E+03  2.28135E+03 -2.50163E+03  1.13349E+03
 -1.88650E+03 -8.06626E+02 -2.52934E+03  7.94865E+02 -1.82898E+03  2.18007E+03 -4.21165E+03  7.83402E+02
 -4.14559E+03 -1.91030E+03 -1.55320E+03 -3.44007E+03  1.91164E+03 -4.03341E+03  4.03827E+03 -1.44712E+03
  3.30246E+03 -4.48130E+01  1.37611E+03  1.40611E+03 -6.48116E+02  4.80901E+03 -3.63502E+03  3.04728E+03
