 $NMID ID='MM_0lb_SNR200_14hz_g50_97.RAW', FMTDAT='(8E13.5)'
 TRAMP=1., VOLUME=1. $END
  3.10278E+05  7.58166E+02  3.36866E+05  2.51464E+05  8.53221E+04  3.38285E+05 -1.32456E+05  2.50686E+05
 -1.88978E+05  8.38905E+04 -1.10609E+05 -3.19912E+04  8.47797E+02 -5.13746E+04  5.44251E+04  8.12053E+02
  3.54465E+04  5.30074E+04 -1.65168E+04  7.54033E+04 -5.95361E+04  6.29514E+04 -8.46701E+04  3.18099E+04
 -8.06239E+04 -1.11263E+04 -5.80095E+04 -5.14991E+04 -1.45192E+04 -6.90652E+04  2.78344E+04 -4.50778E+04
  4.05181E+04  4.02205E+03  1.66767E+04  4.64690E+04 -3.45769E+04  4.75675E+04 -6.65855E+04  3.64044E+02
 -5.27178E+04 -5.86078E+04 -7.34461E+03 -7.60379E+04  3.44304E+04 -5.50699E+04  4.91053E+04 -1.71033E+04
  4.37774E+04  1.13065E+04  3.28276E+04  2.54178E+04  1.56452E+04  2.94911E+04 -5.07379E+03  2.73266E+04
 -2.21982E+04  1.22425E+04 -1.82402E+04 -5.72529E+03  6.57714E+03 -7.20491E+03  2.13760E+04  1.28962E+04
  7.09445E+03  3.52612E+04 -3.22118E+04  3.54128E+04 -6.35466E+04  3.00189E+03 -5.67298E+04 -4.35335E+04
 -1.25581E+04 -6.34236E+04  3.99597E+04 -4.54572E+04  5.80422E+04 -3.09867E+03  3.45197E+04  3.24657E+04
 -4.97200E+03  3.60328E+04 -3.16262E+04  1.64520E+04 -3.12381E+04 -4.88244E+03 -1.76922E+04 -1.08017E+04
 -9.11800E+03 -1.31402E+04 -8.84055E+02 -1.74733E+04  7.27159E+03 -2.24296E+04  1.43070E+04 -1.25798E+04
  1.11956E+04  5.97550E+03 -9.07491E+03  1.39424E+04 -2.10744E+04 -4.05688E+03 -6.83248E+03 -3.43358E+04
  2.33317E+04 -4.28429E+04  4.87672E+04 -1.98437E+04  4.61870E+04  2.03430E+04  1.59120E+04  4.50846E+04
 -1.61159E+04  3.35234E+04 -2.59449E+04  7.45775E+02 -1.01355E+04 -2.59235E+04  2.11599E+04 -3.36017E+04
  4.20761E+04 -9.61196E+03  3.58723E+04  2.30433E+04  1.90137E+04  4.63043E+04 -6.32106E+03  5.16894E+04
 -3.17004E+04  3.37505E+04 -4.24899E+04  8.83776E+03 -4.22717E+04 -1.72052E+04 -2.25539E+04 -3.85975E+04
  8.14797E+03 -3.83314E+04  3.05762E+04 -1.43962E+04  2.97920E+04  9.96180E+03  4.66512E+03  1.95112E+04
 -1.31200E+04  8.84250E+03 -1.04962E+04 -7.35046E+03  4.98653E+03 -1.05921E+04  1.73436E+04  7.36084E+03
  1.36666E+04  2.20665E+04 -7.49050E+03  2.56042E+04 -2.19070E+04  1.08532E+04 -2.78070E+04 -5.25691E+03
 -2.11507E+04 -1.73833E+04 -8.69466E+03 -2.06165E+04  4.85102E+03 -2.06910E+04  1.55821E+04 -1.77690E+04
  2.73600E+04 -1.29439E+04  3.16980E+04  2.50122E+03  2.41602E+04  2.03168E+04  4.03609E+03  3.57130E+04
 -1.72534E+04  3.05107E+04 -2.85696E+04  9.86166E+03 -1.98891E+04 -9.56313E+03 -3.87673E+03 -1.38231E+04
  2.42974E+03 -1.96423E+03 -6.17137E+03  7.93273E+03 -1.69496E+04  4.25562E+03 -1.73493E+04 -7.20438E+03
 -9.01927E+03 -1.92026E+04  5.19111E+03 -2.25249E+04  1.53937E+04 -1.72520E+04  1.90328E+04 -2.21376E+03
  1.10014E+04  1.25034E+04 -1.30356E+03  1.93904E+04 -1.28571E+04  1.04991E+04 -1.95573E+04 -4.88458E+03
 -1.44353E+04 -1.73250E+04 -2.26377E+03 -2.33533E+04  1.01457E+04 -1.82946E+04  1.94761E+04 -9.74999E+03
  1.86524E+04 -1.78813E+02  1.34032E+04  4.90672E+03  6.52820E+03  1.59245E+03  9.39207E+03 -1.16341E+03
  1.83083E+04  3.13570E+03  1.97943E+04  1.53554E+04  1.31327E+04  2.99381E+04 -3.88293E+03  3.44866E+04
 -1.96205E+04  2.84519E+04 -3.10296E+04  1.37491E+04 -3.34150E+04 -2.18115E+03 -2.75957E+04 -1.90465E+04
 -1.14774E+04 -2.79183E+04  9.69393E+03 -2.48195E+04  2.22325E+04 -1.27801E+04  1.88899E+04  5.49301E+03
  7.47946E+03  1.43071E+04 -8.04848E+03  1.29996E+04 -1.64220E+04  2.97495E+03 -1.18738E+04 -1.04295E+04
  2.25797E+02 -1.51130E+04  7.68051E+03 -1.08769E+04  9.68794E+03 -2.55403E+02  2.34457E+03  6.85663E+03
 -6.88272E+03  2.84978E+03 -5.48861E+03 -6.10794E+03  2.54499E+02 -1.36624E+04  9.32924E+03 -1.43094E+04
  1.82692E+04 -6.28498E+03  1.91492E+04  2.61044E+03  1.71088E+04  1.40247E+04  7.41687E+03  2.11005E+04
 -2.61509E+03  2.08865E+04 -1.41678E+04  1.40288E+04 -1.55527E+04  3.31149E+03 -1.22476E+04 -4.18736E+03
 -5.74048E+03 -5.36298E+03 -8.27866E+02  1.56602E+03 -1.71018E+03  2.03531E+03 -5.19449E+03  3.94556E+03
 -1.02604E+04  1.39604E+03 -1.01643E+04 -8.99653E+03 -4.90368E+03 -1.35165E+04  4.48852E+03 -1.17490E+04
  1.02809E+04 -5.31100E+03  5.40327E+03  4.07057E+03  1.09505E+03  4.72135E+03 -4.50031E+03 -1.08836E+03
 -5.84373E+03 -7.23043E+03 -1.71950E+03 -1.11628E+04  5.82298E+03 -1.19924E+04  1.30070E+04 -5.00146E+03
  1.64512E+04  2.26439E+03  1.21607E+04  8.95187E+03  1.24460E+03  1.26836E+04 -6.85642E+03  1.15645E+04
 -9.15692E+03  2.71787E+03 -3.90094E+03 -1.85321E+03  8.78131E+02 -3.16338E+03  6.29889E+03 -4.74301E+02
  5.53889E+03  4.70758E+03  1.92897E+02  7.02598E+03 -6.71160E+03  9.41917E+03 -1.07402E+04  1.77286E+03
 -6.68368E+03 -5.03998E+03 -7.14941E+02 -9.63159E+03  5.29786E+03 -3.93734E+03  6.45829E+03  2.91231E+03
  8.80056E+02  6.53518E+03 -6.38846E+03  7.62819E+03 -8.62572E+03  3.97295E+03 -7.89447E+03 -1.71218E+03
 -3.63950E+03 -9.75754E+03  2.60841E+03 -1.17259E+04  8.23885E+03 -7.22502E+03  9.62701E+03  1.56803E+03
  7.26973E+03  8.61115E+03 -1.28337E+01  1.04041E+04 -6.61591E+03  5.19842E+03 -7.32995E+03 -2.13557E+01
 -6.57396E+03 -7.21586E+03 -7.07716E+02 -6.94327E+03  3.83063E+03 -6.38079E+03  4.95532E+03 -3.94454E+03
  4.21456E+03 -1.11666E+03 -3.27188E+01  1.60053E+03 -5.46727E+02 -1.96647E+03  1.77712E+03 -4.47426E+03
  6.07351E+03 -2.43815E+03  8.77524E+03  1.26330E+03  9.15655E+03  7.40975E+03  6.91320E+03  1.26634E+04
 -3.55748E+03  1.39482E+04 -1.35986E+04  1.11656E+04 -1.64728E+04  1.41215E+03 -1.24212E+04 -5.46435E+03
 -6.82355E+03 -1.02783E+04 -1.10316E+02 -8.85664E+03  3.00730E+03 -3.91412E+03  2.36209E+03 -3.20843E+03
  3.23285E+03 -2.42020E+03  1.76894E+03 -2.39159E+03  4.31829E+03 -1.59113E+03  5.52404E+03 -5.24786E+01
  7.24340E+03  3.58222E+03  2.99581E+03  6.81922E+03 -8.92927E+02  5.21225E+03 -7.52596E+03  4.78251E+03
 -9.43215E+03 -6.46060E+02 -4.82142E+03 -4.86590E+03  1.15757E+03 -8.92483E+03  5.35883E+03 -9.35200E+03
  8.57234E+03 -6.61768E+03  1.08381E+04  1.63441E+03  8.37315E+03  8.51422E+03  2.50892E+03  1.00697E+04
 -3.70981E+03  9.74535E+03 -5.37697E+03  3.19260E+03 -3.51008E+03 -6.00034E+02 -2.20874E+03 -7.80358E+02
 -1.79708E+03  9.44033E+02 -1.48570E+03  9.06473E+02 -4.51281E+03  1.21491E+03 -7.58373E+03 -5.91542E+02
 -3.82393E+03 -5.19219E+03  9.79118E+01 -8.86463E+03  5.86829E+03 -5.42210E+03  7.60946E+03 -3.10589E+03
  7.53208E+03  4.16157E+03  3.01048E+03  7.31301E+03 -2.15551E+03  8.26161E+03 -6.14771E+03  5.53929E+03
 -6.74952E+03 -1.08011E+02 -4.24782E+03 -4.75652E+03  1.72461E+02 -7.27173E+03  2.41891E+03 -4.83035E+03
  4.90860E+03 -1.11611E+03  2.12781E+03  1.22719E+03  1.01967E+03  3.07645E+03  9.74584E+02  1.16617E+03
  2.19796E+03  6.71194E+02  3.13932E+03  1.21144E+03  2.29698E+03  3.50886E+03  1.93494E+03  3.98287E+03
 -2.01950E+03  5.72959E+03 -5.83239E+03  7.87520E+03 -7.87771E+03  4.41165E+02 -8.65475E+03 -3.92570E+03
 -4.03797E+03 -7.70578E+03  1.16351E+03 -8.78003E+03  4.76958E+03 -4.94986E+03  5.09014E+03 -4.33902E+02
  5.74777E+03  2.90041E+03  9.19302E+02  4.40254E+03 -1.29373E+03  2.74572E+03 -3.29548E+03 -6.21730E+02
 -1.44036E+03 -3.07346E+03  1.71370E+03 -4.06430E+03  3.34676E+03 -1.80313E+03  2.51126E+03 -5.85026E+02
  4.81716E+02  1.06129E+03  1.01520E+02 -4.06274E+02 -8.37440E+02  1.50729E+03  1.99207E+03  4.63623E+02
 -3.47049E+02 -6.36486E+02  1.78735E+03  1.87081E+01  1.16471E+03  3.55162E+03 -1.63753E+03  5.36405E+03
 -4.62134E+03  3.53253E+03 -3.73432E+03  1.91979E+03 -3.41241E+03 -1.16118E+03 -7.89550E+02 -2.22134E+03
  4.12441E+02 -2.90019E+03  2.77196E+03 -2.17191E+03  1.70175E+03  2.11562E+03 -7.87490E+02  2.83353E+03
 -3.18702E+03  2.32329E+03 -2.56501E+03 -1.68578E+03 -2.16879E+03 -4.15890E+03  9.78518E+02 -3.47592E+03
  1.86221E+03 -2.43429E+03  2.53942E+03 -1.04945E+03  3.42771E+03  7.96516E+02  4.23113E+02  2.28842E+03
 -2.29108E+02  1.34953E+03 -2.69686E+03 -6.73712E+02  1.10157E+03 -2.25926E+03  3.71041E+03 -3.44456E+03
  3.37704E+03  1.49914E+03  5.32798E+03  1.62944E+03  2.17904E+03  4.51045E+03 -1.05506E+02  3.77533E+03
 -2.96833E+03  1.24077E+03 -3.08336E+03 -8.94123E+02 -2.04421E+03 -3.60086E+03 -1.45445E+02 -2.44955E+03
  2.38461E+03 -1.35514E+03  2.08395E+03  2.02607E+03  1.28795E+03  2.47762E+03  1.51080E+02  2.45912E+03
 -1.91869E+03  2.77906E+03 -1.79936E+03  5.81363E+02 -2.33050E+01  1.36361E+02 -7.57366E+02  1.28101E+03
 -1.27994E+03  3.08382E+03 -3.66699E+03  1.54086E+03 -4.15410E+03  6.51707E+02 -4.46245E+03 -2.21435E+03
 -3.06501E+03 -5.64965E+03  1.81757E+03 -6.99488E+03  2.15803E+03 -6.43671E+03  6.68236E+03 -2.55953E+03
  5.55016E+03  9.00273E+02  4.03332E+03  3.48218E+03 -6.45483E+02  3.01208E+03 -1.50758E+03  2.46721E+03
 -2.42943E+03  1.46257E+03 -9.47766E+02 -6.06579E+02 -4.29516E+00  7.49531E+02 -1.15163E+03 -4.24347E+02
 -6.58482E+02 -2.45519E+02 -9.62526E+02  2.37732E+02 -1.25401E+02 -5.34045E+02 -3.09992E+02 -1.94437E+03
  1.02904E+03 -9.89383E+02  2.66664E+03  1.02381E+03  3.40333E+03  1.92021E+03  3.10801E+02  4.24026E+03
 -3.07196E+03  3.65350E+03 -4.16952E+03  2.71194E+03 -5.58072E+03  2.73192E+02 -3.57793E+03 -2.69444E+03
 -1.62852E+03 -3.67957E+03  1.63230E+03 -4.08235E+03  1.82352E+03 -6.62633E+02  3.38430E+03  6.67054E+02
  2.29782E+03  2.12731E+03 -1.50617E+02  9.58480E+02 -1.75755E+03  5.09517E+02 -6.40325E+02 -6.18196E+02
  1.76061E+03  5.14657E+02  3.77268E+02  2.07845E+01  4.51801E+02  2.07965E+03  6.47033E+02  8.15495E+02
 -1.00632E+03  1.74598E+03 -2.13132E+03  1.29470E+02 -3.19770E+03 -1.96119E+03 -2.33017E+02 -3.28858E+03
  2.70756E+03 -2.66305E+03  2.34517E+03 -1.95867E+02  3.53613E+03  2.05095E+02  1.51255E+03  1.65838E+03
  3.59419E+02  2.14278E+03  1.82371E+02  1.21556E+03 -5.50780E+02  6.86098E+02 -1.31723E+03  1.03477E+03
 -1.72202E+03  6.99276E+02 -1.70185E+03  3.43190E+02 -6.22617E+02  2.88044E+02 -3.11456E+03  5.20842E+02
 -2.67569E+03 -9.18853E+02 -9.86400E+02 -2.57051E+03  1.44192E+03 -3.35694E+03  2.11608E+03 -1.15809E+03
  2.01235E+03 -6.23607E+02  4.40235E+02  8.28346E+02 -3.72732E+02  2.59207E+03 -1.18238E+03  1.41752E+03
