 $NMID ID='MM_0lb_SNR200_7hz_g55_67.RAW', FMTDAT='(8E13.5)'
 TRAMP=1., VOLUME=1. $END
  3.08191E+05  5.30964E+01  3.38097E+05  2.51638E+05  8.57636E+04  3.39227E+05 -1.31764E+05  2.51643E+05
 -1.89332E+05  8.50613E+04 -1.12247E+05 -3.00574E+04  1.77838E+02 -5.16056E+04  5.23832E+04 -2.26492E+02
  3.54879E+04  5.25032E+04 -1.73775E+04  7.52076E+04 -6.17046E+04  6.44359E+04 -8.67737E+04  3.35696E+04
 -8.35438E+04 -1.18124E+04 -5.73985E+04 -5.31153E+04 -1.51611E+04 -7.31555E+04  2.99721E+04 -4.54027E+04
  4.13269E+04  4.79568E+03  1.73419E+04  4.86054E+04 -3.59745E+04  4.92054E+04 -6.55135E+04 -7.26327E+02
 -5.50699E+04 -5.72260E+04 -7.02741E+03 -8.03827E+04  3.72364E+04 -5.66899E+04  4.88596E+04 -1.78718E+04
  4.50045E+04  1.39520E+04  3.61024E+04  2.70995E+04  1.58182E+04  3.26765E+04 -5.25207E+03  2.86726E+04
 -2.14250E+04  1.13538E+04 -1.82426E+04 -6.43777E+03  6.86468E+03 -6.13820E+03  2.23101E+04  1.42116E+04
  8.64464E+03  3.83471E+04 -3.47621E+04  3.88151E+04 -6.77981E+04  3.15890E+03 -5.95003E+04 -4.51365E+04
 -1.45409E+04 -6.66221E+04  4.26232E+04 -4.88793E+04  6.36733E+04 -2.51141E+03  3.69771E+04  3.53320E+04
 -4.67035E+03  4.06188E+04 -3.33800E+04  2.11947E+04 -3.44680E+04 -2.99267E+03 -2.03796E+04 -1.04061E+04
 -1.01908E+04 -1.52645E+04 -3.05854E+01 -2.00680E+04  8.24157E+03 -2.22092E+04  1.53961E+04 -1.14263E+04
  1.00975E+04  7.18798E+03 -1.14513E+04  1.29582E+04 -2.57229E+04 -7.60301E+03 -9.68727E+03 -3.85786E+04
  2.40785E+04 -4.61527E+04  5.51918E+04 -2.15734E+04  4.92283E+04  2.21278E+04  1.91939E+04  4.78222E+04
 -1.84155E+04  3.81084E+04 -2.88842E+04  1.73920E+03 -1.30219E+04 -3.17055E+04  2.11204E+04 -3.88270E+04
  4.77139E+04 -1.04173E+04  4.35802E+04  2.46425E+04  2.20198E+04  5.40300E+04 -8.34213E+03  5.99120E+04
 -3.85801E+04  4.03878E+04 -4.98264E+04  1.13956E+04 -5.02492E+04 -2.07676E+04 -2.82845E+04 -4.44304E+04
  6.70043E+03 -4.45961E+04  3.60015E+04 -2.01464E+04  3.50471E+04  9.85569E+03  6.61550E+03  2.21623E+04
 -1.40934E+04  1.09247E+04 -1.01720E+04 -7.48996E+03  5.92931E+03 -1.20082E+04  2.04395E+04  4.24003E+03
  1.48164E+04  2.11420E+04 -5.33374E+03  2.88451E+04 -2.58316E+04  1.43708E+04 -3.21235E+04 -2.79001E+03
 -2.65359E+04 -1.88866E+04 -1.44037E+04 -2.89389E+04  6.35598E+03 -3.09362E+04  2.25762E+04 -2.67284E+04
  3.46613E+04 -1.62022E+04  4.32973E+04  5.17372E+03  2.80039E+04  2.68520E+04  7.43422E+03  4.27697E+04
 -2.03866E+04  3.56603E+04 -3.32242E+04  1.30736E+04 -2.31157E+04 -8.59484E+03 -6.94214E+03 -1.36507E+04
  3.70506E+02 -8.59621E+02 -1.00258E+04  9.11839E+03 -2.16727E+04  4.80735E+03 -2.37676E+04 -1.25264E+04
 -1.30561E+04 -2.52007E+04  7.00526E+03 -2.95013E+04  1.86887E+04 -2.04206E+04  2.46459E+04  1.16901E+03
  1.58834E+04  1.79698E+04 -1.82323E+03  2.64766E+04 -1.73371E+04  1.22912E+04 -2.46659E+04 -6.51504E+03
 -2.11008E+04 -2.46102E+04 -2.69272E+03 -3.08685E+04  1.38057E+04 -2.60010E+04  2.46107E+04 -1.28188E+04
  2.29590E+04  2.27937E+01  1.60781E+04  5.66598E+03  1.08710E+04  3.08976E+03  1.47699E+04 -2.75549E+03
  2.54034E+04  3.01667E+03  2.84567E+04  1.88974E+04  1.89585E+04  4.21036E+04 -2.51529E+03  4.82197E+04
 -3.10910E+04  4.06295E+04 -4.59698E+04  2.25674E+04 -5.14006E+04 -3.33024E+03 -4.12042E+04 -3.00098E+04
 -1.63699E+04 -4.18827E+04  1.57432E+04 -3.81980E+04  3.04184E+04 -1.71426E+04  2.72275E+04  9.86667E+03
  7.90115E+03  2.15788E+04 -1.42568E+04  1.68995E+04 -2.25214E+04  1.90551E+03 -1.61826E+04 -1.37745E+04
  5.79134E+02 -2.16194E+04  1.20332E+04 -1.66196E+04  1.45436E+04 -2.28635E+03  3.04905E+03  9.06248E+03
 -9.49162E+03  4.11200E+03 -1.10557E+04 -7.82052E+03 -3.05703E+03 -2.11575E+04  1.23049E+04 -2.54074E+04
  2.77176E+04 -1.47944E+04  3.03538E+04  4.23754E+03  2.78726E+04  2.03398E+04  1.13776E+04  3.37181E+04
 -5.91816E+03  3.57019E+04 -2.53265E+04  2.26526E+04 -2.82282E+04  4.21445E+03 -1.88981E+04 -6.54406E+03
 -6.24390E+03 -7.06018E+03  4.63614E+02  3.55766E+02 -4.25153E+03  3.23587E+03 -8.98128E+03  5.40980E+03
 -1.81584E+04 -1.05393E+03 -1.84467E+04 -1.57124E+04 -5.75504E+03 -2.16189E+04  6.57483E+03 -1.88565E+04
  1.36005E+04 -8.03483E+03  1.11425E+04  3.33476E+03 -3.28841E+02  6.40145E+03 -1.05879E+04 -8.93711E+01
 -1.02537E+04 -1.12055E+04 -2.05011E+03 -1.85049E+04  1.09736E+04 -2.10227E+04  2.37344E+04 -9.93297E+03
  2.99881E+04  2.63608E+03  1.98602E+04  1.74539E+04  4.07590E+03  2.30889E+04 -1.19610E+04  2.01949E+04
 -1.54021E+04  4.90882E+03 -8.28920E+03 -5.15147E+03  7.41349E+02 -5.93604E+03  9.76119E+03  2.51371E+02
  9.91595E+03  6.59604E+03  6.62862E+01  1.46194E+04 -1.06060E+04  1.46630E+04 -1.82303E+04  2.77526E+03
 -1.32444E+04 -1.17846E+04 -4.50400E+02 -1.84776E+04  1.25308E+04 -8.96487E+03  1.11387E+04  4.94664E+03
  3.37066E+03  1.22335E+04 -9.08398E+03  1.43586E+04 -1.81773E+04  7.85390E+03 -1.77969E+04 -5.28234E+03
 -1.06024E+04 -2.07389E+04  4.66326E+03 -2.22705E+04  1.94157E+04 -1.30150E+04  1.92079E+04  5.23940E+03
  1.30077E+04  1.41204E+04 -2.56943E+03  2.02218E+04 -1.55752E+04  1.07524E+04 -1.55332E+04 -4.44430E+02
 -1.12577E+04 -1.32413E+04 -1.46711E+03 -1.39471E+04  7.92571E+03 -1.20251E+04  1.05104E+04 -4.02985E+03
  5.66645E+03  4.13318E+03 -2.57975E+03  2.57215E+03 -7.56493E+02 -3.60026E+03  2.32043E+03 -9.90568E+03
  1.38714E+04 -4.89609E+03  2.07780E+04  3.93161E+03  1.92896E+04  1.35985E+04  1.12225E+04  2.65420E+04
 -7.87947E+03  2.99004E+04 -2.37555E+04  2.18588E+04 -3.24896E+04  3.84078E+03 -2.50472E+04 -1.07343E+04
 -1.29700E+04 -2.08144E+04  5.56427E+02 -1.78417E+04  7.61232E+03 -1.04946E+04  5.96419E+03 -7.03326E+03
  4.66323E+03 -3.59927E+03  4.18718E+03 -5.22992E+03  7.28117E+03 -5.77540E+03  8.83283E+03 -1.42858E+03
  1.32376E+04  3.60933E+03  6.77406E+03  1.24631E+04 -2.18100E+03  1.46734E+04 -1.13860E+04  1.16974E+04
 -1.89468E+04 -1.52328E+03 -1.34137E+04 -1.38061E+04 -2.24453E+03 -2.14260E+04  1.14917E+04 -1.94850E+04
  2.11060E+04 -1.14089E+04  2.49366E+04  4.81179E+03  1.87830E+04  1.81184E+04  3.33595E+03  2.25239E+04
 -9.93321E+03  1.88395E+04 -1.26913E+04  5.52619E+03 -8.90706E+03 -1.22293E+03 -3.49107E+03 -2.92586E+03
 -3.12478E+03  6.70965E+01 -2.91799E+03  5.21746E+03 -6.94640E+03  2.40350E+03 -1.45445E+04 -6.70389E+02
 -9.56924E+03 -1.25961E+04 -2.25402E+03 -1.81412E+04  1.21110E+04 -1.66014E+04  1.96830E+04 -4.78505E+03
  1.76471E+04  9.21090E+03  8.25227E+03  1.74318E+04 -5.33270E+03  2.02399E+04 -1.55791E+04  9.50436E+03
 -1.82013E+04  4.53731E+02 -1.39673E+04 -1.14617E+04 -2.16729E+03 -1.59534E+04  8.60957E+03 -1.23503E+04
  1.06537E+04 -3.78540E+03  7.69627E+03  2.33876E+03  4.20185E+03  4.41901E+03  2.38091E+03  3.59607E+03
  3.40142E+03  1.18087E+03  3.24830E+03  1.23267E+03  5.86014E+03  7.25117E+03  6.13623E+03  1.09463E+04
 -2.23222E+03  1.41082E+04 -1.19622E+04  1.55486E+04 -2.07000E+04  5.13836E+03 -2.25222E+04 -8.96792E+03
 -9.69283E+03 -1.93076E+04  3.47532E+03 -2.12889E+04  1.17190E+04 -1.32914E+04  1.71275E+04 -2.01984E+03
  1.42207E+04  7.68758E+03  1.38599E+03  9.09525E+03 -6.03419E+03  7.78852E+03 -9.06384E+03 -1.43028E+03
 -3.70268E+03 -7.81816E+03  4.75033E+03 -8.17056E+03  7.44549E+03 -4.53563E+03  8.48434E+03  3.32333E+03
  5.71122E+03  4.54996E+03  1.45366E+03  3.39978E+03 -1.40205E+03  1.30630E+03  2.20896E+03 -2.56511E+02
  4.85733E+03 -1.24055E+03  7.63439E+03  2.86008E+03  5.33263E+03  1.18800E+04 -2.23250E+03  1.36641E+04
 -9.16854E+03  1.05739E+04 -1.21194E+04  1.16595E+03 -1.20725E+04 -4.57746E+03 -4.82040E+03 -8.88024E+03
  1.04718E+02 -9.30833E+03  5.50243E+03 -3.90972E+03  3.64191E+03  4.69333E+03 -2.01847E+03  7.94856E+03
 -9.37695E+03  3.62774E+03 -1.12666E+04 -6.19607E+03 -6.84687E+03 -1.12416E+04  1.43524E+03 -1.22354E+04
  7.05083E+03 -8.80192E+03  7.85429E+03 -1.92432E+03  5.02691E+03  3.68219E+03  1.48354E+03  5.92905E+03
 -3.74596E+03  8.73771E+02 -5.54489E+03 -5.66879E+03  1.61097E+03 -1.00573E+04  1.00079E+04 -7.08997E+03
  1.30709E+04  1.24296E+03  1.27652E+04  1.01391E+04  6.39021E+03  1.35420E+04 -4.11573E+03  1.37678E+04
 -1.12190E+04  8.10329E+03 -1.28027E+04 -1.40381E+03 -5.68582E+03 -9.46732E+03  7.56495E+02 -7.83221E+03
  8.99009E+03 -4.53296E+03  8.07426E+03  3.80756E+03  1.90008E+03  6.86027E+03 -2.90250E+03  6.09889E+03
 -3.86827E+03  3.06779E+03 -2.58556E+03  1.80235E+03 -2.89494E+03  2.46591E+03 -1.69190E+03  2.64876E+03
 -2.77725E+03  6.26918E+03 -1.10131E+04  3.75250E+03 -1.28954E+04  1.13759E+03 -1.35038E+04 -1.16814E+04
 -8.21618E+03 -1.78419E+04  2.85104E+03 -2.19845E+04  1.40892E+04 -1.85026E+04  2.02119E+04 -6.20041E+03
  1.93547E+04  4.89820E+03  1.24613E+04  1.13470E+04  2.25460E+03  1.47790E+04 -5.46844E+03  1.29626E+04
 -8.49470E+03  3.61451E+03 -4.96764E+03 -8.14921E+02 -2.52849E+03 -1.86343E+03 -1.53092E+03 -1.88154E+03
 -2.46903E+03 -7.46324E+02 -2.62506E+03 -6.01101E+02  1.24940E+01 -3.99374E+03  1.06891E+03 -7.01774E+03
  7.31674E+03 -4.01562E+03  8.47666E+03  2.31625E+02  1.07038E+04  9.01529E+03  3.75205E+03  1.40304E+04
 -8.19371E+03  1.81200E+04 -1.58147E+04  8.66951E+03 -1.94837E+04 -1.33014E+03 -1.35936E+04 -1.23942E+04
 -5.09969E+03 -1.63674E+04  5.44063E+03 -1.67500E+04  9.29825E+03 -6.21412E+03  9.49038E+03 -6.47595E+02
  4.01818E+03  5.52993E+03 -9.29887E+02  5.84330E+03 -2.48769E+03 -9.57119E+02 -1.62061E+02 -3.70188E+03
  5.28551E+03 -1.09143E+03  4.99932E+03  2.69960E+03  4.77429E+03  6.53022E+03 -1.62134E+03  7.56875E+03
 -8.17529E+03  6.45570E+03 -1.01313E+04  1.64559E+03 -1.02792E+04 -8.22570E+03 -2.54839E+03 -1.13079E+04
  8.30399E+03 -1.05565E+04  1.22563E+04 -1.83750E+03  1.18479E+04  4.00628E+03  8.27030E+03  8.48285E+03
  8.09824E+02  1.11919E+04 -3.79672E+03  1.01424E+04 -6.36931E+03  4.90604E+03 -6.10807E+03  1.69616E+02
 -2.33063E+03  1.80993E+03 -2.40208E+03  1.86357E+03 -4.44767E+03  2.99521E+03 -6.73222E+03 -2.72158E+02
 -7.05854E+03 -6.54046E+03 -1.28491E+03 -1.12523E+04  4.65336E+03 -1.15603E+04  8.13187E+03 -6.27252E+03
  1.01968E+04  1.63032E+03  4.82280E+03  7.33126E+03 -3.43556E+03  9.78897E+03 -9.41661E+03  8.97127E+03
