 $NMID ID='MM_0lb_SNR200_19hz_g40_90.RAW', FMTDAT='(8E13.5)'
 TRAMP=1., VOLUME=1. $END
  3.08267E+05  4.02051E+02  3.37179E+05  2.50634E+05  8.42165E+04  3.36587E+05 -1.32730E+05  2.48688E+05
 -1.90030E+05  8.24890E+04 -1.09850E+05 -3.28167E+04  2.00472E+03 -5.04240E+04  5.49043E+04 -5.24083E+01
  3.54465E+04  5.28561E+04 -1.71213E+04  7.47285E+04 -5.99494E+04  6.20168E+04 -8.24030E+04  3.22161E+04
 -7.92187E+04 -1.08355E+04 -5.60422E+04 -4.85714E+04 -1.51159E+04 -6.82157E+04  2.58424E+04 -4.52439E+04
  3.80314E+04  3.72160E+03  1.57599E+04  4.62103E+04 -3.31148E+04  4.54011E+04 -6.56815E+04 -7.89809E+02
 -5.11670E+04 -5.45245E+04 -5.76681E+03 -7.51008E+04  3.18912E+04 -5.20036E+04  4.57817E+04 -1.56635E+04
  4.03195E+04  1.07084E+04  3.08318E+04  2.56562E+04  1.60677E+04  2.73252E+04 -4.27375E+03  2.63361E+04
 -2.15975E+04  1.23655E+04 -2.04381E+04 -3.45022E+03  3.56206E+03 -6.87938E+03  2.05573E+04  9.82983E+03
  8.08925E+03  3.21751E+04 -3.04088E+04  3.38603E+04 -6.00633E+04  2.16489E+03 -5.49005E+04 -4.09035E+04
 -1.18351E+04 -6.11617E+04  3.63563E+04 -4.24331E+04  5.38202E+04 -1.65707E+03  3.09686E+04  2.99143E+04
 -6.02988E+03  3.22381E+04 -2.79284E+04  1.35569E+04 -2.73876E+04 -7.34888E+03 -1.54222E+04 -9.43303E+03
 -6.94645E+03 -1.06653E+04 -1.43951E+03 -1.68989E+04  6.19075E+03 -2.24636E+04  1.46801E+04 -1.46463E+04
  1.23298E+04  4.28278E+03 -6.07387E+03  1.32181E+04 -1.77117E+04 -2.04848E+03 -8.36769E+03 -2.84510E+04
  2.06838E+04 -3.92751E+04  4.32716E+04 -1.97808E+04  4.12482E+04  1.91533E+04  1.40757E+04  4.08284E+04
 -1.52771E+04  3.03412E+04 -2.38915E+04  5.06983E+02 -7.69677E+03 -2.64746E+04  2.00405E+04 -3.04886E+04
  3.64920E+04 -6.05507E+03  2.98486E+04  2.21749E+04  1.43167E+04  4.22860E+04 -7.20527E+03  4.29592E+04
 -2.77935E+04  2.85346E+04 -3.60600E+04  8.15104E+03 -3.74826E+04 -1.36842E+04 -2.01440E+04 -3.31501E+04
  6.56477E+03 -3.23474E+04  2.85539E+04 -1.32115E+04  2.60541E+04  1.01340E+04  1.99487E+03  1.71448E+04
 -1.33526E+04  7.49404E+03 -1.01515E+04 -8.24966E+03  6.14579E+03 -9.31634E+03  1.69824E+04  7.18910E+03
  1.24362E+04  2.09441E+04 -6.50766E+03  2.32876E+04 -2.14748E+04  8.41346E+03 -2.42212E+04 -6.38133E+03
 -1.59087E+04 -1.67446E+04 -4.65230E+03 -1.62753E+04  3.48684E+03 -1.27224E+04  1.12476E+04 -1.25134E+04
  1.99522E+04 -1.08962E+04  2.72104E+04  8.51213E+02  2.07003E+04  1.58589E+04  4.06910E+03  3.10732E+04
 -1.52729E+04  2.67679E+04 -2.56032E+04  9.05348E+03 -1.85347E+04 -1.09257E+04 -4.52697E+03 -1.40863E+04
  3.36601E+03 -4.35427E+03 -1.85468E+03  4.42651E+03 -1.21659E+04  4.80277E+03 -1.34828E+04 -3.77115E+03
 -7.86210E+03 -1.48678E+04  5.30363E+03 -1.85760E+04  1.19742E+04 -1.36100E+04  1.31169E+04 -8.02914E+02
  8.08681E+03  1.13183E+04 -1.43863E+03  1.49624E+04 -9.60554E+03  8.93591E+03 -1.39436E+04 -2.82634E+03
 -1.03513E+04 -1.31426E+04 -1.66939E+03 -1.81243E+04  9.73823E+03 -1.55725E+04  1.55432E+04 -7.52545E+03
  1.29944E+04  7.80210E+02  1.00960E+04  3.96050E+03  4.57730E+03 -1.43290E+02  7.69231E+03 -1.35328E+03
  1.23360E+04  2.26952E+03  1.36580E+04  1.32303E+04  8.58410E+03  2.31177E+04 -2.91882E+03  2.44079E+04
 -1.40298E+04  1.74723E+04 -2.31335E+04  7.80601E+03 -2.23985E+04 -1.65402E+03 -1.98387E+04 -1.34276E+04
 -9.65757E+03 -2.04691E+04  6.44729E+03 -1.76068E+04  1.56795E+04 -1.06561E+04  1.52339E+04  3.00633E+03
  5.65144E+03  1.00987E+04 -5.88407E+03  1.07360E+04 -1.31254E+04  1.62573E+03 -1.07966E+04 -7.55799E+03
  4.49583E+02 -1.21792E+04  5.46086E+03 -8.90459E+03  8.10546E+03 -1.51338E+03  3.49125E+02  3.99601E+03
 -6.01776E+03 -2.48735E+02 -2.66043E+03 -5.18061E+03  1.01259E+03 -8.65505E+03  6.80952E+03 -8.29056E+03
  1.20380E+04 -4.72093E+03  1.11138E+04  1.96648E+03  9.79102E+03  8.77109E+03  3.69086E+03  1.32791E+04
 -1.03877E+03  1.35606E+04 -8.75903E+03  8.70112E+03 -1.02608E+04  3.41832E+03 -7.89648E+03 -1.25682E+03
 -3.42302E+03 -4.03825E+03 -1.02569E+03  1.09856E+03 -1.36077E+03  1.74223E+03 -3.66818E+03  4.08988E+03
 -6.57465E+03 -1.31621E+03 -8.79109E+03 -6.62485E+03 -3.77264E+03 -1.08339E+04  3.51109E+03 -7.88967E+03
  7.10398E+03 -3.70443E+03  5.58444E+03  2.16878E+03  6.67009E+02  3.07632E+03 -3.10304E+03  1.44644E+02
 -3.49086E+03 -3.82466E+03  1.65732E+02 -6.47121E+03  3.35757E+03 -6.97507E+03  8.60805E+03 -3.44717E+03
  1.08538E+04  7.04385E+01  8.23474E+03  6.23792E+03  1.70911E+03  7.63029E+03 -4.22777E+03  7.32907E+03
 -7.80258E+03  2.49359E+03 -3.87911E+03 -1.01022E+03  1.00798E+03 -1.69977E+03  5.33153E+03 -1.94082E+03
  4.11795E+03  3.49335E+03  9.13714E+02  6.25663E+03 -4.56317E+03  5.75361E+03 -7.66190E+03  1.71605E+03
 -4.04819E+03 -3.65893E+03  1.02296E+03 -5.30485E+03  3.70402E+03 -3.85968E+03  3.45266E+03  7.08915E+02
  1.20755E+03  3.02331E+03 -3.18502E+03  5.05527E+03 -3.18698E+03  3.09959E+03 -4.67540E+03 -4.38892E+02
 -2.03105E+03 -5.34599E+03  1.43779E+03 -6.42895E+03  5.33889E+03 -3.80908E+03  6.47990E+03  6.79155E+02
  4.32771E+03  4.65014E+03  7.51053E+02  6.88906E+03 -4.57631E+03  4.31311E+03 -4.64447E+03  7.38412E+02
 -4.91646E+03 -4.78926E+03 -8.81245E+02 -4.87453E+03  1.50587E+03 -4.12572E+03  2.39319E+03 -2.24447E+03
  2.30114E+03 -9.73207E+02 -7.24666E+02  8.13503E+02  1.18611E+03 -9.27818E+02 -5.71054E+02 -1.73150E+03
  2.62014E+03 -6.46387E+02  4.26080E+03  6.71494E+01  4.93539E+03  3.17519E+03  5.30798E+03  6.01950E+03
 -1.09926E+03  7.82455E+03 -7.45954E+03  5.40970E+03 -8.83490E+03  9.81298E+02 -6.08267E+03 -1.60370E+03
 -4.43855E+03 -6.62157E+03 -1.33796E+03 -4.82132E+03  1.91662E+03 -1.18509E+03  1.92442E+03 -2.33049E+03
  4.54000E+02 -9.32571E+02  1.50601E+03 -2.46388E+03  3.01310E+03 -1.11563E+03  3.46832E+03  5.76622E+02
  3.56971E+03  1.38660E+03  1.52981E+03  3.05172E+03 -1.17375E+03  2.05586E+03 -3.99448E+03  1.86044E+03
 -3.90450E+03 -7.10569E+02 -1.35380E+03 -2.76445E+03  1.23126E+02 -4.29523E+03  2.41084E+03 -5.08207E+03
  4.97868E+03 -3.13395E+03  5.18299E+03 -8.79353E+00  4.47784E+03  2.99959E+03  1.53827E+03  5.82116E+03
 -1.64910E+03  6.35053E+03 -3.81217E+03  1.86363E+03 -2.49600E+03 -1.77613E+03 -1.15501E+03 -7.45024E+02
 -8.46938E+02  8.50009E+02 -7.24190E+02  1.20740E+03 -3.51894E+03  1.21873E+03 -3.86310E+03 -6.21783E+02
 -1.88290E+03 -3.99721E+03 -4.46754E+01 -4.43281E+03  2.36405E+03 -3.42529E+03  3.02409E+03 -1.70885E+03
  2.74793E+03  2.17324E+03  2.08631E+03  3.03192E+03 -1.16488E+03  3.40168E+03 -2.09787E+03  2.60909E+03
 -3.45215E+03 -9.21746E+01 -3.17965E+03 -1.50403E+03  1.08721E+03 -1.73653E+03  8.67639E+02 -2.30091E+03
  1.74854E+03 -9.93932E+02  1.15035E+03  2.98587E+01  1.40781E+03  1.09634E+03  7.83621E+02  7.56179E+02
  8.74318E+02  6.56778E+02  9.98806E+02  1.05113E+03  1.13875E+03  1.77178E+03  1.79570E+03  1.85100E+03
 -1.41424E+03  2.05310E+03 -1.28771E+03  3.20127E+03 -2.35501E+03  8.04233E+02 -3.17644E+03 -8.00663E+02
 -6.35437E+02 -2.14954E+03  4.70650E+02 -4.29181E+03  1.34907E+03 -1.80283E+03  2.66181E+03 -4.34329E+02
  2.94862E+03  1.29619E+03  6.42716E+02  2.44814E+03  8.87416E+01  1.71813E+03 -1.78579E+03  8.31585E+02
 -1.39332E+02 -1.18301E+03  2.29217E+03 -9.37317E+02  1.00254E+03 -1.30853E+02  1.08930E+03  3.68708E+02
  6.36630E+02  6.37578E+02  7.26276E+02  2.02969E+02 -7.87912E+02  7.32981E+02  8.99063E+02 -3.88780E+02
  6.87727E+02 -4.41518E+02  5.25438E+02  3.58856E+02 -2.07517E+02  3.55056E+03 -6.23707E+02  1.88890E+03
 -1.10710E+03  1.28778E+03 -2.70495E+03 -8.43869E+02 -1.37421E+03 -3.38699E+02 -8.89654E+01 -1.51776E+03
  1.15105E+03 -1.54081E+02  1.77510E+03  7.93768E+01  1.00768E+03  1.44598E+03 -6.30320E+02 -6.75995E+01
 -1.60884E+03 -3.06112E+02 -1.14124E+03 -8.62847E+02 -1.18817E+03 -1.41225E+03  2.62290E+01 -1.02508E+03
  2.91835E+02 -4.75184E+02  9.99969E+02 -5.14144E+01  9.88910E+02 -4.28933E+02  1.04613E+02 -2.51081E+00
 -2.62211E+02 -7.46501E+02 -1.02852E+03  6.65821E+02  1.01974E+03 -8.38049E+02  9.21388E+02 -7.16358E+02
  1.47005E+03 -2.01331E+02  1.52968E+03  2.39477E+02  1.03326E+03  2.00872E+03 -6.95651E+01  1.15078E+03
 -1.69210E+03  4.93793E+02 -1.80515E+03 -7.55831E+00 -1.39821E+03  1.96192E+02  4.64312E+02 -7.97578E+02
  3.00086E+03 -1.87252E+02  7.84874E+02  6.50131E+02  6.62590E+02  2.44176E+03  9.75392E+02  9.22963E+02
 -5.12753E+02  7.66172E+02 -6.80919E+02 -2.54112E+02 -5.84620E+01  1.12827E+03 -7.01167E+02  5.31099E+02
 -4.92235E+02  8.13357E+02  4.62911E+01 -2.95508E+02 -2.08523E+03  5.75768E+02 -2.82957E+03 -1.29763E+03
 -7.24038E+02 -3.18941E+03  7.27990E+02 -2.36699E+03  5.19796E+02 -2.84519E+03  2.55012E+03 -1.62518E+03
  2.00572E+03 -2.11537E+02  1.45832E+03  2.20462E+03 -2.00134E+03  7.31680E+02 -1.96679E+01  1.82876E+03
 -8.12079E+02  1.51620E+03 -9.79024E+02  7.73275E+02 -1.35376E+03 -1.59954E+02 -1.92069E+02  2.03037E+02
 -3.27842E+02  1.93854E+02 -1.33140E+03 -3.59612E+02  8.62425E+02 -1.58920E+03  1.40150E+02 -3.13410E+02
  8.82021E+02 -1.79660E+02  6.40908E+02 -4.47500E+01  1.10443E+03  5.10887E+02 -2.09975E+02  1.57806E+03
 -1.52707E+03  2.58476E+03 -1.63064E+03  6.97747E+02 -2.08872E+03 -6.87727E+02 -9.75985E+02 -1.74772E+03
 -3.59502E+02 -2.26839E+03  4.02429E+02 -1.29749E+03  5.54087E+02 -6.87701E+02  6.57268E+02  2.35152E+02
  8.66137E+02  8.22512E+02 -7.87696E+02  3.15443E+01  1.96039E+02  4.15938E+02 -1.75819E+02  2.47294E+02
  1.02072E+03  9.73614E+02 -3.23359E+02  1.17514E+03 -6.90623E+02  9.17992E+02  5.76126E+02  1.31789E+02
  1.28834E+02  4.14001E+02  7.38054E+01  7.03200E+02 -4.57146E+02  3.93347E+02 -4.52934E+02 -1.87338E+03
  4.11306E+02  3.90945E+02  2.82487E+02  3.91331E+01  1.66328E+03 -9.83503E+02  3.23002E+02  1.46878E+03
  3.01025E+02 -8.91228E+02  6.40351E+02 -1.35550E+02 -1.09705E+03  9.05336E+02 -8.08686E+02  1.59865E+02
  5.36637E+02 -7.59315E+01 -3.57890E+02 -8.68027E+01 -9.87686E+02 -1.16279E+02 -5.47446E+02 -6.93776E+02
 -4.73178E+02  6.80290E+02 -9.37205E+02 -5.68605E+02  7.78868E+02 -1.77108E+03  9.88524E+01 -2.27375E+02
  1.51582E+03  3.08434E+02 -9.04440E+02  3.58595E+02  3.52609E+02  7.03976E+02  1.97979E+02  1.88353E+03
