 $NMID ID='MM_0lb_SNR200_13hz_g60_75.RAW', FMTDAT='(8E13.5)'
 TRAMP=1., VOLUME=1. $END
  3.08841E+05  1.63940E+03  3.37688E+05  2.50358E+05  8.59054E+04  3.39503E+05 -1.32194E+05  2.51682E+05
 -1.93025E+05  8.26037E+04 -1.11823E+05 -3.25788E+04  1.56276E+03 -5.01151E+04  5.32996E+04 -2.45970E+02
  3.55189E+04  5.31443E+04 -1.61817E+04  7.50414E+04 -6.04467E+04  6.33567E+04 -8.65046E+04  3.19005E+04
 -8.22067E+04 -1.20880E+04 -5.77630E+04 -5.22674E+04 -1.45924E+04 -6.94303E+04  2.81765E+04 -4.62456E+04
  4.02738E+04  2.88301E+03  1.70227E+04  4.83999E+04 -3.45388E+04  4.74013E+04 -6.70877E+04 -8.97304E+01
 -5.40925E+04 -5.73836E+04 -7.14488E+03 -7.79111E+04  3.51650E+04 -5.54122E+04  4.90170E+04 -1.71503E+04
  4.35468E+04  1.15505E+04  3.04548E+04  2.82393E+04  1.63002E+04  2.96111E+04 -6.09620E+03  2.77134E+04
 -2.28981E+04  1.25420E+04 -1.74988E+04 -4.98103E+03  6.21948E+03 -6.94472E+03  2.20581E+04  1.35453E+04
  6.83263E+03  3.57595E+04 -3.26817E+04  3.50801E+04 -6.47075E+04  2.67465E+03 -5.71994E+04 -4.58457E+04
 -1.08522E+04 -6.42923E+04  4.14921E+04 -4.65555E+04  5.94056E+04 -1.72043E+03  3.62404E+04  3.19519E+04
 -5.01176E+03  3.66606E+04 -3.06875E+04  1.79912E+04 -3.13260E+04 -4.15947E+03 -1.85781E+04 -1.11713E+04
 -9.56472E+03 -1.51508E+04 -1.79793E+03 -1.84175E+04  8.45133E+03 -2.38902E+04  1.69672E+04 -1.30805E+04
  1.10449E+04  5.65886E+03 -8.63884E+03  1.18205E+04 -2.08042E+04 -6.06696E+03 -6.68989E+03 -3.58010E+04
  2.34055E+04 -4.50867E+04  4.96652E+04 -2.08737E+04  4.71374E+04  1.93181E+04  1.66789E+04  4.58361E+04
 -1.60555E+04  3.57007E+04 -2.61602E+04  2.10574E+03 -1.06378E+04 -2.77060E+04  2.28837E+04 -3.55216E+04
  4.24991E+04 -9.38010E+03  3.82815E+04  2.46522E+04  2.04175E+04  4.98990E+04 -9.85913E+03  5.33441E+04
 -3.38290E+04  3.59882E+04 -4.46385E+04  9.47739E+03 -4.52473E+04 -1.81281E+04 -2.50761E+04 -3.99188E+04
  7.30502E+03 -3.93992E+04  3.28757E+04 -1.51215E+04  3.05577E+04  1.07120E+04  4.77087E+03  2.00373E+04
 -1.42196E+04  8.53764E+03 -1.03138E+04 -8.24449E+03  5.54938E+03 -1.08228E+04  1.78413E+04  5.33200E+03
  1.60963E+04  2.45542E+04 -6.54995E+03  2.62849E+04 -2.38221E+04  1.16476E+04 -2.92280E+04 -3.75117E+03
 -2.32377E+04 -1.72891E+04 -9.91756E+03 -2.27149E+04  4.30685E+03 -2.21133E+04  1.77439E+04 -1.95159E+04
  2.92801E+04 -1.38523E+04  3.47911E+04  4.02160E+03  2.50818E+04  2.23044E+04  4.26987E+03  3.93595E+04
 -1.88156E+04  3.05769E+04 -2.82604E+04  1.03588E+04 -2.13426E+04 -1.02365E+04 -4.92193E+03 -1.29563E+04
  1.79469E+03 -1.00959E+03 -7.17397E+03  6.62749E+03 -1.76107E+04  4.69629E+03 -1.77343E+04 -7.55255E+03
 -1.17966E+04 -2.17017E+04  5.38154E+03 -2.58115E+04  1.71034E+04 -1.67413E+04  2.01835E+04  2.24796E+02
  1.22117E+04  1.36088E+04 -3.90017E+02  2.21776E+04 -1.44429E+04  1.28248E+04 -2.00189E+04 -4.63949E+03
 -1.50038E+04 -1.80407E+04 -1.78112E+03 -2.54907E+04  1.14780E+04 -2.12539E+04  2.04557E+04 -9.65595E+03
  2.01888E+04  3.78361E+02  1.42520E+04  4.46369E+03  7.91895E+03  1.83633E+03  1.05112E+04 -2.95016E+03
  1.89985E+04  3.55496E+03  2.35443E+04  1.72430E+04  1.48224E+04  3.30912E+04 -2.01135E+03  3.86363E+04
 -2.35461E+04  3.08163E+04 -3.60221E+04  1.63734E+04 -3.86526E+04 -1.76002E+03 -3.06420E+04 -2.21312E+04
 -1.32228E+04 -3.09203E+04  1.09373E+04 -2.84610E+04  2.30273E+04 -1.38958E+04  2.17171E+04  7.18033E+03
  7.43341E+03  1.64219E+04 -1.02938E+04  1.35276E+04 -1.83393E+04  2.64267E+03 -1.26717E+04 -1.13677E+04
  1.70479E+02 -1.63060E+04  8.25335E+03 -1.19426E+04  1.21896E+04 -1.17972E+03  2.49709E+03  7.71170E+03
 -7.22976E+03  2.88555E+03 -6.57557E+03 -6.42336E+03 -1.96552E+03 -1.55233E+04  1.08674E+04 -1.61170E+04
  1.93141E+04 -8.07016E+03  2.00833E+04  2.33853E+03  1.87189E+04  1.59458E+04  8.50707E+03  2.45593E+04
 -3.72492E+03  2.63733E+04 -1.63722E+04  1.63208E+04 -1.82554E+04  3.21551E+03 -1.37200E+04 -5.62123E+03
 -4.67878E+03 -6.15646E+03  1.12807E+02  2.40971E+02 -2.41668E+03  3.10316E+03 -7.16598E+03  5.58932E+03
 -1.23594E+04 -1.31657E+03 -1.18596E+04 -9.63702E+03 -5.40796E+03 -1.59066E+04  5.86342E+03 -1.14820E+04
  1.08056E+04 -4.88128E+03  7.18470E+03  3.59482E+03  4.94275E+01  4.67185E+03 -7.02448E+03 -1.51967E+03
 -6.03064E+03 -8.63299E+03 -9.05894E+01 -1.24002E+04  6.63929E+03 -1.33402E+04  1.70556E+04 -7.84178E+03
  1.93237E+04  1.36479E+03  1.50541E+04  1.09093E+04  1.71069E+03  1.48194E+04 -8.44961E+03  1.24546E+04
 -1.11179E+04  4.10862E+03 -5.52325E+03 -1.86430E+03  1.36359E+03 -3.33734E+03  7.26082E+03 -7.66908E+02
  5.10467E+03  6.41036E+03  1.25176E+03  9.09411E+03 -7.75338E+03  1.00038E+04 -1.30920E+04  3.29646E+03
 -9.63636E+03 -6.09015E+03 -5.16466E+02 -9.12257E+03  7.82082E+03 -5.71445E+03  7.34295E+03  1.40489E+03
  2.33944E+03  8.08686E+03 -7.22879E+03  9.33442E+03 -1.02563E+04  3.32058E+03 -1.00424E+04 -3.11112E+03
 -5.30943E+03 -1.25724E+04  2.89765E+03 -1.27707E+04  1.18333E+04 -7.82094E+03  1.31361E+04  2.60720E+03
  9.02179E+03  1.01597E+04 -2.27842E+02  1.10250E+04 -9.52738E+03  6.94586E+03 -9.44887E+03 -5.68878E+02
 -8.63156E+03 -9.50638E+03 -2.43260E+03 -8.94035E+03  4.22398E+03 -6.05903E+03  5.15105E+03 -2.69877E+03
  3.93966E+03  2.54512E+03 -2.01132E+03  1.95859E+03 -7.38127E+02 -2.00309E+03  1.66735E+03 -4.26168E+03
  9.45262E+03 -3.59694E+03  1.24578E+04  1.17615E+03  1.14816E+04  7.62364E+03  8.07915E+03  1.45226E+04
 -3.25018E+03  1.85293E+04 -1.40681E+04  1.22488E+04 -1.74115E+04  1.78198E+03 -1.48939E+04 -6.89346E+03
 -8.36767E+03 -1.22835E+04  5.30737E+02 -9.66885E+03  3.68214E+03 -5.95545E+03  2.71198E+03 -4.20500E+03
  3.43794E+03 -3.12547E+03  1.87637E+03 -3.16093E+03  5.20547E+03 -2.83594E+03  6.63812E+03 -5.66350E+02
  8.13928E+03  2.09946E+03  4.58199E+03  7.91051E+03 -2.60343E+03  6.28567E+03 -7.89070E+03  5.84264E+03
 -1.06799E+04 -2.76702E+03 -7.11116E+03 -7.41684E+03 -6.75670E+02 -1.09580E+04  6.52130E+03 -1.19293E+04
  1.08701E+04 -6.20367E+03  1.40355E+04  2.75976E+02  9.52467E+03  9.36062E+03 -8.47096E+01  1.13871E+04
 -5.36334E+03  1.02536E+04 -8.18211E+03  2.64536E+03 -4.25175E+03 -2.51655E+03 -1.93865E+03 -2.31525E+03
 -8.37924E+02  5.90215E+02 -1.29867E+03  4.03463E+03 -4.01539E+03  1.73866E+03 -7.55353E+03 -1.05940E+03
 -3.47552E+03 -6.91029E+03 -2.61888E+02 -9.50707E+03  4.98765E+03 -9.79116E+03  9.36279E+03 -2.90557E+03
  1.03639E+04  3.79532E+03  4.60619E+03  8.74641E+03 -3.00424E+03  9.80524E+03 -6.60440E+03  6.58610E+03
 -1.00548E+04 -4.09417E+01 -6.77409E+03 -5.84131E+03  2.28664E+02 -6.76352E+03  4.21160E+03 -7.00106E+03
  5.90422E+03 -2.80195E+03  4.09755E+03  1.42487E+03  8.31457E+02  2.62777E+03  1.15023E+03  1.66370E+03
  2.74807E+03  1.50895E+03  6.00646E+02  2.02411E+03  2.35474E+03  2.64733E+03  2.51866E+03  4.24685E+03
 -2.17846E+03  7.15024E+03 -5.91357E+03  8.44349E+03 -9.74706E+03  3.09844E+03 -9.95386E+03 -2.41393E+03
 -4.65713E+03 -9.22037E+03  2.55493E+03 -1.05169E+04  5.92424E+03 -5.30871E+03  6.83292E+03 -1.85804E+03
  5.80035E+03  2.16296E+03  5.89485E+02  5.18276E+03 -2.84096E+03  2.47589E+03 -4.96694E+03 -3.59940E+02
 -2.42606E+03 -3.97830E+03  2.58991E+03 -4.54623E+03  2.53963E+03 -1.78305E+03  3.40472E+03  7.74179E+02
  3.26970E+02  2.65784E+03  1.19482E+03  6.12321E+02 -1.70800E+03  9.23707E+02  1.07630E+03  2.76773E+02
  7.71643E+02 -6.39601E+02  2.87101E+03  1.78079E+03  1.01735E+03  5.95728E+03 -2.43717E+02  6.87872E+03
 -3.53599E+03  3.91435E+03 -5.94917E+03  1.52963E+03 -5.50270E+03 -2.36453E+03 -1.58322E+03 -3.79378E+03
  3.65247E+02 -2.97278E+03  2.14013E+03 -1.38694E+03  2.39549E+03  1.21713E+03 -5.64622E+02  2.79354E+03
 -2.65269E+03  2.02254E+03 -5.00310E+03 -1.08362E+03 -2.03663E+03 -4.85392E+03  4.32304E+02 -4.86093E+03
  1.63447E+03 -2.20903E+03  2.37260E+03 -1.48149E+03  2.67022E+03  1.13111E+03  8.36390E+02  2.35405E+03
 -2.75374E+03  5.03917E+02 -2.84827E+03 -1.01972E+03  1.35557E+03 -2.99380E+03  4.23150E+03 -1.83677E+03
  6.01397E+03 -3.99707E+02  4.85947E+03  3.13704E+03  2.45361E+03  5.06195E+03 -1.28588E+03  5.12097E+03
 -3.25482E+03  2.01491E+03 -4.28025E+03 -1.38408E+03 -4.19761E+03 -3.80838E+03  8.30636E+02 -2.71466E+03
  3.70976E+03 -1.28400E+03  3.22535E+03  1.44746E+03  1.34799E+03  3.74086E+03  6.97027E+02  2.25692E+03
 -2.80826E+03  1.16668E+03 -1.61033E+03  6.02514E+02 -8.66683E+02  1.47120E+03 -1.02579E+02  1.60661E+03
 -1.50744E+03  2.51080E+03 -1.81204E+03  2.27271E+03 -4.38127E+03 -4.91844E+01 -5.24153E+03 -3.15337E+03
 -3.83502E+03 -8.35171E+03  1.74679E+03 -7.85615E+03  5.52145E+03 -7.03262E+03  8.16195E+03 -3.79686E+03
  5.99708E+03  1.70932E+03  5.23870E+03  5.08671E+03 -6.17702E+02  5.13838E+03 -3.03852E+03  2.94746E+03
 -2.46551E+03  9.38018E+02 -1.97671E+03 -1.23402E+03 -1.24694E+03 -1.52815E+03 -1.12380E+03 -8.61670E+01
 -8.20746E+02 -6.54903E+02 -1.11940E+03  6.26885E+02 -2.25625E+02 -1.41257E+03 -1.23441E+03 -6.43252E+02
  2.39440E+03 -1.61584E+03  2.40131E+03  2.58917E+02  3.44352E+03  3.58496E+03  1.74989E+02  5.36230E+03
 -2.89749E+03  5.85271E+03 -5.39791E+03  2.86566E+03 -6.30001E+03 -1.46820E+00 -4.16873E+03 -3.76416E+03
 -2.33439E+03 -5.34424E+03  1.32159E+03 -4.30367E+03  2.68333E+03 -1.94850E+03  3.34023E+03  3.96600E+02
  2.39841E+03  9.76771E+02 -1.49650E+02  1.19768E+03 -9.48641E+02 -3.64671E+02  6.06378E+02 -6.73684E+02
  1.55870E+03 -4.89851E+00  1.20064E+03  8.55756E+02  7.28872E+02  2.16950E+03 -1.40597E+02  2.53924E+03
 -3.68041E+03  1.88794E+03 -3.91904E+03  4.76650E+02 -3.29388E+03 -2.82681E+03 -8.46018E+02 -3.49932E+03
  1.70761E+03 -2.10793E+03  3.33616E+03 -7.61739E+01  3.26839E+03  3.90617E+02  2.52035E+03  4.23518E+03
 -5.05867E+02  3.62696E+03 -4.76154E+02  3.47211E+03 -2.38915E+03  1.92350E+03 -6.93994E+02  6.54120E+02
  5.44787E+02  7.68874E+02 -8.11327E+02  2.12452E+02 -3.77787E+01  5.24805E+02 -1.51106E+03 -3.04928E+02
 -2.72390E+03 -8.94105E+02 -1.44369E+03 -2.84527E+03  3.12993E+03 -3.40604E+03  2.27023E+03 -1.46460E+03
  2.92252E+03  4.80239E+02  9.59545E+02  2.21002E+03 -2.27132E+02  3.59694E+03 -2.16153E+03  1.85387E+03
