 $NMID ID='MM_0lb_SNR200_17hz_g50_89.RAW', FMTDAT='(8E13.5)'
 TRAMP=1., VOLUME=1. $END
  3.09206E+05  9.08961E+02  3.37998E+05  2.51212E+05  8.47444E+04  3.38477E+05 -1.33220E+05  2.49937E+05
 -1.90441E+05  8.37657E+04 -1.10844E+05 -3.24924E+04  1.30116E+03 -5.11573E+04  5.45178E+04 -4.87247E+02
  3.47859E+04  5.29875E+04 -1.79200E+04  7.44760E+04 -6.04479E+04  6.23300E+04 -8.26546E+04  3.15510E+04
 -7.99715E+04 -1.15997E+04 -5.74209E+04 -5.08909E+04 -1.69064E+04 -6.93227E+04  2.70372E+04 -4.46528E+04
  3.91898E+04  3.65912E+03  1.65691E+04  4.70833E+04 -3.52023E+04  4.56367E+04 -6.62901E+04 -1.14696E+03
 -5.23553E+04 -5.57591E+04 -5.52543E+03 -7.63982E+04  3.28287E+04 -5.36859E+04  4.70688E+04 -1.65922E+04
  4.16610E+04  1.15683E+04  3.07845E+04  2.47586E+04  1.52153E+04  2.85921E+04 -4.96850E+03  2.77914E+04
 -2.23160E+04  1.21356E+04 -1.93382E+04 -5.08762E+03  5.11808E+03 -7.16862E+03  2.14392E+04  1.25919E+04
  6.78176E+03  3.48854E+04 -3.04572E+04  3.52164E+04 -6.27775E+04  1.38343E+02 -5.54729E+04 -4.12087E+04
 -1.22439E+04 -6.19258E+04  3.84651E+04 -4.53530E+04  5.72244E+04 -1.45645E+03  3.36514E+04  3.05808E+04
 -6.70086E+03  3.55435E+04 -2.86697E+04  1.55290E+04 -2.79324E+04 -4.58794E+03 -1.55612E+04 -9.72600E+03
 -8.35685E+03 -1.24823E+04 -2.85594E+02 -1.69447E+04  6.89670E+03 -2.16726E+04  1.60716E+04 -1.52073E+04
  1.18992E+04  4.18350E+03 -6.46248E+03  1.33292E+04 -1.98153E+04 -3.53191E+03 -7.80762E+03 -3.20514E+04
  2.06835E+04 -4.17737E+04  4.61204E+04 -1.93025E+04  4.35092E+04  1.77810E+04  1.43591E+04  4.35930E+04
 -1.58286E+04  3.20822E+04 -2.38819E+04  7.24658E+02 -9.44851E+03 -2.78759E+04  2.04724E+04 -3.22322E+04
  3.91040E+04 -8.26588E+03  3.25807E+04  2.31112E+04  1.60150E+04  4.43992E+04 -8.23405E+03  4.75687E+04
 -2.96485E+04  3.14633E+04 -3.93602E+04  8.21890E+03 -3.96559E+04 -1.58568E+04 -2.29525E+04 -3.64629E+04
  6.96479E+03 -3.60625E+04  3.07286E+04 -1.33314E+04  2.75413E+04  1.10517E+04  3.71045E+03  1.92353E+04
 -1.31792E+04  7.45043E+03 -1.13566E+04 -8.13846E+03  6.78994E+03 -9.84380E+03  1.76774E+04  6.22577E+03
  1.26600E+04  2.14501E+04 -6.13320E+03  2.46218E+04 -2.13826E+04  1.03435E+04 -2.55883E+04 -5.33181E+03
 -1.92781E+04 -1.57777E+04 -7.29445E+03 -1.87300E+04  5.22132E+03 -1.76216E+04  1.41250E+04 -1.62870E+04
  2.27561E+04 -1.22761E+04  2.95499E+04  1.09168E+03  2.20401E+04  1.81806E+04  4.07013E+03  3.45999E+04
 -1.64071E+04  2.89019E+04 -2.60959E+04  9.97558E+03 -2.07823E+04 -1.01293E+04 -3.69087E+03 -1.28719E+04
  1.72535E+03 -3.72144E+03 -3.89651E+03  5.76607E+03 -1.44126E+04  5.64494E+03 -1.42981E+04 -3.84228E+03
 -9.39680E+03 -1.58388E+04  4.98203E+03 -1.95174E+04  1.41843E+04 -1.47797E+04  1.66556E+04 -2.34272E+03
  9.05498E+03  1.14957E+04 -1.57499E+03  1.66746E+04 -1.15127E+04  9.48541E+03 -1.62135E+04 -3.92462E+03
 -1.26342E+04 -1.52827E+04 -2.35223E+03 -1.97628E+04  8.54817E+03 -1.73386E+04  1.81311E+04 -8.01127E+03
  1.57519E+04  1.10075E+03  1.13877E+04  4.39430E+03  6.91128E+03  1.25628E+03  7.97765E+03 -1.31761E+03
  1.51808E+04  2.82085E+03  1.57301E+04  1.35482E+04  1.02969E+04  2.61868E+04 -2.78232E+03  3.00578E+04
 -1.82106E+04  2.33170E+04 -2.72222E+04  1.19415E+04 -2.83591E+04 -2.61830E+03 -2.45993E+04 -1.55312E+04
 -1.02089E+04 -2.39815E+04  7.58046E+03 -2.15340E+04  1.83941E+04 -1.06433E+04  1.65270E+04  4.59937E+03
  7.33309E+03  1.23181E+04 -7.91958E+03  1.10535E+04 -1.52191E+04  2.68679E+03 -1.16021E+04 -7.88241E+03
 -1.15049E+03 -1.35888E+04  7.01252E+03 -1.07047E+04  8.32320E+03 -1.21514E+03  2.83582E+03  4.84991E+03
 -6.48311E+03  1.78292E+03 -3.96375E+03 -3.53207E+03  2.36730E+02 -1.12111E+04  7.50723E+03 -1.16933E+04
  1.25892E+04 -5.37236E+03  1.40085E+04  2.80771E+03  1.16299E+04  1.06186E+04  6.09506E+03  1.59826E+04
 -1.66529E+03  1.84916E+04 -1.23748E+04  1.07140E+04 -1.26584E+04  3.46200E+03 -8.08122E+03 -2.60005E+03
 -5.27408E+03 -4.27923E+03  5.26045E+02  1.44649E+03 -2.34958E+03  1.13709E+03 -4.57287E+03  3.62012E+03
 -9.19336E+03  3.10363E+02 -9.43911E+03 -7.61340E+03 -3.39381E+03 -1.16382E+04  4.34048E+03 -9.50327E+03
  7.56749E+03 -4.05255E+03  5.55481E+03  3.34978E+03  5.20454E+02  4.15262E+03 -2.52108E+03  4.37329E+02
 -4.31737E+03 -4.60647E+03  4.25356E+02 -8.44383E+03  4.46285E+03 -9.26562E+03  1.04373E+04 -5.71629E+03
  1.17666E+04  7.14392E+02  1.08996E+04  6.37558E+03  1.87614E+03  1.03442E+04 -5.14148E+03  8.76865E+03
 -6.89211E+03  2.85631E+03 -4.78374E+03 -1.17401E+03  2.44497E+03 -1.79293E+03  4.97976E+03 -1.33345E+03
  5.37445E+03  3.86125E+03  1.64910E+03  6.69080E+03 -5.08234E+03  9.08133E+03 -9.89476E+03  2.14190E+03
 -5.43910E+03 -3.22420E+03  2.52761E+01 -6.81607E+03  4.63825E+03 -4.06090E+03  4.04635E+03  2.30254E+03
  1.11825E+03  3.66622E+03 -4.26452E+03  6.23383E+03 -6.11276E+03  3.73458E+03 -5.59153E+03 -8.87648E+02
 -3.64973E+03 -6.92878E+03  8.29563E+02 -8.26675E+03  6.59933E+03 -5.16863E+03  7.41490E+03  6.24419E+02
  4.71741E+03  6.00407E+03 -7.73168E+02  7.10909E+03 -4.78067E+03  4.25659E+03 -7.07596E+03 -1.34028E+03
 -7.22853E+03 -5.26873E+03 -2.01347E+03 -6.51511E+03  2.65981E+03 -4.39601E+03  3.55253E+03 -3.25144E+03
  3.04583E+03  4.78028E+01  1.50647E+02  1.41058E+03  4.64157E+02 -1.09537E+01  1.29110E+03 -2.81422E+03
  4.84344E+03 -1.68470E+03  6.84466E+03  8.34753E+02  6.37207E+03  4.65762E+03  5.56673E+03  9.36283E+03
 -2.12167E+03  9.49193E+03 -9.18578E+03  9.36319E+03 -1.23632E+04  2.12516E+03 -9.54720E+03 -3.89014E+03
 -3.43099E+03 -7.21359E+03 -2.62757E+02 -6.62805E+03  3.48331E+03 -4.29334E+03  1.78005E+03 -2.61588E+03
  2.52923E+03 -1.01711E+03  2.98070E+03 -2.82896E+03  5.48107E+03 -1.66245E+03  3.15912E+03 -6.60488E+02
  5.08251E+03  7.53319E+02  1.32713E+03  4.58067E+03 -6.59688E+02  3.87079E+03 -5.98609E+03  2.47788E+03
 -7.68504E+03 -1.02190E+03 -3.56634E+03 -4.15735E+03 -4.58711E+02 -6.56111E+03  3.47576E+03 -6.04047E+03
  6.12564E+03 -4.10296E+03  7.82936E+03  3.91375E+00  5.43285E+03  4.77464E+03  1.65860E+03  8.07817E+03
 -2.05851E+03  5.92832E+03 -4.93548E+03  2.47531E+03 -2.14354E+03 -1.45290E+03 -8.50927E+02 -6.54708E+02
 -4.10449E+02  6.62294E+02 -1.68445E+03  2.18173E+03 -3.59728E+03  6.86412E+02 -4.81492E+03 -1.00805E+03
 -2.63906E+03 -4.12618E+03  4.16275E+02 -5.93445E+03  2.79437E+03 -4.94915E+03  4.71729E+03 -1.14431E+03
  4.70021E+03  3.02366E+03  2.12005E+03  4.40086E+03 -2.00575E+03  5.24522E+03 -2.35101E+03  3.36403E+03
 -5.44241E+03  4.73788E+02 -4.55040E+03 -3.77048E+03 -7.74636E+02 -4.30854E+03  2.25529E+03 -3.62258E+03
  2.19109E+03 -1.69000E+03  3.01855E+03  3.02846E+02  4.52469E+02  2.29243E+03  8.73351E+02  1.26691E+03
  2.27423E+03  1.04626E+03  1.06845E+03  2.07384E+03  1.08855E+03  3.02476E+03  2.63077E+03  1.94988E+03
 -1.91668E+03  4.38860E+03 -1.97257E+03  4.90081E+03 -4.04988E+03  1.09619E+03 -5.50575E+03 -2.43464E+03
 -2.97730E+03 -4.33064E+03  5.26815E+02 -6.23325E+03  3.03980E+03 -3.15569E+03  4.25464E+03 -1.47061E+03
  3.84734E+03  1.72157E+03  1.88943E+02  2.29386E+03 -1.54016E+03  1.12727E+03 -5.02058E+02 -6.83456E+02
 -1.37842E+03 -3.00669E+03  1.84006E+03 -2.41490E+03  1.94951E+03 -4.50957E+02  1.01846E+03  8.47907E+02
  1.18955E+03  2.51506E+02  5.45305E+02  9.77443E+00 -9.30147E+02  7.89761E+02  1.98521E+03 -5.88894E+02
 -8.03594E+02 -5.74982E+02  3.02589E+03  9.05925E+02 -7.30022E+02  2.48703E+03  1.33765E+02  2.51787E+03
 -2.07052E+03  1.82457E+03 -2.14299E+03  8.85928E+02 -2.54739E+03 -2.99838E+02 -7.35946E+02 -1.22025E+03
  1.72700E+03 -8.33867E+02  4.44321E+02 -7.80183E+02  1.88496E+03  1.83062E+03 -5.75404E+02  4.49478E+02
 -2.37315E+03  1.42442E+01 -8.09760E+02 -2.33198E+03 -8.32603E+02 -3.58262E+03  1.16389E+03 -1.67734E+03
  8.57057E+02 -7.24690E+02  2.10940E+03 -4.64847E+02  2.08164E+03  4.33313E+02  4.80309E+02  9.98903E+02
 -1.62836E+02  1.79882E+02 -1.17137E+03 -8.07634E+02  9.82506E+02 -1.37563E+03  2.48156E+03 -1.01781E+03
  1.16693E+03 -2.15874E+02  2.44778E+03  5.04173E+02  1.44492E+03  2.10497E+03  1.19327E+03  2.63491E+03
 -3.51731E+03 -2.92076E+02 -2.32772E+03  5.46665E+02 -1.67598E+03 -9.13328E+02  3.70143E+02 -1.93637E+03
  1.03338E+03 -1.20612E+03  2.36220E+02  1.42499E+03  7.70344E+02  2.53151E+03  1.20790E+03  1.17265E+03
 -1.54751E+02  2.15704E+03 -6.18263E+02  1.11520E+02 -8.63281E+02  2.07424E+03 -8.51132E+02  1.43097E+03
 -4.49277E+02  1.91361E+03 -1.78610E+03  6.53387E+02 -1.55722E+03  4.22534E+02 -3.61221E+03 -2.05839E+03
 -1.60778E+03 -2.74675E+03  1.42733E+03 -4.40542E+03  1.43904E+03 -2.93756E+03  3.98188E+03 -1.05597E+03
  3.33028E+03  1.00634E+03  1.60203E+03  2.08370E+03  2.33284E+02  2.38595E+03 -4.17631E+02  2.04043E+03
 -6.90126E+02  3.12166E+02 -1.62283E+03 -9.05869E+02 -5.39975E+02 -3.55677E+02 -6.48830E+02  1.61985E+02
 -2.74813E+02 -1.63416E+02 -7.39058E+02 -6.22888E+01 -9.65288E+02 -1.13609E+03 -1.63544E+02 -1.74032E+03
  1.51985E+03 -1.02267E+03  6.90388E+02  7.19187E+01  1.47048E+03  1.36363E+03  5.12376E+02  2.96201E+03
 -1.24572E+03  3.40603E+03 -1.13659E+03  8.54574E+02 -3.47041E+03 -1.79240E+02 -1.70371E+03 -2.46592E+03
 -1.23008E+03 -1.95102E+03  1.18007E+02 -2.98862E+03  6.21564E+02 -6.03900E+02  9.39930E+02  3.48985E+02
  6.59160E+02  1.08168E+03  4.19667E+02  1.90538E+03 -4.44818E+02 -1.78454E+01  5.26812E+02  1.67850E+02
  9.22839E+01 -2.31429E+02  1.37206E+03  1.51835E+03  1.18152E+02  2.26126E+02  3.49050E+02  1.08238E+03
 -8.58241E+02  1.05763E+03 -1.23402E+03 -1.48770E+03 -7.67596E+02 -1.83962E+03 -2.67022E+02 -1.47168E+03
 -2.41128E+02 -1.90812E+03  1.33493E+03 -7.11995E+01  1.91784E+03 -1.00416E+02  1.61841E+02  1.37127E+03
  4.35947E+02  1.28904E+03  7.19839E+02  2.39038E+01  2.80505E+02  7.64873E+02 -4.80605E+02  1.22939E+02
 -5.61884E+01  5.10737E+01  3.15261E+02  1.23401E+03  5.09229E+02  7.84998E+02 -1.54759E+03 -4.79111E+02
 -7.75117E+02  3.64676E+02 -1.35597E+03 -1.22636E+03  1.26356E+03 -2.56184E+03  3.40428E+02  5.45273E+01
  7.15286E+02  1.26076E+02  2.08428E+02  2.74118E+02  6.81719E+02  1.62253E+03 -8.36209E+02  9.37153E+02
