 $NMID ID='MM_0lb_SNR200_15hz_g40_88.RAW', FMTDAT='(8E13.5)'
 TRAMP=1., VOLUME=1. $END
  3.08906E+05  1.22444E+03  3.37165E+05  2.50110E+05  8.53141E+04  3.37259E+05 -1.31981E+05  2.50444E+05
 -1.90391E+05  8.23402E+04 -1.10445E+05 -3.21092E+04  1.88740E+03 -5.03925E+04  5.44373E+04  1.69228E+02
  3.33721E+04  5.26211E+04 -1.71442E+04  7.38085E+04 -5.97048E+04  6.18843E+04 -8.43587E+04  3.29228E+04
 -8.03487E+04 -1.15034E+04 -5.73524E+04 -5.06333E+04 -1.55555E+04 -6.82511E+04  2.64826E+04 -4.54704E+04
  4.12597E+04  4.57178E+03  1.55485E+04  4.72272E+04 -3.35112E+04  4.76317E+04 -6.60315E+04  1.16444E+03
 -5.31871E+04 -5.73705E+04 -6.74555E+03 -7.71464E+04  3.25449E+04 -5.49876E+04  4.71346E+04 -1.64746E+04
  4.19000E+04  1.22280E+04  3.04745E+04  2.48499E+04  1.57100E+04  2.86575E+04 -4.19439E+03  2.66061E+04
 -2.16773E+04  1.19901E+04 -1.95096E+04 -4.59124E+03  5.25496E+03 -7.83216E+03  2.16890E+04  1.25268E+04
  7.15753E+03  3.48035E+04 -3.17930E+04  3.39031E+04 -6.18752E+04  1.79231E+03 -5.64213E+04 -4.13818E+04
 -1.24595E+04 -6.14739E+04  3.85518E+04 -4.34325E+04  5.80245E+04 -2.36215E+03  3.32161E+04  3.20760E+04
 -6.32375E+03  3.44111E+04 -3.12051E+04  1.34723E+04 -2.96283E+04 -5.06185E+03 -1.51221E+04 -1.00742E+04
 -8.93845E+03 -1.23601E+04 -2.97934E+02 -1.63140E+04  5.80583E+03 -2.29217E+04  1.51501E+04 -1.41884E+04
  1.26740E+04  5.07908E+03 -7.76594E+03  1.28154E+04 -2.04200E+04 -3.02301E+03 -8.04328E+03 -3.15817E+04
  2.22979E+04 -4.26535E+04  4.72224E+04 -1.90442E+04  4.46833E+04  1.93827E+04  1.52262E+04  4.37846E+04
 -1.71962E+04  3.23734E+04 -2.46489E+04  1.98123E+03 -9.31558E+03 -2.72915E+04  2.13985E+04 -3.26840E+04
  4.02710E+04 -8.97950E+03  3.41426E+04  2.32721E+04  1.66140E+04  4.43360E+04 -7.85740E+03  4.78512E+04
 -3.09264E+04  3.22413E+04 -3.98164E+04  1.02784E+04 -4.03977E+04 -1.55756E+04 -2.15980E+04 -3.65097E+04
  7.42099E+03 -3.51804E+04  3.04976E+04 -1.40894E+04  2.84681E+04  8.76074E+03  3.61371E+03  1.81510E+04
 -1.36040E+04  7.78741E+03 -1.07269E+04 -8.74994E+03  4.62595E+03 -1.06111E+04  1.81725E+04  6.24021E+03
  1.28830E+04  2.24466E+04 -5.27506E+03  2.45663E+04 -2.12616E+04  9.42938E+03 -2.66589E+04 -4.90371E+03
 -1.92203E+04 -1.74453E+04 -7.19028E+03 -1.85222E+04  3.48030E+03 -1.69732E+04  1.38389E+04 -1.61437E+04
  2.37573E+04 -1.14286E+04  3.03448E+04  1.66234E+03  2.30147E+04  1.84987E+04  4.06114E+03  3.49270E+04
 -1.58529E+04  2.93833E+04 -2.62700E+04  1.04572E+04 -1.93228E+04 -9.38863E+03 -3.95340E+03 -1.46298E+04
  2.42633E+03 -3.14968E+03 -3.26714E+03  5.69037E+03 -1.42681E+04  5.07382E+03 -1.55330E+04 -5.31543E+03
 -9.77492E+03 -1.75288E+04  4.73639E+03 -2.09535E+04  1.35996E+04 -1.56507E+04  1.65482E+04 -2.06731E+02
  9.72429E+03  1.22110E+04 -9.27012E+02  1.69236E+04 -1.23722E+04  1.03945E+04 -1.59783E+04 -2.89543E+03
 -1.22654E+04 -1.59067E+04 -1.89704E+03 -2.09859E+04  8.79562E+03 -1.74063E+04  1.66869E+04 -8.47949E+03
  1.58056E+04  5.61633E+02  1.05671E+04  5.01542E+03  6.85451E+03  2.22346E+03  9.67547E+03 -1.00127E+02
  1.60819E+04  2.71098E+03  1.77483E+04  1.46763E+04  1.08604E+04  2.70872E+04 -2.83277E+03  3.08956E+04
 -1.71846E+04  2.48986E+04 -2.94791E+04  1.28912E+04 -2.99009E+04 -2.34922E+03 -2.54244E+04 -1.79779E+04
 -1.18693E+04 -2.43575E+04  8.56247E+03 -2.23018E+04  1.98883E+04 -1.00544E+04  1.71086E+04  3.42855E+03
  6.81509E+03  1.38535E+04 -7.15733E+03  1.09456E+04 -1.52758E+04  2.73209E+03 -1.12768E+04 -8.58701E+03
  1.19743E+02 -1.38664E+04  7.36874E+03 -1.08792E+04  9.71089E+03 -1.31662E+03  1.00668E+03  6.13540E+03
 -5.82269E+03  2.48338E+03 -3.64465E+03 -5.92748E+03  1.31080E+02 -1.34097E+04  9.53500E+03 -1.26086E+04
  1.53877E+04 -5.67625E+03  1.52425E+04  2.59925E+03  1.38302E+04  1.16644E+04  6.06423E+03  1.69322E+04
 -2.10143E+03  2.09110E+04 -1.19987E+04  1.16025E+04 -1.48694E+04  3.06294E+03 -1.03612E+04 -3.42509E+03
 -4.02300E+03 -4.51319E+03 -1.40629E+02  1.35172E+03 -2.24055E+03  2.01752E+03 -4.23152E+03  4.39308E+03
 -1.07738E+04 -7.62241E+02 -1.09850E+04 -6.86628E+03 -2.37698E+03 -1.39661E+04  3.99450E+03 -1.10894E+04
  7.17761E+03 -4.95269E+03  5.89259E+03  1.84193E+03 -6.39916E+02  4.31362E+03 -3.86312E+03 -3.12108E+02
 -4.15390E+03 -6.84511E+03 -1.05792E+03 -9.75398E+03  5.27371E+03 -1.01850E+04  1.24356E+04 -4.47629E+03
  1.47003E+04  1.85334E+03  1.00515E+04  8.23447E+03  2.85919E+03  1.13115E+04 -6.07844E+03  9.89545E+03
 -9.08435E+03  3.48617E+03 -3.50187E+03 -9.25434E+02  1.28821E+03 -1.70429E+03  5.11777E+03  3.44097E+02
  5.09495E+03  3.31192E+03 -1.17755E+02  7.10064E+03 -6.00222E+03  8.55121E+03 -8.44276E+03  1.46817E+03
 -5.72776E+03 -4.53706E+03  1.19659E+03 -7.55658E+03  4.64153E+03 -2.77027E+03  5.05591E+03  1.86050E+03
 -4.83158E+02  5.71776E+03 -5.55649E+03  6.49329E+03 -6.39587E+03  4.45174E+03 -6.66937E+03 -1.46949E+03
 -5.55335E+03 -8.80386E+03  1.75143E+03 -1.05119E+04  7.41696E+03 -5.62257E+03  9.06582E+03  1.26098E+03
  6.74610E+03  6.66280E+03 -3.31472E+02  8.97887E+03 -5.92292E+03  4.73300E+03 -7.99846E+03  1.61567E+02
 -6.53867E+03 -5.15116E+03  2.11488E+02 -5.57309E+03  3.76281E+03 -5.42176E+03  3.90050E+03 -3.66660E+03
  3.02341E+03  8.06562E+02 -8.02393E+02  1.18680E+03 -2.04746E+02 -1.31840E+03  5.06613E+02 -3.44126E+03
  5.93104E+03 -1.43508E+03  7.65338E+03  1.06975E+03  7.38912E+03  4.01939E+03  6.80064E+03  9.49214E+03
 -2.65861E+03  1.11989E+04 -1.09132E+04  9.53260E+03 -1.35745E+04  1.63437E+03 -1.06230E+04 -3.09011E+03
 -6.01345E+03 -8.70690E+03 -4.88072E+02 -6.87400E+03  3.26978E+03 -4.54028E+03  1.70247E+03 -3.36522E+03
  1.12201E+03 -5.47435E+02  1.67958E+03 -2.10175E+03  4.08571E+03 -1.37499E+03  4.77811E+03 -4.27338E+02
  5.14123E+03  1.86117E+03  2.59206E+03  5.18812E+03 -1.86901E+03  4.54998E+03 -6.25710E+03  3.17674E+03
 -8.23261E+03 -1.22766E+03 -3.45330E+03 -3.85071E+03  1.78259E+03 -7.33674E+03  4.03950E+03 -6.67713E+03
  8.25084E+03 -3.54740E+03  1.03837E+04  4.61797E+02  7.70538E+03  6.87779E+03  6.12600E+02  8.54548E+03
 -3.34552E+03  7.56403E+03 -4.24186E+03  2.91747E+03 -2.47463E+03 -2.13013E+03 -5.86916E+02 -1.48450E+03
 -5.15267E+02  2.41471E+03 -1.34676E+03  8.23226E+02 -3.36165E+03  2.09221E+03 -5.67311E+03  6.95635E+02
 -2.24197E+03 -3.67972E+03  1.58204E+03 -7.69790E+03  5.32388E+03 -6.47958E+03  5.73727E+03 -3.29795E+03
  6.30712E+03  3.47629E+03  2.20724E+03  4.64450E+03 -6.09434E+01  7.27261E+03 -3.78817E+03  4.22447E+03
 -5.92555E+03  1.34006E+03 -5.17952E+03 -4.80214E+03 -1.39481E+02 -5.61157E+03  2.85099E+03 -3.65990E+03
  5.13236E+03 -1.39667E+03  1.45779E+03  8.31500E+02  2.62473E+01  1.80904E+03  1.06905E+03  8.59805E+02
  2.11517E+03  6.47548E+02  1.97571E+03  1.36153E+03  2.16086E+03  3.63807E+03  2.20278E+03  2.36132E+03
 -3.28297E+03  5.23913E+03 -3.30322E+03  6.72730E+03 -5.75691E+03  1.93823E+03 -5.92904E+03 -1.60219E+03
 -3.44927E+03 -6.00077E+03  2.78461E+02 -7.49749E+03  3.93672E+03 -5.00818E+03  4.70889E+03 -1.75224E+03
  3.50522E+03  2.80335E+03  1.15692E+03  3.85801E+03 -2.32350E+03  2.20603E+03 -1.19261E+03  4.95264E+02
 -7.30735E+02 -2.52218E+03  1.04713E+03 -3.57354E+03  1.47900E+03 -1.25298E+03  1.95329E+03  2.26117E+02
  1.05221E+03 -3.44980E+02  4.89530E+02 -4.04316E+01 -4.58101E+02  9.62436E+02  2.21688E+03  4.50749E+02
  8.74173E+02 -8.17720E+02  1.58534E+03  1.34972E+03  7.83609E+02  3.21804E+03 -4.04098E+02  4.02396E+03
 -3.28298E+03  1.61512E+03 -3.64263E+03  1.06913E+03 -3.49385E+03 -1.43566E+03 -8.68973E+02 -2.43113E+03
  1.80721E+03 -2.08115E+03  2.25950E+03 -1.11384E+03  2.44201E+03  1.58718E+03 -8.32635E+02  2.24765E+03
 -1.70992E+03  4.52737E+02 -2.05733E+03 -1.10250E+03 -2.04096E+03 -2.84557E+03  2.53475E+02 -3.77656E+03
  1.49078E+03 -2.39730E+03  2.80105E+03  5.21052E+01  1.91384E+03  1.56797E+03  5.90436E+02  1.51687E+03
 -2.15018E+03  2.90152E+02 -1.73209E+03 -6.07466E+02 -2.78186E+01 -2.75702E+03  2.52195E+03 -1.45856E+03
  3.15530E+03  9.15322E+02  4.01741E+03  2.25039E+03  1.65181E+03  2.54311E+03  2.01998E+02  2.82708E+03
 -3.30292E+03  1.62890E+03 -2.82922E+03 -7.49487E+02 -6.46324E+02 -2.21292E+03  9.00134E+02 -2.04345E+03
  3.02695E+03 -1.28241E+03  9.39776E+02  1.78978E+03  7.04679E+02  1.61484E+03 -2.36026E+02  1.62403E+03
 -8.27367E+02  2.41397E+03 -1.00006E+03  2.11967E+02 -1.49059E+03  3.30536E+02 -1.49019E+03  5.71446E+02
 -5.78719E+02  1.18965E+03 -3.20281E+03  4.70759E+02 -3.96525E+03  3.39044E+01 -4.00469E+03 -1.18754E+03
 -3.05333E+03 -4.23797E+03 -3.40994E+02 -5.20284E+03  2.11701E+03 -5.05167E+03  5.40671E+03 -2.01304E+03
  4.28582E+03 -1.21982E+03  1.85720E+03  3.73989E+03 -1.77632E+03  3.67783E+03 -1.49203E+03  2.91776E+03
 -2.31174E+03  8.68598E+02 -2.14030E+03  3.17623E+02 -5.99324E+02 -9.42590E+01 -1.10084E+03 -4.94892E+01
 -1.58923E+03  4.44568E+01 -3.39146E+02  4.94384E+01 -5.14285E+02 -1.54050E+03  7.80898E+02 -1.21833E+03
  3.20069E+03 -2.22092E+03  1.47885E+03 -1.59746E+02  2.80392E+03  2.58077E+03  2.79444E+02  3.59157E+03
 -1.31400E+03  3.75963E+03 -3.26030E+03  3.64584E+03 -3.67577E+03 -1.62961E+02 -2.00643E+03 -3.62152E+03
 -1.57660E+03 -2.51505E+03  2.72846E+02 -2.43922E+03  1.75332E+03 -2.55546E+03  1.19251E+03  3.30633E+02
  1.47272E+03  1.34050E+03 -2.82794E-01 -2.15287E+02 -4.42345E+02  1.95239E+02  1.86771E+02 -7.73380E+02
  2.16102E+03 -6.47256E+02  6.13600E+02  5.53441E+01 -7.41452E+01  1.06574E+03  6.54804E+02  2.09101E+03
 -2.55536E+03  1.41641E+03 -1.27555E+03 -9.49404E+02 -1.87050E+03 -1.66967E+03  7.41981E+02 -2.24836E+03
  1.61978E+03 -1.46797E+03  2.50552E+03 -4.48568E+02  1.49937E+03 -2.15694E+02  5.33235E+02  1.20572E+03
  1.52662E+02  8.28896E+02 -1.76400E+03  1.80530E+03 -1.24532E+03  5.20531E+02 -4.80998E+02  5.73011E+02
 -6.84029E+02 -3.86520E+02  1.18609E+02  1.31516E+02 -1.29331E+03 -3.19492E+02 -1.03248E+03 -7.58192E+02
 -2.31069E+03  3.97828E+02 -1.07525E+03 -2.02182E+03  7.60890E+02 -2.61864E+03  1.96427E+03 -8.19082E+02
  2.42938E+02  8.99306E+02 -2.56833E+02  1.09977E+03 -4.91593E+02  2.97715E+03  2.37940E+02  2.79932E+02
