 $NMID ID='MM_0lb_SNR200_7hz_g55_80.RAW', FMTDAT='(8E13.5)'
 TRAMP=1., VOLUME=1. $END
  3.08491E+05  8.85921E+02  3.38947E+05  2.49657E+05  8.61218E+04  3.39194E+05 -1.30895E+05  2.51388E+05
 -1.93205E+05  8.39543E+04 -1.12882E+05 -3.10616E+04  3.62529E+02 -4.94039E+04  5.30141E+04  1.39687E+02
  3.53513E+04  5.35882E+04 -1.55998E+04  7.58269E+04 -6.11083E+04  6.60607E+04 -8.65365E+04  3.32803E+04
 -8.34943E+04 -1.05853E+04 -5.99006E+04 -5.37210E+04 -1.55958E+04 -6.99458E+04  2.75116E+04 -4.75388E+04
  4.16469E+04  3.96450E+03  1.68253E+04  4.75852E+04 -3.64067E+04  4.64583E+04 -6.91078E+04  4.02553E+02
 -5.47096E+04 -5.72287E+04 -6.62028E+03 -7.95434E+04  3.46694E+04 -5.83078E+04  5.21480E+04 -1.95095E+04
  4.68998E+04  1.06030E+04  3.18754E+04  2.58675E+04  1.39574E+04  2.96943E+04 -4.10046E+03  2.92139E+04
 -2.25636E+04  1.25063E+04 -1.77479E+04 -5.17437E+03  8.99881E+03 -7.52872E+03  2.47961E+04  1.35692E+04
  5.61836E+03  3.91392E+04 -3.74642E+04  3.79075E+04 -6.57452E+04  2.55689E+03 -5.89537E+04 -4.59261E+04
 -1.08879E+04 -6.71573E+04  4.29057E+04 -4.89821E+04  6.24628E+04 -1.97907E+03  3.63615E+04  3.52978E+04
 -6.97628E+03  3.97014E+04 -3.14868E+04  1.92359E+04 -3.46052E+04 -4.60379E+03 -2.00765E+04 -1.20671E+04
 -1.09273E+04 -1.78843E+04 -7.64320E+02 -1.93988E+04  9.14398E+03 -2.32737E+04  1.62158E+04 -1.28810E+04
  9.72318E+03  5.74810E+03 -1.28944E+04  1.35422E+04 -2.41461E+04 -8.69558E+03 -9.02477E+03 -3.85179E+04
  2.45800E+04 -4.77286E+04  5.48759E+04 -1.92508E+04  4.78212E+04  2.13490E+04  1.91551E+04  4.86765E+04
 -1.76675E+04  3.71347E+04 -2.69486E+04  3.29593E+03 -1.20846E+04 -3.11437E+04  2.07127E+04 -3.77894E+04
  4.65779E+04 -1.20192E+04  4.28568E+04  2.71332E+04  2.30951E+04  5.18396E+04 -8.34744E+03  5.94592E+04
 -3.75835E+04  3.92330E+04 -5.07022E+04  1.40498E+04 -5.12698E+04 -1.97887E+04 -2.86910E+04 -4.51846E+04
  9.63965E+03 -4.43444E+04  3.58445E+04 -1.80774E+04  3.27085E+04  1.08002E+04  5.45751E+03  2.02311E+04
 -1.44653E+04  1.01974E+04 -1.04609E+04 -7.18975E+03  6.34890E+03 -1.21726E+04  1.81894E+04  5.29981E+03
  1.84590E+04  2.21596E+04 -4.10796E+03  2.65052E+04 -2.42387E+04  1.55493E+04 -3.20637E+04 -8.56998E+02
 -2.76638E+04 -1.85522E+04 -1.43151E+04 -2.89854E+04  4.16080E+03 -3.10445E+04  2.06028E+04 -2.49831E+04
  3.45516E+04 -1.34918E+04  3.98383E+04  4.99396E+03  2.92481E+04  2.63541E+04  4.78407E+03  4.27591E+04
 -1.92305E+04  3.62350E+04 -3.29446E+04  1.44498E+04 -2.26768E+04 -9.74782E+03 -5.15458E+03 -1.19156E+04
  1.56867E+03  1.64954E+02 -6.92827E+03  9.78625E+03 -2.23825E+04  7.11613E+03 -2.32303E+04 -1.30188E+04
 -1.18517E+04 -2.44002E+04  6.41808E+03 -2.95150E+04  2.08722E+04 -2.20837E+04  2.48628E+04 -2.02705E+03
  1.81520E+04  1.80320E+04 -2.09992E+02  2.63616E+04 -1.82127E+04  1.27293E+04 -2.50229E+04 -6.84243E+03
 -2.00023E+04 -2.46835E+04 -4.22802E+03 -3.14303E+04  1.34924E+04 -2.44640E+04  2.57699E+04 -1.25556E+04
  2.47334E+04 -8.23440E+02  1.70089E+04  5.29416E+03  9.86198E+03  1.62034E+03  1.43810E+04 -2.79658E+03
  2.39232E+04  1.87754E+03  3.03609E+04  1.94413E+04  1.96662E+04  4.07736E+04 -5.33188E+02  4.88243E+04
 -2.82704E+04  4.14525E+04 -4.82238E+04  2.00404E+04 -5.22354E+04 -2.21649E+03 -4.14815E+04 -3.09931E+04
 -1.60287E+04 -4.07277E+04  1.69397E+04 -3.65208E+04  3.14704E+04 -1.45478E+04  2.46157E+04  9.96927E+03
  8.71615E+03  1.98330E+04 -1.26310E+04  1.69170E+04 -2.24287E+04  1.63060E+03 -1.64740E+04 -1.45138E+04
  5.70276E+02 -2.05654E+04  1.04592E+04 -1.65917E+04  1.39061E+04 -3.32461E+03  2.17006E+03  8.23772E+03
 -1.07087E+04  2.43392E+03 -9.58202E+03 -8.07634E+03 -2.49632E+03 -2.22975E+04  1.47343E+04 -2.35491E+04
  2.60806E+04 -1.27471E+04  3.09219E+04  3.57538E+03  2.69416E+04  2.17759E+04  1.34245E+04  3.30192E+04
 -5.53567E+03  3.48367E+04 -2.60292E+04  2.18853E+04 -2.45343E+04  6.72426E+03 -1.70014E+04 -6.78687E+03
 -7.72961E+03 -8.81059E+03 -1.08767E+03  8.98379E+02 -2.50261E+03  4.12812E+03 -9.70971E+03  6.90040E+03
 -1.65097E+04 -6.89477E+02 -1.79206E+04 -1.25072E+04 -7.17145E+03 -2.02870E+04  5.27157E+03 -2.02215E+04
  1.47641E+04 -5.24341E+03  8.31641E+03  5.86225E+03 -2.73797E+03  7.45350E+03 -8.13693E+03 -6.40350E+01
 -8.50642E+03 -1.29222E+04 -2.09218E+03 -1.79435E+04  1.01432E+04 -2.02162E+04  2.32997E+04 -9.77954E+03
  2.78678E+04  3.61290E+03  1.82952E+04  1.81282E+04  2.71299E+03  1.94271E+04 -1.09236E+04  1.68763E+04
 -1.35727E+04  5.46958E+03 -5.78931E+03 -3.41824E+03  1.07771E+03 -5.12054E+03  1.13906E+04  5.38730E+02
  7.74360E+03  7.57402E+03  7.17813E+02  1.40164E+04 -1.04236E+04  1.37883E+04 -1.68039E+04  3.48568E+03
 -1.21501E+04 -9.70543E+03  6.89510E+02 -1.53708E+04  1.23679E+04 -9.30017E+03  1.08262E+04  3.67372E+03
  2.54350E+03  1.22281E+04 -8.86308E+03  1.38338E+04 -1.57982E+04  5.99868E+03 -1.85547E+04 -6.43394E+03
 -1.19249E+04 -1.87465E+04  4.49423E+03 -2.21417E+04  1.73714E+04 -1.21898E+04  2.01852E+04  3.67207E+03
  1.25876E+04  1.64145E+04 -3.10246E+03  1.82775E+04 -1.47968E+04  1.30679E+04 -1.47956E+04 -1.11643E+03
 -1.36653E+04 -1.54901E+04  2.45716E+02 -1.30845E+04  7.87733E+03 -1.11662E+04  9.60990E+03 -2.52114E+03
  5.53327E+03  3.55647E+03 -2.36916E+03  2.76298E+03 -2.43805E+03 -5.09078E+03  5.02346E+03 -9.34481E+03
  1.30109E+04 -7.33428E+03  2.03456E+04  2.06835E+03  1.84689E+04  1.43694E+04  1.06519E+04  3.07658E+04
 -5.89016E+03  3.11369E+04 -2.60143E+04  2.19812E+04 -3.18074E+04  3.68370E+03 -2.70669E+04 -1.22120E+04
 -1.17570E+04 -2.08660E+04  1.80966E+02 -1.76296E+04  6.88937E+03 -1.07300E+04  7.61748E+03 -7.11812E+03
  4.65485E+03 -4.26938E+03  3.68846E+03 -4.38154E+03  6.70700E+03 -5.06042E+03  1.08493E+04 -9.33709E+02
  1.08861E+04  2.52644E+03  8.74275E+03  1.19633E+04 -3.50832E+03  1.73606E+04 -1.47294E+04  1.10616E+04
 -2.17793E+04 -9.51532E+02 -1.21870E+04 -1.35803E+04 -1.27202E+03 -1.95783E+04  1.10373E+04 -1.92747E+04
  2.13919E+04 -1.19331E+04  2.52685E+04  4.20237E+03  1.57834E+04  1.80478E+04  3.25714E+03  2.30286E+04
 -9.38918E+03  1.51094E+04 -1.54167E+04  4.94700E+03 -8.37411E+03 -9.62418E+02 -4.74753E+03 -2.43520E+03
 -2.24186E+03 -1.00188E+03 -2.93246E+03  5.15886E+03 -7.84622E+03  2.28104E+03 -1.20468E+04 -2.31747E+03
 -8.42720E+03 -1.19113E+04 -1.29058E+03 -1.86985E+04  1.20357E+04 -1.75762E+04  1.94354E+04 -5.79275E+03
  1.98916E+04  9.32571E+03  1.05173E+04  1.51520E+04 -2.31305E+03  1.75067E+04 -1.25546E+04  1.10843E+04
 -1.73146E+04  2.38912E+03 -1.18716E+04 -1.12538E+04 -2.12411E+03 -1.73046E+04  7.06508E+03 -1.34916E+04
  1.17217E+04 -3.30571E+03  8.63473E+03  3.66466E+03  3.25613E+03  6.00006E+03  1.84721E+03  3.65721E+03
  2.38088E+03  1.83832E+03  4.52757E+03  1.29526E+03  5.00447E+03  6.17531E+03  5.24157E+03  1.11608E+04
 -4.63053E+03  1.50624E+04 -1.35552E+04  1.52087E+04 -2.22323E+04  1.61077E+03 -2.09313E+04 -8.40389E+03
 -8.35669E+03 -1.87205E+04  2.53521E+03 -2.08698E+04  1.32193E+04 -1.39151E+04  1.57076E+04 -4.07385E+03
  1.23984E+04  7.88787E+03  2.73462E+03  1.07818E+04 -6.54767E+03  6.38375E+03 -8.65854E+03 -1.44783E+03
 -3.59555E+03 -7.81040E+03  3.92401E+03 -8.61439E+03  9.05811E+03 -3.89731E+03  7.39995E+03  1.85861E+03
  5.60680E+03  5.86635E+03  8.77163E+02  5.65807E+03  1.74140E+01  2.74704E+03  8.65939E+02  3.63192E+02
  3.85062E+03 -2.80630E+02  8.66442E+03  2.16925E+03  6.53169E+03  9.96112E+03 -9.17861E+02  1.34053E+04
 -8.97415E+03  1.14064E+04 -1.25405E+04  2.21609E+03 -1.18719E+04 -4.18506E+03 -4.71552E+03 -1.10531E+04
  1.64493E+02 -7.14995E+03  5.47008E+03 -4.89562E+03  5.50550E+03  3.39739E+03 -3.17132E+03  8.93401E+03
 -6.90861E+03  4.17431E+03 -1.01703E+04 -4.66696E+03 -4.23324E+03 -1.34807E+04  2.30032E+03 -1.18633E+04
  7.40593E+03 -7.98900E+03  1.17063E+04 -1.34279E+03  7.54943E+03  3.67616E+03  5.55692E+02  6.14396E+03
 -4.42805E+03  3.92602E+03 -5.57517E+03 -5.58403E+03  1.34154E+03 -8.08491E+03  1.02589E+04 -8.58530E+03
  1.51184E+04  1.04020E+03  1.26693E+04  8.43870E+03  4.11592E+03  1.46206E+04 -6.11358E+03  1.46692E+04
 -1.04082E+04  7.26045E+03 -8.98740E+03 -2.26983E+03 -6.78557E+03 -8.97969E+03  3.36295E+03 -8.22925E+03
  9.13187E+03 -3.44632E+03  7.33396E+03  3.56828E+03  2.62734E+03  8.33475E+03 -2.51858E+03  4.85954E+03
 -4.30551E+03  3.92397E+03 -3.34109E+03  2.47767E+03 -1.99986E+03  3.44705E+02 -2.75992E+03  1.42344E+03
 -4.86562E+03  4.56781E+03 -9.57302E+03  5.76797E+03 -1.59739E+04  2.54509E+02 -1.56542E+04 -1.02883E+04
 -7.81173E+03 -1.90956E+04  4.32258E+03 -2.40860E+04  1.40080E+04 -1.72266E+04  2.11541E+04 -6.23038E+03
  2.07497E+04  4.85083E+03  1.27067E+04  1.31432E+04  2.40646E+03  1.35175E+04 -6.64535E+03  1.07000E+04
 -8.93099E+03  5.71523E+03 -3.69899E+03 -1.85986E+03 -1.60996E+03  8.27542E+02 -2.81369E+03 -1.70624E+03
 -2.33854E+03  3.62451E+03 -3.32422E+03 -1.09673E+03 -3.54683E+03 -3.12100E+03 -1.21212E+02 -4.93341E+03
  5.55508E+03 -5.46953E+03  1.11993E+04 -1.19911E+02  1.07629E+04  7.91210E+03  3.43643E+03  1.63853E+04
 -7.32964E+03  1.66918E+04 -1.71723E+04  1.02025E+04 -1.88308E+04 -4.78063E+02 -1.32614E+04 -1.14941E+04
 -5.55696E+03 -1.63340E+04  4.93611E+03 -1.48558E+04  9.64050E+03 -8.10606E+03  1.12084E+04 -4.03238E+02
  7.42337E+03  7.15419E+03 -2.24596E+03  4.11636E+03 -2.39156E+03 -3.16645E+02  8.72946E+02 -2.99758E+03
  7.00443E+03 -1.54160E+03  4.89601E+03  1.08356E+03  4.27981E+03  6.83502E+03 -1.43079E+03  9.13497E+03
 -8.34593E+03  6.02633E+03 -1.00831E+04  1.21951E+03 -8.92029E+03 -7.54769E+03 -1.30111E+03 -1.32363E+04
  7.04713E+03 -1.22258E+04  1.04150E+04 -3.60677E+03  1.17302E+04  4.89395E+03  8.27785E+03  1.07346E+04
 -2.51859E+02  1.21331E+04 -4.34303E+03  6.35107E+03 -8.19617E+03  5.56683E+03 -5.02536E+03  1.08432E+03
 -3.44177E+03 -9.50882E+02 -5.08323E+03  1.46040E+03 -3.97726E+03  1.81998E+03 -8.46176E+03 -2.85723E+03
 -8.75025E+03 -5.51292E+03 -2.26440E+03 -1.02273E+04  4.24496E+03 -1.00946E+04  9.29995E+03 -5.66264E+03
  1.02702E+04  1.61824E+03  9.45553E+03  9.23355E+03 -1.33900E+03  1.11800E+04 -8.27135E+03  6.95642E+03
