 $NMID ID='MM_0lb_SNR200_16hz_g50_42.RAW', FMTDAT='(8E13.5)'
 TRAMP=1., VOLUME=1. $END
  3.08600E+05  6.78038E+02  3.37700E+05  2.50847E+05  8.51874E+04  3.38231E+05 -1.31645E+05  2.51927E+05
 -1.90266E+05  8.27153E+04 -1.11338E+05 -3.31690E+04  1.42352E+03 -5.01980E+04  5.27695E+04  5.99803E+02
  3.61238E+04  5.25596E+04 -1.66544E+04  7.60863E+04 -6.02291E+04  6.33861E+04 -8.36880E+04  3.17856E+04
 -8.02502E+04 -1.10684E+04 -5.62373E+04 -5.12474E+04 -1.34442E+04 -6.85093E+04  2.81010E+04 -4.61081E+04
  4.04320E+04  3.01064E+03  1.56436E+04  4.77086E+04 -3.46895E+04  4.73583E+04 -6.68871E+04  5.14380E+01
 -5.20336E+04 -5.60992E+04 -7.52338E+03 -7.67910E+04  3.36881E+04 -5.50019E+04  4.76843E+04 -1.60149E+04
  4.29906E+04  1.16029E+04  3.08112E+04  2.50164E+04  1.66241E+04  2.89964E+04 -6.42111E+03  2.72523E+04
 -2.10322E+04  1.24185E+04 -1.93997E+04 -3.14914E+03  4.74326E+03 -8.90072E+03  2.26201E+04  1.21592E+04
  6.95516E+03  3.46124E+04 -3.06404E+04  3.59948E+04 -6.24957E+04  1.58278E+03 -5.71067E+04 -4.37866E+04
 -1.27315E+04 -6.33836E+04  3.94148E+04 -4.40822E+04  5.69819E+04 -2.11889E+03  3.30988E+04  3.19355E+04
 -6.59723E+03  3.45046E+04 -2.96892E+04  1.53259E+04 -2.90636E+04 -4.78582E+03 -1.51197E+04 -1.02201E+04
 -6.92048E+03 -1.26208E+04 -1.45879E+03 -1.69701E+04  7.55947E+03 -2.22968E+04  1.47974E+04 -1.31444E+04
  1.12499E+04  5.72931E+03 -8.21248E+03  1.31267E+04 -2.11294E+04 -4.30257E+03 -7.28240E+03 -3.20530E+04
  2.19421E+04 -4.26313E+04  4.60933E+04 -1.99037E+04  4.43310E+04  1.77819E+04  1.51170E+04  4.37648E+04
 -1.68997E+04  3.24230E+04 -2.43005E+04  2.65939E+03 -9.46137E+03 -2.72493E+04  2.09958E+04 -3.35394E+04
  4.08274E+04 -9.17681E+03  3.36706E+04  2.35425E+04  1.80240E+04  4.54325E+04 -7.79244E+03  4.76164E+04
 -3.02617E+04  3.24766E+04 -4.05855E+04  9.48631E+03 -4.12644E+04 -1.62648E+04 -2.18252E+04 -3.58093E+04
  7.04544E+03 -3.53881E+04  3.22338E+04 -1.43929E+04  2.84664E+04  1.10451E+04  3.90627E+03  1.82342E+04
 -1.35078E+04  6.78865E+03 -1.07591E+04 -7.65418E+03  6.17994E+03 -9.99821E+03  1.69837E+04  5.51022E+03
  1.35374E+04  2.11674E+04 -5.93379E+03  2.47840E+04 -2.22974E+04  1.01667E+04 -2.65539E+04 -6.32587E+03
 -1.86911E+04 -1.74557E+04 -6.86936E+03 -1.84668E+04  4.01717E+03 -1.67933E+04  1.50055E+04 -1.73451E+04
  2.47416E+04 -1.20032E+04  3.08000E+04  3.44694E+03  2.26332E+04  1.88786E+04  3.23693E+03  3.48263E+04
 -1.76786E+04  2.93254E+04 -2.77377E+04  9.05620E+03 -2.08249E+04 -1.09723E+04 -4.32051E+03 -1.28215E+04
  1.42449E+03 -3.57624E+03 -4.31676E+03  5.95720E+03 -1.45511E+04  4.63117E+03 -1.61436E+04 -6.43033E+03
 -9.49958E+03 -1.68133E+04  3.97223E+03 -2.21564E+04  1.34838E+04 -1.59377E+04  1.61648E+04 -1.10928E+03
  1.06797E+04  1.30447E+04 -5.23122E+02  1.81302E+04 -1.34970E+04  1.02996E+04 -1.65275E+04 -3.52366E+03
 -1.20929E+04 -1.55544E+04 -1.62777E+03 -2.10647E+04  1.05144E+04 -1.78945E+04  1.92468E+04 -7.35700E+03
  1.70559E+04  6.35316E+02  1.13857E+04  5.06452E+03  5.57140E+03  4.29813E+02  9.45650E+03 -1.27870E+03
  1.64147E+04  2.13278E+03  1.69960E+04  1.51810E+04  1.11444E+04  2.76962E+04 -3.32974E+03  3.14958E+04
 -1.74562E+04  2.37464E+04 -2.72885E+04  1.27623E+04 -2.89518E+04 -2.41610E+03 -2.40020E+04 -1.63956E+04
 -1.10246E+04 -2.39934E+04  8.01784E+03 -2.23863E+04  2.02133E+04 -1.18701E+04  1.85458E+04  4.69544E+03
  6.36308E+03  1.26865E+04 -8.48706E+03  1.03071E+04 -1.55495E+04  3.44019E+03 -1.11188E+04 -9.26989E+03
  5.48854E+02 -1.25469E+04  7.08649E+03 -1.00999E+04  1.04204E+04 -1.49274E+03  8.75406E+02  4.69709E+03
 -5.47991E+03  2.19973E+03 -6.31874E+03 -6.00635E+03 -4.61157E+02 -1.13600E+04  7.57104E+03 -1.20446E+04
  1.53624E+04 -6.52746E+03  1.49624E+04  2.69111E+03  1.34641E+04  1.11464E+04  4.93439E+03  1.75836E+04
 -2.60167E+03  1.94359E+04 -1.32989E+04  1.20102E+04 -1.44557E+04  3.05393E+03 -1.01327E+04 -3.22159E+03
 -4.88224E+03 -4.50106E+03 -9.43393E+02  1.13729E+03 -2.81669E+03  2.46818E+03 -3.94650E+03  3.22792E+03
 -1.01232E+04 -1.30622E+03 -1.10581E+04 -9.45842E+03 -3.36583E+03 -1.32616E+04  4.85772E+03 -9.69144E+03
  7.91695E+03 -4.63135E+03  5.87065E+03  2.62252E+03  1.58599E+02  4.33839E+03 -4.20005E+03 -5.29518E+02
 -5.27878E+03 -6.88121E+03 -4.81256E+02 -9.73085E+03  5.15205E+03 -1.01954E+04  1.20249E+04 -5.42060E+03
  1.56558E+04  1.66998E+03  1.08716E+04  8.03395E+03  2.59217E+03  1.05834E+04 -5.90254E+03  1.09571E+04
 -8.73656E+03  2.41287E+03 -3.73504E+03 -8.86929E+02  8.48222E+02 -3.30268E+03  4.89417E+03 -5.41945E+02
  4.38903E+03  4.57679E+03  1.08355E+03  8.80892E+03 -5.00346E+03  7.27246E+03 -9.32697E+03  2.46652E+03
 -6.48790E+03 -3.57826E+03  1.25857E+03 -7.25540E+03  3.85475E+03 -3.65593E+03  4.34454E+03  1.66178E+03
  5.57409E+02  3.70373E+03 -4.96612E+03  6.55454E+03 -7.22338E+03  3.22586E+03 -6.98541E+03 -1.92468E+03
 -3.85060E+03 -7.37576E+03  1.93793E+03 -9.19463E+03  9.53633E+03 -5.59014E+03  8.65794E+03  1.95440E+03
  5.36370E+03  7.17070E+03  7.90378E+02  9.71491E+03 -6.73348E+03  4.76636E+03 -7.25475E+03  3.57274E+02
 -6.14628E+03 -6.51314E+03 -2.53627E+03 -6.22722E+03  3.11621E+03 -6.29323E+03  4.30937E+03 -2.57434E+03
  3.16778E+03  1.23546E+02 -2.06321E+02  1.98168E+03  3.91962E+02 -1.87005E+02  8.15148E+02 -2.42992E+03
  5.91357E+03 -3.96738E+02  7.24849E+03  1.33409E+03  6.95009E+03  3.60865E+03  5.55730E+03  1.04755E+04
 -1.75680E+03  1.09943E+04 -9.81170E+03  8.52945E+03 -1.14001E+04  1.28482E+03 -9.23046E+03 -4.07648E+03
 -4.99346E+03 -7.74730E+03 -3.40635E+02 -7.14720E+03  3.56141E+03 -3.62153E+03  2.48393E+03 -2.39529E+03
  1.06178E+03 -2.06569E+03  1.43711E+03 -3.05554E+03  4.60043E+03 -1.86662E+03  3.86996E+03  3.29563E+02
  5.61514E+03  1.09535E+03  2.13160E+03  5.17754E+03 -2.06703E+03  5.03550E+03 -6.74361E+03  3.96738E+03
 -7.40095E+03 -1.42261E+03 -2.27593E+03 -4.95119E+03 -1.00101E+03 -7.23666E+03  4.17928E+03 -6.36805E+03
  7.39569E+03 -4.70175E+03  9.48328E+03  3.12214E+02  5.08598E+03  5.77193E+03  5.30328E+02  8.31640E+03
 -2.69201E+03  7.70702E+03 -4.82291E+03  2.11036E+03 -3.18409E+03 -3.58949E+02 -1.13801E+03 -4.14664E+02
 -2.77793E+01 -9.73174E+02 -2.16237E+03  1.76590E+03 -2.62095E+03  1.26921E+03 -4.84616E+03 -1.84672E+03
 -2.16084E+03 -5.78611E+03  3.63919E+02 -6.69636E+03  2.78940E+03 -5.56761E+03  6.17777E+03 -1.71519E+02
  6.09077E+03  2.57992E+03  3.34112E+03  5.55775E+03 -8.48083E+02  5.08647E+03 -4.61290E+03  4.39632E+03
 -4.11336E+03  3.93890E+02 -4.59556E+03 -2.94648E+03 -1.17430E+03 -5.17857E+03  1.79907E+03 -3.59998E+03
  4.05161E+03 -1.59026E+03  2.18981E+03  1.77567E+03  8.82434E+02  2.04762E+03  9.16807E+02  5.93094E+02
  2.12615E+03  1.24353E+03  2.09306E+03  3.70496E+02  2.16111E+03  2.49281E+03  2.60683E+03  3.47719E+03
 -1.30230E+03  4.92144E+03 -4.41275E+03  4.96933E+03 -4.23282E+03  1.37964E+03 -5.38190E+03 -1.55817E+03
 -3.27636E+03 -5.27797E+03  1.11756E+03 -5.92699E+03  3.35249E+03 -4.10598E+03  4.22053E+03 -1.00488E+03
  3.65937E+03  2.61292E+03  4.43554E+02  2.64254E+03 -1.04574E+03  8.44899E+02 -2.01018E+03 -1.61009E+02
 -8.73988E+02 -1.37567E+03  1.90039E+03 -1.42962E+03  2.86781E+03 -9.83042E+02  5.64217E+02 -1.59361E+02
  1.30494E+03  2.91848E+02  6.50997E+02  7.35384E+02 -8.75842E+02  8.14591E+02  1.70314E+03 -4.86707E+02
  3.42142E+01 -1.97092E+02  2.71031E+03  3.04179E+03  1.28716E+03  2.68256E+03 -4.66628E+02  4.62473E+03
 -2.69013E+03  1.66515E+03 -3.06028E+03 -4.67922E+01 -2.75321E+03  7.83065E+02 -1.72299E+02 -2.20561E+03
  4.07157E+02 -1.36436E+03  1.37971E+03 -8.53434E+02  9.36395E+02  1.96742E+03 -7.78143E+02  1.73830E+03
 -1.93395E+03  1.03669E+03 -1.41321E+03 -2.44484E+03 -2.06800E+03 -4.14310E+03 -8.88255E+02 -2.93269E+03
  2.19842E+03 -6.66678E+02  1.16539E+03  2.52356E+02  1.69876E+03 -3.07049E+02  6.80839E+02  5.88750E+02
 -1.08863E+03  2.16769E+02 -1.11658E+03 -9.93236E+02 -3.22849E+02 -1.13231E+03  1.93408E+03 -1.87956E+03
  3.42181E+03  8.02986E+02  4.36930E+03  9.41875E+02  6.99930E+02  2.43205E+03 -1.27727E+03  2.26142E+03
 -2.57088E+03  3.23928E+02 -2.88212E+03 -1.28235E+03 -7.12563E+02 -1.68823E+03  2.50646E+02 -1.01472E+03
  2.95965E+03 -9.67056E+02  1.19527E+03  2.03752E+03  5.77704E+02  9.09353E+02 -7.70154E+01  1.60993E+03
  2.72617E+02  1.92791E+03 -4.60854E+02 -4.52740E+02 -2.12108E+02  6.13696E+02 -1.86357E+03  7.60116E+02
 -1.62215E+02  9.85115E+02 -1.96774E+03  1.01623E+03 -2.50804E+03  8.92537E+02 -3.91624E+03 -9.58509E+02
 -1.96389E+03 -4.12891E+03  5.49275E+02 -4.92125E+03  2.21122E+03 -4.10539E+03  4.41946E+03 -1.22822E+03
  3.93658E+03  2.45433E+02  1.77630E+03  2.32938E+03 -6.00360E+01  2.40406E+03 -5.44546E+02  2.25935E+03
 -8.88818E+02  1.72237E+03 -8.43644E+02 -3.70241E+02 -1.68537E+02  1.45523E+02 -1.22628E+03 -9.41742E+02
 -1.38819E+03  3.70231E+02 -1.59350E+03 -1.50814E+02  6.38067E+02 -9.44167E+02 -6.48361E+02 -1.09751E+03
  1.14184E+03 -2.49370E+03  2.73648E+03  5.41518E+02  2.34425E+03  1.47785E+03  3.99490E+01  2.26263E+03
 -2.89832E+03  4.38620E+03 -3.09213E+03  1.74113E+03 -2.71594E+03 -3.53042E+02 -2.22332E+03 -3.03704E+03
 -6.25931E+01 -3.17680E+03  1.38414E+02 -2.93759E+03  1.63609E+02 -1.61112E+03  9.13861E+02  5.06981E+02
  6.97626E+02  1.10865E+03  1.36153E+03  3.00102E+02 -1.79314E+02  3.52718E+02 -1.49960E+02 -9.04414E+02
  1.13744E+03  9.86554E+02  2.74329E+02  9.64055E+02  1.54101E+02  3.03796E+02 -2.96637E+00  3.73879E+02
 -2.35975E+03  6.99464E+02 -9.41317E+02 -7.13207E+02 -1.06204E+03  1.23178E+01  2.56994E+02 -3.28652E+03
  9.70071E+02 -7.40559E+02  5.47054E+02 -3.32133E+02  1.76075E+03 -2.09242E+02  1.22075E+03  1.24372E+03
  2.85297E+02  8.68470E+02 -1.64478E+02  1.83524E+03 -1.15121E+03  1.61756E+02 -2.14409E+03  4.18504E+02
 -5.54158E+02  3.55852E+02 -9.94666E+02  8.84869E+02  1.85017E+02  1.13531E+03 -8.80980E+02 -8.38852E+02
 -4.79540E+02  5.71950E+02  1.87337E+02 -1.36256E+02  1.36044E+03 -2.24264E+03  2.26337E+03 -4.12263E+02
  8.44137E+02 -7.50685E+02 -5.37611E+02  1.52451E+03  4.97221E+02  2.26887E+03 -1.11417E+03  8.92519E+02
