 $NMID ID='MM_0lb_SNR200_8hz_g45_96.RAW', FMTDAT='(8E13.5)'
 TRAMP=1., VOLUME=1. $END
  3.09861E+05 -1.04465E+03  3.36601E+05  2.51803E+05  8.53165E+04  3.41033E+05 -1.33718E+05  2.52837E+05
 -1.90198E+05  8.34783E+04 -1.10314E+05 -3.38887E+04  9.51373E+02 -5.20559E+04  5.40989E+04 -4.89831E+02
  3.47781E+04  5.32240E+04 -1.51631E+04  7.59520E+04 -6.04418E+04  6.55687E+04 -8.58119E+04  3.34728E+04
 -8.19542E+04 -1.25937E+04 -5.61452E+04 -5.35847E+04 -1.58473E+04 -7.03725E+04  2.78888E+04 -4.53573E+04
  4.15014E+04  2.91152E+03  1.57936E+04  4.79295E+04 -3.43685E+04  4.84121E+04 -6.79787E+04 -1.00565E+02
 -5.42139E+04 -5.87761E+04 -6.96025E+03 -7.90794E+04  3.36114E+04 -5.77767E+04  5.04570E+04 -1.74191E+04
  4.65133E+04  1.24485E+04  3.33652E+04  2.73640E+04  1.56551E+04  2.97089E+04 -5.09930E+03  2.72651E+04
 -2.38097E+04  1.26113E+04 -1.89908E+04 -5.33534E+03  8.42969E+03 -6.22693E+03  2.45084E+04  1.36414E+04
  4.66261E+03  3.73498E+04 -3.36116E+04  3.76099E+04 -6.35007E+04  2.04947E+03 -6.10121E+04 -4.72775E+04
 -1.16588E+04 -6.57974E+04  4.18756E+04 -4.72259E+04  6.03369E+04 -2.41280E+03  3.83470E+04  3.56393E+04
 -4.83415E+03  4.10698E+04 -3.19248E+04  1.60410E+04 -3.45772E+04 -2.11604E+03 -1.91367E+04 -1.12972E+04
 -1.14437E+04 -1.57470E+04 -6.81125E+02 -2.05455E+04  9.01658E+03 -2.28751E+04  1.68021E+04 -1.28344E+04
  9.41358E+03  7.07782E+03 -1.16897E+04  1.41356E+04 -2.41161E+04 -6.41379E+03 -8.89717E+03 -3.74406E+04
  2.68149E+04 -4.85705E+04  5.02954E+04 -1.91003E+04  5.10182E+04  2.20969E+04  1.78183E+04  4.68827E+04
 -1.62567E+04  3.60939E+04 -2.84113E+04  2.77272E+03 -1.31518E+04 -2.99683E+04  2.16621E+04 -3.70736E+04
  4.72733E+04 -1.02657E+04  4.18425E+04  2.57099E+04  2.11587E+04  5.10160E+04 -7.77527E+03  5.60269E+04
 -3.67538E+04  3.99974E+04 -4.91335E+04  1.02177E+04 -4.84939E+04 -2.01287E+04 -2.63232E+04 -4.26438E+04
  8.34784E+03 -4.30903E+04  3.53713E+04 -1.65274E+04  2.89074E+04  1.24132E+04  5.50807E+03  2.13608E+04
 -1.35291E+04  9.93173E+03 -1.28229E+04 -7.62118E+03  3.92306E+03 -1.06799E+04  1.87065E+04  5.47827E+03
  1.46189E+04  2.24583E+04 -7.32217E+03  2.67899E+04 -2.28960E+04  1.38904E+04 -3.33981E+04 -1.98460E+03
 -2.53794E+04 -1.72781E+04 -1.15215E+04 -2.65035E+04  3.12611E+03 -2.59674E+04  1.87163E+04 -2.37996E+04
  3.40283E+04 -1.39245E+04  3.96627E+04  4.08677E+03  2.86856E+04  2.50610E+04  5.70503E+03  4.09521E+04
 -2.03251E+04  3.42166E+04 -2.95673E+04  1.29025E+04 -2.21752E+04 -1.17906E+04 -5.62636E+03 -1.23173E+04
  1.41396E+01 -2.53518E+03 -6.58535E+03  9.18902E+03 -1.90918E+04  4.04374E+03 -2.14678E+04 -9.66885E+03
 -1.17301E+04 -2.38061E+04  5.95344E+03 -2.91033E+04  1.82038E+04 -2.01841E+04  2.18241E+04 -1.98727E+03
  1.57668E+04  1.64495E+04 -1.69880E+03  2.23957E+04 -1.73080E+04  1.33341E+04 -2.46397E+04 -4.07419E+03
 -1.78818E+04 -2.15224E+04 -2.72720E+03 -2.97875E+04  1.33982E+04 -2.31082E+04  2.32593E+04 -1.19610E+04
  2.24279E+04  6.57166E+02  1.60810E+04  4.53008E+03  9.64653E+03  5.75263E+02  1.12528E+04 -3.48321E+03
  2.39820E+04  4.03555E+03  2.71134E+04  1.87832E+04  1.90987E+04  3.90550E+04 -3.24580E+03  4.42082E+04
 -2.45513E+04  3.70460E+04 -4.35383E+04  1.97260E+04 -4.72515E+04 -4.04062E+03 -3.75952E+04 -2.70752E+04
 -1.42088E+04 -3.74366E+04  1.27832E+04 -3.31784E+04  2.72024E+04 -1.59038E+04  2.50383E+04  8.66121E+03
  9.76655E+03  1.93509E+04 -1.25018E+04  1.61869E+04 -2.22448E+04  3.05893E+03 -1.46617E+04 -1.38843E+04
 -2.22221E+03 -1.97874E+04  1.01292E+04 -1.34174E+04  1.31013E+04 -1.75661E+02  3.74338E+03  1.05039E+04
 -9.78191E+03  4.95130E+03 -9.19239E+03 -6.03606E+03 -1.53921E+03 -1.63862E+04  1.21523E+04 -2.29284E+04
  2.43857E+04 -1.23641E+04  2.66295E+04  3.14234E+03  2.40689E+04  1.92285E+04  1.06661E+04  3.22077E+04
 -6.65684E+03  3.26799E+04 -2.05881E+04  2.18710E+04 -2.45037E+04  2.48073E+03 -1.46022E+04 -7.12464E+03
 -5.04052E+03 -4.75503E+03 -2.97013E+03  1.53261E+02 -2.69865E+03  3.53873E+03 -7.48877E+03  5.72968E+03
 -1.47821E+04 -1.38146E+03 -1.63524E+04 -1.32643E+04 -6.27541E+03 -1.93112E+04  6.23488E+03 -1.66005E+04
  1.37610E+04 -6.94868E+03  9.37134E+03  3.53848E+03 -7.33249E+02  8.23370E+03 -7.38177E+03  4.37271E+02
 -7.44752E+03 -9.13392E+03 -1.12825E+03 -1.71775E+04  9.41979E+03 -1.56131E+04  2.22210E+04 -9.64950E+03
  2.34687E+04  2.02529E+03  1.61862E+04  1.58973E+04  3.53017E+03  1.95878E+04 -1.06561E+04  1.55592E+04
 -1.41687E+04  5.41597E+03 -5.90079E+03 -4.52668E+03  3.34349E+03 -6.75288E+03  9.84026E+03 -2.75425E+03
  6.46694E+03  7.19787E+03  3.27057E+03  1.13790E+04 -9.50343E+03  1.34054E+04 -1.72516E+04  3.21811E+03
 -1.06595E+04 -8.95075E+03 -6.51497E+02 -1.52579E+04  8.79052E+03 -7.75575E+03  9.07469E+03  4.52575E+03
  3.38152E+03  9.19377E+03 -8.54863E+03  1.31478E+04 -1.34221E+04  5.69910E+03 -1.56475E+04 -5.60599E+03
 -8.55598E+03 -1.66149E+04  4.35687E+03 -1.98745E+04  1.67995E+04 -1.05069E+04  1.67977E+04  2.89360E+03
  9.42948E+03  1.25971E+04 -2.75559E+03  1.86164E+04 -1.23356E+04  1.05052E+04 -1.30070E+04 -9.48763E+02
 -1.19393E+04 -1.12353E+04  3.89812E+02 -1.30290E+04  5.36077E+03 -1.04206E+04  7.49485E+03 -3.27567E+03
  3.24714E+03  2.64466E+03 -1.25061E+03  1.41125E+03 -1.72281E+03 -3.98110E+03  2.37899E+03 -6.31417E+03
  1.22276E+04 -5.63986E+03  1.84796E+04  2.29119E+03  1.63096E+04  1.17095E+04  1.00478E+04  2.17971E+04
 -4.38803E+03  2.54318E+04 -2.01422E+04  1.81270E+04 -2.88288E+04  3.21270E+03 -2.32323E+04 -9.33921E+03
 -1.08322E+04 -1.89970E+04 -8.23010E+02 -1.52618E+04  7.63208E+03 -8.09901E+03  5.66292E+03 -6.02764E+03
  3.03346E+03 -1.69455E+03  3.63587E+03 -3.96560E+03  7.07802E+03 -2.88668E+03  7.49355E+03 -2.46329E+03
  9.93147E+03  1.49244E+03  5.13963E+03  1.01483E+04 -1.44387E+03  1.21166E+04 -1.20866E+04  8.91742E+03
 -1.55171E+04 -8.94012E+02 -1.11455E+04 -1.04094E+04 -6.05352E+02 -1.74680E+04  9.26828E+03 -1.65295E+04
  1.83453E+04 -9.07704E+03  2.17954E+04  5.42076E+03  1.45327E+04  1.47340E+04  1.81389E+03  1.74711E+04
 -8.91224E+03  1.63961E+04 -1.17364E+04  5.98133E+03 -7.41595E+03 -1.40415E+03 -2.93591E+03 -2.00373E+03
 -1.55273E+03  2.68834E+03 -2.65940E+03  2.41260E+03 -6.83808E+03  2.73399E+03 -1.10085E+04 -2.21353E+03
 -8.82868E+03 -1.07032E+04  5.96251E+02 -1.68107E+04  8.81044E+03 -1.45652E+04  1.56111E+04 -2.99146E+03
  1.74721E+04  5.40849E+03  7.32083E+03  1.52686E+04 -3.45348E+03  1.62104E+04 -1.17932E+04  1.06210E+04
 -1.45810E+04  4.27140E+02 -1.09639E+04 -8.78311E+03 -1.02818E+03 -1.16987E+04  5.77185E+03 -9.35463E+03
  8.79105E+03 -2.43638E+03  6.64640E+03  3.87977E+03  2.67364E+03  4.69700E+03  1.97739E+03  1.74435E+03
  3.82053E+03  9.54519E+02  4.39741E+03  1.23804E+03  5.30426E+03  5.26422E+03  4.60347E+03  7.64828E+03
 -4.43532E+03  1.24042E+04 -1.31036E+04  1.26581E+04 -1.80454E+04  4.11417E+03 -1.70609E+04 -7.17745E+03
 -7.69469E+03 -1.69301E+04  2.37399E+03 -1.85820E+04  1.07436E+04 -1.15684E+04  1.22841E+04 -2.97913E+03
  8.56648E+03  7.50451E+03  3.00669E+03  1.07893E+04 -5.84904E+03  6.14585E+03 -7.18028E+03 -6.01874E+02
 -2.98790E+03 -6.71552E+03  2.50892E+03 -6.90265E+03  7.35826E+03 -2.41350E+03  6.29506E+03  4.70599E+03
  2.39702E+03  1.03897E+03  2.12692E+03  2.86913E+03 -2.37915E+03  1.33909E+03  2.23322E+03 -3.32587E+02
  2.11748E+03 -1.63268E+03  9.39010E+03  2.47582E+03  5.66157E+03  7.55297E+03 -1.41351E+03  1.18489E+04
 -9.12569E+03  7.67035E+03 -1.01620E+04  1.09711E+03 -8.80963E+03 -4.61827E+03 -4.08202E+03 -7.29717E+03
  7.04945E+02 -6.98857E+03  3.44744E+03 -3.31299E+03  5.33049E+03  3.15244E+03 -2.56014E+03  5.06535E+03
 -6.34746E+03  4.31530E+03 -8.20119E+03 -3.67868E+03 -6.02228E+03 -9.19539E+03  1.64324E+03 -9.62562E+03
  5.48177E+03 -5.08510E+03  8.45413E+03 -1.33402E+03  6.66790E+03  9.29602E+02  9.74389E+02  4.04893E+03
 -3.39729E+03  1.97633E+03 -4.89661E+03 -2.46315E+03  6.51364E+02 -6.62477E+03  8.76093E+03 -6.63434E+03
  1.05001E+04 -8.45388E+02  1.13850E+04  7.79675E+03  3.90017E+03  7.97437E+03 -4.21310E+03  1.21528E+04
 -9.42213E+03  3.60577E+03 -9.92973E+03 -1.80994E+03 -4.89177E+03 -5.81165E+03  5.54199E+02 -7.96955E+03
  7.70042E+03 -4.26435E+03  6.97460E+03  3.05298E+03  1.59831E+03  6.23758E+03 -1.25656E+03  5.92715E+03
 -3.17423E+03  2.57769E+03 -3.91523E+03  2.10081E+03 -8.77817E+02  4.69325E+02 -5.21183E+02  3.01757E+03
 -1.56045E+03  4.60935E+03 -6.52921E+03  3.97716E+03 -9.58779E+03 -1.80651E+01 -1.16947E+04 -7.87793E+03
 -7.33323E+03 -1.55738E+04  2.63584E+03 -1.72806E+04  1.15767E+04 -1.34284E+04  1.76045E+04 -4.77320E+03
  1.54469E+04  2.47065E+03  9.34879E+03  1.09402E+04  1.98366E+03  1.34628E+04 -4.65917E+03  9.90714E+03
 -7.99065E+03  3.16149E+03 -3.30061E+03 -3.62550E+03 -1.61357E+03 -3.05707E+03  8.30579E+02 -8.86456E+01
 -9.05102E+02 -1.44563E+02 -2.78629E+03 -7.46858E+02 -9.62104E+02 -4.06255E+03 -5.94214E+02 -3.49686E+03
  5.56676E+03 -4.23999E+03  8.45965E+03 -1.03739E+03  7.83729E+03  6.33895E+03  2.84122E+03  1.10380E+04
 -5.26278E+03  1.40083E+04 -1.38135E+04  8.57298E+03 -1.43641E+04 -1.42051E+03 -1.05272E+04 -8.26154E+03
 -4.22686E+03 -1.22317E+04  3.63989E+03 -1.02408E+04  7.87679E+03 -5.98925E+03  7.58137E+03 -3.50853E+02
  3.02721E+03  4.50320E+03  1.03939E+02  4.53642E+03 -3.05364E+03 -6.82946E+02 -4.22401E+02 -3.22255E+03
  3.65316E+03 -2.51433E+03  4.80713E+03  2.66671E+03  2.72437E+03  4.62960E+03 -3.31300E+02  5.77220E+03
 -4.51097E+03  5.06331E+03 -7.90943E+03  1.40850E+03 -6.26481E+03 -5.47125E+03 -1.93463E+03 -9.55088E+03
  5.62205E+03 -7.80867E+03  9.30666E+03 -3.35114E+03  9.94932E+03  2.95217E+03  4.91813E+03  8.06427E+03
  1.97170E+03  9.27776E+03 -4.65253E+03  7.63309E+03 -4.50860E+03  3.92258E+03 -3.89995E+03 -1.86598E+02
 -4.84654E+02 -5.93743E+02 -1.85329E+03  1.25273E+03 -3.95077E+03  1.80243E+03 -6.89767E+03 -1.63589E+03
 -7.91367E+03 -2.59128E+03 -2.15414E+03 -8.63899E+03  3.74552E+03 -8.68438E+03  6.78939E+03 -2.66017E+03
  8.95733E+03 -1.46705E+03  6.24910E+03  6.34039E+03  5.21294E+02  9.58719E+03 -7.21953E+03  4.92389E+03
