 $NMID ID='MM_0lb_SNR200_7hz_g50_16.RAW', FMTDAT='(8E13.5)'
 TRAMP=1., VOLUME=1. $END
  3.09318E+05 -2.27957E+03  3.37641E+05  2.50896E+05  8.37787E+04  3.38471E+05 -1.32225E+05  2.52570E+05
 -1.91895E+05  8.46747E+04 -1.11288E+05 -3.13003E+04  1.53348E+03 -4.95171E+04  5.45017E+04 -6.66097E+02
  3.54896E+04  5.35744E+04 -1.86005E+04  7.42191E+04 -6.35761E+04  6.32343E+04 -8.61538E+04  3.06296E+04
 -8.29409E+04 -1.36797E+04 -5.84619E+04 -5.21284E+04 -1.39356E+04 -7.09214E+04  2.73575E+04 -4.68954E+04
  4.04736E+04  5.77509E+03  1.71437E+04  4.86021E+04 -3.41646E+04  4.94850E+04 -6.73550E+04  3.30882E+02
 -5.69194E+04 -5.74664E+04 -8.05407E+03 -7.93582E+04  3.66526E+04 -5.72383E+04  5.11162E+04 -1.93821E+04
  4.51097E+04  1.39058E+04  3.25455E+04  2.68719E+04  1.60345E+04  3.14019E+04 -6.83992E+03  2.88587E+04
 -2.17562E+04  8.61403E+03 -1.74145E+04 -5.67251E+03  4.69537E+03 -7.51890E+03  2.35947E+04  1.50193E+04
  6.24238E+03  3.78387E+04 -3.44656E+04  3.77320E+04 -6.65632E+04  3.91411E+03 -6.02455E+04 -4.48292E+04
 -1.23176E+04 -6.84894E+04  4.31053E+04 -4.75963E+04  6.28854E+04 -2.19727E+03  3.76326E+04  3.45337E+04
 -4.85054E+03  4.20791E+04 -3.27342E+04  2.04948E+04 -3.41463E+04 -3.10560E+03 -2.08335E+04 -1.36554E+04
 -1.03032E+04 -1.65465E+04  1.06724E+03 -1.89921E+04  7.67875E+03 -2.31496E+04  1.64435E+04 -1.40878E+04
  8.73636E+03  5.46253E+03 -1.18061E+04  1.24859E+04 -2.45841E+04 -7.66789E+03 -8.15245E+03 -3.87293E+04
  2.80871E+04 -4.71931E+04  5.48285E+04 -2.12736E+04  4.92186E+04  2.17229E+04  1.67598E+04  4.78737E+04
 -1.59938E+04  3.75357E+04 -3.02696E+04  1.76444E+03 -1.23699E+04 -3.12666E+04  2.19608E+04 -3.80678E+04
  4.53809E+04 -1.28197E+04  4.34501E+04  2.47618E+04  2.24003E+04  5.36358E+04 -8.31721E+03  5.76606E+04
 -3.85375E+04  4.19057E+04 -5.02634E+04  1.07660E+04 -4.97152E+04 -2.00311E+04 -2.89920E+04 -4.39682E+04
  7.25778E+03 -4.41603E+04  3.61624E+04 -1.90419E+04  3.28253E+04  1.10396E+04  7.71445E+03  2.21375E+04
 -1.50745E+04  1.05633E+04 -1.03709E+04 -7.56527E+03  5.13148E+03 -1.11456E+04  2.06640E+04  4.37984E+03
  1.49944E+04  2.26025E+04 -4.73835E+03  2.84493E+04 -2.41840E+04  1.75519E+04 -3.17071E+04 -9.50527E+02
 -2.48808E+04 -1.92698E+04 -1.23113E+04 -2.59329E+04  3.39303E+03 -2.87728E+04  2.26901E+04 -2.43212E+04
  3.47276E+04 -1.39906E+04  4.12668E+04  4.26695E+03  2.93098E+04  2.64862E+04  7.08537E+03  4.20211E+04
 -1.86970E+04  3.39715E+04 -3.00126E+04  1.45339E+04 -2.43949E+04 -1.01463E+04 -5.13224E+03 -1.22832E+04
 -5.21536E+02  1.59924E+02 -6.76049E+03  8.61954E+03 -2.17334E+04  4.61031E+03 -2.39499E+04 -9.97333E+03
 -1.31279E+04 -2.62816E+04  6.23305E+03 -2.92561E+04  1.89536E+04 -2.00308E+04  2.22161E+04 -2.73598E+03
  1.58908E+04  1.77258E+04 -1.53136E+03  2.49424E+04 -1.83623E+04  1.35737E+04 -2.51974E+04 -6.41904E+03
 -1.81694E+04 -2.29855E+04 -1.19786E+03 -2.91289E+04  1.48187E+04 -2.40979E+04  2.48981E+04 -1.52685E+04
  2.36191E+04  7.83252E+02  1.84986E+04  3.78724E+03  9.67824E+03  1.77430E+03  1.18748E+04 -3.39895E+03
  2.57332E+04  2.02124E+03  2.74909E+04  2.10091E+04  1.98888E+04  3.95843E+04 -2.72431E+03  4.94792E+04
 -2.60838E+04  4.12896E+04 -4.48278E+04  2.31888E+04 -5.03664E+04 -3.11402E+03 -3.83870E+04 -2.87684E+04
 -1.41182E+04 -3.98969E+04  1.55217E+04 -3.55325E+04  3.03307E+04 -1.66443E+04  2.66646E+04  1.03515E+04
  7.60182E+03  2.09025E+04 -1.27995E+04  1.72783E+04 -2.08781E+04 -9.89381E+02 -1.40405E+04 -1.30584E+04
 -3.37546E+02 -2.17175E+04  9.95097E+03 -1.61084E+04  1.58600E+04 -3.34222E+03  3.76838E+03  9.15682E+03
 -8.80349E+03  5.91260E+03 -1.04703E+04 -5.66773E+03 -3.96516E+03 -2.07748E+04  1.06968E+04 -2.24481E+04
  2.57124E+04 -1.20610E+04  2.78215E+04  4.50693E+03  2.66569E+04  2.28214E+04  1.31379E+04  3.39264E+04
 -6.39951E+03  3.69273E+04 -2.16463E+04  2.09686E+04 -2.73803E+04  3.77721E+03 -1.85042E+04 -7.80487E+03
 -8.06623E+03 -8.46852E+03  1.60584E+03  6.70748E+02 -3.86825E+03  2.80481E+03 -9.51428E+03  4.89215E+03
 -1.58005E+04 -1.72089E+03 -1.81512E+04 -1.28266E+04 -7.72771E+03 -2.12809E+04  7.47077E+03 -1.79974E+04
  1.44142E+04 -6.95408E+03  9.69426E+03  6.00109E+03 -1.24742E+03  7.66127E+03 -8.96519E+03 -5.84609E+02
 -8.67207E+03 -1.22777E+04 -2.48783E+03 -1.84330E+04  1.23728E+04 -1.80048E+04  2.17705E+04 -7.49156E+03
  2.59976E+04  3.81829E+03  2.05566E+04  1.65244E+04  4.20570E+03  2.06409E+04 -1.13247E+04  1.89616E+04
 -1.37096E+04  5.08314E+03 -6.76059E+03 -5.97451E+03  1.53080E+03 -5.38576E+03  1.01676E+04  1.75689E+02
  8.16396E+03  9.01187E+03  1.15705E+03  1.43206E+04 -1.17036E+04  1.46248E+04 -1.81925E+04  2.57557E+03
 -1.17280E+04 -9.40604E+03 -3.25524E+02 -1.52420E+04  1.01424E+04 -8.79205E+03  1.00743E+04  5.72261E+03
  1.44807E+03  1.28100E+04 -9.31679E+03  1.39413E+04 -1.75011E+04  6.76024E+03 -1.67829E+04 -5.61129E+03
 -7.31331E+03 -1.70884E+04  5.70976E+03 -1.95416E+04  1.83615E+04 -1.28187E+04  2.04815E+04  2.97466E+03
  1.18278E+04  1.64717E+04 -2.14999E+03  1.93258E+04 -1.32410E+04  9.32287E+03 -1.48629E+04 -1.38351E+03
 -1.24092E+04 -1.19650E+04 -2.13864E+03 -1.46126E+04  7.88923E+03 -1.05940E+04  8.37869E+03 -4.13427E+03
  3.32284E+03  2.83713E+03 -9.90461E+02  1.84744E+03 -8.39017E+02 -5.74523E+03  3.24170E+03 -9.82708E+03
  1.32982E+04 -5.96784E+03  1.82765E+04  3.10688E+03  1.86939E+04  1.50670E+04  1.17103E+04  2.64677E+04
 -5.72836E+03  3.02929E+04 -2.26500E+04  1.99133E+04 -3.04900E+04  5.75623E+03 -2.51094E+04 -1.20849E+04
 -1.13908E+04 -1.97499E+04 -1.79380E+02 -1.98392E+04  6.33254E+03 -9.57857E+03  6.97932E+03 -6.85727E+03
  5.15476E+03 -3.18068E+03  3.47407E+03 -3.09934E+03  6.75074E+03 -3.40984E+03  1.02650E+04 -3.31757E+03
  1.27725E+04  3.59587E+03  5.54488E+03  1.21381E+04 -2.71499E+03  1.41643E+04 -1.28977E+04  1.03595E+04
 -1.84361E+04 -2.04199E+03 -1.36900E+04 -1.15406E+04 -2.57219E+03 -2.17376E+04  1.09282E+04 -1.81549E+04
  1.87027E+04 -1.19616E+04  2.58137E+04  2.94393E+03  1.54679E+04  1.64856E+04  2.17088E+03  2.14145E+04
 -1.04849E+04  1.64140E+04 -1.19399E+04  4.75298E+03 -1.02542E+04 -2.87398E+03 -3.36232E+03 -3.94280E+03
 -3.82578E+03 -1.03944E+03 -3.69970E+03  1.22003E+03 -6.78790E+03  9.46659E+02 -1.14076E+04 -2.38743E+03
 -1.04525E+04 -1.21238E+04 -9.79404E+02 -1.81466E+04  1.26324E+04 -1.61788E+04  1.83144E+04 -8.07933E+03
  1.82772E+04  9.28960E+03  8.96273E+03  1.71644E+04 -3.05277E+03  1.79115E+04 -1.46405E+04  1.02247E+04
 -1.94134E+04  1.55930E+03 -1.42024E+04 -1.11703E+04 -1.40008E+03 -1.62942E+04  9.31088E+03 -1.11083E+04
  1.42301E+04 -5.84186E+03  6.93073E+03  2.93729E+03  3.63214E+03  4.10634E+03  1.95086E+03  2.80410E+03
  2.05014E+03  9.32103E+02  3.68275E+03  3.65795E+03  6.11010E+03  6.67320E+03  5.78667E+03  1.07103E+04
 -3.91670E+03  1.45103E+04 -1.31431E+04  1.53127E+04 -1.96815E+04  3.80886E+03 -1.96168E+04 -7.80277E+03
 -9.75911E+03 -2.03199E+04  3.17724E+03 -1.95585E+04  1.41231E+04 -1.54924E+04  1.58049E+04 -4.92950E+03
  1.33091E+04  6.05962E+03  2.74471E+03  1.17437E+04 -4.96957E+03  7.14266E+03 -8.30011E+03  1.09009E+02
 -2.19411E+03 -7.62876E+03  4.83698E+03 -7.82707E+03  8.17763E+03 -3.61316E+03  8.34299E+03  5.86226E+02
  4.90271E+03  3.16070E+03  1.20425E+03  4.12907E+03 -2.24942E+03  4.12895E+03  2.18153E+03 -6.20278E+02
  3.26374E+03 -2.32031E+03  5.92005E+03  3.81037E+03  6.57853E+03  8.77353E+03 -1.76153E+03  1.35830E+04
 -1.03091E+04  7.39613E+03 -1.28074E+04  2.62238E+03 -1.24808E+04 -4.70452E+03 -5.12729E+03 -9.14428E+03
  2.28198E+03 -6.86709E+03  5.46347E+03 -4.90384E+03  2.97029E+03  1.38819E+03 -3.02526E+03  7.30913E+03
 -8.30724E+03  4.48968E+03 -1.11660E+04 -4.73351E+03 -5.21440E+03 -9.96376E+03  6.57787E+02 -1.24070E+04
  6.88442E+03 -7.15049E+03  7.40627E+03 -1.33419E+03  7.40287E+03  2.64634E+03  1.86377E+03  6.83935E+03
 -2.74608E+03  3.37495E+03 -3.74135E+03 -5.24180E+03  1.49106E+03 -8.84610E+03  1.05496E+04 -8.28851E+03
  1.38030E+04  2.99909E+03  1.12910E+04  1.01870E+04  4.41834E+03  1.30413E+04 -5.14139E+03  1.13608E+04
 -1.28665E+04  5.92544E+03 -1.07302E+04 -2.24593E+03 -5.86408E+03 -1.04514E+04  8.78405E+02 -1.09604E+04
  8.47781E+03 -5.29984E+03  6.36019E+03  4.89066E+03  3.31443E+03  7.23608E+03 -1.06795E+03  7.78792E+03
 -2.95515E+03  4.40563E+03 -4.29989E+03  1.76708E+03 -2.80937E+03  2.20044E+03 -2.63116E+03  3.99720E+03
 -1.57025E+03  5.29450E+03 -1.02312E+04  4.82380E+03 -1.23442E+04 -6.72483E+02 -1.70435E+04 -1.06565E+04
 -8.36826E+03 -1.95939E+04  3.79954E+03 -2.45526E+04  1.24562E+04 -1.79328E+04  1.87371E+04 -6.75968E+03
  2.10707E+04  4.41192E+03  1.39052E+04  1.40878E+04  1.55300E+03  1.59378E+04 -5.49646E+03  1.16125E+04
 -8.17084E+03  2.39587E+03 -6.47126E+03 -7.18256E+02 -1.47198E+03 -1.06540E+03 -1.93828E+03 -7.72108E+02
 -3.01567E+03 -4.23650E+02 -3.55890E+03 -1.32647E+03 -3.31443E+03 -4.34510E+03  1.05665E+02 -6.42491E+03
  7.68121E+03 -5.28083E+03  8.18990E+03  7.06921E+02  1.09456E+04  8.24487E+03  2.84026E+03  1.59647E+04
 -3.87832E+03  1.70560E+04 -1.60910E+04  8.47783E+03 -2.03162E+04 -5.66011E+02 -1.28381E+04 -1.20492E+04
 -6.40166E+03 -1.53851E+04  3.99249E+03 -1.44248E+04  8.55655E+03 -7.37684E+03  8.58102E+03  1.05629E+03
  6.28599E+03  2.62343E+03 -3.14452E+02  3.76193E+03 -3.38267E+03 -3.05147E+03  6.85362E+02 -9.39849E+02
  2.61950E+03 -3.02529E+03  5.77077E+03 -1.12084E+03  5.27954E+03  7.61321E+03 -1.14554E+03  9.21725E+03
 -8.31403E+03  8.11236E+03 -9.72080E+03  1.72200E+03 -9.81819E+03 -8.51770E+03 -1.39033E+03 -1.18710E+04
  6.83774E+03 -1.02067E+04  1.23761E+04 -2.67625E+03  1.20619E+04  4.40538E+03  6.74594E+03  1.10377E+04
  1.83662E+03  1.26874E+04 -4.32405E+03  9.40284E+03 -7.25042E+03  4.79619E+03 -5.50727E+03 -3.75599E+01
 -3.46118E+03 -1.77269E+03 -8.03663E+02  4.52413E+02 -7.02576E+03  5.13957E+02 -7.83657E+03 -2.15876E+03
 -6.25730E+03 -6.81689E+03 -1.16774E+03 -1.12909E+04  3.93939E+03 -1.29971E+04  8.97388E+03 -3.90496E+03
  1.06749E+04  3.85985E+02  6.48783E+03  7.90240E+03 -2.89716E+02  9.94503E+03 -7.44539E+03  7.96312E+03
