 $NMID ID='MM_0lb_SNR200_9hz_g60_97.RAW', FMTDAT='(8E13.5)'
 TRAMP=1., VOLUME=1. $END
  3.09064E+05 -1.72337E+02  3.37064E+05  2.50144E+05  8.36632E+04  3.39776E+05 -1.32762E+05  2.50561E+05
 -1.90915E+05  8.43852E+04 -1.12488E+05 -3.46419E+04  9.72877E+02 -4.99448E+04  5.54879E+04 -1.57112E+03
  3.59715E+04  5.32311E+04 -1.61843E+04  7.55861E+04 -6.17877E+04  6.61504E+04 -8.61191E+04  3.12486E+04
 -8.25734E+04 -1.18416E+04 -5.86054E+04 -5.34160E+04 -1.50791E+04 -6.95443E+04  3.00756E+04 -4.77654E+04
  4.10356E+04  4.08175E+03  1.74524E+04  4.91192E+04 -3.48177E+04  4.98785E+04 -6.68986E+04  4.96287E+02
 -5.35633E+04 -5.70662E+04 -7.46157E+03 -7.94709E+04  3.62795E+04 -5.78547E+04  4.85947E+04 -1.88710E+04
  4.64468E+04  1.28091E+04  3.27697E+04  2.85670E+04  1.67278E+04  3.01370E+04 -6.27319E+03  2.75093E+04
 -2.20490E+04  1.26418E+04 -1.78088E+04 -5.10374E+03  8.08995E+03 -8.67573E+03  2.37461E+04  1.55828E+04
  7.50164E+03  3.80258E+04 -3.27054E+04  3.76650E+04 -6.63511E+04  2.30996E+03 -5.90064E+04 -4.59987E+04
 -1.28772E+04 -6.56108E+04  4.15082E+04 -4.68665E+04  6.11611E+04 -1.11158E+03  3.62901E+04  3.31693E+04
 -5.88358E+03  3.92879E+04 -3.28438E+04  1.90005E+04 -3.41832E+04 -2.66420E+03 -1.91893E+04 -1.33746E+04
 -8.19227E+03 -1.47045E+04  3.66236E+01 -2.07046E+04  8.83222E+03 -2.37770E+04  1.68846E+04 -1.24133E+04
  1.05774E+04  6.59176E+03 -1.02845E+04  1.28568E+04 -2.38188E+04 -5.67480E+03 -8.23655E+03 -3.98734E+04
  2.64777E+04 -4.83765E+04  5.51651E+04 -2.13694E+04  4.97998E+04  2.13115E+04  1.64105E+04  4.70716E+04
 -1.62831E+04  3.69490E+04 -2.78724E+04  1.72365E+03 -1.24839E+04 -3.15961E+04  2.05869E+04 -3.65362E+04
  4.47251E+04 -1.14166E+04  4.08201E+04  2.80341E+04  2.13248E+04  5.28579E+04 -7.93453E+03  5.76068E+04
 -3.61537E+04  3.90363E+04 -4.80486E+04  1.15859E+04 -4.82926E+04 -1.79524E+04 -2.64490E+04 -4.21893E+04
  7.33860E+03 -4.22999E+04  3.65401E+04 -1.99755E+04  3.17223E+04  1.16952E+04  5.08730E+03  1.98546E+04
 -1.36604E+04  8.24360E+03 -1.17933E+04 -8.58366E+03  5.81153E+03 -1.24552E+04  1.88749E+04  6.12020E+03
  1.55003E+04  2.34669E+04 -7.09422E+03  2.88405E+04 -2.26602E+04  1.57245E+04 -3.11077E+04 -1.96760E+03
 -2.60402E+04 -1.92408E+04 -1.18272E+04 -2.57762E+04  5.24452E+03 -2.82362E+04  2.13335E+04 -2.23990E+04
  3.40064E+04 -1.53482E+04  3.99015E+04  6.42681E+03  2.82174E+04  2.44303E+04  4.88002E+03  4.12397E+04
 -1.96810E+04  3.35245E+04 -3.30716E+04  1.27504E+04 -2.15193E+04 -1.00919E+04 -3.05747E+03 -1.35241E+04
 -1.26071E+02 -1.10095E+03 -7.13587E+03  8.83170E+03 -2.15916E+04  5.29851E+03 -2.18131E+04 -1.03473E+04
 -1.27950E+04 -2.46188E+04  5.80626E+03 -2.78402E+04  2.11774E+04 -2.04857E+04  2.26512E+04 -2.20329E+03
  1.65586E+04  1.73671E+04 -2.23972E+03  2.32001E+04 -1.70316E+04  1.52395E+04 -2.27309E+04 -6.65614E+03
 -1.77177E+04 -2.09727E+04 -9.94486E+02 -3.01647E+04  1.25064E+04 -2.43440E+04  2.34015E+04 -1.41505E+04
  2.24365E+04 -1.65834E+03  1.64387E+04  4.60870E+03  1.01840E+04  5.82420E+02  1.16809E+04 -1.93306E+03
  2.37161E+04  2.30825E+03  2.62463E+04  1.90796E+04  1.86189E+04  3.83011E+04 -3.12586E+03  4.69657E+04
 -2.61935E+04  3.99774E+04 -4.47502E+04  1.89150E+04 -4.50810E+04 -3.12843E+03 -3.88221E+04 -2.83573E+04
 -1.49169E+04 -3.87409E+04  1.44687E+04 -3.42268E+04  2.93163E+04 -1.59945E+04  2.62393E+04  1.02607E+04
  8.57829E+03  1.95700E+04 -1.28338E+04  1.57838E+04 -2.22717E+04  3.79631E+03 -1.54346E+04 -1.46046E+04
 -1.20998E+03 -2.06724E+04  1.08229E+04 -1.41901E+04  1.29095E+04 -2.43643E+03  2.49405E+03  8.62697E+03
 -7.32545E+03  4.93381E+03 -1.07152E+04 -7.20194E+03 -3.87196E+03 -1.98870E+04  1.32542E+04 -2.08822E+04
  2.23263E+04 -1.18227E+04  2.81417E+04  3.65449E+03  2.58016E+04  2.00744E+04  1.28587E+04  3.19904E+04
 -6.11849E+03  3.19220E+04 -2.12627E+04  2.00717E+04 -2.50584E+04  3.23463E+03 -1.54493E+04 -6.75652E+03
 -6.63135E+03 -6.30659E+03  4.93083E+02  4.33203E+02 -3.30348E+03  2.84465E+03 -7.67788E+03  4.75330E+03
 -1.62241E+04 -1.92286E+03 -1.55898E+04 -1.31876E+04 -4.90066E+03 -1.91546E+04  5.60882E+03 -1.65893E+04
  1.33012E+04 -6.03916E+03  1.08588E+04  4.18594E+03 -9.44631E+01  5.93186E+03 -7.60342E+03  3.41866E+02
 -8.53349E+03 -1.03818E+04  5.43419E+02 -1.81865E+04  7.79039E+03 -1.78185E+04  2.13224E+04 -8.54304E+03
  2.68248E+04  2.00255E+03  1.66179E+04  1.58712E+04  4.04054E+03  2.11418E+04 -9.75238E+03  1.79089E+04
 -1.30961E+04  4.38100E+03 -8.37947E+03 -5.19075E+03  1.39307E+03 -4.78095E+03  6.52698E+03 -2.21661E+03
  7.31072E+03  7.64702E+03  6.68742E+02  1.31630E+04 -1.08251E+04  1.38668E+04 -1.59490E+04  2.40901E+03
 -1.29146E+04 -9.60164E+03  2.85805E+02 -1.41472E+04  8.59689E+03 -6.48647E+03  1.00596E+04  3.89054E+03
  1.13139E+03  1.07153E+04 -9.05019E+03  1.25414E+04 -1.47512E+04  4.83693E+03 -1.55621E+04 -4.25904E+03
 -8.62878E+03 -1.81280E+04  4.47170E+03 -1.94964E+04  1.62327E+04 -1.29822E+04  1.79158E+04  4.54312E+03
  9.80283E+03  1.32392E+04 -1.26014E+03  1.67757E+04 -1.34373E+04  1.10004E+04 -1.33505E+04 -8.72523E+02
 -1.16424E+04 -9.83026E+03 -9.34741E+02 -1.19934E+04  6.66412E+03 -8.66704E+03  8.93858E+03 -3.35215E+03
  4.14057E+03  3.11586E+03 -9.84461E+02  2.40459E+03 -4.06289E+02 -5.43571E+03  4.28943E+03 -9.60137E+03
  1.31159E+04 -5.36081E+03  1.79137E+04  1.38391E+03  1.65981E+04  1.24069E+04  1.19719E+04  2.13395E+04
 -6.06292E+03  2.56350E+04 -2.37302E+04  1.87224E+04 -2.81298E+04  3.81674E+03 -2.24393E+04 -9.40563E+03
 -1.08325E+04 -1.87218E+04 -2.50594E+02 -1.50900E+04  4.44522E+03 -7.32436E+03  4.00639E+03 -6.41947E+03
  3.62800E+03 -3.25655E+03  3.87662E+03 -4.14514E+03  3.59471E+03 -2.65281E+03  9.85206E+03 -2.85813E+03
  1.05865E+04  3.91885E+03  5.77708E+03  1.09500E+04 -2.74997E+03  1.28489E+04 -1.21697E+04  8.37688E+03
 -1.52555E+04 -1.42039E+03 -1.10188E+04 -1.03099E+04 -1.86553E+03 -1.75347E+04  8.99609E+03 -1.73558E+04
  1.71517E+04 -9.81042E+03  2.11036E+04  3.69212E+03  1.36749E+04  1.65736E+04  1.28927E+03  1.94558E+04
 -8.41999E+03  1.68170E+04 -1.17099E+04  5.80099E+03 -7.39349E+03 -2.13686E+03 -3.04259E+03 -3.02667E+03
 -1.54945E+03 -6.14715E+02 -2.23146E+03  3.41786E+03 -7.25938E+03  3.98906E+03 -1.04131E+04 -1.19396E+03
 -9.02304E+03 -1.15880E+04  4.91586E+02 -1.52808E+04  1.11979E+04 -1.64384E+04  1.54303E+04 -4.79642E+03
  1.51412E+04  7.75885E+03  9.51780E+03  1.42768E+04 -3.80508E+03  1.71518E+04 -1.17977E+04  1.11090E+04
 -1.44987E+04  2.04898E+03 -1.22764E+04 -9.48505E+03  1.18810E+02 -1.39503E+04  6.53032E+03 -1.12858E+04
  9.36928E+03 -2.61988E+03  7.75858E+03  2.06734E+03  3.00138E+03  4.85408E+03  2.42750E+03  2.36453E+03
  2.82690E+03  1.55243E+03  3.82816E+03  2.24092E+03  4.91005E+03  7.60770E+03  4.13871E+03  9.46141E+03
 -3.55025E+03  1.14293E+04 -1.02688E+04  1.17048E+04 -1.73536E+04  3.39431E+03 -1.82016E+04 -6.83160E+03
 -7.81476E+03 -1.53254E+04  2.36480E+03 -1.83371E+04  1.02600E+04 -1.19613E+04  1.44562E+04 -1.30177E+03
  1.19155E+04  5.88921E+03  3.52951E+03  9.15012E+03 -3.18656E+03  4.40978E+03 -7.37502E+03  2.43620E+01
 -1.21009E+03 -7.34987E+03  2.35859E+03 -7.13577E+03  7.22462E+03 -3.58318E+03  7.45418E+03  1.17219E+03
  3.78382E+03  4.53553E+03  1.76576E+03  3.68091E+03 -2.41982E+03  2.65789E+03  1.41584E+02 -1.87203E+02
  3.07992E+03 -1.52639E+03  6.39662E+03  7.64894E+02  4.53547E+03  9.23770E+03 -9.05828E+02  1.07745E+04
 -6.65616E+03  7.71037E+03 -1.03090E+04  2.03877E+03 -8.60132E+03 -3.14905E+03 -2.88005E+03 -6.42838E+03
  1.42774E+03 -6.91038E+03  3.10844E+03 -3.26747E+03  3.25449E+03  3.26699E+03 -1.97555E+03  6.71373E+03
 -6.92098E+03  2.74602E+03 -7.59518E+03 -4.40771E+03 -4.47299E+03 -7.79720E+03  1.38991E+03 -1.00709E+04
  5.46961E+03 -5.61761E+03  6.36501E+03 -4.55133E+02  6.42423E+03  2.75042E+03 -8.23944E+02  4.89367E+03
 -4.26070E+03  6.62495E+02 -6.43050E+03 -2.18284E+03  1.64931E+02 -7.68128E+03  7.75512E+03 -3.81498E+03
  1.00274E+04  1.10431E+03  1.10506E+04  8.09819E+03  3.95869E+03  1.17416E+04 -4.77910E+03  9.17006E+03
 -9.02837E+03  5.59278E+03 -8.86679E+03 -1.68379E+03 -4.38724E+03 -4.82496E+03  1.04690E+03 -7.47949E+03
  7.51082E+03 -2.95253E+03  8.28436E+03  4.40966E+03  1.34546E+03  6.02095E+03  9.59563E+02  4.50007E+03
 -2.63320E+03  3.78721E+03 -3.71685E+03 -1.21349E+03 -8.14962E+02  3.19667E+02  2.33634E+01  3.18001E+03
 -2.94618E+03  2.85409E+03 -7.40199E+03  4.49671E+03 -1.22255E+04  2.09676E+02 -1.18778E+04 -7.61399E+03
 -7.24036E+03 -1.48566E+04  2.51841E+03 -1.59638E+04  1.06319E+04 -1.25421E+04  1.59631E+04 -4.58022E+03
  1.63449E+04  2.64660E+03  8.07746E+03  1.10566E+04 -1.45820E+02  1.09838E+04 -3.86834E+03  8.07154E+03
 -6.38288E+03  3.50271E+03 -4.01237E+03 -1.19233E+03 -1.34169E+03 -1.36606E+03 -1.31251E+03  9.54539E+02
 -1.35063E+03 -5.39349E+02 -2.99405E+03 -6.08646E+02 -1.25203E+03 -2.99152E+03  8.08823E+02 -4.97228E+03
  5.45437E+03 -3.83784E+03  7.33234E+03 -1.89310E+02  9.59573E+03  6.90524E+03 -2.40076E+01  1.32183E+04
 -6.57490E+03  1.43752E+04 -1.33453E+04  8.64718E+03 -1.42590E+04 -1.24980E+03 -1.09480E+04 -8.58570E+03
 -3.98748E+03 -1.07757E+04  2.91297E+03 -8.83340E+03  5.70289E+03 -7.83459E+03  7.69846E+03 -7.51082E+02
  3.68035E+03  2.69483E+03 -1.34870E+03  4.37721E+03 -2.40943E+03  1.08094E+03  8.76101E+02 -2.97564E+03
  4.03522E+03 -2.35657E+03  5.42215E+03  2.04662E+03  2.11271E+03  4.55576E+03  1.44140E+03  4.38654E+03
 -5.57512E+03  4.93971E+03 -7.74501E+03  5.17147E+02 -6.69290E+03 -3.47058E+03 -9.76481E+02 -7.78497E+03
  5.41200E+03 -8.10440E+03  8.24404E+03 -1.51207E+03  9.75988E+03  3.88319E+03  4.44730E+03  6.79222E+03
 -2.30154E+01  9.26785E+03 -2.70902E+03  6.51939E+03 -5.00989E+03  2.83788E+03 -3.40303E+03  9.14496E+02
 -2.05341E+03 -1.37713E+03 -3.38417E+03 -3.96110E+02 -3.09072E+03  9.67516E+02 -6.91909E+03 -6.04678E+02
 -6.04101E+03 -3.50951E+03 -1.24401E+03 -9.02045E+03  3.09562E+03 -8.49217E+03  7.55380E+03 -4.80063E+03
  9.26952E+03  1.12797E+03  3.18287E+03  4.71654E+03 -1.56847E+03  6.32930E+03 -6.93838E+03  5.46829E+03
