 $NMID ID='MM_0lb_SNR200_10hz_g60_70.RAW', FMTDAT='(8E13.5)'
 TRAMP=1., VOLUME=1. $END
  3.10264E+05 -1.33970E+02  3.37460E+05  2.52462E+05  8.51819E+04  3.38812E+05 -1.32048E+05  2.52014E+05
 -1.91330E+05  8.33045E+04 -1.12489E+05 -3.43543E+04 -6.79124E+02 -5.16424E+04  5.30631E+04 -9.69868E+02
  3.60685E+04  5.34986E+04 -1.63765E+04  7.58351E+04 -6.12186E+04  6.51095E+04 -8.57141E+04  3.24299E+04
 -8.22143E+04 -1.25542E+04 -5.89943E+04 -5.25040E+04 -1.51031E+04 -7.13267E+04  2.71576E+04 -4.59633E+04
  4.13751E+04  3.50469E+03  1.59712E+04  4.92234E+04 -3.54669E+04  4.95554E+04 -6.80281E+04  2.60929E+01
 -5.47450E+04 -5.69607E+04 -6.67388E+03 -7.89751E+04  3.27673E+04 -5.69020E+04  5.06861E+04 -2.08374E+04
  4.49792E+04  1.14616E+04  3.27134E+04  2.75741E+04  1.64565E+04  3.07838E+04 -5.07237E+03  2.82107E+04
 -2.27236E+04  1.23757E+04 -1.83090E+04 -5.70757E+03  7.20355E+03 -5.67513E+03  2.47206E+04  1.48388E+04
  7.39991E+03  3.71739E+04 -3.30514E+04  3.74203E+04 -6.71150E+04  1.61656E+03 -5.86200E+04 -4.44806E+04
 -1.19538E+04 -6.73473E+04  4.10773E+04 -4.68888E+04  6.11441E+04 -2.98479E+03  3.60644E+04  3.62952E+04
 -4.65020E+03  3.87443E+04 -3.29774E+04  1.91921E+04 -3.37585E+04 -2.52528E+03 -2.10628E+04 -1.28904E+04
 -8.10299E+03 -1.49601E+04 -2.97278E+02 -2.08737E+04  8.49972E+03 -2.36279E+04  1.51209E+04 -1.29508E+04
  1.18849E+04  5.17244E+03 -1.02106E+04  1.33456E+04 -2.55069E+04 -5.66260E+03 -8.18006E+03 -3.79323E+04
  2.53361E+04 -4.72428E+04  5.23396E+04 -1.99337E+04  4.89051E+04  2.02440E+04  1.80688E+04  4.85140E+04
 -1.76084E+04  3.67298E+04 -2.81807E+04  3.23278E+03 -1.18239E+04 -3.06131E+04  2.16275E+04 -3.79112E+04
  4.44867E+04 -1.04594E+04  3.94925E+04  2.50474E+04  2.24338E+04  4.96241E+04 -8.17782E+03  5.62761E+04
 -3.59526E+04  3.83899E+04 -4.90209E+04  1.21872E+04 -4.87410E+04 -1.92038E+04 -2.73449E+04 -4.19829E+04
  7.77264E+03 -4.22973E+04  3.48874E+04 -1.65699E+04  3.18796E+04  1.09229E+04  6.17798E+03  2.04566E+04
 -1.38421E+04  1.06446E+04 -1.16892E+04 -6.76971E+03  4.94190E+03 -1.14346E+04  1.94117E+04  5.96958E+03
  1.51943E+04  2.18630E+04 -6.60294E+03  2.74627E+04 -2.34678E+04  1.50332E+04 -3.05715E+04 -1.72706E+03
 -2.60317E+04 -1.82192E+04 -1.20645E+04 -2.36185E+04  4.87570E+03 -2.62597E+04  1.84489E+04 -2.18409E+04
  3.08456E+04 -1.60664E+04  3.85765E+04  4.10279E+03  2.71045E+04  2.36310E+04  5.01890E+03  4.22377E+04
 -2.07502E+04  3.52099E+04 -2.96950E+04  1.17388E+04 -2.27134E+04 -8.90503E+03 -5.89445E+03 -1.31270E+04
  2.10820E+03 -6.83781E+02 -7.81319E+03  7.62566E+03 -1.97742E+04  4.00253E+03 -1.91926E+04 -1.00233E+04
 -1.15903E+04 -2.46741E+04  4.31801E+03 -2.70306E+04  1.66393E+04 -2.01497E+04  2.33207E+04 -1.15127E+03
  1.39005E+04  1.64688E+04 -1.37345E+03  2.29597E+04 -1.66177E+04  1.38499E+04 -2.41292E+04 -4.71145E+03
 -1.64102E+04 -2.04273E+04 -1.47458E+03 -2.86880E+04  1.22458E+04 -2.33987E+04  2.28919E+04 -1.32388E+04
  2.09070E+04  1.54928E+03  1.55708E+04  5.35049E+03  8.87805E+03  1.30909E+03  1.24612E+04 -2.10128E+03
  2.45351E+04  3.12402E+03  2.50796E+04  1.75178E+04  1.66906E+04  3.82614E+04 -2.31733E+03  4.41285E+04
 -2.42784E+04  3.68341E+04 -4.18066E+04  1.97650E+04 -4.48390E+04 -2.21377E+03 -3.62362E+04 -2.61818E+04
 -1.47536E+04 -3.71126E+04  1.34029E+04 -3.22124E+04  2.64756E+04 -1.46111E+04  2.29876E+04  8.20872E+03
  9.73717E+03  1.94649E+04 -1.10857E+04  1.42517E+04 -1.98127E+04  2.51664E+03 -1.59959E+04 -1.23195E+04
  5.90673E+02 -1.88875E+04  1.04246E+04 -1.27884E+04  1.42908E+04 -9.48487E+02  3.59166E+03  8.44656E+03
 -7.90376E+03  2.17002E+03 -8.19678E+03 -7.65200E+03 -2.25743E+03 -1.90135E+04  1.07962E+04 -2.03304E+04
  2.16631E+04 -1.04355E+04  2.41853E+04  4.83554E+03  2.28024E+04  1.84614E+04  1.02638E+04  2.98954E+04
 -4.93962E+03  3.02559E+04 -1.89205E+04  1.86743E+04 -2.26124E+04  3.57117E+03 -1.49326E+04 -7.24590E+03
 -6.35405E+03 -7.91394E+03  9.30065E+02  6.87904E+02 -3.05030E+03  3.50571E+03 -7.33772E+03  5.91087E+03
 -1.33931E+04 -6.71457E+02 -1.61291E+04 -1.02888E+04 -4.72283E+03 -2.08123E+04  6.24492E+03 -1.43444E+04
  1.37417E+04 -7.19255E+03  8.99950E+03  4.68299E+03  4.42798E+01  5.00695E+03 -7.77188E+03 -2.95424E+02
 -7.42536E+03 -9.44987E+03 -1.15191E+03 -1.59589E+04  8.26991E+03 -1.55777E+04  1.92400E+04 -9.30259E+03
  2.32448E+04  1.43725E+03  1.52084E+04  1.45793E+04  2.19139E+03  1.93839E+04 -9.89593E+03  1.49207E+04
 -1.28452E+04  5.49914E+03 -6.88546E+03 -3.27414E+03  3.26501E+02 -4.96165E+03  7.93623E+03 -1.50841E+03
  6.82653E+03  7.70036E+03 -6.18112E+01  1.27195E+04 -9.44154E+03  1.12684E+04 -1.57821E+04  1.57679E+03
 -1.01365E+04 -7.82301E+03  5.45404E+02 -1.42903E+04  8.04957E+03 -5.46445E+03  7.89727E+03  4.36208E+03
  1.85790E+03  8.89259E+03 -6.00089E+03  1.16117E+04 -1.46457E+04  4.71281E+03 -1.37956E+04 -5.61136E+03
 -8.58870E+03 -1.72117E+04  4.01589E+03 -2.00225E+04  1.48639E+04 -9.91812E+03  1.70093E+04  4.82427E+03
  9.42982E+03  1.42230E+04 -4.24920E+02  1.48138E+04 -1.20004E+04  7.92311E+03 -1.33124E+04 -1.53644E+03
 -9.63856E+03 -1.11403E+04 -2.07076E+03 -1.26821E+04  5.98706E+03 -9.47682E+03  7.98883E+03 -4.79254E+03
  5.04481E+03  2.05825E+03 -1.32145E+03  2.11960E+03 -7.59240E+02 -2.49342E+03  2.94566E+03 -7.91425E+03
  1.08837E+04 -4.62587E+03  1.57800E+04  3.39095E+03  1.49669E+04  1.10969E+04  8.70808E+03  2.13114E+04
 -6.43609E+03  2.30899E+04 -1.89205E+04  1.65671E+04 -2.41019E+04  3.48637E+03 -2.03038E+04 -1.03652E+04
 -1.16603E+04 -1.80417E+04 -2.68935E+02 -1.51858E+04  5.15711E+03 -6.88752E+03  5.81405E+03 -5.44343E+03
  4.36288E+03 -2.44761E+03  4.65624E+03 -3.09004E+03  5.06886E+03 -2.59497E+03  7.53870E+03 -9.02463E+02
  1.03676E+04  3.04242E+03  5.58155E+03  1.00414E+04 -2.90488E+03  1.20969E+04 -1.25780E+04  8.33091E+03
 -1.35387E+04 -1.31502E+03 -1.05925E+04 -1.05905E+04 -2.45841E+03 -1.58507E+04  9.72924E+03 -1.47088E+04
  1.55770E+04 -9.16577E+03  1.80057E+04  2.62092E+03  1.30816E+04  1.53494E+04  3.39096E+02  1.64422E+04
 -8.84963E+03  1.35199E+04 -1.14349E+04  3.38955E+03 -5.36197E+03 -3.37001E+03 -3.17793E+03 -2.24864E+03
 -2.85082E+03 -9.92828E+01 -1.91078E+03  2.68983E+03 -5.36981E+03  2.33321E+03 -9.69075E+03 -1.01818E+03
 -6.42759E+03 -1.05817E+04 -4.75470E+02 -1.36325E+04  8.76303E+03 -1.24145E+04  1.47643E+04 -5.09882E+03
  1.38529E+04  7.98232E+03  7.16030E+03  1.22233E+04 -2.09297E+03  1.52567E+04 -1.18742E+04  9.62382E+03
 -1.25582E+04 -2.26540E+00 -9.72118E+03 -8.22272E+03 -5.34491E+02 -1.07425E+04  6.28769E+03 -8.49232E+03
  8.77641E+03 -3.95667E+03  5.23455E+03  1.52636E+03  2.28556E+03  4.99742E+03  2.52901E+03  1.15733E+03
  1.49983E+03 -3.13195E+02  4.29170E+03  7.94421E+02  4.19558E+03  3.52091E+03  2.60232E+03  8.70635E+03
 -2.32086E+03  1.27208E+04 -1.07550E+04  1.29365E+04 -1.40104E+04  3.58753E+03 -1.48917E+04 -6.25467E+03
 -6.71461E+03 -1.45808E+04  2.85646E+03 -1.42824E+04  1.00997E+04 -9.25755E+03  1.18795E+04 -2.09102E+03
  1.06456E+04  5.66375E+03  1.28008E+03  9.22490E+03 -4.98066E+03  5.48340E+03 -3.93914E+03 -8.59909E+02
 -3.37822E+03 -5.22077E+03  3.08912E+03 -6.94083E+03  5.71170E+03 -5.06473E+03  4.55968E+03  2.95237E+03
  3.72318E+03  2.57542E+03  2.37745E+03  4.12950E+03 -1.44659E+03  3.29944E+03  1.97747E+02 -5.04444E+01
  2.67452E+03 -8.69268E+02  6.02424E+03  4.03858E+03  4.73914E+03  7.92371E+03 -1.18265E+03  9.06783E+03
 -6.77186E+03  6.92136E+03 -8.32350E+03 -7.14386E+02 -7.14915E+03 -2.26715E+03 -2.76159E+03 -5.65920E+03
  1.52871E+03 -4.39070E+03  3.33851E+03 -1.59796E+03  2.50438E+03  1.54070E+03 -1.51480E+03  6.32577E+03
 -6.27586E+03  3.18187E+02 -6.93325E+03 -2.63187E+03 -2.70809E+03 -8.11812E+03  1.05463E+03 -7.46485E+03
  5.90539E+03 -5.71603E+03  5.42998E+03 -3.12399E+03  4.01311E+03  3.02787E+03  8.49765E+01  4.14054E+03
 -2.77268E+03  1.95528E+03 -3.33561E+03 -3.72500E+03  1.32526E+02 -5.66893E+03  6.27419E+03 -5.11501E+03
  8.50733E+03 -4.06951E+02  9.50369E+03  7.12924E+03  4.04804E+03  9.07597E+03 -2.29257E+03  8.14146E+03
 -6.92491E+03  3.50211E+03 -6.78239E+03 -1.61294E+03 -6.85937E+03 -5.63094E+03  6.89858E+02 -3.88033E+03
  4.91707E+03 -3.64336E+03  5.38899E+03  3.99055E+03  6.83673E+02  5.12811E+03 -6.34943E+02  3.35651E+03
 -1.18752E+03  3.78106E+03 -1.35025E+03  3.09857E+02  4.92175E+02  1.33464E+03 -2.44073E+03  1.78520E+03
 -3.63660E+03  3.74279E+03 -6.85155E+03  5.06242E+03 -1.08941E+04 -1.33063E+03 -9.67791E+03 -7.42844E+03
 -5.43401E+03 -1.19840E+04  2.09174E+03 -1.53634E+04  7.72134E+03 -1.15227E+04  1.50817E+04 -5.99693E+03
  1.11610E+04  3.67753E+03  7.36330E+03  8.98653E+03 -3.76821E+02  9.86640E+03 -3.97948E+03  6.49073E+03
 -5.65980E+03  1.52366E+03 -3.23765E+03 -1.19681E+03 -1.78533E+03 -1.09887E+03 -7.49496E+02 -6.61109E+01
 -2.00089E+03  9.30685E+02 -2.59424E+03 -1.07024E+03 -1.50136E+03 -2.57038E+03 -3.17378E+02 -2.80508E+03
  5.48007E+03 -1.61562E+03  5.79827E+03 -6.16790E+02  8.66402E+03  4.81092E+03  1.32241E+03  8.94109E+03
 -3.84486E+03  1.08104E+04 -9.91563E+03  6.44744E+03 -1.18949E+04  2.90849E+02 -7.93826E+03 -8.03166E+03
 -3.73106E+03 -1.04027E+04  5.87694E+02 -8.22173E+03  6.52466E+03 -4.41047E+03  6.06302E+03 -2.34405E+02
  5.32450E+03  3.18848E+03  7.18342E+02  2.52267E+03 -2.74800E+03 -1.74653E+03  6.25092E+01 -1.77114E+03
  2.60223E+03 -5.49988E+01  3.14058E+03  2.66803E+03  2.86931E+03  4.46706E+03 -2.10300E+02  4.39098E+03
 -1.86021E+03  5.16156E+03 -6.09334E+03  7.93497E+01 -5.40386E+03 -2.96650E+03 -4.33571E+02 -7.08122E+03
  3.47852E+03 -7.02100E+03  6.92122E+03 -1.67191E+03  6.01717E+03  1.27731E+03  3.90074E+03  6.94126E+03
  1.47388E+03  7.89156E+03 -1.37844E+03  3.50035E+03 -3.64758E+03  3.34819E+03 -2.99877E+03  1.08166E+03
 -1.38261E+03 -1.48509E+03 -1.39659E+03 -1.18420E+02 -2.02882E+03  1.15824E+03 -5.27349E+03 -1.45461E+03
 -5.75709E+03 -3.19559E+03 -9.95447E+02 -5.91709E+03  1.62916E+03 -6.39071E+03  6.13309E+03 -2.54306E+03
  7.54307E+03  1.42157E+03  4.12909E+03  4.39743E+03 -3.05962E+02  6.26279E+03 -4.67682E+03  4.22878E+03
