 $NMID ID='MM_0lb_SNR200_17hz_g40_1.RAW', FMTDAT='(8E13.5)'
 TRAMP=1., VOLUME=1. $END
  3.10217E+05 -4.84254E+02  3.37661E+05  2.50248E+05  8.57989E+04  3.36775E+05 -1.32266E+05  2.50572E+05
 -1.89356E+05  8.28663E+04 -1.11299E+05 -3.30327E+04  1.22039E+03 -4.99709E+04  5.35184E+04  1.06050E+03
  3.46583E+04  5.36319E+04 -1.64843E+04  7.40020E+04 -5.96380E+04  6.21451E+04 -8.28828E+04  3.05806E+04
 -8.04555E+04 -1.16900E+04 -5.64492E+04 -4.90685E+04 -1.46487E+04 -6.66712E+04  2.58777E+04 -4.52083E+04
  3.97130E+04  4.88042E+03  1.59547E+04  4.71692E+04 -3.31874E+04  4.64005E+04 -6.52142E+04  4.87241E+01
 -5.22701E+04 -5.59432E+04 -6.27848E+03 -7.57413E+04  3.26860E+04 -5.37933E+04  4.63440E+04 -1.66038E+04
  4.11491E+04  1.08275E+04  3.15634E+04  2.57207E+04  1.64993E+04  2.82552E+04 -5.22061E+03  2.61790E+04
 -2.29644E+04  1.38277E+04 -1.91945E+04 -4.76641E+03  5.09444E+03 -8.28884E+03  2.11656E+04  1.21545E+04
  7.02136E+03  3.38692E+04 -3.07492E+04  3.39611E+04 -6.08758E+04  1.84031E+03 -5.48217E+04 -4.16295E+04
 -1.28858E+04 -6.14625E+04  3.90397E+04 -4.42876E+04  5.69560E+04 -2.20983E+03  3.20620E+04  2.98660E+04
 -6.25537E+03  3.32210E+04 -2.83461E+04  1.23569E+04 -2.80266E+04 -6.53785E+03 -1.49902E+04 -1.01004E+04
 -7.02705E+03 -1.14503E+04 -8.19287E+02 -1.74987E+04  6.76070E+03 -2.32868E+04  1.48816E+04 -1.36381E+04
  1.23520E+04  4.54690E+03 -6.68694E+03  1.31060E+04 -2.00708E+04 -2.60395E+03 -7.74849E+03 -3.10049E+04
  2.10706E+04 -4.08092E+04  4.44618E+04 -2.03717E+04  4.27580E+04  1.87202E+04  1.30667E+04  4.23453E+04
 -1.62708E+04  3.21585E+04 -2.32496E+04  8.92955E+02 -8.88080E+03 -2.62379E+04  1.98341E+04 -3.15267E+04
  3.84555E+04 -8.02337E+03  3.10828E+04  2.32800E+04  1.52729E+04  4.22289E+04 -7.66716E+03  4.48989E+04
 -2.80106E+04  3.00471E+04 -3.79879E+04  8.49655E+03 -3.96445E+04 -1.48978E+04 -2.08984E+04 -3.46305E+04
  7.22896E+03 -3.49912E+04  2.92853E+04 -1.36385E+04  2.79268E+04  1.09579E+04  3.58546E+03  1.82760E+04
 -1.43965E+04  7.60662E+03 -9.87695E+03 -9.01446E+03  6.34549E+03 -9.25208E+03  1.76785E+04  6.11310E+03
  1.19730E+04  2.17862E+04 -5.91928E+03  2.40241E+04 -2.22664E+04  9.14623E+03 -2.51978E+04 -6.52206E+03
 -1.81827E+04 -1.63185E+04 -6.15707E+03 -1.76108E+04  4.65027E+03 -1.50474E+04  1.22650E+04 -1.45930E+04
  2.19550E+04 -1.12722E+04  2.87157E+04  7.16918E+02  2.15885E+04  1.68521E+04  3.72260E+03  3.31106E+04
 -1.67061E+04  2.82331E+04 -2.47357E+04  9.03060E+03 -1.92196E+04 -1.08138E+04 -3.70389E+03 -1.28330E+04
  1.99204E+03 -3.98425E+03 -2.93605E+03  5.83339E+03 -1.42623E+04  3.76900E+03 -1.36648E+04 -4.15169E+03
 -9.22749E+03 -1.55500E+04  5.20159E+03 -1.98218E+04  1.23631E+04 -1.53983E+04  1.37225E+04 -7.50680E+02
  7.74745E+03  9.71654E+03 -1.46321E+03  1.65050E+04 -1.14930E+04  9.94691E+03 -1.67992E+04 -4.13846E+03
 -1.20273E+04 -1.42560E+04 -1.14164E+03 -1.82920E+04  8.68578E+03 -1.64777E+04  1.67601E+04 -8.22579E+03
  1.45149E+04 -6.58241E+02  1.18870E+04  4.85763E+03  5.36229E+03  7.34372E+02  7.85705E+03 -2.01549E+03
  1.51190E+04  1.93620E+03  1.55848E+04  1.27023E+04  9.42531E+03  2.57323E+04 -3.14616E+03  2.71850E+04
 -1.72569E+04  2.19541E+04 -2.49055E+04  9.11412E+03 -2.69388E+04 -2.89503E+03 -2.22387E+04 -1.59220E+04
 -1.09297E+04 -2.05073E+04  7.19764E+03 -1.97408E+04  1.67463E+04 -1.19620E+04  1.61229E+04  3.96167E+03
  7.28037E+03  1.22267E+04 -7.89216E+03  1.06049E+04 -1.35037E+04  2.68336E+03 -1.14086E+04 -7.59171E+03
  1.78382E+02 -1.31761E+04  6.22582E+03 -9.72301E+03  9.25627E+03 -1.26952E+03  4.68650E+02  5.06701E+03
 -4.63702E+03  1.64997E+03 -3.60109E+03 -4.58496E+03  2.94173E+02 -1.05033E+04  8.12385E+03 -1.05576E+04
  1.30940E+04 -5.52983E+03  1.26913E+04  4.13200E+03  1.19119E+04  9.92014E+03  4.97887E+03  1.53333E+04
 -2.08960E+03  1.65888E+04 -1.09183E+04  1.08571E+04 -1.23429E+04  2.30019E+03 -8.56108E+03 -1.55917E+03
 -4.74378E+03 -3.12523E+03 -8.47345E+02  2.17984E+03 -2.59271E+03  1.69062E+03 -4.18585E+03  4.09910E+03
 -8.88557E+03 -4.09959E+02 -7.65340E+03 -7.11622E+03 -4.47001E+03 -1.17093E+04  2.82867E+03 -1.03259E+04
  7.24139E+03 -2.84019E+03  5.28290E+03  2.14087E+03  6.23377E+02  3.07352E+03 -3.78876E+03 -7.13339E+02
 -3.74371E+03 -5.50767E+03 -1.52625E+03 -7.48964E+03  4.64017E+03 -8.17988E+03  1.09984E+04 -3.59836E+03
  1.34074E+04  6.53008E+02  9.34521E+03  7.20858E+03  2.28610E+03  8.81903E+03 -5.40820E+03  7.84324E+03
 -6.91904E+03  3.01590E+03 -4.80669E+03 -1.35105E+03  2.20830E+03 -1.46863E+03  5.57586E+03 -8.34767E+02
  4.16294E+03  3.01166E+03  1.27693E+03  6.36402E+03 -4.17756E+03  7.39921E+03 -9.59475E+03  1.73691E+03
 -4.41904E+03 -3.79501E+03  7.85869E+02 -6.89738E+03  3.75105E+03 -3.30006E+03  3.98337E+03  1.05080E+03
  2.88931E+02  3.48604E+03 -3.33289E+03  6.18248E+03 -5.44320E+03  1.56691E+03 -4.39462E+03 -1.65434E+03
 -2.96588E+03 -6.42983E+03  2.38043E+03 -8.29743E+03  5.93035E+03 -5.13601E+03  7.73929E+03  7.37440E+02
  4.55349E+03  6.42754E+03  3.14584E+02  7.40007E+03 -4.39579E+03  4.23973E+03 -5.09835E+03  3.75917E+02
 -5.79013E+03 -5.34424E+03 -1.61309E+03 -4.55787E+03  3.41969E+03 -4.92152E+03  3.05391E+03 -3.16716E+03
  2.39713E+03 -4.24401E+02  6.07067E+01  1.02765E+03  7.74590E+02 -7.60872E+02  7.92287E+02 -2.46791E+03
  5.71954E+03 -1.56286E+03  6.65696E+03  7.80055E+02  5.67339E+03  3.51117E+03  5.50270E+03  8.58227E+03
 -1.93609E+03  8.18425E+03 -7.92127E+03  6.24109E+03 -1.06530E+04 -4.90961E+02 -9.01699E+03 -2.61817E+03
 -5.06669E+03 -7.60511E+03  4.28249E+02 -5.98917E+03  2.56714E+03 -2.31413E+03  1.67229E+03 -2.16162E+03
  1.86550E+03 -1.73620E+03  2.99810E+03 -2.65879E+03  2.59834E+03 -1.66524E+03  4.81758E+03 -4.99801E+02
  4.50296E+03  2.34982E+03  1.09157E+03  3.36374E+03 -1.40016E+03  2.77716E+03 -4.41634E+03  2.95334E+03
 -5.64473E+03 -1.47647E+03 -2.51295E+03 -5.06522E+03  4.56274E+02 -5.30310E+03  3.48198E+03 -6.33338E+03
  6.53528E+03 -4.51650E+03  7.63119E+03 -9.11159E+02  5.03313E+03  3.80561E+03  8.03698E+02  7.38431E+03
 -2.22721E+03  7.36873E+03 -3.26830E+03  1.57535E+03 -2.84738E+03 -9.80063E+02 -1.13088E+03 -1.80222E+02
  5.21252E+02  3.89613E+02 -9.69720E+02  2.72747E+03 -2.89728E+03  1.13181E+03 -4.74054E+03 -1.19412E+03
 -1.87763E+03 -3.94765E+03  1.57419E+03 -4.86925E+03  2.63884E+03 -4.61388E+03  4.37488E+03 -1.51816E+03
  3.71281E+03  2.13642E+03  1.25717E+03  3.61385E+03 -1.10061E+03  4.98780E+03 -3.11212E+03  2.51104E+03
 -5.15755E+03  9.92214E+02 -4.08617E+03 -2.70776E+03  7.91754E+01 -3.17012E+03  1.90206E+03 -3.61939E+03
  4.26418E+03 -9.97263E+02  1.28264E+03  8.83924E+02  5.16035E+02  2.26036E+03  1.10626E+03  5.32970E+02
  1.52133E+03  6.66008E+02  1.42882E+03  1.14174E+03  9.13480E+02  3.17964E+03  1.32719E+03  1.62014E+03
 -1.60633E+03  2.67384E+03 -2.81059E+03  4.50133E+03 -3.37451E+03  1.83123E+03 -5.84990E+03 -1.37262E+03
 -2.03249E+03 -3.96357E+03  2.95711E+02 -7.04484E+03  1.54850E+03 -2.84473E+03  2.61545E+03 -5.23204E+02
  3.94207E+03  2.32706E+03 -2.94042E+02  2.76684E+03 -1.03557E+03  1.53118E+03 -2.53515E+02 -3.77029E+02
 -1.58006E+03 -1.22988E+03  1.81389E+03 -1.53700E+03  2.28149E+03 -8.23705E+01  1.19693E+03  8.12543E+02
  3.54896E+02  2.42236E+02  7.58659E+02  5.08867E+02 -9.21171E+02  4.70514E+02  1.41977E+03 -8.17050E+02
  2.58936E+02  1.00581E+03  1.55640E+03  7.82887E+02  1.83840E+03  2.82101E+03 -4.36634E+02  3.84410E+03
 -2.88274E+03  1.12173E+03 -2.36677E+03  4.56578E+01 -2.11667E+03 -1.59213E+03 -2.03714E+03 -1.75785E+03
  5.14057E+02 -2.38817E+03  1.19875E+03 -1.34369E+03  1.04290E+03  1.35115E+03 -2.25582E+02  2.20096E+03
 -1.94834E+03  2.24391E+03 -1.57477E+03 -2.18922E+03 -2.67071E+02 -2.82768E+03  1.10978E+03 -2.47599E+03
  1.03996E+03 -5.52644E+02  1.47012E+03 -6.35584E+02  1.41568E+03 -3.21540E+02  1.15378E+02  1.46281E+03
 -6.41024E+02 -4.51239E+02 -1.03285E+03 -1.34214E+03  3.51973E+02 -7.83773E+02  3.13685E+03 -4.84424E+02
  2.72915E+03 -4.87263E+01  3.73180E+03  3.74296E+02  2.03345E+03  1.36045E+03 -2.63506E+02  3.01100E+03
 -1.46522E+03  1.70425E+03 -1.60831E+03  5.62499E+01 -1.01509E+03 -8.91725E+02  1.58694E+02 -1.92379E+03
  1.20620E+03 -8.33239E+02  8.43264E+02  6.94866E+02  2.78418E+02  5.54478E+02  8.30614E+02  5.10885E+02
 -7.31143E+02  5.15359E+02 -9.50195E+02  8.59937E+02 -1.17594E+02  6.87651E+02 -2.21612E+03  3.87208E+02
 -8.92736E+02  1.02117E+03 -1.97111E+03  7.68331E+01 -3.24878E+03 -4.84528E+02 -3.64693E+03 -1.75526E+03
 -1.18045E+03 -3.49479E+03  9.07530E+02 -4.03011E+03  2.49092E+03 -2.76252E+03  2.20651E+03 -2.01393E+03
  3.23906E+03 -5.32460E+02  2.15951E+03  2.19704E+03  1.71315E+02  1.85540E+03 -1.34435E+03  1.45113E+03
 -1.38794E+03  2.31746E+03 -1.61870E+03 -1.19601E+03 -2.65385E+02  3.58977E+02  1.94397E+01  7.06303E+02
 -1.48348E+03 -7.09468E+02 -1.37547E+03  5.17827E+02  5.67739E+02 -1.22418E+03 -1.74019E+02 -7.26004E+02
  1.67143E+03 -4.27677E+02  1.44422E+03 -1.71023E+02  1.94227E+03  1.09858E+03  7.23237E+02  2.15526E+03
 -7.02713E+02  3.08063E+03 -2.45459E+03  9.16937E+02 -2.51132E+03  8.09266E+01 -1.09181E+03 -8.40250E+02
 -1.97149E+03 -1.93373E+03  1.32380E+03 -2.36624E+03  1.47400E+03  2.57880E+02  8.14611E+02  2.69741E+02
  1.30212E+03 -4.86138E+01 -8.13435E+01 -5.97682E+02 -9.29226E+02  6.42831E+01  6.95270E+02 -6.34058E+02
  1.19226E+03  2.66541E+02  7.41862E+02  1.41547E+03  4.55282E+02 -5.16948E+02  1.41119E+03  5.54260E+01
 -1.69317E+03  3.87015E+02 -6.30562E+01 -4.29862E+02 -1.17740E+03 -4.10620E+02 -1.53713E+02 -1.12385E+03
  6.50060E+02 -1.01598E+03  1.47683E+03 -3.69034E+02  2.54370E+03 -8.48358E+00 -1.12221E+01  1.59641E+03
  4.25900E+02  5.35996E+02  1.25542E+02  6.54859E+02 -2.30131E+02 -1.14522E+02 -7.03730E+02  1.47008E+02
 -8.51265E+02  6.69561E+02 -2.80082E+02  1.99513E+02 -1.14073E+03  9.92632E+02 -1.17434E+03  1.83708E+02
 -1.16371E+03  2.58468E+02 -2.69066E+02 -2.86715E+03  1.83594E+03 -2.36645E+03  6.10802E+02  1.14507E+02
  1.61890E+03 -6.17097E+02 -2.31870E+02 -2.97215E+02 -2.25866E+02  1.41291E+03  7.53718E+02  9.33801E+02
