 $NMID ID='MM_0lb_SNR200_17hz_g45_14.RAW', FMTDAT='(8E13.5)'
 TRAMP=1., VOLUME=1. $END
  3.10085E+05  4.05543E+02  3.36941E+05  2.50721E+05  8.46418E+04  3.37032E+05 -1.31911E+05  2.50821E+05
 -1.89659E+05  8.23402E+04 -1.10992E+05 -3.31946E+04  1.02652E+03 -5.00693E+04  5.40593E+04  4.52640E+02
  3.51127E+04  5.21298E+04 -1.65082E+04  7.51280E+04 -6.07607E+04  6.28419E+04 -8.27446E+04  3.07845E+04
 -8.00194E+04 -1.08384E+04 -5.64131E+04 -5.11277E+04 -1.49268E+04 -6.82739E+04  2.71120E+04 -4.46840E+04
  3.84798E+04  3.68979E+03  1.52714E+04  4.68778E+04 -3.42920E+04  4.56793E+04 -6.57084E+04  3.14927E+02
 -5.17615E+04 -5.59726E+04 -7.31122E+03 -7.64437E+04  3.28684E+04 -5.43746E+04  4.74570E+04 -1.69954E+04
  4.24518E+04  1.10808E+04  3.18533E+04  2.58919E+04  1.62077E+04  2.99404E+04 -4.73753E+03  2.67412E+04
 -2.19406E+04  1.19358E+04 -1.88539E+04 -4.73903E+03  5.01162E+03 -7.02299E+03  2.14873E+04  1.20985E+04
  7.02598E+03  3.40926E+04 -3.09301E+04  3.32700E+04 -6.10327E+04  2.45523E+03 -5.51783E+04 -4.15888E+04
 -1.21717E+04 -6.11159E+04  3.78212E+04 -4.39885E+04  5.51565E+04 -1.32536E+03  3.23860E+04  3.15290E+04
 -6.71948E+03  3.40947E+04 -2.84703E+04  1.42651E+04 -2.72493E+04 -5.32485E+03 -1.43515E+04 -1.00377E+04
 -8.60367E+03 -1.15674E+04 -9.79862E+02 -1.70370E+04  7.34269E+03 -2.36344E+04  1.52797E+04 -1.39455E+04
  1.13603E+04  5.41052E+03 -7.23433E+03  1.32236E+04 -1.99173E+04 -2.86119E+03 -8.24554E+03 -3.06421E+04
  2.15838E+04 -4.11303E+04  4.62243E+04 -1.85356E+04  4.36538E+04  1.81664E+04  1.43380E+04  4.19646E+04
 -1.48791E+04  3.18184E+04 -2.36250E+04  1.91241E+03 -8.59849E+03 -2.78671E+04  2.04017E+04 -3.10728E+04
  3.86271E+04 -8.01527E+03  3.29758E+04  2.29148E+04  1.62501E+04  4.32404E+04 -7.90759E+03  4.65146E+04
 -2.92833E+04  3.13548E+04 -3.84307E+04  8.58549E+03 -4.00667E+04 -1.49811E+04 -2.17620E+04 -3.53916E+04
  6.37988E+03 -3.51638E+04  2.84350E+04 -1.29823E+04  2.61040E+04  1.09559E+04  3.46197E+03  1.81133E+04
 -1.36527E+04  7.11654E+03 -1.00185E+04 -8.56933E+03  5.59982E+03 -9.74556E+03  1.59696E+04  6.31188E+03
  1.30501E+04  2.07181E+04 -6.67415E+03  2.44768E+04 -2.13765E+04  1.00410E+04 -2.55376E+04 -5.44884E+03
 -1.74722E+04 -1.63688E+04 -6.36895E+03 -1.93655E+04  4.50801E+03 -1.50985E+04  1.40762E+04 -1.68204E+04
  2.32299E+04 -1.29943E+04  2.88900E+04  1.05593E+03  2.21622E+04  1.80383E+04  3.68848E+03  3.30826E+04
 -1.61364E+04  2.89692E+04 -2.58513E+04  1.01243E+04 -2.10755E+04 -1.00728E+04 -3.58192E+03 -1.36671E+04
  1.63564E+03 -3.19552E+03 -3.16883E+03  5.21890E+03 -1.42675E+04  5.37794E+03 -1.35563E+04 -5.54727E+03
 -8.43105E+03 -1.65850E+04  5.50261E+03 -2.04110E+04  1.22484E+04 -1.51113E+04  1.52835E+04 -1.84112E+03
  9.51164E+03  1.20855E+04 -4.72157E+02  1.64810E+04 -1.21299E+04  9.09473E+03 -1.71319E+04 -3.45007E+03
 -1.19380E+04 -1.50047E+04 -1.64269E+03 -2.11185E+04  8.37869E+03 -1.56552E+04  1.65973E+04 -8.01073E+03
  1.51618E+04  1.18666E+03  1.20080E+04  3.78457E+03  4.59736E+03  1.09725E+02  7.75038E+03 -1.89974E+03
  1.49366E+04  2.98447E+03  1.64337E+04  1.25911E+04  9.78541E+03  2.57855E+04 -3.39617E+03  2.84139E+04
 -1.74390E+04  2.23485E+04 -2.59818E+04  1.01814E+04 -2.73597E+04 -2.14187E+03 -2.29978E+04 -1.56425E+04
 -1.07716E+04 -2.14516E+04  8.08103E+03 -2.00569E+04  1.70539E+04 -1.17538E+04  1.63005E+04  3.93961E+03
  6.82468E+03  1.26952E+04 -6.43668E+03  1.18192E+04 -1.45601E+04  2.84056E+03 -1.02052E+04 -8.59976E+03
  7.89702E+02 -1.39658E+04  5.82680E+03 -1.00327E+04  8.91449E+03 -1.29815E+03  1.61747E+03  5.39679E+03
 -5.76844E+03  1.99173E+03 -4.81236E+03 -4.55011E+03 -1.01881E+03 -1.04653E+04  8.48231E+03 -1.14709E+04
  1.37631E+04 -5.62700E+03  1.30209E+04  2.93997E+03  1.12257E+04  1.13510E+04  6.33091E+03  1.65503E+04
 -1.69271E+03  1.77411E+04 -9.80370E+03  1.06730E+04 -1.25416E+04  2.37274E+03 -7.75353E+03 -1.19892E+03
 -5.17869E+03 -3.82745E+03 -1.29828E+03  1.13081E+03 -1.82380E+03  3.05764E+03 -3.91620E+03  3.06047E+03
 -7.91596E+03 -6.36523E+02 -1.03268E+04 -6.68242E+03 -3.52345E+03 -1.35072E+04  3.52867E+03 -8.31620E+03
  9.00654E+03 -4.89775E+03  6.35458E+03  2.35774E+03  4.31783E+02  2.40097E+03 -3.89817E+03  3.96201E+02
 -3.44254E+03 -5.70814E+03 -1.23032E+03 -8.20069E+03  5.32868E+03 -7.80668E+03  1.07134E+04 -4.19964E+03
  1.28254E+04  1.01021E+03  9.78692E+03  7.37287E+03  2.65265E+03  1.04592E+04 -5.91591E+03  9.03071E+03
 -7.63349E+03  4.21146E+03 -3.98616E+03 -1.04364E+03  1.07213E+03 -1.61657E+03  4.77511E+03 -8.34999E+02
  4.46646E+03  3.65234E+03  6.21307E+02  6.99103E+03 -4.36208E+03  7.34644E+03 -8.15281E+03  1.59836E+03
 -5.56477E+03 -4.65411E+03  5.37650E+02 -6.30088E+03  3.58842E+03 -3.55266E+03  3.61208E+03  1.61063E+03
 -7.69583E+02  3.91392E+03 -5.07411E+03  6.03409E+03 -4.84585E+03  3.14438E+03 -5.06631E+03 -1.97675E+03
 -3.91859E+03 -6.69239E+03  1.93614E+03 -8.25462E+03  5.92405E+03 -5.44112E+03  7.70109E+03  6.12392E+02
  5.20173E+03  6.08053E+03  5.69123E+01  7.40240E+03 -5.69640E+03  5.01979E+03 -6.43312E+03  5.80993E+02
 -6.64466E+03 -6.25433E+03 -1.80302E+03 -7.05605E+03  2.72759E+03 -5.68870E+03  4.26659E+03 -2.90999E+03
  3.00916E+03  6.50081E-01  5.51165E+02  1.30046E+03  3.81867E+02 -6.94668E+02  1.19693E+02 -2.21580E+03
  5.35040E+03 -1.19656E+03  5.96898E+03 -1.53199E+02  6.67549E+03  4.34562E+03  6.29171E+03  8.38045E+03
 -2.04287E+03  9.79447E+03 -9.24548E+03  7.66763E+03 -1.09340E+04  1.44128E+03 -9.17164E+03 -2.69765E+03
 -4.74830E+03 -7.52028E+03 -3.50246E+02 -5.47597E+03  3.28592E+03 -2.71070E+03  2.76590E+03 -2.79709E+03
  1.51438E+03 -1.65920E+03  2.18859E+03 -2.62812E+03  2.54620E+03 -1.70599E+03  4.57702E+03  9.20443E+02
  4.23509E+03  1.39454E+03  1.40531E+03  4.59244E+03 -2.08332E+03  3.32774E+03 -4.77781E+03  4.31444E+03
 -6.21208E+03 -7.70830E+02 -2.35174E+03 -3.78241E+03  3.42127E+02 -5.56639E+03  3.58697E+03 -6.49978E+03
  7.30285E+03 -4.16432E+03  6.81502E+03  5.49639E+02  4.84765E+03  4.81208E+03  7.59183E+02  6.40554E+03
 -3.34777E+03  5.33172E+03 -3.73581E+03  2.14357E+03 -2.91883E+03 -1.21467E+03 -5.40047E+02 -6.11790E+02
  3.80705E+02  7.07206E+02 -9.04533E+02  1.04673E+03 -3.09684E+03  1.65076E+03 -4.53168E+03  2.24603E+02
 -1.85111E+03 -4.30387E+03  8.33570E+02 -6.39846E+03  4.33446E+03 -4.32663E+03  4.79126E+03 -3.31358E+03
  4.52465E+03  2.84294E+03  1.57473E+03  3.73500E+03 -1.17818E+03  5.37947E+03 -2.85556E+03  3.87919E+03
 -4.15925E+03  6.16588E+02 -4.80121E+03 -2.47066E+03 -3.80421E+02 -2.52103E+03  1.41874E+03 -3.25651E+03
  3.02747E+03 -1.56260E+03  1.97551E+03 -1.01066E+03  1.28287E+03  2.08061E+03  9.03834E+02  4.72398E+02
  2.15805E+03  3.70637E+02  1.84557E+03 -3.58776E+01  1.99787E+03  1.71715E+03  7.93743E+02  2.41559E+03
 -1.72270E+03  4.23196E+03 -3.26089E+03  4.47210E+03 -3.17608E+03  8.42069E+02 -5.44873E+03 -9.17137E+02
 -1.75143E+03 -5.29188E+03  4.96401E+02 -5.81863E+03  2.45595E+03 -3.50188E+03  4.47450E+03 -1.88344E+02
  1.80778E+03  2.78423E+03 -8.19055E+02  2.73480E+03 -1.03033E+03  1.68453E+03 -1.36124E+03  4.93955E+02
 -1.43462E+03 -8.45065E+02  1.24242E+03 -2.38526E+03  2.39444E+03 -2.29490E+03  2.61157E+03  1.46283E+02
 -2.12300E+01  1.05144E+03  2.50241E+02  9.51858E+02 -1.09594E+03  1.65524E+03  7.25568E+02  3.08976E+02
  8.13309E+02 -1.27253E+02  1.91362E+03  2.32624E+02  1.21409E+03  2.34720E+03 -1.03368E+03  3.36134E+03
 -1.34714E+03  1.56319E+03 -3.42894E+03  2.44357E+02 -2.56654E+03 -1.20685E+03 -6.81331E+02 -1.55759E+03
  5.16635E+02 -1.30222E+03  1.63641E+03  1.41196E+02 -3.68105E+01  1.46984E+03 -5.39534E+02  5.45921E+02
 -1.43328E+03  1.29502E+03 -1.51161E+03 -9.32679E+02 -1.49017E+03 -2.63101E+03  1.10950E+03 -9.75637E+02
  2.74228E+02 -4.82340E+01  7.81520E+02  3.50964E+02  1.08191E+03  4.47668E+02  5.12786E+02  1.58468E+03
 -9.99021E+02 -1.46068E+02 -1.37214E+03 -1.29311E+03 -2.34296E+01 -1.13111E+03  2.36418E+03 -1.86969E+03
  1.26501E+03  2.52428E+02  3.45653E+03  8.14702E+02  1.60122E+03  2.53243E+03  1.87438E+01  3.52742E+03
 -1.78051E+03  9.96378E+02 -1.15354E+03 -2.56560E+02 -6.33962E+02 -1.22486E+03  5.82032E+01 -1.65984E+03
  2.55323E+03 -5.33775E+02  9.84369E+02  2.58327E+03  8.62774E+02  1.40773E+03 -2.08694E+02  1.00700E+03
 -3.82975E+02  1.43582E+03 -5.91138E+02  7.86575E+01 -1.78691E+02  9.36526E+02 -1.78618E+03  5.55251E+02
 -2.58320E+02  1.18474E+03 -2.63945E+03  1.69808E+03 -1.61066E+03  1.02530E+03 -3.63297E+03 -5.94901E+02
 -1.50943E+03 -3.30470E+03  3.59083E+01 -3.86721E+03  1.09667E+03 -3.24117E+03  4.20111E+03 -7.72652E+02
  2.79988E+03 -1.44254E+02  1.74180E+03  6.76884E+02 -6.55893E+02  9.24496E+02 -3.51374E+02  2.02541E+03
 -4.61707E+02  4.47889E+02 -6.77187E+02  4.46441E+02 -1.16271E+03 -2.86416E+02 -4.72004E+02 -1.16899E+03
 -1.44327E+03 -2.56239E+01 -9.70876E+02 -8.68343E+01  1.23923E+03 -1.67914E+03 -3.59643E+02 -9.96968E+02
 -6.84528E+01 -1.70731E+03  1.02724E+03  5.07874E+02  8.00287E+02  1.65499E+03 -7.10452E+02  2.33711E+03
 -2.19281E+03  2.84060E+03 -2.75603E+03  1.96104E+03 -2.94147E+03  9.64873E+01 -1.36044E+03 -2.06617E+03
 -1.10428E+03 -2.15327E+03  2.88537E+02 -1.06880E+03  1.43963E+03 -2.47695E+03 -1.98390E+02  1.15143E+02
  1.10128E+03 -8.18683E+01 -5.55449E+02  2.89240E+02 -1.26387E+02 -1.00942E+03 -3.17468E+02 -6.67741E+02
  5.32087E+02 -5.92931E+02  1.08026E+03  1.65096E+03  2.37758E+02  3.83387E+02  4.50458E+02  1.13746E+03
 -9.20584E+02  9.33799E+02 -1.45320E+03  4.77559E+02 -1.06087E+03 -1.05954E+03  7.52957E+02 -2.50150E+03
  9.74687E+02 -1.41001E+03  1.95398E+03 -3.54170E+02  2.16229E+03 -2.35812E+02  1.78885E+03  1.17188E+03
  7.59914E+02 -2.75284E+02 -6.02570E+02  1.06047E+03  1.65260E+01  1.09665E+03 -6.03712E+01 -1.95341E+02
 -3.58237E+02  8.82869E+02 -4.20056E+02 -3.20538E+01 -1.15904E+03 -6.54195E+02 -1.19428E+03 -1.39305E+03
 -1.52176E+03  8.34626E+02 -5.08807E+02 -1.53665E+03  1.15029E+03 -2.00962E+03 -5.34877E+02 -5.22103E+02
  6.73880E+02  2.83843E+02 -1.09759E+03  6.94812E+02  1.35444E+02  1.44011E+03 -6.85397E+02  1.31448E+03
