 $NMID ID='MM_0lb_SNR200_17hz_g60_48.RAW', FMTDAT='(8E13.5)'
 TRAMP=1., VOLUME=1. $END
  3.10528E+05  9.65497E+02  3.37688E+05  2.50400E+05  8.50041E+04  3.39044E+05 -1.31988E+05  2.51442E+05
 -1.89605E+05  8.33015E+04 -1.12380E+05 -3.31277E+04  9.05284E+02 -4.98893E+04  5.40729E+04  5.22048E+02
  3.60477E+04  5.28134E+04 -1.60758E+04  7.53460E+04 -6.11093E+04  6.28907E+04 -8.42603E+04  3.10382E+04
 -8.00799E+04 -1.16592E+04 -5.66054E+04 -5.16218E+04 -1.48117E+04 -6.90041E+04  2.73109E+04 -4.50961E+04
  4.05648E+04  4.12123E+03  1.68080E+04  4.81040E+04 -3.48127E+04  4.62190E+04 -6.68585E+04 -6.24858E+02
 -5.28370E+04 -5.65885E+04 -5.80994E+03 -7.71244E+04  3.39693E+04 -5.56037E+04  4.74749E+04 -1.63210E+04
  4.34928E+04  1.10196E+04  3.03550E+04  2.56909E+04  1.62311E+04  2.89148E+04 -4.72619E+03  2.69548E+04
 -2.16737E+04  1.29001E+04 -1.94459E+04 -5.24921E+03  5.75191E+03 -7.17603E+03  2.07421E+04  1.26824E+04
  7.84277E+03  3.50018E+04 -3.13886E+04  3.49713E+04 -6.23372E+04  1.56805E+03 -5.75291E+04 -4.21648E+04
 -1.30246E+04 -6.35120E+04  3.83836E+04 -4.54482E+04  5.85375E+04 -2.39774E+03  3.25426E+04  3.13775E+04
 -5.76163E+03  3.50333E+04 -2.88382E+04  1.56056E+04 -2.94005E+04 -4.62140E+03 -1.56865E+04 -1.15823E+04
 -8.78325E+03 -1.26394E+04 -2.04927E+03 -1.76980E+04  7.16838E+03 -2.35796E+04  1.47905E+04 -1.29730E+04
  1.22152E+04  4.59482E+03 -7.41205E+03  1.21602E+04 -2.00738E+04 -3.40552E+03 -8.45780E+03 -3.36287E+04
  2.32637E+04 -4.21021E+04  4.69452E+04 -2.09921E+04  4.54241E+04  1.90205E+04  1.35899E+04  4.33278E+04
 -1.68139E+04  3.23549E+04 -2.44262E+04  1.79317E+03 -9.78737E+03 -2.67702E+04  2.12908E+04 -3.42230E+04
  4.00055E+04 -8.71496E+03  3.48533E+04  2.30617E+04  1.72369E+04  4.50347E+04 -8.85082E+03  4.89002E+04
 -3.03974E+04  3.29855E+04 -4.14893E+04  8.79667E+03 -4.23129E+04 -1.59952E+04 -2.35875E+04 -3.75674E+04
  7.05389E+03 -3.67373E+04  3.15772E+04 -1.44397E+04  2.89674E+04  1.02750E+04  3.87764E+03  1.75582E+04
 -1.28517E+04  7.89318E+03 -1.01073E+04 -7.27879E+03  5.48960E+03 -1.07607E+04  1.71516E+04  6.85990E+03
  1.32951E+04  2.09597E+04 -6.62799E+03  2.50588E+04 -2.24628E+04  1.15862E+04 -2.63558E+04 -5.34999E+03
 -1.98144E+04 -1.76981E+04 -7.23673E+03 -1.86312E+04  4.01246E+03 -1.77804E+04  1.42364E+04 -1.70196E+04
  2.45676E+04 -1.23581E+04  3.13619E+04  1.99497E+03  2.27019E+04  1.89011E+04  3.43598E+03  3.51353E+04
 -1.72210E+04  2.91873E+04 -2.64972E+04  1.02144E+04 -2.06675E+04 -9.23802E+03 -3.64299E+03 -1.28276E+04
  1.93644E+03 -2.85365E+03 -5.33171E+03  5.75056E+03 -1.54891E+04  4.78548E+03 -1.49507E+04 -7.33647E+03
 -1.02061E+04 -1.77869E+04  5.56468E+03 -2.09983E+04  1.49823E+04 -1.56470E+04  1.74938E+04 -1.62580E+03
  1.05985E+04  1.33674E+04 -1.06061E+03  1.72912E+04 -1.13110E+04  8.93077E+03 -1.76096E+04 -4.13640E+03
 -1.31195E+04 -1.61981E+04 -1.77937E+03 -2.18674E+04  8.90170E+03 -1.71642E+04  1.72626E+04 -8.90724E+03
  1.53200E+04  3.70257E+02  1.18805E+04  3.95494E+03  6.90006E+03  6.14278E+02  9.20896E+03 -1.41354E+03
  1.69542E+04  3.65551E+03  1.76643E+04  1.52375E+04  1.08095E+04  2.82455E+04 -3.15765E+03  3.23172E+04
 -1.84998E+04  2.52486E+04 -2.94271E+04  1.32267E+04 -3.06073E+04 -2.46638E+03 -2.53482E+04 -1.74591E+04
 -1.10124E+04 -2.51658E+04  7.79366E+03 -2.20936E+04  2.03486E+04 -1.24487E+04  1.78991E+04  4.30830E+03
  7.71121E+03  1.33761E+04 -9.39173E+03  1.28429E+04 -1.44951E+04  2.28558E+03 -1.22692E+04 -8.26941E+03
 -3.57072E+02 -1.42033E+04  7.71797E+03 -1.21131E+04  9.58871E+03 -2.07543E+03  2.09566E+03  5.67716E+03
 -7.95859E+03  1.16454E+03 -4.98920E+03 -4.45739E+03 -4.50998E+02 -1.22727E+04  9.15672E+03 -1.26834E+04
  1.49543E+04 -5.47748E+03  1.59934E+04  2.78601E+03  1.39217E+04  1.12196E+04  6.93618E+03  1.74743E+04
 -2.44846E+03  1.95894E+04 -1.10551E+04  1.29982E+04 -1.40555E+04  3.11360E+03 -1.11278E+04 -3.79003E+03
 -5.64005E+03 -4.77147E+03 -1.20343E+03  2.59323E+03 -2.45762E+03  2.89170E+03 -4.68321E+03  4.30468E+03
 -1.04593E+04 -1.70228E+03 -9.64939E+03 -7.39787E+03 -3.23563E+03 -1.35197E+04  4.41452E+03 -1.05535E+04
  9.01046E+03 -4.70910E+03  5.52286E+03  2.85282E+03  3.83594E+02  3.29018E+03 -3.66565E+03  1.93369E+02
 -4.90352E+03 -8.27193E+03 -1.18180E+03 -8.33904E+03  5.51676E+03 -9.76079E+03  1.09975E+04 -3.86761E+03
  1.50805E+04  5.77911E+02  1.01383E+04  8.03599E+03  1.63260E+03  9.87034E+03 -6.44332E+03  9.13796E+03
 -8.07517E+03  3.29448E+03 -4.01985E+03 -2.58596E+03  1.25804E+03 -2.17725E+03  5.28736E+03 -2.07743E+03
  4.97681E+03  3.64123E+03  1.07469E+03  8.10741E+03 -4.88531E+03  7.76261E+03 -8.60616E+03  1.55925E+03
 -6.88208E+03 -4.22797E+03  5.28265E+02 -8.45666E+03  6.08287E+03 -4.16428E+03  3.78751E+03  1.09057E+03
  2.25758E+03  4.27879E+03 -4.51274E+03  6.31100E+03 -8.38033E+03  3.08211E+03 -6.62936E+03 -2.06077E+03
 -4.26540E+03 -7.93014E+03  1.82109E+03 -9.35436E+03  7.43166E+03 -6.03360E+03  8.18404E+03  1.40930E+03
  5.07077E+03  7.16400E+03  8.75707E+02  9.21311E+03 -5.31382E+03  4.87033E+03 -6.88662E+03 -8.65437E+02
 -6.55049E+03 -5.77572E+03 -4.61575E+02 -6.42359E+03  2.90061E+03 -6.12405E+03  4.14126E+03 -3.35215E+03
  4.56001E+03  6.27739E+02 -4.45813E+02  1.97334E+03 -1.02502E+03 -3.91189E+02  1.71745E+02 -2.60063E+03
  5.08067E+03 -1.84767E+03  6.54764E+03  3.25362E+02  6.85382E+03  4.55271E+03  6.78854E+03  9.99470E+03
 -2.59200E+03  1.11961E+04 -1.04075E+04  7.73386E+03 -1.10135E+04  2.44376E+03 -1.03939E+04 -1.65379E+03
 -5.25652E+03 -8.91027E+03 -5.18275E+01 -5.70295E+03  3.61129E+03 -2.66985E+03  1.66348E+03 -2.85967E+03
  1.87783E+03 -1.19377E+03  3.12226E+03 -3.65498E+03  4.29202E+03 -1.75823E+03  2.96030E+03  2.68395E+02
  5.80369E+03  1.62190E+03  1.02477E+03  5.13381E+03 -1.80020E+03  4.71429E+03 -6.53709E+03  3.19726E+03
 -5.63092E+03 -4.11002E+02 -2.49985E+03 -2.99693E+03  3.56094E+02 -6.31111E+03  3.36075E+03 -7.25544E+03
  5.98819E+03 -3.55470E+03  8.25473E+03  1.55784E+02  6.28537E+03  6.11238E+03  1.27409E+03  6.48198E+03
 -3.20329E+03  6.68860E+03 -3.26728E+03  2.66845E+03 -2.93516E+03 -7.92223E+02 -1.35333E+03 -8.82181E+02
 -4.22025E+02  3.45162E+02 -8.64852E+02  1.10123E+03 -2.83542E+03  8.13574E+02 -6.09207E+03  6.45968E+01
 -1.42235E+03 -5.02355E+03  2.59339E+02 -4.92530E+03  4.50094E+03 -5.21672E+03  4.85236E+03 -9.59714E+02
  7.11430E+03  2.74417E+03  2.40756E+03  4.35007E+03 -1.12094E+03  6.01665E+03 -3.76360E+03  4.25442E+03
 -4.92219E+03  9.22124E+02 -4.28902E+03 -3.61423E+03 -6.54260E+02 -3.43267E+03  2.90209E+03 -2.74944E+03
  2.87644E+03 -8.48425E+02  1.46188E+03  1.42824E+03  5.16584E+02  7.68517E+02  1.75997E+03  4.29560E+02
  3.14652E+03  6.16525E+02  1.88044E+03  7.26889E+02  9.89064E+02  1.03775E+03  1.68147E+03  2.39973E+03
 -1.69163E+03  3.39528E+03 -2.76474E+03  4.91557E+03 -5.42561E+03  8.25917E+02 -6.19427E+03 -5.78530E+02
 -1.87784E+03 -4.38052E+03  1.45581E+03 -6.65514E+03  2.95572E+03 -2.57463E+03  3.15240E+03 -6.34286E+02
  4.74474E+03  1.02835E+03  6.15091E+02  2.98926E+03 -1.44158E+03  1.01999E+03 -1.78310E+03  4.53792E+02
 -4.45212E+02 -2.25811E+03  9.14921E+02 -1.67934E+03  4.78934E+02 -2.25770E+03  1.45680E+03  4.34250E+02
  5.75084E+02  3.51732E+02  9.66608E+02  4.53131E+02  1.48420E+02  6.40692E+02  1.24231E+03  2.94724E+02
  1.29135E+03 -8.43418E+02  2.26688E+03  9.92187E+02  1.20860E+03  1.86934E+03 -8.96826E+02  3.54350E+03
 -2.19742E+03  1.20944E+03 -2.95542E+03  8.47061E+02 -2.20908E+03 -2.07321E+02  8.09143E+01 -1.55077E+03
  5.56564E+02 -1.83031E+03  1.20852E+03  7.42214E+01  6.02972E+02  9.65702E+02 -1.43281E+03  4.62430E+01
 -2.44887E+03  7.09165E+02 -6.33833E+02 -1.37104E+03 -1.41328E+03 -2.84417E+03  1.98427E+02 -1.41167E+03
  8.14152E+02  2.35770E+02  1.01521E+03  1.70624E+02  1.44866E+03 -8.31938E+02  3.75278E+02  1.26931E+03
 -3.37250E+02 -4.23363E+01 -8.41018E+02 -8.81955E+02  5.86987E+02 -2.23875E+03  2.48608E+03 -1.87118E+03
  2.39930E+03  1.50345E+03  2.87457E+03  1.27636E+03  1.33862E+03  2.12149E+03  3.38954E+02  2.70666E+03
 -1.69008E+03 -4.09724E+02 -1.63300E+03 -5.07191E+02 -9.71781E+02 -8.29448E+02 -2.86916E+02 -1.13589E+03
  1.96236E+03 -3.58629E+02  1.40057E+03  8.58374E+02  3.17871E+02  2.15619E+03  2.47360E+02  1.12594E+03
  1.40662E+02  5.54332E+02  5.03490E+02  1.39299E+03 -9.32328E+02 -3.84417E+02 -4.02121E+02  7.51887E+02
 -8.93666E+02  1.45503E+03 -2.19874E+03  1.23825E+03 -1.79260E+03  2.18393E+03 -3.06441E+03 -8.36865E+02
 -1.18067E+03 -3.10428E+03  1.58923E+03 -3.06283E+03  1.36011E+03 -3.53858E+03  2.34189E+03 -4.57574E+02
  2.48728E+03  3.72962E+02  2.07985E+03  1.55332E+03  1.19579E+02  1.79818E+03 -4.86662E+02  1.99361E+03
 -5.25854E+02  1.69391E+03 -4.19270E+02 -2.76658E+02  4.70843E+02  5.84567E+02 -1.33270E+03  3.25518E+02
 -1.08186E+03  1.25426E+02 -2.25860E+03 -5.19522E+02  2.93567E+02 -9.63074E+00 -1.03278E+02 -1.99644E+03
  8.30774E+02 -1.38132E+03  1.39746E+03 -4.04958E+02  1.95573E+03  1.65836E+03  1.02918E+02  1.91920E+03
 -1.05809E+03  2.08776E+03 -3.00637E+03  1.42598E+03 -2.82489E+03 -5.87438E+02 -1.17993E+03 -2.10024E+03
 -5.39443E+02 -2.89504E+03  1.30456E+03 -1.05625E+03  1.58229E+03 -1.54988E+03  1.44133E+03  2.46235E+02
  1.43057E+03  5.65654E+02 -9.19985E+02  2.45397E+02 -3.67435E+01 -5.36594E+02  1.00021E+03 -7.61926E+02
  1.96596E+02 -5.18589E+02 -4.66045E+02  1.17549E+03  2.99334E+02  8.40496E+02  5.43866E+02  1.17458E+03
 -3.53357E+02  6.82266E+02 -1.66812E+02  9.15208E+02 -1.41110E+03  2.05106E+02 -1.17730E+02 -2.43991E+03
 -2.55944E+02 -1.49629E+03  4.96338E+02 -1.00605E+02  1.93469E+03 -4.75545E+02  1.18498E+02  1.48612E+03
  1.29758E+02  9.19043E+02  3.15402E+02  8.69698E+02 -1.40789E+03  4.17224E+02 -9.98842E+02 -3.22931E+02
  5.80505E+01 -1.34534E+02 -5.78587E+02  6.30928E+02 -4.52046E+02  8.88927E+02 -7.00542E+02 -8.38863E+02
 -1.20849E+03 -5.42946E+01 -1.51606E+02 -1.50027E+03  1.38887E+03 -1.15650E+03  1.26586E+03  2.03965E+02
  4.36993E+02 -1.40366E+03  8.95864E+02 -2.72776E+02 -6.68176E+02  8.41003E+02 -1.14319E+03  1.23247E+03
