 $NMID ID='MM_0lb_SNR200_8hz_g60_6.RAW', FMTDAT='(8E13.5)'
 TRAMP=1., VOLUME=1. $END
  3.08771E+05 -3.37667E+02  3.37829E+05  2.50960E+05  8.50326E+04  3.38210E+05 -1.33374E+05  2.52131E+05
 -1.93105E+05  8.34750E+04 -1.11466E+05 -3.21968E+04  8.92675E+02 -5.05930E+04  5.11284E+04 -1.41559E+03
  3.64779E+04  5.32674E+04 -1.75363E+04  7.61865E+04 -6.17700E+04  6.56320E+04 -8.71062E+04  3.46708E+04
 -8.25684E+04 -1.15710E+04 -5.86514E+04 -5.44095E+04 -1.43564E+04 -7.13025E+04  2.86092E+04 -4.81893E+04
  4.08411E+04  3.40026E+03  1.64509E+04  4.90405E+04 -3.37980E+04  4.76107E+04 -6.71899E+04  9.78063E+02
 -5.67726E+04 -5.87562E+04 -7.50588E+03 -7.96225E+04  3.47295E+04 -5.93145E+04  5.03616E+04 -1.73047E+04
  4.65504E+04  1.27547E+04  3.35179E+04  2.63208E+04  1.53322E+04  3.19545E+04 -6.39214E+03  2.87425E+04
 -2.30630E+04  1.28084E+04 -1.69787E+04 -5.07728E+03  7.38313E+03 -8.07991E+03  2.36699E+04  1.46300E+04
  5.88664E+03  3.75870E+04 -3.39072E+04  3.89850E+04 -6.72491E+04  1.83072E+03 -6.01717E+04 -4.44068E+04
 -1.37347E+04 -6.71084E+04  4.38176E+04 -4.63657E+04  6.29941E+04 -3.91793E+03  3.88939E+04  3.65543E+04
 -5.37879E+03  4.09591E+04 -3.16138E+04  1.95834E+04 -3.43797E+04 -2.56188E+03 -2.02369E+04 -1.27506E+04
 -8.38940E+03 -1.54556E+04 -2.43265E+03 -2.10843E+04  9.96684E+03 -2.34672E+04  1.61604E+04 -1.19417E+04
  1.02780E+04  7.40309E+03 -1.09545E+04  1.21553E+04 -2.23685E+04 -8.86512E+03 -9.30801E+03 -3.92382E+04
  2.49090E+04 -4.69215E+04  5.44923E+04 -2.16204E+04  4.95058E+04  2.17027E+04  1.71604E+04  4.64960E+04
 -1.80079E+04  3.88437E+04 -2.88464E+04  2.48081E+03 -1.28163E+04 -2.99650E+04  2.06847E+04 -3.68756E+04
  4.81443E+04 -1.24038E+04  4.28874E+04  2.50409E+04  2.25479E+04  5.18867E+04 -7.54961E+03  5.98087E+04
 -3.79076E+04  3.94626E+04 -4.95833E+04  1.06058E+04 -5.03421E+04 -1.89375E+04 -2.70597E+04 -4.18886E+04
  8.86251E+03 -4.30329E+04  3.36786E+04 -1.81205E+04  3.36853E+04  1.12617E+04  6.27304E+03  2.02208E+04
 -1.34100E+04  9.40179E+03 -1.07932E+04 -9.63108E+03  6.73677E+03 -1.15029E+04  1.95928E+04  2.53192E+03
  1.51225E+04  2.43602E+04 -4.52349E+03  2.71816E+04 -2.45598E+04  1.37237E+04 -3.21224E+04 -3.48734E+03
 -2.78388E+04 -1.88524E+04 -1.40422E+04 -2.80055E+04  5.51049E+03 -2.87199E+04  2.23259E+04 -2.54215E+04
  3.64636E+04 -1.45680E+04  4.01598E+04  5.14162E+03  2.86197E+04  2.69530E+04  5.98199E+03  4.63551E+04
 -1.99188E+04  3.60421E+04 -3.02147E+04  1.28806E+04 -2.37596E+04 -8.56152E+03 -6.18193E+03 -1.24989E+04
  3.74516E+02 -6.91333E+02 -8.57987E+03  7.94655E+03 -2.27437E+04  6.50247E+03 -2.35191E+04 -1.18377E+04
 -1.16677E+04 -2.57955E+04  6.46405E+03 -2.99746E+04  1.98862E+04 -1.92413E+04  2.23046E+04 -4.39119E+02
  1.84417E+04  1.73059E+04 -2.46197E+03  2.60641E+04 -2.00422E+04  1.51153E+04 -2.51749E+04 -5.21534E+03
 -1.67875E+04 -2.24273E+04 -7.46858E+02 -2.93490E+04  1.39876E+04 -2.49759E+04  2.53408E+04 -1.45734E+04
  2.26182E+04 -5.05096E+02  1.68942E+04  6.17164E+03  9.08773E+03  1.31315E+03  1.52538E+04 -2.37624E+03
  2.24736E+04  2.47657E+03  2.81594E+04  2.03098E+04  1.92938E+04  3.96758E+04 -2.00349E+03  4.81669E+04
 -2.82563E+04  4.09407E+04 -4.49216E+04  2.13479E+04 -4.86265E+04 -4.37812E+03 -4.01248E+04 -2.89518E+04
 -1.53203E+04 -4.22727E+04  1.49606E+04 -3.53028E+04  3.01691E+04 -1.64359E+04  2.55151E+04  6.95564E+03
  1.05995E+04  2.18377E+04 -1.44532E+04  1.49137E+04 -2.21038E+04  8.91767E+02 -1.70788E+04 -1.53827E+04
  8.35883E+02 -2.19440E+04  1.28572E+04 -1.33828E+04  1.47094E+04  1.40325E+02  4.35621E+03  9.73065E+03
 -1.15496E+04  4.53602E+03 -9.83379E+03 -7.90546E+03 -2.82307E+03 -2.23233E+04  1.16655E+04 -1.96929E+04
  2.39105E+04 -1.11463E+04  3.02961E+04  2.84630E+03  2.55764E+04  2.20854E+04  1.17849E+04  3.23792E+04
 -6.68104E+03  3.48969E+04 -2.28927E+04  2.10458E+04 -2.71447E+04  4.21600E+03 -1.72628E+04 -6.14841E+03
 -5.54388E+03 -8.25941E+03 -1.51528E+03  3.95042E+02 -4.66634E+03  3.56623E+03 -9.36978E+03  6.84384E+03
 -1.44952E+04  7.77081E+02 -1.62087E+04 -1.22500E+04 -8.30992E+03 -1.94131E+04  6.21963E+03 -1.57069E+04
  1.47358E+04 -8.59442E+03  1.09645E+04  5.34862E+03  7.71890E+02  7.47910E+03 -8.81862E+03  3.39626E+02
 -7.46063E+03 -1.17091E+04 -1.18367E+03 -1.69024E+04  1.13714E+04 -1.89868E+04  2.18467E+04 -9.38160E+03
  2.59099E+04  1.97671E+03  1.94989E+04  1.49803E+04  4.66310E+03  2.28422E+04 -1.08112E+04  1.78639E+04
 -1.31256E+04  5.62341E+03 -6.07519E+03 -3.91744E+03  2.71808E+03 -5.65932E+03  7.12727E+03 -1.31039E+03
  9.41489E+03  8.96430E+03  1.45962E+02  1.43233E+04 -1.04853E+04  1.34730E+04 -1.81185E+04  2.73382E+03
 -1.24525E+04 -8.02508E+03 -1.48005E+03 -1.43481E+04  1.05114E+04 -9.27319E+03  1.25646E+04  2.37056E+03
  5.33324E+03  1.25400E+04 -8.14579E+03  1.37909E+04 -1.61966E+04  5.33268E+03 -1.60513E+04 -5.65590E+03
 -8.97512E+03 -1.73461E+04  4.15897E+03 -2.09053E+04  1.61998E+04 -1.50774E+04  1.83308E+04  3.25582E+03
  1.17059E+04  1.44887E+04 -2.47772E+03  1.77206E+04 -1.32416E+04  1.00428E+04 -1.54985E+04 -2.91012E+03
 -1.27968E+04 -1.24580E+04 -2.48378E+03 -1.45684E+04  7.55184E+03 -1.12088E+04  7.86549E+03 -4.45444E+03
  5.55340E+03  4.37039E+03  1.01449E+03  2.32440E+03 -1.95042E+03 -4.30853E+03  2.07778E+03 -9.33498E+03
  1.35844E+04 -6.56059E+03  2.00271E+04  2.49471E+03  1.88849E+04  1.35748E+04  1.27255E+04  2.45070E+04
 -6.15983E+03  2.81555E+04 -2.15361E+04  2.04051E+04 -2.96613E+04  4.39142E+03 -2.34385E+04 -1.12718E+04
 -1.20822E+04 -1.98509E+04  1.06189E+03 -1.80445E+04  8.15058E+03 -9.29033E+03  7.05709E+03 -6.43853E+03
  5.28324E+03 -4.11209E+03  3.89202E+03 -4.81379E+03  8.26665E+03 -5.00803E+03  1.00272E+04 -1.42625E+03
  1.16864E+04  3.11453E+03  5.02586E+03  1.04538E+04 -2.37534E+03  1.39456E+04 -1.45417E+04  1.12467E+04
 -1.71966E+04 -3.36651E+03 -1.26496E+04 -1.35415E+04 -3.57188E+03 -1.78608E+04  1.00675E+04 -1.87840E+04
  1.88996E+04 -1.12979E+04  2.39413E+04  2.95436E+03  1.53761E+04  1.58274E+04  1.40762E+03  2.10361E+04
 -9.79305E+03  1.65681E+04 -1.19060E+04  7.04975E+03 -1.06949E+04 -2.98760E+03 -2.99463E+03 -3.34787E+03
 -1.82518E+03 -1.09888E+03 -1.74996E+03  3.16594E+03 -7.09370E+03  2.63129E+03 -1.16816E+04  1.00121E+02
 -8.88517E+03 -1.18970E+04 -9.54723E+02 -1.85991E+04  9.26086E+03 -1.72614E+04  1.74904E+04 -3.98811E+03
  1.83424E+04  8.91047E+03  8.35859E+03  1.60505E+04 -3.10412E+03  1.89790E+04 -1.44541E+04  1.00935E+04
 -1.85843E+04  2.52882E+03 -1.24295E+04 -1.40968E+04 -4.23860E+02 -1.42673E+04  8.31626E+03 -1.02369E+04
  1.09901E+04 -3.98119E+03  8.62562E+03  1.70685E+03  2.58775E+03  5.02358E+03  1.92295E+03  2.04769E+03
  2.89172E+03  2.59141E+03  3.46813E+03  4.01792E+03  5.08547E+03  5.70600E+03  5.75198E+03  1.04311E+04
 -3.68041E+03  1.53795E+04 -1.29108E+04  1.51783E+04 -1.83701E+04  4.83718E+03 -1.96004E+04 -8.24487E+03
 -8.51896E+03 -1.89890E+04  4.35306E+03 -1.97610E+04  1.05541E+04 -1.26637E+04  1.68131E+04 -2.95123E+03
  1.14476E+04  7.31359E+03  3.34241E+03  1.09671E+04 -7.23564E+03  6.81133E+03 -9.65716E+03 -1.76672E+03
 -3.53317E+03 -8.37394E+03  4.39751E+03 -8.42071E+03  7.80585E+03 -2.89108E+03  7.29208E+03  2.37982E+03
  4.01178E+03  4.17275E+03  2.35292E+03  4.95102E+03 -8.44157E+02  2.58584E+03  2.98188E+03 -1.46067E+03
  4.16558E+03 -2.21265E+03  6.89570E+03  2.68547E+03  6.22391E+03  9.18123E+03 -1.39684E+03  1.28169E+04
 -1.06706E+04  7.47658E+03 -1.37422E+04  2.34416E+03 -1.13830E+04 -3.30452E+03 -6.04977E+03 -7.84694E+03
  4.91565E+02 -7.10210E+03  5.13214E+03 -4.18971E+03  3.77313E+03  3.69141E+03  6.28275E+02  5.19370E+03
 -6.47394E+03  5.06637E+03 -9.79489E+03 -4.69555E+03 -3.25180E+03 -1.09683E+04  1.30633E+03 -1.07589E+04
  6.63121E+03 -6.91451E+03  9.25801E+03 -7.89454E+02  7.11458E+03  3.42904E+03  9.84560E+02  3.99263E+03
 -3.94088E+03  1.28935E+03 -4.25248E+03 -3.65181E+03  1.59410E+03 -9.09412E+03  9.35580E+03 -6.14874E+03
  1.40743E+04  7.87548E+01  1.17313E+04  7.53044E+03  4.24586E+03  1.38586E+04 -4.69420E+03  1.26162E+04
 -1.13269E+04  3.34566E+03 -1.02620E+04 -1.86333E+03 -4.17398E+03 -8.31145E+03  1.04167E+03 -8.31996E+03
  7.42357E+03 -3.03203E+03  7.40921E+03  3.51073E+03  1.52706E+03  8.49061E+03 -1.52409E+02  8.12684E+03
 -2.42958E+03  2.88156E+03 -2.18422E+03  9.82595E+02 -1.72023E+03  8.61125E+02 -9.92265E+02  3.25512E+03
 -2.80224E+03  5.26253E+03 -9.80407E+03  4.01899E+03 -1.39442E+04  5.67267E+02 -1.48105E+04 -9.35072E+03
 -8.29313E+03 -1.66053E+04  3.94937E+03 -1.75746E+04  1.26595E+04 -1.47283E+04  1.66179E+04 -5.40993E+03
  1.80090E+04  2.90644E+03  1.14102E+04  1.14469E+04  1.12869E+03  1.30551E+04 -5.10787E+03  9.51775E+03
 -9.33391E+03  3.46865E+03 -4.57638E+03 -8.36138E+02 -7.98710E+02 -1.46561E+03  4.67685E+02  1.65438E+03
 -3.44633E+03  1.29235E+03 -4.73416E+03 -4.15461E+02 -1.75887E+03 -4.54557E+03 -1.73406E+02 -5.73576E+03
  4.81176E+03 -4.49019E+03  6.90855E+03  1.54272E+03  1.07043E+04  7.64002E+03  3.28142E+03  1.35674E+04
 -6.77527E+03  1.53505E+04 -1.37217E+04  8.76885E+03 -1.71173E+04 -1.48752E+03 -1.30059E+04 -9.06848E+03
 -4.40625E+03 -1.30451E+04  4.78638E+03 -1.26231E+04  9.68189E+03 -8.32569E+03  1.05064E+04  1.24643E+03
  3.43596E+03  4.03090E+03 -1.10317E+02  3.57057E+03 -3.24325E+03  1.03352E+03  1.07586E+03 -2.95231E+03
  3.98727E+03 -2.48485E+03  5.66174E+03  1.12370E+03  2.60741E+03  6.92173E+03  5.12856E+02  8.18773E+03
 -6.57183E+03  6.78375E+03 -8.90923E+03  1.26426E+03 -9.73379E+03 -6.58328E+03 -2.40612E+03 -1.14288E+04
  6.86414E+03 -9.15386E+03  9.51471E+03 -2.77165E+03  9.72145E+03  2.93104E+03  5.51401E+03  7.51725E+03
  2.04268E+03  1.00925E+04 -2.25278E+03  7.05319E+03 -5.40081E+03  1.39301E+03 -5.07925E+03 -5.43697E+02
 -3.62939E+03 -9.10293E+02 -3.93998E+03  1.81334E+03 -4.49616E+03 -4.33428E+02 -7.14725E+03 -1.05715E+03
 -7.10461E+03 -6.40616E+03 -1.04171E+03 -8.66543E+03  2.89132E+03 -9.45410E+03  8.66331E+03 -5.39656E+03
  1.02934E+04  2.08357E+03  5.35450E+03  7.40790E+03 -1.76329E+03  9.16577E+03 -8.37619E+03  5.56203E+03
