 $NMID ID='MM_0lb_SNR200_9hz_g60_91.RAW', FMTDAT='(8E13.5)'
 TRAMP=1., VOLUME=1. $END
  3.09836E+05  6.52886E+02  3.37386E+05  2.50607E+05  8.49797E+04  3.39314E+05 -1.33491E+05  2.53922E+05
 -1.90158E+05  8.33637E+04 -1.13204E+05 -3.25663E+04  1.13169E+03 -4.91391E+04  5.46398E+04 -1.55949E+03
  3.63223E+04  5.20644E+04 -1.56143E+04  7.62442E+04 -6.00169E+04  6.34364E+04 -8.64400E+04  3.27383E+04
 -8.16797E+04 -1.04748E+04 -5.84780E+04 -5.25540E+04 -1.51489E+04 -7.04769E+04  3.01158E+04 -4.61278E+04
  4.08498E+04  4.07562E+03  1.82900E+04  5.01827E+04 -3.58510E+04  4.79808E+04 -6.84463E+04 -6.72795E+02
 -5.40521E+04 -5.94514E+04 -7.03659E+03 -7.92150E+04  3.55248E+04 -5.89935E+04  5.08579E+04 -1.82986E+04
  4.50047E+04  1.14881E+04  3.22622E+04  2.64574E+04  1.75313E+04  3.00293E+04 -6.09194E+03  2.68845E+04
 -2.17866E+04  1.20834E+04 -1.74673E+04 -6.59116E+03  6.58817E+03 -7.30569E+03  2.33141E+04  1.29848E+04
  6.98058E+03  3.81818E+04 -3.35969E+04  3.64333E+04 -6.58796E+04  1.10613E+03 -5.78125E+04 -4.42837E+04
 -1.19077E+04 -6.73700E+04  4.32029E+04 -4.86364E+04  6.25945E+04 -2.05911E+03  3.78192E+04  3.52142E+04
 -7.52579E+03  3.92387E+04 -3.28937E+04  1.77299E+04 -3.47691E+04 -2.77923E+03 -1.98265E+04 -1.41384E+04
 -1.04036E+04 -1.48192E+04 -5.49352E+02 -1.89639E+04  8.69494E+03 -2.45554E+04  1.62724E+04 -1.26749E+04
  9.71325E+03  7.60884E+03 -1.22509E+04  1.10869E+04 -2.43695E+04 -5.29916E+03 -8.96454E+03 -3.82683E+04
  2.62682E+04 -4.78429E+04  5.20466E+04 -1.99063E+04  4.87878E+04  2.07507E+04  1.89616E+04  4.65719E+04
 -1.62204E+04  3.61856E+04 -2.85760E+04  3.35610E+03 -1.29491E+04 -3.01555E+04  2.31326E+04 -3.77344E+04
  4.52540E+04 -1.17183E+04  4.06414E+04  2.35645E+04  2.20513E+04  5.35032E+04 -7.74161E+03  5.91512E+04
 -3.76067E+04  3.90407E+04 -4.87301E+04  1.06438E+04 -4.80450E+04 -1.99045E+04 -2.74367E+04 -4.30878E+04
  6.41860E+03 -4.25337E+04  3.55724E+04 -1.63191E+04  3.31914E+04  1.08181E+04  5.47822E+03  1.98714E+04
 -1.25276E+04  8.30241E+03 -1.15750E+04 -7.90253E+03  4.61186E+03 -1.03070E+04  1.87851E+04  6.07260E+03
  1.50002E+04  2.38708E+04 -4.59580E+03  2.64636E+04 -2.27202E+04  1.62771E+04 -3.24118E+04 -1.37101E+03
 -2.59559E+04 -1.85018E+04 -1.28150E+04 -2.56244E+04  6.09393E+03 -2.68362E+04  2.18141E+04 -2.34144E+04
  3.36959E+04 -1.29778E+04  3.85262E+04  5.04990E+03  2.81923E+04  2.54152E+04  4.15494E+03  4.41600E+04
 -2.13403E+04  3.48327E+04 -3.14505E+04  1.27727E+04 -2.18620E+04 -9.91752E+03 -4.38454E+03 -1.16598E+04
  1.72660E+03 -6.14782E+00 -7.71838E+03  1.01170E+04 -2.03947E+04  6.58559E+03 -2.02472E+04 -1.08365E+04
 -1.33196E+04 -2.47501E+04  4.67763E+03 -2.90088E+04  1.95301E+04 -2.03114E+04  2.40652E+04 -9.40323E+02
  1.45698E+04  1.67802E+04 -2.15929E+03  2.28669E+04 -1.76087E+04  1.46912E+04 -2.56265E+04 -6.36385E+03
 -1.94382E+04 -2.12187E+04 -8.92159E+02 -2.72275E+04  1.32525E+04 -2.44827E+04  2.45104E+04 -1.30110E+04
  2.23461E+04  8.13658E+02  1.83306E+04  6.27549E+03  8.40953E+03  1.61655E+03  1.26684E+04 -2.79379E+03
  2.19936E+04  3.80593E+03  2.84694E+04  1.90808E+04  1.92065E+04  3.94965E+04 -2.97012E+03  4.62643E+04
 -2.58157E+04  3.89982E+04 -4.34149E+04  2.02523E+04 -4.68372E+04 -3.72131E+03 -3.69357E+04 -2.75495E+04
 -1.55934E+04 -3.95218E+04  1.62127E+04 -3.45096E+04  2.84177E+04 -1.53400E+04  2.50271E+04  9.25383E+03
  8.15768E+03  1.94097E+04 -1.18188E+04  1.61489E+04 -2.13809E+04  3.03346E+03 -1.44730E+04 -1.27801E+04
 -6.14705E+02 -1.96832E+04  1.01956E+04 -1.33398E+04  1.31768E+04 -6.03887E+02  3.42448E+03  8.89143E+03
 -9.53322E+03  5.41327E+03 -1.15294E+04 -6.59805E+03 -2.40146E+03 -1.91673E+04  1.33650E+04 -2.12345E+04
  2.41615E+04 -1.26092E+04  2.99692E+04  4.30971E+03  2.32921E+04  2.03881E+04  1.18430E+04  3.06651E+04
 -5.90889E+03  3.30750E+04 -2.14373E+04  2.08541E+04 -2.34010E+04  3.78775E+03 -1.51377E+04 -7.27006E+03
 -5.35463E+03 -8.08115E+03 -3.98953E+01  1.74205E+02 -4.31097E+03  4.77604E+03 -6.76317E+03  5.41212E+03
 -1.62970E+04 -1.40612E+03 -1.49248E+04 -1.32193E+04 -5.66222E+03 -1.94460E+04  6.94058E+03 -1.57839E+04
  1.39563E+04 -7.45355E+03  8.90142E+03  3.51218E+03 -1.20060E+03  7.32109E+03 -9.47169E+03 -5.14220E+02
 -8.18274E+03 -9.46105E+03 -9.42600E+02 -1.75766E+04  9.48131E+03 -1.79143E+04  2.10311E+04 -7.68408E+03
  2.59387E+04  3.15338E+03  1.86663E+04  1.43012E+04  4.20221E+03  2.05552E+04 -8.06303E+03  1.73382E+04
 -1.22595E+04  5.86037E+03 -6.37181E+03 -3.57997E+03  1.82426E+03 -4.90294E+03  9.54262E+03 -8.63884E+02
  7.23767E+03  7.92072E+03  1.36381E+03  1.39100E+04 -9.95761E+03  1.26449E+04 -1.54631E+04  2.53638E+03
 -9.44952E+03 -9.64838E+03  7.23919E+02 -1.46729E+04  9.82780E+03 -7.44213E+03  1.12891E+04  4.57967E+03
  2.78567E+03  9.88602E+03 -8.55597E+03  1.30092E+04 -1.34563E+04  5.20600E+03 -1.62478E+04 -6.16815E+03
 -9.57203E+03 -1.83581E+04  5.68104E+03 -1.83081E+04  1.60928E+04 -1.22578E+04  1.82556E+04  3.29380E+03
  1.01594E+04  1.38846E+04 -1.76495E+03  1.75903E+04 -1.10790E+04  8.95918E+03 -1.44140E+04 -3.62284E+02
 -1.11918E+04 -9.82470E+03 -1.34611E+03 -1.23135E+04  6.28042E+03 -1.11720E+04  8.50175E+03 -3.21867E+03
  5.96855E+03  2.74807E+03 -1.63968E+03  1.20124E+03 -2.69592E+02 -3.90509E+03  3.07547E+03 -7.51453E+03
  1.30307E+04 -4.04176E+03  1.90293E+04  1.51336E+03  1.82880E+04  1.14146E+04  1.06649E+04  2.14154E+04
 -5.49461E+03  2.44854E+04 -2.03489E+04  2.02526E+04 -2.93650E+04  3.32736E+03 -2.00354E+04 -8.64108E+03
 -1.05821E+04 -1.90643E+04  2.52266E+02 -1.69520E+04  6.13338E+03 -8.22231E+03  7.01929E+03 -5.68464E+03
  5.53801E+03 -1.23507E+03  4.53692E+03 -3.83971E+03  5.72503E+03 -4.24791E+03  9.17285E+03 -1.42451E+03
  1.11685E+04  1.44449E+03  7.63728E+03  1.01534E+04 -2.07147E+03  1.22234E+04 -1.13256E+04  8.29266E+03
 -1.66166E+04 -4.21494E+02 -1.06587E+04 -1.20681E+04 -2.20450E+03 -1.54088E+04  1.05765E+04 -1.65865E+04
  1.79121E+04 -9.07508E+03  2.01616E+04  3.49870E+03  1.55505E+04  1.50197E+04  2.20141E+03  1.91093E+04
 -7.04037E+03  1.45327E+04 -1.10003E+04  4.54381E+03 -8.30722E+03 -3.24510E+03 -3.58724E+03 -2.28188E+03
 -1.23702E+03 -9.59954E+01 -2.41781E+03  3.43013E+03 -5.94471E+03  9.52019E+02 -1.04825E+04 -1.33647E+03
 -8.74492E+03 -8.89522E+03 -4.99697E+02 -1.59587E+04  9.87381E+03 -1.58367E+04  1.49719E+04 -5.77076E+03
  1.54051E+04  8.25670E+03  8.64864E+03  1.38117E+04 -2.95474E+03  1.62319E+04 -1.15104E+04  1.06862E+04
 -1.50930E+04  3.62961E+02 -1.16230E+04 -1.07339E+04 -9.86209E+02 -1.42328E+04  6.59476E+03 -1.07920E+04
  9.78824E+03 -1.39539E+03  7.57987E+03  2.02935E+03  1.61770E+03  5.28380E+03  1.09545E+03  2.12764E+03
  3.00643E+03  2.71053E+03  5.42347E+03  1.12363E+03  4.87094E+03  5.87166E+03  3.85448E+03  7.93530E+03
 -2.78171E+03  1.22373E+04 -1.05097E+04  1.16933E+04 -1.87761E+04  5.02966E+03 -1.87897E+04 -8.56005E+03
 -8.49667E+03 -1.74286E+04  2.31099E+03 -1.81921E+04  9.16564E+03 -1.27964E+04  1.22302E+04 -3.11689E+03
  1.04077E+04  5.88917E+03  1.98823E+03  1.09539E+04 -4.09811E+03  5.68848E+03 -7.07668E+03 -7.04868E+02
 -2.42606E+03 -8.14877E+03  3.58955E+03 -6.96686E+03  7.21988E+03 -2.93364E+03  6.11616E+03  2.20428E+03
  4.01668E+03  4.17627E+03  2.00849E+03  3.73443E+03 -1.58137E+03  3.02573E+03  2.51897E+03 -2.19758E+03
  2.87584E+03 -3.07869E+02  6.65003E+03  4.05490E+03  3.35110E+03  9.89082E+03 -8.56463E+02  1.01538E+04
 -8.61681E+03  7.19749E+03 -9.15781E+03  2.71976E+03 -9.58333E+03 -2.34799E+03 -4.43787E+03 -6.91004E+03
  1.43084E+03 -5.67862E+03  3.89308E+03 -4.29970E+03  3.08949E+03  2.85069E+03 -1.53423E+03  5.30445E+03
 -8.19954E+03  2.69646E+03 -8.88146E+03 -4.10547E+03 -3.41988E+03 -9.39017E+03  1.16519E+03 -8.87424E+03
  4.70737E+03 -4.94708E+03  7.37769E+03  2.80739E+02  4.73635E+03  2.09248E+03  1.86160E+03  4.98989E+03
 -2.58562E+03  3.35608E+03 -3.97472E+03 -2.91739E+03  2.15035E+03 -6.49276E+03  9.55940E+03 -5.97933E+03
  1.02325E+04  3.58341E+02  1.03727E+04  6.46171E+03  3.13579E+03  1.24889E+04 -3.57638E+03  1.04876E+04
 -8.33825E+03  5.14277E+03 -9.86300E+03 -2.45086E+03 -5.64316E+03 -7.58410E+03  1.54014E+03 -7.74691E+03
  6.23591E+03 -3.14456E+03  4.62244E+03  2.88769E+03  1.85116E+03  5.01208E+03 -1.37090E+03  6.11164E+03
 -3.63724E+03  2.88865E+03 -2.10081E+03  1.28036E+03 -5.38309E+02  1.50947E+03 -1.76429E+03  2.17617E+03
 -1.97921E+03  3.52703E+03 -6.31276E+03  3.19630E+03 -1.04375E+04  8.11961E+02 -1.28470E+04 -8.83086E+03
 -6.99382E+03 -1.34498E+04  3.46124E+03 -1.64441E+04  1.00905E+04 -1.15190E+04  1.47977E+04 -4.47056E+03
  1.64348E+04  1.71003E+03  9.10232E+03  1.09330E+04  1.05077E+03  1.10214E+04 -4.10317E+03  1.07354E+04
 -6.10848E+03  1.83975E+03 -3.69233E+03 -1.39896E+03 -3.08191E+03 -1.67411E+03 -2.75913E+03  2.43066E+02
 -1.54723E+03  1.29702E+03 -2.24861E+03  3.01614E+02 -8.72402E+02 -2.65338E+03  1.85446E+03 -4.05092E+03
  5.86722E+03 -2.99161E+03  6.62984E+03  6.73868E+02  7.29556E+03  5.42994E+03  5.22227E+02  1.18255E+04
 -5.17546E+03  1.33751E+04 -1.15293E+04  6.40230E+03 -1.37785E+04 -1.73684E+03 -1.06580E+04 -8.14099E+03
 -4.54111E+03 -1.27441E+04  4.00643E+03 -9.94123E+03  7.02502E+03 -5.26377E+03  7.37748E+03 -8.96618E+02
  4.07029E+03  3.26431E+03 -3.87941E+02  3.32618E+03 -1.77511E+03 -1.00750E+03  2.30980E+02 -2.08750E+03
  3.54227E+03 -1.56566E+03  4.29506E+03  3.25244E+03  3.59693E+03  5.04767E+03  4.89162E+02  6.33912E+03
 -6.14306E+03  4.90010E+03 -6.76117E+03  1.51377E+03 -5.36985E+03 -7.06889E+03 -5.89767E+02 -9.47179E+03
  5.13204E+03 -7.38140E+03  9.68320E+03 -2.44139E+03  8.65792E+03  1.72587E+02  5.24830E+03  5.96765E+03
 -7.10525E+02  7.08350E+03 -2.49748E+03  4.71626E+03 -5.62373E+03  2.46446E+03 -4.52636E+03  8.47166E+02
 -1.87662E+03 -8.85662E+02 -3.00354E+03  1.69207E+03 -2.53024E+03 -2.11604E+02 -4.86223E+03 -1.42584E+03
 -6.32762E+03 -4.07234E+03 -2.08706E+03 -5.91165E+03  3.01830E+03 -7.66054E+03  6.48578E+03 -2.10199E+03
  8.99381E+03 -4.77036E+01  4.46479E+03  3.91208E+03 -1.00605E+02  6.80562E+03 -6.18367E+03  3.77063E+03
