 $NMID ID='MM_0lb_SNR200_11hz_g60_76.RAW', FMTDAT='(8E13.5)'
 TRAMP=1., VOLUME=1. $END
  3.09459E+05  2.18304E+03  3.36876E+05  2.50262E+05  8.40578E+04  3.38236E+05 -1.31580E+05  2.51788E+05
 -1.91278E+05  8.44046E+04 -1.12580E+05 -3.20751E+04  5.94921E+01 -5.04637E+04  5.32400E+04 -1.11152E+03
  3.58252E+04  5.28680E+04 -1.65005E+04  7.73477E+04 -6.08733E+04  6.40683E+04 -8.45528E+04  3.21754E+04
 -8.42689E+04 -1.15344E+04 -5.82278E+04 -5.13165E+04 -1.36106E+04 -7.10137E+04  2.87222E+04 -4.66542E+04
  4.06754E+04  5.52229E+03  1.86859E+04  4.90227E+04 -3.53042E+04  4.75120E+04 -6.75464E+04 -6.99927E+02
 -5.55454E+04 -5.75109E+04 -7.78261E+03 -7.97226E+04  3.40222E+04 -5.74634E+04  5.00387E+04 -1.78007E+04
  4.74471E+04  1.32108E+04  3.17736E+04  2.50508E+04  1.74829E+04  3.03858E+04 -5.95985E+03  2.75808E+04
 -2.17790E+04  1.25084E+04 -1.89745E+04 -6.23528E+03  6.44936E+03 -6.65954E+03  2.30763E+04  1.34241E+04
  6.18534E+03  3.69030E+04 -3.41356E+04  3.80493E+04 -6.63083E+04  1.17516E+03 -5.88277E+04 -4.52448E+04
 -1.35584E+04 -6.51015E+04  4.27710E+04 -4.60920E+04  6.16641E+04 -1.61306E+03  3.73000E+04  3.55997E+04
 -5.63159E+03  3.92433E+04 -3.23829E+04  1.92895E+04 -3.31146E+04 -1.59038E+03 -1.90965E+04 -1.09130E+04
 -1.00171E+04 -1.43870E+04 -1.98185E+03 -1.95581E+04  8.35380E+03 -2.32675E+04  1.52327E+04 -1.27370E+04
  1.01364E+04  6.68176E+03 -9.76204E+03  1.37055E+04 -2.34454E+04 -7.71054E+03 -6.75745E+03 -3.60673E+04
  2.40989E+04 -4.57440E+04  4.93530E+04 -2.11255E+04  4.86319E+04  2.06582E+04  1.61518E+04  4.69054E+04
 -1.78558E+04  3.43480E+04 -2.85696E+04  2.35542E+03 -1.16731E+04 -2.88947E+04  2.23220E+04 -3.71149E+04
  4.52271E+04 -1.18337E+04  4.00761E+04  2.52545E+04  2.20393E+04  4.99054E+04 -8.51354E+03  5.56825E+04
 -3.57956E+04  3.92209E+04 -4.67280E+04  1.03799E+04 -4.73179E+04 -1.76974E+04 -2.59737E+04 -4.21043E+04
  8.85319E+03 -4.09958E+04  3.39713E+04 -1.65805E+04  3.10042E+04  1.08987E+04  3.72062E+03  2.04134E+04
 -1.49793E+04  9.63912E+03 -9.45722E+03 -6.38439E+03  4.78915E+03 -1.13570E+04  2.01232E+04  5.34647E+03
  1.30551E+04  2.24504E+04 -5.61305E+03  2.66425E+04 -2.26483E+04  1.51658E+04 -2.99950E+04 -2.95494E+03
 -2.44959E+04 -1.82643E+04 -1.10068E+04 -2.36773E+04  3.91991E+03 -2.45695E+04  1.98019E+04 -2.22604E+04
  3.04987E+04 -1.42659E+04  3.59506E+04  2.22727E+03  2.73315E+04  2.29339E+04  4.63024E+03  4.09594E+04
 -1.99498E+04  3.45925E+04 -3.02795E+04  1.14592E+04 -2.18770E+04 -1.01636E+04 -5.31626E+03 -1.19773E+04
  2.58447E+02 -1.70659E+03 -7.57629E+03  6.91527E+03 -1.97015E+04  3.95980E+03 -1.85495E+04 -8.87211E+03
 -1.07752E+04 -2.20738E+04  4.51680E+03 -2.67503E+04  1.85491E+04 -1.88940E+04  2.23506E+04 -1.57191E+03
  1.35136E+04  1.51025E+04 -1.11467E+03  2.20068E+04 -1.65725E+04  1.41754E+04 -2.31760E+04 -5.23525E+03
 -1.62138E+04 -2.09424E+04 -9.20536E+02 -2.74470E+04  1.30307E+04 -2.33360E+04  2.12959E+04 -1.19877E+04
  2.12811E+04  1.05678E+03  1.53969E+04  4.00020E+03  8.10750E+03  2.32264E+03  1.18761E+04 -4.85278E+02
  2.09938E+04  1.81936E+03  2.50659E+04  1.77287E+04  1.54816E+04  3.69522E+04 -2.54569E+03  4.26509E+04
 -2.48143E+04  3.42668E+04 -4.19992E+04  1.69787E+04 -4.25238E+04 -4.60933E+03 -3.37855E+04 -2.50812E+04
 -1.39104E+04 -3.59776E+04  1.20858E+04 -3.00506E+04  2.71473E+04 -1.58321E+04  2.45641E+04  8.41717E+03
  7.86566E+03  1.78145E+04 -1.05524E+04  1.51029E+04 -1.88530E+04  6.02686E+02 -1.64583E+04 -1.10330E+04
 -1.47739E+03 -1.81248E+04  1.08743E+04 -1.43043E+04  1.19026E+04 -1.19753E+03  2.45917E+03  8.67360E+03
 -9.55051E+03  3.36001E+03 -7.22382E+03 -6.02278E+03 -1.82868E+03 -1.73959E+04  9.55170E+03 -1.79900E+04
  2.15321E+04 -1.11151E+04  2.39867E+04  2.73804E+03  2.06507E+04  1.72500E+04  1.04828E+04  2.83251E+04
 -6.08958E+03  3.07616E+04 -1.89495E+04  1.74458E+04 -2.05210E+04  5.84061E+03 -1.26695E+04 -4.59517E+03
 -5.74770E+03 -6.71417E+03 -1.14734E+03 -2.05482E+02 -3.15938E+03  2.31869E+03 -7.38436E+03  5.83679E+03
 -1.44754E+04  1.79790E+02 -1.36956E+04 -1.14207E+04 -6.38632E+03 -1.85815E+04  6.97049E+03 -1.44144E+04
  1.08541E+04 -5.51313E+03  6.64764E+03  3.54922E+03 -9.32034E+02  5.37453E+03 -7.28442E+03  2.11780E+02
 -6.42313E+03 -1.03887E+04 -9.36880E+02 -1.57063E+04  8.42472E+03 -1.51400E+04  1.88176E+04 -7.18950E+03
  2.23557E+04  7.95562E+02  1.65493E+04  1.30633E+04  1.69031E+03  1.76018E+04 -8.93596E+03  1.44690E+04
 -1.08744E+04  5.96040E+03 -5.30264E+03 -2.21322E+03  1.29186E+03 -3.45498E+03  8.71418E+03 -2.98406E+02
  6.92856E+03  7.68239E+03  7.66548E+02  1.27956E+04 -7.93113E+03  1.30789E+04 -1.51273E+04  2.89595E+03
 -8.43337E+03 -5.88268E+03  3.63704E+02 -1.34788E+04  7.65081E+03 -6.44668E+03  9.05106E+03  2.67671E+03
  2.61961E+03  8.02374E+03 -8.01392E+03  1.01891E+04 -1.31919E+04  5.70737E+03 -1.36927E+04 -2.64739E+03
 -7.01213E+03 -1.33535E+04  3.82740E+03 -1.62486E+04  1.36622E+04 -1.02337E+04  1.43627E+04  3.48719E+03
  7.14287E+03  1.21014E+04 -2.16479E+03  1.44334E+04 -1.00239E+04  8.76010E+03 -1.14956E+04 -1.18560E+03
 -8.32031E+03 -9.37683E+03 -1.73348E+03 -1.11360E+04  6.51483E+03 -8.52343E+03  7.43190E+03 -4.55364E+03
  5.67738E+03  1.60729E+03 -1.19714E+02  9.20827E+02 -3.00362E+02 -3.77926E+03  1.05329E+03 -7.31345E+03
  9.85206E+03 -4.36471E+03  1.47375E+04  1.83834E+03  1.44368E+04  1.05056E+04  8.83354E+03  1.88996E+04
 -4.93915E+03  2.16042E+04 -1.83865E+04  1.66805E+04 -2.13355E+04  3.52594E+03 -2.06062E+04 -8.01722E+03
 -9.39013E+03 -1.34866E+04  5.31769E+01 -1.30819E+04  6.22483E+03 -7.30955E+03  5.90489E+03 -3.12625E+03
  3.23537E+03 -3.50028E+03  3.98538E+03 -2.95096E+03  4.35274E+03 -2.47949E+03  6.57309E+03 -9.69475E+02
  9.46867E+03  2.48761E+03  4.27576E+03  9.16741E+03 -1.24451E+03  8.90728E+03 -9.45137E+03  7.87869E+03
 -1.20395E+04 -1.44250E+03 -8.32853E+03 -1.05981E+04 -1.24530E+03 -1.41929E+04  7.76353E+03 -1.37466E+04
  1.44786E+04 -7.93202E+03  1.75422E+04  3.06726E+03  1.18665E+04  1.19326E+04  3.47359E+03  1.54851E+04
 -5.78569E+03  1.42707E+04 -8.87294E+03  4.56426E+03 -5.97072E+03 -1.12381E+03 -1.21355E+03 -1.18736E+03
 -9.49381E+02  1.00254E+02 -2.35492E+03  3.36573E+03 -7.02648E+03  2.65959E+03 -8.18269E+03  3.25843E+02
 -6.20150E+03 -9.70892E+03  1.44738E+03 -1.14648E+04  8.09937E+03 -1.24980E+04  1.23375E+04 -3.64848E+03
  1.15730E+04  5.73681E+03  6.83209E+03  1.26236E+04 -3.85591E+03  1.31296E+04 -9.32802E+03  7.16792E+03
 -1.16487E+04  3.49852E+02 -8.16207E+03 -6.99073E+03 -1.24194E+03 -1.15722E+04  4.51246E+03 -8.60562E+03
  8.74091E+03 -2.40916E+03  4.91098E+03  2.30957E+03  2.77684E+03  4.23078E+03  1.15862E+03  1.31139E+03
  3.19515E+03  2.25722E+03  1.94594E+03  1.56694E+03  3.94311E+03  4.00549E+03  2.54546E+03  5.78022E+03
 -2.95378E+03  9.58099E+03 -8.40045E+03  9.95477E+03 -1.28889E+04  2.39567E+03 -1.18788E+04 -5.24105E+03
 -7.53219E+03 -1.20384E+04  1.39620E+03 -1.40983E+04  7.47959E+03 -8.57821E+03  1.10077E+04 -4.91390E+03
  6.96732E+03  5.16652E+03  2.62102E+03  5.36270E+03 -2.87656E+03  4.12188E+03 -6.49448E+03 -4.25211E+02
 -3.47996E+03 -5.23291E+03  3.56080E+03 -6.18089E+03  6.34066E+03 -2.02548E+03  6.17823E+03  8.13817E+02
  3.38468E+03  3.05180E+03  1.94735E+03  1.64107E+03 -2.23489E+02  1.79397E+03  1.84017E+03 -1.36249E+03
  1.51902E+03 -1.32379E+03  5.01282E+03  2.04702E+03  3.64470E+03  7.47711E+03 -2.08589E+03  9.67369E+03
 -5.95453E+03  4.87265E+03 -9.71519E+03  2.19219E+03 -7.62157E+03 -2.12345E+03 -2.23010E+03 -5.57783E+03
  3.11992E+02 -5.51334E+03  3.03660E+03 -1.48785E+03  3.75678E+03  2.24788E+03 -1.84055E+03  4.19308E+03
 -5.34157E+03  2.18797E+03 -4.69009E+03 -3.44742E+03 -2.99649E+03 -6.75293E+03  1.76741E+03 -6.66847E+03
  3.72222E+03 -4.86879E+03  6.12177E+03  1.21178E+01  5.76003E+03  1.55301E+03  1.73646E+03  2.36262E+03
 -3.13161E+03  4.21473E+02 -3.07596E+03 -3.35741E+03  1.75257E+03 -6.20709E+03  6.52967E+03 -4.42236E+03
  5.93033E+03 -6.03196E+02  9.14254E+03  4.01387E+03  2.01378E+03  7.57131E+03 -3.17547E+03  7.95166E+03
 -6.82935E+03  4.83133E+03 -8.05948E+03 -8.93350E+02 -4.70634E+03 -5.34729E+03  1.90207E+03 -3.67381E+03
  4.91129E+03 -2.22686E+03  4.30559E+03  2.70962E+03  1.25217E+03  4.77288E+03 -2.43612E+03  4.24004E+03
 -6.89472E+02  3.07014E+03 -2.56533E+03  1.07511E+03 -2.47853E+03  6.42013E+02 -1.01191E+03  2.61087E+03
 -1.12047E+03  3.74804E+03 -5.49515E+03  1.90342E+03 -7.39592E+03  1.27959E+01 -9.07752E+03 -5.45157E+03
 -4.39524E+03 -1.18784E+04  3.74617E+03 -1.09813E+04  7.95947E+03 -8.41178E+03  1.26907E+04 -4.78059E+03
  9.74374E+03  1.32888E+03  4.65859E+03  8.42419E+03  7.88168E+02  5.76823E+03 -3.55549E+03  7.06031E+03
 -5.28698E+03  2.36930E+03 -2.52605E+03 -5.34588E+02 -1.87474E+03 -1.06025E+03 -5.88375E+02  7.11494E+02
 -7.87877E+02 -1.37664E+03 -2.71978E+03 -2.51647E+03 -2.47161E+03 -1.30596E+03  3.84022E+02 -3.07795E+03
  3.50353E+03 -3.81389E+03  3.83773E+03 -3.70745E+02  5.83779E+03  3.92467E+03  1.67234E+03  8.41344E+03
 -4.27303E+03  8.69641E+03 -9.40499E+03  5.46362E+03 -8.85390E+03 -1.63530E+03 -7.55424E+03 -5.40298E+03
 -3.12031E+03 -7.07239E+03  2.12417E+03 -6.53659E+03  5.13997E+03 -3.12566E+03  6.21305E+03 -6.33063E+02
  3.92894E+03  2.14297E+03 -8.34869E+02  3.18490E+03 -2.45446E+03  1.30130E+03 -2.49239E+02 -2.04670E+03
  2.87531E+03 -1.30270E+02  2.92705E+03  6.84885E+02  7.84381E+02  2.62726E+03 -1.29653E+03  4.39930E+03
 -3.67667E+03  1.52005E+03 -5.44770E+03 -3.09389E+01 -4.68853E+03 -3.85729E+03 -3.13172E+02 -6.84711E+03
  4.21370E+03 -5.57127E+03  4.30111E+03 -1.66435E+03  6.02035E+03  9.57866E+02  3.15325E+03  3.36189E+03
  1.11870E+03  4.37927E+03 -1.63163E+03  5.13708E+03 -3.86469E+03  2.09343E+03 -3.45961E+03  7.68331E+02
 -2.46113E+03 -1.42467E+03 -5.09198E+02  1.83464E+03 -1.05410E+03  1.62492E+03 -2.28245E+03 -1.54539E+02
 -3.95308E+03 -2.83096E+03 -1.00957E+03 -4.88877E+03  2.33738E+03 -5.12991E+03  4.67707E+03 -2.35964E+03
  5.31555E+03  1.08790E+03  2.44484E+03  3.74960E+03 -3.93143E+02  4.73872E+03 -3.26640E+03  3.52809E+03
