 $NMID ID='MM_0lb_SNR200_11hz_g40_27.RAW', FMTDAT='(8E13.5)'
 TRAMP=1., VOLUME=1. $END
  3.09245E+05  1.68232E+03  3.37377E+05  2.50801E+05  8.40263E+04  3.37075E+05 -1.33315E+05  2.51196E+05
 -1.91202E+05  8.29427E+04 -1.11985E+05 -3.22115E+04  4.67297E+02 -4.96246E+04  5.33661E+04 -1.40338E+03
  3.49433E+04  5.20916E+04 -1.64505E+04  7.55867E+04 -6.24554E+04  6.41734E+04 -8.42533E+04  3.33433E+04
 -7.99666E+04 -1.24023E+04 -5.74790E+04 -5.10434E+04 -1.49655E+04 -6.99164E+04  2.72798E+04 -4.69612E+04
  4.07093E+04  5.48105E+03  1.58973E+04  4.81830E+04 -3.35854E+04  4.82085E+04 -6.70592E+04  1.66937E+02
 -5.38034E+04 -5.74761E+04 -6.73021E+03 -7.73526E+04  3.37472E+04 -5.50488E+04  4.79396E+04 -1.71889E+04
  4.37591E+04  1.16825E+04  3.21150E+04  2.63125E+04  1.56983E+04  2.92524E+04 -6.29648E+03  2.67586E+04
 -2.32040E+04  1.23006E+04 -1.88003E+04 -5.51371E+03  6.63187E+03 -8.39768E+03  2.36055E+04  1.29977E+04
  7.75849E+03  3.67028E+04 -3.46221E+04  3.72016E+04 -6.50580E+04  3.03916E+03 -5.68773E+04 -4.23153E+04
 -1.40921E+04 -6.33328E+04  4.03675E+04 -4.68282E+04  5.90594E+04 -2.31315E+03  3.48350E+04  3.27293E+04
 -5.44565E+03  3.80047E+04 -2.99953E+04  1.70359E+04 -3.18259E+04 -4.17322E+03 -1.85704E+04 -1.04229E+04
 -8.96391E+03 -1.38446E+04 -1.22437E+03 -1.99567E+04  7.20905E+03 -2.29455E+04  1.57269E+04 -1.26492E+04
  1.03883E+04  3.62419E+03 -8.40928E+03  1.15441E+04 -2.21576E+04 -5.91890E+03 -7.07692E+03 -3.65080E+04
  2.37482E+04 -4.46207E+04  4.99668E+04 -2.14912E+04  4.72197E+04  1.92321E+04  1.74023E+04  4.39755E+04
 -1.59609E+04  3.48054E+04 -2.68016E+04  1.00011E+03 -1.16876E+04 -2.79905E+04  2.11063E+04 -3.58584E+04
  4.32114E+04 -1.03562E+04  3.67948E+04  2.51796E+04  1.93820E+04  4.83210E+04 -7.54959E+03  5.10146E+04
 -3.31701E+04  3.56837E+04 -4.36195E+04  1.13588E+04 -4.45849E+04 -1.66831E+04 -2.40168E+04 -3.92215E+04
  7.14449E+03 -3.94127E+04  3.38461E+04 -1.52764E+04  2.96068E+04  1.00523E+04  5.01873E+03  2.00555E+04
 -1.24659E+04  9.86005E+03 -1.08520E+04 -7.54256E+03  7.09838E+03 -1.15147E+04  1.84869E+04  5.13896E+03
  1.38639E+04  2.11699E+04 -5.14343E+03  2.65275E+04 -2.22631E+04  1.24842E+04 -2.95497E+04 -3.40215E+03
 -2.23027E+04 -1.71144E+04 -9.30735E+03 -2.21202E+04  4.71802E+03 -2.17550E+04  1.77077E+04 -2.12337E+04
  2.89470E+04 -1.23841E+04  3.48755E+04  2.07910E+03  2.51871E+04  2.06975E+04  4.53876E+03  3.85904E+04
 -1.72283E+04  3.16538E+04 -2.99747E+04  1.17394E+04 -2.28194E+04 -8.97509E+03 -4.35726E+03 -1.34462E+04
  1.59920E+03 -9.80868E+02 -5.47289E+03  7.55422E+03 -1.77960E+04  3.88062E+03 -1.72845E+04 -6.86877E+03
 -1.14044E+04 -2.13445E+04  6.18242E+03 -2.52105E+04  1.70798E+04 -1.73673E+04  2.10416E+04 -1.63956E+03
  1.20806E+04  1.46621E+04 -5.91169E+02  1.99040E+04 -1.46136E+04  1.16909E+04 -2.15800E+04 -4.76348E+03
 -1.58365E+04 -1.96773E+04 -1.29816E+03 -2.42429E+04  1.13950E+04 -2.15137E+04  2.02613E+04 -9.46987E+03
  1.90545E+04  3.93691E+02  1.35353E+04  4.52092E+03  6.97952E+03 -5.74246E+01  1.02057E+04 -1.58356E+03
  1.96182E+04  3.31450E+03  2.22426E+04  1.59705E+04  1.42764E+04  3.25156E+04 -3.55662E+03  3.91190E+04
 -2.28653E+04  3.14981E+04 -3.52206E+04  1.53657E+04 -3.77910E+04 -3.66715E+03 -3.08787E+04 -2.15707E+04
 -1.38763E+04 -3.00028E+04  1.17341E+04 -2.77408E+04  2.38782E+04 -1.43273E+04  2.05386E+04  4.90794E+03
  8.33063E+03  1.77737E+04 -9.78469E+03  1.60028E+04 -1.86062E+04  3.61949E+03 -1.34945E+04 -1.20107E+04
  6.41788E+02 -1.75831E+04  8.28550E+03 -1.33443E+04  1.17966E+04 -6.60296E+02  1.80622E+03  7.50443E+03
 -7.10396E+03  3.35662E+03 -7.80558E+03 -7.15893E+03 -5.97323E+02 -1.48024E+04  1.01761E+04 -1.65007E+04
  1.84614E+04 -9.96955E+03  2.17593E+04  2.99081E+03  1.88538E+04  1.60923E+04  7.94763E+03  2.38353E+04
 -5.07946E+03  2.65132E+04 -1.75561E+04  1.60010E+04 -1.77150E+04  3.77806E+03 -1.33044E+04 -4.62969E+03
 -6.22148E+03 -5.50523E+03  2.01267E+02  4.40948E+02 -3.02458E+03  3.08893E+03 -6.60375E+03  5.58385E+03
 -1.28760E+04 -6.45448E+02 -1.33950E+04 -1.10197E+04 -4.74480E+03 -1.64781E+04  6.59774E+03 -1.29082E+04
  1.00373E+04 -6.00047E+03  7.92272E+03  3.34269E+03 -1.08839E+03  4.59589E+03 -6.54572E+03  1.41377E+03
 -5.73149E+03 -8.93846E+03 -4.20456E+02 -1.24755E+04  7.62705E+03 -1.27379E+04  1.74331E+04 -8.00158E+03
  1.92601E+04  3.52696E+01  1.40773E+04  1.20621E+04  4.76382E+03  1.48069E+04 -6.32978E+03  1.31697E+04
 -1.10074E+04  2.86795E+03 -5.46746E+03 -2.36017E+03  2.03415E+03 -5.16347E+03  8.54907E+03 -1.80866E+03
  6.57807E+03  5.66265E+03  2.11618E+03  9.53472E+03 -7.88794E+03  1.05336E+04 -1.36551E+04  2.35459E+03
 -7.33223E+03 -6.11896E+03 -6.13799E+02 -9.88192E+03  7.01925E+03 -4.60418E+03  6.14711E+03  2.15847E+03
  1.78364E+03  6.77856E+03 -6.18144E+03  7.82556E+03 -1.07632E+04  3.95307E+03 -1.13471E+04 -2.23463E+03
 -6.72866E+03 -1.18587E+04  4.20958E+03 -1.41281E+04  1.22129E+04 -8.39209E+03  1.27644E+04  2.50643E+03
  7.29577E+03  1.06547E+04 -2.04747E+03  1.28622E+04 -8.95476E+03  6.23832E+03 -1.01178E+04 -1.55227E+03
 -8.42368E+03 -8.38381E+03 -6.26027E+02 -9.61947E+03  4.69969E+03 -9.23777E+03  6.17966E+03 -3.69681E+03
  3.81794E+03  1.08846E+03 -1.34103E+02  2.47756E+02  5.67063E+02 -4.18785E+03  2.42386E+03 -5.08838E+03
  1.00944E+04 -3.37508E+03  1.24407E+04  2.03222E+03  1.15214E+04  7.29387E+03  9.04745E+03  1.48743E+04
 -3.09722E+03  1.72916E+04 -1.56012E+04  1.29068E+04 -1.93030E+04  2.18068E+03 -1.61216E+04 -6.10735E+03
 -8.42503E+03 -1.32476E+04 -1.48772E+02 -1.00965E+04  4.69717E+03 -6.04997E+03  3.12402E+03 -4.22077E+03
  1.60897E+03 -2.35232E+03  2.96351E+03 -4.21049E+03  5.37055E+03 -2.80143E+03  6.76667E+03 -9.59699E+02
  9.68129E+03  1.61468E+03  4.20946E+03  7.78503E+03 -2.65185E+03  8.45070E+03 -9.92511E+03  6.36796E+03
 -1.03536E+04 -1.10660E+03 -7.46084E+03 -8.25683E+03 -1.02313E+03 -1.10618E+04  6.34329E+03 -1.19577E+04
  1.18024E+04 -6.81723E+03  1.68020E+04  2.05055E+03  1.03522E+04  9.40017E+03  2.69744E+03  1.30064E+04
 -6.16960E+03  1.04129E+04 -7.67915E+03  3.75503E+03 -6.21146E+03 -8.45973E+02 -2.73053E+03 -2.27081E+03
 -2.00815E+03 -4.07650E+02 -2.72394E+03  2.67861E+03 -5.90088E+03  1.98903E+03 -7.68216E+03  2.67354E+02
 -4.72313E+03 -8.30639E+03  7.16410E+02 -1.08363E+04  5.98443E+03 -9.03452E+03  1.00397E+04 -2.88025E+03
  1.12835E+04  3.88044E+03  4.53608E+03  8.51631E+03 -2.20100E+03  1.13130E+04 -7.55063E+03  6.62504E+03
 -1.08428E+04  1.28078E+03 -6.64351E+03 -7.76043E+03 -5.03785E+02 -8.67413E+03  4.62756E+03 -6.11825E+03
  7.18140E+03 -2.07353E+03  3.03709E+03  2.02551E+03  1.44613E+03  4.50780E+03  1.54549E+03  1.02350E+03
  1.70715E+03  1.64960E+03  2.16930E+03  1.48208E+03  3.53604E+03  4.14133E+03  3.84220E+03  5.99408E+03
 -2.29175E+03  8.69284E+03 -8.15238E+03  7.42860E+03 -1.13500E+04  3.71864E+03 -1.16229E+04 -4.32375E+03
 -5.03756E+03 -9.66202E+03  1.93998E+03 -1.12154E+04  5.87568E+03 -8.27534E+03  8.58358E+03 -3.23189E+03
  6.56730E+03  4.97070E+03  3.27710E+03  4.84886E+03 -2.50848E+03  3.19068E+03 -3.67650E+03 -3.91732E+02
 -1.92663E+03 -5.01318E+03  1.93178E+03 -3.93857E+03  4.35687E+03 -3.34413E+03  4.05703E+03  1.56766E+03
  2.78626E+03  3.02615E+03  9.81878E+02  1.73451E+03  4.81874E+02  2.03346E+02  1.76810E+03  5.14713E+02
  5.21992E+02  3.74840E+01  4.18274E+03  2.31807E+03  2.62263E+03  5.83967E+03 -1.18883E+03  8.42370E+03
 -3.31976E+03  4.40721E+03 -8.24194E+03  3.29257E+03 -6.16271E+03 -2.20689E+03 -2.59871E+03 -3.79353E+03
  5.71871E+02 -4.26379E+03  3.81904E+03 -2.35031E+03  1.54803E+03  1.58407E+03 -7.66908E+02  3.23777E+03
 -5.45003E+03  2.78439E+03 -4.90216E+03 -2.50386E+03 -2.95130E+03 -4.45673E+03  8.29694E+02 -5.81269E+03
  2.32944E+03 -2.89975E+03  3.73924E+03  1.18939E+02  3.22864E+03  7.87145E+02  8.79413E+02  4.92633E+03
 -2.25794E+03  4.73791E+02 -3.42621E+03 -1.63216E+03  1.87398E+03 -3.05056E+03  4.53325E+03 -4.47638E+03
  7.33379E+03  1.00622E+03  6.25901E+03  5.22206E+03  1.89403E+03  5.45420E+03 -1.58629E+03  7.40319E+03
 -3.86055E+03  2.72624E+03 -4.74117E+03 -1.03912E+03 -3.33920E+03 -4.83419E+03  1.20546E+03 -5.45902E+03
  4.29763E+03 -1.56106E+03  3.05106E+03 -2.97688E+02  6.76177E+02  3.96701E+03  1.66536E+02  3.71934E+03
 -1.28749E+03  2.95687E+03 -2.48607E+03  1.71065E+03 -5.56360E+02  4.70650E+02 -3.27319E+03  6.04070E+02
 -3.02727E+03  2.38146E+03 -3.88812E+03  2.93945E+03 -7.38752E+03  2.10358E+02 -7.45847E+03 -6.12237E+03
 -5.12999E+03 -8.27160E+03  1.32411E+03 -9.01263E+03  5.04467E+03 -6.79479E+03  1.02485E+04 -3.89806E+03
  9.74473E+03  9.15861E+02  3.85386E+03  5.87613E+03  4.43598E+02  6.58320E+03 -3.63270E+03  5.51863E+03
 -3.51354E+03  1.67844E+03 -2.42595E+03 -1.00740E+03  4.91586E+02 -1.95388E+03 -2.19609E+02 -2.93530E+02
 -1.07367E+03 -1.19259E+03 -2.63165E+03  2.23528E+02 -1.84964E+02 -8.89235E+02  1.25311E+03 -2.00500E+03
  4.10987E+03 -3.46453E+03  4.08962E+03  3.41679E+02  6.00911E+03  3.63806E+03  1.12199E+03  6.33694E+03
 -3.24380E+03  8.41167E+03 -7.34609E+03  4.83114E+03 -7.22897E+03 -2.21270E+02 -6.05351E+03 -7.14945E+03
 -3.19273E+03 -7.27612E+03  1.31251E+03 -6.37421E+03  4.05937E+03 -3.88440E+03  3.97314E+03  6.50285E+02
  3.40493E+03  2.03447E+03  6.80315E+02  1.26771E+03 -8.85315E+02  1.76475E+02 -4.47814E+02 -8.82526E+02
  2.27912E+03 -1.35391E+03  2.66211E+03  3.07988E+02  5.05411E+02  2.37803E+03  2.85060E+02  3.57538E+03
 -4.61540E+03  3.18304E+03 -3.82731E+03 -4.62013E+02 -4.04811E+03 -3.62142E+03  1.66891E+02 -5.45147E+03
  3.28092E+03 -5.11300E+03  5.47756E+03 -2.16828E+03  5.52094E+03  1.72584E+03  3.44796E+03  5.54878E+03
  7.89165E+02  3.51029E+03 -2.02748E+03  3.82901E+03 -2.72912E+03  1.03757E+03 -3.25689E+03  4.98220E+02
 -2.20704E+03 -1.07705E+03 -1.59650E+03 -4.91281E+01 -2.04513E+03 -4.18238E+02 -3.26437E+03 -7.84684E+02
 -3.90035E+03 -1.82180E+03 -1.99399E+03 -4.89238E+03  2.12496E+03 -5.20291E+03  3.99046E+03 -2.56020E+03
  5.20160E+03  4.78769E+02  7.72510E+02  3.65697E+03 -7.00280E+02  4.59934E+03 -3.69191E+03  3.67417E+03
