 $NMID ID='MM_0lb_SNR200_9hz_g45_60.RAW', FMTDAT='(8E13.5)'
 TRAMP=1., VOLUME=1. $END
  3.11702E+05 -5.55172E+02  3.37962E+05  2.50924E+05  8.44849E+04  3.39666E+05 -1.33533E+05  2.48292E+05
 -1.89928E+05  8.33636E+04 -1.12434E+05 -3.23859E+04 -1.40467E+03 -5.27932E+04  5.38636E+04 -2.15005E+03
  3.54125E+04  5.22319E+04 -1.78343E+04  7.68169E+04 -6.03482E+04  6.63658E+04 -8.37171E+04  3.36665E+04
 -8.19681E+04 -1.04211E+04 -5.73558E+04 -5.10794E+04 -1.48617E+04 -6.96870E+04  2.90209E+04 -4.71838E+04
  4.03352E+04  4.01010E+03  1.69715E+04  4.85453E+04 -3.51530E+04  5.04780E+04 -6.89625E+04  7.79180E+02
 -5.53939E+04 -5.86734E+04 -7.21478E+03 -7.77841E+04  3.54501E+04 -5.69176E+04  4.84833E+04 -1.89897E+04
  4.57995E+04  1.14235E+04  3.45474E+04  2.71865E+04  1.58831E+04  2.95960E+04 -6.30274E+03  2.77155E+04
 -2.15731E+04  1.15174E+04 -1.64818E+04 -5.61097E+03  7.40002E+03 -8.26729E+03  2.26911E+04  1.29351E+04
  5.58384E+03  3.73813E+04 -3.28838E+04  3.71637E+04 -6.48627E+04  2.01926E+03 -5.94800E+04 -4.45645E+04
 -1.27368E+04 -6.60873E+04  4.11771E+04 -4.79405E+04  6.10587E+04 -2.58084E+03  3.77493E+04  3.41970E+04
 -5.21415E+03  3.75095E+04 -3.16552E+04  1.85365E+04 -3.36089E+04 -3.88420E+03 -2.04108E+04 -1.11097E+04
 -9.52194E+03 -1.64840E+04  7.16289E+02 -1.93887E+04  7.47599E+03 -2.43944E+04  1.62738E+04 -1.21764E+04
  1.09546E+04  6.04873E+03 -9.47470E+03  1.09384E+04 -2.15444E+04 -7.05040E+03 -7.07929E+03 -3.66476E+04
  2.45817E+04 -4.67629E+04  5.18407E+04 -2.07364E+04  4.83173E+04  2.05659E+04  1.90164E+04  4.78172E+04
 -1.70066E+04  3.72383E+04 -2.77285E+04  8.58445E+02 -1.16397E+04 -2.79131E+04  2.17788E+04 -3.68033E+04
  4.43785E+04 -1.07625E+04  4.04077E+04  2.42523E+04  2.14947E+04  5.15647E+04 -7.90682E+03  5.50372E+04
 -3.47014E+04  3.78959E+04 -4.66486E+04  1.00033E+04 -4.76082E+04 -1.93802E+04 -2.68188E+04 -4.21557E+04
  7.03021E+03 -4.15534E+04  3.37510E+04 -1.54502E+04  3.19478E+04  1.21368E+04  6.77040E+03  2.14104E+04
 -1.30983E+04  9.63130E+03 -9.66531E+03 -7.50248E+03  5.34435E+03 -1.31469E+04  1.83715E+04  6.75464E+03
  1.43517E+04  2.33742E+04 -6.20839E+03  2.65628E+04 -2.17146E+04  1.34337E+04 -3.10128E+04 -3.03759E+03
 -2.52698E+04 -1.90829E+04 -1.23323E+04 -2.32384E+04  3.83375E+03 -2.63173E+04  2.02527E+04 -2.24489E+04
  3.11624E+04 -1.43925E+04  3.59335E+04  4.58100E+03  2.74174E+04  2.34632E+04  3.21517E+03  4.10399E+04
 -2.02493E+04  3.27724E+04 -3.07469E+04  1.22199E+04 -2.26068E+04 -9.93769E+03 -5.33359E+03 -1.14999E+04
  2.44789E+02 -1.43575E+03 -6.70158E+03  7.78464E+03 -2.04676E+04  3.27337E+03 -1.92261E+04 -9.14218E+03
 -1.09540E+04 -2.23482E+04  4.77639E+03 -2.85792E+04  1.89428E+04 -1.82185E+04  2.27126E+04 -1.02880E+03
  1.44459E+04  1.71869E+04 -1.75216E+03  2.34753E+04 -1.56689E+04  1.45020E+04 -2.28917E+04 -5.28456E+03
 -1.76971E+04 -2.07143E+04 -1.74370E+03 -2.77985E+04  1.25878E+04 -2.36072E+04  2.30096E+04 -1.30253E+04
  2.23178E+04 -1.70077E+02  1.45767E+04  5.89859E+03  8.96910E+03  1.95120E+03  1.07295E+04 -1.73000E+03
  2.33468E+04  2.22434E+03  2.40486E+04  1.75881E+04  1.65611E+04  3.70589E+04 -4.11547E+03  4.27663E+04
 -2.44747E+04  3.48695E+04 -4.13711E+04  1.86096E+04 -4.46284E+04 -3.40421E+03 -3.67313E+04 -2.56894E+04
 -1.48678E+04 -3.58852E+04  1.35231E+04 -3.04007E+04  2.77940E+04 -1.42144E+04  2.38083E+04  8.31168E+03
  8.74295E+03  1.79638E+04 -1.21120E+04  1.64575E+04 -1.82123E+04  3.43879E+03 -1.54691E+04 -1.26921E+04
  5.24461E+01 -1.91626E+04  1.04505E+04 -1.51946E+04  1.26348E+04 -2.00204E+03  1.71232E+03  8.95843E+03
 -8.94331E+03  3.84403E+03 -9.50892E+03 -7.32365E+03 -8.72362E+02 -1.70062E+04  1.15784E+04 -2.07576E+04
  2.08184E+04 -1.00714E+04  2.57511E+04  4.20080E+03  2.23354E+04  1.71004E+04  1.33657E+04  2.82328E+04
 -6.97543E+03  2.98261E+04 -1.96604E+04  1.88465E+04 -2.42699E+04  3.18638E+03 -1.46837E+04 -5.83283E+03
 -7.44203E+03 -5.68274E+03 -1.37769E+03  6.43812E+02 -2.55876E+03  2.18807E+03 -7.55820E+03  5.20292E+03
 -1.31874E+04 -7.00400E+02 -1.35392E+04 -1.10510E+04 -6.39401E+03 -1.96808E+04  4.99109E+03 -1.52633E+04
  1.14963E+04 -4.50541E+03  8.99018E+03  3.97071E+03  2.98006E+02  4.80717E+03 -9.13851E+03 -4.62530E+02
 -6.96109E+03 -1.00156E+04 -1.76228E+02 -1.53010E+04  9.62602E+03 -1.48962E+04  1.89614E+04 -9.58510E+03
  2.28227E+04  3.27131E+03  1.57176E+04  1.34115E+04  3.14862E+03  1.66532E+04 -7.02743E+03  1.52493E+04
 -1.25285E+04  4.98166E+03 -7.87826E+03 -3.51488E+03  9.24946E+02 -3.73491E+03  8.60156E+03 -1.73649E+03
  7.44801E+03  6.19490E+03 -2.37922E+02  1.19343E+04 -8.38639E+03  1.12919E+04 -1.60930E+04  3.44298E+03
 -1.02038E+04 -9.69320E+03 -1.96981E+02 -1.28034E+04  7.24516E+03 -6.68532E+03  8.57569E+03  3.40753E+03
  1.07180E+03  9.80632E+03 -7.93215E+03  1.21333E+04 -1.45228E+04  6.79413E+03 -1.40840E+04 -5.32150E+03
 -8.48067E+03 -1.49861E+04  2.32645E+03 -1.68241E+04  1.36127E+04 -1.14690E+04  1.66566E+04  2.61574E+03
  1.05633E+04  1.28132E+04 -2.33363E+02  1.58778E+04 -1.10443E+04  9.45653E+03 -1.19682E+04 -1.55649E+03
 -1.10608E+04 -1.03864E+04 -2.74330E+03 -1.18133E+04  6.63846E+03 -8.45177E+03  8.77566E+03 -3.30343E+03
  3.90638E+03  3.33523E+03 -2.86202E+02  2.14751E+03 -1.56964E+03 -3.32553E+03  9.85585E+02 -8.90882E+03
  1.15230E+04 -5.32493E+03  1.50360E+04  2.63965E+03  1.66442E+04  1.05569E+04  1.07451E+04  2.14403E+04
 -5.57198E+03  2.39615E+04 -1.90153E+04  1.61500E+04 -2.40700E+04  3.13330E+03 -1.96689E+04 -9.00018E+03
 -1.08725E+04 -1.57925E+04 -6.65464E+02 -1.41206E+04  5.09045E+03 -8.04407E+03  4.45002E+03 -4.36151E+03
  2.64973E+03 -3.01802E+03  2.83644E+03 -5.30148E+03  7.05523E+03 -4.26774E+03  8.66236E+03 -3.23765E+03
  1.14737E+04  1.65520E+03  6.59710E+03  8.75777E+03 -9.64044E+02  1.12384E+04 -1.16917E+04  7.85412E+03
 -1.52137E+04 -1.31551E+03 -8.39545E+03 -1.17856E+04 -1.06358E+03 -1.44091E+04  7.12822E+03 -1.52486E+04
  1.59755E+04 -9.46679E+03  1.85972E+04  1.38143E+03  1.33913E+04  1.44117E+04  2.00165E+03  1.66088E+04
 -7.24830E+03  1.25510E+04 -9.99797E+03  4.98052E+03 -8.50930E+03 -2.66071E+03 -1.70841E+03 -2.68787E+03
 -1.56885E+03  5.54558E+02 -1.78342E+03  2.92167E+03 -4.26558E+03  2.17943E+03 -1.10034E+04 -8.57877E+02
 -5.96714E+03 -1.16492E+04 -1.12843E+02 -1.51862E+04  7.95467E+03 -1.33443E+04  1.48623E+04 -4.76088E+03
  1.26468E+04  5.52278E+03  8.19063E+03  1.17326E+04 -2.56033E+03  1.17394E+04 -8.55830E+03  7.82852E+03
 -1.52818E+04  1.61950E+03 -9.71744E+03 -7.43513E+03 -8.90443E+02 -1.33262E+04  7.09644E+03 -8.95241E+03
  8.45210E+03 -3.53058E+03  7.59560E+03  1.80277E+03  7.13869E+02  5.08060E+03  1.90462E+03  2.26085E+03
  3.61789E+03 -5.51223E+02  4.71024E+03  3.18438E+03  4.59847E+03  5.76888E+03  2.32405E+03  6.89103E+03
 -3.72495E+03  1.34906E+04 -9.67684E+03  1.14085E+04 -1.55569E+04  2.39790E+03 -1.44570E+04 -7.55998E+03
 -7.88001E+03 -1.33922E+04  2.23123E+03 -1.44614E+04  9.44416E+03 -9.74620E+03  1.08564E+04 -1.98217E+03
  9.56504E+03  6.33811E+03  2.08755E+03  8.43783E+03 -4.59065E+03  6.38006E+03 -6.40823E+03 -6.07097E+02
 -2.32965E+03 -6.55612E+03  4.51719E+03 -4.17216E+03  7.24514E+03 -4.11420E+03  6.33174E+03  1.87542E+03
  3.11307E+03  5.17575E+03  1.03396E+03  2.96178E+03 -8.20628E+02  1.55654E+03  1.37216E+03 -4.08068E+02
  2.59705E+03  4.12920E+02  5.91532E+03  2.56318E+03  2.31747E+03  8.01566E+03 -9.41761E+02  1.01005E+04
 -5.68821E+03  8.66712E+03 -7.77499E+03  2.58936E+03 -7.51198E+03 -3.74421E+03 -2.90400E+03 -6.35417E+03
  7.38890E+02 -6.48859E+03  3.43313E+03 -3.17570E+03  4.41080E+03  4.79120E+03 -1.10794E+03  5.36371E+03
 -6.49699E+03  3.56631E+03 -9.43931E+03 -3.68510E+03 -5.25911E+03 -7.77856E+03 -5.21578E+02 -7.90249E+03
  5.77239E+03 -4.48335E+03  5.14621E+03 -4.07587E+02  6.25069E+03  2.09391E+03  1.26302E+03  4.80983E+03
 -3.15948E+03  1.48408E+03 -4.44672E+03 -3.37689E+03  1.82177E+03 -7.06597E+03  8.10166E+03 -4.51506E+03
  9.67319E+03  3.72026E+02  9.80277E+03  6.37246E+03  2.38760E+03  9.23320E+03 -3.90624E+03  8.09813E+03
 -6.46124E+03  4.11104E+03 -7.53861E+03 -9.47791E+02 -3.98292E+03 -5.67888E+03  1.64057E+03 -5.42741E+03
  6.23000E+03 -3.50245E+03  5.14944E+03  3.62976E+03  3.13117E+03  6.01420E+03 -1.82618E+03  4.47157E+03
 -1.31889E+03  4.06003E+03 -3.46605E+03  1.01705E+03 -6.48828E+02  1.92673E+03 -2.76511E+03  1.74909E+03
 -2.30306E+03  2.76191E+03 -6.46091E+03  4.62725E+03 -1.05162E+04  7.79004E+02 -9.43818E+03 -6.10910E+03
 -5.37358E+03 -1.35831E+04  4.05476E+03 -1.71320E+04  8.11046E+03 -1.09806E+04  1.41843E+04 -4.05548E+03
  1.36041E+04  3.55691E+03  8.84014E+03  9.71483E+03  9.46995E+01  1.00469E+04 -4.45679E+03  7.99861E+03
 -5.48530E+03  4.11024E+03 -3.94583E+03 -4.92770E+02 -1.90516E+03 -1.95679E+03 -3.58678E+02 -2.95220E+02
 -1.97664E+03 -2.14614E+02 -1.80934E+03  5.76434E+02 -1.68065E+03 -2.29418E+03 -7.51678E+01 -3.53961E+03
  5.10557E+03 -3.22298E+03  6.07109E+03 -1.42211E+03  7.21346E+03  6.18695E+03  2.91487E+03  1.12467E+04
 -4.51398E+03  1.12760E+04 -1.07145E+04  9.55947E+03 -1.21947E+04 -5.72443E+02 -8.25367E+03 -7.51376E+03
 -3.83659E+03 -9.49538E+03  1.42308E+03 -1.01559E+04  5.88495E+03 -4.69347E+03  5.20239E+03 -1.23580E+03
  1.72670E+03  2.63015E+03 -4.31724E+02  3.29848E+03 -2.93110E+03 -3.95719E+02  4.30996E+02 -1.59234E+03
  3.46822E+03 -2.16788E+02  4.01021E+03  1.32642E+03  2.26799E+03  3.39908E+03  1.00458E+03  5.55172E+03
 -4.37915E+03  4.27256E+03 -7.46508E+03  5.63325E+02 -5.71268E+03 -3.35147E+03 -1.24028E+03 -7.83295E+03
  3.92655E+03 -7.66147E+03  8.12794E+03 -9.44090E+02  7.31793E+03  2.52153E+03  4.34096E+03  7.09423E+03
  1.58960E+03  4.93742E+03 -2.09572E+03  5.15570E+03 -4.01738E+03  1.08249E+03 -3.84381E+03  6.51565E+02
 -4.64634E+03 -1.17595E+03 -6.42553E+02  1.68602E+02 -3.98146E+03  1.68377E+03 -4.40288E+03 -1.10455E+03
 -4.91763E+03 -4.85590E+03 -6.63484E+02 -6.91268E+03  3.10316E+03 -5.26145E+03  5.92206E+03 -1.43954E+03
  6.70579E+03  1.48259E+03  3.47199E+03  5.77729E+03  1.41668E+03  7.43256E+03 -6.20365E+03  5.47630E+03
