 $NMID ID='MM_0lb_SNR200_16hz_g45_4.RAW', FMTDAT='(8E13.5)'
 TRAMP=1., VOLUME=1. $END
  3.10099E+05  8.40782E+02  3.38432E+05  2.50694E+05  8.51933E+04  3.37100E+05 -1.32482E+05  2.49932E+05
 -1.90326E+05  8.21197E+04 -1.11173E+05 -3.28250E+04  1.58148E+03 -4.95316E+04  5.49025E+04 -3.10709E+02
  3.56825E+04  5.31842E+04 -1.65706E+04  7.66156E+04 -5.94933E+04  6.40912E+04 -8.34398E+04  3.09171E+04
 -8.02177E+04 -1.14484E+04 -5.68151E+04 -5.11365E+04 -1.53742E+04 -6.93467E+04  2.81705E+04 -4.71378E+04
  3.86901E+04  3.70710E+03  1.49464E+04  4.69652E+04 -3.40499E+04  4.64012E+04 -6.66685E+04 -2.11960E+02
 -5.26358E+04 -5.56914E+04 -6.30068E+03 -7.70729E+04  3.23811E+04 -5.32074E+04  4.86359E+04 -1.68007E+04
  4.26251E+04  1.17464E+04  3.17234E+04  2.58769E+04  1.70915E+04  2.77124E+04 -5.31549E+03  2.66808E+04
 -2.22837E+04  1.27392E+04 -1.87188E+04 -5.36074E+03  4.42950E+03 -8.61038E+03  2.18321E+04  1.07313E+04
  7.20733E+03  3.30774E+04 -3.01820E+04  3.53854E+04 -6.17880E+04  2.89508E+03 -5.68993E+04 -4.24029E+04
 -1.21771E+04 -6.12221E+04  3.87114E+04 -4.51436E+04  5.58487E+04 -2.57172E+03  3.22130E+04  3.07532E+04
 -5.82480E+03  3.52375E+04 -2.94777E+04  1.41565E+04 -2.97466E+04 -5.00840E+03 -1.40507E+04 -1.05710E+04
 -7.32137E+03 -1.24877E+04 -9.85185E+02 -1.74969E+04  6.68508E+03 -2.20545E+04  1.55799E+04 -1.40143E+04
  1.25406E+04  4.83359E+03 -6.93414E+03  1.34251E+04 -2.07541E+04 -2.89272E+03 -7.67672E+03 -3.22124E+04
  2.23443E+04 -4.17525E+04  4.61072E+04 -1.86692E+04  4.40084E+04  1.84350E+04  1.46750E+04  4.23721E+04
 -1.55734E+04  3.11935E+04 -2.52081E+04  9.08964E+02 -9.52320E+03 -2.62591E+04  2.17832E+04 -3.29694E+04
  4.09196E+04 -7.91532E+03  3.31271E+04  2.34557E+04  1.69154E+04  4.42402E+04 -6.79440E+03  4.75774E+04
 -3.13948E+04  3.09622E+04 -3.94820E+04  8.79627E+03 -4.00199E+04 -1.57415E+04 -2.08302E+04 -3.53963E+04
  7.29699E+03 -3.50322E+04  3.01364E+04 -1.34786E+04  2.72608E+04  1.06206E+04  2.53113E+03  1.89742E+04
 -1.26714E+04  7.01358E+03 -9.61990E+03 -8.01672E+03  6.43152E+03 -9.09888E+03  1.79679E+04  6.98710E+03
  1.32859E+04  2.10284E+04 -6.02930E+03  2.44040E+04 -2.14723E+04  1.01198E+04 -2.63672E+04 -4.84311E+03
 -1.83783E+04 -1.59200E+04 -7.41094E+03 -1.92085E+04  4.68512E+03 -1.67441E+04  1.41241E+04 -1.52800E+04
  2.34410E+04 -1.11350E+04  3.09385E+04  2.52147E+03  2.18249E+04  1.68200E+04  4.17147E+03  3.49437E+04
 -1.68308E+04  2.81427E+04 -2.62296E+04  9.01948E+03 -1.94182E+04 -9.32246E+03 -4.64812E+03 -1.29488E+04
  8.36462E+02 -4.94070E+03 -3.03297E+03  6.22921E+03 -1.47583E+04  4.86847E+03 -1.47941E+04 -5.60299E+03
 -1.01654E+04 -1.70690E+04  4.81842E+03 -1.96235E+04  1.40866E+04 -1.50523E+04  1.56124E+04 -1.42667E+03
  1.08239E+04  1.15281E+04 -1.31681E+03  1.69606E+04 -1.28101E+04  9.77019E+03 -1.73765E+04 -3.87197E+03
 -1.39445E+04 -1.67134E+04 -2.59805E+03 -2.15406E+04  8.35288E+03 -1.76827E+04  1.68464E+04 -7.93189E+03
  1.56074E+04 -2.25452E+02  1.06755E+04  4.37702E+03  5.51084E+03  2.02880E+02  8.48302E+03 -1.41660E+03
  1.56671E+04  2.22205E+03  1.59071E+04  1.46593E+04  1.12151E+04  2.69183E+04 -2.68018E+03  3.05698E+04
 -1.70764E+04  2.40201E+04 -2.69895E+04  1.18920E+04 -2.88584E+04 -2.72710E+03 -2.45932E+04 -1.70657E+04
 -1.08582E+04 -2.35267E+04  7.88664E+03 -2.15247E+04  1.86785E+04 -1.13689E+04  1.69950E+04  4.29716E+03
  8.19843E+03  1.27187E+04 -7.55765E+03  1.17692E+04 -1.46913E+04  2.81270E+03 -1.18685E+04 -9.47843E+03
 -4.43123E+02 -1.32512E+04  6.17466E+03 -1.03710E+04  9.29456E+03 -1.39927E+03  2.28260E+03  5.28654E+03
 -5.91138E+03  2.18933E+03 -3.85756E+03 -4.63083E+03 -4.95752E+02 -1.16147E+04  8.07637E+03 -1.21879E+04
  1.47459E+04 -6.19948E+03  1.52469E+04  2.80798E+03  1.38977E+04  1.03633E+04  5.00200E+03  1.67274E+04
 -3.36959E+03  1.91149E+04 -1.11473E+04  1.16128E+04 -1.35435E+04  2.60608E+03 -9.74832E+03 -2.29039E+03
 -5.07167E+03 -4.23973E+03  3.27377E+02  2.36868E+02 -2.97831E+03  1.68150E+03 -4.22805E+03  3.97968E+03
 -9.22040E+03 -5.93654E+02 -8.54840E+03 -7.13694E+03 -2.75420E+03 -1.38101E+04  4.00554E+03 -9.44497E+03
  8.17644E+03 -4.12596E+03  6.47729E+03  2.66054E+03  2.14038E+03  3.63436E+03 -4.62903E+03 -2.98980E+02
 -4.43735E+03 -6.15700E+03 -2.11140E+03 -8.48287E+03  4.01408E+03 -8.62904E+03  1.14068E+04 -5.68802E+03
  1.43372E+04  3.80227E+02  9.83421E+03  7.84240E+03  1.29528E+03  1.03567E+04 -5.41505E+03  8.24607E+03
 -9.15172E+03  3.11713E+03 -3.20543E+03 -1.07194E+03  1.24642E+03 -2.46739E+03  4.45149E+03 -2.31534E+03
  5.01839E+03  4.20239E+03  1.69198E+03  6.89524E+03 -5.67684E+03  6.85647E+03 -9.79732E+03  1.48555E+03
 -6.35840E+03 -4.91632E+03 -6.24617E+02 -8.72585E+03  4.48600E+03 -5.04253E+03  3.34223E+03  2.85801E+03
  1.49882E+03  5.64934E+03 -4.21630E+03  5.74337E+03 -7.10786E+03  2.38523E+03 -5.14138E+03 -1.74969E+03
 -3.70441E+03 -7.17238E+03  2.58386E+03 -9.75352E+03  7.52818E+03 -4.94902E+03  8.49886E+03  7.17929E+02
  5.58541E+03  7.07763E+03 -1.20867E+03  8.42360E+03 -6.76693E+03  5.93301E+03 -6.23268E+03 -9.39954E+02
 -6.73050E+03 -6.20109E+03 -2.14304E+03 -5.74527E+03  3.46485E+03 -6.37015E+03  3.58884E+03 -2.60756E+03
  4.51878E+03  2.12628E+02  1.78895E+02  1.46152E+03 -1.04114E+01 -3.98973E+02  5.76964E+02 -2.95143E+03
  5.86181E+03 -1.67077E+03  7.71592E+03  1.12275E+03  7.28519E+03  4.70796E+03  7.01514E+03  8.85855E+03
 -2.62086E+03  1.07328E+04 -9.24013E+03  8.82045E+03 -1.18624E+04  1.61147E+03 -1.00235E+04 -3.23567E+03
 -4.80759E+03 -7.89589E+03  6.35715E+02 -6.97566E+03  3.28252E+03 -2.11690E+03  2.85193E+03 -2.75539E+03
  2.38569E+03 -2.56065E+03  2.54256E+03 -2.61477E+03  2.29022E+03 -2.45608E+03  4.29185E+03  4.98248E+02
  6.08788E+03  2.47448E+03  2.35364E+03  4.91357E+03 -1.78950E+03  4.45610E+03 -5.26996E+03  2.90935E+03
 -5.57499E+03 -9.40786E+02 -3.06278E+03 -4.23826E+03  1.12995E+03 -6.67355E+03  3.75905E+03 -7.03619E+03
  7.11744E+03 -3.80834E+03  8.38203E+03  3.44652E+02  5.36683E+03  6.31867E+03  1.61716E+03  7.58366E+03
 -3.92569E+03  7.03098E+03 -4.30846E+03  1.97078E+03 -2.65620E+03 -9.32146E+02 -1.33385E+03 -1.46906E+02
 -3.60251E+02  3.51408E+01 -1.01401E+03  2.32335E+03 -3.25287E+03  1.46935E+03 -4.21333E+03 -1.50916E+02
 -2.03923E+03 -4.87037E+03  1.73895E+03 -6.25075E+03  4.17190E+03 -6.20299E+03  4.99305E+03 -2.16976E+03
  4.25068E+03  3.04569E+03  2.45637E+03  5.34257E+03 -9.24062E+02  6.18104E+03 -2.86362E+03  3.43532E+03
 -4.98589E+03  6.62730E+02 -4.30657E+03 -4.69262E+03  5.46678E+02 -4.63238E+03  1.93410E+03 -3.28839E+03
  2.70841E+03 -1.79244E+03  3.18294E+03  1.09136E+03  4.82418E+02  2.59094E+03  1.63051E+03  1.60251E+02
  1.39729E+03  5.61749E+02  1.21862E+03  2.55012E+02  1.50462E+03  2.59256E+03  2.23055E+03  3.12481E+03
 -9.17689E+02  5.21838E+03 -2.62316E+03  4.97680E+03 -4.27979E+03  2.25038E+03 -5.28281E+03 -1.76010E+03
 -3.42744E+03 -5.29924E+03  6.94000E+02 -5.41730E+03  3.01231E+03 -3.70084E+03  5.47291E+03 -1.18362E+03
  3.59010E+03  1.58715E+03  1.32379E+03  2.39089E+03 -1.62561E+03  6.95593E+02 -1.87744E+03 -8.13757E+01
 -1.24372E+03 -1.39122E+03  1.59128E+03 -2.37271E+03  2.27192E+03 -1.03727E+03  2.28923E+03  5.91438E+01
  1.52240E+03  1.17060E+03  1.00997E+03 -3.15485E+02 -6.69120E+02  7.69375E+02  2.15021E+03  3.34147E+01
 -1.06033E+02  2.03793E+02  3.20214E+03  1.73845E+03  1.25870E+02  3.18854E+03  2.48077E+02  5.22763E+03
 -3.35476E+03  2.82580E+03 -2.73054E+03  3.19196E+01 -3.50531E+03 -1.31376E+03 -1.22066E+03 -1.77470E+03
  7.85038E+02 -3.89930E+03  1.33859E+03  3.26558E+02  2.01619E+02  1.58865E+03 -1.58245E+02  2.05699E+03
 -1.58009E+03  1.18977E+03 -1.99093E+03 -1.14649E+03 -1.30061E+03 -3.84367E+03  1.78981E+01 -3.36960E+03
  2.67937E+03 -5.14479E+02  2.48699E+03 -4.92619E+02  2.95739E+03  9.27796E+02  8.01866E+02  1.16608E+03
 -2.57186E+02 -3.58692E+01 -8.32368E+02 -1.11252E+03  1.28366E+03 -1.28942E+03  2.46812E+03 -2.10459E+03
  3.08283E+03 -7.61464E+01  3.79148E+03  1.17109E+03  2.67571E+03  3.17493E+03  7.30449E+02  2.96080E+03
 -3.14242E+03  5.24011E+02 -2.22188E+03 -5.70013E+02 -1.04773E+03 -2.13971E+03  6.36718E+02 -1.43331E+03
  2.57702E+03 -1.39639E+03  6.64316E+02 -2.43280E+02  3.72767E+02  1.73235E+03  1.18256E+02  7.08264E+02
  2.51123E+02  2.43432E+03 -1.44200E+03 -3.61552E+02  4.76368E+02  5.02509E+02 -5.74189E+02  7.09185E+02
 -1.27200E+03  1.64891E+02 -2.29760E+03 -3.62401E+02 -2.53256E+03 -8.15214E+01 -4.16851E+03 -2.22356E+03
 -1.74259E+03 -3.98544E+03  1.74688E+03 -4.29686E+03  1.22928E+03 -3.85930E+03  4.78639E+03 -2.28103E+03
  3.92409E+03 -4.35500E+02  2.15011E+03  1.97984E+03 -1.87204E+02  8.87086E+02 -7.57398E+02  2.44089E+03
 -2.51861E+03  1.57025E+03 -1.71717E+03  2.93025E+02 -2.96167E+02  6.03836E+02 -1.26167E+03 -7.48498E+02
 -4.04827E+02  1.76982E+02 -4.25199E+02  4.96703E+02 -4.68588E+02 -9.88254E+02  5.62191E+02 -2.02193E+03
  1.01710E+03 -1.21154E+03  5.37768E+02 -1.67050E+01  1.47589E+03  2.34629E+03  1.00645E+01  3.60337E+03
 -1.45262E+03  4.14069E+03 -2.20727E+03  1.88295E+03 -3.13128E+03  3.07467E+02 -1.79289E+03 -2.34654E+03
 -2.28039E+03 -8.36282E+02  8.68500E+02 -2.23616E+03  7.79195E+02 -5.72881E+02  2.00100E+03 -7.96914E+01
  1.53590E+03  4.18498E+02 -1.12159E+02 -7.68175E+02  2.35909E+02 -3.48204E+02 -6.83615E+02  4.69614E+02
  7.61226E+02 -4.36953E+02  7.69244E+02  7.95681E+02  1.03558E+03  2.39632E+02  1.14278E+03  4.68905E+02
 -1.45911E+03  1.18149E+03 -1.92043E+03 -2.81380E+02 -1.70380E+03 -5.47670E+02  2.62084E+02 -2.42105E+03
  1.34648E+03 -8.83879E+02  1.75695E+03 -6.68019E+02  2.09390E+03  3.52306E+02  1.15669E+03  9.56415E+02
 -1.02302E+03  7.40631E+02  6.47252E+02  1.41268E+03 -4.85386E+02  1.22831E+03 -1.06206E+02  5.21347E+02
 -2.81691E+02 -6.61067E+02 -1.58827E+03 -9.79779E+01 -1.15224E+03  7.41504E+02 -1.86943E+03  9.56585E+02
 -1.07088E+03  2.94707E+02 -8.27679E+02 -9.02969E+02  7.00883E+02 -2.28450E+03  9.58628E+02  3.09841E+02
  8.39856E+02 -1.31589E+03  2.42125E+02  3.02961E+02  1.17884E+03  1.56929E+03 -1.37768E+03  8.18682E+02
