 $NMID ID='MM_0lb_SNR200_14hz_g40_75.RAW', FMTDAT='(8E13.5)'
 TRAMP=1., VOLUME=1. $END
  3.10007E+05 -4.78390E+02  3.36692E+05  2.50708E+05  8.46465E+04  3.36946E+05 -1.32252E+05  2.50280E+05
 -1.90768E+05  8.22256E+04 -1.11381E+05 -3.15944E+04  1.70688E+03 -5.04113E+04  5.34126E+04  4.00604E+02
  3.49251E+04  5.21947E+04 -1.72823E+04  7.43699E+04 -6.23097E+04  6.26369E+04 -8.33745E+04  3.03578E+04
 -8.05078E+04 -1.04904E+04 -5.71226E+04 -5.16306E+04 -1.43025E+04 -7.02712E+04  2.76382E+04 -4.50016E+04
  3.97999E+04  3.98335E+03  1.71447E+04  4.73359E+04 -3.47880E+04  4.64817E+04 -6.76547E+04 -3.38180E+02
 -5.42931E+04 -5.63488E+04 -6.75984E+03 -7.70633E+04  3.39622E+04 -5.48330E+04  4.68377E+04 -1.71587E+04
  4.14113E+04  1.11998E+04  3.15542E+04  2.48181E+04  1.58599E+04  2.92952E+04 -3.79327E+03  2.72592E+04
 -2.14108E+04  1.14579E+04 -1.87495E+04 -6.50381E+03  5.35665E+03 -8.74448E+03  2.16542E+04  1.27803E+04
  7.17719E+03  3.38389E+04 -3.26069E+04  3.57980E+04 -6.23529E+04  3.23178E+03 -5.67133E+04 -4.22911E+04
 -1.11603E+04 -6.21049E+04  4.05589E+04 -4.46231E+04  5.79112E+04 -1.92445E+03  3.24150E+04  3.15862E+04
 -5.01196E+03  3.52574E+04 -2.84606E+04  1.47371E+04 -3.08564E+04 -4.78745E+03 -1.58075E+04 -1.08419E+04
 -8.62569E+03 -1.23812E+04 -1.33028E+03 -1.80114E+04  7.20908E+03 -2.27426E+04  1.54918E+04 -1.44388E+04
  1.11446E+04  5.88180E+03 -7.79070E+03  1.33150E+04 -1.92883E+04 -3.19725E+03 -9.41035E+03 -3.34205E+04
  2.14120E+04 -4.24770E+04  4.79997E+04 -1.97500E+04  4.42737E+04  1.90838E+04  1.53297E+04  4.33494E+04
 -1.63702E+04  3.40736E+04 -2.48315E+04  3.19639E+03 -8.73030E+03 -2.73822E+04  2.04744E+04 -3.29832E+04
  4.13587E+04 -8.69733E+03  3.41212E+04  2.38306E+04  1.69512E+04  4.59234E+04 -8.01496E+03  4.86027E+04
 -3.13981E+04  3.36368E+04 -4.01009E+04  8.17998E+03 -4.15767E+04 -1.71297E+04 -2.35969E+04 -3.73967E+04
  6.18503E+03 -3.67851E+04  3.04439E+04 -1.44197E+04  2.89513E+04  1.10821E+04  5.01788E+03  1.93915E+04
 -1.49135E+04  8.30030E+03 -9.91240E+03 -7.60153E+03  5.77517E+03 -9.90710E+03  1.79712E+04  6.26177E+03
  1.31636E+04  2.11270E+04 -6.03719E+03  2.56837E+04 -2.11936E+04  1.09259E+04 -2.64207E+04 -4.35988E+03
 -2.02068E+04 -1.73347E+04 -6.98919E+03 -1.84602E+04  3.99699E+03 -1.82068E+04  1.48932E+04 -1.68720E+04
  2.43877E+04 -1.21297E+04  3.07906E+04  2.00379E+03  2.35402E+04  1.88477E+04  4.02160E+03  3.57412E+04
 -1.75391E+04  3.08484E+04 -2.64238E+04  1.05108E+04 -2.14842E+04 -9.07241E+03 -3.35241E+03 -1.29771E+04
  8.07216E+02 -2.98313E+03 -4.26017E+03  7.39510E+03 -1.57121E+04  4.98766E+03 -1.49693E+04 -6.56093E+03
 -1.04428E+04 -1.83720E+04  5.61699E+03 -2.28744E+04  1.34959E+04 -1.47970E+04  1.77554E+04  7.06728E+01
  1.09624E+04  1.38237E+04 -1.22304E+03  1.77441E+04 -1.26088E+04  1.08545E+04 -1.88763E+04 -4.33844E+03
 -1.34406E+04 -1.72830E+04 -2.22046E+03 -2.15170E+04  1.03788E+04 -1.77688E+04  1.79841E+04 -9.54680E+03
  1.65811E+04 -3.46872E+02  1.29774E+04  4.73090E+03  5.76280E+03  5.82959E+02  8.97260E+03 -7.01184E+02
  1.72236E+04  2.88053E+03  1.83024E+04  1.47261E+04  1.21081E+04  2.87984E+04 -3.89490E+03  3.33749E+04
 -1.93252E+04  2.61587E+04 -3.01956E+04  1.39570E+04 -3.11635E+04 -2.26673E+03 -2.69291E+04 -1.89546E+04
 -1.18176E+04 -2.63870E+04  9.41918E+03 -2.29635E+04  2.08380E+04 -1.17183E+04  1.82407E+04  4.44246E+03
  6.76977E+03  1.25168E+04 -8.57791E+03  1.33655E+04 -1.61140E+04  3.31627E+03 -1.14004E+04 -9.74185E+03
  5.60276E+00 -1.49513E+04  6.71037E+03 -1.07207E+04  9.15144E+03 -2.76986E+03  1.91445E+03  7.21939E+03
 -5.61641E+03  2.03779E+03 -5.33550E+03 -5.44772E+03 -3.54566E+02 -1.19905E+04  9.81689E+03 -1.30384E+04
  1.69692E+04 -6.35335E+03  1.66594E+04  2.11230E+03  1.53105E+04  1.16253E+04  7.16841E+03  1.86650E+04
 -4.16850E+03  2.03690E+04 -1.22768E+04  1.24986E+04 -1.54034E+04  4.00126E+03 -1.13686E+04 -3.62700E+03
 -4.77018E+03 -4.62483E+03 -1.30833E+03  5.74583E+02 -1.39494E+03  1.95931E+03 -4.73078E+03  3.20315E+03
 -9.17438E+03  4.27085E+02 -1.01110E+04 -8.71383E+03 -4.88145E+03 -1.38029E+04  3.55970E+03 -1.03578E+04
  8.90634E+03 -5.45500E+03  6.82929E+03  2.77343E+03  1.13517E+03  4.78918E+03 -4.99738E+03 -1.18791E+03
 -5.29615E+03 -5.87965E+03 -1.28428E+03 -9.28279E+03  6.01129E+03 -1.13881E+04  1.34204E+04 -5.44848E+03
  1.49986E+04  1.50614E+03  1.23499E+04  9.56707E+03  2.35053E+03  1.26385E+04 -6.41140E+03  1.01282E+04
 -8.25567E+03  2.13368E+03 -4.62234E+03 -3.51019E+03  1.28989E+03 -1.82736E+03  6.52390E+03 -2.00168E+03
  6.13757E+03  3.71488E+03  2.01970E+03  9.20609E+03 -5.63283E+03  9.60033E+03 -1.03955E+04  2.22136E+03
 -7.69440E+03 -6.54663E+03  7.58232E+02 -7.71119E+03  6.05467E+03 -4.38286E+03  5.51502E+03  2.25339E+03
  1.97434E+03  5.90281E+03 -4.31495E+03  6.46487E+03 -8.03591E+03  3.37901E+03 -6.70847E+03 -2.07571E+03
 -5.15801E+03 -9.04836E+03  2.03580E+03 -1.05955E+04  7.98431E+03 -6.15189E+03  9.06006E+03  1.47051E+03
  6.97551E+03  7.19800E+03 -9.05837E+02  9.90391E+03 -6.85736E+03  6.46608E+03 -8.60575E+03 -9.46578E+02
 -8.35001E+03 -6.96603E+03 -2.26351E+03 -7.57228E+03  4.38953E+03 -7.11892E+03  4.19246E+03 -3.45445E+03
  3.15759E+03  1.22222E+03  9.50527E+01  1.26399E+03  2.95724E+02 -5.97024E+02  1.18758E+02 -3.39343E+03
  6.51814E+03 -2.00990E+03  7.98491E+03  2.92931E+02  8.05406E+03  5.27834E+03  6.62638E+03  1.17021E+04
 -2.17550E+03  1.24633E+04 -1.07687E+04  9.56407E+03 -1.47429E+04  2.37143E+03 -1.05400E+04 -4.80429E+03
 -6.62152E+03 -8.75689E+03 -7.14839E+02 -6.24682E+03  3.77854E+03 -3.51161E+03  3.15846E+03 -2.63280E+03
  1.39140E+03 -2.22494E+03  2.70430E+03 -2.36857E+03  4.80868E+03 -1.38721E+03  4.40118E+03 -4.12343E+02
  7.00492E+03  1.42816E+03  3.02897E+03  5.91010E+03 -2.31313E+03  5.14482E+03 -7.04820E+03  4.28753E+03
 -8.03619E+03 -6.01772E+02 -3.69334E+03 -5.07979E+03 -8.76034E+02 -8.69516E+03  4.73048E+03 -8.03152E+03
  9.77059E+03 -5.40135E+03  1.02425E+04  6.99894E+02  7.14478E+03  5.72647E+03  1.60794E+03  8.85662E+03
 -2.54332E+03  8.10749E+03 -4.72335E+03  3.08657E+03 -4.09357E+03 -3.44027E+02 -2.12618E+03 -1.31072E+03
 -1.25842E+03  1.38574E+02 -4.40025E+02  2.01836E+03 -3.80310E+03  1.98332E+03 -6.16477E+03 -7.10580E+02
 -2.68678E+03 -5.48939E+03  1.55581E+02 -7.40187E+03  4.79431E+03 -6.73044E+03  7.05274E+03 -2.09426E+03
  7.35707E+03  5.40814E+03  3.60174E+03  6.60410E+03 -1.74539E+03  7.07106E+03 -5.59354E+03  4.36694E+03
 -6.98743E+03  7.58473E+02 -5.94662E+03 -4.03815E+03 -9.97794E+02 -5.92821E+03  3.77464E+03 -5.84740E+03
  4.96352E+03 -2.83398E+03  2.96973E+03  1.82531E+03  1.27174E+03  2.43403E+03 -2.02236E+01  1.56540E+03
  1.89206E+03  9.75466E+02  1.73981E+03  1.75938E+03  2.00705E+03  3.27497E+03  2.57205E+03  3.61949E+03
 -1.91335E+03  5.58260E+03 -5.04546E+03  6.69422E+03 -6.80861E+03  1.81011E+03 -7.45104E+03 -1.51880E+03
 -5.19715E+03 -6.15442E+03  1.25546E+03 -7.99011E+03  3.97581E+03 -4.90552E+03  5.79115E+03 -2.03927E+03
  5.96717E+03  2.37747E+03  1.54059E+03  3.87222E+03 -1.70949E+03  2.51156E+03 -3.12149E+03 -3.57907E+02
 -5.06788E+02 -2.50604E+03  1.38177E+03 -3.15307E+03  2.54357E+03 -1.84639E+03  2.54917E+03 -1.01694E+02
  1.72776E+03  2.67383E+02  5.50179E+02  1.09837E+03 -7.47500E+02  2.04487E+03  2.87778E+03 -1.11956E+03
  6.86785E+02  1.29256E+03  1.90430E+03 -1.48975E+02  3.17243E+02  2.99308E+03  5.56804E+01  5.27392E+03
 -3.03771E+03  4.00807E+03 -4.17575E+03  2.61369E+02 -5.25154E+03 -1.19235E+03 -1.38351E+03 -2.34542E+03
  1.20287E+03 -2.38794E+03  2.57392E+03 -2.38728E+03  8.06502E+02  1.72464E+03 -1.18715E+03  1.73154E+03
 -2.62507E+03 -1.33173E+02 -3.05122E+03 -1.62232E+03 -1.85606E+03 -4.24066E+03  7.63464E+02 -2.53941E+03
  1.13624E+03 -1.44955E+03  2.30797E+03 -8.89946E+02  1.49336E+03  1.07816E+03 -4.00610E+02  1.24832E+03
 -1.12943E+03  1.36837E+03 -2.23336E+03 -5.00962E+02  1.05245E+03 -2.16126E+03  4.29339E+03 -1.87168E+03
  3.73068E+03  9.34736E+02  5.24932E+03  2.30199E+03  1.51667E+03  5.17488E+03 -2.03206E+03  3.43804E+03
 -3.75474E+03  8.22294E+02 -3.16710E+03 -4.29829E+02 -1.84826E+03 -3.78991E+03  1.38219E+03 -2.20092E+03
  4.10988E+03 -1.78573E+03  2.80426E+03  1.56114E+03  1.44609E+03  1.26992E+03  8.63785E+02  2.20337E+03
 -5.63541E+02  6.36552E+02 -1.32799E+03  5.20414E+02  4.38446E+01  7.88531E+02 -1.70583E+03  2.56856E+02
 -2.68668E+03  1.65645E+03 -4.00297E+03  1.47874E+03 -4.61779E+03  9.42471E+02 -4.28284E+03 -2.68829E+03
 -2.51926E+03 -5.95490E+03 -5.04055E+02 -6.29751E+03  3.35152E+03 -4.98774E+03  5.59933E+03 -2.48352E+02
  6.01868E+03  8.01614E+02  2.75873E+03  3.06463E+03  7.98418E+02  4.19881E+03 -1.43149E+03  2.11766E+03
 -1.69754E+03  1.93767E+03 -2.12327E+03 -1.35323E+03 -3.70333E+02  1.45298E+02 -1.56096E+03  4.75290E+01
 -8.09750E+02  4.49654E+02 -1.70011E+03  2.96492E+02  1.79014E+02 -4.63696E+02 -5.90456E+02 -8.12841E+02
  2.31697E+03 -1.55219E+03  1.60348E+03  2.34750E+02  3.60615E+03  2.93361E+03 -5.60372E+01  3.83873E+03
 -2.10440E+03  5.46814E+03 -5.39422E+03  2.62055E+03 -5.24595E+03  2.51710E+02 -4.31702E+03 -2.36042E+03
 -2.37451E+03 -2.20358E+03  7.90763E+02 -3.26337E+03  8.25797E+02 -2.94247E+03  2.80453E+03  1.50274E+03
  1.35688E+03  1.42949E+03 -4.26759E+02  1.19953E+03 -1.04815E+02 -5.18148E+02 -2.44938E+02 -5.37066E+02
  9.29389E+02  8.59545E+02  1.70732E+03  8.40991E+02  7.30897E+02  1.82499E+03  1.60710E+01  1.18635E+03
 -4.80859E+02  1.63606E+03 -2.57808E+03 -7.85714E+00 -2.20899E+03 -1.48210E+03 -5.53843E+02 -4.04528E+03
  1.48485E+03 -2.63911E+03  1.42883E+03 -4.14192E+02  1.45481E+03 -7.48395E+01  1.42079E+03  1.61524E+03
  1.41747E+03  2.39041E+03  3.60174E+01  3.17135E+03 -1.64542E+03  5.27395E+02 -1.43133E+03  7.83571E+02
 -4.82762E+02 -1.32376E+03 -1.77822E+03 -1.07871E+03 -4.29850E+01  1.23626E+03 -2.63082E+03 -8.67613E+02
 -1.69451E+03 -1.73499E+03  3.14331E+02 -4.49317E+03  1.73048E+03 -3.32656E+03  2.09364E+03 -1.08996E+03
  2.75310E+03 -1.31683E+02 -1.56482E+02  1.18685E+03  4.52226E+01  3.25236E+03 -2.02163E+03  2.35460E+03
