 $NMID ID='MM_0lb_SNR200_9hz_g55_49.RAW', FMTDAT='(8E13.5)'
 TRAMP=1., VOLUME=1. $END
  3.09669E+05  1.34942E+03  3.35943E+05  2.51555E+05  8.54459E+04  3.37357E+05 -1.33050E+05  2.52777E+05
 -1.89492E+05  8.44220E+04 -1.13838E+05 -3.24661E+04 -2.81708E+02 -5.13789E+04  5.32679E+04 -5.70836E+02
  3.58028E+04  5.31501E+04 -1.48020E+04  7.51486E+04 -5.94282E+04  6.59895E+04 -8.59761E+04  3.28012E+04
 -8.22159E+04 -1.32247E+04 -5.81063E+04 -5.12922E+04 -1.39638E+04 -7.12259E+04  2.74718E+04 -4.65533E+04
  4.07729E+04  3.68417E+03  1.59134E+04  4.76520E+04 -3.41108E+04  5.03900E+04 -6.70896E+04 -4.24108E+02
 -5.40843E+04 -5.99554E+04 -8.33434E+03 -7.83706E+04  3.50423E+04 -5.68891E+04  4.95245E+04 -1.79087E+04
  4.77769E+04  1.22367E+04  3.34665E+04  2.61896E+04  1.63833E+04  3.21235E+04 -5.54735E+03  2.84129E+04
 -2.20230E+04  1.19683E+04 -1.88990E+04 -5.37257E+03  6.60921E+03 -6.86297E+03  2.36364E+04  1.16276E+04
  8.61526E+03  3.71384E+04 -3.27982E+04  3.81518E+04 -6.66343E+04  3.15168E+03 -5.87340E+04 -4.47798E+04
 -1.36332E+04 -6.67273E+04  4.20017E+04 -4.92257E+04  6.11800E+04 -2.55570E+03  3.56732E+04  3.35802E+04
 -4.72887E+03  3.96015E+04 -3.05864E+04  2.01821E+04 -3.54241E+04 -2.93322E+03 -1.91206E+04 -1.08399E+04
 -8.67307E+03 -1.51865E+04 -5.38959E+02 -1.92458E+04  9.24341E+03 -2.25862E+04  1.75145E+04 -1.34152E+04
  1.00157E+04  7.08143E+03 -1.09507E+04  1.24900E+04 -2.39475E+04 -6.52361E+03 -7.38447E+03 -3.62082E+04
  2.44060E+04 -4.71337E+04  5.34573E+04 -2.13665E+04  4.88726E+04  1.98931E+04  1.74119E+04  4.80233E+04
 -1.81480E+04  3.73991E+04 -2.75463E+04  3.85364E+03 -1.08280E+04 -2.99998E+04  2.19706E+04 -3.68157E+04
  4.47303E+04 -1.05169E+04  4.07813E+04  2.50035E+04  2.19014E+04  5.18165E+04 -9.01464E+03  5.77544E+04
 -3.48143E+04  3.97588E+04 -4.71696E+04  1.04138E+04 -4.89843E+04 -1.71189E+04 -2.63232E+04 -4.13116E+04
  8.61169E+03 -4.18048E+04  3.47251E+04 -1.67704E+04  3.33232E+04  1.14127E+04  6.19264E+03  2.03970E+04
 -1.46298E+04  9.50807E+03 -1.03864E+04 -7.91829E+03  6.35335E+03 -1.14089E+04  1.72371E+04  6.45153E+03
  1.47503E+04  2.17248E+04 -5.89607E+03  2.75508E+04 -2.28049E+04  1.24473E+04 -3.30572E+04 -2.34403E+03
 -2.53391E+04 -1.99944E+04 -1.19800E+04 -2.53940E+04  5.81409E+03 -2.83666E+04  2.12513E+04 -2.29970E+04
  3.40381E+04 -1.48128E+04  3.91332E+04  4.97258E+03  2.72137E+04  2.55146E+04  3.48518E+03  4.15521E+04
 -2.14319E+04  3.45513E+04 -3.02223E+04  1.16237E+04 -2.17562E+04 -1.07759E+04 -4.83002E+03 -1.36475E+04
  1.26407E+03 -2.56247E+03 -7.22071E+03  9.35128E+03 -2.14380E+04  6.11979E+03 -2.11923E+04 -8.27180E+03
 -1.32051E+04 -2.35814E+04  6.71659E+03 -2.87336E+04  1.94442E+04 -2.01176E+04  2.33015E+04 -1.82450E+03
  1.48351E+04  1.55602E+04  4.90362E+01  2.40118E+04 -1.48273E+04  1.38203E+04 -2.46939E+04 -5.33382E+03
 -1.56759E+04 -2.05512E+04 -3.80094E+03 -2.79664E+04  1.26582E+04 -2.31545E+04  2.36517E+04 -1.31305E+04
  2.29245E+04 -1.62832E+03  1.66087E+04  5.64286E+03  1.03518E+04  7.84457E+02  1.24296E+04 -1.64323E+03
  2.43533E+04  2.03073E+03  2.62778E+04  1.86564E+04  1.64818E+04  3.97957E+04 -3.39578E+03  4.55616E+04
 -2.59028E+04  3.79457E+04 -4.34084E+04  1.87091E+04 -4.58693E+04 -2.93293E+03 -3.80194E+04 -2.67139E+04
 -1.34371E+04 -3.91849E+04  1.51599E+04 -3.29652E+04  2.81211E+04 -1.56135E+04  2.50592E+04  9.14351E+03
  8.90348E+03  1.86008E+04 -1.23258E+04  1.50648E+04 -2.00698E+04  1.81721E+03 -1.61160E+04 -1.24415E+04
 -8.05585E+02 -1.94140E+04  1.01314E+04 -1.63233E+04  1.38320E+04 -1.28013E+03  2.54292E+03  9.01783E+03
 -1.04248E+04  2.50920E+03 -1.06577E+04 -8.52718E+03 -2.58169E+03 -1.92470E+04  1.14365E+04 -1.97865E+04
  2.40525E+04 -1.14893E+04  2.64752E+04  2.36040E+03  2.30290E+04  1.79531E+04  1.00027E+04  3.12051E+04
 -5.35622E+03  3.23818E+04 -2.03544E+04  2.00529E+04 -2.31747E+04  4.01124E+03 -1.56471E+04 -4.53184E+03
 -5.63874E+03 -6.17489E+03 -2.09114E+02  1.11157E+03 -2.46510E+03  4.57073E+03 -8.85040E+03  6.12782E+03
 -1.28298E+04 -1.13466E+03 -1.46477E+04 -1.13427E+04 -6.77843E+03 -2.11707E+04  7.38439E+03 -1.72613E+04
  1.41973E+04 -7.42144E+03  7.93122E+03  4.51403E+03  7.99218E+02  6.91807E+03 -8.35997E+03  9.02922E+02
 -6.25589E+03 -9.34694E+03 -1.59534E+03 -1.46772E+04  9.34766E+03 -1.76894E+04  2.10708E+04 -1.10376E+04
  2.39348E+04  1.86672E+03  1.76271E+04  1.50372E+04  4.04700E+03  2.09938E+04 -9.55349E+03  1.52207E+04
 -1.38990E+04  4.93299E+03 -5.08651E+03 -3.11550E+03  7.42349E+02 -4.01671E+03  8.36631E+03 -7.95574E+02
  8.78403E+03  7.83863E+03  3.67489E+02  1.20306E+04 -8.50387E+03  1.17667E+04 -1.47606E+04  2.76180E+03
 -1.29305E+04 -8.43038E+03  1.62209E+03 -1.32307E+04  8.68540E+03 -5.37337E+03  8.26965E+03  4.28521E+03
  3.48911E+03  1.01629E+04 -8.54717E+03  1.26764E+04 -1.49373E+04  4.28016E+03 -1.38664E+04 -6.35004E+03
 -8.04132E+03 -1.54827E+04  2.82826E+03 -1.85152E+04  1.51861E+04 -1.25095E+04  1.84533E+04  4.32193E+03
  1.12946E+04  1.33231E+04 -2.10558E+03  1.54830E+04 -1.21062E+04  9.71166E+03 -1.24359E+04 -9.36720E+02
 -1.03317E+04 -1.14804E+04 -5.40344E+02 -1.31653E+04  5.66161E+03 -1.11410E+04  7.16210E+03 -5.03271E+03
  5.55041E+03  2.83546E+03 -9.30044E+02  3.25850E+03 -1.05450E+03 -4.35031E+03  1.35134E+03 -7.27251E+03
  1.18978E+04 -5.49235E+03  1.71236E+04  1.73697E+03  1.76535E+04  1.18663E+04  1.04535E+04  2.26736E+04
 -3.88988E+03  2.44061E+04 -2.03619E+04  1.85273E+04 -2.65723E+04  3.06102E+03 -2.09291E+04 -7.81634E+03
 -9.33684E+03 -1.75265E+04 -1.20914E+03 -1.56451E+04  3.80991E+03 -9.74119E+03  4.95842E+03 -4.81827E+03
  2.95175E+03 -2.81716E+03  4.49072E+03 -5.05866E+03  5.52071E+03 -4.95355E+03  7.54563E+03 -1.59840E+03
  1.08668E+04  3.38257E+03  5.30938E+03  1.01739E+04 -1.80876E+03  1.17949E+04 -1.09872E+04  7.18650E+03
 -1.47020E+04 -9.78737E+02 -9.38382E+03 -1.02633E+04 -6.87854E+02 -1.79079E+04  8.48834E+03 -1.50443E+04
  1.80010E+04 -9.03309E+03  2.02597E+04  3.66574E+03  1.50710E+04  1.49493E+04  2.54880E+03  1.81785E+04
 -7.27333E+03  1.42127E+04 -1.25036E+04  5.63151E+03 -7.76013E+03 -2.95675E+03 -2.02473E+03 -2.59503E+03
 -1.36887E+03  1.08786E+03 -3.50168E+03  2.97820E+03 -7.12185E+03  3.64676E+03 -1.02996E+04 -2.86148E+03
 -8.01181E+03 -1.08753E+04 -2.39662E+02 -1.61606E+04  9.23405E+03 -1.29912E+04  1.51640E+04 -5.47592E+03
  1.38616E+04  7.64742E+03  7.14505E+03  1.38494E+04 -2.80791E+03  1.57527E+04 -1.08462E+04  8.20662E+03
 -1.47049E+04 -1.14632E+03 -9.92176E+03 -1.09293E+04 -2.68660E+03 -1.29189E+04  6.84764E+03 -1.07546E+04
  9.29044E+03 -1.13872E+03  7.19689E+03  2.89959E+03  2.72436E+03  4.23910E+03  7.48587E+01  1.95521E+03
  1.09570E+03  7.10169E+02  1.52397E+03  3.08899E+03  4.94367E+03  5.44683E+03  4.27761E+03  8.87888E+03
 -4.46462E+03  1.21872E+04 -1.06034E+04  1.23567E+04 -1.43380E+04  2.22099E+03 -1.57973E+04 -7.86371E+03
 -8.16459E+03 -1.44325E+04  3.14581E+03 -1.73158E+04  1.02835E+04 -1.07299E+04  1.27280E+04 -3.88589E+03
  9.41686E+03  7.84230E+03  2.20095E+03  8.96964E+03 -5.66164E+03  6.93293E+03 -7.69563E+03 -8.72563E+02
 -4.08927E+03 -6.52140E+03  4.90942E+03 -5.37777E+03  6.68221E+03 -2.58455E+03  6.43402E+03  1.18536E+03
  3.52583E+03  2.45929E+03 -1.46382E+02  2.64429E+03 -6.12854E+02  1.34791E+03  2.04183E+01  7.28686E+02
  2.65769E+03 -2.60733E+03  7.02947E+03  2.17350E+03  3.39116E+03  8.12255E+03 -1.06619E+03  1.26587E+04
 -7.13388E+03  7.36937E+03 -1.13229E+04  2.13811E+03 -1.12159E+04 -2.33770E+03 -4.18693E+03 -6.45846E+03
  8.32532E+02 -6.54402E+03  4.36988E+03 -2.06170E+03  3.91307E+03  2.46559E+03 -1.26484E+03  6.43324E+03
 -5.41641E+03  3.17493E+03 -5.62096E+03 -3.12997E+03 -3.84721E+03 -8.10920E+03  1.79757E+03 -9.24981E+03
  4.78050E+03 -5.61535E+03  6.40826E+03 -7.92950E+02  3.60805E+03  2.54133E+03  7.34918E+02  4.14790E+03
 -2.63276E+03  1.28425E+03 -3.47701E+03 -1.89942E+03  1.16597E+03 -6.13871E+03  6.72856E+03 -5.35277E+03
  1.16727E+04  1.31601E+03  8.21982E+03  7.52835E+03  1.29260E+03  1.10688E+04 -2.97726E+03  9.11404E+03
 -8.35012E+03  6.31482E+03 -1.01378E+04 -2.35676E+03 -4.77255E+03 -7.60382E+03  3.75171E+02 -7.52865E+03
  5.84764E+03 -2.09242E+03  6.01609E+03  2.01779E+03  1.68561E+03  5.49073E+03 -8.16727E+02  5.04193E+03
 -3.36078E+03  3.86136E+03 -9.42994E+02  1.08995E+03 -1.22982E+03  1.81365E+03 -2.31276E+03  1.57826E+03
 -1.33604E+03  5.22550E+03 -6.82981E+03  1.63569E+03 -1.15978E+04  2.06843E+03 -1.20776E+04 -7.65826E+03
 -6.30117E+03 -1.44018E+04  2.60034E+03 -1.68210E+04  1.06285E+04 -1.20353E+04  1.54315E+04 -5.69071E+03
  1.45935E+04  2.10355E+03  7.69347E+03  9.96829E+03  7.00163E+02  9.89035E+03 -3.50281E+03  7.67285E+03
 -6.89198E+03  2.71105E+03 -3.27437E+03  1.14165E+03 -9.89061E+02 -2.34734E+02 -1.61100E+03  8.90653E+02
 -2.20210E+03 -4.01448E+01 -2.96363E+03 -4.72606E+02 -9.47078E+02 -2.26098E+03  9.84954E+02 -2.88918E+03
  5.10009E+03 -3.63076E+03  5.73909E+03  1.36437E+02  5.79440E+03  6.20551E+03  1.75990E+03  1.09039E+04
 -4.32724E+03  1.17326E+04 -1.04930E+04  6.23118E+03 -1.27501E+04 -2.16489E+03 -1.06442E+04 -8.74771E+03
 -3.99883E+03 -1.16303E+04  3.11910E+03 -1.10926E+04  7.85638E+03 -5.59196E+03  6.93399E+03  4.65060E+02
  3.57089E+03  3.35687E+03 -3.76369E+01  3.27551E+03 -1.36221E+03 -1.14907E+03  2.43274E+01 -2.70712E+03
  3.02234E+03 -6.38788E+02  4.10846E+03  1.75749E+03  2.77602E+03  5.27736E+03  7.09978E+02  6.94717E+03
 -7.01186E+03  5.21932E+03 -8.15166E+03 -7.48621E+02 -5.32016E+03 -5.93790E+03 -4.17767E+02 -9.01057E+03
  4.78525E+03 -7.77137E+03  8.50969E+03 -2.47865E+03  9.01631E+03  2.67335E+03  5.11008E+03  6.18252E+03
  1.05449E+03  4.78553E+03 -2.86625E+03  5.19554E+03 -5.88842E+03  4.17998E+03 -3.55703E+03 -1.41851E+03
 -3.97363E+03 -5.74592E+02 -8.45787E+02  1.53669E+03 -2.92754E+03  8.43144E+02 -5.52887E+03 -1.36108E+03
 -5.27809E+03 -5.34598E+03 -1.52275E+03 -6.29227E+03  2.75259E+03 -8.08585E+03  8.66983E+03 -3.69928E+03
  5.99076E+03  8.13061E+02  3.72159E+03  3.90546E+03 -1.95127E+03  5.74840E+03 -5.02341E+03  3.35079E+03
