 $NMID ID='MM_0lb_SNR200_20hz_g55_17.RAW', FMTDAT='(8E13.5)'
 TRAMP=1., VOLUME=1. $END
  3.09488E+05  1.24906E+03  3.36483E+05  2.50273E+05  8.40439E+04  3.37217E+05 -1.33144E+05  2.49967E+05
 -1.89550E+05  8.32360E+04 -1.10532E+05 -3.33411E+04  1.20406E+03 -5.01588E+04  5.43053E+04  1.35330E+02
  3.40590E+04  5.29728E+04 -1.62591E+04  7.36361E+04 -5.98789E+04  6.26761E+04 -8.31709E+04  3.22237E+04
 -8.07279E+04 -1.13902E+04 -5.59043E+04 -5.01921E+04 -1.45921E+04 -6.75682E+04  2.63854E+04 -4.41896E+04
  3.85331E+04  3.79622E+03  1.56141E+04  4.68622E+04 -3.45055E+04  4.78089E+04 -6.57452E+04 -4.24695E+02
 -5.30475E+04 -5.65742E+04 -6.50508E+03 -7.63495E+04  3.38386E+04 -5.33935E+04  4.65096E+04 -1.68945E+04
  4.20384E+04  1.05786E+04  3.00291E+04  2.41308E+04  1.58852E+04  2.76454E+04 -4.97466E+03  2.70248E+04
 -2.24433E+04  1.27953E+04 -1.94168E+04 -4.05560E+03  3.20783E+03 -7.34440E+03  2.02448E+04  1.19343E+04
  7.60422E+03  3.37712E+04 -3.21479E+04  3.38869E+04 -6.15020E+04  2.49969E+03 -5.54793E+04 -4.17540E+04
 -1.27916E+04 -6.11295E+04  3.89828E+04 -4.27586E+04  5.59153E+04 -2.97340E+03  3.19435E+04  3.20123E+04
 -6.57389E+03  3.32326E+04 -2.70572E+04  1.27465E+04 -2.80724E+04 -5.31714E+03 -1.48216E+04 -1.05892E+04
 -5.97775E+03 -1.26535E+04 -1.67425E+03 -1.63461E+04  6.65985E+03 -2.25141E+04  1.46776E+04 -1.42980E+04
  1.21002E+04  5.37898E+03 -6.49830E+03  1.46832E+04 -2.01944E+04 -2.27385E+03 -8.30437E+03 -3.14891E+04
  2.11404E+04 -3.94344E+04  4.45990E+04 -1.81144E+04  4.27497E+04  1.78585E+04  1.39642E+04  4.19606E+04
 -1.59619E+04  2.99340E+04 -2.29307E+04  9.62555E+02 -7.90259E+03 -2.76142E+04  2.02528E+04 -3.14785E+04
  3.84105E+04 -8.31571E+03  3.24729E+04  2.21984E+04  1.58593E+04  4.28599E+04 -7.98714E+03  4.55682E+04
 -2.80920E+04  2.96943E+04 -3.81422E+04  9.46463E+03 -3.91214E+04 -1.53404E+04 -2.11268E+04 -3.47143E+04
  6.89939E+03 -3.38573E+04  2.89266E+04 -1.33543E+04  2.72261E+04  9.80912E+03  2.89109E+03  1.76371E+04
 -1.20164E+04  7.58413E+03 -9.36006E+03 -7.71105E+03  5.90232E+03 -1.09459E+04  1.69395E+04  6.79207E+03
  1.25253E+04  2.14343E+04 -6.31539E+03  2.32478E+04 -2.17353E+04  1.05283E+04 -2.59080E+04 -7.41199E+03
 -1.63727E+04 -1.70087E+04 -4.01879E+03 -1.60875E+04  3.57567E+03 -1.50173E+04  1.15871E+04 -1.41813E+04
  2.05938E+04 -1.17774E+04  2.70895E+04  9.11299E+02  2.04021E+04  1.62677E+04  3.37951E+03  3.19880E+04
 -1.59938E+04  2.70006E+04 -2.60896E+04  1.04999E+04 -1.91924E+04 -1.02210E+04 -3.95214E+03 -1.37513E+04
  3.59183E+03 -5.01745E+03 -2.39821E+03  4.88885E+03 -1.28444E+04  4.83154E+03 -1.34653E+04 -5.88451E+03
 -8.58781E+03 -1.52187E+04  4.69824E+03 -1.90051E+04  1.13904E+04 -1.43061E+04  1.48955E+04 -8.89802E+02
  8.45141E+03  1.10219E+04  2.09469E+02  1.50682E+04 -1.00580E+04  8.66603E+03 -1.49583E+04 -3.16032E+03
 -1.16163E+04 -1.32969E+04 -1.01437E+03 -2.03928E+04  8.98664E+03 -1.51427E+04  1.46655E+04 -7.02300E+03
  1.55302E+04  8.25045E+02  1.05917E+04  3.56218E+03  4.81231E+03  1.31516E+02  7.55953E+03 -5.13313E+02
  1.45235E+04  3.08025E+03  1.45886E+04  1.33422E+04  8.36085E+03  2.45643E+04 -3.32484E+03  2.59722E+04
 -1.52134E+04  1.95999E+04 -2.31270E+04  9.96522E+03 -2.37128E+04 -1.22710E+03 -2.11221E+04 -1.39095E+04
 -9.56371E+03 -1.91874E+04  6.63503E+03 -1.80946E+04  1.60571E+04 -1.11160E+04  1.52530E+04  4.37438E+03
  6.63568E+03  9.94208E+03 -7.92562E+03  9.97219E+03 -1.34373E+04  2.61288E+03 -1.01844E+04 -7.73762E+03
 -3.02579E+01 -1.15230E+04  6.36289E+03 -9.15002E+03  6.94231E+03 -1.54925E+03  7.06983E+01  5.72450E+03
 -6.03559E+03  1.62635E+03 -2.96650E+03 -4.50110E+03  1.58193E+03 -1.03402E+04  7.69060E+03 -9.60198E+03
  1.16512E+04 -5.05057E+03  1.10851E+04  8.65302E+02  9.57048E+03  9.14412E+03  4.44297E+03  1.44805E+04
 -1.25972E+03  1.57650E+04 -8.96190E+03  9.45383E+03 -1.18603E+04  1.95596E+03 -8.92993E+03 -2.97048E+01
 -4.01274E+03 -3.50363E+03 -6.64164E+02  1.51546E+03 -2.13546E+03  1.43339E+03 -3.14964E+03  3.84493E+03
 -8.11411E+03 -4.99045E+01 -8.11416E+03 -7.52967E+03 -3.95425E+03 -1.17559E+04  1.76450E+03 -7.81112E+03
  6.90583E+03 -3.32270E+03  5.84040E+03  1.89932E+03  1.11983E+03  3.17979E+03 -2.39841E+03  5.19431E+02
 -3.04211E+03 -4.12015E+03 -1.57774E+03 -5.96756E+03  3.36947E+03 -7.61636E+03  9.28204E+03 -3.42601E+03
  1.13334E+04  2.17522E+02  8.89586E+03  5.05880E+03  2.41031E+03  8.08166E+03 -5.67303E+03  7.33613E+03
 -6.73654E+03  3.53537E+03 -3.60072E+03 -1.45669E+03  4.16085E+02 -2.88392E+03  4.13280E+03 -1.08719E+03
  3.91369E+03  1.71000E+03  5.50648E+02  6.14192E+03 -4.55798E+03  5.91227E+03 -8.05802E+03  1.37746E+03
 -4.35075E+03 -2.46899E+03  1.87368E+03 -6.27622E+03  3.18567E+03 -3.01185E+03  3.80204E+03  1.40564E+03
  4.61382E+02  2.89854E+03 -4.29725E+03  4.52819E+03 -3.02814E+03  2.03569E+03 -3.96604E+03 -1.42232E+03
 -2.08075E+03 -4.94061E+03  1.11315E+03 -6.30582E+03  5.68080E+03 -4.77756E+03  6.42336E+03  8.04151E+02
  4.84824E+03  4.25093E+03  2.50333E+02  6.32137E+03 -4.27701E+03  3.28458E+03 -5.23623E+03 -8.03325E+01
 -4.82020E+03 -4.53107E+03 -2.15366E+03 -4.98542E+03  2.42619E+03 -4.04270E+03  3.22434E+03 -2.74499E+03
  2.23756E+03 -1.64489E+02 -1.75349E+03  1.52579E+03  8.26048E+01  7.67071E+02  1.01802E+01 -1.13224E+03
  2.47006E+03 -4.63985E+02  4.71309E+03  9.72819E+02  5.42816E+03  3.20749E+03  5.33734E+03  6.90944E+03
 -9.50786E+02  7.02571E+03 -7.31962E+03  5.32746E+03 -9.26012E+03  1.26461E+03 -7.22467E+03 -1.97491E+03
 -3.97681E+03 -6.00122E+03  4.36995E+02 -4.72775E+03  1.74717E+03 -1.97735E+03  1.28266E+03 -1.57267E+03
  5.69824E+02 -2.32016E+03  3.60347E+03 -1.84461E+03  3.29901E+03 -1.10309E+03  3.91744E+03  1.54073E+03
  3.31060E+03  2.12129E+03  2.82991E+03  3.16628E+03 -1.97757E+03  2.01119E+03 -3.35649E+03  2.38449E+03
 -4.22799E+03 -1.04381E+03 -5.62375E+02 -2.57256E+03  4.60489E+02 -4.83875E+03  2.78896E+03 -5.11226E+03
  3.26433E+03 -3.06402E+03  5.83708E+03 -8.78201E+02  4.71813E+03  3.39409E+03  1.74452E+02  6.28221E+03
 -2.17822E+03  4.69392E+03 -3.41303E+03  1.53648E+03 -2.18497E+03 -5.53181E+02 -8.47632E+02  1.13735E+03
 -4.61660E+02  5.55849E+02 -3.37301E+02  1.61341E+03 -3.57059E+03  9.46589E+02 -4.20171E+03 -4.44190E+02
 -7.99070E+02 -3.98126E+03  1.98383E+03 -3.60483E+03  2.05318E+03 -3.52852E+03  3.50612E+03 -1.38514E+03
  2.86149E+03  2.18312E+03  1.67816E+03  2.26083E+03 -1.66942E+03  4.06186E+03 -1.98621E+03  2.08995E+03
 -2.89639E+03  4.56604E+02 -3.17071E+03 -1.73571E+03 -7.18036E+02 -2.60907E+03  1.61224E+03 -2.28645E+03
  1.75836E+03 -2.14968E+03  2.53849E+03  1.34113E+03  6.41714E+02  1.35284E+03  8.78872E+00  5.23431E+02
  1.56517E+03  8.93315E+02  1.20581E+03  8.97309E+02 -2.71311E+01  3.04162E+03  1.61290E+03  2.85724E+03
 -3.00512E+02  2.46140E+03 -2.24756E+03  4.27560E+03 -1.80639E+03  6.91423E+02 -3.19705E+03 -1.04215E+02
 -1.58214E+03 -3.11299E+03  1.53518E+03 -3.22530E+03  1.99750E+03 -4.17718E+02  2.45483E+03 -6.06582E+02
  1.80576E+03  1.48076E+03  3.99343E+02  3.11717E+03  3.91964E+02  4.07703E+02 -1.54676E+03  2.26259E+02
 -4.75317E+02 -1.50279E+03  4.84907E+02 -8.63650E+02  1.86972E+03 -3.56575E+02  5.13794E+02 -9.35994E+01
  6.22382E+02  6.18058E+02  1.37594E+03  4.30609E+01 -4.70580E+02  8.08890E+02  1.96191E+03 -2.00016E+02
  3.39584E+02 -7.48035E+00  1.20475E+03  6.08632E+02  2.07633E+03  1.64269E+03 -8.46980E+02  2.18978E+03
  2.51589E+02  7.58122E+02 -1.79654E+03 -2.27736E+02 -1.90878E+03 -5.49831E+02 -5.24210E+02 -6.01754E+02
  7.52245E+02 -1.51331E+03  1.56616E+03 -4.51960E+02  3.56317E+02  1.41074E+03  4.22519E+02  1.81891E+01
 -7.33485E+02  8.90680E+02  1.02591E+02 -1.16965E+03  8.33829E+00 -2.14119E+03  4.53498E+02 -8.64842E+02
  1.86846E+02 -1.15112E+03  6.95809E+02 -6.52793E+02  1.32581E+03  5.43438E+02 -2.82772E+02  4.69159E+02
 -3.74892E+02  1.36971E+02 -4.30808E+02  5.14197E+02  1.32136E+03  9.94856E+01  2.14653E+03 -3.43679E+02
  5.70296E+02  6.09886E+02  2.17819E+03  4.66638E+02  1.10327E+03  1.23505E+03  1.67763E+03  1.24487E+03
 -8.53140E+02 -1.20583E+02 -1.93430E+03 -5.25766E+02 -6.32885E+02  3.95719E+02 -3.43794E+01  2.28419E+02
  2.26732E+03 -5.15703E+02  3.11449E+02  3.93674E+02  1.11692E+03  1.03915E+03  4.76585E+01  1.20102E+03
 -2.19852E+02  4.96453E+02 -4.94027E+01 -2.55389E+02 -4.98964E+02  2.86716E+02 -5.64200E+02 -5.21640E+02
 -2.69394E+02  1.42761E+02 -2.07369E+03 -1.92454E+02 -1.49502E+03 -9.38583E+02 -1.50012E+03 -6.68844E+02
 -8.28406E+02 -1.21283E+03  1.66635E+02 -9.14595E+02  1.98731E+03 -9.58749E+02  1.92151E+03 -3.03828E+02
  1.18408E+03 -4.68544E+02  1.50087E+03  2.10099E+03 -1.18723E+03  9.07780E+02 -2.57421E+01  4.40972E+02
 -2.60693E+03  9.29550E+02 -1.27197E+02 -6.03662E+00 -4.26412E+02  1.25332E+03 -1.12250E+03  3.00326E+02
 -4.05209E+02  3.08856E+02 -1.84409E+03  1.63231E+02  1.02900E+03 -2.21628E+02 -4.04598E+02 -1.93431E+02
  2.18052E+03  1.18989E+02 -3.26624E+02 -2.61603E+02 -3.67986E+02  1.36943E+03 -6.11849E+02  8.21599E+02
  6.56042E+01  8.41592E+02 -9.84648E+02  6.81110E+02 -3.36328E+02 -6.62549E+01 -7.10474E-01 -5.64667E+02
 -5.22730E+02 -1.60875E+03  5.78856E+02 -6.59222E+02  2.99402E+02 -6.00066E+02  1.93656E+02 -3.93761E+02
  7.21515E+02 -3.20306E+02 -4.21509E+02  4.74430E+02  1.64242E+01  3.15325E+02 -1.52863E+02  5.02826E+00
  4.38684E+02  5.92419E+02  7.06092E+01  4.18827E+02  1.04470E+03 -2.25858E+02  7.40345E+02 -1.52952E+02
  3.67938E+02  5.32663E+02 -5.68201E+02  2.75520E+02 -1.43362E+03 -4.49681E+02 -1.02663E+02 -1.65445E+02
 -5.08673E+02  3.06312E+02 -4.37582E+02  9.13426E+02  7.53413E+02 -3.22200E+02  7.48126E+02  7.41161E+02
 -3.26982E+02  1.55635E+02  2.00504E+02  8.82701E+02 -6.72908E+02  9.42509E+02 -4.46165E+02 -3.30128E+02
 -9.70747E+02 -9.67827E+02 -8.47668E+02 -1.21110E+02 -4.55491E+02  6.00928E+02 -1.27923E+03  4.55065E+01
 -4.84169E+01 -5.65368E+02  8.22541E+01 -7.21306E+02  4.11324E+02 -2.03319E+03  3.95143E+02  2.30078E+02
 -3.80949E-01  2.54937E+01 -5.10008E+02 -1.21613E+03 -1.48618E+03  1.84617E+02  1.81692E+02  1.58860E+02
