 $NMID ID='MM_0lb_SNR200_17hz_g55_73.RAW', FMTDAT='(8E13.5)'
 TRAMP=1., VOLUME=1. $END
  3.09788E+05 -4.58161E+02  3.38380E+05  2.51040E+05  8.46372E+04  3.37556E+05 -1.32655E+05  2.50415E+05
 -1.89901E+05  8.22958E+04 -1.11680E+05 -3.31086E+04  6.93366E+02 -5.00855E+04  5.45579E+04 -1.41896E+03
  3.53056E+04  5.24717E+04 -1.66889E+04  7.49508E+04 -6.06230E+04  6.30012E+04 -8.29236E+04  3.14483E+04
 -8.19286E+04 -1.10982E+04 -5.63000E+04 -5.13525E+04 -1.56729E+04 -6.95979E+04  2.61951E+04 -4.54131E+04
  4.04214E+04  4.10113E+03  1.62838E+04  4.77843E+04 -3.34194E+04  4.63518E+04 -6.60646E+04 -3.52510E+02
 -5.34086E+04 -5.65296E+04 -6.80872E+03 -7.64939E+04  3.34529E+04 -5.38245E+04  4.74783E+04 -1.69732E+04
  4.28624E+04  1.03626E+04  3.12675E+04  2.53810E+04  1.55401E+04  2.90724E+04 -5.26160E+03  2.75351E+04
 -2.08762E+04  1.23087E+04 -1.91543E+04 -6.17985E+03  5.06524E+03 -7.46220E+03  2.20125E+04  1.23797E+04
  9.16416E+03  3.46837E+04 -3.31833E+04  3.49729E+04 -6.25454E+04  1.51643E+03 -5.72801E+04 -4.18953E+04
 -1.21467E+04 -6.42937E+04  3.85534E+04 -4.40834E+04  5.68385E+04 -1.54106E+03  3.32063E+04  3.31146E+04
 -5.17002E+03  3.43307E+04 -2.86494E+04  1.51531E+04 -2.91935E+04 -5.21140E+03 -1.66760E+04 -1.26855E+04
 -7.63298E+03 -1.26469E+04 -1.18518E+03 -1.76484E+04  6.47661E+03 -2.32751E+04  1.51683E+04 -1.30998E+04
  1.24334E+04  4.98473E+03 -7.51259E+03  1.39942E+04 -2.01994E+04 -5.13664E+03 -7.84462E+03 -3.12847E+04
  2.11297E+04 -4.34795E+04  4.69727E+04 -2.01071E+04  4.44799E+04  1.84748E+04  1.57836E+04  4.22021E+04
 -1.51154E+04  3.30616E+04 -2.43349E+04  6.33925E+02 -7.94779E+03 -2.83527E+04  2.16594E+04 -3.23502E+04
  3.96111E+04 -8.65495E+03  3.36970E+04  2.38575E+04  1.72201E+04  4.41692E+04 -8.25578E+03  4.81782E+04
 -3.06277E+04  3.26073E+04 -3.89932E+04  9.43308E+03 -4.21570E+04 -1.62209E+04 -2.31295E+04 -3.50296E+04
  7.60283E+03 -3.68040E+04  3.18453E+04 -1.44940E+04  2.86315E+04  1.22035E+04  5.05103E+03  1.84648E+04
 -1.49288E+04  8.26329E+03 -8.51349E+03 -7.76608E+03  5.63848E+03 -1.05332E+04  1.80524E+04  6.09859E+03
  1.32721E+04  2.23844E+04 -6.30169E+03  2.38767E+04 -2.14168E+04  1.11037E+04 -2.72306E+04 -6.33355E+03
 -1.91672E+04 -1.78767E+04 -6.88441E+03 -1.74426E+04  3.12814E+03 -1.90005E+04  1.45359E+04 -1.55579E+04
  2.34894E+04 -1.29588E+04  3.06300E+04  2.21735E+03  2.31704E+04  1.77106E+04  4.14831E+03  3.39262E+04
 -1.64718E+04  2.95762E+04 -2.61817E+04  9.94732E+03 -2.02517E+04 -1.05040E+04 -3.88282E+03 -1.44732E+04
  1.85699E+03 -3.85977E+03 -4.48401E+03  6.95618E+03 -1.51265E+04  5.38434E+03 -1.58113E+04 -5.68329E+03
 -9.81199E+03 -1.74033E+04  4.52935E+03 -2.11847E+04  1.41222E+04 -1.50793E+04  1.70415E+04 -1.85981E+03
  1.09956E+04  1.12975E+04 -1.06156E+03  1.81789E+04 -1.34709E+04  1.03668E+04 -1.68940E+04 -4.19025E+03
 -1.33579E+04 -1.55034E+04 -1.53920E+03 -2.18748E+04  9.56302E+03 -1.65503E+04  1.71714E+04 -8.06782E+03
  1.66746E+04  8.74781E+02  1.26893E+04  4.23897E+03  6.29726E+03  9.44901E+02  8.08570E+03 -1.77044E+03
  1.61442E+04  3.02799E+03  1.67141E+04  1.40016E+04  1.05739E+04  2.80202E+04 -3.23640E+03  3.01843E+04
 -1.75068E+04  2.46574E+04 -2.78998E+04  1.24827E+04 -2.92214E+04 -2.97810E+03 -2.57329E+04 -1.63982E+04
 -1.17310E+04 -2.44341E+04  7.44951E+03 -2.22148E+04  1.84509E+04 -1.25397E+04  1.83089E+04  4.32200E+03
  6.70987E+03  1.28989E+04 -7.72678E+03  1.11901E+04 -1.46690E+04  2.74210E+03 -1.16244E+04 -9.81695E+03
 -1.08933E+03 -1.39917E+04  6.21655E+03 -1.01209E+04  8.82486E+03 -1.18158E+03  2.37852E+03  6.22285E+03
 -6.34855E+03  4.57035E+02 -4.51223E+03 -5.00626E+03  1.35086E+03 -1.16611E+04  8.24877E+03 -1.31145E+04
  1.35061E+04 -5.29704E+03  1.59344E+04  3.69299E+03  1.36517E+04  1.12769E+04  6.06865E+03  1.69364E+04
 -1.36091E+03  1.88538E+04 -1.25974E+04  1.24305E+04 -1.33299E+04  3.33006E+03 -1.06917E+04 -2.03635E+03
 -6.21202E+03 -3.30160E+03 -4.32610E+02  2.45137E+03 -2.18832E+03  5.82336E+02 -4.67537E+03  4.43392E+03
 -9.53769E+03 -5.47384E+02 -9.56837E+03 -8.80854E+03 -4.33462E+03 -1.34839E+04  3.53168E+03 -1.00003E+04
  7.85883E+03 -2.94644E+03  5.41795E+03  3.29023E+03 -3.42958E+02  4.01463E+03 -3.09329E+03 -3.80143E+02
 -5.23904E+03 -6.21351E+03 -1.33601E+03 -8.42614E+03  5.62538E+03 -9.59525E+03  1.13497E+04 -3.65443E+03
  1.29389E+04  4.99600E+02  1.00362E+04  7.34006E+03  2.32633E+03  1.03650E+04 -6.46149E+03  9.97181E+03
 -7.91805E+03  3.42344E+03 -3.19899E+03 -2.10471E+03  1.62794E+03 -1.66270E+03  6.29635E+03 -2.04435E+03
  4.87725E+03  5.09152E+03  1.56037E+03  8.38575E+03 -5.07549E+03  7.08502E+03 -9.14111E+03  2.28597E+03
 -5.92142E+03 -4.98411E+03  1.25946E+03 -7.84912E+03  4.36407E+03 -1.99810E+03  4.45902E+03  1.48448E+03
  1.55322E+03  4.34724E+03 -3.77183E+03  6.43386E+03 -5.08522E+03  1.81234E+03 -5.03967E+03 -9.25906E+02
 -3.71569E+03 -8.31323E+03  1.85165E+03 -8.63036E+03  7.22301E+03 -5.69977E+03  8.52374E+03  1.89579E+03
  5.04935E+03  5.55539E+03 -6.12193E+02  8.79229E+03 -6.46758E+03  5.03806E+03 -6.96175E+03 -1.18641E+03
 -7.12915E+03 -5.89001E+03 -1.79620E+03 -5.21313E+03  2.86523E+03 -4.75505E+03  3.95960E+03 -2.64772E+03
  2.78747E+03  8.73281E+02 -9.55276E+02  1.87184E+03 -4.22104E+02 -1.47262E+03  1.40350E+03 -9.83231E+02
  4.17617E+03 -1.95416E+03  6.90064E+03  1.13984E+03  7.03207E+03  4.05407E+03  7.32304E+03  8.05084E+03
 -9.06003E+02  1.09339E+04 -1.02036E+04  8.61491E+03 -1.16784E+04  1.04936E+03 -1.02566E+04 -3.11062E+03
 -4.94824E+03 -8.37506E+03 -4.57627E+02 -6.65005E+03  2.43482E+03 -4.65426E+03  1.43316E+03 -2.78328E+03
  4.81967E+02 -8.69931E+02  1.84397E+03 -2.52883E+03  3.58622E+03 -1.47184E+03  4.64958E+03  6.15880E+02
  4.89994E+03  3.16193E+03  2.09386E+03  5.15896E+03 -1.23712E+03  4.48641E+03 -4.42306E+03  2.17109E+03
 -6.25853E+03  1.19947E+02 -2.97426E+03 -4.04382E+03  4.06567E+02 -6.23171E+03  3.51596E+03 -7.22416E+03
  6.22327E+03 -3.87326E+03  8.43618E+03  2.65086E+02  6.40123E+03  5.95087E+03  3.07553E+02  8.27509E+03
 -3.04568E+03  8.05507E+03 -5.08742E+03  1.79939E+03 -3.86064E+03 -1.90416E+03 -3.32159E+02 -1.12938E+03
 -1.08581E+03  2.47130E+02 -1.64606E+03  2.65148E+03 -2.62443E+03  1.45231E+03 -4.58148E+03 -1.32065E+03
 -7.76519E+02 -4.44446E+03  9.67776E+01 -5.91064E+03  3.64867E+03 -4.96810E+03  5.33370E+03 -1.31395E+03
  5.13841E+03  2.36395E+03  2.17154E+03  4.51171E+03  2.75920E+02  5.85946E+03 -4.13493E+03  4.20521E+03
 -4.17158E+03  4.47304E+02 -4.26470E+03 -2.78981E+03  6.38068E+02 -3.81702E+03  1.68892E+03 -2.70508E+03
  2.94083E+03 -1.40979E+03  2.22349E+03  5.85433E+02  1.19581E+03  2.72450E+03  3.18255E+02  1.27027E+03
  9.59835E+02 -2.27840E+02  1.90173E+03  8.92659E+02  2.23780E+03  3.28731E+03  2.52734E+03  2.04050E+03
 -2.34689E+03  2.85479E+03 -2.67039E+03  4.23497E+03 -4.95101E+03  1.44132E+03 -5.08755E+03 -6.18471E+02
 -1.94251E+03 -4.60325E+03  1.71170E+02 -5.90516E+03  2.47409E+03 -3.52990E+03  3.93572E+03 -1.04069E+03
  3.86052E+03  2.70735E+03  6.80222E+02  2.78179E+03 -1.25332E+03  1.42447E+03 -1.61305E+03 -1.18544E+03
 -1.03086E+03 -1.47638E+03  9.73003E+02 -2.14158E+03  9.25328E+02 -3.77963E+02  2.75035E+03  1.12906E+03
  1.56987E+03  1.23980E+03  6.78506E+02  8.64815E+02  5.64259E+02 -9.19191E+02  7.38094E+02  3.79072E+01
 -2.50277E+01 -5.97214E+02  1.37978E+03  1.04703E+03  2.21116E+03  2.12438E+03 -1.41050E+03  3.45741E+03
 -1.98977E+03  1.05267E+03 -2.85852E+03  9.53222E+02 -2.23814E+03 -4.60049E+02 -1.10575E+03 -2.06260E+03
  8.79301E+02 -2.59000E+03  6.06213E+02 -1.26131E+03  1.83312E+03  9.23408E+02 -1.12458E+03  2.19766E+03
 -2.34472E+03  1.17852E+03 -1.91393E+03 -2.37186E+03 -9.39489E+02 -3.14781E+03  1.76311E+03 -1.24231E+03
  8.74875E+02 -1.09984E+02  1.33963E+03 -2.36075E+02  5.64064E+02 -2.21559E+02  2.95445E+02  1.74649E+03
 -8.91081E+02 -6.50605E+02 -2.21942E+03 -2.26773E+02  9.89425E+02 -2.05336E+03  2.03367E+03 -8.58832E+02
  1.25858E+03  8.96133E+00  3.79228E+03  8.50733E+02  5.94413E+02  2.30027E+03 -3.72456E+02  3.18237E+03
 -1.16470E+03  9.13128E+02 -2.69175E+03 -1.31505E+03 -1.76816E+03 -1.91424E+03  2.03232E+02 -1.92431E+03
  1.51985E+03 -1.11521E+03  1.23140E+03  2.04064E+03  9.84728E+02  1.01018E+03  1.51320E+02  9.99728E+02
  5.25412E+02  1.27868E+03  5.85430E+02 -2.95603E+02  6.17147E+01  1.52282E+03 -2.40690E+02  9.46551E+02
 -7.55985E+02  6.72072E+02 -5.42517E+02  4.23473E+02 -7.14698E+02  3.91006E+02 -3.24633E+03 -1.34779E+03
 -2.82587E+03 -3.70395E+03  7.87471E+02 -4.40839E+03  2.04185E+03 -2.95996E+03  4.48163E+03 -1.17149E+03
  2.38627E+03  6.61416E+02  2.19828E+03  1.53000E+03  7.46524E+01  1.40814E+03 -2.84114E+02  2.11332E+03
 -1.24985E+03  1.58946E+02 -1.15242E+02 -1.24030E+03  1.01495E+02 -7.76160E+01 -7.84378E+02 -2.70958E+02
 -8.17119E+02 -1.06163E+03 -5.01859E+02 -6.41056E+02  8.03041E+01 -7.40103E+02 -8.01890E+02  6.85143E+01
  1.69530E+03 -1.30033E+03  5.41885E+02 -2.59548E+02  1.78177E+03  5.14706E+01  1.53163E+02  2.98096E+03
 -4.73242E+02  2.78822E+03 -2.59119E+03  1.99099E+03 -3.40362E+03 -6.38780E+02 -1.81798E+03 -1.65374E+03
 -7.76247E+02 -7.30057E+02 -1.16114E+03 -1.60696E+03  4.38855E+02 -5.36387E+02  8.10094E+02  2.19269E+02
  5.70451E+02  8.43749E+02 -1.25607E+03 -3.23138E+02 -9.75316E+02 -3.36461E+02 -4.80430E+02  7.07206E+02
 -4.33563E+02 -1.13974E+03  1.58260E+03 -2.18505E+02 -5.66019E+01  3.39085E+02  7.26831E+02  3.48058E+02
 -9.85336E+02 -1.79779E+02 -1.39842E+03 -6.63062E+02 -9.22852E+02 -2.00259E+03 -2.53392E+02 -1.64084E+03
  8.94361E+02 -8.35632E+02  2.10216E+02 -2.06277E+02  7.95584E+02 -1.41767E+03  1.73064E+03  1.86795E+03
  5.88822E+02  1.83464E+03  2.45617E+02  5.11362E+02 -2.69419E+02  9.97776E+02 -6.43463E+02 -4.38895E+02
 -6.65514E+02  5.77275E+02 -8.77796E+02 -3.24694E+02 -3.58223E+02  8.09539E+01 -8.60964E+02 -7.29054E+02
 -1.00270E+03 -1.20251E+03 -5.59319E+02 -2.34461E+03  1.41765E+03 -2.06847E+03 -2.96707E+02  8.74363E+02
  1.56106E+03 -1.90142E+02 -9.26027E+02  7.80241E+02 -2.56088E+02  3.90555E+02  1.60978E+03 -1.87601E-01
