 $NMID ID='MM_0lb_SNR200_12hz_g45_52.RAW', FMTDAT='(8E13.5)'
 TRAMP=1., VOLUME=1. $END
  3.08607E+05 -1.77879E+02  3.38459E+05  2.50200E+05  8.50071E+04  3.37178E+05 -1.32850E+05  2.51074E+05
 -1.90669E+05  8.42579E+04 -1.11626E+05 -3.22379E+04  1.31923E+03 -5.16766E+04  5.35097E+04 -9.09612E+01
  3.39157E+04  5.18821E+04 -1.66728E+04  7.57698E+04 -6.01938E+04  6.31668E+04 -8.46631E+04  3.34008E+04
 -8.11631E+04 -1.05640E+04 -5.72495E+04 -5.07137E+04 -1.50819E+04 -7.10347E+04  2.73507E+04 -4.52675E+04
  4.01142E+04  3.91981E+03  1.64423E+04  4.91091E+04 -3.49896E+04  4.70709E+04 -6.69448E+04  9.33308E+02
 -5.36373E+04 -5.65438E+04 -6.34152E+03 -7.60218E+04  3.34055E+04 -5.55378E+04  4.89118E+04 -1.78240E+04
  4.24771E+04  1.03286E+04  3.22793E+04  2.49906E+04  1.52265E+04  3.03314E+04 -3.78407E+03  2.48749E+04
 -2.19704E+04  1.23961E+04 -1.90523E+04 -5.06817E+03  6.54673E+03 -7.88341E+03  2.29950E+04  1.22844E+04
  6.95933E+03  3.58228E+04 -3.27046E+04  3.56255E+04 -6.39661E+04  1.38047E+03 -5.83695E+04 -4.22817E+04
 -1.30286E+04 -6.42848E+04  4.12498E+04 -4.64289E+04  5.74404E+04 -1.70029E+03  3.56732E+04  3.37454E+04
 -5.81270E+03  3.75846E+04 -3.07154E+04  1.72273E+04 -3.26305E+04 -4.00847E+03 -1.81164E+04 -1.12989E+04
 -7.96143E+03 -1.40052E+04 -1.00713E+03 -1.96810E+04  8.20292E+03 -2.38925E+04  1.58313E+04 -1.56373E+04
  1.04009E+04  4.56227E+03 -1.01305E+04  1.31935E+04 -2.13639E+04 -4.41675E+03 -8.52332E+03 -3.42262E+04
  2.40780E+04 -4.42768E+04  4.76992E+04 -1.97153E+04  4.74251E+04  1.96782E+04  1.59426E+04  4.44159E+04
 -1.82466E+04  3.53150E+04 -2.53202E+04  1.83733E+03 -1.08961E+04 -2.73420E+04  2.18723E+04 -3.39946E+04
  4.20581E+04 -8.58815E+03  3.75369E+04  2.34283E+04  1.92943E+04  4.78490E+04 -9.04708E+03  5.25211E+04
 -3.33644E+04  3.43848E+04 -4.30528E+04  9.70588E+03 -4.42725E+04 -1.77086E+04 -2.42435E+04 -3.89855E+04
  6.86924E+03 -3.93732E+04  3.14512E+04 -1.56632E+04  3.01451E+04  1.06689E+04  3.39585E+03  1.99903E+04
 -1.22231E+04  9.70813E+03 -9.83756E+03 -6.67133E+03  5.56717E+03 -1.11871E+04  1.76170E+04  4.86180E+03
  1.32515E+04  2.13703E+04 -5.78687E+03  2.47265E+04 -2.27244E+04  1.22943E+04 -2.92497E+04 -3.66127E+03
 -2.10315E+04 -1.87760E+04 -9.00798E+03 -2.18143E+04  3.83722E+03 -2.06359E+04  1.65826E+04 -1.97235E+04
  2.74840E+04 -1.18323E+04  3.40902E+04  2.83675E+03  2.53646E+04  2.19636E+04  4.64343E+03  3.90034E+04
 -1.93321E+04  3.16010E+04 -2.97738E+04  1.17155E+04 -2.11098E+04 -9.76320E+03 -5.18882E+03 -1.19815E+04
 -5.81936E+01 -3.75469E+03 -5.36694E+03  6.40044E+03 -1.81355E+04  4.33328E+03 -1.67317E+04 -8.35433E+03
 -9.85992E+03 -1.95913E+04  6.16707E+03 -2.44322E+04  1.61316E+04 -1.82076E+04  1.92140E+04 -3.36635E+03
  1.20200E+04  1.43555E+04 -1.64835E+03  2.09983E+04 -1.31655E+04  1.20702E+04 -1.89262E+04 -4.67185E+03
 -1.54006E+04 -1.87842E+04 -1.35570E+03 -2.44341E+04  1.17766E+04 -2.13023E+04  2.02431E+04 -1.05249E+04
  1.83405E+04 -7.99171E+02  1.35527E+04  4.69025E+03  6.57768E+03  2.09826E+03  1.05280E+04 -2.69291E+03
  1.77907E+04  1.81518E+03  2.07688E+04  1.66165E+04  1.41013E+04  3.22065E+04 -3.42367E+03  3.72022E+04
 -2.07624E+04  2.93835E+04 -3.33339E+04  1.50189E+04 -3.75087E+04 -3.81400E+03 -2.95767E+04 -2.15263E+04
 -1.34686E+04 -3.15232E+04  1.05984E+04 -2.71508E+04  2.29277E+04 -1.23488E+04  2.09763E+04  5.70059E+03
  7.88739E+03  1.51251E+04 -9.38704E+03  1.34602E+04 -1.71094E+04  2.22746E+03 -1.40098E+04 -1.19777E+04
 -1.08707E+03 -1.76752E+04  8.34664E+03 -1.17297E+04  1.02549E+04 -1.57545E+03  2.82982E+03  7.55984E+03
 -7.14839E+03  3.32990E+03 -5.69670E+03 -6.54915E+03 -7.69510E+02 -1.50215E+04  8.27618E+03 -1.42535E+04
  1.83817E+04 -7.96107E+03  2.10679E+04  3.17130E+03  1.80630E+04  1.42576E+04  8.70010E+03  2.37906E+04
 -4.24110E+03  2.58147E+04 -1.61475E+04  1.47888E+04 -1.80549E+04  3.91145E+03 -1.20884E+04 -3.66142E+03
 -5.47327E+03 -5.66087E+03 -9.37598E+02  3.62255E+02 -2.69591E+03  2.62535E+03 -5.58200E+03  5.19289E+03
 -1.25591E+04 -1.05104E+03 -1.13233E+04 -9.86829E+03 -4.85076E+03 -1.59619E+04  4.53688E+03 -1.29514E+04
  1.03004E+04 -6.80559E+03  7.77035E+03  2.32270E+03  5.22261E+01  5.11913E+03 -5.72695E+03  2.81260E+02
 -5.96978E+03 -8.42992E+03 -2.79346E+02 -1.25417E+04  7.41267E+03 -1.26004E+04  1.63020E+04 -8.15482E+03
  1.90051E+04  6.41109E+02  1.36212E+04  1.16287E+04  2.06897E+03  1.47602E+04 -7.02099E+03  1.18227E+04
 -1.08146E+04  3.35103E+03 -4.46902E+03 -2.31972E+03  1.95660E+03 -3.61471E+03  5.90416E+03 -2.67640E+03
  5.21832E+03  4.67137E+03  6.85726E+02  1.18184E+04 -7.26730E+03  1.05793E+04 -1.27263E+04  2.56998E+03
 -8.58172E+03 -6.67568E+03  1.15750E+03 -9.44649E+03  5.93985E+03 -5.94707E+03  6.03417E+03  2.43249E+03
  2.93533E+02  6.23083E+03 -5.59695E+03  8.35389E+03 -1.03397E+04  2.51434E+03 -1.10139E+04 -3.60302E+03
 -5.33139E+03 -1.22269E+04  2.97958E+03 -1.31634E+04  1.03842E+04 -9.70826E+03  1.18081E+04  1.64377E+03
  7.93817E+03  9.11484E+03 -1.58543E+03  1.19933E+04 -7.66709E+03  8.06085E+03 -9.50623E+03 -1.95692E+03
 -8.37966E+03 -7.11141E+03 -1.33618E+03 -9.57748E+03  4.32239E+03 -7.30499E+03  4.90414E+03 -1.36110E+03
  3.57531E+03  1.67578E+03 -1.10797E+03  1.50502E+03  6.48639E+02 -1.93894E+03  1.86759E+03 -4.93119E+03
  8.30113E+03 -2.57769E+03  1.09969E+04  2.24731E+03  1.12972E+04  7.54257E+03  6.68672E+03  1.49603E+04
 -1.84903E+03  1.85729E+04 -1.50986E+04  1.37987E+04 -1.90158E+04  3.29084E+03 -1.44192E+04 -7.04840E+03
 -7.58331E+03 -1.31043E+04 -3.84999E+02 -1.03331E+04  4.00382E+03 -6.02573E+03  2.96425E+03 -5.12527E+03
  2.19920E+03 -2.32884E+03  2.30482E+03 -4.30703E+03  3.76195E+03 -2.13948E+03  6.32717E+03 -1.01587E+02
  7.57281E+03  2.57959E+03  2.76695E+03  6.29716E+03 -1.63712E+03  9.07865E+03 -8.13819E+03  6.21020E+03
 -1.01267E+04 -6.20564E+01 -6.73255E+03 -6.76882E+03 -7.23368E+02 -1.13872E+04  7.14321E+03 -1.08795E+04
  1.14171E+04 -4.82307E+03  1.47106E+04  2.33016E+03  1.00710E+04  8.66685E+03  8.47342E+02  1.36750E+04
 -4.28455E+03  1.04328E+04 -7.98926E+03  3.86973E+03 -4.27505E+03 -1.21212E+03 -2.55255E+03 -8.66064E+02
 -1.03070E+03  9.33802E+02 -6.32344E+02  2.31398E+03 -4.47108E+03  3.84316E+02 -7.68500E+03 -1.63290E+03
 -4.32391E+03 -8.53529E+03 -1.00251E+03 -9.27826E+03  6.02425E+03 -1.04473E+04  9.91754E+03 -2.89180E+03
  8.53514E+03  4.44933E+03  5.21540E+03  8.24110E+03 -6.96008E+02  9.07289E+03 -7.38654E+03  7.06967E+03
 -9.07841E+03  4.03493E+02 -6.32432E+03 -5.45278E+03 -1.80875E+02 -8.48014E+03  4.28537E+03 -6.05396E+03
  5.75133E+03 -3.28424E+03  3.20764E+03  1.24328E+03  1.93373E+03  3.10347E+03  1.31816E+03  7.73904E+02
  2.55468E+03  3.24362E+02  2.07551E+03  1.23939E+03  3.98916E+03  4.50138E+03  2.52985E+03  6.59322E+03
 -2.16292E+03  7.48668E+03 -7.63549E+03  9.18318E+03 -9.81950E+03  2.43415E+03 -1.17025E+04 -3.22343E+03
 -4.62988E+03 -1.03608E+04  1.10010E+03 -1.13307E+04  5.45226E+03 -7.45676E+03  7.50945E+03 -2.06705E+03
  7.26764E+03  4.34992E+03  2.78344E+02  5.81141E+03 -2.40492E+03  2.86274E+03 -4.08445E+03 -1.38441E+03
 -1.38165E+03 -4.60290E+03  3.26727E+03 -4.71077E+03  3.72858E+03 -9.45971E+02  4.87597E+03  1.69667E+03
  9.65120E+02  2.97797E+03  1.20092E+02  2.76816E+03 -5.59591E+02  1.47503E+03  2.45813E+03  4.72926E+02
  2.50053E+03 -1.78178E+02  4.57294E+03  2.24332E+03  1.22366E+03  5.87719E+03 -7.58829E+02  6.96691E+03
 -4.96337E+03  5.22184E+03 -5.76766E+03  7.31382E+02 -4.56022E+03 -2.16880E+03 -2.62726E+03 -3.50807E+03
  1.43368E+03 -2.86419E+03  2.63992E+03 -2.71755E+03  1.89759E+03  2.59785E+03 -1.44625E+03  2.64894E+03
 -4.50837E+03  1.85919E+03 -4.40680E+03 -2.52244E+03 -2.30190E+03 -5.01536E+03  1.10307E+03 -3.97634E+03
  3.10705E+03 -3.42523E+03  2.81563E+03 -1.17675E+02  2.86814E+03  2.08411E+03  7.52640E+02  3.53731E+03
 -1.59770E+03  7.31102E+02 -2.27139E+03 -1.66205E+03  1.91250E+03 -4.09193E+03  4.40908E+03 -2.61068E+03
  6.12495E+03  2.75666E+02  6.19297E+03  2.53633E+03  2.47206E+03  6.94212E+03 -6.47262E+02  4.31535E+03
 -5.55854E+03  1.83714E+03 -4.17792E+03 -1.56454E+03 -3.59342E+03 -3.34737E+03  1.94079E+03 -3.59601E+03
  3.53047E+03 -1.58684E+03  2.50051E+03  1.23397E+03  6.56419E+02  2.68683E+03 -7.99154E+02  3.32870E+03
 -2.04454E+03  1.07688E+03 -1.33468E+03 -8.31503E+02  3.01214E+02 -1.74624E+02 -2.76010E+03  2.53380E+03
 -1.44848E+03  2.57477E+03 -4.63573E+03  2.43106E+03 -5.63619E+03  6.07225E+02 -7.23219E+03 -2.67257E+03
 -3.31590E+03 -8.83361E+03  1.47794E+03 -9.46524E+03  5.18143E+03 -7.39477E+03  7.02426E+03 -3.89353E+03
  8.29933E+03  1.00975E+03  5.36099E+03  6.08781E+03 -1.61418E+03  7.09213E+03 -2.26462E+03  5.09119E+03
 -3.89858E+03  2.34154E+03 -3.11914E+03 -1.32299E+03 -2.23436E+02  4.95955E+02 -6.26887E+02 -1.31184E+03
 -5.83676E+02 -2.45538E+02 -1.56392E+03  5.79923E+02  5.74844E+02 -2.33151E+03 -5.74699E+01 -2.79019E+03
  2.91117E+03 -2.05522E+03  4.82781E+03 -2.04931E+02  3.82983E+03  2.58406E+03  4.42526E+02  5.35623E+03
 -3.24895E+03  7.48621E+03 -5.62749E+03  4.37437E+03 -6.26793E+03  6.21234E+02 -4.88979E+03 -4.81801E+03
 -1.80225E+03 -6.08678E+03  5.91391E+02 -4.16086E+03  3.81199E+03 -2.90621E+03  4.94758E+03  1.28052E+03
  2.80287E+03  2.91006E+02 -5.42798E+00  5.59848E+00 -8.31838E+02 -3.06576E+02  4.26921E+02 -1.52009E+03
  1.43961E+03  4.38440E+02  2.13290E+03  6.11651E+02  8.75807E+02  1.52410E+03 -2.81229E+02  3.53429E+03
 -2.78759E+03  2.04581E+03 -3.48269E+03  1.97510E+03 -3.25147E+03 -1.47720E+03 -7.81173E+01 -4.52060E+03
  2.09498E+03 -3.99301E+03  4.33865E+03 -9.61930E+02  3.11460E+03  5.06631E+02  2.33342E+03  4.76801E+03
  1.44883E+03  2.75229E+03 -1.76761E+03  3.16635E+03 -3.02652E+03  2.33323E+03 -1.68089E+03  6.32787E+02
  1.62729E+02 -5.04042E+01 -7.06623E+02  1.16608E+03 -1.72239E+03  1.68805E+02 -3.03432E+03 -8.68162E+02
 -1.88505E+03 -2.33153E+03  3.24381E+02 -4.02361E+03  1.50760E+03 -4.79605E+03  3.26053E+03 -1.87327E+03
  3.32945E+03 -4.46503E+02  2.32806E+03  2.75694E+03  4.03714E+02  4.05582E+03 -2.45915E+03  2.94090E+03
