 $NMID ID='MM_0lb_SNR200_8hz_g45_75.RAW', FMTDAT='(8E13.5)'
 TRAMP=1., VOLUME=1. $END
  3.10337E+05 -3.21597E+01  3.38622E+05  2.50749E+05  8.43813E+04  3.39866E+05 -1.33609E+05  2.52481E+05
 -1.91032E+05  8.42362E+04 -1.12943E+05 -3.28839E+04  1.31816E+02 -5.14517E+04  5.28209E+04 -1.29327E+03
  3.49223E+04  5.31528E+04 -1.51691E+04  7.75473E+04 -6.07290E+04  6.32227E+04 -8.55037E+04  3.16649E+04
 -8.45005E+04 -1.31051E+04 -5.88007E+04 -5.29861E+04 -1.63383E+04 -7.07941E+04  2.69112E+04 -4.66462E+04
  4.18167E+04  4.02794E+03  1.66524E+04  4.83414E+04 -3.50342E+04  4.73681E+04 -6.79581E+04 -8.02208E+02
 -5.42708E+04 -5.69934E+04 -7.65054E+03 -7.67008E+04  3.51920E+04 -5.83870E+04  4.95334E+04 -1.89929E+04
  4.46006E+04  9.16792E+03  3.44389E+04  2.74222E+04  1.55411E+04  2.95836E+04 -5.07047E+03  2.78807E+04
 -2.22189E+04  1.09177E+04 -1.76130E+04 -5.67024E+03  7.12564E+03 -8.40528E+03  2.30179E+04  1.46917E+04
  6.95298E+03  3.75865E+04 -3.37130E+04  3.80009E+04 -6.53399E+04  2.68719E+03 -6.00900E+04 -4.42301E+04
 -1.17310E+04 -6.72335E+04  4.23541E+04 -4.76368E+04  6.08864E+04 -2.39982E+03  3.64149E+04  3.55120E+04
 -5.86539E+03  4.14844E+04 -3.22650E+04  2.00664E+04 -3.36662E+04 -1.49891E+03 -2.02853E+04 -1.11065E+04
 -8.09589E+03 -1.53656E+04 -7.90599E+02 -2.14611E+04  7.42922E+03 -2.28192E+04  1.63311E+04 -1.20788E+04
  9.10449E+03  6.20533E+03 -1.11557E+04  1.24386E+04 -2.44012E+04 -8.64426E+03 -9.65958E+03 -3.82103E+04
  2.50712E+04 -4.58019E+04  5.18472E+04 -2.14356E+04  4.84188E+04  2.18392E+04  1.69788E+04  4.83686E+04
 -1.57931E+04  3.78726E+04 -2.81650E+04  3.45989E+03 -1.15482E+04 -3.09659E+04  2.17341E+04 -3.55194E+04
  4.32884E+04 -1.11718E+04  4.25087E+04  2.47388E+04  2.23928E+04  5.42730E+04 -8.40138E+03  5.73131E+04
 -3.55303E+04  3.89166E+04 -4.90619E+04  1.11450E+04 -4.69393E+04 -1.86431E+04 -2.54237E+04 -4.34135E+04
  7.23860E+03 -4.21212E+04  3.43431E+04 -1.76192E+04  3.15842E+04  1.10058E+04  6.11937E+03  2.15720E+04
 -1.34948E+04  9.66722E+03 -1.02880E+04 -7.85000E+03  6.95159E+03 -1.20610E+04  1.81936E+04  6.83682E+03
  1.44317E+04  2.36729E+04 -5.83139E+03  2.63978E+04 -2.42717E+04  1.56249E+04 -3.21072E+04 -1.65849E+03
 -2.48860E+04 -1.94759E+04 -1.14918E+04 -2.58313E+04  4.74623E+03 -2.60661E+04  2.09047E+04 -2.38634E+04
  3.42742E+04 -1.23518E+04  3.78545E+04  6.40934E+03  2.76096E+04  2.37587E+04  4.77419E+03  4.26793E+04
 -2.05017E+04  3.56698E+04 -2.95625E+04  1.23334E+04 -2.19493E+04 -1.04091E+04 -4.41355E+03 -1.29397E+04
  1.14354E+03  3.13069E+02 -6.62086E+03  7.84983E+03 -1.99728E+04  5.67469E+03 -2.12066E+04 -1.02580E+04
 -1.31919E+04 -2.38568E+04  6.54769E+03 -2.83090E+04  1.92206E+04 -1.96319E+04  2.28287E+04 -2.19702E+03
  1.40515E+04  1.61349E+04 -1.21638E+02  2.33480E+04 -1.72750E+04  1.40494E+04 -2.50758E+04 -4.27343E+03
 -1.58944E+04 -2.03738E+04 -1.18787E+03 -3.06444E+04  1.34051E+04 -2.38436E+04  2.23156E+04 -1.32703E+04
  2.14549E+04 -1.56208E+02  1.60832E+04  5.00266E+03  8.81282E+03  3.03062E+02  1.33392E+04 -2.10958E+03
  2.24980E+04  3.48745E+03  2.53058E+04  1.73565E+04  1.74112E+04  3.99853E+04 -1.65035E+03  4.44353E+04
 -2.61661E+04  3.78233E+04 -4.28414E+04  1.93330E+04 -4.60211E+04 -2.95189E+03 -3.80216E+04 -2.43286E+04
 -1.53761E+04 -3.78334E+04  1.38345E+04 -3.44686E+04  2.88462E+04 -1.59368E+04  2.29341E+04  7.65714E+03
  9.36380E+03  1.75253E+04 -1.25432E+04  1.77785E+04 -2.24694E+04  1.93559E+03 -1.37026E+04 -1.20868E+04
 -8.92253E+02 -1.91450E+04  1.01313E+04 -1.42690E+04  1.41176E+04 -2.52437E+03  2.64697E+03  8.30151E+03
 -9.47965E+03  6.13583E+03 -1.07903E+04 -7.28075E+03 -2.22240E+03 -1.82663E+04  1.22830E+04 -2.16367E+04
  2.31650E+04 -1.32628E+04  2.78002E+04  2.91658E+03  2.36623E+04  2.13150E+04  1.10329E+04  2.97955E+04
 -4.94895E+03  3.16769E+04 -2.00995E+04  2.06620E+04 -2.39519E+04  4.92172E+03 -1.58724E+04 -6.24700E+03
 -6.44928E+03 -7.78524E+03 -2.28940E+02  7.23164E+02 -1.26123E+03  3.22543E+03 -7.87392E+03  4.04130E+03
 -1.49495E+04 -7.67341E+02 -1.69941E+04 -1.21840E+04 -6.85519E+03 -2.16143E+04  6.28758E+03 -1.62521E+04
  1.21713E+04 -6.48468E+03  1.04295E+04  3.83716E+03  1.09841E+03  5.09945E+03 -8.49878E+03  3.56166E+02
 -7.88830E+03 -9.42453E+03 -1.37926E+03 -1.52825E+04  1.07278E+04 -2.02088E+04  2.05686E+04 -8.58436E+03
  2.46917E+04  2.66053E+03  1.77025E+04  1.50146E+04  3.30657E+03  2.03820E+04 -1.08803E+04  1.54193E+04
 -1.51168E+04  3.90969E+03 -6.74586E+03 -5.07217E+03  2.30581E+03 -5.01386E+03  1.03912E+04 -5.01572E+02
  8.19336E+03  8.10213E+03  2.15894E+03  1.32104E+04 -9.53419E+03  1.27256E+04 -1.74148E+04  2.15973E+03
 -1.18429E+04 -8.45361E+03 -1.01926E+02 -1.40904E+04  9.64242E+03 -9.05349E+03  1.02415E+04  2.93705E+03
  3.64490E+03  8.72526E+03 -9.39845E+03  1.37832E+04 -1.41381E+04  5.80853E+03 -1.35797E+04 -6.45726E+03
 -9.21455E+03 -1.79348E+04  5.39209E+03 -1.88111E+04  1.83063E+04 -1.03742E+04  1.85374E+04  3.03418E+03
  1.05353E+04  1.42008E+04 -3.85190E+03  1.83376E+04 -1.29252E+04  8.79617E+03 -1.30920E+04 -2.56463E+03
 -1.23819E+04 -1.17134E+04 -1.57348E+03 -1.24734E+04  5.28702E+03 -1.00254E+04  8.90921E+03 -3.23104E+03
  3.94482E+03  2.06826E+03 -6.73862E+02  3.46282E+03 -8.88229E+02 -2.31828E+03  2.20963E+03 -7.80302E+03
  1.23152E+04 -5.84770E+03  1.61889E+04  2.52750E+03  1.60317E+04  1.17242E+04  9.99173E+03  2.19366E+04
 -6.19378E+03  2.58742E+04 -2.11262E+04  2.15558E+04 -2.85911E+04  2.55689E+03 -2.23227E+04 -1.09196E+04
 -1.01619E+04 -1.97609E+04 -9.88914E+02 -1.61218E+04  5.64881E+03 -8.66517E+03  4.86113E+03 -6.09345E+03
  3.01312E+03 -3.17297E+03  4.01120E+03 -3.50737E+03  5.58866E+03 -4.40308E+03  7.28182E+03 -1.69182E+03
  1.04537E+04  1.97398E+03  5.97373E+03  9.73645E+03 -3.24267E+03  1.26399E+04 -1.15593E+04  9.64486E+03
 -1.72215E+04 -1.40590E+03 -9.97997E+03 -1.02119E+04 -1.98070E+03 -1.62567E+04  9.10478E+03 -1.65998E+04
  1.68370E+04 -1.00654E+04  1.99596E+04  4.09107E+03  1.49233E+04  1.31288E+04  2.43173E+03  1.91138E+04
 -7.41894E+03  1.62377E+04 -1.10601E+04  5.86801E+03 -8.32886E+03 -2.99077E+03 -3.00332E+03 -2.10009E+03
 -1.62689E+03  2.14745E+02 -2.44313E+03  4.64226E+03 -5.76371E+03  1.95248E+03 -1.16942E+04 -1.68471E+03
 -8.89857E+03 -1.22871E+04 -6.39157E+02 -1.49990E+04  7.34832E+03 -1.50625E+04  1.51659E+04 -3.91879E+03
  1.50948E+04  7.58941E+03  5.34277E+03  1.53733E+04 -1.36653E+03  1.75397E+04 -1.06530E+04  1.10767E+04
 -1.55514E+04  1.08937E+03 -1.14966E+04 -9.41306E+03 -2.01436E+03 -1.35088E+04  5.55795E+03 -1.02149E+04
  1.03725E+04 -3.78271E+03  7.87336E+03  1.95486E+03  3.06646E+03  3.11633E+03  2.09360E+03  3.53500E+03
  3.41638E+03  1.74436E+03  5.30926E+03  7.36779E+02  4.55221E+03  6.10610E+03  3.26628E+03  7.33686E+03
 -3.83663E+03  1.31331E+04 -1.09715E+04  1.30457E+04 -1.71224E+04  4.53605E+03 -1.85893E+04 -6.74418E+03
 -9.30882E+03 -1.66446E+04  4.52726E+03 -1.76118E+04  9.49411E+03 -1.17751E+04  1.50300E+04 -3.39501E+03
  1.02031E+04  6.83643E+03  4.47263E+02  9.50166E+03 -4.40581E+03  6.22662E+03 -8.85796E+03 -8.02452E+02
 -3.71658E+03 -5.68966E+03  3.58576E+03 -6.19554E+03  5.98339E+03 -4.05240E+03  6.59314E+03  2.60553E+03
  3.75921E+03  2.91419E+03  2.88964E+03  3.17564E+03 -2.21851E+03  1.30256E+03  9.53649E+02 -1.19485E+03
  3.47270E+03 -7.28957E+02  6.90999E+03  3.34279E+03  2.46657E+03  1.18647E+04 -3.06473E+02  1.15846E+04
 -7.78365E+03  5.98165E+03 -1.10921E+04  2.52048E+03 -1.03842E+04 -4.54173E+03 -3.56051E+03 -6.52370E+03
  3.22455E+02 -8.72435E+03  4.31434E+03 -3.56762E+03  5.47592E+03  3.37633E+03 -8.18870E+02  5.04056E+03
 -7.05518E+03  3.36368E+03 -7.43984E+03 -3.57697E+03 -4.50970E+03 -9.07567E+03  2.32454E+03 -8.11110E+03
  5.08363E+03 -6.72167E+03  8.46499E+03 -2.61548E+02  6.73045E+03  2.60760E+03  1.20259E+03  4.03371E+03
 -4.13258E+03  2.07274E+03 -4.73219E+03 -3.34909E+03  1.05685E+03 -6.39054E+03  7.68913E+03 -5.28307E+03
  1.19805E+04 -7.27202E+02  9.98061E+03  6.61936E+03  3.49733E+03  1.05332E+04 -3.31083E+03  1.23130E+04
 -1.04593E+04  3.59721E+03 -8.55910E+03 -1.58674E+02 -4.52721E+03 -6.81425E+03  2.32736E+03 -5.91223E+03
  6.74997E+03 -1.54792E+03  6.57633E+03  2.87156E+03  1.38610E+03  5.62308E+03 -2.08566E+03  5.94109E+03
 -2.80535E+03  3.79866E+03 -3.33313E+03  3.23281E+02 -1.98751E+03  1.16662E+03 -1.51551E+03  1.28934E+03
 -3.91276E+03  3.92993E+03 -8.80232E+03  5.78363E+03 -1.31008E+04  2.62444E+01 -1.19490E+04 -6.82545E+03
 -8.15020E+03 -1.49594E+04  3.30013E+03 -1.89864E+04  1.01124E+04 -1.47065E+04  1.62126E+04 -5.81400E+03
  1.53758E+04  3.02419E+03  8.81542E+03  1.16451E+04  2.01496E+03  1.27389E+04 -6.04162E+03  8.70342E+03
 -5.58105E+03  3.03934E+03 -4.68473E+03 -1.65677E+03 -9.06750E+02 -1.69626E+03  6.09656E+02 -2.57423E+03
 -2.53242E+03 -1.35514E+03 -3.60973E+03 -8.87026E-01 -2.09551E+03 -2.77299E+03 -8.67440E+00 -3.62040E+03
  4.72464E+03 -4.71720E+03  8.06828E+03 -6.06133E+02  7.55367E+03  5.18597E+03  4.34896E+03  1.31484E+04
 -6.78990E+03  1.49322E+04 -1.14543E+04  9.70323E+03 -1.42208E+04 -7.50665E+02 -1.15598E+04 -9.73069E+03
 -4.56537E+03 -1.22014E+04  3.49484E+03 -1.18470E+04  7.97155E+03 -5.86467E+03  8.56453E+03  3.66952E+02
  4.43132E+03  3.66085E+03 -1.26816E+03  3.45940E+03 -5.83286E+02 -3.12126E+02 -5.90719E+02 -2.66929E+03
  3.84034E+03 -1.07751E+03  5.57484E+03  1.54649E+03  4.30818E+03  4.78279E+03  2.86959E+02  8.35138E+03
 -5.87943E+03  4.88762E+03 -9.40569E+03  2.62027E+02 -6.39870E+03 -4.91013E+03  1.69095E+02 -1.01675E+04
  6.42919E+03 -7.41722E+03  9.47025E+03 -2.07879E+03  8.86184E+03  1.85078E+03  6.10415E+03  9.68190E+03
  1.70533E+03  8.37542E+03 -2.09316E+03  8.79475E+03 -7.26901E+03  4.52039E+03 -4.38126E+03  6.36348E+02
 -2.25581E+03 -1.15997E+03 -1.27616E+03  9.98798E+02 -3.84374E+03  2.03695E+03 -4.17926E+03 -1.64932E+03
 -6.44668E+03 -4.48010E+03 -2.80725E+02 -8.43585E+03  3.60155E+03 -7.96171E+03  8.30714E+03 -4.69829E+03
  9.17120E+03  2.01720E+03  4.97597E+03  6.95649E+03 -5.27082E+01  8.89563E+03 -5.89232E+03  4.85653E+03
