 $NMID ID='MM_0lb_SNR200_18hz_g55_57.RAW', FMTDAT='(8E13.5)'
 TRAMP=1., VOLUME=1. $END
  3.10277E+05  7.71634E+02  3.38285E+05  2.50053E+05  8.49318E+04  3.37744E+05 -1.33663E+05  2.50585E+05
 -1.89562E+05  8.35078E+04 -1.11749E+05 -3.29047E+04  1.71722E+03 -5.11148E+04  5.39451E+04  6.59719E+02
  3.49244E+04  5.29472E+04 -1.59503E+04  7.58097E+04 -6.13594E+04  6.28741E+04 -8.30703E+04  3.27856E+04
 -8.04207E+04 -1.07265E+04 -5.66793E+04 -5.08682E+04 -1.54327E+04 -6.78388E+04  2.65321E+04 -4.56609E+04
  3.95872E+04  4.56003E+03  1.59936E+04  4.72083E+04 -3.41574E+04  4.65320E+04 -6.51244E+04 -9.48446E+02
 -5.30713E+04 -5.64192E+04 -7.50206E+03 -7.62468E+04  3.35260E+04 -5.35843E+04  4.71116E+04 -1.67967E+04
  4.28920E+04  1.11661E+04  3.05685E+04  2.45527E+04  1.35502E+04  2.97632E+04 -4.83361E+03  2.74718E+04
 -2.26262E+04  1.23137E+04 -1.82157E+04 -4.69341E+03  5.14946E+03 -7.96551E+03  2.13114E+04  1.19300E+04
  7.86237E+03  3.45338E+04 -3.14318E+04  3.49708E+04 -6.24292E+04  1.90940E+03 -5.58806E+04 -4.15388E+04
 -1.25048E+04 -6.14607E+04  3.87979E+04 -4.34234E+04  5.73227E+04 -2.17511E+03  3.21788E+04  3.02765E+04
 -7.31221E+03  3.53752E+04 -2.90726E+04  1.45522E+04 -2.92104E+04 -5.10939E+03 -1.63403E+04 -1.07649E+04
 -7.98069E+03 -1.28180E+04 -6.56976E+02 -1.71313E+04  8.36598E+03 -2.30624E+04  1.45905E+04 -1.37062E+04
  1.17261E+04  3.65069E+03 -7.44238E+03  1.36466E+04 -1.94186E+04 -3.10090E+03 -7.60789E+03 -3.23392E+04
  2.18367E+04 -4.29189E+04  4.75605E+04 -1.89466E+04  4.39665E+04  1.92395E+04  1.63923E+04  4.25380E+04
 -1.55857E+04  3.25223E+04 -2.43153E+04  8.80391E+02 -9.33404E+03 -2.74713E+04  2.09041E+04 -3.15542E+04
  3.94493E+04 -9.34969E+03  3.26961E+04  2.25955E+04  1.63822E+04  4.38436E+04 -8.29119E+03  4.72270E+04
 -3.00077E+04  3.11414E+04 -3.90160E+04  9.44750E+03 -3.92665E+04 -1.43603E+04 -2.23030E+04 -3.48936E+04
  7.68700E+03 -3.60262E+04  3.00549E+04 -1.42172E+04  2.88525E+04  1.11615E+04  3.85962E+03  1.73767E+04
 -1.26116E+04  8.33582E+03 -1.00515E+04 -7.84001E+03  4.55063E+03 -1.01468E+04  1.74508E+04  6.38176E+03
  1.37449E+04  2.20402E+04 -5.82024E+03  2.36364E+04 -2.12931E+04  9.65317E+03 -2.58602E+04 -6.47374E+03
 -1.80172E+04 -1.64154E+04 -7.63892E+03 -1.85355E+04  4.47186E+03 -1.64607E+04  1.29633E+04 -1.73611E+04
  2.35963E+04 -1.08392E+04  2.88855E+04  2.33879E+03  2.26681E+04  1.72543E+04  3.61210E+03  3.40592E+04
 -1.57436E+04  2.82414E+04 -2.52548E+04  9.54958E+03 -2.05289E+04 -1.05140E+04 -4.62039E+03 -1.42586E+04
  2.56782E+03 -4.52121E+03 -3.47151E+03  6.37341E+03 -1.43865E+04  5.58630E+03 -1.43677E+04 -6.71671E+03
 -8.81979E+03 -1.55402E+04  4.67009E+03 -2.07124E+04  1.44575E+04 -1.46714E+04  1.64373E+04 -2.51018E+03
  8.80456E+03  1.26616E+04 -1.29442E+03  1.74464E+04 -1.15494E+04  8.26218E+03 -1.65782E+04 -4.01060E+03
 -1.20929E+04 -1.43060E+04 -1.96210E+03 -2.05315E+04  9.08546E+03 -1.72935E+04  1.64829E+04 -7.54665E+03
  1.50426E+04  7.87785E+02  1.15359E+04  5.12494E+03  5.74038E+03  9.97270E+02  7.19833E+03 -9.43227E+02
  1.49304E+04  2.53207E+03  1.61038E+04  1.42231E+04  1.05397E+04  2.55210E+04 -2.89517E+03  2.76303E+04
 -1.80163E+04  2.20349E+04 -2.75192E+04  1.16223E+04 -2.78429E+04 -2.18923E+03 -2.29300E+04 -1.56750E+04
 -1.13605E+04 -2.11702E+04  7.84645E+03 -2.18680E+04  1.74380E+04 -1.12694E+04  1.66207E+04  4.79219E+03
  6.34574E+03  1.23584E+04 -7.49518E+03  1.10450E+04 -1.49671E+04  3.10960E+03 -1.18076E+04 -8.04944E+03
  2.44616E+02 -1.42143E+04  6.18414E+03 -1.02574E+04  8.52573E+03 -8.99082E+02  1.29245E+03  6.25081E+03
 -5.19251E+03  2.19255E+03 -5.73915E+03 -4.97175E+03 -2.47085E+02 -1.02647E+04  7.17334E+03 -1.13091E+04
  1.27048E+04 -5.80424E+03  1.40788E+04  2.41385E+03  1.12057E+04  1.15008E+04  5.75891E+03  1.56973E+04
 -2.13798E+03  1.83148E+04 -1.14620E+04  1.10994E+04 -1.21823E+04  3.69106E+03 -9.77007E+03 -2.07378E+03
 -4.75222E+03 -3.64057E+03 -6.85298E+02  1.63668E+03 -1.74589E+03  1.68418E+03 -4.26156E+03  3.62663E+03
 -8.73221E+03 -2.59410E+02 -1.04118E+04 -7.35991E+03 -3.93511E+03 -1.19228E+04  4.21760E+03 -9.74665E+03
  7.41579E+03 -4.27110E+03  4.66308E+03  1.40731E+03 -1.64513E+02  2.59806E+03 -5.23855E+03 -1.16703E+03
 -4.14116E+03 -5.63143E+03  5.72948E+01 -9.36463E+03  5.49933E+03 -8.90782E+03  1.13045E+04 -4.63391E+03
  1.24184E+04  1.47215E+03  9.17623E+03  7.09663E+03  2.95210E+03  9.59423E+03 -6.98391E+03  9.81484E+03
 -8.21604E+03  3.18624E+03 -2.86987E+03 -1.66936E+03  1.43795E+03 -2.23172E+03  4.17284E+03 -1.46388E+03
  4.31756E+03  2.83590E+03  1.31131E+03  7.15143E+03 -4.75102E+03  7.36993E+03 -8.50270E+03  1.21404E+03
 -6.12513E+03 -3.22049E+03  4.75872E+01 -6.67238E+03  4.18528E+03 -4.15068E+03  4.31689E+03  1.22339E+03
  1.24608E+02  4.45523E+03 -4.36152E+03  4.86930E+03 -5.40663E+03  3.25845E+03 -5.28564E+03 -1.78701E+03
 -2.91615E+03 -8.28809E+03  1.73225E+03 -7.40441E+03  7.01193E+03 -4.42770E+03  7.28297E+03  1.85643E+03
  4.94619E+03  5.71090E+03  1.49836E+02  7.07770E+03 -5.40531E+03  3.96051E+03 -6.44582E+03 -4.64756E+02
 -6.19387E+03 -5.23602E+03 -2.36110E+03 -5.69385E+03  2.72363E+03 -5.62493E+03  2.93844E+03 -3.86083E+03
  2.96521E+03  4.54286E+02  2.25074E+02  1.21184E+03  9.91511E+02 -5.15367E+02  5.26778E+02 -1.66165E+03
  3.55565E+03 -1.72813E+03  6.10392E+03  7.68449E+02  6.40412E+03  4.15111E+03  5.90924E+03  8.07651E+03
 -1.31044E+03  1.03575E+04 -8.07588E+03  6.30406E+03 -1.09829E+04  1.56122E+03 -7.42048E+03 -3.40524E+03
 -5.93977E+03 -6.39395E+03  4.77715E+02 -5.62402E+03  2.63810E+03 -2.26813E+03  2.40215E+03 -2.08708E+03
  1.36599E+03 -1.13075E+03  1.79321E+03 -3.22472E+03  2.59280E+03 -1.73489E+03  3.92847E+03  5.35043E+02
  4.18534E+03  1.83385E+02  2.57456E+03  3.58940E+03 -1.58435E+03  3.55137E+03 -4.64781E+03  2.25572E+03
 -5.93480E+03 -6.03320E+02 -2.94359E+03 -3.66264E+03  5.30686E+02 -6.00964E+03  3.09676E+03 -5.96838E+03
  5.34658E+03 -3.53382E+03  7.44525E+03 -1.20234E+02  5.83217E+03  4.93019E+03  9.39643E+02  5.93998E+03
 -2.62494E+03  6.15002E+03 -3.60490E+03  2.10702E+03 -2.57571E+03 -1.21282E+03 -1.40422E+03 -1.11991E+03
 -1.44159E+03  8.93391E+02 -1.75216E+03  3.21311E+03 -3.06642E+03  6.21800E+02 -4.65544E+03 -5.65723E+02
 -2.57087E+03 -5.10592E+03  8.19840E+02 -5.70066E+03  2.22841E+03 -5.78584E+03  4.70557E+03 -2.14197E+03
  4.83443E+03  3.55190E+03  2.39037E+03  3.66235E+03 -6.61919E+02  5.86337E+03 -4.02938E+03  3.48444E+03
 -4.21447E+03  8.00274E+02 -3.47866E+03 -3.28828E+03 -1.02654E+03 -4.12374E+03  2.36247E+03 -3.18663E+03
  3.54390E+03 -1.37117E+03  2.48317E+03  1.67478E+03  6.51370E+02  1.70360E+03  6.42261E+02  1.84440E+02
  9.98315E+02  1.86020E+03  2.24748E+03  5.41273E+01  1.24365E+03  1.24895E+03  4.68277E+02  2.04210E+03
 -1.69673E+03  2.62082E+03 -3.45729E+03  4.13725E+03 -3.67983E+03 -1.06758E+02 -4.56150E+03 -9.43318E+02
 -1.92457E+03 -3.96597E+03  9.79780E+02 -6.42412E+03  1.70907E+03 -3.31786E+03  4.07808E+03  1.55219E+02
  3.84188E+03  1.93164E+03  8.60603E+02  2.49688E+03 -1.08630E+03  1.28031E+03 -8.94051E+02  3.99981E+02
 -1.40811E+03 -2.14288E+03  1.40673E+03 -7.97192E+02  1.74787E+03 -1.44105E+03  1.32236E+03  2.60210E+02
  6.39887E+02  6.04662E+02  1.22938E+02  4.18096E+02 -1.43250E+03  1.09145E+03  7.09943E+02 -7.07848E+02
  5.73794E+02 -1.59610E+02  3.30340E+03  6.21724E+02  3.90369E+02  2.33760E+03 -9.65987E+02  2.40173E+03
 -3.06225E+03  4.37711E+02 -2.24756E+03 -2.03275E+02 -2.19177E+03 -1.29917E+03  3.58742E+02 -2.10648E+03
  1.87413E+03 -6.13885E+02  1.28588E+03 -1.00238E+03  3.59192E+02  8.73125E+02  6.08527E+01  2.49719E+03
 -2.69089E+03  1.40236E+03 -4.61935E+02 -1.73074E+03 -1.30646E+03 -2.45196E+03  9.62354E+02 -8.82217E+02
  8.75887E+02 -5.72066E+02  1.65832E+03  2.56309E+02  9.73441E+02  8.39554E+02 -1.22030E+02 -1.18490E+02
  2.16769E+02 -1.04922E+03 -1.51531E+03 -1.73846E+02  8.03061E+02 -1.85851E+03  2.57436E+03 -8.78915E+02
  1.62569E+03  9.24683E+01  3.05601E+03  8.66436E+02  1.78266E+03  9.33172E+02 -1.23697E+03  2.95919E+03
 -1.98998E+03  7.21767E+01 -1.82597E+03 -8.98325E+02 -1.12074E+03 -1.99822E+02  1.23717E+02 -4.39182E+02
  1.90027E+03 -4.26556E+02  1.63410E+03  8.50011E+02 -4.90383E+02  1.36662E+03  1.52965E+02  9.18360E+02
 -8.37899E+02  9.91263E+02 -4.54314E+02 -3.15030E+02  3.85310E+02  6.14524E+01 -1.50097E+03  9.13692E+02
 -7.68632E+02  1.16986E+03 -1.75376E+03  8.37123E+02 -9.96423E+02 -8.33746E+02 -2.57329E+03 -4.92997E+02
 -7.64932E+02 -1.87411E+03 -3.98697E+01 -2.54438E+03  7.52508E+02 -2.51002E+03  2.78026E+03 -1.24924E+03
  2.45674E+03  1.99057E+02  1.12264E+03  9.74626E+02 -6.28984E+02  1.95477E+03 -2.26928E+02  1.11006E+03
 -8.82695E+02 -4.50980E+02 -1.17760E+03 -7.31779E+02 -1.32804E+03  3.56354E+00 -5.82661E+02 -5.74596E+02
 -9.97130E+02 -3.74139E+02 -9.90481E+02 -5.75253E+00 -4.96437E+02 -4.07292E+02  9.76407E+02 -1.39936E+03
  1.35791E+03  8.97539E+02  1.74028E+03  1.59913E+02  1.32008E+03  1.18866E+03 -6.68074E+02  5.01028E+02
 -7.24400E+02  2.36482E+03 -1.58002E+03  1.58306E+03 -1.61745E+03 -1.42493E+02 -1.37795E+03 -9.46077E+02
 -4.46026E+02 -2.68480E+03  7.88128E+02 -1.00518E+03  2.81836E+02 -9.91718E+02  7.02981E+02  4.25168E+01
  7.70506E+02  5.54585E+01  4.19604E+02  4.31987E+02 -7.68691E+02 -6.72379E+02  6.47494E+01  1.42863E+01
  7.06870E+02 -3.90924E+02  1.44918E+03  3.12341E+02 -7.60111E+02  4.09986E+02  4.98180E+01  1.28720E+02
 -1.14217E+03  1.85789E+03 -5.33197E+02 -9.51513E+02 -7.20993E+02 -1.41882E+02  3.62911E+02 -1.68105E+03
  5.72761E+02 -1.57930E+03  6.84644E+02 -4.85285E+02  1.34261E+03 -9.89722E+02  3.79690E+02  3.28082E+02
  6.13299E+02  1.13976E+03 -1.01440E+03  5.26351E+02  4.76918E+01  1.34909E+03 -1.72047E+03 -8.52420E+02
  2.97967E+02  1.98320E+02 -1.62660E+02  7.07191E+02 -1.05370E+03 -6.86319E+02 -4.90452E+02 -1.57858E+03
 -3.75041E+02 -5.11582E+02 -1.14824E+03 -7.57812E+02  6.77518E+02 -1.64586E+03  1.55698E+03 -3.23010E+02
  1.55582E+03 -8.09116E+02  1.90532E+02  5.26473E+02 -8.63514E+02  1.39000E+03 -6.89641E+02  2.83301E+02
