 $NMID ID='MM_0lb_SNR200_15hz_g45_24.RAW', FMTDAT='(8E13.5)'
 TRAMP=1., VOLUME=1. $END
  3.10283E+05 -3.01396E+01  3.37028E+05  2.50485E+05  8.43905E+04  3.38950E+05 -1.31913E+05  2.50563E+05
 -1.90725E+05  8.25024E+04 -1.11736E+05 -3.32153E+04  1.39809E+03 -4.97614E+04  5.36976E+04  1.25021E+02
  3.51267E+04  5.32933E+04 -1.55774E+04  7.48498E+04 -6.06601E+04  6.43079E+04 -8.41436E+04  3.16762E+04
 -7.98021E+04 -1.08206E+04 -5.66563E+04 -5.07898E+04 -1.54647E+04 -7.01068E+04  2.66872E+04 -4.51537E+04
  4.03406E+04  3.90370E+03  1.51990E+04  4.80699E+04 -3.43225E+04  4.62703E+04 -6.57707E+04 -3.84223E+02
 -5.28110E+04 -5.70200E+04 -6.98634E+03 -7.62600E+04  3.47100E+04 -5.44299E+04  4.68902E+04 -1.71917E+04
  4.23576E+04  1.21257E+04  3.17001E+04  2.54304E+04  1.58680E+04  2.82167E+04 -5.17801E+03  2.82217E+04
 -2.21989E+04  1.13888E+04 -1.80843E+04 -4.11827E+03  5.14424E+03 -7.47488E+03  2.17262E+04  1.11848E+04
  6.85837E+03  3.42582E+04 -3.20238E+04  3.49589E+04 -6.40439E+04  1.91811E+03 -5.70346E+04 -4.27584E+04
 -1.28226E+04 -6.25545E+04  3.89871E+04 -4.55085E+04  5.73379E+04 -2.33041E+03  3.45123E+04  3.19268E+04
 -6.09485E+03  3.60206E+04 -2.86454E+04  1.49638E+04 -2.86339E+04 -6.20551E+03 -1.57681E+04 -1.04195E+04
 -7.74286E+03 -1.19710E+04 -5.72710E+02 -1.79910E+04  7.36297E+03 -2.19156E+04  1.49306E+04 -1.35274E+04
  1.08920E+04  5.28365E+03 -8.12503E+03  1.36248E+04 -2.05842E+04 -2.04437E+03 -8.41267E+03 -3.26755E+04
  2.21676E+04 -4.23094E+04  4.68237E+04 -1.99152E+04  4.35674E+04  1.82921E+04  1.58145E+04  4.30483E+04
 -1.44381E+04  3.29902E+04 -2.44188E+04  1.31575E+03 -9.81500E+03 -2.70962E+04  2.14151E+04 -3.26821E+04
  4.02653E+04 -8.88789E+03  3.46855E+04  2.31300E+04  1.76727E+04  4.57819E+04 -7.11406E+03  4.84729E+04
 -3.18687E+04  3.22673E+04 -3.98592E+04  8.26770E+03 -4.29667E+04 -1.42543E+04 -2.23181E+04 -3.64715E+04
  6.87255E+03 -3.58173E+04  2.98495E+04 -1.45387E+04  2.88695E+04  9.69072E+03  2.43392E+03  1.82240E+04
 -1.37797E+04  8.78320E+03 -1.03324E+04 -7.83257E+03  5.96972E+03 -1.15353E+04  1.84219E+04  6.80787E+03
  1.33926E+04  2.23009E+04 -5.66202E+03  2.43048E+04 -2.25275E+04  1.00033E+04 -2.74862E+04 -5.15151E+03
 -1.98621E+04 -1.69265E+04 -7.22219E+03 -1.95321E+04  3.78629E+03 -1.74155E+04  1.53908E+04 -1.74704E+04
  2.41549E+04 -1.36375E+04  3.08053E+04  2.47346E+03  2.36553E+04  1.84017E+04  3.25581E+03  3.55757E+04
 -1.66936E+04  2.86727E+04 -2.65393E+04  9.24290E+03 -2.16109E+04 -1.07043E+04 -3.99050E+03 -1.29071E+04
  1.54589E+03 -3.01592E+03 -4.82839E+03  5.26218E+03 -1.46054E+04  5.30622E+03 -1.50724E+04 -5.58393E+03
 -9.34590E+03 -1.74278E+04  5.35066E+03 -2.16929E+04  1.49710E+04 -1.60690E+04  1.71063E+04 -1.99616E+03
  1.07222E+04  1.27629E+04 -1.34672E+03  1.73959E+04 -1.25873E+04  8.34956E+03 -1.80088E+04 -4.67136E+03
 -1.39551E+04 -1.65959E+04 -1.74154E+03 -2.16391E+04  9.80029E+03 -1.67854E+04  1.66239E+04 -8.34975E+03
  1.66998E+04 -1.41549E+03  1.26202E+04  4.85479E+03  5.87070E+03  3.40446E+02  9.01144E+03 -1.12630E+03
  1.66101E+04  3.24535E+03  1.80408E+04  1.44832E+04  1.10307E+04  2.94398E+04 -1.18785E+03  3.24139E+04
 -1.88736E+04  2.51019E+04 -2.90814E+04  1.34873E+04 -3.05103E+04 -2.45275E+03 -2.58560E+04 -1.85475E+04
 -1.07239E+04 -2.44216E+04  7.40448E+03 -2.25125E+04  1.90332E+04 -1.14573E+04  1.84423E+04  4.14661E+03
  6.75904E+03  1.36957E+04 -8.03617E+03  1.18253E+04 -1.51570E+04  2.19748E+03 -1.14872E+04 -9.75136E+03
 -5.34468E+01 -1.56679E+04  8.45038E+03 -1.14641E+04  9.76205E+03 -1.31812E+03  3.34403E+03  6.60402E+03
 -7.17946E+03  1.99102E+03 -4.25752E+03 -4.10970E+03 -4.20323E+02 -1.20602E+04  9.09987E+03 -1.27104E+04
  1.55992E+04 -6.15186E+03  1.58513E+04  3.35655E+03  1.46687E+04  1.19367E+04  6.00311E+03  1.78167E+04
 -2.06724E+03  2.04875E+04 -1.25755E+04  1.13827E+04 -1.44351E+04  2.44624E+03 -9.34878E+03 -2.06720E+03
 -3.67042E+03 -3.22605E+03 -3.16593E+02 -3.29286E+01 -2.57791E+03  3.45713E+03 -2.63141E+03  5.67320E+03
 -1.03230E+04 -4.73547E+02 -1.01258E+04 -8.80249E+03 -4.56378E+03 -1.42867E+04  4.02766E+03 -1.09907E+04
  8.68093E+03 -4.96528E+03  5.59892E+03  3.56876E+03 -9.10533E+01  3.49612E+03 -5.52061E+03 -8.44467E+02
 -4.90927E+03 -6.70189E+03 -1.63088E+03 -9.90212E+03  4.70561E+03 -1.02929E+04  1.25674E+04 -5.76301E+03
  1.45761E+04  1.18154E+02  1.23389E+04  8.63637E+03  1.89166E+03  1.11403E+04 -5.76639E+03  1.03167E+04
 -8.95730E+03  5.12781E+03 -3.55804E+03 -2.31508E+03  7.08271E+02 -2.67562E+03  4.68194E+03 -2.55961E+03
  5.44784E+03  6.03561E+03  1.38424E+03  7.94299E+03 -5.85027E+03  7.30144E+03 -9.27079E+03  2.17897E+03
 -5.80436E+03 -5.45113E+03  9.08543E+02 -8.43356E+03  4.43863E+03 -4.55799E+03  3.69253E+03  1.07154E+03
  8.25601E+02  5.99646E+03 -4.99303E+03  5.82742E+03 -7.91644E+03  3.45921E+03 -7.22452E+03 -2.70477E+03
 -5.45996E+03 -6.68783E+03  3.27012E+03 -9.72989E+03  7.77060E+03 -6.69132E+03  9.37574E+03  1.25286E+03
  5.17235E+03  7.28116E+03 -7.08600E+02  9.72388E+03 -6.15167E+03  5.38573E+03 -6.87942E+03 -3.54831E+02
 -7.50865E+03 -6.23372E+03 -1.21827E+03 -7.61546E+03  3.99730E+03 -6.57355E+03  3.34218E+03 -2.58152E+03
  3.12572E+03 -3.02579E+01 -5.98199E+02  1.51006E+03 -2.39291E+02 -2.02147E+03 -1.44610E+02 -2.62457E+03
  5.38015E+03 -1.34566E+03  8.34010E+03  1.17567E+03  7.46333E+03  5.49241E+03  5.88912E+03  9.53661E+03
 -2.80735E+03  1.21821E+04 -1.10425E+04  9.08989E+03 -1.41340E+04  2.26620E+03 -1.17095E+04 -4.07184E+03
 -3.52308E+03 -9.33430E+03  2.87010E-01 -7.51912E+03  3.46190E+03 -3.34126E+03  3.01597E+03 -1.71968E+03
  2.58388E+03 -1.22577E+03  1.96341E+03 -2.25911E+03  4.74800E+03 -2.59530E+03  5.04536E+03 -4.17496E+02
  6.15893E+03  1.20651E+03  2.81337E+03  4.31875E+03 -1.55946E+03  4.94413E+03 -5.37798E+03  4.31440E+03
 -7.80827E+03 -1.27924E+03 -4.02064E+03 -5.40876E+03 -3.91338E+02 -8.38992E+03  4.83677E+03 -8.95915E+03
  9.11243E+03 -6.02812E+03  9.02062E+03  5.72776E+02  6.42825E+03  6.28420E+03  1.32572E+03  9.31426E+03
 -3.10234E+03  8.99298E+03 -4.73153E+03  1.45598E+03 -3.73442E+03 -2.15454E+03 -1.68451E+03 -8.69114E+02
 -1.98897E+01  7.98976E+02 -9.59133E+02  2.56779E+03 -3.68636E+03  1.57078E+03 -5.75675E+03 -7.51086E+02
 -3.37989E+03 -5.64928E+03  2.15259E+02 -7.16513E+03  5.91013E+03 -7.22095E+03  5.89563E+03 -1.28668E+03
  5.99762E+03  3.30790E+03  3.22882E+03  5.53093E+03 -2.10207E+03  7.33588E+03 -4.46955E+03  4.21127E+03
 -6.29423E+03  1.31030E+03 -5.34972E+03 -3.21343E+03 -3.91252E+02 -4.44350E+03  3.72551E+03 -4.11372E+03
  3.50280E+03 -1.70560E+03  3.24868E+03  9.57494E+02 -4.42307E+02  2.96444E+03  1.46032E+03  7.26339E+02
  2.91034E+03 -5.01901E+02  2.02041E+03 -2.37252E+02  1.91751E+03  3.04599E+03  2.49091E+03  3.17300E+03
 -4.04313E+03  5.64217E+03 -4.08423E+03  6.24002E+03 -6.23728E+03  2.51152E+03 -6.90048E+03 -1.13010E+03
 -2.28541E+03 -7.60523E+03  7.04756E+02 -7.57080E+03  3.91698E+03 -3.75789E+03  5.95488E+03 -3.45064E+01
  2.75062E+03  2.80045E+03  4.73474E+01  4.16344E+03 -2.07202E+03  9.82435E+02 -2.76864E+03 -2.49883E+02
 -2.27742E+03 -2.53543E+03  1.07210E+03 -2.34337E+03  1.54893E+03 -1.74815E+03  2.32962E+03  7.04819E+02
  1.80886E+03 -4.19658E+02  7.69508E+01  3.88017E+02  3.84202E+02  1.75584E+03  9.47319E+02 -2.73602E+02
  7.63982E+02  9.13139E+02  3.11321E+03 -9.28482E+02  1.67889E+03  5.19991E+03 -1.97608E+03  4.22386E+03
 -3.11309E+03  2.06697E+03 -4.30125E+03  5.55378E+02 -3.20864E+03 -1.08244E+03 -6.59184E+02 -2.64769E+03
  6.79296E+02 -1.83013E+03  5.25967E+02 -1.04281E+03  1.70424E+03  2.29356E+03 -8.78450E+02  2.98606E+03
 -3.19499E+03  1.54216E+00 -2.02600E+03 -2.08039E+03 -1.80715E+03 -3.66131E+03  3.36192E+02 -2.99419E+03
  1.07145E+03 -1.19165E+03  2.36432E+03 -7.70731E+02  3.24694E+03 -6.34440E+02 -1.02437E+02  2.24489E+03
 -1.42380E+03 -2.64628E+02 -1.44686E+03 -1.25469E+03  1.16289E+03 -1.83814E+03  3.00860E+03 -2.08229E+03
  4.37655E+03  2.17517E+02  4.28988E+03  2.73664E+03  1.20694E+03  3.74241E+03 -1.50898E+03  3.67716E+03
 -2.71884E+03  1.79860E+03 -2.25146E+03  1.07356E+01 -9.86533E+02 -3.15069E+03  7.30085E+02 -7.48828E+02
  3.30374E+03 -1.20413E+03  3.18184E+03  9.24546E+02 -1.01500E+02  1.37608E+03 -1.82727E+02  1.58249E+03
  1.16079E+03  8.45711E+02 -1.12091E+03  7.27355E+02  4.38716E+02  5.01821E+02  4.21839E+02  2.79444E+02
 -2.30724E+03  2.60368E+03 -2.14945E+03  8.83191E+01 -3.16651E+03  9.44315E+02 -3.80875E+03 -3.24669E+03
 -9.83204E+02 -4.18678E+03  2.94156E+02 -5.75371E+03  2.47252E+03 -3.68001E+03  5.11808E+03 -1.18240E+03
  4.23596E+03  2.09084E+02  1.67131E+03  2.70456E+03 -8.66611E+02  3.26507E+03 -2.45875E+03  2.45860E+03
 -1.02410E+03  9.55560E+02 -1.71408E+03 -4.60976E+02 -7.45180E+02 -1.63266E+01 -5.91765E+02  5.20290E+02
 -2.34733E+03  6.40462E+02 -2.02294E+03  6.10418E+01 -5.27818E+02 -2.02931E+03  2.10451E+02 -1.93403E+03
  3.18116E+03 -4.54117E+02  7.37824E+02  3.78444E+02  1.79686E+03  9.33232E+02 -9.98917E+01  3.64818E+03
 -1.38460E+03  4.95197E+03 -3.31798E+03  1.94544E+03 -2.92679E+03 -2.73595E+02 -3.04682E+03 -1.27296E+03
 -1.94177E+03 -2.92150E+03  4.92926E+02 -2.91007E+03  5.57547E+02 -5.25780E+02  1.13164E+03  1.04288E+03
  1.31571E+03  5.10796E+02  8.04261E+02  1.00629E+03 -5.96290E+02 -7.48050E+02 -8.95870E+02 -1.10454E+03
  1.74879E+02  1.35401E+03  1.67998E+03  4.11660E+02  7.92536E+01  2.03696E+03  1.88413E+03  7.33382E+02
 -1.19840E+03  9.70087E+02 -2.38788E+03  4.13389E+02 -2.35650E+03 -4.42324E+02  5.46675E+02 -2.41288E+03
  1.10773E+03 -1.74815E+03  1.09869E+03 -8.69335E+02  2.70873E+03  1.88484E+01 -4.69551E+02  1.43551E+03
 -9.22558E+01  1.36617E+03  1.12218E+02  3.03674E+02 -1.57359E+03  1.63528E+03 -9.49883E+02 -2.54198E+02
  8.60560E+01  7.58327E+01 -1.30063E+03  4.65721E+02 -1.42901E+03 -6.68526E+01 -3.65079E+02 -2.46968E+02
 -9.11850E+02 -4.68683E+02 -7.35068E+02 -1.09260E+03  1.99840E+03 -1.49573E+03  6.87754E+02 -5.39678E+02
  2.04228E+03  5.27525E+02  8.83530E+02  1.22018E+03  7.74013E+02  2.68330E+03 -9.94939E+02  1.59415E+03
