 $NMID ID='MM_0lb_SNR200_13hz_g60_83.RAW', FMTDAT='(8E13.5)'
 TRAMP=1., VOLUME=1. $END
  3.10889E+05 -1.28716E+02  3.38651E+05  2.50259E+05  8.52510E+04  3.38031E+05 -1.33389E+05  2.50510E+05
 -1.92767E+05  8.21054E+04 -1.12683E+05 -3.24109E+04  1.46643E+03 -5.01356E+04  5.39671E+04 -4.89300E+02
  3.42710E+04  5.27804E+04 -1.68437E+04  7.56778E+04 -5.99498E+04  6.33532E+04 -8.46140E+04  3.26378E+04
 -8.31235E+04 -1.12345E+04 -5.81745E+04 -5.07710E+04 -1.53156E+04 -7.13239E+04  2.85137E+04 -4.59379E+04
  4.07947E+04  4.10966E+03  1.58458E+04  4.79518E+04 -3.43439E+04  4.81562E+04 -6.76642E+04 -7.96963E+02
 -5.42746E+04 -5.76009E+04 -6.24904E+03 -7.75891E+04  3.57479E+04 -5.62061E+04  4.96388E+04 -1.80698E+04
  4.48736E+04  1.19736E+04  3.18999E+04  2.69604E+04  1.47441E+04  3.03289E+04 -5.96673E+03  2.71825E+04
 -2.15813E+04  1.28133E+04 -1.83871E+04 -4.48554E+03  5.43160E+03 -8.12539E+03  2.24527E+04  1.32452E+04
  7.24075E+03  3.75330E+04 -3.32439E+04  3.65138E+04 -6.40136E+04  2.09765E+03 -5.83489E+04 -4.39813E+04
 -1.24546E+04 -6.54777E+04  4.08271E+04 -4.68731E+04  6.00288E+04 -2.70334E+03  3.65731E+04  3.33286E+04
 -7.08898E+03  3.86461E+04 -3.10710E+04  1.84091E+04 -3.23835E+04 -3.54261E+03 -1.91804E+04 -1.09676E+04
 -9.06477E+03 -1.45957E+04 -1.06854E+03 -1.84107E+04  8.31780E+03 -2.23042E+04  1.51909E+04 -1.25274E+04
  1.05512E+04  6.59470E+03 -8.71905E+03  1.29775E+04 -2.12591E+04 -6.54217E+03 -8.40933E+03 -3.59892E+04
  2.40039E+04 -4.47751E+04  4.94940E+04 -2.08666E+04  4.77851E+04  1.86839E+04  1.68971E+04  4.53456E+04
 -1.48070E+04  3.55385E+04 -2.65559E+04  1.79520E+03 -1.11761E+04 -2.91996E+04  2.06435E+04 -3.56443E+04
  4.30961E+04 -1.11731E+04  3.87257E+04  2.41855E+04  1.81104E+04  4.82267E+04 -7.48496E+03  5.26556E+04
 -3.49764E+04  3.59559E+04 -4.58260E+04  1.06609E+04 -4.57921E+04 -1.70377E+04 -2.29692E+04 -3.99098E+04
  6.40001E+03 -4.06562E+04  3.26282E+04 -1.69105E+04  3.02415E+04  1.12408E+04  4.11814E+03  1.92920E+04
 -1.44226E+04  9.41774E+03 -1.11071E+04 -7.47187E+03  6.86984E+03 -1.05928E+04  1.82786E+04  5.47226E+03
  1.45967E+04  2.16616E+04 -5.47616E+03  2.57886E+04 -2.26502E+04  1.21983E+04 -2.89878E+04 -2.52244E+03
 -2.35852E+04 -1.75753E+04 -1.10497E+04 -2.23700E+04  4.83212E+03 -2.26313E+04  1.85954E+04 -2.12481E+04
  2.88938E+04 -1.35669E+04  3.54584E+04  3.37262E+03  2.55101E+04  2.23130E+04  4.19060E+03  3.93616E+04
 -1.84134E+04  3.29598E+04 -2.94326E+04  1.17640E+04 -2.19996E+04 -9.53412E+03 -3.11033E+03 -1.33623E+04
  1.56015E+03 -1.53476E+03 -5.47546E+03  8.01700E+03 -1.76792E+04  5.18933E+03 -1.85835E+04 -7.51214E+03
 -1.05860E+04 -2.15591E+04  5.25444E+03 -2.63504E+04  1.74283E+04 -1.70144E+04  2.03117E+04 -2.59735E+03
  1.20172E+04  1.44634E+04 -2.19301E+03  2.16420E+04 -1.50856E+04  1.27534E+04 -2.04338E+04 -5.10151E+03
 -1.45338E+04 -1.84507E+04 -1.43924E+03 -2.56618E+04  1.32837E+04 -2.03482E+04  1.93406E+04 -1.00686E+04
  1.97624E+04 -1.60976E+02  1.50511E+04  5.13977E+03  7.05026E+03  5.51997E+02  1.09083E+04 -1.89443E+03
  1.89136E+04  3.00597E+03  2.27112E+04  1.64419E+04  1.40503E+04  3.34170E+04 -2.19789E+03  3.88758E+04
 -2.33022E+04  3.22282E+04 -3.54915E+04  1.45082E+04 -3.80035E+04 -1.94057E+03 -3.28747E+04 -2.07937E+04
 -1.21367E+04 -3.18748E+04  1.02026E+04 -2.84277E+04  2.33358E+04 -1.39712E+04  2.15541E+04  7.49207E+03
  7.82388E+03  1.70564E+04 -9.86712E+03  1.49713E+04 -1.73126E+04  2.68867E+03 -1.39497E+04 -1.13432E+04
 -1.07076E+03 -1.62292E+04  8.34093E+03 -1.26783E+04  1.13891E+04 -1.15966E+03  3.10463E+03  7.56333E+03
 -6.29142E+03  2.96082E+03 -7.46155E+03 -5.38345E+03 -1.02920E+03 -1.56076E+04  1.03086E+04 -1.66678E+04
  1.89964E+04 -9.18866E+03  2.15481E+04  3.23864E+03  1.93404E+04  1.59067E+04  8.47078E+03  2.37403E+04
 -3.61492E+03  2.52319E+04 -1.61077E+04  1.60546E+04 -1.92452E+04  4.42782E+03 -1.29129E+04 -3.62291E+03
 -4.76893E+03 -5.04539E+03 -7.38750E+02  7.93303E+02 -3.66368E+03  4.02051E+03 -6.02633E+03  3.82465E+03
 -1.12834E+04 -2.18978E+02 -1.32332E+04 -1.05072E+04 -5.12924E+03 -1.65771E+04  5.19405E+03 -1.36470E+04
  1.11488E+04 -5.25577E+03  6.80851E+03  3.83664E+03  4.87139E+02  4.53957E+03 -6.86282E+03 -9.05484E+02
 -6.78134E+03 -9.00435E+03 -1.65215E+02 -1.21403E+04  8.24432E+03 -1.12402E+04  1.68581E+04 -6.75979E+03
  1.97753E+04  1.81193E+03  1.36940E+04  1.08158E+04  1.78406E+03  1.47563E+04 -7.38930E+03  1.28187E+04
 -1.02789E+04  4.13197E+03 -4.72897E+03 -2.43450E+03  2.89031E+03 -3.16169E+03  6.04328E+03 -4.81514E+02
  6.23018E+03  7.45900E+03  1.06964E+03  1.17394E+04 -6.27109E+03  9.70252E+03 -1.29064E+04  1.86241E+03
 -6.98910E+03 -6.25459E+03 -5.04703E+02 -1.16404E+04  6.49922E+03 -5.60843E+03  6.41025E+03  2.46473E+03
  6.56954E+02  7.59261E+03 -6.97116E+03  8.29753E+03 -1.05909E+04  4.75897E+03 -9.99977E+03 -3.87515E+03
 -6.84053E+03 -1.05598E+04  3.09124E+03 -1.38571E+04  1.16796E+04 -9.58814E+03  1.32432E+04  2.59272E+03
  7.73057E+03  1.12112E+04 -1.38876E+03  1.14477E+04 -1.04846E+04  6.58556E+03 -7.73024E+03 -1.09037E+03
 -8.57640E+03 -8.91159E+03 -9.22834E+02 -8.37537E+03  5.10641E+03 -7.54984E+03  5.82874E+03 -3.78335E+03
  3.17167E+03  7.77685E+02 -9.97193E+02  1.23529E+03  1.93710E+02 -2.76609E+03  1.70045E+03 -5.06346E+03
  7.32348E+03 -4.88836E+03  1.08273E+04  2.26198E+03  1.18959E+04  6.70841E+03  7.72892E+03  1.52983E+04
 -2.37582E+03  1.76602E+04 -1.48899E+04  1.24187E+04 -1.98377E+04  2.58252E+03 -1.39555E+04 -5.51064E+03
 -9.88324E+03 -1.33050E+04 -5.33709E+02 -1.03537E+04  3.19075E+03 -6.97600E+03  3.69595E+03 -4.32676E+03
  3.63058E+03 -1.75206E+03  3.26826E+03 -4.86099E+03  4.17055E+03 -1.87316E+03  6.55627E+03 -1.39436E+03
  8.09403E+03  1.79063E+03  3.70771E+03  8.28781E+03 -3.19653E+03  6.83228E+03 -8.46924E+03  6.25809E+03
 -1.18906E+04 -7.86765E+02 -5.17570E+03 -8.34993E+03 -5.99976E+02 -1.12411E+04  6.48578E+03 -1.04031E+04
  1.11058E+04 -6.95636E+03  1.51121E+04  1.60136E+03  9.47784E+03  9.16334E+03  1.38977E+03  1.22311E+04
 -6.06344E+03  1.00600E+04 -6.87282E+03  2.82956E+03 -4.21258E+03 -2.26368E+03 -6.70550E+02 -1.31506E+03
 -2.05444E+03  5.67969E+02 -2.16300E+03  1.09687E+03 -4.80371E+03  3.47384E+03 -6.46787E+03  7.46565E+02
 -2.88472E+03 -8.03688E+03  3.97575E+02 -1.03395E+04  6.37810E+03 -9.74839E+03  8.77329E+03 -3.77470E+03
  9.83326E+03  4.23715E+03  3.95112E+03  9.51681E+03 -1.20900E+02  9.14686E+03 -5.06876E+03  6.55503E+03
 -9.03112E+03  2.60065E+02 -6.51523E+03 -6.49232E+03 -1.85577E+03 -8.54527E+03  4.75420E+03 -5.76763E+03
  6.11416E+03 -2.86804E+03  3.72521E+03  2.14511E+03  1.40234E+03  2.10659E+03  1.28005E+03  1.48286E+03
  1.46452E+03  1.50166E+03  1.60668E+03  1.54589E+03  3.54224E+03  4.59295E+03  3.30289E+03  4.50321E+03
 -2.28146E+03  7.12329E+03 -6.44754E+03  9.70672E+03 -9.16294E+03  1.59245E+03 -1.11488E+04 -3.15733E+03
 -3.47247E+03 -9.54496E+03  1.58105E+03 -1.08708E+04  4.56970E+03 -6.21489E+03  8.33996E+03 -2.12278E+03
  6.18644E+03  3.74674E+03  7.74648E+02  4.49787E+03 -3.23573E+03  3.28066E+03 -4.57542E+03 -8.87670E+02
 -2.27200E+03 -4.12869E+03  3.31690E+03 -2.80705E+03  3.82456E+03 -2.43097E+03  3.55514E+03  5.22061E+02
  2.33577E+03  8.70937E+02  1.42069E+03  1.12266E+03 -1.08358E+03  2.52622E+03  1.48376E+03 -9.69195E+02
  1.94562E+03 -6.90227E+02  3.83314E+03  1.65260E+03  2.59960E+03  5.34445E+03 -1.17261E+03  5.93945E+03
 -2.85508E+03  2.72529E+03 -5.26918E+03  2.84128E+02 -5.17089E+03 -2.27749E+03 -2.31013E+03 -3.27541E+03
 -1.39056E+02 -3.64542E+03  2.36403E+03 -2.19160E+03  2.07491E+03  2.43548E+03 -1.17556E+03  2.80860E+03
 -2.22859E+03  1.59867E+03 -3.99630E+03 -1.08773E+03 -2.54772E+03 -5.22952E+03  1.55657E+03 -5.23931E+03
  3.29337E+03 -1.82812E+03  3.08829E+03  4.06693E+02  3.12699E+03  1.55936E+03  7.83235E+02  2.70629E+03
 -1.98398E+03  1.38774E+03 -3.46716E+03 -9.27400E+02  8.63742E+02 -2.79120E+03  5.59866E+03 -3.56580E+03
  5.10593E+03  1.39401E+03  5.82306E+03  3.38862E+03  1.29956E+03  5.07417E+03 -2.24333E+03  5.35931E+03
 -4.88174E+03  2.48559E+03 -5.41116E+03 -1.92689E+03 -1.34173E+03 -2.69001E+03  1.27544E+03 -3.47557E+03
  2.76379E+03 -6.89243E+02  2.18005E+03  2.13813E+03  1.27394E+03  3.32202E+03 -1.15252E+02  2.57945E+03
 -1.68513E+03  1.56953E+03 -1.76451E+03  1.69320E+03 -8.90977E+02  1.75360E+02  1.41155E+02  1.93226E+02
 -4.88992E+02  1.63368E+03 -5.12611E+03  1.38022E+03 -6.07416E+03  1.22622E+03 -5.93583E+03 -4.68520E+03
 -2.42607E+03 -6.22581E+03  1.13162E+03 -8.49274E+03  4.19428E+03 -7.43646E+03  8.17745E+03 -3.10474E+03
  6.76818E+03  8.20666E+02  4.92098E+03  4.21946E+03 -8.29920E+02  5.84659E+03 -2.05662E+03  4.62740E+03
 -3.33470E+03  3.13182E+02 -1.15819E+03 -3.90974E+02 -1.25798E+03 -2.18094E+02 -7.97067E+02 -8.50080E+02
 -2.15012E+03 -1.85562E+03 -1.27087E+03 -6.74389E+01 -1.42594E+02 -2.53497E+03 -1.32929E+03 -2.53942E+03
  2.50031E+03 -1.97440E+03  2.85223E+03  1.49838E+02  3.30426E+03  3.80449E+03  1.15141E+03  5.52436E+03
 -2.51596E+03  7.21820E+03 -4.84303E+03  2.62582E+03 -5.50172E+03 -7.21655E+02 -5.62095E+03 -3.85486E+03
 -2.86762E+03 -4.62563E+03  1.68590E+03 -4.27612E+03  3.42011E+03 -2.73451E+03  2.85165E+03  5.11545E+02
  1.86345E+03  1.38937E+03  3.43461E+02  4.64016E+02 -2.58818E+02  4.20197E+02  2.69623E+02 -2.27223E+03
  2.01823E+03 -1.47058E+03  3.03158E+03  1.02683E+03  1.64139E+03  1.83832E+03  8.07259E+02  2.56806E+03
 -2.12894E+03  1.22706E+03 -2.78881E+03  4.71382E+02 -1.78290E+03 -6.64970E+02 -9.77681E+02 -3.76177E+03
  2.86997E+03 -2.32102E+03  2.40773E+03 -1.69647E+03  4.28759E+03  1.57284E+03  2.33872E+03  4.02196E+03
  1.00344E+03  3.86934E+03 -1.46949E+03  1.80587E+03 -1.93372E+03  2.39397E+03 -2.17903E+03  2.12151E+01
 -7.28658E+02 -3.81540E+02 -2.81897E+03 -3.05088E+02 -8.97138E+02  1.89235E+03 -2.68487E+03 -1.02794E+03
 -1.94060E+03  1.02684E+02 -1.10109E+03 -3.19371E+03  2.01675E+03 -5.31279E+03  2.73905E+03 -1.81398E+03
  2.71703E+03  3.78682E+02  1.24454E+03  1.62505E+03  4.16054E+02  3.13911E+03 -2.58336E+03  2.17404E+03
