 $NMID ID='MM_0lb_SNR200_14hz_g50_51.RAW', FMTDAT='(8E13.5)'
 TRAMP=1., VOLUME=1. $END
  3.10189E+05 -2.86694E+02  3.38008E+05  2.50782E+05  8.32515E+04  3.38218E+05 -1.32977E+05  2.51195E+05
 -1.90312E+05  8.41461E+04 -1.11348E+05 -3.32631E+04  1.52098E+03 -5.01061E+04  5.36343E+04  1.20116E+03
  3.55472E+04  5.31150E+04 -1.77884E+04  7.57681E+04 -6.14603E+04  6.31719E+04 -8.54556E+04  3.21683E+04
 -7.96199E+04 -1.02995E+04 -5.74548E+04 -5.10715E+04 -1.48878E+04 -6.92311E+04  2.72293E+04 -4.55819E+04
  4.00284E+04  2.98016E+03  1.59477E+04  4.74092E+04 -3.46611E+04  4.77773E+04 -6.76601E+04 -2.31398E+02
 -5.40945E+04 -5.78969E+04 -5.86402E+03 -7.79930E+04  3.27887E+04 -5.46206E+04  4.80187E+04 -1.83342E+04
  4.27565E+04  1.10051E+04  3.09637E+04  2.61316E+04  1.53212E+04  2.92990E+04 -5.02531E+03  2.69269E+04
 -2.32966E+04  1.22950E+04 -1.88014E+04 -6.04802E+03  6.05003E+03 -6.49274E+03  2.22264E+04  1.30571E+04
  6.76483E+03  3.55361E+04 -3.11462E+04  3.49458E+04 -6.37285E+04  3.00276E+03 -5.67772E+04 -4.23680E+04
 -1.21330E+04 -6.36512E+04  4.11314E+04 -4.54917E+04  5.76457E+04 -3.10348E+03  3.49248E+04  3.28641E+04
 -5.61589E+03  3.63993E+04 -2.98615E+04  1.62230E+04 -3.04724E+04 -5.60044E+03 -1.75688E+04 -1.07581E+04
 -7.83849E+03 -1.23086E+04  4.31952E+01 -1.80455E+04  7.61677E+03 -2.31344E+04  1.53711E+04 -1.42240E+04
  1.20621E+04  5.24221E+03 -7.73045E+03  1.18532E+04 -2.15040E+04 -5.28397E+03 -7.16052E+03 -3.34824E+04
  2.37415E+04 -4.45245E+04  4.80609E+04 -1.85224E+04  4.57582E+04  1.84671E+04  1.71952E+04  4.45322E+04
 -1.64481E+04  3.31385E+04 -2.47975E+04  2.36527E+03 -1.09224E+04 -2.79877E+04  2.06523E+04 -3.37286E+04
  4.14523E+04 -9.15945E+03  3.51435E+04  2.28427E+04  1.85207E+04  4.75484E+04 -8.24158E+03  4.99272E+04
 -3.14005E+04  3.36756E+04 -4.23031E+04  9.41947E+03 -4.18656E+04 -1.64855E+04 -2.37349E+04 -3.84189E+04
  7.54250E+03 -3.81287E+04  3.16392E+04 -1.41985E+04  2.98586E+04  1.14367E+04  3.62465E+03  1.94168E+04
 -1.30861E+04  7.70374E+03 -9.36796E+03 -7.54467E+03  6.04059E+03 -1.27926E+04  1.88000E+04  6.12726E+03
  1.39009E+04  2.17362E+04 -5.97122E+03  2.50617E+04 -2.15659E+04  1.08327E+04 -2.86205E+04 -4.35283E+03
 -2.04963E+04 -1.61302E+04 -8.50171E+03 -2.04534E+04  4.17118E+03 -2.01225E+04  1.60168E+04 -1.77012E+04
  2.59571E+04 -1.19464E+04  3.26837E+04  2.84491E+03  2.37086E+04  1.97316E+04  3.88949E+03  3.72997E+04
 -1.87627E+04  3.01666E+04 -2.79720E+04  1.00325E+04 -2.07725E+04 -9.69173E+03 -4.47634E+03 -1.43824E+04
  1.64891E+03 -3.22070E+03 -5.46411E+03  6.80050E+03 -1.52403E+04  5.25395E+03 -1.71769E+04 -7.05900E+03
 -1.01532E+04 -1.91083E+04  3.88520E+03 -2.31599E+04  1.39104E+04 -1.67027E+04  1.80880E+04 -1.94916E+03
  1.24870E+04  1.32569E+04 -2.50845E+02  1.91298E+04 -1.28099E+04  1.06545E+04 -1.84232E+04 -2.93316E+03
 -1.32367E+04 -1.67029E+04 -5.30551E+02 -2.32405E+04  1.07641E+04 -2.00468E+04  1.95501E+04 -1.02438E+04
  1.73801E+04  1.24702E+03  1.23236E+04  3.92903E+03  6.48319E+03  8.76959E+02  9.08883E+03 -7.45846E+02
  1.75280E+04  3.38308E+03  1.94272E+04  1.61412E+04  1.40049E+04  2.98807E+04 -3.66610E+03  3.46708E+04
 -2.09144E+04  2.77063E+04 -3.14624E+04  1.37241E+04 -3.36030E+04 -2.89014E+03 -2.83516E+04 -1.94510E+04
 -1.21793E+04 -2.75415E+04  9.94726E+03 -2.57935E+04  2.00926E+04 -1.29117E+04  2.17665E+04  5.67612E+03
  7.47255E+03  1.44680E+04 -8.25417E+03  1.33361E+04 -1.60261E+04  2.42998E+03 -1.36618E+04 -9.76762E+03
 -7.83318E+02 -1.53877E+04  7.69761E+03 -9.70173E+03  9.33650E+03 -1.41321E+03  2.20130E+03  6.52563E+03
 -6.37085E+03  2.43950E+03 -5.05174E+03 -5.69826E+03  8.61138E+01 -1.49900E+04  8.84844E+03 -1.43498E+04
  1.58113E+04 -7.13896E+03  1.72508E+04  3.76093E+03  1.49554E+04  1.40457E+04  6.97450E+03  2.08459E+04
 -3.40337E+03  2.24472E+04 -1.39047E+04  1.36874E+04 -1.45379E+04  3.41818E+03 -1.15293E+04 -3.49301E+03
 -5.52009E+03 -4.07997E+03 -1.64076E+03  4.10831E+02 -2.23937E+03  3.17767E+03 -5.90393E+03  6.07246E+03
 -9.67940E+03 -1.09053E+03 -1.13154E+04 -9.46596E+03 -3.49001E+03 -1.43818E+04  4.82207E+03 -1.03517E+04
  7.92362E+03 -5.30493E+03  6.89350E+03  3.04563E+03  2.45746E+02  4.23902E+03 -5.57714E+03 -2.05094E+02
 -5.42360E+03 -6.84274E+03 -4.71115E+02 -9.83254E+03  5.96093E+03 -1.17378E+04  1.36906E+04 -5.75356E+03
  1.71709E+04  9.51629E+02  1.28140E+04  9.63858E+03  1.99447E+03  1.36904E+04 -7.16236E+03  1.15556E+04
 -8.57638E+03  2.20039E+03 -4.45747E+03 -2.53025E+03  2.70235E+03 -3.38483E+03  6.49808E+03 -1.88263E+02
  5.41197E+03  5.38792E+03  2.10192E+03  9.83181E+03 -5.03508E+03  7.48372E+03 -1.17984E+04  6.62526E+02
 -6.23776E+03 -5.77242E+03  5.14762E+02 -8.96885E+03  5.25373E+03 -4.84071E+03  5.60539E+03  2.95153E+03
  1.50519E+03  6.02622E+03 -6.57091E+03  7.07796E+03 -8.75236E+03  3.52652E+03 -8.54722E+03 -3.74663E+03
 -6.91816E+03 -1.01781E+04  2.71936E+03 -1.09662E+04  1.04818E+04 -7.27194E+03  1.10791E+04  1.90718E+03
  7.01997E+03  8.56218E+03  1.72389E+02  1.05483E+04 -8.87660E+03  7.01931E+03 -8.49679E+03  1.90087E+03
 -6.42680E+03 -8.20648E+03 -1.09563E+03 -8.00765E+03  4.67441E+03 -6.61387E+03  5.34488E+03 -2.86065E+03
  2.74572E+03  2.38413E+02  8.77486E+00 -2.70787E+02  1.35570E+03 -7.88237E+02  9.52737E+02 -4.46070E+03
  6.64976E+03 -1.59255E+03  8.45090E+03  1.24923E+03  9.07206E+03  5.65894E+03  7.05789E+03  1.23097E+04
 -8.96135E+02  1.41596E+04 -1.29039E+04  9.73151E+03 -1.52819E+04  2.11296E+03 -1.30518E+04 -4.95415E+03
 -5.90413E+03 -9.47697E+03  9.89888E+02 -8.81970E+03  2.92015E+03 -2.71199E+03  3.06409E+03 -3.65166E+03
  2.22724E+03 -1.61004E+03  4.04973E+03 -3.15040E+03  4.06518E+03 -3.24307E+03  5.40045E+03  1.38085E+03
  6.31731E+03  2.46007E+03  2.39910E+03  5.58328E+03 -9.54488E+02  5.68979E+03 -5.80998E+03  4.03029E+03
 -8.30634E+03 -8.31135E+02 -4.84380E+03 -5.50485E+03 -7.54995E+02 -1.02013E+04  5.57215E+03 -8.76730E+03
  8.93726E+03 -3.55678E+03  1.17292E+04  7.01135E+02  8.62775E+03  7.07866E+03  7.46920E+02  9.97598E+03
 -3.58657E+03  8.87164E+03 -5.85295E+03  2.67903E+03 -3.16808E+03 -2.59346E+00 -2.41815E+03 -1.56690E+03
 -1.21849E+03 -7.10102E+02 -2.24060E+03  2.84347E+03 -4.25308E+03  6.58698E+02 -5.40952E+03 -1.13732E+03
 -3.80915E+03 -6.03072E+03  1.58690E+03 -8.81348E+03  5.44028E+03 -7.54998E+03  6.97017E+03 -2.40859E+03
  7.85656E+03  3.24626E+03  3.33095E+03  6.91471E+03 -2.53198E+03  7.65006E+03 -4.72674E+03  5.12836E+03
 -7.61409E+03  5.86411E+02 -7.07406E+03 -4.61768E+03 -3.56975E+02 -6.24479E+03  4.05984E+03 -5.51131E+03
  5.93556E+03 -2.76098E+03  3.94494E+03  3.03508E+02  6.93487E+02  2.81991E+03  6.97036E+02  9.27214E+02
  2.47680E+03  1.12501E+03  2.08901E+03  5.78928E+02  1.51945E+03  2.90073E+03  1.41419E+03  4.68476E+03
 -1.69509E+03  6.20821E+03 -5.81788E+03  5.75948E+03 -7.66839E+03  2.11232E+03 -7.61433E+03 -2.48924E+03
 -3.22913E+03 -7.42288E+03  1.50179E+03 -1.02051E+04  4.76825E+03 -6.30257E+03  4.46576E+03 -1.56761E+03
  4.79453E+03  2.71924E+03  1.20015E+03  4.80992E+03 -1.24299E+03  2.89392E+03 -2.90878E+03 -4.65734E+02
  2.06023E+02 -3.15266E+03  2.91954E+03 -2.44801E+03  3.42825E+03 -1.97137E+03  2.89822E+03  5.00676E+02
  1.07951E+03  1.27947E+03  1.12579E+03  2.07298E+03 -1.09973E+03  1.81266E+03  1.40244E+03  1.02508E+03
  5.03334E+02 -1.34058E+02  3.68003E+03  1.48471E+03  2.87923E+03  4.09159E+03 -4.85993E+02  5.28683E+03
 -4.35543E+03  1.55821E+03 -3.96401E+03  6.04453E+01 -3.80595E+03 -1.74066E+03 -1.33006E+03 -1.97154E+03
  5.16174E+02 -3.82974E+03  1.95265E+03 -1.45187E+03  3.22332E+03  1.04610E+03 -1.09889E+03  2.52034E+03
 -3.40791E+03  1.54787E+02 -4.45881E+03 -1.90696E+03 -2.51496E+03 -3.33710E+03  7.96035E+01 -4.33230E+03
  1.83521E+03 -3.09635E+03  2.22061E+03 -4.17900E+02  2.27124E+03  8.55249E+02  2.98934E+02  2.10657E+03
 -9.02124E+01 -1.92818E+03 -2.56351E+02 -8.63657E+02  5.82013E+02 -2.99155E+03  3.45185E+03 -1.81198E+03
  3.72861E+03 -7.89438E+02  4.56442E+03  1.84439E+03 -7.79546E+01  4.31008E+03 -2.36129E+03  4.05308E+03
 -2.48222E+03  9.81086E+02 -3.89769E+03 -5.64803E+02 -1.27169E+03 -3.73968E+03  8.87886E+02 -1.09471E+03
  2.74620E+03 -6.54878E+02  1.90407E+03  1.98568E+03  8.85004E+01  1.87296E+03  1.22926E+02  3.37768E+03
 -9.29234E+02  2.31944E+03 -1.28734E+03 -2.28545E+02 -1.11267E+03  1.21864E+03 -2.13317E+03  1.28856E+03
 -1.06198E+03  1.95853E+03 -3.53361E+03  1.87047E+03 -3.70757E+03 -3.50787E+02 -4.88777E+03 -2.66460E+03
 -3.13136E+03 -5.38370E+03  1.81604E+03 -6.41952E+03  4.83369E+03 -5.11830E+03  5.33897E+03 -2.18272E+03
  5.88370E+03  7.17425E+02  4.15280E+03  2.90235E+03  7.81376E+02  3.10660E+03 -1.46396E+03  2.08190E+03
 -2.65105E+03  2.05730E+03 -2.32659E+03 -1.10683E+03 -1.71158E+03  6.32713E+02 -1.26509E+03  1.93372E+02
 -1.25591E+03  1.19237E+01 -1.51242E+03  5.13207E+02  1.52238E+03  8.09889E+02 -3.45608E+02 -2.75256E+03
  3.26753E+03 -2.92578E+03  2.73720E+03  1.17457E+03  1.86210E+03  2.62151E+03  5.94384E+02  4.26127E+03
 -8.07998E+02  5.41733E+03 -3.41405E+03  2.51427E+03 -3.97802E+03  1.47229E+02 -2.12137E+03 -2.71584E+03
 -1.38199E+03 -3.56599E+03  2.38613E+02 -3.78276E+03  1.69120E+03 -1.12883E+03  2.72380E+03  1.06104E+02
  1.65702E+03  5.45470E+02 -2.93317E+01  1.02764E+03  1.16187E+02  1.15601E+02 -3.47602E+01 -4.03797E+02
  3.55005E+01 -5.70568E+02  9.29028E+02  9.17901E+02  2.02082E+02  1.58263E+03 -9.63980E+02  4.69193E+02
 -1.19051E+03  1.09547E+03 -2.63218E+03  5.26880E+02 -1.87401E+03 -1.80132E+03 -3.88214E+02 -3.51462E+03
  1.26533E+03 -2.98962E+03  3.71456E+03 -1.68697E+03  2.00758E+03 -6.18848E+02  7.57935E+02  2.47160E+03
 -1.73668E+02  1.89214E+03 -1.42122E+03  2.09624E+03 -1.09240E+03  3.63445E+02 -1.57203E+03  1.61398E+03
  1.31598E+02 -1.68176E+02  5.48359E+01 -1.06999E+03 -1.29623E+03  1.36911E+03 -1.16823E+03 -3.59593E+01
 -2.34320E+03 -1.06428E+03 -4.73218E+02 -2.30815E+03  5.58306E+02 -3.13627E+03  1.10784E+03 -1.67892E+03
  2.26272E+03  2.60540E+02 -3.62950E+02  1.52504E+03 -5.73775E+02  2.48175E+03 -1.77258E+03  2.09044E+03
