 $NMID ID='MM_0lb_SNR200_7hz_g55_96.RAW', FMTDAT='(8E13.5)'
 TRAMP=1., VOLUME=1. $END
  3.08929E+05  1.50801E+03  3.38394E+05  2.52212E+05  8.38102E+04  3.38877E+05 -1.32753E+05  2.52463E+05
 -1.91798E+05  8.46578E+04 -1.11832E+05 -3.25405E+04 -5.41688E+00 -5.02508E+04  5.28833E+04 -1.34508E+03
  3.50352E+04  5.21594E+04 -1.63383E+04  7.70485E+04 -6.13621E+04  6.54853E+04 -8.65719E+04  3.33686E+04
 -8.31566E+04 -1.21707E+04 -5.85926E+04 -5.22023E+04 -1.54389E+04 -7.33666E+04  2.75353E+04 -4.76415E+04
  4.01699E+04  2.67600E+03  1.65739E+04  4.83553E+04 -3.58105E+04  4.82992E+04 -6.92860E+04 -9.04315E+02
 -5.67088E+04 -5.78234E+04 -8.49905E+03 -7.74803E+04  3.65557E+04 -5.93030E+04  4.96946E+04 -1.79550E+04
  4.64518E+04  1.31310E+04  3.32426E+04  2.56470E+04  1.63396E+04  3.01901E+04 -6.65375E+03  2.71745E+04
 -2.28549E+04  1.14786E+04 -1.75501E+04 -6.31253E+03  7.22000E+03 -6.71007E+03  2.28373E+04  1.41547E+04
  5.29059E+03  3.82624E+04 -3.50027E+04  3.81764E+04 -6.60572E+04  2.41471E+03 -5.91128E+04 -4.51688E+04
 -1.18841E+04 -6.66429E+04  4.33237E+04 -4.76053E+04  6.30230E+04  9.13885E+01  3.79438E+04  3.57642E+04
 -3.13253E+03  4.09888E+04 -3.23350E+04  1.94187E+04 -3.50655E+04 -3.71481E+03 -1.98935E+04 -1.11896E+04
 -9.48155E+03 -1.62998E+04  1.58273E+02 -1.99150E+04  8.20497E+03 -2.32137E+04  1.61024E+04 -1.24581E+04
  9.42364E+03  6.24824E+03 -1.31841E+04  1.37733E+04 -2.47696E+04 -7.27401E+03 -9.29777E+03 -4.06372E+04
  2.57956E+04 -5.02984E+04  5.35444E+04 -2.13472E+04  4.98002E+04  2.12056E+04  1.81274E+04  4.80152E+04
 -1.64025E+04  3.74563E+04 -2.82081E+04  3.45295E+03 -1.21661E+04 -3.13323E+04  2.11402E+04 -3.52753E+04
  4.71612E+04 -1.19484E+04  4.21747E+04  2.35225E+04  2.22678E+04  5.34328E+04 -8.43450E+03  5.68863E+04
 -3.94803E+04  4.09610E+04 -5.03019E+04  1.15008E+04 -5.07365E+04 -2.04281E+04 -2.74583E+04 -4.51384E+04
  9.35083E+03 -4.50952E+04  3.58486E+04 -1.76133E+04  3.45126E+04  1.09400E+04  6.61379E+03  2.19330E+04
 -1.49452E+04  1.28126E+04 -1.34698E+04 -6.45999E+03  3.60423E+03 -1.19055E+04  2.22356E+04  4.55285E+03
  1.67096E+04  2.14101E+04 -4.05736E+03  2.81116E+04 -2.27210E+04  1.52720E+04 -3.41851E+04 -2.47343E+03
 -2.91944E+04 -1.92860E+04 -1.30852E+04 -2.77915E+04  4.57841E+03 -2.99273E+04  2.17436E+04 -2.35012E+04
  3.61965E+04 -1.46270E+04  4.15747E+04  5.98284E+03  2.77632E+04  2.54914E+04  4.73014E+03  4.25946E+04
 -2.04152E+04  3.43822E+04 -3.17210E+04  1.27856E+04 -2.47461E+04 -1.04022E+04 -5.46690E+03 -1.20947E+04
 -7.08490E+02 -5.93407E+02 -7.47544E+03  8.32032E+03 -2.25946E+04  5.72512E+03 -2.16336E+04 -1.07576E+04
 -1.18449E+04 -2.77676E+04  6.27569E+03 -2.93306E+04  2.01637E+04 -2.22336E+04  2.57444E+04 -2.61043E+03
  1.61466E+04  1.75646E+04 -1.64935E+03  2.70283E+04 -1.89344E+04  1.33675E+04 -2.84516E+04 -4.09347E+03
 -1.89423E+04 -2.18992E+04 -2.01592E+03 -3.02827E+04  1.44750E+04 -2.51753E+04  2.60655E+04 -1.39836E+04
  2.62218E+04 -1.21869E+03  1.71403E+04  6.72613E+03  8.83207E+03  1.06020E+03  1.38204E+04 -1.72629E+03
  2.44783E+04  2.05330E+03  2.89020E+04  2.02925E+04  2.07082E+04  4.09246E+04 -1.55052E+03  4.94101E+04
 -2.90082E+04  4.28500E+04 -4.63567E+04  2.28293E+04 -5.10786E+04 -4.42979E+03 -4.03708E+04 -2.97455E+04
 -1.65785E+04 -4.27974E+04  1.51137E+04 -3.70116E+04  3.31919E+04 -1.68569E+04  2.56237E+04  1.03129E+04
  9.95711E+03  2.15973E+04 -1.29718E+04  1.83341E+04 -2.40705E+04  1.28997E+03 -1.54212E+04 -1.43536E+04
  1.69444E+03 -2.07713E+04  1.20964E+04 -1.38940E+04  1.42707E+04 -1.07458E+03  5.17572E+03  1.14109E+04
 -8.23032E+03  6.17701E+03 -1.04729E+04 -8.38855E+03 -3.43820E+03 -2.04392E+04  1.18430E+04 -2.33230E+04
  2.69478E+04 -1.32828E+04  2.89536E+04  4.40492E+03  2.64987E+04  2.20181E+04  1.51143E+04  3.43974E+04
 -8.85482E+03  3.67596E+04 -2.28177E+04  2.20155E+04 -2.47412E+04  3.86573E+03 -1.86465E+04 -6.64163E+03
 -7.70915E+03 -9.08098E+03 -8.91822E+01  4.31214E+02 -3.78384E+03  3.17785E+03 -9.64518E+03  7.64001E+03
 -1.68559E+04 -1.06242E+02 -1.73113E+04 -1.22061E+04 -5.31688E+03 -2.37510E+04  8.19327E+03 -1.71975E+04
  1.50457E+04 -7.48432E+03  1.16691E+04  4.94967E+03 -9.13214E+02  8.72679E+03 -1.01935E+04 -8.35673E+02
 -9.37214E+03 -1.39054E+04 -7.19615E+02 -1.96351E+04  1.15465E+04 -1.93484E+04  2.24205E+04 -1.04692E+04
  2.78216E+04  2.06680E+03  1.89622E+04  1.57656E+04  4.37401E+03  2.27376E+04 -9.35101E+03  1.85107E+04
 -1.35277E+04  5.02163E+03 -5.24055E+03 -5.36043E+03  3.27182E+03 -6.76131E+03  9.19123E+03 -8.44912E+02
  7.93259E+03  8.84986E+03  6.37181E+02  1.60611E+04 -1.06248E+04  1.39632E+04 -1.77158E+04  2.87693E+03
 -1.26721E+04 -9.07967E+03  1.32259E+03 -1.55900E+04  1.00270E+04 -8.82294E+03  1.17820E+04  2.39551E+03
  3.06263E+03  1.37722E+04 -7.50145E+03  1.42463E+04 -1.81065E+04  6.83970E+03 -1.60350E+04 -6.08703E+03
 -1.12129E+04 -1.75248E+04  4.55617E+03 -2.12616E+04  1.72520E+04 -1.38035E+04  1.96103E+04  4.05646E+03
  1.14486E+04  1.64957E+04 -1.49802E+03  2.06323E+04 -1.48367E+04  9.34805E+03 -1.65318E+04 -1.88932E+03
 -1.26262E+04 -1.16521E+04 -3.46862E+03 -1.43607E+04  4.72561E+03 -1.22984E+04  1.01832E+04 -3.28518E+03
  6.38017E+03  1.38505E+03 -6.33030E+02  2.58021E+03 -1.62333E+03 -2.71804E+03  3.64638E+03 -9.04134E+03
  1.44327E+04 -6.30654E+03  2.15279E+04  5.18372E+02  1.96319E+04  1.35551E+04  1.12330E+04  2.53847E+04
 -6.93141E+03  3.06444E+04 -2.58453E+04  2.20800E+04 -3.03320E+04  3.01481E+03 -2.35986E+04 -1.07874E+04
 -1.28413E+04 -2.15841E+04 -2.02052E+03 -1.68442E+04  6.99348E+03 -1.18549E+04  5.84341E+03 -7.01500E+03
  4.57383E+03 -4.75448E+03  5.31008E+03 -5.08422E+03  8.24669E+03 -4.78150E+03  9.72614E+03 -1.18306E+03
  1.42839E+04  3.10196E+03  7.45178E+03  1.23491E+04 -1.27355E+03  1.49128E+04 -1.28496E+04  1.12393E+04
 -1.88699E+04 -2.60017E+03 -1.17241E+04 -1.11632E+04 -3.16143E+03 -1.91144E+04  1.12063E+04 -2.20293E+04
  2.00658E+04 -9.69478E+03  2.51907E+04  4.08727E+03  1.71945E+04  1.67279E+04  2.94374E+03  2.36430E+04
 -9.51359E+03  1.62769E+04 -1.40228E+04  7.09845E+03 -1.04347E+04 -2.69671E+03 -3.01758E+03 -2.88927E+03
 -1.58442E+03 -3.93803E+02 -3.91688E+03  4.47825E+03 -7.48332E+03  2.23702E+03 -1.51392E+04 -7.57027E+02
 -1.15482E+04 -1.10549E+04 -1.53565E+03 -1.92436E+04  1.21270E+04 -1.80300E+04  2.05639E+04 -5.38809E+03
  1.87643E+04  8.22302E+03  8.94907E+03  1.69047E+04 -2.95240E+03  1.65539E+04 -1.41024E+04  1.10233E+04
 -1.89322E+04  1.07622E+03 -1.25999E+04 -1.36382E+04 -1.12184E+03 -1.77821E+04  7.75869E+03 -1.32616E+04
  1.19157E+04 -3.28838E+03  1.02433E+04  2.47857E+03  3.69926E+03  6.92457E+03  1.19265E+03  2.42093E+03
  3.88080E+03  1.69683E+03  3.25383E+03  4.23697E+03  5.39165E+03  6.39219E+03  5.10548E+03  1.00745E+04
 -2.37941E+03  1.46286E+04 -1.44104E+04  1.40207E+04 -2.02916E+04  3.91669E+03 -2.13505E+04 -9.45066E+03
 -1.06255E+04 -1.97424E+04  2.30896E+03 -2.23335E+04  1.27748E+04 -1.31175E+04  1.73972E+04 -1.61213E+03
  1.40287E+04  8.49461E+03  1.96870E+03  1.14876E+04 -5.30082E+03  7.23231E+03 -9.76788E+03 -1.69751E+03
 -4.27296E+03 -9.69832E+03  6.77928E+03 -1.00499E+04  9.24129E+03 -4.54027E+03  9.77563E+03  3.43481E+02
  4.79039E+03  4.58057E+03  2.82562E+03  2.49503E+03 -3.13147E+03  6.17258E+03 -1.83901E+03 -9.18229E+02
  2.24207E+03 -3.13135E+03  9.74125E+03  2.46881E+03  5.67543E+03  1.09983E+04 -1.75472E+03  1.56296E+04
 -1.03244E+04  9.33812E+03 -1.14571E+04  4.48876E+03 -1.06119E+04 -2.69853E+03 -5.61590E+03 -7.83265E+03
  1.50724E+03 -9.95129E+03  4.56283E+03 -3.02013E+03  3.50126E+03  3.13349E+03  4.37982E+01  6.85768E+03
 -7.58537E+03  4.04554E+03 -1.11088E+04 -6.82816E+03 -7.23834E+03 -1.11270E+04  1.44335E+03 -1.19101E+04
  6.62517E+03 -6.42848E+03  6.95406E+03 -1.41098E+02  6.56823E+03  5.37873E+03  1.33630E+03  5.98916E+03
 -4.81501E+03  3.19482E+03 -6.69718E+03 -4.26389E+03  1.67951E+03 -9.36634E+03  1.08790E+04 -6.93840E+03
  1.34948E+04  3.15258E+03  1.17113E+04  9.05773E+03  3.84554E+03  1.57019E+04 -5.87137E+03  1.28765E+04
 -1.21068E+04  5.65247E+03 -1.18129E+04 -1.86917E+03 -6.46450E+03 -8.84186E+03  3.21511E+03 -8.72376E+03
  6.99566E+03 -4.89263E+03  7.34556E+03  4.30793E+03  2.90376E+03  4.81701E+03 -6.13903E+02  6.26051E+03
 -3.10201E+03  3.76257E+03 -3.61864E+03  1.10809E+03 -1.12045E+03  3.70889E+03 -2.31273E+03  4.14488E+03
 -2.31890E+03  4.27942E+03 -9.38163E+03  5.28964E+03 -1.34797E+04  7.98912E+02 -1.66436E+04 -1.04873E+04
 -7.98458E+03 -1.89166E+04  1.91139E+03 -2.34292E+04  1.53667E+04 -1.59606E+04  2.12457E+04 -8.68975E+03
  1.97122E+04  5.08556E+03  1.21980E+04  1.29446E+04  1.54408E+03  1.69103E+04 -5.79289E+03  1.08445E+04
 -8.60495E+03  3.28402E+03 -5.23189E+03 -2.22225E+03 -2.00299E+02 -1.08054E+03  2.37688E+03 -6.66023E+02
 -2.48169E+03  1.31146E+03 -2.12073E+03 -1.80838E+03 -9.04313E+02 -3.57526E+03  1.87263E+03 -5.31683E+03
  5.68132E+03 -3.04755E+03  9.24103E+03  1.85603E+02  1.00350E+04  7.56878E+03  4.40348E+03  1.59882E+04
 -6.66844E+03  1.63537E+04 -1.39093E+04  1.18846E+04 -1.86693E+04 -9.31050E+02 -1.38340E+04 -1.17209E+04
 -4.42869E+03 -1.57340E+04  4.30276E+03 -1.46762E+04  9.53638E+03 -8.62944E+03  1.00641E+04 -5.42372E+02
  4.15814E+03  5.04715E+03 -1.18562E+03  6.58738E+03 -1.17140E+03 -9.93180E+02  1.14985E+03 -4.22314E+03
  5.38008E+03 -3.38740E+03  5.02945E+03  1.58038E+03  4.92929E+03  6.39640E+03 -2.16138E+03  9.13686E+03
 -5.84290E+03  7.04191E+03 -9.29175E+03  4.61843E+02 -9.25995E+03 -8.83758E+03 -1.25381E+03 -1.44670E+04
  9.43733E+03 -1.03430E+04  1.13309E+04 -4.52493E+03  1.40039E+04  5.26211E+03  6.58048E+03  9.44654E+03
  7.81844E+02  1.03163E+04 -4.34633E+03  8.70083E+03 -5.13097E+03  6.30287E+03 -5.52027E+03  4.43913E+02
 -2.68699E+03 -9.23121E+02 -1.35885E+03  2.14642E+03 -6.13885E+03  2.58752E+03 -1.07237E+04 -2.22291E+03
 -7.61818E+03 -5.55842E+03 -3.50501E+03 -1.10850E+04  4.15192E+03 -1.00843E+04  1.11882E+04 -6.41315E+03
  1.04645E+04  2.48237E+03  5.68302E+03  8.53649E+03 -2.00015E+03  1.00184E+04 -9.72892E+03  4.28958E+03
