 $NMID ID='MM_0lb_SNR200_12hz_g40_90.RAW', FMTDAT='(8E13.5)'
 TRAMP=1., VOLUME=1. $END
  3.08383E+05  7.12499E+02  3.37757E+05  2.50088E+05  8.52514E+04  3.38068E+05 -1.33786E+05  2.51372E+05
 -1.91842E+05  8.24282E+04 -1.13023E+05 -3.41922E+04 -6.02962E+02 -5.03484E+04  5.37449E+04  1.16584E+02
  3.55957E+04  5.17202E+04 -1.70493E+04  7.51501E+04 -6.15591E+04  6.31859E+04 -8.54080E+04  3.20406E+04
 -8.04470E+04 -9.64330E+03 -5.65603E+04 -5.04917E+04 -1.54133E+04 -7.06500E+04  2.78841E+04 -4.48225E+04
  4.08169E+04  3.39334E+03  1.68375E+04  4.71061E+04 -3.45014E+04  4.67661E+04 -6.66690E+04  1.40436E+02
 -5.39636E+04 -5.76030E+04 -6.79736E+03 -7.67055E+04  3.41249E+04 -5.53725E+04  4.74678E+04 -1.88271E+04
  4.47432E+04  1.34342E+04  3.09011E+04  2.64366E+04  1.58779E+04  2.98523E+04 -6.26308E+03  2.67556E+04
 -2.24118E+04  1.22527E+04 -1.79733E+04 -6.88819E+03  5.48133E+03 -7.97440E+03  2.18294E+04  1.28318E+04
  7.69733E+03  3.53917E+04 -3.17475E+04  3.67648E+04 -6.33189E+04  1.44102E+03 -5.68349E+04 -4.14086E+04
 -1.31273E+04 -6.39047E+04  3.89812E+04 -4.65183E+04  5.85167E+04 -1.84042E+03  3.33805E+04  3.18769E+04
 -6.83657E+03  3.62442E+04 -3.02268E+04  1.57308E+04 -3.10916E+04 -3.48243E+03 -1.71480E+04 -1.22808E+04
 -9.42851E+03 -1.42611E+04 -9.47038E+02 -1.92525E+04  7.01534E+03 -2.21617E+04  1.51115E+04 -1.29446E+04
  1.10229E+04  4.91936E+03 -8.79949E+03  1.33640E+04 -2.12217E+04 -4.80016E+03 -8.70205E+03 -3.38975E+04
  2.27777E+04 -4.49340E+04  4.89620E+04 -1.93966E+04  4.54737E+04  1.97210E+04  1.67796E+04  4.55935E+04
 -1.54602E+04  3.32315E+04 -2.52453E+04  2.94676E+03 -1.08804E+04 -2.88576E+04  2.15861E+04 -3.39634E+04
  4.28352E+04 -9.77969E+03  3.60363E+04  2.40219E+04  1.87860E+04  4.66335E+04 -8.80022E+03  5.05361E+04
 -3.13799E+04  3.36580E+04 -4.34886E+04  1.06259E+04 -4.41973E+04 -1.58166E+04 -2.36895E+04 -3.71567E+04
  7.75273E+03 -3.82078E+04  3.15601E+04 -1.60022E+04  3.03989E+04  9.53197E+03  4.87436E+03  1.92147E+04
 -1.42877E+04  9.34316E+03 -1.11619E+04 -7.20215E+03  5.85234E+03 -1.09338E+04  1.84404E+04  5.80454E+03
  1.45953E+04  2.28467E+04 -5.07659E+03  2.40472E+04 -2.34926E+04  1.13927E+04 -2.96334E+04 -4.59725E+03
 -2.11617E+04 -1.86495E+04 -9.28386E+03 -2.10181E+04  4.20489E+03 -1.95538E+04  1.59771E+04 -1.95911E+04
  2.74474E+04 -1.24237E+04  3.49948E+04  2.41469E+03  2.46960E+04  2.13977E+04  3.62446E+03  3.69879E+04
 -1.72385E+04  3.12664E+04 -2.90898E+04  1.13123E+04 -2.14336E+04 -1.10502E+04 -4.01263E+03 -1.36385E+04
  2.46789E+02 -2.78794E+03 -4.90281E+03  6.07399E+03 -1.74044E+04  4.12242E+03 -1.71855E+04 -7.30633E+03
 -1.12474E+04 -1.93064E+04  5.26018E+03 -2.31407E+04  1.61579E+04 -1.90197E+04  1.94092E+04 -2.33559E+03
  1.15934E+04  1.42866E+04 -1.00414E+03  1.99068E+04 -1.39021E+04  1.10865E+04 -1.93901E+04 -4.54364E+03
 -1.51047E+04 -1.74197E+04 -1.18106E+03 -2.32038E+04  1.17072E+04 -2.02816E+04  2.12589E+04 -9.31347E+03
  1.96116E+04  4.73589E+02  1.31181E+04  4.79714E+03  6.78800E+03  7.98109E+02  1.08255E+04 -3.41949E+03
  1.86823E+04  3.27548E+03  1.97862E+04  1.48882E+04  1.49911E+04  3.14210E+04 -2.78669E+03  3.52787E+04
 -2.04382E+04  3.01594E+04 -3.42831E+04  1.54895E+04 -3.53308E+04 -2.59723E+03 -2.80634E+04 -1.98346E+04
 -1.35577E+04 -2.95661E+04  1.18781E+04 -2.65500E+04  2.33747E+04 -1.25613E+04  2.02552E+04  5.95393E+03
  7.02619E+03  1.52379E+04 -9.40244E+03  1.43265E+04 -1.72704E+04  2.22201E+03 -1.31538E+04 -1.01777E+04
 -1.11868E+03 -1.63400E+04  8.04652E+03 -1.12873E+04  1.22512E+04  3.80103E+02  2.29888E+03  8.55930E+03
 -7.84684E+03  2.05686E+03 -6.40057E+03 -5.68510E+03 -9.62488E+02 -1.44941E+04  1.03917E+04 -1.53875E+04
  1.72842E+04 -7.44567E+03  1.98366E+04  3.36017E+03  1.70185E+04  1.44089E+04  8.69222E+03  2.21130E+04
 -4.28011E+03  2.46844E+04 -1.59205E+04  1.54282E+04 -1.73313E+04  3.82854E+03 -1.11909E+04 -4.34280E+03
 -6.86372E+03 -5.26468E+03 -1.49393E+03  9.58630E+02 -3.73998E+03  2.88416E+03 -4.87904E+03  4.54284E+03
 -1.27444E+04 -4.48344E+02 -1.19970E+04 -1.10429E+04 -4.17110E+03 -1.55972E+04  5.22382E+03 -1.18946E+04
  1.06118E+04 -5.57030E+03  5.94279E+03  3.31254E+03 -1.32800E+03  4.17048E+03 -4.81912E+03  2.97211E+02
 -6.05416E+03 -8.91141E+03 -8.38524E+02 -1.20191E+04  6.81142E+03 -1.26135E+04  1.55514E+04 -7.29330E+03
  1.89786E+04  1.36160E+03  1.28717E+04  1.01226E+04  2.39230E+03  1.39047E+04 -7.10853E+03  1.18056E+04
 -9.48101E+03  3.65296E+03 -5.91803E+03 -2.51589E+03  1.32058E+03 -3.73740E+03  7.14911E+03 -5.15935E+02
  5.00000E+03  5.09979E+03  1.30672E+03  9.44493E+03 -6.86525E+03  1.06867E+04 -1.22646E+04  3.54548E+03
 -7.76298E+03 -6.58616E+03  3.42575E+02 -9.77601E+03  6.48620E+03 -4.13456E+03  5.81777E+03  1.60042E+03
  1.37699E+03  7.75433E+03 -6.28554E+03  7.53895E+03 -9.17832E+03  2.99773E+03 -1.00733E+04 -3.33137E+03
 -6.83945E+03 -1.20544E+04  1.59728E+03 -1.31462E+04  1.01455E+04 -8.18486E+03  1.25111E+04  1.80147E+02
  6.43598E+03  1.00400E+04 -1.01200E+03  1.16080E+04 -8.94488E+03  7.75952E+03 -1.02898E+04 -1.46875E+03
 -8.82019E+03 -7.81964E+03 -1.32299E+03 -8.65062E+03  5.62018E+03 -7.40341E+03  5.39371E+03 -4.65116E+03
  4.70443E+03  8.93035E+02 -1.11513E+03  1.75868E+03  4.71070E+02 -1.69573E+03  1.90782E+03 -4.76362E+03
  7.50249E+03 -2.51715E+03  1.12072E+04 -1.03820E+02  1.18221E+04  8.20322E+03  7.78633E+03  1.34676E+04
 -4.22507E+03  1.49446E+04 -1.36425E+04  1.19725E+04 -1.82283E+04  1.16933E+03 -1.52994E+04 -6.61402E+03
 -7.65012E+03 -1.20512E+04  4.52897E+02 -1.06075E+04  3.32282E+03 -4.83712E+03  2.52918E+03 -4.02420E+03
  2.94143E+03 -3.17408E+03  3.87986E+03 -3.36334E+03  5.49322E+03 -1.18669E+03  4.38271E+03  3.73891E+01
  8.05312E+03  1.96830E+02  4.99575E+03  5.64426E+03 -2.77470E+03  5.86607E+03 -9.20873E+03  5.53568E+03
 -7.61960E+03 -7.25209E+02 -6.98433E+03 -7.00562E+03  4.10608E+02 -1.10893E+04  6.88434E+03 -9.85698E+03
  1.15799E+04 -5.91254E+03  1.36486E+04  7.93513E+02  1.13208E+04  9.44692E+03  1.69961E+03  1.16459E+04
 -5.89172E+03  9.72054E+03 -6.53220E+03  3.44176E+03 -4.57476E+03 -1.30095E+03 -1.58060E+03 -1.61191E+03
 -3.45229E+02 -6.82405E+02 -2.22818E+03  1.34754E+03 -3.53121E+03  1.52664E+03 -6.53518E+03 -7.50182E+02
 -4.08283E+03 -6.65247E+03  3.02144E+02 -1.00944E+04  5.68229E+03 -9.24987E+03  8.84425E+03 -2.03752E+03
  9.27461E+03  4.57996E+03  4.21750E+03  9.19068E+03 -3.02531E+03  1.01202E+04 -5.97411E+03  7.32120E+03
 -8.57284E+03 -9.03205E+02 -7.06093E+03 -5.91809E+03 -1.49351E+03 -7.21596E+03  2.95815E+03 -6.39495E+03
  6.50715E+03 -2.78472E+03  4.62651E+03  1.46271E+03  1.48960E+03  3.68029E+03  2.40656E+03  7.07224E+02
  3.38866E+03  1.55595E+03  2.46041E+03  1.57231E+03  2.00379E+03  3.54576E+03  2.03480E+03  4.39915E+03
 -2.52008E+03  7.89315E+03 -5.74630E+03  7.05116E+03 -9.51667E+03  1.67487E+03 -1.04684E+04 -4.49693E+03
 -3.74567E+03 -8.48367E+03  6.73955E+02 -1.12955E+04  5.07059E+03 -6.70655E+03  7.79276E+03 -3.37671E+03
  5.70689E+03  2.98182E+03  7.63142E+02  6.25850E+03 -2.75364E+03  2.89397E+03 -3.11235E+03 -1.57339E+03
 -1.92707E+03 -3.66179E+03  2.12083E+03 -4.98709E+03  2.70840E+03 -2.40791E+03  3.51400E+03  1.09247E+03
  3.09771E+03  1.89055E+02  1.01400E+03  8.41361E+02 -3.78222E+02  1.16835E+03  1.07860E+03  7.08143E+02
  1.30646E+03 -1.01518E+03  2.51654E+03  1.32114E+03  1.80875E+03  4.10650E+03 -2.55310E+03  7.03898E+03
 -4.07563E+03  4.38684E+03 -3.57016E+03  1.53598E+03 -6.54553E+03 -1.49398E+02 -1.52588E+03 -3.00723E+03
  2.70268E+02 -2.85037E+03  3.06472E+03 -1.35406E+03  2.61518E+03  1.83831E+03 -1.01318E+03  3.68168E+03
 -3.96112E+03  9.92474E+02 -4.66667E+03 -2.22381E+03 -3.90855E+03 -5.17803E+03  4.72046E+02 -4.38827E+03
  3.58526E+03 -1.99502E+03  3.42868E+03  1.29209E+02  3.74228E+03  1.29349E+03  3.39155E+01  4.06464E+03
 -3.43211E+03  5.43613E+02 -2.42341E+03 -1.42262E+03 -2.77546E+02 -3.46950E+03  4.53616E+03 -4.15555E+03
  5.06484E+03 -5.52555E+02  7.52831E+03  2.12354E+03  1.78986E+03  4.89572E+03 -1.91902E+03  4.08706E+03
 -3.85703E+03  1.84479E+03 -4.37155E+03 -1.99355E+02 -2.79461E+03 -4.00543E+03  1.18884E+03 -2.62148E+03
  4.46076E+03 -9.44979E+02  3.48993E+03  1.92567E+03  6.78023E+02  3.20462E+03 -9.38590E+02  2.27884E+03
 -1.69283E+03  1.02222E+03 -1.70451E+03 -3.17154E+02 -1.10441E+03  9.73260E+02 -4.86758E+02  1.11886E+03
 -1.29597E+02  1.77148E+03 -4.09246E+03  1.49043E+03 -6.30943E+03 -9.72276E+02 -7.38770E+03 -4.03786E+03
 -3.44972E+03 -8.39632E+03  1.48901E+03 -8.46873E+03  4.50467E+03 -7.13910E+03  9.40699E+03 -3.73456E+03
  7.08615E+03  2.18178E+03  4.76869E+03  4.20746E+03 -5.67841E+02  4.35556E+03 -1.52139E+03  4.28733E+03
 -2.28023E+03  2.81830E+03 -1.67776E+03 -1.15072E+03 -1.28283E+03 -1.02548E+02 -1.40544E+01  6.92766E+02
 -2.12626E+03 -1.06548E+03 -2.11537E+02 -1.97069E+03 -1.23282E+03 -1.82406E+03  2.56298E+02 -2.58909E+03
  2.71311E+03 -1.75935E+03  2.51603E+03 -3.46739E+02  3.50757E+03  4.74792E+03  9.79275E+02  6.32102E+03
 -2.73518E+03  6.94671E+03 -6.20105E+03  2.60262E+03 -6.15172E+03 -9.80594E+02 -4.88185E+03 -4.57273E+03
 -9.24845E+02 -5.84254E+03  7.97717E+02 -3.92667E+03  4.51312E+03 -2.21686E+03  3.17774E+03  1.63114E+03
  1.99021E+03  1.40881E+03 -3.73885E+02  2.20447E+03 -4.63995E+02 -8.21896E+02 -1.63006E+03 -8.76407E+02
  2.02927E+03 -1.19524E+02  1.74714E+03 -9.43608E+02  7.03854E+02  1.88554E+03 -8.26367E+02  2.22065E+03
 -1.42932E+03  2.84213E+03 -4.65754E+03  4.37585E+02 -3.08907E+03 -2.42697E+03 -4.60016E+02 -3.93278E+03
  3.31578E+03 -4.67014E+03  4.37211E+03 -1.15496E+03  3.52900E+03  8.11743E+02  7.13242E+02  3.15181E+03
  6.80792E+02  3.01351E+03 -8.13346E+02  3.59964E+03 -3.61501E+03  2.43312E+03 -2.37965E+03  7.06563E+02
 -1.39643E+03 -1.24165E+03 -6.63712E+02  1.47524E+03 -2.65896E+03 -4.05430E+02 -2.61774E+03 -1.46293E+03
 -1.87826E+03 -1.90024E+03 -1.11291E+03 -4.79456E+03  1.32854E+03 -5.30327E+03  3.84432E+03 -7.79912E+02
  3.54012E+03  8.22905E+02  2.09405E+03  1.56796E+03 -1.14499E+03  4.16541E+03 -2.88792E+03  2.75735E+03
