 $NMID ID='MM_0lb_SNR200_16hz_g40_80.RAW', FMTDAT='(8E13.5)'
 TRAMP=1., VOLUME=1. $END
  3.09713E+05  4.61124E+02  3.38454E+05  2.50939E+05  8.49686E+04  3.37375E+05 -1.33110E+05  2.51379E+05
 -1.90143E+05  8.14474E+04 -1.11215E+05 -3.32896E+04  1.59459E+03 -4.97380E+04  5.33785E+04  7.88216E+02
  3.49890E+04  5.27512E+04 -1.63790E+04  7.51383E+04 -5.97012E+04  6.29260E+04 -8.41128E+04  3.24941E+04
 -8.02568E+04 -1.24771E+04 -5.54664E+04 -5.01223E+04 -1.56306E+04 -6.85796E+04  2.80669E+04 -4.52286E+04
  3.89079E+04  4.97750E+03  1.65303E+04  4.67112E+04 -3.43793E+04  4.70945E+04 -6.41894E+04 -4.12463E+02
 -5.24287E+04 -5.59034E+04 -5.89089E+03 -7.52991E+04  3.29281E+04 -5.33576E+04  4.79291E+04 -1.68261E+04
  4.20047E+04  1.28082E+04  3.07058E+04  2.45879E+04  1.60478E+04  2.85207E+04 -4.82619E+03  2.72090E+04
 -2.13224E+04  1.26208E+04 -1.94421E+04 -4.71472E+03  4.96686E+03 -7.91659E+03  2.24140E+04  1.11824E+04
  7.95066E+03  3.31684E+04 -2.96756E+04  3.52912E+04 -6.13779E+04  9.69962E+02 -5.53221E+04 -4.17594E+04
 -1.13541E+04 -6.12559E+04  3.87980E+04 -4.46051E+04  5.70347E+04 -2.33633E+03  3.28866E+04  3.15928E+04
 -7.01830E+03  3.51786E+04 -3.06168E+04  1.40004E+04 -2.79379E+04 -5.21892E+03 -1.57666E+04 -1.03101E+04
 -7.77108E+03 -1.33033E+04 -7.65209E+01 -1.74578E+04  7.27327E+03 -2.22327E+04  1.51380E+04 -1.39010E+04
  1.19390E+04  4.87139E+03 -7.51665E+03  1.30733E+04 -2.00284E+04 -4.47770E+03 -8.65306E+03 -3.15826E+04
  2.10531E+04 -4.04968E+04  4.60048E+04 -1.88471E+04  4.26484E+04  1.87091E+04  1.47056E+04  4.30766E+04
 -1.43521E+04  3.17770E+04 -2.39498E+04  1.64338E+03 -8.03079E+03 -2.65429E+04  2.04664E+04 -3.21992E+04
  4.02445E+04 -8.32426E+03  3.17096E+04  2.27363E+04  1.66202E+04  4.27509E+04 -7.51543E+03  4.57587E+04
 -2.90206E+04  3.18497E+04 -3.90916E+04  8.32893E+03 -4.04843E+04 -1.55518E+04 -2.31938E+04 -3.43014E+04
  7.20251E+03 -3.52136E+04  2.93368E+04 -1.38750E+04  2.77184E+04  1.04125E+04  3.60312E+03  1.81229E+04
 -1.33350E+04  6.92363E+03 -1.02856E+04 -8.93831E+03  6.25994E+03 -1.01675E+04  1.66349E+04  5.72487E+03
  1.17469E+04  2.15142E+04 -5.71501E+03  2.39252E+04 -2.04123E+04  9.19925E+03 -2.59699E+04 -6.20462E+03
 -1.83507E+04 -1.69205E+04 -7.36174E+03 -1.72931E+04  3.16882E+03 -1.66787E+04  1.27986E+04 -1.54565E+04
  2.22694E+04 -1.22012E+04  3.06062E+04  2.27543E+03  2.17167E+04  1.65746E+04  4.33537E+03  3.34884E+04
 -1.77052E+04  2.74186E+04 -2.75061E+04  1.03853E+04 -2.00490E+04 -1.04713E+04 -4.47636E+03 -1.27274E+04
  2.35897E+03 -2.82412E+03 -3.56610E+03  5.90211E+03 -1.38990E+04  4.65433E+03 -1.48586E+04 -5.23007E+03
 -8.80418E+03 -1.65478E+04  5.70447E+03 -2.07106E+04  1.33994E+04 -1.48711E+04  1.62807E+04 -2.56912E+03
  1.05442E+04  1.16401E+04 -4.01204E+02  1.72848E+04 -1.22683E+04  9.83321E+03 -1.64416E+04 -3.68205E+03
 -1.21145E+04 -1.50222E+04 -5.85687E+02 -1.98076E+04  1.01927E+04 -1.70054E+04  1.65244E+04 -7.57262E+03
  1.57359E+04  2.94542E+02  1.18129E+04  4.06930E+03  5.57474E+03  1.45832E+03  7.20630E+03 -1.47680E+03
  1.47112E+04  2.95833E+03  1.51132E+04  1.39643E+04  1.02696E+04  2.66061E+04 -3.97975E+03  3.11466E+04
 -1.74021E+04  2.24436E+04 -2.72906E+04  1.05658E+04 -2.77487E+04 -1.24235E+03 -2.31665E+04 -1.61802E+04
 -1.05735E+04 -2.30062E+04  8.00112E+03 -2.15539E+04  1.71118E+04 -1.17699E+04  1.61078E+04  3.68918E+03
  6.50307E+03  1.18903E+04 -8.19553E+03  1.12560E+04 -1.41529E+04  3.24100E+03 -1.02025E+04 -7.91676E+03
 -9.51732E+02 -1.25556E+04  7.44392E+03 -1.08573E+04  8.85466E+03 -1.95312E+03  1.20295E+03  6.26217E+03
 -5.49583E+03  1.20857E+03 -4.16256E+03 -4.70743E+03  2.83557E+02 -1.17645E+04  7.82305E+03 -1.12419E+04
  1.50331E+04 -5.65857E+03  1.45178E+04  1.79169E+03  1.22510E+04  1.03444E+04  6.29476E+03  1.63693E+04
 -2.45415E+03  1.78733E+04 -1.10210E+04  1.20071E+04 -1.36051E+04  2.93108E+03 -8.67634E+03 -1.52515E+03
 -4.83724E+03 -3.90633E+03 -3.28154E+02  7.63646E+02 -1.94928E+03  3.58595E+03 -4.76664E+03  3.11750E+03
 -1.03690E+04  1.17482E+03 -9.41343E+03 -7.40567E+03 -4.06735E+03 -1.31043E+04  4.20352E+03 -1.02956E+04
  6.92604E+03 -5.03130E+03  6.04270E+03  2.68542E+03 -9.00288E+01  4.05932E+03 -3.31401E+03  7.25769E+02
 -5.10785E+03 -6.15672E+03  2.53812E+02 -8.97557E+03  5.80929E+03 -9.67664E+03  1.15524E+04 -4.86712E+03
  1.28518E+04  5.59590E+02  1.09799E+04  7.01282E+03  1.53132E+03  9.95529E+03 -5.45390E+03  9.39115E+03
 -7.47948E+03  4.13753E+03 -3.86136E+03 -1.53291E+03  2.11363E+02 -2.63571E+03  5.12781E+03 -1.11245E+03
  4.83235E+03  3.27914E+03  6.98125E+02  7.01111E+03 -4.38505E+03  7.03227E+03 -8.84452E+03  2.88060E+03
 -5.74673E+03 -4.74968E+03 -9.75372E+01 -7.97935E+03  3.84419E+03 -4.59689E+03  4.54530E+03  1.19889E+03
  7.90296E+02  4.21680E+03 -4.46018E+03  5.98816E+03 -5.55310E+03  2.71129E+03 -5.35125E+03 -2.03675E+03
 -4.11557E+03 -8.02482E+03  8.95905E+02 -7.99713E+03  7.80963E+03 -6.41411E+03  8.11456E+03  1.01188E+03
  6.38931E+03  5.08586E+03  4.58406E+02  8.13618E+03 -5.49105E+03  4.50565E+03 -6.91622E+03 -3.36883E+02
 -5.58259E+03 -4.98157E+03 -2.03347E+03 -5.46174E+03  3.64870E+03 -5.83140E+03  3.84830E+03 -2.47152E+03
  2.20584E+03  6.21022E+02 -8.24416E+02 -4.14222E+02  2.18628E+02 -9.01013E+02  6.06986E+02 -2.97670E+03
  4.56879E+03 -1.44972E+03  7.28385E+03 -4.30957E+02  8.24644E+03  3.70731E+03  6.31087E+03  9.18830E+03
 -2.10439E+03  1.10961E+04 -7.93108E+03  8.11824E+03 -1.27962E+04  1.48377E+03 -9.46428E+03 -4.08975E+03
 -4.89577E+03 -7.47028E+03 -8.32565E+02 -6.64916E+03  2.09402E+03 -3.40029E+03  1.51851E+03 -1.69652E+03
  5.95056E+02 -1.29318E+03  2.32290E+03 -3.55577E+03  3.00937E+03 -1.09712E+03  5.20866E+03  7.67669E+02
  5.03937E+03  1.97765E+03  3.13010E+03  2.96796E+03 -1.29561E+03  3.50036E+03 -6.06946E+03  2.05786E+03
 -5.92319E+03 -1.15348E+03 -2.16457E+03 -4.85492E+03  7.19324E+02 -6.99258E+03  2.65826E+03 -6.27542E+03
  6.63357E+03 -3.29236E+03  8.46344E+03  7.94825E+02  5.14884E+03  5.71123E+03  1.27173E+03  7.55129E+03
 -2.92271E+03  7.14272E+03 -4.03057E+03  2.33520E+03 -2.48032E+03 -8.50759E+02 -8.39117E+02 -1.75053E+03
 -1.22129E+03 -5.41266E+02 -1.27081E+03  2.75063E+03 -3.09057E+03  4.24616E+02 -4.93348E+03 -1.19311E+02
 -1.25902E+03 -5.94769E+03  4.78490E+02 -6.52916E+03  3.86239E+03 -4.68798E+03  4.96055E+03 -2.11327E+03
  5.93965E+03  3.44428E+03  1.92171E+03  3.40329E+03 -1.43072E+03  5.39358E+03 -3.27274E+03  3.78675E+03
 -5.08142E+03 -2.64000E+02 -4.82172E+03 -4.24935E+03 -1.38267E+03 -5.48536E+03  1.89696E+03 -3.57447E+03
  4.52739E+03 -1.99562E+03  2.00173E+03  7.32529E+02  2.67913E+02  2.22916E+03  3.88807E+02  1.01738E+03
  2.10580E+03  7.34215E+02  6.63301E+02  9.49244E+02  1.29246E+03  1.86300E+03  2.04444E+03  2.63850E+03
 -4.68544E+02  5.61708E+03 -3.45822E+03  5.97224E+03 -4.85871E+03  1.30878E+03 -5.77842E+03 -8.10575E+02
 -1.98467E+03 -5.77334E+03  5.86056E+02 -5.59057E+03  4.68610E+03 -3.64484E+03  5.62686E+03 -1.53650E+03
  2.92463E+03  1.86857E+03  5.16815E+02  3.60946E+03 -2.21464E+03  1.99267E+03 -1.44429E+03 -5.80960E+02
 -1.28436E+02 -2.92715E+03  1.33682E+03 -2.80354E+03  2.93009E+03 -1.50987E+03  2.01105E+03  6.18534E+02
  1.40019E+03  1.25355E+03  7.24862E+02  3.28223E+02 -1.00394E+03  5.57532E+02  1.12066E+03 -3.83751E+02
 -1.47862E+02  3.97625E+02  1.93957E+03  1.62540E+03  1.11517E+03  3.56139E+03 -4.10562E+02  4.36654E+03
 -2.29636E+03  2.11778E+03 -3.02563E+03  3.04618E+02 -3.41651E+03 -8.91149E+02  5.37839E+01 -1.27597E+03
  5.85776E+02 -1.93974E+03  1.33070E+03 -4.08512E+02  3.30074E+02  9.61289E+02 -6.39452E+02  9.47448E+02
 -2.86844E+03  4.94868E+02 -2.79310E+03 -1.94622E+03 -5.61761E+02 -3.03304E+03  4.37190E+02 -2.05383E+03
  7.12531E+02 -1.69577E+03  1.59785E+03 -3.36134E+02  1.37239E+03  1.19163E+03 -1.97594E+02  1.02110E+03
 -3.58070E+02  7.26160E+01 -7.66039E+02 -1.05905E+03  1.32171E+03 -3.22071E+03  9.63275E+02 -1.41285E+03
  2.41744E+03  1.96755E+01  4.59833E+03  1.31732E+03  1.19375E+03  3.09012E+03 -8.69844E+02  2.16945E+03
 -1.66604E+03  1.20312E+03 -3.25300E+03 -1.51943E+03 -1.11854E+03 -2.88448E+03 -3.22261E+02 -1.51807E+03
  2.85473E+03 -1.42858E+03  1.45197E+03  1.12196E+03 -8.23179E+02  1.24174E+03 -1.93496E+02  2.03572E+03
 -1.73994E+03  1.38862E+03  7.23512E+01  7.39457E+02  4.85244E+02 -6.82870E+02 -8.72756E+02  8.51163E+02
  2.44458E+02  1.47957E+03 -2.07956E+03  7.77845E+02 -1.75163E+03  1.04536E+03 -5.47667E+03 -2.24547E+03
 -1.99984E+03 -2.88538E+03  1.00328E+03 -4.35944E+03  7.97454E+02 -4.78973E+03  4.12230E+03 -1.90080E+03
  4.01388E+03  8.01370E+01  2.21292E+03  2.14072E+03 -5.82823E+02  2.85838E+03 -9.23714E+02  2.49361E+03
 -1.12379E+03  7.29250E+02 -4.38797E+02 -2.62239E+02  7.64862E+02  1.22387E+03  4.31763E+02  7.08453E+02
 -1.92754E+03  7.54809E+01 -1.13499E+03  8.95592E+02 -9.58388E+02 -1.08483E+03 -5.10037E+01 -8.19977E+02
  2.01733E+03 -1.27149E+03  2.29475E+03 -4.89471E+02  1.29942E+03  1.58561E+03 -1.11992E+03  2.42451E+03
 -9.56206E+02  3.44460E+03 -2.94019E+03  1.94154E+03 -2.99109E+03  3.14692E+02 -2.37055E+03 -1.69736E+03
 -1.32168E+03 -3.21619E+03 -1.31181E+02 -3.09536E+03  1.29414E+03 -7.92286E+02  2.52187E+03  2.74844E+02
  1.25903E+03  6.14288E+02  3.38569E+02  9.12661E+02  5.41742E+02 -3.17484E+02  6.00994E+02 -1.22994E+02
  6.83018E+02 -1.45621E+03  1.33595E+03  1.38531E+03  8.18861E+01  1.05021E+03 -1.63478E+02  6.19630E+02
 -2.20061E+03  8.92678E+02 -5.53831E+02  4.87563E+02 -1.04167E+03 -1.78709E+03 -3.12430E+02 -2.07762E+03
  8.05847E+02 -1.96306E+03  9.33054E+02  2.84200E+02  2.09302E+03 -8.47476E+01  1.59554E+03  2.99803E+02
  1.65987E+03  1.30412E+03 -7.54787E+02  1.49568E+03 -5.33192E+02  2.61024E+02 -5.95576E+02  9.19877E+02
 -4.00767E+02 -1.08385E+03 -5.18878E+02  1.29332E+03 -7.40086E+02 -4.24170E+01 -2.07902E+03 -8.35325E+02
 -1.79417E+03  6.21432E+01 -1.05406E+02 -8.64457E+02  1.16187E+03 -2.99998E+03  9.13000E+02 -1.99162E+03
  6.75612E+02  3.04147E+02  2.42869E+02  1.22318E+03 -8.10542E+01  1.53266E+03 -9.67127E+02  1.61179E+03
