 $NMID ID='MM_0lb_SNR200_16hz_g55_15.RAW', FMTDAT='(8E13.5)'
 TRAMP=1., VOLUME=1. $END
  3.08743E+05  2.24886E+02  3.37291E+05  2.50661E+05  8.40411E+04  3.37450E+05 -1.32155E+05  2.50363E+05
 -1.90912E+05  8.39845E+04 -1.09935E+05 -3.37555E+04  1.64033E+03 -5.08169E+04  5.44190E+04 -1.00696E+03
  3.53625E+04  5.34583E+04 -1.59244E+04  7.55106E+04 -6.04870E+04  6.35516E+04 -8.40103E+04  3.14356E+04
 -8.17833E+04 -1.24459E+04 -5.70385E+04 -5.05621E+04 -1.52637E+04 -6.95603E+04  2.65773E+04 -4.60215E+04
  4.03205E+04  4.68190E+03  1.62293E+04  4.81686E+04 -3.40626E+04  4.74993E+04 -6.67348E+04 -3.93875E+02
 -5.28076E+04 -5.63727E+04 -6.22421E+03 -7.58183E+04  3.14301E+04 -5.34512E+04  4.74702E+04 -1.70498E+04
  4.21252E+04  1.10933E+04  3.21996E+04  2.51761E+04  1.49715E+04  2.88079E+04 -4.65313E+03  2.79049E+04
 -2.12366E+04  1.34108E+04 -1.95998E+04 -5.00246E+03  6.19791E+03 -7.50035E+03  2.23451E+04  1.28010E+04
  8.63793E+03  3.40191E+04 -3.22860E+04  3.57980E+04 -6.29078E+04  1.81040E+03 -5.67656E+04 -4.27703E+04
 -1.37107E+04 -6.32130E+04  3.98866E+04 -4.59855E+04  5.72089E+04 -2.24468E+03  3.39292E+04  3.13072E+04
 -5.19937E+03  3.44723E+04 -3.01667E+04  1.52640E+04 -2.95129E+04 -4.90924E+03 -1.62759E+04 -1.06067E+04
 -9.01206E+03 -1.36965E+04 -4.54109E+02 -1.73153E+04  6.70875E+03 -2.22583E+04  1.48379E+04 -1.29383E+04
  1.18398E+04  4.80341E+03 -8.22892E+03  1.30305E+04 -2.05034E+04 -4.46277E+03 -8.51483E+03 -3.36600E+04
  2.24687E+04 -4.27624E+04  4.71458E+04 -1.82626E+04  4.46919E+04  2.00169E+04  1.48140E+04  4.34474E+04
 -1.53308E+04  3.25392E+04 -2.54062E+04  2.68915E+03 -7.75401E+03 -2.77148E+04  1.99725E+04 -3.30907E+04
  4.09232E+04 -9.77901E+03  3.40787E+04  2.45617E+04  1.66588E+04  4.57096E+04 -6.84197E+03  4.91694E+04
 -3.14356E+04  3.29131E+04 -4.03452E+04  1.03969E+04 -4.14827E+04 -1.59316E+04 -2.25461E+04 -3.67074E+04
  8.28851E+03 -3.70508E+04  3.02580E+04 -1.51510E+04  2.80605E+04  1.06103E+04  3.24955E+03  1.90359E+04
 -1.34227E+04  8.31691E+03 -1.04679E+04 -7.21791E+03  4.47703E+03 -1.04199E+04  1.67360E+04  6.63793E+03
  1.27725E+04  2.22464E+04 -6.23256E+03  2.51558E+04 -2.26116E+04  1.14114E+04 -2.82110E+04 -6.16757E+03
 -1.84270E+04 -1.74409E+04 -8.02246E+03 -1.93158E+04  3.64884E+03 -1.77699E+04  1.39567E+04 -1.69951E+04
  2.57305E+04 -1.18586E+04  3.15366E+04  3.45593E+03  2.42806E+04  1.82743E+04  4.18519E+03  3.53054E+04
 -1.67808E+04  3.05685E+04 -2.71049E+04  1.01384E+04 -2.11235E+04 -1.01253E+04 -5.63645E+03 -1.31768E+04
  2.19081E+03 -2.31001E+03 -3.41197E+03  5.60832E+03 -1.59622E+04  5.60519E+03 -1.43636E+04 -7.60748E+03
 -9.69581E+03 -1.89259E+04  4.86736E+03 -2.20138E+04  1.43657E+04 -1.60243E+04  1.65756E+04 -1.54814E+03
  1.00498E+04  1.33837E+04 -1.42778E+03  1.82908E+04 -1.02769E+04  1.03748E+04 -1.77002E+04 -4.08086E+03
 -1.42985E+04 -1.60509E+04 -1.44984E+03 -2.34670E+04  9.59393E+03 -1.94077E+04  1.89128E+04 -9.07093E+03
  1.68343E+04 -1.37266E+03  1.14808E+04  4.07244E+03  6.45459E+03  1.33847E+03  8.63554E+03 -7.51811E+02
  1.60992E+04  1.64961E+03  1.87522E+04  1.44788E+04  1.17764E+04  2.80506E+04 -3.08309E+03  3.17218E+04
 -1.77619E+04  2.53779E+04 -2.90339E+04  1.27302E+04 -3.11756E+04 -2.38780E+03 -2.57749E+04 -1.76133E+04
 -1.11754E+04 -2.52600E+04  8.00673E+03 -2.40514E+04  2.01421E+04 -1.12427E+04  1.68597E+04  4.69177E+03
  7.78651E+03  1.28550E+04 -8.12400E+03  1.18586E+04 -1.64528E+04  2.50092E+03 -1.26426E+04 -9.22317E+03
 -8.77712E+02 -1.42514E+04  6.68543E+03 -1.10083E+04  9.84655E+03 -2.27836E+03  2.66463E+03  5.78696E+03
 -6.55016E+03  2.06555E+03 -4.25167E+03 -5.71821E+03 -3.69159E+02 -1.27600E+04  8.58975E+03 -1.29117E+04
  1.50658E+04 -5.83936E+03  1.71499E+04  3.86742E+03  1.36958E+04  1.27845E+04  6.54182E+03  1.84074E+04
 -3.79893E+03  2.07910E+04 -1.20181E+04  1.31561E+04 -1.45027E+04  2.68712E+03 -9.53273E+03 -4.35729E+03
 -5.49260E+03 -4.27996E+03 -1.26190E+03  2.19252E+03 -1.84734E+03  2.02220E+03 -4.09685E+03  4.38143E+03
 -9.29500E+03 -6.21828E+02 -9.49601E+03 -8.34624E+03 -3.03667E+03 -1.36591E+04  3.69678E+03 -1.10508E+04
  8.67153E+03 -4.45061E+03  6.63778E+03  2.75846E+03 -5.24600E+01  4.46280E+03 -4.49787E+03 -1.57063E+03
 -3.36097E+03 -7.23031E+03 -1.21586E+03 -9.37032E+03  6.08699E+03 -9.69064E+03  1.26487E+04 -5.42218E+03
  1.40438E+04  1.57010E+03  1.16231E+04  7.59928E+03  1.95676E+03  1.05054E+04 -7.01546E+03  1.04052E+04
 -9.30151E+03  2.64692E+03 -4.44642E+03 -2.18903E+03  1.75067E+03 -2.84222E+03  5.89378E+03 -7.92400E+02
  4.21657E+03  3.93108E+03  1.48860E+03  7.46347E+03 -5.53012E+03  6.60100E+03 -9.43009E+03  1.70181E+03
 -5.59535E+03 -4.74945E+03  1.20164E+03 -7.86002E+03  6.44405E+03 -3.85429E+03  4.35752E+03  1.59005E+03
 -4.08457E+02  5.46545E+03 -4.04436E+03  6.79928E+03 -8.08451E+03  3.10406E+03 -6.55470E+03 -2.52042E+03
 -3.30576E+03 -7.66623E+03  2.08715E+03 -1.01384E+04  8.02630E+03 -5.93167E+03  8.57046E+03  1.51942E+03
  5.27436E+03  6.41292E+03 -1.61847E+03  8.99278E+03 -6.14087E+03  5.04444E+03 -7.22834E+03 -4.81923E+02
 -6.10923E+03 -5.85657E+03 -2.66244E+02 -6.53078E+03  3.62532E+03 -6.50092E+03  4.61003E+03 -2.83477E+03
  4.96089E+03  1.15585E+03 -2.60479E+02  1.28232E+03  8.50595E+02 -1.09793E+03  1.45895E+03 -3.31182E+03
  4.45739E+03 -6.33225E+01  8.59895E+03  1.00664E+03  6.25222E+03  5.30847E+03  5.62265E+03  1.06746E+04
 -1.90163E+03  1.23116E+04 -9.07095E+03  8.40527E+03 -1.36909E+04  2.24326E+03 -1.14722E+04 -3.91547E+03
 -5.05617E+03 -8.58557E+03  4.87245E+01 -7.63953E+03  2.16969E+03 -3.82893E+03  2.48980E+03 -2.39403E+03
  1.86409E+03 -2.67140E+03  1.62061E+03 -3.11268E+03  3.94966E+03 -1.78214E+03  4.48977E+03  6.64055E+02
  5.48362E+03  1.63053E+03  1.69983E+03  4.82812E+03 -1.62366E+03  4.50835E+03 -5.48985E+03  3.18224E+03
 -7.63402E+03 -1.14569E+03 -3.67483E+03 -4.66076E+03  7.48309E+01 -7.41562E+03  4.34670E+03 -7.81364E+03
  6.75976E+03 -4.92035E+03  9.08905E+03  1.49787E+03  7.25922E+03  5.65864E+03  2.09529E+03  7.98539E+03
 -3.36707E+03  8.49760E+03 -4.29906E+03  2.09510E+03 -3.40545E+03 -1.50174E+03 -1.24433E+02 -1.10058E+03
 -3.94444E+02  5.22963E+01 -1.20927E+03  2.10131E+03 -3.35180E+03  6.73896E+02 -5.68118E+03 -1.58541E+03
 -1.99705E+03 -5.37168E+03 -3.56902E+02 -7.04094E+03  3.61045E+03 -5.83702E+03  4.32124E+03 -3.06470E+03
  6.14020E+03  3.30194E+03  3.29654E+03  4.79278E+03 -4.48430E+02  6.86237E+03 -3.55844E+03  4.56160E+03
 -5.58070E+03  1.03724E+03 -3.45043E+03 -4.18058E+03  2.25491E+02 -4.24695E+03  3.83672E+03 -2.66542E+03
  4.17918E+03 -1.07155E+03  2.09881E+03  1.13693E+03  3.85010E+02  2.78271E+03  7.58255E+02  1.17786E+03
  2.25008E+03  1.66093E+03  1.27708E+03  9.33026E+02  1.02448E+03  1.91971E+03  1.33810E+03  2.25161E+03
 -9.38414E+02  4.86662E+03 -3.58792E+03  3.82017E+03 -4.33700E+03  6.18220E+02 -6.20083E+03 -1.75754E+03
 -3.17585E+03 -5.82237E+03  9.97930E+02 -7.10777E+03  3.97753E+03 -3.77239E+03  3.58336E+03 -1.77647E+03
  3.81695E+03  2.18313E+03  2.33814E+02  1.09205E+03 -2.17564E+03  7.62585E+02 -1.22134E+03 -3.31561E+02
 -1.81884E+03 -2.40020E+03  1.34846E+03 -3.37594E+03  3.38014E+03 -1.29952E+03  3.12224E+03 -1.43222E+02
  4.74538E+01  9.88017E+02  1.48591E+03  1.51683E+02  3.20667E+02 -3.37813E+02  1.49486E+03  1.33424E+03
 -4.22419E+02 -4.04236E+02  2.96473E+03  1.57397E+03  5.60201E+01  3.70858E+03 -7.60100E+02  3.17029E+03
 -2.89869E+03  2.27163E+03 -3.57975E+03 -9.79275E+01 -3.77595E+03 -9.20745E+02 -1.37769E+02 -1.48623E+03
  4.35310E+01 -1.77305E+03  8.08081E+02 -1.07874E+03  1.95674E+03  1.25733E+03 -3.32608E+01  8.44569E+02
 -2.41310E+03  1.02388E+03 -3.39049E+03 -1.81577E+03 -1.59743E+03 -2.13840E+03 -4.14901E+02 -3.89373E+03
  6.08730E+02  7.28632E+00  1.01317E+03 -6.82737E+02  1.24554E+03 -2.00849E+02  1.39461E+02  2.05750E+03
 -1.01007E+03  7.49919E+02 -2.33196E+03 -1.90360E+03  2.25684E+02 -1.38830E+03  3.43465E+03 -1.64727E+03
  3.22074E+03 -2.59120E+02  4.62669E+03  1.85070E+03  2.67912E+03  1.62770E+03 -2.62092E+02  2.82260E+03
 -2.40132E+03  1.10215E+03 -2.07401E+03 -2.69932E+01 -5.23139E+02 -2.20226E+03  3.64882E+02 -8.22738E+02
  2.44290E+03 -2.06114E+03  2.05051E+03  1.40911E+03  6.05788E+02  2.46444E+03 -3.67348E+02  1.37924E+03
 -2.83273E+03  1.86358E+03 -1.42316E+03  6.08491E+02 -2.04142E+02  8.98568E+02  5.46237E+02 -2.38389E+02
 -4.23784E+02  1.31904E+01 -2.13222E+03  1.55186E+03 -1.88679E+03  3.60880E+02 -3.58014E+03 -2.58834E+03
 -1.78557E+03 -3.70119E+03  1.63623E+03 -4.64323E+03  1.57521E+03 -2.05414E+03  5.45518E+03 -1.13960E+03
  4.25600E+03  1.14192E+03  1.08600E+03  1.82594E+03 -2.74316E+01  2.46681E+03 -1.61144E+03  2.12797E+03
 -1.66509E+03  2.19299E+03 -8.10091E+02 -3.71130E+02 -1.51814E+03  5.93793E+02 -5.15810E+02  2.37358E+02
 -8.46472E+02 -8.92471E+02 -1.04428E+03  8.10956E+02  3.37286E+02 -7.31635E+02 -7.52386E+02 -1.18487E+03
  2.07814E+03 -1.32581E+03  1.35023E+03  6.25563E+02  1.67082E+03  1.84232E+03  5.82899E+02  2.69722E+03
 -4.19335E+02  2.51617E+03 -2.84532E+03  1.45878E+03 -3.75450E+03  1.97209E+01 -2.05123E+03 -1.62205E+03
 -8.51896E+02 -2.80910E+03 -9.95363E+02 -2.23611E+03  1.20736E+03 -6.18632E+01  9.01638E+02  9.61470E+02
  1.27195E+03  7.54584E+02 -6.83204E+02  7.77604E+02 -8.15236E+02  4.73532E+02  3.47975E+02 -3.71651E+02
  2.69973E+02  6.42255E+02  8.16382E+02  1.17974E+03  5.03061E+02  7.12127E+02 -1.40183E+02  1.30343E+03
 -2.03472E+03  1.56777E+03 -1.06668E+03  9.94892E+01 -1.00051E+03 -9.62924E+02  4.10742E+02 -2.03137E+03
  1.57069E+03 -1.24624E+03  1.42586E+03  8.36581E+02  1.11063E+03  6.72104E+02  1.46886E+03  2.01102E+03
  4.61214E+02  1.60365E+02 -1.47288E+03  2.09055E+03 -1.91780E+03  4.91072E+02 -1.88717E+02  1.14884E+03
  2.89554E+01 -3.89014E+01 -7.07684E+02  1.32740E+03 -1.30809E+03  6.74333E+01 -2.25135E+03 -7.33800E+02
  3.34891E+02  5.59374E+02  8.74831E+01 -1.56392E+03  1.47196E+03 -1.73451E+03  4.22030E+02  1.99706E+02
  2.18145E+03 -1.33995E+02  3.69020E+02 -4.20818E+02 -1.76081E+03  1.40023E+03 -6.41848E+02 -2.16289E+02
