 $NMID ID='MM_0lb_SNR200_8hz_g55_90.RAW', FMTDAT='(8E13.5)'
 TRAMP=1., VOLUME=1. $END
  3.10989E+05 -6.52995E+02  3.38181E+05  2.50976E+05  8.46056E+04  3.39048E+05 -1.32169E+05  2.51974E+05
 -1.90027E+05  8.36852E+04 -1.12699E+05 -3.09293E+04 -2.10332E+02 -5.03940E+04  5.35566E+04 -1.36363E+03
  3.62988E+04  5.36263E+04 -1.76197E+04  7.75358E+04 -6.04417E+04  6.44837E+04 -8.52532E+04  3.05109E+04
 -8.27775E+04 -1.26816E+04 -5.92025E+04 -5.22701E+04 -1.61309E+04 -7.17858E+04  2.83911E+04 -4.59892E+04
  4.05488E+04  7.16697E+03  1.78333E+04  4.84355E+04 -3.61066E+04  5.02620E+04 -6.76257E+04 -1.83806E+02
 -5.60569E+04 -5.79977E+04 -5.30652E+03 -7.99237E+04  3.32975E+04 -5.73590E+04  4.98005E+04 -1.75132E+04
  4.49355E+04  1.14586E+04  3.18184E+04  2.69787E+04  1.62097E+04  3.12991E+04 -6.01795E+03  2.69939E+04
 -2.16653E+04  1.25641E+04 -1.82804E+04 -4.94818E+03  7.43877E+03 -7.92925E+03  2.28064E+04  1.52133E+04
  6.86862E+03  3.90284E+04 -3.32583E+04  3.82810E+04 -6.53953E+04  1.03818E+03 -5.94226E+04 -4.43298E+04
 -1.25937E+04 -6.77069E+04  4.16721E+04 -4.66975E+04  6.18870E+04 -3.15038E+03  3.72553E+04  3.48663E+04
 -4.15481E+03  3.91998E+04 -3.27565E+04  1.88285E+04 -3.30298E+04 -3.16071E+03 -2.21557E+04 -1.24995E+04
 -9.27046E+03 -1.56218E+04  9.39417E+02 -2.14708E+04  9.96372E+03 -2.30426E+04  1.49336E+04 -1.10688E+04
  1.07881E+04  5.48527E+03 -1.09019E+04  1.25699E+04 -2.45540E+04 -8.08964E+03 -8.48667E+03 -3.79116E+04
  2.68882E+04 -4.87225E+04  5.26120E+04 -1.99985E+04  5.22643E+04  2.09656E+04  1.81046E+04  4.94736E+04
 -1.64238E+04  3.88074E+04 -2.84213E+04  1.19415E+03 -1.28231E+04 -2.89975E+04  2.13044E+04 -3.76781E+04
  4.43826E+04 -1.36321E+04  4.17835E+04  2.59338E+04  2.26053E+04  5.31793E+04 -8.75183E+03  5.66080E+04
 -3.67338E+04  3.86077E+04 -4.94040E+04  1.04090E+04 -4.92886E+04 -1.81940E+04 -2.69077E+04 -4.24822E+04
  7.19565E+03 -4.35191E+04  3.48459E+04 -1.60870E+04  3.32882E+04  1.07142E+04  7.18917E+03  2.29700E+04
 -1.47312E+04  9.14690E+03 -1.18779E+04 -7.51319E+03  6.19201E+03 -1.13196E+04  1.95871E+04  7.30342E+03
  1.45651E+04  2.22293E+04 -5.16112E+03  2.87215E+04 -2.35278E+04  1.47317E+04 -3.37557E+04 -2.09492E+03
 -2.61440E+04 -1.67346E+04 -1.28234E+04 -2.60768E+04  5.02481E+03 -2.86894E+04  2.08297E+04 -2.52517E+04
  3.39147E+04 -1.49370E+04  3.95877E+04  5.32866E+03  2.72214E+04  2.57808E+04  6.37003E+03  4.14320E+04
 -2.09076E+04  3.69909E+04 -3.19170E+04  1.18341E+04 -2.19229E+04 -7.91679E+03 -4.91465E+03 -1.34413E+04
  3.76489E+01 -8.38154E+02 -1.05690E+04  8.26176E+03 -2.28012E+04  5.84480E+03 -2.13424E+04 -1.01370E+04
 -1.15171E+04 -2.17800E+04  7.36024E+03 -2.84249E+04  2.03068E+04 -1.92858E+04  2.43724E+04 -3.41037E+03
  1.62613E+04  1.70602E+04 -1.07998E+03  2.50501E+04 -1.78347E+04  1.32128E+04 -2.69336E+04 -3.33454E+03
 -1.69472E+04 -2.03436E+04 -4.14066E+03 -2.79580E+04  1.47227E+04 -2.26824E+04  2.46079E+04 -1.32701E+04
  2.40984E+04 -7.97012E+02  1.62377E+04  6.31595E+03  9.07040E+03  1.33207E+03  1.43970E+04 -3.08691E+03
  2.36722E+04  3.24396E+03  2.90217E+04  1.88805E+04  1.97818E+04  4.01529E+04 -3.29337E+03  4.84060E+04
 -2.83110E+04  3.97109E+04 -4.60902E+04  1.98920E+04 -4.96931E+04 -4.54221E+03 -3.82089E+04 -2.91893E+04
 -1.51804E+04 -3.98678E+04  1.36532E+04 -3.65838E+04  2.98889E+04 -1.62240E+04  2.49253E+04  8.07973E+03
  7.66876E+03  1.94450E+04 -1.38895E+04  1.62035E+04 -2.13358E+04  2.75524E+03 -1.71044E+04 -1.23064E+04
 -3.57731E+03 -2.16289E+04  1.03985E+04 -1.48579E+04  1.44341E+04 -1.00502E+03  4.33778E+03  1.15209E+04
 -8.51220E+03  3.59968E+03 -9.41786E+03 -8.69971E+03 -2.84595E+03 -1.99291E+04  1.38638E+04 -2.11537E+04
  2.42562E+04 -1.07586E+04  2.77964E+04  3.42844E+03  2.45080E+04  2.16863E+04  1.20022E+04  3.14971E+04
 -6.38658E+03  3.26075E+04 -2.22504E+04  2.24911E+04 -2.41415E+04  3.69693E+03 -1.43822E+04 -8.03560E+03
 -6.34009E+03 -8.08372E+03  4.81290E+00  1.69054E+03 -3.06736E+03  3.65461E+03 -8.75539E+03  5.90286E+03
 -1.58489E+04 -2.05286E+03 -1.51732E+04 -1.24185E+04 -4.12056E+03 -2.14453E+04  5.57174E+03 -1.75970E+04
  1.67644E+04 -7.98248E+03  9.20589E+03  5.38045E+03 -2.47302E+03  1.00897E+04 -9.84865E+03  4.66181E+02
 -9.14573E+03 -1.12532E+04 -2.09663E+03 -1.65136E+04  1.07546E+04 -1.84752E+04  2.16822E+04 -1.11508E+04
  2.42381E+04  4.28034E+03  1.78824E+04  1.65199E+04  3.98996E+03  2.29375E+04 -1.05629E+04  1.72190E+04
 -1.43786E+04  4.69590E+03 -8.17169E+03 -5.18544E+03  1.98825E+03 -4.57214E+03  8.34219E+03 -1.96725E+03
  8.70607E+03  6.63325E+03  6.93563E+02  1.33127E+04 -1.04398E+04  1.23154E+04 -1.69086E+04  2.16185E+03
 -1.26691E+04 -1.07001E+04 -3.98831E+01 -1.57958E+04  1.13483E+04 -5.93915E+03  1.12547E+04  4.67436E+03
  2.38967E+03  1.03967E+04 -1.10846E+04  1.15629E+04 -1.45472E+04  6.08303E+03 -1.58528E+04 -5.50836E+03
 -9.64964E+03 -1.77111E+04  6.01400E+03 -2.04541E+04  1.68442E+04 -1.26810E+04  1.92813E+04  2.40141E+03
  1.14774E+04  1.51697E+04 -2.68300E+03  1.71296E+04 -1.22667E+04  9.42145E+03 -1.58997E+04  4.10544E+02
 -1.05239E+04 -1.27774E+04 -1.84963E+03 -1.25427E+04  7.93370E+03 -8.82438E+03  9.12870E+03 -2.21500E+03
  6.61077E+03  2.66020E+03 -2.43453E+03  2.67786E+03 -2.59520E+02 -4.59757E+03  2.99691E+03 -1.00307E+04
  1.38201E+04 -6.11360E+03  1.92031E+04  2.14991E+03  1.76490E+04  1.31121E+04  1.12388E+04  2.56377E+04
 -6.19427E+03  2.62898E+04 -2.26461E+04  2.18111E+04 -2.81936E+04  3.40741E+03 -2.35682E+04 -1.02756E+04
 -1.14442E+04 -1.91592E+04 -5.81386E+02 -1.56795E+04  5.18948E+03 -8.96518E+03  6.82571E+03 -5.64949E+03
  4.99109E+03 -2.96833E+03  4.64942E+03 -5.65195E+03  6.84092E+03 -2.79658E+03  7.28647E+03 -3.31734E+03
  1.11660E+04  4.09716E+03  4.59539E+03  1.11168E+04 -3.83876E+03  1.18919E+04 -1.24024E+04  1.05652E+04
 -1.74335E+04 -9.12488E+02 -1.18662E+04 -1.21493E+04 -4.31950E+02 -1.70579E+04  9.93228E+03 -1.84099E+04
  1.71911E+04 -8.85577E+03  2.27509E+04  3.99279E+03  1.54885E+04  1.53872E+04  1.26896E+03  2.15895E+04
 -1.14194E+04  1.78578E+04 -1.20697E+04  4.60957E+03 -8.17434E+03 -2.40875E+03 -3.98439E+03 -2.26736E+03
 -2.24075E+03  4.43242E+02 -1.46668E+03  4.66403E+03 -6.50973E+03  3.26818E+03 -1.05717E+04 -1.29222E+03
 -8.23760E+03 -1.23163E+04 -1.06626E+03 -1.83939E+04  9.69815E+03 -1.56695E+04  1.77974E+04 -5.86673E+03
  1.69067E+04  9.12432E+03  7.48313E+03  1.59143E+04 -3.66219E+03  1.81679E+04 -1.30402E+04  9.99575E+03
 -1.69095E+04  1.85554E+03 -1.19417E+04 -9.97392E+03 -5.73870E+02 -1.31136E+04  8.36629E+03 -9.78848E+03
  1.04479E+04 -1.82976E+03  7.83971E+03  9.14837E+02  2.25422E+03  4.41105E+03  3.83462E+03  2.33363E+03
  4.30460E+03  2.52015E+03  3.06717E+03  9.46329E+02  4.26600E+03  6.07414E+03  3.70395E+03  1.18028E+04
 -2.17290E+03  1.41475E+04 -1.24754E+04  1.49270E+04 -1.72651E+04  4.79965E+03 -1.78304E+04 -7.22239E+03
 -9.33583E+03 -1.72560E+04  2.86790E+03 -1.85464E+04  1.19661E+04 -1.37856E+04  1.45338E+04 -3.91647E+03
  1.25710E+04  3.53734E+03  2.96795E+03  1.06757E+04 -5.78929E+03  6.09318E+03 -8.51520E+03 -2.06348E+03
 -4.85455E+03 -7.06918E+03  2.38277E+03 -8.39361E+03  7.52900E+03 -3.70658E+03  6.76956E+03  1.82910E+03
  4.10880E+03  3.41465E+03  2.17131E+02  2.33647E+03 -1.99867E+03  3.48766E+03  2.98385E+03 -3.86173E+02
  3.48075E+03 -2.63324E+02  9.14338E+03  2.57465E+03  3.32038E+03  1.15570E+04 -1.96953E+03  1.29624E+04
 -9.30496E+03  8.91858E+03 -8.87033E+03  2.82717E+03 -1.11518E+04 -4.49033E+03 -6.24381E+03 -7.38058E+03
  9.55404E+02 -6.18385E+03  4.22769E+03 -3.93696E+03  4.52101E+03  3.57915E+03 -2.19805E+03  6.58195E+03
 -8.11890E+03  4.53413E+03 -1.05909E+04 -3.11471E+03 -5.12777E+03 -1.01640E+04  5.88239E+02 -9.86607E+03
  6.57318E+03 -7.09262E+03  7.73146E+03 -1.02388E+03  4.12986E+03  3.63306E+03  1.64865E+03  4.75575E+03
 -3.22649E+03  2.16928E+02 -4.77276E+03 -3.83321E+03  1.92646E+03 -7.97622E+03  8.18848E+03 -6.04305E+03
  1.20308E+04 -1.66646E+03  1.14307E+04  8.67212E+03  1.84560E+03  1.36821E+04 -3.41701E+03  9.91166E+03
 -1.07554E+04  5.42763E+03 -1.05811E+04 -1.44197E+03 -5.71962E+03 -7.52164E+03  1.01480E+03 -8.91027E+03
  7.94776E+03 -3.40933E+03  6.97744E+03  2.37063E+03  2.33812E+03  6.73579E+03 -1.75934E+03  4.77495E+03
 -3.59444E+03  1.69196E+03 -2.39360E+03  1.33633E+03 -2.19471E+03  1.82073E+03 -2.81685E+03  2.85432E+03
 -4.38407E+03  5.22940E+03 -6.57104E+03  6.04313E+03 -1.21103E+04  3.77398E+02 -1.29980E+04 -8.13808E+03
 -6.97020E+03 -1.56680E+04  2.67547E+03 -1.74081E+04  1.19503E+04 -1.44151E+04  1.75498E+04 -6.36310E+03
  1.58610E+04  3.19591E+03  1.13521E+04  1.17459E+04  1.57529E+03  1.21536E+04 -4.37957E+03  1.04950E+04
 -9.87104E+03  3.12935E+03 -4.21794E+03 -2.66690E+03 -1.35379E+03 -2.09064E+03 -7.05767E+02 -4.25609E+02
 -2.76873E+03 -1.17120E+03 -2.12232E+03  1.00022E+02 -3.30632E+02 -2.31200E+03  8.17436E+02 -2.98432E+03
  5.13470E+03 -4.00989E+03  7.27312E+03 -2.82558E+03  9.99809E+03  7.47288E+03  4.24349E+03  1.20709E+04
 -4.37377E+03  1.46486E+04 -1.37491E+04  8.76215E+03 -1.73848E+04 -1.21464E+03 -1.20894E+04 -1.07726E+04
 -4.38991E+03 -1.54277E+04  7.23854E+02 -1.09748E+04  8.58246E+03 -7.78389E+03  9.97103E+03  8.77459E+02
  4.55475E+03  3.02827E+03 -9.69297E+02  3.71636E+03 -2.01575E+03  3.23720E+02  9.92050E+02 -1.93823E+03
  3.41274E+03 -2.65792E+03  5.40055E+03  1.96378E+03  4.43292E+03  6.82899E+03 -9.36772E+02  6.64960E+03
 -6.24805E+03  6.18114E+03 -8.93471E+03  4.40534E+02 -8.09564E+03 -5.64626E+03 -1.95651E+03 -1.15401E+04
  6.95436E+03 -1.00938E+04  1.20311E+04 -3.71059E+03  9.16798E+03  2.96373E+03  5.74772E+03  6.85216E+03
  8.78883E+02  9.02619E+03 -2.93712E+03  8.09642E+03 -6.78724E+03  2.35745E+03 -3.12340E+03  1.01743E+03
 -2.00966E+03 -1.24963E+03 -2.80853E+03  1.50582E+03 -4.44687E+03  8.94970E+02 -7.05549E+03 -6.59944E+02
 -6.31679E+03 -4.99376E+03 -1.49525E+03 -1.11396E+04  4.44883E+03 -7.82362E+03  8.91898E+03 -5.27510E+03
  8.71731E+03  7.94243E+02  5.51175E+03  5.76558E+03  6.33744E+01  1.08904E+04 -7.84574E+03  6.68584E+03
