 $NMID ID='MM_0lb_SNR200_12hz_g60_21.RAW', FMTDAT='(8E13.5)'
 TRAMP=1., VOLUME=1. $END
  3.09908E+05  1.53055E+02  3.37057E+05  2.52064E+05  8.50250E+04  3.37402E+05 -1.33137E+05  2.51697E+05
 -1.90791E+05  8.41350E+04 -1.12544E+05 -3.12607E+04  2.14295E+02 -5.16601E+04  5.38008E+04 -1.09132E+03
  3.49749E+04  5.28941E+04 -1.83798E+04  7.60204E+04 -6.14844E+04  6.28533E+04 -8.51904E+04  3.21707E+04
 -8.01638E+04 -1.10694E+04 -5.82989E+04 -5.26372E+04 -1.41760E+04 -7.08327E+04  2.78352E+04 -4.68399E+04
  4.02217E+04  4.18246E+03  1.59664E+04  4.94756E+04 -3.38480E+04  5.08229E+04 -6.91450E+04 -4.19309E+01
 -5.42432E+04 -5.84276E+04 -7.98295E+03 -7.72717E+04  3.59276E+04 -5.54070E+04  4.94168E+04 -1.82512E+04
  4.61563E+04  1.10616E+04  3.31502E+04  2.62692E+04  1.61989E+04  3.10228E+04 -5.70973E+03  2.85674E+04
 -2.17565E+04  1.12883E+04 -1.76894E+04 -5.98217E+03  7.57871E+03 -7.31573E+03  2.32897E+04  1.27731E+04
  7.15049E+03  3.70042E+04 -3.37380E+04  3.64600E+04 -6.49761E+04  3.92500E+03 -5.81236E+04 -4.45266E+04
 -1.17566E+04 -6.46697E+04  4.10876E+04 -4.57757E+04  6.08843E+04 -3.37046E+03  3.70426E+04  3.48293E+04
 -5.02230E+03  3.88443E+04 -3.07681E+04  1.80579E+04 -3.27542E+04 -3.20826E+03 -1.79346E+04 -1.08266E+04
 -9.77141E+03 -1.45626E+04 -2.14551E+02 -1.91428E+04  9.11031E+03 -2.29564E+04  1.54952E+04 -1.18946E+04
  1.14832E+04  6.64210E+03 -1.09159E+04  1.30391E+04 -2.18821E+04 -6.74709E+03 -8.82023E+03 -3.54733E+04
  2.39294E+04 -4.67250E+04  5.11426E+04 -1.98256E+04  4.87048E+04  2.06679E+04  1.65696E+04  4.59162E+04
 -1.65433E+04  3.57578E+04 -2.62747E+04  2.00239E+03 -1.17074E+04 -2.79196E+04  2.13439E+04 -3.64700E+04
  4.45764E+04 -1.21006E+04  3.87892E+04  2.36706E+04  1.97330E+04  4.96326E+04 -8.14583E+03  5.42528E+04
 -3.49215E+04  3.87541E+04 -4.56027E+04  1.03968E+04 -4.72509E+04 -1.82594E+04 -2.53249E+04 -4.09293E+04
  8.82923E+03 -4.10501E+04  3.38123E+04 -1.67641E+04  3.18277E+04  1.13063E+04  4.95190E+03  2.01630E+04
 -1.31637E+04  7.36602E+03 -1.13895E+04 -6.39030E+03  5.68464E+03 -1.14388E+04  1.86095E+04  6.52528E+03
  1.46022E+04  2.31139E+04 -5.08944E+03  2.60165E+04 -2.22191E+04  1.45580E+04 -3.08444E+04 -3.80960E+03
 -2.48393E+04 -1.92024E+04 -1.11165E+04 -2.28473E+04  4.71932E+03 -2.46924E+04  1.69712E+04 -2.26960E+04
  3.10972E+04 -1.39661E+04  3.62531E+04  4.71431E+03  2.56874E+04  2.27010E+04  4.15785E+03  3.92406E+04
 -1.86299E+04  3.21385E+04 -3.11355E+04  1.21540E+04 -2.36594E+04 -9.58914E+03 -4.69115E+03 -1.39415E+04
  8.81143E+02 -1.16172E+03 -5.88939E+03  7.47898E+03 -2.01306E+04  5.67320E+03 -1.71341E+04 -8.15464E+03
 -1.15267E+04 -2.26873E+04  5.05847E+03 -2.55043E+04  1.68714E+04 -1.87835E+04  2.09782E+04 -2.07651E+03
  1.45412E+04  1.58918E+04 -9.70566E+02  2.09923E+04 -1.56070E+04  1.41732E+04 -2.09530E+04 -4.51256E+03
 -1.54988E+04 -1.91402E+04 -1.52200E+03 -2.71465E+04  1.28277E+04 -2.17877E+04  2.20087E+04 -1.04117E+04
  2.15544E+04  7.55949E+02  1.46145E+04  5.13169E+03  7.48549E+03  1.73243E+03  1.07798E+04 -1.47758E+03
  2.05790E+04  1.16207E+03  2.13132E+04  1.78952E+04  1.54284E+04  3.49118E+04 -3.87927E+03  4.10426E+04
 -2.38185E+04  3.37024E+04 -3.85635E+04  1.55145E+04 -4.02379E+04 -3.39857E+03 -3.36487E+04 -2.45677E+04
 -1.43786E+04 -3.35738E+04  1.11286E+04 -3.08151E+04  2.56755E+04 -1.47766E+04  2.10758E+04  6.63644E+03
  9.03423E+03  1.72162E+04 -9.51562E+03  1.44913E+04 -1.87399E+04  1.49059E+03 -1.37698E+04 -1.30691E+04
  5.76257E+02 -1.84117E+04  9.12610E+03 -1.34280E+04  1.28514E+04 -1.01852E+03  3.27272E+03  7.21501E+03
 -7.07420E+03  3.80940E+03 -8.47091E+03 -5.86677E+03 -1.41934E+03 -1.65143E+04  1.10835E+04 -1.77418E+04
  2.13417E+04 -8.46973E+03  2.23532E+04  3.31415E+03  1.80427E+04  1.62768E+04  8.49513E+03  2.58682E+04
 -3.64211E+03  2.77623E+04 -2.04531E+04  1.65426E+04 -1.90781E+04  1.67826E+03 -1.42463E+04 -6.13891E+03
 -4.69889E+03 -6.31209E+03 -1.14032E+03 -3.07601E+02 -1.84022E+03  3.64789E+03 -5.47589E+03  5.62177E+03
 -1.11552E+04 -9.97825E+02 -1.47049E+04 -1.01007E+04 -6.57315E+03 -1.75432E+04  5.42420E+03 -1.40680E+04
  1.19049E+04 -4.64188E+03  8.51218E+03  2.58882E+03 -3.06186E+02  4.67124E+03 -7.37012E+03 -1.44060E+03
 -6.28231E+03 -8.55685E+03 -1.37368E+03 -1.31046E+04  7.61283E+03 -1.48455E+04  1.87177E+04 -7.84032E+03
  2.10473E+04  1.50921E+03  1.59466E+04  1.11622E+04  2.22862E+03  1.57162E+04 -8.75174E+03  1.44910E+04
 -1.00113E+04  4.58578E+03 -6.83529E+03 -3.91583E+03  1.74945E+03 -3.61046E+03  8.26949E+03  6.47817E+01
  6.76070E+03  8.52722E+03  4.78297E+02  1.04812E+04 -7.43529E+03  1.06956E+04 -1.37401E+04  1.55704E+03
 -8.41611E+03 -7.13293E+03  8.65405E+02 -1.03568E+04  7.27190E+03 -6.60692E+03  8.56590E+03  3.24836E+03
  1.58751E+03  7.20351E+03 -6.18958E+03  1.03134E+04 -1.21229E+04  4.76679E+03 -1.06513E+04 -3.14699E+03
 -6.83002E+03 -1.35398E+04  2.25478E+03 -1.58663E+04  1.24135E+04 -9.17442E+03  1.29881E+04  3.50342E+03
  8.59697E+03  1.23789E+04 -1.31883E+03  1.37216E+04 -1.00018E+04  7.39170E+03 -1.08051E+04 -2.57896E+03
 -8.85957E+03 -9.55851E+03 -1.94782E+03 -1.04963E+04  4.77084E+03 -8.47843E+03  6.75011E+03 -3.35171E+03
  5.27029E+03  8.42060E+02 -1.36316E+03  2.06112E+03 -1.07798E+03 -1.42675E+03  1.94983E+03 -6.31080E+03
  9.31681E+03 -4.53263E+03  1.31050E+04  1.37591E+03  1.35129E+04  7.72573E+03  8.94444E+03  1.66478E+04
 -2.97768E+03  1.83513E+04 -1.67537E+04  1.27874E+04 -1.97350E+04  1.63933E+03 -1.76755E+04 -6.03330E+03
 -9.42666E+03 -1.51608E+04 -2.93702E+02 -1.18259E+04  4.57542E+03 -4.92850E+03  2.74984E+03 -5.14807E+03
  3.13515E+03 -1.90916E+03  2.94427E+03 -2.87849E+03  5.25910E+03 -1.90417E+03  6.94780E+03 -1.07361E+03
  1.04933E+04  3.45701E+03  4.95781E+03  9.10906E+03 -1.76081E+03  8.88667E+03 -9.20027E+03  6.57808E+03
 -1.08481E+04 -7.31150E+02 -5.87569E+03 -7.42305E+03 -1.67739E+03 -1.19042E+04  6.35206E+03 -1.14251E+04
  1.27275E+04 -7.09507E+03  1.50696E+04  2.27329E+03  1.06412E+04  9.94700E+03  1.43395E+03  1.40841E+04
 -4.72288E+03  1.05261E+04 -8.42892E+03  5.54214E+03 -4.48843E+03 -2.55043E+03 -1.97464E+03 -1.87583E+03
 -1.57470E+03  1.17775E+03 -2.08635E+03  1.59066E+03 -4.48975E+03  7.52621E+02 -8.57679E+03 -7.01782E+02
 -5.20562E+03 -7.53459E+03  5.35050E+02 -1.10481E+04  6.72555E+03 -1.05428E+04  1.06082E+04 -4.02787E+03
  1.01320E+04  4.54405E+03  4.80247E+03  9.80517E+03 -1.86478E+02  1.20768E+04 -6.67351E+03  6.39995E+03
 -1.04813E+04  1.45241E+03 -9.20038E+03 -6.97766E+03 -1.25239E+03 -8.63796E+03  4.24591E+03 -8.15360E+03
  6.69002E+03 -2.38540E+03  5.68755E+03  3.47748E+03  1.21157E+03  5.07429E+03  1.30190E+03  8.64653E+02
  3.36194E+03  6.90406E+02  1.71474E+03  1.35045E+03  2.72803E+03  3.89625E+03  4.08023E+03  5.06224E+03
 -2.88689E+03  8.09639E+03 -7.29022E+03  9.22816E+03 -1.20725E+04  2.82189E+03 -1.13063E+04 -3.66918E+03
 -5.01146E+03 -1.09188E+04  3.82636E+02 -1.24014E+04  6.80515E+03 -6.41852E+03  9.41491E+03 -3.27466E+03
  6.19565E+03  3.72374E+03  2.30030E+03  5.38736E+03 -3.84152E+03  3.48276E+03 -4.01712E+03 -1.50663E+03
 -3.57239E+02 -4.92650E+03  2.93236E+03 -4.70276E+03  5.03922E+03 -1.39722E+03  4.45037E+03  9.99924E+02
  2.42602E+03  2.66689E+03  2.01693E+03  1.80886E+03 -3.78874E+02  2.72939E+03  5.98916E+02 -1.10034E+03
  1.58195E+03 -2.54792E+02  5.18227E+03  2.12916E+03  2.06353E+03  6.08221E+03 -2.50706E+02  6.73473E+03
 -4.93800E+03  4.83355E+03 -8.21448E+03  2.63324E+03 -6.04447E+03 -1.76105E+03 -1.89175E+03 -4.67633E+03
  1.32397E+03 -3.16969E+03  2.65094E+03 -1.84552E+03  4.15847E+02  2.66503E+03 -2.52504E+02  4.27331E+03
 -3.41229E+03  2.19034E+03 -3.02195E+03 -2.21861E+03 -2.29972E+03 -5.65883E+03 -8.56339E+02 -5.12966E+03
  2.41613E+03 -5.16779E+03  4.19026E+03 -1.35997E+03  2.88866E+03  2.83459E+03  1.50214E+03  3.23554E+03
 -1.09877E+03  1.31606E+03 -2.40070E+03 -2.03907E+03  9.50842E+02 -5.19753E+03  4.96875E+03 -4.35313E+03
  6.97665E+03 -7.42947E+02  5.19601E+03  4.21055E+03  3.15848E+03  6.34435E+03 -7.62298E+02  5.91032E+03
 -5.15073E+03  2.94208E+03 -5.84372E+03 -5.33854E+02 -3.14551E+03 -3.80508E+03 -2.08668E+02 -4.21555E+03
  3.84837E+03 -1.72813E+03  3.40697E+03  5.46873E+02  1.67739E+03  2.14940E+03 -6.53200E+01  3.91622E+03
 -1.43500E+03  1.90925E+03 -1.79377E+03 -1.03595E+02 -9.25986E+02  3.50064E+02 -2.38876E+02  1.35719E+03
 -1.89459E+03  2.51074E+03 -4.51284E+03  1.54411E+03 -6.95849E+03  2.54478E+02 -8.05243E+03 -4.01356E+03
 -3.80339E+03 -9.03896E+03  2.52203E+03 -8.61291E+03  4.56851E+03 -8.33926E+03  9.24458E+03 -2.27184E+03
  9.34524E+03  2.08327E+03  6.07907E+03  6.43605E+03  9.73965E+02  5.74839E+03 -2.59880E+03  6.25179E+03
 -4.51057E+03  2.57681E+03 -2.85237E+03 -7.77420E+02 -1.31317E+03 -1.15128E+03 -1.00948E+03  1.40855E+03
 -2.15488E+03  2.16264E+02 -2.84617E+03 -4.32676E+02  7.34967E+02 -2.57662E+03  1.32561E+03 -2.88493E+03
  4.16201E+03 -2.35486E+03  4.60953E+03  2.93474E+02  5.55781E+03  2.55152E+03  1.28699E+03  7.21068E+03
 -3.06166E+03  6.23733E+03 -6.14585E+03  4.68584E+03 -7.83374E+03 -2.93753E+02 -4.60758E+03 -4.40784E+03
 -2.09673E+03 -5.03234E+03  1.17287E+03 -7.26095E+03  2.91478E+03 -3.83142E+03  4.47869E+03  1.26764E+01
  2.14040E+03  3.34971E+03  5.04360E+02  1.83675E+03 -1.52378E+03 -4.34007E+02 -6.35644E+02 -1.70570E+03
  2.31090E+03 -7.40518E+02  2.88635E+03  7.89478E+02  2.19021E+03  1.35442E+03 -2.36754E+02  2.54396E+03
 -2.34722E+03  3.43781E+03 -4.75373E+03  1.31115E+02 -3.28653E+03 -2.20775E+03 -1.61692E+03 -6.49590E+03
  2.91484E+03 -4.26463E+03  3.36125E+03 -1.03809E+03  4.92049E+03  1.86209E+03  3.14709E+03  3.76673E+03
 -7.93931E+00  3.04504E+03 -1.70862E+03  4.11775E+03 -3.18616E+03  1.07953E+03 -2.89935E+03  1.61105E+03
 -1.82942E+03  1.47876E+03 -1.83598E+03  1.42520E+03 -3.06529E+03  1.47746E+03 -2.82240E+03 -4.01373E+02
 -4.28455E+03 -2.74212E+03 -8.37824E+02 -4.64424E+03  1.64117E+03 -5.04695E+03  3.42303E+03 -1.42101E+03
  3.03068E+03  8.29408E+02  1.34828E+03  2.31672E+03  1.09785E+03  5.02931E+03 -3.67040E+03  3.50443E+03
