 $NMID ID='MM_0lb_SNR200_9hz_g40_63.RAW', FMTDAT='(8E13.5)'
 TRAMP=1., VOLUME=1. $END
  3.10924E+05  6.44739E+02  3.36809E+05  2.50873E+05  8.58729E+04  3.38915E+05 -1.31840E+05  2.51720E+05
 -1.91216E+05  8.30183E+04 -1.12074E+05 -3.25677E+04  9.47874E+02 -4.93666E+04  5.51705E+04 -2.52613E+02
  3.75658E+04  5.26382E+04 -1.60366E+04  7.64973E+04 -6.17828E+04  6.34094E+04 -8.43541E+04  3.16798E+04
 -8.23446E+04 -1.20531E+04 -5.72964E+04 -5.18388E+04 -1.43930E+04 -7.08694E+04  2.73988E+04 -4.60368E+04
  4.25410E+04  4.27161E+03  1.57892E+04  4.90334E+04 -3.40825E+04  4.83095E+04 -6.69446E+04  1.40444E+03
 -5.42086E+04 -5.82727E+04 -7.77988E+03 -7.85877E+04  3.50676E+04 -5.51377E+04  5.04725E+04 -1.83730E+04
  4.53607E+04  1.15590E+04  3.31333E+04  2.58440E+04  1.47578E+04  3.21199E+04 -5.00328E+03  2.91421E+04
 -2.21267E+04  1.21308E+04 -1.91812E+04 -5.46662E+03  8.33108E+03 -8.39521E+03  2.33643E+04  1.43095E+04
  6.08667E+03  3.56540E+04 -3.44207E+04  3.73833E+04 -6.51428E+04  2.86291E+03 -5.94893E+04 -4.47808E+04
 -1.17932E+04 -6.54323E+04  4.22926E+04 -4.59624E+04  6.19839E+04 -2.11730E+03  3.70893E+04  3.18666E+04
 -5.03066E+03  3.81760E+04 -3.11522E+04  1.70802E+04 -3.26083E+04 -3.46597E+03 -1.90595E+04 -1.10290E+04
 -8.93827E+03 -1.32714E+04  1.63728E+03 -1.99632E+04  9.81147E+03 -2.35597E+04  1.59994E+04 -1.35356E+04
  9.67842E+03  5.44093E+03 -1.06610E+04  1.11861E+04 -2.31431E+04 -6.73764E+03 -7.83409E+03 -3.56552E+04
  2.35433E+04 -4.72812E+04  5.08502E+04 -2.00961E+04  4.98986E+04  2.08962E+04  1.56640E+04  4.51724E+04
 -1.72362E+04  3.62583E+04 -2.77492E+04  2.46228E+03 -1.11138E+04 -2.93430E+04  2.05424E+04 -3.73100E+04
  4.46531E+04 -1.03444E+04  3.94919E+04  2.35147E+04  2.10604E+04  4.90844E+04 -8.30216E+03  5.48819E+04
 -3.38296E+04  3.74313E+04 -4.52886E+04  1.10706E+04 -4.69079E+04 -1.80922E+04 -2.60259E+04 -4.09797E+04
  7.36224E+03 -4.14787E+04  3.19736E+04 -1.42538E+04  3.16408E+04  9.14933E+03  3.37430E+03  2.09176E+04
 -1.44463E+04  8.53332E+03 -1.14627E+04 -9.23015E+03  5.42274E+03 -1.10263E+04  1.79115E+04  4.36414E+03
  1.50130E+04  2.11866E+04 -4.94756E+03  2.60479E+04 -2.40599E+04  1.35284E+04 -3.04068E+04 -2.61772E+03
 -2.38806E+04 -1.76201E+04 -1.15505E+04 -2.32206E+04  5.14147E+03 -2.42803E+04  1.90848E+04 -2.26892E+04
  3.16189E+04 -1.37574E+04  3.76205E+04  3.76344E+03  2.53964E+04  2.36940E+04  4.60604E+03  4.00350E+04
 -1.91898E+04  3.35301E+04 -3.08832E+04  1.00187E+04 -2.06539E+04 -1.14142E+04 -4.71304E+03 -1.28174E+04
  4.80331E+02 -1.37537E+03 -7.37375E+03  8.00691E+03 -1.87439E+04  4.54594E+03 -2.02053E+04 -8.73496E+03
 -1.41978E+04 -2.19686E+04  6.62461E+03 -2.78241E+04  1.79817E+04 -1.94934E+04  2.25787E+04 -1.76713E+03
  1.46023E+04  1.45414E+04 -9.77998E+02  2.17200E+04 -1.64637E+04  1.29405E+04 -2.25879E+04 -3.90763E+03
 -1.66061E+04 -2.07550E+04 -7.70358E+02 -2.73931E+04  1.15136E+04 -2.18900E+04  2.04101E+04 -1.06464E+04
  2.15378E+04 -1.03172E+02  1.63032E+04  4.29084E+03  9.26506E+03  1.05642E+03  1.28170E+04 -7.34221E+02
  2.08765E+04  3.13253E+03  2.54166E+04  1.80376E+04  1.60170E+04  3.65223E+04 -2.59764E+03  4.18274E+04
 -2.30477E+04  3.52990E+04 -3.89621E+04  1.80138E+04 -4.44306E+04 -3.06195E+03 -3.40114E+04 -2.48450E+04
 -1.35345E+04 -3.46948E+04  1.26052E+04 -3.06072E+04  2.73555E+04 -1.47119E+04  2.25359E+04  6.99071E+03
  9.53167E+03  1.74361E+04 -1.15834E+04  1.59092E+04 -1.98083E+04  2.20685E+03 -1.42688E+04 -1.22978E+04
 -5.85124E+02 -1.87581E+04  9.88388E+03 -1.44083E+04  1.19445E+04 -1.03280E+03  3.22950E+03  8.64359E+03
 -7.59363E+03  3.99077E+03 -9.68483E+03 -6.72068E+03 -2.58107E+03 -1.79134E+04  1.19657E+04 -1.89046E+04
  2.16562E+04 -9.00746E+03  2.39995E+04  4.13515E+03  2.16694E+04  1.74960E+04  8.07418E+03  2.85126E+04
 -6.13783E+03  2.93015E+04 -1.95526E+04  2.00309E+04 -2.23002E+04  3.34312E+03 -1.45989E+04 -6.07037E+03
 -6.24190E+03 -7.41798E+03 -4.86641E+02  5.91503E+02 -3.52588E+03  4.46514E+03 -8.31926E+03  6.10849E+03
 -1.49983E+04  5.53828E+02 -1.49668E+04 -1.10411E+04 -6.63404E+03 -2.00835E+04  6.87907E+03 -1.44297E+04
  1.26384E+04 -6.59080E+03  9.27744E+03  4.77247E+03 -1.37143E+03  4.47267E+03 -7.34378E+03 -2.62219E+02
 -7.96187E+03 -9.43190E+03 -2.91306E+03 -1.33500E+04  9.55309E+03 -1.45548E+04  1.94221E+04 -8.34925E+03
  2.37502E+04  3.29283E+03  1.69574E+04  1.45415E+04  3.06264E+03  1.79986E+04 -8.93924E+03  1.59964E+04
 -1.40465E+04  4.57300E+03 -6.10936E+03 -1.27245E+03  9.81052E+02 -3.63073E+03  7.04993E+03 -9.91619E+02
  7.79680E+03  7.90309E+03  5.57003E+02  1.36838E+04 -8.56220E+03  1.16384E+04 -1.39319E+04  4.56216E+03
 -7.96485E+03 -7.71050E+03 -5.44846E+02 -1.27491E+04  8.09123E+03 -7.46562E+03  7.96073E+03  1.62479E+03
  1.41077E+03  9.46595E+03 -7.58455E+03  1.21517E+04 -1.36907E+04  4.73548E+03 -1.36106E+04 -5.52992E+03
 -8.74845E+03 -1.57658E+04  4.32181E+03 -1.72829E+04  1.50707E+04 -1.06096E+04  1.64615E+04  3.19704E+03
  1.02851E+04  1.17241E+04 -2.80292E+03  1.53207E+04 -1.04897E+04  9.10394E+03 -1.39247E+04 -2.32193E+03
 -1.11484E+04 -9.37521E+03 -3.01196E+03 -1.27578E+04  7.30884E+03 -8.20944E+03  8.58284E+03 -3.42788E+03
  3.61161E+03  2.00653E+03 -9.59604E+02  2.51426E+03  4.64876E+02 -3.99085E+03  3.30027E+03 -6.88638E+03
  1.15751E+04 -4.67231E+03  1.61386E+04  2.89199E+03  1.47080E+04  1.21382E+04  9.16077E+03  1.91614E+04
 -3.87681E+03  2.19613E+04 -1.78776E+04  1.67969E+04 -2.50961E+04  2.21406E+03 -1.89685E+04 -9.21009E+03
 -9.10016E+03 -1.67986E+04 -3.98232E+02 -1.36099E+04  4.98632E+03 -8.51560E+03  5.87074E+03 -5.60448E+03
  4.55871E+03 -3.92037E+03  3.95806E+03 -2.66850E+03  5.49659E+03 -3.75617E+03  6.87426E+03 -1.70727E+03
  1.01258E+04  1.31451E+03  3.39253E+03  7.37910E+03 -2.75007E+03  1.31235E+04 -1.17704E+04  8.68108E+03
 -1.52501E+04 -1.58619E+03 -7.79410E+03 -9.78941E+03 -6.66014E+02 -1.58242E+04  7.62845E+03 -1.41581E+04
  1.59776E+04 -8.06389E+03  1.80246E+04  2.89071E+03  1.34054E+04  1.19703E+04  1.18060E+03  1.62431E+04
 -6.10502E+03  1.33540E+04 -9.30560E+03  4.48825E+03 -6.47667E+03 -1.07428E+03 -4.00252E+03 -2.78365E+03
 -1.09490E+03 -9.09400E+02 -2.69162E+03  5.07090E+03 -5.44883E+03  4.28053E+03 -9.58509E+03 -8.50323E+02
 -6.87211E+03 -1.13901E+04  1.15189E+03 -1.26995E+04  8.19804E+03 -1.16834E+04  1.39115E+04 -2.61039E+03
  1.40338E+04  6.74813E+03  7.24283E+03  1.22415E+04 -3.46524E+03  1.43181E+04 -1.00775E+04  8.27517E+03
 -1.26068E+04  7.40441E+02 -9.83987E+03 -8.82719E+03 -1.78196E+03 -1.13167E+04  6.18080E+03 -7.28571E+03
  8.56337E+03 -2.97880E+03  6.93921E+03  3.42243E+03  2.85502E+03  4.19190E+03  4.53316E+02  2.87311E+03
  2.93458E+03  1.42503E+03  4.74296E+03  2.03752E+03  4.71308E+03  4.79002E+03  3.20437E+03  7.44026E+03
 -3.13583E+03  9.91627E+03 -8.84259E+03  1.12421E+04 -1.43205E+04  3.04080E+03 -1.53246E+04 -4.35907E+03
 -6.60618E+03 -1.33598E+04  1.66466E+03 -1.58278E+04  8.74797E+03 -9.90623E+03  1.15385E+04 -2.28657E+03
  8.58076E+03  5.53224E+03  7.74736E+02  7.99624E+03 -4.81195E+03  5.79679E+03 -4.82067E+03 -2.10234E+03
 -1.83073E+03 -6.45665E+03  2.60689E+03 -6.18451E+03  4.47519E+03 -4.41556E+03  5.38649E+03  2.43183E+03
  2.25910E+03  2.90171E+03  2.14077E+02  3.69826E+03 -7.50040E+02  2.10649E+03  1.74511E+03 -4.15872E+02
  2.74626E+03 -2.93377E+03  6.49382E+03  1.23694E+03  2.96018E+03  7.51964E+03 -2.74218E+02  1.14203E+04
 -8.66322E+03  7.78954E+03 -9.25869E+03  8.09883E+02 -8.89265E+03 -2.27724E+03 -1.60135E+03 -5.67467E+03
  6.23847E+02 -5.86596E+03  4.45456E+03 -7.08635E+02  3.93920E+03  3.14651E+03 -2.49826E+03  5.06904E+03
 -6.04987E+03  2.20908E+03 -6.66954E+03 -4.05611E+03 -4.55054E+03 -8.92114E+03  2.41082E+03 -6.50766E+03
  4.84183E+03 -3.51726E+03  7.72971E+03 -1.89542E+03  4.20422E+03  1.57436E+03  2.80374E+03  3.58163E+03
 -4.60574E+03  5.97727E+02 -3.18691E+03 -4.79394E+03  3.60719E+02 -5.87818E+03  7.23685E+03 -3.50305E+03
  9.48242E+03  3.46487E+02  7.83605E+03  5.17424E+03  3.60973E+03  1.17921E+04 -3.61629E+03  8.68645E+03
 -6.80228E+03  5.49231E+03 -6.70848E+03 -3.03324E+03 -4.64320E+03 -7.01274E+03  1.59894E+03 -7.02753E+03
  5.76563E+03 -3.44734E+03  4.85778E+03  1.37872E+03  1.66756E+03  5.65243E+03 -1.54533E+03  3.75459E+03
 -3.00083E+03  2.71471E+03 -3.95184E+03  4.40236E+02  4.56418E+02  9.33842E+02 -1.41657E+03  3.74607E+03
 -1.10869E+03  3.31195E+03 -5.94928E+03  2.58516E+03 -9.30473E+03  5.17823E+02 -1.10526E+04 -5.17039E+03
 -4.53488E+03 -1.27992E+04  1.85543E+03 -1.30392E+04  7.64735E+03 -9.46530E+03  1.28960E+04 -3.88503E+03
  1.29160E+04  1.04492E+03  8.11801E+03  8.37235E+03 -3.72856E+02  9.71281E+03 -3.58816E+03  9.56371E+03
 -5.71580E+03  3.60799E+03 -3.98171E+03 -2.16667E+01 -1.47443E+03 -7.35339E+02 -9.10147E+02 -1.09087E+03
 -2.68426E+03  2.35229E+02 -3.69579E+03  6.80295E+02 -1.18827E+03 -1.71342E+03 -9.15464E+02 -2.81955E+03
  4.85877E+03 -3.39180E+03  6.08039E+03  1.82541E+02  6.31018E+03  5.43728E+03  1.97347E+03  1.08134E+04
 -4.50647E+03  1.09450E+04 -1.03016E+04  5.61978E+03 -1.20240E+04 -1.35440E+03 -9.39481E+03 -7.35825E+03
 -4.99214E+03 -9.29937E+03  1.99670E+03 -7.83686E+03  4.63637E+03 -5.51772E+03  5.66694E+03  1.99507E+03
  3.55096E+03  2.95432E+03 -1.47863E+03  4.35045E+03 -1.85373E+03 -1.15885E+03  1.58772E+02 -8.04649E+02
  4.07816E+03 -1.25759E+03  3.55094E+03  8.38269E+02  2.51048E+03  5.77015E+03  1.15734E+03  4.38292E+03
 -3.28096E+03  5.93087E+03 -5.64414E+03  6.62529E+02 -6.35143E+03 -4.61016E+03 -4.89035E+02 -7.02794E+03
  5.08987E+03 -5.05023E+03  7.92424E+03 -1.64946E+03  8.02284E+03  1.83088E+03  3.59225E+03  6.02590E+03
  4.12591E+02  7.26037E+03 -1.94707E+03  3.62983E+03 -4.85675E+03  4.71933E+03 -4.49168E+03 -6.82668E+02
 -2.01758E+03 -1.19768E+03 -1.73086E+03 -5.49746E+02 -3.65061E+03  9.72619E+02 -5.66636E+03 -6.68282E+02
 -4.81174E+03 -3.50439E+03 -1.03555E+03 -7.75670E+03  2.53048E+03 -5.28234E+03  5.71828E+03 -2.90354E+03
  5.41519E+03  2.20844E+03  4.20597E+03  5.17089E+03 -1.09657E+03  7.27124E+03 -4.73839E+03  4.97176E+03
