 $NMID ID='MM_0lb_SNR200_7hz_g45_90.RAW', FMTDAT='(8E13.5)'
 TRAMP=1., VOLUME=1. $END
  3.08627E+05 -1.18986E+03  3.37735E+05  2.51477E+05  8.52126E+04  3.37993E+05 -1.33991E+05  2.53194E+05
 -1.90661E+05  8.34465E+04 -1.13776E+05 -3.31876E+04 -2.12391E+02 -4.98555E+04  5.34144E+04  1.40100E+02
  3.52050E+04  5.25874E+04 -1.50171E+04  7.53786E+04 -6.09340E+04  6.53061E+04 -8.70269E+04  3.31150E+04
 -8.12897E+04 -1.08967E+04 -6.00495E+04 -5.28467E+04 -1.58226E+04 -7.15162E+04  2.78866E+04 -4.68490E+04
  4.13932E+04  4.34910E+03  1.65113E+04  4.85086E+04 -3.28976E+04  5.00770E+04 -6.77078E+04  1.13997E+03
 -5.40786E+04 -5.74752E+04 -7.88792E+03 -7.84810E+04  3.42313E+04 -5.83508E+04  5.06278E+04 -2.00098E+04
  4.73131E+04  1.30183E+04  3.44650E+04  2.42875E+04  1.63746E+04  3.09300E+04 -7.65570E+03  2.81135E+04
 -2.41007E+04  1.22343E+04 -1.72358E+04 -4.96551E+03  8.85572E+03 -6.82604E+03  2.32716E+04  1.43830E+04
  5.29377E+03  3.90201E+04 -3.50112E+04  3.81073E+04 -6.61717E+04  2.10365E+03 -5.80208E+04 -4.46338E+04
 -1.00461E+04 -6.74607E+04  4.00537E+04 -4.68765E+04  6.18765E+04 -3.36215E+03  3.79393E+04  3.65934E+04
 -6.12626E+03  4.25624E+04 -3.29863E+04  1.92474E+04 -3.34784E+04 -4.58822E+03 -1.95244E+04 -1.29147E+04
 -9.27425E+03 -1.47996E+04 -9.67704E+02 -2.13486E+04  9.37843E+03 -2.31770E+04  1.59286E+04 -1.27523E+04
  1.02733E+04  5.44566E+03 -1.14917E+04  1.24247E+04 -2.43688E+04 -6.20437E+03 -9.21986E+03 -3.91067E+04
  2.68513E+04 -4.88038E+04  5.36845E+04 -2.23594E+04  4.95563E+04  2.32615E+04  1.79464E+04  4.84546E+04
 -1.86577E+04  3.83158E+04 -2.94920E+04  4.14742E+03 -1.09677E+04 -3.04712E+04  2.33644E+04 -3.61656E+04
  4.57446E+04 -1.14626E+04  4.14026E+04  2.68063E+04  2.12114E+04  5.20539E+04 -7.31665E+03  5.88462E+04
 -3.65929E+04  4.03870E+04 -5.03727E+04  1.02026E+04 -4.92173E+04 -1.90503E+04 -2.72595E+04 -4.32107E+04
  8.59003E+03 -4.31019E+04  3.44305E+04 -2.02522E+04  3.22086E+04  1.11583E+04  5.56270E+03  1.96964E+04
 -1.45973E+04  9.13061E+03 -1.18208E+04 -8.88133E+03  5.69076E+03 -1.17088E+04  1.81728E+04  5.99598E+03
  1.46065E+04  2.38569E+04 -3.09529E+03  2.62518E+04 -2.49539E+04  1.51247E+04 -3.37368E+04 -1.80200E+03
 -2.49954E+04 -2.03348E+04 -1.27826E+04 -2.51258E+04  3.48108E+03 -2.66171E+04  2.16649E+04 -2.43135E+04
  3.56285E+04 -1.56383E+04  4.07329E+04  5.50817E+03  3.08979E+04  2.53296E+04  4.65409E+03  4.26605E+04
 -2.02047E+04  3.21719E+04 -3.24636E+04  1.12643E+04 -2.35203E+04 -1.07955E+04 -2.43301E+03 -1.24803E+04
  1.00629E+03  2.52230E+02 -9.59084E+03  8.53295E+03 -2.03748E+04  3.63616E+03 -2.18821E+04 -1.00127E+04
 -1.27162E+04 -2.51289E+04  4.55544E+03 -2.76054E+04  1.93020E+04 -2.12988E+04  2.61296E+04 -5.54596E+02
  1.50246E+04  1.58943E+04 -1.15809E+02  2.75294E+04 -1.77338E+04  1.39962E+04 -2.51091E+04 -4.48596E+03
 -1.57278E+04 -2.28897E+04 -3.00304E+03 -2.84288E+04  1.17401E+04 -2.40642E+04  2.44623E+04 -1.30770E+04
  2.40828E+04 -5.56389E+02  1.55075E+04  6.20820E+03  1.01118E+04  9.72705E+02  1.33518E+04 -3.86195E+03
  2.44216E+04  2.61043E+03  2.77514E+04  1.77586E+04  1.90250E+04  4.08155E+04 -2.70486E+03  4.61335E+04
 -2.68658E+04  3.88708E+04 -4.64354E+04  1.94512E+04 -4.78099E+04 -4.09450E+03 -3.94604E+04 -2.83339E+04
 -1.32325E+04 -4.07209E+04  1.42187E+04 -3.66499E+04  3.07698E+04 -1.63442E+04  2.83099E+04  7.37486E+03
  8.21811E+03  2.15837E+04 -1.16919E+04  1.80408E+04 -2.33237E+04  1.43906E+03 -1.71224E+04 -1.49012E+04
 -9.24783E+02 -2.15371E+04  1.09642E+04 -1.71317E+04  1.34431E+04 -2.09599E+02  2.63229E+03  8.80719E+03
 -9.85814E+03  4.85899E+03 -1.05443E+04 -6.30817E+03 -2.21588E+03 -1.91457E+04  1.27295E+04 -2.14556E+04
  2.60869E+04 -1.30026E+04  3.02322E+04  3.02559E+03  2.56695E+04  1.82731E+04  1.00773E+04  3.24467E+04
 -7.07298E+03  3.51661E+04 -2.27201E+04  2.21395E+04 -2.59544E+04  4.13442E+03 -1.59782E+04 -7.59638E+03
 -7.17560E+03 -7.32211E+03  3.48381E+02  1.48023E+02 -4.37649E+03  3.06623E+03 -7.44428E+03  5.58054E+03
 -1.67165E+04 -6.66166E+02 -1.54174E+04 -1.16129E+04 -6.41679E+03 -2.10178E+04  4.43129E+03 -1.78288E+04
  1.54192E+04 -6.63155E+03  1.09975E+04  4.53929E+03 -1.69164E+03  8.53613E+03 -7.22213E+03  3.23829E+02
 -9.07062E+03 -1.14471E+04 -1.51838E+03 -1.66056E+04  8.08588E+03 -1.80967E+04  2.27353E+04 -9.78614E+03
  2.52004E+04  1.82986E+03  1.97928E+04  1.70599E+04  3.14594E+03  2.18132E+04 -9.37882E+03  1.61473E+04
 -1.32033E+04  6.81517E+03 -7.02003E+03 -4.45555E+03  2.53660E+03 -4.05940E+03  8.28063E+03 -1.13289E+03
  8.15746E+03  8.75396E+03  2.42018E+03  1.29715E+04 -9.06122E+03  1.26619E+04 -1.72486E+04  3.06282E+03
 -1.27287E+04 -1.01800E+04 -1.32485E+02 -1.43089E+04  9.94601E+03 -8.26163E+03  1.16830E+04  4.30318E+03
  2.41794E+03  1.23974E+04 -9.17964E+03  1.37286E+04 -1.67272E+04  5.53905E+03 -1.71955E+04 -7.36705E+03
 -8.22240E+03 -1.86284E+04  6.18202E+03 -2.23797E+04  1.82217E+04 -1.23557E+04  2.00008E+04  4.30894E+03
  1.17291E+04  1.47600E+04 -2.95760E+03  1.73107E+04 -1.28506E+04  1.03222E+04 -1.56294E+04  2.62323E+01
 -1.11253E+04 -1.06784E+04 -2.41955E+03 -1.37242E+04  8.42305E+03 -1.11442E+04  1.00458E+04 -2.81449E+03
  5.37051E+03  3.69973E+03 -1.45173E+03  6.67112E+02 -2.41322E+03 -3.90311E+03  1.61783E+03 -8.51125E+03
  1.34584E+04 -7.16674E+03  1.87660E+04  9.70876E+02  1.79488E+04  1.39002E+04  1.11786E+04  2.51920E+04
 -5.00763E+03  2.72364E+04 -2.41984E+04  2.19754E+04 -3.01770E+04  4.55724E+03 -2.37369E+04 -1.13471E+04
 -1.26304E+04 -1.93717E+04 -2.07084E+01 -1.70987E+04  6.57730E+03 -9.96084E+03  6.01432E+03 -3.92058E+03
  3.51828E+03 -3.48334E+03  6.19574E+03 -4.70991E+03  6.48809E+03 -4.02037E+03  9.26991E+03 -1.98841E+03
  1.20037E+04  3.01807E+03  6.90920E+03  1.19530E+04 -5.34273E+02  1.46421E+04 -1.27429E+04  1.04659E+04
 -1.71549E+04 -7.93733E+02 -1.18613E+04 -1.37497E+04 -4.13909E+01 -1.81898E+04  9.23906E+03 -1.77183E+04
  1.75064E+04 -9.93130E+03  2.17094E+04  2.60474E+03  1.57515E+04  1.45980E+04  2.77850E+03  2.21535E+04
 -9.84448E+03  1.77798E+04 -1.26628E+04  7.28674E+03 -9.44615E+03 -8.42922E+02 -5.52322E+03 -2.33068E+03
 -2.10976E+03 -1.86734E+03 -2.88823E+03  2.87853E+03 -7.45632E+03  2.96790E+03 -1.29531E+04 -8.92086E+02
 -1.04750E+04 -1.14337E+04 -4.92258E+02 -1.65755E+04  1.02029E+04 -1.75151E+04  1.81899E+04 -4.89852E+03
  1.81477E+04  6.83334E+03  9.68175E+03  1.57563E+04 -4.39663E+03  1.75587E+04 -1.35757E+04  1.03727E+04
 -1.58337E+04 -2.10315E+01 -1.29125E+04 -1.04402E+04 -2.14196E+03 -1.51910E+04  8.01438E+03 -1.06230E+04
  1.25609E+04 -1.95791E+03  9.45555E+03  1.88370E+03  3.90951E+03  3.90412E+03  1.15338E+03  2.85531E+03
  4.01754E+03  2.16504E+03  7.68482E+03  2.35379E+03  2.08450E+03  5.82637E+03  6.64059E+03  9.31280E+03
 -3.77813E+03  1.50180E+04 -1.32167E+04  1.41670E+04 -2.01316E+04  3.91728E+03 -2.01461E+04 -8.62204E+03
 -7.82736E+03 -1.89381E+04  3.29884E+03 -1.78125E+04  1.23200E+04 -1.44673E+04  1.68741E+04 -2.61292E+03
  1.31747E+04  8.21290E+03  4.00904E+03  9.71011E+03 -5.58815E+03  6.13871E+03 -8.45242E+03 -1.88390E+03
 -3.86001E+03 -8.23815E+03  3.58796E+03 -6.29725E+03  8.62835E+03 -4.60075E+03  8.72779E+03  9.68006E+02
  4.50695E+03  3.49342E+03  1.08139E+03  4.14994E+03 -1.82523E+03  1.83468E+03  3.65041E+02 -1.38852E+02
  1.96317E+03 -9.60905E+02  7.58523E+03  4.44530E+03  3.13244E+03  8.57312E+03 -1.96162E+03  1.29966E+04
 -8.95175E+03  7.54028E+03 -1.22255E+04  2.79658E+03 -1.03865E+04 -4.53486E+03 -3.44602E+03 -6.37149E+03
  1.70260E+03 -7.20400E+03  4.86916E+03 -2.61697E+03  4.10950E+03  1.95810E+03 -1.38245E+03  6.43019E+03
 -9.34245E+03  5.10341E+03 -8.80568E+03 -6.29189E+03 -5.36837E+03 -1.12518E+04  1.85862E+03 -1.10900E+04
  6.68270E+03 -7.49070E+03  7.93742E+03 -7.91660E+02  4.79835E+03  4.11826E+03 -1.53331E+03  6.62719E+03
 -3.19994E+03  1.97185E+03 -6.66508E+03 -3.37017E+03  3.62298E+03 -7.06126E+03  9.78785E+03 -8.45496E+03
  1.23742E+04  4.98983E+02  1.31202E+04  9.58374E+03  3.25793E+03  1.24383E+04 -3.89845E+03  1.36958E+04
 -1.03658E+04  5.88261E+03 -9.92851E+03 -1.62329E+03 -6.07846E+03 -9.83344E+03  4.02516E+02 -8.42822E+03
  7.92473E+03 -4.40537E+03  5.74103E+03  3.27970E+03  3.22207E+03  5.46414E+03 -1.06384E+03  6.27375E+03
 -3.33451E+03  3.37758E+03 -3.62507E+03  1.51493E+03 -1.33676E+03  1.53321E+03 -3.42078E+03  1.27363E+03
 -4.27880E+03  3.77343E+03 -8.55729E+03  4.13794E+03 -1.13008E+04  4.97208E+02 -1.45134E+04 -8.55684E+03
 -6.31075E+03 -1.75882E+04  4.44492E+03 -2.11045E+04  1.24796E+04 -1.72208E+04  1.96735E+04 -4.91934E+03
  1.87853E+04  4.51075E+03  1.27813E+04  1.27436E+04  2.55427E+03  1.43054E+04 -6.08558E+03  1.11592E+04
 -6.83176E+03  5.44562E+03 -4.70446E+03 -1.75914E+03 -1.27268E+03 -2.25079E+02  2.54762E+02  7.67845E+02
 -1.25255E+03  2.00513E+02 -2.46362E+03 -2.28044E+02 -2.16357E+03 -3.31901E+03  5.61570E+02 -4.78006E+03
  5.02214E+03 -4.39646E+03  9.52291E+03  4.70787E+02  1.13147E+04  7.61782E+03  1.70238E+03  1.43105E+04
 -7.18074E+03  1.57414E+04 -1.42693E+04  9.70405E+03 -1.76151E+04 -8.64350E+02 -1.37752E+04 -1.03949E+04
 -6.32895E+03 -1.40009E+04  3.17208E+03 -1.44046E+04  9.74532E+03 -5.39086E+03  1.07470E+04 -1.40821E+03
  4.08014E+03  5.78349E+03 -7.43824E+02  3.87636E+03 -1.64365E+03  5.97411E+02  3.62015E+02 -3.32867E+03
  5.16499E+03 -2.17588E+03  6.64378E+03  1.64780E+03  5.25139E+03  5.38422E+03 -2.42235E+03  7.35593E+03
 -7.14510E+03  5.20930E+03 -1.02491E+04  1.21580E+03 -9.41956E+03 -6.00619E+03 -2.77441E+02 -1.13772E+04
  6.18974E+03 -1.07518E+04  1.18518E+04 -3.81213E+03  1.17306E+04  3.32081E+03  5.00184E+03  8.27642E+03
  2.42889E+03  8.05367E+03 -3.42436E+03  7.79445E+03 -5.51363E+03  3.78130E+03 -4.87037E+03  1.86591E+03
 -1.81752E+03 -6.08687E+02 -2.64072E+03  1.84946E+03 -5.45527E+03  1.30873E+03 -8.46663E+03 -1.29402E+03
 -7.35169E+03 -4.44655E+03 -2.56082E+03 -1.22923E+04  4.64917E+03 -1.20312E+04  8.90562E+03 -4.85106E+03
  1.04510E+04  4.06400E+02  4.52500E+03  7.04460E+03 -2.29143E+03  9.14278E+03 -7.14511E+03  5.34337E+03
