 $NMID ID='MM_0lb_SNR200_19hz_g45_40.RAW', FMTDAT='(8E13.5)'
 TRAMP=1., VOLUME=1. $END
  3.09270E+05  5.65580E+02  3.37635E+05  2.50394E+05  8.47698E+04  3.37077E+05 -1.31482E+05  2.50051E+05
 -1.90089E+05  8.26186E+04 -1.09605E+05 -3.31145E+04  2.22238E+03 -5.07347E+04  5.35906E+04 -4.84535E+02
  3.45592E+04  5.34275E+04 -1.72747E+04  7.48145E+04 -6.00763E+04  6.14433E+04 -8.35963E+04  3.19948E+04
 -7.97150E+04 -1.16345E+04 -5.67702E+04 -5.05948E+04 -1.39110E+04 -6.74969E+04  2.63359E+04 -4.56104E+04
  3.89767E+04  4.05748E+03  1.50648E+04  4.67003E+04 -3.32732E+04  4.60696E+04 -6.51746E+04 -3.38652E+02
 -5.25911E+04 -5.50117E+04 -6.72935E+03 -7.35651E+04  3.28900E+04 -5.27851E+04  4.58738E+04 -1.66557E+04
  4.07468E+04  1.08922E+04  3.05409E+04  2.56740E+04  1.61415E+04  2.85706E+04 -4.22707E+03  2.66227E+04
 -2.08944E+04  1.35914E+04 -1.86176E+04 -4.47486E+03  4.87111E+03 -7.04694E+03  2.10020E+04  1.14058E+04
  7.33067E+03  3.26436E+04 -2.99263E+04  3.40981E+04 -6.03819E+04  2.43439E+03 -5.49971E+04 -4.05771E+04
 -1.17116E+04 -5.94102E+04  3.70425E+04 -4.28024E+04  5.48599E+04 -9.77988E+02  3.19636E+04  3.09653E+04
 -6.60549E+03  3.17472E+04 -2.82044E+04  1.32106E+04 -2.72551E+04 -5.21469E+03 -1.38145E+04 -9.66030E+03
 -7.43500E+03 -1.07637E+04 -1.52026E+03 -1.69120E+04  6.96684E+03 -2.35546E+04  1.45829E+04 -1.40336E+04
  1.38553E+04  5.14913E+03 -5.86750E+03  1.38650E+04 -2.04880E+04 -1.97377E+03 -8.61069E+03 -3.04948E+04
  2.17828E+04 -3.97164E+04  4.49820E+04 -1.88899E+04  4.05319E+04  1.90152E+04  1.45155E+04  4.15429E+04
 -1.43312E+04  3.05995E+04 -2.30108E+04  6.74129E+02 -8.81842E+03 -2.54489E+04  2.01491E+04 -3.03211E+04
  3.74857E+04 -7.51583E+03  3.10164E+04  2.30079E+04  1.51107E+04  4.15254E+04 -7.10772E+03  4.40779E+04
 -2.70595E+04  2.95032E+04 -3.68695E+04  8.57066E+03 -3.76331E+04 -1.47620E+04 -2.17905E+04 -3.37561E+04
  6.97952E+03 -3.32067E+04  2.85931E+04 -1.22822E+04  2.66307E+04  1.10372E+04  1.76166E+03  1.72202E+04
 -1.37434E+04  6.52603E+03 -1.05821E+04 -8.14448E+03  5.93412E+03 -1.08304E+04  1.68528E+04  6.73931E+03
  1.26489E+04  2.21354E+04 -6.74574E+03  2.36469E+04 -2.17225E+04  9.68688E+03 -2.48811E+04 -6.42716E+03
 -1.63176E+04 -1.54574E+04 -4.36243E+03 -1.67751E+04  3.47485E+03 -1.41002E+04  1.16094E+04 -1.36693E+04
  2.16073E+04 -1.15275E+04  2.79347E+04  8.32929E+02  2.16058E+04  1.70452E+04  3.56196E+03  3.17319E+04
 -1.53857E+04  2.70489E+04 -2.54709E+04  9.01781E+03 -1.99179E+04 -1.03025E+04 -3.53422E+03 -1.52491E+04
  2.64660E+03 -3.57179E+03 -2.07998E+03  5.20243E+03 -1.17866E+04  5.96741E+03 -1.27357E+04 -4.41677E+03
 -9.01631E+03 -1.61743E+04  3.98562E+03 -1.87578E+04  1.17303E+04 -1.32511E+04  1.43721E+04 -8.07526E+02
  8.57100E+03  1.07233E+04 -9.78392E+02  1.49482E+04 -9.46088E+03  9.17518E+03 -1.53174E+04 -2.98853E+03
 -1.08950E+04 -1.36063E+04 -1.65019E+03 -1.84174E+04  7.57902E+03 -1.54557E+04  1.54579E+04 -7.51260E+03
  1.39243E+04  9.00356E+02  1.01753E+04  3.78871E+03  4.50317E+03 -5.73275E+02  6.64002E+03 -2.65532E+02
  1.34356E+04  2.66771E+03  1.51483E+04  1.25525E+04  7.52075E+03  2.40911E+04 -3.25921E+03  2.57232E+04
 -1.50661E+04  1.98779E+04 -2.30351E+04  1.00626E+04 -2.38989E+04 -2.39568E+03 -2.04400E+04 -1.28289E+04
 -9.43759E+03 -1.89803E+04  6.32220E+03 -1.80199E+04  1.55373E+04 -1.11368E+04  1.52089E+04  4.62745E+03
  7.38149E+03  1.07998E+04 -5.90286E+03  1.02015E+04 -1.19908E+04  2.54906E+03 -1.02966E+04 -8.27176E+03
 -1.05691E+03 -1.22885E+04  5.71474E+03 -8.66868E+03  7.36064E+03 -8.74114E+02  1.64733E+03  5.13728E+03
 -5.69885E+03  1.92720E+02 -3.83755E+03 -5.00590E+03  8.02407E+02 -9.86506E+03  8.36250E+03 -9.92375E+03
  1.12049E+04 -4.96464E+03  1.18889E+04  2.84264E+03  1.01363E+04  9.28279E+03  5.59819E+03  1.34727E+04
 -1.45009E+03  1.51681E+04 -9.99615E+03  9.61520E+03 -1.02664E+04  2.15096E+03 -7.67818E+03 -2.56435E+03
 -4.10940E+03 -3.47773E+03 -9.89223E+02  2.16318E+03 -2.21864E+03  2.22995E+03 -3.20520E+03  3.61340E+03
 -7.43788E+03  1.08894E+02 -8.39001E+03 -7.06043E+03 -2.42923E+03 -1.20451E+04  3.17050E+03 -8.31153E+03
  6.48405E+03 -3.65407E+03  5.83223E+03  1.12046E+03 -2.80948E+02  2.53439E+03 -3.32321E+03  1.47497E+03
 -2.77569E+03 -5.72596E+03 -7.89706E+02 -6.59795E+03  3.57104E+03 -7.34967E+03  8.55219E+03 -3.66069E+03
  1.07193E+04 -3.49686E+02  7.81336E+03  5.99110E+03  2.34575E+03  8.40757E+03 -4.90948E+03  7.84032E+03
 -6.27258E+03  2.38482E+03 -3.66762E+03 -1.53870E+03  1.41869E+03 -1.29013E+03  5.64988E+03 -1.17742E+03
  4.12823E+03  2.13402E+03  7.62897E+02  7.23397E+03 -4.40543E+03  6.63315E+03 -6.75514E+03  2.41634E+03
 -4.70348E+03 -3.24990E+03 -4.81874E+02 -6.45995E+03  3.17953E+03 -2.90857E+03  2.94106E+03  4.41873E+02
  1.17994E+03  2.57913E+03 -3.72531E+03  4.46380E+03 -4.06609E+03  2.41122E+03 -4.27368E+03 -3.80943E+02
 -2.67774E+03 -4.89218E+03  7.07241E+02 -6.78286E+03  6.17124E+03 -4.47504E+03  5.94176E+03 -1.14161E+02
  2.89585E+03  3.35640E+03  3.67090E+02  6.13136E+03 -4.96144E+03  4.53348E+03 -5.22878E+03 -1.31893E+03
 -5.37846E+03 -3.98465E+03 -7.17874E+02 -5.13113E+03  2.46867E+03 -4.17335E+03  3.89887E+03 -3.33377E+03
  3.10716E+03  1.84882E+02  3.33964E+02  5.39428E+02 -2.21015E+02 -5.50422E+02  1.32983E+02 -8.00183E+02
  3.43909E+03 -2.34286E+02  5.49857E+03  3.84046E+02  4.65549E+03  2.34151E+03  6.23333E+03  6.32975E+03
 -5.16869E+02  8.15889E+03 -6.87037E+03  6.51044E+03 -8.90272E+03  7.10290E+02 -6.95020E+03 -9.81421E+02
 -4.16907E+03 -6.50325E+03  4.16034E+02 -4.50517E+03  2.29596E+03 -2.42862E+03  1.28303E+03 -2.03828E+03
  7.78621E+02 -1.42148E+03  2.09302E+03 -1.25371E+03  4.14601E+03 -2.13374E+03  5.35190E+03  5.96851E+02
  3.56025E+03  1.89246E+03  1.74468E+03  2.56980E+03 -9.35489E+02  2.02258E+03 -4.60912E+03  2.19141E+03
 -4.29148E+03 -4.09822E+02 -5.72641E+02 -2.02309E+03  1.11228E+03 -4.74558E+03  1.91009E+03 -3.75346E+03
  4.87393E+03 -2.67561E+03  6.31355E+03  6.97947E+01  4.49599E+03  3.56507E+03  8.92671E+02  5.71106E+03
 -2.41721E+03  4.25161E+03 -2.76310E+03  2.30639E+03 -1.66581E+03 -6.27392E+02 -2.32497E+02 -1.23322E+03
 -4.79930E+02 -3.70282E+02 -1.08448E+03  1.62948E+03 -2.02810E+03  1.50849E+03 -2.81297E+03 -1.06789E+03
 -2.05724E+03 -4.43579E+03  1.23312E+03 -4.44034E+03  2.88818E+03 -3.72711E+03  3.36781E+03 -1.08606E+03
  2.68974E+03  2.37464E+03  1.13022E+03  3.82160E+03  5.89191E+02  3.97658E+03 -2.34581E+03  1.47560E+03
 -2.79774E+03  2.90551E+01 -2.82560E+03 -2.71372E+03  3.60187E+02 -2.98420E+03  1.55071E+03 -2.60237E+03
  3.34900E+03 -4.34017E+02  1.50900E+03  9.15568E+02  6.56963E+02  1.77643E+03  1.17356E+03  1.51662E+03
  1.35401E+03  1.28581E+03  8.77049E+02  1.32225E+03  6.96755E+02  2.23821E+03 -4.95961E+01  1.93031E+03
 -1.29150E+02  2.24647E+03 -3.71276E+03  3.29873E+03 -3.13734E+03  1.21890E+03 -3.52751E+03  2.05714E+02
 -9.64654E+02 -2.70052E+03 -6.38336E+02 -4.75495E+03  1.04540E+03 -1.82709E+03  2.70676E+03 -8.32544E+02
  2.79487E+03  1.78547E+03  3.89959E+02  1.69156E+03 -9.87493E+02  1.29448E+03 -1.82152E+03 -7.75044E+02
 -4.46388E+02 -3.47665E+02  1.00861E+03 -1.02670E+03  1.70742E+03 -1.49638E+03  1.19588E+03  7.64589E+02
  1.83660E+03 -8.00325E+02  1.68232E+02  3.01606E+02  8.05255E+00  1.80840E+03  1.67596E+03 -4.30521E+01
  3.73388E+02 -5.76545E+02  2.36191E+03 -3.27116E+01  3.74922E+02  2.20361E+03 -6.52817E+02  3.61051E+03
 -4.74700E+02  1.45278E+03 -9.37926E+02  7.70596E+02 -2.11048E+03  3.22119E+01  7.79982E+02 -6.36801E+01
  6.79296E+02 -8.47696E+02  8.09003E+02 -2.63847E+02  5.15600E+02  1.63343E+03 -9.63099E+02  5.60081E+02
 -1.09341E+03  4.60966E+02 -1.56892E+03 -1.18953E+03  2.39410E+01 -2.29131E+03 -2.19201E+02 -1.22719E+03
  9.59403E+02 -7.56280E+02  8.51220E+01  4.93420E+02  1.12542E+03 -8.14870E+00  8.06768E+02  1.68016E+03
 -3.93816E+02 -7.96369E+02 -1.22588E+02 -1.50733E+02  1.21115E+03 -7.07644E+02  7.31731E+02  6.10987E+02
  1.63088E+03  1.75428E+01  1.81508E+03  7.21460E+02  8.90046E+02  9.46998E+02 -4.59505E+01  9.22296E+02
 -1.48592E+03  7.06635E+02 -9.64286E+02 -7.03417E+02 -3.51367E+02 -1.89147E+03  1.28614E+03  1.67885E+02
  1.48347E+03 -2.19979E+02  5.48062E+02  9.60794E+02 -1.46489E+02  1.05214E+03  5.40110E+02  1.35161E+03
  3.72355E+02  1.57842E+03 -1.33863E+02 -1.47147E+01 -5.20961E+02  6.59064E+02 -1.62889E+03  2.79597E+02
 -1.35908E+02  5.23965E+02 -2.30482E+03 -8.58448E+01 -6.11785E+02  5.20830E+02 -1.20086E+03 -9.14935E+01
 -1.34479E+03 -1.44220E+03 -3.87681E+02 -1.93136E+03  1.30971E+03 -1.97977E+03  2.44920E+03 -2.26076E+03
  1.69311E+03 -2.48881E+02  1.02358E+03  2.03337E+03 -1.64151E+03  5.52795E+02  2.08870E+02  1.70802E+03
 -1.62505E+03  5.89514E+02 -4.63146E+01  7.47210E+02 -6.99007E+02 -7.22799E+01 -1.21877E+03  7.70007E+01
 -1.47225E+03 -1.87864E+02 -9.95873E+02  5.04282E+02  5.77387E+02 -1.21069E+03  2.69880E+02 -3.89109E+02
  1.06078E+03 -3.15308E+02  1.03524E+02  3.34859E+02  1.81891E+03  1.25077E+03  7.63332E+01  1.23657E+03
 -1.50273E+02  2.48128E+03 -1.84729E+03  8.74601E+02 -2.53939E+03 -2.92619E+02 -1.03173E+02 -4.56925E+02
 -1.11267E+03 -7.79369E+02  6.86599E+02 -1.64368E+03  6.54997E+02 -2.63532E+02  1.60072E+03  5.69357E+02
  1.38095E+03  4.93907E+02  2.92812E+02 -3.81201E+02  1.33611E+02  7.15300E+02  4.01070E+02 -7.23089E+02
  4.39587E+02  8.29549E+02  6.20433E+02 -5.86121E+02 -4.76347E+02  2.83910E+02  1.43186E+03  5.68478E+01
 -1.21441E+03  5.05929E+02 -1.46833E+03 -2.68157E+01 -7.23209E+02 -1.24471E+03 -6.88526E+02 -8.79627E+02
  1.12763E+03 -1.12113E+03  1.43475E+03 -1.56412E+02  1.44857E+03 -1.96459E+02  9.05401E+02  3.22215E+02
  2.11259E+02  1.59200E+03 -1.25063E+03  1.60761E+03 -3.08413E+02  1.35695E+03 -1.02076E+03 -1.61908E+02
  1.28457E+02  6.66880E+01 -6.09907E+02  1.17525E+02 -2.44101E+02  2.52703E+01 -9.38737E+02 -1.56579E+03
 -8.28351E+02  9.89531E+02 -1.18177E+03 -7.42586E+02  5.24510E+02 -1.99955E+03  1.01170E+02  7.99311E+00
  1.36125E+03 -2.99259E+02 -6.08173E+02  6.80537E+01 -1.24564E+03  7.41218E+02 -1.79794E+02 -5.85828E+02
