 $NMID ID='MM_0lb_SNR200_8hz_g40_47.RAW', FMTDAT='(8E13.5)'
 TRAMP=1., VOLUME=1. $END
  3.10906E+05  1.42806E+03  3.38441E+05  2.52190E+05  8.59995E+04  3.39888E+05 -1.34208E+05  2.51124E+05
 -1.90003E+05  8.56111E+04 -1.12199E+05 -3.29695E+04  1.94661E+03 -5.01588E+04  5.37238E+04  8.53931E+02
  3.63132E+04  5.18159E+04 -1.78860E+04  7.66301E+04 -6.05698E+04  6.30527E+04 -8.50453E+04  3.19645E+04
 -8.15573E+04 -1.31375E+04 -5.86456E+04 -5.32142E+04 -1.58920E+04 -7.00276E+04  2.89161E+04 -4.66405E+04
  4.11478E+04  4.06144E+03  1.71141E+04  4.88082E+04 -3.46678E+04  4.83807E+04 -6.83425E+04  1.55236E+03
 -5.48231E+04 -5.66881E+04 -6.94944E+03 -7.96734E+04  3.67862E+04 -5.72274E+04  4.88795E+04 -1.75268E+04
  4.45930E+04  1.27669E+04  3.22041E+04  2.69784E+04  1.59872E+04  2.96875E+04 -4.29395E+03  2.65351E+04
 -2.28671E+04  1.08492E+04 -1.85723E+04 -5.75879E+03  6.98383E+03 -7.42142E+03  2.19399E+04  1.36529E+04
  5.87984E+03  3.68101E+04 -3.51680E+04  3.68372E+04 -6.56306E+04  3.35899E+03 -5.95968E+04 -4.66890E+04
 -1.28686E+04 -6.48682E+04  4.09585E+04 -4.64920E+04  6.29335E+04 -2.47148E+03  3.61578E+04  3.45352E+04
 -7.02273E+03  4.15077E+04 -3.17066E+04  1.97043E+04 -3.51152E+04 -2.53378E+03 -1.79002E+04 -1.14951E+04
 -1.01703E+04 -1.41101E+04  4.43956E+02 -2.14145E+04  7.65963E+03 -2.35191E+04  1.49418E+04 -1.26109E+04
  1.17144E+04  5.19535E+03 -9.98972E+03  1.26541E+04 -2.38897E+04 -7.98145E+03 -9.54416E+03 -3.89644E+04
  2.44761E+04 -4.59689E+04  5.24858E+04 -2.14886E+04  4.79099E+04  2.18515E+04  1.72813E+04  4.68358E+04
 -1.73434E+04  3.59543E+04 -2.90972E+04  4.20106E+03 -1.18517E+04 -3.06928E+04  2.09897E+04 -3.68334E+04
  4.44046E+04 -1.01855E+04  4.12405E+04  2.69532E+04  2.19905E+04  5.18733E+04 -1.04237E+04  5.57804E+04
 -3.62977E+04  3.70609E+04 -4.82029E+04  1.26679E+04 -4.64652E+04 -1.86708E+04 -2.77187E+04 -4.18637E+04
  7.94883E+03 -4.24875E+04  3.37224E+04 -1.55320E+04  3.03463E+04  1.06826E+04  5.63767E+03  2.03541E+04
 -1.49585E+04  1.00598E+04 -9.20280E+03 -6.54089E+03  5.48432E+03 -1.10817E+04  2.01703E+04  5.11820E+03
  1.56245E+04  2.37864E+04 -5.05126E+03  2.86764E+04 -2.39455E+04  1.45965E+04 -3.18020E+04 -3.24372E+03
 -2.58829E+04 -1.92977E+04 -1.13793E+04 -2.52784E+04  3.79128E+03 -2.52100E+04  2.22881E+04 -2.25975E+04
  3.29556E+04 -1.27121E+04  3.76734E+04  5.65409E+03  2.56919E+04  2.23681E+04  5.50762E+03  4.21914E+04
 -1.87529E+04  3.32051E+04 -2.94962E+04  9.93725E+03 -2.11365E+04 -9.06108E+03 -5.22907E+03 -1.24876E+04
  7.95954E+02  6.60413E+02 -8.44388E+03  8.18221E+03 -2.07353E+04  5.71062E+03 -2.13074E+04 -1.11862E+04
 -1.08138E+04 -2.28530E+04  6.29860E+03 -2.95624E+04  1.90479E+04 -2.10338E+04  2.19047E+04 -3.41968E+03
  1.53430E+04  1.60994E+04 -2.71669E+03  2.30663E+04 -1.73391E+04  1.53165E+04 -2.50260E+04 -5.59894E+03
 -1.79870E+04 -2.13589E+04 -2.63518E+03 -2.72728E+04  1.30104E+04 -2.25527E+04  2.51937E+04 -1.45151E+04
  2.22843E+04 -8.54809E+02  1.63656E+04  7.34406E+03  9.25681E+03  1.86296E+03  1.28261E+04 -1.76530E+03
  2.22021E+04  3.52380E+03  2.68537E+04  1.72594E+04  1.77080E+04  3.76369E+04 -2.82878E+03  4.41832E+04
 -2.60482E+04  3.57401E+04 -4.12130E+04  2.00190E+04 -4.58330E+04 -3.29936E+03 -3.45717E+04 -2.62607E+04
 -1.59372E+04 -3.72936E+04  1.34907E+04 -3.23581E+04  2.91161E+04 -1.58041E+04  2.44112E+04  8.03580E+03
  8.67898E+03  1.71062E+04 -1.23892E+04  1.56631E+04 -2.04778E+04  4.15456E+02 -1.58361E+04 -1.36884E+04
 -2.65991E+02 -1.93509E+04  1.12543E+04 -1.54600E+04  1.44846E+04 -1.74328E+03  2.76999E+03  9.04618E+03
 -9.28616E+03  4.51156E+03 -9.28578E+03 -6.18048E+03 -1.92231E+03 -1.75338E+04  1.22731E+04 -1.90567E+04
  2.24775E+04 -1.24428E+04  2.73819E+04  3.00641E+03  2.38719E+04  1.78209E+04  9.94564E+03  2.98004E+04
 -5.71595E+03  3.17508E+04 -2.14163E+04  1.81404E+04 -2.31688E+04  4.29205E+03 -1.54511E+04 -6.54547E+03
 -6.17343E+03 -7.57289E+03 -7.64793E+02 -8.73630E+02 -1.88362E+03  3.07670E+03 -8.27211E+03  6.23012E+03
 -1.46471E+04 -2.61593E+03 -1.53267E+04 -1.28508E+04 -6.66667E+03 -1.86118E+04  5.50215E+03 -1.50700E+04
  1.30002E+04 -6.08518E+03  9.63771E+03  3.97307E+03 -1.49525E+03  6.32032E+03 -1.03574E+04 -1.55017E+03
 -8.79318E+03 -1.00106E+04 -1.43084E+03 -1.65977E+04  1.14550E+04 -1.53899E+04  2.16383E+04 -8.97794E+03
  2.36437E+04  2.49549E+03  1.80104E+04  1.53052E+04  4.32798E+03  2.09857E+04 -9.29431E+03  1.54008E+04
 -1.41790E+04  2.46448E+03 -6.29026E+03 -3.07041E+03  1.73117E+03 -5.07914E+03  7.20640E+03 -1.53317E+03
  7.11709E+03  6.13562E+03  6.62236E+02  1.28325E+04 -8.51114E+03  1.26179E+04 -1.54971E+04  1.90712E+03
 -1.12150E+04 -9.59405E+03 -7.95023E+02 -1.41099E+04  9.07126E+03 -6.21210E+03  9.14331E+03  4.53148E+03
  2.25646E+03  1.00564E+04 -7.62357E+03  1.21957E+04 -1.38772E+04  4.08518E+03 -1.43669E+04 -3.82793E+03
 -7.06587E+03 -1.58548E+04  5.87147E+03 -1.87825E+04  1.73967E+04 -1.19793E+04  1.68809E+04  3.33023E+03
  1.03325E+04  1.40389E+04 -2.18631E+03  1.73327E+04 -1.14311E+04  8.83381E+03 -1.13021E+04 -8.28910E+02
 -1.15961E+04 -1.22204E+04 -2.21020E+03 -1.17343E+04  6.18337E+03 -9.31329E+03  8.81058E+03 -3.71013E+03
  4.28634E+03  1.55040E+03 -4.35884E+02  3.64241E+03 -7.45304E+02 -4.01563E+03  2.58959E+03 -6.49674E+03
  1.20752E+04 -4.01470E+03  1.70646E+04  2.55267E+03  1.71879E+04  1.14401E+04  1.01878E+04  2.16824E+04
 -4.74846E+03  2.44138E+04 -2.10126E+04  1.73336E+04 -2.71708E+04  3.63598E+03 -2.10769E+04 -1.09541E+04
 -9.58360E+03 -1.71971E+04 -1.05678E+03 -1.55336E+04  6.10488E+03 -7.29364E+03  6.03425E+03 -5.57758E+03
  4.44600E+03 -3.43038E+03  4.29015E+03 -4.02293E+03  7.95050E+03 -3.26708E+03  9.48499E+03 -1.32736E+03
  1.03281E+04  1.86617E+03  5.90873E+03  1.02971E+04 -1.50548E+03  1.10770E+04 -1.09754E+04  9.98531E+03
 -1.49953E+04 -1.72143E+03 -9.90797E+03 -1.08472E+04 -2.60047E+03 -1.61197E+04  8.88739E+03 -1.67226E+04
  1.73039E+04 -9.73683E+03  1.93741E+04  3.11320E+03  1.47910E+04  1.36194E+04  1.72856E+03  1.80431E+04
 -6.05007E+03  1.49299E+04 -1.30319E+04  4.90300E+03 -7.84906E+03 -2.96200E+03 -2.19718E+03 -1.53145E+03
 -1.72278E+03 -1.08691E+02 -3.90542E+03  3.28041E+03 -6.49840E+03  2.76169E+03 -1.16534E+04 -1.34294E+03
 -8.97017E+03 -9.44319E+03 -1.29508E+03 -1.55551E+04  8.93552E+03 -1.19853E+04  1.49210E+04 -4.79132E+03
  1.60223E+04  7.12263E+03  5.57328E+03  1.41408E+04 -2.89791E+03  1.43452E+04 -1.09032E+04  9.60317E+03
 -1.48323E+04  4.30800E+02 -1.25775E+04 -1.12832E+04  1.62198E+02 -1.33504E+04  6.85170E+03 -9.16155E+03
  9.92555E+03 -1.70335E+03  7.15084E+03  1.31469E+03  3.01567E+03  2.50755E+03  6.36650E+02  2.75187E+02
  3.23154E+03  1.31087E+03  4.08583E+03  1.42463E+03  5.32956E+03  5.51708E+03  4.77726E+03  9.43683E+03
 -3.31898E+03  1.15525E+04 -1.13867E+04  1.31471E+04 -1.56406E+04  1.50371E+03 -1.63124E+04 -6.05534E+03
 -6.86999E+03 -1.57237E+04  2.57505E+03 -1.59998E+04  9.41331E+03 -1.08795E+04  1.29414E+04 -3.15560E+03
  1.20306E+04  6.22199E+03  1.47405E+03  1.08908E+04 -5.46655E+03  6.40696E+03 -6.88194E+03 -5.88701E+02
 -4.81770E+03 -5.19663E+03  4.85415E+03 -8.11117E+03  6.53390E+03 -2.04171E+03  8.05191E+03  2.63753E+03
  4.93793E+03  4.44354E+03  1.76476E+03  3.33498E+03 -2.90562E+02  2.40449E+03  2.14980E+03  1.38033E+03
  2.23833E+03 -1.60074E+03  6.60307E+03  2.68504E+03  2.72977E+03  9.01981E+03 -1.60538E+03  1.32619E+04
 -7.87398E+03  8.13188E+03 -1.06110E+04  2.32011E+03 -9.19543E+03 -3.85484E+03 -2.54662E+03 -6.16569E+03
  2.13857E+03 -7.49509E+03  4.95097E+03 -3.59833E+03  2.88796E+03  3.84322E+03 -1.48202E+03  5.66709E+03
 -5.04336E+03  1.64828E+03 -7.79853E+03 -4.10891E+03 -4.30323E+03 -1.08139E+04  5.11099E+02 -9.25292E+03
  6.23468E+03 -5.78628E+03  9.31240E+03 -1.19982E+03  5.84733E+03  3.01511E+03  2.38232E+02  5.68182E+03
 -2.38719E+03  2.50326E+03 -5.69284E+03 -2.74704E+03  1.53288E+03 -6.85341E+03  8.66971E+03 -5.98487E+03
  8.31030E+03  1.98024E+03  9.91136E+03  5.59436E+03  3.14532E+03  1.00772E+04 -3.90107E+03  8.95312E+03
 -9.42700E+03  3.69916E+03 -8.69156E+03 -1.40424E+03 -5.80213E+03 -7.68423E+03  1.00276E+03 -4.35823E+03
  6.33300E+03 -2.82926E+03  6.81675E+03  3.71313E+03  2.30539E+03  5.73540E+03 -1.70385E+03  5.88506E+03
 -2.87188E+03  3.35446E+03 -3.59663E+03  1.48773E+03 -5.11301E+02  2.56083E+03 -1.95462E+03  1.38332E+03
 -2.17367E+03  4.92721E+03 -8.57976E+03  3.66994E+03 -9.89999E+03  1.32627E+03 -1.00165E+04 -7.92499E+03
 -7.31551E+03 -1.45326E+04  2.04638E+03 -1.58342E+04  1.06110E+04 -1.33002E+04  1.61887E+04 -4.14551E+03
  1.34628E+04  4.39329E+03  8.63458E+03  1.05279E+04  4.02774E+02  1.21377E+04 -4.33209E+03  1.02241E+04
 -7.01844E+03  3.05226E+03 -4.13147E+03 -4.16768E+02 -1.48980E+03 -1.38834E+03 -2.44178E+03 -1.10307E+03
 -1.94420E+03  2.03756E+03 -3.13746E+03 -9.76057E+02  2.62163E+02 -2.18442E+03 -3.88325E+02 -5.28383E+03
  5.66259E+03 -3.37905E+03  7.24053E+03  8.56019E+02  7.18801E+03  5.08072E+03  2.88529E+03  1.10375E+04
 -5.04886E+03  1.34626E+04 -1.33855E+04  8.77973E+03 -1.62064E+04 -3.74278E+02 -1.21228E+04 -9.01695E+03
 -5.07401E+03 -1.06387E+04  2.71320E+03 -1.09794E+04  7.61806E+03 -5.70054E+03  9.67656E+03  8.36849E+02
  3.64310E+03  3.46195E+03 -1.71565E+03  2.99081E+03 -2.61925E+03  2.61381E+02  1.10840E+03 -2.95420E+03
  3.83428E+03  5.16029E+02  4.81049E+03  1.66946E+03  4.24562E+03  4.34501E+03 -3.94067E+02  5.41051E+03
 -4.93392E+03  5.83145E+03 -8.13235E+03 -5.46627E+02 -7.90600E+03 -5.24567E+03 -2.50018E+03 -1.03649E+04
  3.59423E+03 -8.02421E+03  1.04656E+04 -8.03358E+02  8.80489E+03  1.35779E+03  6.13051E+03  7.95593E+03
  4.04849E+02  8.34192E+03 -3.10311E+03  7.27952E+03 -5.03119E+03  3.59316E+03 -4.16054E+03  5.19204E+02
 -1.58750E+03 -9.29353E+01 -3.29722E+03  1.19471E+03 -4.82409E+03  7.93361E+02 -6.80514E+03 -1.91539E+02
 -8.13274E+03 -3.76154E+03 -1.40902E+03 -7.04219E+03  4.13745E+03 -9.12992E+03  7.54680E+03 -2.88455E+03
  7.54494E+03  7.57406E+02  2.86577E+03  7.38021E+03 -1.38455E+03  7.52586E+03 -4.78505E+03  4.09984E+03
