 $NMID ID='MM_0lb_SNR200_16hz_g40_4.RAW', FMTDAT='(8E13.5)'
 TRAMP=1., VOLUME=1. $END
  3.09652E+05  1.37768E+03  3.36947E+05  2.51000E+05  8.43092E+04  3.37672E+05 -1.33037E+05  2.50065E+05
 -1.89733E+05  8.28820E+04 -1.11256E+05 -3.16907E+04  1.00693E+03 -5.07419E+04  5.40097E+04  1.95618E+03
  3.53292E+04  5.20420E+04 -1.63746E+04  7.44672E+04 -5.84588E+04  6.31683E+04 -8.28742E+04  3.28964E+04
 -7.92373E+04 -1.09217E+04 -5.62231E+04 -5.07238E+04 -1.32538E+04 -6.86836E+04  2.69409E+04 -4.46826E+04
  4.06089E+04  4.11317E+03  1.46384E+04  4.77383E+04 -3.44468E+04  4.68266E+04 -6.60813E+04 -1.53510E+03
 -5.25882E+04 -5.59428E+04 -6.18533E+03 -7.53790E+04  3.34242E+04 -5.34182E+04  4.71432E+04 -1.63771E+04
  4.22366E+04  1.13088E+04  3.04092E+04  2.45981E+04  1.64261E+04  2.77169E+04 -4.15914E+03  2.81728E+04
 -2.06219E+04  1.20213E+04 -1.78892E+04 -3.78523E+03  5.15646E+03 -7.70620E+03  2.01264E+04  1.14754E+04
  7.61807E+03  3.38955E+04 -3.02165E+04  3.48425E+04 -6.22343E+04  2.80538E+03 -5.54338E+04 -4.16383E+04
 -1.10474E+04 -6.15213E+04  3.81993E+04 -4.35270E+04  5.66207E+04 -1.78229E+03  3.39814E+04  3.09903E+04
 -6.98778E+03  3.31607E+04 -2.87356E+04  1.29471E+04 -2.83911E+04 -4.42228E+03 -1.46085E+04 -1.04898E+04
 -8.04855E+03 -1.13759E+04 -6.97407E+02 -1.69643E+04  5.36742E+03 -2.16381E+04  1.43641E+04 -1.33774E+04
  1.16904E+04  3.52855E+03 -6.58249E+03  1.29226E+04 -1.91308E+04 -4.06154E+03 -8.06569E+03 -3.12291E+04
  2.11428E+04 -4.12404E+04  4.50296E+04 -2.01150E+04  4.24781E+04  1.88085E+04  1.49842E+04  4.23744E+04
 -1.58370E+04  3.18477E+04 -2.40598E+04  1.40372E+03 -9.32812E+03 -2.74031E+04  2.09384E+04 -3.17650E+04
  3.87935E+04 -7.69499E+03  3.22415E+04  2.30501E+04  1.63494E+04  4.37392E+04 -8.11576E+03  4.63182E+04
 -3.00894E+04  3.18691E+04 -3.90052E+04  9.08945E+03 -4.05269E+04 -1.65737E+04 -2.14133E+04 -3.58980E+04
  7.05184E+03 -3.60537E+04  2.93907E+04 -1.31612E+04  2.85554E+04  1.05141E+04  3.87726E+03  1.78119E+04
 -1.38945E+04  7.92594E+03 -9.63056E+03 -8.62525E+03  5.56963E+03 -1.10067E+04  1.69458E+04  5.81917E+03
  1.25218E+04  2.12196E+04 -5.95998E+03  2.31441E+04 -2.16794E+04  8.77289E+03 -2.59383E+04 -6.21236E+03
 -1.79057E+04 -1.66881E+04 -5.92082E+03 -1.84768E+04  4.35072E+03 -1.63096E+04  1.35727E+04 -1.61434E+04
  2.37544E+04 -1.24757E+04  3.01608E+04  2.27445E+03  2.14304E+04  1.79182E+04  3.41175E+03  3.38212E+04
 -1.59614E+04  2.84994E+04 -2.59648E+04  9.50409E+03 -1.98756E+04 -1.03324E+04 -3.85676E+03 -1.27015E+04
  1.62228E+03 -3.85053E+03 -3.37660E+03  4.56179E+03 -1.28873E+04  5.94547E+03 -1.30828E+04 -4.51278E+03
 -9.75533E+03 -1.61822E+04  4.24832E+03 -2.14449E+04  1.37984E+04 -1.55401E+04  1.41769E+04 -2.20425E+03
  1.00534E+04  1.22526E+04 -1.42170E+03  1.61393E+04 -1.12946E+04  9.19638E+03 -1.58859E+04 -3.59568E+03
 -1.18945E+04 -1.48474E+04 -2.02434E+03 -2.07316E+04  9.14987E+03 -1.46978E+04  1.66996E+04 -7.22576E+03
  1.65199E+04 -6.35763E+02  1.20703E+04  4.62912E+03  4.74164E+03  7.95260E+01  8.84971E+03 -1.91105E+03
  1.62964E+04  2.25222E+03  1.59190E+04  1.38715E+04  1.03805E+04  2.64386E+04 -3.77193E+03  2.97570E+04
 -1.78590E+04  2.36830E+04 -2.77854E+04  1.11226E+04 -2.77003E+04 -2.10496E+03 -2.32995E+04 -1.66732E+04
 -1.08819E+04 -2.35544E+04  7.63689E+03 -2.15506E+04  1.74459E+04 -1.16018E+04  1.71869E+04  4.11081E+03
  7.03785E+03  1.21077E+04 -7.35010E+03  1.10720E+04 -1.45767E+04  3.49572E+03 -1.01771E+04 -8.46991E+03
  8.87690E+01 -1.33314E+04  7.45332E+03 -1.09787E+04  9.44800E+03 -2.16503E+03  2.13540E+03  6.19016E+03
 -6.58774E+03  1.11850E+03 -4.61219E+03 -4.90772E+03  1.10701E+02 -1.01828E+04  8.12249E+03 -1.21053E+04
  1.33566E+04 -6.59728E+03  1.47246E+04  1.93093E+03  1.30261E+04  1.06768E+04  6.27330E+03  1.53039E+04
 -2.38110E+03  1.91762E+04 -1.12849E+04  1.17138E+04 -1.24708E+04  3.86317E+03 -1.00111E+04 -2.23930E+03
 -4.98523E+03 -4.39156E+03 -1.73377E+03  1.45253E+03 -1.71938E+03  2.17735E+03 -2.61754E+03  3.87519E+03
 -9.23694E+03 -8.04668E+02 -1.10417E+04 -7.04204E+03 -4.48118E+03 -1.31263E+04  4.35088E+03 -9.61463E+03
  6.63250E+03 -3.68662E+03  5.95381E+03  2.40553E+03  5.74980E+02  4.01607E+03 -3.94701E+03 -1.99427E+02
 -2.95698E+03 -7.47647E+03 -9.34175E+02 -8.99432E+03  4.70073E+03 -7.86627E+03  1.14830E+04 -4.78080E+03
  1.26919E+04  1.25398E+03  1.01670E+04  7.48579E+03  2.16725E+03  9.59117E+03 -5.53130E+03  9.84016E+03
 -9.72243E+03  1.24379E+03 -3.77460E+03 -7.36163E+02  4.10237E+02 -2.58643E+03  6.46898E+03 -2.39234E+02
  4.16107E+03  4.85687E+03  1.07337E+03  7.67111E+03 -5.48357E+03  6.42762E+03 -8.71003E+03  2.37096E+03
 -6.68918E+03 -4.22866E+03 -1.46310E+03 -8.23583E+03  4.53028E+03 -4.28062E+03  4.45707E+03  2.12151E+03
  3.69086E+02  3.80981E+03 -3.96831E+03  6.13045E+03 -6.59935E+03  2.11850E+03 -5.71761E+03 -2.18675E+03
 -4.16191E+03 -7.63146E+03  1.58085E+03 -8.85865E+03  7.03921E+03 -7.14318E+03  8.74275E+03  7.28929E+02
  5.34586E+03  5.73454E+03 -9.54755E+02  7.43351E+03 -5.67323E+03  4.72366E+03 -7.24873E+03 -1.14343E+03
 -6.05820E+03 -6.70306E+03 -1.69472E+03 -5.68892E+03  2.25821E+03 -6.04657E+03  3.27567E+03 -3.14022E+03
  2.82755E+03  3.48547E+02 -6.21914E+02  1.67794E+03  3.19461E+02 -1.31311E+03  6.69864E+02 -3.44396E+03
  4.69192E+03 -1.15868E+03  5.71596E+03  1.32838E+03  7.12530E+03  4.30964E+03  6.57938E+03  8.75893E+03
 -8.89151E+00  1.11771E+04 -8.32877E+03  8.32020E+03 -1.38617E+04  1.04695E+03 -9.90896E+03 -3.25851E+03
 -5.56255E+03 -9.15203E+03 -8.38851E+02 -5.99825E+03  1.96529E+03 -3.01914E+03  1.96167E+03 -2.81971E+03
  1.66505E+03 -1.43487E+03  2.55920E+03 -2.20977E+03  3.69885E+03 -6.04018E+02  4.15327E+03 -5.27288E+02
  5.72804E+03  2.56516E+03  1.75535E+03  4.71982E+03 -9.57760E+02  4.22472E+03 -6.51280E+03  4.01108E+03
 -6.00358E+03 -1.96365E+03 -2.49850E+03 -4.82681E+03 -3.08480E+02 -6.07877E+03  3.78053E+03 -6.86994E+03
  6.39138E+03 -4.27656E+03  7.73681E+03  1.56602E+02  6.06918E+03  5.93233E+03  1.93407E+03  6.53481E+03
 -3.73136E+03  7.22101E+03 -3.66868E+03  1.91843E+03 -2.90050E+03 -4.67429E+02 -1.53032E+03 -6.25176E+01
 -6.68358E+02  6.08269E+02 -8.31071E+02  2.35159E+03 -2.81609E+03  1.14817E+03 -4.83515E+03 -8.35943E+02
 -2.75507E+03 -5.48411E+03  2.91666E+02 -5.29207E+03  4.59449E+03 -6.91303E+03  5.02543E+03 -1.52562E+03
  5.58194E+03  3.55885E+03  2.25266E+03  5.09377E+03 -7.56749E+02  5.99114E+03 -2.38573E+03  2.06674E+03
 -5.22217E+03  3.14205E+02 -4.19805E+03 -2.85476E+03 -2.76633E+02 -4.09384E+03  2.67256E+03 -3.17024E+03
  2.92953E+03 -1.31477E+03  3.70211E+03  8.36403E+02  1.33370E+03  2.27554E+03  1.09197E+03  2.31232E+02
  1.73280E+03  7.92658E+02  1.92458E+03  4.84842E+02  1.77193E+03  2.37053E+03  1.82804E+03  3.06245E+03
 -1.67180E+03  4.01087E+03 -2.29723E+03  5.24752E+03 -3.86420E+03  2.15042E+03 -5.33316E+03 -1.38801E+03
 -1.72870E+03 -5.26804E+03  9.41107E+02 -5.84202E+03  1.93573E+03 -4.74643E+03  3.98897E+03  5.60383E+02
  3.00945E+03  2.90211E+03  1.47098E+03  2.52536E+03 -1.40029E+03  2.23397E+03 -1.79464E+03 -6.86233E+02
 -1.04412E+03 -1.03448E+03  6.71198E+02 -1.64594E+03  2.26981E+03 -2.12147E+03  2.51185E+03  1.20568E+03
  8.35814E+02  1.77230E+03  9.50615E+02 -1.53502E+03  3.48212E+01  1.58323E+03  1.01399E+03 -3.41445E+02
 -7.71355E+02  3.76254E+02  2.19835E+03  1.27223E+03 -4.85116E+02  3.18283E+03 -5.67693E+01  4.36560E+03
 -2.64557E+03  1.85187E+03 -3.06535E+03  3.87973E+02 -3.33386E+03 -7.55650E+02 -9.35399E+02 -1.86554E+03
 -8.25442E+02 -1.50731E+03  1.18653E+03 -4.97959E+02  1.73635E+03  7.57355E+02 -4.80891E+02  2.22759E+03
 -1.48575E+03  1.53550E+03 -1.11176E+03 -1.73108E+03 -1.43357E+03 -2.39834E+03 -2.50558E+02 -2.60008E+03
  1.16489E+03 -1.56722E+03  1.48012E+03 -3.62591E+02  2.03568E+03  5.71479E+02  1.66586E+02  2.28201E+03
 -1.14275E+03 -2.19081E+02 -1.89623E+03 -3.79942E+02  7.19628E+02 -1.90582E+03  2.24700E+03 -1.47571E+03
  2.89064E+03 -1.21150E+02  3.47688E+03  1.14569E+03  1.74174E+03  3.08013E+03 -1.27980E+03  2.52384E+03
 -2.55514E+03  7.22714E+02 -2.08147E+03 -5.48648E+02 -6.74913E+02 -2.03824E+03  1.99445E+02 -2.36658E+03
  1.92627E+03 -1.26125E+03  1.41062E+03  2.25994E+03  4.52455E+02  1.57591E+03  4.50320E+02  2.39772E+03
 -5.32029E+02  1.46277E+03 -6.75570E+02 -4.46925E+02 -1.39499E+03 -7.07338E+02 -5.39098E+02  8.25217E+02
 -5.18952E+02  4.19678E+02 -3.53097E+03  1.21440E+02 -2.58591E+03 -3.52382E+01 -3.29956E+03 -7.09952E+02
 -1.05445E+03 -3.27425E+03  7.12032E+02 -3.82025E+03  6.11944E+02 -2.95298E+03  3.43916E+03 -1.71534E+03
  4.25425E+03  6.21447E+02  1.78612E+03  2.38431E+03 -5.85000E+02  3.15831E+03 -1.43016E+03  2.25192E+03
 -1.63538E+03 -2.37195E+02  1.65030E+02 -4.87454E+02 -6.24589E+02  7.17882E+02 -2.16773E+03 -6.96754E+02
 -9.21334E+02  2.52232E+02 -9.80742E+02  3.84874E+02  6.78468E+02 -1.48224E+03 -7.61582E+02 -9.05012E+02
  2.37305E+03  8.72987E+01  4.06959E+02 -4.77333E+02  3.45186E+03  2.20099E+03 -3.49237E+02  1.86098E+03
 -1.05103E+03  3.09386E+03 -1.77339E+03  2.54992E+03 -2.24610E+03 -3.77831E+02 -2.74018E+03 -2.39128E+03
 -5.76081E+01 -1.47798E+03  6.72542E+02 -1.94870E+03  7.19394E+02 -4.77881E+02  1.41004E+03 -2.71170E+02
  1.34147E+03  6.47212E+02 -1.52249E+02  5.89479E+02  6.25415E+02 -1.75370E+03  8.80244E+02 -1.05420E+03
  6.82958E+02  3.46656E+02  1.25941E+03  3.70107E+02 -4.25387E+02 -2.58121E+02  2.44914E+02  1.39979E+03
 -1.46662E+03  5.90457E+01 -1.03532E+03 -1.60571E+02 -1.62791E+03 -7.29740E+02  3.19716E+02 -1.89822E+03
  7.37135E+02 -1.90525E+03  1.33523E+03 -2.33510E+01  2.21401E+03  2.10159E+02  7.95156E+02  2.29249E+03
  1.42001E+02  5.60279E+02 -3.08443E+02  1.37309E+03 -3.54830E+02 -4.12013E+02 -7.23843E+02  2.65069E+02
 -5.73377E+02 -2.38438E+02 -1.62343E+02 -7.21828E+02 -8.76022E+02 -7.53330E+02 -1.65859E+03 -2.16742E+02
 -2.17014E+03 -9.58840E+02 -1.65806E+02 -1.70768E+03  1.31304E+03 -9.41328E+02  1.71407E+03 -8.49246E+02
  1.55002E+02 -7.35452E+02 -4.27165E+01  5.21079E+02 -1.02451E+03  1.50876E+03 -1.50386E+03  8.39469E+02
