 $NMID ID='MM_0lb_SNR200_7hz_g45_67.RAW', FMTDAT='(8E13.5)'
 TRAMP=1., VOLUME=1. $END
  3.09856E+05  1.06600E+03  3.38311E+05  2.50774E+05  8.56490E+04  3.39997E+05 -1.31917E+05  2.50632E+05
 -1.90249E+05  8.31375E+04 -1.14142E+05 -3.38497E+04  1.14961E+02 -5.02697E+04  5.45233E+04 -1.11971E+03
  3.52559E+04  5.36429E+04 -1.53618E+04  7.64109E+04 -6.05687E+04  6.54350E+04 -8.68707E+04  3.38052E+04
 -8.25891E+04 -1.28710E+04 -5.85048E+04 -5.28387E+04 -1.54012E+04 -7.19433E+04  2.76663E+04 -4.76225E+04
  4.08573E+04  4.18401E+03  1.72197E+04  4.83022E+04 -3.41581E+04  4.94204E+04 -6.77986E+04 -1.46745E+03
 -5.45722E+04 -5.89764E+04 -7.12932E+03 -7.99659E+04  3.48789E+04 -5.56419E+04  5.04552E+04 -1.77729E+04
  4.42001E+04  1.09118E+04  3.39414E+04  2.82828E+04  1.57723E+04  3.16382E+04 -5.18983E+03  2.72997E+04
 -2.25206E+04  1.02082E+04 -1.67992E+04 -5.33867E+03  7.56595E+03 -5.57765E+03  2.40358E+04  1.49200E+04
  5.73071E+03  3.58831E+04 -3.41044E+04  3.86639E+04 -6.71502E+04  2.42914E+03 -5.94322E+04 -4.56659E+04
 -1.34046E+04 -6.73095E+04  4.07806E+04 -4.97801E+04  6.02743E+04 -3.49262E+03  3.79765E+04  3.47282E+04
 -3.92569E+03  4.19422E+04 -3.31797E+04  2.02594E+04 -3.47273E+04 -4.73217E+03 -1.91218E+04 -1.31586E+04
 -1.14575E+04 -1.61425E+04  9.59996E+02 -1.85111E+04  7.29093E+03 -2.30931E+04  1.68225E+04 -1.16221E+04
  1.15138E+04  5.79289E+03 -1.19257E+04  1.37776E+04 -2.46482E+04 -8.88459E+03 -8.62493E+03 -4.00894E+04
  2.60229E+04 -4.83869E+04  5.39242E+04 -2.16512E+04  4.91976E+04  1.90994E+04  1.93163E+04  4.83651E+04
 -1.70324E+04  3.61190E+04 -2.71939E+04  1.96231E+03 -1.14632E+04 -2.92917E+04  2.24259E+04 -3.69742E+04
  4.73895E+04 -1.11886E+04  3.98971E+04  2.69225E+04  2.15268E+04  5.30412E+04 -8.05640E+03  5.77973E+04
 -3.60072E+04  3.94234E+04 -4.85380E+04  1.21808E+04 -4.79800E+04 -2.15541E+04 -2.89233E+04 -4.39190E+04
  7.30202E+03 -4.46646E+04  3.67245E+04 -1.71950E+04  3.44563E+04  1.26530E+04  5.54768E+03  2.21560E+04
 -1.33482E+04  1.09668E+04 -1.29052E+04 -8.17882E+03  6.43141E+03 -1.08786E+04  2.00707E+04  6.85246E+03
  1.35063E+04  2.31748E+04 -5.63467E+03  2.89150E+04 -2.44411E+04  1.52236E+04 -3.24928E+04 -2.64819E+03
 -2.51915E+04 -1.76447E+04 -1.28002E+04 -2.74849E+04  5.55263E+03 -2.81470E+04  2.06561E+04 -2.27082E+04
  3.47965E+04 -1.55729E+04  3.91909E+04  4.54058E+03  2.77244E+04  2.42407E+04  3.21368E+03  4.33822E+04
 -2.14303E+04  3.58598E+04 -2.99959E+04  1.01994E+04 -2.31791E+04 -8.51919E+03 -4.86880E+03 -1.20850E+04
 -9.32249E+02  3.79538E+02 -8.70002E+03  7.85762E+03 -2.19419E+04  5.07076E+03 -2.26599E+04 -9.13607E+03
 -1.24248E+04 -2.62272E+04  6.55142E+03 -2.95625E+04  2.10265E+04 -2.10639E+04  2.42646E+04 -3.32998E+03
  1.54089E+04  1.60735E+04 -1.36233E+03  2.48337E+04 -1.87699E+04  1.43626E+04 -2.42365E+04 -6.18734E+03
 -1.95203E+04 -2.19596E+04 -1.41495E+03 -2.98008E+04  1.26914E+04 -2.48934E+04  2.44298E+04 -1.20441E+04
  2.43469E+04  1.21783E+03  1.74328E+04  6.16428E+03  7.18805E+03  1.53126E+03  1.23180E+04 -2.24417E+03
  2.29626E+04  3.43424E+03  2.65784E+04  2.16858E+04  1.84882E+04  3.96036E+04 -1.83818E+03  4.96587E+04
 -2.56853E+04  4.20900E+04 -4.52589E+04  2.00725E+04 -4.93421E+04 -6.57414E+03 -3.90941E+04 -2.75092E+04
 -1.53259E+04 -4.01282E+04  1.40623E+04 -3.55160E+04  3.00206E+04 -1.74794E+04  2.60164E+04  8.75846E+03
  9.21999E+03  2.06953E+04 -1.20600E+04  1.67320E+04 -2.09619E+04  1.86733E+03 -1.52441E+04 -1.37272E+04
  1.18570E+02 -2.30126E+04  1.15016E+04 -1.53497E+04  1.48907E+04 -2.42778E+03  5.30322E+03  1.04403E+04
 -9.73942E+03  8.25507E+03 -1.08880E+04 -7.50015E+03 -2.28280E+03 -2.01169E+04  1.15309E+04 -2.32913E+04
  2.47360E+04 -1.44548E+04  2.82154E+04  3.93176E+03  2.80764E+04  2.10513E+04  1.03064E+04  3.16696E+04
 -4.04509E+03  3.30735E+04 -2.12327E+04  2.16915E+04 -2.41517E+04  2.35387E+03 -1.76444E+04 -6.85333E+03
 -7.05090E+03 -1.02416E+04  1.08371E+02 -5.03130E+02 -4.25814E+03  2.33769E+03 -8.18423E+03  5.97726E+03
 -1.50356E+04  5.30989E+02 -1.51765E+04 -1.17325E+04 -7.11883E+03 -2.06111E+04  7.24895E+03 -1.80736E+04
  1.43057E+04 -5.86844E+03  1.18233E+04  5.26865E+03  1.57612E+03  6.10241E+03 -9.62666E+03  1.77598E+02
 -6.79936E+03 -1.21386E+04 -9.13760E+02 -1.62482E+04  1.08600E+04 -1.68479E+04  2.15585E+04 -1.06159E+04
  2.89880E+04  2.92557E+03  1.97203E+04  1.68115E+04  2.96977E+03  2.10004E+04 -1.10896E+04  1.87922E+04
 -1.30501E+04  4.25340E+03 -8.77410E+03 -3.70370E+03  3.15730E+03 -3.19787E+03  9.11441E+03 -6.40215E+02
  9.55040E+03  8.20222E+03  1.73798E+03  1.41410E+04 -1.10797E+04  1.23985E+04 -1.69436E+04  4.97569E+03
 -1.18700E+04 -9.21430E+03  4.53400E+02 -1.51315E+04  1.13162E+04 -8.66876E+03  9.77140E+03  2.10054E+03
  2.97623E+03  1.09832E+04 -9.76727E+03  1.23841E+04 -1.50660E+04  6.71818E+03 -1.44123E+04 -6.08628E+03
 -9.52661E+03 -1.89669E+04  3.50345E+03 -2.21974E+04  1.71339E+04 -1.17216E+04  2.10559E+04  4.50329E+03
  1.09576E+04  1.59891E+04  4.56755E+02  1.82844E+04 -1.37466E+04  1.08971E+04 -1.40190E+04 -3.36282E+03
 -1.26170E+04 -1.38322E+04 -1.14793E+03 -1.23414E+04  8.39444E+03 -1.08283E+04  8.24829E+03 -3.73070E+03
  6.54083E+03  2.28309E+03 -1.43325E+03  2.54127E+03 -2.50430E+03 -5.58754E+03  3.71512E+03 -9.61868E+03
  1.45342E+04 -5.57429E+03  1.81252E+04  1.86110E+03  1.78810E+04  1.30940E+04  1.22895E+04  2.44819E+04
 -7.17095E+03  2.89973E+04 -2.33821E+04  1.97509E+04 -3.00168E+04  5.42865E+03 -2.61843E+04 -1.06787E+04
 -1.47824E+04 -2.12119E+04 -5.38526E+02 -1.64456E+04  8.38296E+03 -1.12433E+04  7.19884E+03 -6.37934E+03
  5.39737E+03 -4.15692E+03  4.74346E+03 -4.80274E+03  6.41898E+03 -4.62808E+03  9.07020E+03 -1.49302E+03
  1.34022E+04  3.17790E+03  8.06954E+03  1.21085E+04 -2.77431E+03  1.26273E+04 -1.27175E+04  9.69944E+03
 -1.72164E+04 -2.02901E+03 -1.13142E+04 -1.31528E+04 -2.25547E+03 -2.08212E+04  1.01484E+04 -1.95436E+04
  2.09459E+04 -1.14356E+04  2.25622E+04  2.28799E+03  1.29329E+04  1.58117E+04  2.16599E+03  2.26036E+04
 -8.62885E+03  1.71839E+04 -1.30999E+04  7.41035E+03 -8.78716E+03 -8.90314E+02 -5.66145E+03 -2.31043E+03
 -6.93952E+02 -5.91947E+02 -1.87120E+03  3.10494E+03 -6.58459E+03  2.16362E+03 -1.15924E+04 -6.62674E+02
 -9.10625E+03 -1.24768E+04  3.87326E+02 -1.72198E+04  1.06930E+04 -1.41794E+04  1.72332E+04 -3.79084E+03
  1.79763E+04  9.37990E+03  8.29073E+03  1.68039E+04 -2.83247E+03  1.90458E+04 -1.18534E+04  1.01430E+04
 -1.66107E+04  3.53820E+00 -1.14377E+04 -1.09951E+04 -4.04067E+03 -1.47729E+04  8.93487E+03 -1.16318E+04
  1.07260E+04 -2.28908E+03  7.32592E+03  1.22813E+03  1.86901E+03  5.66199E+03  3.13550E+03  1.81128E+03
  4.97245E+03  1.28310E+03  4.92602E+03  3.43494E+03  5.65535E+03  5.82317E+03  3.89336E+03  1.08516E+04
 -2.90952E+03  1.31468E+04 -1.19997E+04  1.46981E+04 -1.93069E+04  2.96245E+03 -1.90529E+04 -8.74962E+03
 -9.86416E+03 -1.99908E+04  1.26058E+03 -2.11116E+04  1.20240E+04 -1.26824E+04  1.46193E+04 -3.73754E+03
  1.17240E+04  6.32510E+03  2.51277E+03  9.94433E+03 -6.20752E+03  7.83760E+03 -7.25462E+03 -1.03158E+03
 -3.07610E+03 -7.80656E+03  4.49842E+03 -7.65632E+03  8.75341E+03 -4.12369E+03  7.26166E+03  1.00682E+03
  4.48757E+03  3.09858E+03  2.17923E+03  4.88207E+03  2.86644E+02  1.19189E+03  1.67846E+03 -2.43221E+03
  3.99631E+03 -1.65588E+03  7.67252E+03  4.24252E+03  4.75334E+03  9.98335E+03 -3.07022E+03  1.39168E+04
 -1.01027E+04  9.63072E+03 -1.38749E+04  1.73381E+03 -9.53901E+03 -2.74203E+03 -3.64415E+03 -7.52459E+03
  5.34639E+02 -8.82193E+03  4.31891E+03 -2.98680E+03  3.33329E+03  3.91450E+03 -2.47130E+03  5.24145E+03
 -7.06920E+03  4.46832E+03 -9.98243E+03 -4.74725E+03 -4.87017E+03 -9.92800E+03  9.74772E+02 -1.15146E+04
  7.42782E+03 -6.01122E+03  9.71857E+03 -3.72200E+02  7.14884E+03  3.75523E+03  1.92297E+03  6.37957E+03
 -3.65931E+03  2.04806E+03 -6.33767E+03 -1.89406E+03  2.67184E+03 -8.25914E+03  1.05314E+04 -7.57120E+03
  1.31817E+04  1.60653E+03  1.33585E+04  8.79004E+03  4.29867E+03  1.31061E+04 -5.67819E+03  1.22408E+04
 -1.24185E+04  7.37368E+03 -1.08960E+04 -8.87951E+02 -6.42481E+03 -9.40240E+03  1.66694E+03 -9.25510E+03
  7.78869E+03 -4.20381E+03  6.45633E+03  3.83654E+03  2.75822E+03  5.94521E+03 -2.11787E+03  7.19122E+03
 -4.13158E+03  4.48492E+03 -2.86198E+03  1.34502E+03 -1.43574E+03  1.05010E+03 -1.62332E+03  2.52603E+03
 -3.82957E+03  4.63307E+03 -1.03405E+04  6.44935E+03 -1.36860E+04 -1.69626E+02 -1.60330E+04 -8.87067E+03
 -8.17962E+03 -1.61606E+04  3.61352E+03 -2.03370E+04  1.37352E+04 -1.63991E+04  1.80473E+04 -7.52210E+03
  1.92851E+04  4.89670E+03  1.12742E+04  1.23690E+04  1.57948E+03  1.47821E+04 -6.51261E+03  1.33264E+04
 -7.47138E+03  4.00380E+03 -5.79049E+03 -1.48316E+03 -8.77754E+02 -2.52002E+03 -1.57325E+03 -4.47013E+02
 -2.63835E+03  6.38847E+02 -2.92509E+03 -5.98412E+02 -2.06903E+03 -4.22246E+03  9.71240E+01 -6.51902E+03
  6.05848E+03 -6.67275E+03  7.42564E+03  1.84908E+03  9.55204E+03  5.97143E+03  4.38392E+03  1.45724E+04
 -6.19592E+03  1.56099E+04 -1.17209E+04  8.20635E+03 -1.76088E+04  5.03488E+02 -1.42559E+04 -1.10231E+04
 -6.37976E+03 -1.40601E+04  3.94991E+03 -1.32936E+04  8.19675E+03 -7.79723E+03  1.01880E+04  7.45910E+02
  6.70191E+03  5.39907E+03 -5.99619E+00  3.29977E+03 -2.33357E+03  1.39044E+03 -1.97254E+02 -2.62196E+03
  5.61446E+03 -2.32270E+03  4.79692E+03  9.44946E+02  6.53968E+03  5.81854E+03 -8.39359E+02  7.31779E+03
 -4.68370E+03  7.08125E+03 -1.08358E+04  1.38527E+03 -1.08292E+04 -7.29709E+03 -1.73878E+02 -1.17591E+04
  7.24401E+03 -1.17534E+04  1.20055E+04 -3.79939E+03  1.23105E+04  4.25459E+03  7.48912E+03  9.40485E+03
  1.59872E+03  1.07057E+04 -3.07957E+03  8.53156E+03 -6.50924E+03  6.39145E+03 -6.68958E+03  2.43229E+02
 -2.30877E+03 -1.03951E+03 -3.96046E+03  2.12557E+03 -6.09641E+03  1.82060E+03 -6.63672E+03 -8.77535E+02
 -6.75106E+03 -3.59743E+03 -2.36437E+03 -1.00373E+04  5.44903E+03 -9.92911E+03  8.50133E+03 -6.06544E+03
  1.15552E+04  2.15164E+03  7.87001E+03  7.66343E+03  1.01607E+02  1.02222E+04 -7.52523E+03  7.87087E+03
