 $NMID ID='MM_0lb_SNR200_18hz_g50_43.RAW', FMTDAT='(8E13.5)'
 TRAMP=1., VOLUME=1. $END
  3.10619E+05  3.57982E+02  3.37249E+05  2.50261E+05  8.33384E+04  3.36698E+05 -1.31793E+05  2.50886E+05
 -1.89503E+05  8.22395E+04 -1.11099E+05 -3.32202E+04  1.66934E+03 -5.04323E+04  5.43984E+04 -3.59542E+02
  3.62241E+04  5.32127E+04 -1.62682E+04  7.47826E+04 -6.03455E+04  6.29620E+04 -8.33838E+04  3.09394E+04
 -8.02400E+04 -1.10127E+04 -5.75367E+04 -4.99410E+04 -1.55691E+04 -6.80265E+04  2.65600E+04 -4.52161E+04
  3.95073E+04  3.42536E+03  1.58087E+04  4.71001E+04 -3.42753E+04  4.58476E+04 -6.54974E+04 -1.46307E+03
 -5.33581E+04 -5.56691E+04 -6.07522E+03 -7.57132E+04  3.34476E+04 -5.36385E+04  4.70957E+04 -1.64057E+04
  4.22217E+04  1.11869E+04  3.02969E+04  2.52632E+04  1.61750E+04  2.85072E+04 -5.30810E+03  2.65952E+04
 -2.15713E+04  1.19805E+04 -1.88245E+04 -4.32464E+03  3.55990E+03 -7.44842E+03  2.21787E+04  1.16642E+04
  7.36091E+03  3.49968E+04 -2.98045E+04  3.44607E+04 -6.17057E+04  1.79773E+03 -5.55817E+04 -4.21132E+04
 -1.21697E+04 -6.16293E+04  3.85199E+04 -4.36765E+04  5.54185E+04 -2.38951E+03  3.11804E+04  3.16062E+04
 -6.01682E+03  3.34745E+04 -2.86369E+04  1.32350E+04 -2.85309E+04 -5.54052E+03 -1.44838E+04 -1.03270E+04
 -7.82097E+03 -1.17203E+04 -3.00955E+02 -1.62487E+04  6.15847E+03 -2.31219E+04  1.46553E+04 -1.44664E+04
  1.18200E+04  4.18591E+03 -6.25378E+03  1.30742E+04 -1.88488E+04 -2.87933E+03 -9.10477E+03 -3.02033E+04
  2.23012E+04 -4.00144E+04  4.56806E+04 -1.82832E+04  4.19069E+04  1.79241E+04  1.58625E+04  4.16873E+04
 -1.50919E+04  3.12676E+04 -2.30682E+04  1.21770E+03 -8.32582E+03 -2.72989E+04  2.05811E+04 -3.14305E+04
  3.89032E+04 -7.46153E+03  3.25615E+04  2.22330E+04  1.67422E+04  4.18054E+04 -8.14227E+03  4.52211E+04
 -2.80931E+04  3.09608E+04 -3.90737E+04  7.77818E+03 -3.90604E+04 -1.54000E+04 -2.16609E+04 -3.56661E+04
  6.26867E+03 -3.42489E+04  2.95875E+04 -1.24428E+04  2.76300E+04  1.04703E+04  2.35521E+03  1.81748E+04
 -1.36278E+04  7.47266E+03 -9.75112E+03 -8.45833E+03  6.13714E+03 -1.01367E+04  1.59589E+04  5.33228E+03
  1.26041E+04  2.12307E+04 -7.40790E+03  2.38348E+04 -2.17738E+04  1.02888E+04 -2.57222E+04 -5.79128E+03
 -1.82499E+04 -1.74235E+04 -5.53680E+03 -1.69010E+04  4.64368E+03 -1.54033E+04  1.35261E+04 -1.49203E+04
  2.26831E+04 -1.22214E+04  2.88923E+04  1.56722E+03  2.13669E+04  1.77325E+04  3.47721E+03  3.37458E+04
 -1.74145E+04  2.74668E+04 -2.68921E+04  1.03345E+04 -1.91373E+04 -1.13763E+04 -3.49073E+03 -1.41001E+04
  2.16603E+03 -4.86473E+03 -2.50505E+03  5.32279E+03 -1.37139E+04  5.29294E+03 -1.26082E+04 -4.68103E+03
 -8.91591E+03 -1.65588E+04  4.78585E+03 -2.06725E+04  1.41307E+04 -1.46271E+04  1.46212E+04 -1.27103E+03
  9.72409E+03  1.16962E+04 -9.99056E+02  1.60515E+04 -1.13141E+04  8.74383E+03 -1.57747E+04 -3.83325E+03
 -1.32000E+04 -1.39078E+04 -1.43615E+03 -2.05101E+04  9.16527E+03 -1.60199E+04  1.64338E+04 -8.60868E+03
  1.60457E+04  1.08558E+03  1.06593E+04  3.43637E+03  4.78333E+03  8.45044E+02  7.30977E+03 -1.12458E+03
  1.47413E+04  3.44160E+03  1.56544E+04  1.32906E+04  9.77295E+03  2.59908E+04 -3.11278E+03  2.72546E+04
 -1.65797E+04  2.24209E+04 -2.68687E+04  1.02544E+04 -2.61614E+04 -1.57075E+03 -2.17847E+04 -1.50565E+04
 -9.91569E+03 -2.21113E+04  6.87759E+03 -2.12081E+04  1.73819E+04 -1.12257E+04  1.59603E+04  3.00513E+03
  6.86543E+03  1.19265E+04 -7.44648E+03  1.10108E+04 -1.34025E+04  3.13077E+03 -1.15204E+04 -7.70324E+03
 -1.07934E+02 -1.21393E+04  6.64540E+03 -9.01788E+03  8.02980E+03 -6.49151E+02  1.03891E+03  5.54945E+03
 -6.55215E+03  1.96172E+03 -4.53941E+03 -4.27805E+03  9.06756E+02 -1.08406E+04  8.40628E+03 -9.82122E+03
  1.22324E+04 -4.78744E+03  1.22294E+04  2.20182E+03  1.04151E+04  1.11015E+04  4.90370E+03  1.55642E+04
 -1.27873E+03  1.70625E+04 -1.00352E+04  1.09583E+04 -1.11383E+04  2.83729E+03 -9.17307E+03 -1.37636E+03
 -3.85374E+03 -4.38219E+03 -3.00260E+02  6.20880E+02 -1.64571E+03  2.75462E+03 -4.46473E+03  3.23324E+03
 -8.57908E+03 -1.32758E+03 -8.77272E+03 -7.75040E+03 -4.46100E+03 -1.17784E+04  3.40528E+03 -9.27666E+03
  7.51576E+03 -3.64703E+03  6.10805E+03  1.96478E+03  4.06722E+02  4.22923E+03 -4.06009E+03  1.11470E+02
 -3.51513E+03 -6.37013E+03 -1.05304E+03 -7.45695E+03  4.53057E+03 -8.89647E+03  1.07880E+04 -3.85820E+03
  1.29135E+04  1.02396E+03  8.36315E+03  6.49701E+03  1.35476E+03  9.60073E+03 -5.26007E+03  8.09441E+03
 -7.73848E+03  3.53614E+03 -3.85127E+03 -8.52734E+02  1.41944E+03 -2.45489E+03  5.56476E+03 -7.17555E+02
  4.60206E+03  4.53322E+03  1.18488E+03  6.43611E+03 -6.11830E+03  7.14284E+03 -7.04282E+03  1.81719E+03
 -4.95824E+03 -3.16839E+03  5.20085E+02 -7.22616E+03  4.58833E+03 -2.94766E+03  4.92066E+03  1.88911E+03
  1.85026E+03  3.20426E+03 -2.77208E+03  5.34930E+03 -5.37633E+03  2.35153E+03 -5.09791E+03 -9.88750E+02
 -3.66457E+03 -6.15823E+03  4.45114E+02 -7.05777E+03  7.79628E+03 -5.99842E+03  7.50166E+03  1.46408E+03
  4.34216E+03  4.67993E+03  1.04440E+03  7.85070E+03 -5.86615E+03  3.70844E+03 -5.80284E+03 -5.71134E+02
 -6.35312E+03 -5.44599E+03 -9.67417E+02 -5.43659E+03  2.32966E+03 -5.31883E+03  4.01415E+03 -2.86386E+03
  2.75996E+03 -2.06555E+02 -3.52598E+02  9.79283E+02 -6.93614E+02 -2.11104E+02  6.59002E+02 -1.74584E+03
  4.41419E+03 -1.70151E+03  6.84878E+03 -2.09180E+01  6.12085E+03  3.32163E+03  5.03705E+03  7.33067E+03
 -1.67334E+03  8.97582E+03 -7.48861E+03  6.87393E+03 -1.01219E+04 -5.54883E+02 -8.94279E+03 -2.65656E+03
 -4.01829E+03 -7.64736E+03 -8.15921E+01 -5.24477E+03  1.80214E+03 -1.71989E+03  1.60697E+03 -2.41608E+03
  2.26194E+03 -1.15429E+03  2.57209E+03 -2.64874E+03  4.36420E+03 -1.50758E+03  3.36177E+03  3.07581E+02
  4.46833E+03  1.10026E+03  1.73067E+03  3.28249E+03 -2.09554E+03  3.55132E+03 -4.46646E+03  3.83163E+03
 -5.74298E+03 -7.27073E+02 -2.36151E+03 -3.64611E+03  1.11353E+02 -5.44612E+03  2.30091E+03 -6.44773E+03
  6.52211E+03 -3.09172E+03  7.29561E+03  1.37691E+03  5.40159E+03  5.91143E+03  2.09139E+02  6.75204E+03
 -3.71608E+03  6.43936E+03 -3.74100E+03  2.44372E+03 -1.91277E+03 -1.72067E+03 -5.46602E+02  5.30237E+01
 -2.31521E+02  1.80802E+02 -8.40578E+02  2.00562E+03 -3.64944E+03  1.41197E+03 -4.18340E+03 -2.56645E+02
 -2.22771E+03 -4.03978E+03  3.11213E+02 -5.23156E+03  3.62975E+03 -4.75889E+03  4.38241E+03 -1.34742E+03
  4.13551E+03  3.27828E+03  2.16411E+03  3.20730E+03 -1.17444E+03  6.36875E+03 -1.89932E+03  3.92461E+03
 -3.93880E+03  3.24957E+02 -2.81244E+03 -2.67161E+03 -3.68981E+02 -3.05694E+03  2.25801E+03 -4.11907E+03
  3.16313E+03 -4.20562E+02  2.93252E+03  6.96682E+02  7.79387E+02  1.90488E+03  8.02461E+02 -1.68402E+02
  1.37581E+03 -1.20770E+03  2.01742E+03  1.15148E+03  1.58593E+03  1.92606E+03  1.58691E+03  2.13033E+03
 -2.20573E+03  2.91338E+03 -2.11507E+03  4.13513E+03 -3.82435E+03  1.92568E+03 -5.30474E+03 -7.90502E+02
 -1.52643E+03 -4.68579E+03  6.73784E+02 -6.41150E+03  1.74981E+03 -1.57219E+03  3.58523E+03 -8.10330E+02
  2.75563E+03  1.97055E+03 -3.61242E+02  2.42567E+03 -1.04842E+03  1.20504E+03 -9.02332E+02 -6.47626E+02
 -1.85927E+03 -1.32759E+03  2.22714E+03 -1.99658E+03  2.30229E+02 -2.19392E+03  1.25761E+03 -7.71792E+01
  1.49895E+03  9.11980E+02  1.42958E+03 -3.46817E+02 -1.41542E+03  8.61908E+02  1.48147E+03  3.12342E+02
 -7.44681E+02 -2.06623E+03  1.48912E+03  7.86215E+02 -7.74573E+02  2.90043E+03 -1.91249E+02  2.72840E+03
 -2.01223E+03  1.19603E+03 -3.10047E+03  1.13104E+03 -3.04722E+03 -1.03434E+03  4.68659E+02 -7.20094E+02
  1.39423E+02 -1.54617E+03  2.80187E+02 -1.33496E+03  1.77072E+03  1.82136E+03 -8.33574E+02  1.40189E+03
 -1.46442E+03  1.89174E+02 -1.88972E+03 -7.76690E+02 -8.34732E+02 -1.78668E+03 -5.16939E+02 -1.48057E+03
 -1.05841E+03 -7.20727E+02  7.35609E+02 -5.84007E+02  2.49147E+03  3.14077E+02  2.73103E+02  2.11446E+03
 -1.10212E+03 -3.37393E+02 -2.05703E+02 -9.34489E+01  1.28707E+03 -1.45881E+03  2.89788E+03 -4.62300E+02
  2.40061E+03  3.98699E+02  2.59941E+03  3.43283E+02  2.27649E+03  2.03238E+03 -8.90177E+02  2.41549E+03
  1.45304E+01  2.65999E+01 -1.43059E+03 -3.92420E+02 -3.01619E+02 -6.95504E+02  3.65564E+02 -4.05301E+02
  1.38244E+03 -1.85440E+03  1.70141E+03  7.18639E+02  4.45003E+02  1.22010E+03  9.67524E+02  1.82650E+03
 -1.04011E+03  1.45389E+03 -1.78626E+03  4.33604E+02  3.95851E+02  2.95809E+02  3.20835E+02  1.32772E+03
  1.22279E+02  6.49678E+02 -1.65147E+03  4.83897E+02 -1.44442E+03 -2.99905E+02 -1.75183E+03 -1.61658E+03
 -4.05527E+02 -2.53391E+03  4.66910E+01 -2.91205E+03  1.18926E+03 -3.68228E+03  3.23972E+03 -1.50557E+03
  2.63368E+03  4.64641E+02  9.70957E+02  2.24142E+03  1.11368E+02  7.45929E+02 -1.16849E+03  7.78374E+02
 -9.04220E+02  1.00506E+03 -8.88901E+02 -3.91900E+02 -4.81652E+02 -1.03334E+03 -7.99089E+02  5.98722E+02
 -1.19963E+03  7.27335E+02 -1.55842E+03 -3.25783E+01 -6.19752E+01 -5.47356E+02 -6.37120E+02 -7.32842E+02
  1.31015E+03 -5.72303E+02  7.90059E+02  1.20868E+02  3.61627E+02  9.20096E+02  6.09999E+02  1.32455E+03
 -1.20590E+03  2.14335E+03 -1.84885E+03  1.40618E+03 -1.95136E+03 -7.33462E+02 -1.72077E+03 -2.62342E+03
 -1.12568E+03 -1.19419E+03  1.69240E+02 -7.78978E+02 -4.44689E+02 -7.07895E+02  9.30732E+01  9.83337E+02
  1.14947E+03  3.37243E+02  8.23697E+02  1.49200E+03  2.44631E+02  4.11908E+02 -6.81622E+01 -6.01487E+02
  6.51480E+02 -7.01742E+01  1.31720E+03  1.08871E+03 -3.85822E+01 -4.19239E+01  1.17777E+03  8.48422E+02
  3.25403E+02  1.37255E+03 -2.00557E+03 -4.69118E+02 -4.64029E+02 -2.35502E+02  3.74987E+02 -8.72201E+02
  1.27869E+03 -1.01614E+02  5.37055E+02 -1.01537E+03  1.10093E+03 -9.87883E+02  1.46015E+03  7.73593E+02
  1.20501E+03  1.20740E+03 -2.52935E+01  1.00046E+03 -2.74260E+02  1.57559E+03  7.33966E+02 -4.25749E+02
 -3.62702E+02  3.53324E+02  2.56809E+02  4.38912E+02 -5.10538E+02  2.24346E+02 -8.90791E+02 -5.55638E+02
 -8.61601E+02  1.30192E+02 -1.27344E+03 -1.97306E+03  2.58946E+02 -2.38481E+03  1.51806E+03 -1.69984E+02
  1.36875E+03  6.59751E+02  4.75016E+02 -8.21573E+01  2.70902E+02  1.35034E+03 -9.68478E+02  4.15763E+02
