 $NMID ID='MM_0lb_SNR200_15hz_g55_32.RAW', FMTDAT='(8E13.5)'
 TRAMP=1., VOLUME=1. $END
  3.09335E+05  1.45671E+03  3.38412E+05  2.49912E+05  8.53445E+04  3.39611E+05 -1.31760E+05  2.50958E+05
 -1.89009E+05  8.27053E+04 -1.10347E+05 -3.28298E+04  3.04449E+02 -5.00770E+04  5.44218E+04 -5.62054E+02
  3.48170E+04  5.26504E+04 -1.74349E+04  7.49264E+04 -6.12799E+04  6.33885E+04 -8.41786E+04  3.25483E+04
 -8.12359E+04 -1.14985E+04 -5.68184E+04 -5.12754E+04 -1.52327E+04 -7.04843E+04  2.60347E+04 -4.56356E+04
  4.06436E+04  3.15859E+03  1.65933E+04  4.82553E+04 -3.53502E+04  4.60244E+04 -6.58247E+04 -2.11898E+02
 -5.52127E+04 -5.68353E+04 -6.69183E+03 -7.82095E+04  3.44971E+04 -5.46151E+04  4.86199E+04 -1.77074E+04
  4.49943E+04  1.04548E+04  3.22436E+04  2.53491E+04  1.57987E+04  2.99819E+04 -5.55319E+03  2.67691E+04
 -2.12881E+04  1.29966E+04 -1.84437E+04 -4.91405E+03  4.81605E+03 -8.23737E+03  2.22250E+04  1.12204E+04
  8.60745E+03  3.59646E+04 -3.15864E+04  3.51171E+04 -6.30184E+04  3.13180E+03 -5.77927E+04 -4.16020E+04
 -1.19260E+04 -6.36704E+04  3.96408E+04 -4.54949E+04  5.84357E+04 -2.89022E+03  3.34968E+04  3.18806E+04
 -5.93331E+03  3.60457E+04 -3.02032E+04  1.57853E+04 -3.16469E+04 -5.14123E+03 -1.73290E+04 -1.16964E+04
 -7.46478E+03 -1.29223E+04 -1.44054E+03 -1.87993E+04  8.37265E+03 -2.32928E+04  1.56454E+04 -1.32231E+04
  1.13082E+04  6.07997E+03 -8.70474E+03  1.32960E+04 -2.16591E+04 -3.46709E+03 -7.97052E+03 -3.38297E+04
  2.21717E+04 -4.44093E+04  4.80046E+04 -2.02144E+04  4.53368E+04  2.00693E+04  1.59634E+04  4.31713E+04
 -1.50857E+04  3.37889E+04 -2.47626E+04  2.37167E+03 -1.05470E+04 -2.86381E+04  2.07006E+04 -3.38999E+04
  4.24914E+04 -9.44268E+03  3.53747E+04  2.32623E+04  1.87138E+04  4.62196E+04 -7.97353E+03  5.04757E+04
 -3.20649E+04  3.48074E+04 -4.30838E+04  1.04943E+04 -4.21353E+04 -1.63259E+04 -2.28210E+04 -3.82319E+04
  6.94617E+03 -3.68476E+04  3.08065E+04 -1.43694E+04  2.94207E+04  1.09722E+04  3.74299E+03  2.00436E+04
 -1.26821E+04  8.13447E+03 -1.11853E+04 -6.80870E+03  6.49539E+03 -1.03795E+04  1.76816E+04  5.61175E+03
  1.34758E+04  2.14884E+04 -5.51047E+03  2.54034E+04 -2.23058E+04  1.15044E+04 -2.72272E+04 -3.76647E+03
 -2.12958E+04 -1.68213E+04 -8.40528E+03 -2.03374E+04  3.45287E+03 -1.89466E+04  1.59460E+04 -1.78570E+04
  2.53380E+04 -1.22111E+04  3.25329E+04  3.18083E+03  2.37334E+04  2.07607E+04  4.96859E+03  3.53687E+04
 -1.59655E+04  2.98919E+04 -2.78227E+04  9.57481E+03 -1.93099E+04 -9.53203E+03 -4.99158E+03 -1.38261E+04
  2.22210E+03 -1.63808E+03 -6.52932E+03  6.23522E+03 -1.44149E+04  4.62904E+03 -1.55951E+04 -7.19100E+03
 -1.07298E+04 -1.87798E+04  5.82082E+03 -2.28788E+04  1.43572E+04 -1.61539E+04  1.89861E+04 -8.90996E+02
  1.07453E+04  1.39878E+04 -3.65524E+02  2.02393E+04 -1.21198E+04  1.13749E+04 -1.94737E+04 -4.04332E+03
 -1.27676E+04 -1.54631E+04 -4.83600E+02 -2.27226E+04  1.04121E+04 -1.84765E+04  1.92623E+04 -9.18113E+03
  1.82309E+04  1.71875E+02  1.35244E+04  3.96700E+03  6.84910E+03 -4.24190E+02  9.60969E+03 -1.41865E+03
  1.75949E+04  3.08354E+03  2.04713E+04  1.45900E+04  1.25945E+04  2.95695E+04 -2.39550E+03  3.26861E+04
 -1.96671E+04  2.76922E+04 -3.19049E+04  1.45476E+04 -3.30294E+04 -2.05589E+03 -2.77005E+04 -1.91846E+04
 -1.20636E+04 -2.64765E+04  9.73868E+03 -2.46451E+04  2.17615E+04 -1.23604E+04  1.90131E+04  5.12932E+03
  7.41831E+03  1.48017E+04 -8.28755E+03  1.18620E+04 -1.57038E+04  2.34178E+03 -1.21546E+04 -9.42607E+03
 -6.85414E+02 -1.53769E+04  7.77563E+03 -1.13831E+04  1.00007E+04 -2.17987E+03  2.20349E+03  7.20814E+03
 -6.00667E+03  2.16245E+03 -4.13768E+03 -6.50894E+03 -1.01520E+03 -1.27309E+04  1.00558E+04 -1.39678E+04
  1.61372E+04 -7.58275E+03  1.72314E+04  3.96341E+03  1.60710E+04  1.32611E+04  6.41817E+03  1.96615E+04
 -3.46657E+03  2.12188E+04 -1.30655E+04  1.36120E+04 -1.56003E+04  2.94758E+03 -1.09287E+04 -3.54926E+03
 -5.49123E+03 -4.78756E+03 -8.98175E+02  1.65480E+03 -1.45483E+03  2.59091E+03 -6.25465E+03  5.12173E+03
 -1.02622E+04 -2.85336E+01 -1.07393E+04 -9.17409E+03 -4.48035E+03 -1.46040E+04  4.07100E+03 -1.09922E+04
  8.90239E+03 -4.03216E+03  4.98054E+03  3.86323E+03  3.64513E+02  5.64857E+03 -5.43068E+03  6.79893E+02
 -5.92305E+03 -7.98775E+03 -1.08028E+03 -9.38978E+03  5.18365E+03 -1.06504E+04  1.35719E+04 -5.96587E+03
  1.60814E+04  6.43311E+01  1.08817E+04  8.00439E+03  3.06027E+03  1.23784E+04 -6.22167E+03  1.12368E+04
 -8.62062E+03  3.13493E+03 -4.61874E+03 -2.14602E+03  2.12966E+03 -2.39414E+03  5.64318E+03 -1.71430E+03
  6.32612E+03  5.20184E+03  1.41856E+03  9.62519E+03 -6.25121E+03  8.52375E+03 -9.40069E+03  1.60724E+03
 -6.87737E+03 -4.75572E+03  7.30293E+02 -8.75394E+03  6.45650E+03 -5.61765E+03  6.30714E+03  2.39845E+03
  5.63710E+02  6.21224E+03 -5.74533E+03  6.69057E+03 -8.27007E+03  2.67348E+03 -7.02965E+03 -2.35655E+03
 -4.75186E+03 -1.00841E+04  1.85191E+03 -1.08329E+04  8.98147E+03 -6.61256E+03  9.87337E+03  2.12279E+03
  7.60707E+03  7.40456E+03 -1.40521E+03  1.09658E+04 -7.43764E+03  5.86173E+03 -8.13641E+03  2.26095E+02
 -7.79323E+03 -7.00819E+03 -1.36701E+03 -8.47735E+03  4.07470E+03 -5.80115E+03  4.19276E+03 -2.76959E+03
  2.42378E+03  7.64212E+02  8.42634E+02  2.27952E+03  1.56536E+01 -2.06172E+03  1.08502E+03 -2.34965E+03
  7.11994E+03 -1.69970E+03  9.02744E+03  9.20953E+02  8.68794E+03  5.86629E+03  5.39617E+03  1.21877E+04
 -3.81880E+03  1.47068E+04 -1.17299E+04  9.65988E+03 -1.48968E+04  1.24339E+03 -1.24416E+04 -5.43569E+03
 -4.78204E+03 -9.76356E+03 -3.31822E+02 -9.66104E+03  3.43327E+03 -4.79733E+03  3.48170E+03 -3.00944E+03
  1.42298E+03 -1.57407E+03  3.59212E+03 -2.27257E+03  3.56117E+03 -2.59310E+03  4.59079E+03 -4.62716E+02
  5.85745E+03  1.54831E+03  3.44009E+03  4.88677E+03 -3.49772E+02  5.08383E+03 -5.86290E+03  4.89013E+03
 -8.44214E+03 -2.26483E+03 -4.56389E+03 -6.53122E+03  1.63534E+02 -8.61082E+03  4.45356E+03 -9.00361E+03
  9.04120E+03 -5.99770E+03  9.51581E+03  1.07063E+03  7.06420E+03  7.57802E+03  6.92296E+02  9.91989E+03
 -4.55113E+03  8.22025E+03 -5.47332E+03  2.28663E+03 -3.64490E+03 -2.27823E+03 -1.93242E+03 -4.37822E+02
 -1.91760E+03  4.20033E+02 -1.31800E+03  1.97485E+03 -3.35155E+03  1.74639E+03 -6.26197E+03 -7.41345E+02
 -2.83252E+03 -5.25549E+03  9.85286E+01 -8.20969E+03  4.37987E+03 -6.46470E+03  6.83939E+03 -2.25568E+03
  7.16358E+03  4.46520E+03  2.29801E+03  5.46844E+03 -1.62531E+03  7.96061E+03 -5.34624E+03  3.60586E+03
 -6.12752E+03  9.35793E+02 -6.41336E+03 -4.97382E+03 -1.27706E+02 -5.00915E+03  2.61210E+03 -4.65885E+03
  4.51896E+03 -2.94413E+03  3.00626E+03  6.81592E+02  5.51144E+02  3.19680E+03  1.29533E+03  4.93351E+02
  1.44707E+02  1.32257E+03  2.60964E+03  2.30795E+03  1.63788E+03  2.43517E+03  1.65335E+03  2.99365E+03
 -2.91613E+03  4.60949E+03 -3.88275E+03  5.42137E+03 -6.49690E+03  1.34358E+03 -6.84992E+03 -1.14168E+03
 -3.96628E+03 -4.90445E+03  1.00323E+03 -7.67329E+03  2.85222E+03 -3.91650E+03  6.27518E+03 -2.49697E+03
  4.83725E+03  3.07184E+03  1.76236E+03  4.75037E+03 -1.23299E+03  3.00248E+03 -1.59063E+03 -5.13080E+02
 -8.21391E+01 -2.55217E+03  1.59466E+03 -3.41751E+03  2.93189E+03 -6.07493E+02  3.12798E+03  4.76114E+02
  1.84148E+03  1.00039E+03  5.77776E+02  4.86567E+02 -6.15697E+02  1.89180E+03  1.47412E+03  1.15510E+02
 -1.99151E+02 -1.09097E+03  3.59415E+03  6.89526E+02 -5.54950E+01  3.80830E+03 -1.18910E+03  4.12440E+03
 -4.25061E+03  2.72853E+03 -5.01215E+03 -6.73073E+00 -4.02137E+03 -1.22469E+03 -2.25630E+03 -2.75814E+03
  7.37695E+02 -2.08716E+03  1.26703E+03 -9.49276E+02  2.21388E+03  1.83865E+03 -1.69696E+03  1.32940E+03
 -2.49871E+03  5.81807E+02 -2.59165E+03 -1.68050E+03 -2.39901E+03 -3.41249E+03 -2.69120E+02 -3.84056E+03
  7.57513E+02 -1.83853E+03  2.74078E+03  1.18605E+03  1.66786E+03  1.84680E+02  2.14279E+03  1.93069E+03
 -1.91723E+03  1.33266E+02 -2.76157E+03 -3.74178E+02  2.64653E+03 -3.66261E+03  3.03116E+03 -2.35641E+03
  2.66025E+03  4.12864E+02  4.96970E+03  2.20708E+03  1.90068E+03  3.16913E+03  3.61287E+02  2.86020E+03
 -3.47793E+03  1.12766E+03 -2.41490E+03 -1.16957E+03 -1.16537E+03 -2.12377E+03  1.39841E+03 -1.57518E+03
  2.70666E+03 -1.36475E+03  1.82514E+03  1.50602E+03  5.32611E+02  2.85898E+03 -4.16709E+02  1.97939E+03
 -1.17448E+03  1.99959E+03 -5.03934E+02  1.92351E+03 -1.98969E+02  2.47945E+02 -1.25049E+03  1.31131E+03
 -6.45521E+02  1.96724E+03 -2.03310E+03  7.55122E+02 -3.14613E+03  5.91470E+02 -3.67038E+03 -2.46008E+03
 -2.64244E+03 -4.61980E+03  3.42695E+02 -5.24498E+03  3.01126E+03 -4.21240E+03  4.67369E+03 -6.80406E+02
  3.57568E+03  2.81819E+02  1.13173E+03  2.47148E+03  1.21873E+03  3.60464E+03 -4.59173E+02  3.13934E+03
 -1.56057E+03  9.66143E+02 -1.50903E+03 -2.93486E+02  2.64136E+02  8.75968E+02 -1.17482E+03 -5.67688E+02
 -1.35861E+03  5.24422E+02 -1.68141E+03 -8.14414E+02 -1.33649E+02 -5.18789E+01  1.06347E+02 -2.23600E+03
  2.86439E+03 -5.96878E+02  2.50055E+03  2.82585E+02  9.75825E+02  7.91025E+02  1.81853E+03  3.64168E+03
 -2.12307E+03  4.86141E+03 -3.61762E+03  2.21710E+03 -4.45511E+03 -1.15906E+03 -3.86165E+03 -2.85910E+03
 -8.29082E+02 -2.98845E+03  7.01869E+02 -2.11371E+03  8.90924E+02 -2.50001E+03  2.65527E+03  8.42128E+02
  1.52774E+03  8.43816E+02  4.81135E+02  5.05308E+02 -3.55820E+02  2.19718E+02 -9.10497E+02 -5.59052E+02
  1.15773E+03  4.63714E+02  2.15155E+03  1.67821E+03  4.08036E+02  1.48972E+03  9.24912E+02  1.34030E+03
 -2.76828E+03  1.02270E+03 -1.25858E+03 -7.02018E+02 -1.47167E+03 -6.59162E+02 -8.50039E+02 -2.05702E+03
  1.06084E+03 -1.34350E+03  2.06362E+03 -2.14729E+02  3.10553E+03 -3.11913E+02  1.47696E+03  2.51643E+03
  8.57211E+02  2.19502E+03 -7.75620E+02  1.94336E+03 -3.80770E+02  1.61344E+03 -1.91762E+03 -7.01953E+02
  1.00531E+03 -4.99062E+02 -7.68362E+02  1.93619E+02 -1.01853E+03  1.14965E+02 -2.18198E+03 -9.30155E+02
 -1.62320E+03  6.03163E+02 -1.42691E+03 -3.05908E+03  7.82672E+02 -2.66690E+03  1.61740E+03 -1.98923E+03
  5.59810E+02  1.13364E+03  1.92412E+03  7.85250E+02 -1.46563E+03  2.70242E+03 -1.37304E+03  1.16572E+03
