 $NMID ID='MM_0lb_SNR200_17hz_g45_43.RAW', FMTDAT='(8E13.5)'
 TRAMP=1., VOLUME=1. $END
  3.10370E+05 -4.43866E+02  3.36698E+05  2.51349E+05  8.43954E+04  3.37618E+05 -1.31676E+05  2.50495E+05
 -1.90464E+05  8.22124E+04 -1.10979E+05 -3.32085E+04  1.25981E+03 -5.09930E+04  5.37218E+04  3.37508E+02
  3.46962E+04  5.23699E+04 -1.66505E+04  7.45228E+04 -5.93868E+04  6.29892E+04 -8.26778E+04  3.17373E+04
 -8.01055E+04 -1.18709E+04 -5.71248E+04 -4.97140E+04 -1.39661E+04 -6.81141E+04  2.64425E+04 -4.53487E+04
  3.84636E+04  3.58630E+03  1.56493E+04  4.69362E+04 -3.38677E+04  4.67896E+04 -6.65443E+04 -7.75503E+02
 -5.36044E+04 -5.70287E+04 -5.73821E+03 -7.56875E+04  3.34603E+04 -5.30554E+04  4.86737E+04 -1.72542E+04
  4.27157E+04  1.05985E+04  3.16892E+04  2.47329E+04  1.55883E+04  2.99889E+04 -4.78925E+03  2.72422E+04
 -2.36647E+04  1.33782E+04 -1.85790E+04 -3.31492E+03  3.87445E+03 -7.18247E+03  2.02414E+04  1.15829E+04
  8.01534E+03  3.44902E+04 -3.02470E+04  3.50673E+04 -6.07104E+04  2.72787E+03 -5.57406E+04 -4.14710E+04
 -1.15517E+04 -6.19206E+04  3.92866E+04 -4.45391E+04  5.56615E+04 -2.31892E+03  3.27548E+04  3.08206E+04
 -7.68510E+03  3.44513E+04 -2.92250E+04  1.48876E+04 -2.85547E+04 -5.42070E+03 -1.48596E+04 -9.94328E+03
 -6.70144E+03 -1.04135E+04 -2.17177E+03 -1.64244E+04  7.23436E+03 -2.30702E+04  1.57624E+04 -1.33785E+04
  1.19556E+04  5.56827E+03 -7.15081E+03  1.24906E+04 -2.00558E+04 -2.39674E+03 -7.60762E+03 -3.17595E+04
  2.19320E+04 -4.11313E+04  4.49722E+04 -1.80240E+04  4.23315E+04  1.81863E+04  1.45945E+04  4.21068E+04
 -1.54520E+04  3.20258E+04 -2.33223E+04  7.38152E+02 -9.19589E+03 -2.57134E+04  2.06169E+04 -3.12215E+04
  3.89281E+04 -7.68722E+03  3.35779E+04  2.20563E+04  1.72540E+04  4.35794E+04 -8.32986E+03  4.72614E+04
 -2.85815E+04  2.92232E+04 -3.86590E+04  9.36009E+03 -3.90517E+04 -1.46838E+04 -2.16540E+04 -3.59254E+04
  7.34281E+03 -3.50076E+04  2.98877E+04 -1.39041E+04  2.81060E+04  1.03882E+04  2.72170E+03  1.91342E+04
 -1.38197E+04  8.36431E+03 -1.02022E+04 -6.68999E+03  6.11714E+03 -1.03406E+04  1.74802E+04  5.82762E+03
  1.36804E+04  2.12326E+04 -7.05571E+03  2.33925E+04 -2.17253E+04  9.87976E+03 -2.53255E+04 -5.17072E+03
 -1.74935E+04 -1.63708E+04 -6.70530E+03 -1.70778E+04  3.73117E+03 -1.46323E+04  1.32620E+04 -1.53117E+04
  2.33453E+04 -1.24083E+04  2.97189E+04  1.35170E+03  2.14194E+04  1.63965E+04  4.94815E+03  3.33693E+04
 -1.58740E+04  2.93311E+04 -2.75506E+04  1.03396E+04 -1.97615E+04 -1.00897E+04 -3.66760E+03 -1.33076E+04
  1.19527E+03 -3.73613E+03 -3.50732E+03  5.80229E+03 -1.35498E+04  6.61961E+03 -1.43742E+04 -5.98242E+03
 -8.63297E+03 -1.60204E+04  4.77886E+03 -2.04206E+04  1.31431E+04 -1.50924E+04  1.45294E+04 -1.19289E+03
  1.06769E+04  1.18295E+04 -1.39758E+03  1.65418E+04 -1.04267E+04  1.02028E+04 -1.60591E+04 -3.23028E+03
 -1.21078E+04 -1.50430E+04 -2.08223E+03 -2.01973E+04  9.42780E+03 -1.62841E+04  1.64184E+04 -7.55365E+03
  1.56563E+04  8.62940E+02  1.18762E+04  5.14464E+03  5.24393E+03  5.08022E+02  7.68420E+03 -1.48522E+03
  1.44032E+04  3.44171E+03  1.64045E+04  1.25080E+04  1.06331E+04  2.60696E+04 -3.96972E+03  2.77994E+04
 -1.70047E+04  2.19623E+04 -2.70467E+04  1.11035E+04 -2.68257E+04 -2.65840E+03 -2.33465E+04 -1.43443E+04
 -1.06953E+04 -2.18170E+04  7.61803E+03 -2.03114E+04  1.83592E+04 -1.17355E+04  1.74872E+04  4.92036E+03
  4.92101E+03  1.07301E+04 -8.57699E+03  1.07342E+04 -1.40967E+04  3.58209E+03 -1.02107E+04 -8.08057E+03
  1.19659E+02 -1.30841E+04  7.01851E+03 -9.82437E+03  6.38461E+03 -2.37311E+03  1.55481E+03  5.18844E+03
 -5.18733E+03  2.66201E+03 -4.47979E+03 -3.72437E+03  1.41927E+03 -1.08596E+04  8.88782E+03 -1.08523E+04
  1.35312E+04 -5.60659E+03  1.35749E+04  2.06814E+03  1.07271E+04  9.92964E+03  6.11188E+03  1.62940E+04
 -3.01907E+03  1.86990E+04 -1.10224E+04  1.08526E+04 -1.23943E+04  2.51431E+03 -9.93383E+03 -2.61829E+03
 -6.24334E+03 -4.35323E+03 -9.72462E+02  1.22658E+03 -2.73985E+03  2.56595E+03 -3.30813E+03  3.52031E+03
 -8.30657E+03  4.19741E+01 -9.47895E+03 -7.28669E+03 -4.25244E+03 -1.27889E+04  3.08261E+03 -9.09640E+03
  7.98014E+03 -4.02455E+03  5.29882E+03  2.04525E+03 -1.82103E+02  2.70775E+03 -4.81747E+03 -1.61706E+02
 -5.08447E+03 -6.32385E+03 -1.23319E+03 -7.55245E+03  4.54920E+03 -9.35542E+03  1.07935E+04 -4.35034E+03
  1.20433E+04 -7.77480E+02  9.18043E+03  7.49649E+03  1.47438E+03  9.84113E+03 -5.51868E+03  8.58617E+03
 -6.78427E+03  2.24683E+03 -3.77526E+03 -3.04891E+03  1.52597E+03 -2.71743E+03  4.82838E+03 -1.12573E+03
  4.49126E+03  4.24479E+03  6.83831E+02  5.75879E+03 -3.65309E+03  7.03114E+03 -8.34502E+03  2.07431E+03
 -5.69217E+03 -5.10369E+03  1.56655E+02 -7.12473E+03  4.17833E+03 -3.38057E+03  4.16436E+03  1.59607E+03
  6.94962E+02  3.50323E+03 -4.97606E+03  5.27375E+03 -6.06769E+03  1.84587E+03 -5.87930E+03 -1.42427E+03
 -3.76192E+03 -6.45508E+03  1.57609E+03 -8.38908E+03  6.65041E+03 -5.11978E+03  7.17683E+03  1.57794E+03
  4.65552E+03  5.86746E+03 -6.94041E+02  7.31541E+03 -5.33721E+03  4.81425E+03 -5.58534E+03 -3.66209E+02
 -6.71444E+03 -4.50809E+03 -1.16212E+03 -5.40973E+03  2.96263E+03 -4.52080E+03  3.10062E+03 -3.01370E+03
  3.40169E+03  7.78656E+02 -1.11167E+03  2.16059E+03  1.13838E+03 -3.50036E+02 -3.26675E+02 -3.77653E+03
  4.23747E+03 -1.89248E+03  6.56689E+03  1.17050E+03  6.80196E+03  3.67066E+03  6.86731E+03  7.75581E+03
 -1.70825E+03  1.00455E+04 -9.08582E+03  7.62295E+03 -1.00745E+04  1.42060E+03 -8.22857E+03 -2.02637E+03
 -5.56844E+03 -7.21507E+03 -1.14915E+03 -6.50849E+03  2.81651E+03 -2.80380E+03  1.61852E+03 -2.87387E+03
  2.40553E+03 -1.04187E+03  3.02063E+03 -2.32527E+03  3.50250E+03 -1.97658E+03  3.01035E+03  1.30335E+03
  4.64272E+03  1.77570E+03  1.05712E+03  2.90832E+03 -1.84684E+03  3.13187E+03 -6.07043E+03  3.48764E+03
 -5.75800E+03 -1.54858E+03 -2.37225E+03 -4.22533E+03  1.30661E+03 -6.15484E+03  3.42000E+03 -7.06836E+03
  5.66662E+03 -4.55507E+03  8.42367E+03 -1.35147E+02  5.00344E+03  5.85083E+03  1.36935E+03  6.67440E+03
 -3.21633E+03  6.84332E+03 -4.04728E+03  1.68381E+03 -1.48873E+03 -1.10634E+03 -6.11064E+02 -1.11023E+03
 -1.35733E+01  5.61644E+01 -7.55281E+02  2.32873E+03 -2.59386E+03  1.39280E+03 -4.71411E+03  1.68944E+02
 -3.65725E+03 -5.54492E+03  3.13914E+02 -5.75266E+03  2.05933E+03 -5.24572E+03  5.94607E+03 -1.09532E+03
  5.22528E+03  1.96152E+03  2.00653E+03  4.97628E+03 -5.96280E+02  5.42658E+03 -3.33211E+03  3.56396E+03
 -4.71916E+03  1.19536E+02 -3.64338E+03 -3.75480E+03 -2.43818E+02 -4.06357E+03  1.74546E+03 -3.10831E+03
  3.18293E+03 -1.46096E+03  1.62018E+03  3.68692E+02  1.60681E+03  1.04016E+03  1.32135E+03  9.89881E+02
  2.24777E+03  2.77254E+02  2.05060E+02  8.37882E+02  8.23912E+02  3.24367E+03  1.16901E+03  2.66734E+03
 -1.68742E+03  2.74364E+03 -2.80333E+03  4.63849E+03 -4.09339E+03  6.79990E+02 -4.75601E+03 -1.96856E+03
 -1.87327E+03 -4.91049E+03  8.07716E+02 -5.59660E+03  1.79217E+03 -3.42440E+03  4.76640E+03 -1.42417E+03
  2.57998E+03  2.16711E+03  1.12492E+02  2.72544E+03 -8.91267E+02  2.97521E+03 -1.40480E+03 -4.07676E+02
 -1.67284E+03 -2.32848E+03  9.30711E+02 -2.10358E+03  3.77506E+03  5.83274E+02  8.06352E+02  7.79486E+02
  1.27951E+03  1.97799E+02  6.24874E+02  9.61761E+02  1.07210E+01  1.36654E+03  1.00530E+03 -1.81809E+03
  5.69312E+02  6.61352E+01  1.80716E+03 -2.39787E+02  8.81334E+02  3.35025E+03 -9.12771E+02  2.95123E+03
 -1.69190E+03  8.09753E+02 -2.57673E+03  1.46664E+02 -3.42665E+03 -1.25291E+03 -4.62270E+02 -1.07086E+03
  6.58503E+02 -1.24212E+03  1.04580E+03 -8.95164E+02  1.19370E+03  1.15218E+03 -7.27922E+02  3.56671E+02
 -1.60030E+03  1.16007E+03 -2.03233E+03 -1.44523E+03 -1.85146E+02 -2.72329E+03  1.36457E+02 -1.79261E+03
  1.05838E+03 -1.38235E+03  2.05028E+03 -5.11562E+02  1.16420E+03  8.13664E+01  7.78807E+02  1.62820E+03
  7.81670E+02 -4.38277E+02 -1.49246E+03  2.74964E+02  1.49423E+03 -2.02566E+03  2.68001E+03 -1.56505E+03
  2.14337E+03  2.23055E+02  3.38321E+03  8.52003E+02  1.07545E+03  2.60844E+03  8.80421E+02  3.04302E+03
 -1.04323E+03 -4.75449E+02 -2.70250E+03 -5.86561E+02 -7.15308E+02 -5.26058E+02  1.44442E+02  2.05230E+02
  1.71126E+03 -9.10842E+02  1.49699E+03  6.23380E+02  4.78379E+01  1.42646E+03  5.18504E+02  1.31887E+03
 -1.32954E+02  7.78819E+02 -5.51450E+02 -3.51175E+02 -2.29940E+02  7.14439E+02 -2.14270E+02 -1.15364E+02
 -9.03628E+02  2.79487E+02 -1.17513E+03  4.71031E+02 -2.07899E+03  4.90376E+01 -2.16464E+03 -1.78269E+03
 -1.18966E+03 -3.14256E+03 -3.81992E+01 -2.23117E+03  1.45895E+03 -2.44995E+03  3.76583E+03 -5.76971E+02
  4.37726E+03 -1.48369E+03  1.43855E+03  8.03449E+02 -1.08806E+03  3.21347E+03 -4.73704E+02  1.31325E+03
 -1.76208E+03  6.67782E+02 -7.95164E+00  1.42230E+02 -5.75045E+02 -4.22657E+01 -1.09872E+03 -1.39740E+03
 -1.36938E+03  4.91098E+02  8.06548E+02 -3.98352E+02  5.10501E+02 -2.60041E+02 -2.96189E+02  2.96382E+02
  1.25701E+03 -1.59047E+03  1.04591E+03  2.34548E+02  1.24314E+03  1.19058E+03  5.28642E+02  2.57920E+03
 -6.31214E+02  2.60467E+03 -1.61930E+03  2.39251E+03 -1.62846E+03  1.45438E+03 -1.56885E+03 -6.97849E+02
 -2.71095E+02 -1.86878E+02  1.42371E+03 -1.35800E+03  1.10652E+03  5.63533E+01  1.29364E+03 -1.18882E+03
  8.69005E+02  2.48039E+02 -8.61558E+02  7.91302E+02 -1.08305E+03 -1.62601E+02  2.90955E+02 -1.16595E+02
  9.59079E+02 -5.30360E+02  5.86813E+02  5.79075E+02  2.81402E+02  1.46579E+03  1.38134E+03  1.12280E+03
 -1.60685E+03  7.22660E+02 -8.38780E+02 -1.00126E+02 -1.25610E+03 -1.62488E+03 -3.30385E+02 -1.87268E+03
 -4.66179E+00 -2.26185E+03  1.17577E+03 -4.09335E+02  1.56307E+03  1.90525E+02 -1.87884E+02 -8.60356E+02
  1.47576E+03  5.25341E+02  1.27689E+02  6.16590E+02 -4.08575E+02  1.69125E+03  2.94833E+01  3.86224E+02
 -1.64875E+02  4.27449E+02 -5.76826E+02  2.18687E+02 -7.30538E+02  5.67108E+02 -1.34767E+03  1.51658E+02
 -1.40517E+03 -5.87040E+02 -5.95355E+02 -9.66354E+02  1.39385E+03 -1.19531E+03  6.24388E+02 -4.33488E+01
  3.88935E+02  6.73492E+01  6.07248E+02  4.39064E+02  7.76489E+02  7.70597E+02  3.17329E+02  9.06560E+02
