 $NMID ID='MM_0lb_SNR200_19hz_g50_54.RAW', FMTDAT='(8E13.5)'
 TRAMP=1., VOLUME=1. $END
  3.10181E+05  2.66123E+02  3.38313E+05  2.51676E+05  8.49410E+04  3.36932E+05 -1.31727E+05  2.50157E+05
 -1.90231E+05  8.28411E+04 -1.11056E+05 -3.20635E+04  1.36145E+03 -5.01808E+04  5.33588E+04 -3.39669E+01
  3.57873E+04  5.33856E+04 -1.78309E+04  7.39353E+04 -6.12770E+04  6.35919E+04 -8.28517E+04  3.18625E+04
 -7.97503E+04 -1.10571E+04 -5.51272E+04 -5.02732E+04 -1.38387E+04 -6.81309E+04  2.59759E+04 -4.47010E+04
  3.93699E+04  3.60307E+03  1.63387E+04  4.77667E+04 -3.37730E+04  4.60600E+04 -6.64433E+04 -3.44653E+02
 -5.22165E+04 -5.61433E+04 -6.13581E+03 -7.49273E+04  3.37583E+04 -5.30755E+04  4.64648E+04 -1.58669E+04
  4.21948E+04  1.06014E+04  3.11202E+04  2.39411E+04  1.60811E+04  2.80835E+04 -4.06268E+03  2.61485E+04
 -2.21710E+04  1.25268E+04 -1.88838E+04 -4.59382E+03  3.53708E+03 -7.89392E+03  2.20207E+04  1.10339E+04
  7.66215E+03  3.33651E+04 -3.04684E+04  3.35373E+04 -6.05991E+04  2.41820E+03 -5.55421E+04 -4.08691E+04
 -1.27249E+04 -6.06463E+04  3.67835E+04 -4.29237E+04  5.59102E+04 -9.47554E+02  3.24260E+04  3.00014E+04
 -6.38934E+03  3.30493E+04 -2.90707E+04  1.30845E+04 -2.78685E+04 -5.36476E+03 -1.44733E+04 -1.09946E+04
 -7.27909E+03 -1.15848E+04 -1.17640E+03 -1.61263E+04  6.30156E+03 -2.24336E+04  1.51997E+04 -1.39870E+04
  1.24145E+04  4.61346E+03 -5.91841E+03  1.31349E+04 -1.79097E+04 -2.61672E+03 -7.97510E+03 -3.06322E+04
  2.13718E+04 -4.01000E+04  4.46647E+04 -1.77948E+04  4.14992E+04  1.82264E+04  1.44699E+04  4.25434E+04
 -1.53759E+04  3.14267E+04 -2.34502E+04  7.51174E+02 -8.01235E+03 -2.62224E+04  2.15393E+04 -3.14356E+04
  3.89389E+04 -7.95753E+03  3.20591E+04  2.29749E+04  1.60571E+04  4.24943E+04 -7.57843E+03  4.45946E+04
 -2.94695E+04  2.98753E+04 -3.65268E+04  8.40262E+03 -3.77878E+04 -1.59592E+04 -2.05000E+04 -3.38507E+04
  6.48589E+03 -3.33882E+04  2.94416E+04 -1.20029E+04  2.69246E+04  1.04037E+04  2.76201E+03  1.80097E+04
 -1.27298E+04  6.02360E+03 -9.33893E+03 -8.00297E+03  6.33500E+03 -1.06520E+04  1.77392E+04  6.86596E+03
  1.22469E+04  2.13833E+04 -6.08934E+03  2.38225E+04 -2.14526E+04  8.32060E+03 -2.50542E+04 -7.36045E+03
 -1.65251E+04 -1.67269E+04 -6.23995E+03 -1.59496E+04  3.28726E+03 -1.53173E+04  1.26309E+04 -1.54636E+04
  2.06652E+04 -1.18074E+04  2.76762E+04  8.04987E+02  2.03319E+04  1.60865E+04  3.08695E+03  3.21698E+04
 -1.50665E+04  2.77189E+04 -2.50509E+04  8.74575E+03 -1.93372E+04 -1.07422E+04 -3.25055E+03 -1.33799E+04
  2.73632E+03 -4.91614E+03 -2.60205E+03  4.33221E+03 -1.27636E+04  5.59597E+03 -1.31325E+04 -5.36775E+03
 -7.57245E+03 -1.48822E+04  4.26832E+03 -1.91237E+04  1.29239E+04 -1.35722E+04  1.53684E+04 -1.96140E+03
  8.84772E+03  1.08951E+04 -6.62211E+02  1.63506E+04 -1.05967E+04  8.86135E+03 -1.61164E+04 -2.98642E+03
 -1.21322E+04 -1.47811E+04 -7.28929E+02 -1.93542E+04  8.02738E+03 -1.44564E+04  1.73897E+04 -7.04840E+03
  1.45901E+04  1.24060E+03  1.06361E+04  3.85909E+03  4.30937E+03  2.43625E+02  8.05984E+03 -1.10811E+03
  1.36130E+04  3.53011E+03  1.40787E+04  1.24236E+04  9.20700E+03  2.41593E+04 -1.65244E+03  2.71828E+04
 -1.63333E+04  2.02869E+04 -2.35951E+04  9.56908E+03 -2.44232E+04 -2.30946E+03 -2.10731E+04 -1.46861E+04
 -9.37743E+03 -1.99225E+04  6.51998E+03 -1.89804E+04  1.69393E+04 -1.04252E+04  1.51455E+04  4.32657E+03
  5.77907E+03  1.07598E+04 -7.25342E+03  1.05205E+04 -1.32304E+04  2.44557E+03 -1.00449E+04 -7.27890E+03
 -8.73497E+02 -1.11570E+04  6.57224E+03 -9.54841E+03  8.71993E+03 -2.37150E+02  1.68840E+03  3.94573E+03
 -4.26681E+03  9.31501E+02 -4.15281E+03 -5.10105E+03  9.93749E+02 -1.05867E+04  8.26267E+03 -9.93746E+03
  1.18655E+04 -4.57167E+03  1.16961E+04  1.57711E+03  1.03625E+04  1.02479E+04  4.69087E+03  1.42508E+04
 -1.09896E+03  1.50359E+04 -9.01348E+03  1.07562E+04 -1.11483E+04  3.22581E+03 -7.96146E+03 -1.43528E+03
 -3.91854E+03 -2.93610E+03  3.22013E+01  5.64708E+02 -1.57851E+03  1.98907E+03 -3.73747E+03  3.52576E+03
 -8.20635E+03 -1.00488E+03 -8.34489E+03 -6.61611E+03 -3.94944E+03 -1.17801E+04  3.97644E+03 -8.98744E+03
  8.72922E+03 -3.65782E+03  5.31038E+03  2.40656E+03  8.16050E+02  3.02658E+03 -2.74514E+03  3.29647E+02
 -2.86208E+03 -5.34988E+03 -1.66515E+03 -6.84494E+03  3.21930E+03 -8.74987E+03  1.00716E+04 -3.51683E+03
  1.15721E+04  1.52215E+03  8.12364E+03  6.03305E+03  1.72742E+03  8.93249E+03 -5.17702E+03  7.78236E+03
 -7.47163E+03  3.19973E+03 -3.39581E+03 -1.22498E+03  7.80050E+02 -1.84270E+03  5.30703E+03 -2.44060E+02
  4.21713E+03  2.09767E+03  1.43459E+03  6.41549E+03 -4.56127E+03  6.41014E+03 -7.20282E+03  2.11920E+03
 -5.43700E+03 -3.64226E+03  6.10975E+02 -6.60038E+03  2.73909E+03 -3.96047E+03  3.36445E+03  7.63381E+02
  9.53672E+02  2.40521E+03 -3.69800E+03  4.05643E+03 -5.31452E+03  2.69395E+03 -3.81982E+03 -8.90478E+02
 -3.36349E+03 -6.35001E+03  7.10618E+02 -7.25180E+03  6.31475E+03 -3.78897E+03  5.48945E+03  3.04939E+02
  4.28088E+03  4.08399E+03  9.53217E+02  7.24606E+03 -4.50559E+03  3.94278E+03 -4.79077E+03 -1.06515E+03
 -5.16194E+03 -4.69891E+03 -3.77137E+02 -5.15048E+03  2.53976E+03 -4.78475E+03  2.54988E+03 -2.56800E+03
  2.75956E+03  6.41757E+02  3.18239E+02  1.29734E+03  2.73293E+02  1.04493E+01 -3.18216E+02 -1.70541E+03
  3.62905E+03 -1.09805E+03  4.30006E+03  1.08420E+03  5.07045E+03  2.87104E+03  4.22113E+03  7.12946E+03
 -1.44450E+03  8.39678E+03 -7.71487E+03  6.74639E+03 -8.81875E+03  1.98511E+03 -8.52730E+03 -2.77919E+03
 -4.51043E+03 -5.92025E+03 -3.14398E+02 -4.89242E+03  2.96602E+03 -1.17456E+03  1.12693E+03 -2.26297E+03
  1.36921E+03 -1.07815E+03  2.21693E+03 -2.93459E+03  2.36774E+03 -2.08035E+03  2.83988E+03  9.86267E+02
  4.69841E+03  8.68154E+02  1.40369E+03  3.96264E+03 -1.50288E+03  2.07378E+03 -4.43755E+03  1.94157E+03
 -4.73776E+03 -2.12718E+02 -1.68956E+03 -2.90961E+03  9.22877E+02 -4.62146E+03  3.19987E+03 -3.96989E+03
  4.13292E+03 -3.87897E+03  6.62310E+03  6.82367E+02  4.72916E+03  2.55444E+03  2.14592E+03  5.89480E+03
 -1.92937E+03  4.73380E+03 -3.52210E+03  1.75532E+03 -1.76130E+03 -1.36684E+03 -2.71236E+02 -1.39975E+03
 -1.07706E+03  1.10046E+03 -5.75436E+02  2.22506E+03 -2.02563E+03  1.33075E+03 -4.20752E+03 -1.12989E+03
 -1.18752E+03 -3.06191E+03  1.26824E+03 -4.43908E+03  2.88872E+03 -3.81364E+03  3.73168E+03 -1.67664E+03
  3.72555E+03  1.74480E+03  1.08702E+03  3.04766E+03 -7.02716E+01  3.49584E+03 -1.35314E+03  2.66920E+03
 -3.68998E+03  5.36512E+01 -2.85829E+03 -1.82063E+03  9.65169E+01 -3.36295E+03  1.19962E+03 -3.08316E+03
  2.05326E+03 -1.59521E+03  2.95021E+03  4.68545E+02  1.57122E+03  8.46134E+02  2.98311E+02  7.07957E+02
  1.74557E+03  2.82366E+02  1.41252E+03  1.42013E+03  4.28435E+02  1.99580E+03  9.54779E+02  6.28514E+02
 -1.47017E+03  1.86528E+03 -2.22225E+03  4.18748E+03 -2.63436E+03  1.12114E+03 -3.44471E+03 -4.87058E+02
 -1.08004E+03 -3.75083E+03  5.09813E+02 -4.55581E+03  3.79738E+02 -2.81890E+03  2.78129E+03 -9.57845E+02
  2.25665E+03  8.10297E+02  4.33853E+02  2.47353E+03 -3.85824E+02  4.72647E+02 -1.39658E+03  6.89808E+01
 -5.59227E+02 -1.78297E+03  7.10602E+02 -1.46006E+03  1.26000E+03 -6.84186E+02  8.28755E+02  5.24910E+02
 -4.65158E+02  2.45047E+02  5.82982E+02 -4.65737E+02 -3.61743E+02  1.55750E+03  8.54487E+02 -3.16574E+02
 -2.51434E+02 -6.52089E+02  1.05153E+03 -1.13195E+02  2.80047E+02  1.95057E+03  1.54713E+03  3.03307E+03
 -1.83308E+03  1.28668E+03 -1.43922E+03 -4.92540E+02 -1.83392E+03  1.83974E+02 -4.60082E+02 -1.13123E+03
  5.99542E+02 -1.23799E+03  1.16369E+03  1.81214E+01  4.03348E+01  1.72487E+03 -1.91449E+02  7.47628E+02
 -2.54492E+02  9.36281E+02 -1.27207E+03 -1.39222E+03 -4.62662E+02 -7.50340E+02 -2.47707E+02 -2.07827E+03
  6.29310E+02  3.07457E+01  8.46912E+01 -3.88437E+02  1.40340E+03 -1.07576E+03  1.01295E+03  4.76688E+02
  5.42453E+02  1.36135E+02 -1.21601E+03  1.66574E+02  1.65221E+03  2.24274E+02  8.20633E+02 -1.32594E+03
  7.08185E+02  3.13546E+02  3.01426E+03  3.18156E+02  1.55897E+03  1.45050E+03 -6.25214E+02  1.17250E+03
 -1.52184E+03  6.07190E+01 -1.47023E+03 -1.09248E+02 -6.03897E+02 -6.01580E+02  1.17960E+03 -7.53050E+02
  1.99101E+03  6.77443E+02  1.38196E+03  6.96836E+02  3.58200E+01  1.84596E+02  5.31701E+02  1.26461E+03
 -3.67602E+01  2.03658E+03  3.63925E+01 -2.80728E+02 -3.68428E+02  4.86986E+02 -2.41651E+02  3.94794E+02
 -1.46195E+03  1.14947E+03 -1.50827E+03 -5.55611E+02 -1.70337E+03 -2.62736E+02 -1.11831E+03 -5.11087E+02
 -3.02048E+02 -1.79302E+03 -3.61381E+01 -2.85064E+03  6.62705E+02 -1.82906E+03  2.01939E+03 -6.12482E+02
  2.70456E+03 -1.23932E+03  4.46332E+02 -1.77340E+02 -5.89961E+02  5.41205E+02 -1.28415E+03  1.73404E+03
 -6.32693E+02 -9.77513E+02 -6.07791E+02 -3.82734E+02 -1.13205E+03 -2.49781E+01 -3.52311E+02 -4.34811E+02
 -1.21283E+03  1.51123E+02 -5.68891E+02 -2.84793E+02  3.74991E+02 -2.21171E+02  1.41935E+01 -1.22035E+03
  4.83302E+02  3.96675E+01 -2.34964E+02 -3.80304E+02  6.86441E+02  1.74396E+03  1.43486E+02  1.85992E+03
 -9.54364E+02  2.60678E+03 -1.93017E+03  1.14632E+03  6.31359E+02 -8.18035E+01 -9.40429E+02 -8.65139E+02
 -1.03481E+03 -1.95539E+03  6.55122E+02 -6.26012E+02  6.16497E+02 -6.20120E+02  6.61748E+02 -2.77399E+02
  5.55224E+01 -8.72354E+02  3.08542E+02  1.53922E+02  2.28963E+02 -4.55744E+02 -6.71106E+02  9.37564E+02
  9.63356E+02  5.15899E+02  1.34866E+02  5.75786E+01 -1.07451E+03  1.00068E+03  2.81000E+02 -1.00533E+03
 -1.34989E+03  1.72137E+03 -1.00518E+03 -3.68780E+02 -1.14752E+03 -6.33407E+02  2.67295E+02 -1.35642E+03
  1.43410E+02 -2.66811E+02  7.12633E+02  2.94342E+02  1.18177E+03 -5.16572E+02  5.48565E+02  5.46210E+02
  9.27340E+02  4.15127E+02 -1.60352E+03  4.05502E+02 -7.35497E+02  8.78228E+02  4.89330E+02  1.07320E+03
  4.48360E+02 -7.69542E+02 -7.54261E+02  4.26808E+02  2.55553E+02  3.49580E+02 -1.27645E+03 -3.98754E+02
 -5.04279E+02  1.12045E+03  1.96614E+02 -5.04178E+02  3.75717E+02 -1.66836E+03  1.29385E+03  9.59740E+02
  3.72762E+02  5.47466E+01  6.73154E+02  4.89622E+02 -3.08935E+02 -2.16442E+02 -1.56365E+03  7.10978E+02
