 $NMID ID='MM_0lb_SNR200_14hz_g45_55.RAW', FMTDAT='(8E13.5)'
 TRAMP=1., VOLUME=1. $END
  3.09317E+05  1.32547E+03  3.37639E+05  2.49888E+05  8.48039E+04  3.38092E+05 -1.33439E+05  2.50898E+05
 -1.88594E+05  8.25218E+04 -1.11696E+05 -3.19887E+04  1.54718E+03 -4.97887E+04  5.39021E+04 -1.95950E+02
  3.63474E+04  5.25717E+04 -1.62230E+04  7.60464E+04 -5.99819E+04  6.45732E+04 -8.24183E+04  3.23693E+04
 -7.94278E+04 -1.16783E+04 -5.77905E+04 -5.10283E+04 -1.44723E+04 -6.93027E+04  2.76275E+04 -4.61808E+04
  4.05741E+04  1.79616E+03  1.60186E+04  4.82410E+04 -3.49215E+04  4.73072E+04 -6.62942E+04 -1.25064E+02
 -5.30439E+04 -5.68681E+04 -6.54140E+03 -7.48158E+04  3.35356E+04 -5.57936E+04  4.76867E+04 -1.79406E+04
  4.37829E+04  1.16206E+04  3.21815E+04  2.51489E+04  1.55048E+04  2.92785E+04 -4.96735E+03  2.68509E+04
 -2.21223E+04  1.24143E+04 -1.78386E+04 -3.59399E+03  5.33656E+03 -6.20096E+03  2.28572E+04  1.36188E+04
  8.39363E+03  3.49052E+04 -3.22576E+04  3.64164E+04 -6.28334E+04  3.01814E+03 -5.60493E+04 -4.35695E+04
 -1.27097E+04 -6.35621E+04  3.97174E+04 -4.53237E+04  5.76331E+04 -3.05170E+03  3.51151E+04  3.36075E+04
 -5.64298E+03  3.59064E+04 -3.08045E+04  1.59155E+04 -3.02418E+04 -4.47073E+03 -1.59837E+04 -1.07728E+04
 -7.20521E+03 -1.38250E+04 -2.47595E+02 -1.82874E+04  7.21201E+03 -2.23406E+04  1.41101E+04 -1.29033E+04
  1.13047E+04  4.99491E+03 -7.66069E+03  1.27111E+04 -2.10495E+04 -4.65566E+03 -8.52997E+03 -3.40609E+04
  2.18264E+04 -4.35835E+04  4.69287E+04 -1.92963E+04  4.43274E+04  1.97592E+04  1.42226E+04  4.44760E+04
 -1.59445E+04  3.35555E+04 -2.56234E+04  1.09689E+03 -9.47664E+03 -2.88861E+04  2.04405E+04 -3.34190E+04
  4.09174E+04 -9.95012E+03  3.55908E+04  2.48183E+04  1.65268E+04  4.64864E+04 -8.62385E+03  4.92604E+04
 -3.20992E+04  3.25073E+04 -4.13019E+04  9.92422E+03 -4.12832E+04 -1.65719E+04 -2.22450E+04 -3.85312E+04
  6.52608E+03 -3.81850E+04  3.06530E+04 -1.45774E+04  2.73613E+04  1.19084E+04  3.83098E+03  1.95229E+04
 -1.45505E+04  7.29119E+03 -9.10944E+03 -7.30543E+03  5.45757E+03 -9.85522E+03  1.86020E+04  4.93869E+03
  1.37502E+04  2.15953E+04 -5.74359E+03  2.43376E+04 -2.27015E+04  1.03974E+04 -2.75026E+04 -5.84710E+03
 -2.08715E+04 -1.64926E+04 -7.86789E+03 -1.93411E+04  3.02322E+03 -1.85774E+04  1.51298E+04 -1.63889E+04
  2.40693E+04 -1.27024E+04  3.19008E+04  2.97349E+03  2.37815E+04  1.92558E+04  3.12195E+03  3.57488E+04
 -1.83972E+04  2.97917E+04 -2.74736E+04  1.12766E+04 -2.14943E+04 -1.06533E+04 -3.15594E+03 -1.32891E+04
  1.96709E+03 -2.09234E+03 -3.75520E+03  7.52081E+03 -1.58386E+04  4.70397E+03 -1.54060E+04 -6.74808E+03
 -1.11806E+04 -1.72673E+04  5.14776E+03 -2.32341E+04  1.41724E+04 -1.58727E+04  1.82018E+04 -1.87634E+03
  9.54195E+03  1.22585E+04 -5.00723E+02  1.83690E+04 -1.21512E+04  1.13505E+04 -1.84878E+04 -3.81718E+03
 -1.37988E+04 -1.68309E+04 -2.54782E+03 -2.31300E+04  1.06416E+04 -1.85761E+04  1.87196E+04 -9.65609E+03
  1.74683E+04  4.95492E+02  1.24456E+04  4.65242E+03  6.15772E+03  1.48575E+03  8.80688E+03 -1.75901E+03
  1.64526E+04  2.80808E+03  1.94139E+04  1.53074E+04  1.21265E+04  2.99245E+04 -2.74771E+03  3.30904E+04
 -1.88333E+04  2.66778E+04 -3.17097E+04  1.27947E+04 -3.20827E+04 -2.64611E+03 -2.65032E+04 -1.86864E+04
 -1.28291E+04 -2.73777E+04  8.37999E+03 -2.31252E+04  2.03689E+04 -1.22735E+04  1.85815E+04  4.36615E+03
  7.21711E+03  1.41429E+04 -7.36141E+03  1.16035E+04 -1.49242E+04  1.42084E+03 -1.16604E+04 -1.06960E+04
 -3.44465E+02 -1.48823E+04  7.77926E+03 -1.18500E+04  9.61116E+03 -1.21412E+03  2.65697E+03  5.85652E+03
 -6.38664E+03  1.23630E+03 -6.11878E+03 -4.93007E+03 -2.34269E+02 -1.22235E+04  9.15101E+03 -1.41407E+04
  1.54075E+04 -8.31577E+03  1.65864E+04  4.68008E+03  1.42282E+04  1.19668E+04  6.29109E+03  1.95742E+04
 -2.74389E+03  2.19688E+04 -1.40660E+04  1.40952E+04 -1.51830E+04  2.96560E+03 -1.20750E+04 -3.68813E+03
 -5.47758E+03 -4.49325E+03 -9.39027E+02  1.63682E+03 -2.69631E+03  3.32688E+03 -5.14909E+03  3.80373E+03
 -1.06162E+04 -7.32631E+02 -1.09790E+04 -9.16906E+03 -3.74951E+03 -1.39471E+04  4.41484E+03 -1.13956E+04
  1.02571E+04 -3.79708E+03  5.80401E+03  2.91642E+03  5.11171E+02  2.38708E+03 -4.97611E+03 -7.95144E+02
 -5.88685E+03 -7.00608E+03  5.75471E+02 -1.02417E+04  5.21663E+03 -1.15212E+04  1.29713E+04 -5.99287E+03
  1.68457E+04  1.01393E+03  1.21604E+04  9.23511E+03  1.78856E+03  1.29693E+04 -7.96252E+03  1.16683E+04
 -9.09884E+03  3.92020E+03 -5.11582E+03 -2.75028E+03  1.69370E+03 -3.84065E+03  5.77913E+03 -1.71114E+03
  5.54743E+03  5.58241E+03 -8.75872E+01  9.53236E+03 -6.14942E+03  8.75741E+03 -1.13528E+04  2.40272E+03
 -7.09789E+03 -4.36018E+03 -6.86871E+02 -1.02674E+04  5.77533E+03 -4.85518E+03  5.29903E+03  1.54089E+03
  1.85872E+03  4.83916E+03 -6.04894E+03  7.14634E+03 -7.99055E+03  3.41865E+03 -7.50355E+03 -4.27370E+03
 -4.69235E+03 -9.97517E+03  2.46927E+03 -1.08969E+04  9.70684E+03 -6.83669E+03  9.32546E+03  2.25074E+03
  6.86349E+03  8.50995E+03  4.93159E+02  9.83753E+03 -7.22727E+03  5.43185E+03 -8.65650E+03 -9.35978E+02
 -8.10350E+03 -5.74246E+03 -2.13328E+03 -6.99659E+03  4.18822E+03 -5.47635E+03  5.01108E+03 -3.46857E+03
  2.91083E+03  1.04631E+03 -1.16783E+03  9.26708E+02  5.95558E+02 -1.07523E+03  8.80143E+02 -4.15715E+03
  5.39039E+03 -2.01174E+03  8.79618E+03  1.12413E+03  1.06088E+04  5.37083E+03  7.10446E+03  1.24976E+04
 -1.14457E+03  1.43222E+04 -1.29954E+04  1.10035E+04 -1.57268E+04  2.76252E+03 -1.36665E+04 -3.78934E+03
 -6.50559E+03 -1.00802E+04  1.52971E+03 -8.94632E+03  3.45041E+03 -4.49106E+03  4.07278E+03 -2.65770E+03
  3.18556E+03 -1.79242E+03  2.13614E+03 -2.85517E+03  4.87087E+03 -3.69652E+03  6.23649E+03  7.65385E+02
  6.47325E+03  1.24285E+03  2.35401E+03  5.23576E+03 -2.60748E+03  6.55207E+03 -5.93401E+03  4.15985E+03
 -7.78850E+03 -9.16958E+02 -3.91051E+03 -5.58639E+03  4.39833E+01 -8.38889E+03  4.00260E+03 -8.58336E+03
  1.00530E+04 -6.10644E+03  1.04000E+04 -1.21649E+02  7.31874E+03  7.23982E+03  1.47834E+03  9.70468E+03
 -3.83149E+03  9.60169E+03 -5.97343E+03  3.35375E+03 -4.33804E+03 -2.46609E+03 -1.64981E+03 -1.13827E+03
 -9.25950E+02  7.07443E+02 -1.16779E+03  1.90328E+03 -3.45960E+03  2.47830E+03 -5.21954E+03 -1.63430E+02
 -2.70558E+03 -6.28867E+03 -8.60377E+02 -8.10480E+03  4.75000E+03 -7.60976E+03  6.09056E+03 -2.22906E+03
  6.88893E+03  3.78327E+03  2.96405E+03  7.17770E+03 -7.54952E+02  6.75145E+03 -5.25979E+03  4.23616E+03
 -6.52693E+03  1.49073E+03 -5.74763E+03 -5.30431E+03 -9.90637E+02 -5.69039E+03  3.82165E+03 -4.38501E+03
  4.64219E+03 -2.62394E+03  3.60835E+03  1.64833E+03  4.23360E+02  1.76869E+03  1.65578E+03  9.18861E+02
  2.34699E+03  8.52782E+02  2.18067E+03  1.29314E+03  1.96626E+03  2.90831E+03  9.05270E+02  4.97408E+03
 -1.61047E+03  5.69874E+03 -4.90972E+03  6.33206E+03 -6.88008E+03  1.60855E+03 -8.69893E+03 -2.38742E+03
 -3.15482E+03 -7.92941E+03  7.66986E+02 -8.61256E+03  4.68618E+03 -4.25686E+03  6.20521E+03 -2.44500E+03
  5.32021E+03  2.33338E+03  1.31190E+03  4.70979E+03 -1.20521E+03  1.86606E+03 -1.72444E+03 -1.51893E+02
 -2.40556E+03 -3.81523E+03  1.81226E+03 -3.49827E+03  2.24710E+03 -2.57683E+03  3.73470E+03  4.60703E+02
  1.04278E+03  1.29878E+03  6.30262E+02 -1.46208E+02  4.03807E+02  2.31264E+03  1.40064E+03 -4.08524E+02
  1.33295E+02  2.12454E+02  2.57914E+03  8.64269E+02  9.62995E+02  4.13786E+03 -6.65771E+02  6.29342E+03
 -4.16194E+03  2.16846E+03 -4.23112E+03  5.25884E+02 -3.90298E+03 -2.42403E+03 -1.76535E+03 -3.99132E+03
  4.64595E+02 -1.61852E+03  2.55433E+03 -2.14744E+03  5.75905E+02  1.04627E+03 -1.41434E+02  3.25656E+03
 -3.65910E+03  2.75263E+03 -2.87590E+03 -1.99549E+03 -3.12225E+03 -3.74405E+03  1.05911E+03 -4.13818E+03
  2.07615E+03 -1.95594E+03  2.91609E+03 -4.75675E+02  2.64405E+03 -6.85579E+01  5.48414E+02  2.07928E+03
 -9.55164E+02  7.91033E+02 -2.39827E+03 -1.33097E+03  1.62667E+03 -2.90549E+03  3.73900E+03 -2.32217E+03
  3.82393E+03  1.36546E+03  4.42536E+03  3.72302E+03  2.15278E+03  4.44722E+03  2.62920E+02  3.52274E+03
 -3.48664E+03  5.27004E+02 -3.56744E+03  1.03908E+02 -1.11126E+03 -1.86752E+03 -3.67770E+02 -2.73202E+03
  2.72547E+03 -1.26084E+03  2.22241E+03  1.61057E+02  8.97822E+02  3.09308E+03 -5.57437E+02  2.60509E+03
 -1.50343E+01  1.95125E+03 -9.95060E+02  1.29308E+03  4.40841E+01  6.10316E+02 -1.27431E+03  1.70688E+03
 -1.65796E+03  1.82039E+03 -2.78679E+03  1.16583E+03 -2.96978E+03  5.89155E+02 -6.42625E+03 -3.60138E+03
 -3.35153E+03 -5.86515E+03  1.11905E+03 -6.26548E+03  2.59023E+03 -5.70777E+03  4.38167E+03 -2.25145E+03
  6.05247E+03  1.01796E+03  1.90206E+03  3.41601E+03 -7.74446E+02  4.72942E+03 -1.28037E+03  3.38849E+03
 -2.70510E+03  1.87390E+03 -2.35391E+03 -1.72372E+02 -7.51001E+02 -5.35085E+01  5.23365E+02 -5.80724E+02
 -2.40778E+03  2.88581E+02 -6.80599E+02 -1.13070E+03  1.55634E+02 -1.03841E+03  1.66742E+03 -1.44387E+03
  1.79884E+03 -7.44068E+02  2.75943E+03  3.60162E+02  3.10660E+03  2.24152E+03  5.38035E+02  3.51879E+03
 -2.72812E+03  5.06855E+03 -3.42364E+03  4.17230E+03 -5.71003E+03 -9.35576E+02 -2.84268E+03 -3.37710E+03
 -2.57952E+03 -4.70177E+03  1.24932E+03 -3.18698E+03  2.11245E+03 -2.27601E+03  1.62138E+03  4.00932E+02
  2.30315E+03  9.99596E+02 -2.50109E+03  2.14745E+02 -8.89753E+01 -4.94370E+02 -9.68617E+02 -8.64539E+02
  7.24014E+02 -1.39737E+02  1.53968E+03 -1.65918E+02  6.74488E+02  1.05359E+03  6.22063E+02  2.03603E+03
 -1.28052E+03  1.17230E+03 -2.55997E+03  2.10439E+03 -2.84184E+03 -1.38519E+03 -1.10684E+03 -3.26514E+03
  1.70080E+03 -2.29833E+03  2.44403E+03  8.93664E+01  2.05523E+03  4.05716E+02  1.13054E+03  1.78109E+03
  1.04665E+03  1.76483E+03 -1.52191E+03  2.35073E+03 -1.87825E+03  1.03525E+03 -1.42165E+03  2.61796E+02
 -4.21677E+00 -4.04511E+02 -7.32070E+02  1.06058E+03 -1.72755E+03  8.16359E+02 -7.79076E+02 -1.36100E+03
 -1.73304E+03 -8.40770E+02 -5.63989E+02 -3.61027E+03  7.35329E+02 -2.39557E+03  2.08463E+03 -1.80099E+02
  1.25520E+03  8.81800E+01  1.77564E+03  1.31730E+03 -5.34602E+02  2.54854E+03 -2.51374E+03  1.30740E+03
