 $NMID ID='MM_0lb_SNR200_14hz_g45_85.RAW', FMTDAT='(8E13.5)'
 TRAMP=1., VOLUME=1. $END
  3.10431E+05  6.00603E+02  3.37335E+05  2.50001E+05  8.50162E+04  3.37855E+05 -1.33047E+05  2.51101E+05
 -1.90935E+05  8.28619E+04 -1.10840E+05 -3.20744E+04  1.33118E+03 -5.01157E+04  5.29177E+04 -7.06153E+02
  3.59834E+04  5.32457E+04 -1.56327E+04  7.56553E+04 -6.11889E+04  6.35006E+04 -8.37375E+04  3.17132E+04
 -8.09614E+04 -1.21936E+04 -5.72001E+04 -5.13742E+04 -1.54685E+04 -7.00701E+04  2.71731E+04 -4.49639E+04
  3.94278E+04  3.73313E+03  1.57825E+04  4.82169E+04 -3.47287E+04  4.69446E+04 -6.66244E+04 -1.17806E+03
 -5.25476E+04 -5.62042E+04 -7.81740E+03 -7.71601E+04  3.36554E+04 -5.50332E+04  4.82632E+04 -1.84063E+04
  4.42028E+04  1.12584E+04  3.14336E+04  2.49657E+04  1.51282E+04  2.85196E+04 -5.34041E+03  2.69824E+04
 -2.11034E+04  1.17841E+04 -1.87095E+04 -3.76154E+03  6.03226E+03 -7.52222E+03  2.24677E+04  1.14724E+04
  7.89909E+03  3.41009E+04 -3.40733E+04  3.63589E+04 -6.38055E+04  1.03806E+03 -5.65388E+04 -4.21143E+04
 -1.28757E+04 -6.32120E+04  3.97055E+04 -4.37072E+04  5.66789E+04 -2.70936E+03  3.37213E+04  3.19447E+04
 -6.15026E+03  3.54036E+04 -2.98411E+04  1.58836E+04 -2.92030E+04 -4.51574E+03 -1.70630E+04 -1.10531E+04
 -8.89202E+03 -1.25310E+04 -1.33244E+03 -1.80052E+04  7.03101E+03 -2.26366E+04  1.54008E+04 -1.17585E+04
  1.19540E+04  4.16527E+03 -7.85497E+03  1.28622E+04 -2.16047E+04 -3.30290E+03 -8.26845E+03 -3.20828E+04
  2.30184E+04 -4.34096E+04  4.89776E+04 -1.91398E+04  4.55275E+04  1.92322E+04  1.49341E+04  4.44082E+04
 -1.60885E+04  3.36888E+04 -2.56485E+04  1.09288E+03 -9.98656E+03 -2.76200E+04  2.16405E+04 -3.39932E+04
  4.18713E+04 -7.82663E+03  3.57485E+04  2.39819E+04  1.68880E+04  4.52089E+04 -9.00655E+03  4.95025E+04
 -3.18731E+04  3.37299E+04 -4.11804E+04  8.25892E+03 -4.13462E+04 -1.70245E+04 -2.48094E+04 -3.81585E+04
  7.91475E+03 -3.67981E+04  3.14684E+04 -1.46204E+04  2.83627E+04  1.11223E+04  4.00240E+03  1.89232E+04
 -1.39448E+04  1.03019E+04 -1.05426E+04 -7.53255E+03  6.22593E+03 -1.21457E+04  1.81689E+04  5.76522E+03
  1.30252E+04  2.21660E+04 -5.84298E+03  2.40155E+04 -2.26613E+04  1.14515E+04 -2.66393E+04 -5.14864E+03
 -1.94587E+04 -1.73006E+04 -8.08097E+03 -2.04400E+04  4.33266E+03 -1.86842E+04  1.52740E+04 -1.80241E+04
  2.58012E+04 -1.31479E+04  3.38024E+04  1.23098E+03  2.34540E+04  1.92297E+04  4.48466E+03  3.56935E+04
 -1.94022E+04  3.04363E+04 -2.79603E+04  1.05439E+04 -2.01634E+04 -1.08761E+04 -4.93266E+03 -1.28026E+04
  8.84303E+02 -2.43501E+03 -4.83644E+03  6.51712E+03 -1.48966E+04  5.80787E+03 -1.55952E+04 -7.58047E+03
 -1.05791E+04 -1.84589E+04  5.94595E+03 -2.24228E+04  1.59033E+04 -1.58310E+04  1.83758E+04 -2.01917E+03
  1.09376E+04  1.31547E+04 -8.87248E+02  1.85732E+04 -1.20800E+04  1.04211E+04 -1.86330E+04 -3.73476E+03
 -1.45028E+04 -1.62723E+04 -1.85790E+03 -2.31336E+04  9.87159E+03 -1.71073E+04  1.85610E+04 -1.05007E+04
  1.74173E+04 -7.15412E+02  1.25618E+04  5.04030E+03  7.09605E+03  9.01320E+02  9.41034E+03 -2.72508E+03
  1.70014E+04  3.59013E+03  1.94266E+04  1.60579E+04  1.40988E+04  3.04322E+04 -3.35431E+03  3.32532E+04
 -1.91728E+04  2.59276E+04 -3.18721E+04  1.40078E+04 -3.28178E+04 -3.16854E+03 -2.70458E+04 -1.92736E+04
 -1.14968E+04 -2.80206E+04  7.98401E+03 -2.45922E+04  2.10316E+04 -1.22653E+04  1.87962E+04  6.39776E+03
  7.89986E+03  1.24897E+04 -8.78287E+03  1.34508E+04 -1.55033E+04  3.28418E+03 -1.25263E+04 -1.01879E+04
  8.13012E+01 -1.56154E+04  8.76523E+03 -1.04813E+04  9.58560E+03 -5.06469E+02  3.36600E+03  7.48112E+03
 -7.71635E+03  2.33229E+03 -6.81336E+03 -5.23600E+03  4.34698E+02 -1.41951E+04  1.04216E+04 -1.32914E+04
  1.48593E+04 -7.53693E+03  1.64334E+04  2.09881E+03  1.52750E+04  1.33838E+04  7.97983E+03  2.03644E+04
 -2.73033E+03  2.21847E+04 -1.42484E+04  1.43316E+04 -1.46654E+04  3.82991E+03 -1.22464E+04 -3.35179E+03
 -6.21039E+03 -5.58458E+03  3.57433E+02  9.81578E+02 -2.84930E+03  1.60261E+03 -5.46967E+03  4.73935E+03
 -1.09474E+04 -1.12394E+03 -1.15475E+04 -8.81251E+03 -3.86982E+03 -1.44322E+04  3.99356E+03 -1.07912E+04
  9.04138E+03 -3.62424E+03  5.34399E+03  3.06083E+03  1.35026E+03  4.64961E+03 -5.50974E+03 -6.45062E+02
 -4.99095E+03 -7.81121E+03 -4.79548E+02 -1.07891E+04  6.34731E+03 -1.06679E+04  1.39765E+04 -5.85859E+03
  1.48515E+04  7.93622E+02  1.13804E+04  8.90525E+03  2.54364E+03  1.33930E+04 -7.33350E+03  1.04055E+04
 -8.46173E+03  3.09033E+03 -4.25886E+03 -5.78478E+02  2.26874E+03 -2.66471E+03  6.16708E+03 -6.83530E+02
  5.64450E+03  6.24741E+03  1.44486E+03  7.57753E+03 -6.74979E+03  8.00638E+03 -1.01865E+04  3.03705E+03
 -7.40395E+03 -4.17308E+03  9.26736E+02 -9.90714E+03  5.34484E+03 -4.09600E+03  5.69678E+03  2.50225E+03
  9.12955E+02  5.76308E+03 -5.45421E+03  7.17362E+03 -7.24125E+03  2.91406E+03 -8.68759E+03 -2.31380E+03
 -4.69804E+03 -1.01310E+04  3.34886E+03 -1.07310E+04  9.69757E+03 -6.14545E+03  1.06886E+04  2.26972E+03
  6.14786E+03  8.63927E+03  7.34953E+01  1.11702E+04 -6.88170E+03  6.65198E+03 -7.67261E+03 -4.95369E+02
 -8.10200E+03 -6.01641E+03 -2.78728E+03 -7.50774E+03  2.99726E+03 -6.50310E+03  3.94099E+03 -3.47215E+03
  3.54260E+03  9.38974E+02  8.22275E+02  7.89678E+02 -7.38679E+01 -2.15549E+03  2.09535E+03 -2.95467E+03
  6.80554E+03 -2.22524E+03  8.69024E+03  1.03915E+03  8.52804E+03  5.96134E+03  7.65611E+03  1.17297E+04
 -1.78216E+03  1.43154E+04 -1.25357E+04  9.97401E+03 -1.54559E+04  1.59393E+03 -1.28122E+04 -4.84222E+03
 -6.55890E+03 -1.06524E+04 -6.21273E+02 -7.91035E+03  2.09759E+03 -4.51409E+03  3.10994E+03 -2.36377E+03
  1.76901E+03 -2.75236E+03  2.56007E+03 -3.41738E+03  3.48375E+03 -2.19412E+03  5.05334E+03  8.64975E+02
  6.52222E+03  1.52568E+03  2.59549E+03  4.66993E+03 -2.71324E+03  6.24465E+03 -6.53247E+03  4.22392E+03
 -7.61763E+03 -1.04660E+03 -4.62555E+03 -6.00578E+03 -5.09839E+01 -8.83641E+03  3.91990E+03 -8.94485E+03
  9.47853E+03 -6.10334E+03  1.03094E+04  1.77704E+03  7.37054E+03  8.77879E+03  3.17356E+03  1.03362E+04
 -4.26656E+03  9.18109E+03 -5.90832E+03  2.33337E+03 -4.33453E+03 -1.28433E+03 -1.43607E+03 -1.34063E+03
 -1.26403E+03  6.77216E+02 -1.66767E+03  1.37323E+03 -3.95233E+03  3.34680E+02 -5.82462E+03 -1.73429E+02
 -4.05767E+03 -6.51987E+03  1.58431E+02 -7.40829E+03  4.87534E+03 -8.19669E+03  7.18837E+03 -1.20966E+03
  6.63019E+03  5.36611E+03  3.94203E+03  6.37015E+03 -1.04171E+03  8.08700E+03 -4.53728E+03  5.74971E+03
 -7.46774E+03  1.00834E+03 -6.02897E+03 -5.36715E+03 -1.65086E+03 -4.75916E+03  2.13738E+03 -4.59243E+03
  5.53571E+03 -1.84830E+03  2.07910E+03  1.93090E+03  1.67379E+03  3.25123E+03  1.04367E+03  5.27318E+02
  2.69053E+03  9.61450E+02  1.38331E+03  6.59085E+02  2.73376E+03  2.60942E+03  1.71315E+03  3.13418E+03
 -1.72631E+03  6.84328E+03 -6.12589E+03  6.49651E+03 -7.24061E+03  1.63772E+03 -8.17750E+03 -2.43548E+03
 -3.38280E+03 -7.79117E+03  2.33864E+03 -8.02833E+03  5.85737E+03 -5.50218E+03  5.62560E+03 -2.10333E+03
  4.48873E+03  2.26227E+03  1.27547E+03  3.64580E+03 -7.38721E+02  2.01446E+03 -3.00237E+03 -5.09237E+02
 -8.18368E+02 -3.35992E+03  2.57873E+03 -2.70127E+03  2.58226E+03 -2.35829E+03  2.18058E+03  5.69322E+02
  1.38474E+03  1.80171E+03  7.59338E+02  9.61322E+02  3.89625E+02  1.53559E+03  4.98585E+02 -6.90096E+02
  1.11515E+03 -8.16283E+02  2.34667E+03  5.28992E+02  1.08185E+03  4.08764E+03 -7.37495E+02  4.76155E+03
 -3.70903E+03  1.96167E+03 -5.75462E+03 -1.35125E+03 -4.63954E+03 -6.76498E+02 -1.03759E+03 -1.82009E+03
 -3.16751E+01 -2.37867E+03  1.22177E+03 -2.88532E+02  2.21235E+03  2.55829E+03 -2.57575E+03  2.99165E+03
 -3.07120E+03  1.11402E+03 -3.18891E+03 -2.23207E+03 -2.39250E+03 -3.95900E+03  1.16609E+03 -4.51570E+03
  2.10632E+03 -1.45466E+03  2.02849E+03 -1.41600E+02  2.35970E+03  1.07239E+03  3.13155E+02  1.42167E+03
 -1.45661E+03  9.77382E+02 -1.51438E+03 -1.60352E+03  5.03485E+02 -4.30762E+03  3.13055E+03 -2.99200E+03
  4.22921E+03 -7.04331E+01  3.79278E+03  4.66386E+03  2.79151E+03  4.30243E+03 -9.56076E+02  3.99997E+03
 -2.81966E+03  4.26524E+02 -3.70956E+03 -3.79865E+02 -2.28084E+03 -2.22248E+03  9.62006E+02 -2.42101E+03
  3.41577E+03 -3.78085E+02  1.56560E+03  1.76404E+03  2.26519E+03  2.91496E+03 -6.12582E+02  2.82946E+03
 -1.48545E+03  2.22037E+03 -2.18083E+03  7.78214E+02 -9.20861E+02  2.48855E+02 -8.73882E+02  1.70465E+03
 -2.26521E+03  3.66468E+03 -4.32260E+03  1.76762E+03 -3.90661E+03 -3.91204E+02 -4.52570E+03 -2.24202E+03
 -2.37486E+03 -5.21908E+03  2.28441E+03 -5.05257E+03  4.47316E+03 -6.53465E+03  6.41470E+03 -2.70677E+03
  5.01206E+03  6.39390E+02  2.51248E+03  3.47955E+03  7.02490E+02  5.61173E+03 -2.45665E+02  2.59052E+03
 -1.98384E+03  6.09181E+02 -1.19941E+03 -1.20687E+03 -1.08423E+03 -1.26297E+03 -2.13744E+03  2.32512E+02
 -1.84354E+02 -1.01648E+03  4.29157E+02  8.12797E+02 -9.32812E+02 -7.52408E+02 -2.11141E+02 -1.52158E+03
  1.82294E+03 -1.27245E+03  1.21693E+03  1.62057E+03  1.30161E+03  6.72571E+02 -9.85576E+01  4.69159E+03
 -1.85674E+03  4.82690E+03 -5.33716E+03  3.83927E+03 -4.43760E+03 -3.74653E+02 -5.11693E+03 -3.50987E+03
 -1.16702E+03 -4.66364E+03  1.18977E+03 -3.05305E+03  1.55421E+03 -8.57312E+02  2.49086E+03  1.79179E+03
  1.70505E+03 -6.07665E+01 -6.91130E+02  7.20043E+02 -1.32344E+03 -5.80323E+02  7.61468E+01 -1.04347E+03
  1.49370E+03 -2.81827E+02  1.57601E+03  1.81469E+03  6.04416E+02  9.73352E+02 -4.84763E+02  2.24412E+03
 -1.96135E+03  9.73623E+02 -1.64693E+03  4.36530E+01 -1.48785E+03 -1.39476E+03  2.13750E+02 -3.92170E+03
  2.85834E+03 -1.94569E+03  2.21782E+03 -1.90469E+03  3.25401E+03 -4.28594E+02  7.39686E+02  1.76987E+03
  3.93888E+02  1.36901E+03 -2.00793E+03  1.88280E+03 -1.24384E+03  1.31006E+03 -1.19023E+03  5.13113E+02
 -1.07360E+03 -5.36781E+02 -9.67768E+02  2.49139E+02 -5.86964E+02  2.60830E+02 -2.09241E+03 -7.10916E+02
 -2.53213E+03 -4.16595E+02 -1.00403E+03 -2.83523E+03  1.02814E+03 -2.85187E+03  1.51287E+03 -3.51819E+02
  2.51433E+03  4.75720E+02  1.28205E+03  2.11726E+03 -1.03594E+03  3.40943E+03 -1.24018E+03  1.20562E+03
