 $NMID ID='MM_0lb_SNR200_13hz_g55_28.RAW', FMTDAT='(8E13.5)'
 TRAMP=1., VOLUME=1. $END
  3.09176E+05 -2.10042E+02  3.38160E+05  2.49983E+05  8.46344E+04  3.38601E+05 -1.31903E+05  2.50846E+05
 -1.90049E+05  8.26588E+04 -1.11586E+05 -3.29530E+04  7.87882E+02 -5.03833E+04  5.37618E+04 -2.89865E+02
  3.59578E+04  5.32722E+04 -1.50073E+04  7.75700E+04 -5.99221E+04  6.39333E+04 -8.48479E+04  3.20455E+04
 -8.06994E+04 -1.02253E+04 -5.54023E+04 -5.34621E+04 -1.52424E+04 -6.92541E+04  2.86494E+04 -4.57326E+04
  4.16056E+04  3.22680E+03  1.64606E+04  4.81688E+04 -3.50626E+04  4.81587E+04 -6.72868E+04 -2.94981E+02
 -5.44923E+04 -5.64895E+04 -6.74675E+03 -7.66991E+04  3.45833E+04 -5.51898E+04  4.98784E+04 -1.76595E+04
  4.43760E+04  1.19016E+04  3.25850E+04  2.50609E+04  1.52178E+04  3.00118E+04 -5.11672E+03  2.64282E+04
 -2.33302E+04  1.17314E+04 -1.84894E+04 -5.01281E+03  4.81978E+03 -7.63243E+03  2.32784E+04  1.14795E+04
  7.67499E+03  3.54814E+04 -3.39342E+04  3.58694E+04 -6.47409E+04  2.25686E+03 -5.78692E+04 -4.35112E+04
 -1.21223E+04 -6.47196E+04  4.22535E+04 -4.59107E+04  5.99430E+04 -2.25110E+03  3.45355E+04  3.30307E+04
 -5.91724E+03  3.70074E+04 -2.99504E+04  1.77760E+04 -3.23710E+04 -5.46175E+03 -1.74471E+04 -1.10530E+04
 -7.84526E+03 -1.31403E+04 -8.06263E+02 -1.87563E+04  8.93038E+03 -2.37753E+04  1.50601E+04 -1.29800E+04
  1.16977E+04  4.31947E+03 -9.84392E+03  1.23529E+04 -2.17485E+04 -5.47270E+03 -8.32040E+03 -3.50057E+04
  2.44316E+04 -4.40629E+04  4.98002E+04 -1.93417E+04  4.66889E+04  2.11830E+04  1.72423E+04  4.64048E+04
 -1.62156E+04  3.47417E+04 -2.58392E+04  2.35740E+03 -1.11201E+04 -2.89042E+04  2.19273E+04 -3.50974E+04
  4.15689E+04 -9.47499E+03  3.75869E+04  2.43738E+04  1.92917E+04  4.83585E+04 -7.97349E+03  5.17101E+04
 -3.23721E+04  3.46568E+04 -4.41250E+04  1.13928E+04 -4.45918E+04 -1.82861E+04 -2.47668E+04 -3.96229E+04
  7.83475E+03 -3.93063E+04  3.08689E+04 -1.55919E+04  2.99734E+04  1.12518E+04  5.05127E+03  1.94050E+04
 -1.40922E+04  8.75764E+03 -1.05742E+04 -7.00332E+03  5.24132E+03 -1.21844E+04  1.92185E+04  6.29520E+03
  1.39705E+04  2.18184E+04 -7.01858E+03  2.54120E+04 -2.27649E+04  1.47126E+04 -2.89571E+04 -4.12472E+03
 -2.13299E+04 -1.82613E+04 -9.58900E+03 -2.16207E+04  4.02544E+03 -2.21108E+04  1.72023E+04 -2.07582E+04
  2.92167E+04 -1.43332E+04  3.37655E+04  4.06279E+03  2.46742E+04  2.16924E+04  6.42074E+03  3.81646E+04
 -1.80772E+04  3.18710E+04 -2.88641E+04  1.06415E+04 -2.22347E+04 -1.02020E+04 -5.64445E+03 -1.37256E+04
  1.51279E+03 -1.50714E+03 -5.89236E+03  8.07455E+03 -1.80191E+04  4.74926E+03 -1.70403E+04 -7.50716E+03
 -1.08211E+04 -2.04109E+04  4.86897E+03 -2.58125E+04  1.51912E+04 -1.74430E+04  2.00252E+04 -1.34280E+03
  1.18096E+04  1.43524E+04 -9.53347E+02  2.04611E+04 -1.53315E+04  1.11974E+04 -2.11094E+04 -6.03135E+03
 -1.54877E+04 -1.79584E+04 -3.20789E+03 -2.46999E+04  1.11063E+04 -2.07345E+04  2.18098E+04 -1.02177E+04
  1.96399E+04  4.16460E+02  1.33899E+04  3.90364E+03  7.90363E+03  1.39380E+03  1.04326E+04 -1.84742E+03
  1.87172E+04  3.62361E+03  2.09893E+04  1.69525E+04  1.40652E+04  3.27364E+04 -3.41715E+03  3.75338E+04
 -2.16702E+04  3.01729E+04 -3.52539E+04  1.54163E+04 -3.64534E+04 -2.56871E+03 -3.07223E+04 -2.04935E+04
 -1.36463E+04 -3.11153E+04  1.01307E+04 -2.73473E+04  2.39162E+04 -1.32976E+04  2.07342E+04  5.64818E+03
  7.77673E+03  1.63437E+04 -8.03905E+03  1.27868E+04 -1.77095E+04  3.80613E+03 -1.38047E+04 -1.05622E+04
  5.80729E+02 -1.79918E+04  8.16780E+03 -1.30113E+04  1.13325E+04 -1.58540E+03  2.38594E+03  5.93538E+03
 -6.42785E+03  3.03198E+03 -7.23530E+03 -5.57008E+03 -1.01258E+03 -1.49384E+04  1.08465E+04 -1.52378E+04
  1.86532E+04 -9.05279E+03  2.03712E+04  4.15638E+03  1.81849E+04  1.41806E+04  8.18617E+03  2.25807E+04
 -4.20346E+03  2.52991E+04 -1.48277E+04  1.49259E+04 -1.78939E+04  2.39665E+03 -1.18956E+04 -4.19795E+03
 -6.36236E+03 -5.36436E+03  1.79727E+02  2.39760E+02 -2.34352E+03  2.59236E+03 -5.31080E+03  5.34992E+03
 -1.23614E+04 -6.81397E+02 -1.25932E+04 -1.11274E+04 -4.09964E+03 -1.43796E+04  6.30920E+03 -1.38122E+04
  1.00710E+04 -6.84795E+03  7.64761E+03  3.44825E+03 -1.06903E+02  5.27451E+03 -5.34629E+03  3.85953E+02
 -6.09381E+03 -8.95185E+03 -1.20420E+03 -1.20170E+04  7.92910E+03 -1.33538E+04  1.60959E+04 -6.30208E+03
  1.90766E+04  1.53404E+03  1.25355E+04  1.03950E+04  2.66011E+03  1.33599E+04 -8.90234E+03  1.19622E+04
 -1.08520E+04  3.43246E+03 -4.48462E+03 -2.02166E+03  1.81636E+03 -2.90293E+03  6.58006E+03 -1.62994E+03
  6.37416E+03  4.73173E+03  1.65353E+03  8.82631E+03 -7.81240E+03  9.02052E+03 -1.28060E+04  2.66516E+03
 -8.72396E+03 -5.90545E+03  6.27759E+02 -1.09130E+04  7.14960E+03 -4.92859E+03  6.65686E+03  2.74594E+03
  2.45692E+03  6.69348E+03 -6.15685E+03  7.92427E+03 -9.74166E+03  3.60095E+03 -9.75142E+03 -2.63887E+03
 -4.34972E+03 -1.08149E+04  1.87163E+03 -1.21662E+04  1.04341E+04 -7.35145E+03  1.14248E+04  2.58621E+03
  7.47306E+03  1.01737E+04 -9.59766E+02  1.14639E+04 -8.76794E+03  6.69929E+03 -8.42014E+03 -1.20678E+03
 -8.45265E+03 -8.06749E+03 -1.78912E+03 -9.18036E+03  5.33326E+03 -8.67709E+03  4.98379E+03 -3.25761E+03
  3.08225E+03  1.15725E+03  7.42171E+02  1.26236E+03  2.62326E+02 -1.28322E+03  1.35892E+03 -5.46102E+03
  8.25561E+03 -2.83163E+03  1.15218E+04  1.32531E+03  1.08024E+04  7.71453E+03  9.03931E+03  1.30369E+04
 -2.39441E+03  1.62695E+04 -1.40260E+04  1.34332E+04 -1.88788E+04  1.54151E+03 -1.52172E+04 -6.55167E+03
 -6.75750E+03 -1.28806E+04  2.29963E+01 -1.05416E+04  4.39996E+03 -5.92679E+03  3.90776E+03 -3.13510E+03
  2.07832E+03 -3.51465E+03  2.02226E+03 -3.01575E+03  4.13009E+03 -2.10349E+03  6.37540E+03 -2.15551E+03
  8.11523E+03  2.29339E+03  2.66861E+03  5.59730E+03 -1.79093E+03  7.34013E+03 -7.13223E+03  6.01323E+03
 -9.86355E+03 -9.94968E+02 -5.11122E+03 -7.54143E+03 -9.35474E+02 -1.05346E+04  5.57185E+03 -1.13029E+04
  1.07575E+04 -5.53011E+03  1.22011E+04  1.89061E+03  8.38106E+03  8.39298E+03  9.34211E+02  1.24555E+04
 -5.26885E+03  9.78240E+03 -6.85833E+03  3.06037E+03 -4.29660E+03 -2.03172E+03 -5.21398E+02 -2.57805E+03
 -1.26852E+03 -5.39567E+02 -2.77058E+03  2.02160E+03 -2.94963E+03  2.95836E+03 -7.84501E+03 -1.29183E+03
 -4.73950E+03 -6.09816E+03  5.31027E+01 -9.16729E+03  6.55505E+03 -7.96571E+03  9.57556E+03 -2.64273E+03
  8.89593E+03  5.42594E+03  5.62760E+03  7.54074E+03 -2.25736E+03  1.01087E+04 -7.20251E+03  6.49174E+03
 -9.73434E+03 -3.09217E+02 -6.52233E+03 -5.62119E+03  8.02387E+02 -6.59679E+03  4.23238E+03 -6.54267E+03
  5.48153E+03 -1.27671E+03  2.92050E+03  1.25283E+03  1.65015E+03  1.68621E+03  1.13869E+03  7.61384E+02
  1.99856E+03  1.48371E+03  2.65282E+03  1.85482E+03  3.41785E+03  3.16566E+03  2.36988E+03  4.52358E+03
 -2.12678E+03  7.02378E+03 -6.75003E+03  7.48501E+03 -7.95855E+03  3.03710E+03 -1.02191E+04 -4.32892E+03
 -4.04902E+03 -8.41552E+03  1.74996E+03 -9.19915E+03  4.85852E+03 -5.99257E+03  7.75276E+03 -1.39356E+03
  4.27864E+03  3.46275E+03  1.52302E+03  5.34942E+03 -2.24786E+03  4.90282E+03 -4.87963E+03  1.34649E+02
 -1.06543E+03 -3.56905E+03  1.70552E+03 -4.00399E+03  4.03252E+03 -3.01311E+03  2.78785E+03  6.69447E+02
  2.27197E+03  1.31508E+03  1.13593E+03  7.22567E+02 -1.17857E+03  2.19450E+03  1.99963E+03 -2.66198E+02
  1.08906E+03 -1.82131E+03  3.35633E+03  1.47591E+03  2.51957E+03  5.11325E+03 -8.78247E+02  6.36053E+03
 -3.21067E+03  2.42745E+03 -5.68459E+03  7.31968E+02 -5.18303E+03 -2.18770E+03 -1.56332E+03 -3.42694E+03
  1.17258E+03 -4.15995E+03  2.00911E+03 -1.86617E+03  9.15041E+02  1.02644E+03 -1.18297E+03  3.84521E+03
 -4.50389E+03  2.87842E+03 -4.40121E+03 -3.06786E+03 -1.39524E+03 -3.64675E+03  1.93702E+01 -3.52511E+03
  7.69753E+02 -1.96799E+03  3.11391E+03 -3.79022E+02  2.38760E+03  1.90197E+03  7.96452E+02  3.02638E+03
 -1.12297E+03  6.82193E+02 -2.15910E+03 -1.48296E+03  2.89653E+03 -3.28697E+03  4.62230E+03 -2.97292E+03
  4.40000E+03  1.67855E+03  5.87760E+03  3.33330E+03  1.91712E+03  4.62555E+03 -1.93080E+03  5.59925E+03
 -4.08355E+03  1.02650E+03 -4.06781E+03 -1.33087E+03 -2.98465E+03 -3.75738E+03  1.15311E+03 -3.35374E+03
  3.75080E+03 -1.31962E+03  3.14034E+03  1.56315E+03  1.65509E+02  2.20050E+03  1.83536E+02  4.14394E+03
 -1.91546E+03  1.72914E+03 -6.08700E+02 -5.42359E+02 -9.20535E+02  8.90072E+02 -3.63267E+02  2.18376E+02
 -1.94094E+03  3.31672E+03 -4.52858E+03  1.18944E+03 -5.65902E+03  4.49448E+02 -5.80124E+03 -4.23864E+03
 -2.38831E+03 -6.99627E+03  1.59919E+03 -8.64177E+03  4.91538E+03 -8.61083E+03  8.50210E+03 -2.35991E+03
  8.42362E+03  2.74380E+03  4.09174E+03  3.65521E+03 -3.91026E+02  4.87764E+03 -1.16006E+03  2.74762E+03
 -2.47796E+03  6.98151E+02 -3.32441E+03 -8.21992E+02 -1.52189E+03 -3.66805E+02 -1.07531E+03  5.45915E+02
 -1.62349E+03 -6.01706E+02 -2.53870E+03 -4.84205E+02 -7.60460E+02 -1.95102E+03  1.74055E+02 -6.39373E+02
  1.81713E+03 -4.21720E+02  2.53544E+03  9.02154E+02  4.08139E+03  2.06984E+03 -3.58049E+02  5.47937E+03
 -2.07919E+03  6.58921E+03 -6.17751E+03  2.61220E+03 -5.88277E+03  3.60759E+02 -2.24561E+03 -3.78227E+03
 -1.95019E+03 -5.06503E+03  4.17746E+02 -4.64378E+03  4.52592E+03 -2.40891E+03  2.82314E+03 -5.40935E+02
  1.92427E+03  1.36283E+03 -5.98678E+02  3.35829E+02 -4.10569E+02  7.33143E+02 -1.73229E+02 -4.76781E+02
  1.25067E+03 -7.27804E+02  1.72185E+03  1.82459E+03  1.65877E+03  2.28093E+03  1.47018E+03  2.41525E+03
 -2.00963E+03  8.93348E+02 -2.62831E+03 -4.98255E+02 -2.11081E+03 -2.24039E+03 -1.48493E+03 -4.45528E+03
  1.47926E+03 -3.14882E+03  2.19808E+03 -1.75899E+02  2.37923E+03 -5.64788E+02  1.10309E+03  2.52396E+03
  9.84325E+02  3.33415E+03 -1.12610E+02  2.16678E+03 -2.40605E+03  7.34146E+02 -1.14672E+03  1.05446E+01
 -4.57682E+02 -1.13276E+03 -1.06988E+03 -3.71919E+01 -1.66422E+03  8.48870E+02 -1.85637E+03  6.23815E+02
 -3.35949E+03 -2.70395E+03 -1.70959E+03 -2.04052E+03  1.41199E+03 -4.46062E+03  2.20837E+03 -1.22784E+03
  2.96013E+03  9.81044E+02  1.27693E+03  2.70569E+03  8.79507E+02  3.62721E+03 -1.49983E+03  1.74124E+03
