 $NMID ID='MM_0lb_SNR200_18hz_g45_91.RAW', FMTDAT='(8E13.5)'
 TRAMP=1., VOLUME=1. $END
  3.09365E+05 -3.43250E+02  3.37727E+05  2.49625E+05  8.46300E+04  3.36635E+05 -1.31980E+05  2.49582E+05
 -1.89397E+05  8.31190E+04 -1.11113E+05 -3.26996E+04  6.02685E+02 -5.01008E+04  5.37298E+04 -4.77799E+02
  3.54526E+04  5.27496E+04 -1.70269E+04  7.42079E+04 -6.04197E+04  6.26130E+04 -8.35394E+04  3.15148E+04
 -7.97397E+04 -1.17773E+04 -5.64034E+04 -5.05998E+04 -1.44481E+04 -6.83837E+04  2.66285E+04 -4.53490E+04
  3.89414E+04  4.14167E+03  1.47746E+04  4.75166E+04 -3.36449E+04  4.60525E+04 -6.52740E+04 -1.60908E+02
 -5.18314E+04 -5.68611E+04 -6.04583E+03 -7.55419E+04  3.35086E+04 -5.32543E+04  4.65984E+04 -1.51950E+04
  4.19853E+04  1.13520E+04  3.09034E+04  2.50406E+04  1.56139E+04  2.88637E+04 -4.53676E+03  2.63766E+04
 -2.18324E+04  1.20827E+04 -1.92826E+04 -4.36161E+03  4.39633E+03 -7.20811E+03  2.19912E+04  1.08422E+04
  8.30936E+03  3.34224E+04 -3.13330E+04  3.41980E+04 -5.98877E+04  1.79021E+03 -5.56787E+04 -4.18645E+04
 -1.20759E+04 -6.04035E+04  3.83590E+04 -4.42348E+04  5.61280E+04 -2.20740E+03  3.24329E+04  2.99816E+04
 -5.33320E+03  3.36020E+04 -2.89190E+04  1.39209E+04 -2.83106E+04 -5.53403E+03 -1.38394E+04 -1.06993E+04
 -7.18636E+03 -1.19562E+04 -8.49225E+02 -1.68919E+04  7.44683E+03 -2.31380E+04  1.38781E+04 -1.40218E+04
  1.24070E+04  5.00163E+03 -6.17856E+03  1.41424E+04 -2.01983E+04 -2.62524E+03 -7.73496E+03 -3.06629E+04
  2.17930E+04 -4.11244E+04  4.47809E+04 -1.89946E+04  4.24499E+04  1.86754E+04  1.48820E+04  4.15533E+04
 -1.53599E+04  3.04375E+04 -2.37048E+04  1.53352E+03 -8.08201E+03 -2.63087E+04  1.98306E+04 -3.15868E+04
  3.85037E+04 -7.70009E+03  3.17220E+04  2.32889E+04  1.53451E+04  4.23934E+04 -7.44813E+03  4.59239E+04
 -2.91989E+04  2.94916E+04 -3.82117E+04  9.08295E+03 -3.85519E+04 -1.50834E+04 -2.09246E+04 -3.42570E+04
  7.08357E+03 -3.45984E+04  2.97963E+04 -1.35011E+04  2.67977E+04  1.12679E+04  3.45468E+03  1.77124E+04
 -1.29813E+04  7.58614E+03 -9.85321E+03 -7.56140E+03  7.34858E+03 -1.10283E+04  1.55574E+04  5.65684E+03
  1.33085E+04  2.17991E+04 -6.32047E+03  2.30821E+04 -2.11154E+04  9.45244E+03 -2.60640E+04 -6.48286E+03
 -1.74290E+04 -1.57854E+04 -6.29189E+03 -1.67744E+04  3.53238E+03 -1.57674E+04  1.34130E+04 -1.33759E+04
  2.09308E+04 -1.09121E+04  2.75512E+04  4.01586E+02  2.02136E+04  1.53624E+04  4.28814E+03  3.24864E+04
 -1.71736E+04  2.83040E+04 -2.53825E+04  9.44967E+03 -1.94868E+04 -1.13576E+04 -3.73648E+03 -1.36719E+04
  3.20119E+03 -2.87119E+03 -3.64361E+03  5.13020E+03 -1.41237E+04  5.25797E+03 -1.39816E+04 -3.89346E+03
 -8.77604E+03 -1.55614E+04  4.47149E+03 -1.83874E+04  1.22742E+04 -1.33180E+04  1.54396E+04 -2.85868E+03
  8.41212E+03  1.14829E+04 -1.40951E+03  1.63230E+04 -1.03440E+04  1.02646E+04 -1.59465E+04 -3.85795E+03
 -1.11695E+04 -1.54535E+04 -1.94956E+03 -1.87524E+04  9.18469E+03 -1.52901E+04  1.62115E+04 -7.18214E+03
  1.53271E+04  8.23962E+02  1.04107E+04  2.18835E+03  6.00078E+03 -4.79287E+02  8.03531E+03 -9.19132E+02
  1.31515E+04  3.00366E+03  1.54766E+04  1.19133E+04  8.48002E+03  2.47793E+04 -2.90474E+03  2.77436E+04
 -1.54269E+04  2.06930E+04 -2.48468E+04  9.32494E+03 -2.63628E+04 -1.60509E+03 -2.20015E+04 -1.46258E+04
 -8.92731E+03 -2.08264E+04  7.69647E+03 -1.93725E+04  1.58975E+04 -1.10277E+04  1.61582E+04  3.38703E+03
  5.91076E+03  1.21878E+04 -7.26398E+03  1.08548E+04 -1.48076E+04  2.37165E+03 -1.00931E+04 -7.02121E+03
 -1.56662E+02 -1.29015E+04  6.13841E+03 -9.55552E+03  7.19925E+03 -1.81314E+03  2.00301E+03  4.40158E+03
 -6.72875E+03  1.61393E+03 -3.60494E+03 -4.18623E+03  1.18220E+03 -1.00860E+04  6.96568E+03 -9.99319E+03
  1.20403E+04 -5.29425E+03  1.25866E+04  1.87129E+03  1.13532E+04  1.06494E+04  5.21727E+03  1.49942E+04
 -1.66689E+03  1.65736E+04 -9.64344E+03  1.02952E+04 -1.24553E+04  4.19267E+03 -8.70408E+03 -2.06554E+03
 -5.17546E+03 -2.32409E+03 -1.25647E+03  1.92992E+02 -2.13979E+03  1.58956E+03 -3.77569E+03  3.11680E+03
 -8.59141E+03 -1.18110E+03 -9.24352E+03 -6.71581E+03 -3.54835E+03 -1.06064E+04  3.40599E+03 -7.78484E+03
  7.70131E+03 -4.56592E+03  6.15294E+03  1.65861E+03  8.65868E+02  4.09287E+03 -4.10653E+03 -4.88451E+01
 -3.83723E+03 -5.74992E+03 -5.47735E+02 -7.27071E+03  3.98961E+03 -8.19492E+03  9.84339E+03 -4.36221E+03
  1.24833E+04  1.11488E+03  8.16380E+03  6.49292E+03  1.41469E+03  9.52697E+03 -4.54928E+03  7.68030E+03
 -6.40708E+03  3.13414E+03 -4.47694E+03 -4.77899E+02  6.33968E+02 -8.68233E+02  4.60594E+03 -3.17547E+02
  5.17782E+03  3.72756E+03  8.05714E+02  6.02096E+03 -4.41528E+03  7.48223E+03 -8.39519E+03  1.67261E+03
 -5.59704E+03 -3.50101E+03  4.47880E+02 -6.11414E+03  4.51935E+03 -3.36745E+03  3.11438E+03  2.07225E+03
 -1.33844E+03  3.41947E+03 -3.76006E+03  4.63215E+03 -5.10540E+03  3.16971E+03 -4.48383E+03 -1.96887E+03
 -2.73879E+03 -6.09465E+03  1.43904E+03 -6.62651E+03  5.94892E+03 -3.88180E+03  6.65910E+03  4.22454E+02
  4.77886E+03  6.09891E+03 -4.26779E+02  7.98068E+03 -5.51184E+03  4.06722E+03 -5.21782E+03 -1.10586E+03
 -5.37539E+03 -5.72813E+03 -8.09093E+02 -4.70951E+03  2.50726E+03 -4.00003E+03  3.26626E+03 -4.01143E+03
  2.69788E+03 -3.39239E+02  6.34266E+02  2.32571E+03  7.19280E+02 -5.70483E+02  6.55188E+02 -2.98901E+03
  4.34929E+03 -8.62183E+02  5.83465E+03  5.86987E+02  5.17949E+03  3.22006E+03  5.45845E+03  8.43337E+03
 -6.93299E+02  8.90671E+03 -7.98594E+03  6.74599E+03 -1.07445E+04  3.89789E+02 -8.65397E+03 -2.89139E+03
 -4.02396E+03 -6.54309E+03 -3.79247E+02 -5.15165E+03  2.66852E+03 -2.94315E+03  8.76423E+02 -2.50847E+03
  1.31635E+03 -1.22789E+03  2.41544E+03 -2.84052E+03  4.00478E+03 -1.66023E+03  3.86193E+03 -3.87271E+02
  4.34409E+03  7.85997E+02  1.05019E+03  3.35630E+03 -1.05431E+03  2.47639E+03 -5.32005E+03  2.32786E+03
 -5.28855E+03 -2.25430E+03 -1.39190E+03 -4.79710E+03  2.66312E+02 -6.09265E+03  3.69320E+03 -6.74266E+03
  4.32889E+03 -3.35132E+03  6.96218E+03  4.91317E+02  5.80640E+03  4.33418E+03  6.95778E+02  5.33263E+03
 -2.29494E+03  5.63795E+03 -4.04559E+03  1.50936E+03 -1.21649E+03 -6.83245E+02 -8.06027E+01 -1.77828E+03
 -5.50853E+02 -2.47223E+02 -9.37576E+02  2.96165E+02 -2.04831E+03  4.21131E+02 -4.22275E+03 -7.81891E+01
 -1.79292E+03 -4.12920E+03  1.05852E+03 -4.06657E+03  3.49273E+03 -4.34326E+03  3.19740E+03 -2.33563E+03
  4.22481E+03  1.91976E+03  2.39605E+03  4.07774E+03 -1.14307E+02  4.10596E+03 -2.74960E+03  2.41432E+03
 -5.21116E+03  8.48298E+02 -3.32814E+03 -2.27262E+03  7.07229E+02 -3.13984E+03  7.77650E+02 -1.46148E+03
  3.84538E+03 -1.34904E+03  8.66563E+02  9.75222E+02 -8.50693E+02  1.82861E+03  3.60783E+02  2.92281E+02
  1.16960E+03  7.68044E+02  1.25990E+03  3.10414E+02  8.19558E+02  1.99447E+03  6.40977E+02  2.20804E+03
 -1.64303E+03  3.18546E+03 -2.59196E+03  3.99227E+03 -3.94081E+03  9.90729E+02 -3.30353E+03 -1.98223E+01
 -1.55063E+03 -4.11844E+03  4.55578E+02 -3.51090E+03  1.60065E+03 -2.68171E+03  3.11746E+03 -1.32620E+03
  2.00645E+03  2.69669E+03 -1.80146E+02  2.58948E+03 -8.13912E+02  8.06624E+02 -1.28450E+03 -3.27377E+02
 -1.34266E+03 -1.83154E+03  5.16222E+02 -8.31595E+02  1.69952E+03 -1.75294E+03  7.20856E+02  3.76693E+02
  1.32873E+03  1.76178E+02  7.37671E+02  1.54577E+02 -5.20234E+02  1.58652E+02  1.26129E+03 -5.65212E+02
  6.61353E+02  6.52088E+02  1.50225E+03  1.15170E+03  5.59791E+02  9.65024E+02 -7.14325E+01  3.55147E+03
 -2.21364E+03  1.82587E+03 -2.02252E+03  6.74870E+02 -2.03145E+03 -8.20795E+02 -2.25532E+02 -1.03949E+03
  9.96650E+02  7.26740E+02  5.53957E+02 -1.60588E+03  4.35814E+02  9.50499E+02  1.44058E+02  2.04603E+03
 -1.88551E+03  7.04245E+02 -1.46917E+03 -1.06557E+03 -5.98216E+02 -2.82969E+03  7.91542E+01 -1.39270E+03
 -4.90108E+02 -2.84176E+02  1.21248E+03 -6.63865E+02  7.20933E+02 -1.85405E+02 -7.13879E+02  1.60985E+03
  5.42679E+02  6.70496E+02 -1.87823E+03 -5.44455E+02  1.00738E+03 -1.21024E+03  1.37899E+03 -6.52837E+02
  2.62471E+03  2.36242E+02  3.39236E+03  1.16441E+03  1.81334E+03  1.23367E+03 -3.60483E+01  1.24477E+03
 -1.92084E+03  1.07868E+03 -2.21656E+03 -2.03695E+02 -5.59805E+02 -2.01524E+03 -3.14628E+02 -9.78175E+02
  1.75873E+03 -1.35546E+03  1.38854E+03  4.42922E+01  1.27025E+03  1.39563E+03  2.04998E+02  1.94110E+03
 -2.27101E+02  8.29706E+02 -3.29248E+02  1.35511E+02 -7.91054E+02  2.97042E+02 -1.15583E+03  3.43593E+01
 -1.10302E+03  1.15788E+03  1.05277E+01  2.07255E+03 -1.52160E+03  6.88022E+02 -2.27842E+03 -2.75179E+03
 -1.45309E+03 -2.34148E+03  4.61372E+02 -3.82571E+03  1.84495E+03 -3.09350E+03  2.88345E+03 -1.46094E+03
  2.87712E+03 -8.48337E+02  1.11813E+03  1.83732E+03 -4.14197E+02  8.75735E+02 -1.51863E+02  1.98642E+03
 -1.65707E+03  5.70862E+02 -1.52975E+03 -1.11190E+03 -5.82103E+02 -8.64525E+02 -8.23169E+02 -3.89938E+02
 -1.84235E+03  1.81331E+02 -2.38567E+03  2.31872E+02 -5.76266E+01  4.46271E+02 -3.80398E+02 -5.52434E+02
  1.23863E+03  2.07651E+02  3.47591E+02  5.37114E+02  6.58842E+02  1.99861E+03 -1.58598E+02  2.48859E+03
 -1.34020E+03  2.63426E+03 -1.70002E+03  7.76957E+02 -2.00089E+03  7.03096E+02 -2.07404E+03 -1.54902E+03
 -1.75273E+03 -1.22725E+03 -5.44906E+02  4.21444E+02  1.04807E+03 -2.16428E+03  6.42034E+02  7.50810E+00
  1.12022E+03  4.43089E+02 -2.16586E+02  1.28596E+02 -5.23026E+02  1.31298E+03  1.26596E+03  9.27162E+02
  7.05148E+01 -5.92019E+02  5.68032E+02 -2.99232E+02  2.33077E+02  8.41291E+02 -4.68722E+02  8.27585E+02
 -3.67006E+02  1.00571E+03 -4.14231E+02 -8.23884E+02 -3.59049E+02  1.48271E+02 -4.57491E+01 -9.52066E+02
 -6.67936E+02 -7.55866E+02  9.28099E+02 -2.39309E+02  1.87081E+03 -1.94404E+01  1.03047E+03  1.83105E+03
  6.44841E+02  3.56701E+02 -1.00363E+03  7.94192E+02 -4.18285E+02  8.08814E+02  3.72121E+02  1.87762E+02
 -7.26322E+02 -2.15119E+02 -8.29532E+02  5.34292E+02 -8.75346E+02  7.83248E+02 -4.21114E+02 -9.57029E+02
 -1.56875E+03  1.19607E+02 -6.80765E+02 -4.47440E+02 -2.20870E+02 -1.52995E+03  6.81483E+02 -5.03865E+02
  8.33919E+02  4.74585E+02  7.13120E+02  1.02646E+03 -3.22455E+02  5.81956E+02 -7.78349E+02  1.21566E+03
