 $NMID ID='MM_0lb_SNR200_10hz_g50_43.RAW', FMTDAT='(8E13.5)'
 TRAMP=1., VOLUME=1. $END
  3.09082E+05  8.73793E+02  3.38014E+05  2.49992E+05  8.39928E+04  3.38015E+05 -1.33362E+05  2.51713E+05
 -1.90853E+05  8.41029E+04 -1.11683E+05 -3.14737E+04  2.16752E+03 -5.05905E+04  5.43198E+04 -1.10060E+03
  3.56948E+04  5.35123E+04 -1.74109E+04  7.63149E+04 -6.12421E+04  6.53783E+04 -8.59086E+04  3.23718E+04
 -8.14054E+04 -1.23394E+04 -5.77304E+04 -5.20011E+04 -1.46635E+04 -7.01148E+04  2.65375E+04 -4.65662E+04
  4.00813E+04  1.84203E+03  1.54927E+04  4.80096E+04 -3.39770E+04  4.70210E+04 -6.86461E+04 -5.76522E+01
 -5.45628E+04 -5.78958E+04 -8.59558E+03 -7.94863E+04  3.44728E+04 -5.72068E+04  5.02022E+04 -1.82279E+04
  4.45712E+04  1.11964E+04  3.25645E+04  2.63201E+04  1.57548E+04  3.13835E+04 -6.16050E+03  2.70439E+04
 -2.23568E+04  1.44489E+04 -1.87730E+04 -5.27930E+03  7.09567E+03 -6.64049E+03  2.31741E+04  1.22240E+04
  7.80571E+03  3.53470E+04 -3.36030E+04  3.75558E+04 -6.47321E+04  1.53404E+03 -5.74128E+04 -4.30057E+04
 -1.21293E+04 -6.58137E+04  4.13027E+04 -4.72549E+04  5.95976E+04 -2.34117E+03  3.54304E+04  3.53375E+04
 -5.16984E+03  3.93601E+04 -3.18364E+04  1.90957E+04 -3.13974E+04 -4.38292E+03 -1.95032E+04 -1.20876E+04
 -9.50201E+03 -1.42760E+04 -2.61654E+02 -1.96694E+04  8.82853E+03 -2.33243E+04  1.56147E+04 -1.32503E+04
  1.08671E+04  5.47436E+03 -8.70597E+03  1.30590E+04 -2.34156E+04 -6.18977E+03 -8.90875E+03 -3.58375E+04
  2.48016E+04 -4.53826E+04  5.06676E+04 -2.16845E+04  4.76925E+04  2.00632E+04  1.87303E+04  4.54734E+04
 -1.68471E+04  3.52968E+04 -2.86112E+04  2.43560E+03 -1.09091E+04 -3.07141E+04  2.23449E+04 -3.58365E+04
  4.32417E+04 -9.67402E+03  3.93068E+04  2.33232E+04  2.14998E+04  5.05147E+04 -8.61526E+03  5.51916E+04
 -3.39587E+04  3.72397E+04 -4.56122E+04  1.07304E+04 -4.59885E+04 -1.84127E+04 -2.60216E+04 -4.10646E+04
  5.46730E+03 -3.97131E+04  3.30208E+04 -1.77168E+04  3.21590E+04  1.16659E+04  2.70494E+03  1.95387E+04
 -1.39162E+04  9.30333E+03 -1.04759E+04 -6.97299E+03  4.48565E+03 -1.04704E+04  1.82836E+04  5.68418E+03
  1.41145E+04  2.13316E+04 -5.94939E+03  2.67928E+04 -2.20567E+04  1.37018E+04 -3.13970E+04 -4.69562E+03
 -2.42344E+04 -1.82547E+04 -1.05558E+04 -2.45609E+04  4.00483E+03 -2.60178E+04  1.86333E+04 -2.20371E+04
  3.07531E+04 -1.36011E+04  3.65364E+04  3.57054E+03  2.54284E+04  2.44062E+04  2.86794E+03  4.01082E+04
 -2.05131E+04  3.38661E+04 -2.96829E+04  9.83649E+03 -2.20556E+04 -9.70696E+03 -5.93862E+03 -1.34884E+04
  1.85425E+03 -3.66795E+02 -7.58034E+03  7.73171E+03 -2.01451E+04  4.24949E+03 -2.03869E+04 -8.84798E+03
 -1.13261E+04 -2.18093E+04  6.00032E+03 -2.77803E+04  1.88556E+04 -1.84237E+04  2.29037E+04 -5.62039E+02
  1.29623E+04  1.53943E+04 -3.88724E+02  2.24838E+04 -1.50557E+04  1.19546E+04 -2.30163E+04 -4.43896E+03
 -1.51261E+04 -1.96251E+04 -3.31061E+03 -2.80810E+04  1.25029E+04 -2.21114E+04  2.17877E+04 -1.02177E+04
  2.11458E+04 -9.16071E+02  1.35600E+04  5.02503E+03  8.07274E+03  7.77714E+02  1.18044E+04 -1.98259E+03
  2.13908E+04  1.40150E+03  2.41931E+04  1.73812E+04  1.51101E+04  3.44522E+04 -2.14064E+03  4.17658E+04
 -2.49455E+04  3.58267E+04 -3.89217E+04  1.81340E+04 -4.18209E+04 -2.91071E+03 -3.44665E+04 -2.37577E+04
 -1.33600E+04 -3.51723E+04  1.29153E+04 -3.17165E+04  2.48693E+04 -1.37639E+04  2.33439E+04  6.43098E+03
  9.41697E+03  1.57631E+04 -1.04361E+04  1.57526E+04 -1.83107E+04  2.20632E+03 -1.47170E+04 -1.24033E+04
 -5.07512E+02 -1.83338E+04  1.08649E+04 -1.38425E+04  1.29195E+04 -4.77701E+02  4.11466E+03  7.56844E+03
 -9.31587E+03  5.22720E+03 -9.21193E+03 -6.01031E+03 -1.74996E+03 -1.56593E+04  1.16401E+04 -1.76330E+04
  2.35030E+04 -1.05102E+04  2.23991E+04  2.97054E+03  2.06775E+04  1.60101E+04  8.04970E+03  2.77675E+04
 -6.24763E+03  2.85361E+04 -1.79634E+04  1.75379E+04 -2.24515E+04  4.08850E+03 -1.50581E+04 -6.20134E+03
 -6.65646E+03 -8.15320E+03 -2.98326E+02  6.79308E+02 -9.81271E+02  4.42214E+03 -6.91525E+03  5.12492E+03
 -1.39459E+04 -1.81768E+01 -1.52456E+04 -1.03860E+04 -6.44454E+03 -1.93467E+04  4.89384E+03 -1.63154E+04
  1.22784E+04 -4.79479E+03  9.44917E+03  4.51795E+03 -1.74375E+03  5.12641E+03 -7.03483E+03 -1.33764E+03
 -5.85595E+03 -9.54065E+03 -1.43901E+03 -1.45297E+04  8.56667E+03 -1.59621E+04  2.03316E+04 -7.25780E+03
  2.16741E+04  1.87622E+03  1.59701E+04  1.21174E+04  4.89651E+03  1.83490E+04 -9.90480E+03  1.49011E+04
 -1.22135E+04  4.19955E+03 -5.07331E+03 -3.21235E+03  1.63846E+03 -4.88422E+03  7.78800E+03 -1.63368E+02
  6.92294E+03  7.62702E+03  1.18347E+03  1.11149E+04 -6.92238E+03  1.06575E+04 -1.44087E+04  3.76278E+02
 -1.05527E+04 -7.89308E+03 -1.33554E+02 -1.33604E+04  8.63103E+03 -7.51123E+03  9.42564E+03  2.63166E+03
  2.29017E+03  9.60371E+03 -9.42018E+03  1.06622E+04 -1.28251E+04  5.08631E+03 -1.27600E+04 -5.55148E+03
 -6.62367E+03 -1.45823E+04  3.31627E+03 -1.66046E+04  1.39325E+04 -9.51481E+03  1.52300E+04  2.74434E+03
  9.45415E+03  1.02188E+04 -2.14943E+02  1.34295E+04 -1.22385E+04  8.13792E+03 -1.23602E+04 -4.69124E+02
 -1.05858E+04 -9.30479E+03 -3.19901E+03 -1.14917E+04  6.47040E+03 -1.02809E+04  5.90729E+03 -4.22065E+03
  4.32252E+03  1.10658E+03 -1.39039E+03  1.65624E+03 -1.73221E+03 -2.82309E+03  8.79799E+02 -6.67934E+03
  1.00356E+04 -3.23489E+03  1.43240E+04  9.99773E+02  1.38895E+04  9.44122E+03  9.11459E+03  1.89010E+04
 -2.97308E+03  2.21222E+04 -1.79314E+04  1.61629E+04 -2.28995E+04  3.00583E+03 -1.91700E+04 -9.69922E+03
 -9.81508E+03 -1.44240E+04 -1.42293E+03 -1.38912E+04  5.40151E+03 -7.57355E+03  3.45204E+03 -5.33039E+03
  2.32848E+03 -1.23613E+03  3.12392E+03 -2.46773E+03  5.72136E+03 -4.33591E+03  7.33394E+03 -8.83368E+02
  1.05816E+04  1.26304E+03  6.45727E+03  8.98218E+03 -3.35149E+03  9.76905E+03 -9.72941E+03  6.57665E+03
 -1.09682E+04 -5.99097E+02 -8.93722E+03 -1.05179E+04 -4.66725E+02 -1.44032E+04  8.47029E+03 -1.51636E+04
  1.55664E+04 -7.70291E+03  1.66643E+04  3.41814E+03  1.08939E+04  1.27341E+04  1.75441E+03  1.57093E+04
 -5.97268E+03  1.25041E+04 -8.54354E+03  4.10997E+03 -6.52220E+03 -2.27601E+03 -8.51381E+02 -2.27869E+03
  4.79926E+01  1.37376E+03 -1.98375E+03  1.69091E+03 -6.62262E+03  8.86727E+02 -8.92596E+03 -2.32062E+03
 -6.74844E+03 -8.96639E+03 -1.15246E+03 -1.45591E+04  7.46363E+03 -1.26762E+04  1.24555E+04 -4.33389E+03
  1.30224E+04  6.17183E+03  6.92766E+03  1.22989E+04 -2.41884E+03  1.59892E+04 -9.27764E+03  7.39340E+03
 -1.20136E+04  6.19554E+02 -1.02386E+04 -8.22601E+03  1.77747E+02 -1.00791E+04  5.92956E+03 -7.15923E+03
  8.30565E+03 -3.11496E+03  6.60862E+03  3.21023E+02  4.51587E+03  3.78075E+03  1.24328E+03  3.68908E+03
  2.95567E+03  1.01845E+03  3.14449E+03  8.75653E+02  3.83826E+03  5.18981E+03  4.10804E+03  7.06512E+03
 -3.05291E+03  1.02669E+04 -9.44646E+03  9.10094E+03 -1.36412E+04  1.20614E+03 -1.40535E+04 -4.94352E+03
 -7.10913E+03 -1.47475E+04  2.40659E+03 -1.61557E+04  6.54346E+03 -9.40111E+03  1.13207E+04 -1.49944E+03
  6.81777E+03  5.58029E+03  1.84599E+03  8.17216E+03 -3.64459E+03  6.09324E+03 -6.15702E+03 -1.76819E+03
 -3.43846E+03 -5.52606E+03  2.45776E+03 -6.69192E+03  4.77118E+03 -2.42334E+03  4.47986E+03 -2.19646E+02
  3.10751E+03  2.12159E+03  2.47727E+03  1.70255E+03 -3.12201E+02  1.51111E+03  1.58990E+03 -1.53234E+03
  1.56802E+03 -6.98605E+02  5.67449E+03  1.97648E+03  2.23907E+03  7.55242E+03 -8.36284E+02  1.09600E+04
 -6.12255E+03  6.29519E+03 -1.02350E+04  9.66942E+02 -7.12195E+03 -1.83462E+03 -3.74660E+03 -5.89561E+03
  1.44556E+03 -3.23131E+03  4.00148E+03 -2.25321E+03  2.24488E+03  4.06865E+03 -1.82397E+03  4.60868E+03
 -4.82394E+03  2.19496E+03 -6.13406E+03 -3.11599E+03 -3.15344E+03 -6.27961E+03  1.26422E+03 -6.24161E+03
  5.31700E+03 -2.94161E+03  4.70230E+03 -5.10388E+02  4.69472E+03  5.17357E+02  3.88186E+02  2.98148E+03
 -4.20461E+03  8.99541E+02 -3.96008E+03 -2.48130E+03  7.75542E+02 -6.97419E+03  6.92527E+03 -4.35186E+03
  7.96250E+03  2.27468E+03  7.13763E+03  4.61461E+03  2.61355E+03  9.73882E+03 -2.88660E+03  8.59154E+03
 -6.26931E+03  3.82601E+03 -7.62005E+03 -1.13089E+03 -3.89087E+03 -4.74456E+03  9.60363E+02 -5.77408E+03
  5.69307E+03 -3.39860E+03  4.44193E+03  7.83146E+02  2.65775E+03  5.00979E+03 -9.03264E+02  4.11636E+03
 -2.59959E+03  3.46577E+03 -3.55571E+03 -8.07714E+02 -1.75663E+03 -7.56707E+01 -1.11641E+03  3.07487E+03
 -2.49292E+03  5.00118E+03 -5.64441E+03  3.56587E+03 -8.72385E+03  6.82033E+02 -9.07673E+03 -6.60715E+03
 -5.05760E+03 -1.09266E+04  3.37001E+03 -1.21696E+04  7.61061E+03 -1.02636E+04  1.25973E+04 -4.68685E+03
  1.28484E+04  1.97886E+03  6.67206E+03  7.46772E+03  6.26509E+02  7.95471E+03 -3.36843E+03  5.63615E+03
 -4.60593E+03  2.06216E+03 -3.24386E+03 -1.28052E+03  3.08666E+01 -2.36515E+03 -1.73127E+03 -1.50227E+03
 -7.47542E+02  1.58809E+02 -2.71200E+03 -1.69272E+02  4.21907E+02 -3.27757E+03 -1.67627E+02 -3.99888E+03
  3.24305E+03 -2.19812E+03  6.00090E+03 -1.41783E+03  5.67753E+03  5.87680E+03  1.66463E+03  8.32929E+03
 -3.34942E+03  9.17865E+03 -9.81825E+03  6.61524E+03 -1.11853E+04  1.56166E+03 -8.28746E+03 -6.52213E+03
 -2.39707E+03 -9.21312E+03  2.07164E+03 -8.26026E+03  4.89501E+03 -3.08748E+03  5.97690E+03  7.36390E+02
  3.23548E+03  2.98895E+03 -6.37108E+02  2.81642E+03 -1.67354E+03  8.45583E+01 -5.21369E+02 -2.67495E+03
  3.95963E+03 -2.45792E+02  2.75059E+03  1.13342E+02  3.00751E+03  4.63731E+03 -3.33394E+02  4.50565E+03
 -3.28952E+03  4.38372E+03 -5.65824E+03  9.83205E+02 -5.94075E+03 -4.78750E+03 -1.53550E+03 -8.27172E+03
  4.96513E+03 -6.06270E+03  5.07270E+03 -1.68432E+03  7.73323E+03  3.93297E+02  3.85192E+03  6.08682E+03
  1.49811E+03  5.20745E+03 -3.13477E+03  5.18229E+03 -3.39128E+03  2.81017E+03 -1.31820E+03 -1.37507E+03
 -8.36829E+02 -1.54394E+03 -1.49657E+03  3.92653E+02 -2.04372E+03  1.83651E+03 -5.12433E+03 -1.88688E+03
 -4.36723E+03 -2.74727E+03 -1.78954E+03 -6.12870E+03  1.98094E+03 -7.40386E+03  6.09555E+03 -2.92536E+03
  5.33126E+03  2.78242E+02  4.68849E+03  2.63759E+03  9.58561E+02  7.31848E+03 -4.17556E+03  4.10385E+03
