 $NMID ID='MM_0lb_SNR200_16hz_g50_75.RAW', FMTDAT='(8E13.5)'
 TRAMP=1., VOLUME=1. $END
  3.08904E+05  4.60191E+01  3.36631E+05  2.49578E+05  8.42545E+04  3.37004E+05 -1.32774E+05  2.50172E+05
 -1.90667E+05  8.25849E+04 -1.11218E+05 -3.29848E+04  2.47034E+03 -4.99116E+04  5.39487E+04 -7.33297E+01
  3.62453E+04  5.13038E+04 -1.70751E+04  7.55218E+04 -5.98683E+04  6.41446E+04 -8.26963E+04  3.16948E+04
 -8.01122E+04 -1.03767E+04 -5.75504E+04 -5.02626E+04 -1.58973E+04 -6.88932E+04  2.69816E+04 -4.53258E+04
  3.85368E+04  3.63899E+03  1.55391E+04  4.88198E+04 -3.51502E+04  4.68998E+04 -6.69384E+04 -7.02613E+02
 -5.27469E+04 -5.57949E+04 -7.48326E+03 -7.62293E+04  3.39972E+04 -5.53513E+04  4.70743E+04 -1.72561E+04
  4.46847E+04  1.13308E+04  3.22626E+04  2.46240E+04  1.61225E+04  2.95510E+04 -5.11970E+03  2.66184E+04
 -2.14751E+04  1.18298E+04 -1.75637E+04 -5.17286E+03  4.68852E+03 -7.62705E+03  2.23107E+04  1.13876E+04
  8.46871E+03  3.48284E+04 -3.09468E+04  3.31583E+04 -6.26183E+04  2.13795E+03 -5.70292E+04 -4.17491E+04
 -1.25085E+04 -6.28181E+04  3.87599E+04 -4.44753E+04  5.73604E+04 -2.73234E+03  3.36366E+04  3.16428E+04
 -6.36833E+03  3.47365E+04 -2.99706E+04  1.45434E+04 -2.92397E+04 -4.39488E+03 -1.53382E+04 -1.15391E+04
 -9.06552E+03 -1.21490E+04 -6.01275E+02 -1.74359E+04  6.42266E+03 -2.18178E+04  1.51744E+04 -1.20321E+04
  1.11618E+04  4.42414E+03 -8.11196E+03  1.29016E+04 -2.00771E+04 -4.84284E+03 -8.56903E+03 -3.29146E+04
  2.17680E+04 -4.21463E+04  4.54909E+04 -1.94616E+04  4.34288E+04  2.03412E+04  1.43374E+04  4.14097E+04
 -1.60551E+04  3.22782E+04 -2.51312E+04  1.69562E+03 -1.00628E+04 -2.69264E+04  2.09222E+04 -3.28663E+04
  3.89385E+04 -7.71245E+03  3.41206E+04  2.30445E+04  1.73151E+04  4.53267E+04 -7.90706E+03  4.75163E+04
 -3.00622E+04  3.11262E+04 -3.96551E+04  9.19393E+03 -4.08618E+04 -1.61283E+04 -2.22277E+04 -3.69885E+04
  7.02249E+03 -3.63548E+04  2.94387E+04 -1.37337E+04  2.70967E+04  1.15046E+04  3.77201E+03  1.82336E+04
 -1.40114E+04  9.40911E+03 -1.00462E+04 -7.87495E+03  7.33010E+03 -1.01249E+04  1.75742E+04  6.74037E+03
  1.30819E+04  2.14986E+04 -6.58533E+03  2.41944E+04 -2.14435E+04  9.50366E+03 -2.58295E+04 -6.16584E+03
 -1.80813E+04 -1.79817E+04 -7.16394E+03 -1.86167E+04  3.59128E+03 -1.67605E+04  1.47015E+04 -1.75026E+04
  2.46692E+04 -1.22784E+04  3.10098E+04  1.54282E+03  2.20675E+04  2.00174E+04  4.35581E+03  3.48219E+04
 -1.68584E+04  2.92921E+04 -2.73678E+04  1.00664E+04 -2.10695E+04 -1.00640E+04 -3.41098E+03 -1.35003E+04
  2.15304E+03 -3.50711E+03 -4.62969E+03  4.15357E+03 -1.60913E+04  5.09496E+03 -1.52116E+04 -6.16135E+03
 -9.93029E+03 -1.79614E+04  5.09975E+03 -2.10193E+04  1.45238E+04 -1.67350E+04  1.69928E+04 -2.22653E+03
  1.00817E+04  1.26986E+04 -1.03326E+03  1.72783E+04 -1.15816E+04  1.07960E+04 -1.67582E+04 -2.79077E+03
 -1.32185E+04 -1.63761E+04 -1.73120E+03 -2.15235E+04  1.05411E+04 -1.77527E+04  1.86026E+04 -8.22809E+03
  1.62097E+04  7.38396E+02  1.21648E+04  4.75287E+03  6.07807E+03  4.89169E+02  9.00290E+03 -9.99198E+02
  1.54242E+04  3.08386E+03  1.65963E+04  1.38539E+04  1.07790E+04  2.83432E+04 -3.39779E+03  3.14762E+04
 -1.81337E+04  2.61327E+04 -2.91519E+04  1.19586E+04 -2.89360E+04 -2.45280E+03 -2.54908E+04 -1.73342E+04
 -1.05425E+04 -2.44993E+04  9.51697E+03 -2.27964E+04  2.01879E+04 -1.28317E+04  1.74725E+04  5.61233E+03
  7.54944E+03  1.31558E+04 -8.47036E+03  1.13565E+04 -1.58021E+04  2.24531E+03 -1.13863E+04 -9.48946E+03
 -4.20419E+02 -1.38080E+04  8.00355E+03 -1.06849E+04  7.55943E+03 -1.97417E+03  1.89191E+03  6.25841E+03
 -6.68308E+03  2.50594E+03 -5.84910E+03 -5.76799E+03 -4.15884E+02 -1.08128E+04  7.45825E+03 -1.16498E+04
  1.44197E+04 -7.25460E+03  1.64898E+04  3.20853E+03  1.41037E+04  1.22098E+04  6.13156E+03  1.76905E+04
 -1.61226E+03  1.95171E+04 -1.36111E+04  1.24411E+04 -1.28404E+04  4.04122E+03 -1.00181E+04 -2.66387E+03
 -6.10503E+03 -4.53655E+03 -5.36550E+02  2.08297E+02 -2.53970E+03  1.81261E+03 -4.84899E+03  5.68825E+03
 -9.77291E+03 -1.17603E+03 -9.72221E+03 -8.27301E+03 -4.03208E+03 -1.35708E+04  4.57294E+03 -1.01662E+04
  8.00719E+03 -4.68013E+03  5.54124E+03  2.24558E+03  6.21078E+01  3.25109E+03 -5.43905E+03 -6.18571E+02
 -4.97537E+03 -6.63831E+03 -1.22434E+03 -8.23714E+03  4.18584E+03 -9.66905E+03  1.23209E+04 -5.17305E+03
  1.48796E+04  1.23494E+03  1.03688E+04  6.38040E+03  2.00164E+03  1.06711E+04 -5.64830E+03  9.67792E+03
 -8.23872E+03  2.46641E+03 -5.04148E+03 -1.84789E+03  1.87321E+03 -2.02833E+03  4.83751E+03 -9.13765E+02
  5.40559E+03  4.13920E+03  1.57551E+03  7.16459E+03 -6.35255E+03  7.57908E+03 -9.89561E+03  1.52721E+03
 -6.08143E+03 -5.26590E+03  5.94510E+02 -9.32317E+03  4.39608E+03 -4.21620E+03  4.47641E+03  1.92998E+03
  1.22792E+03  4.49539E+03 -4.72140E+03  5.15086E+03 -6.73400E+03  2.59770E+03 -6.80355E+03 -1.97344E+03
 -4.42290E+03 -7.89818E+03  1.40889E+03 -8.40851E+03  8.56981E+03 -6.53459E+03  9.09360E+03  2.09009E+03
  6.39868E+03  7.48640E+03 -4.89132E+02  7.74612E+03 -7.06054E+03  4.64181E+03 -7.73137E+03 -1.52246E+03
 -6.13806E+03 -6.69413E+03 -1.64233E+03 -5.84627E+03  4.14386E+03 -5.08676E+03  3.88814E+03 -3.24721E+03
  4.27698E+03  3.48020E+02 -3.83275E+02  2.04193E+03  5.82273E+02 -1.20891E+03  1.03624E+03 -2.87212E+03
  5.12713E+03 -8.30198E+02  8.59842E+03  1.00764E+03  6.52322E+03  3.98431E+03  5.98172E+03  1.03788E+04
 -2.73657E+03  1.04820E+04 -1.02678E+04  8.83955E+03 -1.14885E+04  6.21287E+02 -8.75887E+03 -3.02397E+03
 -5.28470E+03 -9.26614E+03  9.87354E+01 -7.39514E+03  2.78056E+03 -3.81547E+03  3.10347E+03 -2.46278E+03
  1.35543E+03 -3.10107E+03  1.64538E+03 -2.70887E+03  4.20406E+03 -1.69668E+03  4.49365E+03 -4.70702E+02
  6.21470E+03  2.18640E+03  3.23035E+03  4.15752E+03 -1.70390E+03  4.23894E+03 -5.53570E+03  3.26690E+03
 -8.09968E+03 -2.06230E+03 -2.25076E+03 -4.36453E+03  1.17456E+03 -5.40170E+03  4.17935E+03 -6.81282E+03
  7.05666E+03 -3.32333E+03  1.02446E+04  4.87789E+02  7.65998E+03  6.21997E+03  2.02223E+03  8.61817E+03
 -3.00441E+03  6.39526E+03 -3.11046E+03  2.82871E+03 -3.47402E+03 -1.62196E+03 -1.79015E+03 -6.51866E+02
 -8.53700E+02  1.17728E+02 -1.26654E+03  2.06416E+03 -2.76807E+03  1.33038E+03 -5.68654E+03 -5.83426E+01
 -2.22651E+03 -4.23862E+03  1.88615E+02 -6.80716E+03  3.86417E+03 -5.91058E+03  4.98106E+03 -2.21559E+03
  6.02243E+03  2.60535E+03  2.21728E+03  5.70968E+03 -6.77625E+02  5.20935E+03 -5.02419E+03  2.36070E+03
 -5.09709E+03  1.25861E+03 -3.97539E+03 -3.46178E+03 -5.32176E+02 -5.39921E+03  3.15780E+03 -4.43057E+03
  3.49640E+03 -1.68762E+03  2.67545E+03  1.82588E+03  1.66706E+03  1.03926E+03  1.08341E+03  9.83594E+02
  1.18337E+03  1.54716E+03  4.99564E+02 -9.42262E+02  1.59699E+03  2.41710E+03  1.96769E+03  2.11142E+03
 -1.22725E+03  4.18010E+03 -3.99496E+03  5.01523E+03 -4.57906E+03  1.85442E+03 -6.47988E+03 -1.32492E+03
 -2.59212E+03 -6.01347E+03  1.50687E+03 -6.63611E+03  4.73493E+03 -3.79144E+03  4.32027E+03 -8.47024E+02
  3.84467E+03  2.76484E+03  9.48636E+02  2.40175E+03 -1.86970E+03  2.10695E+03 -2.23368E+03  6.22862E+02
 -1.52945E+03 -2.45501E+03  2.24777E+03 -4.13830E+03  2.74797E+03 -1.16908E+03  2.62025E+03 -8.23682E+01
  7.17677E+02  1.74869E+03  1.42760E+03 -6.49075E+02 -1.05550E+03  2.64334E+02  1.63081E+03 -3.58512E+02
  2.22766E+03 -1.20030E+02  3.21714E+03  1.32419E+03  2.12863E+03  2.79976E+03 -2.60588E+02  4.09278E+03
 -2.31523E+03  1.57111E+03 -4.08315E+03  4.72979E+02 -4.00714E+03 -1.10384E+03 -9.39175E+02 -1.99808E+03
  5.46061E+02 -1.96394E+03  2.37656E+03 -3.83607E+02  1.53562E+01  1.96454E+02 -1.27337E+03  1.66705E+03
 -3.19182E+03  2.33995E+02 -1.09510E+03 -1.78549E+03 -1.08149E+03 -2.78541E+03  4.42808E+02 -3.32837E+03
  1.55349E+03 -1.64297E+03  1.26888E+03 -7.50362E+02  2.34119E+03 -1.82305E+02  7.64305E+01  1.56111E+03
 -2.45340E+01  3.82126E+02 -1.27668E+03 -9.61566E+02  1.62714E+03 -2.29221E+03  2.01295E+03 -1.43996E+03
  1.85044E+03 -1.33508E+03  3.32861E+03  9.37769E+02  2.04637E+03  3.62147E+03 -1.40267E+03  3.10475E+03
 -2.23455E+03  1.03233E+03 -3.76874E+03 -8.24137E+02 -1.97970E+02 -2.33161E+03  7.96124E+02 -1.04579E+03
  8.58703E+02 -1.19747E+03  1.93403E+02  3.79493E+02  3.02317E+02  2.13374E+03 -1.31879E+02  2.14788E+03
 -8.37424E+02  8.91791E+02 -6.69391E+02  9.45592E+01  4.32299E+01  5.55113E+02 -3.31947E+01  3.35310E+02
 -1.49477E+03  4.89111E+02 -1.76991E+03  1.51783E+02 -3.01128E+03  8.12032E+02 -3.04062E+03 -2.17311E+03
 -6.72117E+02 -5.25933E+03  4.42939E+02 -4.30565E+03  1.73182E+03 -4.17157E+03  4.56234E+03 -1.47493E+03
  3.58738E+03  1.13575E+03  2.30182E+03  1.56828E+03  8.28154E+02  1.81691E+03 -1.54351E+03  3.64866E+03
 -2.94372E+03 -3.69930E+02 -1.69891E+03  6.60253E+02 -2.43465E+02 -2.77432E+02 -9.50554E+02 -1.05630E+02
 -3.68031E+02 -1.38959E+03 -1.54329E+03 -7.28966E+02  2.53702E+02 -1.06591E+03  1.49173E+02 -1.58073E+03
  9.59218E+02 -1.18494E+03  1.33012E+03  3.18054E+02  2.47579E+02  1.18723E+03  1.22750E+03  2.11810E+03
 -1.53570E+03  3.77742E+03 -3.05036E+03  2.39491E+03 -3.82040E+03  5.48373E+02 -1.25099E+03 -2.19640E+03
 -1.49970E+03 -3.31181E+03  3.79224E+02 -2.58552E+03  2.01598E+03 -5.66226E+02 -8.48128E+01 -7.11864E+02
  7.73636E+02  3.00360E+02  4.92960E+02  1.74101E+03 -4.34680E+02 -3.70720E+02  1.07583E+03 -8.27749E+02
 -3.42262E+02  5.01831E+02  1.02774E+03  1.10407E+03  9.76338E+02  1.74158E+02  9.57747E+02  6.22767E+02
 -7.91630E+02  1.86106E+02 -1.78624E+03  5.62990E+02 -1.16999E+03 -2.27878E+03  1.29832E+02 -1.91594E+03
  6.13586E+02 -2.74253E+03  1.38436E+03  9.71494E+02  1.63162E+03 -6.65197E+02  1.13538E+02  1.53387E+03
  5.05192E+02  1.14080E+03  5.43595E+02  4.63398E+02 -1.24165E+03  1.10880E+03 -1.56728E+02 -2.23983E+02
 -2.29843E+02 -6.47389E+02 -7.52453E+02  3.32681E+02 -1.54160E+03  5.68385E+02 -7.68879E+02  7.71655E+02
 -1.82027E+03  7.38440E+02 -8.15013E+02 -2.51173E+03  7.07829E+02 -2.48013E+03  1.26206E+03  2.14253E+02
  9.72793E+02  1.52841E+03  9.64054E+02  7.78791E+02  6.48093E+02  1.30504E+03 -1.91551E+02  1.39104E+03
