 $NMID ID='MM_0lb_SNR200_9hz_g45_47.RAW', FMTDAT='(8E13.5)'
 TRAMP=1., VOLUME=1. $END
  3.12584E+05  9.07636E+01  3.37115E+05  2.49614E+05  8.36470E+04  3.39312E+05 -1.33748E+05  2.52144E+05
 -1.90262E+05  8.41072E+04 -1.12080E+05 -3.16167E+04 -1.10009E+03 -5.03949E+04  5.31826E+04 -5.74407E+02
  3.71708E+04  5.24126E+04 -1.68220E+04  7.38554E+04 -6.10520E+04  6.40690E+04 -8.48704E+04  3.35223E+04
 -8.26114E+04 -1.10863E+04 -5.76195E+04 -5.25396E+04 -1.48591E+04 -7.09330E+04  2.90721E+04 -4.58797E+04
  4.24026E+04  4.13415E+03  1.71763E+04  4.90415E+04 -3.61742E+04  4.63434E+04 -6.67981E+04 -3.98497E+02
 -5.54131E+04 -5.79100E+04 -8.10434E+03 -7.79825E+04  3.50815E+04 -5.66034E+04  4.91191E+04 -1.88914E+04
  4.56975E+04  1.10755E+04  3.17152E+04  2.75229E+04  1.74422E+04  2.93050E+04 -6.11525E+03  2.80301E+04
 -2.16961E+04  1.29812E+04 -1.83826E+04 -5.48750E+03  7.47642E+03 -7.66819E+03  2.44765E+04  1.28799E+04
  6.67148E+03  3.93268E+04 -3.51168E+04  3.49840E+04 -6.56481E+04  1.23441E+03 -5.73625E+04 -4.39630E+04
 -1.33240E+04 -6.60228E+04  4.28026E+04 -4.76334E+04  5.99330E+04 -1.66027E+03  3.64977E+04  3.37512E+04
 -6.10116E+03  3.84473E+04 -3.15012E+04  1.80667E+04 -3.29975E+04 -6.04175E+03 -1.81464E+04 -1.27465E+04
 -7.51743E+03 -1.47078E+04  5.06342E+02 -2.03558E+04  7.48677E+03 -2.50047E+04  1.77944E+04 -1.21126E+04
  1.09803E+04  6.62538E+03 -1.00952E+04  1.33856E+04 -2.45747E+04 -5.70340E+03 -6.70983E+03 -3.72993E+04
  2.43515E+04 -4.69345E+04  5.12518E+04 -2.02284E+04  4.89169E+04  2.21779E+04  1.79415E+04  4.71901E+04
 -1.72223E+04  3.48767E+04 -2.73588E+04  2.98438E+03 -1.01430E+04 -2.88074E+04  2.04224E+04 -3.60407E+04
  4.46422E+04 -1.15110E+04  4.04381E+04  2.43668E+04  2.21004E+04  5.05033E+04 -8.16375E+03  5.63028E+04
 -3.49995E+04  3.74677E+04 -4.67557E+04  9.08291E+03 -4.60478E+04 -1.76761E+04 -2.68777E+04 -4.11751E+04
  7.76164E+03 -4.15931E+04  3.41069E+04 -1.69553E+04  3.10720E+04  1.18212E+04  4.19783E+03  2.13128E+04
 -1.34171E+04  8.27888E+03 -9.32308E+03 -7.31620E+03  3.88650E+03 -1.26059E+04  1.78627E+04  4.58160E+03
  1.40210E+04  2.30016E+04 -5.01288E+03  2.59237E+04 -2.36600E+04  1.48946E+04 -3.01025E+04 -3.99091E+03
 -2.57251E+04 -1.88913E+04 -1.13585E+04 -2.41710E+04  4.48586E+03 -2.46183E+04  1.85948E+04 -2.30973E+04
  3.14085E+04 -1.46600E+04  3.87772E+04  5.26894E+03  2.64198E+04  2.28891E+04  3.44803E+03  3.93310E+04
 -2.10143E+04  3.37193E+04 -3.02872E+04  1.29550E+04 -2.11916E+04 -9.67749E+03 -5.40671E+03 -1.35121E+04
  1.28119E+03 -1.97536E+03 -7.05058E+03  7.54158E+03 -2.12265E+04  4.37379E+03 -1.92749E+04 -8.97167E+03
 -1.07136E+04 -2.33048E+04  5.05846E+03 -2.70467E+04  1.82390E+04 -2.03587E+04  2.20007E+04 -2.01197E+03
  1.44939E+04  1.60054E+04 -1.37631E+03  2.34409E+04 -1.66394E+04  1.16863E+04 -2.12146E+04 -4.88292E+03
 -1.60956E+04 -2.01628E+04 -2.29296E+03 -2.81044E+04  1.17800E+04 -2.38121E+04  2.17836E+04 -1.24515E+04
  2.22369E+04 -2.62055E+02  1.59077E+04  5.10771E+03  1.01155E+04  1.43628E+03  1.08493E+04 -1.26488E+03
  2.13377E+04  2.03996E+03  2.50491E+04  1.79678E+04  1.57326E+04  3.65251E+04 -2.38805E+03  4.39005E+04
 -2.35288E+04  3.76886E+04 -4.05618E+04  1.97108E+04 -4.29144E+04 -3.39682E+03 -3.55439E+04 -2.42968E+04
 -1.57481E+04 -3.59824E+04  1.25265E+04 -3.27943E+04  2.83922E+04 -1.44126E+04  2.33309E+04  8.19282E+03
  8.51453E+03  1.71326E+04 -1.33406E+04  1.50164E+04 -2.05990E+04  2.24027E+03 -1.62077E+04 -1.20987E+04
  1.28875E+02 -1.68666E+04  9.21467E+03 -1.31117E+04  1.36936E+04 -6.42716E+02  2.80097E+03  9.42947E+03
 -7.68721E+03  3.79587E+03 -8.61016E+03 -6.53933E+03 -2.32076E+03 -1.82471E+04  1.28513E+04 -2.05439E+04
  2.19577E+04 -1.27628E+04  2.52723E+04  2.25136E+03  2.19636E+04  1.80447E+04  9.07084E+03  2.96580E+04
 -5.40807E+03  3.20085E+04 -2.01043E+04  1.81788E+04 -2.24464E+04  4.49010E+03 -1.45808E+04 -5.95836E+03
 -6.21827E+03 -7.99671E+03 -6.02377E+02  6.18396E+02 -4.13559E+03  4.21378E+03 -6.45635E+03  7.01534E+03
 -1.50958E+04 -1.82613E+03 -1.25911E+04 -1.21571E+04 -5.90485E+03 -1.99420E+04  7.41656E+03 -1.46133E+04
  1.22791E+04 -6.59067E+03  9.70097E+03  3.52794E+03 -7.33575E+02  5.90140E+03 -5.68383E+03 -5.61652E+02
 -7.16587E+03 -1.04017E+04 -2.78376E+03 -1.61481E+04  9.06074E+03 -1.59881E+04  2.02049E+04 -8.57864E+03
  2.34327E+04  3.10160E+03  1.70392E+04  1.28318E+04  1.95820E+03  1.73939E+04 -1.08737E+04  1.60909E+04
 -1.29331E+04  5.58334E+03 -6.44407E+03 -2.73183E+03  2.33826E+03 -4.37748E+03  8.24836E+03 -2.41022E+03
  7.78545E+03  6.84821E+03  9.15591E+02  1.21973E+04 -8.76367E+03  1.19802E+04 -1.60865E+04  3.25147E+03
 -1.00660E+04 -7.60030E+03  5.06072E+02 -1.22313E+04  9.71530E+03 -5.80442E+03  9.19787E+03  2.68031E+03
  3.50717E+03  1.01623E+04 -8.70049E+03  9.92449E+03 -1.27135E+04  5.57384E+03 -1.17419E+04 -6.94982E+03
 -7.08298E+03 -1.62675E+04  4.38812E+03 -1.85908E+04  1.45603E+04 -9.88966E+03  1.71560E+04  3.43410E+03
  9.96658E+03  1.23810E+04 -5.87007E+02  1.51183E+04 -1.16564E+04  9.64989E+03 -1.18602E+04 -1.18332E+02
 -1.10637E+04 -1.12263E+04 -2.04165E+03 -1.01852E+04  7.28561E+03 -1.10371E+04  8.47319E+03 -5.85344E+03
  3.99404E+03  2.09064E+03  5.54539E+02  1.90726E+03  3.47602E+02 -2.40925E+03  2.24876E+03 -6.43216E+03
  1.24426E+04 -3.99314E+03  1.66951E+04  1.71445E+03  1.53716E+04  1.08331E+04  1.06281E+04  2.14260E+04
 -5.56832E+03  2.44799E+04 -1.75724E+04  1.77670E+04 -2.41163E+04  4.65719E+03 -2.02344E+04 -7.92462E+03
 -9.49458E+03 -1.63541E+04 -4.83159E+02 -1.37513E+04  6.47183E+03 -8.75994E+03  4.57105E+03 -5.53601E+03
  4.00856E+03 -2.95802E+03  5.07468E+03 -2.71731E+03  4.30500E+03 -2.04778E+03  8.23420E+03 -2.10820E+03
  1.05842E+04  3.01076E+03  5.40247E+03  9.71896E+03  4.92230E+02  1.03479E+04 -1.18182E+04  9.47799E+03
 -1.38486E+04 -1.59315E+03 -9.19557E+03 -9.83950E+03  1.18956E+02 -1.54824E+04  8.07640E+03 -1.55941E+04
  1.41771E+04 -7.52577E+03  2.03293E+04  1.39202E+03  1.36536E+04  1.29554E+04  2.68251E+03  1.70639E+04
 -7.68965E+03  1.22704E+04 -1.03084E+04  4.28288E+03 -7.36909E+03  8.58208E+01 -2.99617E+03 -2.69943E+03
 -1.45055E+03  7.43670E+02 -2.19981E+03  4.19987E+03 -4.98098E+03  3.88676E+03 -1.00422E+04  5.47473E+02
 -7.23625E+03 -1.04156E+04 -9.50742E+02 -1.52365E+04  8.96786E+03 -1.36169E+04  1.37055E+04 -3.61815E+03
  1.54653E+04  5.27914E+03  6.65818E+03  1.28529E+04 -1.79738E+03  1.52173E+04 -1.21809E+04  9.01186E+03
 -1.38060E+04  6.61619E+02 -1.10062E+04 -8.82808E+03 -1.66735E+03 -1.40647E+04  5.81921E+03 -9.40762E+03
  9.90894E+03 -2.32338E+03  4.81960E+03  1.39779E+03  2.95508E+03  5.58625E+03 -1.00624E+01  2.99155E+03
  3.19407E+03  5.76114E+02  5.41121E+03 -2.31521E+02  5.36018E+03  6.48442E+03  5.32304E+03  6.43195E+03
 -2.76899E+03  1.14855E+04 -1.09870E+04  1.05956E+04 -1.52389E+04  4.61542E+03 -1.40377E+04 -6.43641E+03
 -4.52529E+03 -1.46736E+04  3.40209E+03 -1.63893E+04  8.21887E+03 -1.01460E+04  1.13428E+04 -3.59709E+03
  9.78202E+03  5.69218E+03  2.62509E+03  9.26029E+03 -5.23997E+03  5.85175E+03 -5.10618E+03 -1.26902E+03
 -3.18545E+03 -7.23145E+03  3.29713E+03 -6.03819E+03  5.14544E+03 -4.15360E+03  6.28481E+03  1.92096E+02
  3.23404E+03  1.52449E+03  2.10834E+03  2.56977E+03 -7.90560E+02  2.51017E+03  4.95438E+01 -6.64374E+02
  3.17120E+03 -3.00418E+03  6.03189E+03  2.01277E+03  3.78256E+03  9.02446E+03 -4.35496E+02  1.06893E+04
 -7.58941E+03  5.08390E+03 -1.13389E+04  2.64720E+03 -7.78185E+03 -4.36774E+03 -4.15771E+03 -5.62800E+03
  1.70728E+03 -6.34100E+03  3.90372E+03 -3.58202E+03  2.74632E+03  2.35581E+03 -2.99679E+03  5.19764E+03
 -6.29079E+03  3.26252E+03 -6.97927E+03 -3.69296E+03 -5.65680E+03 -9.35867E+03  2.18199E+03 -7.76233E+03
  5.66233E+03 -5.74996E+03  8.00948E+03 -9.72127E+02  4.96157E+03  2.16465E+03  1.25501E+03  6.15399E+03
 -3.74357E+03  2.32404E+03 -3.96285E+03 -2.46283E+03  2.06681E+03 -7.44658E+03  7.61885E+03 -4.40792E+03
  1.04025E+04 -8.89426E+02  9.59503E+03  6.19751E+03  3.87184E+03  8.69430E+03 -2.89369E+03  8.92418E+03
 -6.20029E+03  4.72548E+03 -6.95380E+03 -1.53763E+03 -2.77539E+03 -7.11557E+03  1.31781E+03 -5.83060E+03
  5.42582E+03 -2.62924E+03  4.86626E+03  2.36493E+03  1.65971E+03  5.04501E+03  1.38100E+03  5.39100E+03
 -3.50966E+03  3.05554E+03 -3.25705E+03  1.89240E+03  1.08968E+02  6.81222E+02 -1.65205E+03  3.69396E+03
 -2.09999E+03  3.41799E+03 -7.73565E+03  2.71359E+03 -9.80708E+03 -3.96748E+02 -1.19146E+04 -6.93028E+03
 -6.28203E+03 -1.26720E+04  2.53623E+03 -1.43785E+04  8.47008E+03 -1.11773E+04  1.43081E+04 -4.36812E+03
  1.31774E+04  3.64816E+03  7.69015E+03  8.95352E+03  1.36786E+03  1.06211E+04 -3.88873E+03  7.51878E+03
 -4.55055E+03  3.77282E+03 -2.47165E+03 -4.61677E+02 -1.10869E+03 -5.01334E+02 -1.97940E+02 -4.85648E+02
 -1.88950E+03  2.19586E+03 -2.18775E+03 -2.23466E+02  2.42557E+02 -4.04713E+03  8.12806E+02 -4.23434E+03
  4.61711E+03 -4.77313E+03  6.40794E+03 -5.67221E+02  4.96896E+03  5.94411E+03  2.23945E+03  9.75826E+03
 -5.63849E+03  1.17143E+04 -1.11045E+04  6.69170E+03 -1.38033E+04 -6.83951E+02 -1.07001E+04 -6.70673E+03
 -4.47057E+03 -1.10612E+04  3.93599E+03 -9.42892E+03  5.82640E+03 -4.21371E+03  6.15527E+03 -4.22503E+02
  3.17131E+03  1.04588E+03 -1.50813E+03  2.23909E+03 -2.56793E+03  2.49763E+02 -1.20557E+03 -2.29978E+03
  3.53479E+03 -1.54305E+03  3.03110E+03  2.00646E+03  3.19279E+03  2.41349E+03 -4.19152E+02  5.74047E+03
 -4.01431E+03  4.48996E+03 -5.40990E+03 -1.05439E+03 -6.07279E+03 -4.93641E+03 -2.50997E+03 -8.23178E+03
  4.47747E+03 -7.85243E+03  8.54891E+03 -1.54306E+03  6.37452E+03  1.24069E+03  6.01839E+03  6.28028E+03
  1.44583E+03  7.74543E+03 -2.20598E+03  6.25378E+03 -4.43023E+03  3.63758E+03 -2.48118E+03  4.97593E+01
 -1.54719E+03 -1.33446E+02 -2.14052E+03  2.27594E+03 -4.05985E+03  1.02613E+03 -5.57639E+03 -1.01324E+03
 -4.36850E+03 -3.76171E+03 -5.37747E+02 -6.22956E+03  4.16834E+03 -6.90295E+03  5.76676E+03 -2.63289E+03
  7.50353E+03  5.10076E+02  5.49091E+03  5.69535E+03  1.07946E+01  6.85175E+03 -5.35102E+03  5.55110E+03
