 $NMID ID='MM_0lb_SNR200_18hz_g45_33.RAW', FMTDAT='(8E13.5)'
 TRAMP=1., VOLUME=1. $END
  3.10116E+05  1.54694E+03  3.37789E+05  2.50204E+05  8.43414E+04  3.36386E+05 -1.31998E+05  2.50464E+05
 -1.89558E+05  8.17133E+04 -1.11805E+05 -3.30221E+04  1.88912E+03 -4.93418E+04  5.40824E+04  5.36025E+02
  3.50235E+04  5.23955E+04 -1.66461E+04  7.48973E+04 -6.13129E+04  6.28474E+04 -8.40043E+04  3.11716E+04
 -7.99011E+04 -1.04095E+04 -5.56111E+04 -4.91279E+04 -1.48496E+04 -6.80292E+04  2.82272E+04 -4.50476E+04
  3.88215E+04  4.18609E+03  1.53468E+04  4.73812E+04 -3.43630E+04  4.66804E+04 -6.52119E+04 -9.88498E+02
 -5.18841E+04 -5.54407E+04 -6.25007E+03 -7.49752E+04  3.30961E+04 -5.27337E+04  4.64501E+04 -1.73222E+04
  4.17447E+04  1.09999E+04  3.05816E+04  2.57302E+04  1.59036E+04  2.95357E+04 -5.35341E+03  2.71992E+04
 -2.25494E+04  1.30260E+04 -1.80848E+04 -4.67352E+03  3.76805E+03 -8.50965E+03  2.03689E+04  1.09584E+04
  6.87079E+03  3.38904E+04 -3.13302E+04  3.43588E+04 -6.19422E+04  1.94328E+03 -5.61698E+04 -4.18891E+04
 -1.22061E+04 -6.13163E+04  3.84186E+04 -4.33801E+04  5.54620E+04 -2.43609E+03  3.22231E+04  3.12810E+04
 -5.56863E+03  3.31164E+04 -2.83119E+04  1.29594E+04 -2.69210E+04 -4.77195E+03 -1.50057E+04 -9.67176E+03
 -6.59894E+03 -1.09141E+04 -1.17100E+03 -1.75804E+04  6.39940E+03 -2.15313E+04  1.53490E+04 -1.43167E+04
  1.20775E+04  4.46841E+03 -5.33526E+03  1.30932E+04 -1.96146E+04 -1.96082E+03 -8.66523E+03 -3.12230E+04
  2.08191E+04 -4.14313E+04  4.55427E+04 -1.82613E+04  4.27185E+04  1.80918E+04  1.37429E+04  4.17741E+04
 -1.39973E+04  3.13427E+04 -2.39193E+04  2.72603E+03 -8.50609E+03 -2.69486E+04  2.07255E+04 -3.24313E+04
  3.89229E+04 -6.95329E+03  3.18423E+04  2.26388E+04  1.58703E+04  4.27847E+04 -8.28903E+03  4.53651E+04
 -2.83165E+04  2.92343E+04 -3.75560E+04  8.52736E+03 -3.90218E+04 -1.58602E+04 -2.09327E+04 -3.43877E+04
  7.76549E+03 -3.42144E+04  2.91451E+04 -1.28848E+04  2.68977E+04  1.08550E+04  3.33259E+03  1.82430E+04
 -1.36107E+04  7.04703E+03 -9.60928E+03 -7.31616E+03  5.81109E+03 -9.80117E+03  1.75802E+04  7.07739E+03
  1.19840E+04  2.16072E+04 -7.51137E+03  2.37418E+04 -2.15924E+04  8.60657E+03 -2.59251E+04 -6.59368E+03
 -1.63171E+04 -1.56240E+04 -4.84562E+03 -1.70483E+04  3.36222E+03 -1.37744E+04  1.30028E+04 -1.49354E+04
  2.24344E+04 -1.16091E+04  2.80617E+04  1.41887E+03  2.13730E+04  1.67903E+04  3.26798E+03  3.30441E+04
 -1.65355E+04  2.78100E+04 -2.64707E+04  9.39172E+03 -1.88158E+04 -1.09327E+04 -3.96345E+03 -1.36460E+04
  3.03731E+03 -3.27354E+03 -2.59284E+03  5.18397E+03 -1.26923E+04  5.02107E+03 -1.33872E+04 -5.63696E+03
 -8.64070E+03 -1.72319E+04  3.45630E+03 -2.00567E+04  1.23359E+04 -1.41128E+04  1.45144E+04 -9.56165E+02
  9.10794E+03  1.13294E+04 -7.40893E+02  1.59368E+04 -1.06821E+04  7.76674E+03 -1.57855E+04 -4.01607E+03
 -1.03986E+04 -1.34714E+04 -1.71856E+03 -1.91967E+04  9.49923E+03 -1.43286E+04  1.61015E+04 -6.78328E+03
  1.54337E+04 -2.72969E+01  1.05713E+04  3.98299E+03  4.39694E+03  4.51520E+02  6.64776E+03 -1.66809E+03
  1.31918E+04  1.32161E+03  1.48375E+04  1.18898E+04  9.61880E+03  2.50104E+04 -2.06032E+03  2.70666E+04
 -1.61891E+04  2.06948E+04 -2.40220E+04  9.30483E+03 -2.53399E+04 -1.50389E+03 -2.12796E+04 -1.33924E+04
 -1.10512E+04 -2.06770E+04  6.60856E+03 -2.01838E+04  1.68429E+04 -1.08735E+04  1.55923E+04  3.47072E+03
  6.58969E+03  1.11079E+04 -6.77535E+03  1.05011E+04 -1.30387E+04  2.40501E+03 -9.82624E+03 -7.97484E+03
  3.53932E+02 -1.30660E+04  6.92467E+03 -8.77124E+03  7.89092E+03 -1.63890E+03  2.22554E+03  5.30819E+03
 -6.73132E+03  1.87314E+03 -3.01865E+03 -3.83720E+03  8.82838E+02 -9.78029E+03  7.60122E+03 -9.83566E+03
  1.26840E+04 -4.68673E+03  1.26104E+04  2.46997E+03  1.05377E+04  1.06561E+04  4.77270E+03  1.46856E+04
 -2.57242E+03  1.72522E+04 -9.26615E+03  1.18645E+04 -1.17862E+04  4.28187E+03 -7.60077E+03 -1.84179E+03
 -4.86105E+03 -2.29606E+03 -3.99792E+01  4.94251E+02 -2.64527E+03  2.48706E+03 -3.56834E+03  3.59292E+03
 -8.04693E+03 -1.42223E+03 -8.57913E+03 -7.84979E+03 -3.57506E+03 -1.18697E+04  3.52808E+03 -8.65411E+03
  7.61473E+03 -4.36724E+03  4.30698E+03  2.20634E+03  1.40956E+03  2.65576E+03 -2.73315E+03  1.93802E+02
 -4.29713E+03 -5.40109E+03 -1.28847E+03 -7.33595E+03  4.61293E+03 -8.46320E+03  9.50352E+03 -4.62505E+03
  1.21935E+04  5.36883E+02  9.16744E+03  6.37037E+03  1.68558E+03  8.70517E+03 -5.80654E+03  8.20374E+03
 -7.14328E+03  2.36508E+03 -3.17689E+03 -2.14499E+03  1.47389E+03 -2.20728E+03  5.51017E+03 -9.20070E+02
  4.14086E+03  4.46983E+03  1.38318E+03  6.11287E+03 -3.33701E+03  6.33818E+03 -7.48268E+03  2.13061E+03
 -4.86484E+03 -3.21941E+03 -9.24563E+02 -6.48741E+03  3.81931E+03 -5.15657E+03  3.80425E+03  3.89792E+02
  1.23128E+03  3.33292E+03 -4.22964E+03  4.19555E+03 -6.38264E+03  2.65369E+03 -4.62875E+03 -1.36318E+03
 -3.03084E+03 -6.92291E+03 -4.23090E+02 -7.45151E+03  5.99698E+03 -4.52788E+03  7.24020E+03  8.26781E+02
  5.05891E+03  5.62436E+03 -3.39208E+02  7.66354E+03 -5.14300E+03  4.38072E+03 -5.97872E+03  3.53622E+02
 -5.36039E+03 -6.07175E+03 -1.59248E+02 -5.33978E+03  1.85865E+03 -4.69098E+03  3.81459E+03 -2.91446E+03
  3.14188E+03 -2.56954E+02  3.84708E+02  1.14549E+03  2.10902E+02 -1.23815E+03  3.82537E+02 -1.17201E+03
  3.50854E+03 -1.22187E+03  4.34705E+03  3.37561E+02  5.75676E+03  2.88822E+03  5.07114E+03  6.70347E+03
  6.52709E+01  8.45523E+03 -7.35051E+03  6.42417E+03 -1.13168E+04  1.44454E+03 -6.30123E+03 -2.51907E+03
 -4.78724E+03 -6.88977E+03  3.22515E+02 -5.72767E+03  2.65305E+03 -3.23889E+03  1.69218E+03 -2.14155E+03
  5.11856E+02 -1.25190E+03  3.05681E+03 -2.42667E+03  3.36144E+03 -1.89263E+03  4.21621E+03 -1.37191E+02
  5.10574E+03  9.43723E+01  8.90917E+02  3.14816E+03 -2.59134E+03  2.86526E+03 -4.33752E+03  3.31145E+03
 -5.49157E+03 -1.33484E+03 -1.65450E+03 -3.01771E+03 -1.41709E+02 -4.85077E+03  2.82453E+03 -5.76022E+03
  5.30911E+03 -2.74152E+03  7.27547E+03  1.62269E+03  4.20262E+03  4.36849E+03  9.85223E+02  6.30584E+03
 -7.50712E+02  6.15119E+03 -2.93645E+03  1.38522E+03 -1.98943E+03 -8.68655E+02 -7.41523E+02 -6.44545E+02
 -2.03156E+02  1.48468E+02 -5.05744E+02  2.98196E+03 -2.46395E+03  2.12309E+03 -3.60598E+03 -8.70771E+02
 -1.21090E+03 -4.25876E+03  1.25272E+03 -5.23944E+03  4.17412E+03 -3.63923E+03  4.29901E+03 -1.99887E+03
  3.07385E+03  1.62686E+03  1.88547E+03  3.15993E+03 -7.01306E+02  6.52122E+03 -2.69879E+03  2.50446E+03
 -4.45518E+03  1.35744E+03 -3.58010E+03 -1.33947E+03  1.45214E+02 -3.25450E+03  3.62359E+02 -2.28185E+03
  2.57119E+03 -1.95039E+03  2.56311E+03  1.09824E+03  3.12727E+02  1.83582E+03  1.93400E+02  1.19491E+03
  1.50714E+03  1.28828E+03  9.30913E+02  1.74455E+03  1.29605E+02  3.37025E+03  1.15664E+03  1.77441E+03
 -1.10454E+03  1.58570E+03 -2.31613E+03  3.49364E+03 -3.47505E+03  2.08594E+03 -5.65963E+03 -1.42500E+03
 -6.05432E+02 -4.49462E+03  2.30550E+03 -4.43280E+03  1.87408E+03 -2.64250E+03  3.40962E+03  8.27421E+02
  3.54383E+03  1.22241E+03 -9.33126E+01  1.10883E+03 -1.03904E+03  1.23027E+03 -1.96297E+03 -3.93689E+01
  3.46687E+01 -2.07280E+03  1.16914E+03 -7.62336E+02  6.94037E+02 -1.73283E+03  2.27487E+03  3.47075E+02
  1.07347E+03  2.57200E+02  7.78555E+01  8.33989E+02  4.22739E+02 -4.50605E+02  2.42791E+03  5.09734E+02
  3.24707E+02 -2.60199E+02  2.28400E+03  7.82116E+02  7.84632E+02  2.08482E+03 -9.31650E+02  4.00673E+03
 -2.52771E+03  1.54131E+03 -1.74880E+03  1.20628E+03 -2.86601E+03  5.05155E+01 -1.53041E+03 -1.67239E+03
 -8.45210E+02 -1.22938E+03  2.03854E+03 -9.34813E+02 -9.51192E+01  1.31104E+03 -6.17786E+02  1.81263E+03
 -1.46795E+03  1.60523E+03 -9.36099E+02 -1.28339E+03 -7.62179E+02 -2.97262E+03  4.76089E+02 -2.12806E+03
  8.83188E+02 -4.40900E+02  1.09224E+03  1.30599E+03  1.01054E+03 -1.72248E+02  9.12742E+02  9.31419E+02
 -8.26494E+02 -3.37373E+02 -1.10709E+03 -1.25158E+01  7.46976E+02  1.16592E+02  2.55448E+03  9.39284E+01
  9.76134E+02  6.70921E+02  2.84511E+03  4.00343E+02  1.14405E+03  2.34587E+03 -2.48792E+02  1.62895E+03
 -2.08352E+03  5.51418E+02 -2.17989E+03 -8.26443E+02 -9.31039E+02 -1.97330E+03  2.61262E+02 -1.56750E+03
  1.27978E+03 -3.75387E+02  9.73898E+02  4.27595E+02  9.08693E+01  1.18292E+03  4.02506E+01  9.25133E+02
  7.80534E+02  1.67746E+03  3.59476E+01  2.44787E+02  1.37044E+03 -5.51716E+02 -3.40558E+01  7.30820E+02
 -1.35562E+03  1.00417E+03 -2.12727E+03 -4.12650E+02 -1.69692E+03  5.36601E+02 -2.66987E+03 -8.19571E+02
 -1.07722E+03 -3.23948E+03  4.97103E+02 -3.82959E+03  5.62508E+02 -2.65096E+03  1.98466E+03 -1.67718E+02
  2.63642E+03 -2.28786E+02  1.36493E+03  2.41633E+03 -2.90625E+02  1.46664E+03 -3.45729E+02  1.43485E+03
 -1.16062E+03  3.99727E+02 -1.28606E+03 -5.17806E+02 -5.24658E+02  9.24170E+02 -1.43007E+03 -4.18178E+02
  1.57651E+02 -5.87237E+02 -1.10826E+03  4.70362E+02  3.46389E+02 -1.01272E+03 -1.18883E+03 -1.17216E+03
  1.04975E+03  5.69363E+02  1.35673E+02 -4.16306E+02  1.54901E+03  4.03719E+02 -8.38058E+02  1.71135E+03
 -1.65132E+03  1.64158E+03 -1.34813E+03  3.39366E+02 -2.43118E+03 -5.94611E+02 -1.19874E+03 -1.14981E+03
  1.60650E+01 -2.21922E+03  6.23307E+01 -1.72495E+03  3.81095E+02  1.25404E+02 -4.21890E+02  8.20422E+01
  8.67757E+01 -4.19945E+02  4.89587E+02  4.39134E+02 -1.18192E+03  3.34424E+02  4.17863E+02 -5.73302E+02
 -2.55393E+02 -1.47749E+01  5.42885E+02  1.07793E+02  2.59662E+02 -3.77997E+02  4.64547E+02 -4.36534E+02
 -2.57681E+02 -1.02568E+03 -1.65294E+03  2.07290E+03 -9.23568E+02 -7.07788E+02 -3.83133E+02 -1.00583E+03
  3.80121E+02 -6.40161E+02  2.00612E+03 -3.26928E+02  1.32816E+03  9.95448E+00 -5.47956E+01 -2.64889E+02
  4.34038E+02  1.19551E+03  1.27581E+03  3.63415E+02 -1.10943E+03  7.75162E+02 -8.99910E+02  1.32066E+02
 -1.10909E+03  2.51030E+02 -2.25371E+02  1.03284E+03  3.50108E+01  1.12574E+02 -1.38761E+03 -1.79113E+02
 -1.15977E+03  4.49161E+02 -5.84824E+01 -1.12387E+03  6.22696E+02 -2.14803E+03  1.63142E+03 -2.73781E+02
  3.16698E+02  3.50670E+02 -3.05966E+02  5.56242E+02 -4.16511E+02  5.49903E+02 -1.38104E+02  1.06499E+03
