 $NMID ID='MM_0lb_SNR200_20hz_g60_62.RAW', FMTDAT='(8E13.5)'
 TRAMP=1., VOLUME=1. $END
  3.09858E+05  8.69364E+02  3.37543E+05  2.51652E+05  8.46153E+04  3.38726E+05 -1.31637E+05  2.50118E+05
 -1.90173E+05  8.24603E+04 -1.11665E+05 -3.27150E+04  1.42034E+03 -4.97747E+04  5.45877E+04  8.12027E+02
  3.56398E+04  5.33168E+04 -1.66176E+04  7.46552E+04 -6.12948E+04  6.30634E+04 -8.34172E+04  3.18524E+04
 -8.02287E+04 -1.11283E+04 -5.65537E+04 -5.06269E+04 -1.48767E+04 -6.98291E+04  2.61046E+04 -4.53039E+04
  3.92114E+04  2.86710E+03  1.59679E+04  4.63073E+04 -3.42409E+04  4.60410E+04 -6.52535E+04 -2.96560E+02
 -5.27128E+04 -5.61962E+04 -6.45869E+03 -7.50737E+04  3.30017E+04 -5.39167E+04  4.63687E+04 -1.82222E+04
  4.23392E+04  1.09114E+04  3.17275E+04  2.45913E+04  1.67497E+04  2.79369E+04 -6.22682E+03  2.69663E+04
 -2.11255E+04  1.16148E+04 -1.85716E+04 -5.51518E+03  5.40867E+03 -7.66493E+03  2.14755E+04  1.26700E+04
  8.51316E+03  3.31624E+04 -3.11894E+04  3.48521E+04 -6.20190E+04  2.10090E+03 -5.61889E+04 -4.16403E+04
 -1.39004E+04 -6.23484E+04  3.79087E+04 -4.30004E+04  5.68870E+04 -2.73567E+03  3.28441E+04  3.11821E+04
 -5.68643E+03  3.39663E+04 -2.94980E+04  1.40838E+04 -2.82950E+04 -5.83529E+03 -1.63044E+04 -1.08745E+04
 -6.75521E+03 -1.10068E+04 -7.30634E+02 -1.68742E+04  6.81694E+03 -2.26745E+04  1.52751E+04 -1.39753E+04
  1.21515E+04  3.51065E+03 -6.85791E+03  1.22999E+04 -1.96946E+04 -3.41027E+03 -7.94109E+03 -2.98406E+04
  2.14533E+04 -4.16870E+04  4.50668E+04 -1.85898E+04  4.21968E+04  1.91571E+04  1.56054E+04  4.25825E+04
 -1.54089E+04  3.13394E+04 -2.31497E+04  2.00529E+03 -8.92638E+03 -2.68774E+04  1.97819E+04 -3.14349E+04
  3.87995E+04 -7.54412E+03  3.24405E+04  2.27468E+04  1.55880E+04  4.37565E+04 -7.92625E+03  4.63791E+04
 -2.89049E+04  3.13856E+04 -3.96485E+04  8.23761E+03 -3.91278E+04 -1.52580E+04 -2.16253E+04 -3.53704E+04
  6.35325E+03 -3.62034E+04  2.95116E+04 -1.31868E+04  2.68561E+04  1.04931E+04  3.34877E+03  1.82334E+04
 -1.30674E+04  7.87603E+03 -8.47315E+03 -7.54204E+03  5.14519E+03 -1.19359E+04  1.69885E+04  6.08229E+03
  1.26558E+04  2.18801E+04 -6.89635E+03  2.36437E+04 -2.17604E+04  9.56452E+03 -2.47028E+04 -6.32189E+03
 -1.79824E+04 -1.75342E+04 -5.96105E+03 -1.70232E+04  4.51386E+03 -1.57561E+04  1.35814E+04 -1.47420E+04
  2.28303E+04 -1.22297E+04  2.92599E+04  8.40779E+02  2.25312E+04  1.74105E+04  5.04522E+03  3.41555E+04
 -1.70027E+04  2.75091E+04 -2.64341E+04  9.39456E+03 -1.95639E+04 -1.03207E+04 -3.26118E+03 -1.39408E+04
  2.64865E+03 -4.12806E+03 -2.69725E+03  5.18674E+03 -1.30924E+04  4.68068E+03 -1.34132E+04 -5.79980E+03
 -9.15975E+03 -1.53976E+04  3.96715E+03 -2.10068E+04  1.23277E+04 -1.43076E+04  1.41293E+04 -1.82668E+03
  9.20227E+03  1.06621E+04 -7.79593E+02  1.54157E+04 -9.85233E+03  8.54558E+03 -1.67567E+04 -3.59374E+03
 -1.20049E+04 -1.45619E+04 -8.83067E+02 -1.87207E+04  7.84533E+03 -1.56811E+04  1.64588E+04 -7.04012E+03
  1.50191E+04  1.15844E+03  9.93535E+03  3.64918E+03  5.23617E+03  3.20548E+02  7.51953E+03 -1.50103E+03
  1.38254E+04  2.95499E+03  1.54100E+04  1.24600E+04  9.20792E+03  2.58067E+04 -2.70445E+03  2.79427E+04
 -1.58313E+04  2.05681E+04 -2.52830E+04  9.94235E+03 -2.55101E+04 -9.50021E+02 -2.10183E+04 -1.41295E+04
 -9.89843E+03 -2.06474E+04  6.40642E+03 -2.00909E+04  1.62543E+04 -1.00655E+04  1.49210E+04  3.73637E+03
  5.30184E+03  1.18400E+04 -8.03050E+03  1.00688E+04 -1.36721E+04  2.18037E+03 -1.07355E+04 -7.52106E+03
 -2.27385E+02 -1.35926E+04  6.17961E+03 -9.36502E+03  8.13017E+03 -1.62057E+03  1.55699E+03  5.10825E+03
 -4.69170E+03  1.05781E+03 -3.21123E+03 -4.84405E+03  6.89453E+02 -1.14688E+04  7.84144E+03 -1.01935E+04
  1.24285E+04 -4.77462E+03  1.19188E+04  3.99327E+03  1.06763E+04  1.00644E+04  5.09141E+03  1.31162E+04
 -2.98639E+03  1.64242E+04 -8.91309E+03  1.01981E+04 -1.14866E+04  3.17748E+03 -8.88405E+03 -5.97285E+02
 -5.06880E+03 -2.59216E+03 -3.71074E+02  1.50960E+03 -1.78731E+03  2.08353E+03 -3.93024E+03  3.51002E+03
 -7.10484E+03 -3.85890E+02 -8.22796E+03 -7.35094E+03 -3.20211E+03 -1.20557E+04  2.97920E+03 -9.31462E+03
  7.16082E+03 -4.23716E+03  5.47795E+03  2.57647E+03  2.80511E+02  2.88671E+03 -3.67791E+03  2.85611E+02
 -3.95988E+03 -4.76383E+03 -5.81392E+02 -7.02406E+03  3.21622E+03 -6.46104E+03  1.04448E+04 -4.18048E+03
  1.20547E+04  7.75959E+02  9.53864E+03  6.88129E+03  2.57810E+03  8.58668E+03 -4.06891E+03  8.46472E+03
 -4.92671E+03  2.21833E+03 -3.62673E+03 -2.01935E+03  9.81856E+02 -1.95836E+03  4.22724E+03 -1.68420E+03
  2.96830E+03  2.78365E+03  1.05200E+03  6.32016E+03 -5.50343E+03  6.10786E+03 -7.80465E+03  1.84169E+03
 -4.93284E+03 -4.08536E+03 -7.48833E+01 -5.98769E+03  3.37320E+03 -3.24500E+03  4.05885E+03  5.64522E+02
  6.89525E+02  2.95715E+03 -3.57257E+03  4.86557E+03 -4.20813E+03  2.47031E+03 -3.40668E+03 -1.30209E+03
 -2.81753E+03 -5.82299E+03  7.19718E+02 -6.12823E+03  6.20289E+03 -5.33211E+03  6.45494E+03  7.82887E+02
  4.56003E+03  5.25961E+03  8.50667E+02  6.89045E+03 -5.64981E+03  4.57535E+03 -4.82939E+03 -1.20647E+03
 -6.03475E+03 -5.15958E+03 -4.97212E+02 -4.22268E+03  1.95393E+03 -4.07357E+03  4.10875E+03 -3.12041E+03
  1.65445E+03 -8.66619E+01  6.34806E+02  1.27159E+03  4.51160E+02  1.05821E+03 -4.67135E+02 -1.36393E+03
  3.40040E+03 -6.68658E+02  4.02184E+03  9.10037E+02  4.52416E+03  3.18207E+03  5.20791E+03  6.99024E+03
 -6.13248E+01  7.07206E+03 -6.57827E+03  7.02160E+03 -9.84648E+03  4.08186E+02 -5.86916E+03 -2.36319E+03
 -3.63272E+03 -5.58724E+03 -5.92239E+02 -4.87448E+03  2.11686E+03 -1.28439E+03  1.45770E+03 -1.21847E+03
  9.41369E+02 -1.72589E+03  2.93719E+03 -2.41992E+03  3.09477E+03 -4.54200E+02  4.14134E+03  1.07243E+03
  3.88475E+03  2.12336E+03  7.42602E+02  3.10206E+03  1.88604E+02  2.58570E+03 -3.17510E+03  2.95752E+03
 -5.40932E+03 -2.03362E+03 -2.51231E+03 -2.14468E+03  4.24543E+02 -4.64568E+03  2.66046E+03 -4.69778E+03
  4.29907E+03 -3.28719E+03  5.43528E+03 -7.07747E+02  3.65529E+03  4.14209E+03  8.04040E+02  4.85371E+03
 -1.35729E+03  4.54145E+03 -2.39511E+03  1.48911E+03 -1.97671E+03 -1.70616E+03 -2.88482E+02 -4.22375E+02
 -2.87540E+02 -9.00305E+01 -1.51605E+03  2.24530E+03 -2.32738E+03  2.53360E+03 -5.16639E+03  6.80675E+02
 -1.14750E+03 -3.55913E+03  1.63110E+03 -4.48011E+03  3.89639E+03 -4.35915E+03  2.29356E+03 -8.98762E+02
  3.73957E+03  2.47553E+03  1.85920E+03  2.66082E+03 -6.59345E+02  4.44103E+03 -2.21738E+03  2.21771E+03
 -2.77972E+03  1.26498E+03 -3.34329E+03 -2.63501E+03 -5.41492E+02 -3.88453E+03  9.01901E+02 -2.17295E+03
  2.49641E+03 -2.00202E+03  1.48705E+03 -1.81255E+02 -2.59532E+02  1.24850E+03  1.25508E+03  2.34386E+02
  1.55854E+03 -3.84966E+02  4.98690E+02  5.63470E+02  1.86074E+03  1.91714E+03  1.42464E+03  1.86829E+03
 -2.33880E+03  3.08350E+03 -1.64145E+03  3.24282E+03 -2.44192E+03  5.30694E+02 -3.10282E+03 -3.05513E+02
 -8.85142E+02 -3.04123E+03  5.81249E+02 -4.60351E+03  1.51589E+03 -1.83812E+03  2.95454E+03 -1.43099E+03
  1.39421E+03  1.07393E+03  1.66504E+03  2.12310E+03 -6.20422E+02  1.43277E+02 -3.44977E+02  2.82775E+02
  9.00708E+01 -1.65044E+03  2.22612E+03 -1.91371E+03  1.06836E+03 -6.34243E+02  1.67723E+03  1.09918E+03
  6.07114E+02 -9.20392E+02  1.40556E+03  4.80638E+02 -6.33549E+02  1.24793E+03  1.36863E+03 -7.72136E+01
 -1.25440E+03 -1.39002E+01  1.76033E+03  1.64122E+03 -6.04774E+02  1.16102E+03  1.15632E+02  3.06300E+03
 -9.28996E+02  1.04812E+03 -1.10725E+03  8.68482E+02 -1.34546E+03 -4.61820E+02  8.35143E+02 -4.89713E+02
 -1.25315E+03 -8.79583E+02  2.70043E+02 -1.39968E+03  7.48002E+02  4.11800E+02 -1.17211E+03  1.58631E+03
 -1.67113E+03  4.81490E+02 -1.39792E+03 -1.93278E+03  2.85107E+02 -1.22459E+03  7.17602E+02 -5.75665E+02
 -2.71039E+02 -1.57896E+02 -1.84526E+02  3.12810E+01  9.69881E+02  2.02078E+02  3.65818E+01  1.31046E+03
 -3.08918E+02 -6.55648E+02  8.53303E+02 -8.40663E+01  1.89117E+02 -4.15337E+02  2.44820E+03 -7.42728E+02
  8.21805E+02  1.40741E+03  1.38171E+03 -2.78053E+02  1.91609E+03  1.78409E+03  2.54588E+02  1.27860E+03
 -1.18181E+03  3.35034E+02 -9.35253E+02 -9.86246E+00  7.81335E+02  7.62973E+00  2.56249E+02 -1.54086E+02
  1.30468E+03 -4.92065E+02  1.20366E+03 -1.70964E+02 -2.60749E+02  1.79523E+03  1.88648E+03  3.41563E+02
 -1.11728E+02  7.67662E+02  5.42282E+02 -4.27763E+02 -6.23356E+01  1.02979E+03 -1.72343E+02 -1.49397E+02
 -3.76137E+02  1.28912E+03 -1.41782E+03  6.81955E+02 -6.53889E+02  2.18508E+02 -1.99280E+03  2.33639E+02
 -1.90314E+03 -1.58482E+03 -1.80594E+02 -2.21456E+03 -1.38084E+00 -3.11121E+03  2.15006E+03 -1.88158E+03
  2.00688E+03 -7.10566E+02 -2.74275E+01  1.00753E+03 -1.40165E+02  5.91201E+02 -3.67332E+02  1.63941E+03
 -7.23736E+02  1.05746E+03  1.30002E+00  7.99953E+01  6.84935E+01  6.15775E+02 -9.88517E+02  2.68086E+02
 -9.33239E+02  1.62164E+02 -6.77581E+02  3.03268E+02  4.85332E+01 -1.25846E+03 -4.41295E+02 -1.69122E+01
  1.52125E+02 -4.24461E+02  8.09978E+02  9.54608E+00  8.03587E+02  1.04551E+03 -4.71126E+02  1.42181E+03
 -6.23929E+02  1.83354E+03 -7.24873E+02  2.30604E+02  1.72841E+02 -5.72904E+02 -6.25593E+02 -9.22439E+02
 -4.07354E+02 -1.11869E+03 -1.61009E+02  5.49583E+01  2.08800E+02  4.63269E+02  2.96454E+02  3.71104E+02
  7.53442E+02  1.88159E+01  4.19996E+02  1.68438E+03  3.18362E+02 -4.40509E+02  9.33304E+02 -8.17154E+02
  4.26517E+02 -5.66037E+02 -2.67588E+02  8.74256E+01  5.23057E+02  7.73780E+01  2.02903E+02  2.74878E+02
 -7.78175E+02  3.87808E+01 -3.15757E+02 -7.23694E+02 -5.43904E+02 -9.18771E+02 -4.54349E+02  3.78508E+02
  2.30308E+02  2.06467E+02  2.01243E+02  3.74499E+02  4.44727E+02 -2.88221E+02  8.85754E+01  9.19988E+02
 -2.00972E+01  7.86526E+02  2.34278E+02  6.13021E+02 -1.90452E+02  4.93576E+02  3.57062E+02  1.48816E+02
 -1.48767E+01 -8.57842E+01 -8.68339E+01  5.17260E+02 -1.68169E+03 -1.09116E+02 -3.51399E+02 -4.79503E+02
 -4.59219E+02  2.58648E+02 -4.91930E+02  5.87847E+02  5.11386E+02 -1.47810E+03  1.61921E+03 -4.47412E+02
  4.14535E+02  2.09364E+03 -8.50074E+01 -7.10525E+02  7.41784E+02  6.30949E+02  7.64685E+02 -7.92523E+01
