 $NMID ID='MM_0lb_SNR200_10hz_g55_6.RAW', FMTDAT='(8E13.5)'
 TRAMP=1., VOLUME=1. $END
  3.09521E+05  7.13845E+02  3.37671E+05  2.51277E+05  8.49528E+04  3.37559E+05 -1.33442E+05  2.51624E+05
 -1.92515E+05  8.39766E+04 -1.11876E+05 -3.09367E+04  6.75342E+02 -5.02524E+04  5.39020E+04 -1.18126E+03
  3.52384E+04  5.28810E+04 -1.68200E+04  7.58843E+04 -6.04316E+04  6.47708E+04 -8.43124E+04  3.10973E+04
 -8.21854E+04 -1.21786E+04 -5.68722E+04 -5.26013E+04 -1.62647E+04 -7.01455E+04  2.79010E+04 -4.65045E+04
  4.14229E+04  4.65048E+03  1.60024E+04  4.88636E+04 -3.48954E+04  4.89797E+04 -6.70141E+04  8.86565E+02
 -5.53279E+04 -5.71059E+04 -7.07019E+03 -7.76823E+04  3.32254E+04 -5.78194E+04  5.02451E+04 -1.76108E+04
  4.45677E+04  1.12932E+04  3.22814E+04  2.70920E+04  1.47400E+04  2.96097E+04 -5.96534E+03  2.74068E+04
 -2.20941E+04  1.10003E+04 -1.81992E+04 -6.30704E+03  6.10336E+03 -7.53235E+03  2.43815E+04  1.47302E+04
  8.59941E+03  3.74762E+04 -3.21723E+04  3.57850E+04 -6.37436E+04  1.52824E+03 -5.85188E+04 -4.49201E+04
 -1.33183E+04 -6.48995E+04  4.21125E+04 -4.87383E+04  6.04382E+04 -2.03656E+03  3.68084E+04  3.29769E+04
 -6.75479E+03  3.87112E+04 -3.05551E+04  1.79213E+04 -3.26813E+04 -4.92581E+03 -1.89082E+04 -1.14010E+04
 -9.62197E+03 -1.52348E+04 -1.29825E+03 -1.93526E+04  7.50789E+03 -2.27427E+04  1.55709E+04 -1.23789E+04
  1.20010E+04  7.61808E+03 -9.36927E+03  1.26608E+04 -2.24762E+04 -5.72635E+03 -7.85629E+03 -3.62418E+04
  2.65572E+04 -4.69378E+04  5.18915E+04 -1.97402E+04  4.87342E+04  2.16061E+04  1.58656E+04  4.81523E+04
 -1.62561E+04  3.49155E+04 -2.80690E+04  2.16417E+03 -1.11793E+04 -2.90722E+04  2.20239E+04 -3.69953E+04
  4.57023E+04 -1.07689E+04  3.92961E+04  2.55046E+04  2.08983E+04  5.23640E+04 -8.58574E+03  5.46524E+04
 -3.53375E+04  3.81459E+04 -4.63272E+04  1.04937E+04 -4.72532E+04 -1.94166E+04 -2.61170E+04 -4.26147E+04
  8.36221E+03 -4.14513E+04  3.36240E+04 -1.87262E+04  3.02316E+04  1.25334E+04  3.99121E+03  2.00396E+04
 -1.24867E+04  9.46764E+03 -1.14449E+04 -8.20657E+03  5.17141E+03 -1.26289E+04  1.87721E+04  4.90585E+03
  1.36381E+04  2.09274E+04 -3.83785E+03  2.55238E+04 -2.25285E+04  1.44322E+04 -3.20615E+04 -2.83502E+03
 -2.38091E+04 -1.83027E+04 -1.21690E+04 -2.43172E+04  4.28503E+03 -2.50218E+04  1.83384E+04 -2.18470E+04
  3.11561E+04 -1.44690E+04  3.79526E+04  5.69176E+03  2.68889E+04  2.38505E+04  3.93813E+03  3.99759E+04
 -1.79736E+04  3.28899E+04 -3.00360E+04  1.17515E+04 -2.12969E+04 -9.94602E+03 -5.13785E+03 -1.29033E+04
 -5.05569E+02 -9.96736E+02 -6.40412E+03  8.33727E+03 -2.07453E+04  5.83972E+03 -1.99594E+04 -9.97593E+03
 -1.21526E+04 -2.36962E+04  6.24062E+03 -2.73305E+04  1.88234E+04 -1.92186E+04  2.16598E+04 -1.70274E+03
  1.34623E+04  1.58507E+04  3.88191E+02  2.41865E+04 -1.76770E+04  1.49531E+04 -2.31306E+04 -3.93087E+03
 -1.66142E+04 -2.01407E+04 -1.43829E+03 -2.93315E+04  1.29427E+04 -2.38864E+04  2.21449E+04 -1.19597E+04
  2.08352E+04 -2.69400E+02  1.53160E+04  5.08361E+03  8.60706E+03  2.23826E+03  1.23303E+04 -2.32685E+03
  2.14289E+04  3.52635E+03  2.51055E+04  1.66718E+04  1.44656E+04  3.71549E+04 -8.52932E+02  4.21883E+04
 -2.47194E+04  3.55117E+04 -3.94898E+04  1.70015E+04 -4.31662E+04 -1.91984E+03 -3.60804E+04 -2.43613E+04
 -1.27372E+04 -3.54248E+04  1.34726E+04 -3.12594E+04  2.61813E+04 -1.54653E+04  2.39101E+04  7.65765E+03
  9.14656E+03  1.87261E+04 -1.11865E+04  1.45484E+04 -2.12210E+04  2.01481E+03 -1.55636E+04 -1.24877E+04
 -2.15053E+02 -1.75502E+04  9.72198E+03 -1.46146E+04  1.41387E+04 -2.73063E+03  5.36899E+03  9.34362E+03
 -8.63701E+03  3.66389E+03 -8.92861E+03 -6.74973E+03 -1.87777E+03 -1.92841E+04  1.09437E+04 -1.89032E+04
  2.23141E+04 -1.20420E+04  2.46775E+04  4.85473E+03  2.18931E+04  1.81061E+04  1.00681E+04  2.89008E+04
 -3.98999E+03  3.00809E+04 -1.95823E+04  1.82854E+04 -2.06624E+04  3.36041E+03 -1.48154E+04 -4.87743E+03
 -6.26264E+03 -8.48750E+03 -2.03172E+03  1.31854E+03 -1.35745E+03  3.26478E+03 -7.60312E+03  4.99554E+03
 -1.53805E+04 -8.96719E+02 -1.44494E+04 -1.15328E+04 -5.17818E+03 -1.84067E+04  4.75941E+03 -1.60166E+04
  1.18818E+04 -6.32261E+03  9.57896E+03  3.36484E+03 -6.34857E+02  4.40861E+03 -6.36039E+03  9.25728E+02
 -8.17303E+03 -8.86590E+03 -1.35049E+03 -1.60011E+04  8.96163E+03 -1.62383E+04  2.00054E+04 -7.93197E+03
  2.38103E+04  3.89976E+03  1.75872E+04  1.34590E+04  2.34612E+03  1.78273E+04 -9.97398E+03  1.45746E+04
 -1.10991E+04  5.16635E+03 -6.70084E+03 -2.98505E+03  1.89858E+03 -4.39112E+03  6.98212E+03 -9.00947E+01
  6.67338E+03  7.36097E+03  5.34899E+02  1.20957E+04 -7.91468E+03  1.24837E+04 -1.59741E+04  2.39486E+03
 -1.01070E+04 -9.19847E+03  3.51067E+02 -1.25429E+04  9.96309E+03 -6.46583E+03  7.06219E+03  1.83816E+03
  2.12734E+03  9.40731E+03 -8.16621E+03  1.05281E+04 -1.15047E+04  4.77577E+03 -1.35456E+04 -2.72703E+03
 -6.57711E+03 -1.44419E+04  4.07915E+03 -1.66836E+04  1.47811E+04 -1.02004E+04  1.50179E+04  3.17765E+03
  1.08284E+04  1.32340E+04 -1.99935E+03  1.50433E+04 -1.20211E+04  8.99031E+03 -1.28197E+04 -1.29086E+03
 -9.79428E+03 -1.03682E+04 -1.01546E+03 -9.84251E+03  5.65419E+03 -8.20602E+03  8.16615E+03 -4.21350E+03
  4.57943E+03  8.91223E+02 -1.24296E+03  5.47711E+02  7.03733E+02 -3.72311E+03  1.99097E+03 -7.91704E+03
  1.03447E+04 -5.32464E+03  1.42147E+04  1.32246E+03  1.43660E+04  1.20063E+04  1.07478E+04  2.04587E+04
 -6.24271E+03  2.27712E+04 -1.81991E+04  1.64273E+04 -2.47583E+04  3.86085E+03 -1.87695E+04 -9.01512E+03
 -8.95543E+03 -1.55571E+04  5.51380E+02 -1.36751E+04  5.03301E+03 -8.64789E+03  5.41854E+03 -7.18067E+03
  5.02993E+03 -2.80769E+03  4.73028E+03 -4.74576E+03  5.64731E+03 -4.37891E+03  6.85686E+03 -3.19729E+02
  9.93490E+03  2.47931E+03  4.20280E+03  7.78144E+03 -2.40728E+03  9.60585E+03 -1.09031E+04  6.95921E+03
 -1.38436E+04 -1.15394E+03 -9.69947E+03 -8.89820E+03 -2.76401E+02 -1.41636E+04  8.17543E+03 -1.60536E+04
  1.68426E+04 -9.62471E+03  1.84014E+04  2.27757E+03  1.26238E+04  1.32255E+04  2.15020E+03  1.69806E+04
 -5.72367E+03  1.23899E+04 -1.00240E+04  5.10247E+03 -7.33153E+03 -3.32875E+03 -3.04734E+03 -2.83754E+03
 -2.04107E+03 -6.97715E+02 -3.07818E+03  2.83870E+03 -5.42995E+03  1.81209E+03 -8.38811E+03 -3.05615E+03
 -5.79630E+03 -9.38257E+03  3.66709E+02 -1.24980E+04  8.40351E+03 -1.31382E+04  1.42601E+04 -3.96812E+03
  1.41232E+04  6.10460E+03  5.36943E+03  1.15014E+04 -2.19465E+03  1.32948E+04 -1.04764E+04  7.76202E+03
 -1.11035E+04 -7.09570E+01 -1.03194E+04 -8.95156E+03 -7.32817E+02 -1.07767E+04  6.04305E+03 -7.83678E+03
  7.21292E+03 -3.63081E+03  5.68590E+03  2.18841E+03  2.52431E+03  5.12990E+03  1.00110E+03  1.68033E+03
  2.98659E+03  1.82540E+03  3.91682E+03  1.97734E+03  4.99313E+03  5.23753E+03  4.25089E+03  6.43969E+03
 -1.66058E+03  9.72896E+03 -8.92015E+03  1.06125E+04 -1.51972E+04  1.74248E+03 -1.43126E+04 -6.35024E+03
 -7.40697E+03 -1.46248E+04  1.64468E+03 -1.49559E+04  8.50673E+03 -8.34929E+03  1.17387E+04 -2.57129E+03
  9.26955E+03  5.04528E+03  1.20122E+03  8.04419E+03 -3.72065E+03  3.39579E+03 -5.89078E+03 -2.13937E+03
 -8.77082E+02 -5.91496E+03  2.87566E+03 -5.09813E+03  5.12250E+03 -3.74585E+03  6.75718E+03  1.05335E+03
  3.58451E+03  4.01029E+03  1.25980E+03  2.53706E+03 -1.04543E+03  2.27284E+03  2.82011E+03 -1.13119E+03
  7.52396E+02 -9.91722E+02  4.23364E+03  2.91242E+03  2.59351E+03  7.63060E+03 -8.41321E+01  1.08683E+04
 -5.99293E+03  7.40600E+03 -9.14785E+03  4.31867E+02 -7.92039E+03 -2.37540E+03 -2.42372E+03 -4.64878E+03
  1.21593E+03 -4.79485E+03  3.22079E+03 -2.93736E+03  5.08119E+03  1.95303E+03 -1.14172E+03  4.46871E+03
 -6.39222E+03  2.17598E+03 -3.46994E+03 -3.82694E+03 -4.34745E+03 -7.42877E+03  1.52828E+03 -7.70377E+03
  2.89249E+03 -5.66674E+03  5.13836E+03 -5.13861E+02  5.57124E+03  1.72734E+02  2.64828E+02  4.75152E+03
 -2.72908E+03  1.50810E+03 -3.21738E+03 -1.38380E+03  2.92080E+03 -4.53735E+03  6.08504E+03 -5.74427E+03
  8.14872E+03 -1.80505E+02  8.91786E+03  6.36787E+03  2.96161E+03  8.36785E+03 -2.73547E+03  8.71780E+03
 -5.53278E+03  3.41044E+03 -8.18513E+03 -1.88731E+03 -3.39970E+03 -6.09311E+03  1.40279E+03 -4.61700E+03
  5.20935E+03 -2.95979E+03  5.12491E+03  1.59432E+03  4.34215E+02  5.13468E+03  9.14725E+02  3.36652E+03
 -2.02867E+03  1.55401E+03 -2.98350E+03 -4.82562E+02 -1.43791E+03  7.69564E+02 -2.04825E+02  2.69414E+03
 -1.35840E+03  3.34008E+03 -5.75318E+03  2.66050E+03 -9.24431E+03 -9.59086E+02 -9.52480E+03 -6.73740E+03
 -4.60748E+03 -1.20860E+04  6.95258E+02 -1.23853E+04  7.98775E+03 -9.47779E+03  1.20879E+04 -5.25252E+03
  1.28716E+04  2.06987E+03  6.09705E+03  8.91558E+03  2.28448E+02  8.96771E+03 -3.75361E+03  6.15537E+03
 -5.20059E+03  1.84054E+03 -2.53480E+03  6.89623E+02 -2.80234E+02 -5.94806E+02  3.00732E+02  8.43959E+02
 -2.86324E+03 -1.61389E+03 -1.11427E+03 -1.19161E+02 -2.86961E+02 -2.32699E+03 -1.28606E+03 -2.78553E+03
  4.44315E+03 -3.63393E+03  6.07022E+03  1.50428E+03  7.17930E+03  4.46612E+03  1.87290E+03  8.60535E+03
 -4.76720E+03  1.00719E+04 -9.32124E+03  5.56528E+03 -1.11811E+04 -1.59093E+03 -7.81812E+03 -6.97433E+03
 -3.60850E+03 -9.88016E+03  2.85674E+03 -8.59831E+03  5.62875E+03 -4.86030E+03  7.05488E+03  1.46030E+03
  2.26393E+03  3.06528E+03 -4.50621E+02  3.99657E+02 -1.63934E+03 -1.46400E+03  1.19826E+03 -1.35694E+03
  3.36906E+03 -1.27336E+03  2.50908E+03  1.54913E+03  2.28534E+03  2.82741E+03  1.69825E+03  4.21208E+03
 -3.82381E+03  3.28648E+03 -6.82996E+03  6.43361E+02 -5.33705E+03 -4.90420E+03 -9.98394E+02 -7.47751E+03
  5.24220E+03 -7.35961E+03  5.23510E+03 -1.63206E+03  7.55073E+03  1.61001E+03  4.06768E+03  4.78181E+03
  2.15336E+03  6.53973E+03 -2.42783E+03  4.30822E+03 -4.30161E+03  3.06603E+03 -4.27837E+03 -4.07372E+02
 -1.28572E+03 -5.19241E+02 -6.99672E+02  1.19277E+02 -3.56865E+03  2.30241E+03 -4.93383E+03 -5.07586E+02
 -4.49448E+03 -4.40547E+03 -1.66594E+03 -5.93682E+03  4.67809E+03 -4.75097E+03  6.31275E+03 -3.68361E+03
  6.68253E+03 -1.14409E+03  3.33089E+03  2.93410E+03 -2.89545E+02  4.63468E+03 -4.15869E+03  4.83840E+03
