 $NMID ID='MM_0lb_SNR200_20hz_g45_68.RAW', FMTDAT='(8E13.5)'
 TRAMP=1., VOLUME=1. $END
  3.10529E+05 -1.75542E+02  3.37496E+05  2.50651E+05  8.47385E+04  3.37692E+05 -1.32376E+05  2.50117E+05
 -1.89498E+05  8.20544E+04 -1.10894E+05 -3.26463E+04  1.52485E+03 -5.04603E+04  5.49375E+04  6.02067E+02
  3.47985E+04  5.24905E+04 -1.78175E+04  7.44103E+04 -6.09479E+04  6.23058E+04 -8.24853E+04  3.12401E+04
 -7.87290E+04 -1.00293E+04 -5.47477E+04 -4.96149E+04 -1.43931E+04 -6.82231E+04  2.66543E+04 -4.37580E+04
  3.89802E+04  4.55069E+03  1.52114E+04  4.74451E+04 -3.46072E+04  4.53136E+04 -6.42612E+04 -5.71533E+02
 -5.18743E+04 -5.58450E+04 -6.61135E+03 -7.49582E+04  3.29929E+04 -5.30171E+04  4.41921E+04 -1.54940E+04
  4.16386E+04  1.20801E+04  3.10620E+04  2.43865E+04  1.51786E+04  2.80771E+04 -4.55765E+03  2.65737E+04
 -2.08777E+04  1.29709E+04 -1.94450E+04 -3.90195E+03  2.79793E+03 -7.48451E+03  2.12391E+04  1.05209E+04
  7.27030E+03  3.31294E+04 -3.06034E+04  3.30533E+04 -6.04113E+04  2.35773E+03 -5.57436E+04 -4.11381E+04
 -1.22434E+04 -5.93177E+04  3.70264E+04 -4.26743E+04  5.40620E+04 -2.27135E+03  3.02364E+04  2.93482E+04
 -6.47485E+03  3.15534E+04 -2.83202E+04  1.23042E+04 -2.67565E+04 -5.69977E+03 -1.38385E+04 -8.80341E+03
 -7.50433E+03 -1.14611E+04 -3.81018E+02 -1.58333E+04  4.96690E+03 -2.22671E+04  1.44705E+04 -1.35416E+04
  1.26224E+04  3.13376E+03 -5.61782E+03  1.36615E+04 -1.77637E+04 -1.72511E+03 -8.35714E+03 -2.93595E+04
  2.02064E+04 -3.93720E+04  4.35407E+04 -1.83304E+04  4.07765E+04  1.65970E+04  1.38745E+04  4.16654E+04
 -1.55141E+04  3.04336E+04 -2.35098E+04  7.88953E+02 -7.31008E+03 -2.63498E+04  1.94109E+04 -3.00531E+04
  3.84363E+04 -6.67879E+03  3.04413E+04  2.19222E+04  1.51333E+04  4.07141E+04 -6.83512E+03  4.18703E+04
 -2.63881E+04  2.84607E+04 -3.53666E+04  7.28826E+03 -3.67359E+04 -1.38864E+04 -2.00390E+04 -3.24192E+04
  6.23389E+03 -3.31304E+04  2.77531E+04 -1.25218E+04  2.54828E+04  9.98689E+03  2.94378E+03  1.68627E+04
 -1.20791E+04  7.03139E+03 -1.01011E+04 -7.37290E+03  5.67666E+03 -1.01124E+04  1.67819E+04  5.73214E+03
  1.17281E+04  2.11794E+04 -6.46517E+03  2.30979E+04 -2.04359E+04  8.39721E+03 -2.42712E+04 -7.13926E+03
 -1.50620E+04 -1.64404E+04 -5.05293E+03 -1.58409E+04  3.99758E+03 -1.35372E+04  1.09915E+04 -1.31989E+04
  1.96469E+04 -1.15249E+04  2.62657E+04  2.95154E+02  2.00973E+04  1.51629E+04  4.55446E+03  3.11033E+04
 -1.52321E+04  2.71841E+04 -2.52697E+04  9.31766E+03 -1.85668E+04 -1.02221E+04 -3.45306E+03 -1.51544E+04
  3.02722E+03 -4.51758E+03 -2.01898E+03  4.79203E+03 -1.19451E+04  5.85178E+03 -1.20714E+04 -4.31839E+03
 -8.36491E+03 -1.48941E+04  4.35664E+03 -1.74170E+04  1.12495E+04 -1.36912E+04  1.41922E+04 -1.60274E+03
  8.37182E+03  9.53292E+03 -7.93168E+02  1.46335E+04 -9.03091E+03  8.89614E+03 -1.38119E+04 -3.44534E+03
 -1.03300E+04 -1.34925E+04 -1.05663E+03 -1.74421E+04  7.81996E+03 -1.41444E+04  1.52272E+04 -6.13511E+03
  1.33462E+04  2.08161E+02  9.92872E+03  4.21541E+03  4.42470E+03 -4.51585E+02  8.50121E+03 -9.32665E+02
  1.32868E+04  2.02026E+03  1.38287E+04  1.07229E+04  8.28257E+03  2.24711E+04 -3.03810E+03  2.41286E+04
 -1.52897E+04  1.74519E+04 -2.06042E+04  8.86187E+03 -2.26268E+04 -2.18413E+03 -1.88598E+04 -1.16345E+04
 -9.24308E+03 -1.91564E+04  5.80785E+03 -1.70449E+04  1.53262E+04 -9.90780E+03  1.46029E+04  3.18184E+03
  6.23437E+03  9.87752E+03 -6.54962E+03  9.66565E+03 -1.19067E+04  2.73858E+03 -1.09827E+04 -7.00417E+03
  3.66270E+02 -1.18590E+04  6.10638E+03 -9.45229E+03  6.05632E+03 -1.55574E+03  9.77691E+02  3.78977E+03
 -5.22208E+03  1.13389E+03 -3.29351E+03 -5.46086E+03  1.56647E+03 -8.24848E+03  7.28379E+03 -8.52891E+03
  1.11566E+04 -3.39537E+03  1.09820E+04  2.97077E+03  8.17311E+03  8.28893E+03  4.35958E+03  1.22497E+04
 -7.09422E+02  1.40370E+04 -7.64755E+03  8.26688E+03 -1.03372E+04  3.05556E+03 -6.32492E+03 -1.07686E+03
 -3.26090E+03 -3.50835E+03 -7.51514E+02  2.70749E+03 -2.74868E+03  1.61076E+03 -1.63239E+03  2.55827E+03
 -7.49298E+03  3.62625E+02 -8.01547E+03 -6.01229E+03 -2.39050E+03 -1.02854E+04  2.66185E+03 -8.64673E+03
  7.40037E+03 -2.94667E+03  3.79055E+03  1.69214E+03  1.13937E+03  2.20232E+03 -2.35093E+03  9.63267E+02
 -3.24924E+03 -4.82001E+03 -4.04814E+02 -5.94547E+03  3.75280E+03 -6.94900E+03  9.13271E+03 -3.11064E+03
  1.01330E+04  1.00794E+03  6.94479E+03  4.87632E+03  3.33841E+02  7.08092E+03 -5.30472E+03  7.05226E+03
 -6.56554E+03  3.42296E+03 -2.81564E+03  1.31901E+02  1.81981E+02 -1.93897E+03  5.26372E+03 -6.48721E+02
  4.48086E+03  3.51187E+03  1.08334E+03  5.82999E+03 -4.28012E+03  5.87277E+03 -6.95246E+03  1.63845E+03
 -4.01963E+03 -3.90885E+03  5.68334E+02 -6.12982E+03  3.01931E+03 -2.56490E+03  3.10786E+03  1.04832E+03
  4.58175E+02  3.02597E+03 -4.12433E+03  4.38686E+03 -3.85272E+03  1.86328E+03 -3.10193E+03  1.54866E+02
 -1.66699E+03 -5.24980E+03  1.04281E+03 -5.46096E+03  4.93728E+03 -3.40925E+03  5.60903E+03  6.58939E+02
  4.53362E+03  4.59548E+03  6.24873E+02  7.50564E+03 -4.39957E+03  4.30478E+03 -3.32784E+03 -4.44797E+02
 -5.78145E+03 -4.46308E+03 -1.19087E+03 -4.51358E+03  2.26397E+03 -4.39184E+03  1.82426E+03 -2.55493E+03
  2.10066E+03 -6.44283E+02  2.95037E+01  7.76945E+02  4.55644E+02 -3.35706E+02 -2.96580E+02 -4.22970E+02
  2.93368E+03 -2.93500E+02  2.60445E+03  4.35249E+02  3.99895E+03  1.67013E+03  4.35302E+03  6.13347E+03
 -7.00259E+02  7.60410E+03 -6.90092E+03  5.35145E+03 -7.92434E+03  2.75304E+02 -5.93362E+03 -1.03993E+03
 -3.45704E+03 -5.88068E+03 -1.42940E+03 -3.97823E+03  1.39958E+03 -1.68315E+03  1.32562E+03 -1.37819E+03
  1.96103E+03 -1.72142E+03  1.99696E+03 -2.43369E+03  2.84747E+03 -1.65616E+03  3.25867E+03  4.76116E+01
  4.19701E+03  1.41392E+03  1.96925E+01  2.98638E+03 -5.87642E+02  1.92530E+03 -3.43742E+03  2.33259E+03
 -4.32164E+03 -1.80472E+03 -1.38269E+03 -2.26421E+03  2.49720E+02 -4.14484E+03  3.12804E+03 -4.25724E+03
  4.88857E+03 -2.54337E+03  5.61414E+03 -1.52280E+01  3.33075E+03  2.87929E+03  7.85421E+02  4.52951E+03
 -1.62924E+03  5.28771E+03 -2.52031E+03  1.80526E+03 -1.58180E+03 -1.20445E+03 -7.54109E+02 -5.57544E+02
 -1.56479E+02  1.08825E+03 -3.10869E+02  3.28591E+03 -1.88328E+03  6.28306E+02 -3.98615E+03  1.54166E+02
 -6.29689E+02 -2.62387E+03  1.37626E+03 -4.11178E+03  2.59092E+03 -4.44762E+03  3.00403E+03 -1.50167E+03
  2.45935E+03  2.55489E+03  1.84733E+03  3.17131E+03 -9.97175E+02  3.52005E+03 -1.97378E+03  3.01519E+03
 -3.32053E+03  7.18724E+02 -2.54109E+03 -2.40258E+03 -3.31540E+02 -2.42488E+03  1.17632E+03 -1.27050E+03
  2.39008E+03 -2.08407E+03  2.71590E+03  1.12409E+02 -6.95895E+01  1.59959E+03  1.81269E+03  1.96019E+01
  1.93317E+03 -1.02523E+02  1.08471E+03  5.06708E+02  1.46968E+03  2.56930E+03  1.56037E+03  1.43745E+03
 -3.34841E+02  1.46364E+03 -2.60373E+03  2.96548E+03 -1.77113E+03  1.48786E+03 -3.67007E+03  2.30619E+02
 -2.69849E+03 -2.52048E+03 -7.99881E+01 -3.46892E+03  3.05211E+02 -1.88670E+03  1.41813E+03  2.35591E+02
  2.29851E+03  1.40488E+03  1.78215E+03  2.04407E+03  2.62421E+02  1.11397E+03 -1.00967E+03 -3.77503E+02
 -8.06273E+02 -4.67066E+02  3.51607E+02 -1.44467E+03  8.46693E+02 -6.19589E+02  4.31836E+02  8.21609E+01
  7.93404E+02  2.21982E+02 -5.73364E+02 -3.92482E+02 -7.03795E+02  8.80250E+02  1.61086E+03  4.23151E+02
 -6.04449E+02 -7.77934E+01  1.06372E+03  2.14718E+01  2.98666E+02  2.35785E+03  1.54994E+02  2.77114E+03
 -2.08963E+03  8.02035E+02 -1.48753E+03 -1.81711E+02 -1.69164E+03 -1.49280E+03  3.52455E+02 -5.45438E+02
  1.26987E+03 -5.13258E+02  1.25705E+03 -3.02154E+02  2.16345E+02  4.05001E+02 -1.43983E+03  6.00575E+02
 -1.47913E+03  4.11731E+02 -1.03147E+03 -6.41361E+02 -5.99268E+01 -9.49285E+02  2.96264E+02 -1.12753E+03
 -9.88259E+02 -5.79186E+02 -5.99457E+02  6.21787E+02  3.64453E+02 -4.10221E+02  9.95704E+02  1.20182E+03
  3.09059E+02  3.70916E+02 -8.11007E+02 -4.45435E+02  1.43683E+02  3.41108E+00  1.71607E+03 -4.52694E+02
  1.66656E+03 -1.78808E+02  3.38485E+03  6.75685E+02  1.43648E+03  1.04219E+03  3.05201E+01  1.47090E+03
 -1.06214E+03  1.03260E+02 -1.19663E+03  2.98567E+02 -1.05093E+03 -1.10658E+03  1.41767E+03 -3.47186E+02
  8.55449E+02 -2.90680E+02  1.83007E+02  1.68241E+03  2.84320E+02  8.41897E+02  1.45190E+03 -9.50562E+01
 -4.89774E+02  2.44821E+03  2.76811E+01  2.11530E+02  6.66496E+01  2.59235E+02  1.13309E+02 -5.72808E+02
 -1.50533E+02  8.40386E+02 -9.63014E+02 -6.19319E+02 -1.07458E+03 -2.61858E+02 -3.12951E+02 -3.68444E+02
 -1.46783E+03 -1.42303E+03  8.19700E+02 -2.43273E+03  5.49925E+02 -1.98221E+03  2.17414E+03 -1.16794E+03
  1.35799E+03 -8.86400E+02  1.33541E+02  1.55685E+03 -6.94078E+02  1.18051E+03 -9.51705E+02  9.60042E+02
 -9.22522E+02  6.84839E+02 -1.38852E+03  6.26747E+02 -3.79163E+02 -5.06038E+01 -8.01333E+02 -9.15737E+02
 -1.01982E+03 -9.50971E+01 -2.55130E+02  7.06768E+02  2.73019E+02 -1.81813E+02 -1.71169E+03 -1.75311E+03
  1.06769E+02 -7.49875E+02  1.63551E+03  9.83599E+02  1.80239E+03  1.05835E+03 -9.93204E+02  1.38581E+03
 -1.02964E+03  7.73910E+02 -1.33110E+03  1.18963E+03 -9.53575E+02 -1.03021E+03 -9.76490E+02 -5.10504E+02
 -1.69803E+03 -9.21708E+02 -5.98334E+02 -2.15592E+03  1.01350E+03  6.31949E+02 -3.91328E+01  1.07419E+02
  2.49524E+02 -1.80546E+02 -1.80413E+03  4.28211E+02 -9.41229E+02  1.21900E+02 -1.99338E+02  3.29668E+02
  2.41184E+02 -1.20413E+02 -9.14316E+02  5.67154E+02  4.52547E+01 -1.25682E+02 -1.87448E+01 -3.53291E+02
 -5.61914E+02 -4.95130E+02 -2.64124E+02 -4.43323E+02 -2.86362E+02  1.60012E+02  4.39187E+02 -1.69541E+03
  4.57550E+02 -7.98680E-01 -1.47603E+03  4.71108E+02  3.99711E+02 -7.05065E+02  1.27749E+02  1.49228E+03
  4.06540E+02 -6.32896E+02 -2.15898E+02  4.88166E+02 -2.70929E+02  1.24740E+02 -3.47097E+02  2.04286E+02
  1.80956E+02 -3.45804E+02 -7.63576E+01  1.60764E+02  8.60870E+01  1.55201E+03 -6.37933E+01  4.46856E+02
 -4.88501E+01  5.52790E+02  1.16003E+03 -8.66776E+02  2.94337E+02 -2.28710E+03  9.96667E+02 -1.46980E+02
 -1.70476E+01  2.90827E+02 -6.76733E+02 -4.51293E+02 -5.02176E+02  6.37423E+02  2.53213E+02  3.35742E+02
