 $NMID ID='MM_0lb_SNR200_20hz_g45_8.RAW', FMTDAT='(8E13.5)'
 TRAMP=1., VOLUME=1. $END
  3.09645E+05 -5.13908E+02  3.37474E+05  2.50080E+05  8.49246E+04  3.37985E+05 -1.32583E+05  2.49712E+05
 -1.88939E+05  8.33714E+04 -1.09939E+05 -3.20514E+04  1.35505E+03 -4.93898E+04  5.29481E+04  5.15979E+01
  3.42397E+04  5.37049E+04 -1.70386E+04  7.49635E+04 -6.02775E+04  6.27151E+04 -8.30581E+04  3.03336E+04
 -7.86193E+04 -1.19663E+04 -5.59109E+04 -4.96823E+04 -1.62607E+04 -6.74976E+04  2.62127E+04 -4.42147E+04
  3.79889E+04  3.34827E+03  1.49990E+04  4.70306E+04 -3.40746E+04  4.58581E+04 -6.57793E+04 -1.07966E+03
 -5.15133E+04 -5.46380E+04 -5.92731E+03 -7.62079E+04  3.28958E+04 -5.37280E+04  4.56838E+04 -1.50658E+04
  4.18009E+04  9.85452E+03  2.98812E+04  2.36878E+04  1.58009E+04  2.78943E+04 -5.13365E+03  2.64275E+04
 -2.11940E+04  1.26712E+04 -1.97620E+04 -4.09089E+03  3.70592E+03 -7.35905E+03  2.10274E+04  9.68843E+03
  7.01036E+03  3.22517E+04 -3.00048E+04  3.31143E+04 -6.02953E+04  2.83559E+03 -5.50924E+04 -4.10513E+04
 -1.23081E+04 -5.98343E+04  3.75923E+04 -4.23175E+04  5.44050E+04 -3.62741E+02  3.17246E+04  2.96237E+04
 -6.66280E+03  3.19129E+04 -2.78035E+04  1.28350E+04 -2.63167E+04 -5.99053E+03 -1.21822E+04 -1.02126E+04
 -6.71611E+03 -1.09542E+04 -3.93741E+02 -1.61848E+04  6.99863E+03 -2.25481E+04  1.47430E+04 -1.37834E+04
  1.37490E+04  4.18162E+03 -6.35794E+03  1.33138E+04 -1.91808E+04 -1.13069E+03 -7.91144E+03 -2.95861E+04
  2.14659E+04 -3.86204E+04  4.35592E+04 -1.70912E+04  3.99089E+04  1.80821E+04  1.42698E+04  4.16162E+04
 -1.45394E+04  3.10230E+04 -2.30055E+04  1.40759E+03 -8.87220E+03 -2.63367E+04  2.04681E+04 -3.05219E+04
  3.66587E+04 -6.38145E+03  2.92845E+04  2.12696E+04  1.45335E+04  4.18905E+04 -6.53307E+03  4.41377E+04
 -2.71225E+04  2.80240E+04 -3.50535E+04  7.40074E+03 -3.60651E+04 -1.44496E+04 -1.89842E+04 -3.29109E+04
  7.33600E+03 -3.24406E+04  2.91420E+04 -1.12110E+04  2.72090E+04  1.00118E+04  2.62015E+03  1.75772E+04
 -1.28996E+04  6.49702E+03 -9.69751E+03 -6.64209E+03  6.35259E+03 -1.02856E+04  1.63439E+04  6.24108E+03
  1.21209E+04  2.20838E+04 -6.78757E+03  2.19592E+04 -2.13798E+04  8.14888E+03 -2.28175E+04 -6.33598E+03
 -1.48769E+04 -1.57617E+04 -5.45638E+03 -1.68616E+04  3.35225E+03 -1.39958E+04  1.15266E+04 -1.29435E+04
  1.90902E+04 -1.16051E+04  2.59098E+04  6.93301E+02  2.05605E+04  1.46204E+04  4.77632E+03  3.09035E+04
 -1.50971E+04  2.62108E+04 -2.59367E+04  8.86550E+03 -1.87447E+04 -1.09494E+04 -3.38572E+03 -1.43591E+04
  3.64029E+03 -4.67708E+03 -1.41878E+03  4.78388E+03 -1.21573E+04  5.65243E+03 -1.23098E+04 -4.88402E+03
 -9.00601E+03 -1.52290E+04  3.57567E+03 -1.86607E+04  1.09859E+04 -1.34404E+04  1.31043E+04 -4.53017E+02
  8.40077E+03  1.01395E+04 -1.18970E+03  1.45337E+04 -9.66934E+03  8.45929E+03 -1.40877E+04 -4.03752E+03
 -1.07402E+04 -1.37641E+04 -2.78399E+03 -1.60697E+04  8.89613E+03 -1.47524E+04  1.48774E+04 -6.23733E+03
  1.36363E+04  8.99728E+02  1.05796E+04  3.67619E+03  4.49355E+03  5.06038E+02  7.15493E+03 -1.11140E+03
  1.24846E+04  2.20650E+03  1.33550E+04  1.21738E+04  7.44080E+03  2.24525E+04 -2.48824E+03  2.42316E+04
 -1.45669E+04  1.85748E+04 -2.14114E+04  8.04292E+03 -2.31599E+04 -2.00563E+03 -1.91794E+04 -1.22344E+04
 -9.10554E+03 -1.89851E+04  6.03304E+03 -1.71742E+04  1.44092E+04 -1.05880E+04  1.32067E+04  3.92761E+03
  6.73394E+03  9.56269E+03 -6.03382E+03  9.52394E+03 -1.14320E+04  2.19935E+03 -9.69847E+03 -7.38924E+03
  3.57030E+02 -1.19327E+04  5.67713E+03 -9.75220E+03  7.85191E+03 -8.92519E+02  1.79951E+03  4.69951E+03
 -6.08437E+03  1.41183E+03 -3.33827E+03 -4.05703E+03  3.93626E+02 -9.32105E+03  6.85936E+03 -1.00207E+04
  1.25318E+04 -3.74353E+03  1.00336E+04  2.51578E+03  8.11993E+03  9.67703E+03  3.72901E+03  1.19425E+04
 -1.55534E+03  1.46382E+04 -7.77476E+03  9.82691E+03 -1.08289E+04  2.12604E+03 -7.33719E+03 -1.90811E+03
 -5.09244E+03 -2.51804E+03 -7.37700E+02  2.66663E+03 -2.79780E+03  1.93203E+03 -2.70242E+03  4.09554E+03
 -6.83609E+03 -5.73587E+02 -8.96404E+03 -5.45513E+03 -2.85152E+03 -1.12206E+04  2.68472E+03 -6.92331E+03
  7.27699E+03 -3.74457E+03  5.75171E+03  2.69204E+03  7.10946E+02  2.53828E+03 -2.54067E+03 -4.01603E+02
 -3.08977E+03 -4.52240E+03 -1.93390E+02 -5.87109E+03  4.29330E+03 -6.49700E+03  8.34893E+03 -2.33006E+03
  1.00457E+04  9.91058E+02  8.19250E+03  5.14450E+03  1.23404E+03  8.50312E+03 -4.73952E+03  6.47876E+03
 -5.86030E+03  3.28064E+03 -3.41953E+03 -2.19247E+03  1.62694E+03 -1.48928E+03  3.45308E+03 -1.20081E+03
  3.64907E+03  1.85386E+03  1.08347E+03  4.48051E+03 -2.54549E+03  4.93183E+03 -7.59872E+03  1.25514E+03
 -4.85264E+03 -2.96730E+03  8.29374E+02 -5.08426E+03  4.11537E+03 -1.84330E+03  2.33185E+03  9.03790E+02
  1.60141E+03  3.71950E+03 -3.67561E+03  4.05447E+03 -2.95466E+03  2.86559E+03 -3.74535E+03 -6.90775E+02
 -2.70400E+03 -4.49489E+03  5.77637E+02 -5.81138E+03  4.14244E+03 -5.07970E+03  6.40315E+03  1.01113E+03
  4.68148E+03  5.51181E+03  1.16499E+03  6.36161E+03 -4.60920E+03  4.00331E+03 -4.64652E+03 -4.51861E+02
 -5.39259E+03 -4.71342E+03 -1.49522E+03 -4.07734E+03  1.87272E+03 -3.85839E+03  2.70551E+03 -1.28558E+03
  2.17400E+03 -3.40632E+02  2.15236E+01  1.21934E+03  5.39274E+02  3.98981E+02 -1.40492E+02 -1.62104E+03
  3.20640E+03 -9.28019E+02  3.09206E+03  7.76343E+02  4.22870E+03  1.19610E+03  4.97086E+03  4.89159E+03
 -7.35702E+01  6.54435E+03 -5.96711E+03  5.76732E+03 -7.47117E+03  8.73822E+01 -6.14567E+03 -2.06443E+03
 -3.86837E+03 -5.32401E+03 -4.91993E+02 -4.70590E+03  2.46712E+03 -5.05059E+02  1.70626E+03 -1.94296E+03
  1.18987E+03  4.34196E+02  1.99207E+03 -1.70890E+03  3.30429E+03 -5.24254E+02  2.48506E+03  6.56773E+02
  4.86533E+03  1.00666E+03  3.49757E+02  4.00010E+03 -1.20817E+03  2.30590E+03 -3.35554E+03  1.83630E+03
 -3.92914E+03 -7.11803E+02 -1.24759E+03 -2.78417E+03  1.19100E+03 -3.58181E+03  2.37554E+03 -4.20487E+03
  4.05982E+03 -2.86822E+03  5.42037E+03  1.16612E+02  3.31557E+03  2.56171E+03  3.43743E+02  4.50668E+03
 -2.67124E+03  4.60665E+03 -3.54689E+03  1.59635E+03 -2.32872E+03  2.27741E+02 -2.68805E+02 -3.85419E+02
 -3.44886E+02 -8.63216E+02 -9.60483E+02  1.85959E+03 -2.14130E+03  6.00897E+02 -3.38185E+03 -2.63182E+02
 -1.34011E+03 -3.89342E+03  4.63598E+02 -4.11642E+03  1.92193E+03 -3.05584E+03  2.79717E+03 -1.27519E+03
  2.99437E+03 -7.05209E+01  2.66041E+03  3.17834E+03 -2.00763E+03  3.36480E+03 -2.36064E+03  1.95715E+03
 -3.11483E+03 -3.73270E+02 -2.96272E+03 -2.30173E+03 -1.16281E+02 -2.39714E+03  9.15921E+02 -1.79127E+03
  1.67613E+03 -8.13282E+02  1.75957E+03 -1.36400E+02  1.58231E+01  1.04837E+03  1.53118E+03  1.32430E+03
  1.94855E+03  5.12755E+02  1.57205E+03  8.57538E+02  1.00547E+03  1.50143E+03  1.16689E+03  1.90543E+03
 -5.71009E+02  2.13031E+03 -1.67822E+03  3.04253E+03 -2.71018E+03  6.26816E+02 -3.07187E+03 -2.39439E+02
 -9.58841E+02 -2.49715E+03  2.69015E+02 -3.48688E+03  7.15965E+02 -2.17455E+03  2.39136E+03 -9.45770E+02
  2.19868E+03  1.15248E+03  3.90513E+02  1.96091E+03 -2.61467E+02  1.62021E+03 -7.90839E+02  6.79551E+02
 -1.12239E+03 -1.78634E+03  1.01398E+03 -3.97950E+02  1.18622E+03 -5.67929E+02  2.21578E+02 -3.33456E+02
  8.26764E+02 -9.81461E+00 -7.37867E+01 -9.32664E+02 -1.01283E+03  1.96494E+02  1.52110E+03 -1.59441E+02
 -1.07343E+02 -6.00168E+02  1.16068E+03  9.33332E+02 -1.80645E+02  1.58715E+03 -7.33368E+02  1.58725E+03
 -1.32520E+03  1.41073E+03 -1.18721E+03 -2.40629E+00 -2.45977E+03  2.17338E+02  1.11052E+02  1.13476E+02
  4.49649E+02 -1.86260E+03  8.91333E+02 -1.19814E+03  9.33276E+02  7.28724E+02 -4.71701E+02  1.57009E+03
 -1.06976E+03  3.40572E+02 -7.69584E+02 -1.79936E+03 -6.75969E+01 -1.57562E+03 -9.01894E+02 -1.15590E+03
  7.65236E+02 -6.01127E+02  5.46313E+02 -1.13866E+02  8.07509E+02 -2.56473E+02 -2.75467E+02 -1.63484E+02
 -1.91835E+03 -5.72947E+01 -8.90887E+02 -1.70161E+02  8.48899E+02 -4.07897E+02  1.47288E+03 -6.16879E+02
  1.25590E+03  3.99514E+01  2.68566E+03  6.00190E+02  3.78034E+02  1.06448E+03 -5.75069E+02  2.01964E+03
 -5.97726E+02 -6.88402E+02 -4.45928E+02 -4.35877E+02 -8.54429E+02 -1.17403E+03 -3.45714E+02 -6.90715E+02
  1.08550E+03 -2.79618E+02  8.70365E+02  1.22351E+03  2.60488E+02  1.64693E+03 -2.60070E+02  1.61412E+03
 -7.84815E+02  3.91653E+02  9.03879E+01 -4.01776E+02  1.92921E+02  9.84156E+02 -1.27539E+03  4.03287E+02
 -4.42717E+02  1.36102E+03 -2.05294E+03  7.89243E+02 -1.26849E+03 -7.29148E+02 -2.04794E+03 -3.91376E+02
 -6.08654E+02 -1.36173E+03 -1.97318E+02 -2.95287E+03  6.75878E+02 -1.49813E+03  2.03157E+03  2.76742E+02
  2.00676E+03 -1.09653E+03  1.02237E+03  8.06562E+02 -5.13819E+02  1.74043E+03  5.08788E+02  1.16829E+03
 -5.11235E+02  3.61810E+01 -8.54654E+02  3.38032E+02  6.47077E+01 -2.91292E+02 -8.79151E+02 -5.28366E+02
 -1.27015E+03 -6.90617E+02 -8.98381E+02  2.66007E+02  1.43336E+02 -7.42862E+02 -4.44608E+02 -1.26531E+03
  4.90204E+02 -5.28881E+02  2.39581E+01  3.34582E+02  1.41881E+03  8.99243E+02 -2.08278E+03  7.69945E+02
 -1.52069E+03  1.63292E+03 -1.48733E+03  8.74241E+02 -7.11057E+02  5.75241E+02 -9.01525E+02 -8.62816E+01
 -1.23622E+03 -5.77720E+02  6.60606E+02 -8.52531E+02 -4.64687E+02 -1.74519E+02  4.64650E+02  5.15654E+02
 -5.30188E+02 -5.58685E+02 -2.77911E+02  6.78449E+02  5.62039E+02 -5.83665E+02 -6.62328E+02  1.42545E+02
  1.85297E+03  1.11545E+03 -1.35959E+02  7.66703E+02  8.73393E+00  7.12415E+02  1.20073E+03  4.80338E+02
  1.15053E+03  1.72941E+02 -1.63967E+03  2.25992E+01  2.24891E+02 -7.55433E+02  6.21911E+02 -1.51532E+03
 -5.65702E+02 -1.48210E+02  1.05758E+03  7.48864E+02  1.18885E+03 -6.42825E+02  1.24839E+03 -1.06287E+03
  1.28157E+03 -1.18366E+02  2.77209E+02 -4.26603E+02  3.56099E+02  7.20589E+02 -3.05374E+02 -1.37385E+02
 -3.25037E+02  9.93696E+02 -6.16343E+02 -4.20215E+02 -1.07163E+02 -4.24889E+01 -3.61670E+02 -2.59169E+02
 -1.27289E+03 -6.52597E+02 -1.71845E+02 -6.16761E+02  1.06506E+02 -1.99362E+03  6.38236E+02 -8.05111E+02
 -2.17935E+02  9.68860E+02  1.28236E+02  4.97939E+02  6.60843E+01  2.92889E+02  2.55424E+02  2.10802E+02
