 $NMID ID='MM_0lb_SNR200_10hz_g45_12.RAW', FMTDAT='(8E13.5)'
 TRAMP=1., VOLUME=1. $END
  3.09185E+05  9.71984E+02  3.37913E+05  2.52103E+05  8.53029E+04  3.38233E+05 -1.32561E+05  2.51089E+05
 -1.90019E+05  8.43732E+04 -1.12070E+05 -3.34441E+04  1.96978E+03 -5.01717E+04  5.44979E+04 -2.47513E+01
  3.50159E+04  5.36733E+04 -1.59095E+04  7.58201E+04 -6.10719E+04  6.45219E+04 -8.47468E+04  3.23848E+04
 -8.12845E+04 -1.19012E+04 -5.80221E+04 -5.19982E+04 -1.45896E+04 -7.14456E+04  2.82620E+04 -4.64986E+04
  4.00261E+04  3.28818E+03  1.57168E+04  4.96604E+04 -3.32327E+04  4.73971E+04 -6.67885E+04 -1.60253E+03
 -5.37830E+04 -5.73364E+04 -6.44060E+03 -7.79170E+04  3.34868E+04 -5.64894E+04  4.90413E+04 -1.74469E+04
  4.51399E+04  1.12756E+04  3.27480E+04  2.59013E+04  1.48111E+04  2.93679E+04 -5.50650E+03  2.78696E+04
 -2.12900E+04  1.26818E+04 -1.85067E+04 -4.25349E+03  6.45257E+03 -8.53947E+03  2.18157E+04  1.26336E+04
  5.98791E+03  3.70227E+04 -3.33216E+04  3.57456E+04 -6.53427E+04  3.35327E+03 -5.92707E+04 -4.45392E+04
 -1.46905E+04 -6.48729E+04  4.30938E+04 -4.74938E+04  6.05321E+04 -2.81882E+03  3.66297E+04  3.20659E+04
 -5.69439E+03  3.79337E+04 -3.06471E+04  1.79275E+04 -3.29570E+04 -4.08951E+03 -1.84910E+04 -1.22289E+04
 -8.49105E+03 -1.46604E+04 -3.78792E+02 -1.94066E+04  7.50030E+03 -2.35168E+04  1.60130E+04 -1.18104E+04
  1.04271E+04  5.24243E+03 -8.37114E+03  1.34074E+04 -2.31327E+04 -6.67901E+03 -9.94456E+03 -3.69824E+04
  2.35972E+04 -4.67510E+04  5.10333E+04 -2.03445E+04  4.83859E+04  2.08224E+04  1.83880E+04  4.70152E+04
 -1.68796E+04  3.59825E+04 -2.70326E+04  2.14365E+03 -1.04195E+04 -3.15578E+04  2.09179E+04 -3.50402E+04
  4.32768E+04 -1.05958E+04  3.93681E+04  2.44868E+04  1.98183E+04  5.00792E+04 -7.47993E+03  5.46343E+04
 -3.51384E+04  3.68240E+04 -4.52417E+04  1.23782E+04 -4.69696E+04 -1.76578E+04 -2.38044E+04 -3.95909E+04
  7.42646E+03 -4.02170E+04  3.32849E+04 -1.59193E+04  3.06969E+04  1.09339E+04  4.22620E+03  1.92664E+04
 -1.29561E+04  9.29426E+03 -1.19912E+04 -7.98701E+03  5.80724E+03 -1.07861E+04  1.93264E+04  5.64254E+03
  1.32609E+04  2.19933E+04 -6.77376E+03  2.68986E+04 -2.28828E+04  1.35401E+04 -3.13137E+04 -4.88271E+03
 -2.37940E+04 -1.82899E+04 -9.98402E+03 -2.51041E+04  3.84509E+03 -2.37500E+04  1.79113E+04 -2.02661E+04
  2.98387E+04 -1.32038E+04  3.64767E+04  4.28164E+03  2.60246E+04  2.18643E+04  3.84450E+03  4.08914E+04
 -1.88842E+04  3.26523E+04 -3.07253E+04  1.05647E+04 -2.20886E+04 -9.65805E+03 -6.27837E+03 -1.34294E+04
  1.67049E+02 -2.17119E+03 -7.02293E+03  9.05966E+03 -1.87136E+04  4.96624E+03 -1.93544E+04 -7.61918E+03
 -1.02539E+04 -2.15633E+04  4.40789E+03 -2.65331E+04  1.75620E+04 -1.86991E+04  2.12697E+04 -1.47100E+03
  1.42898E+04  1.70998E+04 -1.50134E+03  2.29509E+04 -1.70616E+04  1.22609E+04 -2.10345E+04 -3.51243E+03
 -1.69499E+04 -1.98809E+04 -1.21323E+03 -2.67833E+04  1.18232E+04 -2.24366E+04  2.36317E+04 -1.05133E+04
  2.11669E+04 -9.89200E+02  1.54671E+04  4.96605E+03  8.55170E+03  1.87443E+03  1.17112E+04 -2.03052E+03
  2.04127E+04  2.79342E+03  2.34879E+04  1.72246E+04  1.56355E+04  3.54322E+04 -2.07077E+03  4.22873E+04
 -2.40216E+04  3.40473E+04 -4.01408E+04  1.67164E+04 -4.11926E+04 -3.80970E+03 -3.40146E+04 -2.50711E+04
 -1.30099E+04 -3.32162E+04  1.18189E+04 -2.86079E+04  2.60970E+04 -1.44508E+04  2.39394E+04  6.19746E+03
  8.47014E+03  1.71802E+04 -9.80893E+03  1.46634E+04 -1.80869E+04  2.25676E+03 -1.38046E+04 -1.32197E+04
  1.61917E+02 -1.72706E+04  9.66269E+03 -1.29869E+04  1.28440E+04 -3.34371E+03  3.00989E+03  7.88766E+03
 -7.43590E+03  3.29431E+03 -7.00897E+03 -7.26462E+03 -2.45755E+03 -1.87023E+04  1.00788E+04 -1.81951E+04
  2.17774E+04 -9.87510E+03  2.40333E+04  3.20090E+03  2.14020E+04  1.58952E+04  9.60752E+03  2.73010E+04
 -5.37786E+03  2.65349E+04 -1.79748E+04  1.74019E+04 -2.02943E+04  2.93135E+03 -1.34829E+04 -5.17067E+03
 -6.19507E+03 -7.18999E+03 -1.47406E+03  9.12695E+02 -1.76711E+03  3.37653E+03 -7.53726E+03  5.90332E+03
 -1.31915E+04  2.88636E+02 -1.40404E+04 -1.03428E+04 -5.73640E+03 -1.80959E+04  6.98832E+03 -1.44254E+04
  1.15004E+04 -7.30149E+03  9.04734E+03  2.76441E+03 -3.99134E+01  6.71441E+03 -6.68380E+03 -2.98735E+02
 -7.73473E+03 -9.27790E+03 -2.42995E+03 -1.34480E+04  9.23509E+03 -1.55972E+04  1.93184E+04 -9.62981E+03
  2.18973E+04  1.98079E+03  1.52371E+04  1.19477E+04  1.23963E+03  1.65668E+04 -7.43219E+03  1.28530E+04
 -1.04853E+04  4.68672E+03 -5.94893E+03 -1.88704E+03  1.72852E+03 -3.88272E+03  7.52230E+03 -6.51456E+01
  6.91089E+03  6.10513E+03  2.02083E+03  1.09162E+04 -7.56623E+03  9.62790E+03 -1.46012E+04  3.38455E+03
 -8.00217E+03 -7.70756E+03 -1.01052E+03 -1.18864E+04  7.46658E+03 -6.73199E+03  8.72056E+03  2.78064E+03
  1.83734E+03  8.52543E+03 -7.63402E+03  1.15253E+04 -1.33791E+04  4.56528E+03 -1.14759E+04 -5.20394E+03
 -7.58806E+03 -1.41042E+04  2.69240E+03 -1.51879E+04  1.24310E+04 -9.74109E+03  1.59011E+04  2.76535E+03
  1.02548E+04  1.10885E+04 -4.90153E+02  1.41390E+04 -1.07009E+04  8.35575E+03 -1.14712E+04 -1.49776E+03
 -1.03885E+04 -8.75699E+03 -2.05260E+03 -1.11644E+04  5.29046E+03 -9.74949E+03  7.61674E+03 -2.61504E+03
  4.39221E+03  1.17515E+03 -8.27650E+02  2.60143E+03 -2.92397E+02 -3.52390E+03  2.25517E+03 -6.47056E+03
  1.08300E+04 -3.26404E+03  1.33112E+04  1.35093E+03  1.47885E+04  9.94509E+03  7.32904E+03  1.90235E+04
 -5.01890E+03  2.04182E+04 -1.69937E+04  1.58083E+04 -2.19374E+04  2.68565E+03 -1.76353E+04 -7.42123E+03
 -8.97536E+03 -1.52480E+04 -7.32833E+02 -1.21732E+04  3.32088E+03 -8.25753E+03  3.08773E+03 -5.60964E+03
  2.81143E+03 -3.73447E+03  3.20973E+03 -3.25696E+03  5.88519E+03 -2.81370E+03  6.86982E+03  1.04793E+02
  9.38643E+03  2.10478E+03  5.54012E+03  8.76164E+03 -7.32423E+02  8.21831E+03 -1.02971E+04  7.63705E+03
 -1.28034E+04 -7.73000E+02 -7.48688E+03 -9.85517E+03  6.00466E+02 -1.48342E+04  7.81059E+03 -1.34224E+04
  1.33633E+04 -6.98092E+03  1.70555E+04  2.06169E+03  1.16682E+04  1.22847E+04  2.68558E+03  1.78409E+04
 -6.64548E+03  1.33403E+04 -9.20960E+03  3.84537E+03 -6.37164E+03 -1.11233E+03 -2.19942E+03 -1.45962E+03
 -2.45619E+03  7.93729E+01 -1.88972E+03  2.60716E+03 -5.83451E+03  3.38663E+03 -8.85036E+03 -3.27356E+03
 -6.04587E+03 -9.64336E+03 -4.36160E+02 -1.38372E+04  8.25492E+03 -1.24088E+04  1.26659E+04 -4.04175E+03
  1.26336E+04  6.23629E+03  4.73485E+03  1.20747E+04 -3.00793E+03  1.27514E+04 -9.03959E+03  6.60628E+03
 -1.29499E+04  3.99714E+02 -9.21421E+03 -8.80834E+03 -2.18290E+03 -9.98775E+03  6.40582E+03 -7.68557E+03
  7.77386E+03 -3.38449E+03  4.83484E+03  2.70484E+03  7.81514E+02  4.08116E+03  2.05029E+03  1.40466E+03
  2.16625E+03  1.52422E+03  3.11508E+03  2.62593E+03  3.12727E+03  3.87649E+03  2.24426E+03  6.05134E+03
 -2.96647E+03  1.02602E+04 -8.51492E+03  1.12628E+04 -1.24029E+04  1.76501E+03 -1.30666E+04 -5.48354E+03
 -5.88822E+03 -1.15871E+04  2.14043E+03 -1.42083E+04  6.99454E+03 -8.29742E+03  1.05359E+04 -2.35990E+03
  9.55092E+03  3.68627E+03  3.40972E+03  6.76421E+03 -3.78268E+03  4.60044E+03 -4.24802E+03 -1.13536E+03
 -1.66068E+03 -6.03399E+03  2.17579E+03 -5.12779E+03  5.51153E+03 -2.54622E+03  5.64901E+03  5.85747E+02
  2.72253E+03  2.20056E+03  3.03290E+02  1.85415E+03 -9.36937E+02  2.12955E+03  1.29369E+03  1.13434E+02
 -5.88490E+02 -1.45175E+03  6.66450E+03  9.16379E+02  2.90048E+03  7.09149E+03  9.45437E+02  8.51354E+03
 -6.18213E+03  7.03065E+03 -5.68580E+03  1.71216E+03 -7.09723E+03 -1.64500E+03 -2.28894E+03 -3.97968E+03
  7.88137E+02 -4.70348E+03  2.92565E+03 -1.35175E+03  1.94589E+03  2.38318E+03 -1.63649E+03  5.17480E+03
 -5.43939E+03  1.87177E+03 -6.82926E+03 -3.01918E+03 -3.25245E+03 -6.20462E+03  1.90699E+03 -6.83569E+03
  4.11860E+03 -3.46955E+03  4.71114E+03 -1.30643E+03  5.02282E+03  1.95476E+03  3.27633E+02  3.84636E+03
 -2.02899E+03 -6.65830E+01 -3.95039E+03 -2.73820E+03  1.86603E+03 -5.78308E+03  7.10173E+03 -4.21323E+03
  8.20224E+03  8.15352E+02  8.54546E+03  4.47416E+03  2.18005E+03  8.40779E+03 -2.35016E+03  6.50121E+03
 -6.39409E+03  3.21504E+03 -7.18377E+03 -2.87894E+03 -4.26186E+03 -5.53029E+03  1.30764E+03 -6.88700E+03
  4.87782E+03 -4.22872E+03  3.78363E+03  2.14223E+03  2.20373E+03  4.56854E+03 -3.76988E+02  4.73034E+03
 -2.37357E+03  2.86078E+03 -2.89015E+03  2.04815E+03 -1.41074E+03  1.09508E+03 -1.60670E+03  2.05466E+03
 -2.29207E+03  2.97766E+03 -5.04858E+03  2.99864E+03 -8.67787E+03  7.06727E+02 -9.01863E+03 -5.38748E+03
 -5.36247E+03 -1.07861E+04  5.35629E+02 -1.31720E+04  6.73186E+03 -8.88807E+03  1.15914E+04 -3.78893E+03
  9.80097E+03  1.14541E+03  7.16766E+03  7.79211E+03  1.76433E+03  7.94170E+03 -3.64179E+03  7.40313E+03
 -5.98103E+03  2.37343E+03 -2.45731E+03 -2.29424E+03 -9.11253E+02  5.35071E+02 -6.34466E+02  4.52873E+02
 -3.25675E+02 -9.60496E+02 -2.93189E+03 -1.09035E+03 -5.79888E+02 -2.01696E+03 -1.98246E+02 -3.22516E+03
  2.90447E+03 -3.89051E+03  5.75490E+03  7.16922E+02  5.03674E+03  4.76064E+03  2.43712E+03  8.68981E+03
 -4.05663E+03  9.89624E+03 -8.34584E+03  6.86512E+03 -1.02874E+04 -1.18707E+03 -6.61211E+03 -5.82363E+03
 -2.61900E+03 -8.00500E+03  3.50748E+03 -8.47413E+03  5.38364E+03 -5.41415E+03  5.61946E+03 -1.30679E+03
  3.09924E+03  2.66862E+03 -1.04396E+03  2.36804E+03 -2.00746E+03  1.23911E+02 -1.80339E+02 -6.94296E+02
  3.72583E+03 -1.87558E+03  3.38268E+03  2.71735E+02  3.53492E+03  3.21014E+03  1.46166E+03  2.73532E+03
 -2.30172E+03  3.21536E+03 -6.66303E+03  1.71848E+03 -5.62404E+03 -4.66123E+03 -7.63463E+02 -6.78929E+03
  4.87486E+03 -4.33725E+03  6.04100E+03 -1.36033E+03  6.04320E+03  6.64133E+02  3.05396E+03  5.74138E+03
 -1.90959E+02  6.54621E+03 -2.31994E+03  4.65025E+03 -4.42247E+03  2.70976E+03 -3.81213E+03 -1.27695E+02
 -1.52404E+03  7.35493E+02 -3.07150E+03  4.86668E+02 -4.17999E+03  9.90507E+02 -4.09716E+03 -1.24227E+03
 -4.12914E+03 -2.75779E+03 -1.80183E+03 -6.24146E+03  4.10095E+03 -5.75394E+03  5.60698E+03 -1.86756E+03
  6.82139E+03  1.33617E+03  3.66442E+03  3.80391E+03 -2.74452E+03  4.65470E+03 -5.20588E+03  3.51060E+03
