 $NMID ID='MM_0lb_SNR200_16hz_g60_87.RAW', FMTDAT='(8E13.5)'
 TRAMP=1., VOLUME=1. $END
  3.09432E+05 -4.95294E+02  3.38803E+05  2.50924E+05  8.43366E+04  3.37160E+05 -1.31201E+05  2.51645E+05
 -1.91103E+05  8.28894E+04 -1.12088E+05 -3.30272E+04  7.28934E+02 -5.10891E+04  5.36725E+04  8.91818E+02
  3.50461E+04  5.33381E+04 -1.67952E+04  7.39726E+04 -6.01859E+04  6.36276E+04 -8.32989E+04  3.19851E+04
 -7.97769E+04 -1.11514E+04 -5.82654E+04 -5.11537E+04 -1.53604E+04 -6.85888E+04  2.64355E+04 -4.64644E+04
  3.86761E+04  4.29962E+03  1.57493E+04  4.75966E+04 -3.51688E+04  4.71586E+04 -6.62871E+04  2.78134E+02
 -5.24596E+04 -5.54533E+04 -7.28883E+03 -7.67555E+04  3.49417E+04 -5.53437E+04  4.81306E+04 -1.69857E+04
  4.27151E+04  1.10266E+04  3.07381E+04  2.53364E+04  1.53312E+04  3.00340E+04 -5.02097E+03  2.79475E+04
 -2.16051E+04  1.25717E+04 -1.89272E+04 -4.68354E+03  5.72524E+03 -7.58066E+03  2.29615E+04  1.23164E+04
  6.67282E+03  3.55500E+04 -3.19952E+04  3.49024E+04 -6.34242E+04  1.05485E+03 -5.71166E+04 -4.26508E+04
 -1.15475E+04 -6.25641E+04  4.01148E+04 -4.56029E+04  5.76993E+04 -2.33805E+03  3.49848E+04  3.13629E+04
 -4.82545E+03  3.57451E+04 -2.95432E+04  1.56493E+04 -3.05333E+04 -3.07907E+03 -1.65002E+04 -1.22240E+04
 -9.25243E+03 -1.22902E+04  1.00706E+01 -1.84844E+04  6.67323E+03 -2.26305E+04  1.44658E+04 -1.33500E+04
  1.18381E+04  5.36565E+03 -8.36417E+03  1.29032E+04 -2.11075E+04 -3.65238E+03 -7.78351E+03 -3.31754E+04
  2.13042E+04 -4.31821E+04  4.92937E+04 -1.92602E+04  4.61888E+04  1.95592E+04  1.60215E+04  4.47063E+04
 -1.56077E+04  3.43369E+04 -2.56279E+04  1.60409E+03 -9.03391E+03 -2.81853E+04  2.02908E+04 -3.40437E+04
  4.09189E+04 -1.04317E+04  3.65894E+04  2.56014E+04  1.80129E+04  4.60753E+04 -7.43487E+03  5.08306E+04
 -3.19226E+04  3.45395E+04 -4.21787E+04  8.93471E+03 -4.22900E+04 -1.69256E+04 -2.39652E+04 -3.70612E+04
  8.73768E+03 -3.85406E+04  3.08652E+04 -1.37030E+04  2.96730E+04  1.06834E+04  3.92144E+03  1.93310E+04
 -1.43332E+04  7.61559E+03 -9.73686E+03 -6.63015E+03  4.60525E+03 -1.13844E+04  1.94882E+04  6.40846E+03
  1.43818E+04  2.25388E+04 -5.23136E+03  2.52161E+04 -2.22473E+04  1.10341E+04 -2.65331E+04 -5.57084E+03
 -2.14678E+04 -1.75897E+04 -9.04320E+03 -2.00042E+04  5.17741E+03 -1.94226E+04  1.63483E+04 -1.85363E+04
  2.62997E+04 -1.33165E+04  3.25989E+04  2.30405E+03  2.34335E+04  2.06990E+04  5.61650E+03  3.58954E+04
 -1.67772E+04  3.04960E+04 -2.73897E+04  1.02767E+04 -2.06319E+04 -1.09407E+04 -3.91223E+03 -1.33163E+04
  2.45219E+03 -9.50985E+02 -4.73078E+03  6.75279E+03 -1.55578E+04  5.35876E+03 -1.63203E+04 -7.21029E+03
 -9.30595E+03 -1.85793E+04  6.18681E+03 -2.34541E+04  1.53390E+04 -1.71364E+04  1.71126E+04 -1.14557E+03
  1.10037E+04  1.23407E+04 -1.49792E+03  1.82333E+04 -1.32955E+04  1.02655E+04 -1.85226E+04 -4.21208E+03
 -1.27533E+04 -1.80558E+04 -2.02019E+03 -2.20363E+04  9.60619E+03 -1.93343E+04  1.94635E+04 -7.95439E+03
  1.80475E+04  7.50427E+02  1.32331E+04  5.15280E+03  7.24435E+03  7.35074E+02  8.20389E+03 -1.73351E+03
  1.72147E+04  2.97725E+03  1.91777E+04  1.44312E+04  1.13748E+04  3.01323E+04 -3.39984E+03  3.42201E+04
 -1.94036E+04  2.50153E+04 -3.07284E+04  1.33387E+04 -3.23390E+04 -2.84832E+03 -2.64396E+04 -1.73831E+04
 -1.21625E+04 -2.63892E+04  9.69190E+03 -2.42170E+04  2.02357E+04 -1.31930E+04  1.93840E+04  4.87190E+03
  6.69168E+03  1.30106E+04 -9.07010E+03  1.22710E+04 -1.46004E+04  2.00860E+03 -1.23684E+04 -9.54602E+03
 -3.05724E+02 -1.50053E+04  6.98066E+03 -1.09674E+04  9.93387E+03 -1.81476E+03  2.82554E+03  6.72945E+03
 -7.18453E+03  2.61837E+03 -5.41655E+03 -5.09778E+03 -1.21652E+03 -1.24709E+04  9.13829E+03 -1.38423E+04
  1.48189E+04 -7.49014E+03  1.63322E+04  3.80129E+03  1.52643E+04  1.27821E+04  6.04279E+03  1.93251E+04
 -3.36669E+03  2.09492E+04 -1.25323E+04  1.35870E+04 -1.52555E+04  3.66643E+03 -1.00963E+04 -2.93639E+03
 -3.89416E+03 -2.95432E+03 -5.98263E+01  1.86855E+03 -1.50907E+03  3.56102E+03 -4.67469E+03  4.79999E+03
 -9.70071E+03 -1.54240E+03 -1.11467E+04 -8.20122E+03 -3.79256E+03 -1.41107E+04  5.36555E+03 -1.01134E+04
  8.84056E+03 -5.64092E+03  6.31127E+03  2.95721E+03 -3.42242E+02  3.83251E+03 -3.97157E+03  6.30595E+02
 -5.27287E+03 -6.79166E+03 -7.23519E+02 -9.41946E+03  5.81096E+03 -1.08950E+04  1.20039E+04 -3.97408E+03
  1.53497E+04  1.58651E+03  1.14264E+04  8.16653E+03  3.12992E+03  1.11513E+04 -7.82993E+03  1.13890E+04
 -8.74830E+03  4.19674E+03 -5.13487E+03 -1.75568E+03  2.15564E+03 -2.52067E+03  5.38144E+03 -3.47648E+02
  4.96589E+03  5.30418E+03  1.61120E+03  9.52547E+03 -5.37656E+03  7.15209E+03 -9.41564E+03  3.50413E+03
 -6.94052E+03 -5.70417E+03  3.09635E+02 -8.34311E+03  5.08918E+03 -4.79640E+03  4.91497E+03  1.64717E+03
  9.64626E+02  4.72462E+03 -3.92465E+03  6.41804E+03 -8.27843E+03  3.80527E+03 -6.42537E+03 -2.72904E+03
 -4.72710E+03 -9.24883E+03  2.09916E+03 -9.63818E+03  1.05465E+04 -7.19743E+03  9.02508E+03  1.75052E+03
  6.11488E+03  6.08572E+03 -3.44571E+02  9.80256E+03 -6.44098E+03  7.33150E+03 -6.86539E+03 -1.69257E+03
 -7.85356E+03 -6.72608E+03 -1.34230E+03 -7.33922E+03  3.53550E+03 -6.74548E+03  3.93814E+03 -3.99637E+03
  4.94497E+03  9.23987E+02 -2.53244E+02  1.61692E+03 -1.35727E+01 -2.97352E+02  4.39070E+02 -3.68173E+03
  5.76414E+03 -1.57294E+03  9.04884E+03  2.12151E+03  7.47483E+03  4.55828E+03  6.86600E+03  1.14219E+04
 -2.75661E+03  1.38091E+04 -9.53905E+03  9.05845E+03 -1.50501E+04  1.97409E+03 -1.17185E+04 -4.99766E+03
 -5.46847E+03 -8.79949E+03  1.60466E+02 -6.95240E+03  2.54799E+03 -2.98989E+03  2.46434E+03 -2.75878E+03
  2.58441E+03 -4.77800E+02  3.00350E+03 -3.62413E+03  3.68257E+03 -2.18911E+03  5.07017E+03 -2.02309E+02
  6.38955E+03  1.38766E+03  2.14592E+03  5.22571E+03 -1.14019E+03  4.69823E+03 -5.90319E+03  3.58773E+03
 -7.39468E+03 -2.03340E+03 -2.85800E+03 -5.09796E+03 -1.03234E+03 -7.51866E+03  4.80066E+03 -7.60792E+03
  7.00795E+03 -4.08829E+03  1.08777E+04  6.03600E+02  5.75139E+03  6.81347E+03  1.27583E+03  8.92783E+03
 -4.21516E+03  7.87340E+03 -5.02542E+03  2.55343E+03 -2.75202E+03 -1.49373E+03 -1.71962E+03 -1.35699E+03
  8.36577E+01  3.83317E+02 -1.97346E+03  2.92817E+03 -3.61377E+03  1.99027E+03 -5.62108E+03 -1.04443E+03
 -3.00798E+03 -4.93657E+03  1.00221E+02 -6.27275E+03  3.80857E+03 -6.19865E+03  5.89169E+03 -8.73150E+02
  5.92901E+03  2.91172E+03  3.33975E+03  6.93841E+03 -1.28431E+03  6.74276E+03 -4.62072E+03  4.24674E+03
 -6.20351E+03  4.79076E+02 -4.42118E+03 -3.83327E+03 -5.20781E+02 -6.30523E+03  2.96860E+03 -4.67230E+03
  3.76409E+03 -1.11282E+03  4.76580E+03  1.82677E+03  3.19818E+02  1.55282E+03  1.00736E+03  1.56247E+02
  1.66875E+03  1.76117E+03  2.42028E+03  9.96969E+02  1.62692E+03  1.98785E+03  9.26619E+02  2.82417E+03
 -1.17090E+03  3.77261E+03 -3.88708E+03  6.06264E+03 -4.98877E+03  1.17959E+03 -7.22062E+03 -1.46860E+03
 -3.68074E+03 -5.12554E+03  6.69463E+02 -5.76210E+03  2.59586E+03 -4.98425E+03  5.28680E+03 -1.70279E+03
  3.92880E+03  2.58033E+03  1.06218E+03  3.14127E+03 -1.71512E+03  1.44367E+03 -2.01833E+03  1.33112E+00
 -4.97517E+02 -2.82239E+03  1.11127E+03 -3.16011E+03  1.50878E+03 -3.06814E+03  9.12408E+02  1.01332E+03
  1.68752E+03  4.63610E+01  8.81453E+02  2.30474E+02 -1.05389E+03  6.18985E+02  1.14339E+03 -1.86312E+02
  5.72346E+02 -3.18385E+02  1.88386E+03  6.02634E+02  7.08256E+02  2.49084E+03 -1.12632E+03  4.73483E+03
 -3.07574E+03  1.64439E+03 -4.17452E+03  5.42745E+02 -5.23053E+03 -1.05338E+03 -1.60773E+02 -3.35509E+03
 -3.01857E+02 -3.60044E+03  1.61349E+03 -1.09450E+03  2.53276E+03  1.33801E+03  4.84975E+02  2.04027E+03
 -2.17517E+03  2.08158E+03 -2.41553E+03 -9.32157E+02 -2.31582E+03 -3.44160E+03  1.39166E+03 -2.49245E+03
  9.09147E+02 -9.26127E+02  2.28411E+03 -5.78600E+01  2.22894E+03  5.76320E+02  6.32650E+02  1.92827E+03
 -5.94397E+02 -4.30827E+02 -2.22614E+03  3.07497E+02  5.11910E+02 -1.40203E+03  2.23347E+03 -1.80153E+03
  2.36823E+03  6.85602E+01  4.87369E+03  1.94179E+03  1.39438E+03  3.12814E+03 -8.50528E+02  3.37652E+03
 -4.10375E+03  4.17497E+02 -1.50428E+03 -1.18431E+03 -1.23382E+03 -2.38168E+03  5.33549E+02 -4.96668E+02
  2.55088E+03 -1.20018E+03  1.45684E+03  1.63969E+02  2.20332E+02  2.02108E+03 -6.12765E+01  1.84959E+03
 -4.69878E+02  1.41875E+03 -1.72911E+03 -1.53273E+02  7.58167E+02 -5.92711E+02 -6.12855E+02  1.36262E+03
 -1.04642E+02  1.85021E+03 -2.72811E+03  1.89448E+03 -3.26671E+03 -3.06457E+01 -3.11108E+03 -1.09669E+03
 -2.26277E+03 -3.60291E+03  1.07829E+03 -4.71545E+03  2.54800E+03 -3.67392E+03  4.67098E+03 -1.43963E+03
  3.49794E+03  1.89668E+03  1.66570E+03  1.90846E+03  3.18018E+02  1.29032E+03 -1.65311E+03  2.71098E+03
 -1.04312E+03  8.64004E+02 -7.24585E+02  1.72258E+02 -3.09763E+02  1.21495E+03 -1.40819E+03 -3.26716E+02
 -8.75497E+02  1.74863E+02 -9.85382E+02 -3.99481E+02  5.49007E+02 -8.30719E+02 -3.56292E+02  6.08798E+02
  1.96173E+03 -1.30007E+03  1.68126E+03  4.49058E+02  1.46415E+03  1.65243E+03  5.30270E+02  2.82309E+03
 -6.20056E+02  2.66709E+03 -1.98049E+03  2.23386E+03 -2.87968E+03 -5.69113E+02 -2.80425E+03 -1.33924E+03
 -1.06708E+03 -3.10003E+03  1.23235E+02 -3.41950E+03  9.27484E+02 -7.87113E+02  4.04896E+02  6.34808E+02
  4.28744E+02  1.89902E+02 -4.05631E+02  5.73446E+02 -1.36314E+03 -1.87055E+02  1.70032E+02 -8.64646E+02
  4.74950E+02 -3.19668E+02  5.87711E+02  7.62793E+02 -1.03007E+01 -5.93890E+02 -4.54209E+01  6.80437E+02
 -1.51582E+03  2.46926E+02  3.75636E+02 -1.08737E+03 -9.59331E+02 -2.18103E+03  2.86022E+02 -2.03475E+03
 -5.24414E+02 -2.06227E+03  2.95914E+02  5.32913E+02  2.90310E+03 -6.72171E+02  1.75162E+03  2.05607E+03
  9.49235E+02  3.25759E+02 -9.04835E+02  5.80383E+02 -1.66969E+03  1.36876E+02  1.16851E+02  1.30435E+03
 -7.58179E+02  1.70067E+02 -4.55411E+02 -1.67690E+02 -5.56825E+02 -3.99511E+02 -1.48781E+02 -7.54168E+02
 -6.75312E+02 -2.67163E+02 -3.11631E+02 -1.36737E+03  1.09764E+03 -1.68304E+03  1.23689E+03 -9.19339E+02
 -3.68172E+02  6.31629E+02  3.85665E+02  3.52124E+02 -7.59720E+02  1.74779E+03 -7.14582E+01  1.87838E+03
