 $NMID ID='MM_0lb_SNR200_11hz_g60_24.RAW', FMTDAT='(8E13.5)'
 TRAMP=1., VOLUME=1. $END
  3.08480E+05  1.03619E+03  3.36924E+05  2.50268E+05  8.40596E+04  3.38667E+05 -1.32835E+05  2.51555E+05
 -1.91501E+05  8.37711E+04 -1.13020E+05 -3.20824E+04 -3.87802E+02 -4.99752E+04  5.41472E+04 -1.14346E+03
  3.44348E+04  5.28180E+04 -1.63765E+04  7.56777E+04 -6.04270E+04  6.44775E+04 -8.49694E+04  3.30101E+04
 -8.22524E+04 -1.13549E+04 -5.95137E+04 -5.30072E+04 -1.56791E+04 -6.95133E+04  2.87826E+04 -4.69809E+04
  4.09396E+04  2.60388E+03  1.71717E+04  4.85710E+04 -3.54633E+04  4.78443E+04 -6.84465E+04  1.03083E+03
 -5.53167E+04 -5.73762E+04 -7.67803E+03 -8.01786E+04  3.40528E+04 -5.62935E+04  4.82479E+04 -1.90303E+04
  4.47570E+04  1.28831E+04  3.24421E+04  2.54219E+04  1.57553E+04  3.08690E+04 -6.08159E+03  2.76010E+04
 -2.36460E+04  1.16300E+04 -1.70516E+04 -5.47082E+03  6.30329E+03 -9.46789E+03  2.23293E+04  1.45279E+04
  6.41800E+03  3.79903E+04 -3.28739E+04  3.51888E+04 -6.45503E+04  3.42655E+03 -5.89014E+04 -4.53079E+04
 -1.18392E+04 -6.59738E+04  4.15783E+04 -4.81609E+04  6.07482E+04 -1.65777E+03  3.65454E+04  3.42154E+04
 -5.34073E+03  3.89324E+04 -3.13760E+04  1.76639E+04 -3.13201E+04 -4.51345E+03 -1.84958E+04 -1.20117E+04
 -1.03247E+04 -1.40260E+04  1.73634E+02 -1.77362E+04  8.17527E+03 -2.34017E+04  1.64821E+04 -1.15749E+04
  1.12208E+04  6.53438E+03 -1.20356E+04  1.24495E+04 -2.31813E+04 -5.50224E+03 -9.52472E+03 -3.84914E+04
  2.42311E+04 -4.64766E+04  5.17984E+04 -2.21295E+04  4.69788E+04  2.07654E+04  1.65459E+04  4.64585E+04
 -1.72023E+04  3.44022E+04 -2.86703E+04  4.71204E+02 -1.06630E+04 -2.93142E+04  2.18907E+04 -3.60533E+04
  4.28606E+04 -1.09293E+04  3.91080E+04  2.56873E+04  2.13082E+04  4.97905E+04 -8.22559E+03  5.55035E+04
 -3.51230E+04  3.80097E+04 -4.76265E+04  1.06827E+04 -4.58859E+04 -1.89620E+04 -2.45006E+04 -4.16556E+04
  7.83187E+03 -4.07715E+04  3.28245E+04 -1.70445E+04  3.29658E+04  9.41752E+03  5.53039E+03  2.25873E+04
 -1.47587E+04  9.29248E+03 -1.21206E+04 -7.32688E+03  5.14978E+03 -1.17948E+04  1.88225E+04  5.09859E+03
  1.50466E+04  2.25666E+04 -5.89206E+03  2.62772E+04 -2.36591E+04  1.54582E+04 -3.11035E+04 -4.49077E+03
 -2.53821E+04 -1.82427E+04 -1.19283E+04 -2.46040E+04  3.67976E+03 -2.41528E+04  2.06793E+04 -2.11599E+04
  3.14689E+04 -1.46826E+04  3.78373E+04  4.45383E+03  2.67122E+04  2.32628E+04  4.23265E+03  4.15465E+04
 -1.74616E+04  3.18243E+04 -2.94474E+04  1.17163E+04 -2.33584E+04 -1.02069E+04 -5.43574E+03 -1.29335E+04
  1.87806E+03 -1.65884E+03 -7.86698E+03  7.39076E+03 -1.92790E+04  5.78028E+03 -1.94320E+04 -1.01957E+04
 -1.05958E+04 -2.24609E+04  6.38136E+03 -2.57666E+04  1.87673E+04 -1.91264E+04  2.32770E+04 -2.50521E+03
  1.46300E+04  1.51283E+04 -1.45053E+03  2.28751E+04 -1.50522E+04  1.41505E+04 -2.30309E+04 -4.80216E+03
 -1.62768E+04 -2.01561E+04 -8.27640E+02 -2.69134E+04  1.34005E+04 -2.18499E+04  2.26750E+04 -1.16630E+04
  2.09770E+04  6.35031E+02  1.55138E+04  6.35119E+03  8.25548E+03  8.02536E+02  1.19584E+04 -1.72831E+03
  2.15471E+04  3.53656E+03  2.48018E+04  1.71356E+04  1.80523E+04  3.62660E+04 -2.61538E+03  4.24918E+04
 -2.23634E+04  3.43382E+04 -3.96916E+04  1.85397E+04 -4.38675E+04 -3.56331E+03 -3.35816E+04 -2.52797E+04
 -1.40378E+04 -3.52148E+04  1.20305E+04 -3.06948E+04  2.63119E+04 -1.39256E+04  2.38373E+04  7.42413E+03
  8.81489E+03  1.89234E+04 -1.14708E+04  1.50229E+04 -1.89150E+04  2.94545E+03 -1.53919E+04 -1.21779E+04
 -8.13066E+02 -1.86709E+04  9.93013E+03 -1.42593E+04  1.35483E+04 -1.81110E+03  2.92181E+03  7.69570E+03
 -8.06989E+03  3.91118E+03 -8.74365E+03 -5.51884E+03 -5.58147E+02 -1.70394E+04  1.16469E+04 -1.95412E+04
  2.24598E+04 -1.09371E+04  2.38774E+04  4.51964E+03  2.24661E+04  1.85815E+04  1.00453E+04  2.70720E+04
 -5.93522E+03  2.90624E+04 -1.88967E+04  1.90847E+04 -2.15640E+04  3.22877E+03 -1.54411E+04 -4.80615E+03
 -6.09948E+03 -6.45547E+03 -2.57279E+02  1.37471E+03 -1.30587E+03  4.66437E+03 -6.80294E+03  5.93010E+03
 -1.47026E+04 -1.77437E+03 -1.53597E+04 -1.07264E+04 -6.60283E+03 -1.83324E+04  6.10887E+03 -1.54702E+04
  1.36881E+04 -5.60443E+03  8.64072E+03  2.51414E+03 -8.18775E+02  5.43013E+03 -7.78094E+03  1.34705E+03
 -7.41181E+03 -8.35936E+03 -2.79580E+02 -1.45742E+04  8.59930E+03 -1.55864E+04  1.83394E+04 -8.62986E+03
  2.23863E+04  3.07986E+03  1.73837E+04  1.32331E+04  2.93547E+03  1.77957E+04 -9.75656E+03  1.40898E+04
 -1.20064E+04  4.36474E+03 -6.84113E+03 -2.26770E+03  1.20286E+03 -4.06076E+03  7.71676E+03 -1.18517E+03
  7.41488E+03  5.96976E+03  2.84286E+03  1.25662E+04 -8.95460E+03  1.20456E+04 -1.49713E+04  1.00111E+03
 -9.71150E+03 -9.26762E+03 -2.80621E+02 -1.28546E+04  6.91032E+03 -7.11515E+03  8.97730E+03  2.01957E+03
  2.09202E+03  1.07499E+04 -7.90560E+03  1.07987E+04 -1.40809E+04  4.76392E+03 -1.24752E+04 -5.56376E+03
 -7.74293E+03 -1.53648E+04  3.46756E+03 -1.65774E+04  1.43189E+04 -9.23392E+03  1.47546E+04  3.18650E+03
  8.70788E+03  1.24630E+04 -1.23333E+03  1.44306E+04 -1.15415E+04  8.00533E+03 -1.16076E+04 -7.76066E+02
 -9.91305E+03 -9.09622E+03 -1.06793E+03 -1.05516E+04  4.19891E+03 -8.53306E+03  6.61715E+03 -3.97118E+03
  3.21341E+03  1.69418E+03 -5.46064E+02  1.14162E+03 -6.48733E+02 -3.01297E+03  2.67979E+03 -6.04318E+03
  9.95782E+03 -3.33608E+03  1.50817E+04  2.18954E+03  1.49567E+04  9.57097E+03  8.85510E+03  1.66036E+04
 -4.34998E+03  2.28973E+04 -1.97848E+04  1.59658E+04 -2.17273E+04  2.19046E+03 -1.86760E+04 -8.77969E+03
 -1.03860E+04 -1.64638E+04 -9.36748E+02 -1.37232E+04  4.31019E+03 -5.74490E+03  4.84076E+03 -4.52935E+03
  3.78173E+03 -2.69610E+03  3.42180E+03 -3.37207E+03  5.22686E+03 -3.06165E+03  9.39350E+03 -2.00201E+03
  1.03997E+04  2.02030E+03  4.93807E+03  8.69407E+03 -1.78095E+03  1.03412E+04 -1.04504E+04  5.54167E+03
 -1.41310E+04 -1.37170E+03 -8.77926E+03 -8.89303E+03 -1.46381E+03 -1.35390E+04  9.51168E+03 -1.33043E+04
  1.53307E+04 -8.86997E+03  1.70942E+04  2.44055E+03  1.21645E+04  1.07071E+04  3.42046E+03  1.40861E+04
 -7.09288E+03  1.31178E+04 -9.53129E+03  3.56403E+03 -6.34767E+03 -2.24965E+03 -3.96730E+03 -2.00434E+03
 -1.86706E+03 -6.37019E+02 -1.56131E+03  2.96992E+03 -5.69988E+03  2.89540E+03 -8.19481E+03 -1.07156E+02
 -4.87049E+03 -8.82339E+03  5.55308E+02 -1.24828E+04  6.71652E+03 -1.13957E+04  1.14620E+04 -3.63252E+03
  1.16095E+04  5.81772E+03  4.68141E+03  1.01766E+04 -1.96704E+03  1.30231E+04 -9.88183E+03  7.90971E+03
 -1.16943E+04  8.32528E+02 -9.68011E+03 -6.44069E+03 -4.85634E+02 -1.08423E+04  5.94258E+03 -9.22588E+03
  8.34769E+03 -1.85442E+03  5.89689E+03  2.05037E+03  1.78490E+03  4.39210E+03  5.84121E+02  1.60162E+03
  2.55241E+03  1.21001E+03  3.55163E+03  2.02184E+03  3.49740E+03  5.35940E+03  3.62984E+03  6.32725E+03
 -2.78646E+03  8.89401E+03 -8.50230E+03  9.35295E+03 -1.30062E+04  2.82765E+03 -1.34287E+04 -5.44789E+03
 -7.02345E+03 -1.39351E+04  3.52965E+03 -1.27922E+04  8.13379E+03 -6.80025E+03  9.91048E+03 -2.67092E+03
  6.92067E+03  5.13054E+03  3.04628E+03  6.76631E+03 -2.72041E+03  2.89945E+03 -6.00459E+03 -1.44353E+03
 -1.81896E+03 -5.39695E+03  2.59901E+03 -5.32917E+03  5.08092E+03 -2.41198E+03  5.28755E+03  1.12593E+03
  7.87124E+02  4.15846E+03  9.98387E+02  1.66910E+03 -1.55560E+03  2.01862E+03  1.36069E+03 -9.53902E+02
  2.84006E+03 -6.61374E+02  4.85735E+03  1.63004E+03  3.39129E+03  6.70141E+03 -2.64930E+02  1.03349E+04
 -5.84649E+03  4.43135E+03 -7.91771E+03  4.76868E+02 -6.78820E+03 -3.13871E+03 -4.73255E+03 -5.41197E+03
  5.26257E+02 -5.72028E+03  3.52368E+03 -1.86159E+03  3.59587E+03  3.77520E+03 -1.21527E+03  3.50066E+03
 -4.91766E+03  2.07741E+03 -5.19877E+03 -2.72273E+03 -5.01017E+03 -6.85218E+03  1.11769E+03 -6.13668E+03
  4.81300E+03 -2.35456E+03  4.73708E+03  4.02368E+02  3.47224E+03  1.20902E+03  2.05528E+02  3.21986E+03
 -2.56009E+03  1.98288E+03 -2.41912E+03 -2.23391E+03  6.53552E+02 -3.79757E+03  5.73662E+03 -4.91083E+03
  8.07035E+03  9.97527E+02  7.07109E+03  6.62489E+03  2.53934E+03  8.08222E+03 -3.48226E+03  7.25590E+03
 -5.66566E+03  4.35533E+03 -6.15020E+03 -1.64255E+02 -4.64489E+03 -5.14240E+03  1.08078E+03 -6.11085E+03
  2.92501E+03 -2.47659E+03  5.04514E+03  5.56562E+02  8.40048E+02  5.63701E+03 -1.16426E+03  2.37695E+03
 -1.11356E+03  1.97509E+03 -1.04613E+03  1.38079E+03  4.73306E+02  1.77181E+03 -5.46669E+02  1.31365E+03
 -1.65979E+03  4.16705E+03 -4.44886E+03  2.93251E+03 -6.88678E+03 -1.18048E+03 -8.25036E+03 -5.73838E+03
 -4.46712E+03 -1.09705E+04  2.97530E+03 -1.17728E+04  7.49225E+03 -8.19900E+03  1.06177E+04 -3.51328E+03
  1.09599E+04  2.33022E+03  5.62012E+03  6.87536E+03  5.26161E+01  7.56264E+03 -3.47248E+03  5.92613E+03
 -4.71541E+03  2.76268E+03 -2.42054E+03 -4.46673E+02 -1.26240E+03 -7.97409E+02 -5.04687E+02 -1.19105E+03
 -2.15834E+03  9.51202E+02 -1.79553E+03 -4.66171E+02 -2.46778E+02 -1.02125E+03 -6.18354E+02 -4.55441E+03
  3.84283E+03 -2.48493E+03  3.53946E+03  5.19427E+01  4.13009E+03  4.29419E+03  1.59631E+03  7.74695E+03
 -3.49033E+03  9.04539E+03 -8.47828E+03  5.50307E+03 -9.65798E+03 -1.20510E+03 -7.31925E+03 -6.84280E+03
 -3.35110E+03 -8.09461E+03  2.42941E+03 -7.30441E+03  4.19787E+03 -3.94298E+03  5.73802E+03  6.80930E+02
  3.39518E+03  2.23029E+03  1.36724E+02  2.20288E+03 -4.96151E+02  2.32185E+02  1.81595E+03 -2.26202E+03
  2.01442E+03 -1.47419E+03  2.71325E+03  2.22409E+03  1.77427E+03  2.43929E+03  7.30428E+02  4.35051E+03
 -2.35612E+03  3.21455E+03 -3.96809E+03 -1.03393E+03 -6.72776E+03 -3.83758E+03 -2.04322E+03 -6.22798E+03
  4.27333E+03 -4.39181E+03  6.07907E+03 -2.13187E+03  5.44030E+03  1.85653E+03  3.28621E+03  5.37789E+03
  3.61089E+02  5.93886E+03 -1.12872E+03  5.21584E+03 -3.66880E+03  3.38485E+03 -2.91725E+03  1.20275E+03
 -1.14732E+03 -1.19237E+03 -2.33009E+03 -3.89433E+02 -2.41383E+03  1.86029E+03 -3.84227E+03 -1.78395E+03
 -4.35216E+03 -4.29762E+03 -1.32786E+03 -5.74942E+03  3.44706E+03 -6.34034E+03  4.06773E+03 -2.43989E+03
  4.83186E+03 -8.19476E+02  2.66226E+03  4.23822E+03 -4.80536E+02  5.79208E+03 -4.17016E+03  1.99898E+03
