 $NMID ID='MM_0lb_SNR200_19hz_g45_68.RAW', FMTDAT='(8E13.5)'
 TRAMP=1., VOLUME=1. $END
  3.09811E+05  1.12246E+03  3.37079E+05  2.50940E+05  8.47842E+04  3.37399E+05 -1.33229E+05  2.50738E+05
 -1.89430E+05  8.17450E+04 -1.10644E+05 -3.26026E+04  1.32983E+03 -4.99649E+04  5.36222E+04 -1.30318E+01
  3.39705E+04  5.37239E+04 -1.73780E+04  7.53561E+04 -6.04450E+04  6.12643E+04 -8.30737E+04  3.09106E+04
 -7.93894E+04 -1.15874E+04 -5.66869E+04 -5.05439E+04 -1.40169E+04 -6.89531E+04  2.77581E+04 -4.43135E+04
  3.75900E+04  3.83176E+03  1.57428E+04  4.61497E+04 -3.48957E+04  4.56029E+04 -6.60694E+04 -9.27337E+02
 -5.12805E+04 -5.57676E+04 -5.08198E+03 -7.43228E+04  3.32615E+04 -5.19734E+04  4.58660E+04 -1.64210E+04
  4.12031E+04  1.08851E+04  3.05790E+04  2.42200E+04  1.60918E+04  2.72441E+04 -4.45162E+03  2.73288E+04
 -2.12897E+04  1.22542E+04 -1.84227E+04 -3.63950E+03  2.54638E+03 -7.36896E+03  2.02286E+04  1.06484E+04
  7.34866E+03  3.31705E+04 -3.00975E+04  3.44158E+04 -6.01887E+04  2.87447E+03 -5.58673E+04 -4.11034E+04
 -1.19087E+04 -6.14100E+04  3.79202E+04 -4.32487E+04  5.34685E+04 -3.03603E+03  3.18940E+04  3.05382E+04
 -6.33005E+03  3.29012E+04 -2.77462E+04  1.25202E+04 -2.70888E+04 -6.01569E+03 -1.45231E+04 -9.62760E+03
 -7.13499E+03 -1.02924E+04 -6.22680E+02 -1.58485E+04  6.03788E+03 -2.24920E+04  1.47751E+04 -1.41918E+04
  1.18065E+04  4.36990E+03 -5.07284E+03  1.33930E+04 -1.73644E+04 -1.52284E+03 -7.99203E+03 -2.92093E+04
  2.01641E+04 -3.98012E+04  4.48075E+04 -1.85500E+04  4.20312E+04  1.78567E+04  1.37541E+04  4.13132E+04
 -1.38635E+04  3.04510E+04 -2.35247E+04  3.60508E+02 -8.66025E+03 -2.65603E+04  2.00881E+04 -3.05574E+04
  3.78918E+04 -7.27219E+03  3.16107E+04  2.30861E+04  1.47646E+04  4.18680E+04 -6.98907E+03  4.50041E+04
 -2.83302E+04  2.88203E+04 -3.69788E+04  7.19324E+03 -3.73716E+04 -1.43448E+04 -2.14193E+04 -3.30150E+04
  6.46650E+03 -3.40899E+04  2.96527E+04 -1.27958E+04  2.67856E+04  1.13218E+04  3.21347E+03  1.74712E+04
 -1.26634E+04  5.66365E+03 -9.43292E+03 -7.15793E+03  5.32798E+03 -9.92805E+03  1.78176E+04  6.36238E+03
  1.11562E+04  2.07554E+04 -7.49591E+03  2.28266E+04 -2.02631E+04  9.95502E+03 -2.40153E+04 -6.55204E+03
 -1.58008E+04 -1.61771E+04 -5.70723E+03 -1.71932E+04  3.79654E+03 -1.35282E+04  1.24817E+04 -1.38285E+04
  2.16720E+04 -1.21890E+04  2.75774E+04 -2.68374E+02  1.99442E+04  1.57152E+04  3.88461E+03  3.22583E+04
 -1.59918E+04  2.73681E+04 -2.60706E+04  9.55227E+03 -2.05416E+04 -1.04225E+04 -3.04739E+03 -1.42884E+04
  2.91841E+03 -3.40987E+03 -1.44720E+03  5.76814E+03 -1.24013E+04  5.28436E+03 -1.31324E+04 -4.53514E+03
 -8.11827E+03 -1.56586E+04  4.81512E+03 -1.97646E+04  1.19646E+04 -1.35128E+04  1.43670E+04 -8.61062E+02
  7.90049E+03  1.04775E+04  2.43400E+02  1.49000E+04 -9.30567E+03  9.07429E+03 -1.46830E+04 -3.23499E+03
 -1.07622E+04 -1.48337E+04 -1.24112E+03 -1.88598E+04  8.20891E+03 -1.39199E+04  1.56950E+04 -8.02099E+03
  1.38740E+04  9.47866E+02  9.95630E+03  3.56554E+03  4.18733E+03  1.04510E+03  8.04041E+03 -7.11265E+02
  1.31112E+04  2.84475E+03  1.45194E+04  1.27001E+04  8.69707E+03  2.35050E+04 -2.12675E+03  2.53012E+04
 -1.41629E+04  1.99696E+04 -2.35943E+04  9.81708E+03 -2.41627E+04 -1.29155E+03 -2.13837E+04 -1.34240E+04
 -9.45542E+03 -2.02037E+04  6.21276E+03 -1.78531E+04  1.59586E+04 -1.06444E+04  1.45993E+04  4.11758E+03
  6.66617E+03  1.07652E+04 -7.28061E+03  9.34932E+03 -1.33705E+04  2.29189E+03 -1.00709E+04 -7.73162E+03
 -3.68314E+00 -1.23628E+04  5.69532E+03 -9.18843E+03  6.84468E+03 -7.62497E+02  1.57705E+03  4.62698E+03
 -4.86045E+03  1.08130E+03 -2.02820E+03 -4.19054E+03  1.58546E+03 -9.69842E+03  8.25545E+03 -9.54978E+03
  1.26627E+04 -4.59602E+03  1.08761E+04  2.44455E+03  9.78395E+03  1.03793E+04  4.77703E+03  1.32371E+04
 -1.07195E+03  1.61376E+04 -8.98077E+03  8.94931E+03 -1.05486E+04  3.47665E+03 -8.86453E+03 -1.76760E+03
 -4.01608E+03 -2.80677E+03 -8.66252E+02  1.12528E+03 -1.11322E+03  1.76448E+03 -3.99792E+03  2.87838E+03
 -8.26556E+03 -1.28436E+03 -8.37022E+03 -5.72752E+03 -4.07164E+03 -1.12295E+04  3.68099E+03 -8.18706E+03
  6.43655E+03 -3.36653E+03  4.90734E+03  2.94651E+03  5.21048E+02  4.36850E+03 -3.49493E+03 -5.91113E+02
 -3.48903E+03 -5.50154E+03 -1.72186E+03 -7.86459E+03  3.83059E+03 -7.39333E+03  9.12969E+03 -4.07847E+03
  1.12940E+04 -4.29101E+02  8.40101E+03  4.81750E+03  1.56145E+03  8.43442E+03 -5.63546E+03  8.53407E+03
 -7.12230E+03  2.88098E+03 -2.15689E+03 -5.41435E+02  2.07373E+03 -1.98065E+03  5.55507E+03 -1.80418E+03
  4.39542E+03  2.46710E+03  1.01036E+03  7.04358E+03 -4.31157E+03  7.54587E+03 -7.77287E+03  1.96907E+03
 -5.00168E+03 -2.96765E+03  1.03897E+03 -6.77987E+03  3.22662E+03 -1.97682E+03  2.98291E+03  8.37100E+02
  4.73602E+02  3.21921E+03 -4.18199E+03  5.31559E+03 -4.33790E+03  1.76579E+03 -4.08979E+03 -1.01422E+03
 -1.86415E+03 -5.50933E+03  3.43491E+02 -6.78085E+03  5.20953E+03 -4.20617E+03  5.40104E+03  4.06088E+02
  4.56176E+03  5.58501E+03  8.36318E+02  7.58380E+03 -5.08428E+03  3.63211E+03 -3.22630E+03 -5.96752E+02
 -5.86279E+03 -5.79492E+03 -1.58735E+03 -5.13759E+03  2.41756E+03 -5.04314E+03  2.45697E+03 -2.14583E+03
  2.46690E+03 -2.47211E+02  4.16694E+02  1.50456E+03  7.90849E+02  2.79716E+02 -4.58409E+02 -1.64402E+03
  2.34239E+03 -4.33135E+02  5.12704E+03  2.75061E+02  6.17305E+03  2.83840E+03  4.83004E+03  6.07950E+03
 -1.58659E+03  7.92985E+03 -7.26287E+03  6.11142E+03 -9.65619E+03  1.90254E+02 -7.05723E+03 -2.80153E+03
 -3.33788E+03 -5.52238E+03 -1.14281E+03 -3.01054E+03  2.20459E+03 -9.14437E+02  8.29506E+02 -2.16212E+03
  1.18972E+03 -1.56343E+03  3.70232E+03 -3.88242E+03  4.01124E+03 -1.76729E+03  2.15977E+03  6.65612E+02
  4.87493E+03  1.05129E+03  1.28790E+03  3.52270E+03 -1.03741E+03  2.96135E+03 -4.70353E+03  3.04643E+03
 -4.37175E+03 -1.26279E+03 -1.41752E+03 -2.97775E+03 -8.15310E+00 -4.71358E+03  3.62426E+03 -4.94770E+03
  5.10954E+03 -3.16851E+03  6.00151E+03 -3.06980E+02  4.94930E+03  4.47769E+03  3.25294E+02  5.60548E+03
 -2.07628E+03  6.80533E+03 -3.65248E+03  1.29764E+03 -1.70370E+03 -1.29595E+03 -1.04894E+03 -9.35762E+02
  2.98653E+02  1.11714E+03 -1.10226E+03  1.97239E+02 -2.26610E+03  1.57279E+03 -3.99512E+03 -1.27859E+02
 -1.05605E+03 -4.66221E+03  8.30517E+02 -3.40825E+03  2.92065E+03 -4.22856E+03  3.24267E+03 -1.34882E+03
  3.18444E+03  2.68526E+03  1.54580E+03  2.36163E+03 -1.73263E+03  4.84335E+03 -2.21993E+03  2.01450E+03
 -3.21847E+03 -1.52944E+02 -2.72837E+03 -2.28303E+03 -4.00751E+02 -3.40604E+03  1.82381E+03 -2.93278E+03
  1.69703E+03 -1.79839E+03  1.22223E+03  9.45081E+01  2.48794E+02  8.26733E+02  3.99244E+02  8.15470E+02
  1.34019E+03  4.38733E+01  9.23743E+02 -1.70643E+01  7.03577E+02  9.55013E+02  1.41171E+03  2.45170E+03
 -1.35806E+03  3.43898E+03 -2.63262E+03  3.11634E+03 -1.94645E+03  3.67126E+02 -3.94846E+03 -6.92987E+01
 -2.06308E+03 -3.77876E+03  7.79490E+02 -5.84719E+03  1.87838E+03 -1.85851E+03  2.67780E+03 -7.35425E+02
  3.64728E+03  1.77476E+03  5.04650E+02  2.30669E+03 -9.23540E+02  1.13889E+03 -5.98330E+02  7.29055E+01
 -1.45330E+03 -1.55433E+03  6.47619E+02 -1.49885E+03  1.78861E+03 -9.32194E+02  1.25036E+03  2.83882E+02
  9.13677E+02  4.94109E+02  6.43232E+02 -8.10373E+02 -2.03927E+02  9.81068E+02 -3.17836E+02 -1.10972E+03
  6.84310E+02 -6.07534E+01  2.41199E+03  8.19863E+02  3.39751E+02  2.56507E+03 -2.21764E+02  1.97070E+03
 -2.13360E+03  4.30958E+02 -1.67876E+03  8.80200E+02 -1.65131E+03  3.42537E+02 -5.65081E+02 -4.62113E+02
 -2.12486E+02 -1.30062E+03  7.70893E+02  2.78447E+02  4.20710E+02  1.62678E+03 -5.84778E+02  1.59393E+03
 -1.12162E+03  1.72944E+03 -2.05528E+03 -7.34107E+02 -8.75983E+02 -1.28649E+03 -1.12111E+03 -8.21517E+02
  1.15068E+03 -1.00505E+03 -6.33755E+02 -3.44569E+02  1.57295E+03  3.08564E+02  1.02096E+03  5.31803E+02
 -9.49815E+02  4.77478E+02 -1.35406E+03  2.78487E+01 -1.11755E+02 -6.77885E+01  1.48472E+03 -1.75609E+03
  1.52422E+03  5.37480E+02  2.54333E+03  1.84517E+02  1.43939E+03  1.32442E+03 -1.14914E+03  1.50309E+03
 -1.48556E+03  2.11454E+01 -1.63706E+03 -8.42511E+02 -1.77049E+03 -8.76083E+01  6.09411E+02 -7.81134E+02
  2.10920E+03 -1.13308E+03  1.12150E+03 -7.26068E+02 -1.59425E+02  1.73007E+03 -1.08941E+03  1.43599E+03
 -1.48420E+02  1.38316E+03  8.55697E+01 -4.51046E+02  6.18550E+02  1.87070E+02  3.79281E+02  5.79500E+02
 -3.20648E+02  9.98183E+02 -1.97418E+03  6.99433E+02 -1.27497E+03  1.38966E+02 -3.05530E+03 -5.77603E+02
 -1.31223E+03 -1.88774E+03  5.39466E+02 -3.14203E+03  6.82278E+02 -2.75143E+03  1.65795E+03 -1.31691E+03
  2.34049E+03  1.97835E+02  1.55929E+03  1.88915E+03 -8.69920E+02  1.66665E+02 -1.26455E+03  1.45937E+03
 -6.99225E+02  4.47014E+02 -7.22092E+02 -1.21413E+03 -1.81196E+03 -3.53509E+02  1.14278E+01 -7.63496E+02
 -1.60526E+03 -3.87700E+02 -1.68489E+03 -1.95777E+02  2.64115E+02 -3.96638E+02  2.33692E+02 -1.70189E+02
  6.27641E+02 -1.92503E+02  3.56991E+02 -1.78366E+02  8.41690E+02  1.07957E+03  8.00532E+02  1.48694E+03
 -3.14460E+01  2.14124E+03 -9.71622E+02  6.55518E+02 -2.27640E+03 -8.91922E+02 -9.09768E+02 -7.99217E+02
 -9.87821E+02 -7.75757E+02 -2.05050E+02 -1.76640E+03 -2.58432E+02 -3.62327E+02 -7.68672E+02  1.28000E+03
  1.03050E+02 -1.26832E+02  8.39013E+02  8.51958E+02 -1.26415E+02 -7.48789E+02  8.98939E+01  6.31705E+01
  1.34343E+03  4.53135E+02  8.45187E+01 -6.48877E+01  7.84110E+02 -8.11344E+01  1.48064E+03 -3.61032E+02
 -1.35221E+02  7.47312E+02 -7.72975E+02  2.17530E+02 -1.11474E+03 -4.07872E+02 -1.02689E+03 -1.03539E+03
 -4.37320E+02 -1.07897E+03  2.71895E+02  2.68588E+02  8.23270E+02 -4.59387E+02  3.81765E+02  5.96013E+02
  1.40027E+02  7.51395E+02 -4.52316E+02  4.38169E+02 -5.64418E+02 -8.77043E+02  1.03905E+03  2.81326E+02
 -9.12150E+01  3.91390E+02 -9.97054E+02  4.67988E+02 -3.69358E+02  7.36254E+02 -1.28424E+03 -8.62781E+02
 -1.45096E+03 -4.58185E+02 -8.82522E+02 -1.26643E+03  8.99889E+02 -2.08365E+03  9.62014E+02 -6.14220E+02
  6.63360E+02 -6.67909E+02 -1.16746E+03  1.51761E+02  1.33629E+01  9.63817E+02 -3.40066E+02  1.56465E+02
