 $NMID ID='MM_0lb_SNR200_19hz_g50_42.RAW', FMTDAT='(8E13.5)'
 TRAMP=1., VOLUME=1. $END
  3.10142E+05  1.99707E+02  3.38397E+05  2.51010E+05  8.54782E+04  3.36652E+05 -1.32203E+05  2.49459E+05
 -1.89937E+05  8.19941E+04 -1.10633E+05 -3.24408E+04  1.68310E+03 -5.03481E+04  5.29066E+04  5.41563E+02
  3.53723E+04  5.27579E+04 -1.62116E+04  7.47501E+04 -6.03196E+04  6.25814E+04 -8.24748E+04  3.23870E+04
 -8.04217E+04 -1.00767E+04 -5.52383E+04 -5.06689E+04 -1.47373E+04 -6.78660E+04  2.65114E+04 -4.46395E+04
  3.93573E+04  3.54110E+03  1.50860E+04  4.83031E+04 -3.44405E+04  4.61877E+04 -6.53297E+04 -1.71421E+03
 -5.26003E+04 -5.68634E+04 -5.93492E+03 -7.44726E+04  3.29289E+04 -5.35845E+04  4.64192E+04 -1.66309E+04
  4.10488E+04  1.18847E+04  3.16573E+04  2.54234E+04  1.55080E+04  2.79276E+04 -4.44651E+03  2.71184E+04
 -2.16417E+04  1.19635E+04 -2.00351E+04 -3.96942E+03  4.05338E+03 -7.36842E+03  2.17044E+04  1.12604E+04
  7.44756E+03  3.31340E+04 -3.04609E+04  3.36060E+04 -6.07627E+04  1.84947E+03 -5.58862E+04 -4.22661E+04
 -1.24006E+04 -6.19768E+04  3.96663E+04 -4.32783E+04  5.50067E+04 -1.36364E+03  3.29429E+04  3.13611E+04
 -6.53741E+03  3.31204E+04 -2.90283E+04  1.33721E+04 -2.80550E+04 -5.63381E+03 -1.48997E+04 -9.60937E+03
 -7.01331E+03 -1.18105E+04 -1.61217E+03 -1.66728E+04  5.95950E+03 -2.22940E+04  1.49660E+04 -1.32019E+04
  1.22697E+04  3.91234E+03 -5.72239E+03  1.24280E+04 -1.93688E+04 -3.10271E+03 -8.12376E+03 -3.08766E+04
  2.04663E+04 -4.02664E+04  4.57352E+04 -1.79614E+04  4.20378E+04  1.77545E+04  1.42487E+04  4.06451E+04
 -1.50162E+04  3.11981E+04 -2.41769E+04  9.19232E+02 -7.96651E+03 -2.64662E+04  2.03535E+04 -3.13203E+04
  3.78746E+04 -6.57379E+03  3.20646E+04  2.26923E+04  1.46006E+04  4.29427E+04 -8.21305E+03  4.59919E+04
 -2.84519E+04  3.02308E+04 -3.74506E+04  7.99884E+03 -3.84523E+04 -1.45590E+04 -2.02603E+04 -3.44321E+04
  6.53789E+03 -3.49235E+04  2.95722E+04 -1.23960E+04  2.78304E+04  1.08353E+04  3.26925E+03  1.91515E+04
 -1.24556E+04  7.46960E+03 -9.09176E+03 -7.60613E+03  6.14688E+03 -1.12568E+04  1.72664E+04  5.96293E+03
  1.14083E+04  2.30637E+04 -7.15653E+03  2.27712E+04 -2.06526E+04  9.15100E+03 -2.60649E+04 -6.70279E+03
 -1.65289E+04 -1.61204E+04 -5.64410E+03 -1.63633E+04  3.50694E+03 -1.49790E+04  1.21566E+04 -1.45464E+04
  2.20337E+04 -1.11724E+04  2.87296E+04  8.50798E+02  2.15142E+04  1.65836E+04  4.73909E+03  3.23489E+04
 -1.68442E+04  2.66861E+04 -2.62874E+04  8.62699E+03 -1.96944E+04 -1.05878E+04 -3.96835E+03 -1.46610E+04
  2.58313E+03 -4.14634E+03 -2.46245E+03  5.30635E+03 -1.15989E+04  5.78077E+03 -1.43805E+04 -5.16653E+03
 -8.39958E+03 -1.60488E+04  4.38336E+03 -1.92632E+04  1.26391E+04 -1.43410E+04  1.42847E+04 -1.48534E+03
  8.48391E+03  1.07459E+04 -1.57663E+03  1.47067E+04 -1.04174E+04  8.33619E+03 -1.55215E+04 -3.33891E+03
 -1.05883E+04 -1.43900E+04 -7.04706E+02 -1.83770E+04  9.49428E+03 -1.51670E+04  1.46694E+04 -8.41412E+03
  1.47414E+04  4.24713E+02  1.05108E+04  3.22068E+03  5.60599E+03  1.38607E+02  7.09071E+03 -1.27321E+03
  1.37116E+04  2.11116E+03  1.40992E+04  1.19021E+04  8.47116E+03  2.32500E+04 -2.32211E+03  2.60815E+04
 -1.63861E+04  2.01270E+04 -2.50171E+04  9.86162E+03 -2.46530E+04 -1.60319E+03 -2.15965E+04 -1.40534E+04
 -1.01606E+04 -2.16687E+04  6.99432E+03 -1.88806E+04  1.61407E+04 -1.12627E+04  1.51410E+04  3.43605E+03
  6.59197E+03  1.10989E+04 -7.31566E+03  1.04619E+04 -1.32395E+04  2.42790E+03 -1.03697E+04 -6.40834E+03
 -4.52380E+02 -1.23990E+04  5.99819E+03 -9.70181E+03  8.27275E+03 -1.15231E+03  1.41282E+03  4.74399E+03
 -5.45834E+03  1.56349E+02 -3.00002E+03 -4.43553E+03  2.94498E+02 -1.02770E+04  7.67191E+03 -9.23591E+03
  1.18156E+04 -4.92246E+03  1.20760E+04  3.40942E+03  9.47585E+03  9.44880E+03  4.39576E+03  1.36381E+04
 -1.06863E+03  1.54296E+04 -8.88616E+03  9.69130E+03 -1.06716E+04  3.18799E+03 -9.60433E+03 -2.00382E+03
 -3.86818E+03 -3.63918E+03 -7.70739E+02  1.45392E+03 -2.01764E+03  1.86925E+03 -2.79760E+03  3.19522E+03
 -6.51358E+03 -4.51853E+00 -9.36123E+03 -8.43979E+03 -3.10301E+03 -1.12728E+04  2.72114E+03 -8.49557E+03
  6.77826E+03 -3.93175E+03  5.15554E+03  3.14345E+03  6.32263E+02  3.79059E+03 -3.15769E+03 -7.40420E+02
 -2.71576E+03 -5.16573E+03 -8.12297E+02 -6.90600E+03  4.47321E+03 -8.29339E+03  1.06354E+04 -3.74258E+03
  1.12435E+04  1.29510E+03  8.68123E+03  5.88886E+03  1.82576E+03  8.66075E+03 -5.47187E+03  8.36422E+03
 -6.43092E+03  1.90576E+03 -4.19419E+03 -1.87748E+03  1.98567E+03 -5.93349E+02  5.34210E+03 -2.92908E+01
  3.22850E+03  3.00627E+03  7.93189E+02  6.41988E+03 -4.18632E+03  6.04533E+03 -7.41603E+03  1.32105E+03
 -4.27390E+03 -3.26825E+03 -4.35217E+02 -5.17716E+03  2.86967E+03 -3.51785E+03  3.51522E+03  3.05919E+02
 -6.07635E+01  2.81508E+03 -2.86013E+03  4.70863E+03 -4.24861E+03  3.47436E+03 -3.75010E+03  2.55534E+02
 -2.24600E+03 -5.44252E+03  2.22104E+02 -5.78673E+03  5.51544E+03 -5.19733E+03  6.46804E+03  1.87514E+03
  4.66200E+03  5.77065E+03  9.88587E+02  6.50742E+03 -4.55170E+03  4.18686E+03 -5.60159E+03  1.09651E+02
 -5.36192E+03 -5.84955E+03 -2.38326E+03 -4.87179E+03  1.58206E+03 -4.07374E+03  1.99057E+03 -2.72847E+03
  3.38447E+03  6.85907E+02  3.26617E+02  1.74682E+03  9.29187E+02  1.17527E+02  1.10243E+02 -1.49958E+03
  3.67822E+03 -1.60141E+03  4.26740E+03  4.17957E+02  5.17974E+03  2.26917E+03  6.45989E+03  6.90789E+03
 -1.63113E+03  8.48964E+03 -7.03696E+03  6.13322E+03 -1.03745E+04 -2.34062E+01 -7.60200E+03 -2.06822E+03
 -3.77862E+03 -5.79113E+03 -8.12056E+02 -5.18094E+03  2.13779E+03 -1.79035E+03  2.16562E+03 -1.93052E+03
  1.87775E+03 -1.27916E+03  1.72748E+03 -1.98510E+03  2.80637E+03  3.74093E+02  2.94874E+03  4.24756E+02
  3.36879E+03  7.82802E+02  9.48546E+02  2.58890E+03 -1.33689E+03  2.48519E+03 -4.98318E+03  2.09114E+03
 -5.09183E+03 -8.98239E+02 -2.47390E+03 -3.47244E+03  1.99322E+01 -4.85401E+03  3.49438E+03 -5.07841E+03
  4.97607E+03 -2.92579E+03  7.25790E+03  3.73017E+02  4.54713E+03  4.13514E+03  1.21011E+03  6.79331E+03
 -2.54198E+03  6.10437E+03 -3.05133E+03  8.04611E+02 -2.49498E+03 -1.31617E+03 -1.52221E+03 -9.92603E+02
 -7.47489E+02  6.08385E+02 -8.57264E+02  2.09072E+03 -1.44971E+03  7.03849E+02 -3.56495E+03 -9.62714E+02
 -2.14084E+03 -3.94573E+03  1.70802E+03 -4.58687E+03  2.61377E+03 -3.92571E+03  3.70064E+03 -2.21424E+03
  4.10825E+03  2.34832E+03  8.81375E+02  3.28054E+03 -8.29187E+02  3.81103E+03 -3.60788E+03  1.80366E+03
 -3.48127E+03  1.77538E+03 -3.59345E+03 -1.68236E+03  5.81608E+02 -2.61694E+03  2.64445E+03 -2.09687E+03
  2.20523E+03 -1.03926E+03  9.08194E+02  3.77842E+02  5.05459E+02  1.62312E+03  1.85951E+03  5.93174E+02
  1.49896E+03  4.25143E+02  9.57609E+02  5.40570E+02  5.83571E+02  2.65922E+03  2.04051E+03  1.79658E+03
 -1.53173E+03  2.39414E+03 -8.16103E+02  3.78349E+03 -3.27761E+03  1.02270E+03 -3.75455E+03  2.42243E+02
 -7.33329E+02 -4.25414E+03  7.25800E+02 -4.60887E+03  1.03083E+03 -1.78596E+03  1.97918E+03 -6.07971E+02
  1.76987E+03  1.51786E+03 -5.97560E+02  2.66599E+03 -5.95107E+02  1.16259E+03 -1.01676E+03  5.07339E+02
 -1.98550E+02 -1.68311E+03  5.28561E+02 -1.47972E+03  1.01740E+02 -7.34787E+02  1.19851E+03 -3.17126E+02
  1.47182E+03  1.10440E+02  4.26268E+02 -1.80336E+03 -2.74092E+02  1.33132E+03  2.09344E+03  1.38566E+02
  5.97507E+02 -8.52407E+02  1.47944E+03  1.23647E+03  5.77819E+02  1.62020E+03  4.24020E+02  2.95019E+03
 -1.90616E+03  7.94717E+02 -1.56319E+03  1.47431E+03 -1.56682E+03 -7.82487E+02  1.27724E+01 -1.12512E+03
  4.22972E+02 -1.95868E+03  8.89051E+02 -1.51557E+02  1.12542E+03  1.19158E+03 -5.92871E+02  2.61718E+02
 -1.31408E+03  1.23458E+03 -3.16588E+02 -1.64333E+03 -1.21312E+03 -2.48395E+03 -1.04607E+03 -9.54018E+02
  5.93532E+02 -1.24893E+02  9.89725E+02  9.97450E+01  1.69168E+03 -3.77122E+02  1.49288E+02  1.12043E+03
  3.56021E+02  1.07013E+03 -8.83064E+02 -4.43213E+02  1.02683E+03 -8.75987E+02  2.22552E+03  2.85529E+02
  8.70474E+02  9.77781E+02  2.31605E+03  1.56971E+03  5.17010E+02  1.71627E+03  4.39890E+02  2.19423E+03
 -2.24188E+03  1.31541E+03 -2.10364E+03 -7.09434E+02  3.88293E+02 -8.29879E+02 -4.21800E+02 -6.52974E+02
  1.51033E+03 -2.11620E+03  5.71213E+02  1.77770E+03  3.54700E+02  1.69723E+03  4.56769E+01  1.58099E+03
  9.24289E+02  4.93763E+02  5.40547E+02 -2.27842E+02  5.63429E+02  2.30919E+02 -7.76446E+01  5.40534E+02
 -4.25947E+02  7.65448E+02 -1.75168E+03  3.28458E+02 -1.94118E+03  6.63780E+02 -2.76259E+03 -1.87455E+02
 -1.34847E+03 -7.20395E+02  1.18017E+03 -3.97170E+03  1.91713E+03 -2.84675E+03  2.60903E+03 -9.74092E+02
  2.46124E+03 -3.36932E+02  1.32132E+03  1.65375E+03 -6.87786E+02  1.89728E+03 -1.75626E+03  9.71231E+02
 -4.44662E+02  8.17815E+02 -1.21672E+03  5.08757E+02 -5.62808E+02  9.08373E+02  2.58315E+02 -3.22111E+02
 -2.15440E+02  6.06043E+01 -9.43859E+02  7.36084E-01  6.64595E+02 -5.44091E+02  2.61696E+02 -4.70169E+02
  1.69067E+03 -1.09254E+03 -5.90718E+02  4.48989E+02  1.76612E+03  2.75894E+02 -8.97028E+02  1.30609E+03
 -3.33174E+02  9.81087E+02 -2.08069E+03  1.34630E+03 -1.05269E+03 -6.25966E+02 -1.22392E+03 -1.27804E+03
 -7.44097E+02 -1.93191E+03  1.05954E+02 -8.33407E+02  1.75676E+03  2.88805E+02  1.59934E+03 -1.41144E+02
  1.21567E+01  1.82723E+03  2.73057E+02  1.60963E+02  5.42358E+02  1.17728E+03  3.20651E+01  2.87147E+02
 -1.01266E+03  2.60258E+02 -1.46998E+02 -1.81342E+02 -8.82025E+01  1.06586E+03  8.04609E+01  2.50929E+02
 -4.99473E+02  9.19807E+02 -7.95211E+02  2.17394E+02 -9.13144E+02 -2.29060E+02 -3.79220E+01 -7.12814E+02
  1.24615E+03 -8.58618E+02  4.36852E+02  1.69545E+02  1.40304E+03 -1.31292E+03  3.60678E+02  1.90983E+03
 -3.75780E+02  2.04748E+02  1.09572E+01  1.69054E+02 -1.10532E+03  4.63576E+02 -1.07037E+03  1.04265E+02
  1.30724E+02 -5.16471E+02  3.96441E+01 -3.54938E+02 -6.68377E+02  5.04700E+02 -1.59778E+03  1.20400E+02
 -9.96779E+02  6.96378E+02 -8.54005E+01 -1.26063E+03  3.01760E+02 -1.91261E+03 -3.50619E+02 -1.21472E+03
  1.65755E+03  5.48750E+02 -5.57359E+02 -5.43297E+01 -9.82681E+02  3.14036E+02 -2.96275E+02  6.48452E+02
