 $NMID ID='MM_0lb_SNR200_15hz_g55_72.RAW', FMTDAT='(8E13.5)'
 TRAMP=1., VOLUME=1. $END
  3.10120E+05 -9.05783E+01  3.37751E+05  2.50436E+05  8.46614E+04  3.36871E+05 -1.32616E+05  2.50570E+05
 -1.90110E+05  8.33211E+04 -1.11922E+05 -3.25212E+04  3.32929E+02 -5.07044E+04  5.35736E+04  5.77612E+02
  3.53635E+04  5.35455E+04 -1.66312E+04  7.55515E+04 -6.19642E+04  6.37297E+04 -8.48243E+04  3.18551E+04
 -8.14733E+04 -1.22913E+04 -5.72341E+04 -5.33974E+04 -1.53235E+04 -6.94337E+04  2.87565E+04 -4.66725E+04
  4.09323E+04  3.13258E+03  1.68626E+04  4.77381E+04 -3.49080E+04  4.75508E+04 -6.61837E+04  2.86370E+02
 -5.27222E+04 -5.80571E+04 -6.87299E+03 -7.69552E+04  3.32017E+04 -5.58477E+04  4.76434E+04 -1.73435E+04
  4.45383E+04  9.17373E+03  3.18322E+04  2.62103E+04  1.49613E+04  2.93851E+04 -5.12075E+03  2.76800E+04
 -2.03690E+04  1.30068E+04 -1.80544E+04 -5.13061E+03  4.52294E+03 -7.52967E+03  2.16469E+04  1.23788E+04
  7.69202E+03  3.44809E+04 -3.15798E+04  3.49895E+04 -6.43827E+04  2.73022E+03 -5.72968E+04 -4.29635E+04
 -1.39034E+04 -6.37327E+04  4.08551E+04 -4.56780E+04  5.77161E+04 -7.64254E+02  3.38732E+04  3.21467E+04
 -5.57363E+03  3.68523E+04 -3.00778E+04  1.66112E+04 -3.01214E+04 -5.79227E+03 -1.69300E+04 -1.11882E+04
 -9.36335E+03 -1.34442E+04 -1.19078E+03 -1.87844E+04  7.61346E+03 -2.20207E+04  1.57977E+04 -1.46600E+04
  1.17408E+04  4.45273E+03 -8.26498E+03  1.18918E+04 -2.00707E+04 -5.16873E+03 -7.37023E+03 -3.40332E+04
  2.34031E+04 -4.45685E+04  4.83214E+04 -1.93922E+04  4.45134E+04  1.89277E+04  1.57344E+04  4.57272E+04
 -1.60886E+04  3.36823E+04 -2.55180E+04  2.87632E+03 -9.29439E+03 -2.82899E+04  2.05312E+04 -3.38882E+04
  4.14051E+04 -9.34215E+03  3.64015E+04  2.27116E+04  1.83950E+04  4.72911E+04 -7.58227E+03  5.03429E+04
 -3.22178E+04  3.43880E+04 -4.27011E+04  8.62352E+03 -4.11517E+04 -1.59300E+04 -2.37739E+04 -3.77219E+04
  7.76981E+03 -3.84954E+04  3.19492E+04 -1.42079E+04  2.88395E+04  1.08637E+04  3.82129E+03  1.83624E+04
 -1.46725E+04  7.92672E+03 -1.07305E+04 -7.41772E+03  6.38872E+03 -1.03579E+04  1.72126E+04  6.47205E+03
  1.34435E+04  2.22106E+04 -6.69804E+03  2.51280E+04 -2.20595E+04  1.13529E+04 -2.83178E+04 -5.40515E+03
 -2.00821E+04 -1.71104E+04 -7.85736E+03 -1.96028E+04  4.28055E+03 -1.96959E+04  1.55540E+04 -1.79912E+04
  2.50088E+04 -1.32370E+04  3.26124E+04  1.56776E+03  2.35382E+04  1.96824E+04  5.04163E+03  3.52357E+04
 -1.72384E+04  3.01514E+04 -2.81880E+04  1.04136E+04 -2.23962E+04 -1.03222E+04 -3.82329E+03 -1.32420E+04
  1.76884E+03 -2.63989E+03 -4.73844E+03  6.23107E+03 -1.61950E+04  5.67538E+03 -1.70103E+04 -6.66010E+03
 -1.11677E+04 -1.93990E+04  4.61499E+03 -2.30909E+04  1.54034E+04 -1.78627E+04  1.83135E+04 -1.39193E+03
  1.16355E+04  1.33213E+04 -1.10144E+03  1.86665E+04 -1.17543E+04  1.06058E+04 -1.83279E+04 -2.54683E+03
 -1.45970E+04 -1.70003E+04 -2.41183E+03 -2.24023E+04  1.09503E+04 -1.86465E+04  1.91153E+04 -9.41796E+03
  1.79100E+04  2.48672E+02  1.34049E+04  4.44308E+03  6.96850E+03  6.98703E+02  9.70998E+03 -1.59164E+03
  1.66366E+04  2.15636E+03  1.97065E+04  1.51372E+04  1.34544E+04  2.90762E+04 -2.76570E+03  3.29723E+04
 -2.01792E+04  2.74682E+04 -3.13250E+04  1.27434E+04 -3.28412E+04 -2.32069E+03 -2.78733E+04 -1.83452E+04
 -1.03103E+04 -2.63604E+04  9.92067E+03 -2.44258E+04  2.22700E+04 -1.24140E+04  1.83943E+04  5.56607E+03
  8.11685E+03  1.42903E+04 -9.42892E+03  1.22838E+04 -1.62997E+04  2.32442E+03 -1.26152E+04 -8.36367E+03
 -1.00031E+02 -1.62811E+04  7.53206E+03 -1.13800E+04  1.02155E+04 -1.03199E+03  2.86455E+03  6.54564E+03
 -7.13837E+03  2.52962E+03 -6.51737E+03 -4.94048E+03 -1.13159E+03 -1.43742E+04  9.60290E+03 -1.39185E+04
  1.64837E+04 -7.37170E+03  1.64768E+04  2.53220E+03  1.44447E+04  1.30687E+04  7.42856E+03  2.05480E+04
 -3.32079E+03  2.20140E+04 -1.40335E+04  1.30654E+04 -1.55000E+04  1.85371E+03 -1.03792E+04 -2.99355E+03
 -5.30722E+03 -3.29535E+03 -5.91335E+02  1.68456E+03 -1.43085E+03  2.19866E+03 -5.29412E+03  5.12307E+03
 -1.10724E+04 -1.87241E+03 -1.17204E+04 -8.93835E+03 -5.39849E+03 -1.48498E+04  4.26658E+03 -9.95896E+03
  1.03867E+04 -5.12829E+03  8.00674E+03  4.18489E+03  5.88646E+02  3.22396E+03 -6.62799E+03  2.32288E+02
 -4.43147E+03 -6.55257E+03  1.25666E+01 -1.09479E+04  5.18424E+03 -1.11645E+04  1.35099E+04 -6.81723E+03
  1.61897E+04  1.11619E+03  1.20630E+04  9.74768E+03  6.10538E+02  1.10592E+04 -7.92121E+03  1.07965E+04
 -8.61183E+03  4.23155E+03 -5.32351E+03 -1.46624E+03  2.21227E+03 -2.61586E+03  5.67393E+03 -8.83211E+02
  3.79030E+03  4.02861E+03  5.80856E+02  9.32573E+03 -5.46891E+03  8.23496E+03 -1.07374E+04  3.35175E+03
 -6.91136E+03 -4.53186E+03  1.18093E+03 -8.12225E+03  4.76657E+03 -5.16353E+03  5.02975E+03  2.60251E+03
  1.47805E+03  5.69996E+03 -5.31776E+03  7.11126E+03 -7.69694E+03  3.01550E+03 -8.74658E+03 -2.26037E+03
 -4.95676E+03 -9.71459E+03  2.44474E+03 -1.07535E+04  9.73262E+03 -6.57223E+03  1.06770E+04  8.75694E+02
  5.30385E+03  7.19760E+03 -1.22161E+03  9.31579E+03 -6.95669E+03  6.03758E+03 -7.11477E+03 -9.07269E+02
 -6.44070E+03 -7.74023E+03 -1.89069E+03 -5.94642E+03  3.17477E+03 -4.86419E+03  4.29120E+03 -3.44115E+03
  3.00446E+03  1.15983E+03 -1.03885E+03  1.74029E+02 -6.41166E+02 -3.68489E+02  7.67989E+02 -3.55416E+03
  7.21859E+03 -1.28336E+03  7.40903E+03  1.60528E+03  8.51744E+03  6.42202E+03  6.53036E+03  1.11233E+04
 -1.47798E+03  1.38301E+04 -1.19589E+04  1.01548E+04 -1.53297E+04  2.63571E+03 -1.19451E+04 -6.30174E+03
 -5.39393E+03 -9.58260E+03 -3.44673E+02 -8.07335E+03  2.35064E+03 -4.09415E+03  2.21505E+03 -2.96678E+03
  2.64767E+03 -2.93970E+03  2.18806E+03 -3.67218E+03  3.74210E+03 -2.03442E+03  4.95821E+03 -2.59812E+02
  7.28925E+03  1.55290E+03  3.22233E+03  4.98757E+03 -1.80616E+03  5.61150E+03 -7.14062E+03  4.11954E+03
 -7.64842E+03 -1.92194E+03 -4.34012E+03 -5.91521E+03 -1.30137E+02 -8.43204E+03  4.58070E+03 -7.91459E+03
  8.87601E+03 -6.28675E+03  1.14492E+04  1.96529E+03  7.91139E+03  6.69996E+03  1.52368E+03  8.52958E+03
 -4.48128E+03  8.66782E+03 -4.73935E+03  2.53677E+03 -1.88000E+03 -4.08186E+02 -1.17846E+03 -7.49498E+02
 -1.30449E+03  7.56490E+02 -1.23831E+03  2.03791E+03 -3.16584E+03  2.01147E+03 -5.51855E+03 -1.12436E+03
 -2.38312E+03 -5.31165E+03  2.01363E+02 -8.38548E+03  4.83973E+03 -5.49343E+03  5.13623E+03 -1.37256E+03
  6.76313E+03  3.71077E+03  2.10174E+03  5.56523E+03 -2.40216E+03  6.68116E+03 -4.59067E+03  4.77547E+03
 -6.10204E+03 -7.15930E+02 -5.74021E+03 -4.00386E+03 -2.53075E+02 -6.16194E+03  3.59680E+03 -5.64296E+03
  4.42487E+03 -1.31710E+03  2.20675E+03 -3.56049E+02  2.44051E+03  1.77795E+03  9.80703E+02  1.01792E+03
  8.60864E+02  9.82615E+02  2.23672E+03  9.77084E+02  2.48496E+03  2.25810E+03  2.03044E+03  3.50133E+03
 -1.47698E+02  6.23991E+03 -4.60342E+03  6.50401E+03 -6.31137E+03  1.50267E+03 -7.33767E+03 -1.30109E+03
 -4.02414E+03 -8.13907E+03  7.91514E+02 -7.71642E+03  5.37589E+03 -5.14354E+03  4.87559E+03 -1.25977E+03
  4.24764E+03  1.77631E+03  1.50231E+02  3.46976E+03 -1.93755E+03  2.82364E+03 -2.15256E+03 -1.17163E+03
 -6.21082E+02 -1.25715E+03  2.38036E+03 -3.82983E+03  2.46381E+03 -1.12081E+03  2.43405E+03 -1.15028E+03
  1.00332E+03 -1.05249E+01  1.07702E+03  5.91881E+02 -2.26992E+02  9.12138E+02  1.97134E+03 -1.14442E+03
  5.07255E+02  9.03333E+01  2.10079E+03  7.07813E+02  1.94562E+03  4.68145E+03  1.11714E+03  4.89372E+03
 -3.14453E+03  1.88540E+03 -4.37671E+03  1.54470E+03 -5.17414E+03 -2.05606E+03 -3.88808E+02 -2.16384E+03
  9.41948E+02 -3.56966E+03  1.31490E+03 -1.61915E+03  8.49821E+02  1.12667E+03 -3.36579E+02  1.57787E+03
 -2.99474E+03  2.35301E+03 -3.60802E+03 -1.92804E+03 -1.19671E+03 -4.11766E+03  2.26965E+02 -3.03892E+03
  5.66762E+02 -2.39925E+03  2.21803E+03 -5.83137E+02  2.85328E+03  9.68712E+02  4.11334E+02  2.74294E+03
 -2.48908E+02 -3.16600E+02 -1.41285E+03 -1.71691E+03  2.57804E+02 -1.80882E+03  3.46455E+03 -1.39298E+03
  3.78547E+03  8.74945E+02  4.64736E+03  1.70708E+03  2.11992E+03  3.56160E+03 -8.01991E+02  4.07022E+03
 -1.92855E+03  1.01242E+03 -3.61187E+03 -4.36957E+02 -2.14052E+03 -1.99294E+03  1.12827E+03 -1.36377E+03
  1.65980E+03 -1.17850E+03  8.26041E+02  1.68737E+02  2.07716E+03  1.61952E+03  5.46176E+02  1.95491E+03
 -7.17483E+02  1.01886E+03 -4.11131E+02 -4.72988E+01  1.11156E+02  1.56132E+03 -1.00232E+03  2.92288E+02
 -9.66219E+02  1.35511E+03 -3.35118E+03  1.14743E+02 -3.89166E+03  6.18008E+02 -4.72915E+03 -2.82700E+03
 -2.41949E+03 -3.53009E+03  2.49852E+03 -5.70078E+03  3.34373E+03 -5.01585E+03  5.45541E+03 -4.05067E+02
  3.46679E+03 -1.47739E+02  3.13037E+03  3.52088E+03 -7.59870E+02  2.85479E+03 -1.70854E+03  3.10943E+03
 -1.86122E+03  1.48425E+03 -8.79460E+02 -1.85528E+02 -1.05236E+03  1.39169E+02 -5.82561E+02 -1.03600E+03
 -1.37880E+03  3.48081E+02  8.01010E+01 -4.76087E+01  2.83062E+02 -1.75947E+03 -7.09943E+02 -1.05606E+03
  2.32716E+03 -8.47982E+02  2.63881E+03 -4.03059E+01  1.59425E+03  2.06635E+03  1.27597E+03  2.64535E+03
 -1.03102E+03  5.03059E+03 -3.64757E+03  2.55440E+03 -3.34438E+03 -2.13513E+02 -4.07426E+03 -2.69034E+03
 -1.17409E+03 -2.15912E+03  5.69545E+02 -3.88741E+03  2.26262E+03 -2.37861E+03  2.07887E+03  3.30514E+02
  1.42722E+03  1.25002E+03 -6.10074E+02  2.45962E+02 -3.46092E+02  5.83607E+02  5.76915E+02 -2.55199E+02
  2.22953E+03  1.38341E+02  1.32166E+03 -2.58456E+02  5.66262E+02  1.22491E+03  1.01097E+02  9.80888E+02
 -7.09449E+02  2.06686E+03 -1.08489E+03  1.21844E+01 -1.38816E+03  2.04765E+02  5.61772E+02 -1.77424E+03
  1.18856E+03 -1.70696E+03  9.09639E+02 -7.38605E+02  3.12219E+03 -4.55611E+02  1.00150E+03  1.31764E+03
 -3.74398E+02  1.79674E+03 -1.20913E+03  2.17770E+03 -1.92575E+03  1.16925E+03 -1.11067E+02  4.00035E+01
 -2.78240E+02 -5.02146E+02 -9.92342E+02  4.39840E+01 -2.12894E+02  5.36639E+02 -1.61199E+03  2.48397E+02
 -1.76448E+03 -1.31074E+03 -9.84235E+02 -8.61408E+02  1.60371E+03 -3.44484E+03  1.75202E+03 -2.16616E+02
  1.76161E+03  3.85043E+02 -1.43299E+02  8.31772E+02  2.54288E+02  1.07818E+03 -8.84033E+02  1.27552E+03
