 $NMID ID='MM_0lb_SNR200_13hz_g45_78.RAW', FMTDAT='(8E13.5)'
 TRAMP=1., VOLUME=1. $END
  3.08474E+05  1.32797E+02  3.37789E+05  2.50469E+05  8.51349E+04  3.37282E+05 -1.32493E+05  2.51309E+05
 -1.90703E+05  8.30601E+04 -1.11764E+05 -3.16472E+04  2.43672E+03 -5.13295E+04  5.44948E+04  1.24718E+03
  3.51517E+04  5.31669E+04 -1.67701E+04  7.61889E+04 -6.05975E+04  6.28268E+04 -8.43927E+04  3.06592E+04
 -8.16909E+04 -1.13022E+04 -5.78161E+04 -5.17508E+04 -1.39698E+04 -6.84047E+04  2.86940E+04 -4.44163E+04
  4.12456E+04  1.65578E+03  1.63311E+04  4.79037E+04 -3.44017E+04  4.81450E+04 -6.61219E+04 -3.61569E+02
 -5.37379E+04 -5.64109E+04 -6.82136E+03 -7.80810E+04  3.46272E+04 -5.46155E+04  4.72664E+04 -1.75352E+04
  4.40553E+04  9.74060E+03  3.14812E+04  2.50331E+04  1.60841E+04  2.95131E+04 -6.05250E+03  2.60372E+04
 -2.00954E+04  1.20358E+04 -1.77678E+04 -4.47836E+03  6.09039E+03 -8.72588E+03  2.28070E+04  1.20369E+04
  6.25012E+03  3.56793E+04 -3.29163E+04  3.64451E+04 -6.29723E+04  3.58006E+03 -5.71483E+04 -4.33076E+04
 -1.20265E+04 -6.26521E+04  3.95774E+04 -4.61919E+04  5.80298E+04 -1.37456E+03  3.48558E+04  3.40942E+04
 -6.66876E+03  3.71448E+04 -2.98433E+04  1.53029E+04 -3.05052E+04 -4.38692E+03 -1.73435E+04 -1.11213E+04
 -9.76651E+03 -1.32207E+04 -9.90938E+00 -1.80408E+04  6.97307E+03 -2.31168E+04  1.55196E+04 -1.33513E+04
  1.15550E+04  4.94429E+03 -9.14216E+03  1.29916E+04 -2.29477E+04 -4.79006E+03 -8.02654E+03 -3.40784E+04
  2.28345E+04 -4.24200E+04  4.81288E+04 -1.91349E+04  4.48209E+04  1.93537E+04  1.60448E+04  4.33664E+04
 -1.62475E+04  3.28127E+04 -2.64205E+04  1.87332E+03 -1.01240E+04 -2.71491E+04  2.17659E+04 -3.43245E+04
  4.10892E+04 -9.15229E+03  3.55691E+04  2.29598E+04  1.83695E+04  4.47780E+04 -7.27476E+03  5.11145E+04
 -3.25596E+04  3.55532E+04 -4.22158E+04  8.81005E+03 -4.25229E+04 -1.80551E+04 -2.24172E+04 -3.88498E+04
  6.01914E+03 -3.87987E+04  3.12166E+04 -1.62077E+04  2.85532E+04  1.08364E+04  4.98522E+03  2.07536E+04
 -1.30152E+04  8.22949E+03 -1.07630E+04 -7.66936E+03  5.63189E+03 -9.96483E+03  1.81499E+04  6.32920E+03
  1.35938E+04  2.15031E+04 -6.77915E+03  2.57139E+04 -2.28165E+04  1.11876E+04 -2.87790E+04 -4.94301E+03
 -2.18566E+04 -1.76229E+04 -8.20845E+03 -2.15809E+04  2.97474E+03 -2.11830E+04  1.70679E+04 -1.97889E+04
  2.63829E+04 -1.26344E+04  3.32092E+04  3.56705E+03  2.41182E+04  2.02475E+04  5.87106E+03  3.59838E+04
 -1.80862E+04  3.00391E+04 -2.78014E+04  1.13418E+04 -2.19189E+04 -9.68581E+03 -3.24061E+03 -1.36218E+04
  1.34858E+03 -2.05846E+03 -3.23270E+03  7.01957E+03 -1.57152E+04  4.06371E+03 -1.54193E+04 -7.44584E+03
 -9.88893E+03 -1.92811E+04  4.91194E+03 -2.38892E+04  1.55257E+04 -1.63083E+04  1.82618E+04 -1.45635E+03
  1.14346E+04  1.39148E+04 -1.31948E+03  1.88175E+04 -1.24415E+04  1.08185E+04 -1.95386E+04 -5.34450E+03
 -1.46569E+04 -1.74765E+04 -2.39236E+03 -2.37451E+04  9.68266E+03 -1.87331E+04  2.08524E+04 -9.48613E+03
  1.82889E+04  1.34342E+03  1.32691E+04  4.86035E+03  7.84975E+03  9.41581E+02  9.11350E+03 -3.83435E+03
  1.79941E+04  3.73180E+03  1.97102E+04  1.59535E+04  1.26688E+04  3.10715E+04 -3.18171E+03  3.52548E+04
 -2.08769E+04  2.87548E+04 -3.38579E+04  1.46836E+04 -3.33375E+04 -2.50006E+03 -2.79232E+04 -1.92727E+04
 -1.26927E+04 -2.91958E+04  1.04195E+04 -2.48988E+04  2.25404E+04 -1.33228E+04  1.93581E+04  6.10669E+03
  7.93567E+03  1.54468E+04 -9.90536E+03  1.40060E+04 -1.72222E+04  2.87192E+03 -1.27305E+04 -9.93724E+03
 -3.99423E+02 -1.48576E+04  7.54820E+03 -1.19718E+04  9.81517E+03 -6.53866E+02  1.47120E+03  7.26316E+03
 -8.32711E+03  2.59247E+03 -5.73553E+03 -6.50855E+03 -1.11384E+03 -1.40616E+04  9.87751E+03 -1.46442E+04
  1.63650E+04 -8.47811E+03  1.95949E+04  2.68574E+03  1.55366E+04  1.34609E+04  7.64083E+03  2.12693E+04
 -3.90100E+03  2.31704E+04 -1.42299E+04  1.61636E+04 -1.74839E+04  4.18034E+03 -1.15589E+04 -4.93614E+03
 -5.53343E+03 -5.46440E+03 -7.39914E+02 -1.01119E+02 -7.92517E+02  3.13188E+03 -5.95222E+03  5.01949E+03
 -1.25794E+04 -1.29787E+03 -1.18909E+04 -9.24917E+03 -5.29120E+03 -1.44744E+04  4.46193E+03 -1.19099E+04
  8.51503E+03 -5.54738E+03  7.99682E+03  3.19353E+03 -2.26491E+02  3.44729E+03 -5.29819E+03  5.36572E+02
 -3.33271E+03 -7.02568E+03 -7.68587E+02 -1.01841E+04  6.19698E+03 -1.15229E+04  1.52934E+04 -5.06164E+03
  1.74402E+04  2.26097E+03  1.22636E+04  1.07199E+04  2.44342E+03  1.42066E+04 -8.27311E+03  1.13498E+04
 -1.00905E+04  3.95561E+03 -4.36152E+03 -2.67336E+03  1.77126E+03 -3.20932E+03  6.96000E+03 -2.85089E+02
  4.74013E+03  5.32395E+03  1.07486E+03  9.73398E+03 -6.65328E+03  9.44914E+03 -1.24702E+04  7.07216E+02
 -7.75403E+03 -4.96270E+03  2.39247E+02 -9.77103E+03  7.21648E+03 -5.61556E+03  5.31384E+03  1.62119E+03
  5.93319E+02  7.54826E+03 -4.95798E+03  7.83571E+03 -8.82539E+03  2.73868E+03 -9.57041E+03 -3.92854E+03
 -4.16389E+03 -9.76242E+03  2.88965E+03 -1.22229E+04  1.02820E+04 -8.17104E+03  1.13275E+04  1.29375E+03
  6.87704E+03  8.92170E+03 -1.03789E+03  1.14060E+04 -8.23862E+03  5.90036E+03 -8.42088E+03 -1.07497E+03
 -8.69206E+03 -7.90650E+03 -1.98424E+03 -7.40211E+03  4.76453E+03 -6.71340E+03  4.45630E+03 -4.40363E+03
  4.32156E+03  1.82294E+03 -3.64234E+02  7.28508E+02 -1.06160E+03 -2.26498E+03 -3.39377E+01 -4.90672E+03
  7.15721E+03 -2.91791E+03  1.03586E+04  8.99132E+02  8.53623E+03  6.04014E+03  7.24125E+03  1.36258E+04
 -1.49982E+03  1.57656E+04 -1.37570E+04  1.06653E+04 -1.74138E+04  3.30670E+03 -1.44093E+04 -6.32691E+03
 -7.90027E+03 -1.16897E+04  5.81225E+01 -9.95269E+03  4.05926E+03 -4.48015E+03  1.94023E+03 -3.87808E+03
  1.69142E+03 -1.83486E+03  3.96735E+03 -3.44708E+03  4.82364E+03 -4.16539E+03  7.27443E+03 -5.32101E+02
  8.73194E+03  1.22525E+03  3.89748E+03  5.89247E+03 -1.54474E+03  6.56763E+03 -6.91530E+03  5.33660E+03
 -8.60046E+03 -2.57944E+03 -4.92287E+03 -6.22567E+03 -1.59320E+03 -1.01737E+04  4.91190E+03 -1.02683E+04
  1.06469E+04 -5.37640E+03  1.18237E+04  3.85451E+02  8.21729E+03  8.62937E+03  2.18471E+02  1.21209E+04
 -5.37019E+03  1.02174E+04 -6.23631E+03  1.81601E+03 -4.43427E+03 -2.54878E+02 -1.64510E+03 -6.04791E+02
 -9.88309E+02  9.48032E+02 -2.25872E+03  2.61681E+03 -3.93574E+03  8.74365E+02 -7.35495E+03 -1.47512E+03
 -3.75081E+03 -7.43047E+03  1.50106E+03 -9.07287E+03  4.61237E+03 -9.17826E+03  8.21673E+03 -3.10729E+03
  8.57887E+03  4.15867E+03  2.64928E+03  7.51447E+03 -1.16363E+03  9.80559E+03 -5.74424E+03  5.97295E+03
 -8.67345E+03  6.52802E-01 -7.34240E+03 -4.82913E+03 -3.84700E+02 -8.69257E+03  4.07738E+03 -5.35110E+03
  6.21623E+03 -1.68889E+03  3.54445E+03  2.86035E+03  2.21823E+03  3.74907E+03  3.58368E+02  1.63163E+03
  1.72503E+03 -5.48049E+02  1.81285E+03  1.51921E+03  1.94029E+03  2.50238E+03  1.92544E+03  4.00856E+03
 -2.62180E+03  5.73871E+03 -5.37634E+03  8.63002E+03 -7.76460E+03  1.76326E+03 -8.44167E+03 -2.91014E+03
 -3.58101E+03 -9.06500E+03  1.90255E+03 -1.00838E+04  5.13713E+03 -6.30371E+03  6.32076E+03 -2.14135E+03
  4.82839E+03  2.27179E+03  1.88025E+03  4.39658E+03 -2.41188E+03  3.43615E+03 -3.98298E+03  3.89810E+02
 -5.05221E+02 -3.53016E+03  2.70602E+03 -3.55782E+03  3.08267E+03 -2.26594E+03  3.01443E+03  5.49400E+02
  1.89914E+03  1.14029E+03  2.87437E+03  1.05291E+03 -5.92766E+02  1.16026E+03  2.32013E+03  4.54385E+02
  9.36793E+02 -6.52256E+02  2.79972E+03  2.49591E+03  2.22103E+03  5.27542E+03 -1.26846E+03  5.92123E+03
 -4.17603E+03  4.10778E+03 -4.39235E+03  1.36330E+03 -4.01221E+03 -1.50741E+03 -1.47188E+03 -4.05832E+03
  1.86995E+03 -2.21397E+03  2.29398E+03 -1.45432E+03  1.96441E+03  1.17066E+03 -1.53662E+02  3.23165E+03
 -4.00709E+03  2.67889E+03 -4.35469E+03 -2.32297E+03 -2.21682E+03 -4.96555E+03  2.06941E+02 -4.59718E+03
  2.31324E+03 -2.74033E+03  2.60554E+03  6.31325E+02  2.76949E+03  1.03733E+03 -1.35714E+03  2.90756E+03
 -8.46158E+02  3.06566E+01 -1.65007E+03 -2.68369E+03  1.95881E+03 -2.65806E+03  4.53421E+03 -2.28526E+03
  4.35791E+03  1.31394E+03  5.17845E+03  2.90454E+03  2.18367E+03  5.04428E+03 -1.81743E+03  5.48121E+03
 -5.05678E+03  2.07433E+03 -4.18078E+03 -1.45051E+03 -3.73383E+03 -2.83498E+03  1.01913E+03 -3.53073E+03
  3.34266E+03 -2.21266E+03  2.90231E+03  2.26881E+03  5.51778E+02  3.31665E+03 -6.93943E+02  2.96150E+03
  5.06744E+02  1.09518E+03 -2.19520E+03  1.18651E+02 -2.67098E+02  2.53427E+01 -2.74595E+01  1.51893E+03
 -1.63266E+03  2.00143E+03 -3.89274E+03  1.51415E+03 -5.34926E+03  6.82276E+02 -6.62229E+03 -2.68886E+03
 -3.52062E+03 -6.43870E+03  2.53395E+03 -8.09547E+03  4.63009E+03 -6.21047E+03  7.57124E+03 -3.27340E+03
  7.08144E+03  6.75967E+02  4.52795E+03  3.01192E+03 -1.12215E+03  5.14001E+03 -1.41845E+03  2.58105E+03
 -3.75602E+03  1.47995E+03 -2.12974E+03 -1.38663E+03 -1.24153E+03 -7.30859E+02 -1.10205E+03 -5.54789E+02
 -1.07140E+03  8.72549E+02 -2.81312E+03 -4.73582E+02 -6.02475E+02 -2.24325E+03  3.93952E+02 -1.72408E+03
  3.06979E+03 -1.36713E+03  2.68226E+03  2.83937E+02  4.82522E+03  3.70162E+03  1.19495E+03  3.74783E+03
 -3.34947E+03  5.59505E+03 -4.68068E+03  3.68977E+03 -5.51227E+03 -6.00542E+02 -5.50024E+03 -3.04182E+03
 -1.85205E+03 -4.81965E+03  1.54841E+03 -4.91432E+03  2.46739E+03 -2.60990E+03  3.65135E+03  3.54966E+02
  1.08031E+03  1.51298E+03 -1.21634E+00  1.97840E+03 -3.35278E+02 -1.85288E+02 -9.71292E+02 -1.23328E+03
  1.99358E+03 -7.22812E+02  1.72936E+03  1.68109E+03  9.75897E+02  1.03119E+03  2.94699E+02  1.94297E+03
 -2.30984E+03  2.12868E+03 -2.00278E+03 -5.25736E+02 -2.58813E+03 -2.34568E+03 -2.70997E+02 -3.52248E+03
  1.13139E+03 -3.35891E+03  3.48685E+03  8.14809E+02  5.33431E+03  4.38709E+02  2.33357E+03  2.44874E+03
 -1.17949E+03  2.23974E+03 -7.00733E+02  2.84152E+03 -6.30164E+02  1.60019E+03 -1.32471E+03  1.02016E+03
 -7.34031E+02  5.73450E+02 -1.13491E+03  1.43837E+03 -1.98177E+03  6.52779E+02 -2.07590E+03 -1.05428E+03
 -2.47805E+03 -1.01578E+03 -1.07974E+03 -2.75646E+03  1.99140E+03 -3.83206E+03  1.79944E+03 -1.79759E+03
  2.81783E+03  1.08343E+03  9.49562E+02  1.93586E+03 -3.16980E+02  2.92009E+03 -2.22200E+03  7.35593E+02
