 $NMID ID='MM_0lb_SNR200_11hz_g60_39.RAW', FMTDAT='(8E13.5)'
 TRAMP=1., VOLUME=1. $END
  3.09386E+05  3.85001E+02  3.37695E+05  2.51576E+05  8.58847E+04  3.37662E+05 -1.32629E+05  2.51152E+05
 -1.91597E+05  8.15488E+04 -1.14191E+05 -3.17413E+04  5.47489E+02 -5.23611E+04  5.27942E+04 -6.78539E+01
  3.42814E+04  5.34959E+04 -1.67266E+04  7.59496E+04 -6.15203E+04  6.42093E+04 -8.42484E+04  3.25856E+04
 -8.36496E+04 -1.12968E+04 -5.70887E+04 -5.20771E+04 -1.56626E+04 -7.10494E+04  2.67743E+04 -4.53493E+04
  4.16690E+04  3.21421E+03  1.57106E+04  4.71017E+04 -3.58376E+04  4.82290E+04 -6.81814E+04 -4.55944E+02
 -5.60961E+04 -5.82005E+04 -6.77379E+03 -7.85689E+04  3.59095E+04 -5.60334E+04  4.94540E+04 -1.70057E+04
  4.53912E+04  1.05207E+04  3.51951E+04  2.65212E+04  1.70691E+04  3.02084E+04 -5.32793E+03  2.77355E+04
 -2.12448E+04  1.23507E+04 -1.87836E+04 -4.22321E+03  6.23431E+03 -7.94237E+03  2.40283E+04  1.42020E+04
  6.25802E+03  3.67312E+04 -3.22346E+04  3.69774E+04 -6.71580E+04  3.63287E+03 -6.02617E+04 -4.48612E+04
 -1.31626E+04 -6.62281E+04  4.07101E+04 -4.66098E+04  5.86607E+04 -3.03686E+03  3.67817E+04  3.32264E+04
 -6.43337E+03  3.97385E+04 -3.11426E+04  1.76089E+04 -3.34915E+04 -4.58518E+03 -1.80550E+04 -1.21825E+04
 -9.50295E+03 -1.54839E+04  9.36642E+02 -1.91995E+04  8.54630E+03 -2.37024E+04  1.49993E+04 -1.24048E+04
  1.04997E+04  5.84660E+03 -1.03210E+04  1.22876E+04 -2.32873E+04 -6.01461E+03 -8.74937E+03 -3.59684E+04
  2.48285E+04 -4.63542E+04  5.16018E+04 -2.08098E+04  4.90276E+04  2.02850E+04  1.66321E+04  4.54706E+04
 -1.58858E+04  3.66668E+04 -2.70833E+04  2.58776E+03 -1.20443E+04 -2.93583E+04  2.21570E+04 -3.61088E+04
  4.44872E+04 -1.21327E+04  3.90341E+04  2.50660E+04  2.03261E+04  5.13199E+04 -8.12582E+03  5.50129E+04
 -3.53357E+04  3.60753E+04 -4.63576E+04  1.06388E+04 -4.66663E+04 -1.69815E+04 -2.67435E+04 -4.24829E+04
  7.12810E+03 -4.20483E+04  3.45986E+04 -1.55505E+04  3.12790E+04  1.16639E+04  4.58771E+03  2.16881E+04
 -1.36679E+04  9.13188E+03 -1.27695E+04 -7.28827E+03  6.19245E+03 -1.12945E+04  1.86458E+04  6.72188E+03
  1.45037E+04  2.27749E+04 -6.46965E+03  2.68276E+04 -2.33409E+04  1.43087E+04 -3.26275E+04 -2.24032E+03
 -2.45346E+04 -1.74088E+04 -1.22090E+04 -2.39729E+04  4.87168E+03 -2.40768E+04  1.67569E+04 -2.27800E+04
  3.04058E+04 -1.34552E+04  3.79738E+04  4.98338E+03  2.73052E+04  2.28790E+04  5.02287E+03  4.21683E+04
 -1.86004E+04  3.34097E+04 -2.98666E+04  1.22290E+04 -2.15839E+04 -9.95833E+03 -3.03742E+03 -1.27228E+04
 -7.25566E+02 -2.82174E+03 -8.56199E+03  7.39737E+03 -1.95047E+04  5.10051E+03 -1.95967E+04 -8.05276E+03
 -1.10178E+04 -2.40852E+04  5.78699E+03 -2.75449E+04  1.78746E+04 -2.08327E+04  2.19045E+04 -3.72893E+02
  1.40239E+04  1.56997E+04 -9.97180E+02  2.38803E+04 -1.60537E+04  1.36752E+04 -2.28368E+04 -4.42326E+03
 -1.65048E+04 -2.03252E+04 -1.42565E+03 -2.82967E+04  1.28268E+04 -2.28431E+04  2.25787E+04 -1.15998E+04
  2.06128E+04 -2.61368E+02  1.68750E+04  3.53046E+03  8.81599E+03  2.25691E+02  1.11718E+04 -1.47468E+03
  2.15476E+04  3.22905E+03  2.46443E+04  1.70875E+04  1.62566E+04  3.65762E+04 -3.66077E+03  4.20241E+04
 -2.51017E+04  3.57409E+04 -3.93977E+04  2.02657E+04 -4.25906E+04 -2.65083E+03 -3.48099E+04 -2.39307E+04
 -1.36009E+04 -3.44708E+04  1.33675E+04 -2.98427E+04  2.73236E+04 -1.47286E+04  2.23662E+04  7.65698E+03
  6.83768E+03  1.80115E+04 -1.00686E+04  1.52211E+04 -1.78692E+04  2.03079E+03 -1.46631E+04 -1.35632E+04
  8.04017E+02 -1.80675E+04  9.34306E+03 -1.43901E+04  1.22541E+04 -1.78593E+03  1.65712E+03  9.24372E+03
 -7.77553E+03  3.53154E+03 -8.62634E+03 -7.71736E+03 -2.05907E+03 -1.60904E+04  1.16370E+04 -1.89185E+04
  2.17031E+04 -1.01905E+04  2.36045E+04  3.24867E+03  2.00172E+04  1.59226E+04  9.93415E+03  2.59010E+04
 -4.52156E+03  3.00350E+04 -1.89079E+04  1.88278E+04 -1.94584E+04  3.44919E+03 -1.52498E+04 -4.84064E+03
 -6.22634E+03 -7.62690E+03 -8.83885E+02  1.63875E+03 -1.84782E+03  2.36257E+03 -7.40515E+03  5.41659E+03
 -1.28898E+04 -1.43242E+03 -1.39246E+04 -1.18072E+04 -5.28947E+03 -1.76791E+04  5.08944E+03 -1.54514E+04
  1.18527E+04 -5.87986E+03  8.20299E+03  3.27391E+03 -1.01832E+03  5.96731E+03 -7.53227E+03  2.75582E+02
 -6.87246E+03 -9.34472E+03 -8.38295E+02 -1.37659E+04  8.09926E+03 -1.56857E+04  1.70952E+04 -7.57337E+03
  2.08062E+04  2.92693E+03  1.58437E+04  1.32433E+04  3.34135E+03  1.82985E+04 -9.91301E+03  1.44994E+04
 -1.15467E+04  4.74044E+03 -6.29915E+03 -1.77652E+03  1.95949E+03 -5.19392E+03  8.80412E+03 -1.25357E+03
  8.05924E+03  5.47309E+03  1.50183E+03  1.07114E+04 -8.97787E+03  1.15000E+04 -1.40003E+04  2.70294E+03
 -1.06098E+04 -8.09817E+03  5.20866E+02 -1.31834E+04  6.95796E+03 -6.14998E+03  8.65745E+03  2.52287E+03
  1.63910E+03  8.90218E+03 -7.42589E+03  9.45122E+03 -1.09916E+04  3.34674E+03 -1.18047E+04 -4.72352E+03
 -5.83186E+03 -1.46346E+04  4.47412E+03 -1.65457E+04  1.37958E+04 -1.07615E+04  1.49575E+04  2.67625E+03
  7.85821E+03  1.17996E+04 -1.49819E+03  1.40265E+04 -1.02960E+04  6.26886E+03 -1.17207E+04  2.96486E+02
 -1.02497E+04 -1.03061E+04 -3.08485E+02 -1.12058E+04  5.47555E+03 -8.28853E+03  9.43210E+03 -3.44914E+03
  4.77751E+03  1.74549E+03 -1.17099E+03  1.52872E+03 -1.58511E+02 -3.45727E+03  5.64693E+02 -7.44335E+03
  9.57984E+03 -4.77032E+03  1.46652E+04  8.53593E+02  1.46733E+04  1.01000E+04  9.80998E+03  1.86858E+04
 -3.89718E+03  2.12566E+04 -1.85934E+04  1.53551E+04 -2.32052E+04  1.92310E+03 -1.95973E+04 -7.38164E+03
 -7.95256E+03 -1.50873E+04 -2.38550E+02 -1.38176E+04  3.34674E+03 -7.68679E+03  5.00072E+03 -4.20091E+03
  3.17546E+03 -2.97070E+03  4.30087E+03 -3.60807E+03  6.52079E+03 -4.90952E+03  7.45722E+03 -1.21325E+03
  9.02153E+03  2.60266E+03  5.94081E+03  7.65996E+03 -1.42669E+03  8.80340E+03 -9.45896E+03  7.64874E+03
 -1.32948E+04 -1.94941E+03 -8.78957E+03 -7.67913E+03  4.62802E+01 -1.41819E+04  8.37680E+03 -1.34556E+04
  1.51330E+04 -7.45463E+03  1.88851E+04  9.42547E+02  1.14289E+04  1.21746E+04  1.25419E+02  1.55439E+04
 -5.96186E+03  1.20678E+04 -8.77768E+03  4.62541E+03 -6.28382E+03 -1.84882E+03 -3.32044E+03 -1.36135E+03
 -1.43487E+03  8.57961E+02  3.33582E+02  1.85954E+03 -5.84404E+03  1.60025E+03 -8.38315E+03 -3.38867E+03
 -5.79296E+03 -9.64023E+03 -5.01372E+01 -1.31572E+04  9.04129E+03 -1.32605E+04  1.27314E+04 -3.25476E+03
  1.18197E+04  5.95513E+03  5.38873E+03  1.03942E+04 -3.99988E+03  1.21743E+04 -1.06809E+04  6.46088E+03
 -1.17513E+04  8.98867E+02 -9.30746E+03 -8.61073E+03 -8.24930E+02 -1.01555E+04  5.53469E+03 -9.03372E+03
  8.33589E+03 -2.03772E+03  5.30995E+03  2.91089E+03  2.06652E+03  3.15632E+03  1.02629E+03  9.69972E+02
  1.33901E+03  1.46044E+03  2.11524E+03  1.97888E+03  3.28833E+03  4.57797E+03  3.12690E+03  6.10101E+03
 -3.35216E+03  1.09540E+04 -8.40988E+03  1.15809E+04 -1.38770E+04  3.28393E+03 -1.25770E+04 -5.07361E+03
 -6.20403E+03 -1.25777E+04  2.55144E+03 -1.34703E+04  7.35402E+03 -9.37304E+03  9.47159E+03 -1.69639E+03
  7.75124E+03  4.12995E+03  2.49196E+02  7.76132E+03 -4.26482E+03  4.56961E+03 -4.83318E+03 -2.03520E+03
 -3.09575E+03 -5.18479E+03  3.61287E+03 -4.60795E+03  5.60513E+03 -1.20439E+03  6.81841E+03  1.03820E+03
  2.19125E+03  2.05595E+03  1.31956E+03  2.79672E+03 -4.02161E+02  3.23513E+03  2.05937E+03 -3.45161E+02
  6.86439E+02 -8.97601E+02  4.83694E+03  2.82356E+03  2.13678E+03  6.30772E+03 -7.80384E+02  1.01523E+04
 -5.22200E+03  6.05788E+03 -7.60193E+03  1.73059E+03 -6.39590E+03 -2.33357E+03 -2.25005E+03 -4.89800E+03
  1.83225E+02 -5.11289E+03  2.07843E+03 -2.40086E+03  2.49594E+03  2.32097E+03 -4.39861E+02  1.64351E+03
 -5.75982E+03  3.31327E+03 -7.26861E+03 -3.62579E+03 -3.20908E+03 -6.51079E+03 -2.45854E+02 -7.47034E+03
  3.83647E+03 -3.58711E+03  4.75322E+03 -5.38353E+02  5.60247E+03  1.42320E+03  8.81110E+02  3.75399E+03
 -2.65397E+03  1.04850E+03 -3.72927E+03 -2.10005E+03  9.09809E+02 -4.84303E+03  5.90209E+03 -3.68310E+03
  7.67509E+03  4.41107E+02  8.10992E+03  4.83770E+03  1.92700E+03  7.85354E+03 -1.59371E+03  7.16487E+03
 -5.43570E+03  2.73349E+03 -7.72665E+03 -1.44757E+02 -4.14384E+03 -4.84209E+03 -6.30135E+02 -4.30896E+03
  4.96369E+03 -2.67848E+03  3.81768E+03  2.13017E+03 -2.36313E+02  4.50562E+03 -5.02817E+02  4.82761E+03
 -3.00946E+03  3.10978E+03 -1.51961E+03  1.16139E+03  5.96135E+02  1.58660E+03 -3.39375E+02  2.14150E+03
 -1.37049E+03  3.56029E+03 -5.07298E+03  2.58899E+03 -6.56887E+03 -8.23419E+02 -8.61347E+03 -5.26297E+03
 -4.04096E+03 -1.04133E+04  1.60587E+03 -1.13561E+04  6.81634E+03 -1.05558E+04  1.11516E+04 -2.41801E+03
  1.01620E+04  1.30606E+03  5.68683E+03  7.73938E+03  3.20455E+01  8.33931E+03 -2.40109E+03  4.12991E+03
 -4.52781E+03  3.08312E+03 -3.98402E+03 -1.07008E+03 -1.53653E+03  3.66297E+02 -1.67178E+03 -2.12502E+02
 -2.44431E+03  1.40329E+03 -6.51989E+02 -7.95731E+02  9.43939E+02 -3.12838E+03  8.73315E+02 -3.26661E+03
  2.55199E+03 -1.85380E+03  3.74235E+03  2.71852E+02  4.62157E+03  4.01910E+03  5.15721E+00  7.74459E+03
 -4.65984E+03  9.13376E+03 -8.59832E+03  4.73096E+03 -9.29004E+03 -1.25430E+03 -6.84056E+03 -5.70229E+03
 -3.48288E+03 -8.91730E+03  2.32340E+03 -6.87614E+03  4.71063E+03 -5.17573E+03  5.33078E+03  1.58414E+03
  2.87321E+03  2.26836E+03  1.44140E+02  2.13366E+03 -1.33248E+03 -3.17216E+02  1.31787E+02 -2.97461E+03
  2.58312E+03 -1.37998E+03  1.84514E+03  1.08684E+03  2.43552E+03  3.93672E+03  1.83197E+03  3.84404E+03
 -3.95510E+03  3.71213E+03 -5.30665E+03 -3.82131E+01 -5.16225E+03 -4.27711E+03 -2.55631E+03 -5.42895E+03
  3.43869E+03 -5.47479E+03  6.38579E+03 -1.17916E+02  5.53712E+03 -2.63027E+02  3.26782E+03  4.42123E+03
  1.50036E+03  4.50182E+03 -1.22333E+03  5.25373E+03 -1.45436E+03  2.75450E+03 -2.94467E+03  3.01774E+03
 -1.87785E+03  3.87191E+02 -2.07399E+03  1.12110E+02 -2.57306E+03  1.90843E+03 -4.51645E+03  1.27018E+01
 -3.53043E+03 -2.98673E+03 -6.67131E+02 -6.55764E+03  2.80584E+03 -6.23028E+03  3.91088E+03 -2.09107E+03
  3.54724E+03 -2.62998E+02  2.64447E+03  3.55650E+03 -1.03697E+03  6.49302E+03 -2.18687E+03  3.46427E+03
