 $NMID ID='MM_0lb_SNR200_11hz_g60_33.RAW', FMTDAT='(8E13.5)'
 TRAMP=1., VOLUME=1. $END
  3.10964E+05  1.29627E+03  3.38862E+05  2.49950E+05  8.20891E+04  3.37901E+05 -1.30931E+05  2.54455E+05
 -1.89958E+05  8.33312E+04 -1.12351E+05 -3.34341E+04 -3.84188E+02 -5.08885E+04  5.40024E+04 -3.26655E+02
  3.50103E+04  5.31105E+04 -1.81083E+04  7.74373E+04 -6.09515E+04  6.61167E+04 -8.52527E+04  3.24312E+04
 -8.34592E+04 -1.14433E+04 -5.81100E+04 -5.31797E+04 -1.44917E+04 -7.22424E+04  2.89092E+04 -4.68394E+04
  4.20704E+04  2.99140E+03  1.52795E+04  4.86390E+04 -3.51018E+04  4.80078E+04 -6.78700E+04 -1.22925E+03
 -5.45585E+04 -5.73585E+04 -5.85574E+03 -7.90196E+04  3.46555E+04 -5.66922E+04  5.03497E+04 -1.89811E+04
  4.51618E+04  1.20869E+04  3.31714E+04  2.77872E+04  1.46439E+04  3.09901E+04 -6.61134E+03  2.81599E+04
 -2.18602E+04  1.11286E+04 -1.83457E+04 -4.82696E+03  7.89244E+03 -7.11889E+03  2.36401E+04  1.31599E+04
  7.44519E+03  3.62581E+04 -3.36454E+04  3.79314E+04 -6.55323E+04  7.12073E+02 -5.99220E+04 -4.37247E+04
 -1.23397E+04 -6.58661E+04  4.08993E+04 -4.73211E+04  6.12854E+04 -2.50628E+03  3.74467E+04  3.58173E+04
 -5.84738E+03  3.81269E+04 -3.11898E+04  1.84796E+04 -3.47045E+04 -3.53159E+03 -1.84749E+04 -1.07178E+04
 -8.76290E+03 -1.44832E+04 -1.66387E+02 -1.92690E+04  8.07309E+03 -2.38922E+04  1.58494E+04 -1.31350E+04
  1.14542E+04  6.31392E+03 -1.01207E+04  1.25023E+04 -2.21966E+04 -6.43256E+03 -8.63591E+03 -3.75875E+04
  2.47534E+04 -4.62308E+04  5.03163E+04 -2.00801E+04  4.89369E+04  2.06251E+04  1.81951E+04  4.58540E+04
 -1.61263E+04  3.65067E+04 -2.76985E+04  1.27683E+03 -1.24364E+04 -2.98687E+04  2.08830E+04 -3.78160E+04
  4.53834E+04 -1.01145E+04  3.85910E+04  2.50575E+04  2.10535E+04  5.07021E+04 -8.04397E+03  5.44593E+04
 -3.44417E+04  3.84088E+04 -4.55268E+04  1.04446E+04 -4.60214E+04 -1.83643E+04 -2.59976E+04 -4.10415E+04
  7.50536E+03 -4.10411E+04  3.21116E+04 -1.79341E+04  3.23010E+04  1.06970E+04  4.58066E+03  2.06356E+04
 -1.44369E+04  9.76101E+03 -1.10510E+04 -8.26089E+03  5.90766E+03 -1.03649E+04  1.96571E+04  5.11948E+03
  1.54441E+04  2.29903E+04 -5.30957E+03  2.73140E+04 -2.30750E+04  1.43500E+04 -3.04129E+04 -1.84535E+03
 -2.47492E+04 -1.76741E+04 -1.20862E+04 -2.49419E+04  5.39801E+03 -2.51694E+04  1.92428E+04 -2.18291E+04
  3.12515E+04 -1.37063E+04  3.83239E+04  4.66775E+03  2.56193E+04  2.34023E+04  3.69569E+03  4.13756E+04
 -1.87354E+04  3.22954E+04 -3.14787E+04  1.16076E+04 -2.23854E+04 -1.09616E+04 -5.80986E+03 -1.25136E+04
  4.30922E+02 -1.00789E+03 -5.92459E+03  7.77731E+03 -1.81066E+04  4.57306E+03 -2.02858E+04 -9.06596E+03
 -1.29129E+04 -2.30633E+04  6.57069E+03 -2.65486E+04  1.92517E+04 -1.87405E+04  2.23219E+04 -1.22007E+03
  1.37722E+04  1.45124E+04 -1.00796E+02  2.26376E+04 -1.48408E+04  1.21144E+04 -2.22047E+04 -4.90540E+03
 -1.67889E+04 -2.03847E+04 -9.50803E+02 -2.61643E+04  1.18981E+04 -2.06967E+04  2.34976E+04 -1.39927E+04
  2.25683E+04 -3.82549E+02  1.51387E+04  6.97541E+03  8.36228E+03  1.72310E+03  1.21139E+04 -3.01484E+03
  1.99993E+04  1.87848E+03  2.39398E+04  1.73271E+04  1.69908E+04  3.57750E+04 -1.84225E+03  4.18341E+04
 -2.38221E+04  3.53409E+04 -3.92860E+04  1.74962E+04 -4.38043E+04 -3.80426E+03 -3.49844E+04 -2.44775E+04
 -1.29211E+04 -3.42856E+04  1.21380E+04 -3.08868E+04  2.60127E+04 -1.53382E+04  2.33186E+04  7.62951E+03
  8.47844E+03  1.70818E+04 -1.26066E+04  1.51830E+04 -1.99806E+04  3.84013E+03 -1.37221E+04 -1.30436E+04
 -7.30993E+01 -1.81200E+04  1.03084E+04 -1.35542E+04  1.21800E+04 -3.78487E+02  4.18588E+03  9.81505E+03
 -7.05844E+03  2.25612E+03 -8.57619E+03 -7.62229E+03 -1.08439E+03 -1.80792E+04  1.19554E+04 -1.83963E+04
  2.18273E+04 -1.04000E+04  2.36846E+04  3.87002E+03  2.16630E+04  1.72916E+04  1.04796E+04  2.63037E+04
 -5.77526E+03  2.97846E+04 -2.08253E+04  1.95741E+04 -1.97262E+04  4.27422E+03 -1.36535E+04 -6.24953E+03
 -6.01195E+03 -6.65829E+03 -1.78725E+03  1.91478E+02 -2.31620E+03  3.87488E+03 -5.54788E+03  4.13689E+03
 -1.30856E+04 -2.38123E+01 -1.33039E+04 -1.14363E+04 -4.87270E+03 -1.73508E+04  5.23452E+03 -1.36336E+04
  1.24207E+04 -5.66848E+03  8.84556E+03  5.57392E+03 -4.43582E+02  7.14825E+03 -8.34244E+03  3.82981E+02
 -7.30827E+03 -9.74554E+03 -1.43322E+03 -1.50764E+04  8.35041E+03 -1.57811E+04  1.84902E+04 -7.85067E+03
  2.10754E+04  8.69757E+02  1.59238E+04  1.28810E+04  3.49296E+03  1.80335E+04 -1.02706E+04  1.52973E+04
 -1.18942E+04  4.11886E+03 -6.43924E+03 -2.20891E+03  2.52688E+03 -3.65933E+03  6.55374E+03 -1.04789E+03
  7.07985E+03  7.35390E+03  1.72794E+03  1.17181E+04 -8.83381E+03  1.29194E+04 -1.47957E+04  3.26812E+03
 -1.03510E+04 -7.60808E+03 -9.19138E+02 -1.21536E+04  7.94157E+03 -6.98729E+03  8.13009E+03  1.13626E+03
  6.80837E+02  8.66926E+03 -7.98513E+03  1.12651E+04 -1.32069E+04  4.51207E+03 -1.28123E+04 -5.94898E+03
 -7.99008E+03 -1.39791E+04  3.17517E+03 -1.77824E+04  1.33821E+04 -1.02401E+04  1.64489E+04  2.33244E+03
  8.85203E+03  1.28533E+04 -1.87302E+03  1.46997E+04 -9.95858E+03  9.34412E+03 -1.10341E+04 -1.34277E+02
 -9.83025E+03 -1.11234E+04 -5.88734E+01 -1.18788E+04  6.42983E+03 -8.76171E+03  6.86807E+03 -3.10291E+03
  6.88069E+03  2.18850E+03 -1.48933E+03  2.59825E+03 -9.92603E+02 -2.27389E+03  2.53941E+03 -6.49559E+03
  1.26654E+04 -6.08700E+03  1.46467E+04  1.01012E+03  1.38558E+04  9.13241E+03  8.70838E+03  1.85884E+04
 -4.37294E+03  2.13085E+04 -1.73270E+04  1.68544E+04 -2.26753E+04  2.63010E+03 -1.95424E+04 -8.23117E+03
 -1.02623E+04 -1.64172E+04 -5.86139E+02 -1.21665E+04  4.24821E+03 -7.72783E+03  5.11236E+03 -5.54248E+03
  3.85257E+03 -2.91720E+03  4.69571E+03 -3.61074E+03  6.46290E+03 -2.11376E+03  8.39777E+03 -1.23361E+03
  1.08618E+04  1.35764E+03  5.68352E+03  8.60257E+03 -2.45076E+03  1.03371E+04 -9.21753E+03  6.70190E+03
 -1.25554E+04 -1.01304E+03 -8.81807E+03 -8.38089E+03 -2.60112E+02 -1.52542E+04  6.96724E+03 -1.38140E+04
  1.50712E+04 -6.34538E+03  1.67280E+04  2.17686E+03  1.09531E+04  1.21308E+04  1.90615E+03  1.59864E+04
 -6.25285E+03  1.22786E+04 -8.97118E+03  4.64256E+03 -4.00790E+03 -2.74342E+03 -1.97914E+03 -1.61008E+03
 -9.85899E+02 -2.55273E+02 -4.11477E+02  3.75491E+03 -5.13305E+03  2.15871E+03 -8.65119E+03 -2.48702E+03
 -5.88558E+03 -7.71113E+03 -6.88083E+02 -1.12882E+04  8.62512E+03 -1.15772E+04  1.24889E+04 -3.64668E+03
  1.15217E+04  7.35815E+03  5.77206E+03  1.08261E+04 -1.42436E+03  1.29006E+04 -8.53864E+03  7.15599E+03
 -1.18754E+04 -3.51807E+01 -8.17615E+03 -6.52281E+03 -1.35685E+03 -1.08741E+04  5.76577E+03 -8.33834E+03
  8.51820E+03 -2.06458E+03  4.15688E+03  2.88690E+03  2.61346E+03  4.14137E+03  4.00452E+02  3.20996E+03
  2.45315E+03  3.10926E+02  3.64007E+03  9.25552E+02  4.06406E+03  3.26398E+03  4.22746E+03  6.99448E+03
 -2.36629E+03  1.01652E+04 -9.74003E+03  9.99695E+03 -1.30428E+04  2.62500E+03 -1.16571E+04 -5.70122E+03
 -6.50695E+03 -1.28796E+04  3.34562E+03 -1.43128E+04  6.63898E+03 -9.16161E+03  1.01359E+04 -3.22906E+03
  7.13652E+03  6.04036E+03 -1.00494E+02  6.01419E+03 -4.05774E+03  5.08142E+03 -4.18177E+03  3.99087E+02
 -1.82451E+03 -4.93767E+03  2.60615E+03 -6.27033E+03  3.05030E+03 -2.59079E+03  5.97011E+03  6.69437E+02
  3.04890E+03  1.54375E+03  9.56557E+02  1.81853E+03 -1.30217E+03  2.36676E+03  2.01512E+03  1.24724E+02
  3.34298E+03 -3.75851E+02  5.62611E+03  2.29326E+03  1.74257E+03  5.80353E+03 -8.24235E+02  7.78589E+03
 -5.04669E+03  5.43415E+03 -6.11074E+03  1.82651E+03 -7.52599E+03 -2.32542E+03 -4.02424E+03 -3.18150E+03
  1.26054E+03 -4.75772E+03  4.83481E+03 -2.74719E+03  2.17098E+03  1.65796E+03 -1.12417E+03  2.07903E+03
 -5.48209E+03  2.51918E+03 -6.49475E+03 -3.74745E+03 -3.40906E+03 -6.71583E+03  1.77140E+03 -6.45665E+03
  3.48894E+03 -5.92563E+03  5.51585E+03 -2.86722E+02  4.23341E+03  1.72246E+03  6.11878E+02  3.86459E+03
 -2.03478E+03  1.50079E+03 -2.66663E+03 -1.34273E+03  1.07079E+03 -5.51427E+03  6.30597E+03 -4.15963E+03
  6.57053E+03 -4.09459E+01  7.47596E+03  6.04803E+03  2.70171E+03  8.24006E+03 -1.73930E+03  6.99026E+03
 -6.83779E+03  2.23726E+03 -6.65525E+03 -8.62949E+02 -4.36564E+03 -5.32008E+03  1.04599E+03 -4.58835E+03
  5.63853E+03 -3.32012E+03  4.59499E+03  3.88931E+03  5.19059E+02  3.36310E+03 -1.00023E+03  4.02492E+03
 -3.12090E+03  2.42005E+03 -1.38646E+03  4.87470E+01 -1.11727E+03  3.35279E+00 -8.26987E+02  2.45184E+03
 -2.57275E+03  2.66702E+03 -5.62474E+03  2.44761E+03 -7.83900E+03 -6.67066E+02 -8.63396E+03 -5.11289E+03
 -3.97795E+03 -1.05650E+04  2.28906E+03 -1.16171E+04  7.77776E+03 -9.08352E+03  1.21604E+04 -3.12945E+03
  1.08211E+04  7.87774E+02  6.25029E+03  7.42985E+03 -1.87073E+02  9.88731E+03 -3.06337E+03  7.27585E+03
 -4.76109E+03  1.57651E+03 -4.54709E+03 -2.12635E+02 -2.08398E+03  6.01617E+02 -1.36809E+03  2.26482E+02
 -1.84034E+03 -2.15412E+02 -1.01679E+03 -6.39463E+02 -1.03640E+02 -1.92091E+03  2.55746E+02 -2.92043E+03
  3.57106E+03 -1.29847E+03  3.16128E+03 -6.25176E+02  6.52379E+03  3.44675E+03  3.49093E+03  7.75176E+03
 -3.98253E+03  8.33585E+03 -8.42681E+03  4.45754E+03 -9.41491E+03 -1.54880E+02 -7.44351E+03 -6.59790E+03
 -3.30205E+03 -8.66136E+03  2.86646E+03 -8.81846E+03  4.86290E+03 -3.44768E+03  4.52129E+03  1.83872E+03
  2.84310E+03 -4.12614E+01 -2.28993E+02  1.82741E+03 -1.04303E+03 -1.81656E+02 -1.03234E+03 -6.25719E+02
  1.13555E+03 -1.82755E+03  2.32511E+03  1.63895E+03  1.72073E+03  5.01965E+03 -2.73385E+02  3.85180E+03
 -3.44996E+03  3.14431E+03 -4.59731E+03 -3.65471E+01 -5.02289E+03 -1.48565E+03 -9.55184E+02 -5.72118E+03
  4.07049E+03 -6.72817E+03  7.48976E+03 -8.73598E+02  5.02905E+03  1.65976E+03  3.09012E+03  3.92976E+03
  2.00454E+03  3.87827E+03 -1.27250E+03  4.35581E+03 -2.45088E+03  2.27569E+03 -2.62664E+03  1.32867E+03
 -7.11347E+02 -4.29788E+02 -8.28428E+02 -6.71930E+02 -3.15564E+03  1.35404E+02 -3.88920E+03 -1.06390E+03
 -4.39333E+03 -2.19479E+03 -1.97102E+03 -5.67719E+03  2.73441E+03 -5.24398E+03  3.67219E+03 -1.80310E+03
  6.12002E+03 -2.57779E+02  1.98197E+03  4.10496E+03  3.09010E+02  5.01226E+03 -3.03650E+03  2.10494E+03
