 $NMID ID='MM_0lb_SNR200_17hz_g40_82.RAW', FMTDAT='(8E13.5)'
 TRAMP=1., VOLUME=1. $END
  3.09463E+05  7.10963E+02  3.36809E+05  2.50609E+05  8.43202E+04  3.37919E+05 -1.33251E+05  2.49529E+05
 -1.89586E+05  8.16209E+04 -1.10931E+05 -3.32437E+04  2.17601E+03 -4.93000E+04  5.33292E+04 -1.49261E+02
  3.59746E+04  5.28515E+04 -1.61515E+04  7.49963E+04 -6.02486E+04  6.25006E+04 -8.26556E+04  3.14459E+04
 -8.07717E+04 -1.24563E+04 -5.63778E+04 -4.95157E+04 -1.56056E+04 -6.77735E+04  2.69147E+04 -4.58495E+04
  3.88199E+04  3.25971E+03  1.55533E+04  4.73676E+04 -3.42629E+04  4.70847E+04 -6.59908E+04 -1.62054E+03
 -5.15539E+04 -5.54539E+04 -7.15637E+03 -7.46131E+04  3.22463E+04 -5.29907E+04  4.69801E+04 -1.57550E+04
  4.19596E+04  1.13711E+04  3.12615E+04  2.56821E+04  1.48849E+04  2.84748E+04 -4.14851E+03  2.54688E+04
 -2.11675E+04  1.26688E+04 -1.86600E+04 -3.72038E+03  4.77868E+03 -7.05144E+03  2.21604E+04  1.04830E+04
  7.97110E+03  3.35737E+04 -3.11634E+04  3.29997E+04 -6.15279E+04  2.62786E+03 -5.57618E+04 -4.12067E+04
 -1.23053E+04 -6.01582E+04  3.72757E+04 -4.46944E+04  5.60273E+04 -2.41645E+03  3.19657E+04  3.07443E+04
 -5.62200E+03  3.41260E+04 -2.85648E+04  1.31542E+04 -2.81589E+04 -4.50539E+03 -1.41689E+04 -1.03337E+04
 -6.95438E+03 -1.21263E+04 -1.80828E+03 -1.72112E+04  7.13920E+03 -2.31555E+04  1.46032E+04 -1.39237E+04
  1.27674E+04  5.02543E+03 -6.10777E+03  1.25992E+04 -1.97634E+04 -1.90060E+03 -7.97156E+03 -2.93973E+04
  2.15510E+04 -4.11373E+04  4.56351E+04 -1.82886E+04  4.16438E+04  1.83280E+04  1.57694E+04  4.20057E+04
 -1.55186E+04  3.20505E+04 -2.34077E+04  1.43126E+03 -9.34896E+03 -2.65901E+04  1.96763E+04 -3.15855E+04
  3.89621E+04 -7.69682E+03  3.30785E+04  2.30580E+04  1.53986E+04  4.27681E+04 -7.61326E+03  4.56779E+04
 -3.02202E+04  2.99933E+04 -3.86166E+04  8.73910E+03 -3.94550E+04 -1.61427E+04 -2.04743E+04 -3.39212E+04
  6.39813E+03 -3.50283E+04  2.94043E+04 -1.29078E+04  2.87367E+04  1.14831E+04  3.16930E+03  1.85855E+04
 -1.27999E+04  7.47803E+03 -9.21108E+03 -6.46187E+03  6.07409E+03 -1.09494E+04  1.66217E+04  6.04368E+03
  1.21407E+04  2.21043E+04 -6.08608E+03  2.35916E+04 -2.09913E+04  9.68890E+03 -2.51620E+04 -5.69659E+03
 -1.76773E+04 -1.64624E+04 -5.39421E+03 -1.67991E+04  4.10727E+03 -1.54287E+04  1.25669E+04 -1.52627E+04
  2.21443E+04 -1.25025E+04  2.88222E+04  1.55763E+03  2.09171E+04  1.79234E+04  4.07971E+03  3.23839E+04
 -1.66133E+04  2.71716E+04 -2.63517E+04  9.37325E+03 -1.95033E+04 -9.99499E+03 -4.05415E+03 -1.44380E+04
  1.96000E+03 -4.71086E+03 -3.27768E+03  5.88179E+03 -1.33785E+04  4.80131E+03 -1.33973E+04 -5.20666E+03
 -8.26954E+03 -1.63068E+04  3.94994E+03 -1.89717E+04  1.29589E+04 -1.42282E+04  1.40331E+04 -7.44217E+02
  9.09663E+03  9.93897E+03 -9.43773E+02  1.60257E+04 -1.10361E+04  9.21783E+03 -1.45159E+04 -3.73809E+03
 -1.18765E+04 -1.39944E+04 -2.86217E+03 -2.00301E+04  8.75867E+03 -1.63147E+04  1.66392E+04 -7.81317E+03
  1.57741E+04  1.30233E+03  1.15377E+04  3.78181E+03  5.57492E+03  1.10932E+03  8.29735E+03 -2.25609E+03
  1.41670E+04  3.05270E+03  1.63776E+04  1.28662E+04  9.68512E+03  2.57389E+04 -3.50806E+03  2.77658E+04
 -1.61201E+04  2.14659E+04 -2.52665E+04  1.09833E+04 -2.64175E+04 -1.72020E+03 -2.31824E+04 -1.54259E+04
 -9.88671E+03 -2.08683E+04  6.67973E+03 -2.01110E+04  1.74497E+04 -1.07902E+04  1.62922E+04  3.51894E+03
  7.68264E+03  1.19508E+04 -6.78335E+03  1.13183E+04 -1.38240E+04  3.54245E+03 -1.03886E+04 -8.17732E+03
  1.72845E+02 -1.27184E+04  5.61921E+03 -1.06454E+04  8.20534E+03 -1.33939E+03  1.62029E+03  4.90440E+03
 -5.61122E+03  1.03688E+03 -3.63221E+03 -5.40181E+03 -6.60707E+02 -1.19089E+04  6.87353E+03 -1.03059E+04
  1.27601E+04 -4.35923E+03  1.16365E+04  2.74237E+03  1.14057E+04  9.73358E+03  5.07502E+03  1.53288E+04
 -2.10618E+03  1.73764E+04 -9.68850E+03  1.03668E+04 -1.19276E+04  2.52330E+03 -8.73467E+03 -2.43066E+03
 -4.90999E+03 -3.63234E+03 -4.99450E+02  1.65254E+03 -1.50737E+03  1.60430E+03 -3.17653E+03  3.45291E+03
 -7.78991E+03  7.78920E+02 -8.69268E+03 -7.15221E+03 -4.24897E+03 -1.19319E+04  4.36315E+03 -8.71021E+03
  6.68459E+03 -4.81689E+03  6.08248E+03  2.28614E+03 -8.24354E+01  3.68433E+03 -3.12261E+03 -2.05602E+02
 -3.65655E+03 -6.23679E+03 -9.73271E+02 -7.49986E+03  4.32830E+03 -8.47412E+03  1.08573E+04 -4.16659E+03
  1.16340E+04  2.28631E+03  9.73882E+03  7.15288E+03  2.29055E+03  8.58232E+03 -4.95112E+03  8.19368E+03
 -7.26316E+03  3.70497E+03 -2.74047E+03 -1.94052E+03  1.72010E+03 -2.45142E+03  4.59739E+03 -1.20475E+03
  5.43782E+03  3.01332E+03  1.38054E+03  6.82888E+03 -5.44625E+03  6.58652E+03 -8.05055E+03  1.34008E+03
 -5.41137E+03 -4.33417E+03 -4.00165E+01 -6.01487E+03  4.53763E+03 -4.62424E+03  3.14320E+03  4.79754E+02
  6.34689E+02  3.68505E+03 -4.57516E+03  5.91209E+03 -6.06539E+03  2.34261E+03 -5.81607E+03 -1.24665E+03
 -3.22675E+03 -4.69016E+03  1.02275E+03 -7.65071E+03  6.14012E+03 -5.06140E+03  7.14734E+03  3.04895E+02
  4.24185E+03  5.12542E+03  2.70080E+02  7.39963E+03 -4.33402E+03  3.76349E+03 -6.10764E+03  5.93636E+02
 -5.77990E+03 -6.44696E+03 -2.13904E+03 -5.96936E+03  2.77793E+03 -4.03793E+03  2.92125E+03 -3.71867E+03
  2.82983E+03  5.19145E+02  1.83303E+02  1.22151E+03  3.27031E+02  3.87167E+02  7.13652E+02 -2.53825E+03
  4.93731E+03 -1.21370E+03  7.07926E+03  5.87757E+02  5.62321E+03  3.43810E+03  5.61127E+03  7.77176E+03
 -1.11532E+03  9.68865E+03 -8.24106E+03  6.76280E+03 -1.10669E+04  3.11040E+03 -8.42719E+03 -2.98952E+03
 -3.77419E+03 -7.25311E+03 -4.38554E+02 -5.89953E+03  2.18892E+03 -2.80977E+03  1.87948E+03 -1.75106E+03
  1.09258E+03 -1.88622E+03  2.25592E+03 -2.49511E+03  2.75229E+03 -1.04614E+03  3.14466E+03  7.21370E+02
  5.31049E+03  1.19144E+03  1.79656E+03  3.54860E+03 -2.21155E+03  3.93738E+03 -4.63994E+03  1.46648E+03
 -6.74837E+03 -1.11333E+03 -1.37651E+03 -3.54610E+03  2.92568E+02 -5.92143E+03  3.76100E+03 -5.69936E+03
  5.33048E+03 -3.42857E+03  7.22788E+03  1.40704E+02  4.26972E+03  4.21924E+03  2.76898E+02  8.15207E+03
 -2.15885E+03  7.00626E+03 -3.93663E+03  3.74283E+03 -1.93945E+03 -1.19869E+03 -8.74268E+02 -3.88228E+02
  5.73226E+01  1.03848E+03  1.47860E+02  2.36162E+03 -2.99103E+03  8.94656E+02 -5.91086E+03 -1.28881E+03
 -2.31319E+03 -4.32902E+03  9.69132E+02 -5.70681E+03  3.47254E+03 -4.47474E+03  4.26376E+03 -2.25035E+03
  3.74462E+03  4.42088E+03  1.58167E+03  4.41400E+03 -8.04244E+02  6.38339E+03 -2.43919E+03  2.68869E+03
 -4.23881E+03  6.54812E+02 -3.28797E+03 -2.90010E+03 -1.42057E+02 -3.07449E+03  2.84616E+03 -2.65902E+03
  2.91273E+03 -2.15751E+03  2.11535E+03 -7.33701E+01  1.11077E+03  1.39022E+03  1.35658E+03  4.44612E+02
  1.52461E+03  3.30243E+02  9.67070E+02  1.95521E+03  3.26897E+02  2.19991E+03  2.01402E+03  1.11225E+03
 -2.04243E+03  3.62547E+03 -3.20723E+03  5.20266E+03 -4.99552E+03  2.48073E+03 -4.77675E+03 -4.98945E+02
 -2.31060E+03 -4.35833E+03  4.96946E+02 -6.47664E+03  2.32561E+03 -3.60597E+03  4.38793E+03 -3.45722E+02
  2.29608E+03  1.75424E+03  4.53615E+02  2.70055E+03 -1.22329E+03  1.02595E+03  1.13372E+02 -5.75724E+02
  7.44136E+01 -1.84931E+03  1.20544E+03 -1.87850E+03  9.08762E+02 -1.41974E+03  1.95735E+03  1.16203E+03
  2.39209E+02  8.71936E+02 -3.38969E+01 -4.82223E+02 -8.98162E+02  1.26926E+03  1.61895E+03 -1.51713E+02
  6.10344E+02 -1.63002E+02  2.19236E+03  9.73864E+02  9.67261E+02  2.65167E+03 -5.01663E+02  4.06523E+03
 -2.23503E+03  1.65568E+03 -2.45267E+03 -9.17279E+01 -2.46150E+03 -1.93303E+03 -4.28857E+01 -1.69699E+03
  1.21042E+02 -1.82389E+03  1.73551E+03  5.10303E+01  1.15467E+03  1.07376E+03 -2.08638E+03  7.69403E+02
 -1.49750E+03  3.10189E+02 -1.37126E+03 -8.78169E+02 -1.07533E+03 -1.99164E+03  7.19382E+02 -2.45616E+03
  3.37049E+02 -1.14145E+02  1.07264E+03 -8.27537E+01  1.81592E+03 -3.37536E+02 -1.85343E+02  9.25346E+02
  6.09006E+01 -9.46400E+01 -9.68518E+02 -2.09544E+02  9.30402E+02 -2.20715E+03  2.32303E+03 -1.02493E+03
  6.33915E+02  5.94975E+02  2.92985E+03  1.55741E+03  1.28428E+03  2.56425E+03  7.46801E+02  2.99138E+03
 -2.65104E+03  9.41481E+02 -2.97547E+03  1.88493E+02 -1.48223E+03 -1.47556E+03 -3.39122E+02 -8.84982E+02
  2.05822E+03 -5.14087E+02  1.09342E+03 -5.16194E+02  3.48385E+02  1.15324E+03  8.66273E+02  2.93162E+03
 -6.44711E+02  2.03563E+03 -1.09245E+03 -1.39920E+01  4.51651E+01  1.54503E+03 -8.09313E+02  1.19045E+03
 -1.07439E+03  2.96600E+02 -2.93653E+03  1.37596E+03 -1.86576E+03  8.24407E+02 -2.50362E+03 -2.16229E+03
 -1.87610E+03 -3.71549E+03  3.40922E+02 -2.70038E+03  1.37689E+03 -3.59931E+03  3.17048E+03  8.49768E+01
  3.71588E+03 -1.05327E+03  9.46180E+02  1.54932E+03  7.00719E+01  1.54496E+03 -1.10129E+03  1.93572E+03
 -1.20032E+03  1.70256E+03 -1.82360E+02  2.30760E+02 -9.61292E+02  4.15465E+02 -1.32526E+02 -3.62722E+02
 -1.35873E+03 -5.60550E+01 -2.03977E+03 -4.67914E+02 -2.72426E+02  1.52709E+02  9.53241E+02 -1.65396E+03
  2.14794E+03 -6.58559E+02  5.26440E+02 -4.80369E+02  2.11674E+03  7.55920E+02 -1.44770E+02  1.61805E+03
 -1.46486E+03  2.40184E+03 -2.32655E+03  8.96409E+02 -2.85666E+03  2.77633E+02 -1.72901E+03 -1.91410E+03
 -1.18218E+03 -3.24003E+03  8.10160E+02 -2.02091E+03  4.67121E+02 -3.60395E+02  7.09738E+02  1.29823E+03
 -3.71664E+02  6.73761E+02  4.66413E+02  4.68398E+02 -9.53080E+02  1.05538E+03  1.83819E+02 -1.39260E+03
  4.79522E+02 -6.81898E+01  4.46768E+02  1.27943E+03  6.94746E+02  6.51068E+02 -1.55643E+02 -2.85048E+02
 -1.05176E+03  1.46849E+03 -8.98863E+02 -1.12840E+02 -7.60082E+02 -1.06843E+03 -2.91863E+01 -1.36823E+03
  8.21984E+02 -7.44165E+02  7.40320E+02 -1.38750E+03  1.20516E+03 -5.72943E+01  8.46054E+02  1.25115E+03
  5.38946E+02  8.08360E+02 -9.77881E+02  1.02765E+03 -1.78383E+03  4.98943E+02 -8.07371E+02  2.66151E+02
  4.02603E+02 -5.89625E+02  2.98461E+02  6.96707E+02 -1.30498E+03 -5.31819E+02 -1.37376E+03 -8.26890E+02
 -1.81014E+03 -1.37866E+01 -1.11411E+03 -1.00220E+03  1.32648E+03 -2.21677E+03  7.76900E+02 -1.51277E+02
  9.62120E+02  2.65796E+02  5.15766E+02  9.30208E+02 -8.28456E+02  2.26521E+02  3.99886E+02  4.82584E+02
