 $NMID ID='MM_0lb_SNR200_17hz_g60_17.RAW', FMTDAT='(8E13.5)'
 TRAMP=1., VOLUME=1. $END
  3.10227E+05  6.84912E+02  3.36784E+05  2.50783E+05  8.58373E+04  3.37676E+05 -1.33577E+05  2.51879E+05
 -1.90269E+05  8.28844E+04 -1.11755E+05 -3.20651E+04  1.29928E+03 -5.03433E+04  5.33765E+04  3.48147E+02
  3.59240E+04  5.33898E+04 -1.62352E+04  7.54488E+04 -6.21688E+04  6.45827E+04 -8.42515E+04  3.12996E+04
 -8.14943E+04 -1.09029E+04 -5.76183E+04 -5.18583E+04 -1.64297E+04 -6.96438E+04  2.77306E+04 -4.57754E+04
  4.00908E+04  4.48024E+03  1.66162E+04  4.84976E+04 -3.56683E+04  4.68643E+04 -6.60507E+04 -2.35933E+02
 -5.35142E+04 -5.62106E+04 -6.64713E+03 -7.82566E+04  3.39623E+04 -5.44001E+04  4.69862E+04 -1.71248E+04
  4.25849E+04  1.13149E+04  3.26717E+04  2.52301E+04  1.54948E+04  2.93837E+04 -5.07407E+03  2.68138E+04
 -2.20855E+04  1.26042E+04 -1.91379E+04 -5.15476E+03  5.64134E+03 -6.60316E+03  2.30817E+04  1.19471E+04
  7.65746E+03  3.39860E+04 -3.19218E+04  3.49409E+04 -6.26554E+04  1.51408E+03 -5.70098E+04 -4.29220E+04
 -1.33321E+04 -6.33434E+04  3.92824E+04 -4.49557E+04  5.72876E+04 -1.25842E+03  3.45220E+04  3.19155E+04
 -6.58182E+03  3.62580E+04 -2.97834E+04  1.65304E+04 -2.89469E+04 -5.31676E+03 -1.69527E+04 -1.14857E+04
 -8.75627E+03 -1.21270E+04 -1.00025E+03 -1.84423E+04  7.23234E+03 -2.40098E+04  1.62663E+04 -1.23692E+04
  1.23868E+04  3.71905E+03 -8.51984E+03  1.18663E+04 -2.06940E+04 -3.72180E+03 -7.60121E+03 -3.35368E+04
  2.17849E+04 -4.26475E+04  4.93343E+04 -1.91868E+04  4.52750E+04  2.04766E+04  1.50533E+04  4.22543E+04
 -1.63534E+04  3.28880E+04 -2.48618E+04  1.03879E+03 -1.00296E+04 -2.77490E+04  2.02542E+04 -3.38712E+04
  4.07675E+04 -9.88426E+03  3.44635E+04  2.30708E+04  1.85288E+04  4.58059E+04 -8.04346E+03  4.93214E+04
 -3.29097E+04  3.24277E+04 -3.92526E+04  9.60401E+03 -4.08694E+04 -1.73539E+04 -2.34604E+04 -3.66589E+04
  7.69344E+03 -3.66325E+04  3.11593E+04 -1.53687E+04  2.78722E+04  1.01156E+04  3.61022E+03  1.91317E+04
 -1.28373E+04  8.59844E+03 -9.74715E+03 -6.80285E+03  6.77150E+03 -1.16822E+04  1.80427E+04  5.38788E+03
  1.17391E+04  2.21720E+04 -6.22831E+03  2.39669E+04 -2.23071E+04  1.11801E+04 -2.79812E+04 -5.30404E+03
 -1.91169E+04 -1.64272E+04 -7.63158E+03 -1.99667E+04  4.00698E+03 -1.73102E+04  1.63792E+04 -1.61534E+04
  2.41730E+04 -1.18109E+04  3.17113E+04  1.61943E+03  2.27334E+04  1.90450E+04  3.80282E+03  3.40652E+04
 -1.64563E+04  3.01991E+04 -2.74442E+04  9.83239E+03 -1.93292E+04 -1.11856E+04 -3.89999E+03 -1.45504E+04
  3.21540E+03 -2.39288E+03 -5.31145E+03  6.50162E+03 -1.51116E+04  5.80118E+03 -1.68424E+04 -5.17397E+03
 -1.01020E+04 -1.79172E+04  4.62495E+03 -2.15819E+04  1.54591E+04 -1.65141E+04  1.67043E+04 -6.41012E+02
  1.14969E+04  1.25225E+04 -4.14158E+02  1.88486E+04 -1.25777E+04  8.64724E+03 -1.81118E+04 -4.16495E+03
 -1.26762E+04 -1.62973E+04 -1.52606E+03 -2.25612E+04  7.78124E+03 -1.66415E+04  1.81167E+04 -7.94263E+03
  1.65544E+04  1.43930E+01  1.19422E+04  4.58246E+03  5.29956E+03  1.21477E+03  9.10614E+03 -1.81014E+03
  1.47940E+04  2.61871E+03  1.80854E+04  1.34660E+04  1.26040E+04  2.80548E+04 -3.42296E+03  3.07491E+04
 -1.77592E+04  2.56168E+04 -2.96259E+04  1.30305E+04 -3.16614E+04 -1.36927E+03 -2.42314E+04 -1.67086E+04
 -1.07138E+04 -2.46657E+04  8.59342E+03 -2.15891E+04  1.98053E+04 -1.16758E+04  1.77801E+04  5.04533E+03
  6.71020E+03  1.32699E+04 -8.85312E+03  1.14078E+04 -1.54753E+04  2.58373E+03 -1.18117E+04 -9.45399E+03
 -3.28020E+02 -1.41741E+04  7.02756E+03 -1.03354E+04  9.23576E+03 -1.62493E+03  1.98249E+03  5.18269E+03
 -6.12732E+03  2.33804E+03 -6.06269E+03 -5.75739E+03 -6.48244E+02 -1.23243E+04  8.80454E+03 -1.21900E+04
  1.54159E+04 -6.52357E+03  1.61637E+04  2.04180E+03  1.31218E+04  1.13123E+04  6.56689E+03  1.72517E+04
 -2.88119E+03  1.93370E+04 -1.35482E+04  1.21336E+04 -1.42810E+04  2.72779E+03 -9.92229E+03 -4.19985E+03
 -6.46279E+03 -2.75187E+03  6.54296E+02  6.54633E+02 -1.37322E+03  2.63396E+03 -4.03841E+03  4.29501E+03
 -9.73394E+03  9.05821E+00 -1.02500E+04 -7.94717E+03 -3.93670E+03 -1.23479E+04  4.50318E+03 -1.08425E+04
  8.37592E+03 -5.00096E+03  6.38789E+03  3.49526E+03 -8.63260E+01  3.53701E+03 -4.30458E+03 -2.58123E+02
 -3.74520E+03 -6.19418E+03 -1.47316E+03 -9.44193E+03  4.77089E+03 -8.23942E+03  1.21389E+04 -4.72651E+03
  1.47277E+04  3.52559E+02  1.01741E+04  6.85572E+03  2.33946E+03  1.21976E+04 -6.37973E+03  9.20306E+03
 -7.39303E+03  3.92688E+03 -4.61485E+03 -1.78591E+03  7.06976E+02 -2.28604E+03  4.71909E+03 -9.20007E+02
  4.37299E+03  5.11492E+03  1.24614E+03  6.00505E+03 -4.71182E+03  6.51038E+03 -9.55435E+03  2.34570E+03
 -5.07698E+03 -4.92695E+03  4.32679E+02 -6.72737E+03  5.26616E+03 -4.60827E+03  5.48459E+03  9.95217E+02
  1.52574E+03  4.17471E+03 -4.45210E+03  5.81779E+03 -7.24938E+03  3.04468E+03 -6.23752E+03 -1.66138E+03
 -2.79605E+03 -7.97474E+03  1.52133E+03 -1.03635E+04  7.23400E+03 -5.40761E+03  8.54823E+03  3.10417E+02
  5.38265E+03  6.32736E+03 -5.70314E+02  8.69502E+03 -6.79696E+03  4.79732E+03 -6.24516E+03  3.81062E+02
 -6.63134E+03 -7.00704E+03 -1.50395E+03 -7.00435E+03  2.40740E+03 -5.42967E+03  3.11474E+03 -3.24738E+03
  3.29587E+03  5.88948E+02 -3.09446E+02  9.77845E+02  6.64879E+02 -6.65745E+02  1.06757E+03 -2.73009E+03
  5.54034E+03 -1.29176E+03  6.77423E+03  1.68778E+03  7.17457E+03  5.04004E+03  5.30092E+03  1.07019E+04
 -1.21847E+03  1.11088E+04 -1.03191E+04  8.95061E+03 -1.29067E+04  1.34363E+03 -9.91377E+03 -2.57712E+03
 -5.54782E+03 -8.66686E+03 -9.93864E+02 -6.53061E+03  2.01318E+03 -3.44079E+03  1.83333E+03 -3.26784E+03
  3.08052E+02 -2.44871E+03  2.23558E+03 -2.62324E+03  5.12289E+03 -1.70484E+03  4.20599E+03 -5.14049E+02
  5.57504E+03  9.21757E+02  1.37572E+03  5.03517E+03 -1.76883E+03  4.63134E+03 -4.57761E+03  4.29075E+03
 -6.84770E+03 -8.28810E+02 -3.16589E+03 -4.14201E+03  4.89802E+02 -6.44460E+03  3.57001E+03 -7.52424E+03
  7.27200E+03 -3.31359E+03  8.43144E+03  1.73918E+03  6.49637E+03  4.81486E+03  1.38542E+03  8.19404E+03
 -2.14458E+03  7.81366E+03 -4.06247E+03  2.48406E+03 -2.11699E+03 -1.72910E+03 -8.84037E+02 -1.64073E+03
 -1.72027E+02  2.09151E+02 -6.70006E+02  2.49152E+03 -2.65334E+03  2.06747E+03 -4.49186E+03 -9.19053E+02
 -3.44802E+03 -4.66028E+03  6.44330E+02 -6.56278E+03  3.01570E+03 -5.52479E+03  4.94792E+03 -3.41526E+02
  5.30055E+03  3.03690E+03  2.42517E+03  5.27992E+03 -1.11905E+02  4.94225E+03 -3.54484E+03  2.81250E+03
 -4.26159E+03  4.94085E+02 -4.32917E+03 -4.62266E+03  9.78383E+02 -4.61623E+03  1.89102E+03 -4.63395E+03
  2.29649E+03 -2.07918E+03  1.84269E+03  6.78023E+02  1.71354E+03  2.48179E+03 -4.91924E+02  1.48945E+03
  1.65124E+03  4.99355E+02  1.45847E+03  9.58168E+02  1.05241E+03  2.74997E+03  2.34938E+03  2.44097E+03
 -1.71327E+03  3.83632E+03 -3.26703E+03  4.64455E+03 -4.91319E+03  1.76850E+03 -4.28214E+03 -1.90385E+03
 -3.21376E+03 -4.35265E+03  6.19227E+02 -4.61449E+03  2.41636E+03 -3.37049E+03  3.61013E+03 -1.35403E+03
  2.50437E+03  1.78801E+03  1.26479E+03  4.52107E+03 -6.58949E+02  1.42046E+03 -8.30774E+02 -8.23721E+02
 -1.02398E+03 -1.51019E+03  2.90034E+03 -2.85208E+03  1.27883E+03 -1.28416E+03  1.22916E+03  1.05932E+03
  2.24938E+03  5.99464E+02  3.07072E+02  3.66000E+02  8.22438E+02  2.38368E+03  1.00032E+03 -1.73875E+02
  1.27914E+03 -1.58250E+03  2.57638E+03  9.30296E+02  4.17139E+02  2.25236E+03 -5.69478E+02  3.95908E+03
 -2.26389E+03  3.01338E+03 -2.70813E+03 -6.78798E+02 -3.30424E+03 -8.43172E+02 -3.62363E+01 -1.67996E+03
  9.72895E+02 -2.16183E+03  1.82064E+03 -1.43991E+03  5.73323E+02  1.41003E+03 -3.16484E+02  1.25838E+03
 -1.97594E+03  9.70050E+02 -1.87980E+03 -2.00351E+03 -4.55563E+02 -3.48325E+03  5.25851E+02 -1.43903E+03
  7.32513E+02 -1.07097E+03 -1.24519E+02  1.73180E+03  1.87182E+03  7.48942E+02  2.89154E+02  1.02537E+03
 -1.09806E+03 -1.24888E+02 -9.96084E+02 -3.25312E+02  1.37247E+03 -1.75163E+03  2.84943E+03 -5.57797E+02
  2.17780E+03 -8.23627E+02  3.65942E+03  1.66550E+03  1.06265E+03  3.21958E+03 -1.13504E+03  2.58656E+03
 -1.44166E+03  1.06803E+03 -2.05099E+03 -8.26468E+02 -1.25627E+03 -2.59652E+03  9.74366E+02 -1.35764E+03
  2.17442E+03 -1.65284E+03  8.33479E+02  1.24407E+03 -1.93663E+02  3.54559E+03  5.53499E+02  9.11496E+02
  6.48445E+01  1.58140E+03 -6.21762E+02  3.60045E+02 -6.63623E+01 -1.58192E+02 -1.70691E+03  3.34556E+02
 -1.92112E+02  1.79710E+03 -2.72177E+03 -3.12330E+02 -2.93189E+03  9.83699E+02 -2.78447E+03 -2.00271E+03
 -1.08661E+03 -3.22266E+03  7.38552E+02 -4.38131E+03  1.97929E+03 -3.20078E+03  4.52626E+03 -1.44567E+03
  4.47558E+03  4.29206E+01  1.21533E+03  1.88059E+03 -1.43408E+03  2.60894E+03 -1.01957E+03  1.83451E+03
 -1.45096E+03  8.04069E+02 -4.38584E+01 -9.09822E+02 -5.77942E+02 -1.04600E+03 -6.56456E+02 -8.60198E+02
 -4.74658E+02  4.64915E+02 -1.09971E+03  1.40955E+03  8.59119E+01 -2.21011E+02  2.33548E+02 -1.80607E+03
  2.13075E+03 -1.46592E+03  1.37100E+03  1.49897E+03  2.33705E+03  1.60292E+03 -1.04696E+03  5.38943E+02
 -1.34786E+03  3.95786E+03 -1.16968E+03  1.16693E+03 -1.65088E+03  4.90033E+02 -2.49019E+03 -2.46951E+03
 -1.45907E+03 -1.62014E+03  2.08270E+02 -1.57446E+03  1.05667E+03 -6.02867E+02 -4.98257E+02  4.68529E+01
  5.11685E+02 -4.79955E+01  2.78196E+02  3.25300E+02 -1.90621E+03  5.33871E+02 -1.51792E+02  3.51467E+02
  3.24055E+02 -5.19750E+01 -2.70161E+02  1.00761E+02  5.02565E+02  9.57574E+02  2.32704E+02  8.94046E+02
 -6.19884E+02  1.73927E+03 -2.06259E+03 -2.28376E+02 -6.67390E+02 -6.26904E+02 -9.77228E+02 -8.84975E+02
  1.37046E+03 -3.81000E+02  7.56097E+02 -1.41104E+02  2.43483E+03 -7.43902E+02  6.12281E+02  3.31452E+02
  2.29072E+01  4.85300E+02  6.70873E+02  6.23580E+02 -5.45588E+02  8.05389E+01 -9.32101E+02 -1.33012E+03
  5.12358E+02  3.20904E+02  6.74739E+02 -6.64831E+02 -8.93102E+02  7.18242E+02 -8.48898E+02 -8.86760E+02
 -1.63288E+03 -7.47735E+02 -2.39944E+02 -2.22687E+03  1.87252E+02 -3.05753E+03  2.82210E+02 -7.53647E+02
  1.21983E+03  1.56742E+01 -1.48551E+03  8.42860E+02 -1.07148E+02 -4.35558E+02 -1.90239E+03  1.35789E+03
