 $NMID ID='MM_0lb_SNR200_14hz_g50_13.RAW', FMTDAT='(8E13.5)'
 TRAMP=1., VOLUME=1. $END
  3.08583E+05  1.34853E+03  3.38058E+05  2.50480E+05  8.36838E+04  3.37520E+05 -1.33137E+05  2.50415E+05
 -1.90538E+05  8.33239E+04 -1.11422E+05 -3.28837E+04  6.25635E+02 -5.06540E+04  5.46931E+04  6.34874E+02
  3.51117E+04  5.25241E+04 -1.55222E+04  7.59819E+04 -6.10352E+04  6.27804E+04 -8.50381E+04  3.23820E+04
 -8.14122E+04 -1.18888E+04 -5.70914E+04 -5.16717E+04 -1.53853E+04 -7.10268E+04  2.75221E+04 -4.64356E+04
  4.04908E+04  4.25021E+03  1.64291E+04  4.86679E+04 -3.41862E+04  4.70992E+04 -6.61828E+04 -2.48721E+02
 -5.38204E+04 -5.71774E+04 -7.47486E+03 -7.58888E+04  3.40579E+04 -5.41319E+04  4.80834E+04 -1.70513E+04
  4.27386E+04  1.08163E+04  3.23301E+04  2.53444E+04  1.66129E+04  3.08523E+04 -5.99344E+03  2.73223E+04
 -2.23042E+04  1.24105E+04 -1.82541E+04 -4.01405E+03  6.25852E+03 -6.44576E+03  2.33484E+04  1.14524E+04
  7.48695E+03  3.49771E+04 -3.28863E+04  3.54444E+04 -6.42676E+04  3.35472E+03 -5.80183E+04 -4.32637E+04
 -1.28798E+04 -6.38385E+04  4.08175E+04 -4.57022E+04  5.91219E+04 -3.94700E+03  3.34794E+04  3.26926E+04
 -6.08528E+03  3.69702E+04 -3.05538E+04  1.52216E+04 -3.07184E+04 -4.29570E+03 -1.62151E+04 -1.02160E+04
 -9.84574E+03 -1.39047E+04 -4.09747E+02 -1.87918E+04  8.07678E+03 -2.33282E+04  1.70378E+04 -1.40990E+04
  1.12859E+04  4.38739E+03 -7.00865E+03  1.33969E+04 -1.99191E+04 -3.82234E+03 -7.39933E+03 -3.44381E+04
  2.21102E+04 -4.41121E+04  4.79854E+04 -1.96120E+04  4.47582E+04  2.05255E+04  1.53348E+04  4.34958E+04
 -1.63241E+04  3.26252E+04 -2.52003E+04  2.43659E+03 -1.06241E+04 -2.87610E+04  2.08111E+04 -3.41706E+04
  4.13722E+04 -8.56070E+03  3.44962E+04  2.37284E+04  1.79573E+04  4.65445E+04 -9.13405E+03  5.08113E+04
 -3.10318E+04  3.38883E+04 -4.21255E+04  9.46190E+03 -4.28909E+04 -1.70330E+04 -2.30334E+04 -3.73686E+04
  7.88289E+03 -3.76072E+04  3.24843E+04 -1.51322E+04  3.00775E+04  1.12668E+04  3.80011E+03  2.02195E+04
 -1.35597E+04  8.30641E+03 -1.04458E+04 -6.98887E+03  6.24980E+03 -1.01894E+04  1.74619E+04  7.14648E+03
  1.43944E+04  2.02021E+04 -6.79548E+03  2.50987E+04 -2.25238E+04  1.21617E+04 -2.92158E+04 -5.65462E+03
 -1.84668E+04 -1.67947E+04 -8.78234E+03 -1.82998E+04  4.11397E+03 -1.94602E+04  1.62258E+04 -1.86191E+04
  2.67263E+04 -1.31840E+04  3.16047E+04  3.46753E+03  2.41147E+04  1.95084E+04  4.65221E+03  3.58515E+04
 -1.81605E+04  3.03184E+04 -2.89441E+04  1.08597E+04 -2.10717E+04 -1.09423E+04 -4.95376E+03 -1.40331E+04
  9.16993E+02 -3.01080E+03 -5.24930E+03  7.27943E+03 -1.54111E+04  6.07785E+03 -1.75605E+04 -8.21258E+03
 -1.02716E+04 -1.92700E+04  5.39799E+03 -2.36390E+04  1.43117E+04 -1.75690E+04  1.80726E+04 -1.14329E+03
  1.08799E+04  1.33096E+04 -2.18245E+03  1.89228E+04 -1.37160E+04  1.20430E+04 -1.88230E+04 -4.51314E+03
 -1.43911E+04 -1.68509E+04 -1.97635E+03 -2.22102E+04  1.03988E+04 -1.91058E+04  1.81982E+04 -9.24912E+03
  1.78952E+04 -4.94475E+02  1.23656E+04  3.97369E+03  7.52707E+03  9.86411E+02  1.01823E+04 -7.93523E+02
  1.63724E+04  2.45017E+03  1.95532E+04  1.51918E+04  1.29708E+04  3.02963E+04 -3.61118E+03  3.43828E+04
 -2.00817E+04  2.72305E+04 -3.21937E+04  1.45746E+04 -3.31714E+04 -3.01883E+03 -2.91481E+04 -1.90696E+04
 -1.22961E+04 -2.80858E+04  1.03931E+04 -2.38626E+04  2.06983E+04 -1.34481E+04  1.93749E+04  5.44725E+03
  7.42450E+03  1.49881E+04 -1.07635E+04  1.37896E+04 -1.62254E+04  3.87377E+03 -1.33057E+04 -9.59114E+03
 -1.15819E+03 -1.50544E+04  7.12536E+03 -1.14364E+04  9.59069E+03 -1.86398E+03  2.03735E+03  7.09601E+03
 -7.13102E+03  3.06649E+03 -6.81676E+03 -5.21006E+03  8.46317E+02 -1.36799E+04  9.50550E+03 -1.42168E+04
  1.67281E+04 -7.49076E+03  1.75152E+04  2.53587E+03  1.58002E+04  1.42484E+04  8.02651E+03  2.00318E+04
 -3.33734E+03  2.36828E+04 -1.32141E+04  1.30733E+04 -1.60304E+04  4.07570E+03 -1.28443E+04 -2.82623E+03
 -4.43354E+03 -5.42862E+03 -1.00589E+03  1.93722E+03 -2.75817E+03  3.61473E+03 -4.64547E+03  3.58690E+03
 -1.10081E+04 -7.75125E+02 -1.08678E+04 -9.71749E+03 -5.26722E+03 -1.38266E+04  5.16349E+03 -1.11829E+04
  1.02445E+04 -4.03132E+03  7.51370E+03  2.03990E+03  4.78755E+02  4.93412E+03 -4.56794E+03 -1.34002E+03
 -4.85523E+03 -7.16325E+03 -3.01462E+02 -1.13818E+04  5.93802E+03 -1.15307E+04  1.50120E+04 -5.74772E+03
  1.66424E+04  1.84630E+03  1.39160E+04  8.67484E+03  2.12294E+03  1.39234E+04 -7.42757E+03  1.15699E+04
 -1.00852E+04  3.65027E+03 -4.94062E+03 -2.34865E+03  2.87402E+03 -2.82531E+03  5.26543E+03 -6.70426E+02
  5.25826E+03  3.62007E+03  1.02827E+03  1.01322E+04 -6.35655E+03  9.12192E+03 -1.09207E+04  2.75564E+03
 -6.61909E+03 -6.22151E+03  1.19151E+02 -8.93156E+03  5.11487E+03 -3.96828E+03  5.67347E+03  1.84647E+03
  5.96417E+01  6.02736E+03 -5.26491E+03  7.03494E+03 -8.42114E+03  2.28727E+03 -9.09552E+03 -1.76978E+03
 -5.77346E+03 -9.69935E+03  1.67893E+03 -1.09165E+04  9.60407E+03 -6.65744E+03  1.00949E+04  1.69588E+03
  7.49377E+03  9.89242E+03 -2.29006E+03  1.07359E+04 -7.68915E+03  6.37943E+03 -8.29129E+03 -8.47975E+02
 -8.08287E+03 -7.24215E+03 -1.16506E+03 -8.08488E+03  5.28407E+03 -5.74843E+03  4.28072E+03 -2.37627E+03
  2.87289E+03  1.72874E+03 -1.03917E+03  1.10680E+03 -2.72228E+02 -2.00384E+03  9.13457E+02 -3.75317E+03
  7.10570E+03 -2.43621E+03  8.63892E+03  3.27899E+02  9.57610E+03  6.19877E+03  7.29841E+03  1.31462E+04
 -2.57258E+03  1.41494E+04 -1.26735E+04  9.65562E+03 -1.73875E+04  3.11525E+03 -1.30700E+04 -5.60724E+03
 -5.76016E+03 -1.00528E+04 -1.00918E+03 -8.34751E+03  2.65429E+03 -5.11770E+03  2.87865E+03 -2.61177E+03
  1.62086E+03 -2.86558E+03  2.96852E+03 -3.51026E+03  4.34922E+03 -1.52508E+03  4.50171E+03 -3.55628E+02
  5.12639E+03  8.76279E+02  2.46946E+03  4.62084E+03 -1.05241E+03  4.58000E+03 -7.31401E+03  5.17126E+03
 -7.56677E+03 -7.72072E+02 -4.49683E+03 -6.63112E+03  1.26588E+02 -9.53467E+03  4.62761E+03 -9.65195E+03
  1.04340E+04 -4.55236E+03  1.11919E+04  1.53132E+03  8.57886E+03  7.90499E+03  1.75842E+03  1.08594E+04
 -4.01255E+03  9.05832E+03 -5.89441E+03  3.86832E+03 -5.06191E+03 -1.21486E+03 -1.39980E+03 -1.19438E+03
 -6.43339E+02  6.41429E+02 -1.54666E+03  3.12194E+03 -3.78377E+03  1.66875E+03 -5.52059E+03 -1.00040E+03
 -3.22002E+03 -5.82345E+03  1.31906E+03 -9.22468E+03  5.01267E+03 -7.50887E+03  6.92408E+03 -2.13833E+03
  7.19606E+03  2.58976E+03  3.94134E+03  7.01251E+03 -1.87127E+03  8.34986E+03 -4.85747E+03  3.95004E+03
 -7.20032E+03 -1.08438E+03 -5.31227E+03 -2.91216E+03 -2.07695E+02 -6.25453E+03  3.67886E+03 -6.00729E+03
  5.35444E+03 -2.43841E+03  4.26580E+03  2.06459E+03  4.88625E+02  9.84071E+02  1.44535E+03  6.37948E+02
  2.01318E+03  6.71679E+02  3.02732E+03  2.11728E+03  2.31939E+03  4.20213E+03  2.74466E+03  3.36726E+03
 -1.22763E+03  5.28958E+03 -6.92094E+03  7.07284E+03 -8.70837E+03  2.22440E+03 -7.52380E+03 -3.05838E+03
 -3.98176E+03 -6.83455E+03  1.26286E+03 -8.71518E+03  4.33022E+03 -5.44051E+03  5.51803E+03 -1.70341E+03
  5.48005E+03  1.87598E+03  2.17524E+03  5.74313E+03 -2.23864E+03  3.32007E+03 -3.74015E+03 -3.13215E+02
 -1.11457E+03 -2.72125E+03  1.97687E+03 -3.41721E+03  3.78541E+03 -2.07310E+03  2.43705E+03  1.38992E+03
  2.78554E+03  8.81833E+02  1.14766E+03  1.85270E+03  1.29107E+03  2.40591E+03  2.22827E+03 -6.04391E+02
  1.04845E+03 -3.92452E+02  4.71514E+03  5.08708E+02  1.95147E+02  3.09898E+03 -7.99063E+02  3.81163E+03
 -3.82436E+03  3.72331E+03 -4.96736E+03  1.41523E+02 -4.92520E+03 -1.12868E+03 -1.49150E+03 -2.72199E+03
 -6.98600E+02 -8.43050E+02  2.30709E+03 -2.66119E+03  1.54968E+03  2.47350E+03 -2.12360E+03  2.26833E+03
 -3.88668E+03  1.64500E+03 -4.05934E+03 -2.24423E+03 -9.51197E+02 -3.46589E+03 -1.87858E+02 -3.90657E+03
  3.40960E+03 -1.93365E+03  1.51939E+03  8.47025E+02  3.53141E+03  1.13491E+03  9.83427E+02  2.13259E+03
 -1.73821E+03  1.33472E+03 -7.12274E+02 -1.17502E+03 -1.24369E+02 -3.48413E+03  2.58208E+03 -2.06285E+03
  2.42745E+03  6.80081E+02  4.57696E+03  2.33613E+03  3.09608E+03  3.04765E+03 -1.21169E+03  3.33187E+03
 -4.44996E+03  1.22507E+03 -4.02231E+03  6.07174E+02 -2.25585E+03 -1.37527E+03  1.94054E+03 -1.96832E+03
  2.71410E+03 -1.58743E+03  2.69486E+03  1.53330E+03  3.62187E+01  3.14481E+03  5.43400E+02  3.05118E+03
 -2.31703E+03  1.40673E+03  1.37622E+02 -3.00705E+02 -1.09834E+03  1.46909E+03 -2.14869E+03 -4.53494E+01
 -2.05061E+03  2.12987E+03 -3.72436E+03  1.60594E+03 -4.73465E+03  8.34389E+02 -4.97668E+03 -3.49537E+03
 -2.23431E+03 -4.35227E+03  6.49011E+02 -6.82617E+03  4.46628E+03 -4.37652E+03  5.60263E+03 -3.54290E+03
  4.54634E+03 -2.62037E+02  3.46042E+03  3.95165E+03 -3.78876E+02  2.77403E+03 -1.65676E+03  3.16969E+03
 -2.03747E+03  2.16860E+03 -2.14669E+03  5.45958E+02 -2.41894E+02 -1.43796E+03 -1.68039E+03 -7.69776E+02
 -9.89646E+02 -9.69207E+02 -1.41389E+03  1.64186E+02 -1.04289E+02 -5.84453E+02  2.69404E+02 -2.18685E+03
  7.72813E+02 -1.39771E+03  1.94888E+03 -9.82435E+01  2.21700E+03  2.37849E+03  7.73393E+02  4.63741E+03
 -2.02176E+03  5.06795E+03 -3.43030E+03  2.45534E+03 -3.98887E+03 -9.83291E+02 -4.05579E+03 -3.76193E+03
 -1.88242E+03 -3.76487E+03  1.72500E+03 -3.27528E+03  2.09110E+03 -2.29899E+03  1.83247E+03  1.13550E+02
  2.39253E+03  1.68985E+03 -1.35513E+03  1.20773E+03 -1.11688E+03 -1.04152E+03 -7.25650E+01 -1.30873E+03
  8.57907E+02  7.59255E+02  1.69803E+03  4.03215E+02  5.92749E+02  1.78172E+03  8.54334E+02  1.17391E+03
 -1.66315E+03  1.39183E+03 -1.66778E+03 -2.45581E+02 -3.61352E+03  7.10906E+02 -3.65694E+02 -3.12814E+03
  2.04217E+03 -2.53575E+03  3.74099E+03  5.08931E+02  3.25191E+03 -3.83564E+02  2.31860E+03  2.73586E+03
 -5.43519E+01  3.07568E+03 -1.21656E+03  1.71181E+03 -1.20151E+03  1.98976E+03 -2.22898E+03  8.83984E+02
 -9.08096E+02 -7.34143E+02 -1.62213E+03 -4.67996E+02 -1.07547E+03 -8.80355E+02 -1.55003E+03 -1.64100E+03
 -1.41473E+03 -1.97380E+02 -4.37047E+02 -1.96700E+03  1.36811E+03 -2.92551E+03  1.24217E+03 -6.60671E+02
  2.42409E+03  9.14865E+00  8.20867E+02  1.82028E+03  4.83698E+02  2.07614E+03 -2.05631E+03  1.37281E+03
