 $NMID ID='MM_0lb_SNR200_19hz_g50_67.RAW', FMTDAT='(8E13.5)'
 TRAMP=1., VOLUME=1. $END
  3.09092E+05  2.51815E+01  3.36846E+05  2.50600E+05  8.38203E+04  3.37363E+05 -1.31692E+05  2.50177E+05
 -1.90447E+05  8.29153E+04 -1.11198E+05 -3.30232E+04  6.92767E+02 -5.06042E+04  5.41150E+04  9.77517E+02
  3.61441E+04  5.35195E+04 -1.63732E+04  7.45879E+04 -6.11516E+04  6.35747E+04 -8.24937E+04  3.14081E+04
 -7.88047E+04 -1.02517E+04 -5.57699E+04 -5.03288E+04 -1.49658E+04 -6.98102E+04  2.61755E+04 -4.39118E+04
  3.91064E+04  3.56695E+03  1.59325E+04  4.74904E+04 -3.41268E+04  4.65553E+04 -6.61974E+04  2.69851E+02
 -5.24972E+04 -5.60962E+04 -6.48023E+03 -7.56339E+04  3.33049E+04 -5.28512E+04  4.64956E+04 -1.58802E+04
  4.12167E+04  1.03647E+04  3.18367E+04  2.48359E+04  1.65070E+04  2.83473E+04 -3.46401E+03  2.61076E+04
 -2.07143E+04  1.30785E+04 -1.79980E+04 -4.47875E+03  4.56200E+03 -6.67220E+03  2.17236E+04  1.05303E+04
  6.84968E+03  3.32588E+04 -2.96222E+04  3.44044E+04 -6.13077E+04  1.60446E+03 -5.60842E+04 -4.21891E+04
 -1.19912E+04 -6.17922E+04  3.87364E+04 -4.28754E+04  5.51535E+04 -1.42537E+03  3.13306E+04  3.08588E+04
 -7.51986E+03  3.36754E+04 -2.97122E+04  1.32664E+04 -2.72965E+04 -5.68121E+03 -1.46984E+04 -9.77955E+03
 -7.76686E+03 -1.21908E+04 -1.29765E+03 -1.60702E+04  6.75597E+03 -2.21123E+04  1.53137E+04 -1.40706E+04
  1.10624E+04  3.97460E+03 -5.44778E+03  1.23554E+04 -1.91650E+04 -3.88961E+03 -7.58435E+03 -3.11441E+04
  2.10594E+04 -4.02302E+04  4.45906E+04 -1.83823E+04  4.18902E+04  1.91832E+04  1.39718E+04  4.18877E+04
 -1.51615E+04  3.13674E+04 -2.31511E+04  1.43205E+03 -8.63244E+03 -2.59929E+04  2.00430E+04 -3.09767E+04
  3.76698E+04 -6.09634E+03  3.14230E+04  2.24399E+04  1.57779E+04  4.27259E+04 -6.95644E+03  4.45097E+04
 -2.90446E+04  2.94278E+04 -3.81880E+04  7.09672E+03 -3.77022E+04 -1.59210E+04 -2.11416E+04 -3.44186E+04
  7.95075E+03 -3.43689E+04  2.84950E+04 -1.25569E+04  2.62693E+04  1.07388E+04  3.96247E+03  1.77478E+04
 -1.30443E+04  7.80018E+03 -1.07905E+04 -8.14065E+03  6.14928E+03 -1.05123E+04  1.67849E+04  6.84074E+03
  1.12726E+04  2.10539E+04 -6.87108E+03  2.45272E+04 -2.15664E+04  9.13273E+03 -2.50256E+04 -6.22787E+03
 -1.60302E+04 -1.55492E+04 -7.55838E+03 -1.65745E+04  4.54456E+03 -1.54782E+04  1.21655E+04 -1.38611E+04
  2.02440E+04 -1.27364E+04  2.72524E+04  7.05363E+02  2.17966E+04  1.63638E+04  4.79853E+03  3.19004E+04
 -1.48307E+04  2.74697E+04 -2.51328E+04  9.32554E+03 -1.92637E+04 -1.04858E+04 -5.00076E+03 -1.31539E+04
  2.83874E+03 -3.95700E+03 -2.20580E+03  4.81374E+03 -1.31449E+04  5.74549E+03 -1.37502E+04 -5.27846E+03
 -9.71166E+03 -1.50706E+04  4.27498E+03 -1.95481E+04  1.33805E+04 -1.39872E+04  1.37592E+04 -1.65105E+03
  9.33778E+03  1.05309E+04  9.60428E+01  1.51617E+04 -1.03987E+04  8.69677E+03 -1.58159E+04 -3.02236E+03
 -1.18726E+04 -1.41266E+04 -9.75538E+02 -1.86635E+04  8.95259E+03 -1.48572E+04  1.64475E+04 -6.41642E+03
  1.37825E+04  1.00560E+03  9.54475E+03  5.29933E+03  4.50317E+03  1.44453E+03  7.59046E+03 -1.23146E+03
  1.30824E+04  2.45931E+03  1.37444E+04  1.19273E+04  9.44007E+03  2.42578E+04 -3.07610E+03  2.73099E+04
 -1.60095E+04  2.13464E+04 -2.42290E+04  8.91356E+03 -2.41760E+04 -2.03717E+03 -1.99300E+04 -1.28099E+04
 -8.98879E+03 -1.98231E+04  7.22170E+03 -1.86059E+04  1.64891E+04 -1.13173E+04  1.58838E+04  4.74143E+03
  7.08567E+03  1.07056E+04 -6.35120E+03  1.06391E+04 -1.36755E+04  2.46903E+03 -1.01755E+04 -7.39800E+03
  3.23454E+02 -1.18626E+04  5.80742E+03 -1.02898E+04  6.04770E+03 -2.06579E+03  1.92956E+03  6.19140E+03
 -5.85276E+03  8.67243E+02 -3.50066E+03 -3.80694E+03  6.59808E+02 -9.68873E+03  8.72004E+03 -9.31911E+03
  1.15540E+04 -3.86633E+03  1.14331E+04  2.60229E+03  1.03122E+04  9.23029E+03  4.44788E+03  1.36663E+04
 -1.09212E+03  1.56303E+04 -1.05277E+04  9.89848E+03 -1.22348E+04  4.17425E+03 -9.43398E+03 -1.68513E+03
 -5.46302E+03 -2.64791E+03 -1.60326E+03  1.15332E+03 -3.70163E+02  1.65485E+03 -3.64820E+03  3.21500E+03
 -7.59347E+03 -1.20542E+02 -8.23695E+03 -6.59019E+03 -3.34160E+03 -1.07224E+04  4.66713E+03 -8.29848E+03
  6.75635E+03 -3.65727E+03  6.22264E+03  2.08206E+03  1.53657E+03  3.24585E+03 -3.26096E+03 -3.47040E+02
 -2.95267E+03 -4.79829E+03 -5.02171E+02 -7.60477E+03  4.17825E+03 -6.96732E+03  9.87564E+03 -2.92070E+03
  1.13796E+04  9.74251E+02  8.45852E+03  5.77491E+03  1.95003E+03  8.09531E+03 -4.21219E+03  7.76416E+03
 -6.61853E+03  2.19926E+03 -4.23181E+03 -1.21915E+03  2.67536E+03 -6.39035E+02  5.27876E+03 -1.47714E+03
  5.95890E+03  2.80139E+03  1.90328E+03  6.59687E+03 -4.39602E+03  6.38380E+03 -7.91295E+03  2.21017E+03
 -5.43891E+03 -3.72900E+03  5.98591E+02 -6.13180E+03  3.29501E+03 -2.83832E+03  2.58316E+03  4.04535E+02
 -9.37397E+01  3.22931E+03 -4.48332E+03  5.34148E+03 -4.39248E+03  2.71230E+03 -3.75981E+03 -2.21855E+02
 -2.72352E+03 -5.82318E+03  6.02673E+02 -5.54324E+03  6.46522E+03 -4.79236E+03  6.72479E+03  8.52265E+02
  5.52858E+03  4.85171E+03 -2.87257E+02  7.31942E+03 -4.99826E+03  4.49541E+03 -5.37186E+03 -7.14099E+02
 -6.69472E+03 -5.20531E+03 -1.09631E+03 -4.01303E+03  2.41301E+03 -3.62064E+03  2.87991E+03 -3.21620E+03
  2.35272E+03 -8.62586E+02  8.08831E+02  1.67652E+03  1.10180E+03  4.26855E+02 -1.09598E+03 -9.46827E+02
  3.84835E+03 -2.53118E+02  4.68740E+03  6.46882E+02  5.17791E+03  3.95701E+03  5.57776E+03  6.77378E+03
 -3.98335E+02  7.83357E+03 -7.90526E+03  5.95328E+03 -8.79168E+03  1.84584E+03 -7.22653E+03 -2.40224E+03
 -4.00665E+03 -6.95936E+03 -7.88362E+02 -5.66459E+03  2.46165E+03 -2.78425E+03  3.05991E+03 -1.82350E+03
  7.08854E+02 -1.15600E+03  2.15678E+03 -1.62949E+03  4.43666E+03 -1.13171E+03  3.71027E+03  5.13510E+02
  5.27508E+03  1.26822E+03  7.52759E+02  3.80091E+03 -1.45713E+03  3.31907E+03 -3.86848E+03  1.92915E+03
 -4.51359E+03 -7.62077E+02 -1.83624E+03 -3.84715E+03 -2.36083E+02 -5.97597E+03  3.04042E+03 -6.21969E+03
  4.96457E+03 -3.30239E+03  6.01136E+03 -6.50964E+02  5.29346E+03  4.51781E+03  8.42642E+02  5.48429E+03
 -2.23452E+03  5.71470E+03 -3.86483E+03  2.74469E+03 -2.39895E+03 -1.65104E+03 -6.49718E+02 -1.28524E+02
 -4.53837E+02 -4.36039E+02 -1.62357E+03  1.76564E+03 -2.81896E+03  9.40684E+02 -3.85135E+03 -1.12201E+03
 -7.47110E+02 -3.76377E+03 -9.50210E+00 -5.46532E+03  3.35567E+03 -4.22111E+03  3.63327E+03 -2.12527E+02
  3.94496E+03  1.55377E+03  2.01820E+03  2.93658E+03 -1.01231E+03  4.51332E+03 -1.92007E+03  2.53778E+03
 -4.68248E+03  9.67634E+02 -3.11288E+03 -1.91990E+03 -4.94773E+02 -2.66912E+03  1.25554E+03 -2.06640E+03
  2.19052E+03 -1.60934E+03  1.92886E+03  7.00593E+02  1.03658E+03  1.61165E+03  1.29192E+03  1.34720E+03
  1.66759E+03  7.46197E+02  5.94588E+02  8.32667E+02  8.91527E+02  2.03947E+03  2.12502E+03  1.81071E+03
 -8.68729E+02  3.36779E+03 -2.96807E+03  4.28804E+03 -2.70867E+03  2.30522E+03 -3.95582E+03  3.40622E+02
 -2.18510E+03 -3.93283E+03 -1.95656E+02 -4.37203E+03  1.63291E+03 -2.81226E+03  1.82467E+03 -1.02174E+03
  1.39577E+03  1.30087E+03  2.29529E+02  1.21110E+03  1.07253E+02  1.54524E+03 -1.55396E+03 -5.23240E+02
  7.80443E+02 -1.19061E+03  4.80271E+02 -2.13696E+03  1.80814E+03 -1.85239E+03  1.03076E+03  1.04880E+03
  4.97341E+02  1.88055E+02  1.28513E+03  7.21278E+02 -9.85553E+02  1.18786E+03  1.52211E+03 -7.25613E+02
 -2.05387E+02 -1.11364E+03  1.95450E+03  4.50306E+02  3.68242E+02  1.96166E+03  6.92592E+02  3.11681E+03
 -1.47332E+03  8.32438E+02 -1.87035E+03  3.28749E+02 -2.73992E+03 -6.60657E+02  2.75811E+02 -1.01947E+03
  2.16457E+02 -1.66613E+03  5.21720E+02 -6.24576E+00 -4.15269E+02  8.27380E+02 -1.51689E+03  1.01343E+03
 -1.85487E+03  6.18787E+02 -1.01763E+02 -5.84511E+02 -2.21168E+02 -1.62283E+03  2.37683E+02 -1.43201E+03
 -8.83854E+02 -5.07820E+02  4.46867E+02  4.11159E+02  1.84419E+03 -6.36215E+02  3.28162E+02  6.67411E+02
 -1.12213E+03  1.90278E+02 -1.33287E+02 -1.23272E+03  1.36968E+03 -1.87153E+02  1.66086E+03 -8.88651E+02
  6.36413E+02  3.15604E+02  2.48823E+03 -3.19512E+00  1.51872E+03  4.68429E+02  3.74341E+02  2.50301E+03
 -2.27240E+03  1.12277E+03 -1.63399E+03 -6.57499E+01  7.40931E+01 -1.52903E+03  6.75654E+02 -3.12708E+01
  5.63762E+02 -1.42506E+03  1.45539E+03  1.52108E+03 -5.58563E+01  1.08184E+03  9.20457E+02  9.30087E+02
  2.84445E+01  1.58449E+03  1.54557E+02  1.02324E+03  9.12968E+02  3.49809E+02  1.40090E+02  1.14958E+03
 -2.21521E+02  7.10979E+02 -5.87634E+02  2.81660E+02 -2.85144E+03  1.65587E+02 -3.00813E+03 -7.69019E+02
 -1.05525E+03 -1.91075E+03  1.04111E+03 -2.09463E+03  9.94563E+02 -1.52278E+03  2.92909E+03 -1.67105E+03
  1.65352E+03 -7.44364E+02 -3.45490E+02  1.62168E+03 -2.43348E+02  1.64684E+02 -7.50144E+02  8.19674E+02
 -5.64879E+02  1.28721E+03 -8.95097E+02 -7.21552E+02 -5.57182E+02 -1.67186E+02 -5.43850E+02 -6.07624E+02
 -4.06106E+02  9.12535E+02 -1.36063E+03  4.14246E+02  8.26362E+01 -1.34947E+03 -5.45458E+02 -2.68625E+02
  3.35244E+02 -1.34390E+03 -6.47506E+02  6.43314E+01  9.72358E+02  9.84174E+02 -1.95228E+02  1.27916E+03
 -6.82907E+02  1.28973E+03 -1.16712E+03  1.50526E+03 -1.27660E+03 -9.56307E+01  1.92732E+02 -1.35582E+03
 -1.07476E+03 -1.00826E+03 -3.21200E+01 -9.07306E+02  4.76760E+02 -1.47860E+02  1.30868E+02 -1.95844E+02
  7.36180E+02  1.90431E+02  1.51119E+03  4.48045E+02  1.04415E+03 -3.75981E+01 -9.66967E+02  8.99176E+02
  6.49636E+02  1.47516E+02 -4.23231E+02  4.87338E+02 -6.54708E+02  3.39112E+02  1.04203E+03  8.02374E+00
  7.09859E+02  1.36700E+03 -9.96776E+02  2.71264E+01 -9.67305E+02 -1.36040E+03  3.83381E+02 -8.84269E+02
 -2.72669E+02 -5.31703E+02 -2.81356E+02 -2.62873E+01  1.25150E+03 -7.57765E+02  5.98063E+02 -2.88251E+02
  9.55096E+02 -1.93440E+02 -1.22044E+02  6.81680E+02 -1.28657E+03  2.10227E+02  5.58664E+02  6.24695E+02
 -1.71903E+03  4.47538E+02 -1.80772E+02  1.15455E+03 -3.04693E+02  2.70781E+01 -9.66797E+02 -1.36504E+02
 -4.64919E+02 -1.88354E+02 -3.59188E+02 -9.09783E+02  9.78485E+02 -1.74926E+03  5.69140E+02  8.53705E+02
  1.03330E+03 -2.07846E+02 -9.31714E+01  3.81756E+02  1.40490E+03  1.09934E+03 -4.55844E+02  8.42862E+02
