 $NMID ID='MM_0lb_SNR200_11hz_g45_29.RAW', FMTDAT='(8E13.5)'
 TRAMP=1., VOLUME=1. $END
  3.09287E+05  6.13187E+02  3.37939E+05  2.50857E+05  8.49734E+04  3.38014E+05 -1.33359E+05  2.52647E+05
 -1.90183E+05  8.35006E+04 -1.12443E+05 -3.36952E+04  5.92509E+02 -5.05928E+04  5.35903E+04 -1.02598E+03
  3.49460E+04  5.41637E+04 -1.81757E+04  7.56038E+04 -6.26643E+04  6.38104E+04 -8.45563E+04  3.21239E+04
 -8.20491E+04 -1.29412E+04 -5.92163E+04 -5.09492E+04 -1.41523E+04 -7.22110E+04  2.87676E+04 -4.64327E+04
  4.06372E+04  3.94571E+03  1.58932E+04  4.62445E+04 -3.47266E+04  4.73830E+04 -6.59112E+04  8.37190E+02
 -5.48380E+04 -5.82942E+04 -7.16826E+03 -7.74585E+04  3.33043E+04 -5.60011E+04  4.79913E+04 -1.68097E+04
  4.21248E+04  1.13521E+04  3.31499E+04  2.73277E+04  1.62552E+04  2.96912E+04 -5.44823E+03  2.68502E+04
 -2.31717E+04  1.31315E+04 -1.87457E+04 -5.90213E+03  5.97607E+03 -8.22853E+03  2.30107E+04  1.23419E+04
  8.06679E+03  3.73898E+04 -3.19702E+04  3.66488E+04 -6.31413E+04  1.60585E+03 -5.78874E+04 -4.34822E+04
 -1.29096E+04 -6.41058E+04  4.01202E+04 -4.58246E+04  5.96315E+04 -2.80370E+03  3.60606E+04  3.41559E+04
 -5.84355E+03  3.78967E+04 -3.16623E+04  1.63950E+04 -3.21793E+04 -4.54620E+03 -1.67436E+04 -1.26832E+04
 -8.55782E+03 -1.34086E+04 -1.76243E+02 -2.14419E+04  7.71835E+03 -2.40960E+04  1.48018E+04 -1.15489E+04
  1.19147E+04  5.68111E+03 -8.48972E+03  1.23391E+04 -2.17917E+04 -3.94132E+03 -9.03136E+03 -3.55269E+04
  2.45567E+04 -4.50871E+04  5.05324E+04 -2.09708E+04  4.66391E+04  1.98679E+04  1.63708E+04  4.53216E+04
 -1.50910E+04  3.43576E+04 -2.59656E+04  1.45468E+03 -1.08752E+04 -2.80415E+04  2.25766E+04 -3.60392E+04
  4.32798E+04 -1.06903E+04  3.72164E+04  2.31099E+04  1.99045E+04  4.88469E+04 -8.15528E+03  5.37029E+04
 -3.14581E+04  3.65245E+04 -4.26954E+04  9.83717E+03 -4.46804E+04 -1.68953E+04 -2.53403E+04 -4.01050E+04
  7.21249E+03 -4.03233E+04  3.29566E+04 -1.63749E+04  3.03629E+04  1.07227E+04  4.67729E+03  1.99100E+04
 -1.46654E+04  8.57272E+03 -1.13666E+04 -7.33132E+03  7.59406E+03 -1.08887E+04  1.77590E+04  5.72422E+03
  1.33421E+04  2.40702E+04 -4.78480E+03  2.53951E+04 -2.42812E+04  1.33618E+04 -2.97568E+04 -2.60235E+03
 -2.29991E+04 -1.84942E+04 -9.89298E+03 -2.20339E+04  3.83315E+03 -2.30222E+04  1.79562E+04 -1.79477E+04
  2.79893E+04 -1.23548E+04  3.41792E+04  2.85214E+03  2.37997E+04  2.24291E+04  3.49833E+03  3.76879E+04
 -1.98606E+04  3.20807E+04 -2.89554E+04  1.08618E+04 -2.24509E+04 -9.93221E+03 -4.44724E+03 -1.35436E+04
  8.47841E+02 -2.68196E+03 -3.99862E+03  6.74119E+03 -1.74106E+04  4.41205E+03 -1.88869E+04 -8.15149E+03
 -1.15683E+04 -2.13916E+04  5.62248E+03 -2.62486E+04  1.74621E+04 -1.59212E+04  2.01085E+04 -1.57734E+03
  1.36313E+04  1.47452E+04 -7.30838E+02  2.13930E+04 -1.50310E+04  1.12580E+04 -2.20910E+04 -3.63540E+03
 -1.44995E+04 -1.92321E+04 -2.10886E+03 -2.52085E+04  1.05890E+04 -2.11345E+04  2.27166E+04 -1.10170E+04
  1.86075E+04  1.29417E+03  1.46353E+04  4.90218E+03  9.32446E+03  1.35666E+03  1.14228E+04 -1.39141E+03
  1.98278E+04  2.23047E+03  2.31739E+04  1.72945E+04  1.43031E+04  3.49993E+04 -3.35233E+03  3.79752E+04
 -2.23220E+04  3.21651E+04 -3.62027E+04  1.70153E+04 -3.86552E+04 -2.69097E+03 -3.26551E+04 -2.23640E+04
 -1.33501E+04 -3.19914E+04  1.00908E+04 -2.85427E+04  2.46039E+04 -1.39833E+04  2.13059E+04  6.97330E+03
  7.75839E+03  1.51029E+04 -9.59700E+03  1.40216E+04 -1.86835E+04  2.77146E+03 -1.43892E+04 -1.24498E+04
 -4.95232E+02 -1.68097E+04  9.22557E+03 -1.40439E+04  1.34770E+04 -1.66734E+03  2.50016E+03  7.40631E+03
 -7.98767E+03  3.78556E+03 -8.79664E+03 -7.95289E+03  4.88277E+01 -1.65159E+04  1.05435E+04 -1.71083E+04
  1.90813E+04 -9.06562E+03  2.23076E+04  2.97379E+03  1.90991E+04  1.70214E+04  9.80239E+03  2.42670E+04
 -3.36834E+03  2.61600E+04 -1.69235E+04  1.60028E+04 -2.00401E+04  4.04063E+03 -1.17337E+04 -4.06460E+03
 -7.63897E+03 -6.02788E+03 -1.30336E+03 -6.77529E+02 -2.53438E+03  2.41718E+03 -6.45694E+03  4.73602E+03
 -1.39377E+04 -5.01459E+02 -1.29882E+04 -1.06119E+04 -5.42594E+03 -1.69149E+04  5.24876E+03 -1.40966E+04
  1.14512E+04 -6.05893E+03  7.04565E+03  2.24479E+03  1.33103E+03  5.12456E+03 -6.14255E+03 -7.09010E+02
 -6.46669E+03 -8.61866E+03 -3.69609E+01 -1.16924E+04  7.22230E+03 -1.40105E+04  1.56434E+04 -6.85923E+03
  2.10176E+04  2.69461E+03  1.64133E+04  1.18817E+04  2.68650E+03  1.64198E+04 -7.74685E+03  1.30042E+04
 -1.06356E+04  5.06942E+03 -5.03872E+03 -2.08613E+03  1.93774E+03 -3.14197E+03  7.10364E+03 -1.14962E+03
  7.76814E+03  6.34812E+03  4.90373E+02  1.02348E+04 -7.61719E+03  1.08545E+04 -1.31366E+04  2.77800E+03
 -9.75787E+03 -6.65892E+03 -8.29700E+02 -1.18705E+04  7.84092E+03 -5.30440E+03  7.37939E+03  3.00604E+03
  1.55056E+03  6.92890E+03 -6.12029E+03  8.58033E+03 -1.04883E+04  3.77562E+03 -1.11611E+04 -4.14581E+03
 -7.11186E+03 -1.34236E+04  2.59964E+03 -1.41319E+04  1.28526E+04 -9.43421E+03  1.22632E+04  1.28860E+03
  8.69382E+03  9.75754E+03 -1.29018E+03  1.30660E+04 -1.03078E+04  7.20660E+03 -9.75162E+03 -1.47857E+02
 -9.22522E+03 -8.71335E+03 -2.98823E+03 -9.74641E+03  5.42033E+03 -7.60699E+03  7.07117E+03 -4.20780E+03
  4.20077E+03  6.37633E+02 -5.66446E+02  2.31801E+03  9.00534E+02 -3.14309E+03  1.39651E+03 -6.35156E+03
  9.65358E+03 -2.72904E+03  1.20400E+04  1.98124E+03  1.19526E+04  9.51002E+03  9.48291E+03  1.58649E+04
 -2.57576E+03  1.93391E+04 -1.56347E+04  1.34486E+04 -2.25924E+04  2.28048E+03 -1.68131E+04 -6.69981E+03
 -7.52089E+03 -1.28320E+04 -9.84154E+02 -1.17340E+04  5.93685E+03 -6.25438E+03  4.46054E+03 -4.79019E+03
  2.44869E+03 -3.32161E+03  3.83605E+03 -3.73163E+03  4.36883E+03 -3.85824E+03  8.20509E+03  2.00969E+02
  8.02085E+03  2.48596E+03  4.07080E+03  7.98118E+03 -3.06739E+03  7.06531E+03 -9.39835E+03  6.54906E+03
 -1.26301E+04  2.25892E+01 -5.62212E+03 -8.21939E+03 -1.01266E+03 -1.35223E+04  6.91797E+03 -1.12506E+04
  1.23554E+04 -7.55477E+03  1.66454E+04  1.94110E+03  1.14250E+04  1.03809E+04  1.71696E+03  1.44078E+04
 -6.16290E+03  1.11495E+04 -8.40528E+03  2.83908E+03 -5.89242E+03 -1.87178E+03 -1.53591E+03 -2.65037E+03
 -5.14017E+02 -5.27676E+02 -3.54001E+03  2.98395E+03 -6.05793E+03  1.37096E+03 -8.71564E+03 -9.19451E+02
 -4.22798E+03 -7.44977E+03 -2.38474E+02 -1.06135E+04  7.41694E+03 -1.17680E+04  1.01747E+04 -3.52150E+03
  1.04545E+04  5.41278E+03  3.74428E+03  9.80703E+03 -2.73405E+03  1.14079E+04 -7.84599E+03  7.58062E+03
 -9.78814E+03  8.30381E+02 -7.92081E+03 -6.37478E+03  8.22754E+02 -9.34356E+03  4.63029E+03 -7.59377E+03
  8.93167E+03 -2.01782E+03  4.62082E+03  2.90009E+03  2.92470E+03  2.70740E+03  5.74828E+02  2.41048E+03
  1.16514E+03  2.89814E+01  2.91922E+03  1.33778E+03  4.01705E+03  3.77369E+03  5.61722E+03  5.69115E+03
 -2.16049E+03  8.40403E+03 -9.59084E+03  9.06595E+03 -1.00719E+04  3.34245E+03 -1.29588E+04 -3.98705E+03
 -6.29608E+03 -1.15028E+04  1.26123E+03 -1.33239E+04  7.23985E+03 -7.58782E+03  9.73745E+03 -2.72499E+03
  5.73503E+03  3.96964E+03  1.58708E+03  5.69798E+03 -3.65464E+03  5.64558E+03 -3.81415E+03 -1.19626E+03
 -5.34874E+02 -3.98827E+03  1.92637E+03 -5.51104E+03  5.66406E+03 -1.81175E+03  4.51477E+03  2.00070E+03
  2.23608E+03  1.14596E+03  1.47617E+03  1.78008E+03 -1.74181E+03  1.11406E+03  2.21425E+03 -1.25748E+03
  1.92770E+03 -6.97318E+02  3.11641E+03  1.57739E+03  1.73484E+03  7.72164E+03 -1.39298E+03  8.44245E+03
 -6.23624E+03  4.16003E+03 -5.31595E+03  7.16249E+02 -6.03920E+03 -2.30344E+03 -1.42764E+03 -3.84265E+03
  8.65440E+02 -4.92966E+03  3.49922E+03 -2.19826E+03  3.56454E+02  2.88682E+03 -1.92793E+03  4.18626E+03
 -3.70833E+03  2.32762E+03 -5.87931E+03 -1.68165E+03 -3.32669E+03 -4.49028E+03 -2.16395E+02 -6.58541E+03
  3.66498E+03 -2.96975E+03  4.65716E+03  6.41884E+01  5.20276E+03  1.50283E+03 -3.38287E+02  4.75002E+03
 -1.74347E+03  1.53475E+03 -2.10101E+03 -1.72274E+03  8.75286E+02 -4.84458E+03  6.27376E+03 -3.19970E+03
  6.64073E+03  7.11994E+02  6.48035E+03  4.24472E+03  2.81614E+03  6.63483E+03 -3.97744E+03  6.40700E+03
 -7.32315E+03  2.69005E+03 -5.36785E+03 -1.73048E+02 -3.36517E+03 -4.48686E+03  2.53052E+02 -3.82863E+03
  4.41141E+03 -2.02714E+03  3.95021E+03  1.77552E+03  2.47893E+03  3.89748E+03 -1.21884E+03  2.94424E+03
 -2.21230E+03  1.63697E+03 -1.83394E+03  8.44045E+02 -9.26836E+02  8.31604E+02 -2.07506E+03  1.89870E+03
 -9.77138E+02  2.81291E+03 -4.65958E+03  1.93793E+03 -5.29545E+03  2.81313E+02 -7.95052E+03 -3.38803E+03
 -2.97220E+03 -9.43997E+03  9.33196E+02 -1.10768E+04  5.82937E+03 -7.12764E+03  1.04409E+04 -3.64295E+03
  8.86912E+03  1.60661E+03  4.67764E+03  6.59734E+03 -4.00433E+02  7.50073E+03 -2.07870E+03  4.70278E+03
 -3.70920E+03  1.64945E+03 -1.66329E+03 -1.39714E+03 -1.68485E+03 -1.65016E+03 -1.65458E+03  1.61904E+02
 -7.04678E+02  3.70607E+02 -1.94290E+03 -2.12817E+02 -2.78856E+01 -2.36269E+03 -8.59943E+02 -2.46592E+03
  3.92170E+03 -1.96836E+03  4.73654E+03 -1.73401E+02  4.53194E+03  4.68791E+03  1.51025E+03  7.34622E+03
 -3.05389E+03  7.80579E+03 -7.33053E+03  4.76876E+03 -8.93105E+03 -5.57691E+02 -5.86152E+03 -5.30841E+03
 -2.77333E+03 -7.70289E+03  2.68647E+03 -7.94102E+03  5.21667E+03 -3.82946E+03  4.02767E+03  6.30905E+02
  3.24629E+03  2.03063E+03 -5.14633E+02  1.55428E+03 -6.18870E+02 -1.12053E+03 -5.15577E+02 -7.30937E+02
  2.53452E+03 -6.06331E+02  1.96793E+03  5.64448E+02  9.11045E+02  2.09724E+03 -2.50731E+02  3.18224E+03
 -1.93396E+03  4.25667E+03 -4.51835E+03 -3.34114E+02 -5.14262E+03 -3.39634E+03 -8.14322E+02 -6.81301E+03
  4.08282E+03 -4.23917E+03  4.14311E+03 -2.51418E+03  6.88982E+03  2.56545E+03  1.85994E+03  3.38129E+03
  1.92187E+01  6.09942E+03 -1.89653E+03  2.72473E+03 -3.64603E+03  2.86521E+03 -2.03008E+03  8.90449E+02
 -1.82646E+03 -1.46514E+02 -2.12036E+03 -4.86556E+02 -3.20625E+03  2.08638E+02 -3.07467E+03 -2.74486E+02
 -2.85683E+03 -1.88225E+03 -6.35202E+02 -4.21060E+03  3.81694E+03 -5.73143E+03  3.92232E+03 -2.29077E+03
  6.40318E+03 -6.18805E+02  1.15737E+03  2.34911E+03 -1.98574E+03  3.74558E+03 -4.11836E+03  3.82451E+03
