 $NMID ID='MM_0lb_SNR200_19hz_g60_76.RAW', FMTDAT='(8E13.5)'
 TRAMP=1., VOLUME=1. $END
  3.09555E+05  5.01875E+02  3.38220E+05  2.50564E+05  8.37461E+04  3.38362E+05 -1.32935E+05  2.50767E+05
 -1.88805E+05  8.36531E+04 -1.10508E+05 -3.34395E+04  2.18920E+02 -5.03480E+04  5.42275E+04  1.17081E+03
  3.42710E+04  5.26805E+04 -1.64347E+04  7.44851E+04 -6.07643E+04  6.35568E+04 -8.34654E+04  3.17644E+04
 -8.08455E+04 -1.06748E+04 -5.75271E+04 -5.02226E+04 -1.50119E+04 -6.79059E+04  2.59704E+04 -4.48852E+04
  3.86593E+04  3.84118E+03  1.60976E+04  4.70751E+04 -3.59409E+04  4.69356E+04 -6.56943E+04  7.94161E+02
 -5.38541E+04 -5.62270E+04 -6.74922E+03 -7.53967E+04  3.38809E+04 -5.41495E+04  4.74614E+04 -1.84101E+04
  4.26898E+04  1.15343E+04  3.08388E+04  2.57902E+04  1.65874E+04  2.83607E+04 -5.11854E+03  2.81195E+04
 -2.14961E+04  1.34878E+04 -1.85404E+04 -3.71848E+03  4.17989E+03 -7.57155E+03  2.17845E+04  1.27200E+04
  7.35686E+03  3.40928E+04 -3.23040E+04  3.41400E+04 -6.26970E+04  2.94672E+03 -5.57710E+04 -4.17210E+04
 -1.32869E+04 -6.29192E+04  3.96093E+04 -4.35311E+04  5.70532E+04 -2.17078E+03  3.30487E+04  3.19348E+04
 -5.72837E+03  3.44004E+04 -2.97540E+04  1.52939E+04 -2.80384E+04 -4.91692E+03 -1.49466E+04 -9.22416E+03
 -7.17507E+03 -1.23758E+04 -3.86174E+02 -1.73891E+04  7.90938E+03 -2.26434E+04  1.50754E+04 -1.32989E+04
  1.16472E+04  5.55182E+03 -7.07374E+03  1.48199E+04 -1.99143E+04 -2.96253E+03 -8.04490E+03 -3.15310E+04
  2.16526E+04 -4.25828E+04  4.66910E+04 -1.81542E+04  4.31153E+04  1.89003E+04  1.54245E+04  4.28909E+04
 -1.52775E+04  3.28127E+04 -2.36356E+04  1.92444E+03 -8.44071E+03 -2.78139E+04  2.13355E+04 -3.20744E+04
  3.94765E+04 -7.58975E+03  3.42230E+04  2.39185E+04  1.59148E+04  4.44473E+04 -7.96701E+03  4.75113E+04
 -2.83149E+04  3.19279E+04 -4.02002E+04  8.49000E+03 -3.99298E+04 -1.64759E+04 -2.22466E+04 -3.67807E+04
  6.10071E+03 -3.52064E+04  2.93939E+04 -1.34571E+04  2.76968E+04  1.10273E+04  3.08189E+03  1.83846E+04
 -1.28626E+04  7.69683E+03 -9.10977E+03 -7.95158E+03  5.75328E+03 -1.04331E+04  1.71973E+04  6.46367E+03
  1.25586E+04  2.30738E+04 -6.05511E+03  2.39262E+04 -2.10277E+04  1.00371E+04 -2.61893E+04 -4.55623E+03
 -1.81896E+04 -1.67164E+04 -6.63228E+03 -1.77151E+04  3.53675E+03 -1.64921E+04  1.40027E+04 -1.64532E+04
  2.30510E+04 -1.04017E+04  2.91955E+04  1.84740E+03  2.20978E+04  1.75678E+04  3.41961E+03  3.37808E+04
 -1.64976E+04  2.87710E+04 -2.74213E+04  9.13263E+03 -2.04193E+04 -1.03671E+04 -4.98370E+03 -1.42005E+04
  2.79974E+03 -3.72027E+03 -1.93729E+03  5.26318E+03 -1.28908E+04  5.24945E+03 -1.48619E+04 -5.41317E+03
 -1.00927E+04 -1.67986E+04  4.96570E+03 -2.00624E+04  1.37689E+04 -1.39537E+04  1.63105E+04 -2.33629E+03
  1.02418E+04  1.13783E+04 -4.96818E+02  1.70576E+04 -9.87268E+03  8.90737E+03 -1.71415E+04 -3.11078E+03
 -1.26040E+04 -1.52243E+04 -1.21005E+03 -2.00108E+04  9.49193E+03 -1.56056E+04  1.60531E+04 -8.62113E+03
  1.49034E+04  1.28389E+03  1.09168E+04  3.99318E+03  5.21647E+03 -1.95382E+02  7.12113E+03 -1.22328E+03
  1.51353E+04  2.45025E+03  1.52913E+04  1.36997E+04  1.04202E+04  2.55609E+04 -1.96189E+03  2.80663E+04
 -1.52571E+04  2.20338E+04 -2.63348E+04  1.09251E+04 -2.62523E+04 -2.50312E+03 -2.23744E+04 -1.50661E+04
 -1.08111E+04 -2.22355E+04  7.68699E+03 -2.12262E+04  1.83354E+04 -1.27364E+04  1.57164E+04  3.63276E+03
  7.10075E+03  1.14709E+04 -7.66073E+03  1.17907E+04 -1.38574E+04  2.97033E+03 -1.17783E+04 -8.05110E+03
  1.24610E+03 -1.25167E+04  7.09045E+03 -1.08373E+04  8.33357E+03 -1.82001E+03 -1.79379E+02  4.40889E+03
 -5.44420E+03  2.31449E+03 -3.42310E+03 -5.65813E+03 -4.16835E+01 -1.10959E+04  9.12862E+03 -1.14771E+04
  1.26370E+04 -5.59700E+03  1.44478E+04  3.11072E+03  1.10763E+04  1.06871E+04  5.89591E+03  1.54719E+04
 -8.25163E+02  1.71878E+04 -9.89454E+03  1.00404E+04 -1.21236E+04  2.97903E+03 -8.02382E+03 -1.78652E+03
 -3.63003E+03 -3.08466E+03 -1.55677E+03  1.15176E+03 -2.55391E+03  2.14680E+03 -3.17328E+03  3.00840E+03
 -8.33553E+03 -1.39119E+02 -8.67413E+03 -7.09426E+03 -4.06938E+03 -1.19373E+04  3.05613E+03 -8.07963E+03
  7.27341E+03 -3.71395E+03  5.94174E+03  2.70608E+03  1.44628E+03  2.01941E+03 -5.10741E+03 -3.35430E+02
 -3.29034E+03 -4.78594E+03  2.02062E+02 -6.39525E+03  4.20124E+03 -8.51050E+03  1.04963E+04 -4.88259E+03
  1.16098E+04  2.15605E+02  8.34890E+03  6.04441E+03  1.49839E+03  9.08172E+03 -6.43430E+03  9.42692E+03
 -7.18388E+03  3.01269E+03 -4.50433E+03 -1.31253E+03  1.11594E+03 -1.67067E+03  5.36829E+03 -6.65394E+02
  6.10036E+03  3.56787E+03  1.03853E+03  6.55387E+03 -5.08985E+03  6.97888E+03 -7.16500E+03  2.27913E+03
 -5.58361E+03 -4.66230E+03  1.72928E+02 -6.76325E+03  4.38147E+03 -2.54740E+03  3.47055E+03  1.49504E+03
  1.09501E+03  2.08052E+03 -5.21272E+03  5.24899E+03 -5.31423E+03  2.51649E+03 -4.62853E+03 -4.69051E+02
 -3.92584E+03 -6.52835E+03  9.05262E+02 -7.07476E+03  6.53293E+03 -3.93302E+03  7.66273E+03  5.61133E+02
  5.85809E+03  6.01957E+03  3.27351E+02  6.82139E+03 -5.98290E+03  5.21085E+03 -7.04730E+03 -1.92696E+02
 -5.91863E+03 -4.75069E+03 -8.34043E+02 -4.08356E+03  2.61588E+03 -4.91984E+03  2.85608E+03 -3.66792E+03
  3.19566E+03 -1.53172E+02  4.18659E+02  7.09797E+02  7.92897E+02 -5.31280E+02  3.59625E+02 -2.23363E+03
  4.60802E+03  1.09764E+02  5.78481E+03  5.48464E+02  6.07302E+03  3.23494E+03  5.11641E+03  7.21407E+03
 -1.12432E+03  9.29350E+03 -7.49672E+03  6.72596E+03 -1.00024E+04  1.62851E+03 -7.90916E+03 -1.72951E+03
 -4.56958E+03 -5.48859E+03 -1.21119E+03 -4.72889E+03  2.40753E+03 -3.23925E+03  2.31210E+03 -1.79433E+03
  5.96401E+02 -9.58422E+01  2.10492E+03 -1.60267E+03  4.06221E+03 -8.25323E+02  3.47169E+03  1.45728E+03
  4.30209E+03  8.07051E+02  1.40787E+03  2.52686E+03 -2.14012E+03  2.80982E+03 -4.23061E+03  2.79528E+03
 -4.44952E+03 -1.02168E+03 -1.24703E+03 -3.65029E+03  4.06333E+02 -5.00435E+03  2.69778E+03 -5.75828E+03
  5.52491E+03 -3.26369E+03  6.49980E+03  6.77220E+02  5.26163E+03  2.94793E+03  1.75152E+02  6.11966E+03
 -2.81162E+03  5.14799E+03 -4.19283E+03  2.20181E+03 -1.27018E+03  1.42539E+02  3.15012E+02 -1.33498E+03
 -6.73215E+02  2.20698E+02 -1.06395E+03  1.62648E+03 -2.40749E+03  1.50284E+03 -4.14769E+03 -1.07521E+03
 -7.86615E+02 -3.29538E+03  5.67156E+02 -5.19109E+03  3.10017E+03 -4.73797E+03  3.51330E+03 -1.64502E+03
  3.28952E+03  2.58284E+03  1.81849E+03  3.33515E+03 -1.39127E+03  4.32536E+03 -3.11634E+03  1.25564E+03
 -3.45309E+03  6.38772E+02 -3.14439E+03 -2.73776E+03  2.45098E+02 -3.66934E+03  1.00754E+03 -2.79120E+03
  2.55149E+03 -9.31000E+02  2.64757E+03 -5.54001E+02  8.51113E+02  1.74365E+03  4.22831E+02  1.16656E+03
  1.96404E+03  3.98312E+02  1.15389E+03  2.94498E+02  1.53089E+03  1.29426E+03  1.06838E+03  1.22262E+03
 -9.40517E+02  1.67360E+03 -2.82763E+03  3.83149E+03 -1.93228E+03  1.56281E+03 -4.91116E+03  3.70469E+02
 -1.62260E+03 -3.32768E+03  1.54713E+03 -5.08526E+03  1.16441E+03 -2.48345E+03  2.28852E+03 -3.01956E+00
  2.43924E+03  1.21362E+03  5.32148E+02  2.08230E+03 -5.55039E+02  1.86501E+03 -1.58992E+03  6.08056E+02
  5.78479E+02 -1.31868E+03  9.19810E+02 -6.24412E+02  8.33118E+02 -8.14889E+02  1.20593E+03  3.52313E+02
  1.10539E+03  1.20024E+03  4.00821E+01  2.93147E+02 -1.74264E+02  5.68460E+02  2.13718E+03  9.32645E+02
  1.56027E+02 -3.57719E+02  2.12550E+03  8.61623E+02  3.97332E+02  1.93546E+03  2.54734E+02  2.86751E+03
 -1.53909E+03 -1.14832E+02 -1.86952E+03  1.14581E+03 -2.22533E+03 -4.50897E+02  2.16356E+01 -4.64442E+02
 -4.32258E+01 -8.96227E+02  1.01720E+03 -5.84454E+02  1.54169E+03  1.09272E+03  1.31567E+02  1.51567E+03
 -1.11508E+03 -6.01032E+02 -9.17913E+02 -1.56055E+03 -8.92992E+02 -1.72086E+03 -3.38800E+02 -1.61544E+03
  8.81567E+01 -5.27952E+02  5.45830E+02  1.44427E+03  1.64785E+03 -9.15193E+02  6.42438E+02  1.40144E+03
 -5.00823E+02  2.77855E+02 -1.30339E+03  6.76407E+02  4.42328E+02 -2.73413E+02  1.32760E+03 -1.24375E+03
  1.07569E+03  8.15054E+01  3.06821E+03  5.23325E+02  1.49556E+03  1.64850E+03  1.57799E+03  1.08943E+03
 -1.27722E+03 -9.12582E+01 -1.32582E+03 -2.44404E+02 -1.34667E+03 -1.56177E+03  5.63621E+02 -2.82331E+02
  1.11702E+03 -1.51086E+03  3.14057E+02  5.26821E+02  1.16094E+02  9.86161E+02  5.70418E+02  4.28039E+02
 -2.76839E+02  2.74142E+03 -4.22134E+02 -1.77610E+02  4.72556E+02  2.79755E+02 -1.02957E+03  1.22348E+02
 -6.06732E+02  5.69595E+02 -2.13293E+03  1.58685E+02 -1.76869E+03 -6.51934E+02 -1.74074E+03 -1.68333E+03
 -1.57991E+02 -1.67444E+03  6.47312E+02 -3.24751E+03 -1.13990E+01 -1.94638E+03  2.16164E+03 -1.57541E+03
  2.50841E+03 -1.12675E+02  8.77724E+02  6.86425E+02  2.27125E+00  1.46022E+03 -1.61375E+02  1.19890E+03
 -6.37701E+02  1.34680E+02 -1.96541E+02 -7.39364E+02 -2.07283E+02  3.16647E+02  1.81750E+02 -2.43454E+02
 -1.76601E+03 -1.21984E+03 -1.38293E+03  2.14391E+02 -4.12849E+01  1.30510E+02 -1.03619E+03 -1.56364E+03
 -5.21436E+02 -5.39709E+01  1.40226E+03 -1.87874E+02  1.40997E+03  2.93125E+02 -3.93962E+02  2.08434E+03
 -9.66472E+02  2.65122E+03 -1.63217E+03  5.22349E+01 -2.40816E+03 -3.59647E+02 -9.02887E+02 -1.93708E+03
 -8.02465E+02 -1.14581E+03  5.14011E+02 -1.97629E+03  7.90631E+02 -1.66482E+03  7.79513E+02  9.68481E+02
  1.78855E+03  6.98654E+02  6.20692E+02  5.23357E+02 -3.73735E+02 -9.82562E+02 -7.62754E+02 -1.05991E+02
  8.34878E+02  1.93536E+01 -2.69456E+02 -1.51007E+02 -1.80699E+02 -6.53564E+01  1.08534E+03  5.23340E+02
  3.61322E+02  1.29176E+03  4.39513E+02 -1.53587E+02 -1.30945E+03 -1.12043E+02  1.06290E+02 -5.12004E+02
  1.69560E+02 -2.72199E+02  1.82866E+02 -8.51711E+02  1.58003E+03 -3.13878E+02  5.43073E+02  9.05738E+02
 -3.95482E+02  5.64915E+02 -3.45542E+02  4.46327E+02 -8.87939E+02  1.90587E+02 -8.23074E+01  4.39518E+02
  6.80749E+02  5.83225E+02 -7.24435E+02 -1.92576E+02 -9.89954E+02  6.15503E+02 -7.38457E+02  1.69702E+02
 -9.57888E+02 -4.37203E+02 -3.67924E+02 -1.03204E+03  1.34414E+03 -4.15910E+02 -1.30173E+02  5.55334E+02
  1.54994E+02 -7.65507E+01 -1.56652E+03  1.23085E+02  1.12236E+03  1.71687E+02 -2.60190E+02 -1.56496E+01
