 $NMID ID='MM_0lb_SNR200_11hz_g60_89.RAW', FMTDAT='(8E13.5)'
 TRAMP=1., VOLUME=1. $END
  3.10466E+05  4.08707E+02  3.37398E+05  2.49450E+05  8.61211E+04  3.39811E+05 -1.32119E+05  2.51498E+05
 -1.90739E+05  8.29922E+04 -1.12580E+05 -3.20030E+04  3.83387E+02 -4.99637E+04  5.36324E+04  7.87481E+02
  3.47009E+04  5.31110E+04 -1.79984E+04  7.70356E+04 -6.10783E+04  6.55255E+04 -8.48881E+04  2.99687E+04
 -8.22285E+04 -1.10143E+04 -5.76702E+04 -5.38930E+04 -1.43963E+04 -7.20036E+04  2.81706E+04 -4.70550E+04
  3.94292E+04  2.87802E+03  1.56922E+04  4.65126E+04 -3.49230E+04  4.83458E+04 -6.86740E+04 -2.93190E+02
 -5.58047E+04 -5.79656E+04 -5.64701E+03 -7.89882E+04  3.46525E+04 -5.72201E+04  5.02568E+04 -1.79813E+04
  4.48718E+04  1.00383E+04  3.36750E+04  2.56027E+04  1.61051E+04  3.05562E+04 -6.18923E+03  2.68465E+04
 -2.02227E+04  1.16609E+04 -1.76492E+04 -3.70535E+03  7.51727E+03 -6.53063E+03  2.23219E+04  1.43343E+04
  7.11956E+03  3.57258E+04 -3.33807E+04  3.72448E+04 -6.54142E+04  2.25333E+03 -5.87600E+04 -4.40402E+04
 -1.50459E+04 -6.57645E+04  4.09706E+04 -4.76768E+04  6.17133E+04 -2.30156E+03  3.65008E+04  3.43060E+04
 -6.03215E+03  3.97370E+04 -3.21664E+04  1.81813E+04 -3.41784E+04 -3.81596E+03 -1.91194E+04 -1.17049E+04
 -1.07314E+04 -1.28773E+04 -1.39851E+03 -1.90681E+04  8.27207E+03 -2.27801E+04  1.73097E+04 -1.33292E+04
  1.07422E+04  6.19491E+03 -1.04778E+04  1.26837E+04 -2.25646E+04 -5.91422E+03 -9.43724E+03 -3.70332E+04
  2.54033E+04 -4.54675E+04  5.08218E+04 -2.04698E+04  4.89175E+04  1.96431E+04  1.57564E+04  4.73118E+04
 -1.59973E+04  3.46925E+04 -2.73654E+04  3.57147E+03 -1.05875E+04 -2.90819E+04  2.07044E+04 -3.61776E+04
  4.46043E+04 -1.10320E+04  4.00609E+04  2.54521E+04  2.08240E+04  4.90058E+04 -8.87579E+03  5.62162E+04
 -3.56368E+04  3.71798E+04 -4.77938E+04  1.05787E+04 -4.70976E+04 -1.79799E+04 -2.57027E+04 -4.11751E+04
  7.66385E+03 -4.15802E+04  3.48454E+04 -1.75618E+04  3.11230E+04  1.27344E+04  5.60697E+03  1.95899E+04
 -1.44577E+04  9.11027E+03 -1.12833E+04 -8.58080E+03  6.20086E+03 -1.09235E+04  2.00802E+04  6.43027E+03
  1.38519E+04  2.25927E+04 -5.00422E+03  2.70488E+04 -2.39996E+04  1.55158E+04 -3.17400E+04 -3.04006E+03
 -2.52472E+04 -1.63035E+04 -1.15976E+04 -2.45372E+04  4.34350E+03 -2.53266E+04  2.00879E+04 -2.30172E+04
  3.14720E+04 -1.38832E+04  3.73612E+04  5.84005E+03  2.73885E+04  2.30833E+04  3.45693E+03  4.04966E+04
 -1.93087E+04  3.33072E+04 -2.85440E+04  1.14946E+04 -2.16371E+04 -8.97833E+03 -4.13052E+03 -1.39840E+04
  7.71898E+02 -2.12970E+03 -7.42934E+03  7.80910E+03 -2.03560E+04  5.98943E+03 -1.96021E+04 -8.70121E+03
 -1.18755E+04 -2.17845E+04  6.60398E+03 -2.84592E+04  1.84955E+04 -1.95906E+04  2.11307E+04 -2.13508E+03
  1.49337E+04  1.56910E+04 -8.49822E+02  2.23786E+04 -1.47847E+04  1.20990E+04 -2.05596E+04 -5.66500E+03
 -1.58898E+04 -1.93305E+04 -1.36276E+03 -2.77167E+04  1.22437E+04 -2.32594E+04  2.14956E+04 -1.22689E+04
  2.09623E+04 -2.58256E+01  1.53696E+04  5.83504E+03  7.83294E+03  4.58435E+02  1.10417E+04 -2.98703E+03
  2.09484E+04  2.43758E+03  2.33162E+04  1.68101E+04  1.87201E+04  3.55320E+04 -3.88964E+03  4.37393E+04
 -2.44807E+04  3.56141E+04 -3.98043E+04  1.71176E+04 -4.28658E+04 -2.75677E+03 -3.40841E+04 -2.50979E+04
 -1.22855E+04 -3.41813E+04  1.15836E+04 -3.02266E+04  2.78669E+04 -1.39264E+04  2.44048E+04  6.04331E+03
  7.25882E+03  1.83337E+04 -1.04930E+04  1.43297E+04 -1.87753E+04  3.73055E+03 -1.49695E+04 -1.19619E+04
  1.72437E+03 -1.84957E+04  1.20681E+04 -1.31815E+04  1.17571E+04 -2.22503E+03  2.83711E+03  9.07839E+03
 -9.47201E+03  5.70406E+03 -7.82147E+03 -7.12619E+03 -1.21116E+03 -1.83290E+04  1.25188E+04 -1.82101E+04
  2.23064E+04 -9.89426E+03  2.33985E+04  1.29815E+03  2.22094E+04  1.87852E+04  9.48016E+03  2.68717E+04
 -5.30688E+03  2.96988E+04 -1.92673E+04  1.96301E+04 -2.17456E+04  4.63730E+03 -1.52237E+04 -6.25412E+03
 -6.01776E+03 -5.88429E+03 -1.83065E+03  2.14160E+02 -3.16843E+03  3.55802E+03 -8.01260E+03  5.88815E+03
 -1.34663E+04  2.58644E+02 -1.31275E+04 -1.14011E+04 -6.04930E+03 -1.88384E+04  7.10185E+03 -1.35421E+04
  1.28837E+04 -5.38671E+03  8.26557E+03  3.98556E+03  2.58935E+02  6.03675E+03 -7.08770E+03 -1.05173E+02
 -6.45968E+03 -8.67033E+03 -2.21635E+03 -1.27957E+04  9.60922E+03 -1.56274E+04  1.96788E+04 -7.60952E+03
  2.26992E+04  2.06096E+03  1.79688E+04  1.18610E+04  2.70703E+03  1.68583E+04 -8.38046E+03  1.43932E+04
 -1.10391E+04  2.15565E+03 -5.85962E+03 -4.11575E+03  1.89691E+03 -4.26505E+03  8.02462E+03 -1.34587E+03
  7.90048E+03  7.85585E+03  1.46836E+03  1.15922E+04 -8.68380E+03  1.08438E+04 -1.39998E+04  3.93253E+03
 -8.73326E+03 -7.61042E+03  5.15835E+01 -1.16861E+04  7.31765E+03 -8.27244E+03  8.07914E+03  3.37817E+03
  1.38194E+03  9.13413E+03 -6.96855E+03  1.16522E+04 -1.30889E+04  3.83583E+03 -1.17466E+04 -3.53573E+03
 -7.88117E+03 -1.42032E+04  3.73287E+03 -1.74964E+04  1.54077E+04 -9.56571E+03  1.60868E+04  2.34250E+03
  7.03113E+03  1.31366E+04 -1.15019E+03  1.42635E+04 -1.15701E+04  7.46294E+03 -1.13550E+04 -7.18727E+02
 -9.86560E+03 -8.46404E+03 -1.67471E+03 -1.14565E+04  7.21608E+03 -8.99126E+03  7.26005E+03 -3.62699E+03
  3.50396E+03  1.43026E+03 -6.66983E+02  1.52849E+03 -2.34696E+02 -1.83977E+03  2.44731E+03 -5.90962E+03
  8.79969E+03 -4.10518E+03  1.37312E+04  5.99994E+02  1.39591E+04  9.92715E+03  8.93190E+03  1.74646E+04
 -5.27314E+03  2.05624E+04 -1.85522E+04  1.53293E+04 -2.03080E+04  3.47918E+03 -1.72597E+04 -8.46945E+03
 -1.02404E+04 -1.63330E+04 -6.34112E+02 -1.24629E+04  4.33238E+03 -6.25545E+03  5.21310E+03 -5.67573E+03
  2.93083E+03 -2.61404E+03  2.81377E+03 -4.09157E+03  6.04526E+03 -1.37998E+03  7.67741E+03 -1.28710E+03
  1.12356E+04  1.28509E+03  4.74365E+03  7.11750E+03 -1.11205E+03  9.12648E+03 -8.73861E+03  6.34107E+03
 -1.50548E+04 -5.09029E+02 -8.19794E+03 -8.97533E+03 -8.53169E+02 -1.51444E+04  7.23067E+03 -1.45739E+04
  1.59656E+04 -7.80107E+03  1.64560E+04  1.09956E+03  1.18134E+04  1.23658E+04  3.06159E+03  1.52666E+04
 -6.50926E+03  1.18378E+04 -7.19582E+03  5.18854E+03 -5.80865E+03 -1.19378E+03 -4.08395E+03 -2.24249E+03
 -1.53677E+03 -3.64166E+02 -2.64571E+03  3.46524E+03 -6.11149E+03  2.74192E+03 -1.01647E+04 -2.22663E+03
 -6.79521E+03 -8.25790E+03  9.94798E+02 -1.28057E+04  9.18396E+03 -1.25888E+04  1.11863E+04 -3.42050E+03
  1.17955E+04  6.13163E+03  5.81583E+03  1.16119E+04 -3.26379E+03  1.19315E+04 -8.81916E+03  7.78474E+03
 -1.17423E+04  6.74941E+02 -1.02925E+04 -8.29139E+03 -2.22754E+03 -1.02854E+04  5.28911E+03 -8.67508E+03
  7.82162E+03 -2.06713E+03  5.95683E+03  1.28548E+03  2.60435E+03  3.11178E+03  1.46413E+03  4.46057E+02
  3.58194E+03  1.04542E+03  3.80297E+03  2.31081E+03  4.39418E+03  4.77501E+03  4.57639E+03  5.79850E+03
 -2.21799E+03  1.04620E+04 -6.85968E+03  1.00885E+04 -1.31241E+04  2.46611E+03 -1.28970E+04 -4.93338E+03
 -6.97562E+03 -1.17319E+04  1.41977E+03 -1.35647E+04  7.30650E+03 -8.89504E+03  1.08494E+04 -3.42436E+03
  7.59619E+03  4.42562E+03  2.50517E+03  7.95430E+03 -3.09302E+03  5.40270E+03 -6.44182E+03 -1.37046E+03
 -4.13775E+03 -4.31108E+03  3.53731E+03 -6.30901E+03  5.50931E+03 -1.20713E+03  5.14554E+03  1.25437E+03
  2.60510E+03  2.50051E+03  1.49998E+03  1.10563E+03  3.80926E+02  2.96178E+03  1.83965E+03 -2.86510E+01
  2.24767E+03 -9.83041E+02  6.05711E+03  1.93139E+03  1.04129E+03  7.00779E+03 -1.38627E+03  8.61624E+03
 -4.47098E+03  6.44661E+03 -6.79730E+03  6.31907E+02 -8.36338E+03 -3.09270E+03 -2.47552E+03 -5.60044E+03
  6.22921E+01 -5.18496E+03  2.02187E+03 -1.92557E+03  2.47261E+03  1.70686E+03 -1.73980E+03  4.73758E+03
 -5.30255E+03  3.22717E+03 -4.36506E+03 -3.47526E+03 -3.27917E+03 -6.67851E+03  1.76710E+03 -7.24998E+03
  3.11010E+03 -4.15031E+03  5.36809E+03 -5.70927E+00  3.95721E+03  6.35630E+02  1.74195E+02  4.10002E+03
 -2.37422E+02  1.35939E+03 -2.68007E+03 -3.34407E+03  3.40990E+02 -5.03589E+03  5.44488E+03 -3.82633E+03
  6.92123E+03 -4.14556E+02  8.05445E+03  4.67976E+03  2.75058E+03  8.00770E+03 -3.02256E+03  8.27814E+03
 -5.60943E+03  3.22536E+03 -8.04072E+03 -2.22190E+02 -1.84756E+03 -5.06281E+03  1.44283E+03 -4.89839E+03
  5.75431E+03 -2.05635E+03  4.39579E+03  1.49420E+03  1.73280E+03  3.84671E+03 -1.99075E+02  4.57359E+03
 -1.68109E+03  2.71865E+03 -3.01452E+03 -5.49675E+02 -8.97172E+02  1.36796E+03 -1.35174E+03  1.61895E+03
 -2.00966E+03  3.19003E+03 -6.32380E+03  1.98314E+03 -7.39650E+03  1.63472E+03 -8.28199E+03 -4.58692E+03
 -4.22327E+03 -1.05608E+04  3.15823E+03 -1.21676E+04  7.07148E+03 -9.96413E+03  1.15876E+04 -3.22133E+03
  1.09756E+04  2.33230E+03  6.71636E+03  5.85772E+03 -5.35174E+01  8.96006E+03 -3.30541E+03  6.26674E+03
 -4.30501E+03  1.39004E+03 -4.02967E+03  2.13241E+01  2.74184E+02  2.70606E+02 -7.13832E+02  1.74507E+02
 -2.06477E+03  1.78535E+03 -2.33189E+03  5.66352E+02 -7.48556E+02 -1.59855E+03  5.30202E+02 -2.66784E+03
  4.32294E+03 -2.28245E+03  4.49386E+03  1.29494E+03  7.18278E+03  2.58992E+03  2.10897E+03  9.38390E+03
 -3.57087E+03  7.87586E+03 -7.02571E+03  4.65397E+03 -9.91665E+03 -1.72968E+03 -7.87034E+03 -5.77207E+03
 -2.05406E+03 -7.27190E+03  2.47548E+03 -6.22321E+03  4.82455E+03 -3.83264E+03  4.66563E+03  1.59038E+02
  3.90625E+03  2.18223E+03 -6.59537E+02  2.68348E+03 -1.15088E+03 -8.63110E+01  4.77821E+02 -1.24785E+03
  1.54031E+03 -1.57098E+03  3.94272E+03  1.09480E+03  2.18983E+03  3.38038E+03  1.19628E+03  3.98542E+03
 -4.04744E+03  3.44535E+03 -5.65569E+03  1.19201E+02 -5.05265E+03 -3.59130E+03  7.09124E+01 -6.60290E+03
  4.00719E+03 -4.82958E+03  5.05919E+03 -3.92547E+02  5.18357E+03  6.61469E+02  2.93110E+03  5.35592E+03
  9.87439E+02  3.62025E+03 -2.29342E+03  4.00729E+03 -3.21047E+03  2.74252E+03 -3.99106E+03  1.42443E+03
 -1.27701E+03  2.09650E+02 -1.94819E+03  3.91377E+02 -2.51758E+03  3.73098E+02 -2.89557E+03 -5.19609E+02
 -2.48338E+03 -2.13075E+03 -1.70013E+03 -5.15163E+03  3.18512E+03 -4.38129E+03  3.23402E+03 -1.38961E+03
  6.35214E+03  1.15417E+03  2.30717E+03  4.80308E+03  1.50019E+03  5.74932E+03 -4.31804E+03  2.43949E+03
