 $NMID ID='MM_0lb_SNR200_14hz_g55_23.RAW', FMTDAT='(8E13.5)'
 TRAMP=1., VOLUME=1. $END
  3.10752E+05  5.70377E+02  3.37809E+05  2.49637E+05  8.51668E+04  3.37293E+05 -1.32783E+05  2.51830E+05
 -1.89846E+05  8.38277E+04 -1.13330E+05 -3.18681E+04  1.65754E+03 -5.05950E+04  5.31746E+04  9.87478E+02
  3.55062E+04  5.19848E+04 -1.68580E+04  7.62291E+04 -5.95418E+04  6.33811E+04 -8.42426E+04  3.04405E+04
 -8.25076E+04 -1.31440E+04 -5.76636E+04 -5.33820E+04 -1.53888E+04 -7.03331E+04  2.68033E+04 -4.57796E+04
  3.88950E+04  4.02716E+03  1.74799E+04  4.83594E+04 -3.44039E+04  4.77291E+04 -6.60592E+04 -1.14670E+02
 -5.40760E+04 -5.62693E+04 -7.38123E+03 -7.82530E+04  3.35777E+04 -5.62778E+04  4.87836E+04 -1.65546E+04
  4.45431E+04  1.07334E+04  3.08453E+04  2.62481E+04  1.54963E+04  3.01769E+04 -4.71330E+03  2.72377E+04
 -2.18135E+04  1.24108E+04 -1.93064E+04 -4.62276E+03  6.61602E+03 -8.48737E+03  2.15777E+04  1.40186E+04
  8.35844E+03  3.64442E+04 -3.20929E+04  3.54472E+04 -6.28039E+04  1.42167E+03 -5.81933E+04 -4.35066E+04
 -1.30238E+04 -6.34536E+04  4.04000E+04 -4.63888E+04  5.84244E+04 -2.50820E+03  3.47191E+04  3.27512E+04
 -5.18279E+03  3.67060E+04 -3.03444E+04  1.70733E+04 -3.00922E+04 -3.62286E+03 -1.78667E+04 -1.11033E+04
 -9.14921E+03 -1.41656E+04 -9.08274E+02 -1.78851E+04  7.34601E+03 -2.34106E+04  1.67634E+04 -1.34037E+04
  1.09308E+04  6.02601E+03 -9.08314E+03  1.30192E+04 -2.11018E+04 -4.63088E+03 -8.17213E+03 -3.40330E+04
  2.38318E+04 -4.41984E+04  4.78434E+04 -1.96000E+04  4.57098E+04  1.94243E+04  1.54554E+04  4.41960E+04
 -1.59302E+04  3.42355E+04 -2.62174E+04  2.31998E+03 -1.06572E+04 -2.73303E+04  2.24463E+04 -3.42306E+04
  4.22481E+04 -9.64267E+03  3.66355E+04  2.43831E+04  1.97703E+04  4.70217E+04 -6.85447E+03  5.13711E+04
 -3.19696E+04  3.55031E+04 -4.30316E+04  9.73821E+03 -4.47424E+04 -1.62353E+04 -2.33287E+04 -3.85869E+04
  7.39709E+03 -3.83115E+04  3.06267E+04 -1.49899E+04  2.91620E+04  1.21829E+04  3.70767E+03  1.94409E+04
 -1.44560E+04  8.53088E+03 -1.06166E+04 -8.40711E+03  5.49615E+03 -1.16881E+04  1.77408E+04  6.83122E+03
  1.40678E+04  2.19749E+04 -6.47573E+03  2.50725E+04 -2.14178E+04  1.14362E+04 -2.89247E+04 -4.31081E+03
 -2.12633E+04 -1.76594E+04 -8.39268E+03 -2.18192E+04  3.34553E+03 -2.05844E+04  1.59239E+04 -2.05088E+04
  2.78133E+04 -1.36340E+04  3.28310E+04  3.80607E+03  2.46414E+04  2.09702E+04  4.10860E+03  3.59328E+04
 -1.61092E+04  3.09956E+04 -2.93409E+04  1.06505E+04 -2.13806E+04 -9.64649E+03 -4.77850E+03 -1.34830E+04
  8.51444E+02 -3.86889E+03 -4.87574E+03  6.82935E+03 -1.58645E+04  5.67910E+03 -1.74614E+04 -7.27879E+03
 -9.62324E+03 -2.00116E+04  6.21149E+03 -2.44823E+04  1.59089E+04 -1.66331E+04  1.87930E+04 -3.60757E+03
  1.16344E+04  1.37871E+04 -3.90024E+02  1.95362E+04 -1.38017E+04  9.21490E+03 -1.96048E+04 -4.26593E+03
 -1.42080E+04 -1.76999E+04 -1.79024E+03 -2.37330E+04  1.00880E+04 -1.79836E+04  2.07212E+04 -1.00742E+04
  1.81579E+04  1.39453E+03  1.37516E+04  4.99897E+03  6.69280E+03  1.05004E+02  1.07200E+04 -5.92789E+02
  1.86424E+04  3.36294E+03  1.96601E+04  1.55088E+04  1.24258E+04  3.00417E+04 -2.49173E+03  3.48593E+04
 -2.04788E+04  2.82242E+04 -3.35405E+04  1.41095E+04 -3.36091E+04 -1.12125E+03 -2.89253E+04 -1.88754E+04
 -1.31555E+04 -2.83956E+04  1.05250E+04 -2.62818E+04  2.08098E+04 -1.42802E+04  1.97829E+04  6.05526E+03
  8.20931E+03  1.44871E+04 -9.19719E+03  1.23692E+04 -1.73647E+04  2.92904E+03 -1.30811E+04 -1.10229E+04
 -5.84517E+02 -1.45930E+04  8.28788E+03 -1.27021E+04  1.05636E+04 -1.42062E+03  2.07951E+03  5.99378E+03
 -7.52813E+03  2.84549E+03 -5.45024E+03 -6.63339E+03 -1.27356E+03 -1.41458E+04  9.69406E+03 -1.48313E+04
  1.57721E+04 -8.70426E+03  1.83296E+04  3.52941E+03  1.70705E+04  1.36810E+04  8.74488E+03  2.12223E+04
 -3.45121E+03  2.36672E+04 -1.39292E+04  1.59441E+04 -1.70286E+04  3.05011E+03 -1.15405E+04 -4.51627E+03
 -5.13093E+03 -5.72414E+03 -9.06688E+02  1.43370E+03 -4.23995E+03  3.21049E+03 -6.36097E+03  3.75957E+03
 -1.13475E+04 -7.97890E+02 -1.09808E+04 -9.01756E+03 -4.42748E+03 -1.42131E+04  6.28428E+03 -1.16303E+04
  1.00384E+04 -5.52546E+03  7.03325E+03  2.05761E+03 -1.57780E+02  5.06559E+03 -5.13475E+03  3.44470E+02
 -5.34759E+03 -8.66231E+03  9.69770E+02 -1.13729E+04  5.90703E+03 -1.32830E+04  1.46882E+04 -5.39773E+03
  1.86535E+04  1.61683E+03  1.17243E+04  1.03128E+04  3.10050E+03  1.33631E+04 -6.46423E+03  1.14620E+04
 -9.10423E+03  3.19752E+03 -3.73698E+03 -3.17563E+03  2.09032E+03 -3.48646E+03  6.81150E+03 -3.13837E+02
  5.81756E+03  4.84027E+03  1.41947E+03  8.87287E+03 -6.86107E+03  8.52035E+03 -1.07667E+04  3.08916E+03
 -6.89557E+03 -5.85681E+03  1.35399E+03 -8.79851E+03  5.91741E+03 -4.74083E+03  6.43244E+03  2.73898E+03
  1.08351E+03  6.05266E+03 -5.76416E+03  8.48000E+03 -8.66725E+03  4.02501E+03 -8.39962E+03 -2.85200E+03
 -6.40614E+03 -1.05380E+04  3.66399E+03 -1.18353E+04  9.83627E+03 -6.24558E+03  1.12651E+04  2.16020E+03
  6.59554E+03  8.79250E+03  6.59073E+02  1.11373E+04 -8.23027E+03  6.62796E+03 -9.69029E+03 -6.63616E+02
 -8.05215E+03 -7.37674E+03 -1.22667E+03 -9.82782E+03  3.88507E+03 -6.78209E+03  5.29530E+03 -2.26511E+03
  4.00127E+03  2.37537E+02 -6.24706E+02  2.13094E+03 -2.69962E+02 -6.42124E+02  1.08185E+03 -3.56615E+03
  8.23635E+03 -2.28128E+03  9.50081E+03  1.02826E+03  9.30030E+03  5.90276E+03  7.14469E+03  1.29819E+04
 -3.40037E+03  1.39708E+04 -1.30865E+04  9.75433E+03 -1.50636E+04  2.81373E+03 -1.32298E+04 -5.23644E+03
 -5.65386E+03 -1.15195E+04 -7.74187E+02 -7.92168E+03  3.17636E+03 -4.71789E+03  2.11121E+03 -2.50208E+03
  1.91165E+03 -2.03560E+03  4.08483E+03 -3.07960E+03  3.85058E+03 -1.61937E+03  4.74240E+03 -6.75212E+02
  7.55548E+03  1.98362E+03  3.66320E+03  6.03453E+03 -2.91855E+03  6.07594E+03 -7.70525E+03  4.81922E+03
 -8.58910E+03 -4.57390E+02 -5.30071E+03 -6.87556E+03  5.36111E+02 -8.38395E+03  5.00197E+03 -9.61740E+03
  9.77107E+03 -5.79699E+03  1.26020E+04  1.82589E+03  8.79374E+03  7.61846E+03  7.65563E+02  1.06123E+04
 -4.65682E+03  8.93367E+03 -5.81615E+03  3.28677E+03 -4.72584E+03 -4.66410E+02 -9.42197E+02 -4.75755E+01
  2.20423E+02 -1.77194E+02 -7.41478E+02  1.69292E+03 -3.91727E+03  2.24510E+03 -6.00378E+03  1.28275E+02
 -4.42465E+03 -6.87305E+03  8.30202E+02 -8.97225E+03  5.06130E+03 -7.99253E+03  7.40539E+03 -1.26319E+03
  8.04571E+03  4.08984E+03  3.23021E+03  7.51595E+03 -6.97330E+02  6.75726E+03 -5.49694E+03  5.40302E+03
 -7.51936E+03  6.67763E+02 -5.85435E+03 -4.81557E+03 -1.03450E+03 -5.57403E+03  2.93898E+03 -4.54578E+03
  4.87073E+03 -2.61480E+03  3.80598E+03  1.10515E+03  7.59788E+02  2.64236E+03  1.78388E+02 -1.06429E+02
  2.81767E+03 -2.99926E+02  3.55512E+03  2.17078E+03  2.99837E+03  3.22460E+03  2.55151E+03  4.66812E+03
 -9.81886E+02  6.25059E+03 -6.49414E+03  6.70733E+03 -7.37117E+03  1.39390E+03 -7.83606E+03 -1.79244E+03
 -2.64152E+03 -7.72347E+03  5.25286E+02 -9.73228E+03  4.40373E+03 -5.95414E+03  5.94870E+03 -1.71672E+03
  5.78333E+03  3.80006E+03  6.48669E+02  3.90261E+03 -1.81573E+03  1.49737E+03 -3.14621E+03  4.52946E+02
 -8.09502E+02 -2.74166E+03  2.16785E+03 -4.26537E+03  2.33348E+03 -2.41935E+03  3.39939E+03  1.51223E+03
  2.04568E+03  1.75558E+03  1.17529E+03  7.33354E+02 -7.01496E+02  9.67497E+02  1.26767E+03 -3.71031E+02
  3.36682E+02 -1.30608E+03  3.25578E+03  2.36782E+03  1.40997E+03  5.32672E+03  1.42187E+02  4.30161E+03
 -3.55640E+03  2.74027E+03 -3.90858E+03  1.28841E+03 -4.67553E+03 -2.13694E+03 -1.39122E+03 -1.27761E+03
  8.55745E+02 -2.45653E+03  2.59021E+03 -1.80418E+03  1.88814E+03  1.87147E+03 -5.06410E+02  2.54294E+03
 -2.42466E+03  1.54052E+03 -3.17461E+03 -2.99228E+03 -7.62692E+02 -4.71628E+03 -2.27538E+02 -4.50603E+03
  2.08907E+03 -2.51581E+03  3.09540E+03  7.62721E+01  3.03780E+03 -7.86335E+01  3.17002E+02  1.55094E+03
 -1.08391E+03  1.83351E+02 -1.80723E+03 -6.31794E+02 -1.51201E+02 -2.50928E+03  3.97387E+03 -2.04716E+03
  4.68115E+03  3.25765E+02  4.90036E+03  2.34342E+03  1.97961E+03  3.52781E+03 -1.77496E+03  3.94117E+03
 -5.32865E+03  2.58711E+03 -4.74879E+03 -4.87343E+02 -2.07173E+03 -2.54928E+03  6.75034E+02 -3.15200E+03
  3.51300E+03 -7.53228E+02  3.18660E+03  1.73114E+03  3.05656E+03  1.88570E+03 -5.52665E+02  3.51509E+03
 -7.51123E+02  2.36327E+03 -2.04516E+02  7.59392E+02 -4.03081E+02  2.09860E+03 -9.70281E+02  1.85898E+03
 -7.51131E+02  2.32998E+03 -4.26918E+03  1.64266E+03 -3.80609E+03  1.47659E+02 -4.73178E+03 -3.35052E+03
 -1.64141E+03 -4.89485E+03  1.39520E+03 -6.30831E+03  2.45633E+03 -5.09599E+03  7.09307E+03 -2.62427E+03
  5.17675E+03 -9.84054E+00  2.43466E+03  3.96491E+03 -2.98824E+02  4.47650E+03 -1.67637E+03  1.65319E+03
 -2.15164E+03  4.70295E+02 -4.63002E+02  2.93368E+02 -4.24791E+01 -9.84697E+02 -1.31330E+03 -3.91841E+02
 -1.20387E+03  1.05482E+03 -1.09325E+03  2.07225E+02 -3.34993E+01 -1.96426E+03 -4.96404E+02 -1.72868E+03
  2.83511E+03 -1.00889E+03  3.31171E+03  1.22336E+03  2.94077E+03  2.55756E+03 -3.98973E+02  3.61527E+03
 -2.44212E+03  5.23832E+03 -4.74034E+03  3.90923E+03 -5.31370E+03  1.11114E+03 -1.97217E+03 -2.85754E+03
 -1.34763E+03 -3.97017E+03  1.26075E+03 -2.48316E+03  3.32989E+03 -1.15067E+03  2.48808E+03  2.29428E+02
  1.39750E+03  1.02233E+03  1.01127E+03  6.03970E+02 -6.43871E+02  9.16925E+02 -3.98425E+02 -1.41114E+03
  1.58229E+03 -1.46882E+03  4.08788E+02  1.60811E+03  4.21364E+02  3.23707E+03  2.77284E+02  1.78556E+03
 -8.34670E+02  1.43260E+03 -2.60208E+03 -2.04088E+02 -2.88290E+03 -2.83699E+03  8.31111E+02 -3.14566E+03
  3.32736E+03 -2.27532E+03  2.25208E+03  5.46048E+01  3.37121E+03  1.39699E+03  1.80747E+03  3.56267E+03
  5.23910E+01  2.36516E+03 -8.87518E+02  2.66770E+03 -2.61156E+03  1.19248E+03 -1.46586E+03 -4.13075E+01
 -4.34985E+02 -8.11004E+02 -1.53605E+03  9.04252E+02 -1.50680E+03  5.05942E+02 -2.18314E+03 -7.06997E+02
 -2.35466E+03 -1.07196E+03 -4.95894E+01 -1.94998E+03  2.18441E+03 -3.78855E+03  1.49040E+03 -6.42025E+02
  1.64614E+03 -5.28954E+02  1.34609E+03  1.16883E+03  2.95624E+02  1.65902E+03 -2.47816E+03  6.96105E+02
