 $NMID ID='MM_0lb_SNR200_16hz_g55_64.RAW', FMTDAT='(8E13.5)'
 TRAMP=1., VOLUME=1. $END
  3.09598E+05 -1.93420E+02  3.37755E+05  2.50479E+05  8.57832E+04  3.36805E+05 -1.32948E+05  2.51898E+05
 -1.90834E+05  8.35382E+04 -1.10271E+05 -3.15657E+04  1.03512E+03 -4.93781E+04  5.31000E+04 -2.12530E+02
  3.53847E+04  5.25140E+04 -1.65959E+04  7.62752E+04 -6.17226E+04  6.43668E+04 -8.28165E+04  3.16124E+04
 -8.04777E+04 -1.06602E+04 -5.61735E+04 -5.10689E+04 -1.57357E+04 -6.94876E+04  2.75247E+04 -4.52513E+04
  3.98727E+04  4.28648E+03  1.66229E+04  4.72174E+04 -3.26630E+04  4.68054E+04 -6.59921E+04 -6.34458E+02
 -5.29891E+04 -5.68371E+04 -7.78287E+03 -7.72614E+04  3.27887E+04 -5.52350E+04  4.74785E+04 -1.75332E+04
  4.22111E+04  1.15707E+04  3.07596E+04  2.53151E+04  1.68068E+04  2.93846E+04 -5.62291E+03  2.66426E+04
 -2.38418E+04  1.28469E+04 -1.74076E+04 -4.68296E+03  4.87049E+03 -6.77808E+03  2.14336E+04  1.16417E+04
  7.43635E+03  3.60922E+04 -3.27964E+04  3.51619E+04 -6.34148E+04  2.08689E+03 -5.65251E+04 -4.31831E+04
 -1.32100E+04 -6.20243E+04  3.83335E+04 -4.57078E+04  5.86092E+04 -3.30586E+03  3.42412E+04  3.26232E+04
 -6.79641E+03  3.49720E+04 -2.99727E+04  1.59124E+04 -2.91027E+04 -3.82083E+03 -1.70041E+04 -1.08047E+04
 -8.60150E+03 -1.24317E+04 -5.70969E+02 -1.68605E+04  7.73522E+03 -2.27717E+04  1.56346E+04 -1.38009E+04
  1.21499E+04  2.82028E+03 -6.99001E+03  1.34527E+04 -2.07632E+04 -4.09150E+03 -7.85670E+03 -3.38148E+04
  2.15964E+04 -4.28656E+04  4.71008E+04 -1.97648E+04  4.35685E+04  1.90575E+04  1.53348E+04  4.30043E+04
 -1.61912E+04  3.19096E+04 -2.52439E+04  6.84597E+02 -9.57360E+03 -2.82517E+04  2.07264E+04 -3.34427E+04
  3.96881E+04 -8.40576E+03  3.37724E+04  2.30592E+04  1.82607E+04  4.60549E+04 -8.20114E+03  4.86552E+04
 -3.07847E+04  3.40138E+04 -4.16290E+04  8.73981E+03 -4.08579E+04 -1.71770E+04 -2.24719E+04 -3.89247E+04
  6.04515E+03 -3.73103E+04  3.12804E+04 -1.36813E+04  2.80915E+04  1.17340E+04  4.33849E+03  1.96482E+04
 -1.34040E+04  7.56359E+03 -1.00644E+04 -7.87070E+03  5.40805E+03 -1.10754E+04  1.83122E+04  5.83311E+03
  1.28531E+04  2.17460E+04 -5.91095E+03  2.55080E+04 -2.19648E+04  1.05599E+04 -2.74193E+04 -4.14332E+03
 -1.90680E+04 -1.71038E+04 -8.18714E+03 -2.07515E+04  4.29587E+03 -1.91748E+04  1.48391E+04 -1.66011E+04
  2.47150E+04 -1.29288E+04  3.12498E+04  1.74993E+03  2.29856E+04  1.87923E+04  3.82339E+03  3.58427E+04
 -1.77843E+04  3.00578E+04 -2.78046E+04  1.10332E+04 -1.96736E+04 -1.00068E+04 -3.81490E+03 -1.31797E+04
  1.09297E+03 -1.09951E+03 -4.69005E+03  6.93369E+03 -1.62198E+04  4.66660E+03 -1.60578E+04 -6.33556E+03
 -1.04375E+04 -1.88197E+04  4.96738E+03 -2.22044E+04  1.40948E+04 -1.62014E+04  1.75201E+04 -2.93725E+03
  1.05799E+04  1.25530E+04 -9.05944E+02  1.86725E+04 -1.28416E+04  9.47744E+03 -1.78585E+04 -3.73802E+03
 -1.24639E+04 -1.71576E+04 -9.29080E+02 -1.99561E+04  9.95353E+03 -1.73619E+04  1.86209E+04 -8.97067E+03
  1.78770E+04  8.40812E+02  1.23927E+04  3.42119E+03  7.03655E+03  4.16918E+02  1.02280E+04 -8.93130E+02
  1.60851E+04  2.15863E+03  1.83515E+04  1.36209E+04  1.23125E+04  2.96517E+04 -2.48924E+03  3.11982E+04
 -1.81638E+04  2.44741E+04 -2.96696E+04  1.23094E+04 -3.06752E+04 -1.52801E+03 -2.56328E+04 -1.73149E+04
 -1.10271E+04 -2.48737E+04  8.35778E+03 -2.29348E+04  2.11600E+04 -1.30112E+04  1.71786E+04  5.10591E+03
  7.71451E+03  1.35561E+04 -7.88765E+03  1.15542E+04 -1.45557E+04  3.40172E+03 -1.11540E+04 -9.84704E+03
  5.77534E+02 -1.43102E+04  7.62379E+03 -1.11160E+04  1.01462E+04 -2.10119E+03  1.23088E+03  6.43295E+03
 -6.74769E+03  1.76412E+03 -5.60014E+03 -4.59269E+03  1.18250E+03 -1.17317E+04  8.37322E+03 -1.26550E+04
  1.52712E+04 -7.42747E+03  1.63228E+04  3.33775E+03  1.42593E+04  1.11294E+04  5.51266E+03  1.76912E+04
 -3.12317E+03  1.92707E+04 -1.23690E+04  1.29317E+04 -1.48321E+04  2.76032E+03 -1.03914E+04 -1.89526E+03
 -5.90368E+03 -4.51225E+03 -1.53624E+03  1.56876E+03 -2.51030E+03  3.15256E+03 -4.12585E+03  4.98141E+03
 -1.13725E+04 -1.98788E+02 -1.00608E+04 -9.74562E+03 -3.52242E+03 -1.31347E+04  4.30071E+03 -1.01220E+04
  6.93989E+03 -4.63456E+03  6.07114E+03  2.43471E+03  9.50690E+01  4.05500E+03 -4.59116E+03  4.05465E+02
 -4.49845E+03 -6.24404E+03 -1.09495E+03 -1.01076E+04  5.19573E+03 -9.86165E+03  1.32063E+04 -4.80620E+03
  1.48084E+04  1.03468E+03  1.09764E+04  8.14792E+03  3.15122E+03  1.07792E+04 -7.24406E+03  1.02027E+04
 -7.59706E+03  2.34198E+03 -4.02081E+03 -4.37184E+02  2.18018E+03 -2.51975E+03  5.94164E+03 -1.32163E+02
  5.03311E+03  4.73581E+03  4.65905E+01  7.21461E+03 -4.70668E+03  7.37018E+03 -1.01419E+04  2.47256E+03
 -6.65392E+03 -4.67968E+03  6.43228E+02 -8.00790E+03  5.68221E+03 -4.81702E+03  4.31642E+03  1.62278E+03
  5.03772E+02  6.00095E+03 -6.52121E+03  6.39841E+03 -8.33595E+03  3.26377E+03 -8.46076E+03 -2.58819E+03
 -3.70191E+03 -8.40596E+03  2.24742E+03 -8.72359E+03  8.23188E+03 -6.67528E+03  9.05134E+03  1.99207E+03
  4.98944E+03  7.48528E+03 -3.01576E+02  7.86563E+03 -6.91170E+03  5.42789E+03 -6.23948E+03 -1.71219E+02
 -6.08138E+03 -6.82451E+03 -5.60835E+02 -7.06473E+03  4.03172E+03 -5.78464E+03  3.23534E+03 -2.33157E+03
  3.84398E+03  1.25477E+03 -9.46145E+02  2.08915E+03  2.69476E+02 -1.11199E+03  1.34731E+01 -4.07497E+03
  5.55682E+03 -1.28895E+03  7.48443E+03 -4.90809E+02  7.26399E+03  4.85195E+03  6.68161E+03  9.54040E+03
 -1.95883E+03  1.30906E+04 -1.05974E+04  8.63980E+03 -1.39496E+04  9.57399E+02 -1.03488E+04 -4.34140E+03
 -5.72601E+03 -8.74973E+03  7.61225E+00 -6.25064E+03  2.11956E+03 -3.43855E+03  2.96455E+03 -3.07349E+03
  1.47858E+03 -1.91318E+03  3.07932E+03 -2.37742E+03  3.47762E+03 -2.46590E+03  3.23171E+03 -5.00954E+02
  5.64221E+03  1.29006E+03  2.87623E+03  3.97095E+03 -1.97129E+03  3.89100E+03 -5.70027E+03  4.29394E+03
 -5.90386E+03 -1.37344E+03 -4.07071E+03 -4.07637E+03 -3.06377E+02 -6.66096E+03  3.86826E+03 -7.85129E+03
  6.56355E+03 -5.24994E+03  9.84514E+03  4.31864E+02  7.03186E+03  6.39250E+03  1.04004E+03  8.27566E+03
 -3.90139E+03  8.30878E+03 -6.61355E+03  2.48644E+03 -4.21846E+03 -2.67527E+03 -1.94683E+03 -1.09216E+03
 -7.14460E+02  4.77840E+02 -6.89802E+02  1.77216E+03 -3.32203E+03  2.24995E+03 -6.16523E+03 -3.67100E+02
 -2.78100E+03 -6.08135E+03  4.66111E+02 -6.07560E+03  3.24839E+03 -6.83944E+03  5.39280E+03 -1.15532E+03
  6.01381E+03  3.99773E+03  2.39658E+03  6.49447E+03 -1.09138E+03  5.63271E+03 -3.80750E+03  4.03649E+03
 -5.26190E+03 -6.40510E+02 -5.30137E+03 -4.21625E+03 -5.85292E+02 -4.64133E+03  1.94444E+03 -3.92903E+03
  3.75777E+03 -1.11924E+03  3.68020E+03  1.40117E+03  5.70959E+02  1.70257E+03  1.09484E+03  1.54941E+03
  2.78036E+03  5.35570E+02  1.90093E+03  2.25631E+02  1.47779E+03  2.60354E+03  9.34486E+02  2.82476E+03
 -2.00461E+03  4.55234E+03 -3.72240E+03  5.61271E+03 -5.64750E+03  2.64277E+03 -6.62662E+03 -2.11394E+03
 -1.85784E+03 -5.89349E+03  6.40187E+02 -7.54304E+03  3.86829E+03 -2.91641E+03  6.03168E+03 -5.18656E+02
  5.67002E+03  2.03881E+03  1.81504E+02  3.35014E+03 -2.04189E+03  1.43325E+03 -2.33302E+03 -1.23573E+02
 -1.71324E+03 -2.75864E+03  1.74447E+03 -2.62631E+03  1.70301E+03 -2.42674E+02  2.04025E+03 -4.47491E+02
  2.03469E+03  5.81288E+02  4.31353E+02  2.39437E+02  4.50776E+02  9.93822E+02  1.48421E+03  5.84551E+02
  1.53088E+03 -9.22638E+02  2.80123E+03  1.81189E+03  1.66561E+03  4.01997E+03 -7.47346E+02  4.60076E+03
 -1.23455E+03  2.85711E+03 -3.61222E+03  1.38227E+02 -3.91842E+03 -2.69280E+03 -1.62313E+03 -1.25739E+03
 -1.21321E+03 -3.01896E+03  1.76169E+03 -1.16637E+03 -2.61459E+02  1.71543E+03 -8.48175E+02  2.63086E+03
 -2.77032E+03  1.06223E+03 -2.81501E+03 -1.70361E+03 -1.82764E+03 -3.70490E+03 -5.17649E+02 -2.67907E+03
  1.09460E+03 -1.33198E+03  1.39762E+03  2.93911E+02  7.30414E+02 -1.33786E+03 -3.24898E+02  1.88575E+03
 -1.71476E+02  7.01014E+02 -9.08957E+02 -6.97777E+02  1.10406E+03 -1.88124E+03  1.82446E+03 -1.67145E+03
  2.83284E+03  9.54782E+02  3.83454E+03  2.16504E+03  2.45459E+03  3.14128E+03 -4.00464E+02  3.88125E+03
 -1.96696E+03  5.79153E+02 -2.74697E+03 -1.56408E+03  3.97911E+02 -1.56396E+03 -3.56493E+02 -1.54741E+03
  2.27404E+03 -1.11573E+03  1.75661E+03  7.79813E+01  3.78995E+02  1.49153E+03  9.76456E+02  9.23298E+02
 -1.22287E+03  3.06817E+03  2.06689E+02  5.70556E+02  2.24249E+02  1.26271E+03 -5.96999E+02  6.89348E+02
 -3.13766E+02  2.06747E+03 -2.98137E+03  1.47955E+03 -4.03425E+03  1.50507E+02 -3.69516E+03 -1.52847E+03
 -1.25317E+03 -4.39177E+03  4.00563E+02 -5.21979E+03  2.08008E+03 -5.14582E+03  4.38718E+03 -2.00991E+03
  4.28999E+03 -4.88709E+02  2.14054E+03  3.48999E+03 -2.76224E+02  2.60934E+03 -1.32493E+03  1.99398E+03
 -1.50187E+03  1.03077E+03 -1.09861E+03 -9.73885E+02 -1.16639E+03  3.21128E+02 -5.52816E+02  4.59980E+02
  4.10499E+01  2.20685E+02 -1.14690E+03  6.19627E+02  6.70103E+02 -6.27383E+02 -6.60494E+02 -1.92273E+03
  1.59208E+03 -1.23159E+03  8.23299E+02  4.34681E+02  2.40784E+03  1.89428E+03  5.98112E+02  3.39166E+03
 -9.43981E+02  3.41501E+03 -2.92793E+03  2.49231E+03 -3.43619E+03  3.74999E+02 -2.11067E+03 -1.81286E+03
 -8.66078E+02 -2.30114E+03  9.91650E+02 -3.01148E+03  1.98650E+03 -1.50598E+03  1.55466E+03  3.57262E+02
  1.33543E+03  3.37781E+02  1.03800E+03  6.01274E+02 -9.56605E+02 -1.18823E+03 -7.03655E+01  9.85035E+02
  1.00881E+02 -4.74179E+02  7.50758E+02  9.51033E+02  1.12061E+03 -1.28106E+01  1.62840E+03  9.07455E+02
  1.98114E+02  1.37616E+03 -1.40773E+03  1.63651E+02 -7.86909E+02 -5.22906E+02  8.18732E+02 -2.85527E+03
  9.31121E+02 -1.45772E+03  7.55001E+02  7.78573E+00  2.78535E+03 -4.17807E+02 -2.62274E+02  6.95963E+02
  1.92047E+02  5.25142E+02  1.84657E+02  1.02206E+03 -4.02888E+02  1.19743E+03 -1.35975E+03 -1.86210E+02
  1.37203E+01  8.24047E+01 -4.66062E+02  8.79944E+02 -5.54528E+02 -5.29731E+02 -1.17924E+03  3.83555E+00
 -4.60437E+02  4.16495E+02 -9.05084E+02 -1.46753E+03 -6.03520E+01 -1.43594E+03  9.80254E+02 -8.44255E+02
  1.73066E+03 -7.58163E+02  2.97670E+02 -2.01655E+02  3.05558E+02  1.66406E+03 -4.84155E+02  1.02831E+03
