 $NMID ID='MM_0lb_SNR200_10hz_g60_3.RAW', FMTDAT='(8E13.5)'
 TRAMP=1., VOLUME=1. $END
  3.10710E+05  3.57225E+02  3.38102E+05  2.52645E+05  8.56005E+04  3.39221E+05 -1.32454E+05  2.52211E+05
 -1.91390E+05  8.48324E+04 -1.12117E+05 -3.29249E+04 -6.75435E+02 -5.04594E+04  5.38552E+04 -5.57627E+02
  3.44739E+04  5.45086E+04 -1.66284E+04  7.78120E+04 -6.23099E+04  6.39345E+04 -8.46996E+04  3.43214E+04
 -8.39247E+04 -1.11149E+04 -5.83200E+04 -5.41397E+04 -1.49006E+04 -7.07981E+04  2.79501E+04 -4.54262E+04
  4.15509E+04  4.41070E+03  1.58976E+04  4.82689E+04 -3.46419E+04  4.85074E+04 -6.77870E+04  5.04804E+01
 -5.49967E+04 -5.71550E+04 -7.75232E+03 -7.87883E+04  3.71437E+04 -5.73375E+04  5.03137E+04 -1.74694E+04
  4.43199E+04  1.07567E+04  3.27140E+04  2.69818E+04  1.59660E+04  3.10975E+04 -5.24925E+03  2.87193E+04
 -2.18250E+04  1.22670E+04 -1.78721E+04 -5.88795E+03  8.08675E+03 -7.46191E+03  2.50240E+04  1.38368E+04
  7.97914E+03  3.65874E+04 -3.50611E+04  3.77703E+04 -6.66563E+04  1.51695E+03 -5.92175E+04 -4.42173E+04
 -1.31472E+04 -6.58255E+04  4.03638E+04 -4.75436E+04  6.19674E+04 -3.30948E+03  3.78627E+04  3.50347E+04
 -5.80503E+03  3.95494E+04 -3.27762E+04  1.81553E+04 -3.38794E+04 -2.16506E+03 -1.94537E+04 -1.35675E+04
 -9.28266E+03 -1.34121E+04 -7.55508E+02 -1.86659E+04  9.55490E+03 -2.30020E+04  1.65912E+04 -1.35838E+04
  9.38022E+03  6.09643E+03 -1.01098E+04  1.34256E+04 -2.30113E+04 -6.88715E+03 -7.74421E+03 -3.75075E+04
  2.56201E+04 -4.62231E+04  5.19319E+04 -2.11076E+04  4.94738E+04  2.08625E+04  1.82029E+04  4.57647E+04
 -1.61181E+04  3.60456E+04 -2.69190E+04  1.98198E+03 -1.11651E+04 -2.92364E+04  2.21909E+04 -3.70497E+04
  4.34737E+04 -1.20434E+04  4.08070E+04  2.59015E+04  2.17637E+04  4.98221E+04 -7.86947E+03  5.54705E+04
 -3.65539E+04  3.84330E+04 -4.85618E+04  1.21075E+04 -4.86697E+04 -1.96698E+04 -2.64453E+04 -4.20578E+04
  7.68278E+03 -4.24214E+04  3.53345E+04 -1.73349E+04  3.25312E+04  1.08985E+04  5.18429E+03  2.00943E+04
 -1.44105E+04  9.56377E+03 -1.11975E+04 -7.86004E+03  5.81776E+03 -1.15348E+04  1.83115E+04  5.69344E+03
  1.38810E+04  2.40684E+04 -5.42965E+03  2.67913E+04 -2.27967E+04  1.49287E+04 -3.20472E+04 -2.89253E+03
 -2.48295E+04 -2.00416E+04 -1.14014E+04 -2.53350E+04  4.81783E+03 -2.53998E+04  2.08076E+04 -2.38867E+04
  3.21594E+04 -1.39264E+04  3.84386E+04  5.25087E+03  2.76680E+04  2.41050E+04  4.10544E+03  4.21594E+04
 -2.04541E+04  3.33291E+04 -3.04627E+04  1.20507E+04 -2.38939E+04 -1.10793E+04 -4.90401E+03 -1.21837E+04
  2.83369E+02 -9.72592E+02 -7.98479E+03  8.37635E+03 -2.05993E+04  4.26495E+03 -1.99258E+04 -9.41272E+03
 -1.15187E+04 -2.30943E+04  7.14804E+03 -2.79679E+04  1.95863E+04 -1.92496E+04  2.35391E+04 -3.40850E+03
  1.38347E+04  1.60510E+04 -7.22170E+02  2.32095E+04 -1.61181E+04  1.26111E+04 -2.34449E+04 -5.74273E+03
 -1.68020E+04 -2.13647E+04 -6.64007E+02 -2.72523E+04  1.17669E+04 -2.21784E+04  2.29015E+04 -1.21402E+04
  2.15279E+04  4.07386E+02  1.55381E+04  5.67739E+03  9.20381E+03 -4.84904E+02  1.19651E+04 -2.80250E+03
  2.31873E+04  3.95182E+03  2.55581E+04  1.89215E+04  1.74276E+04  3.72526E+04 -2.38165E+03  4.38207E+04
 -2.46500E+04  3.82657E+04 -4.19249E+04  1.87278E+04 -4.55361E+04 -3.02497E+03 -3.77724E+04 -2.65410E+04
 -1.35870E+04 -3.93330E+04  1.35669E+04 -3.15374E+04  2.87021E+04 -1.48790E+04  2.54908E+04  7.62318E+03
  8.66142E+03  1.91188E+04 -1.13506E+04  1.63975E+04 -2.00681E+04  2.98379E+03 -1.59011E+04 -1.29030E+04
  1.86861E+02 -1.87625E+04  1.03624E+04 -1.41599E+04  1.36422E+04 -9.31490E+02  3.21108E+03  8.34402E+03
 -8.13239E+03  3.04727E+03 -9.15410E+03 -7.51081E+03 -7.77669E+02 -1.89236E+04  1.08019E+04 -2.09328E+04
  2.24522E+04 -1.08977E+04  2.62965E+04  2.57508E+03  2.22671E+04  2.00980E+04  9.81747E+03  2.98033E+04
 -5.18120E+03  3.07778E+04 -1.98526E+04  1.95843E+04 -2.27761E+04  2.88905E+03 -1.64232E+04 -6.76427E+03
 -6.64809E+03 -6.62066E+03  4.87185E+02  1.00568E+03 -2.37645E+03  2.49874E+03 -6.12077E+03  4.79649E+03
 -1.46748E+04 -1.53363E+03 -1.55795E+04 -1.20779E+04 -6.97368E+03 -1.99216E+04  7.56949E+03 -1.53408E+04
  1.23475E+04 -5.98394E+03  8.74146E+03  3.71093E+03  2.83619E+02  4.82255E+03 -7.90586E+03  1.68547E+02
 -8.07253E+03 -9.42304E+03 -1.22733E+03 -1.44409E+04  9.24830E+03 -1.54916E+04  2.04900E+04 -8.18878E+03
  2.45635E+04  1.38380E+03  1.72365E+04  1.49851E+04  3.12603E+03  1.98514E+04 -9.58386E+03  1.45951E+04
 -1.19553E+04  4.63030E+03 -6.87696E+03 -2.39381E+03  2.34487E+03 -5.30494E+03  8.60058E+03 -3.31704E+02
  8.98971E+03  7.10547E+03  2.43913E+03  1.06895E+04 -7.34479E+03  1.09717E+04 -1.57458E+04  3.48786E+03
 -1.15599E+04 -7.91536E+03  5.31227E+02 -1.39690E+04  7.59906E+03 -5.67079E+03  9.35456E+03  3.48654E+03
  2.44313E+03  1.10449E+04 -8.27171E+03  1.22830E+04 -1.39685E+04  5.37560E+03 -1.37548E+04 -4.77478E+03
 -6.68789E+03 -1.68987E+04  2.58444E+03 -1.83494E+04  1.56061E+04 -1.10150E+04  1.65086E+04  3.35206E+03
  1.03569E+04  1.27391E+04 -1.96802E+03  1.52769E+04 -1.19331E+04  9.43025E+03 -1.24290E+04 -1.77733E+02
 -1.04667E+04 -8.53709E+03 -3.81046E+03 -1.29733E+04  6.49268E+03 -1.00243E+04  6.04549E+03 -3.14031E+03
  3.92983E+03  1.64405E+03 -1.43855E+03  2.14100E+03 -1.47317E+02 -2.91139E+03  1.05106E+03 -5.60816E+03
  1.21085E+04 -6.15563E+03  1.59777E+04  2.52628E+03  1.72257E+04  9.23445E+03  1.02209E+04  2.22304E+04
 -5.44364E+03  2.27895E+04 -2.08059E+04  1.72395E+04 -2.53766E+04  4.14929E+03 -2.05274E+04 -9.10877E+03
 -1.06839E+04 -1.70106E+04 -4.13461E+02 -1.47897E+04  6.63954E+03 -7.36853E+03  4.98739E+03 -5.01763E+03
  4.82189E+03 -2.11548E+03  4.50457E+03 -4.08897E+03  6.12145E+03 -3.70713E+03  8.67683E+03 -2.81975E+03
  1.04793E+04  2.54225E+03  6.48393E+03  9.50696E+03 -3.32181E+03  1.06217E+04 -1.10556E+04  8.62186E+03
 -1.52378E+04 -1.51792E+03 -8.31774E+03 -1.13513E+04 -1.36398E+03 -1.59402E+04  8.56695E+03 -1.58702E+04
  1.61911E+04 -7.59766E+03  1.92143E+04  2.47955E+03  1.49470E+04  1.43953E+04  1.50917E+03  1.54987E+04
 -8.37531E+03  1.42029E+04 -9.94376E+03  5.30956E+03 -6.35863E+03 -1.43612E+03 -2.88682E+03 -1.31961E+03
 -2.77099E+03  9.81741E+02 -2.35596E+03  3.24915E+03 -6.18096E+03  1.60740E+03 -1.02083E+04 -6.03027E+02
 -7.93209E+03 -1.01911E+04  1.59626E+03 -1.55572E+04  8.95272E+03 -1.28722E+04  1.32878E+04 -5.01407E+03
  1.33984E+04  6.68187E+03  5.75859E+03  1.37740E+04 -2.69440E+03  1.54752E+04 -9.89560E+03  1.06715E+04
 -1.40137E+04  2.25909E+03 -1.02910E+04 -8.64445E+03 -2.67563E+03 -1.17646E+04  6.67426E+03 -9.00192E+03
  8.11351E+03 -2.38384E+03  6.80844E+03  2.55537E+03  3.80283E+03  4.08972E+03  1.94970E+03  2.42070E+03
  2.15064E+03  1.61666E+03  3.64354E+03  4.17635E+03  3.11021E+03  4.04847E+03  3.04259E+03  7.00333E+03
 -4.27172E+03  1.18148E+04 -1.15048E+04  1.15391E+04 -1.42203E+04  4.06763E+03 -1.42463E+04 -7.11874E+03
 -7.66024E+03 -1.50481E+04  3.01109E+03 -1.53739E+04  9.57438E+03 -9.52238E+03  1.11902E+04 -4.43537E+03
  8.11888E+03  4.78381E+03  1.94777E+03  8.93293E+03 -3.25857E+03  5.22301E+03 -4.92096E+03 -1.48767E+03
 -2.73438E+03 -6.45572E+03  3.98726E+03 -7.16569E+03  6.15424E+03 -4.04811E+03  5.76805E+03  1.72087E+03
  2.98201E+03  4.50771E+03  2.17272E+03  2.51182E+03 -9.76046E+02  4.27491E+03  1.39569E+03  1.82708E+02
  3.04735E+03 -2.50009E+03  4.86262E+03  3.47894E+03  3.77828E+03  7.24150E+03 -1.76774E+03  9.56724E+03
 -7.79527E+03  6.35073E+03 -8.76251E+03  2.84077E+03 -8.39090E+03 -3.43827E+03 -2.39945E+03 -5.98095E+03
 -1.18426E+03 -5.61276E+03  3.36496E+03 -3.12466E+03  2.56195E+03  2.53491E+03 -2.97054E+02  5.39486E+03
 -7.52738E+03  2.66701E+03 -6.71516E+03 -2.35749E+03 -3.03554E+03 -7.51518E+03  1.47984E+03 -7.19268E+03
  5.32416E+03 -3.95349E+03  5.81558E+03 -6.89514E+02  5.36423E+03  1.97973E+03  1.39593E+03  4.84579E+03
 -3.37701E+03  1.84310E+03 -3.09956E+03 -3.27420E+03  7.86503E+02 -6.48329E+03  6.40050E+03 -4.58021E+03
  1.00132E+04  2.80402E+02  8.40669E+03  6.71183E+03  3.41174E+03  9.59273E+03 -1.54155E+03  9.16818E+03
 -6.92501E+03  3.33849E+03 -7.89150E+03 -2.26123E+03 -3.46422E+03 -5.94504E+03  1.51222E+03 -6.08142E+03
  5.52255E+03 -2.46379E+03  5.55708E+03  2.99385E+03 -1.08138E+02  5.22612E+03 -1.17825E+03  4.16995E+03
 -2.31360E+03  3.73982E+03 -1.59528E+03  2.82120E+03  1.67682E+02  2.30094E+03 -1.61428E+03  2.04787E+03
 -1.11083E+03  4.32327E+03 -5.12780E+03  2.46676E+03 -1.04522E+04  7.88653E+02 -9.86193E+03 -6.33359E+03
 -6.86197E+03 -1.19930E+04  1.77809E+03 -1.40777E+04  7.67364E+03 -1.12869E+04  1.28900E+04 -2.51359E+03
  1.16203E+04  2.99374E+03  8.93414E+03  1.00828E+04  4.19196E+02  8.69808E+03 -3.68308E+03  7.39485E+03
 -5.10489E+03  4.48737E+03 -4.26658E+03  8.65075E+02 -1.59867E+03 -3.02851E+02 -4.21015E+02 -5.15096E+01
 -2.97949E+03  2.62502E+02 -2.48953E+03 -9.71429E+02  1.11434E+03 -3.12027E+03  6.26715E+02 -4.07092E+03
  3.15142E+03 -1.63861E+03  4.48105E+03  1.31274E+03  6.87790E+03  5.91863E+03  1.81278E+03  8.73244E+03
 -5.34424E+03  1.18440E+04 -8.58820E+03  5.54092E+03 -1.01930E+04 -1.96874E+02 -1.03329E+04 -8.45818E+03
 -4.23040E+03 -1.08927E+04  2.12248E+03 -8.51786E+03  6.25805E+03 -5.26438E+03  6.63163E+03 -2.53012E+02
  2.18698E+03  2.79066E+03  1.67063E+00  3.20841E+03 -2.18106E+03 -1.40232E+02  8.33694E+02 -1.82236E+03
  3.03692E+03 -2.37693E+03  4.34702E+03 -4.37800E+02  2.21140E+03  1.74549E+03  9.18233E+02  4.03414E+03
 -4.45830E+03  5.39738E+03 -6.32658E+03  1.79372E+02 -5.98793E+03 -4.43723E+03 -1.47484E+02 -8.94677E+03
  3.10306E+03 -7.79641E+03  5.86434E+03 -2.97791E+03  6.30170E+03  8.90915E+02  5.21619E+03  6.37716E+03
  1.55635E+03  7.43060E+03 -3.21109E+03  6.63092E+03 -3.06736E+03  3.20709E+03 -2.96493E+03 -1.96852E+02
 -1.65922E+03 -6.31914E+02 -3.21772E+03  1.66774E+03 -2.21519E+03  4.85872E+02 -3.68891E+03 -1.64425E+03
 -3.58246E+03 -3.68744E+03 -1.49739E+03 -6.56739E+03  3.95183E+03 -4.92858E+03  4.08662E+03 -2.07262E+03
  5.65301E+03  6.30749E+02  3.21734E+03  5.48835E+03  4.54124E+01  6.41917E+03 -6.45502E+03  4.25843E+03
