 $NMID ID='MM_0lb_SNR200_11hz_g40_92.RAW', FMTDAT='(8E13.5)'
 TRAMP=1., VOLUME=1. $END
  3.10301E+05  1.93422E+02  3.38852E+05  2.51334E+05  8.54776E+04  3.37299E+05 -1.31455E+05  2.51935E+05
 -1.91167E+05  8.44780E+04 -1.12949E+05 -3.18159E+04  1.08935E+03 -5.02803E+04  5.55143E+04 -6.21406E+02
  3.63408E+04  5.39974E+04 -1.77562E+04  7.57936E+04 -6.14874E+04  6.44249E+04 -8.61391E+04  3.31166E+04
 -8.11888E+04 -1.08562E+04 -5.73300E+04 -5.28497E+04 -1.49561E+04 -7.10025E+04  2.82073E+04 -4.67050E+04
  3.97775E+04  2.75917E+03  1.60874E+04  4.81793E+04 -3.44083E+04  4.78280E+04 -6.81832E+04 -1.13652E+03
 -5.33412E+04 -5.69959E+04 -8.05703E+03 -7.67308E+04  3.31024E+04 -5.54674E+04  4.78141E+04 -1.74737E+04
  4.34932E+04  1.15339E+04  3.20423E+04  2.51686E+04  1.53416E+04  2.99685E+04 -5.28626E+03  2.66133E+04
 -2.01680E+04  1.17952E+04 -1.87149E+04 -5.84976E+03  5.07883E+03 -5.73377E+03  2.39134E+04  1.28274E+04
  6.08609E+03  3.63617E+04 -3.28803E+04  3.52769E+04 -6.41160E+04  7.89267E+02 -5.83890E+04 -4.29039E+04
 -1.42073E+04 -6.37472E+04  3.99384E+04 -4.62071E+04  5.76877E+04 -2.43979E+03  3.53982E+04  3.39503E+04
 -4.06882E+03  3.61983E+04 -3.08062E+04  1.72303E+04 -3.20265E+04 -3.35572E+03 -1.80004E+04 -1.10805E+04
 -7.90227E+03 -1.39855E+04 -7.10238E+02 -1.74051E+04  7.40065E+03 -2.28907E+04  1.55353E+04 -1.31454E+04
  1.07361E+04  5.89780E+03 -7.84552E+03  1.22493E+04 -2.16288E+04 -6.25702E+03 -7.58293E+03 -3.51149E+04
  2.38353E+04 -4.40187E+04  4.95197E+04 -2.11812E+04  4.60752E+04  2.03261E+04  1.58046E+04  4.48017E+04
 -1.56102E+04  3.47164E+04 -2.67784E+04  1.83016E+03 -1.07714E+04 -2.84930E+04  2.09942E+04 -3.49202E+04
  4.17419E+04 -9.83835E+03  3.65195E+04  2.45269E+04  1.93052E+04  4.72598E+04 -8.18847E+03  5.28158E+04
 -3.31057E+04  3.46994E+04 -4.22313E+04  1.00997E+04 -4.52229E+04 -1.75135E+04 -2.43891E+04 -4.00847E+04
  7.36359E+03 -3.79777E+04  3.33816E+04 -1.62614E+04  3.07458E+04  1.19409E+04  3.84091E+03  2.03592E+04
 -1.34894E+04  9.96228E+03 -1.15828E+04 -7.72791E+03  5.77179E+03 -9.95659E+03  1.83314E+04  6.49290E+03
  1.55546E+04  2.10458E+04 -5.72528E+03  2.66202E+04 -2.27692E+04  1.28410E+04 -2.81141E+04 -2.84132E+03
 -2.38330E+04 -1.74559E+04 -7.87787E+03 -2.19735E+04  4.39435E+03 -2.21936E+04  1.69745E+04 -1.86666E+04
  2.84468E+04 -1.37844E+04  3.42126E+04  3.93159E+03  2.43972E+04  2.16187E+04  2.89525E+03  3.85901E+04
 -1.86455E+04  3.18170E+04 -2.80841E+04  1.20072E+04 -2.18699E+04 -1.06692E+04 -3.81128E+03 -1.24896E+04
  5.57595E+02 -2.39388E+03 -6.78256E+03  6.87421E+03 -1.63667E+04  4.81492E+03 -1.79355E+04 -7.39209E+03
 -1.05197E+04 -2.04228E+04  5.58034E+03 -2.57870E+04  1.71557E+04 -1.84004E+04  2.00059E+04 -1.13477E+03
  1.20095E+04  1.57399E+04  3.98896E+02  2.01534E+04 -1.32296E+04  1.16692E+04 -2.26343E+04 -4.13899E+03
 -1.44348E+04 -1.85684E+04 -2.33646E+03 -2.55062E+04  1.17909E+04 -2.05833E+04  2.03512E+04 -1.17001E+04
  2.11065E+04 -4.72229E+02  1.48190E+04  3.06121E+03  7.90764E+03  1.71628E+03  1.16888E+04 -6.52253E+02
  1.94790E+04  2.81929E+03  2.10757E+04  1.67898E+04  1.62323E+04  3.35247E+04 -2.57814E+03  3.93316E+04
 -2.27905E+04  3.14729E+04 -3.67725E+04  1.62326E+04 -3.95534E+04 -2.06120E+03 -3.13211E+04 -2.20334E+04
 -1.43685E+04 -3.12680E+04  1.19081E+04 -2.75711E+04  2.36842E+04 -1.34127E+04  2.12568E+04  6.97614E+03
  6.63669E+03  1.50677E+04 -1.00807E+04  1.41643E+04 -1.70385E+04  2.12342E+03 -1.35359E+04 -1.19966E+04
 -5.00636E+02 -1.61017E+04  9.61282E+03 -1.25369E+04  1.11893E+04 -1.05416E+03  2.24188E+03  7.55506E+03
 -7.71186E+03  3.44155E+03 -7.45504E+03 -6.75407E+03 -1.15703E+03 -1.48929E+04  1.08263E+04 -1.61879E+04
  1.99222E+04 -8.43225E+03  2.08335E+04  1.88261E+03  1.88505E+04  1.62106E+04  8.54775E+03  2.36647E+04
 -4.89574E+03  2.57829E+04 -1.55028E+04  1.61047E+04 -1.89473E+04  2.80703E+03 -1.37562E+04 -4.52729E+03
 -6.22409E+03 -4.74736E+03 -1.00564E+03 -4.55600E+02 -1.74743E+03  3.71525E+03 -6.19041E+03  4.94813E+03
 -1.24745E+04 -5.46658E+02 -1.20844E+04 -1.12593E+04 -5.16328E+03 -1.72156E+04  5.15651E+03 -1.36226E+04
  1.08700E+04 -5.05201E+03  7.63624E+03  2.87675E+03 -7.09202E+01  4.95986E+03 -5.74622E+03  6.03820E+02
 -5.06793E+03 -8.16356E+03 -5.23587E+02 -1.35654E+04  8.46592E+03 -1.32292E+04  1.60187E+04 -7.72256E+03
  2.01885E+04  3.18399E+03  1.39896E+04  1.16176E+04  2.71138E+03  1.61762E+04 -7.93660E+03  1.15112E+04
 -9.74015E+03  2.83594E+03 -4.00828E+03 -3.30771E+03  2.55788E+03 -2.72790E+03  6.36228E+03 -1.03725E+02
  7.03574E+03  5.47267E+03  4.35390E+02  1.17206E+04 -6.82728E+03  9.05441E+03 -1.17077E+04  3.62964E+03
 -9.21603E+03 -8.08273E+03 -5.80202E+02 -1.04316E+04  8.04328E+03 -6.47745E+03  7.85059E+03  9.51757E+02
  1.79530E+03  7.01745E+03 -6.22146E+03  1.05238E+04 -1.05730E+04  4.24812E+03 -1.07702E+04 -4.29054E+03
 -5.67207E+03 -1.35043E+04  4.32644E+03 -1.41233E+04  1.21130E+04 -8.07944E+03  1.41920E+04  2.43313E+03
  8.27580E+03  1.03791E+04 -1.67264E+03  1.29747E+04 -1.07983E+04  7.98021E+03 -1.01218E+04 -1.13935E+03
 -8.93285E+03 -8.17699E+03 -2.99648E+03 -1.03687E+04  5.22541E+03 -7.63860E+03  5.65727E+03 -3.29119E+03
  2.99340E+03  8.87001E+02 -2.26647E+03  1.37941E+03 -1.18937E+03 -1.76041E+03  1.81819E+03 -5.23485E+03
  9.49565E+03 -2.33699E+03  1.37495E+04 -5.40941E+02  1.12165E+04  9.33200E+03  9.10601E+03  1.64773E+04
 -4.09463E+03  1.78632E+04 -1.55492E+04  1.32970E+04 -1.90086E+04  2.66972E+03 -1.56172E+04 -7.95176E+03
 -9.45941E+03 -1.43768E+04  6.11224E+02 -1.13896E+04  4.48470E+03 -5.84703E+03  3.29274E+03 -5.00457E+03
  3.22837E+03 -2.33679E+03  3.38277E+03 -3.83528E+03  3.65242E+03 -4.51696E+03  6.45828E+03 -2.37173E+02
  8.26109E+03  2.32355E+03  4.47502E+03  5.88025E+03 -3.29992E+03  8.20350E+03 -8.83901E+03  7.71486E+03
 -1.20147E+04 -1.70205E+03 -6.20819E+03 -7.32799E+03 -9.07719E+02 -1.20644E+04  5.56603E+03 -1.11459E+04
  1.33416E+04 -6.33773E+03  1.60881E+04  1.59348E+03  8.59348E+03  9.49175E+03  1.81990E+03  1.41643E+04
 -5.67341E+03  1.20038E+04 -6.92502E+03  3.19067E+03 -5.29370E+03 -1.72130E+03 -2.72174E+03 -2.03510E+03
  2.31738E+02  3.48187E+02 -1.52712E+03  1.74313E+03 -6.02435E+03  1.55132E+03 -7.28422E+03 -9.05379E+02
 -5.27809E+03 -7.75289E+03  1.09778E+03 -1.18256E+04  7.88759E+03 -9.24333E+03  1.04311E+04 -4.79808E+03
  9.73566E+03  4.64255E+03  5.57327E+03  9.73786E+03 -2.50485E+03  9.96470E+03 -8.15058E+03  7.56118E+03
 -9.92073E+03  1.15215E+03 -7.54527E+03 -5.76318E+03 -7.01148E+02 -9.87906E+03  5.56033E+03 -7.22786E+03
  7.49193E+03 -2.68165E+03  5.22054E+03  1.68371E+03  1.79854E+03  3.42909E+03  1.39762E+03  9.41015E+02
  1.77025E+03  2.08487E+03  1.84066E+03  3.04032E+03  3.92880E+03  4.71403E+03  1.69154E+03  5.76302E+03
 -2.15671E+03  7.77853E+03 -8.15839E+03  9.53117E+03 -1.03194E+04  3.77716E+03 -1.06568E+04 -3.15439E+03
 -6.44574E+03 -1.03422E+04  2.28591E+03 -1.25549E+04  6.69237E+03 -7.94110E+03  7.59004E+03 -3.63687E+03
  6.18776E+03  3.54294E+03  7.90826E+02  6.19831E+03 -4.13154E+03  4.55716E+03 -2.59635E+03  2.97953E+02
 -2.51341E+03 -5.32849E+03  2.62278E+03 -4.09224E+03  5.27203E+03 -2.51771E+03  5.27932E+03  1.77595E+03
  2.54229E+03  1.44648E+03  4.71486E+02  1.42617E+03 -3.35528E+02  5.08613E+02  1.37982E+03 -2.98901E+02
  1.73035E+03 -9.09171E+02  5.68658E+03  1.61383E+03  1.85580E+03  6.47851E+03  1.08347E+02  7.82208E+03
 -4.91957E+03  5.11120E+03 -6.72678E+03  2.65712E+03 -5.87519E+03 -3.57085E+03 -1.63294E+03 -3.77039E+03
 -8.15880E+02 -4.73574E+03  3.53937E+03 -1.62134E+03  2.61021E+03  2.57668E+03 -1.11548E+03  3.08998E+03
 -4.61755E+03  1.29647E+03 -4.56731E+03 -2.22374E+03 -3.24253E+03 -5.42554E+03  5.87304E+02 -4.17419E+03
  3.34290E+03 -4.20867E+03  4.09461E+03 -1.65181E+02  3.41158E+03  1.58734E+03 -1.38183E+03  2.43246E+03
 -6.08416E+02  8.61797E+02 -1.66848E+03 -2.18190E+03  4.61634E+02 -3.61905E+03  4.75334E+03 -4.67121E+03
  5.06156E+03  1.57129E+03  5.79249E+03  3.62866E+03  2.13702E+03  6.34611E+03 -3.12887E+03  7.93083E+03
 -6.22918E+03  2.83714E+03 -6.71397E+03 -1.69815E+03 -2.96551E+03 -4.11083E+03  9.84519E+02 -2.70543E+03
  5.17069E+03 -1.44279E+03  4.36234E+03  2.39811E+03  5.31683E+02  4.19599E+03  5.65956E+02  3.93208E+03
 -2.23633E+03  2.53870E+03 -2.02995E+03  2.00630E+03  2.39095E+02  9.78500E+02 -3.46413E+02  8.54948E+02
 -2.27296E+03  1.56094E+03 -6.33256E+03  2.52172E+03 -7.20233E+03  1.51692E+03 -7.99414E+03 -4.03744E+03
 -4.04711E+03 -8.17831E+03  7.24357E+02 -9.93567E+03  6.33668E+03 -8.50153E+03  9.44173E+03 -4.93102E+03
  9.83081E+03  1.12255E+03  4.70544E+03  6.46582E+03 -3.42820E+02  7.05590E+03 -1.69738E+03  6.00317E+03
 -3.82828E+03  5.21696E+02 -2.54264E+03 -1.00847E+03 -1.62709E+03 -3.63901E+02 -1.07977E+03 -2.01446E+02
 -1.42829E+03  3.21255E+02 -1.81061E+03 -1.45246E+03 -3.36699E+02 -1.54953E+03  4.96260E+02 -3.03932E+03
  4.06318E+03 -3.05571E+03  4.04267E+03 -9.59595E+01  4.30927E+03  5.12164E+03  1.45120E+03  7.57996E+03
 -3.31295E+03  8.41346E+03 -7.93440E+03  3.64545E+03 -9.43850E+03 -2.36334E+02 -6.45895E+03 -6.09609E+03
 -3.61093E+03 -5.71997E+03  3.21849E+03 -5.06452E+03  4.90045E+03 -3.01863E+03  5.66570E+03 -1.28671E+02
  3.73161E+03  2.94191E+03 -5.99378E+02  2.05458E+03 -2.09914E+03  1.20262E+03  8.78788E+02 -1.23701E+03
  1.44176E+02 -5.16848E+02  1.61464E+03  9.20900E+02 -2.91042E+02  2.23038E+03 -9.25948E+02  3.34907E+03
 -2.86721E+03  1.04401E+03 -4.51714E+03 -9.38753E+02 -5.06783E+03 -2.47507E+03  2.01356E+01 -5.01563E+03
  3.45102E+03 -4.72349E+03  4.15577E+03 -8.28369E+02  6.63068E+03  5.30532E+02  2.74907E+03  3.31365E+03
  1.87534E+03  4.80479E+03 -1.64901E+03  4.18009E+03 -3.94129E+03  1.83760E+03 -1.79164E+03 -2.95304E+02
 -3.19073E+03  1.41399E+03 -9.02662E+02 -4.88179E+02 -1.68488E+03  3.84572E+02 -3.68027E+03 -1.09547E+03
 -4.38968E+03 -2.32616E+03 -6.55757E+02 -4.61202E+03  1.10655E+03 -4.73762E+03  4.92037E+03 -2.36269E+03
  3.13080E+03  7.29163E+02  2.12360E+03  3.23320E+03 -1.26290E+03  3.12443E+03 -2.80817E+03  2.02040E+03
