 $NMID ID='MM_0lb_SNR200_18hz_g55_95.RAW', FMTDAT='(8E13.5)'
 TRAMP=1., VOLUME=1. $END
  3.10559E+05  4.93971E+01  3.37451E+05  2.50410E+05  8.47212E+04  3.37833E+05 -1.32802E+05  2.50852E+05
 -1.90345E+05  8.28851E+04 -1.11068E+05 -3.33607E+04  1.94839E+03 -4.92033E+04  5.34170E+04  5.38843E+02
  3.60796E+04  5.29935E+04 -1.65359E+04  7.63219E+04 -6.14099E+04  6.27690E+04 -8.33451E+04  3.31351E+04
 -8.16949E+04 -1.09330E+04 -5.62876E+04 -5.05562E+04 -1.47993E+04 -6.87046E+04  2.77347E+04 -4.52623E+04
  3.92958E+04  3.79129E+03  1.58466E+04  4.77975E+04 -3.51078E+04  4.59914E+04 -6.59241E+04 -2.72065E+02
 -5.16883E+04 -5.67595E+04 -6.52099E+03 -7.66361E+04  3.31977E+04 -5.47514E+04  4.68931E+04 -1.79230E+04
  4.24051E+04  1.21700E+04  3.18548E+04  2.44617E+04  1.70556E+04  2.94770E+04 -5.74023E+03  2.73033E+04
 -2.15688E+04  1.20255E+04 -1.82717E+04 -5.16151E+03  4.88051E+03 -7.32522E+03  2.22769E+04  1.12704E+04
  6.51654E+03  3.43305E+04 -3.09986E+04  3.45002E+04 -6.07137E+04  2.02954E+03 -5.61058E+04 -4.20787E+04
 -1.25998E+04 -6.09674E+04  3.80975E+04 -4.36592E+04  5.70132E+04 -2.11757E+03  3.32472E+04  3.06912E+04
 -6.51524E+03  3.51265E+04 -2.92806E+04  1.49469E+04 -2.90263E+04 -3.56833E+03 -1.54329E+04 -1.05083E+04
 -7.37204E+03 -1.23010E+04 -7.72158E+02 -1.72706E+04  7.58637E+03 -2.20781E+04  1.52397E+04 -1.32593E+04
  1.16763E+04  5.63433E+03 -6.25212E+03  1.40959E+04 -1.97366E+04 -2.48487E+03 -7.43343E+03 -3.14034E+04
  2.18554E+04 -4.22424E+04  4.65980E+04 -1.86689E+04  4.40935E+04  1.80421E+04  1.43317E+04  4.24520E+04
 -1.55311E+04  3.23865E+04 -2.30386E+04  1.89545E+03 -7.17459E+03 -2.70059E+04  2.05042E+04 -3.24025E+04
  3.94181E+04 -8.23431E+03  3.18055E+04  2.23954E+04  1.61595E+04  4.33408E+04 -7.70891E+03  4.81772E+04
 -2.89557E+04  3.10247E+04 -3.91677E+04  8.60189E+03 -4.05472E+04 -1.48453E+04 -2.27591E+04 -3.64924E+04
  6.41655E+03 -3.54622E+04  2.96213E+04 -1.34528E+04  2.69369E+04  1.08435E+04  3.18263E+03  1.76501E+04
 -1.27071E+04  8.25386E+03 -9.51292E+03 -8.43205E+03  5.47471E+03 -1.01143E+04  1.78975E+04  7.20982E+03
  1.22539E+04  2.17881E+04 -6.87195E+03  2.30888E+04 -2.07558E+04  9.67361E+03 -2.59491E+04 -5.63496E+03
 -1.81919E+04 -1.65684E+04 -6.56690E+03 -1.77181E+04  3.16224E+03 -1.67091E+04  1.36455E+04 -1.52192E+04
  2.37841E+04 -1.23863E+04  2.91979E+04  1.34744E+03  2.13684E+04  1.78310E+04  4.43329E+03  3.41645E+04
 -1.65828E+04  2.86726E+04 -2.64402E+04  8.15428E+03 -2.06645E+04 -1.09577E+04 -4.04654E+03 -1.31045E+04
  2.43742E+03 -4.03142E+03 -2.16015E+03  5.61212E+03 -1.42899E+04  4.08900E+03 -1.42893E+04 -5.47205E+03
 -9.31199E+03 -1.59922E+04  5.23943E+03 -2.01704E+04  1.40197E+04 -1.46417E+04  1.54473E+04 -2.47017E+03
  1.04788E+04  1.16562E+04  2.05509E+02  1.66644E+04 -1.19733E+04  8.70504E+03 -1.64754E+04 -3.88084E+03
 -1.32458E+04 -1.50341E+04 -1.95273E+03 -1.98771E+04  1.02135E+04 -1.62016E+04  1.55228E+04 -7.71868E+03
  1.55416E+04  8.38830E+02  1.14855E+04  4.10802E+03  4.94012E+03 -2.82429E+02  9.43798E+03 -1.28847E+03
  1.47364E+04  3.17939E+03  1.69188E+04  1.33069E+04  1.00710E+04  2.65134E+04 -3.08586E+03  2.85811E+04
 -1.65243E+04  2.28283E+04 -2.57328E+04  9.89881E+03 -2.77818E+04 -2.92964E+03 -2.27847E+04 -1.60136E+04
 -1.10532E+04 -2.29342E+04  8.04777E+03 -2.02621E+04  1.63266E+04 -1.17500E+04  1.75746E+04  5.09316E+03
  7.16843E+03  1.30070E+04 -7.40620E+03  1.01704E+04 -1.42658E+04  2.21341E+03 -1.09055E+04 -8.54407E+03
 -2.65385E+02 -1.30637E+04  7.15906E+03 -9.64440E+03  7.83864E+03 -1.69491E+03  1.02785E+03  5.95561E+03
 -6.06161E+03  1.78085E+03 -5.00001E+03 -4.75047E+03  4.29103E+02 -1.10590E+04  8.85852E+03 -1.10253E+04
  1.32833E+04 -4.95834E+03  1.29699E+04  2.27482E+03  1.16344E+04  9.81013E+03  6.85456E+03  1.61424E+04
 -1.62703E+03  1.70526E+04 -1.16701E+04  1.10678E+04 -1.22475E+04  2.58277E+03 -9.14866E+03 -2.79605E+03
 -4.88078E+03 -3.47114E+03 -1.66284E+03  3.02548E+02 -2.44443E+03  2.22339E+03 -3.64128E+03  3.96352E+03
 -9.06004E+03  2.41279E+02 -8.82362E+03 -6.94978E+03 -3.42317E+03 -1.17744E+04  4.59250E+03 -9.09821E+03
  8.65101E+03 -4.32495E+03  4.95427E+03  2.68795E+03  4.87361E+02  2.49982E+03 -3.39434E+03 -6.74146E+02
 -4.32464E+03 -5.62909E+03 -1.01744E+03 -8.71944E+03  4.12015E+03 -7.71300E+03  1.12701E+04 -4.54737E+03
  1.36093E+04  4.09785E+02  1.01480E+04  6.86133E+03  2.49145E+03  9.61523E+03 -5.68580E+03  8.91099E+03
 -6.77683E+03  3.56823E+03 -1.87562E+03 -8.16651E+02  1.34426E+03 -1.00208E+03  4.93233E+03 -4.91902E+02
  4.68421E+03  2.93969E+03  7.32588E+02  5.70673E+03 -4.76248E+03  6.81045E+03 -9.10105E+03  1.02189E+03
 -6.25449E+03 -3.86071E+03  5.27157E+02 -8.36015E+03  3.92167E+03 -4.28697E+03  4.05301E+03  1.21495E+03
  4.50745E+02  3.85189E+03 -3.68241E+03  6.37137E+03 -5.27850E+03  2.01348E+03 -5.01278E+03 -1.66752E+03
 -3.80920E+03 -6.54377E+03  1.05073E+03 -8.16100E+03  6.92590E+03 -5.57075E+03  7.91557E+03  1.24475E+03
  4.08881E+03  6.06229E+03 -4.83379E+02  7.01235E+03 -4.95185E+03  4.37830E+03 -6.21089E+03 -8.85761E+02
 -5.77394E+03 -4.87114E+03 -1.59972E+03 -5.55524E+03  2.82959E+03 -3.81963E+03  2.92581E+03 -3.57078E+03
  2.74603E+03  1.13159E+03  4.77116E+02  1.39328E+03 -1.26072E+03 -7.05631E+02 -7.13248E+02 -2.13501E+03
  3.84906E+03 -1.31806E+03  5.94238E+03  1.53228E+03  6.33776E+03  1.87655E+03  5.14826E+03  8.54626E+03
 -8.26424E+02  1.01022E+04 -7.84529E+03  6.51868E+03 -1.12549E+04  1.65576E+03 -8.08763E+03 -2.47413E+03
 -3.67707E+03 -5.89403E+03 -9.22394E+02 -6.13625E+03  3.28070E+03 -2.24843E+03  2.03009E+03 -2.04628E+03
  2.44135E+03 -2.13597E+03  3.09051E+03 -1.76251E+03  3.29182E+03 -1.84011E+03  4.47702E+03 -2.35983E+01
  4.61243E+03  1.19692E+03  2.38094E+03  3.89810E+03 -1.75371E+03  3.14342E+03 -4.47220E+03  3.10014E+03
 -6.42760E+03 -1.23774E+03 -2.54291E+03 -3.86942E+03 -8.60045E+02 -6.10331E+03  3.77937E+03 -5.30902E+03
  5.89064E+03 -3.05536E+03  6.92923E+03 -4.17579E+02  4.92907E+03  4.42185E+03  3.01898E+02  6.03303E+03
 -3.04210E+03  5.97313E+03 -4.05981E+03  1.76953E+03 -1.56326E+03 -7.35183E+02 -1.76947E+02 -2.39601E+03
 -4.65537E+02 -4.50878E+02 -1.92251E+03  2.65098E+03 -3.47837E+03  1.03922E+03 -4.66782E+03 -9.34313E+02
 -1.84080E+03 -4.26921E+03  1.00366E+03 -5.29224E+03  4.75655E+03 -4.30762E+03  3.81094E+03 -1.39813E+03
  3.77856E+03  2.62474E+03  2.22213E+03  3.90007E+03 -7.33282E+02  4.46744E+03 -3.43487E+03  2.90451E+03
 -4.16696E+03  9.79641E+01 -3.45203E+03 -2.43266E+03 -6.11765E+02 -2.46979E+03  1.82664E+03 -2.36960E+03
  3.14272E+03 -1.32633E+03  2.49246E+03  1.07930E+03  1.95221E+03  1.59102E+03 -1.29629E+02  1.19486E+03
  2.63487E+03  9.22109E+02  1.38436E+03  6.29559E+02  9.17635E+02  2.78561E+03  1.46851E+03  2.62500E+03
 -1.90595E+03  4.22759E+03 -2.04903E+03  4.42286E+03 -2.52647E+03  1.35406E+03 -5.74289E+03 -8.46985E+02
 -1.90162E+03 -3.57094E+03  1.08122E+03 -4.95521E+03  2.00623E+03 -1.85500E+03  2.92949E+03 -2.06475E+03
  3.50924E+03  2.11305E+03  6.70471E+02  2.95204E+03  4.86773E+02  1.37668E+03 -5.72381E+02  1.15334E+03
 -6.67953E+02 -6.36616E+02  8.47990E+02 -6.67074E+02  2.20852E+03 -6.41178E+02  1.89522E+03  6.55375E+02
  1.69812E+03  1.21074E+03  1.24376E+03  2.95781E+02  2.46143E+02  7.03470E+02  1.20370E+03  3.02000E+01
  7.64707E+02 -9.40137E+02  2.16629E+03 -1.77317E+02  4.65359E+01  2.28790E+03 -7.05927E+02  4.43655E+03
 -2.06390E+03  1.36470E+03 -2.49566E+03  8.27432E+02 -2.69547E+03  9.66694E+00 -2.52091E+02 -1.13701E+03
  7.28576E+02 -1.63564E+03  1.04082E+03 -5.33146E+02  1.60648E+03  1.73682E+03 -8.14347E+02  2.23455E+03
 -1.80601E+03  1.43567E+03 -3.61072E+02 -2.00499E+03 -8.20019E+02 -1.97022E+03  2.60676E+02 -3.01780E+03
  5.67791E+01 -8.61828E+02  3.97760E+01 -3.75448E+02  1.52954E+03  5.64309E+02  1.07420E+03  1.54395E+03
 -1.04506E+03 -3.72237E+02 -8.87179E+02 -6.44741E+02  7.30686E+02 -1.71970E+03  7.95053E+02 -1.74684E+03
  8.63157E+02 -2.59331E+02  2.23866E+03  3.47276E+02  2.04041E+03  1.71754E+03  2.05218E+02  2.47101E+03
 -2.25512E+03  2.64592E+02 -1.22622E+03  2.72142E+02 -6.39868E+01 -8.95220E+02  2.82179E+02 -3.94350E+00
  1.95088E+03 -6.87414E+02  1.40444E+03  2.17978E+03  9.15653E+02  1.08967E+03 -6.50090E+02  1.22863E+03
 -3.31395E+02  8.00581E+02 -7.14641E+02 -1.27393E+01 -9.18511E+00  4.16285E+02 -9.03786E+02  7.93204E+02
 -9.95696E+02  1.50855E+03 -1.39473E+03  2.47464E+02 -1.91841E+03  8.44108E+02 -3.23165E+03 -1.67970E+03
 -1.78923E+03 -2.26148E+03 -6.60679E+02 -3.32884E+03  1.41861E+03 -2.53838E+03  3.43020E+03 -1.29962E+03
  2.76397E+03  6.66323E+02  9.82309E+02  9.24483E+02 -4.22858E+02  9.93740E+01 -1.16529E+03  1.95909E+03
 -8.99513E+02  5.71982E+02  2.28913E+02 -4.92781E+02 -3.28302E+02  1.35507E+02 -9.54013E+02  1.88202E+02
 -6.80690E+02  5.74127E+02 -1.44868E+03 -1.07446E+03  3.76622E+02 -6.95591E+02 -7.72724E+02 -8.45519E+02
  8.86724E+02  5.57851E+02  5.61332E+02 -2.20816E+02  1.34070E+03 -4.77372E+01 -3.15384E+02  2.09681E+03
 -1.15252E+03  2.45835E+03 -2.51210E+03  1.82479E+03 -1.68286E+03 -1.62999E+02 -8.09204E+02 -1.14448E+03
 -1.96088E+03 -1.84831E+03 -5.20985E+01 -8.08460E+02  1.78712E+03  4.91819E+02  7.07377E+02  5.84864E+01
  3.27216E+02  2.15893E+02  4.44211E+02  5.75008E+02 -7.41322E+02 -3.29893E+02  1.97604E+02 -5.20170E+01
 -3.18573E+02 -3.96286E+01  1.15484E+03  9.63888E+02 -1.07679E+02  6.80744E+02  2.16545E+02  5.50644E+02
  5.74780E+01  3.99150E+02 -8.09658E+02  1.03741E+03 -1.10218E+01 -1.41445E+03  6.83097E+02 -1.63234E+03
  5.25457E+02 -2.92340E+02  9.28731E+02 -3.92729E+02  1.35077E+03 -9.65651E+01  2.48190E+02  3.53186E+02
  8.55699E+01  1.40062E+03  5.82242E+02  8.91712E+02 -7.47894E+02  2.36793E+02 -9.97806E+02 -3.43063E+02
  1.59220E+02  2.76752E+02  5.65651E+02  7.12900E+02 -1.00190E+02  7.00600E+02 -2.14981E+03  2.12474E+02
 -6.91139E+02 -2.54431E+02 -7.95290E+02 -2.18998E+03  7.80736E+02 -1.75919E+03 -1.43355E+02 -6.95173E+02
 -7.33826E+02  1.63260E+02 -5.41047E+02  8.40485E+02 -4.05199E+02  1.74354E+03 -6.19248E+02  5.86162E+02
