 $NMID ID='MM_0lb_SNR200_16hz_g55_97.RAW', FMTDAT='(8E13.5)'
 TRAMP=1., VOLUME=1. $END
  3.10488E+05  4.04252E+02  3.36862E+05  2.51561E+05  8.49983E+04  3.38198E+05 -1.32386E+05  2.50925E+05
 -1.90660E+05  8.32482E+04 -1.11623E+05 -3.28899E+04  1.02739E+03 -5.02233E+04  5.38909E+04 -8.94524E+02
  3.62138E+04  5.30468E+04 -1.70896E+04  7.65740E+04 -6.06431E+04  6.31129E+04 -8.49156E+04  3.15727E+04
 -8.07862E+04 -1.24123E+04 -5.74596E+04 -5.01724E+04 -1.48516E+04 -6.97598E+04  2.69491E+04 -4.60942E+04
  3.96009E+04  4.22238E+03  1.72763E+04  4.75917E+04 -3.54090E+04  4.65353E+04 -6.60279E+04 -5.95809E+02
 -5.46521E+04 -5.53164E+04 -7.02845E+03 -7.64952E+04  3.47848E+04 -5.61245E+04  4.76164E+04 -1.77944E+04
  4.30924E+04  9.92126E+03  3.15863E+04  2.49558E+04  1.64233E+04  3.03433E+04 -5.23379E+03  2.73309E+04
 -2.29754E+04  1.19686E+04 -1.82687E+04 -5.64752E+03  4.53121E+03 -7.54918E+03  2.26976E+04  1.13733E+04
  7.32032E+03  3.37043E+04 -3.24423E+04  3.57021E+04 -6.33663E+04  1.61034E+03 -5.55012E+04 -4.26400E+04
 -1.38720E+04 -6.29486E+04  3.86069E+04 -4.57943E+04  5.78509E+04 -1.60154E+03  3.35459E+04  3.15276E+04
 -5.96380E+03  3.56033E+04 -2.75813E+04  1.55764E+04 -2.95104E+04 -4.78472E+03 -1.66274E+04 -9.61126E+03
 -8.09573E+03 -1.28672E+04 -2.63921E+02 -1.80981E+04  5.95307E+03 -2.24439E+04  1.52059E+04 -1.28775E+04
  1.15779E+04  4.46555E+03 -8.45484E+03  1.19647E+04 -1.99250E+04 -4.62747E+03 -8.85055E+03 -3.29853E+04
  2.31419E+04 -4.33804E+04  4.67887E+04 -2.06019E+04  4.49274E+04  1.90129E+04  1.44166E+04  4.31648E+04
 -1.62730E+04  3.22318E+04 -2.46163E+04  9.49635E+02 -9.44649E+03 -2.73949E+04  2.09356E+04 -3.41229E+04
  4.04814E+04 -1.03626E+04  3.50169E+04  2.40482E+04  1.78210E+04  4.54227E+04 -7.96569E+03  4.93886E+04
 -3.07404E+04  3.21946E+04 -4.02791E+04  9.54724E+03 -4.20758E+04 -1.73169E+04 -2.31710E+04 -3.61248E+04
  6.63942E+03 -3.72445E+04  3.15869E+04 -1.36046E+04  2.92309E+04  1.05427E+04  4.03902E+03  1.93322E+04
 -1.42803E+04  9.10111E+03 -1.07239E+04 -7.79470E+03  4.45813E+03 -1.03549E+04  1.82557E+04  6.48507E+03
  1.42252E+04  2.04719E+04 -4.98905E+03  2.46784E+04 -2.08073E+04  1.03073E+04 -2.70356E+04 -4.88635E+03
 -1.80173E+04 -1.76237E+04 -7.71024E+03 -2.02247E+04  3.85658E+03 -1.75863E+04  1.55008E+04 -1.77374E+04
  2.54428E+04 -1.36543E+04  3.13762E+04  3.19490E+03  2.26391E+04  1.81579E+04  4.32641E+03  3.56708E+04
 -1.76197E+04  3.00426E+04 -2.71784E+04  1.08675E+04 -2.06608E+04 -1.02104E+04 -4.19657E+03 -1.38065E+04
  2.05706E+03 -3.54941E+03 -4.03914E+03  6.83257E+03 -1.54694E+04  5.17088E+03 -1.56602E+04 -7.31741E+03
 -9.03799E+03 -1.81397E+04  4.90127E+03 -2.31725E+04  1.49154E+04 -1.58019E+04  1.69672E+04 -2.01647E+03
  1.10958E+04  1.30836E+04 -1.56367E+03  1.83204E+04 -1.21518E+04  1.03258E+04 -1.71357E+04 -3.51199E+03
 -1.27719E+04 -1.61572E+04 -2.30862E+03 -2.14310E+04  1.05947E+04 -1.74280E+04  1.78224E+04 -8.35971E+03
  1.65736E+04  4.04469E+02  1.20770E+04  4.16968E+03  6.31330E+03  6.52247E+02  8.89366E+03 -1.08171E+03
  1.55961E+04  3.00489E+03  1.73309E+04  1.42187E+04  1.16648E+04  2.96275E+04 -2.49506E+03  3.16289E+04
 -1.92217E+04  2.52948E+04 -2.88812E+04  1.30610E+04 -3.14501E+04 -2.07129E+03 -2.55654E+04 -1.77390E+04
 -1.22032E+04 -2.44861E+04  1.00741E+04 -2.33017E+04  2.00751E+04 -1.19636E+04  1.74101E+04  4.62298E+03
  7.23277E+03  1.39544E+04 -8.75448E+03  1.28674E+04 -1.61109E+04  3.13179E+03 -1.26133E+04 -9.62082E+03
 -3.57714E+01 -1.36542E+04  7.50084E+03 -1.07945E+04  9.75600E+03 -1.70137E+03  2.04472E+03  5.68941E+03
 -6.05451E+03  1.98953E+03 -5.13715E+03 -6.19222E+03  1.76243E+02 -1.20372E+04  9.26318E+03 -1.25298E+04
  1.52114E+04 -6.82074E+03  1.55744E+04  2.61482E+03  1.31807E+04  1.28825E+04  7.50620E+03  1.84965E+04
 -3.11952E+03  2.09066E+04 -1.35486E+04  1.30960E+04 -1.55414E+04  4.36848E+03 -1.06235E+04 -3.15590E+03
 -5.26077E+03 -4.13529E+03 -1.05075E+03  1.74228E+03 -6.66027E+02  2.82898E+03 -4.40103E+03  3.72010E+03
 -1.13397E+04 -5.43612E+02 -1.07864E+04 -8.00486E+03 -3.94750E+03 -1.36378E+04  4.55349E+03 -1.04774E+04
  8.43448E+03 -4.87223E+03  6.09134E+03  3.12879E+03  7.08295E+02  4.34982E+03 -5.47563E+03 -7.40145E+02
 -4.75579E+03 -7.24350E+03 -1.12191E+03 -8.95776E+03  5.62219E+03 -1.03728E+04  1.36662E+04 -5.88300E+03
  1.57507E+04  2.01649E+03  1.08566E+04  9.44597E+03  1.75000E+03  1.08945E+04 -5.67510E+03  9.66353E+03
 -8.81102E+03  3.31340E+03 -4.35862E+03 -9.92647E+02  1.91627E+03 -2.14362E+03  5.34790E+03 -2.10990E+03
  4.06656E+03  4.47086E+03  1.29900E+03  7.33782E+03 -4.68075E+03  7.23530E+03 -9.90115E+03  2.39144E+03
 -7.32249E+03 -5.35125E+03 -4.96699E+02 -8.56493E+03  5.44316E+03 -4.97372E+03  5.75200E+03  7.67091E+02
  1.71464E+03  5.01447E+03 -4.50554E+03  7.25464E+03 -7.78283E+03  3.53280E+03 -6.14148E+03 -2.69623E+03
 -4.46405E+03 -9.09091E+03  1.51904E+03 -1.01865E+04  8.16254E+03 -5.60794E+03  9.21314E+03  1.55373E+03
  5.55471E+03  8.17920E+03  4.60755E+02  9.87580E+03 -7.68998E+03  5.71983E+03 -7.10274E+03 -2.38164E+02
 -6.35607E+03 -6.79801E+03 -2.51392E+03 -7.58669E+03  2.01871E+03 -5.12658E+03  3.54836E+03 -3.84446E+03
  4.53170E+03  1.21581E+03  4.13000E+02  1.40698E+03  4.89402E+02 -4.66877E+02  5.39380E+02 -2.59862E+03
  5.82419E+03 -2.21791E+03  7.37941E+03  1.12578E+03  8.10058E+03  5.53785E+03  5.84281E+03  1.03171E+04
 -2.32505E+03  1.19248E+04 -1.08690E+04  8.44526E+03 -1.39630E+04  1.84256E+03 -1.05935E+04 -3.84871E+03
 -6.16843E+03 -8.78185E+03 -3.55659E+02 -7.36252E+03  2.54032E+03 -3.08958E+03  2.24133E+03 -1.99011E+03
  2.84921E+03 -1.71540E+03  9.13058E+02 -2.64361E+03  3.75429E+03 -1.98475E+03  5.01547E+03 -5.78249E+02
  6.67778E+03  2.59001E+03  1.70424E+03  4.79615E+03 -2.25044E+03  5.33227E+03 -6.02079E+03  3.33313E+03
 -8.13717E+03 -1.41390E+03 -4.03240E+03 -5.15561E+03  2.53596E+02 -6.61641E+03  4.64251E+03 -8.10854E+03
  7.40721E+03 -5.45546E+03  8.88190E+03  1.08225E+03  6.60578E+03  7.50176E+03  2.18849E+03  8.45186E+03
 -3.22252E+03  7.73062E+03 -6.15581E+03  2.37569E+03 -3.18830E+03 -1.35681E+03 -8.33249E+02 -1.15451E+03
  6.75232E+01  8.62648E+02 -3.13576E+02  1.90193E+03 -2.63831E+03  1.60965E+03 -5.42039E+03 -2.55054E+02
 -2.64187E+03 -5.56778E+03  3.79438E+02 -6.40923E+03  3.25970E+03 -6.88354E+03  6.23607E+03 -6.51290E+02
  5.65313E+03  4.06468E+03  2.65425E+03  4.87869E+03 -4.71715E+02  6.53535E+03 -3.12378E+03  4.13187E+03
 -4.59793E+03 -4.88722E+02 -4.13378E+03 -3.32679E+03 -2.19929E+01 -5.07380E+03  2.14188E+03 -3.69768E+03
  4.32010E+03 -2.38870E+03  2.33441E+03  6.17425E+02  6.40427E+02  1.69532E+03  6.12359E+02  3.05218E+02
  2.85464E+03  1.11976E+02  1.76562E+03  7.78872E+02  1.78661E+03  2.29441E+03  2.29710E+03  3.22843E+03
 -1.92042E+03  3.90309E+03 -3.03429E+03  6.02056E+03 -5.53147E+03  2.05863E+03 -5.57786E+03 -5.30573E+02
 -3.53912E+03 -5.82152E+03  5.63378E+02 -6.87874E+03  2.86146E+03 -3.66676E+03  4.08481E+03 -1.19836E+03
  4.34345E+03  2.99951E+03  1.40201E+03  3.26663E+03 -1.35364E+03  2.25941E+03 -1.98109E+03  1.92232E+02
 -6.58685E+02 -2.00585E+03  2.18295E+03 -3.12810E+03  3.18628E+03 -1.57498E+02  1.64919E+03  1.26511E+03
  7.43084E+02  9.23761E+02  2.52845E+02  4.45472E+01 -1.41315E+03  1.23051E+03  1.78172E+03  5.26425E+02
  1.85664E+02 -6.52875E+02  2.62708E+03  9.83262E+02  1.36059E+02  3.13050E+03 -1.89363E+02  3.58845E+03
 -2.89235E+03  2.40566E+03 -3.15879E+03  1.71457E+03 -3.01072E+03 -1.24597E+03 -1.97114E+02 -1.19233E+03
 -4.34646E+02 -2.94279E+03  1.76724E+03 -1.58060E+03  1.05225E+03  1.80997E+03 -1.80818E+03  1.01834E+03
 -3.04071E+03  1.74241E+03 -1.03689E+03 -2.73375E+03 -1.66777E+03 -3.58716E+03 -2.54753E+02 -2.86646E+03
  1.17166E+03 -1.41950E+03  8.37274E+02 -3.51483E+02  1.47035E+03  1.71865E+03  4.87832E+02  1.23589E+03
 -4.68806E+02  1.39950E+03 -1.45284E+03 -6.31177E+02  2.15502E+03 -1.74165E+03  2.21850E+03 -1.85401E+03
  3.53045E+03  8.21350E+02  3.05931E+03  1.79366E+03  1.70916E+03  3.15542E+03 -4.12786E+02  3.80129E+03
 -2.87418E+03  7.20593E+02 -2.54675E+03 -3.21838E+02 -1.77861E+03 -1.45578E+03  2.37776E+02 -3.51858E+02
  2.77733E+03 -1.20954E+03  1.01500E+03  8.53505E+02 -8.55824E+01  2.48845E+03  9.94892E+02  7.11677E+02
 -1.13335E+03  6.84801E+02 -4.73770E+02  2.25759E+03  5.87943E+01  4.48545E+02  2.53919E+02  1.41494E+03
 -2.06319E+03  2.25137E+03 -2.38279E+03  3.49555E+02 -2.88334E+03 -2.05959E+02 -3.33869E+03 -1.79407E+03
 -2.02079E+03 -4.29712E+03  1.19318E+03 -5.88246E+03  2.23893E+03 -3.59047E+03  4.97264E+03 -2.65887E+03
  2.47716E+03  1.18759E+03  1.49903E+03  2.24366E+03 -1.42288E+03  1.29651E+03 -9.25900E+02  2.61386E+03
 -1.93855E+03 -3.66353E+01  3.66385E+02 -2.76624E+01 -4.21480E+02 -1.22901E+02  2.60144E+02 -8.74414E+02
 -5.47758E+02  5.31006E+01 -1.64237E+03 -5.21192E+02  7.97740E+02 -1.77898E+03  4.70446E+02 -1.26788E+03
  1.32463E+03 -1.40071E+03  9.45884E+02 -5.07415E+01  2.56801E+03  2.02961E+03  9.52044E+02  2.50987E+03
 -1.55373E+03  3.08280E+03 -2.07780E+03  2.03034E+03 -2.90244E+03  6.11634E+02 -2.21927E+03 -2.78007E+03
 -9.53808E+02 -2.64443E+03  1.13748E+02 -2.54637E+03  1.79670E+03 -1.93831E+03  1.73738E+03  7.21950E+02
  1.56679E+03  1.34711E+03  1.11799E+03 -9.86530E+01 -1.03808E+03  4.28417E+02 -3.60939E+02 -1.13082E+02
  1.45530E+03 -7.26016E+02  1.28889E+03  6.73999E+02 -1.77714E+02  1.68371E+03  1.94475E+03  7.95999E+02
 -1.31331E+03  1.05057E+03 -1.25531E+03  5.14328E+02 -1.31933E+03 -4.83595E+02 -4.94268E+02 -2.41466E+03
  1.39106E+03 -1.40245E+03  1.46707E+03 -9.58048E+02  1.81734E+03 -6.24325E+02  4.86036E+02  1.15154E+03
  4.75612E+02  8.71089E+02 -4.05842E+02  1.98037E+03 -1.18540E+03  1.29608E+03 -5.14449E+02  3.43212E+02
 -1.01188E+03  6.02978E+02 -3.81271E+02  9.38991E+02 -3.47171E+01 -6.90672E+02 -1.39447E+03 -9.12422E+02
 -5.01457E+02  5.37215E+02 -4.46198E+02  2.47259E+02  4.52627E+02 -2.25451E+03  3.83934E+02 -5.30622E+01
  1.05282E+03  1.24670E+03 -1.15545E+03  1.17362E+03 -8.38090E+02  1.01992E+03 -6.91102E+02  1.48472E+03
