 $NMID ID='MM_0lb_SNR200_19hz_g55_88.RAW', FMTDAT='(8E13.5)'
 TRAMP=1., VOLUME=1. $END
  3.09875E+05  2.82186E+02  3.37934E+05  2.51492E+05  8.33412E+04  3.37126E+05 -1.32832E+05  2.50621E+05
 -1.89709E+05  8.31752E+04 -1.11005E+05 -3.28550E+04  8.26118E+02 -5.01498E+04  5.44495E+04  7.51469E+02
  3.45349E+04  5.28798E+04 -1.68321E+04  7.49843E+04 -6.00088E+04  6.33163E+04 -8.35998E+04  3.20125E+04
 -7.90542E+04 -1.23593E+04 -5.57232E+04 -4.94763E+04 -1.48586E+04 -6.91182E+04  2.65465E+04 -4.49846E+04
  3.88763E+04  4.20745E+03  1.53448E+04  4.73479E+04 -3.46412E+04  4.63261E+04 -6.53186E+04  6.00758E+01
 -5.24580E+04 -5.56933E+04 -7.02877E+03 -7.59027E+04  3.38248E+04 -5.32529E+04  4.67201E+04 -1.62004E+04
  4.25800E+04  1.10046E+04  3.12732E+04  2.43557E+04  1.57768E+04  2.78103E+04 -5.42861E+03  2.65699E+04
 -2.19511E+04  1.33562E+04 -1.94074E+04 -4.87641E+03  6.06455E+03 -8.12321E+03  2.21878E+04  1.18255E+04
  7.66894E+03  3.32222E+04 -2.98704E+04  3.35149E+04 -6.18892E+04  1.85950E+03 -5.58845E+04 -4.22941E+04
 -1.18590E+04 -6.06297E+04  3.85380E+04 -4.54256E+04  5.54447E+04 -1.68813E+03  3.24036E+04  3.03872E+04
 -7.06263E+03  3.38278E+04 -2.79665E+04  1.53886E+04 -2.89671E+04 -5.79976E+03 -1.38579E+04 -9.10420E+03
 -7.96921E+03 -1.13976E+04 -2.92539E+02 -1.70500E+04  7.10692E+03 -2.36281E+04  1.51149E+04 -1.36846E+04
  1.16671E+04  4.67717E+03 -6.86098E+03  1.28945E+04 -1.98344E+04 -2.84951E+03 -8.43043E+03 -3.05801E+04
  2.17987E+04 -4.14304E+04  4.56339E+04 -1.92789E+04  4.24140E+04  1.83545E+04  1.41223E+04  4.14547E+04
 -1.56620E+04  3.04437E+04 -2.34428E+04  6.34854E+02 -8.68600E+03 -2.57224E+04  1.97572E+04 -3.09167E+04
  3.93742E+04 -8.13544E+03  3.22357E+04  2.24419E+04  1.53064E+04  4.32934E+04 -7.22956E+03  4.60200E+04
 -2.97067E+04  3.14695E+04 -3.88579E+04  9.22944E+03 -3.88113E+04 -1.59786E+04 -2.12539E+04 -3.56343E+04
  6.88393E+03 -3.51887E+04  2.93636E+04 -1.33365E+04  2.72966E+04  1.02372E+04  3.94544E+03  1.74156E+04
 -1.31200E+04  7.46898E+03 -9.70856E+03 -7.69187E+03  4.28614E+03 -1.04119E+04  1.71706E+04  5.13628E+03
  1.19926E+04  2.15318E+04 -6.93365E+03  2.28079E+04 -2.19217E+04  9.18829E+03 -2.62835E+04 -6.72551E+03
 -1.69975E+04 -1.67506E+04 -6.19588E+03 -1.69986E+04  4.07867E+03 -1.57493E+04  1.30214E+04 -1.45328E+04
  2.21455E+04 -1.24616E+04  2.90839E+04  9.19358E+02  2.15733E+04  1.70743E+04  4.77122E+03  3.31648E+04
 -1.71992E+04  2.85647E+04 -2.55243E+04  9.35020E+03 -1.99674E+04 -1.04377E+04 -3.20896E+03 -1.43168E+04
  2.26071E+03 -3.47193E+03 -3.34077E+03  5.36042E+03 -1.40052E+04  4.42160E+03 -1.26646E+04 -5.39647E+03
 -7.83702E+03 -1.59819E+04  5.36214E+03 -1.94722E+04  1.24136E+04 -1.36950E+04  1.54123E+04 -1.75150E+03
  9.14325E+03  1.04251E+04 -1.25881E+03  1.46251E+04 -1.01540E+04  9.09442E+03 -1.58388E+04 -3.85385E+03
 -1.15941E+04 -1.54658E+04 -1.51653E+03 -1.95250E+04  8.67893E+03 -1.45494E+04  1.62602E+04 -7.57691E+03
  1.54548E+04  5.77544E+02  1.12869E+04  3.68006E+03  6.14076E+03  3.57123E+02  8.22188E+03 -7.14342E+02
  1.35152E+04  2.06048E+03  1.52988E+04  1.27536E+04  9.89544E+03  2.44781E+04 -3.77735E+03  2.80536E+04
 -1.60961E+04  2.07092E+04 -2.47764E+04  1.02350E+04 -2.61365E+04 -2.23711E+03 -2.15763E+04 -1.37256E+04
 -1.02102E+04 -2.08362E+04  6.98455E+03 -2.00357E+04  1.69370E+04 -1.05214E+04  1.60400E+04  4.45320E+03
  6.87408E+03  1.14698E+04 -6.96014E+03  1.07526E+04 -1.40516E+04  3.06454E+03 -1.04685E+04 -7.95316E+03
  5.94848E+02 -1.25177E+04  6.49912E+03 -1.00485E+04  9.15605E+03 -1.01792E+03  2.38737E+03  5.12127E+03
 -5.63878E+03  1.76818E+03 -3.82419E+03 -4.58303E+03  3.24237E+02 -1.02072E+04  7.05707E+03 -1.04759E+04
  1.30705E+04 -3.74330E+03  1.46401E+04  3.06273E+03  9.52533E+03  9.52077E+03  4.04024E+03  1.40948E+04
 -1.85794E+03  1.61628E+04 -9.29355E+03  1.08453E+04 -1.17490E+04  2.24453E+03 -8.34468E+03 -1.68306E+03
 -4.22310E+03 -2.63355E+03 -8.88837E+02  6.28693E+02 -2.52095E+03  2.09363E+03 -3.89715E+03  3.89142E+03
 -8.03921E+03 -6.28770E+02 -8.90129E+03 -7.76263E+03 -3.63990E+03 -1.19345E+04  3.06009E+03 -8.47508E+03
  7.49907E+03 -4.43893E+03  5.07398E+03  1.76557E+03  7.86074E+02  4.31585E+03 -3.84046E+03 -4.66619E+02
 -2.13795E+03 -5.01878E+03 -1.55406E+03 -7.51285E+03  3.99671E+03 -7.21754E+03  9.65047E+03 -3.80015E+03
  1.13152E+04  7.54572E+02  9.19625E+03  6.66917E+03  2.04052E+03  9.16316E+03 -4.82618E+03  8.07188E+03
 -6.44025E+03  3.30746E+03 -2.95555E+03 -2.24878E+03  9.39302E+02 -1.47714E+03  5.46725E+03 -1.62752E+03
  4.36965E+03  3.72162E+03  5.65209E+02  7.35650E+03 -3.53027E+03  5.29884E+03 -7.66722E+03  2.85713E+03
 -4.81436E+03 -3.88307E+03 -4.39142E+02 -6.25428E+03  4.00602E+03 -3.77031E+03  3.35820E+03  8.61485E+02
  1.70729E+02  3.61273E+03 -4.76225E+03  5.18695E+03 -4.31704E+03  2.43925E+03 -4.49686E+03 -2.27092E+03
 -2.12551E+03 -5.85176E+03  1.62633E+03 -6.92797E+03  6.27353E+03 -4.10256E+03  6.24664E+03  3.56784E+02
  4.95486E+03  5.96257E+03  4.05344E+02  7.09307E+03 -5.16207E+03  4.68541E+03 -6.47606E+03 -7.14315E+02
 -5.55384E+03 -5.52061E+03 -9.84620E+02 -4.65005E+03  2.55130E+03 -4.15732E+03  2.64678E+03 -3.22028E+03
  2.68199E+03  6.09444E+02  2.94214E+02  1.84788E+03  6.36394E+02  4.77648E+02 -9.41533E+02 -2.74985E+03
  3.25350E+03 -1.20959E+03  5.29721E+03  6.18884E+02  5.03202E+03  2.31055E+03  4.62512E+03  7.27355E+03
 -1.31182E+03  7.36899E+03 -7.47268E+03  6.63145E+03 -1.02147E+04  1.05333E+03 -6.92624E+03 -3.12975E+03
 -3.55823E+03 -5.99845E+03 -7.62414E+02 -5.28137E+03  7.92897E+02 -2.40979E+03  2.20806E+03 -1.75779E+03
  1.22966E+03 -2.04289E+03  1.52252E+03 -2.16400E+03  3.05326E+03 -4.82996E+02  3.33657E+03  9.99521E+02
  4.66636E+03  1.84120E+03  1.64018E+03  3.82013E+03 -2.04257E+03  2.14938E+03 -4.46496E+03  2.17971E+03
 -4.66579E+03 -1.13085E+03 -1.94672E+03 -3.39511E+03 -4.04247E+01 -3.35124E+03  2.64842E+03 -6.07656E+03
  4.95160E+03 -4.26148E+03  6.24778E+03  2.60226E+02  5.39972E+03  3.37354E+03  9.19816E+02  5.29399E+03
 -2.17347E+03  5.96551E+03 -3.96801E+03  2.27998E+03 -3.17272E+03 -1.96161E+03 -5.58894E+02 -1.60317E+03
  5.88510E+02  3.28207E+02 -2.41235E+02  1.04733E+03 -1.50732E+03  1.18414E+03 -4.31611E+03  6.45024E+02
 -1.77891E+03 -4.08150E+03  2.24592E+03 -4.83982E+03  2.76585E+03 -4.57843E+03  2.91803E+03 -6.52949E+02
  3.46191E+03  3.08710E+03  2.10526E+03  3.34215E+03 -2.96256E+02  4.73671E+03 -2.10957E+03  3.54347E+03
 -3.41832E+03  9.95309E+02 -3.16259E+03 -3.05409E+03  1.28192E+03 -3.53909E+03  1.56748E+03 -1.27133E+03
  2.40574E+03 -1.19695E+03  1.61773E+03  3.71621E+01  3.41094E+02  1.52131E+03  1.43386E+03  2.41649E+02
  2.04670E+03  1.44665E+02  2.12119E+03  7.91154E+02  6.95381E+02  2.30020E+03  2.08232E+03  1.14705E+03
 -4.57153E+02  2.25118E+03 -2.63462E+03  4.07781E+03 -2.85108E+03  9.12128E+02 -4.09976E+03 -1.10853E+03
 -2.60475E+03 -3.74884E+03  5.20121E+02 -4.70530E+03  5.38305E+02 -2.34278E+03  3.21454E+03 -1.19080E+03
  2.52950E+03  2.34407E+03  9.37161E+02  1.39463E+03 -5.66895E+00  1.18855E+03 -1.87963E+03  1.64746E+02
 -2.29580E+03 -7.32932E+02 -5.03960E+00 -1.48770E+03  3.87848E+01 -5.90733E+02  1.68301E+03  3.18242E+02
  7.07965E+02  2.26180E+00  9.42069E+02 -9.58325E+02  2.67289E+02  3.84699E+02  5.50575E+02 -3.95423E+02
  8.25903E+02 -1.53525E+02  1.88117E+03 -5.06263E+02 -2.69321E+01  1.67975E+03 -4.61264E+02  3.40315E+03
 -7.42133E+02  3.09162E+02 -2.19129E+03 -3.26547E+00 -1.53276E+03 -1.61096E+02 -8.91812E+01 -1.36955E+03
  3.59252E+02 -1.15355E+03  7.35038E+02 -9.18619E+02  8.52304E+02  1.01308E+03  2.78048E+02  1.11490E+03
 -1.93967E+03  7.39260E+02 -8.15535E+02 -2.06533E+03 -1.65304E+02 -2.45007E+03  9.30165E+02 -5.12235E+02
  7.12288E+02 -9.85084E+02 -3.27371E+02  1.22299E+02  5.62210E+02  3.59866E+01  1.21658E+03  1.48501E+03
 -4.17206E+02  4.93324E+02 -1.30351E+02 -1.60823E+03  1.11428E+03 -1.24118E+03  1.36059E+03 -1.05015E+03
  8.72144E+02  1.66748E+03  2.62574E+03  5.17589E+02  1.65979E+03  3.13981E+02  1.63151E+03  1.51633E+03
 -1.62137E+03  2.72532E+02 -1.29627E+03 -7.93876E+02 -1.67232E+03 -2.00742E+03  4.79670E+02  1.58425E+02
  1.45899E+03 -4.27956E+02  1.05140E+02  5.04350E+02 -4.05604E+02  1.09701E+03  3.60715E+02  6.98998E+02
  1.00689E+03  2.08977E+03 -3.60125E+01  6.26707E+02 -9.47291E+01  4.21790E+02 -8.60992E+02  1.42751E+03
 -1.12303E+03  1.16194E+03 -2.19028E+03  9.02681E+02 -1.46702E+03 -5.11183E+02 -1.70724E+03  6.00325E+01
 -1.28095E+03 -1.14776E+03  1.25178E+03 -2.79674E+03  4.97903E+02 -2.73653E+03  2.22400E+03 -1.25838E+03
  2.21071E+03 -7.31157E+02  8.96757E+02  1.30233E+03 -1.38815E+02  6.24164E+02 -8.86251E+02  2.74417E+02
  8.11513E+01  1.06545E+03 -3.89439E+02 -1.28333E+03 -8.67171E+02  9.11127E+01 -2.47705E+02 -1.12100E+02
 -9.37756E+02 -9.12817E+02 -1.10746E+03 -6.28229E+02  7.33879E+02 -3.12805E+02 -3.27355E+01 -6.02019E+02
  1.23728E+03 -7.74912E+02  4.98468E+02 -9.07827E+02  1.01796E+03  1.24245E+03 -1.05523E+03  2.67876E+02
 -1.41582E+03  1.51420E+03 -1.07491E+03  1.13510E+03 -1.62342E+03  3.43082E+02 -2.80782E+02 -1.05470E+03
  3.82771E+01 -1.58915E+03  4.29682E+02 -8.90137E+02  1.33188E+02 -1.29274E+03  1.40684E+03 -3.41364E+02
  4.07291E+02 -6.79404E+02 -1.74760E+03  2.88209E+02 -5.56435E+02  8.99358E+02  5.84122E+02 -8.15832E+02
 -9.21457E+00  6.67703E+02 -8.01781E+02  2.23985E+02 -8.62752E+00  3.52121E+02  9.29063E+02 -1.02464E+03
  5.31500E+02  4.73434E+02 -1.68483E+02  5.01324E+02 -1.53871E+02 -5.64257E+02  1.20852E+03 -1.42863E+03
  8.34778E+02  2.73947E+02  7.10875E+02 -2.15776E+02  3.53703E+02 -5.45535E+02  1.06452E+03  7.04295E+02
 -5.55360E+02  8.24080E+01 -3.07883E+02  1.74390E+03 -1.23208E+03  3.73279E+02 -5.90141E+02 -2.38966E+02
 -2.42629E+02  4.09966E+02 -1.43543E+03 -1.43620E+02 -2.28796E+02  4.24093E+02 -4.94601E+02 -5.92756E+02
 -4.53900E+02  7.04656E+02  9.87833E+02 -2.13099E+02  5.80219E+02 -1.60580E+03  1.23965E+03 -5.83513E+02
  6.73288E+02  7.58761E+01 -7.18042E+02 -7.55178E+02 -1.96302E+02  4.52130E+02 -5.20114E+02  2.02933E+02
