 $NMID ID='MM_0lb_SNR200_7hz_g50_79.RAW', FMTDAT='(8E13.5)'
 TRAMP=1., VOLUME=1. $END
  3.09578E+05  1.21086E+03  3.37928E+05  2.50762E+05  8.38958E+04  3.39554E+05 -1.32566E+05  2.52629E+05
 -1.91008E+05  8.40441E+04 -1.11609E+05 -3.12102E+04  4.38141E+02 -4.96939E+04  5.49048E+04  1.89462E+02
  3.46366E+04  5.26435E+04 -1.60758E+04  7.46880E+04 -6.09052E+04  6.35303E+04 -8.39392E+04  3.36182E+04
 -8.43087E+04 -1.17658E+04 -5.81835E+04 -5.28104E+04 -1.59396E+04 -7.26009E+04  2.77021E+04 -4.70653E+04
  4.10869E+04  5.92011E+03  1.74888E+04  5.12029E+04 -3.50262E+04  4.73750E+04 -6.58452E+04 -9.39162E+02
 -5.54004E+04 -5.71745E+04 -6.94434E+03 -7.84422E+04  3.57362E+04 -5.96092E+04  4.95349E+04 -1.98861E+04
  4.48454E+04  1.11102E+04  3.19031E+04  2.59611E+04  1.79434E+04  3.50618E+04 -6.30358E+03  2.73632E+04
 -2.28802E+04  1.17720E+04 -1.76224E+04 -7.61908E+03  7.52932E+03 -8.64915E+03  2.39374E+04  1.45033E+04
  6.63770E+03  3.79423E+04 -3.49513E+04  3.63376E+04 -6.69328E+04  3.43035E+03 -5.99068E+04 -4.49369E+04
 -1.20291E+04 -6.76285E+04  4.22180E+04 -4.88709E+04  6.21769E+04 -1.42662E+03  3.72997E+04  3.38147E+04
 -5.95820E+03  4.07457E+04 -3.21322E+04  1.96299E+04 -3.43353E+04 -2.80951E+03 -1.88820E+04 -1.11655E+04
 -1.05086E+04 -1.48528E+04 -1.18492E+03 -2.04532E+04  9.05414E+03 -2.37933E+04  1.66706E+04 -1.05619E+04
  1.11711E+04  6.03132E+03 -1.01167E+04  1.31283E+04 -2.53398E+04 -7.11882E+03 -9.09075E+03 -3.86940E+04
  2.48016E+04 -4.81209E+04  5.32915E+04 -2.05631E+04  4.95027E+04  2.06686E+04  1.56086E+04  4.77928E+04
 -1.60263E+04  3.70807E+04 -2.89576E+04  2.65360E+03 -1.18174E+04 -2.90390E+04  2.21138E+04 -4.02429E+04
  4.41563E+04 -1.10502E+04  4.34351E+04  2.68138E+04  2.20205E+04  5.17514E+04 -9.31139E+03  5.88039E+04
 -3.83673E+04  4.09444E+04 -4.92008E+04  1.23265E+04 -4.88505E+04 -1.95537E+04 -2.69134E+04 -4.25561E+04
  7.13713E+03 -4.19607E+04  3.30712E+04 -1.79102E+04  3.35655E+04  1.26271E+04  5.05012E+03  2.15547E+04
 -1.38488E+04  9.25343E+03 -1.27946E+04 -8.44739E+03  5.66294E+03 -1.19771E+04  1.86064E+04  4.58141E+03
  1.50916E+04  2.28828E+04 -3.41783E+03  2.72550E+04 -2.27804E+04  1.43245E+04 -3.24028E+04 -9.94083E+02
 -2.84583E+04 -1.88343E+04 -1.34170E+04 -2.58388E+04  4.66660E+03 -2.87089E+04  2.20540E+04 -2.57262E+04
  3.40198E+04 -1.50826E+04  4.09639E+04  5.07588E+03  2.76280E+04  2.57009E+04  6.85525E+03  4.40427E+04
 -2.04833E+04  3.50622E+04 -3.29185E+04  1.36087E+04 -2.17852E+04 -1.03717E+04 -4.67594E+03 -1.34238E+04
  2.05550E+03 -4.26133E+02 -6.97211E+03  9.15334E+03 -2.40126E+04  4.07059E+03 -2.21435E+04 -1.12661E+04
 -1.28208E+04 -2.64065E+04  5.47590E+03 -3.08426E+04  1.98675E+04 -2.18712E+04  2.37685E+04 -1.38502E+03
  1.49277E+04  1.74203E+04 -6.15579E+02  2.56260E+04 -1.76706E+04  1.58754E+04 -2.66876E+04 -4.59824E+03
 -2.01431E+04 -2.50289E+04 -9.53137E+02 -2.90463E+04  1.14354E+04 -2.39304E+04  2.50427E+04 -1.36042E+04
  2.49270E+04  5.72377E+02  1.75432E+04  6.26600E+03  9.17181E+03  1.98885E+03  1.50581E+04 -3.49773E+03
  2.40571E+04  2.12485E+03  2.97913E+04  1.81354E+04  1.71629E+04  4.08513E+04 -2.92960E+03  4.72526E+04
 -2.69716E+04  4.04893E+04 -4.59596E+04  1.91628E+04 -4.96008E+04 -4.49745E+03 -4.15741E+04 -2.96860E+04
 -1.44140E+04 -3.90821E+04  1.64543E+04 -3.80636E+04  2.98993E+04 -1.58048E+04  2.59091E+04  8.50570E+03
  8.37668E+03  2.05957E+04 -1.31400E+04  1.89148E+04 -2.04113E+04  1.90724E+03 -1.46744E+04 -1.24777E+04
 -1.03865E+03 -2.08502E+04  1.35397E+04 -1.55252E+04  1.44249E+04 -5.49740E+00  4.08640E+03  9.03841E+03
 -1.11744E+04  5.25279E+03 -1.09532E+04 -8.72008E+03 -1.28784E+03 -1.95423E+04  1.17971E+04 -2.25342E+04
  2.65518E+04 -1.37636E+04  3.17902E+04  4.90883E+03  2.70160E+04  2.00812E+04  1.02605E+04  3.51912E+04
 -7.09808E+03  3.54865E+04 -2.53015E+04  2.20659E+04 -2.62717E+04  4.73926E+03 -1.67265E+04 -7.66301E+03
 -7.34987E+03 -9.79654E+03 -1.69201E+03  6.31675E+02 -3.70980E+03  3.15132E+03 -9.04000E+03  6.07141E+03
 -1.55689E+04 -1.78347E+03 -1.76493E+04 -1.27797E+04 -8.17343E+03 -2.38972E+04  9.32249E+03 -1.75627E+04
  1.60821E+04 -7.37806E+03  9.55299E+03  4.09670E+03  1.11968E+02  6.80930E+03 -8.67585E+03  1.18910E+01
 -1.10537E+04 -1.11651E+04 -3.09630E+02 -1.64514E+04  9.35828E+03 -1.79876E+04  2.18662E+04 -1.05009E+04
  2.71902E+04  3.96551E+03  1.94320E+04  1.50555E+04  3.63766E+03  2.22348E+04 -9.81436E+03  1.80533E+04
 -1.40095E+04  3.86956E+03 -6.96453E+03 -9.53950E+02  2.87465E+03 -4.78034E+03  6.96503E+03 -3.70585E+02
  8.17563E+03  6.09767E+03  1.50413E+03  1.43892E+04 -9.01597E+03  1.37886E+04 -1.77553E+04  2.52663E+03
 -1.26285E+04 -9.92998E+03 -8.47001E+02 -1.49298E+04  1.08997E+04 -8.52946E+03  1.13298E+04  4.10957E+03
  3.07386E+03  1.31315E+04 -9.91730E+03  1.44464E+04 -1.64703E+04  4.33632E+03 -1.77377E+04 -6.81110E+03
 -1.00467E+04 -1.96118E+04  4.21863E+03 -2.24705E+04  1.80255E+04 -1.18794E+04  1.86336E+04  4.90706E+03
  1.00932E+04  1.55132E+04 -2.28890E+03  1.78740E+04 -1.49057E+04  8.99161E+03 -1.55244E+04 -7.23056E+02
 -1.24990E+04 -1.08041E+04 -2.11971E+03 -1.47249E+04  7.67881E+03 -1.17604E+04  1.01906E+04 -4.47394E+03
  6.61901E+03  4.41675E+03 -1.07066E+03  2.48591E+03 -1.54729E+03 -3.04741E+03  4.74011E+03 -9.48874E+03
  1.54574E+04 -7.81383E+03  2.11387E+04  7.53806E+02  1.84357E+04  1.42914E+04  1.31659E+04  2.59990E+04
 -6.75460E+03  3.01049E+04 -2.54512E+04  2.14107E+04 -3.16827E+04  4.71352E+03 -2.47466E+04 -9.35592E+03
 -1.18069E+04 -2.02421E+04 -1.82476E+02 -1.84855E+04  6.93117E+03 -9.63168E+03  7.71484E+03 -4.97306E+03
  4.02021E+03 -3.22022E+03  4.83049E+03 -3.21151E+03  7.11403E+03 -5.42913E+03  1.02302E+04 -1.25262E+03
  1.04774E+04  3.15784E+03  7.20122E+03  1.17754E+04 -1.92537E+03  1.68102E+04 -1.35869E+04  1.04855E+04
 -1.76121E+04 -1.68991E+03 -1.27787E+04 -1.38255E+04 -2.00927E+03 -2.02599E+04  1.17265E+04 -2.02111E+04
  2.11012E+04 -1.10697E+04  2.54489E+04  4.17850E+03  1.73425E+04  1.77659E+04  2.58918E+03  2.36570E+04
 -1.05398E+04  1.69243E+04 -1.39505E+04  5.34506E+03 -9.05687E+03 -2.10056E+03 -5.96609E+03 -2.86406E+03
 -3.00804E+03 -5.51604E+02 -2.34176E+03  2.51825E+03 -7.64833E+03  4.58350E+03 -1.03624E+04 -3.79898E+03
 -1.07741E+04 -1.31572E+04  7.75473E+02 -1.74009E+04  1.25564E+04 -1.63302E+04  1.86185E+04 -6.49744E+03
  1.76453E+04  9.93973E+03  8.69880E+03  1.71586E+04 -5.38927E+03  1.83236E+04 -1.32728E+04  1.34499E+04
 -1.83015E+04 -1.50549E+02 -1.31483E+04 -1.05814E+04 -1.95259E+03 -1.58455E+04  7.37692E+03 -1.09648E+04
  1.19845E+04 -1.93198E+03  7.63279E+03  2.66792E+03  4.33433E+03  6.23259E+03  1.34553E+03  1.12631E+03
  3.17479E+03  3.25243E+03  4.68971E+03  2.51322E+03  6.01846E+03  6.92003E+03  3.46018E+03  1.05457E+04
 -2.56057E+03  1.35229E+04 -1.50598E+04  1.45536E+04 -1.90706E+04  2.74428E+03 -2.03372E+04 -9.81650E+03
 -8.44756E+03 -1.68974E+04  1.43998E+03 -2.02114E+04  1.18881E+04 -1.35260E+04  1.48159E+04 -2.08863E+03
  1.21471E+04  7.95076E+03  3.80563E+03  1.08107E+04 -4.73133E+03  7.70887E+03 -8.51242E+03 -7.51828E+02
 -5.13023E+03 -8.73773E+03  3.80616E+03 -9.94861E+03  7.95676E+03 -3.89298E+03  5.33156E+03  2.25068E+03
  3.81658E+03  5.72014E+03  2.30191E+03  3.43534E+03 -7.93742E+02  2.08926E+03  3.03079E+03 -1.77982E+03
  3.30775E+03 -2.96883E+03  6.72949E+03  3.18016E+03  5.08372E+03  1.07083E+04  1.09147E+02  1.27701E+04
 -1.01167E+04  1.00396E+04 -1.27396E+04  1.77071E+03 -1.30846E+04 -3.86041E+03 -4.55975E+03 -7.70312E+03
  7.60068E+02 -8.30266E+03  5.59069E+03 -3.89459E+03  5.00016E+03  1.83080E+03 -2.05395E+03  5.74889E+03
 -8.36865E+03  4.82457E+03 -9.82021E+03 -4.91533E+03 -7.23709E+03 -1.23295E+04  2.48975E+03 -1.30715E+04
  7.40260E+03 -7.79605E+03  7.65882E+03  5.75675E+02  7.42566E+03  2.11991E+03  1.07467E+02  7.16342E+03
 -4.65668E+03  2.52880E+03 -3.98891E+03 -5.62915E+03  2.04629E+03 -9.10168E+03  1.14904E+04 -7.20167E+03
  1.44934E+04  2.23502E+02  1.21659E+04  8.80884E+03  5.29309E+03  1.23240E+04 -3.88806E+03  1.26030E+04
 -1.08360E+04  6.19319E+03 -1.27244E+04 -2.47449E+03 -6.72368E+03 -8.41651E+03  4.19775E+03 -8.37374E+03
  8.77090E+03 -3.89732E+03  7.44972E+03  3.79120E+03  3.04763E+03  8.28691E+03 -7.38559E+02  7.33357E+03
 -2.02086E+03  1.27915E+03 -5.83225E+03  7.65812E+02 -3.04427E+03  7.83238E+02 -4.44395E+03  2.46547E+03
 -3.22496E+03  5.69967E+03 -1.03851E+04  4.84277E+03 -1.45874E+04  2.29406E+02 -1.46462E+04 -9.62339E+03
 -9.25851E+03 -1.76964E+04  3.63564E+03 -1.95995E+04  1.31085E+04 -1.66394E+04  2.02520E+04 -4.94723E+03
  2.02470E+04  4.17039E+03  1.19645E+04  1.60357E+04  1.90732E+03  1.54705E+04 -4.60682E+03  9.56382E+03
 -8.51347E+03  3.99441E+03 -5.37679E+03 -2.19090E+03 -8.29074E+02 -2.56339E+03 -2.75106E+03  4.26065E+02
 -3.41237E+03 -1.09072E+03 -1.95540E+03  2.51944E+02 -6.34536E+02 -3.73135E+03 -5.61962E+01 -5.41069E+03
  7.37915E+03 -4.86615E+03  8.50403E+03 -1.12753E+03  1.04099E+04  6.87617E+03  3.87018E+03  1.39747E+04
 -6.68641E+03  1.61890E+04 -1.61031E+04  1.02500E+04 -1.80662E+04  3.25682E+02 -1.55783E+04 -1.08454E+04
 -5.25241E+03 -1.48285E+04  6.31440E+03 -1.39803E+04  1.01211E+04 -6.74551E+03  1.09155E+04  1.84607E+03
  6.26204E+03  6.31709E+03 -1.76807E+02  2.93143E+03 -2.05742E+03  4.04195E+01 -6.46957E+02 -3.25075E+03
  5.58020E+03 -3.26086E+03  6.55411E+03  1.73776E+03  3.87939E+03  6.96722E+03 -1.06768E+03  8.90381E+03
 -8.54826E+03  7.60430E+03 -1.09030E+04  1.76420E+02 -9.17929E+03 -9.45468E+03 -3.60621E+02 -1.03813E+04
  6.87791E+03 -1.21222E+04  1.06750E+04 -3.31145E+03  1.14687E+04  4.73458E+03  5.93319E+03  1.08600E+04
  8.79153E+02  9.41231E+03 -3.33785E+03  8.84914E+03 -6.90664E+03  5.37994E+03 -5.46432E+03 -5.88413E+02
 -3.53196E+03 -1.28830E+03 -3.64088E+03  2.66360E+03 -5.97991E+03  3.23211E+03 -8.41067E+03 -1.55284E+03
 -6.00301E+03 -4.33538E+03 -1.53224E+03 -1.12882E+04  5.87735E+03 -1.14868E+04  9.90555E+03 -4.90652E+03
  1.32592E+04  2.11863E+03  5.05959E+03  7.72689E+03 -5.98908E+02  1.02530E+04 -6.93894E+03  9.88576E+03
