 $NMID ID='MM_0lb_SNR200_19hz_g55_40.RAW', FMTDAT='(8E13.5)'
 TRAMP=1., VOLUME=1. $END
  3.09521E+05  1.97125E+02  3.38289E+05  2.50397E+05  8.36277E+04  3.37380E+05 -1.34142E+05  2.49945E+05
 -1.89941E+05  8.34005E+04 -1.12075E+05 -3.22291E+04  1.84139E+03 -5.05586E+04  5.48983E+04  4.29078E+02
  3.49749E+04  5.35020E+04 -1.68643E+04  7.48112E+04 -6.05823E+04  6.30562E+04 -8.28145E+04  3.22117E+04
 -8.02450E+04 -1.13900E+04 -5.70243E+04 -5.04042E+04 -1.48622E+04 -6.90457E+04  2.69671E+04 -4.60845E+04
  4.01931E+04  3.24923E+03  1.64810E+04  4.61995E+04 -3.33025E+04  4.69422E+04 -6.65223E+04 -7.89688E+01
 -5.19138E+04 -5.62501E+04 -5.72099E+03 -7.55146E+04  3.30038E+04 -5.24802E+04  4.68298E+04 -1.59576E+04
  4.22267E+04  1.23196E+04  3.17968E+04  2.46731E+04  1.56556E+04  2.90624E+04 -5.00353E+03  2.68686E+04
 -2.17682E+04  1.22075E+04 -1.83118E+04 -5.31456E+03  4.98028E+03 -7.60178E+03  2.15297E+04  1.22739E+04
  7.84649E+03  3.24901E+04 -3.07519E+04  3.34684E+04 -6.22380E+04  1.82735E+03 -5.52681E+04 -4.15762E+04
 -1.24058E+04 -6.23343E+04  3.86384E+04 -4.33921E+04  5.59257E+04 -2.64357E+03  3.25696E+04  3.02820E+04
 -6.71706E+03  3.39782E+04 -2.81086E+04  1.32471E+04 -2.79143E+04 -5.34666E+03 -1.55074E+04 -9.85638E+03
 -7.20685E+03 -1.12793E+04 -1.38143E+03 -1.63549E+04  6.59612E+03 -2.28231E+04  1.48602E+04 -1.28712E+04
  1.28226E+04  4.23443E+03 -6.13866E+03  1.39391E+04 -1.93997E+04 -2.43354E+03 -8.24271E+03 -3.14193E+04
  2.10909E+04 -4.15295E+04  4.56787E+04 -1.85589E+04  4.23936E+04  1.88133E+04  1.46914E+04  4.31798E+04
 -1.39844E+04  3.22506E+04 -2.34356E+04  1.64563E+03 -7.26740E+03 -2.71694E+04  2.06735E+04 -3.32805E+04
  3.99162E+04 -7.10237E+03  3.24116E+04  2.28427E+04  1.59482E+04  4.28349E+04 -7.58424E+03  4.56604E+04
 -2.91930E+04  3.06499E+04 -3.80233E+04  8.21473E+03 -3.90437E+04 -1.62724E+04 -2.09750E+04 -3.54540E+04
  7.98356E+03 -3.42334E+04  2.95914E+04 -1.31357E+04  2.74141E+04  1.09950E+04  3.12689E+03  1.80543E+04
 -1.29492E+04  7.34448E+03 -1.00418E+04 -7.87192E+03  7.07818E+03 -1.00123E+04  1.78730E+04  6.91893E+03
  1.29127E+04  2.17181E+04 -7.07769E+03  2.35706E+04 -2.07249E+04  1.00678E+04 -2.46517E+04 -5.54890E+03
 -1.71542E+04 -1.71311E+04 -5.97100E+03 -1.72250E+04  3.76486E+03 -1.55019E+04  1.32718E+04 -1.49617E+04
  2.24632E+04 -1.16718E+04  2.83573E+04  1.30395E+03  2.25760E+04  1.79695E+04  3.57480E+03  3.32216E+04
 -1.61211E+04  2.78553E+04 -2.61742E+04  1.04682E+04 -1.94824E+04 -1.00278E+04 -3.87322E+03 -1.25951E+04
  1.53769E+03 -4.49412E+03 -3.63340E+03  4.49568E+03 -1.44655E+04  5.83887E+03 -1.40769E+04 -4.51088E+03
 -9.12516E+03 -1.60647E+04  4.59164E+03 -1.99554E+04  1.29822E+04 -1.34718E+04  1.48298E+04 -1.78220E+03
  9.74501E+03  1.13198E+04 -6.68499E+02  1.65548E+04 -1.11734E+04  9.09035E+03 -1.53507E+04 -3.75886E+03
 -1.16044E+04 -1.50583E+04 -9.49981E+02 -1.94063E+04  7.53553E+03 -1.59089E+04  1.73462E+04 -7.89545E+03
  1.42959E+04  1.23031E+03  1.02198E+04  3.15225E+03  5.43029E+03  7.61595E+02  8.34352E+03 -8.95662E+02
  1.42248E+04  2.57502E+03  1.51492E+04  1.31100E+04  9.44677E+03  2.60704E+04 -2.90150E+03  2.65815E+04
 -1.60881E+04  2.15447E+04 -2.49098E+04  1.09169E+04 -2.58496E+04 -1.86611E+03 -2.18589E+04 -1.48488E+04
 -1.07513E+04 -2.11212E+04  6.89844E+03 -1.96197E+04  1.71415E+04 -1.16235E+04  1.60623E+04  4.64236E+03
  6.10560E+03  1.26460E+04 -7.00630E+03  9.68008E+03 -1.37295E+04  2.08844E+03 -9.96454E+03 -7.78512E+03
  2.92948E+02 -1.17039E+04  6.54259E+03 -9.46800E+03  7.47059E+03 -6.96021E+02  1.24110E+03  6.01741E+03
 -7.01023E+03  1.03681E+03 -3.98298E+03 -4.31861E+03  3.42516E+01 -1.00668E+04  8.08545E+03 -9.74781E+03
  1.31280E+04 -5.43195E+03  1.34048E+04  2.67426E+03  1.02651E+04  9.90749E+03  5.04798E+03  1.37463E+04
 -1.65176E+03  1.66347E+04 -1.02686E+04  1.06392E+04 -1.07567E+04  3.30394E+03 -9.41156E+03 -3.69867E+03
 -4.22300E+03 -4.16462E+03 -5.32587E+01  1.50697E+03 -1.86436E+03  1.57105E+03 -3.39990E+03  3.54338E+03
 -7.49262E+03  2.22003E+01 -9.65201E+03 -7.36007E+03 -4.04706E+03 -1.29823E+04  3.97757E+03 -8.58645E+03
  7.75592E+03 -4.16800E+03  5.13471E+03  2.69530E+03 -1.29769E+02  3.05323E+03 -3.36354E+03 -6.99304E+02
 -3.65722E+03 -5.81415E+03 -1.97170E+03 -6.60014E+03  3.91980E+03 -7.27370E+03  9.76129E+03 -4.18475E+03
  1.32726E+04  5.18299E+02  9.54164E+03  6.69561E+03  1.39250E+03  8.40839E+03 -5.53382E+03  9.96204E+03
 -6.90078E+03  2.10888E+03 -3.36811E+03 -6.81387E+02  7.95421E+02 -2.49457E+03  5.94688E+03  4.67193E+01
  4.13062E+03  2.66602E+03  1.81431E+03  6.09954E+03 -4.48077E+03  5.85522E+03 -6.63595E+03  7.15326E+02
 -5.30864E+03 -4.15584E+03  1.13888E+03 -6.01192E+03  3.49276E+03 -2.87353E+03  4.23344E+03  2.14303E+03
  8.74338E+02  2.88501E+03 -2.61127E+03  4.18473E+03 -5.65280E+03  3.31093E+03 -3.81195E+03 -6.18727E+02
 -2.60979E+03 -5.66548E+03  1.25996E+03 -7.26010E+03  5.46690E+03 -3.43049E+03  6.06003E+03  1.32031E+03
  4.98369E+03  5.12926E+03  3.19544E+02  6.73407E+03 -6.00960E+03  4.04217E+03 -5.91391E+03 -1.80273E+02
 -5.62224E+03 -4.73774E+03 -1.52107E+03 -6.27726E+03  2.85782E+03 -5.10800E+03  3.48016E+03 -3.41605E+03
  2.65866E+03  6.57273E+02 -2.02607E+01  1.65944E+03  4.03044E+02 -1.22627E+03  2.30374E+02 -4.69600E+02
  3.96256E+03  5.64978E+02  5.38736E+03  5.34473E+02  6.10236E+03  2.96366E+03  5.41667E+03  6.64546E+03
 -1.39614E+03  7.39795E+03 -7.75904E+03  6.25032E+03 -9.42742E+03  1.55396E+03 -6.48328E+03 -2.60663E+03
 -4.07530E+03 -4.87188E+03 -1.35079E+03 -5.14540E+03  1.83037E+03 -2.11406E+03  1.03571E+03 -1.74206E+03
  7.33796E+02  1.83755E+00  1.40240E+03 -1.46539E+03  2.34812E+03 -6.58996E+02  4.10931E+03  3.07848E+02
  4.11884E+03 -3.03083E+02  1.43421E+03  3.32569E+03 -2.46220E+03  2.64195E+03 -4.79180E+03  2.81751E+03
 -4.20989E+03 -1.58609E+03 -1.04575E+03 -3.51389E+03  8.00459E+02 -4.85208E+03  2.71690E+03 -4.93682E+03
  5.96692E+03 -4.28761E+03  6.30116E+03  2.57600E+02  4.36325E+03  4.23447E+03  2.28641E+03  5.31179E+03
 -1.91855E+03  5.22030E+03 -3.16201E+03  2.65749E+03 -1.38493E+03  4.31082E+02 -1.09308E+03 -8.50501E+02
  3.41675E+02  1.00190E+03 -1.41066E+03  2.69886E+03 -1.58764E+03  1.35877E+03 -3.97602E+03 -2.81518E+01
 -1.58226E+03 -4.11884E+03  4.13313E+02 -3.46433E+03  3.19892E+03 -3.91157E+03  3.11664E+03 -3.92653E+02
  4.26803E+03  2.75808E+03  1.73092E+03  3.65547E+03 -7.62774E+02  3.69850E+03 -1.95443E+03  3.31281E+03
 -4.02005E+03  8.97123E+02 -3.15285E+03 -2.11541E+03 -5.10871E+02 -3.10102E+03  2.13706E+03 -2.36561E+03
  1.80684E+03 -3.48637E+02  1.51758E+03 -1.25824E+02  9.58428E+02  1.04574E+03  1.21532E+03  1.51506E+03
  1.58802E+03  1.29446E+03  9.76736E+02  6.62978E+02  3.18057E+02  1.58923E+03  1.03844E+03  2.72038E+03
 -1.49683E+03  3.09218E+03 -2.94170E+03  4.36736E+03 -3.37297E+03  2.14845E+03 -3.57118E+03  1.01422E+02
 -1.75083E+02 -3.49584E+03  1.66139E+03 -4.10778E+03  8.67808E+02 -2.55806E+03  3.35628E+03  5.91540E+02
  2.25141E+03  1.72436E+03 -1.65330E+02  1.77624E+03 -1.50673E+03  3.91644E+02 -3.31462E+02 -6.73470E+02
 -9.26557E+02 -1.43884E+03  1.88243E+03 -1.19560E+03  9.71164E+02 -1.25952E+03  1.07145E+03  7.96021E+02
  1.06228E+03  7.46332E+01  7.17928E+02 -7.65890E+02 -5.62635E+02  3.71177E+02  1.80681E+03  3.90348E+02
  4.21512E+02  4.64560E+01  1.70219E+03 -6.09888E+02  1.58932E+03  2.72869E+03 -1.11216E+03  2.80755E+03
 -2.20516E+03  1.85715E+03 -2.11858E+03  2.40705E+01 -5.72172E+02 -2.79676E+02 -2.70385E+02 -1.91665E+03
  9.00264E+02 -2.92356E+01  8.92394E+02 -4.08848E+02  8.63708E+02  8.91635E+02 -1.46322E+03  5.06560E+02
 -8.98187E+02  1.22873E+03 -9.54286E+02 -1.60828E+03 -1.21524E+02 -2.79912E+03 -2.80431E+02 -1.76998E+03
 -7.40076E+01 -1.59939E+02  8.88637E+02  1.13343E+03  8.87870E+02 -1.17068E+03  8.03748E+02  1.94430E+03
 -3.78601E+02 -2.17041E+02  1.10740E+01  2.51775E+02  1.06035E+03 -8.82045E+02  9.34540E+02 -1.51432E+02
  3.35194E+02 -1.63730E+02  2.19603E+03  1.32961E+02  2.29091E+03  2.58108E+03 -8.23993E+02  1.04274E+03
 -1.64881E+03  1.01892E+03 -1.58249E+03 -1.60037E+02  2.41876E+01 -1.37549E+02  3.32077E+02 -1.18531E+03
  1.28531E+03 -2.39186E+02  1.28599E+03  1.40836E+03  7.00002E+02  3.99968E+02 -6.77567E+02  1.33476E+03
  2.96795E+00  8.30735E+02 -2.85604E+02 -2.20740E+02 -3.55577E+02  6.36806E+02 -8.55995E+02  8.64517E+02
  3.60910E+02  5.95410E+02 -2.33963E+03 -3.01516E+01 -1.99932E+03 -3.94969E+02 -2.13078E+03 -4.49720E+02
 -1.09229E+03 -1.73802E+03  7.66041E+00 -1.74235E+03  4.60000E+02 -2.33120E+03  1.98305E+03 -8.21406E+02
  1.79174E+03 -2.78141E+02  1.60100E+03  1.25994E+03 -6.05048E+02  1.79640E+03 -6.98887E+02  1.61349E+03
 -8.32729E+02  1.36069E+03 -7.80810E+01  6.00282E+02 -1.83723E+03  2.36550E+02 -6.70920E+02  3.32554E+02
 -1.02750E+03 -4.72993E+02 -1.04059E+03  3.34991E+02  4.55906E+02 -8.27475E+02  3.43155E+02 -1.14632E+03
  1.69026E+03 -4.16238E+02  1.16068E+03  1.38549E+03  1.20144E+03  1.31226E+02 -2.31731E+02  8.58927E+02
 -1.09025E+03  2.65539E+03 -1.77472E+03  1.25451E+03 -1.75400E+03 -3.84846E+02 -4.94730E+01 -1.17853E+03
 -1.00983E+02 -1.12974E+03 -8.82294E+02 -4.66102E+02  7.68852E+02  9.49702E+01 -3.90705E+02  1.20783E+03
  5.23579E+02  4.83266E+02 -7.93897E+02  9.39876E+02  2.57366E+02  1.08283E+02 -2.16925E+02 -4.43252E+02
 -8.61032E+01  8.89146E+02 -8.64841E+02  3.31093E+02 -9.78608E+01  4.84605E+02  4.23029E+02  5.02751E+02
 -3.87691E+02  7.03860E+02 -1.11289E+03  1.54356E+02 -1.54326E+03  5.11110E+01  2.38997E+02 -2.01877E+02
  1.81108E+02 -4.07400E+02  1.08635E+03  1.41287E+02  5.08635E+02 -1.49590E+02  5.35734E+02 -1.85242E+02
 -3.02484E+02 -6.40852E+02  1.29863E+03  1.19629E+03 -7.68093E+02  9.79661E+02 -1.15903E+03  2.09518E+02
 -5.76959E+01 -3.23075E+02 -6.41320E+01 -5.70208E+02 -7.14115E+02  5.36623E+02 -2.89269E+02 -6.57055E+02
 -1.53298E+03  4.70549E+02 -8.64355E+02 -1.38961E+03  6.42214E+01 -2.45514E+03  8.81000E+02  6.34598E+01
  1.08389E+03  5.88004E+01 -5.03496E+02 -1.06656E+02 -8.61433E+01  7.37655E+02 -6.65054E+02  1.71285E+02
