 $NMID ID='MM_0lb_SNR200_16hz_g40_82.RAW', FMTDAT='(8E13.5)'
 TRAMP=1., VOLUME=1. $END
  3.09781E+05 -8.87019E+01  3.37591E+05  2.49875E+05  8.42236E+04  3.37627E+05 -1.32593E+05  2.51749E+05
 -1.90090E+05  8.12621E+04 -1.10862E+05 -3.23309E+04  1.42891E+03 -5.06996E+04  5.36492E+04  7.96240E+01
  3.48993E+04  5.25343E+04 -1.60103E+04  7.58493E+04 -6.01215E+04  6.22653E+04 -8.30688E+04  3.22504E+04
 -8.04086E+04 -1.10871E+04 -5.65082E+04 -5.12991E+04 -1.58789E+04 -6.93668E+04  2.72347E+04 -4.57803E+04
  3.89478E+04  3.56380E+03  1.58915E+04  4.80541E+04 -3.43847E+04  4.57854E+04 -6.58045E+04 -1.71786E+03
 -5.12581E+04 -5.58735E+04 -4.61558E+03 -7.58333E+04  3.23644E+04 -5.33333E+04  4.67489E+04 -1.59375E+04
  4.21054E+04  1.14655E+04  3.01045E+04  2.48705E+04  1.50290E+04  2.83418E+04 -4.60527E+03  2.57731E+04
 -2.25579E+04  1.43154E+04 -1.91610E+04 -4.06946E+03  5.11326E+03 -6.95009E+03  2.25480E+04  1.17777E+04
  6.73350E+03  3.35061E+04 -3.02052E+04  3.43532E+04 -6.18804E+04  1.95304E+03 -5.46811E+04 -4.22139E+04
 -1.16707E+04 -6.16880E+04  3.81298E+04 -4.47665E+04  5.49563E+04 -2.27904E+03  3.25125E+04  3.11518E+04
 -7.22025E+03  3.44418E+04 -2.86358E+04  1.35093E+04 -2.91043E+04 -5.66319E+03 -1.54207E+04 -9.93669E+03
 -6.81299E+03 -1.18784E+04 -1.12368E+03 -1.82432E+04  6.40458E+03 -2.30307E+04  1.45922E+04 -1.43237E+04
  1.12613E+04  4.61999E+03 -6.70961E+03  1.36068E+04 -2.03633E+04 -3.42339E+03 -8.58532E+03 -3.18750E+04
  2.23145E+04 -4.13629E+04  4.52965E+04 -1.81277E+04  4.37455E+04  1.87943E+04  1.48359E+04  4.26395E+04
 -1.57556E+04  3.19771E+04 -2.34313E+04  2.11049E+03 -8.76610E+03 -2.66604E+04  2.10836E+04 -3.21929E+04
  3.92986E+04 -8.08739E+03  3.21874E+04  2.28091E+04  1.58412E+04  4.47059E+04 -7.52425E+03  4.63438E+04
 -2.98158E+04  3.23826E+04 -3.83498E+04  9.19177E+03 -3.87775E+04 -1.50885E+04 -2.17926E+04 -3.61097E+04
  6.49325E+03 -3.59888E+04  2.97333E+04 -1.34523E+04  2.81019E+04  1.07729E+04  4.04782E+03  1.77773E+04
 -1.39124E+04  7.65711E+03 -1.06157E+04 -8.27141E+03  5.83621E+03 -9.42280E+03  1.66601E+04  5.22892E+03
  1.26237E+04  2.20913E+04 -5.43084E+03  2.30625E+04 -2.11380E+04  9.80780E+03 -2.75021E+04 -4.52512E+03
 -1.81795E+04 -1.66684E+04 -6.72526E+03 -1.67160E+04  3.82335E+03 -1.53781E+04  1.34757E+04 -1.57503E+04
  2.38077E+04 -1.14491E+04  3.01300E+04  1.00639E+03  2.04954E+04  1.71753E+04  3.94662E+03  3.37577E+04
 -1.73566E+04  2.89689E+04 -2.59518E+04  9.75382E+03 -1.94224E+04 -1.06185E+04 -3.94546E+03 -1.48935E+04
  2.90443E+03 -5.07735E+03 -3.80344E+03  5.76214E+03 -1.38424E+04  6.37535E+03 -1.42978E+04 -5.60449E+03
 -1.02384E+04 -1.61195E+04  5.70109E+03 -2.02206E+04  1.33418E+04 -1.57850E+04  1.56913E+04 -9.03487E+02
  1.08128E+04  1.18437E+04  3.68440E+02  1.69266E+04 -1.15281E+04  8.97489E+03 -1.64916E+04 -3.89887E+03
 -1.28119E+04 -1.44098E+04 -2.69040E+03 -2.05544E+04  9.33951E+03 -1.68607E+04  1.63958E+04 -8.04085E+03
  1.57526E+04 -1.08271E+03  1.12473E+04  4.44047E+03  5.06321E+03  1.20170E+03  7.57482E+03 -1.86296E+03
  1.43170E+04  4.35666E+03  1.57754E+04  1.37373E+04  1.06859E+04  2.61312E+04 -3.40678E+03  2.95274E+04
 -1.72994E+04  2.26522E+04 -2.63802E+04  1.16666E+04 -2.83250E+04 -1.90990E+03 -2.35805E+04 -1.64254E+04
 -1.05269E+04 -2.38010E+04  7.64335E+03 -2.07402E+04  1.84708E+04 -1.14257E+04  1.76858E+04  3.76315E+03
  6.47399E+03  1.26265E+04 -6.66969E+03  1.18706E+04 -1.45753E+04  2.36612E+03 -1.13644E+04 -8.54214E+03
 -9.93336E+02 -1.33294E+04  6.17332E+03 -1.06507E+04  9.51464E+03 -1.36217E+03  1.41744E+03  6.24278E+03
 -4.62481E+03  1.92719E+03 -4.01773E+03 -5.42982E+03 -1.25926E+03 -1.15024E+04  9.66341E+03 -1.16036E+04
  1.30338E+04 -5.79990E+03  1.41886E+04  2.86056E+03  1.26343E+04  1.21320E+04  6.48703E+03  1.68046E+04
 -2.51696E+03  1.79489E+04 -1.08519E+04  1.18257E+04 -1.36422E+04  2.54851E+03 -1.11804E+04 -2.03517E+03
 -5.73836E+03 -3.02541E+03  1.98676E+02  9.09868E+02 -2.27106E+03  2.18511E+03 -5.58426E+03  3.95339E+03
 -8.49631E+03 -4.32010E+02 -1.04376E+04 -8.62760E+03 -3.37936E+03 -1.32348E+04  3.88784E+03 -9.46364E+03
  7.28229E+03 -4.07906E+03  5.38984E+03  1.24685E+03  4.61416E+02  3.57807E+03 -3.53685E+03 -6.82569E+01
 -3.80508E+03 -5.34441E+03 -1.01287E+03 -7.87471E+03  4.23764E+03 -8.78862E+03  1.03146E+04 -4.84710E+03
  1.38653E+04  7.64566E+02  9.89553E+03  7.35372E+03  9.07489E+02  1.00842E+04 -6.26415E+03  9.10659E+03
 -7.16565E+03  3.05045E+03 -3.65773E+03 -2.74435E+03  2.25288E+03 -1.96801E+03  6.37976E+03 -9.80871E+02
  4.40733E+03  3.48710E+03  1.20480E+03  6.36658E+03 -6.08943E+03  6.33190E+03 -7.16926E+03  1.75905E+03
 -5.24789E+03 -4.21630E+03  1.47067E+03 -7.30967E+03  4.35375E+03 -3.46361E+03  4.29344E+03  6.24132E+02
  8.90853E+02  4.36983E+03 -4.00294E+03  5.43901E+03 -6.59304E+03  3.20879E+03 -5.67856E+03 -2.07097E+03
 -2.08886E+03 -7.66637E+03  1.87567E+03 -8.83507E+03  7.46434E+03 -5.44954E+03  7.39861E+03  5.31977E+02
  5.33244E+03  7.13181E+03 -7.95751E+02  9.02747E+03 -7.59904E+03  5.00499E+03 -6.56344E+03 -1.48226E+02
 -5.29542E+03 -5.96864E+03 -1.77721E+03 -5.27682E+03  3.86088E+03 -4.52001E+03  2.88136E+03 -3.41723E+03
  1.86871E+03 -4.03339E+02 -2.00199E+02  1.25320E+03  1.16370E+03  1.86991E+02  5.00405E+02 -3.25113E+03
  4.26998E+03 -5.89632E+02  6.97224E+03  1.48880E+03  6.41850E+03  5.18860E+03  5.85096E+03  8.12400E+03
 -1.07713E+03  1.07221E+04 -9.65277E+03  7.40888E+03 -1.17135E+04  1.84258E+03 -9.02283E+03 -2.87393E+03
 -4.06617E+03 -7.35298E+03 -7.67033E+02 -7.39966E+03  2.37156E+03 -2.62399E+03  3.00359E+03 -2.53342E+03
  1.21536E+03 -2.28392E+03  2.19871E+03 -2.65565E+03  3.43512E+03 -2.32428E+03  3.95347E+03  4.64425E+02
  5.29997E+03  1.17285E+03  1.80868E+03  4.35870E+03 -1.94278E+03  3.70401E+03 -4.17002E+03  3.62620E+03
 -6.07838E+03 -8.57248E+02 -3.74657E+03 -4.62189E+03  7.35077E+02 -6.13628E+03  4.37075E+03 -6.79595E+03
  6.41936E+03 -4.58388E+03  8.30462E+03 -6.17147E+02  5.95500E+03  6.32886E+03 -1.57552E+02  8.69981E+03
 -2.53777E+03  8.32349E+03 -4.60282E+03  2.06490E+03 -4.05315E+03 -5.98146E+02 -7.78407E+02 -8.65784E+02
 -4.48665E+02 -5.26040E+02 -1.06679E+03  2.15158E+03 -2.99178E+03  1.07908E+03 -5.24413E+03 -9.09919E+02
 -2.95460E+03 -4.81962E+03  1.11896E+03 -5.55594E+03  2.58849E+03 -6.01249E+03  5.06895E+03 -1.16105E+03
  5.20457E+03  4.04476E+03  1.31926E+03  5.80916E+03 -3.46643E+02  5.51750E+03 -3.67063E+03  3.02714E+03
 -4.98286E+03 -9.06643E+02 -4.23177E+03 -3.38848E+03  6.44966E+02 -3.69675E+03  1.92202E+03 -3.80956E+03
  2.95419E+03 -2.68728E+03  3.18490E+03  1.42651E+03  1.50574E+03  4.77341E+02  1.47486E+03  1.94079E+02
  1.71608E+03  8.82361E+02  1.53014E+03  7.80399E+02  1.81987E+03  2.15657E+03  2.16931E+03  2.18563E+03
 -2.49486E+03  4.34830E+03 -3.81387E+03  4.21962E+03 -4.73780E+03  9.26040E+02 -5.65184E+03 -1.46172E+03
 -2.31139E+03 -5.79985E+03  4.00469E+02 -6.19341E+03  1.38271E+03 -3.39281E+03  5.35049E+03 -1.38174E+03
  3.91673E+03  7.78671E+02  5.16311E+02  2.57068E+03 -8.59007E+02  2.04180E+03 -1.75094E+03 -1.05781E+03
 -1.17496E+03 -2.17686E+03  1.57949E+03 -2.23695E+03  1.55819E+03 -1.36646E+02  2.65777E+03  1.17063E+03
  1.21818E+03  5.75150E+02  1.00867E+02  4.33747E+02 -2.14783E+03  5.65378E+02  1.55226E+03  2.00044E+02
  3.37215E+02 -9.33017E+02  3.53506E+03  2.40854E+02  5.46877E+02  3.13228E+03 -1.06650E+03  1.79938E+03
 -2.40868E+03  1.82866E+03 -2.73916E+03  4.69022E+02 -1.24628E+03 -1.96348E+02  6.54328E+02 -5.58317E+02
  5.23365E+02 -1.34126E+03  2.23937E+03 -3.79193E+02 -1.22645E+02  1.18675E+03 -1.34771E+03  2.19894E+03
 -2.26702E+03  1.50551E+03 -1.77306E+03 -2.11437E+03 -2.15947E+02 -3.60781E+03  2.54327E+02 -3.23591E+03
  1.42196E+03 -1.78874E+03  2.12841E+03  2.59396E+01  2.42968E+03 -4.55605E+01 -6.34034E+01  1.13806E+03
  1.37691E+02  5.04300E+02 -1.17220E+03 -2.73406E+02  3.79471E+02 -1.91746E+03  2.33826E+03  6.08636E+01
  1.37693E+03 -1.40330E+02  3.55795E+03  2.18277E+03  1.81530E+03  3.97027E+03 -1.47327E+03  3.18916E+03
 -1.62437E+03  4.60957E+02 -1.93928E+03 -7.35194E+02 -2.80843E+03 -2.49419E+03  4.33839E+01 -1.96296E+03
  2.71101E+03 -1.94440E+01  1.23944E+03  5.66916E+02  2.07297E+02  2.64745E+03 -1.14293E+03  1.63368E+03
  6.96431E+02  1.39630E+03 -1.45399E+03  3.56200E+02 -1.91459E+01  5.54554E+02 -7.91511E+02  1.53772E+02
 -1.23639E+03  1.52236E+03 -1.95283E+03  2.11830E+03 -2.73738E+03 -4.62256E+02 -3.01519E+03 -1.08660E+03
 -8.59129E+02 -4.06601E+03  1.51483E+03 -4.96017E+03  1.28160E+03 -3.73619E+03  4.51708E+03 -2.45230E+03
  2.98342E+03  7.14798E+02  2.00514E+03  1.66378E+03 -9.01721E+01  2.54138E+03 -1.09556E+03  1.52025E+03
 -1.80471E+03  7.36750E+02 -7.16443E+02  9.37850E+01 -6.82348E+02 -9.48782E+02 -8.65411E+01 -5.79467E+02
 -2.84111E+03 -3.68567E+02 -2.30053E+02  7.34225E+02  4.22873E+02 -1.85615E+03  8.47148E+02 -1.33017E+03
  2.30536E+03 -7.46615E+02  1.17197E+03  2.73967E+02  1.42950E+03  1.27427E+03  8.81241E+02  1.78579E+03
 -1.70161E+03  3.41768E+03 -1.94840E+03  2.60384E+03 -2.43158E+03 -7.15359E+02 -3.15146E+03 -1.43528E+03
 -1.01484E+03 -1.94288E+03  6.59525E+02 -1.73822E+03  1.02800E+03 -9.83973E+02  9.79454E+02  1.67378E+03
  8.48975E+02  6.54040E+02  1.77293E+02  9.31522E+02  2.73973E+02 -2.53467E+02  1.33951E+02 -3.22398E+02
  1.03041E+03 -1.66905E+02  6.70976E+02 -5.11832E+02 -7.29322E+02  8.60098E+02 -6.24088E+02 -1.37188E+02
 -1.52469E+03  1.33834E+03 -1.92195E+03 -8.30930E+02 -1.76188E+03 -2.52236E+03 -6.30628E+02 -2.02442E+03
  7.24181E+02 -1.04772E+03  1.37428E+03 -6.76278E+02  1.78072E+03 -1.08533E+03  1.02578E+03  1.90905E+03
  1.58613E+03  2.40806E+03 -1.24958E+03  8.75045E+02 -2.02149E+03  1.30071E+03 -1.69398E+03 -2.23124E+02
  8.71887E+02  7.45776E+02  3.73688E+02 -1.29282E+02 -1.10342E+03 -5.00668E+02 -7.40992E+02  8.17820E+02
 -1.78574E+03 -6.57626E+02  6.10020E+02 -4.51697E+02  1.54776E+03 -2.42187E+03  1.80391E+03 -1.30993E+03
  1.84149E+03  8.67265E+02  1.56011E+01 -2.26879E+02  1.83828E+02  2.10194E+03 -5.66422E+02  6.83171E+02
