 $NMID ID='MM_0lb_SNR200_17hz_g45_64.RAW', FMTDAT='(8E13.5)'
 TRAMP=1., VOLUME=1. $END
  3.09415E+05 -2.03848E+02  3.36666E+05  2.50692E+05  8.38664E+04  3.37126E+05 -1.33205E+05  2.51459E+05
 -1.88951E+05  8.28189E+04 -1.11468E+05 -3.29374E+04  1.53144E+03 -4.98108E+04  5.41429E+04 -2.93150E+02
  3.53882E+04  5.37853E+04 -1.67668E+04  7.55248E+04 -6.07373E+04  6.34346E+04 -8.34768E+04  3.18688E+04
 -8.04171E+04 -1.04878E+04 -5.59795E+04 -5.03630E+04 -1.46565E+04 -6.79638E+04  2.66031E+04 -4.64769E+04
  3.79620E+04  3.40891E+03  1.63413E+04  4.79591E+04 -3.39633E+04  4.66974E+04 -6.67591E+04 -1.16892E+02
 -5.19626E+04 -5.58165E+04 -6.56297E+03 -7.61062E+04  3.32455E+04 -5.41313E+04  4.70184E+04 -1.62639E+04
  4.17088E+04  1.09451E+04  3.22793E+04  2.58980E+04  1.62274E+04  2.84677E+04 -4.44190E+03  2.72174E+04
 -2.24033E+04  1.28597E+04 -1.86735E+04 -5.00054E+03  4.65855E+03 -6.84982E+03  2.12762E+04  1.15654E+04
  7.42307E+03  3.37842E+04 -3.03280E+04  3.50212E+04 -6.23152E+04  2.76921E+03 -5.52397E+04 -4.13780E+04
 -1.23282E+04 -6.05077E+04  3.91364E+04 -4.31695E+04  5.69620E+04 -1.19122E+03  3.28033E+04  3.18869E+04
 -6.54593E+03  3.37426E+04 -2.92312E+04  1.41969E+04 -2.83647E+04 -6.18740E+03 -1.50736E+04 -1.02388E+04
 -7.80589E+03 -1.20106E+04 -6.22107E+02 -1.60560E+04  6.57298E+03 -2.11444E+04  1.55115E+04 -1.22379E+04
  1.20649E+04  6.00639E+03 -6.23671E+03  1.44253E+04 -1.93510E+04 -3.64019E+03 -8.05746E+03 -3.17371E+04
  2.14985E+04 -4.15113E+04  4.64247E+04 -1.93003E+04  4.32851E+04  1.84892E+04  1.48798E+04  4.30517E+04
 -1.58709E+04  3.06800E+04 -2.46650E+04  1.90232E+03 -9.65094E+03 -2.66285E+04  1.93060E+04 -3.24556E+04
  3.84872E+04 -6.93880E+03  3.18626E+04  2.30966E+04  1.64875E+04  4.38287E+04 -8.28776E+03  4.71481E+04
 -2.84993E+04  3.09136E+04 -3.83073E+04  9.70794E+03 -3.87513E+04 -1.54470E+04 -2.30929E+04 -3.45949E+04
  7.01782E+03 -3.52998E+04  2.97004E+04 -1.36325E+04  2.79194E+04  1.00052E+04  4.14018E+03  1.71366E+04
 -1.26997E+04  7.38816E+03 -9.77178E+03 -8.22406E+03  6.08143E+03 -9.43847E+03  1.69821E+04  6.30271E+03
  1.26043E+04  2.22124E+04 -6.15182E+03  2.33049E+04 -2.12462E+04  9.21020E+03 -2.64627E+04 -6.62024E+03
 -1.91061E+04 -1.72696E+04 -6.69742E+03 -1.72548E+04  3.63414E+03 -1.52557E+04  1.33999E+04 -1.50608E+04
  2.19942E+04 -1.17355E+04  3.01077E+04  1.44918E+03  2.07217E+04  1.76299E+04  2.93912E+03  3.36697E+04
 -1.57256E+04  2.88034E+04 -2.66362E+04  1.03689E+04 -2.05234E+04 -1.04007E+04 -4.41157E+03 -1.42430E+04
  2.92517E+03 -3.91111E+03 -1.92506E+03  5.86430E+03 -1.44089E+04  5.20833E+03 -1.46684E+04 -5.67518E+03
 -9.01379E+03 -1.76241E+04  4.79183E+03 -2.01912E+04  1.33542E+04 -1.45566E+04  1.56057E+04 -1.56934E+03
  9.81010E+03  1.13727E+04 -1.35970E+03  1.68229E+04 -9.88645E+03  9.48947E+03 -1.71068E+04 -3.27230E+03
 -1.23070E+04 -1.45377E+04 -1.32462E+03 -1.96851E+04  9.25599E+03 -1.67993E+04  1.72506E+04 -7.39620E+03
  1.47598E+04  4.31776E+02  1.00239E+04  3.83507E+03  4.55764E+03  1.95149E+00  8.78270E+03 -1.01026E+02
  1.53568E+04  2.44778E+03  1.55073E+04  1.30308E+04  1.02282E+04  2.60386E+04 -3.27239E+03  2.82109E+04
 -1.71509E+04  2.25117E+04 -2.48162E+04  1.11607E+04 -2.70709E+04 -2.24504E+03 -2.40113E+04 -1.71219E+04
 -9.98333E+03 -2.14277E+04  7.81232E+03 -2.06825E+04  1.78763E+04 -1.18900E+04  1.62390E+04  4.59855E+03
  6.67292E+03  1.24117E+04 -6.15435E+03  1.18823E+04 -1.34905E+04  2.84124E+03 -1.04439E+04 -8.08065E+03
 -4.24922E+02 -1.38690E+04  7.65912E+03 -9.48803E+03  8.65210E+03 -1.36924E+03  1.46921E+03  4.93665E+03
 -5.89651E+03  1.78492E+03 -4.12957E+03 -4.89089E+03 -2.49670E+02 -1.02045E+04  7.71633E+03 -1.19790E+04
  1.36033E+04 -5.04507E+03  1.35347E+04  2.87631E+03  1.22739E+04  1.12616E+04  4.88866E+03  1.44018E+04
 -1.88238E+03  1.75903E+04 -1.02201E+04  1.01621E+04 -1.18821E+04  3.90911E+03 -9.44090E+03 -2.31310E+03
 -4.63450E+03 -3.48836E+03  5.07876E+02  1.26959E+03 -1.59285E+03  2.88636E+03 -4.59755E+03  4.30288E+03
 -8.85990E+03  2.33003E+02 -8.62153E+03 -8.78660E+03 -3.12412E+03 -1.17669E+04  3.29798E+03 -8.30940E+03
  8.26348E+03 -4.05075E+03  5.23031E+03  1.73749E+03  1.93615E+02  3.37855E+03 -3.73148E+03 -1.35566E+02
 -2.93815E+03 -5.59702E+03 -3.25938E+02 -8.66381E+03  4.76753E+03 -8.35233E+03  1.19041E+04 -4.52291E+03
  1.30600E+04  1.82445E+03  9.53126E+03  7.57600E+03  2.39296E+03  9.92181E+03 -6.30646E+03  7.91281E+03
 -7.68942E+03  4.08318E+03 -3.93618E+03 -2.75623E+03  4.88304E+02 -1.67295E+03  4.53263E+03 -3.41393E+02
  4.34940E+03  3.04545E+03  7.34010E+02  6.69670E+03 -4.39747E+03  7.81347E+03 -8.65874E+03  1.45783E+03
 -4.67343E+03 -3.85902E+03  4.65294E+02 -7.28257E+03  4.10966E+03 -3.51846E+03  3.95803E+03  4.45859E+02
  3.93753E+02  3.79960E+03 -4.21581E+03  4.77117E+03 -5.52390E+03  3.09798E+03 -5.52080E+03 -1.45715E+03
 -3.44789E+03 -7.21740E+03  2.82141E+02 -7.77281E+03  7.38472E+03 -5.84364E+03  9.23973E+03  2.35632E+03
  5.20781E+03  5.41976E+03  8.12608E+02  8.20615E+03 -6.11689E+03  6.54114E+03 -6.40874E+03  8.03024E+00
 -5.33269E+03 -6.13388E+03 -3.91594E+02 -5.95416E+03  2.48500E+03 -5.74711E+03  2.37489E+03 -3.34238E+03
  3.50514E+03  9.70978E+02  2.40097E+02  1.51827E+03  1.43827E+02 -1.37337E+03 -6.41140E+02 -2.84471E+03
  4.45742E+03 -1.63061E+03  7.76011E+03  2.26952E+02  5.26672E+03  2.57199E+03  6.25555E+03  8.25792E+03
 -1.56641E+03  1.04437E+04 -8.28335E+03  7.64495E+03 -1.05649E+04  3.35638E+02 -9.72807E+03 -2.97964E+03
 -5.26884E+03 -7.70227E+03 -4.59638E+01 -5.70885E+03  3.20749E+03 -3.71878E+03  5.48006E+02 -2.86072E+03
  1.45820E+03 -2.56230E+03  2.35109E+03 -2.66086E+03  3.63203E+03 -2.48837E+03  3.90117E+03  1.39057E+03
  4.89337E+03  1.72879E+03  1.34376E+03  3.08127E+03 -1.66800E+03  3.54896E+03 -5.48574E+03  2.77126E+03
 -4.92513E+03 -4.15352E+02 -3.20720E+03 -4.69065E+03  1.45203E+03 -6.53163E+03  4.16267E+03 -6.66296E+03
  6.23015E+03 -4.13533E+03  8.76603E+03 -7.77005E+02  5.63193E+03  4.11223E+03  1.83016E+03  7.97129E+03
 -2.97250E+03  7.50488E+03 -3.80121E+03  2.17026E+03 -2.20180E+03 -1.59338E+02 -1.68362E+03 -1.30854E+03
  2.13903E+02  4.08730E+02 -1.57781E+03  1.67459E+03 -3.04932E+03  1.61082E+03 -4.20787E+03 -6.45480E+02
 -2.21364E+03 -3.82173E+03  1.58299E+03 -5.04246E+03  3.08211E+03 -5.32670E+03  3.70682E+03 -1.09599E+03
  5.29335E+03  1.85941E+03  3.35310E+03  4.15311E+03 -1.03271E+03  6.92539E+03 -2.44469E+03  3.50487E+03
 -4.79308E+03  1.50695E+03 -3.55917E+03 -1.65334E+03 -9.21577E+02 -3.40075E+03  1.35517E+03 -2.54394E+03
  2.91029E+03 -1.81728E+03  2.40529E+03  1.45781E+03  1.58370E+03  1.60395E+03  1.00426E+03  1.23078E+03
  1.62156E+03  1.01629E+03  9.04728E+02  7.35283E+02  4.55624E+02  2.37606E+03  2.92704E+03  2.52216E+03
 -1.37432E+03  3.98079E+03 -2.92206E+03  5.76649E+03 -3.32031E+03  1.82112E+03 -5.23225E+03 -1.06607E+03
 -1.50891E+03 -4.83423E+03  1.31537E+03 -5.85659E+03  2.88906E+03 -3.19217E+03  4.18048E+03 -6.64757E+02
  2.55918E+03  1.28740E+03  7.07284E+01  3.11888E+03 -8.87809E+02  2.37933E+03 -6.96970E+02 -4.69823E+02
 -4.20002E+02 -2.03981E+03  1.50465E+03 -1.30263E+03  3.25688E+03 -9.70945E+02  1.44069E+03  3.25907E+02
  1.67546E+03  7.30543E+02  1.39364E+03 -4.67368E+02 -5.55811E+01  1.73324E+02  1.04199E+03  1.86893E+02
  7.51023E+02 -7.99651E+02  2.37734E+03  3.03861E+02  2.92766E+02  3.42947E+03  5.60119E+02  3.09099E+03
 -2.24359E+03  2.89707E+03 -2.63209E+03  1.19326E+03 -2.65377E+03 -6.25869E+02 -1.53991E+03 -7.66993E+02
 -6.08542E+02 -1.55010E+03  1.16538E+03 -1.52132E+03  6.23033E+02  1.36391E+03 -7.00959E+02  4.09367E+02
 -2.10163E+03  5.10308E+02 -1.83688E+03 -1.98141E+03 -1.04810E+03 -2.71372E+03  6.00976E+02 -2.59630E+03
  7.88856E+02 -9.09660E+02  5.11047E+02 -1.54518E+03 -2.22941E+02  4.91983E+02 -4.28059E+01  2.38238E+03
 -2.51912E+02 -4.16632E+02 -1.82015E+02 -7.00079E+02  5.51186E+02 -1.42365E+03  1.90384E+03 -1.29296E+03
  2.03233E+03  1.00662E+03  4.20756E+03  1.86667E+03  1.49448E+03  1.75457E+03 -7.36940E+02  1.87220E+03
 -8.42208E+02  9.20185E+02 -1.47939E+03  4.93668E+02 -1.28954E+03 -1.92164E+03 -3.56116E+02 -1.48084E+03
  2.01272E+03 -1.79326E+03  1.53725E+03  2.86622E+02 -1.10705E+02  1.94772E+03 -5.51981E+02  1.31299E+03
 -1.00998E+03  1.96023E+03 -9.78329E+02 -7.20754E+02 -3.20618E+02  2.18517E+02 -1.35605E+03  7.74733E+02
 -8.87499E+02  1.38262E+03 -2.30874E+03  1.31461E+03 -2.84491E+03 -5.09313E+02 -2.42913E+03 -1.07934E+03
 -2.29565E+03 -2.95110E+03  8.96574E+02 -3.05048E+03  1.44716E+03 -2.71669E+03  3.61001E+03 -1.30492E+03
  2.35009E+03 -4.73171E+01  1.20584E+03  1.67245E+03 -3.69375E+02  1.85927E+03 -2.53178E+03  2.06243E+03
 -1.19363E+03  4.72991E+02 -7.29265E+02 -7.73195E+02 -1.61624E+03 -2.09771E+02 -8.67213E+02  4.76008E+02
 -5.87375E+02  2.27676E+01 -4.62779E+02 -3.72045E+01  1.95041E+02  4.05025E+02 -1.60433E+03 -1.49117E+03
  1.14956E+03 -9.28154E+02  6.85964E+02 -1.22851E+01  1.64348E+03  8.75568E+02 -7.44948E+01  8.97767E+02
  1.89955E+02  2.97555E+03 -2.39715E+03  2.13842E+03 -2.76154E+03  3.37544E+02 -2.67264E+03 -2.97668E+03
 -1.79256E+03 -2.25281E+03  8.07768E+02 -2.05562E+03  4.80032E+02 -9.79635E+02  1.71697E+03 -1.56244E+03
  2.14017E+01  1.57771E+03  8.68554E+02 -3.54613E+02  1.98499E+02  6.16972E+02  1.01749E+02 -1.68864E+03
  5.31476E+00  2.72752E+01 -7.60805E+01  7.86997E+02 -2.74525E+02  7.92352E+02  8.12702E+02  1.59436E+03
 -6.32441E+02  5.77596E+02 -1.59239E+03 -9.26897E+02 -9.10842E+02 -3.68751E+02 -2.28822E+02 -1.50483E+03
  2.05917E+03 -1.59124E+03  1.22488E+03  2.07384E+01  2.29113E+03  1.10293E+02  7.17113E+02  1.72809E+03
 -3.04652E+02  6.45969E+02 -5.43663E+02  1.00708E+03 -7.18561E+02  1.46158E+03 -4.14424E+02  3.84351E+02
  1.94591E+02  9.10053E+01 -9.60211E+02 -5.27840E+02 -3.26616E+02 -4.13747E+02 -4.30041E+02 -8.71659E+01
 -2.32106E+03 -3.42706E+02 -2.02222E+03 -8.99136E+02  1.17430E+03 -1.89536E+03  5.05088E+02 -6.05770E+02
  9.83818E+02 -1.63554E+02 -4.72075E+02  1.74496E+02 -4.15087E+02  1.66097E+03 -5.08837E+02  1.40568E+03
