 $NMID ID='MM_0lb_SNR200_17hz_g55_99.RAW', FMTDAT='(8E13.5)'
 TRAMP=1., VOLUME=1. $END
  3.09891E+05  6.12975E+02  3.37641E+05  2.50953E+05  8.49728E+04  3.37744E+05 -1.31745E+05  2.49842E+05
 -1.89819E+05  8.32194E+04 -1.11751E+05 -3.39819E+04  1.11141E+03 -5.20552E+04  5.42438E+04  4.92047E+02
  3.54824E+04  5.31094E+04 -1.72470E+04  7.50653E+04 -6.10425E+04  6.22104E+04 -8.43192E+04  3.24516E+04
 -7.96899E+04 -1.08149E+04 -5.66450E+04 -5.01580E+04 -1.48439E+04 -6.88590E+04  2.74769E+04 -4.58163E+04
  4.09548E+04  3.13673E+03  1.58594E+04  4.69136E+04 -3.42271E+04  4.71239E+04 -6.71064E+04 -7.51528E+02
 -5.33416E+04 -5.56618E+04 -6.62184E+03 -7.61675E+04  3.45644E+04 -5.33359E+04  4.72335E+04 -1.69438E+04
  4.28634E+04  1.12114E+04  3.10789E+04  2.57588E+04  1.65348E+04  2.91511E+04 -5.38296E+03  2.72885E+04
 -2.24986E+04  1.21600E+04 -1.76250E+04 -4.33336E+03  4.88641E+03 -8.45027E+03  2.20632E+04  1.17899E+04
  8.39924E+03  3.48755E+04 -3.27109E+04  3.54093E+04 -6.28496E+04  2.06039E+03 -5.59821E+04 -4.23455E+04
 -1.25226E+04 -6.21130E+04  3.90421E+04 -4.41404E+04  5.60891E+04 -2.07526E+03  3.31285E+04  3.17836E+04
 -5.48215E+03  3.52629E+04 -2.93994E+04  1.50408E+04 -2.88924E+04 -5.12268E+03 -1.60043E+04 -1.05638E+04
 -8.13718E+03 -1.20457E+04 -1.55860E+03 -1.68377E+04  7.94786E+03 -2.24328E+04  1.58404E+04 -1.39048E+04
  1.21906E+04  4.97443E+03 -8.22213E+03  1.31050E+04 -2.04572E+04 -2.78933E+03 -8.16229E+03 -3.26464E+04
  2.19592E+04 -4.25498E+04  4.75227E+04 -2.01184E+04  4.41220E+04  1.88179E+04  1.54901E+04  4.26497E+04
 -1.57684E+04  3.28513E+04 -2.57062E+04  1.66322E+03 -1.01960E+04 -2.67603E+04  2.00639E+04 -3.28256E+04
  3.99157E+04 -7.21628E+03  3.51556E+04  2.38085E+04  1.67481E+04  4.62412E+04 -7.44983E+03  4.77555E+04
 -3.10676E+04  3.21696E+04 -4.03013E+04  9.33379E+03 -4.12231E+04 -1.63065E+04 -2.21669E+04 -3.71869E+04
  7.42339E+03 -3.53889E+04  3.10566E+04 -1.43798E+04  2.92655E+04  1.14178E+04  2.49828E+03  1.85715E+04
 -1.28155E+04  8.04692E+03 -9.19925E+03 -8.13516E+03  5.81931E+03 -1.03525E+04  1.76710E+04  6.34771E+03
  1.24135E+04  2.17189E+04 -5.50737E+03  2.54681E+04 -2.20644E+04  1.01052E+04 -2.68863E+04 -5.07366E+03
 -1.98994E+04 -1.73728E+04 -7.78680E+03 -1.91173E+04  3.26009E+03 -1.73497E+04  1.42589E+04 -1.77088E+04
  2.43912E+04 -1.22344E+04  3.12327E+04  1.96127E+03  2.21143E+04  1.89132E+04  3.62026E+03  3.48654E+04
 -1.64699E+04  2.97873E+04 -2.61693E+04  9.63006E+03 -1.95665E+04 -1.06943E+04 -4.86424E+03 -1.40261E+04
  4.42736E+02 -4.71965E+03 -4.42522E+03  5.81348E+03 -1.48274E+04  6.17703E+03 -1.46889E+04 -5.72105E+03
 -1.00403E+04 -1.65349E+04  4.68030E+03 -2.22377E+04  1.29718E+04 -1.51495E+04  1.74312E+04 -1.25208E+03
  1.05354E+04  1.22177E+04 -1.56395E+03  1.71306E+04 -1.27292E+04  9.02591E+03 -1.66750E+04 -3.17569E+03
 -1.25136E+04 -1.53365E+04 -2.17258E+03 -2.05960E+04  9.05814E+03 -1.72106E+04  1.77007E+04 -8.14283E+03
  1.55933E+04  1.18290E+03  1.24249E+04  4.37742E+03  4.75932E+03  2.94406E+02  9.76046E+03 -2.13380E+03
  1.65393E+04  2.15595E+03  1.65738E+04  1.26229E+04  1.13037E+04  2.78826E+04 -3.51437E+03  2.89211E+04
 -1.70783E+04  2.29362E+04 -2.84075E+04  1.28410E+04 -2.85886E+04 -2.34108E+03 -2.48060E+04 -1.67658E+04
 -1.09247E+04 -2.43247E+04  7.83339E+03 -2.13451E+04  1.94004E+04 -1.13295E+04  1.86975E+04  5.40892E+03
  6.86415E+03  1.39445E+04 -7.97359E+03  1.09638E+04 -1.47375E+04  2.99489E+03 -1.08303E+04 -9.46194E+03
  1.03526E+03 -1.35114E+04  6.81726E+03 -9.75266E+03  7.58074E+03 -1.41338E+03  1.30614E+03  6.11996E+03
 -5.61358E+03  2.99702E+03 -5.84740E+03 -4.08969E+03  8.31772E+02 -1.11122E+04  9.68927E+03 -1.17404E+04
  1.35463E+04 -5.81180E+03  1.37851E+04  2.43611E+03  1.30257E+04  1.11490E+04  7.36954E+03  1.78195E+04
 -1.73131E+03  1.90493E+04 -1.22832E+04  1.10316E+04 -1.28455E+04  2.90537E+03 -9.59929E+03 -3.08538E+03
 -4.75727E+03 -4.07918E+03 -1.79475E+03  7.67577E+02 -1.38753E+03  1.93012E+03 -2.96844E+03  3.22795E+03
 -6.85857E+03 -8.59808E+00 -1.03461E+04 -6.91024E+03 -3.08658E+03 -1.17500E+04  4.37026E+03 -9.84502E+03
  8.79971E+03 -3.06352E+03  6.10478E+03  3.11696E+03  1.23819E+03  3.22155E+03 -4.72994E+03  2.69684E+02
 -4.31448E+03 -6.92072E+03 -1.51799E+03 -7.99468E+03  4.24667E+03 -9.08286E+03  1.03304E+04 -4.74186E+03
  1.36147E+04  8.72345E+02  1.13182E+04  8.23853E+03  2.23078E+03  1.03135E+04 -5.73765E+03  9.33424E+03
 -8.53401E+03  2.38935E+03 -4.02045E+03 -1.08765E+03  1.77401E+03 -3.07536E+03  6.19024E+03  7.16462E+02
  4.24724E+03  4.73565E+03  9.14018E+02  8.37101E+03 -5.33857E+03  7.33438E+03 -9.08538E+03  2.27588E+03
 -6.44622E+03 -4.81328E+03  8.26824E+02 -8.01023E+03  4.91590E+03 -3.86889E+03  4.41993E+03  1.33748E+03
  7.55136E+02  3.99880E+03 -4.97685E+03  4.26088E+03 -5.95872E+03  3.41849E+03 -6.15236E+03 -2.92859E+03
 -3.17339E+03 -8.26898E+03  8.08656E+02 -8.37511E+03  7.90700E+03 -6.00201E+03  8.36837E+03  1.53067E+03
  5.26696E+03  6.68205E+03 -2.71215E+02  7.82123E+03 -5.59697E+03  5.49754E+03 -7.49607E+03 -4.89127E+02
 -6.05878E+03 -6.45306E+03 -1.15256E+03 -5.70517E+03  3.46348E+03 -5.44800E+03  2.59542E+03 -3.68559E+03
  2.73875E+03 -1.89916E+02 -6.76661E+02  2.08334E+03  6.03592E+02 -3.52576E+02  3.18265E+02 -2.79330E+03
  4.35796E+03 -5.69487E+02  7.13319E+03  2.04119E+03  7.10985E+03  3.74506E+03  7.21239E+03  1.03253E+04
 -1.73622E+03  1.04454E+04 -9.00140E+03  8.02393E+03 -1.20310E+04  1.68779E+03 -9.17742E+03 -2.70110E+03
 -4.17745E+03 -8.57512E+03 -6.24525E+02 -6.06591E+03  2.93271E+03 -4.31475E+03  2.33116E+03 -3.17706E+03
  1.69465E+03 -1.25526E+03  2.63163E+03 -2.48403E+03  4.01625E+03 -2.42286E+03  4.10065E+03  5.69541E+01
  5.76753E+03  1.66587E+03  2.61138E+03  4.85178E+03 -2.00908E+03  4.16110E+03 -6.14255E+03  4.17695E+03
 -6.54544E+03 -1.78771E+03 -3.76250E+03 -3.12578E+03 -2.45342E+02 -7.28393E+03  4.28316E+03 -6.82418E+03
  6.61018E+03 -3.39435E+03  8.48151E+03  9.07567E+02  6.26065E+03  7.17402E+03  5.13238E+02  7.64225E+03
 -2.52122E+03  7.10126E+03 -3.98217E+03  3.28712E+03 -2.24293E+03 -1.76969E+02 -1.09990E+03 -1.04561E+03
 -4.80387E+02  8.38388E+02 -1.10709E+03  1.64807E+03 -4.03404E+03  1.27341E+02 -4.86837E+03  7.66521E+01
 -1.72834E+03 -5.20055E+03  5.28879E+02 -5.95323E+03  3.85471E+03 -6.19073E+03  4.98236E+03 -1.90141E+03
  5.80595E+03  2.37884E+03  3.83012E+03  4.13106E+03 -1.41017E+03  5.74308E+03 -2.55322E+03  4.10845E+03
 -6.15598E+03  7.18733E+02 -5.10649E+03 -2.39280E+03 -1.99109E+02 -3.56353E+03  2.23459E+03 -4.53298E+03
  5.27356E+03 -1.65371E+03  2.96463E+03 -1.94218E+02  5.13694E+02  2.35406E+03  5.42743E+02  9.58077E+02
  1.89764E+03  9.40998E+02  3.45006E+02  1.78006E+03  1.30736E+03  2.54639E+03  9.12072E+02  3.90502E+03
 -1.76733E+03  4.26379E+03 -3.57853E+03  4.55022E+03 -3.57774E+03  1.08082E+03 -6.18718E+03 -1.99522E+03
 -1.93544E+03 -5.59067E+03  1.39718E+03 -5.18388E+03  2.92670E+03 -2.94127E+03  3.77332E+03 -8.93071E+02
  1.98430E+03  1.84324E+03  3.72160E+02  3.37386E+03 -1.39972E+03  1.97082E+03 -1.14768E+03  6.25289E+02
 -1.08740E+03 -2.60598E+03  1.71788E+03 -2.17422E+03  1.23704E+03 -1.29682E+03  1.72918E+03  5.32633E+02
  1.72831E+03  2.07632E+02  1.42445E+03 -7.07992E+01  3.63955E+02 -1.98409E+02  1.44991E+03 -1.21511E+03
  1.14692E+03  2.19733E+02  2.24026E+03  9.58187E+02  9.71523E+02  2.16213E+03 -1.20042E+03  3.86813E+03
 -1.92859E+03  1.82221E+02 -3.45419E+03  1.45484E+03 -3.17778E+03 -3.04352E+02 -5.25773E+01 -1.76423E+03
  1.02598E+03 -2.15587E+03  1.53007E+02 -5.17375E+02  1.12418E+02  3.64424E+02 -5.60196E+02  7.70794E+02
 -1.99013E+03 -1.09801E+02 -4.82828E+02 -1.18258E+03 -9.42465E+01 -2.12234E+03  2.48709E+02 -2.13452E+03
  1.14003E+03 -9.69225E+02  1.60792E+03  6.33223E+02  1.08393E+03 -1.15958E+03 -5.27713E+02  1.12442E+03
 -1.05329E+03  3.65520E+02 -1.86978E+02 -1.30058E+03  1.37888E+03 -7.77635E+02  2.59348E+03 -5.70091E+02
  1.52935E+03  4.01220E+02  2.87132E+03  3.64878E+02  1.17686E+03  2.63414E+03 -1.97805E+02  3.09141E+03
 -1.90316E+03  1.31258E+03 -1.75815E+03 -1.89130E+01 -6.00073E+02 -9.86370E+02 -8.61649E+01 -1.44399E+03
  2.62092E+03 -1.00439E+03  1.46844E+03 -1.95079E+02 -1.92649E+02  1.75438E+03  2.81511E+02  4.72064E+02
 -1.40678E+02  1.59769E+03 -1.19686E+03  4.82206E+02 -3.13229E+02  1.70184E+02 -1.00761E+03  9.36706E+02
 -1.12957E+03  1.89711E+03 -1.83753E+03  3.24992E+02 -2.39576E+03 -4.45811E+02 -3.05809E+03 -1.98547E+03
 -1.41768E+03 -3.91313E+03 -6.64727E+02 -3.87745E+03  1.63038E+03 -3.18320E+03  3.23064E+03 -1.13748E+03
  2.90932E+03 -5.65714E+02  9.99256E+01  1.83423E+03 -1.05345E+03  1.17719E+03 -6.07751E+01  3.30818E+02
 -1.27985E+03  1.50783E+03 -7.31067E+01  4.15702E+02 -1.57979E+03  6.64534E+02 -4.01230E+02 -1.42797E+03
 -7.68874E+02 -8.02833E+02 -3.03954E+02  3.75017E+02 -1.06364E+02 -2.28329E+02 -4.53872E+02 -1.50154E+03
  9.28178E+02 -7.80547E+02 -3.44404E+01 -2.23303E+02  1.46793E+03  1.76967E+03 -9.77314E+02  1.16622E+03
 -2.26924E+03  2.53783E+03 -2.31779E+03  1.73447E+03 -2.38654E+03 -2.68607E+02 -3.25669E+03 -2.08275E+03
 -4.45778E+02 -4.36136E+02  1.23950E+03 -1.05869E+03  2.58295E+03 -2.38513E+02 -2.59124E+02 -1.66100E+01
  9.97879E+02  1.61054E+02 -4.95884E+02  2.78097E+02  2.20679E+02 -6.15326E+02  3.95226E+02 -1.50577E+03
  1.95063E+02  1.12547E+03 -7.22564E+02  2.30657E+00 -6.00343E+01  8.99723E+02 -5.91834E+02  1.13554E+03
 -4.62142E+02  1.01069E+03 -9.76408E+02  5.96876E+02 -1.24008E+03 -1.02104E+03  3.17897E+02 -1.27412E+03
  3.15854E+01 -7.38733E+02  1.28216E+03 -6.46189E+02  1.35928E+03 -4.21053E+02 -2.39036E+02  1.74451E+03
  8.82852E+02  8.54578E+02 -2.66087E+02  1.58755E+03 -3.68853E+01  6.24431E+02 -6.34787E+02 -4.97700E+01
  1.08872E+03 -5.88685E+02 -3.36932E+02 -1.21472E+02 -1.17573E+03  1.05673E+03 -2.54403E+03 -1.15806E+03
 -2.72699E+03 -2.12507E+02 -2.98918E+02 -1.96942E+03  1.70294E+03 -2.95025E+03  1.06054E+03 -2.69362E+02
  1.09985E+03 -3.73443E+02  9.96478E+02 -3.79374E+02 -9.90895E+01  1.76830E+03  6.78137E+02  8.03408E+02
