 $NMID ID='MM_0lb_SNR200_16hz_g45_92.RAW', FMTDAT='(8E13.5)'
 TRAMP=1., VOLUME=1. $END
  3.09088E+05 -8.08442E+01  3.37675E+05  2.49852E+05  8.39242E+04  3.38237E+05 -1.33306E+05  2.50989E+05
 -1.89261E+05  8.28232E+04 -1.11460E+05 -3.29830E+04  1.40226E+03 -5.08612E+04  5.50286E+04  5.97622E+01
  3.64180E+04  5.39302E+04 -1.77133E+04  7.61429E+04 -5.96841E+04  6.29769E+04 -8.32953E+04  3.18632E+04
 -7.97721E+04 -1.11846E+04 -5.53318E+04 -5.09361E+04 -1.57898E+04 -6.86258E+04  2.74526E+04 -4.55744E+04
  3.99107E+04  3.73503E+03  1.57279E+04  4.72900E+04 -3.48905E+04  4.76091E+04 -6.64665E+04  3.28981E-01
 -5.20864E+04 -5.69735E+04 -6.78740E+03 -7.55144E+04  3.35942E+04 -5.47900E+04  4.66279E+04 -1.68912E+04
  4.25450E+04  1.05338E+04  3.13568E+04  2.54944E+04  1.67103E+04  2.76078E+04 -5.11746E+03  2.83298E+04
 -2.32145E+04  1.21835E+04 -1.93604E+04 -5.39241E+03  5.32559E+03 -7.58254E+03  2.20556E+04  1.14889E+04
  8.69699E+03  3.44826E+04 -3.23557E+04  3.55002E+04 -6.19790E+04  2.32475E+03 -5.53764E+04 -4.30190E+04
 -1.24961E+04 -6.11109E+04  3.88167E+04 -4.41526E+04  5.67337E+04 -1.86729E+03  3.24339E+04  3.14817E+04
 -5.82359E+03  3.47423E+04 -2.99934E+04  1.41888E+04 -2.91560E+04 -4.94374E+03 -1.62879E+04 -1.07781E+04
 -7.11997E+03 -1.09092E+04 -9.32665E+02 -1.74272E+04  6.71371E+03 -2.26554E+04  1.54234E+04 -1.38411E+04
  1.00960E+04  4.02988E+03 -7.90842E+03  1.20597E+04 -1.98263E+04 -3.23827E+03 -8.30452E+03 -3.19452E+04
  2.22885E+04 -4.31665E+04  4.72184E+04 -1.85398E+04  4.32162E+04  1.79019E+04  1.42681E+04  4.34338E+04
 -1.53897E+04  3.19750E+04 -2.32257E+04  8.68274E+02 -9.71779E+03 -2.70129E+04  2.05878E+04 -3.21039E+04
  3.90016E+04 -8.15802E+03  3.29762E+04  2.35634E+04  1.57685E+04  4.40741E+04 -8.59194E+03  4.70079E+04
 -3.09725E+04  3.18637E+04 -3.81589E+04  8.32220E+03 -4.03693E+04 -1.60793E+04 -2.15100E+04 -3.70333E+04
  7.85544E+03 -3.52134E+04  3.00505E+04 -1.34541E+04  2.76966E+04  1.04336E+04  1.82415E+03  1.76147E+04
 -1.26559E+04  6.88418E+03 -8.97760E+03 -6.74969E+03  5.47973E+03 -1.03141E+04  1.74438E+04  5.30986E+03
  1.22338E+04  2.19560E+04 -5.70607E+03  2.46167E+04 -2.17360E+04  1.05375E+04 -2.69551E+04 -6.42466E+03
 -1.79506E+04 -1.62037E+04 -7.03972E+03 -1.88921E+04  2.76870E+03 -1.65445E+04  1.33214E+04 -1.63061E+04
  2.39936E+04 -1.28198E+04  2.97167E+04  2.79125E+03  2.19220E+04  1.88628E+04  4.38240E+03  3.47393E+04
 -1.65098E+04  2.83017E+04 -2.74985E+04  1.02097E+04 -2.01190E+04 -1.10038E+04 -3.99144E+03 -1.35450E+04
  1.56769E+03 -3.73354E+03 -3.71559E+03  5.55153E+03 -1.39683E+04  5.15780E+03 -1.47816E+04 -6.03407E+03
 -9.26550E+03 -1.84268E+04  4.51029E+03 -2.07358E+04  1.38901E+04 -1.56625E+04  1.56125E+04 -9.07849E+02
  9.75134E+03  1.16190E+04 -1.32260E+03  1.75181E+04 -1.12589E+04  1.04734E+04 -1.65386E+04 -3.65671E+03
 -1.28309E+04 -1.44469E+04 -1.11363E+03 -2.10612E+04  8.57798E+03 -1.78475E+04  1.66554E+04 -7.41086E+03
  1.61986E+04  2.92035E+02  1.21882E+04  4.16503E+03  5.65047E+03 -6.05303E+02  8.69574E+03 -6.90527E+02
  1.58586E+04  2.38667E+03  1.76970E+04  1.28313E+04  1.04409E+04  2.79985E+04 -3.02214E+03  2.91723E+04
 -1.70062E+04  2.31078E+04 -2.84699E+04  1.18795E+04 -2.87861E+04 -1.92392E+03 -2.60558E+04 -1.64990E+04
 -1.07097E+04 -2.41797E+04  8.73759E+03 -2.21781E+04  1.92604E+04 -1.27594E+04  1.79083E+04  3.95597E+03
  7.45668E+03  1.26953E+04 -8.93087E+03  1.11369E+04 -1.42017E+04  3.38796E+03 -1.09481E+04 -9.87150E+03
 -7.05695E+02 -1.31716E+04  6.54443E+03 -1.16324E+04  8.68759E+03 -1.92341E+03  2.33103E+03  6.42125E+03
 -5.57941E+03  2.35990E+03 -4.23220E+03 -4.45150E+03 -1.24220E+03 -1.22797E+04  9.87732E+03 -1.15784E+04
  1.33210E+04 -4.54796E+03  1.48066E+04  3.01508E+03  1.22309E+04  9.97212E+03  6.40665E+03  1.78907E+04
 -1.89431E+03  1.99636E+04 -1.20893E+04  1.15455E+04 -1.44426E+04  3.65563E+03 -8.97967E+03 -3.17561E+03
 -4.44222E+03 -3.75105E+03  2.99885E+02  1.15450E+03 -1.56489E+03  2.29520E+03 -3.87762E+03  3.68430E+03
 -9.22601E+03 -7.87283E+02 -9.64049E+03 -9.17486E+03 -4.86965E+03 -1.26775E+04  5.09020E+03 -9.18344E+03
  8.02587E+03 -4.36902E+03  6.50528E+03  3.07692E+03  1.11743E+01  3.63819E+03 -3.88113E+03 -4.32777E+02
 -5.06507E+03 -6.24454E+03 -1.60861E+03 -8.29033E+03  4.87989E+03 -9.33079E+03  1.05305E+04 -4.77067E+03
  1.40776E+04  1.77398E+03  1.00504E+04  6.72868E+03  1.92021E+03  9.67626E+03 -5.94824E+03  9.48172E+03
 -7.67606E+03  2.89408E+03 -4.11632E+03 -1.45794E+03  1.55337E+03 -2.92306E+03  5.51002E+03 -1.96199E+03
  4.25500E+03  4.50556E+03  2.40485E+03  8.03990E+03 -3.72723E+03  6.34661E+03 -9.06485E+03  1.89307E+03
 -6.12969E+03 -4.75145E+03  1.19260E+03 -8.19281E+03  5.24440E+03 -3.97257E+03  3.93463E+03  8.37243E+02
  3.79454E+02  4.11845E+03 -4.53155E+03  6.43861E+03 -6.00726E+03  2.57923E+03 -6.50468E+03 -9.22979E+02
 -3.63550E+03 -7.23520E+03  1.85612E+03 -9.32888E+03  7.46690E+03 -7.44892E+03  8.03669E+03  1.65060E+03
  5.65653E+03  6.61481E+03 -2.56764E+02  8.27715E+03 -5.85122E+03  5.28454E+03 -7.12162E+03 -2.98341E+01
 -6.85065E+03 -7.65557E+03 -1.52331E+03 -5.70512E+03  4.10826E+03 -5.40030E+03  4.29605E+03 -4.26102E+03
  3.44720E+03  7.94669E+02 -1.19262E+03  1.59646E+03  1.41620E+03 -7.91889E+02  1.03893E+03 -3.66735E+03
  5.54338E+03 -1.85820E+03  7.15298E+03  9.77905E+02  7.52139E+03  5.28164E+03  6.57723E+03  1.04464E+04
 -1.44413E+03  1.13616E+04 -9.01090E+03  8.74634E+03 -1.27997E+04  2.61254E+03 -1.02262E+04 -4.71900E+03
 -5.82949E+03 -8.41626E+03 -9.84351E+02 -7.27142E+03  3.51414E+03 -3.03856E+03  2.34028E+03 -3.57601E+03
  1.32681E+03 -2.05664E+03  2.95906E+03 -2.32522E+03  3.67711E+03 -1.88644E+03  3.04676E+03  1.10251E+03
  5.07274E+03  7.27676E+02  8.59649E+02  4.19539E+03 -1.63163E+03  4.07999E+03 -5.42316E+03  3.62184E+03
 -6.23571E+03 -1.22940E+03 -3.15545E+03 -4.97924E+03  6.59920E+02 -6.54678E+03  4.12664E+03 -6.52524E+03
  7.35189E+03 -5.77193E+03  7.98568E+03  1.19221E+02  6.64158E+03  6.79248E+03  2.49341E+03  8.58653E+03
 -3.41364E+03  8.10822E+03 -4.29416E+03  2.15524E+03 -3.06644E+03 -6.43236E+02 -2.15090E+03 -3.47228E+02
 -1.73678E+03 -1.61516E+02 -6.61709E+02  1.83941E+03 -2.16862E+03  1.17532E+03 -5.26400E+03  1.55232E+02
 -2.96062E+03 -5.34225E+03  2.53862E+03 -5.79425E+03  2.50727E+03 -5.25874E+03  6.34063E+03 -1.74821E+03
  5.15514E+03  4.07481E+03  2.83052E+03  4.79602E+03 -5.46910E+02  6.71602E+03 -2.98284E+03  3.69050E+03
 -5.28400E+03 -2.72148E+02 -4.12984E+03 -3.58028E+03 -1.29525E+03 -4.60225E+03  2.93735E+03 -3.45852E+03
  3.70991E+03 -2.21717E+03  2.78830E+03  1.13275E+02  3.23966E+02  1.11174E+02  1.58600E+03  6.22505E+02
  1.96231E+03  6.37724E+01  1.89843E+03  1.73846E+03  8.08489E+02  2.06557E+03  2.95192E+03  2.11445E+03
 -2.00515E+03  4.00609E+03 -3.06865E+03  4.22987E+03 -3.75985E+03  2.02986E+03 -5.79616E+03 -7.44636E+02
 -2.97107E+03 -4.66421E+03  6.97383E+02 -6.85662E+03  2.92396E+03 -4.42894E+03  4.88211E+03 -1.54353E+03
  2.91658E+03  2.46442E+03  5.65490E+02  2.55878E+03 -1.48272E+03  3.37262E+03 -1.28473E+03 -4.30426E+02
 -1.06977E+03 -2.42686E+03  1.97760E+03 -2.61568E+03  6.31260E+02 -1.01093E+03  1.33287E+03  6.47422E+02
  1.32344E+03  1.72900E+03  6.15926E+02  8.66301E+02 -1.05151E+02  9.33206E+02  2.58545E+03  7.14372E+02
  1.06891E+03  2.30961E+02  2.15990E+03  1.39906E+03  1.48474E+03  3.82130E+03 -5.25361E+02  4.72947E+03
 -1.97587E+03  3.41001E+03 -3.02617E+03  9.40312E+02 -3.12296E+03 -1.09885E+03 -4.54902E+02 -8.30089E+02
 -8.82327E+02 -2.91594E+03  1.94059E+03 -9.07800E+02  2.04582E+03  7.27387E+02 -5.68529E+02  1.31629E+03
 -1.67080E+03  1.20138E+03 -1.49955E+03 -2.25665E+03 -1.46450E+03 -3.39869E+03  7.65281E+02 -3.61537E+03
  1.53031E+03 -1.21161E+03  1.90981E+03  2.42113E+02  2.12754E+03  1.18420E+02 -2.74331E+02  1.47025E+03
 -1.44595E+03 -2.66805E+02 -2.17924E+03 -2.94153E+02  5.90586E+02 -1.76372E+03  1.98528E+03 -1.85584E+03
  2.06074E+03  2.51626E+02  2.74107E+03  1.54725E+03  1.08946E+03  2.12797E+03 -1.12927E+03  1.70456E+03
 -3.02198E+03  1.98573E+03 -1.95195E+03  9.91950E+02 -1.62719E+03 -2.14804E+03  1.15876E+03 -2.52903E+03
  1.88674E+03 -2.10260E+03  1.44982E+03  7.31424E+02 -3.04021E+02  1.77129E+03 -9.17353E+02  1.90624E+03
 -1.70826E+03  2.02601E+03 -2.46563E+02 -4.32283E+02 -1.57421E+02  1.62530E+03 -2.95709E+02  4.42120E+02
 -8.59738E+02  2.78269E+03 -3.27090E+03  1.17447E+03 -2.84720E+03  9.92391E+02 -3.59209E+03 -1.21435E+03
 -2.03896E+03 -3.47483E+03  1.95592E+03 -4.95795E+03  8.58358E+01 -3.35825E+03  3.23176E+03 -1.26408E+03
  3.52294E+03 -5.76416E+02  2.48105E+03  1.53154E+03 -4.91518E+02  4.66033E+03  8.97816E+02  2.12890E+03
 -2.14932E+03 -4.82545E+02 -1.01599E+03 -2.41163E+02 -1.49391E+03  6.59287E+02  1.99725E+02 -6.11919E+02
 -1.20637E+02 -1.07783E+03 -1.54651E+03 -1.16516E+03  2.68604E+02 -6.18852E+02  2.00201E+02 -1.32606E+03
  1.60421E+03 -1.31546E+03  9.60718E+02 -1.81291E+02  2.23196E+03  1.72521E+03  2.80149E+02  3.01545E+03
 -2.36160E+03  3.13926E+03 -3.79462E+03  1.91895E+03 -3.87325E+03 -1.51184E+02 -2.14627E+03 -9.25706E+02
 -2.64796E+03 -1.90783E+03  1.88584E+03 -2.60511E+03  1.38460E+03 -1.68490E+03  7.77283E+02  8.77435E+02
  2.25352E+03  5.49917E+02  3.91857E+01  8.81835E+01  2.04463E+02 -4.58503E+02  2.51999E+01 -8.60400E+02
  7.34182E+01 -5.08382E+02  1.26899E+03  1.30825E+03  6.83922E+01  7.17355E+02  6.66918E+02  1.98079E+02
 -8.42795E+02  1.08113E+03 -1.34192E+02  2.72766E+02 -2.18082E+03 -8.12739E+02  1.33728E+02 -3.20024E+03
  1.02039E+03 -1.75938E+03  3.34935E+02  4.82478E+02  8.99955E+02 -6.69579E+02  1.12020E+03  1.81979E+03
  8.35510E+02  4.73334E+02 -7.93961E+02  1.40619E+03 -4.69723E+02  7.43905E+02 -1.01397E+02  2.10170E+03
 -7.93051E+02 -6.32754E+02 -1.17947E+03 -1.54413E+02 -6.84789E+02  5.13798E+02 -1.33073E+03 -9.30170E+02
 -7.60621E+02  7.12111E+01 -1.06831E+03 -1.23544E+03  1.71957E+03 -2.02580E+03  1.69244E+03 -1.49747E+03
  9.85502E+02 -5.70414E+02 -1.85389E+02  7.78028E+02  1.39763E+02  1.63903E+03 -1.27924E+03  8.13746E+02
