 $NMID ID='MM_0lb_SNR200_12hz_g60_42.RAW', FMTDAT='(8E13.5)'
 TRAMP=1., VOLUME=1. $END
  3.09674E+05  2.13480E+02  3.38581E+05  2.51302E+05  8.58251E+04  3.37696E+05 -1.32119E+05  2.52540E+05
 -1.91242E+05  8.39813E+04 -1.11368E+05 -3.10603E+04 -6.28996E+02 -5.10815E+04  5.32632E+04 -1.37290E+03
  3.71863E+04  5.21394E+04 -1.71457E+04  7.47137E+04 -6.17985E+04  6.32342E+04 -8.42011E+04  3.13634E+04
 -8.18656E+04 -1.11685E+04 -5.77435E+04 -5.27739E+04 -1.56810E+04 -7.06844E+04  2.71950E+04 -4.57891E+04
  3.99479E+04  4.63911E+03  1.68988E+04  4.95631E+04 -3.52120E+04  4.85066E+04 -6.59411E+04 -8.81880E+02
 -5.44680E+04 -5.68174E+04 -7.04905E+03 -7.71020E+04  3.39543E+04 -5.71349E+04  4.71529E+04 -1.79116E+04
  4.38198E+04  1.15323E+04  3.36695E+04  2.62961E+04  1.43258E+04  3.12823E+04 -5.82088E+03  2.71519E+04
 -2.23215E+04  1.09290E+04 -1.80379E+04 -4.27524E+03  6.96122E+03 -8.37779E+03  2.38834E+04  1.30485E+04
  7.39460E+03  3.70154E+04 -3.31351E+04  3.66089E+04 -6.46577E+04  2.78274E+03 -5.96131E+04 -4.31473E+04
 -1.33846E+04 -6.54087E+04  4.04377E+04 -4.67598E+04  6.02645E+04 -2.42811E+03  3.67849E+04  3.41018E+04
 -5.63950E+03  3.95726E+04 -3.11296E+04  1.67912E+04 -3.15532E+04 -3.81701E+03 -1.85646E+04 -1.27312E+04
 -8.73950E+03 -1.51126E+04  1.01170E+03 -1.84381E+04  9.31630E+03 -2.35806E+04  1.62853E+04 -1.30211E+04
  1.09988E+04  5.88316E+03 -9.75203E+03  1.41366E+04 -2.16263E+04 -6.04631E+03 -8.41343E+03 -3.61955E+04
  2.45126E+04 -4.51863E+04  5.09797E+04 -2.14842E+04  4.92122E+04  2.07505E+04  1.60528E+04  4.62477E+04
 -1.75374E+04  3.57834E+04 -2.94231E+04  2.50136E+03 -1.11453E+04 -2.94574E+04  2.08136E+04 -3.60004E+04
  4.43551E+04 -1.02944E+04  3.90644E+04  2.47156E+04  2.07057E+04  4.89911E+04 -7.89834E+03  5.46100E+04
 -3.46554E+04  3.75910E+04 -4.53384E+04  1.21275E+04 -4.68012E+04 -1.76343E+04 -2.65904E+04 -4.25657E+04
  7.72922E+03 -4.00288E+04  3.27046E+04 -1.52827E+04  3.14293E+04  1.10935E+04  5.17666E+03  1.98321E+04
 -1.40467E+04  1.03356E+04 -1.18046E+04 -7.51589E+03  5.59819E+03 -1.17533E+04  1.93663E+04  5.31020E+03
  1.54154E+04  2.15236E+04 -5.50597E+03  2.65027E+04 -2.26134E+04  1.25061E+04 -3.06480E+04 -3.51776E+03
 -2.30384E+04 -1.80688E+04 -1.10945E+04 -2.31641E+04  3.10538E+03 -2.41261E+04  1.95516E+04 -2.13992E+04
  3.06188E+04 -1.37005E+04  3.72264E+04  6.11387E+03  2.55355E+04  2.33841E+04  4.56379E+03  4.10194E+04
 -1.85475E+04  3.29317E+04 -2.99324E+04  1.04465E+04 -2.19211E+04 -9.96121E+03 -5.38951E+03 -1.14699E+04
  1.15476E+03 -1.09783E+03 -6.14605E+03  8.30091E+03 -1.83538E+04  4.27217E+03 -1.79098E+04 -8.05600E+03
 -1.04134E+04 -2.19660E+04  6.21598E+03 -2.56304E+04  1.56844E+04 -1.89085E+04  2.10352E+04 -2.56018E+03
  1.43545E+04  1.49463E+04 -7.16202E+02  2.04542E+04 -1.52459E+04  1.36254E+04 -2.13311E+04 -3.93980E+03
 -1.61483E+04 -1.99595E+04 -6.54003E+02 -2.63390E+04  1.24070E+04 -2.20755E+04  2.19634E+04 -1.20430E+04
  2.15392E+04  3.94423E+02  1.40738E+04  4.74574E+03  8.05241E+03  1.45998E+03  1.09524E+04 -1.87918E+03
  2.06076E+04  4.13963E+03  2.30293E+04  1.49021E+04  1.56222E+04  3.40077E+04 -1.65384E+03  3.97107E+04
 -2.24834E+04  3.39262E+04 -3.70668E+04  1.67191E+04 -3.87654E+04 -1.61292E+03 -3.28625E+04 -2.34808E+04
 -1.35003E+04 -3.33143E+04  1.11965E+04 -3.09408E+04  2.46154E+04 -1.29593E+04  2.09752E+04  8.88729E+03
  7.38749E+03  1.75135E+04 -1.00006E+04  1.24621E+04 -1.83583E+04  3.10162E+03 -1.28030E+04 -1.19520E+04
 -1.55143E+03 -1.68176E+04  9.94085E+03 -1.32464E+04  1.24744E+04 -1.55884E+03  1.96904E+03  7.41424E+03
 -9.58162E+03  4.38051E+03 -7.47999E+03 -7.08274E+03 -2.26515E+03 -1.50649E+04  1.03883E+04 -1.68894E+04
  2.06529E+04 -1.09782E+04  2.32686E+04  3.78717E+03  2.15873E+04  1.42629E+04  8.78610E+03  2.59338E+04
 -4.43905E+03  2.72455E+04 -1.84580E+04  1.62771E+04 -1.89983E+04  3.77629E+03 -1.49684E+04 -4.88341E+03
 -5.37234E+03 -6.48794E+03  8.00819E+01 -1.03472E+02 -3.15056E+03  4.39938E+03 -5.97778E+03  5.31113E+03
 -1.30138E+04 -1.03717E+02 -1.35388E+04 -1.16009E+04 -5.75042E+03 -1.69998E+04  5.54630E+03 -1.56998E+04
  9.65518E+03 -7.22103E+03  8.25889E+03  3.92756E+03  4.55284E+02  4.75259E+03 -7.03376E+03  9.27274E+02
 -7.30243E+03 -9.16260E+03 -1.43784E+03 -1.41980E+04  7.07382E+03 -1.43534E+04  1.81132E+04 -8.11401E+03
  1.99857E+04  2.60078E+03  1.54982E+04  1.21771E+04  3.55657E+03  1.64197E+04 -7.55110E+03  1.44242E+04
 -1.06515E+04  4.66452E+03 -6.56793E+03 -2.35082E+03  1.89822E+03 -3.89759E+03  6.35577E+03 -5.14674E+02
  6.88848E+03  6.82419E+03  1.36291E+03  1.14163E+04 -7.15482E+03  9.66889E+03 -1.35702E+04  1.81224E+03
 -8.74367E+03 -7.25805E+03  3.61853E+01 -1.19781E+04  7.41183E+03 -5.85934E+03  6.92883E+03  2.39406E+03
  1.62576E+03  7.10969E+03 -6.80917E+03  9.41402E+03 -1.09432E+04  4.17137E+03 -1.10898E+04 -3.19160E+03
 -6.47267E+03 -1.36856E+04  2.57642E+03 -1.55795E+04  1.24443E+04 -1.01277E+04  1.28682E+04  3.05954E+03
  8.13742E+03  1.20978E+04 -8.74289E+02  1.18590E+04 -9.32409E+03  7.00997E+03 -1.17792E+04 -3.04620E+02
 -8.36745E+03 -8.21472E+03 -1.70897E+03 -9.70458E+03  5.39225E+03 -8.22503E+03  5.89995E+03 -3.98043E+03
  3.61978E+03  1.65534E+03 -6.51113E+02  1.62564E+03  1.26438E+02 -2.15113E+03  2.60939E+03 -7.56231E+03
  7.73679E+03 -3.50340E+03  1.30699E+04  1.77029E+03  1.19722E+04  8.51289E+03  7.84301E+03  1.70527E+04
 -5.13887E+03  1.90626E+04 -1.70573E+04  1.47977E+04 -1.96796E+04  2.32731E+03 -1.69447E+04 -6.36104E+03
 -1.05080E+04 -1.39693E+04  1.78079E+01 -1.03621E+04  3.38152E+03 -3.49546E+03  3.30797E+03 -3.44495E+03
  3.47623E+03 -2.23220E+03  3.46807E+03 -2.41624E+03  4.46648E+03 -2.10312E+03  6.12880E+03 -3.09043E+02
  8.74341E+03  1.94893E+03  3.84221E+03  7.67053E+03 -6.56065E+02  7.50542E+03 -9.72694E+03  7.52189E+03
 -1.33135E+04 -4.01135E+02 -6.84814E+03 -8.07322E+03 -1.97685E+03 -1.30703E+04  6.99015E+03 -1.30294E+04
  1.23725E+04 -7.42095E+03  1.56274E+04  2.88485E+03  1.11137E+04  9.72924E+03  2.72256E+03  1.34910E+04
 -6.24512E+03  1.07511E+04 -8.38073E+03  4.16772E+03 -5.57968E+03 -1.05667E+03 -1.66079E+03 -1.27682E+03
 -7.23858E+02 -8.23685E+02 -3.06510E+03  3.49611E+03 -4.83625E+03  1.37508E+03 -8.25237E+03 -1.23614E+03
 -5.62505E+03 -6.95991E+03 -7.60325E+02 -1.19797E+04  6.27078E+03 -9.98374E+03  1.05744E+04 -3.69375E+03
  1.11822E+04  4.49152E+03  5.70130E+03  9.98558E+03 -2.19079E+03  1.16153E+04 -8.10447E+03  7.12778E+03
 -9.68799E+03 -8.80815E+02 -8.75330E+03 -7.20809E+03 -5.47618E+02 -8.85034E+03  5.86016E+03 -7.78362E+03
  7.35779E+03 -3.17430E+03  4.59776E+03  1.58948E+03  1.97481E+03  1.35691E+03  1.56200E+03  1.73324E+03
  2.45684E+03 -6.19992E+02  2.28047E+03  1.84040E+03  2.52629E+03  4.31902E+03  2.11420E+03  5.34406E+03
 -3.34327E+03  8.01741E+03 -7.47496E+03  8.44252E+03 -9.83341E+03  1.78667E+03 -1.05864E+04 -3.75970E+03
 -5.26484E+03 -1.11557E+04  2.83733E+03 -1.08364E+04  6.93779E+03 -7.98253E+03  8.37361E+03 -2.69715E+03
  6.35249E+03  5.23806E+03  1.56942E+03  6.95478E+03 -2.06319E+03  2.52719E+03 -4.66343E+03 -1.14974E+03
 -3.17723E+03 -3.83701E+03  3.53651E+03 -4.00880E+03  4.99194E+03 -2.75050E+03  4.96300E+03  5.09738E+02
  3.51877E+03  1.68059E+03  2.11631E+03  6.19758E+02 -2.22699E+03  1.79712E+03  2.27171E+03  2.96487E+02
  1.29259E+03 -7.85835E+02  4.47071E+03  1.77556E+03  2.48714E+03  6.68018E+03 -7.52106E+02  7.22478E+03
 -4.68586E+03  3.95964E+03 -5.98751E+03 -5.36510E+01 -6.90868E+03 -1.53682E+03 -4.39474E+03 -4.60383E+03
  2.56725E+03 -3.71351E+03  2.01831E+03 -2.46111E+03  3.75632E+03  3.40131E+03 -1.20402E+03  3.63320E+03
 -4.61520E+03  2.24542E+03 -4.70621E+03 -1.44653E+03 -3.21302E+03 -6.21202E+03  1.71390E+03 -4.89517E+03
  3.76192E+03 -1.67871E+03  2.88436E+03 -1.28526E+03  3.52605E+03 -1.23648E+03  1.79562E+03  3.92482E+03
 -9.31662E+02  5.69525E+02 -2.89122E+03 -3.07089E+03 -8.37822E+02 -3.11765E+03  5.42879E+03 -3.04511E+03
  6.81785E+03  8.43286E+02  7.28542E+03  4.73552E+03  2.61937E+03  7.08077E+03 -2.12715E+03  5.93814E+03
 -5.46106E+03  3.56863E+03 -7.06327E+03 -7.70409E+02 -2.97504E+03 -4.63024E+03  4.43815E+02 -2.89450E+03
  5.18604E+03 -1.80663E+03  3.23812E+03  2.80345E+03  8.98878E+02  4.24371E+03 -7.62844E+02  2.85554E+03
 -2.31236E+03  2.36056E+03 -2.38533E+03  1.34618E+03 -4.25469E+02  1.30984E+03 -1.01919E+03  1.84169E+03
 -2.11692E+03  2.37741E+03 -4.62496E+03  1.48258E+03 -7.24302E+03  3.58756E+02 -8.39311E+03 -3.14627E+03
 -4.03649E+03 -8.14279E+03  2.95292E+03 -1.09098E+04  4.37743E+03 -7.77017E+03  8.75652E+03 -1.77961E+03
  7.41348E+03  1.89195E+03  4.20845E+03  6.19356E+03  4.02855E+02  7.01428E+03 -2.25279E+03  5.55973E+03
 -4.23145E+03  9.69211E+02 -2.81126E+03 -4.44899E+02 -2.46752E+03 -1.24049E+03 -1.53261E+03  7.51172E+02
 -9.43338E+02  2.72674E+02 -1.21840E+03 -3.29912E+01 -7.15649E+02 -1.76090E+03 -6.94831E+02 -1.68918E+03
  2.45952E+03 -8.23982E+02  3.79296E+03 -6.20810E+02  5.58869E+03  3.14971E+03 -1.14809E+03  7.21216E+03
 -3.48350E+03  7.92055E+03 -6.08058E+03  3.31532E+03 -7.01555E+03 -1.97499E+03 -5.77970E+03 -5.11180E+03
 -3.05034E+03 -5.63033E+03  2.53550E+03 -5.76661E+03  2.69484E+03 -3.21336E+03  3.69664E+03  4.59117E+01
  3.19400E+03  2.07660E+03  1.06215E+03  1.48931E+03 -5.31808E+02  8.16290E+02  1.00459E+03 -1.09200E+03
  1.99363E+03 -8.98919E+02  3.30227E+03  5.68169E+02  4.77644E+02  3.21267E+03  9.91446E+02  4.49585E+03
 -2.34269E+03  1.81442E+03 -4.49464E+03  2.18309E+02 -3.36999E+03 -3.61394E+03 -3.19494E+02 -4.92030E+03
  3.50573E+03 -4.69820E+03  5.13610E+03 -1.57247E+03  4.80620E+03  4.14914E+02  3.69711E+03  3.74465E+03
  1.12932E+03  2.70263E+03 -8.84925E+02  3.20855E+03 -1.54547E+03  1.84044E+03 -2.49666E+03 -3.97281E+02
 -4.13085E+02 -9.42067E+01 -9.99208E+02  3.60317E+02 -9.07438E+02  1.12292E+03 -3.76024E+03 -2.19648E+03
 -3.41673E+03 -1.72213E+03 -1.37870E+03 -2.89249E+03  2.15589E+03 -3.64006E+03  3.13161E+03 -2.31786E+03
  4.42311E+03  9.52601E+02  6.04140E+02  3.11602E+03  2.98542E+02  4.42065E+03 -2.03492E+03  2.14230E+03
