 $NMID ID='MM_0lb_SNR200_15hz_g50_100.RAW', FMTDAT='(8E13.5)'
 TRAMP=1., VOLUME=1. $END
  3.10900E+05  1.10695E+03  3.37413E+05  2.50907E+05  8.47516E+04  3.38163E+05 -1.32227E+05  2.51057E+05
 -1.90047E+05  8.33367E+04 -1.11804E+05 -3.27343E+04  1.69280E+03 -4.98998E+04  5.33409E+04  1.60846E+02
  3.53199E+04  5.28041E+04 -1.68748E+04  7.59603E+04 -6.02320E+04  6.31822E+04 -8.43944E+04  3.19659E+04
 -8.00728E+04 -1.07258E+04 -5.60655E+04 -5.08581E+04 -1.46442E+04 -6.97408E+04  2.77796E+04 -4.53515E+04
  3.92301E+04  5.16887E+03  1.69993E+04  4.83504E+04 -3.52703E+04  4.76683E+04 -6.66985E+04 -1.61380E+02
 -5.32918E+04 -5.76491E+04 -6.58377E+03 -7.60204E+04  3.40413E+04 -5.51701E+04  4.71793E+04 -1.73362E+04
  4.40345E+04  1.17711E+04  3.17699E+04  2.59694E+04  1.54542E+04  2.92308E+04 -4.68533E+03  2.73854E+04
 -2.17752E+04  1.17563E+04 -1.87765E+04 -4.36009E+03  5.32114E+03 -8.11269E+03  2.16908E+04  1.13859E+04
  6.86016E+03  3.42234E+04 -3.11241E+04  3.41603E+04 -6.17121E+04  3.26977E+03 -5.67029E+04 -4.27429E+04
 -1.30367E+04 -6.20242E+04  3.86832E+04 -4.45123E+04  5.83297E+04 -1.01499E+03  3.40755E+04  3.36887E+04
 -6.94036E+03  3.69790E+04 -2.96008E+04  1.58717E+04 -2.93203E+04 -3.60539E+03 -1.67430E+04 -1.00632E+04
 -8.60370E+03 -1.45106E+04 -1.12462E+03 -1.78455E+04  8.11429E+03 -2.30556E+04  1.44647E+04 -1.34295E+04
  1.26824E+04  5.03178E+03 -6.97979E+03  1.40909E+04 -2.04372E+04 -4.18365E+03 -9.29163E+03 -3.32051E+04
  2.28906E+04 -4.26008E+04  4.77801E+04 -1.77090E+04  4.48369E+04  1.87447E+04  1.62305E+04  4.23250E+04
 -1.64140E+04  3.25077E+04 -2.49622E+04  1.13773E+03 -8.28551E+03 -2.77691E+04  2.00252E+04 -3.34908E+04
  3.97392E+04 -9.30906E+03  3.57877E+04  2.26294E+04  1.74781E+04  4.49416E+04 -8.34302E+03  4.96557E+04
 -3.11689E+04  3.36551E+04 -4.10112E+04  8.26035E+03 -4.27038E+04 -1.58594E+04 -2.22015E+04 -3.73028E+04
  6.88581E+03 -3.66111E+04  3.12107E+04 -1.33551E+04  2.77341E+04  1.06720E+04  3.57034E+03  1.95322E+04
 -1.24936E+04  7.86670E+03 -1.00678E+04 -8.05012E+03  5.08448E+03 -1.09336E+04  1.82015E+04  6.32915E+03
  1.32647E+04  2.23838E+04 -5.59761E+03  2.42182E+04 -2.26691E+04  1.11550E+04 -2.71936E+04 -5.25795E+03
 -1.99159E+04 -1.74137E+04 -8.36884E+03 -1.91403E+04  4.29135E+03 -1.82992E+04  1.54458E+04 -1.73723E+04
  2.45886E+04 -1.26181E+04  3.11284E+04  3.05991E+03  2.27727E+04  1.89804E+04  3.91131E+03  3.38035E+04
 -1.71407E+04  3.00926E+04 -2.70028E+04  9.82273E+03 -2.07377E+04 -1.02855E+04 -3.54574E+03 -1.36200E+04
  2.21242E+03 -3.24511E+03 -5.36395E+03  7.53186E+03 -1.59855E+04  4.24400E+03 -1.62318E+04 -5.44292E+03
 -9.90486E+03 -1.91767E+04  5.80514E+03 -2.21688E+04  1.41615E+04 -1.55734E+04  1.63740E+04 -9.58719E+02
  1.08550E+04  1.36333E+04 -2.51794E+03  1.79595E+04 -1.28341E+04  1.03060E+04 -1.73329E+04 -4.97257E+03
 -1.31674E+04 -1.64550E+04 -3.04286E+03 -2.26971E+04  9.34831E+03 -1.77862E+04  1.97417E+04 -9.97619E+03
  1.87975E+04  8.91590E-01  1.30635E+04  3.25120E+03  6.01907E+03  5.70604E+02  9.74227E+03 -1.75329E+03
  1.55595E+04  3.16954E+03  1.91052E+04  1.49897E+04  1.21619E+04  2.90414E+04 -2.67146E+03  3.24839E+04
 -1.95659E+04  2.64121E+04 -3.04892E+04  1.37725E+04 -3.16174E+04 -2.64263E+03 -2.59915E+04 -1.85650E+04
 -1.23598E+04 -2.68274E+04  7.68870E+03 -2.41240E+04  2.10607E+04 -1.24238E+04  1.73825E+04  5.08517E+03
  6.89510E+03  1.39061E+04 -8.83459E+03  1.25234E+04 -1.50654E+04  1.26087E+03 -1.20984E+04 -9.96308E+03
 -1.07718E+02 -1.47461E+04  6.98528E+03 -1.10895E+04  9.17070E+03 -1.05327E+03  2.57390E+03  6.01525E+03
 -6.89907E+03  1.73665E+03 -4.93697E+03 -5.90345E+03 -6.64825E+02 -1.32530E+04  8.28579E+03 -1.27763E+04
  1.56668E+04 -6.17199E+03  1.64481E+04  3.02584E+03  1.45796E+04  1.18020E+04  7.55110E+03  1.94208E+04
 -3.85507E+03  1.94874E+04 -1.36006E+04  1.31291E+04 -1.46050E+04  3.42915E+03 -1.14906E+04 -3.80597E+03
 -5.96778E+03 -4.72486E+03 -2.88816E+02  2.44699E+03 -2.75105E+03  2.09618E+03 -4.30117E+03  3.58419E+03
 -9.44989E+03  4.86177E+02 -1.01678E+04 -7.40538E+03 -4.31015E+03 -1.38646E+04  4.99217E+03 -1.03750E+04
  8.77450E+03 -5.09609E+03  6.97195E+03  2.71839E+03  1.27944E+03  6.72577E+03 -5.56062E+03 -8.85067E+02
 -4.70729E+03 -5.58064E+03 -2.82559E+02 -8.77062E+03  5.57888E+03 -9.95583E+03  1.45723E+04 -4.93198E+03
  1.48018E+04  1.58947E+03  1.28075E+04  9.27375E+03  2.41639E+03  1.22216E+04 -6.22565E+03  1.11826E+04
 -8.86529E+03  3.84454E+03 -4.99235E+03 -2.50727E+03  2.19417E+03 -2.69952E+03  5.64390E+03 -8.76997E+02
  4.75155E+03  3.29718E+03  1.44766E+03  8.63481E+03 -7.20282E+03  7.19886E+03 -1.03933E+04  1.95424E+03
 -5.28753E+03 -4.42455E+03 -2.40981E+02 -8.45679E+03  5.60273E+03 -4.26954E+03  6.01329E+03  1.14273E+03
  1.19230E+03  5.29898E+03 -4.61967E+03  6.51211E+03 -7.61766E+03  3.50148E+03 -6.71638E+03 -2.96504E+03
 -3.83286E+03 -9.50422E+03  1.39624E+03 -1.06155E+04  7.97649E+03 -5.34570E+03  8.18233E+03  1.22122E+03
  4.91158E+03  5.93839E+03  4.47472E+01  9.80637E+03 -7.95474E+03  6.58849E+03 -7.59724E+03 -8.06564E+02
 -7.69356E+03 -7.82399E+03 -2.28954E+03 -7.41934E+03  4.51532E+03 -5.38498E+03  4.58891E+03 -3.74336E+03
  3.39050E+03  5.87453E+02 -5.15210E+02  1.65172E+03  9.98788E+02 -1.49231E+03  1.39048E+03 -3.79169E+03
  6.30050E+03 -2.69215E+03  8.58962E+03  7.90071E+02  8.75216E+03  5.41249E+03  7.51356E+03  1.16469E+04
 -3.45342E+03  1.44661E+04 -1.15824E+04  8.64211E+03 -1.48698E+04  2.50297E+03 -1.26385E+04 -4.79849E+03
 -5.01518E+03 -9.40455E+03 -9.41150E+01 -7.47116E+03  2.51757E+03 -5.79702E+03  3.03463E+03 -2.20882E+03
  1.93443E+03 -2.29911E+03  2.85976E+03 -2.21694E+03  3.28971E+03 -2.30007E+03  4.66294E+03 -1.24133E+03
  6.00431E+03  2.33135E+03  2.80702E+03  5.03495E+03 -2.41935E+03  4.87488E+03 -6.75135E+03  5.10185E+03
 -6.84992E+03 -7.48228E+02 -3.84423E+03 -4.28088E+03  1.72609E+02 -8.67125E+03  5.37014E+03 -8.59731E+03
  8.44485E+03 -5.17692E+03  9.75350E+03  1.00664E+03  6.58879E+03  6.49205E+03  8.31902E+02  8.93740E+03
 -3.56624E+03  8.46331E+03 -5.53793E+03  2.02690E+03 -3.63163E+03 -7.04102E+02 -7.37750E+02 -1.52378E+03
 -1.05797E+02  1.85984E+03  7.26896E+02  2.34537E+03 -3.20115E+03  1.55659E+03 -4.49376E+03 -7.20332E+02
 -3.40799E+03 -5.51800E+03  2.24068E+03 -7.20664E+03  2.98051E+03 -6.42904E+03  6.96796E+03 -2.77948E+03
  7.25320E+03  3.50762E+03  3.22257E+03  5.64813E+03 -1.23113E+03  7.31139E+03 -5.09846E+03  3.51098E+03
 -5.68454E+03  1.40073E+02 -4.51555E+03 -4.40668E+03 -9.36301E+02 -5.86125E+03  3.30041E+03 -3.48601E+03
  3.99727E+03 -1.55011E+03  2.51310E+03  2.64721E+02  1.34477E+03  1.58873E+03  2.49192E+02  4.86479E+02
  6.20568E+02  9.86740E+02  1.52709E+03  3.04047E+02  2.02995E+03  2.82273E+03  3.75811E+03  3.17356E+03
 -1.57524E+03  5.08309E+03 -2.72617E+03  6.12497E+03 -5.92483E+03  9.84131E+02 -6.49777E+03 -2.14084E+03
 -3.73674E+03 -6.49533E+03 -2.88443E+02 -6.96675E+03  2.33222E+03 -4.03245E+03  4.41351E+03 -8.80056E+02
  4.33884E+03  1.99046E+03  1.20399E+03  4.06647E+03 -1.11795E+03  1.87022E+03 -1.57009E+03  5.74038E+02
  4.06990E+02 -3.00370E+03  2.02161E+03 -1.83646E+03  2.20681E+03 -4.60128E+02  1.96017E+03  1.01662E+03
  2.28123E+03  7.54524E+02  1.80852E+03  1.05845E+03 -3.31281E+02  1.26429E+03  1.55924E+03  1.12581E+02
  2.51859E+01 -3.84451E+02  2.84185E+03  2.50689E+03  5.38135E+02  3.18519E+03 -9.02365E+02  5.01041E+03
 -3.14255E+03  2.07922E+03 -4.46000E+03  1.20991E+03 -4.38579E+03 -1.61715E+03 -6.34503E+02 -2.27444E+03
 -3.42813E+01 -2.45627E+03  2.88848E+03 -2.02967E+03  7.72743E+02  7.89724E+02 -8.34156E+02  2.22354E+03
 -2.76677E+03  1.35179E+03 -2.45817E+03 -1.74432E+03 -2.26802E+03 -3.35826E+03  8.76831E+02 -2.77660E+03
  1.37221E+03 -1.80840E+03  2.25983E+03 -6.97141E+02  2.56157E+03  1.26743E+02  1.94782E+02  2.89752E+03
 -4.04909E+02 -4.01084E+02 -1.27860E+03 -4.91914E+02  8.58335E+02 -2.21319E+03  3.31820E+03 -3.17523E+03
  2.86114E+03 -5.73247E+02  3.59237E+03  1.54422E+03  1.74286E+03  2.88391E+03 -1.84809E+03  3.25158E+03
 -3.42461E+03  1.98420E+03 -3.45765E+03 -1.18587E+03 -1.19622E+03 -3.00169E+03  4.68816E+02 -6.52866E+02
  2.20156E+03 -1.92017E+03  1.38464E+03  2.56227E+02  5.17768E+02  1.54251E+03  6.88979E+02  1.67730E+03
  5.53070E+01  1.35875E+03 -3.67116E+02  5.32859E+02 -7.09708E+02  7.13652E+02 -8.22508E+02 -4.86916E+02
 -2.23636E+03  2.77815E+03 -2.00395E+03  9.59463E+02 -2.75188E+03  8.71834E+02 -4.35177E+03 -1.98732E+03
 -2.25736E+03 -3.68442E+03  1.53369E+03 -3.91331E+03  2.45143E+03 -4.70867E+03  4.80377E+03 -2.58730E+03
  5.91201E+03  2.77720E+02  3.31227E+03  1.47778E+03 -1.13122E+03  2.90378E+03 -2.21320E+03  5.51156E+02
 -2.55324E+03  4.72878E+02 -3.07716E+02  2.75500E+02 -1.74037E+03 -3.63798E+02 -1.41026E+03  6.73755E+02
 -1.11667E+03  1.33397E+02 -1.38912E+03 -5.02873E+02 -2.43549E+02 -1.33342E+03 -1.29299E+03 -2.56259E+03
  2.57148E+03 -1.43774E+03  1.82471E+03  5.03835E+02  1.53003E+03  2.34856E+03  7.71897E+02  3.24045E+03
 -1.08060E+03  3.19821E+03 -2.73141E+03  2.41664E+03 -3.47492E+03 -8.80991E+02 -3.10189E+03 -2.48453E+03
 -1.72992E+03 -2.98833E+03 -2.69287E+02 -2.95174E+03  2.11889E+03 -2.23360E+03  1.24957E+03  6.96724E+02
 -6.37074E+02  4.06427E+02 -4.32241E+02  1.41277E+03 -1.02860E+03  3.16553E+02 -9.72384E+01 -1.44808E+02
  1.67419E+03 -6.80321E+02  1.27182E+03  2.16681E+02 -3.28990E+02  1.19154E+03  2.32171E+02  1.51290E+03
 -1.45967E+03  1.63771E+03 -1.19631E+03  2.84153E+01 -2.03730E+03 -1.06585E+03  3.78004E+01 -2.30601E+03
  2.14775E+03 -2.29961E+03  8.50467E+02 -1.30529E+02  2.43374E+03 -9.06290E+02  1.82488E+03  1.97108E+03
  5.46258E+02  9.03980E+02 -1.20942E+03  1.16849E+03 -1.58540E+03  7.78425E+02 -1.05194E+03  1.29463E+03
  2.79448E+02  4.41329E+02 -1.71167E+02 -2.66093E+02  3.69121E+02 -7.11940E+01 -5.16453E+02 -8.24218E+02
 -1.68566E+03 -3.26602E+02 -5.79960E+02 -3.23465E+03  3.45166E+02 -2.04782E+03  2.01612E+03 -7.22007E+02
  1.70461E+03  1.77187E+01  2.89928E+02  1.38240E+03 -4.42538E+02  2.15697E+03 -9.77636E+02  5.60603E+02
