 $NMID ID='MM_0lb_SNR200_15hz_g50_48.RAW', FMTDAT='(8E13.5)'
 TRAMP=1., VOLUME=1. $END
  3.10191E+05  6.17279E+02  3.36748E+05  2.50890E+05  8.41103E+04  3.38128E+05 -1.32701E+05  2.49651E+05
 -1.90042E+05  8.27068E+04 -1.11553E+05 -3.26112E+04  7.14920E+02 -5.12464E+04  5.44260E+04 -4.16966E+02
  3.50727E+04  5.28688E+04 -1.78309E+04  7.51156E+04 -6.10453E+04  6.34016E+04 -8.31627E+04  3.20360E+04
 -8.10481E+04 -1.11653E+04 -5.70828E+04 -5.17885E+04 -1.48604E+04 -6.83097E+04  2.65101E+04 -4.53601E+04
  3.96718E+04  5.15645E+03  1.64999E+04  4.68844E+04 -3.38024E+04  4.60803E+04 -6.71911E+04  1.61654E+02
 -5.36658E+04 -5.71808E+04 -6.47804E+03 -7.64787E+04  3.34143E+04 -5.42172E+04  4.83429E+04 -1.77585E+04
  4.29698E+04  1.10947E+04  3.21671E+04  2.53430E+04  1.53631E+04  2.86620E+04 -4.57300E+03  2.67891E+04
 -2.21698E+04  1.22892E+04 -1.88791E+04 -4.22711E+03  4.52515E+03 -7.94299E+03  2.15528E+04  1.31317E+04
  8.42940E+03  3.51016E+04 -3.09627E+04  3.53025E+04 -6.32688E+04  1.54638E+03 -5.59696E+04 -4.18085E+04
 -1.28046E+04 -6.29840E+04  3.77962E+04 -4.54936E+04  5.84179E+04 -1.59698E+03  3.32662E+04  3.24892E+04
 -4.46155E+03  3.53270E+04 -2.94172E+04  1.53823E+04 -2.96844E+04 -5.62291E+03 -1.64407E+04 -1.00248E+04
 -8.76355E+03 -1.24429E+04 -1.04502E+03 -1.68821E+04  7.97504E+03 -2.30177E+04  1.53770E+04 -1.39602E+04
  1.14335E+04  5.09373E+03 -7.80759E+03  1.32500E+04 -2.01394E+04 -4.64555E+03 -8.08209E+03 -3.27867E+04
  2.31397E+04 -4.25349E+04  4.74460E+04 -1.89520E+04  4.33768E+04  1.90381E+04  1.57670E+04  4.40381E+04
 -1.65438E+04  3.31510E+04 -2.51538E+04  1.69400E+03 -8.92387E+03 -2.78073E+04  2.09373E+04 -3.33900E+04
  4.08203E+04 -1.05007E+04  3.53499E+04  2.39151E+04  1.82054E+04  4.57984E+04 -8.14183E+03  4.89861E+04
 -3.12747E+04  3.32832E+04 -4.14641E+04  8.70879E+03 -4.21306E+04 -1.59238E+04 -2.19938E+04 -3.77589E+04
  6.32574E+03 -3.73378E+04  3.15225E+04 -1.53970E+04  2.93555E+04  1.15597E+04  4.31009E+03  1.89497E+04
 -1.32358E+04  8.11844E+03 -1.19462E+04 -7.60201E+03  5.25608E+03 -1.07868E+04  1.86807E+04  5.25874E+03
  1.39195E+04  2.19490E+04 -6.22661E+03  2.48207E+04 -2.14534E+04  1.14492E+04 -2.64467E+04 -4.84367E+03
 -2.02709E+04 -1.74885E+04 -8.70917E+03 -2.03647E+04  2.75215E+03 -1.88978E+04  1.40294E+04 -1.77319E+04
  2.55028E+04 -1.31488E+04  3.20046E+04  2.33794E+03  2.21885E+04  1.91761E+04  5.17944E+03  3.55535E+04
 -1.76291E+04  2.85409E+04 -2.67629E+04  8.80275E+03 -2.13912E+04 -1.04683E+04 -3.94779E+03 -1.29788E+04
  1.23253E+03 -1.42676E+03 -4.05756E+03  6.51255E+03 -1.57725E+04  5.32422E+03 -1.56797E+04 -6.27108E+03
 -9.79837E+03 -1.90070E+04  4.50664E+03 -2.25884E+04  1.42823E+04 -1.71302E+04  1.67910E+04 -1.68167E+03
  1.08252E+04  1.35975E+04 -2.61171E+03  1.86501E+04 -1.40559E+04  9.42158E+03 -1.72951E+04 -3.37795E+03
 -1.33828E+04 -1.72296E+04 -1.22296E+03 -2.10974E+04  9.30451E+03 -1.84350E+04  1.82034E+04 -8.73714E+03
  1.73233E+04  5.77646E+01  1.30522E+04  4.37694E+03  6.21161E+03  8.67127E+02  8.31441E+03 -2.27116E+03
  1.78123E+04  2.55605E+03  1.86660E+04  1.52144E+04  1.17274E+04  2.94731E+04 -1.69250E+03  3.16014E+04
 -1.89186E+04  2.57122E+04 -3.02474E+04  1.38304E+04 -3.20164E+04 -3.34368E+03 -2.55699E+04 -1.80049E+04
 -1.15794E+04 -2.69524E+04  9.13287E+03 -2.36424E+04  2.11211E+04 -1.23372E+04  1.84500E+04  5.88902E+03
  6.86132E+03  1.33817E+04 -8.50695E+03  1.26874E+04 -1.57327E+04  3.01818E+03 -1.19381E+04 -9.69940E+03
 -5.27316E+02 -1.48141E+04  8.05190E+03 -1.04369E+04  8.97814E+03 -1.63329E+03  2.76038E+03  5.99276E+03
 -7.04917E+03  2.44431E+03 -5.58964E+03 -6.78752E+03  5.53468E+02 -1.20558E+04  8.85036E+03 -1.27351E+04
  1.71277E+04 -6.32342E+03  1.68436E+04  3.94790E+03  1.58294E+04  1.16364E+04  6.73268E+03  1.90565E+04
 -2.90654E+03  2.11171E+04 -1.43927E+04  1.23704E+04 -1.41821E+04  2.85308E+03 -9.38709E+03 -2.57980E+03
 -4.98020E+03 -3.67864E+03 -6.98861E+02  1.40315E+03 -8.38713E+02  2.06043E+03 -5.22056E+03  4.45669E+03
 -9.53524E+03 -3.93074E+02 -1.02212E+04 -8.45866E+03 -4.37883E+03 -1.43392E+04  3.62168E+03 -1.04280E+04
  9.69464E+03 -3.63545E+03  6.87707E+03  3.03405E+03 -8.96085E+02  4.31824E+03 -2.86208E+03  5.42124E+02
 -3.92594E+03 -6.09167E+03 -8.83665E+02 -8.92328E+03  5.54086E+03 -1.15994E+04  1.22892E+04 -6.56687E+03
  1.59075E+04  3.28735E+02  1.22236E+04  8.60763E+03  2.58275E+03  1.13775E+04 -6.22415E+03  9.47566E+03
 -8.42712E+03  3.52338E+03 -3.78225E+03 -2.23902E+03  2.43617E+03 -2.46871E+03  5.16465E+03 -5.14796E+02
  5.23736E+03  5.09669E+03  2.23376E+03  8.87145E+03 -7.29876E+03  9.40625E+03 -1.06978E+04  2.14718E+03
 -6.01555E+03 -5.41840E+03  6.98306E+02 -8.47258E+03  4.74080E+03 -4.20863E+03  5.42930E+03  2.12729E+03
  8.32033E+02  6.31947E+03 -6.62876E+03  6.87874E+03 -8.67341E+03  3.79387E+03 -7.24182E+03 -3.32855E+03
 -5.46506E+03 -1.02102E+04  2.12682E+03 -1.03071E+04  8.63501E+03 -7.41641E+03  9.05785E+03  2.01115E+03
  6.20080E+03  7.00439E+03 -1.51861E+03  1.02423E+04 -7.55924E+03  6.07283E+03 -7.88665E+03 -2.06921E+02
 -6.75196E+03 -7.80784E+03 -9.32250E+02 -7.24121E+03  3.48168E+03 -7.40289E+03  3.86823E+03 -2.97582E+03
  4.90833E+03  8.85385E+02 -1.37174E+02  1.89299E+03  1.31510E+02 -6.64943E+02  7.94226E+02 -2.76940E+03
  5.92277E+03 -2.57973E+03  7.44724E+03  2.37018E+02  9.28546E+03  4.93685E+03  7.05869E+03  1.15540E+04
 -2.49834E+03  1.24419E+04 -9.30869E+03  1.01298E+04 -1.44951E+04  1.96816E+03 -1.18500E+04 -3.88862E+03
 -6.43464E+03 -8.19635E+03 -5.41812E+01 -8.51512E+03  3.71571E+03 -3.20086E+03  3.23600E+03 -2.91158E+03
  2.40811E+03 -2.04064E+03  3.02986E+03 -3.14306E+03  4.06552E+03 -1.67779E+03  4.66011E+03 -6.72887E+02
  6.39275E+03  3.03737E+03  3.24355E+03  5.03822E+03 -1.31038E+03  5.51303E+03 -6.52950E+03  4.46166E+03
 -9.37120E+03 -8.40556E+02 -4.11987E+03 -3.99030E+03 -2.29934E+02 -7.93526E+03  4.98799E+03 -6.90654E+03
  8.64287E+03 -4.11272E+03  1.04937E+04  1.64186E+03  7.18333E+03  7.18625E+03  1.48867E+03  8.09237E+03
 -3.49732E+03  8.72377E+03 -3.66707E+03  3.36365E+03 -3.71435E+03  1.37166E+02 -1.53372E+03 -2.34493E+03
  2.55037E+02 -3.83289E+02 -2.23273E+03  1.84254E+03 -3.68914E+03  5.07174E+02 -6.09581E+03  8.90708E+02
 -2.37428E+03 -4.51810E+03  1.18084E+03 -7.46657E+03  4.09398E+03 -5.57264E+03  6.12943E+03 -1.77350E+03
  5.97758E+03  3.92264E+03  3.47507E+03  5.64632E+03 -2.46104E+03  7.20457E+03 -4.88348E+03  4.48846E+03
 -6.83684E+03  1.61606E+03 -6.27949E+03 -3.51044E+03 -3.55708E+02 -6.19157E+03  2.59638E+03 -3.17085E+03
  3.93558E+03 -1.21749E+01  3.85243E+03  5.67504E+01  2.13727E+02  2.58880E+03  3.38859E+02  1.14936E+03
  1.74060E+03  1.68788E+03  2.67122E+03  9.01865E+02  1.57164E+03  2.59476E+03  1.72580E+03  4.54264E+03
 -1.53546E+03  5.59425E+03 -4.32114E+03  5.86701E+03 -6.04071E+03  1.68298E+03 -7.31102E+03 -1.31780E+03
 -2.11054E+03 -6.42640E+03  2.41051E+03 -7.60518E+03  2.68052E+03 -4.42422E+03  5.92846E+03 -5.71968E+02
  3.68979E+03  2.65017E+03  6.61091E+02  4.61417E+03 -1.96657E+03  2.95054E+03 -1.51875E+03 -8.98847E+02
 -1.67593E+03 -2.19779E+03  1.19287E+03 -2.40839E+03  4.21362E+03 -1.97350E+03  2.49153E+03  9.10049E+02
  1.46294E+03  2.93622E+03  7.95804E+02  7.11864E+02  5.28776E+02  6.15039E+02  2.35944E+03 -4.50210E+02
 -2.30642E+01  8.04083E+02  2.48450E+03  1.28125E+03  4.60642E+02  3.62902E+03 -7.30079E+02  5.86119E+03
 -3.25182E+03  3.20244E+03 -4.82213E+03  1.02984E+03 -3.17139E+03 -1.46524E+03  5.90024E+02 -1.97779E+03
  8.50737E+02 -2.47104E+03  5.14082E+02 -9.38588E+02  1.03587E+03  2.84454E+03 -5.75536E+02  2.89840E+03
 -3.06284E+03  1.02381E+02 -2.57216E+03 -1.85255E+03 -1.46021E+03 -3.95808E+03 -5.87567E+02 -2.84604E+03
  2.71222E+03 -1.48590E+03  2.67848E+03  4.57523E+01  2.22445E+03  9.91314E+02  1.53571E+02  2.30988E+03
 -7.47108E+02 -2.34869E+02 -1.64505E+03  1.61953E+02  6.06790E+02 -1.54393E+03  2.91239E+03 -1.52974E+03
  1.49091E+03  6.75874E+02  4.53146E+03  8.53321E+02  2.74510E+03  2.42094E+03 -5.29761E+02  3.59304E+03
 -3.13154E+03  7.46671E+02 -2.68426E+03 -2.02018E+02 -1.66841E+03 -3.86067E+03  1.03122E+02 -1.97278E+03
  2.15187E+03 -1.17898E+03  1.40521E+03 -1.17543E+02  4.35257E+02  9.33668E+02 -4.64881E+01  2.13550E+03
 -6.36230E+02  1.80493E+03 -1.72753E+03  2.16626E+02 -3.03191E+02  9.80712E+01 -8.94462E+02  7.85557E+02
 -1.03816E+03  2.28326E+03 -3.46682E+03  4.21232E+01 -4.15187E+03  6.62246E+02 -4.94100E+03 -2.11934E+03
 -1.17461E+03 -3.44257E+03  1.09214E+03 -4.99908E+03  2.64274E+03 -3.88545E+03  4.36054E+03 -1.43345E+03
  4.18570E+03 -3.10649E+02  3.33556E+03  2.17450E+03 -3.81902E+02  3.27553E+03 -1.64695E+03  3.61237E+03
 -1.90029E+03  2.30610E+03  4.60794E+02 -9.23270E+02 -1.17997E+03 -9.21386E+02 -2.61953E+02 -7.37498E+02
 -9.80485E+02 -2.14524E+03 -1.58323E+03 -8.21068E+02  6.60454E+01 -2.84768E+01  2.41666E+02 -1.51443E+03
  1.89347E+03 -1.42271E+03  1.34138E+03 -2.17901E+02  1.98534E+03  9.28636E+02 -9.23179E+02  2.32816E+03
 -1.79025E+03  3.75222E+03 -3.88132E+03  2.88412E+03 -2.55714E+03  2.63747E+02 -2.09779E+03 -1.62316E+03
 -2.02207E+03 -1.92277E+03  4.30910E+02 -2.78617E+03  2.89044E+03 -2.03662E+03  2.04242E+03  6.94736E+02
  5.12147E+02  2.06421E+03 -3.97300E+01  1.29123E+03  4.01167E+02 -2.42095E+02  8.85218E+02 -1.81268E+02
  2.71035E+02 -4.91273E+02  3.37004E+02 -1.20599E+02  7.98270E+02  1.23242E+03 -4.20697E+02  1.62512E+03
 -5.71285E+02  1.79035E+03 -1.53388E+03 -1.08817E+03 -1.54159E+03 -8.52339E+02 -1.30714E+03 -2.92263E+03
  7.83164E+02 -5.94269E+02  1.82793E+03 -4.54048E+02  1.18473E+03 -3.19038E+02  9.99739E+02  1.15480E+03
 -8.18523E+02  1.35694E+03  2.84847E+02  2.60423E+03 -8.83882E+02  8.87689E+02  1.48812E+02  1.41166E+03
 -1.41045E+03  3.96509E+02  2.98851E+01 -3.06108E+02 -1.87175E+02  1.02565E+03 -8.13293E+02 -2.60306E+02
 -2.68722E+03 -1.02186E+03 -6.26442E+02 -1.93644E+03  7.86075E+01 -1.89402E+03  9.68562E+02 -7.66912E+02
  2.45541E+03  4.50692E+02  6.65069E+02  9.95053E+02  3.58453E+02  1.75094E+03  4.45447E+02  8.08407E+02
