 $NMID ID='MM_0lb_SNR200_16hz_g60_39.RAW', FMTDAT='(8E13.5)'
 TRAMP=1., VOLUME=1. $END
  3.09242E+05 -1.34094E+03  3.37575E+05  2.50784E+05  8.46581E+04  3.39049E+05 -1.32228E+05  2.52164E+05
 -1.90389E+05  8.29460E+04 -1.12073E+05 -3.23921E+04 -7.38441E+01 -5.05139E+04  5.39905E+04 -4.11256E+02
  3.57814E+04  5.29357E+04 -1.67030E+04  7.56210E+04 -6.13758E+04  6.38735E+04 -8.49027E+04  3.19975E+04
 -8.06938E+04 -1.08615E+04 -5.72808E+04 -5.07962E+04 -1.49355E+04 -6.92827E+04  2.85621E+04 -4.62046E+04
  4.03047E+04  4.95010E+03  1.62873E+04  4.81192E+04 -3.39563E+04  4.75979E+04 -6.78450E+04  7.07368E+02
 -5.30240E+04 -5.66872E+04 -6.50618E+03 -7.66506E+04  3.36359E+04 -5.49151E+04  4.77896E+04 -1.65824E+04
  4.33742E+04  1.10638E+04  3.16889E+04  2.60844E+04  1.59969E+04  2.78484E+04 -5.75753E+03  2.76954E+04
 -2.16910E+04  1.22328E+04 -1.75188E+04 -3.73957E+03  5.17903E+03 -7.73345E+03  2.25908E+04  1.31278E+04
  7.92501E+03  3.41078E+04 -3.19769E+04  3.57221E+04 -6.30950E+04  2.45716E+03 -5.66489E+04 -4.29577E+04
 -1.28666E+04 -6.32161E+04  4.02930E+04 -4.53760E+04  5.83420E+04 -2.25178E+03  3.39712E+04  3.29442E+04
 -5.99363E+03  3.61297E+04 -2.98644E+04  1.57715E+04 -3.18435E+04 -3.97687E+03 -1.62030E+04 -1.07761E+04
 -9.62922E+03 -1.39829E+04 -6.94599E+02 -1.85653E+04  8.08970E+03 -2.44283E+04  1.50556E+04 -1.24024E+04
  1.05523E+04  4.81355E+03 -8.99883E+03  1.37755E+04 -2.27788E+04 -4.09299E+03 -8.72444E+03 -3.35227E+04
  2.28036E+04 -4.36374E+04  4.89923E+04 -2.04053E+04  4.45427E+04  1.89261E+04  1.60671E+04  4.43130E+04
 -1.39763E+04  3.40297E+04 -2.57060E+04  1.56240E+03 -1.01922E+04 -2.76599E+04  2.14600E+04 -3.45963E+04
  4.08287E+04 -8.69379E+03  3.52779E+04  2.41320E+04  1.90783E+04  4.72137E+04 -7.23303E+03  4.84321E+04
 -3.17431E+04  3.41228E+04 -3.98692E+04  9.26274E+03 -4.33460E+04 -1.57266E+04 -2.41751E+04 -3.78975E+04
  7.71655E+03 -3.77259E+04  3.04203E+04 -1.38554E+04  2.93296E+04  1.15720E+04  4.26485E+03  1.81148E+04
 -1.21768E+04  8.73752E+03 -1.15262E+04 -8.83218E+03  4.85711E+03 -1.16714E+04  1.81230E+04  6.02920E+03
  1.30130E+04  2.20003E+04 -7.17267E+03  2.49756E+04 -2.18658E+04  1.15461E+04 -2.79889E+04 -5.48531E+03
 -2.13082E+04 -1.70621E+04 -7.64605E+03 -2.01225E+04  3.12996E+03 -1.90040E+04  1.50407E+04 -1.76626E+04
  2.64549E+04 -1.30857E+04  3.21508E+04  3.99889E+03  2.44513E+04  2.05521E+04  5.24515E+03  3.52109E+04
 -1.73595E+04  2.95569E+04 -2.75162E+04  9.49654E+03 -2.16703E+04 -1.11053E+04 -4.36608E+03 -1.33589E+04
  1.70944E+03 -2.85833E+03 -5.25998E+03  6.39699E+03 -1.73320E+04  3.85884E+03 -1.62654E+04 -6.99001E+03
 -1.02149E+04 -1.84168E+04  5.48081E+03 -2.23133E+04  1.55233E+04 -1.66427E+04  1.71188E+04 -1.67916E+03
  9.44309E+03  1.39048E+04 -8.11845E+02  1.85643E+04 -1.33051E+04  1.14131E+04 -1.81999E+04 -4.40368E+03
 -1.36203E+04 -1.64410E+04 -9.42082E+02 -2.29880E+04  9.30420E+03 -1.87721E+04  1.89723E+04 -9.30888E+03
  1.77982E+04  1.15150E+02  1.32274E+04  2.93852E+03  6.61325E+03  1.44134E+03  9.78834E+03 -6.36479E+02
  1.68599E+04  2.02663E+03  1.83685E+04  1.50464E+04  1.14502E+04  2.90250E+04 -3.63626E+03  3.33582E+04
 -1.93079E+04  2.71965E+04 -3.20781E+04  1.32614E+04 -3.23602E+04 -3.21016E+03 -2.66492E+04 -1.85629E+04
 -1.22538E+04 -2.54744E+04  8.83233E+03 -2.36157E+04  1.95195E+04 -1.26314E+04  1.87777E+04  5.01317E+03
  6.90426E+03  1.27061E+04 -8.35605E+03  1.18510E+04 -1.72452E+04  3.68372E+03 -1.30091E+04 -1.04951E+04
 -7.08234E+02 -1.43658E+04  6.87035E+03 -1.00980E+04  1.00736E+04 -1.78953E+03  1.98418E+03  5.83879E+03
 -7.60507E+03  1.68427E+03 -5.72544E+03 -6.69331E+03 -4.68674E+02 -1.32164E+04  7.86754E+03 -1.33437E+04
  1.64374E+04 -6.30253E+03  1.65468E+04  2.07810E+03  1.36528E+04  1.33143E+04  7.14842E+03  1.96090E+04
 -3.18881E+03  1.89233E+04 -1.29752E+04  1.27057E+04 -1.66616E+04  3.36378E+03 -1.17276E+04 -2.03809E+03
 -5.32734E+03 -4.94261E+03 -4.11876E+02  6.82688E+02 -1.93841E+03  2.01883E+03 -4.24551E+03  4.32117E+03
 -1.00865E+04 -1.26468E+02 -1.11627E+04 -8.82493E+03 -4.73455E+03 -1.41049E+04  3.20184E+03 -1.09478E+04
  8.49809E+03 -4.61011E+03  6.44131E+03  2.60706E+03  2.93841E+02  3.84238E+03 -4.60185E+03  3.45652E+02
 -4.54514E+03 -6.43145E+03 -5.98008E+02 -9.73626E+03  5.79842E+03 -1.06671E+04  1.25498E+04 -6.00186E+03
  1.54370E+04  2.38500E+03  1.06433E+04  8.45643E+03  2.90661E+03  1.18924E+04 -6.61241E+03  1.09502E+04
 -8.87433E+03  3.66221E+03 -4.55021E+03 -2.69945E+03  3.69056E+02 -3.24151E+03  4.33258E+03  5.14211E+01
  5.33948E+03  4.67521E+03  1.88020E+03  6.64931E+03 -6.48096E+03  7.07827E+03 -1.06727E+04  2.83166E+03
 -6.84871E+03 -5.37716E+03  4.76364E+02 -9.41849E+03  4.21878E+03 -4.19409E+03  4.95741E+03  2.01021E+03
  1.27635E+03  6.56789E+03 -4.83858E+03  7.43409E+03 -7.33990E+03  1.93304E+03 -6.92405E+03 -9.94900E+02
 -4.21322E+03 -8.41013E+03  1.68613E+03 -8.50316E+03  9.38361E+03 -5.77211E+03  9.17885E+03  1.91103E+03
  5.70286E+03  7.65640E+03 -1.22786E+03  8.79768E+03 -7.90023E+03  6.59652E+03 -6.87193E+03 -4.73185E+02
 -7.17614E+03 -7.40912E+03 -2.12490E+03 -6.38958E+03  3.30258E+03 -5.94446E+03  2.74987E+03 -3.16999E+03
  3.80035E+03  5.26898E+02 -1.06944E+03  1.80098E+03 -3.19464E+02 -9.59661E+02  7.87526E+02 -1.60374E+03
  4.89270E+03 -2.04188E+03  8.10823E+03  3.98807E+02  8.55918E+03  5.64237E+03  6.42158E+03  1.09979E+04
 -1.96205E+03  1.27655E+04 -1.03289E+04  9.47368E+03 -1.44013E+04  8.15274E+02 -1.05116E+04 -4.51896E+03
 -5.56707E+03 -9.51261E+03 -9.24946E+02 -6.06652E+03  2.76621E+03 -3.31319E+03  3.14021E+03 -3.89083E+03
  1.45559E+03 -4.69156E+02  2.38742E+03 -2.69033E+03  4.41149E+03 -1.39477E+03  4.13163E+03  4.83010E+02
  6.01161E+03  2.26096E+03  1.91263E+03  3.84545E+03 -2.75967E+03  5.05893E+03 -5.64089E+03  4.67464E+03
 -6.73836E+03 -1.68888E+03 -4.66366E+03 -6.19368E+03  6.39346E+02 -6.72542E+03  4.84613E+03 -8.40010E+03
  7.00069E+03 -4.83562E+03  9.39024E+03  3.66090E+02  5.64713E+03  7.16157E+03  1.91237E+03  9.62561E+03
 -2.76669E+03  8.25692E+03 -4.82525E+03  2.33440E+03 -2.69013E+03 -9.22375E+02 -7.84354E+02 -8.82911E+02
 -9.75760E+02  1.21073E+03 -2.08307E+03  1.59072E+03 -3.71357E+03  3.06519E+02 -6.00706E+03 -3.02124E+02
 -2.14602E+03 -4.60916E+03 -3.58807E+02 -5.74472E+03  3.05332E+03 -5.58361E+03  5.96349E+03 -5.44068E+02
  7.08266E+03  4.46415E+03  2.88240E+03  5.14933E+03 -1.74684E+03  6.39105E+03 -3.98118E+03  4.90485E+03
 -6.33585E+03  1.65576E+02 -3.81441E+03 -5.05647E+03 -4.79158E+02 -4.39533E+03  2.79085E+03 -3.17535E+03
  4.08506E+03  1.25783E+02  2.83685E+03  6.22332E+02 -1.12091E+02  7.62484E+02  9.25268E+02  1.64645E+03
  1.80162E+03  4.61516E+02  2.00967E+03  1.49254E+03  1.32102E+03  2.40586E+03  1.92836E+03  3.66249E+03
 -6.08866E+02  5.56334E+03 -3.37974E+03  4.99190E+03 -5.30498E+03 -8.28611E+01 -5.51122E+03 -1.77870E+03
 -3.06695E+03 -5.53824E+03  2.65206E+03 -7.59894E+03  3.22839E+03 -3.94178E+03  4.60444E+03 -2.48275E+03
  3.94367E+03  2.41144E+03  6.04631E+02  3.45429E+03 -1.74969E+03  1.83061E+03 -2.41795E+03 -5.71999E+02
 -1.35183E+02 -2.14370E+03  2.01534E+03 -1.70017E+03  2.86349E+03 -1.39897E+03  1.91108E+03  3.20744E+02
  2.17653E+03  1.35287E+03  1.01195E+03 -2.58243E+02 -1.19769E+03  1.06174E+03 -1.40464E+01 -4.28162E+02
  5.77640E+02  5.26764E+02  2.95664E+03  1.20756E+03  5.77426E+02  2.98189E+03 -1.34845E+03  3.98781E+03
 -2.79186E+03  2.04724E+03 -3.12874E+03  1.07035E+03 -4.83852E+03 -4.38655E+02 -1.29561E+03 -1.63283E+03
  2.20765E+02 -1.58828E+03  1.19586E+03 -7.94402E+02  1.06640E+03  7.65349E+02  9.38754E+01  1.81732E+03
 -2.23523E+03  2.61970E+03 -2.89445E+03 -2.28514E+03 -1.39581E+03 -2.48724E+03  3.68321E+02 -3.14267E+03
  7.91142E+02 -1.25294E+03  1.65081E+03  2.52527E+02  2.38074E+03  2.12161E+02  7.98465E+02  2.13945E+03
 -2.13084E+02  1.26024E+03 -5.01525E+02 -6.85198E+01  1.29565E+03 -2.73376E+03  2.67562E+03 -1.57631E+03
  2.60845E+03  9.84859E+02  4.28575E+03  1.50799E+03  2.10486E+03  3.85813E+03 -1.00049E+03  2.24451E+03
 -3.23335E+03  1.24816E+03 -2.73081E+03 -3.27108E+02 -9.40113E+02 -2.32298E+03 -4.99862E+02  3.34486E+02
  2.14777E+03 -1.18339E+03  1.38588E+03  1.03889E+03  2.88506E+02  1.32435E+03  9.62661E+01  1.47718E+03
 -5.78332E+02  1.49523E+03  9.48082E+02 -3.50092E+02 -5.45662E+02  7.95662E+02 -1.11257E+03  2.51824E+02
 -1.41784E+03  1.06294E+03 -2.83736E+03  8.91855E+02 -3.83310E+03 -4.09371E+01 -3.11702E+03 -2.54825E+02
 -8.79465E+02 -2.35076E+03  8.72602E+02 -5.06784E+03  2.37765E+03 -5.13789E+03  4.78385E+03 -1.70539E+03
  4.48965E+03 -5.09232E+02  2.34323E+03  3.43824E+03 -4.42308E+02  1.78492E+03 -4.64795E+02  2.25260E+03
 -4.99954E+02  2.71051E+02 -7.26604E+02 -3.95011E+02 -9.43071E+01 -7.45808E+02 -1.51033E+03  9.30677E+01
 -8.29231E+02  7.05006E+02 -2.92813E+02 -5.82315E+02  2.48717E+01 -1.61495E+02 -5.43435E+02 -2.08792E+03
  1.60693E+03 -5.31772E+02  5.95382E+02  6.46970E+02  1.40332E+03  2.15753E+03 -5.88227E+02  2.82108E+03
 -1.50106E+03  2.71670E+03 -2.53509E+03  5.90520E+02 -3.13344E+03  1.21896E+02 -1.68488E+03 -2.66086E+03
 -7.04803E+02 -3.34439E+03  3.37795E+01 -2.68302E+03  8.07684E+02 -9.54975E+02  1.18411E+03 -3.25074E+02
  1.90812E+03  8.59875E+02 -5.08952E+01  9.28519E+02 -1.25411E+03 -9.46727E+01  9.28803E+02 -3.50811E+02
  1.17402E+03 -9.23119E+01  1.28278E+03  3.48654E+02  2.45071E+02  2.43897E+01 -3.54028E+02  2.05923E+03
  8.01808E+02  2.65999E+03 -1.42022E+03  8.27501E+02 -6.91486E+02 -9.70540E+02  1.19476E+03 -1.49573E+03
  1.30368E+03 -7.80975E+02  1.42961E+03  2.00603E+02  1.33048E+03 -6.51323E+01  1.75116E+02  8.98490E+02
 -2.16967E+02  1.70162E+02 -1.59016E+03  7.50734E+02  3.40187E+02  6.30201E+02  1.99921E+01 -3.70648E+02
  7.96984E+02 -6.13555E+02 -7.48834E+02  1.34410E+03 -7.08176E+02  9.91705E+01 -2.18993E+02  4.12672E-01
 -1.63813E+03  3.61693E+02  1.86517E+01 -1.29749E+03  6.34291E+02 -1.75066E+03  1.03214E+03 -7.19492E+02
  1.92994E+03 -1.09164E+03  1.55550E+03  9.50017E+02  5.87796E+02  1.76915E+03 -2.78385E+02  1.82415E+02
