 $NMID ID='MM_0lb_SNR200_8hz_g40_3.RAW', FMTDAT='(8E13.5)'
 TRAMP=1., VOLUME=1. $END
  3.10317E+05 -8.37798E+02  3.38202E+05  2.50317E+05  8.39615E+04  3.38622E+05 -1.33341E+05  2.51157E+05
 -1.90809E+05  8.33593E+04 -1.12094E+05 -3.20293E+04 -1.32351E+03 -5.09479E+04  5.33197E+04  1.19153E+02
  3.59017E+04  5.32308E+04 -1.60042E+04  7.73378E+04 -6.09498E+04  6.53010E+04 -8.51945E+04  3.27242E+04
 -8.37492E+04 -1.30648E+04 -5.65151E+04 -5.17136E+04 -1.60500E+04 -7.11322E+04  2.70232E+04 -4.62183E+04
  4.03378E+04  3.69982E+03  1.79877E+04  4.88020E+04 -3.54304E+04  4.93445E+04 -6.84337E+04  2.34315E+01
 -5.45098E+04 -5.78357E+04 -6.13913E+03 -7.88824E+04  3.49456E+04 -5.69134E+04  4.90314E+04 -1.83846E+04
  4.75498E+04  1.22722E+04  3.38646E+04  2.55055E+04  1.49011E+04  3.15209E+04 -5.85496E+03  2.87533E+04
 -2.29081E+04  1.31074E+04 -1.83681E+04 -5.21880E+03  4.51116E+03 -7.02022E+03  2.43301E+04  1.38364E+04
  7.06431E+03  3.67777E+04 -3.36638E+04  3.72583E+04 -6.59754E+04  2.20909E+03 -5.93240E+04 -4.37899E+04
 -1.26293E+04 -6.37163E+04  4.17887E+04 -4.85007E+04  6.06240E+04 -2.07003E+03  3.74449E+04  3.49749E+04
 -4.46090E+03  4.01146E+04 -3.29514E+04  1.76068E+04 -3.23937E+04 -4.24848E+03 -1.82812E+04 -1.23195E+04
 -8.76048E+03 -1.24314E+04 -1.11786E+03 -2.08085E+04  7.90673E+03 -2.29481E+04  1.56944E+04 -1.08748E+04
  9.09267E+03  6.33486E+03 -1.13119E+04  1.21472E+04 -2.36266E+04 -6.55363E+03 -8.85752E+03 -3.62352E+04
  2.47049E+04 -4.71355E+04  5.16779E+04 -2.16578E+04  4.78870E+04  2.10421E+04  1.72651E+04  4.73394E+04
 -1.62121E+04  3.62334E+04 -2.93117E+04  2.79051E+03 -1.16663E+04 -3.04286E+04  2.16660E+04 -3.72360E+04
  4.53117E+04 -1.17508E+04  3.87058E+04  2.60354E+04  2.27597E+04  5.18121E+04 -8.21853E+03  5.46464E+04
 -3.60338E+04  3.94278E+04 -4.84416E+04  1.28189E+04 -4.75909E+04 -1.82934E+04 -2.71570E+04 -4.11563E+04
  8.51253E+03 -4.13127E+04  3.54407E+04 -1.68123E+04  3.24550E+04  1.07640E+04  5.47058E+03  2.09819E+04
 -1.27622E+04  9.55093E+03 -1.08899E+04 -6.32622E+03  7.98661E+03 -1.26660E+04  1.86064E+04  5.29133E+03
  1.50470E+04  2.32858E+04 -3.36137E+03  2.83741E+04 -2.36759E+04  1.55642E+04 -2.99848E+04 -3.90090E+03
 -2.49802E+04 -1.95518E+04 -1.24967E+04 -2.41226E+04  2.52466E+03 -2.57456E+04  1.99404E+04 -2.42640E+04
  3.21143E+04 -1.30109E+04  3.91762E+04  3.77778E+03  2.56800E+04  2.49779E+04  3.77858E+03  4.24609E+04
 -1.97874E+04  3.26622E+04 -3.03299E+04  1.10264E+04 -2.19126E+04 -9.67509E+03 -6.64209E+03 -1.27794E+04
  9.14656E+02 -1.66272E+03 -7.69353E+03  7.45733E+03 -2.02316E+04  6.50043E+03 -2.15757E+04 -1.05016E+04
 -1.31275E+04 -2.30861E+04  7.66827E+03 -2.61404E+04  2.09185E+04 -2.07011E+04  2.47141E+04 -1.84188E+03
  1.38358E+04  1.70107E+04 -3.64650E+02  2.46051E+04 -1.62070E+04  1.33237E+04 -2.45497E+04 -4.02098E+03
 -1.62974E+04 -2.13236E+04 -1.57175E+03 -2.81250E+04  1.23218E+04 -2.39240E+04  2.40271E+04 -1.21682E+04
  2.37855E+04 -5.99667E+02  1.75734E+04  4.52752E+03  7.68190E+03  1.24513E+03  1.09570E+04  7.23482E+02
  2.10584E+04  1.66673E+03  2.62929E+04  1.94293E+04  1.68579E+04  3.89494E+04 -1.03311E+03  4.39071E+04
 -2.64473E+04  3.47535E+04 -4.29938E+04  1.95478E+04 -4.43327E+04 -3.14897E+03 -3.45858E+04 -2.78304E+04
 -1.65518E+04 -3.92738E+04  1.26794E+04 -3.37859E+04  2.87553E+04 -1.36614E+04  2.51157E+04  8.76729E+03
  8.48570E+03  2.00710E+04 -1.10992E+04  1.47239E+04 -1.94957E+04  2.17590E+03 -1.58173E+04 -1.39513E+04
  1.04639E+03 -1.95198E+04  1.10078E+04 -1.29008E+04  1.45743E+04 -2.13644E+03  3.41616E+03  9.00047E+03
 -8.32588E+03  3.98908E+03 -1.00755E+04 -7.17083E+03 -3.07654E+03 -1.86648E+04  1.28669E+04 -1.89520E+04
  2.39952E+04 -1.06688E+04  2.82398E+04  3.15367E+03  2.30093E+04  1.95948E+04  1.03601E+04  3.03459E+04
 -6.88400E+03  3.25753E+04 -2.13790E+04  1.91191E+04 -2.29435E+04  5.18051E+03 -1.64275E+04 -5.60275E+03
 -7.47096E+03 -8.02916E+03 -4.85469E+02 -6.78988E+02 -2.57775E+03  3.44761E+03 -6.96424E+03  5.18800E+03
 -1.41838E+04 -7.61503E+02 -1.54491E+04 -1.12071E+04 -6.03689E+03 -2.04680E+04  6.75850E+03 -1.48459E+04
  1.37328E+04 -6.39888E+03  7.90009E+03  6.04992E+03 -1.53948E+03  4.82314E+03 -7.40554E+03 -2.55388E+02
 -6.90099E+03 -9.26810E+03 -1.17281E+02 -1.49360E+04  8.66785E+03 -1.58700E+04  2.03233E+04 -1.01221E+04
  2.34290E+04  2.99674E+03  1.70034E+04  1.32846E+04  1.81618E+03  2.00818E+04 -7.99184E+03  1.39384E+04
 -1.32759E+04  3.09989E+03 -7.23943E+03 -4.32024E+03  1.27871E+03 -5.56249E+03  7.20456E+03 -9.33341E+02
  7.99118E+03  7.58078E+03  1.48277E+03  1.29540E+04 -1.17103E+04  1.26630E+04 -1.54175E+04  4.14373E+03
 -1.13342E+04 -8.27520E+03  2.25038E+03 -1.47847E+04  9.74773E+03 -7.70321E+03  8.50710E+03  4.80284E+03
  1.59166E+03  1.07249E+04 -9.68746E+03  1.25180E+04 -1.34927E+04  5.23613E+03 -1.46282E+04 -4.17230E+03
 -6.76247E+03 -1.55436E+04  4.29528E+03 -1.98414E+04  1.38814E+04 -1.16289E+04  1.65857E+04  2.80669E+03
  1.05569E+04  1.46961E+04 -2.01391E+03  1.51462E+04 -1.29165E+04  9.65576E+03 -1.36958E+04 -1.10922E+03
 -1.26236E+04 -1.06278E+04 -7.49992E+02 -1.05840E+04  6.35390E+03 -1.06041E+04  9.59157E+03 -3.64112E+03
  3.65507E+03  1.81052E+03 -1.27057E+03  3.08275E+03  1.15785E+02 -3.11453E+03  3.16447E+03 -7.17927E+03
  1.24064E+04 -5.64210E+03  1.77704E+04  1.83949E+03  1.62568E+04  1.13369E+04  1.08864E+04  2.33395E+04
 -5.54067E+03  2.58341E+04 -1.95119E+04  1.79022E+04 -2.70648E+04  4.07376E+03 -2.13654E+04 -9.56553E+03
 -1.08022E+04 -1.69685E+04  1.69134E+03 -1.34528E+04  5.73526E+03 -9.59752E+03  4.20977E+03 -5.36871E+03
  4.49223E+03 -3.92029E+03  4.72228E+03 -3.62992E+03  5.84274E+03 -4.33853E+03  9.12302E+03 -1.47935E+03
  9.99928E+03  2.07609E+03  6.55620E+03  1.01483E+04 -2.24090E+03  9.28223E+03 -1.10316E+04  9.94104E+03
 -1.46818E+04 -1.64470E+03 -9.85303E+03 -1.25572E+04 -1.98510E+03 -1.68508E+04  7.09778E+03 -1.52867E+04
  1.65846E+04 -9.47521E+03  2.11951E+04  3.95204E+03  1.36242E+04  1.48384E+04  3.39593E+03  2.03157E+04
 -8.08584E+03  1.55624E+04 -1.20599E+04  5.96989E+03 -8.43211E+03 -1.85662E+03 -2.16095E+03 -2.69286E+03
 -3.06967E+03 -6.22624E+02 -1.65293E+03  4.82755E+03 -6.48471E+03  3.28430E+03 -9.53226E+03 -1.63943E+03
 -9.45341E+03 -1.09210E+04 -1.15873E+03 -1.72453E+04  1.00295E+04 -1.32101E+04  1.54049E+04 -4.43999E+03
  1.61549E+04  8.50228E+03  7.09946E+03  1.45875E+04 -3.13025E+03  1.67685E+04 -1.04621E+04  1.08176E+04
 -1.57724E+04  4.25559E+02 -1.10082E+04 -9.69961E+03 -2.19118E+03 -1.41014E+04  6.96962E+03 -9.17031E+03
  1.05165E+04 -2.02873E+03  6.85234E+03  2.40153E+03  2.61816E+03  5.13436E+03  1.88855E+03  1.46337E+03
  2.92066E+03  1.46147E+03  3.74529E+03  1.42132E+03  4.89404E+03  4.63190E+03  3.33090E+03  8.06167E+03
 -3.75444E+03  1.23725E+04 -1.27965E+04  1.24983E+04 -1.36155E+04  4.66749E+03 -1.69271E+04 -7.75125E+03
 -1.01176E+04 -1.66998E+04  2.67605E+03 -1.86169E+04  1.00426E+04 -1.15573E+04  1.37836E+04 -3.97919E+02
  1.12372E+04  7.27411E+03  1.00304E+03  1.02836E+04 -5.13579E+03  6.04177E+03 -6.48020E+03 -5.30477E+02
 -3.48342E+03 -5.44750E+03  4.61072E+03 -7.42184E+03  7.71302E+03 -3.50072E+03  7.42533E+03 -1.83007E+02
  2.11578E+03  3.97682E+03  1.90084E+03  2.59631E+03 -1.53770E+03  1.37712E+03  1.03406E+03 -8.97696E+02
  2.08796E+03 -5.25498E+02  6.11463E+03  2.33192E+03  4.51126E+03  9.91383E+03  5.09853E+02  1.20641E+04
 -8.53244E+03  6.76366E+03 -9.11938E+03  2.23715E+03 -9.60369E+03 -2.79688E+03 -2.59616E+03 -6.37368E+03
  1.55013E+03 -7.36583E+03  3.05065E+03 -3.50746E+03  3.36716E+03  2.26602E+03 -1.65550E+03  4.93817E+03
 -7.39749E+03  3.42716E+03 -9.16874E+03 -3.53333E+03 -4.15116E+03 -9.20930E+03  1.21335E+03 -7.99906E+03
  5.65255E+03 -5.68633E+03  6.39341E+03 -8.49465E+02  4.78930E+03  2.61486E+03  2.67221E+02  4.75935E+03
 -2.75294E+03  5.25245E+02 -3.20357E+03 -3.82899E+03  3.03421E+03 -6.61995E+03  9.92962E+03 -4.98406E+03
  1.09210E+04  1.73391E+03  1.08064E+04  6.12043E+03  1.09112E+03  1.05159E+04 -3.97450E+03  1.07405E+04
 -8.33356E+03  5.49963E+03 -9.10664E+03 -3.54597E+03 -5.50265E+03 -7.88781E+03  1.27169E+03 -7.57039E+03
  6.94106E+03 -4.51511E+03  4.60616E+03  2.70092E+03  2.11920E+03  6.17259E+03  2.14177E+02  3.82624E+03
 -3.78599E+03  2.22644E+03 -1.67082E+03  9.84309E+02 -1.54800E+03 -1.06626E+03 -4.68115E+02  2.97907E+03
 -2.46083E+03  3.08466E+03 -8.18418E+03  3.82640E+03 -1.13597E+04 -1.58660E+03 -1.35786E+04 -6.04468E+03
 -5.32260E+03 -1.57048E+04  3.26288E+03 -1.66745E+04  1.07026E+04 -1.41517E+04  1.73025E+04 -5.53627E+03
  1.49760E+04  3.38988E+03  9.40327E+03  1.11258E+04  7.62283E+02  1.21848E+04 -3.72083E+03  9.55771E+03
 -7.07916E+03  2.79300E+03 -4.74965E+03 -2.71217E+02 -5.04154E+02 -1.29636E+03 -1.28732E+03 -2.91477E+03
 -2.19101E+03 -3.09430E+02 -1.90429E+03 -4.06259E+02  1.10305E+02 -2.55808E+03  1.91663E+02 -2.37186E+03
  5.21692E+03 -4.08897E+03  9.49167E+03  2.42623E+03  8.14050E+03  7.40356E+03  3.27916E+03  1.10862E+04
 -5.35040E+03  1.31013E+04 -1.29104E+04  7.42221E+03 -1.35158E+04 -2.64119E+03 -1.03176E+04 -8.93688E+03
 -4.51944E+03 -1.29405E+04  3.07400E+03 -1.07760E+04  7.08758E+03 -6.53032E+03  8.05832E+03 -2.65927E+02
  3.09595E+03  4.93530E+03 -1.24649E+03  2.90011E+03 -2.61115E+03  5.04925E+02 -4.15819E+02 -3.15776E+03
  3.77789E+03 -1.28893E+03  3.86741E+03  1.89762E+03  3.66405E+03  4.95792E+03  5.98424E+02  6.88041E+03
 -4.68951E+03  5.15639E+03 -7.91567E+03  1.45327E+03 -6.51895E+03 -6.81122E+03 -1.61648E+03 -1.02905E+04
  4.02101E+03 -8.99016E+03  9.33394E+03 -2.63708E+03  9.37822E+03  2.82309E+03  4.56652E+03  8.24495E+03
  5.64077E+02  8.22380E+03 -5.01923E+03  6.29299E+03 -4.18845E+03  3.98343E+03 -4.91565E+03  6.58570E+02
 -2.00213E+03  2.36001E+01 -2.25667E+03  3.41010E+02 -4.77008E+03  1.97870E+03 -6.00087E+03 -1.98539E+03
 -6.68230E+03 -4.54046E+03 -2.34353E+03 -7.97266E+03  2.84026E+03 -7.84897E+03  9.16102E+03 -3.70213E+03
  8.58489E+03  6.17435E+02  5.80898E+03  5.85457E+03 -1.61799E+03  7.54083E+03 -6.65273E+03  5.41747E+03
