 $NMID ID='MM_0lb_SNR200_9hz_g40_54.RAW', FMTDAT='(8E13.5)'
 TRAMP=1., VOLUME=1. $END
  3.10406E+05  1.33541E+03  3.37384E+05  2.50289E+05  8.54415E+04  3.37728E+05 -1.32255E+05  2.53484E+05
 -1.90618E+05  8.45243E+04 -1.11734E+05 -3.36105E+04  1.08199E+03 -5.14259E+04  5.34578E+04  1.96367E+02
  3.54380E+04  5.11204E+04 -1.71090E+04  7.69575E+04 -5.98121E+04  6.36349E+04 -8.45396E+04  3.23653E+04
 -8.24161E+04 -1.10163E+04 -5.85764E+04 -5.25038E+04 -1.53691E+04 -6.92957E+04  2.92528E+04 -4.88320E+04
  4.16215E+04  3.07015E+03  1.70361E+04  4.85393E+04 -3.50529E+04  4.83258E+04 -6.80856E+04  8.23686E+02
 -5.52117E+04 -5.83161E+04 -8.01651E+03 -7.95986E+04  3.50721E+04 -5.63106E+04  4.92573E+04 -1.91832E+04
  4.49091E+04  1.24207E+04  3.11056E+04  2.52780E+04  1.55064E+04  3.03682E+04 -5.21987E+03  2.75904E+04
 -2.28196E+04  1.16224E+04 -1.79106E+04 -5.36919E+03  5.53153E+03 -7.21030E+03  2.36665E+04  1.36800E+04
  9.22367E+03  3.58937E+04 -3.32290E+04  3.60441E+04 -6.35071E+04  1.98337E+03 -5.93211E+04 -4.47607E+04
 -1.40904E+04 -6.58256E+04  4.22278E+04 -4.78184E+04  5.96418E+04 -4.38964E+03  3.64596E+04  3.43352E+04
 -4.50356E+03  3.93224E+04 -3.21360E+04  1.91008E+04 -3.19490E+04 -2.89546E+03 -1.74048E+04 -1.09899E+04
 -1.04701E+04 -1.64501E+04  2.98927E+02 -1.92439E+04  1.00576E+04 -2.38377E+04  1.78068E+04 -1.27850E+04
  1.11840E+04  6.53923E+03 -9.64846E+03  1.37764E+04 -2.42729E+04 -5.84535E+03 -7.91911E+03 -3.63550E+04
  2.61009E+04 -4.59788E+04  5.12867E+04 -2.13321E+04  4.78003E+04  2.11875E+04  1.59547E+04  4.60041E+04
 -1.57602E+04  3.72293E+04 -2.70809E+04  2.65792E+03 -1.14339E+04 -3.02155E+04  2.09767E+04 -3.59681E+04
  4.26564E+04 -1.08761E+04  4.05339E+04  2.49034E+04  1.95041E+04  5.01289E+04 -7.69630E+03  5.45567E+04
 -3.41260E+04  3.92018E+04 -4.46512E+04  1.05694E+04 -4.75361E+04 -1.72535E+04 -2.52681E+04 -4.08938E+04
  7.33632E+03 -4.01906E+04  3.32830E+04 -1.64380E+04  3.02702E+04  1.04518E+04  5.45037E+03  1.98807E+04
 -1.32173E+04  9.65612E+03 -1.14357E+04 -8.32697E+03  4.19592E+03 -1.28576E+04  1.83959E+04  6.38495E+03
  1.48635E+04  2.12574E+04 -6.04153E+03  2.54296E+04 -2.32964E+04  1.29391E+04 -3.13242E+04 -2.90363E+03
 -2.51651E+04 -1.71865E+04 -1.08103E+04 -2.37595E+04  3.18540E+03 -2.47728E+04  1.88259E+04 -2.13554E+04
  3.20469E+04 -1.38464E+04  3.71548E+04  4.36141E+03  2.69895E+04  2.37807E+04  4.75808E+03  3.94252E+04
 -1.86719E+04  3.38266E+04 -3.03235E+04  1.10391E+04 -2.28127E+04 -1.08898E+04 -4.58311E+03 -1.23906E+04
  1.16152E+03 -7.50079E+02 -6.64533E+03  8.89037E+03 -1.94211E+04  4.24589E+03 -1.98154E+04 -9.18624E+03
 -1.01220E+04 -2.18219E+04  6.18765E+03 -2.61132E+04  1.83507E+04 -1.72585E+04  2.19459E+04 -2.76490E+03
  1.17438E+04  1.60057E+04 -2.05667E+03  2.17937E+04 -1.44329E+04  1.24477E+04 -2.30836E+04 -5.35418E+03
 -1.72147E+04 -1.98714E+04 -2.90420E+03 -2.69654E+04  1.44082E+04 -2.17903E+04  2.12854E+04 -1.20758E+04
  2.12237E+04  4.54071E+02  1.54491E+04  5.04806E+03  7.74786E+03  1.47202E+03  1.28418E+04 -3.50858E+03
  2.29561E+04  3.55202E+03  2.43546E+04  1.89218E+04  1.52660E+04  3.61053E+04 -2.60303E+03  4.33601E+04
 -2.40300E+04  3.47122E+04 -4.05786E+04  1.61289E+04 -4.35310E+04 -2.84315E+03 -3.53834E+04 -2.41008E+04
 -1.49724E+04 -3.60719E+04  1.33232E+04 -3.00893E+04  2.79357E+04 -1.49533E+04  2.35811E+04  8.41387E+03
  8.10046E+03  1.77503E+04 -9.06869E+03  1.60678E+04 -1.86781E+04  3.96408E+03 -1.43504E+04 -1.16936E+04
 -2.60398E+02 -2.09591E+04  1.00457E+04 -1.39188E+04  1.38332E+04 -9.75062E+02  3.69826E+03  9.27489E+03
 -8.09124E+03  3.48928E+03 -7.81334E+03 -5.73671E+03 -8.13056E+02 -1.84805E+04  1.24744E+04 -1.97190E+04
  2.07523E+04 -9.68961E+03  2.41583E+04  4.56651E+03  2.17212E+04  1.90415E+04  8.45704E+03  2.67219E+04
 -6.01385E+03  2.98649E+04 -1.98734E+04  1.88776E+04 -2.09919E+04  2.77443E+03 -1.41043E+04 -6.19577E+03
 -6.72602E+03 -6.53229E+03 -9.49499E+02 -1.52711E+01 -2.59508E+03  3.97507E+03 -5.86488E+03  6.33411E+03
 -1.38808E+04 -1.47616E+03 -1.41158E+04 -1.31781E+04 -6.77281E+03 -1.97908E+04  6.85119E+03 -1.64375E+04
  1.12550E+04 -6.81625E+03  8.19752E+03  2.48803E+03  6.30142E+02  5.83008E+03 -7.95817E+03  1.08731E+03
 -7.24454E+03 -9.21030E+03 -1.44985E+03 -1.41084E+04  8.49769E+03 -1.55834E+04  2.02152E+04 -8.00430E+03
  2.12313E+04  1.96736E+03  1.42284E+04  1.46814E+04  2.94992E+03  1.74852E+04 -8.65448E+03  1.47452E+04
 -1.21875E+04  3.77405E+03 -4.90404E+03 -3.72046E+03  7.80328E+02 -3.60120E+03  8.11275E+03 -2.19000E+02
  8.05595E+03  6.52356E+03  2.08443E+03  1.20545E+04 -7.72037E+03  1.17814E+04 -1.50536E+04  1.34188E+03
 -1.02380E+04 -8.22839E+03 -1.00599E+03 -1.50536E+04  9.00201E+03 -5.75697E+03  8.99824E+03  2.40901E+03
  1.13790E+03  9.03506E+03 -6.89772E+03  1.18460E+04 -1.26708E+04  4.70870E+03 -1.39699E+04 -4.98123E+03
 -8.36542E+03 -1.53276E+04  2.71538E+03 -1.75043E+04  1.58730E+04 -1.03654E+04  1.48801E+04  2.73711E+03
  9.22838E+03  1.12227E+04 -9.07396E+02  1.39940E+04 -1.05794E+04  9.46011E+03 -1.29792E+04 -9.64120E+02
 -1.06275E+04 -9.87573E+03 -3.54377E+03 -1.14383E+04  5.63976E+03 -9.63488E+03  8.66708E+03 -3.41036E+03
  5.50475E+03  4.14454E+03 -1.46645E+03  1.66213E+03 -1.87170E+03 -1.73726E+03  2.95470E+03 -7.02946E+03
  1.09712E+04 -5.36227E+03  1.44202E+04  1.22372E+03  1.50766E+04  1.10775E+04  8.90483E+03  2.00567E+04
 -3.91638E+03  2.26014E+04 -1.82640E+04  1.82426E+04 -2.39558E+04  2.50668E+03 -2.00165E+04 -7.75964E+03
 -1.02166E+04 -1.60453E+04  3.46688E+02 -1.35396E+04  5.34250E+03 -8.54417E+03  4.98173E+03 -4.27742E+03
  3.69919E+03 -2.88681E+03  3.92934E+03 -5.04948E+03  4.74120E+03 -5.02801E+03  6.83091E+03 -1.29820E+03
  1.07307E+04  2.24794E+03  4.09148E+03  8.69925E+03 -1.78352E+03  1.06568E+04 -1.10485E+04  7.51031E+03
 -1.39422E+04 -5.00899E+02 -8.39401E+03 -1.09772E+04 -1.04391E+03 -1.41554E+04  8.51600E+03 -1.41618E+04
  1.58179E+04 -7.98128E+03  1.89466E+04  3.87502E+03  1.28262E+04  1.22346E+04  2.96408E+03  1.65525E+04
 -6.64372E+03  1.36270E+04 -1.02840E+04  5.45134E+03 -7.95686E+03 -1.30202E+03 -2.85708E+03 -1.52135E+03
 -1.63485E+03  8.71572E+02 -1.49171E+03  4.30668E+03 -6.56951E+03  4.01979E+03 -9.86941E+03 -6.09182E+02
 -5.40625E+03 -9.78812E+03 -9.62948E+02 -1.33368E+04  8.23170E+03 -1.31575E+04  1.37439E+04 -3.16298E+03
  1.32852E+04  6.86011E+03  6.02427E+03  1.09248E+04 -2.31543E+03  1.36535E+04 -1.16191E+04  8.33215E+03
 -1.33782E+04  6.38401E+02 -1.05047E+04 -8.72458E+03 -1.04768E+03 -1.06498E+04  8.20016E+03 -8.58060E+03
  9.48705E+03 -2.41924E+03  7.76446E+03  1.85650E+03  2.92087E+03  2.61879E+03 -3.23939E+02  3.30764E+03
  3.52764E+03  3.14243E+02  4.52873E+03  1.78638E+03  4.34118E+03  5.57369E+03  2.14110E+03  6.79511E+03
 -2.39941E+03  1.16023E+04 -1.09315E+04  1.08447E+04 -1.23831E+04  2.50883E+03 -1.47600E+04 -5.29656E+03
 -8.55109E+03 -1.54155E+04  3.27168E+03 -1.39211E+04  9.86160E+03 -1.05206E+04  1.05857E+04 -1.94187E+03
  9.48618E+03  5.20644E+03  1.82309E+03  7.23537E+03 -4.29879E+03  4.68907E+03 -6.52647E+03 -7.98109E+02
 -2.13958E+03 -4.42594E+03  3.80590E+03 -6.10389E+03  4.75836E+03 -3.41479E+03  4.74439E+03  1.02179E+03
  3.54816E+03  4.10360E+03  2.67358E+03  3.25504E+02 -4.91810E+02  3.07303E+03  1.84847E+03  2.49187E+02
  3.09971E+03 -1.31680E+03  5.35657E+03  2.18060E+03  3.13717E+03  8.98860E+03 -1.91056E+03  8.93919E+03
 -7.39508E+03  6.99047E+03 -9.80634E+03  1.57259E+03 -8.87193E+03 -3.12077E+03 -3.70647E+03 -5.77666E+03
  9.81633E+02 -4.70183E+03  4.05916E+03 -2.59672E+03  3.09774E+03  1.81748E+03 -1.34855E+03  2.85424E+03
 -6.28280E+03  2.27132E+03 -6.79615E+03 -5.13381E+03 -4.57339E+03 -6.73618E+03  2.34138E+03 -7.34844E+03
  4.10975E+03 -3.84767E+03  6.06892E+03 -6.73388E+02  5.59769E+03  1.18386E+03  2.49700E+03  4.61715E+03
 -2.82669E+03  1.53701E+03 -4.64263E+03 -2.96818E+03  2.69893E+03 -4.09180E+03  6.44095E+03 -6.31353E+03
  1.03687E+04  6.15275E+02  9.50365E+03  5.94542E+03  2.82538E+03  9.29150E+03 -3.28328E+03  7.63893E+03
 -8.34340E+03  3.27027E+03 -7.33858E+03 -1.38784E+03 -3.35130E+03 -5.92636E+03  2.36048E+03 -7.09099E+03
  5.77097E+03 -2.44884E+03  6.83743E+03  2.03888E+03  7.79623E+02  6.23404E+03 -1.76562E+03  6.54712E+03
 -3.03656E+03  3.71249E+03 -1.89788E+03  8.30815E+02 -9.72127E+02  9.12557E+02 -4.35172E+02  2.60228E+03
 -2.95016E+03  2.09623E+03 -6.40034E+03  2.36492E+03 -1.06739E+04 -2.34519E+02 -1.10441E+04 -6.36001E+03
 -6.46864E+03 -1.17431E+04  3.38036E+03 -1.45635E+04  8.22591E+03 -1.19169E+04  1.25874E+04 -4.06084E+03
  1.17160E+04  3.67214E+03  8.32215E+03  8.96649E+03 -5.51318E+02  8.66159E+03 -6.07183E+03  6.76216E+03
 -5.76700E+03  1.32697E+03 -2.58712E+03  6.96079E+01 -2.17937E+03 -2.18231E+03  1.22793E+03 -9.34999E+02
 -1.50352E+03 -6.79814E+02 -1.79898E+03 -2.62212E+02 -1.77551E+02 -1.25758E+03  1.07470E+03 -3.94769E+03
  4.18829E+03 -3.86462E+03  5.64208E+03 -1.27219E+03  7.42374E+03  5.31287E+03  4.62220E+01  8.86830E+03
 -2.60917E+03  1.15807E+04 -9.25236E+03  5.70309E+03 -1.32244E+04 -2.38927E+02 -8.89420E+03 -8.35599E+03
 -3.94527E+03 -8.85651E+03  3.13281E+03 -8.37226E+03  6.62039E+03 -4.33969E+03  6.87445E+03  5.26507E+02
  1.68113E+03  2.48814E+03 -9.71066E+02  4.34833E+03 -1.47323E+03 -6.53183E+02  7.77971E+02 -3.55762E+03
  3.22561E+03 -1.77862E+03  3.45347E+03  1.79989E+03  3.34499E+03  4.41550E+03 -1.76374E+02  4.71726E+03
 -4.39770E+03  4.57917E+03 -7.15368E+03  4.11337E+02 -7.44161E+03 -4.38454E+03 -4.49290E+02 -8.42477E+03
  6.11098E+03 -6.81260E+03  7.05651E+03 -3.51995E+03  8.17766E+03  5.81502E+02  3.31723E+03  5.45166E+03
  1.99718E+03  5.64376E+03 -2.35122E+03  7.02671E+03 -4.01125E+03  2.40238E+03 -2.92624E+03  1.07476E+03
 -2.34211E+03 -2.32214E+03 -2.12018E+03 -7.82028E+02 -2.63171E+03  3.37388E+03 -5.03032E+03 -1.99164E+02
 -4.05360E+03 -4.07700E+03 -1.86662E+03 -6.68337E+03  3.44993E+03 -6.76527E+03  4.86477E+03 -3.17636E+03
  6.27065E+03  2.00418E+03  2.85087E+03  3.67612E+03 -6.32145E+01  4.92934E+03 -4.43351E+03  3.49077E+03
