 $NMID ID='MM_0lb_SNR200_12hz_g60_11.RAW', FMTDAT='(8E13.5)'
 TRAMP=1., VOLUME=1. $END
  3.10195E+05 -1.22182E+03  3.38196E+05  2.51085E+05  8.43135E+04  3.37679E+05 -1.31300E+05  2.50282E+05
 -1.91609E+05  8.32486E+04 -1.12703E+05 -3.17752E+04  8.19874E+02 -5.08981E+04  5.40495E+04 -1.93826E+02
  3.56948E+04  5.35498E+04 -1.80264E+04  7.61818E+04 -6.12786E+04  6.42382E+04 -8.55729E+04  3.20476E+04
 -8.15729E+04 -1.21298E+04 -5.64800E+04 -5.28361E+04 -1.50037E+04 -7.14396E+04  2.86597E+04 -4.71937E+04
  4.00765E+04  3.82371E+03  1.76726E+04  4.85513E+04 -3.54908E+04  4.72226E+04 -6.80079E+04 -3.22528E+02
 -5.56610E+04 -5.60000E+04 -8.53315E+03 -7.86472E+04  3.45335E+04 -5.57403E+04  5.03861E+04 -1.82475E+04
  4.44771E+04  1.08499E+04  3.19682E+04  2.61814E+04  1.51491E+04  2.98695E+04 -5.62082E+03  2.79788E+04
 -2.19338E+04  1.27430E+04 -1.74985E+04 -5.77060E+03  6.72535E+03 -7.45595E+03  2.30973E+04  1.63387E+04
  6.41232E+03  3.73616E+04 -3.31696E+04  3.66715E+04 -6.66497E+04  2.99409E+03 -5.91595E+04 -4.49140E+04
 -1.28899E+04 -6.52352E+04  4.16252E+04 -4.80001E+04  6.07484E+04 -4.50285E+03  3.65920E+04  3.36897E+04
 -5.59071E+03  3.82372E+04 -3.12403E+04  1.81509E+04 -3.29599E+04 -3.62481E+03 -1.72763E+04 -1.08644E+04
 -9.44005E+03 -1.47083E+04  1.70647E+03 -2.05192E+04  8.33814E+03 -2.42941E+04  1.67826E+04 -1.16471E+04
  1.01598E+04  5.24265E+03 -1.04194E+04  1.24250E+04 -2.27806E+04 -5.98245E+03 -8.38482E+03 -3.71368E+04
  2.40312E+04 -4.73656E+04  5.03700E+04 -1.97173E+04  4.75008E+04  2.12925E+04  1.61844E+04  4.62702E+04
 -1.52005E+04  3.58848E+04 -2.84102E+04  1.17553E+03 -1.17025E+04 -2.96036E+04  2.07214E+04 -3.57365E+04
  4.23002E+04 -1.01659E+04  3.98313E+04  2.53508E+04  2.14022E+04  4.88939E+04 -7.47927E+03  5.45727E+04
 -3.55665E+04  3.73242E+04 -4.58878E+04  1.03178E+04 -4.55152E+04 -1.90156E+04 -2.60244E+04 -4.03337E+04
  8.00822E+03 -4.03929E+04  3.20638E+04 -1.49670E+04  3.17523E+04  1.01336E+04  6.02491E+03  1.83847E+04
 -1.44724E+04  1.06338E+04 -1.15734E+04 -7.30580E+03  5.68292E+03 -1.01895E+04  1.92860E+04  4.45624E+03
  1.31117E+04  2.18501E+04 -5.26769E+03  2.68670E+04 -2.20114E+04  1.28085E+04 -3.06305E+04 -3.55208E+03
 -2.27426E+04 -1.81316E+04 -1.08923E+04 -2.46846E+04  4.96827E+03 -2.40009E+04  1.93068E+04 -2.24537E+04
  3.03021E+04 -1.36260E+04  3.55673E+04  3.54271E+03  2.58698E+04  2.19743E+04  3.31927E+03  4.08535E+04
 -2.03256E+04  3.20333E+04 -2.98374E+04  1.12690E+04 -2.12312E+04 -9.95873E+03 -4.54993E+03 -1.22447E+04
  2.02563E+03 -2.15055E+03 -6.03498E+03  7.75985E+03 -1.87846E+04  5.19393E+03 -1.88284E+04 -9.33522E+03
 -1.15594E+04 -2.29520E+04  4.16513E+03 -2.71947E+04  1.75170E+04 -1.84100E+04  2.19478E+04 -1.94394E+03
  1.51082E+04  1.56503E+04 -6.20561E+02  2.25656E+04 -1.43934E+04  1.31021E+04 -2.28851E+04 -3.72893E+03
 -1.67324E+04 -1.97051E+04 -2.61956E+03 -2.59203E+04  1.13090E+04 -2.20111E+04  2.23752E+04 -1.13132E+04
  2.17410E+04  1.12198E+03  1.49316E+04  6.80299E+03  8.05431E+03  1.05559E+03  1.08319E+04 -1.05993E+03
  2.10373E+04  3.61884E+03  2.22675E+04  1.61300E+04  1.59187E+04  3.55846E+04 -2.69680E+03  4.04660E+04
 -2.41745E+04  3.25888E+04 -3.69819E+04  1.64434E+04 -4.03701E+04 -3.47058E+03 -3.29709E+04 -2.43308E+04
 -1.22925E+04 -3.32859E+04  1.19106E+04 -2.85207E+04  2.50481E+04 -1.35304E+04  2.24120E+04  5.96894E+03
  8.16497E+03  1.77353E+04 -1.05015E+04  1.55720E+04 -1.70891E+04  1.27368E+03 -1.40361E+04 -1.23900E+04
 -3.69535E+02 -1.74340E+04  1.00405E+04 -1.17909E+04  1.16835E+04 -2.73118E+03  2.63547E+03  8.43987E+03
 -6.97424E+03  2.24322E+03 -8.52713E+03 -8.21896E+03 -1.24078E+03 -1.59619E+04  1.01719E+04 -1.78362E+04
  2.03003E+04 -9.58459E+03  2.37681E+04  3.63214E+03  1.88774E+04  1.53755E+04  9.16792E+03  2.51899E+04
 -4.06420E+03  2.77841E+04 -1.79459E+04  1.65797E+04 -1.90667E+04  3.81942E+03 -1.37395E+04 -5.20507E+03
 -6.83807E+03 -6.61889E+03  7.42488E+02  6.30332E+02 -2.54345E+03  3.17229E+03 -6.09562E+03  5.07193E+03
 -1.36402E+04  6.08037E+02 -1.26261E+04 -1.05834E+04 -5.47696E+03 -1.82610E+04  5.54137E+03 -1.41263E+04
  1.11973E+04 -6.02397E+03  9.46313E+03  3.85093E+03 -1.39860E+03  5.68218E+03 -6.27745E+03 -6.35178E+02
 -6.56092E+03 -9.65098E+03 -1.08385E+03 -1.37766E+04  7.69329E+03 -1.44824E+04  1.67245E+04 -7.26325E+03
  2.15531E+04  3.32050E+03  1.25782E+04  1.25690E+04  2.95794E+03  1.49404E+04 -7.19485E+03  1.29289E+04
 -1.23290E+04  4.93132E+03 -5.92924E+03 -2.90168E+03  2.59067E+03 -4.28001E+03  7.72435E+03 -3.43752E+02
  6.78286E+03  6.05935E+03  1.48615E+03  1.06135E+04 -8.02123E+03  1.13328E+04 -1.28077E+04  4.11099E+03
 -1.03194E+04 -7.03478E+03  1.14291E+03 -1.15047E+04  7.83874E+03 -5.29952E+03  8.12793E+03  2.71536E+03
  1.39264E+03  8.39649E+03 -6.61609E+03  1.03919E+04 -1.25033E+04  5.09609E+03 -1.18507E+04 -4.18207E+03
 -6.43174E+03 -1.41088E+04  2.44832E+03 -1.51913E+04  1.32623E+04 -9.01540E+03  1.37776E+04  4.22569E+03
  7.23435E+03  1.07343E+04 -7.61589E+02  1.37486E+04 -9.36228E+03  6.92726E+03 -1.05349E+04 -1.95466E+03
 -1.04851E+04 -9.10680E+03 -9.73580E+02 -1.02244E+04  4.29515E+03 -9.35555E+03  7.71995E+03 -3.19616E+03
  5.02315E+03  1.62484E+03  1.10601E+02  1.14231E+03  2.68015E+01 -2.07138E+03  8.52903E+02 -6.55108E+03
  9.23128E+03 -3.59416E+03  1.29846E+04 -1.14463E+02  1.30010E+04  8.99375E+03  8.31229E+03  1.58036E+04
 -5.02899E+03  1.96935E+04 -1.67223E+04  1.35132E+04 -2.12033E+04  3.22780E+03 -1.57599E+04 -7.50354E+03
 -7.94946E+03 -1.43785E+04 -1.98656E+03 -1.21232E+04  4.27730E+03 -6.02716E+03  4.53343E+03 -4.13385E+03
  3.04947E+03 -1.91473E+03  3.50778E+03 -3.94734E+03  5.11007E+03 -3.29620E+03  7.03959E+03 -6.56423E+02
  1.08897E+04  2.97027E+03  3.25305E+03  7.23066E+03 -1.56320E+03  8.19792E+03 -1.03291E+04  6.80914E+03
 -1.05135E+04 -1.07863E+03 -7.02494E+03 -8.34265E+03 -1.27159E+03 -1.25597E+04  7.31562E+03 -1.16486E+04
  1.20971E+04 -6.91806E+03  1.47574E+04  2.86948E+03  1.11895E+04  1.15229E+04  7.05833E+02  1.35299E+04
 -6.16134E+03  1.21184E+04 -8.07752E+03  4.41950E+03 -5.59059E+03 -1.95341E+03 -1.75960E+03 -2.15903E+03
 -4.88584E+02 -2.93945E+01 -2.59470E+03  2.22996E+03 -4.71549E+03  1.69982E+03 -9.41589E+03  6.16285E+02
 -3.53964E+03 -7.76019E+03  1.66958E+03 -1.18603E+04  5.92766E+03 -1.04669E+04  1.17229E+04 -3.05197E+03
  1.01168E+04  7.26890E+03  3.83935E+03  1.03616E+04 -2.75524E+03  1.11099E+04 -7.96438E+03  8.63232E+03
 -9.76335E+03  9.60729E+02 -7.92563E+03 -6.94536E+03  1.71239E+02 -9.45936E+03  5.32149E+03 -7.17413E+03
  7.34002E+03 -2.56985E+03  4.32681E+03  2.04744E+03 -4.52218E+00  2.73269E+03  9.75006E+02  1.02928E+03
  1.84062E+03  8.92026E+02  2.05530E+03  6.54714E+02  3.92185E+03  4.50467E+03  3.83811E+03  5.39861E+03
 -1.53621E+03  7.64611E+03 -7.30916E+03  9.42664E+03 -1.16345E+04  2.58848E+03 -1.18957E+04 -4.35076E+03
 -4.27545E+03 -9.79266E+03  2.39396E+03 -1.16136E+04  7.15461E+03 -6.98796E+03  9.15881E+03 -2.16540E+03
  6.33538E+03  4.33965E+03  2.40006E+03  5.93291E+03 -2.67002E+03  2.12591E+03 -3.93635E+03 -9.16190E+02
 -1.02175E+03 -3.85347E+03  1.76832E+03 -5.57235E+03  4.99492E+03 -3.44795E+03  3.23324E+03  1.18549E+03
  2.22749E+03  2.87640E+03  1.33075E+03  1.79478E+03 -7.41906E+02  1.30955E+03  2.17234E+03 -1.55589E+03
  1.20213E+03  1.34256E+03  5.09891E+03  1.73215E+03  2.26403E+03  5.21605E+03  3.37407E+02  7.47949E+03
 -4.33067E+03  4.90943E+03 -6.29533E+03  5.05429E+02 -7.27201E+03 -1.12010E+03 -2.55791E+03 -4.13219E+03
  1.35140E+03 -5.90037E+03  1.64947E+03 -1.10229E+03  2.91565E+03  2.75981E+03 -1.86794E+03  3.78268E+03
 -5.83297E+03  3.73085E+03 -6.75092E+03 -4.07077E+03 -3.15950E+03 -4.16276E+03 -2.49353E+02 -5.96489E+03
  4.10902E+03 -2.61351E+03  4.40548E+03 -1.13254E+03  4.51020E+03  6.47347E+02 -3.32818E+02  3.01383E+03
 -2.18054E+03  1.66234E+03 -4.37734E+03 -2.36372E+03  1.10786E+03 -5.87337E+03  3.74361E+03 -3.62970E+03
  6.64474E+03 -1.66109E+01  6.87258E+03  4.32839E+03  4.49660E+02  6.24346E+03 -1.66808E+03  6.68184E+03
 -4.62507E+03  2.64250E+03 -5.22843E+03 -8.92116E+02 -2.90245E+03 -4.37268E+03  1.17371E+03 -4.70532E+03
  3.22603E+03 -1.28504E+03  3.03162E+03  1.20208E+03  1.53897E+03  4.12606E+03 -4.13587E+02  3.21217E+03
 -2.28985E+03  2.74627E+03 -2.04184E+03  2.28256E+02 -4.01488E+02  8.79501E+02 -3.18307E+03  1.10438E+03
 -2.61397E+03  3.18612E+03 -4.19570E+03  1.63968E+03 -8.18802E+03  1.06943E+03 -8.47505E+03 -3.91857E+03
 -4.24399E+03 -8.54176E+03  1.35819E+03 -9.87874E+03  6.13138E+03 -7.91018E+03  1.00886E+04 -2.04893E+03
  8.75896E+03  7.65301E+02  4.03880E+03  4.44153E+03  9.36330E+02  7.17643E+03 -3.81044E+03  5.08644E+03
 -4.39117E+03  6.22142E+02 -3.69916E+03 -1.06846E+03  1.43866E+03 -1.32521E+03 -7.89394E+02  1.18690E+03
 -1.11312E+03  1.32375E+03 -2.05875E+03  6.01637E+02 -1.91443E+03 -1.69501E+03  2.94733E+02 -1.27744E+03
  2.77617E+03 -2.88323E+03  4.25333E+03  1.13632E+03  4.54937E+03  3.79464E+03  9.57583E+02  7.94865E+03
 -3.34884E+03  8.83114E+03 -7.08872E+03  4.43956E+03 -7.30855E+03  4.31618E+02 -6.18118E+03 -4.95806E+03
 -2.72406E+03 -6.33340E+03  2.21443E+03 -5.02673E+03  3.09369E+03 -3.09736E+03  3.20455E+03 -3.59372E+02
  1.53969E+03  2.34369E+03 -5.20344E+02  2.49345E+03  2.97047E+01  4.52791E+01  1.30009E+03 -2.35770E+03
  1.09789E+03 -1.03057E+02  1.84447E+03  1.18026E+03  1.83238E+03  1.66118E+03 -3.57236E+02  3.04202E+03
 -1.92547E+03  2.66459E+03 -5.22915E+03  1.17206E+03 -3.85591E+03 -1.76665E+03 -8.08276E+02 -5.99224E+03
  2.55270E+03 -4.34725E+03  4.50493E+03 -4.88036E+02  4.32404E+03 -1.73653E+02  2.60738E+03  4.00743E+03
  9.13571E+02  3.43924E+03 -2.38282E+03  3.27044E+03 -1.18596E+03  1.57119E+03 -2.25245E+02  7.24359E+02
 -3.08800E+02  6.09576E+02 -7.63503E+02 -8.85090E+02 -2.63146E+03  9.45635E+02 -3.16178E+03 -5.21783E+01
 -3.55193E+03 -1.00718E+03 -1.00157E+03 -5.65497E+03  1.77785E+03 -3.40197E+03  4.29923E+03 -2.00623E+03
  3.75423E+03  1.13877E+02  1.38124E+03  3.14454E+03  7.34246E+02  4.69139E+03 -2.23089E+03  2.99294E+03
