 $NMID ID='MM_0lb_SNR200_17hz_g40_34.RAW', FMTDAT='(8E13.5)'
 TRAMP=1., VOLUME=1. $END
  3.09669E+05  8.81090E+02  3.37358E+05  2.51281E+05  8.33832E+04  3.37065E+05 -1.34096E+05  2.50971E+05
 -1.89663E+05  8.33086E+04 -1.11023E+05 -3.29279E+04  4.13901E+02 -5.01282E+04  5.42258E+04  9.53505E+02
  3.51896E+04  5.20888E+04 -1.66839E+04  7.55219E+04 -6.03207E+04  6.31827E+04 -8.24757E+04  3.11294E+04
 -8.04277E+04 -1.19657E+04 -5.75705E+04 -4.99353E+04 -1.44537E+04 -6.93565E+04  2.72974E+04 -4.51571E+04
  4.00673E+04  3.40897E+03  1.61264E+04  4.65809E+04 -3.40299E+04  4.69089E+04 -6.60341E+04 -9.12542E+02
 -5.28027E+04 -5.57902E+04 -5.80449E+03 -7.53792E+04  3.29750E+04 -5.32042E+04  4.64977E+04 -1.66016E+04
  4.22393E+04  1.10086E+04  3.04962E+04  2.47876E+04  1.58177E+04  2.81989E+04 -4.18160E+03  2.83491E+04
 -2.11437E+04  1.28523E+04 -1.92494E+04 -3.76214E+03  4.22343E+03 -7.67402E+03  2.18518E+04  1.11076E+04
  8.10241E+03  3.35823E+04 -3.04632E+04  3.38622E+04 -6.13030E+04  2.23110E+03 -5.66032E+04 -4.09718E+04
 -1.26959E+04 -6.05327E+04  3.84000E+04 -4.40142E+04  5.63483E+04 -1.97040E+03  3.25085E+04  3.11506E+04
 -6.93647E+03  3.35376E+04 -2.85063E+04  1.29333E+04 -2.72462E+04 -5.95515E+03 -1.56287E+04 -1.07445E+04
 -7.25938E+03 -1.11607E+04 -1.23086E+03 -1.59289E+04  6.26003E+03 -2.20440E+04  1.38050E+04 -1.39881E+04
  1.15539E+04  5.24948E+03 -6.59629E+03  1.34420E+04 -1.92448E+04 -3.19184E+03 -8.42883E+03 -3.07335E+04
  2.24562E+04 -4.13204E+04  4.41988E+04 -1.84804E+04  4.27147E+04  1.80060E+04  1.48265E+04  4.22400E+04
 -1.46944E+04  3.17807E+04 -2.33875E+04  1.04813E+03 -8.56701E+03 -2.66077E+04  2.10778E+04 -3.31966E+04
  3.78979E+04 -8.71374E+03  3.19802E+04  2.42320E+04  1.56927E+04  4.30119E+04 -7.60734E+03  4.58059E+04
 -2.89485E+04  2.98840E+04 -3.84060E+04  8.04349E+03 -3.90433E+04 -1.62332E+04 -2.25071E+04 -3.47758E+04
  6.91612E+03 -3.49813E+04  3.00816E+04 -1.36223E+04  2.74519E+04  1.06718E+04  3.41557E+03  1.72972E+04
 -1.33622E+04  7.91994E+03 -9.95950E+03 -8.51893E+03  6.09719E+03 -1.00239E+04  1.73313E+04  6.76987E+03
  1.22959E+04  2.19617E+04 -7.07630E+03  2.35671E+04 -2.22756E+04  8.82297E+03 -2.55410E+04 -5.69291E+03
 -1.73388E+04 -1.64203E+04 -4.90879E+03 -1.70997E+04  3.56450E+03 -1.52056E+04  1.26215E+04 -1.54076E+04
  2.21457E+04 -1.20521E+04  2.85262E+04  2.78598E+03  2.13278E+04  1.69000E+04  4.00947E+03  3.34986E+04
 -1.58472E+04  2.82868E+04 -2.53562E+04  9.62122E+03 -2.04689E+04 -1.05220E+04 -3.37031E+03 -1.43339E+04
  2.32823E+03 -2.15271E+03 -3.42820E+03  6.93338E+03 -1.35722E+04  5.96226E+03 -1.40716E+04 -6.28855E+03
 -9.19427E+03 -1.56398E+04  4.93055E+03 -2.03903E+04  1.22373E+04 -1.42016E+04  1.56216E+04 -1.91133E+03
  8.97894E+03  1.09719E+04 -2.47945E+02  1.60844E+04 -1.07412E+04  9.37505E+03 -1.74162E+04 -3.62484E+03
 -1.11309E+04 -1.42026E+04  8.73899E+01 -2.06194E+04  9.27352E+03 -1.56757E+04  1.78566E+04 -6.87218E+03
  1.51602E+04  1.12607E+03  1.13387E+04  4.72498E+03  5.98717E+03  1.28093E+03  7.88405E+03  4.66346E+02
  1.47386E+04  2.49892E+03  1.57959E+04  1.23968E+04  8.28038E+03  2.54663E+04 -4.10591E+03  2.75525E+04
 -1.67381E+04  2.17256E+04 -2.46219E+04  1.10372E+04 -2.65176E+04 -1.58609E+03 -2.25123E+04 -1.47607E+04
 -1.06546E+04 -2.12196E+04  6.79745E+03 -2.05551E+04  1.70982E+04 -1.23620E+04  1.51908E+04  4.11437E+03
  6.98277E+03  1.16100E+04 -7.49614E+03  1.06877E+04 -1.36878E+04  2.39275E+03 -1.05585E+04 -7.88463E+03
 -1.02270E+02 -1.23592E+04  6.65850E+03 -9.88843E+03  7.66528E+03 -1.38348E+03  1.40636E+03  5.69491E+03
 -5.50653E+03  2.06541E+03 -4.30077E+03 -5.27421E+03 -3.38589E+02 -1.05907E+04  7.25581E+03 -1.06212E+04
  1.36920E+04 -4.89745E+03  1.24632E+04  2.82664E+03  1.10030E+04  9.71084E+03  4.39250E+03  1.52229E+04
 -1.27979E+03  1.70875E+04 -9.99363E+03  1.11845E+04 -1.15368E+04  1.15270E+03 -8.14847E+03 -1.23285E+03
 -4.17760E+03 -4.05643E+03 -1.34832E+03  9.48470E+02 -2.27243E+03  2.04736E+03 -3.85709E+03  4.08976E+03
 -8.88686E+03 -9.95278E+02 -9.14642E+03 -7.72468E+03 -4.12270E+03 -1.29413E+04  3.52644E+03 -9.85022E+03
  7.91876E+03 -4.61723E+03  5.45886E+03  1.66966E+03  9.97616E+02  2.93344E+03 -2.57677E+03 -2.30755E+02
 -3.86851E+03 -6.13007E+03 -8.69516E+02 -7.66549E+03  4.47502E+03 -8.15198E+03  1.06880E+04 -4.68979E+03
  1.19813E+04  1.58336E+03  8.95368E+03  7.04034E+03  1.28494E+03  9.26660E+03 -5.42011E+03  8.05894E+03
 -6.19964E+03  3.79371E+03 -4.05315E+03 -7.51053E+02  1.33661E+03 -2.11372E+03  4.36079E+03 -1.19017E+03
  4.44664E+03  3.96528E+03 -3.13698E+02  7.21986E+03 -5.05445E+03  6.83749E+03 -8.20373E+03  1.34462E+03
 -4.03567E+03 -4.69103E+03  8.96254E+01 -6.52276E+03  4.63487E+03 -3.93142E+03  4.11504E+03  1.39136E+03
 -3.03299E+02  4.45829E+03 -4.19621E+03  5.62412E+03 -5.76776E+03  2.94938E+03 -4.77970E+03 -3.07975E+02
 -2.97524E+03 -7.14341E+03  9.30805E+02 -7.29257E+03  6.61483E+03 -5.35100E+03  6.83254E+03  3.53579E+02
  4.13299E+03  5.03543E+03 -5.34229E+01  7.00762E+03 -4.99307E+03  4.63374E+03 -4.35670E+03 -1.37166E+03
 -5.18764E+03 -5.89349E+03 -1.08876E+03 -5.26590E+03  2.53728E+03 -4.74353E+03  3.27217E+03 -3.38769E+03
  3.96216E+03 -8.67713E+01 -5.75140E+02  7.74347E+02  2.37626E+02 -8.60509E+02 -3.02860E+02 -1.46209E+03
  5.01026E+03 -1.93152E+03  6.24881E+03  6.37683E+02  6.97436E+03  3.55142E+03  5.37306E+03  7.26691E+03
 -6.13679E+02  1.06494E+04 -8.39060E+03  7.61141E+03 -9.83014E+03  9.31026E+02 -8.94802E+03 -2.64002E+03
 -4.27394E+03 -7.74018E+03 -5.43752E+02 -7.34012E+03  3.06434E+03 -2.66224E+03  2.26779E+03 -1.42209E+03
  2.05239E+03 -2.79246E+03  1.93736E+03 -2.39818E+03  3.81184E+03 -2.02014E+03  2.81697E+03  6.96937E+02
  5.42915E+03  1.71575E+03  7.47028E+02  3.88643E+03 -2.49219E+03  2.62035E+03 -6.20447E+03  3.07307E+03
 -6.32934E+03 -7.13350E+02 -1.93215E+03 -3.05470E+03  1.08604E+03 -5.08700E+03  3.18948E+03 -5.93301E+03
  6.81974E+03 -3.11275E+03  6.98626E+03  2.29083E+02  6.51712E+03  4.82346E+03  1.40926E+03  7.35219E+03
 -2.34096E+03  5.92315E+03 -2.78090E+03  1.43409E+03 -2.03802E+03 -1.94424E+03 -1.36935E+03 -7.91662E+02
 -8.87592E+02  6.57746E+02 -1.47887E+03  2.94756E+03 -3.66621E+03  1.27657E+03 -4.96429E+03 -1.72412E+03
 -1.78910E+03 -4.63124E+03  1.66175E+02 -5.31414E+03  1.99376E+03 -4.28174E+03  3.38942E+03 -5.62525E+02
  4.28132E+03  3.39633E+03  2.97743E+03  4.46096E+03 -9.63726E+02  4.76059E+03 -3.30874E+03  3.80437E+03
 -4.14999E+03  9.55337E+02 -3.62711E+03 -3.10186E+03  1.73864E+03 -3.78527E+03  2.22465E+03 -2.35722E+03
  3.64081E+03 -2.11502E+03  2.22440E+03  1.52079E+02 -4.15879E+02  2.02295E+03  7.08283E+02  7.68034E+02
  2.47596E+03  1.15128E+03 -6.32719E+01  1.23017E+03  1.17372E+03  2.65991E+03  9.69693E+02  2.14279E+03
 -1.48256E+03  4.11811E+03 -2.96790E+03  4.91078E+03 -4.71185E+03  8.32071E+02 -5.64263E+03  6.77217E+02
 -2.46278E+03 -5.21692E+03  8.87785E+02 -5.08187E+03  1.73317E+03 -2.92069E+03  3.48307E+03 -1.55142E+03
  2.53490E+03  1.87174E+03  1.07301E+03  2.20095E+03  2.91468E+02  5.80512E+02 -1.37432E+03 -8.85970E+02
 -1.62916E+03 -1.85586E+03  3.24097E+02 -9.27470E+02  1.36793E+03 -3.69827E+02  2.43828E+03  1.56585E+02
  8.13190E+02  1.23412E+02  6.38222E+02 -3.69416E+02 -6.78938E+02  7.85669E+02  1.58537E+03 -9.97273E+02
  1.56525E+02 -9.93682E+02  2.16518E+03  1.36003E+03 -3.95388E+02  3.52272E+03  9.04529E+02  3.44440E+03
 -2.01855E+03  1.84072E+03 -2.88793E+03  9.43955E+02 -2.19222E+03 -5.00328E+02 -1.00747E+02 -1.67985E+03
  7.51112E+02 -1.65226E+03  1.22126E+03 -1.48112E+03  5.78602E+02  1.13589E+03  8.51307E+02  1.91087E+03
 -1.42057E+03  4.45492E+02 -6.56568E+02 -1.63484E+03 -4.64258E+02 -2.51969E+03 -4.04598E+02 -2.19073E+03
  1.25875E+03 -9.35211E+02  9.07756E+02  1.28399E+03  9.97710E+02  1.54844E+02  1.01723E+03  7.46379E+02
 -9.26709E+02  8.21902E+02 -6.73986E+02 -2.91021E+02  9.47967E+02 -1.16413E+03  2.62022E+03 -9.55321E+02
  1.99670E+03  5.61303E+02  2.40077E+03  1.55160E+03  1.55164E+03  1.84404E+03 -1.31527E+03  1.83085E+03
 -1.58544E+03  3.58366E+02 -1.77961E+03 -9.89059E+02 -1.64984E+03 -1.63401E+03  1.61780E+02 -1.48488E+03
  1.74548E+03 -3.86806E+02 -8.54328E+00  1.29904E+03  6.92915E+02  2.00913E+03 -4.86957E+02  1.90027E+03
 -5.99240E+02  2.10034E+03 -5.80655E+02  2.73595E+02  3.00844E+02  1.48460E+03 -8.41956E+02 -9.10429E+00
 -3.60338E+02  5.91798E+02 -2.90738E+03  1.60231E+03 -2.35447E+03  3.41086E+01 -2.55287E+03 -2.69595E+03
 -1.76818E+03 -3.49083E+03  6.19740E+02 -3.61772E+03  1.40507E+03 -3.88461E+03  3.07192E+03 -9.71491E+02
  3.21458E+03  1.41494E+03  2.07847E+03  2.33503E+03 -1.51906E+03  2.40150E+03 -1.17645E+03  1.96672E+03
 -7.76626E+02  1.10277E+03 -1.02848E+03 -5.66070E+02 -3.90604E+02  1.18430E+03 -1.50077E+03 -1.06076E+02
 -1.78022E+03 -7.80194E+01  7.02642E+02 -1.27662E+02  6.42811E+02 -7.42469E+02 -3.94789E+02 -1.13361E+03
  1.62041E+03 -9.95544E+02  1.03058E+03  3.39164E+01  1.62258E+03  1.89075E+03  2.64144E+02  2.05945E+03
 -7.52512E+01  2.49177E+03 -2.12207E+03  2.56451E+03 -2.38985E+03  8.88711E+02 -1.34033E+03 -2.20023E+03
 -7.91812E+02 -2.66506E+03  9.20715E+02 -1.85052E+03  1.11514E+03 -5.47621E+02  2.40327E+03 -2.87960E+02
  5.77172E+02  2.05745E+02 -6.51073E+02  4.57098E+02 -7.63571E+02 -4.82935E+01  8.09716E+02 -1.27305E+03
  9.54708E+02  7.72021E+02  2.10587E+03  4.47927E+02 -1.24391E+02  1.01085E+03  5.09765E+02  4.48058E+02
 -4.24964E+02  4.73914E+02 -1.09707E+03  7.20474E+02 -1.22818E+02 -2.02281E+02 -2.80618E+02 -2.05730E+03
  7.38195E+02 -3.67580E+02  2.41011E+03  3.45604E+02  9.70272E+02 -4.74095E+02  1.26490E+03  1.64057E+03
  1.88901E+02  2.24901E+03 -6.12729E+02  1.16451E+03 -8.28133E+01  1.88932E+03 -1.13039E+03  1.58690E+02
  6.83945E+01  1.71265E+02 -8.90259E+02  1.22838E+02 -3.96110E+02 -1.17598E+02 -8.97773E+02 -2.18041E+02
 -1.60807E+03  3.11777E+02 -1.73690E+02 -6.37406E+02  4.57850E+02 -4.08135E+03  1.25691E+03 -2.28219E+02
  3.53587E+02  1.43243E+02 -1.55188E+03  2.25746E+02 -7.32478E+01  8.13234E+02 -8.56047E+02  8.90878E+02
