 $NMID ID='MM_0lb_SNR200_16hz_g45_29.RAW', FMTDAT='(8E13.5)'
 TRAMP=1., VOLUME=1. $END
  3.09750E+05  6.64916E+02  3.38115E+05  2.50764E+05  8.62430E+04  3.37681E+05 -1.32661E+05  2.50357E+05
 -1.89790E+05  8.23992E+04 -1.11521E+05 -3.31721E+04  1.52173E+03 -5.02309E+04  5.30677E+04  6.32161E+02
  3.48163E+04  5.25257E+04 -1.68177E+04  7.47638E+04 -6.10879E+04  6.25125E+04 -8.29519E+04  3.19286E+04
 -7.97761E+04 -1.22328E+04 -5.59677E+04 -5.00149E+04 -1.46213E+04 -6.91860E+04  2.73816E+04 -4.58377E+04
  3.99110E+04  3.33826E+03  1.54930E+04  4.69898E+04 -3.39523E+04  4.59183E+04 -6.60949E+04 -6.19383E+02
 -5.18086E+04 -5.54131E+04 -5.41895E+03 -7.50292E+04  3.51541E+04 -5.39433E+04  4.78800E+04 -1.64991E+04
  4.24970E+04  1.13501E+04  3.12010E+04  2.51168E+04  1.75847E+04  2.81887E+04 -5.23387E+03  2.67269E+04
 -2.19127E+04  1.29472E+04 -1.82374E+04 -5.65344E+03  4.27342E+03 -6.50686E+03  2.10074E+04  1.17131E+04
  7.96394E+03  3.44696E+04 -3.19860E+04  3.49971E+04 -6.32875E+04  1.60622E+03 -5.58143E+04 -4.15576E+04
 -1.09928E+04 -6.21304E+04  3.80971E+04 -4.35073E+04  5.72738E+04 -2.31017E+03  3.25624E+04  3.15244E+04
 -6.75093E+03  3.42919E+04 -2.89553E+04  1.39269E+04 -3.01348E+04 -6.41721E+03 -1.54566E+04 -1.02986E+04
 -8.25015E+03 -1.15955E+04 -1.39469E+03 -1.75253E+04  7.39447E+03 -2.15792E+04  1.49372E+04 -1.41209E+04
  1.25287E+04  4.27177E+03 -5.63921E+03  1.26259E+04 -1.99662E+04 -3.23131E+03 -7.99050E+03 -3.15088E+04
  2.27713E+04 -4.12576E+04  4.68581E+04 -1.88485E+04  4.27584E+04  2.03420E+04  1.60382E+04  4.24688E+04
 -1.55491E+04  3.12638E+04 -2.49136E+04  1.65604E+03 -9.23775E+03 -2.76044E+04  2.05490E+04 -3.18485E+04
  3.93397E+04 -8.34837E+03  3.31741E+04  2.26417E+04  1.67962E+04  4.40772E+04 -6.74426E+03  4.77941E+04
 -3.03511E+04  3.15963E+04 -3.91761E+04  8.44293E+03 -3.96959E+04 -1.58265E+04 -2.27449E+04 -3.56439E+04
  7.06754E+03 -3.70208E+04  3.13182E+04 -1.35332E+04  2.91843E+04  1.04463E+04  4.54203E+03  1.78182E+04
 -1.28387E+04  7.79941E+03 -1.01562E+04 -7.18822E+03  5.25751E+03 -1.02938E+04  1.72903E+04  5.12228E+03
  1.28119E+04  2.10140E+04 -5.95906E+03  2.38638E+04 -2.12482E+04  9.62666E+03 -2.63439E+04 -5.88493E+03
 -1.76490E+04 -1.67552E+04 -7.27305E+03 -1.81466E+04  3.07541E+03 -1.69713E+04  1.34333E+04 -1.60795E+04
  2.25288E+04 -1.18500E+04  2.91700E+04  2.25796E+03  2.15641E+04  1.80275E+04  3.82552E+03  3.39442E+04
 -1.70550E+04  2.97659E+04 -2.70396E+04  9.25434E+03 -1.92584E+04 -1.06697E+04 -3.85351E+03 -1.24687E+04
  1.99613E+03 -2.15669E+03 -2.98168E+03  6.48343E+03 -1.35917E+04  4.83785E+03 -1.51657E+04 -5.66672E+03
 -8.67654E+03 -1.78991E+04  4.98716E+03 -2.09274E+04  1.41335E+04 -1.54662E+04  1.61318E+04 -1.73329E+03
  8.95098E+03  1.16921E+04 -1.23854E+03  1.73080E+04 -1.16839E+04  1.00170E+04 -1.69297E+04 -2.52570E+03
 -1.26398E+04 -1.59509E+04 -1.78985E+03 -2.02759E+04  9.51081E+03 -1.68628E+04  1.70113E+04 -6.83172E+03
  1.59038E+04  9.05976E+02  1.15089E+04  5.42967E+03  6.77303E+03  2.60163E+02  8.65350E+03 -1.75031E+03
  1.54093E+04  4.02903E+03  1.67299E+04  1.61628E+04  1.08019E+04  2.77377E+04 -3.05641E+03  3.02832E+04
 -1.79611E+04  2.41549E+04 -2.76981E+04  1.11210E+04 -2.89533E+04 -2.85719E+03 -2.44292E+04 -1.71614E+04
 -1.11745E+04 -2.41765E+04  7.76637E+03 -2.11208E+04  1.99367E+04 -1.19353E+04  1.80446E+04  4.88686E+03
  6.99529E+03  1.24846E+04 -5.98511E+03  1.24996E+04 -1.50082E+04  2.48691E+03 -1.11735E+04 -8.96512E+03
  3.62614E+02 -1.39885E+04  6.73710E+03 -1.08664E+04  7.98197E+03 -1.58668E+03  3.37666E+03  6.66578E+03
 -5.97628E+03  1.18096E+03 -5.74636E+03 -5.39953E+03 -1.43899E+03 -1.13864E+04  9.85070E+03 -1.16052E+04
  1.46780E+04 -5.81260E+03  1.46535E+04  2.80088E+03  1.44738E+04  1.14123E+04  6.20711E+03  1.67255E+04
 -2.25267E+03  1.84944E+04 -1.25995E+04  1.25746E+04 -1.27853E+04  2.77583E+03 -8.71001E+03 -3.23655E+03
 -4.82103E+03 -5.51131E+03 -5.20149E+02  1.43466E+03 -2.33968E+03  1.89218E+03 -4.43209E+03  5.06546E+03
 -9.60147E+03 -2.60360E+02 -9.22478E+03 -8.46988E+03 -5.06014E+03 -1.40358E+04  3.68052E+03 -9.92089E+03
  8.84825E+03 -4.15168E+03  5.51719E+03  3.17286E+03  3.64536E+02  3.14762E+03 -4.20146E+03  5.40526E+02
 -3.50323E+03 -5.32761E+03 -1.68951E+03 -8.96697E+03  3.53014E+03 -8.70227E+03  1.16118E+04 -3.87941E+03
  1.31188E+04  1.34166E+03  1.07807E+04  7.54383E+03  1.72350E+03  1.10429E+04 -6.25483E+03  9.47732E+03
 -8.40460E+03  2.68590E+03 -4.40052E+03 -2.06739E+03  2.50937E+03 -3.34729E+03  5.24330E+03 -7.74187E+02
  5.20909E+03  4.08617E+03  2.58350E+03  7.20282E+03 -4.19946E+03  5.35337E+03 -7.83201E+03  1.91738E+03
 -6.50473E+03 -4.89268E+03 -2.24718E+02 -8.47870E+03  3.55610E+03 -3.75142E+03  3.41380E+03  1.19648E+03
  7.55371E+02  4.37452E+03 -5.15072E+03  6.06746E+03 -6.73062E+03  4.06211E+03 -6.00257E+03 -3.01369E+02
 -4.62481E+03 -6.34016E+03  2.06454E+03 -8.92036E+03  7.63281E+03 -7.28047E+03  8.54631E+03  1.91865E+03
  5.89629E+03  6.09107E+03 -6.00259E+02  9.16370E+03 -6.55412E+03  4.47512E+03 -6.37971E+03 -6.13125E+02
 -6.16875E+03 -6.61235E+03 -1.46577E+03 -6.64857E+03  1.92277E+03 -6.95256E+03  3.04674E+03 -3.18873E+03
  3.23060E+03 -3.22794E+02  6.51271E+02  1.09686E+03  8.35730E+02 -9.00459E+02  1.35100E+03 -2.91131E+03
  4.11798E+03 -1.22106E+03  6.76931E+03  1.11559E+03  7.85406E+03  4.93891E+03  5.60298E+03  9.29757E+03
 -1.46909E+03  1.03362E+04 -8.81260E+03  8.22602E+03 -1.17676E+04  1.60751E+03 -9.95407E+03 -4.00715E+03
 -5.41407E+03 -7.79607E+03 -1.32797E+02 -7.61453E+03  3.22696E+03 -2.60771E+03  2.22770E+03 -2.63393E+03
  1.24347E+03 -2.63720E+03  2.97679E+03 -2.64602E+03  2.76559E+03 -2.58926E+03  4.09268E+03  2.36692E+02
  6.04001E+03  1.68648E+03  6.39950E+02  4.34335E+03 -2.33551E+03  4.75336E+03 -5.38386E+03  3.56833E+03
 -7.00839E+03 -8.01447E+02 -3.14027E+03 -4.92769E+03 -3.93150E+02 -7.04004E+03  4.34292E+03 -7.02122E+03
  6.84770E+03 -3.61130E+03  1.01390E+04  6.06214E+02  6.92014E+03  5.85501E+03  1.00866E+03  7.99033E+03
 -2.24024E+03  7.64857E+03 -5.02513E+03  3.38519E+03 -2.90068E+03 -4.50953E+02 -1.63293E+03 -2.26722E+02
 -1.76006E+03  1.26742E+03 -1.79192E+03  3.07352E+03 -2.44897E+03  6.04565E+02 -5.06282E+03 -1.00727E+03
 -2.42861E+03 -4.63853E+03  1.11606E+03 -6.11694E+03  4.71399E+03 -6.33529E+03  6.51059E+03 -1.85369E+03
  5.77955E+03  2.63143E+03  2.83580E+03  5.40384E+03 -1.13758E+03  6.67657E+03 -2.41624E+03  4.88110E+03
 -5.29839E+03 -9.85449E+02 -5.01533E+03 -3.91308E+03  4.70969E+02 -4.09078E+03  2.52726E+03 -3.15690E+03
  4.10181E+03 -1.24592E+03  2.93569E+03  1.75739E+02  4.00853E+02  2.38995E+03  3.86226E+02  3.74659E+02
  3.15376E+03  1.74705E+03  1.87309E+03  1.57767E+03  2.39506E+03  1.70612E+03  1.96601E+03  2.58189E+03
 -2.59023E+03  4.25232E+03 -2.09255E+03  5.39974E+03 -4.90041E+03  1.92194E+03 -5.55726E+03 -1.82005E+03
 -2.06844E+03 -4.28311E+03  2.99282E+02 -6.56497E+03  2.66063E+03 -3.74659E+03  3.32282E+03 -1.53176E+03
  3.40204E+03  3.06436E+03  2.21873E+03  2.39242E+03 -1.97663E+02  1.30577E+03 -1.93368E+03 -1.20363E+03
  2.52003E+02 -2.58647E+03  1.44229E+03 -1.61563E+03  2.34229E+03 -6.79276E+02  1.76089E+03  7.05964E+02
  1.52898E+03  9.50874E+02  2.01545E+03  1.68028E+02  1.77548E+02  3.14330E+02  2.28038E+03 -3.20471E+02
 -4.20548E+02 -1.25111E+03  2.66831E+03  1.03922E+03  3.62549E+02  3.51090E+03 -1.40581E+03  3.40821E+03
 -3.11107E+03  2.49910E+03 -4.25133E+03  6.27604E+02 -2.45641E+03 -1.51945E+03 -1.65118E+03 -2.03938E+03
  1.19522E+03 -1.82807E+03  1.12780E+03 -1.13433E+03  2.53543E+02  1.57794E+03 -1.09646E+03  7.06604E+02
 -2.44907E+03  6.99513E+02 -1.16309E+03 -2.09100E+03 -1.86405E+03 -2.75712E+03  7.75458E+02 -2.73395E+03
  9.25048E+02 -1.56572E+03  1.34474E+03  1.52130E+03  1.19697E+03  4.19324E+02  2.56289E+02  1.80640E+03
  4.36270E+02 -9.74552E+01 -1.82257E+03 -4.89685E+02  9.52025E+02 -2.55077E+03  2.60610E+03 -1.29737E+03
  1.96038E+03  8.36247E+02  3.73873E+03  2.46730E+02  1.15646E+03  3.42557E+03 -8.15447E+02  2.64446E+03
 -1.87144E+03  1.03233E+02 -2.90900E+03 -6.23961E+02 -2.17539E+03 -3.19009E+03 -3.84216E+02 -2.63801E+03
 -2.16888E+02 -9.70696E+02  1.06912E+03  2.22429E+02  1.31975E+03  1.86829E+03  3.25728E+02  1.13388E+03
 -3.93690E+02  9.11184E+02 -1.48352E+03 -3.44741E+02  9.35817E+02  2.89059E+02 -2.23921E+02 -2.59372E+02
 -1.42647E+03  1.72981E+03 -1.42336E+03  8.69035E+02 -2.57889E+03  4.30111E+02 -3.72797E+03 -1.79310E+03
 -2.23100E+03 -4.01604E+03  7.91684E+02 -4.24148E+03  1.55524E+03 -4.30876E+03  4.27018E+03 -2.94024E+03
  3.04566E+03  1.18154E+02  9.53554E+02  1.79344E+03 -1.27030E+03  1.88650E+03 -1.29823E+03  2.31337E+03
 -1.81150E+03  1.40660E+03 -8.09204E+02  3.36061E+02 -9.80576E+02  1.42060E+02 -1.39439E+03 -2.22020E+02
 -1.60826E+03 -8.30335E+01 -1.43851E+03  1.38647E+03  1.72317E+02  5.69650E+02  3.11884E+02 -1.11886E+03
  2.32374E+03 -8.63760E+01  2.03047E+03 -9.39107E+01  2.44928E+03  9.51054E+02  3.86207E+02  1.81968E+03
 -2.20868E+03  3.28172E+03 -3.27949E+03  2.51461E+03 -2.59586E+03 -7.51598E+02 -2.59350E+03 -2.38060E+03
 -1.37300E+03 -2.18578E+03  1.97681E+01 -1.80832E+03  4.61768E+02 -8.58149E+02  1.26918E+03 -1.78708E+02
  1.85029E+03  1.20337E+03  4.28297E+02  4.71550E+02 -1.55115E+03  1.00541E+03 -8.38179E+02 -8.95112E+02
  1.22441E+03 -5.39196E+02  1.53390E+03  2.11127E+02  8.49056E+02 -2.01540E+02  1.54562E+02  1.21551E+03
  5.61043E+01  1.90661E+03 -1.98264E+03  9.77350E+02 -2.00120E+03  6.32728E+02 -4.20029E+02 -1.81131E+03
  2.30875E+03 -1.55855E+03  1.01108E+03  1.77890E+02  1.66894E+03 -5.11153E+02  2.15821E+02  1.34153E+03
  5.75971E+02  4.79562E+02 -1.86289E+03  1.48686E+03 -1.66675E+03  4.46997E+02  3.11550E+02  1.96134E+01
 -4.26626E+02  6.19801E+02 -7.60821E+02  4.02389E+02 -3.90509E+02 -7.09191E+02 -9.54666E+01 -7.56494E+02
 -1.87120E+03 -4.43847E+02  4.34816E+02 -3.04165E+02  5.97110E+02 -2.50348E+03  2.77808E+02 -1.06299E+03
  8.84767E+02  6.56216E+02  7.12526E+02  8.18315E+02 -6.29331E+02  1.56647E+03 -4.42360E+02  1.77154E+03
