 $NMID ID='MM_0lb_SNR200_7hz_g50_41.RAW', FMTDAT='(8E13.5)'
 TRAMP=1., VOLUME=1. $END
  3.12792E+05  1.46929E+03  3.38039E+05  2.50188E+05  8.58730E+04  3.37803E+05 -1.32156E+05  2.52699E+05
 -1.91982E+05  8.49606E+04 -1.13348E+05 -3.27139E+04  3.43788E+02 -5.01339E+04  5.29406E+04 -4.11808E+02
  3.48924E+04  5.12246E+04 -1.59423E+04  7.59107E+04 -6.28025E+04  6.52986E+04 -8.50004E+04  3.39712E+04
 -8.25248E+04 -1.22227E+04 -6.04062E+04 -5.23600E+04 -1.64101E+04 -7.30088E+04  2.75014E+04 -4.67714E+04
  4.19099E+04  3.24934E+03  1.66852E+04  4.77465E+04 -3.57341E+04  4.73488E+04 -6.97827E+04  4.10294E+02
 -5.66250E+04 -5.70173E+04 -7.69450E+03 -7.88885E+04  3.43369E+04 -5.80775E+04  5.08224E+04 -1.84748E+04
  4.33662E+04  1.33390E+04  3.34114E+04  2.68322E+04  1.50315E+04  3.10244E+04 -7.30113E+03  2.76003E+04
 -2.24621E+04  1.27383E+04 -1.58630E+04 -6.00601E+03  7.39882E+03 -7.36565E+03  2.36844E+04  1.30528E+04
  6.81968E+03  3.97671E+04 -3.65531E+04  3.76055E+04 -6.66004E+04  8.66991E+02 -5.99262E+04 -4.40972E+04
 -1.18954E+04 -6.74232E+04  4.36450E+04 -4.89180E+04  6.18367E+04 -3.90451E+03  3.83308E+04  3.60385E+04
 -4.56707E+03  4.05953E+04 -3.21160E+04  2.14504E+04 -3.62504E+04 -3.56945E+03 -2.02298E+04 -1.10999E+04
 -8.74761E+03 -1.67212E+04  1.43230E+02 -2.06015E+04  9.47316E+03 -2.31741E+04  1.67399E+04 -1.15590E+04
  1.10226E+04  6.48757E+03 -1.19548E+04  1.28749E+04 -2.36187E+04 -8.76328E+03 -9.51921E+03 -4.00770E+04
  2.58725E+04 -5.05880E+04  5.45673E+04 -2.32338E+04  4.99722E+04  2.14294E+04  1.73763E+04  4.53615E+04
 -1.47420E+04  3.56340E+04 -2.98648E+04  1.23588E+03 -1.41548E+04 -3.05031E+04  2.37386E+04 -4.11488E+04
  4.49773E+04 -1.03596E+04  4.28496E+04  2.33276E+04  2.28552E+04  5.25128E+04 -9.42355E+03  5.94747E+04
 -3.64200E+04  3.92176E+04 -5.01686E+04  1.10453E+04 -4.88943E+04 -1.98248E+04 -2.71635E+04 -4.56394E+04
  1.01068E+04 -4.58234E+04  3.39418E+04 -1.90195E+04  3.35909E+04  1.21025E+04  5.35807E+03  2.09333E+04
 -1.49025E+04  9.93033E+03 -1.02414E+04 -8.69954E+03  5.29593E+03 -1.19998E+04  1.99554E+04  6.16605E+03
  1.46486E+04  2.29546E+04 -3.90789E+03  2.62557E+04 -2.41079E+04  1.59623E+04 -3.33354E+04 -1.59202E+03
 -2.74317E+04 -1.89611E+04 -1.47100E+04 -2.71702E+04  4.00838E+03 -2.95875E+04  2.12155E+04 -2.45757E+04
  3.46339E+04 -1.50888E+04  4.07651E+04  5.76103E+03  2.85409E+04  2.52408E+04  4.62558E+03  4.25024E+04
 -2.14074E+04  3.61094E+04 -3.10087E+04  1.23848E+04 -2.35247E+04 -1.13343E+04 -6.90599E+03 -1.22372E+04
  3.64233E+02 -9.77174E+02 -1.06197E+04  9.68582E+03 -2.19368E+04  4.90999E+03 -2.12877E+04 -1.12230E+04
 -1.36896E+04 -2.28549E+04  7.38239E+03 -2.91722E+04  2.15204E+04 -2.17548E+04  2.47068E+04 -3.08899E+03
  1.42085E+04  1.66085E+04 -7.16823E+01  2.50668E+04 -1.69500E+04  1.37574E+04 -2.45225E+04 -4.03997E+03
 -1.83234E+04 -2.21220E+04 -3.17779E+03 -3.25379E+04  1.40005E+04 -2.49628E+04  2.38109E+04 -1.40924E+04
  2.43100E+04 -1.75341E+03  1.67254E+04  5.44582E+03  8.78531E+03  1.90725E+03  1.37321E+04 -1.23126E+02
  2.38411E+04  1.50704E+03  2.82857E+04  1.94709E+04  2.05275E+04  4.01510E+04 -3.10169E+03  5.07410E+04
 -2.69820E+04  4.07746E+04 -4.58569E+04  2.12281E+04 -5.07397E+04 -4.02673E+03 -3.94864E+04 -2.93205E+04
 -1.51636E+04 -4.24880E+04  1.52575E+04 -3.54083E+04  2.96162E+04 -1.65224E+04  2.68380E+04  7.99962E+03
  8.41598E+03  2.01211E+04 -1.25830E+04  1.80148E+04 -2.20353E+04  1.94873E+03 -1.56961E+04 -1.49345E+04
  2.08493E+02 -2.26258E+04  1.18017E+04 -1.66438E+04  1.54141E+04 -9.28732E+02  4.50118E+03  9.78691E+03
 -1.06010E+04  5.87611E+03 -1.11264E+04 -7.25910E+03 -2.83762E+03 -2.09653E+04  1.21744E+04 -2.19908E+04
  2.62954E+04 -1.35263E+04  3.05536E+04  4.34590E+03  2.65157E+04  2.22116E+04  1.15915E+04  3.30081E+04
 -6.24741E+03  3.55162E+04 -2.50739E+04  2.14123E+04 -2.34694E+04  5.18350E+03 -1.80163E+04 -6.40637E+03
 -7.04141E+03 -9.87440E+03  6.79381E+02 -1.69507E+03 -5.25677E+03  4.08740E+03 -7.55581E+03  4.47270E+03
 -1.77509E+04 -1.37243E+03 -1.74830E+04 -1.27523E+04 -6.04298E+03 -2.21568E+04  7.91549E+03 -2.08257E+04
  1.58623E+04 -6.96827E+03  9.45216E+03  5.56542E+03 -1.23793E+03  7.99393E+03 -1.00874E+04 -1.12018E+03
 -8.23615E+03 -1.27402E+04 -3.30373E+03 -1.74311E+04  1.14446E+04 -1.89832E+04  2.25752E+04 -9.59920E+03
  2.73179E+04  4.34974E+03  1.98421E+04  1.69205E+04  4.49851E+03  2.15707E+04 -1.08028E+04  1.78437E+04
 -1.43104E+04  3.46504E+03 -7.79232E+03 -3.91171E+03  3.62199E+03 -4.27994E+03  9.20467E+03 -1.90961E+03
  1.19003E+04  8.82603E+03  2.52689E+03  1.43208E+04 -8.27207E+03  1.37568E+04 -1.57933E+04  1.04554E+02
 -1.25678E+04 -9.77399E+03  1.23222E+02 -1.61132E+04  1.20140E+04 -6.98330E+03  1.12360E+04  4.90956E+03
  1.57744E+03  1.36514E+04 -7.93959E+03  1.41548E+04 -1.61907E+04  6.20260E+03 -1.59260E+04 -5.97723E+03
 -8.25773E+03 -1.86169E+04  5.91800E+03 -2.11895E+04  1.83282E+04 -1.40508E+04  2.11606E+04  4.60317E+03
  1.16724E+04  1.64532E+04 -2.46077E+03  1.82075E+04 -1.34334E+04  1.15679E+04 -1.55736E+04 -2.86618E+03
 -1.39655E+04 -9.82432E+03 -1.33095E+03 -1.55642E+04  6.83278E+03 -1.10310E+04  9.04987E+03 -3.78263E+03
  5.80124E+03  1.72937E+03 -2.69935E+03  5.26248E+02 -1.53053E+03 -3.79253E+03  3.30508E+03 -8.52282E+03
  1.47461E+04 -7.29742E+03  1.92852E+04  2.24452E+03  1.85707E+04  1.36355E+04  1.08996E+04  2.59375E+04
 -8.01588E+03  2.93468E+04 -2.21942E+04  2.36448E+04 -2.97505E+04  3.24808E+03 -2.39477E+04 -1.10404E+04
 -1.14948E+04 -2.17890E+04  8.39334E+02 -1.74172E+04  7.01067E+03 -1.16021E+04  6.09818E+03 -5.64683E+03
  4.68438E+03 -4.34363E+03  6.44871E+03 -2.27927E+03  6.80956E+03 -5.17405E+03  8.62972E+03 -2.60965E+03
  1.24285E+04  2.01987E+03  6.88651E+03  1.39394E+04 -2.45452E+03  1.37597E+04 -1.35408E+04  1.25681E+04
 -1.86067E+04 -5.51179E+02 -1.35110E+04 -1.27838E+04 -2.70170E+03 -1.92138E+04  1.02847E+04 -1.94351E+04
  2.05682E+04 -1.10242E+04  2.20548E+04  2.95294E+03  1.43278E+04  1.72973E+04  2.74771E+03  2.05653E+04
 -9.70468E+03  1.59026E+04 -1.27180E+04  7.53133E+03 -8.98172E+03 -2.33261E+03 -3.26303E+03 -3.12790E+03
 -1.21084E+03  1.23014E+01 -2.74575E+03  2.49654E+03 -6.15677E+03  1.49514E+03 -1.19701E+04 -4.31877E+03
 -9.13873E+03 -1.34776E+04 -2.47162E+03 -1.76585E+04  1.20573E+04 -1.82125E+04  1.99989E+04 -5.57537E+03
  1.84513E+04  1.00515E+04  9.34096E+03  1.68526E+04 -3.23642E+03  1.91036E+04 -1.42340E+04  1.15881E+04
 -1.80499E+04  1.55970E+03 -1.25956E+04 -1.13113E+04 -4.82791E+02 -1.76425E+04  9.62545E+03 -1.22050E+04
  1.04129E+04 -4.20510E+03  8.36574E+03  1.17924E+03  5.20778E+03  5.09984E+03  5.49822E+02  2.36042E+03
  4.14635E+03  1.96397E+03  5.25199E+03  1.07536E+03  4.47013E+03  4.82747E+03  3.61752E+03  1.10514E+04
 -3.23245E+03  1.42800E+04 -1.33380E+04  1.36997E+04 -1.78277E+04  2.58498E+03 -1.98107E+04 -9.00487E+03
 -8.75387E+03 -2.07975E+04  2.83502E+03 -1.99845E+04  1.11658E+04 -1.36462E+04  1.74675E+04 -4.61896E+03
  1.28446E+04  8.33957E+03  1.98027E+03  1.17769E+04 -5.34938E+03  7.06402E+03 -7.17303E+03 -1.78990E+03
 -2.29925E+03 -8.79156E+03  5.27855E+03 -8.69452E+03  6.91136E+03 -3.09510E+03  9.65123E+03  3.42458E+03
  6.07424E+03  4.64149E+03  9.88584E+02  4.86053E+03 -2.10711E+03  1.37009E+03  3.71540E+03 -9.16302E+02
  3.92863E+03 -7.20428E+02  8.59546E+03  3.85127E+03  6.03444E+03  1.07235E+04 -2.92988E+03  1.35212E+04
 -9.05789E+03  1.04766E+04 -1.19060E+04  1.97009E+03 -1.25410E+04 -1.59531E+03 -4.96467E+03 -8.55918E+03
  2.09086E+03 -8.32656E+03  3.90675E+03 -1.86744E+03  5.15491E+03  4.24786E+03 -2.75187E+03  6.34002E+03
 -8.15007E+03  3.90726E+03 -9.50784E+03 -5.09805E+03 -5.56185E+03 -1.01934E+04  2.31385E+03 -1.12583E+04
  5.46865E+03 -7.93838E+03  1.05783E+04 -1.10440E+03  7.36099E+03  3.88295E+03  1.16520E+03  5.33428E+03
 -4.23019E+03  3.02766E+03 -5.24860E+03 -5.01375E+03  1.59427E+03 -9.88711E+03  1.10044E+04 -6.33309E+03
  1.33579E+04  7.99707E+02  1.13685E+04  9.24706E+03  3.22190E+03  1.45333E+04 -4.96291E+03  1.27545E+04
 -1.14789E+04  5.03959E+03 -1.19036E+04 -1.23042E+03 -8.28807E+03 -9.03299E+03  2.24261E+03 -6.57332E+03
  1.03344E+04 -5.13854E+03  7.68202E+03  3.56172E+03  2.24180E+03  8.90610E+03  3.15004E+02  6.64024E+03
 -2.43040E+03  2.70807E+03 -3.96392E+03  2.80206E+03 -1.47024E+03  3.02864E+02 -9.14476E+02  2.57334E+03
 -3.97282E+03  4.71498E+03 -1.06141E+04  5.62864E+03 -1.57412E+04 -8.11155E+02 -1.39713E+04 -1.02045E+04
 -9.47976E+03 -1.97035E+04  4.13593E+03 -2.14788E+04  1.31026E+04 -1.69387E+04  1.87747E+04 -7.72260E+03
  1.98120E+04  3.39233E+03  1.32384E+04  1.22296E+04  2.49553E+03  1.53694E+04 -6.14157E+03  1.13967E+04
 -8.41648E+03  4.04262E+03 -5.12737E+03 -2.30080E+03 -6.91361E+02 -2.29810E+03  1.66104E+01  3.72394E+02
 -2.42080E+03 -1.28717E+03 -5.03851E+03 -1.10332E+02 -8.73994E+02 -3.28841E+03  4.92432E+01 -3.35564E+03
  5.90434E+03 -4.64349E+03  1.02619E+04 -9.52182E+02  1.17403E+04  6.03408E+03  3.38910E+03  1.47750E+04
 -8.57330E+03  1.71881E+04 -1.48376E+04  7.82701E+03 -1.80362E+04 -1.51879E+03 -1.32776E+04 -8.84029E+03
 -5.46458E+03 -1.58042E+04  4.67689E+03 -1.48495E+04  1.14545E+04 -6.92120E+03  1.02493E+04  2.19518E+02
  5.02757E+03  4.15875E+03 -1.02462E+03  5.13010E+03 -3.62262E+03 -2.32757E+03  2.86232E+02 -4.45097E+03
  4.85741E+03 -2.27941E+03  5.22312E+03  2.03604E+03  5.28018E+03  6.71086E+03 -2.17142E+03  8.82475E+03
 -6.63634E+03  6.51611E+03 -1.02953E+04  7.10272E+02 -1.01202E+04 -8.37235E+03  4.58868E+02 -1.34129E+04
  7.89255E+03 -1.11148E+04  1.23178E+04 -6.30538E+03  1.34262E+04  2.96606E+03  8.05079E+03  1.14190E+04
  8.94774E+02  1.14177E+04 -4.60546E+03  5.98513E+03 -8.03438E+03  3.49420E+03 -6.61736E+03  1.31636E+03
 -3.14226E+03 -1.38981E+03 -1.69754E+03  1.13274E+03 -4.71677E+03  3.64329E+02 -7.91847E+03  2.57280E+00
 -7.47807E+03 -4.68645E+03 -9.39652E+02 -1.07764E+04  3.95488E+03 -1.09514E+04  8.20432E+03 -4.31173E+03
  1.10688E+04 -6.18842E+02  6.46137E+03  6.75920E+03 -1.97259E+03  9.79852E+03 -9.03489E+03  5.33648E+03
