 $NMID ID='MM_0lb_SNR200_17hz_g50_12.RAW', FMTDAT='(8E13.5)'
 TRAMP=1., VOLUME=1. $END
  3.10193E+05  5.01972E+02  3.36655E+05  2.51743E+05  8.52404E+04  3.37646E+05 -1.32290E+05  2.50267E+05
 -1.90560E+05  8.23269E+04 -1.10792E+05 -3.29191E+04  1.18426E+03 -5.01714E+04  5.40436E+04 -5.86402E+02
  3.41563E+04  5.29546E+04 -1.76069E+04  7.44833E+04 -6.09999E+04  6.28965E+04 -8.28132E+04  3.17158E+04
 -8.04108E+04 -1.14825E+04 -5.60383E+04 -5.12757E+04 -1.37848E+04 -7.02701E+04  2.67500E+04 -4.52734E+04
  4.04336E+04  4.64142E+03  1.68974E+04  4.74353E+04 -3.39783E+04  4.62316E+04 -6.49058E+04 -7.40365E+01
 -5.23302E+04 -5.51113E+04 -6.99392E+03 -7.62493E+04  3.39413E+04 -5.45129E+04  4.66800E+04 -1.57776E+04
  4.25475E+04  1.14951E+04  3.18315E+04  2.42676E+04  1.61839E+04  2.83372E+04 -4.19186E+03  2.71518E+04
 -2.12218E+04  1.31093E+04 -2.00465E+04 -4.31490E+03  4.97923E+03 -7.61782E+03  2.18139E+04  1.10103E+04
  7.22517E+03  3.43154E+04 -3.11784E+04  3.50152E+04 -6.27801E+04  1.79819E+03 -5.71069E+04 -4.13903E+04
 -1.21910E+04 -6.22217E+04  3.93871E+04 -4.36976E+04  5.61722E+04 -4.99024E+02  3.29490E+04  3.21921E+04
 -6.36654E+03  3.35538E+04 -3.02265E+04  1.50806E+04 -2.86183E+04 -4.96491E+03 -1.50358E+04 -1.12841E+04
 -6.88129E+03 -1.19104E+04 -2.07453E+02 -1.67345E+04  6.95826E+03 -2.27487E+04  1.40197E+04 -1.35376E+04
  1.18412E+04  4.79909E+03 -7.30273E+03  1.35298E+04 -1.93785E+04 -2.22227E+03 -9.47599E+03 -3.21318E+04
  2.14181E+04 -4.14817E+04  4.65968E+04 -1.99845E+04  4.35491E+04  1.82892E+04  1.53380E+04  4.22084E+04
 -1.50987E+04  3.20720E+04 -2.40706E+04  1.50159E+03 -8.64084E+03 -2.65031E+04  2.13645E+04 -3.18610E+04
  3.97346E+04 -8.24661E+03  3.25072E+04  2.42911E+04  1.62219E+04  4.40983E+04 -8.13338E+03  4.70604E+04
 -2.93697E+04  3.17192E+04 -3.87395E+04  7.80435E+03 -3.95320E+04 -1.47517E+04 -2.20387E+04 -3.46227E+04
  6.13833E+03 -3.54359E+04  3.09953E+04 -1.19624E+04  2.83210E+04  1.11363E+04  4.32816E+03  1.87840E+04
 -1.14314E+04  6.89437E+03 -9.68757E+03 -7.42460E+03  6.79629E+03 -1.07135E+04  1.70364E+04  6.05548E+03
  1.27673E+04  2.26689E+04 -5.73534E+03  2.34470E+04 -2.24823E+04  1.00207E+04 -2.62863E+04 -5.18088E+03
 -1.76839E+04 -1.57554E+04 -6.98389E+03 -1.75446E+04  3.78477E+03 -1.77431E+04  1.33556E+04 -1.53578E+04
  2.33475E+04 -1.15816E+04  3.00743E+04  1.36879E+03  2.33074E+04  1.82688E+04  4.59678E+03  3.29974E+04
 -1.66999E+04  2.77918E+04 -2.63596E+04  1.03217E+04 -2.07994E+04 -1.05783E+04 -5.39096E+03 -1.37236E+04
  1.13215E+03 -4.35591E+03 -2.89519E+03  5.81578E+03 -1.59017E+04  5.80697E+03 -1.48918E+04 -5.98917E+03
 -7.32186E+03 -1.62949E+04  4.14826E+03 -2.10870E+04  1.26010E+04 -1.50254E+04  1.58940E+04 -1.22874E+03
  9.58761E+03  1.12671E+04 -1.10230E+03  1.72345E+04 -1.22482E+04  9.85381E+03 -1.71027E+04 -3.43536E+03
 -1.35902E+04 -1.60456E+04 -1.12505E+03 -2.09949E+04  8.93358E+03 -1.65491E+04  1.85059E+04 -7.67996E+03
  1.52729E+04  6.15121E+02  1.20760E+04  4.08026E+03  5.07838E+03  2.75356E+02  8.34050E+03 -1.76999E+03
  1.53121E+04  2.35192E+03  1.70903E+04  1.36464E+04  9.87103E+03  2.62032E+04 -3.12364E+03  2.93194E+04
 -1.70045E+04  2.30019E+04 -2.67571E+04  1.22872E+04 -2.76056E+04 -1.60844E+03 -2.39654E+04 -1.59182E+04
 -1.13495E+04 -2.35159E+04  7.73006E+03 -2.19458E+04  1.96134E+04 -1.19253E+04  1.79025E+04  3.59597E+03
  6.27980E+03  1.18827E+04 -7.64000E+03  1.21843E+04 -1.38507E+04  2.07279E+03 -1.16441E+04 -8.09045E+03
 -1.48151E+00 -1.33893E+04  7.15050E+03 -1.00165E+04  8.05704E+03 -1.15771E+03  1.02967E+03  6.73311E+03
 -5.64364E+03  2.46666E+03 -5.75942E+03 -4.64976E+03  1.21321E+02 -1.14974E+04  8.34944E+03 -1.27562E+04
  1.44470E+04 -5.00447E+03  1.46187E+04  2.91261E+03  1.23805E+04  1.08406E+04  5.07926E+03  1.66652E+04
 -2.10655E+03  1.81081E+04 -1.20011E+04  1.14946E+04 -1.21592E+04  2.56856E+03 -9.91670E+03 -2.54842E+03
 -4.19233E+03 -2.91216E+03 -8.38608E+02  9.33632E+02 -2.26745E+03  1.50862E+03 -3.87628E+03  4.55111E+03
 -9.30220E+03 -9.94484E+02 -9.32179E+03 -8.19071E+03 -3.99338E+03 -1.23986E+04  3.10905E+03 -9.66607E+03
  7.91413E+03 -4.20640E+03  6.49940E+03  2.83527E+03  8.32088E+02  5.03315E+03 -4.06120E+03  5.44762E+02
 -4.84016E+03 -5.56201E+03 -7.08197E+02 -8.69328E+03  5.89468E+03 -8.83587E+03  1.08619E+04 -4.89113E+03
  1.34604E+04  1.02860E+03  1.00854E+04  6.03821E+03  2.09472E+03  9.21732E+03 -5.61875E+03  8.84336E+03
 -8.62419E+03  2.61780E+03 -3.91295E+03 -2.24812E+03  1.71689E+03 -2.36586E+03  5.26518E+03 -1.15338E+03
  4.32532E+03  4.80260E+03  6.84931E+02  7.63666E+03 -5.66671E+03  6.96874E+03 -9.32160E+03  2.03526E+03
 -5.53354E+03 -4.30178E+03  1.87693E+02 -7.85665E+03  5.57951E+03 -5.27591E+03  3.89309E+03  1.15516E+03
  1.65432E+02  4.17365E+03 -4.15438E+03  5.51455E+03 -5.85676E+03  3.45814E+03 -5.80490E+03 -1.74749E+03
 -4.03181E+03 -6.06040E+03  1.74955E+03 -7.67427E+03  7.12765E+03 -5.23855E+03  7.29274E+03  1.60388E+03
  4.22074E+03  6.05464E+03  2.92484E+02  8.34295E+03 -5.72743E+03  4.60563E+03 -5.73979E+03 -4.73093E+02
 -5.66089E+03 -6.18742E+03 -1.39658E+03 -4.83499E+03  3.06967E+03 -4.33881E+03  3.97112E+03 -3.51268E+03
  2.51395E+03  1.61806E+03 -2.63535E+02  2.31905E+03 -1.69629E+02 -1.22840E+03  9.04550E+02 -3.01017E+03
  5.00814E+03 -8.89470E+02  6.06895E+03  1.51734E+02  6.13505E+03  4.11743E+03  5.70168E+03  8.55246E+03
 -1.47432E+03  1.02762E+04 -1.02738E+04  8.28165E+03 -1.24504E+04  6.65378E+02 -8.80568E+03 -2.99737E+03
 -4.66300E+03 -8.70960E+03 -4.84522E+02 -4.71348E+03  2.18925E+03 -2.85166E+03  3.34143E+03 -1.87720E+03
  1.30713E+03 -3.00370E+03  3.06838E+03 -2.49171E+03  3.48533E+03 -1.87707E+03  3.91916E+03 -1.03971E+03
  4.48097E+03  1.23248E+03  1.74406E+03  4.12874E+03 -1.91929E+03  4.26464E+03 -5.47065E+03  2.57412E+03
 -6.41929E+03 -1.00272E+03 -3.71184E+03 -4.29357E+03  2.37024E+02 -6.25705E+03  4.68188E+03 -6.74754E+03
  5.78523E+03 -3.48192E+03  7.64631E+03 -2.83592E+02  4.94702E+03  4.57762E+03  1.07000E+03  6.76363E+03
 -1.83886E+03  6.94213E+03 -4.28446E+03  3.51564E+03 -2.10616E+03 -1.21004E+03 -6.05097E+02 -7.39098E+02
 -1.30468E+03 -1.35118E+02 -1.39806E+03  2.29535E+03 -2.07536E+03  4.58092E+02 -5.31554E+03  2.15257E+01
 -2.43503E+03 -5.44814E+03 -1.83916E+02 -5.03968E+03  3.55987E+03 -6.33546E+03  5.16268E+03 -1.51526E+03
  4.19723E+03  3.86632E+03  2.51469E+03  3.90087E+03 -3.10716E+02  5.69643E+03 -3.90850E+03  3.14524E+03
 -6.25547E+03  4.25129E+01 -3.63340E+03 -3.36870E+03 -1.07859E+03 -4.87526E+03  1.43651E+03 -2.68577E+03
  3.11100E+03 -8.64231E+02  2.04257E+03  2.48923E+01  1.34777E+03  2.74815E+03  8.46978E+02  3.07347E+02
  4.47074E+02  1.14694E+03  1.70322E+03  1.36535E+03  1.08438E+02  2.74581E+03  2.47326E+03  1.89488E+03
 -1.63987E+03  3.74588E+03 -3.10514E+03  4.78061E+03 -4.75222E+03  1.28441E+03 -5.72247E+03  2.93340E+02
 -3.43153E+03 -4.67891E+03  5.97322E+02 -4.43072E+03  2.80024E+03 -2.49141E+03  4.00966E+03 -1.11756E+03
  4.41602E+03  1.89067E+03  4.44080E+02  1.58205E+03 -1.73091E+03  9.57713E+02 -1.38346E+03  7.86153E+01
 -1.44984E+03 -1.46659E+03  8.97814E+02 -1.44068E+03  1.29680E+03 -2.36649E+03  2.37847E+03  6.44456E+02
  3.10668E+02  5.90488E+02  2.07935E+03  1.29709E+03 -4.92628E+01  1.37962E+03  1.00119E+03 -6.65935E+02
  6.86729E+02 -1.35231E+02  1.72371E+03  2.90284E+02 -5.90175E+01  1.51359E+03 -8.53240E+02  2.62950E+03
 -2.25289E+03  4.82013E+02 -2.22985E+03  4.64081E+02 -2.92598E+03 -5.24137E+02 -1.38397E+03 -6.31383E+02
  1.45293E+03 -2.17060E+03  1.56801E+03  6.98478E+02  1.47404E+03  1.77045E+03 -5.53578E+02  1.16220E+03
 -2.04648E+03  5.93496E+02 -1.94518E+03 -1.66508E+03 -7.82902E+02 -3.70024E+03  1.54905E+03 -2.65529E+03
  7.91635E+02 -2.76516E+02  1.33532E+03  8.97022E+01  1.66896E+03  1.84236E+02  2.00376E+02  1.80388E+03
 -1.01853E+03  8.17789E+02 -8.55348E+02 -3.88035E+02  5.65739E+02 -1.28028E+03  1.18766E+03 -1.11002E+03
  2.54071E+03 -2.09130E+02  4.01428E+03  6.75514E+02  1.21159E+03  1.54089E+03 -3.87742E+02  2.98916E+03
 -7.38134E+02 -1.20083E+02 -2.40052E+03  1.05157E+02 -1.54742E+03 -1.51100E+03  1.51115E+01 -6.97208E+02
  1.70493E+03 -6.79102E+02  9.83899E+02  3.72871E+02  5.15982E+02  1.92801E+03  1.01115E+03  8.35488E+02
  5.24587E+02  1.95053E+03 -8.57500E+02  3.39681E+02 -9.50706E+02  2.22982E+02 -1.65411E+03  1.68130E+03
 -1.35326E+03  6.46736E+02 -1.72385E+03 -5.10271E+02 -2.95342E+03  6.39153E+02 -2.70496E+03 -1.12893E+03
 -1.18985E+03 -2.45708E+03  8.28683E+02 -3.61146E+03  2.22499E+03 -2.97632E+03  3.00174E+03 -1.67661E+03
  3.95160E+03 -2.06044E+02  2.06750E+03  2.88067E+03 -7.03351E+02  1.94537E+03 -1.74465E+03  8.24784E+02
 -1.08798E+03  1.97597E+03 -6.81995E+02  1.08809E+02 -1.57775E+03 -3.19443E+02 -1.07356E+03  2.10980E+02
 -1.73392E+03 -2.82305E+02 -5.37033E+02 -7.81713E+01 -1.63391E+02 -6.38932E+00  9.01918E+01 -5.21124E+02
  1.39883E+03  1.78839E+02  1.58493E+03  4.95772E+02  1.08460E+03  7.01492E+02 -1.18374E+03  2.22071E+03
 -8.06764E+02  3.33238E+03 -2.54862E+03  5.27607E+02 -2.35440E+03  3.85453E+01 -1.72185E+03 -2.10417E+03
 -1.13709E+01 -1.50552E+03  3.47882E+02 -1.37362E+03  1.59323E+03 -5.36135E+02  1.08237E+03  4.08181E+02
  4.96450E+02  1.00301E+03  6.21677E+02  5.73217E+02 -5.67294E+01 -4.23517E+01 -4.43201E+02 -7.76008E+02
  2.10753E+03 -1.23779E+03  4.21942E+02  9.43750E+02  2.85294E+02  7.36081E+02 -5.97405E+02  8.24707E+02
 -5.72439E+02  7.77782E+02 -2.79177E+02 -4.62364E+02 -1.77686E+03 -7.69265E+02  5.38212E+02 -1.94869E+03
 -2.05929E+02 -1.26990E+03  7.86922E+02 -1.73594E+01  1.32047E+03 -1.65806E+01 -3.52689E+02  3.36520E+02
  9.17447E+02  1.27058E+03 -6.81179E+02  1.46638E+03 -2.82285E+02  1.35908E+03 -4.63903E+02 -1.06288E+03
 -1.19424E+03  7.46278E+02  3.83491E+02 -6.60728E+02  4.15413E+02 -1.84201E+01 -9.10368E+02 -8.30140E+02
 -1.71000E+03  1.04617E+03 -5.63901E+02 -2.33491E+03  5.03555E+02 -2.29485E+03  5.80174E+02 -1.57700E+03
  1.89836E+03 -3.46238E+02 -1.10208E+03  5.03618E+02  5.83177E+01  1.17506E+03 -1.03885E+03 -6.23838E+02
