 $NMID ID='MM_0lb_SNR200_8hz_g55_14.RAW', FMTDAT='(8E13.5)'
 TRAMP=1., VOLUME=1. $END
  3.09109E+05  9.69653E+02  3.37085E+05  2.50849E+05  8.42966E+04  3.38345E+05 -1.31948E+05  2.52759E+05
 -1.90520E+05  8.48478E+04 -1.11897E+05 -3.17793E+04 -1.57213E+03 -5.06463E+04  5.48286E+04 -1.72778E+03
  3.44306E+04  5.16964E+04 -1.55440E+04  7.44497E+04 -6.17652E+04  6.66211E+04 -8.62462E+04  3.06523E+04
 -8.01703E+04 -1.16268E+04 -6.03699E+04 -5.47886E+04 -1.42026E+04 -7.11293E+04  2.84762E+04 -4.77955E+04
  4.08012E+04  3.82965E+03  1.73186E+04  4.77727E+04 -3.66469E+04  4.76518E+04 -6.86783E+04  8.70616E+02
 -5.51301E+04 -5.72773E+04 -6.91805E+03 -8.07540E+04  3.38075E+04 -5.90496E+04  4.90819E+04 -1.87784E+04
  4.62648E+04  1.02474E+04  3.24816E+04  2.52924E+04  1.66513E+04  3.22602E+04 -5.26992E+03  2.86252E+04
 -2.30104E+04  1.18045E+04 -1.79308E+04 -6.38956E+03  7.85059E+03 -8.56492E+03  2.33056E+04  1.47477E+04
  8.58193E+03  3.75306E+04 -3.56123E+04  3.86056E+04 -6.78340E+04  2.22636E+03 -5.77351E+04 -4.52485E+04
 -1.27336E+04 -6.70138E+04  4.20997E+04 -4.94014E+04  6.19486E+04 -2.66645E+02  3.77029E+04  3.50284E+04
 -4.71776E+03  4.04267E+04 -3.14963E+04  1.84302E+04 -3.35029E+04 -9.06566E+02 -2.25496E+04 -1.25533E+04
 -9.57151E+03 -1.42050E+04 -4.64715E+02 -2.17729E+04  1.03293E+04 -2.50230E+04  1.69958E+04 -1.31357E+04
  1.17714E+04  6.76460E+03 -1.07074E+04  1.28761E+04 -2.41497E+04 -7.64257E+03 -8.48975E+03 -3.85119E+04
  2.57054E+04 -4.81241E+04  5.21292E+04 -2.00411E+04  5.09299E+04  2.12821E+04  1.88918E+04  4.86692E+04
 -1.55111E+04  3.85606E+04 -2.88675E+04  4.09301E+03 -1.15573E+04 -3.10564E+04  2.21283E+04 -3.76834E+04
  4.68951E+04 -1.04000E+04  4.10854E+04  2.57913E+04  2.26850E+04  5.16998E+04 -8.60267E+03  5.72280E+04
 -3.56205E+04  4.01598E+04 -4.76450E+04  9.95197E+03 -4.93448E+04 -1.88648E+04 -2.92626E+04 -4.26895E+04
  7.65556E+03 -4.40718E+04  3.36963E+04 -1.67673E+04  3.35027E+04  1.25307E+04  6.42808E+03  2.01010E+04
 -1.41139E+04  8.86977E+03 -1.20335E+04 -7.13051E+03  5.46697E+03 -9.72260E+03  1.95640E+04  6.01628E+03
  1.65855E+04  2.12208E+04 -4.49424E+03  2.59434E+04 -2.49271E+04  1.49954E+04 -3.24784E+04 -4.43044E+02
 -2.57661E+04 -1.79163E+04 -1.13561E+04 -2.44764E+04  4.93801E+03 -2.77027E+04  2.29515E+04 -2.47553E+04
  3.45121E+04 -1.28157E+04  3.86085E+04  7.49700E+03  2.69949E+04  2.59830E+04  5.37595E+03  4.39173E+04
 -1.96828E+04  3.41045E+04 -3.17070E+04  1.14410E+04 -2.28083E+04 -1.03300E+04 -5.74637E+03 -1.09127E+04
  4.81899E+02 -1.32208E+03 -9.67509E+03  9.15718E+03 -2.08556E+04  4.42581E+03 -2.17737E+04 -9.33361E+03
 -1.31371E+04 -2.48911E+04  7.81314E+03 -2.85068E+04  1.90711E+04 -1.96754E+04  2.46841E+04 -2.28554E+03
  1.50538E+04  1.68679E+04  1.34488E+03  2.46321E+04 -1.81884E+04  1.34968E+04 -2.65221E+04 -4.79655E+03
 -1.75724E+04 -2.36465E+04 -2.70859E+03 -2.99157E+04  1.37941E+04 -2.49233E+04  2.57456E+04 -1.35675E+04
  2.32887E+04  5.25812E+02  1.53139E+04  5.42417E+03  9.30974E+03  1.29389E+03  1.20401E+04 -1.76338E+03
  2.43990E+04  2.94113E+03  2.80956E+04  1.99946E+04  1.98033E+04  4.06740E+04 -1.66334E+03  4.76659E+04
 -2.58424E+04  3.88857E+04 -4.42581E+04  2.20439E+04 -4.73678E+04 -3.20305E+03 -3.94047E+04 -2.88712E+04
 -1.42230E+04 -3.98445E+04  1.59968E+04 -3.48972E+04  2.89175E+04 -1.43575E+04  2.63501E+04  8.96273E+03
  7.21165E+03  2.12072E+04 -1.16130E+04  1.49247E+04 -2.15195E+04  1.57897E+03 -1.52150E+04 -1.35392E+04
  2.01084E+01 -2.08732E+04  1.15176E+04 -1.67056E+04  1.41301E+04 -1.52050E+03  3.58079E+03  9.56200E+03
 -1.08517E+04  5.25112E+03 -1.09448E+04 -7.26815E+03 -3.55780E+03 -1.96184E+04  1.17462E+04 -2.14935E+04
  2.47076E+04 -1.31439E+04  2.84274E+04  3.32609E+03  2.64273E+04  1.98584E+04  9.51123E+03  3.13903E+04
 -5.74765E+03  3.38779E+04 -2.04690E+04  2.18793E+04 -2.62153E+04  4.62341E+03 -1.70231E+04 -6.96148E+03
 -7.35560E+03 -7.88344E+03  5.59181E+02  6.29160E+02 -4.37011E+03  6.40938E+03 -8.33268E+03  5.73931E+03
 -1.40631E+04 -1.73588E+03 -1.51553E+04 -1.24191E+04 -5.25640E+03 -2.17505E+04  7.95725E+03 -1.69746E+04
  1.34729E+04 -8.12420E+03  7.61601E+03  5.81595E+03 -1.56202E+03  8.04232E+03 -9.56296E+03  1.89201E+03
 -6.90837E+03 -1.21480E+04 -1.67244E+03 -1.80348E+04  1.05075E+04 -1.94674E+04  2.24852E+04 -9.53023E+03
  2.42485E+04  3.05847E+03  1.71088E+04  1.49463E+04  2.85438E+03  2.00596E+04 -1.09378E+04  1.65837E+04
 -1.34487E+04  3.84510E+03 -6.99567E+03 -4.47103E+03  3.38683E+03 -3.70157E+03  8.96649E+03 -2.30820E+03
  8.72270E+03  8.88191E+03  8.58126E+02  1.45942E+04 -9.04340E+03  1.30561E+04 -1.79969E+04  4.23662E+03
 -1.14137E+04 -1.01738E+04 -1.09031E+03 -1.23569E+04  1.11140E+04 -7.87842E+03  1.20853E+04  2.92080E+03
  2.60997E+03  1.30377E+04 -9.02926E+03  1.29231E+04 -1.47402E+04  7.79017E+03 -1.58350E+04 -5.54830E+03
 -9.03190E+03 -1.81431E+04  3.30244E+03 -2.11434E+04  1.81519E+04 -1.11729E+04  1.74837E+04  2.68172E+03
  9.75801E+03  1.46322E+04 -2.06385E+03  1.51474E+04 -1.38694E+04  1.08604E+04 -1.45010E+04 -2.28179E+03
 -1.22324E+04 -1.15493E+04 -6.85285E+02 -1.43327E+04  8.08564E+03 -9.52657E+03  9.30374E+03 -5.49820E+03
  6.12850E+03  1.40927E+03 -1.46489E+03  2.83032E+03 -5.67523E+02 -4.51698E+03  2.13038E+03 -8.50832E+03
  1.42778E+04 -6.20091E+03  1.84948E+04  1.12737E+03  1.75228E+04  1.33184E+04  1.35202E+04  2.32751E+04
 -7.21495E+03  2.82629E+04 -2.30989E+04  1.90481E+04 -2.94520E+04  5.02498E+03 -2.28658E+04 -1.12914E+04
 -1.12868E+04 -1.85507E+04 -1.20777E+03 -1.53843E+04  6.01700E+03 -8.37738E+03  5.14759E+03 -4.08612E+03
  4.13647E+03 -5.05049E+03  2.67609E+03 -5.37363E+03  6.88558E+03 -4.25352E+03  9.70101E+03 -7.91399E+02
  1.11655E+04  1.96625E+03  5.49905E+03  1.15079E+04 -1.73348E+03  1.45323E+04 -1.22994E+04  9.91062E+03
 -1.68069E+04 -2.88869E+03 -1.04464E+04 -1.12054E+04 -2.17125E+02 -1.79414E+04  9.64070E+03 -1.83706E+04
  1.94139E+04 -1.01298E+04  2.03476E+04  4.06683E+03  1.51908E+04  1.65672E+04  3.38384E+03  2.07260E+04
 -8.32461E+03  1.53166E+04 -1.12804E+04  5.73020E+03 -8.72395E+03 -9.89054E+02 -2.88089E+03 -3.63173E+03
 -1.81033E+03 -1.74651E+03 -1.57080E+03  3.08126E+03 -6.34937E+03  1.20034E+03 -1.11527E+04 -1.19537E+03
 -7.84946E+03 -1.23242E+04 -9.26822E+02 -1.73493E+04  9.82857E+03 -1.46141E+04  1.87625E+04 -4.67542E+03
  1.66005E+04  7.42919E+03  8.02178E+03  1.57573E+04 -4.68465E+03  1.74316E+04 -1.12619E+04  1.16393E+04
 -1.62443E+04 -1.57909E+03 -1.21442E+04 -1.10786E+04 -1.15071E+03 -1.36077E+04  6.37146E+03 -9.64972E+03
  1.09220E+04 -3.10621E+03  7.74365E+03  3.10792E+03  2.95213E+03  4.26529E+03  8.85817E+01  3.08665E+03
  2.48992E+03  2.16504E+03  5.93750E+03  2.07714E+03  4.09852E+03  6.28290E+03  4.25483E+03  1.00767E+04
 -2.56841E+03  1.40819E+04 -1.19747E+04  1.20604E+04 -1.85583E+04  4.46652E+03 -1.91816E+04 -9.34398E+03
 -9.18863E+03 -1.83646E+04  2.18719E+03 -2.09972E+04  1.07860E+04 -1.18596E+04  1.35217E+04 -3.36789E+03
  1.21034E+04  6.20591E+03  4.41350E+03  9.22298E+03 -2.26352E+03  6.99432E+03 -8.27926E+03 -3.52694E+02
 -2.36717E+03 -7.86435E+03  4.78769E+03 -7.67727E+03  6.97127E+03 -4.65597E+03  6.83690E+03  2.72425E+03
  4.40589E+03  4.66170E+03  8.71065E+02  2.12182E+03 -8.85353E+01  2.52779E+03  1.52732E+03 -1.68585E+03
  2.05915E+03 -9.29626E+02  8.84858E+03  4.11707E+03  5.20202E+03  9.18388E+03 -2.40626E+02  1.22836E+04
 -8.82734E+03  7.20816E+03 -1.16181E+04  2.09582E+02 -1.18242E+04 -3.49371E+03 -4.43491E+03 -8.02197E+03
  8.74179E+01 -8.47499E+03  5.01610E+03 -2.31985E+03  3.88620E+03  3.75724E+03 -1.33397E+03  5.75806E+03
 -8.41524E+03  3.80117E+03 -1.02957E+04 -4.17601E+03 -5.39967E+03 -1.04700E+04 -1.52937E+00 -1.02832E+04
  6.96826E+03 -6.23281E+03  7.32783E+03 -5.19472E+02  6.96967E+03  1.31828E+03  1.14060E+03  6.49110E+03
 -3.13085E+03  1.68881E+03 -5.54563E+03 -2.87790E+03  2.16244E+03 -7.79539E+03  8.00283E+03 -6.41067E+03
  1.17126E+04  5.27012E+02  1.22426E+04  7.22433E+03  4.49995E+03  1.41263E+04 -5.02546E+03  1.01126E+04
 -1.08656E+04  3.53445E+03 -1.03621E+04 -1.18628E+03 -5.76521E+03 -7.15182E+03  8.38296E+02 -5.66525E+03
  5.09743E+03 -3.42847E+03  5.98790E+03  3.53653E+03  3.14430E+03  6.19745E+03 -7.96954E+02  5.39654E+03
 -2.61385E+03  3.08756E+03 -2.72745E+03  1.03885E+03 -2.48865E+03  2.55619E+03 -3.52685E+03  2.41900E+03
 -3.19884E+03  5.41036E+03 -8.76217E+03  6.15587E+03 -1.16702E+04  3.90681E+02 -1.21372E+04 -8.87272E+03
 -6.32197E+03 -1.80257E+04  3.23513E+03 -1.96153E+04  1.07894E+04 -1.45444E+04  1.70991E+04 -4.79542E+03
  1.57678E+04  6.17869E+03  1.00412E+04  1.24746E+04  1.53217E+03  1.27112E+04 -3.64008E+03  9.52721E+03
 -6.53968E+03  3.59123E+03 -3.70379E+03 -2.78557E+03 -1.66888E+03 -2.20666E+03 -9.04939E+02 -1.86763E+03
 -2.97298E+03  7.50687E+02 -2.53949E+03 -6.85670E+02  9.24151E+02 -4.18937E+03  3.67937E+02 -4.33977E+03
  4.43423E+03 -2.61921E+03  6.95533E+03 -3.66723E+01  8.31870E+03  4.16641E+03  2.76044E+03  1.32567E+04
 -7.48602E+03  1.38421E+04 -1.37790E+04  9.16979E+03 -1.49466E+04 -1.79557E+03 -1.18137E+04 -9.44759E+03
 -6.19150E+03 -1.33161E+04  2.97510E+03 -1.26347E+04  7.44724E+03 -7.31555E+03  9.20688E+03  1.11499E+03
  4.44820E+03  5.11644E+03 -1.22596E+03  3.98217E+03 -1.02407E+03  2.05774E+02  2.55237E+02 -1.34492E+03
  2.49315E+03 -2.67956E+03  6.07144E+03  3.86040E+03  4.21526E+03  4.22826E+03 -1.25994E+03  6.62689E+03
 -5.74726E+03  5.82150E+03 -8.25061E+03  4.25988E+02 -7.68504E+03 -7.16320E+03 -1.33717E+03 -9.40053E+03
  7.05834E+03 -8.39882E+03  9.39405E+03 -1.74657E+03  7.29699E+03  3.74162E+03  4.47276E+03  8.19665E+03
  2.60420E+03  8.36060E+03 -2.55293E+03  6.91112E+03 -3.97529E+03  5.31902E+03 -3.64717E+03  4.26904E+02
 -3.43239E+03 -2.46402E+02 -1.87546E+03  1.17759E+03 -3.30443E+03  1.95921E+03 -7.18809E+03 -7.31415E+02
 -6.03934E+03 -5.88820E+03 -1.32446E+03 -8.24926E+03  4.47119E+03 -8.66524E+03  7.67685E+03 -4.16298E+03
  9.08817E+03  1.76044E+02  4.87626E+03  5.45167E+03  1.42818E+03  9.25111E+03 -7.52667E+03  5.84229E+03
