 $NMID ID='MM_0lb_SNR200_19hz_g50_33.RAW', FMTDAT='(8E13.5)'
 TRAMP=1., VOLUME=1. $END
  3.09340E+05 -2.88965E+02  3.36577E+05  2.50672E+05  8.48944E+04  3.37304E+05 -1.32658E+05  2.48544E+05
 -1.89495E+05  8.33286E+04 -1.09821E+05 -3.24672E+04  1.59791E+03 -5.03755E+04  5.50545E+04  1.07957E+02
  3.60963E+04  5.31288E+04 -1.73480E+04  7.55235E+04 -6.03210E+04  6.21895E+04 -8.35160E+04  3.19494E+04
 -8.04746E+04 -1.11751E+04 -5.68315E+04 -4.99154E+04 -1.47397E+04 -6.85951E+04  2.61149E+04 -4.58202E+04
  3.82521E+04  4.64889E+03  1.55321E+04  4.72874E+04 -3.44311E+04  4.66787E+04 -6.43399E+04 -8.94241E+02
 -5.21900E+04 -5.67738E+04 -6.16365E+03 -7.59805E+04  3.34596E+04 -5.25537E+04  4.69446E+04 -1.65874E+04
  4.16251E+04  1.03210E+04  3.12395E+04  2.43404E+04  1.61188E+04  2.84438E+04 -5.00325E+03  2.67434E+04
 -2.21583E+04  1.25961E+04 -1.86322E+04 -4.52200E+03  4.75571E+03 -7.42619E+03  2.08566E+04  1.15230E+04
  8.66424E+03  3.32524E+04 -3.05064E+04  3.50961E+04 -6.11917E+04  1.85756E+03 -5.47327E+04 -4.15033E+04
 -1.28406E+04 -6.00464E+04  3.70434E+04 -4.39430E+04  5.60410E+04 -1.23331E+03  3.23817E+04  3.11755E+04
 -5.85488E+03  3.39857E+04 -2.87508E+04  1.33557E+04 -2.58548E+04 -6.04903E+03 -1.36446E+04 -9.70663E+03
 -7.36335E+03 -1.17132E+04 -9.45328E+02 -1.65204E+04  6.35047E+03 -2.16076E+04  1.46995E+04 -1.42460E+04
  1.13180E+04  4.38794E+03 -6.91929E+03  1.28463E+04 -2.00196E+04 -2.10708E+03 -9.68382E+03 -3.08241E+04
  2.02663E+04 -4.09338E+04  4.45917E+04 -1.85536E+04  4.10070E+04  1.81800E+04  1.40210E+04  4.19010E+04
 -1.62510E+04  3.03229E+04 -2.43913E+04  9.85177E+02 -7.84541E+03 -2.58521E+04  2.08273E+04 -3.05212E+04
  3.89803E+04 -6.36509E+03  3.12293E+04  2.26445E+04  1.61195E+04  4.28926E+04 -7.36444E+03  4.47983E+04
 -2.87184E+04  2.97172E+04 -3.72699E+04  8.58362E+03 -3.79005E+04 -1.38539E+04 -2.15439E+04 -3.45548E+04
  6.54457E+03 -3.38175E+04  2.87250E+04 -1.25853E+04  2.69557E+04  1.13158E+04  3.34366E+03  1.69822E+04
 -1.37916E+04  6.85610E+03 -9.49989E+03 -7.58378E+03  5.78363E+03 -9.65042E+03  1.77859E+04  5.92559E+03
  1.23548E+04  2.18050E+04 -7.16497E+03  2.34455E+04 -2.14787E+04  9.36922E+03 -2.48474E+04 -6.17829E+03
 -1.70437E+04 -1.70249E+04 -6.71609E+03 -1.71892E+04  4.92178E+03 -1.40555E+04  1.24106E+04 -1.57857E+04
  2.07151E+04 -1.17199E+04  2.74232E+04  1.96482E+03  2.12566E+04  1.60465E+04  3.26599E+03  3.31406E+04
 -1.62524E+04  2.73903E+04 -2.60367E+04  1.08256E+04 -1.92248E+04 -8.79685E+03 -4.00702E+03 -1.38923E+04
  2.96287E+03 -3.98783E+03 -2.87623E+03  4.81505E+03 -1.22265E+04  5.35178E+03 -1.44211E+04 -4.95935E+03
 -8.61779E+03 -1.59397E+04  4.20441E+03 -1.94982E+04  1.38766E+04 -1.46007E+04  1.34313E+04 -3.64233E+02
  8.79755E+03  1.01260E+04 -5.08252E+02  1.54553E+04 -1.09483E+04  9.75777E+03 -1.51952E+04 -3.19830E+03
 -1.22609E+04 -1.31710E+04 -2.65318E+03 -2.01904E+04  8.60249E+03 -1.48683E+04  1.65461E+04 -7.33290E+03
  1.44728E+04  2.00828E+02  9.61903E+03  3.55770E+03  6.04765E+03  1.01673E+03  6.90905E+03 -3.86961E+02
  1.36261E+04  2.36455E+03  1.45360E+04  1.27361E+04  9.58967E+03  2.41525E+04 -2.79040E+03  2.59911E+04
 -1.63252E+04  2.06032E+04 -2.43811E+04  9.37662E+03 -2.45221E+04 -1.70206E+03 -2.00921E+04 -1.41259E+04
 -1.04589E+04 -2.09689E+04  6.20307E+03 -1.87993E+04  1.69835E+04 -1.10973E+04  1.55345E+04  3.77544E+03
  5.36547E+03  1.17490E+04 -6.98003E+03  1.10544E+04 -1.23339E+04  2.35651E+03 -9.45583E+03 -8.10341E+03
  4.07600E+02 -1.32280E+04  6.71607E+03 -9.28577E+03  7.94421E+03 -1.91762E+02  2.43152E+03  5.04103E+03
 -5.18951E+03  4.76603E+02 -3.96671E+03 -4.66461E+03  9.86065E+02 -9.77778E+03  7.93751E+03 -9.34720E+03
  1.25823E+04 -5.02398E+03  1.22979E+04  2.62489E+03  9.06774E+03  9.07804E+03  4.92990E+03  1.45549E+04
 -1.93143E+03  1.60646E+04 -9.88337E+03  9.95920E+03 -1.09880E+04  3.40279E+03 -8.14880E+03 -1.77730E+03
 -5.02188E+03 -3.26786E+03 -8.24619E+02  1.25763E+03 -1.88746E+03  2.88722E+03 -3.87329E+03  3.75903E+03
 -7.98928E+03 -5.04471E+02 -7.52676E+03 -6.06369E+03 -3.57211E+03 -1.14535E+04  2.57205E+03 -8.30821E+03
  8.25619E+03 -3.59624E+03  4.76310E+03  2.98959E+03  3.86529E+02  3.94133E+03 -3.11321E+03 -9.57108E+02
 -2.29512E+03 -5.63585E+03 -8.22031E+02 -6.71717E+03  3.85900E+03 -7.82637E+03  1.01362E+04 -2.83533E+03
  1.23311E+04  9.28396E+02  9.31346E+03  5.68782E+03  1.29394E+03  8.54636E+03 -5.66788E+03  8.97568E+03
 -6.93720E+03  3.43981E+03 -3.26800E+03 -1.03971E+03  1.37502E+03 -1.76196E+03  5.22401E+03 -7.98886E+02
  4.74955E+03  3.30884E+03  1.06178E+03  6.38986E+03 -5.37627E+03  5.17799E+03 -6.78534E+03  1.85004E+03
 -4.20645E+03 -3.93818E+03 -4.20217E+02 -5.62829E+03  4.05115E+03 -2.76648E+03  3.97938E+03  1.48310E+03
  1.37807E+02  3.74544E+03 -4.03234E+03  4.36773E+03 -5.51149E+03  1.15769E+03 -4.35068E+03 -2.21700E+03
 -3.73517E+03 -5.88145E+03 -1.47252E+02 -7.47296E+03  6.00115E+03 -4.56510E+03  5.92957E+03  1.19113E+03
  4.53866E+03  4.35487E+03 -1.42392E+03  7.04669E+03 -5.04610E+03  3.44642E+03 -5.03849E+03  2.75732E+02
 -5.06803E+03 -5.05027E+03 -2.02277E+03 -4.89475E+03  2.65378E+03 -4.51498E+03  2.94187E+03 -4.05585E+03
  2.74987E+03  3.71355E+01 -1.22514E+02  1.14195E+03  5.34795E+02  2.91314E+02 -3.61400E+01 -2.60315E+03
  3.51651E+03 -9.38916E+02  6.25708E+03  6.84136E+02  6.10958E+03  2.24418E+03  5.80693E+03  5.73009E+03
 -1.40709E+03  8.76650E+03 -7.63324E+03  7.16731E+03 -8.84387E+03  1.63594E+03 -7.63918E+03 -2.55198E+03
 -4.77933E+03 -5.15632E+03 -3.59193E+02 -5.40979E+03  2.17563E+03 -1.01790E+03  1.91827E+03 -1.88997E+03
  1.38481E+03 -9.46944E+02  2.29207E+03 -1.78350E+03  3.42953E+03 -1.87230E+03  4.30283E+03 -2.79416E+02
  4.51546E+03  8.15141E+02  1.21796E+03  3.06888E+03 -1.48856E+03  1.93802E+03 -4.80136E+03  2.08892E+03
 -4.39416E+03 -9.96983E+02 -1.25382E+03 -3.20488E+03  4.84511E+01 -5.06605E+03  3.16764E+03 -5.26543E+03
  4.80028E+03 -3.80559E+03  6.30350E+03  3.04304E+02  3.72955E+03  4.96027E+03  8.54960E+02  5.28949E+03
 -1.73901E+03  6.54789E+03 -4.06361E+03  1.88517E+03 -2.11840E+03 -1.72397E+03  1.11570E+02 -8.05154E+02
 -4.49537E+02  8.18473E+02  4.38644E+01  1.62361E+03 -1.95787E+03  2.86779E+02 -4.23204E+03 -4.19078E+02
 -1.13606E+03 -4.34424E+03  1.10264E+03 -3.91712E+03  1.43348E+03 -4.41261E+03  3.38675E+03 -1.07502E+03
  2.91806E+03  2.42775E+03  1.68871E+03  3.21677E+03 -1.34059E+02  5.24074E+03 -2.48100E+03  2.75956E+03
 -3.71116E+03 -7.59928E+01 -2.85042E+03 -2.21713E+03  3.73218E+02 -3.36536E+03  9.81310E+02 -2.52578E+03
  1.50534E+03 -1.04208E+03  2.22306E+03  7.61611E+02  8.08888E+02  7.64143E+02  4.76895E+02  7.71166E+02
  1.33025E+03  1.11384E+03  1.55428E+03  1.74481E+03  6.55975E+02  1.90855E+03  8.10250E+02  8.32289E+02
 -1.18947E+03  3.65577E+03 -2.10799E+03  3.64668E+03 -2.71816E+03  1.45023E+03 -3.80150E+03 -5.38364E+02
 -7.66498E+02 -2.81735E+03  3.30235E+02 -4.82181E+03  1.37137E+03 -1.73344E+03  1.29487E+03 -2.04424E+03
  3.32199E+03  1.69210E+03  6.17295E+02  2.56756E+03 -9.64134E+02  7.18910E+02 -1.10429E+03 -1.17721E+03
 -9.41559E+02 -1.41674E+03  8.55301E+02 -1.41130E+03  1.22132E+03 -1.46781E+03  1.06578E+03  2.40954E+02
  1.66994E+02  2.31065E+02  3.22383E+02 -1.79061E+02 -6.44766E+02  4.54486E+02  1.59290E+03 -7.48707E+01
  1.06620E+02 -1.34222E+02  2.00946E+03  1.04984E+03  5.82367E+02  1.25397E+03 -2.61492E+02  3.33922E+03
 -2.28023E+03  2.12880E+02 -1.91937E+03  4.48480E+02 -1.38547E+03 -8.92612E+02  4.23209E+02 -1.43392E+03
  5.19717E+02 -3.73026E+02  5.36434E+02 -3.38432E+02  1.89945E+02  7.85543E+02 -2.23430E+01  1.64145E+03
 -1.16284E+03  6.64676E+02 -1.17970E+03 -2.47162E+03 -4.89724E+02 -2.63834E+03  6.14454E+01 -1.32743E+03
  3.04862E+02 -3.84280E+02 -5.71982E+02  1.38258E+02  1.21584E+03  7.71831E+01 -5.24915E+02  9.91591E+02
  3.77194E+02 -8.91963E+01 -9.05655E+02 -6.70357E+02  5.50726E+02 -1.22123E+03  1.68989E+03 -5.62698E+01
  1.27038E+03  5.94549E+01  1.80312E+03  5.99809E+02  2.13814E+02  1.30448E+03 -6.14152E+02  3.57353E+03
 -1.07554E+03 -3.93534E+02 -2.19878E+03  6.53599E+02 -1.13290E+03 -1.53984E+03 -1.48633E+02  1.81410E+02
  2.23945E+03  1.51907E+01  1.84942E+03  3.77227E+02  9.61650E+02  1.68722E+03 -6.90734E+02  2.17325E+03
 -3.28911E+00  1.26260E+03 -4.20242E+02  1.15398E+02 -2.81734E+02  1.05093E+03 -1.14543E+03  9.96588E+02
  8.70930E+01  7.41686E+02 -2.30921E+03  5.88516E+02 -1.83513E+03  3.52012E+02 -2.21591E+03 -1.77192E+03
 -1.19154E+03 -1.84428E+03  5.04784E+01 -3.33438E+03  1.18985E+02 -2.53795E+03  1.92401E+03 -2.52990E+02
  1.95839E+03 -1.81210E+01  1.74967E+03  1.32114E+03 -3.16513E+02  1.61025E+03 -1.15873E+03  1.81271E+03
 -9.46570E+02  1.74544E+03 -8.62354E+02 -4.46081E+02 -1.28295E+03  6.80898E+02 -6.33260E+02  3.38913E+02
  1.09953E+02  7.00938E+02 -6.85566E+02  1.82838E+02 -5.84615E+02 -4.12573E+01 -2.83717E+02 -2.24494E+02
  1.90854E+03 -2.26359E+02 -6.93409E+01  8.00169E+01  7.24719E+02  1.13069E+03 -3.01399E+02  7.62846E+02
 -7.42114E+02  2.93443E+03 -8.66619E+02  2.46571E+03 -1.92548E+03  2.75244E+02 -1.23978E+03  2.42773E+01
 -1.40749E+03 -1.10016E+03  1.12685E+03 -1.07611E+03  1.01522E+03 -5.89229E+02 -1.45627E+02 -3.67672E+02
  6.63303E+02  2.77025E+02 -4.10519E+02  1.49669E+03 -3.95078E+02 -9.00610E+02 -9.21967E+02 -1.86655E+02
 -1.58395E+02  1.71620E+03  2.10504E+01  1.14251E+01  4.90785E+02  1.25382E+03  1.00092E+03  1.64522E+03
  2.83663E+02  3.78310E+01 -1.93637E+02 -5.34959E+00 -4.47272E+02  7.29136E+02  2.72874E+01 -3.54335E+02
 -3.14535E+02 -6.36954E+01  1.83409E+02 -6.89444E+02  6.14477E+02 -1.14089E+03  2.39956E+02  9.19814E+02
  9.49155E+02  6.67631E+02  4.78271E+01  2.80226E+02 -8.61642E+02 -4.83576E+02 -5.19906E+02 -1.25699E+02
 -1.45614E+02  1.52533E+02  7.38298E+02  6.23597E+02 -7.96447E+02 -6.52422E+02 -5.59391E+02 -6.12424E+02
 -1.07445E+03 -6.81840E+02 -8.46675E+02 -3.60091E+02  1.05911E+03 -2.18584E+03  6.45414E+02 -1.20891E+03
  1.51340E+02  9.09328E+02  1.11017E+01 -3.99030E+00 -2.33534E+02  1.69422E+02 -1.10387E+03  8.55873E+02
