 $NMID ID='MM_0lb_SNR200_16hz_g45_47.RAW', FMTDAT='(8E13.5)'
 TRAMP=1., VOLUME=1. $END
  3.08943E+05  2.38015E+02  3.37169E+05  2.50841E+05  8.52960E+04  3.37667E+05 -1.32778E+05  2.49925E+05
 -1.89307E+05  8.29714E+04 -1.11411E+05 -3.27401E+04  1.67558E+03 -5.02520E+04  5.43188E+04 -4.15296E+02
  3.61866E+04  5.36340E+04 -1.69232E+04  7.53478E+04 -6.00102E+04  6.35725E+04 -8.37322E+04  3.21065E+04
 -8.06818E+04 -1.04729E+04 -5.62292E+04 -5.16391E+04 -1.47823E+04 -6.86641E+04  2.68051E+04 -4.55236E+04
  3.95101E+04  4.69797E+03  1.53966E+04  4.78947E+04 -3.37949E+04  4.70267E+04 -6.50525E+04  4.03893E+01
 -5.14553E+04 -5.61003E+04 -7.12292E+03 -7.52667E+04  3.31489E+04 -5.32041E+04  4.71659E+04 -1.67553E+04
  4.17350E+04  1.11414E+04  3.21359E+04  2.51694E+04  1.64087E+04  2.99990E+04 -4.49800E+03  2.75918E+04
 -2.09169E+04  1.38083E+04 -1.89883E+04 -4.18430E+03  4.70228E+03 -7.08987E+03  2.22535E+04  1.12070E+04
  7.94528E+03  3.28964E+04 -3.10327E+04  3.52986E+04 -6.26271E+04  1.02163E+03 -5.47312E+04 -4.11636E+04
 -1.06754E+04 -6.13446E+04  3.86679E+04 -4.37731E+04  5.57454E+04 -3.19981E+03  3.25663E+04  3.07703E+04
 -6.30587E+03  3.42153E+04 -2.94789E+04  1.37422E+04 -2.92511E+04 -4.15523E+03 -1.55905E+04 -1.02914E+04
 -7.84233E+03 -1.21478E+04 -1.19599E+03 -1.67776E+04  7.46147E+03 -2.31331E+04  1.52847E+04 -1.40199E+04
  1.15315E+04  5.05976E+03 -8.71476E+03  1.32525E+04 -2.06411E+04 -4.53395E+03 -9.18445E+03 -3.11525E+04
  2.18224E+04 -4.19805E+04  4.57921E+04 -1.98924E+04  4.32843E+04  1.97354E+04  1.55825E+04  4.32079E+04
 -1.56895E+04  3.25918E+04 -2.34137E+04  1.30999E+03 -9.26043E+03 -2.57609E+04  1.97706E+04 -3.07383E+04
  3.84159E+04 -7.81472E+03  3.36206E+04  2.36188E+04  1.57364E+04  4.43192E+04 -7.29386E+03  4.70600E+04
 -2.94347E+04  3.10072E+04 -3.89027E+04  9.38130E+03 -4.10498E+04 -1.61152E+04 -2.23625E+04 -3.59368E+04
  7.75286E+03 -3.62457E+04  3.09520E+04 -1.36122E+04  2.71661E+04  1.12288E+04  3.91817E+03  1.83333E+04
 -1.34533E+04  8.11357E+03 -8.72463E+03 -9.02529E+03  6.72514E+03 -9.34204E+03  1.83457E+04  5.60249E+03
  1.26892E+04  2.04231E+04 -5.54862E+03  2.45318E+04 -2.19293E+04  1.17309E+04 -2.70149E+04 -4.93013E+03
 -1.85541E+04 -1.69956E+04 -7.05196E+03 -1.89249E+04  3.21424E+03 -1.70994E+04  1.37484E+04 -1.65386E+04
  2.34203E+04 -1.31050E+04  2.95916E+04  2.08805E+03  2.27285E+04  1.76933E+04  3.48589E+03  3.45460E+04
 -1.76933E+04  2.93357E+04 -2.58645E+04  9.39828E+03 -2.05999E+04 -9.36417E+03 -3.47190E+03 -1.28390E+04
  2.84751E+03 -3.99506E+03 -3.47056E+03  7.47646E+03 -1.55674E+04  5.15283E+03 -1.46370E+04 -6.74412E+03
 -7.99071E+03 -1.64833E+04  5.07841E+03 -2.06060E+04  1.43130E+04 -1.68984E+04  1.54301E+04 -1.71034E+03
  9.15479E+03  1.17946E+04  2.78845E+02  1.70712E+04 -1.13845E+04  9.85433E+03 -1.63351E+04 -2.62010E+03
 -1.24358E+04 -1.48320E+04 -8.38835E+02 -2.09848E+04  9.30679E+03 -1.76834E+04  1.77435E+04 -8.71335E+03
  1.56814E+04  3.28345E+02  1.17012E+04  5.21309E+03  5.38405E+03  4.73071E+02  9.19845E+03 -1.60821E+03
  1.56941E+04  3.69530E+03  1.67645E+04  1.31166E+04  1.14578E+04  2.84950E+04 -3.20921E+03  3.00076E+04
 -1.77530E+04  2.39109E+04 -2.82436E+04  1.17809E+04 -2.83505E+04 -1.91029E+03 -2.47977E+04 -1.66123E+04
 -1.02804E+04 -2.39366E+04  8.01935E+03 -2.17448E+04  1.81529E+04 -1.05447E+04  1.70378E+04  5.20967E+03
  6.17316E+03  1.33975E+04 -7.87368E+03  1.14691E+04 -1.58292E+04  2.38022E+03 -1.03688E+04 -8.63153E+03
  6.48964E+02 -1.39553E+04  6.40832E+03 -9.51212E+03  8.61994E+03 -2.77062E+03  2.62125E+03  4.64109E+03
 -5.76397E+03  1.62357E+03 -4.03952E+03 -4.42434E+03  1.31440E+03 -1.16784E+04  8.61365E+03 -1.16357E+04
  1.38814E+04 -6.36282E+03  1.52136E+04  2.80316E+03  1.30871E+04  1.08230E+04  6.38663E+03  1.60978E+04
 -2.87444E+03  1.86412E+04 -1.21763E+04  1.12424E+04 -1.40217E+04  3.63079E+03 -9.60386E+03 -1.78293E+03
 -4.92995E+03 -4.12590E+03 -8.01677E+02  9.78571E+02 -2.64587E+03  2.03128E+03 -4.64136E+03  4.12120E+03
 -9.34906E+03 -4.33950E+01 -1.05253E+04 -7.75814E+03 -3.25577E+03 -1.38418E+04  3.57777E+03 -9.60363E+03
  8.66838E+03 -3.61714E+03  6.17116E+03  3.03080E+03  5.69432E+02  3.69408E+03 -3.59461E+03 -4.14351E+02
 -5.07068E+03 -6.06453E+03 -1.50478E+03 -8.73668E+03  5.71379E+03 -1.00989E+04  1.18172E+04 -4.13872E+03
  1.42995E+04  4.88746E+02  1.04103E+04  7.55466E+03  2.17587E+03  1.14593E+04 -5.50649E+03  9.39555E+03
 -8.41060E+03  3.41864E+03 -3.96087E+03 -1.61943E+03  1.36017E+03 -2.14229E+03  5.37994E+03 -1.54531E+03
  4.84447E+03  3.58900E+03  1.05820E+03  5.89275E+03 -5.16970E+03  7.03143E+03 -8.93976E+03  2.47121E+03
 -5.82325E+03 -4.25245E+03  3.15676E+02 -6.26551E+03  4.79791E+03 -4.50490E+03  3.84223E+03  1.23316E+03
 -1.94312E+02  3.99352E+03 -4.95784E+03  6.95895E+03 -6.41391E+03  2.64063E+03 -4.96697E+03 -1.25496E+03
 -3.85476E+03 -6.43369E+03  2.38630E+03 -8.85850E+03  8.55709E+03 -5.02899E+03  7.49087E+03  1.61923E+03
  5.35241E+03  5.92055E+03  1.28450E+02  7.97132E+03 -6.18473E+03  4.56732E+03 -6.92937E+03 -1.00273E+02
 -5.22506E+03 -6.63250E+03 -1.02907E+03 -5.81413E+03  3.25997E+03 -5.74257E+03  2.95630E+03 -2.30049E+03
  2.99364E+03  7.81059E+02 -4.67051E+02  1.50821E+03  4.82406E+02 -8.72159E+02  1.24472E+03 -2.14261E+03
  4.75688E+03 -1.34075E+03  6.70955E+03  1.06667E+03  7.17467E+03  4.54499E+03  6.30161E+03  9.63733E+03
 -5.51918E+02  1.20284E+04 -8.53785E+03  7.52996E+03 -1.22015E+04  2.03130E+03 -9.58938E+03 -3.90224E+03
 -5.90120E+03 -8.60803E+03 -7.07304E+01 -6.37987E+03  2.49875E+03 -4.62353E+03  2.22402E+03 -3.97629E+03
  1.41134E+03 -1.44818E+03  1.93521E+03 -3.05497E+03  4.14999E+03 -1.80208E+03  4.46315E+03  1.06075E+03
  4.72377E+03  2.47567E+03  3.77094E+03  5.07057E+03 -3.04951E+03  4.68369E+03 -6.27166E+03  3.29285E+03
 -6.95026E+03 -1.18628E+03 -3.51891E+03 -5.16418E+03  9.41029E+02 -6.54616E+03  3.66097E+03 -6.40248E+03
  7.27068E+03 -4.25539E+03  8.70007E+03  1.35183E+03  5.38271E+03  6.63285E+03  1.34048E+03  8.47309E+03
 -3.30636E+03  7.00813E+03 -5.18713E+03  1.83416E+03 -3.08764E+03 -6.32661E+02 -5.37432E+02 -8.97626E+02
 -1.33400E+02  2.21238E+02 -1.31091E+03  2.19613E+03 -2.95945E+03  2.73782E+03 -5.08203E+03  6.92632E+02
 -2.45322E+03 -4.17745E+03  7.01745E+02 -6.48090E+03  4.19572E+03 -6.31114E+03  4.44673E+03 -5.87247E+02
  5.34546E+03  2.57139E+03  3.31595E+03  5.44881E+03 -5.75217E+02  5.77289E+03 -2.98632E+03  4.95836E+03
 -5.18815E+03  4.30327E+02 -4.62788E+03 -2.88724E+03  2.21510E+02 -4.91597E+03  2.05549E+03 -3.10009E+03
  4.51591E+03 -1.60334E+03  2.37383E+03  1.08794E+03  1.59399E+02  1.85286E+03  1.13409E+03 -5.39389E+01
  1.53976E+03  2.41014E+01  3.77844E+02  2.12243E+03  1.51212E+03  3.07004E+03  1.24517E+03  1.80730E+03
 -2.63551E+03  3.81267E+03 -3.78168E+03  5.68158E+03 -4.21627E+03  1.93231E+03 -5.43108E+03 -1.42102E+03
 -3.21942E+03 -4.88872E+03  1.74217E+03 -7.22112E+03  3.18868E+03 -3.82280E+03  3.48996E+03 -8.94654E+02
  3.45341E+03  2.08162E+03 -1.54877E+02  2.10283E+03 -2.02472E+03  2.49674E+03 -1.42733E+03 -6.33112E+02
 -5.70680E+02 -1.75525E+03  2.26243E+03 -2.67773E+03  1.38565E+03 -1.20252E+03  1.97127E+03 -6.77727E+02
  1.60999E+02  2.14192E+03  1.69673E+03  8.40148E+02 -9.48995E+02  1.41932E+03  1.89198E+03 -1.24573E+03
  1.68174E+02  1.30501E+02  2.57448E+03  2.17467E+02  1.44435E+03  3.28921E+03  2.54385E+02  3.26347E+03
 -1.63089E+03  1.78245E+03 -2.82503E+03 -2.34210E+02 -2.23872E+03 -8.20628E+02  5.03658E+02 -1.60826E+03
  1.41334E+03 -2.34638E+03 -7.14163E+02 -6.75496E+02  3.67854E+02  1.75028E+03 -2.10940E+03  9.72340E+02
 -2.40601E+03  1.63093E+03 -2.09388E+03  2.50200E+02 -1.11467E+03 -2.94735E+03  2.33916E+02 -1.57425E+03
  4.24892E+02 -9.82679E+02  5.33346E+02  1.02112E+03  1.79679E+03  1.09393E+03  6.94714E+02  9.91835E+02
 -7.32124E+02 -4.26128E+01 -8.07913E+02 -1.09756E+03  1.53000E+03 -1.54495E+03  2.51807E+03 -1.14630E+03
  1.94755E+03 -4.62745E+02  3.38582E+03  2.90356E+03  9.57430E+02  2.68490E+03 -1.40972E+02  3.61208E+03
 -7.76478E+02  1.26219E+03 -2.49301E+03  4.69984E+02 -2.01499E+03 -1.73507E+03  9.62805E+01 -1.94324E+03
  1.78413E+03 -2.27642E+03  1.81191E+03  7.45325E+02 -6.26720E+01  1.47463E+03  6.45230E+01  1.84452E+03
 -6.69267E+02  1.45030E+03  3.72053E+02 -7.71884E+02 -1.03999E+02 -3.86699E+02 -7.01294E+02  4.53782E+02
 -1.11743E+03  2.16440E+03 -3.08404E+03  7.60423E+02 -2.84902E+03  1.48665E+03 -3.71874E+03 -1.35394E+03
 -1.30697E+03 -4.20775E+03  1.12549E+03 -4.70860E+03  2.71179E+03 -3.22598E+03  4.86426E+03 -1.62768E+03
  3.70214E+03 -4.66724E+02  1.92610E+03  3.05101E+03  3.71338E+02  1.39649E+03 -1.07921E+03  2.24752E+03
 -5.90035E+02  2.22237E+03  9.27913E+00 -1.87066E+02 -7.94221E+02 -7.50649E+02 -2.08158E+02  5.03549E+02
 -6.92233E+02 -4.83008E+02 -1.71495E+03 -6.86718E+01 -2.67107E+02 -1.05309E+03 -1.48532E+03 -5.99464E+02
  2.19594E+03 -4.77141E+02  1.38031E+03 -2.32145E+02  2.24294E+03  1.75481E+03  5.27921E+02  2.78078E+03
 -1.43749E+03  4.15577E+03 -3.26938E+03  1.76085E+03 -1.82957E+03 -1.60685E+03 -2.11160E+03 -2.53110E+03
 -1.35939E+03 -2.29695E+03  1.02863E+03 -1.80749E+03  1.34906E+03 -2.18240E+03  1.72818E+03  1.00159E+03
  1.97002E+03  7.35356E+02 -6.21501E+02  6.51529E+02 -1.71476E+02 -1.01082E+02  3.92599E+02 -4.60058E+01
  1.54797E+03 -4.68740E+01  1.22901E+03  6.09100E+02  5.32233E+02  3.39398E+02  3.33709E+02  8.59489E+02
 -1.25757E+03  5.63292E+02 -1.49597E+03 -1.27024E+02 -2.15498E+03 -7.88180E+02  1.80777E+02 -7.11388E+02
  6.35236E+02 -6.77882E+01  1.65439E+03 -5.78073E+02  2.49656E+03 -4.15342E+02 -2.69481E+02  1.69979E+03
  6.63551E+02  1.60340E+03 -5.41017E+02  1.60636E+03 -1.26979E+03  1.06103E+03  1.69645E+02 -5.45530E+02
  1.32459E+02 -1.68144E+02 -1.13714E+03 -3.92073E+02 -3.29042E+02  1.10980E+03 -1.18955E+03 -2.40465E+02
 -1.23687E+03 -3.10480E+02 -7.76206E+02 -1.23927E+03  9.03332E+02 -2.49035E+03  1.87565E+03 -1.50369E+02
  1.48472E+03  9.13334E+02 -3.44791E+02  3.37318E+02 -1.21897E+03  7.11707E+02 -2.80238E+02  1.26654E+03
