 $NMID ID='MM_0lb_SNR200_19hz_g55_93.RAW', FMTDAT='(8E13.5)'
 TRAMP=1., VOLUME=1. $END
  3.10208E+05 -3.94738E+01  3.37219E+05  2.50515E+05  8.46217E+04  3.38252E+05 -1.32137E+05  2.50319E+05
 -1.90540E+05  8.28347E+04 -1.11669E+05 -3.32221E+04  8.72727E+02 -4.97494E+04  5.34006E+04  2.84718E+02
  3.54005E+04  5.25526E+04 -1.74447E+04  7.51696E+04 -5.98457E+04  6.26165E+04 -8.31845E+04  3.19020E+04
 -8.06833E+04 -1.09941E+04 -5.75364E+04 -5.10101E+04 -1.45133E+04 -6.89705E+04  2.74804E+04 -4.44802E+04
  3.83193E+04  3.84218E+03  1.58960E+04  4.72084E+04 -3.37286E+04  4.64420E+04 -6.54816E+04 -1.47309E+03
 -5.20753E+04 -5.63615E+04 -6.31446E+03 -7.57661E+04  3.33104E+04 -5.37224E+04  4.63795E+04 -1.63296E+04
  4.09034E+04  1.23802E+04  3.09586E+04  2.47161E+04  1.67290E+04  2.85968E+04 -5.50404E+03  2.64727E+04
 -2.12324E+04  1.25056E+04 -1.85368E+04 -5.01636E+03  3.99051E+03 -7.60671E+03  2.26542E+04  1.12024E+04
  7.74904E+03  3.45925E+04 -3.13543E+04  3.33214E+04 -6.18357E+04  2.20511E+03 -5.58044E+04 -4.11143E+04
 -1.29669E+04 -6.17932E+04  3.82366E+04 -4.33881E+04  5.51975E+04 -2.65633E+03  3.31588E+04  3.08914E+04
 -6.63081E+03  3.32160E+04 -2.89977E+04  1.46992E+04 -2.85275E+04 -5.15481E+03 -1.60093E+04 -1.06982E+04
 -7.07396E+03 -1.08755E+04 -7.50895E+02 -1.74522E+04  6.87379E+03 -2.22169E+04  1.51052E+04 -1.40628E+04
  1.27384E+04  3.24738E+03 -6.11203E+03  1.40240E+04 -1.94338E+04 -3.44318E+03 -7.66368E+03 -3.14438E+04
  2.09410E+04 -4.06673E+04  4.56999E+04 -1.84231E+04  4.14781E+04  1.85377E+04  1.45270E+04  4.16657E+04
 -1.63581E+04  3.09940E+04 -2.33538E+04  1.11501E+03 -8.63974E+03 -2.68774E+04  2.03005E+04 -3.11465E+04
  3.91637E+04 -7.57581E+03  3.29072E+04  2.19437E+04  1.59545E+04  4.31611E+04 -7.60555E+03  4.57783E+04
 -2.93293E+04  3.04148E+04 -3.81803E+04  9.05467E+03 -3.94101E+04 -1.57351E+04 -2.24179E+04 -3.57435E+04
  7.57852E+03 -3.47986E+04  2.95635E+04 -1.31960E+04  2.66907E+04  1.07374E+04  3.64243E+03  1.78066E+04
 -1.35744E+04  7.49886E+03 -9.78621E+03 -6.87153E+03  5.30796E+03 -1.05888E+04  1.64484E+04  5.90621E+03
  1.23930E+04  2.25493E+04 -6.08657E+03  2.33850E+04 -2.13933E+04  9.61151E+03 -2.51771E+04 -6.44650E+03
 -1.81438E+04 -1.64696E+04 -6.50069E+03 -1.60144E+04  3.52759E+03 -1.51478E+04  1.28460E+04 -1.50294E+04
  2.20758E+04 -1.22935E+04  2.89610E+04  1.05289E+03  2.17082E+04  1.74607E+04  3.59292E+03  3.28861E+04
 -1.61150E+04  2.75550E+04 -2.56803E+04  1.02186E+04 -2.07828E+04 -1.08221E+04 -4.42998E+03 -1.38264E+04
  3.12868E+03 -3.23481E+03 -3.75401E+03  5.59426E+03 -1.34664E+04  6.32541E+03 -1.40000E+04 -6.15522E+03
 -9.50892E+03 -1.50202E+04  5.04064E+03 -1.84192E+04  1.25692E+04 -1.41092E+04  1.54207E+04 -1.93651E+03
  8.20180E+03  1.03439E+04 -3.95171E+02  1.56991E+04 -1.03563E+04  9.42441E+03 -1.55796E+04 -3.85840E+03
 -1.19527E+04 -1.39250E+04 -1.73189E+03 -1.95503E+04  9.19252E+03 -1.57736E+04  1.66960E+04 -7.07167E+03
  1.55846E+04  2.29161E+02  9.64601E+03  3.78231E+03  5.14734E+03  6.58773E+02  7.96329E+03 -9.00414E+02
  1.43128E+04  3.02625E+03  1.58819E+04  1.27242E+04  9.11158E+03  2.56635E+04 -2.95718E+03  2.69621E+04
 -1.59476E+04  2.05025E+04 -2.60165E+04  8.81214E+03 -2.61357E+04 -2.34658E+03 -2.18960E+04 -1.41672E+04
 -1.02321E+04 -2.11599E+04  7.40397E+03 -2.04881E+04  1.75585E+04 -1.07310E+04  1.59427E+04  4.20919E+03
  7.64613E+03  1.17133E+04 -6.76456E+03  1.13679E+04 -1.37855E+04  2.13599E+03 -9.43718E+03 -8.78210E+03
  6.96941E+01 -1.25140E+04  6.50987E+03 -7.89649E+03  8.48490E+03 -1.75733E+03  2.16984E+03  5.07581E+03
 -6.53440E+03 -8.22225E+02 -3.19382E+03 -5.16302E+03  9.25603E+02 -9.61060E+03  8.10297E+03 -9.97031E+03
  1.20241E+04 -4.47342E+03  1.23361E+04  2.58166E+03  9.82921E+03  8.98004E+03  5.65637E+03  1.42168E+04
 -1.93805E+03  1.69942E+04 -9.91322E+03  1.01470E+04 -1.26055E+04  3.04554E+03 -7.50164E+03 -2.46676E+03
 -4.80180E+03 -3.60199E+03 -1.28267E+03  1.62418E+03 -1.20992E+03  1.99213E+03 -3.81874E+03  4.23106E+03
 -8.48663E+03 -1.15514E+03 -9.34192E+03 -7.42591E+03 -3.21158E+03 -1.17449E+04  4.12075E+03 -8.57002E+03
  7.83781E+03 -4.08916E+03  5.08385E+03  2.30769E+03  1.13152E+03  3.71091E+03 -2.69840E+03 -4.39241E+02
 -3.99680E+03 -6.34474E+03  1.32754E+02 -8.06630E+03  4.95207E+03 -8.34894E+03  9.74068E+03 -4.05961E+03
  1.28415E+04  1.21426E+03  8.91329E+03  5.75712E+03  1.22664E+03  9.30377E+03 -5.63303E+03  7.58719E+03
 -7.12145E+03  3.58150E+03 -2.56304E+03 -1.50360E+03  2.40562E+03 -2.46163E+03  4.91700E+03 -1.62456E+03
  5.19971E+03  2.80605E+03  1.81952E+03  6.24563E+03 -3.91394E+03  5.69813E+03 -8.70032E+03  2.36164E+03
 -5.86371E+03 -3.14529E+03 -3.17515E+02 -5.48829E+03  4.02792E+03 -2.63992E+03  4.21060E+03  1.03538E+03
  9.68723E+02  3.30950E+03 -3.57498E+03  5.15189E+03 -4.70624E+03  2.80858E+03 -3.49812E+03 -1.35101E+03
 -2.91348E+03 -4.76995E+03  9.81162E+02 -6.24307E+03  5.46621E+03 -5.25195E+03  6.83461E+03  5.34074E+02
  5.39498E+03  5.78259E+03 -2.64065E+02  7.17878E+03 -4.37642E+03  4.49970E+03 -6.48946E+03 -3.09932E+02
 -6.07441E+03 -4.83025E+03 -1.72560E+03 -4.98465E+03  1.98046E+03 -5.96278E+03  3.40561E+03 -2.52406E+03
  2.17817E+03  5.63872E+02  7.15922E+02  1.33726E+03 -6.37031E+01 -6.50718E+02 -4.24627E+02 -2.05552E+03
  2.73809E+03 -1.28563E+03  5.41911E+03  3.78364E+02  5.34473E+03  1.84796E+03  6.29423E+03  6.71711E+03
 -1.69054E+03  8.74502E+03 -7.49252E+03  7.84594E+03 -1.04852E+04  1.81456E+03 -7.96719E+03 -3.09696E+03
 -4.33215E+03 -5.88121E+03 -1.82723E+02 -5.75159E+03  2.34912E+03 -2.63053E+03  1.61567E+03 -2.31932E+03
  5.55339E+02 -1.36108E+03  2.54075E+03 -2.05419E+03  3.85580E+03 -1.76843E+03  3.83423E+03 -2.21496E+02
  4.17737E+03  7.01841E+02  4.95777E+02  2.61873E+03 -2.29621E+03  2.81378E+03 -3.81773E+03  3.20548E+03
 -3.67761E+03 -1.04631E+03 -1.22980E+03 -2.70384E+03  7.89138E+02 -5.57427E+03  2.27288E+03 -5.16151E+03
  5.35574E+03 -3.70582E+03  6.12952E+03  2.60164E+02  4.77491E+03  3.64060E+03  7.00407E+02  4.89207E+03
 -2.02810E+03  5.46620E+03 -3.14813E+03  1.57230E+03 -2.94297E+03 -1.14507E+03 -4.75227E+02 -3.85492E+02
 -2.69504E+02  1.72622E+03 -6.35793E+02  1.59586E+03 -2.25861E+03  7.29266E+02 -3.21259E+03  6.94589E+02
 -1.36825E+03 -3.69460E+03  6.20033E+02 -5.22029E+03  3.08152E+03 -3.74646E+03  3.20603E+03  1.41077E+02
  4.72796E+03  1.81031E+03  2.64497E+03  2.63793E+03 -9.57333E+02  5.03930E+03 -2.03482E+03  3.39089E+03
 -3.82403E+03  6.30513E+02 -2.50668E+03 -1.83678E+03  7.29176E+00 -2.90137E+03  9.53627E+02 -2.16659E+03
  3.25767E+03 -2.08833E+03  1.21937E+03 -6.51085E+02 -2.76208E+02  1.26435E+03  9.95917E+02  4.64763E+02
  1.48958E+03  3.33017E+02  1.02846E+03  1.59292E+03  1.16660E+03  1.95176E+03  1.82344E+03  1.66343E+03
 -1.32010E+03  3.61596E+03 -2.50991E+03  4.01036E+03 -1.46963E+03  1.47752E+03 -3.61310E+03  8.57661E+01
 -2.19461E+03 -4.27236E+03  5.68251E+02 -5.37007E+03  1.47178E+03 -2.28119E+03  3.32755E+03 -4.72994E+02
  1.99635E+03  6.17675E+02  9.30321E+02  1.76319E+03 -3.80787E+02  1.49353E+02 -5.19383E+02 -2.49211E+02
 -6.08923E+01 -1.65149E+03  7.20015E+02 -1.20921E+03  1.47843E+03 -9.80931E+02  1.65962E+03  1.17560E+02
  1.24111E+03  6.41064E+02  1.51357E+03  4.00222E+02 -9.12650E+00 -9.22664E+01  2.39308E+03 -1.15004E+03
 -6.40946E+01 -3.62655E+02  2.48699E+03  1.71224E+02 -1.07597E+02  2.92310E+03 -1.66119E+02  2.09806E+03
 -2.21354E+03  1.78841E+03 -1.25016E+03 -2.22713E+02 -1.81503E+03  3.75423E+02  7.78713E+02 -1.69130E+03
 -3.38401E+02 -4.69137E+02  8.94200E+02 -4.00324E+02  8.84999E+02  7.85048E+02 -5.47794E+02  1.45316E+03
 -2.09835E+03  9.55204E+02 -1.88908E+03 -1.83321E+03 -9.86349E+02 -1.14091E+03 -4.57491E+02 -4.67012E+02
  6.28205E+02 -3.99050E+02 -7.10876E+02  5.79950E+02  1.09259E+03  3.22320E+02  5.24093E+02  9.32419E+02
 -1.81995E+01 -3.42909E+02 -4.45056E+02 -1.17640E+03  1.00342E+03 -1.06929E+03  1.61224E+03 -1.20159E+03
  2.37346E+02 -1.18782E+02  2.28351E+03  1.22107E+03  1.36373E+03  1.09834E+03 -6.40305E+02  1.72169E+03
 -1.35576E+03  3.97827E+02 -1.51498E+03 -6.16895E+02 -1.08572E+03 -1.68895E+03 -1.30930E+02 -6.39344E+02
  1.21602E+03 -9.98431E+02  7.98666E+02  2.87795E+02  4.29318E+02  1.38839E+03  2.13961E+02  7.28266E+02
 -2.76432E+02  1.29399E+03 -1.15884E+02  6.75974E+02  3.59699E+02  7.33707E+02 -1.42766E+03  6.71364E+02
 -1.34577E+03  1.47603E+03 -1.52589E+03  3.98608E+02 -1.45428E+03 -5.35926E+01 -1.70542E+03 -1.27798E+03
 -1.91513E+03 -2.23674E+03  8.08872E+02 -2.54856E+03  7.03429E+02 -1.69741E+03  2.27748E+03 -1.13808E+03
  1.56165E+03 -1.88783E+01  1.52298E+03 -7.49509E+01 -7.40794E+02  9.53953E+02 -1.31372E+03  7.42017E+02
 -1.43738E+03  8.86338E+02 -6.09767E+01  2.25476E+02  8.00597E+01  6.05262E+02 -1.08570E+03  1.04393E+03
 -1.85124E+03 -7.30625E+02 -1.09365E+03  3.37062E+02  2.65625E+02 -4.77716E+02 -4.38029E+02 -7.90370E+02
  1.09700E+03 -1.52839E+02 -2.25990E+02  1.31596E+02  1.02333E+03  8.68088E+02 -2.69682E+02  9.83562E+02
 -2.53654E+02  2.17107E+03 -2.46070E+03  1.30545E+03 -2.34046E+03 -8.06883E+01 -1.27068E+03 -1.89327E+03
 -1.61736E+03 -1.05621E+03  7.74393E+00 -7.26523E+02  7.93119E+02 -1.84746E+02 -1.18091E+02  8.23767E+02
  1.41592E+03  1.12774E+03 -6.46495E+02  1.64274E+02  1.98384E+02 -8.10179E+02 -1.44168E+02  4.66333E+02
 -2.17319E+02  6.30240E+02 -3.43807E+02  6.69721E+01 -1.26933E+03 -9.40475E+02 -9.94796E+00 -5.36554E+02
 -7.97482E+02  7.95658E+02 -6.04985E+02 -5.92119E+02 -1.24438E+03  5.61051E+02 -3.66776E+02 -7.24794E+02
  7.64967E+02  1.46981E+02 -3.30352E+02  3.38615E+02  1.02578E+03 -5.58255E+01 -6.91770E+02  7.37336E+02
  7.87717E+01 -3.61076E+02  3.34688E+01 -5.41755E+02  5.34249E+02  3.54184E+02 -4.87729E+02 -1.87608E+02
 -6.62312E+02  9.39754E+02 -7.52103E+02  1.01882E+03 -1.66059E+03 -6.80050E+01 -3.17748E+02  8.99139E+01
 -9.53794E+02  8.64344E+01 -2.34289E+02  3.54629E+02  2.06334E+02 -1.13422E+03  1.30911E+03  2.27869E+02
  8.59004E+02  1.19300E+02 -1.87693E+02 -1.41230E+02  2.39409E+02  8.00418E+02 -3.89624E+01  1.04241E+02
