 $NMID ID='MM_0lb_SNR200_15hz_g45_26.RAW', FMTDAT='(8E13.5)'
 TRAMP=1., VOLUME=1. $END
  3.10476E+05  1.18367E+03  3.36834E+05  2.50681E+05  8.41601E+04  3.37335E+05 -1.33154E+05  2.51479E+05
 -1.90132E+05  8.21766E+04 -1.12847E+05 -3.29843E+04 -5.47887E+01 -5.04355E+04  5.29076E+04 -1.21638E+02
  3.62459E+04  5.23493E+04 -1.64415E+04  7.57851E+04 -6.06141E+04  6.32481E+04 -8.36543E+04  3.10501E+04
 -8.11277E+04 -1.04408E+04 -5.62848E+04 -5.03025E+04 -1.39058E+04 -6.88146E+04  2.85991E+04 -4.53985E+04
  4.12485E+04  4.01734E+03  1.67736E+04  4.85110E+04 -3.37617E+04  4.55771E+04 -6.54085E+04 -3.20371E+02
 -5.31034E+04 -5.65299E+04 -6.10557E+03 -7.52177E+04  3.39366E+04 -5.39929E+04  4.73749E+04 -1.71787E+04
  4.30473E+04  1.09378E+04  3.18418E+04  2.53122E+04  1.54216E+04  2.97632E+04 -6.05992E+03  2.68707E+04
 -2.25599E+04  1.24881E+04 -1.82103E+04 -4.12193E+03  5.42823E+03 -7.45377E+03  2.13211E+04  1.12993E+04
  5.20735E+03  3.54125E+04 -3.06905E+04  3.57468E+04 -6.37838E+04  3.05325E+03 -5.65345E+04 -4.15693E+04
 -1.26379E+04 -6.25705E+04  3.90730E+04 -4.41925E+04  5.76773E+04 -9.46831E+02  3.20982E+04  3.17757E+04
 -7.35356E+03  3.54700E+04 -2.94615E+04  1.42908E+04 -2.90421E+04 -5.03743E+03 -1.66232E+04 -1.00341E+04
 -7.18423E+03 -1.36883E+04 -1.29981E+03 -1.73879E+04  6.48520E+03 -2.23284E+04  1.50483E+04 -1.36150E+04
  1.20638E+04  5.27450E+03 -7.20139E+03  1.28606E+04 -2.01538E+04 -3.46142E+03 -9.04894E+03 -3.25912E+04
  2.26242E+04 -4.34971E+04  4.75929E+04 -1.93586E+04  4.35592E+04  1.75544E+04  1.53011E+04  4.36670E+04
 -1.53637E+04  3.33792E+04 -2.52212E+04  2.35636E+03 -9.21583E+03 -2.66462E+04  2.01926E+04 -3.31845E+04
  3.87436E+04 -9.06937E+03  3.26548E+04  2.30516E+04  1.64223E+04  4.60846E+04 -8.37030E+03  4.82678E+04
 -3.04589E+04  3.31198E+04 -3.95976E+04  8.91681E+03 -4.13022E+04 -1.59568E+04 -2.29044E+04 -3.70895E+04
  6.87654E+03 -3.63094E+04  3.05005E+04 -1.39961E+04  2.81195E+04  1.04076E+04  4.88075E+03  1.82475E+04
 -1.25412E+04  8.16479E+03 -1.06095E+04 -7.80634E+03  5.44486E+03 -1.00391E+04  1.76759E+04  5.71000E+03
  1.35782E+04  2.05302E+04 -6.65678E+03  2.47486E+04 -2.23345E+04  1.01137E+04 -2.81016E+04 -5.12615E+03
 -1.96449E+04 -1.76048E+04 -8.13316E+03 -1.94923E+04  2.59651E+03 -1.75337E+04  1.47072E+04 -1.70114E+04
  2.47031E+04 -1.13063E+04  3.11478E+04  1.61226E+03  2.37856E+04  1.95861E+04  4.33963E+03  3.52655E+04
 -1.68705E+04  2.93527E+04 -2.74509E+04  9.73888E+03 -2.09171E+04 -1.09908E+04 -3.73650E+03 -1.39262E+04
  2.63301E+03 -3.08914E+03 -3.71744E+03  7.92235E+03 -1.53369E+04  5.53706E+03 -1.53824E+04 -5.34224E+03
 -9.30921E+03 -1.68686E+04  5.21218E+03 -2.16750E+04  1.40427E+04 -1.48837E+04  1.77272E+04 -1.18390E+03
  1.13754E+04  1.21853E+04 -1.70377E+03  1.81400E+04 -1.32089E+04  1.17799E+04 -1.68178E+04 -4.46624E+03
 -1.22956E+04 -1.61191E+04 -1.96297E+03 -2.13103E+04  9.58667E+03 -1.78145E+04  1.81716E+04 -8.32327E+03
  1.66599E+04  7.30307E+02  1.27672E+04  4.58986E+03  5.96518E+03  3.81278E+01  9.31653E+03 -2.12778E+03
  1.68923E+04  1.63134E+03  1.63335E+04  1.48538E+04  1.24077E+04  2.97302E+04 -2.64653E+03  3.13966E+04
 -1.83988E+04  2.46458E+04 -3.05228E+04  1.32544E+04 -2.98044E+04 -2.83744E+03 -2.46879E+04 -1.79261E+04
 -1.17735E+04 -2.56882E+04  7.99021E+03 -2.30721E+04  2.02227E+04 -1.23808E+04  1.90018E+04  5.29658E+03
  7.10630E+03  1.33820E+04 -7.52043E+03  1.30431E+04 -1.35423E+04  2.08875E+03 -1.14399E+04 -1.02027E+04
  1.23354E+03 -1.40348E+04  7.95446E+03 -1.02928E+04  8.04222E+03 -8.80582E+02  1.59278E+03  5.76355E+03
 -6.64265E+03  2.74302E+03 -6.20166E+03 -4.84904E+03 -1.92421E+00 -1.26569E+04  9.51377E+03 -1.32706E+04
  1.37284E+04 -6.10154E+03  1.56988E+04  3.06209E+03  1.46181E+04  1.17222E+04  6.00109E+03  1.74726E+04
 -3.16844E+03  2.02078E+04 -1.28659E+04  1.21073E+04 -1.34669E+04  3.73547E+03 -9.04429E+03 -4.52202E+03
 -4.30500E+03 -3.89646E+03 -5.29266E+01  8.84411E+02 -1.53981E+03  3.13393E+03 -5.33749E+03  4.77877E+03
 -1.09007E+04 -1.10756E+03 -1.09893E+04 -1.05673E+04 -4.37800E+03 -1.42644E+04  4.07542E+03 -1.02669E+04
  9.23317E+03 -4.07059E+03  5.55436E+03  3.38828E+03  1.70915E+03  5.19564E+03 -4.62889E+03  1.07156E+03
 -4.11051E+03 -8.12505E+03 -7.01350E+02 -8.71515E+03  5.77972E+03 -9.86282E+03  1.26959E+04 -5.81789E+03
  1.53559E+04  1.69368E+03  1.04269E+04  8.98048E+03  1.70759E+03  1.14505E+04 -6.89464E+03  1.08447E+04
 -7.82600E+03  2.49328E+03 -4.62861E+03 -2.24603E+03  1.06809E+03 -2.06856E+03  6.80662E+03 -1.19483E+03
  4.87432E+03  3.65477E+03  2.38345E+03  7.91826E+03 -5.49573E+03  7.28804E+03 -1.13477E+04  2.90384E+03
 -6.62832E+03 -4.55817E+03  1.12593E+03 -8.73390E+03  5.99615E+03 -4.93846E+03  5.14748E+03  2.35015E+03
  1.93178E+03  5.52174E+03 -4.47581E+03  6.28083E+03 -6.74791E+03  3.09200E+03 -7.13222E+03 -2.56917E+03
 -4.31823E+03 -8.93002E+03  3.19085E+03 -9.41155E+03  7.75493E+03 -6.12135E+03  9.36566E+03  1.31418E+03
  5.62049E+03  7.56686E+03  3.29221E+02  9.48760E+03 -5.99119E+03  5.11281E+03 -6.39056E+03 -9.77442E+02
 -7.49076E+03 -6.50435E+03 -1.52462E+03 -7.41644E+03  3.39952E+03 -6.02518E+03  4.20144E+03 -3.91551E+03
  4.13428E+03  1.33683E+03  1.67968E+02  5.52447E+02  9.33737E+02  8.92361E+02  1.05635E+03 -3.90179E+03
  6.09353E+03 -2.08313E+03  8.12869E+03  1.65775E+03  7.79323E+03  4.65313E+03  8.22215E+03  1.13501E+04
 -2.05549E+03  1.22903E+04 -1.05099E+04  8.70129E+03 -1.43096E+04  1.16447E+03 -1.07782E+04 -4.51487E+03
 -5.75147E+03 -9.35408E+03 -5.59573E+01 -7.77524E+03  3.32443E+03 -3.00115E+03  2.67013E+03 -3.91210E+03
  2.04933E+03 -2.62936E+03  1.77059E+03 -3.39098E+03  3.56157E+03 -1.52116E+03  3.84014E+03 -1.73094E+02
  6.05056E+03  1.10292E+03  2.45631E+03  5.15678E+03 -2.14407E+03  4.29406E+03 -6.07673E+03  4.54629E+03
 -7.59356E+03 -3.14654E+02 -4.06805E+03 -5.66296E+03  2.35474E+02 -7.61644E+03  4.77249E+03 -8.56488E+03
  8.46172E+03 -4.91716E+03  9.35828E+03 -6.21859E+02  7.19501E+03  5.32664E+03  5.42901E+02  9.25307E+03
 -4.30475E+03  7.30833E+03 -5.25147E+03  1.10245E+03 -2.25250E+03 -8.06237E+02 -7.72510E+02 -1.07341E+03
  1.21966E+03  8.09744E+02 -6.71371E+02  1.43139E+03 -3.41140E+03  2.80328E+03 -5.09966E+03 -9.80570E+02
 -3.14669E+03 -4.87317E+03  1.80508E+03 -6.58546E+03  3.64038E+03 -5.71419E+03  7.18233E+03 -1.42572E+03
  6.95077E+03  4.76005E+03  3.35498E+03  5.59176E+03 -7.77968E+02  6.51526E+03 -5.61664E+03  3.18524E+03
 -6.18461E+03  3.19057E+02 -6.06924E+03 -4.53179E+03 -8.43697E+02 -4.97205E+03  3.29300E+03 -3.17102E+03
  3.36644E+03 -1.19567E+03  2.12186E+03  1.51706E+03  2.01572E+03  1.88908E+03  1.44345E+03  1.71701E+02
  3.58848E+03  4.83508E+02  1.87611E+03  2.36864E+03  1.86065E+03  3.92429E+03  2.02610E+03  2.34252E+03
 -9.07943E+02  5.73862E+03 -4.03786E+03  5.01703E+03 -4.97706E+03  1.10232E+03 -6.88200E+03 -3.44364E+03
 -1.94485E+03 -5.51304E+03  1.17823E+03 -7.85845E+03  3.75432E+03 -4.45144E+03  4.95336E+03 -1.23926E+03
  3.16749E+03  2.26560E+03  6.21825E+02  2.98636E+03 -1.41443E+03  3.01489E+03 -1.66518E+03 -9.76196E+01
 -1.12339E+03 -3.35855E+03  1.63126E+03 -2.86875E+03  2.05698E+03 -7.84759E+02  2.20806E+03 -8.67558E+02
  1.90534E+03  2.26826E+02  5.43821E+02  2.07870E+02 -1.00625E+03  6.58207E+02  2.24481E+03 -1.07081E+03
  9.96072E+02  9.20776E+01  2.36935E+03  5.30673E+02  6.45813E+02  1.92764E+03 -2.97534E+02  4.31427E+03
 -3.06461E+03  3.87224E+03 -2.75356E+03  1.70907E+03 -2.93791E+03 -6.86883E+02 -8.12325E+02 -2.23212E+03
  9.30894E+02 -1.89335E+03  1.77212E+03 -1.10236E+03  3.21252E+02  1.19424E+03 -1.19383E+03  1.38892E+03
 -2.37077E+03  1.76419E+03 -2.74242E+03 -2.98468E+03 -1.85750E+03 -4.23496E+03  2.68267E+01 -3.27490E+03
  1.81058E+03 -1.27744E+03  1.42179E+03 -1.89782E+02  1.44186E+03 -5.28184E+02  3.05945E+02  2.09224E+03
 -5.37032E+02  4.75714E+02 -9.84610E+02 -1.14548E+03  1.57552E+03 -1.25222E+03  2.93154E+03 -2.14946E+03
  2.85549E+03  2.62258E+02  4.22224E+03  1.94734E+03  1.07682E+03  3.32500E+03 -1.14559E+03  3.73313E+03
 -3.18019E+03  1.53854E+03 -2.64423E+03  6.04177E+01 -1.38049E+03 -4.04118E+03  4.72793E+02 -1.47809E+03
  3.76236E+03 -2.07183E+03  2.49433E+03  3.06714E+02  1.54763E+02  2.02698E+03 -8.66295E+02  1.39871E+03
 -3.65791E+02  1.73090E+03 -1.96258E+03  2.15252E+02  1.83304E+02  8.88865E+02 -7.25694E+02  1.14576E+03
 -6.49162E+02  2.17915E+03 -3.69635E+03  1.43869E+03 -3.90650E+03 -4.96221E+02 -4.29670E+03 -9.75609E+02
 -2.09641E+03 -3.90969E+03  2.70100E+03 -4.22021E+03  2.98481E+03 -3.96706E+03  5.72489E+03 -1.57860E+03
  6.05238E+03  1.01047E+03  1.37444E+03  2.49827E+03 -2.67661E+02  1.40027E+03 -1.17994E+03  2.96927E+03
 -2.29123E+03  1.68895E+03  8.16151E+02  1.05434E+02 -4.35994E+02 -9.43847E+02 -2.77183E+00 -5.86742E+01
 -7.57165E+02  9.95111E+02 -1.69710E+03  1.91530E+02 -2.70954E+02 -2.02291E+03 -6.73867E+02 -1.76317E+03
  2.47830E+03 -1.47397E+03  1.21905E+03  1.86323E+02  2.43798E+03  2.37966E+03 -9.70645E+02  4.39777E+03
 -1.21515E+03  4.26218E+03 -2.94533E+03  1.71912E+03 -4.86174E+03 -7.95041E+02 -3.47960E+03 -2.44237E+03
 -1.65289E+03 -3.36794E+03  9.08275E+02 -3.31972E+03  8.00791E+02 -1.35019E+03  2.30542E+03  1.50907E+03
  1.41231E+03  5.11653E+02  9.08296E+02 -3.31500E+02 -1.29289E+03 -9.35038E+02 -1.56831E+03 -1.16020E+03
  1.45202E+03 -3.36612E+02  1.64312E+03  3.35662E+02 -1.38704E+02  1.10884E+03 -2.63491E+01  4.17607E+02
 -1.05468E+03  1.38380E+03 -8.98771E+02  1.41525E+02 -1.41461E+03 -1.13826E+03  3.90201E+02 -2.63487E+03
  1.73193E+03 -2.25060E+03  1.28396E+03 -8.97823E+02  1.74998E+03 -4.07246E+02  1.21639E+03  1.80227E+03
  1.55059E+03 -9.15884E+00 -8.51827E+02  1.14718E+03 -1.19189E+03  1.07662E+03 -4.34429E+02 -5.15316E+02
 -1.94445E+03 -1.75637E+02 -5.02735E+02 -7.29625E+02 -1.30305E+03  8.00910E+02 -1.37487E+03 -9.51632E+02
 -1.64096E+03  1.13702E+03 -1.05486E+02 -1.13844E+03  1.38550E+03 -1.51544E+03  1.78951E+03 -1.21709E+03
  2.54281E+03  7.47506E+02  1.22614E+02  1.33559E+03 -1.23256E+03  2.21126E+03  1.46038E+02  8.67793E+02
