 $NMID ID='MM_0lb_SNR200_10hz_g55_80.RAW', FMTDAT='(8E13.5)'
 TRAMP=1., VOLUME=1. $END
  3.08567E+05  2.80228E+03  3.37442E+05  2.50606E+05  8.52320E+04  3.37746E+05 -1.31380E+05  2.53263E+05
 -1.90647E+05  8.49208E+04 -1.12478E+05 -3.16180E+04  1.18621E+01 -5.02958E+04  5.19125E+04 -1.17226E+02
  3.67996E+04  5.19946E+04 -1.58458E+04  7.45096E+04 -6.13287E+04  6.39584E+04 -8.68107E+04  3.32558E+04
 -8.30978E+04 -1.18825E+04 -5.74899E+04 -4.99252E+04 -1.60340E+04 -7.17589E+04  2.90260E+04 -4.73464E+04
  4.01748E+04  3.04790E+03  1.64981E+04  4.95501E+04 -3.51804E+04  4.76499E+04 -6.77807E+04 -1.67991E+02
 -5.40843E+04 -5.74397E+04 -6.90759E+03 -7.91788E+04  3.53029E+04 -5.82796E+04  4.95584E+04 -1.88105E+04
  4.49515E+04  1.17554E+04  3.26725E+04  2.63089E+04  1.58246E+04  3.08221E+04 -4.97891E+03  2.83908E+04
 -2.25843E+04  1.19395E+04 -2.00492E+04 -4.83323E+03  7.69729E+03 -8.47226E+03  2.42156E+04  1.24754E+04
  7.35255E+03  3.88747E+04 -3.26097E+04  3.61754E+04 -6.58004E+04  8.86962E+02 -5.84191E+04 -4.58754E+04
 -1.27068E+04 -6.66331E+04  4.18525E+04 -4.71139E+04  5.94435E+04 -2.53003E+03  3.66350E+04  3.66628E+04
 -6.37266E+03  3.85955E+04 -3.26129E+04  1.90021E+04 -3.32287E+04 -3.75817E+03 -1.94236E+04 -1.09562E+04
 -1.02792E+04 -1.38106E+04 -5.43062E+02 -1.97370E+04  8.42530E+03 -2.32813E+04  1.73841E+04 -1.10794E+04
  1.14181E+04  5.62937E+03 -1.12380E+04  1.39206E+04 -2.29135E+04 -6.58623E+03 -7.10065E+03 -3.74033E+04
  2.41310E+04 -4.89492E+04  5.45137E+04 -2.00253E+04  4.83278E+04  1.95202E+04  1.74252E+04  4.72667E+04
 -1.83124E+04  3.76534E+04 -2.77082E+04  1.41659E+03 -1.16475E+04 -2.98771E+04  2.11933E+04 -3.58408E+04
  4.43322E+04 -1.03825E+04  4.06018E+04  2.51248E+04  2.14781E+04  5.15388E+04 -9.25644E+03  5.42526E+04
 -3.56712E+04  3.83397E+04 -4.57412E+04  9.92479E+03 -4.71595E+04 -1.88224E+04 -2.47766E+04 -4.12116E+04
  8.77038E+03 -4.29924E+04  3.35733E+04 -1.72110E+04  3.17958E+04  1.27011E+04  6.56789E+03  2.06647E+04
 -1.46518E+04  9.82116E+03 -1.13263E+04 -7.98333E+03  5.95741E+03 -1.01247E+04  1.87121E+04  5.65415E+03
  1.41127E+04  2.19126E+04 -5.49161E+03  2.71986E+04 -2.37454E+04  1.47774E+04 -3.06254E+04 -2.85252E+03
 -2.43213E+04 -1.86093E+04 -1.18508E+04 -2.51531E+04  4.46781E+03 -2.54807E+04  1.98254E+04 -2.23362E+04
  3.28123E+04 -1.51689E+04  3.67750E+04  3.86086E+03  2.73111E+04  2.43662E+04  4.62952E+03  4.12798E+04
 -1.84059E+04  3.41595E+04 -2.98076E+04  1.28363E+04 -1.98288E+04 -1.14046E+04 -4.42330E+03 -1.27754E+04
 -4.03618E+01 -1.12732E+03 -7.70455E+03  9.00992E+03 -2.07442E+04  5.39449E+03 -1.86544E+04 -9.71335E+03
 -1.14486E+04 -2.32003E+04  5.70575E+03 -2.70151E+04  1.68023E+04 -1.96121E+04  2.23689E+04 -2.89118E+03
  1.52563E+04  1.52829E+04 -2.36765E+03  2.25016E+04 -1.67203E+04  1.31935E+04 -2.31425E+04 -4.64286E+03
 -1.69874E+04 -2.18234E+04 -2.44735E+03 -2.68351E+04  1.20420E+04 -2.28421E+04  2.25160E+04 -1.26293E+04
  2.09648E+04  3.73234E+01  1.58046E+04  4.88584E+03  9.51703E+03  1.58959E+03  1.19332E+04 -2.50569E+03
  2.05333E+04  3.68608E+03  2.33319E+04  1.73825E+04  1.54157E+04  3.62591E+04 -6.55453E+02  4.44273E+04
 -2.47559E+04  3.68817E+04 -4.02977E+04  1.84054E+04 -4.28682E+04 -1.80583E+03 -3.49461E+04 -2.53068E+04
 -1.44322E+04 -3.70210E+04  1.29596E+04 -3.26535E+04  2.76565E+04 -1.55081E+04  2.31815E+04  7.71762E+03
  8.78346E+03  1.81017E+04 -1.00451E+04  1.60382E+04 -1.86839E+04  4.38704E+03 -1.45431E+04 -1.25861E+04
 -4.58868E+02 -1.96905E+04  1.05367E+04 -1.32502E+04  1.31202E+04 -9.72625E+02  2.84293E+03  8.92343E+03
 -7.83188E+03  4.46175E+03 -8.06805E+03 -6.86568E+03 -6.10573E+02 -1.96788E+04  1.17352E+04 -1.88459E+04
  2.18870E+04 -1.13122E+04  2.53268E+04  3.97751E+03  2.42478E+04  1.93350E+04  9.91400E+03  2.82896E+04
 -4.72517E+03  2.80171E+04 -2.02708E+04  1.72957E+04 -2.22139E+04  4.02548E+03 -1.37388E+04 -6.73472E+03
 -7.02334E+03 -5.10753E+03  5.21870E+02  3.92708E+02 -2.41526E+03  3.42884E+03 -7.59408E+03  4.81050E+03
 -1.57649E+04  1.80600E+02 -1.48462E+04 -1.11748E+04 -4.65597E+03 -1.86142E+04  5.30065E+03 -1.56177E+04
  1.30779E+04 -5.51688E+03  7.93538E+03  4.69551E+03 -1.13476E+03  5.36836E+03 -6.61370E+03  8.14289E+02
 -7.21587E+03 -7.88935E+03 -1.13087E+03 -1.37630E+04  9.12391E+03 -1.74650E+04  1.90290E+04 -7.10464E+03
  2.17670E+04  1.50391E+03  1.47315E+04  1.27921E+04  2.70010E+03  1.87342E+04 -1.00027E+04  1.52692E+04
 -1.24194E+04  4.60085E+03 -5.04894E+03 -2.72717E+03  2.07167E+03 -5.32092E+03  7.95906E+03 -6.00427E+02
  6.82781E+03  5.97929E+03  1.40417E+03  1.30790E+04 -9.95279E+03  1.18865E+04 -1.39593E+04  2.02943E+03
 -9.82318E+03 -7.11238E+03  9.73296E+02 -1.31353E+04  8.78051E+03 -6.88761E+03  9.53418E+03  3.19771E+03
  1.29789E+03  1.01171E+04 -6.64981E+03  9.97335E+03 -1.39072E+04  5.98173E+03 -1.30332E+04 -4.65199E+03
 -7.94976E+03 -1.52084E+04  3.51257E+03 -1.91974E+04  1.39690E+04 -8.35331E+03  1.52237E+04  2.59090E+03
  1.06686E+04  1.30914E+04 -1.05390E+03  1.41679E+04 -1.22714E+04  8.68455E+03 -1.16966E+04  1.12263E+02
 -1.04122E+04 -9.11219E+03 -6.99352E+02 -1.08057E+04  5.76498E+03 -8.41903E+03  5.98915E+03 -2.28704E+03
  3.86149E+03  1.15881E+03 -2.51235E+02  3.22526E+03 -8.66051E+02 -4.12392E+03  3.53304E+03 -7.18268E+03
  1.21985E+04 -4.13519E+03  1.38258E+04  2.38224E+03  1.51991E+04  1.05460E+04  9.16647E+03  1.93386E+04
 -5.07191E+03  2.18037E+04 -1.86948E+04  1.77690E+04 -2.53864E+04  3.68321E+03 -1.96576E+04 -9.10448E+03
 -9.89839E+03 -1.61703E+04 -2.14931E+02 -1.27409E+04  3.53962E+03 -8.22448E+03  4.20525E+03 -4.65629E+03
  4.79147E+03 -3.24846E+03  3.85051E+03 -5.09807E+03  6.00150E+03 -3.52582E+03  7.31979E+03 -1.55644E+03
  1.07031E+04  2.07995E+03  5.24215E+03  9.16557E+03 -1.64228E+03  1.20979E+04 -1.18348E+04  8.87354E+03
 -1.43534E+04 -1.53756E+03 -9.96293E+03 -9.17121E+03 -1.07860E+03 -1.45095E+04  9.03836E+03 -1.57516E+04
  1.42274E+04 -8.54633E+03  1.80110E+04  2.29966E+03  1.22302E+04  1.21048E+04  1.81589E+03  1.71388E+04
 -6.34776E+03  1.18416E+04 -9.17458E+03  6.26134E+03 -5.48757E+03 -1.95025E+03 -2.47964E+03 -1.29092E+03
 -9.12645E+02 -1.07294E+03 -3.06207E+03  2.09065E+03 -4.78091E+03  2.66627E+03 -9.20381E+03 -2.65885E+03
 -6.86631E+03 -1.05160E+04 -9.39269E+02 -1.26583E+04  7.90657E+03 -1.28447E+04  1.31178E+04 -3.73263E+03
  1.40658E+04  7.00274E+03  5.55397E+03  1.15773E+04 -1.30997E+03  1.48775E+04 -1.01811E+04  1.09806E+04
 -1.17299E+04  1.00803E+03 -7.87131E+03 -7.53705E+03 -1.34931E+03 -1.24154E+04  4.44727E+03 -9.16908E+03
  1.12438E+04 -4.53150E+03  6.65635E+03  2.01441E+03  2.56323E+03  3.71132E+03  2.64947E+02  1.58292E+03
  2.57245E+03  1.81713E+03  2.40697E+03  3.32968E+02  4.59834E+03  4.42118E+03  3.64067E+03  9.05027E+03
 -2.28157E+03  9.59208E+03 -1.04988E+04  1.15747E+04 -1.49959E+04  1.38433E+03 -1.38184E+04 -5.42955E+03
 -6.37814E+03 -1.43500E+04  5.07423E+02 -1.48054E+04  8.89261E+03 -9.17586E+03  1.21609E+04 -3.75206E+03
  8.47682E+03  6.77339E+03  3.11357E+03  9.13091E+03 -3.12027E+03  4.90131E+03 -5.10756E+03 -6.75245E+02
 -1.81972E+03 -5.52311E+03  3.03497E+03 -6.87206E+03  5.88685E+03 -3.39201E+03  6.29893E+03  1.88571E+03
  1.23321E+03  1.57683E+03 -6.34415E+01  2.17298E+03 -1.84403E+03  3.20166E+03  8.79699E+02  4.49099E+02
  3.07734E+03 -2.13350E+03  5.52590E+03  1.69749E+03  3.62881E+03  7.53468E+03  4.49675E+01  9.78640E+03
 -6.27089E+03  6.35181E+03 -7.65830E+03  2.10769E+03 -7.04638E+03 -2.39464E+03 -5.11607E+03 -5.11406E+03
  2.61846E+03 -5.95288E+03  3.21094E+03 -2.65020E+03  2.31788E+03  4.15042E+03  9.77830E+01  5.15343E+03
 -7.40773E+03  2.04108E+03 -8.85864E+03 -2.99882E+03 -3.36118E+03 -7.60635E+03  2.17626E+03 -6.42292E+03
  4.16955E+03 -2.80247E+03  5.38508E+03 -1.21780E+01  5.11480E+03  2.73339E+03  7.96721E+02  3.67991E+03
 -1.79950E+03 -3.25775E+02 -3.35908E+03 -2.35524E+03  2.37493E+03 -5.77936E+03  5.75122E+03 -4.31775E+03
  8.35692E+03  1.91681E+03  8.31418E+03  5.02391E+03  2.40002E+03  7.21711E+03 -3.52056E+03  1.02861E+04
 -8.49920E+03  4.89560E+03 -6.32134E+03 -1.53795E+03 -2.47570E+03 -4.72503E+03  2.06697E+03 -5.74425E+03
  6.51560E+03 -2.60702E+03  4.46313E+03  1.85945E+03  1.09634E+03  4.35669E+03  5.24003E+02  5.04154E+03
 -1.92891E+03  2.56457E+03 -1.73546E+03  3.46324E+02 -4.02401E+02  2.09616E+03 -3.25974E+03 -2.77349E+01
 -1.21024E+03  1.51755E+03 -6.98123E+03  3.13465E+03 -8.96142E+03  1.00587E+03 -9.22641E+03 -4.83110E+03
 -5.57761E+03 -1.15824E+04  3.47010E+03 -1.40871E+04  8.31816E+03 -9.46822E+03  1.14165E+04 -4.11112E+03
  1.25653E+04  2.36488E+03  7.22354E+03  7.88892E+03  6.89096E+02  9.63814E+03 -3.29140E+03  7.52900E+03
 -5.14850E+03  2.47410E+03 -2.34303E+03 -1.58036E+03 -3.61056E+02 -1.44083E+03 -1.14462E+02 -2.36749E+02
 -6.55322E+02  7.41956E+02 -2.86383E+03  7.44508E+01 -1.73216E+03 -3.08077E+03  5.51607E+01 -3.35167E+03
  3.76283E+03 -4.29910E+03  5.09417E+03  1.11146E+03  7.28839E+03  6.33847E+03  5.25019E+02  9.32420E+03
 -5.09245E+03  1.01607E+04 -7.69745E+03  5.95426E+03 -1.11378E+04 -5.38387E+02 -7.46948E+03 -6.78866E+03
 -2.97971E+03 -8.09789E+03  1.98132E+03 -8.79786E+03  6.75814E+03 -3.38426E+03  6.21553E+03  1.42045E+03
  3.95393E+03  2.23483E+03  4.42240E+02  2.31934E+03 -7.14666E+02  5.74529E+02  6.31893E+02 -5.57451E+02
  2.45428E+03 -2.54285E+03  3.74363E+03  1.95434E+03  2.15602E+03  4.61899E+03 -5.42670E+01  3.56165E+03
 -3.77074E+03  4.07024E+03 -5.89717E+03  1.73080E+03 -5.59949E+03 -3.06925E+03 -1.26178E+03 -9.45962E+03
  3.55159E+03 -5.68320E+03  7.05859E+03 -7.93757E+02  7.36154E+03  2.35594E+01  3.67798E+03  6.41974E+03
  6.55546E+02  4.62484E+03 -2.45438E+03  3.43247E+03 -4.41867E+03  2.98045E+03 -3.35649E+03  4.95970E+02
 -1.79273E+03 -3.01839E+02 -1.23742E+03  3.64739E+02 -3.90466E+03  1.98672E+03 -4.18506E+03 -1.75422E+03
 -5.05211E+03 -4.25886E+03  5.44212E+02 -5.39979E+03  3.08820E+03 -5.96434E+03  4.52372E+03 -4.11332E+03
  5.31562E+03  1.00948E+03  4.89500E+03  3.83953E+03 -2.70771E+02  5.40926E+03 -4.96225E+03  2.40647E+03
