 $NMID ID='MM_0lb_SNR200_13hz_g45_98.RAW', FMTDAT='(8E13.5)'
 TRAMP=1., VOLUME=1. $END
  3.09530E+05 -3.92212E+02  3.40076E+05  2.51839E+05  8.55781E+04  3.37381E+05 -1.32495E+05  2.50616E+05
 -1.90155E+05  8.33387E+04 -1.11382E+05 -3.21689E+04  1.64316E+03 -5.10394E+04  5.34376E+04 -1.00608E+03
  3.50157E+04  5.40817E+04 -1.84914E+04  7.52615E+04 -6.12967E+04  6.35687E+04 -8.29971E+04  3.25172E+04
 -8.14106E+04 -1.27899E+04 -5.76356E+04 -5.12176E+04 -1.52971E+04 -6.96370E+04  2.88487E+04 -4.52074E+04
  4.10010E+04  3.78713E+03  1.59535E+04  4.84784E+04 -3.35852E+04  4.73190E+04 -6.72205E+04  5.11572E+02
 -5.28210E+04 -5.74617E+04 -6.45947E+03 -7.60842E+04  3.32796E+04 -5.54092E+04  4.79635E+04 -1.87537E+04
  4.32200E+04  1.17056E+04  3.38839E+04  2.53429E+04  1.63278E+04  2.94426E+04 -5.02959E+03  2.79975E+04
 -2.13369E+04  1.25406E+04 -1.81422E+04 -5.27061E+03  5.76839E+03 -7.34078E+03  2.19454E+04  1.35346E+04
  5.67114E+03  3.48302E+04 -3.32452E+04  3.62554E+04 -6.37496E+04  2.17833E+03 -5.77705E+04 -4.40584E+04
 -1.27029E+04 -6.26853E+04  3.98149E+04 -4.61044E+04  5.72537E+04 -2.16992E+03  3.52023E+04  3.37653E+04
 -5.19343E+03  3.62128E+04 -3.19732E+04  1.60735E+04 -2.99559E+04 -5.53865E+03 -1.57506E+04 -1.10329E+04
 -8.96097E+03 -1.39823E+04 -1.01023E+03 -1.81031E+04  6.96577E+03 -2.36359E+04  1.63113E+04 -1.37995E+04
  1.19491E+04  4.79357E+03 -8.16523E+03  1.29656E+04 -2.03752E+04 -5.09318E+03 -7.97782E+03 -3.30635E+04
  2.19161E+04 -4.29065E+04  4.91899E+04 -2.06717E+04  4.61850E+04  1.94434E+04  1.60321E+04  4.42284E+04
 -1.58015E+04  3.24693E+04 -2.57580E+04  2.31168E+03 -1.01076E+04 -2.80848E+04  2.07854E+04 -3.46289E+04
  4.11315E+04 -9.53812E+03  3.63764E+04  2.43817E+04  1.87430E+04  4.53117E+04 -8.10381E+03  4.89325E+04
 -3.18070E+04  3.42186E+04 -4.18138E+04  1.07590E+04 -4.24329E+04 -1.76174E+04 -2.39488E+04 -3.85127E+04
  7.96280E+03 -3.75193E+04  3.29212E+04 -1.44987E+04  2.86237E+04  1.00209E+04  5.00654E+03  1.95559E+04
 -1.33191E+04  9.08880E+03 -1.10800E+04 -7.51333E+03  7.51786E+03 -1.12022E+04  1.85191E+04  5.64420E+03
  1.38392E+04  2.25553E+04 -6.18504E+03  2.54320E+04 -2.37827E+04  1.13838E+04 -2.89241E+04 -3.88962E+03
 -2.11471E+04 -1.68506E+04 -9.45391E+03 -2.09875E+04  5.55246E+03 -2.11692E+04  1.64373E+04 -1.95899E+04
  2.64918E+04 -1.28120E+04  3.33020E+04  3.57665E+03  2.40684E+04  1.86689E+04  5.13848E+03  3.69788E+04
 -1.80702E+04  3.00815E+04 -2.71703E+04  9.68971E+03 -2.10772E+04 -1.07592E+04 -3.65064E+03 -1.38751E+04
  1.94726E+03 -2.27026E+03 -4.86985E+03  6.58842E+03 -1.70690E+04  5.82082E+03 -1.62090E+04 -7.29201E+03
 -1.08061E+04 -2.02490E+04  4.63925E+03 -2.31208E+04  1.43845E+04 -1.68244E+04  1.79407E+04 -1.49130E+03
  1.23207E+04  1.36341E+04 -1.27371E+03  2.03954E+04 -1.51826E+04  1.22407E+04 -1.94798E+04 -3.55912E+03
 -1.38389E+04 -1.69927E+04 -7.28774E+02 -2.36787E+04  9.91418E+03 -2.14518E+04  2.00263E+04 -8.72544E+03
  1.71451E+04  2.09200E+03  1.28634E+04  5.09489E+03  7.67442E+03  1.15898E+03  8.79622E+03 -1.68973E+03
  1.83613E+04  2.86680E+03  1.98165E+04  1.56643E+04  1.36057E+04  3.13210E+04 -2.54245E+03  3.44033E+04
 -2.02172E+04  2.82209E+04 -3.22286E+04  1.35408E+04 -3.40051E+04 -2.86122E+03 -2.91962E+04 -2.02973E+04
 -1.19406E+04 -2.84196E+04  1.04628E+04 -2.63009E+04  2.12663E+04 -1.22180E+04  1.91740E+04  6.51964E+03
  6.71472E+03  1.53564E+04 -9.95447E+03  1.25505E+04 -1.65897E+04  2.96146E+03 -1.34295E+04 -1.11328E+04
 -6.05752E+02 -1.60583E+04  8.59119E+03 -1.21383E+04  1.08361E+04 -2.04642E+03  1.87729E+03  7.81249E+03
 -7.91052E+03  3.76604E+03 -6.25042E+03 -5.07189E+03 -3.49648E+02 -1.28258E+04  9.63860E+03 -1.49143E+04
  1.89896E+04 -8.65197E+03  1.84782E+04  2.67948E+03  1.70599E+04  1.24368E+04  8.17684E+03  2.08998E+04
 -2.78391E+03  2.28969E+04 -1.40132E+04  1.47836E+04 -1.78503E+04  4.14506E+03 -1.08465E+04 -3.26011E+03
 -6.76017E+03 -5.67048E+03 -1.48651E+03  1.43579E+03 -2.54663E+03  2.49472E+03 -6.45811E+03  5.44288E+03
 -1.00696E+04 -1.00078E+03 -1.14663E+04 -8.99055E+03 -4.87961E+03 -1.50467E+04  5.02460E+03 -1.01238E+04
  9.49530E+03 -3.92665E+03  7.12464E+03  2.09212E+03 -1.59414E+02  4.87190E+03 -4.88359E+03 -1.53411E+03
 -5.06493E+03 -7.76919E+03 -7.93597E+02 -1.07774E+04  6.81117E+03 -1.21512E+04  1.45992E+04 -6.51817E+03
  1.80577E+04  1.51400E+03  1.12897E+04  1.03232E+04  3.23986E+03  1.25117E+04 -6.92100E+03  9.80854E+03
 -1.07023E+04  3.10220E+03 -5.91789E+03 -1.46534E+03  2.83276E+03 -2.37047E+03  6.19761E+03 -3.11685E+02
  6.54406E+03  4.92331E+03  4.14324E+02  9.12269E+03 -5.39377E+03  8.60871E+03 -1.03433E+04  2.79861E+03
 -6.39189E+03 -4.86714E+03  2.86260E+02 -9.64323E+03  4.60892E+03 -4.12695E+03  4.61897E+03  2.89853E+03
  1.39981E+03  7.24266E+03 -6.24030E+03  8.45850E+03 -8.41388E+03  2.98511E+03 -9.33240E+03 -3.65081E+03
 -3.95783E+03 -1.05275E+04  2.62247E+03 -1.23982E+04  1.05205E+04 -7.15398E+03  1.11838E+04  4.61757E+02
  6.80132E+03  1.01958E+04  6.45773E+02  1.11686E+04 -8.22727E+03  6.02938E+03 -1.04065E+04 -1.05578E+03
 -7.75432E+03 -7.59025E+03 -1.32104E+03 -8.23293E+03  3.37933E+03 -7.25270E+03  6.29472E+03 -2.61264E+03
  3.45417E+03  1.48409E+03 -8.37168E+02  2.06762E+03  2.01475E+02 -1.33799E+03  2.36245E+03 -5.56958E+03
  7.78810E+03 -4.28870E+03  1.04828E+04  3.22513E+03  1.00632E+04  7.20894E+03  8.38678E+03  1.21996E+04
 -2.33303E+03  1.59436E+04 -1.37732E+04  1.24930E+04 -1.68615E+04  2.26741E+03 -1.33482E+04 -5.75832E+03
 -6.82916E+03 -1.09102E+04 -1.41149E+03 -8.23403E+03  2.40269E+03 -5.15761E+03  2.31842E+03 -4.54369E+03
  1.43223E+03 -3.29134E+03  3.87939E+03 -2.27533E+03  5.20061E+03 -2.14534E+03  5.20420E+03 -5.34377E+02
  7.82866E+03  6.08277E+02  2.42146E+03  5.61174E+03 -3.63270E+03  7.11895E+03 -8.54029E+03  5.61037E+03
 -9.03073E+03 -8.19054E+02 -4.56292E+03 -5.67685E+03 -1.41569E+03 -9.82041E+03  6.03634E+03 -1.06287E+04
  9.77313E+03 -6.33222E+03  1.24066E+04  1.27311E+03  7.72440E+03  7.95775E+03  1.94675E+03  1.21044E+04
 -5.09230E+03  1.00070E+04 -7.10124E+03  2.32540E+03 -4.41514E+03  9.90185E+02 -1.16299E+03 -3.92536E+02
 -6.96043E+02 -2.31712E+02 -2.22456E+03  1.38304E+03 -3.56549E+03  1.94935E+03 -6.85408E+03 -1.10228E+03
 -3.08856E+03 -6.75065E+03  8.92873E+02 -8.26413E+03  5.61017E+03 -8.31117E+03  7.58520E+03 -2.43875E+03
  8.71863E+03  4.05093E+03  3.35978E+03  8.08872E+03 -2.56597E+03  8.37422E+03 -7.03871E+03  5.05802E+03
 -7.98536E+03  2.49439E+02 -6.02111E+03 -4.16117E+03 -1.07219E+03 -5.46383E+03  2.11871E+03 -5.53158E+03
  6.65635E+03 -1.96382E+03  3.91148E+03  1.27675E+03  1.18104E+03  2.57836E+03  1.23928E+03  7.17495E+02
  1.24506E+03  8.62866E+02  1.67402E+03 -7.55040E+01  1.92249E+03  3.39719E+03  2.20917E+03  3.26218E+03
 -1.95331E+03  6.29414E+03 -6.34940E+03  8.61342E+03 -7.55017E+03  1.85995E+03 -8.65091E+03 -1.28817E+03
 -3.98194E+03 -9.00737E+03 -1.10800E+02 -8.62671E+03  5.42656E+03 -5.51354E+03  6.84131E+03 -2.77785E+03
  5.87929E+03  3.83708E+03 -2.71963E+02  4.50607E+03 -1.93362E+03  1.29396E+03 -3.50597E+03 -1.60643E+03
 -1.52912E+03 -3.33735E+03  1.45280E+03 -3.84023E+03  3.30212E+03 -1.64755E+03  2.26497E+03 -1.60921E+02
  2.13503E+03  8.68278E+02  1.05398E+03  2.04011E+03  2.01703E+02  1.19642E+03  1.83478E+03 -1.44603E+03
  1.00447E+03 -4.65030E+02  2.78288E+03  7.57056E+02  8.58006E+02  4.98969E+03 -8.41649E+02  6.02446E+03
 -5.10508E+03  2.64069E+03 -5.02468E+03  8.08551E+02 -3.91500E+03 -4.82479E+02 -1.02736E+03 -2.92615E+03
  3.75305E+02 -4.35162E+03  2.98759E+03 -1.44008E+03  1.77579E+03  1.47118E+03 -1.03781E+03  2.18712E+03
 -2.78995E+03  1.18846E+03 -2.91512E+03 -1.95200E+03 -2.42047E+03 -5.84511E+03  4.08735E+02 -4.06535E+03
  2.42329E+03 -8.71887E+02  1.33387E+03  1.51731E+02  3.24772E+03  4.18251E+02  5.60665E+02  2.51446E+03
 -1.20925E+03  8.59992E+02 -1.73199E+03 -9.69607E+02  1.41301E+03 -3.48837E+03  3.93048E+03 -3.20947E+03
  4.89574E+03  1.09253E+03  4.99080E+03  2.00731E+03  2.62351E+03  5.23709E+03 -2.46210E+02  5.95845E+03
 -3.56030E+03  3.74745E+03 -5.54743E+03 -1.13372E+03 -2.08133E+03 -3.65919E+03  1.18945E+03 -2.51293E+03
  2.40841E+03 -2.31724E+03  4.19911E+03  7.97008E+02  7.89636E+02  3.43848E+03  4.76142E+02  2.31206E+03
 -6.67067E+02  1.71502E+03 -1.85716E+03  9.69870E+02 -3.88929E+02  1.59206E+03 -8.70259E+02  1.51029E+03
  2.91161E+02  1.91046E+03 -4.95794E+03  1.07549E+03 -5.82066E+03 -4.87300E+02 -4.01001E+03 -2.81664E+03
 -3.16930E+03 -5.92866E+03  1.40503E+03 -7.88425E+03  4.16383E+03 -6.33563E+03  7.49414E+03 -2.27530E+03
  7.11495E+03  3.23902E+01  3.76170E+03  4.17581E+03 -9.13094E+02  5.06918E+03 -2.45578E+03  4.24709E+03
 -3.51056E+03  1.32482E+03 -3.66858E+02 -7.86464E+02 -4.61500E+02  1.11474E+02 -4.56260E+02  1.76705E+03
 -7.90165E+02  7.87649E+02 -1.52962E+03  5.15408E+02 -1.05589E+03 -1.42375E+03 -4.29198E+02 -2.12772E+03
  3.19160E+03 -8.10354E+02  3.47494E+03  4.78846E+02  3.25764E+03  2.89490E+03 -1.80138E+03  3.81232E+03
 -2.10283E+03  5.50894E+03 -4.59484E+03  2.87429E+03 -5.59681E+03 -6.20050E+02 -3.62442E+03 -4.33923E+03
 -9.94381E+02 -3.68012E+03  9.61845E+02 -3.65589E+03  3.85346E+03 -3.32197E+03  1.77621E+03 -5.39748E+02
  1.40379E+03  3.08429E+02  1.03572E+03  9.83726E+02 -1.56814E+02 -7.29398E+02 -2.93202E+02 -7.75662E+02
  1.25920E+03  8.04540E+02  1.32700E+03  6.16817E+02  1.33716E+03  1.04723E+03  7.97764E+02  2.24618E+03
 -1.43440E+03  2.90648E+03 -3.28402E+03  8.90171E+02 -1.88860E+03 -1.44749E+03 -1.00559E+03 -2.70409E+03
  2.58563E+03 -3.08775E+03  1.15894E+03 -1.37641E+03  4.24827E+03 -1.16384E+01  1.88664E+03  1.78368E+03
  6.13792E+02  2.82640E+03 -1.30748E+03  1.16505E+03 -2.24276E+03  7.69588E+02 -2.08790E+03  1.24772E+03
  8.38039E+01 -3.93491E-01 -9.66597E+02  2.82124E+01 -1.32954E+03 -3.65768E+02 -2.97434E+03  9.67437E+02
 -2.78335E+03 -3.68792E+02 -1.91210E+03 -3.46333E+03  1.70077E+03 -2.26740E+03  2.49183E+03 -2.31064E+03
  2.88057E+03  2.44196E+02  1.07436E+03  8.46243E+02  8.60299E+02  2.55376E+03 -5.71000E+02  2.37070E+03
