 $NMID ID='MM_0lb_SNR200_7hz_g55_6.RAW', FMTDAT='(8E13.5)'
 TRAMP=1., VOLUME=1. $END
  3.09327E+05  1.44758E+03  3.38107E+05  2.49082E+05  8.67722E+04  3.38172E+05 -1.31962E+05  2.50336E+05
 -1.91597E+05  8.35615E+04 -1.12266E+05 -3.19700E+04 -1.33490E+03 -5.19216E+04  5.47350E+04 -2.15223E+03
  3.37355E+04  5.23381E+04 -1.83722E+04  7.60559E+04 -6.16317E+04  6.40913E+04 -8.70217E+04  3.30089E+04
 -8.30069E+04 -1.24494E+04 -5.97950E+04 -5.19499E+04 -1.79909E+04 -7.25199E+04  2.85316E+04 -4.74946E+04
  4.08079E+04  3.32357E+03  1.66734E+04  4.81693E+04 -3.38059E+04  4.95812E+04 -6.74784E+04  2.46134E+03
 -5.48820E+04 -5.87829E+04 -7.69943E+03 -7.97581E+04  3.57697E+04 -5.72204E+04  5.21255E+04 -1.88610E+04
  4.48417E+04  1.21940E+04  3.36794E+04  2.71090E+04  1.54567E+04  3.14968E+04 -5.32368E+03  2.79709E+04
 -2.26717E+04  1.25528E+04 -1.64959E+04 -6.70321E+03  7.73193E+03 -7.76699E+03  2.25931E+04  1.43763E+04
  5.10119E+03  3.84921E+04 -3.72185E+04  3.75869E+04 -6.56840E+04  2.05092E+03 -6.06816E+04 -4.53918E+04
 -1.14009E+04 -6.73807E+04  4.27131E+04 -4.78622E+04  6.42201E+04 -1.78186E+03  3.89410E+04  3.56612E+04
 -4.10823E+03  4.19652E+04 -3.21928E+04  1.99905E+04 -3.56984E+04 -4.22724E+03 -2.06791E+04 -1.10467E+04
 -1.18042E+04 -1.65717E+04 -1.36059E+03 -1.98286E+04  1.08249E+04 -2.37722E+04  1.64072E+04 -1.15249E+04
  9.69645E+03  6.80939E+03 -9.69991E+03  1.37623E+04 -2.43491E+04 -8.64757E+03 -8.54949E+03 -3.92791E+04
  2.71806E+04 -4.89771E+04  5.32073E+04 -1.98866E+04  5.03383E+04  2.13029E+04  1.83169E+04  4.91306E+04
 -1.78091E+04  3.76765E+04 -3.02199E+04  1.11778E+03 -1.26947E+04 -2.92718E+04  2.28176E+04 -3.95684E+04
  4.74386E+04 -1.04353E+04  4.37610E+04  2.56586E+04  2.27207E+04  5.22406E+04 -6.10873E+03  6.14659E+04
 -3.63732E+04  3.95943E+04 -4.97369E+04  1.28035E+04 -5.15714E+04 -1.74565E+04 -2.64467E+04 -4.38059E+04
  8.58997E+03 -4.23909E+04  3.55273E+04 -1.75667E+04  3.46281E+04  1.26270E+04  5.80786E+03  2.05602E+04
 -1.43047E+04  9.58224E+03 -1.21326E+04 -9.61669E+03  5.12296E+03 -1.10539E+04  2.12472E+04  7.09444E+03
  1.53006E+04  2.33377E+04 -4.47324E+03  2.67999E+04 -2.37248E+04  1.50119E+04 -3.28509E+04 -1.14070E+03
 -2.79355E+04 -1.86247E+04 -1.37125E+04 -2.80923E+04  4.63752E+03 -2.99700E+04  2.17690E+04 -2.50843E+04
  3.47536E+04 -1.62087E+04  4.21251E+04  5.63064E+03  2.91541E+04  2.67613E+04  6.15999E+03  4.41327E+04
 -2.06211E+04  3.75152E+04 -3.19939E+04  1.28092E+04 -2.12942E+04 -1.03364E+04 -5.16284E+03 -1.07263E+04
  3.53275E+02  8.86690E+02 -9.15010E+03  9.79079E+03 -2.26023E+04  4.60537E+03 -2.37622E+04 -1.08713E+04
 -1.35855E+04 -2.51114E+04  7.76610E+03 -2.94354E+04  2.00100E+04 -2.31273E+04  2.53403E+04 -2.98789E+03
  1.66248E+04  1.70028E+04 -1.33466E+03  2.61320E+04 -1.60129E+04  1.51004E+04 -2.46226E+04 -5.83277E+03
 -1.92208E+04 -2.23372E+04 -4.01569E+03 -3.16883E+04  1.69628E+04 -2.55621E+04  2.58783E+04 -1.25563E+04
  2.44182E+04  5.63738E+01  1.73229E+04  7.92052E+03  9.40890E+03  2.39964E+03  1.42959E+04 -1.63269E+03
  2.44818E+04  3.72693E+03  2.79319E+04  2.04203E+04  1.85456E+04  4.09630E+04 -1.33681E+03  4.81884E+04
 -2.68864E+04  4.20630E+04 -4.73525E+04  2.07498E+04 -5.14960E+04 -3.23540E+03 -3.99285E+04 -2.95998E+04
 -1.58008E+04 -4.21235E+04  1.50222E+04 -3.78036E+04  3.13012E+04 -1.78337E+04  2.71597E+04  8.51936E+03
  9.36362E+03  2.06891E+04 -1.28451E+04  1.84024E+04 -2.19535E+04  2.59055E+03 -1.61470E+04 -1.54091E+04
  1.09461E+03 -2.06929E+04  1.09594E+04 -1.74164E+04  1.62919E+04 -7.43794E+02  4.32186E+03  9.64703E+03
 -9.25891E+03  5.58356E+03 -1.19972E+04 -8.27550E+03 -1.32636E+03 -1.96066E+04  1.29258E+04 -2.31569E+04
  2.75712E+04 -1.24776E+04  3.12801E+04  1.77269E+03  2.81135E+04  2.02071E+04  1.48995E+04  3.42876E+04
 -6.79266E+03  3.57281E+04 -2.39676E+04  2.26236E+04 -2.66707E+04  3.50838E+03 -1.95668E+04 -7.70084E+03
 -9.31919E+03 -6.11779E+03  6.87740E+02  4.67831E+02 -3.85894E+03  4.18396E+03 -8.47063E+03  6.72262E+03
 -1.76850E+04 -3.73003E+02 -1.67113E+04 -1.38412E+04 -5.21613E+03 -2.06371E+04  7.65114E+03 -1.87825E+04
  1.43930E+04 -8.51404E+03  9.61975E+03  6.84377E+03  3.71762E+02  6.43551E+03 -9.70405E+03  5.73913E+02
 -8.15632E+03 -1.24686E+04 -4.08670E+02 -1.58139E+04  1.05252E+04 -1.92338E+04  2.53287E+04 -9.86852E+03
  2.83068E+04  4.11156E+03  1.99389E+04  1.78867E+04  3.38621E+03  2.20629E+04 -1.05021E+04  1.88726E+04
 -1.44887E+04  5.51872E+03 -7.51425E+03 -4.42864E+03  9.31705E+02 -5.86253E+03  9.93565E+03 -1.48465E+03
  9.55079E+03  7.77975E+03  1.32325E+03  1.51375E+04 -1.19558E+04  1.46242E+04 -1.95344E+04  1.45082E+03
 -1.29902E+04 -1.00770E+04  1.95397E+03 -1.62085E+04  9.26051E+03 -9.54276E+03  1.10992E+04  5.30696E+03
  3.98102E+03  1.42129E+04 -1.09874E+04  1.31059E+04 -1.56002E+04  5.72336E+03 -1.55562E+04 -6.82377E+03
 -1.03894E+04 -1.84102E+04  4.07227E+03 -2.42998E+04  1.94828E+04 -1.29435E+04  2.28718E+04  2.23747E+03
  1.04429E+04  1.79061E+04 -1.68245E+03  1.71992E+04 -1.41215E+04  9.53045E+03 -1.56057E+04 -1.41237E+03
 -1.05440E+04 -1.50670E+04 -1.21074E+03 -1.36894E+04  6.78314E+03 -1.04299E+04  1.00609E+04 -4.38853E+03
  5.60525E+03  3.11278E+03  2.92699E+02  2.43966E+03 -2.58430E+03 -6.18668E+03  2.97258E+03 -9.84073E+03
  1.49903E+04 -4.92314E+03  1.99282E+04  2.81034E+03  1.92483E+04  1.38972E+04  1.09226E+04  2.72316E+04
 -6.82300E+03  2.85972E+04 -2.45859E+04  2.09575E+04 -3.05520E+04  4.01645E+03 -2.67753E+04 -1.13148E+04
 -1.17320E+04 -1.96330E+04  1.35432E+03 -1.72595E+04  6.09016E+03 -1.12611E+04  8.07802E+03 -7.08427E+03
  6.72233E+03 -5.39952E+03  6.35335E+03 -4.96032E+03  4.99776E+03 -5.11650E+03  1.00830E+04 -5.60032E+02
  1.42730E+04  4.49627E+03  7.85554E+03  1.16808E+04 -2.06212E+03  1.35354E+04 -1.29944E+04  9.48592E+03
 -1.85868E+04 -1.42560E+03 -1.28896E+04 -1.32326E+04 -1.87884E+03 -2.13334E+04  1.09017E+04 -2.00100E+04
  2.07739E+04 -1.06445E+04  2.47029E+04  3.00841E+03  1.65138E+04  1.69198E+04  3.95591E+03  2.29026E+04
 -8.32730E+03  1.80722E+04 -1.09490E+04  5.89969E+03 -7.72536E+03 -3.02261E+03 -3.10383E+03  1.97011E+02
 -2.21545E+03 -3.65858E+02 -4.12281E+03  4.75590E+03 -7.23294E+03  3.42630E+03 -1.13982E+04 -3.87444E+03
 -9.38600E+03 -1.15399E+04  4.43794E+02 -2.13707E+04  1.24450E+04 -1.75218E+04  1.87505E+04 -6.94756E+03
  1.84048E+04  1.09583E+04  7.95011E+03  1.66270E+04 -4.26349E+03  1.99711E+04 -1.45235E+04  1.17498E+04
 -2.00920E+04  3.92406E+02 -1.34787E+04 -9.91711E+03 -2.16483E+03 -1.64172E+04  9.93856E+03 -1.19432E+04
  1.33519E+04 -4.09368E+03  1.07569E+04  3.80703E+03  2.81928E+03  4.82861E+03  2.93789E+03  4.38759E+03
  3.89887E+03  8.87388E+02  5.14640E+03  1.43506E+03  5.07527E+03  7.23387E+03  4.57673E+03  8.23023E+03
 -3.85671E+03  1.40684E+04 -1.39422E+04  1.43077E+04 -2.20731E+04  4.13543E+03 -2.23860E+04 -9.88248E+03
 -1.01401E+04 -1.98235E+04  4.20646E+03 -2.22844E+04  1.27184E+04 -1.46898E+04  1.62187E+04 -4.81472E+03
  1.35644E+04  7.34262E+03  2.32038E+03  1.14133E+04 -5.37956E+03  7.64739E+03 -8.50803E+03 -3.21083E+03
 -3.38369E+03 -6.86537E+03  4.95066E+03 -8.24358E+03  8.58070E+03 -3.35216E+03  9.21090E+03 -8.35869E+02
  5.08078E+03  4.24301E+03  1.73041E+03  4.49529E+03 -2.69103E+03  8.69846E+02  6.01965E+02 -1.14392E+03
  3.12758E+03 -2.80402E+03  7.10568E+03  4.11429E+03  5.96027E+03  9.81732E+03 -2.50405E+03  1.25697E+04
 -1.02651E+04  1.00477E+04 -1.28822E+04  4.36614E+03 -1.11573E+04 -5.33430E+03 -4.57499E+03 -6.47468E+03
  1.69424E+03 -8.59967E+03  6.05889E+03 -3.34115E+03  5.93254E+03  1.24085E+03 -2.66546E+03  6.43300E+03
 -8.22945E+03  3.85982E+03 -1.07412E+04 -4.60033E+03 -5.35985E+03 -1.21466E+04  8.46754E+02 -1.24453E+04
  7.14529E+03 -6.68764E+03  9.82202E+03 -1.70631E+03  5.06355E+03  2.03987E+03  1.30344E+03  6.74666E+03
 -4.67292E+03  1.46380E+03 -4.30298E+03 -3.71345E+03  1.86414E+03 -9.95321E+03  1.10423E+04 -6.22360E+03
  1.17718E+04  2.34543E+03  1.33919E+04  9.53568E+03  4.89917E+03  1.47353E+04 -6.62776E+03  1.14030E+04
 -1.49644E+04  6.66289E+03 -1.14079E+04 -2.54103E+03 -6.56423E+03 -7.90905E+03  3.34332E+03 -7.91195E+03
  7.95216E+03 -4.03799E+03  5.93274E+03  2.96402E+03  2.79098E+03  7.89133E+03 -5.90441E+02  7.13919E+03
 -2.67487E+03  3.90608E+03 -4.49056E+03  2.01157E+03 -1.56851E+03  2.37600E+03 -2.53729E+03  8.16299E+02
 -4.99133E+03  6.60328E+03 -1.09320E+04  7.22648E+03 -1.45656E+04 -3.40253E+02 -1.69805E+04 -9.83959E+03
 -9.47519E+03 -1.92280E+04  4.48473E+03 -2.06850E+04  1.51591E+04 -1.78040E+04  1.87463E+04 -8.59251E+03
  1.89279E+04  7.57771E+03  9.71570E+03  1.17588E+04  1.48735E+03  1.70523E+04 -5.47623E+03  1.03081E+04
 -9.20620E+03  3.27487E+03 -5.97166E+03 -2.61838E+03 -9.18106E+02 -1.77542E+03 -1.75495E+03 -2.64981E+02
 -3.47878E+03 -1.04263E+03 -2.10656E+03 -8.07065E+01 -1.13018E+03 -3.87100E+03 -3.63133E+01 -4.74530E+03
  5.50886E+03 -3.74327E+03  1.13012E+04 -9.11604E+01  1.18278E+04  8.53810E+03  1.97522E+03  1.58262E+04
 -8.31134E+03  1.81187E+04 -1.69795E+04  1.09842E+04 -1.90888E+04 -1.33615E+03 -1.34049E+04 -1.28146E+04
 -4.74388E+03 -1.56176E+04  5.15231E+03 -1.56304E+04  9.44032E+03 -8.48479E+03  9.43807E+03 -2.22347E+02
  5.39685E+03  5.53021E+03 -6.58276E+02  4.28097E+03 -3.66522E+03 -5.01700E+02 -9.68732E+02 -3.22331E+03
  3.99501E+03 -1.32208E+03  7.68957E+03  3.24811E+03  4.43339E+03  6.23660E+03 -1.12920E+03  9.97243E+03
 -9.66291E+03  7.75907E+03 -1.06877E+04 -7.05511E+02 -9.01298E+03 -9.56770E+03 -9.96286E+02 -1.14312E+04
  6.74886E+03 -1.00210E+04  1.29734E+04 -3.02960E+03  1.30761E+04  1.59646E+03  7.16769E+03  1.19092E+04
  1.22478E+03  1.15434E+04 -4.66707E+03  9.71944E+03 -5.50859E+03  5.88048E+03 -6.53876E+03 -6.18606E+02
 -4.02329E+03  9.60747E+01 -3.53309E+03  1.94787E+03 -5.01926E+03  1.46907E+03 -6.79932E+03 -5.99921E+02
 -7.99037E+03 -6.28690E+03 -1.13566E+03 -1.08772E+04  5.73341E+03 -1.07850E+04  9.08708E+03 -3.72590E+03
  9.56069E+03  2.48046E+03  7.22173E+03  8.43970E+03 -1.59078E+03  1.24671E+04 -7.67079E+03  6.64307E+03
