 $NMID ID='MM_0lb_SNR200_19hz_g60_98.RAW', FMTDAT='(8E13.5)'
 TRAMP=1., VOLUME=1. $END
  3.08966E+05  5.91801E+01  3.36614E+05  2.50419E+05  8.44110E+04  3.38800E+05 -1.32100E+05  2.50632E+05
 -1.89963E+05  8.14301E+04 -1.10747E+05 -3.30642E+04  1.89800E+03 -5.10815E+04  5.47158E+04 -7.06226E+02
  3.49286E+04  5.25284E+04 -1.77049E+04  7.36704E+04 -5.99558E+04  6.27457E+04 -8.43350E+04  3.14721E+04
 -8.02014E+04 -1.07040E+04 -5.75017E+04 -5.04701E+04 -1.51262E+04 -6.89169E+04  2.68651E+04 -4.59654E+04
  3.97736E+04  4.25318E+03  1.55084E+04  4.75615E+04 -3.37749E+04  4.74069E+04 -6.67365E+04 -1.42880E+02
 -5.30540E+04 -5.67380E+04 -6.23723E+03 -7.67470E+04  3.37539E+04 -5.30453E+04  4.69122E+04 -1.67218E+04
  4.21352E+04  1.08193E+04  3.09226E+04  2.41998E+04  1.59201E+04  2.78963E+04 -4.93103E+03  2.69704E+04
 -2.12612E+04  1.26146E+04 -1.97266E+04 -4.38874E+03  5.12291E+03 -7.97774E+03  2.16505E+04  1.19533E+04
  7.34946E+03  3.40893E+04 -3.03488E+04  3.52446E+04 -6.18011E+04  2.07485E+03 -5.54180E+04 -4.25881E+04
 -1.21380E+04 -6.16576E+04  3.98150E+04 -4.37656E+04  5.65228E+04 -1.91526E+03  3.39815E+04  3.19626E+04
 -6.37780E+03  3.48127E+04 -2.83819E+04  1.48660E+04 -3.00222E+04 -4.36532E+03 -1.47055E+04 -9.90675E+03
 -7.25069E+03 -1.25947E+04 -7.47171E+02 -1.88187E+04  8.88131E+03 -2.31764E+04  1.50100E+04 -1.23711E+04
  1.12777E+04  4.05446E+03 -6.95463E+03  1.21588E+04 -2.01539E+04 -2.59363E+03 -8.60660E+03 -3.21832E+04
  2.17112E+04 -4.20216E+04  4.65455E+04 -2.00194E+04  4.34606E+04  1.92415E+04  1.61367E+04  4.31878E+04
 -1.59492E+04  3.16959E+04 -2.52319E+04  1.22436E+03 -9.22251E+03 -2.73195E+04  2.06066E+04 -3.16874E+04
  3.95925E+04 -8.15851E+03  3.31756E+04  2.34846E+04  1.70263E+04  4.49943E+04 -8.17909E+03  4.68262E+04
 -3.07948E+04  3.16487E+04 -3.95385E+04  9.32139E+03 -3.94026E+04 -1.65771E+04 -2.27958E+04 -3.52889E+04
  6.66896E+03 -3.49531E+04  2.94043E+04 -1.28041E+04  2.80819E+04  1.08178E+04  3.14678E+03  1.86958E+04
 -1.43491E+04  8.81573E+03 -1.02783E+04 -7.41687E+03  6.66348E+03 -1.05079E+04  1.74227E+04  6.51279E+03
  1.30628E+04  2.26765E+04 -6.45585E+03  2.40228E+04 -2.19887E+04  9.41712E+03 -2.68393E+04 -5.33810E+03
 -1.80631E+04 -1.65136E+04 -6.95232E+03 -1.84945E+04  4.25825E+03 -1.67831E+04  1.48354E+04 -1.54935E+04
  2.24592E+04 -1.17124E+04  2.97651E+04  1.78851E+03  2.26566E+04  1.76762E+04  3.89313E+03  3.43397E+04
 -1.61589E+04  2.85991E+04 -2.64689E+04  9.16737E+03 -2.09191E+04 -9.59528E+03 -3.71393E+03 -1.40972E+04
  1.93412E+03 -4.14112E+03 -3.79333E+03  5.72762E+03 -1.45692E+04  5.41498E+03 -1.46748E+04 -5.78532E+03
 -9.89896E+03 -1.55629E+04  3.86358E+03 -2.03491E+04  1.39706E+04 -1.45265E+04  1.57773E+04 -2.23182E+03
  1.02983E+04  1.26075E+04 -6.20593E+02  1.72333E+04 -1.13799E+04  9.03691E+03 -1.62823E+04 -3.12725E+03
 -1.24745E+04 -1.54064E+04 -2.03098E+03 -2.06464E+04  8.90583E+03 -1.65990E+04  1.73322E+04 -7.36598E+03
  1.65192E+04  5.05625E+02  1.13525E+04  3.70631E+03  6.31276E+03 -5.44668E+02  8.07394E+03 -1.18637E+03
  1.45265E+04  2.67351E+03  1.62857E+04  1.34541E+04  9.73437E+03  2.63253E+04 -4.49075E+03  2.74197E+04
 -1.74551E+04  2.28198E+04 -2.65203E+04  1.14687E+04 -2.71481E+04 -1.89636E+03 -2.23252E+04 -1.58931E+04
 -9.86707E+03 -2.19019E+04  7.24376E+03 -2.03100E+04  1.78043E+04 -1.18887E+04  1.75806E+04  3.94713E+03
  6.49511E+03  1.12976E+04 -6.55504E+03  1.09058E+04 -1.43305E+04  3.13602E+03 -9.74781E+03 -7.48529E+03
  1.42009E+02 -1.25899E+04  6.32910E+03 -9.41773E+03  8.12352E+03 -9.65254E+02  2.47663E+03  5.51222E+03
 -5.28149E+03  1.13495E+03 -4.63187E+03 -4.88877E+03  7.16726E+02 -1.17614E+04  8.27965E+03 -1.06664E+04
  1.33153E+04 -5.38847E+03  1.39371E+04  2.98747E+03  1.11442E+04  1.07025E+04  5.22729E+03  1.51952E+04
 -1.09983E+03  1.65830E+04 -1.17190E+04  1.12138E+04 -1.31423E+04  2.17593E+03 -8.87828E+03 -2.02563E+03
 -4.46661E+03 -1.62975E+03 -1.87194E+03  1.16667E+03 -2.14328E+03  1.32650E+03 -3.41136E+03  4.04792E+03
 -8.92627E+03 -1.05726E+02 -8.70023E+03 -6.69905E+03 -3.08499E+03 -1.17578E+04  2.90593E+03 -9.03414E+03
  7.73317E+03 -3.60371E+03  5.16653E+03  2.19997E+03 -7.74756E+02  3.17893E+03 -3.00230E+03  7.58078E+02
 -3.48566E+03 -6.39017E+03 -5.76876E+02 -7.63161E+03  3.28749E+03 -7.75300E+03  9.82960E+03 -4.24479E+03
  1.18720E+04  3.85329E+02  8.88045E+03  5.91314E+03  1.43351E+03  8.19325E+03 -5.63946E+03  8.97187E+03
 -6.66274E+03  2.50207E+03 -3.72472E+03 -8.80638E+02  1.59046E+03 -2.34246E+03  4.75487E+03 -1.15710E+03
  3.59571E+03  2.93992E+03  3.32288E+02  7.12959E+03 -3.99660E+03  7.97123E+03 -8.36613E+03  1.30420E+03
 -3.82497E+03 -3.84352E+03  1.27353E+03 -7.73374E+03  4.68057E+03 -3.89314E+03  4.72009E+03  6.83912E+02
  9.11048E+02  4.11237E+03 -3.90525E+03  5.35075E+03 -5.60851E+03  1.46763E+03 -4.98666E+03 -2.58386E+03
 -3.18081E+03 -5.89724E+03  8.93892E+02 -7.02475E+03  6.38955E+03 -4.35697E+03  6.34085E+03  1.57323E+03
  5.50836E+03  5.76285E+03  1.33581E+03  7.67657E+03 -4.42163E+03  3.29845E+03 -4.30592E+03 -8.97546E+02
 -5.30099E+03 -4.19627E+03 -1.07046E+03 -5.46489E+03  2.59992E+03 -6.32953E+03  2.50346E+03 -2.81729E+03
  3.05190E+03 -1.46334E+01 -4.72847E+02  1.48094E+03  1.03897E+03 -1.21199E+03  2.79967E+02 -2.65679E+03
  4.83547E+03 -1.16483E+03  5.94524E+03  1.23683E+03  6.67467E+03  1.25717E+03  5.34200E+03  7.66112E+03
 -1.98044E+03  9.21286E+03 -7.60892E+03  6.25685E+03 -1.05749E+04  1.17684E+03 -7.45045E+03 -2.29406E+03
 -4.02376E+03 -7.01096E+03 -8.92037E+02 -6.16214E+03  2.93940E+03 -1.89590E+03  2.07067E+03 -2.25570E+03
  2.13945E+03 -1.63946E+03  2.26226E+03 -2.18145E+03  3.18895E+03 -1.10093E+03  3.68786E+03  2.72728E+02
  4.21901E+03  1.79132E+03  1.26969E+03  2.73028E+03 -9.89701E+02  3.62126E+03 -3.26528E+03  2.84191E+03
 -4.97242E+03 -1.95028E+03 -2.69794E+03 -2.50168E+03  1.09069E+03 -5.44811E+03  4.89084E+03 -5.37957E+03
  4.52018E+03 -2.50512E+03  7.09540E+03  6.78547E+02  5.10218E+03  4.79056E+03  6.12329E+02  6.23523E+03
 -2.94115E+03  6.47603E+03 -3.91534E+03  3.02209E+03 -1.76855E+03 -9.99579E+02 -1.11288E+03  3.01760E+01
 -6.11334E+02  8.55598E+02 -1.23090E+03  2.84665E+03 -2.30916E+03  1.41628E+03 -4.47713E+03  7.01356E+00
 -9.88419E+02 -3.32075E+03  1.19095E+02 -4.39852E+03  2.75208E+03 -3.73261E+03  3.01990E+03 -1.46240E+03
  4.58299E+03  2.28896E+03  1.78554E+03  3.12651E+03 -1.03797E+03  5.34110E+03 -3.02757E+03  2.17552E+03
 -4.39700E+03  1.28804E+03 -3.68643E+03 -3.65257E+03 -3.43658E+00 -3.77016E+03  2.09925E+03 -1.69893E+03
  2.98880E+03 -6.59811E+02  1.85794E+03  1.69161E+02 -2.83025E+02  1.32744E+03  1.04944E+03  1.39338E+02
  2.37905E+03  1.08646E+03  2.12862E+03  1.35084E+03  3.57201E+02  1.84673E+03  1.18926E+03  1.92404E+03
 -2.43798E+03  3.85346E+03 -1.89245E+03  4.25977E+03 -3.19980E+03  8.21613E+02 -3.77169E+03  4.87802E+02
 -1.24579E+03 -3.32133E+03  6.52837E+02 -5.23440E+03  1.63807E+03 -2.38794E+03  3.05014E+03 -1.07028E+03
  2.41148E+03  1.51319E+03 -7.99380E+01  1.66202E+03 -1.07509E+03  4.83895E+02 -8.16793E+02 -1.31831E+02
 -8.22904E+02 -1.40775E+03  2.38067E+02 -9.51956E+02  7.55748E+02 -1.00850E+02  1.46102E+03 -1.58309E+01
 -1.59098E+02  3.45603E+02 -7.06186E+02  3.28219E+02  1.14897E+01  1.05502E+03  1.95203E+03  1.67978E+02
  6.45660E+02 -2.07798E+02  1.81741E+03  1.07989E+03  1.42666E+02  1.75135E+03 -1.06557E+03  1.44048E+03
 -2.32056E+03  1.18431E+03 -1.49771E+03  1.22386E+02 -2.73168E+03 -5.77749E+02 -6.21057E+01 -4.46617E+02
  2.09090E+03 -5.99487E+02  2.07841E+03 -1.78832E+03  8.87160E+02  1.22102E+03 -9.41445E+02  1.07569E+03
 -1.56627E+03  1.44213E+03 -1.21592E+03 -1.14856E+03 -3.20648E+02 -1.42414E+03 -4.54490E+02 -5.30097E+02
  5.01205E+02 -6.23166E+02  1.84687E+03  1.03587E+03  1.28927E+03 -4.96112E+02  3.89978E+02  1.07100E+03
 -5.23489E+02 -1.54328E+02 -1.68223E+03 -1.42526E+03 -3.54016E+02 -7.58971E+02  2.05415E+03 -1.88249E+02
  1.31806E+03  4.27253E+02  3.43742E+03  9.60867E+02  8.86753E+02  1.58995E+03 -7.70996E+02  1.23575E+03
 -1.65796E+03  6.70936E+01 -1.68722E+03 -7.95618E+02 -8.44054E+02 -8.42831E+02 -6.15395E+02  1.23758E+02
  1.42575E+03 -4.42802E+02  1.07560E+03  9.50673E+02 -3.86246E+02  1.00144E+03  8.32518E+02  2.00230E+03
 -1.65404E+02  6.50612E+02 -4.62684E+02  7.16936E+02  5.95503E+02 -3.91023E+02 -1.85786E+03  9.40896E+02
  1.26447E+02  1.15935E+03 -1.93064E+03  4.02615E+02 -7.50832E+02 -6.97534E+02 -2.84569E+03 -8.94222E+02
 -4.02121E+02 -1.59398E+03  5.25106E+02 -2.43541E+03  1.21194E+03 -3.06796E+03  2.03854E+03 -8.60570E+02
  2.07442E+03  1.61350E+02  8.12910E+02  2.00258E+03  1.00560E+02  1.35970E+03 -8.60468E+02  2.91316E+02
 -5.08886E+02  7.23241E+02 -1.32709E+03  3.95115E+01 -3.59384E+02  9.26290E+02 -3.57032E+02 -1.61075E+02
 -1.38458E+03 -2.01103E+02 -7.52999E+02 -2.98367E+02  9.15818E+02  6.52712E+02 -1.23488E+03 -5.79276E+02
  1.01989E+03 -8.45800E+02  7.30182E+02  5.19021E+02  1.81208E+03  1.83621E+03  8.89273E+01  9.04485E+02
 -1.45937E+03  1.88082E+03 -1.25343E+03  1.41214E+02 -4.30700E+02 -7.31464E+02 -1.13376E+03 -1.08804E+03
 -9.89826E+02 -1.02892E+03  4.52251E+02 -4.80853E+02 -6.09371E+02 -6.74098E+02  1.61389E+03  4.39225E+02
  1.60354E+03  2.60314E+02  1.33588E+03  5.29953E+02 -1.07718E+03  6.91122E+01 -1.07871E+03 -5.40828E+02
 -7.65027E+02 -5.09096E+02  1.54091E+03  8.06243E+01  2.89830E+02 -7.82983E+02  1.74941E+02 -4.75761E+01
 -1.94074E+02 -1.15286E+03  4.55767E+02  2.12488E+02 -9.92790E+02 -6.49332E+02 -9.81197E-01 -1.17030E+03
 -4.36422E+02 -1.19084E+03 -6.95029E-01 -7.11144E+02  8.53414E+02 -9.28946E+02  7.47920E+02  8.82873E+02
 -1.93655E+02  4.07323E+02  2.86917E+02  8.43146E+01 -1.14948E+03  2.55484E+02  4.32152E+02  3.41922E+02
 -1.18975E+03  3.57512E+02  3.57311E+02  1.80331E+02 -1.30569E+03 -2.31365E+01  2.61271E+02 -5.73960E+02
 -7.32615E+01  3.07395E+02  4.77539E+01 -8.00103E+02  1.07216E+03 -5.93930E+02 -5.34669E+02 -7.19044E+02
 -7.48928E+01 -7.80171E+02  4.53245E+02 -5.12169E+02  1.87501E+02 -1.15126E+03 -6.49187E+02  1.52775E+03
