 $NMID ID='MM_0lb_SNR200_20hz_g60_53.RAW', FMTDAT='(8E13.5)'
 TRAMP=1., VOLUME=1. $END
  3.10214E+05  2.80175E+02  3.36979E+05  2.50516E+05  8.53416E+04  3.36716E+05 -1.32531E+05  2.50609E+05
 -1.89725E+05  8.28908E+04 -1.11243E+05 -3.27863E+04  1.76393E+03 -4.96929E+04  5.36952E+04  5.21833E+02
  3.51280E+04  5.32649E+04 -1.70915E+04  7.45863E+04 -5.92465E+04  6.33561E+04 -8.37797E+04  3.26517E+04
 -8.01786E+04 -1.11298E+04 -5.77001E+04 -5.06002E+04 -1.51317E+04 -6.87909E+04  2.84268E+04 -4.61269E+04
  3.93098E+04  4.57787E+03  1.62906E+04  4.78678E+04 -3.46781E+04  4.68782E+04 -6.56931E+04 -1.88136E+02
 -5.24951E+04 -5.57732E+04 -5.45095E+03 -7.70967E+04  3.41101E+04 -5.45844E+04  4.60221E+04 -1.71969E+04
  4.33253E+04  1.12073E+04  3.29209E+04  2.49345E+04  1.65325E+04  2.96420E+04 -4.65047E+03  2.71347E+04
 -2.19156E+04  1.31655E+04 -1.91614E+04 -4.41044E+03  5.20015E+03 -7.24191E+03  2.19551E+04  1.08486E+04
  7.01674E+03  3.39550E+04 -3.08690E+04  3.56964E+04 -6.16903E+04  2.21126E+03 -5.51224E+04 -4.21489E+04
 -1.23477E+04 -6.16869E+04  3.86249E+04 -4.48936E+04  5.61376E+04 -2.48336E+03  3.34632E+04  3.13454E+04
 -6.51358E+03  3.30679E+04 -2.76321E+04  1.43769E+04 -2.88516E+04 -4.11522E+03 -1.54206E+04 -1.15929E+04
 -6.52824E+03 -1.28315E+04 -1.96492E+03 -1.56911E+04  6.94178E+03 -2.24556E+04  1.42434E+04 -1.32478E+04
  1.30943E+04  5.37781E+03 -7.04327E+03  1.29986E+04 -1.99157E+04 -3.47189E+03 -7.48385E+03 -3.13075E+04
  2.05448E+04 -4.13428E+04  4.61397E+04 -1.89334E+04  4.32200E+04  1.97146E+04  1.55343E+04  4.21994E+04
 -1.53761E+04  3.18683E+04 -2.38763E+04  6.48915E+02 -8.34135E+03 -2.68482E+04  2.12225E+04 -3.13855E+04
  3.87913E+04 -8.05370E+03  3.22734E+04  2.29728E+04  1.65241E+04  4.38360E+04 -7.46051E+03  4.61031E+04
 -2.94167E+04  3.01230E+04 -3.82584E+04  7.44248E+03 -3.96731E+04 -1.61335E+04 -2.14731E+04 -3.63295E+04
  6.82833E+03 -3.38160E+04  2.98220E+04 -1.28061E+04  2.72708E+04  1.06331E+04  2.58571E+03  1.79015E+04
 -1.31924E+04  7.85843E+03 -9.57525E+03 -6.30080E+03  6.18148E+03 -1.00384E+04  1.67937E+04  6.17431E+03
  1.33200E+04  2.17680E+04 -7.47156E+03  2.36545E+04 -2.08054E+04  9.37146E+03 -2.64539E+04 -6.48557E+03
 -1.61796E+04 -1.64233E+04 -6.37426E+03 -1.81163E+04  5.08177E+03 -1.56378E+04  1.36242E+04 -1.49395E+04
  2.16127E+04 -1.28566E+04  2.84036E+04  1.18894E+03  2.23092E+04  1.70361E+04  4.72479E+03  3.39572E+04
 -1.67356E+04  2.83007E+04 -2.69382E+04  9.46678E+03 -2.04700E+04 -1.05937E+04 -2.84375E+03 -1.50296E+04
  2.99280E+03 -4.57653E+03 -2.35857E+03  4.73652E+03 -1.15717E+04  4.90593E+03 -1.40254E+04 -4.59157E+03
 -9.48615E+03 -1.56501E+04  4.28150E+03 -1.89423E+04  1.33830E+04 -1.41017E+04  1.43795E+04 -1.32982E+03
  9.55592E+03  1.11244E+04 -7.56630E+02  1.58290E+04 -1.06818E+04  9.56609E+03 -1.55535E+04 -2.49182E+03
 -1.18552E+04 -1.45267E+04 -2.23650E+03 -1.83745E+04  9.85066E+03 -1.54708E+04  1.66793E+04 -7.70786E+03
  1.40921E+04  7.43817E+00  1.03287E+04  3.80577E+03  5.36611E+03 -4.51250E+02  7.10707E+03 -2.56532E+03
  1.52249E+04  2.45435E+03  1.47035E+04  1.27071E+04  8.60737E+03  2.55659E+04 -2.78522E+03  2.58189E+04
 -1.49913E+04  2.23433E+04 -2.54475E+04  9.86526E+03 -2.57409E+04 -1.75665E+03 -2.09511E+04 -1.34782E+04
 -1.00533E+04 -2.08587E+04  7.72827E+03 -1.89579E+04  1.56989E+04 -1.10084E+04  1.68434E+04  3.22378E+03
  5.87066E+03  1.12430E+04 -7.41200E+03  1.09748E+04 -1.36562E+04  2.83367E+03 -1.03460E+04 -8.13620E+03
  4.11548E+01 -1.21413E+04  6.26449E+03 -9.47565E+03  6.98942E+03 -5.91249E+02  1.04325E+03  5.57234E+03
 -5.13764E+03  1.63359E+03 -4.04045E+03 -4.65091E+03  4.37684E+01 -9.93874E+03  7.35345E+03 -8.84401E+03
  1.21846E+04 -4.77704E+03  1.13948E+04  2.91308E+03  1.05082E+04  9.65575E+03  5.40567E+03  1.33945E+04
 -1.42245E+03  1.54977E+04 -1.00399E+04  8.87422E+03 -1.01770E+04  2.66398E+03 -8.55928E+03 -1.21453E+03
 -4.18528E+03 -2.17485E+03 -1.10561E+03  2.60021E+03 -2.42460E+03  2.31311E+03 -2.39535E+03  3.02090E+03
 -8.25391E+03 -6.52921E+01 -8.88323E+03 -6.79798E+03 -3.88159E+03 -1.13634E+04  4.26745E+03 -8.87630E+03
  6.00304E+03 -3.62645E+03  4.92790E+03  1.83494E+03  1.18950E+03  3.61162E+03 -4.34179E+03 -4.04303E+02
 -2.78645E+03 -4.88690E+03 -1.16559E+01 -5.99783E+03  4.02303E+03 -8.73444E+03  1.02561E+04 -4.17341E+03
  1.00984E+04  1.96141E+02  8.73891E+03  5.76926E+03  2.25115E+03  7.62878E+03 -5.35922E+03  7.75705E+03
 -7.00168E+03  3.58510E+03 -3.90667E+03 -8.04169E+02  5.81495E+02 -1.80547E+03  3.23542E+03 -9.34934E+02
  3.91823E+03  2.77692E+03  1.05616E+03  6.52123E+03 -3.57184E+03  6.51058E+03 -6.88099E+03  2.39523E+03
 -5.65235E+03 -3.69415E+03  6.70033E+02 -6.80786E+03  4.33927E+03 -4.48613E+03  3.44004E+03  1.12108E+03
  1.28136E+03  3.03714E+03 -4.46057E+03  3.91909E+03 -4.73000E+03  1.39593E+03 -4.52765E+03 -9.93972E+02
 -2.46642E+03 -5.57355E+03  1.08278E+03 -7.32784E+03  5.63959E+03 -5.02604E+03  5.78111E+03  1.00594E+03
  4.13967E+03  5.00366E+03  2.79834E+02  6.43702E+03 -5.84138E+03  4.34719E+03 -4.77915E+03  1.97235E+02
 -5.32536E+03 -6.07354E+03 -3.83436E+02 -4.45549E+03  1.62900E+03 -4.31207E+03  2.26002E+03 -2.54756E+03
  2.65862E+03 -2.63424E+02 -3.68760E+01  7.52152E+02  8.99102E+02 -1.13021E+03  3.64786E+02 -1.47428E+03
  3.54191E+03  3.70188E+02  5.00387E+03  1.03325E+03  4.26055E+03  2.19944E+03  5.48843E+03  6.26906E+03
 -1.11436E+03  8.10069E+03 -7.03323E+03  6.25827E+03 -8.82969E+03  7.88583E+02 -6.76615E+03 -2.28676E+03
 -4.36782E+03 -5.89570E+03 -1.27077E+03 -4.79280E+03  2.70657E+03 -1.98231E+03  1.11302E+03 -2.09997E+03
  1.06750E+03 -5.79678E+02  2.43076E+03 -9.94347E+02  4.03092E+03 -9.57977E+02  3.83739E+03  4.85519E+02
  3.42213E+03  5.71595E+02  9.93583E+02  3.57275E+03 -1.86601E+03  3.39281E+03 -3.41187E+03  1.35069E+03
 -4.46176E+03  1.97635E+01  2.01377E+02 -2.89738E+03  4.29852E+02 -3.82914E+03  2.95538E+03 -4.43766E+03
  4.71374E+03 -3.08431E+03  6.29765E+03 -3.17052E+02  4.26081E+03  2.65392E+03  1.33053E+03  4.98113E+03
 -2.24046E+03  5.49689E+03 -2.92528E+03  1.74433E+03 -1.11112E+03 -7.42057E+01 -2.36092E+02 -7.26808E+01
  3.75777E+01  1.87575E+03 -9.22420E+02  1.82089E+03 -1.65752E+03  5.16622E+02 -2.87041E+03 -2.08544E+02
 -1.24950E+03 -4.30743E+03  1.13679E+03 -3.88645E+03  2.37667E+03 -4.46792E+03  3.85359E+03 -8.50939E+02
  4.27835E+03  1.34283E+03  8.97772E+02  2.16529E+03 -9.45949E+02  3.37550E+03 -2.76193E+03  2.30858E+03
 -2.75154E+03 -3.19188E+02 -2.55540E+03 -2.04229E+03  1.75526E+02 -3.32249E+03  8.87266E+02 -7.35886E+02
  1.35214E+03 -2.13867E+03  9.08410E+02  8.61420E+02  7.09292E+02  1.77553E+03  7.23543E+02 -5.04718E+02
  1.33133E+03  8.77332E+02  7.54986E+02 -2.90759E+02  4.18692E+02  1.79512E+03  1.66645E+03  7.83619E+02
 -8.30934E+02  2.96233E+03 -2.88480E+03  3.47449E+03 -2.37288E+03  2.24666E+03 -4.19236E+03  8.19385E+02
 -1.08221E+03 -3.98394E+03 -1.17921E+02 -4.45328E+03  8.78051E+02 -1.97053E+03  1.92078E+03 -8.68654E+02
  3.10390E+03  2.73920E+03 -1.45795E+02  2.13033E+03 -9.70052E+02  5.80655E+02 -7.31932E+02 -2.78386E+02
 -1.24156E+02 -1.06739E+03  1.89790E+03 -1.66275E+03  4.23842E+02 -1.10142E+03  1.56218E+03 -3.68482E+02
 -4.96190E+01 -1.94452E+02  1.33108E+03 -5.36656E+01  5.15030E+01  3.91200E+02  1.39705E+03  3.84300E+02
 -6.41289E+02 -7.68359E+02  2.32627E+03  8.40471E+02 -2.97330E+02  2.46726E+03  8.81229E+01  2.19021E+03
 -9.83366E+02  1.17221E+03 -1.12462E+03  3.01433E+02 -1.84041E+03  5.12288E+02  2.65620E+02  4.36369E+02
  7.61879E+02 -2.13832E+02  7.84305E+02 -9.67525E+02 -3.64029E+01  8.91525E+02 -1.18593E+03  1.43311E+03
 -8.23236E+02  1.41457E+03 -9.43403E+02 -1.67797E+03 -5.79720E+02 -1.84907E+03  4.05792E+02 -4.70506E+02
 -2.86415E+02 -1.06005E+03  3.60860E+02  1.04599E+03  6.55523E+02  4.82308E+02  1.00882E+03 -2.79998E+02
 -1.25674E+03  7.29218E+02 -1.38414E+03  8.28927E+02 -3.06719E+02  9.94900E+00  1.67532E+03  5.90427E+02
 -5.90120E+02  4.90922E+02  1.92406E+03  7.91850E+02  2.00245E+03  5.81481E+02 -6.17414E+02  2.02620E+03
 -1.18962E+03 -3.84125E+02 -6.84865E+02  4.15113E+02  8.40629E+01 -2.17803E+03  3.96596E+02 -2.94500E+02
  5.52441E+02 -6.27291E+02  1.07422E+03  2.13690E+02  4.61596E+02  1.82159E+03  7.67216E+02 -1.97944E+02
 -1.26369E+03  2.08204E+02  2.73133E+01  1.71390E+02  5.91171E+02  9.69889E+02 -8.10391E+02  2.97233E+02
 -4.95110E+02  4.46071E+01 -1.14409E+03 -1.76294E+02 -1.34216E+03  5.82269E+02 -2.65171E+03 -8.31183E+02
 -1.22215E+03 -2.13003E+03  1.69962E+02 -2.17951E+03  1.17367E+03 -1.77535E+03  2.14825E+03 -6.96843E+02
  2.23989E+03  2.04634E+02  5.24355E+02  2.09982E+02  3.31832E+02  1.47762E+03  1.85054E+02  7.74316E+02
 -3.20020E+02  4.46272E+02  4.65908E+02  5.19870E+02 -4.91704E+02  1.76179E+02 -6.09697E+02 -8.01961E+02
 -1.25438E+03 -2.59614E+01 -1.89516E+02 -1.91254E+02  1.62545E+03 -1.26245E+02 -1.24830E+03 -1.75854E+03
  2.85035E+02  1.01362E+02 -5.54677E+02 -1.68963E+02  7.49687E+02 -4.99361E+01  5.76055E+02  9.46169E+02
 -1.47805E+02  1.73624E+03 -2.42800E+02  2.02705E+01 -3.90538E+02 -2.71055E+02 -8.10597E+02 -6.29863E+02
 -1.01177E+03 -1.27857E+03  1.25623E+02 -4.14315E+02 -7.06139E+01 -1.00125E+03  9.97341E+02  9.33963E+02
  9.31516E+02  2.61718E+01  4.67782E+02 -5.86483E+02  4.33734E+02 -1.11698E+03  3.72968E+02 -2.87053E+02
  1.08794E+03  1.20895E+01 -5.38131E+02  3.36117E+02  5.25105E+02  8.22587E+02  1.48352E+03 -2.77256E+02
 -4.77135E+01  4.41116E+02 -6.12425E+02  4.48719E+02 -4.75910E+02  4.45538E+02 -7.88041E+02 -5.81853E+02
 -6.56974E+02 -8.44185E+02  1.82411E+02 -1.59973E+02  1.06269E+03 -1.00131E+03  6.63883E+01  1.04023E+03
  3.45113E+02 -9.16949E+02  2.53479E+02  7.83838E+02 -1.85656E+02  4.26275E+01  4.42878E+01  2.95190E+02
  4.94161E+02 -1.06220E+02 -4.02033E+01  6.16188E+02  8.32599E+02 -4.51658E+02 -5.80740E+02  2.24571E+02
 -6.99805E+02  4.84036E+02 -4.70769E+02 -1.20185E+03  8.68531E+02 -1.91290E+03  8.24193E+02  7.19895E+00
  1.02936E+03 -2.72948E+02  7.07047E+02 -2.79623E+02 -6.90050E+01  7.36148E+01  3.34203E+02  3.18864E+02
