 $NMID ID='MM_0lb_SNR200_10hz_g55_92.RAW', FMTDAT='(8E13.5)'
 TRAMP=1., VOLUME=1. $END
  3.08800E+05 -5.64723E+02  3.38196E+05  2.49897E+05  8.43145E+04  3.39103E+05 -1.33005E+05  2.53538E+05
 -1.89862E+05  8.49003E+04 -1.12172E+05 -3.29724E+04 -3.88570E+02 -5.06544E+04  5.27763E+04 -7.35611E+02
  3.55797E+04  5.15061E+04 -1.67398E+04  7.62299E+04 -6.14380E+04  6.35349E+04 -8.49847E+04  3.02297E+04
 -8.21205E+04 -1.30472E+04 -5.79722E+04 -5.27933E+04 -1.50001E+04 -7.14399E+04  2.61073E+04 -4.65009E+04
  4.20001E+04  2.31330E+03  1.60223E+04  4.85557E+04 -3.42741E+04  4.86259E+04 -6.92493E+04  9.17434E+02
 -5.52244E+04 -5.89884E+04 -7.52247E+03 -7.89451E+04  3.33164E+04 -5.82124E+04  5.13222E+04 -1.64821E+04
  4.42459E+04  1.14920E+04  3.27984E+04  2.67962E+04  1.53364E+04  2.98147E+04 -5.86978E+03  2.74851E+04
 -2.28876E+04  1.26208E+04 -1.85230E+04 -5.44094E+03  6.98022E+03 -7.46182E+03  2.33046E+04  1.38266E+04
  7.70978E+03  3.61738E+04 -3.34263E+04  3.61430E+04 -6.44899E+04  2.71029E+03 -5.92347E+04 -4.49885E+04
 -1.16172E+04 -6.60750E+04  4.05794E+04 -4.73846E+04  6.08503E+04 -2.09520E+03  3.54746E+04  3.34646E+04
 -4.29762E+03  4.03571E+04 -3.34055E+04  1.85019E+04 -3.18832E+04 -3.24503E+03 -1.98130E+04 -1.28321E+04
 -9.83848E+03 -1.69915E+04 -3.32691E+01 -2.05515E+04  8.42629E+03 -2.31021E+04  1.54426E+04 -1.26052E+04
  9.12108E+03  6.07256E+03 -1.01335E+04  1.30924E+04 -2.44431E+04 -6.54891E+03 -9.16851E+03 -3.67247E+04
  2.63317E+04 -4.70358E+04  5.06882E+04 -2.15021E+04  4.89725E+04  2.18308E+04  1.69061E+04  4.69801E+04
 -1.58920E+04  3.46235E+04 -2.59647E+04  2.51166E+03 -1.12596E+04 -2.97433E+04  2.13939E+04 -3.57930E+04
  4.27139E+04 -1.20043E+04  4.08873E+04  2.48835E+04  2.15909E+04  5.08385E+04 -1.00762E+04  5.57211E+04
 -3.57264E+04  3.77294E+04 -4.75689E+04  1.06555E+04 -4.63577E+04 -1.88310E+04 -2.57536E+04 -4.26616E+04
  7.51999E+03 -4.11854E+04  3.46529E+04 -1.58367E+04  3.25334E+04  1.11210E+04  5.35516E+03  2.10575E+04
 -1.44260E+04  1.03731E+04 -1.19594E+04 -7.34317E+03  5.18191E+03 -1.08576E+04  1.80091E+04  5.35172E+03
  1.37770E+04  2.19858E+04 -4.39382E+03  2.65752E+04 -2.41537E+04  1.38623E+04 -3.18270E+04 -3.81235E+03
 -2.47005E+04 -1.91556E+04 -1.28518E+04 -2.30038E+04  3.92540E+03 -2.58580E+04  1.85137E+04 -2.34871E+04
  3.26233E+04 -1.37200E+04  3.71494E+04  4.88557E+03  2.74924E+04  2.53959E+04  3.36783E+03  4.03706E+04
 -1.97563E+04  3.36906E+04 -2.98212E+04  1.17753E+04 -2.26468E+04 -1.02334E+04 -6.24203E+03 -1.43068E+04
  1.06652E+03 -1.31200E+03 -8.18323E+03  8.23915E+03 -1.84588E+04  5.54119E+03 -1.88006E+04 -7.48722E+03
 -1.17850E+04 -2.41619E+04  6.75183E+03 -2.76782E+04  1.77148E+04 -2.14834E+04  2.24716E+04 -2.71681E+03
  1.45154E+04  1.54380E+04 -1.73716E+03  2.38535E+04 -1.62716E+04  1.32804E+04 -2.43836E+04 -4.19597E+03
 -1.72280E+04 -2.00946E+04 -2.09468E+03 -2.81658E+04  1.28985E+04 -2.29548E+04  2.43693E+04 -1.24361E+04
  2.33281E+04 -2.30942E+02  1.63329E+04  4.17960E+03  7.22478E+03  2.13514E+03  1.19918E+04 -1.82284E+03
  2.11432E+04  3.48385E+03  2.45755E+04  1.80657E+04  1.71003E+04  3.64206E+04 -2.34352E+03  4.32118E+04
 -2.48985E+04  3.65029E+04 -4.02196E+04  1.75301E+04 -4.36793E+04 -3.85359E+03 -3.49941E+04 -2.57947E+04
 -1.36892E+04 -3.66944E+04  1.25146E+04 -3.27503E+04  2.77294E+04 -1.59333E+04  2.40677E+04  7.47033E+03
  9.40358E+03  1.92597E+04 -1.14976E+04  1.47436E+04 -2.11349E+04  1.89076E+03 -1.61384E+04 -1.39378E+04
  4.69816E+01 -2.00989E+04  1.09522E+04 -1.41256E+04  1.33296E+04 -4.93699E+02  3.24169E+03  7.78710E+03
 -7.80364E+03  4.66052E+03 -8.05781E+03 -4.84436E+03 -1.18135E+03 -1.71972E+04  9.93904E+03 -1.94519E+04
  2.18969E+04 -1.12716E+04  2.43656E+04  2.34259E+03  2.23958E+04  1.80273E+04  8.98476E+03  2.90514E+04
 -4.43656E+03  3.06932E+04 -1.82224E+04  1.90270E+04 -2.19458E+04  3.05691E+03 -1.63935E+04 -6.19254E+03
 -6.19564E+03 -7.92133E+03  8.69029E+01 -3.99689E+02 -2.84318E+03  1.81632E+03 -7.50681E+03  6.71017E+03
 -1.35201E+04 -1.14556E+03 -1.45917E+04 -1.29133E+04 -6.53673E+03 -1.84395E+04  7.04126E+03 -1.61063E+04
  1.14132E+04 -7.26486E+03  8.18127E+03  4.71086E+03 -9.72268E+02  6.35447E+03 -6.46180E+03  4.81999E+02
 -7.61464E+03 -1.00205E+04 -6.01677E+02 -1.36671E+04  9.34427E+03 -1.58395E+04  2.04281E+04 -1.04941E+04
  2.34217E+04  2.42823E+03  1.69012E+04  1.27312E+04  4.21180E+03  1.85840E+04 -8.50203E+03  1.51045E+04
 -1.24156E+04  4.22482E+03 -6.08239E+03 -1.57585E+03  3.41787E+03 -4.16306E+03  8.27309E+03 -6.38147E+02
  7.43955E+03  6.24412E+03  2.41893E+02  1.24051E+04 -9.71870E+03  1.15859E+04 -1.63970E+04  1.76622E+03
 -9.45771E+03 -8.22876E+03  1.62344E+03 -1.19758E+04  7.73684E+03 -5.93038E+03  8.97028E+03  1.99711E+03
  2.02469E+03  9.23369E+03 -7.89893E+03  1.25361E+04 -1.39438E+04  3.70939E+03 -1.32647E+04 -5.37318E+03
 -7.08898E+03 -1.55037E+04  2.20684E+03 -1.66219E+04  1.38642E+04 -1.02907E+04  1.60446E+04  2.28474E+03
  1.08418E+04  1.26034E+04 -1.68440E+03  1.50525E+04 -1.12477E+04  8.85048E+03 -1.29897E+04 -2.30673E+03
 -1.05318E+04 -9.44107E+03 -2.26727E+03 -1.12519E+04  5.67893E+03 -8.78805E+03  6.99089E+03 -4.11991E+03
  4.84792E+03  1.53535E+03 -7.02056E+02  3.04141E+03 -1.91442E+03 -2.74002E+03  2.38071E+03 -6.51601E+03
  1.02112E+04 -4.84305E+03  1.51045E+04  1.11343E+03  1.60792E+04  1.08416E+04  8.97079E+03  1.85332E+04
 -4.77700E+03  2.23493E+04 -1.92224E+04  1.72728E+04 -2.56089E+04  3.48831E+03 -1.86835E+04 -7.97936E+03
 -9.85554E+03 -1.54779E+04 -1.91422E+03 -1.31185E+04  5.27574E+03 -6.66967E+03  5.81819E+03 -5.42493E+03
  3.74778E+03 -3.57649E+03  5.05250E+03 -3.90220E+03  5.31194E+03 -1.56561E+03  7.60923E+03 -1.29332E+03
  9.87738E+03  3.23024E+03  6.27779E+03  7.69497E+03 -1.94016E+03  1.10937E+04 -1.12712E+04  8.47638E+03
 -1.35883E+04 -1.84043E+03 -7.40466E+03 -1.00848E+04 -8.24552E+02 -1.62739E+04  8.00150E+03 -1.51533E+04
  1.49832E+04 -8.00939E+03  1.84013E+04  1.86838E+03  1.25367E+04  1.32548E+04  1.47451E+03  1.69759E+04
 -8.32768E+03  1.43763E+04 -1.04594E+04  5.51518E+03 -5.27627E+03 -1.50303E+03 -1.71901E+03 -1.76508E+03
 -1.53099E+03 -1.94251E+03 -3.32918E+03  2.19220E+03 -5.17903E+03  1.40028E+03 -9.15629E+03 -3.09136E+03
 -5.08026E+03 -8.80255E+03  8.29507E+01 -1.33466E+04  8.36717E+03 -1.17382E+04  1.30324E+04 -4.96527E+03
  1.30422E+04  6.24947E+03  7.45455E+03  1.24121E+04 -2.72116E+03  1.43081E+04 -1.05830E+04  9.12268E+03
 -1.32211E+04  8.99847E+02 -9.89189E+03 -8.32126E+03 -7.09613E+02 -1.28407E+04  5.31356E+03 -9.04994E+03
  7.36335E+03 -2.78033E+03  6.59075E+03  1.63686E+03  2.15075E+03  4.13660E+03  2.09344E+03  2.07396E+03
  2.32975E+03  1.11974E+03  3.33612E+03  8.74183E+02  3.36813E+03  4.93283E+03  4.57385E+03  7.22142E+03
 -2.30025E+03  1.10879E+04 -1.00634E+04  1.08368E+04 -1.39112E+04  1.12466E+03 -1.44453E+04 -6.18532E+03
 -5.48904E+03 -1.36992E+04  1.46930E+03 -1.53716E+04  9.25461E+03 -7.98327E+03  1.04869E+04 -3.27340E+03
  9.40080E+03  4.92984E+03  2.06080E+03  6.96463E+03 -4.06342E+03  5.31507E+03 -5.67385E+03 -7.13357E+02
 -2.79415E+03 -5.80463E+03  3.89905E+03 -6.37431E+03  5.68285E+03 -3.57795E+03  5.78547E+03  3.26015E+01
  4.33601E+03  2.57345E+03  1.56592E+03  2.44411E+03  3.22436E+02  1.69953E+03  9.52245E+02 -3.90974E+02
  2.63293E+03 -1.84420E+03  6.26632E+03  1.73776E+03  3.41787E+03  6.03613E+03 -1.81429E+03  9.80558E+03
 -7.50009E+03  5.73891E+03 -9.87769E+03  1.19360E+03 -6.83048E+03 -3.48129E+03 -3.07680E+03 -6.09593E+03
  4.36663E+02 -4.59385E+03  4.08238E+03 -1.42241E+03  3.57378E+03  3.16353E+03 -1.12131E+03  5.79081E+03
 -5.94614E+03  1.78253E+03 -6.41710E+03 -2.50809E+03 -3.14958E+03 -6.63635E+03  2.60844E+03 -8.99128E+03
  4.69589E+03 -4.28635E+03  5.60027E+03 -1.69163E+03  5.36170E+03  1.45060E+03 -1.12076E+03  3.97903E+03
 -3.08143E+03  1.33186E+03 -2.78699E+03 -8.77856E+02  1.57767E+03 -5.73247E+03  6.10074E+03 -4.65647E+03
  7.67161E+03  1.96367E+03  8.15640E+03  5.86161E+03  2.35661E+03  9.24948E+03 -3.83330E+03  7.26236E+03
 -7.30339E+03  3.99330E+03 -7.46674E+03  6.06250E+02 -3.43752E+03 -6.84642E+03  4.95798E+02 -5.87804E+03
  6.45579E+03 -2.99860E+03  4.47033E+03  2.07005E+03  2.10289E+03  5.25464E+03 -5.51723E+02  3.91151E+03
 -1.54615E+03  2.44241E+03 -2.25381E+03  8.46394E+02 -9.97289E+02  1.06289E+03 -1.70941E+03  3.64288E+02
 -1.88175E+03  3.28688E+03 -5.59184E+03  4.22798E+03 -8.18333E+03  8.48158E+02 -1.05245E+04 -6.31448E+03
 -5.23210E+03 -1.11792E+04  2.51289E+03 -1.30392E+04  9.15606E+03 -1.11653E+04  1.11958E+04 -4.26909E+03
  1.25706E+04  3.93168E+03  7.47177E+03  9.72544E+03  1.98592E+03  9.14376E+03 -3.55350E+03  7.49487E+03
 -5.00691E+03  3.55879E+03 -3.68272E+03 -5.13504E+02 -6.05349E+02 -1.56626E+03  4.79427E+02  2.64492E+02
 -1.28180E+03  2.60871E+03 -1.57829E+03 -1.43873E+03 -2.05989E+03 -2.60233E+03 -2.71931E+01 -4.86406E+03
  4.80734E+03 -2.89326E+03  4.95400E+03  5.34495E+02  5.17330E+03  3.21986E+03  3.55956E+02  8.74960E+03
 -5.95686E+03  8.99563E+03 -8.41437E+03  4.79444E+03 -1.10790E+04 -1.61484E+03 -8.50025E+03 -6.78918E+03
 -4.74881E+03 -9.53671E+03  1.55324E+03 -8.35393E+03  7.69780E+03 -5.42308E+03  5.57695E+03  4.69936E+02
  4.18449E+03  1.63206E+03  8.17232E+02  3.54799E+03 -8.90130E+02  1.88790E+03  9.41266E+01 -1.61556E+03
  4.00505E+03 -1.50289E+03  4.56108E+03  7.93622E+02  1.60120E+03  4.22788E+03  4.86350E+02  2.67588E+03
 -3.14018E+03  2.55893E+03 -7.32215E+03  1.16545E+03 -5.45523E+03 -4.23653E+03  6.56094E+02 -7.85263E+03
  4.45376E+03 -5.29623E+03  7.18144E+03 -2.56026E+03  7.59831E+03  4.70023E+02  2.89569E+03  4.60668E+03
  3.34742E+02  6.07232E+03 -3.08645E+03  4.51854E+03 -2.38479E+03  2.89999E+03 -2.29324E+03  1.22936E+02
 -3.56363E+02 -6.39206E+01 -1.57202E+03  1.31378E+03 -2.45373E+03  1.83284E+03 -4.66701E+03 -1.82610E+03
 -5.50077E+03 -3.61291E+03 -1.46102E+03 -6.28228E+03  2.83887E+03 -4.59382E+03  5.66756E+03 -3.09375E+03
  5.51992E+03  1.82670E+03  2.43701E+03  6.57856E+03  9.33141E+02  5.28029E+03 -5.07019E+03  4.19321E+03
