 $NMID ID='MM_0lb_SNR200_8hz_g40_20.RAW', FMTDAT='(8E13.5)'
 TRAMP=1., VOLUME=1. $END
  3.08984E+05 -1.70057E+03  3.37657E+05  2.51781E+05  8.48824E+04  3.37941E+05 -1.32790E+05  2.52303E+05
 -1.91226E+05  8.52746E+04 -1.12016E+05 -3.18764E+04  7.66030E+02 -4.85039E+04  5.32795E+04 -1.41370E+02
  3.63617E+04  5.31534E+04 -1.70440E+04  7.55934E+04 -6.21835E+04  6.39586E+04 -8.71188E+04  3.33457E+04
 -8.13853E+04 -1.21072E+04 -5.79616E+04 -5.25965E+04 -1.50814E+04 -7.17285E+04  2.94026E+04 -4.51725E+04
  4.09473E+04  2.77844E+03  1.81725E+04  4.71689E+04 -3.30730E+04  4.84646E+04 -6.68465E+04  8.58541E+02
 -5.43823E+04 -5.83737E+04 -7.24923E+03 -7.87973E+04  3.57025E+04 -5.64796E+04  4.98367E+04 -1.87955E+04
  4.50892E+04  1.03469E+04  3.30167E+04  2.76854E+04  1.56472E+04  2.96253E+04 -4.25262E+03  2.64931E+04
 -2.23405E+04  1.33998E+04 -1.79886E+04 -4.36370E+03  7.42528E+03 -7.63867E+03  2.24661E+04  1.52890E+04
  6.79010E+03  3.70082E+04 -3.38710E+04  3.78133E+04 -6.60257E+04  1.27661E+03 -5.85667E+04 -4.65580E+04
 -1.36215E+04 -6.59230E+04  4.28028E+04 -4.81070E+04  6.32739E+04 -1.63944E+03  3.62984E+04  3.45268E+04
 -6.33244E+03  4.01184E+04 -3.15102E+04  1.81617E+04 -3.17835E+04 -3.18203E+03 -1.94603E+04 -1.36055E+04
 -8.12978E+03 -1.40446E+04 -1.06625E+03 -1.82462E+04  9.32487E+03 -2.36249E+04  1.57564E+04 -1.29107E+04
  1.19078E+04  4.77826E+03 -1.21139E+04  1.25801E+04 -2.46660E+04 -6.24526E+03 -8.80945E+03 -3.77686E+04
  2.41202E+04 -4.73044E+04  5.26057E+04 -2.10296E+04  5.07054E+04  2.09308E+04  1.87647E+04  4.68202E+04
 -1.74735E+04  3.55863E+04 -2.69584E+04  3.01870E+03 -1.24045E+04 -2.90704E+04  2.05930E+04 -3.58436E+04
  4.39365E+04 -1.28727E+04  4.04824E+04  2.44472E+04  2.19748E+04  5.06901E+04 -8.77741E+03  5.74240E+04
 -3.58043E+04  3.91741E+04 -4.71569E+04  1.00442E+04 -4.72940E+04 -1.73522E+04 -2.74487E+04 -4.15769E+04
  7.56079E+03 -4.31652E+04  3.46992E+04 -1.77716E+04  3.28303E+04  1.04619E+04  4.10355E+03  2.29456E+04
 -1.49217E+04  9.33112E+03 -1.03261E+04 -7.56944E+03  5.85036E+03 -1.22169E+04  1.92523E+04  7.59731E+03
  1.56158E+04  2.12759E+04 -4.60803E+03  2.80637E+04 -2.55633E+04  1.53527E+04 -3.20955E+04 -2.30912E+03
 -2.57437E+04 -1.86377E+04 -1.07773E+04 -2.47187E+04  3.90248E+03 -2.61991E+04  1.95710E+04 -2.30872E+04
  3.23885E+04 -1.43071E+04  3.72979E+04  4.55940E+03  2.62095E+04  2.48779E+04  5.14461E+03  4.30311E+04
 -1.93662E+04  3.40537E+04 -3.08480E+04  1.21001E+04 -2.27789E+04 -9.89615E+03 -5.71453E+03 -1.24826E+04
  1.13833E+02 -1.42938E+03 -7.77158E+03  9.15043E+03 -2.03281E+04  4.31349E+03 -1.99060E+04 -8.63559E+03
 -1.37876E+04 -2.39608E+04  4.47753E+03 -2.75257E+04  1.81411E+04 -2.02951E+04  2.27528E+04 -1.38657E+03
  1.55224E+04  1.67643E+04 -2.25897E+03  2.47871E+04 -1.69622E+04  1.49090E+04 -2.31697E+04 -5.28208E+03
 -1.97571E+04 -2.05212E+04 -3.04628E+03 -2.80733E+04  1.40417E+04 -2.39206E+04  2.34574E+04 -1.26600E+04
  2.18479E+04 -1.09965E+03  1.79919E+04  3.94368E+03  1.00155E+04  2.78374E+03  1.32172E+04 -2.43858E+03
  2.20954E+04  3.91863E+03  2.55069E+04  1.80255E+04  1.79203E+04  3.87204E+04 -3.59882E+03  4.36540E+04
 -2.59549E+04  3.53522E+04 -4.10378E+04  1.90677E+04 -4.46667E+04 -1.59504E+03 -3.53132E+04 -2.68290E+04
 -1.51575E+04 -3.80701E+04  1.46900E+04 -3.31841E+04  2.85951E+04 -1.48867E+04  2.42153E+04  8.93695E+03
  8.80856E+03  1.84021E+04 -1.23953E+04  1.65468E+04 -2.05255E+04  1.96437E+03 -1.71146E+04 -1.24774E+04
 -2.88920E+03 -2.05642E+04  1.00637E+04 -1.57045E+04  1.41510E+04 -1.42754E+03  4.06201E+03  9.55658E+03
 -8.42825E+03  3.26206E+03 -1.04097E+04 -7.92268E+03 -3.04963E+03 -1.78048E+04  1.12308E+04 -1.98120E+04
  2.37615E+04 -1.29063E+04  2.53129E+04  5.57436E+03  2.23181E+04  1.89872E+04  9.04583E+03  2.95736E+04
 -6.96586E+03  3.06983E+04 -1.96418E+04  1.82229E+04 -2.28525E+04  4.15996E+03 -1.54662E+04 -5.49559E+03
 -7.99490E+03 -6.65397E+03  7.80074E+02  1.99548E+03 -4.78905E+03  5.02547E+03 -7.81755E+03  6.12015E+03
 -1.49764E+04 -1.59688E+03 -1.52980E+04 -1.16621E+04 -6.94705E+03 -2.00077E+04  5.65301E+03 -1.53327E+04
  1.33965E+04 -8.56721E+03  9.31314E+03  3.04723E+03  7.15021E+02  7.14724E+03 -9.67163E+03 -9.77891E+02
 -8.01071E+03 -1.00956E+04 -5.41688E+02 -1.61848E+04  8.93123E+03 -1.68330E+04  2.10518E+04 -1.06462E+04
  2.24603E+04  3.44701E+03  1.74904E+04  1.47279E+04  2.97393E+03  2.12864E+04 -9.71988E+03  1.48233E+04
 -1.31625E+04  5.47579E+03 -7.88242E+03 -4.23352E+03  2.28780E+03 -3.62453E+03  8.46689E+03 -1.32923E+03
  6.17722E+03  5.32834E+03  2.06134E+03  1.32119E+04 -9.07261E+03  1.23496E+04 -1.69011E+04  3.35219E+03
 -1.34067E+04 -8.60796E+03  1.16932E+03 -1.49174E+04  9.03932E+03 -7.56136E+03  1.01909E+04  3.30789E+03
  1.20270E+03  9.89189E+03 -8.37638E+03  1.10701E+04 -1.53496E+04  4.91980E+03 -1.49927E+04 -6.65804E+03
 -8.04357E+03 -1.63807E+04  3.77940E+03 -1.86605E+04  1.38658E+04 -1.11622E+04  1.86359E+04  3.07801E+03
  1.16611E+04  1.53187E+04 -1.85678E+03  1.86202E+04 -1.25845E+04  9.53877E+03 -1.45108E+04 -1.98193E+03
 -1.12451E+04 -1.18046E+04 -1.28311E+03 -1.24352E+04  7.32965E+03 -1.07162E+04  8.96493E+03 -5.47165E+03
  3.79436E+03  2.21382E+03 -9.59362E+02  3.14212E+03 -9.91966E+01 -3.16855E+03  1.20051E+03 -9.51273E+03
  1.15598E+04 -6.10841E+03  1.71829E+04  3.03531E+03  1.52580E+04  1.20882E+04  9.83384E+03  2.27889E+04
 -5.64823E+03  2.71509E+04 -2.17825E+04  1.81961E+04 -2.79079E+04  4.13473E+03 -2.10661E+04 -8.81514E+03
 -1.02163E+04 -1.78337E+04  1.37049E+02 -1.60058E+04  7.00551E+03 -9.19929E+03  5.06736E+03 -6.06647E+03
  3.71671E+03 -2.76653E+03  3.79280E+03 -3.53174E+03  6.00891E+03 -4.01881E+03  8.09511E+03 -1.85980E+03
  1.09316E+04  6.95597E+02  5.32122E+03  1.07392E+04 -2.87216E+03  1.19466E+04 -1.08694E+04  1.00739E+04
 -1.58897E+04 -1.10324E+03 -1.27076E+04 -1.07801E+04 -1.22485E+03 -1.61458E+04  9.93400E+03 -1.71032E+04
  1.79290E+04 -9.42194E+03  1.90812E+04  2.82405E+03  1.35897E+04  1.51273E+04  2.63790E+03  1.88173E+04
 -8.75976E+03  1.50327E+04 -1.07507E+04  5.61637E+03 -8.01954E+03 -2.70596E+03 -2.38438E+03 -1.32179E+03
 -2.14820E+03  9.57036E+01 -2.81935E+03  4.07341E+03 -5.51948E+03  4.12050E+03 -1.11426E+04 -8.40731E+02
 -7.23924E+03 -9.16209E+03 -7.99041E+02 -1.46629E+04  9.26148E+03 -1.61065E+04  1.45511E+04 -4.19413E+03
  1.53602E+04  7.61274E+03  6.89167E+03  1.42111E+04 -3.37360E+03  1.64917E+04 -9.61454E+03  1.06722E+04
 -1.55329E+04  7.42386E+02 -1.14629E+04 -8.67979E+03 -1.43334E+03 -1.41841E+04  6.70284E+03 -1.01338E+04
  9.62666E+03 -3.03671E+03  8.20675E+03  1.91903E+03  2.64969E+03  4.24526E+03  1.25709E+03  3.27296E+03
  4.09421E+03  1.95950E+03  3.75453E+03  9.31336E+02  4.33403E+03  4.80541E+03  3.67634E+03  9.63405E+03
 -1.42213E+03  1.18483E+04 -1.20128E+04  1.30816E+04 -1.55122E+04  1.40223E+03 -1.60372E+04 -6.45875E+03
 -9.13194E+03 -1.50323E+04  1.63527E+03 -1.75621E+04  9.52234E+03 -1.15173E+04  1.42948E+04 -3.02462E+03
  9.90750E+03  5.96703E+03  3.34136E+03  9.66992E+03 -5.30877E+03  7.52618E+03 -6.80239E+03  4.65144E+01
 -3.74309E+03 -6.31275E+03  4.51435E+03 -7.87499E+03  7.86459E+03 -4.14899E+03  6.99251E+03  3.43582E+03
  3.93726E+03  2.86421E+03  1.29290E+03  3.77330E+03  5.96453E+02  2.75851E+03  8.09428E+01 -1.87793E+03
  3.00508E+03  4.85623E+02  6.68427E+03  2.86669E+03  1.55020E+03  7.73512E+03 -1.45912E+03  1.24090E+04
 -5.87875E+03  9.27301E+03 -1.16618E+04  2.36565E+03 -1.11606E+04 -4.64395E+03 -3.45608E+03 -5.03484E+03
  4.04197E+02 -6.15125E+03  4.57407E+03 -2.87928E+03  3.89667E+03  2.07458E+03 -1.37982E+03  6.35321E+03
 -6.54021E+03  4.07429E+03 -7.55192E+03 -1.73334E+03 -3.89607E+03 -9.86788E+03  9.45679E+02 -8.99566E+03
  6.36993E+03 -4.95103E+03  7.22840E+03 -5.43649E+02  5.44352E+03  2.07848E+03  2.47383E+03  6.03877E+03
 -6.48345E+03  2.02016E+03 -4.70334E+03 -3.39663E+03  7.80947E+02 -6.78915E+03  8.04772E+03 -4.99548E+03
  9.09190E+03  1.64273E+03  1.03129E+04  7.61291E+03  3.53394E+03  1.06280E+04 -4.74917E+03  1.05470E+04
 -8.40885E+03  4.85859E+03 -1.00462E+04  1.95624E+02 -4.86114E+03 -6.84950E+03  1.90859E+03 -6.42285E+03
  5.63885E+03 -2.52102E+03  5.91095E+03  1.20553E+03  1.70787E+03  6.45771E+03 -5.04078E+02  5.06226E+03
 -3.34701E+03  3.47123E+03 -3.68210E+03  1.48845E+03 -7.35245E+02  2.44518E+03 -3.15287E+03  1.63529E+03
 -1.61643E+03  3.88604E+03 -8.25878E+03  3.18504E+03 -1.20863E+04  6.27950E+02 -1.31491E+04 -5.34512E+03
 -7.30001E+03 -1.55098E+04  2.07402E+03 -1.80015E+04  1.13000E+04 -1.25587E+04  1.56470E+04 -4.62452E+03
  1.32778E+04  3.14426E+03  9.53075E+03  1.07767E+04  1.98458E+03  1.11026E+04 -6.31322E+03  7.43540E+03
 -6.03179E+03  4.07216E+03 -2.39181E+03 -1.67156E+03  3.52025E+02 -1.75775E+03 -1.62832E+00  9.14600E+01
 -1.42924E+03  1.06175E+03 -2.74957E+03  2.20683E+02 -1.37861E+03 -1.95367E+03  1.38117E+03 -4.91689E+03
  4.81337E+03 -2.85162E+03  6.79123E+03 -2.82056E+02  7.71267E+03  6.72662E+03  1.47049E+03  1.26831E+04
 -5.47984E+03  1.44852E+04 -1.27440E+04  1.01560E+04 -1.49798E+04 -1.80228E+03 -9.64097E+03 -1.07990E+04
 -3.29480E+03 -1.22978E+04  4.71792E+03 -1.13796E+04  8.06223E+03 -6.56027E+03  6.93989E+03 -5.70525E+02
  4.63192E+03  3.93852E+03  2.24340E+02  3.31151E+03 -3.59306E+03 -3.31757E+02 -2.99998E+01 -3.62172E+03
  4.26358E+03 -1.21737E+03  5.34674E+03  1.31230E+03  1.83502E+03  6.56444E+03 -1.23259E+03  7.85255E+03
 -5.87751E+03  6.35479E+03 -8.69346E+03  1.40987E+03 -8.30622E+03 -5.55879E+03 -6.95248E+02 -9.77410E+03
  7.26098E+03 -8.96411E+03  9.10043E+03 -2.57061E+03  9.04180E+03  1.62165E+03  5.46852E+03  6.77673E+03
  1.31011E+03  8.00469E+03 -2.75500E+03  6.43257E+03 -4.17532E+03  3.56012E+03 -4.84599E+03  7.60199E+01
 -4.35885E+02  6.01554E+02 -3.01168E+03  2.21879E+03 -2.46787E+03  1.51903E+03 -7.32679E+03 -5.30565E+02
 -5.23870E+03 -4.69862E+03 -1.96462E+03 -8.63443E+03  3.86755E+03 -8.98984E+03  8.60320E+03 -4.82317E+03
  7.70729E+03  2.71005E+02  5.06175E+03  5.65621E+03 -8.09391E+02  7.04464E+03 -6.97507E+03  5.85995E+03
