 $NMID ID='MM_0lb_SNR200_19hz_g45_93.RAW', FMTDAT='(8E13.5)'
 TRAMP=1., VOLUME=1. $END
  3.10482E+05 -5.65266E+02  3.37635E+05  2.50616E+05  8.48144E+04  3.37831E+05 -1.32372E+05  2.49819E+05
 -1.89007E+05  8.30752E+04 -1.09491E+05 -3.32471E+04  1.77114E+03 -5.08935E+04  5.33254E+04  2.15396E+02
  3.47658E+04  5.33200E+04 -1.83371E+04  7.55132E+04 -5.98758E+04  6.31558E+04 -8.31193E+04  3.13001E+04
 -7.92008E+04 -1.04664E+04 -5.60063E+04 -4.94331E+04 -1.39415E+04 -6.82348E+04  2.66416E+04 -4.45783E+04
  3.89082E+04  3.85053E+03  1.59515E+04  4.67096E+04 -3.38684E+04  4.65118E+04 -6.47315E+04 -1.84596E+02
 -5.29454E+04 -5.56913E+04 -5.52301E+03 -7.52786E+04  3.23450E+04 -5.23637E+04  4.52083E+04 -1.60481E+04
  4.19486E+04  1.10313E+04  2.96658E+04  2.42891E+04  1.55210E+04  2.87435E+04 -3.99630E+03  2.67236E+04
 -2.10337E+04  1.30993E+04 -1.96696E+04 -3.92379E+03  4.05137E+03 -7.84523E+03  2.12783E+04  1.08823E+04
  7.37764E+03  3.24055E+04 -3.01281E+04  3.39473E+04 -5.97496E+04  2.63506E+03 -5.45148E+04 -4.13606E+04
 -1.21291E+04 -6.19460E+04  3.81194E+04 -4.38452E+04  5.54653E+04 -2.56482E+03  3.17826E+04  2.92164E+04
 -6.56349E+03  3.25978E+04 -2.82535E+04  1.18920E+04 -2.69518E+04 -5.72813E+03 -1.33115E+04 -9.76905E+03
 -7.54541E+03 -1.14459E+04 -8.98215E+02 -1.65227E+04  6.77172E+03 -2.21114E+04  1.47603E+04 -1.45170E+04
  1.25550E+04  3.54101E+03 -6.02110E+03  1.28767E+04 -1.95173E+04 -1.33918E+03 -7.50174E+03 -2.99416E+04
  2.04266E+04 -4.04992E+04  4.44506E+04 -1.73650E+04  4.15787E+04  1.85908E+04  1.35662E+04  4.17076E+04
 -1.51001E+04  3.09014E+04 -2.40799E+04  1.25369E+03 -8.05594E+03 -2.57255E+04  1.99744E+04 -3.00611E+04
  3.75812E+04 -5.84926E+03  3.19617E+04  2.29105E+04  1.52838E+04  4.28257E+04 -7.81022E+03  4.34178E+04
 -2.83402E+04  2.87259E+04 -3.65356E+04  7.87758E+03 -3.82799E+04 -1.51643E+04 -2.03028E+04 -3.40316E+04
  7.19110E+03 -3.37455E+04  2.88620E+04 -1.18088E+04  2.52278E+04  1.03553E+04  2.51919E+03  1.77932E+04
 -1.18545E+04  8.35945E+03 -9.86528E+03 -7.90814E+03  6.27152E+03 -9.93173E+03  1.70317E+04  5.86434E+03
  1.15478E+04  2.20273E+04 -6.69635E+03  2.38478E+04 -2.10253E+04  8.91789E+03 -2.43339E+04 -6.64510E+03
 -1.55019E+04 -1.51797E+04 -5.02802E+03 -1.65953E+04  3.78288E+03 -1.46025E+04  1.17697E+04 -1.38237E+04
  2.07514E+04 -1.22554E+04  2.72538E+04  7.19869E+02  2.10313E+04  1.55294E+04  4.96668E+03  3.15367E+04
 -1.46959E+04  2.76187E+04 -2.42178E+04  1.05768E+04 -1.90727E+04 -9.66134E+03 -3.25347E+03 -1.36126E+04
  3.40292E+03 -4.70287E+03 -2.50779E+03  4.96708E+03 -1.13629E+04  5.68599E+03 -1.33549E+04 -3.42769E+03
 -8.63549E+03 -1.47716E+04  4.69518E+03 -1.80151E+04  1.23220E+04 -1.24801E+04  1.41349E+04 -9.51273E+02
  9.36821E+03  1.11614E+04 -9.76929E+02  1.56786E+04 -1.08612E+04  9.25364E+03 -1.56959E+04 -3.36639E+03
 -1.13344E+04 -1.35062E+04 -2.92237E+02 -1.91722E+04  8.67727E+03 -1.47816E+04  1.63202E+04 -7.57329E+03
  1.44281E+04  1.17734E+03  9.41775E+03  3.44004E+03  5.69189E+03  1.09170E+02  8.10056E+03 -1.63227E+03
  1.29913E+04  3.48686E+03  1.39735E+04  1.23969E+04  9.89261E+03  2.35512E+04 -3.94458E+03  2.53841E+04
 -1.50148E+04  1.94351E+04 -2.43853E+04  8.87226E+03 -2.38210E+04 -2.43672E+03 -1.94157E+04 -1.44343E+04
 -9.99514E+03 -2.00400E+04  6.53170E+03 -1.87719E+04  1.68392E+04 -1.04819E+04  1.45452E+04  3.29195E+03
  6.37734E+03  1.10467E+04 -7.04037E+03  1.12820E+04 -1.30799E+04  2.63705E+03 -1.08452E+04 -7.82494E+03
  7.51879E+02 -1.24170E+04  6.69492E+03 -1.02470E+04  8.29436E+03 -2.13622E+03  1.13006E+03  4.25742E+03
 -5.41793E+03  1.00323E+03 -3.27112E+03 -4.39526E+03  7.71490E+02 -9.84544E+03  7.62660E+03 -9.25436E+03
  1.22155E+04 -4.34300E+03  1.15364E+04  3.14174E+03  9.30523E+03  1.02041E+04  5.58623E+03  1.33527E+04
 -1.38187E+03  1.48222E+04 -9.36242E+03  9.11682E+03 -1.07835E+04  3.20549E+03 -7.59103E+03 -1.72946E+03
 -4.98571E+03 -3.18776E+03 -1.27375E+03  1.81470E+03 -3.12354E+03  2.38061E+03 -3.89352E+03  3.86568E+03
 -6.82261E+03 -3.62774E+02 -7.41461E+03 -7.23411E+03 -3.54016E+03 -1.06949E+04  4.09535E+03 -7.19280E+03
  6.30927E+03 -3.63253E+03  5.87360E+03  2.66408E+03  1.33273E+03  2.97365E+03 -3.00750E+03  2.65613E+02
 -2.86828E+03 -4.43288E+03 -9.59230E+02 -6.96293E+03  3.87697E+03 -7.80475E+03  9.21076E+03 -3.91020E+03
  1.14222E+04 -2.48506E+02  8.17303E+03  5.35823E+03  1.95830E+03  8.40942E+03 -5.20757E+03  7.90697E+03
 -6.56368E+03  1.65168E+03 -4.30824E+03 -2.34749E+03  1.67196E+03 -1.14576E+03  4.68194E+03 -1.26619E+03
  3.68942E+03  3.23359E+03  2.02566E+03  6.16109E+03 -5.23913E+03  6.69164E+03 -8.42273E+03  8.12150E+02
 -5.46637E+03 -3.35725E+03  4.80818E+02 -6.35887E+03  2.84641E+03 -4.46374E+03  4.00495E+03  1.07634E+03
 -3.92518E+02  2.92996E+03 -3.19135E+03  3.61932E+03 -4.72180E+03  3.70207E+03 -2.75746E+03 -1.39157E+03
 -2.40589E+03 -5.32147E+03  2.44107E+02 -5.08166E+03  6.30758E+03 -4.84576E+03  6.93235E+03  8.84771E+02
  4.46681E+03  4.39255E+03  3.32212E+02  6.42962E+03 -4.09850E+03  4.79449E+03 -3.83010E+03 -1.34915E+03
 -5.50359E+03 -4.17540E+03 -1.29464E+03 -5.59548E+03  3.09630E+03 -4.88079E+03  1.47413E+03 -3.65877E+03
  2.29728E+03 -6.74855E+02  9.55668E+02  9.19166E+02  3.30698E+02  4.78589E+02  8.77386E+02 -1.65713E+03
  3.71293E+03 -9.02806E+02  5.10234E+03  9.40096E+02  4.74984E+03  3.20145E+03  4.55588E+03  6.46149E+03
 -6.05164E+02  6.58143E+03 -7.74041E+03  5.82296E+03 -9.31984E+03  8.32278E+02 -6.59214E+03 -2.50752E+03
 -4.63392E+03 -6.80956E+03 -1.46043E+03 -3.81648E+03  2.32514E+03 -2.11919E+03  1.81724E+03 -2.39578E+03
  1.69769E+03 -1.12654E+03  2.31600E+03 -1.88124E+03  4.21121E+03 -9.88888E+02  2.94023E+03  1.13059E+03
  4.11912E+03  8.15060E+02  1.68838E+03  3.50376E+03 -1.42188E+03  1.91226E+03 -4.43609E+03  2.78417E+03
 -4.97179E+03 -1.36522E+03 -2.02354E+03 -3.61668E+03  7.34151E+02 -5.22646E+03  3.95178E+03 -5.25118E+03
  4.41168E+03 -2.42872E+03  5.85053E+03  5.80263E+02  4.20922E+03  3.74536E+03  1.01391E+03  4.36804E+03
 -2.15498E+03  5.85295E+03 -3.20273E+03  2.39734E+03 -1.94242E+03 -2.02514E+02 -4.55499E+01  3.68195E+02
  7.82329E+02  1.06531E+03 -2.00690E+03  2.36446E+03 -3.06232E+03  1.09480E+03 -3.07043E+03 -3.54312E+02
 -9.67165E+02 -3.09885E+03  1.28257E+03 -3.67641E+03  2.68488E+03 -3.78047E+03  3.81286E+03 -1.37882E+03
  3.93864E+03  2.91578E+03  1.26735E+03  3.19364E+03 -1.00633E+03  4.79936E+03 -1.06777E+03  2.90618E+03
 -3.51604E+03 -8.54143E+02 -2.48628E+03 -3.58292E+03 -7.02754E+02 -3.25567E+03  1.55473E+03 -2.44820E+03
  1.63825E+03 -1.02398E+03  1.75143E+03  7.49818E+02 -4.27203E+02  1.28504E+03  1.10249E+03 -8.70331E+02
  1.96295E+03  1.47082E+03  1.02192E+03  1.00312E+03  1.05619E+03  1.87273E+03  2.00142E+03  1.59783E+03
 -2.04609E+03  3.53542E+03 -2.32542E+03  4.74784E+03 -1.89394E+03  1.43970E+03 -3.17323E+03  6.08480E+02
 -1.01584E+03 -2.20950E+03 -1.13172E+01 -4.35585E+03  1.69617E+03 -2.73705E+03  3.61639E+03 -4.49896E+02
  2.74653E+03  9.63000E+02 -7.10736E+02  1.94443E+03 -4.85686E+01  1.09175E+03 -1.10712E+03 -1.23584E+03
 -2.75484E+02 -9.89976E+02  1.67326E+03 -1.16902E+03  1.26139E+03 -3.87099E+02  1.17198E+03 -2.76697E+02
  4.17456E+02  3.91124E+00  6.05971E+02 -4.18529E+02 -1.14684E+03  6.60406E+02 -2.52207E+01 -6.22299E+02
  1.60098E+02  1.14913E+03  8.62318E+02  1.24529E+03  4.55896E+02  3.04043E+03 -4.30446E+02  2.94277E+03
 -6.10502E+02  8.89901E+02 -2.38055E+03 -4.75358E+02 -1.49735E+03 -1.37605E+03 -9.96195E+02 -7.99043E+02
  3.22732E+02 -2.83812E+02  1.03271E+03 -9.01988E+02  7.28806E+02  6.28316E+02  1.23860E+01  6.33452E+02
 -7.58385E+02  9.14459E+02 -9.58537E+02 -2.15063E+03  1.02166E+02 -1.93881E+03  5.35340E+01 -1.49500E+03
 -7.28378E+02 -8.00042E+02 -1.01027E+03  6.94986E+02  6.15866E+02  6.04090E+02  1.08751E+03  9.45272E+02
 -1.26592E+02 -6.65274E+02 -1.07933E+03  9.03877E+02  4.20887E+02 -2.91363E+02  1.97002E+03 -1.16010E+03
  8.75194E+02 -2.38060E+02  2.63522E+03  2.62446E+02  1.50711E+03  2.37254E+03 -4.71770E+02  1.99428E+03
 -1.88910E+03 -2.04822E+02 -1.96828E+03  4.06714E+02 -9.04501E+02 -1.83717E+03 -3.56958E+02 -8.44570E+02
  4.46719E+02 -7.42669E+02  1.83467E+02  5.05710E+02 -3.69420E-01  1.70452E+03 -5.82822E+01  4.82845E+02
 -6.44393E+02  3.94919E+02 -1.44098E+03  5.02824E+02  4.37712E+02 -5.53181E+02 -1.60571E+03 -1.84330E+02
 -2.51526E+02  1.85659E+03 -1.46181E+03  3.13325E+02 -1.16325E+03  3.06077E+02 -2.70419E+03 -6.77136E+02
 -6.84924E+02 -1.93533E+03  3.03206E+02 -3.02772E+03  5.51722E+02 -2.05751E+03  2.17915E+03 -1.10223E+03
  1.33895E+03 -2.26120E+02  4.23139E+02  2.51414E+03  1.34271E+02  5.31273E+02 -2.66177E+02  8.36594E+02
 -1.59530E+03  6.59845E+02  5.27108E+02 -3.76223E+02  2.48278E+02  9.34251E+02 -2.12460E+02  7.56885E+02
 -1.52349E+03 -9.15837E+01 -2.02127E+03  1.74209E+03  4.20530E+02 -2.52925E+02 -6.63836E+02 -5.30463E+02
  7.32966E+02 -4.08956E+02  1.03483E+03  7.11326E+02 -3.32785E+02  7.52406E+02 -3.46884E+02  9.30033E+02
  1.68964E+02  2.12266E+03 -1.46162E+03  8.13075E+02 -8.44143E+02 -1.26085E+03 -1.09825E+03 -8.82613E+02
 -6.23710E+02 -9.79015E+02 -2.63485E+02 -1.66188E+03  8.74143E+02 -3.26674E+02 -2.46142E+02  4.81842E+02
  6.30126E+02 -4.08240E+00 -9.06440E+02  1.02339E+03 -8.57135E+02  3.27645E+02  6.26935E+02 -6.15430E+02
  7.36750E+02 -2.95000E+02  8.63532E+02  1.96261E+02  1.13535E+02  3.41752E+02  6.20120E+02  9.92611E+02
 -4.98756E+02  8.86549E+02  9.09539E+01  2.21210E+02 -3.55336E+02 -2.91758E+02 -8.29992E+01 -1.05386E+03
  8.62746E+02 -1.04075E+03  1.47445E+03 -5.32055E+00  8.87870E+02 -8.26362E+02  5.90553E+02  4.91366E+02
  6.27008E+02  8.00369E+02 -9.17769E+02  1.19047E+03 -3.46978E+02 -1.07416E+02 -7.25573E+02  3.98561E+02
  4.69161E+02 -4.31649E+02  1.53620E+00  3.03746E+02 -3.22161E+02  9.84347E+02 -1.14382E+03  2.82002E+01
 -1.07334E+03  6.94202E+02 -5.53935E+02 -7.71039E+02  3.88821E+02 -1.33726E+03  1.03711E+02  2.57626E+02
  9.68265E+02  9.12393E+02 -3.22211E+02 -3.36215E+02  1.44051E+02  2.68084E+02  2.16447E+01  1.00175E+02
