 $NMID ID='MM_0lb_SNR200_9hz_g40_48.RAW', FMTDAT='(8E13.5)'
 TRAMP=1., VOLUME=1. $END
  3.09233E+05  1.31382E+03  3.37072E+05  2.50623E+05  8.30625E+04  3.36818E+05 -1.32072E+05  2.50768E+05
 -1.91014E+05  8.16313E+04 -1.12523E+05 -3.35388E+04 -8.87631E+01 -5.06097E+04  5.20194E+04 -1.51409E+03
  3.73050E+04  5.23975E+04 -1.63697E+04  7.62804E+04 -6.10340E+04  6.25959E+04 -8.48173E+04  3.29113E+04
 -8.30279E+04 -1.26561E+04 -5.77973E+04 -5.26989E+04 -1.57013E+04 -6.92945E+04  2.74074E+04 -4.73720E+04
  4.07966E+04  4.49336E+03  1.65826E+04  4.75631E+04 -3.39739E+04  4.84987E+04 -6.83475E+04 -8.57214E+01
 -5.42223E+04 -5.70297E+04 -7.59346E+03 -8.00385E+04  3.51457E+04 -5.81137E+04  4.97804E+04 -1.86530E+04
  4.53008E+04  1.18408E+04  3.31816E+04  2.66925E+04  1.59117E+04  3.11354E+04 -5.04649E+03  2.99139E+04
 -2.23215E+04  1.26369E+04 -1.81250E+04 -5.67320E+03  7.05846E+03 -7.07122E+03  2.20547E+04  1.41383E+04
  7.01738E+03  3.86184E+04 -3.49821E+04  3.77039E+04 -6.49082E+04  1.36656E+03 -5.81053E+04 -4.27669E+04
 -1.26580E+04 -6.49168E+04  4.03998E+04 -4.70453E+04  6.17036E+04 -2.83040E+03  3.62493E+04  3.40666E+04
 -7.03836E+03  3.87539E+04 -3.16288E+04  1.67943E+04 -3.24299E+04 -3.79355E+03 -1.80801E+04 -1.14587E+04
 -9.40933E+03 -1.37589E+04 -1.16603E+02 -2.09560E+04  8.53033E+03 -2.17974E+04  1.48913E+04 -1.16945E+04
  9.55617E+03  7.12854E+03 -9.81169E+03  1.34836E+04 -2.37980E+04 -6.03071E+03 -8.24626E+03 -3.54570E+04
  2.59130E+04 -4.70618E+04  5.06903E+04 -2.08390E+04  4.75299E+04  2.21844E+04  1.52490E+04  4.67924E+04
 -1.73012E+04  3.49785E+04 -2.77840E+04  2.03303E+03 -1.11405E+04 -2.91308E+04  2.14172E+04 -3.75995E+04
  4.35676E+04 -1.18744E+04  4.06537E+04  2.43538E+04  1.99409E+04  5.06247E+04 -9.15902E+03  5.46419E+04
 -3.46300E+04  3.58746E+04 -4.65281E+04  1.17742E+04 -4.66311E+04 -1.62631E+04 -2.40019E+04 -4.07984E+04
  9.19430E+03 -4.18863E+04  3.41887E+04 -1.78626E+04  3.29487E+04  9.52244E+03  4.26056E+03  1.98983E+04
 -1.28120E+04  9.92927E+03 -1.03040E+04 -7.23994E+03  6.09691E+03 -1.25574E+04  1.96524E+04  5.64651E+03
  1.25792E+04  2.34256E+04 -4.49916E+03  2.66212E+04 -2.29634E+04  1.28994E+04 -3.17414E+04 -2.95042E+03
 -2.44448E+04 -1.92244E+04 -1.13801E+04 -2.41133E+04  4.93631E+03 -2.57169E+04  1.78279E+04 -2.20191E+04
  3.10871E+04 -1.33414E+04  3.62815E+04  4.44045E+03  2.70099E+04  2.27365E+04  4.41718E+03  3.97223E+04
 -2.03104E+04  3.33582E+04 -2.92240E+04  9.69935E+03 -2.30450E+04 -1.00730E+04 -4.64705E+03 -1.26816E+04
 -2.47030E+02 -7.93265E+02 -5.56705E+03  9.10119E+03 -1.89944E+04  6.45592E+03 -2.02082E+04 -7.85605E+03
 -1.10523E+04 -2.12499E+04  4.79971E+03 -2.72119E+04  1.97659E+04 -1.91264E+04  2.10967E+04 -1.10125E+03
  1.31974E+04  1.75020E+04 -1.97018E+03  2.27424E+04 -1.59280E+04  1.35112E+04 -2.33030E+04 -5.05976E+03
 -1.73056E+04 -1.68130E+04 -1.15456E+03 -2.61412E+04  1.31494E+04 -2.26435E+04  2.24655E+04 -1.18002E+04
  1.98087E+04 -1.81415E+03  1.57816E+04  4.91586E+03  8.44027E+03  8.02070E+02  1.21421E+04 -2.71221E+03
  2.23030E+04  3.14736E+03  2.30712E+04  1.88542E+04  1.74058E+04  3.71515E+04 -1.96026E+03  4.32220E+04
 -2.22432E+04  3.49395E+04 -4.11944E+04  1.90498E+04 -4.13959E+04 -3.06031E+03 -3.57693E+04 -2.44143E+04
 -1.53204E+04 -3.59388E+04  1.35231E+04 -3.00624E+04  2.81723E+04 -1.50801E+04  2.52860E+04  7.02136E+03
  6.38397E+03  1.78498E+04 -1.09938E+04  1.51013E+04 -2.07355E+04  1.87283E+03 -1.47642E+04 -1.29446E+04
  1.74116E+03 -1.85788E+04  1.00427E+04 -1.46609E+04  1.41846E+04 -3.30193E+03  2.92301E+03  8.66113E+03
 -7.82313E+03  3.83516E+03 -9.29319E+03 -6.10711E+03 -1.61858E+03 -1.75714E+04  1.23709E+04 -1.92656E+04
  2.31109E+04 -1.12206E+04  2.38091E+04  2.85305E+03  2.33665E+04  1.77580E+04  9.69054E+03  2.83010E+04
 -4.57952E+03  2.81140E+04 -1.92008E+04  1.68825E+04 -2.10374E+04  4.78233E+03 -1.48297E+04 -5.65792E+03
 -6.19645E+03 -8.78032E+03 -7.79738E+02  4.40748E+02 -2.42475E+03  2.60141E+03 -6.88767E+03  5.72040E+03
 -1.38389E+04 -8.72016E+02 -1.25730E+04 -1.09599E+04 -5.04323E+03 -1.83541E+04  5.86744E+03 -1.50892E+04
  1.31113E+04 -6.58579E+03  9.22013E+03  3.58366E+03  6.42754E+02  6.90355E+03 -6.50523E+03 -3.68887E+02
 -7.18872E+03 -9.70126E+03 -2.37434E+01 -1.44306E+04  9.82569E+03 -1.66269E+04  1.90866E+04 -6.97964E+03
  2.34010E+04  2.50409E+03  1.73976E+04  1.30301E+04  2.67828E+03  1.97403E+04 -8.84590E+03  1.64577E+04
 -1.21461E+04  3.33284E+03 -6.89801E+03 -2.65995E+03  2.51441E+03 -4.99621E+03  8.18613E+03  4.89006E+02
  5.63931E+03  5.59125E+03  1.79825E+03  1.24479E+04 -8.87007E+03  1.12626E+04 -1.60566E+04  2.43672E+03
 -1.02440E+04 -8.41549E+03  9.53696E+02 -1.32371E+04  9.33162E+03 -5.99539E+03  8.59330E+03  3.68855E+03
  1.39184E+03  8.67653E+03 -6.88744E+03  1.08891E+04 -1.45510E+04  5.86688E+03 -1.16331E+04 -4.37084E+03
 -7.79909E+03 -1.54324E+04  3.93987E+03 -1.79026E+04  1.38777E+04 -9.79106E+03  1.67821E+04  3.08138E+03
  9.53352E+03  1.21674E+04 -2.75342E+03  1.46621E+04 -1.20982E+04  8.68702E+03 -1.25739E+04 -6.40583E+02
 -1.08532E+04 -1.08750E+04 -1.22815E+03 -1.09838E+04  6.63227E+03 -9.00096E+03  7.41243E+03 -3.77048E+03
  4.76390E+03  1.44233E+03 -1.55533E+03  3.42338E+03 -1.31383E+03 -4.01251E+03  4.40363E+03 -8.03045E+03
  1.10410E+04 -3.95506E+03  1.57322E+04  1.55693E+03  1.50160E+04  1.15107E+04  1.06288E+04  1.91889E+04
 -4.50213E+03  2.16695E+04 -1.93304E+04  1.70369E+04 -2.47627E+04  2.66832E+03 -2.05043E+04 -7.47034E+03
 -1.07552E+04 -1.71579E+04  3.50638E+02 -1.38711E+04  5.62701E+03 -6.87872E+03  5.52967E+03 -6.02652E+03
  4.81014E+03 -3.33880E+03  4.20068E+03 -3.98364E+03  4.43619E+03 -4.78617E+03  7.58578E+03 -1.35036E+03
  9.77392E+03  1.60610E+03  6.45899E+03  8.16568E+03 -9.02122E+02  1.11534E+04 -1.02755E+04  7.20775E+03
 -1.45830E+04 -1.45885E+03 -8.79121E+03 -9.58425E+03 -5.86174E+02 -1.53434E+04  7.97749E+03 -1.51742E+04
  1.63940E+04 -7.35557E+03  1.69580E+04  3.34435E+03  1.23796E+04  1.20147E+04  2.66797E+03  1.55465E+04
 -5.88475E+03  1.35760E+04 -8.46771E+03  5.27379E+03 -6.28535E+03 -1.60109E+03 -2.90821E+03 -2.84406E+03
 -1.19151E+03  3.48021E+02 -2.77156E+03  4.44628E+03 -6.62331E+03  3.66244E+03 -8.73355E+03 -1.54635E+03
 -7.72305E+03 -1.01480E+04  1.06960E+03 -1.36067E+04  9.52291E+03 -1.17181E+04  1.26953E+04 -3.86585E+03
  1.53069E+04  6.46850E+03  7.23143E+03  1.20866E+04 -2.75169E+03  1.43398E+04 -9.70246E+03  8.91975E+03
 -1.32772E+04 -8.74211E+01 -8.76960E+03 -9.47415E+03 -7.25783E+02 -1.04051E+04  5.80861E+03 -7.05188E+03
  8.82660E+03 -3.96634E+03  7.17563E+03  2.37624E+03  2.90220E+03  4.19576E+03  8.70788E+02  2.66551E+03
  4.24283E+03  1.39720E+03  3.00169E+03  1.73662E+03  2.85623E+03  3.92035E+03  3.27250E+03  7.56550E+03
 -1.64504E+03  1.13617E+04 -1.05596E+04  1.10319E+04 -1.43537E+04  3.87307E+03 -1.56026E+04 -6.32260E+03
 -7.19383E+03 -1.35817E+04  2.22277E+03 -1.68698E+04  9.23006E+03 -1.02211E+04  1.10715E+04 -4.11752E+03
  1.02851E+04  5.39639E+03  2.29080E+03  8.69229E+03 -2.79023E+03  4.39885E+03 -5.53619E+03 -7.51176E+02
 -1.48139E+03 -5.77319E+03  5.03957E+03 -8.52630E+03  5.72235E+03 -4.29085E+03  5.87333E+03  1.49345E+03
  5.88869E+03  3.10911E+03  1.55726E+03  2.38305E+03 -1.00108E+03  3.85329E+03  2.39298E+03  5.23351E+01
  1.95697E+03 -3.70225E+02  5.73448E+03  9.60776E+02  3.94379E+03  7.63933E+03 -3.69771E+02  1.05006E+04
 -6.04450E+03  6.18120E+03 -9.15488E+03  1.90435E+03 -8.42645E+03 -3.26894E+03 -3.11771E+03 -5.98599E+03
  7.06135E+02 -6.25057E+03  4.10956E+03 -2.96483E+03  1.64545E+03  2.92278E+03 -3.19514E+03  5.78582E+03
 -5.08784E+03  2.51024E+03 -6.79147E+03 -3.57572E+03 -3.61855E+03 -8.57959E+03  6.76867E+01 -8.55444E+03
  5.41233E+03 -4.12734E+03  7.18843E+03  4.04207E+02  4.84084E+03  1.94269E+03  3.16696E+02  3.11202E+03
 -1.76614E+03  1.72453E+03 -4.25117E+03 -2.07208E+03  6.28680E+02 -5.22471E+03  7.32769E+03 -5.65125E+03
  1.05064E+04  1.01396E+02  6.92164E+03  5.90900E+03  1.79861E+03  1.06627E+04 -4.55400E+03  8.23696E+03
 -8.61838E+03  4.49576E+03 -8.00958E+03  1.88171E+02 -3.97373E+03 -5.45675E+03  1.10033E+03 -5.41312E+03
  5.46211E+03 -3.16041E+03  4.94332E+03  4.08669E+03  1.68988E+03  6.55498E+03 -2.21370E+03  4.24294E+03
 -3.30375E+03  4.51015E+03 -1.67786E+03  1.38221E+02 -9.29497E+02  4.28436E+02 -1.90744E+03  1.63808E+03
 -1.72130E+03  2.38780E+03 -5.33967E+03  2.07493E+03 -9.16749E+03 -5.83180E+01 -1.08412E+04 -7.23966E+03
 -6.42356E+03 -1.17905E+04  3.10528E+03 -1.47581E+04  9.42184E+03 -1.03051E+04  1.45271E+04 -3.74109E+03
  1.19732E+04  3.81588E+03  8.16237E+03  9.33946E+03  1.10745E+02  9.45070E+03 -4.48619E+03  9.16613E+03
 -6.83163E+03  2.91873E+03 -3.39938E+03 -1.81536E+03 -9.78236E+02 -2.86155E+02 -1.89679E+03  1.93380E+02
 -1.91468E+03  7.29659E+02 -2.90629E+03 -1.06211E+03 -3.54833E+02 -1.94522E+03 -2.69566E+02 -4.28342E+03
  4.15513E+03 -1.79253E+03  5.35597E+03  1.41126E+03  9.19359E+03  6.63030E+03  2.86522E+03  8.72282E+03
 -5.38361E+03  1.12900E+04 -1.05674E+04  6.72283E+03 -1.31329E+04  4.29094E+02 -9.06307E+03 -6.65754E+03
 -3.39778E+03 -1.01145E+04  2.54656E+03 -1.09273E+04  6.61010E+03 -4.28448E+03  5.57995E+03  6.05352E+01
  2.43929E+03  1.77783E+03 -2.24752E+02  1.98659E+03 -1.91267E+03 -9.94609E+02  4.95013E+02 -2.21183E+03
  2.67733E+03 -1.53872E+03  4.85645E+03 -4.66090E+02  8.65360E+02  6.37870E+03  5.90240E+02  6.13839E+03
 -4.67855E+03  6.50588E+03 -6.96364E+03  1.09173E+03 -4.97455E+03 -4.38141E+03 -2.69416E+02 -6.98050E+03
  5.46576E+03 -8.07213E+03  6.99211E+03 -2.82847E+03  9.32515E+03  1.25386E+03  5.22841E+03  5.48260E+03
  5.25182E+02  5.91513E+03 -2.71170E+03  5.07118E+03 -4.51480E+03  3.80770E+03 -3.26771E+03  2.00235E+02
 -1.37500E+03 -6.63787E+02 -3.95005E+03  3.04650E+02 -4.22032E+03  1.51467E+03 -3.30823E+03 -1.35063E+03
 -3.99315E+03 -4.23702E+03 -8.44809E+01 -6.01700E+03  2.92135E+03 -7.26304E+03  5.36709E+03 -2.87054E+03
  7.63810E+03  1.14192E+03  5.57678E+03  4.89702E+03 -8.49087E+02  6.93595E+03 -6.18721E+03  4.84924E+03
