 $NMID ID='MM_0lb_SNR200_13hz_g50_50.RAW', FMTDAT='(8E13.5)'
 TRAMP=1., VOLUME=1. $END
  3.08872E+05  6.95888E+02  3.37704E+05  2.51622E+05  8.45325E+04  3.36825E+05 -1.32186E+05  2.51306E+05
 -1.92018E+05  8.43275E+04 -1.12048E+05 -3.42370E+04  1.78668E+03 -5.13415E+04  5.32343E+04  3.25013E+02
  3.50485E+04  5.31430E+04 -1.79669E+04  7.69223E+04 -6.06891E+04  6.38104E+04 -8.40308E+04  3.10561E+04
 -8.29704E+04 -1.10143E+04 -5.80879E+04 -5.22215E+04 -1.49061E+04 -7.10814E+04  2.81870E+04 -4.57417E+04
  3.96829E+04  4.26823E+03  1.64682E+04  4.76886E+04 -3.44693E+04  4.72652E+04 -6.75267E+04  3.09619E+02
 -5.30130E+04 -5.73762E+04 -7.16843E+03 -7.74413E+04  3.47375E+04 -5.52790E+04  4.78478E+04 -1.84045E+04
  4.43979E+04  1.01907E+04  3.21045E+04  2.46178E+04  1.56048E+04  3.00860E+04 -4.97376E+03  2.65774E+04
 -2.17543E+04  1.23711E+04 -1.93661E+04 -3.93461E+03  5.77396E+03 -6.44508E+03  2.14980E+04  1.29419E+04
  8.27146E+03  3.45008E+04 -3.36136E+04  3.52634E+04 -6.43858E+04  3.19934E+03 -5.70490E+04 -4.30662E+04
 -1.21658E+04 -6.26771E+04  4.02873E+04 -4.59335E+04  5.90458E+04 -2.55168E+03  3.30174E+04  3.33826E+04
 -5.44023E+03  3.78855E+04 -3.01976E+04  1.70428E+04 -3.20183E+04 -4.36492E+03 -1.68792E+04 -1.03960E+04
 -8.68578E+03 -1.33707E+04 -1.13320E+03 -1.93478E+04  7.54115E+03 -2.25877E+04  1.51830E+04 -1.26302E+04
  1.10703E+04  5.92300E+03 -8.21748E+03  1.19189E+04 -2.17879E+04 -4.14008E+03 -8.54967E+03 -3.48262E+04
  2.25876E+04 -4.40678E+04  4.96583E+04 -2.05317E+04  4.53713E+04  2.13359E+04  1.57433E+04  4.63978E+04
 -1.45461E+04  3.37820E+04 -2.61313E+04  1.85312E+03 -1.03827E+04 -2.78567E+04  2.05888E+04 -3.33500E+04
  4.27025E+04 -1.00813E+04  3.68554E+04  2.37415E+04  1.85458E+04  4.71688E+04 -6.96818E+03  5.13491E+04
 -3.13835E+04  3.47662E+04 -4.25051E+04  9.49559E+03 -4.38488E+04 -1.67725E+04 -2.39001E+04 -3.97459E+04
  7.17462E+03 -3.87882E+04  3.13250E+04 -1.57947E+04  2.91850E+04  1.12801E+04  5.16033E+03  1.95047E+04
 -1.39092E+04  8.49071E+03 -1.05145E+04 -8.30044E+03  5.36741E+03 -1.20196E+04  1.74223E+04  6.95579E+03
  1.26632E+04  2.25618E+04 -6.36339E+03  2.45685E+04 -2.13068E+04  1.08677E+04 -2.98733E+04 -4.71430E+03
 -2.00073E+04 -1.76261E+04 -9.58781E+03 -2.15439E+04  5.22001E+03 -2.07301E+04  1.70173E+04 -1.98952E+04
  2.80742E+04 -1.37360E+04  3.31277E+04  3.61889E+03  2.34941E+04  2.12615E+04  4.51510E+03  3.87144E+04
 -1.76538E+04  2.99605E+04 -2.80330E+04  9.76387E+03 -2.01884E+04 -1.05149E+04 -5.41091E+03 -1.26319E+04
  2.02628E+03 -2.38326E+03 -5.11323E+03  6.59496E+03 -1.83501E+04  4.69248E+03 -1.76638E+04 -8.02785E+03
 -9.91398E+03 -2.00736E+04  5.30526E+03 -2.37718E+04  1.62349E+04 -1.80510E+04  1.78440E+04 -1.73598E+03
  1.16230E+04  1.44897E+04 -6.71332E+02  1.97078E+04 -1.42008E+04  1.21150E+04 -2.02261E+04 -4.31464E+03
 -1.45445E+04 -1.68652E+04 -1.88881E+03 -2.44441E+04  1.11573E+04 -2.03519E+04  1.99651E+04 -9.71593E+03
  1.90269E+04  8.64988E+02  1.38969E+04  3.65366E+03  6.19148E+03  1.66086E+03  9.72126E+03 -7.99122E+02
  1.79340E+04  1.97662E+03  2.02268E+04  1.60853E+04  1.33928E+04  3.21954E+04 -2.34152E+03  3.50278E+04
 -2.13914E+04  2.88309E+04 -3.44451E+04  1.59463E+04 -3.64612E+04 -1.87570E+03 -2.97533E+04 -2.02304E+04
 -1.33091E+04 -2.86476E+04  1.03107E+04 -2.67446E+04  2.33163E+04 -1.26801E+04  1.99870E+04  5.88752E+03
  5.92412E+03  1.35678E+04 -8.25051E+03  1.32097E+04 -1.74136E+04  1.93663E+03 -1.24426E+04 -9.90825E+03
 -8.12688E+02 -1.67516E+04  8.73411E+03 -1.21569E+04  1.08001E+04 -2.87008E+03  3.16109E+03  7.67789E+03
 -6.34589E+03  4.09774E+03 -6.50221E+03 -5.27527E+03 -1.22278E+03 -1.47759E+04  1.11047E+04 -1.61291E+04
  1.79376E+04 -8.77723E+03  1.99147E+04  2.30783E+03  1.71595E+04  1.47236E+04  7.52439E+03  2.18311E+04
 -4.01614E+03  2.37834E+04 -1.54799E+04  1.46396E+04 -1.63711E+04  2.82831E+03 -1.17633E+04 -2.52659E+03
 -5.12577E+03 -3.78715E+03 -8.35747E+02  1.17898E+03 -1.55852E+03  2.10079E+03 -6.39919E+03  5.22388E+03
 -1.15996E+04  8.98459E+02 -1.20558E+04 -9.01792E+03 -4.03389E+03 -1.52437E+04  5.31848E+03 -1.15271E+04
  9.19059E+03 -5.75738E+03  8.19973E+03  3.41932E+03  3.68782E+02  4.90856E+03 -4.88026E+03 -6.37549E+02
 -5.87761E+03 -8.10008E+03 -3.29993E+02 -1.18332E+04  6.12668E+03 -1.15992E+04  1.59838E+04 -6.50995E+03
  1.86098E+04  2.66695E+03  1.33859E+04  1.10953E+04  3.83428E+03  1.37599E+04 -7.08794E+03  1.17091E+04
 -1.03146E+04  3.52710E+03 -4.63327E+03 -2.43722E+03  2.54212E+03 -2.79664E+03  7.30030E+03 -6.41727E+02
  6.78474E+03  4.73617E+03  1.50328E+03  1.03501E+04 -6.82029E+03  9.26361E+03 -1.13184E+04  2.19325E+03
 -8.02629E+03 -5.36926E+03  8.95472E+02 -1.08986E+04  5.78100E+03 -4.98448E+03  6.69075E+03  1.75831E+03
  2.74427E+02  6.19789E+03 -5.97271E+03  7.49750E+03 -9.35003E+03  4.24775E+03 -9.11523E+03 -1.95405E+03
 -4.70226E+03 -1.14635E+04  3.15929E+03 -1.24932E+04  1.01999E+04 -7.52474E+03  1.11881E+04  2.46088E+03
  8.70557E+03  9.33028E+03 -1.29378E+03  1.12043E+04 -7.54873E+03  6.35934E+03 -8.66960E+03  2.00641E+02
 -7.26741E+03 -8.57318E+03 -1.47083E+03 -8.11025E+03  4.85474E+03 -7.00351E+03  4.37425E+03 -2.19667E+03
  3.49499E+03  4.87823E+02  2.26648E+02  2.09256E+03 -3.73342E+01 -1.42782E+03  2.28110E+03 -3.64780E+03
  5.81228E+03 -2.00896E+03  1.03376E+04  1.73628E+03  1.02435E+04  6.67574E+03  9.88954E+03  1.38909E+04
 -3.06633E+03  1.64573E+04 -1.37703E+04  1.11860E+04 -1.76614E+04  2.35909E+03 -1.56063E+04 -4.93792E+03
 -7.23142E+03 -1.16821E+04 -2.53800E+02 -9.61865E+03  3.09083E+03 -4.74223E+03  4.48245E+03 -3.00473E+03
  3.01734E+03 -2.73006E+03  3.07297E+03 -2.39476E+03  4.87505E+03 -3.29445E+03  6.72957E+03 -9.53061E+02
  8.29657E+03  8.64793E+02  3.38135E+03  6.24412E+03 -1.49674E+03  5.52212E+03 -6.75036E+03  4.53517E+03
 -9.31832E+03 -6.83672E+02 -5.02680E+03 -6.76184E+03 -6.95659E+02 -1.00754E+04  6.44509E+03 -1.05422E+04
  1.07297E+04 -4.82541E+03  1.25217E+04  2.86500E+03  8.17378E+03  8.13538E+03  2.13567E+03  1.24419E+04
 -3.86953E+03  1.02141E+04 -6.22315E+03  3.88548E+03 -5.60143E+03 -1.76971E+03 -2.16265E+03 -1.87575E+03
 -1.74649E+03 -4.04469E+02 -1.11030E+03  1.63519E+03 -4.18867E+03  2.32988E+03 -7.39077E+03 -1.33646E+03
 -4.65876E+03 -6.90050E+03  1.02821E+03 -9.07580E+03  5.56067E+03 -9.69508E+03  7.70622E+03 -1.80833E+03
  8.89615E+03  3.23068E+03  4.19328E+03  8.32419E+03 -1.26111E+03  9.58884E+03 -5.42680E+03  5.13160E+03
 -8.78004E+03  7.96587E+02 -6.29071E+03 -5.23726E+03 -7.76882E+01 -8.09905E+03  2.62174E+03 -4.98408E+03
  5.70093E+03 -1.15589E+03  2.38701E+03  1.36127E+03  1.91929E+03  1.96452E+03  1.71259E+03  1.77923E+03
  2.16740E+03  6.38728E+02  1.63273E+03  1.85751E+02  3.09893E+03  3.44412E+03  1.85855E+03  4.55164E+03
 -1.84636E+03  7.06987E+03 -6.18064E+03  8.07808E+03 -9.48526E+03  1.52431E+03 -9.81425E+03 -2.51457E+03
 -3.83966E+03 -8.70566E+03  1.11804E+03 -9.62311E+03  4.97505E+03 -5.42801E+03  7.36513E+03  4.39701E+02
  5.11207E+03  3.64557E+03  1.53333E+03  4.90525E+03 -2.77130E+03  2.33377E+03 -3.65836E+03  3.22972E+02
 -1.22703E+03 -3.81084E+03  2.92178E+03 -3.98142E+03  2.80547E+03 -1.66372E+03  3.70385E+03  3.97207E+02
  2.96483E+03  1.43551E+03  2.71288E+02  1.63634E+02 -1.95066E+02  8.50009E+02  1.24412E+03 -5.46207E+02
  1.64214E+03  1.27284E+03  3.27516E+03  1.96380E+03  5.99864E+02  5.79768E+03  7.79978E+02  7.15951E+03
 -5.07374E+03  4.34753E+03 -6.36112E+03  1.67123E+03 -4.39541E+03 -1.54526E+03 -9.20063E+02 -3.32726E+03
  1.29665E+03 -3.14000E+03  1.60431E+03 -1.96043E+03  1.40660E+03  2.85207E+03 -2.24833E+03  3.10204E+03
 -2.73395E+03  2.17439E+03 -3.09263E+03 -3.21762E+03 -3.32411E+03 -3.56604E+03 -3.09426E+02 -5.02203E+03
  3.81729E+03 -1.80076E+03  3.72359E+03  2.33749E+01  1.54229E+03  1.54486E+03 -1.05686E+03  2.35141E+03
 -1.72970E+03  6.31155E+02 -1.05760E+03 -6.54899E+02  2.14971E+03 -3.84934E+03  4.51775E+03 -2.27636E+03
  5.18983E+03  6.09508E+02  5.31441E+03  2.61264E+03  2.59145E+03  4.64657E+03 -1.47311E+03  4.61593E+03
 -4.26573E+03  1.40253E+03 -3.62932E+03 -1.42574E+03 -2.52761E+03 -4.04345E+03  5.95247E+02 -2.94843E+03
  4.33567E+03 -9.84764E+02  1.74498E+03  2.59460E+03 -3.21612E+02  3.34567E+03 -1.14236E+03  2.11234E+03
 -1.23310E+03  1.31456E+03 -1.47806E+03  3.68081E+02 -1.22477E+03  2.05276E+03 -1.49895E+03  1.61117E+03
 -1.70267E+03  1.94869E+03 -4.31367E+03  1.48134E+03 -3.83095E+03 -1.22957E+03 -6.87780E+03 -3.06656E+03
 -3.24691E+03 -5.79983E+03  2.96759E+03 -8.40741E+03  3.48253E+03 -6.68315E+03  7.15326E+03 -2.29108E+03
  6.82739E+03  8.60005E+02  4.78554E+03  3.73667E+03  3.99903E+02  5.55259E+03 -1.75828E+03  3.19198E+03
 -3.04776E+03  1.74467E+03 -1.52082E+03 -1.18361E+03 -1.03987E+03 -1.25222E+03 -2.63402E+02 -3.65650E+02
 -9.68483E+02  5.38872E+02 -1.31028E+03 -1.10041E+03 -3.18808E+02 -1.28621E+03  5.62218E+02 -2.98480E+03
  2.86277E+03 -1.85522E+03  2.96011E+03 -3.60426E+01  4.37125E+03  1.62288E+03  1.08729E+02  5.00558E+03
 -3.97522E+03  5.83361E+03 -5.36700E+03  2.27075E+03 -6.39901E+03 -1.12846E+02 -4.62645E+03 -4.29577E+03
 -3.09298E+03 -5.08289E+03  2.99446E+03 -3.33790E+03  2.78098E+03 -2.44869E+03  2.67387E+03  4.91661E+02
  2.24168E+03  9.15946E+02 -9.94919E+02  1.58452E+03 -1.12864E+03  6.08228E+02  7.89649E+02 -1.00660E+03
  2.23097E+03 -4.09441E+02  2.40838E+03  3.48382E+02  1.36611E+03  2.30416E+03  4.81726E+02  2.95076E+03
 -1.94023E+03  2.46985E+03 -2.06796E+03 -5.30437E+02 -3.85405E+03 -7.50694E+02 -2.47512E+02 -3.92754E+03
  1.93636E+03 -1.99167E+03  1.93325E+03 -6.73434E+02  3.33974E+03  9.66670E+02  2.20011E+03  3.27885E+03
  1.50974E+03  2.23190E+03 -7.22001E+02  3.04875E+03 -1.48683E+03  2.50858E+02 -1.81238E+03 -2.90848E+02
 -6.94379E+02  7.77186E+02 -1.43910E+03 -8.23296E+01 -1.71638E+03  1.24421E+03 -2.26838E+03 -6.23972E+02
 -2.22873E+03 -1.61128E+03 -7.05809E+02 -3.39011E+03  1.76810E+03 -3.23062E+03  3.47559E+03 -8.89345E+02
  3.02090E+03 -2.14738E+02  1.68339E+03  1.79283E+03  8.93065E+02  3.37136E+03 -2.71106E+03  1.72109E+03
