 $NMID ID='MM_0lb_SNR200_16hz_g50_47.RAW', FMTDAT='(8E13.5)'
 TRAMP=1., VOLUME=1. $END
  3.09986E+05 -2.24395E+02  3.37324E+05  2.49870E+05  8.48042E+04  3.37832E+05 -1.32762E+05  2.51577E+05
 -1.91300E+05  8.30173E+04 -1.11266E+05 -3.30985E+04  1.40559E+03 -4.89381E+04  5.47359E+04 -3.49147E+02
  3.50675E+04  5.33581E+04 -1.65783E+04  7.66532E+04 -6.04186E+04  6.31094E+04 -8.32781E+04  3.18445E+04
 -8.05733E+04 -1.12510E+04 -5.68255E+04 -5.07146E+04 -1.45609E+04 -6.89516E+04  2.76567E+04 -4.46264E+04
  3.97102E+04  3.77939E+03  1.48377E+04  4.73626E+04 -3.50885E+04  4.76065E+04 -6.61599E+04  1.15058E+01
 -5.35337E+04 -5.62134E+04 -5.65709E+03 -7.75342E+04  3.30204E+04 -5.44113E+04  4.63012E+04 -1.74372E+04
  4.32122E+04  1.21409E+04  3.15925E+04  2.46590E+04  1.63908E+04  2.92301E+04 -5.02345E+03  2.67746E+04
 -2.25444E+04  1.36561E+04 -1.82618E+04 -5.39390E+03  4.73172E+03 -8.69748E+03  2.25462E+04  1.12037E+04
  8.35995E+03  3.38661E+04 -3.21570E+04  3.39638E+04 -6.23795E+04  2.32894E+03 -5.62786E+04 -4.15927E+04
 -1.13107E+04 -6.23548E+04  3.89622E+04 -4.49323E+04  5.84293E+04 -2.99618E+03  3.34341E+04  3.20950E+04
 -5.79573E+03  3.44875E+04 -2.98737E+04  1.46322E+04 -2.87065E+04 -3.95021E+03 -1.58951E+04 -1.04266E+04
 -8.19361E+03 -1.23279E+04 -1.53886E+03 -1.78569E+04  7.11467E+03 -2.24036E+04  1.59701E+04 -1.37309E+04
  1.14196E+04  4.37558E+03 -8.03189E+03  1.26321E+04 -1.94104E+04 -3.79955E+03 -8.05262E+03 -3.20146E+04
  2.16727E+04 -4.28309E+04  4.71578E+04 -1.93958E+04  4.49796E+04  1.84896E+04  1.54215E+04  4.31114E+04
 -1.61414E+04  3.27163E+04 -2.54129E+04  1.39219E+03 -9.66978E+03 -2.91099E+04  2.11062E+04 -3.30753E+04
  4.03122E+04 -9.03402E+03  3.45063E+04  2.26505E+04  1.57885E+04  4.51344E+04 -8.25038E+03  4.85968E+04
 -3.12309E+04  3.30193E+04 -4.13562E+04  9.28728E+03 -4.14572E+04 -1.57376E+04 -2.25640E+04 -3.84112E+04
  6.16947E+03 -3.65226E+04  3.05520E+04 -1.35797E+04  2.90177E+04  1.00941E+04  4.19415E+03  1.97531E+04
 -1.38125E+04  8.57177E+03 -9.80829E+03 -7.27769E+03  6.14879E+03 -9.84508E+03  1.74040E+04  5.87273E+03
  1.29235E+04  2.19002E+04 -7.02369E+03  2.43017E+04 -2.25471E+04  1.06947E+04 -2.68923E+04 -5.54652E+03
 -1.94462E+04 -1.74358E+04 -8.09251E+03 -1.89945E+04  3.97436E+03 -1.77350E+04  1.50274E+04 -1.68014E+04
  2.42178E+04 -1.25973E+04  3.02362E+04  1.40990E+03  2.21503E+04  1.85455E+04  4.96143E+03  3.42766E+04
 -1.70582E+04  2.85314E+04 -2.66351E+04  9.85994E+03 -2.06378E+04 -9.83600E+03 -4.36970E+03 -1.41449E+04
  2.23214E+03 -3.13550E+03 -3.60085E+03  5.88831E+03 -1.43991E+04  6.07540E+03 -1.43854E+04 -5.45430E+03
 -8.96485E+03 -1.75177E+04  5.85386E+03 -2.21164E+04  1.33573E+04 -1.48935E+04  1.77851E+04 -1.24804E+03
  1.14694E+04  1.25682E+04  3.54743E+02  1.77442E+04 -1.22327E+04  1.03722E+04 -1.68142E+04 -2.83601E+03
 -1.25048E+04 -1.65079E+04 -1.53592E+03 -2.12119E+04  1.05401E+04 -1.71524E+04  1.78915E+04 -8.71560E+03
  1.62171E+04  9.61381E+02  1.24202E+04  4.29037E+03  6.68840E+03  1.11024E+03  9.05626E+03 -9.12358E+02
  1.48522E+04  2.48346E+03  1.75938E+04  1.43812E+04  1.14133E+04  2.86602E+04 -2.59414E+03  3.22136E+04
 -1.90736E+04  2.47858E+04 -2.91305E+04  1.28029E+04 -3.06049E+04 -1.89796E+03 -2.46625E+04 -1.60616E+04
 -1.10557E+04 -2.46151E+04  7.93660E+03 -2.34827E+04  1.83198E+04 -1.27109E+04  1.78784E+04  4.69143E+03
  6.99093E+03  1.25502E+04 -7.95028E+03  1.08303E+04 -1.45319E+04  2.08432E+03 -1.23306E+04 -9.71696E+03
 -4.72500E+01 -1.41372E+04  6.99476E+03 -9.93177E+03  8.73098E+03  4.83393E+02  2.41936E+03  7.04197E+03
 -5.91722E+03  2.17927E+03 -5.21721E+03 -5.13739E+03 -8.91918E+02 -1.18052E+04  7.72914E+03 -1.32326E+04
  1.47467E+04 -5.54392E+03  1.58331E+04  3.35875E+03  1.32436E+04  1.11705E+04  6.27907E+03  1.71832E+04
 -3.06685E+03  1.92552E+04 -1.15680E+04  1.23712E+04 -1.46492E+04  2.89629E+03 -8.98779E+03 -2.16810E+03
 -4.81552E+03 -4.23617E+03 -8.62559E+02  9.46925E+02 -1.94256E+03  1.92076E+03 -3.85017E+03  3.63473E+03
 -9.46814E+03 -7.18170E+02 -9.83267E+03 -8.86605E+03 -4.13689E+03 -1.34741E+04  4.17898E+03 -1.06479E+04
  8.41310E+03 -4.47574E+03  5.55418E+03  3.85642E+03  1.38609E+02  4.00501E+03 -4.97862E+03 -1.02032E+03
 -3.55261E+03 -6.70980E+03 -1.11619E+03 -8.09397E+03  5.10799E+03 -1.11124E+04  1.27444E+04 -5.95999E+03
  1.37316E+04  9.74503E+02  1.12780E+04  7.46932E+03  1.71728E+03  1.10232E+04 -6.80967E+03  9.26133E+03
 -6.50653E+03  3.50047E+03 -3.87282E+03 -9.44501E+02  6.02692E+02 -2.19659E+03  5.40804E+03 -1.23318E+03
  4.98382E+03  4.44900E+03  1.86924E+03  7.05743E+03 -5.54725E+03  7.93117E+03 -8.95475E+03  1.66646E+03
 -5.83692E+03 -3.53059E+03 -1.84893E+01 -8.15160E+03  4.80438E+03 -4.97137E+03  5.75800E+03  1.40833E+03
  1.02775E+03  4.59247E+03 -4.25909E+03  6.01999E+03 -5.70712E+03  2.96204E+03 -6.39043E+03 -1.61091E+03
 -3.23688E+03 -8.60799E+03  1.51134E+03 -9.52205E+03  7.62408E+03 -6.45827E+03  9.10834E+03  2.63828E+03
  5.86182E+03  7.46340E+03 -4.96302E+01  8.42383E+03 -6.37393E+03  5.49965E+03 -6.84297E+03 -1.32013E+02
 -6.44485E+03 -5.67209E+03 -1.16623E+03 -6.25900E+03  3.73136E+03 -5.32261E+03  3.48358E+03 -2.57280E+03
  4.13221E+03 -1.49072E+02  4.69557E+02  1.42402E+03 -3.20348E+02 -8.00614E+01  1.34118E+03 -3.01646E+03
  4.73713E+03 -1.40425E+03  7.68163E+03  5.09529E+02  8.15456E+03  3.47250E+03  6.14177E+03  8.79018E+03
 -1.82278E+03  1.13052E+04 -1.03227E+04  8.59073E+03 -1.25935E+04  1.66726E+03 -9.35028E+03 -3.66965E+03
 -5.25823E+03 -8.56615E+03 -4.16189E+02 -7.15649E+03  2.62627E+03 -2.85388E+03  1.97789E+03 -2.71724E+03
  1.41098E+03 -2.20505E+03  1.50819E+03 -3.04612E+03  3.32388E+03 -6.85537E+02  4.02614E+03  3.51197E+02
  5.71351E+03  1.56704E+03  2.46288E+03  3.82474E+03 -1.94280E+03  4.31368E+03 -5.80102E+03  3.46654E+03
 -7.19094E+03  5.58789E+00 -2.44742E+03 -5.47716E+03 -3.79450E+02 -5.96387E+03  4.82586E+03 -7.97075E+03
  8.13368E+03 -4.21051E+03  8.19139E+03  5.05693E+02  7.02938E+03  6.59601E+03  1.46744E+03  8.05237E+03
 -3.73740E+03  8.14844E+03 -4.95816E+03  2.85316E+03 -3.64658E+03 -1.14428E+03 -1.69883E+03 -1.85963E+03
 -1.22781E+03 -5.35301E+02 -1.22780E+03  1.39305E+03 -4.12905E+03 -3.03902E+02 -4.51571E+03  1.94420E+01
 -1.49280E+03 -5.88041E+03 -3.49232E+02 -7.07211E+03  3.32789E+03 -6.17981E+03  5.35910E+03 -2.47770E+03
  6.89248E+03  1.96461E+03  3.44004E+03  5.84665E+03 -1.81008E+03  6.63950E+03 -4.00588E+03  3.94962E+03
 -6.17370E+03  2.04153E+00 -3.86696E+03 -3.48242E+03 -9.38303E+01 -5.43156E+03  2.24374E+03 -3.86079E+03
  4.13863E+03 -2.54410E+03  2.79038E+03  1.59113E+03  1.40822E+03  2.84496E+03  1.15471E+03  1.91058E+03
  1.46678E+03  9.35888E+02  1.80482E+03  1.66111E+03  1.93857E+03  3.46205E+03  4.85085E+02  3.12101E+03
 -1.19837E+03  4.34399E+03 -3.23327E+03  5.80725E+03 -5.19584E+03  9.35307E+02 -5.72539E+03 -2.17850E+01
 -1.99651E+03 -5.36017E+03  1.16692E+03 -6.60454E+03  4.41832E+03 -4.23508E+03  3.68967E+03 -1.91349E+03
  3.51773E+03  1.20840E+03 -2.84158E+02  2.83086E+03 -2.09289E+03  1.05420E+03 -5.09590E+02 -6.74240E+02
 -9.51382E+02 -2.34610E+03  1.32043E+03 -2.74148E+03  1.92837E+03 -1.25703E+03  2.88009E+03  6.64294E+02
  1.80022E+03  8.45778E+02  2.23120E+02 -2.13342E+02  6.25960E+02  2.42495E+02  1.38448E+03 -1.51026E+03
 -2.31645E+02  5.75694E+02  1.77322E+03  3.94831E+02  1.55892E+03  3.52348E+03 -5.15949E+02  4.40978E+03
 -2.92048E+03  1.62972E+03 -2.20479E+03  1.14598E+03 -3.52165E+03 -6.87374E+02  4.29731E+02 -1.71513E+03
  1.07254E+03 -1.96714E+03  6.08994E+02 -1.21722E+03  9.28110E+01  1.93513E+03 -1.79790E+03  1.07570E+03
 -2.45395E+03  9.19081E+02 -2.03906E+03 -1.33892E+03 -1.38577E+03 -2.62234E+03  5.03306E+02 -2.77962E+03
  1.80818E+03 -1.12270E+03  1.97137E+03  9.00134E+02  1.63856E+03  3.06795E+02 -3.96978E+02  1.60164E+03
  1.18313E+03 -6.51477E+01 -1.31492E+03  4.82478E+02  1.11369E+03 -1.69438E+03  2.53590E+03 -1.41907E+03
  3.34183E+03 -4.21316E+02  2.60276E+03  9.50759E+02  1.39591E+03  2.87492E+03 -4.09714E+02  2.58821E+03
 -1.82925E+03  5.80587E+02 -1.82724E+03 -8.01158E+02 -1.47575E+03 -2.27424E+03 -1.01520E+03 -1.83877E+02
  1.78604E+03 -5.15437E+02  1.36036E+03  1.23310E+03 -5.05161E+02  1.18710E+03 -6.14472E+02  1.80496E+03
  4.20343E+02  1.30795E+03 -1.21146E+02  6.42913E+02 -8.08988E+01  1.14980E+03 -4.99805E+02  1.18133E+03
 -5.07862E+02  1.61683E+03 -1.78667E+03  4.44590E+02 -2.52255E+03  1.84650E+02 -2.71735E+03 -7.81754E+02
 -1.97811E+03 -3.78549E+03  7.10671E+02 -4.10437E+03  2.64946E+03 -3.16361E+03  4.34023E+03 -2.98747E+03
  5.20910E+03  1.10165E+03  2.46560E+03  2.54275E+03 -7.34261E+02  2.36760E+03 -6.80124E+02  3.02181E+03
 -1.60917E+03  1.41959E+03 -4.23529E+02 -7.10588E+02 -9.67038E+02  3.70572E+02 -2.74501E+02 -1.33379E+02
 -1.62709E+03 -6.37205E+02 -3.04355E+02 -7.04342E+02  3.04831E+02 -8.40767E+02 -2.05596E+02 -1.35735E+03
  1.60590E+03 -9.32573E+02  1.75208E+03  5.67087E+02  2.13647E+03  1.28702E+03 -5.15001E+02  3.06358E+03
 -4.27979E+02  3.50651E+03 -2.00311E+03  3.82272E+03 -2.70146E+03 -1.71858E+03 -1.56855E+03 -1.53814E+03
 -1.24803E+03 -2.44603E+03  3.47047E+02 -1.67179E+03  2.09199E+03 -1.06743E+02  1.73037E+03  5.77694E+02
  1.42007E+03 -6.36190E+02  3.37263E+02  5.46291E+02  4.46390E+01 -5.30659E+02  1.74669E+02 -2.20335E+02
  1.41699E+03  5.11630E+02  7.94626E+02  1.47921E+03 -2.89114E+02 -1.40446E+02  6.03132E+02  1.46930E+03
 -1.11549E+03  1.62138E+02 -1.85844E+03 -2.81314E+02 -8.67864E+02 -1.21963E+03  3.87338E+02 -1.83031E+03
  1.34899E+03 -2.00399E+03  2.51980E+03  6.82152E+01  7.72985E+02 -9.55745E+02  1.16242E+03  4.06305E+02
  7.51573E+02 -3.85317E+01 -4.96074E+02  8.99441E+02 -1.16186E+03  4.42262E+02 -4.28885E+02  6.10599E+02
  2.72764E+02  9.44062E+01  6.20458E+01  1.25716E+02 -7.88646E+02  3.11898E+02  1.05781E+02 -5.98973E+02
 -1.75573E+03 -1.60453E+03 -1.15987E+03 -1.28647E+03  5.74391E+02 -1.73021E+03  1.25965E+03 -1.80249E+03
  1.88743E+03  1.24523E+02 -8.23202E+01  5.28195E+02  8.15576E+02  5.54587E+02 -5.84490E+02  9.33493E+02
