 $NMID ID='MM_0lb_SNR200_15hz_g40_57.RAW', FMTDAT='(8E13.5)'
 TRAMP=1., VOLUME=1. $END
  3.09849E+05  9.66344E+02  3.38766E+05  2.52199E+05  8.49332E+04  3.37281E+05 -1.32425E+05  2.50147E+05
 -1.90022E+05  8.41760E+04 -1.10216E+05 -3.30743E+04  9.22261E+02 -5.03152E+04  5.45265E+04 -3.20740E+02
  3.45835E+04  5.29836E+04 -1.66331E+04  7.50780E+04 -6.03457E+04  6.37779E+04 -8.36008E+04  3.15340E+04
 -8.07316E+04 -1.14445E+04 -5.74705E+04 -5.13465E+04 -1.59495E+04 -6.94209E+04  2.69076E+04 -4.57756E+04
  4.00121E+04  4.26896E+03  1.52473E+04  4.76267E+04 -3.41166E+04  4.62215E+04 -6.55177E+04 -8.57362E+02
 -5.23832E+04 -5.70389E+04 -6.34588E+03 -7.52205E+04  3.41730E+04 -5.44339E+04  4.77162E+04 -1.56400E+04
  4.23740E+04  1.05116E+04  3.17335E+04  2.51392E+04  1.50706E+04  2.98015E+04 -5.34617E+03  2.74603E+04
 -2.17339E+04  1.27892E+04 -1.94649E+04 -4.02309E+03  5.92468E+03 -7.82521E+03  2.16768E+04  1.14996E+04
  7.66634E+03  3.39431E+04 -3.13491E+04  3.47891E+04 -6.33277E+04  3.21909E+03 -5.55558E+04 -4.16792E+04
 -1.21196E+04 -6.27261E+04  3.96899E+04 -4.43260E+04  5.77848E+04 -2.65409E+03  3.32852E+04  3.20711E+04
 -7.12218E+03  3.36007E+04 -2.97144E+04  1.48004E+04 -2.98893E+04 -4.03390E+03 -1.45589E+04 -1.12759E+04
 -7.85082E+03 -1.27037E+04 -4.84896E+02 -1.74177E+04  7.17345E+03 -2.37116E+04  1.61337E+04 -1.35337E+04
  1.18939E+04  4.48170E+03 -7.60214E+03  1.33061E+04 -2.08910E+04 -3.79448E+03 -7.60905E+03 -3.26146E+04
  2.07702E+04 -4.34857E+04  4.61578E+04 -2.06174E+04  4.32042E+04  1.75722E+04  1.50066E+04  4.23762E+04
 -1.55788E+04  3.10449E+04 -2.48355E+04  1.65441E+03 -9.91056E+03 -2.75101E+04  2.07034E+04 -3.22338E+04
  4.01101E+04 -7.37084E+03  3.36080E+04  2.36599E+04  1.65662E+04  4.56216E+04 -8.26101E+03  4.78275E+04
 -3.01948E+04  3.19478E+04 -3.94334E+04  8.43999E+03 -4.07678E+04 -1.67589E+04 -2.29621E+04 -3.70953E+04
  7.57689E+03 -3.58578E+04  3.01968E+04 -1.38781E+04  2.85921E+04  1.08923E+04  3.09809E+03  1.92555E+04
 -1.32014E+04  8.48870E+03 -1.00339E+04 -8.00678E+03  5.56813E+03 -1.18816E+04  1.73146E+04  5.78360E+03
  1.27463E+04  2.02688E+04 -5.17632E+03  2.44882E+04 -2.28367E+04  1.08051E+04 -2.78424E+04 -6.62485E+03
 -1.91440E+04 -1.69051E+04 -7.58848E+03 -1.83310E+04  3.41378E+03 -1.69962E+04  1.37034E+04 -1.61224E+04
  2.32718E+04 -1.27751E+04  3.12305E+04  2.54936E+03  2.34134E+04  1.90400E+04  5.41247E+03  3.42956E+04
 -1.65574E+04  2.89465E+04 -2.80521E+04  9.59205E+03 -2.01649E+04 -1.14536E+04 -4.43541E+03 -1.46652E+04
  2.65519E+03 -3.46938E+03 -4.36586E+03  5.78338E+03 -1.45538E+04  5.94350E+03 -1.40935E+04 -6.70429E+03
 -1.04105E+04 -1.74238E+04  4.68342E+03 -2.10401E+04  1.39244E+04 -1.59499E+04  1.60053E+04 -1.64443E+03
  1.07119E+04  1.28057E+04 -5.86347E+02  1.73400E+04 -1.18011E+04  9.49215E+03 -1.79388E+04 -3.27947E+03
 -1.18372E+04 -1.45805E+04 -1.28233E+03 -2.24645E+04  8.87368E+03 -1.67652E+04  1.75265E+04 -9.28245E+03
  1.68278E+04 -6.38672E+02  1.11881E+04  5.49056E+03  6.09310E+03  8.63735E+02  8.69025E+03 -7.91443E+02
  1.39912E+04  2.58355E+03  1.63225E+04  1.46054E+04  1.06302E+04  2.78674E+04 -3.10295E+03  3.07466E+04
 -1.78734E+04  2.40236E+04 -2.80083E+04  1.31563E+04 -3.04139E+04 -2.49425E+03 -2.52472E+04 -1.67528E+04
 -1.06345E+04 -2.49726E+04  8.21869E+03 -2.22546E+04  1.94484E+04 -1.17402E+04  1.80707E+04  5.09343E+03
  7.06129E+03  1.28316E+04 -6.20399E+03  1.07090E+04 -1.49168E+04  2.43369E+03 -1.16640E+04 -8.80688E+03
 -3.75020E+02 -1.44642E+04  7.67249E+03 -1.12541E+04  8.94332E+03 -2.14431E+03  2.07164E+03  6.52512E+03
 -5.53254E+03  3.48851E+03 -6.01559E+03 -3.94945E+03  4.14706E+02 -1.27135E+04  9.05286E+03 -1.23252E+04
  1.44423E+04 -5.83936E+03  1.60126E+04  2.87231E+03  1.46800E+04  1.18172E+04  6.99437E+03  1.77368E+04
 -1.77880E+03  1.95278E+04 -1.14707E+04  1.18297E+04 -1.38364E+04  3.42930E+03 -1.08237E+04 -3.21552E+03
 -5.20467E+03 -4.55607E+03  1.09289E+03  2.27026E+02 -2.83635E+03  2.47242E+03 -4.30508E+03  3.14146E+03
 -1.01104E+04 -1.18880E+03 -1.03824E+04 -7.80516E+03 -4.37595E+03 -1.34024E+04  3.32094E+03 -1.02530E+04
  8.39322E+03 -3.74725E+03  5.46681E+03  2.65384E+03  7.49437E+02  4.64605E+03 -3.82598E+03 -6.21399E+02
 -4.21560E+03 -6.24334E+03 -8.83292E+02 -9.57263E+03  5.92265E+03 -9.49259E+03  1.17791E+04 -5.45748E+03
  1.46271E+04  1.63318E+03  1.08108E+04  7.76876E+03  1.75158E+03  1.17606E+04 -6.99855E+03  1.03501E+04
 -8.33400E+03  2.98061E+03 -4.73273E+03 -1.34568E+03  2.90023E+03 -1.47496E+03  5.81750E+03 -1.55029E+03
  4.36849E+03  3.77457E+03  8.79265E+02  7.58870E+03 -3.74466E+03  7.52597E+03 -9.33440E+03  1.32958E+03
 -7.07309E+03 -4.84496E+03  2.09708E+02 -8.81888E+03  4.49670E+03 -4.68228E+03  4.55993E+03  2.27809E+03
  1.58906E+03  4.09326E+03 -6.04878E+03  6.34421E+03 -7.52609E+03  2.67660E+03 -7.80934E+03 -1.21930E+03
 -5.86719E+03 -8.20446E+03  1.07291E+03 -8.33000E+03  8.54004E+03 -6.58627E+03  9.67333E+03  2.52970E+03
  6.29246E+03  8.02252E+03 -1.00162E+03  9.61533E+03 -6.68453E+03  5.31420E+03 -8.48958E+03  3.65826E+01
 -6.93609E+03 -5.79000E+03 -1.46579E+03 -6.27679E+03  4.05213E+03 -5.50247E+03  3.40428E+03 -2.89073E+03
  2.99730E+03  7.65817E+02 -1.20926E+03  1.44940E+03  7.63736E+02 -5.61263E+01  8.69913E+02 -2.93954E+03
  4.89177E+03 -1.46033E+03  7.95648E+03  1.33749E+03  8.86405E+03  5.13145E+03  6.58285E+03  1.01127E+04
 -2.07880E+03  1.16388E+04 -1.03920E+04  8.42759E+03 -1.36844E+04  1.66795E+03 -1.04326E+04 -3.71352E+03
 -6.02207E+03 -8.69688E+03 -7.28990E+02 -6.93624E+03  2.75393E+03 -2.91997E+03  2.14261E+03 -2.96022E+03
  1.93141E+03 -1.87914E+03  2.34114E+03 -3.52544E+03  4.21419E+03 -1.16673E+03  4.63496E+03 -5.12904E+02
  6.61233E+03  3.91642E+02  1.78570E+03  4.36839E+03 -1.48657E+03  5.45616E+03 -5.35887E+03  4.32217E+03
 -8.76507E+03 -5.81587E+02 -3.52912E+03 -4.52494E+03 -9.49071E+01 -6.94312E+03  4.07243E+03 -7.48419E+03
  7.80049E+03 -3.71123E+03  1.00466E+04  5.69751E+02  7.29542E+03  5.91490E+03  1.10368E+03  9.38822E+03
 -3.53721E+03  8.02494E+03 -5.09973E+03  2.89725E+03 -3.17075E+03 -1.41019E+03 -1.44431E+03 -1.50876E+03
 -1.84686E+02 -1.70437E+01 -6.72804E+02  2.47003E+03 -2.71670E+03  4.89772E+02 -6.40771E+03 -1.65300E+03
 -2.27387E+03 -5.79152E+03  2.72946E+02 -7.37025E+03  3.39260E+03 -6.75027E+03  6.41906E+03 -1.43001E+03
  5.81417E+03  4.53431E+03  1.88892E+03  6.52165E+03 -1.19786E+01  6.27882E+03 -4.70989E+03  4.04585E+03
 -5.44546E+03  3.68319E+02 -3.69595E+03 -3.68890E+03 -2.76290E+02 -6.59849E+03  1.63735E+03 -2.94812E+03
  3.45585E+03 -1.45631E+03  2.15037E+03  9.68477E+02  2.40183E+03  2.12908E+03  2.02414E+03 -8.28905E+01
  2.79409E+03  6.58818E+02  1.71353E+03  1.42832E+03  2.48949E+03  2.90837E+03  1.67414E+03  2.42758E+03
 -1.86452E+03  5.51325E+03 -5.35165E+03  6.18866E+03 -6.14293E+03  1.46428E+03 -7.34772E+03 -1.94379E+03
 -2.52547E+03 -6.73532E+03  8.58649E+02 -7.47442E+03  3.02399E+03 -3.23710E+03  6.65152E+03 -1.51310E+03
  3.74723E+03  3.43938E+03  1.12035E+03  3.91194E+03 -2.39177E+03  1.65151E+03 -3.05798E+03 -1.92101E+02
 -2.65397E+03 -3.50977E+03  1.44515E+03 -1.30256E+03  3.61054E+03 -1.34646E+03  1.91151E+03  6.34828E+02
  8.25221E+02  7.10503E+02 -8.48852E+01  2.10993E+02 -1.20507E+03  2.78196E+02  1.75630E+03 -3.88381E+02
  1.76663E+02 -1.10695E+03  3.17152E+03  2.20595E+02  1.12574E+03  4.03237E+03 -9.48259E+02  3.15870E+03
 -2.79010E+03  2.29587E+03 -2.72845E+03  9.57456E+02 -2.96155E+03 -1.65577E+03 -1.38890E+03 -1.57261E+03
  1.41448E+02 -1.66207E+03  1.60514E+03 -1.32207E+03  7.96098E+02  9.94409E+02 -2.85298E+01  1.55506E+03
 -2.80280E+03  9.40029E+02 -2.45381E+03 -1.88050E+03 -6.52329E+02 -4.17116E+03  3.73169E+02 -3.74610E+03
  1.05377E+03 -1.37800E+03  2.69291E+03  6.04609E+02  1.88614E+03 -8.99431E+02  8.54366E+02  2.20476E+03
 -1.34291E+03  1.40827E+03 -5.50702E+02 -1.32617E+03 -3.11583E+02 -1.82400E+03  3.14272E+03 -1.69741E+03
  3.05264E+03  8.19826E+01  4.77678E+03  2.89344E+03  1.51509E+03  2.55709E+03 -1.68455E+03  3.72413E+03
 -2.97990E+03  1.07849E+03 -3.46580E+03  2.53955E+02 -3.10628E+03 -2.06720E+03 -2.20470E+02 -2.24440E+03
  3.67413E+03 -1.75850E+03  1.49179E+03  1.39692E+03 -8.13318E+01  2.28776E+03 -1.30378E+03  3.01873E+03
  4.20747E+02  1.30508E+03 -1.13990E+03  1.96382E+02  7.10259E+02  2.08066E+02 -2.00087E+02 -1.32136E+03
 -1.62099E+03  1.52905E+03 -3.12706E+03  1.86365E+03 -2.48056E+03  7.64303E+02 -4.43888E+03 -1.73902E+03
 -2.18181E+03 -3.60071E+03  1.33771E+03 -4.47895E+03  3.14497E+03 -5.03402E+03  5.28204E+03 -2.28604E+03
  5.09279E+03  2.39064E+02  1.65526E+03  3.70304E+03  7.07458E+02  2.75040E+03 -1.48234E+03  1.88191E+03
 -2.28557E+03  1.32134E+03  7.77379E+02  1.97833E+01 -1.56612E+03  2.70370E+02 -1.56880E+03  5.12273E+02
 -1.49482E+03 -1.42047E+02 -3.23509E+02 -6.97612E+01 -1.41578E+02 -1.28865E+03  7.34912E+02 -7.62005E+02
  1.65008E+03  2.61801E+01  2.59652E+03 -4.91875E+02  1.55926E+03  1.82727E+03 -1.73340E+02  3.83031E+03
 -1.98154E+03  3.86072E+03 -3.33813E+03  2.31690E+03 -3.07712E+03  1.16436E+03 -3.66107E+03 -2.92427E+03
 -1.79778E+03 -2.94400E+03  5.74203E+02 -2.29542E+03  1.71677E+03 -1.49734E+03  2.17230E+03  1.21975E+03
  2.19485E+03  4.24279E+02 -2.70081E+02  8.99419E+02 -1.22139E+03  1.00313E+03  3.79444E+02 -1.00083E+02
  1.14844E+03 -3.22941E+02  1.41534E+03  5.09437E+02  1.37237E+02  1.57138E+03 -5.63656E+02  1.09532E+03
 -1.63765E+03  1.37448E+03 -1.10634E+03  1.18730E+03 -2.37900E+03 -5.02810E+01  4.61451E+02 -2.94860E+03
  8.36172E+02 -1.05603E+03  1.29661E+03 -1.39361E+03  3.44290E+03 -4.68581E+02  3.73071E+02  1.90855E+03
  3.18063E+02  1.66295E+03 -5.65594E+02  1.38723E+03 -1.85912E+03  1.31313E+03 -1.90011E+03  1.17509E+02
 -3.40666E+01 -4.35142E+02 -4.46001E+02  8.59838E+02 -2.53630E+03  3.07752E+02 -1.11509E+03 -7.12973E+02
 -1.72219E+03 -5.26355E+02 -5.67376E+02 -2.23994E+03  2.00856E+03 -1.56859E+03  1.34677E+03 -3.96007E+02
  1.60129E+03  9.98679E+02  6.44996E+02  7.31107E+02  1.65752E+02  1.22995E+03 -1.71417E+03  1.81049E+03
