 $NMID ID='MM_0lb_SNR200_13hz_g55_80.RAW', FMTDAT='(8E13.5)'
 TRAMP=1., VOLUME=1. $END
  3.09680E+05  8.70009E+02  3.36531E+05  2.51255E+05  8.45261E+04  3.39365E+05 -1.33465E+05  2.52221E+05
 -1.90462E+05  8.47863E+04 -1.12191E+05 -3.23783E+04  1.38483E+03 -4.98229E+04  5.30631E+04 -9.96980E+02
  3.54579E+04  5.31419E+04 -1.75241E+04  7.59561E+04 -6.07942E+04  6.40874E+04 -8.49198E+04  3.13662E+04
 -8.10279E+04 -1.09801E+04 -5.75389E+04 -5.10830E+04 -1.58022E+04 -7.05603E+04  2.75937E+04 -4.61072E+04
  3.93476E+04  4.17820E+03  1.67857E+04  4.69268E+04 -3.49469E+04  4.77295E+04 -6.82819E+04  3.30609E+02
 -5.45121E+04 -5.73314E+04 -6.72845E+03 -7.81029E+04  3.46440E+04 -5.45154E+04  4.85051E+04 -1.72563E+04
  4.48849E+04  1.11527E+04  3.24406E+04  2.53274E+04  1.47609E+04  2.95190E+04 -4.84325E+03  2.77469E+04
 -2.18530E+04  1.35076E+04 -1.82082E+04 -4.98806E+03  5.68567E+03 -7.53825E+03  2.30212E+04  1.27296E+04
  7.84109E+03  3.70897E+04 -3.26194E+04  3.48604E+04 -6.35772E+04  1.90357E+03 -5.79978E+04 -4.35010E+04
 -1.28798E+04 -6.45181E+04  4.04847E+04 -4.73151E+04  5.96158E+04 -1.48071E+03  3.66739E+04  3.32219E+04
 -6.94511E+03  3.73747E+04 -3.07027E+04  1.58461E+04 -3.21328E+04 -4.44209E+03 -1.74756E+04 -1.14815E+04
 -9.83497E+03 -1.30963E+04 -1.44258E+03 -1.95728E+04  8.66331E+03 -2.32477E+04  1.49988E+04 -1.28794E+04
  1.03738E+04  5.17444E+03 -9.56311E+03  1.32636E+04 -2.20540E+04 -4.06529E+03 -7.04177E+03 -3.42035E+04
  2.35847E+04 -4.49602E+04  5.00589E+04 -1.97303E+04  4.58662E+04  1.89458E+04  1.74914E+04  4.44128E+04
 -1.53888E+04  3.35833E+04 -2.56156E+04  2.30093E+03 -1.03786E+04 -2.77704E+04  2.16667E+04 -3.49883E+04
  4.17864E+04 -9.17927E+03  3.72143E+04  2.44473E+04  1.94372E+04  4.79995E+04 -6.90621E+03  5.28648E+04
 -3.29420E+04  3.46303E+04 -4.44878E+04  9.86036E+03 -4.30081E+04 -1.68896E+04 -2.32709E+04 -3.98625E+04
  7.77238E+03 -4.04952E+04  3.26720E+04 -1.45700E+04  3.12863E+04  1.13984E+04  5.23099E+03  2.03739E+04
 -1.28903E+04  9.11129E+03 -1.06453E+04 -5.67486E+03  6.04160E+03 -1.08388E+04  1.82894E+04  6.79638E+03
  1.42783E+04  2.15034E+04 -5.98790E+03  2.79339E+04 -2.18149E+04  1.28389E+04 -2.94104E+04 -4.26004E+03
 -2.09712E+04 -1.69107E+04 -1.01658E+04 -2.34853E+04  2.93705E+03 -2.19866E+04  1.85884E+04 -2.00315E+04
  2.69073E+04 -1.24462E+04  3.25866E+04  3.36078E+03  2.39245E+04  2.17623E+04  4.31679E+03  3.76367E+04
 -1.85031E+04  3.04366E+04 -2.89725E+04  1.14228E+04 -2.19754E+04 -1.01918E+04 -4.81376E+03 -1.27243E+04
  6.98714E+02 -9.34501E+02 -5.90739E+03  6.02375E+03 -1.60792E+04  4.79688E+03 -1.62700E+04 -8.04465E+03
 -1.02632E+04 -1.97046E+04  5.02281E+03 -2.40548E+04  1.70530E+04 -1.72046E+04  1.94268E+04 -2.12811E+03
  1.20432E+04  1.28101E+04 -3.30623E+02  1.99621E+04 -1.30501E+04  1.25068E+04 -2.04063E+04 -4.34222E+03
 -1.57025E+04 -1.86046E+04 -2.30859E+03 -2.55748E+04  1.26187E+04 -1.91736E+04  2.11730E+04 -9.86262E+03
  1.89196E+04 -2.56467E+02  1.43620E+04  5.03767E+03  6.24919E+03  1.94133E+03  1.07412E+04 -2.61885E+03
  1.89418E+04  2.16314E+03  2.12531E+04  1.63950E+04  1.39360E+04  3.24717E+04 -1.68585E+03  3.70390E+04
 -2.12652E+04  2.91790E+04 -3.49269E+04  1.53831E+04 -3.71175E+04 -2.64978E+03 -2.91331E+04 -2.18065E+04
 -1.33796E+04 -3.04983E+04  9.62730E+03 -2.73471E+04  2.32266E+04 -1.38652E+04  2.12034E+04  6.82055E+03
  6.78892E+03  1.61552E+04 -1.15155E+04  1.38915E+04 -1.83104E+04  2.28276E+03 -1.31998E+04 -1.18922E+04
  3.37419E+02 -1.67473E+04  8.69084E+03 -1.20652E+04  1.11429E+04 -2.34354E+03  3.12952E+03  7.97655E+03
 -8.40751E+03  2.50879E+03 -6.20475E+03 -6.35360E+03 -1.28650E+03 -1.59575E+04  1.02882E+04 -1.56023E+04
  1.79296E+04 -8.28708E+03  1.98612E+04  2.61476E+03  1.82793E+04  1.45575E+04  8.07036E+03  2.33653E+04
 -4.83842E+03  2.47256E+04 -1.58695E+04  1.54638E+04 -1.74753E+04  4.96123E+03 -1.14206E+04 -4.78622E+03
 -4.05394E+03 -5.08635E+03 -9.32976E+02  9.36981E+02 -1.91689E+03  1.97384E+03 -5.94843E+03  4.58985E+03
 -1.11236E+04 -2.14408E+03 -1.22785E+04 -1.05225E+04 -4.11225E+03 -1.53067E+04  5.74890E+03 -1.31935E+04
  1.06085E+04 -3.96891E+03  7.67156E+03  3.44379E+03 -1.42055E+03  5.51092E+03 -6.44143E+03 -3.34129E+02
 -5.27442E+03 -7.35472E+03 -4.22077E+02 -1.18835E+04  8.12617E+03 -1.12663E+04  1.64408E+04 -6.49077E+03
  1.74762E+04  2.34548E+03  1.29860E+04  1.06684E+04  3.32075E+03  1.45617E+04 -8.46951E+03  1.24497E+04
 -9.79455E+03  3.01916E+03 -6.82946E+03 -1.87636E+03  2.35315E+03 -2.76532E+03  6.14449E+03 -1.23623E+03
  6.49756E+03  5.79173E+03  1.20496E+03  9.59448E+03 -7.06624E+03  9.29906E+03 -1.22918E+04  3.27190E+03
 -8.80161E+03 -6.23168E+03  9.12134E+02 -1.05404E+04  7.05525E+03 -5.72562E+03  7.10192E+03  1.48663E+03
  2.34076E+03  7.54159E+03 -4.92386E+03  8.77795E+03 -1.04499E+04  3.98004E+03 -1.00114E+04 -3.63416E+03
 -4.67086E+03 -1.24935E+04  4.21529E+03 -1.20621E+04  1.06126E+04 -8.34582E+03  1.28080E+04  2.98859E+03
  6.88431E+03  9.53246E+03  9.41043E+01  1.19144E+04 -9.10138E+03  6.63037E+03 -9.27199E+03 -1.00196E+03
 -7.31291E+03 -7.78844E+03 -1.42488E+03 -8.58325E+03  4.54187E+03 -6.96645E+03  5.70026E+03 -1.48023E+03
  4.09182E+03  2.03624E+03 -2.97258E+02  2.94145E+03 -4.98617E+00 -2.14703E+03  1.54793E+03 -4.87026E+03
  8.31906E+03 -2.43086E+03  1.05433E+04  6.88622E+02  1.02819E+04  8.74753E+03  7.01566E+03  1.41817E+04
 -3.39944E+03  1.54313E+04 -1.32085E+04  1.28101E+04 -1.78647E+04  2.48430E+03 -1.48915E+04 -5.84062E+03
 -7.17769E+03 -1.17443E+04 -3.44500E+02 -9.78512E+03  4.10061E+03 -5.93529E+03  3.21091E+03 -4.18658E+03
  3.49993E+03 -2.01053E+03  1.25386E+03 -3.29684E+03  5.88683E+03 -2.70827E+03  4.54854E+03 -7.48079E+02
  8.02749E+03  1.47432E+03  3.16727E+03  6.66701E+03 -2.17450E+03  7.47778E+03 -8.13132E+03  6.74308E+03
 -1.04495E+04 -1.67645E+03 -6.66648E+03 -6.82592E+03 -1.11036E+03 -1.17259E+04  6.62702E+03 -1.00029E+04
  1.18731E+04 -7.11597E+03  1.37824E+04  1.31482E+03  8.48924E+03  8.70529E+03  3.18423E+03  1.13963E+04
 -4.08281E+03  9.05162E+03 -6.76300E+03  3.08389E+03 -3.81685E+03 -1.58896E+03 -1.53171E+03 -2.92445E+03
 -6.19001E+02  5.65327E+02 -2.19330E+03  2.44331E+03 -5.38998E+03  2.28223E+03 -6.57019E+03  1.40544E+02
 -5.14391E+03 -6.04118E+03  2.80818E+03 -9.82636E+03  5.16421E+03 -8.41764E+03  8.14307E+03 -2.28853E+03
  8.70438E+03  4.25307E+03  3.48287E+03  8.73569E+03 -1.99200E+03  9.38817E+03 -5.98523E+03  6.29617E+03
 -9.18753E+03  6.13922E+02 -6.39771E+03 -5.24581E+03 -7.52885E+02 -7.35879E+03  4.54575E+03 -5.25684E+03
  5.92393E+03 -2.61224E+03  4.18357E+03  1.60586E+03  2.07627E+03  3.18596E+03  1.13108E+03  1.53186E+03
  1.69903E+03  9.43597E+02  2.39320E+03  1.51838E+03  3.21149E+03  4.67319E+03  2.91474E+03  4.77702E+03
 -2.15560E+03  7.75923E+03 -6.23930E+03  7.83458E+03 -8.85095E+03  3.06021E+03 -1.07071E+04 -3.87489E+03
 -5.03697E+03 -7.82732E+03 -2.76170E+02 -1.02014E+04  5.29333E+03 -4.82627E+03  7.23978E+03 -8.07736E+02
  5.95635E+03  3.51631E+03  2.26566E+02  5.39865E+03 -2.56502E+03  2.83296E+03 -2.38335E+03 -5.40272E+02
 -1.59398E+03 -4.76841E+03  1.85715E+03 -4.52685E+03  3.37274E+03 -1.81682E+03  4.16751E+03 -5.14517E+02
  1.52207E+03  5.28178E+02  1.27317E+03  1.06594E+03 -9.13759E+02  1.15038E+03  1.63146E+03  1.27500E+02
  2.74815E+02  6.03564E+02  3.45841E+03  1.07389E+03  1.62330E+03  5.41278E+03  5.02068E+02  5.56826E+03
 -3.74320E+03  4.76147E+03 -5.98689E+03  2.92339E+02 -4.19447E+03 -2.54721E+03 -1.77661E+03 -3.23446E+03
  4.33564E+02 -4.10584E+03  2.55130E+03 -2.68955E+03  1.33561E+03  2.32861E+03 -7.95230E+02  3.40022E+03
 -3.96842E+03  9.36773E+02 -3.24495E+03 -2.22905E+03 -1.91859E+03 -4.41906E+03 -2.89074E+01 -5.16083E+03
  2.73111E+03 -2.62188E+03  3.88438E+03 -3.78042E+02  3.92529E+03  1.52152E+03  1.65385E+03  1.85196E+03
 -1.63442E+03  1.23797E+03 -1.83824E+03 -8.74976E+02 -2.25037E+02 -3.43744E+03  4.39573E+03 -1.91354E+03
  3.68080E+03  2.60478E+02  5.97754E+03  3.06359E+03  2.33128E+03  3.04541E+03 -1.90745E+03  5.81804E+03
 -3.77773E+03  1.66834E+03 -3.44403E+03 -1.05437E+03 -3.21070E+03 -5.24621E+03  4.04357E+02 -2.54458E+03
  3.11299E+03 -2.29338E+03  4.08192E+03  1.84992E+03  9.75260E+02  4.47254E+03 -1.19987E+03  3.00706E+03
 -1.19195E+03  2.09198E+03 -1.43076E+03  7.52350E+02 -2.92100E+03  1.52749E+02 -8.89261E+02  1.96850E+03
 -1.84045E+03  1.85780E+03 -3.31127E+03  2.17403E+03 -4.37229E+03  1.49013E+03 -4.97011E+03 -3.35104E+03
 -3.87280E+03 -6.83818E+03  1.45509E+03 -7.84099E+03  3.42736E+03 -6.05703E+03  7.46584E+03 -2.37864E+03
  7.08487E+03 -1.87108E+01  4.96483E+03  5.78412E+03  8.11422E+02  5.06305E+03 -2.50548E+03  4.07656E+03
 -2.96672E+03  2.68326E+03 -2.74309E+03 -1.48105E+03 -8.44472E+02 -6.20451E+02 -6.43144E+02  7.12860E+00
 -8.52920E+02 -6.45338E+02 -8.39162E+02  9.42615E+02  1.89170E+02 -5.74269E+02 -8.03420E+02 -1.54531E+03
  1.98869E+03 -2.50910E+03  1.86121E+03  6.20632E+02  3.10890E+03  2.27485E+03 -1.95175E+02  5.88206E+03
 -1.34637E+03  5.99115E+03 -5.65637E+03  4.36808E+03 -5.73689E+03 -6.78179E+02 -4.66390E+03 -2.67769E+03
 -3.24586E+03 -5.24267E+03  1.92617E+03 -5.77260E+03  2.57781E+03 -2.41177E+03  2.72366E+03  7.99809E+02
  2.29922E+03  1.50538E+03 -3.83236E+02  2.32802E+03 -7.87809E+02 -8.47245E+02 -6.52291E+01 -1.09509E+03
  1.68538E+03 -6.33414E+02  1.43602E+03  5.67026E+02 -3.56389E+02  2.41410E+03  2.73133E+02  1.29961E+03
 -2.80014E+03  2.21635E+03 -3.97029E+03  7.97910E+01 -2.95416E+03 -2.94033E+03 -5.72215E+02 -4.74069E+03
  2.41058E+03 -3.16995E+03  3.30462E+03 -9.91098E+02  3.75957E+03  4.87711E+01  1.38519E+03  2.50917E+03
 -2.84371E+02  3.21018E+03 -2.55281E+03  2.34918E+03 -2.80227E+03  4.36702E+02 -1.60626E+03  9.18890E+01
 -2.50531E+02 -7.46878E+02 -1.41304E+03  7.18430E+02 -1.16407E+03  6.92206E+02 -2.29056E+03 -7.02160E+00
 -1.98429E+03 -2.36218E+03 -7.63109E+02 -1.92453E+03  1.29029E+03 -2.56420E+03  2.27350E+03 -7.15622E+02
  2.11832E+03  4.12201E+02  3.05293E+02  3.06738E+03  8.23057E+02  3.54180E+03 -3.31799E+03  3.53132E+03
