 $NMID ID='MM_0lb_SNR200_13hz_g60_29.RAW', FMTDAT='(8E13.5)'
 TRAMP=1., VOLUME=1. $END
  3.09279E+05  6.29503E+02  3.38136E+05  2.50871E+05  8.39009E+04  3.38323E+05 -1.32471E+05  2.52686E+05
 -1.92528E+05  8.34227E+04 -1.12456E+05 -3.31991E+04  1.30754E+03 -5.00406E+04  5.24043E+04 -1.05241E+03
  3.62398E+04  5.22866E+04 -1.73568E+04  7.60916E+04 -6.20533E+04  6.19517E+04 -8.54794E+04  3.28495E+04
 -8.26125E+04 -1.01376E+04 -5.76560E+04 -5.13854E+04 -1.52006E+04 -6.94285E+04  2.77151E+04 -4.57242E+04
  4.08093E+04  6.00682E+03  1.68631E+04  4.80769E+04 -3.60485E+04  4.73391E+04 -6.70501E+04 -6.91348E+02
 -5.36099E+04 -5.81012E+04 -8.12303E+03 -7.82912E+04  3.37413E+04 -5.61081E+04  4.87739E+04 -1.70779E+04
  4.39898E+04  1.08218E+04  3.26113E+04  2.64859E+04  1.60055E+04  3.05885E+04 -5.80632E+03  2.64326E+04
 -2.07034E+04  1.30636E+04 -1.89473E+04 -6.43175E+03  6.94744E+03 -6.98085E+03  2.25132E+04  1.24193E+04
  6.67073E+03  3.64481E+04 -3.34435E+04  3.66890E+04 -6.41574E+04  1.46638E+03 -5.81384E+04 -4.36845E+04
 -1.20773E+04 -6.45953E+04  4.21847E+04 -4.77617E+04  5.97508E+04 -1.99141E+03  3.53018E+04  3.41728E+04
 -6.15194E+03  3.86194E+04 -3.09575E+04  1.81451E+04 -3.19134E+04 -3.43711E+03 -1.82468E+04 -1.20067E+04
 -9.73739E+03 -1.49565E+04 -1.38876E+03 -1.91813E+04  7.61429E+03 -2.30869E+04  1.58522E+04 -1.35075E+04
  1.09327E+04  2.92560E+03 -9.17486E+03  1.28652E+04 -2.18579E+04 -5.74304E+03 -7.90254E+03 -3.66093E+04
  2.54604E+04 -4.58716E+04  4.97099E+04 -2.06209E+04  4.67537E+04  1.94450E+04  1.53725E+04  4.70497E+04
 -1.73910E+04  3.51675E+04 -2.68614E+04  1.07962E+03 -9.73665E+03 -2.83629E+04  2.20319E+04 -3.39451E+04
  4.28944E+04 -9.96197E+03  3.76370E+04  2.56137E+04  1.93078E+04  4.85801E+04 -7.73751E+03  5.22188E+04
 -3.43505E+04  3.60211E+04 -4.62460E+04  1.11982E+04 -4.54503E+04 -1.66829E+04 -2.54915E+04 -4.13714E+04
  8.60195E+03 -3.91044E+04  3.35101E+04 -1.57210E+04  3.04231E+04  1.17982E+04  4.22990E+03  1.99043E+04
 -1.38692E+04  8.76590E+03 -1.09529E+04 -7.27216E+03  5.14408E+03 -1.09347E+04  1.72741E+04  6.65780E+03
  1.34198E+04  2.27646E+04 -6.27689E+03  2.65494E+04 -2.30396E+04  1.28628E+04 -2.95590E+04 -4.14741E+03
 -2.41248E+04 -1.69940E+04 -9.76869E+03 -2.33405E+04  4.34833E+03 -2.20140E+04  1.62958E+04 -2.09622E+04
  2.98336E+04 -1.39484E+04  3.57251E+04  3.31392E+03  2.56331E+04  2.23349E+04  4.07577E+03  3.86170E+04
 -1.86601E+04  3.23268E+04 -2.89740E+04  1.05620E+04 -2.18387E+04 -9.73228E+03 -4.98217E+03 -1.40519E+04
  8.80794E+02 -2.22101E+03 -7.02002E+03  7.94345E+03 -1.87217E+04  4.62673E+03 -1.92608E+04 -8.03989E+03
 -1.08161E+04 -1.97932E+04  6.14326E+03 -2.46273E+04  1.63971E+04 -1.71843E+04  2.08077E+04 -9.85733E+02
  1.36299E+04  1.40417E+04 -1.11337E+03  2.06701E+04 -1.62185E+04  1.23775E+04 -2.01018E+04 -2.75959E+03
 -1.54684E+04 -1.80516E+04 -1.56183E+03 -2.48021E+04  1.07060E+04 -1.98842E+04  2.17377E+04 -1.02842E+04
  2.05079E+04 -7.52030E+02  1.45612E+04  5.77902E+03  7.21545E+03 -1.27957E+02  1.11283E+04 -2.90802E+03
  1.91289E+04  1.58821E+03  2.16162E+04  1.56373E+04  1.47244E+04  3.50047E+04 -2.50562E+03  3.86803E+04
 -2.24672E+04  3.12341E+04 -3.62066E+04  1.55752E+04 -3.79197E+04 -2.92022E+03 -3.12244E+04 -2.11977E+04
 -1.10794E+04 -3.18308E+04  1.18212E+04 -2.79694E+04  2.26299E+04 -1.37581E+04  2.21746E+04  6.31639E+03
  6.65849E+03  1.65543E+04 -1.14190E+04  1.48708E+04 -1.94238E+04  2.64493E+03 -1.42729E+04 -1.14735E+04
 -7.45276E+02 -1.79693E+04  9.83152E+03 -1.37048E+04  1.10281E+04  1.11306E+03  1.82166E+03  7.79916E+03
 -7.46482E+03  2.63263E+03 -7.39163E+03 -6.20285E+03 -1.79359E+03 -1.58704E+04  1.10165E+04 -1.61626E+04
  2.00938E+04 -7.36561E+03  2.10793E+04  2.22877E+03  1.88025E+04  1.53914E+04  8.51064E+03  2.54410E+04
 -3.34711E+03  2.53482E+04 -1.54285E+04  1.53121E+04 -1.85110E+04  4.53768E+03 -1.17729E+04 -4.72950E+03
 -5.79659E+03 -5.57202E+03 -8.37573E+02  8.28364E+02 -2.68612E+03  3.20356E+03 -6.38185E+03  5.32293E+03
 -1.19771E+04 -7.07090E+02 -1.24177E+04 -1.07936E+04 -4.18441E+03 -1.69633E+04  3.64575E+03 -1.27805E+04
  1.15284E+04 -4.61952E+03  8.29499E+03  3.54838E+03  4.70630E+01  5.86023E+03 -5.80820E+03 -8.29143E+02
 -6.54071E+03 -8.18231E+03 -3.85345E+02 -1.22587E+04  7.98401E+03 -1.36265E+04  1.62355E+04 -7.06094E+03
  1.90196E+04  1.61609E+03  1.25776E+04  1.01039E+04  2.67737E+03  1.31003E+04 -6.80997E+03  1.26652E+04
 -1.07974E+04  3.00941E+03 -5.97986E+03 -1.90827E+03  1.43873E+03 -3.09146E+03  6.37164E+03 -1.66035E+03
  6.33546E+03  5.80697E+03 -4.22630E+02  1.06029E+04 -6.41953E+03  9.35892E+03 -1.41113E+04  1.82733E+03
 -8.01922E+03 -6.75741E+03  1.56217E+03 -1.05309E+04  8.15768E+03 -4.93382E+03  7.32368E+03  2.76319E+03
  3.36237E+03  8.19795E+03 -7.35749E+03  9.79862E+03 -1.02655E+04  3.31579E+03 -1.01256E+04 -3.60526E+03
 -6.30179E+03 -1.02146E+04  2.17628E+03 -1.36319E+04  1.25573E+04 -8.71005E+03  1.35492E+04  1.99644E+03
  7.90626E+03  7.89206E+03 -9.30855E+02  1.33145E+04 -8.86080E+03  6.85753E+03 -9.68891E+03 -1.89864E+03
 -7.52408E+03 -7.60725E+03 -6.43930E+02 -9.99447E+03  5.49065E+03 -8.13454E+03  5.37144E+03 -3.63113E+03
  4.69352E+03  1.77318E+03 -6.50749E+02  2.27851E+03 -3.90369E+02 -1.50258E+03  2.23154E+03 -4.84514E+03
  7.93095E+03 -2.72696E+03  1.32695E+04  9.56463E+02  1.07213E+04  7.65388E+03  8.24956E+03  1.64381E+04
 -3.92138E+03  1.65787E+04 -1.39763E+04  1.38095E+04 -1.94226E+04  2.12126E+03 -1.55043E+04 -6.87140E+03
 -7.23972E+03 -1.19364E+04  5.42741E+02 -1.15113E+04  5.12596E+03 -6.84731E+03  3.62930E+03 -4.53999E+03
  2.30802E+03 -2.25521E+03  2.17582E+03 -3.37258E+03  6.10174E+03 -1.83801E+03  8.16415E+03 -3.52042E+02
  8.34474E+03  8.03926E+02  4.29038E+03  6.54148E+03 -2.52892E+03  7.12580E+03 -8.23598E+03  5.73150E+03
 -1.09054E+04 -2.86817E+02 -5.21770E+03 -7.98534E+03 -2.26290E+01 -1.20633E+04  5.00941E+03 -1.22797E+04
  1.05123E+04 -6.58506E+03  1.33339E+04  1.05342E+03  1.00282E+04  9.31210E+03  2.40568E+03  1.16580E+04
 -6.03161E+03  1.04279E+04 -7.08917E+03  4.95851E+03 -5.44915E+03 -1.00049E+03 -1.62525E+03 -1.87750E+03
 -9.23043E+02  1.59557E+02 -1.22977E+03  2.60376E+03 -4.27667E+03  1.25889E+03 -8.18469E+03 -1.36833E+03
 -5.87409E+03 -7.06652E+03  5.35349E+02 -1.09308E+04  6.22731E+03 -8.74182E+03  9.15678E+03 -1.92259E+03
  1.12929E+04  4.16958E+03  5.01149E+03  7.94113E+03 -2.48542E+03  1.16528E+04 -7.17504E+03  6.63350E+03
 -8.34726E+03  1.28328E+02 -7.83994E+03 -6.19414E+03  1.48918E+01 -7.91048E+03  4.93883E+03 -6.02954E+03
  6.81908E+03 -1.05896E+03  3.34375E+03  2.62602E+03  2.56966E+03  3.36135E+03  1.28997E+03  1.05830E+03
  2.13835E+03  1.64191E+03  2.22474E+03  2.66390E+03  3.04081E+03  4.73856E+03  3.23092E+03  5.69167E+03
 -2.28269E+03  6.18646E+03 -6.65883E+03  9.56751E+03 -8.48540E+03  2.19315E+03 -1.06943E+04 -5.24032E+03
 -5.96511E+03 -9.78941E+03  5.86164E+02 -1.03272E+04  6.10719E+03 -5.40407E+03  7.46256E+03 -1.23904E+03
  5.72384E+03  4.60884E+03  2.31595E+03  6.05935E+03 -1.77622E+03  3.63529E+03 -3.78742E+03 -1.07559E+03
 -1.61534E+03 -4.24522E+03  3.11565E+03 -4.20857E+03  3.23207E+03 -1.25123E+03  4.02226E+03  1.17482E+03
  2.29054E+03  1.81395E+03  2.35215E+03  1.57730E+03 -7.75825E+02  2.16233E+03 -5.76561E+01 -8.17852E+02
  1.69117E+03 -6.86243E+02  4.22152E+03  2.72522E+03  1.76337E+03  6.11778E+03 -4.52823E+02  6.36114E+03
 -5.10436E+03  4.27537E+03 -4.88336E+03  1.89840E+03 -4.99464E+03 -1.42157E+03 -1.35572E+03 -3.28954E+03
  5.61182E+02 -2.97960E+03  2.18934E+03 -2.21000E+03  2.09877E+03  1.96826E+03 -1.78054E+03  2.25115E+03
 -3.94812E+03  3.27037E+02 -3.90006E+03 -2.00864E+03 -3.09707E+03 -3.00044E+03  3.07341E+02 -5.45711E+03
  3.70394E+03 -2.51914E+03  3.11094E+03 -9.15700E+02  4.94651E+03  1.00019E+03  8.47700E+02  2.90584E+03
 -2.20187E+03  1.55835E+02 -1.54265E+03 -2.39395E+03  1.19461E+03 -2.65322E+03  3.00063E+03 -3.52071E+03
  7.00837E+03  1.53820E+02  5.02533E+03  3.87382E+03  1.20626E+03  6.72985E+03 -3.08001E+03  5.63895E+03
 -4.88728E+03  1.09592E+03 -3.85618E+03  8.33159E+01 -2.30546E+03 -3.11418E+03  5.34151E+02 -3.00620E+03
  3.88504E+03 -2.78960E+03  3.31600E+03  1.91864E+03  1.38107E+03  3.91342E+03 -1.28774E+03  2.14643E+03
 -1.73707E+03  2.17471E+03 -9.11541E+02  3.83145E+02 -2.16731E+02  1.04823E+03 -1.03096E+03  1.26626E+03
  3.64687E+02  2.18781E+03 -3.64846E+03  1.68088E+02 -4.26694E+03  4.44167E+02 -5.09626E+03 -3.01150E+03
 -1.39885E+03 -7.71825E+03  9.05769E+02 -7.76978E+03  4.83990E+03 -6.93750E+03  7.21764E+03 -2.06957E+03
  6.91161E+03  1.31562E+03  3.70281E+03  3.87461E+03 -1.18336E+02  5.31661E+03 -2.57426E+03  3.72623E+03
 -1.69629E+03  1.98853E+03 -2.60218E+03  1.97587E+02 -6.55377E+02 -3.81505E+01 -4.19001E+02  7.87952E+02
 -1.46680E+03  1.08098E+03 -1.62173E+03 -1.08947E+03 -5.68622E+01 -1.42314E+03  7.45266E+02 -2.45263E+03
  3.22225E+03 -1.29954E+03  1.84831E+03  4.44840E+02  4.78276E+03  4.22636E+03 -2.31903E+02  5.14400E+03
 -1.14488E+03  6.19134E+03 -4.89358E+03  3.59116E+03 -6.07838E+03 -8.79748E+01 -4.72214E+03 -4.08185E+03
 -3.36170E+03 -5.19711E+03  5.15510E+01 -4.19249E+03  2.76281E+03 -2.25874E+03  3.45221E+03 -3.97628E+02
  1.06589E+03  1.08699E+03 -3.89250E+02  1.94887E+03 -1.57011E+03  8.59737E+02 -7.74018E+01 -1.41619E+03
  3.01764E+03  1.55267E+02  7.90845E+02  2.48810E+03  5.39566E+02  2.10418E+03  1.37404E+03  1.76662E+03
 -1.99058E+03  2.31245E+03 -2.71151E+03  5.39632E+02 -2.55828E+03 -2.14079E+03 -1.21320E+03 -3.85868E+03
  2.23506E+03 -4.42284E+03  4.61696E+03 -1.21549E+03  2.75526E+03  4.80763E+01  2.36769E+03  2.67270E+03
  1.69075E+03  3.50784E+03 -9.09530E+02  2.88206E+03 -1.79525E+03  1.43768E+03 -2.55669E+03  5.35809E+02
 -1.56795E+03 -3.83687E+02 -9.67905E+02  3.91932E+02 -2.88113E+03 -8.74363E+02 -1.82750E+03 -9.25323E+01
 -2.31184E+03 -3.32957E+02 -1.15711E+03 -3.78133E+03  1.49734E+03 -4.21592E+03  2.68515E+03 -2.45663E+03
  3.46269E+03  8.32179E+01 -1.89367E+02  2.10512E+03  3.25588E+02  2.51436E+03 -2.48176E+03  2.93706E+03
