 $NMID ID='MM_0lb_SNR200_17hz_g45_49.RAW', FMTDAT='(8E13.5)'
 TRAMP=1., VOLUME=1. $END
  3.08895E+05  1.54051E+03  3.37318E+05  2.50149E+05  8.48758E+04  3.36357E+05 -1.31903E+05  2.49178E+05
 -1.89008E+05  8.24379E+04 -1.10088E+05 -3.24302E+04  1.89274E+03 -4.96046E+04  5.38720E+04  6.02896E+02
  3.56171E+04  5.24201E+04 -1.73261E+04  7.45033E+04 -6.06967E+04  6.35953E+04 -8.26128E+04  3.19621E+04
 -7.93480E+04 -1.11218E+04 -5.60507E+04 -5.05254E+04 -1.46015E+04 -6.72186E+04  2.79483E+04 -4.43616E+04
  3.96194E+04  2.19064E+03  1.58081E+04  4.74099E+04 -3.48754E+04  4.64298E+04 -6.59748E+04  1.61757E+02
 -5.29898E+04 -5.52982E+04 -6.81090E+03 -7.51613E+04  3.22602E+04 -5.33212E+04  4.67271E+04 -1.67970E+04
  4.32384E+04  1.06691E+04  3.08320E+04  2.42518E+04  1.53176E+04  2.84898E+04 -4.96777E+03  2.72032E+04
 -2.18056E+04  1.35653E+04 -1.95773E+04 -5.07829E+03  5.40966E+03 -7.42705E+03  2.16099E+04  1.13759E+04
  6.40293E+03  3.42296E+04 -3.07239E+04  3.34648E+04 -6.20628E+04  1.66843E+03 -5.53173E+04 -4.14348E+04
 -1.35338E+04 -6.12077E+04  3.87294E+04 -4.36010E+04  5.68738E+04 -2.00023E+03  3.26456E+04  3.01350E+04
 -7.13767E+03  3.33595E+04 -2.89162E+04  1.41118E+04 -2.71780E+04 -5.10645E+03 -1.49057E+04 -1.09076E+04
 -7.14270E+03 -1.29283E+04 -2.31484E+03 -1.64563E+04  7.76138E+03 -2.30333E+04  1.50805E+04 -1.34451E+04
  1.16342E+04  5.05597E+03 -6.22830E+03  1.30592E+04 -2.07549E+04 -3.62664E+03 -8.99118E+03 -3.07390E+04
  2.13762E+04 -3.99782E+04  4.55354E+04 -1.85903E+04  4.34456E+04  1.79000E+04  1.45672E+04  4.30771E+04
 -1.58119E+04  3.19114E+04 -2.39866E+04  1.24588E+03 -8.50307E+03 -2.60357E+04  2.14248E+04 -3.29683E+04
  3.85478E+04 -7.70927E+03  3.18948E+04  2.31149E+04  1.66091E+04  4.25385E+04 -7.34058E+03  4.57930E+04
 -2.89265E+04  3.19672E+04 -3.92393E+04  9.50333E+03 -3.93104E+04 -1.50467E+04 -2.09949E+04 -3.49276E+04
  8.06830E+03 -3.46202E+04  3.09824E+04 -1.31442E+04  2.73408E+04  1.09004E+04  2.59628E+03  1.82354E+04
 -1.46759E+04  7.11845E+03 -9.39992E+03 -7.70332E+03  5.30871E+03 -1.03878E+04  1.67934E+04  6.22376E+03
  1.21858E+04  2.16224E+04 -7.20434E+03  2.33891E+04 -2.20643E+04  8.72984E+03 -2.59721E+04 -6.31349E+03
 -1.74272E+04 -1.65740E+04 -5.27928E+03 -1.74858E+04  3.06237E+03 -1.50852E+04  1.33758E+04 -1.59163E+04
  2.17997E+04 -1.17426E+04  2.95278E+04  1.64868E+03  2.26195E+04  1.81736E+04  3.85192E+03  3.25600E+04
 -1.45198E+04  2.77337E+04 -2.67593E+04  9.96883E+03 -1.98970E+04 -9.48513E+03 -4.84338E+03 -1.28021E+04
  2.62247E+03 -3.71563E+03 -3.88984E+03  5.77204E+03 -1.32906E+04  4.97891E+03 -1.53261E+04 -5.89920E+03
 -8.80953E+03 -1.62515E+04  4.72901E+03 -2.10294E+04  1.15464E+04 -1.48102E+04  1.63692E+04 -1.56937E+03
  1.05468E+04  1.06486E+04 -1.57469E+03  1.63062E+04 -1.12491E+04  9.52963E+03 -1.65753E+04 -4.12841E+03
 -1.23312E+04 -1.58611E+04 -2.60576E+03 -2.13616E+04  9.33785E+03 -1.62121E+04  1.62500E+04 -8.00236E+03
  1.64854E+04  9.26679E+02  1.05400E+04  4.10165E+03  5.14862E+03  1.07833E+03  7.85928E+03 -1.50191E+03
  1.40714E+04  2.62705E+03  1.63350E+04  1.42144E+04  1.02651E+04  2.58056E+04 -2.65807E+03  2.75128E+04
 -1.66314E+04  2.24606E+04 -2.62454E+04  1.02087E+04 -2.66868E+04 -2.04066E+03 -2.23223E+04 -1.57986E+04
 -1.07950E+04 -2.19708E+04  7.63087E+03 -1.90514E+04  1.82582E+04 -1.26728E+04  1.66134E+04  5.32821E+03
  7.19641E+03  1.26853E+04 -6.30620E+03  1.05499E+04 -1.38307E+04  3.17067E+03 -9.73895E+03 -7.65442E+03
  1.11017E+02 -1.22173E+04  7.44272E+03 -9.07745E+03  8.55915E+03 -2.54379E+03  1.34097E+03  5.01332E+03
 -5.71464E+03  1.49827E+03 -4.79621E+03 -5.70827E+03 -1.91439E+02 -1.09836E+04  8.18197E+03 -9.90115E+03
  1.40705E+04 -6.30132E+03  1.40324E+04  2.78361E+03  1.27057E+04  1.07993E+04  6.04451E+03  1.58831E+04
 -3.48758E+03  1.78563E+04 -1.01574E+04  1.13251E+04 -1.18083E+04  3.46340E+03 -8.98386E+03 -2.32972E+03
 -5.48451E+03 -3.76661E+03 -1.15597E+03  2.10646E+03 -2.56303E+03  2.53817E+03 -3.30341E+03  3.97113E+03
 -8.88372E+03 -1.23340E+03 -9.16171E+03 -8.16984E+03 -3.68936E+03 -1.14716E+04  4.05282E+03 -8.66252E+03
  7.07326E+03 -4.17118E+03  5.38760E+03  1.56324E+03 -2.15791E+02  3.72870E+03 -3.78089E+03  6.19307E+02
 -4.51870E+03 -5.05741E+03 -1.18425E+01 -8.28268E+03  5.26981E+03 -7.60947E+03  1.07172E+04 -4.93279E+03
  1.25762E+04  5.36370E+02  8.54208E+03  7.74285E+03  1.80661E+03  1.01476E+04 -6.51282E+03  1.00282E+04
 -8.42863E+03  3.62149E+03 -3.13157E+03 -1.79701E+03  1.57632E+03 -1.54680E+03  6.07599E+03 -2.06093E+03
  4.97306E+03  4.62667E+03  1.44177E+03  7.35465E+03 -4.97546E+03  7.67050E+03 -7.37856E+03  1.89720E+03
 -4.74551E+03 -5.17009E+03 -8.39632E+02 -7.83900E+03  3.98929E+03 -2.89577E+03  4.06603E+03  1.56399E+03
  1.01002E+03  3.92986E+03 -3.90944E+03  5.14209E+03 -4.93387E+03  1.70039E+03 -4.74549E+03 -2.68101E+03
 -4.06376E+03 -7.08744E+03  1.70953E+03 -6.89396E+03  7.34833E+03 -5.96642E+03  7.61566E+03  1.04892E+03
  6.15541E+03  5.77056E+03  5.09990E+02  8.78240E+03 -5.81021E+03  3.90367E+03 -5.64825E+03 -3.46187E+02
 -7.01154E+03 -6.13253E+03 -1.26127E+03 -5.52962E+03  3.03915E+03 -5.02388E+03  2.80563E+03 -2.79402E+03
  2.68640E+03  7.43011E+01 -1.10542E+03  2.19846E+03 -3.14277E+02  8.88847E+02 -4.46828E+02 -2.03096E+03
  4.47547E+03 -1.65219E+03  6.55227E+03  1.16072E+03  6.39031E+03  3.27320E+03  4.86913E+03  7.67763E+03
 -2.28372E+03  9.55749E+03 -8.40935E+03  7.91496E+03 -9.75523E+03  1.19339E+03 -8.50514E+03 -3.94457E+03
 -4.70313E+03 -8.75933E+03  6.05512E+02 -6.41420E+03  2.14705E+03 -2.95516E+03  2.35878E+03 -1.63972E+03
  3.76337E+02 -1.58265E+03  1.59484E+03 -2.14179E+03  3.89744E+03 -5.86620E+02  4.85351E+03  4.39775E+02
  5.47025E+03  2.79884E+03  1.10312E+03  3.23740E+03 -1.77838E+03  3.69240E+03 -5.28525E+03  4.41480E+03
 -6.65534E+03 -1.08813E+02 -3.55057E+03 -3.55715E+03  2.30364E+02 -5.97351E+03  4.25127E+03 -5.81811E+03
  5.86132E+03 -3.72732E+03  7.23236E+03 -6.97793E+02  6.63967E+03  4.84243E+03  1.25473E+03  7.05324E+03
 -3.06709E+03  6.08686E+03 -4.32769E+03  3.02386E+03 -2.39859E+03 -1.82543E+03 -7.25913E+02 -5.62543E+02
 -1.61692E+03 -2.04360E+02 -1.64063E+03  2.23762E+03 -4.26647E+03  2.31655E+03 -3.63989E+03 -9.58647E+02
 -2.38806E+03 -4.83609E+03  2.31762E+03 -5.87302E+03  2.68660E+03 -5.10517E+03  4.98534E+03 -1.20978E+03
  5.67829E+03  2.87149E+03  1.80923E+03  3.54859E+03 -1.54632E+03  5.46926E+03 -4.07042E+03  2.28265E+03
 -4.82517E+03 -3.15207E+02 -2.91956E+03 -4.16272E+03  5.69013E+02 -3.13074E+03  1.23916E+03 -4.33084E+03
  3.25191E+03 -1.96083E+03  2.77077E+03  9.43901E+02 -4.61423E+02  1.49273E+03 -5.34857E+02  4.61238E+02
  9.79475E+02 -5.05252E+02  1.93797E+03  2.45944E+03  2.02975E+03  2.10440E+03  1.62010E+03  2.46433E+03
 -1.80432E+03  3.20171E+03 -2.44506E+03  3.58633E+03 -4.63146E+03  1.74930E+03 -5.07237E+03 -7.82099E+02
 -2.20406E+03 -4.64129E+03  1.68133E+03 -6.27151E+03  2.44809E+03 -2.76429E+03  3.80365E+03  6.07416E+01
  2.24326E+03  2.16384E+03  7.54058E+01  1.85317E+03 -1.56119E+03  2.47828E+03 -1.49261E+03 -6.19102E+02
  3.59968E+02 -1.80129E+03  8.14206E+02 -3.65751E+03  2.08295E+03 -1.77894E+03  2.30764E+03 -8.17657E+02
  4.63460E+02  2.73630E+01 -1.11373E+03  1.57453E+03  6.63086E+02  6.53547E+02  7.83297E+02 -2.79963E+02
 -2.37040E+02 -5.12140E+02  2.89610E+03  1.22377E+03 -2.86012E+02  3.51977E+03  1.31540E+03  4.39934E+03
 -2.02807E+03  1.53075E+03 -2.29581E+03  1.32495E+02 -1.01707E+03 -7.27130E+02 -5.08958E+02 -1.56474E+03
  9.64600E+02 -2.53129E+03  2.37145E+03 -1.00378E+03  3.22351E+01  1.76989E+03 -1.69577E+03  1.24188E+03
 -1.57211E+03  1.41046E+03 -1.82908E+03 -1.08447E+03 -3.84447E+02 -2.13220E+03  4.16417E+02 -1.70577E+03
  1.17890E+03 -8.92997E+02  6.42580E+02  2.11411E+02  2.12656E+03  1.37820E+03  1.13881E+03  2.80378E+03
 -5.61586E+02  2.78872E+01 -9.03034E+02 -1.54119E+02  7.83264E+02 -7.14079E+02  2.25041E+03 -4.38992E+02
  1.17071E+03 -5.00408E+02  3.32893E+03  1.50225E+03  5.83125E+02  3.06854E+03  4.52697E+02  1.90310E+03
 -1.48498E+03 -3.83301E+02 -2.11095E+03  3.38594E+02 -1.12109E+03 -2.09294E+03  8.35350E+01 -8.48650E+02
  2.64756E+03 -1.04246E+03  1.53882E+03  9.31488E+02 -2.72067E+02  7.49839E+02  3.21904E+02  9.43297E+02
 -3.99964E+02  2.57790E+03 -2.97077E+01  4.10495E+02 -6.43951E+02 -2.67240E+02 -8.21465E+02  1.23243E+03
 -7.67629E+02  1.36436E+03 -1.34677E+03  9.46966E+02 -2.63880E+03  6.95822E+02 -2.75022E+03 -1.12669E+03
 -1.36982E+03 -3.03550E+03  4.51809E+02 -2.65662E+03  1.71533E+03 -2.26686E+03  4.28619E+03 -1.75920E+03
  3.04718E+03  6.44232E+02  1.99324E+03  2.69080E+03  8.95081E+01  1.70687E+03 -1.58477E+03  2.33385E+03
 -1.72698E+03  2.93389E+02 -4.61173E+02  3.50023E+02 -8.99943E+02  2.10319E+02 -9.96744E+02 -2.00778E+02
 -1.13609E+03  5.00574E+02 -1.39009E+03  3.33690E+02  1.97156E+02  3.91675E+02  3.15068E+02 -1.15106E+03
  1.15015E+03 -6.25975E+02  9.96828E+02  7.46242E+02  1.06543E+03  1.03929E+03 -2.06725E+02  2.36764E+03
 -1.97851E+03  3.91504E+03 -3.39734E+03  1.97602E+03 -3.11905E+03 -2.06827E+02 -2.50850E+03 -2.49201E+03
 -9.16590E+02 -2.24583E+03  4.68935E+01 -1.92450E+03  1.68946E+03 -7.50804E+02  6.14091E+02  8.98384E+02
  1.41151E+03  6.09857E+02 -1.14097E+02  7.86601E+02 -2.05740E+03  3.84129E+02 -1.14683E+03 -7.45357E+01
  9.84290E+02  5.94741E+02  5.22250E+02  5.65754E+02  1.03833E+03  1.04627E+02  9.08355E+02  5.22261E+02
 -8.00914E+01  7.10344E+02 -8.02560E+02 -8.75468E+01 -1.73898E+02 -2.94624E+02  1.76602E+02 -2.24459E+03
  1.26697E+03 -1.38575E+03  2.03762E+03  1.06574E+03  1.60798E+03  1.09622E+02  1.50393E+03  1.18410E+03
 -6.03501E+02  7.79787E+02  1.64687E+02  4.52344E+02 -1.43152E+03  1.62253E+03 -1.27814E+03 -2.93097E+02
 -5.77030E+02 -1.29910E+03 -1.13267E+03 -1.64783E+02 -1.10732E+03 -7.06654E+02 -1.61207E+03 -1.69737E+02
 -1.59151E+03 -1.64875E+02  3.14183E+02 -1.15612E+03  1.55019E+03 -1.89307E+03  1.65325E+03 -1.16270E+03
  1.23986E+03  1.47662E+02  8.16744E+01  1.09967E+03 -3.05935E+02  7.49825E+02 -1.72533E+01 -3.26767E+01
