 $NMID ID='MM_0lb_SNR200_11hz_g55_91.RAW', FMTDAT='(8E13.5)'
 TRAMP=1., VOLUME=1. $END
  3.11081E+05 -6.05811E+02  3.38038E+05  2.50790E+05  8.46125E+04  3.38060E+05 -1.32558E+05  2.53283E+05
 -1.90090E+05  8.28649E+04 -1.12695E+05 -3.27245E+04 -3.19335E+02 -5.13141E+04  5.55215E+04 -5.12992E+02
  3.63641E+04  5.15864E+04 -1.78478E+04  7.54123E+04 -6.13280E+04  6.47205E+04 -8.59533E+04  3.26762E+04
 -8.24003E+04 -1.19433E+04 -5.81546E+04 -5.28956E+04 -1.46007E+04 -6.98361E+04  2.66955E+04 -4.82547E+04
  4.02714E+04  2.76867E+03  1.58139E+04  4.86152E+04 -3.38348E+04  4.87795E+04 -6.84614E+04 -6.79991E+02
 -5.38105E+04 -5.88872E+04 -7.32233E+03 -7.83466E+04  3.33944E+04 -5.55107E+04  4.84332E+04 -1.68044E+04
  4.45303E+04  1.27353E+04  3.08136E+04  2.61940E+04  1.56469E+04  2.98993E+04 -7.29165E+03  2.70554E+04
 -2.38117E+04  1.27535E+04 -1.81158E+04 -5.26653E+03  6.18547E+03 -7.68613E+03  2.38725E+04  1.33384E+04
  8.42869E+03  3.56748E+04 -3.48527E+04  3.67465E+04 -6.47800E+04  2.21501E+03 -5.70305E+04 -4.42670E+04
 -1.30890E+04 -6.57582E+04  4.10605E+04 -4.59409E+04  6.02977E+04 -2.10899E+03  3.59201E+04  3.33380E+04
 -5.70111E+03  3.64972E+04 -3.05126E+04  1.90758E+04 -3.33463E+04 -4.29385E+03 -1.90414E+04 -1.25238E+04
 -9.24178E+03 -1.33526E+04 -8.34967E+02 -1.82831E+04  9.27677E+03 -2.28521E+04  1.51595E+04 -1.28759E+04
  1.03935E+04  4.97348E+03 -8.98445E+03  1.27218E+04 -2.31032E+04 -7.52420E+03 -9.20855E+03 -3.58211E+04
  2.26585E+04 -4.59106E+04  5.01053E+04 -1.95270E+04  4.85584E+04  2.01018E+04  1.73374E+04  4.59935E+04
 -1.71488E+04  3.64214E+04 -2.68902E+04  2.88604E+03 -1.19472E+04 -3.02520E+04  2.12665E+04 -3.63352E+04
  4.41521E+04 -1.13671E+04  3.86095E+04  2.59587E+04  2.07244E+04  4.99935E+04 -1.02866E+04  5.31322E+04
 -3.39666E+04  3.69685E+04 -4.67297E+04  1.09685E+04 -4.58929E+04 -1.78737E+04 -2.67404E+04 -4.00197E+04
  6.77582E+03 -3.99340E+04  3.39288E+04 -1.55897E+04  3.07452E+04  1.17933E+04  5.39345E+03  2.00596E+04
 -1.25169E+04  1.01810E+04 -1.12633E+04 -7.45884E+03  5.08677E+03 -1.17576E+04  1.87114E+04  6.19212E+03
  1.31502E+04  2.37535E+04 -5.10491E+03  2.74467E+04 -2.22573E+04  1.27347E+04 -2.94537E+04 -3.21666E+03
 -2.40180E+04 -1.70946E+04 -1.09018E+04 -2.26923E+04  3.12525E+03 -2.40693E+04  1.60238E+04 -2.20496E+04
  3.00477E+04 -1.42918E+04  3.64276E+04  4.85221E+03  2.71453E+04  2.22731E+04  3.30800E+03  3.95414E+04
 -1.90335E+04  3.49435E+04 -2.94670E+04  1.24821E+04 -2.30495E+04 -1.00844E+04 -5.14321E+03 -1.15097E+04
  1.62625E+03 -1.99033E+03 -5.77441E+03  8.21272E+03 -2.09354E+04  5.26758E+03 -1.93532E+04 -8.67723E+03
 -1.10520E+04 -2.10852E+04  5.38144E+03 -2.57735E+04  1.84190E+04 -1.99721E+04  2.25398E+04  2.05144E+02
  1.46617E+04  1.44314E+04 -1.24355E+03  2.24015E+04 -1.41333E+04  1.46548E+04 -2.31798E+04 -3.98822E+03
 -1.60428E+04 -2.03378E+04 -1.86461E+02 -2.65504E+04  1.11098E+04 -2.12672E+04  2.20230E+04 -1.10709E+04
  2.10053E+04  3.00738E+02  1.42315E+04  4.01717E+03  9.28715E+03  1.47842E+03  1.11331E+04 -1.29911E+03
  2.02151E+04  2.07265E+02  2.38296E+04  1.79153E+04  1.61868E+04  3.59693E+04 -1.79855E+03  4.17558E+04
 -2.44566E+04  3.39273E+04 -3.80861E+04  1.73832E+04 -4.17663E+04 -1.49234E+03 -3.43541E+04 -2.24800E+04
 -1.37386E+04 -3.51264E+04  1.26581E+04 -2.99066E+04  2.63565E+04 -1.40299E+04  2.28609E+04  6.49863E+03
  7.13918E+03  1.89253E+04 -9.87285E+03  1.30856E+04 -1.85885E+04  3.85187E+03 -1.47652E+04 -1.15738E+04
 -4.35646E+02 -1.78484E+04  9.74532E+03 -1.37173E+04  1.25108E+04 -2.30470E+03  3.22903E+03  7.90331E+03
 -8.33099E+03  2.96925E+03 -9.11089E+03 -5.92788E+03 -1.06105E+03 -1.58216E+04  1.25539E+04 -1.77475E+04
  2.09113E+04 -1.13286E+04  2.33651E+04  4.10436E+03  2.18061E+04  1.82839E+04  9.71120E+03  2.63507E+04
 -4.73754E+03  2.76708E+04 -1.77618E+04  1.73553E+04 -2.09030E+04  4.53767E+03 -1.53968E+04 -4.79367E+03
 -6.21633E+03 -6.11310E+03 -2.29480E+03 -6.19350E+02 -3.51515E+03  2.91309E+03 -7.45426E+03  4.72350E+03
 -1.23753E+04 -1.62914E+03 -1.33916E+04 -1.13114E+04 -5.05242E+03 -1.71758E+04  5.40474E+03 -1.42436E+04
  1.21135E+04 -6.68338E+03  9.17982E+03  2.17698E+03 -1.02891E+03  6.07254E+03 -6.56298E+03  7.92860E+02
 -7.00336E+03 -8.94462E+03 -7.61143E+02 -1.40717E+04  1.00394E+04 -1.47639E+04  1.84662E+04 -7.51829E+03
  2.16531E+04  3.25406E+03  1.56484E+04  1.20767E+04  2.78682E+03  1.66878E+04 -9.44094E+03  1.22646E+04
 -1.19165E+04  4.88163E+03 -5.69289E+03 -3.30815E+03  3.05189E+03 -3.16089E+03  7.55011E+03 -1.00847E+03
  5.86875E+03  5.41562E+03  1.27718E+03  1.11132E+04 -8.15268E+03  1.07948E+04 -1.37555E+04  2.51099E+03
 -1.04749E+04 -8.47543E+03  1.20145E+03 -1.24732E+04  9.10682E+03 -6.67256E+03  6.06860E+03  2.82692E+03
  1.64502E+02  8.38729E+03 -6.69190E+03  1.00025E+04 -1.21014E+04  4.29231E+03 -1.17163E+04 -3.39174E+03
 -6.55729E+03 -1.39119E+04  3.61254E+03 -1.54091E+04  1.25438E+04 -8.20829E+03  1.34428E+04  2.25601E+03
  9.36140E+03  1.25814E+04 -2.31169E+03  1.43928E+04 -1.09968E+04  7.13021E+03 -1.08497E+04 -4.38483E+02
 -9.49090E+03 -9.32894E+03 -2.22805E+03 -1.07343E+04  5.87967E+03 -7.83296E+03  8.31422E+03 -4.56241E+03
  4.45939E+03  2.55496E+03 -2.04120E+02  1.39241E+03 -8.82450E+02 -3.53343E+03  1.75894E+03 -6.76252E+03
  9.72119E+03 -3.95779E+03  1.30621E+04  1.91983E+03  1.23751E+04  9.55421E+03  9.92812E+03  1.74191E+04
 -4.39000E+03  1.94929E+04 -1.67657E+04  1.55640E+04 -2.03578E+04  3.14659E+03 -1.81380E+04 -7.21281E+03
 -7.88691E+03 -1.54058E+04 -8.73563E+02 -1.33626E+04  5.86781E+03 -7.17811E+03  6.17762E+03 -4.77836E+03
  3.57714E+03 -1.54451E+03  3.67320E+03 -4.22246E+03  4.60728E+03 -2.64013E+03  5.62946E+03  1.26383E+01
  9.32117E+03  2.38887E+03  5.26272E+03  8.15838E+03 -2.67259E+03  8.73223E+03 -8.83495E+03  6.51317E+03
 -1.05392E+04 -1.15705E+03 -7.29773E+03 -8.03940E+03 -7.21771E+02 -1.37554E+04  8.40316E+03 -1.27434E+04
  1.43574E+04 -6.19055E+03  1.75943E+04  1.69049E+03  1.13389E+04  1.19829E+04  2.23413E+03  1.45228E+04
 -6.62038E+03  1.12220E+04 -9.45327E+03  4.68825E+03 -6.24424E+03 -2.58399E+03 -1.50619E+03 -3.40768E+03
 -3.03045E+03  6.78193E+02 -1.11679E+03  2.12396E+03 -4.71583E+03  3.16864E+03 -8.97694E+03 -1.13603E+03
 -5.48570E+03 -8.34791E+03  1.11096E+02 -1.29980E+04  6.57960E+03 -1.08062E+04  1.19522E+04 -4.57395E+03
  1.03804E+04  6.81360E+03  5.36559E+03  1.05125E+04 -4.16384E+03  1.26591E+04 -9.38858E+03  7.39093E+03
 -1.24715E+04 -5.11313E+01 -8.32143E+03 -7.24379E+03  1.70376E+02 -1.05678E+04  5.88604E+03 -7.31647E+03
  7.57528E+03 -2.19870E+03  4.63906E+03  1.46435E+03  2.12396E+03  4.39963E+03  1.21682E+03  1.82613E+03
  2.13413E+03  7.60675E+02  1.88927E+03  2.12123E+03  2.59070E+03  3.86734E+03  3.36574E+03  5.74740E+03
 -2.32819E+03  9.63462E+03 -7.57717E+03  1.00723E+04 -1.03446E+04  1.67652E+03 -1.29298E+04 -4.14688E+03
 -7.33496E+03 -1.11947E+04  2.23531E+03 -1.40260E+04  5.90769E+03 -8.63871E+03  1.07184E+04 -3.74407E+03
  8.48947E+03  5.12996E+03  1.72130E+03  8.33179E+03 -3.78232E+03  5.12437E+03 -4.26900E+03 -1.52001E+03
 -2.41108E+03 -5.37895E+03  2.24351E+03 -5.01984E+03  4.54374E+03 -3.10466E+03  4.53268E+03  1.75577E+03
  3.17888E+03  2.72418E+03  1.77826E+03  1.79443E+03 -1.50000E+03  1.82166E+03  2.24776E+03  1.69050E+02
  9.80854E+02  2.21296E+02  3.83831E+03  1.96428E+03  2.86969E+03  8.71579E+03 -1.00415E+03  8.63164E+03
 -5.39957E+03  5.08489E+03 -7.88725E+03  7.54334E+02 -6.47928E+03 -1.27415E+03 -2.27385E+03 -4.31395E+03
  6.22402E+02 -4.53701E+03  3.76734E+03 -2.83091E+03  2.99950E+03  2.89719E+03 -2.62138E+03  3.55769E+03
 -4.77683E+03  1.64233E+03 -4.47992E+03 -2.11643E+03 -2.93278E+03 -7.69409E+03  6.10711E+02 -5.97583E+03
  4.64207E+03 -4.33951E+03  3.58806E+03  6.42369E+02  4.71336E+03  1.96669E+03  5.85456E+02  5.14067E+03
 -2.00615E+03  8.39828E+02 -3.86527E+03 -2.04333E+03  1.67315E+03 -3.66669E+03  5.30026E+03 -4.31283E+03
  8.27872E+03 -4.41865E+01  6.48280E+03  4.92519E+03  2.38464E+03  8.81087E+03 -1.45377E+03  6.77974E+03
 -5.43246E+03  4.47219E+03 -6.84392E+03  4.92217E+02 -2.72626E+03 -5.54924E+03  1.16238E+03 -4.37892E+03
  4.27052E+03 -2.37133E+03  4.11657E+03  1.67521E+03  2.71351E+03  4.51577E+03 -1.60431E+03  4.43844E+03
 -2.04384E+03  2.63716E+03 -1.89283E+03 -5.16327E+01 -4.90800E+02  3.16597E+02 -1.82690E+03  1.36749E+03
 -1.68255E+03  3.96027E+03 -6.00389E+03  2.80806E+03 -6.74196E+03 -1.20472E+02 -8.30947E+03 -4.55160E+03
 -2.96980E+03 -8.72469E+03  7.65427E+02 -1.22387E+04  8.09321E+03 -9.15501E+03  1.16434E+04 -3.87655E+03
  8.56886E+03  2.45992E+03  5.68383E+03  5.82583E+03 -6.76891E+02  7.72972E+03 -3.00918E+03  6.41176E+03
 -4.82987E+03  2.92406E+03 -1.94619E+03  1.88791E+01 -4.64423E+02 -8.16611E+02 -1.00358E+03 -1.04002E+03
 -3.50287E+03 -5.88663E+02 -2.26241E+03 -2.83072E+02 -2.77252E+02 -2.04577E+03 -2.96475E+02 -3.62769E+03
  3.46831E+03 -3.69843E+03  4.41177E+03  2.97496E+02  5.30505E+03  5.44834E+03  1.37717E+03  7.95357E+03
 -3.71915E+03  8.36706E+03 -8.16823E+03  3.64742E+03 -6.51046E+03  3.87493E+02 -7.25234E+03 -5.12052E+03
 -3.35740E+03 -7.54625E+03  2.35467E+03 -7.20639E+03  4.55744E+03 -4.07697E+03  5.37387E+03 -1.76990E+02
  2.04769E+03  2.40252E+03 -2.40273E+02  1.62140E+03 -1.93607E+03  5.30076E+02  4.98159E+02 -2.56112E+03
  2.99163E+03 -6.47187E+02  1.67583E+03  1.07531E+03  6.50877E+02  2.95647E+03  9.96688E+02  4.00772E+03
 -4.12479E+03  3.46078E+03 -4.75906E+03  6.94889E+02 -4.95521E+03 -2.50165E+03 -8.42758E+02 -6.65567E+03
  3.18063E+03 -4.85274E+03  5.38969E+03 -1.35612E+03  5.00084E+03  1.06021E+03  2.93852E+03  5.11612E+03
  1.30487E+02  3.37532E+03 -2.42874E+03  3.54231E+03 -2.45088E+03  3.35399E+03 -1.56982E+03  1.85497E+03
 -9.25945E+02  1.09893E+03 -1.56912E+03 -7.83083E+02 -1.69825E+03  2.41636E+02 -4.91139E+03 -2.18691E+02
 -3.43290E+03 -1.35064E+03 -2.27679E+03 -5.62862E+03  3.54280E+03 -6.71504E+03  4.00375E+03 -1.44326E+03
  5.55288E+03  1.04274E+03  7.78117E+02  2.75894E+03  7.94265E+02  3.33670E+03 -3.59390E+03  3.48128E+03
