 $NMID ID='MM_0lb_SNR200_7hz_g50_18.RAW', FMTDAT='(8E13.5)'
 TRAMP=1., VOLUME=1. $END
  3.09082E+05  6.78842E+02  3.37449E+05  2.51852E+05  8.32774E+04  3.38237E+05 -1.34208E+05  2.51430E+05
 -1.90225E+05  8.37827E+04 -1.10365E+05 -3.15162E+04  5.68637E+02 -5.09799E+04  5.38673E+04 -9.80393E+02
  3.59592E+04  5.23014E+04 -1.63246E+04  7.83258E+04 -6.06906E+04  6.43395E+04 -8.59855E+04  3.23634E+04
 -8.33130E+04 -1.42877E+04 -5.89292E+04 -5.39653E+04 -1.51455E+04 -7.24441E+04  2.89681E+04 -4.83834E+04
  4.31585E+04  3.95951E+03  1.70855E+04  4.91785E+04 -3.51853E+04  4.75464E+04 -6.76502E+04  5.36291E+02
 -5.51345E+04 -5.84269E+04 -7.76762E+03 -7.98444E+04  3.70430E+04 -5.88388E+04  5.07629E+04 -1.87612E+04
  4.60110E+04  1.25604E+04  3.22757E+04  2.65510E+04  1.56793E+04  3.12839E+04 -7.02936E+03  2.83005E+04
 -2.26502E+04  1.01807E+04 -1.84196E+04 -5.84441E+03  8.36957E+03 -7.99253E+03  2.35833E+04  1.35944E+04
  5.88041E+03  3.90723E+04 -3.67136E+04  3.82573E+04 -6.53580E+04  1.97619E+03 -5.78093E+04 -4.54266E+04
 -1.21415E+04 -6.81021E+04  4.30460E+04 -4.62574E+04  6.20118E+04 -3.20727E+03  3.85338E+04  3.70019E+04
 -4.57553E+03  4.06802E+04 -3.20686E+04  2.11834E+04 -3.38440E+04 -2.17949E+03 -2.01324E+04 -1.17922E+04
 -1.11557E+04 -1.58571E+04  4.76946E+02 -2.05065E+04  7.50806E+03 -2.11096E+04  1.53028E+04 -1.17266E+04
  1.09675E+04  7.25908E+03 -1.05389E+04  1.36512E+04 -2.47191E+04 -6.82896E+03 -8.58237E+03 -3.76850E+04
  2.54164E+04 -4.89460E+04  5.45646E+04 -2.11757E+04  5.00287E+04  2.14931E+04  1.90226E+04  4.66530E+04
 -1.54604E+04  3.57882E+04 -3.03573E+04  2.41374E+03 -1.18596E+04 -2.95819E+04  2.26961E+04 -3.84584E+04
  4.66752E+04 -1.26531E+04  4.21409E+04  2.75048E+04  2.32429E+04  5.13968E+04 -5.84595E+03  5.85373E+04
 -3.84383E+04  3.86805E+04 -4.95035E+04  1.22781E+04 -4.91995E+04 -1.84297E+04 -2.78616E+04 -4.46281E+04
  7.70351E+03 -4.21195E+04  3.64176E+04 -1.87628E+04  3.42480E+04  1.24961E+04  5.55671E+03  2.08781E+04
 -1.33546E+04  9.25768E+03 -1.16037E+04 -7.42925E+03  5.13092E+03 -1.22427E+04  1.95737E+04  3.40317E+03
  1.50463E+04  2.41102E+04 -3.74273E+03  2.93488E+04 -2.46708E+04  1.61614E+04 -3.22710E+04 -2.09170E+03
 -2.77767E+04 -1.99609E+04 -1.41621E+04 -2.60702E+04  5.47927E+03 -2.78547E+04  2.20710E+04 -2.46271E+04
  3.37793E+04 -1.52413E+04  4.09949E+04  5.60974E+03  2.72213E+04  2.67588E+04  5.38480E+03  4.39173E+04
 -2.04844E+04  3.35234E+04 -3.09556E+04  1.15022E+04 -2.25985E+04 -1.11620E+04 -5.95628E+03 -1.39532E+04
 -1.37735E+03 -1.53587E+03 -8.38036E+03  8.19213E+03 -2.24793E+04  7.10256E+03 -2.17697E+04 -1.19052E+04
 -1.15122E+04 -2.48847E+04  9.09081E+03 -2.93192E+04  2.18255E+04 -2.13606E+04  2.42756E+04 -1.66664E+03
  1.64308E+04  1.78624E+04 -6.96796E+02  2.66174E+04 -1.60067E+04  1.46516E+04 -2.66692E+04 -5.34945E+03
 -1.69383E+04 -2.31781E+04 -1.45719E+03 -3.17172E+04  1.33975E+04 -2.62764E+04  2.64540E+04 -1.53759E+04
  2.35567E+04 -5.11021E+02  1.92578E+04  4.41410E+03  8.90724E+03  4.05095E+02  1.32482E+04 -2.77141E+03
  2.43116E+04  2.54305E+03  2.76166E+04  1.91953E+04  2.09726E+04  4.22404E+04 -1.51147E+03  4.72074E+04
 -2.64052E+04  4.26305E+04 -4.70265E+04  2.07503E+04 -4.90642E+04 -3.69936E+03 -3.90334E+04 -3.07192E+04
 -1.59891E+04 -4.15364E+04  1.61999E+04 -3.51620E+04  2.89673E+04 -1.59100E+04  2.70847E+04  8.45695E+03
  7.20818E+03  2.09325E+04 -1.28816E+04  1.73341E+04 -2.03345E+04  1.60368E+03 -1.52053E+04 -1.37782E+04
 -3.51700E+02 -2.20663E+04  1.30590E+04 -1.44889E+04  1.64681E+04 -1.45324E+03  2.89985E+03  8.24005E+03
 -8.86134E+03  4.60254E+03 -9.52740E+03 -7.25048E+03 -3.17080E+03 -1.95466E+04  1.38297E+04 -2.41681E+04
  2.66800E+04 -1.28112E+04  2.98592E+04  5.56729E+03  2.71098E+04  2.02095E+04  1.12319E+04  3.13274E+04
 -8.36691E+03  3.43805E+04 -2.16913E+04  2.19202E+04 -2.62618E+04  3.07350E+03 -1.72078E+04 -8.86868E+03
 -6.42748E+03 -9.21412E+03 -1.41542E+03 -1.80444E+03 -4.10966E+03  2.77425E+03 -9.35998E+03  7.46666E+03
 -1.48225E+04 -1.52820E+03 -1.79043E+04 -1.54256E+04 -5.51504E+03 -2.30854E+04  8.18487E+03 -1.83100E+04
  1.55750E+04 -6.37967E+03  9.22924E+03  4.75750E+03 -1.53188E+03  6.15017E+03 -7.74177E+03 -2.72326E+02
 -9.07713E+03 -1.02985E+04 -1.22433E+03 -1.79970E+04  1.00255E+04 -1.78955E+04  2.11483E+04 -9.99066E+03
  2.68669E+04  3.84903E+03  1.87010E+04  1.71035E+04  2.82758E+03  2.11253E+04 -9.79913E+03  1.85178E+04
 -1.40481E+04  4.22679E+03 -6.01670E+03 -5.22003E+03  2.65337E+03 -4.77055E+03  7.92463E+03 -4.79923E+02
  8.97192E+03  8.53634E+03  2.75852E+03  1.56159E+04 -9.48567E+03  1.28928E+04 -1.68436E+04  2.48792E+03
 -1.27887E+04 -8.61598E+03 -2.74764E+02 -1.35239E+04  8.54286E+03 -8.59518E+03  1.27883E+04  3.59828E+03
  3.05898E+03  1.33080E+04 -1.02163E+04  1.34775E+04 -1.56262E+04  6.06843E+03 -1.77744E+04 -4.73388E+03
 -7.87019E+03 -2.10278E+04  5.40711E+03 -2.25639E+04  1.94910E+04 -1.35419E+04  1.96664E+04  4.90166E+03
  1.27340E+04  1.40686E+04 -7.89475E+02  2.02245E+04 -1.35738E+04  9.32753E+03 -1.29484E+04 -2.70784E+03
 -1.19617E+04 -1.30196E+04 -1.37299E+03 -1.56711E+04  6.23660E+03 -1.01907E+04  8.63877E+03 -5.65491E+03
  4.37637E+03  2.18192E+03 -2.48666E+03  3.75783E+03 -1.67115E+03 -3.05973E+03  2.66825E+03 -8.44332E+03
  1.40497E+04 -4.28530E+03  1.81422E+04  3.27363E+03  2.05762E+04  1.24569E+04  1.28911E+04  2.57363E+04
 -4.91691E+03  2.82600E+04 -2.24500E+04  2.15771E+04 -3.10053E+04  2.38933E+03 -2.53521E+04 -1.12469E+04
 -1.30745E+04 -1.90787E+04  1.25970E+02 -1.81179E+04  5.82317E+03 -1.13034E+04  7.52593E+03 -6.77730E+03
  5.08777E+03 -4.68216E+03  4.13206E+03 -5.28044E+03  6.71384E+03 -3.79008E+03  9.79236E+03 -1.88511E+03
  1.25383E+04  2.98987E+03  6.33605E+03  9.44679E+03 -2.52659E+03  1.60643E+04 -1.49395E+04  1.13808E+04
 -1.77086E+04 -1.36291E+03 -1.12247E+04 -1.22748E+04 -2.82477E+03 -2.00644E+04  9.11936E+03 -1.82321E+04
  2.06095E+04 -1.10164E+04  2.30518E+04  4.53244E+03  1.59469E+04  1.81834E+04  2.56314E+03  2.11282E+04
 -8.41932E+03  1.83347E+04 -1.32666E+04  6.96121E+03 -9.55224E+03 -2.56773E+03 -3.38106E+03 -2.61156E+03
 -1.53039E+03 -2.03081E+03 -4.61636E+03  4.19497E+03 -7.48842E+03  3.17736E+03 -1.05688E+04 -2.11801E+03
 -8.45988E+03 -1.09714E+04 -3.07614E+02 -1.88706E+04  9.85915E+03 -1.66411E+04  1.93229E+04 -4.97547E+03
  1.73225E+04  9.32315E+03  8.71527E+03  1.69105E+04 -1.73399E+03  1.87504E+04 -1.48818E+04  1.28842E+04
 -1.92472E+04 -1.07132E+03 -1.37388E+04 -1.08635E+04 -9.82433E+02 -1.52079E+04  8.09209E+03 -1.11881E+04
  1.04181E+04 -3.64546E+03  7.55713E+03  3.26240E+03  1.82031E+03  6.86960E+03  1.65644E+03  2.17942E+03
  3.03809E+03  2.32875E+03  2.23994E+03  2.11405E+03  3.48758E+03  7.65459E+03  4.48792E+03  1.12104E+04
 -3.33619E+03  1.57271E+04 -1.47384E+04  1.52079E+04 -1.87868E+04  3.93022E+03 -1.79514E+04 -8.01903E+03
 -1.06108E+04 -1.95126E+04  3.49341E+03 -2.00759E+04  1.24608E+04 -1.33774E+04  1.56032E+04 -3.63280E+03
  1.10657E+04  5.47929E+03  4.48061E+03  1.18278E+04 -6.17605E+03  7.64943E+03 -7.25991E+03 -4.04212E+02
 -4.90810E+03 -8.52958E+03  5.22114E+03 -9.25962E+03  1.13563E+04 -5.47516E+03  8.64762E+03  2.28431E+03
  5.27170E+03  5.71539E+03  3.09958E+03  3.54825E+03 -3.73908E+03  1.71533E+03  2.72181E+03 -1.57208E+03
  2.79700E+03 -4.97438E+02  6.56682E+03  3.82974E+03  6.73645E+03  1.10256E+04 -1.68112E+03  1.28632E+04
 -9.26131E+03  1.08590E+04 -1.26019E+04  4.97196E+03 -1.09905E+04 -4.80256E+03 -4.00824E+03 -7.84167E+03
  8.90156E+02 -7.89672E+03  4.19414E+03 -4.28988E+03  3.13373E+03  2.66654E+03 -3.28965E+03  7.40933E+03
 -8.31976E+03  3.27929E+03 -8.09940E+03 -5.69307E+03 -5.76221E+03 -1.08920E+04  1.68769E+03 -1.31648E+04
  5.83275E+03 -6.77637E+03  9.61175E+03 -1.22391E+03  7.69973E+03  2.57492E+03  1.59500E+02  7.11190E+03
 -4.65019E+03  6.68369E+02 -4.67378E+03 -2.38437E+03 -5.79986E+02 -8.14553E+03  1.00442E+04 -6.35383E+03
  1.34169E+04  8.17763E+02  1.15020E+04  1.04423E+04  3.17659E+03  1.25518E+04 -6.24063E+03  1.16886E+04
 -1.17849E+04  5.37252E+03 -1.08356E+04 -1.01598E+03 -5.19326E+03 -6.01673E+03  2.79231E+03 -6.11233E+03
  8.56482E+03 -5.27990E+03  6.34444E+03  4.52142E+03  2.79718E+03  8.44145E+03 -2.87493E+03  6.58412E+03
 -1.96127E+03  2.78474E+03 -1.51876E+03  5.64344E+02 -1.27302E+03  1.96597E+03 -3.13515E+03  2.82781E+03
 -2.61182E+03  5.64743E+03 -8.14138E+03  2.77864E+03 -1.29004E+04  1.53876E+03 -1.32304E+04 -9.52545E+03
 -7.23528E+03 -1.92512E+04  2.78591E+03 -2.14567E+04  1.45913E+04 -1.77449E+04  1.97389E+04 -6.55310E+03
  1.95976E+04  5.59549E+03  1.11709E+04  1.40457E+04  1.77199E+03  1.45602E+04 -5.68612E+03  1.15096E+04
 -8.26996E+03  2.39263E+03 -3.98203E+03 -9.07172E+02  3.07176E+02 -2.98280E+02 -1.08487E+03  8.03752E+02
 -9.47537E+02 -1.42371E+03 -2.70092E+03 -2.50931E+03 -2.35309E+03 -4.13267E+03  1.08196E+03 -6.72981E+03
  7.04028E+03 -5.47136E+03  9.00193E+03  1.99753E+02  1.20034E+04  9.76722E+03  2.54284E+03  1.39743E+04
 -7.61741E+03  1.64744E+04 -1.83188E+04  9.34468E+03 -1.90883E+04 -8.19670E+02 -1.33269E+04 -1.22743E+04
 -4.79664E+03 -1.41272E+04  4.96461E+03 -1.31680E+04  1.01043E+04 -7.56372E+03  8.57452E+03 -9.60498E+02
  6.09137E+03  6.09890E+03 -1.88872E+03  3.47414E+03 -2.99517E+03  2.70898E+02  3.32530E+01 -5.14099E+03
  5.80321E+03 -1.17263E+03  5.35003E+03  1.14819E+03  3.38584E+03  6.75359E+03 -4.34833E+02  7.72460E+03
 -7.67711E+03  5.51851E+03 -8.69298E+03  4.68966E+02 -8.89855E+03 -8.82478E+03 -5.83015E+02 -1.20985E+04
  6.72826E+03 -1.06998E+04  1.17562E+04 -5.05947E+03  1.13027E+04  1.57727E+03  6.20075E+03  1.06604E+04
 -3.55842E+02  1.03476E+04 -4.84464E+03  8.26084E+03 -5.17388E+03  4.81141E+03 -4.00144E+03  1.98331E+03
 -2.39656E+03  3.62793E+02 -2.56863E+03  2.16348E+03 -3.85561E+03  2.20431E+03 -7.36378E+03 -9.35913E+02
 -1.07516E+04 -8.31926E+03 -1.68988E+03 -1.04444E+04  4.62022E+03 -1.19235E+04  9.87761E+03 -6.53993E+03
  1.03829E+04  2.41943E+03  5.70710E+03  9.13128E+03 -9.63167E+02  9.65905E+03 -6.24777E+03  6.00847E+03
