 $NMID ID='MM_0lb_SNR200_18hz_g50_48.RAW', FMTDAT='(8E13.5)'
 TRAMP=1., VOLUME=1. $END
  3.09615E+05  1.06324E+03  3.37378E+05  2.51174E+05  8.27541E+04  3.37270E+05 -1.31760E+05  2.50361E+05
 -1.89979E+05  8.28886E+04 -1.11721E+05 -3.23657E+04  1.30483E+03 -5.03909E+04  5.41871E+04  5.53317E+01
  3.55462E+04  5.34558E+04 -1.73677E+04  7.56989E+04 -6.06628E+04  6.23325E+04 -8.29588E+04  3.13075E+04
 -7.97106E+04 -1.09167E+04 -5.58914E+04 -5.10792E+04 -1.56223E+04 -6.88438E+04  2.60762E+04 -4.50923E+04
  3.83706E+04  4.79866E+03  1.51101E+04  4.76788E+04 -3.42155E+04  4.64591E+04 -6.59714E+04 -4.42050E+02
 -5.28024E+04 -5.62228E+04 -5.84115E+03 -7.55328E+04  3.36465E+04 -5.30175E+04  4.73628E+04 -1.56909E+04
  4.19160E+04  1.07828E+04  3.15211E+04  2.33522E+04  1.42565E+04  2.85177E+04 -5.03659E+03  2.70220E+04
 -2.21260E+04  1.33828E+04 -1.89239E+04 -4.67014E+03  4.15714E+03 -7.84425E+03  2.10636E+04  1.15911E+04
  8.66418E+03  3.36797E+04 -3.06767E+04  3.53906E+04 -6.33281E+04  2.57764E+03 -5.58010E+04 -4.33185E+04
 -1.32077E+04 -6.14940E+04  3.78151E+04 -4.37436E+04  5.61619E+04 -1.94924E+03  3.18801E+04  3.12146E+04
 -5.97676E+03  3.32610E+04 -2.87604E+04  1.41707E+04 -2.78324E+04 -4.14042E+03 -1.57133E+04 -9.94173E+03
 -7.53653E+03 -1.12627E+04 -1.17971E+03 -1.64699E+04  7.14701E+03 -2.26532E+04  1.64624E+04 -1.51976E+04
  1.28872E+04  4.52267E+03 -7.16091E+03  1.32994E+04 -1.99106E+04 -2.90977E+03 -8.44652E+03 -3.09502E+04
  2.15162E+04 -4.17004E+04  4.60401E+04 -1.91028E+04  4.31838E+04  1.87891E+04  1.41499E+04  4.20795E+04
 -1.59389E+04  3.15583E+04 -2.38216E+04  1.48302E+03 -8.58905E+03 -2.63049E+04  2.09560E+04 -3.19208E+04
  3.78508E+04 -8.80664E+03  3.18163E+04  2.17043E+04  1.52375E+04  4.37951E+04 -7.01357E+03  4.62122E+04
 -3.00186E+04  3.18961E+04 -3.92638E+04  9.19389E+03 -3.98535E+04 -1.52843E+04 -2.07413E+04 -3.55779E+04
  6.60046E+03 -3.43343E+04  2.94309E+04 -1.32091E+04  2.67333E+04  1.05716E+04  3.12180E+03  1.80634E+04
 -1.23065E+04  7.09734E+03 -1.02802E+04 -6.77513E+03  7.11950E+03 -1.02369E+04  1.82959E+04  6.95774E+03
  1.22903E+04  2.06571E+04 -5.79579E+03  2.36159E+04 -2.19270E+04  9.22740E+03 -2.54082E+04 -6.35803E+03
 -1.65397E+04 -1.67915E+04 -6.22421E+03 -1.74284E+04  3.97169E+03 -1.57645E+04  1.37068E+04 -1.41987E+04
  2.26512E+04 -1.20678E+04  2.85734E+04  1.08210E+03  2.17225E+04  1.69336E+04  4.18689E+03  3.23354E+04
 -1.51892E+04  2.79649E+04 -2.73962E+04  9.19410E+03 -2.00602E+04 -1.00159E+04 -3.92299E+03 -1.35859E+04
  2.63355E+03 -3.97517E+03 -4.00187E+03  5.74663E+03 -1.31878E+04  4.82718E+03 -1.38758E+04 -4.85030E+03
 -8.38356E+03 -1.45466E+04  5.30465E+03 -1.97978E+04  1.30617E+04 -1.44405E+04  1.59974E+04 -2.06356E+03
  8.41388E+03  1.18745E+04  5.21767E+02  1.66973E+04 -9.74901E+03  8.91802E+03 -1.51804E+04 -2.35069E+03
 -1.22891E+04 -1.51793E+04 -1.58363E+03 -2.09111E+04  9.55945E+03 -1.60161E+04  1.66177E+04 -7.29142E+03
  1.59469E+04  2.25083E+02  1.01781E+04  3.41183E+03  5.29853E+03 -9.72534E+00  7.31919E+03 -2.40438E+03
  1.37581E+04  4.87560E+03  1.48902E+04  1.30408E+04  1.06865E+04  2.40903E+04 -3.09388E+03  2.76249E+04
 -1.64920E+04  2.18970E+04 -2.58690E+04  1.01042E+04 -2.63019E+04 -5.73951E+02 -2.16213E+04 -1.62060E+04
 -1.01597E+04 -2.15723E+04  6.61803E+03 -1.91963E+04  1.73540E+04 -1.15559E+04  1.60082E+04  4.88363E+03
  7.22202E+03  1.18581E+04 -6.76696E+03  1.06380E+04 -1.38683E+04  2.74832E+03 -1.06906E+04 -8.03504E+03
  3.08092E+02 -1.27508E+04  7.33651E+03 -1.03910E+04  8.54598E+03 -1.06683E+03  5.14460E+02  5.39345E+03
 -6.12028E+03  2.55250E+03 -5.03280E+03 -4.51583E+03  2.56581E+02 -1.16801E+04  8.89628E+03 -1.06622E+04
  1.29884E+04 -4.58866E+03  1.28677E+04  3.53093E+03  1.13583E+04  9.17327E+03  4.94394E+03  1.46175E+04
 -1.36181E+03  1.74787E+04 -9.80779E+03  1.03212E+04 -1.21567E+04  3.01175E+03 -8.11869E+03 -1.99079E+03
 -3.92282E+03 -2.70185E+03  6.74513E+01  1.88541E+03 -1.36262E+03  1.30284E+03 -5.31407E+03  4.32422E+03
 -9.15339E+03 -1.36045E+03 -9.82812E+03 -7.55373E+03 -3.28897E+03 -1.17995E+04  3.38222E+03 -8.60300E+03
  7.15070E+03 -3.98881E+03  5.88649E+03  2.36839E+03  1.25426E+03  3.84917E+03 -3.50610E+03 -5.81959E+02
 -5.09659E+03 -6.83768E+03 -6.17265E+02 -8.07566E+03  4.13393E+03 -8.46393E+03  1.15371E+04 -4.78693E+03
  1.22332E+04  1.93449E+02  9.21161E+03  7.63997E+03  2.07812E+03  9.35439E+03 -5.18605E+03  8.47850E+03
 -8.02943E+03  3.35476E+03 -3.34023E+03 -2.49317E+03  8.97672E+02 -2.10979E+03  4.39474E+03 -6.13187E+02
  4.84055E+03  2.96294E+03  1.57763E+03  6.27895E+03 -4.78189E+03  6.05162E+03 -8.85206E+03  2.46393E+03
 -5.24594E+03 -4.33458E+03  4.87878E+02 -7.38048E+03  3.72426E+03 -3.32499E+03  4.15661E+03 -3.70265E+02
  1.53234E+03  3.59077E+03 -4.72008E+03  4.93284E+03 -4.59281E+03  2.22043E+03 -4.98288E+03 -8.17591E+02
 -1.77035E+03 -6.88372E+03  2.06846E+03 -8.50141E+03  6.25211E+03 -3.68715E+03  6.54271E+03  5.58899E+01
  4.31418E+03  5.37631E+03 -4.06542E+02  8.46778E+03 -5.14230E+03  3.67847E+03 -6.65914E+03  3.01009E+02
 -6.45418E+03 -5.39001E+03 -1.54762E+03 -5.93235E+03  3.10978E+03 -5.98276E+03  3.82998E+03 -3.36709E+03
  3.84074E+03 -9.26543E+02 -2.29975E+01  6.42382E+01  1.64694E+03 -7.20567E+02  2.43685E+02 -1.95710E+03
  4.21905E+03 -1.00169E+03  5.68588E+03  4.45163E+02  5.99535E+03  3.09964E+03  5.73848E+03  8.09303E+03
 -1.30184E+03  9.61280E+03 -9.25583E+03  7.48897E+03 -9.70714E+03  1.18554E+03 -8.36939E+03 -3.15496E+03
 -4.44633E+03 -7.06971E+03 -3.99128E+02 -5.42970E+03  2.27955E+03 -1.90004E+03  2.29569E+03 -2.18617E+03
  1.29410E+03 -9.03767E+02  2.56997E+03 -2.74370E+03  3.07222E+03 -2.31683E+03  4.00601E+03  8.62777E+02
  5.00533E+03  1.34908E+03  7.70415E+02  3.90991E+03 -1.77533E+03  2.90949E+03 -4.76017E+03  1.96205E+03
 -4.72188E+03 -2.14369E+02 -3.16013E+03 -2.99973E+03  1.96885E+03 -4.69559E+03  4.40627E+03 -5.04991E+03
  5.86797E+03 -2.81249E+03  7.03724E+03  3.63852E+02  5.52622E+03  5.06137E+03  1.54727E+03  5.58245E+03
 -1.68367E+03  6.40190E+03 -3.45409E+03  1.42572E+03 -7.01984E+02 -2.32611E+02 -7.47367E+02 -4.82172E+02
 -1.25982E+03  3.82596E+02 -1.19069E+03  1.97959E+03 -3.45805E+03  6.95900E+02 -6.30056E+03 -5.85908E+02
 -1.82464E+03 -3.69504E+03  8.59042E+02 -4.00921E+03  2.25086E+03 -4.85504E+03  4.17882E+03 -9.00868E+02
  3.39530E+03  3.05505E+03  2.28373E+03  4.36912E+03 -9.64836E+02  4.93268E+03 -2.90504E+03  3.26174E+03
 -4.25315E+03  3.95195E+02 -2.85403E+03 -1.85757E+03  7.25106E+01 -3.07255E+03  2.53709E+03 -3.16141E+03
  3.37481E+03 -1.29680E+03  1.96838E+03  1.15098E+03  7.21982E+02  2.19378E+03  1.09750E+03  1.36029E+03
  1.29358E+03  1.16659E+03  4.56864E+02  3.15241E+00  1.46943E+03  1.56821E+03  1.28873E+03  1.94312E+03
 -1.50043E+03  2.91637E+03 -1.70515E+03  4.26855E+03 -3.16561E+03  1.43892E+03 -4.62083E+03 -1.68455E+03
 -2.28066E+03 -4.54006E+03  2.02295E+02 -3.64789E+03  2.26069E+03 -3.44186E+03  2.95009E+03 -1.76404E+03
  2.91013E+03  1.90918E+03  6.99409E+02  2.40732E+03 -2.04647E+03 -6.08727E+02 -7.83181E+02 -4.78683E+01
 -1.08417E+03 -8.56614E+02  2.13131E+03 -2.49430E+03  1.13172E+03 -5.55803E+02  8.70888E+02  1.28907E+03
 -5.70873E+01 -3.35953E+02  3.26790E+02  4.18103E+02 -8.64167E+02  1.74480E+02  1.93435E+03 -4.73735E+02
  2.65283E+02 -1.47361E+03  2.13780E+03  1.44329E+03  6.14599E+01  2.88584E+03 -1.49482E+03  3.68269E+03
 -1.05334E+03  2.09304E+03 -2.66564E+03  4.34106E+02 -2.15417E+03 -1.65670E+03 -1.06445E+03 -1.43618E+03
 -5.96120E+02 -2.51291E+03 -7.22550E+00 -1.35264E+03  1.95890E+03  1.58292E+03 -1.35534E+03  1.79841E+03
 -5.97120E+02  1.66277E+03 -9.53171E+02 -1.16025E+03 -9.02499E+02 -2.39442E+03  4.60130E+02 -1.68727E+03
  1.03042E+03 -9.21853E+02  4.81205E+02 -5.25474E+02  1.81507E+03 -1.10217E+03  1.04110E+03  7.73437E+02
 -4.06747E+02 -2.43066E+02 -1.29381E+03 -5.04099E+02  1.12995E+03 -1.33939E+03  1.54768E+03 -3.70756E+02
  2.19304E+03  4.30918E+01  2.61442E+03  1.32592E+03  7.34819E+02  2.03277E+03 -4.52217E+02  1.06406E+03
 -9.30589E+02 -4.32666E+02 -2.34298E+03 -1.26372E+02 -2.18673E+03 -2.59368E+03  8.21580E+01  2.57459E+02
  2.30881E+03 -7.31072E+02  1.07010E+03  5.73626E+02 -2.84703E+02  1.18851E+03 -3.00823E+02  1.12697E+03
 -1.37184E+03  2.37972E+03 -7.08795E+02  1.30181E+03 -2.74053E+02  7.32391E+02 -2.65770E+03  1.44949E+03
 -1.12589E+03  2.41457E+03 -2.14530E+03  4.74228E+02 -1.29208E+03  7.05923E+02 -2.57279E+03  5.17482E+01
 -1.25495E+03 -2.80207E+03  5.52544E+02 -2.97526E+03  1.13111E+03 -3.52243E+03  3.83446E+03 -1.40301E+03
  2.01346E+03 -2.31909E+02  1.79390E+03  1.50965E+03 -4.99194E+02  3.21914E+02 -7.13094E+02  1.64638E+03
 -1.22325E+03  1.67329E+03 -8.83114E+02 -5.81981E+02 -1.74995E+02  1.02764E+03 -6.37168E+02  3.26904E+02
 -2.02524E+03  5.37184E+02 -1.10764E+03 -3.64661E+02  9.41527E+02 -8.74355E+02  2.94179E+01 -1.43185E+03
  2.33366E+03 -4.90515E+02  4.93367E+02 -2.78114E+02  1.06945E+03  1.47648E+02 -4.42807E+02  1.14644E+03
 -1.31595E+03  2.53565E+03 -8.39113E+02  1.58191E+03 -1.06485E+03 -6.46674E+02 -1.72608E+03 -1.94749E+03
 -2.09065E+03 -9.56294E+02 -1.01537E+01 -1.36261E+03  1.56399E+03  4.23410E+02  4.03867E+02  1.54078E+02
  1.74382E+03 -4.26217E+01  6.12730E+02 -5.22464E+02  3.34581E+02 -6.09719E+02 -5.19605E+02  1.08955E+02
  1.18182E+02  6.35461E+02 -3.09336E+02  4.04321E+02 -7.18012E+02  6.46199E+02  4.08020E+02 -3.19551E+02
  3.00244E+02  1.72456E+03 -7.28171E+02  4.05658E+02 -4.34753E+02  7.03340E+02 -2.95336E+02 -1.30791E+03
  9.57014E+02 -9.06192E+02  1.21136E+03 -3.19499E+01  1.28142E+03 -1.85191E+03  3.46597E+02 -4.73893E+02
  4.93154E+02  9.88529E+02 -1.42953E+03  1.89165E+03 -4.67140E+02  1.82933E+03 -1.12097E+03  5.18981E+02
 -2.50970E+02 -1.98969E+02  8.45416E+02 -4.89659E+02 -2.50339E+02 -4.90476E+02 -1.11088E+03 -1.27158E+03
 -5.47349E+02 -2.05133E+01 -2.46105E+02 -2.33022E+03  2.05639E+02 -1.39261E+03  8.10550E+02 -4.42548E+02
  2.18459E+02 -1.33531E+03 -4.98290E+02  5.61736E+02 -3.68074E+02  1.46890E+03  4.12549E+02  1.11043E+03
