 $NMID ID='MM_0lb_SNR200_11hz_g55_64.RAW', FMTDAT='(8E13.5)'
 TRAMP=1., VOLUME=1. $END
  3.08833E+05  1.25854E+03  3.37649E+05  2.49212E+05  8.50256E+04  3.37999E+05 -1.31667E+05  2.52052E+05
 -1.89806E+05  8.42585E+04 -1.12891E+05 -3.13173E+04 -4.90880E+02 -5.07551E+04  5.43116E+04  1.30671E+02
  3.60441E+04  5.37260E+04 -1.59775E+04  7.60463E+04 -5.99766E+04  6.30752E+04 -8.57517E+04  3.24529E+04
 -8.16637E+04 -9.83555E+03 -5.70711E+04 -5.25118E+04 -1.63112E+04 -7.10016E+04  2.82049E+04 -4.68430E+04
  4.07419E+04  4.77459E+03  1.73260E+04  4.81050E+04 -3.44628E+04  4.72870E+04 -6.75270E+04 -3.18775E+02
 -5.45925E+04 -5.72283E+04 -6.49723E+03 -7.84112E+04  3.44611E+04 -5.67891E+04  4.84340E+04 -1.88235E+04
  4.33080E+04  1.14777E+04  3.34865E+04  2.44322E+04  1.81111E+04  3.00355E+04 -6.64748E+03  2.80056E+04
 -2.19487E+04  1.24674E+04 -1.64855E+04 -5.39437E+03  6.47282E+03 -6.73796E+03  2.28944E+04  1.30411E+04
  8.20177E+03  3.65224E+04 -3.46750E+04  3.51758E+04 -6.45778E+04  2.17799E+03 -5.84804E+04 -4.32174E+04
 -1.24331E+04 -6.49231E+04  4.17704E+04 -4.75529E+04  5.89048E+04 -3.02160E+03  3.58912E+04  3.43335E+04
 -5.94671E+03  3.94261E+04 -2.98801E+04  1.86769E+04 -3.15686E+04 -4.09080E+03 -1.88371E+04 -1.14796E+04
 -8.64115E+03 -1.40562E+04  2.41313E+02 -1.86869E+04  7.33950E+03 -2.39122E+04  1.55194E+04 -1.36479E+04
  1.07181E+04  6.87457E+03 -9.40722E+03  1.30130E+04 -2.30630E+04 -5.44672E+03 -8.06909E+03 -3.62079E+04
  2.56558E+04 -4.62567E+04  5.20337E+04 -2.08316E+04  4.73859E+04  2.01335E+04  1.70097E+04  4.63356E+04
 -1.63457E+04  3.57237E+04 -2.66065E+04  1.68831E+03 -1.17886E+04 -2.94975E+04  2.12521E+04 -3.63964E+04
  4.27083E+04 -9.44677E+03  3.78956E+04  2.46951E+04  1.83193E+04  5.02134E+04 -8.89685E+03  5.38749E+04
 -3.58314E+04  3.75459E+04 -4.66709E+04  1.03702E+04 -4.62411E+04 -1.79730E+04 -2.60266E+04 -4.11525E+04
  6.96663E+03 -4.20696E+04  3.15268E+04 -1.62859E+04  3.03738E+04  1.25095E+04  4.19613E+03  1.86747E+04
 -1.43920E+04  9.62694E+03 -1.09855E+04 -9.06441E+03  5.25224E+03 -1.12946E+04  1.83643E+04  4.28532E+03
  1.42841E+04  2.25880E+04 -5.71133E+03  2.60819E+04 -2.33456E+04  1.36124E+04 -3.03798E+04 -2.25178E+03
 -2.45136E+04 -1.74680E+04 -1.07406E+04 -2.46672E+04  5.39657E+03 -2.40581E+04  1.79912E+04 -2.12454E+04
  3.02035E+04 -1.35462E+04  3.56763E+04  4.14008E+03  2.69879E+04  2.31219E+04  6.61088E+03  4.06067E+04
 -1.89103E+04  3.31699E+04 -3.08949E+04  1.06748E+04 -2.28313E+04 -1.02934E+04 -5.97962E+03 -1.35483E+04
  1.55988E+03 -7.75616E+02 -5.93617E+03  6.72046E+03 -1.88144E+04  5.14280E+03 -2.05446E+04 -7.81551E+03
 -1.16041E+04 -2.21415E+04  5.42539E+03 -2.57905E+04  1.70829E+04 -2.00004E+04  2.08176E+04 -2.16200E+03
  1.34829E+04  1.59397E+04 -5.69959E+02  2.21397E+04 -1.51813E+04  1.29076E+04 -2.31770E+04 -4.87707E+03
 -1.38926E+04 -1.98073E+04 -1.00578E+03 -2.67213E+04  1.37635E+04 -2.25335E+04  2.18329E+04 -1.07893E+04
  1.92954E+04  1.42369E+02  1.51484E+04  4.47188E+03  9.33436E+03  1.01783E+03  1.23198E+04 -2.13112E+03
  2.09799E+04  3.37545E+03  2.38307E+04  1.75849E+04  1.58751E+04  3.69600E+04 -2.62680E+03  4.16112E+04
 -2.34492E+04  3.52366E+04 -3.78469E+04  1.80572E+04 -4.16424E+04 -2.58469E+03 -3.42352E+04 -2.41695E+04
 -1.40731E+04 -3.51350E+04  1.25842E+04 -3.00766E+04  2.69001E+04 -1.52937E+04  2.24328E+04  6.01266E+03
  8.14036E+03  1.63857E+04 -1.09141E+04  1.50955E+04 -1.87859E+04  2.43985E+03 -1.38340E+04 -1.16314E+04
  7.51133E+02 -1.79022E+04  7.79171E+03 -1.36673E+04  1.19453E+04 -5.69483E+02  3.79057E+03  8.25169E+03
 -8.23524E+03  3.74732E+03 -8.83486E+03 -5.96696E+03 -2.21180E+03 -1.67369E+04  1.09924E+04 -1.74553E+04
  2.16268E+04 -1.00242E+04  2.45643E+04  3.46859E+03  1.93638E+04  1.72152E+04  9.78447E+03  2.53266E+04
 -4.52898E+03  2.84156E+04 -1.80809E+04  1.69959E+04 -2.00248E+04  3.81700E+03 -1.32918E+04 -5.32211E+03
 -5.94561E+03 -6.55332E+03 -1.32639E+03  2.26147E+03 -2.50699E+03  3.04879E+03 -6.46501E+03  6.17727E+03
 -1.36178E+04  3.02550E+02 -1.33555E+04 -1.21442E+04 -5.61582E+03 -1.72067E+04  5.05029E+03 -1.35882E+04
  1.14513E+04 -6.27774E+03  7.11264E+03  3.21986E+03 -3.66878E+02  4.06769E+03 -6.60918E+03 -1.33738E+03
 -7.67480E+03 -8.75849E+03 -1.99495E+02 -1.56936E+04  8.33303E+03 -1.51347E+04  1.92870E+04 -7.39654E+03
  2.08894E+04  1.20269E+03  1.60135E+04  1.36953E+04  2.15342E+03  1.71372E+04 -7.65119E+03  1.29768E+04
 -1.14282E+04  4.04793E+03 -5.93750E+03 -3.22826E+03  2.40857E+03 -3.68870E+03  7.68859E+03 -9.72360E+02
  6.66174E+03  6.14809E+03  1.58036E+03  1.21417E+04 -7.69411E+03  1.04842E+04 -1.22249E+04  2.10101E+03
 -8.63882E+03 -6.75769E+03 -4.03947E+00 -1.22451E+04  7.00649E+03 -5.96628E+03  9.94145E+03  3.09446E+03
  2.13806E+03  9.82302E+03 -7.54504E+03  9.01720E+03 -1.15426E+04  3.60764E+03 -1.10128E+04 -2.41178E+03
 -7.99166E+03 -1.30222E+04  2.49950E+03 -1.71178E+04  1.35965E+04 -8.92798E+03  1.58352E+04  2.79012E+03
  9.05785E+03  1.24889E+04 -1.21069E+03  1.31425E+04 -1.10566E+04  7.57368E+03 -1.05884E+04  4.10429E+02
 -9.04364E+03 -1.12961E+04 -1.77109E+03 -1.11213E+04  5.83288E+03 -8.25491E+03  8.03287E+03 -4.81682E+03
  3.29674E+03  2.44277E+03 -2.06891E+03  1.80540E+03 -1.88906E+03 -4.37217E+03  2.36541E+03 -7.30150E+03
  8.21784E+03 -4.29556E+03  1.36879E+04  3.56479E+03  1.26184E+04  9.96162E+03  1.05754E+04  1.71515E+04
 -3.90782E+03  1.95534E+04 -1.76638E+04  1.41156E+04 -2.20200E+04  2.13080E+03 -1.61022E+04 -8.12581E+03
 -8.98388E+03 -1.43987E+04 -9.68674E+02 -1.28236E+04  4.47473E+03 -5.93308E+03  3.16742E+03 -4.24688E+03
  3.12952E+03 -2.21738E+03  3.10732E+03 -3.96864E+03  5.26906E+03 -4.61601E+03  6.39499E+03 -1.36320E+03
  1.04460E+04  1.76375E+03  5.38612E+03  7.31381E+03 -2.59417E+03  8.25828E+03 -9.22524E+03  6.98796E+03
 -1.24749E+04 -1.67481E+03 -7.01426E+03 -8.74255E+03 -1.78331E+03 -1.37388E+04  8.55569E+03 -1.36168E+04
  1.29106E+04 -6.47752E+03  1.62586E+04  4.54440E+02  1.19076E+04  1.16759E+04  2.70395E+03  1.40118E+04
 -5.36896E+03  1.28449E+04 -8.61174E+03  4.40534E+03 -4.69304E+03 -2.04862E+03 -2.99157E+03 -2.75682E+03
 -1.47049E+03 -5.92403E+02 -2.85894E+03  3.56665E+03 -4.96271E+03  2.00640E+03 -8.44642E+03 -1.88701E+03
 -6.43276E+03 -8.01710E+03  1.37769E+03 -1.28301E+04  7.25954E+03 -1.08659E+04  1.30302E+04 -3.02484E+03
  1.25319E+04  6.88770E+03  5.12384E+03  1.01593E+04 -1.19742E+03  1.18852E+04 -8.82126E+03  6.89367E+03
 -1.26171E+04  3.46862E+01 -9.26175E+03 -7.47815E+03 -7.26249E+02 -1.00725E+04  4.97846E+03 -7.83179E+03
  8.48352E+03 -2.52214E+03  3.99433E+03  1.47651E+03  1.19406E+03  3.33532E+03  1.40416E+03  2.19060E+03
  2.63895E+03  9.12479E+02  3.92891E+03  2.30825E+03  4.55609E+03  4.81798E+03  2.84545E+03  5.84684E+03
 -2.40895E+03  9.54918E+03 -9.57231E+03  1.14191E+04 -1.25543E+04  2.51312E+03 -1.42226E+04 -4.92727E+03
 -5.04685E+03 -1.23318E+04  3.01219E+03 -1.43590E+04  5.55912E+03 -8.43118E+03  9.61052E+03 -2.60891E+03
  9.31716E+03  3.41327E+03  2.01211E+03  6.73427E+03 -2.66607E+03  4.99012E+03 -4.65565E+03 -5.01921E+02
 -2.66179E+03 -6.05030E+03  3.60457E+03 -5.02346E+03  4.57662E+03 -1.08824E+03  5.58948E+03  2.67820E+03
  2.77825E+03  2.91924E+03  1.71089E+03  1.87786E+03 -1.04699E+03  2.07027E+03  1.82851E+03 -2.05631E+03
  1.27849E+03 -8.87425E+02  6.52055E+03  6.20714E+02  2.64711E+03  6.22762E+03  1.25779E+03  8.32307E+03
 -6.30025E+03  5.36125E+03 -8.20895E+03  2.92368E+03 -6.95623E+03 -1.42901E+03 -2.14852E+03 -5.19300E+03
  7.09293E+02 -4.95691E+03  3.43638E+03 -2.20940E+03  2.19507E+03  3.69930E+03 -1.51261E+03  2.78165E+03
 -3.57286E+03  2.56506E+03 -5.41427E+03 -2.73814E+03 -3.56312E+03 -6.63028E+03  2.46908E+03 -5.80904E+03
  2.61927E+03 -1.53789E+03  4.90999E+03  1.09681E+02  4.95695E+03 -4.80521E+01  5.10122E+01  5.25610E+03
 -2.07760E+03  5.08462E+02 -3.61144E+03 -2.22429E+03  1.35961E+03 -6.49909E+03  5.92088E+03 -3.33719E+03
  8.39625E+03  1.61212E+03  7.02866E+03  5.58736E+03 -3.50078E+02  6.80223E+03 -1.96742E+03  7.87160E+03
 -7.08153E+03  2.62155E+03 -5.81734E+03  1.30045E+02 -3.06609E+03 -4.80247E+03  2.04332E+03 -4.30552E+03
  4.91987E+03 -2.65603E+03  3.55585E+03  1.51466E+03  1.98953E+03  3.43206E+03  1.74901E+02  3.06217E+03
 -1.64641E+03  1.84609E+03 -2.22512E+03  1.53178E+03 -1.52387E+03  7.23834E+02 -7.77793E+02  4.54723E+02
 -1.63010E+03  3.10820E+03 -3.99553E+03  3.10290E+03 -6.29775E+03  1.70205E+03 -7.52149E+03 -3.43577E+03
 -4.23284E+03 -8.80325E+03  2.85011E+03 -1.21903E+04  6.46708E+03 -7.34107E+03  1.00440E+04 -2.91843E+03
  1.07210E+04  1.07718E+03  7.61634E+03  7.73550E+03  1.48758E+02  7.38296E+03 -3.46502E+03  5.80259E+03
 -4.71079E+03  1.76277E+03 -1.56654E+03 -3.60615E+02  3.61046E+02 -8.54326E+02 -1.59167E+03  2.11584E+03
 -2.17436E+03 -1.29182E+03 -3.41030E+03  8.30060E+02 -7.98837E+02 -1.01109E+03  7.25061E+02 -2.87992E+03
  3.64622E+03 -1.98914E+03  4.36515E+03 -1.39811E+03  6.32023E+03  4.20237E+03  1.79902E+03  6.69393E+03
 -2.77384E+03  9.34484E+03 -7.53799E+03  4.72872E+03 -9.44243E+03  2.00665E+01 -7.60883E+03 -5.83959E+03
 -3.38818E+03 -9.15876E+03  9.39545E+01 -7.31432E+03  5.41466E+03 -4.25724E+03  4.27742E+03  6.60367E+02
  2.47782E+03  2.08554E+03 -1.79721E+02  5.34284E+02 -1.73960E+03  1.75704E+03 -1.57019E+03 -6.51325E+02
  2.87159E+03 -1.56036E+02  2.65486E+03  1.27353E+03  2.76029E+03  3.44933E+03  5.39386E+02  3.84435E+03
 -1.97623E+03  3.74005E+03 -4.54791E+03 -9.52581E+02 -3.67964E+03 -3.58141E+03 -1.06004E+03 -6.85161E+03
  3.40863E+03 -4.67072E+03  4.60265E+03 -8.03735E+02  5.23506E+03  1.56962E+03  4.73410E+03  5.46930E+03
  1.69398E+03  5.83760E+03 -1.08221E+03  4.43697E+03 -1.97377E+03  3.12001E+03 -2.16870E+03 -1.20644E+03
 -1.46009E+03 -2.60559E+02  5.36871E+02  1.16621E+03 -3.13032E+03  2.08881E+03 -4.28660E+03 -9.68031E+02
 -4.68831E+03 -2.87845E+03 -2.87948E+03 -2.59931E+03  2.59162E+03 -6.60753E+03  4.55573E+03 -1.61311E+03
  6.21026E+03  9.28505E+02  3.20276E+03  2.04046E+03  2.57608E+02  3.97484E+03 -4.72664E+03  2.77199E+03
