 $NMID ID='MM_0lb_SNR200_12hz_g45_72.RAW', FMTDAT='(8E13.5)'
 TRAMP=1., VOLUME=1. $END
  3.10999E+05 -4.76484E+02  3.38063E+05  2.50135E+05  8.49804E+04  3.37556E+05 -1.31882E+05  2.51781E+05
 -1.90841E+05  8.36824E+04 -1.11084E+05 -3.17755E+04  7.87646E+02 -5.17962E+04  5.28399E+04 -5.23638E+02
  3.57834E+04  5.23165E+04 -1.69382E+04  7.58305E+04 -5.97497E+04  6.58875E+04 -8.41773E+04  3.10075E+04
 -8.10676E+04 -1.30214E+04 -5.75199E+04 -5.20956E+04 -1.48964E+04 -7.06387E+04  2.85532E+04 -4.54271E+04
  4.05368E+04  5.34832E+03  1.56291E+04  4.80111E+04 -3.35439E+04  4.75134E+04 -6.77073E+04 -1.11503E+03
 -5.43652E+04 -5.77179E+04 -7.16817E+03 -7.63319E+04  3.32308E+04 -5.53262E+04  4.86108E+04 -1.84354E+04
  4.41164E+04  1.20233E+04  3.08798E+04  2.56892E+04  1.57062E+04  3.06199E+04 -6.26687E+03  2.72585E+04
 -2.06738E+04  1.26238E+04 -1.91463E+04 -5.40931E+03  6.08998E+03 -8.05486E+03  2.25606E+04  1.28117E+04
  7.19629E+03  3.60854E+04 -3.19202E+04  3.60371E+04 -6.30462E+04  1.58007E+03 -5.80277E+04 -4.30213E+04
 -1.16269E+04 -6.38746E+04  3.86089E+04 -4.64191E+04  5.85573E+04 -2.12846E+03  3.53828E+04  3.22751E+04
 -5.42269E+03  3.69716E+04 -3.00862E+04  1.56925E+04 -3.13136E+04 -5.37316E+03 -1.82817E+04 -1.24467E+04
 -8.17080E+03 -1.31354E+04 -9.47669E+02 -2.01253E+04  7.86744E+03 -2.29336E+04  1.54875E+04 -1.42037E+04
  1.09679E+04  5.06824E+03 -8.99050E+03  1.26520E+04 -2.17923E+04 -6.41103E+03 -9.12504E+03 -3.45545E+04
  2.23807E+04 -4.51294E+04  4.91786E+04 -2.01207E+04  4.60033E+04  2.04520E+04  1.53327E+04  4.43088E+04
 -1.54657E+04  3.45538E+04 -2.61359E+04  2.63487E+03 -1.03617E+04 -2.76907E+04  2.25888E+04 -3.57112E+04
  4.17819E+04 -9.11849E+03  3.53501E+04  2.42521E+04  1.89167E+04  4.77209E+04 -7.50363E+03  5.23947E+04
 -3.21079E+04  3.67442E+04 -4.27935E+04  8.28345E+03 -4.52839E+04 -1.85477E+04 -2.32946E+04 -3.79960E+04
  7.49540E+03 -3.87384E+04  3.26601E+04 -1.69760E+04  3.07661E+04  1.11190E+04  4.71661E+03  1.91707E+04
 -1.37083E+04  9.67931E+03 -1.15767E+04 -7.78228E+03  5.48302E+03 -1.23093E+04  1.80146E+04  4.63998E+03
  1.30744E+04  2.23898E+04 -6.24206E+03  2.55854E+04 -2.26029E+04  1.25255E+04 -2.84800E+04 -3.98219E+03
 -2.21778E+04 -1.73830E+04 -1.08821E+04 -2.23192E+04  3.80687E+03 -2.17580E+04  1.75521E+04 -1.96874E+04
  2.77651E+04 -1.30441E+04  3.39112E+04  3.50797E+03  2.43427E+04  2.05335E+04  6.41361E+03  3.81331E+04
 -1.86142E+04  3.11639E+04 -2.86977E+04  1.08857E+04 -2.10967E+04 -9.33520E+03 -4.58004E+03 -1.33482E+04
  1.59067E+03 -3.18147E+03 -5.92135E+03  6.48540E+03 -1.71174E+04  6.03308E+03 -1.76278E+04 -7.32163E+03
 -1.12705E+04 -2.08557E+04  5.21556E+03 -2.42980E+04  1.69958E+04 -1.77548E+04  1.83627E+04 -2.36409E+03
  1.16208E+04  1.25076E+04 -1.23328E+03  1.94994E+04 -1.39980E+04  1.10600E+04 -2.04761E+04 -3.45134E+03
 -1.50079E+04 -1.75849E+04 -1.18174E+03 -2.31513E+04  1.20343E+04 -2.03092E+04  2.01445E+04 -9.20655E+03
  1.99337E+04 -2.93263E+02  1.33133E+04  4.71730E+03  6.40475E+03  2.56169E+03  9.54222E+03 -2.61567E+03
  1.81185E+04  3.65374E+03  2.03063E+04  1.56383E+04  1.38449E+04  3.16934E+04 -2.30265E+03  3.61435E+04
 -2.14774E+04  2.99871E+04 -3.44067E+04  1.40130E+04 -3.77196E+04 -1.81576E+03 -2.98756E+04 -2.20260E+04
 -1.18268E+04 -3.01351E+04  1.03284E+04 -2.64060E+04  2.26113E+04 -1.39955E+04  2.05434E+04  7.48958E+03
  6.19851E+03  1.48765E+04 -9.76113E+03  1.24425E+04 -1.78476E+04  3.71118E+03 -1.27964E+04 -9.34623E+03
 -2.31745E+03 -1.63678E+04  7.78134E+03 -1.18133E+04  1.16066E+04 -1.55947E+03  2.19803E+03  7.74953E+03
 -8.22350E+03  3.26619E+03 -7.48650E+03 -5.84477E+03 -1.56009E+03 -1.50393E+04  1.03353E+04 -1.61480E+04
  1.79133E+04 -9.71200E+03  1.96732E+04  1.67615E+03  1.80258E+04  1.50653E+04  8.31747E+03  2.44156E+04
 -4.69412E+03  2.62002E+04 -1.78133E+04  1.62733E+04 -1.83758E+04  3.73593E+03 -1.34146E+04 -3.26730E+03
 -6.39654E+03 -5.95950E+03  4.13677E+02  2.40485E+03 -1.09730E+03  2.72452E+03 -5.75359E+03  4.51721E+03
 -1.14842E+04  3.59502E+02 -1.20873E+04 -1.13004E+04 -5.28817E+03 -1.64773E+04  4.95330E+03 -1.21634E+04
  9.98852E+03 -5.14568E+03  6.22626E+03  4.14828E+03 -3.21692E+02  5.90674E+03 -5.47393E+03 -1.95550E+02
 -7.01650E+03 -8.56652E+03 -7.46411E+02 -1.24010E+04  5.17376E+03 -1.31730E+04  1.54221E+04 -6.33671E+03
  1.83375E+04  1.57118E+03  1.36119E+04  1.03651E+04  2.28945E+03  1.39379E+04 -6.90244E+03  1.18306E+04
 -1.04348E+04  2.37747E+03 -5.41314E+03 -1.65115E+03  1.39520E+03 -4.15698E+03  6.35423E+03 -9.07438E+02
  6.15462E+03  5.03844E+03  1.39977E+03  9.95897E+03 -6.45550E+03  8.53377E+03 -1.19459E+04  1.78264E+03
 -8.63205E+03 -6.71140E+03  5.00234E+01 -1.09362E+04  6.60227E+03 -5.21656E+03  6.82457E+03  1.40205E+03
  2.04712E+03  6.45950E+03 -7.30314E+03  7.56127E+03 -1.02569E+04  4.31599E+03 -1.07909E+04 -3.03094E+03
 -5.38463E+03 -1.12999E+04  2.26395E+03 -1.37507E+04  1.19510E+04 -7.34342E+03  1.21299E+04  1.27475E+03
  7.24044E+03  8.69004E+03 -6.58796E+01  1.13498E+04 -8.02103E+03  6.70751E+03 -1.00992E+04  4.89198E+02
 -8.60392E+03 -7.62036E+03 -2.88227E+03 -9.56577E+03  4.04352E+03 -7.82562E+03  5.68519E+03 -3.18397E+03
  3.67135E+03  4.20717E+02  1.31800E+02  1.49967E+03 -1.90804E+02 -2.12224E+03  1.41955E+03 -5.14429E+03
  6.99930E+03 -2.79012E+03  1.14608E+04  5.04091E+02  1.02678E+04  6.90199E+03  7.85160E+03  1.47871E+04
 -4.11229E+03  1.67097E+04 -1.47117E+04  1.28184E+04 -1.89755E+04  1.20237E+03 -1.27267E+04 -5.80730E+03
 -8.60759E+03 -1.25050E+04 -1.41791E+03 -1.03673E+04  5.22867E+03 -4.27478E+03  5.16856E+03 -3.63951E+03
  4.15974E+03 -2.85220E+03  3.21230E+03 -3.51539E+03  5.40133E+03 -2.00116E+03  6.03083E+03 -3.90133E+02
  9.16946E+03  1.62809E+03  3.93134E+03  6.59223E+03 -1.98885E+03  6.62203E+03 -7.93536E+03  6.41078E+03
 -9.29156E+03 -1.25022E+03 -6.51040E+03 -7.75201E+03 -4.47637E+02 -1.07250E+04  7.30630E+03 -1.17977E+04
  1.00387E+04 -6.70876E+03  1.42710E+04  2.24403E+03  1.00420E+04  9.22609E+03  1.50283E+03  1.23923E+04
 -4.61049E+03  8.98487E+03 -7.25602E+03  3.45241E+03 -4.37075E+03 -1.07658E+03 -1.93107E+03 -1.36137E+03
 -2.30848E+03 -1.41446E+03 -2.40442E+03  2.64239E+03 -5.15575E+03  1.41909E+03 -8.13287E+03 -1.54911E+03
 -3.80339E+03 -7.65449E+03  6.84861E+02 -9.66595E+03  7.33588E+03 -1.01319E+04  1.04801E+04 -4.13746E+03
  8.58831E+03  6.41653E+03  3.59231E+03  8.32428E+03 -1.49973E+03  1.14352E+04 -5.88124E+03  5.68609E+03
 -7.95492E+03  8.77947E+01 -5.87483E+03 -4.71932E+03 -4.50940E+02 -7.62957E+03  3.88026E+03 -6.54843E+03
  6.54551E+03 -2.04405E+03  5.67017E+03  3.50433E+02  3.45814E+02  2.56815E+03  7.76358E+02  1.84884E+03
  3.20271E+03 -2.79579E+02  3.89844E+03  1.90383E+03  2.96496E+03  2.80805E+03  3.02892E+03  4.14890E+03
 -2.22024E+03  8.33596E+03 -6.71268E+03  8.73156E+03 -1.05724E+04  1.47406E+03 -1.03503E+04 -4.54793E+03
 -5.13265E+03 -1.02483E+04  1.31412E+03 -1.13796E+04  4.66888E+03 -6.23533E+03  8.88793E+03 -2.37518E+03
  5.10997E+03  3.59814E+03  2.18138E+03  5.20465E+03 -3.16419E+03  4.02439E+03 -2.73495E+03 -4.73050E+02
 -4.44620E+02 -3.84553E+03  2.46701E+03 -5.33927E+03  2.67203E+03 -1.47682E+03  3.72560E+03  3.15994E+02
  3.53008E+03  1.24065E+03  8.56157E+02 -1.30201E+02 -1.28573E+03  1.85225E+03  8.68798E+02 -5.11287E+02
  1.20765E+03 -2.09238E+02  4.98168E+03  1.80098E+03  7.19690E+02  5.86551E+03 -1.09088E+03  8.10702E+03
 -4.52975E+03  3.46491E+03 -6.08226E+03  4.81698E+01 -5.65769E+03 -2.25379E+03 -2.12005E+03 -5.13267E+03
  8.77503E+02 -2.33257E+03  2.67290E+03 -1.36572E+03  2.45213E+03  1.69040E+03  3.65256E+02  3.53222E+03
 -3.34296E+03  8.21288E+02 -2.68351E+03 -2.95974E+03 -2.67671E+03 -4.78370E+03  1.44983E+03 -5.35931E+03
  3.25137E+03 -1.79235E+03  2.54442E+03  5.96189E+01  2.73032E+03  1.09466E+03  5.47681E+02  1.78478E+03
 -1.38910E+03  8.31830E+01 -2.93259E+03 -2.56085E+03  1.69965E+03 -4.42045E+03  3.52274E+03 -4.25764E+03
  6.04452E+03  2.68566E+02  7.55702E+03  3.31547E+03  2.44054E+03  5.40713E+03 -2.51151E+03  5.64595E+03
 -5.63492E+03  1.72230E+03 -4.94058E+03  1.66023E+02 -3.14063E+03 -4.64362E+03  4.40481E+02 -4.65739E+03
  3.28717E+03 -2.07205E+03  3.42863E+03  3.34858E+02  8.25376E+02  3.00521E+03  1.18956E+02  3.30686E+03
 -1.00019E+02  2.57866E+03 -1.75452E+03  1.42216E+03  1.56003E+03 -7.39481E+02 -4.07092E+02  1.71737E+03
 -1.28120E+03  3.17989E+03 -4.34238E+03  1.36841E+03 -5.16656E+03  9.57973E+02 -6.78502E+03 -5.07829E+03
 -4.35420E+03 -7.60729E+03  1.41950E+03 -8.58995E+03  3.44537E+03 -7.63257E+03  7.89453E+03 -2.67700E+03
  7.87854E+03  2.22398E+02  4.81457E+03  4.97412E+03 -1.06020E+02  5.65825E+03 -1.58060E+03  6.31066E+03
 -2.60757E+03  2.99286E+03 -2.30963E+03 -3.56677E+02 -1.04863E+03 -4.74921E+01 -1.84717E+03 -7.43761E+02
 -8.62703E+02  2.99605E+02 -1.37557E+03 -5.92452E+02  2.29840E+01 -1.44930E+03 -2.33511E+02 -3.08435E+03
  3.71891E+03 -1.13907E+03  2.83254E+03  1.49717E+02  4.46758E+03  3.87087E+03  7.87711E+02  6.44057E+03
 -3.85759E+03  8.03642E+03 -5.95764E+03  4.46110E+03 -6.36277E+03 -3.15096E+02 -5.26534E+03 -4.03273E+03
 -3.15384E+03 -5.72811E+03  1.27670E+03 -5.39561E+03  3.91276E+03 -3.52435E+03  4.57428E+03  5.51741E+02
  3.33163E+03  2.00602E+03 -1.23618E+03  2.88119E+03 -6.62909E+02  1.07187E+03  1.19492E+03 -2.41415E+03
  9.30406E+02 -2.44074E+02  1.33504E+03  9.12852E+02  1.25954E+03  1.04096E+03 -9.53398E+02  2.00282E+03
 -2.19212E+03  3.68926E+03 -3.41858E+03  6.06968E+02 -3.57209E+03 -2.76809E+03  5.41350E+02 -3.18620E+03
  2.06941E+03 -4.53617E+03  4.01897E+03 -8.24974E+01  4.19522E+03  9.65937E+02  2.82101E+03  4.15997E+03
  1.16003E+03  4.29215E+03 -1.42914E+03  3.95685E+03 -2.49116E+03  2.25461E+03 -2.39501E+03 -3.53837E+02
 -1.50437E+03 -5.53468E+02 -1.52710E+03  5.74256E+02 -2.37540E+03 -8.21592E+02 -3.67969E+03  3.90555E+02
 -2.47217E+03 -1.65777E+03 -1.68257E+03 -4.39156E+03  2.20064E+03 -4.20084E+03  2.99334E+03 -2.85546E+03
  3.85044E+03  1.69410E+03  2.11591E+03  1.69918E+03  3.08365E+02  4.14394E+03 -2.12070E+03  2.60811E+03
