 $NMID ID='MM_0lb_SNR200_7hz_g45_72.RAW', FMTDAT='(8E13.5)'
 TRAMP=1., VOLUME=1. $END
  3.08987E+05  6.06057E+01  3.37421E+05  2.50170E+05  8.43893E+04  3.39248E+05 -1.32584E+05  2.54299E+05
 -1.92580E+05  8.43258E+04 -1.11105E+05 -3.16225E+04  1.18443E+03 -5.01033E+04  5.50758E+04  5.36506E+02
  3.53550E+04  5.29539E+04 -1.65383E+04  7.66947E+04 -6.17915E+04  6.48158E+04 -8.47880E+04  3.31483E+04
 -8.39153E+04 -1.16916E+04 -5.72254E+04 -5.29732E+04 -1.52768E+04 -7.28705E+04  2.92875E+04 -4.84868E+04
  4.26857E+04  4.84467E+03  1.59289E+04  4.85493E+04 -3.46382E+04  5.03202E+04 -6.77194E+04  3.20153E+02
 -5.45867E+04 -5.65244E+04 -7.51924E+03 -7.87089E+04  3.61557E+04 -5.72845E+04  4.88676E+04 -1.89140E+04
  4.53043E+04  1.08743E+04  3.42426E+04  2.52749E+04  1.60581E+04  3.05805E+04 -5.83807E+03  2.71421E+04
 -2.33988E+04  1.11548E+04 -1.76275E+04 -3.84312E+03  6.23658E+03 -8.39401E+03  2.40760E+04  1.29981E+04
  6.40019E+03  3.80228E+04 -3.50523E+04  3.71198E+04 -6.61760E+04  2.05985E+03 -5.93380E+04 -4.41843E+04
 -1.30079E+04 -6.76020E+04  4.26435E+04 -4.71430E+04  6.25994E+04 -1.20029E+03  3.70500E+04  3.49757E+04
 -5.34039E+03  4.30029E+04 -3.23600E+04  2.00487E+04 -3.41532E+04 -3.31960E+03 -2.11054E+04 -1.17867E+04
 -8.46469E+03 -1.50511E+04  3.49717E+02 -2.16208E+04  7.41317E+03 -2.34454E+04  1.54795E+04 -1.29479E+04
  1.03934E+04  6.50057E+03 -1.02661E+04  1.24781E+04 -2.46828E+04 -6.42099E+03 -9.45978E+03 -3.82820E+04
  2.80519E+04 -4.81358E+04  5.21547E+04 -2.12726E+04  4.96101E+04  2.19187E+04  1.81088E+04  4.81472E+04
 -1.74953E+04  3.57847E+04 -2.71893E+04  2.69508E+03 -1.33651E+04 -3.11324E+04  1.92599E+04 -3.56155E+04
  4.48018E+04 -1.25064E+04  4.26929E+04  2.40085E+04  2.35430E+04  5.18909E+04 -7.43813E+03  5.46965E+04
 -3.69219E+04  3.90091E+04 -4.83241E+04  1.37178E+04 -4.75636E+04 -2.06599E+04 -2.59131E+04 -4.22408E+04
  7.10561E+03 -4.25935E+04  3.44430E+04 -1.90932E+04  3.25279E+04  1.01395E+04  5.06050E+03  2.06525E+04
 -1.47282E+04  9.15273E+03 -1.32169E+04 -6.93294E+03  6.35674E+03 -1.10354E+04  2.04554E+04  5.76463E+03
  1.49511E+04  2.17630E+04 -5.30144E+03  2.73892E+04 -2.49000E+04  1.43605E+04 -3.19474E+04 -2.77697E+01
 -2.72215E+04 -1.96338E+04 -1.27258E+04 -2.66599E+04  4.42094E+03 -2.58500E+04  2.30233E+04 -2.52644E+04
  3.48895E+04 -1.55735E+04  4.23233E+04  5.33866E+03  2.82619E+04  2.58710E+04  4.72025E+03  4.25800E+04
 -2.19008E+04  3.55160E+04 -3.30900E+04  1.41249E+04 -2.45933E+04 -9.42360E+03 -4.71814E+03 -1.15379E+04
  7.01249E+02 -5.41299E+02 -8.66961E+03  1.02781E+04 -2.17092E+04  7.31092E+03 -2.25242E+04 -1.02774E+04
 -1.24091E+04 -2.62158E+04  6.59113E+03 -2.91311E+04  2.19161E+04 -2.19854E+04  2.35878E+04 -2.36421E+03
  1.67439E+04  1.81580E+04 -1.51069E+03  2.39236E+04 -1.94059E+04  1.48934E+04 -2.49739E+04 -4.68664E+03
 -1.86290E+04 -2.25846E+04 -4.53559E+03 -3.05274E+04  1.17324E+04 -2.53969E+04  2.49156E+04 -1.40104E+04
  2.34043E+04  5.96434E+02  1.52871E+04  6.58198E+03  1.02653E+04  1.66192E+03  1.24671E+04 -5.39960E+02
  2.30082E+04  2.04188E+03  2.73245E+04  1.94603E+04  1.95425E+04  4.09761E+04 -3.64335E+03  4.71714E+04
 -2.74519E+04  3.94533E+04 -4.61649E+04  2.12164E+04 -4.90574E+04 -3.45205E+03 -4.13627E+04 -2.90855E+04
 -1.47185E+04 -3.97720E+04  1.49157E+04 -3.55145E+04  3.07935E+04 -1.57626E+04  2.53254E+04  7.32163E+03
  8.31203E+03  2.00901E+04 -1.17250E+04  1.58812E+04 -2.17141E+04  2.49228E+03 -1.53057E+04 -1.47672E+04
  4.84650E+02 -2.08006E+04  1.09978E+04 -1.45560E+04  1.61432E+04 -1.79681E+03  4.39776E+03  1.00878E+04
 -8.86201E+03  4.52802E+03 -9.02560E+03 -8.62756E+03 -3.28425E+03 -2.04420E+04  1.26107E+04 -2.09774E+04
  2.73241E+04 -1.28777E+04  3.03832E+04  2.66392E+03  2.48038E+04  2.04905E+04  1.16813E+04  3.26987E+04
 -6.38527E+03  3.53752E+04 -2.32729E+04  2.17764E+04 -2.72274E+04  3.93572E+03 -1.64873E+04 -9.18944E+03
 -7.68852E+03 -8.44086E+03 -1.30761E+03 -1.65091E+03 -1.00163E+02  3.67231E+03 -9.89761E+03  4.21100E+03
 -1.52635E+04 -4.88384E+02 -1.68587E+04 -1.19881E+04 -6.21153E+03 -2.29427E+04  7.50189E+03 -1.76252E+04
  1.30777E+04 -7.81536E+03  8.98540E+03  3.71009E+03  4.47243E+02  6.17451E+03 -7.75546E+03  7.64215E+02
 -9.64186E+03 -1.16144E+04 -1.49548E+03 -1.80181E+04  1.06180E+04 -1.76854E+04  2.37179E+04 -8.08772E+03
  2.25715E+04  1.78513E+03  2.21794E+04  1.58568E+04  3.99363E+03  2.23650E+04 -1.06379E+04  1.59657E+04
 -1.54180E+04  3.30832E+03 -7.43853E+03 -3.43349E+03  2.15596E+03 -5.09571E+03  8.73184E+03 -1.62707E+03
  1.03946E+04  1.04814E+04  6.88155E+02  1.52725E+04 -9.23971E+03  1.18964E+04 -1.70307E+04  4.16866E+03
 -1.20581E+04 -9.59056E+03  8.31572E+02 -1.70518E+04  1.07737E+04 -7.50032E+03  1.15318E+04  4.20414E+03
  2.16768E+03  1.07795E+04 -9.56031E+03  1.36617E+04 -1.75615E+04  6.71723E+03 -1.74828E+04 -6.39934E+03
 -8.38195E+03 -1.72408E+04  5.44498E+03 -2.10149E+04  1.73538E+04 -1.00310E+04  1.94369E+04  5.25687E+03
  1.20130E+04  1.58833E+04 -3.15674E+03  1.78725E+04 -1.42144E+04  1.15997E+04 -1.31848E+04 -2.13069E+02
 -1.26298E+04 -1.25175E+04 -3.39838E+03 -1.66359E+04  6.79449E+03 -1.11942E+04  1.01416E+04 -3.64531E+03
  5.80413E+03  2.39795E+03 -2.08376E+03  1.00494E+03 -1.51731E+03 -4.30286E+03  3.44106E+03 -9.34883E+03
  1.35646E+04 -4.55186E+03  1.90269E+04  2.63730E+03  1.84525E+04  1.34675E+04  1.25628E+04  2.28180E+04
 -5.70154E+03  3.05901E+04 -2.31894E+04  2.04870E+04 -3.06110E+04  3.24022E+03 -2.49761E+04 -1.06704E+04
 -1.22402E+04 -2.02953E+04  1.03098E+03 -1.74310E+04  6.13736E+03 -1.02397E+04  4.93829E+03 -5.90882E+03
  2.47273E+03 -2.70754E+03  3.43594E+03 -2.26157E+03  6.42964E+03 -3.92965E+03  9.46812E+03 -3.00078E+03
  1.34958E+04  2.85948E+03  7.29838E+03  1.27128E+04 -2.79082E+03  1.45763E+04 -1.34483E+04  1.16197E+04
 -1.93113E+04 -2.23023E+03 -1.37692E+04 -1.34375E+04 -4.55722E+02 -1.84197E+04  9.89130E+03 -1.88115E+04
  2.05049E+04 -9.67162E+03  2.30072E+04  3.83399E+03  1.57336E+04  1.70195E+04  1.47174E+03  2.19850E+04
 -9.22900E+03  1.75337E+04 -1.18853E+04  6.53034E+03 -8.76895E+03 -2.46327E+03 -3.87873E+03 -3.17146E+02
 -4.26651E+02  8.59575E+02 -2.08075E+03  1.20760E+03 -6.05884E+03  4.62631E+03 -1.36030E+04 -3.96738E+03
 -9.23068E+03 -1.18746E+04 -6.96819E+02 -1.86230E+04  1.03209E+04 -1.79762E+04  1.87885E+04 -4.97255E+03
  1.74657E+04  8.70736E+03  6.44419E+03  1.69887E+04 -1.62862E+03  1.74778E+04 -1.34621E+04  1.20201E+04
 -1.74506E+04 -9.38028E+02 -1.40176E+04 -1.02851E+04 -2.22894E+03 -1.33341E+04  6.76289E+03 -1.24478E+04
  1.14452E+04 -3.08293E+03  5.78804E+03  2.89595E+03  5.50956E+03  5.39831E+03  1.51602E+03  8.56797E+02
  2.01981E+03 -1.56966E+02  5.09893E+03  1.17903E+03  6.57936E+03  6.33823E+03  4.52355E+03  1.01445E+04
 -2.36764E+03  1.40135E+04 -1.17925E+04  1.21663E+04 -1.71864E+04  6.66251E+03 -2.07131E+04 -7.38605E+03
 -9.56221E+03 -1.83620E+04  2.01310E+03 -1.99938E+04  1.18976E+04 -1.14314E+04  1.65378E+04 -4.48247E+03
  1.16155E+04  6.12407E+03  7.53204E+02  9.25196E+03 -6.13574E+03  7.21444E+03 -8.09016E+03 -1.65924E+03
 -3.58486E+03 -8.44889E+03  4.48043E+03 -7.47670E+03  5.33607E+03 -4.28966E+03  7.77361E+03  3.11270E+03
  4.41777E+03  6.07304E+03  6.75843E+02  4.21861E+03 -8.82078E+02  3.96032E+03  8.66657E+02  3.21600E+01
  3.56263E+03  2.88363E+02  8.42879E+03  1.75244E+03  4.14884E+03  9.61244E+03 -2.74742E+03  1.25730E+04
 -8.65321E+03  9.19185E+03 -1.22318E+04  2.51230E+03 -9.96979E+03 -5.76988E+03 -5.01760E+03 -7.92734E+03
  1.49495E+03 -6.29899E+03  4.52175E+03 -5.21639E+03  1.66616E+03  3.27448E+03 -2.66843E+03  6.66411E+03
 -8.93414E+03  4.04735E+03 -8.98785E+03 -2.64717E+03 -5.95689E+03 -1.24274E+04  1.56326E+03 -1.20412E+04
  6.17184E+03 -6.58085E+03  8.25907E+03 -9.99433E+02  6.49454E+03  3.32350E+03  1.68566E+03  6.68129E+03
 -3.21774E+03  2.84538E+03 -3.76950E+03 -4.34770E+03  2.73841E+03 -9.15260E+03  1.05212E+04 -5.42542E+03
  1.25311E+04  1.79211E+03  1.32391E+04  8.72853E+03  4.46272E+03  1.44237E+04 -4.81369E+03  1.08320E+04
 -9.92481E+03  6.01849E+03 -9.91132E+03 -9.21444E+02 -3.71521E+03 -9.30148E+03  1.91042E+03 -9.32880E+03
  7.21954E+03 -4.56931E+03  7.15509E+03  3.94752E+03  2.31225E+03  6.46223E+03 -8.12092E+02  6.31295E+03
 -2.15284E+03  4.75717E+03 -2.51272E+03  6.95156E+02 -6.01577E+02 -1.14033E+03 -2.45321E+02  2.82648E+03
 -3.96116E+03  5.76983E+03 -9.46966E+03  6.04888E+03 -1.51722E+04 -3.37344E+02 -1.46936E+04 -8.79138E+03
 -6.70149E+03 -1.89115E+04  4.13792E+03 -2.24126E+04  1.22510E+04 -1.60498E+04  2.00105E+04 -6.12053E+03
  1.79750E+04  4.04713E+03  1.09383E+04  1.32602E+04  1.44211E+03  1.40096E+04 -6.52347E+03  9.65138E+03
 -8.77543E+03  3.36807E+03 -3.81981E+03 -1.56488E+03 -2.03199E+03 -2.10285E+03  5.23526E+02 -4.99864E+02
 -2.13024E+03  1.13003E+03 -5.71828E+03 -4.73719E+02 -1.14666E+03 -3.85531E+03 -6.45911E+01 -2.72476E+03
  7.23953E+03 -3.13954E+03  9.48460E+03 -9.12834E+02  1.19092E+04  7.36577E+03  1.84021E+03  1.43975E+04
 -5.81324E+03  1.79998E+04 -1.46938E+04  8.98383E+03 -1.87479E+04 -1.10094E+03 -1.26949E+04 -1.09595E+04
 -6.63975E+03 -1.49576E+04  4.11620E+03 -1.43038E+04  9.95588E+03 -6.99050E+03  1.09104E+04  2.49174E+00
  7.35865E+03  4.92250E+03  4.42443E+01  4.29923E+03 -3.48798E+03 -8.41008E+02  4.05754E+02 -3.76885E+03
  3.40062E+03 -2.72450E+03  6.13073E+03  1.30153E+03  3.21882E+03  6.24302E+03 -1.02799E+03  7.45188E+03
 -7.10886E+03  7.09453E+03 -9.27727E+03  1.92206E+03 -8.56473E+03 -4.50837E+03 -1.72032E+02 -1.07073E+04
  7.55317E+03 -1.12982E+04  1.33912E+04 -2.83776E+03  1.34205E+04  2.42981E+03  8.55312E+03  9.93496E+03
  5.96547E+02  8.18551E+03 -5.10543E+03  8.67188E+03 -7.65806E+03  5.87659E+03 -4.80944E+03  2.91967E+00
 -2.49728E+03 -4.67685E+02 -5.14950E+03  1.19134E+03 -5.45900E+03  1.89169E+03 -9.76202E+03  3.39406E+02
 -6.66123E+03 -6.17608E+03 -2.72710E+03 -9.89621E+03  3.95956E+03 -1.12950E+04  9.77097E+03 -5.46418E+03
  9.85218E+03  1.48042E+03  6.69987E+03  7.82173E+03 -1.62227E+03  8.38199E+03 -7.48685E+03  7.00465E+03
