 $NMID ID='MM_0lb_SNR200_13hz_g55_67.RAW', FMTDAT='(8E13.5)'
 TRAMP=1., VOLUME=1. $END
  3.08947E+05  6.78979E+02  3.38312E+05  2.50462E+05  8.52955E+04  3.40434E+05 -1.32303E+05  2.50490E+05
 -1.89477E+05  8.24310E+04 -1.12225E+05 -3.38955E+04  5.05148E+02 -4.98853E+04  5.40516E+04  8.39212E+02
  3.59947E+04  5.30094E+04 -1.68061E+04  7.56378E+04 -6.18073E+04  6.37951E+04 -8.49627E+04  3.17204E+04
 -8.26493E+04 -1.22293E+04 -5.79506E+04 -5.18067E+04 -1.44683E+04 -6.92699E+04  2.76640E+04 -4.55638E+04
  4.05743E+04  4.45699E+03  1.48204E+04  4.73196E+04 -3.41256E+04  4.71560E+04 -6.72033E+04 -4.22459E+02
 -5.44914E+04 -5.83302E+04 -7.71091E+03 -7.76205E+04  3.39796E+04 -5.46532E+04  4.83924E+04 -1.77928E+04
  4.37223E+04  1.25130E+04  3.15373E+04  2.62965E+04  1.62148E+04  2.92465E+04 -6.24888E+03  2.78473E+04
 -2.26374E+04  1.26610E+04 -1.79907E+04 -4.86966E+03  5.85176E+03 -7.45599E+03  2.07091E+04  1.15324E+04
  7.75544E+03  3.75692E+04 -3.11379E+04  3.53952E+04 -6.43561E+04  1.56994E+03 -5.70980E+04 -4.42358E+04
 -1.28174E+04 -6.34172E+04  4.24424E+04 -4.49922E+04  6.01205E+04 -9.88610E+02  3.43255E+04  3.27663E+04
 -6.06440E+03  3.67836E+04 -3.16913E+04  1.65823E+04 -3.17524E+04 -4.62482E+03 -1.78561E+04 -1.14391E+04
 -8.19608E+03 -1.41806E+04 -7.68713E+01 -1.70099E+04  8.11007E+03 -2.35031E+04  1.56926E+04 -1.18337E+04
  1.17352E+04  4.05404E+03 -7.73406E+03  1.27313E+04 -2.00919E+04 -5.71924E+03 -9.67255E+03 -3.53041E+04
  2.29743E+04 -4.49857E+04  5.03089E+04 -1.93938E+04  4.73421E+04  1.94328E+04  1.73694E+04  4.53596E+04
 -1.61639E+04  3.39856E+04 -2.58461E+04  1.85737E+03 -1.09638E+04 -2.90751E+04  2.18450E+04 -3.32206E+04
  4.32206E+04 -9.61450E+03  3.57378E+04  2.44423E+04  1.74494E+04  4.80904E+04 -7.64664E+03  5.31839E+04
 -3.28478E+04  3.48022E+04 -4.53293E+04  1.10910E+04 -4.36431E+04 -1.80351E+04 -2.42389E+04 -3.86492E+04
  7.98478E+03 -4.04249E+04  3.29785E+04 -1.55710E+04  2.99854E+04  9.76239E+03  4.31535E+03  1.96053E+04
 -1.37142E+04  9.28777E+03 -1.14622E+04 -8.42569E+03  5.31437E+03 -1.16548E+04  1.89751E+04  5.98595E+03
  1.38362E+04  2.12905E+04 -5.84401E+03  2.57604E+04 -2.27538E+04  1.21707E+04 -2.95328E+04 -4.24563E+03
 -2.20802E+04 -1.86528E+04 -8.78279E+03 -2.35687E+04  4.99486E+03 -2.11238E+04  1.51414E+04 -1.87179E+04
  2.77092E+04 -1.35986E+04  3.31440E+04  5.14037E+03  2.52180E+04  2.16367E+04  4.47561E+03  3.72669E+04
 -1.78487E+04  3.13086E+04 -2.82386E+04  1.11270E+04 -2.05562E+04 -9.84943E+03 -5.65980E+03 -1.34817E+04
  5.92732E+02 -1.97142E+03 -7.06900E+03  8.39291E+03 -1.87779E+04  6.26114E+03 -1.76261E+04 -8.73729E+03
 -1.15642E+04 -2.14405E+04  5.85889E+03 -2.40581E+04  1.52975E+04 -1.68430E+04  1.95508E+04 -1.82025E+03
  1.16538E+04  1.50945E+04 -1.93409E+03  2.07856E+04 -1.33031E+04  1.11073E+04 -2.08989E+04 -3.67633E+03
 -1.61459E+04 -2.03027E+04 -2.27939E+03 -2.37118E+04  1.16618E+04 -1.90446E+04  2.03977E+04 -9.75228E+03
  1.92702E+04 -7.91546E+02  1.44873E+04  5.32207E+03  7.11211E+03  5.20157E+02  1.00590E+04 -2.30934E+03
  1.98011E+04  1.54682E+03  2.03244E+04  1.57549E+04  1.45171E+04  3.25934E+04 -3.17150E+03  3.78405E+04
 -2.15575E+04  3.02854E+04 -3.44994E+04  1.68701E+04 -3.61073E+04 -3.92622E+03 -3.00307E+04 -2.10758E+04
 -1.19770E+04 -2.93889E+04  1.02145E+04 -2.65395E+04  2.34615E+04 -1.42937E+04  2.04044E+04  6.23747E+03
  7.40495E+03  1.72411E+04 -9.89621E+03  1.35211E+04 -1.78143E+04  2.11437E+03 -1.33827E+04 -1.21094E+04
  4.26407E+02 -1.87185E+04  8.09349E+03 -1.32706E+04  1.14559E+04 -2.24219E+03  3.25756E+03  6.92681E+03
 -6.53821E+03  1.66826E+03 -7.53236E+03 -6.34947E+03 -1.22268E+03 -1.57049E+04  1.02623E+04 -1.49336E+04
  1.90170E+04 -9.03004E+03  2.00044E+04  3.87890E+03  1.80789E+04  1.55291E+04  9.75451E+03  2.34387E+04
 -4.41321E+03  2.53815E+04 -1.49380E+04  1.60072E+04 -1.71787E+04  2.67594E+03 -1.17306E+04 -3.71385E+03
 -6.19734E+03 -4.73347E+03 -1.85118E+03  3.24979E+02 -2.31780E+03  3.18025E+03 -5.79560E+03  5.45547E+03
 -1.09381E+04 -1.13332E+03 -1.28319E+04 -9.82928E+03 -5.98047E+03 -1.61012E+04  4.77585E+03 -1.14080E+04
  1.08835E+04 -6.41335E+03  6.83226E+03  2.65501E+03 -8.39868E+02  4.24429E+03 -6.35063E+03  4.48599E+02
 -5.53490E+03 -8.02522E+03 -2.10356E+03 -1.10214E+04  8.03027E+03 -1.32194E+04  1.68198E+04 -6.29285E+03
  1.99888E+04  2.06037E+03  1.39358E+04  1.10322E+04  3.29687E+03  1.38576E+04 -8.46604E+03  1.22692E+04
 -9.40440E+03  3.94007E+03 -5.18934E+03 -3.11754E+03 -5.37776E+01 -4.54015E+03  5.41776E+03 -1.98459E+03
  6.07427E+03  5.62801E+03  3.82091E+02  9.22126E+03 -7.76270E+03  1.07863E+04 -1.20359E+04  2.28292E+03
 -9.14663E+03 -6.26861E+03 -5.81312E+02 -1.06181E+04  5.67927E+03 -4.67519E+03  6.91172E+03  1.89498E+03
  2.64205E+03  7.62984E+03 -6.72659E+03  7.57302E+03 -9.30924E+03  5.89133E+03 -9.70434E+03 -3.51389E+03
 -6.11766E+03 -1.07184E+04  2.87739E+03 -1.21568E+04  1.12767E+04 -8.27783E+03  1.25661E+04  1.30838E+03
  7.27172E+03  9.19930E+03 -1.38481E+03  1.16921E+04 -8.41561E+03  6.05173E+03 -9.00879E+03  2.16355E+02
 -7.91146E+03 -8.69012E+03 -1.23478E+03 -8.12513E+03  4.06206E+03 -7.78222E+03  5.28536E+03 -2.82423E+03
  4.18495E+03  8.55674E+02  2.67906E+02  7.61461E+02  2.50131E+03 -2.41059E+03  1.88987E+03 -3.99609E+03
  7.34178E+03 -2.92110E+03  1.11986E+04  1.36893E+03  1.16421E+04  6.57040E+03  8.72487E+03  1.41617E+04
 -3.54775E+03  1.71798E+04 -1.27789E+04  1.37063E+04 -1.96139E+04  1.71031E+03 -1.65056E+04 -5.32089E+03
 -8.07678E+03 -1.13579E+04  2.45623E+02 -9.92541E+03  4.62185E+03 -6.97081E+03  3.19750E+03 -1.95328E+03
  2.91294E+03 -2.53731E+03  3.60208E+03 -3.40842E+03  4.21244E+03 -3.12246E+03  5.30694E+03 -1.54165E+03
  7.18103E+03  2.78138E+03  3.89542E+03  6.75931E+03 -4.90196E+02  7.49535E+03 -6.67811E+03  6.16040E+03
 -1.07058E+04 -1.38455E+03 -5.30236E+03 -6.04950E+03 -3.37236E+02 -9.12363E+03  6.64021E+03 -1.09534E+04
  1.09950E+04 -5.35371E+03  1.36145E+04  2.69367E+03  9.18099E+03  8.03832E+03  1.59834E+03  1.18150E+04
 -6.77282E+03  9.50380E+03 -7.32382E+03  1.89924E+03 -4.22007E+03 -2.78401E+03 -1.01558E+03 -1.63503E+03
 -7.87972E+02 -5.02218E+02 -1.65764E+03  1.81556E+03 -4.77899E+03  2.72772E+03 -7.63308E+03 -1.52423E+03
 -4.84522E+03 -7.53274E+03 -8.52684E+02 -9.66494E+03  5.30816E+03 -9.20390E+03  8.77136E+03 -2.58369E+03
  7.87405E+03  5.48854E+03  5.45467E+03  9.15710E+03 -3.22471E+03  9.58528E+03 -6.21953E+03  5.13821E+03
 -9.21223E+03 -4.48686E+02 -6.34154E+03 -6.15910E+03 -9.26561E+02 -8.15768E+03  3.93666E+03 -5.87391E+03
  5.84300E+03 -2.36581E+03  3.85014E+03  6.24881E+02  7.88528E+02  1.86514E+03  1.43246E+03  1.71670E+03
  1.30606E+03  2.27021E+03  2.19698E+03  1.04228E+03  2.29264E+03  3.21397E+03  2.19498E+03  4.82043E+03
 -2.66034E+03  6.99728E+03 -6.36443E+03  7.23379E+03 -9.39691E+03  3.50826E+03 -9.73945E+03 -2.17156E+03
 -5.30181E+03 -9.22576E+03  1.01067E+03 -1.05589E+04  5.51467E+03 -6.36432E+03  8.34209E+03 -2.53711E+03
  6.51180E+03  4.60077E+03  1.33962E+03  5.90098E+03 -2.20291E+03  3.09972E+03 -4.03180E+03 -1.23185E+03
 -1.62995E+03 -3.96814E+03  2.57392E+03 -3.50092E+03  3.15062E+03 -2.16276E+03  2.89245E+03  9.03166E+02
  2.28379E+03  1.68329E+03  9.82441E+02  1.68455E+03 -1.89678E+02  2.09621E+03  1.56931E+03 -1.59181E+03
  1.52709E+03  4.80435E+02  4.22177E+03  1.60501E+03  1.04053E+03  4.76660E+03 -1.86988E+03  6.10601E+03
 -3.46880E+03  3.00980E+03 -5.91710E+03  7.80189E+02 -4.91256E+03 -7.95341E+02 -3.13466E+03 -3.47455E+03
  1.25499E+03 -3.99133E+03  1.85985E+03 -1.75290E+02  1.39951E+03  3.15016E+03 -1.09959E+03  1.57023E+03
 -3.86933E+03  1.52623E+03 -2.74422E+03 -2.18222E+03 -9.99633E+02 -6.03161E+03  8.95339E+02 -4.50728E+03
  2.38917E+03 -1.92094E+03  3.69809E+03 -8.37786E+01  2.81910E+03  4.98902E+02  1.43238E+03  2.19360E+03
 -5.24349E+02  1.00842E+03 -2.47596E+03 -9.31411E+02  5.43763E+02 -4.10389E+03  3.65323E+03 -2.73996E+03
  4.16264E+03  1.37623E+03  5.81272E+03  3.24492E+03  2.00713E+03  5.27122E+03 -9.26373E+02  5.18539E+03
 -3.67897E+03  2.85232E+03 -3.74894E+03  2.36472E+02 -1.31829E+03 -3.63809E+03  1.48473E+03 -2.70263E+03
  3.45500E+03 -2.38801E+03  2.60110E+03  6.43095E+02  9.70568E+02  3.67937E+03 -1.97203E+02  3.27619E+03
 -9.18552E+02  2.24229E+03 -2.58286E+03  1.80608E+03 -3.17249E+01 -2.89790E+02 -1.77978E+03  2.13555E+03
 -2.34498E+03  1.25974E+03 -4.34598E+03  1.23859E+03 -5.12494E+03  1.18295E+03 -6.74495E+03 -2.63833E+03
 -2.08843E+03 -6.79823E+03  4.72769E+02 -8.40506E+03  4.62404E+03 -5.08376E+03  8.04089E+03 -2.10734E+03
  7.49423E+03  1.46449E+03  4.32792E+03  4.56166E+03  1.39397E+03  5.19840E+03 -2.35482E+03  3.18771E+03
 -3.81163E+03  2.28190E+03 -1.91415E+03 -1.12443E+03 -1.07537E+03 -3.68208E+02 -8.10409E+02 -2.44933E+02
 -5.46318E+02  4.66922E+02 -5.73921E+02  6.02181E+02  3.26433E+02 -5.60790E+02  4.17056E+02 -1.98422E+03
  1.79897E+03 -1.45760E+03  4.08100E+03  7.94163E+02  2.52837E+03  2.44671E+03  1.53578E+03  5.93333E+03
 -3.11156E+03  5.79330E+03 -6.07542E+03  3.62953E+03 -5.40092E+03 -7.40584E+02 -5.72478E+03 -3.52416E+03
 -2.53576E+03 -5.32249E+03  2.28233E+03 -4.01166E+03  3.20907E+03 -2.51394E+03  3.39469E+03  1.40127E+03
  1.09612E+03  1.56172E+03  6.72353E+02  1.36375E+03 -7.69505E+02 -1.23839E+02 -2.54400E+02 -1.88631E+02
  1.02256E+03 -2.51457E+02  1.21445E+03  8.20800E+01  9.08011E+02  8.40771E+02  3.61811E+01  3.45894E+03
 -3.36897E+03  2.30314E+03 -1.69329E+03 -3.71260E+02 -3.32078E+03 -1.33827E+03 -1.59096E+03 -4.95695E+03
  3.57955E+02 -3.15486E+03  2.59543E+03 -1.71535E+02  3.60120E+03  6.16322E+01  1.44038E+03  1.65222E+03
 -8.05192E+02  1.76737E+03 -1.45443E+03  2.99177E+03 -8.18835E+02  2.61860E+03 -7.73277E+02  1.38720E+02
 -1.40875E+03  3.06342E+02 -8.07692E+02  1.27326E+02 -3.67081E+03  7.34964E+02 -2.00342E+03 -1.22358E+02
 -3.01107E+03 -1.58513E+03 -3.08106E+02 -3.43054E+03  1.34414E+03 -4.25924E+03  2.78074E+03 -1.58845E+03
  1.13358E+03  2.64161E+02  1.21941E+03  1.81005E+03 -7.26043E+02  2.22002E+03 -2.35284E+03  4.37131E+02
