 $NMID ID='MM_0lb_SNR200_11hz_g40_21.RAW', FMTDAT='(8E13.5)'
 TRAMP=1., VOLUME=1. $END
  3.10804E+05 -3.68355E+01  3.38031E+05  2.51663E+05  8.52215E+04  3.38807E+05 -1.34230E+05  2.51749E+05
 -1.91330E+05  8.28226E+04 -1.11701E+05 -3.21132E+04  1.03478E+03 -5.06308E+04  5.38430E+04  8.70785E+01
  3.66039E+04  5.36095E+04 -1.77015E+04  7.53171E+04 -6.09211E+04  6.34989E+04 -8.56937E+04  3.21246E+04
 -8.21599E+04 -1.15698E+04 -5.65819E+04 -5.18894E+04 -1.63040E+04 -7.03572E+04  2.75974E+04 -4.54767E+04
  3.95430E+04  3.38805E+03  1.61692E+04  4.83943E+04 -3.45079E+04  4.65556E+04 -6.63244E+04 -1.56366E+02
 -5.41023E+04 -5.77520E+04 -5.51452E+03 -7.74488E+04  3.54676E+04 -5.53425E+04  4.79325E+04 -1.69571E+04
  4.49326E+04  1.02985E+04  3.31074E+04  2.56144E+04  1.56592E+04  3.00370E+04 -5.72003E+03  2.76532E+04
 -2.06319E+04  1.31774E+04 -1.82764E+04 -4.03414E+03  5.47653E+03 -7.16559E+03  2.34774E+04  1.25598E+04
  7.45109E+03  3.53978E+04 -3.29335E+04  3.64667E+04 -6.53707E+04  3.15579E+03 -5.86374E+04 -4.34882E+04
 -1.22777E+04 -6.39829E+04  4.09574E+04 -4.68810E+04  6.03802E+04 -3.05674E+03  3.54708E+04  3.34879E+04
 -5.71977E+03  3.68869E+04 -3.09246E+04  1.78251E+04 -3.08985E+04 -4.73595E+03 -1.59109E+04 -1.08423E+04
 -8.11897E+03 -1.39687E+04 -7.53283E+02 -1.76885E+04  8.33552E+03 -2.18673E+04  1.56820E+04 -1.36528E+04
  1.01069E+04  5.09481E+03 -9.52687E+03  1.35113E+04 -2.21191E+04 -5.13360E+03 -9.18524E+03 -3.56783E+04
  2.41295E+04 -4.53452E+04  5.04435E+04 -1.94850E+04  4.62496E+04  1.98131E+04  1.73604E+04  4.50625E+04
 -1.56601E+04  3.37392E+04 -2.69606E+04  1.94190E+03 -1.09415E+04 -2.84026E+04  2.10774E+04 -3.64245E+04
  4.29325E+04 -8.69592E+03  3.46962E+04  2.50987E+04  2.00652E+04  4.77631E+04 -8.12537E+03  5.24781E+04
 -3.19947E+04  3.59913E+04 -4.32910E+04  1.06403E+04 -4.37572E+04 -1.74017E+04 -2.50031E+04 -3.94612E+04
  5.87502E+03 -3.88546E+04  3.24461E+04 -1.45289E+04  3.13924E+04  1.17068E+04  4.26914E+03  1.87521E+04
 -1.34302E+04  9.90643E+03 -1.08241E+04 -8.87440E+03  4.97694E+03 -1.11297E+04  1.68754E+04  6.30986E+03
  1.41853E+04  2.25134E+04 -6.06698E+03  2.56897E+04 -2.26050E+04  1.32517E+04 -2.98805E+04 -4.46655E+03
 -2.24801E+04 -1.72054E+04 -9.64289E+03 -2.16010E+04  5.43442E+03 -2.19089E+04  1.80701E+04 -1.85924E+04
  2.78504E+04 -1.26524E+04  3.38118E+04  5.10192E+03  2.53542E+04  2.08519E+04  4.48937E+03  3.72862E+04
 -1.84871E+04  3.11499E+04 -2.89499E+04  9.88322E+03 -2.12519E+04 -9.49924E+03 -3.46298E+03 -1.36364E+04
  1.17741E+03 -2.97872E+03 -5.78978E+03  6.44136E+03 -1.78422E+04  5.20721E+03 -1.81801E+04 -7.47072E+03
 -1.05993E+04 -2.02424E+04  5.55472E+03 -2.66200E+04  1.57708E+04 -1.79241E+04  1.99525E+04 -1.73306E+03
  1.37078E+04  1.47232E+04 -1.31775E+03  2.02536E+04 -1.55589E+04  1.24459E+04 -1.93352E+04 -5.18405E+03
 -1.63983E+04 -2.05451E+04 -2.37876E+03 -2.53721E+04  1.28033E+04 -2.06323E+04  2.01823E+04 -1.05747E+04
  1.95869E+04 -3.27312E+02  1.36579E+04  4.23337E+03  6.23130E+03  9.75275E+02  1.20102E+04 -2.08609E+03
  1.82710E+04  2.98397E+03  2.14212E+04  1.70381E+04  1.51520E+04  3.26342E+04 -3.41870E+03  3.83038E+04
 -2.33547E+04  3.09033E+04 -3.59988E+04  1.58655E+04 -3.82083E+04 -2.54177E+03 -3.11421E+04 -2.21849E+04
 -1.25759E+04 -2.98839E+04  1.08847E+04 -2.85203E+04  2.40411E+04 -1.38942E+04  2.18086E+04  7.26108E+03
  7.84610E+03  1.67620E+04 -1.01510E+04  1.46245E+04 -1.84413E+04  2.18865E+03 -1.41259E+04 -1.10954E+04
 -4.00281E+02 -1.74916E+04  8.89059E+03 -1.26724E+04  1.17523E+04 -7.58032E+02  3.65327E+03  7.43981E+03
 -7.47385E+03  2.86445E+03 -6.43255E+03 -6.00618E+03 -1.29285E+03 -1.45964E+04  8.96945E+03 -1.75961E+04
  1.99442E+04 -9.35587E+03  2.17179E+04  5.23828E+03  1.78452E+04  1.55799E+04  9.17817E+03  2.32145E+04
 -4.34391E+03  2.61971E+04 -1.63205E+04  1.54049E+04 -1.78584E+04  2.56887E+03 -1.39138E+04 -4.44423E+03
 -4.84056E+03 -6.08293E+03 -1.24007E+03  8.31941E+02 -2.72685E+03  2.43964E+03 -6.52856E+03  3.77645E+03
 -1.31359E+04 -1.43292E+03 -1.27527E+04 -9.64008E+03 -4.74282E+03 -1.52655E+04  6.27871E+03 -1.22542E+04
  1.09507E+04 -6.04515E+03  5.88093E+03  3.58684E+03  1.34007E+02  6.52362E+03 -7.31363E+03  1.01525E+03
 -5.57252E+03 -7.46972E+03 -5.48987E+02 -1.29546E+04  5.16507E+03 -1.28875E+04  1.61758E+04 -6.28945E+03
  1.99320E+04  2.32755E+03  1.48123E+04  1.16717E+04  3.74364E+03  1.62967E+04 -8.08488E+03  1.28903E+04
 -1.12045E+04  4.08733E+03 -6.05050E+03 -4.04337E+03  2.86901E+03 -5.05218E+03  7.73434E+03 -1.00041E+03
  5.91949E+03  7.32158E+03  3.82939E+02  1.13669E+04 -7.63868E+03  1.12049E+04 -1.27674E+04  1.80025E+03
 -8.96786E+03 -5.37724E+03  2.48488E+01 -1.19373E+04  6.91281E+03 -4.74218E+03  7.87580E+03  2.10238E+03
  1.32073E+03  7.95917E+03 -6.69075E+03  8.87790E+03 -1.06628E+04  4.59942E+03 -9.69792E+03 -2.69786E+03
 -5.45204E+03 -1.15315E+04  3.64423E+03 -1.34794E+04  1.24120E+04 -9.24560E+03  1.34708E+04  2.38519E+03
  7.88035E+03  9.56456E+03 -1.73983E+03  1.30736E+04 -9.57119E+03  7.05262E+03 -9.86138E+03 -1.56775E+02
 -8.40882E+03 -7.91139E+03 -1.31682E+03 -1.02903E+04  4.96018E+03 -7.07451E+03  5.67869E+03 -3.16379E+03
  3.07521E+03  3.24292E+03 -7.43688E+02  1.27134E+03  1.30143E+02 -2.56675E+03  1.43100E+03 -4.49428E+03
  9.89034E+03 -4.24660E+03  1.19554E+04  2.86248E+03  1.33005E+04  1.02773E+04  8.61974E+03  1.60761E+04
 -4.42732E+03  1.80289E+04 -1.45591E+04  1.39722E+04 -2.07582E+04  2.34975E+03 -1.40393E+04 -7.01248E+03
 -9.21427E+03 -1.28848E+04 -1.75859E+03 -1.13122E+04  3.93233E+03 -6.33817E+03  4.76467E+03 -3.37420E+03
  1.46969E+03 -2.56737E+03  2.63257E+03 -3.29992E+03  6.26841E+03 -2.99437E+03  6.66786E+03 -1.08648E+03
  7.21232E+03  1.72280E+03  4.24432E+03  6.91062E+03 -1.44551E+03  6.99611E+03 -8.78990E+03  6.79098E+03
 -1.16809E+04 -4.52497E+01 -6.29778E+03 -8.73975E+03 -4.94488E+02 -1.06767E+04  6.48566E+03 -1.15140E+04
  1.17558E+04 -6.56059E+03  1.49918E+04  3.16333E+03  8.66330E+03  9.85342E+03  2.40379E+03  1.37981E+04
 -5.76025E+03  1.16307E+04 -8.09582E+03  3.64686E+03 -4.44961E+03 -1.73094E+03 -2.25682E+03 -2.22410E+03
 -1.78341E+03  3.92074E+02 -2.19583E+03  2.64077E+03 -4.39200E+03  6.86990E+02 -8.03541E+03 -1.20668E+03
 -4.51420E+03 -7.22472E+03  3.28887E+02 -9.90542E+03  7.16616E+03 -1.12067E+04  1.11749E+04 -3.05988E+03
  9.88312E+03  5.07157E+03  5.47626E+03  8.11521E+03 -1.82041E+03  1.10019E+04 -8.00113E+03  9.24859E+03
 -1.05349E+04  4.42894E+01 -7.09981E+03 -6.81918E+03 -1.20814E+03 -9.44773E+03  5.93199E+03 -8.12134E+03
  6.92139E+03 -3.11081E+03  4.66833E+03  1.48338E+03  1.80128E+03  3.25415E+03  1.96342E+03  2.12433E+03
  3.89422E+03  9.22322E+02  2.83279E+03  1.90021E+03  3.22370E+03  5.70046E+03  2.56631E+03  5.41892E+03
 -2.27156E+03  7.39720E+03 -7.56041E+03  9.86401E+03 -1.03239E+04  2.03590E+03 -1.20103E+04 -3.04587E+03
 -5.89442E+03 -1.09895E+04  1.95358E+03 -1.16656E+04  6.64101E+03 -8.92265E+03  8.53054E+03 -2.95097E+03
  6.17843E+03  5.06387E+03  6.69637E+02  6.96486E+03 -3.71375E+03  3.71404E+03 -5.85730E+03 -2.35622E+02
 -2.57578E+03 -3.78408E+03  2.23167E+03 -3.93458E+03  4.98095E+03 -3.03076E+03  4.42885E+03  1.03197E+03
  1.84158E+03  1.12961E+03  2.39832E+03  2.01428E+03  1.26838E+02  1.40855E+03  2.07279E+03  2.91724E+02
  6.71319E+02 -1.63657E+03  4.13825E+03  1.55000E+03  3.58909E+03  5.68980E+03 -7.89016E+02  8.12630E+03
 -4.56380E+03  5.05354E+03 -8.18868E+03  1.77490E+03 -6.95733E+03 -1.44833E+03 -3.59001E+03 -3.92252E+03
  5.56996E+02 -4.44614E+03  3.93917E+03 -1.61690E+03  2.88137E+03  2.90339E+03 -4.08599E+02  1.68635E+03
 -5.14234E+03  1.06487E+03 -6.05810E+03 -3.24797E+03 -1.73030E+03 -6.17645E+03  1.04093E+03 -5.70367E+03
  2.17057E+03 -3.60593E+03  4.14076E+03 -8.98064E+02  5.10089E+03  2.97924E+02  1.50125E+02  4.68143E+03
 -1.05167E+03  1.47576E+03 -2.62435E+03 -2.93289E+03  2.16173E+02 -4.77966E+03  5.31149E+03 -2.84997E+03
  6.48486E+03  3.39468E+02  5.86932E+03  4.56941E+03  1.55727E+03  6.38735E+03 -1.26856E+03  7.89887E+03
 -6.75125E+03  1.85261E+03 -5.51674E+03  9.19799E+02 -2.54482E+03 -3.89482E+03  9.82251E+02 -5.08015E+03
  4.37366E+03 -2.22980E+03  2.73899E+03  3.09051E+03  2.50442E+03  3.64474E+03 -1.05254E+03  3.66527E+03
 -1.82175E+03  2.48284E+03 -2.49658E+03  2.66246E+02 -1.07114E+03  1.03558E+02 -6.42051E+02  3.08203E+02
 -1.93566E+03  3.27911E+03 -5.16240E+03  1.03282E+03 -5.97600E+03 -1.15976E+03 -9.06403E+03 -3.36778E+03
 -5.16295E+03 -8.49204E+03  3.20496E+03 -1.02203E+04  5.17961E+03 -9.19808E+03  9.11215E+03 -1.77832E+03
  1.00110E+04  2.19370E+03  4.29070E+03  6.83608E+03 -2.06386E+01  6.95927E+03 -2.70724E+03  5.24695E+03
 -4.79477E+03  2.42713E+03 -2.14004E+03 -1.89156E+03 -1.70189E+03 -2.13445E+02 -5.28536E+02  5.04829E+02
 -8.25501E+02  1.02944E+03 -1.76827E+03  4.05430E+02  1.49457E+02 -2.71286E+03 -4.62242E+02 -2.16148E+03
  5.20828E+03 -8.80258E+02  3.20199E+03  6.82028E+02  4.02570E+03  3.80051E+03  1.18390E+03  6.14455E+03
 -4.29762E+03  8.37208E+03 -6.07411E+03  4.98770E+03 -8.48437E+03 -1.21096E+03 -6.48878E+03 -4.68984E+03
 -2.02931E+03 -6.05910E+03  1.85350E+03 -5.55911E+03  3.09442E+03 -2.96850E+03  5.03270E+03 -8.36730E+02
  1.92304E+03  1.79925E+03 -5.67873E+02  2.91702E+03 -1.42230E+03  1.06812E+03 -7.04200E+02 -2.36288E+03
  7.65751E+02 -1.16516E+03  4.38502E+03 -1.62534E+01  1.92445E+03  3.07009E+03  6.32522E+00  3.01600E+03
 -2.91519E+03  2.56883E+03 -4.24136E+03  3.01862E+02 -5.14546E+03 -3.04314E+03 -9.19340E+02 -4.45120E+03
  3.51931E+03 -4.96432E+03  4.00719E+03 -2.58435E+03  3.95929E+03  1.56366E+03  2.80715E+03  3.90472E+03
  1.72142E+03  5.23943E+03 -2.35656E+03  2.79505E+03 -3.07353E+03  9.37063E+02 -3.25777E+03  3.11080E+03
 -2.75589E+02 -1.35945E+02 -1.86635E+03  7.29226E+02 -2.82242E+03 -2.83758E+02 -2.39936E+03 -1.19763E+03
 -2.55354E+03 -1.85136E+03 -1.31563E+02 -3.50170E+03  1.11188E+03 -3.08314E+03  4.45590E+03 -3.42424E+03
  4.17198E+03  1.11725E+03  1.52608E+03  3.45864E+03 -2.93150E+02  3.12310E+03 -5.35655E+03  3.49171E+03
