 $NMID ID='MM_0lb_SNR200_18hz_g60_56.RAW', FMTDAT='(8E13.5)'
 TRAMP=1., VOLUME=1. $END
  3.09997E+05  1.03508E+03  3.36889E+05  2.51289E+05  8.43108E+04  3.37732E+05 -1.32871E+05  2.51668E+05
 -1.88407E+05  8.31810E+04 -1.12239E+05 -3.20456E+04  5.56034E+02 -4.97198E+04  5.31849E+04 -7.29554E+02
  3.57704E+04  5.36116E+04 -1.56965E+04  7.41651E+04 -6.02000E+04  6.35989E+04 -8.48553E+04  3.25929E+04
 -8.09328E+04 -1.13048E+04 -5.79212E+04 -5.03957E+04 -1.44826E+04 -6.97357E+04  2.71511E+04 -4.57637E+04
  3.92693E+04  2.62376E+03  1.60089E+04  4.76600E+04 -3.50052E+04  4.62640E+04 -6.63815E+04 -1.03129E+03
 -5.38343E+04 -5.69201E+04 -7.77010E+03 -7.69121E+04  3.38187E+04 -5.37945E+04  4.72768E+04 -1.65688E+04
  4.38809E+04  1.06256E+04  3.27445E+04  2.54189E+04  1.60581E+04  2.87364E+04 -5.19041E+03  2.68613E+04
 -2.16197E+04  1.20922E+04 -1.79347E+04 -4.39275E+03  4.13422E+03 -8.15288E+03  2.24811E+04  1.16448E+04
  7.69130E+03  3.43002E+04 -3.06587E+04  3.44137E+04 -6.29207E+04  1.71234E+03 -5.67095E+04 -4.29283E+04
 -1.24791E+04 -6.18805E+04  3.91388E+04 -4.53569E+04  5.70170E+04 -1.70647E+03  3.37342E+04  3.15613E+04
 -6.32863E+03  3.55624E+04 -2.95328E+04  1.56659E+04 -2.86217E+04 -5.60910E+03 -1.59078E+04 -1.02910E+04
 -8.01616E+03 -1.30770E+04 -6.24117E+02 -1.80018E+04  6.85272E+03 -2.22802E+04  1.60720E+04 -1.35945E+04
  1.18692E+04  3.99096E+03 -6.82276E+03  1.35670E+04 -2.12112E+04 -3.27812E+03 -8.68098E+03 -3.24850E+04
  2.20905E+04 -4.23531E+04  4.64988E+04 -1.86108E+04  4.34384E+04  1.92814E+04  1.51910E+04  4.34912E+04
 -1.45034E+04  3.19413E+04 -2.51704E+04  1.23093E+03 -7.97007E+03 -2.79141E+04  2.13721E+04 -3.31564E+04
  3.89113E+04 -9.14647E+03  3.52428E+04  2.34335E+04  1.65935E+04  4.51673E+04 -7.29814E+03  4.84839E+04
 -3.10807E+04  3.22787E+04 -3.95135E+04  9.38148E+03 -4.09212E+04 -1.65716E+04 -2.28548E+04 -3.70153E+04
  7.30822E+03 -3.66297E+04  3.03298E+04 -1.43447E+04  2.76883E+04  1.09961E+04  4.04091E+03  1.87167E+04
 -1.33710E+04  8.72246E+03 -1.06104E+04 -8.61013E+03  5.50685E+03 -1.06418E+04  1.71007E+04  5.38320E+03
  1.32738E+04  2.13042E+04 -5.91824E+03  2.43379E+04 -2.21368E+04  1.00637E+04 -2.72389E+04 -5.83306E+03
 -1.76887E+04 -1.66581E+04 -6.76760E+03 -1.90100E+04  4.86279E+03 -1.62720E+04  1.46319E+04 -1.61248E+04
  2.37616E+04 -1.20426E+04  3.07776E+04  1.19700E+03  2.40462E+04  1.78994E+04  4.32047E+03  3.39667E+04
 -1.73848E+04  2.88695E+04 -2.81062E+04  9.26552E+03 -2.06735E+04 -1.05595E+04 -4.21118E+03 -1.41557E+04
  2.90841E+03 -3.86514E+03 -4.54354E+03  6.29669E+03 -1.44006E+04  5.61923E+03 -1.49954E+04 -6.31061E+03
 -9.09283E+03 -1.67351E+04  4.80363E+03 -2.15539E+04  1.30945E+04 -1.54108E+04  1.63931E+04 -1.40744E+03
  8.54297E+03  1.19787E+04 -1.19246E+03  1.74066E+04 -1.21023E+04  1.01553E+04 -1.49845E+04 -3.38298E+03
 -1.26440E+04 -1.58994E+04 -1.03621E+03 -2.06469E+04  9.28522E+03 -1.68181E+04  1.85104E+04 -8.73359E+03
  1.74044E+04  3.21542E+02  1.28682E+04  3.52339E+03  5.75827E+03 -5.38882E+02  7.91436E+03 -1.83711E+03
  1.62032E+04  2.88547E+03  1.79654E+04  1.39344E+04  1.13482E+04  2.68605E+04 -2.33957E+03  2.92935E+04
 -1.84785E+04  2.27257E+04 -2.79905E+04  1.25186E+04 -2.96842E+04 -6.90548E+02 -2.44372E+04 -1.60062E+04
 -9.75494E+03 -2.36114E+04  7.66163E+03 -2.12100E+04  1.93240E+04 -1.28178E+04  1.75930E+04  3.68714E+03
  6.86930E+03  1.31210E+04 -7.99649E+03  1.11122E+04 -1.44875E+04  2.91371E+03 -1.21362E+04 -9.33499E+03
 -1.17119E+03 -1.42148E+04  7.17683E+03 -9.87020E+03  8.23284E+03 -5.64833E+02  2.05149E+03  5.71775E+03
 -5.85863E+03  1.39197E+03 -4.87600E+03 -5.66551E+03 -5.04975E+02 -1.15549E+04  7.62318E+03 -1.12665E+04
  1.39639E+04 -5.41161E+03  1.43153E+04  2.70474E+03  1.20028E+04  1.08662E+04  6.00646E+03  1.61086E+04
 -2.21443E+03  1.78308E+04 -1.15353E+04  1.23659E+04 -1.26781E+04  3.43644E+03 -8.96382E+03 -2.43873E+03
 -4.66502E+03 -4.04999E+03 -3.66090E+02 -1.96394E+02 -1.60457E+03  1.95665E+03 -4.90095E+03  3.90393E+03
 -9.48124E+03 -7.62108E+02 -8.85839E+03 -6.85461E+03 -3.97630E+03 -1.21210E+04  3.71764E+03 -9.86660E+03
  9.49777E+03 -4.01083E+03  6.40022E+03  1.86853E+03  4.45413E+02  4.47124E+03 -4.13260E+03  1.18577E+02
 -4.38302E+03 -6.55215E+03 -4.41160E+02 -9.76405E+03  4.57387E+03 -9.53833E+03  1.14482E+04 -5.62555E+03
  1.26084E+04  1.36830E+03  1.06766E+04  6.09207E+03  1.53196E+03  9.56433E+03 -5.39816E+03  1.00331E+04
 -7.22980E+03  4.01940E+03 -3.89770E+03 -1.30489E+03  2.31887E+03 -2.60129E+03  4.64290E+03 -1.64843E+03
  4.66188E+03  3.11066E+03  1.34960E+03  5.87679E+03 -4.19935E+03  6.88482E+03 -8.63992E+03  2.24225E+03
 -6.01048E+03 -5.10208E+03 -2.86164E+02 -7.32889E+03  3.23660E+03 -3.79091E+03  3.92336E+03  2.56115E+03
  8.66877E+02  4.00825E+03 -4.30844E+03  5.25370E+03 -5.27533E+03  1.87329E+03 -4.87250E+03 -1.20199E+03
 -4.49856E+03 -7.05672E+03  2.06450E+03 -8.23870E+03  7.12641E+03 -4.93637E+03  8.09380E+03  6.75637E+02
  4.13764E+03  5.86723E+03 -4.09197E+02  9.16871E+03 -6.05827E+03  4.01780E+03 -5.65427E+03 -8.11668E+02
 -5.31510E+03 -6.04264E+03 -1.00376E+03 -6.10638E+03  3.50153E+03 -5.69260E+03  3.02629E+03 -3.42264E+03
  3.72896E+03 -1.95172E+02 -5.73841E+02  2.51603E+03  9.58032E+01  2.45447E+02 -4.48890E+01 -2.81744E+03
  4.75757E+03 -1.47623E+03  6.31392E+03  7.25025E+02  7.20494E+03  3.87063E+03  5.31825E+03  7.75381E+03
 -1.03068E+03  9.79459E+03 -9.24437E+03  7.92946E+03 -1.12651E+04  8.55690E+02 -9.80374E+03 -2.98963E+03
 -4.38757E+03 -6.22041E+03 -3.53736E+02 -4.66874E+03  2.43803E+03 -3.09402E+03  1.65520E+03 -2.84443E+03
  1.08209E+03 -1.94638E+03  1.85528E+03 -1.93123E+03  3.46506E+03 -1.60806E+03  3.83957E+03  1.84714E+03
  4.96729E+03  2.37869E+03  9.65391E+02  3.80097E+03 -2.02658E+03  2.64119E+03 -5.14806E+03  3.28390E+03
 -5.86253E+03 -2.16013E+03 -1.23979E+03 -3.78910E+03  8.97774E+02 -5.48286E+03  3.43995E+03 -5.91482E+03
  5.25551E+03 -3.39031E+03  7.48872E+03 -2.39844E+02  5.61531E+03  6.41997E+03  9.54727E+02  6.76004E+03
 -1.61655E+03  5.66966E+03 -3.87776E+03  9.91505E+02 -2.49639E+03 -1.51548E+03 -1.76623E+03 -1.35765E+03
  2.46265E+02  1.07969E+03 -1.13805E+03  2.77395E+03 -2.93715E+03  1.13670E+03 -4.18928E+03 -8.80339E+02
 -1.30091E+03 -3.73859E+03  7.04918E+02 -6.38714E+03  3.12473E+03 -5.41863E+03  4.50584E+03 -1.95430E+03
  4.13082E+03  3.33045E+03  2.78251E+03  3.80668E+03 -1.97226E+03  5.15876E+03 -3.19537E+03  2.94100E+03
 -4.16847E+03  4.84578E+02 -2.65232E+03 -4.32759E+03 -1.10148E+02 -3.51618E+03  1.78020E+03 -1.74286E+03
  2.89289E+03 -1.10438E+03  1.71716E+03  1.02025E+03  4.45763E+02  1.26415E+03  1.51694E+03  1.16179E+02
  1.59068E+03  1.56491E+03  1.58743E+03 -1.86585E+02  1.52655E+03  2.55548E+03  1.27933E+03  2.09002E+03
 -1.39362E+03  4.24595E+03 -2.88820E+03  4.21243E+03 -4.31977E+03  1.68139E+03 -4.44050E+03 -1.54450E+03
 -1.72211E+03 -4.29894E+03  6.23272E+02 -5.69108E+03  4.16912E+03 -2.89101E+03  3.58386E+03 -3.12667E+03
  2.76166E+03  2.59423E+03  7.87356E+02  2.43475E+03 -3.09291E+02  7.47850E+02 -8.40231E+02 -3.22990E+02
 -1.23930E+03 -8.47731E+02  1.49412E+03 -1.01379E+03  1.36395E+03 -1.43017E+03  2.08424E+03  7.08465E+01
  6.59599E+02  6.24687E+02  2.59219E+01  3.79061E+02  2.24701E+02  5.21262E+02  1.07472E+03 -2.64823E+02
 -9.98616E+01  7.51827E+01  3.00663E+03  8.77902E+02  6.97872E+02  2.24564E+03  1.13296E+01  2.96089E+03
 -3.18842E+03  9.57249E+02 -1.95917E+03  1.23483E+03 -1.74582E+03 -1.42011E+03 -2.28511E+01  9.86625E+01
  7.07602E+02 -1.54777E+03  1.77354E+03 -7.54103E+02  8.88678E+02  1.39157E+03 -1.26162E+03  3.85584E+02
 -2.26609E+03  1.13607E+03 -1.27498E+03 -2.81234E+02 -5.34389E+02 -1.53993E+03 -5.15624E+02 -1.75018E+03
  2.84813E+02 -2.03037E+03  4.91852E+02 -1.39687E+02  1.48177E+03 -6.22219E+02 -7.03725E+01  9.11590E+02
  5.49374E+01 -2.22707E+02 -1.12871E+03 -1.27132E+00  1.69242E+03 -1.55682E+03  2.78431E+03 -7.29688E+02
  2.12964E+03  3.99573E+02  2.58124E+03  6.55915E+02  1.40456E+03  1.58132E+03 -2.07912E+02  1.10515E+03
 -1.91731E+03  1.33069E+02 -2.01605E+03  1.21597E+02 -6.84769E+02 -2.00889E+03  2.00777E+02 -6.61966E+02
  1.74156E+03 -6.07097E+02  1.66547E+03 -3.42379E+02 -2.41210E+02  1.74218E+03 -2.81253E+02  1.62936E+03
  1.43428E+02  9.06543E+02 -1.29254E+03 -1.31357E+02 -5.79553E+02  4.51223E+01 -6.47134E+02  1.37051E+03
 -1.48525E+03  1.04887E+03 -1.33030E+03  6.95443E+02 -1.52354E+03  5.49282E+01 -2.64114E+03 -8.77906E+02
 -1.35137E+03 -1.99100E+03  1.09114E+03 -3.33942E+03  1.60596E+03 -2.41743E+03  2.77207E+03 -1.84486E+03
  3.71604E+03 -2.62547E+02  1.88521E+03  1.47113E+03 -7.54529E+01  2.44088E+03 -1.70255E+03  1.28618E+03
 -5.06879E+02  9.69293E+02 -1.63096E+02 -1.88615E+02 -4.49308E+01  2.98187E+02 -4.97475E+02  1.03224E+03
 -9.89527E+02 -1.33217E+02 -1.32328E+03  6.66779E+02 -7.85368E+02  3.30035E+02  7.22768E+01 -2.16465E+02
  1.01080E+03 -1.77910E+03  7.55000E+01  4.53987E+02  2.99761E+02  1.47228E+03 -2.96662E+02  1.97474E+03
 -1.00116E+03  2.80390E+03 -1.86935E+03  9.28394E+02 -9.60539E+02 -3.87904E+02 -7.48655E+02 -1.60642E+03
 -1.22552E+03 -1.54233E+03  1.39951E+03 -1.48481E+03  1.24149E+03 -5.50840E+02  1.94552E+02 -5.15971E+02
 -7.89732E+02  6.39145E+02 -5.96275E+02  1.53635E+02 -1.78016E+02  4.79746E+02  3.53332E+01  6.28703E+02
  1.56914E+03  7.49349E+02 -1.09882E+02  1.06916E+03  6.46544E+02  3.10522E+02  8.40835E+02 -3.59390E+01
 -9.82817E+02  1.02696E+03 -2.89509E+02 -7.59629E+01 -1.29530E+03 -1.69773E+03  1.77389E+03 -1.10906E+03
  8.69628E+01 -5.86242E+02 -6.20856E+01  1.86296E+02  5.93816E+02  4.05449E+02  1.17212E+03  1.45468E+03
  1.46637E+03 -3.86987E+00 -4.32944E+02  5.93382E+02 -5.79829E+02  6.75143E+02  6.38492E+02  5.11471E+02
 -1.08321E+02 -3.53235E+02 -1.09083E+01  2.95809E+02 -1.03103E+03  8.72400E+02 -5.57571E+02 -1.00958E+03
 -6.45195E+02 -5.51945E+02 -7.48800E+02 -1.04638E+03  1.11641E+03 -1.51188E+03 -6.07220E+02 -5.64365E+02
  1.54453E+03  1.46832E+03 -8.54367E+02 -2.44199E+02 -8.54684E+02  4.75787E+02  8.75032E+02 -1.39129E+02
