 $NMID ID='MM_0lb_SNR200_18hz_g55_3.RAW', FMTDAT='(8E13.5)'
 TRAMP=1., VOLUME=1. $END
  3.10131E+05 -4.53246E+02  3.37789E+05  2.51310E+05  8.46369E+04  3.37779E+05 -1.32020E+05  2.51081E+05
 -1.91547E+05  8.35929E+04 -1.11700E+05 -3.34836E+04 -1.10452E+02 -5.04091E+04  5.40290E+04  6.96728E+02
  3.40564E+04  5.21433E+04 -1.75291E+04  7.59130E+04 -6.10149E+04  6.30955E+04 -8.39573E+04  3.17359E+04
 -7.99732E+04 -1.17212E+04 -5.55966E+04 -5.09923E+04 -1.50377E+04 -6.77637E+04  2.72726E+04 -4.46717E+04
  3.90901E+04  3.30929E+03  1.58103E+04  4.79786E+04 -3.39036E+04  4.72025E+04 -6.61065E+04 -1.30426E+03
 -5.25247E+04 -5.70008E+04 -6.47928E+03 -7.60006E+04  3.36758E+04 -5.38732E+04  4.68059E+04 -1.59695E+04
  4.22440E+04  1.03129E+04  3.07068E+04  2.53283E+04  1.62041E+04  2.82629E+04 -5.18847E+03  2.71078E+04
 -2.06888E+04  1.20750E+04 -1.88334E+04 -3.82187E+03  4.51616E+03 -7.49947E+03  2.10538E+04  1.06705E+04
  8.27646E+03  3.49672E+04 -3.12530E+04  3.50877E+04 -6.18074E+04  2.06626E+03 -5.72509E+04 -4.20564E+04
 -1.14125E+04 -6.21959E+04  3.89222E+04 -4.40832E+04  5.65526E+04 -2.21622E+03  3.33281E+04  3.20498E+04
 -7.09145E+03  3.43276E+04 -2.86087E+04  1.40559E+04 -2.94307E+04 -4.82224E+03 -1.60543E+04 -1.07866E+04
 -8.51822E+03 -1.27350E+04 -2.09143E+03 -1.79784E+04  6.30734E+03 -2.31912E+04  1.59493E+04 -1.44532E+04
  1.22325E+04  4.31489E+03 -7.95494E+03  1.33752E+04 -2.01910E+04 -2.75147E+03 -7.39934E+03 -3.14944E+04
  2.03572E+04 -4.16402E+04  4.71344E+04 -1.95738E+04  4.26689E+04  1.82138E+04  1.42845E+04  4.41134E+04
 -1.48906E+04  3.30008E+04 -2.38966E+04  2.45859E+03 -7.62266E+03 -2.70787E+04  1.97806E+04 -3.16218E+04
  3.85923E+04 -7.74594E+03  3.32058E+04  2.41987E+04  1.64591E+04  4.53658E+04 -7.75875E+03  4.64769E+04
 -2.98195E+04  3.16536E+04 -3.93369E+04  8.73787E+03 -4.06155E+04 -1.52765E+04 -2.18804E+04 -3.57793E+04
  7.78337E+03 -3.57780E+04  3.02496E+04 -1.36903E+04  2.78964E+04  1.10250E+04  3.82234E+03  1.84814E+04
 -1.34592E+04  8.03777E+03 -1.00777E+04 -7.90696E+03  5.89993E+03 -1.09787E+04  1.65120E+04  7.13099E+03
  1.31805E+04  2.13629E+04 -5.69822E+03  2.50007E+04 -2.22448E+04  1.02713E+04 -2.67894E+04 -5.87840E+03
 -1.87115E+04 -1.66085E+04 -7.02144E+03 -1.86768E+04  5.12832E+03 -1.72578E+04  1.43145E+04 -1.58308E+04
  2.22503E+04 -1.23947E+04  2.98240E+04  1.25174E+03  2.22792E+04  1.61044E+04  4.85428E+03  3.27130E+04
 -1.68930E+04  2.89395E+04 -2.63327E+04  9.30121E+03 -1.96739E+04 -1.01458E+04 -3.64941E+03 -1.39085E+04
  2.16938E+03 -3.91574E+03 -4.29988E+03  5.10454E+03 -1.36189E+04  4.70766E+03 -1.49207E+04 -6.13374E+03
 -9.10130E+03 -1.70895E+04  4.47515E+03 -1.96992E+04  1.29284E+04 -1.48935E+04  1.53771E+04 -1.00167E+03
  9.74489E+03  1.14132E+04 -2.01251E+02  1.59130E+04 -1.23168E+04  1.06755E+04 -1.67957E+04 -2.29543E+03
 -1.32429E+04 -1.50599E+04 -1.34068E+03 -1.95293E+04  9.11759E+03 -1.65678E+04  1.63656E+04 -7.40009E+03
  1.53366E+04  1.90267E+03  1.04172E+04  4.09708E+03  6.44385E+03  4.59371E+02  7.98513E+03 -1.23223E+03
  1.49466E+04  2.87385E+03  1.66010E+04  1.27917E+04  1.07265E+04  2.67833E+04 -3.28733E+03  2.87395E+04
 -1.82365E+04  2.18668E+04 -2.73470E+04  1.11894E+04 -2.74457E+04 -1.09803E+03 -2.22397E+04 -1.58231E+04
 -1.09765E+04 -2.29080E+04  8.81227E+03 -2.13862E+04  1.78438E+04 -1.13339E+04  1.54777E+04  4.53111E+03
  6.55923E+03  1.26708E+04 -7.67057E+03  1.13372E+04 -1.35950E+04  2.76735E+03 -1.06928E+04 -7.44182E+03
 -4.45646E+02 -1.22426E+04  6.44769E+03 -8.84392E+03  8.67047E+03 -2.08482E+03  5.80565E+02  5.30211E+03
 -6.21713E+03  2.00329E+03 -3.61470E+03 -3.94616E+03  1.41531E+03 -1.04976E+04  7.44616E+03 -1.08106E+04
  1.45942E+04 -6.04442E+03  1.39659E+04  2.80353E+03  1.16148E+04  1.07482E+04  5.55822E+03  1.50010E+04
 -7.41271E+02  1.74009E+04 -1.02740E+04  1.16268E+04 -1.21379E+04  4.64780E+03 -9.66959E+03 -2.11340E+03
 -2.43006E+03 -3.76867E+03 -1.33700E+03  1.18888E+03 -2.69389E+03  2.12662E+03 -3.50190E+03  3.27750E+03
 -8.62785E+03 -1.33538E+03 -8.14102E+03 -6.99863E+03 -4.48956E+03 -1.29459E+04  3.32707E+03 -8.66386E+03
  8.25163E+03 -4.75755E+03  5.65145E+03  2.69790E+03  1.04094E+03  2.95661E+03 -3.75530E+03 -3.44042E+02
 -3.67523E+03 -5.04411E+03 -4.94090E+02 -8.00504E+03  4.47301E+03 -9.67437E+03  1.10873E+04 -3.63902E+03
  1.36025E+04  1.00533E+03  9.67680E+03  6.72962E+03  1.00861E+03  9.62884E+03 -5.59010E+03  8.64055E+03
 -7.92785E+03  4.34471E+03 -3.96209E+03 -9.81793E+02  1.40480E+03 -2.38896E+03  4.78905E+03 -2.15571E+02
  4.74599E+03  4.28249E+03  8.96085E+02  5.96742E+03 -5.67246E+03  7.05471E+03 -9.14630E+03  2.28812E+03
 -5.79034E+03 -3.97244E+03  3.54166E+02 -7.13442E+03  4.29766E+03 -2.82292E+03  3.87953E+03  1.26086E+03
  8.27614E+02  4.35326E+03 -3.43932E+03  5.91958E+03 -4.75215E+03  2.38008E+03 -5.58606E+03 -2.29029E+03
 -3.54835E+03 -7.09618E+03  1.08973E+03 -7.69624E+03  7.07723E+03 -4.88146E+03  6.92429E+03  1.14954E+03
  4.57854E+03  6.40302E+03  1.15849E+01  7.53231E+03 -5.12692E+03  4.96669E+03 -6.39017E+03 -1.55608E+03
 -6.77891E+03 -4.54463E+03 -1.96004E+03 -5.45276E+03  2.84076E+03 -4.38379E+03  3.84158E+03 -3.14624E+03
  2.97460E+03  1.00664E+03 -1.83269E+02  6.08456E+02  1.39766E+03  2.45173E+02 -1.35647E+03 -2.44255E+03
  4.82814E+03 -2.59506E+03  6.47857E+03  3.40317E+01  6.81869E+03  2.50328E+03  5.23857E+03  7.86575E+03
 -1.22408E+03  9.19937E+03 -8.88722E+03  6.73010E+03 -1.09152E+04  1.00473E+03 -9.26962E+03 -2.37333E+03
 -3.60559E+03 -6.66907E+03 -1.37136E+03 -5.07976E+03  2.11461E+03 -2.75652E+03  2.32606E+03 -1.94533E+03
  1.89149E+03 -9.00895E+02  1.04269E+03 -2.45123E+03  4.02992E+03 -1.99303E+03  3.24946E+03  4.06369E+02
  5.06869E+03  8.66163E+02  1.29208E+03  3.56483E+03 -1.13942E+03  3.14979E+03 -5.11606E+03  3.31860E+03
 -5.20869E+03 -1.08928E+03 -1.82482E+03 -3.90951E+03  1.08789E+03 -4.85691E+03  2.99085E+03 -6.40946E+03
  5.36126E+03 -3.96885E+03  7.18664E+03  1.49562E+02  5.91659E+03  3.60991E+03  8.77695E+02  7.39413E+03
 -2.03754E+03  7.24438E+03 -2.80971E+03  2.20953E+03 -2.82811E+03 -1.60811E+03 -3.19093E+02 -2.59475E+02
 -6.21830E+02  8.01931E+02 -5.42499E+02  2.34882E+03 -2.40594E+03  9.74682E+02 -3.64596E+03 -1.28085E+03
 -2.34047E+03 -4.61447E+03  8.98538E+02 -4.14986E+03  3.70164E+03 -4.08159E+03  5.32136E+03 -1.96433E+03
  4.60246E+03  2.29492E+03  2.72885E+03  3.53113E+03 -1.86503E+03  4.45327E+03 -2.08916E+03  2.30313E+03
 -4.15176E+03  1.28537E+03 -2.90199E+03 -2.55486E+03  3.33061E+02 -2.50227E+03  2.48617E+03 -2.20894E+03
  3.12831E+03 -1.96520E+03  1.27954E+03  7.39621E+01  1.38553E+03  1.23936E+03  2.06764E+02 -7.90604E+01
  2.07314E+03  8.34545E+02  5.61678E+02  1.59489E+03  1.45742E+03  2.41883E+03  1.01514E+03  1.31986E+03
 -1.23952E+03  3.26646E+03 -1.93726E+03  3.66056E+03 -4.07780E+03  2.03764E+03 -5.40984E+03 -1.68254E+03
 -2.23811E+03 -3.41737E+03  3.27755E+02 -5.66277E+03  1.62072E+03 -3.48745E+03  2.94559E+03 -5.97485E+02
  2.69354E+03  1.83404E+03  8.69083E+02  2.81493E+03 -4.77485E+02  1.84517E+03 -9.22009E+02 -2.49136E+02
  6.17397E+00 -2.30359E+03  6.70333E+02 -1.45595E+03  1.37671E+03 -1.63477E+03  9.38004E+02  4.21401E+02
  5.82251E+01  4.74280E+02  1.38438E+03 -2.06220E+02 -5.46080E+02  1.38375E+03  1.17017E+03 -5.12543E+02
 -1.27915E-01 -4.56103E+02  2.96664E+03  4.77761E+02 -7.88089E+01  3.22278E+03 -1.47730E+03  2.22614E+03
 -2.39928E+03  1.18397E+03 -1.31520E+03  5.42979E+02 -2.59362E+03 -9.64821E+02  8.02464E+01 -2.00422E+03
  4.85867E+02 -8.25397E+02  1.84542E+03  1.38137E+01  5.04341E+02  2.44046E+03 -4.57330E+02  2.89192E+03
 -9.40974E+02  7.10561E+02 -1.17129E+03 -1.99126E+03 -1.66129E+03 -2.62087E+03 -7.44067E+02 -1.42041E+03
  1.37966E+03 -1.60405E+03  8.73105E+02 -4.88769E+02  1.94701E+03 -1.02324E+02  6.08445E+02  9.28894E+02
 -1.48308E+03  4.38111E+02 -6.59974E+02 -1.28865E+02  1.16472E+03 -1.35879E+03  1.22066E+03 -1.54590E+03
  1.54896E+03  5.82966E+02  2.49756E+03  1.01231E+03  5.69759E+02  1.75211E+03  1.20355E+01  1.49272E+03
 -7.11051E+02  1.04036E+03 -9.54248E+02  1.16681E+03 -1.80480E+03 -1.53569E+03  1.24311E+03 -1.52128E+03
  2.28124E+03 -9.62236E+02  1.21084E+03  2.26610E+03  2.68315E+02  2.07955E+03 -9.64582E+02  9.87859E+02
 -8.92521E+01  2.61237E+02 -2.17023E+03  9.88838E+02  5.71539E+02 -6.26104E+02 -6.39616E+02  9.09415E+02
 -1.40690E+03  1.39317E+03 -1.25116E+03  2.38271E+02 -1.58780E+03  3.89345E+01 -2.62518E+03 -1.09664E+03
 -9.20031E+02 -2.13730E+03  1.23200E+03 -3.31813E+03  1.31743E+03 -1.65524E+03  3.57787E+03 -1.36635E+03
  2.04647E+03  7.19028E+01  8.05746E+02  1.66323E+03 -9.37877E+02  1.67274E+03 -7.91750E+02  1.86006E+03
 -4.76406E+02  4.71201E+02 -1.05587E+02 -5.61724E+02 -7.69419E+02  1.08691E+03 -5.82033E+02  7.39728E+02
 -7.62643E+02 -1.71451E+03 -1.38295E+03 -8.35945E+02  8.56630E+01 -4.87036E+02  2.10657E+02 -1.34977E+03
  1.55160E+03 -1.38607E+03  8.27105E+02 -2.46316E+02  8.00051E+02 -4.39234E+02 -1.26673E+03  8.68904E+02
 -8.21510E+02  1.91366E+03 -1.71914E+03  1.22486E+03 -1.19672E+03 -5.20154E+02 -1.79031E+03 -1.77744E+03
 -2.17623E+03 -1.38737E+03 -6.75163E+02 -9.65243E+02  1.11551E+03 -1.67700E+03  1.06923E+03  2.96681E+02
  9.67538E+02  6.28210E+02  1.29664E+03  7.35948E+02 -2.93155E+02 -2.58916E+01  2.55615E+02  8.27569E+01
  7.64897E+02  3.60249E+02 -6.24953E+02 -2.91048E+02  2.75608E+02  2.95929E+02  3.25323E-01  7.86206E+02
  3.58158E+02  4.38646E+00 -9.23658E+01  2.61691E+02 -6.89157E+02 -6.37316E+02  7.13209E+02 -1.29475E+03
 -6.29182E+01 -9.96735E+02  1.04342E+03  5.98899E+02  1.32647E+03 -1.05934E+03  3.57895E+02  8.37610E+02
  3.43005E+02  3.64287E+02 -3.17651E+02  1.39346E+03 -1.50502E+03  2.00827E+02 -8.30369E+02  7.60822E+00
 -2.12273E+03  4.71692E+02 -4.67548E+02 -3.12506E+01 -3.69059E+02  4.17707E+02 -1.51640E+03  6.33989E+02
 -2.30807E+02 -6.85316E+01 -8.49194E+01 -1.36857E+03  4.21370E+02 -1.12863E+03  1.57623E+03 -8.81021E+02
  3.46751E+02  2.27008E+02 -6.75665E+02  9.87813E+02 -4.41730E+02  9.91613E+02 -1.23008E+03  1.40323E+03
