 $NMID ID='MM_0lb_SNR200_16hz_g55_61.RAW', FMTDAT='(8E13.5)'
 TRAMP=1., VOLUME=1. $END
  3.10644E+05 -5.86271E+02  3.37443E+05  2.50923E+05  8.48150E+04  3.37148E+05 -1.32519E+05  2.50649E+05
 -1.89991E+05  8.21481E+04 -1.09925E+05 -3.31616E+04  1.36136E+02 -5.11353E+04  5.37483E+04 -3.86119E+02
  3.63835E+04  5.28229E+04 -1.67205E+04  7.59667E+04 -6.06890E+04  6.40523E+04 -8.27154E+04  3.16383E+04
 -8.11219E+04 -1.10356E+04 -5.70351E+04 -5.12554E+04 -1.48758E+04 -6.97809E+04  2.65111E+04 -4.58056E+04
  3.99489E+04  4.01993E+03  1.51038E+04  4.73093E+04 -3.36104E+04  4.65753E+04 -6.62294E+04  4.31060E+02
 -5.32947E+04 -5.71257E+04 -7.06173E+03 -7.56796E+04  3.40242E+04 -5.38874E+04  4.86451E+04 -1.67709E+04
  4.19973E+04  1.12813E+04  3.15873E+04  2.69789E+04  1.66948E+04  2.92672E+04 -5.39199E+03  2.74568E+04
 -2.15693E+04  1.19047E+04 -1.82677E+04 -3.84601E+03  5.12562E+03 -6.49067E+03  2.34007E+04  1.21437E+04
  6.42875E+03  3.42363E+04 -3.15033E+04  3.44909E+04 -6.26409E+04  2.47625E+03 -5.65670E+04 -4.28328E+04
 -1.25049E+04 -6.17754E+04  3.89058E+04 -4.42754E+04  5.74151E+04 -3.20403E+03  3.45178E+04  3.10144E+04
 -4.94973E+03  3.67547E+04 -2.99036E+04  1.50216E+04 -2.97751E+04 -5.45562E+03 -1.72691E+04 -1.06083E+04
 -8.94915E+03 -1.31956E+04 -9.72108E+02 -1.74729E+04  5.70277E+03 -2.33164E+04  1.56235E+04 -1.31190E+04
  1.21015E+04  3.86185E+03 -8.01815E+03  1.27566E+04 -2.10950E+04 -3.35014E+03 -7.97948E+03 -3.19813E+04
  2.18858E+04 -4.30843E+04  4.87341E+04 -1.96803E+04  4.29519E+04  1.95880E+04  1.51183E+04  4.39619E+04
 -1.53517E+04  3.24303E+04 -2.55174E+04  1.49431E+03 -9.65049E+03 -2.79379E+04  2.09051E+04 -3.39105E+04
  4.01544E+04 -1.01938E+04  3.42445E+04  2.36325E+04  1.79128E+04  4.46933E+04 -8.26333E+03  4.91877E+04
 -3.01947E+04  3.27231E+04 -4.11917E+04  9.01239E+03 -4.06556E+04 -1.54653E+04 -2.14866E+04 -3.73351E+04
  7.17452E+03 -3.75524E+04  3.15165E+04 -1.39819E+04  2.97317E+04  1.10273E+04  4.47162E+03  2.05609E+04
 -1.30282E+04  8.12021E+03 -1.07040E+04 -7.04516E+03  6.38306E+03 -1.10351E+04  1.82929E+04  7.46101E+03
  1.22531E+04  2.12336E+04 -6.55125E+03  2.55740E+04 -2.22353E+04  1.06809E+04 -2.71084E+04 -4.09896E+03
 -1.90056E+04 -1.67211E+04 -8.12211E+03 -2.00922E+04  4.93366E+03 -1.89838E+04  1.46675E+04 -1.66516E+04
  2.48145E+04 -1.18173E+04  3.09648E+04  3.73260E+03  2.24759E+04  1.88805E+04  5.17969E+03  3.52240E+04
 -1.59148E+04  2.90998E+04 -2.77980E+04  9.33148E+03 -2.06873E+04 -9.87144E+03 -4.66598E+03 -1.35118E+04
  1.01898E+03 -3.97128E+03 -4.45148E+03  5.88857E+03 -1.56837E+04  5.20930E+03 -1.48497E+04 -7.14561E+03
 -1.05470E+04 -1.86424E+04  5.12627E+03 -2.20357E+04  1.40405E+04 -1.56502E+04  1.65872E+04 -1.85219E+03
  1.12108E+04  1.22802E+04 -7.56347E+02  1.72740E+04 -1.25966E+04  1.12745E+04 -1.75662E+04 -3.61508E+03
 -1.28771E+04 -1.67131E+04 -1.39869E+03 -2.41730E+04  1.01518E+04 -1.78024E+04  1.73917E+04 -9.37337E+03
  1.70683E+04  8.98607E+02  1.15410E+04  4.95964E+03  6.15371E+03  1.01637E+03  9.28857E+03 -2.14074E+03
  1.64807E+04  3.40507E+03  1.84314E+04  1.36587E+04  1.10091E+04  2.94062E+04 -2.78162E+03  3.22662E+04
 -1.89059E+04  2.51521E+04 -2.90460E+04  1.22642E+04 -3.14237E+04 -2.64305E+03 -2.55556E+04 -1.83347E+04
 -1.12619E+04 -2.63202E+04  9.31585E+03 -2.29536E+04  2.07485E+04 -1.16705E+04  1.79615E+04  5.36719E+03
  7.27732E+03  1.43924E+04 -8.67685E+03  1.33254E+04 -1.65586E+04  2.68142E+03 -1.15692E+04 -9.91770E+03
 -1.23305E+03 -1.45148E+04  7.49850E+03 -1.11068E+04  8.33602E+03 -9.79737E+02  2.65744E+03  5.11377E+03
 -7.13481E+03  2.21483E+03 -5.27581E+03 -5.39137E+03 -3.53677E+02 -1.33958E+04  9.69663E+03 -1.21881E+04
  1.47421E+04 -6.23767E+03  1.60790E+04  3.26156E+03  1.50430E+04  1.17465E+04  6.53255E+03  1.91510E+04
 -2.22022E+03  2.05657E+04 -1.14793E+04  1.22756E+04 -1.37559E+04  3.65565E+03 -1.10514E+04 -3.29310E+03
 -5.60715E+03 -4.23781E+03 -1.08305E+02  2.88288E+03 -1.38922E+03  1.96833E+03 -4.68420E+03  5.13295E+03
 -1.07781E+04  3.08845E+02 -1.07614E+04 -8.59119E+03 -5.48405E+03 -1.38370E+04  4.12160E+03 -1.13314E+04
  7.93951E+03 -4.25297E+03  6.44831E+03  4.48411E+03 -7.27162E+00  4.07823E+03 -4.83969E+03  5.99658E+02
 -2.85073E+03 -5.27443E+03 -1.38181E+03 -8.73945E+03  5.44584E+03 -1.00004E+04  1.31387E+04 -4.91178E+03
  1.52237E+04  1.53987E+03  1.16101E+04  7.98139E+03  3.23858E+03  1.17790E+04 -6.06988E+03  9.77823E+03
 -8.11783E+03  2.89611E+03 -2.84456E+03 -2.11002E+03  1.23805E+03 -4.76042E+02  5.97117E+03 -4.76862E+02
  6.34184E+03  5.18298E+03  9.10589E+02  7.64588E+03 -6.06586E+03  7.58129E+03 -9.63324E+03  2.11443E+03
 -6.86192E+03 -5.01543E+03  5.75457E+02 -8.07916E+03  4.76500E+03 -3.28686E+03  4.85127E+03  2.24091E+03
  7.73494E+02  3.91600E+03 -4.81002E+03  7.37735E+03 -7.13776E+03  3.89747E+03 -6.65261E+03 -2.51760E+03
 -3.85895E+03 -8.71950E+03  2.88928E+03 -1.09000E+04  8.32203E+03 -5.29363E+03  9.17936E+03  8.01058E+02
  6.33568E+03  7.08456E+03  9.83290E+01  9.79475E+03 -6.72286E+03  4.39397E+03 -7.49152E+03 -1.36530E+03
 -7.35324E+03 -5.50234E+03 -2.20461E+03 -5.35682E+03  3.37065E+03 -5.44931E+03  4.47149E+03 -4.07453E+03
  2.18271E+03 -1.53728E+01 -1.23739E+02  1.64496E+03 -3.28310E+02 -7.00519E+02  7.24343E+01 -4.36558E+03
  5.58212E+03 -2.64490E+03  7.78765E+03  6.08832E+02  7.84820E+03  5.14351E+03  5.97000E+03  1.08316E+04
 -3.12316E+03  1.36967E+04 -1.07505E+04  9.11267E+03 -1.29343E+04  1.25830E+03 -1.09554E+04 -4.31028E+03
 -5.50049E+03 -8.64392E+03 -1.57199E+03 -7.83976E+03  2.57755E+03 -3.63957E+03  3.45966E+03 -3.77688E+03
  2.99715E+03 -1.16882E+03  2.23460E+03 -2.64391E+03  4.06500E+03 -1.79797E+03  4.16131E+03  8.50376E+02
  5.92646E+03  2.19578E+03  2.56085E+03  5.59246E+03 -1.77600E+03  3.77541E+03 -6.48703E+03  4.11532E+03
 -7.95407E+03 -1.41757E+03 -3.65934E+03 -3.86110E+03 -6.66709E+02 -7.76502E+03  4.01231E+03 -6.51501E+03
  5.98980E+03 -4.84597E+03  9.99834E+03  6.63040E+02  6.44894E+03  7.34772E+03  1.40472E+03  8.92804E+03
 -3.62633E+03  7.63391E+03 -4.52517E+03  1.83250E+03 -3.76487E+03 -8.72109E+02 -8.53545E+02 -1.18083E+03
 -8.18887E+02  7.68861E+02 -4.44923E+02  2.17073E+03 -3.00263E+03  1.41721E+03 -4.95183E+03 -8.64179E+02
 -2.76439E+03 -5.77640E+03  3.93183E+02 -5.99283E+03  3.80120E+03 -6.25892E+03  6.32258E+03 -2.06701E+03
  5.48362E+03  3.40786E+03  3.14672E+03  4.68199E+03 -1.56793E+03  6.61448E+03 -3.88497E+03  3.33194E+03
 -6.00212E+03  1.02688E+03 -5.41170E+03 -3.50603E+03 -1.46561E+03 -4.07142E+03  2.77546E+03 -4.43841E+03
  3.01875E+03 -2.52542E+03  1.88181E+03  9.68106E+02  9.33120E+02  2.13116E+03  1.09581E+03  1.33949E+03
  2.63453E+03  6.62687E+02  2.21011E+03  1.53418E+03  2.31414E+03  2.72225E+03  5.44606E+02  2.08252E+03
 -2.60772E+03  4.20650E+03 -4.26012E+03  5.61635E+03 -5.46736E+03  1.97516E+03 -5.76430E+03 -2.56409E+00
 -2.80328E+03 -5.87608E+03  1.98892E+03 -7.03173E+03  2.92844E+03 -4.05839E+03  5.00198E+03 -3.73171E+02
  3.19032E+03  2.70806E+03  8.08980E+02  3.64953E+03 -2.42489E+03  1.39772E+03 -1.99095E+03 -8.88770E+02
 -8.64015E+02 -6.79497E+02  1.90818E+03 -2.41525E+03  2.37791E+03 -8.03085E+02  2.76552E+03  6.48472E+02
  1.87179E+03  8.83233E+02  2.18311E+03  1.15435E+02 -3.45133E+02  1.26067E+03  8.41965E+02 -9.39967E+02
 -1.61599E+02  3.13625E+02  2.63955E+03  9.09193E+02  4.12291E+02  3.84639E+03  3.52481E+02  4.81753E+03
 -2.73730E+03  1.16620E+03 -4.12716E+03 -1.35891E+02 -3.63813E+03 -1.38909E+03 -7.35619E+02 -1.47106E+03
  8.60832E+02 -2.13462E+03  2.18869E+03 -9.81397E+02  1.11488E+03  1.46490E+03 -1.31461E+03  1.93499E+03
 -8.61927E+02  6.86059E+02 -2.35000E+03 -1.04760E+03 -3.99704E+02 -3.76934E+03 -6.51242E+02 -3.56887E+03
 -1.85356E+02 -1.08373E+03  1.05992E+03 -9.54723E+01  2.30733E+03  6.02866E+02 -3.15413E+02  1.50990E+03
  6.60057E+01 -2.33129E+00 -1.21759E+03  4.04871E+02  6.42105E+02 -1.09929E+03  8.57377E+02 -1.17545E+03
  3.07176E+03  3.29691E+02  3.99776E+03  1.94387E+03  9.47748E+02  1.45633E+03 -8.32282E+02  3.67120E+03
 -2.92821E+03  1.22482E+03 -2.08648E+03  3.04541E+02 -1.11358E+03 -1.54628E+03  3.17902E+02 -1.97201E+03
  2.93874E+03 -8.22642E+02  9.94161E+02  6.45009E+02  7.60304E+02  1.51085E+03  1.25146E+02  1.62711E+03
  2.39198E+02  1.06633E+03 -4.16568E+02 -7.75576E+02 -1.16210E+03  1.14532E+03 -4.06260E+02  4.74256E+02
 -3.83400E+02  1.44398E+03 -2.91031E+03  8.19737E+02 -2.45598E+03 -1.56509E+02 -4.35311E+03 -6.65408E+02
 -1.48617E+03 -4.45014E+03  2.20211E+03 -4.40403E+03  3.11119E+03 -3.78155E+03  5.54352E+03 -2.01959E+03
  4.08089E+03  4.49471E+02  2.58394E+03  2.35612E+03  3.09720E+02  2.59465E+03 -3.47439E+02  1.83825E+03
 -1.19607E+03  1.63919E+03 -5.20788E+02 -9.84856E+02 -3.45303E+02 -4.21487E+02 -7.31212E+02  4.81197E+02
 -1.73798E+03 -6.98328E+01 -1.75834E+03 -1.34177E+03 -6.16088E+01 -5.52441E+02 -5.39355E+02 -1.50541E+02
  1.89341E+03 -4.17114E+02  2.04524E+03 -1.45070E+02  2.15229E+03  1.56640E+03 -2.30161E+02  1.38479E+03
 -2.24290E+03  2.47231E+03 -3.30787E+03  2.67741E+03 -2.50613E+03 -6.90341E+02 -2.33699E+03 -1.88086E+03
 -1.71158E+03 -2.38512E+03  2.11354E+02 -3.03267E+03  7.17010E+02 -9.32826E+02  7.97173E+02  2.40902E+02
  1.24171E+03  4.62589E+02 -9.55776E+02  8.87688E+02 -4.06665E+01 -8.63208E+02 -9.34865E+02 -3.43133E+02
  2.17981E+03 -1.22863E+02  1.28801E+03  1.43257E+03  3.88966E+02  1.21859E+03  7.31722E+02  8.63397E+02
 -1.81862E+02 -4.46111E+01 -1.21306E+03  1.18515E+03 -1.47715E+03 -3.77069E+02 -1.28843E+03 -1.93085E+03
  1.16089E+03 -2.26455E+03  1.08328E+03 -4.06407E+02  1.54554E+03  1.49505E+02  1.89723E+03  1.12654E+03
  1.60824E+03  6.36829E+02 -2.08236E+02  1.14651E+03 -3.31955E+02  1.43125E+03 -8.57640E+02 -2.37660E+02
 -5.38870E+02 -1.26442E+02 -8.82467E+02 -7.17732E+02 -1.71443E+02 -8.37067E+02 -1.01733E+03 -9.21692E+02
 -1.97830E+03  1.45841E+02  4.70184E+01 -1.22956E+03  1.18703E+03 -2.28353E+03  1.68742E+03 -2.10791E+02
  1.62592E+03  4.19102E+02 -2.32968E+02 -1.65795E+02  4.27602E+02  6.14865E+02 -2.64258E+02  5.53421E+02
