 $NMID ID='MM_0lb_SNR200_7hz_g50_35.RAW', FMTDAT='(8E13.5)'
 TRAMP=1., VOLUME=1. $END
  3.10105E+05  1.45108E+03  3.38112E+05  2.52308E+05  8.40310E+04  3.37788E+05 -1.32104E+05  2.52310E+05
 -1.88698E+05  8.36575E+04 -1.13580E+05 -3.25561E+04  1.66689E+03 -5.19369E+04  5.49230E+04 -3.30887E+02
  3.58759E+04  5.30350E+04 -1.82179E+04  7.72794E+04 -5.99002E+04  6.41635E+04 -8.45755E+04  3.26437E+04
 -8.35367E+04 -1.16120E+04 -5.77959E+04 -5.37965E+04 -1.49201E+04 -6.92599E+04  3.06157E+04 -4.71809E+04
  4.02205E+04  2.85086E+03  1.72334E+04  4.97998E+04 -3.51214E+04  4.81082E+04 -6.93067E+04  8.10723E+02
 -5.44316E+04 -5.72339E+04 -7.71935E+03 -8.06688E+04  3.51188E+04 -5.65357E+04  5.28284E+04 -1.84488E+04
  4.67843E+04  1.15272E+04  3.19124E+04  2.85006E+04  1.63191E+04  2.98287E+04 -8.52793E+03  2.68788E+04
 -2.12178E+04  9.09782E+03 -1.85168E+04 -6.16331E+03  7.26422E+03 -8.89255E+03  2.45863E+04  1.61773E+04
  6.10656E+03  3.76127E+04 -3.39636E+04  3.82471E+04 -6.58603E+04  1.42947E+03 -5.95919E+04 -4.54808E+04
 -1.20313E+04 -6.74209E+04  4.32001E+04 -4.82720E+04  6.14161E+04 -1.77593E+03  3.82740E+04  3.37664E+04
 -5.16106E+03  4.00773E+04 -3.09707E+04  2.08065E+04 -3.44753E+04 -2.40087E+03 -2.07730E+04 -1.41180E+04
 -1.16764E+04 -1.77662E+04 -8.68512E+01 -2.05927E+04  6.62185E+03 -2.30023E+04  1.75627E+04 -1.32593E+04
  8.80956E+03  8.59127E+03 -1.19346E+04  1.20950E+04 -2.35376E+04 -7.85737E+03 -7.63605E+03 -3.71222E+04
  2.55239E+04 -4.83843E+04  5.36834E+04 -2.16871E+04  5.14471E+04  2.15001E+04  1.73931E+04  4.88428E+04
 -1.86553E+04  3.59682E+04 -2.93235E+04  4.07123E+03 -1.30501E+04 -3.08752E+04  2.27660E+04 -3.85810E+04
  4.63534E+04 -1.34517E+04  4.40542E+04  2.53113E+04  2.39254E+04  5.34034E+04 -8.60021E+03  5.88759E+04
 -3.63595E+04  4.05268E+04 -4.76306E+04  1.31479E+04 -5.06459E+04 -1.94449E+04 -2.72343E+04 -4.51615E+04
  8.04916E+03 -4.45449E+04  3.47104E+04 -1.72677E+04  3.36313E+04  1.01672E+04  5.45084E+03  2.17530E+04
 -1.47741E+04  9.57108E+03 -1.31874E+04 -7.08650E+03  4.41300E+03 -1.17391E+04  1.77885E+04  4.87243E+03
  1.57997E+04  2.25372E+04 -4.82897E+03  2.56101E+04 -2.29728E+04  1.53549E+04 -3.47371E+04 -4.66711E+01
 -2.84007E+04 -1.84242E+04 -1.29006E+04 -2.68119E+04  4.19525E+03 -2.94182E+04  2.23517E+04 -2.41867E+04
  3.40842E+04 -1.57334E+04  3.92106E+04  4.37801E+03  2.91826E+04  2.62659E+04  5.37042E+03  4.25829E+04
 -2.08788E+04  3.58023E+04 -3.15104E+04  1.26325E+04 -2.50931E+04 -9.00597E+03 -4.81748E+03 -1.30365E+04
 -5.83143E+02  2.30758E+02 -8.87295E+03  8.27492E+03 -2.29523E+04  7.01838E+03 -2.20396E+04 -1.01403E+04
 -1.17602E+04 -2.48813E+04  5.08553E+03 -2.83081E+04  2.10699E+04 -2.12170E+04  2.50067E+04 -2.76727E+03
  1.63990E+04  1.88605E+04  8.61356E+02  2.69924E+04 -1.89835E+04  1.42668E+04 -2.67606E+04 -4.81534E+03
 -1.98871E+04 -2.31125E+04 -2.19327E+03 -2.95140E+04  1.29878E+04 -2.63838E+04  2.34986E+04 -1.21717E+04
  2.21681E+04  2.19631E+02  1.68235E+04  6.78346E+03  9.54896E+03  1.65613E+03  1.31232E+04 -2.40473E+03
  2.35872E+04  2.71333E+03  2.78999E+04  2.07145E+04  1.90540E+04  4.07554E+04 -2.51732E+03  4.87591E+04
 -2.68322E+04  4.19752E+04 -4.64047E+04  2.21713E+04 -4.86360E+04 -3.88291E+03 -4.18018E+04 -2.85562E+04
 -1.51608E+04 -4.15819E+04  1.57923E+04 -3.59872E+04  2.95459E+04 -1.57752E+04  2.68995E+04  8.69446E+03
  6.56604E+03  1.93184E+04 -1.16802E+04  1.71155E+04 -2.24308E+04  1.40163E+03 -1.72448E+04 -1.56405E+04
  6.41361E+02 -2.10047E+04  1.01284E+04 -1.52819E+04  1.33896E+04 -3.95453E+02  3.78765E+03  9.74254E+03
 -9.22310E+03  5.56193E+03 -8.15889E+03 -8.59817E+03 -1.59009E+03 -2.07563E+04  1.46814E+04 -2.13344E+04
  2.50443E+04 -1.26140E+04  3.05459E+04  2.80073E+03  2.66538E+04  2.22071E+04  1.18614E+04  3.31464E+04
 -5.54501E+03  3.43166E+04 -2.39092E+04  2.15715E+04 -2.69030E+04  3.75171E+03 -1.80677E+04 -6.79560E+03
 -5.46252E+03 -9.90275E+03 -1.43540E+03 -1.13627E+03 -3.51538E+03  2.93631E+03 -7.65480E+03  7.12560E+03
 -1.62083E+04 -1.91553E+02 -1.62003E+04 -1.30755E+04 -6.49008E+03 -2.30025E+04  5.79921E+03 -1.88388E+04
  1.46903E+04 -7.54665E+03  1.12318E+04  3.51190E+03 -4.82371E+00  8.20060E+03 -7.94694E+03  8.99458E+02
 -9.88314E+03 -1.05120E+04 -1.59857E+03 -1.74138E+04  1.21256E+04 -1.95579E+04  2.36873E+04 -8.66084E+03
  2.67873E+04  2.57416E+03  2.05844E+04  1.69313E+04  5.03819E+03  2.31211E+04 -9.71952E+03  1.67927E+04
 -1.48211E+04  5.97311E+03 -6.10045E+03 -5.44510E+03  1.90819E+03 -4.93588E+03  8.85433E+03 -1.26203E+03
  8.87045E+03  8.46550E+03 -4.99522E+02  1.50273E+04 -1.15427E+04  1.49622E+04 -1.64998E+04  2.99132E+03
 -1.13538E+04 -1.08401E+04  2.71959E+02 -1.70459E+04  7.96439E+03 -8.91472E+03  1.16896E+04  5.74326E+03
  1.35902E+03  1.02406E+04 -9.98398E+03  1.41619E+04 -1.81093E+04  6.09159E+03 -1.70744E+04 -6.74758E+03
 -9.44959E+03 -1.82678E+04  4.36075E+03 -2.11268E+04  1.65860E+04 -1.26077E+04  2.07672E+04  5.18478E+03
  1.06992E+04  1.66385E+04 -1.48529E+03  1.93115E+04 -1.27450E+04  9.89770E+03 -1.50429E+04 -2.17576E+03
 -1.25885E+04 -1.27808E+04 -3.34711E+03 -1.48584E+04  7.85423E+03 -1.09913E+04  7.33902E+03 -2.18580E+03
  6.30999E+03  3.21667E+03 -2.34235E+03  4.34145E+03 -8.62847E+02 -5.46681E+03  4.25633E+03 -9.02300E+03
  1.51843E+04 -7.77093E+03  1.84116E+04  3.10767E+03  1.91799E+04  1.65500E+04  1.28722E+04  2.66390E+04
 -6.87394E+03  2.76064E+04 -2.63489E+04  2.06225E+04 -3.19985E+04  4.83235E+03 -2.62608E+04 -1.15772E+04
 -1.29316E+04 -1.93278E+04  4.21190E+02 -1.93491E+04  6.66318E+03 -1.14571E+04  4.98013E+03 -5.51091E+03
  4.39932E+03 -4.70843E+03  1.75244E+03 -3.36241E+03  7.75741E+03 -3.93130E+03  8.37318E+03 -2.14609E+03
  1.30792E+04  2.08231E+03  7.89607E+03  1.20584E+04 -3.19090E+03  1.53075E+04 -1.49422E+04  1.20635E+04
 -1.72986E+04 -2.45411E+03 -1.02332E+04 -1.33947E+04 -9.26693E+02 -2.03611E+04  9.25081E+03 -1.88957E+04
  2.08457E+04 -1.06880E+04  2.26105E+04  5.38456E+03  1.47344E+04  1.82050E+04  4.04986E+03  2.04677E+04
 -9.97925E+03  1.67521E+04 -1.43140E+04  4.42444E+03 -1.02761E+04 -8.45299E+02 -1.86774E+03 -1.26183E+03
 -7.16584E+02  5.09686E+02 -1.22960E+03  3.18002E+03 -8.56635E+03  2.22344E+03 -1.32448E+04 -2.38169E+03
 -1.05266E+04 -1.21249E+04 -1.33817E+03 -1.86186E+04  1.31349E+04 -1.72731E+04  1.88593E+04 -5.10776E+03
  1.86523E+04  1.01265E+04  8.00692E+03  1.62494E+04 -3.93951E+03  1.99940E+04 -1.34822E+04  1.11883E+04
 -1.91899E+04  3.95403E+02 -1.39042E+04 -1.36238E+04 -2.77690E+01 -1.55074E+04  9.46368E+03 -1.21892E+04
  1.25711E+04 -4.55214E+03  8.85056E+03  4.19434E+03  1.37153E+03  5.80359E+03  3.28632E+03  3.55417E+03
  3.91984E+03  2.09011E+03  3.13181E+03  1.88962E+03  6.06782E+03  7.08031E+03  4.47168E+03  9.71479E+03
 -2.54642E+03  1.47462E+04 -1.39357E+04  1.45264E+04 -1.95251E+04  4.15080E+03 -2.12712E+04 -1.13773E+04
 -1.23699E+04 -1.87007E+04  2.05996E+03 -2.21942E+04  1.19944E+04 -1.40724E+04  1.51410E+04 -3.87687E+03
  1.14807E+04  5.88138E+03  5.37227E+02  1.27098E+04 -4.85437E+03  6.46863E+03 -9.12689E+03 -3.65094E+02
 -3.16908E+03 -1.04348E+04  2.35192E+03 -9.09270E+03  8.09006E+03 -4.67682E+03  6.81382E+03  4.03739E+03
  4.20941E+03  4.46409E+03  2.16783E+03  3.86965E+03  3.67459E+02  4.26466E+03  1.90507E+03 -2.26670E+03
  3.92236E+03 -7.50385E+01  7.30499E+03  4.53890E+03  5.12129E+03  1.07542E+04 -2.49650E+03  1.46665E+04
 -9.27151E+03  8.68371E+03 -1.34957E+04  1.66674E+03 -1.16176E+04 -4.19169E+03 -4.47487E+03 -7.59464E+03
 -6.62070E+02 -5.44684E+03  5.24909E+03 -3.68070E+03  2.19559E+03  3.14928E+03 -3.21897E+03  6.22618E+03
 -8.47780E+03  5.09716E+03 -7.46856E+03 -4.70687E+03 -4.55744E+03 -1.11364E+04  1.79069E+03 -1.11409E+04
  7.51165E+03 -6.84797E+03  7.76503E+03 -1.73464E+02  6.26432E+03  3.67970E+03  1.11637E+02  5.33315E+03
 -4.36435E+03  1.92407E+03 -4.25758E+03 -3.90803E+03  3.29014E+03 -9.30489E+03  1.10057E+04 -8.03689E+03
  1.31399E+04 -2.72929E+02  1.19319E+04  8.77061E+03  4.67574E+03  1.48085E+04 -4.04928E+03  1.30158E+04
 -1.14517E+04  5.70875E+03 -1.23565E+04 -1.04940E+03 -5.93546E+03 -1.00838E+04  2.70290E+03 -9.02673E+03
  9.01926E+03 -5.57962E+03  7.09969E+03  4.03920E+03  2.60877E+03  7.22400E+03 -1.81774E+03  7.71009E+03
 -4.20753E+03  4.57508E+03 -3.21986E+03  3.78296E+02 -1.73794E+03  3.31371E+02 -1.95813E+03  2.23163E+03
 -4.02025E+03  4.34054E+03 -9.39717E+03  4.73425E+03 -1.55611E+04  5.55809E+02 -1.56019E+04 -9.74003E+03
 -9.06394E+03 -1.83525E+04  4.03981E+03 -2.03762E+04  1.12960E+04 -1.59262E+04  2.04717E+04 -7.66599E+03
  1.90814E+04  2.20961E+03  1.10480E+04  1.29958E+04  8.20331E+02  1.37453E+04 -8.78662E+03  1.00193E+04
 -8.28177E+03  4.78086E+03 -4.29562E+03 -1.05648E+03 -1.63382E+03 -2.27237E+03  7.89805E+02 -1.60333E+03
 -2.07809E+03 -7.61898E+01 -2.59344E+03 -1.59203E+02 -5.17163E+02 -3.09443E+03  1.54509E+03 -6.49846E+03
  4.95991E+03 -4.54661E+03  1.20161E+04  1.66569E+02  8.78296E+03  7.26013E+03  1.98296E+03  1.58705E+04
 -5.45113E+03  1.66965E+04 -1.57916E+04  9.24002E+03 -1.89714E+04 -2.97839E+03 -1.27801E+04 -1.15213E+04
 -5.74627E+03 -1.67647E+04  3.22907E+03 -1.59050E+04  9.17839E+03 -6.46774E+03  9.49742E+03 -5.46407E+02
  5.90838E+03  5.25852E+03  1.62779E+03  3.60595E+03 -2.12128E+03  6.91340E+02  1.86266E+03 -3.09380E+03
  6.02819E+03 -3.23942E+03  7.41258E+03  9.62625E+02  3.54642E+03  5.72507E+03 -5.13189E+02  8.34117E+03
 -5.79426E+03  7.01648E+03 -1.08061E+04  1.19191E+03 -9.02296E+03 -8.45032E+03 -1.49404E+03 -1.29652E+04
  7.33009E+03 -1.26984E+04  1.23848E+04 -3.56745E+03  1.11293E+04  2.99887E+03  8.23118E+03  1.04322E+04
  2.69244E+03  1.06968E+04 -3.61885E+03  9.25241E+03 -5.17637E+03  6.87474E+03 -6.01684E+03  1.84979E+03
 -2.93671E+03  1.25998E+01 -2.14229E+03  6.39874E+02 -3.87459E+03  2.07469E+03 -8.19422E+03 -2.48217E+03
 -5.62291E+03 -7.13116E+03 -7.87422E+02 -9.99686E+03  4.29650E+03 -1.04201E+04  9.74989E+03 -5.55922E+03
  1.02595E+04  1.14708E+03  6.59105E+03  7.06951E+03 -9.59175E+02  1.07781E+04 -7.26853E+03  8.09791E+03
