 $NMID ID='MM_0lb_SNR200_14hz_g45_68.RAW', FMTDAT='(8E13.5)'
 TRAMP=1., VOLUME=1. $END
  3.09471E+05  4.98443E+02  3.37708E+05  2.51133E+05  8.53454E+04  3.37423E+05 -1.33607E+05  2.50869E+05
 -1.90533E+05  8.17304E+04 -1.12216E+05 -3.18407E+04  1.53035E+03 -5.02440E+04  5.39466E+04 -7.87591E+02
  3.48648E+04  5.31818E+04 -1.67153E+04  7.51643E+04 -6.10274E+04  6.36973E+04 -8.43671E+04  3.27862E+04
 -8.12720E+04 -1.15287E+04 -5.76555E+04 -5.03167E+04 -1.51364E+04 -6.93817E+04  2.76966E+04 -4.50775E+04
  3.98567E+04  3.72715E+03  1.60049E+04  4.74304E+04 -3.37457E+04  4.73897E+04 -6.67823E+04  3.36046E+02
 -5.37346E+04 -5.77776E+04 -6.78130E+03 -7.70415E+04  3.47225E+04 -5.56198E+04  4.82941E+04 -1.60974E+04
  4.29487E+04  1.21978E+04  3.16700E+04  2.52606E+04  1.62242E+04  2.97317E+04 -5.21314E+03  2.58573E+04
 -2.12356E+04  1.25727E+04 -1.82256E+04 -5.59957E+03  5.56490E+03 -7.87846E+03  2.19453E+04  1.26875E+04
  8.55742E+03  3.38138E+04 -3.06648E+04  3.49288E+04 -6.21770E+04  1.67381E+03 -5.69150E+04 -4.25527E+04
 -1.19314E+04 -6.26555E+04  3.88597E+04 -4.41382E+04  5.71847E+04 -3.16811E+03  3.41914E+04  3.27308E+04
 -5.18269E+03  3.57564E+04 -2.83997E+04  1.65727E+04 -2.95834E+04 -6.57989E+03 -1.58685E+04 -1.06233E+04
 -7.98138E+03 -1.31183E+04 -1.01285E+03 -1.72064E+04  7.81306E+03 -2.24611E+04  1.57363E+04 -1.41700E+04
  1.16216E+04  6.10797E+03 -7.41959E+03  1.20898E+04 -2.14192E+04 -3.66299E+03 -8.30293E+03 -3.46469E+04
  2.30520E+04 -4.17586E+04  4.82632E+04 -1.85652E+04  4.59988E+04  1.85822E+04  1.58233E+04  4.37941E+04
 -1.63579E+04  3.35267E+04 -2.34301E+04  1.16743E+03 -8.55939E+03 -2.84312E+04  1.95474E+04 -3.33346E+04
  4.08523E+04 -8.75103E+03  3.52525E+04  2.40478E+04  1.73899E+04  4.50469E+04 -7.66435E+03  4.91181E+04
 -3.17716E+04  3.15342E+04 -4.33414E+04  9.39458E+03 -4.22372E+04 -1.74015E+04 -2.25039E+04 -3.76959E+04
  7.73573E+03 -3.71389E+04  3.02031E+04 -1.35828E+04  2.87715E+04  1.04700E+04  3.51694E+03  1.88924E+04
 -1.36867E+04  7.93126E+03 -1.00352E+04 -7.04504E+03  6.82801E+03 -1.09988E+04  1.67851E+04  5.68475E+03
  1.33749E+04  2.20420E+04 -6.83104E+03  2.46249E+04 -2.17600E+04  1.20274E+04 -2.80593E+04 -5.18837E+03
 -1.97894E+04 -1.71027E+04 -8.19654E+03 -2.04311E+04  4.68002E+03 -1.86541E+04  1.47467E+04 -1.75607E+04
  2.59106E+04 -1.33089E+04  3.26616E+04  2.60564E+03  2.36975E+04  1.96911E+04  3.39192E+03  3.59943E+04
 -1.69687E+04  3.03244E+04 -2.74885E+04  8.28874E+03 -2.13885E+04 -9.42890E+03 -3.97270E+03 -1.28549E+04
  2.77582E+03 -3.55135E+03 -5.36433E+03  6.56216E+03 -1.56589E+04  4.50703E+03 -1.57530E+04 -6.61889E+03
 -1.03525E+04 -1.98398E+04  5.01203E+03 -2.28448E+04  1.59144E+04 -1.65759E+04  1.82529E+04 -8.49407E+02
  1.07986E+04  1.39234E+04 -2.74642E+02  1.89199E+04 -1.35754E+04  9.85700E+03 -1.83394E+04 -3.66923E+03
 -1.41983E+04 -1.65615E+04 -1.43362E+03 -2.23086E+04  9.18620E+03 -1.76349E+04  1.87586E+04 -9.98846E+03
  1.65484E+04 -1.14249E+03  1.25503E+04  4.46442E+03  5.54161E+03  7.80275E+02  1.04883E+04 -1.27022E+03
  1.68084E+04  3.30643E+03  2.02969E+04  1.41497E+04  1.20447E+04  2.91344E+04 -2.87867E+03  3.28522E+04
 -1.96356E+04  2.74170E+04 -2.96661E+04  1.31567E+04 -3.26818E+04 -1.11422E+03 -2.66369E+04 -1.78728E+04
 -1.23129E+04 -2.71613E+04  9.17020E+03 -2.58017E+04  2.03932E+04 -1.31311E+04  1.76626E+04  5.16222E+03
  6.96200E+03  1.42347E+04 -8.51819E+03  1.15034E+04 -1.58288E+04  2.81943E+03 -1.22464E+04 -1.09581E+04
  3.00750E+02 -1.51814E+04  7.93310E+03 -1.10355E+04  9.90621E+03 -2.07790E+03  2.64714E+03  6.07424E+03
 -6.43889E+03  2.61061E+03 -5.82088E+03 -5.51810E+03 -1.21650E+03 -1.36438E+04  1.00589E+04 -1.47043E+04
  1.66411E+04 -7.60043E+03  1.78287E+04  4.72976E+03  1.56882E+04  1.28115E+04  7.81054E+03  1.89690E+04
 -2.65885E+03  2.04268E+04 -1.40951E+04  1.28642E+04 -1.58553E+04  4.35555E+03 -1.01663E+04 -3.15485E+03
 -5.11171E+03 -5.21671E+03  2.58886E+02  9.42777E+02 -2.33964E+03  2.72913E+03 -4.89333E+03  4.52579E+03
 -9.63697E+03 -7.57804E+02 -1.16407E+04 -7.62608E+03 -4.46283E+03 -1.44152E+04  5.66899E+03 -1.23302E+04
  9.67643E+03 -4.91954E+03  8.05851E+03  2.84296E+03  9.34158E+02  3.80389E+03 -5.05819E+03 -6.89358E+02
 -5.35016E+03 -6.27591E+03  4.29622E+02 -1.00964E+04  5.77185E+03 -1.14150E+04  1.39174E+04 -4.98398E+03
  1.55831E+04  1.80743E+03  1.14930E+04  9.64881E+03  2.52643E+03  1.24206E+04 -7.33305E+03  1.09301E+04
 -8.73933E+03  4.71277E+03 -4.05200E+03 -2.23062E+03  1.44500E+03 -3.11477E+03  6.77785E+03 -5.42082E+02
  5.37064E+03  3.48992E+03  2.04141E+03  7.46640E+03 -7.40061E+03  8.60009E+03 -9.46723E+03  1.19254E+03
 -8.02688E+03 -4.71361E+03  7.96766E+02 -8.26216E+03  6.16330E+03 -4.65428E+03  7.12720E+03  3.11479E+03
  2.22706E+03  5.18851E+03 -5.68135E+03  6.57197E+03 -8.21445E+03  2.97658E+03 -8.01700E+03 -4.27608E+03
 -4.78795E+03 -9.27887E+03  3.47786E+03 -1.14943E+04  9.69682E+03 -6.85189E+03  1.06946E+04  1.54259E+03
  7.60668E+03  8.02583E+03 -7.88832E+02  1.04906E+04 -7.46300E+03  5.76475E+03 -8.46345E+03 -7.84980E+02
 -7.76845E+03 -7.66460E+03 -1.52168E+03 -7.23087E+03  3.30001E+03 -6.74069E+03  4.61835E+03 -4.01614E+03
  3.03588E+03 -3.09067E+02 -1.16426E+03  2.13242E+03 -2.02906E+02 -1.08403E+03  4.58711E+02 -4.09811E+03
  6.53020E+03 -2.06866E+03  8.18260E+03  1.42071E+03  8.07323E+03  6.39333E+03  7.57286E+03  1.11529E+04
 -2.47232E+03  1.40092E+04 -1.19287E+04  1.18156E+04 -1.47201E+04  9.50437E+02 -1.20546E+04 -5.38046E+03
 -6.40162E+03 -9.52953E+03 -7.02365E+01 -8.59628E+03  2.09486E+03 -4.31143E+03  1.79997E+03 -3.53988E+03
  2.02436E+03 -2.08082E+03  1.76126E+03 -4.05499E+03  3.04322E+03 -1.97486E+03  6.12507E+03 -6.37803E+02
  7.69847E+03  2.27107E+03  2.10112E+03  5.91424E+03 -1.57721E+03  4.71545E+03 -7.62525E+03  4.39407E+03
 -7.60475E+03 -1.46042E+03 -4.66150E+03 -6.23786E+03 -2.87974E+02 -8.31530E+03  4.52140E+03 -9.80655E+03
  9.19136E+03 -5.70495E+03  1.16766E+04  1.33640E+03  8.55537E+03  8.07440E+03  9.24857E+02  9.44990E+03
 -3.47114E+03  1.04948E+04 -5.97702E+03  2.67914E+03 -3.77526E+03 -2.24278E+03 -1.94566E+03 -7.66079E+02
  2.42670E+01  1.68679E+02 -2.62306E+03  2.24271E+03 -3.15714E+03  4.68249E+02 -6.29598E+03  6.34615E+02
 -3.67832E+03 -7.11021E+03  7.76788E+02 -8.23892E+03  4.13056E+03 -8.05994E+03  7.76003E+03 -6.21851E+02
  6.99900E+03  4.05954E+03  3.40638E+03  5.49041E+03 -1.15603E+03  7.97232E+03 -6.26515E+03  3.90870E+03
 -8.08820E+03  6.44162E+02 -5.44056E+03 -5.15117E+03 -9.58688E+02 -5.70985E+03  2.72756E+03 -4.63281E+03
  5.08888E+03 -1.29503E+03  3.75366E+03  1.63319E+03  1.38299E+03  2.19210E+03  1.10746E+03  2.13313E+03
  2.96296E+03 -1.16210E+01  1.52833E+03  8.09083E+02  2.76082E+03  3.10119E+03  2.99363E+03  3.42606E+03
 -2.24578E+03  5.43453E+03 -4.77624E+03  5.71331E+03 -7.06522E+03  1.59233E+03 -7.57633E+03 -3.72212E+03
 -2.42591E+03 -5.54024E+03  9.99548E+02 -8.28381E+03  4.14266E+03 -4.39976E+03  5.42531E+03 -6.12040E+02
  4.79010E+03  2.68947E+03  1.41763E+03  5.65390E+03 -9.74694E+02  3.90419E+03 -2.34599E+03 -1.00798E+03
 -1.01648E+03 -2.52825E+03  2.37106E+03 -4.32798E+03  2.57238E+03 -2.03196E+03  1.80982E+03  4.59490E+02
  2.12591E+03  9.89029E+02  2.51002E+02  1.38658E+03 -1.03503E+03  2.29283E+03  1.02372E+03 -3.15844E+02
  5.24577E+02 -5.79287E+02  3.95024E+03  1.67216E+03  1.38926E+03  3.38751E+03 -2.59745E+02  4.06032E+03
 -2.60692E+03  2.99682E+03 -4.22725E+03  5.46609E+02 -4.79397E+03 -1.96825E+03 -1.29541E+03 -3.56429E+03
  7.90414E+02 -3.66038E+03  2.52726E+03 -2.29476E+03  1.90526E+03  2.10946E+03 -1.80382E+02  1.91471E+03
 -2.10095E+03  1.31427E+03 -3.95879E+03 -2.08869E+03 -3.41794E+03 -4.76742E+03 -3.19133E+02 -4.52395E+03
  1.89878E+03 -3.40508E+03  2.73430E+03 -1.15894E+03  2.14199E+03  9.10276E+02  8.35248E+01  1.02646E+03
 -2.42300E+03  1.32357E+03 -2.85083E+03 -6.03139E+02  4.38534E+02 -3.21105E+03  3.03380E+03 -2.07653E+03
  3.31486E+03  1.12890E+03  3.79049E+03  3.02017E+03  1.88150E+03  3.23243E+03 -1.87044E+03  3.45098E+03
 -3.43106E+03  1.22301E+03 -2.66051E+03 -8.48803E+02 -1.30142E+03 -2.76453E+03 -6.32328E+02 -2.01943E+03
  1.02029E+03 -7.41950E+02  1.80232E+03  1.47256E+03  1.20454E+03  2.51050E+03 -2.55294E+02  2.50388E+03
 -7.30735E+02  2.53376E+03 -1.40817E+03  1.41945E+03  2.59612E+02  6.59891E+02 -7.64781E+02  8.91563E+02
 -2.32673E+02  1.47477E+03 -3.08281E+03  1.39970E+03 -4.39760E+03 -8.72310E+02 -5.37747E+03 -1.76327E+03
 -1.91768E+03 -4.65800E+03  1.33063E+03 -7.57056E+03  3.36702E+03 -4.58843E+03  5.56565E+03 -3.13843E+03
  5.37829E+03  9.77087E+01  2.17054E+03  3.60224E+03 -3.02695E+02  3.50120E+03 -1.48682E+03  3.34009E+03
 -3.21797E+03  1.50571E+03 -8.19976E+02 -7.11835E+02 -1.91687E+03 -1.04345E+02 -6.34229E+02 -2.92422E+02
 -1.22152E+03  6.87003E+02 -2.05085E+03  4.80266E+02  3.78934E+02 -5.63006E+02 -1.30043E+02 -1.71141E+03
  2.64143E+03 -1.15420E+03  1.74749E+03 -2.30593E+01  3.47581E+03  1.96757E+03  7.96223E+02  5.15697E+03
 -3.24668E+03  5.45852E+03 -3.99356E+03  3.54931E+03 -4.61641E+03 -1.15303E+02 -4.36791E+03 -1.91658E+03
 -2.16500E+03 -4.66165E+03  7.96693E+02 -2.24674E+03  2.32854E+03 -2.17008E+03  1.02666E+03  2.66171E+02
  9.81608E+02  7.88926E+02 -3.32335E+02  1.68461E+03 -2.01147E+03 -4.58517E+02  4.77018E+02 -2.49870E+02
  5.19523E+02 -7.95473E+01  7.32086E+02  5.30573E+02  1.95222E+03  7.33352E+02  1.46655E+03  1.91294E+03
 -2.04406E+03  8.71748E+02 -2.73260E+03  5.86614E+02 -2.50909E+03 -2.98040E+03 -1.34667E+03 -3.40942E+03
  2.00528E+03 -2.47850E+03  2.00768E+03 -1.10366E+03  3.97737E+03 -7.04955E+02  1.27157E+03  2.46695E+03
  1.14378E+03  1.08824E+03 -1.26799E+03  2.86521E+03 -2.96307E+02  1.05294E+03 -3.17738E+02  5.50941E+02
 -3.77182E+02 -1.06914E+03 -1.00401E+03  1.53623E+02 -2.38905E+01  9.75682E+01 -1.92752E+03 -3.72576E+02
 -2.46342E+03 -2.66877E+02 -9.18555E+02 -1.72463E+03  1.48379E+03 -3.15073E+03  2.41035E+03 -1.24740E+03
  1.26149E+03 -1.57413E+02  8.84648E+02  1.66225E+03 -5.54523E+02  1.45059E+03 -2.95097E+02  1.72232E+03
