 $NMID ID='MM_0lb_SNR200_11hz_g60_27.RAW', FMTDAT='(8E13.5)'
 TRAMP=1., VOLUME=1. $END
  3.09975E+05  7.24700E+02  3.38327E+05  2.49359E+05  8.56478E+04  3.38535E+05 -1.33726E+05  2.51661E+05
 -1.91286E+05  8.50412E+04 -1.13311E+05 -3.26891E+04  6.56393E+02 -4.86736E+04  5.21640E+04 -7.37194E+02
  3.32232E+04  5.27360E+04 -1.61993E+04  7.52886E+04 -6.20328E+04  6.43401E+04 -8.53260E+04  3.28190E+04
 -8.20279E+04 -1.10975E+04 -5.79988E+04 -5.10635E+04 -1.55547E+04 -7.15711E+04  2.78238E+04 -4.74856E+04
  4.12698E+04  3.43191E+03  1.62928E+04  4.95568E+04 -3.51728E+04  4.85297E+04 -6.80903E+04 -2.61823E+02
 -5.46158E+04 -5.76258E+04 -7.11724E+03 -7.83264E+04  3.42905E+04 -5.68520E+04  4.98204E+04 -1.92611E+04
  4.44319E+04  1.18706E+04  3.22071E+04  2.78196E+04  1.50220E+04  3.01156E+04 -5.74385E+03  2.80989E+04
 -2.26520E+04  1.14885E+04 -1.88086E+04 -4.65520E+03  7.48162E+03 -8.52614E+03  2.41069E+04  1.47084E+04
  5.00502E+03  3.59824E+04 -3.29575E+04  3.69592E+04 -6.64385E+04  3.34311E+03 -5.73836E+04 -4.54578E+04
 -1.33900E+04 -6.49364E+04  4.20645E+04 -4.79836E+04  6.14523E+04 -3.71953E+03  3.42387E+04  3.53651E+04
 -5.77439E+03  3.84534E+04 -3.22250E+04  1.73715E+04 -3.42331E+04 -3.62398E+03 -1.90329E+04 -1.25394E+04
 -1.02187E+04 -1.34657E+04 -3.27174E+02 -1.96641E+04  7.42621E+03 -2.48048E+04  1.48733E+04 -1.35271E+04
  1.11235E+04  5.13300E+03 -1.16585E+04  1.27334E+04 -2.26190E+04 -6.02921E+03 -8.65877E+03 -3.66690E+04
  2.54381E+04 -4.53626E+04  5.15985E+04 -2.09288E+04  4.75575E+04  2.09297E+04  1.61073E+04  4.66661E+04
 -1.74204E+04  3.43890E+04 -2.81409E+04  2.81745E+03 -1.07439E+04 -2.97022E+04  2.21438E+04 -3.52456E+04
  4.35071E+04 -9.45231E+03  3.99787E+04  2.37128E+04  2.17017E+04  5.15299E+04 -9.52581E+03  5.57673E+04
 -3.49355E+04  3.77433E+04 -4.62655E+04  1.08107E+04 -4.70576E+04 -1.81944E+04 -2.52344E+04 -4.07745E+04
  7.21157E+03 -4.22408E+04  3.29378E+04 -1.75910E+04  3.12482E+04  9.73894E+03  5.11541E+03  2.16080E+04
 -1.36057E+04  1.04173E+04 -1.17282E+04 -7.65523E+03  4.21602E+03 -1.16319E+04  1.92208E+04  5.86376E+03
  1.50485E+04  2.28910E+04 -4.77904E+03  2.67266E+04 -2.26924E+04  1.29019E+04 -3.14572E+04 -3.87107E+03
 -2.50221E+04 -1.72449E+04 -1.04618E+04 -2.51073E+04  4.47250E+03 -2.36513E+04  2.01508E+04 -2.17550E+04
  2.99901E+04 -1.32582E+04  3.67962E+04  3.36473E+03  2.55585E+04  2.37854E+04  4.34385E+03  4.27315E+04
 -2.00857E+04  3.49046E+04 -2.95312E+04  1.31813E+04 -2.13119E+04 -9.41566E+03 -5.44067E+03 -1.33766E+04
  1.78841E+03 -1.31666E+03 -6.47269E+03  7.38394E+03 -1.85654E+04  4.88784E+03 -2.00674E+04 -8.67808E+03
 -1.34063E+04 -2.14636E+04  5.75843E+03 -2.71891E+04  1.87537E+04 -2.01100E+04  2.22847E+04 -1.87866E+03
  1.21101E+04  1.49816E+04 -9.32187E+01  2.20985E+04 -1.67641E+04  1.19730E+04 -2.24469E+04 -4.75865E+03
 -1.71971E+04 -2.17105E+04 -2.55465E+03 -2.70398E+04  1.27698E+04 -2.28976E+04  2.23724E+04 -9.96982E+03
  1.95800E+04  6.58317E+01  1.64067E+04  5.92421E+03  8.87837E+03  9.53786E+02  1.05134E+04 -2.22436E+03
  2.13866E+04  2.78733E+03  2.52089E+04  1.77060E+04  1.64685E+04  3.63299E+04 -2.43982E+03  4.24468E+04
 -2.33658E+04  3.60839E+04 -3.87955E+04  1.77557E+04 -4.18496E+04 -3.35071E+03 -3.38858E+04 -2.45668E+04
 -1.55116E+04 -3.60486E+04  1.24409E+04 -3.15844E+04  2.70931E+04 -1.46101E+04  2.20887E+04  6.16161E+03
  8.43133E+03  1.76503E+04 -1.11072E+04  1.45922E+04 -1.86220E+04  1.08757E+03 -1.52298E+04 -1.27829E+04
 -2.18250E+01 -1.85369E+04  1.06217E+04 -1.38411E+04  1.21346E+04 -1.09901E+01  3.71681E+03  7.14009E+03
 -8.64755E+03  4.31927E+03 -8.76744E+03 -7.15634E+03 -3.07935E+03 -1.74520E+04  9.57601E+03 -1.82104E+04
  2.08023E+04 -1.13384E+04  2.35472E+04  2.98254E+03  2.04181E+04  1.71291E+04  1.05941E+04  2.71915E+04
 -6.03796E+03  2.86311E+04 -1.97553E+04  1.81393E+04 -2.16042E+04  3.95648E+03 -1.41047E+04 -6.40960E+03
 -7.08336E+03 -7.55000E+03 -2.24832E+02  2.67062E+01 -1.24783E+03  3.16491E+03 -6.83331E+03  4.61989E+03
 -1.33720E+04 -2.15585E+02 -1.52999E+04 -1.08243E+04 -6.12579E+03 -1.70796E+04  5.84784E+03 -1.49123E+04
  1.15698E+04 -5.86209E+03  1.00847E+04  3.95945E+03 -9.13896E+02  5.59976E+03 -8.58271E+03  4.89828E+02
 -6.58418E+03 -1.03682E+04 -1.62673E+03 -1.52593E+04  7.35398E+03 -1.50392E+04  1.87396E+04 -8.42383E+03
  2.21518E+04  1.58862E+03  1.46925E+04  1.28660E+04  2.61955E+03  1.99717E+04 -8.84495E+03  1.26636E+04
 -1.17275E+04  3.80325E+03 -6.75534E+03 -3.35962E+03  9.50494E+02 -3.95578E+03  9.36496E+03 -8.14990E+02
  5.16690E+03  5.37709E+03  2.17945E+03  1.07243E+04 -7.55317E+03  1.11675E+04 -1.42826E+04  2.33442E+03
 -1.03486E+04 -7.36851E+03  2.10959E+02 -1.27452E+04  8.45790E+03 -6.93219E+03  7.85489E+03  2.68396E+03
  2.53724E+03  9.29744E+03 -7.24685E+03  1.04818E+04 -1.20792E+04  5.16676E+03 -1.23316E+04 -4.52308E+03
 -6.90712E+03 -1.50351E+04  4.19408E+03 -1.65187E+04  1.46887E+04 -9.45820E+03  1.53784E+04  2.12478E+03
  9.36629E+03  1.19760E+04 -2.49739E+03  1.53990E+04 -1.18994E+04  7.49249E+03 -1.24521E+04 -1.01646E+03
 -8.04174E+03 -8.91468E+03 -2.23588E+03 -1.24851E+04  6.40822E+03 -9.07533E+03  7.64254E+03 -3.80118E+03
  4.66432E+03  1.95170E+03 -6.09675E+02  2.07206E+03  2.68859E+02 -3.76764E+03  1.07511E+03 -6.18809E+03
  1.03442E+04 -4.27960E+03  1.40316E+04  1.39950E+03  1.42485E+04  1.01000E+04  9.55089E+03  1.72375E+04
 -4.61448E+03  2.07271E+04 -1.79889E+04  1.50644E+04 -2.25036E+04  2.31455E+03 -1.80193E+04 -8.81117E+03
 -8.35929E+03 -1.40426E+04  6.49108E+02 -1.25946E+04  6.05978E+03 -7.69602E+03  4.68737E+03 -4.14073E+03
  5.11225E+03 -2.43879E+03  3.10604E+03 -4.19238E+03  6.45401E+03 -3.69253E+03  7.43401E+03 -7.04991E+02
  1.03030E+04  1.76350E+03  5.14858E+03  8.94022E+03 -1.58084E+03  8.75171E+03 -1.03396E+04  7.59723E+03
 -1.24618E+04 -5.82311E+02 -7.62774E+03 -8.31378E+03 -4.50952E+02 -1.41267E+04  8.12420E+03 -1.38468E+04
  1.52189E+04 -7.14634E+03  1.66205E+04  3.14564E+03  1.14967E+04  1.13842E+04  1.12575E+03  1.56898E+04
 -5.94439E+03  1.15222E+04 -7.77389E+03  4.03809E+03 -6.62868E+03 -2.74760E+03 -2.42843E+03 -1.94837E+03
 -2.09062E+03  2.14170E+02 -1.45477E+03  3.59595E+03 -6.29866E+03  7.35593E+02 -8.45165E+03 -8.70456E+02
 -7.00324E+03 -7.75764E+03  6.49089E+02 -1.26030E+04  7.88779E+03 -1.11732E+04  1.26062E+04 -3.70458E+03
  1.29024E+04  5.29414E+03  7.83731E+03  1.10108E+04 -2.32462E+03  1.28952E+04 -9.20275E+03  8.22973E+03
 -9.96207E+03  2.10481E+02 -8.04751E+03 -6.73553E+03  2.45789E+02 -1.04276E+04  5.10374E+03 -6.48519E+03
  8.04101E+03 -2.57696E+03  5.28433E+03  3.24256E+03  9.85093E+02  4.88015E+03  7.16453E+02  2.33832E+03
  1.97959E+03  2.47932E+03  3.49340E+03  1.52463E+03  3.62250E+03  4.14257E+03  3.28312E+03  5.41236E+03
 -2.65282E+03  9.67597E+03 -8.00391E+03  9.55323E+03 -1.45834E+04  6.48799E+02 -1.36239E+04 -5.10190E+03
 -5.53611E+03 -1.24462E+04  5.76116E+02 -1.37675E+04  7.02384E+03 -9.26656E+03  1.14306E+04 -2.10391E+03
  6.97664E+03  5.48067E+03  1.55562E+03  6.33758E+03 -2.31573E+03  4.30717E+03 -4.56758E+03 -2.60869E+03
 -3.01189E+03 -5.93385E+03  2.32494E+03 -6.48970E+03  4.44917E+03 -1.18839E+03  5.43913E+03 -8.45636E+01
  2.48694E+03  2.57841E+03  1.17932E+03  1.97501E+03 -1.62829E+03  3.16320E+03  1.73319E+03 -7.16941E+02
  2.57887E+03 -3.76299E+02  5.79956E+03  6.53078E+02  2.25206E+03  6.16169E+03  6.12118E+01  1.01047E+04
 -4.30260E+03  5.09366E+03 -6.42990E+03  1.63957E+03 -7.15293E+03 -3.97250E+03 -1.98754E+03 -4.60072E+03
  6.90327E+02 -6.63164E+03  2.94726E+03 -1.80167E+03  2.45763E+03  3.26967E+03 -1.00876E+03  2.38423E+03
 -4.02043E+03  2.29242E+03 -6.11199E+03 -2.68879E+03 -2.12532E+03 -6.03086E+03  1.12249E+03 -6.09338E+03
  2.68641E+03 -4.20669E+03  5.69061E+03 -8.32444E+02  4.49232E+03  1.89133E+03  1.66160E+03  3.23856E+03
 -1.22947E+03  1.35660E+03 -3.39771E+03 -1.65583E+03  6.83745E+02 -5.49818E+03  6.72789E+03 -4.19870E+03
  7.25850E+03  2.65912E+02  7.58671E+03  6.63860E+03  3.37533E+03  8.71840E+03 -2.20215E+03  6.77063E+03
 -7.82576E+03  2.47604E+03 -6.92417E+03 -2.14202E+03 -4.37391E+03 -4.70276E+03  1.00605E+03 -5.12838E+03
  7.31932E+03 -2.84187E+03  3.80850E+03  2.13125E+03  2.70155E+03  2.92585E+03 -6.88860E+02  5.78328E+03
 -2.04991E+03  2.46027E+03 -2.30623E+03  1.55631E+03 -1.88395E+03  6.16993E+02 -2.81061E+03  1.32522E+03
 -1.47688E+03  3.00513E+03 -5.92713E+03  2.38431E+03 -7.65582E+03  6.07631E+02 -1.00867E+04 -5.20266E+03
 -5.57680E+03 -9.12699E+03  1.50553E+03 -1.18284E+04  6.86621E+03 -1.01494E+04  1.04894E+04 -2.62186E+03
  1.13945E+04  2.77245E+03  7.17243E+03  6.40758E+03  1.24190E+03  8.47821E+03 -4.51912E+03  7.04574E+03
 -2.65503E+03  2.38136E+03 -2.89846E+03 -4.81181E+02 -2.15955E+03 -1.28289E+03 -1.24172E+03 -2.95860E+02
 -8.17777E+02 -1.94322E+02 -2.34149E+03  6.17404E+01 -1.35147E+03 -1.79587E+03  3.65107E+02 -1.91424E+03
  4.61546E+03 -2.51469E+03  4.34500E+03 -3.38772E+01  4.28490E+03  4.31802E+03  1.40459E+03  8.25405E+03
 -4.84156E+03  8.58243E+03 -8.10411E+03  4.92808E+03 -9.12449E+03  1.04406E+03 -6.47504E+03 -5.80498E+03
 -4.20860E+03 -7.85514E+03  2.98447E+03 -6.40272E+03  3.98457E+03 -4.00912E+03  3.37225E+03  3.32786E+02
  3.22445E+03  2.95869E+03 -7.74594E+02  3.22416E+03 -8.45929E+02  2.49782E+02 -3.10349E+02 -6.09213E+02
  3.77151E+03 -1.13067E+03  3.77847E+03  1.30364E+03  2.23048E+03  2.37234E+03  6.22702E+02  2.64368E+03
 -2.95301E+03  2.17821E+03 -4.23422E+03  1.43482E+03 -2.28759E+03 -3.88641E+03  7.02699E+02 -5.52227E+03
  4.17598E+03 -6.28220E+03  5.93130E+03 -2.13400E+03  7.03245E+03  1.53043E+03  3.12765E+03  5.82304E+03
  2.05527E+03  4.08845E+03 -1.92855E+03  3.99263E+03 -3.74249E+03  1.48825E+03 -2.55306E+03  4.86054E+02
  5.07448E+02 -2.05978E+02 -2.27712E+03 -2.44862E+02 -3.55422E+03  2.44226E+02 -3.84693E+03 -2.59428E+03
 -3.18804E+03 -2.45094E+03  6.42047E+01 -5.23851E+03  2.72235E+03 -5.98609E+03  4.03184E+03 -3.27114E+03
  4.98978E+03  1.49545E+03  3.96253E+03  3.28423E+03  2.32381E+02  5.10586E+03 -2.79770E+03  3.76722E+03
