 $NMID ID='MM_0lb_SNR200_12hz_g40_19.RAW', FMTDAT='(8E13.5)'
 TRAMP=1., VOLUME=1. $END
  3.10084E+05 -1.56738E+03  3.36627E+05  2.50316E+05  8.27723E+04  3.38364E+05 -1.32367E+05  2.51002E+05
 -1.90236E+05  8.34580E+04 -1.11871E+05 -3.16997E+04  9.87930E+02 -4.89473E+04  5.43407E+04 -5.14918E+02
  3.54809E+04  5.23217E+04 -1.62453E+04  7.49648E+04 -6.06046E+04  6.25382E+04 -8.41023E+04  3.38218E+04
 -8.07002E+04 -1.21652E+04 -5.72701E+04 -5.23421E+04 -1.45454E+04 -6.80012E+04  2.64451E+04 -4.52538E+04
  4.11431E+04  3.91731E+03  1.60976E+04  4.71264E+04 -3.50366E+04  4.76257E+04 -6.68708E+04  4.89714E+02
 -5.22312E+04 -5.72081E+04 -8.04833E+03 -7.79890E+04  3.33392E+04 -5.60734E+04  4.75552E+04 -1.63800E+04
  4.38187E+04  1.13177E+04  3.08690E+04  2.50562E+04  1.63360E+04  3.00795E+04 -4.50206E+03  2.67517E+04
 -2.09139E+04  1.21707E+04 -1.88662E+04 -5.39590E+03  7.41874E+03 -6.78856E+03  2.29754E+04  1.27042E+04
  8.36639E+03  3.57490E+04 -3.25862E+04  3.63934E+04 -6.42454E+04  7.22130E+02 -5.72064E+04 -4.17845E+04
 -1.18812E+04 -6.44081E+04  4.03078E+04 -4.49555E+04  5.81865E+04 -3.04759E+03  3.50077E+04  3.42479E+04
 -5.98860E+03  3.51564E+04 -3.04167E+04  1.72402E+04 -3.01085E+04 -4.23467E+03 -1.71158E+04 -1.07981E+04
 -8.78965E+03 -1.33114E+04 -1.12801E+03 -1.91692E+04  8.98795E+03 -2.33179E+04  1.52833E+04 -1.22470E+04
  1.13670E+04  4.02173E+03 -8.52966E+03  1.20498E+04 -2.04816E+04 -5.04097E+03 -8.57533E+03 -3.32180E+04
  2.34573E+04 -4.52216E+04  4.85018E+04 -1.91208E+04  4.55714E+04  2.00479E+04  1.49452E+04  4.38851E+04
 -1.60842E+04  3.31307E+04 -2.57731E+04  1.03057E+03 -1.07998E+04 -2.79880E+04  2.10201E+04 -3.46194E+04
  4.07488E+04 -9.92331E+03  3.67471E+04  2.43906E+04  1.87852E+04  4.80933E+04 -8.10476E+03  5.13449E+04
 -3.31312E+04  3.50300E+04 -4.21563E+04  9.81348E+03 -4.28441E+04 -1.73287E+04 -2.23690E+04 -3.72821E+04
  7.48789E+03 -3.86130E+04  3.17865E+04 -1.47874E+04  2.88553E+04  1.05381E+04  4.84683E+03  1.86854E+04
 -1.38898E+04  8.67090E+03 -1.14950E+04 -8.13498E+03  5.30696E+03 -9.62987E+03  1.81143E+04  5.18949E+03
  1.34296E+04  2.22999E+04 -6.27658E+03  2.51217E+04 -2.09512E+04  1.15743E+04 -2.95879E+04 -5.52269E+03
 -2.19561E+04 -1.70012E+04 -9.13461E+03 -2.09476E+04  4.14992E+03 -1.99466E+04  1.64966E+04 -1.95675E+04
  2.80535E+04 -1.28972E+04  3.38222E+04  2.96342E+03  2.44270E+04  2.10664E+04  5.26396E+03  3.74572E+04
 -1.93304E+04  3.09224E+04 -2.95240E+04  1.09100E+04 -2.08597E+04 -1.00747E+04 -4.19918E+03 -1.30494E+04
  1.99689E+03 -3.75383E+03 -5.59432E+03  6.50859E+03 -1.77593E+04  6.00924E+03 -1.67189E+04 -5.73802E+03
 -1.15376E+04 -2.01102E+04  5.07741E+03 -2.20740E+04  1.57287E+04 -1.62589E+04  1.86654E+04 -9.59882E+02
  1.30404E+04  1.27470E+04 -2.91549E+03  1.82984E+04 -1.39463E+04  1.07241E+04 -1.95077E+04 -3.48212E+03
 -1.59804E+04 -1.78798E+04 -1.74422E+03 -2.50093E+04  9.82420E+03 -2.10690E+04  2.05371E+04 -1.01306E+04
  1.91013E+04  4.95488E+02  1.30230E+04  5.82015E+03  7.70183E+03  9.53930E+02  9.78796E+03 -2.23856E+03
  1.80280E+04  1.83053E+03  2.11217E+04  1.51644E+04  1.35424E+04  3.14947E+04 -1.20117E+03  3.56371E+04
 -2.01170E+04  3.02611E+04 -3.39558E+04  1.56544E+04 -3.58782E+04 -3.10255E+03 -2.88139E+04 -2.11656E+04
 -1.19053E+04 -3.07657E+04  1.01133E+04 -2.57571E+04  2.37669E+04 -1.37588E+04  2.13566E+04  5.91535E+03
  6.74676E+03  1.53542E+04 -9.53061E+03  1.38071E+04 -1.64931E+04  2.74840E+03 -1.29174E+04 -1.11872E+04
 -4.00301E+02 -1.58940E+04  8.29185E+03 -1.25666E+04  1.12268E+04 -1.59625E+03  3.01211E+03  7.06384E+03
 -7.58796E+03  2.78609E+03 -8.23745E+03 -6.12918E+03 -1.31601E+03 -1.46692E+04  1.05700E+04 -1.47362E+04
  1.86017E+04 -9.30133E+03  1.82862E+04  2.89146E+03  1.78262E+04  1.36782E+04  8.34970E+03  2.29804E+04
 -2.92495E+03  2.38387E+04 -1.43892E+04  1.42378E+04 -1.82849E+04  2.16960E+03 -1.19223E+04 -4.81434E+03
 -5.82537E+03 -6.54642E+03 -1.01948E+03  1.68661E+02 -3.02617E+03  3.61623E+03 -4.89727E+03  4.70457E+03
 -1.25223E+04 -1.00516E+03 -1.12940E+04 -8.99416E+03 -4.92326E+03 -1.54328E+04  5.21588E+03 -1.33118E+04
  1.00790E+04 -4.20303E+03  7.79540E+03  3.63955E+03 -4.59658E+02  4.06205E+03 -6.60893E+03  3.70971E+01
 -6.10532E+03 -6.48598E+03 -2.27445E+03 -1.06431E+04  7.80934E+03 -1.27197E+04  1.58378E+04 -7.44468E+03
  1.78937E+04  1.71988E+03  1.42332E+04  9.77945E+03  3.72637E+03  1.55951E+04 -7.82811E+03  1.35177E+04
 -9.48706E+03  3.08847E+03 -5.91101E+03 -2.67021E+03  1.41023E+03 -4.03926E+03  6.44108E+03 -1.59445E+03
  6.75514E+03  4.46800E+03  9.86256E+02  1.01412E+04 -6.91429E+03  9.62000E+03 -1.09055E+04  2.13068E+03
 -9.44469E+03 -5.96283E+03  1.01144E+03 -1.10258E+04  7.13440E+03 -5.46514E+03  6.22426E+03  2.39414E+03
  6.33469E+02  7.59483E+03 -6.37601E+03  9.32751E+03 -1.07095E+04  3.00030E+03 -9.07754E+03 -3.27006E+03
 -4.87745E+03 -9.93153E+03  2.88946E+03 -1.35669E+04  1.03611E+04 -7.78279E+03  1.17101E+04  1.64680E+03
  7.23906E+03  1.11657E+04 -7.75376E+02  1.16333E+04 -8.66306E+03  5.08465E+03 -1.03644E+04 -1.27439E+03
 -7.36346E+03 -7.96411E+03 -2.00767E+03 -9.15039E+03  3.93551E+03 -7.03322E+03  5.98683E+03 -3.14730E+03
  4.26735E+03  1.16653E+03 -1.62031E+03  1.73062E+03 -2.12301E+03 -2.07831E+03  9.24847E+02 -4.35206E+03
  7.09751E+03 -3.99901E+03  1.08982E+04  2.13053E+03  1.03814E+04  7.24446E+03  8.30813E+03  1.42505E+04
 -3.74255E+03  1.54514E+04 -1.39184E+04  1.18948E+04 -1.71491E+04  3.23205E+03 -1.41354E+04 -6.02567E+03
 -7.01358E+03 -1.15306E+04  1.12221E+03 -1.06948E+04  2.18578E+03 -5.81889E+03  2.70103E+03 -3.53275E+03
  2.95768E+03 -2.05187E+03  3.20217E+03 -4.10015E+03  5.13186E+03 -3.22084E+03  5.68998E+03  2.32880E+02
  6.78874E+03  1.96352E+03  3.62230E+03  6.43688E+03 -1.89176E+03  9.05545E+03 -9.06621E+03  4.41646E+03
 -9.78661E+03 -7.22848E+02 -6.24115E+03 -6.47208E+03 -1.75059E+03 -1.04761E+04  6.39290E+03 -1.03629E+04
  1.06621E+04 -5.36074E+03  1.32020E+04  2.28126E+03  1.03783E+04  9.26717E+03  1.42787E+03  1.27586E+04
 -5.12949E+03  1.03965E+04 -6.26984E+03  1.65378E+03 -3.30635E+03 -1.62181E+03 -1.27516E+03 -2.21576E+03
 -1.47911E+03  7.20381E+02 -3.04267E+03  3.62932E+03 -4.90647E+03  7.38332E+02 -7.50928E+03 -6.64127E+02
 -6.37469E+03 -6.25643E+03 -6.92812E+02 -1.01776E+04  6.69369E+03 -1.00481E+04  9.35304E+03 -2.26837E+03
  1.04316E+04  4.63211E+03  5.14106E+03  9.81734E+03 -1.99405E+03  1.03963E+04 -6.19743E+03  5.43359E+03
 -9.26295E+03  8.35433E+02 -7.08091E+03 -5.42001E+03 -3.73413E+02 -8.24116E+03  3.73143E+03 -5.79295E+03
  7.05170E+03 -2.51035E+03  4.22975E+03  1.84555E+03  1.43808E+03  3.47903E+03  4.67547E+02  3.44881E+02
  2.97479E+03 -6.26747E+02  3.59281E+03  2.38183E+02  3.00951E+03  2.80519E+03  3.29680E+03  4.15542E+03
 -1.84345E+03  7.80019E+03 -6.62419E+03  8.31137E+03 -9.12752E+03  2.01234E+03 -1.11594E+04 -3.38718E+03
 -5.13013E+03 -1.00950E+04  3.01153E+03 -1.00674E+04  6.12650E+03 -7.58776E+03  8.13289E+03 -1.41192E+03
  6.43570E+03  2.71097E+03 -1.28263E+02  6.99404E+03 -1.73100E+03  3.22128E+03 -1.98654E+03 -4.06660E+02
 -4.35100E+01 -4.22946E+03  3.15726E+03 -3.87537E+03  3.06043E+03 -9.84317E+02  3.25699E+03  1.01459E+03
  2.76053E+03  8.20966E+02  2.40520E+03  1.51662E+03  3.78675E+01  1.23062E+03  1.93471E+03 -5.25603E+02
  1.34900E+03  2.02741E+02  3.55474E+03  1.81764E+03  1.23642E+03  6.05395E+03 -1.64671E+03  6.40194E+03
 -4.18287E+03  4.37499E+03 -6.75426E+03  1.37102E+03 -5.83218E+03 -3.70197E+03 -6.00610E+02 -3.59461E+03
  1.32134E+03 -4.72285E+03  3.44135E+03 -1.86635E+03  2.35274E+03  1.38214E+03 -2.07940E+03  4.19141E+03
 -3.13807E+03  1.54045E+03 -5.11319E+03 -2.22506E+03 -2.06859E+03 -4.55358E+03  8.27700E+02 -4.34639E+03
  2.69275E+03 -2.22702E+03  2.75405E+03 -8.81481E+02  3.71761E+03  8.96461E+02 -2.25904E+01  4.41530E+03
 -2.23932E+03  7.96916E+02 -8.86993E+02 -1.42723E+03  1.02323E+03 -3.33050E+03  5.20960E+03 -2.21849E+03
  6.60866E+03  1.85304E+01  6.67691E+03  2.30058E+03  2.30415E+03  5.38018E+03 -1.19540E+03  4.92488E+03
 -4.69608E+03  2.70455E+03 -5.21129E+03 -4.49878E+02 -3.84113E+03 -3.35076E+03  1.71213E+03 -3.71151E+03
  5.14522E+03 -2.55662E+03  2.96599E+03  1.58484E+03  1.19503E+03  3.03041E+03  8.41126E+02  3.40674E+03
 -3.05699E+03  1.30719E+03 -1.09144E+03  4.10671E+02 -1.36519E+03  6.30648E+02 -1.53163E+03  1.35416E+03
 -6.07757E+02  3.38638E+03 -3.02249E+03  1.53764E+03 -5.06165E+03  1.58352E+02 -6.55347E+03 -3.78121E+03
 -3.69764E+03 -7.74747E+03  1.75498E+03 -8.71181E+03  5.32586E+03 -5.51274E+03  8.36513E+03 -6.70916E+02
  7.74288E+03  1.13319E+03  4.20626E+03  5.93580E+03  1.11190E+03  6.24315E+03 -2.38106E+03  5.22394E+03
 -3.75742E+03  1.12986E+03 -1.74908E+03 -4.84016E+02 -9.95917E+02 -8.95676E+02 -7.35310E+02 -1.07124E+03
 -1.52282E+03  8.63879E+02 -2.08070E+03  9.39182E+02  1.65216E+03 -7.83529E+02 -1.40883E+03 -1.34294E+03
  2.09169E+03 -2.18292E+03  1.91906E+03  1.34858E+03  3.73133E+03  2.35766E+03  1.19861E+03  5.71610E+03
 -2.96619E+03  7.86448E+03 -6.03217E+03  4.10769E+03 -8.03114E+03 -1.20911E+03 -5.22839E+03 -3.66509E+03
 -2.36774E+03 -5.44506E+03  7.25790E+02 -5.63678E+03  4.76077E+03 -3.13885E+03  2.81904E+03 -7.33912E+02
  2.85176E+03  1.66116E+03 -7.61548E+01  1.09537E+03 -8.14489E+02  1.92889E+02  3.18326E+02 -8.15084E+02
  2.23499E+03 -6.72708E+02  2.59632E+03  5.38934E+02  1.24915E+03  2.08313E+03  9.69979E+01  2.23048E+03
 -2.09399E+03  3.32264E+03 -3.51195E+03  2.01493E+02 -4.43429E+03 -1.92690E+03 -1.37028E+03 -4.38754E+03
  1.05434E+03 -4.88839E+03  3.29451E+03 -3.37729E+02  5.89700E+03  4.65947E+02  2.53379E+03  3.90714E+03
  1.93202E+03  2.98287E+03 -1.90894E+03  3.39905E+03 -1.56635E+03  1.62777E+03 -2.33650E+03 -7.64263E+02
 -1.00386E+03 -6.14793E+02 -1.18924E+03  3.88346E+02 -2.64276E+03  5.26654E+02 -2.88482E+03 -1.41085E+02
 -1.28934E+03 -7.75558E+02 -3.32026E+02 -4.48369E+03  1.27987E+03 -3.71119E+03  2.18964E+03 -1.50138E+02
  4.06406E+03  8.71524E+02  5.27304E+02  2.75015E+03 -8.63190E+01  1.79147E+03 -2.93165E+03  2.53589E+03
