 $NMID ID='MM_0lb_SNR200_9hz_g50_55.RAW', FMTDAT='(8E13.5)'
 TRAMP=1., VOLUME=1. $END
  3.09862E+05  2.25873E+03  3.37617E+05  2.50105E+05  8.50942E+04  3.37936E+05 -1.32269E+05  2.52166E+05
 -1.91061E+05  8.21357E+04 -1.13837E+05 -3.28326E+04 -2.82851E+02 -5.21530E+04  5.38821E+04 -1.67373E+03
  3.60301E+04  5.15899E+04 -1.80017E+04  7.69489E+04 -6.02884E+04  6.38960E+04 -8.47543E+04  3.31877E+04
 -8.25134E+04 -1.22841E+04 -5.74032E+04 -5.12348E+04 -1.54010E+04 -7.10991E+04  2.85220E+04 -4.55644E+04
  4.08993E+04  2.37965E+03  1.67398E+04  4.98672E+04 -3.45788E+04  4.73943E+04 -6.78686E+04  1.70790E+03
 -5.49563E+04 -5.71508E+04 -8.98191E+03 -8.05215E+04  3.47262E+04 -5.80311E+04  4.80532E+04 -1.86751E+04
  4.49836E+04  1.12474E+04  3.29247E+04  2.70845E+04  1.63423E+04  2.98945E+04 -7.18086E+03  2.51081E+04
 -2.28134E+04  1.30943E+04 -1.74166E+04 -4.29114E+03  6.28766E+03 -7.45990E+03  2.54076E+04  1.43815E+04
  5.98575E+03  3.69518E+04 -3.40263E+04  3.61314E+04 -6.54185E+04  4.29195E+02 -5.79312E+04 -4.45863E+04
 -1.13574E+04 -6.63931E+04  4.19473E+04 -4.73511E+04  6.03486E+04 -3.37463E+03  3.67951E+04  3.48676E+04
 -4.41297E+03  3.93855E+04 -3.18093E+04  1.80189E+04 -3.19403E+04 -4.67034E+03 -2.13296E+04 -1.16275E+04
 -1.10307E+04 -1.52588E+04 -2.35359E+02 -1.98756E+04  8.14999E+03 -2.45802E+04  1.72682E+04 -1.16709E+04
  1.03607E+04  6.69409E+03 -8.83708E+03  1.36411E+04 -2.40322E+04 -5.49874E+03 -1.07337E+04 -3.73412E+04
  2.48945E+04 -4.62278E+04  5.12335E+04 -2.21771E+04  4.72940E+04  2.06756E+04  1.61994E+04  4.75889E+04
 -1.66777E+04  3.51083E+04 -2.72655E+04  2.97106E+03 -1.07586E+04 -2.97179E+04  2.06439E+04 -3.85559E+04
  4.66203E+04 -9.93904E+03  4.00513E+04  2.57494E+04  2.15082E+04  5.01790E+04 -7.55524E+03  5.53711E+04
 -3.62775E+04  3.68861E+04 -4.82503E+04  1.13354E+04 -4.61303E+04 -1.87768E+04 -2.63575E+04 -4.25510E+04
  6.85760E+03 -4.34402E+04  3.34362E+04 -1.76721E+04  3.23920E+04  9.96304E+03  4.62596E+03  2.18192E+04
 -1.38269E+04  1.05757E+04 -1.15717E+04 -7.89597E+03  5.75983E+03 -1.05046E+04  1.84303E+04  5.13833E+03
  1.48917E+04  2.26021E+04 -5.33846E+03  2.73713E+04 -2.20661E+04  1.41089E+04 -3.09738E+04 -1.66088E+03
 -2.50136E+04 -1.92385E+04 -1.08620E+04 -2.38248E+04  3.71804E+03 -2.66182E+04  1.93584E+04 -2.34326E+04
  3.17471E+04 -1.37782E+04  3.80869E+04  3.86524E+03  2.68639E+04  2.36938E+04  5.14252E+03  4.09700E+04
 -2.14826E+04  3.32362E+04 -3.13500E+04  1.16361E+04 -2.19111E+04 -1.04257E+04 -3.92653E+03 -1.40776E+04
  1.40765E+02 -1.06089E+03 -7.60786E+03  8.44182E+03 -2.02958E+04  4.28407E+03 -1.98892E+04 -9.79126E+03
 -1.17782E+04 -2.32556E+04  5.52593E+03 -2.75859E+04  1.83183E+04 -2.06013E+04  2.22702E+04 -2.51162E+03
  1.35515E+04  1.56964E+04 -2.84067E+03  2.19395E+04 -1.64634E+04  1.33337E+04 -2.34601E+04 -5.24671E+03
 -1.67709E+04 -2.03112E+04 -1.05811E+03 -2.59059E+04  1.13711E+04 -2.34824E+04  2.25854E+04 -1.31623E+04
  2.21625E+04  1.99594E+02  1.59018E+04  6.43634E+03  9.28417E+03  7.28501E+02  1.19619E+04 -1.54810E+03
  2.29807E+04  2.59892E+03  2.56160E+04  1.86059E+04  1.72838E+04  3.85964E+04 -1.74776E+03  4.54025E+04
 -2.30790E+04  3.62596E+04 -4.14392E+04  1.89712E+04 -4.46581E+04 -4.30844E+03 -3.68665E+04 -2.55510E+04
 -1.43613E+04 -3.59613E+04  1.44704E+04 -3.23138E+04  2.76256E+04 -1.60687E+04  2.25622E+04  7.95231E+03
  7.78734E+03  1.91668E+04 -1.08895E+04  1.56915E+04 -2.04880E+04  3.32206E+03 -1.48864E+04 -1.32829E+04
 -2.29002E+03 -1.91055E+04  1.11861E+04 -1.47566E+04  1.28153E+04 -2.11620E+03  3.63007E+03  7.61192E+03
 -7.51812E+03  3.15654E+03 -8.46625E+03 -7.53288E+03 -1.78702E+03 -1.72558E+04  1.32858E+04 -2.02458E+04
  2.43944E+04 -1.05571E+04  2.51954E+04  3.96744E+03  2.21175E+04  1.83005E+04  1.23323E+04  2.94259E+04
 -3.87506E+03  3.19086E+04 -2.13005E+04  1.89594E+04 -2.20830E+04  4.01418E+03 -1.72053E+04 -5.84495E+03
 -7.04688E+03 -7.43796E+03 -7.73267E+02 -7.59468E+01 -3.32213E+03  3.40081E+03 -6.79222E+03  5.10897E+03
 -1.21914E+04 -2.51040E+03 -1.50388E+04 -1.27045E+04 -5.87143E+03 -1.93241E+04  6.65458E+03 -1.65466E+04
  1.23881E+04 -5.24292E+03  7.33096E+03  4.38799E+03  1.84889E+02  5.90138E+03 -7.84063E+03  8.17886E+02
 -6.58948E+03 -8.48189E+03 -1.28180E+03 -1.69444E+04  1.03696E+04 -1.45732E+04  2.12498E+04 -7.22767E+03
  2.12753E+04  1.13148E+03  1.76330E+04  1.50144E+04  5.82599E+03  1.80101E+04 -1.03586E+04  1.37029E+04
 -1.23687E+04  4.64400E+03 -6.39476E+03 -2.44104E+03  1.98836E+03 -4.22058E+03  8.36950E+03 -9.92580E+02
  7.61837E+03  7.72766E+03  1.28151E+03  1.25392E+04 -9.99443E+03  1.16461E+04 -1.45409E+04  4.29451E+02
 -1.13168E+04 -8.10063E+03  1.83973E+02 -1.51800E+04  7.28881E+03 -4.44510E+03  9.45779E+03  1.91202E+03
  3.60630E+03  9.74852E+03 -8.53596E+03  1.02580E+04 -1.34296E+04  3.90467E+03 -1.30411E+04 -5.56702E+03
 -7.02715E+03 -1.59205E+04  2.77389E+03 -1.75804E+04  1.62323E+04 -1.08417E+04  1.53123E+04  3.93484E+03
  9.45575E+03  1.34674E+04 -1.18747E+03  1.66457E+04 -1.32845E+04  8.06924E+03 -1.34740E+04 -9.38001E+02
 -1.11670E+04 -1.04564E+04 -5.17857E+02 -1.21060E+04  6.66640E+03 -1.03436E+04  9.36121E+03 -4.26732E+03
  5.56908E+03  2.28217E+03 -3.93195E+02  2.45053E+03 -1.87865E+03 -4.01272E+03  2.93342E+03 -6.75538E+03
  1.08538E+04 -6.36873E+03  1.81901E+04 -9.23943E+02  1.47688E+04  1.11578E+04  8.74445E+03  2.03183E+04
 -6.02258E+03  2.48469E+04 -2.02442E+04  1.84008E+04 -2.60060E+04  4.72156E+03 -2.08410E+04 -1.01285E+04
 -8.92077E+03 -1.68349E+04 -1.85123E+03 -1.49898E+04  4.23824E+03 -7.82381E+03  6.11952E+03 -4.86683E+03
  5.32511E+03 -4.50926E+03  4.10905E+03 -3.63668E+03  7.80638E+03 -2.53556E+03  7.68171E+03 -8.78342E+02
  1.00380E+04  1.99885E+03  5.48207E+03  9.31797E+03 -2.45077E+03  1.13919E+04 -1.00736E+04  8.87140E+03
 -1.47907E+04 -1.24612E+03 -8.81490E+03 -1.00272E+04 -2.20223E+03 -1.60341E+04  8.25612E+03 -1.55287E+04
  1.61231E+04 -8.30882E+03  2.10642E+04  3.53026E+03  1.25925E+04  1.42366E+04  2.61543E+03  1.80084E+04
 -7.90239E+03  1.48887E+04 -1.24892E+04  6.48645E+03 -6.27482E+03 -1.54577E+03 -2.70702E+03 -2.21696E+03
 -1.09204E+03 -1.79338E+03 -8.80420E+02  3.69495E+03 -6.84799E+03  3.12235E+03 -1.07897E+04  1.05613E+02
 -7.82749E+03 -9.71299E+03 -6.06971E+02 -1.54169E+04  8.19924E+03 -1.43875E+04  1.37247E+04 -4.73676E+03
  1.51174E+04  6.73509E+03  5.90871E+03  1.46912E+04 -3.88907E+03  1.48414E+04 -1.09986E+04  9.44536E+03
 -1.37953E+04  1.40685E+03 -1.14737E+04 -7.44143E+03 -8.32577E+02 -1.43282E+04  5.95987E+03 -9.57187E+03
  1.03089E+04 -3.46338E+03  7.38506E+03  1.87318E+03  3.57924E+03  4.29487E+03  1.47175E+03  2.70209E+03
  8.32795E+02  2.08023E+03  5.71146E+03  1.34540E+03  2.64527E+03  7.09541E+03  3.40526E+03  8.60060E+03
 -2.21539E+03  1.32074E+04 -1.00671E+04  1.03286E+04 -1.53164E+04  2.72506E+03 -1.49874E+04 -5.70894E+03
 -9.34047E+03 -1.64075E+04  1.43056E+03 -1.68410E+04  9.70213E+03 -1.04692E+04  1.20314E+04 -9.97989E+02
  9.34575E+03  4.90169E+03  3.00337E+03  8.70397E+03 -4.04905E+03  5.83953E+03 -7.08208E+03 -1.14676E+03
 -2.60085E+03 -7.48666E+03  3.92359E+03 -8.30554E+03  4.92440E+03 -3.97745E+03  5.51831E+03 -6.58421E+02
  2.69355E+03  2.43844E+03  9.44767E+02  1.13508E+03 -1.20391E+03  3.37489E+03  2.70752E+03  1.08134E+02
  1.70378E+03 -7.92315E+02  5.31362E+03  2.14111E+03  3.52650E+03  7.12970E+03 -2.53353E+03  9.56023E+03
 -7.14564E+03  7.05039E+03 -1.01791E+04  3.48312E+03 -8.32172E+03 -3.69755E+03 -3.40649E+03 -6.20677E+03
  2.33158E+02 -6.92288E+03  5.41218E+03 -2.27001E+03  2.85308E+03  2.51453E+03 -1.25013E+03  5.57712E+03
 -6.37350E+03  4.41076E+03 -7.24618E+03 -3.86862E+03 -4.00408E+03 -7.00955E+03  1.47383E+03 -7.35513E+03
  5.81633E+03 -5.26198E+03  6.69081E+03  9.04907E+02  6.01746E+03  1.49548E+03 -1.63710E+02  3.96205E+03
 -2.27904E+03 -1.73066E+02 -4.78320E+03 -2.55402E+03  9.25699E+02 -5.79535E+03  6.78199E+03 -6.00435E+03
  1.00520E+04  7.02542E+02  8.81483E+03  5.44420E+03  2.24265E+03  1.09888E+04 -3.58644E+03  9.79500E+03
 -7.67594E+03  4.84793E+03 -8.56671E+03 -1.07247E+03 -4.32333E+03 -4.76475E+03  9.82880E+02 -6.51517E+03
  7.06975E+03 -1.71263E+03  4.49307E+03  3.37659E+03  1.39871E+03  5.10460E+03 -4.30774E+01  3.85066E+03
 -2.75913E+03  3.80148E+03 -3.84327E+03  1.73095E+03  4.80539E+02  2.15200E+03 -8.96732E+02  1.38944E+03
 -2.27171E+03  1.95927E+03 -7.66585E+03  3.12846E+03 -8.83576E+03  1.62191E+03 -1.18495E+04 -6.21828E+03
 -7.55329E+03 -1.35284E+04  4.81151E+03 -1.39269E+04  1.16022E+04 -1.21485E+04  1.47988E+04 -3.19883E+03
  1.28550E+04  2.47629E+03  8.45568E+03  9.44000E+03  1.81122E+03  1.02946E+04 -3.67195E+03  7.53288E+03
 -5.63334E+03  3.03030E+03 -4.01836E+03 -3.11387E+03 -1.61209E+03 -2.04252E+03 -8.93255E+02  8.39129E+02
 -1.66926E+03 -5.69832E+02 -2.15969E+03 -1.50178E+03 -1.99020E+03 -1.95560E+03 -9.38236E+02 -3.40902E+03
  4.73757E+03 -4.11245E+03  7.00379E+03  8.50898E+02  7.63074E+03  3.94002E+03  1.81348E+03  1.06133E+04
 -5.58934E+03  1.03988E+04 -1.22984E+04  5.34573E+03 -1.25404E+04 -1.80035E+03 -1.03406E+04 -7.63272E+03
 -4.07995E+03 -1.05283E+04  2.52458E+03 -1.13841E+04  7.53778E+03 -5.04610E+03  7.50300E+03  1.03970E+03
  5.66793E+03  3.81610E+03 -8.86160E+01  3.88604E+03 -3.04310E+03 -2.74706E+02  1.12266E+01 -1.90603E+03
  4.52474E+03 -1.38368E+03  4.79718E+03  1.46643E+03  1.18345E+03  3.17585E+03 -1.20805E+02  3.71575E+03
 -3.54206E+03  4.84028E+03 -7.47242E+03  7.45744E+02 -7.15802E+03 -4.87317E+03  1.68323E+02 -8.22740E+03
  4.47419E+03 -8.65093E+03  7.72234E+03 -2.21704E+03  7.83598E+03  2.51289E+03  4.89891E+03  5.77788E+03
  4.20297E+02  6.47070E+03 -4.09398E+02  5.30196E+03 -5.54778E+03  2.81768E+03 -1.15119E+03 -7.12313E+02
 -2.37537E+03 -1.00178E+03 -2.04575E+03 -1.74409E+02 -3.43611E+03  1.96285E+03 -6.35540E+03  1.16879E+03
 -4.12934E+03 -1.85692E+03 -1.79966E+03 -7.83435E+03  3.01512E+03 -7.83169E+03  5.62669E+03 -4.49443E+03
  5.59787E+03 -9.92568E+02  1.60580E+03  6.41732E+03 -6.32038E+02  8.01614E+03 -3.41142E+03  4.41024E+03
