 $NMID ID='MM_0lb_SNR200_12hz_g55_30.RAW', FMTDAT='(8E13.5)'
 TRAMP=1., VOLUME=1. $END
  3.08817E+05  4.61641E+02  3.36485E+05  2.51585E+05  8.41266E+04  3.38419E+05 -1.32333E+05  2.51848E+05
 -1.91131E+05  8.46460E+04 -1.13043E+05 -3.17022E+04  3.07844E+02 -5.05681E+04  5.38478E+04  4.92166E+02
  3.57359E+04  5.30401E+04 -1.62799E+04  7.66209E+04 -5.99027E+04  6.36946E+04 -8.46252E+04  3.36253E+04
 -8.22552E+04 -1.14919E+04 -5.79502E+04 -5.19344E+04 -1.49445E+04 -7.05841E+04  2.84718E+04 -4.64508E+04
  4.06296E+04  4.76960E+03  1.65388E+04  4.73226E+04 -3.54386E+04  4.82375E+04 -6.74869E+04 -1.11565E+03
 -5.55504E+04 -5.91498E+04 -8.07135E+03 -7.87692E+04  3.43341E+04 -5.55232E+04  4.98600E+04 -1.80504E+04
  4.37001E+04  1.07019E+04  3.23809E+04  2.69021E+04  1.59087E+04  2.99003E+04 -4.89758E+03  2.89837E+04
 -2.32204E+04  1.27880E+04 -1.79074E+04 -5.92409E+03  6.48221E+03 -8.12902E+03  2.30580E+04  1.43077E+04
  6.26285E+03  3.63339E+04 -3.23977E+04  3.62269E+04 -6.38047E+04  2.42435E+03 -5.68639E+04 -4.30533E+04
 -1.22681E+04 -6.47341E+04  4.04123E+04 -4.74770E+04  6.04711E+04 -1.38924E+03  3.56705E+04  3.32144E+04
 -5.77612E+03  3.79262E+04 -3.08284E+04  1.64785E+04 -3.16926E+04 -3.81222E+03 -1.97223E+04 -1.28274E+04
 -9.66886E+03 -1.42132E+04 -1.07798E+03 -1.99845E+04  8.27579E+03 -2.38241E+04  1.63321E+04 -1.33853E+04
  1.00991E+04  5.06848E+03 -9.61012E+03  1.31243E+04 -2.23137E+04 -5.48552E+03 -7.45235E+03 -3.64366E+04
  2.32056E+04 -4.55220E+04  5.11297E+04 -2.02485E+04  4.64061E+04  1.98256E+04  1.57224E+04  4.52996E+04
 -1.61113E+04  3.65207E+04 -2.65178E+04  3.61770E+03 -1.17202E+04 -2.82847E+04  2.14288E+04 -3.54371E+04
  4.31098E+04 -1.09948E+04  3.75181E+04  2.50550E+04  1.90329E+04  4.99455E+04 -7.76001E+03  5.31964E+04
 -3.32617E+04  3.78117E+04 -4.54745E+04  8.95882E+03 -4.47231E+04 -1.73170E+04 -2.50068E+04 -4.05318E+04
  6.74240E+03 -4.03778E+04  3.26891E+04 -1.57954E+04  2.99896E+04  1.02099E+04  5.63571E+03  2.02101E+04
 -1.44758E+04  8.50983E+03 -1.11378E+04 -8.07693E+03  5.62659E+03 -1.13288E+04  1.93575E+04  5.57533E+03
  1.38092E+04  2.23105E+04 -5.40617E+03  2.52666E+04 -2.22182E+04  1.19255E+04 -2.92462E+04 -4.36412E+03
 -2.22126E+04 -1.73764E+04 -9.23138E+03 -2.32880E+04  5.06406E+03 -2.27742E+04  1.67928E+04 -2.07111E+04
  2.91540E+04 -1.35655E+04  3.52328E+04  3.44920E+03  2.48312E+04  2.18186E+04  5.60563E+03  3.92601E+04
 -1.90303E+04  3.12044E+04 -2.92577E+04  1.11905E+04 -2.11227E+04 -9.61120E+03 -3.83994E+03 -1.33821E+04
  7.88061E+02 -2.85203E+03 -6.04650E+03  7.15675E+03 -1.88585E+04  5.60433E+03 -1.89739E+04 -6.79192E+03
 -1.13519E+04 -2.20502E+04  6.05766E+03 -2.49033E+04  1.56158E+04 -1.90441E+04  1.94275E+04 -1.82319E+03
  1.43518E+04  1.55092E+04 -2.13647E+02  2.20085E+04 -1.43485E+04  1.29554E+04 -1.97692E+04 -3.76129E+03
 -1.52435E+04 -1.83171E+04 -7.46678E+02 -2.59923E+04  1.12637E+04 -2.17057E+04  1.99053E+04 -1.12582E+04
  2.00423E+04 -7.95743E+02  1.50006E+04  4.13623E+03  8.34380E+03  5.91193E+02  1.07796E+04 -1.85805E+03
  2.03429E+04  3.72094E+03  2.21172E+04  1.68008E+04  1.38123E+04  3.35465E+04 -2.20618E+03  3.85254E+04
 -2.39200E+04  3.15793E+04 -3.62236E+04  1.72487E+04 -3.89357E+04 -3.42291E+03 -3.36411E+04 -2.40361E+04
 -1.27994E+04 -3.22426E+04  1.04632E+04 -3.05549E+04  2.48650E+04 -1.40586E+04  2.23362E+04  5.83445E+03
  7.03855E+03  1.70184E+04 -9.80956E+03  1.47168E+04 -1.88650E+04  2.25434E+03 -1.28636E+04 -1.14225E+04
 -7.13612E+02 -1.68186E+04  9.82156E+03 -1.35675E+04  1.33632E+04 -6.30378E+02  1.02461E+03  6.28958E+03
 -7.99999E+03  3.66839E+03 -5.92069E+03 -6.54337E+03 -1.49494E+03 -1.53781E+04  1.12117E+04 -1.78092E+04
  2.05240E+04 -1.06955E+04  2.15195E+04  2.10203E+03  1.96625E+04  1.60882E+04  8.79310E+03  2.48130E+04
 -4.35689E+03  2.63548E+04 -1.57172E+04  1.59171E+04 -1.92009E+04  4.20493E+03 -1.41589E+04 -5.04281E+03
 -5.93508E+03 -7.77163E+03 -1.20031E+02  1.39764E+03 -1.37360E+03  2.82657E+03 -5.81141E+03  4.53179E+03
 -1.13550E+04 -1.24159E+02 -1.45886E+04 -1.07079E+04 -5.91781E+03 -1.74019E+04  6.84716E+03 -1.44268E+04
  1.10130E+04 -5.54725E+03  7.66235E+03  3.90654E+03 -8.13984E+02  6.13675E+03 -6.00305E+03  3.01256E+02
 -4.82039E+03 -9.15442E+03 -2.23927E+03 -1.25711E+04  7.45487E+03 -1.31782E+04  1.79365E+04 -7.35659E+03
  1.95006E+04  1.75237E+03  1.32036E+04  1.14526E+04  2.86122E+03  1.49305E+04 -6.95104E+03  1.34734E+04
 -1.09465E+04  3.71640E+03 -6.10662E+03 -2.18319E+03  2.25382E+03 -2.58123E+03  6.16977E+03 -8.56178E+02
  7.44431E+03  4.86792E+03  5.42166E+01  9.52709E+03 -7.34008E+03  9.93166E+03 -1.24139E+04  2.77387E+03
 -9.61575E+03 -8.25842E+03  1.16078E+03 -1.06815E+04  7.09423E+03 -5.35464E+03  8.51319E+03  2.48615E+03
  1.64107E+03  8.30459E+03 -6.47555E+03  9.03750E+03 -1.15093E+04  3.65383E+03 -1.17145E+04 -2.85376E+03
 -7.91182E+03 -1.34089E+04  2.99760E+03 -1.48509E+04  1.27732E+04 -9.19677E+03  1.38417E+04  2.17083E+03
  8.09333E+03  1.09790E+04 -1.25480E+03  1.37408E+04 -1.06484E+04  7.55623E+03 -1.02121E+04 -1.72016E+03
 -9.64641E+03 -9.18195E+03 -2.58373E+03 -9.97068E+03  4.64643E+03 -7.73661E+03  6.67525E+03 -2.91399E+03
  3.93892E+03  2.10379E+03 -2.52890E+02  1.46320E+03 -5.17017E+01 -1.73605E+03  3.18666E+03 -4.80604E+03
  9.39519E+03 -3.42833E+03  1.22709E+04  6.27336E+02  1.09809E+04  8.36435E+03  7.34783E+03  1.56916E+04
 -4.05752E+03  1.91597E+04 -1.69899E+04  1.37051E+04 -1.95538E+04  2.69371E+03 -1.59223E+04 -7.03846E+03
 -8.17736E+03 -1.30084E+04 -8.29437E+02 -1.15514E+04  4.52930E+03 -7.40146E+03  3.86118E+03 -3.22958E+03
  4.41070E+03 -1.91554E+03  2.29625E+03 -4.02655E+03  5.18940E+03 -2.36302E+03  7.50784E+03 -1.01833E+03
  8.57437E+03  2.02681E+03  4.25609E+03  6.91188E+03 -2.20260E+03  8.01234E+03 -8.93941E+03  6.41745E+03
 -9.67423E+03  3.63447E+02 -7.08328E+03 -6.23006E+03 -6.38323E+02 -1.32401E+04  6.58311E+03 -1.16970E+04
  1.23840E+04 -5.76848E+03  1.50917E+04  1.96465E+03  9.75047E+03  9.40223E+03  1.81442E+03  1.28764E+04
 -5.70663E+03  1.04228E+04 -6.90687E+03  4.35939E+03 -5.99444E+03 -1.14460E+03 -1.30431E+03 -1.65356E+03
 -1.33594E+03 -2.16256E+01 -2.04077E+03  3.05095E+03 -3.78734E+03  2.49625E+03 -7.28376E+03 -1.38206E+03
 -4.78662E+03 -6.99346E+03  4.49024E+02 -1.05627E+04  7.39996E+03 -1.05496E+04  8.86392E+03 -3.50658E+03
  1.03192E+04  5.23808E+03  5.23116E+03  1.08091E+04 -2.14636E+03  1.13083E+04 -6.96634E+03  6.43689E+03
 -8.05794E+03  9.98459E+02 -8.06594E+03 -6.56807E+03 -2.84053E+02 -9.60453E+03  3.78072E+03 -6.26225E+03
  6.55998E+03 -3.28486E+03  3.07690E+03  1.21825E+03  2.18211E+03  1.95940E+03  2.03156E+03  1.79685E+03
  2.76421E+03  5.86709E+02  3.28815E+03  2.87736E+03  2.40294E+03  4.58819E+03  3.44020E+03  7.15810E+03
 -9.83158E+02  8.78243E+03 -7.27905E+03  9.25756E+03 -1.07165E+04  2.37029E+03 -1.09805E+04 -4.54374E+03
 -5.31476E+03 -1.16241E+04  8.24387E+02 -1.15776E+04  6.68915E+03 -6.88705E+03  9.23817E+03 -1.00330E+03
  6.52768E+03  6.30487E+03  6.87088E+01  6.94432E+03 -1.99316E+03  3.38694E+03 -3.49193E+03 -8.47636E+02
 -1.39753E+03 -2.95822E+03  2.54234E+03 -4.29682E+03  3.25503E+03 -8.09933E+02  4.58880E+03  1.33908E+03
  2.82253E+03  2.32924E+03  5.02221E+02  6.81347E+02 -1.27542E+03  1.54284E+03  2.50635E+03 -1.14496E+03
  1.35034E+03 -8.92493E+02  4.15908E+03  1.50918E+03  1.94166E+03  7.56716E+03 -1.56025E+03  7.68089E+03
 -5.69891E+03  4.84777E+03 -5.81715E+03  1.31123E+03 -5.28743E+03 -2.21811E+03 -1.71403E+03 -3.03406E+03
  9.96006E+02 -4.20502E+03  3.06758E+03 -2.60820E+03  3.35990E+03  3.17990E+03 -1.37232E+02  2.90665E+03
 -3.73863E+03  1.94687E+03 -5.27613E+03 -1.81375E+03 -2.23972E+03 -5.89037E+03  1.80967E+03 -4.10865E+03
  3.13099E+03 -2.16955E+03  2.90930E+03 -9.14499E+02  4.45269E+03  2.33600E+03 -2.63247E+02  2.50765E+03
 -2.66468E+03  1.70917E+02 -3.27338E+03 -1.27141E+03  2.37494E+02 -4.32990E+03  4.81806E+03 -1.51944E+03
  6.87613E+03  1.16285E+03  7.05678E+03  3.32361E+03  2.42301E+03  5.96114E+03 -1.53475E+03  5.67019E+03
 -6.14945E+03  2.71455E+03 -5.05632E+03 -1.00320E+03 -1.75724E+03 -4.14964E+03  6.12597E+02 -4.13221E+03
  3.53693E+03 -1.98004E+03  3.56416E+03  1.16389E+03  1.27041E+03  3.15391E+03 -1.51005E+03  2.61106E+03
 -2.37400E+03  1.38684E+03 -8.80325E+02  4.23426E+02 -1.13606E+02 -2.15347E+02 -1.12787E+03  1.80453E+03
 -1.74868E+03  2.84035E+03 -3.62623E+03  3.05965E+03 -6.23851E+03  2.04929E+02 -6.83188E+03 -3.46123E+03
 -3.41235E+03 -7.00716E+03  2.36014E+03 -9.52249E+03  4.48996E+03 -6.91789E+03  1.08815E+04 -1.39033E+03
  7.58484E+03  9.55164E+02  3.78470E+03  6.04002E+03  4.24293E+01  6.32643E+03 -2.37859E+03  2.98095E+03
 -2.98236E+03  1.91380E+03 -2.23743E+03 -1.25984E+03  6.92880E+01 -6.46522E+02 -7.16355E+02 -1.64343E+03
 -2.07262E+03 -3.00982E+02 -2.72301E+03  9.85450E+00 -2.83831E+02 -1.69884E+03 -4.73945E+02 -1.80347E+03
  3.57034E+03 -1.42758E+03  3.99278E+03  1.80762E+03  3.96079E+03  4.96263E+03 -1.78268E+02  4.52311E+03
 -2.52678E+03  7.40980E+03 -6.19274E+03  3.10310E+03 -6.50186E+03 -1.24011E+03 -5.82156E+03 -4.95821E+03
 -1.77106E+03 -6.12842E+03  7.71749E+02 -5.70437E+03  4.00840E+03 -2.49670E+03  3.91229E+03  1.28640E+03
  1.69765E+03  3.29880E+03  1.96873E+03  1.81542E+03 -1.19890E+03  2.46861E+02  2.09452E+02  5.12057E+02
  1.22230E+03 -9.63949E+02  3.34721E+03  9.89615E+02  3.01610E+03  2.24171E+03 -2.58307E+02  3.31419E+03
 -1.91002E+03  2.43347E+03 -3.71081E+03  1.01815E+03 -2.84680E+03 -2.20253E+03  3.86652E+02 -4.79629E+03
  2.74882E+03 -2.34032E+03  3.89758E+03 -9.39959E+02  6.52722E+03  9.59666E+00  2.36259E+03  3.80750E+03
  7.10590E+02  3.81087E+03 -2.19010E+03  3.22233E+03 -3.49696E+03  1.33590E+03 -2.09520E+03 -5.78082E+02
  4.26861E+01  8.86419E+02 -1.52939E+03  4.47627E+02 -1.28881E+03  1.14871E+03 -4.94652E+03 -6.75629E+02
 -3.05810E+03 -1.38385E+03  6.77969E+02 -3.43945E+03  1.86224E+03 -4.19496E+03  4.29155E+03 -2.34765E+03
  4.05369E+03 -1.96906E+02  1.43951E+03  2.39687E+03 -9.35879E+02  5.70998E+03 -3.14594E+03  2.38999E+03
