 $NMID ID='MM_0lb_SNR200_15hz_g50_18.RAW', FMTDAT='(8E13.5)'
 TRAMP=1., VOLUME=1. $END
  3.09024E+05  1.28239E+03  3.37555E+05  2.48895E+05  8.44351E+04  3.37201E+05 -1.32089E+05  2.51501E+05
 -1.90111E+05  8.30415E+04 -1.11762E+05 -3.23259E+04  1.75366E+03 -5.11852E+04  5.43317E+04 -2.53433E+01
  3.79873E+04  5.30835E+04 -1.76410E+04  7.56443E+04 -6.05110E+04  6.36680E+04 -8.40505E+04  3.19166E+04
 -8.17263E+04 -1.15248E+04 -5.75150E+04 -4.97247E+04 -1.57064E+04 -6.85182E+04  2.80761E+04 -4.57150E+04
  4.07420E+04  3.96458E+03  1.73064E+04  4.91600E+04 -3.29525E+04  4.70119E+04 -6.58779E+04 -7.18437E+02
 -5.38892E+04 -5.61785E+04 -8.47822E+03 -7.71032E+04  3.34085E+04 -5.57784E+04  4.79987E+04 -1.84780E+04
  4.35833E+04  1.19889E+04  3.22293E+04  2.52256E+04  1.65485E+04  2.91637E+04 -4.52334E+03  2.77247E+04
 -2.24064E+04  1.18837E+04 -1.88773E+04 -4.89838E+03  5.53028E+03 -6.86072E+03  2.27864E+04  1.29185E+04
  6.87763E+03  3.53490E+04 -3.14609E+04  3.51241E+04 -6.27664E+04  1.94573E+03 -5.57563E+04 -4.26691E+04
 -1.20167E+04 -6.22177E+04  4.05373E+04 -4.42360E+04  5.84501E+04 -2.36138E+03  3.25405E+04  3.21432E+04
 -5.99854E+03  3.58150E+04 -2.94951E+04  1.53661E+04 -3.02669E+04 -4.52018E+03 -1.63963E+04 -1.22363E+04
 -8.48796E+03 -1.30024E+04  4.92072E+02 -1.83410E+04  6.96501E+03 -2.45137E+04  1.55731E+04 -1.39063E+04
  1.14522E+04  4.95149E+03 -7.38077E+03  1.32608E+04 -2.11336E+04 -4.44452E+03 -8.26790E+03 -3.28698E+04
  2.17286E+04 -4.34242E+04  4.88426E+04 -1.86917E+04  4.40071E+04  1.86045E+04  1.52002E+04  4.37298E+04
 -1.53811E+04  3.27134E+04 -2.55409E+04  1.19200E+03 -9.36960E+03 -2.82909E+04  2.08719E+04 -3.45632E+04
  4.02935E+04 -9.37805E+03  3.62678E+04  2.35261E+04  1.72682E+04  4.72024E+04 -8.17498E+03  4.99862E+04
 -3.05326E+04  3.41841E+04 -4.04643E+04  9.89523E+03 -4.01611E+04 -1.85254E+04 -2.45199E+04 -3.81260E+04
  7.04415E+03 -3.76133E+04  3.07469E+04 -1.40883E+04  2.88914E+04  1.03562E+04  4.63315E+03  1.91742E+04
 -1.35957E+04  8.26906E+03 -9.79857E+03 -7.38912E+03  5.24028E+03 -1.10791E+04  1.80892E+04  5.99790E+03
  1.26464E+04  2.28234E+04 -5.88372E+03  2.52157E+04 -2.19109E+04  1.19358E+04 -2.76578E+04 -5.44811E+03
 -2.02226E+04 -1.72624E+04 -8.53173E+03 -1.90840E+04  4.76470E+03 -1.80397E+04  1.51421E+04 -1.68746E+04
  2.52203E+04 -1.30270E+04  3.11122E+04  1.70365E+03  2.36206E+04  2.03161E+04  2.97490E+03  3.53938E+04
 -1.72769E+04  3.05550E+04 -2.76699E+04  1.03464E+04 -2.09188E+04 -1.06850E+04 -5.24997E+03 -1.42356E+04
  2.23007E+03 -3.80920E+03 -4.06449E+03  6.76358E+03 -1.53161E+04  3.93614E+03 -1.69001E+04 -6.71017E+03
 -9.49959E+03 -1.78575E+04  4.09993E+03 -2.07436E+04  1.59227E+04 -1.63002E+04  1.65781E+04 -1.15215E+03
  1.09505E+04  1.24374E+04 -8.36411E+02  1.80886E+04 -1.23504E+04  1.01850E+04 -1.79837E+04 -4.72286E+03
 -1.35018E+04 -1.70070E+04 -1.20931E+03 -2.19125E+04  1.06572E+04 -1.76585E+04  1.83378E+04 -8.43301E+03
  1.70764E+04  4.78968E+02  1.24374E+04  4.46860E+03  7.34803E+03  1.22790E+03  9.30029E+03 -2.26686E+03
  1.72338E+04  2.58029E+03  1.75302E+04  1.40229E+04  1.26447E+04  2.90388E+04 -2.74671E+03  3.38677E+04
 -1.79552E+04  2.53297E+04 -3.05089E+04  1.32178E+04 -3.20507E+04 -2.89768E+03 -2.66296E+04 -1.81146E+04
 -1.11690E+04 -2.63407E+04  8.87502E+03 -2.39025E+04  2.06640E+04 -1.21094E+04  1.94949E+04  4.20692E+03
  6.53724E+03  1.31528E+04 -9.01672E+03  1.25514E+04 -1.56078E+04  6.14903E+02 -1.27672E+04 -9.78859E+03
 -1.16653E+03 -1.38293E+04  6.70384E+03 -1.17727E+04  8.72790E+03 -9.01361E+02  2.00285E+03  5.51323E+03
 -6.93031E+03  2.71312E+03 -4.89195E+03 -6.45819E+03  3.56450E+02 -1.40035E+04  9.78301E+03 -1.29030E+04
  1.56978E+04 -6.89835E+03  1.60415E+04  4.58270E+03  1.46195E+04  1.24473E+04  7.83436E+03  1.92138E+04
 -2.89641E+03  2.07582E+04 -1.34368E+04  1.33890E+04 -1.40310E+04  2.95807E+03 -9.55522E+03 -3.62548E+03
 -6.21129E+03 -5.18005E+03 -1.04037E+03  2.75885E+02 -1.99414E+03  2.46846E+03 -5.30150E+03  4.44881E+03
 -1.10197E+04 -1.18944E+02 -9.86891E+03 -9.71148E+03 -4.26746E+03 -1.41309E+04  3.79710E+03 -1.10481E+04
  9.02104E+03 -4.79644E+03  6.55775E+03  3.29523E+03  2.07427E+02  4.39230E+03 -5.65778E+03 -4.72539E+02
 -6.22941E+03 -6.91291E+03 -1.40818E+03 -9.22997E+03  5.12831E+03 -1.04800E+04  1.42337E+04 -6.27273E+03
  1.47568E+04  2.01003E+03  1.09691E+04  8.29667E+03  2.01337E+03  1.13987E+04 -6.06382E+03  1.04486E+04
 -8.34771E+03  3.02147E+03 -4.14610E+03 -1.01059E+03  1.49425E+03 -2.26449E+03  5.93396E+03 -2.66206E+03
  4.99463E+03  5.09775E+03  1.85528E+02  7.64825E+03 -6.02164E+03  9.14073E+03 -9.64000E+03  1.03525E+03
 -6.85101E+03 -4.98406E+03  3.78229E+02 -7.85714E+03  5.35881E+03 -2.89594E+03  4.90414E+03  2.73005E+03
  1.44216E+03  5.66618E+03 -4.05658E+03  5.91832E+03 -8.06760E+03  3.12228E+03 -7.97850E+03 -1.38105E+03
 -3.36737E+03 -9.37980E+03  1.64237E+03 -9.80085E+03  8.76062E+03 -6.33789E+03  8.79925E+03  2.49496E+03
  7.17463E+03  9.11499E+03 -5.96331E+02  1.02440E+04 -7.16738E+03  6.26108E+03 -7.75725E+03  6.49655E+01
 -7.92769E+03 -6.54037E+03 -1.24653E+03 -7.31984E+03  4.36816E+03 -5.62642E+03  4.19491E+03 -3.71055E+03
  4.74257E+03  1.06836E+03  2.18182E+02  2.03730E+03  4.01406E+02 -2.84825E+03  1.14989E+03 -2.87001E+03
  6.13256E+03 -2.99310E+03  9.03822E+03  1.17210E+03  7.93643E+03  6.21973E+03  6.67875E+03  1.13076E+04
 -3.27779E+03  1.37150E+04 -9.39891E+03  8.57890E+03 -1.38845E+04  2.96060E+03 -1.21699E+04 -4.27358E+03
 -5.19117E+03 -8.25724E+03 -5.05706E+02 -7.08094E+03  3.22810E+03 -3.89980E+03  1.94090E+03 -3.93736E+03
  2.03879E+03 -1.02697E+03  3.05091E+03 -2.04098E+03  4.82288E+03 -1.34799E+03  5.24701E+03 -7.18667E+02
  5.41566E+03  1.87518E+03  2.18754E+03  4.94494E+03 -1.87638E+03  5.38439E+03 -5.42159E+03  3.20374E+03
 -8.07799E+03 -1.39905E+03 -3.29152E+03 -5.08857E+03  3.78915E+02 -8.59810E+03  5.32705E+03 -7.35231E+03
  8.14569E+03 -5.51441E+03  9.68432E+03  1.54391E+02  7.11723E+03  6.72043E+03  1.20267E+03  9.02852E+03
 -4.04157E+03  7.49275E+03 -5.40156E+03  1.74508E+03 -3.18557E+03 -1.79193E+03 -1.58748E+03 -3.95182E+01
 -5.95633E+02 -5.77474E+02 -3.55308E+02  3.02730E+03 -2.25560E+03  1.37965E+03 -5.74398E+03 -7.33746E+02
 -3.38743E+03 -6.15153E+03  1.25268E+03 -7.52047E+03  3.71906E+03 -6.76554E+03  6.02254E+03 -2.31744E+03
  7.93765E+03  3.82997E+03  2.72015E+03  5.79479E+03 -2.06348E+03  7.92930E+03 -4.28250E+03  4.53494E+03
 -6.39961E+03  4.24438E+02 -5.07562E+03 -4.27625E+03 -5.02343E+02 -4.56655E+03  3.61095E+03 -4.19513E+03
  4.96074E+03 -1.26409E+03  2.54725E+03  8.50308E+02  4.05289E+02  1.54874E+03 -8.32800E+01  1.23803E+03
  3.74085E+03 -4.79035E+02  2.46826E+03  1.39869E+03  1.85626E+03  3.44143E+03  3.60623E+02  2.28401E+03
 -3.40637E+03  5.52950E+03 -5.14606E+03  5.84726E+03 -5.28020E+03  2.82530E+03 -7.29897E+03 -1.59753E+03
 -2.44156E+03 -6.38567E+03  1.89071E+03 -7.63765E+03  2.34066E+03 -4.66780E+03  6.74745E+03 -8.78104E+02
  5.00586E+03  4.34308E+03  5.03343E+02  4.18676E+03 -2.87886E+03  2.26105E+03 -1.76803E+03 -7.36738E+02
 -2.72624E+03 -2.20427E+03  8.07363E+02 -2.57518E+03  3.04804E+03 -2.11907E+03  2.37434E+03  1.53813E+03
  1.73129E+03  5.20753E+02  4.20955E+02  5.55071E+02  2.27998E+02  5.91005E+02  1.91934E+03 -3.82143E+02
  7.18119E+02 -7.47105E+02  1.91103E+03  9.98161E+02  4.62062E+02  3.72848E+03 -6.46476E+02  4.55144E+03
 -2.99767E+03  3.63676E+03 -3.84544E+03 -6.32673E+01 -1.97355E+03 -9.12015E+02 -8.90538E+02 -2.34184E+03
 -5.36812E+02 -1.84223E+03  1.85764E+03 -1.64901E+03  1.00895E+03  2.18549E+03 -1.36728E+03  1.51969E+03
 -2.23142E+03  6.66465E+02 -2.93713E+03 -1.33538E+03 -1.13548E+03 -3.87618E+03 -8.70347E+01 -2.83557E+03
  1.81549E+03 -2.12383E+03  1.32186E+03  1.10647E+03  2.32880E+03  2.05417E+03  7.81139E+02  2.77286E+03
 -1.78675E+03  7.74367E+01 -1.88011E+03 -1.18650E+03 -1.47213E+02 -2.78191E+03  3.56244E+03 -1.75201E+02
  1.95478E+03  2.45647E+02  2.86416E+03  2.38111E+03  8.61669E+02  3.71749E+03 -1.06162E+03  3.71217E+03
 -2.76817E+03  2.03426E+03 -1.75633E+03 -7.77042E+02 -1.88025E+03 -4.40213E+03  6.49654E+02 -1.88719E+03
  1.61517E+03 -1.18836E+03  1.30592E+03  1.09761E+03  2.39441E+02  1.35250E+03 -1.07050E+03  1.69984E+03
 -1.73805E+03  1.39691E+03  4.39163E+02  9.57506E+02 -2.39860E+02  8.66275E+02 -2.24411E+03 -1.54503E+02
 -5.61605E+02  1.30761E+03 -2.34779E+03  5.55117E+02 -3.58609E+03  3.43899E+01 -3.93609E+03 -1.49391E+03
 -3.62333E+03 -3.90040E+03  1.09230E+03 -4.39059E+03  2.06891E+03 -3.99348E+03  4.47159E+03 -1.35232E+03
  4.42131E+03  7.38978E+02  3.29793E+03  3.03890E+03  6.24994E+02  2.89920E+03 -2.17953E+03  2.70631E+03
 -2.71606E+03  1.31103E+03 -1.20784E+03 -3.05497E+02 -9.70200E+02 -7.50644E+02  7.65364E+01 -7.01143E+02
 -1.28989E+03  7.12237E+01 -1.11966E+02  3.50218E+02 -4.63659E+02 -1.56170E+03 -1.25189E+03 -4.60382E+02
  1.19915E+03 -2.10850E+03  1.96300E+03  2.27145E+02  1.05718E+03  6.80706E+02  5.60626E+01  3.15281E+03
 -1.85440E+03  5.15907E+03 -3.79828E+03  3.12127E+03 -2.79688E+03 -4.20939E+02 -3.24050E+03 -2.66499E+03
 -1.28002E+03 -1.79926E+03  7.83252E+02 -3.06479E+03  9.55061E+02 -1.49403E+03  1.34586E+03  4.95111E+02
  1.62936E+03 -1.36646E+02 -1.21985E+03  4.59972E+02  1.80141E+02  9.36148E+01  3.86522E+02 -8.66857E+02
  3.71461E+02 -3.82384E+02  1.44955E+03  9.66149E+02 -2.02926E+02  2.43252E+01 -4.63865E+02  2.82811E+03
 -1.42063E+03  1.66515E+03 -1.06850E+03 -6.78115E+02 -2.29106E+03 -2.49357E+03 -2.76846E+02 -2.41373E+03
  2.17924E+03 -1.91989E+03  2.76154E+03 -6.62383E+02  1.49227E+03 -7.80479E+02  1.12558E+03  1.89593E+03
  3.49364E+02  9.87009E+02 -1.56004E+03  8.88075E+02 -9.82498E+02  6.66524E+02 -1.76452E+03  8.64326E+02
 -1.15385E+03  1.96068E+02 -2.08481E+02 -4.15399E+02 -4.90882E+02 -3.46119E+01 -2.61625E+03  5.44421E+02
 -2.03938E+03  3.20696E+02 -2.82790E+02 -9.77023E+02  8.12874E+02 -3.51388E+03  2.88284E+03 -1.48879E+03
  1.29221E+03 -1.66031E+02 -3.57566E+02  1.01977E+03 -3.91530E+02  2.69390E+03 -1.63810E+03  2.12535E+03
