 $NMID ID='MM_0lb_SNR200_8hz_g50_35.RAW', FMTDAT='(8E13.5)'
 TRAMP=1., VOLUME=1. $END
  3.09757E+05  7.88496E+02  3.39940E+05  2.52635E+05  8.43862E+04  3.37564E+05 -1.32022E+05  2.51097E+05
 -1.90512E+05  8.73809E+04 -1.13311E+05 -3.22692E+04  1.57945E+02 -5.02659E+04  5.35696E+04 -1.31352E+03
  3.66321E+04  5.38051E+04 -1.68895E+04  7.51796E+04 -6.04856E+04  6.34132E+04 -8.54250E+04  3.17341E+04
 -8.24354E+04 -1.27347E+04 -5.83568E+04 -5.24519E+04 -1.50319E+04 -7.14623E+04  2.68888E+04 -4.75509E+04
  4.00529E+04  2.91005E+03  1.78817E+04  4.82565E+04 -3.65141E+04  4.72448E+04 -6.75689E+04  5.31412E+02
 -5.49153E+04 -5.82962E+04 -7.48813E+03 -8.10439E+04  3.50106E+04 -5.78702E+04  4.87865E+04 -1.77582E+04
  4.72342E+04  1.13606E+04  3.27913E+04  2.61265E+04  1.67520E+04  3.30655E+04 -7.07490E+03  2.75126E+04
 -2.28414E+04  1.23358E+04 -1.82839E+04 -5.86268E+03  6.94252E+03 -6.92361E+03  2.39208E+04  1.39911E+04
  6.31012E+03  3.74070E+04 -3.44549E+04  3.61964E+04 -6.68526E+04  1.18082E+03 -5.93402E+04 -4.39338E+04
 -1.41824E+04 -6.54899E+04  4.17233E+04 -4.78885E+04  6.23867E+04 -3.37481E+03  3.68295E+04  3.48356E+04
 -4.77491E+03  4.03604E+04 -3.10037E+04  1.82337E+04 -3.46649E+04 -2.73534E+03 -2.07152E+04 -1.21099E+04
 -1.03069E+04 -1.52990E+04 -1.36847E+03 -1.99380E+04  8.30309E+03 -2.28791E+04  1.52659E+04 -1.35013E+04
  1.05786E+04  6.48105E+03 -1.26314E+04  1.19804E+04 -2.28582E+04 -8.11350E+03 -7.03226E+03 -3.81927E+04
  2.56205E+04 -4.63490E+04  5.33641E+04 -2.12594E+04  4.98031E+04  1.94756E+04  1.85134E+04  4.74007E+04
 -1.70573E+04  3.67506E+04 -2.89081E+04  3.66320E+03 -1.28000E+04 -3.12226E+04  2.19051E+04 -3.89059E+04
  4.49496E+04 -1.05328E+04  4.16272E+04  2.48978E+04  2.30488E+04  5.18958E+04 -9.83437E+03  5.90479E+04
 -3.47728E+04  3.85321E+04 -4.86777E+04  1.26653E+04 -4.81756E+04 -1.99106E+04 -2.62117E+04 -4.20346E+04
  8.87340E+03 -4.09199E+04  3.48663E+04 -1.76158E+04  3.33077E+04  1.04383E+04  6.86737E+03  2.01024E+04
 -1.55442E+04  1.01583E+04 -1.08353E+04 -6.65361E+03  5.50200E+03 -1.26785E+04  1.95807E+04  6.33275E+03
  1.59269E+04  2.22218E+04 -4.90206E+03  2.81973E+04 -2.31304E+04  1.63205E+04 -3.27732E+04 -2.86069E+03
 -2.75620E+04 -1.79276E+04 -1.20838E+04 -2.58043E+04  3.88512E+03 -2.66622E+04  1.97784E+04 -2.31688E+04
  3.34435E+04 -1.25118E+04  3.82138E+04  5.41753E+03  2.70883E+04  2.42515E+04  3.62489E+03  4.20741E+04
 -1.97538E+04  3.30267E+04 -3.01933E+04  1.12617E+04 -2.25854E+04 -8.23606E+03 -5.27523E+03 -1.39276E+04
  6.70510E+02 -1.61228E+03 -9.21530E+03  1.02103E+04 -2.26209E+04  2.55979E+03 -2.11536E+04 -1.04233E+04
 -1.25516E+04 -2.46782E+04  5.56390E+03 -2.71809E+04  1.83597E+04 -1.95382E+04  2.42206E+04  1.77297E+02
  1.45862E+04  1.69948E+04 -3.22760E+03  2.27081E+04 -1.99771E+04  1.36959E+04 -2.45321E+04 -5.93666E+03
 -1.80964E+04 -2.20130E+04 -1.96262E+03 -2.99478E+04  1.16738E+04 -2.39593E+04  2.15764E+04 -1.43860E+04
  2.27642E+04 -1.47410E+03  1.71359E+04  5.81498E+03  9.80046E+03  2.32257E+03  1.27659E+04 -2.80923E+03
  2.28742E+04  3.64803E+03  2.69964E+04  1.99426E+04  1.93269E+04  3.76041E+04 -1.50523E+03  4.62073E+04
 -2.71801E+04  3.84460E+04 -4.37152E+04  1.94536E+04 -4.80354E+04 -4.32158E+03 -3.66248E+04 -2.71802E+04
 -1.34875E+04 -3.87007E+04  1.35929E+04 -3.40494E+04  3.21167E+04 -1.48053E+04  2.56916E+04  7.70068E+03
  7.68289E+03  2.03875E+04 -1.16072E+04  1.54469E+04 -2.24870E+04  8.45201E+02 -1.57708E+04 -1.37209E+04
 -7.21186E+02 -2.01690E+04  1.18931E+04 -1.64968E+04  1.43866E+04 -6.53201E+02  3.88015E+03  6.96953E+03
 -7.89189E+03  4.70409E+03 -8.88069E+03 -7.99449E+03 -1.15224E+03 -2.16979E+04  1.40881E+04 -2.12404E+04
  2.52295E+04 -1.26425E+04  2.74330E+04  4.28688E+03  2.46205E+04  2.09075E+04  1.19788E+04  3.26577E+04
 -4.96120E+03  3.41199E+04 -2.36390E+04  2.12431E+04 -2.44301E+04  4.84105E+03 -1.74368E+04 -6.72841E+03
 -6.12916E+03 -7.45366E+03 -1.69664E+03  6.81474E+02 -3.07145E+03  5.70083E+03 -9.19230E+03  5.48260E+03
 -1.67101E+04 -2.09060E+03 -1.44850E+04 -1.23627E+04 -5.73682E+03 -2.16422E+04  7.21123E+03 -1.47778E+04
  1.35871E+04 -8.56102E+03  1.05321E+04  5.00314E+03  8.47149E+02  7.21062E+03 -8.41271E+03  1.52691E+03
 -7.84143E+03 -1.15861E+04 -1.47436E+03 -1.65289E+04  1.06731E+04 -1.79460E+04  2.06235E+04 -8.71137E+03
  2.46590E+04  2.54193E+03  1.86109E+04  1.58559E+04  4.00505E+03  2.10429E+04 -1.09739E+04  1.54123E+04
 -1.26740E+04  6.05998E+03 -6.39731E+03 -5.06331E+03  5.43894E+02 -5.60263E+03  8.85037E+03 -2.38569E+03
  7.12280E+03  8.30133E+03  2.32646E+02  1.41515E+04 -1.01401E+04  1.21713E+04 -1.66746E+04  3.68249E+03
 -1.08078E+04 -7.94784E+03  5.60355E+01 -1.62969E+04  9.32528E+03 -7.65382E+03  9.53084E+03  3.52576E+03
  3.16595E+03  1.01093E+04 -8.71778E+03  1.35650E+04 -1.49856E+04  4.18544E+03 -1.61664E+04 -4.08749E+03
 -6.84604E+03 -1.75276E+04  4.18837E+03 -2.07045E+04  1.77224E+04 -1.06714E+04  1.85277E+04  2.43913E+03
  1.03671E+04  1.31764E+04 -1.51642E+03  1.46433E+04 -1.30253E+04  8.98548E+03 -1.35984E+04 -1.44794E+03
 -1.19162E+04 -1.19439E+04 -5.17515E+02 -1.34249E+04  5.82902E+03 -1.07996E+04  8.88124E+03 -1.70453E+03
  5.05665E+03  2.71620E+03 -2.63667E+03  3.38465E+03 -2.79597E+03 -3.18672E+03  4.75325E+03 -1.00668E+04
  1.24651E+04 -6.47067E+03  1.89943E+04  2.29816E+03  1.71629E+04  1.12649E+04  1.22158E+04  2.38995E+04
 -3.41303E+03  2.57212E+04 -2.19494E+04  1.92211E+04 -2.76666E+04  3.93816E+03 -2.24849E+04 -1.06182E+04
 -9.59415E+03 -2.02081E+04 -8.81451E+02 -1.67985E+04  5.03466E+03 -8.90859E+03  6.38671E+03 -6.29849E+03
  4.87398E+03 -3.14627E+03  4.36314E+03 -4.80312E+03  5.21819E+03 -2.93193E+03  6.53018E+03 -2.36320E+03
  1.26101E+04  5.16283E+03  6.33596E+03  1.09762E+04 -1.80156E+03  1.22566E+04 -1.48008E+04  7.66401E+03
 -1.59930E+04 -1.34436E+03 -1.16322E+04 -1.16585E+04 -2.10036E+03 -1.85917E+04  1.04984E+04 -1.61670E+04
  1.83424E+04 -9.88037E+03  2.13662E+04  3.46552E+03  1.50339E+04  1.68088E+04  2.28760E+03  1.98038E+04
 -9.04839E+03  1.52514E+04 -1.25071E+04  5.22924E+03 -9.63309E+03 -1.58443E+03 -3.60905E+03 -2.96427E+03
 -1.66846E+03  1.12622E+02 -1.55281E+03  2.55995E+03 -6.44692E+03  3.13782E+03 -1.28399E+04 -3.01338E+03
 -8.52434E+03 -1.21006E+04 -9.28029E+00 -1.73702E+04  1.03578E+04 -1.53523E+04  1.70220E+04 -4.83295E+03
  1.79132E+04  7.56845E+03  7.05176E+03  1.64586E+04 -2.34335E+03  1.66477E+04 -1.46124E+04  1.07968E+04
 -1.51058E+04  2.63864E+02 -1.16143E+04 -1.07161E+04 -1.25387E+03 -1.46751E+04  7.21127E+03 -9.45625E+03
  9.88422E+03 -4.28170E+03  6.32856E+03  2.21937E+03  2.44686E+03  5.92319E+03  3.78002E+03  1.46924E+03
  4.12028E+03  1.09811E+03  3.79187E+03  3.51154E+02  6.15190E+03  4.23074E+03  4.41063E+03  8.73337E+03
 -4.21101E+03  1.34804E+04 -1.08309E+04  1.25816E+04 -1.58620E+04  3.99832E+03 -1.83067E+04 -7.73427E+03
 -1.05357E+04 -1.77919E+04  7.33148E+02 -1.77775E+04  1.05949E+04 -1.26491E+04  1.37095E+04 -3.57573E+03
  9.61300E+03  6.60288E+03 -1.28038E+01  1.05949E+04 -4.09875E+03  5.09961E+03 -7.39004E+03 -1.06312E+03
 -2.52733E+03 -5.64838E+03  4.71745E+03 -7.98200E+03  7.23519E+03 -2.74757E+03  5.83758E+03  2.65482E+03
  5.27444E+03  3.63302E+03  5.48189E+02  2.74777E+03 -1.03596E+03  1.97902E+03  2.35274E+03 -3.47173E+02
  3.03637E+03 -1.58402E+03  7.50926E+03  2.62256E+03  3.03654E+03  8.78568E+03 -8.82838E+02  1.25562E+04
 -6.75838E+03  9.14957E+03 -9.93831E+03  1.26455E+03 -9.26189E+03 -2.88297E+03 -3.73791E+03 -7.57106E+03
  1.10999E+03 -7.87282E+03  5.58927E+03 -1.27254E+03  4.43390E+03  3.94658E+03 -1.08202E+03  5.11973E+03
 -7.44897E+03  4.11203E+03 -9.71789E+03 -3.07898E+03 -2.98195E+03 -1.00120E+04  1.09432E+03 -8.31277E+03
  6.12952E+03 -7.56505E+03  7.08244E+03  3.01189E+02  5.45682E+03  2.19253E+03  5.14696E+02  4.58003E+03
 -3.94068E+03  2.05343E+03 -4.11258E+03 -2.98723E+03  2.01904E+03 -8.33575E+03  8.78185E+03 -7.90487E+03
  1.15186E+04  1.20954E+03  1.13314E+04  9.49132E+03  4.56245E+03  1.30195E+04 -5.07374E+03  1.12600E+04
 -1.00554E+04  5.47790E+03 -9.84237E+03 -1.46462E+03 -4.55291E+03 -8.62886E+03  4.05831E+02 -6.38213E+03
  6.29621E+03 -4.34801E+03  7.09399E+03  3.45953E+03  1.30638E+03  5.98173E+03 -2.15570E+03  5.97029E+03
 -2.19424E+03  3.88244E+03 -5.03243E+03  5.38305E+02 -2.37157E+03  1.27531E+03 -1.48043E+03  3.44328E+03
 -4.05510E+03  4.34853E+03 -7.37373E+03  4.93856E+03 -1.10077E+04  2.65274E+03 -1.52641E+04 -7.30949E+03
 -7.18148E+03 -1.57733E+04  2.82138E+03 -1.84662E+04  1.15680E+04 -1.42413E+04  1.91230E+04 -6.36160E+03
  1.56388E+04  2.53293E+03  9.91185E+03  9.49009E+03  8.34754E+02  1.45736E+04 -6.76244E+03  8.81585E+03
 -7.90710E+03  4.58894E+03 -5.45147E+03 -2.27126E+03 -4.60445E+02 -9.56438E+02 -1.09845E+03 -5.78454E+02
 -1.14814E+03  1.29004E+03 -3.51868E+03 -1.84620E+03 -2.81324E+03 -3.65272E+03 -5.82881E+02 -2.84181E+03
  5.05662E+03 -2.58375E+03  6.54667E+03 -3.80598E+02  8.67333E+03  8.18361E+03  2.73596E+03  1.22024E+04
 -6.32417E+03  1.61619E+04 -1.26783E+04  8.29025E+03 -1.44126E+04 -5.08506E+02 -1.30085E+04 -8.43384E+03
 -5.50498E+03 -1.10323E+04  4.21412E+03 -1.17119E+04  6.13148E+03 -7.28331E+03  6.96520E+03 -2.83945E+02
  4.71411E+03  4.24081E+03 -1.42218E+03  3.88003E+03 -2.83308E+03  9.87870E+02  8.99696E+02 -3.43796E+03
  3.23036E+03 -2.90724E+03  5.37606E+03  2.56506E+02  3.05073E+03  4.49144E+03 -5.98070E+02  6.31913E+03
 -6.03698E+03  6.36301E+03 -7.94017E+03  1.20507E+03 -7.43779E+03 -7.20858E+03 -2.59649E+02 -9.63112E+03
  5.08146E+03 -8.92990E+03  1.13674E+04 -3.11892E+03  8.89832E+03  2.17758E+03  6.00819E+03  6.42537E+03
  2.69743E+03  6.03939E+03 -1.55995E+03  6.48619E+03 -5.59004E+03  4.34912E+03 -4.22060E+03  7.55538E+02
 -4.08126E+03 -6.15583E+02 -2.00929E+03  9.80325E+02 -3.14629E+03  1.45963E+03 -7.20532E+03 -1.00149E+03
 -5.56252E+03 -4.80147E+03 -1.50171E+03 -8.10183E+03  5.00211E+03 -8.41568E+03  7.28079E+03 -4.54452E+03
  8.83844E+03  4.55934E+03  6.45568E+03  4.01826E+03 -1.80514E+03  8.37558E+03 -5.04984E+03  6.86560E+03
