 $NMID ID='MM_0lb_SNR200_11hz_g40_9.RAW', FMTDAT='(8E13.5)'
 TRAMP=1., VOLUME=1. $END
  3.10540E+05  6.59733E+02  3.38367E+05  2.50671E+05  8.50926E+04  3.37988E+05 -1.32264E+05  2.51439E+05
 -1.90226E+05  8.39979E+04 -1.12163E+05 -3.29150E+04  7.59424E+02 -4.98100E+04  5.28128E+04 -1.20561E+03
  3.57554E+04  5.28004E+04 -1.71713E+04  7.58628E+04 -6.06458E+04  6.42638E+04 -8.43080E+04  3.24157E+04
 -8.18219E+04 -1.02155E+04 -5.77185E+04 -5.12454E+04 -1.46731E+04 -6.97938E+04  2.77176E+04 -4.64050E+04
  4.00873E+04  3.92089E+03  1.67599E+04  4.91402E+04 -3.42536E+04  4.71216E+04 -6.69476E+04 -3.53777E+02
 -5.37255E+04 -5.78249E+04 -6.57414E+03 -7.78940E+04  3.29390E+04 -5.59129E+04  4.86337E+04 -1.54031E+04
  4.49779E+04  1.18919E+04  3.06605E+04  2.61082E+04  1.60225E+04  3.00113E+04 -5.49411E+03  2.73396E+04
 -2.19771E+04  1.27696E+04 -1.95942E+04 -5.71520E+03  5.88951E+03 -6.72276E+03  2.30072E+04  1.16180E+04
  7.36500E+03  3.67542E+04 -3.25296E+04  3.72498E+04 -6.39923E+04  1.61151E+03 -5.69293E+04 -4.14493E+04
 -1.40206E+04 -6.54709E+04  4.11185E+04 -4.53522E+04  5.99997E+04 -1.92856E+03  3.55135E+04  3.33098E+04
 -7.32546E+03  3.79807E+04 -2.99939E+04  1.57820E+04 -3.07621E+04 -2.56918E+03 -1.78880E+04 -1.05452E+04
 -9.56661E+03 -1.48589E+04 -1.56063E+02 -1.87814E+04  6.89177E+03 -2.25129E+04  1.49935E+04 -1.34470E+04
  1.00447E+04  6.21056E+03 -9.46012E+03  1.29168E+04 -2.20348E+04 -4.56387E+03 -8.22898E+03 -3.43203E+04
  2.32139E+04 -4.61736E+04  4.99115E+04 -1.96195E+04  4.64015E+04  1.92224E+04  1.70003E+04  4.58193E+04
 -1.58303E+04  3.38735E+04 -2.61930E+04  2.57611E+03 -9.89216E+03 -2.85466E+04  2.14035E+04 -3.58869E+04
  4.35192E+04 -8.76526E+03  3.69045E+04  2.28488E+04  1.93385E+04  4.69265E+04 -9.00787E+03  5.19804E+04
 -3.24808E+04  3.47544E+04 -4.44495E+04  1.05370E+04 -4.35442E+04 -1.64001E+04 -2.48270E+04 -3.99151E+04
  6.80695E+03 -3.94178E+04  3.20129E+04 -1.47869E+04  3.08520E+04  1.13612E+04  3.87355E+03  1.90537E+04
 -1.18630E+04  1.00672E+04 -1.18562E+04 -8.96052E+03  5.89191E+03 -1.03249E+04  1.67179E+04  6.57846E+03
  1.44629E+04  2.30415E+04 -5.22054E+03  2.78131E+04 -2.23692E+04  1.28973E+04 -3.00801E+04 -4.19967E+03
 -2.25472E+04 -1.87721E+04 -9.02424E+03 -2.19325E+04  4.62480E+03 -2.08848E+04  1.84893E+04 -1.92446E+04
  2.77201E+04 -1.35677E+04  3.55351E+04  4.60704E+03  2.48105E+04  2.05681E+04  3.49508E+03  3.87811E+04
 -1.68534E+04  3.12739E+04 -2.83203E+04  1.08948E+04 -2.13520E+04 -1.08570E+04 -3.66128E+03 -1.19195E+04
  5.23893E+02 -2.42120E+03 -6.13499E+03  8.30469E+03 -1.91767E+04  5.30785E+03 -1.71704E+04 -8.74888E+03
 -1.07019E+04 -2.09170E+04  5.84690E+03 -2.48483E+04  1.60295E+04 -1.81056E+04  1.98214E+04 -5.35606E+02
  1.17287E+04  1.28635E+04 -1.63892E+03  2.01688E+04 -1.37057E+04  1.27587E+04 -2.08823E+04 -3.84676E+03
 -1.56670E+04 -1.85764E+04 -1.33973E+03 -2.47095E+04  1.19290E+04 -2.06710E+04  2.06187E+04 -1.10852E+04
  2.01571E+04  4.33492E+02  1.46376E+04  4.07296E+03  8.76466E+03  1.72864E+03  1.07558E+04 -1.90084E+03
  1.91893E+04  2.83585E+03  2.15272E+04  1.69064E+04  1.46042E+04  3.23581E+04 -1.86791E+03  3.80950E+04
 -2.13054E+04  3.05601E+04 -3.59547E+04  1.59677E+04 -3.91227E+04 -3.91701E+03 -3.22071E+04 -2.09402E+04
 -1.37059E+04 -3.03509E+04  1.01647E+04 -2.81380E+04  2.25366E+04 -1.43440E+04  2.19097E+04  6.93842E+03
  6.15874E+03  1.50415E+04 -9.62628E+03  1.28704E+04 -1.79438E+04  2.04194E+03 -1.14472E+04 -1.11883E+04
 -7.46171E+02 -1.70707E+04  8.54068E+03 -1.41344E+04  1.01401E+04 -1.08741E+03  3.34994E+03  7.33499E+03
 -8.35215E+03  3.94213E+03 -7.32521E+03 -4.76406E+03 -2.10919E+03 -1.53976E+04  1.05820E+04 -1.54467E+04
  1.90776E+04 -7.48711E+03  1.98021E+04  3.71487E+03  1.69112E+04  1.61318E+04  8.87867E+03  2.45295E+04
 -4.44728E+03  2.54585E+04 -1.71613E+04  1.55228E+04 -1.94352E+04  4.51842E+03 -1.36037E+04 -4.44660E+03
 -6.10792E+03 -5.03438E+03 -8.64217E+02  1.90888E+03 -3.64277E+03  3.08624E+03 -5.56941E+03  3.54957E+03
 -1.28703E+04 -1.51461E+03 -1.18661E+04 -9.53076E+03 -5.43428E+03 -1.60003E+04  6.22287E+03 -1.32617E+04
  1.18888E+04 -5.81398E+03  9.27534E+03  2.78744E+03  5.96719E+02  5.40983E+03 -6.75965E+03 -8.12746E+02
 -6.38351E+03 -8.32553E+03 -7.21640E+02 -1.29095E+04  8.39802E+03 -1.20042E+04  1.75011E+04 -7.48434E+03
  1.91405E+04  1.88075E+03  1.41656E+04  1.20922E+04  2.59380E+03  1.56225E+04 -8.67145E+03  1.34393E+04
 -1.08761E+04  4.04131E+03 -5.32824E+03 -3.31373E+03  1.42679E+03 -4.76672E+03  5.98319E+03  2.61674E+02
  5.98676E+03  5.50873E+03  7.36263E+02  9.63771E+03 -6.29602E+03  9.75079E+03 -1.38302E+04  2.72569E+03
 -8.59870E+03 -5.97716E+03 -1.46325E+02 -1.12635E+04  6.75908E+03 -5.41667E+03  5.99181E+03  1.56798E+03
  1.35042E+03  6.71084E+03 -6.16589E+03  8.30833E+03 -1.03008E+04  4.98018E+03 -1.11675E+04 -4.76563E+03
 -5.87653E+03 -1.28599E+04  3.18232E+03 -1.39826E+04  1.24094E+04 -1.00424E+04  1.26632E+04  1.55898E+03
  8.92376E+03  1.01425E+04 -2.34649E+03  1.40314E+04 -8.28145E+03  7.90624E+03 -1.03979E+04 -2.65204E+02
 -9.22250E+03 -9.66191E+03 -8.40822E+02 -8.64697E+03  4.54955E+03 -9.48113E+03  6.80577E+03 -4.55336E+03
  3.81100E+03  2.15446E+03 -1.96075E+03  1.65136E+03 -1.32852E+02 -2.60266E+03  2.22829E+03 -5.17484E+03
  9.04265E+03 -8.34567E+02  1.22510E+04  2.74233E+03  1.22520E+04  8.25876E+03  7.88804E+03  1.53873E+04
 -3.66439E+03  1.79632E+04 -1.59152E+04  1.31365E+04 -1.99141E+04  3.51967E+03 -1.65691E+04 -6.46632E+03
 -8.68212E+03 -1.28207E+04 -5.08604E+02 -1.11711E+04  5.11964E+03 -5.65527E+03  5.22474E+03 -4.53946E+03
  1.90279E+03 -3.05903E+03  2.48857E+03 -3.91319E+03  4.74256E+03 -3.67872E+03  6.48942E+03 -1.95403E+03
  7.91647E+03  1.82099E+03  3.80360E+03  7.27538E+03 -3.11084E+03  8.96953E+03 -8.60585E+03  6.58903E+03
 -1.10225E+04 -3.34349E+02 -7.02533E+03 -8.12420E+03 -1.51211E+03 -1.15857E+04  7.16548E+03 -1.37448E+04
  1.25440E+04 -6.18931E+03  1.53159E+04  1.72201E+03  1.00976E+04  9.16045E+03  1.70058E+03  1.30084E+04
 -4.78646E+03  1.03850E+04 -7.94677E+03  4.64494E+03 -5.69729E+03 -1.25160E+03 -1.87861E+03 -1.93838E+03
 -1.37081E+03 -1.27895E+03 -2.46824E+03  2.03795E+03 -5.10127E+03  1.79645E+03 -6.76995E+03 -6.30454E+02
 -5.29566E+03 -8.21244E+03  5.53258E+02 -9.64857E+03  7.88039E+03 -1.00529E+04  1.04060E+04 -3.84877E+03
  1.13747E+04  4.02513E+03  6.86738E+03  9.03121E+03 -2.06905E+03  8.98323E+03 -7.80862E+03  7.14281E+03
 -9.90495E+03  2.07354E+02 -7.61991E+03 -6.89193E+03 -2.80257E+01 -1.05251E+04  4.87409E+03 -5.49932E+03
  6.98324E+03 -2.07557E+03  3.44803E+03  2.78179E+03  2.85845E+03  3.66105E+03  2.02400E+03  9.40432E+02
  2.19607E+03 -7.99878E+01  2.20256E+03  1.18734E+03  2.74489E+03  3.58470E+03  1.94316E+03  6.59049E+03
 -3.65234E+03  8.95393E+03 -7.91628E+03  9.78718E+03 -8.83632E+03  3.63518E+03 -1.22975E+04 -4.52376E+03
 -5.23118E+03 -1.16154E+04  1.92515E+03 -1.23946E+04  6.93902E+03 -8.98054E+03  9.19018E+03 -1.41787E+03
  6.32953E+03  3.74634E+03  1.55999E+03  6.78362E+03 -3.55631E+03  4.69483E+03 -4.58522E+03 -5.11420E+02
 -1.44202E+03 -4.08921E+03  2.88171E+03 -4.27995E+03  4.07063E+03 -1.29626E+03  4.08282E+03  1.42075E+03
  1.74519E+03  3.00787E+03  1.03037E+03  6.19650E+02 -2.11442E+02 -7.62667E+02  1.91835E+03 -4.72535E+02
  1.62690E+03 -4.05900E+02  3.66184E+03  2.50088E+03  2.20038E+03  6.23487E+03  3.00025E+02  7.41553E+03
 -6.01066E+03  4.82655E+03 -8.20279E+03 -2.39038E+01 -6.63017E+03 -2.54623E+03 -3.21663E+03 -3.26837E+03
  2.38263E+03 -3.93371E+03  3.04049E+03  1.51642E+02  2.48398E+03  2.55008E+03 -2.08774E+03  4.31463E+03
 -3.99523E+03  2.01283E+03 -3.32218E+03 -2.45129E+03 -3.85462E+03 -5.72586E+03  1.46567E+03 -7.29108E+03
  1.65145E+03 -3.87010E+03  3.33050E+03 -1.13926E+02  3.43021E+03  5.77946E+02  1.97404E+03  3.87923E+03
 -3.11160E+02  1.94510E+01 -2.32684E+03 -2.17046E+03  1.12226E+03 -4.17274E+03  6.34920E+03 -2.33785E+03
  5.25162E+03  1.52403E+03  6.96284E+03  4.70239E+03  8.88798E+02  6.86675E+03 -1.99063E+03  5.93433E+03
 -6.16632E+03  2.54807E+03 -6.07085E+03 -1.41933E+03 -2.89879E+03 -4.29837E+03  8.42724E+02 -3.38873E+03
  3.92830E+03 -2.40525E+03  3.64876E+03  2.38333E+03  1.57089E+03  5.09761E+03 -9.54779E+02  3.30207E+03
 -1.61738E+03  1.83302E+03 -1.59878E+03  2.04821E+03  2.27038E+02  2.17148E+02 -1.21476E+03  2.01309E+03
 -1.19073E+03  2.17349E+03 -5.15203E+03  8.24137E+02 -6.93671E+03  4.89029E+02 -7.64088E+03 -2.64546E+03
 -4.00537E+03 -7.11466E+03  1.51834E+03 -9.78132E+03  4.69186E+03 -8.84321E+03  9.78918E+03 -3.11756E+03
  9.19376E+03  2.89404E+03  6.02386E+03  6.01714E+03 -4.98889E+02  6.52823E+03 -3.70377E+03  3.42344E+03
 -4.17112E+03  8.05544E+02 -3.49629E+03 -2.04727E+03 -1.09131E+03 -8.36949E+02 -2.32500E+02 -4.93587E+02
 -1.87652E+03  5.31493E+02 -1.46523E+03  2.34412E+01 -8.78948E+02 -1.64773E+03 -1.55721E+02 -2.64047E+03
  3.29570E+03 -2.25431E+03  3.87366E+03  9.51656E+02  5.33232E+03  5.05789E+03  1.96733E+03  7.10773E+03
 -2.62469E+03  8.18594E+03 -6.02863E+03  5.05824E+03 -7.49564E+03 -2.84470E+03 -5.66920E+03 -5.54685E+03
 -2.44531E+03 -7.56716E+03  1.76739E+03 -6.92691E+03  5.13909E+03 -4.00805E+03  3.81081E+03  2.59996E+02
  1.92878E+03  6.19914E+02 -4.89959E+01  2.89737E+03 -1.08911E+03  3.29108E+02 -2.06163E+02 -2.33007E+03
  3.19861E+03 -5.22195E+02  4.75992E+03  5.67955E+01  2.45214E+03  3.60770E+03  1.69629E+03  1.78806E+03
 -2.87566E+03  2.41925E+03 -5.12946E+03  1.47929E+02 -4.23453E+03 -2.45259E+03 -1.31458E+02 -5.80872E+03
  2.71763E+03 -4.70208E+03  4.58992E+03  2.79116E+01  4.70442E+03  9.57086E+02  2.94404E+03  4.20267E+03
  9.05173E+02  5.45914E+03 -2.43078E+03  4.04518E+03 -2.58271E+03  2.74120E+03 -5.05815E+02  4.50461E+02
 -1.03846E+03  1.96239E+02 -1.50275E+03  1.13602E+03 -2.90796E+03  6.08563E+02 -2.39474E+03 -1.77894E+03
 -3.31341E+03 -2.21496E+03 -1.13452E+03 -4.76616E+03  2.39868E+03 -5.29270E+03  4.18028E+03 -3.09548E+03
  4.65603E+03  3.98721E+02  1.77443E+03  3.70433E+03 -1.30713E+03  5.39776E+03 -1.90273E+03  3.97773E+03
