 $NMID ID='MM_0lb_SNR200_7hz_g55_45.RAW', FMTDAT='(8E13.5)'
 TRAMP=1., VOLUME=1. $END
  3.09078E+05 -1.23115E+02  3.38060E+05  2.51362E+05  8.63358E+04  3.40057E+05 -1.32108E+05  2.53637E+05
 -1.90414E+05  8.48876E+04 -1.13317E+05 -3.12604E+04  1.60682E+03 -5.24660E+04  5.32875E+04 -2.45455E+02
  3.46051E+04  5.19102E+04 -1.59018E+04  7.55039E+04 -6.05608E+04  6.47140E+04 -8.48643E+04  3.23959E+04
 -8.22312E+04 -1.17200E+04 -5.89618E+04 -5.38741E+04 -1.56326E+04 -7.34074E+04  2.98047E+04 -4.69369E+04
  4.21007E+04  5.92941E+03  1.87591E+04  4.77504E+04 -3.53835E+04  4.83226E+04 -6.86731E+04  5.25219E+02
 -5.48627E+04 -5.81434E+04 -8.37372E+03 -7.76357E+04  3.48566E+04 -5.95610E+04  5.24049E+04 -1.90563E+04
  4.64909E+04  1.23036E+04  3.28329E+04  2.62222E+04  1.66604E+04  3.10009E+04 -5.35035E+03  2.99372E+04
 -2.30523E+04  1.21951E+04 -1.92059E+04 -5.34857E+03  7.58823E+03 -7.56525E+03  2.40589E+04  1.39240E+04
  6.95332E+03  3.71853E+04 -3.54410E+04  3.68284E+04 -6.63451E+04  1.13141E+03 -5.96711E+04 -4.60503E+04
 -1.15294E+04 -6.72669E+04  4.28447E+04 -4.85432E+04  6.18199E+04 -1.33639E+03  3.74728E+04  3.56932E+04
 -5.00312E+03  4.22310E+04 -3.37603E+04  1.70337E+04 -3.59520E+04 -2.27438E+03 -2.10193E+04 -1.39253E+04
 -1.01061E+04 -1.46693E+04  3.38635E+01 -2.04715E+04  8.07249E+03 -2.39843E+04  1.54922E+04 -1.24963E+04
  1.02744E+04  6.90000E+03 -1.13108E+04  1.27848E+04 -2.47266E+04 -7.85379E+03 -8.47651E+03 -3.78735E+04
  2.51947E+04 -4.99824E+04  5.27642E+04 -2.05914E+04  4.88369E+04  2.07624E+04  1.95682E+04  4.78517E+04
 -1.80480E+04  3.63890E+04 -2.93858E+04  3.08619E+03 -1.19429E+04 -2.90857E+04  2.27442E+04 -3.82506E+04
  4.59808E+04 -1.18790E+04  4.31532E+04  2.48199E+04  2.35081E+04  5.36669E+04 -1.09577E+04  5.88102E+04
 -3.60383E+04  4.12027E+04 -5.02217E+04  1.08462E+04 -5.07225E+04 -1.99107E+04 -2.63968E+04 -4.38761E+04
  8.32715E+03 -4.39992E+04  3.61308E+04 -1.73545E+04  3.58154E+04  1.20487E+04  5.56498E+03  2.02309E+04
 -1.39709E+04  1.03394E+04 -1.22969E+04 -7.79003E+03  6.82877E+03 -1.27540E+04  1.83153E+04  4.82761E+03
  1.54422E+04  2.24862E+04 -3.25944E+03  2.83138E+04 -2.30230E+04  1.64795E+04 -3.27048E+04 -1.38281E+03
 -2.78996E+04 -1.88107E+04 -1.35404E+04 -2.58545E+04  5.18322E+03 -2.93194E+04  2.14341E+04 -2.60220E+04
  3.46133E+04 -1.34706E+04  3.92652E+04  6.58550E+03  2.87216E+04  2.64318E+04  4.43792E+03  4.43813E+04
 -2.07964E+04  3.54324E+04 -3.08217E+04  1.27303E+04 -2.37938E+04 -1.02177E+04 -5.53966E+03 -1.19067E+04
  9.69667E+02 -4.15082E+02 -9.11687E+03  9.05767E+03 -2.23741E+04  5.67372E+03 -2.04078E+04 -1.09603E+04
 -1.18709E+04 -2.68564E+04  7.08489E+03 -3.23599E+04  2.08748E+04 -2.11729E+04  2.39170E+04 -2.79534E+03
  1.69660E+04  1.76457E+04 -1.64526E+03  2.60127E+04 -1.62410E+04  1.62373E+04 -2.61331E+04 -5.19170E+03
 -1.94322E+04 -2.41485E+04 -1.95989E+03 -3.17663E+04  1.38149E+04 -2.60594E+04  2.44646E+04 -1.47905E+04
  2.22267E+04  3.03066E+02  1.61369E+04  3.82776E+03  1.03922E+04  1.35952E+03  1.47537E+04 -2.76857E+03
  2.54451E+04  1.85362E+03  2.69822E+04  2.00468E+04  2.13743E+04  4.27858E+04 -2.70703E+03  5.00251E+04
 -2.86231E+04  4.26276E+04 -4.70935E+04  2.22713E+04 -5.03417E+04 -4.86613E+03 -4.00714E+04 -2.89611E+04
 -1.71186E+04 -4.17531E+04  1.62431E+04 -3.86732E+04  3.30254E+04 -1.79177E+04  2.78645E+04  8.36008E+03
  9.54251E+03  2.03514E+04 -1.14443E+04  1.74177E+04 -2.16245E+04  1.81419E+03 -1.76947E+04 -1.42156E+04
  1.08787E+02 -2.01956E+04  1.17347E+04 -1.43300E+04  1.36668E+04 -7.99077E+02  4.79228E+03  8.90999E+03
 -8.20019E+03  4.87985E+03 -1.17182E+04 -7.44219E+03 -3.39975E+03 -2.23178E+04  1.38397E+04 -2.24226E+04
  2.72843E+04 -1.26239E+04  3.18691E+04  4.05085E+03  2.85004E+04  2.19977E+04  1.31232E+04  3.37527E+04
 -6.84230E+03  3.38070E+04 -2.30862E+04  2.22404E+04 -2.79135E+04  4.16363E+03 -1.90465E+04 -6.80204E+03
 -5.78419E+03 -7.69044E+03 -1.63489E+03  1.89435E+03 -1.95118E+03  2.81664E+03 -9.52043E+03  5.78105E+03
 -1.56652E+04 -1.79236E+03 -1.70922E+04 -1.13693E+04 -5.77746E+03 -2.31175E+04  7.30838E+03 -1.89721E+04
  1.43092E+04 -6.55996E+03  1.01178E+04  4.31634E+03 -1.64311E+03  7.34214E+03 -8.52206E+03  1.83574E+03
 -9.71057E+03 -1.11053E+04 -1.72854E+03 -1.87539E+04  9.77030E+03 -1.74205E+04  2.30634E+04 -1.00403E+04
  2.70157E+04  4.97455E+02  2.04044E+04  1.76819E+04  3.32201E+03  2.48907E+04 -1.14155E+04  1.95979E+04
 -1.62947E+04  5.50747E+03 -8.30886E+03 -1.81957E+03  1.83690E+03 -5.28050E+03  8.80855E+03  2.53229E+02
  8.82456E+03  8.85384E+03  2.43312E+03  1.44930E+04 -1.14277E+04  1.53814E+04 -1.74934E+04  3.16537E+03
 -1.19764E+04 -9.25278E+03 -2.94362E+02 -1.53172E+04  8.39831E+03 -6.56156E+03  1.18553E+04  3.78350E+03
  2.78620E+03  1.39520E+04 -9.54229E+03  1.42215E+04 -1.75412E+04  6.17161E+03 -1.75879E+04 -6.61923E+03
 -8.97222E+03 -1.79825E+04  4.46767E+03 -2.43803E+04  1.90594E+04 -1.38529E+04  2.25829E+04  2.70211E+03
  1.05591E+04  1.61721E+04 -3.02487E+03  1.87612E+04 -1.38351E+04  1.16990E+04 -1.74050E+04 -4.15934E+03
 -1.27903E+04 -1.23486E+04 -2.02521E+03 -1.50353E+04  9.42175E+03 -1.23164E+04  7.14831E+03 -3.66009E+03
  6.00159E+03  2.61565E+03 -1.32455E+03  1.98272E+03 -1.27353E+03 -5.97599E+03  3.65431E+03 -1.12519E+04
  1.56777E+04 -6.01573E+03  2.00800E+04  4.05743E+03  1.74037E+04  1.56460E+04  1.39371E+04  2.55031E+04
 -6.61361E+03  3.09150E+04 -2.36031E+04  2.23612E+04 -3.37639E+04  3.49221E+03 -2.50342E+04 -1.16583E+04
 -1.16039E+04 -2.26409E+04 -1.49133E+03 -1.81300E+04  6.07606E+03 -1.04361E+04  4.31041E+03 -6.83519E+03
  4.63472E+03 -2.80163E+03  5.09124E+03 -4.00072E+03  5.82929E+03 -3.80459E+03  1.21681E+04 -2.48650E+03
  1.04637E+04  3.90730E+03  7.70913E+03  1.26627E+04 -2.74469E+03  1.21594E+04 -1.48190E+04  9.62183E+03
 -2.09215E+04 -2.23803E+03 -1.17356E+04 -1.41615E+04 -1.81976E+03 -1.97041E+04  1.05705E+04 -2.09485E+04
  2.03040E+04 -1.06235E+04  2.49937E+04  3.94586E+03  1.55817E+04  1.86902E+04  3.16204E+03  2.18878E+04
 -9.96612E+03  1.91084E+04 -1.41729E+04  6.90934E+03 -8.31928E+03 -6.53321E+02 -5.42656E+03 -3.90691E+03
 -2.82826E+03 -1.44076E+03 -1.38469E+03  4.89454E+03 -8.52076E+03  3.41502E+03 -1.20494E+04 -3.19973E+03
 -8.91091E+03 -1.22156E+04 -1.50130E+03 -1.93747E+04  1.19448E+04 -1.70154E+04  2.00514E+04 -4.19175E+03
  1.75375E+04  7.82326E+03  1.13378E+04  1.70624E+04 -5.43477E+03  1.94257E+04 -1.56073E+04  1.18099E+04
 -2.08375E+04  7.33428E+02 -1.39071E+04 -1.32905E+04 -3.17079E+03 -1.65218E+04  8.87398E+03 -1.12726E+04
  1.13705E+04 -4.80770E+03  9.80644E+03  2.51040E+03  3.66547E+03  6.94257E+03  1.26134E+03  2.13311E+03
  3.13305E+03  3.10448E+03  6.03067E+03  3.11784E+03  5.27060E+03  6.48050E+03  4.73542E+03  1.01677E+04
 -3.22316E+03  1.63498E+04 -1.22791E+04  1.41326E+04 -2.03661E+04  4.72935E+03 -2.14251E+04 -7.90935E+03
 -1.08243E+04 -2.09874E+04  1.99185E+03 -2.31725E+04  1.08604E+04 -1.36895E+04  1.58851E+04 -2.25919E+03
  1.21152E+04  6.71529E+03  4.22115E+03  9.99421E+03 -7.92604E+03  6.73705E+03 -6.75455E+03 -2.16549E+03
 -4.48596E+03 -1.07030E+04  4.44713E+03 -1.05132E+04  8.85684E+03 -4.80936E+03  7.61489E+03  6.15475E+02
  3.48518E+03  5.06692E+03  8.99332E+02  3.10204E+03 -1.63570E+03  3.61403E+03  3.07313E+02 -5.43867E+02
  3.01902E+03 -3.76921E+03  8.81930E+03  2.34618E+03  4.10544E+03  1.17403E+04 -2.59868E+03  1.31507E+04
 -9.93359E+03  8.71714E+03 -1.26472E+04  2.13907E+03 -1.19595E+04 -3.92891E+03 -4.23935E+03 -1.04247E+04
  6.63001E+02 -8.03403E+03  5.32403E+03 -4.21722E+03  4.73085E+03  4.96639E+03 -2.40998E+03  6.69745E+03
 -9.72916E+03  1.46426E+03 -7.35910E+03 -4.86385E+03 -6.60135E+03 -1.02158E+04  2.77496E+03 -1.03673E+04
  8.54081E+03 -7.67248E+03  7.90511E+03 -2.65234E+03  6.01671E+03  3.69471E+03  8.04833E+02  6.01710E+03
 -3.64963E+03  2.87959E+03 -6.00582E+03 -3.99571E+03  3.58938E+03 -9.25334E+03  1.07859E+04 -5.77985E+03
  1.51312E+04  1.01662E+03  1.27098E+04  1.10223E+04  4.23238E+03  1.42469E+04 -5.16361E+03  1.32257E+04
 -1.20400E+04  5.64412E+03 -1.19660E+04 -2.54626E+03 -7.22748E+03 -9.15247E+03  2.36301E+03 -8.18321E+03
  6.71092E+03 -6.22316E+03  7.34654E+03  2.97601E+03  2.28098E+03  9.30747E+03 -9.62749E+02  6.43534E+03
 -2.96615E+03  3.38849E+03 -4.33262E+03  1.93451E+03 -1.98398E+03  1.93865E+03 -2.07915E+03  3.30579E+03
 -4.03140E+03  6.44190E+03 -9.82930E+03  7.00786E+03 -1.39102E+04 -2.84007E+02 -1.70752E+04 -7.61499E+03
 -8.26984E+03 -1.83278E+04  5.05895E+03 -2.17605E+04  1.48046E+04 -1.49140E+04  2.21420E+04 -6.48225E+03
  1.92740E+04  4.63600E+03  1.34660E+04  1.32421E+04  5.71289E+02  1.59178E+04 -7.89660E+03  1.15463E+04
 -7.72002E+03  3.28722E+03 -6.53639E+03 -2.72422E+02 -1.83253E+03 -3.64511E+03  4.10054E+01  1.57935E+02
 -2.03612E+03 -2.83953E+02 -3.80082E+03  8.51909E+02 -3.34479E+02 -2.09383E+03  3.68184E+00 -5.19993E+03
  8.04639E+03 -5.23614E+03  9.11378E+03 -8.10508E+02  9.02927E+03  8.37419E+03  5.82170E+03  1.74281E+04
 -5.89334E+03  1.67348E+04 -1.75993E+04  1.10559E+04 -1.66873E+04 -3.94395E+02 -1.50864E+04 -1.03880E+04
 -4.60083E+03 -1.59141E+04  9.06390E+02 -1.43996E+04  9.71596E+03 -7.57782E+03  7.56323E+03 -1.10162E+03
  5.78490E+03  4.18926E+03  1.32556E+03  4.34183E+03 -2.85826E+03 -2.38483E+02 -1.07367E+03 -4.31015E+03
  4.23833E+03  3.46969E+02  5.30697E+03  1.23185E+03  5.32657E+03  7.68093E+03 -1.49607E+02  8.95693E+03
 -6.58563E+03  6.85456E+03 -1.22836E+04  8.67984E+02 -9.80310E+03 -9.35716E+03 -7.00108E+02 -1.26320E+04
  9.26189E+03 -1.15960E+04  1.38526E+04 -3.44683E+03  1.45054E+04  1.65420E+03  6.19412E+03  7.49631E+03
  1.60210E+03  1.04176E+04 -4.16169E+03  7.69747E+03 -7.87748E+03  6.13986E+03 -5.28765E+03  6.20738E+02
 -4.24274E+03 -1.09518E+03 -4.30983E+03  1.34590E+03 -5.30844E+03  1.94708E+03 -8.03688E+03 -8.62549E+02
 -8.53055E+03 -6.74661E+03 -1.88663E+03 -1.20526E+04  4.54161E+03 -1.16049E+04  9.16325E+03 -7.53658E+03
  1.05053E+04  1.18369E+03  8.17583E+03  6.72485E+03 -1.57362E+03  1.07860E+04 -6.74169E+03  7.91685E+03
