 $NMID ID='MM_0lb_SNR200_14hz_g55_32.RAW', FMTDAT='(8E13.5)'
 TRAMP=1., VOLUME=1. $END
  3.09780E+05 -5.21231E+01  3.38444E+05  2.50552E+05  8.41916E+04  3.38087E+05 -1.31793E+05  2.51616E+05
 -1.90798E+05  8.36412E+04 -1.12452E+05 -3.24933E+04  1.18129E+03 -5.06657E+04  5.51842E+04 -6.25735E+02
  3.63511E+04  5.40978E+04 -1.68504E+04  7.56066E+04 -6.04775E+04  6.50024E+04 -8.24558E+04  3.26045E+04
 -8.04303E+04 -1.10148E+04 -5.72256E+04 -5.21938E+04 -1.47613E+04 -6.96020E+04  2.70243E+04 -4.55106E+04
  4.09843E+04  3.96170E+03  1.58307E+04  4.86760E+04 -3.35107E+04  4.65537E+04 -6.72208E+04  8.54785E+02
 -5.47443E+04 -5.64931E+04 -7.68518E+03 -7.78168E+04  3.46777E+04 -5.54038E+04  5.02508E+04 -1.72173E+04
  4.44996E+04  1.08127E+04  3.29823E+04  2.62636E+04  1.55065E+04  2.90315E+04 -5.01649E+03  2.76207E+04
 -2.31293E+04  1.20847E+04 -1.74661E+04 -4.44207E+03  5.92343E+03 -7.57262E+03  2.30153E+04  1.33928E+04
  6.98457E+03  3.48124E+04 -3.29206E+04  3.51977E+04 -6.37107E+04  1.55420E+03 -5.79233E+04 -4.24043E+04
 -1.33425E+04 -6.36672E+04  4.06839E+04 -4.68098E+04  5.84080E+04 -2.25112E+03  3.46258E+04  3.30713E+04
 -6.16398E+03  3.63529E+04 -3.13115E+04  1.68700E+04 -3.21329E+04 -4.25600E+03 -1.57620E+04 -1.18161E+04
 -8.51041E+03 -1.25272E+04  5.89817E+01 -1.78745E+04  8.87665E+03 -2.37696E+04  1.56307E+04 -1.26327E+04
  1.14968E+04  4.70285E+03 -8.65311E+03  1.34371E+04 -2.07600E+04 -4.69944E+03 -8.91898E+03 -3.54302E+04
  2.34789E+04 -4.46406E+04  4.89426E+04 -2.00509E+04  4.55569E+04  1.98233E+04  1.62812E+04  4.38372E+04
 -1.50033E+04  3.46741E+04 -2.68380E+04  8.75439E+02 -1.08364E+04 -3.04767E+04  2.04097E+04 -3.43984E+04
  4.14106E+04 -9.26399E+03  3.69464E+04  2.30460E+04  1.99439E+04  4.68767E+04 -8.92401E+03  5.11967E+04
 -3.20513E+04  3.46133E+04 -4.29076E+04  9.82917E+03 -4.41663E+04 -1.70365E+04 -2.34940E+04 -3.83464E+04
  8.41075E+03 -3.83957E+04  3.25535E+04 -1.45792E+04  2.91969E+04  1.05111E+04  4.61003E+03  2.00959E+04
 -1.33648E+04  8.46807E+03 -1.08841E+04 -8.04578E+03  5.16875E+03 -9.81215E+03  1.92292E+04  5.89571E+03
  1.31584E+04  2.24525E+04 -6.06358E+03  2.59046E+04 -2.30981E+04  1.16716E+04 -2.84309E+04 -4.37113E+03
 -2.12708E+04 -1.75218E+04 -7.83950E+03 -2.08874E+04  3.26208E+03 -2.00210E+04  1.71145E+04 -1.94638E+04
  2.61265E+04 -1.30665E+04  3.36193E+04  2.80999E+03  2.47634E+04  2.09358E+04  4.17111E+03  3.74783E+04
 -1.90052E+04  3.03170E+04 -2.86024E+04  1.10112E+04 -2.09423E+04 -1.11764E+04 -3.81801E+03 -1.28103E+04
  2.79711E+03 -2.44380E+03 -4.38930E+03  7.06389E+03 -1.66345E+04  4.72048E+03 -1.84987E+04 -6.93441E+03
 -1.04458E+04 -1.92953E+04  5.70950E+03 -2.42593E+04  1.44568E+04 -1.77295E+04  1.97735E+04 -1.56001E+03
  1.34101E+04  1.29523E+04 -2.06561E+03  1.96694E+04 -1.40100E+04  1.12838E+04 -1.92391E+04 -4.22996E+03
 -1.51227E+04 -1.75547E+04 -1.53065E+03 -2.39105E+04  1.13006E+04 -1.92405E+04  2.03174E+04 -9.87047E+03
  1.77218E+04  7.21276E+02  1.41285E+04  3.60895E+03  6.37082E+03  1.42635E+03  9.70406E+03 -2.71812E+03
  1.78382E+04  2.88035E+03  2.03434E+04  1.56490E+04  1.43562E+04  3.11514E+04 -4.58920E+03  3.70585E+04
 -2.21747E+04  2.84411E+04 -3.30373E+04  1.37809E+04 -3.39093E+04 -2.48265E+03 -2.83262E+04 -1.99992E+04
 -1.18192E+04 -2.84578E+04  1.00569E+04 -2.64039E+04  2.22566E+04 -1.25123E+04  2.11631E+04  6.28647E+03
  6.90937E+03  1.47558E+04 -9.96925E+03  1.28414E+04 -1.74194E+04  3.17394E+03 -1.20498E+04 -9.56500E+03
 -1.68862E+03 -1.57554E+04  8.90172E+03 -1.11144E+04  1.10055E+04 -1.01786E+03  1.75549E+03  7.38735E+03
 -5.73471E+03  2.46456E+03 -5.54524E+03 -5.77569E+03  7.51784E+02 -1.43050E+04  1.02811E+04 -1.44487E+04
  1.69846E+04 -7.00631E+03  1.96249E+04  2.57369E+03  1.78216E+04  1.19984E+04  7.31753E+03  2.07702E+04
 -3.58931E+03  2.31472E+04 -1.37522E+04  1.46139E+04 -1.67324E+04  2.84887E+03 -1.24440E+04 -3.15490E+03
 -4.94883E+03 -4.04658E+03 -4.78202E+02  1.48618E+03 -3.11421E+03  2.72096E+03 -5.33129E+03  5.23047E+03
 -1.03380E+04  7.51803E+02 -1.21406E+04 -8.21559E+03 -4.68236E+03 -1.49409E+04  4.82428E+03 -1.18267E+04
  9.54157E+03 -5.34504E+03  8.18684E+03  3.51485E+03  7.84295E+02  3.72068E+03 -5.84598E+03  2.74657E+02
 -6.26704E+03 -7.96062E+03 -7.43605E+02 -1.05381E+04  4.68526E+03 -1.13622E+04  1.46476E+04 -6.08820E+03
  1.68226E+04  1.10607E+03  1.25632E+04  9.57648E+03  2.04969E+03  1.24972E+04 -7.24093E+03  1.07215E+04
 -1.07232E+04  3.86297E+03 -5.14051E+03 -3.24878E+03  1.66940E+03 -3.05761E+03  6.06480E+03 -7.73126E+02
  5.14875E+03  5.26050E+03  1.96939E+03  9.34775E+03 -6.31406E+03  8.59034E+03 -1.09244E+04  1.60629E+03
 -8.04273E+03 -6.97191E+03 -5.86402E+00 -1.00683E+04  5.69057E+03 -4.39199E+03  5.13544E+03  1.90838E+03
  9.56039E+02  7.03318E+03 -6.27313E+03  8.26060E+03 -9.71576E+03  2.62731E+03 -9.25940E+03 -2.77573E+03
 -4.72549E+03 -1.02162E+04  3.14083E+03 -1.13987E+04  1.05740E+04 -8.53616E+03  1.25813E+04  2.20577E+03
  7.79719E+03  8.05945E+03 -6.13492E+02  1.11973E+04 -8.21820E+03  6.74390E+03 -7.96902E+03 -5.35269E+02
 -7.66435E+03 -8.26168E+03 -1.53115E+03 -7.95550E+03  3.59377E+03 -6.97603E+03  4.70030E+03 -3.84409E+03
  4.91839E+03  4.85580E+02 -3.14669E+01  6.06378E+02  1.18674E+03 -5.33252E+02  4.21113E+02 -3.35681E+03
  7.37557E+03 -1.74577E+03  9.61084E+03  1.29914E+03  9.47775E+03  5.20952E+03  6.93664E+03  1.23050E+04
 -3.61077E+03  1.36161E+04 -1.16125E+04  1.04774E+04 -1.47245E+04  1.85226E+03 -1.35831E+04 -5.27584E+03
 -7.81212E+03 -1.06237E+04 -7.49547E+02 -9.93890E+03  3.03894E+03 -5.14304E+03  3.74549E+03 -4.42079E+03
  3.11111E+03 -2.20339E+03  3.12288E+03 -3.47775E+03  5.36343E+03 -2.41800E+03  6.06496E+03  5.99816E+02
  5.99159E+03  2.23978E+03  3.97822E+03  5.54075E+03 -2.19894E+03  6.82914E+03 -7.72091E+03  4.69789E+03
 -9.54871E+03 -2.20057E+03 -5.05873E+03 -5.62025E+03 -1.14740E+03 -9.39116E+03  5.53107E+03 -1.12215E+04
  9.02159E+03 -4.15831E+03  1.12886E+04  2.10083E+03  8.54005E+03  8.60861E+03  1.58465E+03  1.13089E+04
 -5.47608E+03  1.01995E+04 -5.40621E+03  3.80966E+03 -3.89800E+03 -1.44681E+03 -1.37019E+03 -4.62923E+02
 -3.96676E+02  9.33922E+01 -1.23056E+03  2.68724E+03 -5.03059E+03  1.55368E+03 -6.65244E+03 -6.14888E+02
 -4.89662E+03 -7.19559E+03 -1.26029E+03 -8.86875E+03  5.83264E+03 -8.00697E+03  8.26286E+03 -3.09134E+03
  9.63098E+03  2.97035E+03  4.21469E+03  6.75491E+03 -2.36454E+03  7.19062E+03 -6.10958E+03  5.69636E+03
 -8.09082E+03 -7.58275E+02 -5.85778E+03 -5.35809E+03 -7.07455E+01 -6.04415E+03  2.58089E+03 -4.73000E+03
  6.37409E+03 -2.47792E+03  4.01767E+03  1.46139E+03  7.22852E+02  3.38327E+03  1.02112E+03  1.06711E+03
  3.33294E+03  1.91208E+03  1.40024E+03  1.85688E+03  2.28355E+03  3.81016E+03  3.05391E+03  2.98012E+03
 -2.57753E+03  6.18678E+03 -6.25085E+03  6.06910E+03 -6.66552E+03  1.58390E+03 -8.31004E+03 -1.93289E+03
 -4.64983E+03 -8.78970E+03  1.76086E+03 -8.51766E+03  3.55692E+03 -5.33819E+03  6.31216E+03 -1.03025E+03
  5.94127E+03  4.22762E+03  1.09226E+02  4.38803E+03 -2.94369E+03  2.68353E+03 -3.64129E+03 -1.99307E+02
 -4.79175E+02 -4.70701E+03  1.16192E+03 -2.87188E+03  3.10244E+03 -1.18369E+03  2.58941E+03  1.04126E+03
  1.01584E+03  1.49123E+03  7.71391E+02  2.15860E+03 -4.75690E+02  3.28907E+02  1.31338E+03  8.66612E+02
  9.63019E+02 -6.65954E+02  2.93764E+03  1.41651E+03  1.66353E+03  3.65257E+03 -7.24749E+02  5.33726E+03
 -2.96278E+03  2.52523E+03 -4.47082E+03  7.84265E+02 -4.89022E+03 -1.29078E+03 -1.93423E+03 -3.00031E+03
 -9.94719E+01 -9.49618E+02  1.99567E+03 -1.90292E+03  5.05228E+02  2.57135E+03 -1.01704E+03  2.74631E+03
 -3.47309E+03  1.77678E+03 -2.78981E+03 -1.60266E+03 -2.17607E+03 -5.34937E+03 -4.12402E+02 -2.99082E+03
  2.39440E+03 -6.68441E+02  3.82281E+03 -7.64823E+02  2.78610E+03  2.51099E+02  1.55209E+02  2.27558E+03
 -1.66610E+03 -8.23808E+02 -1.93443E+03 -1.21346E+03  3.86602E+02 -2.84807E+03  3.89318E+03 -1.55504E+03
  3.54698E+03  4.04937E+02  6.06031E+03  3.10832E+03  2.67658E+03  5.51315E+03 -2.49984E+03  4.80577E+03
 -3.91088E+03  1.29349E+03 -3.10519E+03 -1.07368E+03 -3.50692E+03 -3.80716E+03  1.22308E+03 -1.85199E+03
  3.67964E+03 -1.15386E+03  1.73679E+03  1.45524E+03  1.11165E+03  3.68884E+03  9.68918E+02  2.76315E+03
 -6.88015E+02  2.65735E+03  2.65480E+02 -1.15353E+02  7.95727E+02  1.74124E+03 -2.16048E+03  5.70061E+02
 -1.05336E+03  2.78351E+03 -2.71049E+03  7.46910E+02 -4.60732E+03  2.94383E+02 -5.08898E+03 -3.23822E+03
 -2.72609E+03 -6.26338E+03  1.05061E+03 -7.60892E+03  3.27466E+03 -4.40844E+03  6.20742E+03 -9.05349E+02
  4.78309E+03  3.95961E+02  3.27361E+03  4.33368E+03 -1.00876E+03  3.58016E+03 -1.84418E+03  3.44028E+03
 -1.65896E+03  1.09246E+03 -8.52383E+02  9.71270E+00  5.17914E+01 -7.12684E+02 -5.89344E+02 -1.15827E+03
 -5.60942E+02 -1.87417E+02 -2.03627E+03  7.85767E+02  2.88352E+02 -2.50538E+03  1.70775E+02 -2.13564E+03
  2.85773E+03 -1.14090E+03  1.59442E+03 -3.58099E+02  2.75824E+03  3.81325E+03  3.16568E+02  2.92072E+03
 -1.67073E+03  6.18018E+03 -4.13135E+03  5.02873E+03 -4.87621E+03  4.44092E+01 -3.63005E+03 -2.82020E+03
 -1.26923E+03 -4.91448E+03  5.00155E+02 -4.50939E+03  3.29895E+03 -2.15125E+03  2.08785E+03 -8.31616E+02
  1.94389E+03 -1.64077E+02 -2.49679E+02  1.40680E+03 -1.14113E+03  5.46015E+02  7.25737E+01 -1.67916E+02
  7.74557E+02 -1.71871E+01  5.31402E+02  2.18405E+03  9.31596E+02  8.34412E+02  8.82409E+02  2.40298E+03
 -9.74809E+02  2.23330E+03 -1.37903E+03  1.67165E+02 -1.40294E+03 -1.28468E+03  8.02296E+02 -3.54732E+03
  2.12764E+03 -2.97725E+03  3.20033E+03 -2.41791E+02  3.20416E+03 -4.58436E+01  1.33015E+03  2.94463E+03
  8.45569E+02  2.04861E+03 -1.77492E+03  9.75316E+02 -1.39319E+03  1.48996E+03 -1.28012E+03  1.37650E+03
  1.57132E+02  2.95653E+02 -1.25251E+03 -5.69392E+02 -2.19530E+03 -5.52725E+02 -1.50743E+03  1.04705E+01
 -1.47162E+03 -2.08717E+03  1.26348E+02 -3.32990E+03  1.22189E+03 -2.50113E+03  3.58663E+03 -1.52656E+03
  3.18969E+03  4.88911E+02  1.69242E+03  3.06727E+02 -8.04423E+01  3.37706E+03 -1.53856E+03  2.32855E+03
