 $NMID ID='MM_0lb_SNR200_20hz_g50_35.RAW', FMTDAT='(8E13.5)'
 TRAMP=1., VOLUME=1. $END
  3.10427E+05  3.11832E+02  3.37676E+05  2.49671E+05  8.44352E+04  3.37250E+05 -1.31593E+05  2.51142E+05
 -1.89221E+05  8.33189E+04 -1.10973E+05 -3.30354E+04  1.50468E+03 -5.07999E+04  5.26562E+04  4.27441E+02
  3.62978E+04  5.26538E+04 -1.72083E+04  7.51634E+04 -6.04868E+04  6.26245E+04 -8.23673E+04  3.12181E+04
 -7.92263E+04 -1.12335E+04 -5.56763E+04 -5.05465E+04 -1.38253E+04 -6.79051E+04  2.62665E+04 -4.40174E+04
  3.83699E+04  2.86931E+03  1.58129E+04  4.78176E+04 -3.36607E+04  4.67101E+04 -6.58977E+04  6.28277E+02
 -5.16526E+04 -5.63528E+04 -5.70888E+03 -7.54421E+04  3.17467E+04 -5.36927E+04  4.71729E+04 -1.69489E+04
  4.09515E+04  1.11734E+04  2.97348E+04  2.42477E+04  1.56179E+04  2.75310E+04 -4.08451E+03  2.62979E+04
 -2.14631E+04  1.24860E+04 -1.92630E+04 -4.19007E+03  4.05149E+03 -7.16982E+03  2.15381E+04  1.05514E+04
  6.78784E+03  3.32381E+04 -2.97184E+04  3.41500E+04 -6.15196E+04  2.00444E+03 -5.57280E+04 -4.18022E+04
 -1.25465E+04 -6.00340E+04  3.68551E+04 -4.20998E+04  5.48990E+04 -1.72755E+03  3.11945E+04  2.96610E+04
 -5.97233E+03  3.25050E+04 -2.95220E+04  1.33784E+04 -2.75007E+04 -5.72913E+03 -1.45703E+04 -9.04440E+03
 -6.67979E+03 -1.09236E+04 -1.18078E+03 -1.58758E+04  6.24330E+03 -2.15191E+04  1.45122E+04 -1.39157E+04
  1.10481E+04  4.42204E+03 -4.93548E+03  1.34450E+04 -1.78069E+04 -7.08722E+02 -7.92783E+03 -2.98188E+04
  2.08238E+04 -4.02538E+04  4.34485E+04 -1.80342E+04  4.17625E+04  1.84926E+04  1.36974E+04  4.13224E+04
 -1.54446E+04  3.06839E+04 -2.40686E+04  6.43353E+02 -8.89690E+03 -2.60723E+04  2.11003E+04 -3.05689E+04
  3.83230E+04 -6.33752E+03  3.00969E+04  2.16112E+04  1.53395E+04  4.13025E+04 -7.90453E+03  4.38948E+04
 -2.79596E+04  2.88697E+04 -3.52297E+04  8.45178E+03 -3.77700E+04 -1.51135E+04 -2.15390E+04 -3.33159E+04
  7.20210E+03 -3.33768E+04  2.89268E+04 -1.21947E+04  2.57740E+04  1.04389E+04  2.70390E+03  1.79277E+04
 -1.13978E+04  7.22649E+03 -9.61996E+03 -7.80979E+03  6.14433E+03 -9.88926E+03  1.64595E+04  6.25618E+03
  1.19102E+04  2.07613E+04 -6.69002E+03  2.23248E+04 -2.24775E+04  8.68186E+03 -2.48444E+04 -7.48788E+03
 -1.53157E+04 -1.60104E+04 -4.78926E+03 -1.66660E+04  3.10530E+03 -1.30541E+04  1.14832E+04 -1.37935E+04
  1.97257E+04 -1.06256E+04  2.78647E+04  9.67166E+02  2.06289E+04  1.61425E+04  3.76549E+03  3.16925E+04
 -1.64916E+04  2.66557E+04 -2.52113E+04  9.16848E+03 -1.94975E+04 -1.04718E+04 -3.70149E+03 -1.42985E+04
  3.15359E+03 -5.76651E+03 -1.98330E+03  5.29363E+03 -1.19135E+04  4.64593E+03 -1.27228E+04 -4.60574E+03
 -7.75273E+03 -1.46911E+04  4.30684E+03 -1.97821E+04  1.13395E+04 -1.32125E+04  1.38564E+04 -1.99450E+03
  8.82302E+03  1.03925E+04 -3.33146E+02  1.52759E+04 -9.47282E+03  8.35568E+03 -1.50248E+04 -3.32650E+03
 -1.15428E+04 -1.26504E+04 -1.16398E+03 -1.91663E+04  8.47756E+03 -1.40311E+04  1.56507E+04 -6.75113E+03
  1.41276E+04  2.00693E+03  9.02606E+03  4.66838E+03  4.98097E+03  1.15469E+03  6.98925E+03 -1.97085E+03
  1.33027E+04  3.13796E+03  1.37791E+04  1.21142E+04  7.68173E+03  2.31918E+04 -2.89167E+03  2.44216E+04
 -1.41877E+04  1.79112E+04 -2.36313E+04  8.32834E+03 -2.13743E+04 -2.39016E+03 -1.94538E+04 -1.26256E+04
 -9.63799E+03 -1.95040E+04  5.45654E+03 -1.79755E+04  1.58116E+04 -1.11807E+04  1.48064E+04  3.06224E+03
  6.88209E+03  9.51085E+03 -7.15267E+03  9.05137E+03 -1.23876E+04  2.39844E+03 -9.07153E+03 -7.18885E+03
  1.12854E+02 -1.17906E+04  5.78521E+03 -1.00239E+04  7.40797E+03 -2.04004E+03  1.37352E+03  3.34746E+03
 -4.47567E+03  8.26564E+02 -2.96692E+03 -5.05827E+03 -1.43224E+02 -9.28008E+03  6.43879E+03 -9.52583E+03
  1.11930E+04 -4.52329E+03  1.06199E+04  2.78382E+03  8.47119E+03  8.32440E+03  3.58905E+03  1.21525E+04
 -1.28119E+03  1.41245E+04 -9.16141E+03  8.69446E+03 -1.00699E+04  2.37074E+03 -8.42740E+03 -7.79443E+02
 -4.23007E+03 -3.34133E+03 -6.19252E+02  8.86521E+02 -1.14623E+03  1.25520E+03 -3.38090E+03  3.61911E+03
 -7.77051E+03 -5.05596E+02 -9.09387E+03 -6.71436E+03 -3.31290E+03 -1.00120E+04  3.57102E+03 -7.69520E+03
  7.05593E+03 -3.67407E+03  4.74514E+03  2.38185E+03 -1.73729E+02  2.47294E+03 -2.92205E+03 -2.85447E+02
 -3.31951E+03 -4.61865E+03 -4.71054E+02 -6.08540E+03  3.55947E+03 -7.80685E+03  9.57652E+03 -3.42733E+03
  1.03675E+04 -2.06122E+02  7.66469E+03  5.54606E+03  1.31298E+03  7.04997E+03 -4.19126E+03  6.72894E+03
 -7.22671E+03  3.02009E+03 -3.59713E+03 -6.92040E+02  1.95344E+03 -1.94709E+03  4.83133E+03 -9.13140E+02
  3.71721E+03  3.94969E+03  4.39248E+02  5.94113E+03 -4.23412E+03  6.43562E+03 -8.58127E+03  1.98312E+03
 -4.55681E+03 -2.79744E+03 -1.28731E+03 -6.52313E+03  4.79765E+03 -3.16210E+03  3.22516E+03  1.02376E+03
  4.56350E+02  2.13313E+03 -2.90083E+03  3.79991E+03 -2.88862E+03  3.14389E+03 -3.56928E+03 -7.18393E+02
 -2.79527E+03 -4.87340E+03  8.97141E+02 -5.97281E+03  5.29445E+03 -4.86428E+03  6.01538E+03  6.60260E+02
  4.51545E+03  3.72183E+03  3.17400E+01  6.99705E+03 -4.59663E+03  3.17928E+03 -3.92532E+03 -1.34094E+02
 -5.43845E+03 -4.88679E+03 -6.51323E+02 -3.94857E+03  2.74839E+03 -3.42688E+03  3.87013E+03 -1.93484E+03
  3.34186E+03 -1.93352E+02 -8.65236E+02  5.78323E+02  5.78851E+01  2.54333E+02 -8.74870E+02 -1.31302E+03
  2.33369E+03  1.27786E+02  4.29970E+03  5.85092E+02  4.51155E+03  3.24417E+03  4.68693E+03  5.44156E+03
 -8.80215E+02  6.77827E+03 -7.14110E+03  4.93566E+03 -8.32560E+03  4.87307E+02 -6.12470E+03 -3.11247E+03
 -3.91468E+03 -6.18026E+03 -2.58668E+02 -4.19106E+03  2.34663E+03 -2.49831E+03  7.66283E+02 -1.44087E+03
  1.21056E+03 -5.27728E+02  3.56840E+03 -2.24856E+03  2.74203E+03 -8.08574E+02  2.92951E+03  1.73437E+03
  3.94532E+03  2.20509E+03  8.94472E+02  3.41989E+03 -1.50511E+03  2.55539E+03 -4.44977E+03  2.78566E+03
 -3.87037E+03 -1.03290E+03 -9.49553E+02 -3.24755E+03  1.53602E+03 -4.61143E+03  3.45997E+03 -4.71886E+03
  3.86796E+03 -2.35383E+03  5.51173E+03 -4.60478E+02  4.30652E+03  3.13836E+03  6.58432E+02  3.83001E+03
 -1.61449E+03  5.04668E+03 -3.13241E+03  2.39881E+03 -1.36211E+03 -1.76971E+03 -3.48401E+02 -4.37044E+02
  4.43968E+02  9.62167E+02 -1.41979E+03  2.56590E+03 -1.62320E+03  1.16874E+03 -2.80154E+03 -4.91702E+02
 -2.41567E+03 -4.17065E+03  1.65918E+03 -3.25019E+03  1.51092E+03 -3.68433E+03  2.73849E+03  2.71968E+02
  2.55197E+03  2.24246E+03  1.07650E+03  1.64832E+03 -1.58199E+03  4.02068E+03 -2.51294E+03  2.77495E+03
 -2.92625E+03  2.05268E+02 -2.74451E+03 -9.71760E+02 -2.52065E+02 -2.15986E+03  9.40854E+02 -9.65383E+02
  1.60349E+03 -1.57519E+03  1.72600E+03  3.36674E+02  3.07009E+02  1.45845E+03  5.73908E+02  2.51621E+02
  1.12576E+03  1.16920E+03  1.58164E+03  1.61095E+03  6.42741E+02  2.25687E+03  9.86300E+02  1.17977E+03
 -1.95299E+03  2.17350E+03 -2.06492E+03  3.69758E+03 -2.16230E+03  6.33138E+02 -2.31408E+03 -3.55647E+02
 -1.92245E+03 -3.73706E+03 -3.11389E+02 -4.58901E+03  1.43105E+03 -2.18416E+03  2.19990E+03 -4.57739E+02
  1.18725E+03  1.27690E+03  8.95013E+02  1.81662E+03 -1.28228E+03  1.56771E+03  1.26127E+02 -5.39932E+01
 -1.09487E+03 -1.37261E+03  3.96758E+02 -2.20044E+03  3.94754E+02 -3.32414E+02  7.04572E+02  2.07667E+02
  6.57745E+02 -5.75304E+01  7.06971E+02 -4.88959E+02 -9.14793E+02  1.41235E+03  1.69875E+03 -2.14520E+02
  1.81992E+02  1.33850E+01  2.04928E+03  1.58070E+03 -2.21763E+02  2.21076E+03  1.97621E+02  3.83576E+03
 -7.32734E+02  6.23442E+02 -1.63271E+03  2.00463E+02 -2.06869E+03 -7.59124E+02 -8.57507E+01  4.75389E+02
  5.21715E+01 -1.50141E+03  1.28402E+03  7.43831E+02  7.40671E+02  1.71526E+03 -1.07149E+03  7.93876E+02
 -9.18566E+02  8.16239E+02  4.43364E+01 -5.91595E+02  4.78125E+01 -1.93061E+03 -4.63159E+02 -7.16943E+01
  1.30034E+02  2.91827E+02  1.18114E+03  4.31548E+02  8.55398E+02  4.68928E+02 -2.38213E+01  5.75793E+02
 -1.98434E+01 -2.48765E+02 -7.65072E+02 -2.03389E+02  7.27522E+02 -1.55016E+02  8.88171E+02 -1.01875E+03
  2.25757E+03  7.33072E+02  2.14542E+03 -1.90447E+00  6.75236E+02  1.87472E+03  2.93871E+00  1.36072E+03
 -1.30258E+03  5.41670E+01 -1.57067E+03  2.48055E+02 -1.48799E+03 -7.72698E+02  7.22182E+02 -4.05505E+02
  1.59986E+03 -7.22123E+02  1.08474E+00  5.51467E+02  3.89757E+02  1.55672E+03  5.73720E+02  4.04376E+02
 -7.33515E+02  8.14162E+02 -7.55303E+02  8.91550E+02  4.01719E+02  1.61101E+02 -8.04455E+02  9.46585E+02
 -1.22780E+03  4.75456E+02 -1.43278E+03 -6.38265E+01 -1.31613E+03 -8.09303E+01 -1.90554E+03 -1.81679E+02
  5.55841E+02 -2.27602E+03  7.98409E+02 -1.83150E+03 -1.28737E+02 -2.19844E+03  2.25401E+03  2.65111E+02
  9.61610E+02 -8.11026E+02  5.07203E+02  5.60309E+02 -8.76793E+02  5.88620E+02 -9.05471E+02  3.97692E+02
 -5.90120E+02  4.39665E+02  4.94899E+02 -7.26549E+02 -1.40037E+03 -7.58963E+02 -4.64708E+02  4.85768E+02
 -1.91648E+03 -7.81223E+02 -2.90182E+02  7.24580E+02  1.67083E+02 -1.09983E+03 -9.57537E+02  2.22526E+02
  1.71676E+03 -2.04864E+02  2.97194E+02  2.61629E+02  1.16230E+03  7.80819E+02 -7.23545E+02  3.98182E+02
 -7.51859E+02  1.73488E+03 -2.43566E+02  1.03104E+03 -6.47208E+02 -1.67464E+03 -8.32746E+02 -4.99312E+02
 -1.05165E+03 -1.69070E+03 -4.42523E+02 -1.38305E+03 -2.08732E+02 -1.29994E+03  3.91815E+02  9.28842E+02
  1.15530E+03  3.27461E+02 -6.76675E+02 -3.09129E+01 -1.88477E+02 -1.09475E+02  3.61830E+02 -2.72495E+02
  5.83504E+02  3.94815E+02  3.73372E+02  7.00610E+02 -1.19096E+03 -1.16429E+03  6.62973E+02  4.34238E+02
  8.90200E+02  7.81145E+02  5.63845E+02  1.30598E+02 -1.36820E+02 -6.72702E+02 -3.52851E+02 -7.29740E+02
  7.98807E+02 -1.19069E+03  5.34195E+02  7.64596E+02 -2.74740E+02 -1.22992E+03  6.00529E+02  7.65169E+02
  7.69401E+02  4.49570E+02 -3.05313E+02  6.76408E+02 -1.23789E+03  6.38612E+02 -1.06431E+03  1.33142E+02
  4.46838E+02 -3.53097E+01 -1.20393E+03  2.76976E+02 -5.99216E+02  8.07858E+02 -3.01803E+02 -2.35182E+02
  2.67565E+01 -2.84392E+02 -3.26602E+02 -4.52677E+02  6.51516E+02 -2.02114E+03  9.15151E+02 -1.00374E+02
 -3.34314E+02  1.77962E+02 -4.39548E+02 -7.52091E+02  6.75312E+00 -1.03017E+03 -1.63178E+02  4.12251E+02
