 $NMID ID='MM_0lb_SNR200_15hz_g40_95.RAW', FMTDAT='(8E13.5)'
 TRAMP=1., VOLUME=1. $END
  3.09159E+05  4.57146E+02  3.37784E+05  2.49686E+05  8.43700E+04  3.37196E+05 -1.32101E+05  2.51134E+05
 -1.89080E+05  8.21429E+04 -1.12142E+05 -3.27307E+04  7.33796E+01 -5.09596E+04  5.45757E+04  1.04054E+02
  3.52714E+04  5.45703E+04 -1.75850E+04  7.57365E+04 -5.99582E+04  6.29170E+04 -8.32479E+04  3.26115E+04
 -8.02690E+04 -1.24254E+04 -5.67023E+04 -5.10054E+04 -1.28009E+04 -6.94447E+04  2.74494E+04 -4.44088E+04
  3.87484E+04  4.03849E+03  1.53688E+04  4.83953E+04 -3.39466E+04  4.61496E+04 -6.52116E+04 -7.11871E+02
 -5.19048E+04 -5.63718E+04 -6.18697E+03 -7.59534E+04  3.34812E+04 -5.47453E+04  4.64337E+04 -1.70041E+04
  4.13524E+04  1.09830E+04  3.21232E+04  2.55780E+04  1.53823E+04  2.85367E+04 -5.08454E+03  2.66257E+04
 -2.03049E+04  1.16044E+04 -1.81351E+04 -4.79296E+03  5.78856E+03 -9.36520E+03  2.19470E+04  1.13139E+04
  7.91178E+03  3.42353E+04 -3.17952E+04  3.53676E+04 -6.25037E+04  2.68319E+03 -5.54929E+04 -4.21497E+04
 -1.24045E+04 -6.18006E+04  3.90142E+04 -4.45573E+04  5.65927E+04 -2.69868E+03  3.28079E+04  3.27673E+04
 -6.09920E+03  3.47365E+04 -2.97315E+04  1.44046E+04 -2.88126E+04 -4.49211E+03 -1.56661E+04 -1.08615E+04
 -6.92381E+03 -1.35014E+04 -1.42823E+03 -1.75451E+04  7.44945E+03 -2.31965E+04  1.44434E+04 -1.36784E+04
  1.24909E+04  3.32501E+03 -8.32857E+03  1.36783E+04 -2.00206E+04 -2.61832E+03 -8.08354E+03 -3.19941E+04
  2.16370E+04 -4.19646E+04  4.63258E+04 -1.88349E+04  4.32929E+04  1.94239E+04  1.50300E+04  4.28087E+04
 -1.50061E+04  3.26985E+04 -2.51410E+04  2.31120E+03 -9.12567E+03 -2.63062E+04  2.03236E+04 -3.29138E+04
  3.95272E+04 -8.16411E+03  3.41855E+04  2.29500E+04  1.69850E+04  4.50978E+04 -7.76055E+03  4.90091E+04
 -3.11314E+04  3.16727E+04 -4.04004E+04  9.17562E+03 -4.13536E+04 -1.59411E+04 -2.34313E+04 -3.60458E+04
  6.39950E+03 -3.64265E+04  3.02850E+04 -1.33387E+04  2.77666E+04  1.03756E+04  3.37367E+03  1.91248E+04
 -1.37401E+04  7.93533E+03 -9.87318E+03 -6.69818E+03  6.83829E+03 -9.81384E+03  1.80216E+04  5.87800E+03
  1.31730E+04  2.22201E+04 -6.08519E+03  2.45839E+04 -2.23625E+04  1.11950E+04 -2.68764E+04 -5.21624E+03
 -1.89826E+04 -1.56119E+04 -8.07174E+03 -1.84884E+04  3.68124E+03 -1.78361E+04  1.46143E+04 -1.59071E+04
  2.49439E+04 -1.23641E+04  3.25112E+04  1.57511E+03  2.35344E+04  1.78289E+04  5.25368E+03  3.54603E+04
 -1.64666E+04  2.99174E+04 -2.70573E+04  9.77567E+03 -2.01346E+04 -1.06933E+04 -4.68446E+03 -1.37318E+04
  1.72455E+03 -2.31978E+03 -5.00500E+03  5.31317E+03 -1.47871E+04  4.84968E+03 -1.48968E+04 -6.34866E+03
 -9.49091E+03 -1.80371E+04  4.85009E+03 -2.17836E+04  1.43697E+04 -1.47277E+04  1.63887E+04 -2.54188E+03
  1.05574E+04  1.25879E+04 -1.17418E+03  1.73016E+04 -1.18935E+04  8.63284E+03 -1.75513E+04 -3.62527E+03
 -1.30844E+04 -1.59269E+04 -1.88331E+03 -2.14894E+04  9.57441E+03 -1.72958E+04  1.86989E+04 -7.86713E+03
  1.62343E+04 -4.09160E+02  1.22840E+04  3.59464E+03  6.37803E+03  1.13697E+03  7.69894E+03 -8.35445E+02
  1.51834E+04  3.42069E+03  1.79017E+04  1.52118E+04  1.06999E+04  2.64031E+04 -2.88073E+03  3.05099E+04
 -1.88082E+04  2.36435E+04 -2.99677E+04  1.09961E+04 -2.85946E+04 -2.81691E+03 -2.41182E+04 -1.76275E+04
 -9.37834E+03 -2.45103E+04  7.39145E+03 -2.23885E+04  1.99672E+04 -1.23925E+04  1.68403E+04  4.29298E+03
  7.62909E+03  1.28933E+04 -7.85269E+03  1.28183E+04 -1.54631E+04  2.48358E+03 -1.00503E+04 -8.20715E+03
 -1.58633E+03 -1.45735E+04  7.55196E+03 -1.02276E+04  8.90816E+03 -1.93607E+03  2.63913E+03  5.66713E+03
 -6.39093E+03  3.51004E+03 -5.69267E+03 -3.42665E+03 -2.62307E+00 -1.28949E+04  9.93690E+03 -1.18250E+04
  1.55153E+04 -4.74356E+03  1.49870E+04  3.68951E+03  1.28737E+04  1.19792E+04  5.78058E+03  1.80833E+04
 -2.80887E+03  2.00027E+04 -1.28239E+04  1.24088E+04 -1.38036E+04  3.09838E+03 -1.10289E+04 -2.86244E+03
 -5.74291E+03 -4.95578E+03 -1.86018E+03  3.43516E+02 -2.31336E+03  2.46699E+03 -4.40457E+03  3.91998E+03
 -9.43186E+03 -9.11929E+02 -9.49938E+03 -7.46326E+03 -3.66697E+03 -1.34808E+04  3.97683E+03 -9.98135E+03
  8.74557E+03 -4.07118E+03  5.71581E+03  1.63670E+03 -2.29546E+02  4.22536E+03 -4.62585E+03  6.94259E+02
 -5.19289E+03 -6.53861E+03 -3.79555E+02 -9.54012E+03  4.68837E+03 -1.01399E+04  1.11636E+04 -4.82446E+03
  1.50341E+04  1.50717E+03  9.92664E+03  8.52000E+03  1.45699E+03  1.15347E+04 -6.41171E+03  9.55280E+03
 -8.54140E+03  3.46480E+03 -4.49336E+03 -2.54275E+03  2.26723E+03 -2.37270E+03  6.18451E+03 -9.34052E+02
  5.75110E+03  3.18089E+03  6.33988E+02  7.56815E+03 -6.12285E+03  7.09092E+03 -9.13427E+03  1.72628E+03
 -7.31030E+03 -4.49487E+03  6.60957E+02 -8.38548E+03  4.79273E+03 -4.25518E+03  5.87257E+03  2.68241E+03
  1.03422E+03  4.43702E+03 -6.11880E+03  6.62664E+03 -5.03838E+03  1.88813E+03 -6.52069E+03 -2.05663E+03
 -2.85991E+03 -8.23662E+03  1.41549E+03 -9.77265E+03  8.38586E+03 -5.10560E+03  8.84909E+03  1.81823E+03
  4.97063E+03  7.16249E+03 -1.52317E+02  8.86294E+03 -7.79928E+03  6.63888E+03 -7.68261E+03 -3.50933E+01
 -8.60828E+03 -6.19943E+03 -2.01812E+03 -6.74735E+03  3.31682E+03 -5.20072E+03  4.05024E+03 -2.89382E+03
  4.33746E+03  1.01700E+03 -3.11315E+02  1.70260E+03  1.44980E+01 -2.22535E+03  2.54622E+02 -2.50118E+03
  5.64571E+03 -1.82735E+03  8.40828E+03  1.40461E+03  8.01067E+03  4.95181E+03  5.76558E+03  1.02323E+04
 -2.06497E+03  1.13919E+04 -1.00741E+04  8.42053E+03 -1.41559E+04  1.80641E+03 -1.16807E+04 -4.04212E+03
 -6.21056E+03 -8.88747E+03  4.93452E+02 -7.05005E+03  3.45298E+03 -2.62538E+03  3.26119E+03 -2.25614E+03
  1.97137E+03 -1.81393E+03  1.70974E+03 -3.02966E+03  3.07108E+03 -3.14886E+03  5.83809E+03 -1.93682E+02
  5.79821E+03  9.95781E+02  2.29909E+03  4.15894E+03 -1.99876E+03  4.34570E+03 -6.49065E+03  3.90426E+03
 -7.03555E+03 -8.50852E+02 -3.85075E+03 -5.14863E+03  1.21635E+03 -7.39214E+03  4.85468E+03 -8.40118E+03
  7.79704E+03 -5.00790E+03  8.75250E+03  2.90346E+02  6.88672E+03  5.42294E+03  7.98249E+02  8.77530E+03
 -3.33129E+03  7.66555E+03 -5.16700E+03  2.14850E+03 -2.98097E+03 -1.12266E+03 -4.08318E+02 -1.89097E+03
 -1.00360E+03  2.12922E+02 -2.08197E+03  2.49712E+03 -2.51213E+03  5.90986E+02 -4.78196E+03 -6.79848E+02
 -2.08873E+03 -5.31501E+03  1.68829E+02 -6.62583E+03  4.25134E+03 -5.59787E+03  6.06891E+03 -2.93665E+03
  7.72908E+03  3.42716E+03  3.90016E+03  5.45663E+03 -1.84366E+03  7.01168E+03 -3.25712E+03  3.89668E+03
 -6.32959E+03 -2.27959E+02 -4.44149E+03 -4.69022E+03  1.42195E+02 -5.87494E+03  2.00848E+03 -3.96517E+03
  4.53664E+03 -1.18532E+03  1.77616E+03  8.94501E+02  1.21612E+03  2.96564E+03  8.25445E+02  7.05502E+02
  2.04121E+03  6.50845E+02  2.29802E+03  9.66481E+02  1.78989E+03  2.32459E+03  2.34509E+03  3.06011E+03
 -1.79920E+03  4.23386E+03 -4.31919E+03  4.90460E+03 -5.97367E+03  2.23109E+03 -6.80688E+03 -2.07129E+03
 -2.07458E+03 -5.86557E+03  8.01213E+02 -7.84176E+03  3.52955E+03 -3.83078E+03  4.74200E+03 -7.45102E+02
  3.49849E+03  2.69553E+03  2.66072E+02  3.55521E+03 -7.99656E+02  9.54638E+02 -4.20334E+03  8.22702E+02
  1.43814E+02 -1.57418E+03  2.38581E+03 -2.72285E+03  3.83305E+03 -9.77304E+02  1.62679E+03  1.30993E+03
  7.37773E+02  9.05937E+02  1.40406E+03  8.83308E+02  3.87011E+02  7.09188E+02  1.13342E+03 -1.21872E+03
  5.21359E+02 -7.32045E-01  2.78559E+03  8.28213E+02 -4.82226E+02  4.33076E+03  2.01724E+02  4.40795E+03
 -2.93358E+03  2.47519E+03 -4.16104E+03  1.66532E+03 -4.15453E+03 -1.43397E+03 -2.02827E+03 -1.66769E+03
  3.63794E+02 -2.16905E+03  7.50779E+02 -1.49463E+03  3.80735E+02  2.12380E+03 -2.05835E+03  2.55731E+03
 -2.00827E+03 -8.31762E+01 -3.08242E+03 -9.85170E+02 -1.84061E+03 -4.87528E+03  7.61326E+02 -2.51253E+03
  1.84720E+03 -9.74027E+02  2.62487E+03  8.85571E+02  2.23693E+03 -6.43984E+02 -2.21713E+02  1.38228E+03
 -1.59696E+02  2.63507E+02 -1.90075E+03 -5.27912E+02  6.03328E+02 -3.38046E+03  3.32558E+03 -2.07266E+03
  3.55159E+03 -1.57160E+02  3.76060E+03  1.75467E+03  1.17990E+03  3.34613E+03 -8.90792E+02  2.82130E+03
 -1.17876E+03  1.33465E+03 -3.34598E+03 -1.28581E+02 -2.02938E+03 -2.54337E+03  1.18870E+03 -1.42619E+03
  3.09694E+03 -1.60215E+03  1.13183E+03  1.01760E+03  1.30383E+01  2.15312E+03  5.93987E+02  9.58918E+02
 -1.11860E+03  1.39037E+03 -7.85587E+02  6.88324E+02  6.13160E+02 -1.67810E+02  1.90937E+02  1.16230E+03
 -6.65492E+02  2.00625E+03 -2.30246E+03  8.81297E+00 -4.44366E+03  5.32589E+02 -3.77976E+03 -2.32128E+03
 -1.67723E+03 -4.91868E+03  2.12760E+03 -3.66397E+03  2.46506E+03 -3.84852E+03  5.33693E+03 -1.85572E+03
  5.90198E+03  1.14545E+03  2.89044E+03  3.32319E+03  2.47030E+02  2.88113E+03 -1.47810E+03  1.73256E+03
 -1.21967E+03  7.50451E+02 -1.37605E+03 -5.79295E+02 -8.10007E+02  7.68851E+02 -5.98032E+02  1.24519E+02
 -6.23438E+02 -7.57967E+01 -1.15382E+03  3.44517E+02  2.57788E+02 -4.18506E+02 -3.35946E+01 -1.29939E+03
  2.18363E+03 -1.45684E+03  7.57755E+02 -3.37023E+02  3.20514E+03  7.93199E+01  4.69103E+02  3.61551E+03
 -1.90430E+03  4.44653E+03 -3.75791E+03  2.81507E+03 -2.58927E+03 -3.21563E+02 -1.94678E+03 -1.73550E+03
 -1.58186E+03 -2.41656E+03  3.07575E+02 -3.50628E+03  1.28147E+03 -1.87597E+03  1.46696E+03  8.97773E+02
  9.20012E+02  6.78188E+02  3.26435E+02  1.13999E+03 -6.52232E+02  1.20502E+02 -6.44031E+02 -9.12919E+02
  2.08417E+03 -3.24204E+02  8.88734E+02  1.29806E+03  9.08302E+02  1.40045E+03 -5.30917E+02  4.65508E+02
 -7.66239E+02  1.62477E+03 -2.53345E+03 -2.39336E+02 -1.73752E+03 -1.31827E+03 -1.11070E+03 -2.25882E+03
  1.83177E+03 -4.85661E+02  2.06112E+03 -1.13567E+03  2.65260E+03  6.70869E+02  1.52639E+03  7.99555E+02
  6.91512E+02  2.77519E+03 -1.49011E+03  1.82805E+03 -1.53068E+03  1.68553E+03 -2.15666E+02  3.83373E+02
 -8.70524E+02  5.81138E+02 -1.48342E+03  2.76871E+02 -4.58319E+02 -5.73837E+02 -9.99530E+02 -8.90885E+02
 -2.12877E+03  4.92217E+02 -7.59405E+02 -1.44049E+03  1.47956E+03 -1.56633E+03  1.35864E+03 -5.00608E+02
  1.68298E+03 -1.67023E+02  1.15908E+02  2.28061E+02  6.87931E+02  3.30690E+03 -1.90982E+03  6.15136E+02
