 $NMID ID='MM_0lb_SNR200_12hz_g60_10.RAW', FMTDAT='(8E13.5)'
 TRAMP=1., VOLUME=1. $END
  3.10180E+05  8.55043E+01  3.38431E+05  2.50544E+05  8.59194E+04  3.39619E+05 -1.32093E+05  2.52490E+05
 -1.90548E+05  8.31185E+04 -1.10763E+05 -3.26066E+04 -5.79360E+02 -5.01494E+04  5.45005E+04 -2.55303E+02
  3.64900E+04  5.22576E+04 -1.50449E+04  7.63597E+04 -6.07637E+04  6.38084E+04 -8.49576E+04  3.24421E+04
 -8.26315E+04 -1.22936E+04 -5.81735E+04 -5.19850E+04 -1.39025E+04 -6.98634E+04  2.85221E+04 -4.84960E+04
  3.99983E+04  4.53417E+03  1.68822E+04  4.82235E+04 -3.45386E+04  4.80711E+04 -6.69079E+04 -9.72955E+02
 -5.40345E+04 -5.67654E+04 -6.74266E+03 -7.82208E+04  3.61362E+04 -5.71618E+04  4.83990E+04 -1.91766E+04
  4.35891E+04  1.19721E+04  3.27824E+04  2.57214E+04  1.46215E+04  3.10350E+04 -5.54279E+03  2.73134E+04
 -2.06661E+04  1.18776E+04 -1.86740E+04 -4.84520E+03  7.86070E+03 -9.25582E+03  2.28935E+04  1.27868E+04
  6.98553E+03  3.68238E+04 -3.22110E+04  3.57983E+04 -6.54059E+04  3.02693E+03 -5.85689E+04 -4.50395E+04
 -1.23588E+04 -6.41959E+04  4.18472E+04 -4.64295E+04  5.96433E+04 -2.19738E+03  3.55227E+04  3.39093E+04
 -5.55342E+03  4.04530E+04 -3.19725E+04  1.99614E+04 -3.22064E+04 -3.43760E+03 -1.94419E+04 -1.30229E+04
 -8.13286E+03 -1.43896E+04  4.45807E+02 -1.88957E+04  6.85412E+03 -2.47231E+04  1.52128E+04 -1.32044E+04
  1.04579E+04  6.70535E+03 -9.83216E+03  1.38191E+04 -2.38404E+04 -6.08268E+03 -7.96464E+03 -3.58059E+04
  2.47933E+04 -4.57949E+04  5.20326E+04 -2.04575E+04  4.69218E+04  2.02395E+04  1.64959E+04  4.59834E+04
 -1.70786E+04  3.45109E+04 -2.62994E+04  1.27910E+03 -1.06953E+04 -2.94025E+04  2.29584E+04 -3.52523E+04
  4.32990E+04 -9.25762E+03  3.93913E+04  2.32691E+04  2.07959E+04  5.04164E+04 -8.40084E+03  5.55946E+04
 -3.50898E+04  3.77603E+04 -4.62425E+04  8.95415E+03 -4.66381E+04 -1.65626E+04 -2.63008E+04 -3.89185E+04
  7.49990E+03 -4.00967E+04  3.36095E+04 -1.65706E+04  3.05823E+04  1.02620E+04  5.27996E+03  1.98844E+04
 -1.46946E+04  9.33337E+03 -1.09406E+04 -7.39688E+03  5.19929E+03 -1.24251E+04  1.96534E+04  8.40053E+03
  1.31710E+04  2.13785E+04 -5.91758E+03  2.59672E+04 -2.23995E+04  1.32554E+04 -2.92427E+04 -3.34408E+03
 -2.39412E+04 -1.81055E+04 -9.17284E+03 -2.39772E+04  5.19094E+03 -2.35601E+04  1.70413E+04 -2.34074E+04
  2.91483E+04 -1.44889E+04  3.61912E+04  4.73626E+03  2.58754E+04  2.17571E+04  5.37811E+03  3.93882E+04
 -2.01400E+04  3.42045E+04 -3.00873E+04  1.07784E+04 -2.20533E+04 -1.20595E+04 -4.96974E+03 -1.34103E+04
 -7.06054E+02 -1.57880E+03 -7.30266E+03  8.62047E+03 -1.93134E+04  6.97180E+03 -1.83698E+04 -8.49774E+03
 -1.00084E+04 -2.11862E+04  6.19297E+03 -2.65880E+04  1.80116E+04 -1.83762E+04  2.11632E+04 -2.21909E+02
  1.43171E+04  1.62353E+04  3.40073E+01  2.09240E+04 -1.53036E+04  1.26002E+04 -2.21363E+04 -3.36102E+03
 -1.48214E+04 -1.88283E+04 -2.66064E+03 -2.58439E+04  1.26203E+04 -2.14874E+04  2.11152E+04 -1.08070E+04
  1.89616E+04 -1.49602E+03  1.41708E+04  5.78602E+03  7.75361E+03  1.56934E+03  1.16353E+04 -1.45100E+03
  1.99747E+04  4.34524E+03  2.25597E+04  1.82376E+04  1.46699E+04  3.50589E+04 -2.86436E+03  4.02447E+04
 -2.30881E+04  3.35451E+04 -3.87466E+04  1.71791E+04 -4.06991E+04 -2.51549E+03 -3.23337E+04 -2.36160E+04
 -1.39613E+04 -3.29019E+04  1.07869E+04 -2.92364E+04  2.57905E+04 -1.36495E+04  2.27999E+04  6.67743E+03
  7.53693E+03  1.78781E+04 -1.10271E+04  1.57588E+04 -1.81398E+04  1.74009E+03 -1.37385E+04 -1.31091E+04
 -1.12087E+03 -1.75167E+04  9.99256E+03 -1.29924E+04  1.32066E+04 -7.45700E+02  2.27635E+03  7.60963E+03
 -1.02387E+04  4.29939E+03 -7.27422E+03 -6.11630E+03 -1.19414E+03 -1.57395E+04  1.02939E+04 -1.64012E+04
  1.96748E+04 -9.10133E+03  2.41849E+04  3.42978E+03  2.04027E+04  1.58286E+04  8.62804E+03  2.45950E+04
 -4.57515E+03  2.85018E+04 -1.65772E+04  1.72371E+04 -1.99029E+04  4.61688E+03 -1.35892E+04 -4.41282E+03
 -7.51771E+03 -5.96078E+03 -6.80733E+02  1.07142E+03 -2.93156E+03  8.29669E+02 -5.72932E+03  4.36546E+03
 -1.10464E+04  5.01997E+02 -1.41256E+04 -1.09855E+04 -5.43344E+03 -1.71721E+04  5.41821E+03 -1.34966E+04
  1.26852E+04 -5.68515E+03  7.31542E+03  3.04111E+03  2.98728E+02  4.30771E+03 -6.26149E+03  1.52010E+03
 -5.93060E+03 -8.74925E+03 -7.43964E+02 -1.34501E+04  7.70124E+03 -1.33868E+04  1.67759E+04 -6.14624E+03
  1.97357E+04  1.48184E+03  1.44906E+04  1.25075E+04  3.35530E+03  1.54867E+04 -9.82467E+03  1.38381E+04
 -1.18579E+04  4.74265E+03 -5.52731E+03 -3.13623E+03  3.00841E+03 -3.15067E+03  7.45843E+03 -2.07959E+03
  6.74450E+03  6.05327E+03  6.42016E+02  1.14069E+04 -7.16562E+03  1.16015E+04 -1.37395E+04  2.84589E+03
 -9.15093E+03 -5.59715E+03 -4.97405E+02 -1.09944E+04  6.49204E+03 -5.98529E+03  6.63847E+03  2.30565E+03
  1.31470E+02  7.32165E+03 -7.83710E+03  8.42821E+03 -1.20984E+04  4.22962E+03 -1.23696E+04 -4.21224E+03
 -6.56112E+03 -1.23810E+04  2.36768E+03 -1.49075E+04  1.22823E+04 -8.97756E+03  1.32304E+04  2.70636E+03
  7.10988E+03  1.24898E+04 -1.98401E+02  1.25776E+04 -9.51848E+03  7.94101E+03 -1.14610E+04 -2.66666E+03
 -9.65797E+03 -8.01196E+03 -1.26864E+03 -9.70728E+03  4.83740E+03 -7.45535E+03  5.91463E+03 -2.51967E+03
  4.06228E+03  3.54132E+02 -9.51688E+02  2.11756E+03 -5.11181E+02 -2.76533E+03  1.93101E+03 -5.50942E+03
  9.97239E+03 -4.51396E+03  1.27092E+04  2.55381E+02  1.03898E+04  8.69232E+03  9.94257E+03  1.71390E+04
 -3.67011E+03  1.91762E+04 -1.54734E+04  1.28341E+04 -2.06325E+04  3.08764E+03 -1.59817E+04 -7.86420E+03
 -9.15996E+03 -1.43393E+04 -8.06498E+02 -1.03956E+04  4.34444E+03 -5.41447E+03  4.42215E+03 -3.73843E+03
  2.76275E+03 -1.89303E+03  3.90847E+03 -2.22298E+03  5.07805E+03 -2.89877E+03  6.85738E+03 -9.23082E+02
  7.97324E+03  1.46506E+03  3.93419E+03  8.13113E+03 -2.70121E+03  1.02436E+04 -9.20095E+03  6.03644E+03
 -1.30088E+04 -3.47541E+03 -6.42140E+03 -9.00499E+03 -5.05619E+02 -1.29866E+04  6.22290E+03 -1.37013E+04
  1.43120E+04 -6.43031E+03  1.54476E+04  2.53699E+03  1.02993E+04  1.14141E+04  1.10988E+03  1.37250E+04
 -5.53295E+03  1.16472E+04 -7.73184E+03  3.62535E+03 -4.61431E+03 -3.64268E+02 -2.72843E+03 -8.67984E+02
 -1.22989E+03  6.51491E+02 -1.90845E+03  2.21911E+03 -4.26227E+03  2.53443E+03 -8.27030E+03 -1.52826E+03
 -5.64179E+03 -9.03423E+03  8.93198E+02 -1.14513E+04  6.79785E+03 -1.09830E+04  1.03977E+04 -4.23615E+03
  1.16181E+04  6.39853E+03  4.23857E+03  1.10510E+04 -2.74029E+03  1.18083E+04 -8.08719E+03  6.98223E+03
 -1.22217E+04  1.16059E+02 -7.88123E+03 -6.82399E+03 -3.01726E+02 -8.96385E+03  4.94679E+03 -7.47734E+03
  6.78796E+03 -2.26294E+03  4.90264E+03  1.03400E+03  1.91029E+03  5.12128E+03  3.29604E+03  3.11730E+03
  2.08181E+03  7.92246E+02  3.56623E+03  2.03379E+03  4.38896E+03  1.52101E+03  3.72588E+03  6.86850E+03
 -2.15460E+03  8.50539E+03 -6.63436E+03  9.10366E+03 -1.06055E+04  3.15178E+03 -1.10333E+04 -5.81515E+03
 -5.33494E+03 -8.94132E+03  8.66337E+02 -1.09124E+04  6.90843E+03 -8.66703E+03  8.01482E+03 -3.24841E+03
  7.88913E+03  3.36819E+03  9.55158E+02  6.74548E+03 -2.27948E+03  4.06459E+03 -4.07953E+03 -5.94446E+02
 -2.16531E+03 -4.57243E+03  2.62539E+03 -3.60616E+03  4.64295E+03 -2.69405E+03  5.74442E+03  1.23320E+03
  2.45381E+03  2.03275E+03  1.94324E+03  1.52590E+03 -3.14388E+02  2.26943E+03  1.60486E+03 -1.53471E+03
  1.78388E+03 -8.55366E+02  4.20107E+03  2.07648E+03  2.60962E+03  5.60857E+03  2.06657E+02  7.85224E+03
 -5.45662E+03  5.06174E+03 -7.93547E+03  1.26811E+03 -7.59981E+03 -3.34890E+03 -2.39668E+03 -4.65144E+03
  1.56695E+03 -3.32181E+03  2.41997E+03 -1.52991E+03  2.81840E+03  1.10530E+03 -1.31921E+03  2.88328E+03
 -4.16769E+03  2.20707E+03 -3.81635E+03 -3.25806E+03 -3.32818E+03 -5.51073E+03  3.15816E+02 -5.05694E+03
  2.46238E+03 -4.85941E+03  3.62069E+03 -8.53809E+02  2.93595E+03  7.86439E+02  1.37739E+03  1.78186E+03
 -1.56521E+03  1.03935E+03 -3.19368E+03 -5.21774E+01  1.82715E+03 -4.78402E+03  4.45405E+03 -3.60020E+03
  5.70898E+03  5.09724E+02  7.22016E+03  3.16378E+03  1.60294E+03  6.80663E+03 -1.44839E+03  7.33498E+03
 -5.99543E+03  1.69976E+03 -7.08143E+03 -1.58366E+03 -2.97079E+03 -3.89323E+03  8.50255E+02 -3.73982E+03
  3.56756E+03 -1.91035E+03  2.83438E+03  1.77181E+03 -4.87646E+02  3.23322E+03 -7.74494E+02  3.15499E+03
 -1.54457E+03  5.55974E+02 -7.05653E+02  1.08089E+03 -1.11681E+03  1.11595E+03 -8.46756E+02  1.00645E+03
 -1.84894E+03  9.66367E+01 -5.41040E+03  1.90559E+03 -6.42261E+03  1.48100E+02 -6.70703E+03 -3.54205E+03
 -4.15568E+03 -8.45735E+03  1.88728E+03 -1.00112E+04  6.10559E+03 -7.69790E+03  8.51039E+03 -4.97051E+03
  1.02097E+04  2.34028E+03  6.68003E+03  6.62680E+03  9.78766E+02  5.30111E+03 -1.46205E+03  4.16483E+03
 -4.04160E+03  2.99580E+03 -1.14298E+03 -8.96174E+02 -7.88074E+02  1.38164E+02 -9.81022E+02  1.80399E+00
 -1.89629E+03 -9.50956E+02 -6.46259E+02 -7.96964E+02 -2.71567E+02 -2.41306E+03 -6.10487E+02 -2.64715E+03
  3.82285E+03 -3.34852E+03  3.67931E+03  1.80260E+01  4.14799E+03  3.67933E+03 -1.18144E+02  6.15967E+03
 -3.72247E+03  7.47156E+03 -7.44704E+03  3.94136E+03 -8.80374E+03 -1.40717E+03 -5.37428E+03 -6.46139E+03
 -3.37258E+03 -6.59748E+03  1.45341E+03 -6.13203E+03  4.73117E+03 -3.30763E+03  4.14475E+03 -1.88632E+02
  1.74308E+03  2.73804E+03 -2.33387E+02  2.16350E+03 -1.39104E+03 -5.58642E+02  9.40868E+02  1.92976E+02
  2.22584E+03 -5.47266E+02  1.75597E+03  7.35921E+01  1.34279E+03  3.14529E+03 -3.74552E+02  2.57105E+03
 -1.97135E+03  2.39192E+03 -4.28807E+03  7.33889E+02 -3.28033E+03 -3.63261E+03 -2.04626E+02 -5.92870E+03
  3.13309E+03 -3.83211E+03  3.13165E+03 -8.71163E+02  4.99246E+03  8.32102E+02  2.96156E+03  4.12517E+03
  1.14611E+03  3.34588E+03 -1.46273E+03  2.68998E+03 -2.27471E+03  1.86720E+03 -3.28844E+03  1.19519E+03
 -2.20642E+03 -2.43948E+02 -1.78574E+03  5.39442E+02 -2.38626E+03 -5.79866E+02 -3.31843E+03 -7.76686E+02
 -2.61656E+03 -1.70150E+03 -2.64334E+03 -2.50816E+03  1.65353E+03 -4.30177E+03  3.16879E+03 -2.01713E+03
  2.77075E+03 -8.50326E+02  2.73512E+03  3.03804E+03  2.70374E+02  1.81318E+03 -2.91987E+03  3.05411E+03
