 $NMID ID='MM_0lb_SNR200_7hz_g60_70.RAW', FMTDAT='(8E13.5)'
 TRAMP=1., VOLUME=1. $END
  3.07946E+05  1.17337E+03  3.39506E+05  2.52245E+05  8.48630E+04  3.38207E+05 -1.34660E+05  2.49723E+05
 -1.91835E+05  8.43269E+04 -1.13222E+05 -3.22277E+04  5.48205E+02 -5.15324E+04  5.31925E+04  6.02824E+01
  3.68285E+04  5.19829E+04 -1.56354E+04  7.71861E+04 -6.09279E+04  6.47860E+04 -8.64664E+04  3.18933E+04
 -8.20121E+04 -1.13394E+04 -6.06468E+04 -5.25454E+04 -1.59602E+04 -7.22991E+04  2.83505E+04 -4.70817E+04
  4.09203E+04  2.19171E+03  1.64396E+04  4.68803E+04 -3.50149E+04  4.86058E+04 -6.84915E+04 -9.85026E+02
 -5.59176E+04 -5.86681E+04 -9.95052E+03 -7.84554E+04  3.50984E+04 -5.80686E+04  5.30467E+04 -1.81374E+04
  4.58018E+04  1.05969E+04  3.62224E+04  2.91504E+04  1.42441E+04  3.07440E+04 -5.32746E+03  2.67717E+04
 -2.33273E+04  1.19155E+04 -1.72099E+04 -7.09771E+03  7.08025E+03 -7.26401E+03  2.53681E+04  1.44058E+04
  7.67633E+03  3.95389E+04 -3.48748E+04  3.68978E+04 -6.79077E+04  3.66081E+03 -5.86452E+04 -4.34355E+04
 -1.30263E+04 -6.71507E+04  4.40489E+04 -4.86899E+04  6.26597E+04 -2.03706E+03  3.70147E+04  3.36267E+04
 -5.66405E+03  4.09856E+04 -3.31095E+04  2.12213E+04 -3.62961E+04 -3.24334E+03 -2.14301E+04 -1.11396E+04
 -9.56249E+03 -1.62430E+04  3.30350E+02 -2.13814E+04  8.71686E+03 -2.33847E+04  1.82330E+04 -1.09394E+04
  8.96982E+03  6.95638E+03 -1.16109E+04  1.07195E+04 -2.35259E+04 -6.62064E+03 -9.99404E+03 -3.75662E+04
  2.61834E+04 -4.83123E+04  5.37271E+04 -2.13122E+04  4.95605E+04  2.02592E+04  1.55227E+04  4.91773E+04
 -1.55762E+04  3.72052E+04 -2.91585E+04  2.09921E+03 -1.40452E+04 -3.32384E+04  2.17917E+04 -3.70388E+04
  4.84895E+04 -1.28570E+04  4.13389E+04  2.52874E+04  2.29990E+04  5.38065E+04 -7.89958E+03  5.98992E+04
 -3.66989E+04  4.09508E+04 -5.09932E+04  1.31426E+04 -5.03772E+04 -2.03786E+04 -2.72239E+04 -4.53878E+04
  9.98852E+03 -4.37832E+04  3.70434E+04 -1.88814E+04  3.33362E+04  1.06579E+04  5.29379E+03  2.21347E+04
 -1.47509E+04  1.09945E+04 -1.44094E+04 -7.78918E+03  6.42951E+03 -1.16075E+04  1.95833E+04  5.46785E+03
  1.57035E+04  2.24947E+04 -6.21312E+03  2.92046E+04 -2.34629E+04  1.43462E+04 -3.14671E+04 -1.76531E+03
 -2.91523E+04 -1.89156E+04 -1.36958E+04 -2.78536E+04  4.63515E+03 -2.79654E+04  2.05854E+04 -2.57923E+04
  3.68249E+04 -1.53375E+04  4.10563E+04  4.96830E+03  2.86805E+04  2.56409E+04  6.20483E+03  4.40659E+04
 -2.15340E+04  3.60514E+04 -3.31126E+04  1.41539E+04 -2.49370E+04 -1.01763E+04 -5.42930E+03 -1.37152E+04
 -2.71805E+02 -4.45281E+02 -8.34213E+03  8.56167E+03 -2.36130E+04  4.59353E+03 -2.29591E+04 -1.02730E+04
 -1.51608E+04 -2.74812E+04  7.28557E+03 -3.15812E+04  2.07362E+04 -2.19007E+04  2.61614E+04 -1.71633E+03
  1.57547E+04  1.90922E+04 -2.75896E+03  2.72780E+04 -1.77343E+04  1.52597E+04 -2.61165E+04 -6.86136E+03
 -1.93012E+04 -2.28756E+04 -2.89255E+03 -3.19549E+04  1.29713E+04 -2.58431E+04  2.73462E+04 -1.26247E+04
  2.23230E+04 -2.38569E+03  1.80216E+04  4.91351E+03  9.24104E+03  4.23104E+02  1.23015E+04 -2.78309E+03
  2.35388E+04  3.70769E+03  3.07154E+04  2.10707E+04  2.08075E+04  4.22594E+04 -3.55700E+03  5.06962E+04
 -2.92022E+04  4.20634E+04 -4.80705E+04  2.24759E+04 -5.22094E+04 -5.32005E+03 -4.29299E+04 -3.39449E+04
 -1.48904E+04 -4.30609E+04  1.75192E+04 -3.68950E+04  3.15084E+04 -1.62284E+04  2.77233E+04  8.59911E+03
  8.16763E+03  1.96857E+04 -1.35631E+04  1.66177E+04 -2.36073E+04  3.52352E+03 -1.68869E+04 -1.57497E+04
 -1.18520E+03 -2.02642E+04  9.27014E+03 -1.74743E+04  1.56993E+04 -8.76354E+02  4.57512E+03  9.02799E+03
 -8.05405E+03  4.10328E+03 -1.05265E+04 -7.15918E+03 -3.44606E+03 -2.24409E+04  1.50160E+04 -2.44330E+04
  2.67113E+04 -1.51217E+04  3.07727E+04  3.00498E+03  3.06469E+04  2.28932E+04  1.35917E+04  3.32480E+04
 -7.48256E+03  3.72163E+04 -2.33171E+04  2.20010E+04 -2.47807E+04  4.43060E+03 -1.81824E+04 -6.69737E+03
 -6.12147E+03 -8.46144E+03 -2.26197E+03 -6.13323E+02 -3.13527E+03  4.07492E+03 -9.14247E+03  6.54512E+03
 -1.66685E+04 -1.52262E+03 -1.65596E+04 -1.40989E+04 -7.53527E+03 -2.29473E+04  8.45639E+03 -1.91351E+04
  1.53521E+04 -8.87232E+03  1.00127E+04  2.91947E+03 -2.11384E+03  6.50780E+03 -9.98782E+03 -2.27919E+03
 -9.01376E+03 -1.01986E+04 -1.68652E+01 -1.94676E+04  1.08434E+04 -1.83669E+04  2.52800E+04 -1.08699E+04
  2.76199E+04  3.13460E+03  1.83684E+04  1.59673E+04  2.21611E+03  2.24527E+04 -1.23674E+04  1.92344E+04
 -1.41590E+04  4.14655E+03 -8.30563E+03 -3.48512E+03  2.66076E+03 -5.82623E+03  8.73212E+03 -6.08413E+01
  1.04150E+04  9.29853E+03  1.42709E+01  1.54719E+04 -9.78523E+03  1.46828E+04 -1.68589E+04  2.47329E+03
 -1.23849E+04 -8.97108E+03 -4.93681E+02 -1.63070E+04  1.00744E+04 -9.07203E+03  1.26872E+04  4.30630E+03
  3.63072E+03  1.33449E+04 -9.37275E+03  1.35484E+04 -1.82723E+04  5.97621E+03 -1.91696E+04 -6.66758E+03
 -1.11497E+04 -1.96169E+04  5.92292E+03 -2.35729E+04  1.97473E+04 -1.29183E+04  2.14390E+04  3.45287E+03
  1.19931E+04  1.61349E+04 -2.69041E+03  2.02780E+04 -1.56619E+04  8.66752E+03 -1.59993E+04 -1.46076E+03
 -1.42296E+04 -1.28061E+04 -3.43711E+03 -1.59675E+04  7.48199E+03 -1.03855E+04  9.81780E+03 -4.84858E+03
  6.83859E+03  2.98588E+03 -7.91419E+02  1.85576E+03 -8.03078E+02 -4.27429E+03  4.76239E+03 -9.47536E+03
  1.60111E+04 -4.62601E+03  2.05301E+04  3.38515E+03  1.90421E+04  1.52321E+04  1.17629E+04  2.63894E+04
 -6.66996E+03  3.16294E+04 -2.45926E+04  2.26870E+04 -3.24322E+04  4.44357E+03 -2.86155E+04 -1.04997E+04
 -1.27113E+04 -2.21731E+04 -6.80959E+02 -1.96893E+04  5.61492E+03 -9.90023E+03  7.58856E+03 -5.96747E+03
  4.35617E+03 -4.02539E+03  6.03879E+03 -4.70541E+03  6.49627E+03 -5.02256E+03  8.49869E+03 -3.22948E+03
  1.39462E+04  3.95440E+03  1.02000E+04  1.19552E+04 -2.62239E+03  1.67211E+04 -1.52207E+04  1.08446E+04
 -1.78460E+04 -1.77167E+03 -1.43225E+04 -1.31835E+04 -9.69428E+02 -2.13909E+04  1.13366E+04 -1.86513E+04
  2.24900E+04 -1.02744E+04  2.69167E+04  4.63563E+03  1.50107E+04  1.82308E+04  1.29559E+03  2.44690E+04
 -9.66457E+03  1.92275E+04 -1.51999E+04  7.67898E+03 -9.51715E+03 -1.66941E+03 -4.71324E+03 -4.71406E+02
 -2.95096E+03 -1.60252E+03 -3.88887E+03  2.39517E+03 -7.94577E+03  3.33147E+03 -1.35622E+04 -3.52875E+03
 -8.76243E+03 -1.54997E+04 -1.75763E+03 -2.11672E+04  1.02646E+04 -1.95438E+04  1.99548E+04 -5.52074E+03
  1.78641E+04  9.01442E+03  1.03254E+04  1.68467E+04 -2.12741E+03  1.95277E+04 -1.52280E+04  1.15232E+04
 -2.30491E+04 -7.93253E+02 -1.36952E+04 -1.18884E+04 -7.44270E+02 -1.68751E+04  7.75336E+03 -1.18619E+04
  1.25641E+04 -3.83267E+03  1.02644E+04  3.95092E+03  2.84778E+03  4.99835E+03  1.41394E+03  1.69405E+03
  3.47124E+03  1.32555E+03  5.86644E+03  2.81358E+03  8.37032E+03  6.54602E+03  4.91968E+03  8.85347E+03
 -5.48442E+03  1.65820E+04 -1.51658E+04  1.59099E+04 -2.15171E+04  4.33724E+03 -2.22668E+04 -9.76639E+03
 -9.59702E+03 -2.01005E+04  2.38130E+03 -2.18753E+04  1.41347E+04 -1.53754E+04  1.66023E+04 -4.46622E+03
  1.36251E+04  8.03350E+03  3.30520E+03  1.24162E+04 -7.08858E+03  9.07325E+03 -7.33489E+03 -9.75477E+02
 -4.20103E+03 -8.12402E+03  4.18627E+03 -8.55557E+03  9.89515E+03 -4.25654E+03  6.78667E+03 -6.93851E+02
  5.20008E+03  3.26924E+03  2.81731E+03  2.66237E+03 -1.28493E+03  2.71253E+03  1.96375E+03  7.53888E+02
  5.16007E+03 -2.06485E+02  7.59106E+03  3.87695E+03  4.38947E+03  9.91496E+03 -2.88433E+03  1.54486E+04
 -1.17255E+04  1.00877E+04 -1.37667E+04  3.62452E+03 -1.20615E+04 -4.57956E+03 -4.35545E+03 -8.50076E+03
  2.84393E+03 -7.81605E+03  3.67166E+03 -3.36457E+03  4.01088E+03  4.01228E+03 -3.97645E+03  7.95455E+03
 -8.80758E+03  4.36967E+03 -1.16506E+04 -3.06539E+03 -6.86961E+03 -1.09298E+04  2.17011E+03 -1.09064E+04
  7.67338E+03 -8.68204E+03  7.37419E+03 -1.08348E+03  7.74541E+03  4.46725E+03  6.37940E+02  5.45935E+03
 -2.99335E+03  2.88198E+03 -6.03402E+03 -4.97042E+03  7.67682E+02 -9.60090E+03  1.13408E+04 -7.76996E+03
  1.57246E+04  2.62145E+03  1.26066E+04  1.13990E+04  2.84100E+03  1.54642E+04 -7.46996E+03  1.16289E+04
 -1.15254E+04  7.71833E+03 -1.16932E+04 -2.04930E+03 -6.44628E+03 -7.91541E+03  3.30820E+03 -8.92964E+03
  8.94822E+03 -5.96985E+03  7.35813E+03  4.25883E+03  4.06107E+03  9.51452E+03 -1.91229E+03  6.37860E+03
 -4.30058E+03  6.79607E+03 -4.41117E+03  1.40184E+03 -8.95310E+02  2.52180E+03 -2.53446E+03  4.36904E+03
 -6.23304E+03  6.70203E+03 -1.18264E+04  4.92691E+03 -1.44234E+04 -5.57263E+02 -1.50365E+04 -9.60991E+03
 -1.02505E+04 -1.86669E+04  4.18563E+03 -2.40927E+04  1.49092E+04 -1.80967E+04  2.23736E+04 -5.45755E+03
  2.16306E+04  4.38986E+03  1.28144E+04  1.40759E+04  2.97318E+03  1.56456E+04 -7.74631E+03  1.26682E+04
 -8.76881E+03  3.70002E+03 -5.51506E+03  1.20423E+03 -2.18317E+03 -2.14920E+03 -3.65729E+02 -4.16324E+02
 -3.66160E+03 -2.02920E+02 -3.91544E+03 -5.93308E+02 -1.07438E+03 -5.02314E+03  1.62864E+03 -6.85780E+03
  7.56379E+03 -6.27212E+03  1.07781E+04  5.54216E+02  1.20996E+04  6.51673E+03  2.54865E+03  1.81807E+04
 -7.08173E+03  1.70777E+04 -1.75585E+04  1.09924E+04 -1.88662E+04 -1.20182E+03 -1.35476E+04 -1.33348E+04
 -7.19122E+03 -1.49748E+04  5.22666E+03 -1.52118E+04  1.08834E+04 -7.43804E+03  9.42949E+03  1.69908E+03
  6.09923E+03  4.37167E+03 -1.27557E+03  5.47598E+03 -4.59576E+03 -3.25412E+02  1.25745E+03 -4.66886E+03
  4.32163E+03 -3.30167E+03  7.83292E+03  4.31489E+03  4.94185E+03  7.29925E+03 -1.26855E+02  8.84917E+03
 -7.62373E+03  8.28057E+03 -1.11299E+04  1.41544E+03 -1.02554E+04 -6.92471E+03 -2.93205E+03 -1.33178E+04
  9.14132E+03 -1.15351E+04  1.30630E+04 -5.44809E+03  1.40634E+04  3.35749E+03  5.39427E+03  1.08219E+04
  5.85104E+02  9.05165E+03 -3.67126E+03  9.00307E+03 -6.10554E+03  5.50315E+03 -4.21422E+03 -6.62939E+02
 -3.44602E+03  1.22007E+03 -3.32447E+03  1.80934E+03 -6.82962E+03  6.50564E+02 -9.13721E+03 -5.40094E+02
 -6.26150E+03 -6.12758E+03 -2.74877E+03 -1.23112E+04  5.11253E+03 -1.31739E+04  9.34847E+03 -6.43483E+03
  1.27615E+04  2.68484E+02  6.26404E+03  8.17928E+03 -2.25068E+03  1.17311E+04 -9.31711E+03  6.31580E+03
