 $NMID ID='MM_0lb_SNR200_18hz_g45_32.RAW', FMTDAT='(8E13.5)'
 TRAMP=1., VOLUME=1. $END
  3.09544E+05  4.94201E+02  3.36493E+05  2.50935E+05  8.39773E+04  3.36882E+05 -1.31944E+05  2.50671E+05
 -1.88778E+05  8.33858E+04 -1.12212E+05 -3.25860E+04  1.30459E+03 -5.14082E+04  5.42485E+04  1.18460E+03
  3.50389E+04  5.23596E+04 -1.60560E+04  7.45007E+04 -5.92018E+04  6.27413E+04 -8.20999E+04  3.04701E+04
 -7.93936E+04 -1.13340E+04 -5.63563E+04 -5.11086E+04 -1.50772E+04 -6.81999E+04  2.67355E+04 -4.41334E+04
  3.90835E+04  5.25082E+03  1.51511E+04  4.64384E+04 -3.34086E+04  4.63115E+04 -6.68757E+04 -1.77039E+02
 -5.19150E+04 -5.49038E+04 -5.71183E+03 -7.48231E+04  3.29260E+04 -5.38920E+04  4.56405E+04 -1.75866E+04
  4.14025E+04  1.07190E+04  3.12074E+04  2.39546E+04  1.59949E+04  2.79776E+04 -4.29297E+03  2.67108E+04
 -2.12720E+04  1.15750E+04 -2.05598E+04 -4.90550E+03  5.25659E+03 -7.05246E+03  2.14202E+04  1.16189E+04
  7.91312E+03  3.34792E+04 -3.03395E+04  3.37857E+04 -6.04944E+04  2.10499E+03 -5.55944E+04 -4.08691E+04
 -1.30426E+04 -5.98986E+04  3.81390E+04 -4.38803E+04  5.49984E+04 -2.34485E+03  3.27918E+04  3.07513E+04
 -6.71787E+03  3.28523E+04 -2.86519E+04  1.31424E+04 -2.80446E+04 -5.35533E+03 -1.43425E+04 -9.38650E+03
 -7.49987E+03 -1.16224E+04 -1.30929E+03 -1.78076E+04  5.82555E+03 -2.29436E+04  1.54071E+04 -1.40740E+04
  1.18495E+04  4.24639E+03 -6.54770E+03  1.34363E+04 -1.97230E+04 -2.60584E+03 -9.90753E+03 -3.07884E+04
  2.11179E+04 -4.01864E+04  4.39410E+04 -1.83186E+04  4.28125E+04  1.78110E+04  1.45517E+04  4.14961E+04
 -1.44540E+04  3.18557E+04 -2.30008E+04  2.00401E+03 -9.03851E+03 -2.63888E+04  1.85285E+04 -3.16858E+04
  3.85519E+04 -6.14475E+03  3.17130E+04  2.32377E+04  1.58567E+04  4.36338E+04 -6.94879E+03  4.53831E+04
 -2.81747E+04  2.98310E+04 -3.74450E+04  8.36422E+03 -3.76546E+04 -1.59629E+04 -2.14242E+04 -3.58888E+04
  5.98123E+03 -3.42387E+04  2.85340E+04 -1.23559E+04  2.73592E+04  9.94576E+03  3.53900E+03  1.81866E+04
 -1.33976E+04  7.11745E+03 -1.00857E+04 -7.03407E+03  5.57185E+03 -1.01693E+04  1.61956E+04  6.75483E+03
  1.24270E+04  2.22444E+04 -5.87252E+03  2.30202E+04 -2.15339E+04  8.27032E+03 -2.54344E+04 -5.23368E+03
 -1.64405E+04 -1.72083E+04 -5.70510E+03 -1.63114E+04  4.62041E+03 -1.58771E+04  1.28046E+04 -1.43015E+04
  2.20246E+04 -1.14872E+04  2.86086E+04  8.78338E+02  2.04914E+04  1.66932E+04  3.13742E+03  3.24267E+04
 -1.48525E+04  2.75472E+04 -2.62190E+04  9.74651E+03 -2.02334E+04 -1.02082E+04 -3.59201E+03 -1.31034E+04
  2.01464E+03 -4.06170E+03 -2.15375E+03  5.74200E+03 -1.32719E+04  5.72626E+03 -1.28951E+04 -4.76248E+03
 -8.12338E+03 -1.60185E+04  4.11101E+03 -1.92561E+04  1.32667E+04 -1.36179E+04  1.60852E+04 -1.89973E+03
  9.77393E+03  1.12326E+04 -3.35022E+02  1.57463E+04 -1.11725E+04  8.88255E+03 -1.64954E+04 -4.54712E+03
 -1.13639E+04 -1.46054E+04 -1.57576E+03 -1.97206E+04  8.51715E+03 -1.53111E+04  1.69985E+04 -6.35425E+03
  1.43498E+04  4.18629E+02  1.04379E+04  3.24322E+03  5.47839E+03 -5.25251E+02  7.46127E+03 -1.64368E+03
  1.45433E+04  2.62268E+03  1.42223E+04  1.24749E+04  9.17143E+03  2.44497E+04 -2.62846E+03  2.76321E+04
 -1.62163E+04  2.07290E+04 -2.42538E+04  9.59553E+03 -2.47205E+04 -2.14106E+03 -2.22898E+04 -1.58019E+04
 -9.64017E+03 -2.09052E+04  7.91597E+03 -1.73814E+04  1.66425E+04 -1.01111E+04  1.57342E+04  4.21948E+03
  6.84139E+03  1.00206E+04 -7.48805E+03  1.04191E+04 -1.30684E+04  1.69546E+03 -1.03770E+04 -7.56774E+03
 -5.76296E+02 -1.29675E+04  5.16888E+03 -1.06687E+04  8.34983E+03 -2.44513E+03  2.02949E+03  5.33857E+03
 -6.24892E+03  1.37669E+03 -2.49450E+03 -3.81467E+03  7.99537E+02 -1.21471E+04  9.37084E+03 -9.75555E+03
  1.29302E+04 -5.82675E+03  1.23485E+04  1.78872E+03  1.12517E+04  1.01877E+04  4.71490E+03  1.34854E+04
 -1.87930E+03  1.64170E+04 -1.02826E+04  1.03298E+04 -1.20906E+04  3.01936E+03 -9.25165E+03 -2.15616E+03
 -5.37398E+03 -3.48249E+03 -1.17487E+03  1.08596E+03 -1.91061E+03  1.73934E+03 -4.14680E+03  4.41743E+03
 -7.67305E+03 -4.53620E+02 -9.78008E+03 -7.06231E+03 -4.67766E+03 -1.24356E+04  4.13066E+03 -8.62107E+03
  7.69770E+03 -4.37369E+03  4.71737E+03  2.23290E+03  6.64690E+02  2.38337E+03 -3.85926E+03 -1.10326E+03
 -3.27572E+03 -4.91022E+03 -4.69549E+02 -6.34900E+03  4.03695E+03 -8.02676E+03  1.01357E+04 -4.95413E+03
  1.22232E+04  9.28714E+01  8.81504E+03  6.99960E+03  1.68958E+03  9.53550E+03 -5.78356E+03  8.48395E+03
 -7.32033E+03  2.56472E+03 -3.06077E+03 -7.96592E+02  1.93290E+03 -9.15553E+02  5.13880E+03 -1.43603E+03
  4.28092E+03  3.67886E+03  8.82701E+02  6.19669E+03 -4.88422E+03  6.89493E+03 -7.85757E+03  1.77821E+03
 -4.02376E+03 -3.35407E+03  8.92857E+02 -6.46231E+03  4.45379E+03 -3.09351E+03  3.82803E+03  1.42827E+03
 -3.75676E+01  4.07217E+03 -4.24760E+03  5.18603E+03 -5.38340E+03  3.08201E+03 -4.19098E+03 -2.00039E+03
 -3.46593E+03 -5.49955E+03  1.21276E+03 -7.64546E+03  5.98320E+03 -4.69876E+03  6.94835E+03  1.30684E+03
  5.34654E+03  4.98618E+03  4.90842E+01  7.90152E+03 -4.44517E+03  4.73931E+03 -5.16046E+03 -2.04679E+02
 -5.18479E+03 -5.65693E+03 -7.56799E+02 -4.57938E+03  2.41950E+03 -5.02492E+03  3.69288E+03 -3.01477E+03
  3.93221E+03  7.55231E+01 -8.51217E+01  1.71928E+03  7.35800E+02 -1.63970E+02 -6.85541E+02 -1.57027E+03
  4.81091E+03  4.11361E+02  5.38539E+03  2.07363E+03  5.95925E+03  3.65435E+03  4.40342E+03  6.95014E+03
 -2.05777E+03  9.04660E+03 -8.63574E+03  7.17175E+03 -1.10616E+04  1.36729E+03 -7.25899E+03 -3.43091E+03
 -4.08727E+03 -6.57119E+03 -7.96643E+02 -5.41754E+03  1.35876E+03 -2.52880E+03  2.38411E+03 -3.17922E+03
  9.90141E+02  1.78118E+02  1.68041E+03 -2.56049E+03  3.67346E+03 -1.78764E+03  2.62295E+03 -5.26624E+02
  5.31483E+03  8.18915E+02  9.08473E+02  2.44931E+03 -1.60099E+03  2.97550E+03 -3.89469E+03  2.84333E+03
 -5.91591E+03 -4.64362E+02 -2.83108E+03 -2.72846E+03  1.26694E+02 -5.48969E+03  2.85766E+03 -5.81253E+03
  5.01151E+03 -2.65965E+03  7.42452E+03  5.15712E+01  5.11683E+03  3.90389E+03  1.86858E+03  5.45153E+03
 -3.49894E+03  6.06022E+03 -3.43228E+03  2.73474E+03 -2.77693E+03 -9.77718E+02 -1.49685E+03 -1.52359E+03
 -4.20400E+02  2.05691E+02 -5.19718E+02  1.74963E+03 -1.52276E+03  6.56160E+02 -3.89068E+03 -3.66296E+02
 -9.98067E+02 -4.48943E+03  1.38431E+03 -4.68383E+03  3.31723E+03 -5.71308E+03  3.09852E+03 -2.25399E+03
  2.95798E+03  2.00286E+03  2.72677E+03  3.93999E+03 -7.74090E+02  4.23315E+03 -3.15573E+03  3.55984E+03
 -4.15917E+03 -1.94011E+02 -3.95494E+03 -2.54660E+03  2.53145E+02 -2.93363E+03  2.23688E+03 -2.45247E+03
  2.55804E+03 -2.29817E+03  1.74268E+03 -1.66665E+02 -8.38594E+02  1.36462E+03  1.45444E+03  7.83452E+02
  1.52730E+03  1.40897E+02  8.07066E+02  1.84167E+03  1.14232E+03  2.52234E+03  1.55534E+03  2.97066E+03
 -9.84441E+02  2.74186E+03 -2.85224E+03  4.66618E+03 -3.00846E+03  9.61853E+02 -4.27695E+03 -5.66286E+02
 -1.93720E+03 -4.23619E+03  1.35167E+03 -5.28393E+03  2.47841E+03 -3.74648E+03  4.12234E+03 -7.82594E+02
  2.81571E+03  2.77421E+03  1.14083E+03  3.33081E+03 -4.93381E+02  6.19922E+02 -1.64354E+03  3.04412E+02
 -7.22898E+02 -2.52833E+03  1.72033E+03 -7.20201E+02  1.62612E+03 -5.11503E+01  7.57584E+02 -1.05528E+03
  4.97805E+02  6.50265E+02 -4.81033E+02 -1.10107E+02 -8.63622E+02  7.93865E+02  2.46752E+03 -3.14627E+02
 -1.50457E+03 -7.86755E+02  1.48802E+03  1.32646E+03  4.44401E+02  3.18311E+03 -6.25162E+02  2.49111E+03
 -2.16978E+03  1.26263E+03 -1.09668E+03  1.54605E+02 -1.52971E+03 -1.54638E+03  9.30694E+01 -7.13264E+02
  7.25398E+02 -1.65576E+03  1.07209E+03 -1.32776E+03 -5.60167E+02  1.58039E+03 -7.75937E+02  9.09401E+02
 -2.36727E+03 -1.19125E+02 -7.85006E+02 -1.33196E+03 -1.51397E+03 -1.58752E+03  2.90343E+02 -2.42495E+03
  3.89475E+01 -1.16376E+02  1.02192E+03 -8.39433E+02  1.40851E+03 -1.24784E+03  4.23618E+02  1.72463E+03
 -4.27972E+02 -5.60967E+01 -8.84396E+02 -2.54722E+02  3.31168E+02 -1.18922E+03  1.96444E+03 -4.81262E+02
 -2.93340E+00 -1.78559E+02  3.43360E+03  5.31412E+02  2.37935E+03  1.37529E+03 -8.83510E+02  1.94441E+03
 -2.49270E+03 -4.20825E+02 -2.04731E+03  2.33091E+02  1.63363E+02 -2.24374E+03  1.24792E+03  1.78393E+03
  1.24855E+03 -1.69633E+03  7.96655E+02  1.41405E+03  8.79242E+02  1.66641E+03  5.15220E+02 -3.80566E+02
 -6.18806E+02  1.44096E+03 -4.11475E+02  4.02854E+02  9.17374E+02  1.04314E+03 -1.69549E+03  9.58391E+02
 -8.45055E+01  1.72850E+03 -2.28898E+03  3.19756E+02 -1.85231E+03  2.89754E+02 -2.16148E+03 -1.49881E+03
  4.18841E+02 -2.36876E+03 -2.02398E+02 -3.16252E+03  1.24677E+03 -2.90853E+03  3.87846E+03 -6.42477E+02
  2.96279E+03  1.75507E+01  1.12867E+03  2.33580E+03 -7.56817E+02  3.30900E+02 -6.87291E+02  9.33463E+02
 -1.32482E+03  1.60892E+03 -7.21202E+02 -3.36853E+02 -9.22582E+02  3.46123E+01 -5.28188E+02  1.28690E+03
 -1.24199E+03 -8.18237E+02 -4.91799E+02  1.08819E+03  4.24123E+02 -7.01617E+02 -8.39332E+01 -9.56866E+02
  1.09323E+03 -3.97453E+02  6.53933E+02  3.10189E+02  1.59483E+03  7.46469E+02 -4.51034E+01  1.66311E+03
 -1.48787E+03  1.79856E+03 -1.24871E+03  7.84121E+02 -2.45417E+03 -2.47804E+02 -9.41707E+02 -2.42267E+03
 -1.68310E+03 -9.44719E+02  5.94345E+02 -1.75425E+03  3.11739E+02  2.24701E+02 -1.07860E+02  3.78510E+02
 -9.27918E+01  1.14996E+03  7.78170E+02  8.29138E+02  7.89053E+02  2.50180E+02  5.78409E+02 -2.76504E+02
 -1.01023E+02  7.81102E+01  2.26793E+02  8.94256E+02  1.89152E+02  3.70528E+02  4.42983E+01  2.73885E+02
 -1.36802E+02  1.25934E+03 -9.88640E+01  2.47918E+02 -1.40692E+03  7.02687E+01 -4.01229E+02 -2.72456E+03
 -8.99744E+01 -2.78272E+02  5.60333E+02  6.85287E+02  1.13024E+03  4.91741E+02  7.64745E+02  4.66580E+02
 -4.13882E+02  8.80925E+02  6.57294E+02  1.21805E+03 -5.76286E+02 -5.27078E+02 -1.95632E+02 -4.49850E+02
  3.34715E+02 -9.53728E+01  2.39797E+02 -2.79541E+01 -9.14939E+02 -1.98213E+01 -6.62384E+02 -8.03894E+02
 -2.65679E+02  3.02656E+02  4.96757E+01 -8.24223E+02  7.55631E+02 -1.37343E+03 -4.09916E+02 -4.48293E+02
  3.87321E+02 -6.74257E+02 -5.38406E+02  6.72705E+02  1.91045E+02  5.56090E+02 -1.42565E+03  1.33826E+03
