 $NMID ID='MM_0lb_SNR200_14hz_g60_15.RAW', FMTDAT='(8E13.5)'
 TRAMP=1., VOLUME=1. $END
  3.08465E+05  7.46757E+02  3.39132E+05  2.50467E+05  8.42564E+04  3.38843E+05 -1.33167E+05  2.51440E+05
 -1.89579E+05  8.29032E+04 -1.12958E+05 -3.26886E+04  1.36283E+03 -5.01055E+04  5.43664E+04 -1.32693E+03
  3.53284E+04  5.17266E+04 -1.72738E+04  7.56097E+04 -6.07137E+04  6.42971E+04 -8.39862E+04  3.31402E+04
 -8.09433E+04 -1.10336E+04 -5.82508E+04 -5.13919E+04 -1.53509E+04 -7.03542E+04  2.83211E+04 -4.60168E+04
  4.14323E+04  3.08380E+03  1.58135E+04  4.86852E+04 -3.52041E+04  4.65044E+04 -6.65568E+04 -2.98373E+02
 -5.49813E+04 -5.86638E+04 -7.50426E+03 -7.73099E+04  3.46464E+04 -5.62842E+04  4.89847E+04 -1.79353E+04
  4.40247E+04  1.08327E+04  3.19023E+04  2.53767E+04  1.64643E+04  2.96462E+04 -4.40256E+03  2.82895E+04
 -2.26854E+04  1.23536E+04 -1.88523E+04 -5.54050E+03  6.46742E+03 -7.42569E+03  2.28119E+04  1.17933E+04
  9.17907E+03  3.52972E+04 -3.27305E+04  3.68115E+04 -6.47109E+04  2.22568E+03 -5.79419E+04 -4.35225E+04
 -1.28300E+04 -6.48270E+04  4.04671E+04 -4.69299E+04  5.89205E+04 -2.31057E+03  3.44276E+04  3.20491E+04
 -5.01019E+03  3.76076E+04 -3.11796E+04  1.75632E+04 -3.15571E+04 -5.05176E+03 -1.77263E+04 -1.08726E+04
 -8.93056E+03 -1.42692E+04 -1.05419E+03 -1.96125E+04  8.01274E+03 -2.31141E+04  1.61429E+04 -1.41186E+04
  1.09008E+04  5.01909E+03 -8.72904E+03  1.22986E+04 -2.23257E+04 -6.65493E+03 -8.59426E+03 -3.55773E+04
  2.27222E+04 -4.44030E+04  4.88107E+04 -2.09575E+04  4.54724E+04  1.95490E+04  1.61164E+04  4.43482E+04
 -1.65911E+04  3.42209E+04 -2.57026E+04  1.95864E+03 -1.08181E+04 -2.91893E+04  1.95756E+04 -3.47986E+04
  4.33596E+04 -8.83146E+03  3.53176E+04  2.37368E+04  1.89068E+04  4.70191E+04 -7.97917E+03  5.29478E+04
 -3.33867E+04  3.54612E+04 -4.35013E+04  1.01942E+04 -4.48383E+04 -1.72796E+04 -2.41314E+04 -3.94507E+04
  6.55585E+03 -3.94845E+04  3.18065E+04 -1.66678E+04  2.95639E+04  1.07170E+04  4.21814E+03  1.90134E+04
 -1.47398E+04  7.94570E+03 -1.05753E+04 -7.56176E+03  6.07162E+03 -1.05050E+04  1.84091E+04  6.27130E+03
  1.36770E+04  2.24140E+04 -6.02401E+03  2.56100E+04 -2.36024E+04  1.28229E+04 -2.86366E+04 -3.07495E+03
 -2.28755E+04 -1.70063E+04 -9.80402E+03 -2.15152E+04  3.81054E+03 -2.16024E+04  1.71449E+04 -1.92466E+04
  2.83133E+04 -1.27895E+04  3.38374E+04  3.54015E+03  2.46301E+04  2.07730E+04  4.31181E+03  3.79035E+04
 -1.82385E+04  3.03673E+04 -2.74862E+04  1.05751E+04 -2.11433E+04 -1.09115E+04 -5.19250E+03 -1.38409E+04
  1.25761E+03 -2.08807E+03 -5.28731E+03  5.76895E+03 -1.64589E+04  3.87399E+03 -1.80747E+04 -7.45841E+03
 -9.63167E+03 -1.82761E+04  5.48679E+03 -2.44518E+04  1.62022E+04 -1.73077E+04  1.83814E+04 -1.40865E+03
  1.23815E+04  1.31835E+04  7.52028E+02  1.99386E+04 -1.33632E+04  1.08657E+04 -1.90705E+04 -4.26655E+03
 -1.55559E+04 -1.77950E+04 -1.78074E+03 -2.35208E+04  9.88586E+03 -1.91772E+04  2.08586E+04 -9.82807E+03
  1.94768E+04 -6.26751E+02  1.36367E+04  5.27900E+03  9.02870E+03  9.67274E+02  1.07705E+04 -1.18495E+03
  1.82347E+04  3.54033E+03  2.03660E+04  1.53717E+04  1.29124E+04  3.20279E+04 -2.42934E+03  3.58740E+04
 -2.08615E+04  3.00325E+04 -3.45837E+04  1.41841E+04 -3.49306E+04 -2.92629E+03 -2.91197E+04 -2.06124E+04
 -1.13923E+04 -3.00198E+04  1.07026E+04 -2.70122E+04  2.34621E+04 -1.29252E+04  1.98846E+04  6.68410E+03
  7.44191E+03  1.49396E+04 -9.02636E+03  1.35839E+04 -1.59218E+04  1.88178E+03 -1.29097E+04 -1.12240E+04
  2.41528E+02 -1.53384E+04  7.78142E+03 -1.15364E+04  1.01534E+04 -1.33164E+03  2.39549E+03  7.62636E+03
 -6.71359E+03  1.82202E+03 -7.78157E+03 -5.19774E+03 -2.50515E+01 -1.52667E+04  9.25148E+03 -1.52038E+04
  1.78351E+04 -7.62752E+03  1.92005E+04  2.47010E+03  1.77718E+04  1.49675E+04  7.20827E+03  2.21829E+04
 -2.60440E+03  2.37094E+04 -1.62459E+04  1.60859E+04 -1.81825E+04  3.59079E+03 -1.10162E+04 -4.67242E+03
 -6.58906E+03 -5.81673E+03 -7.13949E+02  1.78021E+03 -3.33883E+03  2.94877E+03 -5.98656E+03  4.30962E+03
 -1.21395E+04 -1.59055E+03 -1.12905E+04 -9.76007E+03 -5.54858E+03 -1.55908E+04  5.47717E+03 -1.19441E+04
  1.12871E+04 -6.05103E+03  6.89832E+03  2.81104E+03  2.70246E+02  4.51265E+03 -6.22699E+03 -9.92801E+02
 -5.80591E+03 -6.30234E+03 -8.84357E+02 -1.08948E+04  5.06959E+03 -1.09329E+04  1.61277E+04 -5.58771E+03
  1.77659E+04  1.40184E+03  1.20934E+04  1.07792E+04  2.48511E+03  1.39973E+04 -7.53987E+03  1.18332E+04
 -8.97034E+03  4.86824E+03 -5.40279E+03 -2.99791E+03  1.63294E+03 -3.24279E+03  6.60330E+03 -9.45400E+02
  5.81786E+03  5.44111E+03  3.78477E+02  1.00912E+04 -7.53417E+03  9.88461E+03 -1.20195E+04  1.15915E+03
 -9.29117E+03 -6.10201E+03 -7.05952E+02 -1.13538E+04  6.45836E+03 -6.49018E+03  6.36565E+03  1.78102E+03
  9.91122E+02  7.80869E+03 -6.71089E+03  8.58001E+03 -8.88712E+03  3.36745E+03 -6.84415E+03 -2.05093E+03
 -5.26654E+03 -1.02541E+04  3.06279E+03 -1.25981E+04  1.02159E+04 -7.82595E+03  1.22935E+04  4.31998E+02
  6.11796E+03  8.73669E+03 -3.22437E+02  9.65044E+03 -7.62553E+03  5.28260E+03 -7.42576E+03 -1.57730E+03
 -9.36734E+03 -7.08747E+03 -5.09977E+02 -8.11659E+03  4.29259E+03 -5.31869E+03  5.23683E+03 -4.12075E+03
  3.66152E+03  1.84776E+03 -8.32813E+02  1.21434E+03 -3.19168E+02 -2.21128E+03  1.70417E+03 -5.00644E+03
  7.38417E+03 -2.23721E+03  1.08068E+04  1.53749E+03  1.03992E+04  5.70969E+03  8.27826E+03  1.43205E+04
 -4.59186E+03  1.61075E+04 -1.31146E+04  1.17113E+04 -1.72960E+04  2.46395E+03 -1.54829E+04 -5.34953E+03
 -6.88476E+03 -1.18345E+04 -7.27314E+02 -9.72219E+03  3.21680E+03 -4.72381E+03  3.70050E+03 -4.22151E+03
  2.10645E+03 -1.85362E+03  2.88797E+03 -4.16669E+03  4.09312E+03 -1.23217E+03  5.10475E+03 -1.72048E+02
  6.32769E+03  2.67757E+03  2.44248E+03  6.00444E+03 -2.72683E+03  5.74082E+03 -6.63298E+03  5.73879E+03
 -1.07682E+04  3.44580E+02 -4.82043E+03 -4.54375E+03  9.18824E+02 -8.78662E+03  5.68208E+03 -9.23871E+03
  1.04746E+04 -5.55022E+03  1.18687E+04  1.44247E+03  7.06382E+03  7.96234E+03  2.73997E+03  1.13195E+04
 -3.19132E+03  9.66577E+03 -6.73135E+03  2.98113E+03 -3.52051E+03 -1.69602E+03 -4.09791E+02 -1.57088E+03
 -6.23576E+02  1.51766E+02 -1.09288E+03  1.97696E+03 -4.54478E+03  1.48110E+03 -7.06361E+03 -4.92061E+01
 -5.02113E+03 -6.64945E+03 -8.73189E+02 -9.45140E+03  4.47440E+03 -8.54993E+03  7.12007E+03 -1.84644E+03
  8.04562E+03  4.27322E+03  3.74066E+03  6.91812E+03 -2.20205E+03  8.91936E+03 -5.53045E+03  4.21638E+03
 -7.74433E+03  1.16738E+03 -6.69766E+03 -5.42307E+03 -5.11952E+02 -7.37349E+03  2.17922E+03 -5.24233E+03
  5.03256E+03 -1.39418E+03  2.59311E+03  1.00546E+03  1.52987E+03  2.60988E+03  6.03449E+02 -2.86396E+02
  1.84700E+03  1.61854E+03  3.83242E+03  1.88824E+03  2.87604E+03  1.99846E+03  1.76559E+03  4.28368E+03
 -1.97748E+03  5.55197E+03 -4.70356E+03  5.72978E+03 -7.94562E+03  2.07174E+03 -7.82209E+03 -3.47480E+03
 -4.25172E+03 -6.47822E+03  2.26679E+03 -8.40941E+03  4.66959E+03 -7.02894E+03  7.66510E+03 -6.69584E+02
  5.21629E+03  2.43546E+03  1.18395E+03  5.87145E+03 -2.44930E+03  3.10110E+03 -2.84189E+03 -3.65887E+01
 -3.00822E+03 -2.56918E+03  1.54005E+03 -2.50292E+03  2.79265E+03 -1.69156E+03  3.28839E+03  6.23530E+02
  1.46673E+03  2.03224E+03  1.72260E+03 -9.95486E+02 -1.30993E+02  6.51151E+02  1.39945E+03  7.06285E+02
  1.05416E+03 -2.79525E+02  3.75950E+03  6.33060E+02  1.82778E+03  4.73747E+03 -1.35582E+03  4.29979E+03
 -3.84248E+03  2.66816E+03 -4.85770E+03  9.11463E+02 -4.27694E+03 -1.17333E+03 -2.44352E+02 -1.09982E+03
  1.07799E+03 -2.12977E+03  1.19388E+03 -6.98304E+02  1.73579E+03  1.92632E+03 -8.46550E+02  1.93429E+03
 -2.77308E+03  1.60146E+03 -3.20040E+03 -1.45789E+03 -2.32929E+03 -4.90107E+03  1.55985E+03 -2.55543E+03
  1.84991E+03 -3.11522E+03  1.62305E+03 -3.65014E+02  3.79623E+03  1.42536E+03  5.75380E+02  3.11205E+03
 -2.29759E+03  7.76555E+02 -2.49629E+03 -1.01392E+03  1.33702E+03 -2.36110E+03  3.81532E+03 -2.69727E+03
  3.02040E+03  7.60487E+01  4.13335E+03  2.84619E+03  2.12300E+03  3.15550E+03 -8.00391E+02  5.19032E+03
 -4.03697E+03  1.77563E+03 -3.99835E+03 -1.12541E+03 -1.61246E+03 -3.90512E+03 -2.45210E+02 -3.39705E+03
  1.97125E+03 -3.49038E+03  2.97076E+03  1.45874E+03  1.08499E+03  3.83315E+03  7.07172E+02  2.37165E+03
 -1.23881E+03  6.38223E+02 -6.45082E+02  2.00379E+03  9.88327E+02 -1.99289E+02 -7.98026E+02  9.82343E+02
 -1.01443E+02  2.41867E+03 -2.87686E+03  2.21302E+03 -4.89333E+03 -5.41966E+02 -5.77140E+03 -2.04659E+03
 -2.52727E+03 -5.26069E+03  1.31823E+03 -6.44284E+03  4.08304E+03 -5.65880E+03  6.68506E+03 -2.15809E+03
  4.87694E+03 -3.76872E+01  3.16149E+03  3.48597E+03  3.30350E+02  4.29594E+03 -2.26245E+03  2.34855E+03
 -3.84634E+03  7.76295E+02 -1.19895E+03  1.17056E+02 -1.41285E+03 -2.25127E+02 -1.00332E+03  3.70549E+02
 -6.96725E+02  1.32577E+03 -1.17907E+03  9.39369E+02  9.48598E+02 -1.48015E+02  3.94898E+02 -3.27356E+03
  3.28059E+03 -2.23961E+03  1.40417E+03  8.29130E+02  2.13508E+03  2.43435E+03  4.46951E+02  4.04309E+03
 -3.15785E+03  5.44662E+03 -3.39597E+03  2.81837E+03 -5.16974E+03  6.50968E+02 -4.78856E+03 -3.88529E+03
 -1.65889E+03 -3.27570E+03  4.25647E+02 -3.68166E+03  2.54530E+03 -8.23164E+02  1.80896E+03  9.75255E+02
  2.08408E+03  1.08938E+03  4.06167E+02  2.00097E+03  4.28388E+02 -1.11642E+03  9.56106E+00  1.03650E+03
  1.03081E+03  2.72353E+02  6.07835E+02  7.40371E+02  1.10784E+03  2.87928E+02  8.04595E+02  8.91731E+02
 -1.33862E+03  1.84942E+03 -1.01383E+03 -9.63969E+02 -3.35182E+03 -2.12016E+03 -1.65992E+03 -3.76532E+03
  5.28393E+02 -3.11861E+03  2.82489E+03  9.77418E+01  2.08198E+03  6.16605E+02  6.81377E+02  2.78705E+03
  6.72610E+02  2.18981E+03 -2.99631E+02  1.46262E+03 -2.50278E+03  1.16998E+03 -1.68793E+03 -4.72758E+02
 -3.18337E+02 -8.80486E+02 -1.72646E+03 -6.93324E+02 -2.15161E+03  8.20950E+02 -1.09556E+03  7.28111E+02
 -2.82816E+03 -3.38261E+02 -1.91398E+03 -3.61536E+03  1.10011E+03 -2.22496E+03  2.11287E+03 -7.78606E+02
  2.53271E+03 -2.72648E+02 -4.27386E+02  2.08894E+03 -1.28734E+03  2.56084E+03 -2.19870E+03  1.48396E+03
