 $NMID ID='MM_0lb_SNR200_14hz_g50_46.RAW', FMTDAT='(8E13.5)'
 TRAMP=1., VOLUME=1. $END
  3.09532E+05  3.82304E+02  3.37480E+05  2.51708E+05  8.54195E+04  3.36962E+05 -1.32740E+05  2.52101E+05
 -1.89284E+05  8.32637E+04 -1.11915E+05 -3.26246E+04  1.27330E+03 -4.97382E+04  5.36744E+04 -8.98878E+02
  3.46237E+04  5.15688E+04 -1.77438E+04  7.50176E+04 -6.05119E+04  6.31239E+04 -8.55621E+04  3.14070E+04
 -8.05473E+04 -1.21875E+04 -5.71856E+04 -5.14993E+04 -1.61980E+04 -6.95998E+04  2.72886E+04 -4.53417E+04
  3.91547E+04  2.83902E+03  1.65110E+04  4.76155E+04 -3.60466E+04  4.78017E+04 -6.64859E+04  7.24447E+02
 -5.31873E+04 -5.75508E+04 -6.07665E+03 -7.66471E+04  3.40684E+04 -5.46193E+04  4.74794E+04 -1.77502E+04
  4.22567E+04  1.06297E+04  3.17607E+04  2.63550E+04  1.57595E+04  2.91301E+04 -5.43141E+03  2.72992E+04
 -2.12282E+04  1.21893E+04 -1.87512E+04 -4.43154E+03  6.69995E+03 -6.37988E+03  2.35839E+04  1.13003E+04
  6.54921E+03  3.42123E+04 -3.27637E+04  3.64742E+04 -6.21928E+04  2.29583E+03 -5.73357E+04 -4.28352E+04
 -1.26795E+04 -6.29049E+04  4.05492E+04 -4.53231E+04  5.79421E+04 -1.35298E+03  3.39416E+04  3.21422E+04
 -5.69736E+03  3.56365E+04 -2.95382E+04  1.47908E+04 -2.96546E+04 -5.64985E+03 -1.66951E+04 -1.09511E+04
 -8.62214E+03 -1.42531E+04 -1.39749E+03 -1.82980E+04  6.72373E+03 -2.27887E+04  1.56904E+04 -1.29254E+04
  1.17756E+04  5.47458E+03 -7.80871E+03  1.18090E+04 -2.13878E+04 -3.21277E+03 -7.57451E+03 -3.31704E+04
  2.33085E+04 -4.40047E+04  4.78299E+04 -1.90428E+04  4.47523E+04  1.94382E+04  1.51376E+04  4.39766E+04
 -1.56990E+04  3.34302E+04 -2.52446E+04  2.43767E+03 -9.31756E+03 -2.84215E+04  1.97671E+04 -3.41847E+04
  4.05151E+04 -8.15801E+03  3.55460E+04  2.45130E+04  1.77035E+04  4.76829E+04 -9.13715E+03  5.07727E+04
 -3.19749E+04  3.36458E+04 -4.25294E+04  9.32665E+03 -4.25733E+04 -1.56253E+04 -2.44329E+04 -3.81553E+04
  7.60337E+03 -3.88183E+04  3.09545E+04 -1.44612E+04  2.92993E+04  1.30302E+04  4.48249E+03  1.83648E+04
 -1.34413E+04  9.25892E+03 -9.93673E+03 -8.24013E+03  5.59975E+03 -1.03405E+04  1.73675E+04  6.00628E+03
  1.32291E+04  2.09631E+04 -5.44899E+03  2.40896E+04 -2.23435E+04  1.23814E+04 -2.72026E+04 -4.03467E+03
 -1.99033E+04 -1.73147E+04 -8.35528E+03 -2.03920E+04  3.73406E+03 -1.86918E+04  1.58739E+04 -1.75326E+04
  2.50218E+04 -1.30686E+04  3.33971E+04  2.72115E+03  2.34973E+04  2.01448E+04  4.38205E+03  3.55091E+04
 -1.66523E+04  3.14014E+04 -2.74973E+04  1.00534E+04 -2.06153E+04 -1.03282E+04 -5.25142E+03 -1.24140E+04
  1.80859E+03 -2.63150E+03 -5.57976E+03  6.97095E+03 -1.53295E+04  6.35403E+03 -1.70096E+04 -7.22521E+03
 -1.16642E+04 -1.81490E+04  5.80131E+03 -2.29082E+04  1.58299E+04 -1.59918E+04  1.82646E+04 -4.89218E+02
  1.11613E+04  1.31266E+04 -1.03377E+03  1.98477E+04 -1.25815E+04  1.15731E+04 -1.74114E+04 -5.98530E+03
 -1.29724E+04 -1.74240E+04 -1.67580E+03 -2.19105E+04  1.04057E+04 -1.89582E+04  2.05650E+04 -8.82801E+03
  1.81963E+04 -2.65561E+02  1.25776E+04  5.10091E+03  6.49541E+03  9.85249E+02  9.25168E+03 -1.75345E+03
  1.85008E+04  2.66643E+03  1.94179E+04  1.55570E+04  1.34745E+04  3.04459E+04 -3.07267E+03  3.43260E+04
 -2.11489E+04  2.88300E+04 -3.28210E+04  1.43727E+04 -3.34364E+04 -3.92877E+03 -2.60602E+04 -1.99915E+04
 -1.12026E+04 -2.79279E+04  1.00110E+04 -2.53914E+04  2.08868E+04 -1.30005E+04  1.89372E+04  4.84987E+03
  6.86931E+03  1.52949E+04 -9.08728E+03  1.28685E+04 -1.71185E+04  2.88540E+03 -1.11661E+04 -9.50748E+03
 -2.77445E+02 -1.52867E+04  7.41006E+03 -1.21637E+04  1.06822E+04 -9.20816E+02  2.82926E+03  6.40994E+03
 -7.36489E+03  3.05903E+03 -5.58872E+03 -5.30430E+03 -2.80119E+02 -1.21724E+04  8.51497E+03 -1.45237E+04
  1.78431E+04 -7.95867E+03  1.73398E+04  2.87293E+03  1.58199E+04  1.25973E+04  6.60065E+03  1.98030E+04
 -3.81213E+03  2.13686E+04 -1.33791E+04  1.36588E+04 -1.59494E+04  3.50647E+03 -1.13847E+04 -2.87377E+03
 -5.17948E+03 -4.18181E+03 -3.31669E+02  4.79695E+02 -2.41761E+03  2.66138E+03 -6.53056E+03  4.07404E+03
 -1.02171E+04 -1.96434E+02 -1.02069E+04 -8.75907E+03 -3.95543E+03 -1.52725E+04  5.14556E+03 -1.19016E+04
  1.08951E+04 -2.34443E+03  7.93015E+03  2.94951E+03 -2.26569E+02  3.97845E+03 -5.80717E+03  4.46136E+01
 -5.76928E+03 -6.65574E+03 -1.68394E+03 -9.83711E+03  5.79055E+03 -1.03369E+04  1.51770E+04 -6.00341E+03
  1.68828E+04  9.05384E+02  1.30390E+04  8.92524E+03  1.75503E+03  1.39614E+04 -8.15005E+03  1.03539E+04
 -9.31561E+03  3.40027E+03 -4.46799E+03 -1.59178E+03  2.61024E+03 -2.83372E+03  5.76952E+03 -1.89395E+03
  4.73366E+03  5.84980E+03  1.48190E+03  8.73213E+03 -7.89516E+03  9.52094E+03 -1.12027E+04  1.95142E+03
 -6.74901E+03 -6.16309E+03  1.07061E+02 -8.89831E+03  5.44861E+03 -4.30041E+03  6.47878E+03  1.44542E+03
  6.29963E+02  6.17279E+03 -6.53368E+03  6.98721E+03 -7.72079E+03  2.82022E+03 -8.66026E+03 -2.66900E+03
 -4.82379E+03 -9.37424E+03  3.29168E+03 -1.18435E+04  1.01281E+04 -6.74199E+03  9.83344E+03  2.36682E+03
  6.96818E+03  7.41878E+03 -9.83838E+02  1.23312E+04 -7.10343E+03  6.03197E+03 -7.82008E+03 -6.06875E+02
 -7.43663E+03 -6.68659E+03 -1.76553E+03 -9.25088E+03  3.79010E+03 -6.50712E+03  4.94401E+03 -3.85314E+03
  4.40962E+03  1.08941E+03 -9.01833E+02  8.34985E+02 -9.08349E+02 -1.36704E+03  1.21885E+03 -4.32603E+03
  7.31509E+03 -1.22111E+03  1.07621E+04  2.57346E+02  9.94504E+03  6.64031E+03  6.58030E+03  1.26185E+04
 -2.63936E+03  1.25702E+04 -1.32106E+04  1.16606E+04 -1.48532E+04  2.08314E+03 -1.25066E+04 -3.96597E+03
 -7.03201E+03 -1.20582E+04 -9.16730E+02 -7.69977E+03  3.91585E+03 -5.00647E+03  2.97483E+03 -2.35751E+03
  1.63332E+03 -2.76711E+03  3.34861E+03 -3.48743E+03  4.57794E+03 -3.23133E+03  5.12840E+03 -5.03928E+02
  8.07967E+03  1.72354E+03  2.76740E+03  5.18877E+03 -1.29672E+03  6.30447E+03 -8.66011E+03  4.83576E+03
 -8.63185E+03 -1.22486E+03 -5.06375E+03 -4.84160E+03 -6.68239E+02 -8.87803E+03  4.20076E+03 -7.89471E+03
  8.84848E+03 -5.91110E+03  1.27362E+04  1.04031E+03  8.25321E+03  8.92239E+03  2.62197E+03  1.00905E+04
 -3.33632E+03  1.01773E+04 -6.21541E+03  2.65882E+03 -3.85610E+03 -1.07901E+03 -1.13315E+03 -1.48229E+03
 -9.21080E+01 -6.30824E+02 -1.51728E+03  3.00032E+03 -3.51869E+03  2.29852E+03 -6.23577E+03 -3.18861E+02
 -3.76733E+03 -6.85784E+03  1.12888E+03 -9.13284E+03  6.22776E+03 -7.22650E+03  6.26632E+03 -1.66887E+03
  7.77670E+03  3.14583E+03  3.28295E+03  6.52323E+03 -2.17159E+03  9.36088E+03 -6.03758E+03  4.58329E+03
 -7.97565E+03 -1.52807E+02 -6.62802E+03 -4.62106E+03  8.84944E+01 -5.79236E+03  3.24540E+03 -4.84184E+03
  5.67778E+03 -2.21872E+03  3.44417E+03  1.31050E+03  1.53468E+03  2.48325E+03  9.08128E+02  3.30064E+02
  1.93650E+03  1.29584E+02  2.87666E+03  1.28100E+03  1.70314E+03  2.38426E+03  1.04080E+03  3.49001E+03
 -1.51639E+03  5.36433E+03 -4.82871E+03  7.07712E+03 -7.41792E+03  1.88776E+03 -7.39568E+03 -1.83421E+03
 -2.84633E+03 -7.12815E+03  4.60907E+02 -8.69747E+03  4.92765E+03 -5.96820E+03  6.18705E+03 -1.46252E+03
  4.65995E+03  2.61852E+03  2.10210E+03  4.51982E+03 -1.31502E+03  2.06060E+03 -2.43148E+03 -1.47533E+03
 -1.81846E+03 -3.24011E+03  1.59257E+03 -1.80011E+03  3.17725E+03 -3.02315E+03  2.91694E+03  1.15705E+03
  1.22306E+03  1.09236E+03  3.17957E+03  1.81929E+02 -1.00875E+03  1.65975E+03  1.54234E+03  1.27513E+03
  7.16103E+02 -8.31727E+02  1.92311E+03  2.09469E+03  1.48077E+03  3.73085E+03 -6.40345E+02  6.08904E+03
 -2.91631E+03  1.77082E+03 -5.10496E+03  6.64311E+01 -4.40964E+03 -1.83803E+03  1.06889E+03 -3.99436E+03
  2.04302E+03 -3.28839E+03  2.45856E+03 -5.86454E+02  2.37987E+03  3.78480E+03 -1.28336E+03  1.42745E+03
 -2.00539E+03  2.30979E+03 -2.27035E+03 -2.23859E+03 -2.28727E+03 -4.68954E+03  1.17135E+03 -4.47493E+03
  8.37947E+02 -7.83553E+02  3.32403E+03  4.96127E+02  2.42145E+03  2.43903E+01  4.65572E+02  3.28300E+03
 -1.02107E+03  6.57968E+02 -2.10961E+03 -2.69210E+03  1.28840E+03 -1.90329E+03  4.47743E+03 -1.81061E+03
  4.43557E+03  1.27130E+03  4.40261E+03  1.82361E+03  1.90073E+03  4.63624E+03 -3.00583E+03  4.87336E+03
 -3.12682E+03  1.87384E+03 -5.45488E+03 -9.44678E+02 -2.36260E+03 -3.95756E+03  1.12497E+03 -2.86641E+03
  2.64922E+03 -3.67631E+02  2.62867E+03  1.45265E+03  1.67013E+02  1.18202E+03  4.98857E+02  1.10340E+03
 -1.93102E+03  9.28770E+02 -1.61641E+03 -2.16235E+02 -7.24419E+02 -3.15303E+02 -4.41943E+02 -5.36707E+01
 -1.27372E+01  2.84451E+03 -4.50929E+03  2.30884E+03 -4.92375E+03  4.24435E+02 -4.94634E+03 -2.95465E+03
 -1.91092E+03 -5.47159E+03  8.08032E+02 -6.37229E+03  4.34290E+03 -5.20639E+03  5.84732E+03 -2.44123E+03
  5.88706E+03  1.30744E+03  3.67692E+03  5.37189E+03  7.60187E+02  5.46165E+03 -2.90370E+03  3.47178E+03
 -2.90977E+03  2.48378E+03 -3.10925E+02 -3.42591E+02 -9.61822E+02  6.97685E+02 -7.70224E+02  9.40761E+01
 -1.79687E+03 -3.73576E+02 -1.23252E+03  5.70923E+02 -4.01885E+02 -1.81925E+03 -6.23467E+02 -1.17530E+03
  2.10398E+03 -4.85022E+02  2.89167E+03 -1.60582E+03  3.73325E+03  3.68945E+03 -4.09286E+02  4.87429E+03
 -3.15251E+03  4.82167E+03 -4.44652E+03  3.45701E+03 -2.94596E+03 -4.21917E+02 -2.51229E+03 -3.25842E+03
 -2.48162E+03 -3.94796E+03  8.01490E+02 -2.73061E+03  2.25148E+03 -3.03859E+03  2.59007E+03 -4.55705E+02
  1.83663E+03  7.42144E+02  3.85840E+01  1.81290E+03 -6.69299E+02 -1.15166E+03 -9.45726E+02 -1.37031E+03
  2.31769E+03 -2.00286E+02 -1.70080E+00  1.20633E+03  5.25356E+02  2.13976E+03  1.01810E+03  1.67219E+03
 -2.07833E+03  2.48283E+03 -2.11933E+03  2.49951E+02 -3.31387E+03 -2.16313E+03 -1.29051E+03 -3.49000E+03
  2.30039E+03 -2.63555E+03  2.80717E+03 -5.54488E+02  2.46176E+03 -1.21466E+02  1.54565E+03  2.64203E+03
 -8.64190E+02  2.44354E+03 -1.88113E+03  1.82764E+03 -8.05365E+02  9.53057E+02 -1.35934E+03 -1.83656E+02
 -3.60640E+01  7.37458E+02  2.36603E+02  1.09730E+03 -2.43311E+03  1.55659E+03 -4.89354E+02 -1.18097E+03
 -1.30554E+03 -1.24580E+03 -8.75272E+02 -1.18761E+03  1.29510E+03 -3.65597E+03  1.91166E+03 -7.51898E+02
  2.91861E+03 -2.56939E+02  1.05276E+03  1.95348E+03 -9.74200E+01  2.23983E+03 -1.02069E+03  1.23008E+03
