 $NMID ID='MM_0lb_SNR200_9hz_g60_43.RAW', FMTDAT='(8E13.5)'
 TRAMP=1., VOLUME=1. $END
  3.10619E+05  1.21652E+03  3.37853E+05  2.51198E+05  8.54843E+04  3.39537E+05 -1.33903E+05  2.53656E+05
 -1.90668E+05  8.47894E+04 -1.14547E+05 -3.22672E+04  4.10089E+02 -4.93507E+04  5.47634E+04 -1.36230E+03
  3.51977E+04  5.40338E+04 -1.52845E+04  7.64848E+04 -6.19247E+04  6.45012E+04 -8.60187E+04  3.40532E+04
 -8.41544E+04 -1.21986E+04 -5.88259E+04 -5.36500E+04 -1.58622E+04 -7.20904E+04  2.66935E+04 -4.57195E+04
  4.16487E+04  4.96567E+03  1.77147E+04  4.74155E+04 -3.42079E+04  4.83723E+04 -6.94774E+04  1.18722E+03
 -5.48666E+04 -5.67094E+04 -7.46710E+03 -7.87697E+04  3.57507E+04 -5.60231E+04  5.19206E+04 -1.87722E+04
  4.64244E+04  1.32154E+04  3.20395E+04  2.73785E+04  1.49325E+04  2.86488E+04 -6.42337E+03  2.68900E+04
 -2.28016E+04  1.17586E+04 -1.74421E+04 -6.29227E+03  7.21405E+03 -6.57155E+03  2.32056E+04  1.45926E+04
  6.64003E+03  3.77771E+04 -3.43285E+04  3.77375E+04 -6.60125E+04  3.12565E+03 -6.08675E+04 -4.48244E+04
 -1.35128E+04 -6.52655E+04  4.12581E+04 -4.69420E+04  6.16214E+04 -3.80710E+03  3.75340E+04  3.65029E+04
 -4.57976E+03  4.09612E+04 -3.43336E+04  1.87651E+04 -3.40817E+04 -3.35730E+03 -1.99376E+04 -1.16922E+04
 -1.02719E+04 -1.50074E+04 -1.18786E+03 -1.98767E+04  1.08891E+04 -2.27444E+04  1.44374E+04 -1.24412E+04
  1.11337E+04  6.38691E+03 -9.81662E+03  1.20294E+04 -2.54147E+04 -6.55351E+03 -1.00735E+04 -3.95065E+04
  2.53391E+04 -4.63584E+04  5.18239E+04 -2.18637E+04  4.97718E+04  2.15031E+04  1.77772E+04  4.89028E+04
 -1.67223E+04  3.70344E+04 -2.98442E+04  3.81437E+03 -1.26902E+04 -2.93205E+04  2.14187E+04 -3.69854E+04
  4.64754E+04 -1.13039E+04  4.19767E+04  2.50388E+04  2.03522E+04  5.19560E+04 -7.53657E+03  5.86541E+04
 -3.71240E+04  3.73111E+04 -4.87824E+04  1.20135E+04 -4.83682E+04 -1.75203E+04 -2.43854E+04 -4.25437E+04
  7.90359E+03 -4.31152E+04  3.55780E+04 -1.75908E+04  3.33756E+04  9.14042E+03  5.15245E+03  2.06217E+04
 -1.49015E+04  9.97881E+03 -1.07025E+04 -8.88275E+03  5.66783E+03 -1.18375E+04  1.86759E+04  4.54606E+03
  1.38185E+04  2.30234E+04 -5.43685E+03  2.69352E+04 -2.43131E+04  1.48030E+04 -3.18157E+04 -4.86990E+02
 -2.75317E+04 -1.91160E+04 -1.27433E+04 -2.60287E+04  5.13878E+03 -2.64932E+04  2.02845E+04 -2.41376E+04
  3.45221E+04 -1.49361E+04  4.00838E+04  5.19132E+03  2.77693E+04  2.40393E+04  3.94216E+03  4.22858E+04
 -1.90584E+04  3.45126E+04 -3.15727E+04  1.20693E+04 -2.27240E+04 -8.00826E+03 -6.48885E+03 -1.22563E+04
  6.50524E+02  4.92663E+02 -9.65668E+03  7.85782E+03 -2.15139E+04  5.46093E+03 -2.20138E+04 -1.08616E+04
 -1.34733E+04 -2.31224E+04  5.06902E+03 -2.84818E+04  1.98819E+04 -2.14687E+04  2.41507E+04 -1.72536E+03
  1.67381E+04  1.65094E+04 -2.13879E+03  2.44409E+04 -1.74010E+04  1.24371E+04 -2.36684E+04 -5.06513E+03
 -1.80327E+04 -2.10650E+04 -2.79814E+03 -2.91791E+04  1.24998E+04 -2.38318E+04  2.37805E+04 -1.36370E+04
  2.33979E+04  7.38026E+01  1.77389E+04  5.95260E+03  1.08644E+04  8.54269E+02  1.31068E+04 -1.23681E+03
  2.25390E+04  3.03645E+03  2.70761E+04  1.78025E+04  1.67720E+04  3.84689E+04 -2.76821E+03  4.75914E+04
 -2.61534E+04  3.77928E+04 -4.34472E+04  1.96281E+04 -4.78056E+04 -4.03756E+03 -3.75419E+04 -2.66144E+04
 -1.54835E+04 -4.04761E+04  1.42795E+04 -3.41748E+04  3.21197E+04 -1.43727E+04  2.49407E+04  8.95908E+03
  8.30058E+03  2.05661E+04 -1.31534E+04  1.66469E+04 -2.12969E+04  2.38502E+03 -1.52704E+04 -1.28788E+04
  5.98250E+02 -2.01869E+04  1.00741E+04 -1.32833E+04  1.28088E+04  6.97087E+02  4.03539E+03  1.06172E+04
 -9.60425E+03  3.48354E+03 -9.64725E+03 -4.36959E+03 -2.97368E+03 -1.91758E+04  1.24621E+04 -2.17155E+04
  2.34540E+04 -1.20542E+04  2.85084E+04  3.23548E+03  2.37380E+04  1.97466E+04  1.02740E+04  3.02732E+04
 -5.13676E+03  3.25828E+04 -2.25213E+04  1.98154E+04 -2.28944E+04  2.56625E+03 -1.41297E+04 -5.39078E+03
 -6.39710E+03 -6.81027E+03 -3.90693E+02  2.05498E+02 -1.88314E+03  2.78157E+03 -8.94976E+03  6.88370E+03
 -1.56457E+04 -1.00417E+03 -1.49273E+04 -1.21681E+04 -5.71106E+03 -1.88235E+04  7.87987E+03 -1.56254E+04
  1.57900E+04 -7.59770E+03  9.36543E+03  4.80380E+03 -8.84927E+02  6.18124E+03 -9.31606E+03 -1.25431E+03
 -9.25963E+03 -1.06904E+04 -1.24963E+03 -1.63845E+04  9.88033E+03 -1.84064E+04  2.28618E+04 -8.57038E+03
  2.48552E+04  2.57354E+03  1.80064E+04  1.49525E+04  5.05072E+03  1.94082E+04 -8.02279E+03  1.59648E+04
 -1.32169E+04  4.90653E+03 -6.66330E+03 -2.65374E+03  3.08134E+03 -4.80895E+03  8.98975E+03 -1.73152E+03
  6.04424E+03  7.28051E+03  8.84787E+02  1.38653E+04 -9.16518E+03  1.30734E+04 -1.65808E+04  2.90951E+03
 -1.16222E+04 -7.30399E+03  1.35911E+02 -1.42598E+04  9.92170E+03 -7.35311E+03  1.10089E+04  3.74112E+03
  2.81933E+03  1.05334E+04 -7.76177E+03  1.20122E+04 -1.41868E+04  3.76790E+03 -1.49931E+04 -5.80578E+03
 -9.30013E+03 -1.85884E+04  4.55513E+03 -2.06543E+04  1.63264E+04 -1.24813E+04  1.76163E+04  2.04229E+03
  9.60044E+03  1.49607E+04 -1.67979E+03  1.57245E+04 -1.19620E+04  8.27415E+03 -1.42319E+04 -2.45951E+03
 -1.06025E+04 -1.17014E+04 -1.79262E+03 -1.49985E+04  6.31011E+03 -1.04160E+04  8.88603E+03 -5.00118E+03
  5.15670E+03  7.40099E+02 -1.48434E+03  3.12482E+03 -8.31625E+02 -7.19069E+03  4.36341E+03 -7.23750E+03
  1.36104E+04 -7.30879E+03  1.62575E+04  1.29139E+03  1.61594E+04  1.20761E+04  9.73974E+03  2.18430E+04
 -4.08850E+03  2.59604E+04 -2.21115E+04  1.91575E+04 -2.73836E+04  3.18867E+03 -2.25477E+04 -1.08361E+04
 -1.07874E+04 -1.88000E+04 -1.10796E+03 -1.57865E+04  5.36379E+03 -8.50728E+03  4.93396E+03 -6.78805E+03
  5.61187E+03 -2.98426E+03  3.69771E+03 -4.66503E+03  6.51623E+03 -3.77401E+03  7.90274E+03 -1.47052E+03
  1.22544E+04  3.59485E+03  7.63886E+03  1.02915E+04 -2.06426E+03  1.19877E+04 -1.31188E+04  1.08822E+04
 -1.67356E+04 -2.75061E+02 -1.13738E+04 -1.07606E+04 -1.42493E+03 -1.73322E+04  8.33366E+03 -1.58209E+04
  1.84814E+04 -8.84376E+03  2.11455E+04  1.31265E+03  1.43092E+04  1.43650E+04  1.66016E+03  1.99538E+04
 -7.17944E+03  1.43383E+04 -1.11789E+04  5.61154E+03 -7.55289E+03 -2.13354E+03 -4.95323E+03 -2.92289E+03
 -1.31436E+03  5.11098E+01 -1.45739E+03  4.04152E+03 -8.08676E+03  2.74703E+03 -1.22357E+04 -7.71298E+02
 -7.46414E+03 -1.09631E+04  1.50914E+02 -1.58260E+04  9.15594E+03 -1.35973E+04  1.57428E+04 -3.27365E+03
  1.66698E+04  7.49229E+03  7.81176E+03  1.58727E+04 -3.62841E+03  1.39377E+04 -1.12391E+04  1.15352E+04
 -1.38744E+04 -2.13691E+02 -1.06301E+04 -8.96833E+03 -1.61543E+03 -1.47445E+04  6.88073E+03 -9.55146E+03
  9.88954E+03 -2.96348E+03  7.92687E+03  3.19955E+03  3.25337E+03  4.59475E+03  2.69924E+03  1.51748E+03
  1.60812E+03  8.01996E+02  2.57308E+03  9.37738E+02  4.05293E+03  4.14434E+03  4.59657E+03  7.59626E+03
 -2.66876E+03  1.27277E+04 -1.09765E+04  1.44491E+04 -1.75628E+04  3.50924E+03 -1.73535E+04 -7.61623E+03
 -9.16569E+03 -1.68864E+04  2.00889E+03 -1.58908E+04  9.36804E+03 -1.20424E+04  1.46415E+04 -3.50129E+03
  9.28688E+03  4.90971E+03  1.55369E+03  1.11370E+04 -4.75552E+03  5.63061E+03 -4.81678E+03 -2.85590E+03
 -3.79060E+03 -6.52866E+03  4.03397E+03 -6.03765E+03  6.85513E+03 -4.05344E+03  5.81272E+03  1.77077E+03
  3.44962E+03  4.20580E+03  9.08875E+01  2.00097E+03 -2.88308E+02  2.66395E+03  1.05774E+03 -2.38718E+03
  2.67623E+03 -2.69248E+03  6.51268E+03  4.01453E+03  3.72510E+03  8.99986E+03 -1.00092E+03  1.01653E+04
 -8.96888E+03  6.78107E+03 -9.87907E+03  2.12549E+03 -1.16211E+04 -3.21698E+03 -3.28604E+03 -6.79253E+03
 -6.85046E+01 -6.81857E+03  3.15308E+03 -5.17725E+03  2.88540E+03  4.00696E+03 -1.65265E+03  4.88210E+03
 -7.77043E+03  3.38005E+03 -8.05759E+03 -2.55063E+03 -3.66518E+03 -8.44393E+03  1.87284E+03 -8.06000E+03
  6.16695E+03 -5.81284E+03  6.02213E+03 -6.63913E+02  5.52785E+03  2.68348E+03  1.29421E+03  4.68153E+03
 -4.35608E+03  2.56218E+03 -3.05948E+03 -1.92511E+03  1.01783E+03 -6.83655E+03  9.08010E+03 -7.02474E+03
  9.34631E+03  9.63073E+02  9.89335E+03  7.22630E+03  6.01589E+03  1.11590E+04 -2.99658E+03  1.09930E+04
 -1.08943E+04  1.85040E+03 -9.22454E+03 -2.40848E+03 -4.98457E+03 -7.47270E+03  3.04399E+03 -5.27743E+03
  6.44236E+03 -2.68169E+03  4.66199E+03  3.57852E+03  2.78460E+03  5.43191E+03 -3.83767E+03  4.87105E+03
 -2.53805E+03  4.78227E+03 -3.39551E+03  1.24722E+03 -1.09851E+03  1.56252E+03 -2.42169E+03  4.56930E+03
 -2.51664E+03  4.44561E+03 -7.42898E+03  3.65852E+03 -1.05397E+04  3.50599E+02 -1.30351E+04 -8.21773E+03
 -6.80313E+03 -1.56141E+04  3.41615E+03 -1.67613E+04  1.06941E+04 -1.40785E+04  1.63175E+04 -5.73291E+03
  1.47797E+04  2.38173E+03  9.15391E+03  9.97276E+03  1.61537E+02  1.10358E+04 -3.55435E+03  9.20523E+03
 -7.41970E+03  4.72853E+03 -3.94933E+03 -3.03167E+03 -1.78263E+03 -1.17194E+03 -3.94264E+02 -2.27021E+03
 -2.65424E+03 -8.70636E+01 -2.68111E+03 -2.79055E+02  1.48362E+02 -1.68823E+03 -1.34395E+01 -4.52378E+03
  3.94987E+03 -2.31007E+03  6.61748E+03  7.55055E+02  7.29033E+03  6.50723E+03  3.55907E+03  1.15785E+04
 -4.49568E+03  1.20378E+04 -1.26709E+04  7.08325E+03 -1.31190E+04  8.02041E+00 -1.01663E+04 -9.40937E+03
 -3.23856E+03 -1.21675E+04  3.41169E+03 -1.01134E+04  6.43729E+03 -5.67699E+03  9.63252E+03 -3.12758E+02
  3.69912E+03  3.82124E+03  4.31375E+02  3.79407E+03 -1.97890E+03  3.19669E+02 -2.90809E+02 -3.02955E+03
  3.19379E+03 -1.47871E+03  3.43848E+03  2.85013E+01  3.67500E+03  3.27018E+03  2.41673E+02  6.16984E+03
 -3.89374E+03  5.31586E+03 -7.85720E+03  2.08163E+03 -6.76818E+03 -6.10646E+03 -8.31182E+01 -9.05638E+03
  2.76560E+03 -8.14065E+03  9.24332E+03 -4.27753E+03  1.07124E+04  8.06848E+02  5.07069E+03  6.12823E+03
  1.15911E+03  7.97289E+03 -3.39884E+03  5.71835E+03 -4.40751E+03  4.13132E+03 -4.86550E+03  1.01705E+03
 -3.46346E+03 -1.74147E+02 -3.04063E+03  2.05748E+03 -4.77706E+03  8.13815E+02 -4.13746E+03 -2.75517E+00
 -6.94445E+03 -3.98704E+03 -2.08455E+03 -8.30490E+03  2.78071E+03 -8.94520E+03  7.20210E+03 -4.98735E+03
  9.57934E+03 -1.05286E+02  4.48759E+03  4.45007E+03 -3.72843E+02  7.80547E+03 -5.74430E+03  4.82611E+03
