 $NMID ID='MM_0lb_SNR200_9hz_g45_33.RAW', FMTDAT='(8E13.5)'
 TRAMP=1., VOLUME=1. $END
  3.09447E+05 -2.12668E+03  3.37885E+05  2.52191E+05  8.30427E+04  3.37865E+05 -1.32617E+05  2.51134E+05
 -1.90676E+05  8.36540E+04 -1.12312E+05 -3.29838E+04 -4.58715E+02 -5.07412E+04  5.35469E+04 -1.87550E+03
  3.62913E+04  5.26017E+04 -1.68186E+04  7.65514E+04 -5.97293E+04  6.33947E+04 -8.44718E+04  3.22686E+04
 -8.15489E+04 -1.11580E+04 -5.73730E+04 -5.20341E+04 -1.61763E+04 -7.10779E+04  2.85633E+04 -4.63075E+04
  4.01873E+04  3.67113E+03  1.61411E+04  4.83682E+04 -3.40996E+04  4.75851E+04 -6.84207E+04  1.12297E+03
 -5.53603E+04 -5.70504E+04 -7.33658E+03 -7.87824E+04  3.41253E+04 -5.60823E+04  5.13736E+04 -1.70564E+04
  4.37277E+04  1.10160E+04  3.37443E+04  2.61531E+04  1.60195E+04  3.01012E+04 -4.71761E+03  2.82150E+04
 -2.11156E+04  1.24448E+04 -1.76953E+04 -5.02035E+03  6.85107E+03 -9.31723E+03  2.50452E+04  1.42574E+04
  7.79133E+03  3.78449E+04 -3.36781E+04  3.73744E+04 -6.59708E+04  2.47683E+03 -5.76297E+04 -4.21796E+04
 -1.32979E+04 -6.54536E+04  4.26888E+04 -4.76065E+04  6.17152E+04 -3.34981E+03  3.61484E+04  3.48416E+04
 -5.16545E+03  3.86200E+04 -3.18934E+04  1.92842E+04 -3.24360E+04 -4.55068E+03 -1.96287E+04 -9.24271E+03
 -9.15552E+03 -1.51704E+04 -3.70327E+02 -2.09416E+04  8.23503E+03 -2.47329E+04  1.55199E+04 -1.16311E+04
  9.97548E+03  5.94509E+03 -1.01046E+04  1.39331E+04 -2.43061E+04 -7.28383E+03 -8.69705E+03 -3.90138E+04
  2.57549E+04 -4.69025E+04  5.17531E+04 -1.93520E+04  4.95067E+04  2.05469E+04  1.79777E+04  4.67327E+04
 -1.82574E+04  3.67780E+04 -2.71914E+04  4.12245E+03 -1.10099E+04 -2.85752E+04  2.26428E+04 -3.64588E+04
  4.48413E+04 -1.10630E+04  3.97711E+04  2.74585E+04  2.16367E+04  5.08720E+04 -9.94064E+03  5.73915E+04
 -3.56383E+04  3.82095E+04 -4.79766E+04  1.09742E+04 -4.78340E+04 -1.76219E+04 -2.48161E+04 -4.26251E+04
  7.58699E+03 -4.18474E+04  3.33568E+04 -1.63650E+04  3.12978E+04  9.04628E+03  6.03831E+03  1.99267E+04
 -1.50487E+04  1.09051E+04 -9.59301E+03 -8.70987E+03  5.84582E+03 -1.09811E+04  1.85978E+04  4.80241E+03
  1.52397E+04  2.38354E+04 -5.47423E+03  2.74310E+04 -2.44387E+04  1.38892E+04 -2.91102E+04 -4.05722E+03
 -2.57609E+04 -1.75990E+04 -1.15136E+04 -2.43690E+04  3.37896E+03 -2.53618E+04  1.98081E+04 -2.31657E+04
  3.17121E+04 -1.57677E+04  3.69759E+04  4.74708E+03  2.63973E+04  2.39532E+04  4.50762E+03  4.27802E+04
 -2.01122E+04  3.27317E+04 -3.03691E+04  1.14498E+04 -2.28083E+04 -1.03077E+04 -3.75534E+03 -1.36511E+04
  4.87159E+01 -1.98168E+03 -7.21967E+03  9.45019E+03 -1.88280E+04  5.28692E+03 -2.02469E+04 -1.04182E+04
 -1.13835E+04 -2.24139E+04  6.98534E+03 -2.64971E+04  1.74974E+04 -2.04910E+04  2.26198E+04 -1.44406E+03
  1.46558E+04  1.54261E+04 -2.12027E+03  2.43599E+04 -1.68447E+04  1.34498E+04 -2.34936E+04 -3.84600E+03
 -1.69033E+04 -2.11658E+04 -3.70383E+03 -2.83813E+04  1.34689E+04 -2.38477E+04  2.23786E+04 -1.21201E+04
  2.12109E+04  7.70692E+02  1.64000E+04  5.55504E+03  8.80887E+03  1.22558E+03  1.14361E+04 -2.69151E+03
  1.98969E+04  3.87867E+03  2.45469E+04  1.86898E+04  1.66650E+04  3.69036E+04 -2.47670E+03  4.49549E+04
 -2.53002E+04  3.62553E+04 -4.04064E+04  1.94039E+04 -4.52977E+04 -5.11096E+03 -3.52669E+04 -2.46690E+04
 -1.24868E+04 -3.55356E+04  1.32156E+04 -3.25148E+04  2.80836E+04 -1.52333E+04  2.34952E+04  6.98711E+03
  7.09479E+03  1.72029E+04 -1.14769E+04  1.55802E+04 -1.97867E+04  1.93127E+03 -1.39222E+04 -1.35550E+04
  1.63979E+02 -1.86393E+04  1.02078E+04 -1.31075E+04  1.21231E+04 -2.00540E+03  4.86848E+03  7.50578E+03
 -9.90814E+03  3.64865E+03 -8.95642E+03 -6.16597E+03 -1.62464E+03 -1.74767E+04  1.16991E+04 -1.87336E+04
  2.26713E+04 -1.06258E+04  2.60991E+04  5.37907E+03  2.34496E+04  1.73253E+04  1.03106E+04  2.81246E+04
 -5.10682E+03  3.00767E+04 -1.95556E+04  1.93173E+04 -2.22558E+04  2.22194E+03 -1.49426E+04 -6.22016E+03
 -7.33588E+03 -6.71595E+03 -1.14520E+03  9.72985E+02 -3.24832E+03  4.17788E+03 -8.37634E+03  5.62842E+03
 -1.30660E+04 -1.61303E+02 -1.52285E+04 -1.01830E+04 -5.69985E+03 -1.85095E+04  7.42283E+03 -1.59876E+04
  1.18894E+04 -5.60267E+03  8.47152E+03  3.75995E+03 -1.05750E+03  6.55353E+03 -8.07858E+03 -3.04095E+01
 -7.23797E+03 -9.85674E+03 -8.72359E+02 -1.57919E+04  8.59562E+03 -1.66418E+04  2.16364E+04 -9.27835E+03
  2.31337E+04  3.38917E+03  1.59893E+04  1.40801E+04  2.23377E+03  1.85939E+04 -1.06469E+04  1.50428E+04
 -1.15511E+04  3.91354E+03 -5.54907E+03 -3.12539E+03  3.56746E+03 -4.03220E+03  8.36115E+03 -7.95412E+02
  6.96731E+03  5.14912E+03  1.43089E+03  1.04406E+04 -1.03857E+04  1.22333E+04 -1.43857E+04  1.98586E+03
 -1.15565E+04 -7.62498E+03 -5.81894E+02 -1.49596E+04  6.71082E+03 -6.66697E+03  8.54307E+03  4.08121E+03
  2.21846E+03  9.10256E+03 -8.36783E+03  1.13657E+04 -1.42542E+04  5.97262E+03 -1.35675E+04 -4.41794E+03
 -7.86413E+03 -1.43203E+04  3.77078E+03 -1.72441E+04  1.66005E+04 -9.90236E+03  1.62350E+04  1.42952E+03
  9.23629E+03  1.44013E+04 -8.14657E+02  1.55033E+04 -1.06416E+04  9.38792E+03 -1.11127E+04 -6.39923E+02
 -1.03985E+04 -1.17907E+04 -1.70889E+02 -1.18266E+04  3.85465E+03 -8.67945E+03  7.59002E+03 -4.13044E+03
  6.09611E+03  2.48548E+03 -6.95934E+02  1.66058E+03 -6.81704E+02 -4.61622E+03  2.18307E+03 -7.63592E+03
  1.18536E+04 -5.49453E+03  1.42524E+04  1.16233E+03  1.29366E+04  1.17029E+04  9.20692E+03  2.05518E+04
 -5.12545E+03  2.44294E+04 -1.96709E+04  1.69622E+04 -2.52051E+04  3.28546E+03 -2.07206E+04 -7.63526E+03
 -9.69535E+03 -1.68053E+04  1.09784E+03 -1.41705E+04  5.61774E+03 -7.93784E+03  4.00343E+03 -5.55860E+03
  5.68186E+03 -3.96319E+03  3.62417E+03 -3.11105E+03  5.24397E+03 -2.51222E+03  6.41391E+03 -1.66916E+03
  1.18057E+04  3.93100E+03  5.70022E+03  7.77881E+03 -3.56120E+03  1.25831E+04 -1.24705E+04  8.95575E+03
 -1.40604E+04 -1.87878E+03 -1.01410E+04 -1.01782E+04 -6.63924E+02 -1.45647E+04  8.51212E+03 -1.63679E+04
  1.68176E+04 -8.96372E+03  1.85344E+04  4.19305E+03  1.39757E+04  1.22476E+04  5.50468E+03  1.72195E+04
 -5.97950E+03  1.32190E+04 -1.04543E+04  4.42443E+03 -7.11986E+03 -1.43045E+03 -2.76706E+03 -1.66225E+03
 -9.57967E+00  4.33685E+02 -1.90574E+03  1.99610E+03 -5.60824E+03  1.00805E+03 -1.01982E+04  3.36223E+01
 -7.61765E+03 -9.50641E+03 -3.23374E+02 -1.40629E+04  8.19484E+03 -1.38424E+04  1.46949E+04 -5.62861E+03
  1.42098E+04  6.99959E+03  6.34294E+03  1.22653E+04 -3.38367E+03  1.41684E+04 -8.54301E+03  9.20537E+03
 -1.22792E+04  2.46218E+03 -1.01519E+04 -1.00411E+04 -1.41883E+03 -1.08992E+04  6.28750E+03 -7.33601E+03
  9.64161E+03 -4.15072E+03  7.00438E+03  1.90257E+03  1.96195E+03  3.98473E+03  2.02352E+03  2.44473E+03
  3.29493E+03  1.65208E+03  4.42972E+03  3.17970E+03  4.35218E+03  4.88178E+03  5.27573E+03  8.83592E+03
 -1.64523E+03  1.10342E+04 -1.05623E+04  1.12016E+04 -1.54243E+04  2.51079E+03 -1.65324E+04 -5.61116E+03
 -7.48403E+03 -1.54730E+04  2.10618E+03 -1.46742E+04  7.41545E+03 -1.10608E+04  1.20502E+04 -4.37826E+03
  8.29811E+03  5.86498E+03  1.37445E+03  8.91983E+03 -2.46848E+03  4.38199E+03 -4.88152E+03 -1.65432E+03
 -1.90057E+03 -4.81881E+03  3.75112E+03 -7.01710E+03  4.98481E+03 -4.10954E+03  5.82208E+03  5.86405E+01
  6.04966E+03  2.96074E+03  2.74798E+02  3.35155E+03  2.04427E+01  2.81304E+03  2.07457E+03  2.03268E+02
  1.76537E+03 -1.18654E+02  5.95891E+03  2.40919E+03  3.51655E+03  6.41951E+03 -1.18357E+03  8.16525E+03
 -6.11266E+03  6.77508E+03 -8.93256E+03  2.42772E+03 -8.30201E+03 -3.28654E+03 -2.52637E+03 -4.79610E+03
 -6.28083E+02 -5.63550E+03  2.12614E+03 -3.94736E+03  2.19824E+03  1.02951E+03 -6.32079E+02  5.34804E+03
 -6.50602E+03  2.68038E+03 -6.08068E+03 -3.97838E+03 -3.85737E+03 -8.12971E+03  1.40420E+02 -7.96675E+03
  4.54664E+03 -5.70754E+03  6.46436E+03  1.24654E+03  4.09167E+03  2.04860E+03  1.39425E+03  6.35215E+03
 -2.49820E+03 -7.16768E+02 -3.51354E+03 -2.22675E+03  2.72602E+02 -5.81657E+03  7.29920E+03 -5.10880E+03
  1.00756E+04  3.03786E+02  1.03267E+04  6.13248E+03  3.41458E+03  9.58856E+03 -3.01739E+03  9.47936E+03
 -7.58375E+03  3.67059E+03 -9.16805E+03 -2.63679E+03 -4.52429E+03 -6.47472E+03  1.19065E+03 -7.26042E+03
  5.70905E+03 -1.90051E+03  4.02831E+03  1.99028E+03  1.75880E+03  4.60950E+03 -2.30857E+02  2.29689E+03
 -1.88789E+03  3.18706E+03 -2.32102E+03  1.07823E+03 -1.27891E+03  1.05585E+03 -2.14841E+03  3.94758E+03
 -3.76807E+03  3.52445E+03 -6.52561E+03  3.28807E+03 -1.08619E+04 -5.42437E+02 -9.81948E+03 -5.67534E+03
 -6.28920E+03 -1.23793E+04  2.32602E+03 -1.60208E+04  1.01602E+04 -1.20763E+04  1.44981E+04 -5.37544E+03
  1.19252E+04  2.67396E+03  9.05758E+03  7.62143E+03  1.77041E+03  1.03674E+04 -4.78199E+03  6.67534E+03
 -6.68141E+03  1.98108E+03 -3.30773E+03 -1.93409E+03 -2.02476E+03 -1.57958E+03 -3.29435E+02  4.74954E+01
 -3.35396E+03  6.61278E+02 -2.91519E+03 -5.96228E+02 -4.36724E+02 -7.13830E+02 -2.23729E+02 -4.08590E+03
  4.67352E+03 -2.74811E+03  7.02448E+03 -3.85790E+02  5.61004E+03  3.94707E+03  2.38408E+03  1.09866E+04
 -3.98598E+03  1.20724E+04 -1.10318E+04  6.84229E+03 -1.35556E+04 -7.26129E+02 -9.94193E+03 -7.43920E+03
 -2.86311E+03 -1.01312E+04  3.80883E+03 -8.94307E+03  8.33411E+03 -5.70089E+03  5.55428E+03  6.83409E+02
  3.05319E+03  2.46757E+03 -2.23004E+03 -2.40138E+02 -1.59156E+03  9.06306E+02  3.10352E+02 -8.90425E+02
  5.11932E+03  7.85167E+02  4.58614E+03  1.30088E+03  2.98756E+03  3.68563E+03  7.93189E+02  5.78293E+03
 -4.88257E+03  4.03277E+03 -7.85480E+03 -6.12044E+02 -6.47638E+03 -5.18030E+03  7.88737E+02 -9.16891E+03
  4.72591E+03 -6.90286E+03  7.52519E+03 -2.23003E+03  7.84499E+03  2.24982E+02  4.42029E+03  5.26808E+03
  3.72703E+02  6.23153E+03 -1.91177E+03  4.74632E+03 -4.38127E+03  3.28485E+03 -5.22246E+03  7.44209E+00
  4.52708E+01 -9.28633E+02 -1.83038E+03  6.97838E+02 -4.93909E+03  1.14833E+02 -6.10024E+03 -2.03600E+03
 -5.00573E+03 -3.30275E+03 -1.88076E+03 -5.93521E+03  3.33100E+03 -7.21722E+03  7.70411E+03 -3.81692E+03
  6.57346E+03 -5.49828E+01  4.80511E+03  4.73824E+03 -1.27905E+03  6.95817E+03 -5.61076E+03  7.13575E+03
