 $NMID ID='MM_0lb_SNR200_18hz_g45_41.RAW', FMTDAT='(8E13.5)'
 TRAMP=1., VOLUME=1. $END
  3.10020E+05  7.78553E+02  3.37099E+05  2.50275E+05  8.56865E+04  3.36740E+05 -1.32675E+05  2.50231E+05
 -1.89616E+05  8.22168E+04 -1.10427E+05 -3.12304E+04  2.20879E+03 -4.97598E+04  5.40808E+04 -2.00093E+02
  3.52524E+04  5.23789E+04 -1.70986E+04  7.40450E+04 -6.02632E+04  6.33998E+04 -8.21508E+04  3.14763E+04
 -7.91700E+04 -1.15366E+04 -5.65654E+04 -5.04788E+04 -1.56769E+04 -6.82822E+04  2.62629E+04 -4.40934E+04
  3.98139E+04  3.39002E+03  1.63181E+04  4.67144E+04 -3.36894E+04  4.58248E+04 -6.65804E+04 -1.17418E+03
 -5.16247E+04 -5.49748E+04 -5.57975E+03 -7.54942E+04  3.33000E+04 -5.33402E+04  4.61200E+04 -1.53556E+04
  4.24307E+04  1.12251E+04  3.18392E+04  2.49338E+04  1.59113E+04  2.72288E+04 -4.15245E+03  2.75639E+04
 -2.11411E+04  1.29008E+04 -1.88354E+04 -4.66791E+03  4.55397E+03 -8.35835E+03  2.03459E+04  1.02075E+04
  7.55176E+03  3.20292E+04 -3.06077E+04  3.39158E+04 -6.05026E+04  7.12148E+02 -5.53326E+04 -4.14446E+04
 -1.15242E+04 -6.06238E+04  3.85508E+04 -4.33260E+04  5.54208E+04 -1.02595E+03  3.18209E+04  3.00708E+04
 -7.65785E+03  3.25111E+04 -2.79374E+04  1.34387E+04 -2.79244E+04 -5.18462E+03 -1.41471E+04 -1.00232E+04
 -8.15084E+03 -1.27152E+04 -1.56155E+03 -1.61839E+04  7.22450E+03 -2.12815E+04  1.55403E+04 -1.39769E+04
  1.28070E+04  3.77159E+03 -6.14179E+03  1.30338E+04 -2.02251E+04 -3.35270E+03 -7.63765E+03 -2.97656E+04
  2.08226E+04 -3.97437E+04  4.39789E+04 -1.92500E+04  4.17988E+04  1.84407E+04  1.41233E+04  4.12228E+04
 -1.50855E+04  3.16119E+04 -2.30575E+04  1.40606E+03 -9.21419E+03 -2.59830E+04  2.06685E+04 -3.14223E+04
  3.77140E+04 -7.02579E+03  3.15589E+04  2.31088E+04  1.68355E+04  4.29883E+04 -7.53043E+03  4.59023E+04
 -2.91818E+04  3.02538E+04 -3.58548E+04  7.70732E+03 -3.77614E+04 -1.50572E+04 -2.19502E+04 -3.51123E+04
  7.30020E+03 -3.38574E+04  2.98073E+04 -1.36992E+04  2.54054E+04  1.09892E+04  2.22444E+03  1.75907E+04
 -1.25629E+04  7.37534E+03 -1.08713E+04 -7.86825E+03  5.79309E+03 -1.00061E+04  1.63082E+04  5.88122E+03
  1.25568E+04  2.23132E+04 -6.57139E+03  2.39062E+04 -2.22313E+04  7.74288E+03 -2.51571E+04 -6.01302E+03
 -1.71024E+04 -1.64499E+04 -4.58676E+03 -1.70992E+04  5.01192E+03 -1.51916E+04  1.35631E+04 -1.44924E+04
  2.08554E+04 -1.18190E+04  2.86072E+04  2.18961E+03  2.09891E+04  1.64967E+04  3.52831E+03  3.25711E+04
 -1.69260E+04  2.70121E+04 -2.57348E+04  1.01118E+04 -2.00199E+04 -9.89703E+03 -3.26006E+03 -1.37300E+04
  1.77479E+03 -3.47196E+03 -2.62368E+03  5.26924E+03 -1.32530E+04  4.64630E+03 -1.29550E+04 -5.59568E+03
 -8.16283E+03 -1.56732E+04  4.36590E+03 -1.83705E+04  1.30487E+04 -1.37341E+04  1.58362E+04 -8.48413E+02
  9.42422E+03  1.17615E+04 -1.95331E+03  1.55822E+04 -1.02342E+04  8.67005E+03 -1.54025E+04 -3.68482E+03
 -1.11480E+04 -1.46871E+04 -1.41520E+03 -1.91252E+04  9.08737E+03 -1.52741E+04  1.71690E+04 -6.74375E+03
  1.45700E+04  1.15228E+03  1.07726E+04  2.31208E+03  5.34031E+03  1.10711E+03  7.48792E+03 -2.15539E+03
  1.45681E+04  2.10354E+03  1.50067E+04  1.23493E+04  9.90191E+03  2.43489E+04 -3.56079E+03  2.62677E+04
 -1.64104E+04  2.04678E+04 -2.45995E+04  9.11728E+03 -2.56233E+04 -1.57926E+03 -2.28281E+04 -1.42695E+04
 -1.05035E+04 -2.17173E+04  6.28142E+03 -1.89504E+04  1.55563E+04 -1.15388E+04  1.57975E+04  3.29501E+03
  7.38279E+03  1.15468E+04 -7.96638E+03  1.02956E+04 -1.52836E+04  3.16794E+03 -1.15991E+04 -7.79582E+03
 -5.89909E+02 -1.28456E+04  6.24273E+03 -9.60661E+03  8.41198E+03 -1.31770E+03  1.61321E+03  4.30187E+03
 -6.53980E+03  7.58176E+02 -4.81753E+03 -4.58001E+03  1.57976E+03 -1.15970E+04  7.77110E+03 -9.66561E+03
  1.23356E+04 -4.22276E+03  1.22662E+04  2.87438E+03  1.05870E+04  8.59923E+03  4.69480E+03  1.52744E+04
 -1.64790E+03  1.64913E+04 -1.02028E+04  1.12648E+04 -1.13754E+04  2.78648E+03 -8.55939E+03 -2.69949E+03
 -4.58117E+03 -3.39435E+03 -4.05352E+01  1.93686E+03 -1.24863E+03  1.19382E+03 -4.53855E+03  3.83364E+03
 -8.46194E+03 -4.00129E+02 -8.25930E+03 -6.72046E+03 -3.93822E+03 -9.69698E+03  3.14636E+03 -9.17335E+03
  7.03667E+03 -4.08769E+03  5.81239E+03  2.36097E+03  1.71463E+03  3.07623E+03 -3.68427E+03  1.16983E+02
 -3.53651E+03 -4.57427E+03 -6.38955E+02 -6.75627E+03  3.82897E+03 -7.32835E+03  9.72531E+03 -4.43825E+03
  1.18598E+04  6.76137E+02  9.51507E+03  6.63046E+03  2.03037E+03  8.31737E+03 -5.85262E+03  7.59146E+03
 -6.96962E+03  2.03626E+03 -3.16181E+03 -1.69904E+03  1.63509E+03 -2.26108E+03  4.87734E+03 -1.29372E+03
  4.18854E+03  3.97949E+03  9.40805E+02  6.15922E+03 -4.57527E+03  6.11033E+03 -7.59700E+03  2.14526E+03
 -4.79975E+03 -3.02384E+03  5.13112E+02 -6.49860E+03  4.04500E+03 -2.95299E+03  3.81306E+03  9.20092E+02
  1.07479E+03  3.27638E+03 -3.92022E+03  5.60178E+03 -4.90456E+03  2.47329E+03 -4.11402E+03 -2.51642E+03
 -3.10553E+03 -6.59260E+03  1.66001E+03 -7.93901E+03  5.34262E+03 -4.25040E+03  5.55582E+03  1.39897E+03
  5.30833E+03  5.13646E+03  8.78009E+02  6.60489E+03 -5.27076E+03  4.47909E+03 -5.89062E+03 -3.63522E+02
 -6.27207E+03 -5.44588E+03 -1.57588E+03 -5.19909E+03  2.77969E+03 -3.46921E+03  3.64179E+03 -2.08912E+03
  2.89140E+03 -3.74981E+01 -4.78590E+02  1.79485E+03  5.34615E+02  3.50789E+01 -1.35916E+03 -9.15447E+02
  4.69587E+03  1.01595E+03  5.41877E+03 -1.01204E+02  5.32052E+03  3.17059E+03  4.74451E+03  7.32044E+03
 -2.05304E+03  9.51122E+03 -7.58626E+03  6.40567E+03 -9.91389E+03  2.26511E+03 -7.13722E+03 -2.44595E+03
 -4.45251E+03 -6.74671E+03 -3.12309E+02 -4.88414E+03  1.96004E+03 -8.31325E+02  2.25431E+03 -2.29984E+03
  1.16702E+03 -2.00751E+03  2.17269E+03 -2.69053E+03  3.00769E+03 -1.70700E+03  4.07524E+03 -8.04348E+02
  2.65690E+03  1.24007E+03 -3.76308E+02  3.83776E+03 -1.34901E+03  3.35149E+03 -4.67427E+03  1.75897E+03
 -5.69981E+03 -1.14826E+03 -2.50567E+03 -3.63737E+03 -5.22386E+01 -5.82169E+03  3.76625E+03 -6.10334E+03
  5.16095E+03 -2.72718E+03  5.90724E+03  1.07921E+03  5.35426E+03  4.33064E+03  1.42933E+03  7.48292E+03
 -3.05289E+03  5.82941E+03 -2.80954E+03  1.95122E+03 -2.20512E+03 -1.35736E+03 -6.60872E+02 -9.78202E+02
 -1.00020E+03  9.87366E+02 -5.45767E+02  2.96043E+03 -2.04644E+03  7.36109E+02 -3.55304E+03 -1.30836E+03
 -1.45276E+03 -4.70860E+03  5.71950E+02 -4.70634E+03  3.85092E+03 -3.80173E+03  3.44672E+03 -1.47622E+03
  4.18634E+03  3.44143E+03  2.14996E+03  5.34422E+03 -1.29721E+03  6.04587E+03 -3.15629E+03  2.72252E+03
 -4.50669E+03 -6.89276E+01 -3.20287E+03 -1.85376E+03  1.24310E+02 -4.42479E+03  9.35118E+02 -1.94956E+03
  3.10726E+03 -1.50373E+03  1.02531E+03  8.43369E+02 -8.34618E+01  7.76958E+02  9.21483E+02  6.95758E+02
  1.50681E+03 -4.35921E+02 -2.29349E+02  1.41504E+02  9.51070E+02  2.07379E+03  1.72158E+03  2.03595E+03
 -1.27501E+03  3.21399E+03 -3.24782E+03  3.37670E+03 -2.91175E+03  1.80643E+03 -4.35615E+03 -1.22793E+03
 -2.73898E+03 -3.74454E+03  1.48909E+03 -6.07170E+03  1.99901E+03 -2.81766E+03  3.16928E+03 -1.26771E+03
  2.93740E+03  1.49814E+03 -8.43882E+01  1.89505E+03 -9.27027E+02  1.62789E+03 -1.10772E+03  2.18793E+02
 -1.04140E+03 -1.33628E+03  1.11123E+03 -3.07868E+03  1.55453E+03 -1.90446E+01  1.93636E+03  1.13728E+03
  1.13393E+03  1.41922E+03  3.66750E+02 -7.55619E+02 -9.33902E+02  1.28361E+03  1.98703E+03 -3.03204E+02
  5.01060E+02 -6.39518E+02  1.85588E+03 -2.51837E+02  1.10664E+02  2.72760E+03  6.17664E+02  3.44119E+03
 -1.19037E+03  8.20613E+02 -3.14602E+03  3.66706E+02 -1.63757E+03 -2.00550E+01 -3.94848E+02 -6.66520E+02
 -4.63694E+02 -1.50000E+03  1.08973E+03 -4.34009E+02  8.13526E+02  1.39665E+03  2.61775E+02  4.54498E+02
 -1.96148E+03  6.84597E+01 -1.36217E+03 -2.85051E+02 -5.45620E+02 -1.66561E+03  7.94673E+02 -1.86439E+03
  6.03583E+02 -1.47218E+03 -1.63548E+02  7.33980E+02  9.38533E+02 -1.37298E+03  2.83071E+02  1.33241E+03
 -1.32816E+03  4.26721E+02 -1.28232E+03 -3.24597E+02 -7.64044E+02 -1.18896E+03  2.00121E+03 -4.73071E+02
  1.27513E+03 -6.49828E+01  2.68769E+03  1.46010E+03  1.77539E+03  2.02667E+03  1.40692E+02  9.91266E+02
 -2.09971E+03  3.06560E+01 -9.44187E+02  1.39360E+03 -9.82158E+02 -3.04867E+02 -3.35061E+01 -8.06677E+02
  1.85185E+03 -1.36186E+03  1.32990E+02  8.77968E+02 -1.59222E+01  8.60119E+02 -2.61005E+02  2.13132E+03
 -1.78866E+03  2.08047E+02 -7.72339E+02 -7.58440E+02 -8.34587E+02  1.08926E+03 -7.47628E+02  5.75455E+02
 -6.18490E+02  1.27031E+02 -1.58624E+03  1.11236E+03 -2.13238E+03 -3.44670E+01 -1.77149E+03 -7.60425E+02
 -2.37978E+03 -3.20056E+03  2.18258E+02 -3.86830E+03  9.08760E+02 -2.31012E+03  2.44461E+03 -9.27044E+02
  2.25537E+03  1.03925E+03  1.71935E+03  1.76074E+03 -8.14903E+02  2.07394E+03 -2.05850E+03  2.51713E+03
 -1.13227E+03 -2.90454E+02 -1.35684E+02 -2.22217E+02 -1.05085E+02  1.29219E+03 -1.54084E+02  5.39338E+02
 -4.59830E+02 -1.18939E+02 -1.52330E+03  2.71947E+02  3.01250E+02 -8.75917E+02 -7.31993E+02 -1.37753E+03
  1.55904E+03 -5.03196E+01  4.00016E+02  9.98007E+02  1.67693E+03  2.05912E+02  3.91477E+02  1.60759E+03
 -1.31076E+03  2.88494E+03 -1.89739E+03  1.17936E+03 -2.17183E+03 -4.64667E+02 -9.11443E+02 -2.27493E+03
 -9.49674E+02 -1.24522E+02 -2.14630E+02  2.94213E+01 -1.99381E+02 -1.27247E+03  4.88560E+02 -2.20976E+00
  1.13928E+03  4.99332E+02 -1.19874E+02 -8.16448E+02 -6.39157E+02  1.57272E+03 -9.85831E+01 -2.61910E+02
  4.98837E+01  1.19897E+02  3.26940E+01  9.71474E+02 -1.03225E+02  8.02384E+01  6.71138E+02  5.82394E+01
  3.81748E+01  8.69122E+02 -1.17605E+03 -2.36974E+02  5.85201E+01 -9.71884E+02  3.94317E+02 -8.71293E+02
  1.26298E+03 -1.97264E+03  5.89120E+02 -9.23964E+02  2.15868E+02 -1.28744E+03  1.39476E+03  1.08206E+03
  6.48768E+02  2.64953E+01  1.44379E+02  1.44189E+03 -1.10308E+03  8.64821E+02 -2.53510E+02 -4.65355E+02
 -1.09855E+03  7.38719E+02 -9.12174E+02 -1.32198E+03 -7.84084E+02  1.05479E+02 -1.25340E+03  6.45480E+02
 -1.19452E+03 -8.70438E+02 -6.54727E+02 -1.35356E+03  7.96817E+02 -1.00705E+03  1.31629E+03 -1.56033E+03
  1.68259E+03  5.75589E+02  1.34259E+03  1.66826E+03 -2.24840E+02  2.51339E+02 -2.79149E+02  4.40353E+01
