 $NMID ID='MM_0lb_SNR200_20hz_g45_55.RAW', FMTDAT='(8E13.5)'
 TRAMP=1., VOLUME=1. $END
  3.10079E+05  1.41319E+03  3.37831E+05  2.50667E+05  8.36286E+04  3.36129E+05 -1.32838E+05  2.50793E+05
 -1.89547E+05  8.29791E+04 -1.11621E+05 -3.36092E+04  2.02808E+03 -5.07205E+04  5.42873E+04  2.08852E+02
  3.55970E+04  5.20258E+04 -1.70717E+04  7.37930E+04 -5.99882E+04  6.25461E+04 -8.19428E+04  3.10332E+04
 -7.89854E+04 -1.11145E+04 -5.58373E+04 -4.98284E+04 -1.50524E+04 -6.84373E+04  2.70420E+04 -4.46340E+04
  3.80520E+04  2.53101E+03  1.60528E+04  4.75546E+04 -3.36330E+04  4.57517E+04 -6.42310E+04 -1.13882E+02
 -5.15543E+04 -5.57749E+04 -5.42494E+03 -7.38085E+04  3.21451E+04 -5.31613E+04  4.51560E+04 -1.60298E+04
  3.98975E+04  1.13542E+04  3.03803E+04  2.36498E+04  1.50241E+04  2.80335E+04 -5.51501E+03  2.55151E+04
 -2.11307E+04  1.34654E+04 -1.91514E+04 -5.19756E+03  4.19263E+03 -8.93337E+03  2.18478E+04  1.02868E+04
  7.15591E+03  3.25925E+04 -2.92594E+04  3.33949E+04 -6.03171E+04  2.92930E+03 -5.48160E+04 -4.11189E+04
 -1.24925E+04 -6.01961E+04  3.62878E+04 -4.29224E+04  5.53211E+04 -2.49283E+03  3.08461E+04  3.06469E+04
 -6.38642E+03  3.24300E+04 -2.81011E+04  1.24047E+04 -2.67932E+04 -5.30966E+03 -1.42113E+04 -8.99372E+03
 -7.73454E+03 -1.09552E+04 -1.76868E+03 -1.64136E+04  7.17402E+03 -2.25510E+04  1.43742E+04 -1.45052E+04
  1.34085E+04  4.46153E+03 -5.70447E+03  1.23626E+04 -1.92637E+04 -2.76083E+03 -8.69750E+03 -2.94366E+04
  1.91656E+04 -3.94280E+04  4.38011E+04 -1.83999E+04  4.00455E+04  1.70318E+04  1.45215E+04  4.18087E+04
 -1.47585E+04  2.95394E+04 -2.27083E+04  8.05665E+02 -8.11679E+03 -2.60467E+04  1.96339E+04 -3.02600E+04
  3.73331E+04 -7.41865E+03  2.92265E+04  2.22600E+04  1.49949E+04  4.12088E+04 -8.19273E+03  4.28768E+04
 -2.68345E+04  2.96823E+04 -3.56728E+04  8.57377E+03 -3.66444E+04 -1.52734E+04 -2.04005E+04 -3.26582E+04
  7.28219E+03 -3.23874E+04  2.78765E+04 -1.13951E+04  2.54637E+04  1.11886E+04  2.51607E+03  1.68418E+04
 -1.22474E+04  7.40617E+03 -8.68696E+03 -8.08733E+03  6.47612E+03 -1.00978E+04  1.74279E+04  6.94463E+03
  1.22237E+04  2.17442E+04 -6.40451E+03  2.24399E+04 -2.16199E+04  8.55810E+03 -2.38772E+04 -6.42193E+03
 -1.50734E+04 -1.64335E+04 -4.50454E+03 -1.54284E+04  4.36305E+03 -1.30507E+04  1.12415E+04 -1.33716E+04
  1.98651E+04 -1.13392E+04  2.75648E+04  1.12215E+03  1.94791E+04  1.52452E+04  3.37329E+03  3.12995E+04
 -1.59638E+04  2.63974E+04 -2.57135E+04  8.14419E+03 -1.90477E+04 -1.08715E+04 -3.79281E+03 -1.42328E+04
  8.97959E+02 -4.60148E+03 -2.38193E+03  4.92521E+03 -1.13671E+04  5.63929E+03 -1.11771E+04 -4.47606E+03
 -8.19211E+03 -1.45656E+04  4.49955E+03 -1.81942E+04  1.24137E+04 -1.36729E+04  1.37001E+04 -1.40318E+03
  7.95957E+03  1.01166E+04 -5.27146E+02  1.36031E+04 -1.00973E+04  7.56607E+03 -1.40468E+04 -3.41552E+03
 -1.07545E+04 -1.29468E+04 -8.29509E+02 -1.75158E+04  8.70684E+03 -1.37073E+04  1.57013E+04 -5.86729E+03
  1.34158E+04  9.98858E+02  1.08208E+04  3.67518E+03  3.11635E+03  1.08768E+03  7.32991E+03 -1.82982E+03
  1.23456E+04  2.23589E+03  1.34387E+04  1.08885E+04  8.26813E+03  2.24148E+04 -2.24205E+03  2.44956E+04
 -1.42426E+04  1.88652E+04 -2.09818E+04  8.04473E+03 -2.22683E+04 -6.39353E+02 -1.98794E+04 -1.33213E+04
 -1.04020E+04 -1.77318E+04  6.07574E+03 -1.73618E+04  1.42358E+04 -9.80870E+03  1.44570E+04  3.54993E+03
  7.26521E+03  1.04892E+04 -6.91939E+03  1.03984E+04 -1.26242E+04  2.37331E+03 -9.86033E+03 -5.96172E+03
  2.23079E+02 -1.08885E+04  4.69964E+03 -9.04508E+03  7.57951E+03 -1.44533E+03  1.44931E+03  5.03646E+03
 -5.71662E+03  8.72426E+02 -2.41887E+03 -4.78705E+03  1.07846E+03 -9.41646E+03  7.41696E+03 -9.53354E+03
  1.06626E+04 -4.64756E+03  1.04945E+04  3.14899E+03  8.58070E+03  8.87904E+03  5.26951E+03  1.29071E+04
 -8.62025E+02  1.41260E+04 -8.45291E+03  8.54023E+03 -9.36135E+03  3.29449E+03 -6.65679E+03 -1.87725E+03
 -4.40979E+03 -1.68092E+03  4.65261E+02  2.61873E+03 -2.51331E+03  1.67330E+03 -3.94948E+03  3.31140E+03
 -8.14419E+03 -7.92547E+02 -7.91605E+03 -7.46790E+03 -3.50520E+03 -1.00428E+04  3.36518E+03 -7.77005E+03
  6.49771E+03 -4.19555E+03  4.37209E+03  1.73334E+03  8.70186E+02  3.21156E+03 -3.01635E+03  2.33738E+02
 -3.22535E+03 -4.10318E+03  6.45401E+01 -6.14591E+03  1.94170E+03 -6.25962E+03  8.24551E+03 -1.95939E+03
  1.04511E+04 -1.42955E+02  7.60569E+03  5.87408E+03  1.33436E+03  7.11129E+03 -5.21995E+03  7.33502E+03
 -6.55334E+03  1.69502E+03 -3.35199E+03 -1.50521E+03  2.24808E+03 -1.17892E+03  4.41075E+03 -6.14507E+02
  5.58846E+03  2.37337E+03  7.18108E+02  6.11311E+03 -2.99908E+03  5.04838E+03 -7.31814E+03  2.12157E+03
 -3.01300E+03 -3.69197E+03  7.55212E+02 -6.40967E+03  3.01098E+03 -3.16191E+03  2.64838E+03  8.04199E+02
  7.84300E+02  2.03233E+03 -4.12984E+03  4.53157E+03 -3.69591E+03  2.77446E+03 -3.56246E+03 -9.73368E+02
 -3.37874E+03 -4.31037E+03  4.99290E+02 -6.04754E+03  4.45581E+03 -3.62766E+03  5.50676E+03  1.63975E+03
  3.83436E+03  6.00067E+03  1.09268E+03  7.20613E+03 -5.41188E+03  4.01989E+03 -4.73458E+03 -1.18760E+03
 -5.09354E+03 -5.16166E+03 -1.29413E+03 -3.85116E+03  1.52890E+03 -4.28080E+03  1.67981E+03 -2.54809E+03
  2.52183E+03 -2.51014E+02  3.84119E+02  7.78815E+02  5.10932E+02  3.91775E+02 -1.08799E+02 -5.84609E+01
  3.54718E+03  3.65107E+02  3.65432E+03  2.03141E+02  4.03467E+03  3.04080E+03  3.91573E+03  6.21564E+03
 -1.40419E+02  5.94024E+03 -5.88351E+03  5.03859E+03 -8.04379E+03  4.94831E+02 -6.15704E+03 -2.99301E+03
 -4.16972E+03 -4.84417E+03  1.29310E+02 -4.67035E+03  1.74688E+03 -3.04761E+02  1.86384E+03 -1.35321E+03
  9.30568E+02 -2.14168E+03  1.73261E+03 -2.48279E+03  2.47815E+03 -1.38872E+03  3.65789E+03  9.36320E+02
  3.92121E+03  1.62057E+03  7.74670E+02  2.31275E+03 -6.90264E+02  3.16333E+03 -4.31119E+03  1.15248E+03
 -4.08301E+03 -1.05026E+03 -1.38458E+03 -1.95811E+03  2.28739E+02 -2.78522E+03  1.70951E+03 -4.61475E+03
  4.05056E+03 -2.70054E+03  5.51902E+03 -1.35419E+03  3.61461E+03  2.66762E+03  1.60608E+03  5.78601E+03
 -1.71900E+03  5.49920E+03 -2.89435E+03  2.03096E+03 -7.39466E+02 -9.48623E+02 -8.19788E+01 -7.68628E+02
 -1.58118E+02  4.50765E+02 -7.45978E+02  3.02236E+03 -2.44855E+03  1.55002E+03 -3.76306E+03 -5.98697E+02
 -2.05108E+03 -4.07535E+03  5.83937E+02 -4.13491E+03  2.17848E+03 -2.85075E+03  2.77174E+03 -5.52604E+02
  3.59671E+03  1.44757E+03  1.00576E+03  1.72565E+03 -1.75498E+01  3.53064E+03 -2.39195E+03  1.01218E+03
 -2.87204E+03  1.05588E+03 -4.06126E+03 -3.10632E+03 -4.69104E+02 -2.75754E+03  9.38823E+02 -1.33017E+03
  3.06789E+03  2.31731E+01  2.05267E+03  5.48841E+02  8.85312E+01  1.29309E+03  1.10901E+03  1.15614E+03
  1.24481E+03  6.66300E+02  1.59131E+02  3.45730E+02  1.21782E+03  1.93829E+03  4.45904E+02  1.53527E+03
 -4.45515E+02  1.37525E+03 -2.53785E+03  3.60505E+03 -1.53697E+03  4.43334E+02 -3.22801E+03  4.65655E+02
 -1.99223E+03 -2.49808E+03  2.81452E+02 -4.32751E+03  1.51930E+03 -2.06642E+03  2.96695E+03 -1.48003E+03
  1.19489E+03  1.79857E+03 -6.85612E+02  1.54516E+03 -5.59090E+02  1.35313E+03 -9.65320E+02  5.35570E+02
 -1.08650E+03 -1.29271E+03  2.94511E+01 -6.40802E+02  7.65856E+02 -7.55491E+02  9.64208E+02 -1.64425E+02
  7.41071E+02  5.54298E+02  3.85402E+02 -5.56193E+02 -1.12812E+03  1.14368E+03  1.12807E+03 -8.39564E+02
 -1.26119E+02 -4.16012E+02  1.09693E+03 -3.27859E+02  7.14774E+02  2.08926E+03 -2.66810E+02  2.38418E+03
 -2.22504E+03  3.34196E+02 -1.28182E+03 -2.09672E+02 -2.74362E+03 -1.82768E+03 -4.02271E+02 -4.97700E+02
  4.67262E+02 -8.81253E+02  8.69674E+02 -1.15027E+02  5.61582E+00  1.28479E+03  1.09352E+02  1.08536E+03
 -1.62762E+03  1.19757E+03 -4.78252E+02 -1.18480E+03 -9.21153E+02 -1.31408E+03  5.75087E+02 -2.13456E+03
  1.00823E+03 -6.37173E+02 -2.04076E+02  6.44690E+02  3.37122E+02 -1.46948E+02  2.73866E+02 -1.08434E+02
 -3.22980E+02  6.84897E+02 -9.65691E+02 -3.18708E+02  8.62440E+02 -5.37913E+02  1.20845E+03 -3.87002E+02
  1.38173E+03  4.82470E+01  2.03826E+03  4.07425E+00  4.46214E+02  1.47337E+03 -9.04761E+02  1.30819E+03
 -7.21885E+02 -3.54688E+02 -1.37665E+03 -2.54087E+02 -1.22185E+03 -9.17235E+02 -1.51392E+02 -2.61969E+02
  4.70251E+02  1.01205E+02  1.05723E+02  1.23974E+03 -6.74395E+02  9.00887E+02 -1.97318E+02  1.44197E+03
 -1.28844E+03  1.49125E+02  4.41598E+01  5.55506E+02  5.29991E+02  9.53115E+02 -7.74519E+02  1.68806E+02
  1.68955E+02  1.24310E+03 -1.21912E+03 -3.30305E+01 -1.55614E+03  2.27359E+02 -2.17914E+03 -1.05061E+03
 -9.64678E+02 -1.43169E+03 -2.98416E+02 -1.46270E+03  5.92975E+02 -2.24544E+03  3.18661E+03 -9.31039E+01
  2.09635E+03 -5.20051E+02  1.51300E+03  4.38656E+02 -4.18624E+02  1.31458E+03 -1.26069E+03  1.45206E+03
  4.12813E+01  1.35375E+03 -9.58333E+02  8.78654E+01 -6.50976E+02  5.30926E+02 -7.79854E+02  9.02721E+02
 -1.05070E+03  4.67015E+02 -1.31459E+03 -6.96037E+02  3.39701E+02 -3.00949E+02 -3.45797E+02 -3.04615E+02
  9.14038E+02  1.06250E+02 -9.28828E+02  3.74392E+02  6.27859E+02  9.05891E+02 -4.55175E+02  1.36621E+03
 -1.19727E+03  1.33659E+03 -1.09560E+03  1.51281E+03 -2.83400E+02 -2.50595E+02 -1.68750E+03 -9.70427E+02
 -7.86205E+02 -1.17098E+03  1.28461E+03 -9.86127E+02 -4.23808E+02 -1.09576E+03  3.15076E+02  7.80800E+02
  2.67041E+02  6.69215E+02 -8.97348E+01 -1.48847E+02 -4.18420E+02 -3.62075E+01 -2.66388E+02 -6.79280E+01
 -2.66976E+02  1.84274E+02  1.33190E+02  3.85254E+01  7.04637E+02  1.08806E+03  8.93171E+02 -6.81504E+01
  2.03787E+01  9.39103E+02  7.86707E+02  5.83339E+02 -1.11374E+03 -4.34535E+02 -3.67695E+02  7.35169E-01
  5.63944E+02  6.25060E+01  1.64614E+02  6.72706E+02  1.29301E+02 -1.28781E+03  1.52868E+02  7.13764E+02
  9.56374E+02  3.51439E+02  8.54732E+02  1.32136E+02 -4.29194E+02  1.17082E+03 -4.38952E+02  4.26056E+02
  5.18362E+02  3.51375E+02 -9.22922E+01  4.40570E+02  7.62535E+02  2.67430E+02 -4.22579E+02  3.83463E+02
 -9.76322E+02  1.10582E+03 -3.79817E+02 -1.11144E+03  2.80197E+02 -2.35030E+03  6.61924E+02 -7.84196E+02
  7.15877E+02  6.51758E+02 -2.00359E+02  9.98160E+01 -2.29083E+02  1.20767E+03  6.17935E+02  5.30663E+02
