 $NMID ID='MM_0lb_SNR200_14hz_g50_58.RAW', FMTDAT='(8E13.5)'
 TRAMP=1., VOLUME=1. $END
  3.09243E+05  5.37668E+02  3.37667E+05  2.50079E+05  8.39469E+04  3.37851E+05 -1.34168E+05  2.49746E+05
 -1.91121E+05  8.35306E+04 -1.11385E+05 -3.12386E+04  4.54822E+02 -5.04894E+04  5.35177E+04  2.94314E+02
  3.50507E+04  5.15536E+04 -1.65501E+04  7.47670E+04 -6.17914E+04  6.28144E+04 -8.47283E+04  3.17359E+04
 -8.11735E+04 -1.21013E+04 -5.64110E+04 -5.13653E+04 -1.52158E+04 -7.03507E+04  2.79897E+04 -4.74757E+04
  3.96450E+04  3.85310E+03  1.64832E+04  4.75538E+04 -3.43059E+04  4.64855E+04 -6.76835E+04 -8.07510E+02
 -5.33098E+04 -5.73948E+04 -6.89604E+03 -7.73768E+04  3.29028E+04 -5.49423E+04  4.83534E+04 -1.79329E+04
  4.24222E+04  1.10997E+04  3.17453E+04  2.49363E+04  1.56954E+04  2.89462E+04 -4.53946E+03  2.75078E+04
 -2.25892E+04  1.27305E+04 -1.83257E+04 -5.43817E+03  5.62333E+03 -7.29580E+03  2.22396E+04  1.23699E+04
  6.62205E+03  3.61854E+04 -3.23773E+04  3.80493E+04 -6.36963E+04  2.89375E+03 -5.67987E+04 -4.20366E+04
 -1.34861E+04 -6.44247E+04  4.02573E+04 -4.57132E+04  5.84109E+04 -2.40018E+03  3.33913E+04  3.34443E+04
 -6.07115E+03  3.76164E+04 -2.93618E+04  1.45318E+04 -3.03323E+04 -4.66252E+03 -1.70123E+04 -1.11154E+04
 -9.00947E+03 -1.27974E+04 -1.07931E+03 -1.80824E+04  8.05988E+03 -2.24898E+04  1.66035E+04 -1.42947E+04
  1.05793E+04  7.05296E+03 -8.96280E+03  1.36683E+04 -2.22418E+04 -4.17863E+03 -9.16426E+03 -3.35727E+04
  2.38513E+04 -4.31526E+04  4.92217E+04 -1.95528E+04  4.51150E+04  1.91660E+04  1.58944E+04  4.40952E+04
 -1.60702E+04  3.38793E+04 -2.45520E+04  8.64771E+02 -1.05342E+04 -2.71499E+04  2.18717E+04 -3.48584E+04
  4.18193E+04 -1.01702E+04  3.57767E+04  2.41766E+04  1.81265E+04  4.64014E+04 -7.38294E+03  5.00578E+04
 -3.17472E+04  3.31871E+04 -4.27283E+04  8.54394E+03 -4.20801E+04 -1.71898E+04 -2.44491E+04 -3.90735E+04
  7.27922E+03 -3.76739E+04  3.14194E+04 -1.36260E+04  2.87742E+04  1.09269E+04  4.14130E+03  1.93652E+04
 -1.35493E+04  7.68878E+03 -1.06532E+04 -6.36958E+03  5.43096E+03 -1.04017E+04  1.77003E+04  6.43762E+03
  1.41537E+04  2.26984E+04 -6.58254E+03  2.44910E+04 -2.19043E+04  1.14164E+04 -2.79775E+04 -4.31678E+03
 -2.07783E+04 -1.76362E+04 -8.75278E+03 -2.00167E+04  3.67569E+03 -1.96969E+04  1.63311E+04 -1.98617E+04
  2.61415E+04 -1.22378E+04  3.30785E+04  2.89494E+03  2.47772E+04  2.12492E+04  3.92034E+03  3.55170E+04
 -1.72815E+04  3.04731E+04 -2.80717E+04  1.07100E+04 -2.14728E+04 -1.04365E+04 -3.78277E+03 -1.38628E+04
  2.44687E+03 -1.05767E+03 -4.95668E+03  5.58023E+03 -1.49326E+04  5.07076E+03 -1.64045E+04 -7.14360E+03
 -1.06505E+04 -1.90410E+04  5.16670E+03 -2.34087E+04  1.42342E+04 -1.63194E+04  1.84247E+04 -1.76986E+03
  1.11453E+04  1.32037E+04 -8.56150E+02  1.78825E+04 -1.26679E+04  1.13650E+04 -1.95604E+04 -4.02484E+03
 -1.32443E+04 -1.75539E+04 -1.96035E+03 -2.34792E+04  1.05619E+04 -1.92621E+04  1.98035E+04 -9.26905E+03
  1.80667E+04 -3.00882E+02  1.31964E+04  3.65569E+03  5.82885E+03  1.37017E+03  1.09878E+04 -2.72009E+03
  1.70716E+04  2.73519E+03  1.85935E+04  1.55281E+04  1.33737E+04  3.04382E+04 -1.47743E+03  3.59008E+04
 -2.01687E+04  2.96251E+04 -3.21885E+04  1.34562E+04 -3.35975E+04 -2.54605E+03 -2.87772E+04 -1.94039E+04
 -1.35389E+04 -2.77028E+04  1.08222E+04 -2.53381E+04  2.20529E+04 -1.26219E+04  1.85945E+04  4.93164E+03
  8.59896E+03  1.42285E+04 -8.27201E+03  1.26863E+04 -1.71089E+04  3.81478E+03 -1.23693E+04 -1.00694E+04
 -4.06603E+02 -1.52927E+04  7.78795E+03 -1.17075E+04  1.10444E+04 -1.84165E+03  1.50447E+03  7.16696E+03
 -7.76509E+03  2.88888E+03 -7.50366E+03 -4.50356E+03 -1.74460E+03 -1.27252E+04  1.06881E+04 -1.41324E+04
  1.72238E+04 -7.69263E+03  1.83082E+04  2.35800E+03  1.57432E+04  1.32706E+04  5.66225E+03  2.05100E+04
 -2.68626E+03  2.15501E+04 -1.30042E+04  1.37511E+04 -1.54830E+04  2.95782E+03 -1.08068E+04 -4.10314E+03
 -5.40223E+03 -3.46379E+03 -1.26412E+03  1.17501E+03 -2.08551E+03  1.19305E+03 -5.14351E+03  4.90765E+03
 -9.70651E+03 -1.12915E+03 -1.26272E+04 -9.27380E+03 -5.98976E+03 -1.35676E+04  4.78517E+03 -1.22207E+04
  9.04915E+03 -5.18043E+03  6.59746E+03  3.13022E+03  1.08618E+03  5.10076E+03 -4.52617E+03  6.94337E+02
 -6.69909E+03 -7.24716E+03 -1.73409E+03 -1.29961E+04  4.99301E+03 -1.06517E+04  1.42865E+04 -4.79946E+03
  1.66028E+04  3.92604E+02  1.30136E+04  7.54746E+03  2.60528E+03  1.37581E+04 -7.09811E+03  1.18217E+04
 -8.50921E+03  2.63641E+03 -5.72703E+03 -2.23478E+03  5.99189E+02 -4.30126E+03  5.08099E+03 -8.92565E+02
  5.43771E+03  4.21232E+03  1.54400E+03  8.89303E+03 -6.26057E+03  9.39052E+03 -1.05614E+04  2.64523E+03
 -7.85382E+03 -4.34723E+03  3.92061E+02 -9.63548E+03  5.55536E+03 -4.96838E+03  4.93575E+03  3.51473E+03
  1.61932E+03  6.22109E+03 -5.41911E+03  7.28276E+03 -8.82980E+03  2.78031E+03 -9.00905E+03 -2.19680E+03
 -6.02325E+03 -1.06796E+04  1.94636E+03 -1.13770E+04  8.41884E+03 -7.21156E+03  1.08519E+04  2.14700E+03
  6.30633E+03  7.79730E+03 -1.65137E+03  1.19337E+04 -7.88966E+03  6.07406E+03 -8.58602E+03  3.44974E+02
 -7.91177E+03 -7.84639E+03 -1.09923E+03 -7.47868E+03  2.40278E+03 -6.50293E+03  3.88291E+03 -3.54925E+03
  3.49362E+03  1.08292E+03 -5.93663E+02  2.29078E+03 -4.11207E+01 -2.29682E+03 -6.93308E+00 -3.80350E+03
  6.79759E+03 -1.98725E+03  9.91169E+03  1.38659E+03  1.02081E+04  5.29971E+03  7.06833E+03  1.24772E+04
 -2.22619E+03  1.37827E+04 -1.20930E+04  9.82706E+03 -1.60086E+04  1.62430E+03 -1.25017E+04 -4.92255E+03
 -7.37303E+03 -1.06738E+04 -3.53371E+02 -9.63562E+03  4.10959E+03 -5.33558E+03  3.35956E+03 -4.26653E+03
  2.03567E+03 -1.67155E+03  3.32654E+03 -3.08993E+03  4.96084E+03 -1.55273E+03  5.78308E+03 -2.69029E+02
  6.94676E+03  1.00123E+03  2.64141E+03  4.05086E+03 -1.63646E+03  6.52913E+03 -6.76091E+03  4.33754E+03
 -8.16403E+03 -3.63823E+02 -4.66236E+03 -4.45753E+03  6.49996E+02 -9.01835E+03  5.06907E+03 -7.87256E+03
  9.44041E+03 -4.97616E+03  1.10780E+04  1.10261E+03  8.40865E+03  7.64370E+03  6.91310E+02  1.09803E+04
 -4.81751E+03  9.24142E+03 -5.99735E+03  4.03671E+03 -3.96743E+03 -1.86650E+02 -1.85723E+03 -3.94204E+02
 -1.05742E+03 -2.47469E+02 -2.13041E+03  3.05334E+03 -5.36138E+03  1.97284E+03 -5.29155E+03 -1.00644E+03
 -2.66161E+03 -5.84981E+03  3.78802E+02 -8.50122E+03  4.26624E+03 -8.50774E+03  7.29354E+03 -1.07938E+03
  8.31097E+03  5.15463E+03  3.68727E+03  7.74620E+03 -2.01502E+03  9.13005E+03 -4.98503E+03  4.38473E+03
 -6.95183E+03  9.51262E+02 -6.72041E+03 -5.10166E+03 -8.89315E+02 -7.08015E+03  4.00843E+03 -5.13826E+03
  5.28913E+03 -1.47268E+03  3.76937E+03  1.03883E+03  1.01936E+03  3.72938E+03  5.99625E+02  1.21513E+03
  3.27011E+03  8.63095E+02  3.00769E+03  2.30971E+03  1.84320E+03  3.45005E+03  1.57696E+03  3.62014E+03
 -2.07781E+03  6.81981E+03 -5.39732E+03  5.04411E+03 -7.07166E+03  1.90137E+03 -8.33354E+03 -2.84737E+03
 -4.46029E+03 -7.03897E+03  2.14497E+03 -9.22349E+03  3.72366E+03 -5.87644E+03  5.56167E+03 -1.46799E+03
  4.82358E+03  2.17544E+03  2.01963E+02  5.06302E+03 -2.34287E+03  2.54928E+03 -2.55299E+03  8.64017E+02
 -9.45729E+02 -4.50767E+03  2.13125E+03 -3.10020E+03  3.28015E+03 -1.15372E+03  3.44395E+03  1.97959E+03
  1.65229E+03  1.40952E+03  1.57450E+03 -5.06471E+02 -8.04389E+02  2.25576E+03  2.59656E+03 -2.23317E+02
 -1.06528E+02 -1.04659E+03  3.83952E+03  1.62762E+03  1.78024E+03  3.95510E+03 -5.46609E+02  6.32837E+03
 -3.11179E+03  2.78106E+03 -4.80102E+03  1.78056E+03 -4.64130E+03 -1.42928E+03 -7.48642E+02 -2.57607E+03
 -1.75291E+02 -2.74072E+03  2.30875E+03 -1.43094E+03  3.34954E+02  6.07976E+02 -1.74073E+03  2.19315E+03
 -3.98498E+03  1.78566E+03 -3.21836E+03 -3.21452E+03 -2.53925E+03 -4.99310E+03 -1.43600E+03 -4.12936E+03
  1.06129E+03 -1.54740E+03  1.33415E+03 -7.68457E+02  2.06593E+03  6.36560E+02 -2.60663E+02  1.91137E+03
 -6.51519E+02  1.25717E+03 -1.78101E+03 -7.00194E+02  9.03745E+02 -3.14431E+03  3.11189E+03 -2.85249E+03
  4.38878E+03  8.51337E+02  4.28194E+03  2.36249E+03  9.52634E+02  4.36454E+03 -9.20783E+02  3.89118E+03
 -3.12303E+03  2.17517E+03 -3.82439E+03 -1.13076E+03 -2.32904E+03 -1.43736E+03  1.04738E+03 -2.89857E+03
  3.13131E+03 -1.21108E+03  2.07227E+03  1.25364E+03 -1.78802E+02  1.19098E+03  4.40669E+02  3.75413E+03
 -6.53854E+02  1.82883E+03 -1.00662E+03  2.30444E+03 -7.76030E+02  2.36613E+02 -5.68814E+02  5.15931E+02
  3.22312E+01  2.00504E+03 -4.05373E+03  1.14073E+02 -3.09366E+03  4.84792E+02 -4.92804E+03 -2.03316E+03
 -2.60496E+03 -5.35353E+03  1.35952E+03 -7.30845E+03  4.22582E+03 -5.54086E+03  7.46313E+03 -2.06562E+03
  4.94733E+03  1.61930E+03  3.66689E+03  3.11608E+03 -6.32822E+02  4.19707E+03 -1.13636E+03  2.21376E+03
 -4.06783E+03  1.24371E+03 -2.37166E+03 -2.31117E+02 -1.27988E+03 -3.29785E+02 -2.46602E+03 -1.44014E+02
 -1.44425E+03 -1.06535E+02 -2.82031E+02  6.24544E+01  7.08739E+02 -3.91492E+02 -5.82616E+02 -1.15144E+03
  2.19441E+03 -2.17166E+03  1.17152E+03  4.08703E+01  2.62538E+03  2.31644E+03  7.65164E+02  4.77041E+03
 -1.65042E+03  4.85288E+03 -4.09607E+03  3.16339E+03 -5.03235E+03 -3.11274E+02 -2.89109E+03 -4.05653E+03
 -2.73714E+03 -4.89445E+03  6.84416E+02 -3.69837E+03  2.31759E+03 -1.17134E+03  2.70524E+03  2.71488E+02
  8.21646E+02  1.00341E+03 -6.69114E+01  6.69577E+02 -8.66223E+02  1.76946E+02 -1.37953E+03 -4.69518E+02
  1.02723E+03  6.35007E+02  1.57824E+03 -5.29794E+02  1.48623E+03  2.97537E+01  1.41330E+03  1.52695E+03
 -1.39776E+03  1.13206E+03 -1.42599E+03 -3.19477E+02 -2.86489E+03 -1.41180E+03 -1.13792E+03 -3.61481E+03
  1.30773E+03 -1.79691E+03  3.71444E+03 -1.13229E+02  3.54991E+03  6.35148E+00  1.81679E+03  1.58010E+03
 -2.94137E+01  2.29867E+03 -5.43149E+02  2.95444E+03 -1.47728E+03  1.39322E+03 -1.98010E+03 -8.45901E+01
 -1.67392E+03  5.60882E+02 -1.71689E+03 -2.30911E+02 -2.16562E+03 -5.22585E+02 -3.84227E+03 -4.24595E+02
 -2.70444E+03 -3.80488E+02 -3.10585E+02 -1.48831E+03  1.73749E+03 -2.61704E+03  2.04058E+03 -4.97943E+02
  1.78470E+03 -3.72430E+01  2.66665E+02  7.16172E+02 -7.48312E+02  1.87557E+03 -1.44548E+03  1.94793E+03
