 $NMID ID='MM_0lb_SNR200_14hz_g60_52.RAW', FMTDAT='(8E13.5)'
 TRAMP=1., VOLUME=1. $END
  3.10541E+05  1.55567E+03  3.37323E+05  2.50854E+05  8.46001E+04  3.38904E+05 -1.32433E+05  2.50968E+05
 -1.91208E+05  8.39698E+04 -1.11167E+05 -3.44221E+04  7.32065E+02 -4.99750E+04  5.34656E+04 -5.58677E+02
  3.58130E+04  5.30696E+04 -1.61740E+04  7.44858E+04 -6.10945E+04  6.46725E+04 -8.40815E+04  3.12783E+04
 -8.24350E+04 -1.33546E+04 -5.65777E+04 -5.12734E+04 -1.60380E+04 -6.90352E+04  2.81212E+04 -4.57155E+04
  4.00990E+04  2.12896E+03  1.53802E+04  4.93800E+04 -3.46478E+04  4.69458E+04 -6.83203E+04 -4.15625E+02
 -5.48520E+04 -5.73725E+04 -5.75082E+03 -7.86215E+04  3.44949E+04 -5.68892E+04  4.83373E+04 -1.75353E+04
  4.43125E+04  1.17091E+04  3.11331E+04  2.60129E+04  1.62197E+04  2.98928E+04 -6.03356E+03  2.70135E+04
 -2.23853E+04  1.14351E+04 -1.92868E+04 -4.94639E+03  6.16934E+03 -7.27762E+03  2.24469E+04  1.21403E+04
  6.81850E+03  3.58443E+04 -3.34602E+04  3.62767E+04 -6.49702E+04  2.79991E+03 -5.85981E+04 -4.20572E+04
 -1.24367E+04 -6.44549E+04  4.04243E+04 -4.58573E+04  5.96258E+04 -1.75208E+03  3.41810E+04  3.27518E+04
 -6.24185E+03  3.68098E+04 -3.05157E+04  1.67373E+04 -3.17022E+04 -4.65317E+03 -1.82839E+04 -1.03284E+04
 -8.97720E+03 -1.49876E+04 -1.17015E+03 -1.93668E+04  8.29287E+03 -2.29997E+04  1.45288E+04 -1.27863E+04
  1.19537E+04  5.75547E+03 -9.52124E+03  1.32010E+04 -2.22719E+04 -5.33852E+03 -8.83088E+03 -3.52513E+04
  2.27494E+04 -4.40515E+04  4.97099E+04 -2.12713E+04  4.68363E+04  2.00119E+04  1.54621E+04  4.58480E+04
 -1.69583E+04  3.45824E+04 -2.61758E+04  2.15566E+03 -1.04319E+04 -2.89249E+04  2.17779E+04 -3.47204E+04
  4.26555E+04 -1.02682E+04  3.65981E+04  2.40874E+04  1.94725E+04  4.80085E+04 -8.28495E+03  5.31306E+04
 -3.25568E+04  3.48664E+04 -4.38489E+04  9.24063E+03 -4.43508E+04 -1.82025E+04 -2.38798E+04 -3.87987E+04
  7.39237E+03 -4.00686E+04  3.21710E+04 -1.67025E+04  2.98634E+04  1.15113E+04  4.71581E+03  2.05707E+04
 -1.31194E+04  8.27287E+03 -1.00780E+04 -7.96350E+03  3.93550E+03 -1.23475E+04  1.75878E+04  5.78113E+03
  1.45533E+04  2.20942E+04 -6.69982E+03  2.59693E+04 -2.31224E+04  1.27759E+04 -2.86594E+04 -3.44162E+03
 -2.23931E+04 -1.77092E+04 -9.04315E+03 -2.16828E+04  3.68612E+03 -2.05033E+04  1.64520E+04 -2.09621E+04
  2.92942E+04 -1.37579E+04  3.27510E+04  4.26854E+03  2.53045E+04  2.16912E+04  4.25184E+03  3.56625E+04
 -1.83561E+04  3.26439E+04 -2.85320E+04  1.11942E+04 -2.21999E+04 -1.03840E+04 -5.02752E+03 -1.30405E+04
  1.90093E+03 -4.01118E+03 -5.50686E+03  6.79100E+03 -1.66771E+04  4.88379E+03 -1.75191E+04 -8.06158E+03
 -1.02190E+04 -2.06368E+04  4.16683E+03 -2.40837E+04  1.66526E+04 -1.70923E+04  1.98997E+04 -4.56110E+02
  1.10593E+04  1.48804E+04 -2.06234E+03  2.02644E+04 -1.51018E+04  1.06931E+04 -2.11248E+04 -5.16634E+03
 -1.60322E+04 -1.83539E+04 -1.59678E+03 -2.31736E+04  1.04623E+04 -1.90287E+04  2.04061E+04 -9.25203E+03
  1.97507E+04 -4.68154E+01  1.43182E+04  4.33614E+03  6.94876E+03  1.15591E+03  1.03919E+04 -1.57935E+03
  1.85962E+04  1.99427E+03  2.16979E+04  1.57133E+04  1.34684E+04  3.23882E+04 -3.34392E+03  3.76980E+04
 -2.10188E+04  2.98502E+04 -3.48569E+04  1.54725E+04 -3.53115E+04 -1.82684E+03 -2.97983E+04 -2.09154E+04
 -1.09638E+04 -2.95854E+04  9.40180E+03 -2.73176E+04  2.34812E+04 -1.41183E+04  2.05448E+04  6.18631E+03
  6.48953E+03  1.57475E+04 -9.81190E+03  1.22824E+04 -1.69030E+04  2.47044E+03 -1.34742E+04 -1.13027E+04
 -1.56622E+03 -1.61943E+04  8.87520E+03 -1.31686E+04  1.01230E+04 -4.40015E+02  3.38213E+03  7.60918E+03
 -5.69222E+03  2.66985E+03 -6.41727E+03 -5.18549E+03 -1.23607E+03 -1.51565E+04  9.05590E+03 -1.52661E+04
  1.80452E+04 -7.92357E+03  2.06533E+04  3.03502E+03  1.68491E+04  1.39703E+04  8.68551E+03  2.20069E+04
 -3.46416E+03  2.49627E+04 -1.42730E+04  1.44391E+04 -1.73604E+04  3.44129E+03 -1.37299E+04 -2.91208E+03
 -6.34386E+03 -6.69538E+03 -1.08818E+03  1.12780E+03 -2.45371E+03  2.25314E+03 -6.01440E+03  4.38181E+03
 -1.19802E+04  1.30934E+03 -1.28359E+04 -1.01489E+04 -4.82307E+03 -1.57306E+04  5.34906E+03 -1.27930E+04
  1.09187E+04 -5.96392E+03  7.99988E+03  2.23294E+03 -1.28660E+03  6.07505E+03 -7.43039E+03  8.86671E+01
 -6.98012E+03 -7.94408E+03  3.76431E+02 -1.32769E+04  7.04390E+03 -1.16490E+04  1.66181E+04 -7.44364E+03
  1.86105E+04  2.14960E+03  1.44990E+04  8.46328E+03  2.04534E+03  1.44058E+04 -7.86495E+03  1.19528E+04
 -8.86627E+03  5.08852E+03 -4.44153E+03 -2.57176E+03  1.31694E+03 -3.38864E+03  6.27797E+03 -1.20815E+03
  7.38438E+03  3.60933E+03  6.00854E+02  7.97603E+03 -6.52411E+03  9.63442E+03 -1.16116E+04  1.17155E+03
 -7.10749E+03 -6.66125E+03  7.81431E+02 -9.87240E+03  6.28733E+03 -5.23458E+03  5.98549E+03  1.48163E+03
  9.74230E+02  7.74810E+03 -6.61406E+03  9.92866E+03 -9.14566E+03  3.29040E+03 -1.01316E+04 -2.34909E+03
 -5.48282E+03 -1.11092E+04  3.64829E+03 -1.23505E+04  9.56624E+03 -7.21840E+03  1.00360E+04  2.77175E+03
  7.66700E+03  7.50739E+03 -1.14286E+03  1.17904E+04 -8.83739E+03  6.94559E+03 -9.04132E+03 -1.03271E+03
 -7.81073E+03 -7.34054E+03 -2.59096E+03 -9.26701E+03  3.86323E+03 -7.89055E+03  5.67790E+03 -2.19629E+03
  3.78019E+03  1.00928E+03 -3.84275E+02  4.78537E+02 -1.16785E+03 -1.19038E+03  1.62376E+03 -5.58717E+03
  7.38242E+03 -3.36252E+03  1.06868E+04  6.95510E+02  1.06822E+04  7.44168E+03  8.32209E+03  1.41875E+04
 -2.94444E+03  1.40539E+04 -1.28991E+04  1.27257E+04 -1.63626E+04  1.17424E+03 -1.28840E+04 -5.18955E+03
 -7.74779E+03 -1.22064E+04 -1.32206E+03 -9.34732E+03  1.92410E+03 -5.86961E+03  2.29919E+03 -4.55952E+03
  1.94067E+03 -3.38201E+03  2.52789E+03 -1.65947E+03  4.44168E+03 -9.72654E+02  5.48869E+03 -1.14736E+03
  7.19743E+03  1.82149E+03  4.19662E+03  7.54181E+03 -8.77476E+02  6.63390E+03 -8.07420E+03  6.10259E+03
 -8.93129E+03 -4.15914E+02 -5.67468E+03 -6.61586E+03 -9.99454E+02 -9.34574E+03  6.29101E+03 -9.87905E+03
  8.76972E+03 -4.78767E+03  1.09621E+04  3.74377E+02  9.37643E+03  7.30478E+03  1.24358E+03  1.09432E+04
 -4.85427E+03  1.02331E+04 -8.17396E+03  3.73013E+03 -4.90232E+03 -1.50471E+03 -1.50787E+02 -1.13590E+03
 -7.96512E+02 -3.66376E+02 -6.00807E+02  2.24602E+03 -3.92188E+03  1.80769E+03 -6.62082E+03 -7.05222E+02
 -3.74874E+03 -5.74145E+03  5.49677E+02 -8.60201E+03  6.53369E+03 -7.75177E+03  8.34095E+03 -3.73324E+03
  8.37886E+03  5.51710E+03  3.99023E+03  7.95308E+03 -1.48352E+03  9.83924E+03 -6.17402E+03  4.73502E+03
 -9.10576E+03  1.95993E+02 -7.73843E+03 -5.49581E+03 -1.07924E+03 -6.26576E+03  3.90694E+03 -5.13934E+03
  4.96145E+03 -3.02449E+03  4.61392E+03 -2.99102E+02  1.77506E+03  2.07731E+03  7.44648E+02  7.42265E+02
  2.33831E+03  1.28825E+03  1.16365E+03  1.39683E+03  2.04811E+03  3.36765E+03  2.78479E+03  3.54643E+03
 -1.00091E+03  7.50278E+03 -6.23408E+03  6.30416E+03 -8.78685E+03  2.47041E+03 -8.35486E+03 -3.31640E+03
 -4.01252E+03 -8.18720E+03  2.23575E+03 -8.86154E+03  5.60859E+03 -5.50948E+03  7.47425E+03 -7.03425E+02
  4.92595E+03  2.53083E+03  1.29047E+03  5.47761E+03 -4.00442E+03  3.25231E+03 -2.93218E+03 -5.69703E+02
 -2.28359E+03 -1.58290E+03  2.04314E+03 -3.29354E+03  4.23934E+03 -1.26908E+03  3.92106E+03  1.40276E+03
  3.79291E+02  1.04999E+03 -2.95760E+02  1.67358E+03  4.91338E+02  2.28565E+03  2.62914E+03  2.00899E+02
  1.83801E+02 -1.04238E+03  4.10572E+03  1.39267E+03  1.55635E+03  4.45787E+03 -7.41504E+02  5.77913E+03
 -3.12881E+03  3.42132E+03 -2.83668E+03  9.89476E+02 -3.91786E+03 -2.45857E+03 -9.77478E+02 -1.66585E+03
 -6.69108E+02 -2.41286E+03  5.84733E+02 -1.15927E+03  2.51602E+03  3.50842E+03 -2.25084E+03  1.47800E+03
 -2.51376E+03  1.64053E+03 -3.24360E+03 -1.88912E+03 -3.21584E+03 -3.81286E+03  9.74583E+02 -4.35977E+03
  1.66568E+03 -1.59372E+03  2.43015E+03  6.67715E+02  3.21449E+03  5.02612E+02  3.96119E+02  4.30113E+03
 -1.05618E+03  1.47855E+03 -1.96172E+03 -3.55574E+02  6.76166E+02 -3.73001E+03  3.15011E+03 -1.74927E+03
  4.73093E+03  5.00823E+02  6.54174E+03  3.16716E+03  1.74780E+03  4.96431E+03 -8.83437E+02  3.40463E+03
 -3.97512E+03  3.10352E+02 -5.08659E+03  1.72280E+02 -2.53061E+03 -2.35974E+03 -5.64908E+02 -2.56699E+03
  2.92287E+03 -1.24059E+03  1.82717E+03  1.46134E+03  1.36661E+03  1.98215E+03  1.22346E+02  1.61811E+03
 -8.89009E+02  4.77413E+02 -2.56794E+03  1.48381E+03  5.43695E+02 -7.44409E+01 -8.81562E+02  1.29501E+03
 -2.51597E+03  2.31554E+03 -3.54553E+03  2.74402E+03 -4.50439E+03  4.88506E+02 -5.64654E+03 -2.93252E+03
 -1.91500E+03 -6.35652E+03  7.12374E+02 -7.56721E+03  2.96516E+03 -6.40685E+03  6.05786E+03 -2.14649E+03
  5.14048E+03  1.37226E+03  3.26915E+03  4.58088E+03 -2.70421E+02  4.41380E+03 -2.62548E+03  3.32628E+03
 -2.06222E+03  1.24365E+03 -9.43730E+02 -8.60108E+02 -6.03435E+02  3.13188E+02  7.35795E+02 -1.21533E+01
 -1.84226E+03  8.31466E+02 -1.58123E+03  8.29941E+02  2.67395E+02 -9.62873E+02 -9.56607E+02 -2.21384E+03
  3.37946E+03 -2.67920E+03  2.68715E+03 -2.13782E+02  3.26310E+03  1.35104E+03  1.14595E+03  3.80285E+03
 -1.73986E+03  4.91440E+03 -3.85956E+03  3.32040E+03 -5.63194E+03 -6.21008E+02 -3.15351E+03 -3.35970E+03
 -1.75965E+03 -3.57080E+03  1.04561E+03 -3.53114E+03  3.04328E+03 -6.60271E+02  2.55639E+03  1.24575E+03
  2.01631E+03  2.11762E+03  4.34063E+02  4.09164E+02 -6.66923E+02  7.27023E+02  1.85815E+02 -1.24939E+03
  1.41701E+03 -1.81461E+02  1.02158E+03  9.85806E+02  1.40108E+03  4.08192E+02  1.09869E+03  2.00058E+03
 -1.33212E+03  1.86068E+03 -2.26652E+02  5.95099E+02 -1.98491E+03 -1.16077E+03 -4.84199E+01 -3.46413E+03
  2.34391E+03 -1.78929E+03  2.26990E+03 -6.75512E+02  3.23576E+03 -2.12503E+02  2.78201E+03  3.53972E+03
 -9.37798E+00  3.20867E+03 -7.55476E+01  2.46075E+03 -1.95927E+03  2.31824E+03 -9.26390E+02  4.29747E+02
 -2.62980E+02 -8.46286E+02 -2.18765E+03 -5.61860E+02 -1.46359E+03  7.76890E+02 -1.61181E+03 -1.45696E+03
 -1.72014E+03 -1.18640E+03 -8.50445E+02 -2.19281E+03  9.36855E+02 -3.24704E+03  2.30512E+03 -3.05649E+02
  2.06407E+03  4.20028E+02  1.91398E+03  1.96194E+03 -1.15442E+02  2.26516E+03 -1.97517E+03  1.91792E+03
