 $NMID ID='MM_0lb_SNR200_15hz_g45_96.RAW', FMTDAT='(8E13.5)'
 TRAMP=1., VOLUME=1. $END
  3.10039E+05 -7.99962E+00  3.37387E+05  2.49900E+05  8.40404E+04  3.36771E+05 -1.33161E+05  2.50027E+05
 -1.90713E+05  8.29846E+04 -1.11719E+05 -3.28719E+04  2.18836E+03 -5.07884E+04  5.31532E+04 -1.00211E+03
  3.47737E+04  5.23792E+04 -1.77572E+04  7.60478E+04 -6.05210E+04  6.32147E+04 -8.37611E+04  3.12711E+04
 -7.96279E+04 -1.06824E+04 -5.66182E+04 -4.87654E+04 -1.55628E+04 -7.02717E+04  2.71941E+04 -4.53853E+04
  3.90325E+04  4.36842E+03  1.60318E+04  4.65091E+04 -3.47104E+04  4.61477E+04 -6.57065E+04 -2.06662E+02
 -5.30640E+04 -5.75664E+04 -6.13391E+03 -7.69170E+04  3.40816E+04 -5.36868E+04  4.79451E+04 -1.74085E+04
  4.26442E+04  1.15465E+04  3.04513E+04  2.45751E+04  1.68929E+04  2.95501E+04 -4.64347E+03  2.78026E+04
 -2.27057E+04  1.22963E+04 -1.84808E+04 -4.83884E+03  6.06039E+03 -7.67651E+03  2.24482E+04  1.11940E+04
  7.55754E+03  3.51397E+04 -3.14587E+04  3.53601E+04 -6.31894E+04  2.30178E+03 -5.64958E+04 -4.38441E+04
 -1.21240E+04 -6.29232E+04  3.94343E+04 -4.57001E+04  5.75315E+04 -1.31335E+03  3.29687E+04  3.20897E+04
 -6.21023E+03  3.50669E+04 -3.02582E+04  1.46976E+04 -2.92684E+04 -5.47394E+03 -1.54598E+04 -1.05447E+04
 -8.20558E+03 -1.25884E+04  1.30509E+02 -1.91520E+04  6.86721E+03 -2.42972E+04  1.58704E+04 -1.27329E+04
  1.04511E+04  4.28284E+03 -7.55221E+03  1.30509E+04 -2.06592E+04 -4.36274E+03 -8.47083E+03 -3.26434E+04
  2.12724E+04 -4.23569E+04  4.77373E+04 -1.84622E+04  4.31330E+04  1.86952E+04  1.46014E+04  4.45077E+04
 -1.43243E+04  3.37886E+04 -2.48134E+04  1.67899E+03 -8.32346E+03 -2.81352E+04  2.09111E+04 -3.28767E+04
  4.09888E+04 -8.32546E+03  3.35070E+04  2.40156E+04  1.66764E+04  4.40630E+04 -8.40121E+03  4.88880E+04
 -2.94850E+04  3.24036E+04 -3.95960E+04  8.88166E+03 -4.12010E+04 -1.61401E+04 -2.17608E+04 -3.72681E+04
  7.17085E+03 -3.61675E+04  3.08960E+04 -1.38010E+04  2.71073E+04  9.94358E+03  3.70415E+03  1.77483E+04
 -1.37971E+04  7.36196E+03 -9.11683E+03 -8.68998E+03  5.16344E+03 -1.01693E+04  1.72196E+04  6.08234E+03
  1.25771E+04  2.25311E+04 -6.49931E+03  2.47291E+04 -2.09226E+04  1.05064E+04 -2.69106E+04 -5.03612E+03
 -1.91829E+04 -1.74529E+04 -8.33979E+03 -1.94995E+04  3.64322E+03 -1.84326E+04  1.44098E+04 -1.68925E+04
  2.59233E+04 -1.28664E+04  3.23552E+04  1.86276E+03  2.34432E+04  1.72239E+04  5.10131E+03  3.54105E+04
 -1.62941E+04  2.94296E+04 -2.64140E+04  1.00620E+04 -2.00359E+04 -1.04626E+04 -5.27119E+03 -1.34244E+04
  1.89712E+03 -3.08255E+03 -4.92425E+03  5.21184E+03 -1.41314E+04  5.32016E+03 -1.57492E+04 -5.75463E+03
 -9.96053E+03 -1.79106E+04  5.37168E+03 -2.20877E+04  1.53526E+04 -1.72758E+04  1.67564E+04 -1.49880E+03
  1.12131E+04  1.18917E+04 -9.37160E+02  1.74915E+04 -1.29316E+04  9.98876E+03 -1.79510E+04 -3.96967E+03
 -1.39158E+04 -1.67605E+04 -2.11035E+03 -2.08403E+04  9.90660E+03 -1.81863E+04  1.89882E+04 -9.10252E+03
  1.60194E+04 -5.32771E+02  1.17482E+04  4.64005E+03  6.09726E+03  5.21384E+02  9.27304E+03 -1.58033E+03
  1.63434E+04  2.28614E+03  1.88124E+04  1.50036E+04  1.21086E+04  2.92285E+04 -3.81112E+03  3.33351E+04
 -1.86905E+04  2.58571E+04 -2.95093E+04  1.21598E+04 -3.02371E+04 -1.06565E+03 -2.59956E+04 -1.82739E+04
 -1.20772E+04 -2.52705E+04  8.95051E+03 -2.26181E+04  2.10862E+04 -1.16780E+04  1.87395E+04  5.66143E+03
  6.93653E+03  1.44368E+04 -8.50465E+03  1.11566E+04 -1.45795E+04  2.65087E+03 -1.13158E+04 -9.03749E+03
  4.30556E+02 -1.43818E+04  7.72113E+03 -1.04154E+04  9.61436E+03 -1.51879E+02  2.40460E+03  6.70994E+03
 -6.45080E+03  1.79867E+03 -5.17870E+03 -4.60776E+03  5.30894E+01 -1.30815E+04  8.42303E+03 -1.28915E+04
  1.53980E+04 -6.35102E+03  1.64475E+04  3.36551E+03  1.35731E+04  1.23637E+04  6.74449E+03  1.81251E+04
 -4.05631E+03  2.04697E+04 -1.34106E+04  1.26770E+04 -1.44110E+04  3.31728E+03 -1.03015E+04 -3.59556E+03
 -4.88466E+03 -4.94509E+03 -1.01710E+03  1.21649E+03 -1.58889E+03  2.04220E+03 -4.26716E+03  4.05969E+03
 -1.02616E+04 -1.02166E+03 -1.03573E+04 -7.78037E+03 -4.54328E+03 -1.24901E+04  3.29163E+03 -1.08087E+04
  8.69071E+03 -4.84950E+03  5.93081E+03  3.15329E+03  6.92351E+02  4.31275E+03 -4.51775E+03 -2.68893E+02
 -3.78054E+03 -6.81744E+03 -5.18166E+02 -8.50359E+03  5.15287E+03 -1.01119E+04  1.19880E+04 -4.21806E+03
  1.47244E+04  3.34898E+02  1.08343E+04  8.14435E+03  1.96577E+03  1.16139E+04 -5.69777E+03  8.71733E+03
 -8.63319E+03  2.17874E+03 -5.44011E+03 -2.17174E+03  1.22411E+03 -2.81694E+03  5.69011E+03 -2.42632E+03
  5.72152E+03  2.88134E+03  1.77517E+03  8.67121E+03 -4.76161E+03  8.45709E+03 -9.84884E+03  1.44931E+03
 -6.79958E+03 -5.72637E+03  1.42611E+03 -9.72457E+03  4.38406E+03 -3.70249E+03  4.00924E+03  2.04710E+03
  1.22713E+03  4.39102E+03 -4.52347E+03  6.09906E+03 -9.04675E+03  3.31296E+03 -6.65018E+03 -2.99606E+03
 -3.90083E+03 -8.63179E+03  1.29258E+03 -1.10667E+04  8.71338E+03 -5.79244E+03  9.05245E+03  1.69555E+03
  6.62606E+03  7.53710E+03 -4.94450E+02  1.07257E+04 -7.56741E+03  5.18111E+03 -7.21501E+03 -1.03117E+03
 -6.33190E+03 -6.88075E+03 -1.10406E+03 -6.35599E+03  3.63365E+03 -6.36571E+03  4.08914E+03 -2.53539E+03
  2.46642E+03  8.01748E+02 -3.33770E+02 -2.08683E+02  2.98353E+02 -1.25015E+03  7.79816E+02 -3.98074E+03
  6.36788E+03 -8.25875E+02  9.06518E+03  8.17883E+02  8.22181E+03  5.40788E+03  6.73118E+03  1.09530E+04
 -2.86828E+03  1.20188E+04 -1.08172E+04  8.26830E+03 -1.42414E+04  1.81469E+03 -1.06109E+04 -4.18436E+03
 -5.17286E+03 -9.37884E+03  1.62469E+02 -8.23303E+03  3.24716E+03 -3.44971E+03  2.59180E+03 -1.46205E+03
  1.70066E+03 -2.61336E+03  3.16609E+03 -2.48619E+03  3.48844E+03 -1.81477E+03  5.14654E+03  8.69133E+01
  6.17000E+03  1.98607E+03  2.12958E+03  5.15355E+03 -1.62430E+03  4.94933E+03 -5.92559E+03  4.67833E+03
 -7.99093E+03 -6.71847E+02 -2.49515E+03 -5.41423E+03  1.07805E+02 -8.81758E+03  4.17681E+03 -8.38226E+03
  7.91361E+03 -4.74933E+03  8.68636E+03  1.45372E+03  6.92092E+03  5.40243E+03  3.88996E+02  9.87778E+03
 -3.39441E+03  8.43479E+03 -5.89885E+03  2.79541E+03 -2.40596E+03 -1.40740E+03  2.10262E+02 -6.37747E+02
  2.22324E+02  7.40557E+02 -1.27569E+03  2.24833E+03 -2.75119E+03  3.19111E+02 -5.61577E+03 -9.07530E+02
 -3.92408E+03 -5.75829E+03  3.47296E+02 -5.91808E+03  4.09016E+03 -6.59673E+03  5.84323E+03 -1.94247E+03
  5.87830E+03  4.43533E+03  1.70211E+03  6.10429E+03 -8.82789E+02  6.50309E+03 -4.92203E+03  3.99879E+03
 -6.44124E+03  6.69809E+02 -5.99007E+03 -3.63554E+03 -2.45954E+02 -6.29375E+03  2.35515E+03 -3.87670E+03
  4.68454E+03 -1.88168E+03  3.13186E+03 -4.17767E+02  1.25251E+03  2.39999E+03  1.58699E+03  1.08805E+03
  2.33305E+03  9.20122E+02  2.00146E+03  3.51227E+02  2.19409E+03  2.21195E+03  4.40785E+02  4.28518E+03
 -1.13701E+03  4.75198E+03 -4.19986E+03  6.11502E+03 -7.13838E+03  2.22655E+03 -6.82487E+03 -1.35308E+03
 -2.86858E+03 -6.67062E+03  7.40391E+02 -7.02723E+03  3.90752E+03 -3.87209E+03  5.07870E+03 -1.79670E+03
  3.49029E+03  2.41233E+03  9.18257E+02  4.25121E+03 -1.50798E+03  1.30445E+03 -2.31827E+03 -8.03066E+02
 -7.75400E+02 -2.78127E+03  2.29297E+03 -2.17358E+03  3.83917E+03 -1.58430E+03  2.47724E+03  5.78826E+02
  1.43028E+03  1.19188E+03  1.77468E+02  2.65110E+02 -1.69859E+02  2.55325E+03  1.21947E+03  2.08733E+02
  1.04955E+03 -1.30843E+03  2.13565E+03  1.35346E+03  4.15490E+02  3.80052E+03 -1.09557E+03  4.43365E+03
 -2.87022E+03  1.34408E+03 -4.29210E+03  9.20763E+02 -4.66589E+03 -2.12931E+03 -1.64337E+02 -2.08365E+03
  8.89542E+01 -1.12716E+03  1.37027E+03 -1.56523E+03  3.99370E+02  1.50836E+03  2.76889E+02  1.33486E+03
 -2.97061E+03  9.62854E+02 -2.05639E+03 -1.73585E+03 -2.20321E+03 -3.24651E+03  1.13674E+03 -2.93862E+03
  2.30268E+03 -2.47959E+03  3.11564E+03 -9.27454E+02  2.34045E+03 -1.68452E+02  5.82780E+02  1.72364E+03
  3.40992E+02 -8.60321E+01 -1.40173E+03 -1.62780E+03  9.93513E+01 -2.71577E+03  3.71327E+03 -2.10507E+03
  2.06884E+03 -8.69943E+01  5.29425E+03  1.57718E+03  1.51979E+03  2.80599E+03 -3.80661E+02  3.86448E+03
 -3.82408E+03  1.72777E+03 -3.47352E+03 -1.66130E+03 -2.30870E+03 -1.81734E+03  2.11816E+03 -1.39676E+03
  1.78002E+03 -4.65825E+02  1.63527E+03  1.40606E+03  1.23809E+03  3.61998E+03  1.04248E+03  1.04321E+03
 -9.62193E+02  1.07279E+03 -1.77488E+03 -4.78148E+02 -1.00251E+03 -6.91162E+01 -8.52694E+02  7.63200E+02
 -6.92690E+02  5.40299E+02 -1.85192E+03  7.03204E+02 -4.69974E+03  7.11136E+02 -5.41557E+03 -2.41457E+03
 -2.72208E+03 -4.83818E+03  1.10953E+03 -5.45429E+03  2.60419E+03 -4.57117E+03  5.28909E+03 -1.77940E+03
  5.73212E+03  6.15654E+02  2.38761E+03  2.93509E+03 -5.21014E+02  3.64661E+03 -1.09816E+03  1.73633E+03
  8.35284E+01  2.40861E+03 -1.19106E+03 -1.09114E+03 -9.83181E+02  7.37038E+02 -8.56219E+02 -4.57789E+02
 -2.83350E+03 -8.38077E+01 -3.34855E+02  8.94421E+02  4.53120E+01 -1.48967E+03 -8.33125E+02 -1.96885E+03
  1.88594E+03 -1.10663E+03 -4.30371E+02 -2.04751E+01  2.24221E+03  1.04531E+03  1.30462E+03  2.48662E+03
 -1.85071E+03  5.74743E+03 -4.79023E+03  2.22020E+03 -4.37634E+03 -2.08972E+02 -2.26040E+03 -2.62208E+03
 -2.09916E+03 -2.78216E+03  9.83556E+02 -2.96201E+03  2.04159E+03 -1.25433E+03  1.45850E+03  1.05198E+03
  2.14943E+03  5.97540E+02  1.63163E+00  4.81126E+02 -1.11100E+03  3.85035E+02 -5.96486E+02 -1.68392E+03
  1.32030E+03  3.20492E+02  9.05460E+02  5.96169E+02  7.18355E+02  4.22081E+02 -2.15403E+02  1.70636E+03
 -6.49518E+02  2.33645E+03 -2.04993E+03  2.27443E+02 -1.28565E+03 -9.71557E+02  1.54942E+02 -2.05414E+03
  7.82486E+02 -3.05978E+03  2.04559E+03  2.71202E+02  2.33920E+03 -3.00846E+01  1.56089E+03  1.73091E+03
  6.92969E+02  6.69690E+02 -2.17070E+03  1.53706E+02 -1.65395E+03  4.15164E+01 -1.59803E+03  5.90426E+02
 -6.81170E+02 -1.03784E+02 -2.11430E+03  9.20614E+02 -2.55033E+03  4.88229E+02 -2.02134E+03  3.45264E+02
 -3.68573E+03  1.60736E+02 -9.63134E+02 -2.51240E+03  8.21113E+02 -2.01627E+03  2.15514E+03 -1.42943E+02
  1.84505E+03  4.38882E+01 -6.36078E+00  1.38402E+03  7.19596E+02  9.52908E+02 -8.60353E+02  1.46082E+03
