 $NMID ID='MM_0lb_SNR200_16hz_g60_25.RAW', FMTDAT='(8E13.5)'
 TRAMP=1., VOLUME=1. $END
  3.09701E+05 -3.05991E+02  3.37562E+05  2.51596E+05  8.39032E+04  3.38471E+05 -1.33656E+05  2.51511E+05
 -1.90480E+05  8.29683E+04 -1.11895E+05 -3.33125E+04  9.05804E+02 -5.16961E+04  5.46529E+04  2.58924E+02
  3.37059E+04  5.23849E+04 -1.71664E+04  7.62465E+04 -6.13262E+04  6.49577E+04 -8.46329E+04  3.18675E+04
 -8.23561E+04 -1.10791E+04 -5.81142E+04 -5.17887E+04 -1.46393E+04 -6.95148E+04  2.75580E+04 -4.62740E+04
  4.05517E+04  4.03955E+03  1.72627E+04  4.80533E+04 -3.57746E+04  4.63383E+04 -6.77015E+04 -7.11731E+02
 -5.45948E+04 -5.68617E+04 -6.90005E+03 -7.54160E+04  3.46828E+04 -5.48250E+04  4.77518E+04 -1.77433E+04
  4.31843E+04  1.08955E+04  3.24632E+04  2.48211E+04  1.70855E+04  2.87634E+04 -5.61451E+03  2.81365E+04
 -2.17401E+04  1.18289E+04 -1.82344E+04 -4.71430E+03  5.24002E+03 -6.90922E+03  2.32117E+04  1.36690E+04
  6.89225E+03  3.55944E+04 -3.19966E+04  3.57556E+04 -6.28247E+04  2.83343E+03 -5.74204E+04 -4.18829E+04
 -1.19179E+04 -6.26358E+04  3.94966E+04 -4.61243E+04  5.82719E+04 -1.98991E+03  3.38871E+04  3.14709E+04
 -6.89262E+03  3.62364E+04 -2.95988E+04  1.65421E+04 -3.12203E+04 -4.67301E+03 -1.76925E+04 -1.12724E+04
 -9.72616E+03 -1.41091E+04 -1.12276E+03 -1.74487E+04  7.84280E+03 -2.23521E+04  1.57195E+04 -1.28365E+04
  1.21469E+04  5.14447E+03 -8.35044E+03  1.28638E+04 -2.23872E+04 -2.84674E+03 -8.29219E+03 -3.31999E+04
  2.25342E+04 -4.30759E+04  4.77268E+04 -1.90795E+04  4.53209E+04  1.94978E+04  1.56760E+04  4.47958E+04
 -1.49623E+04  3.40288E+04 -2.59052E+04  1.70434E+03 -9.49216E+03 -2.81693E+04  2.15889E+04 -3.32677E+04
  3.99481E+04 -8.52012E+03  3.58762E+04  2.47041E+04  1.87480E+04  4.64700E+04 -8.07866E+03  5.07891E+04
 -3.04472E+04  3.37535E+04 -4.12291E+04  9.30034E+03 -4.17317E+04 -1.73461E+04 -2.12876E+04 -3.69314E+04
  6.67728E+03 -3.72873E+04  3.23996E+04 -1.45881E+04  2.85532E+04  1.08459E+04  4.28876E+03  1.90706E+04
 -1.42641E+04  8.68295E+03 -1.03104E+04 -7.21815E+03  6.68542E+03 -1.07556E+04  1.80916E+04  5.31764E+03
  1.34260E+04  2.10336E+04 -5.64408E+03  2.56493E+04 -2.23747E+04  1.05428E+04 -2.77005E+04 -5.29006E+03
 -2.01305E+04 -1.82091E+04 -8.52687E+03 -1.92088E+04  3.55373E+03 -1.93456E+04  1.53991E+04 -1.79339E+04
  2.58955E+04 -1.19243E+04  3.19790E+04  3.30479E+03  2.27697E+04  2.04727E+04  3.42047E+03  3.68257E+04
 -1.74121E+04  3.14932E+04 -2.73289E+04  1.06557E+04 -2.16221E+04 -1.00424E+04 -5.28194E+03 -1.35859E+04
  2.60084E+03 -3.42087E+03 -4.64183E+03  6.83433E+03 -1.68607E+04  4.84445E+03 -1.59090E+04 -7.02079E+03
 -9.67006E+03 -1.85144E+04  4.86323E+03 -2.20082E+04  1.58647E+04 -1.62993E+04  1.68770E+04 -2.71047E+03
  1.18953E+04  1.25069E+04 -9.18674E+02  1.89590E+04 -1.30123E+04  9.83596E+03 -1.84799E+04 -4.54546E+03
 -1.32721E+04 -1.75480E+04 -2.67989E+03 -2.27050E+04  1.01932E+04 -1.92798E+04  1.91475E+04 -7.94192E+03
  1.72660E+04  9.82773E+02  1.25287E+04  4.65670E+03  7.61203E+03  1.80508E+03  9.01850E+03 -1.80157E+03
  1.73707E+04  1.99566E+03  1.74980E+04  1.50744E+04  1.24863E+04  2.90152E+04 -2.92137E+03  3.24791E+04
 -1.93149E+04  2.73762E+04 -3.05816E+04  1.31737E+04 -3.19824E+04 -3.44145E+03 -2.80067E+04 -1.78917E+04
 -1.07397E+04 -2.62683E+04  9.69071E+03 -2.39119E+04  2.03762E+04 -1.25116E+04  1.78347E+04  5.44414E+03
  7.78118E+03  1.51743E+04 -1.07111E+04  1.22957E+04 -1.48413E+04  2.09630E+03 -1.23656E+04 -9.79501E+03
  3.17577E+02 -1.53068E+04  8.58723E+03 -1.07457E+04  1.04027E+04 -1.45714E+03  1.78871E+03  6.48007E+03
 -5.44158E+03  2.87484E+03 -5.97095E+03 -5.93338E+03 -4.91396E+02 -1.19243E+04  8.43557E+03 -1.23394E+04
  1.54492E+04 -7.77319E+03  1.69233E+04  2.70349E+03  1.58884E+04  1.24859E+04  8.73252E+03  1.92515E+04
 -3.16054E+03  2.07555E+04 -1.19081E+04  1.38747E+04 -1.59923E+04  2.89836E+03 -1.13272E+04 -2.35673E+03
 -3.80695E+03 -6.00857E+03 -1.46333E+03  9.93143E+02 -1.78362E+03  3.07055E+03 -4.46928E+03  4.96226E+03
 -1.03090E+04 -7.45319E+02 -1.04234E+04 -7.52131E+03 -3.68655E+03 -1.42072E+04  5.70791E+03 -1.09205E+04
  1.01924E+04 -4.92242E+03  6.84479E+03  2.82824E+03  1.16070E+03  4.69778E+03 -5.75797E+03  2.66259E+02
 -5.13285E+03 -5.30419E+03 -6.62403E+02 -9.84137E+03  6.77719E+03 -9.82883E+03  1.35414E+04 -4.86204E+03
  1.55944E+04  1.27721E+03  1.16962E+04  8.65255E+03  2.05879E+03  1.12638E+04 -6.58941E+03  9.98542E+03
 -8.61102E+03  3.38975E+03 -5.37368E+03 -8.92356E+02  2.17690E+03 -2.73239E+03  5.47595E+03 -5.90449E+02
  5.98718E+03  3.74200E+03  5.36362E+02  7.12811E+03 -5.69423E+03  8.46069E+03 -1.01573E+04  3.36506E+03
 -5.86371E+03 -6.08233E+03 -2.32884E+02 -8.13165E+03  4.54093E+03 -4.71103E+03  5.12390E+03  5.99752E+02
  1.47742E+03  5.97842E+03 -4.36105E+03  6.69208E+03 -7.91696E+03  3.61831E+03 -7.67139E+03 -3.09461E+03
 -4.61034E+03 -9.61087E+03  1.56395E+03 -9.68043E+03  8.51760E+03 -7.32290E+03  9.39670E+03  1.50888E+03
  4.75419E+03  7.30124E+03 -1.23163E+03  9.12147E+03 -7.31092E+03  4.77527E+03 -6.76727E+03 -3.90459E+02
 -6.68803E+03 -6.95823E+03 -1.44718E+03 -6.35977E+03  3.90748E+03 -6.52523E+03  4.68610E+03 -3.19217E+03
  3.24908E+03  3.91554E+02  2.51340E+02  7.63978E+02  1.12689E+03 -5.70203E+02  1.86198E+02 -2.83346E+03
  5.09423E+03 -1.96541E+03  7.25160E+03  8.20248E+02  8.66118E+03  4.88192E+03  6.64774E+03  1.14256E+04
 -2.94459E+03  1.35274E+04 -1.01210E+04  8.56999E+03 -1.44034E+04  8.97292E+02 -1.16984E+04 -4.57094E+03
 -5.53088E+03 -9.20231E+03 -8.39284E+02 -8.38073E+03  2.81446E+03 -4.06690E+03  2.41340E+03 -3.78086E+03
  1.75947E+03 -9.75346E+02  3.20571E+03 -3.81717E+03  4.18618E+03 -1.61985E+03  4.58543E+03 -9.49007E+02
  6.23162E+03  1.90656E+03  1.58131E+03  5.72338E+03 -1.42048E+03  4.79811E+03 -7.14848E+03  3.40309E+03
 -7.36170E+03 -2.92513E+02 -3.95415E+03 -5.37750E+03 -3.59802E+02 -7.47257E+03  4.84488E+03 -7.24548E+03
  8.20137E+03 -4.43489E+03  1.12209E+04 -7.16375E+01  6.68036E+03  6.80445E+03  1.46818E+03  8.36143E+03
 -2.66806E+03  9.66737E+03 -4.40408E+03  2.03717E+03 -4.34516E+03  7.47494E+02 -1.02852E+03 -9.74554E+02
 -6.15715E+02  8.40874E+02 -1.16189E+03  1.78804E+03 -2.98823E+03  1.55179E+03 -5.42002E+03  7.57260E+01
 -3.08883E+03 -5.43260E+03  4.29146E+02 -6.87011E+03  2.84909E+03 -7.10246E+03  6.04467E+03 -2.20636E+03
  7.15777E+03  4.47338E+03  3.78724E+03  5.46204E+03 -1.25328E+03  6.25556E+03 -4.75402E+03  2.77044E+03
 -5.80480E+03  1.02776E+03 -4.08403E+03 -3.94749E+03 -6.65174E+02 -4.79397E+03  1.71614E+03 -3.64062E+03
  3.06647E+03 -1.51394E+03  3.49964E+03  1.75752E+03  5.03816E+02  2.62543E+03 -2.74621E+01  3.77970E+02
  2.14105E+03  1.29608E+02  3.04457E+03  9.04753E+02  1.37936E+03  3.31851E+03  1.57995E+03  3.09164E+03
 -1.90794E+03  4.58796E+03 -5.55956E+03  5.31576E+03 -6.26149E+03  1.54448E+03 -7.19626E+03 -1.56982E+03
 -2.78119E+03 -6.13478E+03  1.89504E+03 -6.47887E+03  3.60195E+03 -4.10836E+03  5.31208E+03 -2.37347E+03
  3.66554E+03  2.46985E+03  1.53674E+03  2.67308E+03 -9.79840E+02  2.03940E+03 -1.42456E+03 -9.49401E+02
 -1.16314E+03 -1.17322E+03  1.26202E+03 -3.00558E+03  1.63496E+03 -1.58097E+03  1.80608E+03  6.23332E+01
  1.36989E+03  1.54326E+03  1.83927E+03  6.06643E+02  6.82288E+02  2.81950E+02  2.71562E+03  1.16659E+02
  3.18901E+02 -7.32610E+01  3.52646E+03  1.95080E+03  1.22019E+03  2.36396E+03 -9.08534E+02  5.80767E+03
 -3.81963E+03  2.43619E+03 -3.09720E+03  7.96724E+02 -2.27136E+03 -1.36722E+02 -4.32628E+02 -8.71557E+02
  4.19691E+02 -2.26252E+03  1.81835E+03 -1.37039E+03  8.73919E+02  5.18274E+02 -1.73507E+02  2.89209E+03
 -2.39121E+03  1.34290E+03 -2.49917E+03 -1.03259E+03 -1.33011E+03 -3.24952E+03 -1.35534E+02 -2.61286E+03
  1.91378E+03 -7.74916E+02  2.01373E+03  5.23017E+02  1.50077E+03 -3.76243E+02  7.78970E+02  2.57185E+03
 -1.78754E+03  1.46793E+03 -2.01065E+03 -3.59143E+02  5.90372E+02 -1.70096E+03  4.42289E+03 -1.04532E+03
  3.24830E+03 -3.58112E+02  4.42288E+03  6.26506E+02  1.07508E+03  3.50083E+03 -5.77676E+02  2.87240E+03
 -3.67184E+03  6.24734E+02 -2.30157E+03 -1.03413E+03 -8.12290E+02 -7.63195E+02 -2.48381E+01 -1.46799E+03
  1.89905E+03 -9.41709E+02  3.19559E+03  1.36314E+03 -5.82728E+01  2.83724E+03 -2.87098E+02  1.99189E+03
 -1.84948E+03  2.51709E+03 -1.93205E+03  7.06558E+02 -6.11112E+02  1.32183E+03 -7.42978E+01 -1.96272E+01
 -1.69136E+03  1.33797E+03 -3.49166E+03  1.28426E+03 -2.63485E+03  1.71149E+03 -3.36087E+03 -2.24013E+03
 -6.04799E+02 -3.74569E+03 -8.64057E+02 -5.63790E+03  2.33535E+03 -3.54823E+03  5.13625E+03 -2.06570E+03
  4.39085E+03 -8.51684E+01  2.45648E+03  2.57158E+03  2.22485E+02  2.05493E+03 -4.59431E+02  1.79457E+03
 -1.51475E+03  2.92916E+02 -5.66567E+02 -4.51914E+02 -1.22058E+03  7.33637E+02 -3.87814E+02  1.13631E+02
 -1.31072E+03  3.40907E+02 -1.38797E+03 -3.78978E+02  4.90493E+02 -9.88877E+02  4.86008E+00 -1.98737E+03
  1.20885E+03  6.37597E+02  1.85268E+03 -1.01616E+02  1.64702E+03  8.76815E+02 -7.15018E+02  2.37980E+03
 -1.36362E+03  3.82091E+03 -2.98808E+03  1.67966E+03 -2.45735E+03 -1.38879E+03 -1.70394E+03 -2.36091E+03
 -4.82205E+02 -3.50851E+03  7.83047E+02 -1.97995E+03  2.07421E+03 -4.21043E+02  1.21570E+03  1.17919E+03
  1.00041E+03 -7.86103E+01 -1.45287E+03  1.43801E+03  2.94477E+02 -6.78417E+02  1.91418E+02 -1.78796E+02
  1.75956E+03  4.09217E+02  8.31608E+02  9.36336E+02 -7.71400E+02  2.85921E+03  3.99454E+02  1.98403E+03
 -2.19366E+03  4.21156E+02 -1.27628E+03 -1.53555E+02 -1.05914E+03 -5.04677E+01  3.33103E+02 -1.96168E+03
  9.95619E+02 -2.17860E+03  9.44816E+02  7.94220E+02  6.91774E+02 -8.65275E+02  9.84678E+02  2.02340E+03
  1.43896E+03  1.16583E+03 -2.92774E+02  1.33465E+03  4.96030E+01  8.27344E+02 -5.81368E+02  4.04211E+02
  4.09104E+02  4.05007E+02 -2.11839E+03  1.77050E+03  1.23269E+02  4.30422E+02 -9.38735E+02 -5.65140E+02
 -1.24040E+03 -4.89958E+02 -2.13147E+02 -4.81523E+02  3.55341E+02 -1.94647E+03  1.73313E+03  2.20985E+02
  1.48527E+03 -8.87631E+02  6.09386E+02  8.75294E+02  4.20280E+01  1.85780E+03 -6.55116E+02  2.28345E+03
