 $NMID ID='MM_0lb_SNR200_9hz_g50_91.RAW', FMTDAT='(8E13.5)'
 TRAMP=1., VOLUME=1. $END
  3.09472E+05 -1.65282E+02  3.37008E+05  2.49778E+05  8.40637E+04  3.38161E+05 -1.30555E+05  2.53956E+05
 -1.90422E+05  8.24380E+04 -1.12774E+05 -3.12554E+04  1.67934E+02 -5.13260E+04  5.49638E+04 -4.40334E+02
  3.57087E+04  5.25376E+04 -1.63002E+04  7.64569E+04 -5.95979E+04  6.42211E+04 -8.58823E+04  3.38274E+04
 -8.35603E+04 -1.21295E+04 -5.94422E+04 -5.06177E+04 -1.52919E+04 -7.12850E+04  2.90683E+04 -4.70948E+04
  4.09379E+04  5.03655E+03  1.85446E+04  4.82317E+04 -3.57143E+04  4.92468E+04 -6.94586E+04  5.69679E+02
 -5.34108E+04 -5.78733E+04 -6.97873E+03 -7.96069E+04  3.45692E+04 -5.72397E+04  4.93971E+04 -1.76940E+04
  4.61009E+04  1.24070E+04  3.25031E+04  2.56976E+04  1.74786E+04  3.06136E+04 -4.22881E+03  2.72336E+04
 -2.42306E+04  1.30659E+04 -1.81760E+04 -6.08219E+03  7.07117E+03 -7.74601E+03  2.40467E+04  1.25975E+04
  6.73921E+03  3.65329E+04 -3.48009E+04  3.54523E+04 -6.55924E+04  2.28335E+03 -5.96431E+04 -4.60305E+04
 -1.36187E+04 -6.62372E+04  4.23073E+04 -4.68155E+04  6.07822E+04 -9.53319E+02  3.77716E+04  3.47115E+04
 -5.85994E+03  3.94437E+04 -3.28384E+04  1.76793E+04 -3.44236E+04 -3.87341E+03 -1.83376E+04 -1.30212E+04
 -8.55512E+03 -1.46092E+04 -9.50734E+01 -1.84975E+04  8.19772E+03 -2.32470E+04  1.57020E+04 -1.39945E+04
  1.19194E+04  6.76023E+03 -1.07585E+04  1.34346E+04 -2.37545E+04 -6.25428E+03 -8.24246E+03 -3.74686E+04
  2.52415E+04 -4.60138E+04  5.26498E+04 -2.01495E+04  5.01191E+04  1.99742E+04  1.66231E+04  4.71122E+04
 -1.81131E+04  3.62285E+04 -2.84913E+04  2.01077E+03 -1.22392E+04 -2.98020E+04  1.96297E+04 -3.76024E+04
  4.31123E+04 -1.07376E+04  3.97642E+04  2.57917E+04  2.23883E+04  5.15556E+04 -8.46004E+03  5.51283E+04
 -3.48715E+04  3.82448E+04 -4.73582E+04  9.39744E+03 -4.74972E+04 -1.91711E+04 -2.55078E+04 -4.09635E+04
  6.64960E+03 -4.06618E+04  3.33874E+04 -1.66188E+04  3.23241E+04  1.01229E+04  3.59616E+03  2.15071E+04
 -1.40279E+04  1.22117E+04 -1.10559E+04 -7.87131E+03  6.39206E+03 -1.07982E+04  1.96199E+04  5.97599E+03
  1.48820E+04  2.26183E+04 -4.61798E+03  2.77227E+04 -2.17729E+04  1.37649E+04 -3.24866E+04 -1.05587E+03
 -2.48238E+04 -1.99793E+04 -1.23750E+04 -2.43005E+04  4.89244E+03 -2.54863E+04  1.99765E+04 -2.22166E+04
  3.21152E+04 -1.21898E+04  3.70978E+04  3.39228E+03  2.66432E+04  2.38327E+04  5.55899E+03  4.16541E+04
 -1.85749E+04  3.49133E+04 -3.02686E+04  1.35129E+04 -2.24690E+04 -1.04914E+04 -4.82660E+03 -1.37408E+04
  6.56628E+02 -2.77505E+03 -6.86023E+03  9.00456E+03 -2.03360E+04  5.25082E+03 -1.99943E+04 -8.03075E+03
 -1.16094E+04 -2.36773E+04  6.28239E+03 -2.68326E+04  1.96619E+04 -1.91510E+04  2.25091E+04 -1.18576E+03
  1.37944E+04  1.58563E+04 -7.29652E+02  2.23183E+04 -1.49866E+04  1.36062E+04 -2.37438E+04 -3.29697E+03
 -1.68468E+04 -2.14849E+04 -4.50881E+03 -2.79254E+04  1.21493E+04 -2.49602E+04  2.46865E+04 -1.05962E+04
  2.19483E+04 -9.50229E+02  1.57906E+04  6.34391E+03  8.69565E+03  1.69449E+03  1.25099E+04 -2.11842E+02
  2.14382E+04  2.23392E+03  2.57431E+04  1.77334E+04  1.74890E+04  3.71673E+04 -3.69100E+03  4.40663E+04
 -2.41660E+04  3.63749E+04 -4.17563E+04  1.97097E+04 -4.55701E+04 -2.72268E+03 -3.68000E+04 -2.57000E+04
 -1.36811E+04 -3.67699E+04  1.36817E+04 -3.30861E+04  2.70899E+04 -1.53068E+04  2.50901E+04  8.05830E+03
  9.34768E+03  1.83628E+04 -1.27562E+04  1.71538E+04 -1.98882E+04  2.03353E+03 -1.52019E+04 -1.31974E+04
  4.50085E+02 -1.85184E+04  9.77271E+03 -1.45689E+04  1.27569E+04 -9.28501E+02  4.21225E+03  7.94679E+03
 -8.74052E+03  5.07893E+03 -9.06951E+03 -7.44089E+03 -8.34488E+02 -1.77406E+04  1.01944E+04 -2.08210E+04
  2.29694E+04 -1.11685E+04  2.64132E+04  3.47385E+03  2.21305E+04  2.02554E+04  8.97429E+03  2.90412E+04
 -5.84172E+03  3.04729E+04 -2.14115E+04  1.86703E+04 -2.28397E+04  3.28165E+03 -1.53472E+04 -6.50454E+03
 -6.37492E+03 -8.17053E+03  1.36716E+02  5.74186E+02 -3.50776E+03  3.28512E+03 -6.54139E+03  6.56871E+03
 -1.37613E+04 -1.26281E+03 -1.44109E+04 -1.24598E+04 -6.52493E+03 -2.00506E+04  7.19051E+03 -1.52254E+04
  1.31458E+04 -5.27640E+03  9.65309E+03  4.01105E+03  6.50220E+02  7.35597E+03 -6.05582E+03 -9.42335E+01
 -7.15260E+03 -1.05279E+04 -2.99378E+03 -1.48135E+04  9.67964E+03 -1.64570E+04  2.01698E+04 -9.22241E+03
  2.36074E+04  2.87958E+03  1.70508E+04  1.45398E+04  2.46759E+03  1.82255E+04 -1.05276E+04  1.61657E+04
 -1.33982E+04  5.18130E+03 -6.50498E+03 -2.69573E+03 -3.91366E+02 -5.80006E+03  7.83706E+03 -1.32784E+02
  8.67061E+03  7.47874E+03  4.57153E+02  1.33597E+04 -9.33385E+03  1.08827E+04 -1.60112E+04  2.77859E+03
 -1.21907E+04 -7.12625E+03  5.07659E+02 -1.33081E+04  8.79017E+03 -7.02306E+03  9.90616E+03  4.18414E+03
  2.90345E+03  1.15632E+04 -6.99969E+03  1.03744E+04 -1.38045E+04  4.10293E+03 -1.52459E+04 -4.24169E+03
 -8.68890E+03 -1.55175E+04  6.03987E+03 -1.79154E+04  1.49402E+04 -1.23643E+04  1.74274E+04  3.66557E+03
  9.50341E+03  1.42783E+04 -1.38349E+03  1.54000E+04 -1.20994E+04  9.21645E+03 -1.16322E+04 -1.59271E+03
 -1.04941E+04 -9.37275E+03 -5.95857E+02 -1.08596E+04  5.95507E+03 -9.17930E+03  9.20230E+03 -4.31521E+03
  4.09818E+03  2.17372E+03 -7.09850E+02  1.05795E+03 -2.50178E+02 -2.30038E+03  4.29792E+03 -7.13760E+03
  1.12389E+04 -4.93461E+03  1.59791E+04  2.34689E+03  1.58205E+04  1.11641E+04  1.04602E+04  2.24716E+04
 -4.82026E+03  2.32545E+04 -2.03383E+04  1.79246E+04 -2.60619E+04  4.06688E+03 -2.01647E+04 -9.62891E+03
 -1.01308E+04 -1.79864E+04 -2.87204E+02 -1.56611E+04  4.11123E+03 -7.84738E+03  4.68484E+03 -5.64834E+03
  4.54416E+03 -2.33673E+03  5.61076E+03 -3.39739E+03  6.90435E+03 -2.62021E+03  7.49913E+03 -2.75609E+03
  9.48281E+03  2.28496E+03  5.48973E+03  9.16827E+03 -2.02366E+03  1.02229E+04 -1.01899E+04  7.64624E+03
 -1.43953E+04 -6.64508E+02 -1.08381E+04 -1.12199E+04 -8.94567E+02 -1.58784E+04  9.89165E+03 -1.38900E+04
  1.64961E+04 -1.02041E+04  1.90856E+04  2.39665E+03  1.45238E+04  1.42105E+04  4.24329E+03  1.82223E+04
 -7.24437E+03  1.49174E+04 -1.02572E+04  5.29675E+03 -6.88982E+03 -2.97060E+03 -2.46103E+03 -1.89592E+03
 -2.32124E+03  7.69810E+02 -1.97427E+03  3.35788E+03 -7.27175E+03  3.22359E+03 -1.05830E+04 -1.66466E+03
 -7.68273E+03 -1.07117E+04 -8.43883E+02 -1.41656E+04  9.57620E+03 -1.48094E+04  1.52785E+04 -3.11791E+03
  1.37927E+04  7.36774E+03  6.52756E+03  1.35179E+04 -3.15677E+03  1.49560E+04 -1.01619E+04  8.79197E+03
 -1.58219E+04  2.35202E+02 -1.11713E+04 -9.81787E+03 -3.04256E+03 -1.22776E+04  7.88971E+03 -8.54947E+03
  8.85020E+03 -2.86193E+03  6.34161E+03  1.86220E+03  1.72699E+03  3.64065E+03  2.54877E+03  2.44197E+03
  2.52435E+03 -9.53578E+01  2.32683E+03  1.97554E+03  3.35571E+03  6.04406E+03  3.32653E+03  8.25327E+03
 -3.00981E+03  1.22779E+04 -1.04192E+04  1.16016E+04 -1.57705E+04  3.93885E+03 -1.59211E+04 -7.89339E+03
 -6.14949E+03 -1.65233E+04  2.08480E+03 -1.76789E+04  9.52183E+03 -1.00864E+04  1.30535E+04 -3.21126E+03
  1.02316E+04  6.29533E+03  1.33584E+03  9.25793E+03 -3.79524E+03  4.80276E+03 -5.61362E+03  5.24910E+02
 -3.55132E+03 -7.02694E+03  1.46846E+03 -7.35197E+03  5.16978E+03 -4.06901E+03  6.22393E+03  7.50008E+02
  4.94074E+03  3.02559E+03  1.28482E+03  2.32863E+03 -5.05326E+02  5.66360E+02  1.21581E+03 -1.18224E+03
  2.63121E+03 -1.09290E+03  6.69318E+03  1.22541E+03  3.58149E+03  7.68805E+03 -1.03217E+03  1.07689E+04
 -9.39211E+03  6.35710E+03 -9.15484E+03  3.74265E+03 -8.53935E+03 -4.12978E+03 -3.69135E+03 -6.15671E+03
  6.49994E+02 -7.66429E+03  4.85897E+03 -3.42398E+03  2.96130E+03  2.96041E+03 -6.36381E+02  6.47503E+03
 -4.37101E+03  2.98232E+03 -6.47706E+03 -3.00854E+03 -5.72171E+03 -7.66357E+03  4.75307E+02 -8.41167E+03
  6.76970E+03 -4.16295E+03  7.29053E+03 -1.78222E+03  4.80349E+03  1.11779E+03  9.32554E+02  4.52832E+03
 -3.10550E+03 -2.17977E+02 -5.08643E+03 -3.12148E+03  5.32014E+02 -7.33640E+03  6.93947E+03 -5.81723E+03
  8.71866E+03  1.68528E+03  1.04196E+04  5.81939E+03  3.48028E+03  1.09833E+04 -5.17064E+03  9.89711E+03
 -7.94121E+03  4.66753E+03 -8.67799E+03 -9.56055E+02 -2.62668E+03 -6.76927E+03  1.37619E+03 -6.22689E+03
  5.79649E+03 -3.92844E+03  5.47120E+03  3.26092E+03  2.63681E+03  5.60667E+03 -1.47042E+03  3.78575E+03
 -2.43349E+03  3.11582E+03 -1.60403E+03  6.94003E+02 -1.62698E+03  2.14705E+03 -2.25031E+03  2.96580E+03
 -2.08683E+03  3.76558E+03 -6.01944E+03  3.84953E+03 -9.77978E+03  1.50691E+03 -1.19857E+04 -9.69764E+03
 -5.95270E+03 -1.54141E+04  2.85929E+03 -1.48703E+04  7.97797E+03 -1.13248E+04  1.57531E+04 -4.23342E+03
  1.34260E+04  1.91461E+03  9.23274E+03  9.25571E+03  9.15994E+02  1.01865E+04 -5.62169E+03  7.88037E+03
 -6.45257E+03  2.07106E+03 -3.67358E+03 -2.32141E+03 -1.09463E+03  1.59268E+02 -1.42977E+03  8.58325E+02
 -1.93153E+03  1.08997E+02 -3.31516E+03 -8.32699E+01  5.16429E+02 -3.91608E+03 -2.01080E+02 -4.59775E+03
  5.92510E+03 -2.96014E+03  6.89213E+03  2.37003E+02  7.27453E+03  5.80226E+03  1.03045E+03  1.07379E+04
 -5.28889E+03  1.27381E+04 -1.15993E+04  4.44755E+03 -1.25750E+04 -1.99758E+03 -9.45316E+03 -9.15304E+03
 -2.78427E+03 -8.93274E+03  3.85452E+03 -9.32088E+03  7.32919E+03 -5.09224E+03  5.55509E+03  1.08584E+03
  5.84965E+03  5.93283E+03 -6.88332E+02  3.57353E+03 -3.23528E+03 -4.54591E+02 -3.71965E+02 -2.14290E+03
  2.87327E+03 -1.20822E+03  4.21690E+03  2.50193E+03  2.33162E+03  2.37127E+03  1.38358E+03  6.13804E+03
 -4.42589E+03  5.41190E+03 -6.48466E+03  1.53256E+03 -7.53556E+03 -6.05660E+03  3.12517E+02 -8.28896E+03
  3.39013E+03 -7.61826E+03  7.48783E+03 -9.14091E+02  8.99543E+03  2.00487E+03  3.89844E+03  7.63004E+03
  4.01348E+02  7.51481E+03 -3.34956E+03  6.28917E+03 -5.53603E+03  3.19915E+03 -2.73600E+03  3.12135E+02
 -2.61717E+03  1.06791E+02 -1.12609E+03  4.51533E+02 -3.59452E+03  8.35418E+02 -6.07512E+03 -1.63297E+03
 -5.08650E+03 -3.19943E+03 -3.61150E+03 -7.53298E+03  3.17853E+03 -6.74442E+03  7.00470E+03 -2.14906E+03
  5.63618E+03  9.04761E+02  4.19288E+03  5.04661E+03 -1.66129E+02  7.35331E+03 -5.68427E+03  4.38482E+03
