 $NMID ID='MM_0lb_SNR200_13hz_g45_30.RAW', FMTDAT='(8E13.5)'
 TRAMP=1., VOLUME=1. $END
  3.08662E+05  4.22731E+02  3.36647E+05  2.49416E+05  8.50602E+04  3.39104E+05 -1.32872E+05  2.50348E+05
 -1.88469E+05  8.37782E+04 -1.11788E+05 -3.27214E+04 -1.59322E+02 -5.01342E+04  5.37939E+04  5.37743E+02
  3.59772E+04  5.37952E+04 -1.74425E+04  7.52686E+04 -6.16623E+04  6.36905E+04 -8.38504E+04  3.23591E+04
 -8.10614E+04 -1.09558E+04 -5.74583E+04 -5.13966E+04 -1.35159E+04 -6.93837E+04  2.61124E+04 -4.61399E+04
  3.87030E+04  3.56591E+03  1.69185E+04  4.65480E+04 -3.52856E+04  4.73912E+04 -6.60495E+04 -3.78263E+02
 -5.32443E+04 -5.56421E+04 -7.27825E+03 -7.60934E+04  3.25371E+04 -5.55732E+04  4.81375E+04 -1.78178E+04
  4.29162E+04  1.18286E+04  3.25625E+04  2.48602E+04  1.43963E+04  2.94351E+04 -5.42280E+03  2.78870E+04
 -2.11793E+04  1.22448E+04 -1.75266E+04 -5.56146E+03  5.02902E+03 -6.96542E+03  2.26096E+04  1.27606E+04
  8.16404E+03  3.57994E+04 -3.23327E+04  3.56320E+04 -6.29437E+04  2.27443E+03 -5.65898E+04 -4.21550E+04
 -1.32979E+04 -6.27055E+04  4.07539E+04 -4.54680E+04  5.78514E+04 -2.40293E+03  3.49510E+04  3.14214E+04
 -5.88807E+03  3.61403E+04 -3.01760E+04  1.67473E+04 -3.12873E+04 -4.06509E+03 -1.69219E+04 -1.13360E+04
 -8.56576E+03 -1.27674E+04 -1.70851E+03 -1.79932E+04  7.21249E+03 -2.29798E+04  1.56406E+04 -1.31039E+04
  1.15709E+04  5.71433E+03 -8.65164E+03  1.26270E+04 -2.19266E+04 -4.54071E+03 -7.94676E+03 -3.44720E+04
  2.29987E+04 -4.23901E+04  4.83151E+04 -1.95105E+04  4.53111E+04  2.05896E+04  1.54521E+04  4.31760E+04
 -1.63977E+04  3.32296E+04 -2.53267E+04  2.12704E+03 -1.14252E+04 -2.89897E+04  2.06652E+04 -3.45094E+04
  4.14500E+04 -9.79754E+03  3.52764E+04  2.32510E+04  1.84853E+04  4.78895E+04 -8.65902E+03  4.98604E+04
 -3.27028E+04  3.57721E+04 -4.28924E+04  1.14326E+04 -4.24967E+04 -1.65976E+04 -2.48939E+04 -3.85681E+04
  7.29859E+03 -3.88328E+04  3.13733E+04 -1.52309E+04  2.95712E+04  1.16673E+04  4.70549E+03  1.89360E+04
 -1.31247E+04  7.29007E+03 -9.34449E+03 -6.89416E+03  7.17422E+03 -1.05048E+04  1.89813E+04  6.32446E+03
  1.35973E+04  2.27860E+04 -6.28116E+03  2.44378E+04 -2.28083E+04  1.34776E+04 -2.82762E+04 -4.80136E+03
 -2.08781E+04 -1.75158E+04 -9.62304E+03 -1.97507E+04  4.95307E+03 -2.04320E+04  1.56431E+04 -1.95462E+04
  2.59452E+04 -1.25939E+04  3.30674E+04  3.14818E+03  2.26594E+04  1.98932E+04  4.66423E+03  3.65461E+04
 -1.80797E+04  3.07928E+04 -2.87199E+04  1.08845E+04 -2.16895E+04 -1.09702E+04 -3.76231E+03 -1.31839E+04
  2.00853E+03 -2.80998E+03 -5.41830E+03  6.63010E+03 -1.65802E+04  5.03780E+03 -1.55842E+04 -8.11616E+03
 -9.32792E+03 -1.91930E+04  5.83759E+03 -2.52184E+04  1.60349E+04 -1.71922E+04  1.75288E+04 -1.82874E+03
  1.14838E+04  1.39827E+04 -1.10239E+03  1.94822E+04 -1.31981E+04  1.12668E+04 -1.83900E+04 -4.48629E+03
 -1.53682E+04 -1.83222E+04 -1.47182E+03 -2.34156E+04  1.00906E+04 -1.95323E+04  1.96492E+04 -9.75528E+03
  1.71085E+04  3.70727E+02  1.26986E+04  3.22165E+03  7.60478E+03  1.20396E+03  9.05469E+03 -1.27437E+03
  1.61933E+04  2.36268E+03  2.02550E+04  1.63686E+04  1.18321E+04  3.08805E+04 -2.87893E+03  3.51726E+04
 -2.06374E+04  2.86485E+04 -3.27562E+04  1.57157E+04 -3.37233E+04 -2.99904E+03 -2.81324E+04 -2.06847E+04
 -1.30551E+04 -2.84625E+04  9.90076E+03 -2.52911E+04  2.20653E+04 -1.26320E+04  1.95874E+04  6.44586E+03
  7.64586E+03  1.49330E+04 -9.87205E+03  1.43814E+04 -1.67026E+04  2.59841E+03 -1.18389E+04 -1.16942E+04
 -1.40551E+02 -1.46727E+04  8.50956E+03 -1.13550E+04  1.01591E+04  5.17539E+02  3.38563E+03  7.43660E+03
 -7.76953E+03  1.96878E+03 -6.84436E+03 -5.47472E+03  3.46191E+02 -1.44950E+04  9.03537E+03 -1.53069E+04
  1.72844E+04 -8.56757E+03  1.88592E+04  3.01363E+03  1.55897E+04  1.34122E+04  7.66916E+03  2.17956E+04
 -4.66720E+03  2.29473E+04 -1.61190E+04  1.34703E+04 -1.79253E+04  3.21589E+03 -1.12199E+04 -4.78133E+03
 -4.59888E+03 -5.31246E+03 -1.02411E+03  8.63845E+02 -3.34563E+03  3.49416E+03 -5.25028E+03  4.31093E+03
 -9.36749E+03  3.06156E+02 -1.17008E+04 -9.70833E+03 -6.14193E+03 -1.58159E+04  5.13961E+03 -1.24156E+04
  9.31806E+03 -5.17777E+03  7.94508E+03  4.19713E+03 -3.77485E+02  5.12052E+03 -4.79682E+03 -1.76032E+02
 -5.74008E+03 -8.86853E+03 -1.26439E+02 -1.11784E+04  6.50646E+03 -1.20769E+04  1.45697E+04 -6.12044E+03
  1.71741E+04  2.11585E+03  1.21629E+04  9.42900E+03  1.02107E+03  1.28328E+04 -8.21200E+03  1.06278E+04
 -9.65507E+03  3.62396E+03 -5.57295E+03 -2.11548E+03  1.31472E+03 -3.57488E+03  4.75293E+03 -1.17313E+03
  5.82858E+03  4.21009E+03  1.54798E+03  8.86759E+03 -6.43432E+03  9.20233E+03 -1.16702E+04  2.41486E+03
 -7.72729E+03 -5.78517E+03  2.36171E+02 -9.87446E+03  5.44962E+03 -5.44881E+03  6.67162E+03  4.68548E+02
  4.32838E+02  7.77724E+03 -6.39957E+03  7.56845E+03 -8.95740E+03  3.39072E+03 -8.01488E+03 -3.03347E+03
 -5.04752E+03 -1.14066E+04  1.94509E+03 -1.22304E+04  9.67009E+03 -6.40616E+03  1.08730E+04  1.81167E+03
  6.79727E+03  9.06142E+03  4.88993E+02  1.08519E+04 -8.56651E+03  6.24587E+03 -8.09884E+03 -7.47154E+02
 -8.19172E+03 -7.27091E+03 -1.02517E+03 -8.04398E+03  4.72697E+03 -6.84547E+03  5.64327E+03 -1.62163E+03
  2.43583E+03  2.15771E+03  6.02722E+02  1.51317E+03  1.12010E+02 -2.06903E+03  1.92849E+03 -4.76718E+03
  7.94151E+03 -2.98133E+03  1.03111E+04  7.00001E+02  1.04216E+04  6.48283E+03  6.75803E+03  1.40751E+04
 -3.12511E+03  1.50245E+04 -1.37985E+04  1.19020E+04 -1.55302E+04  1.21394E+03 -1.36397E+04 -5.80341E+03
 -7.03998E+03 -1.17777E+04 -1.15046E+03 -9.45584E+03  4.03821E+03 -4.14258E+03  2.74397E+03 -1.89905E+03
  2.08436E+03 -2.10339E+03  2.66089E+03 -2.68635E+03  5.21914E+03 -2.52958E+03  6.20443E+03  4.93642E+02
  7.99826E+03  1.45362E+03  2.42291E+03  6.84895E+03 -2.78901E+03  6.48622E+03 -7.25064E+03  4.89692E+03
 -8.36258E+03 -2.84011E+02 -6.09137E+03 -5.86526E+03  6.19758E+02 -8.89391E+03  5.07259E+03 -9.82306E+03
  1.03175E+04 -5.73964E+03  1.27515E+04  1.43966E+03  7.92775E+03  7.21084E+03  1.86238E+03  1.12849E+04
 -4.16701E+03  1.01457E+04 -6.73208E+03  4.42771E+03 -4.43270E+03 -2.21642E+02 -1.75701E+03 -1.02661E+03
 -4.18822E+02  4.09845E+01 -9.62444E+02  2.12280E+03 -4.22790E+03  2.31574E+03 -6.74573E+03 -1.35301E+03
 -3.37521E+03 -6.75757E+03  1.07380E+03 -9.81472E+03  5.72001E+03 -8.63564E+03  8.98516E+03 -2.50345E+03
  9.46664E+03  3.46492E+03  3.19720E+03  7.46402E+03 -1.41100E+03  8.81588E+03 -7.05415E+03  4.77240E+03
 -8.25004E+03  7.18940E+02 -5.87500E+03 -5.31664E+03 -4.51835E+02 -6.98781E+03  2.26169E+03 -6.08001E+03
  6.28981E+03 -6.42662E+02  4.15974E+03  1.98704E+03  2.63591E+02  3.20049E+03 -1.40784E+02  7.00680E+02
  1.64182E+03  1.35473E+03  2.71128E+03  5.19468E+02  2.00634E+03  3.87298E+03  2.21264E+03  3.37843E+03
 -2.04014E+03  7.49302E+03 -6.08121E+03  6.14049E+03 -8.81253E+03  1.48093E+03 -8.83502E+03 -2.71804E+03
 -3.60632E+03 -8.24450E+03  1.58311E+03 -9.71705E+03  4.34813E+03 -4.64882E+03  5.98432E+03 -2.14698E+03
  6.74816E+03  3.32596E+03  1.35870E+03  5.57451E+03 -2.53586E+03  3.41283E+03 -2.89839E+03 -1.42120E+03
 -1.65612E+03 -2.68068E+03  3.25352E+03 -2.44065E+03  3.04936E+03 -1.88043E+03  3.77078E+03  5.83248E+02
  1.77551E+03  1.18238E+03  6.73102E+02  1.21104E+03  4.39518E+02  1.56482E+03  2.42392E+03 -5.22151E+02
  1.22171E+03  6.79136E+02  3.22690E+03  2.63752E+02  1.04691E+03  4.14654E+03  1.47937E+02  6.61263E+03
 -3.49956E+03  3.89130E+03 -5.11153E+03  4.27006E+02 -4.41817E+03 -1.86611E+03 -1.26593E+03 -3.07997E+03
  1.19379E+03 -2.83595E+03  2.01231E+03 -1.67462E+03  1.41155E+03  3.03676E+03 -4.91212E+02  2.88678E+03
 -3.03958E+03  6.16453E+02 -5.10997E+03 -1.01139E+03 -2.52548E+03 -4.33643E+03  9.58568E+02 -3.41443E+03
  1.95091E+03 -2.97376E+03  2.46904E+03 -1.24129E+03  3.07998E+03  2.87027E+02 -2.24156E+02  3.16231E+03
 -1.99017E+03  2.27750E+03 -2.95566E+03 -9.07005E+02  7.18151E+02 -2.41046E+03  4.23061E+03 -2.66243E+03
  4.74974E+03  1.17245E+03  4.95262E+03  3.35611E+03  7.10623E+02  4.85777E+03 -9.04776E+02  4.85897E+03
 -4.62277E+03  2.47451E+03 -3.53391E+03 -1.86178E+03 -3.46259E+03 -3.31288E+03 -1.65298E+02 -2.77981E+03
  2.43080E+03 -2.67009E+03  1.82186E+03  2.57406E+03  1.14417E+03  1.87205E+03  3.54238E+02  1.08982E+03
 -3.95373E+02  2.12261E+03 -3.04632E+02  3.90935E+02 -5.68871E+02  8.12107E+02 -5.77042E+02  2.71672E+03
 -6.97719E+02  2.84308E+03 -4.32411E+03  2.06769E+03 -5.84349E+03  4.18429E+02 -5.84010E+03 -3.46171E+03
 -2.72126E+03 -6.42807E+03  2.76369E+03 -6.55174E+03  3.45033E+03 -6.32551E+03  7.48027E+03 -2.60072E+03
  5.96056E+03  1.44681E+03  3.94132E+03  4.77905E+03 -7.71947E+02  5.50160E+03 -2.62965E+03  3.04181E+03
 -2.27820E+03  1.26117E+03 -1.74516E+03 -9.77669E+02 -1.13805E+03 -5.44408E+02 -9.02588E+02 -6.16735E+02
 -1.65066E+03 -1.29928E+03 -1.71751E+03 -1.16460E+03 -4.97083E+02 -1.06117E+03  1.16247E+03 -1.99363E+03
  3.16986E+03 -9.96963E+02  2.45730E+03  6.10876E+02  4.01307E+03  2.32729E+03 -3.93664E+02  5.99340E+03
 -2.42369E+03  6.94590E+03 -4.62277E+03  3.13654E+03 -6.29140E+03 -8.82202E+02 -4.47350E+03 -3.03292E+03
 -2.54843E+03 -5.63335E+03  5.49067E+01 -4.11617E+03  2.08684E+03 -3.61327E+03  2.61081E+03 -1.28552E+02
  1.95582E+03  2.10474E+03  4.12098E+02  1.23007E+03 -1.03768E+03  9.82890E+02 -2.60466E+01 -1.77932E+03
  6.48267E+02 -5.80005E+02  1.82010E+03  3.45554E+02  2.20876E+03  3.45866E+03  3.69066E+01  3.16813E+03
 -7.98715E+02  3.85185E+02 -2.73067E+03  2.13562E+02 -3.15310E+03 -3.04579E+03  7.02015E+01 -5.32519E+03
  3.36465E+03 -2.83523E+03  2.08852E+03 -1.49775E+03  2.65283E+03  1.03460E+03  1.55213E+03  3.96641E+03
  1.60014E+03  1.57941E+03 -4.93997E+02  1.82872E+03 -1.77172E+03  1.60736E+03 -1.94970E+03  1.54985E+02
 -7.12533E+02  9.14176E+01 -1.91198E+03 -9.96634E+02 -1.89908E+03  1.01834E+02 -2.80386E+03 -5.61209E+02
 -2.32214E+03 -2.32585E+03  1.75909E+01 -2.11320E+03  1.46865E+03 -4.33561E+03  1.44776E+03 -9.34005E+02
  2.45934E+03  3.81264E+02  8.47061E+02  3.22553E+03  1.60137E+02  3.11179E+03 -1.53799E+03  1.52516E+03
