 $NMID ID='MM_0lb_SNR200_14hz_g55_92.RAW', FMTDAT='(8E13.5)'
 TRAMP=1., VOLUME=1. $END
  3.09324E+05  3.42760E+02  3.39058E+05  2.50119E+05  8.44387E+04  3.37860E+05 -1.33341E+05  2.51596E+05
 -1.89586E+05  8.39038E+04 -1.10735E+05 -3.19031E+04  2.75947E+02 -5.13500E+04  5.40597E+04 -1.27374E+03
  3.46182E+04  5.19929E+04 -1.73582E+04  7.42901E+04 -6.09940E+04  6.25738E+04 -8.46555E+04  3.28931E+04
 -8.14069E+04 -1.16439E+04 -5.77789E+04 -5.12006E+04 -1.52732E+04 -7.07011E+04  2.96929E+04 -4.42580E+04
  4.14844E+04  3.36954E+03  1.67908E+04  4.94972E+04 -3.42706E+04  4.75362E+04 -6.79320E+04 -7.43151E+02
 -5.36817E+04 -5.74023E+04 -7.20717E+03 -7.73140E+04  3.46591E+04 -5.62286E+04  4.86915E+04 -1.65876E+04
  4.37668E+04  1.25600E+04  3.17780E+04  2.61033E+04  1.64211E+04  3.09701E+04 -5.17741E+03  2.70899E+04
 -2.13497E+04  1.18909E+04 -1.79950E+04 -4.95011E+03  4.89691E+03 -6.64158E+03  2.18514E+04  1.22576E+04
  7.85605E+03  3.62991E+04 -3.32256E+04  3.57029E+04 -6.26513E+04  1.37903E+03 -5.68424E+04 -4.27605E+04
 -1.31990E+04 -6.45328E+04  4.03710E+04 -4.62529E+04  5.93888E+04 -2.44348E+03  3.51536E+04  3.25297E+04
 -7.16558E+03  3.66554E+04 -3.05578E+04  1.67259E+04 -3.05736E+04 -4.73777E+03 -1.71472E+04 -1.19243E+04
 -8.80769E+03 -1.43606E+04 -2.76819E+02 -1.78470E+04  7.10889E+03 -2.35628E+04  1.49120E+04 -1.28219E+04
  1.17087E+04  5.10606E+03 -9.82580E+03  1.26816E+04 -2.15904E+04 -4.91644E+03 -7.31987E+03 -3.48051E+04
  2.12986E+04 -4.41867E+04  4.94002E+04 -2.09810E+04  4.53615E+04  1.89152E+04  1.55893E+04  4.45615E+04
 -1.61045E+04  3.39951E+04 -2.52653E+04  2.13429E+03 -9.51134E+03 -2.87546E+04  2.11088E+04 -3.42474E+04
  4.19492E+04 -9.68785E+03  3.63357E+04  2.42614E+04  1.80948E+04  4.71590E+04 -1.00852E+04  5.17289E+04
 -3.14697E+04  3.45346E+04 -4.22658E+04  9.85308E+03 -4.43711E+04 -1.80835E+04 -2.48823E+04 -3.74370E+04
  7.03624E+03 -3.84607E+04  3.13686E+04 -1.64937E+04  2.94657E+04  1.08081E+04  4.51734E+03  1.95284E+04
 -1.31206E+04  6.74314E+03 -1.16050E+04 -6.68887E+03  5.89440E+03 -1.16432E+04  1.82758E+04  7.34581E+03
  1.48905E+04  2.22885E+04 -5.08479E+03  2.63926E+04 -2.19560E+04  1.15253E+04 -2.84661E+04 -5.01469E+03
 -2.01505E+04 -1.82183E+04 -1.04079E+04 -2.32347E+04  5.02932E+03 -2.09278E+04  1.66948E+04 -1.88226E+04
  2.69315E+04 -1.39037E+04  3.28616E+04  3.43895E+03  2.40962E+04  2.17322E+04  3.98661E+03  3.62896E+04
 -1.81695E+04  3.20565E+04 -2.91088E+04  1.09837E+04 -2.12015E+04 -8.71466E+03 -5.45810E+03 -1.46324E+04
  3.52135E+02 -2.27293E+03 -5.34639E+03  7.02551E+03 -1.74136E+04  4.57500E+03 -1.69236E+04 -7.73757E+03
 -1.02797E+04 -1.94383E+04  6.12768E+03 -2.37038E+04  1.63399E+04 -1.76337E+04  1.92708E+04 -2.76992E+02
  1.05636E+04  1.28443E+04 -5.88514E+02  2.08694E+04 -1.37244E+04  1.11062E+04 -2.04740E+04 -3.11790E+03
 -1.41140E+04 -1.76246E+04 -1.21794E+03 -2.42132E+04  1.04431E+04 -2.07134E+04  1.91535E+04 -1.11249E+04
  1.88566E+04 -5.75406E+02  1.36566E+04  4.30209E+03  5.96877E+03  1.01041E+03  9.68662E+03 -2.17948E+03
  1.86709E+04  2.64090E+03  1.98764E+04  1.43427E+04  1.31238E+04  3.07861E+04 -4.20569E+03  3.57154E+04
 -2.06682E+04  2.82582E+04 -3.19364E+04  1.48731E+04 -3.47916E+04 -2.29746E+03 -2.84030E+04 -1.95712E+04
 -1.26102E+04 -3.07140E+04  1.08112E+04 -2.54282E+04  2.26986E+04 -1.34527E+04  1.99456E+04  6.74067E+03
  6.90946E+03  1.44256E+04 -9.73771E+03  1.19548E+04 -1.69673E+04  2.58137E+03 -1.38777E+04 -9.50125E+03
 -1.81065E+03 -1.58436E+04  7.55155E+03 -1.22481E+04  9.69035E+03 -1.68694E+03  2.38699E+03  8.09711E+03
 -8.14384E+03  2.95197E+03 -6.07206E+03 -4.98933E+03 -1.63210E+02 -1.46426E+04  9.83855E+03 -1.43897E+04
  1.74749E+04 -6.95618E+03  1.96988E+04  3.86038E+03  1.58367E+04  1.47263E+04  7.89490E+03  2.05821E+04
 -2.53267E+03  2.33297E+04 -1.44620E+04  1.43400E+04 -1.61506E+04  4.11319E+03 -1.14493E+04 -4.33678E+03
 -5.62216E+03 -5.63733E+03  1.11967E+02  9.53371E+02 -2.61595E+03  2.75988E+03 -6.13932E+03  4.40418E+03
 -1.02514E+04  2.82053E+01 -1.09620E+04 -9.91981E+03 -4.86729E+03 -1.48540E+04  5.12912E+03 -1.24026E+04
  9.94601E+03 -5.40185E+03  6.26514E+03  3.32889E+03  7.16021E+02  4.37062E+03 -7.30085E+03 -3.14951E+02
 -5.94673E+03 -8.89704E+03 -7.79454E+01 -1.03425E+04  5.22228E+03 -1.11300E+04  1.40522E+04 -5.54944E+03
  1.85456E+04  1.33905E+03  1.26980E+04  1.13105E+04  2.55787E+03  1.29708E+04 -6.88156E+03  1.20592E+04
 -9.05787E+03  2.74751E+03 -4.90449E+03 -1.60451E+03  2.63944E+03 -2.37191E+03  5.59243E+03 -1.95922E+03
  4.25223E+03  5.54534E+03  1.20882E+03  8.40781E+03 -7.06967E+03  9.06937E+03 -1.25496E+04  1.24290E+03
 -6.83278E+03 -6.28924E+03  5.31771E+02 -9.71552E+03  5.69550E+03 -5.04342E+03  6.53588E+03  1.88523E+03
  1.38867E+03  5.95040E+03 -6.27542E+03  7.99455E+03 -8.73857E+03  3.66961E+03 -8.94778E+03 -2.84634E+03
 -4.76174E+03 -1.10292E+04  2.39089E+03 -1.21308E+04  1.01331E+04 -6.89914E+03  1.14927E+04  1.75788E+03
  7.68046E+03  8.08225E+03  9.39740E+01  1.08687E+04 -9.16409E+03  7.09231E+03 -7.58867E+03 -1.15072E+03
 -8.04728E+03 -6.89331E+03  1.26775E+02 -7.85637E+03  4.41009E+03 -6.32042E+03  5.70963E+03 -4.05194E+03
  3.17243E+03  1.48060E+02 -2.39452E+02  1.75209E+03 -9.80420E+02 -1.75977E+03  1.25184E+03 -4.59333E+03
  7.30214E+03 -2.49381E+03  9.69458E+03  1.76742E+03  1.01312E+04  7.41992E+03  7.16424E+03  1.26654E+04
 -3.32823E+03  1.40363E+04 -1.40749E+04  1.14138E+04 -1.68147E+04  1.62683E+03 -1.31321E+04 -5.19588E+03
 -5.84426E+03 -1.06107E+04 -1.31427E+03 -7.99938E+03  3.07543E+03 -3.93390E+03  2.75185E+03 -3.61863E+03
  1.88168E+03 -2.51663E+03  2.94049E+03 -2.68242E+03  4.62764E+03 -1.51652E+03  6.08939E+03  1.21079E+03
  6.86417E+03  7.12207E+02  3.96806E+03  6.53756E+03 -1.01088E+03  6.39175E+03 -8.41165E+03  4.94634E+03
 -8.61716E+03 -9.23925E+01 -6.02407E+03 -7.10277E+03  3.05036E+02 -9.38626E+03  6.11942E+03 -9.27911E+03
  9.80689E+03 -5.54306E+03  1.30660E+04  9.42867E+02  7.25081E+03  9.10604E+03  8.65515E+02  1.09127E+04
 -4.49161E+03  9.84087E+03 -6.01083E+03  4.23215E+03 -4.57430E+03 -1.41865E+03 -1.07320E+03 -2.19374E+03
 -6.96411E+02  8.74597E+02 -1.09502E+03  2.47424E+03 -2.77182E+03  1.08621E+03 -6.77977E+03 -4.98068E+02
 -4.01152E+03 -5.02419E+03 -7.79484E+02 -8.51351E+03  5.62074E+03 -6.35754E+03  6.90247E+03 -2.56432E+03
  8.88023E+03  4.88599E+03  4.81804E+03  6.92662E+03 -3.06320E+03  9.07349E+03 -5.32710E+03  5.20314E+03
 -8.38879E+03 -2.40599E+02 -5.52938E+03 -4.59332E+03 -6.08122E+02 -6.18165E+03  2.46432E+03 -5.71778E+03
  5.53577E+03 -3.93502E+03  2.51003E+03  2.20107E+02  2.18668E+03  3.60642E+03  6.58439E+02  1.82854E+03
  2.30675E+03  1.80067E+03  6.44924E+02  9.38907E+02  2.63819E+03  2.47709E+03  1.83178E+03  4.50958E+03
 -2.57715E+03  6.57891E+03 -5.93927E+03  8.61889E+03 -7.74625E+03  1.36681E+03 -9.03164E+03 -2.91846E+03
 -3.39333E+03 -7.97085E+03  9.65542E+02 -9.82554E+03  4.31528E+03 -6.04369E+03  5.08677E+03 -2.12313E+03
  4.99250E+03  4.23367E+03  7.12420E+02  3.51811E+03 -2.35046E+03  2.75954E+03 -3.08130E+03 -5.24351E+02
 -8.66060E+02 -2.90992E+03  2.08553E+03 -3.59930E+03  3.01352E+03 -1.79307E+03  3.18481E+03  1.22341E+03
  9.01978E+02  5.87132E+02  4.42525E+02  7.11436E+01 -1.33240E+02  2.20728E+02  2.05348E+03  2.55659E+02
 -3.11721E+02 -1.54959E+03  1.91104E+03  2.15713E+03  2.31954E+03  4.81168E+03 -9.49667E+02  4.33915E+03
 -3.26287E+03  1.43667E+03 -5.25012E+03  5.20714E+02 -4.24992E+03 -1.10113E+03 -1.68524E+03 -2.94171E+03
  5.18447E+02 -2.54809E+03  1.96032E+03 -1.62027E+03  6.57252E+02  2.60617E+03 -8.20111E+02  3.48974E+03
 -2.78706E+03  1.05737E+03 -3.55786E+03 -1.61273E+03 -2.42986E+03 -4.13243E+03 -1.06190E+03 -3.90136E+03
  9.76393E+02 -2.01115E+03  2.64296E+03  7.46981E+02  2.75196E+03  7.01076E+02  6.20551E+02  2.55786E+03
 -9.29602E+02  1.90549E+03 -2.72760E+03 -1.19363E+03  3.54815E+02 -2.77645E+03  2.22411E+03 -2.81016E+03
  4.97354E+03 -1.86600E+01  4.51618E+03  2.89555E+03  1.90966E+03  4.39992E+03 -1.67766E+03  3.88468E+03
 -3.46415E+03  2.22101E+03 -4.53499E+03  2.09595E+01 -3.73541E+03 -2.20490E+03  8.15136E+02 -1.87685E+03
  2.87417E+03 -3.94592E+02  2.08595E+03  1.81921E+03  5.78848E+02  1.87042E+03 -1.00433E+03  2.27073E+03
 -1.49523E+03  1.49169E+03 -6.62314E+02  1.37798E+03 -5.74250E+02  7.18486E+02 -1.13063E+03  8.53028E+02
 -5.69604E+02  2.08762E+03 -2.94974E+03  1.65680E+03 -5.35826E+03  6.57469E+02 -4.61854E+03 -2.00576E+03
 -1.87633E+03 -5.23764E+03  9.30410E+02 -7.29473E+03  2.40108E+03 -4.94426E+03  5.92110E+03 -9.75882E+02
  4.28221E+03  1.41343E+03  2.58156E+03  3.48410E+03  1.63493E+03  5.08477E+03 -2.05573E+03  3.58303E+03
 -2.67720E+03  5.11699E+02 -1.73265E+03 -1.47888E+03 -3.41070E+02 -1.02925E+03 -1.16608E+03 -6.45914E+01
 -1.96147E+02 -2.03308E+02 -1.24019E+03  3.10599E+02 -9.62887E+01 -1.45924E+03  1.47401E+02 -1.51177E+03
  2.18105E+03 -1.83036E+03  2.78137E+03  2.58993E+02  2.23843E+03  3.03171E+03  7.04860E+02  4.48192E+03
 -1.71530E+03  5.64602E+03 -4.55424E+03  3.29903E+03 -4.80995E+03  8.83830E+02 -2.42268E+03 -2.67247E+03
 -1.76492E+03 -4.02457E+03  2.27717E+02 -2.88060E+03  3.21671E+03 -2.86590E+03  2.55087E+03 -1.44372E+03
  7.77812E+02  1.33807E+03 -1.11517E+02  1.20293E+03 -1.33302E+03 -1.40090E+02  9.81750E+01 -6.44537E+02
 -2.72238E+02  7.77154E+02  2.50183E+02  9.37708E+02  1.21230E+03  2.22418E+03  1.52396E+03  1.55524E+03
 -1.62358E+03  2.96164E+03 -3.19317E+03 -2.44161E+02 -2.19840E+03 -2.18239E+03 -5.57697E+02 -3.08583E+03
  2.17783E+03 -2.57648E+03  2.72879E+03  1.44275E+02  3.21799E+03 -7.49958E+02  2.53856E+03  2.78429E+03
  1.04107E+03  2.36529E+03 -1.30442E+02  3.06879E+03 -1.64942E+03  6.63332E+02 -7.89795E+02 -4.19873E+02
 -3.13922E+02 -4.94442E+02  7.42279E+01  2.59575E+02 -1.41363E+03  6.70968E+02 -1.83011E+03 -6.53929E+02
 -3.88832E+03 -1.64399E+03 -8.06630E+01 -2.97372E+03  1.49264E+03 -2.16842E+03  1.47801E+03 -6.58652E+02
  1.97866E+03  2.17512E+02 -9.84930E+01  1.24387E+03  8.87469E+01  2.00018E+03 -1.04023E+03  1.48686E+03
