 $NMID ID='MM_0lb_SNR200_15hz_g40_85.RAW', FMTDAT='(8E13.5)'
 TRAMP=1., VOLUME=1. $END
  3.09415E+05  1.04247E+02  3.37377E+05  2.51510E+05  8.43280E+04  3.38085E+05 -1.31705E+05  2.50926E+05
 -1.89813E+05  8.33631E+04 -1.10872E+05 -3.32574E+04  2.30640E+03 -5.12812E+04  5.35225E+04  3.97222E+02
  3.54778E+04  5.37691E+04 -1.70483E+04  7.50314E+04 -6.08344E+04  6.30978E+04 -8.38869E+04  3.25079E+04
 -8.14792E+04 -1.10226E+04 -5.67683E+04 -4.97464E+04 -1.36440E+04 -6.96823E+04  2.65982E+04 -4.61883E+04
  3.95542E+04  3.52737E+03  1.60415E+04  4.72798E+04 -3.47835E+04  4.58984E+04 -6.54422E+04 -1.50992E+03
 -5.25720E+04 -5.69686E+04 -7.00472E+03 -7.62479E+04  3.31875E+04 -5.47630E+04  4.66368E+04 -1.78121E+04
  4.30321E+04  1.10581E+04  3.14807E+04  2.38104E+04  1.58922E+04  2.89648E+04 -4.68334E+03  2.75156E+04
 -2.10711E+04  1.15110E+04 -1.87788E+04 -4.46476E+03  5.37094E+03 -6.36500E+03  2.10956E+04  1.22487E+04
  7.36558E+03  3.49496E+04 -3.14524E+04  3.48637E+04 -6.07547E+04  8.76731E+02 -5.71096E+04 -4.14557E+04
 -1.27613E+04 -6.18862E+04  3.96938E+04 -4.46212E+04  5.80396E+04 -1.34358E+03  3.24930E+04  3.24200E+04
 -5.80793E+03  3.58618E+04 -2.92121E+04  1.41275E+04 -2.86494E+04 -4.07016E+03 -1.53431E+04 -1.18377E+04
 -8.96681E+03 -1.20061E+04 -1.76129E+03 -1.74412E+04  6.97814E+03 -2.28135E+04  1.52337E+04 -1.35331E+04
  1.12394E+04  4.32916E+03 -7.55969E+03  1.47056E+04 -2.00412E+04 -3.47555E+03 -8.10027E+03 -3.25376E+04
  2.18549E+04 -4.24452E+04  4.66095E+04 -1.91915E+04  4.43114E+04  1.84861E+04  1.43308E+04  4.30168E+04
 -1.58961E+04  3.26336E+04 -2.42367E+04  1.97304E+03 -9.89184E+03 -2.69117E+04  2.06315E+04 -3.29305E+04
  3.91527E+04 -7.45579E+03  3.40814E+04  2.37824E+04  1.78851E+04  4.46351E+04 -7.79538E+03  4.79466E+04
 -2.94206E+04  3.26721E+04 -3.99300E+04  1.00733E+04 -4.05636E+04 -1.60213E+04 -2.24685E+04 -3.73932E+04
  8.27289E+03 -3.70664E+04  3.19321E+04 -1.38020E+04  2.72132E+04  1.11151E+04  3.06520E+03  1.78594E+04
 -1.44302E+04  8.66640E+03 -1.04228E+04 -8.70224E+03  5.11846E+03 -1.02585E+04  1.87320E+04  6.66539E+03
  1.32498E+04  2.21831E+04 -7.55164E+03  2.42744E+04 -2.14786E+04  1.00050E+04 -2.57604E+04 -4.85278E+03
 -1.81971E+04 -1.66713E+04 -7.67796E+03 -1.81011E+04  4.40083E+03 -1.71751E+04  1.44548E+04 -1.56402E+04
  2.31641E+04 -1.22793E+04  3.10928E+04  2.30120E+03  2.16628E+04  1.90077E+04  4.46751E+03  3.42256E+04
 -1.82489E+04  2.92859E+04 -2.78644E+04  9.58085E+03 -2.05697E+04 -1.19831E+04 -4.62700E+03 -1.31436E+04
  1.98644E+03 -2.98020E+03 -3.42164E+03  5.27958E+03 -1.41871E+04  5.98865E+03 -1.59629E+04 -6.71634E+03
 -9.16274E+03 -1.69076E+04  5.79826E+03 -2.13224E+04  1.42160E+04 -1.55388E+04  1.65887E+04 -2.24896E+03
  1.01219E+04  1.23888E+04 -6.89910E+02  1.79214E+04 -1.17078E+04  1.02785E+04 -1.69481E+04 -5.24747E+03
 -1.28294E+04 -1.59104E+04 -1.76671E+03 -2.23497E+04  1.03748E+04 -1.72809E+04  1.84165E+04 -8.66048E+03
  1.70115E+04  5.17850E+02  1.09174E+04  3.96769E+03  6.63059E+03  1.96215E+03  8.02992E+03 -2.01131E+03
  1.55319E+04  3.41760E+03  1.82861E+04  1.43751E+04  1.11121E+04  2.66091E+04 -2.43097E+03  3.08692E+04
 -1.78757E+04  2.51348E+04 -2.89568E+04  1.13998E+04 -2.99126E+04 -9.60088E+02 -2.48519E+04 -1.63413E+04
 -1.11978E+04 -2.40028E+04  8.83496E+03 -2.18978E+04  1.94214E+04 -1.18893E+04  1.79320E+04  4.79217E+03
  6.77725E+03  1.39886E+04 -9.42522E+03  1.26481E+04 -1.54026E+04  2.63182E+03 -1.10884E+04 -9.82602E+03
 -2.38675E+02 -1.38220E+04  7.47128E+03 -1.19223E+04  1.00832E+04 -1.27221E+03  1.66648E+03  5.05228E+03
 -6.65833E+03  1.80556E+03 -4.70826E+03 -4.62723E+03 -2.03241E+02 -1.24767E+04  8.80670E+03 -1.12121E+04
  1.50192E+04 -6.71027E+03  1.60400E+04  2.80410E+03  1.33215E+04  1.18453E+04  5.97252E+03  1.91942E+04
 -3.04334E+03  1.90132E+04 -1.12819E+04  1.17118E+04 -1.46272E+04  3.69079E+03 -1.12254E+04 -2.25840E+03
 -5.03743E+03 -4.62386E+03  3.76379E+02  2.07199E+03 -2.02487E+03  3.03601E+03 -4.32492E+03  3.06519E+03
 -1.01164E+04  1.72354E+02 -1.04095E+04 -8.69502E+03 -3.91071E+03 -1.41176E+04  4.44521E+03 -1.04406E+04
  9.69050E+03 -3.53914E+03  5.58660E+03  1.86005E+03  2.21949E+03  3.62344E+03 -2.98385E+03  9.28886E+02
 -5.47513E+03 -5.07576E+03 -1.42239E+03 -8.61871E+03  3.67918E+03 -9.71492E+03  1.29196E+04 -4.72012E+03
  1.58778E+04  1.06892E+03  1.11783E+04  8.70245E+03  1.73651E+03  1.11548E+04 -5.38569E+03  1.01075E+04
 -7.88685E+03  2.39536E+03 -4.40211E+03 -1.63367E+03  2.38130E+03 -1.62963E+03  6.15355E+03 -1.08728E+03
  4.97378E+03  4.67584E+03  6.22952E+02  6.87289E+03 -4.48498E+03  7.38492E+03 -1.01096E+04  2.22156E+03
 -6.17855E+03 -4.34508E+03  2.38442E+02 -6.78971E+03  4.30669E+03 -4.74582E+03  4.96525E+03  1.23530E+03
  5.51441E+02  4.64052E+03 -5.32968E+03  7.22617E+03 -7.05663E+03  2.42554E+03 -7.23431E+03 -2.23697E+03
 -4.31796E+03 -8.77665E+03  1.72935E+03 -9.31830E+03  8.65185E+03 -5.82511E+03  8.85058E+03  1.92065E+03
  6.37374E+03  7.86202E+03 -5.33537E+02  8.86090E+03 -7.39480E+03  5.19157E+03 -6.05783E+03 -3.20132E+02
 -7.63139E+03 -7.48972E+03 -2.61483E+03 -5.50209E+03  3.50529E+03 -6.06792E+03  3.78228E+03 -2.67060E+03
  2.48384E+03  8.36780E+02 -2.37631E+02  1.83509E+03  8.14199E+02 -7.57931E+02  6.79582E+02 -2.65781E+03
  6.13374E+03 -2.13412E+03  6.85757E+03  1.37999E+02  7.66123E+03  5.93908E+03  6.00865E+03  8.99930E+03
 -1.75758E+03  1.19121E+04 -1.03966E+04  9.01739E+03 -1.32817E+04  1.17995E+03 -1.06441E+04 -3.67143E+03
 -5.15109E+03 -9.69603E+03  8.26870E+02 -6.83312E+03  2.85836E+03 -3.13869E+03  2.73585E+03 -3.25787E+03
  1.25742E+03 -2.57548E+03  3.01920E+03 -4.13049E+03  4.84130E+03 -2.47363E+03  3.97876E+03 -1.38045E+03
  4.81117E+03  1.00261E+03  3.29060E+03  4.96666E+03 -1.56354E+03  3.73259E+03 -7.18924E+03  3.74251E+03
 -7.04720E+03 -1.83954E+03 -4.01671E+03 -5.29549E+03  1.01494E+03 -7.46675E+03  4.65175E+03 -7.76915E+03
  7.71858E+03 -4.56952E+03  1.04500E+04  1.21536E+03  6.73742E+03  5.95606E+03  1.34779E+03  7.90472E+03
 -3.01692E+03  8.09133E+03 -5.51691E+03  2.17297E+03 -4.09903E+03 -4.67960E+02 -1.06756E+03 -1.87779E+03
  5.64472E+02 -1.38250E+02 -1.49482E+03  2.73965E+03 -3.09406E+03  2.45217E+03 -6.14049E+03 -1.39093E+03
 -3.08658E+03 -5.12013E+03  8.90094E+02 -6.55648E+03  3.70768E+03 -5.99382E+03  6.85285E+03 -3.21491E+03
  7.18125E+03  2.19561E+03  2.33441E+03  6.35296E+03 -1.45467E+03  6.94133E+03 -3.81665E+03  4.78047E+03
 -5.40672E+03  8.55956E+02 -5.05683E+03 -4.38709E+03 -2.27361E+03 -5.59378E+03  3.18636E+03 -4.75372E+03
  5.01616E+03 -1.41376E+03  2.69659E+03  6.71752E+02  7.90788E+02  2.77483E+03  1.00137E+03  6.19151E+00
  2.89775E+03  1.58026E+03  1.78760E+03  1.35494E+03  1.76435E+03  3.40515E+03  3.30072E+03  3.18622E+03
 -1.19195E+03  5.16177E+03 -5.04918E+03  6.26739E+03 -5.08822E+03  2.08468E+03 -5.89466E+03 -1.77631E+03
 -2.57844E+03 -6.46768E+03  9.99270E+02 -7.77411E+03  5.07796E+03 -3.46039E+03  6.01898E+03 -1.67087E+03
  5.02260E+03  2.66771E+03  1.10545E+03  3.65609E+03 -1.96255E+03  2.41383E+03 -1.78990E+03 -1.14667E+03
 -1.07910E+03 -1.64166E+03  2.23128E+03 -2.74644E+03  1.61756E+03 -1.47254E+03  1.38946E+03  1.76031E+03
  2.17934E+03  1.81343E+03  1.75556E+03  7.08051E+02 -1.67669E+02  1.58826E+03  1.79537E+03 -1.25048E+03
  1.68858E+03  6.47621E+02  2.89017E+03  1.65091E+03  2.08484E+02  4.14740E+03 -5.59860E+02  5.92430E+03
 -2.86218E+03  3.47089E+03 -3.06049E+03  2.44604E+02 -2.27673E+03 -1.24760E+03 -2.01101E+02 -1.84278E+03
  1.08324E+03 -1.70553E+03  1.13357E+03 -2.01524E+03  1.18945E+03  1.92243E+03  8.11590E+01  1.59331E+03
 -2.52792E+03  1.14269E+03 -2.34225E+03 -1.98491E+03 -1.83598E+03 -3.06411E+03  7.03914E+02 -2.65479E+03
  1.13991E+03 -1.89342E+03  1.81252E+03 -1.65017E+02  1.98243E+03  9.21003E+02 -3.57064E+02  1.30680E+03
 -6.45879E+02  2.06825E+01 -1.72939E+03 -1.08781E+03  1.08730E+03 -1.41299E+03  2.43465E+03 -2.68897E+03
  2.86719E+03  7.88836E+02  2.61909E+03  2.42109E+03  1.89597E+03  3.42655E+03 -1.00560E+03  2.22998E+03
 -2.36564E+03  2.14367E+03 -3.07114E+03 -5.37414E+02 -9.89760E+02 -3.87502E+03  6.67629E+02 -2.34286E+03
  2.65471E+03 -8.09698E+02  2.01131E+03  1.71727E+03  4.66011E+02  2.04513E+03 -1.02220E+02  2.09553E+03
  4.40158E+02  1.33736E+03 -1.61006E+03  1.99713E+02 -1.31494E+03  1.10093E+03 -7.76649E+02  1.24356E+03
 -6.78589E+02  2.00510E+03 -3.44423E+03  7.16849E+02 -3.44755E+03  6.23468E+02 -4.34614E+03 -3.18625E+03
 -1.77256E+03 -4.73848E+03  7.25628E+02 -5.04544E+03  3.30608E+03 -4.81978E+03  5.37744E+03 -2.18650E+03
  4.01536E+03  6.86818E+02  2.63864E+03  3.28360E+03  4.36691E+01  2.38639E+03 -1.21781E+03  2.51267E+03
 -1.24627E+03  1.25292E+03 -9.05583E+02 -1.07467E+02  1.07699E+02 -2.16281E+02 -4.27659E+02  7.64234E+02
 -1.49405E+03 -6.43427E+02 -6.95330E+02 -9.60161E+02  6.82176E+02 -8.69322E+02 -6.23555E+02 -2.60151E+03
  9.27643E+02 -7.78159E+02  9.59490E+02  5.22348E+02  2.26369E+03  1.67227E+03  1.64376E+02  3.13711E+03
 -1.01764E+03  5.45268E+03 -2.74147E+03  1.61210E+03 -3.96050E+03  2.80820E+02 -3.37843E+03 -2.38832E+03
 -5.94752E+02 -1.87386E+03  1.34339E+03 -2.65848E+03  1.80932E+03 -2.02071E+03  2.05919E+03 -1.39002E+02
  9.99448E+02  7.97812E+02 -6.02861E+02  1.50145E+03 -3.22989E+02  2.38879E+02  6.35635E+02 -8.08499E+02
  1.43610E+03  8.85081E+02  2.61230E+03  1.07871E+03 -2.83307E+02  9.34356E+02  2.53443E+02  4.71819E+02
 -1.39917E+03  6.07007E+02 -2.42462E+03 -7.34311E+02 -1.44009E+03 -9.75303E+02  4.35055E+02 -2.62182E+03
  7.32571E+02 -2.22947E+03  2.14440E+03 -7.07586E+02  1.88974E+03  1.33423E+03  1.71165E+03  2.30561E+03
  1.06720E+03  1.03122E+03  3.25667E+01  1.64080E+03 -5.70397E+02  6.32863E+02 -1.35172E+03 -4.10977E+02
 -1.08909E+02 -9.25631E+02 -4.02486E+02 -1.64650E+02 -9.53387E+02  7.86588E+01 -1.86861E+03  1.04797E+02
 -1.36625E+03  5.42553E+01 -6.83248E+02 -2.19852E+03  1.10878E+03 -2.57166E+03  1.86976E+03 -5.61829E+02
  6.99007E+02  5.89233E+02  7.47382E+02  1.79735E+03 -1.26409E+03  1.48958E+03 -9.49208E+02  3.03541E+02
