 $NMID ID='MM_0lb_SNR200_18hz_g60_86.RAW', FMTDAT='(8E13.5)'
 TRAMP=1., VOLUME=1. $END
  3.09196E+05  1.74617E+02  3.37823E+05  2.51666E+05  8.55777E+04  3.37356E+05 -1.32517E+05  2.51039E+05
 -1.91784E+05  8.36139E+04 -1.12328E+05 -3.22352E+04  1.93310E+03 -4.97044E+04  5.38129E+04 -1.20831E+02
  3.52441E+04  5.24670E+04 -1.71142E+04  7.62526E+04 -6.02878E+04  6.44988E+04 -8.32675E+04  3.15238E+04
 -8.07683E+04 -1.08348E+04 -5.61323E+04 -5.10525E+04 -1.48612E+04 -6.91184E+04  2.78184E+04 -4.53574E+04
  3.87644E+04  3.72745E+03  1.67559E+04  4.80303E+04 -3.44658E+04  4.72094E+04 -6.57772E+04  6.45141E+02
 -5.21808E+04 -5.69590E+04 -5.86137E+03 -7.56579E+04  3.29034E+04 -5.38746E+04  4.74268E+04 -1.68551E+04
  4.22385E+04  1.13289E+04  3.19549E+04  2.48620E+04  1.56253E+04  2.95610E+04 -5.14264E+03  2.67951E+04
 -2.20368E+04  1.19638E+04 -1.84185E+04 -4.00853E+03  4.45594E+03 -7.52934E+03  2.18489E+04  1.18133E+04
  7.12507E+03  3.40718E+04 -3.29855E+04  3.48091E+04 -6.34410E+04  2.60599E+03 -5.59125E+04 -4.23215E+04
 -1.25080E+04 -6.26949E+04  3.93397E+04 -4.50425E+04  5.69753E+04 -2.13821E+03  3.35880E+04  3.16739E+04
 -6.49476E+03  3.50386E+04 -2.96297E+04  1.44607E+04 -2.91011E+04 -3.93859E+03 -1.53572E+04 -1.09843E+04
 -8.23102E+03 -1.22881E+04 -8.79786E+02 -1.79298E+04  6.59478E+03 -2.32977E+04  1.66467E+04 -1.33135E+04
  1.11816E+04  5.85940E+03 -8.44862E+03  1.23771E+04 -2.13926E+04 -4.06545E+03 -9.32950E+03 -3.19021E+04
  2.25989E+04 -4.24823E+04  4.68719E+04 -1.97794E+04  4.43384E+04  1.84910E+04  1.58344E+04  4.44693E+04
 -1.53184E+04  3.23164E+04 -2.47957E+04  2.97520E+03 -8.67477E+03 -2.64617E+04  2.13645E+04 -3.28197E+04
  3.93678E+04 -8.90211E+03  3.48415E+04  2.31017E+04  1.62792E+04  4.50381E+04 -7.42791E+03  4.82072E+04
 -3.05025E+04  3.16353E+04 -4.11665E+04  9.24877E+03 -4.06624E+04 -1.62390E+04 -2.24094E+04 -3.57835E+04
  6.16061E+03 -3.68857E+04  3.00393E+04 -1.41800E+04  2.87575E+04  1.08109E+04  3.33356E+03  1.86618E+04
 -1.39022E+04  8.45175E+03 -1.07486E+04 -6.94563E+03  5.68456E+03 -9.08310E+03  1.73666E+04  6.28194E+03
  1.29691E+04  2.13732E+04 -7.07305E+03  2.45257E+04 -2.17034E+04  1.03316E+04 -2.76145E+04 -5.05404E+03
 -1.86746E+04 -1.61737E+04 -7.06305E+03 -1.87585E+04  5.05969E+03 -1.79999E+04  1.51806E+04 -1.60440E+04
  2.46008E+04 -1.25565E+04  3.04035E+04  2.85956E+03  2.26277E+04  1.87158E+04  4.01106E+03  3.36408E+04
 -1.66767E+04  2.90639E+04 -2.71629E+04  1.06616E+04 -2.10451E+04 -9.74605E+03 -5.60117E+03 -1.34217E+04
  2.48295E+03 -3.24435E+03 -3.16320E+03  6.04395E+03 -1.36643E+04  5.51441E+03 -1.42072E+04 -5.82011E+03
 -9.74095E+03 -1.74844E+04  4.75295E+03 -2.02968E+04  1.42658E+04 -1.43406E+04  1.61112E+04 -2.19499E+03
  1.00692E+04  1.22656E+04  1.69945E+02  1.70339E+04 -1.24415E+04  9.91660E+03 -1.80664E+04 -3.76775E+03
 -1.28962E+04 -1.57872E+04 -4.15153E+02 -2.11364E+04  1.04495E+04 -1.68617E+04  1.71999E+04 -8.54074E+03
  1.62996E+04  6.95599E+02  1.14901E+04  4.88380E+03  4.99090E+03  1.02699E+03  8.38373E+03 -8.63954E+02
  1.58752E+04  2.40815E+03  1.71369E+04  1.41759E+04  1.07529E+04  2.78362E+04 -1.95023E+03  2.98806E+04
 -1.79709E+04  2.38863E+04 -2.82446E+04  1.10586E+04 -2.83483E+04 -1.45129E+03 -2.25183E+04 -1.69973E+04
 -1.06218E+04 -2.35010E+04  8.07026E+03 -2.22004E+04  1.91039E+04 -1.11559E+04  1.73106E+04  4.35405E+03
  8.09556E+03  1.23049E+04 -8.00889E+03  1.28299E+04 -1.53833E+04  3.14283E+03 -1.04424E+04 -7.63662E+03
 -9.21285E+02 -1.36351E+04  7.20782E+03 -9.76835E+03  7.72027E+03 -5.25690E+02  1.74210E+03  6.21436E+03
 -6.93533E+03  2.50433E+03 -4.55138E+03 -4.74476E+03  4.29346E+01 -1.13219E+04  8.41682E+03 -1.08976E+04
  1.48963E+04 -5.55127E+03  1.46965E+04  3.02117E+03  1.16616E+04  1.10702E+04  6.02144E+03  1.52162E+04
 -2.29197E+03  1.81700E+04 -1.16265E+04  1.11313E+04 -1.41781E+04  3.27766E+03 -8.95197E+03 -3.50003E+03
 -5.26695E+03 -3.11449E+03  3.45566E+02  1.16967E+03 -1.70824E+03  2.89608E+03 -4.58833E+03  4.13110E+03
 -9.08092E+03 -1.33212E+03 -9.89564E+03 -7.17874E+03 -4.25107E+03 -1.25245E+04  3.84226E+03 -8.91175E+03
  8.02374E+03 -3.66238E+03  6.19253E+03  2.95363E+03 -1.17546E+01  3.00058E+03 -4.06800E+03  8.41724E+01
 -4.75888E+03 -6.19838E+03 -1.85223E+03 -8.41995E+03  4.98672E+03 -8.73763E+03  1.19768E+04 -4.49409E+03
  1.32975E+04  1.04844E+03  1.02715E+04  8.08608E+03  1.88219E+03  8.98554E+03 -5.26570E+03  8.66700E+03
 -8.41247E+03  3.30070E+03 -4.67173E+03 -1.25109E+03  9.96049E+02 -1.22209E+03  4.94670E+03 -1.32556E+03
  4.51305E+03  3.15478E+03  1.18358E+03  6.77019E+03 -6.18971E+03  7.66051E+03 -8.22354E+03  1.81496E+03
 -4.18181E+03 -3.47854E+03  5.17442E+02 -8.10877E+03  4.39362E+03 -4.58379E+03  3.79036E+03  8.95810E+02
  1.02461E+03  4.13205E+03 -3.47862E+03  5.16047E+03 -5.83197E+03  1.43463E+03 -5.61375E+03 -1.30075E+03
 -3.68271E+03 -7.41676E+03  2.20522E+03 -8.25944E+03  6.89682E+03 -5.48217E+03  6.67198E+03  8.73675E+02
  4.73464E+03  5.50509E+03  2.21453E+02  8.53195E+03 -6.20793E+03  4.85251E+03 -7.17117E+03 -2.69187E+02
 -6.34928E+03 -5.88817E+03 -1.75653E+03 -5.26098E+03  2.28838E+03 -4.37435E+03  2.91511E+03 -2.87131E+03
  2.21719E+03  1.01419E+03  1.21701E+02  2.24667E+03  6.80053E+02 -1.21436E+03 -3.23387E+02 -2.81504E+03
  3.63461E+03 -1.45401E+03  7.17829E+03  1.32770E+03  7.12439E+03  2.89762E+03  5.42408E+03  9.06205E+03
 -1.10865E+03  9.47128E+03 -8.31744E+03  6.61829E+03 -1.09014E+04  1.02510E+03 -8.95409E+03 -2.12796E+03
 -3.36603E+03 -6.35531E+03 -8.50057E+02 -6.31070E+03  2.33128E+03 -2.52701E+03  2.46167E+03 -3.23063E+03
  2.27306E+03 -1.66672E+03  2.52280E+03 -2.07433E+03  4.32157E+03 -1.64706E+03  3.07626E+03  5.98045E+02
  4.57672E+03  1.55183E+03  1.12006E+03  3.93619E+03 -1.35148E+03  3.23708E+03 -4.57353E+03  2.90787E+03
 -5.65174E+03 -1.34447E+03 -1.78726E+03 -2.86657E+03  8.59278E+02 -7.23154E+03  2.84914E+03 -6.57956E+03
  6.01416E+03 -3.73364E+03  7.96763E+03  4.75218E+02  5.46695E+03  5.29154E+03  1.42406E+03  6.17804E+03
 -1.79660E+03  7.00319E+03 -4.10599E+03  2.47351E+03 -2.73495E+03 -3.16589E+02 -2.80235E+02 -1.12381E+03
  8.40423E+02 -1.68753E+02 -1.66984E+03  2.60727E+03 -2.99158E+03  1.85678E+03 -4.86594E+03 -6.74047E+02
 -2.28509E+03 -3.80523E+03  6.34098E+02 -4.97224E+03  3.60651E+03 -4.64431E+03  4.55588E+03 -1.20759E+03
  4.36058E+03  2.54605E+03  2.16523E+03  4.07317E+03 -1.62272E+03  5.92850E+03 -2.55979E+03  4.38361E+03
 -4.49917E+03  1.00498E+03 -4.13459E+03 -2.24709E+03 -7.20742E+02 -4.40514E+03  3.17304E+03 -2.66430E+03
  2.02017E+03 -1.14594E+03  1.48964E+03  1.26833E+03 -5.27455E+02  1.62927E+03  1.67972E+03  5.88841E+02
  1.15559E+03  4.10526E+02  1.55392E+03  3.36727E+02  3.58062E+02  2.51085E+03  6.98870E+02  1.34091E+03
 -1.71494E+03  3.42113E+03 -3.13778E+03  4.41886E+03 -3.71335E+03  1.67662E+03 -4.20355E+03 -1.10860E+03
 -1.59824E+03 -4.38629E+03  1.40356E+03 -6.10879E+03  1.45134E+03 -1.84578E+03  4.04592E+03 -1.07903E+03
  2.97909E+03  1.62144E+03  1.03804E+03  1.18348E+03 -1.59766E+03  1.60870E+03 -7.26723E+02  4.44090E+02
 -8.16612E+01 -2.82219E+03  6.40301E+02 -2.50128E+03  1.63566E+03 -1.04381E+03  1.30092E+03  1.31832E+03
  6.12402E+02  7.49993E+02  1.13458E+03 -8.18579E+02 -2.39445E+02  1.34431E+03  1.89531E+03  1.05957E+02
 -3.63467E+02 -1.16595E+03  2.28282E+03  9.44039E+02  1.32897E+03  2.26237E+03 -7.51133E+02  3.74031E+03
 -2.28778E+03  6.22426E+02 -2.65756E+03  6.28452E+02 -2.06316E+03 -7.60454E+02  1.78755E+02 -1.82931E+03
  1.17462E+03 -8.91473E+02  1.87173E+03 -1.02370E+03  2.67812E+02  9.28883E+02 -9.82277E+02  2.00808E+03
 -2.43867E+03  9.87816E+02 -2.28489E+03 -1.68977E+03 -8.88745E+02 -2.38202E+03 -4.17997E+02 -2.75930E+03
  2.31373E+02 -9.48735E+02  1.11028E+03 -3.08845E+02  1.34969E+03 -4.82299E+02  1.72890E+03  9.52330E+02
 -3.26147E+02 -1.13976E+03 -5.23232E+02 -2.24395E+02  1.57494E+03 -1.91286E+03  2.81598E+03 -1.13106E+03
  1.43481E+03  6.72244E+02  1.85750E+03  5.79647E+02  1.70804E+03  2.86580E+03  1.07815E+02  2.05130E+03
 -1.27785E+03  4.88946E+02 -4.23561E+02 -1.65411E+01 -1.19055E+03 -1.78232E+03  8.88053E+02 -4.87549E+02
  1.56482E+03 -7.67489E+02  9.48861E+02 -2.59012E+02 -1.28096E+02  6.86493E+02  3.96344E+01  1.39216E+03
 -1.72003E+03  1.01386E+03  3.72990E+02  7.73336E+02 -1.49425E+03  6.26185E+02 -7.15437E+02  9.97232E+02
 -9.58612E+02  1.46046E+03 -1.00693E+03  9.87417E+02 -1.09798E+03 -1.36621E+03 -2.16701E+03 -1.78889E+03
 -2.10406E+03 -3.49822E+03  1.27064E+03 -2.66407E+03  6.07462E+02 -1.64924E+03  2.47316E+03 -5.55808E+02
  2.70592E+03 -1.44235E+03  2.78337E+02  2.34420E+02  4.80716E+02  1.36574E+03  2.64785E+02  2.08800E+03
  2.24123E+02  1.37340E+03 -1.58351E+03 -1.98262E+01 -1.68094E+03  4.27862E+02 -1.39540E+03 -3.38907E+02
 -9.57740E+02  8.56036E+02 -1.16208E+03 -1.22715E+03  4.61689E+02 -8.25101E+02  2.93967E+02 -1.82928E+03
  9.84215E+02 -1.14621E+03  7.15557E+02  6.89460E+02  2.00360E+03  1.02956E+03 -6.93974E+02  1.40711E+03
 -1.03494E+03  2.34290E+03 -1.23505E+03  1.86427E+03 -1.78036E+03  3.10246E+02 -9.27230E+02 -2.10148E+02
 -1.51346E+03 -9.64115E+02  6.62070E+02 -1.45862E+03  4.98943E+02 -8.93375E+02  1.03217E+03  9.45776E+02
  1.49545E+03 -6.03329E+02  9.51018E+02  3.52059E+02 -5.93000E+02 -2.02367E+02  2.86811E+02 -3.64020E+02
 -1.28346E+03  6.99218E+02  5.60166E+02 -7.69350E+02  5.29023E+02  1.30793E+03  1.38390E+03  5.92681E+02
 -6.21238E+02  9.08356E+02 -7.15667E+02 -4.61256E+01 -7.19818E+02 -1.24174E+03  1.02297E+03 -1.12968E+03
  9.09404E+02 -5.86792E+01  9.32649E+02  3.58438E+02  1.74062E+03 -1.14027E+03  1.06072E+03  1.92072E+03
  8.06783E+01  1.09016E+02 -8.63295E+01  6.89071E+02  5.31304E+00  9.83206E+02 -2.35433E+02  2.91010E+02
 -2.19324E+02  2.03519E+02  6.40884E+02 -5.21623E+02 -1.26119E+03 -3.14440E+02  3.12254E+02  4.78848E+02
 -7.93538E+02  8.33418E+02  6.53938E+02  3.82413E+02  1.61612E+02 -1.00068E+03  6.70757E+02 -8.50769E+02
  6.42272E+02  9.77390E+02  5.00310E+02  6.39735E+02  6.36292E+02  9.29127E+00 -9.84427E+02  8.34429E+02
