 $NMID ID='MM_0lb_SNR200_18hz_g40_4.RAW', FMTDAT='(8E13.5)'
 TRAMP=1., VOLUME=1. $END
  3.09821E+05  7.93608E+02  3.37993E+05  2.50152E+05  8.44809E+04  3.36877E+05 -1.32970E+05  2.50923E+05
 -1.89433E+05  8.29048E+04 -1.11014E+05 -3.30405E+04  2.02347E+03 -5.00884E+04  5.42178E+04  1.54534E+02
  3.51460E+04  5.26320E+04 -1.80855E+04  7.60383E+04 -5.99999E+04  6.26467E+04 -8.27453E+04  3.24598E+04
 -7.93386E+04 -1.12197E+04 -5.59186E+04 -4.99502E+04 -1.44561E+04 -6.80826E+04  2.55705E+04 -4.50973E+04
  3.83964E+04  4.30049E+03  1.57568E+04  4.73018E+04 -3.40531E+04  4.60079E+04 -6.48081E+04  7.43483E+01
 -5.15714E+04 -5.66578E+04 -6.60405E+03 -7.46161E+04  3.28725E+04 -5.30846E+04  4.63636E+04 -1.71755E+04
  4.15565E+04  1.19188E+04  3.08712E+04  2.40444E+04  1.54074E+04  2.67987E+04 -3.57702E+03  2.73350E+04
 -2.12896E+04  1.25834E+04 -1.92070E+04 -4.57840E+03  3.89121E+03 -6.86586E+03  2.13589E+04  1.07058E+04
  7.70434E+03  3.26031E+04 -3.07705E+04  3.36715E+04 -6.07471E+04  3.34179E+03 -5.53687E+04 -4.02537E+04
 -1.22982E+04 -6.06530E+04  3.83835E+04 -4.28267E+04  5.46234E+04 -2.40472E+03  3.23508E+04  2.94025E+04
 -6.54891E+03  3.31371E+04 -2.93474E+04  1.33842E+04 -2.75588E+04 -5.45165E+03 -1.46805E+04 -1.00912E+04
 -7.19023E+03 -1.09414E+04 -1.41595E+03 -1.69953E+04  6.70355E+03 -2.22231E+04  1.51408E+04 -1.37667E+04
  1.17593E+04  5.21939E+03 -5.92792E+03  1.33576E+04 -1.99500E+04 -1.84400E+03 -7.49358E+03 -3.08197E+04
  2.10273E+04 -3.98191E+04  4.34193E+04 -1.83421E+04  4.19719E+04  1.79301E+04  1.42342E+04  4.11633E+04
 -1.62196E+04  3.05841E+04 -2.47475E+04  4.01711E+02 -8.85255E+03 -2.65888E+04  2.07092E+04 -3.13915E+04
  3.68667E+04 -7.17923E+03  3.12904E+04  2.34061E+04  1.59318E+04  4.12074E+04 -7.54459E+03  4.39731E+04
 -2.83544E+04  2.93804E+04 -3.64914E+04  7.96067E+03 -3.82869E+04 -1.37139E+04 -2.09595E+04 -3.32297E+04
  7.62092E+03 -3.44568E+04  2.92806E+04 -1.13088E+04  2.61242E+04  1.03823E+04  3.50208E+03  1.81723E+04
 -1.36229E+04  6.66682E+03 -8.81588E+03 -7.90825E+03  6.23792E+03 -1.01003E+04  1.79720E+04  6.33317E+03
  1.23808E+04  2.21942E+04 -6.79910E+03  2.36720E+04 -2.02674E+04  1.02781E+04 -2.49516E+04 -6.58179E+03
 -1.73420E+04 -1.57441E+04 -5.80041E+03 -1.59771E+04  4.08732E+03 -1.37346E+04  1.17024E+04 -1.50164E+04
  2.07093E+04 -1.06225E+04  2.82555E+04  1.54795E+03  2.11179E+04  1.64052E+04  4.28804E+03  3.25283E+04
 -1.69076E+04  2.83768E+04 -2.60698E+04  1.03719E+04 -1.99135E+04 -1.01657E+04 -3.74202E+03 -1.39029E+04
  1.72158E+03 -3.56137E+03 -3.12059E+03  4.02099E+03 -1.30776E+04  4.42692E+03 -1.27766E+04 -4.54819E+03
 -8.74559E+03 -1.57404E+04  4.48408E+03 -1.94989E+04  1.21732E+04 -1.48935E+04  1.42565E+04 -7.26390E+01
  8.38393E+03  1.03944E+04 -1.01934E+00  1.65611E+04 -1.00250E+04  7.67315E+03 -1.61814E+04 -2.96591E+03
 -1.03717E+04 -1.34878E+04 -1.34430E+03 -1.74218E+04  9.45801E+03 -1.46548E+04  1.61894E+04 -6.93714E+03
  1.40052E+04 -3.19582E+02  9.44501E+03  3.38958E+03  4.89790E+03  6.96767E+02  7.12093E+03 -1.11622E+03
  1.27798E+04  2.26547E+03  1.37488E+04  1.30169E+04  8.14713E+03  2.37904E+04 -2.97605E+03  2.63898E+04
 -1.61781E+04  1.97846E+04 -2.40124E+04  9.26921E+03 -2.40116E+04 -1.37617E+03 -2.21599E+04 -1.44055E+04
 -1.01090E+04 -2.02342E+04  6.34473E+03 -1.90763E+04  1.69254E+04 -1.08063E+04  1.50989E+04  3.72260E+03
  6.86596E+03  1.13179E+04 -6.27010E+03  1.12203E+04 -1.22819E+04  2.09167E+03 -1.16302E+04 -8.50995E+03
  5.27109E+02 -1.19704E+04  6.62436E+03 -9.31437E+03  7.78779E+03 -1.27531E+03  1.59214E+03  4.49324E+03
 -4.65425E+03  2.39379E+02 -3.35185E+03 -5.55500E+03  6.03806E+02 -1.05190E+04  7.95160E+03 -9.50900E+03
  1.20354E+04 -4.00385E+03  1.15609E+04  3.11884E+03  9.80157E+03  8.87843E+03  3.87201E+03  1.38061E+04
 -2.54915E+03  1.50348E+04 -9.65366E+03  1.07829E+04 -1.15175E+04  2.40818E+03 -8.79125E+03 -2.09464E+03
 -3.89932E+03 -2.49511E+03 -1.93236E+03  2.18246E+03 -1.56287E+03  8.06005E+02 -3.95112E+03  2.09015E+03
 -7.43675E+03  6.18583E+01 -8.98016E+03 -8.54854E+03 -3.22483E+03 -1.13726E+04  3.77220E+03 -8.86214E+03
  8.07812E+03 -4.04939E+03  5.73643E+03  1.61586E+03  6.58292E+02  2.62233E+03 -2.80964E+03  1.36494E+03
 -4.43678E+03 -5.04857E+03 -7.60203E+02 -7.05742E+03  4.09818E+03 -6.38742E+03  1.01406E+04 -3.38129E+03
  1.30072E+04  9.94849E+01  8.73719E+03  6.35348E+03  1.47983E+03  7.97336E+03 -4.11277E+03  7.70161E+03
 -6.16379E+03  3.68230E+03 -4.57913E+03 -1.16363E+03  1.39354E+03 -1.33780E+03  5.44997E+03 -1.07133E+03
  3.38657E+03  3.40110E+03  1.23631E+03  6.49430E+03 -5.21713E+03  5.48515E+03 -7.76483E+03  1.92087E+03
 -4.42362E+03 -3.56763E+03  2.17016E+02 -6.76193E+03  3.72588E+03 -2.71365E+03  4.16237E+03  4.94196E+02
  9.79154E+02  3.49916E+03 -4.05208E+03  5.41239E+03 -4.61380E+03  2.85092E+03 -4.48636E+03 -9.88841E+02
 -2.05249E+03 -5.97225E+03  1.45156E+02 -7.00834E+03  6.10374E+03 -4.73195E+03  6.25903E+03  1.40661E+03
  4.88238E+03  5.99740E+03  8.77520E+02  8.11328E+03 -4.54130E+03  4.41496E+03 -5.45200E+03  3.24456E+02
 -6.93512E+03 -4.42007E+03 -9.99492E+02 -4.45338E+03  1.70632E+03 -5.77487E+03  1.93563E+03 -3.66410E+03
  4.15786E+03  9.82080E+02 -5.34666E+02 -1.49322E+02  4.04371E+02 -6.57272E+02  8.60878E+02 -2.03417E+03
  4.58297E+03  7.52872E+02  5.72658E+03  7.41504E+02  5.74100E+03  3.15890E+03  5.98419E+03  8.61079E+03
 -1.65531E+03  8.13238E+03 -7.97465E+03  6.68343E+03 -9.23145E+03  1.57055E+03 -9.49635E+03 -1.79845E+03
 -4.24233E+03 -6.57329E+03  1.70681E+02 -5.68270E+03  2.09328E+03 -3.16890E+03  1.15465E+03 -2.91482E+03
  7.35973E+02 -2.14895E+03  2.44462E+03 -2.49053E+03  4.20059E+03 -2.08524E+03  3.92483E+03  1.41727E+03
  3.71040E+03  1.83964E+02  1.88802E+03  3.12298E+03 -2.65046E+03  2.59510E+03 -4.66179E+03  3.16902E+03
 -5.09360E+03 -1.27648E+03 -1.61764E+03 -3.56304E+03  4.39634E+02 -4.90593E+03  2.37345E+03 -5.92182E+03
  4.83377E+03 -2.30052E+03  6.02478E+03  5.97763E+02  5.53283E+03  5.12452E+03 -1.53270E+02  6.51971E+03
 -3.18499E+03  5.07128E+03 -3.89426E+03  1.11203E+03 -2.10027E+03 -1.93968E+01 -3.83154E+02  4.77875E+01
 -8.06575E+02  1.08132E+03 -1.39879E+03  1.93708E+03 -2.43039E+03  6.01906E+02 -4.64080E+03 -1.63578E+03
 -1.78016E+03 -4.00053E+03 -2.97756E+02 -4.98411E+03  3.59869E+03 -5.50108E+03  3.73783E+03 -1.40551E+03
  3.87623E+03  2.22860E+03  1.62244E+03  2.94281E+03 -9.04538E+02  4.98267E+03 -2.75182E+03  2.87652E+03
 -3.64229E+03  5.86914E+02 -4.85350E+03 -1.86108E+03 -1.13757E+02 -3.70653E+03  4.26367E+02 -2.22706E+03
  3.45695E+03 -1.63200E+03  1.87355E+03  9.49088E+02 -2.35301E+02  2.22010E+03  4.13903E+02  6.11005E+02
  2.09658E+03  7.63949E+02  1.31085E+03  1.33381E+03  1.78233E+03  2.04425E+03  6.95628E+02  1.06822E+03
 -1.71544E+03  2.63956E+03 -2.58615E+03  4.13281E+03 -3.40204E+03  1.62666E+03 -3.73089E+03 -7.90861E+02
 -1.74950E+03 -3.49060E+03 -3.30721E+02 -5.25779E+03  1.82652E+03 -3.63064E+03  3.60680E+03 -1.07858E+03
  2.37893E+03  2.11837E+03  5.09878E+02  2.71344E+03 -4.49695E+02  2.21395E+03 -2.45855E+02 -9.79715E+02
 -7.45696E+02 -2.31674E+03  1.32472E+03 -1.76557E+03  1.16553E+03 -3.40651E+02  9.86216E+02  5.54507E+02
  9.46226E+02  3.19514E+02  3.70276E+02 -1.27930E+02  2.68868E+02  7.03769E+02  2.41021E+03 -3.59328E+02
 -4.21844E+02 -6.65534E+02  1.77031E+03 -9.17681E+01  7.26477E+02  3.28501E+03 -8.52357E+02  3.14198E+03
 -1.85142E+03  1.53931E+03 -2.55358E+03  5.95892E+02 -1.61595E+03 -3.45463E+02 -2.35726E+02 -1.22024E+03
  1.24922E+03 -1.18667E+03  1.67836E+03 -1.36674E+03  8.09280E+02  1.25983E+03 -1.48029E+03  1.23678E+03
 -1.79715E+03  3.91981E+02 -6.23563E+02 -1.70082E+03 -2.52949E+03 -2.61060E+03 -8.55635E+02 -1.47970E+03
  7.66517E+02 -1.16316E+03  1.59827E+03 -1.00116E+02  1.89232E+03  1.94602E+02 -2.13561E+02  1.27140E+03
  9.78481E+01  3.55870E+02 -5.56123E+02 -8.80528E+02  1.19901E+02 -8.15880E+02  1.83691E+03 -5.81530E+02
  1.53867E+02 -9.32982E+01  3.07521E+03  1.04886E+03  9.09216E+02  2.70813E+03  3.81196E+02  2.39529E+03
 -2.14549E+03  7.44005E+02 -1.09775E+03  2.50101E+00 -1.15598E+03 -1.73331E+03  1.41740E+03 -9.33141E+02
  1.17341E+03 -6.44927E+02  2.70892E+03  1.61016E+03 -4.19227E+02  1.65869E+03  1.09093E+03  9.94054E+02
  1.59399E+02  1.62237E+03  5.41489E+02  7.46547E+02 -8.28533E+02 -9.32534E+02 -1.33131E+03  6.19109E+02
 -9.25347E+02  7.28252E+01 -1.86580E+03  1.28760E+03 -1.66427E+03  5.66760E+02 -1.81048E+03 -7.47276E+02
 -1.12385E+03 -2.82732E+03  1.07798E+02 -3.39338E+03  1.39675E+03 -2.35583E+03  4.03972E+03  6.71728E+01
  3.46767E+03 -1.33507E+03  1.10577E+03  1.07156E+03 -1.27026E+02  4.20530E+02 -5.60460E+02  1.17772E+03
 -1.30301E+03  5.12002E+02  1.96332E+01  2.67219E+02 -6.36080E+02  1.31887E+03 -6.06537E+02  2.88662E+01
 -6.62989E+02  3.81304E+01 -1.75554E+03  3.67563E+02  3.77852E+02 -8.48225E+02  2.02571E+02 -1.68561E+03
  2.27984E+03 -1.37508E+03  7.04229E+02 -1.43880E+02  1.21896E+03  1.12966E+03 -2.22712E+02  2.60747E+03
 -3.27368E+02  2.67937E+03 -2.22968E+03  2.08448E+03 -2.00607E+03 -2.96912E+02 -1.33860E+03 -6.58603E+02
  4.08016E+02 -2.21862E+03  1.50411E+03 -1.48048E+03  8.69645E+02 -8.26716E+02  1.15133E+03  1.42031E+03
  1.37248E+03 -6.33293E+02 -6.00380E+02  9.87044E+02 -9.05784E+02 -1.45003E+03 -1.16645E+02 -1.43900E+02
  4.65254E+02 -1.30832E+03  9.23749E+02 -1.66289E+02  2.56382E+02  1.03088E+03  1.38448E+03 -8.63354E+00
 -1.11563E+03  6.07062E+02 -9.54426E+02 -1.41003E+03 -2.96473E+02 -7.46581E+02 -1.56825E+02 -2.16418E+03
  6.34611E+02 -5.19796E+02 -2.52263E+02  5.80280E+02  2.36559E+02 -9.13776E+02  1.26404E+03  1.08595E+03
  1.00326E+03  1.15091E+03  2.23598E+02  8.93192E+02 -1.07880E+03  1.18105E+03 -7.33779E+02 -6.73135E+00
 -8.40234E+02 -9.28501E+02 -6.15913E+02 -1.55646E+02 -2.76243E+02  3.65782E+02 -9.35998E+02  6.12947E+02
 -1.49280E+03 -9.14798E+02  8.84964E+01 -1.01016E+03  3.00202E+02 -6.19035E+02  1.25673E+03 -9.13169E+01
  1.02495E+03 -9.66768E+01  8.49485E+02  1.33735E+03  1.51711E+02  1.09747E+03  6.44951E+02  3.32204E+02
