 $NMID ID='MM_0lb_SNR200_15hz_g50_11.RAW', FMTDAT='(8E13.5)'
 TRAMP=1., VOLUME=1. $END
  3.09933E+05 -5.43612E+02  3.37350E+05  2.51210E+05  8.48610E+04  3.38747E+05 -1.32369E+05  2.50812E+05
 -1.90486E+05  8.32853E+04 -1.11328E+05 -3.18895E+04  1.35903E+03 -5.09955E+04  5.40688E+04 -5.06745E+02
  3.49386E+04  5.27675E+04 -1.72414E+04  7.58300E+04 -6.12672E+04  6.22516E+04 -8.39035E+04  3.29536E+04
 -7.94993E+04 -1.21926E+04 -5.59297E+04 -5.15967E+04 -1.40148E+04 -6.91206E+04  2.86113E+04 -4.67540E+04
  3.99218E+04  4.70349E+03  1.63175E+04  4.87409E+04 -3.44592E+04  4.69264E+04 -6.66625E+04  1.11026E+02
 -5.34974E+04 -5.71112E+04 -6.96858E+03 -7.62769E+04  3.31258E+04 -5.36101E+04  4.84477E+04 -1.66439E+04
  4.31817E+04  1.02598E+04  3.13478E+04  2.50034E+04  1.54924E+04  2.99526E+04 -6.08946E+03  2.71518E+04
 -2.24654E+04  1.18842E+04 -1.77829E+04 -4.23197E+03  5.75838E+03 -8.10353E+03  2.21211E+04  1.19344E+04
  6.90694E+03  3.45786E+04 -3.15689E+04  3.48693E+04 -6.42238E+04  2.27766E+03 -5.59377E+04 -4.27156E+04
 -1.31297E+04 -6.12669E+04  4.03511E+04 -4.50328E+04  5.69712E+04 -2.35659E+03  3.36386E+04  3.11814E+04
 -6.88205E+03  3.61828E+04 -3.04418E+04  1.48180E+04 -3.04731E+04 -4.79878E+03 -1.57447E+04 -1.08883E+04
 -8.81302E+03 -1.29531E+04 -6.27784E+01 -1.74525E+04  7.01335E+03 -2.33314E+04  1.56257E+04 -1.25443E+04
  1.16786E+04  5.42773E+03 -8.21612E+03  1.28662E+04 -2.14637E+04 -4.62537E+03 -7.96501E+03 -3.36988E+04
  2.14219E+04 -4.21128E+04  4.74113E+04 -1.98564E+04  4.32652E+04  1.91970E+04  1.83259E+04  4.48561E+04
 -1.55608E+04  3.28733E+04 -2.53494E+04  2.72969E+03 -9.28537E+03 -2.78752E+04  2.06935E+04 -3.34489E+04
  4.03202E+04 -7.91759E+03  3.46601E+04  2.33211E+04  1.84165E+04  4.56540E+04 -7.71084E+03  5.01546E+04
 -3.24823E+04  3.39485E+04 -4.09717E+04  8.73091E+03 -4.07479E+04 -1.60801E+04 -2.36552E+04 -3.75298E+04
  7.38217E+03 -3.81831E+04  3.16819E+04 -1.44868E+04  2.84344E+04  1.08450E+04  3.39787E+03  1.90063E+04
 -1.28235E+04  7.03545E+03 -9.59872E+03 -8.33168E+03  5.80282E+03 -1.06032E+04  1.73992E+04  4.61967E+03
  1.45065E+04  2.22235E+04 -6.50693E+03  2.47426E+04 -2.24417E+04  1.16373E+04 -2.66716E+04 -4.94902E+03
 -1.98809E+04 -1.69759E+04 -8.31414E+03 -1.98230E+04  4.02870E+03 -1.85883E+04  1.53067E+04 -1.81172E+04
  2.54935E+04 -1.18638E+04  3.19675E+04  3.64856E+03  2.36285E+04  1.99056E+04  4.08738E+03  3.51641E+04
 -1.64450E+04  3.02278E+04 -2.83122E+04  1.06476E+04 -2.21697E+04 -1.01655E+04 -3.98270E+03 -1.45379E+04
  1.51834E+03 -1.87175E+03 -5.66738E+03  7.42494E+03 -1.67950E+04  5.63159E+03 -1.60407E+04 -6.46622E+03
 -1.02879E+04 -1.89257E+04  5.60812E+03 -2.20623E+04  1.42342E+04 -1.62974E+04  1.74857E+04 -1.49025E+03
  1.03998E+04  1.19170E+04 -5.50682E+02  1.76847E+04 -1.32894E+04  9.80720E+03 -1.83589E+04 -3.13640E+03
 -1.36337E+04 -1.78373E+04 -1.46579E+03 -2.13778E+04  1.00519E+04 -1.90581E+04  1.81108E+04 -8.29185E+03
  1.70051E+04  6.07877E+02  1.23979E+04  3.70865E+03  6.18615E+03  1.31644E+02  9.10357E+03 -2.29552E+03
  1.70510E+04  2.84799E+03  1.79932E+04  1.44216E+04  1.16001E+04  2.85735E+04 -2.79867E+03  3.26985E+04
 -2.02825E+04  2.59973E+04 -2.97373E+04  1.34033E+04 -3.26908E+04 -2.73314E+03 -2.64337E+04 -1.80928E+04
 -1.17162E+04 -2.60179E+04  9.30239E+03 -2.47262E+04  1.84584E+04 -1.15852E+04  1.87710E+04  4.74794E+03
  7.38610E+03  1.45249E+04 -9.15927E+03  1.23958E+04 -1.47616E+04  1.61445E+03 -1.13304E+04 -8.68081E+03
 -6.07511E+01 -1.55791E+04  7.70634E+03 -1.20627E+04  1.01944E+04 -9.80879E+02  1.44073E+03  6.37199E+03
 -6.80302E+03  2.67845E+03 -4.88301E+03 -6.22700E+03  5.41709E+01 -1.19568E+04  8.55202E+03 -1.39387E+04
  1.65432E+04 -7.70922E+03  1.65128E+04  2.63686E+03  1.40192E+04  1.33559E+04  7.23952E+03  1.99243E+04
 -3.35126E+03  2.07390E+04 -1.30189E+04  1.46354E+04 -1.57662E+04  2.41961E+03 -1.02837E+04 -2.49821E+03
 -4.63447E+03 -4.28866E+03 -7.49343E+02  1.44287E+03 -2.20759E+03  2.34860E+03 -4.10774E+03  4.34270E+03
 -9.81683E+03 -2.86707E+03 -1.02785E+04 -8.99022E+03 -5.32444E+03 -1.36089E+04  4.58494E+03 -1.02102E+04
  9.17123E+03 -4.50470E+03  6.21314E+03  3.82660E+03 -2.00151E+03  3.75961E+03 -5.72720E+03  1.76060E+02
 -4.54504E+03 -6.75452E+03 -1.74666E+03 -1.17200E+04  6.15725E+03 -1.06019E+04  1.30011E+04 -5.00956E+03
  1.54619E+04  1.57124E+03  1.14717E+04  8.47559E+03  2.06459E+03  1.17058E+04 -6.33360E+03  9.32876E+03
 -9.35812E+03  3.02399E+03 -4.66595E+03 -1.70786E+03  2.02583E+03 -1.60753E+03  4.67133E+03 -1.38266E+03
  5.54248E+03  4.02773E+03  1.13456E+03  8.52904E+03 -6.32155E+03  8.86218E+03 -1.11705E+04  1.87146E+03
 -7.04005E+03 -6.04931E+03  4.53416E+02 -7.75470E+03  5.06472E+03 -4.20593E+03  5.31451E+03  2.31842E+03
  3.32168E+02  6.53247E+03 -5.23260E+03  8.04471E+03 -6.69549E+03  2.54612E+03 -8.25608E+03 -2.00161E+03
 -5.16588E+03 -1.03293E+04  2.40408E+03 -1.00723E+04  9.33775E+03 -6.58237E+03  9.62568E+03  1.74556E+03
  6.88217E+03  7.05847E+03 -4.63406E+02  9.33069E+03 -6.39147E+03  6.65959E+03 -6.94856E+03 -6.14587E+02
 -7.08038E+03 -5.83950E+03 -1.45464E+03 -7.17017E+03  3.87037E+03 -5.76718E+03  4.22904E+03 -3.08499E+03
  2.31431E+03  1.84610E+03 -1.46716E+03  7.17052E+02 -3.58345E+02 -1.16566E+03 -6.40963E+01 -3.34800E+03
  6.19919E+03 -1.35474E+03  9.03139E+03  2.10343E+01  8.54627E+03  5.07149E+03  5.26848E+03  1.08536E+04
 -1.83632E+03  1.33077E+04 -1.08473E+04  9.64312E+03 -1.42869E+04  2.42509E+03 -1.07798E+04 -2.86233E+03
 -5.35083E+03 -8.98343E+03  4.20365E+02 -8.78853E+03  2.63531E+03 -3.06899E+03  2.89662E+03 -3.28994E+03
  2.44304E+03 -1.10256E+03  3.42552E+03 -3.30002E+03  3.19214E+03 -2.05095E+03  5.28557E+03  1.57897E+02
  6.40847E+03  1.92292E+03  1.85624E+03  4.84314E+03 -1.29107E+03  5.63346E+03 -6.44188E+03  4.25149E+03
 -6.34945E+03 -1.67050E+03 -3.39780E+03 -5.63667E+03 -1.74027E+02 -7.14903E+03  4.94976E+03 -7.18157E+03
  8.50723E+03 -3.60121E+03  1.01165E+04  4.01054E+02  7.06843E+03  7.02696E+03  4.97640E+02  8.66874E+03
 -5.11819E+03  7.86271E+03 -5.37874E+03  3.26765E+03 -3.58753E+03 -1.06053E+03 -1.77743E+03 -8.15584E+02
  2.12180E+02 -9.76851E+01 -1.52416E+03  2.08964E+03 -3.26604E+03  1.63945E+03 -4.64634E+03 -4.05504E+02
 -3.38022E+03 -5.66202E+03  6.75403E+02 -7.14859E+03  3.42477E+03 -7.24820E+03  6.34184E+03 -1.57510E+03
  7.30255E+03  2.98103E+03  3.22973E+03  5.36988E+03 -1.30819E+03  6.29854E+03 -5.26335E+03  4.87641E+03
 -6.91050E+03  8.76507E+01 -5.84334E+03 -4.22427E+03 -1.02198E+03 -5.87251E+03  3.79904E+03 -5.17160E+03
  4.15692E+03 -1.70731E+03  3.30334E+03  6.34361E+02  1.30128E+03  2.46161E+03  6.27450E+02  6.07970E+02
  2.10730E+02 -2.31032E+02  1.18747E+03  1.04752E+03  1.71177E+03  3.69136E+03  2.84468E+03  2.46736E+03
 -1.85067E+03  5.22667E+03 -4.56181E+03  5.94539E+03 -5.22394E+03  1.97166E+03 -6.96311E+03 -2.06470E+03
 -3.62807E+03 -6.53296E+03  1.81374E+03 -7.80365E+03  4.07716E+03 -5.87416E+03  5.30109E+03 -1.15471E+03
  4.64414E+03  3.11339E+03  5.32448E+02  4.19794E+03 -2.63199E+03  1.90658E+03 -3.02347E+03 -3.27906E+02
 -1.15653E+03 -2.64845E+03  1.28777E+03 -2.08616E+03  1.40989E+03 -1.42251E+03  2.40469E+03 -1.84973E+01
  4.10007E+02  9.46029E+02  7.70802E+02 -7.59373E+02  3.48732E+02  4.06846E+02  1.24511E+03 -2.62356E+01
 -6.05720E+02  2.10088E+01  2.41849E+03  3.00821E+01  8.80653E+02  2.53082E+03 -6.74347E+02  5.06323E+03
 -3.25564E+03  2.59276E+03 -3.68544E+03  7.07253E+02 -3.73665E+03 -1.20255E+03 -1.62508E+03 -1.27932E+03
  2.97527E+02 -2.09919E+03  1.95364E+03 -7.91554E+02  9.80396E+02  1.19395E+03 -6.90193E+02  2.57521E+03
 -3.57212E+03  1.61658E+03 -2.34564E+03 -2.23455E+03 -1.06367E+03 -3.70319E+03  4.37965E+02 -4.05153E+03
  1.74496E+03 -1.89325E+03  2.41285E+03 -2.44159E+03  2.21404E+03  5.70221E+02  8.81720E+02  1.72940E+03
 -7.39017E+02 -3.59133E+02 -1.28987E+03 -5.83369E+02  1.09815E+03 -1.77802E+03  3.06227E+03 -1.85965E+03
  2.68218E+03  2.02731E+02  3.58461E+03  2.01910E+03  1.37134E+03  3.83524E+03 -1.27330E+03  3.32968E+03
 -4.13529E+03  9.91548E+02 -2.76154E+03 -7.34639E+02 -2.05814E+03 -2.97759E+03  9.60884E+02 -2.53316E+03
  2.90185E+03 -2.17459E+03  1.29107E+03  2.57870E+02  1.38925E+03  2.29719E+03  1.33467E+01  3.01766E+03
 -7.68707E+02  1.76546E+03 -1.22775E+03  4.98813E+02 -5.74664E+02  9.43131E+02  4.15693E+02  6.28799E+02
 -6.69526E+02  9.43425E+02 -1.56801E+03  1.10152E+03 -3.25667E+03 -1.39984E+03 -4.53309E+03 -1.79410E+03
 -2.88813E+03 -4.85610E+03  1.68018E+03 -5.73557E+03  3.38619E+03 -4.57334E+03  5.13715E+03 -1.71123E+03
  5.38271E+03  8.78972E+02  2.19726E+03  3.24568E+03  2.06605E+01  2.92264E+03 -1.74156E+03  3.06776E+03
 -1.89784E+03  1.77838E+03 -8.12025E+01  1.91683E+02 -1.18334E+03 -7.74240E+02  5.80453E+02 -8.64932E+02
 -8.56217E+02  1.73789E+03 -1.57360E+03  7.60457E+02  7.41484E+02 -1.59054E+03  2.17803E+02 -6.15760E+02
  5.53579E+02 -1.14184E+03  1.10752E+03  6.66798E+02  1.58603E+03  2.90526E+03  3.09341E+02  3.73399E+03
 -2.30796E+03  3.90928E+03 -3.47885E+03  2.63795E+03 -4.12932E+03 -8.76861E+02 -3.36117E+03 -3.51644E+03
 -5.64376E+02 -2.90024E+03  1.50778E+02 -2.70877E+03  1.58817E+03 -5.72579E+02  2.29103E+03  6.42218E+02
  9.81386E+02 -1.52425E+02 -5.11406E+02  2.56817E+02  9.27618E+01  4.82327E+02 -6.89376E+02 -5.90270E+02
  2.08801E+03 -1.17025E+03  9.48312E+02  5.18666E+01 -3.07832E+02  2.39603E+03  1.73955E+03  1.95520E+03
 -6.25230E+02  1.37021E+03 -2.22759E+03 -2.16307E+02 -1.66278E+03 -1.88110E+03  8.18761E+02 -3.10948E+03
  1.43314E+03 -1.75721E+03  1.69683E+03 -3.21956E+02  2.53631E+03 -1.02959E+03  1.67146E+03  2.24121E+03
  7.24760E+02  2.21071E+03 -2.23500E+02  8.43341E+02 -2.02728E+03  5.84932E+02 -1.77941E+03  5.50194E+02
 -3.72542E+02 -4.44600E+02 -6.86603E+02  4.41835E+02 -9.61148E+02 -7.52989E+02 -1.23772E+03 -1.01112E+03
 -2.17040E+03  5.71254E+01 -8.27463E+02 -2.98942E+03  2.03154E+03 -2.53863E+03  1.12443E+03 -1.86043E+02
  2.03128E+03 -2.67198E+02 -2.04702E+02  2.70059E+02  7.80336E+02  1.60457E+03 -1.30025E+03  1.51533E+03
