 $NMID ID='MM_0lb_SNR200_7hz_g50_95.RAW', FMTDAT='(8E13.5)'
 TRAMP=1., VOLUME=1. $END
  3.10870E+05 -8.20535E+02  3.38519E+05  2.50510E+05  8.52955E+04  3.39662E+05 -1.33189E+05  2.52486E+05
 -1.91149E+05  8.48434E+04 -1.13792E+05 -3.37497E+04  1.73228E+02 -5.05812E+04  5.37726E+04 -1.36042E+03
  3.55763E+04  5.26274E+04 -1.65242E+04  7.56494E+04 -6.14643E+04  6.43866E+04 -8.66899E+04  3.42478E+04
 -8.16033E+04 -1.24193E+04 -6.01817E+04 -5.39221E+04 -1.56862E+04 -7.10642E+04  2.85299E+04 -4.70683E+04
  4.16002E+04  4.65588E+03  1.77155E+04  5.06036E+04 -3.62802E+04  4.97988E+04 -6.77862E+04  1.92618E+02
 -5.46255E+04 -5.72003E+04 -7.98729E+03 -7.91941E+04  3.52983E+04 -5.77938E+04  5.05083E+04 -1.95230E+04
  4.45919E+04  1.12445E+04  3.47633E+04  2.56419E+04  1.57081E+04  3.10485E+04 -6.08175E+03  2.69853E+04
 -2.05179E+04  1.16181E+04 -1.66778E+04 -7.87331E+03  6.87528E+03 -6.38699E+03  2.55036E+04  1.33726E+04
  8.85842E+03  3.58492E+04 -3.46768E+04  3.70399E+04 -6.77528E+04  2.69927E+03 -5.71073E+04 -4.51567E+04
 -1.10320E+04 -6.67747E+04  4.28374E+04 -4.74335E+04  6.17540E+04 -2.27148E+03  3.90230E+04  3.24961E+04
 -6.49186E+03  4.13824E+04 -3.37022E+04  1.82179E+04 -3.33426E+04 -2.02139E+03 -1.92457E+04 -1.29576E+04
 -8.94929E+03 -1.47874E+04  1.05786E+03 -2.04573E+04  9.52252E+03 -2.39883E+04  1.57319E+04 -1.13180E+04
  9.62851E+03  7.44357E+03 -1.14384E+04  1.21957E+04 -2.54798E+04 -7.89292E+03 -8.56685E+03 -3.76526E+04
  2.60800E+04 -4.75706E+04  5.24100E+04 -2.40119E+04  4.83127E+04  2.15999E+04  1.72501E+04  4.87968E+04
 -1.64354E+04  3.78084E+04 -2.93703E+04  3.62861E+03 -1.37942E+04 -2.89404E+04  2.23115E+04 -3.70114E+04
  4.53163E+04 -1.14417E+04  4.19090E+04  2.61168E+04  2.32891E+04  5.27933E+04 -7.59639E+03  5.87861E+04
 -3.74209E+04  4.09200E+04 -5.08602E+04  1.32491E+04 -4.77879E+04 -2.09528E+04 -2.59970E+04 -4.35440E+04
  7.02313E+03 -4.39554E+04  3.52695E+04 -1.76144E+04  3.28326E+04  1.33360E+04  3.68319E+03  1.86751E+04
 -1.45788E+04  1.20346E+04 -1.06099E+04 -6.45014E+03  4.93973E+03 -1.06427E+04  1.94654E+04  6.01661E+03
  1.54005E+04  2.43399E+04 -3.56011E+03  2.72633E+04 -2.38171E+04  1.52063E+04 -3.28603E+04 -3.09210E+03
 -2.73940E+04 -1.95609E+04 -1.31703E+04 -2.82355E+04  5.09051E+03 -2.90846E+04  2.27558E+04 -2.42756E+04
  3.50248E+04 -1.44338E+04  3.97560E+04  4.73987E+03  2.84262E+04  2.52640E+04  5.84926E+03  4.32453E+04
 -2.02071E+04  3.38438E+04 -3.14869E+04  1.15037E+04 -2.36182E+04 -1.06999E+04 -4.45566E+03 -1.30722E+04
  9.18392E+01 -1.49752E+03 -8.77963E+03  8.40834E+03 -2.12291E+04  4.10132E+03 -1.96893E+04 -1.13575E+04
 -1.37109E+04 -2.60730E+04  5.99048E+03 -3.06774E+04  1.99175E+04 -2.14128E+04  2.51059E+04 -9.00368E+02
  1.56160E+04  1.80952E+04 -9.77278E+02  2.45557E+04 -1.67057E+04  1.33967E+04 -2.48133E+04 -7.40863E+03
 -1.83308E+04 -2.32478E+04 -9.90366E+02 -2.99668E+04  1.20723E+04 -2.36723E+04  2.53628E+04 -1.09778E+04
  2.36412E+04 -1.15852E+03  1.78337E+04  4.87277E+03  9.48279E+03  1.64951E+03  1.45622E+04 -3.10550E+03
  2.33493E+04  2.77343E+03  2.64803E+04  2.02620E+04  1.87988E+04  4.11433E+04 -4.43125E+03  4.91605E+04
 -2.83804E+04  4.02744E+04 -4.43999E+04  2.12236E+04 -4.96614E+04 -3.10045E+03 -4.04934E+04 -3.05126E+04
 -1.60897E+04 -4.18711E+04  1.32472E+04 -3.63446E+04  2.93412E+04 -1.87794E+04  2.60757E+04  6.82172E+03
  8.93406E+03  2.03136E+04 -1.19083E+04  1.73157E+04 -2.07221E+04  2.80586E+02 -1.61489E+04 -1.27375E+04
 -3.47078E+02 -2.03509E+04  1.21412E+04 -1.63277E+04  1.40211E+04 -2.85505E+03  2.75459E+03  1.01821E+04
 -9.97369E+03  4.38723E+03 -1.06380E+04 -9.01458E+03 -2.98252E+03 -1.93176E+04  1.30130E+04 -2.18862E+04
  2.41427E+04 -1.44863E+04  3.05167E+04  2.68985E+03  2.58786E+04  2.14691E+04  1.12328E+04  3.33912E+04
 -6.73776E+03  3.69148E+04 -2.40746E+04  2.08732E+04 -2.58698E+04  5.17281E+03 -1.60165E+04 -6.00358E+03
 -5.47966E+03 -8.78022E+03 -1.79285E+03  5.94670E+02 -4.05326E+03  3.79884E+03 -9.03674E+03  5.27335E+03
 -1.53619E+04 -1.44043E+03 -1.66704E+04 -1.45694E+04 -7.03548E+03 -2.18965E+04  6.62304E+03 -1.99002E+04
  1.38527E+04 -8.51294E+03  1.03892E+04  6.80637E+03 -4.09260E+02  7.52681E+03 -8.24552E+03  1.27063E+03
 -8.67437E+03 -1.12127E+04 -1.17563E+03 -1.67776E+04  9.92708E+03 -1.76503E+04  2.34100E+04 -1.00341E+04
  2.74097E+04  2.52096E+03  1.90531E+04  1.61116E+04  3.50016E+03  2.17276E+04 -1.13660E+04  1.83772E+04
 -1.50776E+04  6.12549E+03 -7.66893E+03 -4.05947E+03  2.38493E+03 -4.89841E+03  8.84095E+03 -1.98978E+03
  7.32167E+03  7.57390E+03  9.85756E+02  1.56569E+04 -1.01460E+04  1.38900E+04 -1.83601E+04  3.03983E+03
 -1.09768E+04 -1.05208E+04 -3.37675E+02 -1.59798E+04  1.18707E+04 -7.37567E+03  1.13008E+04  5.32654E+03
  1.38364E+03  1.15879E+04 -7.32082E+03  1.34493E+04 -1.70883E+04  5.42725E+03 -1.87036E+04 -6.88041E+03
 -9.35619E+03 -1.93097E+04  1.82379E+03 -2.09961E+04  1.93110E+04 -1.11977E+04  2.14774E+04  2.72321E+03
  1.30677E+04  1.62052E+04 -2.26315E+03  1.89964E+04 -1.41615E+04  1.14564E+04 -1.44318E+04 -2.13942E+03
 -1.15773E+04 -1.28570E+04 -1.66889E+03 -1.66066E+04  8.00618E+03 -1.29823E+04  9.17196E+03 -4.66625E+03
  5.40621E+03  1.47647E+03 -1.31945E+03  9.48929E+02 -1.68090E+03 -2.82048E+03  2.70223E+03 -7.06854E+03
  1.45469E+04 -6.13351E+03  2.13061E+04  1.53506E+03  1.84917E+04  1.33225E+04  1.08376E+04  2.59111E+04
 -6.13957E+03  3.13365E+04 -2.22992E+04  1.98216E+04 -3.11802E+04  4.99412E+03 -2.54220E+04 -1.11014E+04
 -1.13166E+04 -1.91331E+04 -1.86622E+03 -1.73091E+04  7.23421E+03 -1.15861E+04  6.17579E+03 -7.21718E+03
  4.36645E+03 -2.00469E+03  6.80940E+03 -4.96095E+03  6.50567E+03 -5.09016E+03  1.09101E+04 -3.07430E+03
  1.30535E+04  3.28561E+03  8.09404E+03  1.21465E+04 -3.16158E+03  1.46520E+04 -1.33563E+04  9.98654E+03
 -1.72453E+04 -1.25175E+03 -1.17226E+04 -1.29033E+04 -1.22875E+03 -2.11242E+04  1.12700E+04 -1.92385E+04
  2.14430E+04 -1.10289E+04  2.35503E+04  5.03053E+03  1.57829E+04  1.76281E+04  1.73484E+03  2.14445E+04
 -1.19737E+04  1.91032E+04 -1.23457E+04  5.01509E+03 -9.11137E+03 -2.04037E+03 -4.34627E+03 -3.53956E+03
 -2.63159E+03  2.40550E+02 -3.19342E+03  3.91395E+03 -7.24053E+03  2.38746E+03 -1.36814E+04 -1.22564E+03
 -9.66401E+03 -1.14391E+04  1.37958E+03 -1.93570E+04  1.03524E+04 -1.73433E+04  1.89633E+04 -5.80907E+03
  1.89556E+04  9.32423E+03  8.70217E+03  1.49461E+04 -2.93334E+03  1.98184E+04 -1.36205E+04  1.13771E+04
 -1.61753E+04  1.89971E+03 -1.42722E+04 -1.22573E+04 -2.17458E+03 -1.63913E+04  9.32654E+03 -1.19804E+04
  1.02087E+04 -3.32109E+03  7.23072E+03  2.21491E+03  4.27298E+03  6.15664E+03  2.48379E+03  1.45647E+03
  3.28798E+03 -2.45650E+02  5.36960E+03  9.88740E+02  5.13627E+03  6.81427E+03  3.54165E+03  8.53651E+03
 -4.01205E+03  1.47337E+04 -1.31295E+04  1.58638E+04 -2.18557E+04  2.51904E+03 -2.00157E+04 -6.89026E+03
 -1.05859E+04 -1.84399E+04  1.72982E+03 -2.18735E+04  1.30232E+04 -1.31252E+04  1.65699E+04 -2.54655E+03
  1.37100E+04  8.23893E+03  5.17498E+03  1.10907E+04 -5.82474E+03  6.54470E+03 -6.33081E+03 -9.11548E+02
 -3.02951E+03 -8.83589E+03  4.84278E+03 -7.60651E+03  9.70259E+03 -1.74628E+03  8.42685E+03  4.83762E+02
  5.87965E+03  3.81752E+03  2.79937E+03  3.37751E+03 -3.01865E+03  2.30762E+03  1.82410E+03  1.63530E+02
  2.81991E+03  1.15187E+02  8.21557E+03  2.57535E+03  4.32949E+03  1.18667E+04 -1.74096E+03  1.51603E+04
 -1.06181E+04  1.05837E+04 -1.29781E+04  2.82078E+03 -1.15946E+04 -2.84417E+03 -3.77332E+03 -8.43420E+03
  6.44710E+02 -8.25191E+03  5.71737E+03 -3.09073E+03  4.88360E+03  5.30215E+03 -3.03230E+02  7.42306E+03
 -7.98029E+03  4.92350E+03 -9.16916E+03 -4.48705E+03 -4.73191E+03 -1.01756E+04  1.14387E+03 -1.18269E+04
  7.35528E+03 -7.89784E+03  1.07875E+04  4.78608E+02  6.68992E+03  3.58321E+03  2.31839E+03  7.82105E+03
 -3.90439E+03  1.78129E+03 -4.26078E+03 -3.63090E+03  1.66226E+03 -8.18133E+03  9.63041E+03 -7.93808E+03
  1.44757E+04  2.54142E+03  1.10765E+04  9.83322E+03  3.45325E+03  1.38742E+04 -3.87571E+03  1.23294E+04
 -9.73951E+03  6.41365E+03 -1.08727E+04 -2.62265E+03 -6.67999E+03 -9.88924E+03  2.23755E+03 -7.94186E+03
  5.81252E+03 -6.13232E+03  6.41220E+03  6.81884E+03  2.29122E+03  7.69876E+03 -1.22302E+03  5.49897E+03
 -4.63655E+03  2.61007E+03 -2.14381E+03  3.20521E+03 -1.78290E+03 -7.82084E+02 -2.56132E+03  3.67253E+03
 -5.16254E+03  7.49070E+03 -1.09369E+04  4.26104E+03 -1.48595E+04 -4.00113E+02 -1.57312E+04 -7.94451E+03
 -7.48566E+03 -1.83399E+04  3.09716E+03 -2.26684E+04  1.19666E+04 -1.70762E+04  2.13182E+04 -5.26428E+03
  1.90904E+04  2.33856E+03  1.12455E+04  1.26413E+04  1.01783E+03  1.38572E+04 -3.61584E+03  1.14982E+04
 -6.77590E+03  9.99652E+02 -5.02178E+03 -1.76897E+03 -1.48804E+03 -1.13410E+03 -2.59173E+03 -1.21709E+03
 -2.41596E+03  1.02296E+03 -3.03995E+03  1.33349E+02 -2.86332E+03 -2.75308E+03  1.48522E+03 -6.10142E+03
  6.34314E+03 -4.55658E+03  1.05993E+04  1.00345E+03  1.13215E+04  7.53948E+03  2.69352E+03  1.52379E+04
 -6.84896E+03  1.56161E+04 -1.59438E+04  1.00026E+04 -1.91195E+04 -2.57035E+03 -1.15908E+04 -9.41171E+03
 -4.94423E+03 -1.74025E+04  5.09350E+03 -1.27733E+04  9.90316E+03 -7.32726E+03  1.03439E+04  1.17095E+03
  6.30807E+03  4.31559E+03 -4.40271E+02  4.14030E+03 -1.43673E+03 -7.47249E+02  5.56176E+01 -3.96790E+03
  4.22534E+03 -1.59844E+03  4.95125E+03  4.36082E+03  5.04833E+03  7.88005E+03 -1.70062E+02  7.41279E+03
 -6.45992E+03  7.50022E+03 -1.00967E+04  1.23994E+02 -9.66608E+03 -7.42744E+03 -3.19560E+03 -1.29304E+04
  8.09801E+03 -1.08052E+04  1.10940E+04 -2.04552E+03  1.18375E+04  3.86426E+03  8.61929E+03  8.69211E+03
  2.79239E+03  1.03588E+04 -4.75985E+03  8.14937E+03 -6.56772E+03  3.61321E+03 -5.81393E+03  3.97222E+02
 -2.92366E+03 -5.51750E+02 -3.05079E+03  4.74073E+01 -5.73290E+03  6.46828E+02 -8.07194E+03 -4.30064E+02
 -7.12067E+03 -6.76493E+03 -3.44371E+03 -9.49856E+03  3.68357E+03 -1.17488E+04  9.63778E+03 -4.53809E+03
  1.31961E+04  2.57602E+02  6.16127E+03  8.32741E+03 -1.04166E+03  9.66349E+03 -8.53763E+03  6.87740E+03
