 $NMID ID='MM_0lb_SNR200_7hz_g60_38.RAW', FMTDAT='(8E13.5)'
 TRAMP=1., VOLUME=1. $END
  3.07654E+05  1.89266E+03  3.36247E+05  2.51794E+05  8.70260E+04  3.39347E+05 -1.31972E+05  2.53738E+05
 -1.91654E+05  8.50024E+04 -1.13156E+05 -3.11364E+04 -6.60986E+01 -5.22781E+04  5.44653E+04 -1.52115E+03
  3.54121E+04  5.12655E+04 -1.62444E+04  7.69642E+04 -6.24948E+04  6.51063E+04 -8.67614E+04  3.50038E+04
 -8.39147E+04 -1.19151E+04 -5.90569E+04 -5.35687E+04 -1.46959E+04 -7.11440E+04  2.92264E+04 -4.75836E+04
  4.18818E+04  1.96928E+03  1.75654E+04  4.94330E+04 -3.55260E+04  5.02870E+04 -7.06029E+04  1.11069E+03
 -5.53759E+04 -5.79073E+04 -8.05950E+03 -8.05935E+04  3.66849E+04 -5.75145E+04  5.13785E+04 -1.94647E+04
  4.55098E+04  1.04317E+04  3.36085E+04  2.77950E+04  1.80435E+04  2.90752E+04 -5.34548E+03  2.88183E+04
 -2.28977E+04  1.05243E+04 -1.68160E+04 -6.18816E+03  8.35542E+03 -8.25095E+03  2.31423E+04  1.41583E+04
  4.82599E+03  3.85924E+04 -3.47797E+04  3.86325E+04 -6.82917E+04  1.51258E+03 -5.89715E+04 -4.55134E+04
 -1.18224E+04 -6.91543E+04  4.31722E+04 -4.87681E+04  6.35786E+04 -2.63710E+03  3.92314E+04  3.54912E+04
 -2.40761E+03  4.26294E+04 -3.24612E+04  1.98001E+04 -3.65383E+04 -2.47775E+03 -1.98821E+04 -1.22181E+04
 -9.95229E+03 -1.40673E+04 -1.67719E+03 -2.05452E+04  1.01146E+04 -2.42416E+04  1.64773E+04 -1.08234E+04
  1.06475E+04  7.06879E+03 -1.24207E+04  1.12737E+04 -2.62457E+04 -9.36464E+03 -9.48311E+03 -3.97747E+04
  2.75451E+04 -4.93841E+04  5.52000E+04 -1.92403E+04  5.23538E+04  2.38095E+04  1.75011E+04  4.98022E+04
 -1.77717E+04  3.76404E+04 -2.86420E+04  2.65232E+03 -1.16140E+04 -3.10309E+04  2.10657E+04 -4.03396E+04
  4.58210E+04 -1.21162E+04  4.23950E+04  2.82978E+04  2.39744E+04  5.43868E+04 -7.56424E+03  6.03801E+04
 -3.87199E+04  4.11467E+04 -4.95220E+04  1.21134E+04 -5.05362E+04 -2.06538E+04 -2.79491E+04 -4.37163E+04
  6.10118E+03 -4.60284E+04  3.42920E+04 -1.78271E+04  3.35533E+04  1.18408E+04  6.70823E+03  2.21349E+04
 -1.57079E+04  1.00685E+04 -1.19787E+04 -5.60191E+03  6.45505E+03 -1.23846E+04  1.92479E+04  5.39584E+03
  1.58344E+04  2.31243E+04 -5.95574E+03  2.58096E+04 -2.34273E+04  1.76920E+04 -3.13686E+04 -2.39212E+03
 -2.91636E+04 -1.89615E+04 -1.12317E+04 -2.78126E+04  5.33435E+03 -2.92315E+04  2.27244E+04 -2.66946E+04
  3.68849E+04 -1.57821E+04  4.09831E+04  5.65715E+03  2.90964E+04  2.60384E+04  3.76852E+03  4.45375E+04
 -2.05097E+04  3.69057E+04 -3.28400E+04  1.47814E+04 -2.50594E+04 -8.64176E+03 -4.47311E+03 -1.00076E+04
 -7.90368E+02  1.41760E+03 -8.06799E+03  8.57864E+03 -2.36602E+04  4.18057E+03 -2.27074E+04 -1.07039E+04
 -1.37429E+04 -2.67298E+04  8.18748E+03 -2.98548E+04  1.97828E+04 -2.23923E+04  2.52410E+04 -3.73388E+02
  1.46750E+04  1.83255E+04 -2.16831E+03  2.65026E+04 -1.79921E+04  1.50401E+04 -2.72504E+04 -4.33359E+03
 -1.92957E+04 -2.33263E+04 -2.92483E+03 -2.98292E+04  1.44186E+04 -2.71289E+04  2.54130E+04 -1.40507E+04
  2.51988E+04 -6.28839E+02  1.83410E+04  5.10680E+03  9.68554E+03  1.21073E+03  1.51215E+04 -2.97665E+03
  2.51780E+04  2.33669E+03  2.92334E+04  1.80334E+04  1.86280E+04  4.13563E+04 -2.75039E+03  5.08206E+04
 -2.94163E+04  4.32022E+04 -4.76389E+04  2.23884E+04 -5.20384E+04 -2.39393E+03 -4.04126E+04 -3.05969E+04
 -1.62971E+04 -4.35939E+04  1.53527E+04 -3.63613E+04  3.28520E+04 -1.55943E+04  2.58860E+04  1.09040E+04
  9.29006E+03  1.97962E+04 -1.17499E+04  1.73891E+04 -2.34494E+04  1.04669E+03 -1.89296E+04 -1.40146E+04
 -4.47038E+02 -2.16499E+04  1.17260E+04 -1.61866E+04  1.44814E+04  7.27118E+02  3.49589E+03  8.27001E+03
 -1.09286E+04  3.92156E+03 -1.31448E+04 -7.36482E+03 -2.63906E+03 -2.08780E+04  1.39313E+04 -2.35552E+04
  2.59595E+04 -1.26278E+04  3.13818E+04  2.68353E+03  2.64491E+04  2.20089E+04  1.32986E+04  3.26825E+04
 -7.82745E+03  3.70161E+04 -2.50890E+04  2.30068E+04 -2.72800E+04  4.32236E+03 -1.84601E+04 -8.05603E+03
 -7.71386E+03 -8.07844E+03  5.28790E+02  1.40759E+03 -4.11024E+03  3.80031E+03 -1.14363E+04  6.06898E+03
 -1.61573E+04 -1.67938E+03 -1.87410E+04 -1.41617E+04 -5.42608E+03 -2.36372E+04  7.22107E+03 -1.82639E+04
  1.41348E+04 -8.69889E+03  1.08846E+04  4.43792E+03 -6.14347E+02  6.48590E+03 -7.71244E+03 -1.98397E+03
 -9.18272E+03 -1.21260E+04 -2.05616E+03 -1.97963E+04  1.14087E+04 -2.20292E+04  2.08317E+04 -9.99032E+03
  2.81887E+04  3.92367E+03  1.93665E+04  1.72217E+04  4.46075E+03  2.16301E+04 -9.05490E+03  1.76081E+04
 -1.47657E+04  8.30455E+03 -7.80472E+03 -3.15373E+03  4.20304E+03 -4.98402E+03  8.07123E+03  7.89593E+01
  1.00007E+04  1.06322E+04  7.02543E+02  1.49747E+04 -9.52399E+03  1.48480E+04 -1.83969E+04  1.24329E+03
 -1.27558E+04 -9.75388E+03 -6.08925E+02 -1.89750E+04  9.65668E+03 -8.96712E+03  1.17825E+04  5.25046E+03
  3.20482E+03  1.18367E+04 -1.08862E+04  1.32900E+04 -1.79741E+04  5.68620E+03 -1.90547E+04 -5.93823E+03
 -9.83839E+03 -2.06767E+04  6.77728E+03 -2.49433E+04  1.91865E+04 -1.45793E+04  2.09647E+04  4.83182E+03
  1.06816E+04  1.38822E+04 -1.98103E+03  2.00500E+04 -1.55673E+04  1.06816E+04 -1.46211E+04 -2.90519E+03
 -1.40018E+04 -1.36108E+04 -3.52445E+03 -1.48704E+04  8.09633E+03 -1.01463E+04  9.67270E+03 -4.44841E+03
  6.47532E+03  4.42572E+03 -1.82400E+03  2.45861E+02 -6.24523E+02 -4.66002E+03  4.24576E+03 -9.13989E+03
  1.23570E+04 -4.69796E+03  2.13978E+04  8.17769E+02  1.90941E+04  1.31778E+04  1.36174E+04  2.56555E+04
 -6.01637E+03  3.11378E+04 -2.51995E+04  1.99751E+04 -3.28919E+04  4.99823E+03 -2.76827E+04 -1.09803E+04
 -1.35336E+04 -2.13796E+04 -6.62951E+01 -1.79840E+04  8.24375E+03 -1.12223E+04  6.96414E+03 -6.82901E+03
  4.76824E+03 -4.33054E+03  4.79140E+03 -3.98430E+03  7.02157E+03 -3.89576E+03  1.00516E+04 -3.89831E+03
  1.32013E+04  2.99994E+03  5.96332E+03  1.17522E+04 -2.99437E+03  1.51789E+04 -1.62277E+04  1.03652E+04
 -2.04863E+04 -3.01383E+03 -1.43753E+04 -1.50139E+04 -3.68439E+03 -1.98325E+04  1.22292E+04 -2.02699E+04
  2.19867E+04 -1.07113E+04  2.65177E+04  4.15009E+03  1.75992E+04  1.63408E+04  1.45258E+03  2.38574E+04
 -1.01883E+04  1.75968E+04 -1.50838E+04  7.58658E+03 -9.34016E+03  1.32301E+02 -6.69933E+03 -3.34104E+03
 -7.47566E+02 -1.11645E+03 -4.51497E+03  3.27822E+03 -7.65238E+03  2.70641E+03 -1.32944E+04 -2.45541E+03
 -9.66441E+03 -1.14244E+04 -1.83676E+03 -2.07278E+04  1.26003E+04 -1.73728E+04  2.06094E+04 -6.21604E+03
  1.90804E+04  8.37331E+03  8.71013E+03  1.77464E+04 -3.35376E+03  1.96825E+04 -1.42888E+04  1.29289E+04
 -1.88927E+04  1.11635E+03 -1.52252E+04 -1.23653E+04 -2.05243E+02 -1.60015E+04  1.02608E+04 -1.19798E+04
  1.39366E+04 -5.07856E+03  8.80804E+03  4.77650E+03  2.81852E+03  6.11314E+03  3.72834E+02  1.69581E+03
  6.48454E+02  3.43957E+03  3.88115E+03  1.55110E+03  8.51974E+03  4.94057E+03  5.42997E+03  1.15561E+04
 -4.25325E+03  1.52367E+04 -1.57237E+04  1.59821E+04 -2.21970E+04  4.32897E+03 -2.29988E+04 -1.08767E+04
 -1.07043E+04 -2.00967E+04  4.80875E+03 -2.21924E+04  1.13286E+04 -1.47090E+04  1.86787E+04 -2.12642E+03
  1.49256E+04  7.11809E+03  2.56030E+03  1.14830E+04 -5.54754E+03  7.13727E+03 -1.14209E+04 -1.05678E+03
 -2.11719E+03 -1.00928E+04  4.88853E+03 -1.06819E+04  1.13048E+04 -4.06272E+03  9.69751E+03  3.38384E+02
  6.95515E+03  4.30701E+03  2.23689E+03  3.09720E+03 -1.39211E+03  4.33516E+03 -7.82108E+02 -5.35387E+02
  5.44133E+03 -2.14664E+03  8.59975E+03  2.49364E+03  5.50986E+03  1.08167E+04 -1.53758E+03  1.51136E+04
 -1.09219E+04  7.78745E+03 -1.20909E+04  3.13133E+03 -1.22140E+04 -4.03064E+03 -4.75155E+03 -7.34647E+03
  1.59675E+03 -9.34278E+03  6.67277E+03 -3.01871E+03  4.77561E+03  3.42937E+03  3.73823E+02  8.78200E+03
 -1.00052E+04  3.99983E+03 -8.62888E+03 -4.53632E+03 -5.40973E+03 -1.09529E+04  1.84106E+03 -1.15983E+04
  8.23975E+03 -5.72639E+03  9.01353E+03 -6.19264E+02  7.49894E+03  3.94174E+03  5.39344E+02  4.60354E+03
 -5.81591E+03  2.08216E+03 -5.31126E+03 -5.52229E+03 -1.41047E+02 -1.03149E+04  1.14363E+04 -4.99713E+03
  1.56941E+04  3.20007E+03  1.18308E+04  9.63783E+03  3.68003E+03  1.34090E+04 -5.95524E+03  1.48135E+04
 -1.10958E+04  6.30815E+03 -1.21389E+04 -7.56396E+02 -5.96088E+03 -7.18195E+03  3.41260E+03 -8.87865E+03
  7.29436E+03 -3.82370E+03  7.43918E+03  2.61622E+03  7.19004E+02  7.50667E+03 -2.16208E+03  7.45714E+03
 -4.27463E+03  3.77745E+03 -3.63475E+03  8.10895E+02 -1.18429E+03  9.31649E+02 -2.98989E+03  4.99542E+03
 -5.07890E+03  5.31179E+03 -9.84991E+03  5.81222E+03 -1.59511E+04 -5.41020E+02 -1.76410E+04 -1.08289E+04
 -8.52524E+03 -2.08585E+04  4.15008E+03 -2.36785E+04  1.57739E+04 -1.86009E+04  2.45295E+04 -5.09302E+03
  2.10268E+04  4.67610E+03  1.20414E+04  1.14648E+04  2.82068E+03  1.49168E+04 -6.86842E+03  1.23612E+04
 -7.70825E+03  5.04677E+03 -7.36731E+03 -1.93272E+03 -3.47824E+03 -1.44894E+03 -2.34785E+02 -1.86237E+02
 -4.05652E+03 -2.77180E+02 -3.50505E+03 -5.62137E+02 -1.75166E+03 -6.10370E+03  1.28454E+03 -6.98255E+03
  7.27259E+03 -4.82814E+03  1.00461E+04  1.64860E+03  1.10823E+04  9.75501E+03  4.01377E+03  1.73775E+04
 -6.40809E+03  1.82748E+04 -1.66020E+04  9.61965E+03 -2.04238E+04 -2.41961E+03 -1.55124E+04 -1.26246E+04
 -7.22704E+03 -1.89757E+04  2.19018E+03 -1.59617E+04  1.07505E+04 -8.48922E+03  1.11906E+04  2.75756E+03
  4.94299E+03  4.33300E+03 -1.54969E+03  4.06158E+03 -2.03320E+03  3.79795E-01  2.87830E+02 -2.60633E+03
  4.68598E+03 -1.51684E+03  7.43751E+03  3.67476E+03  5.07012E+03  6.31314E+03 -6.00412E+02  8.28678E+03
 -5.73975E+03  7.18834E+03 -1.20463E+04  6.31130E+02 -1.05101E+04 -8.31202E+03 -2.52231E+03 -1.33903E+04
  6.00226E+03 -1.10831E+04  1.21133E+04 -3.19087E+03  1.28268E+04  3.85333E+03  6.17369E+03  1.02474E+04
  4.52419E+02  1.14171E+04 -4.77073E+03  9.19891E+03 -6.86558E+03  3.72372E+03 -6.61095E+03  1.51328E+03
 -3.68380E+03 -1.94232E+03 -2.82254E+03  1.74445E+03 -6.79653E+03  1.03239E+03 -9.76941E+03 -2.73899E+03
 -6.47949E+03 -6.18085E+03 -2.78690E+03 -1.30628E+04  3.00825E+03 -1.14367E+04  1.16189E+04 -6.23068E+03
  1.20650E+04  1.90065E+03  6.18719E+03  6.73942E+03 -1.97734E+03  1.09742E+04 -9.07983E+03  7.51048E+03
