 $NMID ID='MM_0lb_SNR200_10hz_g55_60.RAW', FMTDAT='(8E13.5)'
 TRAMP=1., VOLUME=1. $END
  3.10036E+05  4.69885E+02  3.35967E+05  2.50758E+05  8.43471E+04  3.37786E+05 -1.33185E+05  2.52233E+05
 -1.90561E+05  8.36535E+04 -1.11675E+05 -3.24096E+04  2.74836E+02 -5.04391E+04  5.44805E+04  1.41944E+03
  3.52500E+04  5.14731E+04 -1.57046E+04  7.58008E+04 -5.94882E+04  6.59118E+04 -8.64724E+04  3.16785E+04
 -8.15838E+04 -1.14718E+04 -5.72098E+04 -5.22958E+04 -1.58549E+04 -6.97675E+04  2.76814E+04 -4.78287E+04
  4.20382E+04  4.41047E+03  1.56611E+04  4.72616E+04 -3.44956E+04  4.81835E+04 -6.72461E+04  1.24461E+03
 -5.49485E+04 -5.76588E+04 -6.57737E+03 -7.82515E+04  3.49507E+04 -5.74180E+04  4.85800E+04 -1.96867E+04
  4.45444E+04  1.12241E+04  3.28148E+04  2.66196E+04  1.60006E+04  2.89819E+04 -5.82856E+03  2.76600E+04
 -2.12627E+04  1.22182E+04 -1.80433E+04 -6.72648E+03  7.16520E+03 -7.46269E+03  2.34212E+04  1.45117E+04
  6.40796E+03  3.74478E+04 -3.36401E+04  3.85240E+04 -6.62205E+04  3.26946E+03 -5.73372E+04 -4.41262E+04
 -1.14554E+04 -6.48566E+04  4.10418E+04 -4.70919E+04  6.11325E+04 -1.75456E+03  3.78057E+04  3.25003E+04
 -5.22717E+03  3.84602E+04 -3.19495E+04  1.58369E+04 -3.35818E+04 -4.07184E+03 -1.95532E+04 -1.13359E+04
 -1.02854E+04 -1.69250E+04 -5.03190E+02 -2.23485E+04  1.00671E+04 -2.38692E+04  1.60537E+04 -1.14747E+04
  9.99149E+03  5.48527E+03 -9.94093E+03  1.25572E+04 -2.21287E+04 -7.20651E+03 -8.45064E+03 -3.71877E+04
  2.49808E+04 -4.60457E+04  5.29361E+04 -2.00223E+04  4.63678E+04  1.98003E+04  1.70844E+04  4.62348E+04
 -1.64697E+04  3.50847E+04 -2.74957E+04  2.95313E+03 -1.08626E+04 -2.95351E+04  2.16695E+04 -3.72104E+04
  4.43907E+04 -8.70856E+03  4.02649E+04  2.58444E+04  2.10927E+04  5.07941E+04 -8.61587E+03  5.58269E+04
 -3.50574E+04  3.94097E+04 -4.70786E+04  1.09227E+04 -4.78924E+04 -1.79590E+04 -2.41446E+04 -4.23401E+04
  7.25287E+03 -4.08294E+04  3.33366E+04 -1.82337E+04  3.24307E+04  1.04257E+04  5.54488E+03  2.20033E+04
 -1.50878E+04  1.01738E+04 -9.76252E+03 -8.65022E+03  6.45514E+03 -1.15609E+04  1.83649E+04  6.34074E+03
  1.41823E+04  2.22702E+04 -5.19256E+03  2.71348E+04 -2.17721E+04  1.43152E+04 -3.19395E+04 -2.16184E+03
 -2.46515E+04 -1.80116E+04 -1.17488E+04 -2.45259E+04  3.57567E+03 -2.49029E+04  1.77229E+04 -2.31264E+04
  3.06198E+04 -1.49831E+04  3.73084E+04  4.68139E+03  2.72969E+04  2.31297E+04  3.91002E+03  4.02858E+04
 -1.98679E+04  3.46014E+04 -3.17200E+04  1.24343E+04 -2.18195E+04 -1.01431E+04 -5.28227E+03 -1.34376E+04
  1.72526E+03 -1.72002E+03 -8.28627E+03  7.76738E+03 -1.94925E+04  5.85311E+03 -2.00609E+04 -8.58608E+03
 -1.27104E+04 -2.37533E+04  7.50782E+03 -2.73726E+04  1.81761E+04 -1.96687E+04  2.24370E+04 -2.11187E+03
  1.34675E+04  1.56297E+04 -1.93181E+03  2.29140E+04 -1.63851E+04  1.27404E+04 -2.35041E+04 -5.15755E+03
 -1.79784E+04 -2.00272E+04 -2.47324E+03 -2.94108E+04  1.13702E+04 -2.17627E+04  2.23618E+04 -1.29710E+04
  1.97800E+04  9.14952E+02  1.51790E+04  4.90142E+03  9.28379E+03  1.41739E+03  1.10864E+04 -2.09598E+03
  2.30341E+04  2.17536E+03  2.47772E+04  1.75495E+04  1.71523E+04  3.65586E+04 -3.75156E+03  4.37235E+04
 -2.39329E+04  3.57171E+04 -3.92653E+04  1.85214E+04 -4.36166E+04 -3.01274E+03 -3.73041E+04 -2.38988E+04
 -1.52668E+04 -3.50957E+04  1.18582E+04 -3.18133E+04  2.81017E+04 -1.47578E+04  2.42425E+04  7.25597E+03
  7.88023E+03  1.69785E+04 -1.19085E+04  1.53508E+04 -1.84400E+04  2.77807E+03 -1.44247E+04 -1.29600E+04
 -3.44136E+02 -1.78185E+04  9.11648E+03 -1.41535E+04  1.33139E+04 -2.34007E+03  3.94041E+03  8.86984E+03
 -9.66686E+03  3.98254E+03 -8.63167E+03 -8.03472E+03 -3.03479E+03 -1.79610E+04  1.02861E+04 -1.82801E+04
  2.19066E+04 -9.67822E+03  2.48060E+04  3.93896E+03  2.26955E+04  1.72810E+04  1.03649E+04  2.92940E+04
 -4.02929E+03  3.03861E+04 -1.79090E+04  1.92398E+04 -2.20509E+04  3.36435E+03 -1.47826E+04 -5.10756E+03
 -7.09993E+03 -7.26479E+03 -1.70355E+03 -7.22250E+01 -2.37690E+03  3.47521E+03 -6.95423E+03  6.70661E+03
 -1.19430E+04 -9.47995E+02 -1.45635E+04 -1.22178E+04 -8.48196E+03 -1.85147E+04  5.92714E+03 -1.56575E+04
  1.14658E+04 -5.96850E+03  9.03553E+03  2.98825E+03  1.57147E+02  3.92726E+03 -7.68762E+03  1.06714E+03
 -6.46247E+03 -7.87856E+03 -1.21014E+03 -1.38032E+04  8.34928E+03 -1.60045E+04  1.89909E+04 -9.60600E+03
  2.22875E+04  2.14617E+03  1.50865E+04  1.19780E+04  3.93685E+03  1.87275E+04 -1.03415E+04  1.21564E+04
 -1.23861E+04  3.59348E+03 -4.39182E+03 -2.96268E+03  2.45330E+03 -5.62151E+03  5.79769E+03 -1.01744E+03
  6.40505E+03  7.38941E+03  9.52515E+02  1.17745E+04 -8.76244E+03  1.11634E+04 -1.47731E+04  2.73604E+03
 -9.33327E+03 -7.80679E+03  1.46940E+03 -1.28629E+04  9.37841E+03 -6.01076E+03  9.19792E+03  3.95916E+03
  1.12078E+03  9.74784E+03 -8.33778E+03  1.10829E+04 -1.44714E+04  4.66682E+03 -1.40759E+04 -6.39226E+03
 -7.58899E+03 -1.47741E+04  5.38281E+03 -1.64051E+04  1.39019E+04 -1.04030E+04  1.45699E+04  3.85674E+03
  9.17887E+03  1.19396E+04 -6.36096E+01  1.51060E+04 -1.17236E+04  9.04237E+03 -1.26705E+04 -1.75874E+03
 -1.05860E+04 -1.01666E+04 -1.29734E+03 -1.20429E+04  5.98635E+03 -8.64179E+03  7.40466E+03 -4.27120E+03
  4.23370E+03  3.18485E+03 -1.43960E+03  2.18141E+03 -6.49410E+02 -2.27305E+03  3.28275E+03 -7.39565E+03
  8.81535E+03 -5.07069E+03  1.55800E+04  2.39791E+03  1.40726E+04  1.01716E+04  8.51526E+03  1.73275E+04
 -3.59991E+03  2.17281E+04 -1.88460E+04  1.72901E+04 -2.54135E+04  3.09276E+03 -2.04826E+04 -9.17791E+03
 -9.72318E+03 -1.66325E+04  3.58329E+02 -1.25997E+04  6.12203E+03 -7.60576E+03  4.61570E+03 -4.91079E+03
  3.31050E+03 -2.71284E+03  4.54546E+03 -4.70134E+03  5.88352E+03 -3.86551E+03  7.02796E+03 -7.19687E+02
  9.37694E+03  2.97429E+03  5.48730E+03  9.21529E+03 -9.89523E+02  9.96613E+03 -1.02137E+04  6.81423E+03
 -1.35314E+04 -2.26514E+03 -9.07358E+03 -9.50247E+03 -6.69282E+02 -1.47322E+04  7.26662E+03 -1.42031E+04
  1.61845E+04 -8.17383E+03  1.85421E+04  3.66945E+03  1.19540E+04  1.21877E+04  2.11459E+03  1.58299E+04
 -6.58969E+03  1.32456E+04 -1.00165E+04  5.73118E+03 -6.28296E+03 -1.63604E+03 -2.14142E+03 -1.23807E+03
 -2.11618E+03 -3.13755E+02 -1.76905E+03  2.73675E+03 -5.93067E+03  9.49802E+02 -8.17914E+03 -2.74608E+02
 -5.82131E+03 -1.04337E+04  9.00386E+02 -1.35598E+04  8.99291E+03 -1.19360E+04  1.42446E+04 -3.14410E+03
  1.58310E+04  7.33249E+03  5.83977E+03  1.40512E+04 -2.63158E+03  1.43799E+04 -8.56633E+03  7.17004E+03
 -1.20575E+04  1.27093E+03 -9.01050E+03 -7.28143E+03 -5.69660E+02 -1.18229E+04  6.83818E+03 -9.10068E+03
  9.53048E+03 -3.37803E+03  5.57358E+03  4.54377E+03  5.00150E+02  4.25381E+03  1.76912E+03  1.67068E+03
  3.46795E+03  1.72047E+03  3.15825E+03  1.38894E+03  2.96431E+03  4.74791E+03  2.83845E+03  5.64202E+03
 -4.05266E+03  9.53954E+03 -9.28427E+03  1.03643E+04 -1.41718E+04  3.82005E+03 -1.41891E+04 -6.05230E+03
 -5.61408E+03 -1.38963E+04  2.62436E+03 -1.46706E+04  8.37804E+03 -9.15484E+03  1.20736E+04 -2.84743E+03
  9.49235E+03  4.77498E+03  2.14345E+03  8.23924E+03 -3.52911E+03  3.31658E+03 -5.02116E+03 -6.05751E+02
 -2.19099E+03 -5.02003E+03  3.88512E+03 -6.46258E+03  5.43217E+03 -3.65640E+03  5.81863E+03  1.96072E+03
  3.08752E+03  4.10670E+03  1.20429E+03  2.50025E+03  3.38925E+02  1.42905E+03  2.29667E+03 -2.10107E+02
  2.12029E+03 -3.13268E+02  5.41203E+03  2.07085E+03  2.01246E+03  8.62946E+03 -1.86077E+03  9.00452E+03
 -8.22003E+03  6.38165E+03 -8.60805E+03  2.20610E+03 -6.71581E+03 -1.68546E+03 -2.20243E+03 -5.67516E+03
 -4.97434E+01 -4.31566E+03  4.16836E+03 -3.65806E+03  3.21886E+03  3.47580E+03  4.16265E+02  4.68809E+03
 -5.10194E+03  3.90191E+03 -7.36620E+03 -3.71000E+03 -2.80793E+03 -7.85003E+03  1.24363E+03 -8.36018E+03
  4.43003E+03 -1.97405E+03  4.13606E+03 -5.00534E+02  4.37998E+03  1.58868E+03  1.12713E+03  3.89464E+03
 -1.72067E+03  1.37311E+03 -2.79736E+03 -3.23449E+03  2.26630E+03 -3.90263E+03  7.56411E+03 -6.06975E+03
  8.54942E+03 -1.02423E+02  7.45848E+03  6.92178E+03  3.00899E+03  9.72226E+03 -2.75318E+03  1.02695E+04
 -9.00272E+03  3.14931E+03 -7.42941E+03 -2.40138E+03 -3.98541E+03 -4.24766E+03  6.61372E+02 -6.33198E+03
  5.21262E+03 -3.15973E+03  5.64801E+03  1.14364E+03  2.21076E+03  5.87670E+03 -2.33305E+03  5.37025E+03
 -3.57108E+03  3.13375E+03 -1.71255E+03  1.21521E+03 -1.14957E+03  2.02304E+03 -2.59851E+03  1.87913E+03
 -4.08656E+03  3.17641E+03 -7.81875E+03  3.87928E+03 -9.00393E+03 -1.71795E+03 -1.06632E+04 -6.98924E+03
 -6.17618E+03 -1.18472E+04  3.56256E+03 -1.27640E+04  9.34141E+03 -1.10566E+04  1.22960E+04 -6.48507E+03
  1.29015E+04  2.21724E+03  7.30318E+03  8.78271E+03  8.77344E+02  1.08196E+04 -3.17530E+03  6.42345E+03
 -4.68014E+03  2.71007E+03 -5.13084E+03 -4.28372E+02  2.53370E+02 -1.36144E+03 -1.10863E+03  1.15372E+02
 -1.65980E+03 -5.16575E+02 -3.47548E+03 -7.91524E+02 -1.02407E+03 -2.01380E+03  2.34729E+02 -3.45437E+03
  2.65521E+03 -2.82498E+03  6.74372E+03  3.69894E+02  6.40839E+03  4.26647E+03  1.27380E+03  7.88910E+03
 -5.42602E+03  9.82909E+03 -8.98981E+03  5.73692E+03 -1.25841E+04 -1.89980E+03 -7.06147E+03 -6.60303E+03
 -3.75583E+03 -8.93866E+03  2.99713E+03 -8.47409E+03  5.83027E+03 -4.05335E+03  7.09870E+03  3.89021E+02
  1.89968E+03  3.95562E+03 -1.53083E+03  3.32881E+03 -1.40671E+03 -1.11277E+03 -1.98109E+02 -4.91750E+02
  3.10364E+03 -3.38365E+03  5.34219E+03  2.45653E+03  3.06199E+03  4.81006E+03 -2.11677E+02  5.88682E+03
 -2.98188E+03  3.55445E+03 -4.37681E+03 -2.18607E+02 -5.01130E+03 -4.40112E+03 -4.86011E+02 -9.29582E+03
  4.01880E+03 -5.69533E+03  6.60027E+03 -7.35032E+02  7.54185E+03  1.84221E+03  3.52143E+03  6.43527E+03
  7.86155E+02  6.57607E+03 -3.45816E+03  4.43300E+03 -4.40382E+03  3.85117E+03 -3.11409E+03  9.67158E+02
 -2.69242E+03  4.28233E+00 -8.65742E+02 -1.10782E+02 -1.08496E+03  1.42605E+03 -3.97936E+03 -1.45450E+03
 -2.98368E+03 -4.56431E+03 -1.23822E+03 -6.88962E+03  2.48068E+03 -6.61824E+03  5.30601E+03 -3.54095E+03
  4.64885E+03  1.36764E+03  2.44131E+03  4.37573E+03 -4.67893E+02  6.85356E+03 -4.86696E+03  3.11284E+03
