 $NMID ID='MM_0lb_SNR200_10hz_g45_48.RAW', FMTDAT='(8E13.5)'
 TRAMP=1., VOLUME=1. $END
  3.09463E+05  4.39040E+02  3.37214E+05  2.50030E+05  8.52766E+04  3.38824E+05 -1.31727E+05  2.52268E+05
 -1.90628E+05  8.34826E+04 -1.11266E+05 -3.13209E+04 -1.18563E+03 -5.10041E+04  5.41918E+04 -5.45179E+02
  3.54253E+04  5.21624E+04 -1.71790E+04  7.48884E+04 -6.19870E+04  6.32240E+04 -8.52569E+04  2.99437E+04
 -8.21936E+04 -1.14279E+04 -5.79325E+04 -5.19475E+04 -1.51480E+04 -7.07515E+04  2.80380E+04 -4.89897E+04
  4.18651E+04  3.78948E+03  1.57175E+04  4.79619E+04 -3.52384E+04  4.80781E+04 -6.69952E+04 -3.62911E+01
 -5.37465E+04 -5.72510E+04 -6.76107E+03 -7.92543E+04  3.36873E+04 -5.70539E+04  4.88577E+04 -1.81262E+04
  4.45788E+04  1.13008E+04  3.23203E+04  2.55406E+04  1.65557E+04  2.93409E+04 -4.97363E+03  2.80027E+04
 -2.15092E+04  1.12973E+04 -1.84317E+04 -4.70129E+03  6.38839E+03 -7.92955E+03  2.35871E+04  1.31872E+04
  8.12151E+03  3.72071E+04 -3.36045E+04  3.76102E+04 -6.54228E+04  1.64955E+03 -5.83002E+04 -4.31328E+04
 -1.19394E+04 -6.45940E+04  4.24882E+04 -4.81641E+04  5.91937E+04 -2.54160E+03  3.54349E+04  3.41324E+04
 -5.68783E+03  3.81479E+04 -2.94062E+04  1.74527E+04 -3.25439E+04 -3.38672E+03 -1.79878E+04 -1.22060E+04
 -7.80474E+03 -1.55754E+04 -7.53719E+02 -1.99442E+04  8.20778E+03 -2.37781E+04  1.54829E+04 -1.20997E+04
  1.14181E+04  5.56977E+03 -1.05756E+04  1.29139E+04 -2.24246E+04 -5.53023E+03 -7.09087E+03 -3.56032E+04
  2.52055E+04 -4.60963E+04  5.02406E+04 -2.01940E+04  4.65179E+04  2.12509E+04  1.62934E+04  4.58541E+04
 -1.60720E+04  3.54762E+04 -2.75130E+04  2.20989E+03 -1.07056E+04 -2.81501E+04  2.09226E+04 -3.41601E+04
  4.27046E+04 -1.01630E+04  3.93104E+04  2.27555E+04  2.08977E+04  4.85551E+04 -8.63945E+03  5.62525E+04
 -3.50163E+04  3.77610E+04 -4.59092E+04  1.09925E+04 -4.59926E+04 -1.94084E+04 -2.39473E+04 -4.04230E+04
  6.97607E+03 -3.92857E+04  3.56581E+04 -1.73459E+04  3.00952E+04  1.06219E+04  5.42357E+03  2.07871E+04
 -1.32212E+04  1.02337E+04 -1.01869E+04 -7.86983E+03  5.79644E+03 -1.10260E+04  1.82192E+04  5.38120E+03
  1.48403E+04  2.22575E+04 -6.12290E+03  2.55916E+04 -2.18222E+04  1.34828E+04 -3.15494E+04 -3.39404E+03
 -2.29618E+04 -1.62956E+04 -9.48157E+03 -2.33623E+04  4.45290E+03 -2.23080E+04  1.81759E+04 -2.31410E+04
  3.02669E+04 -1.44162E+04  3.74213E+04  4.17863E+03  2.50041E+04  2.48889E+04  4.79753E+03  3.84389E+04
 -1.89055E+04  3.29453E+04 -2.94484E+04  1.24982E+04 -2.22333E+04 -9.94945E+03 -4.64835E+03 -1.31487E+04
  1.78742E+03 -2.66281E+03 -7.51662E+03  8.18073E+03 -1.84817E+04  4.22450E+03 -1.96961E+04 -9.12985E+03
 -1.07626E+04 -2.13550E+04  4.72774E+03 -2.60927E+04  1.72172E+04 -1.95961E+04  2.07318E+04 -7.11054E+02
  1.41804E+04  1.52460E+04 -5.21106E+02  2.27086E+04 -1.54303E+04  1.22244E+04 -2.09908E+04 -4.76303E+03
 -1.58678E+04 -2.03206E+04 -2.06966E+03 -2.66494E+04  1.16251E+04 -2.26304E+04  2.29938E+04 -1.04003E+04
  2.05761E+04  3.83812E+02  1.65008E+04  5.53272E+03  7.20197E+03  1.55166E+03  9.67121E+03 -2.04625E+03
  2.09890E+04  3.38292E+03  2.34350E+04  1.84562E+04  1.48511E+04  3.59683E+04 -2.62857E+03  4.07743E+04
 -2.29143E+04  3.52008E+04 -3.89737E+04  1.71817E+04 -4.10922E+04 -3.08669E+03 -3.35351E+04 -2.43841E+04
 -1.40195E+04 -3.57662E+04  1.14247E+04 -2.90930E+04  2.66618E+04 -1.55076E+04  2.17846E+04  6.80085E+03
  7.69184E+03  1.81071E+04 -1.27666E+04  1.41337E+04 -1.77142E+04  3.16872E+03 -1.41028E+04 -1.19828E+04
 -6.26208E+02 -1.87574E+04  9.20788E+03 -1.31959E+04  1.39310E+04 -3.62843E+03  3.72237E+03  6.94789E+03
 -8.12827E+03  5.63846E+03 -7.26253E+03 -7.68123E+03 -2.18188E+03 -1.62030E+04  1.19515E+04 -1.91203E+04
  2.03531E+04 -9.99940E+03  2.30989E+04  3.37084E+03  2.16863E+04  1.64665E+04  8.47678E+03  2.62629E+04
 -4.53445E+03  2.88964E+04 -1.85163E+04  1.94263E+04 -2.06929E+04  5.23643E+03 -1.38254E+04 -5.71738E+03
 -4.77164E+03 -6.38482E+03 -3.77273E+02 -5.38776E+00 -1.56410E+03  3.33235E+03 -6.23688E+03  6.13707E+03
 -1.40736E+04 -1.52961E+03 -1.40249E+04 -1.03753E+04 -5.86286E+03 -1.75226E+04  5.24540E+03 -1.37185E+04
  1.23067E+04 -4.74723E+03  9.70459E+03  2.65835E+03  5.36051E+02  6.43823E+03 -6.13670E+03 -1.19854E+03
 -6.73751E+03 -9.03343E+03 -1.85696E+01 -1.33327E+04  8.04326E+03 -1.53523E+04  1.84691E+04 -7.33794E+03
  2.05601E+04  2.16076E+03  1.51030E+04  1.38936E+04  3.47338E+03  1.71157E+04 -7.93069E+03  1.41812E+04
 -1.23185E+04  5.60504E+03 -6.29517E+03 -3.70145E+03  1.22278E+03 -4.56879E+03  7.25847E+03  4.83853E+02
  7.23561E+03  6.68244E+03  1.23860E+03  1.18643E+04 -7.72018E+03  1.10718E+04 -1.49771E+04  2.06324E+03
 -1.07938E+04 -7.27876E+03  9.63509E+02 -1.14495E+04  8.09265E+03 -7.25409E+03  8.05404E+03  2.31673E+03
  1.69053E+03  9.33098E+03 -7.73792E+03  9.93411E+03 -1.22492E+04  4.41517E+03 -1.16467E+04 -4.29098E+03
 -7.30583E+03 -1.48516E+04  3.85529E+03 -1.64810E+04  1.46807E+04 -1.07954E+04  1.42810E+04  1.56444E+03
  9.14842E+03  1.29428E+04 -1.59798E+03  1.40923E+04 -1.10811E+04  7.10938E+03 -1.10250E+04 -8.14132E+02
 -9.41063E+03 -9.65364E+03 -1.40528E+03 -1.03138E+04  5.96657E+03 -9.01701E+03  7.41885E+03 -4.37625E+03
  5.66609E+03  1.45983E+03 -1.26786E+03  7.05175E+02  3.80541E+02 -2.86114E+03  2.14234E+03 -6.64264E+03
  9.68980E+03 -4.38720E+03  1.41848E+04  1.08437E+03  1.43661E+04  1.01359E+04  9.49324E+03  1.86273E+04
 -3.92059E+03  2.13995E+04 -1.79643E+04  1.78325E+04 -2.44044E+04  4.24362E+03 -1.78488E+04 -8.04117E+03
 -9.59395E+03 -1.56729E+04 -9.93928E+02 -1.22769E+04  3.01872E+03 -7.31642E+03  3.95039E+03 -4.96107E+03
  4.41611E+03 -1.26017E+03  2.79378E+03 -3.30271E+03  3.97735E+03 -3.88400E+03  7.69437E+03 -2.44326E+03
  1.04638E+04  2.53066E+03  4.72605E+03  9.18248E+03 -2.30962E+03  8.34504E+03 -8.79026E+03  7.62782E+03
 -1.25424E+04 -5.84994E+02 -6.86219E+03 -9.95378E+03 -1.28944E+03 -1.34291E+04  7.43474E+03 -1.40938E+04
  1.32046E+04 -6.73765E+03  1.67817E+04  1.50569E+03  1.32772E+04  1.13145E+04  1.60502E+03  1.57451E+04
 -5.52331E+03  1.22471E+04 -7.92591E+03  5.76177E+03 -5.64197E+03 -1.81142E+03 -1.82422E+03 -1.49712E+03
 -1.40895E+03 -8.84191E+02 -1.92072E+03  3.03988E+03 -4.73842E+03  8.01522E+02 -1.04115E+04 -1.05973E+03
 -6.15840E+03 -9.10764E+03  6.10940E+02 -1.29526E+04  6.86439E+03 -1.09704E+04  1.18161E+04 -3.34429E+03
  1.38558E+04  5.99551E+03  6.85863E+03  1.06072E+04 -2.07870E+03  1.27623E+04 -8.87105E+03  8.49787E+03
 -1.20653E+04 -5.96458E+02 -9.60466E+03 -7.96945E+03 -2.09306E+03 -1.12603E+04  6.23747E+03 -8.78094E+03
  9.10723E+03 -2.71595E+03  6.32864E+03  1.76632E+03  4.60150E+02  3.12556E+03  2.80740E+03  1.79644E+03
  2.89720E+03 -6.20661E+01  2.36717E+03  2.22118E+03  2.71970E+03  4.36656E+03  3.33631E+03  6.54635E+03
 -2.49679E+03  1.01372E+04 -7.68515E+03  9.87990E+03 -1.21954E+04  3.67409E+03 -1.36803E+04 -6.21917E+03
 -6.69294E+03 -1.19610E+04  2.38194E+03 -1.40914E+04  7.88976E+03 -9.89003E+03  1.00031E+04 -2.12726E+03
  8.66992E+03  4.60800E+03  2.65486E+03  7.76135E+03 -4.76343E+03  4.58360E+03 -4.67156E+03 -1.45637E+03
 -2.18240E+03 -4.69046E+03  3.76005E+03 -5.81265E+03  6.99586E+03 -2.86108E+03  5.45079E+03  5.80631E+02
  3.80150E+03  2.28202E+03  2.84648E+02  2.52006E+03 -1.23255E+03  1.65126E+03  3.10560E+03 -8.63689E+02
  3.69708E+03 -1.28521E+03  5.16676E+03  2.11987E+03  2.17318E+03  7.36704E+03 -5.90580E+02  9.05675E+03
 -5.61636E+03  5.30935E+03 -9.79425E+03  5.88887E+02 -7.90898E+03 -2.53804E+03 -2.64272E+03 -4.24310E+03
  1.19307E+03 -5.06299E+03  4.72209E+03 -1.98290E+03  2.34317E+03  3.18629E+03 -5.81904E+02  4.42751E+03
 -5.87927E+03  3.33667E+03 -4.68776E+03 -3.59020E+03 -4.13520E+03 -7.02460E+03  1.46567E+03 -8.36019E+03
  4.03475E+03 -3.66449E+03  6.34864E+03  3.34191E+02  4.03972E+03  1.63543E+03  6.37196E+02  4.91035E+03
 -1.81191E+03 -6.59325E+02 -1.55556E+03 -2.01167E+03  1.64368E+03 -6.42862E+03  6.64513E+03 -5.48093E+03
  6.87306E+03 -2.51632E+02  7.98643E+03  5.20698E+03  3.45582E+03  8.61563E+03 -2.87224E+03  8.46906E+03
 -6.33039E+03  3.39339E+03 -7.27061E+03 -2.14506E+03 -3.58223E+03 -6.41522E+03  1.34502E+03 -5.46835E+03
  6.92411E+03 -2.51483E+03  4.31824E+03  1.57459E+03  2.51366E+03  5.42261E+03  9.55441E+02  3.26765E+03
 -5.74621E+02  8.53877E+02 -8.41245E+02  4.25102E+01  4.26212E+02  8.55338E+02 -2.08447E+03  6.64950E+02
 -1.96741E+03  3.42815E+03 -5.12840E+03  3.53721E+03 -8.31715E+03  3.53829E+02 -9.59148E+03 -6.15925E+03
 -3.98178E+03 -1.21618E+04  2.32677E+03 -1.39769E+04  8.49906E+03 -1.07062E+04  1.28045E+04 -3.28660E+03
  1.11604E+04  2.59768E+03  4.75786E+03  5.91578E+03  5.40536E+02  9.06055E+03 -2.34598E+03  6.11319E+03
 -3.92915E+03  1.32163E+03 -1.71752E+03 -1.52406E+03 -5.38501E+02 -1.55117E+03 -7.05987E+02 -2.04500E+02
 -1.61263E+03  4.34300E+02 -3.13518E+03 -2.10462E+02 -1.15330E+03 -2.31018E+03  1.55762E+03 -2.22764E+03
  4.62371E+03 -2.21139E+03  5.00800E+03 -2.77511E+02  5.40683E+03  5.05383E+03  8.17238E+02  6.81653E+03
 -2.54777E+03  1.09584E+04 -8.46951E+03  5.49417E+03 -1.09015E+04 -1.10555E+03 -7.26403E+03 -6.95424E+03
 -3.91023E+03 -9.63945E+03  2.47736E+03 -8.17014E+03  5.28915E+03 -5.78957E+03  5.81249E+03  3.12332E+02
  3.22375E+03  2.13623E+03 -8.49898E+02  1.48606E+03  2.74242E+02  7.26241E+02  3.12798E+01 -2.64945E+03
  2.96829E+03 -1.12568E+03  3.10128E+03  9.95294E+02  8.22841E+02  3.47827E+03  3.08834E+02  3.20811E+03
 -4.00509E+03  5.00888E+03 -4.74107E+03 -2.69863E+02 -4.60117E+03 -3.56254E+03 -1.63860E+02 -5.92285E+03
  3.94679E+03 -5.57758E+03  6.28747E+03 -9.64334E+02  5.08502E+03 -3.89600E+01  3.62249E+03  5.35408E+03
  2.90596E+02  5.78696E+03 -2.33953E+03  4.24129E+03 -3.37601E+03  7.35353E+02 -4.34813E+03  1.08952E+03
 -2.63530E+03 -6.91523E+01 -2.85683E+02  1.56966E+03 -3.90058E+03  1.79991E+03 -4.60647E+03 -2.56604E+03
 -3.94225E+03 -3.72385E+03 -1.50770E+03 -5.71977E+03  2.63445E+03 -5.59929E+03  6.66695E+03 -1.05721E+03
  6.46198E+03 -1.37153E+03  2.06490E+03  2.87327E+03  8.97032E+02  6.24862E+03 -4.18577E+03  4.06998E+03
