 $NMID ID='MM_0lb_SNR200_10hz_g50_85.RAW', FMTDAT='(8E13.5)'
 TRAMP=1., VOLUME=1. $END
  3.11429E+05 -1.80245E+02  3.37875E+05  2.51991E+05  8.56103E+04  3.38147E+05 -1.32693E+05  2.50831E+05
 -1.91625E+05  8.34423E+04 -1.12488E+05 -3.14927E+04 -8.88444E+02 -5.23623E+04  5.34553E+04 -5.94221E+02
  3.59986E+04  5.13330E+04 -1.56620E+04  7.64953E+04 -6.07843E+04  6.47269E+04 -8.59263E+04  3.09729E+04
 -8.24367E+04 -1.10236E+04 -5.83007E+04 -5.10584E+04 -1.43317E+04 -6.97661E+04  2.69987E+04 -4.86162E+04
  4.07751E+04  3.88618E+03  1.63142E+04  4.84711E+04 -3.38429E+04  4.67409E+04 -6.73338E+04 -2.40517E+02
 -5.47081E+04 -5.70138E+04 -7.16757E+03 -7.76543E+04  3.44962E+04 -5.72415E+04  4.83730E+04 -1.77510E+04
  4.44482E+04  9.97721E+03  3.17183E+04  2.69800E+04  1.67009E+04  2.95774E+04 -5.31290E+03  2.78291E+04
 -2.30096E+04  1.29358E+04 -1.73354E+04 -5.93293E+03  6.79925E+03 -8.08526E+03  2.44852E+04  1.36877E+04
  6.12131E+03  3.73721E+04 -3.48061E+04  3.67809E+04 -6.48414E+04  1.88715E+03 -5.86298E+04 -4.34905E+04
 -1.27599E+04 -6.61787E+04  4.16552E+04 -4.66566E+04  6.04733E+04 -3.55715E+03  3.54851E+04  3.37166E+04
 -5.63761E+03  3.94158E+04 -3.19662E+04  1.76969E+04 -3.33235E+04 -8.06486E+02 -1.77632E+04 -1.09707E+04
 -8.63772E+03 -1.31465E+04 -1.05641E+03 -1.83153E+04  7.36564E+03 -2.44658E+04  1.65541E+04 -1.32343E+04
  1.02693E+04  5.89882E+03 -1.06760E+04  1.31112E+04 -2.32758E+04 -7.61877E+03 -8.74763E+03 -3.67230E+04
  2.62659E+04 -4.55148E+04  5.06242E+04 -2.06079E+04  4.88713E+04  1.96998E+04  1.70413E+04  4.68621E+04
 -1.77430E+04  3.55400E+04 -2.75334E+04  2.62311E+03 -1.14854E+04 -2.86908E+04  1.98496E+04 -3.66727E+04
  4.44984E+04 -1.10520E+04  3.93426E+04  2.44195E+04  2.18966E+04  4.92073E+04 -7.61962E+03  5.43406E+04
 -3.27859E+04  3.76458E+04 -4.65451E+04  1.00421E+04 -4.57207E+04 -1.63732E+04 -2.50498E+04 -4.10137E+04
  7.75873E+03 -4.11965E+04  3.43015E+04 -1.58648E+04  3.07137E+04  1.09043E+04  4.02064E+03  1.99927E+04
 -1.29997E+04  1.04483E+04 -1.00772E+04 -8.15276E+03  5.56974E+03 -1.13218E+04  1.86024E+04  6.11654E+03
  1.37993E+04  2.35843E+04 -5.24213E+03  2.57988E+04 -2.31762E+04  1.56431E+04 -3.07779E+04 -3.17922E+03
 -2.31281E+04 -1.88215E+04 -1.16059E+04 -2.40751E+04  3.93320E+03 -2.43071E+04  1.75865E+04 -2.34323E+04
  3.18294E+04 -1.41930E+04  3.52494E+04  5.31425E+03  2.58822E+04  2.51528E+04  4.47314E+03  4.01160E+04
 -1.85935E+04  3.22594E+04 -2.84683E+04  1.33130E+04 -2.10339E+04 -8.78671E+03 -4.65170E+03 -1.33171E+04
  5.51095E+02 -1.64573E+03 -6.61828E+03  9.32892E+03 -2.07753E+04  6.79654E+03 -1.90485E+04 -9.63024E+03
 -1.13543E+04 -2.24617E+04  5.51990E+03 -2.66052E+04  1.73438E+04 -1.95650E+04  2.18984E+04 -9.47736E+02
  1.44316E+04  1.49945E+04 -1.23665E+03  2.30974E+04 -1.48342E+04  1.41531E+04 -2.39414E+04 -4.50943E+03
 -1.65408E+04 -2.15916E+04 -1.62958E+03 -2.75255E+04  1.13602E+04 -2.34469E+04  2.23086E+04 -1.08721E+04
  2.07816E+04 -4.92156E+02  1.51823E+04  5.94789E+03  1.10506E+04  4.35701E+03  1.19740E+04 -2.58102E+03
  2.03377E+04  2.48835E+03  2.34504E+04  1.74246E+04  1.58057E+04  3.57011E+04 -2.48862E+03  4.26374E+04
 -2.38480E+04  3.48182E+04 -4.10613E+04  1.79962E+04 -4.22880E+04 -2.05331E+03 -3.52689E+04 -2.57097E+04
 -1.43723E+04 -3.38046E+04  1.11649E+04 -3.14358E+04  2.69982E+04 -1.45806E+04  2.26414E+04  6.76763E+03
  5.74933E+03  1.81817E+04 -1.09460E+04  1.41991E+04 -1.86648E+04  3.39425E+03 -1.41367E+04 -1.13092E+04
  6.26497E+02 -1.86666E+04  9.32040E+03 -1.38322E+04  1.22520E+04 -6.80825E+02  3.90496E+03  8.00008E+03
 -9.87074E+03  3.46551E+03 -7.41356E+03 -5.47608E+03 -1.74373E+03 -1.61107E+04  1.19767E+04 -1.74751E+04
  2.27415E+04 -1.10769E+04  2.48865E+04  3.06606E+03  2.16329E+04  1.75195E+04  9.98476E+03  2.64141E+04
 -7.34920E+03  2.84802E+04 -2.00710E+04  1.90400E+04 -2.03121E+04  2.81270E+03 -1.53231E+04 -7.38435E+03
 -6.82729E+03 -6.93271E+03 -1.75687E+03 -3.94855E+02 -4.11555E+03  2.80830E+03 -6.05944E+03  3.90794E+03
 -1.26623E+04 -4.03512E+02 -1.44700E+04 -1.03159E+04 -6.04801E+03 -1.86176E+04  5.72578E+03 -1.36848E+04
  1.17698E+04 -5.60322E+03  9.91155E+03  4.53686E+03  1.89951E+01  7.73156E+03 -8.06706E+03  5.78651E+02
 -8.47298E+03 -9.13283E+03 -1.88390E+03 -1.33395E+04  7.89503E+03 -1.57840E+04  1.81783E+04 -8.91713E+03
  2.08046E+04  2.03046E+03  1.71731E+04  1.41910E+04  3.34773E+03  1.76102E+04 -1.01654E+04  1.45958E+04
 -1.27102E+04  3.79462E+03 -6.80903E+03 -2.61484E+03  1.54330E+03 -4.70559E+03  8.60402E+03  2.77949E+02
  5.69414E+03  6.86972E+03  1.16616E+03  1.19101E+04 -7.09378E+03  1.07581E+04 -1.40161E+04  2.85850E+03
 -9.26100E+03 -9.35890E+03 -9.05977E+01 -1.29688E+04  8.54858E+03 -4.92598E+03  9.10775E+03  3.23266E+03
  1.42689E+03  9.72063E+03 -8.43736E+03  1.19314E+04 -1.11638E+04  6.37671E+03 -1.11349E+04 -3.64862E+03
 -8.20367E+03 -1.55777E+04  3.75063E+03 -1.67931E+04  1.46428E+04 -1.03931E+04  1.53657E+04  3.36853E+03
  9.77036E+03  1.21012E+04 -7.66859E+02  1.47871E+04 -1.12173E+04  8.29210E+03 -1.20115E+04 -2.34198E+03
 -8.88655E+03 -9.12172E+03 -1.51475E+03 -1.16645E+04  6.20647E+03 -8.79857E+03  5.83703E+03 -3.03136E+03
  3.94937E+03  1.36898E+03 -3.71358E+02  2.01172E+03 -6.44600E+02 -3.45697E+03  1.91205E+03 -6.72887E+03
  1.12158E+04 -4.22184E+03  1.57233E+04  1.76080E+03  1.49738E+04  8.51787E+03  1.10579E+04  1.91029E+04
 -5.60247E+03  2.07614E+04 -1.76948E+04  1.56611E+04 -2.34137E+04  2.24875E+03 -1.89257E+04 -8.23995E+03
 -1.05854E+04 -1.57007E+04 -5.37811E+02 -1.35573E+04  4.37687E+03 -7.39081E+03  4.64179E+03 -4.20637E+03
  3.10222E+03 -3.53988E+03  4.66149E+03 -3.30388E+03  5.17020E+03 -2.80831E+03  8.83431E+03 -6.82057E+02
  9.97236E+03  2.70124E+03  5.60072E+03  7.78834E+03 -1.45003E+03  1.13208E+04 -9.98665E+03  7.93546E+03
 -1.29658E+04 -2.65879E+03 -7.71609E+03 -1.03433E+04 -8.31598E+02 -1.49511E+04  8.91998E+03 -1.42209E+04
  1.57128E+04 -8.45955E+03  1.84209E+04  3.69331E+03  1.29339E+04  1.35550E+04  6.40243E+02  1.50671E+04
 -6.09496E+03  1.41988E+04 -9.28363E+03  5.08752E+03 -5.79203E+03 -8.26288E+02 -2.59755E+03 -1.39413E+03
  1.78552E+02 -1.71513E+03 -2.61511E+03  1.96006E+03 -4.24986E+03  2.29120E+03 -8.15495E+03 -1.34361E+03
 -6.30752E+03 -9.63464E+03  6.90166E+02 -1.31105E+04  9.58344E+03 -1.21944E+04  1.27911E+04 -2.21535E+03
  1.31048E+04  6.39004E+03  5.10138E+03  1.05965E+04 -2.85299E+03  1.55078E+04 -1.04071E+04  8.01979E+03
 -1.20503E+04  1.59364E+03 -1.10315E+04 -9.01727E+03 -6.72402E+02 -1.02865E+04  5.70515E+03 -8.32654E+03
  8.09447E+03 -3.37540E+03  5.59950E+03  2.42251E+03  2.10319E+03  4.61985E+03  1.31609E+03  1.28058E+03
  2.21346E+03  1.18585E+03  4.02934E+03  1.81401E+03  2.86075E+03  4.53238E+03  2.42764E+03  5.49189E+03
 -3.26238E+03  9.75430E+03 -1.03791E+04  1.13851E+04 -1.36849E+04  2.79181E+03 -1.37497E+04 -5.79874E+03
 -7.28459E+03 -1.42499E+04  1.50051E+03 -1.33154E+04  6.35504E+03 -1.00422E+04  1.02544E+04 -3.29887E+03
  9.78039E+03  5.16764E+03  1.55800E+03  6.97237E+03 -3.23900E+03  5.15980E+03 -4.68013E+03 -4.43608E+02
 -1.46854E+03 -5.78673E+03  2.49422E+03 -4.99803E+03  3.88828E+03 -2.60491E+03  4.43026E+03  1.09788E+03
  3.61314E+03  2.51159E+03  2.13762E+03  2.69459E+03 -3.10174E+02  1.80407E+03  3.95897E+02 -1.16848E+03
  1.30257E+03 -1.63189E+03  4.55900E+03  1.55065E+03  3.60047E+03  8.01832E+03 -1.36569E+03  7.82290E+03
 -6.71376E+03  6.92951E+03 -8.34740E+03  2.46310E+03 -6.98866E+03 -2.88964E+03 -2.44301E+03 -5.11088E+03
  9.80755E+02 -7.20072E+03  3.86080E+03 -3.41674E+03  3.03512E+03  3.14244E+03 -2.14237E+03  4.82889E+03
 -7.05510E+03  2.71982E+03 -6.49971E+03 -2.92404E+03 -4.52737E+03 -6.97021E+03  7.15135E+02 -7.38161E+03
  5.21716E+03 -3.65560E+03  5.51253E+03  6.39005E+02  4.55370E+03  1.50978E+03  4.33869E+02  3.75631E+03
 -4.01095E+03  2.20087E+03 -3.56077E+03 -2.99310E+03  7.77430E+02 -5.21895E+03  9.12694E+03 -4.76012E+03
  7.16116E+03  7.50249E+02  8.17622E+03  5.92012E+03  2.59257E+03  7.46033E+03 -4.66324E+02  6.35346E+03
 -5.27970E+03  3.65733E+03 -6.52466E+03 -5.65819E+01 -3.04563E+03 -5.86749E+03  7.65318E+02 -5.52633E+03
  6.76401E+03 -2.84004E+03  4.61742E+03  2.91542E+03  1.69054E+03  5.02172E+03  2.41774E+02  5.17802E+03
 -1.12491E+03  2.97401E+03 -2.52093E+03  1.15733E+02 -1.64598E+03  1.39620E+03 -6.03947E+02  1.65518E+03
 -1.37796E+03  3.32660E+03 -6.69576E+03  2.02521E+03 -6.48878E+03 -9.27157E+02 -9.85159E+03 -6.85326E+03
 -5.32320E+03 -1.26290E+04  2.60613E+03 -1.47704E+04  8.03305E+03 -9.45451E+03  1.26180E+04 -5.68088E+03
  1.14987E+04  2.78476E+03  6.79241E+03  6.08245E+03  4.48340E+02  8.75991E+03 -3.21321E+03  5.66909E+03
 -4.88891E+03  1.60515E+03 -3.29062E+03 -2.10959E+02 -1.07093E+03 -1.29126E+03 -1.34511E+03 -3.85828E+02
 -1.98776E+03  2.09834E+03 -3.06070E+03  6.53482E+02  4.09900E+02 -1.45876E+03 -5.08636E+02 -5.25466E+03
  4.38492E+03 -1.48545E+03  3.92291E+03  8.93556E+01  6.33843E+03  4.30496E+03  3.06055E+03  8.96112E+03
 -3.69680E+03  9.27014E+03 -1.01393E+04  5.48694E+03 -9.45569E+03 -1.33993E+03 -6.92156E+03 -6.07454E+03
 -2.44519E+03 -9.08634E+03  1.90702E+03 -8.53664E+03  6.32878E+03 -3.44096E+03  5.72609E+03  1.17896E+03
  3.04378E+03  2.04082E+03 -4.62710E+01  2.75100E+03 -1.68353E+03  9.82171E+01  3.30478E+02 -2.44539E+03
  2.06043E+03 -1.02752E+03  3.99621E+03  7.96157E+02  3.09799E+03  3.46594E+03  9.70529E+02  3.32612E+03
 -3.55402E+03  4.28715E+03 -7.40618E+03 -1.20476E+03 -5.13411E+03 -6.12157E+03 -7.44355E+02 -8.19373E+03
  3.19319E+03 -6.63501E+03  6.14821E+03 -1.51137E+03  6.07901E+03  5.08860E+02  3.57673E+03  5.69086E+03
  7.60479E+02  6.03539E+03 -1.17678E+03  3.36591E+03 -3.80819E+03  2.80547E+03 -1.17355E+03  1.35635E+03
 -2.44730E+03 -1.06743E+03 -5.93449E+02  1.12392E+01 -3.17785E+03  1.44894E+03 -4.63657E+03 -5.05440E+02
 -3.71580E+03 -3.80968E+03 -5.66981E+01 -5.81841E+03  1.82041E+03 -7.50808E+03  4.42995E+03 -1.40704E+03
  6.85927E+03  5.43104E+02  2.68429E+03  2.24905E+03 -1.03944E+03  5.85736E+03 -4.03652E+03  3.64881E+03
