 $NMID ID='MM_0lb_SNR200_18hz_g40_20.RAW', FMTDAT='(8E13.5)'
 TRAMP=1., VOLUME=1. $END
  3.10775E+05  3.69215E+02  3.36722E+05  2.50636E+05  8.15290E+04  3.36463E+05 -1.32509E+05  2.50197E+05
 -1.89905E+05  8.22703E+04 -1.10697E+05 -3.29060E+04  2.05214E+03 -4.99157E+04  5.42384E+04  1.18385E+02
  3.48639E+04  5.28219E+04 -1.65791E+04  7.43713E+04 -6.08340E+04  6.28300E+04 -8.26935E+04  3.18497E+04
 -7.96981E+04 -1.04354E+04 -5.55622E+04 -5.06383E+04 -1.54926E+04 -6.90484E+04  2.67318E+04 -4.45360E+04
  3.98633E+04  4.47230E+03  1.70099E+04  4.77950E+04 -3.31612E+04  4.55817E+04 -6.58701E+04 -3.92430E+02
 -5.16569E+04 -5.56935E+04 -5.75946E+03 -7.53895E+04  3.39854E+04 -5.37407E+04  4.63808E+04 -1.67582E+04
  4.13918E+04  1.10042E+04  3.09077E+04  2.53111E+04  1.64071E+04  2.74411E+04 -4.56406E+03  2.65557E+04
 -2.13091E+04  1.30557E+04 -1.98664E+04 -4.25955E+03  4.39314E+03 -7.53548E+03  2.19222E+04  1.13530E+04
  7.97947E+03  3.27483E+04 -2.98751E+04  3.43394E+04 -6.06719E+04  1.69724E+03 -5.50408E+04 -4.02337E+04
 -1.25537E+04 -6.09014E+04  3.77743E+04 -4.28924E+04  5.36274E+04 -1.53551E+03  3.22527E+04  3.03876E+04
 -6.79241E+03  3.26556E+04 -2.84978E+04  1.28191E+04 -2.72312E+04 -5.47322E+03 -1.44220E+04 -1.01733E+04
 -8.17019E+03 -1.12789E+04 -5.22484E+02 -1.59302E+04  5.24294E+03 -2.16437E+04  1.48044E+04 -1.37386E+04
  1.35649E+04  4.45966E+03 -5.45589E+03  1.24858E+04 -1.94042E+04 -2.56272E+03 -7.23937E+03 -3.04766E+04
  2.09525E+04 -4.13321E+04  4.50585E+04 -1.84565E+04  4.21531E+04  1.81041E+04  1.42558E+04  4.10655E+04
 -1.44213E+04  3.13811E+04 -2.42210E+04 -2.74005E+02 -8.91753E+03 -2.68135E+04  1.99770E+04 -3.07986E+04
  3.70281E+04 -7.48475E+03  3.15982E+04  2.27552E+04  1.41972E+04  4.26146E+04 -8.21016E+03  4.61601E+04
 -2.69383E+04  2.93048E+04 -3.65581E+04  8.58057E+03 -3.74883E+04 -1.43555E+04 -2.06567E+04 -3.45412E+04
  7.09958E+03 -3.37660E+04  2.88156E+04 -1.26685E+04  2.60848E+04  1.02354E+04  3.02118E+03  1.83559E+04
 -1.29395E+04  6.84418E+03 -9.44508E+03 -7.83165E+03  6.36625E+03 -9.93365E+03  1.69500E+04  6.05829E+03
  1.27516E+04  2.07979E+04 -7.49149E+03  2.28150E+04 -2.15046E+04  9.83829E+03 -2.56021E+04 -7.61327E+03
 -1.59544E+04 -1.65871E+04 -5.72343E+03 -1.63416E+04  4.24280E+03 -1.51769E+04  1.14328E+04 -1.36529E+04
  2.05754E+04 -1.13340E+04  2.71288E+04  7.22045E+02  2.10316E+04  1.55988E+04  4.81242E+03  3.23795E+04
 -1.54826E+04  2.77530E+04 -2.50492E+04  9.30526E+03 -1.88925E+04 -1.07691E+04 -4.19249E+03 -1.38462E+04
  2.86161E+03 -3.70541E+03 -3.26148E+03  5.85049E+03 -1.16454E+04  6.09801E+03 -1.27513E+04 -4.81873E+03
 -8.14990E+03 -1.55365E+04  4.00498E+03 -1.91872E+04  1.25305E+04 -1.39227E+04  1.39475E+04 -1.06055E+03
  8.73538E+03  1.03729E+04 -1.67886E+02  1.61670E+04 -1.01535E+04  7.92834E+03 -1.51637E+04 -3.50232E+03
 -1.08579E+04 -1.44704E+04 -1.50706E+03 -1.76151E+04  8.54584E+03 -1.40863E+04  1.56017E+04 -6.99060E+03
  1.41818E+04  1.53865E+03  1.01708E+04  3.67558E+03  4.73008E+03  6.19649E+02  7.68298E+03 -9.77780E+02
  1.29266E+04  2.98286E+03  1.45785E+04  1.21263E+04  9.14396E+03  2.46361E+04 -3.34480E+03  2.71214E+04
 -1.48224E+04  1.95245E+04 -2.51230E+04  8.61853E+03 -2.39951E+04 -1.69798E+03 -2.13117E+04 -1.52606E+04
 -1.02471E+04 -2.01088E+04  7.44527E+03 -1.81620E+04  1.70422E+04 -1.16308E+04  1.53833E+04  4.02833E+03
  5.93334E+03  1.23887E+04 -6.38549E+03  1.05757E+04 -1.31682E+04  3.68490E+03 -1.03293E+04 -6.82222E+03
  6.40731E+02 -1.21088E+04  5.05060E+03 -9.58085E+03  6.97295E+03 -1.46079E+03  9.59350E+02  5.38821E+03
 -5.73512E+03  1.45597E+03 -2.86495E+03 -3.54739E+03  1.40262E+03 -1.01581E+04  8.94116E+03 -8.91995E+03
  1.35483E+04 -4.57503E+03  1.20208E+04  2.61031E+03  1.08054E+04  9.74621E+03  5.46263E+03  1.34907E+04
 -2.60789E+03  1.55737E+04 -9.97747E+03  1.01430E+04 -1.07658E+04  3.15912E+03 -8.14764E+03 -1.38963E+03
 -4.02918E+03 -3.20494E+03 -1.86908E+03  1.78303E+03 -1.78393E+03  1.17197E+03 -3.17350E+03  3.69849E+03
 -7.64640E+03  3.81185E+02 -8.56202E+03 -6.63061E+03 -3.23329E+03 -1.20724E+04  4.78229E+03 -8.89258E+03
  6.37504E+03 -3.85841E+03  5.54273E+03  1.93378E+03  1.74427E+01  2.37861E+03 -3.75340E+03 -2.62305E+02
 -3.10547E+03 -6.02213E+03 -1.10275E+01 -6.71841E+03  4.33286E+03 -8.69580E+03  9.75863E+03 -2.98202E+03
  1.17474E+04  4.04963E+02  8.94800E+03  6.23798E+03  1.98674E+03  8.97005E+03 -5.16586E+03  7.98204E+03
 -7.40866E+03  2.53722E+03 -4.19915E+03 -7.19891E+02  1.78972E+03 -2.31798E+03  4.54599E+03  1.43893E+02
  4.23881E+03  3.56220E+03  1.03795E+03  7.20267E+03 -4.35235E+03  7.45061E+03 -8.53364E+03  1.96876E+03
 -4.52625E+03 -4.87061E+03  1.03500E+03 -7.20752E+03  4.13652E+03 -4.08358E+03  3.38640E+03  7.07003E+02
  9.33635E+02  2.73409E+03 -3.44370E+03  5.87954E+03 -6.27288E+03  1.19986E+03 -4.43028E+03 -1.38599E+03
 -2.49164E+03 -6.28778E+03  9.64340E+02 -6.59515E+03  5.72290E+03 -4.67752E+03  7.05114E+03  1.07956E+03
  4.47587E+03  4.84926E+03  9.70611E+02  7.10790E+03 -4.40770E+03  4.97650E+03 -4.74601E+03 -4.23688E+02
 -6.04463E+03 -5.09230E+03 -2.06385E+03 -4.43901E+03  2.70173E+03 -4.46033E+03  2.54482E+03 -2.50942E+03
  3.26761E+03 -3.17551E+01  3.54909E+02  2.54323E+03 -4.46669E+02 -1.78215E+01  6.81866E+02 -2.32228E+03
  4.76356E+03 -9.81469E+02  4.34199E+03  7.50428E+02  5.06141E+03  3.28369E+03  5.81542E+03  7.92305E+03
 -7.02801E+02  8.89328E+03 -7.32055E+03  6.14248E+03 -9.55960E+03  2.32728E+03 -7.05812E+03 -1.28628E+03
 -4.32861E+03 -6.53586E+03  5.27743E+02 -5.33878E+03  2.42074E+03 -2.20143E+03  6.34705E+02 -2.63419E+03
  8.52352E+02 -1.12581E+03  2.36781E+03 -1.50165E+03  4.08207E+03 -8.73197E+02  3.46087E+03  1.20167E+03
  3.79296E+03  2.16121E+03  1.47414E+03  3.41924E+03 -1.17597E+03  2.34890E+03 -5.25243E+03  3.80986E+03
 -5.00378E+03 -1.41083E+03 -1.61009E+03 -3.99376E+03  4.49221E+02 -5.58919E+03  2.16015E+03 -5.51581E+03
  6.32039E+03 -3.60934E+03  7.24329E+03 -2.23897E+02  5.08487E+03  4.64511E+03  1.37967E+03  7.01885E+03
 -2.47870E+03  4.54953E+03 -3.79410E+03  1.99542E+03 -9.26697E+02 -1.16590E+03 -2.85824E+02  4.02966E+02
  3.72067E+02  3.36001E+02 -9.87501E+02  2.36242E+03 -2.65804E+03  5.81215E+02 -3.89769E+03  5.70798E+02
 -1.81176E+03 -3.79899E+03  3.78693E+02 -4.65336E+03  2.87387E+03 -5.45365E+03  4.52672E+03  1.31920E+02
  4.38653E+03  4.14660E+03  1.39166E+03  4.16014E+03 -7.27096E+02  4.00078E+03 -2.24744E+03  3.09658E+03
 -4.18858E+03 -4.56355E+01 -2.93514E+03 -2.90832E+03  2.64091E+02 -4.10045E+03  3.14805E+03 -1.88965E+03
  1.90432E+03 -1.21960E+03  1.48489E+03  5.48788E+02 -5.39995E+02  2.32696E+03  4.50524E+02  1.50904E+03
 -5.84643E+01 -3.57573E+02  1.04839E+03  3.75517E+02  1.77682E+03  2.59627E+03  1.07080E+03  1.21064E+03
 -1.17398E+03  3.29583E+03 -2.20550E+03  4.26502E+03 -3.03467E+03  2.36208E+03 -3.63544E+03 -1.60136E+02
 -1.72311E+03 -4.17407E+03  1.22717E+03 -5.05388E+03  1.92397E+03 -2.19809E+03  3.64473E+03 -2.19152E+02
  2.16149E+03  1.23508E+03  3.33494E+02  1.14731E+03 -9.50533E+02  1.46098E+03 -1.17286E+03 -1.15094E+03
 -4.27599E+02 -1.99579E+03  1.87151E+02 -1.13827E+03  1.05948E+03 -1.88329E+03  4.03041E+02  3.44480E+02
  3.14014E+02 -2.35430E+02  1.12633E+03 -1.77995E+02 -3.18707E+02  1.94398E+02  2.82762E+03 -1.07312E+03
 -5.10245E+02  1.79928E+02  1.87199E+03 -9.36783E+01  6.45791E+02  2.38627E+03 -1.01601E+03  3.07373E+03
 -1.57286E+03  1.00940E+02 -3.17674E+03  6.62831E+02 -2.05234E+03  8.06087E+00 -8.62907E+02 -8.73070E+02
  8.86551E+02 -2.06071E+03  1.45119E+03  1.75490E+02  6.19103E+02  1.06149E+03  1.02233E+02  4.64975E+02
 -1.99214E+03  3.05021E+02 -1.20432E+03 -1.50790E+03 -8.32218E+02 -1.94709E+03  1.10239E+03 -1.32459E+03
 -4.67997E+02 -7.70251E+02  1.18459E+03  2.04990E+02  1.17055E+03 -2.58252E+01  6.61220E+01  1.34631E+03
 -3.77441E+02 -3.60204E+01 -6.39228E+02 -7.42524E+02  6.55784E+02 -1.31182E+02  1.83809E+03 -9.84832E+02
  1.49661E+03  2.22667E+02  2.76288E+03  8.43325E+02  1.74987E+02  1.95912E+03  5.87381E+02  2.47575E+03
 -1.56163E+03  3.90098E+02 -1.02478E+03 -1.00832E+03 -8.20753E+01 -9.26345E+02 -4.99198E+02 -8.91507E+02
  2.13835E+03 -2.57203E+02  1.25495E+03  6.16746E+02  1.10268E+03  1.22541E+03  2.42586E+02  1.67988E+02
 -1.62003E+02  1.24445E+03 -4.66663E+02 -3.63095E+02  3.63169E+02  7.82060E+02 -7.04750E+02 -8.00483E+02
 -6.63476E+02  9.34213E+02 -1.14929E+03  1.00206E+03 -1.84858E+03  7.69050E+02 -2.34716E+03 -2.56824E+02
 -1.42536E+02 -3.12403E+03  5.01178E+02 -2.85263E+03  5.29009E+02 -2.45874E+03  3.00631E+03 -1.02619E+03
  2.49476E+03  1.20506E+02  1.17039E+03  2.37688E+03 -2.99045E+02  1.79004E+03 -8.22197E+02  1.23044E+03
 -1.15565E+03  1.35201E+03 -9.51919E+02  7.29484E+02 -1.15183E+02  1.01673E+03 -1.34445E+03  3.16802E+02
 -2.04504E+03 -5.30440E+02 -1.16407E+03  6.53993E+01  8.34684E+02 -8.92205E+02 -2.29125E+02 -1.57205E+03
  2.05520E+03 -5.16440E+02  2.28637E+01 -5.34081E+02  1.80000E+03  1.66730E+03  3.64973E+02  2.11882E+03
 -7.14984E+02  1.89406E+03 -1.72956E+03  1.56926E+03 -1.96871E+03  8.85783E+01 -9.68345E+02 -2.14028E+03
 -1.55068E+03 -1.35102E+03  1.45776E+02 -5.83725E+02  1.13590E+03 -4.70876E+02  1.46289E+03  2.59120E+01
  1.86366E+03 -3.06874E+02 -1.55234E+02  3.65306E+02 -1.37894E+02 -3.20075E+02 -6.67593E+02 -7.91996E+02
  3.11481E+02  1.33163E+03  6.76099E+02 -3.76745E+02  1.54334E+02  3.48966E+01  8.59074E+02  7.54082E+02
 -5.85389E+02  1.78606E+03 -6.60716E+02  6.96800E+02 -1.44369E+03 -1.32653E+02  2.43028E+02 -1.19349E+03
  9.37953E+02 -8.26828E+02  6.89387E+02 -5.96881E+02  1.38879E+03 -1.01978E+03  1.27938E+03  1.16049E+02
  1.36077E+03  1.61162E+02  1.53044E+02  3.59162E+02 -1.14035E+02  2.26025E+02 -7.90201E+02  1.40639E+01
 -6.52210E+02  1.02297E+02 -2.62499E+01  4.16426E+02  5.21961E+01  4.92567E+02 -7.44599E+02 -3.01154E+02
 -8.72343E+02 -3.32209E+02 -9.63833E+01 -9.61732E+02  9.11119E+02 -2.36935E+03  1.52844E+03 -8.47083E+02
  7.56833E+02  5.91763E+02 -9.10340E+02  1.21449E+03  4.21612E+02 -3.59054E+01  3.44169E+02  3.55841E+02
