 $NMID ID='MM_0lb_SNR200_8hz_g50_99.RAW', FMTDAT='(8E13.5)'
 TRAMP=1., VOLUME=1. $END
  3.10383E+05  4.17048E+02  3.40260E+05  2.51509E+05  8.28194E+04  3.38713E+05 -1.32978E+05  2.50385E+05
 -1.91168E+05  8.26805E+04 -1.11843E+05 -3.31189E+04 -3.26374E+02 -4.91851E+04  5.26941E+04 -1.77203E+02
  3.52551E+04  5.18070E+04 -1.60286E+04  7.59187E+04 -6.13715E+04  6.47203E+04 -8.52332E+04  3.23527E+04
 -8.35424E+04 -1.25885E+04 -5.75915E+04 -5.16810E+04 -1.54025E+04 -7.15015E+04  2.87385E+04 -4.66999E+04
  4.16161E+04  1.60777E+03  1.73441E+04  4.89561E+04 -3.56496E+04  4.83618E+04 -6.74386E+04  9.76042E+02
 -5.49077E+04 -5.93721E+04 -7.96734E+03 -7.94484E+04  3.29326E+04 -5.81752E+04  5.06862E+04 -1.90882E+04
  4.61518E+04  1.18680E+04  3.25361E+04  2.70020E+04  1.65196E+04  2.97752E+04 -5.08217E+03  2.71826E+04
 -2.15499E+04  1.13076E+04 -1.84435E+04 -5.23357E+03  6.17454E+03 -7.59420E+03  2.24125E+04  1.50760E+04
  7.04607E+03  3.72074E+04 -3.39835E+04  3.66582E+04 -6.65955E+04  2.35188E+03 -6.00907E+04 -4.47736E+04
 -1.17918E+04 -6.60255E+04  4.33643E+04 -4.82492E+04  6.02372E+04 -1.35962E+03  3.76507E+04  3.36140E+04
 -5.26931E+03  3.82505E+04 -3.19283E+04  1.87001E+04 -3.35109E+04 -3.39614E+03 -1.99968E+04 -1.26766E+04
 -9.47097E+03 -1.54557E+04 -6.42895E+02 -1.95480E+04  8.35822E+03 -2.46542E+04  1.58613E+04 -1.22146E+04
  1.00439E+04  5.44982E+03 -1.21571E+04  1.38894E+04 -2.25067E+04 -6.42359E+03 -8.53525E+03 -3.85303E+04
  2.52795E+04 -4.72270E+04  5.18085E+04 -2.20936E+04  5.03213E+04  2.16837E+04  1.81285E+04  4.65607E+04
 -1.52876E+04  3.71452E+04 -2.56763E+04  3.80102E+03 -1.15461E+04 -3.04863E+04  2.18397E+04 -3.99623E+04
  4.60738E+04 -1.04237E+04  4.18654E+04  2.70431E+04  2.18497E+04  5.09226E+04 -9.04000E+03  5.85446E+04
 -3.53031E+04  3.85280E+04 -4.98636E+04  1.10859E+04 -4.86749E+04 -1.96114E+04 -2.73330E+04 -4.34536E+04
  7.93347E+03 -4.52221E+04  3.45547E+04 -1.71753E+04  3.28938E+04  1.08445E+04  4.64608E+03  2.14953E+04
 -1.38961E+04  1.01992E+04 -1.22724E+04 -7.31432E+03  6.97713E+03 -9.82671E+03  2.09477E+04  4.70980E+03
  1.53774E+04  2.13131E+04 -3.38873E+03  2.74225E+04 -2.48479E+04  1.56072E+04 -3.20863E+04 -1.71515E+03
 -2.48666E+04 -1.94093E+04 -1.19532E+04 -2.57513E+04  3.05364E+03 -2.51680E+04  2.19345E+04 -2.54004E+04
  3.09120E+04 -1.30279E+04  3.92133E+04  4.65147E+03  2.63854E+04  2.32727E+04  4.65326E+03  4.25877E+04
 -1.87743E+04  3.48842E+04 -3.19857E+04  1.21144E+04 -2.07035E+04 -1.17277E+04 -6.99990E+03 -1.23360E+04
  1.94400E+03 -9.44223E+02 -8.28156E+03  9.37467E+03 -2.20605E+04  4.97762E+03 -2.17475E+04 -1.01228E+04
 -1.36558E+04 -2.50294E+04  5.76111E+03 -2.82682E+04  1.93714E+04 -2.12049E+04  2.39032E+04 -2.24841E+03
  1.49917E+04  1.83583E+04 -3.35411E+01  2.35010E+04 -1.83665E+04  1.38854E+04 -2.45023E+04 -4.38904E+03
 -1.82009E+04 -2.11611E+04 -1.83406E+03 -2.93049E+04  1.34469E+04 -2.46643E+04  2.29261E+04 -1.20560E+04
  2.40218E+04  1.04030E+01  1.62462E+04  6.81824E+03  9.02802E+03  1.14161E+03  1.28415E+04 -2.79667E+03
  2.37032E+04  1.43640E+03  2.72254E+04  1.77567E+04  1.69970E+04  3.90059E+04 -2.22016E+03  4.58425E+04
 -2.58355E+04  3.81679E+04 -4.48237E+04  2.06555E+04 -4.72072E+04 -2.98694E+03 -3.93903E+04 -2.81001E+04
 -1.38695E+04 -4.00493E+04  1.53121E+04 -3.50377E+04  2.97143E+04 -1.52717E+04  2.41788E+04  8.11912E+03
  7.71668E+03  1.93263E+04 -1.14650E+04  1.63114E+04 -2.09969E+04  2.89947E+03 -1.61687E+04 -1.40040E+04
 -6.96625E+02 -2.19951E+04  1.09923E+04 -1.51492E+04  1.35583E+04 -1.99849E+03  3.41260E+03  8.80807E+03
 -7.59042E+03  5.92018E+03 -9.89116E+03 -9.99006E+03 -1.94484E+03 -1.90322E+04  1.14199E+04 -2.22463E+04
  2.39761E+04 -1.10156E+04  2.93049E+04  2.62671E+03  2.34890E+04  1.78965E+04  1.25677E+04  3.19110E+04
 -5.54694E+03  3.36624E+04 -2.13821E+04  2.14810E+04 -2.15413E+04  5.99028E+03 -1.58176E+04 -4.64186E+03
 -7.53690E+03 -8.41019E+03 -7.96780E+02  2.06763E+03 -1.96208E+03  3.29284E+03 -9.00515E+03  4.76877E+03
 -1.53601E+04 -2.00655E+03 -1.34166E+04 -1.20826E+04 -5.70053E+03 -1.89960E+04  6.64506E+03 -1.68175E+04
  1.38685E+04 -5.51961E+03  1.03808E+04  3.32864E+03 -1.81718E+03  6.50193E+03 -1.04262E+04 -4.46696E+02
 -6.99027E+03 -1.15028E+04 -2.24393E+03 -1.59604E+04  1.07387E+04 -1.75297E+04  2.18403E+04 -1.03403E+04
  2.38398E+04  1.93314E+03  1.77727E+04  1.70325E+04  3.90489E+03  2.19298E+04 -1.06323E+04  1.69161E+04
 -1.53155E+04  5.34876E+03 -6.64863E+03 -2.66142E+03  2.70361E+03 -5.33140E+03  7.40193E+03 -3.27982E+02
  7.76990E+03  7.66968E+03  1.46458E+03  1.26505E+04 -9.95807E+03  1.23790E+04 -1.81571E+04  4.45312E+03
 -1.10285E+04 -9.30143E+03  1.73991E+02 -1.43067E+04  1.08272E+04 -7.85988E+03  9.89241E+03  4.91504E+03
  2.97185E+03  8.81091E+03 -9.30028E+03  1.35830E+04 -1.57140E+04  6.21181E+03 -1.63459E+04 -5.43565E+03
 -8.55911E+03 -1.77953E+04  2.77447E+03 -1.85460E+04  1.68702E+04 -1.15589E+04  1.79734E+04  3.37635E+03
  1.06705E+04  1.42204E+04 -1.70590E+03  1.68719E+04 -1.34019E+04  1.23891E+04 -1.49600E+04 -3.20491E+02
 -1.13998E+04 -1.33609E+04 -2.02106E+03 -1.34212E+04  7.18712E+03 -1.07736E+04  9.43712E+03 -3.06262E+03
  4.93138E+03  2.92198E+03 -5.51558E+02  1.88033E+03 -2.41830E+03 -2.10505E+03  3.15020E+03 -8.89024E+03
  1.20834E+04 -5.52754E+03  1.86827E+04  1.69414E+03  1.67725E+04  1.23772E+04  9.63266E+03  2.34841E+04
 -5.73706E+03  2.63128E+04 -2.17773E+04  1.91525E+04 -2.71463E+04  3.02146E+03 -2.35662E+04 -9.79769E+03
 -1.19178E+04 -1.74507E+04 -5.86008E+01 -1.59778E+04  5.59439E+03 -7.37827E+03  5.13268E+03 -5.54770E+03
  4.38332E+03 -3.42094E+03  3.80887E+03 -4.79528E+03  5.08199E+03 -3.94780E+03  7.88474E+03 -1.67123E+03
  1.10341E+04  3.80764E+03  7.13636E+03  9.19233E+03 -3.21622E+03  1.40065E+04 -1.36577E+04  7.73490E+03
 -1.49104E+04 -1.97457E+03 -1.03481E+04 -1.27644E+04 -3.24539E+03 -2.01595E+04  7.64055E+03 -1.86410E+04
  1.83479E+04 -9.35540E+03  2.16398E+04  4.02758E+03  1.45176E+04  1.57221E+04  1.30176E+03  1.92238E+04
 -9.34369E+03  1.61014E+04 -1.05677E+04  3.67059E+03 -8.36610E+03 -3.39641E+02 -3.39910E+03 -2.91015E+03
 -2.40695E+03  1.82522E+03 -2.05589E+03  3.21691E+03 -7.42378E+03  8.34442E+02 -1.16487E+04 -5.01540E+02
 -9.34653E+03 -1.01274E+04 -1.01935E+03 -1.60975E+04  9.66434E+03 -1.60052E+04  1.57601E+04 -6.62048E+03
  1.66657E+04  7.95545E+03  6.94299E+03  1.50082E+04 -3.99358E+03  1.72868E+04 -1.18628E+04  1.02262E+04
 -1.54705E+04  2.25646E+03 -1.30345E+04 -9.45613E+03 -3.47611E+03 -1.37486E+04  7.75229E+03 -1.14161E+04
  1.13417E+04 -2.26031E+03  7.63840E+03  2.57757E+03  2.66631E+03  4.90202E+03  1.06518E+02  7.84786E+02
  2.96412E+03 -1.46757E+02  4.32582E+03  1.19470E+03  3.73682E+03  6.40797E+03  2.84068E+03  9.76515E+03
 -3.06101E+03  1.33059E+04 -1.21375E+04  1.45163E+04 -1.72057E+04  4.59965E+03 -1.75722E+04 -8.83128E+03
 -8.66707E+03 -1.53481E+04  1.52659E+03 -1.86351E+04  9.54816E+03 -1.29750E+04  1.41194E+04 -3.35032E+03
  1.10670E+04  5.66818E+03  2.05244E+03  9.18559E+03 -2.70543E+03  5.32315E+03 -8.53966E+03 -1.78182E+02
 -2.00596E+03 -8.75740E+03  4.23321E+03 -6.11796E+03  7.34330E+03 -3.54985E+03  8.30254E+03  9.86556E+02
  5.47675E+03  2.06455E+03  1.60734E+03  2.71915E+03 -1.14718E+03  2.68496E+03  1.95365E+03 -3.22955E+03
  1.87851E+03 -8.19425E+02  5.95533E+03  4.03794E+03  4.86107E+03  9.48575E+03 -4.46779E+02  1.16441E+04
 -9.26047E+03  6.94197E+03 -1.26257E+04  1.67232E+03 -8.47406E+03 -4.27606E+03 -3.34240E+03 -8.12666E+03
  3.44008E+02 -6.30401E+03  5.42111E+03 -2.59021E+03  5.07082E+03  2.19906E+03 -6.94079E+02  4.78039E+03
 -5.59943E+03  3.61599E+03 -8.49453E+03 -4.98360E+03 -2.61048E+03 -9.28562E+03  9.37522E+01 -1.03189E+04
  6.75882E+03 -4.41309E+03  7.63390E+03 -2.20356E+03  5.48742E+03  2.37998E+03  1.54278E+03  4.71774E+03
 -3.15739E+03  9.37145E+02 -3.79539E+03 -3.40012E+03  2.20030E+03 -8.25727E+03  1.09536E+04 -6.01087E+03
  1.15215E+04  1.99664E+02  9.90946E+03  1.00435E+04  3.57764E+03  1.18490E+04 -3.68937E+03  1.24035E+04
 -9.03064E+03  5.65902E+03 -9.71686E+03 -1.30165E+03 -4.65489E+03 -7.71577E+03  3.92782E+03 -7.92542E+03
  7.99227E+03 -4.19283E+03  6.17342E+03  3.68359E+03  1.89861E+03  6.86793E+03 -2.79247E+02  5.87845E+03
 -2.81615E+03  3.92093E+03 -1.94159E+03  1.92365E+03 -1.39753E+03  1.28457E+03 -1.09409E+03  1.95194E+03
 -4.22966E+03  3.12579E+03 -7.06940E+03  3.04706E+03 -1.21863E+04 -2.91225E+02 -1.51713E+04 -9.00441E+03
 -6.36533E+03 -1.56454E+04  4.11534E+03 -1.83055E+04  1.20576E+04 -1.40394E+04  1.67624E+04 -5.18323E+03
  1.55179E+04  2.92021E+03  1.02714E+04  1.23561E+04  1.70866E+03  1.27185E+04 -5.41250E+03  8.18183E+03
 -5.94128E+03  5.12291E+03 -3.77971E+03 -1.81989E+03  4.09854E+02 -9.03632E+02  8.47370E+02 -4.39532E+02
 -2.62909E+03 -2.01733E+03 -3.01630E+03  1.33689E+03 -3.98703E+01 -3.65611E+03  9.02348E+02 -6.65250E+03
  2.70098E+03 -2.94264E+03  7.45058E+03  1.54199E+02  7.43852E+03  8.03811E+03  2.76409E+03  1.33179E+04
 -7.15382E+03  1.51778E+04 -1.24974E+04  7.54586E+03 -1.45612E+04 -2.09275E+03 -1.13486E+04 -7.59704E+03
 -5.96587E+03 -1.27782E+04  4.28645E+03 -1.20112E+04  8.34384E+03 -6.11741E+03  5.47071E+03 -2.28529E+02
  4.35564E+03  4.99012E+03 -2.57553E+03  3.12697E+03 -2.39933E+03  5.52386E+02  6.17775E+02 -3.87706E+03
  3.39766E+03 -2.27863E+03  5.52742E+03  1.09303E+03  3.10190E+03  4.09165E+03  3.10384E+02  8.06335E+03
 -6.00654E+03  6.16784E+03 -7.28251E+03 -2.23470E+02 -9.23202E+03 -5.91153E+03 -1.25478E+03 -1.01751E+04
  5.92506E+03 -8.88258E+03  9.93104E+03 -2.81615E+03  1.06432E+04  3.40223E+03  5.98069E+03  8.71334E+03
  3.19317E+03  7.94324E+03 -4.73499E+03  6.50409E+03 -4.82019E+03  3.59883E+03 -4.26867E+03  7.66709E+01
 -2.94440E+03 -2.24099E+02 -3.29065E+03  2.79560E+02 -5.20858E+03  1.55112E+03 -7.89114E+03 -3.09049E+03
 -6.54903E+03 -5.13440E+03 -1.10383E+03 -7.06728E+03  4.93036E+03 -8.78296E+03  6.04907E+03 -4.30900E+03
  8.93669E+03  1.08634E+02  4.85650E+03  5.68167E+03 -1.31856E+03  9.12551E+03 -5.49435E+03  4.84703E+03
