 $NMID ID='MM_0lb_SNR200_20hz_g60_77.RAW', FMTDAT='(8E13.5)'
 TRAMP=1., VOLUME=1. $END
  3.09971E+05  1.11464E+03  3.37481E+05  2.49448E+05  8.48573E+04  3.37481E+05 -1.31839E+05  2.50193E+05
 -1.89452E+05  8.25165E+04 -1.11306E+05 -3.37261E+04  1.20422E+03 -5.05845E+04  5.37723E+04 -7.82165E+02
  3.50323E+04  5.39414E+04 -1.66502E+04  7.50201E+04 -6.02890E+04  6.27808E+04 -8.32313E+04  3.12241E+04
 -8.01974E+04 -1.20003E+04 -5.70714E+04 -5.01880E+04 -1.56174E+04 -6.93564E+04  2.70329E+04 -4.47039E+04
  3.97968E+04  3.45419E+03  1.47243E+04  4.71811E+04 -3.43154E+04  4.56100E+04 -6.57304E+04 -5.53170E+02
 -5.21797E+04 -5.65834E+04 -6.18565E+03 -7.50827E+04  3.39119E+04 -5.33437E+04  4.70043E+04 -1.67970E+04
  4.10561E+04  1.20188E+04  3.18301E+04  2.43157E+04  1.59561E+04  2.84032E+04 -3.36889E+03  2.68525E+04
 -2.23007E+04  1.31560E+04 -1.92901E+04 -5.28565E+03  3.81434E+03 -6.77062E+03  2.10165E+04  1.21750E+04
  7.61251E+03  3.42338E+04 -2.99015E+04  3.48023E+04 -6.18134E+04  3.19765E+03 -5.61262E+04 -4.07537E+04
 -1.21094E+04 -6.14588E+04  3.80036E+04 -4.47391E+04  5.58508E+04 -1.48691E+03  3.33714E+04  3.12927E+04
 -6.72043E+03  3.38381E+04 -2.99837E+04  1.32808E+04 -2.85135E+04 -4.40758E+03 -1.58835E+04 -1.05613E+04
 -7.80022E+03 -1.16835E+04 -2.33715E+03 -1.71637E+04  7.14949E+03 -2.23046E+04  1.54792E+04 -1.22999E+04
  1.15298E+04  4.96732E+03 -6.91839E+03  1.24239E+04 -1.94036E+04 -2.28658E+03 -8.80707E+03 -3.14205E+04
  2.15735E+04 -4.17305E+04  4.46921E+04 -1.85242E+04  4.38976E+04  1.83494E+04  1.35068E+04  4.23812E+04
 -1.58247E+04  3.16250E+04 -2.45402E+04  1.69739E+03 -8.51614E+03 -2.63033E+04  2.07944E+04 -3.14495E+04
  3.77889E+04 -8.29821E+03  3.21523E+04  2.23396E+04  1.65665E+04  4.33193E+04 -7.32446E+03  4.57893E+04
 -2.95994E+04  3.05201E+04 -3.98431E+04  8.50464E+03 -3.90251E+04 -1.56271E+04 -2.20691E+04 -3.50169E+04
  6.74848E+03 -3.51740E+04  2.91156E+04 -1.35828E+04  2.58972E+04  1.18572E+04  3.63191E+03  1.76187E+04
 -1.24721E+04  8.39309E+03 -1.03149E+04 -7.56988E+03  5.22481E+03 -1.07285E+04  1.75894E+04  7.08555E+03
  1.32456E+04  2.26754E+04 -6.34614E+03  2.43155E+04 -2.13512E+04  1.06923E+04 -2.65918E+04 -6.08296E+03
 -1.63858E+04 -1.68955E+04 -5.31013E+03 -1.65764E+04  3.70516E+03 -1.47615E+04  1.34349E+04 -1.56865E+04
  2.21868E+04 -1.20380E+04  2.80496E+04  5.90485E+02  2.23079E+04  1.67408E+04  4.28462E+03  3.35608E+04
 -1.67327E+04  2.83378E+04 -2.64065E+04  9.92035E+03 -2.03087E+04 -1.04658E+04 -4.00752E+03 -1.31758E+04
  2.89113E+03 -3.15231E+03 -3.59129E+03  5.59854E+03 -1.36945E+04  4.73761E+03 -1.31029E+04 -5.31291E+03
 -8.74457E+03 -1.57928E+04  4.48061E+03 -2.06364E+04  1.23552E+04 -1.35333E+04  1.36606E+04 -1.96654E+03
  9.27156E+03  1.06455E+04 -3.30727E+02  1.59540E+04 -1.15329E+04  8.58740E+03 -1.62680E+04 -3.78289E+03
 -1.16136E+04 -1.42162E+04 -1.56241E+03 -1.90834E+04  8.37139E+03 -1.56955E+04  1.65917E+04 -6.83144E+03
  1.42340E+04  9.33769E+02  1.05573E+04  3.81338E+03  4.93262E+03 -8.29916E+01  7.75317E+03 -2.14236E+03
  1.30564E+04  2.54619E+03  1.49392E+04  1.20906E+04  8.51850E+03  2.48376E+04 -2.69809E+03  2.71733E+04
 -1.52838E+04  2.02852E+04 -2.44742E+04  1.10339E+04 -2.55981E+04 -2.06532E+03 -2.19414E+04 -1.38257E+04
 -9.48180E+03 -2.07103E+04  6.42500E+03 -1.91892E+04  1.77491E+04 -1.02668E+04  1.66197E+04  2.27321E+03
  6.08193E+03  1.09780E+04 -5.80067E+03  9.83214E+03 -1.29263E+04  2.82693E+03 -8.97635E+03 -7.92973E+03
 -5.14495E+02 -1.21695E+04  5.72641E+03 -9.03006E+03  6.92823E+03 -1.73427E+03  1.79768E+03  4.66870E+03
 -5.56063E+03  2.42410E+03 -3.96313E+03 -4.78480E+03  8.93700E+02 -9.27627E+03  7.64928E+03 -9.53956E+03
  1.23279E+04 -4.42473E+03  1.10942E+04  3.05785E+03  1.06729E+04  1.02245E+04  5.05294E+03  1.44865E+04
 -6.77928E+02  1.55596E+04 -9.84807E+03  1.06765E+04 -1.08858E+04  3.31663E+03 -7.73381E+03 -1.49308E+03
 -4.59886E+03 -3.34642E+03 -1.74283E+03  7.29934E+02 -1.97351E+03  1.82685E+03 -2.97041E+03  2.72414E+03
 -8.29726E+03 -4.32019E+02 -9.37902E+03 -6.71615E+03 -3.29471E+03 -1.14054E+04  3.50444E+03 -7.78275E+03
  6.77595E+03 -3.72836E+03  5.66428E+03  2.91896E+03  1.78119E+02  2.62769E+03 -2.62250E+03 -7.14864E+02
 -2.56007E+03 -5.96354E+03 -7.28180E+02 -6.94090E+03  3.05427E+03 -7.75383E+03  9.13973E+03 -3.84221E+03
  1.15229E+04  1.58613E+03  8.45067E+03  6.45672E+03  1.39675E+03  8.47443E+03 -4.68765E+03  8.04586E+03
 -6.66868E+03  2.79274E+03 -3.93560E+03 -1.01329E+03  8.86622E+02 -1.07183E+03  4.57967E+03 -4.37914E+02
  4.29404E+03  2.95193E+03  1.24602E+03  5.43215E+03 -4.29891E+03  5.89616E+03 -7.06609E+03  1.82445E+03
 -5.41889E+03 -3.74131E+03  1.19679E+03 -7.11461E+03  3.51566E+03 -3.03402E+03  3.35831E+03 -2.62422E+02
 -3.21727E+01  2.57303E+03 -2.97615E+03  3.93556E+03 -4.97122E+03  2.16581E+03 -3.50724E+03 -1.03327E+03
 -3.26959E+03 -5.86910E+03  1.24102E+03 -5.80109E+03  4.73860E+03 -3.80477E+03  6.76489E+03  6.92672E+02
  4.01220E+03  4.04489E+03  3.98300E+02  6.66667E+03 -4.89621E+03  3.78537E+03 -4.99888E+03  1.75709E+02
 -5.35883E+03 -5.55625E+03 -2.29594E+03 -5.17370E+03  3.18087E+03 -4.32707E+03  2.03475E+03 -2.42617E+03
  1.63932E+03 -6.93533E+02  1.28256E+03  2.56663E+03  6.57834E+02 -4.99953E+02  1.27416E+03 -1.61501E+03
  2.21455E+03 -8.37092E+02  5.42839E+03 -1.21979E+02  4.86296E+03  2.53540E+03  5.90265E+03  5.54204E+03
 -2.84284E+02  7.07724E+03 -7.45200E+03  6.51168E+03 -9.10334E+03  3.81487E+02 -7.19832E+03 -1.58950E+03
 -4.19428E+03 -5.44203E+03  8.43246E+01 -4.03116E+03  1.99926E+03 -1.91474E+03  1.45452E+03 -2.17109E+03
  1.51697E+02 -1.26942E+03  2.98766E+03 -2.19678E+03  4.16177E+03 -1.05691E+03  4.44794E+03  1.81166E+03
  3.72510E+03  1.70509E+03  9.27939E+02  2.94736E+03 -7.83034E+02  2.46466E+03 -4.31620E+03  2.94183E+03
 -3.89132E+03 -1.18153E+03 -8.13621E+02 -2.56763E+03  1.40302E+03 -3.23117E+03  2.39197E+03 -5.09546E+03
  4.56877E+03 -2.93135E+03  5.73726E+03  5.04766E+02  4.27370E+03  3.57714E+03 -2.69160E+02  5.95272E+03
 -1.83755E+03  5.74416E+03 -3.33039E+03  1.58625E+03 -1.58393E+03 -4.15055E+02  1.00728E+02 -1.27965E+02
 -3.65244E+02  7.01321E+02 -1.37830E+03  1.28321E+03 -1.41484E+03  1.07247E+03 -3.55500E+03  1.39220E+02
 -1.11543E+03 -3.93029E+03  9.93108E+02 -3.38806E+03  2.07157E+03 -3.38520E+03  3.41401E+03 -1.72798E+03
  4.10208E+03  1.50907E+03  1.23366E+03  2.89425E+03 -3.87615E+02  3.35027E+03 -1.90498E+03  3.13397E+03
 -3.71195E+03 -3.92997E+02 -2.56671E+03 -1.87093E+03 -8.10751E+02 -1.32264E+03  1.63082E+03 -2.40306E+03
  2.04037E+03 -1.02783E+03  1.56556E+03  4.28049E+01 -3.86670E+02  1.19966E+03  6.43631E+02  9.95111E+02
  1.07633E+03  5.74549E+02  4.49068E+02  1.07391E+03  1.56761E+03  2.20757E+03  1.25082E+03  1.49760E+03
 -8.00400E+02  2.26917E+03 -2.19734E+03  4.13344E+03 -2.28088E+03  1.65712E+03 -3.42214E+03  2.65593E+01
 -7.46989E+02 -3.92837E+03  4.68432E+02 -4.60649E+03  1.16305E+03 -3.16983E+03  2.92679E+03 -6.84735E+02
  2.04442E+03  3.31106E+02  5.78530E+02  1.69225E+03 -7.48494E+02 -9.08746E+02 -6.23468E+02 -1.22750E+03
 -1.39956E+03 -1.12514E+03  1.04570E+03 -1.65953E+03  2.34270E+02 -9.96702E+02  1.21938E+03 -4.05090E+02
  4.19249E+02  3.74402E+02  1.41574E+03 -7.32168E+02 -1.41018E+02  1.58060E+02  2.07969E+03  8.83496E+01
 -6.52452E+02 -3.33360E+02  3.51674E+03  1.64132E+03 -2.72290E+02  1.80194E+03 -5.59481E+02  2.04201E+03
 -3.11293E+03  4.88474E+02 -1.89452E+03  4.77028E+02 -1.60154E+03 -1.33999E+03 -8.96355E+01 -9.00865E+02
  1.25808E+02 -2.08740E+03  1.14152E+03 -1.00634E+03  1.81156E+03  7.70778E+02 -1.12937E+03  1.56600E+03
  4.53285E+02  1.30808E+03 -8.15504E+02 -4.59741E+02 -1.38775E+03 -1.85317E+03  3.36648E+02 -1.18695E+03
  1.37138E+02 -3.47031E+02  8.72292E+02 -5.33103E+02  5.46974E+02 -1.41240E+03 -5.62090E+02  4.83238E+02
 -1.83050E+02 -4.52873E+01 -5.80860E+02 -4.74584E+01  1.60831E+03 -3.95350E+02  1.48438E+03 -1.02016E+03
  1.50292E+03  3.27065E+02  1.23192E+03  6.58325E+02  1.28091E+03  8.73064E+02  2.02476E+02  9.32134E+02
 -1.45941E+03  1.65049E+02 -9.22089E+02  7.06337E+01  3.08070E+02 -1.10509E+03  6.93386E+02 -9.74039E+01
  1.25630E+03 -1.10665E+03  6.99505E+02  8.26005E+02  7.65167E+02  9.37158E+02 -1.52626E+02  1.58199E+03
 -1.64633E+02  1.07885E+03 -3.30126E+02  1.16474E+03  6.95300E+02  2.30151E+02 -4.09921E+02  2.12400E+02
 -3.67591E+02  8.11174E+02 -1.84126E+03  3.79878E+02 -2.00981E+03 -5.61896E+02 -1.32295E+03 -1.05361E+03
 -1.36828E+03 -1.71102E+03  7.23521E+02 -9.51247E+02 -8.53813E+01 -2.31939E+03  3.46951E+03  1.15510E+02
  1.59758E+03 -2.33543E+02  5.59430E+02  2.13689E+02 -6.76066E+02  1.03772E+03  3.79518E+02  3.66568E+02
 -8.13240E+02  2.88804E+02 -6.49394E+02 -2.13168E+02 -1.19544E+03  2.92955E+02 -2.45255E+02 -2.11895E+02
 -7.91050E+02 -2.66691E+02 -1.05859E+03  5.83573E+02 -1.36453E+02 -3.86249E+02  6.57473E+02  1.63091E+02
  1.17478E+03 -4.12163E+02 -3.57030E+02 -2.02084E+02  2.62626E+02 -1.97258E+02 -1.82702E+02  1.00490E+03
 -1.41533E+03  2.38907E+03 -1.34641E+03  9.56490E+02 -3.33816E+02 -1.37960E+02 -4.75458E+02 -9.82195E+02
 -2.30679E+02 -1.27152E+03 -2.22492E+01 -9.65483E+02  9.05563E+02 -7.94748E+02  7.50901E+02  7.49577E+02
  1.15818E+03  2.08593E+02  6.69709E+02 -3.46982E+02 -1.03502E+03 -3.42012E+02 -9.96313E+01  5.02987E+02
  4.43324E+02  1.38456E+03  1.23973E+03  3.89041E+02 -5.27185E+02  5.14686E+02  6.60763E+02  1.63790E+02
 -7.29048E+02  1.08319E+03  2.49062E+01 -1.68019E+02 -3.91272E+02 -9.66599E+02  7.99253E+02 -7.94695E+02
  3.00102E+02 -1.44224E+02  4.34516E+02  8.33979E+01  4.17962E+02 -8.85118E+02  6.57844E+02  1.15894E+03
 -2.61539E+02  5.96482E+02 -2.43034E+02 -1.09703E+02  4.34952E+02  1.55196E+03 -7.08697E+02 -2.13990E+02
 -8.59080E+02 -6.84510E+02 -5.10044E+02  3.18862E+01 -2.47235E+01  3.49178E+02 -6.36334E+02  1.72743E+02
 -1.66672E+03  2.58779E+02 -3.54446E+02 -1.18424E+03  2.40459E+02 -5.95310E+02  6.66799E+02 -6.49374E+02
  8.82633E+02  4.94718E+02 -1.85867E+03  1.19609E+03 -1.38285E+02  4.01121E+02 -6.61168E+02  6.97173E+02
