 $NMID ID='MM_0lb_SNR200_9hz_g60_27.RAW', FMTDAT='(8E13.5)'
 TRAMP=1., VOLUME=1. $END
  3.10054E+05  8.52495E+02  3.35513E+05  2.49571E+05  8.57109E+04  3.40149E+05 -1.32507E+05  2.51493E+05
 -1.90191E+05  8.33255E+04 -1.11676E+05 -3.34326E+04  8.77778E+02 -5.07826E+04  5.30155E+04 -1.03735E+03
  3.57090E+04  5.32247E+04 -1.59642E+04  7.54145E+04 -6.24137E+04  6.60264E+04 -8.51151E+04  3.45028E+04
 -8.21022E+04 -1.31582E+04 -5.81169E+04 -5.32605E+04 -1.56930E+04 -7.24048E+04  2.73912E+04 -4.58024E+04
  4.13680E+04  4.09851E+03  1.82412E+04  4.95793E+04 -3.50486E+04  4.84248E+04 -6.88965E+04  2.29770E+02
 -5.46053E+04 -5.85745E+04 -7.38062E+03 -7.90405E+04  3.42974E+04 -5.75658E+04  5.04303E+04 -1.73126E+04
  4.51734E+04  1.18270E+04  3.43629E+04  2.71193E+04  1.51868E+04  3.27673E+04 -4.44786E+03  2.61372E+04
 -2.26278E+04  1.02969E+04 -1.74094E+04 -4.96480E+03  7.53767E+03 -7.30051E+03  2.37877E+04  1.49750E+04
  7.74740E+03  3.73842E+04 -3.51377E+04  3.77756E+04 -6.61769E+04  2.20790E+03 -5.84680E+04 -4.53709E+04
 -1.29018E+04 -6.70911E+04  4.28399E+04 -4.60532E+04  6.29765E+04 -3.57981E+03  3.86052E+04  3.44314E+04
 -4.93639E+03  4.03251E+04 -3.23049E+04  2.01797E+04 -3.28208E+04 -2.53862E+03 -2.00356E+04 -1.32396E+04
 -8.85346E+03 -1.50521E+04 -1.33974E+03 -2.08948E+04  7.79044E+03 -2.31131E+04  1.67666E+04 -1.24375E+04
  1.09586E+04  6.41992E+03 -1.17301E+04  1.19979E+04 -2.24298E+04 -5.67973E+03 -1.01296E+04 -3.95500E+04
  2.48544E+04 -4.81861E+04  5.34201E+04 -2.07038E+04  5.02177E+04  2.20379E+04  1.77366E+04  4.88595E+04
 -1.64366E+04  3.60980E+04 -2.96501E+04  3.46308E+03 -1.26484E+04 -3.09633E+04  2.18612E+04 -3.83263E+04
  4.37643E+04 -9.71390E+03  3.97222E+04  2.46856E+04  2.18648E+04  5.21530E+04 -9.10748E+03  5.81583E+04
 -3.52014E+04  3.70540E+04 -5.11686E+04  1.18045E+04 -4.94149E+04 -1.87078E+04 -2.72715E+04 -4.15141E+04
  7.96697E+03 -4.26330E+04  3.52286E+04 -1.57160E+04  3.30177E+04  1.21545E+04  5.45288E+03  2.15097E+04
 -1.48695E+04  9.03815E+03 -1.02430E+04 -8.23651E+03  6.93939E+03 -1.24539E+04  1.87896E+04  4.44882E+03
  1.49576E+04  2.27774E+04 -4.60230E+03  2.67696E+04 -2.47348E+04  1.48645E+04 -3.32138E+04 -3.43247E+03
 -2.60201E+04 -1.76853E+04 -1.12617E+04 -2.58417E+04  4.47412E+03 -2.78292E+04  2.07071E+04 -2.45163E+04
  3.25045E+04 -1.30494E+04  3.95769E+04  5.34675E+03  2.69251E+04  2.67618E+04  5.72540E+03  4.17298E+04
 -2.24140E+04  3.45092E+04 -3.04403E+04  1.28183E+04 -2.28407E+04 -9.51754E+03 -4.74586E+03 -1.31087E+04
  4.88073E+02 -6.27422E+02 -8.11818E+03  9.44304E+03 -2.11872E+04  3.90116E+03 -1.91697E+04 -1.05469E+04
 -1.23020E+04 -2.42845E+04  6.53237E+03 -2.86085E+04  1.89149E+04 -2.05780E+04  2.22782E+04 -1.34267E+03
  1.66913E+04  1.57963E+04 -1.19424E+03  2.30934E+04 -1.65951E+04  1.44908E+04 -2.40986E+04 -6.40194E+03
 -1.71810E+04 -2.11308E+04 -2.50405E+03 -2.80401E+04  1.36572E+04 -2.36703E+04  2.38759E+04 -1.19068E+04
  2.20145E+04 -1.83656E+03  1.80504E+04  5.91891E+03  9.54963E+03  1.79855E+03  1.21454E+04 -2.10622E+03
  2.27757E+04  2.70109E+03  2.56969E+04  1.95327E+04  1.85460E+04  3.92885E+04 -2.49494E+03  4.68243E+04
 -2.70787E+04  3.84003E+04 -4.43988E+04  2.13706E+04 -4.71992E+04 -4.53230E+03 -3.79058E+04 -2.82465E+04
 -1.51959E+04 -3.95106E+04  1.46945E+04 -3.47435E+04  2.80824E+04 -1.61628E+04  2.57423E+04  8.87568E+03
  8.70333E+03  1.96096E+04 -1.03578E+04  1.80790E+04 -2.19245E+04  2.40078E+03 -1.41091E+04 -1.37346E+04
 -1.29449E+03 -2.20164E+04  1.14128E+04 -1.42952E+04  1.49574E+04 -5.54971E+02  2.74542E+03  1.03632E+04
 -9.20874E+03  4.81067E+03 -9.90939E+03 -6.86615E+03 -1.57393E+03 -1.86978E+04  1.16057E+04 -2.09538E+04
  2.30403E+04 -1.21174E+04  2.81878E+04  4.99345E+03  2.44501E+04  2.11709E+04  1.14768E+04  3.19134E+04
 -6.46445E+03  3.16281E+04 -2.12859E+04  2.00980E+04 -2.30689E+04  3.81947E+03 -1.52082E+04 -7.36396E+03
 -6.15911E+03 -8.02166E+03  1.63673E+01  6.50759E+02 -2.64680E+03  4.15634E+03 -9.10846E+03  5.94852E+03
 -1.49339E+04  1.99611E+01 -1.50771E+04 -1.18380E+04 -5.37255E+03 -2.18744E+04  6.35373E+03 -1.69298E+04
  1.41890E+04 -6.76811E+03  9.63909E+03  4.11675E+03 -1.04488E+03  5.64989E+03 -9.21627E+03 -7.91498E+02
 -6.90076E+03 -1.02693E+04  1.31671E+02 -1.72047E+04  1.14422E+04 -1.88010E+04  2.31519E+04 -8.82827E+03
  2.57189E+04  3.12918E+03  1.81193E+04  1.73557E+04  2.59203E+03  1.98678E+04 -1.08496E+04  1.56603E+04
 -1.50863E+04  4.20143E+03 -7.51269E+03 -4.08279E+03  2.57921E+03 -3.73405E+03  7.41037E+03 -4.54579E+02
  6.88384E+03  7.30884E+03  1.92567E+03  1.42056E+04 -1.03611E+04  1.21711E+04 -1.71317E+04  2.12282E+03
 -1.10264E+04 -7.84862E+03 -6.47321E+02 -1.47957E+04  1.01281E+04 -8.42607E+03  9.04443E+03  3.02149E+03
  2.57309E+03  1.12341E+04 -1.06339E+04  1.22320E+04 -1.53693E+04  7.76740E+03 -1.45146E+04 -5.73789E+03
 -1.05680E+04 -1.87895E+04  4.66944E+03 -1.88943E+04  1.78360E+04 -1.16580E+04  1.89873E+04  3.82142E+03
  1.05639E+04  1.51537E+04 -4.28271E+02  1.62477E+04 -1.24093E+04  9.76442E+03 -1.34526E+04 -1.35935E+03
 -1.21997E+04 -1.06152E+04 -1.21527E+03 -1.46168E+04  6.31059E+03 -9.55439E+03  8.01480E+03 -5.04304E+03
  4.81858E+03  3.36293E+03 -1.55536E+03  2.69043E+03 -4.00767E+02 -4.78906E+03  3.78679E+03 -9.12016E+03
  1.22794E+04 -5.25648E+03  1.83993E+04  3.25990E+03  1.68450E+04  1.17878E+04  1.15741E+04  2.26297E+04
 -5.78868E+03  2.56010E+04 -2.07578E+04  1.94067E+04 -2.74744E+04  3.15529E+03 -2.07396E+04 -9.69783E+03
 -1.06811E+04 -1.74260E+04  1.45948E+03 -1.47506E+04  6.37655E+03 -1.01531E+04  6.94016E+03 -7.38584E+03
  3.92986E+03 -3.63790E+03  2.88366E+03 -3.80764E+03  4.26300E+03 -4.05271E+03  7.76503E+03 -9.89764E+02
  1.06350E+04  2.72726E+03  6.51439E+03  1.18131E+04 -5.13772E+03  1.21224E+04 -1.17676E+04  9.99261E+03
 -1.52238E+04 -1.35811E+03 -1.05509E+04 -1.13458E+04 -3.17717E+03 -1.75652E+04  8.30323E+03 -1.70645E+04
  1.55354E+04 -9.83670E+03  1.96430E+04  3.56232E+03  1.15034E+04  1.50385E+04  1.45040E+03  2.05798E+04
 -8.34081E+03  1.38456E+04 -1.34868E+04  5.67353E+03 -6.86882E+03 -1.24845E+03 -2.70557E+03 -4.29660E+03
  2.55749E+02 -1.41247E+03 -2.79792E+03  3.37446E+03 -6.46800E+03  2.19978E+03 -9.90329E+03 -1.92822E+03
 -6.53818E+03 -9.72480E+03  7.04558E+02 -1.75765E+04  1.13433E+04 -1.52695E+04  1.61703E+04 -4.85492E+03
  1.59195E+04  8.30932E+03  8.10988E+03  1.46235E+04 -3.19480E+03  1.42081E+04 -1.01736E+04  1.02590E+04
 -1.44684E+04  1.24437E+03 -1.02343E+04 -1.08703E+04 -1.62951E+03 -1.39276E+04  6.96439E+03 -1.04689E+04
  1.03354E+04 -3.66880E+03  7.08297E+03  1.77205E+03  4.89662E+03  4.19550E+03  2.75177E+03  2.94316E+03
  2.29572E+03  2.17192E+02  2.77057E+03  2.75446E+03  3.83470E+03  5.59576E+03  3.21666E+03  9.37220E+03
 -3.29247E+03  1.24988E+04 -1.05054E+04  1.09486E+04 -1.66647E+04  2.38548E+03 -1.81161E+04 -7.19100E+03
 -7.53358E+03 -1.69370E+04  3.58878E+03 -1.78287E+04  1.11744E+04 -1.16844E+04  1.27552E+04 -3.83053E+03
  1.10664E+04  4.77774E+03  2.79076E+03  1.04528E+04 -5.60746E+03  7.32062E+03 -7.39444E+03  2.88144E+02
 -3.88674E+03 -7.63813E+03  3.18086E+03 -6.92824E+03  8.04220E+03 -4.22437E+03  4.82184E+03  4.05099E+03
  4.79156E+03  1.65192E+03  1.51406E+03  2.31513E+03 -1.62492E+03  1.71534E+03  1.37212E+03 -1.60659E+03
  2.39476E+03 -1.11949E+03  6.52116E+03  1.41799E+03  5.34047E+03  8.71081E+03 -1.18343E+02  1.13541E+04
 -7.91562E+03  6.69527E+03 -9.80837E+03  1.72365E+03 -9.16548E+03 -4.67001E+03 -4.28318E+03 -6.14460E+03
  1.83795E+03 -6.73384E+03  4.48242E+03 -3.53906E+03  3.43457E+03  3.17064E+03 -1.83056E+03  4.91475E+03
 -7.09937E+03  3.45571E+03 -7.24145E+03 -2.86798E+03 -3.11822E+03 -9.07561E+03  1.95731E+03 -9.81930E+03
  5.58491E+03 -6.37080E+03  7.79438E+03 -1.05161E+02  5.85468E+03  2.09452E+03  1.47523E+03  4.80488E+03
 -5.30865E+03  1.90950E+03 -5.03490E+03 -4.61269E+03  9.64730E+02 -6.68038E+03  9.22227E+03 -6.33380E+03
  1.04257E+04  6.71751E+02  9.71426E+03  7.77946E+03  3.12511E+03  1.13783E+04 -2.89867E+03  1.05334E+04
 -7.78952E+03  6.23841E+03 -8.90483E+03 -2.05467E+03 -4.51383E+03 -6.78318E+03  2.76589E+03 -6.99594E+03
  6.96026E+03 -2.59431E+03  6.07498E+03  2.22528E+03  2.01419E+03  6.70729E+03 -1.92500E+03  4.87841E+03
 -2.71091E+03  3.47498E+03 -2.70935E+03  2.40823E+03 -9.30435E+02 -1.20420E+03 -1.10359E+03  1.48528E+03
 -2.68156E+03  3.98443E+03 -6.99002E+03  2.75292E+03 -8.85327E+03 -1.57409E+03 -1.13732E+04 -8.22543E+03
 -5.63859E+03 -1.51573E+04  4.04650E+03 -1.62337E+04  1.12852E+04 -1.53112E+04  1.58145E+04 -3.11362E+03
  1.43616E+04  2.80781E+03  8.52292E+03  1.07862E+04  1.91891E+02  1.09939E+04 -6.27882E+03  8.18579E+03
 -5.83663E+03  2.84982E+03 -2.58780E+03 -1.38162E+03 -1.31056E+03 -1.27443E+03 -9.22902E+02 -9.66829E+02
 -1.78540E+03 -5.97639E+02 -1.41821E+03 -3.43519E+02 -2.26610E+03 -1.32984E+03 -6.21517E+02 -4.23821E+03
  4.61355E+03 -3.61874E+03  7.15756E+03 -3.07015E+01  7.56747E+03  5.99830E+03  3.74889E+03  1.18808E+04
 -5.81917E+03  1.31965E+04 -1.31108E+04  6.89185E+03 -1.35857E+04 -1.16013E+03 -1.03977E+04 -8.25670E+03
 -5.40316E+03 -1.20455E+04  2.15992E+03 -1.14505E+04  1.01511E+04 -5.54580E+03  6.40828E+03  1.31394E+02
  3.28062E+03  4.03308E+03 -1.52335E+02  2.89891E+03 -9.23158E+02  1.53464E+03 -6.89733E+02 -2.78677E+03
  2.21301E+03 -1.78259E+03  6.16250E+03  1.65279E+03  4.09565E+03  4.02056E+03 -3.89008E+02  5.94731E+03
 -4.09056E+03  6.38105E+03 -7.70337E+03  1.09495E+03 -6.58678E+03 -4.87941E+03 -1.74851E+03 -9.15541E+03
  5.52861E+03 -5.87522E+03  9.15954E+03 -3.23332E+03  8.02331E+03  1.54831E+03  5.40195E+03  8.13101E+03
  6.33506E+02  8.86342E+03 -2.25935E+03  6.35500E+03 -6.18666E+03  3.05635E+03 -5.13477E+03  1.06523E+02
 -2.03686E+03  2.35450E+02 -2.35307E+03  1.30381E+03 -3.71856E+03  2.16186E+03 -6.97290E+03 -1.26612E+03
 -5.11165E+03 -5.60232E+03 -1.80694E+03 -7.07250E+03  3.06504E+03 -9.72443E+03  6.59616E+03 -4.01770E+03
  8.12767E+03  2.58337E+02  5.31091E+03  5.22086E+03 -1.06872E+03  7.61347E+03 -5.32845E+03  5.52452E+03
