 $NMID ID='MM_0lb_SNR200_15hz_g60_93.RAW', FMTDAT='(8E13.5)'
 TRAMP=1., VOLUME=1. $END
  3.09925E+05  6.17432E+02  3.38107E+05  2.51270E+05  8.60280E+04  3.38472E+05 -1.33773E+05  2.51689E+05
 -1.89541E+05  8.31445E+04 -1.12118E+05 -3.30418E+04  6.43850E+02 -4.90781E+04  5.33981E+04  2.65634E+02
  3.43195E+04  5.46136E+04 -1.78712E+04  7.47771E+04 -6.11517E+04  6.45048E+04 -8.48668E+04  3.36496E+04
 -8.05575E+04 -1.15882E+04 -5.67560E+04 -5.06820E+04 -1.71402E+04 -7.00746E+04  2.84331E+04 -4.56228E+04
  3.89061E+04  4.32088E+03  1.70621E+04  4.77155E+04 -3.37966E+04  4.68727E+04 -6.63875E+04 -8.44273E+02
 -5.30516E+04 -5.71107E+04 -7.63002E+03 -7.75378E+04  3.33120E+04 -5.51449E+04  4.74857E+04 -1.73224E+04
  4.39520E+04  9.95670E+03  3.21259E+04  2.55107E+04  1.59117E+04  2.98780E+04 -4.57716E+03  2.65921E+04
 -2.06469E+04  1.34966E+04 -1.75532E+04 -4.75886E+03  5.93974E+03 -7.76792E+03  2.30672E+04  1.18486E+04
  7.93622E+03  3.46199E+04 -3.28912E+04  3.58704E+04 -6.23741E+04  2.96259E+03 -5.81430E+04 -4.21350E+04
 -1.21796E+04 -6.27177E+04  4.02280E+04 -4.43970E+04  5.91029E+04 -7.15185E+02  3.50481E+04  3.38340E+04
 -6.07079E+03  3.55312E+04 -3.00727E+04  1.65475E+04 -3.09759E+04 -4.83898E+03 -1.80308E+04 -1.09880E+04
 -8.23529E+03 -1.33121E+04 -8.58257E+02 -1.84232E+04  7.32499E+03 -2.38087E+04  1.54825E+04 -1.30093E+04
  1.07307E+04  5.23447E+03 -7.32854E+03  1.38204E+04 -2.17401E+04 -4.57077E+03 -8.59677E+03 -3.33720E+04
  2.46648E+04 -4.42493E+04  4.84189E+04 -2.06499E+04  4.50032E+04  2.02086E+04  1.38942E+04  4.45677E+04
 -1.58694E+04  3.31540E+04 -2.62083E+04  1.16680E+03 -9.75206E+03 -2.85684E+04  1.96227E+04 -3.55762E+04
  4.11510E+04 -9.63129E+03  3.60488E+04  2.37951E+04  2.01051E+04  4.55263E+04 -7.93663E+03  5.12405E+04
 -3.27939E+04  3.31768E+04 -4.36341E+04  9.53903E+03 -4.28535E+04 -1.69248E+04 -2.44370E+04 -3.95497E+04
  7.80973E+03 -3.82209E+04  3.17659E+04 -1.50931E+04  2.98596E+04  1.17327E+04  4.68659E+03  1.87894E+04
 -1.24896E+04  7.99849E+03 -9.39607E+03 -9.03652E+03  6.07158E+03 -1.20261E+04  1.85327E+04  6.52242E+03
  1.44452E+04  2.28548E+04 -5.54081E+03  2.50361E+04 -2.20134E+04  1.17383E+04 -2.87970E+04 -3.84344E+03
 -2.15471E+04 -1.74430E+04 -9.48550E+03 -2.16072E+04  4.54515E+03 -1.99803E+04  1.67715E+04 -1.97078E+04
  2.57447E+04 -1.42279E+04  3.21174E+04  3.35133E+03  2.40272E+04  2.04117E+04  4.68660E+03  3.76415E+04
 -1.79507E+04  3.23943E+04 -2.80144E+04  9.97632E+03 -2.03058E+04 -1.04228E+04 -5.00471E+03 -1.25490E+04
  7.94942E+02 -2.95395E+03 -4.83665E+03  6.69797E+03 -1.76027E+04  4.16464E+03 -1.69747E+04 -7.02697E+03
 -1.09058E+04 -1.86829E+04  5.24451E+03 -2.27987E+04  1.55074E+04 -1.67004E+04  1.84577E+04 -1.75626E+03
  1.15925E+04  1.49348E+04 -6.39792E+02  1.86793E+04 -1.36914E+04  1.02983E+04 -2.09779E+04 -3.89135E+03
 -1.43632E+04 -1.70126E+04 -6.17292E+02 -2.31736E+04  1.18026E+04 -1.87593E+04  1.92686E+04 -9.63893E+03
  1.74286E+04  3.92281E+02  1.24700E+04  5.47873E+03  6.70850E+03  1.60876E+03  8.54919E+03 -1.17596E+03
  1.71608E+04  2.17761E+03  1.96337E+04  1.42637E+04  1.23532E+04  3.16656E+04 -3.45086E+03  3.46740E+04
 -2.03778E+04  2.77583E+04 -3.22958E+04  1.41558E+04 -3.45184E+04 -1.44826E+03 -2.79201E+04 -1.83823E+04
 -1.30570E+04 -2.82968E+04  9.85281E+03 -2.55352E+04  2.32260E+04 -1.41610E+04  1.87320E+04  6.27543E+03
  7.13012E+03  1.54610E+04 -9.09017E+03  1.46388E+04 -1.61426E+04  2.00556E+03 -1.29921E+04 -1.08263E+04
 -1.12314E+03 -1.63449E+04  7.49097E+03 -1.12126E+04  1.05629E+04 -1.20786E+03  2.35950E+03  6.51764E+03
 -5.04999E+03  2.36553E+03 -5.60098E+03 -5.42885E+03 -9.51713E+02 -1.53864E+04  9.00919E+03 -1.48090E+04
  1.69208E+04 -8.23750E+03  1.82917E+04  3.48399E+03  1.47447E+04  1.37205E+04  7.08926E+03  2.05962E+04
 -3.83488E+03  2.24873E+04 -1.44195E+04  1.45200E+04 -1.71120E+04  2.89420E+03 -1.09242E+04 -3.26705E+03
 -5.33406E+03 -4.90851E+03 -9.34589E+02  1.22437E+03 -1.55440E+03  2.45719E+03 -6.48073E+03  3.53869E+03
 -1.11303E+04  3.65769E+02 -1.06497E+04 -9.12118E+03 -5.35886E+03 -1.39258E+04  4.99075E+03 -1.21929E+04
  9.71707E+03 -5.36326E+03  7.61392E+03  4.21160E+03  2.33771E+02  4.47938E+03 -5.45393E+03 -3.89835E+02
 -5.09271E+03 -7.20370E+03 -5.62051E+02 -1.11487E+04  6.98464E+03 -1.13943E+04  1.43587E+04 -6.17903E+03
  1.69209E+04  4.13370E+02  1.16243E+04  1.05316E+04  1.74331E+03  1.31922E+04 -7.28949E+03  1.24643E+04
 -8.43164E+03  4.25831E+03 -4.03956E+03 -1.23230E+03  6.61514E+02 -3.65763E+03  7.51345E+03 -1.04488E+03
  6.22874E+03  4.27039E+03  3.64664E+02  9.27889E+03 -5.86482E+03  8.65241E+03 -1.15934E+04  1.17668E+03
 -8.80575E+03 -6.40774E+03  3.43954E+02 -8.77921E+03  5.97732E+03 -4.82488E+03  6.16813E+03  1.92443E+03
  2.50513E+03  5.66836E+03 -5.24255E+03  7.97986E+03 -9.40262E+03  4.10108E+03 -8.05922E+03 -3.82271E+03
 -4.21957E+03 -8.98745E+03  1.75056E+03 -1.09539E+04  9.20058E+03 -7.74854E+03  1.01421E+04  1.88852E+03
  6.26668E+03  8.16800E+03 -7.13153E+02  9.02764E+03 -7.90706E+03  6.54718E+03 -7.85358E+03 -7.84025E+02
 -8.57590E+03 -6.00088E+03 -7.47291E+02 -7.01466E+03  3.39185E+03 -5.39977E+03  4.75968E+03 -2.48934E+03
  3.13952E+03  4.48260E+02 -8.34922E+02  2.17743E+03  2.96754E+01 -6.19021E+02  1.48138E+03 -4.08520E+03
  7.06494E+03 -1.96608E+03  9.94252E+03  9.58079E+01  9.81517E+03  5.23728E+03  7.06226E+03  1.02094E+04
 -2.12184E+03  1.34487E+04 -1.12180E+04  9.76302E+03 -1.61289E+04  1.15239E+03 -1.25104E+04 -4.29854E+03
 -6.12432E+03 -1.07008E+04 -1.12732E+01 -8.26097E+03  3.52032E+03 -4.29432E+03  2.43916E+03 -3.13469E+03
  2.88067E+03 -2.87595E+03  3.66986E+03 -3.15583E+03  3.92350E+03 -1.73050E+03  6.23618E+03  1.57680E+02
  6.56232E+03  2.21772E+03  3.38420E+03  5.64666E+03 -1.60175E+03  6.05824E+03 -7.07107E+03  4.82010E+03
 -6.90344E+03 -1.43549E+03 -3.13846E+03 -5.91051E+03 -1.09305E+03 -8.14780E+03  5.31333E+03 -8.22427E+03
  9.08384E+03 -5.98405E+03  1.06688E+04  1.17020E+03  8.03815E+03  6.88463E+03  1.72490E+03  1.02698E+04
 -4.33579E+03  8.14065E+03 -5.81555E+03  3.08974E+03 -3.60811E+03 -8.77297E+02 -1.27402E+03 -1.34850E+03
 -8.33783E+02  5.37186E+02 -1.12045E+03  3.18503E+03 -4.32265E+03  2.30070E+03 -5.09638E+03  4.46191E+02
 -3.35475E+03 -6.62800E+03  1.33419E+03 -7.32258E+03  4.97272E+03 -6.70593E+03  6.59170E+03 -2.33416E+03
  7.88895E+03  3.75637E+03  4.23730E+03  5.29773E+03 -1.51742E+03  6.76328E+03 -3.65135E+03  3.45541E+03
 -7.06472E+03  5.44728E+02 -4.73324E+03 -3.25027E+03  6.27288E+02 -6.60449E+03  3.31373E+03 -4.03458E+03
  4.59326E+03 -2.11756E+03  2.96174E+03  2.62286E+03  9.47889E+02  2.37894E+03  1.30414E+03  5.72722E+02
  2.17098E+03  5.87331E+02  3.26693E+03  4.27516E+02  2.29716E+03  3.83778E+03  1.67295E+03  3.49779E+03
 -9.91884E+02  5.44656E+03 -4.46747E+03  6.66884E+03 -5.63052E+03  9.51102E+02 -7.71636E+03 -3.78247E+03
 -2.64172E+03 -6.89875E+03  1.06438E+03 -8.14924E+03  2.68702E+03 -5.55832E+03  5.73395E+03 -9.29670E+02
  3.76205E+03  2.30117E+03  9.89944E+02  4.85650E+03 -8.78478E+02  2.29068E+03 -2.55147E+03  2.85101E+01
 -1.39512E+03 -2.66304E+03  2.55525E+03 -1.68746E+03  2.35353E+03 -1.82044E+03  2.02510E+03  1.79819E+03
  2.21779E+03  1.58342E+03 -1.59458E+02  1.03551E+03 -5.69279E+02  1.20985E+02  1.75059E+03 -1.35708E+03
  4.62368E+02 -3.20099E+02  2.80829E+03  1.64994E+03  1.26757E+03  4.88880E+03 -1.11849E+03  5.46053E+03
 -2.87462E+03  2.23314E+03 -4.01190E+03  1.20087E+03 -2.91178E+03 -4.82566E+02 -1.16008E+03 -2.14105E+03
  1.29271E+03 -2.68238E+03  1.90362E+03 -1.06758E+03  1.05096E+03  9.02850E+02 -1.68497E+03  2.01363E+03
 -3.48393E+03  1.08805E+03 -2.03271E+03  2.26666E+02 -1.27425E+03 -3.49621E+03 -7.77969E+02 -2.84963E+03
 -4.56701E+02 -9.52240E+02  2.81209E+03 -2.58950E+00  2.47130E+03 -5.83755E+02  3.25674E+02  2.33310E+03
 -9.99272E+02  4.65045E+02 -2.60043E+03 -6.72740E+02  1.86695E+03 -2.26581E+03  2.94688E+03 -3.02692E+03
  3.79731E+03 -3.49761E+02  4.01798E+03  1.53712E+03  1.15205E+03  3.83806E+03  1.84745E+01  2.34245E+03
 -3.45490E+03  1.07739E+03 -3.36983E+03 -7.58709E+02 -1.32431E+03 -2.59451E+03  8.69566E+02 -2.55172E+03
  2.01174E+03 -2.81639E+02  7.33929E+02  1.04296E+03  1.21260E+03  2.89845E+03  4.22486E+02  1.92001E+03
 -5.83383E+02  2.38156E+03 -2.68769E+02  1.67592E+03 -1.07316E+03  1.17187E+02 -4.37591E+02  6.93477E+02
 -1.18650E+03  1.71682E+03 -3.21199E+03  1.63216E+03 -2.96978E+03 -1.69659E+01 -3.28201E+03 -1.52890E+03
 -2.67192E+03 -4.54166E+03  5.07160E+02 -7.32591E+03  1.76672E+03 -4.63777E+03  3.92867E+03 -2.19204E+03
  4.28892E+03  7.44853E+02  2.43534E+03  3.43820E+03 -4.24993E+01  4.52850E+03 -1.14163E+03  2.70083E+03
 -2.15997E+03  1.19700E+03 -4.49531E+02 -5.84428E+02 -4.72192E+02 -5.03776E+02 -6.03585E+02 -7.50148E+02
 -1.32042E+03 -1.29528E+02 -1.05382E+03  5.67635E+02  4.52672E+01 -1.20905E+03 -1.22405E+03 -1.22687E+03
  2.03612E+03 -7.15715E+02  2.15619E+03  5.99251E+02  2.81185E+03  1.25521E+03  6.18529E+02  3.78225E+03
 -1.63590E+03  3.21626E+03 -3.72568E+03  2.32773E+03 -4.10032E+03  3.85322E+02 -4.71602E+03 -3.45078E+03
 -6.63858E+02 -3.57049E+03 -1.24689E+02 -3.25593E+03  2.31114E+03 -6.80816E+02  2.46118E+03 -2.51609E+02
  2.53540E+03  1.64367E+03  1.12655E+02  1.23249E+03 -8.83913E+02 -1.18065E+03 -1.25404E+03 -6.96960E+02
  1.21439E+03  2.63186E+02  5.73963E+02  1.32359E+03  7.02709E+02  1.84451E+03  3.92404E+02  8.01834E+02
 -2.33911E+03  1.46917E+03 -1.48504E+03 -4.99480E+01 -1.79377E+03 -2.04567E+03  4.42294E+02 -2.25465E+03
  3.07266E+02 -9.73207E+02  2.86137E+03 -6.80680E+02  2.45847E+03 -6.40971E+02  1.60232E+03  2.11487E+03
  1.47630E+03  2.39929E+03  3.23150E+02  3.28889E+03 -1.13278E+03  1.30460E+03 -2.88660E+02  6.61288E+02
 -3.01887E+02  2.72433E+02 -8.16155E+02  2.12363E+02 -1.37304E+03 -3.82040E+01 -6.41212E+02  7.54414E+02
 -1.44426E+03 -1.71645E+03 -7.37464E+02 -1.71716E+03  2.12264E+03 -2.98301E+03  1.51471E+03 -3.16141E+02
  8.57106E+02  1.13283E+03  9.70788E+02  1.09600E+03 -6.35884E+01  1.61264E+03  6.72542E+01  7.62750E+02
