 $NMID ID='MM_0lb_SNR200_14hz_g60_45.RAW', FMTDAT='(8E13.5)'
 TRAMP=1., VOLUME=1. $END
  3.09688E+05 -9.53440E+02  3.38273E+05  2.49593E+05  8.48279E+04  3.38278E+05 -1.31474E+05  2.51649E+05
 -1.89705E+05  8.27993E+04 -1.12894E+05 -3.11164E+04  2.15461E+02 -5.01014E+04  5.36851E+04 -3.24942E+02
  3.56963E+04  5.28171E+04 -1.76177E+04  7.51374E+04 -6.13170E+04  6.41139E+04 -8.38980E+04  3.28127E+04
 -8.19208E+04 -1.20331E+04 -5.69056E+04 -5.07812E+04 -1.59798E+04 -6.93329E+04  2.79741E+04 -4.55510E+04
  4.06193E+04  3.50592E+03  1.68883E+04  4.76094E+04 -3.47978E+04  4.69931E+04 -6.69624E+04 -3.70820E+02
 -5.42815E+04 -5.67911E+04 -8.76721E+03 -7.81940E+04  3.52788E+04 -5.50958E+04  4.88084E+04 -1.77566E+04
  4.41478E+04  1.14923E+04  3.32316E+04  2.50531E+04  1.64416E+04  2.92923E+04 -5.78176E+03  2.75324E+04
 -2.19406E+04  1.25578E+04 -1.82493E+04 -6.14553E+03  4.83520E+03 -7.37990E+03  2.42174E+04  1.35906E+04
  6.93387E+03  3.59229E+04 -3.19626E+04  3.64907E+04 -6.44434E+04  3.69883E+03 -5.69681E+04 -4.28656E+04
 -1.18375E+04 -6.40955E+04  4.11786E+04 -4.64607E+04  5.90728E+04 -2.14781E+03  3.54585E+04  3.31094E+04
 -5.98759E+03  3.72588E+04 -3.23340E+04  1.62209E+04 -3.09124E+04 -3.67948E+03 -1.67496E+04 -1.15070E+04
 -8.03056E+03 -1.24689E+04 -4.99228E+02 -1.89640E+04  8.05242E+03 -2.36085E+04  1.55575E+04 -1.31132E+04
  1.09866E+04  5.84462E+03 -9.15990E+03  1.35395E+04 -2.26569E+04 -6.28775E+03 -9.06123E+03 -3.60303E+04
  2.49044E+04 -4.50358E+04  4.89820E+04 -2.04969E+04  4.59733E+04  2.04351E+04  1.54787E+04  4.52437E+04
 -1.58003E+04  3.41329E+04 -2.52758E+04  1.17751E+03 -1.02240E+04 -2.81032E+04  2.13327E+04 -3.27763E+04
  4.28161E+04 -9.58321E+03  3.68159E+04  2.26978E+04  1.98025E+04  4.76477E+04 -7.73343E+03  5.25877E+04
 -3.18594E+04  3.54579E+04 -4.37366E+04  1.02615E+04 -4.37864E+04 -1.60516E+04 -2.49571E+04 -3.94267E+04
  7.41986E+03 -3.94149E+04  3.19065E+04 -1.65292E+04  2.90799E+04  1.08805E+04  3.70204E+03  2.02958E+04
 -1.34767E+04  8.74479E+03 -9.98239E+03 -7.03257E+03  5.08234E+03 -1.12553E+04  1.87425E+04  5.94512E+03
  1.36066E+04  2.26983E+04 -4.53075E+03  2.66517E+04 -2.28000E+04  1.16002E+04 -2.90273E+04 -3.57631E+03
 -2.19421E+04 -1.77842E+04 -9.70121E+03 -2.21932E+04  5.08851E+03 -2.13726E+04  1.70055E+04 -1.96959E+04
  2.77910E+04 -1.28800E+04  3.47198E+04  4.79161E+03  2.37244E+04  2.02855E+04  4.51908E+03  3.82958E+04
 -1.71241E+04  3.12203E+04 -2.83378E+04  1.29417E+04 -2.13240E+04 -1.05737E+04 -4.88836E+03 -1.33965E+04
  1.41915E+03 -1.95065E+03 -5.30539E+03  6.57730E+03 -1.86529E+04  6.41070E+03 -1.78130E+04 -6.60613E+03
 -1.05483E+04 -2.11682E+04  6.23208E+03 -2.42788E+04  1.62471E+04 -1.75474E+04  1.91477E+04 -1.17400E+03
  1.12912E+04  1.37116E+04 -2.93412E+02  2.02579E+04 -1.32224E+04  1.11451E+04 -2.10649E+04 -2.81697E+03
 -1.51031E+04 -1.89869E+04 -2.22135E+03 -2.55706E+04  1.02558E+04 -2.10868E+04  2.05850E+04 -1.01906E+04
  1.95684E+04 -1.18297E+02  1.48778E+04  5.97338E+03  7.69347E+03  7.62405E+02  1.01848E+04 -1.50523E+03
  1.79346E+04  1.51013E+03  2.03256E+04  1.57093E+04  1.40076E+04  3.07483E+04 -2.53791E+03  3.60511E+04
 -2.02817E+04  2.95846E+04 -3.55972E+04  1.57192E+04 -3.56285E+04 -2.73726E+03 -2.91748E+04 -2.08207E+04
 -1.22770E+04 -2.97137E+04  9.59215E+03 -2.57502E+04  2.32690E+04 -1.37332E+04  2.14811E+04  5.47495E+03
  7.12119E+03  1.62911E+04 -8.60750E+03  1.28215E+04 -1.78988E+04  2.30165E+03 -1.25675E+04 -9.45985E+03
  8.43105E+01 -1.63506E+04  9.92182E+03 -1.20140E+04  1.05869E+04 -2.34590E+03  6.30349E+02  7.63031E+03
 -6.24116E+03  2.25905E+03 -6.49634E+03 -4.78397E+03 -1.18637E+03 -1.50196E+04  1.10688E+04 -1.51926E+04
  1.70877E+04 -8.36434E+03  2.06576E+04  4.23864E+03  1.77665E+04  1.46475E+04  8.53163E+03  2.28477E+04
 -4.14468E+03  2.33863E+04 -1.60857E+04  1.39733E+04 -1.73860E+04  3.02549E+03 -1.25104E+04 -4.39991E+03
 -5.62605E+03 -5.86382E+03 -1.16252E+03 -1.89352E+02 -3.09329E+03  1.87361E+03 -5.03732E+03  4.66752E+03
 -9.75897E+03 -1.41877E+03 -1.09135E+04 -9.33755E+03 -5.04327E+03 -1.53697E+04  5.24916E+03 -1.31862E+04
  9.37429E+03 -5.64223E+03  7.23833E+03  3.57541E+03  5.88673E+02  4.73956E+03 -5.29322E+03 -5.28304E+02
 -4.65096E+03 -7.03883E+03 -1.08673E+03 -1.07443E+04  5.80577E+03 -1.15093E+04  1.59716E+04 -6.47426E+03
  1.80924E+04  9.47756E+02  1.32731E+04  9.84607E+03  1.62199E+03  1.37892E+04 -7.78144E+03  1.12708E+04
 -9.28215E+03  3.35686E+03 -5.75197E+03 -2.56445E+03  1.29076E+03 -1.68252E+03  6.20565E+03 -1.09855E+03
  6.08017E+03  5.42379E+03  3.57880E+02  1.04613E+04 -6.28512E+03  9.17134E+03 -1.24629E+04  2.38368E+03
 -8.06600E+03 -6.19873E+03  3.64194E+01 -1.01635E+04  5.55776E+03 -3.62173E+03  6.99791E+03  2.59354E+03
  9.19710E+02  6.06688E+03 -6.97154E+03  7.32332E+03 -9.17366E+03  3.55834E+03 -7.76924E+03 -3.09080E+03
 -5.10237E+03 -1.18596E+04  2.31931E+03 -1.23567E+04  1.01247E+04 -7.29298E+03  1.02293E+04  1.52212E+03
  6.13147E+03  9.59591E+03  4.37878E+02  1.29711E+04 -7.14463E+03  8.23032E+03 -8.83005E+03 -1.24732E+03
 -6.88992E+03 -9.05344E+03 -1.50779E+03 -8.40061E+03  4.47201E+03 -6.70755E+03  6.20408E+03 -3.94800E+03
  3.01257E+03  8.76319E+02 -5.26348E+02  7.56015E+02  1.14488E+02 -1.71362E+03  6.84474E+02 -4.85619E+03
  8.83952E+03 -1.19170E+03  1.06331E+04  5.66332E+02  1.06792E+04  6.58004E+03  6.55014E+03  1.31272E+04
 -3.65915E+03  1.52253E+04 -1.36529E+04  1.24675E+04 -1.64432E+04  1.14528E+03 -1.34517E+04 -4.82818E+03
 -6.69174E+03 -1.11345E+04 -1.61526E+03 -9.11107E+03  4.04058E+03 -5.60569E+03  3.55823E+03 -4.03374E+03
  4.33881E+03 -2.18005E+03  2.29165E+03 -3.41690E+03  4.85027E+03 -2.06347E+03  4.63902E+03 -3.54499E+02
  6.25872E+03  1.80011E+03  2.16404E+03  5.22732E+03 -1.77402E+03  6.96732E+03 -7.73974E+03  4.53624E+03
 -9.50606E+03 -1.19086E+03 -5.13113E+03 -5.76342E+03 -5.88140E+02 -9.35670E+03  4.71713E+03 -1.05047E+04
  1.06181E+04 -5.20971E+03  1.44096E+04  2.20564E+03  8.19201E+03  8.94385E+03  1.09784E+03  1.11607E+04
 -4.21076E+03  9.29745E+03 -6.02296E+03  3.08017E+03 -4.25784E+03 -1.70866E+03 -2.50813E+03 -1.68933E+03
 -1.21451E+03  7.50819E+02 -1.23678E+03  2.76796E+03 -4.72014E+03  2.13270E+03 -6.55155E+03 -1.63778E+03
 -4.40705E+03 -6.49593E+03  8.42803E+02 -8.31219E+03  5.00780E+03 -7.02678E+03  7.67574E+03 -2.03543E+03
  7.70699E+03  4.18120E+03  3.69434E+03  6.90990E+03 -1.57215E+03  9.70619E+03 -5.56685E+03  5.23105E+03
 -7.48975E+03  1.86043E+03 -7.13104E+03 -6.64789E+03 -4.41545E+02 -6.46179E+03  4.07330E+03 -5.56501E+03
  6.24675E+03 -2.03517E+03  5.06548E+03  1.41780E+03  1.50876E+03  2.32020E+03  3.52145E+01  8.97661E+01
  3.12837E+03 -7.56364E+02  2.14452E+03  1.17161E+03  2.31195E+03  3.36530E+03  2.52921E+03  4.43913E+03
 -2.66081E+03  5.14054E+03 -4.73346E+03  7.10814E+03 -8.05516E+03  1.84500E+03 -9.45554E+03 -2.59288E+03
 -3.62211E+03 -7.77626E+03  8.10932E+02 -1.00949E+04  5.06962E+03 -4.74840E+03  6.70915E+03 -1.86840E+03
  4.85738E+03  3.14513E+03  1.64714E+03  4.88376E+03 -1.13783E+03  2.88507E+03 -3.19450E+03 -1.37788E+03
 -1.12927E+03 -4.17725E+03  1.76809E+03 -3.00335E+03  2.64640E+03 -1.68451E+03  2.97040E+03  1.77458E+02
  1.45865E+03  1.44275E+03  1.99075E+03  1.03217E+03 -1.02805E+03  8.27523E+02  1.84990E+03 -9.04185E+02
  1.07511E+03 -1.51161E+03  2.89782E+03  1.83049E+03  1.66281E+03  3.68448E+03 -1.00403E+03  6.20961E+03
 -3.68456E+03  2.56676E+03 -5.25483E+03  1.72855E+03 -4.24707E+03 -1.78747E+03 -1.32326E+03 -1.64959E+03
  6.83897E+01 -2.26671E+03  2.18241E+03 -2.50800E+03  2.69952E+03  1.10662E+03 -1.51190E+03  3.20932E+03
 -3.52740E+03  3.49201E+02 -3.28325E+03 -9.29356E+02 -3.08208E+03 -4.66273E+03  5.22569E+02 -4.15404E+03
  2.16075E+03 -1.95362E+03  2.11215E+03 -1.16505E+02  2.49070E+03  1.47520E+02 -1.25374E+03  2.56590E+03
 -7.13478E+02  6.76281E+02 -2.32436E+03 -1.57511E+03  4.02514E+02 -1.81216E+03  4.18215E+03 -1.85604E+03
  5.87994E+03 -1.76570E+02  5.35128E+03  3.04995E+03  1.75322E+03  3.43751E+03 -4.08389E+02  4.86716E+03
 -3.65717E+03  3.17798E+03 -5.83577E+03 -5.83677E+01 -1.55359E+03 -4.67483E+03 -5.18876E+02 -1.45085E+03
  3.38137E+03 -1.22713E+03  2.93491E+03  1.27657E+03 -8.61478E+02  1.30504E+03 -8.89344E+02  4.22157E+03
 -1.75864E+03  1.04284E+03 -1.11008E+03  9.25501E+02  3.06474E+02  6.44348E+02 -4.45391E+02 -1.92502E+02
 -1.65318E+03  2.74942E+03 -2.76389E+03  1.38559E+03 -4.55479E+03 -3.12676E+02 -3.91621E+03 -1.84494E+03
 -4.24202E+03 -5.87234E+03  8.16999E+02 -5.87940E+03  4.08517E+03 -5.10143E+03  5.71268E+03 -1.75187E+03
  5.82181E+03  8.07222E+02  4.27709E+03  4.49552E+03 -1.99000E+02  4.63395E+03 -2.16094E+03  3.33042E+03
 -3.32909E+03  1.62280E+03 -1.70619E+03  9.40435E+01 -9.34293E+02  7.10881E+02 -3.48788E+02  8.04355E+02
 -3.14614E+03 -2.66654E+02 -1.45473E+03 -8.37831E+02 -1.81941E+02 -9.42203E+01 -1.40424E+02 -2.35779E+03
  2.64037E+03 -1.72315E+03  2.27208E+03 -1.38230E+03  2.05232E+03  2.40444E+03  1.20278E+03  4.57302E+03
 -2.50736E+03  5.13560E+03 -5.06313E+03  3.33388E+03 -5.00027E+03 -6.40288E+02 -2.82498E+03 -2.47218E+03
 -2.61638E+03 -4.23013E+03  2.26635E+03 -3.18376E+03  3.54165E+03 -1.15787E+03  2.82497E+03 -2.64872E+02
  2.01271E+03  1.10710E+03 -3.55303E+02  8.78621E+02 -1.12140E+03  1.05427E+03  2.87710E+01 -1.42039E+03
  6.20854E+02  1.24503E+03  2.52983E+03  4.16427E+02  8.64802E+02  8.29020E+02 -2.54454E+02  1.72786E+03
 -1.82640E+03  2.02391E+03 -2.59271E+03 -1.32647E+02 -3.53380E+03 -7.41232E+02  1.15122E+03 -3.40000E+03
  2.28057E+03 -2.87116E+03  2.07289E+03 -3.17022E+02  1.89112E+03 -1.09684E+03  2.08808E+03  2.08141E+03
  7.41754E+02  3.20274E+03 -1.44749E+03  1.89054E+03 -1.11963E+03  3.56300E+02 -1.68916E+03 -8.84736E+01
 -6.53058E+02 -3.81836E+02 -1.78904E+03  2.77297E+02 -1.49663E+03  7.69907E+02 -1.66844E+03  2.99175E+02
 -2.35969E+03 -9.85137E+02 -5.43004E+02 -2.47251E+03  1.59200E+03 -2.18795E+03  3.47924E+03 -3.96390E+02
  1.46744E+03  6.96909E+02  7.55360E+02  1.60956E+03  9.29054E+01  2.26454E+03 -1.95655E+03  8.13121E+01
