 $NMID ID='MM_0lb_SNR200_15hz_g55_52.RAW', FMTDAT='(8E13.5)'
 TRAMP=1., VOLUME=1. $END
  3.10834E+05  7.84886E+02  3.37376E+05  2.49385E+05  8.47448E+04  3.38132E+05 -1.33621E+05  2.51510E+05
 -1.91372E+05  8.36287E+04 -1.12530E+05 -3.25771E+04 -1.20929E+02 -5.13357E+04  5.57209E+04  3.66248E+02
  3.56402E+04  5.32235E+04 -1.63685E+04  7.56182E+04 -6.03981E+04  6.46278E+04 -8.42152E+04  3.09274E+04
 -8.16004E+04 -1.09039E+04 -5.77184E+04 -5.13988E+04 -1.47210E+04 -7.05883E+04  2.73724E+04 -4.62127E+04
  3.93615E+04  3.05826E+03  1.60095E+04  4.90714E+04 -3.40018E+04  4.72484E+04 -6.78261E+04  3.91109E+01
 -5.32438E+04 -5.84142E+04 -6.30209E+03 -7.71706E+04  3.49322E+04 -5.56166E+04  4.73651E+04 -1.83472E+04
  4.45627E+04  1.13851E+04  3.16782E+04  2.57455E+04  1.61729E+04  2.95406E+04 -5.40105E+03  2.76036E+04
 -2.25551E+04  1.23879E+04 -1.77463E+04 -6.49086E+03  4.81328E+03 -7.31218E+03  2.19185E+04  1.21965E+04
  6.95769E+03  3.41217E+04 -3.28987E+04  3.40673E+04 -6.32522E+04  2.90803E+03 -5.76010E+04 -4.20255E+04
 -1.19819E+04 -6.36312E+04  3.77965E+04 -4.54864E+04  5.75183E+04 -2.55761E+03  3.42656E+04  3.31588E+04
 -6.08996E+03  3.66465E+04 -2.94028E+04  1.66335E+04 -3.02947E+04 -3.61507E+03 -1.79125E+04 -1.24088E+04
 -7.84776E+03 -1.32872E+04 -1.05085E+03 -1.93077E+04  7.26973E+03 -2.28576E+04  1.46338E+04 -1.36484E+04
  1.20816E+04  5.56584E+03 -8.90075E+03  1.32455E+04 -2.31996E+04 -4.18879E+03 -8.61178E+03 -3.33380E+04
  2.37447E+04 -4.32307E+04  4.83689E+04 -2.03024E+04  4.56328E+04  1.84239E+04  1.54314E+04  4.65323E+04
 -1.70793E+04  3.35796E+04 -2.54277E+04  2.05473E+03 -1.04179E+04 -2.80674E+04  2.07335E+04 -3.46152E+04
  3.97264E+04 -8.91435E+03  3.48878E+04  2.38422E+04  1.80945E+04  4.60254E+04 -8.38182E+03  5.07379E+04
 -3.21900E+04  3.50763E+04 -4.16396E+04  9.97111E+03 -4.24084E+04 -1.66677E+04 -2.36128E+04 -3.89117E+04
  7.42223E+03 -3.58961E+04  3.17105E+04 -1.46256E+04  2.79936E+04  1.07868E+04  4.23115E+03  2.02782E+04
 -1.27473E+04  8.74109E+03 -1.07011E+04 -7.87269E+03  6.96271E+03 -1.03479E+04  1.69707E+04  4.93494E+03
  1.25854E+04  2.29224E+04 -5.35745E+03  2.55446E+04 -2.25037E+04  1.16519E+04 -2.80726E+04 -5.64129E+03
 -1.95604E+04 -1.82616E+04 -8.01318E+03 -2.07747E+04  4.00586E+03 -2.01169E+04  1.44217E+04 -2.05744E+04
  2.66506E+04 -1.35179E+04  3.23431E+04  2.80244E+03  2.34580E+04  1.95098E+04  5.44239E+03  3.77435E+04
 -1.76795E+04  3.01213E+04 -2.82669E+04  1.03256E+04 -2.20713E+04 -1.01662E+04 -3.56442E+03 -1.34624E+04
  2.80521E+03 -3.13579E+03 -4.56146E+03  6.69635E+03 -1.53775E+04  6.11362E+03 -1.71505E+04 -7.12833E+03
 -9.25433E+03 -1.86529E+04  5.65190E+03 -2.23566E+04  1.43016E+04 -1.65407E+04  1.84135E+04 -1.29335E+03
  1.27670E+04  1.29999E+04 -5.40239E+02  1.59777E+04 -1.33728E+04  1.08851E+04 -1.83237E+04 -3.36945E+03
 -1.42982E+04 -1.78221E+04 -1.40533E+03 -2.27555E+04  9.40185E+03 -1.91245E+04  1.89011E+04 -9.63926E+03
  1.80697E+04  3.89079E+02  1.23749E+04  4.01693E+03  6.51037E+03  9.02821E+02  9.91232E+03 -2.02739E+03
  1.71405E+04  2.87202E+03  1.88997E+04  1.42477E+04  1.22471E+04  3.05731E+04 -4.04130E+03  3.32459E+04
 -1.92770E+04  2.71565E+04 -3.13882E+04  1.38630E+04 -3.21098E+04 -1.13092E+03 -2.75590E+04 -1.86725E+04
 -1.19518E+04 -2.78212E+04  8.28926E+03 -2.46386E+04  2.03683E+04 -1.22088E+04  1.97113E+04  6.07808E+03
  6.59720E+03  1.48886E+04 -7.41665E+03  1.31122E+04 -1.54236E+04  2.82206E+03 -1.15517E+04 -9.62796E+03
 -8.08304E+02 -1.59084E+04  7.17125E+03 -1.10911E+04  1.01907E+04 -1.34748E+03  1.77268E+03  7.59712E+03
 -8.02991E+03  2.07415E+03 -6.36964E+03 -5.84350E+03 -1.30265E+03 -1.42721E+04  8.53852E+03 -1.42094E+04
  1.65003E+04 -5.45845E+03  1.68987E+04  3.06477E+03  1.61471E+04  1.30704E+04  6.88230E+03  2.06554E+04
 -3.87988E+03  2.11625E+04 -1.39687E+04  1.29732E+04 -1.48151E+04  3.59152E+03 -1.07005E+04 -2.74288E+03
 -6.06600E+03 -4.18133E+03 -1.18435E+03  6.66495E+02 -1.95097E+03  1.49884E+03 -4.78096E+03  4.81869E+03
 -1.01504E+04 -1.92192E+03 -1.07992E+04 -8.32195E+03 -4.19774E+03 -1.51939E+04  3.90458E+03 -1.12752E+04
  9.53565E+03 -6.10187E+03  6.33634E+03  3.22597E+03  4.64458E+02  4.08650E+03 -6.22257E+03 -1.21270E+03
 -4.67956E+03 -6.12221E+03 -1.84820E+03 -9.63875E+03  5.99442E+03 -9.71506E+03  1.34398E+04 -4.67523E+03
  1.55970E+04  8.56341E+02  1.11982E+04  9.42835E+03  2.32010E+03  1.21164E+04 -6.79894E+03  1.05275E+04
 -8.75446E+03  2.71244E+03 -5.88566E+03 -2.35186E+03  1.87708E+03 -2.46516E+03  6.23333E+03 -1.09156E+03
  6.38633E+03  4.36997E+03  1.24316E+03  7.92012E+03 -6.11395E+03  8.97083E+03 -9.37324E+03  2.30794E+03
 -6.85387E+03 -4.60252E+03  1.66601E+02 -8.21548E+03  5.03516E+03 -4.86458E+03  5.34937E+03  2.42856E+03
  1.24748E+03  6.30658E+03 -5.14574E+03  7.59994E+03 -8.24948E+03  1.66888E+03 -8.31980E+03 -2.86207E+03
 -4.63085E+03 -1.00517E+04  1.86794E+03 -1.14889E+04  8.69869E+03 -5.83401E+03  1.04925E+04  1.58501E+03
  5.60628E+03  7.23466E+03 -4.03725E+02  9.79326E+03 -8.43861E+03  5.49095E+03 -8.63535E+03 -3.52320E+02
 -6.97958E+03 -6.50462E+03 -1.53889E+03 -8.44553E+03  3.96597E+03 -6.88470E+03  4.76840E+03 -2.53272E+03
  4.05187E+03  1.60440E+03 -7.46708E+02  1.73158E+03  1.20478E+02 -1.08502E+03  2.58515E+02 -3.52686E+03
  5.72152E+03 -8.14374E+02  8.53130E+03  2.14507E+02  9.11394E+03  5.38263E+03  6.55051E+03  1.10691E+04
 -2.40341E+03  1.33464E+04 -1.12323E+04  1.07092E+04 -1.44827E+04  3.93530E+02 -1.24739E+04 -5.73637E+03
 -6.79912E+03 -9.70889E+03 -7.87543E+02 -8.61617E+03  2.27297E+03 -3.56106E+03  2.28790E+03 -3.01847E+03
  1.97701E+03 -2.64329E+03  3.20975E+03 -3.49517E+03  5.23445E+03 -2.27027E+03  4.58494E+03  1.01213E+03
  6.05300E+03  1.18492E+03  2.36764E+03  4.02504E+03 -1.58955E+03  5.65968E+03 -6.05182E+03  5.12859E+03
 -8.05405E+03 -8.59789E+02 -4.77232E+03 -4.41665E+03 -3.12540E+02 -8.27562E+03  4.94142E+03 -8.78465E+03
  8.08106E+03 -4.96481E+03  1.04726E+04  1.11650E+03  7.39098E+03  7.70457E+03  2.19169E+03  1.12530E+04
 -3.00706E+03  8.18382E+03 -5.54246E+03  3.07590E+03 -4.29421E+03 -2.17008E+03 -2.78588E+03 -1.15922E+03
 -6.95566E+02 -5.32810E+01 -1.08454E+03  1.74794E+03 -4.97116E+03  2.21637E+03 -4.88936E+03 -5.19925E+02
 -2.98920E+03 -6.99505E+03  7.58155E+02 -8.40269E+03  5.29130E+03 -6.73832E+03  6.84542E+03 -1.95687E+03
  7.44207E+03  3.81422E+03  3.17885E+03  5.19202E+03 -2.25599E+03  6.76995E+03 -4.57839E+03  4.70041E+03
 -7.31078E+03 -8.02324E+01 -5.68274E+03 -4.68382E+03 -4.57055E+02 -5.25927E+03  1.73442E+03 -3.29095E+03
  4.01776E+03 -1.82922E+03  2.29999E+03  1.70808E+03  9.03200E+02  2.11239E+03 -1.50424E+02  7.03804E+02
  1.89276E+03  5.78819E+02  7.04691E+02  1.92386E+03  2.78512E+03  1.41711E+03  1.83511E+03  3.82292E+03
 -1.96877E+03  5.02296E+03 -4.36503E+03  5.99981E+03 -5.57907E+03  1.88316E+03 -6.72371E+03 -2.29097E+03
 -1.71401E+03 -7.45513E+03 -2.29805E+02 -8.00323E+03  3.35869E+03 -3.71389E+03  5.59338E+03 -2.04975E+03
  3.71443E+03  2.78628E+03  1.61475E+03  4.72795E+03 -1.65368E+03  2.51506E+03 -3.27252E+03 -1.32421E+03
 -1.52862E+03 -2.75954E+03  2.25830E+03 -1.21239E+03  3.56404E+03 -1.58753E+03  1.83966E+03  3.66643E+02
  1.25861E+03  6.60448E+02  1.97082E+03 -2.67372E+02 -1.02002E+03  5.20882E+02  1.19402E+03  1.24191E+03
  4.87555E+02 -1.16650E+03  3.00567E+03  2.02428E+03  6.28845E+02  3.28060E+03 -3.53675E+02  5.72621E+03
 -2.52023E+03  1.21279E+03 -4.25755E+03  5.34743E+02 -4.06767E+03 -2.57388E+03 -6.49200E+02 -1.67648E+03
  2.31801E+02 -3.40135E+03  2.42634E+03 -2.15198E+03  1.36332E+03  1.80472E+03 -8.50355E+02  3.04031E+03
 -2.74266E+03  1.19178E+03 -2.00695E+03 -1.51114E+03 -1.63509E+03 -4.04271E+03  5.98876E+02 -3.08658E+03
  1.74361E+03 -2.59078E+03  1.68612E+03 -1.05585E+02  1.53194E+03  5.26385E+02  4.45711E+02  9.12632E+02
 -1.30927E+03  2.66298E+02 -9.47572E+02 -3.11500E+02 -5.11034E+02 -1.33087E+03  3.11002E+03 -2.08305E+03
  2.42557E+03 -1.24228E+02  5.03289E+03  2.56637E+03  1.92055E+03  3.55633E+03 -1.82847E+03  3.13885E+03
 -3.37067E+03  1.27322E+02 -3.57331E+03  4.05208E+02 -1.67682E+03 -2.14864E+03  1.26231E+02 -1.84752E+03
  2.00102E+03 -1.51497E+03  1.46163E+03  1.63608E+03  1.37334E+02  1.25869E+03  3.77097E+02  1.52743E+03
  6.03404E+02  1.09921E+03 -3.24402E+02  5.07249E+02  2.19810E+01  6.65027E+02  2.91432E+02  1.20029E+03
 -1.22309E+03  1.52031E+03 -2.76687E+03  1.38135E+03 -3.69247E+03 -2.18764E+02 -4.25162E+03 -2.17549E+03
 -2.18393E+03 -4.24068E+03  1.11288E+03 -5.53072E+03  1.67990E+03 -5.98149E+03  5.19972E+03 -1.69293E+03
  5.15738E+03  5.71952E+02  3.06408E+03  2.16872E+03 -2.53478E+02  2.69953E+03 -1.90341E+03  2.75753E+03
 -2.68490E+03  1.19167E+03 -1.42481E+03 -4.73242E+01 -7.75782E+02  9.16971E+02 -9.63788E+02 -3.94370E+02
 -2.09971E+03  9.41659E+01 -1.56534E+03 -6.13945E+02  6.71322E+01 -2.00706E+03 -3.68771E+02 -7.44122E+02
  2.54922E+03 -2.20770E+03  1.02087E+03 -4.18725E+02  1.12070E+03  2.69526E+03  1.38239E+02  3.05652E+03
 -1.91046E+03  3.59588E+03 -4.80287E+03  2.78170E+03 -3.28355E+03  2.59854E+02 -2.74846E+03 -2.36046E+03
 -1.68112E+03 -2.52954E+03  8.34024E+02 -3.07813E+03  2.44227E+03 -2.33409E+03  2.44724E+03 -4.23933E+02
  1.32942E+03  6.27286E+02  3.00664E+02  9.20459E+02 -1.79908E+03  5.81465E+02 -4.82425E+02 -9.76215E+02
  4.86690E+02  3.32127E+02  5.03079E+02  8.30399E+02  1.43076E+03  1.45948E+03  7.62169E+02  1.32452E+03
 -1.38039E+03  1.94600E+03 -1.44921E+03 -1.16179E+03 -1.81004E+03 -1.06180E+03  1.11011E+03 -2.79798E+03
  1.62435E+03 -1.32593E+03  2.34444E+03  4.90458E+02  2.87782E+03 -3.26474E+02  1.24099E+03  1.40401E+03
  6.64282E+02  2.43371E+03 -1.25524E+03  1.11144E+03  1.02122E+03  8.65650E+02 -2.27611E+03  2.98843E+02
 -5.55299E+02 -2.54779E+02 -6.11717E+02  1.09977E+03 -1.35861E+03  5.46958E+02 -1.34574E+03  2.95081E+01
 -1.81192E+03 -9.97607E+00 -5.14961E+02 -7.55824E+02  5.17613E+02 -2.81779E+03 -2.32178E+02 -5.96173E+02
  1.42850E+03 -3.86345E+01 -1.37492E+03  1.42392E+03  6.58006E+02  1.82098E+03 -2.12204E+03  1.02125E+03
