 $NMID ID='MM_0lb_SNR200_15hz_g50_61.RAW', FMTDAT='(8E13.5)'
 TRAMP=1., VOLUME=1. $END
  3.10067E+05  1.05376E+03  3.37268E+05  2.51500E+05  8.42207E+04  3.38057E+05 -1.32793E+05  2.50284E+05
 -1.89599E+05  8.26955E+04 -1.12026E+05 -3.27324E+04  9.65757E+02 -5.00935E+04  5.47619E+04 -2.04990E+02
  3.53217E+04  5.28927E+04 -1.72555E+04  7.48072E+04 -6.08636E+04  6.29050E+04 -8.39845E+04  3.21793E+04
 -8.16019E+04 -1.17506E+04 -5.70131E+04 -5.14110E+04 -1.34144E+04 -7.00219E+04  2.83579E+04 -4.55605E+04
  3.91121E+04  3.19891E+03  1.56256E+04  4.73959E+04 -3.46097E+04  4.64462E+04 -6.60586E+04 -1.53347E+03
 -5.26376E+04 -5.67015E+04 -7.01680E+03 -7.71238E+04  3.31483E+04 -5.49718E+04  4.74211E+04 -1.65026E+04
  4.26486E+04  1.19148E+04  3.00350E+04  2.57711E+04  1.57426E+04  2.83667E+04 -3.53804E+03  2.65654E+04
 -2.14548E+04  1.26655E+04 -1.80851E+04 -3.70762E+03  5.83533E+03 -6.53416E+03  2.19933E+04  1.18918E+04
  6.72947E+03  3.44370E+04 -3.21930E+04  3.55124E+04 -6.38783E+04  2.07219E+03 -5.70880E+04 -4.27781E+04
 -1.19866E+04 -6.20455E+04  4.02195E+04 -4.52954E+04  5.77196E+04 -1.73508E+03  3.22997E+04  3.07736E+04
 -6.58819E+03  3.56477E+04 -3.00831E+04  1.62262E+04 -3.04828E+04 -4.64300E+03 -1.66759E+04 -9.99527E+03
 -7.50981E+03 -1.18517E+04 -1.29709E+03 -1.66863E+04  7.99645E+03 -2.24885E+04  1.54026E+04 -1.40638E+04
  1.06591E+04  5.08258E+03 -8.11311E+03  1.35113E+04 -2.15072E+04 -4.07207E+03 -7.19225E+03 -3.20015E+04
  2.34576E+04 -4.31464E+04  4.70783E+04 -2.07205E+04  4.44552E+04  1.93706E+04  1.45836E+04  4.42759E+04
 -1.57279E+04  3.32832E+04 -2.51086E+04  1.43677E+03 -9.76801E+03 -2.76447E+04  2.11242E+04 -3.22284E+04
  4.00268E+04 -8.89736E+03  3.46366E+04  2.31020E+04  1.73229E+04  4.57422E+04 -7.55911E+03  4.87406E+04
 -3.12101E+04  3.22799E+04 -4.12969E+04  9.53659E+03 -4.14181E+04 -1.59393E+04 -2.20064E+04 -3.75411E+04
  6.94697E+03 -3.64642E+04  3.11410E+04 -1.42114E+04  2.85305E+04  1.06566E+04  3.39621E+03  1.92246E+04
 -1.41823E+04  7.68857E+03 -9.78743E+03 -7.08818E+03  6.95104E+03 -9.87500E+03  1.73317E+04  6.47402E+03
  1.42935E+04  2.27801E+04 -4.51835E+03  2.41152E+04 -2.24212E+04  1.13053E+04 -2.76602E+04 -5.20634E+03
 -1.95933E+04 -1.74001E+04 -7.91724E+03 -1.96756E+04  3.13012E+03 -1.93825E+04  1.60424E+04 -1.77956E+04
  2.54124E+04 -1.20527E+04  3.22752E+04  1.63541E+03  2.35266E+04  1.98114E+04  3.79224E+03  3.60577E+04
 -1.75597E+04  2.97844E+04 -2.73260E+04  1.13645E+04 -2.08210E+04 -1.13730E+04 -4.91633E+03 -1.38500E+04
  1.57060E+03 -2.38607E+03 -4.31372E+03  6.22485E+03 -1.52813E+04  5.98790E+03 -1.68292E+04 -6.59204E+03
 -9.51935E+03 -1.67901E+04  5.46317E+03 -2.28746E+04  1.51779E+04 -1.57693E+04  1.77769E+04 -1.35882E+03
  1.03384E+04  1.21218E+04 -1.40223E+03  1.88202E+04 -1.25388E+04  9.72811E+03 -1.85466E+04 -4.09061E+03
 -1.41042E+04 -1.71834E+04 -2.63435E+03 -2.19612E+04  9.75739E+03 -1.72802E+04  1.79965E+04 -8.92103E+03
  1.67176E+04  6.62010E+02  1.28769E+04  4.37990E+03  6.21666E+03  1.24499E+03  1.01082E+04 -2.44266E+03
  1.75326E+04  2.16158E+03  1.94143E+04  1.47078E+04  1.16300E+04  2.94824E+04 -2.86307E+03  3.18277E+04
 -1.81681E+04  2.62571E+04 -3.02423E+04  1.30464E+04 -3.23428E+04 -2.39826E+03 -2.74703E+04 -1.89994E+04
 -1.19523E+04 -2.62372E+04  8.74078E+03 -2.45035E+04  2.02854E+04 -1.17199E+04  1.86272E+04  4.52151E+03
  7.17946E+03  1.40097E+04 -8.33069E+03  1.16844E+04 -1.61086E+04  3.29337E+03 -1.17323E+04 -9.86924E+03
 -1.14487E+03 -1.53627E+04  7.31502E+03 -1.09283E+04  9.07502E+03 -1.69691E+03  1.93287E+03  4.87329E+03
 -5.78531E+03  2.50418E+03 -5.81892E+03 -3.85208E+03 -2.84116E+02 -1.23849E+04  9.93020E+03 -1.27338E+04
  1.61637E+04 -6.92872E+03  1.67292E+04  3.01384E+03  1.37326E+04  1.14577E+04  6.23834E+03  1.98684E+04
 -2.53163E+03  2.12681E+04 -1.19836E+04  1.32750E+04 -1.44952E+04  2.40490E+03 -1.01294E+04 -2.58282E+03
 -4.74997E+03 -4.80513E+03 -1.77570E+03  1.00138E+03 -2.85590E+03  3.43236E+03 -5.67402E+03  4.81352E+03
 -1.08076E+04 -6.44747E+02 -1.06115E+04 -8.70065E+03 -3.60644E+03 -1.43490E+04  3.98363E+03 -1.10468E+04
  8.24453E+03 -2.88820E+03  7.11771E+03  4.12214E+03 -4.65239E+02  4.03025E+03 -3.55145E+03  8.85730E+02
 -4.63896E+03 -6.29968E+03 -8.25359E+02 -9.60040E+03  5.91481E+03 -1.10066E+04  1.28213E+04 -5.69055E+03
  1.46459E+04  4.92225E+02  1.15583E+04  7.77737E+03  1.86050E+03  1.23372E+04 -6.18325E+03  1.13925E+04
 -7.95745E+03  2.29620E+03 -5.09758E+03 -1.99187E+03  2.94330E+03 -2.60945E+03  4.83297E+03 -1.52236E+03
  6.11083E+03  5.10537E+03  1.32060E+02  8.76894E+03 -6.49183E+03  8.96300E+03 -1.01894E+04  2.65010E+03
 -4.98278E+03 -5.17237E+03 -1.00788E+03 -7.99196E+03  5.74428E+03 -3.19855E+03  5.43866E+03  2.98644E+03
  4.86500E+02  5.51027E+03 -7.65665E+03  6.47901E+03 -6.64333E+03  4.18694E+03 -7.34324E+03 -2.06436E+03
 -4.04311E+03 -9.95279E+03  1.27192E+03 -1.02011E+04  8.01476E+03 -7.49701E+03  9.58811E+03  2.13316E+03
  4.53535E+03  6.90296E+03  6.70244E+02  1.02589E+04 -6.76236E+03  6.29210E+03 -8.15394E+03 -1.23060E+03
 -7.85250E+03 -6.17929E+03 -1.23948E+03 -7.62478E+03  5.30726E+03 -6.32226E+03  3.94066E+03 -3.47005E+03
  3.18492E+03  5.03609E+02 -1.88135E+02  1.08361E+03 -1.79153E+02 -1.84915E+02  2.81687E+02 -3.07300E+03
  6.42631E+03 -9.21533E+02  8.33259E+03  1.05021E+03  9.39510E+03  4.45153E+03  6.41649E+03  1.06833E+04
 -2.41746E+03  1.36981E+04 -1.04533E+04  9.68418E+03 -1.52446E+04  2.20750E+03 -1.18836E+04 -4.46653E+03
 -6.45616E+03 -1.06391E+04 -4.82451E+02 -6.48453E+03  3.69495E+03 -5.02197E+03  2.52514E+03 -2.72591E+03
  1.30035E+03 -1.65844E+03  2.17821E+03 -3.24840E+03  4.32252E+03 -1.67824E+03  5.20474E+03  4.54047E+02
  5.83580E+03  1.34487E+03  2.07306E+03  4.44342E+03 -1.41964E+03  3.97186E+03 -6.04107E+03  4.34072E+03
 -7.16964E+03 -1.34369E+03 -3.53309E+03 -4.55177E+03  8.75758E-01 -8.63063E+03  5.15474E+03 -8.94904E+03
  7.72222E+03 -5.11443E+03  1.08458E+04  1.10874E+02  7.88784E+03  8.00458E+03  1.38695E+03  9.61336E+03
 -2.69389E+03  7.84891E+03 -6.13259E+03  1.51542E+03 -3.47909E+03 -2.12095E+03 -1.53676E+03 -1.97135E+03
 -7.10216E+02 -1.80699E+02 -7.19612E+02  1.56166E+03 -2.74969E+03  1.03877E+03 -5.93600E+03  2.57107E+02
 -4.04654E+03 -5.76864E+03  3.02138E+00 -6.66750E+03  4.16396E+03 -7.12198E+03  7.27570E+03 -1.52816E+03
  6.83256E+03  3.60927E+03  2.03760E+03  5.19522E+03 -5.84573E+02  6.78684E+03 -4.65100E+03  4.73415E+03
 -6.67275E+03 -8.74844E+02 -6.68772E+03 -4.07969E+03 -3.34589E+02 -5.11929E+03  2.26098E+03 -3.54951E+03
  4.39905E+03 -1.49645E+03  3.16573E+03  1.60804E+03 -4.20514E+02  1.98745E+03  1.95412E+03  1.07295E+03
  2.83706E+03  9.17182E+02  2.19787E+03  1.22103E+03  2.73148E+03  2.54280E+03  2.93933E+03  3.28735E+03
 -1.43912E+03  5.75535E+03 -4.77860E+03  5.32295E+03 -7.24442E+03  1.95940E+03 -7.44415E+03 -1.69159E+03
 -2.55642E+03 -7.39213E+03 -8.65821E+01 -7.00709E+03  4.10425E+03 -5.15282E+03  4.90296E+03 -1.62114E+03
  3.25873E+03  2.66363E+03  1.35853E+03  3.72140E+03 -2.27916E+03  2.85255E+03 -1.67997E+03  3.63317E+02
 -7.63495E+02 -2.36177E+03  2.54947E+03 -2.43793E+03  2.77240E+03 -1.07714E+03  2.34757E+03  1.19638E+03
  8.61975E+02  5.29786E+02  1.52210E+03  4.29890E+02 -7.88805E+02  3.60818E+02  3.02582E+03  1.80994E+02
 -6.56894E+02 -7.19770E+02  2.46370E+03  8.00644E+02  1.46039E+03  3.25224E+03  1.40100E+02  5.31523E+03
 -2.95092E+03  2.13318E+03 -3.49068E+03  5.17359E+02 -2.47384E+03 -1.10051E+03 -5.66494E+02 -1.70271E+03
 -5.52382E+02 -2.33269E+03  1.13762E+03 -1.53168E+03  1.72679E+03  1.28561E+03 -3.76161E+02  1.52402E+03
 -1.94430E+03  6.16604E+02 -2.35606E+03 -1.89575E+03 -1.84207E+03 -3.94064E+03  6.93864E+02 -2.70574E+03
  1.59407E+03 -7.01764E+02  1.11793E+03 -4.58616E+01  3.68949E+03 -3.17510E+02  5.90403E+00  2.07092E+03
 -9.14340E+01  1.57009E+03 -1.50529E+03 -1.95769E+03  5.84965E+02 -2.45206E+03  2.90662E+03 -2.23658E+03
  3.07959E+03 -7.86988E+02  4.18296E+03  1.65563E+03  1.39866E+03  3.25025E+03 -1.59775E+03  3.91709E+03
 -2.67664E+03  1.18136E+03 -2.67580E+03 -7.37786E+01 -2.28168E+03 -2.52802E+03  4.37852E+02 -2.30929E+03
  2.30827E+03 -1.21356E+03  2.99298E+03  1.52243E+03  1.04938E+03  2.85472E+03  1.93277E+01  2.19446E+03
 -7.09079E+02  1.24173E+03 -2.21133E+03 -7.73956E+01  1.00486E+03  4.67917E+02 -7.23700E+02  4.89922E+02
  1.16506E+02  8.14179E+02 -1.98852E+03  1.60248E+03 -2.72633E+03  9.73203E+02 -3.42335E+03 -2.85193E+03
 -1.32933E+03 -4.18243E+03  5.08655E+02 -5.90968E+03  3.97222E+03 -3.71840E+03  5.20959E+03 -2.26109E+03
  4.40551E+03  9.51238E+02  1.66310E+03  2.33469E+03 -5.13779E+02  4.09639E+03 -1.61196E+03  4.05204E+03
 -1.88767E+03  1.12619E+03 -7.50723E+02 -1.06744E+02  1.18759E+03 -3.05058E+02 -1.14805E+03 -6.46422E+02
 -1.61886E+03  2.51225E+02 -9.73230E+02  1.53840E+02 -4.09853E+01 -1.15795E+03  1.67643E+02 -1.49642E+03
  1.43517E+03 -7.96379E+02  1.73256E+03  4.14223E+02  3.23373E+03  1.39658E+03 -5.43614E+02  3.68212E+03
 -1.31794E+03  4.28832E+03 -4.31826E+03  3.18569E+03 -3.20030E+03 -7.74935E+01 -3.61675E+03 -2.13333E+03
 -1.85885E+03 -3.99694E+03  6.86771E+02 -2.63235E+03  1.51985E+03 -1.09452E+03  1.26722E+03 -3.48234E+02
  1.33822E+03  3.97663E+02 -1.03135E+03  4.33494E+02 -8.62731E+02 -2.66884E+02 -1.08147E+03  6.64626E+02
  1.93507E+03  8.62279E+02  1.50561E+03  8.11048E+02  2.10391E+02  5.72821E+02 -2.17091E+02  1.55449E+03
 -2.13359E+03  1.98479E+03 -1.32696E+03 -8.35036E+02 -1.90297E+03 -2.92407E+02 -8.98803E+02 -6.71063E+02
  1.70692E+03 -1.58105E+03  1.00806E+03  1.30075E+02  1.38503E+03  1.20016E+02  1.14441E+03  1.68551E+03
  1.46301E+03  2.14910E+03 -1.13684E+03  1.41418E+03 -1.39844E+02  1.73172E+03 -1.79129E+03  3.55500E+02
 -1.93126E+02  4.88379E+02 -1.18946E+03 -2.24192E+02 -1.40413E+03  2.56721E+02 -1.55074E+02 -3.98866E+02
 -2.55555E+03  9.36108E+02 -2.31811E+02 -2.53369E+03  1.21883E+03 -3.13580E+03  2.50322E+03  1.36498E+01
  1.60225E+03  9.38121E+01 -6.33567E+02  4.71724E+02 -7.75465E+02  3.00742E+03 -1.19952E+03  1.44580E+03
