 $NMID ID='MM_0lb_SNR200_17hz_g60_28.RAW', FMTDAT='(8E13.5)'
 TRAMP=1., VOLUME=1. $END
  3.09502E+05  4.44561E+02  3.37220E+05  2.50463E+05  8.51773E+04  3.37933E+05 -1.32535E+05  2.50252E+05
 -1.90897E+05  8.35049E+04 -1.11591E+05 -3.32473E+04  6.55590E+02 -5.04598E+04  5.29718E+04  1.92614E+02
  3.48264E+04  5.24644E+04 -1.77170E+04  7.48791E+04 -5.87595E+04  6.31625E+04 -8.38897E+04  3.17484E+04
 -8.21590E+04 -1.05531E+04 -5.71957E+04 -5.05818E+04 -1.41507E+04 -6.93476E+04  2.75716E+04 -4.52829E+04
  4.07700E+04  3.54258E+03  1.63514E+04  4.77265E+04 -3.46399E+04  4.70603E+04 -6.59434E+04 -2.42830E+02
 -5.28998E+04 -5.63157E+04 -7.12721E+03 -7.70032E+04  3.41672E+04 -5.55343E+04  4.73566E+04 -1.74913E+04
  4.24059E+04  1.02663E+04  3.14602E+04  2.56741E+04  1.59384E+04  2.94340E+04 -5.39585E+03  2.77608E+04
 -2.23711E+04  1.30807E+04 -1.79928E+04 -4.88512E+03  5.89408E+03 -8.27593E+03  2.23857E+04  1.23406E+04
  6.19464E+03  3.46363E+04 -3.23976E+04  3.43889E+04 -6.34481E+04  2.34867E+03 -5.64410E+04 -4.33462E+04
 -1.21789E+04 -6.28731E+04  3.98278E+04 -4.45867E+04  5.81959E+04 -2.09208E+03  3.28950E+04  3.18770E+04
 -6.26840E+03  3.54410E+04 -2.97714E+04  1.67221E+04 -2.98661E+04 -4.12175E+03 -1.72019E+04 -1.14350E+04
 -8.27981E+03 -1.24361E+04 -4.95597E+02 -1.82749E+04  7.67426E+03 -2.30268E+04  1.57890E+04 -1.31318E+04
  1.21256E+04  4.34853E+03 -8.73255E+03  1.22099E+04 -2.05898E+04 -4.51075E+03 -8.53257E+03 -3.46776E+04
  2.25730E+04 -4.19541E+04  4.77827E+04 -1.79033E+04  4.51801E+04  1.93766E+04  1.55453E+04  4.35026E+04
 -1.59119E+04  3.46894E+04 -2.55443E+04  1.72524E+03 -1.07009E+04 -2.71196E+04  2.07243E+04 -3.43357E+04
  4.11856E+04 -7.61293E+03  3.27934E+04  2.42738E+04  1.78369E+04  4.59961E+04 -7.44935E+03  4.86709E+04
 -3.24998E+04  3.42680E+04 -4.21736E+04  9.86471E+03 -4.16373E+04 -1.74936E+04 -2.31386E+04 -3.76242E+04
  7.58732E+03 -3.61735E+04  3.01617E+04 -1.30504E+04  2.84978E+04  1.07773E+04  3.63817E+03  1.84771E+04
 -1.31663E+04  7.32088E+03 -1.05770E+04 -7.42101E+03  6.53189E+03 -1.08507E+04  1.70699E+04  5.88700E+03
  1.33521E+04  2.25031E+04 -7.31934E+03  2.44521E+04 -2.29553E+04  1.15692E+04 -2.60623E+04 -4.24688E+03
 -1.93928E+04 -1.69891E+04 -7.36422E+03 -1.94017E+04  4.00178E+03 -1.75957E+04  1.50845E+04 -1.75131E+04
  2.33773E+04 -1.28396E+04  3.02036E+04  2.50072E+03  2.29715E+04  1.85371E+04  4.26217E+03  3.53591E+04
 -1.67191E+04  2.97515E+04 -2.80600E+04  9.45497E+03 -2.08251E+04 -9.90655E+03 -3.80871E+03 -1.29127E+04
  1.30108E+03 -2.73914E+03 -3.68005E+03  6.54505E+03 -1.46546E+04  5.73861E+03 -1.60381E+04 -6.47815E+03
 -9.64311E+03 -1.90295E+04  4.64383E+03 -2.16322E+04  1.48109E+04 -1.61682E+04  1.71382E+04 -8.18606E+02
  1.05819E+04  1.23059E+04 -1.04042E+03  1.78974E+04 -1.10434E+04  1.07741E+04 -1.75017E+04 -4.13658E+03
 -1.27526E+04 -1.54055E+04 -1.34280E+03 -2.13597E+04  9.39233E+03 -1.73164E+04  1.78229E+04 -7.56976E+03
  1.62441E+04  4.19971E+02  1.07168E+04  4.09211E+03  6.35412E+03  9.03185E+02  9.82877E+03 -1.20880E+03
  1.71179E+04  3.56117E+03  1.74333E+04  1.40772E+04  1.20132E+04  2.77724E+04 -3.75492E+03  3.12101E+04
 -1.86067E+04  2.59140E+04 -2.97507E+04  1.25755E+04 -2.99097E+04 -2.49186E+03 -2.61353E+04 -1.64417E+04
 -1.11604E+04 -2.47339E+04  9.77831E+03 -2.26763E+04  2.01309E+04 -1.17987E+04  1.78061E+04  4.57754E+03
  7.47013E+03  1.32473E+04 -7.73830E+03  1.15454E+04 -1.52047E+04  3.09724E+03 -1.28773E+04 -9.56514E+03
  8.58151E+02 -1.39484E+04  7.73774E+03 -1.08621E+04  9.90325E+03 -5.81629E+02  2.23207E+03  6.62536E+03
 -6.11068E+03  2.46422E+03 -5.48709E+03 -5.82583E+03 -1.42720E+03 -1.20833E+04  1.02514E+04 -1.23820E+04
  1.45452E+04 -6.47780E+03  1.41869E+04  3.30170E+03  1.37818E+04  1.14131E+04  6.18361E+03  1.77611E+04
 -2.74774E+03  1.94301E+04 -1.21615E+04  1.15951E+04 -1.33236E+04  2.89916E+03 -1.10142E+04 -3.14601E+03
 -3.85365E+03 -4.85042E+03 -1.99954E+03  1.48615E+03 -3.00213E+03  1.45989E+03 -4.25468E+03  4.77906E+03
 -9.80344E+03 -9.33840E+02 -1.00859E+04 -8.93616E+03 -4.85482E+03 -1.25503E+04  4.64703E+03 -9.11060E+03
  7.90339E+03 -4.24919E+03  7.06978E+03  2.93561E+03  1.05568E+03  3.73043E+03 -4.62923E+03  4.78419E+02
 -3.45786E+03 -7.16449E+03 -7.20735E+02 -9.10365E+03  5.17140E+03 -8.98441E+03  1.20349E+04 -5.65131E+03
  1.42874E+04  8.27276E+02  1.18379E+04  8.59605E+03  1.36670E+03  1.14811E+04 -5.77548E+03  9.80439E+03
 -8.33803E+03  3.05079E+03 -3.23174E+03 -1.57185E+03  8.37317E+02 -2.07014E+03  5.00685E+03 -1.13064E+03
  5.35972E+03  3.47192E+03  8.82615E+02  8.12589E+03 -4.46239E+03  7.14280E+03 -9.64182E+03  2.60872E+03
 -6.38429E+03 -4.59015E+03 -6.31393E+02 -9.34737E+03  4.75644E+03 -4.35937E+03  5.72302E+03  1.13626E+03
  5.67147E+02  4.64032E+03 -4.94229E+03  6.80615E+03 -6.77147E+03  3.10808E+03 -5.29509E+03 -2.58743E+03
 -2.51806E+03 -8.96405E+03  1.92568E+03 -9.17793E+03  6.56030E+03 -5.28812E+03  7.71634E+03  1.84865E+03
  4.62250E+03  6.73958E+03 -1.18720E+03  9.52322E+03 -6.74839E+03  5.29326E+03 -5.80317E+03 -1.41994E+03
 -6.41353E+03 -6.36547E+03 -1.74677E+03 -6.89055E+03  3.78482E+03 -6.62333E+03  3.95410E+03 -3.06164E+03
  1.93911E+03 -2.61076E+02  7.97997E+02  9.81378E+02  4.98026E+02 -2.00156E+02  1.15067E+03 -2.97244E+03
  6.30571E+03 -1.79555E+03  6.86969E+03  1.08838E+03  8.27604E+03  4.03149E+03  5.95030E+03  1.04495E+04
 -9.16690E+02  1.10281E+04 -1.00160E+04  9.18252E+03 -1.22256E+04  1.65843E+03 -1.02134E+04 -3.22131E+03
 -5.60504E+03 -8.51568E+03 -1.52303E+02 -6.65532E+03  3.45819E+03 -2.45796E+03  1.61442E+03 -2.66640E+03
  7.19592E+02 -1.38702E+03  2.54811E+03 -2.34236E+03  3.66032E+03 -1.43659E+03  4.40091E+03  4.75665E+01
  5.51518E+03  1.38546E+03  2.50253E+03  5.41491E+03 -1.95663E+03  3.57562E+03 -5.18994E+03  3.59737E+03
 -6.61414E+03 -1.68159E+03 -2.03542E+03 -4.28156E+03  2.58252E+02 -6.21121E+03  4.12672E+03 -6.71605E+03
  7.77014E+03 -4.57886E+03  8.46746E+03 -2.03882E+02  6.10537E+03  6.56371E+03  1.78574E+03  7.17314E+03
 -3.61784E+03  6.59342E+03 -3.83163E+03  3.02541E+03 -2.42057E+03 -1.87238E+03 -1.05226E+03  5.79705E+01
 -1.00225E+03  1.92495E+02 -7.44497E+02  2.54828E+03 -3.43411E+03  1.49054E+03 -4.83335E+03  1.67056E+02
 -1.03909E+03 -5.29170E+03  1.66898E+03 -5.59417E+03  4.00153E+03 -5.65336E+03  4.77225E+03 -2.68981E+03
  5.53554E+03  3.25148E+03  3.28416E+03  4.37616E+03 -1.19745E+03  5.89783E+03 -3.98677E+03  3.53857E+03
 -5.59575E+03 -9.62861E+01 -5.13084E+03 -1.92977E+03 -3.77134E+02 -4.31641E+03  2.28525E+03 -3.09709E+03
  3.23851E+03 -8.91219E+02  2.80024E+03  9.38771E+02  3.61755E+02  1.96042E+03  1.57477E+03  7.19513E+02
  1.36925E+02  3.58590E+02  1.88612E+03 -1.50543E+02  7.42790E+01  2.38147E+03  1.30402E+03  2.98745E+03
 -7.58092E+02  2.65048E+03 -3.13232E+03  5.00840E+03 -4.63727E+03  1.49274E+03 -5.90140E+03 -1.23371E+03
 -2.96667E+03 -5.38008E+03 -1.70961E+02 -6.15735E+03  2.03582E+03 -4.08485E+03  3.37686E+03 -9.11670E+02
  3.39597E+03  2.72808E+03  1.11004E+02  2.45123E+03 -9.27859E+02  1.98579E+03 -1.05027E+03 -3.01203E+02
 -1.89888E+02 -2.66887E+03  1.64652E+03 -1.66896E+03  8.26410E+02 -7.22881E+02  8.96987E+02  1.46410E+03
  5.62728E+02  3.81850E+02 -1.58613E+01  4.33432E+02  3.36738E+02  3.18457E+02  1.91768E+03  2.53186E+01
  3.10437E+02  3.46266E+02  1.46059E+03  5.57749E+02 -3.25377E+02  3.05351E+03 -7.36878E+02  3.43887E+03
 -1.92000E+03  1.68923E+03 -2.57422E+03  1.17977E+02 -3.13062E+03 -1.00473E+03  7.32366E+01 -1.02402E+03
 -3.04686E+02 -1.63714E+03  1.91252E+03 -8.87328E+02  1.87740E+03  1.97530E+03 -1.26793E+03  1.40311E+03
 -8.31026E+02  1.16554E+03 -2.51381E+03 -1.91136E+03 -5.12295E+02 -3.11121E+03  6.48466E+02 -1.83309E+03
  9.99896E+02 -7.15483E+02  2.25952E+03  7.93653E+02  2.10367E+03 -4.26345E+02  1.74743E+03  1.70571E+03
 -4.48476E+02  2.72577E+02 -1.72846E+03  4.73792E+02 -3.27996E+01 -5.64602E+02  2.24370E+03 -1.27435E+03
  1.79384E+03 -2.19830E+02  3.54326E+03  1.63587E+03  4.46069E+02  3.02731E+03 -1.34079E+03  2.55753E+03
 -2.03824E+03  7.03310E+01 -2.51721E+03 -3.40836E+02 -1.13267E+03 -1.56128E+03  8.05072E+02  1.63831E+02
  2.11890E+03 -1.04861E+03  2.57706E+03  7.88888E+02  9.65301E+01  6.12580E+02  7.62386E+02  2.75483E+03
 -6.04734E+01  1.42565E+03 -7.82554E+02 -1.30026E+02  2.98507E+02  1.67317E+02 -1.00688E+03 -1.74674E+00
  1.71849E+02  5.39340E+02 -1.73589E+03  1.60388E+03 -2.64605E+03  1.69235E+03 -3.14831E+03 -2.05802E+03
 -1.80909E+03 -2.13927E+03  1.17089E+03 -3.48759E+03  1.83758E+03 -3.16051E+03  2.97163E+03 -6.68529E+02
  3.71790E+03 -2.64365E+02  2.76257E+03  2.89288E+03  2.85207E+02  2.45292E+03 -4.94749E+02  2.05861E+03
 -2.00658E+03  1.39602E+03 -8.43679E+02 -9.27927E+02 -5.86995E+02 -1.38615E+03 -2.25080E+02 -2.52268E+02
 -4.41664E+02  6.17236E+02 -1.89977E+03  2.33294E+02  3.75124E+02 -2.34874E+02 -4.97759E+02 -1.42439E+03
  1.30499E+03 -2.69030E+02 -4.15440E+02 -1.11252E+03  1.17440E+03  1.08880E+03 -7.13966E+02  2.01247E+03
 -8.10974E+02  2.32833E+03 -1.92166E+03  2.02537E+03 -3.10931E+03 -1.88481E+02 -2.02307E+03 -1.90936E+03
 -2.13382E+03 -1.08722E+03  7.28384E+02 -9.36425E+02  1.90036E+03 -2.07590E+02  1.37613E+03  1.25511E+02
  5.21213E+02 -2.59228E+02  5.28731E+02  5.52061E+02 -5.78666E+02  5.85495E+02 -4.60483E+02 -2.86122E+02
  1.19051E+02  4.63779E+01  3.41079E+02 -2.31104E+02  4.67250E+02  8.72272E+02  1.48387E+03 -1.04655E+02
 -1.02983E+03  6.16517E+02 -3.69588E+02  3.27026E+02 -1.84503E+03 -9.49355E+02 -1.00408E+03 -2.41111E+03
  5.00944E+01 -1.33391E+03  2.15101E+03 -1.13961E+03  1.12494E+03 -1.20702E+03  1.54375E+03  5.98788E+02
  8.03620E+02  4.02283E+02  4.90175E+02  7.70293E+02 -5.21913E+02  9.37838E+02 -8.37856E+02 -1.09881E+02
  6.43737E+02  1.99629E+01 -1.14278E+03 -6.71111E+02 -1.00341E+03  4.69260E+02 -1.07610E+03 -5.34489E+02
 -1.55502E+03  8.56935E+02 -1.21356E+03 -1.49542E+03  1.21818E+03 -2.04931E+03 -3.81974E+02 -6.80095E+02
  1.27005E+03  2.17929E+02  3.93346E+02  1.01044E+03  9.50210E+02  3.37603E+02  1.42529E+02  1.59494E+03
