 $NMID ID='MM_0lb_SNR200_7hz_g55_84.RAW', FMTDAT='(8E13.5)'
 TRAMP=1., VOLUME=1. $END
  3.10221E+05 -2.14408E+02  3.37084E+05  2.50853E+05  8.55205E+04  3.39188E+05 -1.31986E+05  2.51758E+05
 -1.91097E+05  8.36095E+04 -1.13175E+05 -3.12219E+04 -6.01278E+02 -5.07179E+04  5.55024E+04  1.39714E+02
  3.47342E+04  5.43929E+04 -1.51438E+04  7.70144E+04 -5.89522E+04  6.43257E+04 -8.56433E+04  3.18212E+04
 -8.25013E+04 -1.10322E+04 -5.79761E+04 -5.31646E+04 -1.52764E+04 -7.24854E+04  2.90141E+04 -4.65410E+04
  4.18916E+04  2.89751E+03  1.67035E+04  5.02485E+04 -3.42861E+04  4.94521E+04 -6.92178E+04  2.79384E+02
 -5.50280E+04 -5.73602E+04 -7.61470E+03 -7.86530E+04  3.25432E+04 -5.69974E+04  5.16444E+04 -1.90894E+04
  4.55850E+04  1.22444E+04  3.28239E+04  2.63056E+04  1.65792E+04  3.12440E+04 -6.78147E+03  2.89451E+04
 -2.04665E+04  1.05114E+04 -1.74388E+04 -6.58395E+03  9.32932E+03 -5.49774E+03  2.46594E+04  1.52959E+04
  6.61715E+03  3.82258E+04 -3.46592E+04  3.70183E+04 -6.65341E+04  9.98409E+02 -5.92037E+04 -4.54621E+04
 -1.35118E+04 -6.64176E+04  4.13795E+04 -4.93179E+04  6.28071E+04 -2.24315E+03  3.73207E+04  3.50063E+04
 -5.08159E+03  4.03014E+04 -3.25903E+04  2.14181E+04 -3.55971E+04 -4.35466E+03 -1.89140E+04 -1.20715E+04
 -1.01152E+04 -1.55340E+04 -1.93396E+03 -2.18813E+04  8.96416E+03 -2.33568E+04  1.53720E+04 -1.25219E+04
  9.33367E+03  6.72207E+03 -1.26876E+04  1.33066E+04 -2.35582E+04 -6.18143E+03 -8.57988E+03 -3.99261E+04
  2.54287E+04 -5.01475E+04  5.57496E+04 -2.01673E+04  4.99866E+04  2.27029E+04  1.77040E+04  4.75347E+04
 -1.71911E+04  3.76217E+04 -2.63686E+04  1.15747E+03 -1.18234E+04 -3.15433E+04  2.25554E+04 -3.95175E+04
  4.54109E+04 -1.22213E+04  4.27642E+04  2.32424E+04  2.13817E+04  5.24802E+04 -7.05538E+03  5.87115E+04
 -3.69801E+04  4.06778E+04 -5.08524E+04  1.41309E+04 -4.82842E+04 -1.92151E+04 -2.62317E+04 -4.19587E+04
  8.86095E+03 -4.27901E+04  3.45162E+04 -1.74077E+04  3.44707E+04  1.01286E+04  6.17698E+03  2.24192E+04
 -1.33908E+04  1.19013E+04 -1.29168E+04 -8.15932E+03  4.68943E+03 -1.23223E+04  1.88295E+04  5.66258E+03
  1.60682E+04  2.38435E+04 -4.83555E+03  2.84079E+04 -2.50748E+04  1.58978E+04 -3.54728E+04 -1.58548E+03
 -2.78038E+04 -1.92066E+04 -1.19016E+04 -2.91362E+04  4.88602E+03 -2.82808E+04  2.20941E+04 -2.71808E+04
  3.48229E+04 -1.44145E+04  4.04542E+04  4.35531E+03  2.54986E+04  2.75249E+04  4.49302E+03  4.56348E+04
 -2.13942E+04  3.59070E+04 -3.09551E+04  1.28118E+04 -2.21720E+04 -1.22216E+04 -4.93315E+03 -1.21417E+04
  5.88968E+02 -2.79268E+02 -1.09060E+04  8.70070E+03 -2.30716E+04  4.78614E+03 -2.03976E+04 -1.31550E+04
 -1.15486E+04 -2.41365E+04  7.46492E+03 -3.01859E+04  1.95506E+04 -2.09125E+04  2.57287E+04 -1.84109E+03
  1.78402E+04  1.79672E+04 -2.04046E+03  2.63374E+04 -1.80347E+04  1.48105E+04 -2.65558E+04 -4.14948E+03
 -1.83721E+04 -2.47129E+04 -2.88666E+03 -3.11892E+04  1.24741E+04 -2.45712E+04  2.54359E+04 -1.25634E+04
  2.44794E+04  8.88570E+02  1.65455E+04  5.29644E+03  1.11559E+04  3.29138E+03  1.27611E+04 -3.29159E+03
  2.51174E+04  2.54341E+03  2.92330E+04  2.11862E+04  2.14742E+04  4.13242E+04 -1.72456E+03  4.86109E+04
 -2.92155E+04  4.15920E+04 -4.63754E+04  2.34540E+04 -5.08350E+04 -4.34186E+03 -4.28902E+04 -3.00899E+04
 -1.59997E+04 -4.37493E+04  1.57395E+04 -3.69323E+04  3.24168E+04 -1.77383E+04  2.61565E+04  1.10639E+04
  8.40414E+03  1.93182E+04 -1.35492E+04  1.61834E+04 -2.07788E+04  3.27729E+03 -1.71836E+04 -1.28348E+04
 -2.02801E+03 -2.10748E+04  1.08051E+04 -1.58209E+04  1.63516E+04 -3.39707E+03  4.12937E+03  1.12620E+04
 -1.07639E+04  3.06970E+03 -1.03783E+04 -6.92517E+03 -5.17611E+03 -2.25149E+04  1.22747E+04 -2.26721E+04
  2.32448E+04 -1.32671E+04  2.98674E+04  3.44126E+03  2.69076E+04  2.11316E+04  1.21968E+04  3.31944E+04
 -6.13188E+03  3.58953E+04 -2.34088E+04  2.12622E+04 -2.87821E+04  3.79873E+03 -1.60859E+04 -6.74104E+03
 -8.96898E+03 -9.09333E+03 -1.00941E+03 -9.89909E+02 -2.44088E+03  3.37765E+03 -9.63042E+03  4.66608E+03
 -1.54767E+04 -2.34005E+03 -1.55142E+04 -1.36928E+04 -6.97034E+03 -2.24702E+04  6.76034E+03 -1.76265E+04
  1.49141E+04 -7.02274E+03  8.79338E+03  4.40860E+03 -1.79121E+03  8.50536E+03 -7.62281E+03  1.09993E+03
 -7.37533E+03 -1.13666E+04 -1.91722E+03 -1.84782E+04  1.13577E+04 -2.01367E+04  2.28642E+04 -1.20735E+04
  2.78279E+04  1.95643E+03  1.95793E+04  1.52202E+04  3.03942E+03  2.23344E+04 -1.04037E+04  1.67806E+04
 -1.50254E+04  4.22292E+03 -8.47790E+03 -2.03339E+03  1.58878E+03 -5.02097E+03  9.84949E+03 -1.34007E+03
  7.44619E+03  6.16556E+03  3.01570E+03  1.60737E+04 -8.95561E+03  1.43624E+04 -1.96183E+04  3.49008E+03
 -1.27279E+04 -8.76888E+03  2.20752E+02 -1.59880E+04  1.07914E+04 -7.91669E+03  1.16665E+04  4.46563E+03
  3.93754E+03  1.21320E+04 -8.03178E+03  1.35058E+04 -1.56269E+04  6.87783E+03 -1.66345E+04 -6.22729E+03
 -9.61458E+03 -1.79398E+04  6.46789E+03 -2.23856E+04  1.95059E+04 -1.31173E+04  2.13258E+04  4.00653E+03
  1.13744E+04  1.56861E+04 -2.31461E+03  1.84742E+04 -1.35138E+04  1.03150E+04 -1.37101E+04 -2.72789E+03
 -1.24375E+04 -1.07049E+04 -3.08333E+03 -1.47361E+04  8.22095E+03 -9.68961E+03  9.61680E+03 -5.19826E+03
  7.15206E+03  2.38835E+03 -3.42009E+03  2.99498E+03 -1.90574E+03 -4.77257E+03  2.11645E+03 -8.47303E+03
  1.32846E+04 -7.17883E+03  2.07494E+04  1.35154E+03  1.87648E+04  1.25374E+04  1.06797E+04  2.67694E+04
 -7.66173E+03  2.88287E+04 -2.30198E+04  2.07397E+04 -3.01510E+04  4.76117E+03 -2.47286E+04 -1.22190E+04
 -1.10446E+04 -1.97588E+04 -1.02633E+03 -1.59735E+04  6.98307E+03 -1.23104E+04  7.40923E+03 -6.67908E+03
  4.76035E+03 -3.14374E+03  3.79673E+03 -4.77043E+03  6.16200E+03 -5.48528E+03  1.16537E+04 -2.17880E+03
  1.23685E+04  4.78280E+03  8.40713E+03  1.16453E+04 -2.59140E+03  1.67155E+04 -1.50456E+04  1.20004E+04
 -1.95577E+04 -1.60660E+03 -1.29900E+04 -1.30400E+04  4.27639E+02 -2.00642E+04  1.06290E+04 -2.02905E+04
  2.21216E+04 -1.08303E+04  2.58611E+04  4.78919E+03  1.86424E+04  1.63300E+04  4.01281E+03  2.23367E+04
 -8.61150E+03  1.74995E+04 -1.59244E+04  5.54215E+03 -1.14029E+04 -1.86771E+03 -4.24985E+03 -3.04353E+03
 -3.85180E+02 -5.32003E+02 -4.05249E+03  2.96792E+03 -9.41781E+03  2.94631E+03 -1.28690E+04 -2.47595E+03
 -9.54477E+03 -1.36645E+04 -1.83775E+02 -1.90904E+04  1.26327E+04 -1.80126E+04  1.88927E+04 -5.76434E+03
  1.94197E+04  1.05272E+04  9.14852E+03  1.84229E+04 -3.19807E+03  1.84758E+04 -1.25959E+04  1.20999E+04
 -1.72297E+04 -1.82613E+03 -1.40636E+04 -1.06047E+04 -2.88952E+03 -1.61239E+04  9.06234E+03 -1.21685E+04
  1.02971E+04 -5.12075E+03  1.03560E+04  3.42923E+03  4.01918E+03  5.01327E+03  1.54827E+03  3.02138E+03
  1.98398E+03  3.02168E+03  5.41238E+03  2.91733E+03  5.70672E+03  5.79868E+03  5.27894E+03  9.81050E+03
 -5.43901E+03  1.42419E+04 -1.34670E+04  1.47221E+04 -2.11988E+04  2.65743E+03 -1.89061E+04 -8.25632E+03
 -9.11761E+03 -2.10475E+04  1.77241E+03 -2.15329E+04  1.19361E+04 -1.45659E+04  1.72426E+04 -4.63139E+03
  1.41622E+04  6.28171E+03  4.71949E+03  1.12719E+04 -6.42660E+03  7.46811E+03 -5.94247E+03  4.08487E+01
 -2.31778E+03 -8.25170E+03  5.29313E+03 -9.73695E+03  1.01111E+04 -3.43457E+03  6.87290E+03  2.90437E+03
  5.54101E+03  4.04990E+03  4.25453E+03  3.84275E+03  3.89061E+01  1.66558E+03  1.19311E+03 -1.43740E+03
  4.64762E+03  1.65034E+02  7.15240E+03  3.28711E+03  5.41288E+03  1.00452E+04 -1.25414E+03  1.22941E+04
 -1.08658E+04  1.25536E+04 -1.24811E+04  3.85889E+03 -1.22625E+04 -4.95034E+03 -4.42098E+03 -7.87197E+03
  9.74983E+01 -7.45368E+03  7.53012E+03 -3.16658E+03  5.42699E+03  1.73716E+03 -2.79416E+03  7.23775E+03
 -8.23427E+03  2.76153E+03 -1.13452E+04 -5.17071E+03 -5.58290E+03 -1.11637E+04  5.99871E+02 -1.04107E+04
  7.65792E+03 -8.15163E+03  8.68734E+03 -2.44342E+02  5.93872E+03 -4.53777E+01  1.55726E+03  6.38544E+03
 -3.87823E+03  1.25464E+03 -5.43158E+03 -4.31852E+03  2.58757E+03 -1.17365E+04  1.10866E+04 -6.55724E+03
  1.44006E+04  5.34854E+02  1.47471E+04  1.08155E+04  4.61712E+03  1.34980E+04 -5.80742E+03  1.41348E+04
 -1.19649E+04  6.10557E+03 -1.26293E+04 -2.91608E+03 -6.52129E+03 -8.24623E+03  2.93500E+03 -8.12388E+03
  6.91280E+03 -4.09001E+03  9.36687E+03  4.74844E+03  2.99914E+03  8.43500E+03 -1.01777E+03  5.95126E+03
 -4.62030E+03  3.24383E+03 -3.43397E+03  3.49933E+03 -3.22240E+03  2.20395E+02 -2.70408E+03  2.85400E+03
 -3.11780E+03  4.22533E+03 -1.01539E+04  6.25751E+03 -1.38839E+04  9.17029E+02 -1.68274E+04 -1.02102E+04
 -7.69866E+03 -1.79059E+04  3.83458E+03 -2.30606E+04  1.38041E+04 -1.77269E+04  1.97480E+04 -6.65642E+03
  1.91030E+04  4.62260E+03  1.20423E+04  1.32523E+04  1.10862E+03  1.51151E+04 -8.15791E+03  1.15440E+04
 -9.41941E+03  5.36694E+03 -5.72355E+03 -1.71618E+03 -2.33254E+03 -2.24135E+03 -2.39751E+03 -1.30037E+03
 -3.13784E+03 -1.36394E+02 -2.95065E+03 -4.26419E+02 -1.20574E+03 -3.10993E+03 -1.27651E+02 -5.19057E+03
  5.99437E+03 -5.42754E+03  9.02665E+03  1.22143E+03  9.18669E+03  1.01521E+04  2.46305E+03  1.47134E+04
 -8.87971E+03  1.80137E+04 -1.69994E+04  1.12270E+04 -1.87814E+04 -1.67202E+02 -1.31288E+04 -1.04479E+04
 -4.71053E+03 -1.54023E+04  4.36972E+03 -1.56633E+04  1.14633E+04 -8.07438E+03  1.02351E+04  9.89730E+02
  4.95735E+03  5.25217E+03 -5.86483E+02  4.28257E+03 -1.97479E+03  1.08404E+03  1.06809E+03 -3.50447E+03
  4.44738E+03 -2.92153E+03  7.82663E+03  1.97155E+03  5.10772E+03  5.05758E+03 -1.54336E+03  7.04840E+03
 -6.39220E+03  6.25801E+03 -1.09750E+04  9.71116E+02 -1.18663E+04 -7.79616E+03 -2.38468E+03 -1.39644E+04
  4.45010E+03 -1.19585E+04  1.23409E+04 -2.55014E+03  1.24313E+04  4.40969E+03  8.63389E+03  9.45788E+03
  3.06113E+03  9.76260E+03 -3.64070E+03  8.87489E+03 -5.87076E+03  5.47172E+03 -5.14139E+03 -3.24762E-01
 -4.89831E+03 -1.21594E+03 -3.00977E+03  1.18828E+03 -4.15459E+03  3.64170E+03 -7.82554E+03 -4.80242E+02
 -6.46171E+03 -7.52512E+03 -1.16015E+03 -1.26051E+04  6.20672E+03 -1.09131E+04  1.08095E+04 -6.39642E+03
  1.16581E+04 -6.59458E+01  8.29260E+03  9.10915E+03 -1.80847E+03  1.30242E+04 -8.09383E+03  8.49333E+03
