 $NMID ID='MM_0lb_SNR200_12hz_g40_85.RAW', FMTDAT='(8E13.5)'
 TRAMP=1., VOLUME=1. $END
  3.09812E+05  1.20648E+03  3.37149E+05  2.51079E+05  8.53719E+04  3.37704E+05 -1.32186E+05  2.51440E+05
 -1.89894E+05  8.35195E+04 -1.12613E+05 -3.13354E+04  1.78432E+03 -5.07562E+04  5.42891E+04 -1.24370E+03
  3.53550E+04  5.22553E+04 -1.70778E+04  7.48981E+04 -6.16050E+04  6.34504E+04 -8.55092E+04  3.25918E+04
 -8.19501E+04 -1.05584E+04 -5.68699E+04 -5.12776E+04 -1.64498E+04 -6.84868E+04  2.73397E+04 -4.64325E+04
  4.13713E+04  3.19063E+03  1.77804E+04  4.76104E+04 -3.46719E+04  4.77293E+04 -6.77280E+04 -8.08381E+02
 -5.34903E+04 -5.53570E+04 -6.71643E+03 -7.57937E+04  3.26570E+04 -5.48597E+04  4.73445E+04 -1.77324E+04
  4.31211E+04  1.13788E+04  3.18328E+04  2.46181E+04  1.57113E+04  2.92331E+04 -5.63140E+03  2.68447E+04
 -2.14941E+04  1.31119E+04 -1.88074E+04 -4.84142E+03  7.40690E+03 -6.77871E+03  2.33088E+04  1.31843E+04
  8.05898E+03  3.51491E+04 -3.19317E+04  3.50120E+04 -6.53582E+04  3.60680E+03 -5.65907E+04 -4.41654E+04
 -1.23706E+04 -6.38328E+04  4.04690E+04 -4.54246E+04  5.88017E+04 -2.82661E+03  3.41872E+04  3.21961E+04
 -6.18752E+03  3.59263E+04 -3.00346E+04  1.51649E+04 -2.96371E+04 -4.79934E+03 -1.72766E+04 -1.11449E+04
 -9.27839E+03 -1.41804E+04 -1.59333E+03 -1.92101E+04  7.84883E+03 -2.36004E+04  1.52662E+04 -1.30073E+04
  1.21285E+04  4.70055E+03 -8.75581E+03  1.21356E+04 -2.17282E+04 -5.02499E+03 -8.58268E+03 -3.37275E+04
  2.25667E+04 -4.38004E+04  4.77297E+04 -1.95003E+04  4.60224E+04  1.97148E+04  1.66654E+04  4.48384E+04
 -1.61760E+04  3.28743E+04 -2.53852E+04  2.82218E+03 -1.05566E+04 -2.79116E+04  2.13682E+04 -3.51521E+04
  4.12226E+04 -1.01457E+04  3.58440E+04  2.43959E+04  1.86233E+04  4.67062E+04 -7.52574E+03  5.18687E+04
 -3.07067E+04  3.55515E+04 -4.34188E+04  9.80005E+03 -4.30067E+04 -1.88951E+04 -2.24505E+04 -3.89093E+04
  6.87518E+03 -3.85347E+04  3.13295E+04 -1.56706E+04  2.92597E+04  1.00053E+04  4.25968E+03  1.90892E+04
 -1.44805E+04  9.03093E+03 -1.08771E+04 -7.47936E+03  6.92211E+03 -1.03124E+04  1.90142E+04  6.00062E+03
  1.30173E+04  2.20662E+04 -6.55274E+03  2.42717E+04 -2.26197E+04  1.24035E+04 -2.92872E+04 -3.73403E+03
 -2.16388E+04 -1.54349E+04 -8.66568E+03 -2.18117E+04  4.40670E+03 -1.93813E+04  1.55383E+04 -1.97079E+04
  2.74842E+04 -1.34397E+04  3.26148E+04  3.24048E+03  2.56824E+04  2.06252E+04  4.11455E+03  3.66912E+04
 -1.98956E+04  3.10939E+04 -2.92696E+04  1.12305E+04 -2.16238E+04 -1.11131E+04 -4.77519E+03 -1.29322E+04
  1.91218E+03 -2.15011E+03 -5.56335E+03  7.12575E+03 -1.73977E+04  5.51525E+03 -1.69013E+04 -6.86191E+03
 -1.11647E+04 -2.05872E+04  5.15366E+03 -2.37854E+04  1.55743E+04 -1.75651E+04  1.89384E+04 -6.93990E+02
  1.15239E+04  1.35775E+04 -2.19048E+03  1.97559E+04 -1.43738E+04  1.06715E+04 -1.92436E+04 -4.24906E+03
 -1.50872E+04 -1.76718E+04 -1.51277E+03 -2.43876E+04  9.93798E+03 -1.96662E+04  2.03478E+04 -1.00430E+04
  1.86431E+04  8.99503E+01  1.40958E+04  3.79172E+03  7.45069E+03  7.03513E+02  1.04150E+04 -1.41820E+03
  1.85209E+04  2.59697E+03  2.14612E+04  1.46135E+04  1.44708E+04  3.17724E+04 -3.86407E+03  3.55104E+04
 -2.15579E+04  3.00110E+04 -3.41839E+04  1.57989E+04 -3.53795E+04 -3.32506E+03 -2.92087E+04 -2.03911E+04
 -1.18539E+04 -2.89351E+04  9.74270E+03 -2.67973E+04  2.32281E+04 -1.39509E+04  1.92134E+04  5.44803E+03
  7.20462E+03  1.41266E+04 -1.02981E+04  1.31111E+04 -1.64963E+04  3.51621E+03 -1.23670E+04 -1.02071E+04
 -1.23710E+03 -1.56432E+04  8.07834E+03 -1.12507E+04  1.21426E+04  5.13396E+02  1.79296E+03  6.33302E+03
 -7.92062E+03  3.52423E+03 -7.86518E+03 -5.85333E+03  1.00439E+02 -1.48332E+04  9.74932E+03 -1.52867E+04
  1.82360E+04 -7.75531E+03  2.04106E+04  2.67898E+03  1.78916E+04  1.42591E+04  7.89251E+03  2.31470E+04
 -3.59992E+03  2.32001E+04 -1.53775E+04  1.54625E+04 -1.80665E+04  3.73223E+03 -1.10413E+04 -4.42553E+03
 -4.12328E+03 -4.77889E+03 -5.87377E+02  2.41341E+03 -4.09492E+03  3.06885E+03 -5.26066E+03  4.01464E+03
 -1.01531E+04 -1.76266E+03 -1.30729E+04 -8.99284E+03 -5.89577E+03 -1.59619E+04  5.15065E+03 -1.24817E+04
  1.18577E+04 -5.51450E+03  7.17929E+03  3.55061E+03  8.28705E+02  5.30203E+03 -6.26142E+03 -3.20125E+02
 -4.97713E+03 -8.69272E+03 -6.62464E+02 -1.07143E+04  6.23065E+03 -1.27115E+04  1.50529E+04 -5.67626E+03
  1.84832E+04  1.25909E+03  1.29512E+04  1.05475E+04  3.89688E+03  1.38376E+04 -7.83065E+03  1.19123E+04
 -1.04930E+04  2.30926E+03 -6.18265E+03 -1.66765E+03  3.38002E+03 -1.97283E+03  6.69940E+03 -2.59671E+03
  5.21112E+03  5.99844E+03 -1.86539E+01  8.78038E+03 -5.63774E+03  8.69148E+03 -1.22868E+04  1.33374E+03
 -8.02305E+03 -7.36715E+03 -8.27701E+02 -1.16226E+04  6.29381E+03 -5.81719E+03  7.80394E+03  1.91420E+03
  1.29230E+03  7.19003E+03 -5.20806E+03  8.07773E+03 -8.83445E+03  4.56389E+03 -8.55724E+03 -3.73070E+03
 -5.58022E+03 -1.13096E+04  2.82166E+03 -1.38395E+04  1.23114E+04 -8.16879E+03  1.32092E+04  1.74581E+03
  5.65052E+03  1.01171E+04  6.13381E+02  1.16050E+04 -7.73690E+03  6.63017E+03 -9.92044E+03 -1.43402E+03
 -8.14174E+03 -8.99850E+03 -1.12945E+03 -9.42766E+03  4.86768E+03 -6.84825E+03  5.21227E+03 -1.72056E+03
  3.86529E+03  1.30078E+03 -5.14251E+01  1.90298E+03  1.28442E+02 -1.68422E+03  4.48642E+02 -4.29778E+03
  8.90855E+03 -2.42280E+03  1.07980E+04  1.64398E+03  1.12549E+04  7.66004E+03  7.58277E+03  1.43947E+04
 -3.87154E+03  1.54682E+04 -1.49431E+04  1.07985E+04 -1.79460E+04  2.91236E+03 -1.27550E+04 -5.96996E+03
 -6.56406E+03 -1.14533E+04 -9.74931E+02 -8.55277E+03  2.53367E+03 -4.21877E+03  3.48069E+03 -4.70777E+03
  2.63556E+03 -2.69654E+03  2.82433E+03 -3.10965E+03  4.30128E+03 -1.28650E+03  6.36231E+03 -2.05273E+03
  7.41852E+03  1.77416E+03  2.93374E+03  6.55641E+03 -2.18487E+03  7.10889E+03 -6.70521E+03  4.96994E+03
 -1.04850E+04 -6.32697E+01 -4.87190E+03 -5.46431E+03 -6.59535E+01 -1.03109E+04  5.75761E+03 -1.03138E+04
  1.13537E+04 -4.30660E+03  1.29266E+04  7.80738E+02  8.92696E+03  8.71923E+03  1.73683E+03  1.28472E+04
 -6.53847E+03  1.09778E+04 -6.71422E+03  3.21249E+03 -3.51981E+03 -1.70841E+03 -2.05548E+03 -1.18386E+03
 -1.09531E+03 -6.15131E+02 -3.16405E+03  1.36535E+03 -4.47537E+03  2.17741E+03 -6.22688E+03 -2.40597E+02
 -4.41072E+03 -8.47650E+03  1.32786E+02 -9.27789E+03  6.32562E+03 -9.12803E+03  9.83162E+03 -1.85215E+03
  1.11356E+04  4.98067E+03  3.98456E+03  7.89944E+03 -7.96030E+02  1.13015E+04 -6.56444E+03  6.37550E+03
 -7.75829E+03  1.36764E+03 -6.71527E+03 -5.80651E+03 -8.73700E+02 -8.09960E+03  2.36468E+03 -4.80798E+03
  4.77096E+03 -2.89017E+03  3.67738E+03  1.53566E+03  1.44692E+03  4.38079E+03  1.76270E+03  2.14955E+03
  3.22348E+03  9.72990E+02  2.16315E+03  2.41109E+03  2.18392E+03  5.03725E+03  2.85559E+03  5.51127E+03
 -2.78587E+03  7.24610E+03 -6.01673E+03  8.70168E+03 -8.80181E+03  2.05053E+03 -9.65201E+03 -3.76793E+03
 -5.22020E+03 -9.36605E+03  2.72086E+03 -1.01509E+04  4.98865E+03 -6.76299E+03  8.00170E+03 -2.15414E+03
  6.55078E+03  3.50539E+03  2.02650E+03  6.02478E+03 -2.26594E+03  2.89594E+03 -2.88457E+03 -2.65245E+02
 -2.11784E+03 -3.04711E+03  1.48098E+03 -4.43817E+03  4.95987E+03 -1.19293E+03  4.16342E+03  2.85583E+03
  1.05261E+03  2.24343E+03  3.95830E+02  7.01571E+02 -1.02708E+03  1.96017E+03  3.20409E+03 -1.54242E+03
 -7.46912E+01  8.16761E+01  4.49644E+03  5.87457E+02  2.00615E+03  6.04555E+03 -5.95896E+02  5.71286E+03
 -2.74533E+03  3.99194E+03 -6.21969E+03  5.38400E+02 -5.23167E+03 -3.10714E+03 -1.41728E+03 -4.90726E+03
  2.65308E+02 -2.75563E+03  1.56134E+03 -8.06972E+02  1.72252E+03  2.73700E+03 -1.51290E+03  3.02948E+03
 -4.30681E+03  2.43754E+03 -4.36786E+03 -1.51688E+03 -2.32293E+03 -5.61169E+03 -1.93349E+03 -4.76638E+03
  1.09645E+03 -2.29528E+03  3.59169E+03  2.79772E+02  3.25407E+03  1.34714E+03  1.82172E+03  2.22090E+03
 -1.81097E+03  8.27120E+02 -2.66424E+03 -2.05343E+03  1.93650E+03 -4.22232E+03  5.09809E+03 -3.12849E+03
  5.81364E+03  1.77367E+03  5.00435E+03  2.64303E+03  1.29181E+03  5.10622E+03 -2.13748E+03  5.12458E+03
 -5.30318E+03  2.62915E+03 -3.73292E+03 -1.70359E+03 -3.44731E+03 -2.40182E+03 -1.03778E+02 -3.94881E+03
  4.71160E+03 -1.34316E+03  3.56882E+03  1.89735E+03 -2.48824E+02  2.93015E+03 -9.98077E+02  3.34123E+03
 -5.12500E+02  2.16973E+03  5.26282E+02 -1.14184E+03 -1.22958E+03  1.34340E+03 -8.61141E+02  1.80511E+03
 -1.67383E+03  1.66272E+03 -4.11989E+03  2.32486E+03 -5.27514E+03 -1.30373E+02 -6.06400E+03 -3.17353E+03
 -2.53626E+03 -8.10165E+03  2.96657E+03 -9.14933E+03  5.23896E+03 -7.90920E+03  8.28233E+03 -1.73766E+03
  7.52590E+03  2.22759E+03  4.45200E+03  4.98395E+03 -3.45335E+02  4.80406E+03 -2.25560E+03  4.97432E+03
 -2.93388E+03  1.59428E+03 -2.21982E+03  2.47274E+01 -1.20224E+03 -1.16984E+03  5.55511E+02  8.04714E+02
 -1.66995E+03  3.72734E+02 -1.81774E+03 -6.45982E+02  3.41697E+02 -1.85771E+03  9.06462E+02 -3.28349E+03
  4.36773E+03 -1.12253E+03  2.73056E+03  1.45629E+02  3.37119E+03  3.02582E+03 -3.82787E+02  4.91875E+03
 -2.73233E+03  6.99051E+03 -7.50936E+03  3.60212E+03 -6.32288E+03 -1.21263E+03 -5.80506E+03 -3.28112E+03
 -3.41120E+03 -4.81145E+03  8.48972E+02 -4.94810E+03  2.54894E+03 -2.86168E+03  3.78778E+03 -8.38643E+02
  2.67481E+03  7.22713E+02 -3.08778E+02  1.84543E+03 -8.14016E+02 -1.58846E+02 -7.94990E+02 -2.25618E+03
  3.33171E+03 -1.20757E+03  1.83674E+03  1.08170E+03  6.33241E+02  2.58910E+03 -4.45327E+02  2.77944E+03
 -1.83454E+03  2.01495E+03 -3.47349E+03 -1.43422E+03 -2.53501E+03 -2.99747E+03 -1.55394E+03 -3.95744E+03
  3.37395E+03 -3.40366E+03  5.46424E+03 -2.08903E+03  4.97927E+03  1.75515E+02  3.27261E+03  2.87283E+03
  6.93939E+02  1.77638E+03 -1.02875E+03  3.47613E+03 -2.20090E+03  1.58530E+03 -6.37321E+02  1.81851E+01
 -1.51437E+03  6.37939E+02 -1.30624E+03  5.89206E+02 -2.22998E+03 -2.97232E+01 -2.44925E+03 -1.01537E+03
 -3.42821E+03 -7.86329E+02 -9.46377E+02 -4.23589E+03  1.13408E+03 -2.96853E+03  3.94524E+03 -2.94815E+03
  4.39406E+03  7.48726E+02  1.64662E+03  3.37207E+03  2.30629E+02  3.15931E+03 -2.65110E+03  3.07187E+03
