 $NMID ID='MM_0lb_SNR200_19hz_g45_15.RAW', FMTDAT='(8E13.5)'
 TRAMP=1., VOLUME=1. $END
  3.11000E+05  8.00827E+02  3.37293E+05  2.50445E+05  8.45839E+04  3.36826E+05 -1.33404E+05  2.50172E+05
 -1.90978E+05  8.29870E+04 -1.11086E+05 -3.30266E+04  1.96705E+03 -5.09243E+04  5.41399E+04 -2.06573E+02
  3.36859E+04  5.39478E+04 -1.68018E+04  7.46171E+04 -5.93783E+04  6.22217E+04 -8.21194E+04  3.07195E+04
 -7.97592E+04 -1.19485E+04 -5.66394E+04 -5.07690E+04 -1.51425E+04 -6.71555E+04  2.58275E+04 -4.47773E+04
  3.82501E+04  3.35084E+03  1.50038E+04  4.67227E+04 -3.45272E+04  4.60882E+04 -6.54890E+04 -3.10902E+02
 -5.26379E+04 -5.73488E+04 -5.80859E+03 -7.43765E+04  3.23301E+04 -5.22088E+04  4.59089E+04 -1.58700E+04
  4.11964E+04  1.15040E+04  2.98653E+04  2.41196E+04  1.49524E+04  2.75491E+04 -4.14973E+03  2.67986E+04
 -2.10948E+04  1.31792E+04 -1.90220E+04 -3.85632E+03  3.87471E+03 -7.53336E+03  2.17964E+04  9.92385E+03
  7.78705E+03  3.22788E+04 -2.97880E+04  3.37373E+04 -6.03845E+04  2.26617E+03 -5.50444E+04 -4.11110E+04
 -1.26394E+04 -5.96765E+04  3.86756E+04 -4.24928E+04  5.41332E+04 -2.28040E+03  3.24180E+04  2.98262E+04
 -6.55862E+03  3.17937E+04 -2.90130E+04  1.28293E+04 -2.64982E+04 -5.44844E+03 -1.43848E+04 -9.71612E+03
 -7.18093E+03 -1.10716E+04 -1.19902E+03 -1.64559E+04  6.50594E+03 -2.14499E+04  1.46256E+04 -1.46045E+04
  1.34285E+04  3.93696E+03 -5.63195E+03  1.21597E+04 -1.85152E+04 -2.54184E+03 -7.59903E+03 -3.03305E+04
  2.04656E+04 -4.07701E+04  4.39250E+04 -1.91352E+04  4.26402E+04  1.75969E+04  1.37490E+04  4.15930E+04
 -1.48061E+04  3.05545E+04 -2.33162E+04  1.34129E+03 -7.53562E+03 -2.73061E+04  2.06676E+04 -3.11169E+04
  3.73660E+04 -6.18541E+03  3.07570E+04  2.25685E+04  1.62983E+04  4.18189E+04 -6.71805E+03  4.47856E+04
 -2.80275E+04  2.83344E+04 -3.68440E+04  7.99846E+03 -3.88504E+04 -1.50227E+04 -2.17553E+04 -3.36333E+04
  6.86000E+03 -3.35746E+04  2.85705E+04 -1.30282E+04  2.57416E+04  1.03916E+04  3.51108E+03  1.78526E+04
 -1.22823E+04  6.56200E+03 -9.06123E+03 -8.11091E+03  5.73931E+03 -1.10900E+04  1.68817E+04  5.87286E+03
  1.14743E+04  2.25371E+04 -6.62817E+03  2.15051E+04 -2.18671E+04  9.46158E+03 -2.45004E+04 -6.92722E+03
 -1.64987E+04 -1.62546E+04 -4.98986E+03 -1.59440E+04  3.78764E+03 -1.32553E+04  1.27483E+04 -1.31976E+04
  2.11798E+04 -1.06239E+04  2.73903E+04  1.88185E+03  2.16585E+04  1.57072E+04  3.75858E+03  3.17587E+04
 -1.64855E+04  2.72584E+04 -2.52121E+04  9.31888E+03 -1.98396E+04 -1.08310E+04 -3.99795E+03 -1.43478E+04
  3.08054E+03 -4.57924E+03 -2.06240E+03  5.28745E+03 -1.25833E+04  4.85622E+03 -1.31388E+04 -5.52116E+03
 -7.97860E+03 -1.46231E+04  4.88737E+03 -1.96844E+04  1.11177E+04 -1.31029E+04  1.38006E+04 -1.68037E+03
  8.36671E+03  1.11018E+04 -2.35072E+03  1.47335E+04 -9.69385E+03  8.36259E+03 -1.41494E+04 -3.17043E+03
 -1.14854E+04 -1.34506E+04 -1.32898E+03 -1.82862E+04  8.71483E+03 -1.59358E+04  1.55439E+04 -8.07995E+03
  1.39693E+04  1.14563E+02  1.03263E+04  4.11621E+03  5.01775E+03  1.26041E+03  6.37569E+03 -2.29882E+03
  1.32245E+04  3.03640E+03  1.32559E+04  1.20925E+04  8.53737E+03  2.42442E+04 -3.67235E+03  2.54819E+04
 -1.51969E+04  1.84447E+04 -2.28542E+04  8.66547E+03 -2.40134E+04 -1.18373E+03 -2.04810E+04 -1.40615E+04
 -1.04736E+04 -1.89681E+04  6.44934E+03 -1.83908E+04  1.54207E+04 -1.07736E+04  1.55859E+04  3.22936E+03
  5.97331E+03  1.16837E+04 -7.28370E+03  9.52860E+03 -1.32455E+04  2.26051E+03 -9.69150E+03 -8.15305E+03
  3.21012E+02 -1.16020E+04  6.27518E+03 -9.11811E+03  7.49016E+03 -1.19882E+03  1.08363E+03  5.15734E+03
 -4.37853E+03  7.82307E+02 -3.06552E+03 -4.12325E+03  1.17306E+03 -9.70982E+03  7.29328E+03 -9.27989E+03
  1.18590E+04 -3.58213E+03  1.03548E+04  3.08225E+03  9.78747E+03  8.53516E+03  5.21305E+03  1.34327E+04
 -2.00748E+02  1.51288E+04 -9.94116E+03  9.57515E+03 -1.14726E+04  2.67323E+03 -8.01119E+03 -2.52002E+03
 -5.47328E+03 -2.79929E+03 -8.92392E+02  2.08979E+03 -1.14387E+03  1.44237E+03 -3.50709E+03  2.29245E+03
 -7.35410E+03  9.62715E+01 -8.48100E+03 -8.04841E+03 -3.43385E+03 -1.15645E+04  2.88828E+03 -9.15103E+03
  6.27070E+03 -4.07392E+03  5.33818E+03  1.94358E+03  1.24983E+03  3.32580E+03 -2.87040E+03  7.24421E+02
 -3.27112E+03 -4.44702E+03 -6.74672E+02 -6.86143E+03  3.71804E+03 -6.78430E+03  9.83305E+03 -2.94156E+03
  1.19345E+04  2.24762E+02  8.89322E+03  6.36552E+03  1.92931E+03  7.81970E+03 -4.34962E+03  7.19114E+03
 -6.90327E+03  2.58681E+03 -2.74925E+03 -6.73301E+02  1.10133E+03 -2.44594E+03  3.91373E+03 -6.40551E+02
  3.80347E+03  2.64257E+03  7.35980E+02  5.53491E+03 -3.86944E+03  6.05657E+03 -7.09623E+03  8.03348E+02
 -4.04098E+03 -3.80628E+03 -1.35324E+02 -6.82933E+03  2.99936E+03 -3.83498E+03  2.90514E+03 -1.00594E+02
  3.06265E+02  3.19818E+03 -4.63797E+03  3.95304E+03 -3.60453E+03  1.11499E+03 -3.75480E+03 -1.64005E+03
 -2.67750E+03 -4.85906E+03  3.64640E+02 -5.69718E+03  5.49536E+03 -4.46855E+03  6.60378E+03  9.65915E+02
  4.06716E+03  4.52334E+03  2.49489E+02  6.46740E+03 -4.94779E+03  4.49119E+03 -5.36327E+03 -1.03844E+03
 -5.10372E+03 -4.88899E+03 -1.73860E+03 -7.22731E+03  1.74991E+03 -4.55669E+03  2.86729E+03 -2.18248E+03
  2.56204E+03 -5.32892E+02 -4.42512E+02  1.76426E+03  3.11009E+01 -8.11735E+01 -3.62790E+02 -2.84617E+03
  3.77686E+03 -1.30590E+02  4.24006E+03 -2.56131E+02  5.01757E+03  2.76107E+03  4.62128E+03  6.80365E+03
 -9.66956E+02  6.30057E+03 -6.68670E+03  5.63840E+03 -9.17431E+03  1.14775E+03 -6.08248E+03 -2.13981E+03
 -3.51086E+03 -5.23177E+03  1.52802E+02 -4.52568E+03  7.90219E+02 -2.79995E+03  2.15738E+03 -1.76071E+03
  9.30595E+02 -1.04814E+03  1.78946E+03 -1.45612E+03  2.55841E+03 -1.78637E+03  4.15769E+03 -3.97726E+02
  4.50063E+03  8.73570E+02  2.19470E+02  2.62135E+03 -9.72800E+02  2.88385E+03 -4.14121E+03  1.24886E+03
 -4.70280E+03 -5.27507E+02 -2.49824E+03 -3.41391E+03  9.33835E+02 -4.71275E+03  3.27104E+03 -5.30411E+03
  4.38668E+03 -2.18641E+03  6.02951E+03 -1.19380E+02  5.14137E+03  3.22816E+03  1.44073E+03  4.83000E+03
 -1.52358E+03  5.95569E+03 -3.26692E+03  1.66430E+03 -1.39545E+03 -1.62726E+02  9.30836E+02 -4.55219E+02
 -1.37603E+03  6.15105E+02 -1.71705E+03  3.01126E+03 -2.28680E+03  1.95644E+02 -4.16298E+03 -8.87337E+01
 -1.29480E+03 -4.28504E+03  1.70181E+03 -4.28177E+03  4.66753E+03 -4.80869E+03  3.42316E+03 -2.00177E+03
  2.85013E+03  1.80960E+03  6.82832E+02  2.39285E+03  2.30435E+02  4.22290E+03 -1.83063E+03  2.35086E+03
 -4.16528E+03  8.84869E+02 -3.87276E+03 -1.40427E+03 -5.30429E+02 -2.69358E+03  1.23981E+03 -2.40705E+03
  2.58996E+03 -7.66754E+02  1.82642E+03 -2.27984E+02  5.75795E+02  1.59183E+03  1.16173E+03  5.78197E+02
  1.65891E+03  4.43093E+02  9.22372E+02  5.26996E+02  8.50128E+02  2.29761E+03  1.70324E+03  2.59498E+03
 -1.41569E+03  2.03804E+03 -1.74156E+03  3.53688E+03 -2.51035E+03  1.02926E+03 -3.71747E+03  1.98160E+02
 -1.13701E+03 -3.65152E+03  1.02970E+03 -4.49420E+03  1.03064E+03 -2.44496E+03  2.48174E+03 -5.98850E+02
  2.15864E+03  1.19623E+03 -1.72163E+01  1.50316E+03 -2.81673E+01  1.39744E+03 -1.31677E+03 -6.90859E+02
 -1.40570E+03 -8.13925E+02  1.86936E+03 -1.08430E+03  7.72778E+02 -2.73335E+02  5.51972E+02  1.85809E+02
  4.26476E+02  1.03473E+03  4.54493E+02  2.90445E+02  2.84993E+00  6.37292E+02  1.78520E+03 -2.69422E+02
  3.84901E+02 -8.39699E+01  1.89392E+02  1.41286E+03  4.23131E+02  1.82827E+03 -1.44942E+03  2.21609E+03
 -1.30618E+03  1.16093E+03 -1.50552E+03  1.09872E+03 -3.59393E+03  4.91550E+02  3.87996E+02 -7.29048E+02
  3.64567E+02 -7.96745E+02 -8.25878E+01  6.08242E+02  6.34400E+02  1.07120E+03 -1.33945E+03  1.32446E+03
 -1.91223E+03  5.88065E+02 -9.17409E+02 -1.21178E+03 -5.51426E+01 -1.74826E+03 -1.66981E+02 -1.10610E+03
  2.76864E+02 -5.11999E+02  1.25167E+03 -1.04086E+03  1.33770E+03 -2.69484E+02  2.33736E+02  1.02673E+03
 -1.75856E+03  1.50020E+02 -5.61920E+02  1.08635E+03  4.74651E+02 -1.42150E+02  1.14377E+03 -7.01372E+02
  8.73977E+02  3.32884E+02  3.02786E+03 -2.78878E+02  5.64149E+02  1.55831E+03 -6.42662E+02  1.82329E+03
 -8.83492E+02  2.46061E+02 -1.09358E+03 -2.38778E+02 -9.01320E+01 -1.21900E+03 -1.14014E+02 -7.18514E+02
  1.06349E+03 -1.46584E+03  8.63836E+02  4.56262E+02 -2.67502E+02  1.25523E+03 -1.13978E+02  5.80807E+02
 -1.55760E+02  1.66167E+03 -8.27914E+02  4.18178E+01  1.19817E+02 -1.69889E+02 -2.29221E+02  5.76560E+02
 -9.27606E+02  1.58472E+03 -1.49852E+03  1.23595E+03 -1.56796E+03  8.45155E+02 -2.52764E+03 -8.39008E+02
 -7.94215E+02 -1.51223E+03 -6.41594E+00 -2.60678E+03 -3.53962E+02 -1.75115E+03  1.81206E+03 -2.31845E+03
  3.18760E+03 -8.62463E+02  9.14964E+02  2.47155E+02 -3.98788E+02  1.53044E+03 -1.11634E+03  1.00331E+03
 -1.87654E+03 -5.74069E+02 -1.96291E+02 -2.39168E+02 -3.24105E+02  1.01695E+02 -3.87603E+02 -2.28128E+02
 -5.35436E+02  1.40169E+01 -5.60403E+02 -7.31863E+02 -2.35431E+01 -1.07914E+03  5.02803E+01 -5.45078E+02
  1.53457E+03 -2.41330E+02 -4.54587E+01 -4.94126E+02  5.30669E+02  1.66456E+03  6.01941E+02  1.07115E+03
 -1.10099E+03  1.33018E+03 -2.43894E+03  1.51377E+03 -1.99157E+03 -2.36112E+02 -1.45901E+03 -8.26726E+02
 -6.50196E+02 -8.00215E+02  7.79259E+01 -8.78155E+02  1.38866E+03 -3.83998E+02  6.78798E+02 -2.17984E+01
  1.13261E+03  1.46701E+03 -7.66124E+01  6.04613E+01 -2.70698E+02  8.45733E+02 -7.06973E+02 -4.19576E+02
 -1.75065E+02  4.74293E+01  1.17166E+03  7.72830E+01 -1.75983E+01  6.05580E+02 -1.45900E+02 -3.59172E+02
 -9.68669E+02  1.67380E+03 -9.32336E+02 -7.03940E+02 -5.47270E+02 -7.44918E+02 -3.75924E+02 -1.33034E+03
  1.46310E+01 -1.33443E+03 -4.39096E+02 -6.01156E+02  7.04545E+02 -6.74346E+02  8.18698E+01  1.89241E+02
  9.64970E+01  1.46541E+03  2.35589E+02  1.42224E+03 -9.15629E+02  4.18645E+02  1.03572E+02 -2.39534E+02
 -2.16522E+02  3.73215E+02 -1.20711E+03 -2.18325E+02 -1.62480E+03 -5.04989E+02 -1.66967E+03 -2.22875E+02
 -1.82948E+03  8.47066E+02 -1.56975E+02 -1.44089E+03  6.85250E+02 -8.59268E+02  3.37814E+02  5.03146E+01
  3.44592E+02  3.44865E+01 -6.90646E+02  3.47023E+02 -6.33498E+02  5.08385E+02 -1.25325E+02  6.55031E+02
