 $NMID ID='MM_0lb_SNR200_14hz_g60_4.RAW', FMTDAT='(8E13.5)'
 TRAMP=1., VOLUME=1. $END
  3.09477E+05  5.47938E+02  3.38472E+05  2.51379E+05  8.48547E+04  3.38131E+05 -1.32435E+05  2.51715E+05
 -1.90822E+05  8.51366E+04 -1.13117E+05 -3.33570E+04 -4.48613E+02 -5.08293E+04  5.35660E+04  6.87891E+02
  3.56494E+04  5.26857E+04 -1.59143E+04  7.55319E+04 -6.06297E+04  6.31710E+04 -8.51219E+04  3.17301E+04
 -8.08327E+04 -1.08149E+04 -5.67524E+04 -5.29008E+04 -1.53474E+04 -6.89536E+04  2.78467E+04 -4.58213E+04
  4.08933E+04  3.49085E+03  1.77195E+04  4.75856E+04 -3.50243E+04  4.69258E+04 -6.72588E+04 -4.04210E+02
 -5.47805E+04 -5.74405E+04 -6.70674E+03 -7.65378E+04  3.50604E+04 -5.54523E+04  4.89202E+04 -1.76821E+04
  4.44094E+04  1.08999E+04  3.15622E+04  2.58333E+04  1.58785E+04  3.04102E+04 -4.06148E+03  2.79500E+04
 -2.28895E+04  1.12674E+04 -1.84697E+04 -4.10734E+03  6.40432E+03 -7.46644E+03  2.34045E+04  1.26938E+04
  7.59132E+03  3.52152E+04 -3.28985E+04  3.63912E+04 -6.46360E+04  1.19699E+03 -5.69218E+04 -4.29875E+04
 -1.24899E+04 -6.25391E+04  3.99627E+04 -4.63125E+04  5.89295E+04 -8.88690E+02  3.48265E+04  3.42827E+04
 -5.96650E+03  3.70708E+04 -3.11307E+04  1.62341E+04 -3.08383E+04 -3.46382E+03 -1.74252E+04 -1.21359E+04
 -8.66052E+03 -1.28160E+04 -2.03809E+03 -1.87507E+04  8.96697E+03 -2.29398E+04  1.63611E+04 -1.27110E+04
  1.12269E+04  6.29536E+03 -9.78301E+03  1.25221E+04 -2.14224E+04 -4.89876E+03 -8.66280E+03 -3.59261E+04
  2.33446E+04 -4.41106E+04  4.94340E+04 -1.99339E+04  4.49253E+04  2.05322E+04  1.56864E+04  4.46497E+04
 -1.58697E+04  3.45283E+04 -2.72977E+04  1.69261E+03 -1.15907E+04 -2.82263E+04  2.15654E+04 -3.33364E+04
  4.22483E+04 -1.01683E+04  3.59308E+04  2.45426E+04  1.98348E+04  4.81491E+04 -8.13030E+03  5.31436E+04
 -3.28901E+04  3.48926E+04 -4.32554E+04  1.07155E+04 -4.38520E+04 -1.77209E+04 -2.39818E+04 -4.05261E+04
  7.27808E+03 -3.85367E+04  3.17398E+04 -1.44933E+04  2.94675E+04  1.20989E+04  4.56933E+03  1.88372E+04
 -1.18349E+04  8.93114E+03 -1.06779E+04 -8.08058E+03  5.36957E+03 -1.02371E+04  1.76780E+04  6.34941E+03
  1.38881E+04  2.31199E+04 -4.77131E+03  2.67347E+04 -2.38466E+04  1.35295E+04 -3.06660E+04 -4.32025E+03
 -2.20556E+04 -1.70897E+04 -8.95359E+03 -2.27113E+04  4.59582E+03 -2.20038E+04  1.59768E+04 -2.02059E+04
  2.79375E+04 -1.31007E+04  3.40347E+04  4.89769E+03  2.55924E+04  1.95863E+04  4.96280E+03  3.71998E+04
 -1.85840E+04  3.13724E+04 -2.73522E+04  1.13081E+04 -2.17852E+04 -9.74574E+03 -4.42320E+03 -1.35221E+04
  1.95855E+03 -2.17734E+03 -6.25445E+03  7.42243E+03 -1.68201E+04  3.26021E+03 -1.69119E+04 -7.28399E+03
 -1.08819E+04 -2.03706E+04  4.98849E+03 -2.47915E+04  1.59128E+04 -1.65843E+04  1.87994E+04 -1.16327E+03
  1.19716E+04  1.47546E+04 -1.89237E+03  2.11200E+04 -1.59547E+04  1.22173E+04 -2.03687E+04 -3.30700E+03
 -1.50890E+04 -1.91233E+04 -2.02970E+03 -2.44247E+04  1.06917E+04 -2.08019E+04  2.02504E+04 -8.96133E+03
  1.92285E+04  2.75156E+02  1.34680E+04  4.65669E+03  6.35790E+03  1.24880E+03  9.83290E+03 -1.24748E+03
  1.81652E+04  1.85890E+03  2.01176E+04  1.60927E+04  1.34304E+04  3.16251E+04 -3.59562E+03  3.63512E+04
 -1.99572E+04  2.98850E+04 -3.39973E+04  1.44255E+04 -3.64103E+04 -3.98824E+03 -3.02665E+04 -2.11683E+04
 -1.33521E+04 -3.01264E+04  9.82615E+03 -2.63782E+04  2.26194E+04 -1.40679E+04  2.00913E+04  5.97809E+03
  7.66796E+03  1.55580E+04 -9.88527E+03  1.37567E+04 -1.58511E+04  2.36424E+03 -1.26674E+04 -1.06993E+04
 -9.94297E+02 -1.58555E+04  8.09569E+03 -1.13261E+04  1.06157E+04 -1.29635E+03  2.98691E+03  6.42145E+03
 -7.44868E+03  2.34086E+03 -6.94085E+03 -7.08889E+03 -8.40150E+02 -1.31522E+04  9.71926E+03 -1.58407E+04
  1.81016E+04 -8.50211E+03  2.05215E+04  3.51581E+03  1.74490E+04  1.50411E+04  8.18106E+03  2.18331E+04
 -3.25053E+03  2.51380E+04 -1.47828E+04  1.50614E+04 -1.74056E+04  4.01571E+03 -1.16538E+04 -4.92304E+03
 -6.69117E+03 -5.36448E+03 -1.08530E+03  1.64293E+03 -2.59569E+03  2.48379E+03 -6.12655E+03  3.85580E+03
 -1.24145E+04  3.51522E+02 -9.81321E+03 -9.75714E+03 -3.81319E+03 -1.71293E+04  4.52264E+03 -1.26410E+04
  9.42625E+03 -5.21625E+03  7.07391E+03  3.51506E+03 -9.47851E+02  4.48875E+03 -5.08276E+03  3.02254E+02
 -5.00424E+03 -7.26226E+03 -1.46904E+03 -1.21599E+04  6.20527E+03 -1.11154E+04  1.52543E+04 -6.48088E+03
  1.82285E+04  1.50004E+03  1.21855E+04  9.96688E+03  2.46598E+03  1.41507E+04 -7.65657E+03  1.17080E+04
 -1.01332E+04  2.50390E+03 -4.53444E+03 -2.72009E+03  1.04672E+03 -3.29826E+03  7.78653E+03 -2.36666E+03
  4.99958E+03  4.53723E+03  1.49786E+03  1.01411E+04 -6.90723E+03  9.92946E+03 -1.18026E+04  1.38396E+03
 -9.44211E+03 -5.02523E+03  1.24022E+03 -8.19279E+03  5.82046E+03 -5.48959E+03  8.02822E+03  1.37168E+03
  1.41496E+03  6.76329E+03 -5.78934E+03  8.25744E+03 -1.03373E+04  4.21667E+03 -8.48839E+03 -2.74617E+03
 -6.54265E+03 -1.10363E+04  2.30398E+03 -1.21889E+04  1.12325E+04 -8.88130E+03  1.17510E+04  2.14017E+03
  8.64125E+03  7.94554E+03 -1.81079E+03  1.13444E+04 -7.33671E+03  6.82513E+03 -1.00727E+04 -9.88344E+02
 -7.85536E+03 -7.33680E+03 -4.27755E+02 -7.78771E+03  4.13218E+03 -6.37966E+03  3.66669E+03 -2.13726E+03
  3.56024E+03  5.55910E+02 -4.47850E+02  2.70182E+03  1.89030E+02 -5.92340E+02  1.75016E+03 -3.96635E+03
  5.94386E+03 -2.37094E+03  1.03031E+04  1.37399E+03  1.05893E+04  6.37023E+03  8.31304E+03  1.27010E+04
 -2.86498E+03  1.63817E+04 -1.34368E+04  1.25448E+04 -1.85320E+04  3.39119E+03 -1.38204E+04 -5.96213E+03
 -7.84537E+03 -1.08200E+04 -2.14894E+02 -9.84863E+03  3.17915E+03 -5.16682E+03  3.93362E+03 -2.95743E+03
  2.60244E+03 -3.18834E+03  3.19530E+03 -2.72647E+03  4.91768E+03 -1.36937E+03  5.76883E+03 -6.66377E+02
  6.38351E+03  2.60109E+03  2.76062E+03  6.73629E+03 -1.52148E+03  7.26640E+03 -6.54525E+03  5.57994E+03
 -9.55939E+03 -1.54619E+03 -4.69932E+03 -6.35176E+03 -6.76840E+02 -1.00562E+04  4.36798E+03 -9.89151E+03
  8.32757E+03 -4.17805E+03  1.20633E+04  1.41424E+03  1.06726E+04  7.06447E+03  1.62268E+03  9.86595E+03
 -5.06470E+03  8.73280E+03 -7.00256E+03  3.76871E+03 -4.01159E+03 -1.26616E+03 -6.35142E+02 -7.27182E+02
 -1.43361E+03 -3.25498E+02 -2.24738E+03  1.89060E+03 -3.01384E+03  2.06668E+03 -6.91658E+03 -1.60859E+03
 -4.25564E+03 -7.05613E+03  3.72452E+02 -9.31876E+03  5.99308E+03 -8.30797E+03  7.97195E+03 -1.84893E+03
  7.67001E+03  4.66662E+03  4.68176E+03  7.87837E+03 -1.76710E+03  7.12758E+03 -7.02726E+03  5.31853E+03
 -9.37735E+03 -5.12471E+02 -6.28090E+03 -5.44842E+03  8.15772E+02 -7.77930E+03  4.66326E+03 -5.05512E+03
  5.16750E+03 -2.36607E+03  5.68168E+03  2.18471E+03  5.22052E+02  2.24669E+03  3.72387E+02  3.22496E+02
  3.66100E+03  5.30012E+02  1.97020E+03  1.07197E+03  3.20505E+03  3.01924E+03  4.37651E+03  4.43456E+03
 -1.02157E+03  6.58192E+03 -4.60692E+03  8.18759E+03 -7.01318E+03  3.36033E+03 -8.05119E+03 -3.58217E+03
 -2.67972E+03 -8.08502E+03  5.76202E+01 -9.99706E+03  4.02831E+03 -6.06602E+03  7.10144E+03 -2.12229E+03
  5.18621E+03  3.54719E+03  2.18302E+03  4.49170E+03 -1.64654E+03  3.62356E+03 -2.83324E+03 -2.25611E+02
  1.64130E+02 -2.65376E+03  1.82242E+03 -3.59901E+03  3.78172E+03 -1.92164E+03  4.14026E+03  6.88979E+02
  3.52941E+03  1.85588E+03  1.77366E+03  1.03387E+03 -9.96637E+02  1.65782E+03  1.90195E+03 -2.25056E+02
  1.98441E+03  2.87477E+02  4.23709E+03  1.17570E+03  1.03112E+03  2.84416E+03 -5.65507E+02  6.23912E+03
 -4.23449E+03  3.90841E+03 -4.97804E+03  1.41538E+03 -5.76497E+03 -1.69796E+03 -1.23217E+03 -3.97748E+03
  4.63703E+02 -3.45341E+03  5.54266E+02 -2.54674E+03  1.65354E+03  1.14622E+03 -9.76985E+02  2.04592E+03
 -2.76216E+03  1.23361E+03 -2.53628E+03 -2.30709E+03 -1.85361E+03 -4.18116E+03 -3.99019E+02 -4.23858E+03
  1.69146E+03 -1.98849E+03  2.96998E+03 -4.18841E+02  3.69920E+03  2.69554E+02  8.62864E+01  2.95652E+03
 -9.17395E+02  3.29848E+00 -2.44764E+03 -4.39519E+02  1.74141E+03 -2.72880E+03  3.96556E+03 -2.63084E+03
  5.99779E+03  1.70543E+03  4.30537E+03  3.96034E+03  2.47077E+03  3.36704E+03 -1.78485E+03  5.35869E+03
 -2.73447E+03  2.36902E+03 -3.50146E+03 -9.98587E+02 -2.71286E+03 -1.52503E+03  8.98231E+02 -2.60355E+03
  3.55072E+03 -1.55966E+03  3.36471E+03  1.14497E+03  9.56794E+02  4.14621E+03 -1.26647E+03  2.86475E+03
 -1.30965E+03  2.90085E+03 -1.05203E+03  1.26277E+03 -5.99920E+02 -3.09459E+02 -3.92772E+02  1.34457E+03
 -2.28310E+02  2.14536E+03 -4.34043E+03  1.52923E+03 -4.61595E+03  2.63748E+02 -5.67874E+03 -2.23629E+03
 -3.61843E+03 -6.89363E+03  1.12891E+03 -7.35507E+03  4.38619E+03 -4.44726E+03  5.64630E+03 -2.31095E+03
  5.97607E+03  7.04752E+02  3.87895E+03  2.80419E+03  6.30696E+02  3.61168E+03 -1.81439E+03  2.99600E+03
 -2.86018E+03  1.96939E+03 -1.80013E+03 -7.44548E+01  5.86389E+02  1.97656E+02 -4.27410E+02  9.87654E+02
 -9.09946E+02 -1.39924E+02 -1.24773E+03 -2.17079E+02 -2.24268E+01 -3.40714E+02 -4.03148E+02 -1.02963E+03
  1.33877E+03 -1.41008E+03  2.91059E+03 -7.66705E+02  3.38451E+03  2.52368E+03  1.55228E+03  2.21796E+03
 -1.91692E+03  5.53681E+03 -4.07902E+03  3.25651E+03 -4.88746E+03 -3.37151E+02 -3.76514E+03 -3.81693E+03
 -2.25002E+03 -4.58168E+03  1.30682E+03 -3.36893E+03  3.10086E+03 -1.32496E+03  1.69584E+03  6.77920E+02
  8.38372E+02  1.16747E+03  4.84594E+02  8.81702E+02 -1.16626E+03  4.20002E+02  2.54820E+02  2.78374E+02
  2.71688E+03 -1.83916E+03  8.97944E+02  1.25019E+03  1.78071E+03  1.92460E+03  4.65053E+02  1.25321E+03
 -2.33323E+03  1.15084E+03 -2.33502E+03  1.36596E+03 -2.59809E+03 -1.22761E+03 -8.29664E+02 -2.62655E+03
  1.11172E+03 -3.49882E+03  1.35280E+03 -7.45117E+02  2.35982E+03 -4.93209E+02  1.11643E+03  2.78765E+03
  1.12374E+03  1.64070E+03 -1.83291E+03  2.06043E+03 -1.43361E+03  2.45608E+03 -7.51813E+01 -9.18468E+02
 -9.78294E+02  3.70528E+02 -3.00281E+02  1.29287E+03 -5.94090E+02  2.13358E+02 -2.56794E+03 -1.04545E+03
 -2.55395E+03 -1.04626E+03 -3.31173E+02 -2.70760E+03  1.81156E+03 -2.72547E+03  2.16717E+03 -4.90642E+02
  2.47057E+03 -1.65527E+01  1.73337E+03  1.91366E+03 -5.12328E+01  1.62671E+03 -6.95490E+02  1.32202E+03
