 $NMID ID='MM_0lb_SNR200_14hz_g40_84.RAW', FMTDAT='(8E13.5)'
 TRAMP=1., VOLUME=1. $END
  3.10531E+05  8.83976E+02  3.38779E+05  2.50779E+05  8.42135E+04  3.38442E+05 -1.31523E+05  2.51586E+05
 -1.90778E+05  8.24532E+04 -1.12337E+05 -3.28221E+04  9.36360E+02 -5.09729E+04  5.38864E+04 -2.23260E+02
  3.32569E+04  5.35618E+04 -1.74881E+04  7.61575E+04 -6.04211E+04  6.08716E+04 -8.50101E+04  3.24124E+04
 -7.95920E+04 -1.21123E+04 -5.60918E+04 -5.13363E+04 -1.49446E+04 -7.01288E+04  2.65129E+04 -4.61621E+04
  3.93857E+04  3.73677E+03  1.62377E+04  4.67345E+04 -3.47784E+04  4.76039E+04 -6.71486E+04 -1.61743E+03
 -5.32792E+04 -5.62346E+04 -6.67121E+03 -7.48014E+04  3.38672E+04 -5.38542E+04  4.70779E+04 -1.64058E+04
  4.34390E+04  1.01750E+04  3.14229E+04  2.59343E+04  1.73950E+04  3.07655E+04 -4.71774E+03  2.67202E+04
 -2.30431E+04  1.31052E+04 -1.95432E+04 -4.54812E+03  5.46706E+03 -7.71647E+03  2.34784E+04  1.08659E+04
  6.57615E+03  3.45030E+04 -3.19996E+04  3.58523E+04 -6.18121E+04  1.85521E+03 -5.65175E+04 -4.19754E+04
 -1.27772E+04 -6.19811E+04  3.89671E+04 -4.50838E+04  5.73318E+04 -3.44126E+03  3.29889E+04  3.25314E+04
 -6.47698E+03  3.63906E+04 -3.00297E+04  1.53244E+04 -2.93927E+04 -4.73662E+03 -1.66006E+04 -1.08969E+04
 -7.30204E+03 -1.21489E+04  1.18464E+02 -1.77592E+04  7.18608E+03 -2.35638E+04  1.55509E+04 -1.25439E+04
  1.15699E+04  4.88864E+03 -7.16504E+03  1.35131E+04 -2.10573E+04 -3.42488E+03 -7.58685E+03 -3.18935E+04
  2.17249E+04 -4.30452E+04  4.78304E+04 -1.94383E+04  4.43202E+04  2.00443E+04  1.50329E+04  4.38727E+04
 -1.56130E+04  3.20981E+04 -2.38452E+04  5.69871E+02 -8.22078E+03 -2.69844E+04  2.20156E+04 -3.38080E+04
  4.11793E+04 -8.95736E+03  3.32659E+04  2.31751E+04  1.71659E+04  4.56207E+04 -8.02113E+03  4.92547E+04
 -3.20009E+04  3.18439E+04 -4.14290E+04  9.20157E+03 -4.22643E+04 -1.56668E+04 -2.15497E+04 -3.73931E+04
  7.25382E+03 -3.73728E+04  3.10212E+04 -1.51056E+04  2.88589E+04  1.05756E+04  2.61737E+03  1.95228E+04
 -1.27906E+04  8.99325E+03 -1.05061E+04 -6.43820E+03  4.66580E+03 -1.05861E+04  1.82373E+04  4.90099E+03
  1.25654E+04  2.21959E+04 -6.86110E+03  2.46026E+04 -2.16002E+04  1.12226E+04 -2.82673E+04 -5.13273E+03
 -1.97176E+04 -1.62020E+04 -8.20815E+03 -2.01725E+04  3.50800E+03 -1.94979E+04  1.44394E+04 -1.70470E+04
  2.51529E+04 -1.26350E+04  3.21765E+04  3.04849E+03  2.26545E+04  1.85615E+04  4.17590E+03  3.58508E+04
 -1.71944E+04  2.98504E+04 -2.81032E+04  1.07580E+04 -2.13261E+04 -9.56750E+03 -3.97575E+03 -1.36752E+04
  2.91534E+03 -2.51880E+03 -4.72104E+03  6.60509E+03 -1.52086E+04  6.09352E+03 -1.63846E+04 -5.90397E+03
 -9.05475E+03 -1.77667E+04  6.67419E+03 -2.42133E+04  1.50430E+04 -1.63689E+04  1.78988E+04 -9.65794E+02
  1.22360E+04  1.30545E+04 -1.40132E+03  1.92027E+04 -1.26290E+04  1.01626E+04 -1.83617E+04 -2.96029E+03
 -1.27294E+04 -1.74350E+04 -2.01045E+03 -2.19602E+04  9.78067E+03 -1.84345E+04  1.78385E+04 -7.67078E+03
  1.76959E+04  9.23786E+02  1.26230E+04  4.51855E+03  5.49235E+03  1.27150E+03  8.40377E+03 -8.30526E+02
  1.72718E+04  2.51632E+03  1.88257E+04  1.56599E+04  1.17390E+04  2.78384E+04 -3.18307E+03  3.23322E+04
 -1.94788E+04  2.60688E+04 -3.04278E+04  1.19057E+04 -3.18330E+04 -2.15645E+03 -2.61679E+04 -1.85013E+04
 -1.13084E+04 -2.65426E+04  9.50266E+03 -2.32642E+04  2.02296E+04 -1.23123E+04  1.82595E+04  5.36904E+03
  6.48708E+03  1.39265E+04 -8.73860E+03  1.11134E+04 -1.55386E+04  2.35084E+03 -1.25128E+04 -1.06829E+04
  2.98956E+02 -1.42403E+04  8.48986E+03 -1.11870E+04  1.02378E+04 -1.76472E+03  2.46430E+03  5.61201E+03
 -6.97725E+03  1.61410E+03 -5.44808E+03 -5.01187E+03  8.21010E+01 -1.33115E+04  8.81393E+03 -1.28258E+04
  1.62256E+04 -6.99569E+03  1.63077E+04  2.47684E+03  1.59852E+04  1.26352E+04  7.47576E+03  1.95025E+04
 -2.91906E+03  2.17516E+04 -1.38400E+04  1.34966E+04 -1.49779E+04  2.32669E+03 -1.00191E+04 -4.21552E+03
 -4.72568E+03 -4.68479E+03 -1.93053E+03  6.39551E+02 -2.92377E+03  2.63107E+03 -3.13723E+03  3.85582E+03
 -8.87079E+03 -3.35955E+02 -1.09681E+04 -9.00553E+03 -4.10714E+03 -1.44653E+04  4.60762E+03 -1.11082E+04
  9.86214E+03 -5.93957E+03  5.54339E+03  3.43675E+03  1.07357E+03  3.73019E+03 -5.82868E+03 -1.61106E+02
 -4.27090E+03 -6.85001E+03 -2.01598E+03 -1.02212E+04  5.45769E+03 -1.01159E+04  1.30565E+04 -5.66918E+03
  1.65115E+04  2.08511E+03  1.11362E+04  1.05866E+04  1.00430E+03  1.26282E+04 -6.88463E+03  1.07763E+04
 -7.99267E+03  4.91560E+03 -3.56672E+03 -2.25803E+03  2.51164E+03 -2.64761E+03  3.77170E+03 -1.64661E+03
  5.55542E+03  4.36893E+03  1.58564E+03  7.48160E+03 -5.94709E+03  8.02972E+03 -1.13525E+04  2.06994E+03
 -4.97246E+03 -4.54550E+03  1.33322E+03 -8.10554E+03  5.73323E+03 -4.22619E+03  5.73722E+03  2.45035E+03
  1.06866E+03  5.78916E+03 -4.53253E+03  6.78841E+03 -7.52075E+03  1.75616E+03 -8.57128E+03 -2.34165E+03
 -4.34463E+03 -9.79777E+03  2.85130E+03 -9.98668E+03  9.24096E+03 -6.21624E+03  8.94012E+03  1.41998E+03
  6.48968E+03  8.45324E+03  6.04377E+02  9.82055E+03 -8.40800E+03  5.80211E+03 -7.64347E+03 -1.50050E+03
 -5.89869E+03 -6.35599E+03 -2.00369E+03 -6.94729E+03  4.04813E+03 -5.63384E+03  4.65822E+03 -4.42155E+03
  3.55878E+03  1.09257E+03  5.71829E+02  1.33286E+03 -4.26476E+02 -2.30839E+03  1.77282E+03 -3.47089E+03
  5.87868E+03 -1.46282E+03  8.84042E+03  1.46297E+03  8.74957E+03  6.16253E+03  6.61809E+03  1.21659E+04
 -3.35435E+03  1.36541E+04 -1.14538E+04  1.11637E+04 -1.39285E+04  2.10864E+03 -1.19190E+04 -5.89294E+03
 -5.99175E+03 -1.03129E+04  6.88913E+02 -8.24428E+03  2.44125E+03 -3.86861E+03  2.97485E+03 -2.39004E+03
  2.60860E+03 -2.49199E+03  2.94874E+03 -2.53512E+03  3.34289E+03 -1.59430E+03  5.28952E+03 -1.24606E+02
  6.57892E+03  2.22049E+02  2.03882E+03  5.48647E+03 -1.70933E+03  5.31475E+03 -5.64402E+03  5.89668E+03
 -8.21696E+03 -9.65649E+02 -3.75384E+03 -6.42758E+03  1.33636E+03 -1.00315E+04  4.66836E+03 -9.56228E+03
  8.95792E+03 -4.83703E+03  1.15086E+04  4.52369E+02  6.13355E+03  7.59043E+03  1.14912E+03  9.28003E+03
 -5.10339E+03  8.80577E+03 -4.61347E+03  2.52428E+03 -4.39260E+03 -8.37618E+02 -1.33135E+03 -1.93014E+02
 -1.02306E+03  1.63740E+03 -1.95657E+03  1.26647E+03 -3.21336E+03  8.56583E+02 -5.59559E+03 -5.31365E+02
 -3.68727E+03 -5.86393E+03  1.41346E+03 -6.97087E+03  5.15417E+03 -7.68693E+03  7.96343E+03 -2.90733E+03
  6.89511E+03  4.23251E+03  4.19262E+03  7.85779E+03 -1.84883E+03  6.88338E+03 -5.38820E+03  4.32626E+03
 -6.65474E+03 -1.40436E+00 -6.55695E+03 -3.00953E+03  6.05258E+01 -6.64584E+03  3.32197E+03 -4.38179E+03
  5.11294E+03 -2.80055E+03  2.65139E+03  1.11330E+03  1.07606E+03  2.07124E+03  2.31164E+02  1.24019E+03
  1.43400E+03  9.05608E+02  3.05279E+03  1.56146E+03  2.55789E+03  3.53116E+03  2.47760E+03  3.73862E+03
 -2.87326E+03  4.90737E+03 -3.98838E+03  5.74555E+03 -6.49352E+03  1.67587E+03 -7.46829E+03 -2.53002E+03
 -3.78447E+03 -7.01713E+03  1.27756E+03 -7.94205E+03  3.53248E+03 -4.74936E+03  6.92129E+03 -1.21859E+03
  4.74915E+03  2.17588E+03  2.69066E+02  5.06301E+03 -1.95768E+03  2.36929E+03 -2.50445E+03 -1.57549E+03
 -9.79379E+02 -2.04818E+03  2.42107E+03 -2.06003E+03  2.93797E+03 -1.36697E+03  3.28735E+03  5.59576E+02
  1.06475E+03  1.03970E+03  1.16726E+03  3.45712E+02  2.26495E+02  2.15524E+03  1.70913E+03 -4.28308E+02
 -1.78281E+02  1.87052E+02  2.53112E+03  4.96272E+01  1.13608E+03  3.64736E+03 -1.89984E+02  4.57731E+03
 -2.11570E+03  2.94907E+03 -4.81870E+03  1.43151E+03 -2.21910E+03 -7.16058E+02 -1.36093E+03 -2.28628E+03
 -3.15726E+02 -2.99130E+03  2.05101E+03 -8.00855E+02  7.05961E+02  2.11913E+03 -1.02437E+03  1.00034E+03
 -3.34517E+03  2.89350E+03 -3.16335E+03 -2.77106E+03 -2.45848E+03 -3.43550E+03 -1.64854E+02 -3.59181E+03
  2.10767E+03 -1.14672E+03  3.38356E+03 -4.20413E+02  1.36114E+03 -4.39267E+01  4.60450E+02  1.63841E+03
 -1.18137E+03  4.00406E+01 -1.29846E+03 -1.34089E+03  5.68429E+02 -2.60493E+03  3.03186E+03 -1.94315E+03
  3.71590E+03  8.92215E+02  4.26394E+03  1.94116E+03  2.41392E+03  3.88943E+03 -1.91471E+03  3.72583E+03
 -3.57005E+03  1.32144E+03 -3.55399E+03  1.40190E+02 -1.73271E+03 -2.80593E+03  6.79398E+02 -2.64942E+03
  2.90881E+03 -3.42578E+02  2.25382E+03  5.31629E+02  6.54571E+02  1.70041E+03  6.16524E+02  2.76227E+03
 -6.92900E+01  1.95805E+03 -6.38200E+02  2.89267E+02 -1.41814E+03  1.48191E+02 -3.98048E+02  7.19925E+02
  2.03285E+02  8.78187E+02 -3.84976E+03  9.42153E+02 -3.85201E+03 -5.58427E+02 -3.38357E+03 -2.22556E+03
 -1.53160E+03 -5.40378E+03  1.78923E+03 -7.35723E+03  2.84849E+03 -5.11714E+03  5.96083E+03 -1.34654E+03
  5.35124E+03  3.59832E+02  2.99587E+03  3.49140E+03  1.38094E+02  4.08952E+03 -1.20336E+03  2.21479E+03
 -1.99436E+03  1.73555E+03 -1.49181E+03 -1.57416E+03 -5.31862E+02 -1.56250E+01 -9.07773E+02 -3.70819E+02
 -1.23000E+03  9.77816E+02 -1.68110E+03  9.55938E+02 -1.35581E+02 -1.66901E+03  6.57025E+02 -8.92575E+02
  1.59726E+03 -1.31931E+03  2.50694E+03 -2.82248E+02  3.56152E+03  2.67651E+03  1.11879E+03  3.36865E+03
 -1.23398E+03  3.21531E+03 -4.17011E+03  2.22076E+03 -4.16372E+03 -1.39985E+03 -3.23874E+03 -2.27138E+03
 -1.98057E+03 -4.00852E+03  1.23359E+03 -4.10392E+03  1.40588E+03 -3.03151E+03  1.86901E+03 -1.38658E+03
  1.20633E+03  1.36689E+03  7.07360E+01  9.22080E+02  8.41052E+00 -3.74783E+02 -6.28068E+02 -5.76973E+02
  1.14633E+03 -7.15870E+02  1.86934E+03 -3.20318E+02  1.29233E+03  8.71961E+02  1.76101E+02  1.14889E+03
 -1.30592E+03  2.74635E+03 -2.24760E+03  3.37199E+02 -2.57034E+03 -1.38423E+03 -9.82889E+01 -2.95199E+03
  5.39451E+02 -1.23622E+03  1.57451E+03 -6.71172E+02  2.45499E+03  1.32368E+01  1.39554E+03  2.53245E+03
  5.86494E+02  2.73020E+03 -8.28578E+02  2.16605E+03 -1.03533E+03  1.87456E+03 -2.21713E+03  1.38536E+03
 -1.96645E+02  4.69299E+01 -1.05207E+03  2.20607E+03 -2.17385E+03  4.32246E+02 -1.68676E+03 -6.97443E+02
 -2.00000E+03  1.04317E+02 -6.46207E+02 -2.04633E+03  2.31572E+03 -3.10463E+03  1.85536E+03  1.83414E+01
  3.60531E+03 -8.69735E+01  1.05732E+03  5.64539E+02  7.92148E+01  3.94925E+03 -2.08375E+03  1.63927E+03
