 $NMID ID='MM_0lb_SNR200_13hz_g45_79.RAW', FMTDAT='(8E13.5)'
 TRAMP=1., VOLUME=1. $END
  3.09221E+05  1.98966E+03  3.37626E+05  2.50062E+05  8.48526E+04  3.37281E+05 -1.30747E+05  2.50794E+05
 -1.90286E+05  8.34472E+04 -1.10753E+05 -3.19018E+04  1.32012E+03 -5.08783E+04  5.29971E+04 -2.57414E+02
  3.55476E+04  5.33256E+04 -1.65660E+04  7.66841E+04 -6.05739E+04  6.37125E+04 -8.44803E+04  3.30491E+04
 -8.04276E+04 -1.16277E+04 -5.72502E+04 -5.20640E+04 -1.47281E+04 -6.94420E+04  2.68620E+04 -4.61817E+04
  4.03559E+04  3.87105E+03  1.62693E+04  4.75794E+04 -3.48985E+04  4.70834E+04 -6.64050E+04  3.53507E+00
 -5.29531E+04 -5.55899E+04 -7.03406E+03 -7.67919E+04  3.44888E+04 -5.42489E+04  4.89926E+04 -1.66813E+04
  4.43861E+04  1.11829E+04  3.23299E+04  2.45395E+04  1.52394E+04  2.94615E+04 -5.80297E+03  2.71613E+04
 -2.21230E+04  1.19409E+04 -1.83202E+04 -4.57947E+03  5.75716E+03 -7.82151E+03  2.41562E+04  1.32242E+04
  7.41670E+03  3.44039E+04 -3.24451E+04  3.64842E+04 -6.26325E+04  1.85708E+03 -5.77996E+04 -4.17306E+04
 -1.26661E+04 -6.34746E+04  3.96377E+04 -4.63356E+04  5.69332E+04 -2.63629E+03  3.54602E+04  3.28057E+04
 -4.71915E+03  3.69152E+04 -2.95079E+04  1.56481E+04 -3.06222E+04 -4.22010E+03 -1.53394E+04 -1.13269E+04
 -9.44921E+03 -1.36224E+04 -9.87352E+02 -1.74799E+04  7.59052E+03 -2.23463E+04  1.58568E+04 -1.16610E+04
  1.19068E+04  4.53972E+03 -8.76730E+03  1.32396E+04 -2.27970E+04 -5.66497E+03 -8.40242E+03 -3.44924E+04
  2.30849E+04 -4.30937E+04  4.96936E+04 -1.96217E+04  4.43895E+04  1.95300E+04  1.66123E+04  4.30385E+04
 -1.50681E+04  3.29423E+04 -2.55024E+04  1.25878E+03 -1.06814E+04 -2.88520E+04  1.98394E+04 -3.41323E+04
  4.21979E+04 -8.04040E+03  3.65177E+04  2.46812E+04  1.90871E+04  4.75957E+04 -7.93254E+03  5.07010E+04
 -3.22180E+04  3.45491E+04 -4.16759E+04  9.47382E+03 -4.34314E+04 -1.71622E+04 -2.33502E+04 -3.92561E+04
  8.12404E+03 -3.81859E+04  3.26714E+04 -1.48591E+04  2.91107E+04  1.07013E+04  4.30196E+03  1.84696E+04
 -1.37410E+04  9.71679E+03 -9.99070E+03 -8.86943E+03  4.52577E+03 -1.05094E+04  1.79195E+04  5.66075E+03
  1.31189E+04  2.24126E+04 -6.10643E+03  2.48484E+04 -2.27099E+04  1.05927E+04 -2.78870E+04 -4.74485E+03
 -2.01343E+04 -1.74758E+04 -8.73666E+03 -2.01315E+04  3.75478E+03 -2.09861E+04  1.67079E+04 -1.76673E+04
  2.77561E+04 -1.43129E+04  3.34879E+04  4.00389E+03  2.53267E+04  1.98842E+04  3.92971E+03  3.71259E+04
 -1.77840E+04  3.09051E+04 -2.95781E+04  1.06230E+04 -2.26593E+04 -9.40156E+03 -4.09608E+03 -1.32733E+04
  1.33360E+03 -3.54930E+03 -4.87153E+03  6.55737E+03 -1.72905E+04  5.04953E+03 -1.67577E+04 -8.17528E+03
 -1.00424E+04 -1.95171E+04  4.68217E+03 -2.43021E+04  1.53202E+04 -1.60421E+04  1.84616E+04 -2.35325E+03
  1.15375E+04  1.37908E+04 -7.48822E+02  1.88325E+04 -1.34214E+04  1.12992E+04 -1.91045E+04 -4.08944E+03
 -1.51980E+04 -1.89048E+04 -2.04832E+03 -2.38299E+04  1.01383E+04 -1.97313E+04  1.97113E+04 -9.24098E+03
  1.78269E+04 -6.44348E+02  1.38774E+04  5.13913E+03  6.50338E+03  1.66961E+03  1.07083E+04 -9.56548E+02
  1.88426E+04  2.05389E+03  1.89046E+04  1.68832E+04  1.26796E+04  3.00858E+04 -3.36646E+03  3.69266E+04
 -2.08841E+04  2.63061E+04 -3.37486E+04  1.40199E+04 -3.39975E+04 -2.27431E+03 -2.88322E+04 -1.97329E+04
 -1.21105E+04 -2.98637E+04  1.08309E+04 -2.49035E+04  2.23666E+04 -1.27177E+04  1.93291E+04  5.40970E+03
  6.98697E+03  1.43483E+04 -1.01639E+04  1.34145E+04 -1.74483E+04  2.29397E+03 -1.23946E+04 -1.10032E+04
 -2.45328E+02 -1.55946E+04  9.81329E+03 -1.23065E+04  1.08127E+04 -9.46617E+02  2.43995E+03  6.20030E+03
 -6.13240E+03  1.82604E+03 -6.57546E+03 -4.85507E+03 -1.06097E+03 -1.37260E+04  1.06765E+04 -1.49076E+04
  1.79395E+04 -6.60341E+03  1.85449E+04  3.57151E+03  1.58098E+04  1.32085E+04  7.12806E+03  2.18063E+04
 -3.92021E+03  2.21522E+04 -1.51616E+04  1.38322E+04 -1.59090E+04  4.42132E+03 -1.26677E+04 -3.31840E+03
 -5.82414E+03 -6.15368E+03 -1.40031E+02  2.41504E+03 -1.89367E+03  2.84984E+03 -5.10164E+03  4.89492E+03
 -1.11565E+04  2.72002E+01 -1.15410E+04 -9.22082E+03 -4.72066E+03 -1.61605E+04  5.01676E+03 -1.25699E+04
  9.52503E+03 -4.79403E+03  6.80406E+03  3.27433E+03 -5.44531E+02  4.48782E+03 -5.14329E+03 -1.00394E+02
 -5.59272E+03 -7.52419E+03 -9.13193E+02 -1.09496E+04  6.03947E+03 -1.13314E+04  1.63583E+04 -5.19967E+03
  1.78158E+04  2.28255E+03  1.27825E+04  1.06602E+04  1.53113E+02  1.32598E+04 -7.10507E+03  1.15658E+04
 -9.36214E+03  4.14861E+03 -3.51742E+03 -2.73848E+03  1.74789E+03 -3.71560E+03  5.51905E+03 -1.21717E+03
  6.76581E+03  5.06395E+03 -6.97027E+02  7.68162E+03 -5.51161E+03  8.97948E+03 -1.16141E+04  1.58555E+03
 -8.23946E+03 -4.66343E+03  1.60707E+03 -1.02354E+04  5.40649E+03 -5.74857E+03  5.90482E+03  2.48620E+03
  2.61626E+03  5.22545E+03 -6.72024E+03  7.38768E+03 -9.72413E+03  3.10066E+03 -8.44420E+03 -3.64500E+03
 -3.49849E+03 -1.12875E+04  1.65900E+03 -1.26720E+04  1.03913E+04 -8.09656E+03  1.09618E+04  2.47916E+03
  7.84680E+03  8.49123E+03 -1.11859E+03  1.18488E+04 -9.21801E+03  5.90980E+03 -8.51386E+03 -1.09583E+03
 -7.12299E+03 -7.37266E+03 -5.78973E+02 -9.08416E+03  3.28591E+03 -6.64612E+03  5.39466E+03 -3.41674E+03
  2.50225E+03  1.88337E+03 -6.81672E+01  2.23146E+03 -5.45622E+02 -2.25877E+03  1.15071E+03 -3.11485E+03
  7.59973E+03 -3.32587E+03  8.74630E+03  1.54354E+03  1.04877E+04  5.95548E+03  7.37041E+03  1.33671E+04
 -3.22386E+03  1.67342E+04 -1.37508E+04  1.16843E+04 -1.75829E+04  2.27664E+03 -1.33655E+04 -6.28810E+03
 -7.25526E+03 -1.21893E+04  9.55884E-01 -9.24063E+03  2.36806E+03 -5.51293E+03  2.22512E+03 -4.03171E+03
  1.80186E+03 -1.57721E+03  3.06223E+03 -3.02440E+03  4.36275E+03 -2.24553E+03  5.71120E+03 -2.84245E+02
  8.37098E+03  4.78105E+02  2.95006E+03  3.41912E+03 -9.31047E+02  5.95059E+03 -7.20545E+03  4.80175E+03
 -8.91840E+03 -1.22421E+02 -6.71201E+03 -6.14193E+03 -7.03648E+02 -9.20152E+03  6.20434E+03 -9.64768E+03
  1.07290E+04 -5.42121E+03  1.30142E+04  3.42150E+02  7.87975E+03  7.88227E+03  2.39437E+03  1.06372E+04
 -5.14706E+03  8.79259E+03 -7.10845E+03  1.74368E+03 -5.01249E+03 -1.21247E+03  2.90816E+02 -1.61030E+03
  2.94764E+02  7.59207E+02 -1.58275E+03  1.91678E+03 -5.44073E+03  1.32411E+03 -6.25079E+03 -7.51059E+02
 -4.93974E+03 -6.72215E+03  6.33740E+02 -8.85964E+03  5.93551E+03 -8.28124E+03  7.61244E+03 -4.27698E+03
  8.22385E+03  4.20506E+03  3.70042E+03  8.11907E+03 -2.72865E+03  9.19470E+03 -6.09806E+03  7.25408E+03
 -7.99570E+03  7.03584E+02 -6.45110E+03 -5.00495E+03 -1.11582E+03 -8.40356E+03  3.66402E+03 -5.03554E+03
  5.23120E+03 -2.82188E+03  4.14395E+03  7.49989E+02 -6.04164E+02  3.25925E+03  3.02582E+02  1.42242E+03
  1.14401E+03  1.05390E+03  2.26648E+03  1.62537E+03  6.76484E+02  3.08417E+03  2.02715E+03  4.77984E+03
 -3.21202E+03  7.03531E+03 -6.02619E+03  7.26078E+03 -8.94656E+03  2.38397E+03 -8.71442E+03 -3.79122E+03
 -5.55983E+03 -8.69348E+03  1.74892E+03 -9.29420E+03  5.48116E+03 -6.08987E+03  7.04720E+03 -1.66641E+03
  5.69574E+03  3.91643E+03 -3.91673E+01  6.11455E+03 -3.01275E+03  2.71297E+03 -3.08086E+03 -1.34884E+03
 -1.65398E+03 -2.95037E+03  2.82525E+03 -4.41757E+03  3.28516E+03 -2.70475E+03  3.39381E+03 -3.91762E+02
  1.98322E+03  2.17834E+03  1.55927E+03  1.11084E+03  3.22058E+02  1.64975E+03  1.97870E+03 -7.19939E+02
 -2.18113E+02  1.37112E+02  4.93804E+03  2.14346E+03  7.09609E+02  3.75766E+03  5.19172E+02  7.39636E+03
 -4.29807E+03  3.53863E+03 -4.37734E+03  9.13410E+01 -4.66527E+03 -7.19845E+02 -8.77583E+02 -3.15222E+03
  5.45915E+02 -3.93669E+03  3.00641E+03 -2.29310E+03  1.90176E+03  1.49908E+03 -1.76253E+03  1.99994E+03
 -1.47642E+03  1.61714E+03 -3.18971E+03 -1.87932E+03 -1.90300E+03 -4.48683E+03 -2.59456E+02 -4.31232E+03
  1.85998E+03 -2.56042E+03  3.80323E+03 -3.11751E+02  2.44322E+03  1.50432E+03  2.24063E+02  2.43301E+03
 -3.44333E+02  9.42218E+02 -1.94183E+03 -9.96734E+02  1.07601E+03 -2.77380E+03  4.15574E+03 -2.24582E+03
  3.29152E+03 -1.66583E+03  5.04858E+03  3.65982E+03  2.58410E+03  4.97549E+03  1.19281E+02  4.59664E+03
 -3.38102E+03  1.93741E+03 -3.92918E+03 -1.03940E+02 -1.98693E+03 -2.04445E+03  1.32644E+03 -2.84285E+03
  3.26118E+03 -1.95783E+03  3.94380E+03  1.39891E+03  2.42156E+03  2.76115E+03 -3.45749E+01  2.98086E+03
 -2.08985E+03  9.82079E+02 -1.77614E+03  3.42636E+02 -5.86685E+02  8.53592E+01 -5.28318E+02  1.47489E+03
 -8.88731E+02  7.42216E+02 -4.64169E+03  2.21853E+03 -4.94353E+03  7.77089E+02 -6.01448E+03 -3.41840E+03
 -2.46185E+03 -6.16813E+03  1.30542E+03 -8.20929E+03  4.66039E+03 -5.18001E+03  7.92610E+03 -2.77834E+03
  6.25559E+03  4.20343E+02  4.20136E+03  4.67786E+03  1.14104E+03  4.57426E+03 -2.10205E+03  3.43995E+03
 -1.35692E+03  3.09938E+02 -2.28160E+03 -1.40394E+03 -4.01002E+02 -1.22180E+02 -1.17374E+03  1.37214E+02
 -1.48248E+03 -4.90066E+02 -2.02263E+02 -1.37378E+03  3.43389E+02 -1.68226E+03 -1.31934E+03 -1.95680E+03
  2.08637E+03 -6.51380E+02  2.76951E+03 -1.27387E+02  1.67531E+03  4.44322E+03  1.46172E+02  4.07576E+03
 -2.33882E+03  5.12264E+03 -4.31924E+03  3.62021E+03 -6.32752E+03 -4.62203E+02 -4.09966E+03 -5.72705E+03
 -2.50548E+03 -5.45143E+03  1.68046E+03 -4.58282E+03  2.82374E+03 -2.26473E+03  3.59733E+03  8.39154E+02
  2.71884E+03  9.21890E+02  5.73556E+02  1.19300E+03 -1.26509E+03 -1.02230E+02  3.13075E+02 -1.76707E+03
  2.10430E+03 -2.62735E+02  1.62189E+03  9.24049E+01  8.18478E+02  3.97861E+02 -4.60840E+02  1.72146E+03
 -2.07518E+03  2.40039E+03 -3.97264E+03  1.03758E+03 -3.39027E+03 -2.02656E+03  6.77901E+02 -4.21016E+03
  1.28118E+03 -2.31661E+03  2.54272E+03  7.65527E+02  3.15795E+03 -5.59862E+02  1.19938E+03  2.66034E+03
  5.47460E+02  2.95193E+03 -8.57130E+02  1.50434E+03 -1.77861E+03  2.17736E+03 -1.62189E+03  1.27467E+03
 -5.75456E+02  1.18973E+03 -1.18475E+03  1.66921E+03 -3.02395E+02 -7.85029E+02 -2.96504E+03 -1.33152E+03
 -2.89468E+03 -1.37116E+03 -7.08399E+02 -2.70614E+03  1.78460E+03 -3.59716E+03  1.68197E+03 -1.92175E+03
  3.36011E+03 -1.01136E+03  1.89567E+03  2.04367E+03 -6.97530E+02  2.20932E+03 -2.42955E+03  2.57574E+03
