 $NMID ID='MM_0lb_SNR200_16hz_g40_65.RAW', FMTDAT='(8E13.5)'
 TRAMP=1., VOLUME=1. $END
  3.09248E+05  1.53485E+03  3.37366E+05  2.50228E+05  8.43600E+04  3.36509E+05 -1.31965E+05  2.50631E+05
 -1.89610E+05  8.33906E+04 -1.11300E+05 -3.27573E+04  1.88596E+03 -4.96963E+04  5.41534E+04  1.25930E+01
  3.58055E+04  5.25314E+04 -1.81458E+04  7.52986E+04 -5.91980E+04  6.41081E+04 -8.32912E+04  3.18175E+04
 -7.99345E+04 -1.11178E+04 -5.65756E+04 -5.08550E+04 -1.53921E+04 -6.99612E+04  2.61757E+04 -4.39144E+04
  3.90960E+04  4.00114E+03  1.64329E+04  4.67118E+04 -3.42328E+04  4.62577E+04 -6.60642E+04 -7.82628E+02
 -5.22150E+04 -5.61265E+04 -7.76881E+03 -7.57700E+04  3.31989E+04 -5.38061E+04  4.57128E+04 -1.63056E+04
  4.18655E+04  1.19574E+04  3.07205E+04  2.50914E+04  1.74887E+04  2.82925E+04 -5.42276E+03  2.65670E+04
 -2.02917E+04  1.21858E+04 -1.84221E+04 -4.78455E+03  5.04538E+03 -8.11589E+03  2.00639E+04  1.19302E+04
  7.83418E+03  3.49791E+04 -2.97072E+04  3.34039E+04 -6.24860E+04  1.40758E+03 -5.62388E+04 -4.16731E+04
 -1.33796E+04 -6.07925E+04  3.95453E+04 -4.29358E+04  5.75127E+04 -2.84355E+03  3.26955E+04  3.18445E+04
 -6.97179E+03  3.40000E+04 -2.82217E+04  1.43169E+04 -2.91647E+04 -5.85947E+03 -1.45809E+04 -1.06930E+04
 -7.51166E+03 -1.13214E+04 -2.42776E+03 -1.71306E+04  7.02301E+03 -2.27456E+04  1.35278E+04 -1.40408E+04
  1.18632E+04  4.55412E+03 -7.11495E+03  1.27912E+04 -1.93872E+04 -3.77289E+03 -7.86655E+03 -3.14485E+04
  2.05913E+04 -4.08690E+04  4.59185E+04 -1.92838E+04  4.26679E+04  1.91730E+04  1.43989E+04  4.13752E+04
 -1.63471E+04  3.08771E+04 -2.41206E+04  1.97316E+03 -8.43426E+03 -2.78664E+04  2.05849E+04 -3.13597E+04
  3.86524E+04 -8.61258E+03  3.26160E+04  2.30035E+04  1.65456E+04  4.28307E+04 -6.97723E+03  4.55568E+04
 -3.00375E+04  3.00955E+04 -3.97714E+04  8.14685E+03 -3.98682E+04 -1.55493E+04 -2.14533E+04 -3.44572E+04
  8.03853E+03 -3.56717E+04  2.96293E+04 -1.32675E+04  2.70320E+04  1.03676E+04  4.38922E+03  1.82316E+04
 -1.41389E+04  8.59251E+03 -9.98568E+03 -7.31642E+03  5.79488E+03 -9.99072E+03  1.71492E+04  6.63296E+03
  1.27784E+04  2.17133E+04 -6.82887E+03  2.44816E+04 -2.27416E+04  1.00155E+04 -2.65468E+04 -5.19505E+03
 -1.77023E+04 -1.69886E+04 -6.29260E+03 -1.79298E+04  3.02609E+03 -1.59626E+04  1.27626E+04 -1.53683E+04
  2.36326E+04 -1.22994E+04  2.79660E+04  1.93826E+03  2.14617E+04  1.80087E+04  5.26694E+03  3.37427E+04
 -1.67223E+04  2.86148E+04 -2.71140E+04  1.03265E+04 -1.98995E+04 -1.06938E+04 -4.43577E+03 -1.28407E+04
  2.27829E+03 -3.58182E+03 -3.30769E+03  6.48003E+03 -1.37196E+04  4.35760E+03 -1.48997E+04 -6.72476E+03
 -9.86115E+03 -1.75153E+04  5.42403E+03 -2.01237E+04  1.37259E+04 -1.50640E+04  1.58996E+04 -1.89563E+03
  9.82946E+03  1.15452E+04 -1.72424E+02  1.70875E+04 -1.13273E+04  9.31405E+03 -1.64432E+04 -4.14048E+03
 -1.21883E+04 -1.55090E+04 -1.80856E+03 -2.04197E+04  9.58647E+03 -1.64710E+04  1.62863E+04 -6.51516E+03
  1.56813E+04  1.10979E+03  1.23658E+04  4.90113E+03  6.62349E+03  9.48300E+02  9.32279E+03 -2.52251E+03
  1.45114E+04  3.49794E+03  1.57357E+04  1.38113E+04  1.14618E+04  2.64838E+04 -3.10210E+03  2.90971E+04
 -1.76537E+04  2.26077E+04 -2.72263E+04  1.11789E+04 -2.75247E+04 -5.06533E+02 -2.38550E+04 -1.74259E+04
 -1.07140E+04 -2.24606E+04  7.71965E+03 -2.14981E+04  1.83916E+04 -1.12088E+04  1.70617E+04  6.06066E+03
  7.34630E+03  1.30175E+04 -8.34357E+03  1.07441E+04 -1.48683E+04  1.36856E+03 -1.11623E+04 -9.40712E+03
 -6.02316E+02 -1.32113E+04  5.88468E+03 -9.54836E+03  8.70236E+03 -2.46006E+03  2.06668E+03  4.92530E+03
 -5.51681E+03  1.87743E+03 -5.35190E+03 -4.36143E+03  1.18785E+03 -1.11594E+04  8.18349E+03 -1.17322E+04
  1.35855E+04 -5.54200E+03  1.29137E+04  2.58345E+03  1.26892E+04  1.17304E+04  5.76883E+03  1.63370E+04
 -9.92429E+02  1.77358E+04 -1.06702E+04  1.17903E+04 -1.38817E+04  3.64330E+03 -9.82675E+03 -2.43766E+03
 -4.78637E+03 -4.15814E+03 -1.39090E+03  2.09095E+03 -3.37310E+03  2.40520E+03 -3.19020E+03  4.00811E+03
 -9.39785E+03 -1.25308E+03 -9.56090E+03 -8.37071E+03 -3.64734E+03 -1.33556E+04  4.94990E+03 -9.70641E+03
  8.71780E+03 -4.43648E+03  6.74490E+03  2.14213E+03  5.49304E+01  3.20665E+03 -3.07731E+03  1.28704E+03
 -4.65982E+03 -6.32358E+03 -1.81006E+03 -7.48916E+03  3.99528E+03 -9.61876E+03  1.08531E+04 -5.30152E+03
  1.37646E+04  1.63856E+03  9.70747E+03  7.84007E+03  1.29537E+03  1.08284E+04 -5.36784E+03  1.04294E+04
 -9.74618E+03  3.20109E+03 -3.54155E+03 -1.72197E+03  7.40150E+02 -2.94997E+03  5.38918E+03 -3.39880E+02
  4.33317E+03  4.80829E+03  1.10993E+03  7.57014E+03 -5.04698E+03  7.01324E+03 -8.30741E+03  1.24634E+03
 -5.64483E+03 -3.41168E+03 -1.90853E+02 -7.59858E+03  4.29271E+03 -3.25473E+03  3.24004E+03  1.09639E+03
  1.44867E+02  3.73058E+03 -4.73283E+03  6.56907E+03 -6.49961E+03  1.92251E+03 -5.42482E+03 -1.88136E+03
 -3.47685E+03 -7.02281E+03  8.51821E+02 -7.88862E+03  7.92798E+03 -6.27894E+03  8.29627E+03  1.40776E+03
  5.07349E+03  7.15629E+03  1.22503E+03  8.44008E+03 -6.43102E+03  4.27257E+03 -5.36437E+03 -6.24625E+02
 -6.58026E+03 -6.18693E+03 -1.19657E+03 -5.09287E+03  2.85273E+03 -5.97694E+03  4.43981E+03 -3.40141E+03
  3.24073E+03  3.33017E+02  1.30163E+02  9.51525E+02  9.45707E+02 -3.88589E+02  3.66783E+02 -2.62163E+03
  4.51647E+03 -6.80559E+02  6.77021E+03 -1.79250E+02  7.44417E+03  4.32612E+03  6.07025E+03  8.22109E+03
 -2.51398E+03  1.06604E+04 -9.00879E+03  8.66947E+03 -1.15449E+04  2.41776E+03 -9.77221E+03 -3.39028E+03
 -4.97689E+03 -8.32511E+03 -1.27511E+02 -6.89827E+03  2.24236E+03 -2.77646E+03  3.42727E+03 -2.51333E+03
  1.85317E+03 -1.93509E+03  1.98187E+03 -1.70858E+03  4.26768E+03 -1.82383E+03  4.81872E+03 -1.04516E+02
  4.44606E+03  1.22903E+03  2.04782E+03  3.09535E+03 -8.46692E+02  4.23629E+03 -5.05651E+03  2.29802E+03
 -6.12132E+03 -2.31787E+03 -2.69812E+03 -4.77478E+03 -1.19325E+02 -6.66743E+03  3.92134E+03 -6.14076E+03
  7.49391E+03 -3.38897E+03  8.16899E+03 -4.32102E+02  7.98538E+03  6.44950E+03  1.21695E+03  8.03381E+03
 -2.82616E+03  7.90717E+03 -3.91859E+03  3.21244E+03 -2.29507E+03 -5.28097E+02 -1.23775E+03 -9.97327E+02
 -3.86085E+02  1.43762E+03 -6.98521E+02  2.90386E+03 -2.69647E+03  1.11259E+03 -5.44292E+03 -4.28321E+02
 -2.10991E+03 -4.44958E+03 -2.29336E+02 -6.39247E+03  3.95949E+03 -5.33925E+03  4.71267E+03 -1.39022E+03
  5.55753E+03  3.24515E+03  3.27698E+03  4.48272E+03 -1.90109E+03  6.37487E+03 -3.46838E+03  4.54107E+03
 -5.37091E+03  9.82216E+02 -5.22785E+03 -3.22639E+03 -6.50346E+01 -4.41647E+03  1.91915E+03 -3.60264E+03
  3.83374E+03 -6.94646E+02  2.72725E+03  1.01092E+03  2.15633E+02  1.95035E+03  2.82719E+02 -8.76752E+01
  2.40255E+03  6.99018E+02  1.80921E+03  2.11100E+03  1.05905E+03  3.04892E+03  1.24948E+03  3.29044E+03
 -2.09685E+03  4.15351E+03 -4.27395E+03  5.13679E+03 -4.60525E+03  2.95479E+03 -5.93524E+03  1.28331E+01
 -2.73757E+03 -5.30264E+03  8.89185E+02 -6.86143E+03  2.58579E+03 -4.22370E+03  4.40031E+03 -1.13010E+03
  3.32284E+03  1.82978E+03  9.67761E+02  2.96436E+03 -1.56704E+03  2.51427E+03 -4.00699E+02 -1.39249E+03
 -7.21780E+02 -2.58083E+03  2.19769E+03 -1.13926E+03  1.66460E+03 -9.78898E+02  3.05088E+03  7.41387E+02
  2.05800E+01  2.54358E+02  3.93022E+02 -1.75110E+02 -6.43915E+02  1.51761E+03  1.31340E+03 -1.53701E+02
  4.43591E+02 -4.51794E+02  2.21650E+03  1.54321E+03  1.28124E+03  3.21552E+03 -5.98231E+02  3.91264E+03
 -2.61411E+03  6.96292E+02 -2.46472E+03  5.34067E+02 -2.98395E+03 -1.23224E+03 -1.08122E+03 -1.98194E+03
 -1.46074E+02 -1.34585E+03  1.86061E+03 -5.59773E+02  1.58568E+03  1.72113E+03 -7.04999E+02  2.59305E+03
 -2.56247E+03  2.41017E+03 -2.65398E+03  3.19104E+02 -7.97857E+02 -2.76652E+03  1.25608E+03 -1.65130E+03
  4.47305E+02 -1.30409E+03  1.41566E+03  9.91707E+02  1.81942E+02 -6.55080E+02  4.03045E+02  1.39759E+03
 -1.94887E+02  6.20493E+02 -1.39490E+03 -9.77315E+02  5.61244E+02 -2.60204E+03  2.06126E+03 -2.58677E+03
  1.91979E+03 -9.47155E+02  3.82680E+03  1.44663E+03  2.60442E+03  3.25679E+03 -9.99783E+02  3.35270E+03
 -2.38820E+03  1.72881E+03 -2.37894E+03 -4.27266E+01 -1.56246E+03 -2.15097E+03  2.40091E+02 -7.39385E+02
  2.94638E+03 -2.44569E+02  1.61467E+03  1.42678E+03  8.85409E+02  1.44535E+03 -2.15510E+01  4.43898E+02
 -1.61804E+03  1.93216E+03 -1.63110E+03  3.04564E+01 -4.18178E+02  4.65265E+02 -1.58530E+02  6.23847E+02
 -1.42186E+03  8.83716E+02 -2.64144E+03  9.36185E+02 -3.73823E+03  5.30562E+02 -3.32116E+03 -2.24867E+03
 -3.03044E+03 -4.13701E+03  8.20409E+02 -3.74305E+03  1.33195E+03 -3.53537E+03  5.49432E+03 -9.95383E+02
  4.38716E+03 -9.38318E+01  2.15823E+03  2.86433E+03 -1.03196E+03  2.38538E+03 -1.93673E+02  1.98244E+03
 -2.54255E+03  8.91622E+02 -2.16230E+03 -2.30819E+02 -1.43375E+03 -4.13921E+02 -2.09140E+02  1.16347E+02
 -1.90851E+03 -7.26612E+02 -1.07759E+03 -9.43314E+01 -5.46258E+02 -5.02322E+02 -7.26471E+02 -5.44589E+02
  1.90839E+03 -1.27290E+03  1.20387E+03 -1.98878E+02  2.35277E+03  8.24591E+02  3.32992E+02  2.42952E+03
 -1.32933E+03  3.26027E+03 -1.72110E+03  2.15478E+03 -4.82536E+03 -1.25035E+03 -1.76715E+03 -2.45649E+03
 -2.38451E+03 -2.80531E+03  6.84606E+02 -1.67077E+03  1.29598E+03 -1.76372E+03  7.11626E+02  2.45339E+01
  4.63342E+01  1.42363E+03 -6.03640E+01  7.19485E+02  2.45313E+02  2.25434E+02 -2.02461E+02 -8.99191E+02
  5.89313E+02 -9.57316E+02  5.45775E+02  4.03699E+02  2.84872E+02  1.12089E+03  1.61814E+03  1.02752E+03
 -1.79893E+03  1.23497E+03 -1.57899E+03  3.13790E+02 -1.04297E+03 -1.25589E+03  8.04163E+02 -2.28911E+03
  1.21911E+03 -2.08615E+03  2.09609E+03  2.60613E+02  1.50764E+03  8.77516E+01  1.55093E+03  9.42815E+02
  5.61256E+02  6.81513E+02 -1.06094E+03  1.98917E+03 -1.97398E+03  1.00304E+03 -5.18498E+01 -5.80237E+01
 -2.48758E+02 -3.89473E+02 -1.31768E+03 -5.49488E+02 -1.17812E+03  5.80487E+02 -9.14005E+02 -4.07685E+02
 -1.53152E+03  4.58207E+02 -1.17491E+02 -1.16174E+03  1.10762E+03 -1.49199E+03  9.39290E+02 -6.11875E+02
  1.82814E+03 -2.81804E+02 -1.88501E+02  1.47911E+03  2.60617E+02  2.18036E+03 -1.02651E+03  1.45032E+02
