 $NMID ID='MM_0lb_SNR200_17hz_g45_45.RAW', FMTDAT='(8E13.5)'
 TRAMP=1., VOLUME=1. $END
  3.10405E+05  9.37562E+02  3.38657E+05  2.50222E+05  8.40008E+04  3.36994E+05 -1.32099E+05  2.50806E+05
 -1.90138E+05  8.35045E+04 -1.10744E+05 -3.22700E+04  1.61062E+03 -5.04652E+04  5.39184E+04 -9.78194E+02
  3.54759E+04  5.34484E+04 -1.77290E+04  7.55147E+04 -6.05978E+04  6.38945E+04 -8.33700E+04  3.20264E+04
 -7.92439E+04 -1.11089E+04 -5.59896E+04 -5.01036E+04 -1.60123E+04 -6.95444E+04  2.69559E+04 -4.43061E+04
  3.92700E+04  4.31092E+03  1.55218E+04  4.70850E+04 -3.28887E+04  4.60242E+04 -6.54529E+04  2.87441E+02
 -5.22104E+04 -5.66128E+04 -6.65096E+03 -7.56120E+04  3.40125E+04 -5.34978E+04  4.66143E+04 -1.67361E+04
  4.14386E+04  1.07715E+04  3.10330E+04  2.29620E+04  1.59487E+04  2.88263E+04 -3.71496E+03  2.58617E+04
 -2.06340E+04  1.36358E+04 -1.85594E+04 -5.17794E+03  4.52930E+03 -7.00867E+03  2.13548E+04  1.23205E+04
  6.30479E+03  3.40493E+04 -3.13764E+04  3.49860E+04 -6.04043E+04  3.18029E+03 -5.54410E+04 -4.29154E+04
 -1.26847E+04 -6.16240E+04  3.86466E+04 -4.32192E+04  5.64774E+04 -1.92060E+03  3.31125E+04  3.07771E+04
 -5.82029E+03  3.36595E+04 -2.82161E+04  1.49100E+04 -2.79172E+04 -6.30511E+03 -1.47169E+04 -1.03103E+04
 -7.59398E+03 -1.16951E+04 -7.52592E+02 -1.67119E+04  7.06589E+03 -2.16733E+04  1.58617E+04 -1.39832E+04
  1.28736E+04  4.39939E+03 -7.61827E+03  1.35066E+04 -2.02888E+04 -3.12978E+03 -7.69755E+03 -3.06979E+04
  2.04691E+04 -4.14474E+04  4.64840E+04 -1.94851E+04  4.21332E+04  1.72798E+04  1.56927E+04  4.34217E+04
 -1.65815E+04  3.18804E+04 -2.47081E+04  1.55605E+03 -9.08398E+03 -2.61525E+04  2.17927E+04 -3.24021E+04
  3.85089E+04 -8.21168E+03  3.23272E+04  2.28145E+04  1.54394E+04  4.44716E+04 -8.26563E+03  4.68177E+04
 -2.91064E+04  3.00164E+04 -3.90680E+04  7.79812E+03 -3.87901E+04 -1.54949E+04 -2.23481E+04 -3.47336E+04
  6.52222E+03 -3.50472E+04  2.99452E+04 -1.27399E+04  2.61981E+04  1.11145E+04  3.37249E+03  1.74456E+04
 -1.27420E+04  7.47854E+03 -1.00236E+04 -7.60877E+03  6.69003E+03 -1.09371E+04  1.69809E+04  5.91195E+03
  1.24234E+04  2.12296E+04 -6.73058E+03  2.47691E+04 -2.19169E+04  9.65148E+03 -2.59874E+04 -6.23827E+03
 -1.61620E+04 -1.69560E+04 -7.21337E+03 -1.77746E+04  2.97502E+03 -1.58130E+04  1.22543E+04 -1.54192E+04
  2.19085E+04 -1.15154E+04  2.86759E+04  1.24292E+03  2.19960E+04  1.82144E+04  4.09076E+03  3.29311E+04
 -1.63284E+04  2.73941E+04 -2.73759E+04  9.47899E+03 -2.03385E+04 -1.08520E+04 -4.07586E+03 -1.43762E+04
  2.71765E+03 -3.80948E+03 -4.34241E+03  6.20956E+03 -1.43564E+04  5.35590E+03 -1.45645E+04 -4.96344E+03
 -8.41636E+03 -1.64782E+04  3.94985E+03 -1.99177E+04  1.36708E+04 -1.53731E+04  1.53740E+04 -1.56179E+03
  8.41507E+03  1.10748E+04 -7.48738E+02  1.50009E+04 -1.12040E+04  9.06548E+03 -1.72231E+04 -2.97631E+03
 -1.17201E+04 -1.47176E+04 -2.28604E+03 -1.97649E+04  8.82901E+03 -1.58683E+04  1.73006E+04 -7.21204E+03
  1.57763E+04 -5.03107E+02  1.12741E+04  4.45763E+03  5.81185E+03  6.98254E+02  8.52739E+03 -1.58735E+03
  1.54399E+04  2.69774E+03  1.47522E+04  1.36142E+04  1.04249E+04  2.71326E+04 -3.74533E+03  2.89290E+04
 -1.68920E+04  2.13948E+04 -2.64415E+04  1.12188E+04 -2.68268E+04 -1.29772E+03 -2.25336E+04 -1.61306E+04
 -1.17492E+04 -2.28752E+04  9.15306E+03 -2.09136E+04  1.74975E+04 -1.00275E+04  1.70407E+04  4.68988E+03
  6.64920E+03  1.26267E+04 -8.01736E+03  1.16411E+04 -1.42637E+04  1.90822E+03 -1.13639E+04 -7.88606E+03
  6.08640E+02 -1.40492E+04  5.74585E+03 -9.81919E+03  8.83431E+03 -8.74472E+02  1.38319E+03  6.78411E+03
 -5.37795E+03  1.87742E+03 -4.68086E+03 -4.97502E+03  3.28188E+02 -1.21945E+04  8.35023E+03 -1.12514E+04
  1.28294E+04 -5.66984E+03  1.36905E+04  2.45336E+03  1.13992E+04  1.05764E+04  5.09222E+03  1.51408E+04
 -1.65458E+03  1.70949E+04 -1.10085E+04  1.11975E+04 -1.12726E+04  3.55717E+03 -9.35713E+03 -6.81380E+02
 -4.06849E+03 -3.70598E+03 -1.29379E+03  7.32244E+02 -1.31644E+03  2.69889E+03 -3.66973E+03  3.94435E+03
 -8.79964E+03 -9.23260E+02 -9.81521E+03 -7.70058E+03 -3.57158E+03 -1.31438E+04  3.51431E+03 -9.77336E+03
  8.26028E+03 -3.87280E+03  5.73311E+03  3.17174E+03  1.89923E+03  4.42445E+03 -5.16818E+03  1.21853E+03
 -3.28469E+03 -6.20300E+03 -1.58870E+03 -9.25603E+03  4.68226E+03 -9.73303E+03  1.13729E+04 -5.48982E+03
  1.23678E+04 -5.80532E+02  9.24757E+03  7.20942E+03  1.89638E+03  9.95140E+03 -5.80656E+03  8.92163E+03
 -7.81358E+03  3.90412E+03 -3.59051E+03 -1.98026E+03  1.36240E+03 -2.43615E+03  4.81826E+03 -5.03590E+02
  4.68507E+03  3.71644E+03  1.35295E+03  7.30251E+03 -5.20941E+03  7.28777E+03 -8.42159E+03  1.72615E+03
 -6.16384E+03 -2.25274E+03 -8.57063E+02 -7.11831E+03  4.59350E+03 -4.68754E+03  4.32740E+03  5.18715E+02
  9.94134E+02  3.77178E+03 -4.74466E+03  3.89997E+03 -6.23979E+03  1.41134E+03 -4.72966E+03 -8.81346E+02
 -3.18200E+03 -5.78018E+03  1.98382E+03 -8.22207E+03  6.45573E+03 -5.79579E+03  7.21756E+03  4.02930E+02
  4.85785E+03  6.62998E+03 -5.09919E+02  8.52199E+03 -6.57895E+03  3.25992E+03 -6.35227E+03 -1.35921E+03
 -6.43270E+03 -5.46309E+03 -1.99429E+03 -5.39130E+03  2.58049E+03 -4.08354E+03  2.52077E+03 -3.03080E+03
  3.23334E+03  9.25897E+02 -1.60828E+02  1.38495E+03  1.07248E+03  7.21760E+02  1.11263E+03 -1.95626E+03
  5.00787E+03 -2.92589E+03  6.50452E+03  1.89653E+03  5.22081E+03  3.19153E+03  4.78991E+03  8.37925E+03
 -2.23665E+03  1.01540E+04 -8.04449E+03  8.14781E+03 -9.98678E+03  1.24782E+03 -9.53201E+03 -2.73988E+03
 -4.69565E+03 -7.90072E+03 -1.07850E+02 -6.07771E+03  3.24872E+03 -2.66655E+03  1.44665E+03 -2.34619E+03
  1.64167E+03 -1.97725E+03  2.59751E+03 -3.02765E+03  3.14145E+03 -2.52555E+03  4.32156E+03  4.05125E+02
  4.44369E+03  5.71034E+02  1.23768E+03  3.33156E+03 -1.75294E+03  3.65147E+03 -5.16343E+03  3.28288E+03
 -5.87667E+03 -1.92165E+03 -2.19657E+03 -3.81756E+03 -4.68715E+02 -6.32542E+03  4.80890E+03 -5.45425E+03
  6.90422E+03 -4.24498E+03  6.89175E+03  1.24796E+03  6.09011E+03  4.34964E+03  5.79907E+02  7.49222E+03
 -3.58723E+03  7.37486E+03 -3.82831E+03  1.82796E+03 -2.87008E+03 -6.61782E+02 -6.33098E+02 -1.38378E+03
 -1.27692E+03  3.93473E+02 -1.35968E+03  2.35952E+03 -2.29132E+03  1.21269E+03 -4.86562E+03 -3.05031E+02
 -2.61430E+03 -4.92144E+03  3.97278E+02 -3.24323E+03  3.21023E+03 -5.01821E+03  3.75967E+03 -9.51176E+02
  5.21988E+03  3.12879E+03  2.83017E+03  3.40290E+03 -3.98843E+02  5.78403E+03 -3.79415E+03  3.61375E+03
 -3.89136E+03  9.58531E+02 -3.98719E+03 -2.27440E+03  5.49286E+02 -4.33205E+03  1.48893E+03 -3.14425E+03
  3.03679E+03 -1.32117E+03  2.25460E+03  6.96517E+02 -4.79533E+02  2.80501E+03  1.54646E+03  8.78067E+02
  3.15700E+03  1.53592E+03  1.09280E+03  5.47760E+02  1.87210E+03  2.38668E+03  2.19124E+03  1.00147E+03
 -2.11368E+03  3.87722E+03 -4.20937E+03  4.28630E+03 -4.27450E+03  3.15519E+03 -4.71059E+03 -1.36587E+02
 -1.44260E+03 -4.61581E+03  1.50712E+03 -4.94202E+03  2.98582E+03 -2.38023E+03  4.21081E+03  2.27959E+01
  3.10792E+03  3.72168E+03  1.49560E+02  3.15889E+03 -9.04712E+02  1.84454E+03 -1.51095E+03 -1.08599E+03
 -1.22566E+03 -1.51371E+03  1.32686E+03 -1.47033E+03  1.02077E+03 -1.62010E+03  2.31894E+03  8.08966E+02
  2.61449E+02 -1.87412E+02  1.83562E+03 -2.13962E+02 -1.09685E+03  1.02208E+03  1.44377E+03 -4.57462E+02
 -5.69858E+01 -1.77389E+02  1.19942E+03  7.95363E+02 -7.93076E+02  3.84938E+03  6.48553E+02  4.03082E+03
 -9.56146E+02  1.00201E+03 -1.42698E+03  1.44168E+03 -2.03233E+03 -1.52293E+03 -1.14991E+03 -1.62079E+03
  1.64495E+02 -1.81664E+03  1.19327E+03 -5.78187E+02  1.41212E+03  5.26295E+02 -8.92769E+02  8.23305E+02
 -2.68909E+03  1.17243E+03 -1.56577E+03 -1.66258E+03 -1.83672E+03 -2.43613E+03  1.74864E+02 -2.19595E+03
  1.23027E+03 -1.23417E+03  1.00023E+03 -3.50253E+02  1.66541E+03  7.63095E+01  8.18141E+02  1.75373E+03
 -1.11408E+03  9.12120E+02 -6.96762E+02 -1.17266E+03  1.55705E+02 -1.80644E+03  2.27075E+03 -7.72943E+02
  1.88144E+03  3.52770E+02  2.50259E+03  3.37886E+02  1.16042E+03  1.04771E+03 -1.16598E+03  3.20389E+03
 -1.85147E+03  1.86920E+03 -1.98848E+03  2.19818E+02 -1.22187E+03 -2.18352E+03  4.25408E+02 -1.10857E+03
  1.84036E+03 -1.33713E+03  1.71097E+03  1.41571E+03  1.22389E+02  2.43786E+03  6.77707E+02  1.72752E+03
  1.50659E+02  8.51822E+02 -1.07205E+03  7.76891E+02  2.21611E+02  5.69367E+02 -9.95843E+02  1.25289E+03
 -1.48317E+02  1.85541E+03 -1.79087E+03  9.02944E+02 -2.13553E+03 -3.03523E+02 -3.17974E+03  6.64187E+02
 -1.46931E+03 -3.17866E+03  1.34388E+03 -3.98939E+03  1.37806E+03 -2.37804E+03  3.33861E+03 -1.19695E+03
  2.95286E+03  1.98089E+02  1.76723E+03  2.87933E+03 -2.85590E+01  1.56110E+03 -1.88963E+02  1.86871E+03
 -2.15689E+03  5.05043E+01 -1.94344E+03 -1.58122E+03  6.55858E+02 -4.00611E+02 -7.12317E+02  2.95173E+02
 -4.16008E+02  1.49792E+02 -1.02387E+03  4.52055E+02  1.10645E+02 -5.51746E+02  5.48661E+02 -1.28657E+03
  1.01017E+03 -6.76432E+01  1.04380E+03  9.83931E+02  2.37373E+03  1.09927E+03 -1.74271E+02  8.55195E+02
 -1.00837E+03  1.86493E+03 -1.16022E+03  1.42030E+03 -1.63029E+03  4.00633E+00 -2.57531E+03 -8.78631E+02
 -2.28329E+03 -2.34740E+03 -5.82385E+02 -1.00361E+03 -1.77194E+02 -2.93888E+01  1.23853E+03  1.49018E+01
  3.51881E+02  1.50842E+03  1.71572E+02  1.24575E+02 -6.34792E+02 -4.65975E+00  7.08478E+02  1.12902E+03
  5.03528E+02 -1.95055E+02  3.74639E+02  5.18798E+02  9.43977E+02  2.98425E+02  5.86868E+02  8.97219E+02
 -7.02886E+02  1.14143E+03 -1.31112E+03  8.53129E+02  1.65366E+02 -6.56219E+02  5.75478E+02 -1.92424E+03
  2.06118E+03 -1.07830E+03  5.23048E+02  1.78937E+02 -2.04651E+02 -6.32572E+02  1.72811E+02  9.72148E+02
  1.54275E+02  8.17816E+02  4.91597E+01  1.87554E+03 -1.08561E+03  6.41362E+02 -3.05770E+02  1.06839E+00
 -8.86872E+02  8.20208E+02 -1.06525E+03  5.28643E+02 -8.84078E+02  6.67639E+02 -1.61942E+03 -2.62655E+02
 -9.65092E+02  7.05507E+01 -1.98226E+02 -1.30465E+03  1.76643E+03 -2.31474E+03  1.54272E+03  9.40442E+01
  8.15692E+02  1.16073E+03 -1.87324E+02  4.93755E+02  3.83629E+02  1.60619E+03 -7.40624E+02  1.48747E+03
