 $NMID ID='MM_0lb_SNR200_15hz_g55_74.RAW', FMTDAT='(8E13.5)'
 TRAMP=1., VOLUME=1. $END
  3.08708E+05 -6.20480E+02  3.37308E+05  2.51347E+05  8.41200E+04  3.38315E+05 -1.32798E+05  2.49187E+05
 -1.90234E+05  8.27201E+04 -1.12466E+05 -3.29912E+04  2.18603E+02 -4.99085E+04  5.32815E+04 -1.15381E+03
  3.48080E+04  5.15438E+04 -1.64464E+04  7.66988E+04 -6.00168E+04  6.38332E+04 -8.37815E+04  3.25643E+04
 -8.05160E+04 -1.15191E+04 -5.77410E+04 -5.13702E+04 -1.41150E+04 -6.91524E+04  2.76537E+04 -4.52605E+04
  4.07043E+04  4.31567E+03  1.63743E+04  4.69084E+04 -3.45723E+04  4.70001E+04 -6.78881E+04  4.28107E+02
 -5.43229E+04 -5.74846E+04 -6.91892E+03 -7.70100E+04  3.50342E+04 -5.54542E+04  4.79693E+04 -1.70513E+04
  4.43445E+04  1.06615E+04  3.10016E+04  2.53485E+04  1.62179E+04  3.04079E+04 -5.68314E+03  2.71032E+04
 -2.37732E+04  1.28537E+04 -1.91315E+04 -6.57828E+03  6.44452E+03 -7.55747E+03  2.23050E+04  1.34584E+04
  6.67428E+03  3.47560E+04 -3.30915E+04  3.50599E+04 -6.20326E+04  1.35353E+03 -5.73444E+04 -4.24884E+04
 -1.31368E+04 -6.23390E+04  3.94242E+04 -4.55193E+04  5.88400E+04 -1.67199E+03  3.39223E+04  3.26345E+04
 -6.42165E+03  3.57407E+04 -2.96886E+04  1.46518E+04 -2.97727E+04 -4.76550E+03 -1.62429E+04 -1.20008E+04
 -9.98216E+03 -1.40151E+04 -7.23884E+02 -1.77727E+04  6.83966E+03 -2.21605E+04  1.56240E+04 -1.22208E+04
  1.15825E+04  5.70904E+03 -7.60657E+03  1.37122E+04 -2.16598E+04 -4.32197E+03 -8.58961E+03 -3.39600E+04
  2.20965E+04 -4.41132E+04  4.91806E+04 -1.89516E+04  4.57104E+04  1.83456E+04  1.58709E+04  4.49737E+04
 -1.70078E+04  3.35534E+04 -2.58741E+04  2.41525E+03 -9.55313E+03 -2.79725E+04  2.16701E+04 -3.43941E+04
  4.10460E+04 -8.76846E+03  3.57704E+04  2.36625E+04  1.64092E+04  4.67846E+04 -7.56382E+03  5.09711E+04
 -3.09727E+04  3.47649E+04 -4.19707E+04  8.52292E+03 -4.32294E+04 -1.61968E+04 -2.38737E+04 -3.68393E+04
  8.19450E+03 -3.85014E+04  3.13365E+04 -1.53627E+04  3.02398E+04  1.13620E+04  4.00306E+03  2.01518E+04
 -1.35090E+04  8.63721E+03 -1.00054E+04 -6.97145E+03  5.13103E+03 -9.82958E+03  1.80677E+04  5.69562E+03
  1.41254E+04  2.14514E+04 -5.44799E+03  2.52139E+04 -2.28915E+04  1.08627E+04 -2.82622E+04 -5.05793E+03
 -2.12529E+04 -1.75255E+04 -8.48587E+03 -1.96596E+04  3.98773E+03 -2.02002E+04  1.61945E+04 -1.84359E+04
  2.66769E+04 -1.34355E+04  3.15518E+04  2.58938E+03  2.29303E+04  1.90515E+04  4.23902E+03  3.73367E+04
 -1.71519E+04  3.07479E+04 -2.83508E+04  9.80329E+03 -2.10302E+04 -9.83933E+03 -4.62088E+03 -1.22383E+04
  2.26522E+03 -3.05830E+03 -5.45569E+03  7.30896E+03 -1.53225E+04  4.74997E+03 -1.56745E+04 -6.84853E+03
 -1.00133E+04 -1.79959E+04  5.86467E+03 -2.29767E+04  1.53807E+04 -1.72717E+04  1.71163E+04 -1.56313E+03
  1.14638E+04  1.39738E+04 -5.14017E+02  1.91140E+04 -1.27130E+04  1.07311E+04 -1.86792E+04 -3.19495E+03
 -1.27605E+04 -1.61129E+04 -2.34330E+03 -2.15437E+04  1.16883E+04 -1.98651E+04  1.95042E+04 -9.40050E+03
  1.71377E+04  4.28579E+02  1.31224E+04  5.65439E+03  7.05397E+03  8.49187E+02  9.82260E+03 -1.54950E+03
  1.68154E+04  3.85699E+03  1.92470E+04  1.59274E+04  1.15280E+04  3.02059E+04 -2.52124E+03  3.38872E+04
 -1.97993E+04  2.60200E+04 -3.17762E+04  1.35321E+04 -3.28049E+04 -3.51782E+03 -2.74610E+04 -1.97699E+04
 -1.19849E+04 -2.76667E+04  8.65729E+03 -2.37661E+04  2.06666E+04 -1.29353E+04  1.87522E+04  5.34958E+03
  8.21924E+03  1.30661E+04 -9.65325E+03  1.27188E+04 -1.58304E+04  2.40804E+03 -1.28487E+04 -9.01827E+03
 -5.39771E+02 -1.53719E+04  7.75908E+03 -1.17291E+04  1.04624E+04 -8.98338E+02  1.45153E+03  7.09010E+03
 -6.47300E+03  2.93770E+03 -5.68346E+03 -5.16729E+03 -1.04535E+03 -1.28559E+04  9.99371E+03 -1.41748E+04
  1.60776E+04 -6.75041E+03  1.78869E+04  2.71379E+03  1.55900E+04  1.43771E+04  6.90409E+03  1.91566E+04
 -3.42428E+03  2.06948E+04 -1.47492E+04  1.25319E+04 -1.67276E+04  4.75485E+03 -1.12226E+04 -3.68452E+03
 -6.08746E+03 -4.82366E+03 -1.04271E+03  1.92125E+03 -1.36219E+03  2.64468E+03 -5.90096E+03  5.62999E+03
 -1.16268E+04 -5.53474E+02 -1.17480E+04 -9.72750E+03 -4.91116E+03 -1.48777E+04  4.93188E+03 -9.80442E+03
  9.36233E+03 -4.53539E+03  6.35450E+03  3.57179E+03 -1.40473E+02  4.60989E+03 -4.82482E+03  4.22362E+02
 -4.64920E+03 -6.39466E+03 -2.02121E+03 -1.07449E+04  6.26383E+03 -1.19114E+04  1.30924E+04 -6.44992E+03
  1.63930E+04  1.37053E+03  1.07423E+04  9.00146E+03  2.36554E+03  1.31306E+04 -6.66637E+03  1.03863E+04
 -9.61516E+03  2.69848E+03 -4.78809E+03 -2.92234E+03  2.58381E+02 -3.74551E+03  4.60732E+03 -8.45228E+02
  6.46578E+03  4.18554E+03  1.22919E+03  7.78968E+03 -5.94496E+03  8.32434E+03 -1.06329E+04  1.81577E+03
 -6.91149E+03 -4.74255E+03 -2.01376E+03 -8.70195E+03  6.80493E+03 -4.75034E+03  5.00958E+03  1.38468E+03
  1.21521E+03  6.61933E+03 -5.73524E+03  6.71722E+03 -8.66415E+03  4.37763E+03 -7.13701E+03 -1.76044E+03
 -4.86755E+03 -9.55433E+03  3.09727E+03 -1.18300E+04  8.37581E+03 -5.94436E+03  1.06913E+04  2.56093E+03
  7.39859E+03  8.11784E+03 -5.94469E+02  1.01481E+04 -6.85936E+03  5.39661E+03 -8.44645E+03 -1.21009E+03
 -6.25271E+03 -5.60675E+03 -1.44673E+03 -8.26943E+03  4.05120E+03 -6.41378E+03  3.91880E+03 -3.12536E+03
  2.85062E+03  2.68566E+02 -1.64442E+02  1.01288E+03 -2.23064E+02 -4.82876E+01  2.33875E+01 -4.75190E+03
  7.53561E+03 -2.56682E+03  8.84494E+03  1.35384E+03  8.08288E+03  5.92493E+03  7.52425E+03  1.27580E+04
 -1.60434E+03  1.27219E+04 -1.28137E+04  9.33863E+03 -1.49572E+04  3.02211E+03 -1.12373E+04 -3.04204E+03
 -4.60756E+03 -9.52884E+03 -2.18710E+02 -7.36727E+03  3.25137E+03 -4.06413E+03  3.52651E+03 -3.10154E+03
  2.78113E+03 -1.98011E+03  2.54314E+03 -2.38932E+03  3.72805E+03 -2.25864E+03  5.15603E+03  6.77302E+02
  6.50707E+03  1.53336E+03  2.16340E+03  4.79582E+03 -1.90453E+02  5.29612E+03 -5.86299E+03  3.56924E+03
 -9.09833E+03 -1.91221E+03 -4.04512E+03 -6.00468E+03  1.21905E+02 -8.36485E+03  6.16599E+03 -9.45765E+03
  9.32209E+03 -5.35041E+03  1.03941E+04 -3.05073E+02  7.27105E+03  6.73762E+03  1.40694E+03  9.12798E+03
 -2.11300E+03  8.18351E+03 -5.28176E+03  2.64201E+03 -3.82570E+03 -1.05360E+03 -7.08845E+02 -3.25459E+02
 -6.31026E+02 -9.26945E+01 -4.33765E+02  2.98202E+03 -3.18109E+03  1.12673E+03 -5.48299E+03 -5.42376E+02
 -2.91388E+03 -5.06006E+03 -1.33948E+02 -8.07451E+03  5.06746E+03 -7.95370E+03  6.88839E+03 -1.12862E+03
  5.96596E+03  2.42703E+03  4.10919E+03  6.66780E+03 -9.00874E+02  7.59878E+03 -4.26335E+03  4.83125E+03
 -5.41728E+03  9.92466E+02 -5.96414E+03 -4.95009E+03 -6.96281E+02 -6.71084E+03  1.19204E+03 -4.19627E+03
  3.94228E+03 -1.96241E+03  3.87288E+03  3.76158E+02  1.27149E+03  3.01239E+03  1.61029E+03 -1.73980E+02
  1.96667E+03  1.39863E+03  1.16985E+03  2.35175E+03  2.15162E+03  2.18298E+03  2.59604E+03  2.34853E+03
 -1.45033E+03  5.31238E+03 -4.97249E+03  5.90524E+03 -6.77220E+03  9.25666E+02 -5.53657E+03 -2.85277E+03
 -4.11793E+03 -5.34866E+03  8.97265E+02 -8.53442E+03  3.13220E+03 -4.22335E+03  6.00742E+03 -8.91636E+02
  4.33523E+03  2.55888E+03  1.04880E+03  3.06949E+03 -1.53317E+03  2.38394E+03 -3.42794E+03 -7.37763E+02
 -2.67648E+03 -2.39784E+03  2.81719E+03 -2.63997E+03  2.57772E+03 -1.41393E+03  2.03797E+03  2.90742E+02
  2.53489E+02  9.59648E+01 -4.93313E+02  1.09623E+03 -1.64749E+03  7.56518E+02  1.54464E+03 -1.29890E+03
 -6.02263E+02 -8.71358E+02  3.14239E+03  1.03623E+03  1.80001E+03  4.22873E+03 -9.44132E+01  4.56730E+03
 -2.73658E+03  3.25521E+03 -3.61318E+03  1.47585E+02 -4.15296E+03 -1.04049E+03 -1.24970E+03 -3.00087E+03
  1.22146E+02 -1.41603E+03  2.00853E+03 -1.30261E+03  2.35765E+03  3.07722E+03 -7.36308E+02  2.59872E+03
 -1.58206E+03  1.05883E+03 -2.69884E+03 -2.21114E+03 -2.05420E+03 -3.53808E+03  1.35316E+03 -2.82318E+03
  3.19088E+03 -1.38265E+03  1.95285E+03  4.35367E+02  2.01208E+03  7.62299E+02  1.24663E+02  3.16523E+03
 -4.87637E+02  1.44629E+03 -1.86060E+03 -4.83517E+02  6.83997E+02 -2.73225E+03  4.25107E+03 -1.33608E+03
  3.23411E+03  9.67809E+02  4.03151E+03  2.89846E+03  1.02760E+03  4.56766E+03 -9.25920E+02  3.80331E+03
 -2.02184E+03  1.58302E+03 -2.50327E+03 -1.43923E+03 -2.90181E+03 -2.69525E+03 -1.98659E+02 -2.30433E+03
  2.45978E+03 -7.04955E+02  2.44369E+03  1.36418E+03  7.35683E+02  2.03271E+03  8.91040E+02  1.42266E+03
 -1.18821E+03  1.35202E+02 -1.83024E+02  1.13519E+03 -3.89019E+02  7.81165E+02 -8.75847E+02  9.13099E+02
 -8.56236E+02  1.39554E+03 -2.49360E+03  3.19821E+02 -4.92360E+03 -8.53649E+02 -4.51813E+03 -1.88397E+03
 -1.76192E+03 -5.04308E+03  1.05227E+03 -6.18330E+03  3.74554E+03 -3.08796E+03  5.25139E+03 -1.96674E+03
  4.32519E+03  7.22510E+02  2.60166E+03  3.19047E+03  3.13182E+01  1.83643E+03 -1.27904E+02  1.43257E+03
 -1.71071E+03  2.19667E+03 -4.20252E+02 -2.06361E+03 -3.27371E+02  1.90286E+03 -9.74412E+01  4.13185E+02
  1.89326E+01 -8.52267E+02 -2.36356E+03  1.61280E+02  1.87628E+03 -1.12344E+03  7.15681E+02 -7.69224E+02
  1.30694E+03 -2.13273E+03  1.79156E+03  1.52943E+02  2.42697E+03  1.16343E+03 -4.48859E+02  3.72761E+03
 -5.56934E+02  3.81073E+03 -3.05717E+03  2.74246E+03 -3.92627E+03  3.17073E+01 -2.80687E+03 -2.33755E+03
 -9.09982E+02 -3.17985E+03  6.63131E+02 -2.59468E+03  1.67546E+03 -1.60863E+03  9.47104E+02 -8.87230E+02
  1.15949E+03  9.35027E+02 -5.90135E+02  1.30208E+03 -1.12229E+03  1.09526E+03 -6.58811E+02 -1.72583E+03
  8.85141E+02 -1.03776E+03  1.38189E+03  1.62547E+03  1.74605E+03 -8.80880E+01  2.33334E+03  1.77473E+03
 -1.25169E+02  1.14720E+03 -1.46606E+03 -1.13664E+01 -1.40434E+03  1.88890E+02  4.42821E+00 -3.00317E+03
  2.20865E+03 -1.73216E+03  1.63245E+03 -1.69911E+02  2.06121E+03 -5.21981E+02  1.17178E+03  1.86128E+03
 -6.48143E+02  1.17246E+03  8.22940E+02  2.11836E+03 -2.08636E+03  6.05490E+02 -5.02373E+02 -5.68214E+02
 -5.41980E+02 -8.86646E+02  1.16022E+03  3.46988E+02 -7.30360E+02 -5.27298E+02 -1.45306E+03 -1.10137E+03
 -1.71325E+03  1.62860E+02 -2.84209E+02 -1.04583E+03  1.48851E+02 -2.20852E+03  8.97020E+02 -1.95490E+03
  2.06349E+03 -7.55921E+02  8.67007E+02  7.48405E+02  1.44434E+03  2.43975E+03 -1.40374E+03  1.35940E+03
