 $NMID ID='MM_0lb_SNR200_19hz_g50_22.RAW', FMTDAT='(8E13.5)'
 TRAMP=1., VOLUME=1. $END
  3.09555E+05  3.96466E+02  3.36898E+05  2.49824E+05  8.41886E+04  3.37127E+05 -1.31218E+05  2.50666E+05
 -1.90605E+05  8.26961E+04 -1.11125E+05 -3.28877E+04  1.60248E+03 -5.00775E+04  5.37783E+04  1.55901E+02
  3.59052E+04  5.24247E+04 -1.77182E+04  7.50139E+04 -6.08770E+04  6.30068E+04 -8.22451E+04  3.23605E+04
 -7.96520E+04 -1.18341E+04 -5.63955E+04 -4.95042E+04 -1.55347E+04 -6.93109E+04  2.74152E+04 -4.36472E+04
  3.98452E+04  3.68763E+03  1.53549E+04  4.67185E+04 -3.43181E+04  4.76734E+04 -6.52515E+04  2.03693E+02
 -5.10805E+04 -5.60689E+04 -6.34175E+03 -7.57041E+04  3.36374E+04 -5.30332E+04  4.58778E+04 -1.61155E+04
  4.24193E+04  1.07306E+04  3.18551E+04  2.41146E+04  1.47724E+04  2.85192E+04 -4.80855E+03  2.67776E+04
 -2.23870E+04  1.34895E+04 -1.86100E+04 -4.38221E+03  4.58127E+03 -7.93886E+03  2.03732E+04  1.16763E+04
  7.88982E+03  3.36312E+04 -3.02570E+04  3.42920E+04 -6.11692E+04  2.83807E+03 -5.58741E+04 -4.07752E+04
 -1.25603E+04 -6.09466E+04  3.83821E+04 -4.34789E+04  5.57187E+04 -3.39172E+03  3.14902E+04  3.07517E+04
 -6.88088E+03  3.28345E+04 -2.86572E+04  1.32061E+04 -2.69891E+04 -6.20532E+03 -1.51034E+04 -9.28829E+03
 -7.14017E+03 -1.02716E+04 -1.18429E+03 -1.63950E+04  6.95696E+03 -2.23574E+04  1.50788E+04 -1.41990E+04
  1.14595E+04  5.27638E+03 -6.30717E+03  1.25491E+04 -1.92390E+04 -1.90183E+03 -7.99744E+03 -3.03206E+04
  2.08501E+04 -4.12267E+04  4.49771E+04 -1.87077E+04  4.13350E+04  1.75485E+04  1.48007E+04  4.16314E+04
 -1.51539E+04  3.05518E+04 -2.37644E+04  9.51705E+02 -8.60170E+03 -2.59682E+04  2.04036E+04 -2.98994E+04
  3.75440E+04 -8.26918E+03  3.09106E+04  2.21951E+04  1.57102E+04  4.32595E+04 -7.62942E+03  4.54026E+04
 -2.85745E+04  3.08091E+04 -3.75093E+04  8.14400E+03 -3.82014E+04 -1.45455E+04 -2.18178E+04 -3.35958E+04
  7.09532E+03 -3.49261E+04  2.92677E+04 -1.30347E+04  2.70371E+04  1.14932E+04  3.78629E+03  1.82410E+04
 -1.31735E+04  6.16985E+03 -9.06999E+03 -7.89547E+03  5.84966E+03 -1.04912E+04  1.78730E+04  6.60120E+03
  1.15032E+04  2.14095E+04 -6.18275E+03  2.30870E+04 -2.13206E+04  8.43846E+03 -2.61598E+04 -6.92396E+03
 -1.65773E+04 -1.72381E+04 -6.04167E+03 -1.66118E+04  3.27848E+03 -1.38806E+04  1.28447E+04 -1.39938E+04
  2.05029E+04 -1.21102E+04  2.83093E+04  1.77719E+03  2.19452E+04  1.60278E+04  4.87083E+03  3.27256E+04
 -1.54297E+04  2.78816E+04 -2.55375E+04  9.55595E+03 -1.88521E+04 -1.04324E+04 -4.02942E+03 -1.46362E+04
  3.21833E+03 -4.71601E+03 -2.97832E+03  6.36733E+03 -1.09427E+04  5.51588E+03 -1.35926E+04 -4.27534E+03
 -8.16438E+03 -1.62281E+04  4.60447E+03 -1.90321E+04  1.16152E+04 -1.42141E+04  1.43049E+04 -1.79430E+03
  8.56897E+03  1.05722E+04 -2.35883E+02  1.62697E+04 -1.07800E+04  9.64458E+03 -1.43749E+04 -3.13171E+03
 -1.28784E+04 -1.31034E+04 -2.02606E+03 -1.84749E+04  9.17733E+03 -1.55373E+04  1.58136E+04 -6.59896E+03
  1.43013E+04  4.41863E+02  1.12683E+04  4.27986E+03  6.27043E+03 -4.07101E+02  7.07380E+03 -2.59607E+03
  1.43350E+04  3.27633E+03  1.41546E+04  1.28049E+04  8.96013E+03  2.40019E+04 -3.38730E+03  2.60197E+04
 -1.49643E+04  2.04547E+04 -2.50744E+04  9.92822E+03 -2.36371E+04 -1.71118E+03 -2.09075E+04 -1.38098E+04
 -1.04872E+04 -2.03751E+04  6.82134E+03 -1.82059E+04  1.61426E+04 -9.72534E+03  1.60492E+04  2.35824E+03
  6.59021E+03  1.07519E+04 -6.71591E+03  1.12794E+04 -1.31525E+04  4.18875E+03 -9.70381E+03 -8.29228E+03
 -3.53931E+02 -1.24057E+04  5.89188E+03 -9.57237E+03  8.60148E+03 -5.78148E+02  1.43314E+03  4.65789E+03
 -6.32914E+03  1.93055E+03 -3.71583E+03 -4.42136E+03  8.56581E+02 -1.00540E+04  8.64347E+03 -1.12980E+04
  1.16623E+04 -4.49499E+03  1.11235E+04  3.40489E+03  1.02542E+04  9.23233E+03  4.97300E+03  1.33388E+04
 -2.42604E+03  1.50596E+04 -9.31663E+03  1.02203E+04 -9.98589E+03  2.86233E+03 -8.20634E+03 -1.49785E+03
 -3.97585E+03 -2.76433E+03 -7.97540E+02  7.60349E+02 -1.54729E+03  7.02271E+02 -2.55299E+03  3.12438E+03
 -7.85066E+03  1.75417E+02 -8.46520E+03 -5.92439E+03 -2.79739E+03 -1.13139E+04  3.90372E+03 -7.45808E+03
  8.21010E+03 -2.73307E+03  4.95174E+03  2.42631E+03  8.34628E+02  3.42286E+03 -2.85030E+03 -4.22014E+02
 -5.16687E+03 -5.62996E+03 -1.41193E+03 -7.24538E+03  4.40047E+03 -8.04456E+03  9.44825E+03 -4.47888E+03
  1.12203E+04  2.24349E+02  8.04115E+03  5.39063E+03  1.38957E+03  9.23946E+03 -4.34011E+03  8.08772E+03
 -6.65780E+03  2.48770E+03 -3.50285E+03 -1.41277E+03  2.49551E+03 -3.01456E+03  5.45085E+03 -1.87312E+03
  4.49659E+03  2.86879E+03  1.07708E+03  6.11634E+03 -3.96689E+03  5.72483E+03 -8.21256E+03  1.50462E+03
 -5.51922E+03 -2.69630E+03  3.44275E+01 -6.84816E+03  3.30305E+03 -3.65435E+03  3.11299E+03  1.51073E+03
  5.47973E+02  4.08661E+03 -3.91232E+03  4.49993E+03 -4.28588E+03  2.19962E+03 -4.16203E+03 -7.29505E+02
 -3.11507E+03 -5.90118E+03  2.20476E+03 -7.82147E+03  7.09229E+03 -4.12217E+03  6.45063E+03  1.13002E+03
  4.71387E+03  5.00612E+03  1.45561E+02  7.66357E+03 -5.61698E+03  4.47445E+03 -5.07922E+03 -1.07874E+03
 -5.67301E+03 -4.54509E+03 -1.79721E+03 -4.30459E+03  2.51107E+03 -5.81337E+03  4.19535E+03 -2.44083E+03
  2.83651E+03  1.55577E+03  6.64664E+02  1.41474E+03  5.10516E+02 -2.51971E+01 -2.54447E+02 -2.15154E+03
  3.80361E+03 -3.56958E+02  5.72211E+03  1.20659E+03  5.26306E+03  3.05625E+03  5.51482E+03  6.67876E+03
 -1.65731E+03  7.44080E+03 -6.86541E+03  5.66270E+03 -1.01905E+04  1.53679E+03 -6.92535E+03 -2.25761E+03
 -4.72800E+03 -6.35971E+03 -2.63931E+02 -4.97497E+03  2.53813E+03 -1.83980E+03  1.42127E+03 -1.91643E+03
  1.81723E+03 -1.24831E+03  1.77701E+03 -1.45283E+03  3.60991E+03 -9.40731E+02  4.77492E+03  9.76412E+02
  4.56664E+03  1.37477E+03  6.42765E+02  2.88273E+03 -1.51994E+03  1.37230E+03 -4.11789E+03  2.54236E+03
 -4.70865E+03 -8.04056E+02 -1.85263E+03 -3.09031E+03  1.26431E+03 -4.44186E+03  2.49174E+03 -4.59167E+03
  4.05181E+03 -3.59834E+03  6.48587E+03  1.74500E+01  3.94886E+03  4.06022E+03  4.54387E+02  5.61974E+03
 -1.83321E+03  5.40589E+03 -3.09453E+03  2.46006E+03 -2.10615E+03 -1.00629E+03 -1.40670E+03 -1.45103E+02
 -4.60309E+02 -1.93031E+02 -1.04830E+03  1.84538E+03 -2.86159E+03  1.50166E+03 -3.68983E+03 -1.62264E+03
 -7.92560E+02 -3.84798E+03  1.11342E+03 -3.94205E+03  2.72502E+03 -3.10289E+03  2.76934E+03 -1.94529E+03
  3.66761E+03  1.54414E+03  1.17391E+03  2.93842E+03 -6.96596E+02  3.77803E+03 -1.37559E+03  2.25175E+03
 -3.14086E+03  5.31759E+02 -3.19441E+03 -3.48994E+03 -3.70452E+02 -2.43877E+03  1.18861E+03 -1.59341E+03
  2.88992E+03 -9.90867E+02  1.07319E+03 -1.01546E+03  7.02313E+02  1.36477E+03  8.82221E+02  9.51861E+02
  1.17482E+03  6.74275E+02  2.39459E+03  9.10529E+02  1.89807E+03  7.68059E+02  1.81681E+03  1.52044E+03
 -5.92263E+02  2.51192E+03 -3.88818E+03  4.21181E+03 -3.21923E+03  7.02906E+02 -4.39554E+03 -7.92244E+02
 -2.22716E+03 -2.36586E+03  6.97279E+02 -4.95761E+03  1.44991E+03 -2.59162E+03  9.41413E+02 -2.10199E+02
  2.01033E+03  2.40821E+03  7.42991E+02  1.69004E+03 -6.71208E+02  1.13380E+03 -5.47056E+01 -4.02165E+02
 -6.16619E+02 -1.11951E+03  5.31589E+02 -1.86062E+03  4.31607E+02  1.17477E+02  9.17866E+02 -8.80393E+02
  1.18295E+03  2.63687E+02  5.90974E+02  1.49445E+02  2.97182E+02  8.52528E+02  1.17105E+03 -3.37728E+02
 -2.36919E+02  8.40420E+02  1.75870E+03  4.00350E+02  6.43232E+02  2.80730E+03  4.02489E+01  2.98118E+03
 -1.99148E+03  4.75505E+02 -1.07319E+03 -7.97717E+01 -2.50318E+03 -1.31393E+03  2.48719E+02 -1.08425E+03
  2.01111E+03 -1.55812E+03  1.02905E+03 -2.02916E+02 -2.01297E+02  1.28564E+03 -4.45039E+02  1.01517E+03
 -1.64923E+03 -1.40517E+02 -9.13064E+02 -1.83540E+03 -3.44355E+02 -2.70060E+03  1.43634E+01 -1.96205E+03
  8.66715E+02 -9.86098E+02  7.55333E+01 -5.32735E+02  1.14924E+03  3.23789E+02 -3.19078E+02  8.85554E+02
 -6.89850E+02  3.08078E+01 -8.67094E+02 -1.96369E+01  6.25508E+02 -2.98094E+02  2.69808E+03 -1.25872E+02
  7.39731E+02  8.79014E+02  3.39730E+03  8.10532E+02  5.67995E+02  5.32282E+02 -4.87206E+02  1.97156E+03
 -7.22889E+02  1.78816E+02 -9.20855E+02 -2.18492E+03 -9.18550E+02 -1.10223E+03  4.06835E+02 -7.85618E+02
  1.18123E+03 -1.05921E+03  2.48577E+02  3.26554E+02  7.25333E+02  6.05261E+02  1.48312E+03  3.48776E+02
  4.57222E+02  6.05335E+02 -1.44431E+03 -1.92169E+02 -1.90348E+02  3.20261E+02 -4.94991E+02  2.17728E+02
 -7.15894E+02  2.49203E+02 -2.14517E+03 -4.93766E+02 -1.93321E+03  6.84224E+02 -1.92623E+03 -1.49637E+03
 -4.09837E+02 -1.45042E+03  1.78967E+02 -2.35440E+03  9.08170E+02 -2.45145E+03  3.10591E+03 -2.19987E+03
  2.26132E+03 -2.55179E+02  2.30075E+03  1.04679E+03 -2.39115E+03  1.74277E+03 -5.71500E+02  1.44564E+03
 -5.82440E+02 -6.27205E+01 -8.68562E+02  1.29539E+03 -3.60799E+02  7.13537E+01 -6.62198E+02 -3.49433E+02
 -8.31422E+02  8.93360E+02 -5.00366E+02  6.36963E+01 -3.55276E+02  2.84928E+02 -2.08644E+03 -2.97332E+02
  1.10909E+03 -1.19668E+03  7.03098E+02  3.94079E+02  1.63184E+03  1.50270E+03 -2.69474E+02  9.53126E+01
 -7.82960E+02  1.24002E+03 -1.59217E+03 -2.03522E+02 -1.69376E+03  4.04348E+01 -1.15179E+03 -1.11780E+03
 -8.37503E+02 -3.82789E+02 -6.71752E+02 -1.96829E+01  1.36129E+03 -8.36648E+02  1.81324E+02  1.18918E+02
  1.15859E+03  4.03699E+02  1.25693E+03  6.79522E+02 -9.83829E+02  1.95476E+02 -1.87905E+02 -6.39312E+02
  5.36212E+02  2.26846E+01  8.30215E+02  1.45721E+01  5.34552E+02  8.48938E+02  4.87653E+02 -1.76839E+02
 -7.01824E+02  5.86520E+02  3.38581E+01  3.28954E+02 -7.36062E+02 -4.18232E+01 -7.70996E+01 -9.14719E+02
  1.15229E+03 -9.58149E+02  1.25937E+03  2.41504E+02  2.13808E+03 -6.30793E+02 -5.94004E+02  9.67444E+02
 -9.17981E+02  1.10455E+03  2.07553E+02  1.07400E+03 -3.34154E+02  7.90646E+02 -1.02171E+03  5.97616E+02
 -3.89145E+02  8.29424E+00 -1.61036E+03 -4.97221E+02 -5.82182E+02  7.88574E+02 -1.49872E+03 -2.90868E+02
 -1.01846E+03  1.18077E+02 -3.94012E+02 -9.84787E+02  1.15216E+03 -8.64677E+02  1.18611E+03  3.05107E+01
  9.72490E+01  5.54765E+02 -5.05842E+02  1.23442E+03 -2.22577E+02  2.28456E+02 -2.93512E+02  1.15466E+03
