 $NMID ID='MM_0lb_SNR200_8hz_g50_31.RAW', FMTDAT='(8E13.5)'
 TRAMP=1., VOLUME=1. $END
  3.09839E+05 -4.73617E+02  3.38292E+05  2.49771E+05  8.37614E+04  3.38879E+05 -1.33785E+05  2.52205E+05
 -1.91734E+05  8.48675E+04 -1.13297E+05 -3.23891E+04 -4.62023E+02 -5.07959E+04  5.27984E+04 -9.22501E+02
  3.48790E+04  5.27897E+04 -1.75720E+04  7.57417E+04 -6.13824E+04  6.37596E+04 -8.49501E+04  3.27851E+04
 -8.32097E+04 -1.11737E+04 -5.80516E+04 -5.38578E+04 -1.61242E+04 -7.25865E+04  2.82319E+04 -4.76154E+04
  4.20535E+04  3.53775E+03  1.55451E+04  4.91929E+04 -3.52202E+04  4.79120E+04 -6.70832E+04 -2.51409E+02
 -5.57585E+04 -5.68422E+04 -7.96918E+03 -7.81573E+04  3.49536E+04 -5.73606E+04  5.04761E+04 -1.85261E+04
  4.49054E+04  9.82939E+03  3.23117E+04  2.47624E+04  1.62117E+04  3.19160E+04 -4.71547E+03  2.72615E+04
 -2.29769E+04  1.24222E+04 -1.84661E+04 -8.76012E+03  5.76371E+03 -6.78583E+03  2.45379E+04  1.48090E+04
  7.56006E+03  3.57776E+04 -3.48291E+04  3.73252E+04 -6.60469E+04  1.23258E+03 -6.12310E+04 -4.45262E+04
 -1.23707E+04 -6.70399E+04  4.21169E+04 -4.74967E+04  6.07199E+04 -2.35736E+03  3.70528E+04  3.41042E+04
 -5.42221E+03  4.01512E+04 -3.12261E+04  1.89394E+04 -3.30782E+04 -3.99910E+03 -1.89237E+04 -1.22666E+04
 -8.70991E+03 -1.43664E+04 -1.63992E+03 -2.10476E+04  8.17948E+03 -2.29560E+04  1.54010E+04 -1.33881E+04
  1.13155E+04  5.33691E+03 -1.16183E+04  1.17791E+04 -2.48274E+04 -7.09115E+03 -8.86296E+03 -3.79907E+04
  2.47556E+04 -4.73269E+04  5.36643E+04 -2.24918E+04  4.95054E+04  2.15563E+04  1.70267E+04  4.65811E+04
 -1.68144E+04  3.71439E+04 -2.82722E+04  1.32992E+03 -1.31681E+04 -3.14102E+04  2.12533E+04 -3.92605E+04
  4.57459E+04 -1.06209E+04  4.07406E+04  2.65922E+04  2.33184E+04  5.11981E+04 -7.94836E+03  5.73403E+04
 -3.57432E+04  3.91031E+04 -4.96108E+04  1.20590E+04 -4.85918E+04 -1.84242E+04 -2.76878E+04 -4.26394E+04
  9.13982E+03 -4.11178E+04  3.41160E+04 -1.69717E+04  3.31552E+04  1.13983E+04  6.00934E+03  2.13190E+04
 -1.47182E+04  1.19469E+04 -1.14638E+04 -7.72259E+03  3.11323E+03 -1.10905E+04  1.99966E+04  4.68603E+03
  1.55753E+04  2.27393E+04 -5.63257E+03  2.65326E+04 -2.41466E+04  1.49433E+04 -3.38643E+04 -3.20938E+03
 -2.78536E+04 -1.86474E+04 -1.30438E+04 -2.82663E+04  4.80499E+03 -2.79836E+04  2.01599E+04 -2.58635E+04
  3.28138E+04 -1.60845E+04  3.98925E+04  4.39603E+03  2.79233E+04  2.46618E+04  5.04410E+03  4.20420E+04
 -1.99712E+04  3.33121E+04 -3.06933E+04  1.06171E+04 -2.34486E+04 -9.02390E+03 -4.24199E+03 -1.16214E+04
  8.42133E+02 -1.75387E+02 -9.78493E+03  9.36165E+03 -2.00038E+04  5.25797E+03 -2.05651E+04 -1.20543E+04
 -1.33935E+04 -2.45948E+04  5.44412E+03 -3.04386E+04  1.97528E+04 -1.84956E+04  2.41586E+04 -1.04009E+03
  1.60106E+04  1.70521E+04 -1.96055E+03  2.54873E+04 -1.68677E+04  1.37749E+04 -2.49340E+04 -5.56307E+03
 -1.68342E+04 -2.11097E+04 -3.24267E+03 -3.06919E+04  1.26269E+04 -2.37423E+04  2.57793E+04 -1.27146E+04
  2.34041E+04  2.13066E+02  1.64949E+04  5.50467E+03  1.03752E+04  2.25599E+03  1.33905E+04 -1.22922E+03
  2.30845E+04  3.13509E+03  2.55322E+04  1.82766E+04  1.92628E+04  3.86265E+04 -2.93511E+03  4.74005E+04
 -2.72232E+04  3.80163E+04 -4.43782E+04  1.94785E+04 -4.73670E+04 -2.98843E+03 -3.81993E+04 -2.90550E+04
 -1.69085E+04 -3.78650E+04  1.41896E+04 -3.41705E+04  3.00579E+04 -1.62120E+04  2.51326E+04  9.16815E+03
  7.48897E+03  2.01263E+04 -1.29304E+04  1.49457E+04 -2.25566E+04  1.96311E+03 -1.58861E+04 -1.41004E+04
  6.76638E+02 -1.92874E+04  9.84591E+03 -1.46949E+04  1.46608E+04 -1.76214E+03  2.64066E+03  9.82798E+03
 -9.27776E+03  4.73001E+03 -9.33615E+03 -7.75957E+03 -2.57731E+03 -2.02623E+04  1.43825E+04 -2.10489E+04
  2.43751E+04 -1.03383E+04  2.88120E+04  1.94613E+03  2.55378E+04  1.87313E+04  1.16357E+04  3.10105E+04
 -6.20200E+03  3.23632E+04 -2.29958E+04  2.25579E+04 -2.53751E+04  3.56661E+03 -1.70383E+04 -6.21716E+03
 -7.18093E+03 -7.26458E+03  1.12257E+02 -1.72730E+03 -2.55326E+03  2.61399E+03 -9.44948E+03  6.03812E+03
 -1.56532E+04 -8.42563E+01 -1.46119E+04 -1.31104E+04 -7.09122E+03 -2.18472E+04  5.60284E+03 -1.61984E+04
  1.21476E+04 -6.42634E+03  1.02785E+04  5.26278E+03 -1.46424E+03  7.24546E+03 -8.24905E+03 -1.79449E+03
 -8.88116E+03 -1.16965E+04 -1.46984E+03 -1.72338E+04  1.02397E+04 -1.73888E+04  2.19470E+04 -1.05938E+04
  2.50015E+04  3.49148E+03  1.82392E+04  1.49765E+04  4.58709E+03  2.07681E+04 -9.25512E+03  1.61978E+04
 -1.17237E+04  6.45337E+03 -7.77520E+03 -4.43054E+03  2.26089E+03 -4.00319E+03  9.82646E+03 -1.01374E+02
  7.63975E+03  7.87248E+03  9.06644E+02  1.39542E+04 -1.12611E+04  1.16773E+04 -1.73623E+04  3.43726E+03
 -1.11705E+04 -9.86410E+03  2.88155E+02 -1.41541E+04  9.93296E+03 -9.43181E+03  1.01367E+04  4.53254E+03
  1.95710E+03  1.10900E+04 -8.22367E+03  1.24999E+04 -1.59642E+04  4.14917E+03 -1.57364E+04 -5.06297E+03
 -7.97994E+03 -1.81228E+04  4.29494E+03 -2.04928E+04  1.51187E+04 -1.43608E+04  1.98638E+04  2.33022E+03
  1.02829E+04  1.54695E+04 -2.20819E+03  1.66099E+04 -1.18448E+04  9.36067E+03 -1.41329E+04 -1.82764E+03
 -1.23211E+04 -1.18797E+04 -2.09475E+03 -1.37363E+04  8.15964E+03 -1.01715E+04  7.38164E+03 -3.23118E+03
  4.26225E+03  2.61800E+03 -3.40615E+01  3.14298E+03 -6.66026E+02 -3.35784E+03  4.25330E+03 -9.94661E+03
  1.10154E+04 -5.81987E+03  1.69224E+04  1.50830E+03  1.61331E+04  1.08356E+04  1.02170E+04  2.32984E+04
 -5.78710E+03  2.73778E+04 -2.30597E+04  1.76872E+04 -2.80330E+04  4.47480E+03 -2.48790E+04 -9.74515E+03
 -1.32145E+04 -1.88502E+04  1.06105E+03 -1.57462E+04  5.92721E+03 -8.90370E+03  5.62255E+03 -6.61181E+03
  4.03098E+03 -2.77479E+03  5.61073E+03 -3.61236E+03  6.09641E+03 -3.39126E+03  8.15393E+03 -1.45139E+03
  1.15902E+04  1.64914E+03  7.48432E+03  1.00470E+04 -2.65687E+03  1.31735E+04 -1.32693E+04  8.29808E+03
 -1.51719E+04  4.46718E+02 -1.23293E+04 -1.06966E+04 -1.68240E+03 -1.84026E+04  9.78141E+03 -1.81346E+04
  1.75760E+04 -9.93639E+03  2.27351E+04  3.38068E+03  1.57607E+04  1.66219E+04  2.89096E+03  2.02400E+04
 -8.53441E+03  1.44845E+04 -1.09260E+04  5.47313E+03 -8.27568E+03 -1.38026E+03 -3.22561E+03 -2.10077E+03
 -3.38337E+02 -6.37405E+02 -3.20755E+03  4.48232E+03 -7.41452E+03  2.46586E+03 -1.04011E+04 -2.83596E+03
 -8.81680E+03 -1.12237E+04  3.29938E+02 -1.62721E+04  1.02236E+04 -1.62022E+04  1.55451E+04 -5.42255E+03
  1.70876E+04  8.36832E+03  6.51726E+03  1.49643E+04 -4.88989E+03  1.47710E+04 -1.36499E+04  1.00886E+04
 -1.54876E+04  9.69698E+02 -1.11211E+04 -8.21360E+03 -1.55438E+03 -1.54737E+04  6.93647E+03 -1.06585E+04
  1.12202E+04 -2.72256E+03  6.05703E+03  1.64547E+03  2.82702E+03  3.91294E+03 -6.16510E+02  1.83757E+03
  2.90322E+03  2.07602E+03  5.92896E+03  1.68134E+03  5.14681E+03  4.86465E+03  3.69890E+03  8.70514E+03
 -2.85416E+03  1.14463E+04 -1.22174E+04  1.24201E+04 -1.87640E+04  2.25773E+03 -1.92060E+04 -8.12755E+03
 -9.14422E+03 -1.80472E+04  3.25005E+03 -1.75748E+04  1.09614E+04 -1.24234E+04  1.23985E+04 -2.15739E+03
  1.13437E+04  6.90806E+03  8.36563E+02  9.83940E+03 -5.92608E+03  7.03501E+03 -6.34047E+03 -9.80815E+02
 -2.94160E+03 -6.99331E+03  4.03146E+03 -7.64209E+03  6.44081E+03 -3.62616E+03  7.63857E+03  1.55246E+03
  3.86714E+03  3.96369E+03  1.23277E+03  3.36071E+03  2.34822E+02 -8.40931E+01  2.15334E+03 -1.97951E+03
  2.19708E+03  3.40265E+02  6.77495E+03  3.80780E+03  5.45402E+03  8.76672E+03 -3.30435E+03  1.34469E+04
 -1.00283E+04  9.11664E+03 -1.03636E+04  2.66055E+03 -1.08947E+04 -4.26459E+03 -2.72827E+03 -9.01373E+03
  8.36248E+02 -6.87556E+03  2.91660E+03 -2.92257E+03  3.70294E+03  3.50215E+03 -2.53960E+03  5.27233E+03
 -8.06654E+03  2.95903E+03 -8.49297E+03 -4.59923E+03 -4.51826E+03 -8.42316E+03  2.22401E+03 -9.01131E+03
  6.20738E+03 -6.89818E+03  6.66572E+03 -7.68872E+02  4.73702E+03  2.39569E+03  1.14854E+03  5.94460E+03
 -2.92757E+03  2.75320E+03 -3.70950E+03 -2.08117E+03  1.12711E+03 -1.01301E+04  7.72468E+03 -4.27688E+03
  1.10171E+04  3.46591E+02  9.72879E+03  6.21133E+03  2.75384E+03  1.10480E+04 -3.56331E+03  1.10222E+04
 -9.51233E+03  3.76287E+03 -9.70491E+03 -1.79211E+03 -6.70655E+03 -7.49773E+03  1.53108E+03 -7.43266E+03
  6.99526E+03 -2.68105E+03  8.05907E+03  3.43659E+03  2.61280E+03  6.01589E+03 -2.95265E+03  6.45136E+03
 -3.76754E+03  5.32796E+03 -2.46339E+03  1.49594E+03 -2.24938E+03  2.95922E+03 -3.44213E+03  1.80617E+03
 -4.06375E+03  3.91867E+03 -7.55758E+03  4.11273E+03 -1.25667E+04 -6.78305E+02 -1.16243E+04 -9.11158E+03
 -6.94025E+03 -1.56016E+04  2.68829E+03 -1.80397E+04  1.12919E+04 -1.43124E+04  1.67365E+04 -4.21254E+03
  1.65042E+04  3.41331E+03  9.16331E+03  1.02776E+04  2.30865E+02  1.32174E+04 -5.43895E+03  8.34145E+03
 -6.44557E+03  3.81845E+03 -3.49474E+03 -1.01488E+03 -1.44911E+03 -9.00728E+01 -2.20690E+03 -4.14863E+02
 -9.79143E+02  1.04594E+03 -3.04916E+03  4.60476E+02  1.15234E+03 -3.61243E+03 -2.23309E+02 -4.69921E+03
  5.16930E+03 -3.42893E+03  8.70479E+03 -1.80493E+03  7.87993E+03  6.43172E+03  1.41354E+03  9.91857E+03
 -7.01890E+03  1.37524E+04 -1.31595E+04  6.37298E+03 -1.42347E+04 -2.40523E+03 -1.06111E+04 -1.00575E+04
 -5.59856E+03 -1.12991E+04  3.86000E+03 -1.20505E+04  9.20382E+03 -6.40894E+03  8.46031E+03  7.80526E+02
  3.51545E+03  3.77449E+03 -2.36535E+02  2.06191E+03 -3.31166E+03  6.21680E+02  2.07833E+02 -2.80068E+03
  4.37072E+03 -8.63563E+02  5.54670E+03  1.03872E+03  3.70002E+03  3.98381E+03 -7.23631E+02  7.10792E+03
 -5.16741E+03  4.80916E+03 -8.56374E+03 -1.49272E+03 -7.62358E+03 -6.59582E+03 -1.21791E+03 -1.05354E+04
  6.10283E+03 -9.50274E+03  1.07380E+04 -1.95524E+03  9.29311E+03  1.91402E+03  6.78398E+03  9.04279E+03
  2.73327E+03  7.90877E+03 -3.84235E+03  8.51443E+03 -3.73452E+03  4.84929E+03 -4.34930E+03  6.69423E+01
 -2.57302E+03  7.96042E+02 -1.05438E+03 -5.12310E+02 -3.06965E+03  1.19862E+03 -6.52188E+03 -2.00823E+03
 -5.71558E+03 -5.55993E+03 -1.37435E+03 -8.27890E+03  2.62618E+03 -9.38591E+03  9.39210E+03 -4.02538E+03
  1.05533E+04  1.45589E+03  2.86131E+03  7.32268E+03 -3.23178E+02  7.29080E+03 -5.07301E+03  5.00502E+03
