 $NMID ID='MM_0lb_SNR200_16hz_g60_51.RAW', FMTDAT='(8E13.5)'
 TRAMP=1., VOLUME=1. $END
  3.10520E+05 -9.92441E+00  3.36580E+05  2.49420E+05  8.48218E+04  3.38324E+05 -1.32691E+05  2.51317E+05
 -1.90687E+05  8.40812E+04 -1.11312E+05 -3.34527E+04 -8.93181E+02 -4.94216E+04  5.37957E+04  2.77408E+02
  3.44350E+04  5.34053E+04 -1.60431E+04  7.65949E+04 -6.06705E+04  6.41009E+04 -8.31337E+04  3.15753E+04
 -8.16140E+04 -1.15814E+04 -5.71645E+04 -5.10027E+04 -1.59522E+04 -7.00614E+04  2.73110E+04 -4.53769E+04
  3.86113E+04  3.41991E+03  1.53344E+04  4.80534E+04 -3.52419E+04  4.68282E+04 -6.58157E+04 -1.07395E+02
 -5.38037E+04 -5.75627E+04 -5.68358E+03 -7.62539E+04  3.30227E+04 -5.58638E+04  4.87728E+04 -1.69820E+04
  4.33518E+04  1.02855E+04  3.14008E+04  2.52552E+04  1.61073E+04  3.02112E+04 -5.40520E+03  2.77490E+04
 -2.13429E+04  1.19081E+04 -1.80806E+04 -4.63528E+03  5.63443E+03 -8.37904E+03  2.26061E+04  1.22066E+04
  6.48067E+03  3.56251E+04 -3.14116E+04  3.48232E+04 -6.46109E+04  2.63538E+03 -5.75582E+04 -4.28094E+04
 -1.25503E+04 -6.34776E+04  4.14199E+04 -4.52570E+04  5.85244E+04 -1.60971E+03  3.32604E+04  3.34152E+04
 -6.32979E+03  3.66343E+04 -3.05212E+04  1.59489E+04 -3.03787E+04 -5.92285E+03 -1.79384E+04 -1.02970E+04
 -9.41549E+03 -1.28299E+04 -6.04092E+02 -1.77749E+04  6.99216E+03 -2.39742E+04  1.55665E+04 -1.31136E+04
  1.16765E+04  5.04168E+03 -8.22068E+03  1.31399E+04 -2.08640E+04 -4.36836E+03 -8.48933E+03 -3.41263E+04
  2.39537E+04 -4.33817E+04  4.84451E+04 -1.99495E+04  4.47285E+04  1.98213E+04  1.44864E+04  4.46004E+04
 -1.68314E+04  3.28922E+04 -2.46927E+04  1.39344E+03 -1.00189E+04 -2.75355E+04  2.07930E+04 -3.48691E+04
  4.12196E+04 -9.22589E+03  3.58093E+04  2.36307E+04  1.74210E+04  4.61774E+04 -7.44218E+03  5.04119E+04
 -3.19331E+04  3.46123E+04 -4.19822E+04  9.54144E+03 -4.19153E+04 -1.62319E+04 -2.27090E+04 -3.88659E+04
  7.44119E+03 -3.82136E+04  3.24595E+04 -1.53183E+04  2.94994E+04  1.04307E+04  5.17655E+03  1.83747E+04
 -1.30936E+04  8.07449E+03 -1.10206E+04 -7.19873E+03  5.72052E+03 -1.04971E+04  1.76592E+04  6.61272E+03
  1.48016E+04  2.19636E+04 -6.06092E+03  2.51470E+04 -2.33138E+04  1.08470E+04 -2.86513E+04 -5.52318E+03
 -2.00522E+04 -1.70860E+04 -9.02716E+03 -2.07180E+04  2.89721E+03 -1.94129E+04  1.62219E+04 -1.81907E+04
  2.63768E+04 -1.26977E+04  3.20527E+04  1.23507E+03  2.41194E+04  1.99312E+04  4.05240E+03  3.54869E+04
 -1.72232E+04  3.06662E+04 -2.84827E+04  1.01502E+04 -2.06252E+04 -9.74792E+03 -4.50726E+03 -1.37227E+04
  2.12127E+03 -2.81326E+03 -4.14221E+03  5.38313E+03 -1.65881E+04  7.16900E+03 -1.55929E+04 -6.78606E+03
 -1.04095E+04 -1.93084E+04  5.27517E+03 -2.19114E+04  1.54396E+04 -1.66611E+04  1.95446E+04 -1.92726E+03
  1.10884E+04  1.42992E+04 -1.23184E+03  2.00869E+04 -1.27684E+04  1.13550E+04 -1.85277E+04 -3.99330E+03
 -1.39084E+04 -1.70018E+04 -2.15009E+03 -2.27413E+04  9.11055E+03 -1.79474E+04  1.80882E+04 -8.60791E+03
  1.72787E+04  3.08293E+02  1.21884E+04  5.19425E+03  6.61310E+03  5.95777E+02  9.37342E+03 -5.95767E+02
  1.71350E+04  2.06255E+03  1.78745E+04  1.52209E+04  1.15178E+04  2.92626E+04 -3.10881E+03  3.25606E+04
 -1.91333E+04  2.62333E+04 -3.12006E+04  1.43522E+04 -3.35667E+04 -2.18330E+03 -2.69704E+04 -1.81792E+04
 -1.13353E+04 -2.63795E+04  8.47590E+03 -2.35815E+04  2.06294E+04 -1.29966E+04  1.74805E+04  5.55769E+03
  5.97030E+03  1.44899E+04 -8.65924E+03  1.25778E+04 -1.58649E+04  2.00186E+03 -1.11114E+04 -8.61559E+03
 -1.85432E+03 -1.51214E+04  7.88781E+03 -1.08638E+04  9.83542E+03  2.86815E+02  8.97090E+02  6.24404E+03
 -6.66714E+03  3.44930E+03 -5.67655E+03 -5.81289E+03 -5.87902E+02 -1.27549E+04  9.02042E+03 -1.32340E+04
  1.69451E+04 -6.49278E+03  1.79349E+04  2.19776E+03  1.52246E+04  1.22962E+04  6.77221E+03  1.82819E+04
 -3.50668E+03  2.11105E+04 -1.26287E+04  1.23586E+04 -1.50765E+04  2.12289E+03 -1.01793E+04 -2.29436E+03
 -4.82193E+03 -4.46226E+03 -3.20084E+02  1.10713E+03 -2.64802E+03  2.44450E+03 -4.27529E+03  4.19427E+03
 -1.08547E+04 -3.86360E+02 -1.07986E+04 -8.71819E+03 -4.54028E+03 -1.43986E+04  5.78313E+03 -9.93147E+03
  8.42789E+03 -5.06047E+03  7.45132E+03  2.68864E+03 -1.06959E+02  3.27377E+03 -4.23587E+03 -4.61681E+02
 -4.80345E+03 -5.70275E+03  8.06104E+01 -7.80221E+03  7.08140E+03 -1.09659E+04  1.26002E+04 -4.33448E+03
  1.56048E+04  8.15080E+02  1.03262E+04  9.45908E+03  2.25881E+03  1.13794E+04 -5.80136E+03  9.77307E+03
 -9.07763E+03  2.68767E+03 -4.76929E+03 -1.56633E+03  1.13328E+03 -1.52809E+03  6.41917E+03 -8.14048E+02
  3.49612E+03  4.04128E+03 -8.12347E+01  7.32464E+03 -7.03675E+03  7.57821E+03 -9.94445E+03  2.44277E+03
 -7.48645E+03 -4.39829E+03 -5.25623E+02 -9.25704E+03  4.68171E+03 -4.47120E+03  5.29424E+03  1.61518E+03
  1.39027E+03  3.76687E+03 -5.07636E+03  5.79344E+03 -7.64891E+03  3.13978E+03 -7.73870E+03 -2.43596E+03
 -4.42193E+03 -8.92745E+03  6.56326E+02 -9.39480E+03  9.02314E+03 -7.26136E+03  9.30702E+03 -1.78416E+02
  5.81756E+03  7.80510E+03 -8.50148E+02  1.00568E+04 -6.96388E+03  5.54908E+03 -7.85454E+03  5.37617E+02
 -6.15721E+03 -5.54665E+03 -1.82247E+03 -5.52803E+03  4.72147E+03 -6.47096E+03  4.84330E+03 -4.14225E+03
  2.52141E+03  4.76768E+02  6.19173E+02  6.34643E+02  6.51721E+02 -2.21444E+03  6.14120E+02 -3.29707E+03
  4.98119E+03 -1.81424E+03  9.17319E+03  1.60747E+03  7.98797E+03  6.62247E+03  6.99825E+03  9.94450E+03
 -1.76461E+03  1.25919E+04 -1.06443E+04  1.01557E+04 -1.27942E+04  2.01204E+03 -1.13016E+04 -4.47785E+03
 -6.06788E+03 -7.86929E+03 -3.64599E+02 -7.48040E+03  2.97095E+03 -4.10536E+03  3.01899E+03 -3.39084E+03
  2.12999E+03 -1.98569E+03  1.90718E+03 -2.38418E+03  3.72936E+03 -2.11018E+03  3.56487E+03  1.19761E+02
  6.71530E+03  1.00854E+03  2.53729E+03  4.53117E+03 -1.22869E+03  5.71999E+03 -6.39188E+03  4.61364E+03
 -7.50841E+03 -5.64698E+02 -3.22241E+03 -6.31202E+03  8.83976E+01 -7.72893E+03  3.99821E+03 -7.37648E+03
  8.45959E+03 -4.51162E+03  1.03873E+04  1.83861E+03  7.68693E+03  5.75269E+03  1.25449E+03  7.92894E+03
 -3.59109E+03  7.77796E+03 -5.95258E+03  3.17604E+03 -2.55708E+03 -9.51065E+02  6.81674E+01 -2.14064E+03
 -1.17102E+01 -2.35092E+02 -8.24330E+02  2.30481E+03 -3.12960E+03  1.62230E+03 -6.47015E+03 -2.14097E+02
 -3.49630E+03 -6.15721E+03  2.06246E+03 -7.39711E+03  3.56597E+03 -7.17661E+03  5.51245E+03 -1.55207E+03
  5.80462E+03  3.81927E+03  3.06908E+03  4.90461E+03 -2.47117E+03  6.42770E+03 -3.49462E+03  4.11109E+03
 -5.53554E+03  1.37545E+03 -3.94911E+03 -4.71549E+03  5.09675E+02 -5.45232E+03  1.65397E+03 -3.53320E+03
  3.72605E+03 -1.96863E+03  3.63378E+03  2.23628E+02  2.47746E+02  2.95011E+03  1.96982E+03 -1.29443E+02
  3.78494E+02  1.54351E+03  2.23940E+03  1.51541E+03  2.25665E+03  2.86396E+03  2.26263E+03  2.96422E+03
 -1.97044E+03  3.75542E+03 -4.24514E+03  5.31272E+03 -4.58325E+03  1.45154E+03 -6.59191E+03 -1.17656E+03
 -2.64492E+03 -5.74794E+03  1.14058E+03 -6.24573E+03  2.83972E+03 -4.09035E+03  5.26046E+03 -5.11544E+02
  4.45404E+03  3.46061E+03  1.57997E+03  3.80579E+03 -9.32005E+02  8.15492E+02 -2.10531E+03  9.31004E+02
 -1.09621E+03 -2.27365E+03  1.38235E+03 -2.79261E+03  2.89265E+03 -1.33427E+03  1.04136E+03  5.04460E+02
  1.51983E+03  1.28095E+03  4.65706E+02 -4.56575E+02  9.39524E+02  1.89166E+03  1.66188E+03 -1.42781E+03
  2.97595E+01 -4.30621E+02  2.41179E+03  2.52394E+03  1.53005E+03  3.83639E+03 -1.61745E+03  4.90636E+03
 -2.99604E+03  1.76891E+03 -2.98778E+03 -1.26179E+00 -3.24283E+03 -1.18297E+03 -3.90331E+02 -2.90314E+03
  5.67837E+02 -1.90306E+03  1.43980E+03 -2.17360E+03  1.40223E+03  8.93673E+02 -1.83997E+03  2.45754E+03
 -1.71011E+03  8.18498E+02 -1.16762E+03  4.03072E+01 -1.77750E+03 -3.88555E+03  1.11809E+03 -2.90639E+03
  1.54201E+03 -1.49697E+03  1.15929E+03  3.96468E+02  2.03731E+03  5.59864E+02  5.52063E+02  8.43633E+02
 -1.15561E+03  1.83140E+02 -2.22627E+03 -5.61614E+02  1.35023E+03 -2.42361E+03  2.20356E+03 -2.00375E+03
  2.17861E+03  4.15462E+01  3.56347E+03  1.49720E+03  1.44116E+03  2.32617E+03 -1.67717E+03  2.62333E+03
 -2.74143E+03  9.59798E+02 -3.99962E+03 -1.71349E+03 -7.57760E+02 -2.11752E+03  2.48611E+02 -7.77066E+02
  2.28067E+03 -1.71237E+03  1.95531E+03  1.19984E+03 -8.75896E+02  2.55573E+03  4.78784E+02  1.58938E+03
 -2.90282E+02  1.92699E+03 -7.53699E+02  1.80746E+03 -2.80455E+02  5.95410E+02 -1.31712E+03  1.81533E+03
 -2.04548E+02  1.76861E+03 -2.89574E+03  9.15897E+02 -3.38059E+03 -3.76338E+02 -4.91812E+03 -8.64826E+02
 -1.65199E+03 -3.75568E+03  3.99839E+02 -4.84330E+03  1.93625E+03 -3.70628E+03  5.28436E+03 -2.68232E+03
  3.30688E+03 -5.61487E+02  1.18611E+03  2.30979E+03 -2.52545E+01  2.48642E+03 -1.14840E+03  2.54752E+03
 -1.12883E+03  5.17745E+01 -1.15060E+03 -4.20162E+02 -5.84704E+02  6.40451E+02  3.01865E+01  2.68720E+02
 -7.27007E+02  4.30882E+02 -1.14026E+03 -4.02053E+02 -1.27315E+02 -2.60278E+02 -4.42867E+02 -1.92719E+03
  1.46528E+03 -1.12219E+03  1.27193E+03  4.13609E+02  1.75475E+03  2.00115E+03  1.38720E+02  2.27061E+03
 -1.50802E+03  2.32266E+03 -1.84626E+03  1.45699E+03 -3.57179E+03  1.02768E+03 -3.04178E+03 -1.98024E+03
 -3.74371E+02 -2.99799E+03  8.44381E+02 -1.11455E+03  1.11195E+03 -8.25485E+02  2.47765E+03  3.43424E+02
  4.86515E+02  8.47596E+02  1.38578E+03  1.63453E+03 -6.46740E+02  9.32089E+02 -7.43481E+02 -4.79067E+02
  7.13724E+02  6.98158E+02  7.07416E+01  1.73518E+02  1.97668E+02  4.07651E+02 -7.95829E+02  3.89626E+00
 -1.29305E+03  1.53236E+03 -2.02602E+03  8.65391E+02 -1.56501E+03  2.50322E+02 -1.34350E+02 -9.65653E+02
  1.47426E+03 -1.42821E+03  7.98099E+02 -1.09835E+02  2.01586E+03 -3.89645E+02  6.34743E+02  1.88549E+03
  1.30879E+03 -2.19517E+02  2.75163E+02  1.28077E+03  5.55345E+01  1.56292E+03 -4.75638E+02  1.77176E+02
 -3.16420E+02  5.80761E+02 -1.19248E+03  1.53408E+03  2.48802E+02 -1.25204E+02 -1.60800E+03  9.42191E+01
 -2.24267E+03 -9.48022E+01 -1.49268E+03 -1.58762E+03  1.47395E+03 -2.38178E+03  2.49258E+03 -3.28363E+02
  1.29249E+03  4.91648E+01 -2.02002E+02 -1.45968E+02 -8.69282E+02  1.11458E+03 -4.42681E+02  7.97484E+01
