 $NMID ID='MM_0lb_SNR200_10hz_g60_8.RAW', FMTDAT='(8E13.5)'
 TRAMP=1., VOLUME=1. $END
  3.10239E+05  4.85447E+01  3.37759E+05  2.50945E+05  8.39208E+04  3.37687E+05 -1.32069E+05  2.53184E+05
 -1.92850E+05  8.58166E+04 -1.13395E+05 -3.17508E+04  1.33710E+03 -5.18293E+04  5.37554E+04 -1.81083E+03
  3.45722E+04  5.35458E+04 -1.63837E+04  7.63252E+04 -6.02966E+04  6.43728E+04 -8.56081E+04  3.26804E+04
 -8.21060E+04 -1.07273E+04 -5.87430E+04 -5.23021E+04 -1.46290E+04 -7.28118E+04  2.87627E+04 -4.67109E+04
  4.20601E+04  3.69791E+03  1.67280E+04  4.92580E+04 -3.48237E+04  4.87348E+04 -7.00744E+04 -1.32898E+03
 -5.48119E+04 -5.84642E+04 -5.88088E+03 -7.87961E+04  3.39980E+04 -5.76916E+04  5.19778E+04 -1.84286E+04
  4.40334E+04  1.04324E+04  3.34208E+04  2.70168E+04  1.51487E+04  3.01089E+04 -5.26725E+03  2.75046E+04
 -2.18963E+04  1.20972E+04 -1.88985E+04 -6.13641E+03  7.01246E+03 -8.04769E+03  2.25387E+04  1.35052E+04
  6.51708E+03  3.73695E+04 -3.33817E+04  3.83306E+04 -6.69422E+04  1.59392E+03 -5.99297E+04 -4.51493E+04
 -1.21441E+04 -6.56325E+04  4.14453E+04 -4.76538E+04  6.13483E+04 -1.55969E+03  3.62974E+04  3.45764E+04
 -6.62635E+03  4.00734E+04 -3.30074E+04  1.85541E+04 -3.31102E+04 -2.95535E+03 -1.82677E+04 -1.09031E+04
 -1.15191E+04 -1.60487E+04  1.17532E+02 -2.01122E+04  8.67113E+03 -2.30283E+04  1.55849E+04 -1.08345E+04
  1.12122E+04  6.60832E+03 -9.83707E+03  1.49113E+04 -2.40966E+04 -7.93343E+03 -8.08706E+03 -3.73712E+04
  2.44708E+04 -4.78914E+04  5.31306E+04 -2.09804E+04  5.00429E+04  2.00699E+04  1.87856E+04  4.81432E+04
 -1.76876E+04  3.60649E+04 -2.69281E+04  3.91368E+03 -1.09694E+04 -3.06733E+04  2.06026E+04 -3.57604E+04
  4.36933E+04 -1.13278E+04  3.97814E+04  2.38512E+04  2.12155E+04  5.18371E+04 -7.63910E+03  5.50866E+04
 -3.49321E+04  3.68533E+04 -4.88107E+04  1.10535E+04 -4.69956E+04 -1.89450E+04 -2.59371E+04 -4.20522E+04
  8.20706E+03 -4.21762E+04  3.34148E+04 -1.53540E+04  3.00395E+04  1.20815E+04  5.71578E+03  2.01522E+04
 -1.28551E+04  8.55507E+03 -1.04378E+04 -7.14636E+03  5.57515E+03 -1.23344E+04  1.89882E+04  5.06973E+03
  1.56235E+04  2.36637E+04 -6.00784E+03  2.58024E+04 -2.30533E+04  1.49793E+04 -3.27151E+04 -3.67140E+03
 -2.52271E+04 -1.77758E+04 -9.99107E+03 -2.54589E+04  4.67096E+03 -2.54749E+04  1.93288E+04 -2.25236E+04
  3.34035E+04 -1.33370E+04  3.87475E+04  4.85366E+03  2.96096E+04  2.41781E+04  4.21666E+03  4.24473E+04
 -1.93494E+04  3.38339E+04 -3.11600E+04  1.14740E+04 -2.20298E+04 -9.91950E+03 -4.58071E+03 -1.26303E+04
  1.85379E+02  1.20518E+03 -8.44226E+03  9.32458E+03 -2.14688E+04  4.45996E+03 -1.93231E+04 -9.22454E+03
 -1.04081E+04 -2.43824E+04  7.15775E+03 -2.71716E+04  1.92699E+04 -1.94238E+04  2.31209E+04 -2.53281E+03
  1.44014E+04  1.54262E+04 -1.99357E+03  2.17940E+04 -1.71768E+04  1.48159E+04 -2.42847E+04 -6.84305E+03
 -1.60181E+04 -2.18285E+04 -2.91136E+03 -2.84074E+04  1.42439E+04 -2.44981E+04  2.51636E+04 -1.13461E+04
  2.19179E+04  9.55523E+02  1.56682E+04  5.99686E+03  9.82538E+03  1.60097E+03  1.26855E+04 -3.45872E+03
  2.20175E+04  4.18164E+03  2.68416E+04  1.81079E+04  1.75507E+04  3.71459E+04 -3.14008E+03  4.50438E+04
 -2.54251E+04  3.67041E+04 -4.12552E+04  1.96546E+04 -4.47435E+04 -4.76720E+03 -3.69421E+04 -2.70460E+04
 -1.48769E+04 -3.76670E+04  1.42369E+04 -3.40767E+04  2.98055E+04 -1.33605E+04  2.19543E+04  7.09545E+03
  8.51479E+03  1.76023E+04 -1.19113E+04  1.66336E+04 -2.03587E+04  1.40740E+03 -1.40296E+04 -1.32383E+04
 -1.73150E+03 -1.87462E+04  1.02263E+04 -1.54525E+04  1.32824E+04 -4.35792E+02  4.73144E+03  9.82802E+03
 -1.00402E+04  3.35964E+03 -7.71982E+03 -7.77525E+03 -2.46922E+03 -1.61109E+04  1.09612E+04 -1.81771E+04
  2.34459E+04 -1.24457E+04  2.51401E+04  3.51750E+03  2.36429E+04  1.76543E+04  9.97304E+03  2.74486E+04
 -5.96997E+03  3.21950E+04 -2.05379E+04  2.09145E+04 -2.21783E+04  3.44422E+03 -1.63875E+04 -6.30804E+03
 -6.15856E+03 -6.58205E+03 -1.00723E+03  1.74415E+03 -2.19409E+03  4.17074E+03 -7.36700E+03  6.54241E+03
 -1.41607E+04 -2.54359E+03 -1.52612E+04 -1.15054E+04 -6.29987E+03 -1.92607E+04  6.83004E+03 -1.59847E+04
  1.37838E+04 -7.17369E+03  8.41905E+03  3.93496E+03  1.82880E+02  5.97319E+03 -6.90648E+03  1.16481E+03
 -7.76691E+03 -1.09817E+04 -8.26916E+02 -1.39394E+04  8.98968E+03 -1.75516E+04  1.91588E+04 -9.23522E+03
  2.28960E+04  2.21691E+03  1.78134E+04  1.31244E+04  3.54934E+03  1.94361E+04 -8.91133E+03  1.54869E+04
 -1.38691E+04  5.24870E+03 -6.63333E+03 -2.48640E+03  1.91457E+03 -4.39568E+03  8.29743E+03 -2.64658E+03
  7.99582E+03  7.17834E+03  3.44527E+02  1.31889E+04 -9.38361E+03  1.34505E+04 -1.54334E+04  3.13581E+03
 -1.03073E+04 -9.71247E+03  2.47008E+02 -1.24652E+04  9.21941E+03 -6.75106E+03  1.04110E+04  3.13297E+03
  1.41437E+03  9.79264E+03 -7.29531E+03  1.25615E+04 -1.32520E+04  5.51481E+03 -1.38676E+04 -4.34111E+03
 -8.09950E+03 -1.52637E+04  2.23463E+03 -1.69440E+04  1.33059E+04 -1.11913E+04  1.53141E+04  3.54785E+03
  1.05787E+04  1.42205E+04 -3.96470E+02  1.51352E+04 -1.22208E+04  7.87912E+03 -1.30981E+04 -1.13808E+03
 -1.04579E+04 -9.59480E+03 -3.29491E+03 -1.23268E+04  7.18365E+03 -9.00751E+03  7.56601E+03 -3.50077E+03
  6.33644E+03  3.10505E+03  3.12615E+02  1.12688E+03 -1.99259E+03 -3.93760E+03  3.82732E+03 -8.12145E+03
  1.18428E+04 -4.74393E+03  1.55756E+04  5.18757E+02  1.48228E+04  1.07492E+04  9.66077E+03  2.08541E+04
 -5.36619E+03  2.41666E+04 -1.96522E+04  1.92446E+04 -2.66833E+04  4.18955E+03 -2.13870E+04 -7.97122E+03
 -1.05736E+04 -1.72150E+04  9.63555E+02 -1.35469E+04  5.19991E+03 -7.83298E+03  3.53550E+03 -6.41783E+03
  3.90147E+03 -2.34728E+03  4.71311E+03 -3.57246E+03  5.55360E+03 -4.29738E+03  6.88960E+03 -7.56087E+02
  1.19386E+04  2.17448E+03  4.93144E+03  1.01362E+04 -1.04529E+03  1.12422E+04 -1.04960E+04  9.48757E+03
 -1.59981E+04 -6.55340E+02 -9.12494E+03 -1.09261E+04 -7.00487E+02 -1.79716E+04  7.66345E+03 -1.42843E+04
  1.76560E+04 -8.24274E+03  1.84162E+04  2.58059E+02  1.44982E+04  1.35399E+04  3.42344E+03  1.75102E+04
 -7.64712E+03  1.51903E+04 -9.49188E+03  3.84871E+03 -5.94103E+03 -9.99538E+02 -1.83636E+03 -1.49046E+03
 -1.07631E+03 -7.06948E+02 -2.45785E+03  4.23318E+03 -8.38258E+03  3.61983E+03 -9.71352E+03 -1.03847E+03
 -6.95288E+03 -9.52508E+03 -7.61944E+02 -1.49447E+04  8.40602E+03 -1.22952E+04  1.32359E+04 -4.79135E+03
  1.53642E+04  7.74090E+03  7.06953E+03  1.22180E+04 -2.73913E+03  1.42648E+04 -1.10885E+04  1.00856E+04
 -1.26925E+04  2.26247E+03 -9.63777E+03 -9.36996E+03 -9.95543E+02 -1.33678E+04  6.28869E+03 -8.93674E+03
  9.50602E+03 -2.54046E+03  6.12099E+03  3.38805E+03  3.60795E+03  5.64968E+03  1.69749E+03  1.58208E+03
  3.71311E+03  7.94753E+02  3.94624E+03  1.44407E+03  2.85864E+03  5.18265E+03  2.99560E+03  6.48193E+03
 -3.23592E+03  1.24059E+04 -1.10608E+04  1.05565E+04 -1.51393E+04  1.79829E+03 -1.58039E+04 -5.91801E+03
 -8.20822E+03 -1.46028E+04  3.17289E+03 -1.55961E+04  9.19592E+03 -8.45529E+03  1.10637E+04 -1.06532E+03
  9.58771E+03  3.58214E+03  1.70969E+03  7.75396E+03 -4.20193E+03  4.02429E+03 -4.84962E+03  1.10934E+02
 -1.94613E+03 -7.47079E+03  3.32599E+03 -6.28432E+03  6.63607E+03 -1.98443E+03  4.89478E+03 -1.74811E+02
  3.88697E+03  1.99151E+03  1.40329E+03  1.93686E+03 -8.07489E+00  1.77609E+03  2.44296E+03 -2.81650E+02
  1.53110E+03 -5.25665E+02  5.83839E+03  3.07051E+03  1.83650E+03  6.25565E+03 -1.31138E+03  1.08042E+04
 -5.63603E+03  7.76481E+03 -9.04432E+03  1.06273E+03 -7.93679E+03 -3.55820E+03 -3.17601E+03 -5.26223E+03
 -1.45996E+02 -5.43032E+03  3.33995E+03 -2.57698E+03  2.70293E+03  2.84705E+03 -1.85414E+02  3.70426E+03
 -6.92285E+03  3.52977E+03 -6.91186E+03 -2.59189E+03 -3.82099E+03 -7.50777E+03  2.13611E+03 -8.51028E+03
  3.85450E+03 -3.59125E+03  7.04655E+03 -7.52751E+02  5.94818E+03  5.32793E+02  3.56869E+02  3.03896E+03
 -2.84776E+03  6.31208E+02 -3.08228E+03 -2.85625E+03  2.78352E+03 -4.89930E+03  7.46621E+03 -5.17555E+03
  9.74581E+03 -4.49573E+02  7.69937E+03  5.56479E+03  3.59138E+03  9.26113E+03 -2.94728E+03  7.96842E+03
 -7.27583E+03  3.11811E+03 -9.43729E+03  2.31907E+01 -5.09691E+03 -7.17266E+03  6.08712E+02 -4.97027E+03
  5.52081E+03 -2.24081E+03  3.66089E+03  2.35396E+03  4.58379E+01  4.73685E+03 -2.62202E+02  5.25127E+03
 -1.63919E+03  1.74555E+03 -1.89408E+03  8.89644E+02 -1.13676E+03 -6.74171E+02 -2.96657E+03  2.47837E+03
 -2.67799E+03  3.98312E+03 -7.00164E+03  3.28015E+03 -8.92868E+03 -4.49692E+02 -9.25263E+03 -5.46311E+03
 -5.13011E+03 -1.17238E+04  4.17416E+03 -1.42894E+04  9.68542E+03 -1.08160E+04  1.55026E+04 -4.51137E+03
  1.10959E+04  2.29984E+03  7.37875E+03  8.98330E+03  2.83900E+02  9.41754E+03 -5.18329E+03  7.05941E+03
 -6.23222E+03  3.29802E+03 -4.16014E+03 -1.51884E+03 -2.17261E+03 -2.89467E+02 -5.17717E+02 -1.53265E+03
 -2.00791E+03 -8.26801E+02 -3.34563E+03 -1.49384E+03 -1.00408E+03 -2.84820E+03 -4.55087E+02 -3.94727E+03
  2.88588E+03 -2.22885E+03  4.96248E+03 -2.17711E+02  5.80014E+03  5.56754E+03  9.48367E+02  9.52358E+03
 -3.47891E+03  1.13219E+04 -8.82646E+03  5.75488E+03 -1.10428E+04 -6.67526E+02 -8.32595E+03 -8.73064E+03
 -4.60084E+03 -8.55777E+03  5.78261E+02 -7.96148E+03  7.30590E+03 -4.91368E+03  6.20991E+03 -3.65421E+02
  2.36963E+03  3.53065E+03 -6.40654E+02  3.42668E+03 -2.61048E+03  2.77244E+02  7.84429E+00 -3.02907E+03
  3.64073E+03 -2.15546E+03  4.05429E+03  2.73733E+02  2.51519E+03  4.52116E+03 -1.04653E+03  4.64816E+03
 -2.96244E+03  4.75451E+03 -6.15070E+03 -2.00210E+03 -4.90571E+03 -3.20298E+03 -1.47188E+03 -7.40532E+03
  4.63159E+03 -6.04709E+03  5.39908E+03 -2.04072E+03  8.16066E+03  1.43019E+03  5.32988E+03  5.71177E+03
 -2.24723E+02  5.95529E+03 -3.93873E+03  4.54157E+03 -3.39667E+03  1.88991E+03 -4.16312E+03  1.30792E+03
 -1.55415E+03  4.79187E+02 -2.96877E+03  1.02660E+02 -2.21478E+03 -1.38621E+02 -4.41743E+03 -7.62316E+02
 -3.65731E+03 -3.65167E+03 -1.96572E+03 -5.66115E+03  3.49468E+03 -6.07823E+03  7.08520E+03 -1.99892E+03
  5.49902E+03  1.11077E+02  3.47031E+03  4.43200E+03 -9.55271E+02  7.87352E+03 -5.68952E+03  3.81316E+03
