 $NMID ID='MM_0lb_SNR200_8hz_g45_57.RAW', FMTDAT='(8E13.5)'
 TRAMP=1., VOLUME=1. $END
  3.11417E+05 -5.45919E+02  3.37951E+05  2.52451E+05  8.50792E+04  3.38845E+05 -1.34140E+05  2.51609E+05
 -1.90219E+05  8.43516E+04 -1.12763E+05 -3.28905E+04  1.19236E+03 -5.05654E+04  5.27337E+04  4.67246E+02
  3.50747E+04  5.36233E+04 -1.77389E+04  7.64487E+04 -6.05480E+04  6.30704E+04 -8.58046E+04  3.41314E+04
 -8.37961E+04 -1.05242E+04 -5.69304E+04 -5.22260E+04 -1.52600E+04 -7.16381E+04  2.84944E+04 -4.56409E+04
  4.19128E+04  3.25062E+03  1.61628E+04  4.73080E+04 -3.64435E+04  4.86849E+04 -6.84427E+04  7.56704E+02
 -5.68291E+04 -5.81183E+04 -7.43591E+03 -7.89254E+04  3.67553E+04 -5.79226E+04  4.87964E+04 -1.86306E+04
  4.69615E+04  1.15155E+04  3.47938E+04  2.69421E+04  1.69192E+04  3.14637E+04 -4.72843E+03  2.84475E+04
 -2.30988E+04  1.20668E+04 -1.81431E+04 -4.28353E+03  7.68656E+03 -8.90191E+03  2.39695E+04  1.33973E+04
  6.62163E+03  3.63701E+04 -3.37812E+04  3.53622E+04 -6.72902E+04  2.43511E+03 -5.96730E+04 -4.43899E+04
 -1.30290E+04 -6.47751E+04  4.27569E+04 -4.80066E+04  6.33118E+04 -1.30579E+03  3.70173E+04  3.28574E+04
 -4.84512E+03  3.84486E+04 -3.08392E+04  1.97472E+04 -3.22974E+04 -2.80458E+03 -1.77898E+04 -1.11920E+04
 -9.59964E+03 -1.67535E+04  4.24971E+02 -1.96677E+04  9.10366E+03 -2.36298E+04  1.44866E+04 -1.18635E+04
  1.02558E+04  5.88247E+03 -1.23379E+04  1.29554E+04 -2.37343E+04 -6.45901E+03 -9.01277E+03 -3.91485E+04
  2.62125E+04 -4.69466E+04  5.26076E+04 -2.06585E+04  4.92807E+04  2.15290E+04  1.80587E+04  4.78998E+04
 -1.75580E+04  3.35194E+04 -2.90146E+04  3.78601E+03 -1.24774E+04 -2.86270E+04  2.23572E+04 -3.70851E+04
  4.45753E+04 -1.12088E+04  4.07047E+04  2.62110E+04  2.30438E+04  5.13099E+04 -7.09135E+03  5.52574E+04
 -3.68813E+04  3.81307E+04 -4.67419E+04  1.02534E+04 -4.77335E+04 -2.06522E+04 -2.57073E+04 -4.38364E+04
  8.49974E+03 -4.24630E+04  3.42560E+04 -1.78484E+04  3.18457E+04  1.14197E+04  5.13106E+03  2.11832E+04
 -1.34211E+04  1.10127E+04 -1.20295E+04 -6.76907E+03  4.02950E+03 -1.14042E+04  1.82021E+04  4.94449E+03
  1.48824E+04  2.28882E+04 -6.06722E+03  2.61609E+04 -2.27701E+04  1.43141E+04 -3.25728E+04 -1.74357E+03
 -2.45681E+04 -1.89930E+04 -1.02248E+04 -2.56729E+04  4.64923E+03 -2.70072E+04  2.02669E+04 -2.40290E+04
  3.46343E+04 -1.23370E+04  3.85300E+04  5.48700E+03  2.68421E+04  2.33577E+04  5.08521E+03  4.01008E+04
 -1.95066E+04  3.49010E+04 -3.30382E+04  1.30997E+04 -2.22505E+04 -1.09528E+04 -4.46871E+03 -1.34475E+04
 -1.79116E+03 -9.56894E+02 -8.84536E+03  9.26940E+03 -2.13970E+04  4.26531E+03 -2.12974E+04 -9.67243E+03
 -1.13718E+04 -2.38685E+04  5.28393E+03 -2.80794E+04  1.82797E+04 -2.10827E+04  2.30266E+04 -6.86288E+02
  1.48862E+04  1.83118E+04 -9.72279E+02  2.40269E+04 -1.47807E+04  1.50356E+04 -2.34660E+04 -3.94488E+03
 -1.73261E+04 -2.33008E+04 -9.58322E+02 -2.78353E+04  1.51714E+04 -2.52014E+04  2.37564E+04 -1.29263E+04
  2.09763E+04  9.57158E+02  1.71115E+04  5.25100E+03  8.29504E+03  1.50075E+00  1.21544E+04 -1.33978E+03
  2.25584E+04  3.28402E+03  2.66608E+04  1.82824E+04  1.80952E+04  3.93237E+04 -2.29440E+03  4.52763E+04
 -2.54760E+04  3.88029E+04 -4.28871E+04  2.03668E+04 -4.60707E+04 -2.14851E+03 -3.73356E+04 -2.66604E+04
 -1.44958E+04 -3.77401E+04  1.38454E+04 -3.52440E+04  2.69888E+04 -1.54374E+04  2.49576E+04  7.63976E+03
  7.24363E+03  1.80771E+04 -1.18647E+04  1.62987E+04 -2.06797E+04  9.41541E+02 -1.54097E+04 -1.28750E+04
  4.39843E+02 -2.00882E+04  1.00002E+04 -1.44045E+04  1.41463E+04 -5.38840E+02  2.82443E+03  1.09733E+04
 -1.06244E+04  3.55360E+03 -1.13275E+04 -5.87266E+03 -8.16091E+02 -1.82613E+04  1.22409E+04 -2.05360E+04
  2.23522E+04 -1.24471E+04  2.72678E+04  4.82417E+03  2.57917E+04  1.92038E+04  9.63236E+03  3.03399E+04
 -5.44455E+03  3.17418E+04 -2.11972E+04  2.10963E+04 -2.41987E+04  3.64891E+03 -1.60208E+04 -6.40400E+03
 -7.55387E+03 -6.39517E+03 -1.44595E+03  2.23287E+03 -2.88260E+03  2.66706E+03 -7.33863E+03  6.02276E+03
 -1.62613E+04 -5.24256E+02 -1.49902E+04 -1.28704E+04 -6.39961E+03 -1.91052E+04  7.22003E+03 -1.57194E+04
  1.33740E+04 -8.20703E+03  9.82731E+03  6.06490E+03  1.69751E+03  6.32000E+03 -8.31838E+03  6.20034E+01
 -8.42515E+03 -1.01814E+04 -1.57985E+03 -1.61621E+04  1.06230E+04 -1.61501E+04  2.07304E+04 -1.03384E+04
  2.54703E+04  5.52338E+03  1.65626E+04  1.32702E+04  3.32773E+03  1.97314E+04 -1.02537E+04  1.62309E+04
 -1.31510E+04  4.14015E+03 -7.30379E+03 -3.09936E+03  3.13148E+03 -3.97102E+03  8.79752E+03  2.64054E+02
  8.84310E+03  5.83764E+03  2.10657E+03  1.35108E+04 -8.67691E+03  1.40791E+04 -1.63093E+04  4.08871E+03
 -1.17023E+04 -9.55677E+03  1.40786E+02 -1.26710E+04  1.03813E+04 -7.94538E+03  1.15908E+04  5.19252E+03
  1.81365E+03  1.11612E+04 -8.74918E+03  1.15584E+04 -1.54093E+04  6.63689E+03 -1.48349E+04 -4.80643E+03
 -9.65035E+03 -1.72550E+04  4.38264E+03 -1.92515E+04  1.49946E+04 -1.18241E+04  1.92422E+04  3.02641E+03
  1.09362E+04  1.46904E+04 -2.22166E+03  1.62218E+04 -1.34577E+04  1.00012E+04 -1.44211E+04 -1.34118E+03
 -1.22834E+04 -1.08433E+04 -1.52324E+03 -1.27595E+04  6.05601E+03 -9.75115E+03  8.24919E+03 -3.06832E+03
  5.03097E+03  2.39733E+03 -9.09233E+02  9.42821E+02 -1.50027E+03 -1.38402E+03  4.30232E+03 -6.89331E+03
  1.30898E+04 -5.51034E+03  1.79654E+04  2.42737E+02  1.60274E+04  1.05294E+04  1.01448E+04  2.04915E+04
 -4.96999E+03  2.64476E+04 -2.10322E+04  1.93325E+04 -2.66297E+04  3.66496E+03 -2.26611E+04 -8.66969E+03
 -1.17953E+04 -1.87409E+04 -9.57149E+02 -1.65792E+04  4.16614E+03 -8.25454E+03  5.44849E+03 -6.60749E+03
  4.45892E+03 -3.58341E+03  4.98909E+03 -4.01165E+03  6.47299E+03 -4.09668E+03  7.73285E+03 -1.11244E+03
  1.13524E+04  1.91468E+03  6.92584E+03  1.08272E+04 -8.27105E+02  1.18032E+04 -1.21035E+04  9.83603E+03
 -1.63538E+04 -1.81111E+03 -1.18079E+04 -1.20419E+04 -6.32110E+02 -1.79728E+04  9.89370E+03 -1.80896E+04
  1.92622E+04 -8.42739E+03  2.07225E+04  2.48426E+03  1.34847E+04  1.54865E+04  5.53134E+02  1.81758E+04
 -8.04385E+03  1.67900E+04 -1.14541E+04  5.13227E+03 -8.84926E+03 -6.52357E+02 -4.29781E+03 -2.31936E+03
 -9.75148E+02 -1.12529E+03 -3.55933E+03  3.00146E+03 -6.83308E+03  2.32639E+03 -9.06373E+03 -1.24497E+03
 -7.95370E+03 -9.89581E+03  4.75821E+02 -1.46191E+04  8.63655E+03 -1.52615E+04  1.64396E+04 -4.10090E+03
  1.60704E+04  8.44374E+03  8.00929E+03  1.47264E+04 -4.06466E+03  1.53583E+04 -1.11540E+04  8.90633E+03
 -1.46236E+04  6.03311E+02 -1.24235E+04 -1.05013E+04  3.85248E+02 -1.57462E+04  5.88874E+03 -1.09050E+04
  1.00136E+04 -3.17895E+03  6.77462E+03  4.77142E+03  2.68571E+03  7.09186E+03  2.67398E+03  2.19736E+03
  2.54757E+03  1.31295E+03  3.27023E+03  2.01254E+03  3.96671E+03  5.52907E+03  6.36166E+03  8.47682E+03
 -2.79571E+03  1.27060E+04 -1.13543E+04  1.18792E+04 -1.73942E+04  3.72644E+03 -1.71593E+04 -7.35336E+03
 -7.54289E+03 -1.79363E+04  2.38855E+03 -1.76352E+04  1.05880E+04 -1.40029E+04  1.42036E+04 -2.24801E+03
  1.05964E+04  7.87483E+03  2.27473E+03  8.23948E+03 -5.35205E+03  7.20483E+03 -8.05018E+03 -1.03636E+03
 -4.36601E+03 -7.70173E+03  3.47235E+03 -5.78319E+03  8.62029E+03 -1.27587E+03  5.50218E+03  9.97315E+02
  6.01386E+03  1.61414E+03  1.50652E+03  2.40014E+03 -1.48829E+03  3.13626E+03  1.54971E+03  4.02085E+01
  8.29020E+02 -6.96148E+02  8.08619E+03  2.04196E+03  3.91836E+03  8.67475E+03 -9.73933E+02  1.14884E+04
 -1.05850E+04  7.43030E+03 -9.68901E+03  7.08958E+02 -8.85355E+03 -3.87871E+03 -4.34137E+03 -6.16259E+03
  2.03872E+03 -6.88983E+03  4.52697E+03 -3.68993E+03  3.78220E+03  3.65177E+03 -1.32709E+03  6.31785E+03
 -7.43949E+03  5.33441E+03 -8.68297E+03 -4.77971E+03 -3.95739E+03 -8.52071E+03  3.42517E+03 -9.41720E+03
  6.40476E+03 -6.04141E+03  8.06979E+03 -1.39272E+03  6.40909E+03  2.97882E+03 -2.12882E+03  3.85197E+03
 -1.50023E+03  2.16791E+03 -4.89451E+03 -3.71827E+03  1.78224E+03 -8.37511E+03  8.70650E+03 -5.75832E+03
  1.04926E+04  2.71477E+03  1.00947E+04  8.40943E+03  3.39166E+03  1.18254E+04 -4.15655E+03  1.20069E+04
 -9.35385E+03  3.36849E+03 -1.00949E+04 -1.65880E+03 -5.24245E+03 -5.66991E+03  1.54724E+03 -7.26183E+03
  7.03566E+03 -2.59760E+03  4.17491E+03  3.26802E+03  2.56869E+03  6.51744E+03 -1.97690E+03  6.36916E+03
 -4.57215E+03  4.47484E+03 -2.77363E+03  2.96055E+02 -1.60865E+03 -7.38326E+02 -1.76962E+03  2.18454E+03
 -4.20321E+03  4.82053E+03 -6.47174E+03  5.60126E+03 -1.14955E+04  8.91926E+02 -1.26862E+04 -6.45737E+03
 -4.57515E+03 -1.68459E+04  3.83728E+03 -1.64279E+04  1.24423E+04 -1.26927E+04  1.70982E+04 -3.76532E+03
  1.57748E+04  3.75520E+03  9.10043E+03  1.09736E+04  2.99720E+02  1.31594E+04 -6.81182E+03  9.94884E+03
 -8.25482E+03  3.23060E+03 -3.39264E+03 -3.26979E+03 -2.55404E+03  2.73882E+02 -8.98948E+02  9.84932E+01
 -1.67467E+03  1.00203E+03 -2.11602E+03 -2.29501E+03 -1.99352E+03 -3.65278E+03  1.36952E+03 -4.61635E+03
  4.22206E+03 -2.84404E+03  8.28277E+03  1.10912E+03  9.05111E+03  6.41680E+03  1.71334E+03  1.03038E+04
 -4.73499E+03  1.41931E+04 -1.36810E+04  8.69305E+03 -1.53032E+04 -2.39598E+03 -1.12366E+04 -9.10698E+03
 -3.38183E+03 -1.25664E+04  3.52730E+03 -1.15951E+04  7.24700E+03 -7.64981E+03  7.83288E+03  1.02716E+03
  3.58574E+03  4.34538E+03 -4.85281E+02  4.73767E+03 -3.65770E+03 -5.32536E+02 -1.32943E+03 -2.19611E+03
  2.74767E+03 -1.80665E+03  4.27285E+03  1.57952E+03  3.30542E+03  3.61425E+03  4.57399E+02  7.32737E+03
 -5.29434E+03  5.82073E+03 -8.71891E+03  7.57596E+01 -7.48004E+03 -5.65058E+03  1.34437E+02 -1.27492E+04
  6.25559E+03 -8.31939E+03  9.64619E+03 -2.04015E+03  9.30156E+03  2.63871E+03  6.70828E+03  6.24998E+03
 -1.80516E+02  7.19396E+03 -2.42513E+03  7.22300E+03 -4.67488E+03  4.94996E+03 -4.65239E+03  6.08504E+02
 -1.76075E+03 -1.20941E+03 -2.44623E+03  6.00782E+02 -3.76681E+03  2.57899E+03 -6.97447E+03 -4.71298E+02
 -7.22790E+03 -3.12085E+03 -2.83308E+03 -8.24451E+03  4.54520E+03 -9.78323E+03  6.13415E+03 -3.91184E+03
  8.88409E+03  1.49022E+03  5.93893E+03  6.20653E+03 -1.87153E+03  7.07862E+03 -8.47979E+03  5.54563E+03
