 $NMID ID='MM_0lb_SNR200_18hz_g45_28.RAW', FMTDAT='(8E13.5)'
 TRAMP=1., VOLUME=1. $END
  3.10381E+05  3.04468E+02  3.37915E+05  2.50135E+05  8.39394E+04  3.38094E+05 -1.32828E+05  2.50666E+05
 -1.90320E+05  8.22844E+04 -1.10901E+05 -3.29702E+04  1.44277E+03 -5.00967E+04  5.40225E+04 -3.42369E+02
  3.50388E+04  5.26289E+04 -1.71848E+04  7.64602E+04 -6.06140E+04  6.33776E+04 -8.33179E+04  3.14689E+04
 -7.96678E+04 -9.81950E+03 -5.64247E+04 -5.06651E+04 -1.50260E+04 -6.92858E+04  2.59803E+04 -4.44051E+04
  3.83695E+04  4.15323E+03  1.56285E+04  4.63800E+04 -3.41613E+04  4.73380E+04 -6.48268E+04 -1.02211E+03
 -5.18231E+04 -5.57573E+04 -6.66254E+03 -7.58112E+04  3.31191E+04 -5.25681E+04  4.66356E+04 -1.66940E+04
  4.20286E+04  1.16284E+04  3.02857E+04  2.40961E+04  1.45612E+04  2.80069E+04 -5.38063E+03  2.69810E+04
 -2.16458E+04  1.36159E+04 -1.96252E+04 -4.42810E+03  4.33437E+03 -7.95966E+03  1.98577E+04  1.06179E+04
  6.96972E+03  3.34608E+04 -3.00168E+04  3.36590E+04 -6.14127E+04  2.23829E+03 -5.52848E+04 -4.08608E+04
 -1.23899E+04 -6.03731E+04  3.81223E+04 -4.25497E+04  5.56762E+04 -8.99530E+02  3.25172E+04  3.11069E+04
 -6.89175E+03  3.32911E+04 -2.88279E+04  1.27983E+04 -2.82418E+04 -6.09924E+03 -1.45365E+04 -9.87858E+03
 -8.92069E+03 -1.12661E+04 -8.89020E+02 -1.70463E+04  7.35064E+03 -2.24491E+04  1.52481E+04 -1.26244E+04
  1.17528E+04  4.26148E+03 -5.83115E+03  1.23412E+04 -2.04981E+04 -3.13925E+03 -8.26779E+03 -3.13132E+04
  2.18998E+04 -4.03095E+04  4.46162E+04 -1.82106E+04  4.28865E+04  1.84590E+04  1.46974E+04  4.16478E+04
 -1.49235E+04  3.06726E+04 -2.44388E+04  5.92880E+02 -8.16149E+03 -2.64277E+04  2.02842E+04 -3.24161E+04
  3.75367E+04 -8.23441E+03  3.19395E+04  2.23854E+04  1.60557E+04  4.24030E+04 -7.25232E+03  4.54574E+04
 -2.91832E+04  2.98621E+04 -3.74962E+04  9.12510E+03 -3.84973E+04 -1.43534E+04 -2.20305E+04 -3.46057E+04
  5.38202E+03 -3.41969E+04  3.01159E+04 -1.30610E+04  2.68408E+04  1.14756E+04  3.16339E+03  1.74699E+04
 -1.34019E+04  8.11930E+03 -8.24710E+03 -7.81283E+03  6.07107E+03 -1.03340E+04  1.77044E+04  6.46396E+03
  1.19876E+04  2.14937E+04 -6.05021E+03  2.32645E+04 -2.17283E+04  8.61811E+03 -2.53582E+04 -7.03097E+03
 -1.75563E+04 -1.63622E+04 -5.47417E+03 -1.73008E+04  5.10864E+03 -1.49619E+04  1.28244E+04 -1.49959E+04
  2.22754E+04 -1.20936E+04  2.85876E+04  1.55457E+03  2.18449E+04  1.61404E+04  4.38984E+03  3.14889E+04
 -1.58108E+04  2.73595E+04 -2.61571E+04  8.83227E+03 -1.96120E+04 -1.08360E+04 -4.23240E+03 -1.41582E+04
  2.33552E+03 -3.42788E+03 -2.64861E+03  6.37475E+03 -1.40105E+04  4.89264E+03 -1.36786E+04 -5.56303E+03
 -9.31376E+03 -1.59572E+04  4.08604E+03 -1.94993E+04  1.25612E+04 -1.45741E+04  1.51608E+04 -1.79315E+03
  8.84067E+03  1.16505E+04 -1.86526E+03  1.58234E+04 -1.06882E+04  9.31259E+03 -1.60728E+04 -4.12473E+03
 -1.18808E+04 -1.32185E+04 -2.08299E+03 -1.81169E+04  9.18800E+03 -1.56813E+04  1.58874E+04 -7.65816E+03
  1.42279E+04  1.53553E+02  1.02255E+04  4.11670E+03  4.61013E+03 -1.76136E+02  7.13689E+03 -2.10185E+03
  1.43848E+04  2.70789E+03  1.41415E+04  1.34264E+04  9.25142E+03  2.46110E+04 -3.18074E+03  2.70456E+04
 -1.54023E+04  2.07973E+04 -2.43685E+04  9.45086E+03 -2.58179E+04 -1.19931E+03 -2.16822E+04 -1.41202E+04
 -9.92859E+03 -2.12245E+04  7.53508E+03 -1.94133E+04  1.67135E+04 -1.10951E+04  1.69277E+04  5.47783E+03
  6.64040E+03  1.16456E+04 -8.08421E+03  1.02724E+04 -1.32991E+04  2.49482E+03 -1.00375E+04 -7.16741E+03
 -5.31967E+02 -1.19201E+04  5.51139E+03 -9.40189E+03  8.87439E+03 -1.22253E+03  2.46525E+03  6.21729E+03
 -5.54182E+03  1.54069E+03 -3.98922E+03 -4.79431E+03  9.28293E+02 -1.06077E+04  7.64208E+03 -1.07193E+04
  1.21965E+04 -4.81501E+03  1.19176E+04  1.98252E+03  1.06834E+04  9.75076E+03  5.11401E+03  1.42103E+04
 -2.02844E+03  1.73101E+04 -9.43482E+03  9.56343E+03 -1.15549E+04  3.42851E+03 -8.44626E+03 -2.56411E+03
 -3.94456E+03 -3.96822E+03 -5.17224E+02  1.19272E+03 -1.13294E+03  2.42645E+03 -3.37127E+03  3.34439E+03
 -8.97261E+03 -3.91292E+02 -8.14849E+03 -6.60054E+03 -2.80070E+03 -1.07135E+04  4.45234E+03 -8.65601E+03
  7.85566E+03 -3.19915E+03  5.17863E+03  2.24038E+03  6.80209E+02  1.90718E+03 -3.47848E+03 -7.01076E+01
 -3.26827E+03 -4.08789E+03 -6.00788E+02 -7.18135E+03  4.35573E+03 -7.92449E+03  1.00519E+04 -3.91195E+03
  1.19348E+04  6.02866E+02  8.15886E+03  6.50207E+03  2.37408E+03  8.92563E+03 -6.05157E+03  8.54109E+03
 -7.14678E+03  3.02147E+03 -2.43964E+03 -1.43863E+03  1.67019E+03 -2.20124E+03  6.01177E+03 -1.15140E+03
  4.00320E+03  3.04927E+03  2.22880E+03  6.44355E+03 -5.33860E+03  7.37942E+03 -8.68582E+03  2.81058E+03
 -5.08692E+03 -3.93795E+03 -3.17319E+02 -6.71166E+03  3.97802E+03 -3.05045E+03  3.63024E+03  9.28726E+02
  3.65057E+02  3.37946E+03 -4.45685E+03  5.39050E+03 -4.59498E+03  2.21257E+03 -5.12611E+03 -1.04526E+03
 -3.44499E+03 -6.42128E+03  1.33256E+03 -6.17857E+03  6.45730E+03 -5.36003E+03  6.59462E+03 -2.22211E+02
  4.10595E+03  6.01248E+03 -6.26846E+02  7.46989E+03 -4.62248E+03  4.41650E+03 -4.47266E+03 -3.13452E+02
 -5.73841E+03 -4.45438E+03 -1.07711E+03 -5.75508E+03  1.86341E+03 -4.32582E+03  2.95154E+03 -3.24738E+03
  3.10632E+03  2.08323E+02 -1.70025E+02  1.12466E+03  1.28757E+03  6.94134E+02  5.59939E+02 -2.57520E+03
  3.31071E+03 -1.35478E+03  5.19929E+03  8.24755E+01  5.46590E+03  2.90507E+03  6.50837E+03  7.31981E+03
 -2.18611E+03  9.25342E+03 -6.97774E+03  6.76311E+03 -1.05935E+04  9.44722E+02 -8.52283E+03 -1.76323E+03
 -4.18178E+03 -7.01505E+03 -1.40236E+03 -6.00200E+03  2.50097E+03 -1.18486E+03  2.73996E+03 -1.87819E+03
  1.03477E+03 -2.07857E+03  1.87906E+03 -2.32139E+03  2.95297E+03 -1.20470E+03  2.56083E+03  1.35291E+03
  4.94667E+03  1.31024E+03  1.50117E+03  4.99553E+03 -5.55526E+01  2.80214E+03 -5.17548E+03  2.48156E+03
 -5.26676E+03 -8.01337E+02 -3.17556E+03 -3.75464E+03  1.48562E+03 -4.61424E+03  4.23649E+03 -6.64699E+03
  5.28859E+03 -3.58037E+03  7.82855E+03  7.34979E+02  4.27857E+03  4.83561E+03  1.91038E+03  5.32823E+03
 -1.79441E+03  6.14698E+03 -3.20733E+03  1.41647E+03 -2.05927E+03 -1.28885E+03 -3.92845E+02 -8.56016E+02
 -4.46278E+02  7.02719E+01 -1.04364E+03  1.80976E+03 -2.08295E+03  1.55624E+03 -4.68121E+03  5.30036E+01
 -1.76928E+03 -4.92146E+03  3.02555E+02 -4.89516E+03  2.24011E+03 -4.45712E+03  2.94341E+03 -6.63316E+02
  3.71944E+03  2.39911E+03  1.95092E+03  3.99209E+03 -5.27034E+02  4.85589E+03 -1.98145E+03  4.02435E+03
 -3.47609E+03  1.75332E+03 -3.68975E+03 -2.84508E+03  1.00168E+02 -3.55115E+03  1.27625E+03 -2.75308E+03
  2.97564E+03 -5.76676E+02  1.50002E+03  9.18307E+02  6.18212E+02  1.45821E+03  1.53868E+03  1.01963E+03
  9.68650E+02  3.12222E+02  9.60156E+02  4.89277E+02  8.39989E+02  2.59087E+03  6.18935E+02  7.22994E+02
 -1.62317E+03  3.03187E+03 -2.71274E+03  4.83044E+03 -2.31180E+03  1.41640E+03 -4.20465E+03 -3.55157E+02
 -1.31120E+03 -3.28842E+03 -3.79661E+02 -5.37969E+03  1.26705E+03 -1.97047E+03  3.81695E+03 -1.25061E+03
  2.64725E+03  1.56492E+03  8.85749E+01  2.42711E+03 -3.32058E+02  1.28169E+03 -5.57803E+02 -7.15874E+02
 -2.11840E+03 -1.65009E+03  8.17167E+02 -2.08980E+03  2.10232E+03 -1.37237E+03  1.23767E+03  7.06867E+02
  6.88862E+01  9.46234E+02  4.03986E+02  8.32518E+01 -6.10350E+02  1.94438E+03  1.67125E+03 -7.52045E+02
 -8.94442E+02  8.78800E+02  7.39653E+02  2.18277E+02  3.16261E+02  1.10475E+03 -8.07506E+02  3.42987E+03
 -2.64081E+03  3.23994E+02 -3.29335E+03  4.65641E+02 -2.09414E+03 -1.42983E+03  4.37330E+02 -7.29401E+02
  1.04223E+03 -1.39566E+03  8.59696E+02 -7.91899E+02  6.79130E+02  3.66660E+02  2.43882E+02  8.33018E+02
 -1.51844E+03  9.06424E+02 -1.27834E+03 -8.15604E+02 -1.44581E+03 -3.14192E+03  5.29227E+02 -1.51464E+03
  1.34841E+03 -4.35702E+02  2.10801E+02  1.24540E+03  1.42507E+03 -1.23821E+02 -1.22773E+02  1.29845E+03
 -3.22071E+02 -2.80370E+02 -1.16950E+03  9.77854E+02  1.43405E+03 -8.94177E+02  2.41157E+03  1.05960E+03
  1.66220E+03  6.39093E+02  2.46306E+03  4.14190E+00  1.30438E+03  1.93409E+03 -4.50478E+02  1.88696E+03
 -1.57849E+03  2.89606E+02 -2.67531E+03 -1.10133E+03 -8.15372E+02 -1.79838E+03  1.09678E+03 -4.44424E+02
  1.43708E+03  4.86446E+01  1.11495E+03  2.35587E+02  5.49766E+01  4.60883E+02  3.49259E+02  5.53006E+02
 -1.06338E+02  8.97785E+02  4.94827E+02  9.80254E+02 -2.52684E+02  1.43152E+03 -1.00384E+03  9.66286E+02
 -1.40655E+03  1.22960E+03 -1.77871E+03  4.63071E+02 -4.69509E+02  8.30358E+02 -1.76117E+03 -2.55134E+03
 -1.00218E+03 -2.21581E+03  8.85986E+02 -2.52581E+03  1.57922E+03 -2.69638E+03  3.70648E+03 -9.01391E+02
  1.74007E+03  3.76150E+02  8.57747E+02  1.84421E+03 -3.55871E+02  2.06004E+03 -5.09659E+02  7.05115E+02
 -8.08840E+02  1.34822E+03 -1.88676E+03  2.36965E+02 -1.37007E+03 -1.77462E+02 -4.77034E+02 -1.93593E+02
 -1.84577E+03 -9.91158E+01 -7.99908E+02 -4.15913E+02 -9.51390E+02 -5.48711E+02 -1.39886E+02 -1.07199E+03
  1.22252E+03 -1.36621E+02  8.03935E+02  1.48531E+03  6.93129E+02 -5.39732E-01 -1.90367E+02  1.55082E+03
 -1.24601E+03  2.89836E+03 -1.85663E+03  2.14906E+03 -2.06770E+03 -4.37567E+01 -1.38134E+03 -1.01003E+03
 -5.53856E+02 -1.25003E+03 -4.01176E+01 -9.20276E+02 -6.05193E+01 -6.56566E+02  1.30432E+03  1.26770E+02
  1.04073E+03  6.39562E+02 -1.69044E+03 -8.61297E+02 -4.99327E+02 -9.02435E+02  2.09475E+02  2.77203E+02
 -3.00028E+02  3.44946E+02  7.77511E+02  1.68292E+02 -2.70926E+02  5.44837E+02  8.87394E+02  5.69545E+02
 -6.27072E+02  5.69694E+02 -4.15508E+02  9.17453E+02 -1.04814E+03  1.37651E+02 -5.46509E+01 -1.21594E+03
  1.77394E+03 -9.50531E+01  9.58545E+02  1.11513E+03 -4.27325E+01 -1.82450E+03 -2.76287E+02  7.56711E+02
 -1.92552E+02  2.29301E+02 -2.51617E+02  7.26257E+02 -8.10726E+02  2.09541E+03 -1.54118E+03 -1.63027E+02
  4.23273E+02  1.87298E+02 -2.35221E+02 -1.12125E+03 -7.90943E+02  3.87480E+02 -1.37483E+03 -1.27849E+03
 -1.07097E+03  2.68219E+02 -6.46023E+01 -2.06026E+03  1.89336E+03 -4.73307E+02  6.57077E+02 -3.84920E+02
  1.28307E+03  4.91989E+02 -8.71921E+02  1.47062E+03  3.94641E+02  6.39991E+02 -7.12637E+02 -6.15249E+02
