 $NMID ID='MM_0lb_SNR200_12hz_g50_3.RAW', FMTDAT='(8E13.5)'
 TRAMP=1., VOLUME=1. $END
  3.09487E+05  8.12232E+02  3.38287E+05  2.50758E+05  8.62136E+04  3.38077E+05 -1.33663E+05  2.52372E+05
 -1.90892E+05  8.29204E+04 -1.11654E+05 -3.21479E+04  1.08907E+03 -5.07406E+04  5.48470E+04 -6.06763E+02
  3.56979E+04  5.29071E+04 -1.66697E+04  7.51868E+04 -6.11790E+04  6.54358E+04 -8.44059E+04  3.30696E+04
 -8.13722E+04 -1.07765E+04 -5.85219E+04 -5.27513E+04 -1.58298E+04 -7.06534E+04  2.83782E+04 -4.69171E+04
  4.06022E+04  4.89173E+03  1.68592E+04  4.69119E+04 -3.33903E+04  4.74774E+04 -6.74359E+04 -4.70914E+02
 -5.31752E+04 -5.75942E+04 -6.95594E+03 -7.79786E+04  3.53876E+04 -5.51183E+04  4.76127E+04 -1.63730E+04
  4.45778E+04  1.10214E+04  3.16636E+04  2.57070E+04  1.59133E+04  3.08380E+04 -6.01616E+03  2.86512E+04
 -2.23417E+04  1.35395E+04 -1.69995E+04 -5.28156E+03  6.44015E+03 -7.34386E+03  2.39598E+04  1.35133E+04
  8.42947E+03  3.66119E+04 -3.32698E+04  3.56452E+04 -6.38934E+04  2.50929E+03 -5.74159E+04 -4.30537E+04
 -1.21414E+04 -6.42144E+04  4.07635E+04 -4.55168E+04  6.03502E+04 -1.92065E+03  3.51751E+04  3.35724E+04
 -6.12705E+03  3.65856E+04 -3.01287E+04  1.77548E+04 -3.19160E+04 -3.92323E+03 -1.75629E+04 -1.08333E+04
 -8.07232E+03 -1.23836E+04  2.14449E+02 -1.79300E+04  7.29044E+03 -2.25071E+04  1.53716E+04 -1.35686E+04
  1.12706E+04  5.44329E+03 -9.13848E+03  1.28057E+04 -2.27026E+04 -4.16094E+03 -8.09505E+03 -3.58198E+04
  2.44359E+04 -4.36498E+04  5.06834E+04 -2.06157E+04  4.71196E+04  2.12380E+04  1.57278E+04  4.56399E+04
 -1.58947E+04  3.23444E+04 -2.58711E+04  1.86435E+03 -1.03650E+04 -2.97438E+04  1.98297E+04 -3.54854E+04
  4.21701E+04 -9.03257E+03  3.84834E+04  2.40438E+04  1.84827E+04  4.74665E+04 -7.43596E+03  5.22373E+04
 -3.30121E+04  3.57079E+04 -4.42313E+04  1.10105E+04 -4.43515E+04 -1.69282E+04 -2.43034E+04 -3.98461E+04
  7.19551E+03 -4.07136E+04  3.21257E+04 -1.66270E+04  3.00727E+04  1.03230E+04  5.47813E+03  1.94933E+04
 -1.45363E+04  8.09465E+03 -1.11737E+04 -7.69791E+03  5.31006E+03 -1.15282E+04  1.79461E+04  5.41740E+03
  1.30735E+04  2.21230E+04 -6.85103E+03  2.65925E+04 -2.32328E+04  1.13860E+04 -3.00459E+04 -4.48309E+03
 -2.27841E+04 -1.69809E+04 -7.95358E+03 -2.34467E+04  4.12422E+03 -2.19650E+04  1.81494E+04 -2.02433E+04
  2.80212E+04 -1.49099E+04  3.52966E+04  4.28251E+03  2.54888E+04  2.13640E+04  4.22628E+03  3.88645E+04
 -1.84240E+04  3.10055E+04 -2.80662E+04  1.03496E+04 -2.07175E+04 -1.05542E+04 -4.77641E+03 -1.25150E+04
  1.31817E+03 -1.99048E+03 -7.18187E+03  7.83916E+03 -1.81797E+04  4.97765E+03 -1.78144E+04 -8.61033E+03
 -1.09233E+04 -2.10176E+04  5.69674E+03 -2.44623E+04  1.64019E+04 -1.79215E+04  2.05319E+04 -2.52195E+03
  1.08838E+04  1.33551E+04 -1.27854E+03  1.91933E+04 -1.21390E+04  1.18717E+04 -2.01318E+04 -3.70428E+03
 -1.42363E+04 -1.99279E+04 -1.28507E+03 -2.52237E+04  1.20915E+04 -2.11253E+04  2.09844E+04 -1.08337E+04
  1.90651E+04  3.11168E+01  1.37180E+04  4.43363E+03  7.72881E+03  1.04427E+03  1.08839E+04 -1.47927E+03
  1.96696E+04  2.43747E+03  2.21191E+04  1.54380E+04  1.42488E+04  3.31701E+04 -2.61027E+03  3.78193E+04
 -2.17244E+04  3.01949E+04 -3.49361E+04  1.65275E+04 -3.65141E+04 -2.78249E+03 -2.99890E+04 -2.08983E+04
 -1.40680E+04 -3.24864E+04  1.03409E+04 -2.78333E+04  2.34476E+04 -1.51754E+04  2.17042E+04  6.63866E+03
  8.67149E+03  1.67090E+04 -9.34311E+03  1.36551E+04 -1.69635E+04  3.20217E+03 -1.40897E+04 -1.07878E+04
  3.39415E+02 -1.88498E+04  8.69339E+03 -1.17067E+04  1.11165E+04 -2.09593E+03  3.50795E+03  8.63256E+03
 -8.48881E+03  4.92842E+03 -6.26531E+03 -5.90325E+03 -5.38009E+02 -1.43759E+04  1.13300E+04 -1.63585E+04
  1.99235E+04 -8.48064E+03  2.07045E+04  3.88120E+03  1.72812E+04  1.59354E+04  9.56957E+03  2.30523E+04
 -5.87594E+03  2.53203E+04 -1.64658E+04  1.54905E+04 -1.72634E+04  1.40699E+03 -1.26161E+04 -4.21261E+03
 -5.99183E+03 -6.38769E+03 -7.80454E+02  1.91277E+03 -3.70516E+03  2.04178E+03 -5.45940E+03  5.03645E+03
 -1.14146E+04 -8.52659E+02 -1.20661E+04 -9.79628E+03 -6.50885E+03 -1.71175E+04  5.87038E+03 -1.37872E+04
  9.75933E+03 -5.75812E+03  8.61186E+03  2.40506E+03 -2.05545E+02  4.75967E+03 -5.36186E+03 -3.83935E+02
 -7.22315E+03 -9.09271E+03 -2.45481E+02 -1.19305E+04  6.53578E+03 -1.27226E+04  1.78038E+04 -6.99991E+03
  1.96034E+04  2.94840E+03  1.37326E+04  1.18264E+04  3.54438E+03  1.50823E+04 -8.16881E+03  1.24245E+04
 -1.14079E+04  3.77636E+03 -5.00578E+03 -3.76791E+03  8.67726E+02 -1.99050E+03  7.94979E+03 -1.88576E+03
  5.58098E+03  5.04862E+03  8.87796E+02  9.46409E+03 -6.92110E+03  1.11148E+04 -1.35542E+04  2.03247E+03
 -7.01264E+03 -7.11302E+03  4.41001E+02 -1.02139E+04  5.71171E+03 -5.20742E+03  6.72507E+03  1.36752E+03
  1.63229E+03  7.85925E+03 -5.70167E+03  9.50231E+03 -1.07764E+04  4.69939E+03 -1.03726E+04 -4.36201E+03
 -5.19225E+03 -1.29858E+04  2.40003E+03 -1.34227E+04  1.26476E+04 -8.05886E+03  1.18819E+04  1.90153E+03
  9.76604E+03  1.05097E+04 -1.60371E+03  1.15219E+04 -9.36064E+03  5.77334E+03 -9.11688E+03 -9.55724E+02
 -8.58552E+03 -8.76131E+03 -1.77299E+03 -9.04609E+03  6.11654E+03 -6.88525E+03  6.42434E+03 -3.02629E+03
  3.65848E+03  1.63800E+03 -5.61311E+01  2.65738E+03 -1.04963E+03 -2.31633E+03  1.90024E+03 -6.57857E+03
  8.59039E+03 -3.04270E+03  1.07056E+04  1.04324E+03  1.11569E+04  6.85578E+03  9.01078E+03  1.49467E+04
 -3.24776E+03  1.81474E+04 -1.42583E+04  1.23878E+04 -1.82909E+04  1.42320E+03 -1.56679E+04 -6.80647E+03
 -8.58538E+03 -1.32550E+04 -7.84490E+02 -1.15820E+04  3.51198E+03 -6.26335E+03  3.61334E+03 -3.74784E+03
  4.28381E+03 -3.42758E+03  3.00468E+03 -2.18961E+03  6.13137E+03 -1.84840E+03  5.91738E+03 -1.40751E+03
  8.55956E+03  2.12342E+03  4.98497E+03  6.50303E+03 -1.32037E+03  9.12867E+03 -8.54996E+03  6.15208E+03
 -1.12063E+04 -9.80886E+02 -5.78720E+03 -6.57575E+03 -8.03835E+02 -1.03969E+04  6.75703E+03 -1.14863E+04
  1.11189E+04 -6.52477E+03  1.52727E+04  1.71416E+03  1.00397E+04  9.71738E+03  2.10414E+03  1.39893E+04
 -5.75972E+03  1.16819E+04 -6.84429E+03  3.63856E+03 -5.31341E+03 -8.60024E+02 -7.62021E+02 -9.33516E+02
 -8.33244E+02  2.58724E+02 -1.34112E+03  2.40928E+03 -5.22414E+03  1.53413E+03 -8.27166E+03 -1.35460E+02
 -3.92664E+03 -5.32577E+03  3.97285E+02 -1.05708E+04  6.31168E+03 -1.01871E+04  9.45962E+03 -2.18062E+03
  1.07459E+04  3.91830E+03  5.17056E+03  9.63269E+03 -2.59234E+03  1.14250E+04 -6.10648E+03  5.77433E+03
 -1.03507E+04 -1.60228E+02 -9.44079E+03 -5.61370E+03 -1.28938E+03 -7.89031E+03  5.21606E+03 -6.32292E+03
  5.22436E+03 -2.37165E+03  6.89431E+03  1.86132E+03  4.26388E+02  2.58314E+03  2.11219E+03  1.13148E+03
  1.20179E+03  1.23959E+03  2.96746E+03  1.76442E+03  2.30665E+03  4.08946E+03  1.76288E+03  5.91674E+03
 -2.34261E+03  9.44835E+03 -7.09711E+03  7.82448E+03 -1.01945E+04  1.70716E+03 -1.05505E+04 -5.21117E+03
 -6.09802E+03 -9.39278E+03  2.41639E+03 -1.04263E+04  5.25781E+03 -6.34797E+03  8.13543E+03 -1.58696E+03
  6.71334E+03  3.18603E+03  1.57604E+03  6.61575E+03 -1.89312E+03  4.23966E+03 -3.66041E+03  6.38577E+02
 -1.71473E+03 -5.43757E+03  3.22881E+03 -6.15079E+03  3.62424E+03 -1.71559E+03  5.34318E+03  1.54615E+03
  2.96617E+03  2.43362E+03  9.22766E+02  6.22544E+02  5.71911E+02  2.25989E+03  2.03380E+03 -7.05643E+02
  1.16736E+03 -2.94844E+02  2.79757E+03  1.06719E+03  2.14339E+03  5.46533E+03 -1.42790E+03  6.89938E+03
 -5.76196E+03  4.25655E+03 -4.83700E+03  9.35863E+02 -5.43528E+03 -1.98913E+03 -3.54344E+03 -2.89099E+03
  1.28647E+02 -2.87704E+03  1.83109E+03 -2.14507E+03  1.47700E+03  2.35783E+03 -1.57392E+03  2.61285E+03
 -4.71007E+03  3.52194E+03 -4.43163E+03 -3.11873E+03 -3.64373E+03 -6.71706E+03 -2.98469E+02 -6.33664E+03
  2.37250E+03 -3.34847E+03  3.59024E+03 -1.42841E+03  2.77456E+03 -5.82315E+02 -8.96288E+01  4.52160E+03
 -2.73072E+03 -2.73648E+02 -2.20315E+03 -7.47811E+02  7.23506E+02 -5.95699E+03  5.43869E+03 -2.78327E+03
  5.58753E+03  4.50316E+02  6.34687E+03  4.20634E+03  1.33581E+03  6.08642E+03 -2.49031E+03  5.73031E+03
 -5.59144E+03  1.28763E+03 -5.21027E+03  4.41219E+02 -6.71782E+02 -3.60401E+03  8.18180E+02 -3.63245E+03
  4.40195E+03 -2.84213E+03  4.39535E+03  4.16826E+01  1.94259E+02  3.19484E+03 -9.55381E+02  4.07968E+03
 -7.73114E+02  4.12738E+03 -2.48358E+03  1.10094E+03 -4.45032E+02  6.01194E+02 -2.57366E+02  2.15980E+03
 -1.29144E+03  2.73814E+03 -4.34383E+03  2.33739E+03 -5.50973E+03 -3.50892E+02 -6.40485E+03 -4.54684E+03
 -3.82999E+03 -7.93646E+03  1.94702E+03 -9.37740E+03  6.40403E+03 -7.92591E+03  9.87271E+03 -4.22834E+03
  7.12162E+03  2.71987E+03  6.31298E+03  6.44126E+03  1.35801E+03  6.24418E+03 -1.27825E+03  5.01536E+03
 -2.90894E+03  1.88888E+03 -2.19942E+03 -9.64808E+02  2.90634E+02 -7.10589E+02  1.76758E+03  4.07774E+02
 -8.38108E+02  7.94254E+01 -1.62671E+03 -6.22664E+02 -9.18429E+02 -1.81951E+03  1.08287E+03 -3.30189E+03
  1.48278E+03 -2.13661E+03  3.16117E+03 -2.23574E+02  4.22225E+03  3.47283E+03  6.82999E+02  4.98332E+03
 -2.50401E+03  7.33895E+03 -6.67711E+03  4.36002E+03 -7.05753E+03 -6.28133E+02 -4.60862E+03 -4.35506E+03
 -2.44012E+03 -5.96499E+03  1.07513E+03 -6.08200E+03  4.52679E+03 -2.86122E+03  2.55916E+03 -3.77299E+02
  1.72493E+03  1.44508E+03  4.20985E+02  1.10183E+03 -3.12514E+03 -9.87731E+02 -8.97896E+02 -1.74694E+03
  1.24343E+03  1.07216E+03  2.19105E+03  2.26817E+03  1.93359E+03  2.68692E+03  4.76418E+02  2.71553E+03
 -1.43517E+03  3.86270E+03 -4.41749E+03 -1.32545E+03 -3.01442E+03 -3.07340E+03  2.38567E+01 -4.40560E+03
  2.83359E+03 -5.24165E+03  2.92287E+03 -1.43557E+03  4.84900E+03  8.29287E+02  1.75603E+03  2.86984E+03
 -4.86327E+02  2.04762E+03 -9.42428E+02  3.25057E+03 -3.06850E+03  1.45837E+03 -2.66074E+03  1.76199E+02
 -8.59142E+02 -1.15994E+03 -2.59559E+03  1.73780E+03 -1.46814E+03  3.35992E+02 -2.85461E+03  2.29745E+01
 -3.75694E+03 -1.17559E+03 -2.54216E+03 -5.38657E+03  1.47383E+03 -5.16479E+03  4.33414E+03 -3.69186E+02
  4.02634E+03  4.44363E+02  1.95450E+03  2.61638E+03 -8.81704E+02  3.63400E+03 -3.04446E+03  1.44174E+03
