 $NMID ID='MM_0lb_SNR200_12hz_g45_19.RAW', FMTDAT='(8E13.5)'
 TRAMP=1., VOLUME=1. $END
  3.09949E+05  1.20469E+03  3.37963E+05  2.51269E+05  8.44457E+04  3.37951E+05 -1.33417E+05  2.51351E+05
 -1.90891E+05  8.19520E+04 -1.11934E+05 -3.15490E+04  2.22375E+03 -5.03306E+04  5.41987E+04 -3.84525E+02
  3.69750E+04  5.34250E+04 -1.65877E+04  7.57284E+04 -6.07776E+04  6.36691E+04 -8.43551E+04  3.27153E+04
 -8.10418E+04 -1.02186E+04 -5.92011E+04 -5.11136E+04 -1.38903E+04 -6.93110E+04  2.72305E+04 -4.65593E+04
  4.06227E+04  4.32795E+03  1.60268E+04  4.94564E+04 -3.55984E+04  4.81142E+04 -6.62772E+04  1.38460E+02
 -5.45997E+04 -5.71172E+04 -6.74041E+03 -7.80863E+04  3.50940E+04 -5.55342E+04  4.94194E+04 -1.69242E+04
  4.35084E+04  1.12733E+04  3.27278E+04  2.61526E+04  1.47472E+04  2.97791E+04 -5.43168E+03  2.73158E+04
 -2.33929E+04  1.21496E+04 -1.83270E+04 -5.09139E+03  6.53364E+03 -7.47580E+03  2.20930E+04  1.23341E+04
  7.91334E+03  3.63469E+04 -3.34676E+04  3.63847E+04 -6.43294E+04  1.63934E+03 -5.75875E+04 -4.23848E+04
 -1.33593E+04 -6.51094E+04  4.02674E+04 -4.46179E+04  5.88143E+04 -3.76707E+03  3.42546E+04  3.18670E+04
 -4.26813E+03  3.66618E+04 -2.98034E+04  1.71661E+04 -3.14430E+04 -2.93041E+03 -1.76985E+04 -1.18088E+04
 -8.01776E+03 -1.38450E+04 -6.82983E+02 -1.77669E+04  7.90888E+03 -2.27868E+04  1.45273E+04 -1.37934E+04
  1.09492E+04  6.75013E+03 -1.00901E+04  1.43724E+04 -2.15348E+04 -5.00980E+03 -7.47733E+03 -3.46780E+04
  2.35308E+04 -4.40142E+04  4.94106E+04 -2.07101E+04  4.69240E+04  1.99077E+04  1.70830E+04  4.48255E+04
 -1.63991E+04  3.54658E+04 -2.70612E+04  2.23727E+03 -1.03161E+04 -2.94783E+04  2.20720E+04 -3.47558E+04
  4.20661E+04 -9.52822E+03  3.65249E+04  2.36559E+04  1.86933E+04  4.92444E+04 -8.95444E+03  5.17610E+04
 -3.25228E+04  3.63860E+04 -4.32201E+04  9.51676E+03 -4.34802E+04 -1.64733E+04 -2.36881E+04 -3.88578E+04
  7.25934E+03 -3.85813E+04  3.05551E+04 -1.56318E+04  2.99756E+04  1.13722E+04  4.01698E+03  2.07414E+04
 -1.32284E+04  7.79292E+03 -1.00887E+04 -7.86845E+03  5.81660E+03 -1.17562E+04  1.81931E+04  5.53172E+03
  1.41774E+04  2.32018E+04 -6.20896E+03  2.54656E+04 -2.28924E+04  1.13001E+04 -2.99389E+04 -4.94316E+03
 -2.16950E+04 -1.69528E+04 -9.17625E+03 -2.10947E+04  3.66121E+03 -2.02119E+04  1.65173E+04 -1.99622E+04
  2.83460E+04 -1.26586E+04  3.45020E+04  3.42753E+03  2.57053E+04  2.11533E+04  5.14793E+03  3.70428E+04
 -1.88714E+04  3.06495E+04 -2.83167E+04  1.05543E+04 -2.02312E+04 -1.02380E+04 -4.26820E+03 -1.36922E+04
  1.37215E+03 -2.97458E+03 -6.92924E+03  6.67262E+03 -1.67942E+04  5.44575E+03 -1.80183E+04 -8.96649E+03
 -9.26047E+03 -2.07662E+04  5.54047E+03 -2.26362E+04  1.66069E+04 -1.71408E+04  1.96282E+04 -9.64644E+02
  1.29361E+04  1.51618E+04 -2.67072E+02  1.97881E+04 -1.45427E+04  1.12958E+04 -1.97867E+04 -4.90532E+03
 -1.49622E+04 -1.75435E+04 -2.45004E+03 -2.57702E+04  1.10951E+04 -1.80203E+04  2.20886E+04 -1.13841E+04
  1.93939E+04 -3.37323E+02  1.34604E+04  4.69215E+03  7.78703E+03  7.10737E+02  1.08883E+04 -1.30188E+03
  1.98640E+04  3.30388E+03  2.03370E+04  1.48074E+04  1.44108E+04  3.28876E+04 -2.49042E+03  3.82813E+04
 -2.17476E+04  3.06003E+04 -3.57527E+04  1.58923E+04 -3.71226E+04 -1.79565E+03 -2.93538E+04 -2.17353E+04
 -1.29899E+04 -3.04080E+04  1.06680E+04 -2.66455E+04  2.29712E+04 -1.41878E+04  2.20438E+04  6.45121E+03
  7.60781E+03  1.50197E+04 -1.10222E+04  1.28162E+04 -1.75985E+04  2.24291E+03 -1.31975E+04 -1.10885E+04
  2.56038E+01 -1.77980E+04  8.88634E+03 -1.28801E+04  1.12900E+04 -1.07990E+03  1.70017E+03  7.51834E+03
 -6.85951E+03  2.65230E+03 -6.88537E+03 -6.71640E+03 -1.97719E+03 -1.47557E+04  1.05090E+04 -1.50972E+04
  1.96963E+04 -9.65442E+03  2.10116E+04  2.90553E+03  1.89816E+04  1.50290E+04  8.66288E+03  2.34663E+04
 -3.29898E+03  2.57533E+04 -1.62843E+04  1.57161E+04 -1.88246E+04  5.24249E+03 -1.14992E+04 -4.58358E+03
 -4.44012E+03 -4.17130E+03  8.50070E+02  1.03142E+03 -2.74483E+03  3.03641E+03 -6.58845E+03  4.94548E+03
 -1.17160E+04  2.66193E+02 -1.16654E+04 -9.00906E+03 -5.05088E+03 -1.45222E+04  6.01313E+03 -1.16110E+04
  1.02828E+04 -6.15585E+03  6.67486E+03  3.57868E+03  3.81533E+02  5.36683E+03 -6.11606E+03 -6.19983E+02
 -6.70393E+03 -8.14248E+03 -1.08151E+03 -1.07831E+04  6.80681E+03 -1.26002E+04  1.68479E+04 -6.38170E+03
  1.63599E+04  2.23474E+03  1.41423E+04  1.03111E+04  1.58960E+03  1.44482E+04 -9.03470E+03  1.19395E+04
 -9.19313E+03  4.01724E+03 -4.61792E+03 -3.06001E+03  2.34626E+03 -3.67200E+03  7.10441E+03 -1.37343E+03
  6.21761E+03  4.73730E+03 -3.73062E+02  1.01888E+04 -7.86748E+03  9.39486E+03 -1.26226E+04  3.20940E+03
 -7.06258E+03 -7.09277E+03  1.86370E+01 -9.36487E+03  6.91345E+03 -5.66035E+03  6.14458E+03  1.96477E+03
  1.19353E+02  6.67234E+03 -5.88976E+03  9.20898E+03 -9.38726E+03  3.69657E+03 -1.09135E+04 -2.49738E+03
 -5.86139E+03 -1.05863E+04  1.95727E+03 -1.36422E+04  1.06954E+04 -7.80288E+03  1.18258E+04  2.09357E+03
  8.29799E+03  9.56301E+03 -7.81122E+02  1.13834E+04 -7.94795E+03  7.69204E+03 -8.49334E+03 -3.32202E+02
 -6.96317E+03 -8.80884E+03 -1.69690E+03 -8.56748E+03  3.74336E+03 -7.09210E+03  5.86860E+03 -4.23941E+03
  4.62930E+03  8.41382E+02 -9.57241E+02  1.08870E+03  1.17058E+03 -2.52858E+03  8.77692E+02 -5.41919E+03
  9.52484E+03 -1.78459E+03  1.30518E+04  1.14984E+03  1.22519E+04  6.37792E+03  8.66605E+03  1.56981E+04
 -3.45774E+03  1.79413E+04 -1.47952E+04  1.34939E+04 -1.86053E+04  2.51481E+03 -1.40733E+04 -4.17844E+03
 -8.44157E+03 -1.16784E+04  2.47432E+02 -9.52738E+03  5.68926E+03 -4.69075E+03  4.59337E+03 -2.46527E+03
  1.51864E+03 -1.44713E+03  2.72809E+03 -4.22228E+03  7.01027E+03 -3.60808E+03  5.45943E+03 -1.50620E+03
  8.55857E+03  1.92106E+03  3.61704E+03  7.38246E+03 -1.86125E+02  8.30364E+03 -7.98460E+03  6.86645E+03
 -1.03841E+04 -1.24290E+03 -6.13714E+03 -6.68662E+03  1.14966E+03 -9.50133E+03  6.09437E+03 -1.10308E+04
  1.11702E+04 -6.13477E+03  1.40496E+04  2.13599E+03  1.01975E+04  8.28486E+03  1.06566E+03  1.18806E+04
 -5.34121E+03  9.91383E+03 -6.47745E+03  2.74089E+03 -4.37282E+03 -6.89262E+02 -1.66382E+03  6.34130E+00
 -1.18320E+03  2.22391E+02 -1.44127E+03  3.57692E+03 -5.40490E+03  2.21239E+03 -6.86449E+03  1.63019E+02
 -5.50440E+03 -7.83106E+03  7.58493E+02 -1.12827E+04  6.78956E+03 -8.73780E+03  9.07288E+03 -2.04901E+03
  9.11458E+03  5.60014E+03  4.06543E+03  7.77109E+03 -2.40632E+03  1.04690E+04 -5.87808E+03  6.85054E+03
 -9.33441E+03  6.56095E+01 -8.14549E+03 -7.36535E+03 -2.61764E+02 -8.07320E+03  3.11293E+03 -6.52687E+03
  4.83478E+03 -2.45177E+03  5.71340E+03  7.17271E+02  2.11142E+03  3.62460E+03  1.32747E+03  2.88496E+03
  4.51906E+02  3.43341E+02  3.34725E+03  5.64633E+02  2.40549E+03  4.17399E+03  9.41179E+02  4.46349E+03
 -2.25244E+03  6.87206E+03 -6.12913E+03  8.02020E+03 -9.95018E+03  2.93188E+03 -1.06863E+04 -2.62211E+03
 -4.35574E+03 -9.44109E+03  1.41481E+03 -1.08717E+04  6.15508E+03 -7.58238E+03  9.62269E+03 -2.84697E+03
  4.95633E+03  4.01000E+03  2.48991E+03  4.82124E+03 -2.30061E+03  4.31798E+03 -5.24975E+03 -7.31742E+02
 -2.95240E+03 -4.09568E+03  1.56865E+03 -4.84360E+03  3.24571E+03 -2.15984E+03  4.13611E+03  1.48834E+03
  1.87838E+03  1.38262E+03  2.30301E+03  2.83948E+02 -7.56905E+02  1.71110E+03  2.23635E+03  7.56576E+02
  1.41358E+03  4.32125E+02  4.06494E+03  9.87980E+02  2.40259E+03  5.80614E+03  1.47533E+02  6.24404E+03
 -5.31342E+03  4.44015E+03 -5.34049E+03  1.02466E+03 -6.11288E+03 -1.96021E+03 -1.76292E+03 -4.02061E+03
  1.33405E+03 -3.90189E+03  1.16482E+03 -1.32030E+03  1.91284E+03  3.20697E+03 -3.64655E+02  1.73131E+03
 -4.94434E+03  1.54851E+03 -3.55592E+03 -2.29719E+03 -1.86700E+03 -5.47215E+03  4.92869E+02 -5.18493E+03
  2.62780E+03 -1.91908E+03  4.06205E+03 -1.08731E+03  1.87264E+03  5.52182E+02  9.45853E+02  4.91954E+03
 -2.21602E+03  9.47693E+02 -1.56162E+03 -2.14826E+03  1.53545E+02 -3.25279E+03  4.07945E+03 -3.25135E+03
  5.35633E+03  1.43873E+03  5.49228E+03  4.18388E+03  1.46419E+03  6.18665E+03 -2.80894E+03  5.93045E+03
 -4.79240E+03  1.26890E+03 -3.44339E+03 -7.34270E+02 -2.88573E+03 -5.67418E+03 -3.58499E+02 -2.55225E+03
  4.47132E+03 -1.57182E+03  2.57569E+03  1.75571E+03  2.18776E+03  3.15918E+03  1.95606E+02  2.93347E+03
 -1.36034E+03  2.51523E+03 -8.53540E+02  5.01904E+02  5.91684E+02  8.92908E+02 -4.17059E+02  1.19431E+03
 -1.09911E+03  1.57284E+03 -3.22949E+03  2.55824E+03 -6.20788E+03  1.03427E+03 -7.38451E+03 -5.65256E+03
 -3.47879E+03 -6.82170E+03  2.49417E+03 -9.44913E+03  6.37082E+03 -6.37549E+03  7.92445E+03 -2.22061E+03
  7.55065E+03  1.51394E+03  4.83620E+03  5.47164E+03 -1.71685E+02  4.75170E+03 -2.53164E+03  3.73004E+03
 -3.75287E+03  1.29789E+03 -9.37722E+02 -8.76463E+02 -9.65951E+02  2.20355E+01 -1.63259E+03  5.40774E+02
 -8.99116E+02 -5.69986E+02 -2.96199E+03  1.41374E+03 -2.81149E+01 -1.43396E+03 -5.07570E+02 -1.84332E+03
  2.62815E+03 -3.47105E+03  2.89158E+03  2.06122E+02  5.34653E+03  3.09173E+03  1.44389E+03  5.55094E+03
 -2.23722E+03  6.53340E+03 -7.11190E+03  5.33906E+03 -8.19740E+03  3.11962E+02 -4.58910E+03 -4.47945E+03
 -1.87288E+03 -4.56675E+03  8.32753E+02 -4.95102E+03  4.21815E+03 -3.30459E+03  3.32057E+03  1.32281E+03
  2.30437E+03  2.11226E+03 -5.80988E+02  2.08956E+03 -1.13154E+03 -1.67416E+03 -4.26784E+02 -6.08661E+02
  1.57276E+03 -8.70148E+02  1.94871E+03  5.31873E+02  9.31673E+02  2.22848E+03 -1.28019E+03  3.10393E+03
 -2.98750E+03  3.15659E+03 -3.56545E+03  3.86780E+02 -3.06361E+03 -2.40714E+03  4.82128E+02 -3.58402E+03
  1.51048E+03 -4.59194E+03  3.76640E+03 -2.53455E+03  3.82689E+03  5.33687E+02  1.84318E+03  3.69577E+03
  8.71010E+02  3.81701E+03 -1.49891E+03  2.65855E+03 -1.37525E+03  1.09222E+03 -6.62051E+02  1.47666E+03
 -9.21283E+02 -5.20416E+01 -1.58441E+03  6.67445E+02 -1.82765E+03  2.61111E+02 -3.19836E+03 -1.22124E+03
 -2.48468E+03 -1.35379E+03 -1.60842E+03 -4.18570E+03  2.01826E+03 -2.50148E+03  4.68434E+03 -9.46347E+02
  2.86426E+03  1.78368E+02  1.17642E+03  3.07391E+03 -2.12634E+02  4.63315E+03 -2.73958E+03  2.78440E+03
