 $NMID ID='MM_0lb_SNR200_9hz_g45_78.RAW', FMTDAT='(8E13.5)'
 TRAMP=1., VOLUME=1. $END
  3.10636E+05 -1.27401E+02  3.37897E+05  2.50008E+05  8.32930E+04  3.37732E+05 -1.33790E+05  2.50917E+05
 -1.92549E+05  8.45330E+04 -1.13077E+05 -3.13210E+04  2.26350E+03 -5.07957E+04  5.46489E+04 -4.54702E+02
  3.39226E+04  5.34388E+04 -1.87815E+04  7.49918E+04 -6.15356E+04  6.50631E+04 -8.59688E+04  3.32283E+04
 -8.32018E+04 -1.14780E+04 -5.72367E+04 -5.00942E+04 -1.61054E+04 -7.15805E+04  2.84950E+04 -4.71387E+04
  4.15663E+04  5.81276E+03  1.58978E+04  4.77139E+04 -3.48565E+04  4.94608E+04 -6.85734E+04 -6.23552E+02
 -5.49079E+04 -5.84448E+04 -8.00285E+03 -7.73220E+04  3.36165E+04 -5.73286E+04  4.95865E+04 -1.87377E+04
  4.61154E+04  1.19282E+04  3.26395E+04  2.73338E+04  1.65656E+04  3.06149E+04 -6.30631E+03  2.84753E+04
 -2.34567E+04  1.17817E+04 -1.71926E+04 -6.20733E+03  8.04236E+03 -7.56235E+03  2.32810E+04  1.39645E+04
  6.20722E+03  3.81933E+04 -3.34957E+04  3.65900E+04 -6.45331E+04  7.91506E+02 -5.72491E+04 -4.50452E+04
 -1.20536E+04 -6.51011E+04  4.13999E+04 -4.58090E+04  6.02614E+04 -3.13586E+03  3.71467E+04  3.47968E+04
 -5.97135E+03  3.87085E+04 -3.00763E+04  1.72509E+04 -3.16617E+04 -2.93260E+03 -1.80521E+04 -1.13434E+04
 -9.33674E+03 -1.53985E+04 -7.96136E+02 -1.99343E+04  7.96014E+03 -2.41886E+04  1.49273E+04 -1.35102E+04
  9.95115E+03  6.80437E+03 -9.35418E+03  1.33887E+04 -2.23653E+04 -5.17453E+03 -9.73484E+03 -3.71046E+04
  2.46482E+04 -4.68493E+04  5.28019E+04 -2.14075E+04  4.75722E+04  2.03532E+04  1.68885E+04  4.76013E+04
 -1.85334E+04  3.71809E+04 -2.75396E+04  2.17563E+03 -1.20760E+04 -2.89593E+04  2.19540E+04 -3.64944E+04
  4.41681E+04 -1.15843E+04  3.90871E+04  2.51285E+04  2.02926E+04  5.03346E+04 -8.36893E+03  5.59358E+04
 -3.51341E+04  3.78179E+04 -4.59195E+04  1.23230E+04 -4.65707E+04 -1.86614E+04 -2.48015E+04 -4.17738E+04
  6.59379E+03 -4.14176E+04  3.41637E+04 -1.82404E+04  3.17850E+04  1.04959E+04  5.86113E+03  2.10257E+04
 -1.30594E+04  9.10777E+03 -1.03509E+04 -8.05465E+03  6.02488E+03 -1.09048E+04  1.81973E+04  5.53333E+03
  1.42553E+04  2.19334E+04 -4.92538E+03  2.68928E+04 -2.46754E+04  1.38984E+04 -2.88746E+04 -2.83863E+03
 -2.51456E+04 -1.77631E+04 -1.22784E+04 -2.38684E+04  5.17021E+03 -2.53244E+04  1.91994E+04 -2.08727E+04
  3.12837E+04 -1.34998E+04  3.80332E+04  3.86372E+03  2.72636E+04  2.34021E+04  2.52383E+03  4.20070E+04
 -1.99005E+04  3.38488E+04 -3.00483E+04  1.24566E+04 -2.22145E+04 -1.13091E+04 -6.03749E+03 -1.20618E+04
  8.04826E+02 -5.31309E+02 -7.50097E+03  8.48296E+03 -1.97573E+04  6.19107E+03 -1.99632E+04 -8.76186E+03
 -1.14459E+04 -2.19235E+04  4.99545E+03 -2.78059E+04  1.95930E+04 -1.88238E+04  2.28911E+04 -1.35108E+03
  1.47943E+04  1.54377E+04 -1.61501E+03  2.33129E+04 -1.68012E+04  1.31182E+04 -2.18765E+04 -5.61340E+03
 -1.78924E+04 -1.95848E+04 -3.02221E+03 -2.89656E+04  1.30124E+04 -2.20256E+04  2.25517E+04 -1.31447E+04
  2.09592E+04 -4.43519E+01  1.64962E+04  5.10197E+03  6.75606E+03  2.66452E+03  1.01169E+04 -1.90909E+03
  2.12283E+04  2.63419E+03  2.47508E+04  1.70990E+04  1.83700E+04  3.79237E+04 -2.03685E+03  4.32137E+04
 -2.37879E+04  3.61587E+04 -4.04488E+04  1.94481E+04 -4.44007E+04 -2.38616E+03 -3.49312E+04 -2.50762E+04
 -1.45556E+04 -3.62678E+04  1.37634E+04 -3.17087E+04  2.88871E+04 -1.29785E+04  2.46445E+04  4.83610E+03
  8.48272E+03  1.77782E+04 -1.13379E+04  1.51155E+04 -1.91884E+04  2.48232E+03 -1.45986E+04 -1.22514E+04
 -7.60128E+02 -1.98283E+04  9.54523E+03 -1.29512E+04  1.27749E+04 -2.00753E+03  2.59985E+03  8.65539E+03
 -9.02455E+03  2.11068E+03 -8.86922E+03 -7.98576E+03 -8.99412E+02 -1.77841E+04  1.18801E+04 -1.97941E+04
  2.22058E+04 -1.23093E+04  2.62320E+04  3.58227E+03  2.10960E+04  1.82983E+04  1.08061E+04  2.88652E+04
 -5.84270E+03  2.87683E+04 -1.91134E+04  1.78733E+04 -2.14480E+04  4.22101E+03 -1.65484E+04 -5.97904E+03
 -6.58510E+03 -8.13795E+03 -6.19883E+02  7.35027E+01 -2.20727E+03  3.40239E+03 -6.08453E+03  4.24335E+03
 -1.48159E+04  4.23107E+01 -1.37103E+04 -1.15751E+04 -5.73612E+03 -2.05423E+04  4.64443E+03 -1.51870E+04
  1.29281E+04 -7.20231E+03  8.75788E+03  5.33189E+03 -5.80566E+02  7.78305E+03 -8.57028E+03 -1.51861E+03
 -7.21508E+03 -1.00036E+04 -1.45450E+03 -1.39878E+04  9.26107E+03 -1.59235E+04  2.09140E+04 -8.53757E+03
  2.45494E+04  2.09543E+03  1.80032E+04  1.42378E+04  3.05180E+03  1.94756E+04 -8.75998E+03  1.42535E+04
 -1.28162E+04  3.72138E+03 -5.46390E+03 -3.42290E+03  2.09443E+03 -3.94902E+03  7.82652E+03 -1.61185E+03
  8.58209E+03  7.28626E+03  2.10101E+03  1.23127E+04 -9.47791E+03  1.22304E+04 -1.45413E+04  2.31628E+03
 -1.07032E+04 -8.40353E+03  2.46494E+02 -1.37178E+04  9.82966E+03 -7.39446E+03  1.13638E+04  4.01718E+03
  2.51095E+03  8.73722E+03 -7.80788E+03  1.24488E+04 -1.38479E+04  5.12927E+03 -1.36215E+04 -6.17032E+03
 -9.29824E+03 -1.49365E+04  2.84197E+03 -1.71963E+04  1.45734E+04 -1.07146E+04  1.67931E+04  1.11121E+03
  9.92061E+03  1.16538E+04 -1.62149E+03  1.55917E+04 -1.10919E+04  9.24764E+03 -1.19673E+04 -1.69930E+03
 -9.97622E+03 -1.11402E+04 -1.21957E+03 -1.26291E+04  7.03789E+03 -1.15771E+04  7.40181E+03 -3.57884E+03
  5.21606E+03  3.09102E+03  6.91459E+02  2.22131E+03 -5.18814E+02 -3.95306E+03  3.86913E+02 -6.50915E+03
  1.09201E+04 -2.94906E+03  1.51851E+04  2.95990E+03  1.51478E+04  1.07255E+04  1.07376E+04  1.99533E+04
 -3.74920E+03  2.46028E+04 -1.91972E+04  1.88325E+04 -2.63595E+04  3.15421E+03 -2.00300E+04 -8.62914E+03
 -9.76490E+03 -1.70673E+04 -5.82922E+02 -1.47659E+04  4.95263E+03 -8.20237E+03  5.65850E+03 -5.82349E+03
  4.33102E+03 -2.70503E+03  4.22824E+03 -4.46868E+03  5.96955E+03 -3.96008E+03  6.59273E+03 -2.25750E+03
  1.06831E+04  2.75055E+03  5.72730E+03  8.39289E+03 -1.10065E+02  1.11334E+04 -1.28586E+04  8.90368E+03
 -1.43695E+04 -1.29746E+03 -1.01796E+04 -1.04134E+04 -9.64040E+02 -1.49358E+04  8.75361E+03 -1.57361E+04
  1.40455E+04 -7.62006E+03  1.83773E+04  4.36053E+03  1.28381E+04  1.43353E+04  1.55259E+03  1.82882E+04
 -6.12236E+03  1.53089E+04 -1.02069E+04  3.72730E+03 -7.76503E+03 -1.40140E+03 -3.28287E+03 -1.16149E+03
 -1.95730E+03  4.44902E+02 -2.62251E+03  4.62072E+03 -7.85289E+03  1.06526E+03 -1.12090E+04 -1.79978E+03
 -6.41575E+03 -9.74557E+03 -2.11991E+02 -1.58022E+04  8.35542E+03 -1.35886E+04  1.46852E+04 -2.63351E+03
  1.36930E+04  6.41634E+03  6.02580E+03  1.30609E+04 -2.95412E+03  1.56413E+04 -1.07633E+04  9.84895E+03
 -1.50560E+04  1.20048E+03 -9.94748E+03 -8.62268E+03 -3.11944E+03 -1.27150E+04  6.22556E+03 -9.92611E+03
  1.01710E+04 -3.35987E+03  6.76193E+03  2.75330E+03  3.72685E+03  3.01805E+03  8.42256E+02  1.77276E+03
  1.37455E+03 -9.41507E+02  3.44922E+03  1.46505E+03  3.43178E+03  3.94059E+03  4.14404E+03  7.91410E+03
 -3.41395E+03  1.07990E+04 -1.04833E+04  1.23247E+04 -1.57937E+04  2.60785E+03 -1.48870E+04 -6.85221E+03
 -8.60964E+03 -1.63164E+04  1.03797E+03 -1.47995E+04  8.55055E+03 -1.11342E+04  1.17053E+04 -3.12023E+03
  9.56122E+03  5.71878E+03  1.82678E+03  9.30927E+03 -3.10642E+03  5.11666E+03 -6.60674E+03 -3.23553E+02
 -5.12528E+03 -7.07713E+03  4.28804E+03 -5.30131E+03  6.14950E+03 -3.68592E+03  4.45655E+03  1.85279E+03
  2.54957E+03  2.62888E+03  1.43368E+03  1.03156E+03 -1.14283E+03  1.64661E+03  1.97685E+03 -7.06048E+02
  3.75302E+03 -1.05493E+03  6.15605E+03  2.92732E+03  2.72513E+03  7.68086E+03 -9.80052E+02  1.08650E+04
 -6.14097E+03  6.57163E+03 -9.52823E+03  1.98073E+03 -8.56913E+03 -4.68148E+03 -2.87884E+03 -6.27884E+03
  3.39402E+03 -5.14836E+03  3.60202E+03 -1.18692E+03  3.85237E+03  2.25413E+03 -2.93804E+03  4.22167E+03
 -6.23827E+03  3.18539E+03 -6.68984E+03 -3.19281E+03 -4.63238E+03 -9.28283E+03  7.00085E+02 -6.53032E+03
  6.78622E+03 -5.67865E+03  7.07371E+03 -1.33220E+03  5.17937E+03  4.05853E+03  2.16455E+03  4.74829E+03
 -2.90005E+03  3.39656E+01 -4.43158E+03 -3.09247E+03  1.69685E+03 -6.85335E+03  5.60380E+03 -6.51472E+03
  1.00396E+04  4.76149E+02  8.63456E+03  7.11325E+03  2.68653E+03  9.17070E+03 -4.10454E+03  1.03958E+04
 -5.99312E+03  3.60404E+03 -8.69234E+03 -8.43821E+02 -4.91640E+03 -6.08977E+03  1.27815E+03 -4.84747E+03
  7.49876E+03 -2.44153E+03  5.82052E+03  4.34446E+03  1.69938E+03  6.67173E+03 -2.06919E+03  4.93111E+03
 -2.73944E+03  1.65480E+03 -3.70200E+03  1.09954E+03 -3.83496E+02  1.33766E+03 -2.57703E+03  2.51183E+03
 -3.10931E+03  2.97266E+03 -6.21787E+03  2.45716E+03 -9.36728E+03 -1.33463E+02 -1.01111E+04 -8.37779E+03
 -6.40494E+03 -1.27128E+04  1.71604E+03 -1.38680E+04  9.93885E+03 -1.08890E+04  1.39065E+04 -4.70026E+03
  1.23549E+04  1.01203E+03  8.34823E+03  9.26476E+03 -1.75511E+02  9.82690E+03 -2.36255E+03  8.26425E+03
 -7.72996E+03  2.00957E+03 -4.21920E+03 -1.04436E+03 -1.40977E+03  8.43890E+02  3.17229E+02 -1.63043E+02
 -2.30860E+03 -4.61290E+02 -2.19420E+03  7.02487E+01 -5.11841E+02 -2.28053E+03  2.94798E+03 -3.00494E+03
  4.60887E+03 -3.35783E+03  6.31747E+03  8.66789E+02  6.49885E+03  4.14190E+03  2.15400E+03  1.04480E+04
 -5.51797E+03  1.12092E+04 -9.07032E+03  8.88766E+03 -1.24532E+04 -2.98290E+03 -9.98466E+03 -7.76297E+03
 -4.72893E+03 -1.00871E+04  3.08027E+03 -8.92716E+03  5.52975E+03 -3.82840E+03  7.01724E+03 -5.15587E+02
  4.76982E+03  2.00604E+03 -4.90482E+01  2.28042E+03 -2.77716E+03  9.82805E+02 -1.87529E+02 -2.87899E+03
  3.06908E+03 -1.51676E+03  4.59478E+03  1.65322E+03  9.81414E+02  3.84282E+03  4.91653E+02  5.61955E+03
 -3.78838E+03  5.23625E+03 -5.85085E+03 -1.14066E+03 -6.44208E+03 -4.85554E+03  4.21613E+02 -8.59870E+03
  5.51991E+03 -5.41286E+03  7.11920E+03 -1.79468E+03  4.84575E+03  3.85335E+03  3.20415E+03  7.76856E+03
  7.29777E+02  6.39881E+03 -9.63741E+02  4.66452E+03 -3.96924E+03  3.25301E+03 -3.68136E+03 -7.37832E+02
 -4.30714E+03 -1.82299E+02 -2.07931E+03  1.83238E+03 -2.46674E+03 -5.88412E+02 -5.40265E+03  7.17096E+01
 -6.71409E+03 -5.65456E+03 -2.28829E+03 -6.22907E+03  2.99198E+03 -6.17207E+03  6.37988E+03 -5.82388E+03
  6.73513E+03  8.88405E+02  4.12895E+03  6.02816E+03 -1.89300E+03  7.79445E+03 -5.39358E+03  5.52422E+03
