 $NMID ID='MM_0lb_SNR200_14hz_g50_82.RAW', FMTDAT='(8E13.5)'
 TRAMP=1., VOLUME=1. $END
  3.09740E+05  6.02598E+02  3.38470E+05  2.50549E+05  8.50314E+04  3.37726E+05 -1.32923E+05  2.51345E+05
 -1.90735E+05  8.25171E+04 -1.11240E+05 -3.13097E+04 -6.98652E+02 -5.04720E+04  5.35063E+04  5.04327E+02
  3.62461E+04  5.16833E+04 -1.60092E+04  7.57205E+04 -6.08341E+04  6.35264E+04 -8.50349E+04  3.08697E+04
 -8.12781E+04 -1.06094E+04 -5.63926E+04 -5.30180E+04 -1.49013E+04 -7.07158E+04  2.65770E+04 -4.68902E+04
  4.05070E+04  4.04964E+03  1.61604E+04  4.87967E+04 -3.48944E+04  4.57473E+04 -6.63584E+04 -2.45970E+02
 -5.33661E+04 -5.70994E+04 -6.51078E+03 -7.71882E+04  3.47019E+04 -5.46153E+04  4.75245E+04 -1.70169E+04
  4.37162E+04  1.05049E+04  3.11662E+04  2.65254E+04  1.46348E+04  3.01757E+04 -5.94396E+03  2.67559E+04
 -2.19208E+04  1.33912E+04 -1.81886E+04 -4.55810E+03  6.04479E+03 -8.14036E+03  2.17318E+04  1.33690E+04
  7.70317E+03  3.57154E+04 -3.19783E+04  3.57299E+04 -6.37719E+04  2.50355E+03 -5.77766E+04 -4.24756E+04
 -1.24557E+04 -6.47965E+04  4.04271E+04 -4.52781E+04  5.95576E+04 -1.75598E+03  3.37210E+04  3.18875E+04
 -5.37981E+03  3.69255E+04 -2.93317E+04  1.64623E+04 -3.01957E+04 -4.90912E+03 -1.57028E+04 -1.10997E+04
 -8.74725E+03 -1.38529E+04 -1.67875E+03 -1.64142E+04  6.54393E+03 -2.22163E+04  1.59477E+04 -1.29400E+04
  1.21442E+04  5.40705E+03 -9.26497E+03  1.24646E+04 -2.12185E+04 -4.87450E+03 -7.61505E+03 -3.42608E+04
  2.27528E+04 -4.37183E+04  4.83717E+04 -2.02788E+04  4.49837E+04  1.92280E+04  1.69389E+04  4.53300E+04
 -1.52059E+04  3.32915E+04 -2.71048E+04  1.79292E+03 -9.71637E+03 -2.87039E+04  2.11581E+04 -3.27709E+04
  4.08595E+04 -8.78693E+03  3.63288E+04  2.37348E+04  1.77891E+04  4.67173E+04 -7.86096E+03  4.91632E+04
 -3.17452E+04  3.41078E+04 -4.31196E+04  9.99033E+03 -4.35987E+04 -1.77926E+04 -2.40432E+04 -3.92719E+04
  8.57265E+03 -3.82123E+04  3.16752E+04 -1.42554E+04  2.97740E+04  1.07761E+04  3.12454E+03  1.85601E+04
 -1.21515E+04  9.15003E+03 -9.70327E+03 -6.88746E+03  5.98294E+03 -9.88646E+03  1.68137E+04  6.23051E+03
  1.41326E+04  2.21129E+04 -5.53670E+03  2.53679E+04 -2.17835E+04  1.08097E+04 -2.77759E+04 -4.64630E+03
 -2.05358E+04 -1.75527E+04 -8.59868E+03 -2.12072E+04  5.38902E+03 -1.94989E+04  1.62420E+04 -1.82819E+04
  2.55277E+04 -1.29880E+04  3.26969E+04  2.71263E+03  2.27860E+04  2.15225E+04  3.74058E+03  3.58901E+04
 -1.68570E+04  3.02681E+04 -2.86668E+04  1.04953E+04 -2.12796E+04 -1.05676E+04 -4.58185E+03 -1.29393E+04
  2.23574E+03 -3.25396E+03 -4.30958E+03  7.09081E+03 -1.60439E+04  4.17089E+03 -1.69965E+04 -5.95428E+03
 -9.47444E+03 -1.89808E+04  5.84130E+03 -2.33302E+04  1.44118E+04 -1.69024E+04  1.78211E+04 -1.27271E+03
  1.10576E+04  1.26133E+04 -1.41543E+03  1.97981E+04 -1.38745E+04  1.21887E+04 -1.98891E+04 -3.85753E+03
 -1.51426E+04 -1.81410E+04 -1.94968E+03 -2.34029E+04  1.03834E+04 -1.88414E+04  1.85739E+04 -8.21102E+03
  1.81353E+04  2.52741E+02  1.30013E+04  5.80765E+03  6.11304E+03 -4.80696E+02  8.53499E+03 -2.14476E+03
  1.74369E+04  2.05699E+03  2.02480E+04  1.56234E+04  1.36497E+04  2.96949E+04 -3.58008E+03  3.44297E+04
 -1.96802E+04  2.82715E+04 -3.23821E+04  1.41375E+04 -3.48401E+04 -2.47583E+03 -2.85380E+04 -1.97058E+04
 -1.18054E+04 -2.83617E+04  9.79439E+03 -2.51713E+04  2.13428E+04 -1.23808E+04  2.01258E+04  5.28862E+03
  7.52189E+03  1.43339E+04 -8.58676E+03  1.30506E+04 -1.63320E+04  2.08129E+03 -1.18023E+04 -8.86099E+03
  3.76880E+00 -1.66338E+04  8.02317E+03 -1.09397E+04  1.03478E+04 -1.15648E+03  3.36870E+03  6.30154E+03
 -6.23077E+03  3.21137E+03 -5.35470E+03 -5.08668E+03 -4.69038E+02 -1.23456E+04  1.01168E+04 -1.43895E+04
  1.79872E+04 -8.66485E+03  1.78400E+04  3.36532E+03  1.47353E+04  1.32203E+04  7.81188E+03  1.98272E+04
 -3.67068E+03  2.15034E+04 -1.50335E+04  1.45772E+04 -1.69561E+04  4.72974E+03 -1.05200E+04 -3.60894E+03
 -5.55351E+03 -4.95769E+03 -9.36086E+02  2.55381E+02 -1.57734E+03  2.28923E+03 -4.23507E+03  4.73852E+03
 -1.05667E+04 -1.42488E+03 -1.13166E+04 -9.22503E+03 -3.42352E+03 -1.40913E+04  6.16071E+03 -1.15497E+04
  9.13343E+03 -5.03791E+03  7.64418E+03  4.12885E+03  3.93133E+02  4.66397E+03 -4.12108E+03 -8.88682E+02
 -5.15371E+03 -7.81978E+03 -2.00163E+03 -1.09109E+04  5.19167E+03 -1.14330E+04  1.40136E+04 -6.11711E+03
  1.69319E+04  1.23242E+03  1.23446E+04  8.80556E+03  1.68859E+03  1.31914E+04 -8.28105E+03  9.36017E+03
 -1.01059E+04  4.43897E+03 -4.82437E+03 -1.38351E+03  9.24280E+02 -2.22374E+03  6.28409E+03 -5.16170E+02
  4.91700E+03  5.04960E+03  1.31502E+03  9.85171E+03 -7.03524E+03  8.76266E+03 -1.09692E+04  2.48787E+03
 -6.32028E+03 -6.24429E+03  3.01361E+02 -8.75880E+03  4.83437E+03 -4.03699E+03  6.38756E+03  1.15453E+03
 -1.17227E+02  5.86764E+03 -5.28689E+03  7.43726E+03 -8.26409E+03  4.05107E+03 -8.55954E+03 -2.78761E+03
 -5.49222E+03 -1.13441E+04  6.68884E+02 -1.12461E+04  9.25956E+03 -7.58564E+03  1.01792E+04  1.39125E+03
  7.09871E+03  8.79814E+03 -5.75897E+02  1.23341E+04 -7.73186E+03  4.63602E+03 -7.62419E+03 -1.24282E+03
 -7.46321E+03 -6.53920E+03 -1.86682E+03 -7.86446E+03  3.83452E+03 -7.42660E+03  4.65721E+03 -4.12760E+03
  2.34528E+03  1.35621E+03  5.32014E+02  1.11837E+03  2.58559E+02 -2.58468E+03  1.36638E+03 -4.32836E+03
  7.01105E+03 -2.25983E+03  9.87363E+03  1.09591E+03  1.03745E+04  5.54697E+03  6.33189E+03  1.18292E+04
 -2.22884E+03  1.37770E+04 -1.34285E+04  1.04794E+04 -1.58850E+04  1.28773E+03 -1.31044E+04 -3.54746E+03
 -5.97018E+03 -9.17143E+03  3.04184E+00 -9.55906E+03  3.44904E+03 -4.26311E+03  3.51693E+03 -3.97217E+03
  2.80711E+03 -2.95909E+03  3.92257E+03 -3.04779E+03  4.36373E+03 -1.48098E+03  5.85990E+03 -8.55279E+02
  7.40561E+03  1.12948E+03  4.39222E+03  5.83097E+03 -2.00174E+03  6.82820E+03 -8.22635E+03  5.40626E+03
 -8.71598E+03 -1.47864E+03 -3.70839E+03 -5.79303E+03  1.22594E+03 -8.76871E+03  4.25650E+03 -9.52902E+03
  9.67534E+03 -4.03892E+03  1.25756E+04  1.19477E+03  8.94033E+03  7.10021E+03  1.31799E+03  1.12791E+04
 -3.47811E+03  8.15981E+03 -6.18094E+03  1.29695E+03 -3.47659E+03 -2.73856E+03 -8.20488E+02 -2.36871E+03
 -7.94364E+02 -1.38057E+02 -1.48984E+03  2.98288E+03 -5.21271E+03  1.15262E+03 -7.61631E+03 -1.04017E+03
 -4.29130E+03 -6.41231E+03 -3.37447E+02 -8.71622E+03  5.77473E+03 -7.54350E+03  8.37879E+03 -2.40137E+03
  6.39848E+03  4.48623E+03  3.07935E+03  7.28279E+03 -1.13502E+03  8.05924E+03 -5.73679E+03  4.50519E+03
 -8.44061E+03  4.63715E+02 -6.27074E+03 -4.12990E+03  6.68962E+02 -5.94780E+03  3.83143E+03 -5.21910E+03
  5.83916E+03 -3.13368E+03  2.51473E+03  1.84394E+03 -1.08909E+03  2.99113E+03  9.99728E+02  1.76883E+03
  1.43459E+03  6.29098E+02  1.86778E+03  1.39606E+03  1.86119E+02  4.30476E+03  1.79550E+03  4.56656E+03
 -1.82705E+03  6.13099E+03 -4.37422E+03  6.16670E+03 -7.69701E+03  2.69412E+03 -8.29472E+03 -2.08829E+03
 -3.55830E+03 -7.70588E+03  7.89012E+02 -8.42869E+03  5.12998E+03 -4.74997E+03  7.33520E+03 -1.42481E+03
  5.16172E+03  3.60188E+03  8.45492E+02  4.08730E+03 -1.96515E+03  1.96403E+03 -1.89535E+03 -3.49744E+02
 -1.40650E+02 -4.00470E+03  2.66368E+03 -3.24193E+03  4.05637E+03 -2.74439E+03  3.61000E+03  1.19784E+03
  1.62413E+03  2.03324E+03  4.23756E+02  4.18868E+02 -8.39719E+02  7.06119E+02  2.33861E+03  4.78970E+01
  1.17759E+03 -7.43840E+02  2.89441E+03  4.65237E+02  8.43736E+02  4.50790E+03 -8.29425E+02  5.32586E+03
 -3.54902E+03  2.15489E+03 -4.17498E+03  1.80011E+03 -3.64257E+03 -1.95020E+03 -5.31131E+02 -3.02939E+03
  3.84068E+02 -3.37197E+03  2.09902E+03 -1.17429E+03  1.93097E+03  2.44195E+03 -6.61733E+02  1.96047E+03
 -3.24606E+03  1.13282E+03 -2.70913E+03 -3.15655E+03 -1.73629E+03 -4.16228E+03  1.29180E+03 -4.20134E+03
  1.71539E+03 -1.66804E+03  1.18495E+03  6.15453E+02  1.70959E+03  1.17122E+02  1.16776E+03  2.13654E+03
 -1.25416E+03  4.56415E+02 -1.56076E+03 -5.58028E+02  9.31824E+02 -3.21971E+03  3.88103E+03 -3.60997E+03
  4.10854E+03 -1.06589E+03  4.58283E+03  2.36134E+03  1.73765E+03  3.71215E+03 -1.57420E+03  4.48065E+03
 -7.44034E+02  2.88600E+03 -3.89333E+03 -2.12670E+03 -1.80897E+03 -3.39037E+03 -2.07195E+02 -1.12696E+03
  1.79298E+03 -1.51666E+03  1.71262E+03  2.06242E+03  4.69530E+02  3.33913E+03  2.75498E+02  2.91380E+03
 -2.12434E+03  1.45540E+03 -1.26989E+03 -1.25907E+03 -2.07811E+02  1.44633E+03 -1.63332E+03  1.56830E+03
 -1.55501E+03  3.43499E+03 -4.29817E+03  2.05681E+03 -5.50185E+03  1.04295E+03 -5.23159E+03 -2.08186E+03
 -2.23671E+03 -5.41464E+03  7.22791E+02 -6.59055E+03  3.13479E+03 -4.83160E+03  5.93466E+03 -2.21210E+03
  5.82197E+03  1.21516E+03  3.55132E+03  3.39036E+03 -6.01891E+02  4.84247E+03 -2.64741E+03  3.39220E+03
 -2.31938E+03  1.29203E+03 -2.42734E+03 -1.54266E+03  3.95454E+02 -6.50575E+02  3.51436E+02  7.63205E+02
 -1.39820E+03  1.10863E+01 -3.24771E+02  6.70963E+02  4.26489E+02 -9.07742E+02 -3.32458E+02 -1.81903E+03
  2.34284E+03 -1.07805E+03  1.54281E+03 -9.19375E+02  1.41347E+03  1.65720E+03  5.84409E+02  4.09983E+03
 -9.36672E+02  5.74502E+03 -3.05323E+03  2.50354E+03 -4.77026E+03  9.22710E+02 -4.04347E+03 -3.62738E+03
 -2.10564E+03 -3.56407E+03  9.10347E+02 -3.60823E+03  1.36011E+03 -2.01392E+03  2.10885E+03  8.13158E+02
  1.43663E+03  1.91898E+03  3.27022E+02  2.29950E+03 -1.81269E+03 -1.66002E+02  5.42044E+02 -1.33198E+03
  9.63180E+02  1.02913E+03  1.54377E+03  8.84488E+02  1.20650E+03  1.00923E+03  7.23790E+02  1.08080E+03
 -1.24679E+03  3.02773E+03 -1.04413E+03  1.29002E+03 -2.99499E+03 -1.08372E+03 -4.37682E+02 -3.80438E+03
  1.00887E+03 -2.20573E+03  2.78483E+03 -8.64792E+02  2.95223E+03 -6.06744E+02  1.05473E+03  1.94847E+03
  4.29946E+02  2.38923E+03 -1.19720E+03 -5.41664E+00 -2.14973E+03  1.09865E+03 -1.44258E+03  5.86793E+02
 -4.03179E+02 -1.00462E+03 -6.24931E+02 -1.04602E+02 -2.31518E+03 -5.81030E+02 -2.36238E+03 -1.65542E+02
 -2.62580E+03 -4.59672E+02 -1.86469E+03 -2.31788E+03  1.66295E+03 -2.49447E+03  2.75719E+03 -7.61518E+02
  2.06458E+03 -4.58135E+02  1.36465E+03  6.69959E+02 -3.00034E+02  3.04428E+03 -1.83002E+03  1.71720E+03
