 $NMID ID='MM_0lb_SNR200_11hz_g60_94.RAW', FMTDAT='(8E13.5)'
 TRAMP=1., VOLUME=1. $END
  3.10417E+05  1.43530E+03  3.38673E+05  2.50846E+05  8.36874E+04  3.37387E+05 -1.32408E+05  2.52160E+05
 -1.90933E+05  8.43804E+04 -1.11844E+05 -3.21139E+04  7.19758E+02 -4.90193E+04  5.31151E+04 -6.47702E+02
  3.60067E+04  5.26780E+04 -1.60107E+04  7.57315E+04 -6.08899E+04  6.45976E+04 -8.49655E+04  3.26085E+04
 -8.24324E+04 -1.24161E+04 -5.83613E+04 -5.27011E+04 -1.40364E+04 -7.07853E+04  2.78657E+04 -4.67313E+04
  4.11484E+04  4.55545E+03  1.72743E+04  4.94099E+04 -3.47183E+04  4.86036E+04 -6.79933E+04 -7.79589E+02
 -5.41940E+04 -5.76457E+04 -6.64812E+03 -7.90429E+04  3.53140E+04 -5.64727E+04  5.04159E+04 -1.77259E+04
  4.49840E+04  1.24122E+04  3.28638E+04  2.64776E+04  1.59338E+04  3.01268E+04 -5.00354E+03  2.87320E+04
 -2.31320E+04  1.21508E+04 -1.80111E+04 -6.08519E+03  6.84108E+03 -7.34894E+03  2.25217E+04  1.47083E+04
  7.69583E+03  3.84666E+04 -3.37970E+04  3.68973E+04 -6.46894E+04  3.90587E+03 -5.85486E+04 -4.50713E+04
 -1.30929E+04 -6.60469E+04  4.21923E+04 -4.83649E+04  6.06755E+04 -2.04784E+03  3.68724E+04  3.34919E+04
 -4.34949E+03  3.98160E+04 -3.16536E+04  1.94895E+04 -3.31427E+04 -3.82728E+03 -1.82390E+04 -1.18012E+04
 -9.40062E+03 -1.34097E+04 -1.84859E+03 -2.10234E+04  8.55779E+03 -2.10832E+04  1.51607E+04 -1.24564E+04
  9.25619E+03  6.49318E+03 -1.13931E+04  1.41832E+04 -2.23687E+04 -7.73088E+03 -8.74745E+03 -3.80493E+04
  2.36085E+04 -4.58944E+04  5.10367E+04 -2.08957E+04  4.85640E+04  2.02153E+04  1.85621E+04  4.72717E+04
 -1.59555E+04  3.58563E+04 -2.70387E+04  1.94468E+03 -1.26568E+04 -2.98243E+04  2.13213E+04 -3.74194E+04
  4.53301E+04 -1.11099E+04  3.94725E+04  2.56824E+04  2.14855E+04  5.08278E+04 -8.92509E+03  5.51899E+04
 -3.42608E+04  3.80094E+04 -4.68616E+04  1.07077E+04 -4.81461E+04 -1.70167E+04 -2.65269E+04 -4.33861E+04
  8.21016E+03 -4.14692E+04  3.41050E+04 -1.67397E+04  3.28912E+04  1.07241E+04  6.46426E+03  2.00030E+04
 -1.45525E+04  8.25762E+03 -1.07746E+04 -7.94463E+03  6.27119E+03 -1.23524E+04  1.85282E+04  6.06545E+03
  1.49446E+04  2.32961E+04 -4.16636E+03  2.70090E+04 -2.30559E+04  1.43646E+04 -3.05575E+04 -4.06433E+03
 -2.42501E+04 -1.74558E+04 -1.10705E+04 -2.46692E+04  3.80040E+03 -2.46200E+04  1.81186E+04 -2.20714E+04
  3.18020E+04 -1.30640E+04  3.65688E+04  4.93974E+03  2.53077E+04  2.30520E+04  3.50456E+03  4.10822E+04
 -2.01889E+04  3.25712E+04 -2.96216E+04  1.27410E+04 -2.16595E+04 -1.04343E+04 -4.31790E+03 -1.31845E+04
 -1.45546E+02 -1.71287E+03 -6.23135E+03  7.59279E+03 -1.85324E+04  4.21820E+03 -2.01475E+04 -8.71972E+03
 -1.14521E+04 -2.19072E+04  5.34903E+03 -2.71251E+04  1.90419E+04 -1.80330E+04  2.24758E+04 -7.91477E+02
  1.49273E+04  1.64831E+04 -1.75566E+03  2.36499E+04 -1.66779E+04  1.37276E+04 -2.30666E+04 -4.74225E+03
 -1.75522E+04 -1.96097E+04 -1.74198E+03 -2.63336E+04  1.20058E+04 -2.14638E+04  2.25621E+04 -1.20560E+04
  2.04904E+04  4.65368E+02  1.46555E+04  4.14981E+03  8.34408E+03  1.16960E+03  1.21144E+04 -2.15093E+03
  2.09897E+04  2.24449E+03  2.41977E+04  1.86222E+04  1.72410E+04  3.65377E+04 -1.83857E+03  4.29562E+04
 -2.51432E+04  3.60615E+04 -4.04182E+04  1.80237E+04 -4.27444E+04 -2.68631E+03 -3.35553E+04 -2.47885E+04
 -1.42592E+04 -3.51788E+04  1.28549E+04 -3.12967E+04  2.83440E+04 -1.52216E+04  2.22801E+04  6.39579E+03
  8.38696E+03  1.78612E+04 -1.10283E+04  1.59477E+04 -1.85417E+04  3.56255E+03 -1.50609E+04 -1.24414E+04
 -2.07040E+02 -1.78062E+04  8.93793E+03 -1.30596E+04  1.19273E+04 -9.00542E+02  2.51727E+03  7.97813E+03
 -8.19883E+03  4.41385E+03 -9.49137E+03 -7.16062E+03 -1.51625E+03 -1.79363E+04  1.13341E+04 -1.83369E+04
  2.23442E+04 -1.02981E+04  2.43540E+04  4.35226E+03  2.17427E+04  1.64879E+04  9.08679E+03  2.74673E+04
 -5.67659E+03  2.89334E+04 -1.88134E+04  1.87475E+04 -2.15567E+04  4.17139E+03 -1.56225E+04 -5.02942E+03
 -6.89895E+03 -6.24972E+03 -1.32883E+03  3.15909E+02 -1.81050E+03  3.65746E+03 -6.24137E+03  5.65529E+03
 -1.30301E+04 -1.24125E+03 -1.30170E+04 -1.26970E+04 -6.19557E+03 -1.89015E+04  5.89210E+03 -1.59430E+04
  1.17880E+04 -7.59920E+03  8.59587E+03  2.84960E+03  3.79184E+02  5.87031E+03 -6.35316E+03 -1.22009E+03
 -6.98910E+03 -7.63205E+03 -1.56424E+03 -1.36651E+04  7.72793E+03 -1.35174E+04  1.87113E+04 -9.12243E+03
  2.10290E+04  9.60782E+02  1.59602E+04  1.52058E+04  2.44137E+03  1.72771E+04 -9.87932E+03  1.47248E+04
 -1.13493E+04  5.19812E+03 -5.20783E+03 -3.50849E+03  1.00377E+03 -4.74215E+03  9.37343E+03 -1.80803E+03
  7.74607E+03  4.88410E+03  5.53528E+02  1.19609E+04 -8.73450E+03  9.79056E+03 -1.56672E+04  2.12978E+03
 -1.10255E+04 -8.26332E+03  1.53149E+02 -1.17971E+04  6.94652E+03 -5.78283E+03  7.39902E+03  1.75994E+03
  2.65208E+03  9.11500E+03 -7.69813E+03  1.05547E+04 -1.32039E+04  5.27810E+03 -1.23631E+04 -4.28187E+03
 -6.83350E+03 -1.49641E+04  5.26795E+03 -1.55881E+04  1.40142E+04 -1.17828E+04  1.45145E+04  4.35294E+03
  8.98156E+03  1.23726E+04 -1.08448E+03  1.50222E+04 -1.10708E+04  7.18934E+03 -1.12733E+04 -1.13124E+03
 -8.54846E+03 -7.92810E+03 -1.93119E+03 -1.02286E+04  6.76230E+03 -8.04514E+03  7.46745E+03 -1.96343E+03
  4.19700E+03  2.64426E+03  6.02138E+02  1.19399E+03  1.12387E+02 -3.54961E+03  1.33092E+03 -5.99507E+03
  9.22382E+03 -4.32070E+03  1.46510E+04  1.67915E+03  1.37032E+04  1.03255E+04  8.89664E+03  1.79261E+04
 -3.37485E+03  2.11362E+04 -1.72998E+04  1.51236E+04 -2.36091E+04  2.38270E+03 -1.72647E+04 -7.96592E+03
 -9.18689E+03 -1.49593E+04 -6.92537E+02 -1.37592E+04  5.49749E+03 -6.14087E+03  3.74514E+03 -4.08464E+03
  2.80091E+03 -3.13746E+03  4.81846E+03 -3.71998E+03  5.39376E+03 -3.15724E+03  8.42690E+03 -1.13056E+03
  1.08191E+04  1.89375E+03  5.02122E+03  9.28121E+03 -3.08967E+03  1.00024E+04 -9.27228E+03  8.31868E+03
 -1.37125E+04 -1.34716E+03 -7.97689E+03 -9.84958E+03 -3.14672E+02 -1.40408E+04  6.53361E+03 -1.37018E+04
  1.39873E+04 -9.56439E+03  1.73114E+04  2.78450E+03  1.20016E+04  1.16996E+04  3.33542E+03  1.59885E+04
 -6.77028E+03  1.25452E+04 -8.76405E+03  4.35797E+03 -6.77275E+03 -6.35580E+02 -2.82783E+03 -1.52756E+03
 -1.28667E+03  1.05297E+03 -1.26254E+03  2.54715E+03 -4.94082E+03  1.28208E+03 -9.70032E+03 -1.45204E+03
 -5.99263E+03 -1.07705E+04 -2.26946E+02 -1.26845E+04  7.48336E+03 -1.20498E+04  1.27489E+04 -4.51599E+03
  1.28971E+04  4.99212E+03  6.46476E+03  1.36642E+04 -2.19751E+03  1.37030E+04 -9.97252E+03  7.40464E+03
 -1.18846E+04 -1.81160E+02 -8.20719E+03 -6.53178E+03 -1.37656E+03 -1.10971E+04  5.44532E+03 -7.68445E+03
  8.73185E+03 -2.01263E+03  6.03728E+03  3.76634E+03  4.17552E+03  2.30549E+03  1.32959E+03  3.10412E+03
  1.65641E+03  2.21971E+03  2.64626E+03  1.33906E+03  2.40640E+03  5.22015E+03  3.45652E+03  6.96820E+03
 -2.48226E+03  9.80440E+03 -9.81582E+03  1.03188E+04 -1.21045E+04  2.47494E+03 -1.45194E+04 -5.43197E+03
 -6.65327E+03 -1.27975E+04  2.15003E+03 -1.36276E+04  8.04307E+03 -7.12940E+03  1.19085E+04 -1.34806E+03
  8.38150E+03  4.53889E+03  1.43234E+03  7.61901E+03 -3.42523E+03  4.53183E+03 -6.33194E+03 -4.21787E+02
 -2.39703E+03 -6.16785E+03  2.71661E+03 -5.98022E+03  6.07113E+03 -3.65034E+03  5.01348E+03  2.36108E+03
  3.29510E+03  1.44754E+03  1.64525E+03  2.17579E+03 -3.58099E+02  1.93782E+03  2.55841E+03 -6.62276E+02
  1.42188E+03 -1.17498E+03  4.00289E+03  2.32228E+03  4.08141E+03  5.91297E+03 -1.49048E+03  7.24325E+03
 -7.17833E+03  5.40407E+03 -8.17921E+03  1.18851E+03 -6.84080E+03 -2.30364E+03 -2.90056E+03 -4.54322E+03
 -2.18462E+02 -5.03868E+03  2.21713E+03 -2.20609E+03  2.65578E+03  1.81463E+03 -1.30349E+03  3.98108E+03
 -5.81474E+03  2.94220E+03 -5.91215E+03 -4.31917E+03 -3.19236E+03 -7.08252E+03  1.40145E+03 -5.36593E+03
  4.43331E+03 -4.65439E+03  4.12865E+03  4.33194E+02  5.07489E+03  1.48709E+03  3.81570E+02  3.74572E+03
 -2.95085E+03  9.89402E+02 -3.20790E+03 -1.51561E+03  5.54380E+01 -6.43737E+03  5.12006E+03 -3.80886E+03
  5.55249E+03  9.23186E+02  8.89795E+03  5.48780E+03  2.52724E+03  8.84144E+03 -2.69732E+03  6.76045E+03
 -5.92482E+03  1.33177E+03 -6.70697E+03  1.00280E+03 -4.90087E+03 -5.07974E+03  1.39165E+03 -5.41517E+03
  6.64725E+03 -3.29231E+03  4.02735E+03  3.99715E+03  6.33427E+02  5.32794E+03 -9.78911E+02  3.28217E+03
 -1.20733E+02  1.97828E+03 -2.01269E+03  1.00853E+03 -2.75583E+02  7.32115E+02 -8.50382E+02  2.63766E+03
 -2.14474E+03  2.93416E+03 -6.45775E+03  3.99073E+03 -8.15254E+03 -1.18880E+03 -9.52138E+03 -4.01666E+03
 -5.34473E+03 -9.54351E+03 -9.88603E+01 -1.19497E+04  7.02001E+03 -9.10424E+03  1.21137E+04 -3.44570E+03
  9.58250E+03  3.24247E+03  7.17110E+03  7.69319E+03  3.52825E+02  8.54757E+03 -3.55240E+03  4.62840E+03
 -4.37305E+03  2.06583E+03 -2.51521E+03 -7.76521E+02 -3.00172E+02  7.39706E+02 -1.13724E+03 -2.84013E+00
 -6.28551E+02  1.07045E+03 -1.53528E+03  8.87997E+02 -1.47227E+03 -1.67197E+03  5.40028E+02 -3.07322E+03
  3.96042E+03 -3.16960E+03  5.94812E+03  1.51447E+03  4.35678E+03  4.88918E+03  1.91505E+03  8.87229E+03
 -3.69201E+03  9.27868E+03 -8.41616E+03  5.36288E+03 -1.00952E+04 -1.34788E+03 -6.37223E+03 -4.84461E+03
 -2.80409E+03 -7.80970E+03  2.58025E+03 -7.23495E+03  4.78069E+03 -3.40557E+03  4.95133E+03  3.02681E+02
  1.07407E+03  3.46822E+03 -4.25775E+02  3.07633E+03 -2.10205E+03  7.03788E+02  3.86097E+02 -1.58406E+03
  4.37324E+03 -1.14087E+03  2.25223E+03  2.85033E+03  9.43359E+02  3.62890E+03  6.13579E+02  4.58704E+03
 -3.51955E+03  2.63441E+03 -6.35493E+03  1.67091E+02 -4.96571E+03 -2.60650E+03 -1.62306E+03 -6.05809E+03
  4.25412E+03 -4.45810E+03  5.07587E+03 -2.47936E+03  5.80699E+03  1.46191E+03  4.30844E+03  4.21292E+03
  2.97225E+02  4.84986E+03 -1.49483E+03  3.73673E+03 -4.11530E+03  1.92646E+03 -1.54834E+03 -8.35275E+01
 -1.42470E+03  9.83255E+02  1.80012E+02  1.16381E+03 -3.42817E+03 -2.70864E+02 -3.64906E+03 -1.65427E+03
 -2.55289E+03 -1.63145E+03 -1.52063E+02 -3.00270E+03  3.32126E+03 -5.31407E+03  3.82215E+03 -3.14546E+03
  5.72074E+03  1.32758E+02  1.61428E+03  4.40446E+03 -4.60007E+02  4.68029E+03 -4.17197E+03  2.20429E+03
