 $NMID ID='MM_0lb_SNR200_19hz_g40_2.RAW', FMTDAT='(8E13.5)'
 TRAMP=1., VOLUME=1. $END
  3.09425E+05  1.03739E+03  3.37151E+05  2.50011E+05  8.43856E+04  3.37542E+05 -1.32400E+05  2.49441E+05
 -1.89453E+05  8.36045E+04 -1.11471E+05 -3.36333E+04  1.60401E+03 -5.02368E+04  5.35253E+04 -1.79640E+02
  3.55778E+04  5.30905E+04 -1.84005E+04  7.54898E+04 -6.03645E+04  6.19201E+04 -8.35505E+04  3.12482E+04
 -7.89729E+04 -1.09939E+04 -5.60443E+04 -5.03026E+04 -1.47543E+04 -6.70342E+04  2.60805E+04 -4.49109E+04
  3.87876E+04  4.84506E+03  1.57207E+04  4.68888E+04 -3.35894E+04  4.52686E+04 -6.53404E+04 -1.48653E+03
 -5.01834E+04 -5.63511E+04 -6.80041E+03 -7.50419E+04  3.27515E+04 -5.14542E+04  4.49149E+04 -1.59067E+04
  3.98464E+04  1.11183E+04  3.00037E+04  2.34437E+04  1.65693E+04  2.83079E+04 -4.14455E+03  2.59065E+04
 -2.14145E+04  1.32086E+04 -1.99899E+04 -3.69315E+03  3.05956E+03 -8.20875E+03  1.98637E+04  1.04208E+04
  7.77121E+03  3.21418E+04 -2.98346E+04  3.34536E+04 -5.95825E+04  1.61588E+03 -5.58740E+04 -4.03389E+04
 -1.20090E+04 -6.03754E+04  3.73536E+04 -4.24043E+04  5.49338E+04 -1.75782E+03  3.10188E+04  3.11653E+04
 -6.79890E+03  3.30395E+04 -2.72007E+04  1.25382E+04 -2.67266E+04 -5.27082E+03 -1.42649E+04 -1.03065E+04
 -7.01791E+03 -1.12551E+04 -5.35387E+02 -1.56020E+04  6.80293E+03 -2.24779E+04  1.52345E+04 -1.43300E+04
  1.16222E+04  4.30244E+03 -5.78181E+03  1.31357E+04 -1.91723E+04 -1.95725E+03 -7.96965E+03 -3.03934E+04
  2.04939E+04 -3.95142E+04  4.31387E+04 -1.87348E+04  4.05813E+04  1.79636E+04  1.39866E+04  4.06018E+04
 -1.43430E+04  3.07898E+04 -2.22749E+04 -4.82957E+02 -8.39111E+03 -2.55601E+04  1.99124E+04 -3.11938E+04
  3.71836E+04 -6.39670E+03  3.06189E+04  2.25181E+04  1.44073E+04  4.12455E+04 -8.42570E+03  4.38891E+04
 -2.70774E+04  2.97668E+04 -3.61711E+04  7.90533E+03 -3.68037E+04 -1.46023E+04 -2.05609E+04 -3.38740E+04
  5.77236E+03 -3.26981E+04  2.86178E+04 -1.28755E+04  2.60635E+04  1.09436E+04  2.13220E+03  1.77284E+04
 -1.24269E+04  6.78853E+03 -9.71167E+03 -7.96576E+03  7.18230E+03 -9.74312E+03  1.77613E+04  6.99705E+03
  1.18256E+04  2.09558E+04 -6.50083E+03  2.20889E+04 -2.10128E+04  7.02298E+03 -2.38238E+04 -7.16919E+03
 -1.58840E+04 -1.49239E+04 -5.51422E+03 -1.57242E+04  3.37998E+03 -1.43302E+04  1.09009E+04 -1.26700E+04
  1.97580E+04 -1.06567E+04  2.67073E+04  9.19000E+02  2.15649E+04  1.54341E+04  4.39530E+03  3.00493E+04
 -1.53480E+04  2.61054E+04 -2.59102E+04  8.94126E+03 -1.92429E+04 -1.04861E+04 -3.61049E+03 -1.37468E+04
  3.37047E+03 -3.85234E+03 -2.49098E+03  4.71815E+03 -1.16932E+04  5.90733E+03 -1.26763E+04 -5.90911E+03
 -8.25362E+03 -1.34841E+04  4.82059E+03 -1.88060E+04  1.17393E+04 -1.35433E+04  1.37924E+04 -2.30523E+03
  8.79140E+03  9.78044E+03 -6.09547E+02  1.51825E+04 -9.46806E+03  8.49149E+03 -1.39581E+04 -3.67710E+03
 -1.05912E+04 -1.30766E+04 -1.84454E+03 -1.79857E+04  7.07218E+03 -1.52412E+04  1.57887E+04 -6.93612E+03
  1.40761E+04  1.10243E+03  1.00819E+04  2.74997E+03  5.12048E+03  6.54100E+02  6.37714E+03 -8.39044E+02
  1.25222E+04  3.31577E+03  1.41734E+04  1.24169E+04  8.38858E+03  2.27391E+04 -3.18503E+03  2.36971E+04
 -1.43519E+04  1.87838E+04 -2.20113E+04  9.07089E+03 -2.26811E+04 -1.60940E+03 -2.08480E+04 -1.27331E+04
 -9.32925E+03 -1.96536E+04  6.83152E+03 -1.69764E+04  1.53064E+04 -1.12256E+04  1.50758E+04  3.16497E+03
  6.23526E+03  1.04450E+04 -6.50439E+03  8.61223E+03 -1.35267E+04  2.28043E+03 -1.11044E+04 -7.37876E+03
 -4.08795E+02 -1.29603E+04  5.34601E+03 -8.94578E+03  7.16011E+03 -8.52493E+02  7.03288E+02  4.78346E+03
 -6.30052E+03  6.71139E+02 -1.69221E+03 -4.97189E+03  6.87617E+02 -9.24673E+03  8.44636E+03 -9.20208E+03
  1.02103E+04 -4.27509E+03  1.01687E+04  3.10928E+03  9.01961E+03  9.79101E+03  4.29564E+03  1.26686E+04
 -1.94406E+03  1.48955E+04 -8.44847E+03  1.00681E+04 -1.02012E+04  3.07700E+03 -7.48938E+03 -9.74243E+02
 -4.95178E+03 -3.02137E+03 -1.06465E+03  2.16313E+03 -2.22978E+03  2.08544E+03 -3.14564E+03  3.70640E+03
 -7.73064E+03 -6.92168E+02 -8.07516E+03 -6.72942E+03 -2.30438E+03 -1.07708E+04  3.45035E+03 -8.23981E+03
  7.88554E+03 -3.98976E+03  4.13746E+03  2.13675E+03  9.88224E+02  2.74124E+03 -2.96628E+03  5.58094E+02
 -2.83127E+03 -5.87570E+03 -9.30672E+02 -5.47217E+03  2.39242E+03 -8.12599E+03  1.02762E+04 -3.11703E+03
  1.16520E+04  1.54124E+03  8.13381E+03  5.07172E+03  1.78129E+03  7.94489E+03 -4.65026E+03  8.44795E+03
 -6.44785E+03  3.18350E+03 -3.20976E+03 -9.40978E+02  1.71142E+03 -1.35959E+03  4.83259E+03 -1.17193E+03
  3.99519E+03  2.20000E+03  9.17488E+02  6.54241E+03 -4.90667E+03  6.64812E+03 -8.06308E+03  1.32928E+03
 -4.39101E+03 -3.22494E+03  5.03901E+02 -5.37840E+03  3.73490E+03 -3.15608E+03  2.49151E+03  2.30758E+01
 -1.86896E+02  3.48298E+03 -3.17767E+03  4.37693E+03 -4.41323E+03  1.85222E+03 -4.08374E+03 -8.43784E+02
 -2.70788E+03 -4.66580E+03  1.46703E+03 -6.42546E+03  5.09296E+03 -4.50527E+03  4.80870E+03  1.20821E+03
  4.05443E+03  4.70659E+03 -2.21435E+02  6.10877E+03 -5.41692E+03  4.07580E+03 -4.96329E+03 -6.81130E+02
 -6.81538E+03 -4.41329E+03 -6.94583E+02 -5.13301E+03  2.85865E+03 -3.60933E+03  2.63181E+03 -2.73248E+03
  2.21538E+03 -4.30069E+01  1.16234E+03  1.59213E+03  1.40652E+03  6.75285E+02  3.68953E+02 -1.12516E+03
  3.03558E+03 -5.86739E+02  4.96862E+03  4.55635E+01  5.71541E+03  2.24825E+03  5.70220E+03  6.18802E+03
 -1.03715E+03  7.62457E+03 -6.96169E+03  6.43189E+03 -9.08530E+03  1.00774E+03 -6.61970E+03 -9.89357E+02
 -4.03384E+03 -5.67804E+03 -1.06431E+03 -4.82525E+03  1.55860E+03 -1.88700E+03  1.71370E+03 -8.83019E+02
  6.03385E+02 -1.83741E+03  2.63359E+03 -1.88924E+03  4.40596E+03 -1.07924E+03  3.51278E+03  4.92544E+02
  3.18434E+03  1.08621E+03  6.94950E+02  2.38385E+03 -1.07955E+03  2.23322E+03 -5.04597E+03  3.76814E+03
 -4.95321E+03 -3.72699E+02 -1.67100E+03 -3.12975E+03  1.08722E+03 -4.92450E+03  3.24836E+03 -5.76042E+03
  4.05088E+03 -2.69488E+03  6.33526E+03 -5.21487E+02  4.30646E+03  3.59075E+03  1.37851E+03  5.50003E+03
 -2.22933E+03  5.88215E+03 -4.30703E+03  1.89561E+03 -2.60671E+03  2.40644E+02 -3.75340E+02  7.18266E+01
  1.10534E+02 -2.29402E+02 -1.29711E+03  1.89377E+03 -2.10282E+03  3.74284E+02 -4.74006E+03 -6.27929E+01
 -7.78730E+02 -5.14357E+03  1.72692E+03 -3.80375E+03  3.13030E+03 -4.54779E+03  3.15427E+03 -3.24362E+02
  3.40393E+03  2.34688E+03  2.03222E+03  3.11793E+03 -6.80980E+02  2.95798E+03 -1.90537E+03  2.27017E+03
 -3.68006E+03  4.09118E+02 -3.25701E+03 -2.71112E+03  1.73510E+02 -3.24579E+03  1.27322E+03 -1.91702E+03
  3.24380E+03  8.77644E+01  1.21825E+03 -3.34701E+02  5.52311E+02  2.58571E+03  7.00273E+02  6.59206E+02
  2.00810E+03 -2.72914E+02  2.85753E+02  1.34843E+03  6.09802E+02  2.36300E+03  1.03782E+03  1.49164E+03
 -1.92841E+03  2.49266E+03 -2.05978E+03  2.86428E+03 -2.54506E+03  1.55433E+03 -4.29975E+03 -9.51848E+02
 -1.75591E+03 -3.24466E+03  7.37691E+02 -4.04386E+03  2.62668E+03 -2.22784E+03  2.80074E+03 -2.25880E+02
  2.22075E+03  1.36910E+03  4.67429E+02  1.18032E+03 -1.00540E+03  4.02827E+02 -3.83894E+02 -6.92296E+02
  1.27980E+02 -7.49639E+02  4.72299E+02 -2.20851E+03  8.73486E+02 -7.36661E+02  1.01438E+03  1.04168E+03
  9.46058E+02  7.77259E+02  1.31880E+03  2.34420E+02 -5.63224E+02  4.36862E+01  1.75997E+03  7.56034E+02
 -7.62680E+02 -1.08592E+02  6.22193E+02  1.03556E+03  9.04241E+01  2.14758E+03 -6.10041E+02  3.61205E+03
 -9.55978E+02  1.07274E+03 -1.30364E+03 -1.60738E+02 -2.53316E+03 -6.67832E+02 -4.36456E+02 -1.24537E+03
  1.75805E+02 -1.32214E+03  6.43019E+02 -1.29441E+03  2.46991E+02  1.93977E+02 -5.28309E+02  1.70176E+03
 -9.01754E+02  1.09227E+03 -9.63379E+02 -2.47080E+03 -3.47155E+02 -2.66666E+03  1.05890E+03 -8.09498E+02
 -1.04808E+02 -1.29004E+03  2.46873E+02  2.89555E+02  1.02201E+03  1.11475E+03 -7.26177E+02  6.78780E+02
  7.29147E+02  2.08283E+03 -5.74321E+02 -1.01228E+03  1.23282E+03 -1.01901E+03  1.70569E+03 -1.02388E+03
  1.60868E+03  8.63608E+01  2.16604E+03  9.79358E+01  3.87555E+02  1.60741E+03  5.95224E+02  1.96277E+03
 -1.59038E+03 -6.24799E+02 -8.20031E+01  1.58682E+02 -1.10091E+03 -5.71886E+02  6.05256E+02  3.77100E+02
  6.01472E+02 -1.24185E+03  3.21198E+02  7.65283E+02  8.03478E+02  1.44497E+03  4.89590E+02  1.07738E+03
  3.78126E+02  8.37698E+02 -2.04877E+02  5.64505E+02 -9.95225E+02  3.23821E+02 -1.91284E+02  5.95682E+02
 -7.05899E+02 -1.94508E+02 -2.66367E+03  6.74662E+02 -2.35630E+03 -3.11915E+02 -1.27123E+03  3.25811E+02
 -7.12349E+02 -1.63019E+03 -1.06359E+03 -1.30095E+03  9.69533E+02 -2.11305E+03  1.45126E+03 -1.70291E+03
  1.70217E+03 -4.25128E+02  6.24852E+02  1.37506E+03  1.07140E+02  7.47914E+02 -2.23903E+02  1.32986E+03
 -6.78081E+02  1.36724E+03 -9.84669E+02 -9.42164E+02 -5.41813E+02  2.78888E+02 -7.64107E+02 -3.09255E+01
 -1.63561E+03 -1.19572E+02 -1.43288E+03  2.14869E+01  3.61478E+02 -1.58281E+03  1.89486E+02 -7.76699E+02
  4.95998E+02 -5.37613E+02  3.53861E+02 -2.15176E+02  9.45201E+02  8.35720E+02 -2.12275E+02  1.48204E+03
  3.57717E+00  1.89356E+03 -1.15700E+03  1.23618E+03 -3.77652E+02  1.63573E+02  9.10225E+01 -2.07005E+03
 -3.47815E+02 -1.32298E+03  4.23994E+02 -1.16716E+03  5.84328E+02 -5.88569E+02  3.88954E+02  4.47318E+02
  3.21985E+02 -1.42972E+02 -5.26714E+02  1.27146E+02 -5.81412E+02  6.71479E+02  8.74322E+02  6.06079E+02
  8.43107E+02 -1.34028E+02  1.31515E+03  7.41050E+01  2.30516E+02  1.38225E+03  1.11184E+03  1.12324E+02
 -6.11278E+02  1.06228E+03 -8.40850E+02 -4.48829E+02 -2.08953E+03 -1.40533E+02 -3.45616E+02 -1.12257E+03
  2.82014E+02 -8.10995E+02  7.31024E+02 -3.30694E+02  1.53051E+03 -2.41851E+02  1.15565E+03  4.46068E+02
 -5.25960E+01 -1.72728E+02 -4.23174E+00  1.01632E+03 -5.56399E+02  1.04351E+02 -3.70449E+02  5.09018E+02
 -3.84664E+02 -1.00487E+01 -8.99046E+02  5.31305E+02 -7.82462E+02 -6.00511E+02 -6.30124E+02  6.92816E+02
 -1.36088E+03 -4.33381E+01 -6.45230E+02 -1.32033E+03  6.40408E+02 -2.67126E+03  9.52722E+01 -5.80223E+02
  8.70084E+02  3.46352E+02  6.03049E+02  1.32290E+02 -9.71661E+02  7.66339E+02 -1.11013E+01 -2.34940E+02
