 $NMID ID='MM_0lb_SNR200_12hz_g60_54.RAW', FMTDAT='(8E13.5)'
 TRAMP=1., VOLUME=1. $END
  3.10557E+05  1.24972E+02  3.38996E+05  2.50676E+05  8.55238E+04  3.37857E+05 -1.33376E+05  2.51377E+05
 -1.89858E+05  8.31829E+04 -1.12320E+05 -3.29955E+04 -2.38418E+02 -5.07323E+04  5.39635E+04 -8.83113E+02
  3.46518E+04  5.18685E+04 -1.65036E+04  7.61777E+04 -6.12696E+04  6.40637E+04 -8.36037E+04  3.37105E+04
 -8.25125E+04 -1.09674E+04 -5.83212E+04 -5.01398E+04 -1.46829E+04 -7.09756E+04  2.92792E+04 -4.48085E+04
  4.06425E+04  2.96799E+03  1.71991E+04  4.69756E+04 -3.43480E+04  4.82116E+04 -6.75687E+04 -4.12285E+02
 -5.42689E+04 -5.65862E+04 -5.47717E+03 -7.74395E+04  3.41607E+04 -5.62584E+04  5.01320E+04 -1.80778E+04
  4.47991E+04  1.27359E+04  3.30343E+04  2.54546E+04  1.66656E+04  3.11928E+04 -5.08570E+03  2.91169E+04
 -2.16802E+04  1.13371E+04 -1.79131E+04 -6.12954E+03  6.76710E+03 -8.44264E+03  2.27081E+04  1.36340E+04
  7.78799E+03  3.60671E+04 -3.29506E+04  3.69428E+04 -6.63126E+04  1.30801E+03 -5.89080E+04 -4.43747E+04
 -1.34053E+04 -6.51438E+04  4.12687E+04 -4.62216E+04  6.02308E+04 -1.77371E+03  3.57823E+04  3.24415E+04
 -5.70030E+03  3.88523E+04 -3.24395E+04  1.82795E+04 -3.29870E+04 -3.82362E+03 -1.78437E+04 -1.31446E+04
 -9.45573E+03 -1.36302E+04 -7.97427E+02 -1.90621E+04  8.62300E+03 -2.20318E+04  1.48792E+04 -1.24960E+04
  1.11398E+04  5.46644E+03 -9.40086E+03  1.22017E+04 -2.19120E+04 -5.65581E+03 -9.34153E+03 -3.59698E+04
  2.41442E+04 -4.50888E+04  5.05222E+04 -1.99122E+04  4.68372E+04  2.01024E+04  1.74244E+04  4.66915E+04
 -1.71358E+04  3.51406E+04 -2.82346E+04  3.55820E+03 -1.14272E+04 -2.74913E+04  2.11730E+04 -3.52831E+04
  4.40796E+04 -1.08583E+04  3.87938E+04  2.50197E+04  2.03612E+04  4.98536E+04 -7.37254E+03  5.44452E+04
 -3.39558E+04  3.70678E+04 -4.62770E+04  1.00872E+04 -4.55297E+04 -1.80730E+04 -2.48824E+04 -4.01605E+04
  7.11563E+03 -4.00518E+04  3.42282E+04 -1.68535E+04  3.12962E+04  1.10480E+04  4.96778E+03  2.00438E+04
 -1.26788E+04  9.63909E+03 -9.08753E+03 -7.71955E+03  4.97275E+03 -1.07295E+04  1.90821E+04  5.41120E+03
  1.50756E+04  2.27633E+04 -6.13149E+03  2.51295E+04 -2.26000E+04  1.27745E+04 -2.92295E+04 -4.57754E+03
 -2.32329E+04 -1.79894E+04 -9.16930E+03 -2.27531E+04  4.13844E+03 -2.44081E+04  1.84788E+04 -2.11547E+04
  3.00056E+04 -1.24926E+04  3.67560E+04  5.22700E+03  2.67355E+04  2.18097E+04  5.53279E+03  3.96372E+04
 -1.98653E+04  3.27686E+04 -3.01976E+04  1.05073E+04 -2.17850E+04 -1.13689E+04 -4.91742E+03 -1.49261E+04
  2.43958E+03 -9.89469E+02 -7.03778E+03  9.40250E+03 -1.88508E+04  3.43324E+03 -1.94426E+04 -7.57457E+03
 -1.23286E+04 -2.08245E+04  4.32509E+03 -2.62185E+04  1.70763E+04 -1.86332E+04  2.13191E+04 -1.78131E+03
  1.37971E+04  1.43860E+04 -6.87308E+02  2.08832E+04 -1.54947E+04  1.22996E+04 -2.24665E+04 -3.34697E+03
 -1.64452E+04 -1.92053E+04 -2.55980E+03 -2.64642E+04  1.19520E+04 -2.06778E+04  2.21573E+04 -1.06052E+04
  1.98438E+04 -3.71909E+02  1.51101E+04  4.27288E+03  8.74140E+03  3.46627E+03  1.12936E+04 -2.51264E+03
  2.08795E+04  2.97131E+03  2.29720E+04  1.61976E+04  1.56929E+04  3.44436E+04 -2.17161E+03  4.08836E+04
 -2.25712E+04  3.37232E+04 -3.90008E+04  1.71286E+04 -4.15178E+04 -3.10609E+03 -3.21417E+04 -2.41300E+04
 -1.31557E+04 -3.32276E+04  1.08855E+04 -2.90057E+04  2.59881E+04 -1.42185E+04  2.20891E+04  6.89426E+03
  8.30336E+03  1.63990E+04 -1.16353E+04  1.48548E+04 -1.87000E+04  2.94512E+03 -1.39259E+04 -1.15402E+04
  8.96314E+02 -1.73636E+04  8.84288E+03 -1.23581E+04  1.13244E+04 -5.35597E+02  4.17576E+03  7.03087E+03
 -7.68810E+03  3.58289E+03 -7.06848E+03 -5.66119E+03 -1.98336E+03 -1.58541E+04  9.23324E+03 -1.81239E+04
  1.99456E+04 -9.22648E+03  2.15695E+04  2.71142E+03  1.90321E+04  1.54111E+04  8.92243E+03  2.56748E+04
 -4.17267E+03  2.62678E+04 -1.80130E+04  1.62684E+04 -1.89117E+04  3.85579E+03 -1.28865E+04 -4.19170E+03
 -5.59861E+03 -6.28978E+03 -2.35974E+01  1.29071E+03 -3.15793E+03  2.84031E+03 -7.63330E+03  4.65432E+03
 -1.31280E+04 -1.23792E+03 -1.33363E+04 -1.09954E+04 -5.75481E+03 -1.76029E+04  5.21277E+03 -1.36695E+04
  1.19352E+04 -5.10576E+03  8.24772E+03  4.43994E+03 -1.22673E+02  5.95147E+03 -9.06671E+03  4.29253E+01
 -6.60881E+03 -8.96947E+03 -9.33519E+02 -1.18381E+04  7.81116E+03 -1.34712E+04  1.76599E+04 -9.37719E+03
  1.98461E+04  1.43287E+03  1.53249E+04  1.21810E+04  2.51916E+03  1.73630E+04 -8.13816E+03  1.40212E+04
 -1.11845E+04  2.49287E+03 -5.34914E+03 -4.75504E+03  1.78833E+03 -3.87960E+03  7.05088E+03 -1.94633E+01
  7.65983E+03  7.34084E+03  1.64419E+03  1.10505E+04 -7.23520E+03  1.02440E+04 -1.34779E+04  2.35721E+03
 -8.67598E+03 -7.68931E+03 -1.04819E+03 -1.18225E+04  8.11560E+03 -6.49073E+03  8.23472E+03  3.27879E+03
  1.27810E+03  8.02432E+03 -8.00281E+03  9.45532E+03 -1.07679E+04  5.20627E+03 -1.17147E+04 -3.87025E+03
 -6.31656E+03 -1.36294E+04  1.92832E+03 -1.51590E+04  1.10715E+04 -9.01790E+03  1.24758E+04  1.84621E+03
  7.90517E+03  1.05047E+04 -1.69472E+03  1.31890E+04 -9.81495E+03  9.15385E+03 -8.99925E+03  7.30023E+02
 -7.58979E+03 -9.10198E+03 -1.53460E+03 -9.48354E+03  4.97167E+03 -8.26408E+03  8.50384E+03 -3.82224E+03
  4.36634E+03  2.12135E+03 -1.91048E+03  2.15957E+03  7.45403E+02 -3.08247E+03  2.53382E+03 -4.90208E+03
  9.21899E+03 -3.52270E+03  1.28400E+04  3.20484E+02  1.19498E+04  9.07696E+03  7.54506E+03  1.62191E+04
 -3.94072E+03  1.87311E+04 -1.56170E+04  1.35203E+04 -2.05515E+04  3.06455E+03 -1.63140E+04 -5.75752E+03
 -9.02345E+03 -1.42032E+04  1.10006E+03 -1.17931E+04  3.31616E+03 -6.17613E+03  4.02535E+03 -4.36310E+03
  4.20733E+03 -2.51238E+03  3.50425E+03 -2.57024E+03  4.58145E+03 -2.79683E+03  6.04856E+03 -5.44618E+02
  8.24607E+03  3.83086E+03  4.04541E+03  7.61000E+03 -2.25997E+03  8.40089E+03 -7.83199E+03  6.25384E+03
 -1.07895E+04 -2.95557E+03 -7.69395E+03 -8.19506E+03 -5.02828E+02 -1.30932E+04  7.45275E+03 -1.27607E+04
  1.31125E+04 -8.43624E+03  1.46061E+04  3.31164E+03  1.02133E+04  1.10217E+04  1.85405E+03  1.25280E+04
 -4.89956E+03  1.29074E+04 -8.74055E+03  4.64709E+03 -4.86222E+03 -1.16024E+03 -3.62137E+03 -2.80433E+03
  8.06696E+01  1.74272E+02 -1.19492E+03  2.09129E+03 -5.03870E+03  1.19053E+03 -8.23922E+03 -8.39976E+02
 -6.04865E+03 -7.40919E+03  4.88527E+02 -1.12606E+04  7.11134E+03 -1.04601E+04  1.08980E+04 -4.71122E+03
  1.05072E+04  5.14010E+03  6.04968E+03  1.00972E+04 -1.45334E+03  1.13425E+04 -7.95363E+03  8.54948E+03
 -9.27597E+03  6.17737E+02 -7.52979E+03 -7.50210E+03 -1.67203E+03 -1.00376E+04  4.35877E+03 -7.39288E+03
  7.77868E+03 -2.19915E+03  4.35854E+03  3.55385E+03  2.74852E+03  3.28901E+03  2.35764E+03  1.36296E+03
  2.40927E+03  1.61251E+03  1.86910E+03  1.58905E+03  3.57388E+03  3.83068E+03  2.24815E+03  5.83370E+03
 -1.62637E+03  8.96077E+03 -7.14147E+03  7.84285E+03 -1.02266E+04  1.15333E+03 -1.15354E+04 -3.47824E+03
 -6.54647E+03 -1.20283E+04  1.24907E+02 -1.27788E+04  6.25369E+03 -7.75226E+03  6.60102E+03 -5.48647E+02
  6.85978E+03  3.85274E+03  1.64202E+03  6.47823E+03 -2.47038E+03  4.65439E+03 -4.80122E+03 -6.41219E+01
 -1.36849E+03 -4.78230E+03  1.64927E+03 -4.96663E+03  4.84100E+03 -3.14392E+03  4.45050E+03  6.81596E+02
  1.63995E+03  8.13692E+02  8.68156E+02  4.81881E+02 -9.40373E+01  2.05921E+03  1.88651E+03 -1.19387E+03
  1.34930E+03 -5.88061E+02  4.72373E+03  1.13950E+03  1.97797E+03  6.17007E+03 -6.28265E+02  8.51491E+03
 -5.78934E+03  5.36774E+03 -7.39043E+03  1.47866E+03 -6.84503E+03 -3.52390E+03 -1.93150E+03 -4.57412E+03
  2.30359E+03 -3.55393E+03  3.68760E+03 -1.35532E+03  1.62538E+03  2.36114E+03 -5.95602E+02  3.63618E+03
 -4.48207E+03  3.11353E+03 -4.61013E+03 -3.86327E+03 -1.73283E+03 -5.21018E+03 -5.44866E+02 -5.24538E+03
  3.86184E+03 -2.65309E+03  5.08977E+03  2.48312E+00  4.18250E+03 -2.64173E+02 -4.11574E+02  2.40473E+03
 -1.84074E+03  6.28375E+02 -2.72620E+03 -1.09903E+03  4.48428E+02 -3.74059E+03  5.64381E+03 -2.58699E+03
  6.96540E+03 -2.14911E+02  5.89460E+03  2.94466E+03  3.01942E+03  7.17329E+03 -1.82286E+03  5.62573E+03
 -5.20512E+03  3.05591E+03 -4.90967E+03 -1.37394E+03 -3.73628E+03 -5.34873E+03  6.25641E+02 -2.79555E+03
  4.19911E+03 -3.02596E+03  2.23043E+03  1.94309E+03  5.66435E+02  3.36021E+03  4.32414E+01  3.74609E+03
 -7.65301E+02  1.85845E+03 -1.48547E+03  2.09529E+03 -1.13660E+02  5.98060E+02 -1.04377E+03  1.21845E+03
 -1.80087E+03  2.68681E+03 -3.71238E+03  2.40894E+03 -5.55583E+03  3.88532E+02 -6.69198E+03 -4.93172E+03
 -3.82784E+03 -8.98078E+03  6.25927E+02 -1.03515E+04  5.76378E+03 -7.99915E+03  9.94335E+03 -2.47578E+03
  7.46905E+03  1.70877E+03  5.20280E+03  5.21797E+03  2.01557E+03  7.00836E+03 -4.03654E+03  5.68767E+03
 -4.05397E+03  2.53267E+03 -1.45946E+03 -1.36720E+03 -1.09599E+03 -1.36507E+03 -1.26965E+03 -1.46564E+02
 -4.01243E+03 -4.96262E+02 -2.93393E+03  7.68871E+02 -7.45813E+01 -2.15933E+03 -1.58081E+02 -2.12376E+03
  3.29163E+03 -2.04095E+03  3.35362E+03 -1.28487E+03  5.38663E+03  3.76421E+03  1.02230E+03  5.32271E+03
 -4.01826E+03  7.85242E+03 -5.95925E+03  5.20500E+03 -7.24225E+03 -9.34276E+02 -5.29847E+03 -4.05534E+03
 -2.07080E+03 -7.00317E+03  4.58371E+02 -5.59143E+03  3.68159E+03 -4.43251E+03  4.34507E+03  1.13204E+02
  2.74266E+03  2.05355E+03 -1.20053E+03  2.32076E+03 -1.68693E+03 -1.47156E+03  4.90679E+02 -1.48191E+03
  9.09350E+02 -1.04023E+03  3.26006E+03  1.48693E+03  2.35571E+03  1.64915E+03 -1.13917E+03  3.42185E+03
 -3.42829E+03  2.62790E+03 -5.04866E+03  9.99913E+02 -3.45912E+03 -2.11557E+03 -9.86508E+02 -6.09924E+03
  2.17949E+03 -3.75975E+03  3.76542E+03  3.18470E+02  5.82892E+03  1.15440E+03  3.36277E+03  4.82355E+03
 -2.81039E+02  3.54823E+03 -1.16402E+03  4.25854E+03 -3.09052E+03  9.62025E+02 -1.79416E+03  8.07181E+02
 -1.29232E+03 -2.13327E+03 -1.64408E+03  1.00105E+03 -3.83210E+03 -3.75597E+02 -3.86411E+03 -1.66724E+03
 -3.07128E+03 -4.86652E+02 -1.25463E+03 -4.39831E+03  2.72076E+03 -3.29987E+03  3.96075E+03 -3.43156E+03
  4.58426E+03  9.41989E+02  2.16769E+03  3.63615E+03  5.09185E+02  3.75977E+03 -2.63817E+03  2.69852E+03
