 $NMID ID='MM_0lb_SNR200_10hz_g55_39.RAW', FMTDAT='(8E13.5)'
 TRAMP=1., VOLUME=1. $END
  3.13091E+05  1.14652E+03  3.37734E+05  2.51459E+05  8.46784E+04  3.37951E+05 -1.33396E+05  2.52601E+05
 -1.90617E+05  8.23503E+04 -1.12578E+05 -3.40899E+04  7.65129E+02 -5.09212E+04  5.42789E+04  5.42187E+02
  3.58649E+04  5.38013E+04 -1.74509E+04  7.50257E+04 -6.00767E+04  6.36425E+04 -8.56895E+04  3.15694E+04
 -8.14483E+04 -1.14499E+04 -5.83800E+04 -5.14046E+04 -1.57260E+04 -7.12826E+04  2.88557E+04 -4.74530E+04
  4.12582E+04  4.61568E+03  1.73595E+04  5.01472E+04 -3.40880E+04  4.80335E+04 -6.62090E+04  4.17776E+02
 -5.44880E+04 -5.84928E+04 -7.74898E+03 -7.93932E+04  3.56523E+04 -5.77350E+04  5.08032E+04 -1.81585E+04
  4.49813E+04  1.16121E+04  3.25693E+04  2.69575E+04  1.50612E+04  3.04117E+04 -6.83088E+03  2.76732E+04
 -2.12488E+04  1.24544E+04 -1.77990E+04 -5.44350E+03  7.15014E+03 -7.38534E+03  2.46969E+04  1.28765E+04
  7.70018E+03  3.80597E+04 -3.30633E+04  3.68834E+04 -6.53370E+04  1.55477E+03 -5.87483E+04 -4.38068E+04
 -1.35010E+04 -6.61117E+04  4.15456E+04 -4.70698E+04  6.17618E+04 -2.64422E+03  3.68755E+04  3.57855E+04
 -6.21203E+03  3.98772E+04 -3.14385E+04  1.83576E+04 -3.30105E+04 -3.14683E+03 -1.89898E+04 -1.14234E+04
 -9.15453E+03 -1.36276E+04  7.96016E+01 -1.96451E+04  6.99450E+03 -2.42675E+04  1.60992E+04 -1.30871E+04
  9.77408E+03  6.72471E+03 -1.07182E+04  1.24316E+04 -2.38764E+04 -6.22701E+03 -8.53058E+03 -3.69618E+04
  2.37592E+04 -4.62682E+04  5.28232E+04 -2.12298E+04  4.94557E+04  1.99695E+04  1.68281E+04  4.82228E+04
 -1.67393E+04  3.61152E+04 -2.71826E+04  3.07196E+03 -1.06777E+04 -2.71811E+04  2.32700E+04 -3.66006E+04
  4.30446E+04 -9.51055E+03  4.15281E+04  2.48677E+04  2.28003E+04  5.09320E+04 -8.38213E+03  5.41857E+04
 -3.49795E+04  3.87370E+04 -4.73667E+04  9.66081E+03 -4.66857E+04 -1.92444E+04 -2.59844E+04 -4.29509E+04
  7.29489E+03 -4.20544E+04  3.32735E+04 -1.79780E+04  3.17230E+04  1.15277E+04  5.64543E+03  1.98041E+04
 -1.33404E+04  1.03803E+04 -1.14872E+04 -8.71438E+03  4.57837E+03 -1.22349E+04  2.03162E+04  4.38836E+03
  1.43347E+04  2.31260E+04 -4.41082E+03  2.51818E+04 -2.12498E+04  1.38294E+04 -3.14509E+04 -2.17805E+03
 -2.56227E+04 -1.85960E+04 -1.17363E+04 -2.47027E+04  5.53963E+03 -2.48309E+04  1.86811E+04 -2.40371E+04
  3.11446E+04 -1.30447E+04  3.78144E+04  3.61428E+03  2.66307E+04  2.33094E+04  3.70838E+03  4.14796E+04
 -2.12043E+04  3.27124E+04 -3.09972E+04  1.26255E+04 -2.10858E+04 -1.00862E+04 -4.58598E+03 -1.30325E+04
  5.92274E+02 -3.73355E+01 -7.95401E+03  8.69678E+03 -2.05160E+04  5.24421E+03 -1.95827E+04 -8.07283E+03
 -1.17582E+04 -2.46324E+04  6.24378E+03 -2.81268E+04  1.84233E+04 -1.86753E+04  2.21167E+04 -2.53770E+03
  1.42251E+04  1.50541E+04 -2.53080E+03  2.22937E+04 -1.59706E+04  1.29359E+04 -2.45834E+04 -4.72891E+03
 -1.60133E+04 -1.91812E+04 -1.41100E+03 -2.60296E+04  1.25881E+04 -2.18198E+04  2.19973E+04 -1.29385E+04
  2.11528E+04  5.42761E+02  1.49192E+04  5.38380E+03  9.05902E+03  3.72559E+03  1.19697E+04 -2.63480E+03
  2.19422E+04  2.37487E+03  2.52815E+04  1.74965E+04  1.71733E+04  3.72457E+04 -3.38053E+03  4.22013E+04
 -2.47344E+04  3.61264E+04 -4.06373E+04  1.80516E+04 -4.32411E+04 -2.54791E+03 -3.55568E+04 -2.42891E+04
 -1.48850E+04 -3.63757E+04  1.27132E+04 -3.12369E+04  2.82343E+04 -1.52574E+04  2.40344E+04  6.43946E+03
  7.50777E+03  1.83399E+04 -9.61268E+03  1.56673E+04 -2.00479E+04  2.07498E+03 -1.36318E+04 -1.11213E+04
  1.28389E+02 -1.84774E+04  9.35242E+03 -1.56740E+04  1.25307E+04 -1.65090E+03  4.19774E+03  8.02256E+03
 -7.88337E+03  3.92963E+03 -9.31152E+03 -6.23112E+03 -1.83172E+03 -1.72209E+04  1.01415E+04 -1.95285E+04
  2.03963E+04 -1.13988E+04  2.45889E+04  2.85728E+03  2.24328E+04  1.92035E+04  1.02488E+04  2.81178E+04
 -5.30241E+03  3.18121E+04 -1.92148E+04  1.76758E+04 -2.23645E+04  4.51847E+03 -1.38605E+04 -5.64413E+03
 -6.45491E+03 -6.87971E+03  1.00447E+02  3.23809E+01 -3.01314E+03  2.89023E+03 -8.13990E+03  4.42341E+03
 -1.33251E+04 -1.53483E+03 -1.41636E+04 -1.07176E+04 -5.14140E+03 -1.89460E+04  5.72602E+03 -1.62032E+04
  1.39023E+04 -5.87691E+03  7.93291E+03  4.41964E+03  1.08970E+02  5.71268E+03 -7.93833E+03 -1.46329E+03
 -6.01751E+03 -9.73356E+03 -5.58645E+02 -1.41142E+04  9.31049E+03 -1.57731E+04  1.90241E+04 -9.25086E+03
  2.33555E+04  2.26228E+03  1.66031E+04  1.34039E+04  2.78101E+03  1.80840E+04 -8.54316E+03  1.46763E+04
 -1.21028E+04  5.07454E+03 -6.65954E+03 -3.83623E+03  3.33387E+03 -4.33619E+03  7.82981E+03 -1.42131E+03
  6.24839E+03  8.58096E+03  8.30169E+02  1.22399E+04 -8.14102E+03  1.28755E+04 -1.42728E+04  1.66262E+03
 -9.67722E+03 -7.22700E+03 -7.80553E+02 -1.39917E+04  6.80818E+03 -5.68585E+03  9.98349E+03  3.44642E+03
  2.42465E+03  8.31850E+03 -8.98510E+03  1.07047E+04 -1.35749E+04  6.11611E+03 -1.34599E+04 -5.22997E+03
 -7.78843E+03 -1.49878E+04  2.83718E+03 -1.71575E+04  1.28984E+04 -1.02992E+04  1.62663E+04  3.46058E+03
  9.11474E+03  1.14684E+04 -1.43481E+03  1.64368E+04 -1.19603E+04  9.22228E+03 -1.28119E+04 -8.93044E+02
 -1.20702E+04 -1.06129E+04 -2.40024E+03 -1.13005E+04  7.81070E+03 -9.36248E+03  6.68980E+03 -2.74058E+03
  5.92827E+03  2.72391E+03 -7.52932E+02  1.16855E+03 -1.51268E+03 -3.79173E+03  1.87884E+03 -7.39866E+03
  1.09243E+04 -4.67179E+03  1.61027E+04  8.93428E+02  1.59438E+04  8.85592E+03  9.98079E+03  2.03635E+04
 -4.42289E+03  2.04996E+04 -1.89497E+04  1.66110E+04 -2.36905E+04  2.13867E+03 -1.99537E+04 -8.28801E+03
 -1.09600E+04 -1.55350E+04 -1.30012E+03 -1.29470E+04  4.36922E+03 -8.02889E+03  3.87964E+03 -5.66912E+03
  3.90948E+03 -2.02622E+03  3.74067E+03 -3.81032E+03  7.09197E+03 -3.37237E+03  9.54639E+03 -1.44946E+03
  9.70717E+03  2.32101E+03  4.87662E+03  7.20178E+03 -2.11901E+03  1.01560E+04 -1.15320E+04  7.46490E+03
 -1.41522E+04 -5.54509E+02 -9.20841E+03 -1.00465E+04 -4.02247E+02 -1.39358E+04  7.50365E+03 -1.53025E+04
  1.56238E+04 -8.68825E+03  1.75874E+04  3.17244E+03  1.35436E+04  1.40704E+04  1.64654E+03  1.68855E+04
 -7.87068E+03  1.36191E+04 -1.07315E+04  4.28053E+03 -6.75286E+03 -1.51408E+03 -2.78460E+03 -2.31463E+03
 -1.12429E+03 -2.39909E+02 -2.78019E+03  2.60370E+03 -5.00532E+03  2.35109E+03 -1.05386E+04 -1.07055E+03
 -5.92344E+03 -1.04704E+04  4.69734E+01 -1.41188E+04  7.68196E+03 -1.32693E+04  1.38525E+04 -3.58990E+03
  1.27801E+04  4.59410E+03  6.17813E+03  1.22659E+04 -2.11019E+03  1.36825E+04 -9.54394E+03  9.35356E+03
 -1.36867E+04  8.68753E+02 -9.93852E+03 -7.90927E+03 -5.09593E+02 -1.08672E+04  7.00332E+03 -8.41738E+03
  8.57361E+03 -3.27371E+03  6.76663E+03  2.30369E+03  5.17153E+02  3.62467E+03  7.74060E+02  6.56124E+02
  2.58516E+03  1.37408E+01  4.29274E+03  3.63390E+02  3.57101E+03  3.99119E+03  3.74136E+03  6.36354E+03
 -2.15090E+03  1.16704E+04 -9.49691E+03  1.17651E+04 -1.42410E+04  2.99792E+03 -1.42466E+04 -5.85245E+03
 -6.84127E+03 -1.47787E+04  6.19776E+02 -1.52872E+04  8.56247E+03 -8.86675E+03  8.70412E+03 -3.44122E+03
  9.73229E+03  4.76647E+03  1.28884E+03  9.24197E+03 -3.33426E+03  5.23710E+03 -5.25460E+03  6.23093E+02
 -2.58783E+03 -6.95822E+03  3.38924E+03 -5.88947E+03  7.14164E+03 -2.86290E+03  5.98747E+03  1.12712E+03
  3.31376E+03  3.84600E+03 -3.90900E+02  2.16685E+03 -1.17241E+02  1.33914E+03  1.25395E+03 -6.14119E+02
  3.71325E+03  8.49092E+01  6.42814E+03  3.59224E+03  2.64829E+03  6.11236E+03 -1.52456E+03  9.14902E+03
 -7.24046E+03  6.98471E+03 -6.50837E+03  1.12736E+03 -7.30085E+03 -4.10834E+03 -3.05683E+03 -5.07549E+03
  9.08201E+01 -6.33403E+03  3.16071E+03 -2.55893E+03  2.70791E+03  3.23359E+03 -9.40507E+01  4.40886E+03
 -4.51819E+03  4.20378E+03 -8.19568E+03 -3.89508E+03 -2.74097E+03 -8.11111E+03  1.34651E+03 -8.08143E+03
  4.14369E+03 -4.64834E+03  6.22728E+03  6.09779E+02  3.86710E+03  1.86520E+03  1.72525E+03  3.21089E+03
 -2.73793E+03  1.58846E+03 -2.55995E+03 -9.45006E+02  1.74105E+03 -6.48199E+03  5.65383E+03 -3.44406E+03
  8.51891E+03 -5.93799E+02  8.93350E+03  5.27723E+03  3.59827E+03  1.04489E+04 -4.96278E+03  7.77571E+03
 -9.11151E+03  3.34923E+03 -9.16970E+03 -1.26549E+03 -3.44831E+03 -5.46305E+03  1.01788E+03 -4.97633E+03
  6.12017E+03 -2.42737E+03  4.95731E+03  3.08220E+03  1.11606E+03  5.14574E+03 -1.47610E+03  3.17225E+03
 -2.06582E+03  2.50796E+03 -2.82170E+03  5.07705E+02 -8.77772E+02  1.76180E+03 -1.53896E+03  1.72990E+03
 -2.28578E+03  3.29967E+03 -5.72667E+03  3.72006E+03 -9.17414E+03  6.85821E+02 -1.00901E+04 -6.15923E+03
 -5.16593E+03 -1.15650E+04  3.77741E+03 -1.32769E+04  8.49551E+03 -1.10227E+04  1.33866E+04 -3.87560E+03
  1.12820E+04  1.60631E+03  7.51446E+03  8.26037E+03  1.19801E+03  9.64729E+03 -4.37006E+03  5.61448E+03
 -4.65494E+03  2.84321E+03 -1.85219E+03 -1.92261E+02 -2.30195E+03 -2.30709E+03 -1.45592E+03 -7.00189E+02
 -2.73015E+03  8.60122E+02 -1.91271E+03 -1.54792E+03  1.13462E+02 -3.00474E+03 -7.31527E+02 -2.14142E+03
  3.71078E+03 -3.65029E+03  5.80324E+03 -3.62710E+02  4.78443E+03  6.22267E+03  3.15769E+03  8.89638E+03
 -5.15508E+03  1.09814E+04 -1.01322E+04  6.67858E+03 -1.13982E+04 -5.94535E+02 -7.67438E+03 -5.99993E+03
 -1.49184E+03 -9.28770E+03  1.94424E+03 -9.26693E+03  5.52843E+03 -3.73505E+03  6.44145E+03 -1.90712E+02
  3.45787E+03  3.80191E+03 -3.17665E+02  2.62991E+03 -1.48278E+03 -5.06741E+02 -1.05511E+03 -2.06520E+03
  3.60380E+03  3.62486E+02  4.99557E+03  2.11736E+03  7.17730E+02  3.18373E+03  2.76241E+02  4.64089E+03
 -2.80830E+03  5.22419E+03 -5.36232E+03 -7.20557E+02 -5.72514E+03 -4.87013E+03  8.63159E+02 -7.49966E+03
  5.30701E+03 -4.55696E+03  6.72600E+03 -6.60476E+02  4.36798E+03  1.94736E+03  4.81876E+03  4.99836E+03
  8.54631E+02  6.57927E+03 -2.42554E+03  4.97673E+03 -4.61547E+03  1.96320E+03 -3.83706E+03 -5.36589E+02
  2.34628E+02 -9.56384E+02 -1.47424E+03  3.39574E+02 -3.99673E+03  2.15081E+03 -4.84573E+03 -1.99076E+02
 -5.64925E+03 -3.29913E+03 -4.67754E+02 -6.48893E+03  2.87769E+03 -6.06225E+03  6.18044E+03 -2.34534E+03
  5.43362E+03  1.58854E+03  1.82317E+03  4.86325E+03 -1.09994E+03  7.12976E+03 -5.00756E+03  3.68266E+03
