 $NMID ID='MM_0lb_SNR200_11hz_g60_45.RAW', FMTDAT='(8E13.5)'
 TRAMP=1., VOLUME=1. $END
  3.09828E+05  1.32635E+03  3.37808E+05  2.51151E+05  8.49870E+04  3.37979E+05 -1.32934E+05  2.51973E+05
 -1.91250E+05  8.37366E+04 -1.12461E+05 -3.27427E+04  9.10658E+02 -5.26493E+04  5.38723E+04  7.97145E+02
  3.60382E+04  5.39287E+04 -1.70060E+04  7.60759E+04 -6.13960E+04  6.54169E+04 -8.56327E+04  3.22073E+04
 -8.24917E+04 -1.23633E+04 -5.79778E+04 -5.33412E+04 -1.60755E+04 -7.20313E+04  2.84758E+04 -4.71588E+04
  4.09461E+04  2.99273E+03  1.69942E+04  4.79722E+04 -3.66392E+04  4.82793E+04 -6.78021E+04 -7.12826E+02
 -5.52821E+04 -5.75379E+04 -8.14624E+03 -7.87297E+04  3.47817E+04 -5.49072E+04  4.89562E+04 -1.79919E+04
  4.39306E+04  1.21435E+04  3.35866E+04  2.63487E+04  1.62165E+04  2.97846E+04 -6.73751E+03  2.74375E+04
 -2.23154E+04  1.12962E+04 -1.85848E+04 -5.85493E+03  8.36378E+03 -8.47033E+03  2.21904E+04  1.20505E+04
  7.97598E+03  3.66257E+04 -3.40442E+04  3.82067E+04 -6.44599E+04  1.76146E+03 -5.73043E+04 -4.50390E+04
 -1.16688E+04 -6.54616E+04  4.04105E+04 -4.72142E+04  6.08267E+04 -1.82364E+03  3.76389E+04  3.43808E+04
 -4.56811E+03  3.92539E+04 -3.03456E+04  1.87391E+04 -3.32006E+04 -3.64247E+03 -1.96690E+04 -1.29111E+04
 -9.08464E+03 -1.47862E+04 -8.59373E+02 -1.81945E+04  6.04889E+03 -2.42592E+04  1.65272E+04 -1.25601E+04
  1.03754E+04  6.54230E+03 -8.90348E+03  1.33405E+04 -2.36048E+04 -7.73550E+03 -8.78090E+03 -3.77954E+04
  2.49167E+04 -4.66241E+04  5.21135E+04 -2.00605E+04  4.74104E+04  2.04893E+04  1.61028E+04  4.76924E+04
 -1.65169E+04  3.51928E+04 -2.67656E+04  3.19498E+03 -1.20610E+04 -2.78934E+04  2.11498E+04 -3.62691E+04
  4.38177E+04 -1.07395E+04  4.06262E+04  2.61679E+04  2.15274E+04  4.99928E+04 -9.56218E+03  5.47398E+04
 -3.62458E+04  3.75011E+04 -4.65405E+04  1.19314E+04 -4.70813E+04 -1.88015E+04 -2.53468E+04 -4.13097E+04
  7.31484E+03 -4.33298E+04  3.44559E+04 -1.77221E+04  3.17929E+04  1.13746E+04  4.91424E+03  2.02061E+04
 -1.55016E+04  8.12334E+03 -1.09250E+04 -7.54841E+03  6.61078E+03 -1.15004E+04  1.88131E+04  5.19279E+03
  1.48359E+04  2.33273E+04 -5.00518E+03  2.65700E+04 -2.33601E+04  1.44837E+04 -2.98446E+04 -3.42900E+03
 -2.39934E+04 -1.78691E+04 -1.10382E+04 -2.47636E+04  3.81360E+03 -2.47585E+04  1.83303E+04 -2.24427E+04
  3.08432E+04 -1.37854E+04  3.64648E+04  5.38192E+03  2.60841E+04  2.37469E+04  3.65580E+03  4.17709E+04
 -2.05490E+04  3.50770E+04 -3.10498E+04  1.09270E+04 -2.26144E+04 -1.06867E+04 -3.00480E+03 -1.24925E+04
  1.36019E+03 -1.87095E+03 -6.43724E+03  7.74434E+03 -2.16868E+04  5.14922E+03 -1.97922E+04 -9.29244E+03
 -1.28458E+04 -2.16750E+04  5.82775E+03 -2.63324E+04  2.09013E+04 -1.82488E+04  2.14794E+04 -1.86026E+03
  1.39474E+04  1.53534E+04 -1.37175E+03  2.39498E+04 -1.55977E+04  1.31323E+04 -2.35996E+04 -4.84326E+03
 -1.74019E+04 -1.97917E+04 -2.43931E+03 -2.79887E+04  1.12637E+04 -2.21454E+04  2.18187E+04 -1.20285E+04
  2.11315E+04 -6.12533E+02  1.48711E+04  3.79888E+03  8.11865E+03  8.14299E+02  1.19514E+04 -2.33761E+03
  2.18603E+04  2.88889E+03  2.42048E+04  1.63172E+04  1.68964E+04  3.60528E+04 -2.74941E+03  4.23632E+04
 -2.34183E+04  3.52400E+04 -3.91767E+04  1.84650E+04 -4.15356E+04 -3.33792E+03 -3.49028E+04 -2.44769E+04
 -1.29161E+04 -3.60711E+04  1.35820E+04 -3.07568E+04  2.62901E+04 -1.53233E+04  2.32334E+04  5.82168E+03
  7.03495E+03  1.74804E+04 -1.04688E+04  1.45696E+04 -1.83605E+04  2.98152E+03 -1.46810E+04 -1.06959E+04
 -3.41281E+02 -1.95359E+04  1.00043E+04 -1.26758E+04  1.23968E+04 -1.58006E+03  2.55176E+03  8.85321E+03
 -8.66061E+03  3.16124E+03 -8.30773E+03 -6.21107E+03 -1.83889E+03 -1.66159E+04  1.24842E+04 -1.97217E+04
  2.22230E+04 -1.18884E+04  2.45526E+04  3.86696E+03  2.14463E+04  1.71347E+04  9.88810E+03  2.66661E+04
 -5.40198E+03  3.02594E+04 -1.90974E+04  1.92279E+04 -2.05322E+04  2.67626E+03 -1.29352E+04 -6.40852E+03
 -4.97722E+03 -6.88291E+03 -5.05097E+02  5.22115E+01 -3.25643E+03  3.05544E+03 -7.13658E+03  5.47380E+03
 -1.39841E+04 -2.43187E+02 -1.48537E+04 -1.09342E+04 -4.98149E+03 -1.76474E+04  5.22690E+03 -1.48579E+04
  1.18956E+04 -6.99347E+03  8.66539E+03  5.30846E+03 -1.39455E+03  5.95697E+03 -7.47194E+03  1.55823E+02
 -5.94407E+03 -8.64811E+03 -6.95755E+02 -1.51982E+04  7.37949E+03 -1.53846E+04  1.87506E+04 -6.57991E+03
  2.06629E+04  8.55170E+02  1.43276E+04  1.38918E+04  2.65008E+03  1.81056E+04 -9.26196E+03  1.45147E+04
 -1.05235E+04  4.78713E+03 -7.03903E+03 -4.14796E+03  1.93126E+03 -5.67652E+03  8.84420E+03 -7.78855E+02
  6.69214E+03  6.17101E+03  1.00367E+03  1.20915E+04 -8.70370E+03  9.85113E+03 -1.22519E+04  2.32636E+03
 -9.94789E+03 -6.86421E+03 -6.65032E+02 -1.16241E+04  9.05717E+03 -7.00541E+03  9.00537E+03  2.37697E+03
  3.56454E+03  8.72773E+03 -7.79797E+03  1.13981E+04 -1.19048E+04  3.96370E+03 -1.32703E+04 -5.13011E+03
 -7.17146E+03 -1.48332E+04  3.56473E+03 -1.73252E+04  1.40995E+04 -1.02124E+04  1.46919E+04  1.52634E+03
  9.66501E+03  1.33667E+04 -6.67134E+02  1.48851E+04 -1.01223E+04  7.91642E+03 -1.01285E+04 -1.66479E+03
 -9.40230E+03 -1.00760E+04 -2.29950E+03 -1.08727E+04  6.19595E+03 -7.23146E+03  6.48867E+03 -4.68206E+03
  6.25573E+03  3.14725E+03 -9.83295E+02  2.57216E+03  1.54159E+01 -2.44443E+03  2.06205E+03 -6.55576E+03
  9.61585E+03 -4.16891E+03  1.37574E+04  1.49895E+03  1.51335E+04  9.16743E+03  9.43086E+03  1.86901E+04
 -5.21722E+03  2.13166E+04 -1.63462E+04  1.52033E+04 -2.13909E+04  3.85247E+03 -1.96158E+04 -8.06503E+03
 -8.74888E+03 -1.57263E+04 -3.68639E+02 -1.36821E+04  4.40995E+03 -6.74818E+03  5.51852E+03 -5.44874E+03
  3.02670E+03 -3.63613E+03  3.57332E+03 -2.80590E+03  5.54433E+03 -2.71602E+03  6.90290E+03 -1.22335E+03
  1.03375E+04  1.39421E+03  3.89610E+03  9.52441E+03 -3.68636E+03  1.03917E+04 -1.03427E+04  7.34809E+03
 -1.20816E+04 -1.37332E+03 -7.40128E+03 -9.23876E+03  4.69152E+02 -1.37290E+04  8.45617E+03 -1.37721E+04
  1.60040E+04 -6.89769E+03  1.69476E+04  1.02407E+03  1.22801E+04  1.06783E+04  3.44568E+03  1.64108E+04
 -4.93174E+03  1.21217E+04 -8.52512E+03  2.57844E+03 -4.72502E+03 -2.25571E+03 -3.13090E+03 -2.19554E+03
 -6.47332E+02  1.62957E+03 -3.29181E+03  3.23326E+03 -4.35560E+03  3.04036E+03 -9.46548E+03 -5.66822E+02
 -7.14203E+03 -8.86136E+03  5.31798E+02 -1.35618E+04  6.21658E+03 -1.34874E+04  1.17962E+04 -5.22250E+03
  1.19275E+04  5.22582E+03  5.16427E+03  1.18741E+04 -2.04465E+03  1.36926E+04 -8.81615E+03  6.81893E+03
 -1.20798E+04  1.05333E+01 -9.20221E+03 -6.39232E+03 -2.02371E+03 -9.22214E+03  5.26258E+03 -8.26530E+03
  7.79155E+03 -4.28788E+03  7.35409E+03  7.46293E+02  8.70111E+02  4.49494E+03  5.22855E+02  1.86414E+03
  3.72202E+03 -9.80172E+02  2.34795E+03  1.26235E+03  4.00610E+03  5.12713E+03  4.15946E+03  5.05219E+03
 -2.45344E+03  8.89816E+03 -6.78811E+03  9.84220E+03 -1.24727E+04  1.44591E+03 -1.37188E+04 -5.57562E+03
 -5.85839E+03 -1.33804E+04  1.52441E+03 -1.45401E+04  7.21614E+03 -9.13795E+03  1.04309E+04 -2.78696E+03
  7.97162E+03  5.61243E+03  1.10922E+03  8.30577E+03 -2.70053E+03  4.44259E+03 -3.87974E+03 -1.00808E+03
 -3.53034E+03 -6.00356E+03  2.88646E+03 -5.32908E+03  4.34946E+03 -2.30867E+03  5.28394E+03 -3.48730E+02
  3.79062E+03  1.96906E+03  1.76783E+03  2.75165E+03 -7.55791E+02  1.50594E+03  7.75942E+02 -5.43366E+01
  2.01924E+03 -2.83947E+02  5.48223E+03  2.10707E+03  2.49154E+03  8.67821E+03 -2.23946E+02  8.98263E+03
 -6.08281E+03  6.80856E+03 -9.57965E+03  1.38833E+03 -7.77051E+03 -3.78335E+03 -3.70877E+03 -2.96690E+03
  3.00921E+02 -3.87783E+03  2.99844E+03 -2.49912E+03  2.34815E+03  3.02515E+03 -2.44506E+03  4.75623E+03
 -4.13534E+03  2.67278E+03 -6.67039E+03 -3.36134E+03 -3.03346E+03 -7.21205E+03  1.01591E+03 -7.17861E+03
  3.83987E+03 -2.41205E+03  5.35708E+03 -1.00883E+03  4.47967E+03  1.44524E+03  9.32711E+02  3.55288E+03
 -1.96715E+03  1.83661E+03 -2.82048E+03 -3.17021E+03  2.30046E+02 -5.56317E+03  5.75500E+03 -4.80891E+03
  5.18318E+03  8.07214E+02  7.22037E+03  5.03885E+03  3.04713E+03  7.15481E+03 -2.56051E+03  6.49132E+03
 -5.90766E+03  3.41373E+03 -6.03609E+03 -3.92698E+02 -3.28040E+03 -5.80823E+03  1.45400E+03 -4.56434E+03
  4.28233E+03 -3.71410E+03  4.80459E+03  2.47033E+03  7.47170E+02  4.46690E+03  5.08805E+01  3.78163E+03
 -1.76014E+03  4.41789E+03 -1.92195E+03  1.24191E+03  1.42391E+03  1.37958E+03 -1.26773E+03  2.18675E+03
 -2.09944E+03  3.12794E+03 -4.85523E+03  2.17545E+03 -8.12055E+03 -1.19945E+03 -9.77690E+03 -5.45341E+03
 -3.98442E+03 -1.18718E+04  1.11122E+03 -9.95970E+03  7.94949E+03 -9.29235E+03  1.18747E+04 -1.52280E+03
  8.92290E+03  3.33489E+03  7.13833E+03  6.35490E+03  1.24103E+03  6.88958E+03 -1.65660E+03  5.17786E+03
 -4.58532E+03  3.16246E+03 -2.69827E+03 -1.42140E+03 -2.02942E+03  8.32157E+02 -8.67312E+02 -2.18366E+03
 -4.69111E+02 -8.05563E+01 -2.27906E+03 -1.73637E+02 -2.00799E+03 -1.60535E+03  7.30659E+01 -2.03505E+03
  3.88772E+03 -2.21355E+03  5.39538E+03  1.12496E+03  5.76562E+03  4.89325E+03  1.95558E+03  8.20079E+03
 -4.13484E+03  9.90780E+03 -8.93117E+03  5.43141E+03 -9.36187E+03  6.59643E+02 -6.18405E+03 -4.85187E+03
 -3.80478E+03 -9.35677E+03  3.43672E+03 -6.76412E+03  4.85820E+03 -3.00468E+03  5.76831E+03  4.38967E+02
  2.91435E+03  7.77373E+02  1.19263E+03  3.08438E+03 -1.06042E+03 -7.64147E+02  5.82636E+02 -2.66871E+03
  3.12339E+03 -1.02294E+03  2.10639E+03  1.97491E+03  2.11982E+03  3.17017E+03  2.10784E+03  4.32827E+03
 -3.78795E+03  3.59895E+03 -6.23193E+03  7.15225E+02 -3.23757E+03 -4.17627E+03 -1.08819E+03 -6.50232E+03
  5.13699E+03 -5.74357E+03  5.31128E+03 -2.72120E+03  5.44523E+03  1.19895E+03  3.05011E+03  4.72935E+03
  6.52950E+02  4.54264E+03 -1.83211E+03  3.75839E+03 -3.02515E+03  3.00816E+03 -3.01915E+03  1.44041E+03
 -1.79133E+03 -7.49597E+02 -2.20245E+03  1.44559E+03 -2.18203E+03  1.96110E+03 -4.66376E+03 -6.89261E+01
 -4.41033E+03 -3.51252E+03 -4.12680E+02 -4.79920E+03  2.91870E+03 -5.38023E+03  4.43974E+03 -3.90370E+03
  3.98273E+03  1.87167E+03  1.09504E+03  3.06775E+03 -5.43531E+02  3.86740E+03 -3.51212E+03  2.33912E+03
