 $NMID ID='MM_0lb_SNR200_14hz_g60_83.RAW', FMTDAT='(8E13.5)'
 TRAMP=1., VOLUME=1. $END
  3.09981E+05  1.54482E+03  3.37260E+05  2.51144E+05  8.54920E+04  3.37797E+05 -1.33060E+05  2.51265E+05
 -1.90825E+05  8.25975E+04 -1.11704E+05 -3.22422E+04 -2.19343E+02 -5.10137E+04  5.31661E+04 -3.70648E+02
  3.56287E+04  5.30945E+04 -1.60868E+04  7.53065E+04 -6.13311E+04  6.28220E+04 -8.43895E+04  3.22638E+04
 -8.12307E+04 -1.25965E+04 -5.71140E+04 -5.04589E+04 -1.57988E+04 -6.88362E+04  2.88775E+04 -4.65368E+04
  4.12176E+04  2.30142E+03  1.69678E+04  4.93961E+04 -3.55993E+04  4.74978E+04 -6.73867E+04  6.49148E+02
 -5.43467E+04 -5.77690E+04 -7.46348E+03 -7.75128E+04  3.47134E+04 -5.64567E+04  4.87965E+04 -1.80284E+04
  4.44811E+04  1.17463E+04  3.32466E+04  2.55524E+04  1.56936E+04  3.06689E+04 -4.85316E+03  2.77391E+04
 -2.26700E+04  1.29300E+04 -1.86727E+04 -4.35315E+03  7.84038E+03 -6.67755E+03  2.25273E+04  1.32349E+04
  8.02122E+03  3.59882E+04 -3.30306E+04  3.59504E+04 -6.53979E+04  2.80720E+03 -5.75664E+04 -4.41507E+04
 -1.26868E+04 -6.52190E+04  4.00342E+04 -4.59324E+04  5.95850E+04 -8.01878E+02  3.49962E+04  3.43899E+04
 -5.84040E+03  3.77535E+04 -3.04263E+04  1.55861E+04 -3.06006E+04 -3.29322E+03 -1.80447E+04 -1.07375E+04
 -8.37976E+03 -1.42191E+04  9.28761E+01 -1.92687E+04  7.58109E+03 -2.31004E+04  1.51471E+04 -1.31510E+04
  1.21903E+04  7.01371E+03 -9.50999E+03  1.21495E+04 -2.17777E+04 -5.60624E+03 -9.75998E+03 -3.49489E+04
  2.36323E+04 -4.36824E+04  4.95145E+04 -1.88887E+04  4.59567E+04  2.10729E+04  1.60607E+04  4.39293E+04
 -1.58686E+04  3.43044E+04 -2.66724E+04  1.92920E+03 -1.02446E+04 -2.83538E+04  2.08366E+04 -3.51869E+04
  4.27843E+04 -1.02639E+04  3.68223E+04  2.49598E+04  1.81169E+04  4.80218E+04 -8.49328E+03  5.31584E+04
 -3.31283E+04  3.51705E+04 -4.31274E+04  9.96725E+03 -4.44707E+04 -1.68226E+04 -2.35559E+04 -3.93976E+04
  6.55388E+03 -4.02622E+04  3.21998E+04 -1.46731E+04  3.01640E+04  9.22130E+03  5.29190E+03  2.00057E+04
 -1.16730E+04  8.82252E+03 -1.11175E+04 -7.14874E+03  6.71786E+03 -1.12926E+04  1.83571E+04  5.31180E+03
  1.32207E+04  2.18945E+04 -4.59148E+03  2.49728E+04 -2.30986E+04  1.28285E+04 -2.82376E+04 -3.65166E+03
 -2.10682E+04 -1.78123E+04 -1.02270E+04 -2.30308E+04  3.62345E+03 -2.00563E+04  1.61552E+04 -1.91171E+04
  2.78391E+04 -1.27715E+04  3.31339E+04  3.32190E+03  2.71546E+04  2.04261E+04  4.97518E+03  3.70424E+04
 -1.80028E+04  3.21860E+04 -2.94154E+04  1.15070E+04 -2.16657E+04 -9.92317E+03 -4.82197E+03 -1.26708E+04
  2.04668E+03 -3.05611E+03 -5.81144E+03  6.52941E+03 -1.78952E+04  4.01457E+03 -1.87289E+04 -8.23674E+03
 -9.42121E+03 -2.10198E+04  5.62879E+03 -2.42639E+04  1.69617E+04 -1.83043E+04  1.86995E+04 -4.94831E+02
  1.25626E+04  1.33497E+04 -1.16840E+03  1.93711E+04 -1.40793E+04  1.20238E+04 -2.10621E+04 -3.79464E+03
 -1.34846E+04 -1.94229E+04 -2.58325E+03 -2.38538E+04  1.02961E+04 -2.01965E+04  2.04096E+04 -9.39690E+03
  1.99681E+04  1.05158E+02  1.43775E+04  5.73216E+03  6.62824E+03  4.06022E+02  1.08858E+04 -9.19295E+02
  1.76840E+04  2.43290E+03  1.92547E+04  1.62371E+04  1.37598E+04  3.25789E+04 -3.14451E+03  3.68868E+04
 -2.16370E+04  3.04950E+04 -3.41558E+04  1.54884E+04 -3.56830E+04 -3.85359E+03 -2.94580E+04 -2.12190E+04
 -1.23345E+04 -2.97090E+04  1.04881E+04 -2.65170E+04  2.38371E+04 -1.35408E+04  2.08686E+04  6.74684E+03
  7.70645E+03  1.52778E+04 -9.62984E+03  1.36837E+04 -1.61404E+04  3.65693E+03 -1.36622E+04 -1.17163E+04
 -4.21076E+02 -1.57810E+04  8.83231E+03 -1.22111E+04  1.06500E+04 -1.60553E+03  2.63004E+03  6.04775E+03
 -8.44743E+03  2.80854E+03 -7.03720E+03 -5.82010E+03 -1.60488E+03 -1.48345E+04  9.78823E+03 -1.55225E+04
  1.80040E+04 -8.95293E+03  1.85011E+04  3.36938E+03  1.78671E+04  1.43140E+04  8.06508E+03  2.16825E+04
 -3.30345E+03  2.34452E+04 -1.48699E+04  1.57282E+04 -1.78863E+04  3.11825E+03 -1.15334E+04 -2.60097E+03
 -6.42682E+03 -5.01640E+03  4.17406E+01  1.09673E+03 -2.37282E+03  3.34718E+03 -6.26325E+03  5.73090E+03
 -1.16585E+04 -4.35119E+01 -1.09425E+04 -9.36278E+03 -5.27072E+03 -1.49388E+04  4.95811E+03 -1.14628E+04
  1.13657E+04 -6.25415E+03  6.38605E+03  3.58497E+03  9.00771E+02  4.58896E+03 -6.08373E+03 -1.07370E+03
 -5.97418E+03 -7.92943E+03 -1.27278E+03 -1.23677E+04  6.61037E+03 -1.21706E+04  1.46137E+04 -5.06039E+03
  1.81431E+04  1.58265E+03  1.22437E+04  9.05092E+03  1.95260E+03  1.39012E+04 -7.87339E+03  1.23085E+04
 -1.04396E+04  4.32354E+03 -4.03394E+03 -2.82402E+03  2.42425E+03 -3.48090E+03  6.92201E+03 -2.03688E+03
  5.49548E+03  5.67191E+03  4.86137E+02  8.21002E+03 -6.76803E+03  1.05327E+04 -1.28740E+04  2.67497E+03
 -6.93180E+03 -6.63039E+03 -1.74887E+02 -9.42771E+03  5.58759E+03 -5.14718E+03  6.43254E+03  1.62242E+03
  1.07404E+03  6.50585E+03 -5.77655E+03  9.13125E+03 -8.93888E+03  3.24635E+03 -9.47472E+03 -3.90841E+03
 -5.49215E+03 -1.07550E+04  2.90868E+03 -1.16704E+04  1.02373E+04 -7.45142E+03  1.20869E+04  2.11462E+03
  7.29841E+03  9.34419E+03 -5.54370E+02  9.83805E+03 -8.11498E+03  7.14832E+03 -8.67543E+03 -9.04268E+02
 -7.89247E+03 -7.54191E+03 -2.45905E+03 -8.99539E+03  3.46610E+03 -7.42617E+03  4.96511E+03 -1.97844E+03
  3.83150E+03  2.04602E+03  8.42392E+02  1.43745E+03  6.97783E+02 -7.56443E+02  3.37321E+02 -3.88425E+03
  7.12814E+03 -2.49041E+03  8.98887E+03  4.88709E+02  9.61625E+03  7.30544E+03  7.86536E+03  1.36260E+04
 -3.91872E+03  1.69167E+04 -1.26223E+04  1.02194E+04 -1.82971E+04  6.65062E+02 -1.30021E+04 -4.65488E+03
 -7.53055E+03 -1.12633E+04  2.34201E+02 -8.95140E+03  4.50937E+03 -4.90160E+03  2.40322E+03 -3.53942E+03
  2.01035E+03 -1.40493E+03  2.32033E+03 -4.53142E+03  3.58905E+03 -2.03039E+03  5.27060E+03 -5.11011E+02
  6.87340E+03  4.37373E+02  2.99594E+03  6.23716E+03 -2.81420E+03  7.72174E+03 -6.64735E+03  5.73125E+03
 -9.06883E+03 -1.63674E+03 -6.81220E+03 -5.91475E+03 -1.25058E+03 -1.05871E+04  6.55607E+03 -1.02866E+04
  1.00753E+04 -5.17969E+03  1.26865E+04  1.79291E+02  8.92937E+03  8.93104E+03  1.40719E+03  1.14495E+04
 -3.93584E+03  8.89969E+03 -6.50316E+03  2.98436E+03 -3.86817E+03 -1.57045E+03 -2.16695E+03 -7.07252E+02
 -1.21090E+03 -8.48480E+02 -1.21750E+03  1.20048E+03 -4.20697E+03  1.74936E+03 -6.26992E+03  3.50335E+02
 -4.11461E+03 -6.43971E+03  3.09205E+01 -1.00073E+04  5.43321E+03 -8.69750E+03  7.72730E+03 -3.70816E+03
  9.79813E+03  3.79613E+03  3.68391E+03  7.15647E+03 -2.47700E+03  8.93532E+03 -6.16915E+03  5.97964E+03
 -7.32385E+03  5.09832E+02 -5.99434E+03 -5.30788E+03 -6.93802E+02 -8.15661E+03  3.28317E+03 -4.79780E+03
  6.18296E+03 -2.15798E+03  3.37754E+03  1.15719E+03  9.52768E+02  3.13023E+03  1.96465E+03  9.16655E+02
  2.62168E+03  2.45622E+02  2.61687E+03  9.93069E+02  1.31496E+03  4.54826E+03  3.79049E+03  4.59089E+03
 -3.09092E+03  6.02019E+03 -4.36394E+03  7.30696E+03 -7.18181E+03  2.91521E+02 -8.25467E+03 -2.63297E+03
 -3.00625E+03 -8.35409E+03  1.24103E+03 -8.27400E+03  4.35531E+03 -5.23555E+03  7.61785E+03 -1.54622E+03
  4.47542E+03  3.41475E+03  2.41782E+03  5.59117E+03 -2.75320E+03  2.19168E+03 -2.00931E+03  6.82455E+02
 -6.22225E+02 -3.09930E+03  2.63980E+03 -4.24840E+03  2.97502E+03 -1.66297E+03  2.51553E+03  1.21353E+03
  2.29781E+03  9.59240E+02  1.40699E+03  1.36930E+03  2.49362E+02  1.27279E+03  2.05245E+03  2.64395E+02
  2.77182E+03 -3.50452E+02  2.83699E+03  1.68555E+03  1.10628E+03  3.77435E+03 -6.69571E+02  5.63400E+03
 -2.81910E+03  3.65782E+03 -4.21919E+03  5.84282E+02 -3.23149E+03 -1.35995E+03  9.17193E+01 -3.24419E+03
  2.40753E+02 -1.61626E+03  1.46078E+03 -1.40557E+03  1.74406E+03  3.37893E+03 -2.40990E+03  1.99108E+03
 -2.69679E+03  2.07340E+03 -3.04445E+03 -2.02237E+03 -1.44886E+03 -3.63769E+03  1.77459E+02 -4.42013E+03
  2.35192E+03 -1.26406E+03  2.47596E+03 -5.10784E+02  3.02477E+03  1.77616E+02  6.68915E+02  2.18779E+03
 -3.85325E+03 -5.15868E+02 -1.32187E+03 -2.25925E+02  8.91428E+02 -1.52151E+03  4.48752E+03 -3.32034E+03
  4.28817E+03  6.00641E+01  4.88468E+03  3.07570E+03  1.36575E+03  3.61786E+03 -9.76323E+02  3.83026E+03
 -3.70596E+03  1.45741E+03 -2.41720E+03 -2.89026E+02 -2.00150E+03 -4.60316E+03  9.97584E+02 -2.30806E+03
  3.14174E+03 -6.70994E+02  2.33453E+03  7.21402E+02  1.16975E+03  3.47209E+03 -7.13217E+02  1.57300E+03
 -1.02429E+03  2.21991E+03 -9.45801E+02  1.12224E+03 -1.01717E+03  1.81408E+02 -1.72305E+03  2.12805E+03
 -9.72485E+02  1.12660E+03 -4.86191E+03  1.34245E+03 -3.85587E+03  6.79057E+02 -5.10961E+03 -2.39578E+03
 -2.05857E+03 -5.27432E+03  4.40267E+02 -6.64153E+03  4.41153E+03 -4.70992E+03  7.60084E+03 -2.68407E+03
  5.89190E+03  1.42381E+03  3.69756E+03  2.81754E+03  6.40241E+00  3.43637E+03 -2.63114E+03  2.84727E+03
 -2.91054E+03 -1.81801E+02 -2.27099E+03 -9.38761E+02 -1.66309E+03  9.57415E+00 -8.69437E+02 -1.70146E+02
 -1.38347E+03  6.64286E+02 -1.52969E+03 -2.50752E+02 -5.88411E+02 -1.52354E+03 -1.11998E+03 -2.70772E+03
  1.41238E+03 -1.52006E+03  2.15475E+03  6.45486E+02  2.37439E+03  1.39335E+03  9.49579E+02  4.28003E+03
 -2.68193E+03  3.86568E+03 -5.77129E+03  3.27580E+03 -4.75392E+03  9.28176E+02 -3.46783E+03 -2.72902E+03
 -7.60654E+02 -4.54976E+03  1.58455E+03 -4.49525E+03  2.95670E+03 -1.22021E+03  2.84418E+03  1.91299E+02
  6.99529E+02  1.63647E+03 -7.71768E+02  9.61974E+02 -7.46066E+02  5.28706E+02 -1.23011E+03 -2.15577E+03
  1.37521E+03 -8.09957E+02  8.22142E+02  1.10425E+03 -2.22731E+01  1.93092E+03  6.28397E+02  9.56211E+01
 -1.60911E+03  1.56675E+03 -2.54414E+03 -1.28441E+02 -3.24654E+03 -2.01438E+03  1.19074E+03 -3.16696E+03
  1.74339E+03 -3.06406E+03  1.89407E+03 -1.09392E+03  2.77024E+03  9.58965E+01  2.00914E+03  1.97302E+03
  3.54092E+02  1.56853E+03 -1.05255E+03  3.52054E+03 -1.95866E+03  1.31342E+03 -2.13569E+03  1.28829E+03
 -4.03517E+02 -1.50200E+03  6.59996E+02  6.39451E+02 -1.99589E+03  9.31827E+02 -1.06984E+03  4.54956E+01
 -2.07459E+03 -1.26126E+03 -6.09791E+02 -2.96464E+03  2.88756E+03 -2.52393E+03  2.94239E+03 -2.02342E+03
  3.22522E+03 -3.36219E+02  1.03786E+03  1.80658E+03  4.47575E+02  2.15200E+03 -2.74012E+03  1.48952E+03
