 $NMID ID='MM_0lb_SNR200_8hz_g45_79.RAW', FMTDAT='(8E13.5)'
 TRAMP=1., VOLUME=1. $END
  3.07993E+05  1.52643E+03  3.37943E+05  2.50602E+05  8.66093E+04  3.37701E+05 -1.32884E+05  2.53132E+05
 -1.93027E+05  8.44899E+04 -1.12144E+05 -3.27731E+04 -5.08096E+02 -5.03292E+04  5.36087E+04 -1.44180E+03
  3.54171E+04  5.26059E+04 -1.79042E+04  7.67376E+04 -6.05669E+04  6.48017E+04 -8.39889E+04  3.20070E+04
 -8.21640E+04 -1.21680E+04 -5.77276E+04 -5.05851E+04 -1.45793E+04 -7.04336E+04  2.94741E+04 -4.62721E+04
  4.11567E+04  3.41383E+03  1.72777E+04  4.71456E+04 -3.64913E+04  4.72374E+04 -6.73626E+04  2.63214E+03
 -5.38669E+04 -5.73401E+04 -8.77162E+03 -8.06852E+04  3.40719E+04 -5.50923E+04  4.98060E+04 -1.84366E+04
  4.51460E+04  1.15119E+04  3.15505E+04  2.73427E+04  1.53230E+04  3.11417E+04 -6.06208E+03  2.76547E+04
 -2.27492E+04  1.10240E+04 -1.65917E+04 -5.17672E+03  8.61206E+03 -7.67318E+03  2.41916E+04  1.39083E+04
  7.11801E+03  3.78227E+04 -3.55608E+04  3.61297E+04 -6.61527E+04  1.65598E+03 -5.92029E+04 -4.52871E+04
 -1.29989E+04 -6.54444E+04  4.02939E+04 -4.88439E+04  6.49360E+04 -2.37530E+03  3.79603E+04  3.41076E+04
 -5.14198E+03  3.81574E+04 -3.07819E+04  1.85920E+04 -3.44930E+04 -3.24851E+03 -1.85356E+04 -1.00908E+04
 -1.08631E+04 -1.48114E+04 -8.53921E+02 -2.19072E+04  7.22420E+03 -2.44701E+04  1.49065E+04 -1.30002E+04
  1.16220E+04  8.38935E+03 -1.04899E+04  1.36537E+04 -2.48649E+04 -6.59413E+03 -7.91978E+03 -3.74424E+04
  2.53352E+04 -4.61648E+04  5.18181E+04 -2.03402E+04  4.94876E+04  2.10398E+04  1.69696E+04  4.73763E+04
 -1.68366E+04  3.67236E+04 -2.61533E+04  3.01260E+03 -1.16553E+04 -2.87536E+04  2.20966E+04 -3.84151E+04
  4.54071E+04 -1.25780E+04  3.95863E+04  2.66543E+04  2.12519E+04  5.13318E+04 -9.04041E+03  5.71610E+04
 -3.40073E+04  3.61842E+04 -4.77457E+04  1.10857E+04 -4.83593E+04 -1.66582E+04 -2.59818E+04 -4.21335E+04
  8.33021E+03 -4.41464E+04  3.36076E+04 -1.76791E+04  3.25868E+04  9.44886E+03  5.07386E+03  2.04014E+04
 -1.35092E+04  1.18436E+04 -1.12269E+04 -9.26183E+03  5.64993E+03 -1.17493E+04  1.83369E+04  5.57402E+03
  1.54217E+04  2.35063E+04 -5.44954E+03  2.68508E+04 -2.43559E+04  1.52334E+04 -3.24265E+04 -2.80084E+03
 -2.61860E+04 -1.85147E+04 -1.19416E+04 -2.63463E+04  5.43143E+03 -2.55362E+04  1.92509E+04 -2.27579E+04
  3.36658E+04 -1.47599E+04  3.89240E+04  4.55861E+03  2.65810E+04  2.55218E+04  2.49699E+03  4.03765E+04
 -1.96216E+04  3.47585E+04 -3.13771E+04  1.21742E+04 -2.26369E+04 -1.11869E+04 -5.80671E+03 -1.36909E+04
  1.51940E+02 -1.23620E+03 -8.50617E+03  8.40354E+03 -1.94630E+04  3.53645E+03 -2.03076E+04 -9.07229E+03
 -1.18089E+04 -2.37385E+04  7.01826E+03 -2.86220E+04  2.00716E+04 -1.95629E+04  2.36099E+04 -2.45532E+03
  1.54509E+04  1.59709E+04 -1.30579E+03  2.39085E+04 -1.69220E+04  1.33325E+04 -2.27166E+04 -6.24159E+03
 -1.85614E+04 -1.99791E+04 -2.78127E+03 -2.76908E+04  1.16470E+04 -2.47441E+04  2.41732E+04 -1.09785E+04
  2.33221E+04  8.19273E+02  1.67614E+04  3.70227E+03  7.28754E+03  3.10498E+03  1.05322E+04 -1.74898E+03
  2.22695E+04  1.41617E+03  2.79679E+04  1.81595E+04  1.85751E+04  3.78459E+04 -1.12596E+03  4.59923E+04
 -2.52480E+04  3.74097E+04 -4.38877E+04  2.05130E+04 -4.60127E+04 -3.68576E+03 -3.75309E+04 -2.59279E+04
 -1.52853E+04 -3.79247E+04  1.48293E+04 -3.33216E+04  2.79634E+04 -1.75009E+04  2.49438E+04  7.70589E+03
  6.80093E+03  2.04881E+04 -1.15133E+04  1.64551E+04 -2.10647E+04  2.74624E+03 -1.56654E+04 -1.30821E+04
 -8.95710E+02 -2.03814E+04  1.11902E+04 -1.50421E+04  1.43990E+04 -1.67626E+03  4.70812E+03  8.45104E+03
 -8.27397E+03  4.40781E+03 -1.01761E+04 -7.74215E+03 -5.89210E+02 -1.91257E+04  1.35912E+04 -2.03447E+04
  2.38307E+04 -1.03170E+04  2.73457E+04  4.93502E+03  2.50835E+04  1.87973E+04  1.21736E+04  3.17501E+04
 -7.43091E+03  3.32514E+04 -2.10625E+04  1.89382E+04 -2.23951E+04  3.66847E+03 -1.70683E+04 -7.78607E+03
 -6.21209E+03 -9.38940E+03 -1.36219E+03  1.27822E+03 -4.04325E+03  2.43043E+03 -6.94268E+03  5.60872E+03
 -1.65714E+04 -9.40350E+02 -1.56303E+04 -1.10690E+04 -7.12342E+03 -1.96490E+04  7.16609E+03 -1.66149E+04
  1.32061E+04 -7.43873E+03  8.64488E+03  5.70939E+03 -2.03349E+03  5.10354E+03 -8.24385E+03  7.79247E+02
 -8.09465E+03 -9.14993E+03 -1.82147E+03 -1.54155E+04  9.22033E+03 -1.69690E+04  2.04548E+04 -9.34400E+03
  2.51007E+04  2.43766E+03  1.75271E+04  1.63130E+04  4.00235E+03  2.03918E+04 -9.23809E+03  1.52023E+04
 -1.47058E+04  4.01018E+03 -7.08784E+03 -4.00426E+03  3.85431E+03 -5.04007E+03  8.47239E+03 -4.83814E+02
  7.86050E+03  6.46378E+03  1.72571E+03  1.32391E+04 -7.92066E+03  1.31170E+04 -1.57328E+04  3.10762E+03
 -1.00236E+04 -8.18540E+03 -3.07869E+02 -1.36819E+04  9.77218E+03 -7.37335E+03  8.72040E+03  4.99309E+03
  3.13653E+03  1.10124E+04 -8.84641E+03  1.24185E+04 -1.39731E+04  4.72378E+03 -1.40949E+04 -5.22636E+03
 -8.55260E+03 -1.62606E+04  4.11116E+03 -1.81667E+04  1.54462E+04 -1.11422E+04  1.76211E+04  3.71189E+03
  1.16322E+04  1.45293E+04 -3.49679E+03  1.66140E+04 -1.24836E+04  9.74122E+03 -1.22116E+04 -2.47317E+03
 -1.02615E+04 -1.20402E+04 -1.13077E+03 -1.18720E+04  6.60030E+03 -1.03813E+04  9.10193E+03 -5.07522E+03
  3.64400E+03  2.11145E+03  4.52475E+02  4.44015E+03 -1.30404E+03 -3.44442E+03  3.55203E+03 -7.92574E+03
  1.28009E+04 -4.15451E+03  1.62091E+04  2.57666E+03  1.87739E+04  1.18635E+04  1.20140E+04  2.21090E+04
 -5.32021E+03  2.46154E+04 -2.12999E+04  1.86212E+04 -2.56902E+04  3.23702E+03 -2.23060E+04 -9.72681E+03
 -1.04340E+04 -1.76492E+04 -7.29213E+02 -1.65815E+04  7.70981E+03 -8.20576E+03  4.70113E+03 -5.83428E+03
  4.43946E+03 -3.83218E+03  4.48828E+03 -4.98089E+03  5.59472E+03 -2.55844E+03  7.46584E+03  3.98128E+02
  1.04119E+04  2.50977E+03  7.20274E+03  1.02153E+04 -1.36160E+03  1.14862E+04 -1.25444E+04  7.51469E+03
 -1.56971E+04 -3.06551E+03 -9.69569E+03 -1.08162E+04 -8.00000E+02 -1.58263E+04  9.25584E+03 -1.68003E+04
  1.75474E+04 -9.34198E+03  2.04850E+04  5.39810E+03  1.52108E+04  1.36446E+04  1.97951E+03  1.81534E+04
 -6.52713E+03  1.60043E+04 -1.23209E+04  5.15588E+03 -6.98097E+03 -1.85946E+03 -3.20885E+03 -1.90212E+03
 -2.24163E+03 -4.13678E+02 -3.08774E+03  4.77816E+03 -5.97434E+03  2.30404E+03 -1.02482E+04 -1.45991E+03
 -8.78328E+03 -1.03208E+04 -1.30186E+01 -1.58134E+04  9.96878E+03 -1.41733E+04  1.65798E+04 -3.48218E+03
  1.51365E+04  7.72670E+03  8.71084E+03  1.26183E+04 -3.43162E+03  1.70397E+04 -1.13626E+04  1.06741E+04
 -1.47164E+04  6.08531E+02 -1.08258E+04 -9.36313E+03 -2.31871E+03 -1.31847E+04  6.26410E+03 -1.04192E+04
  1.10285E+04 -2.47698E+03  6.93805E+03  2.89633E+03  1.72303E+03  4.36014E+03  1.17102E+03  2.94874E+03
  2.23470E+03  7.02025E+02  4.48726E+03  1.02721E+03  5.59549E+03  6.46802E+03  3.47536E+03  9.06707E+03
 -4.08024E+03  1.34405E+04 -1.16302E+04  1.19956E+04 -1.66738E+04  5.56783E+03 -1.66851E+04 -6.29554E+03
 -6.87729E+03 -1.71652E+04  1.16715E+03 -1.65756E+04  1.02761E+04 -1.21732E+04  1.44955E+04 -8.66623E+02
  1.03244E+04  6.80828E+03  2.74039E+03  9.15982E+03 -2.98442E+03  6.78266E+03 -7.30252E+03  6.79525E+02
 -3.69926E+03 -8.11810E+03  3.52545E+03 -8.09377E+03  6.51797E+03 -3.07484E+03  6.26681E+03  1.72025E+03
  2.55889E+03  2.66571E+03  9.19948E+02  3.93593E+03 -2.26913E+03  7.22714E+02  1.94826E+03 -1.70946E+03
  2.36330E+03 -8.34682E+02  5.95226E+03  3.60503E+03  3.61630E+03  9.89459E+03 -1.03502E+03  1.20335E+04
 -9.04763E+03  8.00508E+03 -1.15331E+04  7.08755E+02 -9.17546E+03 -5.96069E+03 -4.63097E+03 -8.02988E+03
  2.87980E+03 -6.32004E+03  3.17391E+03 -2.84579E+03  4.16740E+03  1.58088E+03 -1.46492E+03  4.79826E+03
 -7.79359E+03  3.82655E+03 -6.92807E+03 -4.49378E+03 -5.44286E+03 -7.40820E+03  1.51627E+02 -1.07616E+04
  5.60659E+03 -5.34317E+03  6.60508E+03 -2.66516E+03  6.20643E+03  2.54974E+03  2.16760E+03  4.92061E+03
 -1.60995E+03  2.70244E+03 -3.41264E+03 -2.79180E+03  1.27932E+03 -6.54789E+03  8.80488E+03 -8.03847E+03
  1.21011E+04  4.97522E+02  1.15848E+04  6.13861E+03  4.07806E+03  1.22696E+04 -3.83203E+03  1.32100E+04
 -8.04321E+03  4.93387E+03 -9.36403E+03 -1.24055E+03 -6.92095E+03 -7.16460E+03  2.15023E+03 -7.28408E+03
  5.84741E+03 -2.25578E+03  7.22694E+03  3.10007E+03  1.65139E+03  5.51109E+03 -1.02056E+03  5.51281E+03
 -2.63479E+03  2.98377E+03 -2.31191E+03  2.15943E+03 -2.98179E+03  1.57892E+03 -1.06515E+03  3.51370E+03
 -3.29586E+03  6.59801E+03 -6.96361E+03  3.37557E+03 -1.08784E+04  3.24092E+02 -1.09074E+04 -7.63448E+03
 -5.78482E+03 -1.52721E+04  2.88378E+03 -1.77838E+04  1.01000E+04 -1.60150E+04  1.63054E+04 -6.34039E+03
  1.53739E+04  3.41394E+03  9.88844E+03  1.03286E+04 -8.21434E+02  1.14884E+04 -4.83302E+03  9.08467E+03
 -7.55763E+03  3.39421E+03 -4.62027E+03 -1.44685E+03 -1.92410E+03 -1.37097E+03 -1.88462E+02  7.25987E+02
 -1.71218E+03 -3.14530E+02 -2.97290E+03 -2.05496E+03 -1.72008E+03 -1.30484E+03 -2.35749E+02 -3.80464E+03
  4.08579E+03 -2.89437E+03  7.51882E+03  2.12720E+02  9.36390E+03  6.19063E+03  1.41508E+03  1.24024E+04
 -3.74295E+03  1.35922E+04 -1.39562E+04  7.65491E+03 -1.52534E+04  3.39055E+02 -1.23566E+04 -9.42671E+03
 -4.17731E+03 -1.24785E+04  2.29187E+03 -1.08696E+04  6.96461E+03 -6.87332E+03  8.49542E+03  5.65885E+02
  5.00922E+03  3.03551E+03 -6.19843E+02  4.52503E+03 -1.98881E+03  1.04304E+03 -2.20344E+02 -2.09313E+03
  4.54011E+03 -1.74719E+02  4.78815E+03  1.75354E+03  4.53430E+03  4.93950E+03 -8.10091E+00  6.41101E+03
 -5.39166E+03  5.12134E+03 -6.16311E+03  2.83212E+03 -5.62374E+03 -4.82980E+03 -2.49551E+03 -9.46830E+03
  5.59316E+03 -9.45353E+03  9.56020E+03 -1.21933E+03  1.03764E+04  3.54515E+03  4.93844E+03  5.79388E+03
  3.78744E+03  7.89401E+03 -1.90778E+03  6.67936E+03 -4.67483E+03  3.31038E+03 -3.62291E+03  1.43389E+03
 -7.56190E+02  1.37703E+03 -1.22126E+03 -3.72091E+02 -5.49228E+03  1.98701E+03 -7.82761E+03 -1.44504E+03
 -6.83480E+03 -4.36194E+03 -9.44161E+02 -9.77603E+03  5.11126E+03 -7.65804E+03  7.93391E+03 -4.70471E+03
  1.03229E+04  3.01546E+01  6.69236E+03  5.09801E+03 -1.42850E+03  6.98065E+03 -6.69392E+03  6.13146E+03
