 $NMID ID='MM_0lb_SNR200_15hz_g55_71.RAW', FMTDAT='(8E13.5)'
 TRAMP=1., VOLUME=1. $END
  3.08860E+05 -5.02948E+02  3.37306E+05  2.50907E+05  8.40379E+04  3.36449E+05 -1.32620E+05  2.51055E+05
 -1.89722E+05  8.28026E+04 -1.11427E+05 -3.24843E+04  9.96372E+02 -5.00216E+04  5.51956E+04 -1.25083E+03
  3.60149E+04  5.21649E+04 -1.73623E+04  7.51314E+04 -6.03693E+04  6.50054E+04 -8.43321E+04  3.21339E+04
 -8.09911E+04 -1.05725E+04 -5.72424E+04 -5.15430E+04 -1.58648E+04 -6.86838E+04  2.75962E+04 -4.67741E+04
  3.93299E+04  4.39617E+03  1.59510E+04  4.70057E+04 -3.49033E+04  4.75232E+04 -6.64361E+04 -1.32230E+03
 -5.31105E+04 -5.66304E+04 -7.20220E+03 -7.69663E+04  3.40079E+04 -5.57366E+04  4.89456E+04 -1.78981E+04
  4.27334E+04  1.09268E+04  3.20250E+04  2.47140E+04  1.56256E+04  2.95341E+04 -4.48634E+03  2.70798E+04
 -2.26073E+04  1.33112E+04 -1.95195E+04 -5.03210E+03  5.86314E+03 -7.55094E+03  2.41706E+04  1.21101E+04
  6.90884E+03  3.53419E+04 -3.14746E+04  3.49230E+04 -6.37346E+04  2.14670E+03 -5.72861E+04 -4.36677E+04
 -1.28582E+04 -6.34003E+04  3.98819E+04 -4.66458E+04  5.77218E+04 -2.88329E+03  3.39975E+04  3.25524E+04
 -5.69130E+03  3.65062E+04 -2.97907E+04  1.65332E+04 -2.97635E+04 -3.98843E+03 -1.73362E+04 -1.16085E+04
 -8.25603E+03 -1.29926E+04 -2.03249E+03 -1.80479E+04  7.71439E+03 -2.19933E+04  1.62858E+04 -1.39786E+04
  1.26365E+04  5.33673E+03 -8.97594E+03  1.36167E+04 -2.02503E+04 -3.66687E+03 -7.17853E+03 -3.30317E+04
  2.28880E+04 -4.35278E+04  4.74676E+04 -1.99950E+04  4.49897E+04  2.04700E+04  1.61068E+04  4.27699E+04
 -1.59994E+04  3.31867E+04 -2.55565E+04  3.38630E+03 -1.01413E+04 -2.68508E+04  2.10687E+04 -3.42449E+04
  4.11001E+04 -7.74015E+03  3.47732E+04  2.46528E+04  1.77649E+04  4.61652E+04 -8.13948E+03  4.99585E+04
 -3.23454E+04  3.35413E+04 -4.24999E+04  8.91295E+03 -4.30720E+04 -1.63618E+04 -2.27215E+04 -3.79826E+04
  7.45203E+03 -3.78662E+04  3.08257E+04 -1.46576E+04  2.99542E+04  1.15508E+04  4.36178E+03  2.01756E+04
 -1.28521E+04  8.02410E+03 -1.02094E+04 -8.80675E+03  6.08480E+03 -1.06371E+04  1.92160E+04  5.35093E+03
  1.48687E+04  2.26443E+04 -6.56513E+03  2.46837E+04 -2.16808E+04  1.09193E+04 -2.70488E+04 -4.62658E+03
 -2.03090E+04 -1.58986E+04 -9.00961E+03 -2.04213E+04  3.92251E+03 -1.96470E+04  1.67615E+04 -1.76719E+04
  2.59248E+04 -1.36727E+04  3.07010E+04  2.94528E+03  2.37493E+04  1.96007E+04  3.32415E+03  3.64955E+04
 -1.78865E+04  2.86027E+04 -2.80748E+04  1.01416E+04 -2.04926E+04 -1.00555E+04 -4.65298E+03 -1.24701E+04
  2.03932E+03 -3.52499E+03 -4.35817E+03  6.93889E+03 -1.63893E+04  5.46045E+03 -1.61787E+04 -6.52382E+03
 -9.96874E+03 -1.85342E+04  4.36695E+03 -2.38139E+04  1.54660E+04 -1.52327E+04  1.74438E+04 -1.72787E+03
  1.12024E+04  1.30929E+04 -4.13543E+02  1.85131E+04 -1.24936E+04  1.04020E+04 -1.92096E+04 -3.49067E+03
 -1.40930E+04 -1.76132E+04 -2.39150E+03 -2.27485E+04  9.79042E+03 -1.76727E+04  1.97969E+04 -9.00297E+03
  1.82239E+04 -4.64935E+02  1.34664E+04  3.78649E+03  7.12024E+03  1.51661E+03  1.02486E+04 -3.13282E+03
  1.70415E+04  3.04948E+03  1.87718E+04  1.52784E+04  1.30774E+04  2.93720E+04 -3.37865E+03  3.39266E+04
 -1.94252E+04  2.60285E+04 -3.22971E+04  1.28319E+04 -3.33746E+04 -2.73455E+03 -2.79693E+04 -1.89783E+04
 -1.06681E+04 -2.73348E+04  1.07301E+04 -2.48526E+04  2.09335E+04 -1.12826E+04  1.87649E+04  5.17063E+03
  8.23460E+03  1.37664E+04 -9.23912E+03  1.13104E+04 -1.62044E+04  2.75064E+03 -1.23324E+04 -9.74264E+03
  1.23919E+03 -1.46123E+04  7.91246E+03 -1.20928E+04  8.72100E+03 -8.10397E+02  1.80370E+03  6.55530E+03
 -6.97682E+03  2.28815E+03 -5.92814E+03 -5.54668E+03  4.49671E+02 -1.26285E+04  1.01908E+04 -1.35861E+04
  1.62171E+04 -8.10752E+03  1.69221E+04  3.19668E+03  1.49958E+04  1.23549E+04  6.36056E+03  1.93977E+04
 -2.16533E+03  2.18840E+04 -1.40655E+04  1.36955E+04 -1.52343E+04  3.55196E+03 -1.10528E+04 -4.06771E+03
 -5.44254E+03 -5.87210E+03 -1.45804E+02  6.14574E+02 -2.55971E+03  3.02643E+03 -5.80897E+03  5.03866E+03
 -1.00370E+04 -5.01058E+02 -1.10716E+04 -9.20637E+03 -4.01018E+03 -1.49131E+04  4.56908E+03 -1.20747E+04
  8.79933E+03 -5.19224E+03  6.07425E+03  3.96050E+03  1.20822E+01  2.60547E+03 -4.73753E+03 -8.38498E+01
 -4.84536E+03 -6.56773E+03 -2.65140E+02 -1.01653E+04  7.40635E+03 -1.03141E+04  1.27568E+04 -6.42162E+03
  1.59560E+04  1.28265E+03  1.23980E+04  8.12967E+03  2.04530E+03  1.19504E+04 -6.91995E+03  1.12645E+04
 -8.49194E+03  1.96913E+03 -4.85881E+03 -1.94734E+03  2.34361E+03 -2.33992E+03  4.61105E+03 -6.11185E+02
  4.35396E+03  5.56812E+03  1.38193E+03  9.24592E+03 -5.80284E+03  8.51531E+03 -9.86692E+03  4.02542E+03
 -6.89334E+03 -4.65891E+03 -1.37638E+02 -7.91278E+03  4.74996E+03 -4.97681E+03  5.29263E+03  1.82578E+03
  4.80486E+02  5.36395E+03 -5.71122E+03  5.75837E+03 -7.12629E+03  3.39329E+03 -7.31930E+03 -2.70634E+03
 -4.59823E+03 -8.70759E+03  1.25568E+03 -1.06979E+04  9.01769E+03 -5.90612E+03  9.59825E+03  1.55928E+03
  6.65574E+03  8.85665E+03  4.35176E+02  1.06321E+04 -7.82624E+03  5.54146E+03 -8.33539E+03 -1.16388E+03
 -7.69168E+03 -7.93929E+03 -2.51511E+03 -8.81361E+03  3.84288E+03 -7.59510E+03  3.51025E+03 -3.01283E+03
  4.42639E+03  1.44283E+03 -2.97695E+02  1.19203E+03  4.47730E+02 -3.20032E+03  1.71847E+03 -3.77745E+03
  5.83930E+03 -1.81564E+03  8.04087E+03  2.22342E+03  8.39278E+03  4.48692E+03  6.71834E+03  1.28233E+04
 -1.98797E+03  1.32536E+04 -1.17369E+04  9.25975E+03 -1.50539E+04  2.46790E+03 -1.11912E+04 -5.45827E+03
 -5.56672E+03 -1.00264E+04 -5.70403E+02 -8.65484E+03  3.37346E+03 -3.75651E+03  3.15312E+03 -3.42630E+03
  2.11630E+03 -2.23794E+03  3.06632E+03 -3.02786E+03  2.07220E+03 -2.51968E+03  4.93343E+03  3.35692E+02
  6.60724E+03  2.57842E+03  2.63909E+03  6.45124E+03 -1.68797E+03  4.49821E+03 -7.08951E+03  4.21446E+03
 -7.66756E+03 -1.92682E+03 -2.91060E+03 -5.46799E+03  1.32491E+03 -6.98077E+03  5.80353E+03 -8.12673E+03
  7.26273E+03 -5.39558E+03  1.13967E+04  6.38560E+02  6.30601E+03  7.39184E+03  1.12759E+03  1.01341E+04
 -3.31031E+03  8.21622E+03 -6.73200E+03  3.46584E+03 -3.22900E+03  5.99150E+02 -4.75607E+02 -1.13473E+03
 -1.61431E+03  8.79768E+02 -1.65922E+03  1.99471E+03 -3.20535E+03  1.39288E+03 -5.67094E+03 -8.92032E+02
 -2.41585E+03 -4.57133E+03  1.19968E+03 -6.75529E+03  4.38942E+03 -7.37968E+03  7.16420E+03 -2.25469E+03
  6.40402E+03  3.63928E+03  3.58544E+03  6.13782E+03 -1.73988E+03  6.72017E+03 -4.22946E+03  5.25215E+03
 -6.44097E+03  5.87636E+02 -5.61949E+03 -4.31218E+03  5.98042E+01 -5.31149E+03  3.36271E+03 -4.81474E+03
  3.68842E+03 -1.88423E+03  3.98128E+03  8.05323E+02  1.19171E+03  2.05063E+03  1.07582E+03  8.64919E+02
  2.09898E+03  1.29608E+03  1.55188E+03  1.25462E+03  2.89272E+03  2.85508E+03  1.52762E+03  3.22709E+03
 -7.72698E+01  4.08098E+03 -4.54910E+03  6.80267E+03 -5.07118E+03  2.05562E+03 -7.39911E+03 -1.95022E+03
 -2.98453E+03 -7.17518E+03  4.57180E+02 -7.96268E+03  2.38799E+03 -5.88627E+03  4.17578E+03 -2.29814E+03
  5.11788E+03  1.89360E+03  2.50212E+02  5.23155E+03 -2.64989E+03  2.51933E+03 -2.13229E+03 -1.98487E+02
 -1.22269E+03 -2.19963E+03  2.31729E+03 -2.05607E+03  1.96468E+03 -1.26300E+03  3.20367E+03  6.75345E+02
  1.29970E+03  1.06340E+03  2.59322E+03  3.53707E+02  6.72750E+01  8.41190E+02  1.74470E+03 -4.21728E+02
  2.50368E+02  2.98441E+02  4.27570E+03  6.43103E+02  5.68243E+02  3.01473E+03 -1.25354E+03  3.97590E+03
 -3.57085E+03  1.32704E+03 -4.17770E+03  1.91776E+03 -4.27977E+03  6.21192E+01 -2.18098E+03 -1.39862E+03
  2.03675E+03 -2.41934E+03  2.32908E+03 -1.39116E+03  1.06422E+03  2.32782E+03 -1.60507E+02  1.95081E+03
 -3.13761E+03  6.01568E+02 -1.85651E+03 -1.27719E+03 -1.43906E+03 -4.20313E+03  2.61262E+02 -2.34956E+03
  3.81900E+02 -1.71493E+03  2.82578E+03  5.06698E+02  2.07992E+03  1.16851E+02 -4.13923E+02  3.11747E+03
 -1.12912E+03  7.39201E+01 -2.27513E+03 -4.52673E+01 -3.88769E+02 -2.31402E+03  2.54041E+03 -7.83288E+02
  3.84501E+03 -1.46732E+02  4.68734E+03  2.18043E+03  1.23716E+03  4.13848E+03 -6.93909E+02  3.44966E+03
 -2.01402E+03  7.38085E+02 -3.19853E+03 -3.91791E+02 -2.33293E+03 -2.84173E+03 -8.56648E+01 -1.51676E+03
  2.22910E+03 -5.99989E+02  2.20528E+03  1.97810E+02  7.67635E+02  2.67439E+03  7.07195E+02  3.15015E+03
 -4.01786E+02  2.56476E+03 -6.78206E+02  1.29672E+03 -1.01192E+03 -2.59715E+02 -4.09565E+02  3.62552E+02
 -2.14312E+03  9.24304E+02 -2.54855E+03  6.11262E+02 -2.81515E+03 -7.23026E+02 -3.79707E+03 -2.54674E+03
 -1.58213E+03 -4.30840E+03  2.04063E+03 -5.41618E+03  2.23015E+03 -4.84161E+03  4.38976E+03 -2.05844E+03
  5.07889E+03  6.10859E+02  2.96485E+03  2.91592E+03  1.05865E+03  3.85915E+03 -6.06499E+02  2.78456E+03
 -2.07348E+03  1.68626E+03 -8.47614E+02  7.67478E+02  4.32537E+02  2.46974E+02 -6.82321E+02 -2.70014E+02
 -2.34635E+03 -1.70393E+02 -6.09877E+02  5.74430E+02  1.10053E+03 -3.91013E+02  7.14050E+02 -1.78201E+03
  1.84793E+03 -1.69842E+03  2.80722E+03  3.61814E+02  1.79860E+03  1.61833E+03 -9.20537E+01  3.26066E+03
 -6.65372E+02  4.10421E+03 -2.99104E+03  2.67038E+03 -3.78859E+03 -1.29107E+02 -3.80857E+03 -1.68511E+03
 -2.08447E+03 -1.95658E+03 -9.64019E+02 -2.83358E+03  1.55738E+03 -1.26601E+03  5.97778E+02  1.46485E+03
  8.30796E+02  6.88812E+02  6.98622E+02  1.26801E+03 -2.13458E+02  6.33948E+02  1.18184E+03 -1.84480E+03
  8.58387E+02 -3.62602E+02  3.16654E+02  4.85115E+02  6.48029E+02  6.25555E+02  1.16807E+03  6.64764E+02
 -6.01274E+02  1.40444E+03 -8.55210E+02  7.81123E+02 -2.96760E+03 -2.14273E+03  1.09589E+03 -1.31177E+03
  1.20908E+03 -2.50265E+03  8.29202E+02  6.96228E+01  1.62581E+03 -4.34568E+01  1.29206E+03  1.77944E+03
 -3.45057E+02  2.05186E+03 -1.13451E+03  1.98882E+03 -1.17810E+03  9.09485E+02 -1.57131E+03  3.47693E+02
  9.41540E+00 -5.53185E+01 -4.37479E+02  1.99366E+02 -1.44581E+03 -4.74535E+02 -1.30065E+03 -8.50640E+02
 -2.09933E+03 -7.31782E+02 -1.72255E+02 -3.06480E+03  1.22333E+02 -3.66703E+03  1.92561E+02  8.03147E+02
  1.98988E+03  1.90295E+02 -4.67759E+02  9.13746E+02 -2.59831E+03  2.99765E+03 -4.92225E+02  2.95665E+03
