 $NMID ID='MM_0lb_SNR200_7hz_g55_49.RAW', FMTDAT='(8E13.5)'
 TRAMP=1., VOLUME=1. $END
  3.10182E+05  1.62728E+03  3.38235E+05  2.51337E+05  8.45322E+04  3.40266E+05 -1.33523E+05  2.53794E+05
 -1.89928E+05  8.40831E+04 -1.13080E+05 -2.98051E+04 -1.14974E+03 -5.06080E+04  5.27411E+04 -1.12906E+03
  3.69992E+04  5.28213E+04 -1.64609E+04  7.77689E+04 -6.08901E+04  6.55479E+04 -8.61601E+04  3.15992E+04
 -8.40420E+04 -1.18601E+04 -6.05904E+04 -5.25802E+04 -1.51494E+04 -7.23118E+04  3.06388E+04 -4.89311E+04
  4.16218E+04  4.38318E+03  1.71391E+04  4.94603E+04 -3.53855E+04  4.82664E+04 -6.84793E+04  2.57563E+02
 -5.50430E+04 -5.88801E+04 -7.14566E+03 -8.03723E+04  3.38122E+04 -5.72664E+04  4.97123E+04 -1.70092E+04
  4.61165E+04  1.13378E+04  3.41676E+04  2.50364E+04  1.49806E+04  3.08407E+04 -7.69581E+03  2.61736E+04
 -2.31779E+04  1.24575E+04 -2.10250E+04 -5.78514E+03  8.15820E+03 -8.07588E+03  2.47208E+04  1.52207E+04
  6.33477E+03  3.84893E+04 -3.33530E+04  3.75379E+04 -6.82431E+04  4.35379E+03 -5.97361E+04 -4.63005E+04
 -1.14131E+04 -6.52368E+04  4.29389E+04 -4.91879E+04  6.26774E+04 -2.22127E+03  3.66486E+04  3.58220E+04
 -5.58866E+03  4.09810E+04 -3.37628E+04  1.85967E+04 -3.61696E+04 -4.79542E+02 -1.97211E+04 -1.17481E+04
 -9.98600E+03 -1.64657E+04  1.06679E+03 -1.99692E+04  8.20927E+03 -2.13790E+04  1.78094E+04 -1.08972E+04
  9.13550E+03  8.32934E+03 -1.13982E+04  1.19675E+04 -2.55299E+04 -7.70504E+03 -9.51719E+03 -3.87793E+04
  2.61177E+04 -4.83381E+04  5.36069E+04 -2.11466E+04  5.23305E+04  2.21316E+04  1.78720E+04  4.69054E+04
 -1.78932E+04  3.94437E+04 -2.96271E+04  3.52042E+03 -1.38008E+04 -3.08370E+04  2.32880E+04 -3.97015E+04
  4.67030E+04 -1.35366E+04  4.42777E+04  2.57788E+04  2.15832E+04  5.17854E+04 -8.27396E+03  6.02242E+04
 -3.74272E+04  4.12615E+04 -5.14201E+04  1.20094E+04 -5.14574E+04 -1.86966E+04 -2.74772E+04 -4.49286E+04
  7.50432E+03 -4.38581E+04  3.39033E+04 -1.64141E+04  3.39147E+04  1.05684E+04  5.47433E+03  2.19820E+04
 -1.22432E+04  8.95811E+03 -1.17483E+04 -9.54040E+03  4.13519E+03 -1.09473E+04  1.87502E+04  6.71285E+03
  1.60728E+04  2.50235E+04 -4.62047E+03  2.92776E+04 -2.39368E+04  1.64655E+04 -3.29942E+04 -1.90825E+03
 -2.80688E+04 -1.99674E+04 -1.32764E+04 -2.74627E+04  2.40540E+03 -2.84281E+04  2.12937E+04 -2.55119E+04
  3.63252E+04 -1.51742E+04  3.93042E+04  6.59248E+03  2.98656E+04  2.83490E+04  6.32524E+03  4.31925E+04
 -2.14612E+04  3.65672E+04 -3.23629E+04  1.30647E+04 -2.34669E+04 -9.25660E+03 -5.50038E+03 -1.39642E+04
  2.25046E+02 -1.22117E+03 -1.05859E+04  1.15559E+04 -1.93345E+04  5.96493E+03 -2.26109E+04 -1.22055E+04
 -1.25064E+04 -2.47094E+04  7.89438E+03 -2.81091E+04  2.06442E+04 -2.15542E+04  2.47025E+04 -2.04428E+03
  1.54867E+04  1.89268E+04 -1.01952E+03  2.20470E+04 -1.94860E+04  1.45792E+04 -2.65915E+04 -4.85272E+03
 -1.97744E+04 -2.23825E+04 -4.18081E+03 -3.12641E+04  1.27602E+04 -2.74268E+04  2.50674E+04 -1.27502E+04
  2.34968E+04  1.11000E+03  2.02495E+04  5.75483E+03  1.00527E+04  3.22129E+03  1.39264E+04  2.15656E+02
  2.49703E+04  3.19588E+03  2.88223E+04  1.86450E+04  1.95676E+04  4.06851E+04 -2.24368E+03  4.98446E+04
 -2.80456E+04  4.21105E+04 -4.66777E+04  2.30250E+04 -5.06862E+04 -4.24202E+03 -4.12324E+04 -2.94423E+04
 -1.48754E+04 -4.23949E+04  1.51844E+04 -3.82660E+04  3.24376E+04 -1.55592E+04  2.61023E+04  8.08015E+03
  8.85998E+03  2.05583E+04 -1.24454E+04  1.76146E+04 -2.24616E+04  1.89591E+03 -1.69906E+04 -1.66451E+04
  2.91062E+02 -2.04722E+04  1.14589E+04 -1.75337E+04  1.67472E+04 -1.02063E+03  1.40306E+03  1.06667E+04
 -1.05952E+04  5.74063E+03 -1.04417E+04 -6.54636E+03 -2.52165E+03 -2.15938E+04  1.25101E+04 -2.30607E+04
  2.59138E+04 -1.55912E+04  3.12542E+04  5.58959E+03  2.86579E+04  2.26272E+04  1.37862E+04  3.34541E+04
 -8.13707E+03  3.58690E+04 -2.44036E+04  2.14347E+04 -2.52762E+04  5.25448E+03 -1.74717E+04 -7.93003E+03
 -6.82788E+03 -8.28521E+03 -2.31780E+02  2.02479E+02 -3.81790E+03  5.74215E+03 -9.67293E+03  4.86567E+03
 -1.67102E+04 -4.41056E+02 -1.78294E+04 -1.28682E+04 -6.16300E+03 -2.35076E+04  8.14854E+03 -1.87065E+04
  1.46539E+04 -6.34339E+03  1.08563E+04  5.31667E+03 -2.28182E+03  7.08517E+03 -9.79328E+03 -1.04540E+03
 -7.46525E+03 -1.19185E+04 -3.06425E+02 -1.75983E+04  1.18933E+04 -2.10180E+04  2.28565E+04 -9.80412E+03
  2.77565E+04  3.97766E+03  1.78246E+04  1.57537E+04  4.25683E+03  2.32736E+04 -9.92310E+03  1.97453E+04
 -1.62037E+04  3.72955E+03 -7.76551E+03 -2.49970E+03  2.75965E+03 -5.56911E+03  1.01854E+04 -1.64520E+02
  8.28442E+03  9.82859E+03  2.48160E+03  1.57769E+04 -1.04042E+04  1.40125E+04 -1.78958E+04  2.71941E+03
 -1.25427E+04 -9.55514E+03  1.39855E+03 -1.48999E+04  1.10756E+04 -8.82047E+03  1.21923E+04  3.79278E+03
  3.89919E+03  1.27125E+04 -9.24426E+03  1.73379E+04 -1.65244E+04  5.09053E+03 -1.79170E+04 -5.49489E+03
 -1.04338E+04 -2.15925E+04  4.41395E+03 -2.17532E+04  1.97627E+04 -1.27923E+04  2.02922E+04  3.78832E+03
  1.29349E+04  1.62734E+04 -2.63318E+03  1.66719E+04 -1.47116E+04  1.09214E+04 -1.45958E+04 -1.24691E+03
 -1.41509E+04 -1.22399E+04 -1.85766E+03 -1.33642E+04  8.61003E+03 -1.23559E+04  1.02401E+04 -5.55495E+03
  5.84573E+03  3.35053E+03 -2.04630E+03  9.13651E+02 -2.26654E+03 -6.82188E+03  2.80536E+03 -8.56417E+03
  1.29585E+04 -6.48832E+03  2.08236E+04  3.26096E+03  1.75597E+04  1.30757E+04  1.24884E+04  2.62916E+04
 -5.97341E+03  2.99911E+04 -2.37563E+04  2.37120E+04 -2.98405E+04  5.50752E+03 -2.65729E+04 -1.20534E+04
 -1.19230E+04 -1.99304E+04 -1.05336E+03 -1.68783E+04  6.32272E+03 -1.01103E+04  5.60781E+03 -7.91717E+03
  5.30629E+03 -3.89494E+03  5.85946E+03 -5.46727E+03  7.08347E+03 -5.36279E+03  8.48099E+03 -2.44753E+03
  1.40205E+04  2.67987E+03  8.10181E+03  1.25868E+04 -3.58998E+03  1.29476E+04 -1.55170E+04  1.23977E+04
 -2.02277E+04 -1.42290E+03 -1.14582E+04 -1.29038E+04 -3.99656E+03 -1.98096E+04  1.08247E+04 -2.13464E+04
  2.06603E+04 -9.76693E+03  2.33324E+04  1.86092E+03  1.77083E+04  1.72256E+04  2.64407E+03  2.40300E+04
 -9.20155E+03  1.80988E+04 -1.25558E+04  7.65818E+03 -1.23978E+04 -1.64612E+03 -3.99719E+03 -3.57738E+03
 -1.98351E+03  7.67941E+02 -1.36372E+03  4.64605E+03 -6.98371E+03  2.36904E+03 -1.26350E+04 -1.02824E+03
 -8.44212E+03 -1.34635E+04  1.03212E+03 -1.88510E+04  1.20176E+04 -1.81898E+04  2.10215E+04 -4.46821E+03
  1.84704E+04  9.22647E+03  1.00490E+04  1.75183E+04 -3.27946E+03  1.83544E+04 -1.49909E+04  1.36084E+04
 -1.85741E+04 -6.27775E+02 -1.31977E+04 -1.12284E+04 -3.08539E+03 -1.72257E+04  8.54208E+03 -1.23796E+04
  1.10339E+04 -3.31403E+03  8.53292E+03  4.09359E+03  4.07661E+03  4.21224E+03  2.63110E+03  3.82331E+03
  2.88072E+03  1.55107E+03  6.52558E+03  1.78553E+03  4.33191E+03  4.97444E+03  5.48740E+03  9.84256E+03
 -5.46028E+03  1.66965E+04 -1.38896E+04  1.55347E+04 -2.22278E+04  5.50254E+03 -2.27525E+04 -9.91061E+03
 -1.08454E+04 -2.15412E+04  3.07465E+03 -2.14319E+04  1.20510E+04 -1.32442E+04  1.53009E+04 -3.42024E+03
  1.30711E+04  8.19610E+03  2.21705E+03  1.17037E+04 -5.44716E+03  8.32264E+03 -9.21037E+03 -1.44031E+03
 -2.81309E+03 -9.86103E+03  4.65895E+03 -1.02090E+04  9.30132E+03 -4.52272E+03  9.12797E+03  5.74201E+01
  4.79026E+03  4.66187E+03  2.74860E+03  4.62091E+03 -1.85695E+03  3.15104E+03 -3.88304E+02 -1.40991E+03
  5.30753E+03 -1.25607E+03  6.86107E+03  2.78647E+03  6.05546E+03  8.63413E+03 -1.50821E+03  1.51597E+04
 -8.71781E+03  1.16825E+04 -1.22773E+04  4.57940E+03 -1.16550E+04 -3.39817E+03 -5.96971E+03 -8.47798E+03
 -9.61976E+02 -8.48503E+03  5.73977E+03 -3.70316E+03  5.48827E+03  2.62789E+03 -1.98658E+03  7.44744E+03
 -8.43319E+03  5.88304E+03 -8.45280E+03 -4.08210E+03 -6.55397E+03 -9.18649E+03  1.96641E+03 -1.40534E+04
  4.98870E+03 -7.73656E+03  9.62309E+03 -1.13652E+03  6.41267E+03  5.37378E+03  2.28520E+03  4.25394E+03
 -4.49942E+03  1.68089E+03 -6.16408E+03 -3.33176E+03  8.56195E+02 -8.64615E+03  1.10212E+04 -6.27735E+03
  1.36259E+04  4.32836E+02  1.37794E+04  7.48286E+03  6.01852E+03  1.72070E+04 -5.18444E+03  1.23996E+04
 -1.36226E+04  6.74657E+03 -1.22959E+04 -9.37667E+02 -7.07539E+03 -9.15303E+03  2.58417E+03 -7.98866E+03
  1.02886E+04 -3.90679E+03  7.54250E+03  4.34843E+03  2.98271E+03  8.05249E+03 -1.95460E+03  6.77866E+03
 -4.31256E+03  4.43258E+03 -2.35879E+03  7.04118E+02 -2.64880E+03  2.62919E+03 -2.46806E+03  4.34348E+03
 -1.89464E+03  6.19037E+03 -8.08098E+03  3.67332E+03 -1.45922E+04  1.52774E+03 -1.62856E+04 -9.11072E+03
 -7.52602E+03 -1.91601E+04  3.72531E+03 -2.27853E+04  1.19981E+04 -1.75893E+04  2.15806E+04 -6.50819E+03
  2.06967E+04  4.35688E+03  1.46140E+04  1.38386E+04  1.55053E+03  1.56921E+04 -4.50962E+03  1.23431E+04
 -8.29257E+03  3.07210E+03 -6.66270E+03 -1.76347E+03 -1.98805E+03 -2.76873E+03 -1.61082E+02  3.19663E+02
 -4.81848E+03  1.61705E+03 -2.05716E+03 -1.92284E+03 -2.24172E+01 -4.82079E+03  1.60781E+03 -6.68456E+03
  5.79375E+03 -3.89443E+03  8.00823E+03 -2.37277E+02  1.03050E+04  9.09074E+03  3.33594E+03  1.71364E+04
 -9.17144E+03  1.85885E+04 -1.70858E+04  9.41418E+03 -1.85406E+04 -1.79238E+03 -1.51501E+04 -1.01380E+04
 -5.39539E+03 -1.67320E+04  3.53843E+03 -1.51142E+04  9.66943E+03 -7.18594E+03  1.09913E+04  6.39181E+02
  6.36564E+03  4.71111E+03 -8.81521E+02  6.12526E+03 -2.92223E+03 -1.23823E+03 -9.09277E+02 -4.25069E+03
  3.74834E+03 -2.94699E+03  7.34728E+03  1.90310E+03  4.74401E+03  7.91820E+03  1.77679E+03  8.86145E+03
 -6.98489E+03  9.00598E+03 -1.04483E+04  4.47370E+02 -9.67389E+03 -7.87391E+03 -5.71895E+02 -1.30542E+04
  7.39929E+03 -1.05988E+04  1.21375E+04 -3.37802E+03  1.17139E+04  1.74516E+03  7.02392E+03  1.01840E+04
  2.34452E+03  7.81280E+03 -3.81659E+03  6.20268E+03 -5.77060E+03  4.44843E+03 -6.99923E+03  3.64121E+02
 -2.48667E+03  2.60694E+02 -2.45161E+03 -2.72268E+02 -5.75137E+03  2.02468E+03 -8.23446E+03 -9.20701E+02
 -8.82201E+03 -5.23502E+03 -2.85096E+03 -1.16356E+04  4.52972E+03 -1.12590E+04  1.01641E+04 -5.61095E+03
  1.16584E+04  1.61100E+03  5.94536E+03  8.05842E+03 -1.38156E+01  1.01108E+04 -7.80921E+03  8.50847E+03
