 $NMID ID='MM_0lb_SNR200_19hz_g40_31.RAW', FMTDAT='(8E13.5)'
 TRAMP=1., VOLUME=1. $END
  3.09877E+05 -2.78985E+02  3.37465E+05  2.49638E+05  8.50728E+04  3.37409E+05 -1.32788E+05  2.50174E+05
 -1.89207E+05  8.14383E+04 -1.10063E+05 -3.40051E+04  1.60490E+03 -5.00979E+04  5.27462E+04 -4.80554E+01
  3.52251E+04  5.23285E+04 -1.60892E+04  7.51435E+04 -6.00853E+04  6.20415E+04 -8.26264E+04  3.11755E+04
 -7.89911E+04 -1.18347E+04 -5.55070E+04 -4.96269E+04 -1.49594E+04 -6.79256E+04  2.64171E+04 -4.44744E+04
  3.77044E+04  3.51647E+03  1.54971E+04  4.68813E+04 -3.30590E+04  4.59864E+04 -6.45945E+04 -1.77358E+02
 -5.12358E+04 -5.50266E+04 -7.07837E+03 -7.44306E+04  3.20608E+04 -5.21993E+04  4.60151E+04 -1.65881E+04
  3.99750E+04  1.19073E+04  2.93615E+04  2.37794E+04  1.57276E+04  2.93607E+04 -4.79074E+03  2.57833E+04
 -2.30140E+04  1.16505E+04 -1.91672E+04 -3.29464E+03  4.04957E+03 -7.97260E+03  2.06535E+04  1.02927E+04
  7.80056E+03  3.26097E+04 -2.98813E+04  3.42701E+04 -6.04705E+04  1.90772E+03 -5.38444E+04 -4.01196E+04
 -1.23672E+04 -5.87846E+04  3.71221E+04 -4.22532E+04  5.44237E+04 -1.12370E+03  3.23493E+04  2.91634E+04
 -6.44983E+03  3.20818E+04 -2.84562E+04  1.29130E+04 -2.59144E+04 -5.84725E+03 -1.37616E+04 -9.28158E+03
 -6.55668E+03 -1.06630E+04 -1.12186E+03 -1.52956E+04  7.88961E+03 -2.26336E+04  1.51077E+04 -1.51964E+04
  1.24977E+04  4.62712E+03 -5.31566E+03  1.31953E+04 -1.86375E+04 -1.62843E+03 -7.96943E+03 -2.99160E+04
  2.06065E+04 -3.94603E+04  4.44018E+04 -1.83508E+04  3.98587E+04  1.84752E+04  1.37859E+04  4.08595E+04
 -1.43306E+04  3.06272E+04 -2.29448E+04  1.50218E+03 -9.32532E+03 -2.69276E+04  2.05228E+04 -2.92594E+04
  3.78098E+04 -7.08696E+03  2.99178E+04  2.19849E+04  1.47758E+04  4.15971E+04 -8.04535E+03  4.31439E+04
 -2.79507E+04  2.87454E+04 -3.60028E+04  7.10573E+03 -3.74254E+04 -1.43162E+04 -2.17042E+04 -3.35265E+04
  5.70978E+03 -3.33427E+04  2.81148E+04 -1.12164E+04  2.56910E+04  1.09764E+04  2.18274E+03  1.67806E+04
 -1.23237E+04  7.30689E+03 -9.51271E+03 -8.00713E+03  5.32231E+03 -9.49129E+03  1.54816E+04  5.97627E+03
  1.19318E+04  2.08694E+04 -6.48369E+03  2.29390E+04 -2.13016E+04  8.12712E+03 -2.51565E+04 -7.37584E+03
 -1.50630E+04 -1.59713E+04 -5.88588E+03 -1.58726E+04  3.62276E+03 -1.45149E+04  1.19048E+04 -1.35591E+04
  2.04111E+04 -1.11429E+04  2.61068E+04  9.25924E+02  2.04948E+04  1.54586E+04  3.29588E+03  3.01052E+04
 -1.45152E+04  2.72621E+04 -2.45966E+04  9.11621E+03 -1.88352E+04 -1.04811E+04 -4.67836E+03 -1.46743E+04
  3.10726E+03 -5.34173E+03 -1.70708E+03  4.73830E+03 -1.22707E+04  4.68147E+03 -1.26523E+04 -4.26361E+03
 -9.03631E+03 -1.52100E+04  5.30965E+03 -1.80332E+04  1.16380E+04 -1.35211E+04  1.28416E+04 -1.16674E+03
  8.54489E+03  1.06187E+04  5.87704E+01  1.54152E+04 -9.56088E+03  8.00692E+03 -1.38598E+04 -4.29549E+03
 -1.13313E+04 -1.42393E+04 -1.58126E+03 -1.81913E+04  8.54784E+03 -1.44883E+04  1.55384E+04 -7.18451E+03
  1.40003E+04  3.33824E+02  1.02952E+04  3.73648E+03  4.73418E+03  8.86162E+01  7.65739E+03 -1.03943E+03
  1.30661E+04  2.71838E+03  1.27115E+04  1.18508E+04  7.71377E+03  2.40757E+04 -1.13400E+03  2.39401E+04
 -1.41668E+04  1.82334E+04 -2.23423E+04  9.12146E+03 -2.24232E+04 -1.53277E+03 -1.94108E+04 -1.38322E+04
 -1.04272E+04 -1.90935E+04  4.15335E+03 -1.78339E+04  1.66874E+04 -1.06032E+04  1.40395E+04  2.59976E+03
  6.32953E+03  9.66885E+03 -7.05090E+03  1.07784E+04 -1.28295E+04  2.12638E+03 -1.00963E+04 -8.38035E+03
 -1.06611E+02 -1.22024E+04  5.48779E+03 -9.07336E+03  8.21101E+03 -5.05279E+02  1.46757E+03  4.23258E+03
 -5.80547E+03  1.76731E+03 -3.71095E+03 -4.36432E+03  1.27651E+03 -1.00151E+04  8.26877E+03 -9.00193E+03
  1.14179E+04 -4.86721E+03  1.04059E+04  2.65063E+03  9.92794E+03  9.08003E+03  5.23411E+03  1.23890E+04
 -8.64590E+02  1.43010E+04 -8.02441E+03  1.03796E+04 -1.10831E+04  3.72250E+03 -8.19168E+03 -2.22688E+03
 -4.88123E+03 -2.87652E+03 -1.57536E+03  1.60760E+03 -1.75829E+03  1.91028E+03 -2.56577E+03  3.66072E+03
 -7.08935E+03  1.11630E+02 -8.19052E+03 -6.68105E+03 -3.85194E+03 -1.07675E+04  4.02894E+03 -8.92428E+03
  6.44471E+03 -3.23730E+03  5.13109E+03  2.56630E+03  4.09017E+02  2.72169E+03 -2.44523E+03  7.60340E+02
 -2.37084E+03 -5.17835E+03 -9.57267E+02 -6.80370E+03  3.79106E+03 -7.61319E+03  9.56145E+03 -3.90977E+03
  1.22738E+04  4.16644E+02  8.24045E+03  5.45054E+03  2.12370E+03  7.83568E+03 -5.35987E+03  7.36016E+03
 -5.96563E+03  2.72599E+03 -2.79514E+03 -1.59248E+03  9.19175E+02 -1.59742E+03  4.21344E+03 -2.16618E+03
  4.87325E+03  4.45514E+03  6.23109E+02  5.73931E+03 -3.95927E+03  5.07827E+03 -6.98075E+03  2.15012E+03
 -4.70184E+03 -4.12705E+03 -2.90659E+02 -5.83880E+03  4.08662E+03 -2.23649E+03  2.88547E+03  6.76606E+02
 -5.08822E+00  2.64449E+03 -4.00055E+03  4.63658E+03 -3.39842E+03  1.99733E+03 -3.30996E+03 -1.32727E+03
 -1.84737E+03 -5.40233E+03  1.69789E+01 -7.78409E+03  5.83404E+03 -5.14060E+03  5.40195E+03  3.10859E+02
  5.06612E+03  4.99886E+03  1.07956E+03  7.26343E+03 -3.94023E+03  4.90726E+03 -5.50733E+03  1.21699E+01
 -6.02377E+03 -5.06156E+03 -1.55036E+03 -4.62359E+03  2.73762E+03 -4.76014E+03  2.99195E+03 -2.95747E+03
  2.55371E+03 -1.87524E+02  7.47294E+02  8.35519E+01  9.14505E+02 -2.14679E+02 -5.19518E+02 -1.99171E+03
  3.12247E+03  3.67657E+02  5.50179E+03  4.85753E+02  5.65686E+03  2.56507E+03  4.41790E+03  7.48879E+03
 -1.06168E+03  6.57662E+03 -6.29035E+03  4.74743E+03 -8.67088E+03  1.13746E+03 -8.12742E+03 -2.42958E+03
 -3.88742E+03 -5.28498E+03 -1.99356E+02 -6.13536E+03  2.09588E+03 -2.42849E+03  1.16145E+03 -1.95077E+03
  3.14496E+03 -1.21140E+03  2.81172E+03 -1.64956E+03  3.83461E+03 -1.39744E+03  4.35867E+03  8.08791E+02
  3.87008E+03  9.99872E+02  5.51507E+02  2.58292E+03 -1.35944E+03  2.11904E+03 -4.93518E+03  2.01118E+03
 -4.24703E+03 -6.93130E+02 -1.47614E+03 -2.82245E+03  1.00041E+03 -3.77957E+03  3.33370E+03 -4.91437E+03
  5.54098E+03 -2.28236E+03  6.94763E+03  1.13456E+02  4.25354E+03  3.46014E+03  2.00253E+03  5.34655E+03
 -2.35155E+03  5.96639E+03 -2.47072E+03  1.96110E+03 -2.17414E+03 -1.62224E+03 -9.08222E+02 -6.45998E+02
  2.80298E+02  9.85873E+02 -4.49449E+02  3.53996E+02 -2.77833E+03  1.50265E+03 -3.38458E+03 -4.03707E+02
 -1.23497E+03 -2.93038E+03  1.80542E+03 -4.77931E+03  2.01307E+03 -3.33473E+03  3.18026E+03 -1.74828E+03
  4.25702E+03  2.28518E+03  1.12398E+03  2.36881E+03 -2.31220E+02  5.22660E+03 -2.76752E+03  2.73324E+03
 -4.31693E+03  1.09030E+02 -3.87044E+03 -1.48780E+03  1.56381E+03 -3.10575E+03  1.93788E+03 -1.68081E+03
  1.87436E+03 -1.61668E+03  1.19177E+03 -3.53259E+01  5.88994E+02  1.60020E+03  7.85854E+02  1.08683E+03
  1.49475E+03  1.11087E+03  1.20008E+03  5.58143E+02  5.00098E+02  1.12712E+03  7.59098E+02  1.68047E+03
 -1.02313E+03  2.10259E+03 -1.90459E+03  2.95210E+03 -1.87490E+03  5.74025E+02 -3.27375E+03 -1.80319E+02
 -6.75431E+02 -3.07495E+03  9.96088E+02 -4.13990E+03  4.34121E+02 -1.90333E+03  2.71802E+03  1.85206E+02
  1.52507E+03  1.38643E+03  1.32159E+03  1.96185E+03 -1.13104E+03  1.28386E+03 -3.10042E+02  6.91022E+02
 -7.51453E+02 -1.19332E+03  4.01249E+02 -1.40416E+03  7.80185E+02 -8.92889E+02  1.29092E+03  1.74424E+02
  6.20282E+02  2.15016E+02  1.21842E+02  2.12736E+02  3.58198E+02  2.66705E+02  1.03252E+03 -7.55612E+02
 -1.02139E+03 -4.22232E+02  1.43505E+03 -1.77252E+02 -3.25060E+01  2.23912E+03 -8.15103E+02  2.96764E+03
 -1.64356E+03  1.21703E+03 -1.91142E+03 -1.15212E+03 -2.25459E+03 -6.90775E+02 -7.28069E+02 -7.41991E+02
  1.14204E+02 -6.92031E+02  1.40255E+03 -4.77794E+02  4.68521E+02  1.66900E+02 -6.79500E+02  8.12057E+02
 -1.01152E+03 -2.14663E+02 -1.09094E+03 -8.25565E+02 -1.09813E+03 -2.07689E+03 -1.13382E+02 -1.69355E+03
  1.81561E+03 -4.60779E+02  8.81751E+01  1.67319E+02  1.94265E+03 -1.47566E+02  6.10784E+02  1.71692E+03
 -2.83292E+02  7.38070E+02 -8.34996E+02  7.96297E+02 -3.65504E+01 -1.26862E+03  1.22054E+03 -1.42643E+03
  2.30094E+03  4.27474E+01  2.52396E+03  3.14237E+02 -9.80563E+01  9.67269E+02 -5.24008E+02  2.92058E+03
 -1.61644E+03  1.86583E+02 -1.11812E+03  1.19630E+02 -1.54761E+03 -1.24317E+03 -2.48708E+02 -4.34630E+02
  1.17710E+03 -3.95366E+02  1.87802E+03  5.46748E+02  9.39054E+02  1.51506E+03  7.11866E+02  7.02860E+02
 -4.68570E+02  9.85370E+02 -9.81945E+02 -9.69783E+02  2.55621E+02  3.85815E+02 -3.28248E+02  4.90395E+02
 -2.98772E+02  7.57569E+02 -2.05283E+03  6.47855E+02 -1.98657E+03  3.07092E+02 -2.39344E+03  5.61767E+02
 -7.46974E+02 -2.03483E+03  8.50385E+02 -2.38201E+03  1.56237E+03 -2.41783E+03  2.88340E+03 -1.63631E+03
  2.31896E+03  3.43243E+01  1.43991E+03  1.44768E+02 -6.00146E+02  1.29675E+03 -3.97293E+02  2.78654E+03
 -1.43965E+03  4.08160E+02  3.09353E+02 -1.27371E+02 -2.94252E+02 -1.51331E+02 -3.11390E+02 -5.16130E+01
 -1.06648E+03 -6.00709E+02 -2.25051E+03 -4.83794E+02  1.85293E+02 -1.56044E+03  1.53387E+02 -2.52512E+02
  9.15823E+02 -6.14129E+02 -2.97429E+02  2.91260E+02  1.93516E+03  8.72156E+02 -5.16764E+02  1.17005E+03
 -8.62866E+02  2.44007E+03 -1.62180E+03  1.45877E+03 -2.64206E+03 -5.82659E+01 -1.92942E+03 -8.95873E+02
 -6.13308E+02 -7.09374E+02  4.44062E+02 -1.08593E+03 -1.70888E+02  9.02961E+01  4.87241E+02  5.24720E+02
  3.56921E+02  1.09827E+02 -6.69777E+02  6.14640E+02 -6.66642E+02 -3.31631E+02 -6.95504E+02 -4.85285E+02
  1.34216E+03  7.10244E+02 -3.75342E+02  8.07620E+02  9.26458E+01  4.41461E+02  6.72782E+01  8.03520E+02
 -6.76016E+02  1.15063E+03  6.12736E+01 -8.09247E+02  4.69125E+02 -1.03666E+03  3.78076E+02 -5.94135E+02
  1.97848E+02 -9.85236E+02  3.01105E+02  9.39926E+02  2.24076E+02 -1.29208E+03  6.60057E+01  1.03864E+03
  8.77456E+02  7.14886E+02 -3.40839E+02  7.62740E+02 -1.38806E+02  1.16602E+03 -4.70969E+02  3.21298E+02
  1.02485E+02 -2.73485E+02 -9.06881E+02  2.70428E+02 -3.79373E+02  5.81633E+02 -3.21995E+02  1.99527E+02
 -2.32372E+03  4.31802E+02 -1.86308E+02 -5.61540E+02 -2.64390E+02 -1.53997E+03  5.80448E+02  5.53085E+01
  1.71290E+03  3.26845E+02  8.29274E+02  6.13622E+02  5.73484E+02  1.87418E+03 -8.17898E+02  2.81628E+02
