 $NMID ID='MM_0lb_SNR200_19hz_g50_77.RAW', FMTDAT='(8E13.5)'
 TRAMP=1., VOLUME=1. $END
  3.09063E+05  3.76116E+02  3.38259E+05  2.50523E+05  8.48785E+04  3.37526E+05 -1.32538E+05  2.51270E+05
 -1.90440E+05  8.34183E+04 -1.10599E+05 -3.26587E+04  1.39267E+03 -5.00880E+04  5.35985E+04  8.71051E+02
  3.50785E+04  5.33091E+04 -1.72583E+04  7.49667E+04 -6.05104E+04  6.40789E+04 -8.25810E+04  3.11453E+04
 -7.91405E+04 -1.02004E+04 -5.73078E+04 -5.09070E+04 -1.46282E+04 -6.92772E+04  2.68833E+04 -4.47827E+04
  3.97634E+04  4.45723E+03  1.62215E+04  4.61212E+04 -3.31964E+04  4.54229E+04 -6.53854E+04 -5.60865E+02
 -5.18008E+04 -5.52847E+04 -6.44751E+03 -7.55364E+04  3.31042E+04 -5.37516E+04  4.62546E+04 -1.63410E+04
  4.19852E+04  9.94255E+03  3.05435E+04  2.46187E+04  1.47101E+04  2.74661E+04 -3.47743E+03  2.78491E+04
 -2.14736E+04  1.33123E+04 -1.87450E+04 -4.15948E+03  4.64284E+03 -7.37528E+03  2.06348E+04  1.03753E+04
  7.52126E+03  3.37679E+04 -3.20104E+04  3.48415E+04 -6.11220E+04  2.86386E+03 -5.50015E+04 -4.09695E+04
 -1.25511E+04 -6.08331E+04  3.81433E+04 -4.36443E+04  5.59767E+04 -1.80692E+03  3.17522E+04  3.19501E+04
 -5.02444E+03  3.33849E+04 -2.79803E+04  1.34958E+04 -2.77211E+04 -5.14968E+03 -1.40338E+04 -1.03924E+04
 -7.77148E+03 -1.22489E+04 -1.48957E+03 -1.76381E+04  6.66778E+03 -2.32375E+04  1.45334E+04 -1.48276E+04
  1.16823E+04  3.99937E+03 -6.32348E+03  1.24529E+04 -1.90672E+04 -2.48707E+03 -8.63928E+03 -3.08185E+04
  2.13433E+04 -4.04166E+04  4.45770E+04 -1.81235E+04  4.30624E+04  1.84040E+04  1.50757E+04  4.20754E+04
 -1.51160E+04  3.17361E+04 -2.34152E+04  1.96361E+03 -8.43110E+03 -2.56843E+04  2.03509E+04 -3.20665E+04
  3.76908E+04 -6.58396E+03  3.27307E+04  2.24593E+04  1.53403E+04  4.25067E+04 -7.56559E+03  4.57474E+04
 -2.86070E+04  2.95062E+04 -3.78556E+04  7.01590E+03 -3.76738E+04 -1.44971E+04 -2.08377E+04 -3.46167E+04
  5.89080E+03 -3.46819E+04  2.93465E+04 -1.20919E+04  2.69426E+04  1.15451E+04  1.71468E+03  1.69176E+04
 -1.34527E+04  6.50573E+03 -1.00459E+04 -7.82908E+03  5.94132E+03 -8.99038E+03  1.78425E+04  6.73696E+03
  1.33117E+04  2.22022E+04 -6.59363E+03  2.34390E+04 -2.13185E+04  9.04747E+03 -2.59132E+04 -6.18945E+03
 -1.59535E+04 -1.70068E+04 -6.97485E+03 -1.70362E+04  4.43168E+03 -1.44065E+04  1.29107E+04 -1.36126E+04
  2.09061E+04 -1.16197E+04  2.79597E+04  1.87716E+03  2.09292E+04  1.58489E+04  3.66664E+03  3.20327E+04
 -1.65339E+04  2.80817E+04 -2.63076E+04  9.63702E+03 -1.92428E+04 -1.04628E+04 -4.26558E+03 -1.36080E+04
  2.87755E+03 -3.90846E+03 -1.37652E+03  5.58726E+03 -1.29967E+04  4.67651E+03 -1.36648E+04 -6.10702E+03
 -7.88081E+03 -1.46749E+04  5.29701E+03 -1.91577E+04  1.21977E+04 -1.54185E+04  1.35932E+04 -1.52599E+03
  9.01150E+03  1.03809E+04 -2.45148E+02  1.56132E+04 -1.07543E+04  8.25009E+03 -1.60305E+04 -4.35815E+03
 -1.14225E+04 -1.45262E+04 -2.12276E+03 -1.86044E+04  7.81357E+03 -1.52287E+04  1.63524E+04 -8.67407E+03
  1.56540E+04  9.00258E+02  9.86271E+03  3.63165E+03  5.21399E+03  5.88424E+02  6.98076E+03 -1.65918E+03
  1.31056E+04  2.29934E+03  1.41588E+04  1.31838E+04  9.18801E+03  2.44599E+04 -3.42114E+03  2.66010E+04
 -1.63689E+04  2.03083E+04 -2.41174E+04  8.91800E+03 -2.42387E+04 -1.72914E+03 -2.19455E+04 -1.40721E+04
 -9.12152E+03 -1.97252E+04  6.77535E+03 -1.91452E+04  1.58090E+04 -1.13188E+04  1.51511E+04  4.26701E+03
  5.64756E+03  1.09766E+04 -7.69500E+03  1.06433E+04 -1.35083E+04  2.85343E+03 -9.54048E+03 -8.18048E+03
  2.35920E+02 -1.22056E+04  6.34798E+03 -9.27945E+03  7.26262E+03 -4.80646E+02  2.08421E+03  4.96673E+03
 -5.27078E+03  1.80334E+03 -3.00060E+03 -4.52007E+03  1.02940E+03 -9.90329E+03  7.87884E+03 -1.06804E+04
  1.16946E+04 -4.02662E+03  1.15665E+04  3.27120E+03  1.01033E+04  9.48179E+03  4.83595E+03  1.40996E+04
 -2.43715E+03  1.67673E+04 -9.30769E+03  1.09100E+04 -9.90346E+03  1.52796E+03 -8.77614E+03 -2.22523E+03
 -4.43776E+03 -3.84167E+03 -8.01655E+02  1.73857E+03 -1.15669E+03  3.30361E+03 -4.06647E+03  3.60805E+03
 -7.70266E+03 -1.21230E+02 -8.32055E+03 -8.05884E+03 -4.27024E+03 -1.12458E+04  4.34039E+03 -7.42044E+03
  7.03836E+03 -4.71107E+03  4.58035E+03  3.06228E+03  7.90988E+02  4.37107E+03 -3.71220E+03  7.39092E+02
 -3.11035E+03 -4.63504E+03  8.70461E+01 -7.18848E+03  3.14405E+03 -7.36271E+03  9.53586E+03 -2.48661E+03
  1.16026E+04  8.23810E+02  7.32843E+03  6.79909E+03  1.61584E+03  8.81626E+03 -5.21293E+03  8.10422E+03
 -6.53221E+03  2.56366E+03 -2.56332E+03 -1.23069E+03  1.89854E+03 -6.75187E+02  4.65474E+03 -1.48937E+03
  2.88862E+03  3.17504E+03  1.28306E+03  5.65315E+03 -3.71444E+03  6.69729E+03 -8.66814E+03  1.72690E+03
 -4.55050E+03 -2.92215E+03  6.85368E+02 -7.17237E+03  4.15628E+03 -2.65438E+03  3.15714E+03  8.74299E+02
  1.72948E+02  3.24310E+03 -2.99434E+03  4.62490E+03 -4.24109E+03  2.61876E+03 -3.71913E+03 -6.04620E+02
 -2.71589E+03 -5.95342E+03  1.72409E+03 -6.62176E+03  5.28502E+03 -3.80775E+03  5.51135E+03 -6.27710E+02
  3.93905E+03  5.48802E+03  1.08888E+03  7.20567E+03 -5.13506E+03  4.37953E+03 -5.29319E+03 -7.68659E+02
 -5.05019E+03 -6.32868E+03 -1.64784E+03 -6.17726E+03  2.04721E+03 -5.12114E+03  1.86379E+03 -2.67879E+03
  2.94548E+03  1.20899E+02  3.14164E+02  1.36065E+03  2.86689E+02 -1.13714E+03  1.85267E+02 -1.55083E+03
  4.12276E+03 -3.32413E+02  6.39685E+03  1.32317E+03  6.23576E+03  3.77751E+03  5.38708E+03  7.05336E+03
 -7.99791E+02  8.54489E+03 -7.22408E+03  6.39587E+03 -9.68958E+03  4.33239E+02 -7.99439E+03 -2.32591E+03
 -4.68638E+03 -6.02076E+03 -1.17531E+03 -4.50438E+03  2.13420E+03 -1.21537E+03  2.07063E+03 -1.68649E+03
  1.66548E+03 -2.01840E+03  2.42736E+03 -2.93989E+03  3.11795E+03 -4.86209E+02  3.78853E+03  9.92159E+02
  4.41144E+03  1.06319E+03  1.19802E+03  3.37189E+03 -1.31896E+03  2.53701E+03 -3.89098E+03  2.92689E+03
 -5.21837E+03 -2.33974E+03 -2.21653E+03 -2.86831E+03  8.15867E+02 -5.05991E+03  3.89602E+03 -4.64778E+03
  4.93847E+03 -3.58835E+03  5.94112E+03  7.60256E+02  3.87827E+03  4.53200E+03  2.62618E+02  6.05898E+03
 -1.05507E+03  5.84105E+03 -2.92535E+03  1.30542E+03 -2.29260E+03 -5.14184E+02  2.46652E+02  3.88317E+02
 -8.12916E+02  1.02684E+02 -5.05665E+02  2.01023E+03 -2.81918E+03  4.56526E+02 -3.83031E+03  7.20323E+00
 -2.03053E+03 -3.64370E+03  7.55203E+02 -4.74186E+03  3.27454E+03 -3.06120E+03  2.63769E+03 -1.32882E+03
  3.47134E+03  1.83614E+03  1.65553E+03  3.01654E+03 -7.72220E+02  4.92920E+03 -2.30687E+03  3.36619E+03
 -3.47813E+03  1.86978E+03 -2.45067E+03 -2.30109E+03 -9.39214E+02 -2.10074E+03  2.71488E+03 -2.56802E+03
  4.85009E+02 -9.34746E+02  2.31194E+03  1.74164E+03  3.26503E+02  1.10335E+03  1.17034E+03  2.14840E+02
  2.09197E+03 -4.92779E+01  2.37852E+02  3.04796E+02  1.23634E+03  1.54134E+03  1.34752E+03  2.33884E+03
 -2.20140E+03  2.27397E+03 -2.47677E+03  4.78747E+03 -2.84053E+03  1.96851E+03 -3.86404E+03 -3.50771E+02
 -1.60053E+03 -2.76768E+03  3.89633E+02 -5.00924E+03  1.13606E+03 -2.05548E+03  2.75286E+03 -1.62600E+03
  2.40828E+03  1.14326E+03 -4.89253E+02  1.72790E+03 -2.10479E+02  2.39917E+03 -1.17833E+03  5.15966E+02
  3.92083E+02 -7.57659E+02  1.50027E+03 -1.25919E+03  1.01665E+03  1.68327E+02  1.51117E+03  1.14400E+03
  9.00295E+02 -2.60611E+02 -2.01496E+02  1.95992E+02 -1.04658E+02  3.55329E+02  1.00058E+03  1.33911E+02
  4.76181E+02 -9.25788E+01  1.92679E+03  5.18071E+02  1.23209E+03  2.31550E+03  3.36638E+02  3.51307E+03
 -1.27622E+03  1.82760E+02 -2.24999E+03  7.52854E+02 -1.27531E+03 -1.17883E+03 -7.24956E+02 -6.52804E+02
  5.35119E+02 -1.56212E+03  6.25140E+02 -1.18482E+03  6.26529E+02  1.60234E+03 -1.81468E+02  1.21408E+03
 -1.08111E+03  1.48301E+02 -1.18870E+03 -1.26608E+03  3.76258E+02 -1.95292E+03 -8.61910E+01 -1.38121E+03
 -6.46039E+02  6.08455E+02  5.01661E+02  8.13423E+02  1.99752E+03 -6.52909E+02 -2.49991E+02  8.23771E+02
 -2.69994E+02  7.76230E+02 -6.69681E+02  4.60240E+01  1.17583E+03 -5.92606E+02  2.14119E+03 -5.23132E+02
  1.41264E+03  1.25893E+03  2.47578E+03  9.94847E+02  7.24302E+02  3.64026E+02 -3.14174E+01  1.95930E+03
 -1.65891E+03  1.19564E+03 -1.09737E+03  7.98217E+02 -3.36195E+02 -2.34121E+03  4.45489E+02 -3.67514E+02
  2.38900E+03 -9.89406E+02 -8.35445E+01  5.24546E+02  3.65507E+02  1.25992E+03  8.56304E+02  1.72921E+03
 -7.18874E+02  1.17431E+03 -7.38522E+02 -2.76833E+02 -1.60350E+02  3.10492E+01  1.09022E+02 -2.54947E+02
 -1.63113E+03  6.43824E+02 -2.24640E+03  7.23355E+02 -1.07200E+03 -7.74276E+02 -2.46015E+03 -9.14563E+02
 -7.21265E+02 -3.25953E+03  7.63162E+02 -2.48235E+03  1.15782E+02 -2.63047E+03  2.15573E+03 -1.59947E+03
  4.94142E+02 -1.00843E+02  1.55968E+03  1.57715E+03  7.55258E+02  1.81602E+03 -1.46212E+03  2.51068E+03
 -9.73637E+02  1.49240E+03 -8.36746E+02  2.60379E+01 -1.10256E+03  4.56879E+02 -2.51500E+01 -3.40209E+02
 -6.17680E+02  6.32677E+01  1.13723E+02 -6.85793E+01  3.71975E+01  1.86071E+02 -3.29283E+02 -2.14963E+02
  5.14440E+02 -1.02576E+03  7.01539E+02  4.07353E+02  1.64257E+02  1.52779E+03 -8.46372E+02  1.00046E+03
 -7.27029E+01  1.59876E+03 -1.04013E+03  1.76707E+03 -2.79586E+03 -1.02325E+03 -1.78232E+03 -1.94747E+03
 -3.72189E+02 -1.44248E+03  1.98841E+02 -1.05948E+03  5.65902E+02 -3.06182E+02 -6.03103E+02 -2.74553E+01
  1.00756E+03 -2.75775E+02  3.83004E+01  4.72958E+02 -1.68105E+02  7.78945E+02  6.22403E+02 -1.77722E+02
  1.46864E+03  4.96162E+02  1.11223E+03  6.28833E+02 -1.38102E+03  4.43241E+01 -2.25813E+02  2.17807E+02
 -1.90868E+03  2.74675E+02 -1.04072E+03  2.84196E+02 -1.42795E+03 -3.44655E+02  3.33870E+02 -6.66762E+02
  4.29772E+02 -7.53242E+02  8.56376E+02 -6.68863E+02  6.71869E+02 -1.26676E+03  1.89414E+01  1.46398E+03
  6.50402E+02  6.90757E+02  6.41338E+02  2.36561E+02 -1.58746E+02  2.90974E+01  8.92262E+01  1.90499E+01
 -5.65901E+02  9.70689E+01 -1.07302E+03  7.06614E+01 -3.84965E+02 -5.61049E+02 -6.30871E+02  6.11498E+02
 -4.04767E+02  9.44898E+02 -2.80382E+02 -1.10279E+03  7.61957E+01 -1.76632E+03  5.28617E+02 -8.94666E+02
  4.21933E+02  1.57137E+02  9.47752E+01  1.11824E+03  2.77160E+02  1.60882E+03  3.34209E+02  7.37245E+02
