 $NMID ID='MM_0lb_SNR200_7hz_g45_99.RAW', FMTDAT='(8E13.5)'
 TRAMP=1., VOLUME=1. $END
  3.08418E+05  5.07044E+02  3.37026E+05  2.51904E+05  8.51446E+04  3.37266E+05 -1.35067E+05  2.52844E+05
 -1.89268E+05  8.52346E+04 -1.12534E+05 -3.31755E+04  9.25566E+02 -5.17416E+04  5.34000E+04 -1.40298E+03
  3.44340E+04  5.17369E+04 -1.65207E+04  7.83043E+04 -6.00180E+04  6.38632E+04 -8.83345E+04  3.25681E+04
 -8.14139E+04 -1.09046E+04 -5.82656E+04 -5.43174E+04 -1.48419E+04 -7.34340E+04  2.69278E+04 -4.64928E+04
  4.12700E+04  3.25339E+03  1.52899E+04  4.73536E+04 -3.53583E+04  4.80711E+04 -6.84990E+04  5.59103E+02
 -5.46446E+04 -5.64901E+04 -8.87777E+03 -7.81755E+04  3.67327E+04 -5.62012E+04  4.99456E+04 -1.79530E+04
  4.54484E+04  1.15279E+04  3.35600E+04  2.57342E+04  1.79081E+04  3.08949E+04 -6.70760E+03  2.86207E+04
 -2.10298E+04  1.24479E+04 -1.61369E+04 -6.24746E+03  7.61062E+03 -8.37253E+03  2.64346E+04  1.37262E+04
  7.73643E+03  3.85413E+04 -3.10280E+04  3.73739E+04 -6.36398E+04  1.30259E+03 -6.13617E+04 -4.54283E+04
 -1.21423E+04 -6.72659E+04  4.26350E+04 -4.80029E+04  6.26669E+04 -3.57270E+03  3.68643E+04  3.31219E+04
 -5.35217E+03  4.00078E+04 -3.12162E+04  1.87994E+04 -3.39308E+04 -3.20640E+03 -1.94453E+04 -1.22046E+04
 -1.05842E+04 -1.58596E+04 -3.24901E+02 -1.94375E+04  9.48008E+03 -2.54648E+04  1.65037E+04 -1.17818E+04
  9.37699E+03  6.81508E+03 -1.34116E+04  1.14105E+04 -2.26522E+04 -6.65537E+03 -1.02178E+04 -3.84991E+04
  2.37374E+04 -4.87471E+04  5.30428E+04 -2.14461E+04  4.86419E+04  1.98594E+04  1.71263E+04  4.73322E+04
 -1.79471E+04  3.68454E+04 -2.76435E+04  3.15801E+03 -1.05517E+04 -3.07735E+04  2.21378E+04 -3.68928E+04
  4.54438E+04 -1.17533E+04  4.28859E+04  2.56117E+04  2.15165E+04  5.24086E+04 -8.58265E+03  5.63311E+04
 -3.71467E+04  3.84133E+04 -4.89124E+04  1.01172E+04 -4.85777E+04 -2.05808E+04 -2.58165E+04 -4.56673E+04
  9.16837E+03 -4.38192E+04  3.41471E+04 -1.78923E+04  3.18833E+04  9.76046E+03  5.32981E+03  2.26370E+04
 -1.47295E+04  9.67436E+03 -1.00522E+04 -8.24293E+03  5.92760E+03 -1.21645E+04  1.91764E+04  5.71920E+03
  1.64510E+04  2.28480E+04 -6.57109E+03  2.71810E+04 -2.31443E+04  1.65213E+04 -3.39462E+04 -4.26727E+03
 -2.61972E+04 -1.84694E+04 -1.27162E+04 -2.39018E+04  3.73425E+03 -2.75791E+04  1.95173E+04 -2.50608E+04
  3.42211E+04 -1.30604E+04  3.93915E+04  5.32367E+03  2.74960E+04  2.79204E+04  4.75072E+03  4.40580E+04
 -2.05017E+04  3.47090E+04 -3.22170E+04  1.27642E+04 -2.48325E+04 -1.16656E+04 -4.92895E+03 -1.15266E+04
 -1.15085E+03 -1.76688E+02 -8.31733E+03  9.67607E+03 -1.95546E+04  3.18081E+03 -2.21381E+04 -9.81683E+03
 -1.18180E+04 -2.52100E+04  5.88729E+03 -2.94781E+04  2.18033E+04 -2.00106E+04  2.45464E+04 -2.18838E+03
  1.48310E+04  1.87983E+04 -4.60169E+02  2.68129E+04 -1.94446E+04  1.34507E+04 -2.48177E+04 -5.36892E+03
 -1.90319E+04 -2.09639E+04 -1.89090E+03 -2.91582E+04  1.34653E+04 -2.57571E+04  2.39889E+04 -1.21463E+04
  2.37846E+04  8.57663E+02  1.67132E+04  5.68306E+03  8.73646E+03  4.86405E+02  1.43762E+04 -1.86859E+03
  2.42362E+04  1.64449E+03  2.65029E+04  1.73569E+04  1.88853E+04  4.20660E+04 -2.06339E+03  4.81615E+04
 -2.80498E+04  3.93144E+04 -4.37719E+04  2.07781E+04 -4.84485E+04 -4.23140E+03 -3.79624E+04 -2.78821E+04
 -1.38510E+04 -3.94433E+04  1.51425E+04 -3.40773E+04  3.08660E+04 -1.71454E+04  2.54164E+04  8.65490E+03
  8.19661E+03  1.94874E+04 -1.29725E+04  1.96257E+04 -2.18721E+04  1.12424E+03 -1.57405E+04 -1.36119E+04
  8.71734E+02 -2.19944E+04  9.88441E+03 -1.69279E+04  1.42782E+04 -1.77754E+03  3.59425E+03  1.01219E+04
 -9.54431E+03  5.19365E+03 -1.01231E+04 -7.75286E+03 -1.48932E+03 -1.97148E+04  1.38190E+04 -2.16064E+04
  2.57825E+04 -1.10234E+04  2.91710E+04  4.29009E+03  2.62616E+04  2.12163E+04  1.21978E+04  3.46670E+04
 -7.93068E+03  3.57795E+04 -2.42523E+04  1.92407E+04 -2.52343E+04  2.72150E+03 -1.71141E+04 -5.76081E+03
 -7.03082E+03 -7.65647E+03 -3.78735E+02  8.81870E+02 -3.49766E+03  1.43319E+03 -7.24516E+03  7.43441E+03
 -1.67855E+04 -1.91777E+02 -1.67971E+04 -1.28705E+04 -7.21444E+03 -2.04674E+04  7.67678E+03 -1.67949E+04
  1.33615E+04 -7.88371E+03  1.06845E+04  5.73999E+03 -4.92352E+01  6.13799E+03 -9.12926E+03 -1.18782E+03
 -8.19532E+03 -1.09285E+04 -3.83145E+02 -1.80422E+04  8.64245E+03 -1.82158E+04  2.32155E+04 -1.02403E+04
  2.42799E+04  2.28746E+03  1.92027E+04  1.54418E+04  4.26503E+03  2.04214E+04 -1.06985E+04  1.87565E+04
 -1.44488E+04  3.58985E+03 -8.39258E+03 -4.18944E+03  2.28058E+03 -5.20668E+03  8.58696E+03 -2.08544E+03
  1.00924E+04  6.88150E+03  1.34859E+03  1.51508E+04 -1.01292E+04  1.44146E+04 -1.74732E+04  3.57636E+03
 -1.19611E+04 -8.51444E+03  1.12143E+02 -1.58843E+04  1.08986E+04 -8.39116E+03  1.01679E+04  4.05398E+03
  2.03767E+03  1.23501E+04 -8.57841E+03  1.42667E+04 -1.43535E+04  5.44713E+03 -1.53903E+04 -5.05764E+03
 -9.65887E+03 -1.82342E+04  4.08518E+03 -2.10431E+04  1.70195E+04 -1.43550E+04  1.94619E+04  3.43617E+03
  1.10581E+04  1.69884E+04 -3.73827E+03  2.03435E+04 -1.35916E+04  1.16766E+04 -1.60056E+04 -2.76921E+03
 -1.16131E+04 -1.24641E+04 -1.54926E+03 -1.34489E+04  8.28433E+03 -1.09616E+04  8.51709E+03 -3.70285E+03
  4.96035E+03  3.12546E+03  6.78438E+02 -3.47151E+02  4.24483E+02 -1.44005E+03  4.86010E+03 -8.55379E+03
  1.38871E+04 -6.15434E+03  1.82405E+04  1.20494E+03  1.84353E+04  1.36691E+04  1.11372E+04  2.58661E+04
 -5.36357E+03  2.68794E+04 -2.23591E+04  2.08647E+04 -2.95815E+04  4.45096E+03 -2.46275E+04 -1.24773E+04
 -1.38348E+04 -2.04389E+04 -6.78830E+02 -1.62442E+04  5.61034E+03 -9.48514E+03  6.58695E+03 -5.59244E+03
  4.56688E+03 -3.75849E+03  4.28054E+03 -4.88195E+03  7.30516E+03 -4.93161E+03  9.54837E+03 -1.25498E+03
  1.11042E+04  3.89856E+03  8.20330E+03  1.19408E+04 -3.32066E+03  1.25644E+04 -1.37988E+04  9.67792E+03
 -1.68422E+04 -1.62137E+03 -1.06599E+04 -1.37071E+04 -6.45066E+02 -1.94420E+04  1.04877E+04 -1.90209E+04
  1.98931E+04 -1.07948E+04  2.25337E+04  4.92128E+03  1.61473E+04  1.67819E+04  3.26736E+03  2.21177E+04
 -8.95192E+03  1.71761E+04 -1.35770E+04  7.59950E+03 -7.71861E+03  6.06257E+01 -4.66036E+03 -1.33231E+03
 -1.73815E+03  1.57739E+03 -3.02504E+03  2.97932E+03 -7.17149E+03  3.51220E+03 -1.20919E+04 -1.80754E+03
 -8.57608E+03 -1.00054E+04 -4.09966E+02 -1.69447E+04  1.21203E+04 -1.73872E+04  1.97364E+04 -3.89967E+03
  1.66795E+04  8.47452E+03  1.06306E+04  1.52881E+04 -4.87562E+03  1.93362E+04 -1.39465E+04  1.09286E+04
 -1.92150E+04  9.05991E+02 -1.36482E+04 -1.00428E+04 -1.94591E+03 -1.48075E+04  7.62736E+03 -1.26441E+04
  1.12234E+04 -2.50929E+03  7.30407E+03  2.37956E+03  2.61925E+03  5.99280E+03  2.59936E+03  1.88354E+03
  1.85761E+03  1.97223E+03  5.75825E+03  9.78885E+02  5.49586E+03  5.73180E+03  4.08356E+03  9.48471E+03
 -2.33098E+03  1.59626E+04 -1.54166E+04  1.49801E+04 -1.94998E+04  3.39653E+03 -1.84879E+04 -7.15763E+03
 -8.13517E+03 -1.88397E+04  3.12675E+03 -2.12979E+04  1.09318E+04 -1.26534E+04  1.52886E+04 -3.64575E+03
  1.18885E+04  7.75161E+03  3.54925E+03  1.10186E+04 -6.47823E+03  5.95006E+03 -8.97498E+03  6.01810E+02
 -3.71451E+03 -8.22875E+03  4.09881E+03 -9.05161E+03  7.17388E+03 -4.42031E+03  8.29461E+03  1.89523E+03
  2.74519E+03  3.48676E+03  3.09087E+03  3.70038E+03 -7.10641E+02  3.88657E+03  1.98298E+03 -6.14627E+02
  2.72839E+03 -1.28394E+03  7.74472E+03  4.44737E+03  5.62255E+03  9.77380E+03 -1.15466E+03  1.28006E+04
 -9.71170E+03  8.11416E+03 -1.30384E+04  2.16462E+03 -1.07630E+04 -4.30022E+03 -4.72500E+03 -8.15494E+03
  2.03253E+03 -8.99940E+03  5.68192E+03 -4.99568E+03  4.63412E+03  2.59637E+03 -2.79745E+03  7.50940E+03
 -8.20384E+03  4.77265E+03 -7.87351E+03 -4.34035E+03 -4.85536E+03 -1.00255E+04  9.12241E+02 -9.77090E+03
  8.22117E+03 -8.40653E+03  8.17475E+03 -1.28475E+03  6.47722E+03  2.29689E+03  9.10075E+02  5.20201E+03
 -3.14210E+03  3.24184E+03 -4.35038E+03 -5.08930E+03  1.11127E+03 -8.73733E+03  1.03135E+04 -7.34009E+03
  1.08602E+04  9.95137E+02  1.04384E+04  7.76683E+03  4.04806E+03  1.24480E+04 -4.91133E+03  1.26620E+04
 -1.06984E+04  5.83524E+03 -1.09125E+04 -1.44160E+03 -5.17400E+03 -8.69501E+03  1.88298E+03 -9.41006E+03
  7.58164E+03 -3.31972E+03  5.77259E+03  4.56930E+03  4.07893E+03  6.39450E+03 -1.42332E+03  6.22671E+03
 -2.71528E+03  4.22635E+03 -3.69124E+03  2.16288E+03 -5.54395E+02  8.94649E+02 -2.37205E+03  1.65061E+03
 -3.76721E+03  4.17688E+03 -8.56090E+03  4.30231E+03 -1.19613E+04  6.66393E+02 -1.45309E+04 -8.67824E+03
 -7.34260E+03 -1.88487E+04  3.50875E+03 -2.07654E+04  1.45023E+04 -1.59121E+04  1.90363E+04 -5.35417E+03
  1.88198E+04  3.74539E+03  1.22648E+04  1.31424E+04  1.59777E+03  1.38752E+04 -4.32548E+03  8.96847E+03
 -7.68568E+03  4.52865E+03 -5.98543E+03 -1.49710E+03 -1.52886E+03 -1.25096E+03 -3.83896E+02 -1.26541E+03
 -1.27138E+03  4.43603E+02 -2.23236E+03 -3.03953E+01 -6.02983E+02 -3.29634E+03  9.17795E+02 -5.93800E+03
  6.89345E+03 -5.09618E+03  8.47261E+03 -1.01569E+03  8.90148E+03  6.31054E+03  2.94238E+03  1.29888E+04
 -5.70703E+03  1.76915E+04 -1.60590E+04  7.76280E+03 -1.61714E+04 -2.79685E+03 -1.28753E+04 -1.11533E+04
 -5.43174E+03 -1.41056E+04  3.05304E+03 -1.45218E+04  1.01864E+04 -6.49222E+03  1.04464E+04 -1.01349E+03
  3.69562E+03  4.37795E+03 -1.82619E+02  3.61025E+03 -2.62125E+03 -3.94170E+02 -8.83412E+02 -2.58497E+03
  4.92083E+03 -2.51888E+03  6.61240E+03  2.16947E+03  3.65087E+03  6.48289E+03 -8.22886E+02  8.46024E+03
 -6.29065E+03  7.26928E+03 -9.14590E+03  2.15297E+03 -8.84694E+03 -8.04332E+03 -2.55083E+03 -1.41971E+04
  7.24315E+03 -8.59073E+03  1.01890E+04 -4.59612E+03  1.26612E+04  2.45847E+03  6.62317E+03  8.31239E+03
  1.17366E+03  1.10824E+04 -6.31527E+03  1.00646E+04 -7.16970E+03  4.10594E+03 -4.85661E+03  1.65178E+03
 -3.41075E+03 -7.21446E+02 -1.33369E+03  1.56511E+03 -5.71671E+03  2.33647E+03 -6.66402E+03 -2.44377E+03
 -5.89498E+03 -4.75463E+03 -5.84974E+02 -1.08495E+04  4.85139E+03 -8.36411E+03  9.05585E+03 -3.81971E+03
  8.65500E+03 -5.58126E+02  7.99016E+03  7.25438E+03 -1.34584E+03  1.11039E+04 -8.34425E+03  5.96320E+03
