 $NMID ID='MM_0lb_SNR200_13hz_g60_30.RAW', FMTDAT='(8E13.5)'
 TRAMP=1., VOLUME=1. $END
  3.09501E+05 -1.54877E+02  3.37624E+05  2.50423E+05  8.44251E+04  3.38724E+05 -1.32844E+05  2.51114E+05
 -1.91822E+05  8.21355E+04 -1.12953E+05 -3.15647E+04  1.72653E+02 -5.03095E+04  5.35791E+04  1.43076E+02
  3.60676E+04  5.37391E+04 -1.63816E+04  7.66091E+04 -6.12363E+04  6.33297E+04 -8.46170E+04  3.15584E+04
 -8.25827E+04 -1.09050E+04 -5.76433E+04 -5.15736E+04 -1.50725E+04 -7.00400E+04  2.75926E+04 -4.61656E+04
  4.18648E+04  3.00250E+03  1.53801E+04  5.00253E+04 -3.53652E+04  4.73567E+04 -6.84133E+04  1.34619E+02
 -5.36178E+04 -5.59913E+04 -6.70886E+03 -7.79605E+04  3.40490E+04 -5.54100E+04  4.84536E+04 -1.81743E+04
  4.54472E+04  1.21205E+04  3.14989E+04  2.63854E+04  1.56321E+04  2.96995E+04 -5.54420E+03  2.79379E+04
 -2.10481E+04  1.13310E+04 -1.83728E+04 -5.32314E+03  6.50369E+03 -7.54102E+03  2.19076E+04  1.29328E+04
  7.89200E+03  3.65309E+04 -3.35838E+04  3.60827E+04 -6.61992E+04  3.01300E+03 -5.79023E+04 -4.49838E+04
 -1.15977E+04 -6.57572E+04  4.15208E+04 -4.67901E+04  5.98307E+04 -1.83045E+03  3.48553E+04  3.27097E+04
 -5.41408E+03  3.64724E+04 -2.98991E+04  1.91858E+04 -3.21668E+04 -5.01522E+03 -1.86146E+04 -1.11828E+04
 -8.77247E+03 -1.39612E+04 -1.61013E+03 -1.89591E+04  8.88311E+03 -2.15612E+04  1.45832E+04 -1.28803E+04
  1.12919E+04  6.04072E+03 -9.37987E+03  1.36688E+04 -2.27400E+04 -4.75785E+03 -8.75924E+03 -3.53117E+04
  2.38652E+04 -4.47262E+04  4.96295E+04 -1.95153E+04  4.71701E+04  2.06218E+04  1.66294E+04  4.46669E+04
 -1.62302E+04  3.50333E+04 -2.58711E+04  3.59241E+03 -1.14188E+04 -2.89365E+04  2.10330E+04 -3.49714E+04
  4.20040E+04 -1.16368E+04  3.83468E+04  2.47775E+04  2.02265E+04  4.98072E+04 -7.16065E+03  5.41470E+04
 -3.30527E+04  3.75537E+04 -4.53915E+04  1.09477E+04 -4.50763E+04 -1.80027E+04 -2.39238E+04 -3.91249E+04
  9.23829E+03 -3.95157E+04  3.18822E+04 -1.48834E+04  3.13567E+04  1.04503E+04  5.56066E+03  1.87702E+04
 -1.44925E+04  9.03997E+03 -1.06492E+04 -7.39050E+03  5.41091E+03 -1.18709E+04  1.89272E+04  6.41603E+03
  1.38934E+04  2.23738E+04 -4.91503E+03  2.56528E+04 -2.33768E+04  1.27455E+04 -2.97555E+04 -4.00688E+03
 -2.44512E+04 -1.80296E+04 -8.44608E+03 -2.21199E+04  5.25203E+03 -2.28915E+04  1.81343E+04 -2.00107E+04
  2.91629E+04 -1.33813E+04  3.54772E+04  3.22094E+03  2.71589E+04  2.18620E+04  4.72809E+03  3.83635E+04
 -1.81316E+04  3.08281E+04 -2.88013E+04  1.09389E+04 -2.33865E+04 -9.82356E+03 -2.74244E+03 -1.37791E+04
  1.86731E+03 -1.59097E+03 -4.59974E+03  7.48416E+03 -1.84530E+04  3.57661E+03 -1.74744E+04 -7.98208E+03
 -1.00688E+04 -2.14362E+04  4.25246E+03 -2.37993E+04  1.68344E+04 -1.73373E+04  2.03178E+04 -6.26843E+02
  1.15533E+04  1.43723E+04 -1.03666E+03  2.18059E+04 -1.38642E+04  1.23733E+04 -2.14654E+04 -3.12603E+03
 -1.42835E+04 -1.73254E+04 -2.50660E+03 -2.52708E+04  1.13031E+04 -2.18615E+04  2.09510E+04 -1.16006E+04
  1.95674E+04 -1.02691E+02  1.50850E+04  5.13584E+03  7.89711E+03  9.62697E+02  1.09193E+04 -1.90780E+03
  2.00311E+04  1.72681E+03  2.23668E+04  1.70727E+04  1.48425E+04  3.29975E+04 -2.77110E+03  3.79797E+04
 -2.28346E+04  3.17656E+04 -3.68083E+04  1.50778E+04 -3.80145E+04 -2.70457E+03 -3.19845E+04 -2.13723E+04
 -1.31063E+04 -3.06146E+04  1.03662E+04 -2.82666E+04  2.50769E+04 -1.37200E+04  2.10332E+04  5.43780E+03
  7.08264E+03  1.56587E+04 -9.07662E+03  1.57955E+04 -1.90858E+04  3.21828E+03 -1.41405E+04 -1.16153E+04
 -8.40769E+02 -1.72258E+04  9.27851E+03 -1.22371E+04  9.72613E+03 -3.64035E+02  2.38696E+03  8.13731E+03
 -6.75130E+03  2.52400E+03 -7.64160E+03 -6.13630E+03  2.56975E+02 -1.50917E+04  9.42013E+03 -1.71543E+04
  2.07295E+04 -1.02879E+04  2.07652E+04  3.24820E+03  1.93801E+04  1.44407E+04  8.35725E+03  2.45825E+04
 -3.42658E+03  2.57549E+04 -1.74303E+04  1.54206E+04 -1.87756E+04  3.64604E+03 -1.18157E+04 -4.83599E+03
 -4.06775E+03 -4.04547E+03 -1.03766E+03  1.32992E+03 -3.70087E+03  2.68985E+03 -3.82658E+03  4.72670E+03
 -1.18345E+04 -5.90597E+02 -1.13139E+04 -1.03005E+04 -5.57347E+03 -1.57419E+04  4.69253E+03 -1.39166E+04
  9.30490E+03 -6.06093E+03  8.17713E+03  5.09175E+03  6.56112E+02  4.50591E+03 -6.36905E+03 -1.05496E+03
 -5.96391E+03 -8.25891E+03 -2.45528E+03 -1.21177E+04  6.88470E+03 -1.30013E+04  1.50712E+04 -6.88271E+03
  1.87840E+04  2.67273E+03  1.41331E+04  1.19972E+04  2.13713E+03  1.55320E+04 -7.84433E+03  1.20446E+04
 -9.28800E+03  4.02915E+03 -6.03612E+03 -2.73566E+03  2.92660E+03 -3.95675E+03  6.71772E+03 -1.61384E+03
  5.89914E+03  5.36278E+03  2.01232E+03  9.91290E+03 -7.86750E+03  1.00242E+04 -1.28499E+04  1.76221E+03
 -7.54952E+03 -5.20573E+03  3.04433E+02 -1.07035E+04  6.37258E+03 -4.77485E+03  8.41749E+03  1.91170E+03
  3.76875E+02  6.77948E+03 -6.64005E+03  7.98980E+03 -9.62234E+03  4.44307E+03 -1.00117E+04 -4.16974E+03
 -6.50175E+03 -1.30720E+04  2.43023E+03 -1.37852E+04  1.20831E+04 -8.79762E+03  1.26251E+04  3.06856E+03
  7.12030E+03  1.01451E+04 -8.26790E+02  1.22554E+04 -7.74085E+03  7.33974E+03 -1.04249E+04 -3.62664E+02
 -9.14543E+03 -7.43651E+03 -1.42386E+03 -8.75187E+03  5.84595E+03 -8.10136E+03  4.44534E+03 -3.16369E+03
  5.48666E+03  1.34626E+03  2.89703E+02  1.34964E+03 -2.04959E+03 -2.17399E+03  4.95583E+02 -5.40686E+03
  9.26583E+03 -2.90859E+03  1.10274E+04  1.55976E+03  1.17755E+04  7.06684E+03  8.10631E+03  1.51322E+04
 -4.58634E+03  1.62749E+04 -1.72043E+04  1.31680E+04 -1.76111E+04  2.41384E+03 -1.52489E+04 -5.83021E+03
 -7.45377E+03 -1.36962E+04 -1.26835E+03 -1.08597E+04  4.17182E+03 -5.61301E+03  2.15742E+03 -4.27864E+03
  2.46865E+03 -4.46178E+03  3.62409E+03 -3.90464E+03  5.55773E+03 -2.54685E+03  5.62149E+03 -1.71447E+03
  8.06636E+03  2.14269E+03  3.98284E+03  7.41745E+03 -2.05881E+03  7.60835E+03 -7.25454E+03  5.86117E+03
 -9.44260E+03 -7.26681E+02 -6.02990E+03 -8.03045E+03 -4.05711E+02 -1.23886E+04  7.05393E+03 -1.12740E+04
  1.10209E+04 -7.43949E+03  1.50116E+04  2.11799E+03  9.66025E+03  8.83838E+03  1.57007E+03  1.13778E+04
 -4.76066E+03  1.06989E+04 -6.34479E+03  3.84589E+03 -4.26542E+03 -1.61775E+03 -2.13659E+03 -1.36463E+03
 -1.05431E+03  1.07760E+01 -1.76484E+03  2.91127E+03 -4.49040E+03  1.86186E+03 -6.73076E+03 -1.67188E+03
 -4.30493E+03 -8.22880E+03  1.30444E+03 -1.03574E+04  5.75616E+03 -1.05405E+04  9.01241E+03 -2.33738E+03
  1.00720E+04  4.48780E+03  6.22826E+03  9.04392E+03 -2.47434E+03  1.04727E+04 -6.28528E+03  6.09057E+03
 -1.02438E+04  4.82529E+02 -7.57891E+03 -6.74222E+03 -6.81126E+02 -7.84437E+03  4.90160E+03 -4.45966E+03
  6.30117E+03 -2.80460E+03  4.49737E+03  2.41606E+03  1.67222E+03  2.68555E+03  1.13138E+02  1.71895E+03
  1.36952E+03 -4.72029E+02  1.27752E+03  2.01871E+03  3.51517E+03  4.17315E+03  2.30423E+03  5.01126E+03
 -3.62080E+03  6.60331E+03 -7.19823E+03  8.67725E+03 -9.52228E+03  2.40888E+03 -1.04926E+04 -2.86595E+03
 -4.05519E+03 -9.78254E+03  1.26008E+03 -1.23054E+04  5.50235E+03 -6.55526E+03  6.77916E+03 -1.93221E+03
  5.56602E+03  3.28689E+03  1.50911E+03  5.84035E+03 -2.37405E+03  4.03460E+03 -4.08126E+03 -3.31704E+01
 -1.34523E+03 -3.97133E+03  3.02971E+03 -3.84716E+03  4.67557E+03 -1.57057E+03  2.66892E+03  1.27780E+03
  2.68287E+03  1.68768E+03  7.40621E+02  1.22046E+03 -3.65943E+02  2.06798E+03  2.70585E+03  5.96503E+02
  1.63222E+03 -7.22900E+02  3.49238E+03  1.93569E+03  2.04220E+03  4.72123E+03 -1.43355E+03  8.00718E+03
 -4.91596E+03  2.72066E+03 -6.41647E+03 -5.56294E+02 -6.13780E+03 -1.64313E+03 -3.80344E+03 -9.14612E+02
  1.49886E+03 -1.63922E+03  2.90923E+03 -5.46101E+02  1.56152E+03  1.57568E+03 -4.62155E+02  2.05033E+03
 -2.92357E+03  1.61737E+03 -4.45490E+03 -2.12174E+03 -2.63630E+03 -4.94882E+03 -9.16889E+01 -5.16589E+03
  2.39511E+03 -2.14478E+03  3.44552E+03 -9.31760E+02  9.29758E+02  1.89283E+03  8.10612E+01  3.91296E+03
 -2.29760E+03  1.45362E+03 -1.51958E+03 -2.07903E+03  1.41310E+03 -2.66281E+03  4.94655E+03 -3.18283E+03
  6.12545E+03  1.15698E+03  5.19714E+03  3.64855E+03  1.12369E+03  4.70145E+03 -1.19672E+03  5.36695E+03
 -5.47997E+03  1.97421E+03 -5.41933E+03 -1.20323E+03 -3.71224E+03 -3.58559E+03  1.03548E+03 -3.40558E+03
  3.88851E+03 -1.69555E+03  2.98498E+03  1.44782E+03  1.87772E+03  3.30314E+03 -5.28093E+02  2.83019E+03
 -1.58904E+03  2.23314E+03 -2.25904E+03  4.65714E+02 -1.11369E+03 -1.70901E+02 -8.69702E+01  1.63192E+03
  7.96956E+01  2.88392E+03 -3.59189E+03  4.61359E+02 -5.64431E+03 -4.77124E+02 -6.41290E+03 -3.35584E+03
 -3.75170E+03 -6.38339E+03  9.37772E+02 -7.48385E+03  6.31653E+03 -6.64403E+03  7.97315E+03 -3.26504E+03
  5.96216E+03  1.24769E+03  5.36262E+03  5.58765E+03 -5.36715E+02  4.51912E+03 -2.02868E+03  3.85205E+03
 -2.48540E+03  1.92512E+03 -4.58723E+02  4.09673E+02 -1.35149E+03  3.01117E+02 -7.48226E+02  1.41234E+03
 -4.37843E+02 -1.24437E+03 -6.58883E+02 -4.02031E+02  5.84363E+02 -1.61747E+03  1.76774E+02 -2.87724E+03
  2.94503E+03 -4.99104E+02  3.79994E+03 -7.24359E+02  3.84777E+03  3.33435E+03 -2.10697E+02  4.40757E+03
 -2.22692E+03  6.19522E+03 -6.58060E+03  4.93282E+03 -5.74016E+03 -4.04103E+02 -4.30355E+03 -3.40886E+03
 -1.90972E+03 -4.49705E+03  7.88542E+02 -3.07314E+03  1.97564E+03 -1.64583E+03  4.72009E+03  8.52684E+02
  1.64361E+03  6.96306E+02  1.32560E+03  8.25217E+02 -1.19167E+03 -1.13171E+02  5.62623E+02 -1.03378E+03
  2.14915E+03 -1.19828E+03  9.64847E+02 -3.34238E+02  3.49639E+02  2.04305E+03 -3.68856E+02  2.47825E+03
 -1.37297E+03  2.39911E+03 -3.23559E+03 -6.00244E+02 -2.26694E+03 -2.14417E+03  3.11736E+02 -3.42840E+03
  1.15460E+03 -3.47913E+03  1.69328E+03  3.33617E+02  3.00906E+03  5.07848E+02  2.60664E+03  2.61314E+03
  1.14911E+03  3.01289E+03 -7.46838E+02  1.85976E+03 -3.23627E+03  2.41717E+03 -1.66201E+03  1.15091E+03
 -1.25614E+03 -3.02726E+02 -4.55379E+02  3.25546E+02 -1.50967E+03  1.22588E+03 -2.54118E+03 -1.17236E+03
 -2.12788E+03 -1.52953E+03 -1.93759E+03 -2.87623E+03  3.04115E+03 -4.18567E+03  2.39243E+03 -1.80705E+03
  2.36080E+03  9.73350E+02  1.33067E+03  2.46330E+03 -4.66646E+01  2.86766E+03 -2.14510E+03  1.03347E+03
