 $NMID ID='MM_0lb_SNR200_13hz_g60_67.RAW', FMTDAT='(8E13.5)'
 TRAMP=1., VOLUME=1. $END
  3.09909E+05 -5.58162E+02  3.37900E+05  2.49051E+05  8.41730E+04  3.37576E+05 -1.32619E+05  2.50917E+05
 -1.90848E+05  8.38102E+04 -1.11903E+05 -3.31020E+04  9.68084E+02 -5.04377E+04  5.40771E+04 -1.03445E+03
  3.42037E+04  5.23894E+04 -1.65001E+04  7.67115E+04 -6.15036E+04  6.32447E+04 -8.61932E+04  3.25103E+04
 -8.09555E+04 -1.02491E+04 -5.73589E+04 -5.11850E+04 -1.62109E+04 -7.04870E+04  2.65120E+04 -4.59107E+04
  4.02309E+04  3.57216E+03  1.64218E+04  4.79075E+04 -3.45345E+04  4.62633E+04 -6.73723E+04  1.49217E+02
 -5.54040E+04 -5.69949E+04 -6.59941E+03 -7.91294E+04  3.54326E+04 -5.55108E+04  4.95268E+04 -1.71338E+04
  4.54154E+04  1.10123E+04  3.21937E+04  2.46237E+04  1.52769E+04  3.19090E+04 -6.25773E+03  2.63517E+04
 -2.22807E+04  1.27018E+04 -1.76175E+04 -5.32081E+03  7.03020E+03 -7.94103E+03  2.36484E+04  1.17789E+04
  6.95511E+03  3.67871E+04 -3.27544E+04  3.51493E+04 -6.33827E+04  1.49912E+03 -5.74332E+04 -4.23286E+04
 -1.23441E+04 -6.46638E+04  4.10951E+04 -4.68873E+04  6.13177E+04 -1.85762E+03  3.58361E+04  3.41553E+04
 -5.30910E+03  3.97090E+04 -3.10466E+04  1.63778E+04 -3.19769E+04 -4.43513E+03 -1.69179E+04 -1.20784E+04
 -9.22804E+03 -1.51069E+04  4.15794E+02 -1.83591E+04  8.84072E+03 -2.27915E+04  1.46967E+04 -1.23852E+04
  1.11837E+04  4.18544E+03 -9.28000E+03  1.30562E+04 -2.30201E+04 -4.71126E+03 -9.27642E+03 -3.54817E+04
  2.43336E+04 -4.53794E+04  5.20092E+04 -2.05287E+04  4.63819E+04  2.07568E+04  1.50225E+04  4.48891E+04
 -1.69786E+04  3.50251E+04 -2.64592E+04  1.93405E+03 -1.07678E+04 -2.84838E+04  2.10316E+04 -3.49939E+04
  4.36725E+04 -1.03449E+04  3.91914E+04  2.46965E+04  2.06057E+04  4.96974E+04 -8.06852E+03  5.25297E+04
 -3.33473E+04  3.57703E+04 -4.46788E+04  1.01910E+04 -4.46134E+04 -1.69917E+04 -2.67776E+04 -3.94008E+04
  7.21909E+03 -3.95238E+04  3.27762E+04 -1.47360E+04  3.06801E+04  1.18778E+04  4.68604E+03  2.00390E+04
 -1.42950E+04  9.66193E+03 -1.11328E+04 -7.90965E+03  5.85274E+03 -1.06364E+04  1.71796E+04  5.34610E+03
  1.47339E+04  2.17427E+04 -5.54160E+03  2.63040E+04 -2.26260E+04  1.30097E+04 -2.89825E+04 -4.59566E+03
 -2.26896E+04 -1.82532E+04 -1.08510E+04 -2.21239E+04  3.57344E+03 -2.31278E+04  1.77885E+04 -2.07855E+04
  2.84999E+04 -1.26089E+04  3.40053E+04  2.67959E+03  2.52497E+04  2.25607E+04  4.54509E+03  3.90322E+04
 -1.76752E+04  3.24527E+04 -2.84632E+04  9.66156E+03 -2.18818E+04 -1.03674E+04 -4.88604E+03 -1.35125E+04
  4.28213E+01 -2.33306E+03 -6.69028E+03  7.67632E+03 -1.84177E+04  3.92700E+03 -1.76784E+04 -7.33080E+03
 -1.12749E+04 -1.94381E+04  6.12857E+03 -2.44706E+04  1.58066E+04 -1.78109E+04  1.95125E+04 -2.89536E+03
  1.34708E+04  1.42172E+04 -8.93279E+02  2.14663E+04 -1.43523E+04  1.31385E+04 -2.20903E+04 -4.53784E+03
 -1.51283E+04 -1.89346E+04 -1.70301E+03 -2.46352E+04  1.06361E+04 -1.99303E+04  2.01164E+04 -1.23796E+04
  1.96014E+04 -9.74217E+01  1.46837E+04  4.79912E+03  7.19229E+03  2.03337E+02  1.16961E+04 -2.59522E+03
  1.82887E+04  3.02773E+03  2.23227E+04  1.70563E+04  1.58154E+04  3.33817E+04 -4.59192E+03  3.73309E+04
 -2.22705E+04  3.15139E+04 -3.56025E+04  1.65298E+04 -3.91517E+04 -3.23615E+03 -3.09964E+04 -2.25092E+04
 -1.31941E+04 -3.11552E+04  1.00007E+04 -2.82828E+04  2.38171E+04 -1.27200E+04  2.21379E+04  5.65494E+03
  8.36093E+03  1.73528E+04 -1.11553E+04  1.35329E+04 -1.75143E+04  3.02676E+03 -1.29249E+04 -1.09975E+04
 -1.26481E+03 -1.71281E+04  9.95627E+03 -1.18074E+04  1.06790E+04 -2.03330E+03  2.20450E+03  6.89299E+03
 -8.52950E+03  3.46008E+03 -6.49737E+03 -5.49819E+03 -1.10508E+03 -1.56703E+04  1.08348E+04 -1.64151E+04
  1.96297E+04 -9.34644E+03  2.22929E+04  2.70522E+03  1.75829E+04  1.51187E+04  8.84216E+03  2.31801E+04
 -3.95369E+03  2.54447E+04 -1.66149E+04  1.58451E+04 -1.78047E+04  3.84548E+03 -1.24493E+04 -4.65924E+03
 -7.41863E+03 -4.88502E+03 -1.05126E+02  7.32705E+02 -2.12668E+03  1.12169E+03 -6.98688E+03  4.00484E+03
 -1.27754E+04 -1.49070E+03 -1.21595E+04 -1.03072E+04 -6.18843E+03 -1.59180E+04  4.33491E+03 -1.29682E+04
  9.54151E+03 -4.41668E+03  7.69172E+03  3.48591E+03  4.80746E+02  5.11013E+03 -5.03954E+03 -4.66386E+02
 -6.76968E+03 -8.45845E+03 -8.87923E+02 -1.20213E+04  7.41363E+03 -1.29824E+04  1.72597E+04 -8.18459E+03
  1.77654E+04  1.69560E+03  1.35223E+04  1.08785E+04  2.54753E+03  1.51194E+04 -7.48331E+03  1.10877E+04
 -9.98964E+03  5.82921E+03 -5.09241E+03 -3.62055E+03  9.40950E+02 -3.16271E+03  6.98429E+03 -7.73202E+02
  6.10656E+03  5.78264E+03  4.25521E+02  1.12924E+04 -7.93918E+03  9.16514E+03 -1.24633E+04  3.00168E+03
 -8.48792E+03 -6.74616E+03 -4.49930E+02 -1.09375E+04  6.60378E+03 -5.86084E+03  6.53248E+03  3.65612E+03
  1.74720E+03  7.42248E+03 -6.90941E+03  9.19872E+03 -1.04069E+04  3.60220E+03 -1.16783E+04 -2.58925E+03
 -5.88919E+03 -1.16456E+04  1.48711E+03 -1.46333E+04  1.16701E+04 -8.58551E+03  1.24192E+04  3.47782E+03
  6.26454E+03  1.11971E+04 -1.11923E+03  1.29754E+04 -8.41360E+03  6.11523E+03 -1.08572E+04 -1.73204E+03
 -9.45644E+03 -8.47476E+03 -2.73205E+03 -9.83004E+03  4.81678E+03 -7.07420E+03  5.22450E+03 -3.75747E+03
  4.25364E+03  1.39334E+03 -1.48186E+03  1.71219E+03 -6.58839E+02 -1.56907E+03  1.91736E+03 -5.67360E+03
  7.54563E+03 -2.81775E+03  1.22619E+04  3.94118E+02  1.29547E+04  5.95408E+03  8.35354E+03  1.56431E+04
 -2.89468E+03  1.65662E+04 -1.49447E+04  1.17725E+04 -1.93977E+04  2.79699E+03 -1.54053E+04 -6.13119E+03
 -7.98346E+03 -1.23799E+04  4.20963E+01 -9.91889E+03  4.43389E+03 -5.45718E+03  4.08365E+03 -4.21132E+03
  1.71228E+03 -1.71722E+03  2.93656E+03 -2.95333E+03  5.17265E+03 -2.98121E+03  5.25678E+03  1.32998E+01
  8.36808E+03 -3.57123E+02  2.41422E+03  7.54989E+03 -1.38286E+03  6.15815E+03 -8.89853E+03  6.63862E+03
 -1.03319E+04 -2.41214E+03 -6.24153E+03 -7.07348E+03 -1.13522E+03 -9.85416E+03  7.02094E+03 -1.14843E+04
  1.04236E+04 -6.40289E+03  1.42611E+04  2.25992E+03  8.51556E+03  9.11598E+03  8.89398E+02  1.25766E+04
 -5.07086E+03  1.03745E+04 -6.32259E+03  3.14406E+03 -5.58991E+03 -1.73117E+03 -2.01683E+03 -1.51668E+03
 -2.32012E+03  3.79282E+02 -9.54041E+02  1.22166E+03 -3.57890E+03  1.14069E+03 -9.28911E+03 -4.02608E+02
 -4.39015E+03 -7.40912E+03  2.80551E+02 -1.03883E+04  4.82312E+03 -9.42059E+03  1.07602E+04 -3.06094E+03
  8.88118E+03  5.03856E+03  4.49865E+03  8.00999E+03 -1.58885E+03  1.00058E+04 -6.49486E+03  6.99041E+03
 -7.89337E+03  7.77708E+02 -6.46221E+03 -5.81148E+03 -2.89557E+02 -8.26498E+03  5.03126E+03 -6.73788E+03
  5.78301E+03 -2.43249E+03  5.69025E+03  1.44752E+03  1.12195E+03  1.97416E+03  1.88048E+03  1.25212E+03
  3.26920E+03  9.60226E+02  2.68907E+03  2.23097E+03  2.79905E+03  4.90844E+03  2.17001E+03  5.57056E+03
 -2.33936E+03  7.81260E+03 -5.90922E+03  6.73773E+03 -1.03737E+04  1.85603E+03 -1.01387E+04 -5.38344E+03
 -4.69476E+03 -1.17910E+04  1.52777E+03 -1.14165E+04  4.99066E+03 -6.41876E+03  7.42873E+03 -2.39496E+03
  6.03730E+03  3.03160E+03  7.94469E+02  4.60250E+03 -2.62723E+03  3.69222E+03 -2.61926E+03 -3.98291E+02
 -1.39304E+03 -5.13182E+03  1.73086E+03 -4.95484E+03  3.04168E+03 -1.72381E+03  2.70716E+03  1.88743E+03
  2.87353E+03  1.19399E+03  1.38066E+03  4.39540E+02 -3.22080E+02  4.53017E+02  2.16588E+03  9.48940E+02
  6.58811E+02 -8.34748E+02  3.92990E+03  2.94292E+03  1.47338E+03  5.35935E+03 -4.17885E+02  5.31277E+03
 -3.98797E+03  4.95824E+03 -5.10643E+03  1.16477E+03 -4.72009E+03 -1.06087E+03 -1.80163E+03 -2.51084E+03
  1.16533E+03 -2.74157E+03  1.64493E+03 -1.41757E+03  1.56016E+03  1.49001E+03 -1.57461E+03  2.49696E+03
 -4.31354E+03  2.80272E+03 -4.18012E+03 -3.04167E+03 -2.27478E+03 -4.86893E+03 -5.10795E+02 -3.96153E+03
  1.35195E+03 -3.04736E+03  4.24563E+03 -1.02138E+03  3.33335E+03  1.20562E+03 -2.30100E+00  2.92045E+03
 -1.28946E+03  1.51090E+03 -3.53473E+03 -1.98707E+03  1.20135E+03 -3.26442E+03  3.31814E+03 -3.01448E+03
  4.59188E+03  1.71112E+03  5.88152E+03  3.03627E+03  2.38903E+03  5.68393E+03 -3.82988E+02  5.57076E+03
 -4.24876E+03  2.12717E+03 -3.64134E+03 -8.56615E+02 -2.89011E+03 -3.81581E+03  6.53410E+02 -2.77419E+03
  4.42587E+03 -3.28083E+03  1.95810E+03  7.67174E+02  4.64908E+00  3.76451E+03 -4.18630E+02  2.64264E+03
 -1.84066E+03  2.67341E+03 -2.07419E+03  9.77551E+02 -7.69525E+02  2.70807E+02  1.26196E+02  9.28045E+02
 -1.16291E+03  4.29318E+03 -3.04868E+03  2.09761E+03 -4.18783E+03  2.03182E+01 -6.95111E+03 -3.84769E+03
 -3.00240E+03 -7.72248E+03  1.03246E+03 -9.30162E+03  3.66794E+03 -6.48892E+03  7.89102E+03 -3.35923E+03
  7.32995E+03  4.11255E+02  4.93999E+03  5.05350E+03  1.56508E+01  5.70774E+03 -2.17569E+03  4.32569E+03
 -3.79854E+03  1.38805E+03 -2.47839E+03 -1.59141E+02 -1.05294E+03 -5.19801E+02 -4.65998E+02 -6.82395E+02
 -2.11931E+03  4.15044E+02 -2.70893E+03 -9.88659E+02 -7.24981E+02 -6.42451E+02 -5.43833E+02 -3.25520E+03
  1.56970E+03 -2.46493E+03  3.07728E+03  9.94604E+02  6.19141E+03  2.11122E+03 -5.67994E+02  4.64193E+03
 -3.27750E+03  6.35333E+03 -6.37782E+03  3.83769E+03 -7.37423E+03 -1.60087E+01 -4.07825E+03 -4.53154E+03
 -2.90713E+03 -4.92905E+03  1.38327E+03 -4.50721E+03  4.98476E+03 -1.69983E+03  3.43799E+03  6.25552E+02
  1.95732E+03  1.71668E+03 -7.23652E+01  1.11550E+03 -1.61368E+03 -7.35872E+02  1.63325E+03 -1.13406E+03
  2.66409E+03 -1.70446E+03  1.95823E+03  1.71996E+03  2.15356E+03  2.43886E+03  3.88599E+02  1.31145E+03
 -2.33999E+03  4.27128E+02 -2.78888E+03 -4.95985E+02 -3.49937E+03 -8.97999E+02 -1.45062E+03 -5.47527E+03
  2.80539E+03 -4.17339E+03  2.34120E+03 -9.67033E+02  3.72635E+03 -3.39121E+02  2.32667E+03  4.07754E+03
 -1.62479E+02  2.89877E+03 -1.55819E+03  2.83214E+03 -8.61379E+02  8.71603E+02 -1.48255E+03  2.90195E+02
 -1.76146E+03 -1.36329E+02 -4.21255E+02 -7.00902E+01 -2.09307E+03  2.09939E+02 -1.63689E+03 -1.06710E+03
 -1.70603E+03 -1.29115E+03 -8.63940E+02 -4.08368E+03  5.12495E+02 -4.29017E+03  1.95499E+03 -1.87838E+03
  2.83980E+03  1.31478E+03  1.35309E+03  1.82743E+03  3.47549E+01  3.94200E+03 -2.39753E+03  2.26736E+03
