 $NMID ID='MM_0lb_SNR200_16hz_g50_77.RAW', FMTDAT='(8E13.5)'
 TRAMP=1., VOLUME=1. $END
  3.10710E+05 -1.67157E+02  3.37974E+05  2.49797E+05  8.59265E+04  3.37386E+05 -1.32300E+05  2.51418E+05
 -1.90221E+05  8.34899E+04 -1.11569E+05 -3.27862E+04  1.51461E+03 -5.02728E+04  5.31343E+04 -2.84740E+02
  3.56385E+04  5.23919E+04 -1.59872E+04  7.57081E+04 -6.11138E+04  6.26059E+04 -8.32894E+04  3.20352E+04
 -8.02705E+04 -1.18692E+04 -5.70169E+04 -5.06184E+04 -1.45974E+04 -6.92876E+04  2.69990E+04 -4.50054E+04
  3.89401E+04  3.79882E+03  1.68861E+04  4.75119E+04 -3.48874E+04  4.58732E+04 -6.65822E+04  3.32997E+00
 -5.41687E+04 -5.49641E+04 -7.25874E+03 -7.52260E+04  3.33196E+04 -5.29680E+04  4.76605E+04 -1.73733E+04
  4.19947E+04  1.11398E+04  3.10164E+04  2.41089E+04  1.61509E+04  3.03442E+04 -6.22137E+03  2.78016E+04
 -2.12174E+04  1.29789E+04 -1.84389E+04 -4.65246E+03  6.08747E+03 -8.60219E+03  2.19270E+04  1.19342E+04
  7.67702E+03  3.31794E+04 -3.07118E+04  3.53832E+04 -6.29645E+04  2.00088E+03 -5.63666E+04 -4.15199E+04
 -1.23689E+04 -6.38152E+04  3.93919E+04 -4.48644E+04  5.72082E+04 -1.89360E+03  3.24465E+04  3.19999E+04
 -6.37855E+03  3.47624E+04 -2.88740E+04  1.41355E+04 -3.02936E+04 -6.28456E+03 -1.53614E+04 -1.11474E+04
 -8.69552E+03 -1.34966E+04 -8.83633E+02 -1.75312E+04  6.37336E+03 -2.24292E+04  1.66629E+04 -1.39326E+04
  1.11982E+04  4.38636E+03 -7.60630E+03  1.30363E+04 -2.10159E+04 -3.68296E+03 -8.70261E+03 -3.19147E+04
  2.27244E+04 -4.20857E+04  4.62371E+04 -1.82870E+04  4.35261E+04  1.79651E+04  1.47415E+04  4.41208E+04
 -1.52505E+04  3.39110E+04 -2.38766E+04  2.14432E+03 -9.73275E+03 -2.66660E+04  2.07817E+04 -3.20326E+04
  3.91290E+04 -7.47556E+03  3.34825E+04  2.25164E+04  1.90062E+04  4.46926E+04 -9.62898E+03  4.92329E+04
 -3.00370E+04  3.32887E+04 -4.00683E+04  9.24339E+03 -4.05595E+04 -1.53170E+04 -2.27816E+04 -3.75007E+04
  6.72637E+03 -3.60371E+04  3.08101E+04 -1.55698E+04  2.78534E+04  1.08451E+04  2.61243E+03  1.81785E+04
 -1.50499E+04  7.68658E+03 -1.07591E+04 -7.43091E+03  6.17356E+03 -1.12397E+04  1.81112E+04  6.12199E+03
  1.26268E+04  2.23614E+04 -6.38651E+03  2.39122E+04 -2.16644E+04  1.06508E+04 -2.74295E+04 -6.31346E+03
 -1.91146E+04 -1.71771E+04 -7.46302E+03 -1.93859E+04  4.26421E+03 -1.70590E+04  1.40584E+04 -1.71982E+04
  2.42352E+04 -1.13156E+04  3.14637E+04  2.56752E+03  2.21114E+04  1.81133E+04  4.13506E+03  3.44290E+04
 -1.57191E+04  2.92506E+04 -2.58049E+04  1.02562E+04 -2.03965E+04 -9.92919E+03 -3.37093E+03 -1.45451E+04
  1.22102E+03 -4.01832E+03 -4.61193E+03  6.21273E+03 -1.42056E+04  4.16360E+03 -1.53421E+04 -6.48673E+03
 -1.07355E+04 -1.71198E+04  5.28513E+03 -2.03497E+04  1.51481E+04 -1.61515E+04  1.75724E+04 -2.33363E+03
  1.05353E+04  1.23631E+04 -9.00011E+02  1.71714E+04 -1.23562E+04  9.90790E+03 -1.72503E+04 -3.84312E+03
 -1.34307E+04 -1.64269E+04 -9.91375E+02 -2.07543E+04  1.02031E+04 -1.76904E+04  1.72459E+04 -8.57218E+03
  1.75208E+04  3.87709E+01  1.20684E+04  4.13167E+03  6.73469E+03  1.67413E+03  1.00275E+04 -7.81223E+02
  1.51000E+04  3.13973E+03  1.76426E+04  1.45538E+04  1.00837E+04  2.86431E+04 -4.33020E+03  3.04165E+04
 -1.84020E+04  2.48753E+04 -2.80531E+04  1.38875E+04 -2.93364E+04 -2.13632E+03 -2.47253E+04 -1.75101E+04
 -1.05635E+04 -2.38737E+04  8.04086E+03 -2.21157E+04  1.91200E+04 -1.27511E+04  1.76498E+04  2.93620E+03
  6.92261E+03  1.28920E+04 -9.40820E+03  1.19409E+04 -1.42415E+04  3.49815E+03 -1.18573E+04 -1.00829E+04
  1.01480E+02 -1.31415E+04  7.08986E+03 -1.04542E+04  9.04736E+03 -1.46120E+03  1.77074E+03  4.67463E+03
 -5.59616E+03  2.22216E+03 -5.59226E+03 -5.35875E+03 -1.98010E+02 -1.15995E+04  8.67430E+03 -1.26706E+04
  1.46850E+04 -5.80129E+03  1.54701E+04  3.28404E+03  1.37591E+04  1.17033E+04  6.70050E+03  1.83565E+04
 -2.75516E+03  1.95210E+04 -1.10121E+04  1.22540E+04 -1.34233E+04  3.30965E+03 -1.02918E+04 -3.53687E+03
 -5.49420E+03 -4.01741E+03 -1.46349E+03  2.02372E+03 -3.37427E+03  2.00424E+03 -5.31824E+03  4.03382E+03
 -9.79405E+03 -1.76333E+02 -1.00669E+04 -8.12758E+03 -4.26946E+03 -1.16162E+04  4.23056E+03 -1.00714E+04
  8.88820E+03 -4.05234E+03  5.01233E+03  2.09103E+03  1.54733E+03  3.31845E+03 -4.91125E+03 -2.25934E+02
 -4.85876E+03 -6.20914E+03 -3.64840E+02 -9.76654E+03  5.39694E+03 -1.04383E+04  1.17506E+04 -5.40313E+03
  1.49762E+04  1.73436E+03  1.12299E+04  9.04533E+03  1.15951E+03  1.07468E+04 -6.88903E+03  8.17262E+03
 -8.88779E+03  4.49882E+03 -4.42351E+03 -2.37237E+03  1.53398E+03 -1.41446E+03  5.32485E+03 -1.63685E+03
  5.52330E+03  5.41654E+03  1.71838E+03  7.69956E+03 -6.23468E+03  8.64232E+03 -8.86491E+03  6.04069E+02
 -6.92602E+03 -5.14000E+03 -6.60519E+02 -7.17416E+03  4.91730E+03 -4.04578E+03  4.68836E+03  2.42657E+03
  4.19546E+02  4.71701E+03 -5.18196E+03  6.75390E+03 -7.09444E+03  3.93526E+03 -5.44272E+03 -2.75466E+03
 -4.33436E+03 -8.11699E+03  2.16964E+03 -8.16410E+03  8.05714E+03 -6.95772E+03  9.92255E+03  2.03407E+03
  5.28884E+03  7.78952E+03 -7.99635E+02  8.92699E+03 -6.36690E+03  4.45091E+03 -7.50536E+03 -9.15687E+02
 -6.62373E+03 -6.64899E+03 -9.74589E+02 -7.39734E+03  3.72044E+03 -6.34107E+03  4.02991E+03 -4.59204E+03
  3.91745E+03  4.26615E+02 -6.22562E+01  1.32609E+03  1.09623E+03  1.22913E+02  1.47284E+03 -3.40232E+03
  5.60283E+03 -2.31325E+03  7.38859E+03  1.52344E+03  6.87590E+03  3.82072E+03  6.58140E+03  9.48661E+03
 -2.31159E+03  1.18658E+04 -1.05108E+04  7.56678E+03 -1.33598E+04  1.77657E+03 -1.05584E+04 -4.06778E+03
 -5.69463E+03 -8.96025E+03 -6.91314E+02 -8.33111E+03  2.06994E+03 -3.19628E+03  2.69906E+03 -2.18969E+03
  1.48423E+03 -1.68840E+03  3.62138E+03 -2.71972E+03  3.81882E+03 -2.26804E+03  4.76601E+03 -1.51482E+02
  6.35090E+03  1.44641E+03  2.28616E+03  4.22840E+03 -1.92365E+03  4.21412E+03 -5.78685E+03  3.17155E+03
 -6.77029E+03 -1.16188E+03 -3.33400E+03 -5.30991E+03  1.08423E+02 -7.26641E+03  4.08313E+03 -6.68438E+03
  7.36871E+03 -3.58715E+03  9.25427E+03  5.84404E-01  7.22732E+03  4.69752E+03  1.74755E+03  8.57284E+03
 -3.25464E+03  7.44655E+03 -3.05743E+03  2.72214E+03 -2.80709E+03 -1.63870E+03 -1.56616E+03 -1.16675E+03
 -5.01753E+02  7.41796E+02 -1.32066E+02  3.07963E+03 -2.56381E+03  6.02338E+02 -4.54229E+03 -1.04412E+03
 -1.25767E+03 -4.98412E+03  1.67069E+03 -6.28633E+03  5.36807E+03 -4.92957E+03  5.46907E+03 -2.98024E+03
  5.91022E+03  3.16767E+03  3.10424E+03  5.23752E+03 -8.12193E+02  6.00531E+03 -4.42015E+03  3.99894E+03
 -4.80052E+03  1.57176E+03 -4.64066E+03 -2.68768E+03 -6.20557E+02 -5.82894E+03  2.44789E+03 -3.40211E+03
  3.56996E+03 -1.83380E+03  2.36153E+03  8.27014E+02  4.49245E+02  3.32764E+03  4.87138E+02 -4.49304E+01
  1.77147E+03  7.95107E+02  1.22197E+03  1.31666E+03  1.03121E+03  3.24076E+03  1.79086E+03  2.03853E+03
 -1.65498E+03  3.73904E+03 -4.43114E+03  5.23442E+03 -4.41731E+03  1.17853E+03 -6.07833E+03 -1.57152E+03
 -2.37278E+03 -5.17861E+03 -2.00555E+02 -7.69759E+03  2.13244E+03 -4.57895E+03  5.13248E+03 -1.79547E+03
  2.94965E+03  1.94604E+03 -2.21627E+02  4.43005E+03 -8.53796E+02  3.40587E+03 -2.43593E+03  8.91789E+02
 -4.74195E+02 -2.79562E+03  1.36373E+03 -1.12481E+03  1.52047E+03 -1.90093E+03  1.63017E+03  8.93545E+02
 -6.71352E+02  1.12485E+03  1.35488E+03  8.15346E+02 -5.64540E+02  1.27885E+03  1.63500E+03  2.76299E+02
  3.88507E+02 -4.00578E+02  1.44415E+03  1.88665E+02  9.87092E+02  2.50808E+03 -1.13288E+02  4.12630E+03
 -2.72765E+03  1.73502E+03 -4.34036E+03  6.31977E+02 -3.46858E+03 -1.48821E+03  2.08559E+02 -1.94856E+03
  1.07708E+03 -1.14411E+03  1.43598E+03 -1.38044E+03  1.95185E+02  1.81093E+03 -6.93107E+02  8.24887E+02
 -2.91157E+03  1.40788E+03 -2.03150E+03 -1.13716E+03 -2.21739E+03 -3.81284E+03 -4.99029E+02 -2.62382E+03
  9.79317E+02 -8.49190E+02  2.02053E+03  2.13619E+02  2.62423E+03  7.13239E+02  1.52250E+03  7.75736E+02
 -2.62389E+02  7.09305E+02 -2.12178E+03 -1.49726E+03  1.08686E+03 -1.80514E+03  2.90162E+03 -1.74047E+02
  1.95295E+03  5.46989E+02  4.31149E+03  1.55560E+03  1.10526E+03  3.46692E+03 -1.65892E+03  3.92490E+03
 -3.51925E+03  5.89107E+02 -2.96540E+03  5.66082E+02 -1.55638E+03 -2.09414E+03 -4.43706E+02 -1.27344E+03
  2.70977E+03 -1.40406E+03  1.01331E+03  1.72829E+03  1.07954E+02  1.51201E+03  2.26955E+02  2.18854E+03
 -2.08481E+02  9.10867E+02 -5.36695E+02 -1.11896E+02 -1.31747E+03 -7.79919E+02  1.29273E+02  1.02872E+03
 -1.18967E+03  2.56852E+03 -3.10907E+03  5.37306E+02 -3.39423E+03 -2.24522E+02 -2.52696E+03 -1.47304E+03
 -2.48235E+03 -3.26581E+03  1.85044E+03 -4.47532E+03  1.03466E+03 -4.28670E+03  4.10732E+03 -1.08751E+03
  4.23867E+03  6.19332E+02  1.58682E+03  2.57173E+03 -1.68656E+02  2.53041E+03 -1.27503E+03  9.23836E+02
 -2.21084E+03  6.93693E+02 -1.88010E+03 -1.09475E+03  9.60114E+02  4.00384E+01 -3.88270E+02  6.74504E+01
 -2.27692E+03 -2.48602E+01 -1.58624E+03 -4.77503E+02  1.06500E+03 -1.48553E+03 -1.35710E+03 -8.15796E+02
  1.17939E+03 -4.38551E+02  1.38296E+03  5.72847E+02  2.06885E+03  7.30912E+02 -2.38905E+02  2.69469E+03
 -7.82075E+02  3.34730E+03 -2.85173E+03  2.54625E+03 -2.82553E+03 -9.66455E+02 -2.11470E+03 -1.76994E+03
 -4.47679E+02 -2.04294E+03  6.15577E+02 -2.12743E+03  1.06805E+03 -8.53742E+02  1.97894E+03  9.17266E+02
  9.24476E+02  8.07123E+02  4.86651E+02  8.05367E+02 -6.16090E+02 -5.40607E+02 -2.79415E+01 -1.50681E+02
  6.36939E+02  1.85925E+02 -9.03889E+02  1.98209E+03 -2.09013E+02  6.11174E+02  4.48459E+02  1.02301E+03
 -1.08959E+03  2.03076E+03 -7.08805E+02  6.93741E+01 -1.04777E+03 -4.89504E+02  4.60115E+02 -3.02869E+03
  1.29513E+03 -1.56139E+03  2.80518E+03 -3.37522E+02  2.16383E+03 -3.41145E+02  4.81493E+02  1.46944E+03
 -3.97466E+02  1.39191E+02 -1.14689E+02  2.62283E+03 -5.11544E+02  3.23473E+02 -1.07921E+03 -2.06577E+01
  8.64529E+01 -8.99147E+02 -5.83569E+02  6.78273E+02 -1.06332E+03  4.12011E+02 -1.20264E+03 -5.26861E+02
 -6.55432E+02 -1.02997E+02 -3.13274E+02 -1.40263E+03  1.03713E+03 -2.28161E+03  1.20176E+03 -1.61000E+03
  1.43778E+03 -6.83000E+02  4.42260E+02  5.21800E+02  1.41067E+02  2.17950E+03  3.36460E+02  1.46581E+03
