 $NMID ID='MM_0lb_SNR200_19hz_g45_20.RAW', FMTDAT='(8E13.5)'
 TRAMP=1., VOLUME=1. $END
  3.09207E+05  1.59578E+03  3.38992E+05  2.50403E+05  8.42019E+04  3.37056E+05 -1.32507E+05  2.50298E+05
 -1.89109E+05  8.24740E+04 -1.11277E+05 -3.24938E+04  1.67866E+03 -5.03962E+04  5.43273E+04 -2.55226E+02
  3.55989E+04  5.21408E+04 -1.68785E+04  7.40338E+04 -6.02018E+04  6.20439E+04 -8.28611E+04  3.03104E+04
 -7.85321E+04 -1.16772E+04 -5.56722E+04 -5.03775E+04 -1.50626E+04 -6.91016E+04  2.59417E+04 -4.47960E+04
  3.91515E+04  4.58658E+03  1.54752E+04  4.63090E+04 -3.37278E+04  4.68409E+04 -6.50062E+04 -5.90770E+02
 -5.16171E+04 -5.56916E+04 -6.81716E+03 -7.55856E+04  3.30499E+04 -5.25082E+04  4.71020E+04 -1.63263E+04
  4.18173E+04  1.25045E+04  2.98069E+04  2.53948E+04  1.53089E+04  2.71452E+04 -4.01416E+03  2.63204E+04
 -2.13398E+04  1.33179E+04 -1.93744E+04 -4.30026E+03  3.78559E+03 -7.25634E+03  2.09044E+04  1.13653E+04
  7.40419E+03  3.38998E+04 -2.97636E+04  3.35027E+04 -6.10723E+04  2.79236E+03 -5.54556E+04 -4.03818E+04
 -1.29998E+04 -6.06882E+04  3.77391E+04 -4.26174E+04  5.47959E+04 -1.19549E+03  3.14069E+04  2.94159E+04
 -6.68173E+03  3.20096E+04 -2.84781E+04  1.37854E+04 -2.71676E+04 -4.63268E+03 -1.36558E+04 -1.01490E+04
 -7.30812E+03 -1.24255E+04 -1.15831E+03 -1.67302E+04  5.35641E+03 -2.18361E+04  1.44946E+04 -1.52572E+04
  1.17867E+04  4.35360E+03 -6.93258E+03  1.17937E+04 -1.80885E+04 -1.73835E+03 -7.48321E+03 -2.86302E+04
  2.03615E+04 -4.02961E+04  4.51572E+04 -1.87738E+04  4.20169E+04  1.82841E+04  1.35880E+04  4.16936E+04
 -1.65160E+04  3.09225E+04 -2.38440E+04 -1.22941E+02 -7.77659E+03 -2.59356E+04  2.01440E+04 -3.17408E+04
  3.75702E+04 -7.13819E+03  3.02291E+04  2.34632E+04  1.62154E+04  4.20378E+04 -7.68477E+03  4.41361E+04
 -2.70931E+04  2.90311E+04 -3.71987E+04  7.53151E+03 -3.69655E+04 -1.50319E+04 -2.16355E+04 -3.43598E+04
  6.52358E+03 -3.34812E+04  2.89083E+04 -1.27093E+04  2.70184E+04  1.07752E+04  3.06444E+03  1.64035E+04
 -1.27830E+04  6.63738E+03 -9.00387E+03 -7.46094E+03  5.00492E+03 -1.05590E+04  1.65154E+04  5.45409E+03
  1.23541E+04  2.19516E+04 -6.64268E+03  2.25415E+04 -2.09452E+04  7.90492E+03 -2.41378E+04 -5.83328E+03
 -1.59324E+04 -1.61412E+04 -5.52173E+03 -1.62111E+04  3.51293E+03 -1.44607E+04  1.15061E+04 -1.36271E+04
  2.08731E+04 -1.20381E+04  2.68830E+04  1.47690E+03  2.14744E+04  1.61994E+04  4.76792E+03  3.12094E+04
 -1.66290E+04  2.76312E+04 -2.60971E+04  8.61657E+03 -1.93785E+04 -1.03205E+04 -3.98012E+03 -1.28486E+04
  2.99376E+03 -4.36991E+03 -2.39954E+03  5.41650E+03 -1.21287E+04  5.50799E+03 -1.30148E+04 -4.16347E+03
 -8.62105E+03 -1.49866E+04  3.69953E+03 -1.91144E+04  1.23289E+04 -1.31456E+04  1.54276E+04 -1.75638E+03
  9.17448E+03  1.05451E+04 -1.26906E+03  1.56721E+04 -9.07041E+03  9.38405E+03 -1.47557E+04 -3.35439E+03
 -1.15908E+04 -1.38577E+04 -6.89645E+02 -1.79894E+04  9.07907E+03 -1.51371E+04  1.61410E+04 -6.88765E+03
  1.40182E+04  7.55427E+02  1.01772E+04  3.18321E+03  5.20900E+03 -9.22834E+02  7.20083E+03 -1.33499E+03
  1.18968E+04  2.24189E+03  1.31192E+04  1.19668E+04  9.53632E+03  2.38365E+04 -3.45380E+03  2.62823E+04
 -1.47088E+04  1.85148E+04 -2.29075E+04  9.15166E+03 -2.47172E+04 -1.97420E+03 -2.01837E+04 -1.36876E+04
 -9.62235E+03 -1.89154E+04  5.95997E+03 -1.75706E+04  1.70232E+04 -1.12499E+04  1.57188E+04  3.57396E+03
  6.57373E+03  1.14532E+04 -6.52945E+03  1.05655E+04 -1.20916E+04  2.55188E+03 -1.01497E+04 -7.39379E+03
  3.41277E+02 -1.22850E+04  5.70727E+03 -8.70247E+03  7.11099E+03 -1.51885E+03  8.97091E+02  4.84582E+03
 -5.59519E+03 -5.38163E+02 -3.51926E+03 -4.36693E+03  5.97631E+02 -9.44431E+03  7.58889E+03 -9.20025E+03
  1.16801E+04 -4.14856E+03  1.16928E+04  3.47281E+03  8.77303E+03  8.18278E+03  5.22950E+03  1.23549E+04
 -1.02594E+03  1.57807E+04 -8.55135E+03  1.07483E+04 -1.15532E+04  1.65921E+03 -8.72350E+03 -1.44369E+03
 -3.68508E+03 -2.90923E+03 -4.12136E+02  1.07504E+03 -2.52348E+03  1.74149E+03 -2.20871E+03  3.80287E+03
 -7.57698E+03 -7.27744E+02 -7.35251E+03 -8.44969E+03 -2.77915E+03 -1.08601E+04  3.36739E+03 -8.65323E+03
  6.67033E+03 -2.66596E+03  4.43111E+03  1.73614E+03  1.94744E+03  3.21420E+03 -3.08035E+03  3.63801E+02
 -2.02285E+03 -5.14406E+03 -1.29685E+03 -7.01470E+03  4.62181E+03 -7.58646E+03  9.03438E+03 -4.83170E+03
  1.08515E+04  1.29339E+03  7.32044E+03  6.92802E+03  1.14766E+03  8.16270E+03 -6.36720E+03  8.34836E+03
 -6.37816E+03  2.80430E+03 -3.07281E+03 -3.86144E+02  1.23374E+03 -1.96899E+03  4.13855E+03 -1.22098E+03
  4.26186E+03  3.74443E+03  1.75292E+03  6.01469E+03 -4.20885E+03  5.81664E+03 -7.85687E+03  1.66663E+03
 -4.96788E+03 -3.58407E+03 -5.68126E+02 -6.81490E+03  2.61033E+03 -2.48735E+03  2.79756E+03  1.24086E+03
 -6.18946E+02  2.38298E+03 -4.88011E+03  4.19552E+03 -5.75541E+03  2.86232E+03 -4.29886E+03 -1.70514E+03
 -2.04900E+03 -6.06766E+03  1.41290E+03 -7.05113E+03  5.65002E+03 -3.90115E+03  5.43707E+03  9.08043E+02
  4.26693E+03  5.71876E+03  7.97389E+02  6.64667E+03 -5.00028E+03  4.69894E+03 -4.79742E+03 -3.65676E+02
 -5.96891E+03 -5.61765E+03 -7.89576E+02 -5.49952E+03  1.56839E+03 -4.04656E+03  3.36394E+03 -4.30759E+03
  3.35764E+03 -9.20314E+01 -2.36228E+02  1.06633E+03  1.61481E+03 -1.08478E+02 -2.87972E+02 -2.56143E+03
  4.23194E+03 -1.54622E+03  4.55388E+03  8.01143E+02  6.04192E+03  2.35430E+03  4.60391E+03  7.72646E+03
 -1.41395E+03  8.27479E+03 -8.26102E+03  6.68369E+03 -9.35483E+03  1.08612E+03 -6.80080E+03 -3.34715E+03
 -4.55506E+03 -5.38155E+03 -1.01845E+02 -3.99703E+03  2.23810E+03 -8.32772E+02  2.00535E+03 -1.82135E+03
  9.41842E+02 -1.03409E+03  2.07934E+03 -2.43624E+03  3.49962E+03  7.34151E+00  3.31707E+03  6.36093E+02
  3.97896E+03  2.36002E+03  6.48416E+02  3.37562E+03 -1.60298E+03  1.79844E+03 -4.08077E+03  3.13839E+03
 -5.02937E+03 -9.22588E+02 -1.94092E+03 -3.52791E+03  1.21841E+03 -4.44054E+03  3.42890E+03 -4.44752E+03
  6.14144E+03 -3.30817E+03  5.75919E+03  2.28957E+02  4.35681E+03  3.48866E+03  1.48112E+03  5.46999E+03
 -1.34085E+03  5.11746E+03 -3.92964E+03  1.19264E+03 -1.98195E+03  8.11876E+02 -2.68863E+02 -2.89194E+02
 -4.79269E+02  5.10573E+02  8.20877E+02  1.25207E+03 -1.57272E+03  2.07290E+03 -2.95200E+03  6.47426E+02
 -1.44783E+03 -3.99552E+03  3.09759E+02 -4.12961E+03  2.58064E+03 -3.85950E+03  3.12021E+03 -1.95118E+03
  4.01959E+03  1.93210E+03  2.66248E+03  3.61955E+03 -6.73391E+02  4.36774E+03 -2.80222E+03  3.49494E+03
 -3.02801E+03  3.74905E+02 -3.73951E+03 -2.52191E+03  2.90496E+02 -2.31765E+03  2.10755E+02 -8.87857E+02
  2.08129E+03 -6.63371E+02  1.20769E+03  1.49740E+03  4.09291E+02  1.78548E+03 -4.72070E+00 -1.24150E+02
  2.24582E+03  6.80087E+02  1.27560E+03  7.81234E+02  2.64183E+03  3.50316E+03  1.15288E+03  2.14065E+03
 -8.93579E+02  3.02419E+03 -2.37986E+03  3.77437E+03 -2.35089E+03  1.19349E+03 -3.52489E+03 -6.92819E+02
 -2.18868E+03 -2.70432E+03  2.53431E+03 -4.11401E+03  1.63427E+03 -1.37051E+03  3.67535E+03 -1.06366E+03
  1.75587E+03  1.46533E+03 -8.76000E+02  2.84186E+03 -1.46786E+03  9.32173E+02 -1.43157E+03  2.45856E+02
 -2.87813E+01 -1.77230E+03  6.38881E+02 -5.12875E+02  6.99610E+02 -5.21748E+02  1.27853E+02  3.28565E+02
  9.21594E+02 -3.45745E+02 -2.75989E+02 -1.06274E+03 -1.40050E+03  9.37266E+02  1.82148E+03 -3.46634E+02
  7.24006E+01 -4.14931E+02  1.42072E+03  1.17176E+02  2.31593E+02  2.38605E+03  9.52648E+01  1.81312E+03
 -1.56676E+03  1.02803E+03 -7.07647E+02  1.09178E+03 -3.03198E+03 -2.46033E+02  7.04874E+02 -5.95266E+02
  1.01773E+02 -1.09983E+03  9.98218E+01  4.72084E+02  7.17730E+02  2.04279E+03 -1.24096E+03  1.02833E+03
 -1.14044E+03  6.00532E+02 -1.65295E+03 -1.56819E+03 -1.11876E+03 -1.89046E+03  3.49774E+02 -1.07018E+03
  3.26602E+02 -5.22485E+02  1.07336E+03  8.14674E+02  1.42943E+03 -3.93783E+02 -2.60460E+02  9.58725E+02
 -3.50680E+02 -7.26718E+02 -4.08072E+02 -8.00388E+02  3.31682E+02 -1.84317E+03  1.33389E+03 -6.04308E+02
  6.32722E+02  4.89497E+02  3.10281E+03  9.81237E+02  4.87264E+02  1.74279E+03  5.75996E+02  7.14088E+02
 -8.30352E+02 -7.36288E+02 -2.08334E+03  2.90527E+02 -1.46001E+03 -2.22345E+03 -5.17566E+02 -5.99355E+02
  8.24842E+02  2.01485E+02  7.33989E+02  1.38396E+02  1.59998E+02  1.34642E+03  7.92288E+02  2.36622E+03
 -7.73475E+02 -1.36925E+02 -1.03514E+03 -9.40808E+02 -9.01882E+02  1.57048E+02 -4.49624E+02  1.10473E+03
 -2.18885E+02  5.22073E+02 -8.58700E+02  4.99249E+02 -9.38118E+02  6.68939E+02 -2.26608E+03 -6.19597E+02
 -1.95704E+02 -1.77894E+03  5.54393E+02 -1.45646E+03  1.70645E+03 -2.19315E+03  2.61647E+03 -8.45601E+02
  1.68664E+03  6.51665E+02 -1.81028E+02  1.27302E+03 -1.47941E+03  1.60384E+03 -6.59532E+02  6.66294E+02
 -1.29325E+03  1.06253E+03 -5.28289E+02 -3.42485E+02  3.05330E+02 -2.42318E+02 -2.52538E+02 -1.04971E+03
 -1.46325E+03 -3.34554E+02 -7.94717E+02 -6.60904E+02  5.53320E+02 -5.10561E+02 -7.76566E+02 -1.23991E+03
  6.19117E+02  3.91946E+02  9.93158E+02  7.20417E+02  1.34472E+03  8.60822E+01 -3.87801E+02  1.28152E+03
 -1.54826E+03  2.38020E+03 -1.39630E+03  5.10963E+02 -2.72997E+03 -2.62199E+02 -1.53437E+02 -9.16458E+02
 -1.37928E+03 -1.66284E+03 -1.80618E+02 -4.75285E+02  5.10462E+02 -1.13961E+03  5.00332E+02  5.60269E+02
  3.57963E+01  9.16860E+02 -8.47384E+02  6.95333E+02 -1.34674E+03  3.75528E+02  1.33679E+03  7.93148E+02
  2.32746E+02  1.35442E+02 -2.65305E+02  1.03903E+03  9.59204E+01 -7.12709E+02  1.78207E+02  2.64288E+02
 -9.06035E+02  4.41367E+02 -6.81080E+01 -5.65201E+01 -1.01061E+03 -3.72259E+02  6.11646E+02 -1.16761E+02
  4.53408E+02 -1.23711E+03  1.10893E+03 -2.74831E+02  4.92109E+02 -9.32713E+02  1.26441E+03  1.39403E+03
  6.19870E+02 -4.09942E+02  7.45022E+02 -1.94774E+02 -1.39663E+03  1.10759E+03  4.28918E+02  2.64042E+02
 -4.19097E+02 -5.51383E+00 -1.40509E+03  2.89757E+02  1.16663E+02 -1.63500E+02 -5.02851E+02 -4.00389E+02
 -1.31932E+03  3.48465E+02  2.19757E+02 -3.85387E+02  8.37758E+02 -1.47400E+03  1.34434E+03  7.23493E+02
  5.73363E+02 -6.24247E+01  3.62537E+02  1.00924E+03  2.28957E+02  3.44948E+02 -1.98581E+03  1.62239E+03
