 $NMID ID='MM_0lb_SNR200_14hz_g40_56.RAW', FMTDAT='(8E13.5)'
 TRAMP=1., VOLUME=1. $END
  3.10816E+05  1.16173E+03  3.36630E+05  2.50080E+05  8.45342E+04  3.37988E+05 -1.31891E+05  2.51279E+05
 -1.89414E+05  8.29827E+04 -1.11770E+05 -3.27966E+04  2.53593E+03 -5.09944E+04  5.43331E+04 -7.96257E+01
  3.46793E+04  5.17963E+04 -1.68707E+04  7.56919E+04 -6.08424E+04  6.28518E+04 -8.34595E+04  3.22582E+04
 -8.13842E+04 -1.21977E+04 -5.73420E+04 -5.01564E+04 -1.58895E+04 -6.83360E+04  2.69730E+04 -4.56929E+04
  4.02708E+04  4.24817E+03  1.65742E+04  4.80622E+04 -3.43560E+04  4.73995E+04 -6.64631E+04 -2.11095E+02
 -5.25194E+04 -5.48927E+04 -7.13604E+03 -7.70288E+04  3.40195E+04 -5.48188E+04  4.74312E+04 -1.65451E+04
  4.29065E+04  1.12221E+04  3.10200E+04  2.51558E+04  1.63691E+04  2.80661E+04 -4.22706E+03  2.63056E+04
 -2.10781E+04  1.22532E+04 -1.83471E+04 -3.97063E+03  5.11803E+03 -6.63902E+03  2.16753E+04  1.29362E+04
  7.51031E+03  3.37333E+04 -3.26331E+04  3.52489E+04 -6.37910E+04  2.52520E+03 -5.64474E+04 -4.31171E+04
 -1.25277E+04 -6.33685E+04  3.96045E+04 -4.39510E+04  5.68473E+04 -2.03719E+03  3.48135E+04  3.18896E+04
 -7.13236E+03  3.48261E+04 -2.92741E+04  1.48962E+04 -3.06521E+04 -4.95116E+03 -1.58476E+04 -9.76704E+03
 -8.32241E+03 -1.22727E+04 -1.78332E+03 -1.81407E+04  6.46160E+03 -2.21599E+04  1.59445E+04 -1.29775E+04
  1.31165E+04  4.88783E+03 -7.30638E+03  1.24594E+04 -2.21849E+04 -4.05068E+03 -7.93234E+03 -3.33442E+04
  2.30922E+04 -4.28819E+04  4.78891E+04 -2.05532E+04  4.34085E+04  1.87606E+04  1.58205E+04  4.36828E+04
 -1.64683E+04  3.29787E+04 -2.48982E+04  1.68853E+03 -9.65516E+03 -2.75678E+04  1.92972E+04 -3.38889E+04
  3.99008E+04 -7.90958E+03  3.51258E+04  2.41446E+04  1.74512E+04  4.61197E+04 -8.79418E+03  4.98157E+04
 -3.07489E+04  3.30205E+04 -4.09144E+04  9.54635E+03 -4.11770E+04 -1.58035E+04 -2.23911E+04 -3.85766E+04
  7.30376E+03 -3.76525E+04  3.09369E+04 -1.50999E+04  2.82522E+04  1.15264E+04  4.50890E+03  1.93627E+04
 -1.33199E+04  6.68241E+03 -9.11990E+03 -6.76255E+03  6.08141E+03 -9.95993E+03  1.75120E+04  5.80311E+03
  1.24049E+04  2.21215E+04 -5.96931E+03  2.47221E+04 -2.19364E+04  1.04793E+04 -2.82976E+04 -4.44058E+03
 -1.97014E+04 -1.76721E+04 -8.69811E+03 -2.03010E+04  3.87405E+03 -1.94330E+04  1.51585E+04 -1.74570E+04
  2.50158E+04 -1.15374E+04  3.00340E+04  2.69295E+03  2.20671E+04  1.85130E+04  4.10930E+03  3.57031E+04
 -1.70015E+04  2.98846E+04 -2.68906E+04  9.73163E+03 -2.07387E+04 -1.14065E+04 -4.71863E+03 -1.50435E+04
  1.59361E+03 -3.14583E+03 -3.22545E+03  7.23880E+03 -1.51515E+04  4.47505E+03 -1.42806E+04 -7.63649E+03
 -9.21349E+03 -1.85862E+04  5.04382E+03 -2.20180E+04  1.51749E+04 -1.60867E+04  1.80323E+04 -2.46514E+03
  1.02088E+04  1.33685E+04 -1.10950E+03  1.84595E+04 -1.25719E+04  1.03467E+04 -1.80301E+04 -4.21030E+03
 -1.24552E+04 -1.64581E+04 -2.21603E+03 -2.12862E+04  9.83780E+03 -1.78406E+04  1.87578E+04 -9.18860E+03
  1.76822E+04  4.01985E+02  1.28691E+04  4.97020E+03  5.85280E+03 -3.10631E+02  9.05177E+03 -1.24483E+03
  1.85180E+04  3.04819E+03  1.81792E+04  1.40841E+04  1.15525E+04  2.90490E+04 -2.56234E+03  3.33626E+04
 -1.95481E+04  2.61805E+04 -3.15400E+04  1.07161E+04 -3.07977E+04 -2.77453E+03 -2.58181E+04 -1.78700E+04
 -9.60767E+03 -2.55202E+04  9.29757E+03 -2.40052E+04  2.08643E+04 -1.38869E+04  1.74784E+04  6.13702E+03
  7.38758E+03  1.44414E+04 -8.07473E+03  1.13559E+04 -1.58503E+04  1.79703E+03 -1.24892E+04 -1.00648E+04
 -1.79384E+02 -1.45508E+04  7.66226E+03 -1.17355E+04  9.22235E+03 -2.33979E+03  2.83410E+03  6.13307E+03
 -6.07463E+03  2.08279E+03 -5.83129E+03 -5.51679E+03  1.26916E+01 -1.25935E+04  8.58075E+03 -1.37404E+04
  1.54981E+04 -6.93604E+03  1.59720E+04  2.50185E+03  1.50899E+04  1.25088E+04  7.25951E+03  1.87170E+04
 -3.27247E+03  2.04877E+04 -1.42816E+04  1.33705E+04 -1.67266E+04  4.24444E+03 -1.01789E+04 -3.16974E+03
 -4.54152E+03 -4.71230E+03 -3.38118E+02  1.80396E+03 -2.76089E+03  2.68757E+03 -5.11981E+03  4.20026E+03
 -1.00774E+04 -1.35144E+03 -1.07808E+04 -9.81677E+03 -5.03895E+03 -1.43545E+04  3.75719E+03 -1.13409E+04
  9.82355E+03 -3.94288E+03  6.23639E+03  3.11036E+03  1.57923E+03  4.52279E+03 -5.15454E+03 -6.90601E+02
 -4.81595E+03 -6.39407E+03 -1.17709E+03 -9.19745E+03  5.33956E+03 -9.85043E+03  1.35661E+04 -5.52708E+03
  1.53045E+04  5.02932E+02  1.24717E+04  8.43435E+03  4.76490E+02  1.19763E+04 -6.89852E+03  1.02507E+04
 -9.42532E+03  4.68687E+03 -5.01195E+03 -4.78502E+02  2.30444E+03 -3.21505E+03  4.78022E+03  8.77109E+01
  5.36228E+03  4.37635E+03  5.43292E+02  8.20441E+03 -6.45036E+03  8.12303E+03 -1.07456E+04  1.81367E+03
 -5.79340E+03 -5.33695E+03  1.16007E+03 -8.69708E+03  6.64263E+03 -5.07297E+03  4.79620E+03  2.22115E+03
  1.22483E+03  4.82081E+03 -4.63108E+03  6.97961E+03 -8.10460E+03  3.63117E+03 -7.94998E+03 -1.77033E+03
 -4.76129E+03 -8.51958E+03  1.77367E+03 -1.05295E+04  9.45946E+03 -6.93857E+03  1.00867E+04  2.64177E+03
  7.70565E+03  8.54520E+03 -9.09186E+02  9.95279E+03 -6.51710E+03  6.34186E+03 -6.99722E+03 -5.86715E+02
 -8.01422E+03 -6.74547E+03 -1.90948E+03 -6.24877E+03  3.56542E+03 -6.77403E+03  4.26230E+03 -3.07701E+03
  3.53211E+03  1.07739E+03  4.01938E+02  2.49909E+03 -6.29063E+01 -2.21702E+03  1.00472E+03 -4.19299E+03
  7.47196E+03 -1.48753E+03  8.43722E+03  1.03242E+03  7.30069E+03  4.56013E+03  8.08079E+03  1.16634E+04
 -1.76959E+03  1.28885E+04 -1.22987E+04  1.04608E+04 -1.62771E+04  9.77392E+02 -1.24339E+04 -5.37221E+03
 -6.35411E+03 -9.81326E+03 -1.28557E+02 -8.18393E+03  3.31383E+03 -4.08375E+03  2.70311E+03 -4.18725E+03
  9.14815E+02 -1.13025E+03  2.74248E+03 -3.26469E+03  3.79051E+03 -3.54843E+03  4.25043E+03  1.52153E+02
  5.87162E+03  2.70702E+03  2.95125E+03  4.94391E+03 -1.89213E+03  4.60373E+03 -5.55192E+03  4.98193E+03
 -7.31163E+03 -1.37319E+03 -4.20464E+03 -5.58323E+03  2.89617E+02 -8.25502E+03  4.99792E+03 -8.26498E+03
  8.20785E+03 -4.41842E+03  1.14663E+04  1.29417E+03  7.16556E+03  7.51672E+03  2.01428E+03  9.92047E+03
 -2.74437E+03  8.03287E+03 -5.79571E+03  1.88457E+03 -2.99553E+03 -1.26834E+03 -8.27892E+02 -3.10507E+02
 -9.93035E+02  2.73414E+02 -1.37094E+03  4.16857E+03 -4.20029E+03  1.95090E+03 -6.37188E+03 -1.12615E+03
 -3.21977E+03 -5.48348E+03  1.17259E+02 -6.46334E+03  4.56739E+03 -6.14857E+03  7.81004E+03 -2.05986E+03
  5.68138E+03  4.31088E+03  3.61004E+03  6.41524E+03 -2.39917E+03  8.40105E+03 -6.22185E+03  4.24428E+03
 -5.41494E+03  2.77613E+02 -6.71786E+03 -4.39006E+03 -1.13939E+03 -7.07885E+03  3.63154E+03 -4.05343E+03
  5.07544E+03 -2.17632E+03  3.90638E+03  6.60333E+02  7.61719E+02  2.52989E+03  6.80772E+02  9.25623E+02
  1.84190E+03  1.34083E+03  1.35686E+03  1.10082E+03  3.54806E+03  2.33734E+03  2.63988E+03  3.61475E+03
 -3.49759E+03  6.58750E+03 -5.62974E+03  7.33989E+03 -6.85184E+03  1.84820E+03 -7.65533E+03 -2.11465E+03
 -3.48391E+03 -7.23097E+03  9.72294E+02 -8.06303E+03  3.46511E+03 -5.51401E+03  6.08888E+03 -1.95328E+03
  5.49026E+03  1.62319E+03  1.18757E+03  4.58604E+03 -2.12328E+03  2.39868E+03 -1.45871E+03 -1.44926E+03
 -1.37253E+03 -3.68240E+03  2.92238E+03 -1.96981E+03  3.17660E+03 -1.17952E+03  1.76507E+03  7.87047E+02
  1.44338E+03  2.44253E+03  8.79780E+02  1.47897E+03  6.91597E+02  1.12124E+03  7.05128E+02 -5.99616E+02
  1.98914E+02 -1.24518E+02  5.47949E+03  5.02824E+02  6.33867E+02  5.00420E+03 -3.95174E+02  5.04410E+03
 -2.02633E+03  2.78603E+03 -4.43238E+03  2.14101E+02 -4.07584E+03 -4.55751E+01 -1.64574E+02 -1.78701E+03
  1.64441E+03 -2.42275E+03  9.87919E+02 -2.13219E+03  9.13597E+02  3.49808E+03 -1.39561E+03  2.95589E+03
 -2.71585E+03  2.51127E+03 -3.88085E+03 -1.40635E+03 -4.87715E+02 -3.97167E+03  1.80886E+03 -3.45298E+03
  1.26757E+03 -2.22195E+03  3.73596E+03  5.52076E+02  3.04291E+03  7.96093E+02  1.52656E+03  1.14487E+03
 -1.97870E+03  7.84042E+02 -2.40991E+03  3.28306E+02 -9.28342E+02 -3.63589E+03  3.16381E+03 -2.81421E+03
  3.52707E+03  2.10358E+02  5.32089E+03  1.56244E+03  1.83434E+03  4.32832E+03 -1.51002E+03  3.91006E+03
 -3.83689E+03  1.40021E+03 -3.04998E+03 -1.59558E+03 -2.03251E+03 -2.04174E+03  7.73857E+02 -1.89037E+03
  3.86966E+03 -5.93929E+00  5.91595E+02  2.67475E+03  2.09217E+02  1.99664E+03  1.42353E+03  2.46149E+03
 -1.10986E+03  1.94499E+03  3.68138E+02  8.60782E+02 -8.11084E+02 -7.19467E+02 -9.90071E+02  8.92667E+02
 -9.37969E+02  1.59055E+03 -2.71971E+03  1.63936E+03 -3.35659E+03  2.41515E+02 -5.81063E+03 -3.45860E+03
 -8.04961E+02 -4.99470E+03  9.48591E+02 -7.41815E+03  3.08938E+03 -3.77161E+03  5.37285E+03 -2.28951E+03
  5.13150E+03  7.22816E+02  3.69604E+03  4.70031E+03  2.53325E+02  3.80499E+03 -8.87614E+02  3.24765E+03
 -2.47741E+03  3.90723E+02 -1.22194E+03 -2.17739E+02 -6.00443E+02 -8.05191E+02 -4.82086E+02  6.44315E+02
 -1.79843E+03 -2.83231E+02 -1.93196E+03 -2.14333E+02 -1.40711E+03 -4.08051E+02 -5.49280E+02 -2.32807E+03
  2.28416E+03 -1.03013E+03  3.05040E+03 -3.76947E+02  2.57452E+03  2.53630E+03  8.40295E+02  3.77288E+03
 -2.31487E+03  3.85306E+03 -4.21386E+03  2.87912E+03 -5.81179E+03 -5.31207E+02 -4.48199E+03 -2.83721E+03
 -1.98146E+03 -4.46116E+03  1.23776E+03 -3.56576E+03  2.21966E+03 -2.14278E+03  1.17640E+03  3.18721E+02
  9.51891E+02 -2.14599E+02  1.38426E+03  7.58157E+02 -9.10293E+02  5.49645E+02  4.08727E+02 -1.13817E+03
  1.29875E+03 -1.08356E+02  1.07587E+03  2.54554E+01  1.09237E+03  1.21777E+03  1.95251E+02  2.13417E+03
 -1.66477E+03  1.97570E+03 -2.08545E+03  5.08322E+02 -1.38525E+03 -1.26300E+03 -7.19215E+02 -2.35274E+03
  1.01924E+03 -2.53292E+03  3.07372E+03 -5.09803E+02  2.65635E+03 -5.24034E+02  3.27099E+03  2.76445E+03
  3.29822E+02  1.92146E+03 -1.04901E+03  9.22484E+02 -9.42955E+02  1.50401E+02 -1.23904E+03 -4.25221E+02
 -1.78265E+03 -9.11833E+01 -4.27446E+02  6.29306E+02 -1.36459E+03 -8.61825E+02 -1.83616E+03 -1.66440E+03
 -2.45578E+03 -1.09362E+03 -3.25853E+02 -1.41039E+03  1.70388E+03 -3.12195E+03  2.80537E+03  9.04436E+00
  1.86632E+03  3.29329E+02  1.00985E+03  2.12564E+03 -1.18678E+03  2.66883E+03 -2.55165E+03  1.97416E+03
