 $NMID ID='MM_0lb_SNR200_12hz_g60_93.RAW', FMTDAT='(8E13.5)'
 TRAMP=1., VOLUME=1. $END
  3.08475E+05  3.01711E+02  3.35631E+05  2.51356E+05  8.45535E+04  3.38433E+05 -1.32457E+05  2.52352E+05
 -1.91299E+05  8.41147E+04 -1.13469E+05 -3.23523E+04  7.04931E+02 -5.20246E+04  5.34890E+04 -2.74145E+02
  3.55861E+04  5.32701E+04 -1.52550E+04  7.68323E+04 -6.06558E+04  6.41138E+04 -8.50203E+04  3.27245E+04
 -8.24590E+04 -1.10757E+04 -5.77581E+04 -5.19337E+04 -1.61196E+04 -6.92978E+04  2.83053E+04 -4.54771E+04
  4.22736E+04  5.19121E+03  1.80798E+04  4.86332E+04 -3.52231E+04  4.89709E+04 -6.87685E+04  6.52301E+01
 -5.43377E+04 -5.70053E+04 -7.24935E+03 -7.86393E+04  3.54813E+04 -5.72977E+04  4.97653E+04 -1.94958E+04
  4.32523E+04  1.04017E+04  3.20464E+04  2.50340E+04  1.54890E+04  2.93449E+04 -5.92610E+03  2.66606E+04
 -2.23468E+04  1.26545E+04 -1.72662E+04 -4.99119E+03  7.00858E+03 -8.06668E+03  2.19787E+04  1.42720E+04
  6.95030E+03  3.67386E+04 -3.22686E+04  3.57869E+04 -6.54293E+04  2.68599E+03 -5.82847E+04 -4.45084E+04
 -1.24927E+04 -6.58550E+04  4.00181E+04 -4.64309E+04  6.02635E+04 -2.47592E+03  3.53791E+04  3.38205E+04
 -6.06079E+03  3.84303E+04 -3.00952E+04  1.84490E+04 -3.18062E+04 -4.52356E+03 -1.78611E+04 -9.99650E+03
 -8.55405E+03 -1.55813E+04  2.59021E+02 -1.85579E+04  7.23800E+03 -2.23319E+04  1.62594E+04 -1.20173E+04
  1.12088E+04  7.26584E+03 -1.02438E+04  1.25216E+04 -2.22224E+04 -6.58144E+03 -8.77281E+03 -3.63660E+04
  2.46064E+04 -4.59141E+04  5.07612E+04 -2.21563E+04  4.62174E+04  2.04950E+04  1.67470E+04  4.62118E+04
 -1.57350E+04  3.49004E+04 -2.52151E+04  2.80380E+03 -1.02185E+04 -3.04194E+04  2.16587E+04 -3.45069E+04
  4.32385E+04 -9.52342E+03  3.89898E+04  2.52643E+04  2.17146E+04  4.84881E+04 -8.31507E+03  5.39046E+04
 -3.41904E+04  3.61929E+04 -4.39564E+04  1.09647E+04 -4.74144E+04 -1.98861E+04 -2.52774E+04 -4.02739E+04
  8.35397E+03 -4.08510E+04  3.27371E+04 -1.61880E+04  3.06218E+04  1.14228E+04  4.79132E+03  1.98791E+04
 -1.33174E+04  9.60196E+03 -1.13108E+04 -7.87147E+03  4.60241E+03 -1.07559E+04  1.73008E+04  4.89488E+03
  1.48326E+04  2.27638E+04 -5.79027E+03  2.51891E+04 -2.38981E+04  1.26662E+04 -3.03249E+04 -3.28733E+03
 -2.45568E+04 -1.97368E+04 -1.03581E+04 -2.38959E+04  4.42778E+03 -2.58952E+04  1.79681E+04 -2.11739E+04
  3.02484E+04 -1.27297E+04  3.53916E+04  4.89889E+03  2.64735E+04  2.34458E+04  3.98366E+03  3.99146E+04
 -1.85819E+04  3.13602E+04 -2.85674E+04  1.01610E+04 -2.22581E+04 -1.10609E+04 -3.95605E+03 -1.27408E+04
  1.78220E+03 -2.50404E+03 -6.01739E+03  7.59061E+03 -1.85792E+04  5.50184E+03 -1.90085E+04 -9.42463E+03
 -1.13821E+04 -2.17697E+04  7.24280E+03 -2.52173E+04  1.80848E+04 -1.72278E+04  2.17370E+04 -1.42081E+03
  1.33936E+04  1.51675E+04 -1.00579E+03  2.28841E+04 -1.62881E+04  1.29725E+04 -1.95741E+04 -4.93701E+03
 -1.66915E+04 -1.91631E+04 -2.77236E+03 -2.75697E+04  1.22057E+04 -2.11891E+04  2.16353E+04 -1.18892E+04
  2.04453E+04  8.20973E+02  1.55522E+04  3.91983E+03  8.10034E+03  1.09770E+03  1.15382E+04 -1.87971E+03
  2.05145E+04  1.05755E+03  2.38469E+04  1.70252E+04  1.56260E+04  3.42007E+04 -2.79725E+03  4.03310E+04
 -2.25206E+04  3.42723E+04 -3.72502E+04  1.63069E+04 -4.06022E+04 -3.25395E+03 -3.23260E+04 -2.19751E+04
 -1.31922E+04 -3.45952E+04  1.15288E+04 -2.89504E+04  2.56593E+04 -1.31206E+04  2.24296E+04  7.29263E+03
  7.18567E+03  1.75598E+04 -1.04055E+04  1.36598E+04 -1.77194E+04  3.82783E+03 -1.38150E+04 -1.26173E+04
 -2.72453E+02 -1.95463E+04  9.32945E+03 -1.43604E+04  1.25973E+04 -1.20714E+03  2.05225E+03  8.73787E+03
 -7.34998E+03  3.08460E+03 -7.01888E+03 -6.64732E+03 -2.40412E+03 -1.70729E+04  9.47516E+03 -1.76009E+04
  2.01220E+04 -7.81709E+03  2.35264E+04  3.52089E+03  1.96434E+04  1.60499E+04  8.56901E+03  2.61421E+04
 -5.19486E+03  2.70074E+04 -1.68953E+04  1.70618E+04 -2.07768E+04  4.45149E+03 -1.45037E+04 -5.61915E+03
 -7.18313E+03 -8.22739E+03 -2.55826E+02  4.68424E+02 -2.08753E+03  2.65191E+03 -6.15138E+03  5.24010E+03
 -1.33782E+04  2.25350E+02 -1.34314E+04 -1.10571E+04 -5.61119E+03 -1.67855E+04  6.55355E+03 -1.26648E+04
  1.22180E+04 -6.73889E+03  7.91417E+03  1.87814E+03  2.35547E+02  6.31471E+03 -6.77125E+03 -2.08275E+03
 -5.75899E+03 -8.83437E+03 -9.77823E+02 -1.33846E+04  6.40313E+03 -1.47458E+04  1.73936E+04 -7.23108E+03
  2.15998E+04  2.73951E+03  1.61818E+04  1.21514E+04  2.59588E+03  1.67981E+04 -8.45437E+03  1.38737E+04
 -9.82666E+03  3.61899E+03 -4.77835E+03 -4.00957E+03  1.10180E+03 -4.91548E+03  8.70976E+03 -1.68591E+03
  7.02306E+03  5.25245E+03  8.49745E+02  1.06023E+04 -8.39432E+03  9.94088E+03 -1.39297E+04  1.76373E+03
 -9.65138E+03 -7.35612E+03  4.18305E+02 -1.20747E+04  7.99064E+03 -5.55125E+03  8.15516E+03  2.11162E+03
  1.63829E+03  1.04828E+04 -6.95172E+03  8.91711E+03 -9.82414E+03  4.01313E+03 -1.06885E+04 -4.48316E+03
 -7.26625E+03 -1.32381E+04  1.74297E+03 -1.57722E+04  1.30144E+04 -1.01876E+04  1.30398E+04  2.14603E+03
  8.43344E+03  1.15157E+04 -1.52219E+03  1.19838E+04 -9.41025E+03  7.01061E+03 -1.05828E+04 -1.25336E+03
 -8.76049E+03 -8.20303E+03 -2.06083E+03 -9.70458E+03  5.61229E+03 -7.25217E+03  5.71763E+03 -2.46424E+03
  4.59435E+03  1.30414E+03 -1.75576E+03  1.12114E+03 -8.83688E+02 -3.60958E+03  2.38594E+03 -6.03283E+03
  9.62067E+03 -3.77690E+03  1.25511E+04  1.21113E+03  1.36987E+04  7.95202E+03  8.25226E+03  1.65477E+04
 -5.11419E+03  1.90041E+04 -1.64045E+04  1.38747E+04 -2.19682E+04  2.04392E+03 -1.72250E+04 -6.97090E+03
 -8.42335E+03 -1.46812E+04 -5.62511E+02 -1.04792E+04  4.10935E+03 -6.24493E+03  4.58866E+03 -4.06350E+03
  2.31066E+03 -1.87333E+03  4.39932E+03 -3.17316E+03  5.90355E+03 -2.52119E+03  7.38986E+03 -1.72093E+03
  7.96429E+03  5.07680E+02  4.13582E+03  8.84105E+03 -2.20821E+03  8.50209E+03 -9.42562E+03  6.58052E+03
 -1.08063E+04 -1.74809E+03 -7.45813E+03 -9.02312E+03 -1.62412E+03 -1.18151E+04  7.00059E+03 -1.29319E+04
  1.23844E+04 -6.98410E+03  1.53081E+04  2.21042E+03  1.04690E+04  1.22991E+04  1.55227E+03  1.39549E+04
 -5.75814E+03  1.21496E+04 -8.47964E+03  4.82561E+03 -4.72438E+03 -2.15293E+03 -2.51927E+03 -2.04269E+03
 -1.26398E+03  1.08668E+03 -1.82180E+03  3.43727E+03 -4.70854E+03  4.30341E+03 -7.67854E+03 -1.36124E+03
 -5.00899E+03 -6.96534E+03  1.36963E+03 -1.11310E+04  6.96475E+03 -1.17440E+04  1.04770E+04 -3.22154E+03
  1.08582E+04  5.55223E+03  5.56847E+03  9.82650E+03 -1.56673E+03  1.10534E+04 -8.26141E+03  7.95801E+03
 -9.52146E+03  3.77257E+02 -9.09600E+03 -7.50594E+03  8.17303E+01 -9.54229E+03  3.54104E+03 -6.38793E+03
  8.06693E+03 -2.17439E+03  5.15643E+03  2.55342E+03  9.85379E+02  4.30576E+03  1.24148E+03  1.46976E+03
  3.93675E+03  1.14525E+03  3.20669E+03  1.56738E+03  2.20509E+03  5.05718E+03  3.04326E+03  4.75841E+03
 -2.23230E+03  8.81797E+03 -7.79578E+03  9.02987E+03 -1.05957E+04  1.88866E+03 -1.24108E+04 -5.11225E+03
 -6.19545E+03 -1.12194E+04  1.70116E+03 -1.21221E+04  5.19931E+03 -8.83156E+03  1.02718E+04 -1.63754E+03
  6.53694E+03  3.80842E+03  1.91955E+03  7.18378E+03 -3.29926E+03  2.42177E+03 -3.85034E+03  7.40360E+02
 -1.81134E+03 -5.24789E+03  3.39935E+03 -4.59871E+03  5.33864E+03 -1.68293E+03  5.28836E+03  6.75245E+02
  1.34302E+03  2.96303E+03  6.34845E+02  1.54990E+03  3.24897E+02  5.44129E+02  5.96154E+02  2.86289E+02
  1.63287E+03 -1.09191E+03  5.29615E+03  2.24987E+03  2.69250E+03  6.90638E+03 -1.08957E+03  8.53132E+03
 -4.48108E+03  5.04299E+03 -6.18881E+03  1.36496E+03 -6.11873E+03 -2.32337E+03 -1.41997E+03 -3.68550E+03
  1.03802E+03 -3.70596E+03  2.43968E+03 -2.36963E+03  1.30706E+03  2.94629E+03 -2.00751E+03  2.59104E+03
 -2.73583E+03  1.83809E+03 -4.91620E+03 -2.99858E+03 -1.72777E+03 -5.00918E+03  6.56744E+02 -5.31419E+03
  2.96544E+03 -4.34114E+03  4.42823E+03 -1.06785E+02  2.53759E+03  1.82135E+03  2.71721E+02  3.00395E+03
 -9.55613E+02  1.27789E+03 -3.21282E+03 -2.26122E+03  1.23912E+03 -5.97574E+03  3.79735E+03 -3.53053E+03
  7.89776E+03  7.37507E+02  6.51867E+03  4.92938E+03  2.13184E+03  7.25892E+03 -2.68727E+03  7.87799E+03
 -5.07317E+03  2.89792E+03 -4.79495E+03 -6.79129E+02 -5.35239E+03 -3.75959E+03  7.60394E+02 -4.51383E+03
  3.87657E+03 -3.48692E+03  2.17033E+03  2.28925E+03  1.50428E+03  4.13350E+03 -2.05508E+03  4.67702E+03
 -2.28238E+03  3.28324E+03 -5.25553E+02  1.86516E+02 -1.37060E+02  4.86539E+02 -8.63213E+02  9.61616E+02
 -1.40063E+03  3.65770E+03 -4.89732E+03  2.97937E+03 -6.80327E+03  4.98223E+02 -6.30360E+03 -4.27014E+03
 -2.18590E+03 -8.14206E+03  2.16087E+03 -9.04252E+03  6.42855E+03 -8.62297E+03  1.00148E+04 -1.54210E+03
  8.58349E+03  1.59532E+03  5.38688E+03  5.74012E+03  2.27359E+02  6.64562E+03 -1.71572E+03  4.73676E+03
 -3.58779E+03  1.23018E+03 -2.35133E+03 -2.90114E+02 -1.51534E+03 -3.20482E+02 -1.71170E+03 -3.12878E+02
 -2.28339E+03  9.44274E+02 -1.09661E+03  8.77523E+02 -7.05257E+02 -5.60125E+02 -2.54059E+02 -2.84033E+03
  3.02298E+03 -1.35806E+03  3.13532E+03 -4.10497E+02  5.39087E+03  2.23248E+03 -3.40297E+02  4.86742E+03
 -2.82868E+03  7.37879E+03 -6.19813E+03  3.95623E+03 -8.25896E+03 -1.50126E+03 -5.88799E+03 -5.86272E+03
 -4.42489E+03 -5.28600E+03  2.07807E+03 -5.20587E+03  3.17614E+03 -2.70361E+03  2.54632E+03 -9.63879E+02
  2.00310E+03  3.56804E+03  1.73007E+02  2.75087E+03 -1.76620E+03  6.45201E+02 -2.23827E+02 -1.92321E+03
  4.03564E+02 -1.22627E+03  3.02832E+03  1.54634E+03  1.49158E+03  1.79621E+03  5.83388E+02  3.13988E+03
 -3.27461E+03  2.63281E+03 -4.82793E+03  2.52161E+02 -2.54336E+03 -2.06731E+03  3.73964E+02 -4.67216E+03
  2.57992E+03 -4.59916E+03  5.55695E+03 -2.35393E+02  5.54668E+03 -1.67718E+02  2.64823E+03  2.08185E+03
  2.12761E+03  3.73285E+03 -1.43701E+03  5.29816E+03 -3.24531E+03  2.92737E+03 -1.77829E+03 -5.68384E+02
 -2.98413E+02 -5.19271E+02 -8.32967E+02  1.37580E+02 -2.54216E+03  1.73562E+02 -3.25680E+03 -6.22091E+01
 -3.55951E+03 -1.91694E+03 -1.38412E+03 -4.45226E+03  2.74035E+03 -3.78804E+03  2.59402E+03 -1.93591E+03
  4.11894E+03  3.85421E+01  5.53653E+02  3.61000E+03 -3.10937E+02  4.58685E+03 -2.46215E+03  2.44260E+03
