 $NMID ID='MM_0lb_SNR200_7hz_g60_20.RAW', FMTDAT='(8E13.5)'
 TRAMP=1., VOLUME=1. $END
  3.10432E+05 -4.97861E+02  3.37644E+05  2.52747E+05  8.44384E+04  3.39380E+05 -1.32985E+05  2.51646E+05
 -1.91720E+05  8.32605E+04 -1.11876E+05 -3.24026E+04  8.49538E+02 -5.08455E+04  5.18729E+04 -3.70873E+02
  3.61995E+04  5.51031E+04 -1.84878E+04  7.62745E+04 -6.09107E+04  6.46081E+04 -8.40555E+04  3.47685E+04
 -8.29167E+04 -1.00113E+04 -5.92491E+04 -5.45974E+04 -1.40250E+04 -7.10700E+04  2.77843E+04 -4.82194E+04
  4.11742E+04  3.87721E+03  1.64845E+04  5.06327E+04 -3.37320E+04  4.87512E+04 -6.83981E+04  2.90366E+02
 -5.51503E+04 -5.87487E+04 -7.71213E+03 -8.08097E+04  3.62514E+04 -5.65306E+04  5.06624E+04 -2.15667E+04
  4.87872E+04  1.16612E+04  3.21204E+04  2.85457E+04  1.49526E+04  3.06907E+04 -5.82308E+03  2.64382E+04
 -2.29634E+04  1.21707E+04 -1.92690E+04 -7.58406E+03  9.76733E+03 -7.77817E+03  2.45381E+04  1.30193E+04
  6.22086E+03  3.88519E+04 -3.38891E+04  3.82821E+04 -6.67979E+04  1.59651E+03 -6.15825E+04 -4.70176E+04
 -1.23191E+04 -6.69996E+04  4.05893E+04 -4.91243E+04  6.25887E+04 -3.43388E+03  3.86965E+04  3.58923E+04
 -5.82000E+03  4.22095E+04 -3.34844E+04  2.01596E+04 -3.49953E+04 -2.43576E+03 -2.06495E+04 -1.12850E+04
 -9.25045E+03 -1.88926E+04 -1.07841E+02 -2.29988E+04  8.71609E+03 -2.46892E+04  1.60895E+04 -1.16524E+04
  7.62073E+03  6.25925E+03 -1.17824E+04  1.26907E+04 -2.34397E+04 -7.15351E+03 -9.37999E+03 -3.84594E+04
  2.55587E+04 -4.66435E+04  5.35995E+04 -2.15380E+04  5.01410E+04  2.05912E+04  1.85190E+04  4.84397E+04
 -1.86221E+04  3.69215E+04 -2.75184E+04  4.01504E+03 -1.17047E+04 -3.01708E+04  2.46189E+04 -3.87779E+04
  4.61428E+04 -1.09124E+04  4.36080E+04  2.67001E+04  2.26859E+04  5.38258E+04 -7.67580E+03  5.82567E+04
 -3.69599E+04  4.20249E+04 -4.94087E+04  9.97806E+03 -5.06488E+04 -2.11019E+04 -2.77404E+04 -4.28531E+04
  6.01068E+03 -4.46646E+04  3.74514E+04 -1.86603E+04  3.29248E+04  1.14423E+04  4.52135E+03  2.24224E+04
 -1.48698E+04  1.14436E+04 -1.07538E+04 -8.66578E+03  6.21789E+03 -1.13060E+04  1.95936E+04  5.17168E+03
  1.64718E+04  2.22673E+04 -3.62125E+03  2.64016E+04 -2.47396E+04  1.54441E+04 -3.41219E+04 -1.79509E+03
 -2.86597E+04 -1.64009E+04 -1.47902E+04 -2.74320E+04  4.71453E+03 -3.03513E+04  2.23068E+04 -2.54589E+04
  3.54567E+04 -1.25270E+04  4.15646E+04  4.59084E+03  2.96159E+04  2.74811E+04  5.28511E+03  4.48771E+04
 -2.13664E+04  3.66546E+04 -3.30916E+04  1.37314E+04 -2.28176E+04 -9.06271E+03 -4.71683E+03 -1.26467E+04
 -8.03576E+02  7.95050E+02 -7.89483E+03  9.68938E+03 -2.26214E+04  4.50205E+03 -2.19089E+04 -1.13174E+04
 -1.42164E+04 -2.62992E+04  5.46373E+03 -3.01669E+04  1.96171E+04 -2.06288E+04  2.72616E+04 -3.19164E+03
  1.69020E+04  2.07020E+04 -1.05439E+03  2.63050E+04 -1.83185E+04  1.47209E+04 -2.59397E+04 -4.64570E+03
 -1.94779E+04 -2.10103E+04 -1.79098E+03 -3.35644E+04  1.45341E+04 -2.66639E+04  2.62316E+04 -1.25668E+04
  2.46711E+04 -1.51238E+03  1.79432E+04  5.20607E+03  1.00003E+04  2.43941E+03  1.32993E+04 -7.32949E+02
  2.38157E+04  1.07770E+03  2.97470E+04  2.12373E+04  1.94182E+04  4.23013E+04 -1.05002E+03  4.97327E+04
 -2.84191E+04  4.55823E+04 -4.84209E+04  2.35997E+04 -5.09950E+04 -3.55435E+03 -4.21219E+04 -3.29080E+04
 -1.61277E+04 -4.22273E+04  1.54625E+04 -3.79625E+04  3.04001E+04 -1.65383E+04  2.90541E+04  9.12605E+03
  8.32032E+03  1.96199E+04 -1.25834E+04  1.68322E+04 -2.19346E+04  1.98449E+03 -1.78149E+04 -1.44560E+04
 -4.57901E+02 -2.28948E+04  1.11632E+04 -1.38016E+04  1.40110E+04 -2.63190E+03  4.08680E+03  9.62684E+03
 -9.20007E+03  5.55133E+03 -1.20851E+04 -8.12541E+03 -4.07372E+03 -2.24765E+04  1.40098E+04 -2.14062E+04
  2.77950E+04 -1.51509E+04  3.16567E+04  5.08299E+03  2.73301E+04  2.48562E+04  1.38484E+04  3.45541E+04
 -7.60373E+03  3.73283E+04 -2.49755E+04  2.27902E+04 -2.63623E+04  4.87869E+03 -1.75172E+04 -7.49825E+03
 -8.30625E+03 -8.82584E+03 -1.86721E+03  9.79309E+02 -3.39125E+03  4.16585E+03 -8.46797E+03  7.10687E+03
 -1.47942E+04 -2.15138E+03 -1.77365E+04 -1.30912E+04 -7.74885E+03 -2.39367E+04  6.62360E+03 -1.93728E+04
  1.50449E+04 -6.42138E+03  9.26039E+03  4.69955E+03 -1.04452E+02  8.51584E+03 -9.32919E+03 -1.96509E+03
 -9.24224E+03 -1.16677E+04  4.71175E+01 -1.87321E+04  1.11953E+04 -2.08326E+04  2.34686E+04 -1.07413E+04
  2.82631E+04  1.93373E+03  2.15352E+04  1.78659E+04  2.75016E+03  2.37035E+04 -1.13475E+04  1.84987E+04
 -1.52363E+04  3.26833E+03 -9.10294E+03 -6.34494E+03  3.79382E+03 -4.98640E+03  8.31571E+03 -9.99157E+02
  8.96596E+03  8.26026E+03  1.13065E+02  1.60249E+04 -1.21608E+04  1.45017E+04 -1.82360E+04  4.36956E+03
 -1.27244E+04 -1.00368E+04 -9.09616E+00 -1.41908E+04  1.13431E+04 -8.71461E+03  1.23820E+04  4.56587E+03
  4.79814E+03  1.25340E+04 -1.17559E+04  1.60528E+04 -1.76760E+04  9.10066E+03 -1.85193E+04 -5.63799E+03
 -1.03093E+04 -1.97866E+04  3.72444E+03 -2.32064E+04  1.86736E+04 -1.42144E+04  2.13106E+04  3.68091E+03
  1.40821E+04  1.65402E+04 -3.15831E+03  2.09593E+04 -1.46969E+04  8.85414E+03 -1.69033E+04 -1.77787E+03
 -1.12483E+04 -1.19570E+04 -1.35151E+03 -1.53326E+04  7.10735E+03 -1.04996E+04  1.07143E+04 -4.74138E+03
  4.27894E+03  1.93969E+03 -2.96124E+03  1.13402E+03 -6.73810E+02 -4.94385E+03  3.95055E+03 -1.04115E+04
  1.34416E+04 -7.53723E+03  2.04827E+04  2.81813E+03  2.01642E+04  1.37916E+04  1.13952E+04  2.68536E+04
 -7.69964E+03  3.14794E+04 -2.43945E+04  2.30738E+04 -3.09998E+04  5.53962E+03 -2.46860E+04 -1.19233E+04
 -1.44059E+04 -2.33220E+04  1.18162E+02 -1.88658E+04  6.54254E+03 -1.18932E+04  8.91612E+03 -5.18283E+03
  6.10511E+03 -4.39968E+03  3.10983E+03 -4.64437E+03  6.20834E+03 -3.91354E+03  7.89250E+03 -3.37860E+03
  1.41727E+04  3.41905E+03  9.91802E+03  1.34900E+04 -2.67167E+03  1.42560E+04 -1.48170E+04  9.97031E+03
 -2.16130E+04 -8.23356E+02 -1.18404E+04 -1.28893E+04 -3.88979E+03 -2.14180E+04  1.14036E+04 -2.31007E+04
  2.05050E+04 -1.15678E+04  2.33377E+04  4.49650E+03  1.58200E+04  1.92782E+04  1.86391E+03  2.36378E+04
 -8.90311E+03  1.66243E+04 -1.42916E+04  6.55252E+03 -9.34176E+03 -2.50494E+03 -4.16792E+03 -3.14056E+03
 -4.07620E+03  1.88515E+02 -3.46648E+03  3.36090E+03 -6.33019E+03  4.12071E+03 -1.31377E+04 -8.71335E+02
 -9.21293E+03 -1.33980E+04 -1.41063E+03 -1.94777E+04  1.17859E+04 -1.81553E+04  2.20850E+04 -5.12523E+03
  1.83957E+04  1.07486E+04  1.02535E+04  1.64778E+04 -2.33458E+03  2.05503E+04 -1.46495E+04  1.29363E+04
 -1.87102E+04  1.98321E+02 -1.45484E+04 -1.24794E+04 -2.85804E+03 -1.76719E+04  8.21982E+03 -1.06227E+04
  1.51992E+04 -3.90428E+03  7.87740E+03  3.78870E+03  2.68948E+03  5.25871E+03  1.28764E+03  3.76060E+03
  4.23429E+03 -8.76197E+01  4.83771E+03  3.84475E+03  7.69355E+03  6.23189E+03  6.78961E+03  1.29409E+04
 -3.03783E+03  1.67015E+04 -1.39550E+04  1.49104E+04 -2.34646E+04  4.62964E+03 -2.26170E+04 -9.23563E+03
 -1.09879E+04 -2.00143E+04  1.14138E+03 -2.23198E+04  1.18697E+04 -1.37250E+04  2.01512E+04 -1.91709E+03
  1.24186E+04  7.59170E+03  2.99896E+03  1.24260E+04 -5.58839E+03  7.17977E+03 -9.07461E+03 -2.40509E+03
 -2.34804E+03 -1.02438E+04  3.66791E+03 -1.09200E+04  7.58059E+03 -5.42498E+03  9.19097E+03  1.42653E+03
  3.80458E+03  3.83727E+03  2.03507E+03  4.82020E+03  4.22477E+01  1.45938E+03  1.85414E+03  1.71016E+02
  4.17033E+03 -2.55176E+03  9.51073E+03  2.39827E+03  5.37147E+03  9.62764E+03 -2.61345E+03  1.47565E+04
 -8.90347E+03  1.02373E+04 -1.42984E+04  3.89721E+03 -1.08171E+04 -4.26309E+03 -5.19014E+03 -1.01019E+04
 -1.92540E+02 -8.06007E+03  5.26378E+03 -2.45165E+03  5.62727E+03  5.67227E+03 -2.13735E+03  6.20029E+03
 -9.18825E+03  4.61205E+03 -1.12169E+04 -4.72439E+03 -5.03643E+03 -1.23596E+04  1.55725E+03 -1.31249E+04
  8.14788E+03 -6.29392E+03  6.81649E+03 -2.53893E+01  5.66447E+03  3.83798E+03 -7.95981E+01  7.55417E+03
 -4.04935E+03  2.08953E+03 -6.85108E+03 -4.99844E+03  2.77868E+03 -8.56992E+03  1.12325E+04 -7.89373E+03
  1.24688E+04  1.22116E+01  1.25778E+04  1.08007E+04  3.35237E+03  1.65108E+04 -4.92871E+03  1.53046E+04
 -1.07351E+04  7.60657E+03 -1.30984E+04 -1.72009E+03 -4.99884E+03 -8.12149E+03  1.96781E+03 -1.03339E+04
  9.34947E+03 -5.36649E+03  9.01648E+03  4.87269E+03  3.45399E+03  8.54215E+03 -2.18036E+03  7.16069E+03
 -3.55674E+03  5.14972E+03 -3.02287E+03  2.18541E+03 -1.97869E+03 -2.52502E+01 -2.39346E+03  2.90518E+03
 -3.20210E+03  5.98603E+03 -9.35867E+03  5.46203E+03 -1.44628E+04  8.64427E+02 -1.58901E+04 -1.07125E+04
 -1.05810E+04 -1.81447E+04  5.19438E+03 -2.19701E+04  1.59365E+04 -1.65111E+04  2.15863E+04 -5.33420E+03
  2.04767E+04  4.56808E+03  1.51002E+04  1.36015E+04  1.51623E+03  1.40780E+04 -6.17006E+03  1.12853E+04
 -7.75175E+03  4.70194E+03 -5.34560E+03 -1.57024E+03 -1.92268E+03 -2.36189E+03 -2.63701E+03 -4.16391E+01
 -2.09616E+03  7.62035E+02 -3.48705E+03 -9.85111E+00 -2.26584E+03 -2.15390E+03  3.80642E+02 -5.35273E+03
  4.76238E+03 -2.95119E+03  1.00807E+04  1.83112E+01  1.04622E+04  8.80293E+03  4.03236E+03  1.64689E+04
 -7.35933E+03  1.70782E+04 -1.55144E+04  1.32098E+04 -2.04619E+04 -2.18391E+03 -1.38650E+04 -1.19768E+04
 -4.77168E+03 -1.59072E+04  5.04021E+03 -1.66937E+04  9.70761E+03 -7.86481E+03  9.94737E+03  1.51393E+03
  7.76749E+03  6.54853E+03  3.32944E+02  4.94734E+03 -1.98498E+03  1.12328E+00  1.55910E+03 -5.01484E+03
  7.27478E+03 -3.51895E+03  6.92426E+03  1.95346E+03  5.64387E+03  6.36381E+03 -4.78625E+02  8.70941E+03
 -6.85176E+03  7.63562E+03 -9.67711E+03  1.17368E+03 -1.10646E+04 -7.21686E+03 -2.44215E+03 -1.36140E+04
  8.58043E+03 -1.07819E+04  1.27042E+04 -4.31427E+03  1.26494E+04  2.69256E+03  7.66501E+03  1.14970E+04
  4.12548E+02  1.14954E+04 -3.64577E+03  7.38399E+03 -7.18639E+03  5.39066E+03 -6.54225E+03  1.37158E+03
 -2.53190E+03  2.16549E+03 -2.97425E+03  2.86275E+03 -6.91350E+03  2.75290E+03 -7.08405E+03  7.38588E+02
 -7.70485E+03 -6.87223E+03 -2.54154E+03 -1.13093E+04  5.01999E+03 -8.97045E+03  8.52804E+03 -5.68800E+03
  9.53702E+03 -2.39420E+02  8.57591E+03  7.21158E+03 -1.13498E+03  1.10036E+04 -8.79155E+03  6.19431E+03
