 $NMID ID='MM_0lb_SNR200_8hz_g60_55.RAW', FMTDAT='(8E13.5)'
 TRAMP=1., VOLUME=1. $END
  3.11456E+05  1.65436E+03  3.38719E+05  2.51192E+05  8.46009E+04  3.38861E+05 -1.33597E+05  2.51277E+05
 -1.89899E+05  8.41535E+04 -1.13810E+05 -3.33106E+04  2.36433E+02 -5.06862E+04  5.46981E+04 -1.62277E+02
  3.63212E+04  5.44767E+04 -1.67639E+04  7.60491E+04 -6.29396E+04  6.41967E+04 -8.69562E+04  3.51822E+04
 -8.30867E+04 -1.17858E+04 -5.89494E+04 -5.31839E+04 -1.44040E+04 -7.16461E+04  2.81518E+04 -4.60315E+04
  4.22846E+04  3.79612E+03  1.55728E+04  4.77680E+04 -3.59645E+04  5.02525E+04 -6.76789E+04  4.73887E+02
 -5.68548E+04 -5.82609E+04 -7.35344E+03 -7.95781E+04  3.58283E+04 -5.70458E+04  5.12939E+04 -1.98983E+04
  4.54691E+04  1.32447E+04  3.18638E+04  2.67631E+04  1.67685E+04  3.02641E+04 -6.66293E+03  2.70856E+04
 -2.18427E+04  1.28673E+04 -1.86250E+04 -6.83597E+03  8.46411E+03 -6.88718E+03  2.41504E+04  1.64229E+04
  7.40314E+03  3.77657E+04 -3.53552E+04  3.75540E+04 -6.76545E+04  3.41173E+03 -6.28933E+04 -4.48249E+04
 -1.20480E+04 -6.74917E+04  4.32254E+04 -4.76681E+04  6.19233E+04 -1.88249E+03  3.90458E+04  3.58869E+04
 -4.59139E+03  4.16120E+04 -3.26343E+04  2.06031E+04 -3.47489E+04 -2.77951E+03 -2.06525E+04 -1.27558E+04
 -9.37247E+03 -1.50838E+04 -5.53140E+02 -2.06359E+04  8.72046E+03 -2.37248E+04  1.72855E+04 -1.30934E+04
  1.06276E+04  7.08591E+03 -1.23229E+04  1.28449E+04 -2.39077E+04 -6.35576E+03 -7.02900E+03 -3.79431E+04
  2.66563E+04 -4.72985E+04  5.39502E+04 -2.24922E+04  4.97853E+04  2.11502E+04  1.69377E+04  4.97513E+04
 -1.71716E+04  3.59626E+04 -3.07959E+04  1.59064E+03 -1.27137E+04 -3.10382E+04  2.31117E+04 -3.72223E+04
  4.69580E+04 -1.27332E+04  4.28796E+04  2.62469E+04  2.21173E+04  5.35898E+04 -8.45929E+03  5.85446E+04
 -3.67110E+04  4.01101E+04 -4.86942E+04  1.08311E+04 -5.00100E+04 -1.90328E+04 -2.78510E+04 -4.28092E+04
  7.08344E+03 -4.25558E+04  3.39769E+04 -1.77557E+04  3.20463E+04  1.16623E+04  5.16213E+03  2.21411E+04
 -1.29230E+04  1.06307E+04 -1.03263E+04 -7.02852E+03  4.48558E+03 -1.02170E+04  2.08670E+04  3.62319E+03
  1.43554E+04  2.33572E+04 -7.51958E+03  3.02331E+04 -2.57320E+04  1.57476E+04 -3.39858E+04  8.08026E+01
 -2.55515E+04 -1.90082E+04 -1.20572E+04 -2.68313E+04  6.46762E+03 -2.89363E+04  2.12885E+04 -2.45620E+04
  3.47762E+04 -1.38264E+04  3.98692E+04  7.09511E+03  2.88644E+04  2.65914E+04  7.08159E+03  4.36140E+04
 -2.01555E+04  3.45333E+04 -3.20200E+04  1.31193E+04 -2.35384E+04 -9.37390E+03 -3.93160E+03 -1.23620E+04
  7.67873E+02 -1.63024E+03 -9.50848E+03  1.04853E+04 -2.13397E+04  4.96423E+03 -2.25264E+04 -1.23094E+04
 -1.37838E+04 -2.42263E+04  5.34160E+03 -2.95551E+04  1.84873E+04 -2.13088E+04  2.44818E+04 -1.24536E+03
  1.44365E+04  1.83099E+04 -1.54451E+03  2.57077E+04 -2.02948E+04  1.54458E+04 -2.48256E+04 -5.50925E+03
 -1.80811E+04 -2.14782E+04 -9.88634E+02 -2.92487E+04  1.36528E+04 -2.53355E+04  2.63350E+04 -1.39064E+04
  2.27913E+04 -4.50278E+02  1.76867E+04  3.95966E+03  9.35673E+03  2.83455E+03  1.43899E+04  4.03398E+02
  2.41025E+04  3.60022E+03  2.68961E+04  1.91510E+04  1.86282E+04  3.96879E+04 -3.26327E+03  4.82772E+04
 -2.65632E+04  4.20194E+04 -4.72867E+04  2.18020E+04 -4.87965E+04 -5.68119E+03 -3.97333E+04 -2.99110E+04
 -1.44928E+04 -4.26184E+04  1.49911E+04 -3.59289E+04  3.03863E+04 -1.61535E+04  2.54341E+04  7.08918E+03
  8.96481E+03  2.39424E+04 -1.19757E+04  1.56646E+04 -2.15280E+04  1.77478E+03 -1.83956E+04 -1.50358E+04
  1.23998E+02 -2.08830E+04  9.99508E+03 -1.35058E+04  1.27613E+04 -9.30692E+02  3.92862E+03  9.97540E+03
 -8.97670E+03  5.90966E+03 -1.04185E+04 -6.60251E+03 -2.44047E+03 -2.08173E+04  1.24630E+04 -2.15465E+04
  2.49647E+04 -1.15161E+04  3.06476E+04  3.19720E+03  2.55978E+04  1.99385E+04  1.20380E+04  3.19765E+04
 -5.05389E+03  3.41706E+04 -2.17723E+04  2.17051E+04 -2.73261E+04  5.19917E+03 -1.81686E+04 -7.67551E+03
 -7.26527E+03 -8.82054E+03 -1.50616E+02  1.74030E+03 -3.90527E+03  5.02623E+03 -9.85875E+03  6.37452E+03
 -1.46643E+04 -3.11096E+03 -2.02479E+04 -1.38672E+04 -6.04305E+03 -2.20887E+04  4.87989E+03 -1.79802E+04
  1.47626E+04 -5.74387E+03  1.03959E+04  3.12246E+03 -2.86065E+02  6.99269E+03 -9.25369E+03  6.05547E+02
 -9.52585E+03 -1.03427E+04 -2.39382E+03 -1.55561E+04  1.12431E+04 -1.96003E+04  2.23767E+04 -9.46713E+03
  2.70391E+04  3.14331E+03  1.96898E+04  1.46923E+04  4.30799E+03  2.15536E+04 -9.36097E+03  1.64841E+04
 -1.34972E+04  5.73036E+03 -8.07304E+03 -3.82114E+03  3.22069E+03 -3.99454E+03  9.65671E+03 -1.39310E+03
  7.48534E+03  7.93902E+03  1.73427E+03  1.28444E+04 -9.03654E+03  1.37201E+04 -1.73301E+04  7.54872E+02
 -1.14445E+04 -9.34098E+03 -4.18948E+02 -1.66883E+04  1.09964E+04 -7.70407E+03  1.23458E+04  4.31133E+03
  3.45837E+03  1.31049E+04 -8.09673E+03  1.44296E+04 -1.49619E+04  6.05464E+03 -1.64016E+04 -7.62015E+03
 -9.64635E+03 -1.76922E+04  3.36817E+03 -2.07760E+04  1.89786E+04 -1.18072E+04  1.92364E+04  3.41125E+03
  1.10575E+04  1.55933E+04 -7.74213E+02  1.84727E+04 -1.33046E+04  1.02235E+04 -1.54612E+04 -2.35532E+03
 -1.07874E+04 -1.10983E+04 -1.61222E+03 -1.24175E+04  6.91829E+03 -9.16099E+03  8.16369E+03 -4.92755E+03
  4.68481E+03  1.96860E+03 -3.02379E+02  4.87568E+02 -1.60453E+03 -5.17812E+03  4.36076E+03 -9.93294E+03
  1.56243E+04 -6.80789E+03  2.10608E+04  3.06592E+03  1.93690E+04  1.37698E+04  1.29152E+04  2.50402E+04
 -5.41378E+03  2.80555E+04 -2.31209E+04  2.21815E+04 -2.90759E+04  4.04439E+03 -2.62449E+04 -1.08908E+04
 -1.21213E+04 -2.06521E+04  3.10529E+02 -1.67398E+04  3.77985E+03 -9.77712E+03  5.50072E+03 -5.25213E+03
  5.30902E+03 -4.31142E+03  5.23698E+03 -3.17341E+03  7.99657E+03 -4.46576E+03  9.66093E+03 -6.29084E+02
  1.15021E+04  8.23760E+02  7.90652E+03  1.08890E+04 -2.13098E+03  1.36089E+04 -1.46017E+04  8.03344E+03
 -1.90146E+04 -4.50541E+02 -1.13870E+04 -1.26584E+04 -2.35268E+03 -1.93081E+04  1.00029E+04 -1.94744E+04
  2.00247E+04 -1.00462E+04  2.29034E+04  2.83356E+03  1.67146E+04  1.80351E+04  1.92678E+03  1.97956E+04
 -9.53553E+03  1.76210E+04 -1.35626E+04  7.08362E+03 -7.95389E+03 -3.96767E+03 -3.18069E+03 -4.09830E+03
 -3.87085E+03 -1.47814E+03 -3.01838E+03  5.40824E+03 -7.88467E+03  3.18084E+03 -1.40595E+04 -8.48051E+02
 -7.86091E+03 -1.10679E+04 -7.07519E+02 -1.82683E+04  9.78576E+03 -1.69252E+04  1.67008E+04 -5.13554E+03
  1.60511E+04  8.68995E+03  8.53404E+03  1.56403E+04 -2.99099E+03  1.69710E+04 -1.32090E+04  1.06675E+04
 -1.56486E+04 -8.32717E+02 -1.29179E+04 -1.07110E+04 -5.28955E+02 -1.46929E+04  6.14349E+03 -1.21788E+04
  1.16871E+04 -3.28355E+03  7.31547E+03  4.32834E+03  2.51663E+03  5.49786E+03  3.64536E+03  3.36557E+03
  3.90681E+03  1.29268E+03  5.31782E+03  1.51802E+03  4.47083E+03  6.76034E+03  5.16547E+03  1.19851E+04
 -2.07733E+03  1.33029E+04 -1.26702E+04  1.35936E+04 -1.97647E+04  3.17496E+03 -2.01511E+04 -7.83563E+03
 -1.05854E+04 -2.02069E+04  2.26831E+03 -1.91757E+04  1.16829E+04 -1.36096E+04  1.46154E+04 -4.30266E+03
  1.17607E+04  5.41264E+03  2.77552E+03  1.11694E+04 -6.02736E+03  7.54125E+03 -7.23925E+03 -4.40614E+02
 -3.64194E+03 -8.26043E+03  3.13698E+03 -7.47325E+03  8.43647E+03 -3.40539E+03  7.27245E+03  3.86613E+03
  5.22854E+03  4.23722E+03  1.43248E+03  3.63670E+03 -3.09623E+03  3.75897E+03  2.65053E+03 -6.63942E+02
  3.54678E+03 -1.64921E+03  8.29228E+03  3.47389E+03  4.62259E+03  8.01921E+03 -2.86926E+03  1.48906E+04
 -1.09812E+04  9.96981E+03 -1.16641E+04  1.42134E+03 -1.03911E+04 -3.95144E+03 -5.64121E+03 -5.64829E+03
  1.24808E+03 -6.26157E+03  5.44144E+03 -4.54625E+03  4.16467E+03  3.60929E+03 -1.84853E+03  6.49105E+03
 -6.46222E+03  4.92676E+03 -1.02647E+04 -4.22733E+03 -6.20610E+03 -9.83608E+03  4.95663E+02 -1.03955E+04
  8.20917E+03 -7.32167E+03  7.70499E+03 -3.81843E+03  8.60057E+03  2.80247E+03  5.80198E+01  5.28391E+03
 -3.81892E+03  2.07562E+03 -4.85475E+03 -3.78951E+03  2.16877E+03 -9.95486E+03  8.65599E+03 -6.38683E+03
  1.21056E+04  1.55324E+03  1.09112E+04  8.00828E+03  4.59069E+03  1.47652E+04 -2.93082E+03  1.24032E+04
 -1.00000E+04  5.91642E+03 -1.04383E+04 -8.93008E+02 -5.69212E+03 -7.45504E+03  2.68166E+03 -6.50520E+03
  8.01663E+03 -4.95925E+03  5.77196E+03  3.05152E+03  1.60220E+03  8.08539E+03 -1.51299E+02  6.51248E+03
 -2.91256E+03  4.11758E+03 -3.57500E+03  1.65440E+02 -1.02629E+03  1.51739E+03 -1.61796E+03  9.22706E+02
 -5.40842E+03  4.55976E+03 -7.62697E+03  3.47679E+03 -1.30827E+04  4.62353E+02 -1.38870E+04 -9.10520E+03
 -6.75836E+03 -1.71439E+04  3.29777E+03 -1.89248E+04  1.20736E+04 -1.49524E+04  1.89887E+04 -6.54360E+03
  1.62889E+04  4.70692E+03  1.03758E+04  1.25102E+04  8.51145E+02  1.28540E+04 -4.54038E+03  9.85633E+03
 -7.83732E+03  4.20527E+03 -5.06951E+03 -8.57824E+02 -5.90437E+02 -7.40235E+02 -9.16026E+02  1.94664E+03
 -8.40772E+02  7.75622E+02 -4.09006E+03  3.99125E+01 -1.88447E+03 -2.89677E+03 -3.97871E+02 -4.85001E+03
  3.99972E+03 -4.60260E+03  1.04651E+04  3.80526E+02  8.64864E+03  8.00187E+03  1.82411E+03  1.30976E+04
 -5.81732E+03  1.18705E+04 -1.46551E+04  9.06305E+03 -1.64752E+04 -8.43713E+02 -1.11679E+04 -1.04913E+04
 -4.06517E+03 -1.42414E+04  2.79826E+03 -1.31575E+04  1.04523E+04 -7.44259E+03  8.62851E+03 -1.56374E+03
  3.16338E+03  3.64523E+03 -1.10288E+03  3.52612E+03 -2.66382E+03 -1.16817E+03 -1.43813E+03 -5.05919E+03
  2.35078E+03 -2.74658E+03  5.63630E+03  9.15108E+02  2.19953E+03  5.72459E+03  5.02922E+02  6.72415E+03
 -5.85304E+03  7.27112E+03 -9.95188E+03  6.53862E+02 -8.85274E+03 -4.92246E+03 -1.17818E+03 -1.10163E+04
  6.82604E+03 -1.09529E+04  1.01201E+04 -4.53926E+03  1.02527E+04  3.19627E+03  5.37151E+03  8.61877E+03
  1.93675E+03  9.34657E+03 -2.29949E+03  7.89500E+03 -6.14161E+03  4.41532E+03 -6.28856E+03 -2.33520E+02
 -2.82850E+03 -1.58741E+03 -3.70659E+03  1.98221E+02 -5.00286E+03  2.33173E+03 -7.08268E+03 -2.38101E+03
 -6.33874E+03 -4.17151E+03 -1.16893E+03 -8.57961E+03  5.88762E+03 -9.08335E+03  7.78144E+03 -3.83457E+03
  9.92361E+03  2.05204E+03  5.29638E+03  9.04950E+03  1.16348E+03  9.69717E+03 -8.20853E+03  7.66286E+03
