 $NMID ID='MM_0lb_SNR200_15hz_g60_36.RAW', FMTDAT='(8E13.5)'
 TRAMP=1., VOLUME=1. $END
  3.09554E+05  8.33660E+02  3.37914E+05  2.51207E+05  8.44026E+04  3.38329E+05 -1.32484E+05  2.51583E+05
 -1.90237E+05  8.27472E+04 -1.11549E+05 -3.23725E+04  1.69434E+03 -5.07715E+04  5.34310E+04 -2.72579E+01
  3.54661E+04  5.26221E+04 -1.68234E+04  7.46398E+04 -5.99158E+04  6.29486E+04 -8.49309E+04  3.30906E+04
 -8.23893E+04 -1.21415E+04 -5.73929E+04 -5.17514E+04 -1.43458E+04 -6.87238E+04  2.78785E+04 -4.52275E+04
  4.01026E+04  3.53239E+03  1.60817E+04  4.82491E+04 -3.40535E+04  4.80798E+04 -6.74678E+04 -1.28904E+03
 -5.29230E+04 -5.60932E+04 -7.03865E+03 -7.75585E+04  3.42573E+04 -5.52670E+04  4.86203E+04 -1.83726E+04
  4.35056E+04  1.12360E+04  3.19515E+04  2.58093E+04  1.68157E+04  2.87853E+04 -4.37109E+03  2.72276E+04
 -2.28272E+04  1.31925E+04 -1.76646E+04 -5.30805E+03  4.80841E+03 -7.66791E+03  2.25930E+04  1.15906E+04
  7.67724E+03  3.52266E+04 -3.20166E+04  3.58638E+04 -6.51876E+04  2.50456E+03 -5.75501E+04 -4.24982E+04
 -1.26141E+04 -6.35411E+04  4.00773E+04 -4.50234E+04  5.87833E+04 -1.56697E+03  3.47633E+04  3.35107E+04
 -5.54377E+03  3.59863E+04 -3.04803E+04  1.66305E+04 -3.04942E+04 -4.70691E+03 -1.77930E+04 -1.03236E+04
 -8.72074E+03 -1.31998E+04 -1.82720E+03 -1.77427E+04  7.50174E+03 -2.37719E+04  1.50216E+04 -1.39287E+04
  1.26774E+04  4.63189E+03 -8.39966E+03  1.35559E+04 -2.18473E+04 -5.76316E+03 -6.05401E+03 -3.51335E+04
  2.41723E+04 -4.34159E+04  4.86322E+04 -2.04288E+04  4.51354E+04  1.96375E+04  1.50225E+04  4.56607E+04
 -1.57469E+04  3.40708E+04 -2.61238E+04  2.68417E+03 -1.04523E+04 -2.76575E+04  2.03978E+04 -3.43086E+04
  4.21365E+04 -9.78529E+03  3.61622E+04  2.18891E+04  1.94761E+04  4.75358E+04 -8.14143E+03  5.01949E+04
 -3.13812E+04  3.42037E+04 -4.14851E+04  9.21668E+03 -4.29717E+04 -1.61644E+04 -2.36176E+04 -3.89036E+04
  7.19101E+03 -3.89243E+04  3.14041E+04 -1.44496E+04  2.93873E+04  1.04121E+04  5.26478E+03  1.96997E+04
 -1.36654E+04  8.87933E+03 -1.04453E+04 -8.43911E+03  5.61195E+03 -9.53331E+03  1.87526E+04  6.22148E+03
  1.48991E+04  2.19485E+04 -7.79523E+03  2.38859E+04 -2.27425E+04  1.23224E+04 -2.99100E+04 -4.23579E+03
 -2.22337E+04 -1.65621E+04 -8.78452E+03 -2.22423E+04  5.65292E+03 -1.85855E+04  1.55100E+04 -1.86692E+04
  2.63946E+04 -1.23905E+04  3.38803E+04  3.93756E+03  2.45661E+04  2.06022E+04  4.40580E+03  3.68987E+04
 -1.79515E+04  3.06987E+04 -2.85149E+04  1.14593E+04 -2.13813E+04 -9.93467E+03 -4.07899E+03 -1.29718E+04
  1.48505E+03 -2.42969E+03 -4.60807E+03  7.07691E+03 -1.66399E+04  4.91554E+03 -1.73273E+04 -6.50604E+03
 -1.02436E+04 -2.02327E+04  5.43998E+03 -2.29312E+04  1.63484E+04 -1.75724E+04  1.91797E+04 -1.47922E+03
  1.20876E+04  1.25573E+04 -1.67531E+03  1.93113E+04 -1.42181E+04  1.14383E+04 -1.86043E+04 -5.25384E+03
 -1.51851E+04 -1.69769E+04 -1.25612E+03 -2.40606E+04  1.08804E+04 -1.83425E+04  1.98539E+04 -1.02031E+04
  1.74904E+04 -3.50629E+02  1.30148E+04  4.78176E+03  7.50799E+03  1.30701E+03  9.93751E+03 -1.02106E+03
  1.68370E+04  2.61915E+03  2.00627E+04  1.44732E+04  1.47266E+04  3.11754E+04 -3.07669E+03  3.62483E+04
 -1.99228E+04  2.85857E+04 -3.33670E+04  1.48858E+04 -3.31975E+04 -2.41239E+03 -2.82625E+04 -1.96788E+04
 -1.08588E+04 -2.97603E+04  8.96619E+03 -2.65785E+04  2.21359E+04 -1.27594E+04  1.91451E+04  5.64308E+03
  6.27568E+03  1.50664E+04 -9.18734E+03  1.29435E+04 -1.72199E+04  1.86606E+03 -1.16711E+04 -9.39609E+03
 -4.99177E+02 -1.59603E+04  7.41698E+03 -1.15700E+04  1.05532E+04 -2.16867E+03  2.64224E+03  5.23804E+03
 -6.22661E+03  2.20155E+03 -6.27899E+03 -5.80364E+03  2.16821E+02 -1.46724E+04  1.08302E+04 -1.55329E+04
  1.71823E+04 -6.73364E+03  1.75425E+04  1.53150E+03  1.48875E+04  1.41039E+04  6.55013E+03  2.10820E+04
 -3.79785E+03  2.20104E+04 -1.50111E+04  1.40219E+04 -1.70789E+04  4.00071E+03 -1.20105E+04 -2.91051E+03
 -4.80279E+03 -4.54794E+03 -8.36392E+02  1.86607E+03 -3.32721E+03  2.64671E+03 -4.92452E+03  5.34096E+03
 -1.07216E+04 -3.10486E+02 -1.20641E+04 -9.59193E+03 -2.05047E+03 -1.49867E+04  6.00072E+03 -1.21756E+04
  1.00644E+04 -6.39503E+03  5.51191E+03  2.29060E+03  3.82286E+02  5.31524E+03 -4.60197E+03  1.90118E+02
 -4.18721E+03 -6.88825E+03 -1.89640E+03 -9.67048E+03  5.04902E+03 -1.19120E+04  1.38935E+04 -5.56955E+03
  1.67339E+04  8.57859E+02  1.15204E+04  9.28580E+03  3.86966E+03  1.37460E+04 -7.12307E+03  1.10445E+04
 -9.72130E+03  3.71278E+03 -5.21629E+03 -5.11404E+02  1.43068E+03 -3.38426E+03  6.24453E+03 -1.47484E+03
  6.10968E+03  5.14463E+03  1.11848E+03  9.12700E+03 -6.60589E+03  7.89582E+03 -1.04024E+04  1.99509E+03
 -7.91911E+03 -5.37194E+03  2.00420E+03 -9.93209E+03  5.53121E+03 -5.29442E+03  5.52431E+03  9.36005E+02
 -1.74522E+02  6.40787E+03 -5.84218E+03  6.99394E+03 -8.51679E+03  3.47352E+03 -8.84945E+03 -2.84174E+03
 -4.69843E+03 -1.04030E+04  2.62649E+03 -1.21978E+04  9.71547E+03 -6.45972E+03  9.61062E+03  2.07667E+03
  5.23486E+03  8.54599E+03 -1.40273E+03  1.08873E+04 -7.92378E+03  5.15266E+03 -8.52132E+03 -3.25439E+02
 -7.72985E+03 -6.90652E+03 -2.42465E+03 -7.64482E+03  5.39413E+03 -6.94693E+03  4.83087E+03 -3.12917E+03
  3.87309E+03 -2.70802E+02 -4.53649E+02  9.75046E+02  2.62538E+02 -9.11331E+02 -3.36382E+02 -2.87097E+03
  5.95500E+03 -2.13460E+03  8.44989E+03  1.07307E+03  8.90895E+03  6.28001E+03  6.67600E+03  1.25817E+04
 -2.82095E+03  1.39991E+04 -1.18796E+04  9.57795E+03 -1.59099E+04  2.59097E+03 -1.26741E+04 -5.43517E+03
 -5.79196E+03 -1.02179E+04 -1.88784E+02 -8.36711E+03  3.13711E+03 -2.77394E+03  2.19514E+03 -4.01016E+03
  2.12728E+03 -3.60628E+03  2.98869E+03 -3.56443E+03  5.04476E+03 -1.04394E+03  5.86889E+03 -2.77589E+02
  6.61311E+03  1.33646E+03  3.55188E+03  5.32561E+03 -8.92630E+00  5.85008E+03 -6.20814E+03  4.68082E+03
 -8.18613E+03 -9.11623E+02 -4.43355E+03 -4.73198E+03  1.00180E+03 -9.24468E+03  3.88982E+03 -9.44779E+03
  8.38698E+03 -5.94665E+03  1.12244E+04  1.41916E+03  7.50776E+03  8.34059E+03  1.32272E+03  9.68816E+03
 -3.70384E+03  9.27954E+03 -5.48585E+03  1.88696E+03 -3.83970E+03 -2.80908E+02 -2.56228E+03 -1.36367E+03
 -5.61120E+02  2.64834E+02 -1.16391E+03  2.83598E+03 -3.41501E+03  2.19048E+03 -6.27972E+03 -6.65852E+02
 -3.47692E+03 -6.07175E+03  1.10436E+03 -8.21528E+03  5.08638E+03 -7.31594E+03  7.34655E+03 -1.88482E+03
  7.44318E+03  3.17190E+03  3.14055E+03  7.39882E+03 -2.21062E+03  8.56559E+03 -4.51237E+03  3.54815E+03
 -8.42864E+03  4.84958E+02 -5.78089E+03 -4.17510E+03  4.72986E+01 -6.41594E+03  2.37584E+03 -4.37903E+03
  5.52917E+03 -1.17039E+03  2.71341E+03  1.65100E+02  9.48923E+02  2.78533E+03  1.65665E+03  1.98683E+03
  2.49087E+03  9.57879E+02  2.87895E+03  1.95941E+03  2.58642E+03  5.60942E+03  2.89185E+03  3.61789E+03
 -2.27665E+03  6.31836E+03 -4.67100E+03  7.11657E+03 -7.43571E+03  1.43974E+03 -7.27068E+03 -2.50667E+03
 -3.19303E+03 -6.63209E+03  1.20215E+03 -8.01947E+03  4.60373E+03 -5.04702E+03  4.67916E+03 -2.25481E+03
  5.45874E+03  3.67952E+03  1.19405E+03  4.19194E+03 -1.56695E+03  2.08251E+03 -2.50129E+03  6.26938E+02
 -1.06424E+03 -3.29302E+03  2.19489E+03 -2.87343E+03  2.56001E+03 -1.78758E+02  2.79884E+03  5.51536E+02
  8.56187E+02  8.45360E+02  1.08225E+02  4.14893E+02 -1.10770E+03  1.12898E+03  2.37781E+03 -1.13853E+03
  3.19283E+02 -1.18909E+02  2.31289E+03  1.42240E+03  8.17542E+02  4.11660E+03 -1.93129E+02  5.37024E+03
 -2.62215E+03  1.63877E+03 -4.70569E+03  8.86487E+02 -4.18741E+03 -6.57418E+02  6.98768E+01 -3.25445E+03
  1.77481E+03 -3.94018E+03  1.75289E+03 -1.03055E+03  5.68633E+00  2.04385E+03 -1.59154E+03  1.82459E+03
 -2.84320E+03  2.92351E+03 -1.66880E+03 -9.83742E+02 -2.07348E+03 -4.85194E+03  1.76685E+03 -3.85229E+03
  1.02242E+03 -2.65518E+03  1.73339E+03  9.90872E+02  2.70274E+03  2.94116E+02  1.35495E+03  2.26756E+03
 -1.83653E+02  7.10625E+02 -1.89833E+03  4.56107E+02  2.95598E+02 -2.97959E+03  2.63012E+03 -1.69583E+03
  3.19992E+03 -6.00563E+02  4.45858E+03  1.71987E+03  1.99112E+03  4.26728E+03 -2.07859E+03  3.15563E+03
 -3.25869E+03  1.48456E+03 -3.00385E+03 -7.55530E+02 -1.50837E+03 -2.97622E+03 -4.80642E+02 -2.10482E+03
  2.28699E+03  2.32625E+02  3.12386E+03  1.70011E+03  1.72717E+03  3.48202E+03 -1.02981E+02  1.79889E+03
 -1.25624E+03  9.90450E+02 -8.65901E+02 -1.26825E+02  6.37645E+02  1.43268E+03 -1.48292E+03 -2.37718E+01
 -1.48151E+03  1.24056E+03 -2.31557E+03  2.25745E+02 -4.40711E+03 -3.90285E+02 -4.43064E+03 -2.45982E+03
 -3.45507E+03 -4.33693E+03  4.13462E+02 -6.71887E+03  2.56607E+03 -3.98277E+03  4.86332E+03 -1.71500E+03
  4.21358E+03 -5.62142E+02  2.57432E+03  2.53617E+03 -7.99341E+02  2.88595E+03 -1.01271E+03  3.02777E+03
 -8.47947E+02  1.13523E+03 -1.77126E+03  4.77302E+02 -5.59839E+02  3.81510E+02 -4.14813E+02  4.21333E+02
 -4.92910E+02 -8.97911E+01 -1.25599E+03 -4.70978E+02  1.17194E+03 -4.43116E+02  2.92418E+02 -1.07666E+03
  1.53259E+03 -1.01914E+03  9.65259E+02  6.81672E+02  2.34560E+03  1.56122E+03 -5.19692E+02  2.01327E+03
 -1.75827E+03  3.42221E+03 -4.33718E+03  2.51069E+03 -3.32875E+03 -1.24549E+03 -2.14386E+03 -3.75405E+03
 -1.77768E+03 -2.95828E+03  6.30023E+02 -4.07676E+03  1.70441E+03 -6.86384E+02  2.43543E+03  9.09804E+01
  1.55819E+03  1.25268E+03  2.16126E+03  1.66631E+03 -3.96012E+02  9.55651E+01 -3.45628E+02  3.61139E+02
  5.52058E+02  4.58516E+02 -1.05684E+02  1.35134E+02  1.67935E+03  1.36123E+03 -4.31526E+02  1.27508E+03
 -2.45114E+03  4.83794E+02 -1.31863E+03 -2.18184E+02 -2.19557E+03 -1.89474E+03 -7.29787E+02 -2.27580E+03
  2.60777E+03 -2.02928E+03  2.93687E+03  6.23189E+01  2.85292E+03 -5.55304E+02  2.14372E+02  1.35951E+03
  6.56225E+01  8.95099E+02 -1.09482E+03  1.42094E+03 -9.75692E+02  9.61431E+02 -5.35839E+02  1.65096E+02
  6.35780E+02  1.67636E+03 -9.34406E+02 -9.15928E+02 -3.01863E+03  3.56125E+02 -6.09182E+02 -8.74510E+02
 -1.77798E+03 -3.21427E+02  6.50020E+02 -2.53385E+03  6.64726E+02 -3.00601E+03  1.04461E+03  2.29739E+02
  2.23958E+03  6.91300E+02  7.83339E+02  4.75514E+02  7.97389E+02  1.75035E+03 -1.35441E+03  1.86565E+03
