 $NMID ID='MM_0lb_SNR200_8hz_g45_72.RAW', FMTDAT='(8E13.5)'
 TRAMP=1., VOLUME=1. $END
  3.09761E+05  6.15175E+02  3.37814E+05  2.53764E+05  8.24829E+04  3.39085E+05 -1.33572E+05  2.51347E+05
 -1.90649E+05  8.46889E+04 -1.12519E+05 -3.23637E+04 -3.24770E+02 -5.15779E+04  5.29649E+04 -1.14945E+03
  3.67841E+04  5.18836E+04 -1.62312E+04  7.50288E+04 -6.08530E+04  6.35726E+04 -8.39234E+04  3.39580E+04
 -8.14318E+04 -1.09980E+04 -5.82161E+04 -5.27770E+04 -1.36976E+04 -7.01924E+04  2.87874E+04 -4.70458E+04
  4.23213E+04  3.76595E+03  1.61814E+04  4.95058E+04 -3.57046E+04  4.96963E+04 -6.79553E+04  7.24483E+02
 -5.54524E+04 -5.82828E+04 -8.54454E+03 -7.91796E+04  3.50940E+04 -5.66294E+04  4.93310E+04 -1.74884E+04
  4.51926E+04  9.98222E+03  3.21088E+04  2.55448E+04  1.67182E+04  2.96203E+04 -4.90058E+03  2.86961E+04
 -2.17084E+04  1.14466E+04 -2.01228E+04 -5.75717E+03  6.35124E+03 -6.72972E+03  2.43077E+04  1.31838E+04
  8.66106E+03  3.70034E+04 -3.50248E+04  3.88526E+04 -6.52683E+04  2.37807E+03 -5.86059E+04 -4.46676E+04
 -1.19479E+04 -6.44969E+04  4.15500E+04 -4.78056E+04  6.05575E+04 -2.54576E+03  3.91211E+04  3.45600E+04
 -4.13679E+03  3.99555E+04 -3.28671E+04  1.93987E+04 -3.33422E+04 -3.53888E+03 -1.92272E+04 -1.21832E+04
 -9.42334E+03 -1.50189E+04 -1.62979E+03 -2.14313E+04  7.85365E+03 -2.45397E+04  1.74863E+04 -1.17600E+04
  1.12717E+04  6.13177E+03 -1.13981E+04  1.15782E+04 -2.38169E+04 -7.56285E+03 -8.50146E+03 -3.94862E+04
  2.69771E+04 -4.67954E+04  5.33401E+04 -2.08739E+04  4.98115E+04  1.98547E+04  1.69797E+04  4.58282E+04
 -1.59444E+04  3.55347E+04 -2.76365E+04  3.08237E+03 -1.33349E+04 -2.79722E+04  2.10758E+04 -3.68339E+04
  4.45565E+04 -1.35717E+04  4.08163E+04  2.59272E+04  2.01757E+04  5.25165E+04 -9.32916E+03  5.76808E+04
 -3.30962E+04  3.84305E+04 -4.80337E+04  1.08428E+04 -4.84088E+04 -1.91489E+04 -2.75046E+04 -4.21696E+04
  7.15171E+03 -4.20499E+04  3.43476E+04 -1.64030E+04  3.33817E+04  1.13234E+04  4.72112E+03  2.11946E+04
 -1.37100E+04  9.68711E+03 -1.05791E+04 -8.45523E+03  6.22173E+03 -1.10646E+04  1.89870E+04  4.54734E+03
  1.57846E+04  2.26978E+04 -6.69754E+03  2.68014E+04 -2.47393E+04  1.46490E+04 -3.24118E+04 -2.52584E+03
 -2.58251E+04 -1.82217E+04 -1.31569E+04 -2.64116E+04  6.13914E+03 -2.55875E+04  1.98691E+04 -2.49728E+04
  3.21269E+04 -1.24703E+04  3.88145E+04  4.49055E+03  3.01397E+04  2.43791E+04  4.88062E+03  4.23933E+04
 -2.03765E+04  3.44167E+04 -3.14429E+04  1.18512E+04 -2.43346E+04 -9.54328E+03 -5.57981E+03 -1.25636E+04
  6.20652E+02 -2.05799E+03 -7.75336E+03  8.67994E+03 -1.99475E+04  4.54638E+03 -2.05403E+04 -9.42353E+03
 -1.16542E+04 -2.44086E+04  5.96215E+03 -2.84662E+04  1.85797E+04 -2.05534E+04  2.35431E+04 -2.09071E+03
  1.48494E+04  1.67103E+04 -1.57647E+03  2.46703E+04 -1.64200E+04  1.47993E+04 -2.27348E+04 -5.37795E+03
 -1.71410E+04 -2.24774E+04 -2.88754E+03 -2.92122E+04  1.29438E+04 -2.44570E+04  2.27322E+04 -1.29853E+04
  2.34350E+04  1.04018E+02  1.83873E+04  5.10395E+03  1.05899E+04  9.66885E+02  1.36308E+04 -3.85335E+03
  2.15460E+04  3.61700E+03  2.68481E+04  1.66189E+04  1.73170E+04  3.83614E+04 -1.67867E+03  4.60077E+04
 -2.51036E+04  3.87092E+04 -4.07152E+04  2.04556E+04 -4.47217E+04 -3.78084E+03 -3.80108E+04 -2.57836E+04
 -1.46014E+04 -3.87946E+04  1.40695E+04 -3.28478E+04  2.88218E+04 -1.62615E+04  2.52954E+04  8.78185E+03
  9.43198E+03  1.91821E+04 -1.29089E+04  1.48208E+04 -1.94687E+04  2.09380E+03 -1.56077E+04 -1.23257E+04
 -4.10139E+02 -1.88873E+04  1.06910E+04 -1.45808E+04  1.48165E+04 -2.59267E+02  3.93408E+03  9.75388E+03
 -8.38739E+03  4.39228E+03 -9.19107E+03 -7.97131E+03 -2.83626E+03 -1.97001E+04  1.19740E+04 -2.00462E+04
  2.45046E+04 -1.14315E+04  2.74020E+04  2.85536E+03  2.50021E+04  1.95924E+04  1.23225E+04  2.81887E+04
 -7.02205E+03  3.24349E+04 -1.99079E+04  2.02110E+04 -2.29556E+04  3.84116E+03 -1.62671E+04 -7.60902E+03
 -5.35495E+03 -6.91692E+03  1.34372E+03  2.28344E+03 -4.58689E+03  1.51062E+03 -7.19071E+03  6.23708E+03
 -1.49309E+04 -8.09261E+02 -1.52052E+04 -1.27686E+04 -7.31443E+03 -1.91205E+04  6.59447E+03 -1.69716E+04
  1.27574E+04 -7.15574E+03  8.56114E+03  4.21778E+03 -1.12803E+03  6.70086E+03 -9.33908E+03 -7.05514E+02
 -7.21119E+03 -9.88211E+03 -2.89590E+03 -1.56446E+04  9.55277E+03 -1.80570E+04  2.15409E+04 -8.97054E+03
  2.42830E+04  2.46306E+03  1.80744E+04  1.52188E+04  3.00761E+03  2.24984E+04 -9.13848E+03  1.74974E+04
 -1.42520E+04  5.85879E+03 -8.05064E+03 -3.22257E+03  4.13617E+03 -2.70783E+03  8.95533E+03 -2.46712E+02
  7.39623E+03  7.74701E+03  3.19599E+02  1.44764E+04 -1.01561E+04  1.29500E+04 -1.63267E+04  1.87213E+03
 -9.63962E+03 -8.51194E+03 -1.11910E+03 -1.48952E+04  9.16044E+03 -6.54879E+03  9.36533E+03  3.17588E+03
  3.12057E+03  1.04118E+04 -9.24343E+03  1.26415E+04 -1.42908E+04  5.37170E+03 -1.52300E+04 -4.93533E+03
 -6.85837E+03 -1.56645E+04  4.12390E+03 -1.93598E+04  1.57984E+04 -1.21648E+04  1.65435E+04  4.33344E+03
  1.12529E+04  1.44090E+04 -7.97842E+02  1.75163E+04 -1.17689E+04  8.92198E+03 -1.25481E+04 -2.60137E+03
 -1.09194E+04 -1.16696E+04 -2.55458E+03 -1.16345E+04  5.59315E+03 -1.15745E+04  9.02071E+03 -2.38729E+03
  5.70221E+03  2.69044E+03 -1.17754E+03  1.56053E+03 -5.31513E+01 -4.13727E+03  2.72423E+03 -8.21971E+03
  1.32517E+04 -5.89258E+03  1.64840E+04  2.27697E+03  1.82684E+04  1.23715E+04  1.07386E+04  2.11632E+04
 -4.28427E+03  2.42173E+04 -2.02505E+04  1.79396E+04 -2.77907E+04  4.01942E+03 -2.03578E+04 -1.19081E+04
 -1.00911E+04 -1.88031E+04 -9.30542E+02 -1.76941E+04  4.79021E+03 -8.29795E+03  4.96095E+03 -5.85170E+03
  2.13821E+03 -2.07498E+03  4.13036E+03 -4.30705E+03  4.69217E+03 -3.80658E+03  7.89256E+03 -8.81987E+02
  1.08996E+04  2.43704E+03  7.11058E+03  1.19350E+04 -1.84135E+03  1.26345E+04 -1.27437E+04  1.04625E+04
 -1.50460E+04 -3.47374E+03 -1.02118E+04 -9.24197E+03 -4.18877E+02 -1.67009E+04  1.03095E+04 -1.64582E+04
  1.66684E+04 -8.60471E+03  2.21546E+04  3.56915E+03  1.53372E+04  1.58824E+04  2.80999E+03  2.08694E+04
 -7.12311E+03  1.57837E+04 -1.27771E+04  5.39891E+03 -7.75915E+03 -2.12608E+03 -1.83418E+03 -1.94745E+03
 -2.41162E+03 -1.27477E+03 -3.99792E+03  4.15163E+03 -7.05540E+03  2.43095E+03 -1.01365E+04 -1.85757E+03
 -7.93944E+03 -1.11378E+04  1.51338E+02 -1.40657E+04  8.33616E+03 -1.63169E+04  1.64536E+04 -4.92828E+03
  1.48068E+04  7.84206E+03  5.49975E+03  1.37383E+04 -2.11134E+03  1.68046E+04 -1.14325E+04  1.00704E+04
 -1.48619E+04  8.04485E+02 -1.15779E+04 -7.18187E+03 -1.62135E+03 -1.40789E+04  8.50594E+03 -1.09638E+04
  9.57267E+03 -2.86643E+03  7.23192E+03  2.25309E+03  3.61864E+03  4.80264E+03  1.91265E+03  2.64421E+03
  2.90386E+03  2.04241E+03  3.01864E+03  2.68272E+03  4.17080E+03  6.91081E+03  5.66622E+03  9.87805E+03
 -2.49293E+03  1.39270E+04 -1.17279E+04  1.25651E+04 -1.71670E+04  2.50217E+03 -1.63966E+04 -5.83488E+03
 -9.88661E+03 -1.74482E+04  1.29041E+03 -1.77123E+04  1.00467E+04 -1.01073E+04  1.48485E+04 -3.09361E+03
  9.36228E+03  5.09611E+03  2.10938E+03  9.37254E+03 -4.07589E+03  7.29689E+03 -7.51227E+03 -1.63879E+01
 -3.65771E+03 -7.41031E+03  4.94087E+03 -7.93384E+03  6.21973E+03 -4.63837E+03  6.69556E+03  8.21399E+02
  5.82251E+03  3.57466E+03  1.00857E+03  1.87413E+03 -1.42378E+03  4.32743E+03  1.76933E+03 -1.12471E+03
  1.97955E+03 -1.89495E+03  6.11513E+03  2.46887E+03  5.07354E+03  1.00936E+04 -2.49171E+03  1.21550E+04
 -7.06171E+03  8.57687E+03 -9.63065E+03  1.35038E+03 -8.67521E+03 -4.91904E+03 -3.78113E+03 -6.80847E+03
  1.75577E+03 -6.28326E+03  4.75327E+03 -2.68696E+03  4.83781E+03  3.02887E+03  8.90901E+01  7.12794E+03
 -7.70515E+03  2.40711E+03 -8.18807E+03 -4.16607E+03 -5.10101E+03 -8.23479E+03  1.28388E+03 -9.64964E+03
  3.60118E+03 -4.71364E+03  5.95299E+03 -3.56237E+03  5.15176E+03  2.97350E+03  3.40729E+02  5.59103E+03
 -3.37761E+03  2.17163E+03 -5.37759E+03 -2.99792E+03  1.00567E+03 -8.06153E+03  9.36891E+03 -4.84858E+03
  1.02226E+04  4.07780E+02  1.07261E+04  7.83890E+03  2.67651E+03  1.22838E+04 -4.34286E+03  1.09522E+04
 -8.80526E+03  5.00675E+03 -9.77061E+03 -2.47600E+03 -4.47361E+03 -6.36578E+03  1.59281E+02 -6.08090E+03
  7.82239E+03 -4.06297E+03  6.19742E+03  2.52865E+03  2.18363E+03  6.03397E+03 -1.08693E+03  5.59999E+03
 -2.48065E+03  2.84288E+03 -2.39926E+03  1.43524E+03 -1.12637E+03  3.27492E+02 -1.23256E+03  3.44364E+03
 -2.50558E+03  3.73919E+03 -7.38084E+03  5.09234E+03 -1.25741E+04 -8.94688E+02 -1.27223E+04 -7.00263E+03
 -5.32874E+03 -1.53594E+04  2.55651E+03 -1.72083E+04  1.21932E+04 -1.35258E+04  1.61585E+04 -5.47942E+03
  1.38696E+04  3.26015E+03  9.32998E+03  9.34646E+03 -3.60084E+02  1.21829E+04 -5.12322E+03  8.97660E+03
 -8.34912E+03  4.50728E+03 -5.65451E+03 -3.00163E+03 -2.00512E+03  8.92360E+02 -7.87724E+02 -4.94251E+02
 -2.11582E+03 -3.68370E+02 -2.04317E+03  6.11998E+02 -8.51381E+02 -2.91481E+03  3.15331E+02 -4.62753E+03
  5.26648E+03 -4.16913E+03  7.53632E+03 -1.33776E+03  9.56845E+03  7.13773E+03  2.26119E+03  1.10725E+04
 -6.18114E+03  1.29139E+04 -1.45795E+04  7.12332E+03 -1.47949E+04  6.91490E+02 -1.05738E+04 -9.32590E+03
 -4.56759E+03 -1.20437E+04  3.52013E+03 -1.21936E+04  1.09048E+04 -5.21247E+03  7.11170E+03 -1.23027E+03
  5.43078E+03  5.94191E+03  4.93389E+02  4.13842E+03 -2.40084E+03 -1.14532E+03 -3.47186E+02 -1.76039E+03
  4.92153E+03 -1.69814E+03  5.92425E+03  1.70172E+03  3.40129E+03  5.89438E+03  1.41502E+03  7.31223E+03
 -6.73763E+03  5.50333E+03 -7.89619E+03  3.12087E+02 -6.89154E+03 -5.59365E+03 -3.98282E+02 -1.16236E+04
  6.10048E+03 -9.88103E+03  9.75961E+03 -2.15882E+03  1.00501E+04  3.50996E+03  6.67582E+03  7.09370E+03
  2.15228E+03  8.69313E+03 -3.46397E+03  3.77737E+03 -5.73129E+03  4.56869E+03 -5.47466E+03  4.12579E+02
 -2.25417E+03  6.03565E+02 -2.68763E+03  1.46307E+03 -5.49050E+03  2.12572E+03 -7.09653E+03 -1.52328E+03
 -7.47462E+03 -3.84394E+03 -1.56451E+03 -9.16616E+03  4.79380E+03 -8.52154E+03  7.98653E+03 -5.13887E+03
  9.39501E+03  1.48488E+03  4.82475E+03  5.51655E+03  7.95242E+02  6.71134E+03 -7.12992E+03  4.40864E+03
