 $NMID ID='MM_0lb_SNR200_7hz_g45_48.RAW', FMTDAT='(8E13.5)'
 TRAMP=1., VOLUME=1. $END
  3.10280E+05  2.46415E+03  3.38608E+05  2.50967E+05  8.63114E+04  3.41053E+05 -1.33980E+05  2.52023E+05
 -1.90979E+05  8.48370E+04 -1.12538E+05 -3.35190E+04  8.93868E+01 -5.00658E+04  5.43377E+04 -2.46735E+03
  3.71378E+04  5.21836E+04 -1.72418E+04  7.59494E+04 -5.99030E+04  6.51449E+04 -8.48891E+04  3.19237E+04
 -8.18726E+04 -1.17836E+04 -5.96220E+04 -5.17404E+04 -1.54165E+04 -7.24330E+04  2.77155E+04 -4.72337E+04
  3.79803E+04  2.46251E+03  1.53992E+04  4.80774E+04 -3.48626E+04  4.95313E+04 -6.71212E+04 -4.17490E+02
 -5.56274E+04 -5.92045E+04 -6.55772E+03 -7.85950E+04  3.52799E+04 -5.69962E+04  5.04911E+04 -1.85669E+04
  4.67080E+04  1.12008E+04  3.27851E+04  2.76872E+04  1.67753E+04  2.94374E+04 -6.69503E+03  2.62960E+04
 -2.35455E+04  1.15520E+04 -1.97193E+04 -7.00158E+03  6.72924E+03 -8.79296E+03  2.26523E+04  1.48656E+04
  6.25254E+03  3.92351E+04 -3.35760E+04  3.78747E+04 -6.59828E+04  1.60005E+03 -6.11142E+04 -4.55710E+04
 -1.18392E+04 -6.78138E+04  4.36259E+04 -4.82475E+04  6.27491E+04 -1.53556E+03  3.74244E+04  3.53797E+04
 -5.94030E+03  4.23606E+04 -3.36932E+04  1.89406E+04 -3.36229E+04 -3.85611E+03 -2.01346E+04 -1.19587E+04
 -1.01795E+04 -1.94504E+04 -3.75357E+02 -2.20670E+04  9.69415E+03 -2.36344E+04  1.49851E+04 -1.36212E+04
  1.08488E+04  7.16132E+03 -1.21062E+04  1.21668E+04 -2.39728E+04 -6.99368E+03 -1.02586E+04 -3.85366E+04
  2.49869E+04 -4.86751E+04  5.31612E+04 -2.07968E+04  5.18664E+04  2.25882E+04  1.72549E+04  4.91941E+04
 -1.73427E+04  3.56755E+04 -2.69060E+04  3.23583E+03 -1.33811E+04 -3.10836E+04  2.18734E+04 -3.73855E+04
  4.49550E+04 -1.24134E+04  4.10928E+04  2.62799E+04  2.24362E+04  5.24684E+04 -7.59548E+03  5.89052E+04
 -3.68744E+04  4.11269E+04 -4.98398E+04  1.13852E+04 -4.86328E+04 -1.94768E+04 -2.56429E+04 -4.26184E+04
  7.93523E+03 -4.30424E+04  3.56807E+04 -1.80306E+04  3.42934E+04  1.16974E+04  4.76507E+03  2.03020E+04
 -1.54702E+04  8.90949E+03 -1.18953E+04 -6.93833E+03  4.46487E+03 -1.01969E+04  1.86213E+04  5.57757E+03
  1.75800E+04  2.34503E+04 -5.69308E+03  2.81100E+04 -2.39066E+04  1.41935E+04 -3.41717E+04 -2.54299E+03
 -2.67658E+04 -1.79749E+04 -1.33471E+04 -2.68091E+04  5.79508E+03 -2.83878E+04  2.07626E+04 -2.34397E+04
  3.48020E+04 -1.42029E+04  3.88956E+04  4.62360E+03  2.82240E+04  2.75288E+04  3.65633E+03  4.33364E+04
 -1.86236E+04  3.36146E+04 -2.94578E+04  1.08937E+04 -2.39847E+04 -1.22092E+04 -4.67702E+03 -1.37196E+04
  1.98095E+03  1.22602E+03 -6.86122E+03  9.39320E+03 -2.20053E+04  6.13498E+03 -2.18255E+04 -1.17877E+04
 -1.26115E+04 -2.48669E+04  3.80343E+03 -2.80937E+04  2.00279E+04 -2.09960E+04  2.45586E+04 -1.70180E+03
  1.56759E+04  1.63189E+04 -1.75090E+03  2.45711E+04 -1.96464E+04  1.37971E+04 -2.55856E+04 -4.79619E+03
 -1.71390E+04 -2.27031E+04 -2.35713E+03 -2.90975E+04  1.29438E+04 -2.59005E+04  2.36334E+04 -1.29569E+04
  2.20889E+04 -9.29994E+02  1.64285E+04  5.09109E+03  1.16303E+04  1.98517E+03  1.36275E+04 -2.59230E+03
  2.51557E+04  3.12575E+03  2.66056E+04  1.99660E+04  1.77506E+04  3.99364E+04 -3.33190E+03  4.94648E+04
 -2.73553E+04  4.14833E+04 -4.56371E+04  2.14234E+04 -4.89030E+04 -1.44764E+03 -4.03072E+04 -2.97725E+04
 -1.51559E+04 -4.08990E+04  1.55108E+04 -3.50343E+04  3.04140E+04 -1.65432E+04  2.66618E+04  9.23847E+03
  7.62054E+03  1.90451E+04 -1.44652E+04  1.62442E+04 -2.25959E+04  3.70535E+03 -1.62206E+04 -1.46165E+04
 -5.19822E+02 -2.05494E+04  1.21230E+04 -1.38150E+04  1.33699E+04 -2.97514E+03  3.53527E+03  1.08941E+04
 -1.17779E+04  2.37163E+03 -1.25802E+04 -7.17220E+03 -2.75643E+03 -1.81792E+04  1.27483E+04 -2.16317E+04
  2.63523E+04 -1.29107E+04  2.92918E+04  2.38223E+03  2.37998E+04  2.03390E+04  1.09395E+04  3.10360E+04
 -6.18744E+03  3.50497E+04 -2.33452E+04  2.08956E+04 -2.55913E+04  3.40515E+03 -1.60086E+04 -5.71327E+03
 -7.94506E+03 -9.87060E+03 -1.15691E+02  6.94643E+02 -2.47515E+03  5.51661E+03 -1.03818E+04  5.46915E+03
 -1.69094E+04 -8.15292E+02 -1.65800E+04 -1.39713E+04 -7.67114E+03 -2.06925E+04  7.86892E+03 -1.68371E+04
  1.46753E+04 -8.37486E+03  9.89800E+03  5.55159E+03 -4.10157E+02  5.73202E+03 -7.67534E+03 -2.25563E+03
 -8.61233E+03 -1.04266E+04 -2.00441E+03 -1.79155E+04  9.13010E+03 -1.74249E+04  2.28595E+04 -9.48717E+03
  2.68659E+04  2.76673E+03  1.87728E+04  1.58301E+04  5.49137E+03  2.01364E+04 -1.05285E+04  1.72829E+04
 -1.32486E+04  4.96137E+03 -6.48272E+03 -4.25022E+03  3.12023E+03 -3.46838E+03  8.68389E+03 -7.31334E+02
  8.05620E+03  9.42569E+03  1.38979E+03  1.32627E+04 -7.79158E+03  1.27139E+04 -1.66925E+04  1.97880E+03
 -1.19796E+04 -1.05804E+04  1.02601E+03 -1.49978E+04  1.03931E+04 -7.20073E+03  1.09300E+04  2.70497E+03
  2.18132E+03  9.79372E+03 -9.08090E+03  1.34356E+04 -1.64028E+04  5.54786E+03 -1.86975E+04 -8.11808E+03
 -8.60196E+03 -1.69794E+04  3.03233E+03 -1.77651E+04  1.83345E+04 -1.29508E+04  2.08044E+04  3.36393E+03
  1.11038E+04  1.52644E+04 -3.62175E+03  1.86586E+04 -1.24990E+04  1.01221E+04 -1.53185E+04 -1.63912E+03
 -1.00313E+04 -1.16334E+04 -2.32922E+03 -1.47799E+04  5.88838E+03 -9.55632E+03  1.11462E+04 -2.60663E+03
  6.03424E+03  2.70908E+03 -2.34250E+03  6.02926E+02 -9.46231E+02 -5.03436E+03  9.70942E+02 -9.39373E+03
  1.26061E+04 -4.11491E+03  1.90089E+04  2.63402E+03  1.77776E+04  1.41131E+04  1.27112E+04  2.41344E+04
 -5.85681E+03  2.79192E+04 -2.21289E+04  2.16885E+04 -2.94203E+04  2.61221E+03 -2.71143E+04 -1.15862E+04
 -1.07089E+04 -1.90740E+04 -9.23223E+02 -1.81807E+04  5.31113E+03 -9.27876E+03  7.43831E+03 -6.16892E+03
  5.73161E+03 -1.89138E+03  5.26603E+03 -3.92786E+03  5.74095E+03 -5.78432E+03  9.29382E+03 -2.72659E+03
  1.16708E+04  2.29660E+03  5.38885E+03  1.02330E+04 -4.15494E+03  1.35059E+04 -1.41023E+04  9.21698E+03
 -1.63320E+04 -1.19107E+03 -1.13490E+04 -1.27140E+04 -2.81069E+03 -1.92340E+04  8.77973E+03 -1.87719E+04
  1.84159E+04 -1.10763E+04  2.31822E+04  3.71122E+03  1.59158E+04  1.68443E+04  6.05876E+02  2.16476E+04
 -7.65061E+03  1.57430E+04 -1.31211E+04  5.01035E+03 -1.17070E+04 -1.88688E+03 -3.63054E+03 -3.21641E+03
 -1.52814E+03  1.95402E+03 -3.98305E+03  4.04101E+03 -7.79500E+03  2.31921E+03 -1.33624E+04 -1.32051E+03
 -8.62983E+03 -1.46195E+04  1.01010E+03 -1.86287E+04  1.03106E+04 -1.69514E+04  1.81830E+04 -7.38497E+03
  1.76545E+04  8.76520E+03  8.76846E+03  1.63445E+04 -3.43683E+03  1.82619E+04 -1.45864E+04  1.08768E+04
 -1.64930E+04  5.47406E+01 -1.45481E+04 -9.15334E+03 -1.14186E+03 -1.50971E+04  8.75885E+03 -1.12092E+04
  1.29241E+04 -2.24216E+03  7.29967E+03  1.65867E+03  2.76176E+03  5.27172E+03 -2.95476E+02  2.62548E+03
  3.07457E+03  2.38938E+02  2.90512E+03  9.33957E+02  6.65836E+03  7.03109E+03  3.58504E+03  1.01643E+04
 -4.13943E+03  1.42207E+04 -1.37008E+04  1.59163E+04 -1.94846E+04  2.96214E+03 -2.08646E+04 -6.73301E+03
 -8.60782E+03 -2.00722E+04  2.21942E+03 -1.98398E+04  1.16286E+04 -1.39369E+04  1.51786E+04 -1.89536E+03
  1.30129E+04  6.68359E+03  2.08797E+03  1.21954E+04 -4.62034E+03  6.63304E+03 -9.47005E+03 -1.15769E+03
 -2.62369E+03 -9.09521E+03  4.44030E+03 -8.54325E+03  6.56168E+03 -3.18249E+03  7.88922E+03  2.57389E+03
  6.58987E+03  3.06670E+03  1.98443E+03  3.72204E+03 -8.48498E+02  2.38770E+03  1.41958E+03 -1.40503E+03
  4.78393E+03  1.55867E+02  7.34905E+03  3.17945E+03  3.82553E+03  9.73810E+03 -2.03793E+03  1.36352E+04
 -8.38523E+03  9.73243E+03 -1.27534E+04  2.47194E+03 -1.16146E+04 -5.35306E+03 -5.14810E+03 -8.28631E+03
  2.50925E+03 -7.32579E+03  4.21429E+03 -5.83600E+03  3.27761E+03  3.07865E+03  1.49332E+02  7.47207E+03
 -7.87101E+03  5.17183E+03 -8.66432E+03 -4.17267E+03 -6.72763E+03 -9.78535E+03  2.45232E+03 -1.08093E+04
  7.27394E+03 -8.28288E+03  6.49418E+03 -8.10138E+02  7.44907E+03  4.31958E+03  1.25717E+03  5.84708E+03
 -6.06075E+03  2.38268E+03 -3.02096E+03 -3.73870E+03  1.21029E+03 -7.43051E+03  1.10280E+04 -5.93987E+03
  1.18440E+04  4.18672E+02  1.07856E+04  9.27955E+03  1.70723E+03  1.41855E+04 -5.44915E+03  1.36552E+04
 -1.08886E+04  5.50912E+03 -1.11855E+04 -8.42652E+02 -5.56893E+03 -6.95024E+03  2.35111E+03 -8.73544E+03
  6.75857E+03 -3.63849E+03  6.96342E+03  1.73299E+03  4.02432E+03  6.88359E+03 -1.19339E+03  7.11851E+03
 -2.22925E+03  3.71544E+03 -3.88782E+03  3.74717E+02  2.21857E+02  8.98323E+02 -2.17618E+03  2.24127E+03
 -2.40303E+03  5.51644E+03 -8.91302E+03  3.90977E+03 -1.19821E+04 -6.13785E+02 -1.55676E+04 -1.02780E+04
 -7.73812E+03 -1.84944E+04  4.46674E+03 -2.10250E+04  1.40653E+04 -1.66391E+04  2.03007E+04 -5.29858E+03
  1.82474E+04  4.52507E+03  1.04394E+04  1.20693E+04  5.10951E+02  1.32542E+04 -5.82836E+03  9.68336E+03
 -7.00970E+03  2.58983E+03 -6.18493E+03 -2.27637E+03 -1.96743E+03 -7.45075E+02  1.11873E+02 -1.11969E+03
 -3.57763E+03  1.07485E+02 -2.02252E+03  1.39603E+02 -1.67397E+03 -3.71178E+03  8.04721E+02 -4.71231E+03
  5.47670E+03 -3.72114E+03  7.61116E+03  1.26184E+03  8.46988E+03  5.92768E+03  4.80763E+03  1.40462E+04
 -6.90740E+03  1.69656E+04 -1.43511E+04  8.11796E+03 -1.57047E+04 -1.38495E+03 -1.32985E+04 -1.24844E+04
 -6.48925E+03 -1.42241E+04  3.26272E+03 -1.25643E+04  9.65521E+03 -6.92337E+03  1.16358E+04 -1.60599E+03
  4.59696E+03  2.89598E+03 -6.58942E+01  4.44661E+03 -3.20708E+03  6.30638E+02 -4.68409E+02 -2.61681E+03
  6.37147E+03 -2.75748E+03  5.18007E+03  2.92462E+03  3.18659E+03  6.75916E+03 -1.38127E+03  8.43365E+03
 -4.76799E+03  5.66178E+03 -9.02656E+03 -6.72016E+02 -8.66637E+03 -7.37672E+03 -2.46699E+03 -1.28059E+04
  5.83471E+03 -9.38452E+03  1.30855E+04 -1.53826E+03  1.35796E+04  2.53533E+03  6.76215E+03  7.58552E+03
  7.17636E+02  1.14468E+04 -4.26778E+03  7.02790E+03 -5.72007E+03  5.91991E+03 -5.18848E+03  1.11266E+03
 -1.84774E+03  1.57468E+03 -3.36857E+03  1.33773E+03 -6.23219E+03  9.14416E+02 -5.83011E+03 -7.07806E+02
 -7.42865E+03 -6.10997E+03 -2.49876E+03 -1.11302E+04  4.40142E+03 -1.17513E+04  9.69658E+03 -5.62053E+03
  1.01990E+04  2.14658E+03  6.28091E+03  6.36224E+03 -2.37318E+02  9.19829E+03 -7.89960E+03  5.74100E+03
