 $NMID ID='MM_0lb_SNR200_9hz_g50_61.RAW', FMTDAT='(8E13.5)'
 TRAMP=1., VOLUME=1. $END
  3.08794E+05  6.44471E+02  3.39920E+05  2.50846E+05  8.50319E+04  3.40503E+05 -1.31923E+05  2.51997E+05
 -1.91306E+05  8.41002E+04 -1.11965E+05 -3.26152E+04 -5.26940E+02 -4.90947E+04  5.46918E+04 -1.04308E+03
  3.36673E+04  5.13698E+04 -1.62105E+04  7.53838E+04 -6.26514E+04  6.54167E+04 -8.58119E+04  3.27761E+04
 -8.32986E+04 -1.36368E+04 -5.97562E+04 -5.16114E+04 -1.36294E+04 -7.07819E+04  2.79123E+04 -4.67102E+04
  4.17288E+04  4.29774E+03  1.64691E+04  4.97108E+04 -3.53469E+04  4.73819E+04 -6.86420E+04  1.50338E+03
 -5.54551E+04 -5.76580E+04 -6.82679E+03 -7.91651E+04  3.42405E+04 -5.82311E+04  5.09991E+04 -1.74409E+04
  4.57110E+04  1.00743E+04  3.40449E+04  2.71594E+04  1.50532E+04  2.99304E+04 -6.35189E+03  2.87513E+04
 -2.20452E+04  1.22333E+04 -1.89702E+04 -5.75267E+03  7.78295E+03 -6.75160E+03  2.24340E+04  1.31671E+04
  9.03322E+03  3.99330E+04 -3.25720E+04  3.74181E+04 -6.52605E+04  2.23748E+03 -5.92881E+04 -4.52051E+04
 -1.12991E+04 -6.79433E+04  4.06034E+04 -4.61502E+04  6.21896E+04 -1.52618E+03  3.68329E+04  3.56265E+04
 -4.65146E+03  3.87303E+04 -3.30988E+04  1.85853E+04 -3.25963E+04 -4.01537E+03 -1.80141E+04 -1.19345E+04
 -9.44014E+03 -1.59490E+04 -2.41695E+03 -2.03089E+04  8.55764E+03 -2.51976E+04  1.75960E+04 -1.27561E+04
  1.02184E+04  6.17563E+03 -9.77785E+03  1.25800E+04 -2.27306E+04 -6.28648E+03 -7.16879E+03 -3.80714E+04
  2.60753E+04 -4.56281E+04  5.29402E+04 -2.10566E+04  4.75048E+04  2.06443E+04  1.69888E+04  4.72939E+04
 -1.64657E+04  3.53648E+04 -2.69835E+04  4.05258E+03 -1.19751E+04 -3.08802E+04  2.20097E+04 -3.65702E+04
  4.55549E+04 -1.12227E+04  4.08383E+04  2.47615E+04  2.15426E+04  5.05408E+04 -8.12012E+03  5.58076E+04
 -3.54199E+04  3.95712E+04 -4.76316E+04  1.01065E+04 -4.82524E+04 -1.71759E+04 -2.54837E+04 -4.09507E+04
  8.75302E+03 -4.08860E+04  3.35952E+04 -1.76921E+04  3.24329E+04  1.02280E+04  3.93493E+03  2.12717E+04
 -1.45261E+04  1.28117E+04 -1.26482E+04 -7.27356E+03  5.08736E+03 -1.12908E+04  1.97807E+04  5.06559E+03
  1.52322E+04  2.26499E+04 -5.30725E+03  2.63070E+04 -2.32227E+04  1.32087E+04 -3.31294E+04 -1.63832E+03
 -2.46254E+04 -1.87341E+04 -1.31763E+04 -2.67638E+04  2.93192E+03 -2.63545E+04  2.01014E+04 -2.31755E+04
  2.99279E+04 -1.44811E+04  3.61216E+04  5.22169E+03  2.85357E+04  2.45468E+04  5.30695E+03  4.24518E+04
 -2.04723E+04  3.44742E+04 -3.07058E+04  1.21920E+04 -2.32234E+04 -9.29968E+03 -5.28425E+03 -1.15599E+04
  1.72325E+03  1.92995E+02 -6.48419E+03  9.14626E+03 -2.07986E+04  5.71053E+03 -1.91872E+04 -8.40945E+03
 -1.11401E+04 -2.39302E+04  7.15941E+03 -2.68400E+04  1.72738E+04 -1.93986E+04  2.33836E+04 -1.32776E+03
  1.51999E+04  1.49537E+04 -1.48354E+03  2.47199E+04 -1.65095E+04  1.43830E+04 -2.35631E+04 -6.22293E+03
 -1.82990E+04 -2.17288E+04 -1.52517E+03 -2.82118E+04  1.22193E+04 -2.37112E+04  2.34198E+04 -1.23425E+04
  2.13670E+04 -7.50375E+02  1.64408E+04  5.31530E+03  8.51159E+03  2.19187E+03  1.13125E+04 -2.14545E+03
  2.31777E+04  2.97900E+03  2.64513E+04  1.84816E+04  1.82567E+04  3.86381E+04 -1.69431E+03  4.25442E+04
 -2.52761E+04  3.77512E+04 -4.11200E+04  1.75239E+04 -4.55548E+04 -2.60880E+03 -3.52927E+04 -2.63561E+04
 -1.45756E+04 -3.80975E+04  1.29951E+04 -3.08889E+04  2.71607E+04 -1.52388E+04  2.53874E+04  5.99849E+03
  7.45720E+03  1.94831E+04 -1.33710E+04  1.51501E+04 -2.05132E+04  2.55489E+03 -1.53900E+04 -1.32433E+04
 -7.16550E+02 -2.01594E+04  1.20924E+04 -1.54229E+04  1.42144E+04 -1.17255E+03  3.46840E+03  7.86026E+03
 -8.26464E+03  5.04422E+03 -8.18266E+03 -7.86187E+03 -2.00297E+03 -1.66334E+04  1.08482E+04 -1.90468E+04
  2.31677E+04 -1.33374E+04  2.56819E+04  2.95614E+03  2.23921E+04  1.74496E+04  1.08290E+04  2.83332E+04
 -5.50315E+03  3.19768E+04 -2.05057E+04  1.84309E+04 -2.14193E+04  4.90098E+03 -1.49655E+04 -5.71098E+03
 -6.16881E+03 -6.48806E+03 -4.68097E+02  4.39273E+02 -2.53434E+03  4.13977E+03 -7.54429E+03  5.35392E+03
 -1.58655E+04  2.33052E+00 -1.41315E+04 -1.02241E+04 -5.31500E+03 -1.96776E+04  5.44941E+03 -1.70753E+04
  1.28476E+04 -7.96469E+03  1.01623E+04  4.97133E+03  6.18557E+00  5.35493E+03 -7.92032E+03 -1.99160E+03
 -7.58490E+03 -9.82972E+03 -1.00896E+01 -1.59696E+04  9.27355E+03 -1.61123E+04  1.99973E+04 -8.43347E+03
  2.32810E+04  3.35254E+03  1.77958E+04  1.41585E+04  3.39705E+03  1.91593E+04 -9.47961E+03  1.64789E+04
 -1.28082E+04  4.75100E+03 -6.89881E+03 -3.50032E+03  1.70655E+03 -3.73495E+03  8.22238E+03 -9.55110E+02
  6.82773E+03  6.53631E+03  1.80380E+03  1.23222E+04 -8.42540E+03  1.15203E+04 -1.58950E+04  1.63869E+03
 -9.83863E+03 -8.71403E+03 -7.76462E+01 -1.41651E+04  8.97109E+03 -6.15082E+03  7.73079E+03  4.23877E+03
  2.83005E+03  8.59738E+03 -1.00636E+04  1.18206E+04 -1.26203E+04  6.17133E+03 -1.31088E+04 -4.25542E+03
 -9.18417E+03 -1.67793E+04  3.99984E+03 -1.95653E+04  1.28934E+04 -1.17953E+04  1.83067E+04  3.72585E+03
  1.01876E+04  1.32078E+04 -2.05616E+03  1.49719E+04 -1.14615E+04  8.75965E+03 -1.28267E+04 -1.60232E+03
 -1.03411E+04 -1.08315E+04 -1.74131E+03 -1.30750E+04  6.49363E+03 -8.69716E+03  7.81672E+03 -5.66824E+03
  5.54983E+03  3.12986E+03 -9.92149E+02  2.40885E+03 -2.80090E+02 -2.84575E+03  2.25029E+03 -6.79386E+03
  1.17203E+04 -4.87394E+03  1.54342E+04  2.48913E+03  1.54868E+04  1.07983E+04  1.09074E+04  2.13986E+04
 -5.96741E+03  2.30513E+04 -2.03654E+04  1.80227E+04 -2.49204E+04  3.74719E+03 -2.02113E+04 -9.10155E+03
 -9.76455E+03 -1.68545E+04 -2.05775E+01 -1.55170E+04  5.35346E+03 -8.27355E+03  4.91981E+03 -4.57922E+03
  4.09670E+03 -2.22703E+03  5.52151E+03 -5.35862E+03  6.07775E+03 -3.01955E+03  7.44884E+03 -1.35873E+03
  9.53062E+03  2.47174E+03  7.45805E+03  9.40512E+03 -1.58618E+03  1.23744E+04 -1.17312E+04  8.44172E+03
 -1.54068E+04 -1.23199E+03 -9.39749E+03 -9.31308E+03 -2.12530E+03 -1.69538E+04  7.38464E+03 -1.59895E+04
  1.57658E+04 -8.31415E+03  1.95380E+04  3.08248E+03  1.42124E+04  1.47010E+04  2.75946E+03  1.66478E+04
 -8.20116E+03  1.48543E+04 -1.05487E+04  3.60124E+03 -7.45396E+03 -8.90266E+02 -4.97155E+03 -2.48218E+03
 -7.62967E+02 -1.09428E+03 -1.90358E+03  3.93278E+03 -7.23468E+03  2.96671E+03 -9.45077E+03 -1.63595E+03
 -6.65456E+03 -9.52374E+03  4.14516E+02 -1.51663E+04  7.83661E+03 -1.31250E+04  1.58781E+04 -5.89480E+03
  1.38590E+04  6.93747E+03  8.42400E+03  1.38898E+04 -2.86083E+03  1.52364E+04 -1.13473E+04  8.48974E+03
 -1.46206E+04  7.86048E+02 -9.95609E+03 -9.58500E+03 -8.31152E+02 -1.28742E+04  6.09611E+03 -8.47297E+03
  9.23012E+03 -3.91489E+03  5.45789E+03  1.99619E+03  2.10381E+03  3.49124E+03  4.22602E+02  2.47562E+03
  3.37363E+03  4.30175E+02  5.11383E+03  2.75470E+03  4.66633E+03  5.42837E+03  4.43051E+03  7.89905E+03
 -2.07765E+03  1.15127E+04 -9.13382E+03  1.05991E+04 -1.59754E+04  2.01902E+03 -1.45899E+04 -6.47422E+03
 -8.15237E+03 -1.56128E+04  3.07879E+03 -1.79867E+04  9.55691E+03 -1.10629E+04  1.16962E+04 -2.73019E+03
  9.53553E+03  5.71705E+03  9.05202E+02  8.27150E+03 -4.78703E+03  5.40765E+03 -6.08695E+03 -9.00120E+02
 -4.01838E+03 -6.59979E+03  2.03235E+03 -7.80760E+03  5.63433E+03 -1.70104E+03  5.36654E+03 -9.26299E+02
  3.92781E+03  2.58888E+03  7.71046E+02  2.83223E+03 -2.11201E+03  3.10535E+03  1.59479E+03 -3.36603E+02
  2.24026E+03 -1.56578E+03  5.60892E+03  2.74462E+03  4.41958E+03  7.73394E+03 -1.62373E+03  1.16257E+04
 -7.89180E+03  7.47183E+03 -8.41457E+03  1.08427E+03 -8.30781E+03 -2.51647E+03 -4.41087E+03 -6.25165E+03
  4.58073E+02 -5.07038E+03  2.85215E+03 -4.09885E+03  3.60254E+03  3.37111E+03 -8.40169E+02  7.04599E+03
 -7.38871E+03  2.93520E+03 -7.16729E+03 -4.40698E+03 -2.88845E+03 -7.30241E+03  2.49784E+03 -8.54489E+03
  5.24376E+03 -5.24770E+03  6.99432E+03 -1.15247E+03  4.87971E+03  2.67962E+03  3.71721E+02  7.20412E+03
 -3.42430E+03  7.99961E+02 -3.51816E+03 -2.57537E+03  2.71989E+03 -7.18810E+03  6.86909E+03 -5.28383E+03
  1.06872E+04  1.41636E+03  9.45420E+03  7.96240E+03  1.82049E+03  8.55516E+03 -2.16115E+03  9.91924E+03
 -8.12852E+03  4.32456E+03 -7.75201E+03 -1.52722E+03 -5.76024E+03 -5.65149E+03  1.92270E+03 -7.92176E+03
  5.32962E+03 -2.51731E+03  3.75989E+03  3.07660E+03  8.21515E+02  6.27342E+03 -9.61575E+01  3.55825E+03
 -2.88065E+03  2.55274E+03 -2.11757E+03 -4.92769E+02 -1.83204E+03  1.83535E+03 -1.83543E+03  1.23739E+03
 -1.26269E+03  2.74445E+03 -6.61579E+03  4.34835E+03 -8.32872E+03  2.49300E+02 -9.57291E+03 -6.11922E+03
 -4.30394E+03 -1.28632E+04  3.17310E+03 -1.60877E+04  9.20417E+03 -1.05875E+04  1.61513E+04 -3.95511E+03
  1.29229E+04  1.88354E+03  8.40122E+03  9.06919E+03  7.09464E+02  1.06905E+04 -5.19138E+03  7.13365E+03
 -5.41442E+03  2.27844E+03 -3.45773E+03 -2.28764E+03 -1.22541E+03 -5.02363E+02  4.28042E+02  9.18864E+01
 -1.94129E+03  9.41445E+02 -2.36743E+03  6.13417E+02 -1.05801E+03 -2.22509E+03  1.20311E+02 -3.48538E+03
  4.89433E+03 -2.98563E+03  5.28175E+03 -7.03251E+02  6.85796E+03  5.30272E+03  1.21710E+03  9.42344E+03
 -3.85212E+03  1.22473E+04 -1.21560E+04  7.57530E+03 -1.28859E+04 -1.38196E+03 -8.68108E+03 -7.59590E+03
 -3.00283E+03 -1.07532E+04  2.82930E+03 -9.84947E+03  7.09809E+03 -6.18076E+03  7.07412E+03  7.04342E+02
  4.73805E+03  3.11510E+03 -1.70271E+03  3.75116E+03 -1.15190E+03  1.74118E+02  9.67496E+02 -1.81651E+03
  3.03876E+03 -1.96082E+03  5.60039E+03  1.00652E+03  4.37663E+03  2.51409E+03  5.80114E+02  5.48809E+03
 -4.95305E+03  4.00907E+03 -6.69699E+03 -7.32271E+02 -6.97446E+03 -4.55973E+03 -4.81351E+02 -8.25136E+03
  3.98661E+03 -8.14455E+03  8.57308E+03 -2.79091E+03  7.73236E+03  1.57980E+03  5.16810E+03  7.30826E+03
  9.34114E+02  7.63852E+03 -3.40901E+03  4.86657E+03 -5.09396E+03  2.40924E+03 -3.94001E+03  9.47964E+02
 -3.54638E+03 -8.54405E+02 -1.52211E+03  1.88375E+03 -2.49141E+03  7.28473E+02 -5.92756E+03 -1.80834E+03
 -5.80398E+03 -3.66464E+03 -1.44599E+02 -6.58686E+03  4.09778E+03 -6.20486E+03  5.44066E+03 -2.33621E+03
  5.96612E+03  2.58706E+03  5.05492E+03  6.47811E+03 -3.23014E+02  5.26969E+03 -7.44378E+03  4.47811E+03
