 $NMID ID='MM_0lb_SNR200_18hz_g40_7.RAW', FMTDAT='(8E13.5)'
 TRAMP=1., VOLUME=1. $END
  3.08327E+05  4.04872E+02  3.36668E+05  2.50546E+05  8.48561E+04  3.38034E+05 -1.32878E+05  2.49656E+05
 -1.89496E+05  8.20446E+04 -1.11045E+05 -3.26685E+04  1.68994E+03 -4.97515E+04  5.38445E+04 -1.48007E+02
  3.55369E+04  5.25881E+04 -1.60236E+04  7.32842E+04 -5.94090E+04  6.30141E+04 -8.41836E+04  3.05239E+04
 -7.97981E+04 -1.09073E+04 -5.63443E+04 -5.03843E+04 -1.40135E+04 -6.77663E+04  2.62872E+04 -4.44548E+04
  3.78406E+04  3.68490E+03  1.52510E+04  4.62029E+04 -3.34233E+04  4.70990E+04 -6.52258E+04 -7.24969E+02
 -5.15791E+04 -5.49208E+04 -5.23358E+03 -7.52867E+04  3.32168E+04 -5.34232E+04  4.60461E+04 -1.59449E+04
  4.18386E+04  1.18809E+04  2.98460E+04  2.48143E+04  1.53344E+04  2.80608E+04 -5.80446E+03  2.74480E+04
 -2.15016E+04  1.17808E+04 -1.97472E+04 -5.20623E+03  4.12185E+03 -8.52368E+03  2.21216E+04  1.03552E+04
  7.86758E+03  3.23592E+04 -3.09700E+04  3.40177E+04 -6.06809E+04  2.26938E+03 -5.48656E+04 -4.10944E+04
 -1.18255E+04 -6.11762E+04  3.81650E+04 -4.32884E+04  5.65223E+04 -2.17658E+03  3.09312E+04  3.07217E+04
 -6.51294E+03  3.27702E+04 -2.81486E+04  1.20468E+04 -2.66556E+04 -5.38437E+03 -1.54017E+04 -9.90708E+03
 -7.04424E+03 -1.16220E+04 -8.83098E+02 -1.54193E+04  5.77282E+03 -2.28589E+04  1.45946E+04 -1.45684E+04
  1.19713E+04  4.43831E+03 -5.85360E+03  1.30980E+04 -1.94134E+04 -1.65205E+03 -7.83807E+03 -2.90737E+04
  2.10634E+04 -4.07865E+04  4.37049E+04 -1.95460E+04  4.10409E+04  1.87748E+04  1.40239E+04  4.24068E+04
 -1.41059E+04  3.06294E+04 -2.32240E+04  2.31982E+03 -8.46391E+03 -2.59894E+04  2.06178E+04 -3.09183E+04
  3.79843E+04 -7.05667E+03  3.14124E+04  2.26998E+04  1.57132E+04  4.19841E+04 -7.25460E+03  4.46034E+04
 -2.92414E+04  2.93505E+04 -3.62899E+04  8.24398E+03 -3.92724E+04 -1.42679E+04 -2.22488E+04 -3.45395E+04
  6.61452E+03 -3.41859E+04  2.95808E+04 -1.23051E+04  2.52692E+04  9.82593E+03  1.79524E+03  1.75399E+04
 -1.19431E+04  6.85275E+03 -1.01946E+04 -8.03428E+03  5.33322E+03 -9.15784E+03  1.63783E+04  7.00466E+03
  1.23417E+04  2.04374E+04 -7.85629E+03  2.34019E+04 -2.15765E+04  9.54074E+03 -2.59413E+04 -5.88622E+03
 -1.62945E+04 -1.60295E+04 -6.37844E+03 -1.66434E+04  3.80662E+03 -1.49025E+04  1.16829E+04 -1.37705E+04
  2.18218E+04 -1.11383E+04  2.80965E+04  1.36150E+03  2.03107E+04  1.62053E+04  5.17020E+03  3.22101E+04
 -1.57118E+04  2.74718E+04 -2.68896E+04  8.66001E+03 -1.95993E+04 -1.03297E+04 -5.38316E+03 -1.46000E+04
  2.72113E+03 -4.46720E+03 -2.32811E+03  4.75055E+03 -1.15583E+04  4.20681E+03 -1.27223E+04 -4.64799E+03
 -8.19166E+03 -1.44160E+04  4.76677E+03 -1.77394E+04  1.42997E+04 -1.43425E+04  1.36020E+04 -2.26942E+03
  8.40241E+03  1.12092E+04 -6.19372E+02  1.59046E+04 -9.42866E+03  9.20579E+03 -1.57984E+04 -2.91044E+03
 -1.11406E+04 -1.42901E+04 -1.06635E+03 -1.86345E+04  8.91419E+03 -1.54696E+04  1.65028E+04 -6.36360E+03
  1.51514E+04  1.24169E+03  1.06753E+04  2.96413E+03  5.36143E+03  1.01004E+03  7.09168E+03 -9.35457E+02
  1.32779E+04  2.63933E+03  1.43551E+04  1.16955E+04  9.40355E+03  2.37544E+04 -3.27190E+03  2.73569E+04
 -1.55331E+04  1.95532E+04 -2.40029E+04  9.29883E+03 -2.46216E+04 -1.04295E+03 -2.14609E+04 -1.46169E+04
 -1.04454E+04 -2.05166E+04  7.08579E+03 -1.87548E+04  1.63111E+04 -1.04433E+04  1.59173E+04  4.29985E+03
  6.85868E+03  1.10863E+04 -6.78506E+03  1.12342E+04 -1.36078E+04  2.50019E+03 -1.03496E+04 -7.52888E+03
  2.89417E+02 -1.21792E+04  6.67331E+03 -9.29082E+03  7.50663E+03 -1.47552E+03  1.77076E+03  4.68525E+03
 -5.56631E+03  5.69066E+02 -3.08988E+03 -5.04018E+03  8.64033E+02 -1.08781E+04  7.44172E+03 -9.52491E+03
  1.23646E+04 -4.59495E+03  1.03744E+04  3.53509E+03  9.43797E+03  9.19526E+03  5.02950E+03  1.42525E+04
 -1.42132E+03  1.57522E+04 -9.41000E+03  1.01936E+04 -1.20669E+04  3.04617E+03 -8.89479E+03 -1.01527E+03
 -4.69082E+03 -2.95569E+03 -1.41200E+03  1.23874E+03 -2.68904E+03  1.44392E+03 -4.70383E+03  3.46640E+03
 -8.51616E+03  6.71125E+01 -7.59222E+03 -6.81365E+03 -4.03088E+03 -1.12836E+04  4.71778E+03 -8.67935E+03
  6.38026E+03 -3.49283E+03  5.62920E+03  3.07485E+03  1.50162E+02  3.26900E+03 -2.44672E+03  6.21027E+02
 -3.07902E+03 -4.75081E+03 -8.06648E+02 -7.19791E+03  3.60305E+03 -9.32478E+03  9.69361E+03 -4.66371E+03
  1.14729E+04  3.32172E+02  8.95230E+03  5.94255E+03  2.39488E+03  8.79749E+03 -4.02412E+03  8.33574E+03
 -7.30461E+03  3.60917E+03 -3.32524E+03 -2.21737E+03  1.34856E+03 -2.18121E+03  5.51450E+03 -5.91986E+02
  3.44361E+03  3.54847E+03  1.61422E+03  6.21989E+03 -4.52883E+03  5.93107E+03 -7.86520E+03  2.23946E+03
 -5.09438E+03 -3.18954E+03 -9.29328E+02 -6.40711E+03  3.51533E+03 -3.15441E+03  3.59316E+03  9.22063E+02
  9.88106E+02  2.85819E+03 -3.98427E+03  5.17638E+03 -4.27587E+03  3.32198E+03 -4.81005E+03 -1.64397E+03
 -3.44277E+03 -6.37610E+03  1.07875E+03 -7.22989E+03  4.64366E+03 -3.67501E+03  6.92185E+03  9.59841E+02
  5.12940E+03  5.76157E+03  3.03207E+02  7.34027E+03 -5.12046E+03  5.58485E+03 -5.24893E+03 -8.09816E+02
 -5.87575E+03 -5.76576E+03 -2.01337E+03 -5.06653E+03  1.83862E+03 -4.03165E+03  2.51366E+03 -3.42203E+03
  2.73850E+03  4.49768E+02 -1.83530E+03  1.04435E+03  2.39925E+02 -3.98406E+02  7.13945E+01 -2.57248E+03
  3.54438E+03 -1.55981E+03  6.38319E+03  7.43895E+02  5.73452E+03  3.36295E+03  6.08667E+03  6.49908E+03
 -1.42999E+03  8.40204E+03 -8.37800E+03  6.43098E+03 -1.05290E+04  1.65472E+03 -7.86864E+03 -3.81445E+03
 -4.77684E+03 -5.44739E+03 -1.10485E+03 -4.50515E+03  1.28282E+03 -2.79452E+03  2.36560E+03 -2.74845E+03
  1.13200E+03 -2.40863E+03  2.05383E+03 -2.20182E+03  5.14493E+03 -1.26509E+03  3.48668E+03  1.00099E+03
  5.47207E+03  9.18920E+02  1.81006E+03  3.49971E+03 -2.20657E+03  4.10503E+03 -5.09737E+03  3.43076E+03
 -4.83453E+03 -5.46830E+02 -2.08582E+03 -3.12601E+03  1.47362E+02 -4.72570E+03  3.89331E+03 -5.49172E+03
  5.01093E+03 -2.68168E+03  6.84165E+03 -1.24371E+03  4.43674E+03  4.51321E+03  7.75421E+02  6.08625E+03
 -2.02534E+03  5.90471E+03 -2.73151E+03  2.76574E+03 -2.17026E+03 -8.49598E+02 -5.28481E+02 -1.05383E+03
 -2.93346E+02 -4.17398E+02 -1.51438E+03  2.78365E+03 -2.53419E+03  2.38846E+03 -5.21204E+03 -5.76882E+02
 -1.45246E+03 -4.60432E+03  3.60931E+02 -5.12990E+03  2.62744E+03 -3.29328E+03  2.96646E+03 -9.15947E+02
  4.15818E+03  3.56723E+03  2.01634E+03  3.01334E+03 -9.50498E+02  4.70713E+03 -2.20393E+03  3.70287E+03
 -4.39684E+03  1.10252E+03 -3.01629E+03 -2.31669E+03 -3.90354E+02 -3.53399E+03  2.32758E+03 -2.09602E+03
  2.73799E+03 -1.08179E+03  1.89199E+03  7.89089E+02  8.82311E+02  9.45049E+02  1.20329E+03  5.40922E+02
  1.85454E+03  1.41365E+03  1.20040E+03  1.40753E+03  1.16616E+03  2.50459E+03  1.19809E+03  2.04847E+03
 -8.98478E+02  3.53794E+03 -2.18969E+03  3.80297E+03 -2.11370E+03  2.16506E+03 -3.02645E+03 -4.06331E+02
 -2.47164E+03 -4.07064E+03 -3.30851E+02 -3.06015E+03  2.80030E+03 -2.36941E+03  3.99656E+03 -1.91428E+03
  2.89301E+03  1.64940E+03 -2.94701E+02  1.63135E+03 -1.13848E+03  1.48453E+03 -1.33445E+03  3.16905E+02
 -3.99546E+02 -2.47371E+03  1.17548E+03 -4.82804E+02  1.26080E+03 -3.17599E+02  2.04618E+03  1.28481E+02
  6.12121E+02  4.32312E+02  5.65516E+01 -6.16633E+02  2.04727E+02  1.61746E+03  1.73569E+03 -2.82512E+02
  5.24714E+02 -2.17441E+01  2.97605E+03  5.52110E+02  8.97672E+02  2.48646E+03  4.87777E+02  3.54757E+03
 -1.79060E+03  1.01104E+03 -1.09144E+03  4.51925E+02 -2.57086E+03 -7.18335E+02 -6.57431E+02 -1.32304E+03
  2.23585E+02 -1.22569E+03  1.08341E+03 -9.04851E+02 -3.18042E+01  1.76487E+03 -9.56201E+02  1.10616E+03
 -2.79780E+03  5.77452E+02 -2.69987E+03 -8.74593E+02 -1.84872E+02 -1.88859E+03 -3.65791E+02 -7.14840E+02
  8.80337E+02 -8.12129E+01  8.01736E+02  5.65748E+02  1.53385E+03  2.83817E+02  1.06857E+03  7.45263E+02
 -5.89848E+02 -5.76414E+02 -2.22558E+03 -3.92806E+02  4.31529E+02 -7.41641E+02  2.33316E+03 -1.54124E+03
  2.52789E+03 -4.38147E+02  3.85668E+03  2.71905E+02  1.94146E+03  2.44170E+03 -5.14146E+02  1.56318E+03
 -2.37627E+03  4.44451E+02 -1.57648E+03 -4.44479E+02 -6.59148E+02 -1.64301E+03  9.76309E+02 -9.75928E+01
  2.04750E+03 -1.12086E+03  3.80615E+02  3.95963E+01  1.00320E+03  1.17840E+03  5.79607E+02  8.18587E+02
 -5.01024E+01  9.67255E+02 -1.03085E+03  1.13655E+03 -4.09429E+02  4.72612E+02 -1.47115E+03  1.11833E+03
 -9.08346E+02  1.06326E+03 -1.39733E+03  8.04210E+02 -8.78445E+02  1.39130E+03 -2.47727E+03 -1.74239E+03
 -8.31131E+02 -2.29220E+03  1.01827E+03 -2.27675E+03  2.00423E+03 -3.01846E+03  3.30297E+03 -1.36511E+03
  2.27079E+03  6.90366E+01  8.01586E+02  1.41783E+03 -4.91335E+02  1.92491E+03 -5.88269E+02  3.10846E+02
 -3.32690E+02  4.26197E+02 -1.23280E+03 -1.00788E+03 -1.11886E+03 -4.40394E+02  8.40188E+02 -7.81092E+02
 -9.21309E+02  7.60755E+02 -1.94671E+03 -6.13019E+02  5.82965E+01 -5.56879E+02  3.77907E+02 -1.28210E+03
  1.51153E+03 -6.43739E+02  4.00916E+02  4.18483E+02 -7.61107E+01  1.90448E+03  9.67447E+01  2.00129E+03
 -1.85205E+03  2.05391E+03 -2.74801E+03  2.76839E+03 -1.83111E+03 -1.53392E+02 -1.36050E+03 -9.74776E+02
 -1.37255E+03 -1.19623E+03  1.10083E+03 -9.34530E+02  5.23350E+02 -9.83804E+02  3.55514E+02 -5.62596E+01
  3.60531E+02  1.44480E+02 -9.68838E+01  3.41069E+02  2.47916E+02 -8.59621E+02 -4.04861E+01 -1.05081E+03
  1.13193E+03  5.97577E+02 -4.94027E+02  1.10884E+03  6.39647E+02  1.52856E+03  2.61193E+02 -7.32568E+01
 -5.11654E+02  1.26904E+03 -4.07464E+00 -4.80261E+02 -1.00743E+03  2.59840E+02  1.57412E+02 -8.50401E+02
  1.12223E+03 -1.42844E+03  1.62312E+03 -7.90555E+02  1.91157E+02 -4.55337E+02  8.54314E+02  1.39414E+03
  2.24742E+02  1.08552E+03  1.81880E+02  3.80206E+02 -6.04691E+02  5.74830E+02 -1.07225E+03 -3.81344E+02
 -5.44796E+02 -1.19825E+03 -1.65409E+02  4.95786E+02 -3.19586E+02  1.08991E+02 -1.04291E+01 -9.39447E+02
 -5.39432E+02  4.43324E+02 -4.27737E+02 -9.56002E+02  7.79913E+02 -1.44144E+03  1.53426E+03 -1.04988E+03
  1.48973E+03 -1.12206E+03 -6.63442E+02  6.52044E+02 -4.61328E+02  5.71846E+02  3.30576E+02  1.21182E+03
