 $NMID ID='MM_0lb_SNR200_7hz_g60_80.RAW', FMTDAT='(8E13.5)'
 TRAMP=1., VOLUME=1. $END
  3.10384E+05  1.43858E+03  3.38853E+05  2.48915E+05  8.48698E+04  3.38949E+05 -1.31056E+05  2.54441E+05
 -1.89587E+05  8.25420E+04 -1.14484E+05 -3.25799E+04  1.69529E+03 -5.16810E+04  5.39652E+04 -2.21434E+03
  3.51303E+04  5.21814E+04 -1.68553E+04  7.64977E+04 -6.20790E+04  6.37095E+04 -8.76831E+04  3.43758E+04
 -8.23439E+04 -1.16515E+04 -6.05608E+04 -5.29264E+04 -1.44386E+04 -7.12659E+04  2.81873E+04 -4.67186E+04
  4.38984E+04  4.08146E+03  1.61548E+04  4.81002E+04 -3.62427E+04  4.89711E+04 -6.96511E+04  1.16845E+03
 -5.66320E+04 -5.85102E+04 -8.80657E+03 -8.00276E+04  3.43806E+04 -5.90873E+04  5.21965E+04 -1.94797E+04
  4.55753E+04  1.15549E+04  3.45569E+04  2.70914E+04  1.47603E+04  3.27244E+04 -6.35175E+03  2.80614E+04
 -2.58306E+04  1.33591E+04 -1.66168E+04 -6.03839E+03  8.49569E+03 -8.09931E+03  2.55003E+04  1.42360E+04
  7.19999E+03  3.75134E+04 -3.60213E+04  3.90229E+04 -6.71946E+04  3.12752E+03 -6.05958E+04 -4.40611E+04
 -1.25169E+04 -6.78679E+04  4.18798E+04 -4.68957E+04  6.31149E+04 -1.84616E+03  3.82741E+04  3.70047E+04
 -4.71012E+03  3.95182E+04 -3.27683E+04  1.92759E+04 -3.67211E+04 -2.91527E+03 -2.18594E+04 -1.22573E+04
 -1.02856E+04 -1.55741E+04 -9.87054E+02 -2.14003E+04  6.69817E+03 -2.39759E+04  1.60803E+04 -1.05947E+04
  8.00475E+03  6.21244E+03 -1.17627E+04  1.23883E+04 -2.68867E+04 -7.84493E+03 -9.77869E+03 -3.90487E+04
  2.75607E+04 -4.93441E+04  5.41410E+04 -2.21372E+04  4.89746E+04  2.11184E+04  1.60424E+04  4.89469E+04
 -1.79885E+04  3.83306E+04 -2.88807E+04  9.41581E+02 -1.48884E+04 -2.91806E+04  2.00739E+04 -3.97972E+04
  4.60955E+04 -1.17163E+04  4.23239E+04  2.70857E+04  2.48282E+04  5.41526E+04 -7.48962E+03  5.91089E+04
 -3.71439E+04  4.17487E+04 -5.04079E+04  1.17389E+04 -4.97332E+04 -1.96056E+04 -2.78885E+04 -4.49908E+04
  8.48063E+03 -4.58007E+04  3.58315E+04 -2.00670E+04  3.43265E+04  1.00638E+04  5.46658E+03  2.22738E+04
 -1.40698E+04  1.06340E+04 -1.09416E+04 -6.35771E+03  6.35682E+03 -1.29920E+04  2.13142E+04  6.14739E+03
  1.47317E+04  2.32190E+04 -5.48192E+03  2.84825E+04 -2.48704E+04  1.46099E+04 -3.28812E+04 -3.43198E+03
 -2.83615E+04 -1.79857E+04 -1.44075E+04 -2.59333E+04  5.85414E+03 -2.97504E+04  2.19700E+04 -2.49948E+04
  3.87115E+04 -1.47913E+04  4.21324E+04  5.77932E+03  3.00707E+04  2.81749E+04  6.19062E+03  4.51418E+04
 -2.24749E+04  3.55932E+04 -3.11592E+04  1.21566E+04 -2.24284E+04 -1.09725E+04 -6.74753E+03 -1.22597E+04
  3.96884E+01 -1.71203E+02 -8.27639E+03  7.75695E+03 -2.12377E+04  4.91453E+03 -2.23826E+04 -1.22963E+04
 -1.43332E+04 -2.50297E+04  7.80745E+03 -3.38114E+04  2.22631E+04 -2.12332E+04  2.55446E+04 -2.80429E+02
  1.50845E+04  1.66337E+04 -1.27211E+03  2.46858E+04 -1.96818E+04  1.47013E+04 -2.63514E+04 -4.63976E+03
 -1.78541E+04 -2.61967E+04 -9.04362E+02 -2.99901E+04  1.53110E+04 -2.60527E+04  2.56691E+04 -1.35877E+04
  2.46744E+04  1.64957E+02  1.97523E+04  6.27340E+03  9.73649E+03  2.27618E+03  1.46780E+04 -4.84526E+02
  2.66731E+04  4.67973E+03  2.99941E+04  2.00901E+04  2.04149E+04  4.14866E+04 -4.64435E+03  5.03910E+04
 -2.97661E+04  4.27458E+04 -4.95704E+04  2.33096E+04 -5.26813E+04 -3.65468E+03 -4.07987E+04 -2.94386E+04
 -1.54191E+04 -4.28742E+04  1.54756E+04 -3.86682E+04  3.11139E+04 -1.55692E+04  2.81753E+04  9.54372E+03
  8.58407E+03  2.17144E+04 -1.38210E+04  1.91444E+04 -2.18973E+04  1.72729E+03 -1.63709E+04 -1.54244E+04
 -3.30930E+02 -2.17322E+04  1.37983E+04 -1.48157E+04  1.70152E+04 -2.52384E+03  5.77312E+03  9.47903E+03
 -9.82036E+03  6.53128E+03 -1.24179E+04 -7.54517E+03 -1.70026E+03 -2.17395E+04  1.32783E+04 -2.29609E+04
  2.64275E+04 -1.28835E+04  3.30530E+04  2.61605E+03  2.70903E+04  2.29706E+04  1.20736E+04  3.49809E+04
 -7.51218E+03  3.64781E+04 -2.32720E+04  2.08370E+04 -2.74857E+04  4.69395E+03 -1.74569E+04 -7.89060E+03
 -9.14800E+03 -7.58056E+03 -1.62215E+03 -1.35268E+02 -1.02649E+03  4.06030E+03 -9.34014E+03  5.14090E+03
 -1.62327E+04 -2.36622E+03 -1.88970E+04 -1.27295E+04 -6.16976E+03 -2.32446E+04  7.63996E+03 -1.85908E+04
  1.54594E+04 -6.65695E+03  1.27952E+04  4.21988E+03 -9.47282E+02  7.76416E+03 -9.25689E+03  4.72731E+02
 -9.65487E+03 -1.13995E+04 -1.51067E+03 -1.92842E+04  1.20266E+04 -2.06991E+04  2.46404E+04 -1.06644E+04
  2.89331E+04  4.04138E+03  2.12336E+04  1.70221E+04  5.18823E+03  2.20727E+04 -1.06344E+04  1.99345E+04
 -1.55128E+04  5.13753E+03 -6.72441E+03 -5.38537E+03  4.56323E+03 -5.39350E+03  9.33783E+03 -1.55195E+03
  8.91218E+03  9.78024E+03 -2.83310E+02  1.30171E+04 -1.09018E+04  1.41633E+04 -2.06323E+04  3.10310E+03
 -1.38022E+04 -1.05807E+04 -7.10939E+02 -1.62203E+04  1.15557E+04 -9.25518E+03  1.34017E+04  7.11000E+03
  2.67780E+03  1.02023E+04 -8.71187E+03  1.44701E+04 -1.55449E+04  7.05124E+03 -1.74566E+04 -6.66974E+03
 -1.05974E+04 -2.01286E+04  5.25384E+03 -2.28962E+04  1.76146E+04 -1.43711E+04  2.14853E+04  3.83620E+03
  1.22645E+04  1.69449E+04 -3.10479E+03  1.79478E+04 -1.30235E+04  1.19339E+04 -1.78179E+04 -1.92803E+03
 -1.43698E+04 -1.30068E+04 -1.96148E+03 -1.46843E+04  9.45033E+03 -1.28171E+04  1.03619E+04 -4.86909E+03
  6.70632E+03  3.65924E+03 -7.40450E+02  3.03208E+03 -1.91245E+03 -5.61631E+03  5.35150E+03 -6.89441E+03
  1.48802E+04 -6.64969E+03  2.05875E+04  3.79615E+03  1.94445E+04  1.42422E+04  1.27519E+04  2.57818E+04
 -5.35613E+03  3.01087E+04 -2.58964E+04  2.20451E+04 -3.32528E+04  2.47261E+03 -2.71894E+04 -1.09164E+04
 -1.34585E+04 -2.18828E+04 -2.13192E+02 -1.75239E+04  6.43622E+03 -1.14609E+04  5.74066E+03 -7.78101E+03
  5.21953E+03 -3.89983E+03  2.98725E+03 -4.28121E+03  7.75491E+03 -5.90331E+03  9.92693E+03 -3.11111E+03
  1.43416E+04  3.42608E+03  7.02230E+03  1.37425E+04 -2.75103E+03  1.41325E+04 -1.26717E+04  1.23045E+04
 -1.79881E+04 -5.51346E+02 -1.32106E+04 -1.29402E+04 -1.34039E+03 -2.17992E+04  9.75246E+03 -2.17922E+04
  2.22761E+04 -1.18449E+04  2.57695E+04  4.00706E+03  1.76449E+04  1.71565E+04  3.25981E+03  2.46616E+04
 -1.01225E+04  1.80616E+04 -1.31937E+04  4.97127E+03 -1.13653E+04 -1.31135E+03 -4.70896E+03 -4.31943E+03
 -8.94630E+02  2.23044E+02 -4.47819E+03  3.70471E+03 -9.55079E+03  2.52713E+03 -1.17995E+04 -2.37119E+03
 -1.06443E+04 -1.26127E+04 -4.79700E+02 -2.02368E+04  1.13404E+04 -1.86271E+04  2.01020E+04 -4.44664E+03
  2.04498E+04  1.02589E+04  8.85625E+03  1.89918E+04 -3.33028E+03  1.94005E+04 -1.39327E+04  1.30440E+04
 -1.95605E+04  1.24663E+03 -1.50291E+04 -1.11243E+04 -9.80193E+02 -1.65340E+04  8.71061E+03 -1.23240E+04
  1.26094E+04 -2.62920E+03  7.95633E+03  2.99795E+03  4.50548E+03  6.65692E+03  2.41702E+03  2.13523E+03
  2.00720E+03  1.69319E+03  3.86765E+03  4.22848E+03  6.24953E+03  7.38306E+03  6.15385E+03  1.16850E+04
 -5.19649E+03  1.69480E+04 -1.28517E+04  1.66963E+04 -2.22036E+04  5.00897E+03 -2.26068E+04 -1.16544E+04
 -9.96763E+03 -1.94207E+04  2.72765E+03 -2.24111E+04  1.38654E+04 -1.55130E+04  1.71624E+04 -3.07441E+03
  1.36476E+04  7.05311E+03  2.67592E+03  1.26730E+04 -6.37043E+03  7.90510E+03 -1.13528E+04 -1.59035E+03
 -3.08663E+03 -8.83348E+03  5.00287E+03 -7.51040E+03  8.65947E+03 -4.24768E+03  8.20327E+03  1.55805E+03
  5.12840E+03  5.21945E+03  5.89563E+02  3.19396E+03 -1.88633E+03  3.52581E+03  1.98401E+03 -1.22020E+03
  2.29819E+03 -1.56887E+03  9.16254E+03  4.35326E+03  6.55419E+03  1.03530E+04 -2.99993E+03  1.30260E+04
 -1.08861E+04  8.52242E+03 -1.42400E+04  4.73403E+03 -1.11197E+04 -4.36633E+03 -5.69552E+03 -9.58192E+03
  6.83738E+01 -9.01360E+03  6.16831E+03 -2.46782E+03  3.99561E+03  5.31481E+03 -1.28312E+03  7.29654E+03
 -9.71909E+03  3.34885E+03 -8.81371E+03 -5.20239E+03 -5.25623E+03 -1.20973E+04  3.20933E+03 -1.19720E+04
  8.47538E+03 -7.31093E+03  8.42389E+03 -2.91030E+03  5.94457E+03  4.48799E+03 -5.17768E+02  8.57468E+03
 -3.79046E+03  4.13342E+03 -5.15114E+03 -5.17518E+03 -9.29837E+01 -1.00308E+04  1.02224E+04 -7.50462E+03
  1.36856E+04  2.08154E+03  1.23618E+04  9.74196E+03  3.32341E+03  1.61680E+04 -4.88015E+03  1.39344E+04
 -1.32676E+04  6.45679E+03 -1.20237E+04 -1.28775E+03 -6.69112E+03 -1.06943E+04  1.07148E+03 -8.27334E+03
  7.39370E+03 -5.78185E+03  6.60537E+03  2.47528E+03  2.20092E+03  8.45369E+03 -1.59298E+03  8.30184E+03
 -2.95706E+03  4.69528E+03 -4.51262E+03  1.21192E+03 -3.43929E+03  7.32192E+02 -1.37029E+03  3.54457E+03
 -6.09543E+03  4.92382E+03 -9.24374E+03  3.80637E+03 -1.45127E+04 -9.06601E+02 -1.55137E+04 -9.54225E+03
 -7.68892E+03 -1.90688E+04  4.71769E+03 -2.46625E+04  1.40196E+04 -1.66353E+04  2.08701E+04 -6.93245E+03
  2.00276E+04  5.14074E+03  1.41283E+04  1.47712E+04  2.63887E+02  1.64902E+04 -5.55893E+03  1.20712E+04
 -8.47862E+03  2.35972E+03 -6.66015E+03 -8.06994E+02 -1.43490E+03 -3.12380E+03 -9.64781E+02 -1.25749E+03
 -2.77801E+03  1.68171E+03 -4.72715E+03  3.90325E+02 -2.54917E+03 -3.54105E+03  8.66157E+02 -7.46612E+03
  6.86835E+03 -4.72602E+03  1.18316E+04  1.06454E+03  1.22311E+04  8.24218E+03  1.69680E+03  1.72789E+04
 -7.55313E+03  1.93460E+04 -1.80026E+04  1.12261E+04 -1.82991E+04 -1.24544E+03 -1.32356E+04 -1.09290E+04
 -4.37543E+03 -1.76905E+04  3.26261E+03 -1.47405E+04  8.72352E+03 -6.91916E+03  1.11684E+04  4.01978E+02
  3.67318E+03  5.30001E+03 -2.95781E+03  4.30055E+03 -2.56190E+03 -5.29877E+02 -6.69558E+02 -5.05116E+03
  3.42225E+03 -9.04612E+02  6.52386E+03  1.09741E+03  3.57064E+03  7.04838E+03  8.89360E+02  9.13647E+03
 -8.62394E+03  5.10248E+03 -1.08418E+04 -1.02080E+03 -1.19123E+04 -6.85742E+03 -1.23388E+03 -1.41287E+04
  7.97043E+03 -1.04348E+04  1.46321E+04 -4.17561E+03  1.27605E+04  4.47243E+03  6.66898E+03  1.01036E+04
 -4.63949E+02  1.08866E+04 -5.26675E+03  8.58000E+03 -8.19272E+03  4.66068E+03 -7.23596E+03  7.62486E+01
 -3.16541E+03 -1.53593E+03 -3.05893E+03  8.58468E+02 -5.75061E+03  3.38665E+03 -9.31942E+03 -1.68843E+03
 -7.62281E+03 -6.86540E+03 -1.85018E+03 -1.14916E+04  6.43337E+03 -1.15739E+04  9.78994E+03 -6.38594E+03
  9.93818E+03  1.54869E+03  6.55645E+03  1.00404E+04 -1.23054E+03  1.22999E+04 -9.68513E+03  9.34529E+03
