 $NMID ID='MM_0lb_SNR200_10hz_g55_24.RAW', FMTDAT='(8E13.5)'
 TRAMP=1., VOLUME=1. $END
  3.10149E+05  1.44026E+02  3.38547E+05  2.50392E+05  8.53335E+04  3.39234E+05 -1.33742E+05  2.52530E+05
 -1.92260E+05  8.34019E+04 -1.11980E+05 -3.28176E+04  5.53374E+02 -5.04654E+04  5.19728E+04 -1.31652E+03
  3.70222E+04  5.28261E+04 -1.69588E+04  7.59681E+04 -6.12201E+04  6.43322E+04 -8.44539E+04  3.25903E+04
 -8.38096E+04 -1.32168E+04 -5.81020E+04 -5.37838E+04 -1.63981E+04 -7.14799E+04  2.79425E+04 -4.62992E+04
  4.09151E+04  4.63868E+03  1.71728E+04  4.80959E+04 -3.46046E+04  4.83223E+04 -6.79255E+04 -7.94409E+02
 -5.68047E+04 -5.77387E+04 -6.82875E+03 -8.03389E+04  3.34523E+04 -5.66837E+04  5.02716E+04 -1.67174E+04
  4.61510E+04  1.29386E+04  3.33477E+04  2.73372E+04  1.60246E+04  3.14096E+04 -4.41322E+03  2.78845E+04
 -2.11760E+04  1.20992E+04 -1.89429E+04 -5.62374E+03  6.82358E+03 -7.34336E+03  2.35674E+04  1.30094E+04
  6.63913E+03  3.70971E+04 -3.35278E+04  3.72499E+04 -6.37882E+04  4.58488E+02 -5.85389E+04 -4.55244E+04
 -1.42050E+04 -6.49418E+04  3.99309E+04 -4.76855E+04  6.09050E+04 -1.47718E+03  3.81596E+04  3.48565E+04
 -6.17531E+03  3.81771E+04 -3.15932E+04  1.87192E+04 -3.32162E+04 -1.60856E+03 -1.95527E+04 -1.07819E+04
 -9.18190E+03 -1.34151E+04 -4.32660E+01 -2.02206E+04  7.73554E+03 -2.27462E+04  1.77407E+04 -1.15248E+04
  1.11404E+04  7.19388E+03 -1.18799E+04  1.35669E+04 -2.19534E+04 -4.53013E+03 -8.87655E+03 -3.73736E+04
  2.55027E+04 -4.86167E+04  5.13361E+04 -2.15990E+04  4.85254E+04  2.09083E+04  1.79808E+04  4.74446E+04
 -1.64411E+04  3.68310E+04 -2.92418E+04  2.18490E+03 -1.21533E+04 -2.98137E+04  2.06150E+04 -3.69665E+04
  4.41258E+04 -1.10825E+04  4.03864E+04  2.49829E+04  1.98382E+04  5.05752E+04 -8.51448E+03  5.50480E+04
 -3.50776E+04  3.73331E+04 -4.60098E+04  1.07981E+04 -4.64318E+04 -1.86276E+04 -2.51434E+04 -4.23591E+04
  8.90439E+03 -4.21562E+04  3.39503E+04 -1.64516E+04  3.27842E+04  1.30622E+04  3.93153E+03  2.16138E+04
 -1.50976E+04  9.59200E+03 -1.20064E+04 -7.70611E+03  5.31308E+03 -1.04554E+04  1.74290E+04  4.13594E+03
  1.45773E+04  2.25766E+04 -5.32684E+03  2.69010E+04 -2.22970E+04  1.43355E+04 -3.05772E+04 -4.72528E+03
 -2.57124E+04 -1.91054E+04 -1.17036E+04 -2.37658E+04  6.40455E+03 -2.40402E+04  1.85247E+04 -2.25436E+04
  3.00474E+04 -1.35243E+04  3.74317E+04  5.57304E+03  2.81679E+04  2.33056E+04  4.28797E+03  3.99921E+04
 -1.93603E+04  3.22573E+04 -2.96280E+04  1.29010E+04 -2.12519E+04 -1.06333E+04 -5.07496E+03 -1.29181E+04
  3.41285E+02 -2.77916E+03 -7.44728E+03  6.72363E+03 -2.03040E+04  6.00566E+03 -2.02223E+04 -1.00035E+04
 -1.15220E+04 -2.32186E+04  6.43347E+03 -2.77070E+04  1.76439E+04 -1.90465E+04  2.17158E+04 -1.65230E+03
  1.31729E+04  1.60522E+04 -1.64177E+03  2.36763E+04 -1.54789E+04  1.40679E+04 -2.29644E+04 -4.82245E+03
 -1.63131E+04 -2.08012E+04 -3.72277E+03 -2.69691E+04  1.28352E+04 -2.13235E+04  2.18967E+04 -1.20880E+04
  2.13218E+04 -1.08641E+03  1.62672E+04  4.45030E+03  7.60937E+03  9.85574E+02  1.22813E+04 -1.19326E+03
  2.21726E+04  1.51464E+03  2.53204E+04  1.77554E+04  1.61768E+04  3.67554E+04 -2.94694E+03  4.45897E+04
 -2.50256E+04  3.59814E+04 -4.25853E+04  1.88452E+04 -4.37865E+04 -9.12843E+02 -3.57342E+04 -2.53345E+04
 -1.46208E+04 -3.62611E+04  1.22947E+04 -3.14541E+04  2.92060E+04 -1.52999E+04  2.28086E+04  7.55830E+03
  8.63352E+03  1.81865E+04 -1.10305E+04  1.54558E+04 -1.97983E+04  1.60336E+03 -1.47779E+04 -1.15041E+04
  2.96524E+01 -2.00825E+04  1.04652E+04 -1.43148E+04  1.29948E+04 -6.71535E+02  3.52621E+03  6.74047E+03
 -8.56136E+03  3.69836E+03 -7.10023E+03 -7.45869E+03 -2.62735E+03 -1.91621E+04  1.20755E+04 -1.86697E+04
  2.16762E+04 -1.02470E+04  2.62236E+04  4.27658E+03  2.16287E+04  1.78790E+04  1.11598E+04  2.78193E+04
 -4.80602E+03  2.87388E+04 -2.05201E+04  1.75513E+04 -2.21269E+04  3.23869E+03 -1.47121E+04 -7.00358E+03
 -5.62650E+03 -6.58329E+03 -1.64050E+03  1.51872E+03 -1.83268E+03  3.01565E+03 -7.78707E+03  5.91179E+03
 -1.35936E+04 -1.05186E+03 -1.56550E+04 -1.14221E+04 -6.28244E+03 -1.94469E+04  5.84730E+03 -1.57098E+04
  1.22311E+04 -5.74791E+03  9.37450E+03  4.39316E+03 -6.62945E+02  6.15276E+03 -7.12266E+03 -6.56358E+02
 -8.35657E+03 -1.01595E+04 -1.92158E+03 -1.50951E+04  8.20334E+03 -1.62418E+04  1.86162E+04 -1.00680E+04
  2.26810E+04  2.24169E+03  1.63327E+04  1.49502E+04  3.49691E+03  1.80636E+04 -8.53379E+03  1.55782E+04
 -1.21220E+04  4.12718E+03 -7.14068E+03 -2.12684E+03  1.79767E+03 -3.53584E+03  7.07129E+03 -1.88435E+03
  6.28852E+03  7.16925E+03  4.55385E+02  1.27396E+04 -8.71298E+03  1.17942E+04 -1.50649E+04  3.10403E+03
 -9.19473E+03 -7.74989E+03  8.28662E+02 -1.14335E+04  9.61488E+03 -5.72367E+03  9.52056E+03  2.81967E+03
  3.23468E+03  9.75638E+03 -7.82503E+03  1.24405E+04 -1.19266E+04  5.07744E+03 -1.42750E+04 -4.10476E+03
 -6.93295E+03 -1.45864E+04  3.34784E+03 -1.70060E+04  1.51279E+04 -1.05682E+04  1.51755E+04  2.90317E+03
  1.03809E+04  1.16211E+04 -2.28754E+03  1.49233E+04 -1.09616E+04  7.63678E+03 -1.21178E+04 -2.85700E+02
 -1.13960E+04 -9.65070E+03 -6.40081E+02 -1.02646E+04  5.56018E+03 -7.32968E+03  6.49675E+03 -3.12684E+03
  4.73833E+03  7.44805E+02 -1.11379E+03  3.04098E+03 -3.53580E+02 -3.31301E+03  2.42325E+03 -5.98769E+03
  1.01693E+04 -4.97502E+03  1.54389E+04  1.35254E+03  1.39841E+04  1.10688E+04  1.12112E+04  1.94316E+04
 -5.19941E+03  2.34560E+04 -1.88223E+04  1.76190E+04 -2.58652E+04  2.87049E+03 -2.03084E+04 -9.19204E+03
 -1.09325E+04 -1.62547E+04 -1.08689E+03 -1.29440E+04  3.83347E+03 -7.47923E+03  3.81048E+03 -4.59942E+03
  3.86057E+03 -2.43775E+03  5.20201E+03 -3.61693E+03  4.93940E+03 -2.65941E+03  7.91825E+03 -2.05975E+03
  1.10857E+04  1.72323E+03  6.18628E+03  1.04477E+04 -1.55060E+03  9.87169E+03 -1.04949E+04  6.61251E+03
 -1.19239E+04 -3.23920E+02 -8.61223E+03 -9.75636E+03 -1.21168E+03 -1.49398E+04  7.04918E+03 -1.25792E+04
  1.55756E+04 -8.11736E+03  1.84576E+04  3.38936E+03  1.38138E+04  1.21683E+04  8.19192E+02  1.70808E+04
 -7.64590E+03  1.21786E+04 -1.00010E+04  5.32805E+03 -7.53935E+03 -1.66335E+03 -3.46849E+03 -3.18862E+03
 -2.04315E+03 -1.27094E+03 -1.19510E+03  2.49472E+03 -5.48449E+03  3.63311E+03 -9.78398E+03 -5.45298E+02
 -7.79866E+03 -8.57782E+03 -2.62682E+02 -1.45459E+04  7.77823E+03 -1.18072E+04  1.45356E+04 -5.09156E+03
  1.31792E+04  5.92611E+03  7.90900E+03  1.26408E+04 -2.33911E+03  1.41384E+04 -9.61110E+03  9.02703E+03
 -1.32094E+04 -2.58694E+02 -9.61508E+03 -7.50762E+03 -1.48241E+03 -1.25028E+04  4.60169E+03 -9.13119E+03
  1.03235E+04 -2.51162E+03  4.42082E+03  3.25518E+03  1.49862E+03  4.58666E+03  1.39808E+03  2.23489E+03
  2.38019E+03  2.45714E+02  1.53298E+03  9.83443E+02  3.13668E+03  3.02243E+03  2.88886E+03  7.74650E+03
 -2.90196E+03  1.12397E+04 -8.60474E+03  1.11406E+04 -1.33093E+04  4.02970E+03 -1.45620E+04 -6.51296E+03
 -7.69948E+03 -1.33732E+04  1.42169E+03 -1.63753E+04  8.23013E+03 -9.66065E+03  1.06911E+04 -2.32161E+03
  9.10924E+03  4.68535E+03  2.42889E+03  6.12907E+03 -3.33160E+03  6.67484E+03 -5.92531E+03 -1.77881E+02
 -2.94758E+03 -6.98560E+03  3.57213E+03 -5.32194E+03  6.42310E+03 -2.61745E+03  5.44451E+03  2.85225E+02
  2.91858E+03  2.12808E+03  1.12989E+03  2.03026E+03 -3.61747E+02  1.98239E+03  2.66606E+03  8.45561E+01
  2.42204E+03  2.56292E+02  4.64722E+03  1.57730E+03  3.33403E+03  7.70343E+03 -1.74315E+03  9.48764E+03
 -6.50568E+03  6.50599E+03 -8.82248E+03  1.55542E+03 -8.08673E+03 -2.76043E+03 -2.77766E+03 -4.49565E+03
  1.40477E+03 -4.32749E+03  4.55271E+03 -1.65735E+03  2.17934E+03  2.77959E+03 -1.19756E+03  6.25407E+03
 -5.14327E+03  1.91090E+03 -5.93407E+03 -3.02857E+03 -4.01476E+03 -8.86438E+03 -1.39588E+01 -8.59427E+03
  5.31854E+03 -5.02301E+03  5.54566E+03 -8.09354E+00  4.69683E+03  2.05780E+03 -7.95974E+02  5.41679E+03
 -1.31008E+03  1.56387E+03 -2.14666E+03 -2.22121E+03  1.69267E+03 -6.39682E+03  6.95665E+03 -1.34442E+03
  7.79492E+03  3.30143E+02  9.53390E+03  6.40227E+03  1.62899E+03  8.79291E+03 -3.42049E+03  7.49691E+03
 -7.71867E+03  4.97807E+03 -8.09553E+03 -7.17083E+02 -4.96036E+03 -5.78061E+03  3.52337E+02 -5.51860E+03
  6.45743E+03 -2.09220E+03  5.06817E+03  3.09363E+03  2.38959E+03  4.03021E+03 -7.91207E+02  3.66576E+03
 -9.78270E+02  2.41432E+03 -2.24311E+03  1.24449E+03 -1.06517E+03  1.49569E+03 -1.43823E+03  1.32501E+03
 -2.74151E+03  3.20482E+03 -5.39181E+03  4.53222E+03 -8.84601E+03  8.91284E+02 -1.05576E+04 -6.00612E+03
 -4.22302E+03 -1.26243E+04  9.88553E+02 -1.44588E+04  7.23104E+03 -1.06545E+04  1.31595E+04 -5.00529E+03
  1.26963E+04  2.70779E+03  6.96584E+03  8.38755E+03  1.04607E+03  7.75715E+03 -4.64069E+03  5.87820E+03
 -6.30391E+03  1.61869E+03 -2.90765E+03 -1.67220E+03 -7.18079E+02 -5.54341E+01 -1.01588E+03 -9.49521E+01
 -3.79701E+03 -6.18691E+02 -1.63954E+03 -2.02428E+02 -2.75154E+03 -3.05556E+03  6.93679E+02 -5.61347E+03
  4.90883E+03 -2.90286E+03  5.65058E+03  4.62627E+02  5.68477E+03  4.18401E+03  5.03050E+02  7.72053E+03
 -3.52765E+03  1.17408E+04 -1.00401E+04  5.81843E+03 -1.07375E+04 -2.10896E+03 -7.67265E+03 -5.89176E+03
 -3.41302E+03 -7.64743E+03  2.98519E+03 -8.58081E+03  6.99135E+03 -5.38353E+03  6.87217E+03 -3.11696E+02
  2.09153E+03  2.47511E+03 -1.89469E+03  3.54583E+03 -2.27919E+03 -9.23924E+02  3.34244E+02 -3.73118E+03
  2.86123E+03 -7.36362E+02  3.53495E+03  1.63390E+03  3.32283E+03  3.94120E+03 -8.57659E+02  4.25181E+03
 -4.23970E+03  3.70061E+03 -5.00892E+03 -2.70120E+02 -5.12043E+03 -4.91162E+03 -6.22927E+02 -7.05335E+03
  3.78376E+03 -8.21649E+03  9.23553E+03 -2.21566E+03  6.79861E+03  1.19249E+03  3.09008E+03  5.41650E+03
  7.14020E+02  6.14861E+03 -2.28710E+03  3.67220E+03 -3.67202E+03  3.59536E+03 -4.00509E+03  1.60934E+03
 -1.18017E+03 -2.04961E+02 -2.52640E+03  1.60609E+02 -1.88604E+03  1.08104E+03 -5.45134E+03  7.57911E+02
 -4.66951E+03 -1.70144E+03 -8.45003E+02 -5.53069E+03  2.74562E+03 -6.68749E+03  5.32280E+03 -4.36726E+03
  8.44838E+03 -6.03785E+02  2.27900E+03  4.45840E+03 -4.58198E+02  5.79221E+03 -4.56568E+03  3.35723E+03
