 $NMID ID='MM_0lb_SNR200_12hz_g60_28.RAW', FMTDAT='(8E13.5)'
 TRAMP=1., VOLUME=1. $END
  3.11278E+05  1.12022E+03  3.37791E+05  2.51008E+05  8.52032E+04  3.37691E+05 -1.32271E+05  2.51654E+05
 -1.91703E+05  8.27941E+04 -1.12704E+05 -3.30913E+04 -3.10810E+02 -5.03345E+04  5.47901E+04 -1.08716E+03
  3.49185E+04  5.27025E+04 -1.61241E+04  7.57082E+04 -6.10963E+04  6.46735E+04 -8.46435E+04  3.29570E+04
 -8.29641E+04 -1.28477E+04 -5.83004E+04 -5.23566E+04 -1.42752E+04 -7.07075E+04  2.81643E+04 -4.60132E+04
  4.05149E+04  4.30757E+03  1.76315E+04  4.90044E+04 -3.53156E+04  4.78592E+04 -6.67969E+04 -1.28176E+03
 -5.39107E+04 -5.81042E+04 -7.73990E+03 -7.85213E+04  3.30067E+04 -5.70096E+04  4.94809E+04 -1.81195E+04
  4.61754E+04  1.20878E+04  3.18205E+04  2.59641E+04  1.61115E+04  2.97429E+04 -6.56939E+03  2.69494E+04
 -2.22798E+04  1.19286E+04 -1.76735E+04 -5.34725E+03  8.27477E+03 -6.62918E+03  2.35656E+04  1.44997E+04
  7.97317E+03  3.63343E+04 -3.24679E+04  3.73308E+04 -6.53067E+04  2.20861E+03 -5.77736E+04 -4.49441E+04
 -1.33976E+04 -6.64493E+04  4.08495E+04 -4.86930E+04  5.94457E+04 -2.94845E+03  3.57015E+04  3.49019E+04
 -6.89130E+03  3.86607E+04 -3.02068E+04  1.79994E+04 -3.29919E+04 -3.90248E+03 -1.85832E+04 -1.18196E+04
 -8.99925E+03 -1.33365E+04  9.17429E+01 -1.91178E+04  8.89637E+03 -2.22727E+04  1.66383E+04 -1.27309E+04
  1.02341E+04  5.18550E+03 -9.44034E+03  1.33863E+04 -2.29436E+04 -6.06888E+03 -9.30430E+03 -3.61898E+04
  2.42673E+04 -4.61489E+04  5.08371E+04 -2.10236E+04  4.77791E+04  2.10798E+04  1.78304E+04  4.68324E+04
 -1.52554E+04  3.67891E+04 -2.67608E+04  2.79603E+03 -1.01577E+04 -2.92069E+04  2.21105E+04 -3.56081E+04
  4.38340E+04 -9.74651E+03  3.93029E+04  2.43005E+04  2.03237E+04  4.80973E+04 -8.72641E+03  5.32349E+04
 -3.37272E+04  3.71112E+04 -4.57568E+04  1.02724E+04 -4.66404E+04 -1.66167E+04 -2.55063E+04 -4.04490E+04
  7.52362E+03 -4.05964E+04  3.24451E+04 -1.70966E+04  3.03498E+04  1.20272E+04  6.14933E+03  2.07773E+04
 -1.43163E+04  9.62760E+03 -1.01796E+04 -7.56499E+03  6.75991E+03 -1.23960E+04  1.84594E+04  4.67978E+03
  1.39492E+04  2.28738E+04 -5.45711E+03  2.65458E+04 -2.37696E+04  1.44330E+04 -2.99072E+04 -4.67915E+03
 -2.41809E+04 -1.92425E+04 -1.00080E+04 -2.25811E+04  4.33320E+03 -2.39608E+04  1.75269E+04 -2.15215E+04
  3.04922E+04 -1.36126E+04  3.58426E+04  4.23675E+03  2.50759E+04  2.33594E+04  3.25448E+03  3.95678E+04
 -1.97912E+04  3.43977E+04 -2.88713E+04  1.21620E+04 -2.23361E+04 -1.13717E+04 -5.11198E+03 -1.26802E+04
  1.63212E+02 -1.02990E+03 -7.26327E+03  6.84809E+03 -1.85212E+04  5.38295E+03 -1.86284E+04 -8.16569E+03
 -1.07080E+04 -2.26200E+04  5.68815E+03 -2.68172E+04  1.76368E+04 -1.79630E+04  1.96048E+04 -2.81459E+03
  1.21187E+04  1.36953E+04 -1.09229E+03  2.25028E+04 -1.57082E+04  1.25685E+04 -2.13380E+04 -3.63714E+03
 -1.58936E+04 -1.98745E+04 -2.21906E+03 -2.58489E+04  1.17119E+04 -2.14700E+04  2.25208E+04 -1.03158E+04
  2.11668E+04 -5.70280E+02  1.46647E+04  4.67102E+03  7.06376E+03  9.19162E+02  1.17341E+04 -1.76598E+03
  1.91776E+04  2.23065E+03  2.20782E+04  1.69617E+04  1.50315E+04  3.42032E+04 -2.82941E+03  4.05212E+04
 -2.29106E+04  3.30055E+04 -3.76168E+04  1.79147E+04 -4.07632E+04 -3.26052E+03 -3.30177E+04 -2.41524E+04
 -1.32230E+04 -3.30401E+04  1.11220E+04 -2.79797E+04  2.59534E+04 -1.39302E+04  2.30938E+04  6.63483E+03
  8.33116E+03  1.81763E+04 -9.61963E+03  1.41479E+04 -1.79366E+04  2.57922E+03 -1.42221E+04 -1.15901E+04
  1.78183E+02 -1.74452E+04  1.02259E+04 -1.24186E+04  1.21270E+04 -1.91360E+03  3.90510E+03  7.09579E+03
 -8.63974E+03  3.37734E+03 -7.21051E+03 -7.76283E+03 -8.34535E+02 -1.54627E+04  1.05066E+04 -1.78451E+04
  1.94006E+04 -9.83849E+03  2.35178E+04  3.65796E+03  1.99507E+04  1.56524E+04  9.86161E+03  2.78907E+04
 -4.05570E+03  2.68954E+04 -1.76628E+04  1.73172E+04 -2.11018E+04  4.02478E+03 -1.33187E+04 -4.45437E+03
 -4.74130E+03 -5.64549E+03  9.99814E+02  3.75085E+02 -2.16088E+03  3.21815E+03 -8.06853E+03  4.66510E+03
 -1.31703E+04 -1.67676E+03 -1.18400E+04 -1.03650E+04 -6.85194E+03 -1.93103E+04  5.39170E+03 -1.52068E+04
  1.05475E+04 -5.51853E+03  8.36616E+03  3.00907E+03 -8.09907E+02  5.64123E+03 -6.37797E+03  2.07603E+02
 -4.87123E+03 -8.50014E+03 -1.86099E+03 -1.33171E+04  6.38267E+03 -1.35975E+04  1.69914E+04 -7.60298E+03
  2.11956E+04  3.51883E+03  1.48962E+04  1.21333E+04  3.69233E+03  1.69789E+04 -8.96497E+03  1.40118E+04
 -1.24492E+04  3.10306E+03 -5.92507E+03 -2.76147E+03  2.39634E+03 -2.93861E+03  7.97198E+03 -8.71546E+02
  6.97945E+03  7.06885E+03  1.38981E+03  8.86663E+03 -8.17394E+03  9.86216E+03 -1.38081E+04  2.60836E+03
 -8.39332E+03 -6.70881E+03  8.70863E+02 -1.21060E+04  8.03304E+03 -6.07549E+03  8.54468E+03  2.36059E+03
  1.65201E+03  7.79541E+03 -6.34895E+03  1.09954E+04 -1.18659E+04  4.00184E+03 -1.15880E+04 -3.41800E+03
 -6.48824E+03 -1.34517E+04  2.69420E+03 -1.49674E+04  1.15556E+04 -8.24782E+03  1.53128E+04  1.13344E+03
  8.78585E+03  1.05928E+04  8.23875E+02  1.34206E+04 -1.00227E+04  6.72823E+03 -9.11908E+03 -2.11789E+03
 -9.05751E+03 -7.22942E+03 -9.75461E+02 -9.15676E+03  4.88069E+03 -7.48191E+03  6.09400E+03 -4.79960E+03
  3.92430E+03  1.55432E+03 -9.78573E+02  2.52663E+03  4.55232E+01 -2.29553E+03  2.80147E+03 -6.20522E+03
  9.78150E+03 -2.95967E+03  1.46228E+04  2.05058E+03  1.24129E+04  8.32797E+03  9.13500E+03  1.62043E+04
 -4.13412E+03  1.92353E+04 -1.73558E+04  1.50390E+04 -1.99749E+04  3.77775E+03 -1.72440E+04 -7.10430E+03
 -9.59308E+03 -1.37845E+04 -1.91427E+03 -1.10563E+04  4.58977E+03 -7.35424E+03  2.78258E+03 -4.97874E+03
  2.73820E+03 -2.01682E+03  3.82500E+03 -2.70569E+03  6.24110E+03 -2.23416E+03  6.91521E+03 -4.39051E+02
  8.23310E+03  6.87487E+02  2.93778E+03  8.06970E+03 -2.82462E+03  8.73924E+03 -8.79347E+03  5.77337E+03
 -1.08298E+04 -9.44619E+02 -6.47003E+03 -7.36688E+03 -1.41598E+03 -1.23057E+04  5.58665E+03 -1.33295E+04
  1.33029E+04 -6.16843E+03  1.63326E+04  1.58475E+03  1.10584E+04  1.03301E+04  2.44545E+03  1.37443E+04
 -5.12644E+03  1.19361E+04 -8.36818E+03  4.19721E+03 -4.20732E+03 -1.55652E+03 -2.85749E+03 -1.48161E+03
 -7.44419E+02  2.50616E+02 -2.25741E+03  2.35088E+03 -5.62200E+03  2.48084E+03 -8.48678E+03 -7.38088E+02
 -6.10463E+03 -6.88473E+03  3.33931E+02 -1.13222E+04  7.31226E+03 -1.01120E+04  1.13669E+04 -3.18640E+03
  1.18549E+04  6.16368E+03  6.20759E+03  9.78409E+03 -2.16798E+03  1.16847E+04 -8.16989E+03  6.59815E+03
 -9.08226E+03  3.65992E+02 -8.18117E+03 -5.96138E+03  1.04641E+03 -9.10462E+03  5.58575E+03 -6.58369E+03
  5.85073E+03 -1.82094E+03  5.78191E+03  2.22098E+03  2.14369E+03  1.98745E+03  1.07566E+03  2.24732E+03
  2.39186E+03  4.92352E+02  2.35222E+03  8.68097E+02  5.10591E+03  5.15669E+03  3.87975E+03  6.33670E+03
 -2.54491E+03  9.09553E+03 -7.10958E+03  9.43761E+03 -1.04690E+04  2.10633E+03 -1.17236E+04 -5.04867E+03
 -5.80239E+03 -9.50043E+03  1.28446E+03 -1.22545E+04  6.30652E+03 -8.87351E+03  5.81843E+03 -4.16349E+03
  7.28927E+03  3.02461E+03  1.75755E+03  6.65793E+03 -2.16499E+03  4.00144E+03 -5.52308E+03 -3.16809E+02
 -1.66566E+03 -4.98396E+03  2.92324E+03 -4.41184E+03  4.00016E+03 -2.40567E+03  3.65020E+03  1.35571E+03
  3.28631E+03  1.78738E+03  2.62520E+03  1.48767E+03  5.47340E+02  7.35247E+02  1.45689E+03 -4.58116E+02
  9.63249E+02  1.03677E+02  5.36965E+03  1.96468E+03  2.57896E+03  6.98534E+03 -1.61124E+03  7.54041E+03
 -5.28387E+03  5.25100E+03 -6.63214E+03  1.55024E+03 -6.05005E+03 -2.57869E+03 -2.12593E+03 -3.80595E+03
  4.46452E+02 -4.87551E+03  1.54108E+03 -2.56548E+03  3.74975E+03  2.80818E+03 -1.92418E+03  3.42008E+03
 -5.22104E+03  7.27894E+02 -3.74669E+03 -3.49668E+03 -3.58606E+03 -6.22888E+03 -2.28576E+02 -4.60488E+03
  3.03008E+03 -3.05710E+03  3.19986E+03 -3.00192E+02  2.79616E+03  2.58351E+03  1.28197E+02  1.52420E+03
 -9.70130E+02  7.19398E+02 -2.85826E+03 -1.44754E+03  1.11471E+03 -3.61415E+03  6.67741E+03 -3.30206E+03
  5.19747E+03  3.72474E+02  7.56184E+03  3.99629E+03  2.14946E+03  6.03224E+03 -2.51307E+03  5.91802E+03
 -5.98788E+03  2.44969E+03 -4.90768E+03  2.22896E+02 -2.74471E+03 -5.64116E+03  1.80189E+03 -2.88009E+03
  4.58672E+03 -2.84894E+03  3.70142E+03  2.35795E+03  2.06015E+03  3.84591E+03  9.22661E+01  2.61974E+03
 -1.18183E+03  1.70317E+03 -1.48830E+03  1.83064E+02 -2.53889E+02  8.14188E+02 -2.14849E+03  1.37408E+03
 -5.61910E+02  2.16475E+03 -4.36070E+03  2.03014E+03 -6.53233E+03 -1.91702E+02 -7.36379E+03 -3.82656E+03
 -4.18653E+03 -8.32511E+03  3.80044E+03 -1.05665E+04  5.37970E+03 -8.34904E+03  9.62808E+03 -2.12942E+03
  8.46650E+03  9.95123E+02  4.81183E+03  6.18813E+03 -8.84375E+02  6.18267E+03 -1.79686E+03  4.48570E+03
 -4.39818E+03  9.67392E+02 -8.88381E+02 -4.16071E+02 -1.71853E+03 -1.44666E+03  1.11957E+02 -6.90540E+01
 -9.03968E+02  1.73404E+02 -1.78445E+03 -9.16293E+02 -4.55055E+02 -1.78467E+03 -1.81229E+03 -4.25130E+03
  4.31386E+03 -1.77468E+03  3.85579E+03 -9.04557E+02  4.33741E+03  3.39478E+03  1.54080E+03  6.50158E+03
 -3.73654E+03  7.50038E+03 -6.07797E+03  5.57565E+03 -8.11061E+03 -6.44358E+02 -6.80346E+03 -4.33373E+03
 -3.06504E+03 -5.86527E+03  7.15211E+02 -6.36177E+03  3.99608E+03 -3.27211E+03  4.70939E+03  7.36469E+01
  3.21689E+03  2.35273E+03  7.73921E+02  1.13847E+03 -2.53103E+03 -1.21730E+03 -5.00783E+02 -2.04396E+03
  2.14293E+03 -6.56874E+02  2.11755E+03  2.23443E+03  1.76440E+03  3.16080E+03  5.60278E+02  2.85800E+03
 -3.23973E+03  2.58850E+03 -4.11169E+03 -2.36929E+01 -4.09079E+03 -2.45696E+03 -1.21835E+03 -6.69635E+03
  1.77914E+03 -3.11568E+03  4.14623E+03 -6.20544E+02  4.46085E+03 -5.89983E+02  4.01138E+03  4.27311E+03
  6.86190E+02  3.64274E+03 -8.05568E+02  4.10937E+03 -2.81926E+03  1.74508E+03 -3.27794E+03  1.04924E+03
 -2.26815E+03 -5.53454E+02 -1.65506E+03  1.19724E+03 -2.25363E+03  4.10483E+02 -2.29143E+03 -1.43555E+03
 -3.80323E+03 -1.35815E+03 -1.46624E+03 -4.60051E+03  2.35389E+03 -4.37539E+03  3.69061E+03 -2.09524E+03
  3.89458E+03 -6.28383E+02  7.87569E+02  2.88996E+03 -6.99213E+02  4.67497E+03 -3.07827E+03  3.15224E+03
