 $NMID ID='MM_0lb_SNR200_10hz_g50_88.RAW', FMTDAT='(8E13.5)'
 TRAMP=1., VOLUME=1. $END
  3.09861E+05  7.50764E+02  3.36655E+05  2.49745E+05  8.59616E+04  3.38225E+05 -1.32925E+05  2.51169E+05
 -1.91109E+05  8.41075E+04 -1.12402E+05 -3.19414E+04  1.33330E+03 -5.01683E+04  5.22730E+04 -4.81550E+02
  3.44291E+04  5.27594E+04 -1.70897E+04  7.58225E+04 -6.04918E+04  6.55731E+04 -8.66014E+04  3.31156E+04
 -8.25325E+04 -1.20346E+04 -5.80124E+04 -5.24998E+04 -1.29332E+04 -6.98382E+04  2.71909E+04 -4.53592E+04
  4.08302E+04  3.64057E+03  1.65631E+04  5.03750E+04 -3.38974E+04  4.77551E+04 -6.77257E+04 -7.41747E+02
 -5.44227E+04 -5.76434E+04 -4.85415E+03 -7.86240E+04  3.42818E+04 -5.38400E+04  4.80430E+04 -1.70154E+04
  4.61768E+04  1.07086E+04  3.22372E+04  2.73432E+04  1.71170E+04  3.02916E+04 -5.83664E+03  2.84596E+04
 -2.12321E+04  1.22012E+04 -1.92256E+04 -4.95532E+03  7.15739E+03 -8.39979E+03  2.26101E+04  1.41362E+04
  7.11548E+03  3.86228E+04 -3.23806E+04  3.66015E+04 -6.59664E+04  1.36353E+03 -5.86653E+04 -4.48595E+04
 -1.27014E+04 -6.45598E+04  3.94613E+04 -4.70425E+04  6.12392E+04 -2.12171E+03  3.57643E+04  3.45645E+04
 -5.26022E+03  3.94283E+04 -3.24713E+04  1.72849E+04 -3.26125E+04 -3.37501E+03 -1.89322E+04 -1.18397E+04
 -9.99885E+03 -1.47803E+04  2.63997E+02 -1.91573E+04  8.55186E+03 -2.34903E+04  1.53749E+04 -1.31644E+04
  9.93818E+03  5.73620E+03 -9.78031E+03  1.34593E+04 -2.42347E+04 -7.25001E+03 -9.40380E+03 -3.57473E+04
  2.56023E+04 -4.58827E+04  5.09530E+04 -2.21610E+04  4.74618E+04  1.99919E+04  1.57109E+04  4.65876E+04
 -1.67999E+04  3.51013E+04 -2.96798E+04  2.04638E+03 -1.00143E+04 -2.93326E+04  2.16420E+04 -3.66796E+04
  4.38793E+04 -1.07566E+04  3.93122E+04  2.46795E+04  2.17716E+04  4.96919E+04 -7.22837E+03  5.46931E+04
 -3.53094E+04  3.71720E+04 -4.59534E+04  1.07273E+04 -4.57596E+04 -1.77888E+04 -2.54114E+04 -4.08272E+04
  6.44063E+03 -4.01852E+04  3.44276E+04 -1.65544E+04  3.24816E+04  1.10241E+04  4.52477E+03  1.99786E+04
 -1.32296E+04  9.83247E+03 -1.12148E+04 -9.46316E+03  6.04581E+03 -1.17299E+04  1.91715E+04  7.02415E+03
  1.50360E+04  2.28385E+04 -5.33868E+03  2.67748E+04 -2.36652E+04  1.36822E+04 -2.91074E+04 -3.10368E+03
 -2.35499E+04 -1.83537E+04 -9.60971E+03 -2.49017E+04  3.28883E+03 -2.37121E+04  2.12729E+04 -2.32662E+04
  3.10300E+04 -1.28528E+04  3.67393E+04  5.18578E+03  2.57708E+04  2.21990E+04  4.20509E+03  3.97792E+04
 -1.82493E+04  3.38458E+04 -2.88628E+04  1.15656E+04 -2.34071E+04 -9.07597E+03 -5.26273E+03 -1.12454E+04
  7.18588E+02 -1.85251E+03 -6.63262E+03  8.15111E+03 -1.89537E+04  4.24429E+03 -1.85779E+04 -8.12893E+03
 -1.17169E+04 -2.24111E+04  6.29128E+03 -2.88975E+04  1.84908E+04 -1.91840E+04  2.25036E+04 -2.32122E+03
  1.61008E+04  1.60699E+04 -1.16780E+03  2.24384E+04 -1.54382E+04  1.23738E+04 -2.28437E+04 -4.68696E+03
 -1.49893E+04 -1.84628E+04 -3.28039E+03 -2.55882E+04  1.25460E+04 -2.39690E+04  2.32722E+04 -9.94284E+03
  2.13628E+04 -5.25398E+02  1.54181E+04  3.07406E+03  7.99068E+03  1.12245E+01  1.04608E+04 -3.01588E+03
  2.13071E+04  2.36448E+03  2.50255E+04  1.76405E+04  1.60152E+04  3.52293E+04 -1.81985E+03  4.18880E+04
 -2.61633E+04  3.41635E+04 -3.99404E+04  1.74180E+04 -4.20451E+04 -3.35257E+03 -3.46855E+04 -2.49742E+04
 -1.48680E+04 -3.43604E+04  1.30528E+04 -3.00277E+04  2.69408E+04 -1.45045E+04  2.35249E+04  7.06375E+03
  9.08807E+03  1.80807E+04 -1.05403E+04  1.51619E+04 -1.92435E+04  2.32108E+03 -1.49454E+04 -1.13241E+04
 -1.02244E+03 -1.89621E+04  8.64294E+03 -1.37726E+04  1.13885E+04 -1.24780E+03  3.05443E+03  1.05538E+04
 -8.34419E+03  2.79220E+03 -7.45948E+03 -6.75568E+03 -2.05721E+03 -1.69267E+04  1.17182E+04 -1.81697E+04
  2.25689E+04 -1.08761E+04  2.40407E+04  1.99864E+03  2.19914E+04  1.83851E+04  9.45981E+03  2.73186E+04
 -3.67401E+03  2.93059E+04 -1.86659E+04  1.78069E+04 -2.06312E+04  2.88789E+03 -1.50352E+04 -5.27478E+03
 -7.17283E+03 -6.36556E+03 -4.25208E+02  6.48066E+02 -3.36144E+03  3.47881E+03 -7.19100E+03  4.59083E+03
 -1.40646E+04 -2.00670E+03 -1.60172E+04 -1.01582E+04 -6.66564E+03 -1.78076E+04  4.67738E+03 -1.56831E+04
  1.24028E+04 -6.85549E+03  7.51099E+03  4.68151E+03 -7.31636E+02  5.66711E+03 -8.47239E+03  2.90351E+02
 -7.90489E+03 -9.58676E+03 -1.28652E+03 -1.48203E+04  9.11623E+03 -1.55369E+04  2.03229E+04 -8.90308E+03
  2.18035E+04  1.01582E+03  1.49227E+04  1.29858E+04  2.63612E+03  1.67048E+04 -9.58021E+03  1.45637E+04
 -1.07687E+04  3.75670E+03 -5.38396E+03 -3.32518E+03  3.24493E+03 -3.42712E+03  6.38389E+03 -2.10485E+03
  5.95509E+03  6.86941E+03  2.75237E+03  1.44192E+04 -8.68517E+03  9.75243E+03 -1.31187E+04  3.14370E+03
 -1.09476E+04 -7.24825E+03  5.09666E+01 -1.28315E+04  7.07322E+03 -7.78345E+03  8.00477E+03  1.89717E+03
  3.08674E+03  8.42958E+03 -7.66335E+03  1.13957E+04 -1.20913E+04  4.86733E+03 -1.15534E+04 -4.19376E+03
 -8.41576E+03 -1.53471E+04  3.99165E+03 -1.58565E+04  1.37272E+04 -8.49271E+03  1.40331E+04  3.20189E+03
  8.96567E+03  1.29706E+04 -3.46240E+01  1.48048E+04 -1.21139E+04  8.96121E+03 -1.27335E+04 -8.07079E+02
 -1.04297E+04 -1.04487E+04 -2.15321E+03 -1.04809E+04  6.19614E+03 -8.50643E+03  7.38147E+03 -3.81106E+03
  4.77834E+03  1.85151E+03 -1.25614E+03  1.69163E+03 -8.05358E+02 -1.49780E+03  1.08142E+03 -6.69178E+03
  9.84614E+03 -6.15201E+03  1.35148E+04  1.05586E+03  1.31980E+04  1.01823E+04  9.22489E+03  1.83205E+04
 -5.59849E+03  2.32938E+04 -1.88631E+04  1.44381E+04 -2.30331E+04  2.12682E+03 -1.90815E+04 -7.88574E+03
 -9.37492E+03 -1.62383E+04 -4.26928E+02 -1.27304E+04  3.19751E+03 -6.96795E+03  5.46932E+03 -5.43028E+03
  3.07903E+03 -2.36660E+03  3.60706E+03 -4.49782E+03  7.04357E+03 -4.66118E+03  7.48851E+03 -2.63132E+03
  9.10920E+03  2.60832E+03  4.62644E+03  8.48032E+03 -1.77051E+03  1.04899E+04 -1.09800E+04  7.29609E+03
 -1.27799E+04 -2.14834E+03 -9.01964E+03 -8.45275E+03 -2.26450E+03 -1.41524E+04  8.69495E+03 -1.49595E+04
  1.50949E+04 -7.46891E+03  1.84552E+04  2.69529E+03  1.25492E+04  1.36753E+04  1.62891E+03  1.63476E+04
 -6.08192E+03  1.40380E+04 -9.96864E+03  3.33380E+03 -5.81158E+03 -2.95411E+03 -9.44363E+02 -2.84708E+03
 -5.93418E+02 -1.85444E+03 -2.12048E+03  3.34015E+03 -5.55833E+03  3.16363E+03 -8.71509E+03 -2.51261E+03
 -6.31523E+03 -8.23803E+03  8.02514E+02 -1.32180E+04  7.14764E+03 -1.26414E+04  1.18060E+04 -4.74760E+03
  1.23804E+04  5.88823E+03  6.43904E+03  1.22100E+04 -1.31771E+03  1.23351E+04 -8.85642E+03  7.08785E+03
 -1.34156E+04  9.96570E+02 -9.77561E+03 -7.20102E+03 -1.54328E+03 -1.07223E+04  4.63727E+03 -7.10519E+03
  8.16952E+03 -3.01030E+03  5.95998E+03  2.29253E+03  3.56367E+03  4.49959E+03 -1.37527E+01  1.61289E+03
  2.38753E+03  1.21190E+03  3.35575E+03  8.99308E+02  3.18703E+03  5.75139E+03  3.43426E+03  6.84019E+03
 -3.29878E+03  1.04817E+04 -8.26235E+03  1.06851E+04 -1.30773E+04  3.27703E+03 -1.41148E+04 -6.04100E+03
 -6.54767E+03 -1.37091E+04  1.90743E+03 -1.50516E+04  7.19582E+03 -9.63419E+03  1.16774E+04 -7.16230E+02
  8.85780E+03  5.10385E+03  1.72154E+03  6.82558E+03 -3.60576E+03  4.73813E+03 -7.35135E+03 -6.84050E+02
 -2.02582E+03 -5.43710E+03  2.07038E+03 -5.38054E+03  6.66203E+03 -2.01493E+03  4.59212E+03  1.62560E+03
  3.87575E+03  2.86981E+03  1.97229E+03  1.94083E+03 -1.21882E+03  2.13258E+03  1.96330E+03 -2.38240E+03
  1.98559E+03 -1.52943E+03  5.23523E+03  1.83066E+03  3.30505E+03  7.97671E+03 -1.56590E+03  9.72512E+03
 -6.85594E+03  4.69334E+03 -8.47217E+03  1.43830E+03 -7.94203E+03 -2.82154E+03 -3.43664E+03 -4.77307E+03
  1.62894E+03 -5.28528E+03  2.85623E+03 -1.67518E+03  1.53725E+03  2.13651E+03 -1.54750E+03  5.58036E+03
 -6.51792E+03  3.79837E+03 -6.68363E+03 -3.30933E+03 -3.74607E+03 -7.98629E+03  2.95787E+02 -6.77194E+03
  4.79200E+03 -5.85552E+03  4.46505E+03 -1.31633E+03  3.20619E+03  2.98904E+03  1.25021E+03  4.34409E+03
 -2.32581E+03  1.26635E+03 -2.88547E+03 -1.71722E+03  1.13099E+03 -5.91494E+03  5.73538E+03 -4.41762E+03
  7.26988E+03  1.85656E+02  8.43912E+03  5.15289E+03  2.39678E+03  8.49903E+03 -2.59633E+03  8.07723E+03
 -5.80256E+03  3.54918E+03 -6.99573E+03 -3.04567E+03 -3.14687E+03 -5.03240E+03  3.43702E+02 -4.11968E+03
  5.50712E+03 -3.16539E+03  4.31674E+03  2.54909E+03  2.59713E+03  6.02441E+03 -1.84945E+03  2.84460E+03
 -2.49817E+03  2.72660E+03 -1.11274E+03  1.04707E+03 -9.55625E+02  7.45614E+02 -1.27185E+03  1.42549E+03
 -1.09703E+03  2.78613E+03 -6.58637E+03  3.11628E+03 -8.96925E+03  1.53117E+03 -8.95434E+03 -3.63472E+03
 -5.30067E+03 -1.12812E+04  1.76261E+03 -1.38775E+04  8.18459E+03 -8.89454E+03  1.12637E+04 -3.55055E+03
  1.23028E+04  2.24767E+03  6.47231E+03  8.69644E+03  8.14529E+02  8.11398E+03 -4.87895E+03  6.23215E+03
 -5.29633E+03  2.36258E+03 -4.54634E+03 -2.15274E+03 -6.82914E+02 -1.34688E+03 -4.85689E+02 -6.45928E+02
 -2.57347E+03  9.84791E+02 -3.42105E+03 -4.79431E+02 -1.15581E+03 -2.13021E+03 -8.51640E+00 -3.55518E+03
  5.04392E+03 -2.99472E+03  4.92227E+03  2.58964E+02  5.87374E+03  5.53718E+03 -9.18583E+02  8.49660E+03
 -4.07098E+03  9.24475E+03 -7.18992E+03  3.72652E+03 -1.09262E+04 -1.11003E+03 -7.09992E+03 -6.48699E+03
 -4.53385E+03 -1.01346E+04  1.71649E+03 -7.60006E+03  6.28944E+03 -3.65589E+03  6.76551E+03  3.87794E+02
  3.08616E+03  2.43749E+03 -3.35025E+02  5.44551E+02 -1.80699E+03 -9.61567E+01  4.47502E+02 -1.62668E+03
  3.11724E+03 -1.64958E+03  4.41506E+03 -2.60153E+02  2.61318E+03  3.78908E+03  1.44346E+02  5.37969E+03
 -4.40428E+03  4.37382E+03 -4.81505E+03  2.42049E+02 -5.59286E+03 -3.92263E+03 -1.34799E+03 -7.32977E+03
  4.70040E+03 -6.33781E+03  6.82494E+03 -2.07037E+03  6.35657E+03  1.45851E+03  3.82528E+03  4.91913E+03
  3.39214E+02  7.12897E+03 -2.12925E+03  4.83510E+03 -1.35799E+03  2.00963E+03 -3.41866E+03  6.16780E+02
 -1.85072E+03 -6.32251E+02 -5.73180E+02  1.62264E+02 -3.40114E+03  4.55306E+02 -5.32514E+03 -1.78969E+03
 -3.16901E+03 -3.38099E+03 -2.24265E+03 -5.33479E+03  2.88633E+03 -6.15855E+03  5.04625E+03 -2.70613E+03
  5.99681E+03  1.22359E+03  2.56354E+03  3.31651E+03 -1.76653E+03  5.10408E+03 -3.88715E+03  3.91608E+03
