 $NMID ID='MM_0lb_SNR200_8hz_g55_29.RAW', FMTDAT='(8E13.5)'
 TRAMP=1., VOLUME=1. $END
  3.10222E+05  3.69853E+02  3.38730E+05  2.50624E+05  8.50587E+04  3.39542E+05 -1.31890E+05  2.51789E+05
 -1.91531E+05  8.38692E+04 -1.10242E+05 -3.11908E+04  6.96890E+02 -5.27399E+04  5.28223E+04 -2.67552E+03
  3.65366E+04  5.31248E+04 -1.64178E+04  7.78926E+04 -6.16060E+04  6.46277E+04 -8.60824E+04  3.28239E+04
 -8.38580E+04 -1.27909E+04 -5.77910E+04 -5.30600E+04 -1.66559E+04 -7.15385E+04  2.81340E+04 -4.81506E+04
  4.13759E+04  3.96527E+03  1.80540E+04  4.91260E+04 -3.58003E+04  4.73179E+04 -6.84582E+04 -7.44323E+01
 -5.58136E+04 -5.79828E+04 -5.95656E+03 -8.12941E+04  3.27654E+04 -5.64621E+04  4.92998E+04 -1.91696E+04
  4.53550E+04  1.17820E+04  3.34714E+04  2.74692E+04  1.79335E+04  3.12236E+04 -4.10101E+03  2.91893E+04
 -2.00514E+04  1.38851E+04 -1.97410E+04 -6.20782E+03  9.38649E+03 -6.79407E+03  2.38098E+04  1.53605E+04
  6.68174E+03  3.77261E+04 -3.45859E+04  3.63770E+04 -6.62584E+04  1.64940E+03 -5.79356E+04 -4.57053E+04
 -1.32383E+04 -6.72707E+04  4.25033E+04 -4.99082E+04  6.25938E+04 -1.96775E+03  3.90116E+04  3.54660E+04
 -5.18478E+03  3.97253E+04 -3.15765E+04  1.93034E+04 -3.51812E+04 -3.27437E+03 -2.07304E+04 -1.26147E+04
 -9.63644E+03 -1.66312E+04 -1.81530E+02 -2.10654E+04  9.04749E+03 -2.29919E+04  1.50780E+04 -1.44623E+04
  9.31461E+03  5.68944E+03 -1.13860E+04  1.35199E+04 -2.50020E+04 -6.94607E+03 -1.01626E+04 -3.79652E+04
  2.43455E+04 -4.98664E+04  5.28751E+04 -2.08674E+04  4.77433E+04  2.13073E+04  1.87264E+04  4.80548E+04
 -1.64465E+04  3.78390E+04 -2.71289E+04  2.46477E+03 -1.31056E+04 -3.10979E+04  2.09659E+04 -3.72608E+04
  4.48094E+04 -1.12792E+04  4.09542E+04  2.53833E+04  2.27626E+04  5.33856E+04 -8.41795E+03  5.94346E+04
 -3.84201E+04  3.89609E+04 -4.78183E+04  1.29870E+04 -4.91893E+04 -1.97392E+04 -2.76789E+04 -4.40958E+04
  8.06326E+03 -4.18978E+04  3.47416E+04 -1.59646E+04  3.19763E+04  1.18718E+04  5.38895E+03  2.20465E+04
 -1.31623E+04  9.38965E+03 -1.13952E+04 -8.13532E+03  4.82938E+03 -1.11899E+04  1.75673E+04  7.71189E+03
  1.51400E+04  2.38821E+04 -5.40908E+03  2.56889E+04 -2.37479E+04  1.49698E+04 -3.32663E+04 -2.70573E+03
 -2.54954E+04 -1.95602E+04 -1.18741E+04 -2.61953E+04  5.69002E+03 -2.68086E+04  1.89059E+04 -2.45989E+04
  3.55154E+04 -1.50551E+04  3.81985E+04  6.34567E+03  2.78560E+04  2.56902E+04  2.74611E+03  4.24181E+04
 -1.88334E+04  3.57521E+04 -3.18034E+04  1.31298E+04 -2.25829E+04 -9.71303E+03 -3.46995E+03 -1.41301E+04
 -2.59033E+02 -4.46862E+02 -8.39352E+03  6.84154E+03 -2.15140E+04  5.64308E+03 -2.10085E+04 -9.70519E+03
 -1.29914E+04 -2.35996E+04  6.29075E+03 -2.84196E+04  1.77995E+04 -2.10211E+04  2.19666E+04 -4.28373E+02
  1.51383E+04  1.76030E+04 -2.00628E+03  2.33580E+04 -1.81609E+04  1.41268E+04 -2.48209E+04 -5.49369E+03
 -1.69839E+04 -2.28740E+04 -1.27141E+03 -2.86453E+04  1.43849E+04 -2.34045E+04  2.52478E+04 -1.23694E+04
  2.43673E+04 -1.36495E+03  1.85757E+04  5.92207E+03  1.06619E+04  1.36915E+03  1.27050E+04 -2.22281E+02
  2.32582E+04  2.36404E+03  2.82901E+04  1.88249E+04  1.79379E+04  4.04710E+04 -9.98429E+02  4.72678E+04
 -2.68908E+04  4.01210E+04 -4.34945E+04  2.12901E+04 -4.98050E+04 -3.86648E+03 -3.91989E+04 -2.77133E+04
 -1.42374E+04 -4.06617E+04  1.38388E+04 -3.40465E+04  3.02469E+04 -1.62613E+04  2.51881E+04  9.34080E+03
  8.08404E+03  2.10203E+04 -1.22514E+04  1.69629E+04 -2.21522E+04  3.36618E+03 -1.40987E+04 -1.37266E+04
  6.98941E+02 -2.01578E+04  1.30320E+04 -1.60956E+04  1.21689E+04 -1.82097E+03  3.32216E+03  1.03764E+04
 -9.88783E+03  3.59630E+03 -9.58060E+03 -8.77794E+03 -1.58613E+03 -1.89184E+04  1.36701E+04 -2.16550E+04
  2.55138E+04 -1.34018E+04  2.86242E+04  4.78654E+03  2.57213E+04  1.97697E+04  1.17337E+04  3.24329E+04
 -7.63253E+03  3.44496E+04 -2.28200E+04  2.26385E+04 -2.40596E+04  1.98584E+03 -1.73966E+04 -5.46139E+03
 -7.11477E+03 -8.92707E+03 -1.00343E+03 -5.44389E+02 -3.34594E+03  4.98080E+03 -8.12118E+03  4.47847E+03
 -1.46591E+04 -2.47080E+03 -1.57339E+04 -1.15274E+04 -7.41622E+03 -2.05769E+04  5.91526E+03 -1.71818E+04
  1.28061E+04 -7.07366E+03  9.87946E+03  6.19417E+03 -4.46819E+02  5.58617E+03 -8.40887E+03  1.02984E+02
 -6.38018E+03 -1.12795E+04 -6.05534E+02 -1.73783E+04  1.13467E+04 -1.87978E+04  2.21792E+04 -8.93659E+03
  2.52599E+04  4.07544E+03  1.91867E+04  1.57546E+04  3.45556E+03  2.02425E+04 -1.05176E+04  1.61682E+04
 -1.39332E+04  5.26406E+03 -6.83427E+03 -3.77161E+03  4.11617E+03 -4.84290E+03  7.95230E+03 -1.20881E+03
  9.82373E+03  6.74999E+03  7.60251E+02  1.37688E+04 -1.06278E+04  1.36878E+04 -1.74608E+04  2.96655E+03
 -1.24267E+04 -8.33948E+03  1.34656E+03 -1.45141E+04  8.88941E+03 -8.75152E+03  1.17241E+04  5.24312E+03
  3.31134E+03  1.14845E+04 -9.07116E+03  1.21411E+04 -1.46124E+04  4.26438E+03 -1.61759E+04 -6.62595E+03
 -9.08201E+03 -1.75212E+04  4.48448E+03 -2.10309E+04  1.85556E+04 -1.06892E+04  2.08374E+04  2.54313E+03
  1.15074E+04  1.46185E+04 -4.34625E+03  1.79187E+04 -1.28352E+04  1.07150E+04 -1.47596E+04  3.54986E+02
 -1.15175E+04 -1.24883E+04 -2.17661E+03 -1.33166E+04  8.89432E+03 -1.19448E+04  8.51621E+03 -3.98612E+03
  5.35862E+03  4.03604E+03 -9.16719E+02  5.28778E+02 -1.54382E+03 -4.14422E+03  4.19399E+03 -8.77925E+03
  1.19569E+04 -7.00063E+03  1.83404E+04  2.34753E+03  1.73806E+04  1.33234E+04  9.89359E+03  2.52730E+04
 -4.04214E+03  2.65007E+04 -2.35392E+04  2.15434E+04 -2.93272E+04  3.38838E+03 -2.49682E+04 -1.10346E+04
 -1.30657E+04 -2.00418E+04 -3.16145E+02 -1.66027E+04  7.03275E+03 -9.31295E+03  6.11574E+03 -6.93388E+03
  4.87087E+03 -4.88526E+03  2.83749E+03 -5.59564E+03  6.55195E+03 -4.31195E+03  1.02243E+04 -3.11080E+03
  1.29732E+04  2.75403E+03  6.57508E+03  1.12449E+04 -2.38908E+03  1.37449E+04 -1.32610E+04  6.91122E+03
 -1.67146E+04 -2.68006E+03 -1.17840E+04 -1.38965E+04 -2.02801E+03 -1.77324E+04  9.48816E+03 -1.74532E+04
  1.85715E+04 -9.99824E+03  2.31545E+04  4.00596E+03  1.69389E+04  1.47601E+04  2.30737E+03  2.07089E+04
 -9.73131E+03  1.55781E+04 -1.28733E+04  7.98265E+03 -9.62192E+03 -1.94633E+03 -5.16705E+03 -2.89591E+03
 -5.92010E+02  8.55518E+02 -3.51702E+03  3.72534E+03 -7.28473E+03  2.50967E+03 -1.14748E+04 -2.28887E+03
 -9.67938E+03 -1.17088E+04 -4.18590E+02 -1.69540E+04  9.94812E+03 -1.45659E+04  1.76538E+04 -6.20069E+03
  1.74817E+04  8.79922E+03  7.26610E+03  1.48202E+04 -1.14969E+03  1.89264E+04 -1.28346E+04  1.15181E+04
 -1.67422E+04  4.54836E+02 -1.21934E+04 -8.97670E+03 -2.94590E+03 -1.53818E+04  6.85925E+03 -1.09500E+04
  1.04591E+04 -3.98067E+03  9.55067E+03  2.24307E+03  1.48562E+03  5.04105E+03  1.46180E+03  3.87055E+03
  4.29702E+03  1.91594E+03  4.26060E+03  3.27771E+03  5.17474E+03  6.31143E+03  5.45913E+03  8.11494E+03
 -5.66375E+03  1.44823E+04 -1.30756E+04  1.30294E+04 -1.75999E+04  3.46298E+03 -2.00546E+04 -5.22886E+03
 -9.47274E+03 -1.62554E+04  2.91639E+03 -2.02341E+04  1.16375E+04 -1.27811E+04  1.44102E+04 -3.02077E+03
  1.25584E+04  5.91185E+03  2.59404E+03  9.58987E+03 -6.00463E+03  6.89970E+03 -7.91404E+03 -1.27702E+03
 -3.16711E+03 -6.09091E+03  2.95289E+03 -7.39175E+03  6.79481E+03 -3.27106E+03  8.58135E+03 -1.25983E+02
  5.21462E+03  2.80529E+03  2.03926E+03  4.40664E+03 -1.14645E+03  2.73826E+03  4.93570E+02 -9.28491E+02
  3.04154E+03  3.53959E+02  6.87970E+03  3.32045E+03  3.74662E+03  8.65457E+03 -7.74765E+02  1.20448E+04
 -8.79926E+03  9.11198E+03 -1.25660E+04  1.55371E+03 -8.07292E+03 -3.87594E+03 -3.21941E+03 -6.95114E+03
  1.10370E+03 -7.83840E+03  4.79734E+03 -2.45734E+03  3.07412E+03  4.55075E+03 -3.21580E+02  4.80411E+03
 -8.47361E+03  2.80170E+03 -8.68926E+03 -3.78518E+03 -4.82643E+03 -9.32881E+03  1.80038E+03 -1.15944E+04
  7.41631E+03 -9.13531E+03  7.78332E+03  4.16684E+02  6.03391E+03  2.81446E+03 -5.18169E+02  5.58291E+03
 -3.27775E+03  2.35264E+03 -3.67349E+03 -4.38055E+03  1.82636E+03 -7.65270E+03  9.16314E+03 -7.32624E+03
  1.11616E+04  7.65421E+02  1.04935E+04  7.96856E+03  3.47056E+03  1.36625E+04 -5.33320E+03  1.30083E+04
 -1.03790E+04  5.39440E+03 -1.24769E+04 -1.70300E+03 -3.86666E+03 -7.30149E+03  2.90507E+03 -7.53599E+03
  6.84365E+03 -5.57361E+03  6.15734E+03  3.82674E+03  7.04176E+02  7.53003E+03 -2.41359E+03  6.34674E+03
 -2.43236E+03  4.69157E+03 -3.46156E+03  2.16193E+03 -2.34162E+03  2.09042E+03 -1.81140E+03  3.58868E+03
 -2.50683E+03  4.40068E+03 -9.00169E+03  3.73444E+03 -1.23204E+04  1.08237E+03 -1.49896E+04 -7.75694E+03
 -8.77122E+03 -1.63586E+04  4.10774E+03 -1.87443E+04  1.18250E+04 -1.39297E+04  1.74913E+04 -3.78262E+03
  1.71224E+04  3.06505E+03  9.67582E+03  1.26582E+04  1.09591E+03  1.26775E+04 -5.02696E+03  9.96559E+03
 -6.73221E+03  2.54588E+03 -3.95199E+03 -1.24125E+03 -3.50277E+02 -8.09268E+02 -1.39338E+03 -3.69884E+02
 -2.59859E+03 -2.42229E+02 -2.79317E+03 -4.73473E+02 -9.33935E+02 -3.35670E+03 -4.82780E+02 -3.35376E+03
  4.87269E+03 -2.59246E+03  9.26727E+03 -1.66990E+03  8.98753E+03  5.74031E+03  1.79764E+03  1.35938E+04
 -6.49437E+03  1.44019E+04 -1.10233E+04  7.13941E+03 -1.68526E+04 -2.08159E+03 -1.15867E+04 -8.32511E+03
 -4.52934E+03 -1.41180E+04  4.49855E+03 -1.33980E+04  9.64406E+03 -6.39821E+03  8.01835E+03 -8.91736E+02
  6.01921E+03  4.27998E+03 -4.22239E+02  3.56454E+03 -1.99947E+03 -6.09196E+02 -7.81297E+02 -1.16782E+03
  5.19194E+03 -7.78649E+02  6.07806E+03  1.83408E+03  4.20853E+03  6.82676E+03 -8.72004E+02  6.79838E+03
 -5.42333E+03  6.33966E+03 -7.39907E+03  8.67329E+02 -8.18373E+03 -6.41847E+03  3.47469E+02 -1.01215E+04
  6.12224E+03 -6.66031E+03  9.89931E+03 -5.50440E+03  9.54470E+03  4.01271E+03  5.24699E+03  9.43522E+03
  1.81452E+03  8.63758E+03 -2.22044E+03  6.46057E+03 -5.98836E+03  4.97171E+03 -3.87286E+03  8.26818E+02
 -3.02977E+03 -8.23377E+02 -3.76756E+03  2.36262E+03 -4.29459E+03  1.44707E+03 -4.89826E+03 -1.42322E+03
 -5.78635E+03 -6.81360E+03 -1.38776E+03 -8.61900E+03  3.09028E+03 -8.66614E+03  9.16232E+03 -3.67896E+03
  8.47776E+03  1.06095E+03  5.35288E+03  6.02858E+03  1.71196E+03  9.09843E+03 -7.81652E+03  6.29677E+03
