 $NMID ID='MM_0lb_SNR200_17hz_g55_23.RAW', FMTDAT='(8E13.5)'
 TRAMP=1., VOLUME=1. $END
  3.09009E+05  6.30324E+02  3.36561E+05  2.50410E+05  8.46437E+04  3.38136E+05 -1.34849E+05  2.50486E+05
 -1.90176E+05  8.23696E+04 -1.11182E+05 -3.20869E+04  1.85864E+02 -5.08197E+04  5.37571E+04 -7.90240E+02
  3.52066E+04  5.21656E+04 -1.61487E+04  7.46292E+04 -6.10596E+04  6.36468E+04 -8.42097E+04  3.19503E+04
 -8.15941E+04 -1.10966E+04 -5.57217E+04 -5.23659E+04 -1.60858E+04 -6.97515E+04  2.69631E+04 -4.58207E+04
  4.11918E+04  3.91941E+03  1.59585E+04  4.69716E+04 -3.45822E+04  4.68158E+04 -6.64615E+04 -6.15289E+02
 -5.38516E+04 -5.72574E+04 -7.01592E+03 -7.71040E+04  3.44678E+04 -5.39886E+04  4.75686E+04 -1.74526E+04
  4.18052E+04  1.21400E+04  3.10093E+04  2.54673E+04  1.56175E+04  2.86044E+04 -5.34423E+03  2.70011E+04
 -2.18006E+04  1.28858E+04 -1.84501E+04 -5.25752E+03  4.43196E+03 -6.80509E+03  2.14797E+04  1.23869E+04
  8.15594E+03  3.58673E+04 -3.11186E+04  3.41976E+04 -6.32245E+04  1.83544E+03 -5.71842E+04 -4.23504E+04
 -1.21351E+04 -6.36664E+04  3.95760E+04 -4.44021E+04  5.81195E+04 -2.10132E+03  3.26108E+04  3.18480E+04
 -6.17929E+03  3.47178E+04 -2.96226E+04  1.41976E+04 -2.91453E+04 -4.59799E+03 -1.58499E+04 -1.17673E+04
 -8.83236E+03 -1.28528E+04 -7.87558E+02 -1.77986E+04  6.62178E+03 -2.34272E+04  1.58374E+04 -1.37075E+04
  1.15328E+04  4.79143E+03 -7.83394E+03  1.44058E+04 -1.99369E+04 -3.22645E+03 -7.24258E+03 -3.26401E+04
  2.16001E+04 -4.17593E+04  4.68898E+04 -2.02419E+04  4.34318E+04  1.82231E+04  1.55921E+04  4.33002E+04
 -1.55707E+04  3.35264E+04 -2.43877E+04  1.36332E+03 -1.00474E+04 -2.79051E+04  2.15793E+04 -3.23077E+04
  4.00642E+04 -7.87311E+03  3.38177E+04  2.25493E+04  1.68040E+04  4.44843E+04 -7.46804E+03  4.76537E+04
 -3.01765E+04  3.26482E+04 -3.95233E+04  9.92755E+03 -4.06971E+04 -1.74575E+04 -2.16872E+04 -3.55556E+04
  6.43082E+03 -3.56132E+04  2.98346E+04 -1.38743E+04  2.81540E+04  1.09283E+04  3.01214E+03  1.85908E+04
 -1.34579E+04  8.28602E+03 -9.75623E+03 -7.70233E+03  6.14838E+03 -1.09609E+04  1.79401E+04  6.04327E+03
  1.26280E+04  2.17465E+04 -6.06389E+03  2.40570E+04 -2.22012E+04  1.11836E+04 -2.57423E+04 -4.68536E+03
 -1.98678E+04 -1.77400E+04 -6.89677E+03 -1.92811E+04  3.77754E+03 -1.74507E+04  1.42770E+04 -1.55481E+04
  2.44477E+04 -1.26998E+04  3.03075E+04  1.52798E+03  2.12958E+04  1.76425E+04  4.60952E+03  3.42214E+04
 -1.70818E+04  2.90333E+04 -2.71830E+04  9.82478E+03 -2.03517E+04 -1.07872E+04 -3.18484E+03 -1.31530E+04
  2.44149E+03 -4.30697E+03 -3.82748E+03  5.75572E+03 -1.47783E+04  5.24018E+03 -1.51110E+04 -6.47191E+03
 -9.48224E+03 -1.78530E+04  5.26945E+03 -2.16534E+04  1.36862E+04 -1.55845E+04  1.56949E+04 -1.91686E+03
  1.14092E+04  1.18604E+04 -1.27972E+03  1.78337E+04 -1.17580E+04  9.55817E+03 -1.69814E+04 -3.61851E+03
 -1.24701E+04 -1.59244E+04 -1.91831E+03 -2.06597E+04  1.02981E+04 -1.61366E+04  1.75323E+04 -7.97774E+03
  1.54980E+04  5.78141E+02  1.14777E+04  6.19671E+03  5.31809E+03  2.17281E+03  8.07811E+03 -1.33307E+03
  1.55893E+04  3.07224E+03  1.69332E+04  1.39171E+04  1.03798E+04  2.82435E+04 -2.31339E+03  3.01478E+04
 -1.79915E+04  2.38765E+04 -2.86494E+04  1.17008E+04 -2.84874E+04 -1.93016E+03 -2.43879E+04 -1.68409E+04
 -1.02407E+04 -2.34215E+04  7.77838E+03 -2.12218E+04  1.83789E+04 -1.24839E+04  1.78773E+04  4.86370E+03
  6.64657E+03  1.33649E+04 -8.87819E+03  1.20740E+04 -1.57421E+04  3.98472E+03 -1.12803E+04 -8.72321E+03
  2.52837E+02 -1.30138E+04  6.59715E+03 -1.02219E+04  8.32782E+03 -1.55744E+03  1.87184E+03  5.73256E+03
 -4.99859E+03  1.82674E+03 -5.41922E+03 -4.45679E+03 -2.83317E+02 -1.19403E+04  9.10489E+03 -1.12765E+04
  1.45470E+04 -6.32950E+03  1.49999E+04  2.22806E+03  1.28740E+04  1.13513E+04  5.83388E+03  1.65233E+04
 -2.95455E+03  1.93389E+04 -1.22543E+04  1.25566E+04 -1.36009E+04  3.16679E+03 -1.07295E+04 -2.01511E+03
 -4.83105E+03 -4.12507E+03 -1.60613E+03  1.37954E+03 -2.40306E+03  1.77451E+03 -4.67236E+03  4.70458E+03
 -8.97364E+03 -8.01882E+02 -9.91441E+03 -8.38124E+03 -4.46401E+03 -1.37580E+04  4.74145E+03 -9.51576E+03
  7.94236E+03 -4.70497E+03  5.88148E+03  2.31427E+03 -1.58779E+02  2.97140E+03 -4.71500E+03 -1.80949E+01
 -4.67306E+03 -5.26667E+03 -9.74114E+02 -8.52417E+03  5.57968E+03 -9.91930E+03  1.23009E+04 -4.22717E+03
  1.39855E+04  3.19733E+02  1.11065E+04  9.12923E+03  1.76434E+03  1.11832E+04 -5.72523E+03  9.29196E+03
 -8.88577E+03  3.80465E+03 -4.96667E+03 -1.73512E+03  1.65614E+03 -2.87899E+03  5.34372E+03 -1.53729E+03
  4.62092E+03  3.73725E+03  6.37558E+01  7.52603E+03 -5.20176E+03  7.83124E+03 -8.94674E+03  2.59110E+03
 -5.99667E+03 -5.15700E+03  1.20322E+02 -8.21266E+03  5.07340E+03 -4.88640E+03  4.89069E+03  1.70335E+03
  2.27410E+02  5.58648E+03 -4.71351E+03  6.12920E+03 -7.39097E+03  1.69388E+03 -5.89996E+03 -2.37652E+03
 -4.72193E+03 -7.59761E+03  1.02629E+03 -7.72839E+03  6.49883E+03 -6.29016E+03  7.74127E+03  7.03270E+02
  5.13475E+03  7.34795E+03  2.36666E+02  9.45129E+03 -6.91934E+03  4.26033E+03 -7.24764E+03 -7.21997E+02
 -6.44527E+03 -5.99188E+03 -1.12739E+03 -5.63053E+03  4.21570E+03 -4.63939E+03  3.32639E+03 -3.02455E+03
  2.74221E+03 -6.66608E+02  5.90546E+02  1.64312E+03  9.93001E+02 -1.29394E+03  3.68202E+02 -2.52024E+03
  5.21149E+03 -1.15248E+03  6.77983E+03  2.63946E+02  5.35059E+03  3.84172E+03  6.40145E+03  9.96765E+03
 -2.27676E+03  9.77088E+03 -8.88566E+03  7.15178E+03 -1.16383E+04  8.15286E+02 -1.03291E+04 -4.29741E+03
 -4.66271E+03 -7.55598E+03 -5.79429E+02 -6.42952E+03  2.91530E+03 -2.59644E+03  2.81799E+03 -2.63380E+03
  1.47596E+03 -1.87469E+03  2.05885E+03 -2.07711E+03  3.61300E+03 -1.88176E+03  3.90818E+03  6.56277E+01
  5.09212E+03  2.11255E+03  1.96107E+03  4.44834E+03 -1.29935E+03  2.97106E+03 -6.02966E+03  4.41040E+03
 -6.17475E+03 -1.53172E+03 -3.59189E+03 -4.62526E+03  1.75362E+03 -6.78349E+03  3.82351E+03 -6.64465E+03
  5.01050E+03 -2.31857E+03  9.11349E+03 -2.34721E+02  5.02948E+03  4.65210E+03  1.74623E+03  6.48921E+03
 -1.94369E+03  6.74561E+03 -3.29483E+03  2.88894E+03 -1.31282E+03 -2.80291E+02 -1.34197E+03 -3.35572E+00
 -1.81273E+03  1.00793E+03 -1.73382E+03  2.56829E+03 -2.66123E+03  1.51955E+03 -4.38573E+03 -1.18125E+02
 -1.93134E+03 -4.68123E+03  1.75758E+02 -6.82797E+03  2.30578E+03 -5.19609E+03  4.16651E+03 -2.94392E+02
  5.06454E+03  2.63373E+03  3.16052E+03  4.68716E+03 -3.75172E+02  6.45837E+03 -3.80765E+03  3.91150E+03
 -5.09334E+03  1.45006E+03 -4.74070E+03 -3.64124E+03 -6.14206E+02 -3.02903E+03  3.79058E+02 -2.17685E+03
  3.50753E+03 -1.65018E+03  1.69455E+03  7.39091E+02 -4.20676E+02  2.89248E+03  1.81550E+03  5.16603E+02
  3.14562E+03 -2.25268E+02  1.89951E+03  1.13810E+03  1.11231E+03  2.46178E+03  1.68140E+03  2.44271E+03
 -9.97873E+02  4.02206E+03 -3.68829E+03  5.08570E+03 -3.12694E+03  1.61158E+03 -5.98772E+03 -5.66904E+02
 -1.89821E+03 -5.02775E+03  6.69322E+02 -5.59685E+03  2.90150E+03 -3.28756E+03  3.81886E+03 -4.07730E+02
  4.44454E+03  1.59203E+03  2.84393E+02  2.68060E+03 -5.28214E+02  2.59262E+03 -1.97926E+03  1.99108E+02
 -1.39902E+03 -3.10207E+03  1.37446E+03 -7.81118E+02  2.15731E+03 -1.64428E+03  1.84565E+03  6.62448E+01
  1.09666E+03  9.73844E+02  2.04459E+03  5.73496E+02 -4.49621E+02  7.50366E+02  2.66062E+03 -9.25812E+02
 -1.53197E+02 -2.32691E+02  2.46935E+03  2.37304E+02  9.06288E+02  2.73233E+03  8.31025E+02  4.81637E+03
 -2.62154E+03  1.47220E+03 -2.74984E+03  9.05420E+02 -2.98698E+03 -2.19448E+03 -7.54297E+02 -1.99669E+03
  4.21768E+02 -1.75731E+03  2.20390E+03 -1.25756E+03  2.32519E+01  1.24658E+03  7.02461E+01  8.68821E+02
 -2.44547E+03  1.10462E+03 -3.44291E+03  2.00583E+01 -1.81928E+03 -3.09888E+03  3.28393E+02 -1.98844E+03
  2.50582E+02 -4.28087E+02  1.81823E+03  6.86066E+02  2.00953E+03  1.14584E+03  1.80307E+03  1.15503E+03
 -9.08950E+02  5.66175E+02 -1.53299E+03 -1.93466E+02  6.55957E+01 -1.42516E+03  2.90264E+03 -1.06211E+03
  2.16073E+03  9.14417E+02  2.83860E+03  1.56436E+03  1.25436E+03  2.47296E+03 -3.42111E+02  2.79384E+03
 -1.06355E+03 -3.53765E+02 -3.31385E+03 -7.92319E+02 -3.47750E+01 -2.58022E+03  1.77166E+03 -1.45070E+02
  1.35732E+03 -1.72889E+03  9.22249E+02  1.56574E+03 -1.83031E+02  2.20378E+03  3.29130E+02  1.30118E+03
 -1.05406E+03  1.43317E+03 -1.61226E+03  1.38166E+03 -1.18333E+02  6.65082E+02 -1.16709E+03  2.24671E+02
  1.80063E+02  1.72516E+03 -2.07519E+03  2.54360E+03 -2.07719E+03  6.12459E+02 -3.33597E+03 -1.51622E+03
 -7.49676E+02 -2.50271E+03  1.92383E+02 -3.69269E+03  1.18785E+03 -4.59024E+03  3.84793E+03 -1.98137E+03
  3.87621E+03  7.38335E+02  1.72777E+03  1.57005E+03 -7.31178E+02  1.38327E+03 -1.07304E+03  1.54103E+03
 -1.48821E+03  8.98560E+02 -1.38853E+03  5.14750E+02  1.15058E+02 -7.27269E+02 -1.32730E+03 -1.80358E+02
 -1.60744E+03 -9.23963E+01  4.21048E+02  6.07817E+02  3.85768E+02 -5.02667E+02 -2.74343E+02 -6.85875E+02
  1.06549E+03 -2.95193E+02  1.56267E+03  7.70198E+02  1.45748E+03  1.44292E+03 -7.23145E+02  2.28131E+03
 -3.36780E+03  2.64535E+03 -2.16559E+03  2.13285E+03 -1.50831E+03 -7.53443E+02 -1.92965E+03 -1.27859E+03
 -9.10775E+02 -1.76515E+03  7.98956E+02 -1.66886E+03  1.53406E+03 -9.69822E+02  1.58051E+03 -4.88224E+02
  3.43776E+02 -8.35397E+02 -2.71026E+02  1.18750E+03  4.15449E+02 -3.56927E+02  6.59481E+02 -1.64541E+02
 -2.11337E+02 -1.73226E+02  6.81386E+02 -2.34789E+02 -4.66995E+02  1.07658E+03  1.79140E+03  7.42958E+02
  3.83947E+02 -5.92758E+01 -4.60353E+02 -4.23773E+02 -2.24141E+03 -4.91260E+02 -7.38051E+02 -2.25816E+03
  1.07844E+03 -1.40950E+03  8.13204E+02 -9.07852E+01  8.42791E+02  2.66128E+02  8.45903E+02  1.58607E+03
  2.92809E+02  1.87372E+03  1.66610E+01 -2.12057E+02 -1.16946E+03  3.40669E+02 -7.59580E+02 -9.29986E+02
 -4.29627E+02  3.55664E+02  1.29944E+03 -3.61385E+02 -1.86948E+03  5.34887E+02 -4.98152E+01 -1.01497E+02
 -4.09668E+02  8.19087E+02 -1.42343E+03 -1.68873E+03 -4.70832E+02 -1.89382E+03 -3.43059E+02 -9.98629E+02
  1.56147E+03  4.03329E+02  4.89638E+02 -5.09697E+00 -2.35070E+02  7.14924E+02 -9.19313E+02 -3.70488E+02
