 $NMID ID='MM_0lb_SNR200_20hz_g50_51.RAW', FMTDAT='(8E13.5)'
 TRAMP=1., VOLUME=1. $END
  3.10632E+05  1.06951E+03  3.37578E+05  2.49104E+05  8.40186E+04  3.37521E+05 -1.31839E+05  2.49965E+05
 -1.89205E+05  8.21657E+04 -1.11282E+05 -3.37225E+04  1.76870E+03 -5.00370E+04  5.49085E+04 -7.25204E+02
  3.54749E+04  5.21721E+04 -1.71805E+04  7.53837E+04 -6.01891E+04  6.20944E+04 -8.35131E+04  3.05246E+04
 -7.97060E+04 -1.02525E+04 -5.61415E+04 -4.96940E+04 -1.53055E+04 -6.77664E+04  2.77942E+04 -4.48137E+04
  3.91129E+04  4.13097E+03  1.40393E+04  4.77029E+04 -3.37384E+04  4.56755E+04 -6.54355E+04  3.59207E+01
 -5.14829E+04 -5.58992E+04 -6.33309E+03 -7.59770E+04  3.26892E+04 -5.23960E+04  4.59414E+04 -1.57201E+04
  4.12190E+04  1.13984E+04  3.10617E+04  2.43963E+04  1.68001E+04  2.73677E+04 -4.78618E+03  2.72604E+04
 -2.12478E+04  1.26827E+04 -1.79078E+04 -4.06070E+03  4.45815E+03 -8.15889E+03  2.21787E+04  1.02587E+04
  7.61880E+03  3.32044E+04 -3.02796E+04  3.37931E+04 -5.98863E+04  2.62347E+03 -5.41273E+04 -4.18839E+04
 -1.24563E+04 -5.94694E+04  3.90041E+04 -4.35268E+04  5.58870E+04 -1.83908E+03  3.11987E+04  3.05143E+04
 -6.98286E+03  3.29741E+04 -2.78063E+04  1.29049E+04 -2.72380E+04 -6.30757E+03 -1.47007E+04 -9.45582E+03
 -8.31407E+03 -1.15028E+04 -6.23051E+02 -1.60106E+04  6.21372E+03 -2.33229E+04  1.50804E+04 -1.37242E+04
  1.22806E+04  4.47286E+03 -5.34828E+03  1.35728E+04 -1.82160E+04 -1.65337E+03 -8.13753E+03 -3.06402E+04
  2.05021E+04 -3.87321E+04  4.43070E+04 -1.84880E+04  4.13475E+04  1.77000E+04  1.44575E+04  4.09601E+04
 -1.51703E+04  3.06541E+04 -2.36449E+04  1.39634E+03 -7.37491E+03 -2.56045E+04  2.03875E+04 -3.22998E+04
  3.67251E+04 -5.84364E+03  3.06258E+04  2.33950E+04  1.56700E+04  4.23213E+04 -7.34634E+03  4.29705E+04
 -2.71687E+04  2.82809E+04 -3.67964E+04  7.52614E+03 -3.79959E+04 -1.41752E+04 -2.05132E+04 -3.40173E+04
  7.33833E+03 -3.34426E+04  2.81295E+04 -1.26456E+04  2.79676E+04  1.10968E+04  2.90865E+03  1.78599E+04
 -1.27067E+04  7.49388E+03 -8.75538E+03 -8.31818E+03  6.46254E+03 -1.04844E+04  1.82570E+04  6.56543E+03
  1.17145E+04  2.18220E+04 -6.65889E+03  2.37540E+04 -2.01185E+04  8.37544E+03 -2.37188E+04 -6.88327E+03
 -1.53873E+04 -1.62551E+04 -5.13408E+03 -1.53800E+04  4.99446E+03 -1.29570E+04  1.22292E+04 -1.39509E+04
  2.01325E+04 -1.11032E+04  2.69967E+04  7.68069E+02  2.01593E+04  1.67173E+04  3.86216E+03  3.23446E+04
 -1.68079E+04  2.71440E+04 -2.61504E+04  9.76006E+03 -1.87306E+04 -1.10890E+04 -3.79611E+03 -1.35027E+04
  3.54127E+03 -3.01441E+03 -2.39943E+03  5.07263E+03 -1.14189E+04  4.49362E+03 -1.32388E+04 -4.80281E+03
 -8.66466E+03 -1.55637E+04  4.27476E+03 -1.89483E+04  1.28936E+04 -1.37285E+04  1.46425E+04 -3.95294E+02
  9.10525E+03  1.11710E+04 -1.25984E+03  1.47955E+04 -1.14350E+04  7.47227E+03 -1.45049E+04 -3.07199E+03
 -1.11311E+04 -1.33661E+04 -1.77235E+03 -1.82356E+04  8.27644E+03 -1.46437E+04  1.67146E+04 -6.46172E+03
  1.31750E+04  1.47455E+03  9.50020E+03  3.87214E+03  5.74062E+03  1.25616E+03  8.02845E+03 -1.08518E+03
  1.33879E+04  2.47957E+03  1.41356E+04  1.25351E+04  8.11443E+03  2.27198E+04 -3.10602E+03  2.46766E+04
 -1.47029E+04  1.89899E+04 -2.34725E+04  8.75549E+03 -2.40873E+04 -2.14853E+03 -1.99214E+04 -1.33373E+04
 -9.61357E+03 -1.91082E+04  5.25377E+03 -1.75722E+04  1.58222E+04 -1.13429E+04  1.48820E+04  3.38221E+03
  6.28167E+03  9.12545E+03 -6.69769E+03  9.65506E+03 -1.29248E+04  2.38425E+03 -9.63019E+03 -7.43134E+03
 -5.02130E+02 -1.11264E+04  5.53570E+03 -8.94537E+03  6.70784E+03 -7.48003E+02  1.54921E+03  4.38583E+03
 -5.15949E+03  1.44134E+03 -3.16532E+03 -5.83346E+03  7.97519E+02 -9.42193E+03  7.28366E+03 -9.80882E+03
  1.17957E+04 -4.38777E+03  1.13071E+04  2.63245E+03  8.14440E+03  8.22825E+03  4.06973E+03  1.19363E+04
 -1.33475E+03  1.37200E+04 -8.19215E+03  9.41813E+03 -1.06002E+04  2.46939E+03 -7.12073E+03 -2.00387E+03
 -4.84109E+03 -3.49095E+03 -1.58457E+03  1.91862E+03 -7.50284E+02  2.21803E+03 -3.84145E+03  3.41774E+03
 -7.50375E+03 -7.06713E+02 -9.20146E+03 -7.13924E+03 -2.33878E+03 -1.18516E+04  3.75175E+03 -7.42816E+03
  7.25288E+03 -3.55056E+03  5.43447E+03  2.58108E+03  1.44532E+03  2.78159E+03 -3.36264E+03  6.15730E+02
 -2.48271E+03 -5.33358E+03 -5.64649E+02 -7.69879E+03  3.05506E+03 -6.23475E+03  8.85156E+03 -2.54470E+03
  1.12327E+04  2.37266E+02  8.74403E+03  5.03083E+03  2.82746E+03  7.69278E+03 -4.57661E+03  7.93979E+03
 -5.78583E+03  2.48299E+03 -3.62155E+03  4.49554E+02  1.19176E+03 -2.09856E+03  5.92445E+03 -6.44211E+02
  2.84306E+03  2.61025E+03  8.90636E+02  5.16088E+03 -4.54447E+03  6.21653E+03 -7.06354E+03  1.18704E+03
 -4.17446E+03 -2.97343E+03 -2.67400E+02 -6.05099E+03  4.85316E+03 -2.53450E+03  2.14510E+03  5.18129E+02
  4.57737E+02  2.20299E+03 -2.32099E+03  4.71038E+03 -3.88237E+03  2.52960E+03 -5.04466E+03 -5.11139E+02
 -2.66910E+03 -5.08275E+03 -2.24483E+02 -6.55968E+03  5.66502E+03 -4.16497E+03  5.05087E+03  1.08152E+03
  3.69467E+03  5.77513E+03 -4.97099E+02  5.48942E+03 -4.33465E+03  3.85348E+03 -4.67385E+03 -3.66178E+02
 -5.70186E+03 -5.01618E+03 -1.05036E+03 -4.74924E+03  2.60019E+03 -4.84273E+03  2.04276E+03 -2.98334E+03
  3.03380E+03 -5.25693E+02  1.04291E+02  9.35700E+02  1.10691E+03  7.86547E+02  6.86496E+02 -1.68084E+03
  2.70593E+03 -3.50865E+02  3.86979E+03  6.99684E+02  5.92152E+03  2.49794E+03  4.85208E+03  6.38701E+03
 -1.36883E+03  7.20352E+03 -5.78532E+03  6.02629E+03 -8.48161E+03  1.35977E+03 -6.47046E+03 -1.73557E+03
 -4.22392E+03 -6.11834E+03 -1.38573E+03 -4.00773E+03  2.37727E+03 -1.13488E+03  1.45995E+03 -1.47227E+03
  8.30288E+02 -1.41327E+03  1.47771E+03 -2.53117E+03  4.27551E+03 -7.46376E+02  2.50249E+03  1.06911E+02
  4.35160E+03  6.73152E+02  7.39256E+02  2.92944E+03 -6.23320E+02  1.45750E+03 -4.71844E+03  1.66284E+03
 -5.59184E+03 -5.68391E+02 -9.37371E+02 -1.58954E+03  5.59260E+02 -4.16141E+03  3.85630E+03 -4.48636E+03
  4.21742E+03 -3.09427E+03  5.61942E+03  1.18649E+02  3.55536E+03  2.70862E+03  3.83262E+02  5.42968E+03
 -1.23944E+03  4.51812E+03 -2.67105E+03  2.17270E+03 -7.82765E+02  2.65217E+02 -6.03934E+02 -2.28630E+02
 -1.13403E+03  3.03255E+02 -6.93377E+02  1.17293E+03 -1.90420E+03  1.40354E+03 -3.11076E+03 -2.67418E+02
 -2.13459E+02 -3.48655E+03  1.32485E+03 -4.53657E+03  2.37233E+03 -3.62498E+03  2.25172E+03  3.15829E+02
  2.25020E+03  1.98797E+03  6.65807E+02  2.14217E+03 -2.25758E+02  4.55191E+03 -2.02811E+03  1.36586E+03
 -2.58766E+03  6.83346E+02 -3.11398E+03 -2.20317E+03 -4.29315E+02 -2.96162E+03  1.48270E+03 -2.92545E+03
  2.02365E+03 -8.32047E+02  5.02817E+02 -4.49195E+02  6.23106E+02  1.67902E+03  1.59234E+03  5.08712E+02
  2.05664E+03  8.72422E+02  1.00366E+03  1.91620E+02  1.19502E+03  2.70585E+03  9.39077E+02  1.31749E+03
 -1.41542E+03  1.99407E+03 -1.83031E+03  3.62048E+03 -2.92967E+03  1.86199E+03 -2.76021E+03 -1.18924E+03
 -1.60084E+03 -3.17636E+03  9.38774E+02 -4.20392E+03  5.42620E+02 -1.75084E+03  3.11933E+03 -1.77532E+03
  1.88660E+03  7.27763E+02 -1.21586E+02  5.49758E+02 -1.16318E+03  3.89099E+02 -6.60864E+02  1.68326E+02
 -1.22560E+03 -9.78426E+02  1.14127E+03 -1.24845E+03  2.27610E+03 -7.88359E+02  8.47751E+02  3.83803E+02
  4.15041E+02  4.82721E+02  3.84677E+02  4.00559E+02  1.64078E+01  6.54914E+02  1.54721E+03  4.09917E+02
  4.08528E+02 -1.03286E+03  2.26060E+03 -3.00929E+02  3.82671E+02  1.92193E+03 -3.93481E+02  1.35097E+03
 -1.53125E+03 -3.44611E+02 -2.15425E+03  3.97931E+02 -1.75328E+03 -7.48567E+02 -5.06549E+01 -8.42786E+01
  4.89322E+02 -1.26571E+03  1.72193E+02 -1.05869E+03  9.02280E+02  7.08639E+02 -9.14904E+02  6.92662E+02
 -9.42106E+02  1.45507E+02 -9.22747E+02 -1.73136E+03 -6.26673E+02 -7.58363E+02 -5.56480E+02 -1.37224E+03
 -1.34674E+02  3.81851E+02  1.31171E+03 -3.54503E+02  7.31829E+02 -2.73526E+02  6.94315E+02  1.24140E+03
  9.67623E+02  4.76035E+02 -8.80466E+02  2.35736E+02  3.92760E+02 -7.03690E+02  1.93047E+03 -2.56000E+02
  8.58178E+02 -1.37702E+01  2.35571E+03  4.92707E+02  1.54676E+03  1.46895E+03 -5.31632E+02  2.09587E+03
 -9.77169E+02 -5.19127E+02 -1.22810E+03 -2.74981E+02 -4.52635E+02 -4.29735E+02  4.17650E+02  2.93153E+02
  1.48726E+03 -6.41502E+02  2.45741E+02  7.84526E+02  4.63687E+02  1.19002E+03 -9.47947E+01  8.91887E+02
  9.90807E+02  1.11619E+03  3.25365E+02  8.09443E+01 -7.18273E+01  4.45338E+02 -9.88027E+02 -4.74086E+02
  1.38604E+02  5.46110E+02 -1.63855E+03  3.27014E+02 -8.20256E+02  3.57594E+02 -1.81095E+03 -1.91075E+02
 -8.44929E+02 -2.30471E+03  5.33208E+02 -2.09834E+03  4.62757E+02 -1.19207E+03  2.16917E+03 -3.99910E+01
  9.14908E+02 -8.89968E+01  1.39853E+03  1.10740E+03 -1.05589E+03  1.39767E+03 -3.28053E+02  1.77062E+03
 -7.13678E+02  8.91546E+02 -1.02565E+03 -9.73315E+02 -3.56601E+02  3.40556E+02 -3.66424E+02 -8.64847E+02
 -4.72236E+02  8.84135E+02  3.45257E+01  2.57169E+02 -3.93448E+02 -8.50462E+02 -4.91630E+02 -8.83538E+02
  1.30806E+03  3.48713E+02  2.61029E+02 -5.72021E+02  1.05271E+02  1.38922E+03 -1.45492E+03  9.67896E+02
 -1.01768E+03  1.76520E+03 -1.44937E+03  2.17109E+02 -1.21415E+03 -1.11975E+03 -1.55861E+03 -6.76151E+02
 -2.48128E+02 -1.79653E+03  4.96948E+02 -5.51250E+02  6.12476E+01 -6.60115E+02  5.95351E+01  9.57565E+01
  1.47087E+03  6.50635E+02  3.65058E+02 -4.88616E+01 -5.49697E+02  5.64917E+02  1.61319E+02 -8.96757E+02
  6.12380E+02  9.56800E+02  1.03177E+03  8.79391E+00 -2.03546E+02  2.17780E+02  1.30986E+03  8.93558E+02
 -6.31029E+02  1.28675E+03 -7.34201E+02 -4.37431E+02 -6.89704E+02 -6.16787E+02 -9.97930E+02 -8.35460E+02
  4.73118E+02 -5.76276E+02  1.62457E+02  1.71974E+02  1.23287E+03 -1.18076E+03  4.87020E+02  1.17946E+02
  7.63140E+02 -1.01230E+03  1.86066E+02 -3.76013E+02 -3.63184E+02 -3.05569E+01 -8.08232E+02  1.04804E+03
 -1.23912E+02  1.06695E+03 -1.40841E+03 -8.66499E+02 -1.65477E+02  2.99046E+02 -1.41266E+03  2.55298E+01
 -5.78370E+02  2.02809E+02 -1.04001E+03 -3.87448E+02  5.57431E+02 -1.82527E+03  4.83157E+02  1.24542E+02
 -9.58810E+01 -1.31041E+01  3.71017E+02  4.75553E+02  2.18749E+01  1.06967E+03 -4.27727E+01  8.29101E+02
