 $NMID ID='MM_0lb_SNR200_20hz_g55_19.RAW', FMTDAT='(8E13.5)'
 TRAMP=1., VOLUME=1. $END
  3.10188E+05 -1.01721E+00  3.37506E+05  2.50563E+05  8.41737E+04  3.37856E+05 -1.32162E+05  2.49807E+05
 -1.89567E+05  8.27057E+04 -1.11163E+05 -3.25719E+04  8.74494E+02 -5.05416E+04  5.31556E+04 -2.13699E+02
  3.35976E+04  5.29400E+04 -1.78573E+04  7.50234E+04 -6.00851E+04  6.26387E+04 -8.36363E+04  3.12766E+04
 -7.98001E+04 -1.08827E+04 -5.66054E+04 -5.04114E+04 -1.47488E+04 -6.87005E+04  2.64768E+04 -4.61658E+04
  3.83362E+04  4.17961E+03  1.67032E+04  4.71791E+04 -3.46296E+04  4.76444E+04 -6.51774E+04 -6.64141E+02
 -5.11189E+04 -5.55845E+04 -6.91396E+03 -7.62418E+04  3.19005E+04 -5.18180E+04  4.69580E+04 -1.54258E+04
  4.29136E+04  1.12935E+04  3.06684E+04  2.37883E+04  1.58802E+04  2.92756E+04 -4.91666E+03  2.56474E+04
 -2.24929E+04  1.23823E+04 -1.99676E+04 -3.43433E+03  3.96675E+03 -6.84119E+03  2.11210E+04  1.10403E+04
  7.64586E+03  3.40032E+04 -3.12877E+04  3.56544E+04 -6.19896E+04  2.91550E+03 -5.56779E+04 -4.20405E+04
 -1.24140E+04 -6.05461E+04  3.79365E+04 -4.26266E+04  5.61493E+04 -2.24638E+03  3.20176E+04  3.07311E+04
 -6.99832E+03  3.29614E+04 -2.84242E+04  1.27969E+04 -2.79764E+04 -5.14128E+03 -1.49434E+04 -1.08125E+04
 -7.83740E+03 -1.11507E+04 -1.23274E+03 -1.70007E+04  7.03240E+03 -2.31037E+04  1.56081E+04 -1.39628E+04
  1.18980E+04  4.33988E+03 -7.00429E+03  1.31903E+04 -1.87519E+04 -2.22372E+03 -7.76520E+03 -3.15683E+04
  2.04183E+04 -4.08526E+04  4.44082E+04 -1.82667E+04  4.25554E+04  1.79981E+04  1.40112E+04  4.24027E+04
 -1.53024E+04  3.00775E+04 -2.33529E+04  1.39089E+03 -8.31001E+03 -2.57622E+04  2.13800E+04 -3.11229E+04
  3.81673E+04 -6.98584E+03  3.20890E+04  2.37415E+04  1.59414E+04  4.26860E+04 -6.92938E+03  4.58471E+04
 -2.80710E+04  2.96839E+04 -3.82372E+04  8.35955E+03 -3.90694E+04 -1.49408E+04 -2.14057E+04 -3.44271E+04
  6.69526E+03 -3.43338E+04  2.94471E+04 -1.23676E+04  2.78146E+04  1.19204E+04  4.74732E+03  1.70095E+04
 -1.30216E+04  6.71570E+03 -9.45987E+03 -7.96208E+03  6.07002E+03 -1.06466E+04  1.62265E+04  5.85870E+03
  1.22885E+04  2.19434E+04 -6.96112E+03  2.30600E+04 -2.12535E+04  8.72699E+03 -2.58649E+04 -6.90555E+03
 -1.73803E+04 -1.55490E+04 -5.71186E+03 -1.70090E+04  3.04472E+03 -1.40317E+04  1.18261E+04 -1.40654E+04
  2.16603E+04 -1.23610E+04  2.80060E+04  1.54119E+03  2.15415E+04  1.62121E+04  4.09587E+03  3.13220E+04
 -1.62768E+04  2.77728E+04 -2.61329E+04  9.54337E+03 -1.94477E+04 -1.15527E+04 -3.83629E+03 -1.44356E+04
  3.26677E+03 -4.36255E+03 -2.25702E+03  6.50483E+03 -1.30857E+04  5.93824E+03 -1.33936E+04 -4.90505E+03
 -7.95884E+03 -1.57587E+04  4.40245E+03 -2.04561E+04  1.24383E+04 -1.40349E+04  1.44766E+04 -1.57377E+03
  8.56333E+03  1.05157E+04 -7.96927E+02  1.49640E+04 -1.09008E+04  7.92419E+03 -1.56710E+04 -2.46378E+03
 -1.18303E+04 -1.42557E+04 -1.45555E+03 -1.83503E+04  7.75742E+03 -1.36701E+04  1.58165E+04 -7.36076E+03
  1.38189E+04  4.17940E+02  1.07481E+04  2.97498E+03  5.25963E+03  1.18515E+03  8.07237E+03 -1.70059E+03
  1.28764E+04  2.09920E+03  1.45738E+04  1.19013E+04  8.97568E+03  2.39407E+04 -2.97036E+03  2.59588E+04
 -1.52994E+04  1.94797E+04 -2.39148E+04  8.47822E+03 -2.46013E+04 -2.17224E+03 -2.21949E+04 -1.40603E+04
 -1.10332E+04 -1.91508E+04  6.89783E+03 -1.84589E+04  1.57178E+04 -1.08930E+04  1.50946E+04  2.87056E+03
  6.64783E+03  9.98429E+03 -6.96990E+03  1.10763E+04 -1.32305E+04  2.46643E+03 -9.69700E+03 -7.15096E+03
  5.65721E+02 -1.18499E+04  5.89763E+03 -9.46001E+03  6.70665E+03 -1.11545E+03  1.72748E+03  4.08550E+03
 -5.41348E+03  8.08014E+02 -2.52707E+03 -4.35229E+03  8.63561E+02 -9.82965E+03  7.84600E+03 -9.11660E+03
  1.20824E+04 -4.70612E+03  1.16395E+04  2.30005E+03  9.57869E+03  9.88298E+03  5.01244E+03  1.35104E+04
 -7.94493E+02  1.49316E+04 -9.36692E+03  1.03737E+04 -1.10217E+04  2.59991E+03 -9.05714E+03 -1.37605E+03
 -4.09861E+03 -3.36083E+03 -1.06229E+03  7.58439E+02 -2.58059E+03  1.98668E+03 -2.97007E+03  3.35326E+03
 -7.79899E+03 -3.40492E+02 -8.71221E+03 -6.53486E+03 -4.39800E+03 -1.10569E+04  3.22405E+03 -8.04914E+03
  7.43211E+03 -3.93105E+03  4.95369E+03  1.77575E+03 -1.49990E+02  2.06664E+03 -2.82412E+03 -8.32132E+02
 -3.24230E+03 -4.77624E+03 -9.42182E+02 -7.31337E+03  4.34673E+03 -6.70942E+03  1.03682E+04 -3.02046E+03
  1.11073E+04  1.99988E+02  8.33105E+03  4.84987E+03  2.10148E+03  7.67811E+03 -4.55405E+03  7.86688E+03
 -5.37787E+03  2.26821E+03 -4.22185E+03 -1.64578E+02  4.45527E+02 -2.23409E+03  5.47671E+03 -1.53590E+03
  4.39188E+03  2.72102E+03  1.07308E+03  5.14243E+03 -3.94736E+03  5.94778E+03 -7.28815E+03  2.39585E+03
 -5.26934E+03 -4.45551E+03  9.75812E+02 -5.75944E+03  2.39204E+03 -3.19378E+03  3.37117E+03  1.58799E+03
 -5.30729E+02  3.02612E+03 -3.87075E+03  4.46787E+03 -4.27685E+03  2.70180E+03 -3.45095E+03 -6.26579E+02
 -2.15762E+03 -4.68081E+03  1.80901E+03 -6.02259E+03  5.18734E+03 -4.24414E+03  6.26485E+03  5.91372E+02
  3.97096E+03  5.15592E+03 -2.96693E+02  6.00615E+03 -4.44186E+03  3.57220E+03 -4.30640E+03  1.67266E+02
 -5.22086E+03 -4.99256E+03 -9.58057E+02 -4.24092E+03  3.00863E+03 -4.62690E+03  2.75826E+03 -2.58887E+03
  2.87553E+03  5.54320E+01  4.88283E+02  1.57101E+03 -3.38212E+02 -8.79988E+02  4.38362E+02 -2.16125E+03
  3.23207E+03 -1.20888E+03  4.57024E+03  6.16224E+02  4.70213E+03  2.81005E+03  5.78465E+03  6.23783E+03
 -1.04438E+03  7.56031E+03 -6.34266E+03  6.59654E+03 -8.32001E+03  1.30767E+03 -7.01585E+03 -2.51340E+03
 -5.36781E+03 -5.56432E+03 -5.41804E+02 -4.37947E+03  1.87461E+03 -2.15981E+03  1.49120E+03 -2.48253E+03
  1.31565E+03 -1.03528E+03  2.63018E+03 -3.15652E+03  3.49995E+03 -9.29408E+02  3.88894E+03 -3.34503E+02
  3.97207E+03  1.83158E+03  2.32452E+02  2.65453E+03 -1.29440E+03  1.53498E+03 -4.85611E+03  2.51506E+03
 -4.59863E+03 -4.40986E+02 -1.55207E+03 -2.21882E+03  3.63697E+02 -3.35460E+03  1.84085E+03 -4.97733E+03
  3.99750E+03 -3.20654E+03  5.54257E+03 -8.99791E+02  5.04645E+03  4.40315E+03  8.16453E+02  5.35387E+03
 -1.35669E+03  5.16847E+03 -2.17683E+03  1.95323E+03 -1.24785E+03 -2.67492E+03 -7.05942E+02 -4.28053E+02
 -8.97561E+02  9.67154E+02 -6.45477E+02  1.46430E+03 -1.92107E+03  1.20280E+03 -3.17714E+03 -5.79183E+02
 -1.77872E+03 -3.71078E+03  9.42676E+02 -2.77884E+03  2.48618E+03 -3.36930E+03  3.08309E+03 -1.23931E+03
  3.34727E+03  2.43601E+03  7.75603E+02  2.70294E+03 -2.59566E+02  4.37596E+03 -2.44147E+03  1.98866E+03
 -3.97528E+03  1.35040E+02 -3.04636E+03 -2.80947E+03 -9.29679E+01 -2.27968E+03  9.70752E+02 -2.20814E+03
  1.61050E+03 -1.22780E+03  1.72258E+03  1.48164E+02  6.57635E+02  1.54588E+03  1.41027E+03 -1.09175E+02
  7.62477E+02  1.55420E+03  1.59917E+03  1.11633E+03  1.30020E+03  1.73118E+03  1.35271E+03  8.80574E+02
 -9.43418E+02  2.63667E+03 -2.15711E+03  3.10023E+03 -2.64947E+03  1.91852E+03 -2.59552E+03 -2.29625E+02
 -1.44764E+03 -2.26723E+03  1.26732E+03 -3.65748E+03  1.92868E+03 -2.80775E+03  2.40571E+03 -1.01887E+03
  1.89217E+03  1.53260E+03  1.71781E+01  1.00876E+03 -1.58382E+02  1.47173E+02  2.18998E+02  3.14850E+02
  3.56106E+01 -7.95799E+02  1.25245E+03 -1.03346E+03  1.13942E+03 -4.86063E+02  3.86682E+02  1.21603E+02
  8.69949E+02  1.10050E+03  4.96624E+02  3.86581E+02 -3.04634E+02  1.94946E+03  5.05342E+02 -2.80328E+02
  3.37625E+02 -4.48379E+01  1.28324E+02  1.36424E+03 -6.53285E+02  1.06409E+03 -1.13479E+03  2.46439E+03
 -1.47669E+03 -5.39907E+01 -2.17361E+03  4.65456E+02 -1.67054E+03 -2.29998E+02  1.06626E+03 -8.28611E+02
  7.06112E+02 -9.26385E+02  5.90102E+02 -1.76159E+02 -2.18185E+02  2.30157E+03 -1.55626E+03  1.26834E+03
 -1.44009E+03  8.15361E+01 -6.09517E+02 -8.79843E+02 -7.81042E+02 -1.16696E+03  3.98360E+02 -6.65380E+02
  5.35259E+02  8.44481E+02 -4.05575E+02  9.26888E+02  1.64074E+03  4.83504E+02 -1.31472E+03  1.60698E+03
 -6.20884E+02 -2.69090E+02  1.29851E+01  8.70381E+02  2.46901E+02 -9.48504E+02  8.81409E+02 -1.58978E+03
  3.64722E+02  2.01132E+01  2.35506E+03 -3.53385E+02  1.51226E+03  9.26874E+02  2.69600E+02  1.51595E+03
 -1.12163E+03  2.06436E+01 -9.84107E+02 -5.85679E+02 -1.48934E+03 -1.35713E+02  1.11011E+03  9.77688E+01
  1.23370E+03  6.45070E+01  4.97676E+02  1.36346E+02 -3.84772E+02  2.82177E+02  5.86512E+01  1.04792E+03
 -4.75059E+02  1.21543E+03 -5.49731E+02 -6.42633E+02  2.33042E+02  3.47080E+01 -4.91419E+02  5.00085E+02
 -1.52475E+03  1.40645E+03 -1.07957E+03 -1.37288E+01 -1.89059E+03 -6.37533E+01 -2.28311E+03 -5.70920E+02
 -1.24250E+03 -1.21299E+03  6.14638E+02 -1.80552E+03  1.82868E+02 -2.52248E+03  2.42289E+03 -1.31827E+02
  2.00660E+03 -7.59819E+02  7.93259E+02  1.88576E+03 -7.92409E+02  5.44252E+02  9.15801E+01  4.04664E+02
 -6.72093E+02  1.77201E+03 -1.87895E+02 -7.61320E+02  6.15545E+02 -6.26799E+02 -1.13693E+03 -1.01478E+02
 -1.41271E+03 -9.45462E+02 -2.13195E+03  6.15900E+02  1.06529E+03 -1.12515E+03 -1.31632E+01 -2.96489E+02
  2.13142E+03  2.46052E+02 -3.97006E+02  7.91812E+02  8.54201E+02  7.54909E+02 -5.17390E+02  8.82271E+02
 -6.07237E+02  1.97963E+03 -8.64419E+02  1.31487E+03 -1.22232E+03 -7.48395E+01 -1.29134E+03 -1.07812E+03
 -1.45106E+03 -1.69614E+03  1.65893E+02 -3.78006E+02  8.01051E+02 -1.29565E+03 -5.74946E+02 -1.77032E+02
  1.06902E+03  9.53337E+02 -4.23135E+02  3.38908E+02 -3.14984E+02 -4.09764E+02  3.66785E+02 -5.47751E+02
  8.80119E+01  8.81181E+02  1.52267E+02  8.15541E+02 -8.27429E+02  3.65746E+02  1.75924E+02 -2.19437E+02
 -8.17873E+02  1.19154E+03  1.62734E+02 -2.26637E+02 -1.46662E+03 -6.33668E+02 -6.25173E+02 -6.23721E+02
  5.50291E+02  5.73719E+01 -1.27620E+02  1.96600E+02  6.82117E+02 -1.19417E+02  2.00561E+02 -4.41387E+01
  1.25906E+03  1.77945E+03 -1.77744E+02  1.41725E+02  5.63566E+02 -6.67205E+02  7.98289E+02  1.37978E+03
  1.73238E+02 -8.96343E+02 -5.08886E+02 -3.93025E+02  5.50076E+02  6.88468E+01 -1.17957E+03 -4.22551E+02
 -1.51252E+03 -1.41501E+01 -9.42656E+02 -3.62437E+02  7.81927E+02 -5.01262E+02  1.08173E+03 -3.91639E+02
  3.53108E+02  4.68651E+02 -5.31520E+02 -8.04494E+02  1.06047E+03  1.79323E+03  6.56715E+02  9.23286E+02
