 $NMID ID='MM_0lb_SNR200_13hz_g60_88.RAW', FMTDAT='(8E13.5)'
 TRAMP=1., VOLUME=1. $END
  3.08879E+05  6.29834E+02  3.38039E+05  2.50451E+05  8.47990E+04  3.37228E+05 -1.33661E+05  2.51492E+05
 -1.90239E+05  8.26070E+04 -1.13355E+05 -3.23680E+04  6.61793E+02 -5.03120E+04  5.39985E+04  7.71475E+02
  3.60928E+04  5.21611E+04 -1.53534E+04  7.60551E+04 -6.08479E+04  6.34669E+04 -8.46877E+04  3.27813E+04
 -8.29125E+04 -1.13829E+04 -5.79694E+04 -5.04557E+04 -1.46590E+04 -6.93734E+04  2.75572E+04 -4.55881E+04
  4.13090E+04  3.67479E+03  1.77449E+04  4.81119E+04 -3.49943E+04  4.81733E+04 -6.67804E+04 -7.19141E+02
 -5.24555E+04 -5.67007E+04 -6.21621E+03 -7.84122E+04  3.38408E+04 -5.61780E+04  4.94037E+04 -1.99092E+04
  4.50490E+04  1.19879E+04  3.17549E+04  2.56980E+04  1.60392E+04  3.02772E+04 -4.81455E+03  2.75765E+04
 -2.30685E+04  1.23009E+04 -1.72176E+04 -6.06679E+03  6.70107E+03 -6.76131E+03  2.24979E+04  1.25863E+04
  8.47950E+03  3.68501E+04 -3.30587E+04  3.50121E+04 -6.55745E+04  1.93939E+03 -5.77671E+04 -4.40100E+04
 -1.19625E+04 -6.38905E+04  4.10313E+04 -4.73322E+04  5.90957E+04 -2.74755E+03  3.59465E+04  3.23728E+04
 -4.63695E+03  3.66113E+04 -3.12139E+04  1.75123E+04 -3.14798E+04 -4.60568E+03 -1.89353E+04 -1.22557E+04
 -9.01143E+03 -1.40655E+04 -8.70695E+01 -1.86046E+04  9.13049E+03 -2.42784E+04  1.58883E+04 -1.14502E+04
  1.05293E+04  6.56475E+03 -1.00349E+04  1.36247E+04 -2.26557E+04 -6.59928E+03 -8.11396E+03 -3.66656E+04
  2.33535E+04 -4.54149E+04  5.05849E+04 -2.04723E+04  4.74369E+04  2.11004E+04  1.65160E+04  4.59363E+04
 -1.57601E+04  3.46286E+04 -2.62315E+04  2.12080E+03 -9.72756E+03 -2.76853E+04  2.24883E+04 -3.44938E+04
  4.22140E+04 -1.04900E+04  3.74456E+04  2.42825E+04  1.99840E+04  4.82989E+04 -8.92825E+03  5.40259E+04
 -3.37094E+04  3.57269E+04 -4.54374E+04  1.07380E+04 -4.52853E+04 -1.81010E+04 -2.44254E+04 -3.99843E+04
  7.80956E+03 -3.95024E+04  3.30495E+04 -1.62063E+04  2.97801E+04  1.09035E+04  4.18895E+03  2.05085E+04
 -1.23631E+04  9.24115E+03 -1.10467E+04 -7.48470E+03  5.40433E+03 -1.06915E+04  1.89731E+04  5.77699E+03
  1.50800E+04  2.38202E+04 -5.32077E+03  2.61190E+04 -2.31363E+04  1.26632E+04 -3.03235E+04 -3.10798E+03
 -2.26191E+04 -1.76793E+04 -9.73272E+03 -2.38592E+04  4.44179E+03 -2.15513E+04  1.74838E+04 -2.07517E+04
  2.79099E+04 -1.27236E+04  3.47271E+04  3.47161E+03  2.62393E+04  2.12950E+04  3.76909E+03  3.87703E+04
 -1.91309E+04  3.12920E+04 -2.99083E+04  1.08674E+04 -2.19328E+04 -9.62615E+03 -4.93346E+03 -1.23648E+04
  1.73723E+03 -3.15710E+03 -5.21861E+03  7.83456E+03 -1.80762E+04  4.45859E+03 -1.84222E+04 -8.63223E+03
 -1.14730E+04 -2.12487E+04  6.14572E+03 -2.55226E+04  1.75461E+04 -1.62187E+04  1.79966E+04 -2.31771E+03
  1.14625E+04  1.35914E+04 -2.40280E+03  1.98841E+04 -1.62204E+04  1.23742E+04 -2.14257E+04 -5.06587E+03
 -1.63941E+04 -1.80178E+04 -1.23594E+03 -2.48473E+04  1.00620E+04 -2.09521E+04  2.10150E+04 -1.02096E+04
  1.87546E+04  4.32267E+02  1.37309E+04  4.35331E+03  8.06820E+03  6.36412E+02  9.82771E+03 -2.42851E+03
  1.80804E+04  2.03664E+03  2.16316E+04  1.61414E+04  1.52293E+04  3.39564E+04 -2.38861E+03  3.87221E+04
 -2.21224E+04  3.17527E+04 -3.69685E+04  1.55786E+04 -3.78681E+04 -2.80280E+03 -3.12272E+04 -2.30947E+04
 -1.26782E+04 -3.03965E+04  1.10796E+04 -2.61931E+04  2.38805E+04 -1.35875E+04  2.08608E+04  5.95014E+03
  7.58138E+03  1.59454E+04 -1.08703E+04  1.28756E+04 -1.67288E+04  2.51307E+03 -1.43070E+04 -1.00927E+04
 -3.25713E+02 -1.62899E+04  8.30797E+03 -1.42878E+04  1.15993E+04 -3.85884E+02  2.60241E+03  7.83207E+03
 -7.94475E+03  3.01441E+03 -7.05494E+03 -4.98685E+03 -2.28003E+03 -1.64173E+04  1.07735E+04 -1.58872E+04
  1.96236E+04 -9.09452E+03  2.07805E+04  4.68038E+03  1.92080E+04  1.55586E+04  9.79409E+03  2.38378E+04
 -4.07401E+03  2.59232E+04 -1.82208E+04  1.65481E+04 -1.85864E+04  3.35144E+03 -1.35053E+04 -4.63377E+03
 -5.95282E+03 -5.98269E+03 -3.81651E+02  1.18490E+03 -1.94100E+03  2.78944E+03 -5.65237E+03  3.55647E+03
 -1.32970E+04 -9.98335E+02 -1.42650E+04 -1.03144E+04 -5.10967E+03 -1.70412E+04  6.05530E+03 -1.34260E+04
  1.11757E+04 -5.63350E+03  8.03070E+03  3.06058E+03 -9.70227E+02  5.45981E+03 -5.41959E+03 -1.82257E+02
 -5.83061E+03 -7.83500E+03  1.82031E+02 -1.18170E+04  5.84692E+03 -1.32925E+04  1.66926E+04 -6.28419E+03
  1.88549E+04  2.06254E+03  1.57077E+04  1.21027E+04  2.41648E+03  1.55428E+04 -8.76746E+03  1.30988E+04
 -8.08794E+03  3.08100E+03 -6.40531E+03 -9.45250E+02  1.81867E+03 -3.91740E+03  6.15097E+03 -1.18636E+03
  5.84161E+03  6.08400E+03  1.43544E+03  1.12528E+04 -7.98480E+03  9.15517E+03 -1.23601E+04  3.00093E+03
 -7.54050E+03 -7.96217E+03  1.72739E+02 -1.07027E+04  6.94354E+03 -5.92989E+03  6.82172E+03  1.74505E+03
  2.37385E+03  6.75587E+03 -7.49869E+03  9.23706E+03 -9.93377E+03  4.38925E+03 -9.78995E+03 -4.00669E+03
 -4.89302E+03 -1.26420E+04  3.07557E+03 -1.32394E+04  1.10069E+04 -8.85297E+03  1.23531E+04  3.01602E+03
  8.05296E+03  9.94176E+03 -6.00392E+02  1.21334E+04 -9.40865E+03  7.32075E+03 -1.10480E+04 -1.45835E+03
 -9.63005E+03 -8.80315E+03 -1.82846E+03 -9.19420E+03  4.09908E+03 -7.67426E+03  5.61954E+03 -3.12142E+03
  5.75492E+03  1.44938E+02 -1.22208E+03  1.58166E+03  5.04713E+02 -1.47992E+03  1.39947E+03 -6.04183E+03
  7.59384E+03 -2.76891E+03  1.12705E+04 -1.12122E+02  1.19895E+04  8.26049E+03  8.53672E+03  1.65742E+04
 -4.61297E+03  1.70141E+04 -1.40378E+04  1.41248E+04 -1.86096E+04  3.48928E+03 -1.45393E+04 -6.10985E+03
 -6.74405E+03 -1.11728E+04 -2.94698E+02 -1.07124E+04  1.63859E+03 -5.58944E+03  4.91512E+03 -4.17399E+03
  2.78854E+03 -1.31690E+03  2.74263E+03 -3.68138E+03  5.06781E+03 -3.03410E+03  7.09019E+03 -1.58703E+03
  8.37010E+03  2.64822E+03  3.15239E+03  7.09536E+03 -2.21164E+03  8.05617E+03 -8.87181E+03  5.68298E+03
 -1.02838E+04 -4.95874E+02 -6.56452E+03 -6.70408E+03 -5.21438E+02 -1.10230E+04  6.46001E+03 -1.09566E+04
  1.17704E+04 -6.27268E+03  1.34581E+04  2.50861E+03  1.02757E+04  8.80540E+03  2.01683E+03  1.27044E+04
 -5.01611E+03  1.03528E+04 -7.45107E+03  2.99683E+03 -4.66717E+03 -1.95888E+03 -2.27466E+03 -1.95403E+03
 -6.21495E+02  2.26722E+02 -2.66081E+03  2.00671E+03 -4.30476E+03  2.07839E+03 -8.37855E+03 -1.30991E+03
 -4.28594E+03 -7.64113E+03 -1.20550E+03 -1.04938E+04  6.45652E+03 -9.55100E+03  9.48245E+03 -2.43232E+03
  1.08333E+04  5.20456E+03  4.08733E+03  8.73102E+03 -2.06626E+03  9.60703E+03 -6.72195E+03  6.76889E+03
 -9.24505E+03  5.74766E+02 -7.25601E+03 -5.85046E+03 -1.30473E+02 -7.26555E+03  3.92350E+03 -7.06892E+03
  4.71985E+03 -1.05611E+03  4.62179E+03  9.61118E+02  1.15858E+03  3.78059E+03  7.96967E+02  1.69655E+03
  2.51853E+03  4.88507E+02  2.48831E+03  8.10033E+02  3.84193E+03  3.62813E+03  3.66871E+03  5.28157E+03
 -1.66920E+03  6.70311E+03 -6.58691E+03  7.33127E+03 -8.65111E+03  2.62868E+03 -8.88644E+03 -3.22931E+03
 -4.47887E+03 -9.21157E+03  6.55760E+02 -1.06629E+04  5.60457E+03 -5.95307E+03  7.16049E+03 -1.67058E+03
  5.67046E+03  2.58693E+03  1.69542E+03  5.81004E+03 -3.20996E+03  4.06235E+03 -2.40867E+03 -1.09457E+02
 -2.31625E+03 -3.74690E+03  2.31830E+03 -3.78755E+03  3.54401E+03 -3.44151E+03  4.41756E+03  1.34917E+03
  3.48974E+03  9.99974E+02  9.04247E+02  8.76479E+02 -2.41600E+02  1.17984E+03  1.79142E+03 -4.46933E+02
  1.60179E+03 -4.58448E+02  4.11248E+03  2.64498E+02  1.97505E+03  4.23942E+03 -1.03982E+03  6.72849E+03
 -3.64157E+03  3.55425E+03 -6.25826E+03  5.26929E+02 -6.04565E+03 -2.32054E+03 -1.35714E+03 -3.54083E+03
  5.49327E+02 -2.72608E+03  3.04238E+03 -2.01549E+03  7.30626E+02  2.86174E+03  1.79833E+02  2.55571E+03
 -4.46201E+03  1.14103E+03 -4.39086E+03 -2.15989E+03 -2.15567E+03 -4.44584E+03 -1.58369E+02 -5.56015E+03
  2.75507E+03 -3.12508E+03  2.59947E+03 -4.98770E+02  3.36199E+03  6.94548E+02  4.86105E+02  2.35775E+03
 -2.13029E+03 -3.41115E+02 -2.25108E+03 -8.84929E+02  8.04403E+02 -2.46400E+03  3.82627E+03 -1.88638E+03
  4.69393E+03  7.33121E+02  6.39674E+03  4.67499E+03  2.75814E+03  6.51001E+03 -1.38456E+03  6.60001E+03
 -5.45186E+03  2.54160E+03 -5.28025E+03 -1.34699E+03 -2.63140E+03 -4.25893E+03  7.56674E+02 -3.98853E+03
  3.33862E+03 -2.30243E+03  1.51088E+03  1.55186E+03  2.39679E+02  2.40288E+03  3.17291E+02  2.52616E+03
 -1.53993E+03  1.64279E+03 -2.40772E+03  5.75151E+02 -1.46939E+02  1.34645E+02  3.49551E+02  1.11428E+02
 -1.06467E+03  2.44300E+03 -3.87813E+03  1.40759E+03 -5.99935E+03  5.73818E+02 -7.03168E+03 -3.45459E+03
 -3.14342E+03 -6.47304E+03  5.82726E+02 -7.28926E+03  5.41876E+03 -5.94035E+03  8.78428E+03 -1.98447E+03
  7.15106E+03  2.23110E+03  5.03509E+03  5.80808E+03  1.23265E+02  4.83552E+03 -2.53452E+03  3.84823E+03
 -2.88573E+03  1.66114E+03 -4.49293E+02 -8.06454E+02 -9.06200E+02 -6.44701E+02 -7.97566E+02 -1.42124E+02
 -2.32034E+03 -2.73936E+02 -2.49325E+02  2.52095E+02  6.85103E+02 -2.28912E+03  1.68410E+03 -2.11108E+03
  1.74164E+03 -2.28212E+03  3.45382E+03  4.62675E+02  3.76933E+03  3.96563E+03  1.00504E+03  5.64381E+03
 -2.29400E+03  5.77162E+03 -4.68467E+03  2.23796E+03 -5.87937E+03  3.09962E+02 -3.50912E+03 -4.08714E+03
 -2.73868E+03 -3.84871E+03  2.09858E+03 -4.21434E+03  2.94965E+03 -2.68031E+03  3.95802E+03  1.78480E+02
  2.81406E+03  7.88827E+02  1.10415E+02  1.33188E+03 -5.13878E+02 -2.59472E+02  6.54397E+02 -2.14535E+03
  1.38002E+03 -1.21697E+03  8.89538E+02  8.48321E+02 -1.12277E+02  1.38050E+03  8.56803E+02  8.93681E+02
 -2.48559E+03  1.94116E+03 -1.72960E+03 -1.02289E+03 -1.88862E+03 -1.40318E+03 -6.45052E+02 -3.21422E+03
  3.38178E+03 -3.76955E+03  4.89484E+03 -7.21316E+01  4.40705E+03  2.07789E+02  2.01920E+03  2.24622E+03
 -7.77546E+01  3.39869E+03 -9.33462E+02  2.17087E+03 -2.06459E+03  1.58394E+03 -1.50406E+03  6.73603E+02
 -5.37062E+02 -3.16553E+02 -1.58807E+03  1.10163E+03 -1.47698E+03  6.23423E+02 -2.69146E+03 -1.92371E+03
 -3.37923E+03 -1.08112E+03 -7.31737E+02 -4.45505E+03  5.90135E+02 -3.82216E+03  2.48233E+03 -3.86272E+02
  3.30982E+03 -5.40897E+02  1.30940E+03  1.65363E+03  3.17162E+02  2.95522E+03 -1.21178E+03  7.51269E+02
