 $NMID ID='MM_0lb_SNR200_10hz_g50_1.RAW', FMTDAT='(8E13.5)'
 TRAMP=1., VOLUME=1. $END
  3.10018E+05 -9.01157E+02  3.37470E+05  2.51347E+05  8.52604E+04  3.40005E+05 -1.32473E+05  2.51678E+05
 -1.90307E+05  8.37364E+04 -1.11968E+05 -3.46564E+04  6.87865E+02 -5.13924E+04  5.51015E+04 -1.51535E+03
  3.44136E+04  5.36573E+04 -1.82628E+04  7.81186E+04 -6.10510E+04  6.40494E+04 -8.52382E+04  3.20927E+04
 -8.24493E+04 -1.24082E+04 -5.77617E+04 -5.08332E+04 -1.51981E+04 -7.03746E+04  2.92896E+04 -4.60946E+04
  3.99609E+04  3.78574E+03  1.52717E+04  4.86385E+04 -3.56425E+04  4.79865E+04 -6.75765E+04 -6.16479E+02
 -5.43488E+04 -5.62633E+04 -7.00683E+03 -7.96679E+04  3.45483E+04 -5.60432E+04  4.90078E+04 -1.83255E+04
  4.49830E+04  1.24870E+04  3.20580E+04  2.52575E+04  1.57473E+04  3.08073E+04 -7.34039E+03  2.75321E+04
 -2.18308E+04  1.13994E+04 -1.86889E+04 -5.35310E+03  6.81531E+03 -8.18619E+03  2.40174E+04  1.41657E+04
  8.96123E+03  3.69500E+04 -3.40631E+04  3.75687E+04 -6.71816E+04  2.71836E+03 -5.93012E+04 -4.52246E+04
 -1.44285E+04 -6.66472E+04  4.03668E+04 -4.70123E+04  6.13209E+04 -2.13898E+03  3.54543E+04  3.49087E+04
 -3.81479E+03  3.76511E+04 -3.10953E+04  1.80679E+04 -3.20735E+04 -2.50995E+03 -1.81767E+04 -1.25529E+04
 -1.01515E+04 -1.59950E+04 -2.58015E+03 -1.90312E+04  8.27493E+03 -2.34267E+04  1.74064E+04 -1.33644E+04
  1.07779E+04  6.35082E+03 -8.80150E+03  1.35952E+04 -2.28064E+04 -5.61904E+03 -7.62624E+03 -3.52489E+04
  2.47685E+04 -4.60305E+04  5.04534E+04 -2.20332E+04  4.85097E+04  1.95451E+04  1.72850E+04  4.69414E+04
 -1.66362E+04  3.54645E+04 -2.76189E+04  3.63146E+03 -1.13667E+04 -2.93300E+04  2.11304E+04 -3.63651E+04
  4.51032E+04 -1.07383E+04  3.90270E+04  2.38459E+04  2.02187E+04  4.98718E+04 -7.98663E+03  5.42432E+04
 -3.46630E+04  3.80268E+04 -4.49991E+04  1.15250E+04 -4.65048E+04 -1.65047E+04 -2.53647E+04 -4.10916E+04
  9.04605E+03 -4.29179E+04  3.33986E+04 -1.57146E+04  3.16353E+04  1.09810E+04  5.54603E+03  2.03999E+04
 -1.35955E+04  1.11541E+04 -1.00439E+04 -8.07160E+03  5.25735E+03 -1.11234E+04  1.90617E+04  5.18577E+03
  1.49931E+04  2.33098E+04 -7.07987E+03  2.71399E+04 -2.34947E+04  1.44756E+04 -3.21040E+04 -3.70328E+03
 -2.39242E+04 -1.71778E+04 -1.03014E+04 -2.36802E+04  4.71902E+03 -2.52969E+04  1.90608E+04 -2.12218E+04
  3.26001E+04 -1.40329E+04  3.53909E+04  3.97114E+03  2.56833E+04  2.30017E+04  4.96303E+03  4.05389E+04
 -1.84039E+04  3.29278E+04 -2.93142E+04  1.15103E+04 -2.16275E+04 -9.68923E+03 -5.33817E+03 -1.32906E+04
  1.83203E+03 -2.50607E+03 -7.58546E+03  6.20518E+03 -1.92355E+04  5.48453E+03 -1.91298E+04 -8.96214E+03
 -1.18472E+04 -2.17408E+04  4.76120E+03 -2.61639E+04  1.85037E+04 -2.01442E+04  2.17219E+04 -5.69545E+02
  1.31001E+04  1.43679E+04 -2.37383E+03  2.32360E+04 -1.67157E+04  1.20338E+04 -2.17835E+04 -4.96175E+03
 -1.55026E+04 -2.11949E+04 -1.31870E+03 -2.76167E+04  1.32536E+04 -2.26493E+04  2.32472E+04 -1.18305E+04
  1.97964E+04 -1.05830E+03  1.42060E+04  5.00767E+03  9.43379E+03  2.18888E+03  1.10071E+04 -2.10982E+03
  2.21140E+04  2.55757E+03  2.42703E+04  1.64508E+04  1.54071E+04  3.71521E+04 -3.62248E+03  3.98189E+04
 -2.55101E+04  3.41932E+04 -4.00329E+04  1.70065E+04 -4.28153E+04 -3.56432E+03 -3.28331E+04 -2.52900E+04
 -1.35020E+04 -3.57393E+04  1.20373E+04 -3.17880E+04  2.67312E+04 -1.43493E+04  2.22104E+04  6.68326E+03
  8.39740E+03  1.94185E+04 -1.18468E+04  1.30666E+04 -2.04749E+04  1.28041E+03 -1.45687E+04 -1.36719E+04
 -4.86560E+02 -1.95023E+04  1.00231E+04 -1.33575E+04  1.23027E+04 -4.36236E+02  2.40863E+03  9.21170E+03
 -8.57727E+03  3.36381E+03 -8.26945E+03 -8.57671E+03 -2.21132E+03 -1.60876E+04  1.07251E+04 -1.86709E+04
  2.17128E+04 -1.18067E+04  2.32662E+04  3.19307E+03  2.09610E+04  1.75285E+04  1.14409E+04  2.69190E+04
 -3.68532E+03  2.92995E+04 -1.94403E+04  1.87803E+04 -2.11109E+04  3.02143E+03 -1.24058E+04 -5.58440E+03
 -4.64227E+03 -7.18646E+03 -4.61967E+00  2.05250E+01 -3.61477E+03  2.91559E+03 -8.04972E+03  5.63856E+03
 -1.38553E+04 -4.71888E+01 -1.29310E+04 -1.13490E+04 -6.52567E+03 -1.81930E+04  6.11083E+03 -1.65632E+04
  1.11872E+04 -5.88245E+03  8.97895E+03  3.23066E+03 -4.81570E+02  7.54400E+03 -7.25357E+03 -2.20736E+02
 -7.88564E+03 -8.64928E+03 -1.99525E+03 -1.26829E+04  8.00195E+03 -1.51859E+04  2.00493E+04 -8.12125E+03
  2.15937E+04  2.46315E+03  1.52431E+04  1.39958E+04  2.73257E+03  1.83114E+04 -9.83693E+03  1.50538E+04
 -1.04456E+04  4.47057E+03 -5.87530E+03 -4.29868E+03  2.40687E+03 -3.96887E+03  8.10047E+03 -1.10765E+03
  8.48133E+03  7.14832E+03  9.04465E+02  1.20711E+04 -9.36665E+03  1.09300E+04 -1.53878E+04  3.86520E+03
 -9.89622E+03 -7.58018E+03  2.56048E+02 -1.32591E+04  7.87093E+03 -6.51272E+03  1.03989E+04  8.79041E+02
  2.69470E+03  8.77645E+03 -5.59451E+03  1.06530E+04 -1.12654E+04  6.05775E+03 -1.36523E+04 -3.50020E+03
 -6.66151E+03 -1.53288E+04  4.42734E+03 -1.59652E+04  1.44929E+04 -1.15109E+04  1.49860E+04  3.41432E+03
  8.30291E+03  1.13875E+04 -9.55466E+01  1.47655E+04 -1.10301E+04  7.81155E+03 -1.22303E+04 -2.06766E+03
 -1.19709E+04 -1.07020E+04 -1.58170E+03 -1.12106E+04  6.32500E+03 -7.51111E+03  6.56730E+03 -4.14375E+03
  5.55946E+03  1.76921E+03 -1.07657E+03  9.15433E+02  1.03006E+03 -3.04957E+03  2.96457E+03 -6.50073E+03
  1.24809E+04 -3.67239E+03  1.32649E+04  2.31063E+03  1.45637E+04  9.56610E+03  9.61197E+03  1.83072E+04
 -3.36183E+03  2.10844E+04 -1.83718E+04  1.59497E+04 -2.39706E+04  3.45339E+03 -1.72220E+04 -7.61725E+03
 -1.03655E+04 -1.42543E+04  8.19587E+02 -1.31723E+04  5.65208E+03 -8.05232E+03  4.17712E+03 -6.24948E+03
  3.96479E+03 -2.24714E+03  3.27642E+03 -3.84273E+03  6.17460E+03 -2.86971E+03  8.94037E+03 -1.75458E+03
  1.04415E+04  1.80073E+03  3.92454E+03  8.60742E+03 -1.45089E+03  1.01067E+04 -1.19866E+04  7.84247E+03
 -1.26278E+04 -1.91444E+03 -9.37720E+03 -1.12956E+04 -6.75994E+02 -1.68213E+04  6.85233E+03 -1.43376E+04
  1.57591E+04 -7.15673E+03  1.73551E+04  1.14861E+03  1.24012E+04  1.30055E+04  1.01116E+03  1.68468E+04
 -5.13042E+03  1.43100E+04 -9.41365E+03  5.37502E+03 -6.46620E+03 -6.40553E+02 -2.66762E+03 -1.77178E+03
 -2.01711E+03  3.42678E+01 -1.37847E+03  3.31276E+03 -3.88963E+03  2.77751E+03 -8.67971E+03 -9.57945E+02
 -5.11182E+03 -9.36834E+03  3.56648E+02 -1.30020E+04  8.41190E+03 -1.14976E+04  1.25957E+04 -2.54814E+03
  1.35833E+04  6.97406E+03  5.67400E+03  1.08347E+04 -2.93084E+03  1.13758E+04 -9.54905E+03  8.27461E+03
 -1.14337E+04  1.55555E+03 -1.10903E+04 -8.35010E+03 -2.30596E+03 -1.16922E+04  6.97302E+03 -8.14633E+03
  9.69499E+03 -3.19188E+03  6.05167E+03  2.39289E+03  3.86195E+03  4.45305E+03  1.23945E+03  1.22068E+03
  4.81123E+02  2.62486E+03  5.69558E+03  2.42580E+03  5.62560E+03  3.96402E+03  2.77660E+03  6.73631E+03
 -3.34141E+03  9.81757E+03 -9.85646E+03  1.12539E+04 -1.28173E+04  2.87847E+03 -1.29093E+04 -7.27837E+03
 -6.25909E+03 -1.38801E+04  2.10493E+03 -1.50657E+04  7.89267E+03 -9.24190E+03  1.12788E+04 -8.75292E+02
  8.75784E+03  4.50671E+03  1.77049E+03  6.90645E+03 -2.81065E+03  3.94172E+03 -5.47307E+03 -7.65233E+02
 -3.31082E+03 -6.62926E+03  2.51228E+03 -5.85326E+03  4.55494E+03 -3.07063E+03  4.68827E+03  2.34621E+03
  3.55333E+03  2.82073E+03 -3.75820E+02  3.80622E+03 -5.70642E+02  1.74617E+03  1.89779E+03 -2.28709E+03
  2.02611E+03  3.38359E+02  5.28833E+03  1.42383E+03  4.35164E+03  7.42177E+03 -1.42461E+03  7.46207E+03
 -6.83992E+03  7.53767E+03 -8.86498E+03  1.75955E+03 -7.72451E+03 -4.64080E+03 -4.30288E+03 -5.03748E+03
  2.21212E+03 -4.63296E+03  2.58416E+03 -2.57965E+03  5.19949E+03  4.25888E+03 -2.19629E+02  5.16878E+03
 -7.18408E+03  2.75064E+03 -5.97779E+03 -3.29729E+03 -4.67046E+03 -6.34355E+03 -8.47371E+02 -7.59907E+03
  4.36327E+03 -5.05403E+03  5.38278E+03  1.43074E+03  5.20440E+03 -1.29545E+02  9.07366E+02  3.47101E+03
 -3.37135E+03  1.34346E+03 -2.00096E+03 -2.15957E+03  1.45161E+03 -6.51517E+03  6.67054E+03 -3.80678E+03
  8.99549E+03  2.61106E+03  6.87397E+03  4.82041E+03  3.13940E+03  8.96008E+03 -4.18017E+03  8.68043E+03
 -7.12947E+03  3.91821E+03 -6.63563E+03  6.79379E+02 -4.31344E+03 -4.65554E+03  2.02616E+03 -7.12411E+03
  5.28654E+03 -2.50634E+03  5.02755E+03  3.61022E+03  9.04328E+02  6.18696E+03 -2.24729E+02  4.56006E+03
 -1.88814E+03  2.01697E+03 -2.46254E+03  1.02924E+03 -2.04451E+03  8.43315E+02 -1.67367E+03  1.67693E+03
 -3.63175E+03  3.44084E+03 -6.11768E+03  1.27496E+03 -8.89280E+03  1.22685E+03 -1.01359E+04 -4.28106E+03
 -6.13642E+03 -1.06606E+04  1.34348E+03 -1.24812E+04  6.51072E+03 -8.91739E+03  1.17310E+04 -3.81932E+03
  1.12401E+04  1.56695E+03  8.66614E+03  8.18635E+03  1.85335E+03  8.37636E+03 -4.58138E+03  6.94441E+03
 -6.28688E+03  2.31808E+03 -2.67858E+03 -1.74678E+03 -1.45087E+03 -7.68490E+02 -8.07462E+02  2.09569E+02
 -6.14253E+02  7.97283E+02 -9.99030E+02  1.32764E+02 -7.50861E+02 -3.44785E+03 -1.28604E+03 -2.15429E+03
  4.66461E+03 -2.59908E+03  3.60203E+03  4.56426E+02  4.93063E+03  4.00348E+03  2.74016E+03  8.42508E+03
 -4.72656E+03  1.09560E+04 -8.66575E+03  5.73239E+03 -1.04321E+04 -1.09808E+03 -7.23245E+03 -7.43667E+03
 -2.21712E+03 -8.80725E+03  2.30520E+03 -7.31755E+03  4.39084E+03 -3.95220E+03  4.73288E+03 -7.53278E+02
  3.37395E+03  3.60851E+03  1.18622E+03  3.08850E+03 -1.56838E+03 -1.16940E+03  2.76625E+02 -3.16555E+02
  3.62746E+03 -7.36386E+02  4.48766E+03  1.26235E+03  1.82214E+03  3.19228E+03  2.22809E+02  5.88183E+03
 -3.22260E+03  4.18886E+03 -3.86359E+03  1.46447E+03 -5.23643E+03 -3.73642E+03 -6.43513E+02 -8.27956E+03
  4.28996E+03 -5.56376E+03  8.08147E+03 -1.58811E+03  6.09138E+03  2.18807E+03  4.02585E+03  7.86377E+03
  5.98665E+02  6.95266E+03 -2.63378E+03  4.65012E+03 -3.75580E+03  2.19599E+03 -4.28311E+03  3.76981E+02
 -1.78508E+03  2.98817E+02 -2.11579E+03 -7.95982E+01 -3.37293E+03  1.69955E+03 -5.24885E+03 -1.48727E+02
 -3.51963E+03 -2.99290E+03 -1.36957E+03 -6.23426E+03  4.55410E+03 -6.45842E+03  3.87537E+03 -1.70441E+03
  5.90753E+03  1.04972E+03  3.56422E+03  3.35902E+03 -8.78486E+02  5.96668E+03 -4.71340E+03  4.15299E+03
