 $NMID ID='MM_0lb_SNR200_7hz_g55_37.RAW', FMTDAT='(8E13.5)'
 TRAMP=1., VOLUME=1. $END
  3.10189E+05  5.26712E+02  3.37069E+05  2.52157E+05  8.50412E+04  3.38931E+05 -1.33955E+05  2.52312E+05
 -1.91975E+05  8.61457E+04 -1.11927E+05 -3.29247E+04  8.78554E+02 -4.90596E+04  5.32333E+04 -4.18426E+02
  3.46574E+04  5.27852E+04 -1.64233E+04  7.64223E+04 -6.14964E+04  6.25670E+04 -8.62932E+04  3.29755E+04
 -8.32348E+04 -1.16836E+04 -5.91621E+04 -5.19843E+04 -1.58701E+04 -7.10757E+04  2.98017E+04 -4.81559E+04
  4.18937E+04  3.94410E+03  1.68908E+04  4.84230E+04 -3.51430E+04  4.68625E+04 -6.87997E+04  6.56119E+02
 -5.40479E+04 -5.90105E+04 -7.91129E+03 -7.99166E+04  3.48317E+04 -5.93109E+04  4.99965E+04 -1.78607E+04
  4.58350E+04  1.28148E+04  3.43308E+04  2.69427E+04  1.67453E+04  3.20065E+04 -6.19989E+03  2.75311E+04
 -2.24358E+04  1.25030E+04 -1.82722E+04 -6.24517E+03  8.48712E+03 -1.01825E+04  2.21985E+04  1.45873E+04
  6.65225E+03  3.85721E+04 -3.41854E+04  3.72243E+04 -6.73146E+04  2.39443E+03 -5.90678E+04 -4.69743E+04
 -1.22402E+04 -6.77062E+04  4.03409E+04 -4.96194E+04  6.39555E+04 -5.26540E+02  3.70265E+04  3.51853E+04
 -3.78501E+03  4.19987E+04 -3.30869E+04  1.93043E+04 -3.52736E+04 -2.76379E+03 -2.24320E+04 -1.02084E+04
 -8.95615E+03 -1.53935E+04 -4.91703E+02 -2.05050E+04  8.31271E+03 -2.46036E+04  1.51037E+04 -1.12433E+04
  1.00114E+04  6.79380E+03 -1.22440E+04  1.20778E+04 -2.42432E+04 -6.64472E+03 -8.00877E+03 -3.90848E+04
  2.71041E+04 -4.73317E+04  5.27158E+04 -2.22805E+04  4.99761E+04  2.05221E+04  1.78577E+04  4.85554E+04
 -1.72495E+04  3.67270E+04 -2.81358E+04  2.57424E+03 -1.19148E+04 -3.01496E+04  2.33734E+04 -3.94133E+04
  4.68604E+04 -9.45027E+03  4.27935E+04  2.74254E+04  2.22505E+04  5.31232E+04 -1.05767E+04  6.21370E+04
 -3.79646E+04  3.92145E+04 -4.96502E+04  1.28989E+04 -4.92078E+04 -2.09552E+04 -2.74314E+04 -4.34884E+04
  9.82276E+03 -4.28679E+04  3.52451E+04 -1.96117E+04  3.23530E+04  1.08641E+04  5.59425E+03  2.32065E+04
 -1.34423E+04  9.95882E+03 -1.30048E+04 -7.50564E+03  5.50935E+03 -1.19277E+04  1.84673E+04  5.15116E+03
  1.67080E+04  2.31103E+04 -5.10085E+03  2.93928E+04 -2.55301E+04  1.55193E+04 -3.14417E+04 -3.24237E+03
 -2.79835E+04 -2.08882E+04 -1.26600E+04 -2.63589E+04  3.77393E+03 -2.90617E+04  2.06681E+04 -2.70268E+04
  3.51180E+04 -1.67730E+04  4.01309E+04  6.38933E+03  2.89904E+04  2.62576E+04  4.39649E+03  4.41938E+04
 -1.81173E+04  3.51020E+04 -3.03173E+04  1.26915E+04 -2.34186E+04 -9.84521E+03 -4.13388E+03 -1.33303E+04
 -1.76178E+02  7.82976E+02 -1.00368E+04  8.83467E+03 -2.02382E+04  4.93076E+03 -2.47948E+04 -9.02447E+03
 -1.19302E+04 -2.47886E+04  5.82695E+03 -3.22087E+04  2.00391E+04 -2.20530E+04  2.54586E+04 -1.36137E+03
  1.58928E+04  1.70185E+04 -1.44171E+03  2.50318E+04 -2.03712E+04  1.44622E+04 -2.76788E+04 -6.66977E+03
 -1.94450E+04 -2.44303E+04 -2.46069E+03 -3.28756E+04  1.26652E+04 -2.37597E+04  2.33083E+04 -1.34278E+04
  2.40291E+04 -1.13634E+03  1.73440E+04  4.12134E+03  1.00707E+04  1.20538E+03  1.36068E+04 -1.40857E+03
  2.58217E+04  3.57422E+03  3.03587E+04  1.93517E+04  1.99220E+04  4.14643E+04 -1.74749E+03  4.86473E+04
 -2.80833E+04  4.27071E+04 -4.65649E+04  2.31337E+04 -4.91099E+04 -3.14444E+03 -4.01496E+04 -3.10568E+04
 -1.51117E+04 -4.06355E+04  1.44528E+04 -3.98866E+04  3.09724E+04 -1.68492E+04  2.75452E+04  8.75673E+03
  9.66747E+03  2.24969E+04 -1.44463E+04  1.68202E+04 -2.31289E+04  2.83202E+03 -1.80037E+04 -1.23654E+04
 -6.80185E+01 -2.12479E+04  1.14195E+04 -1.43871E+04  1.72531E+04 -2.70488E+03  4.42875E+03  1.27963E+04
 -8.66368E+03  6.97624E+03 -1.11304E+04 -6.66486E+03 -1.06758E+03 -2.14514E+04  1.37134E+04 -2.20389E+04
  2.66809E+04 -1.22279E+04  3.05137E+04  4.95942E+03  2.61795E+04  2.19910E+04  1.25691E+04  3.23273E+04
 -6.23615E+03  3.55278E+04 -2.40529E+04  2.35486E+04 -2.66318E+04  2.34903E+03 -1.51840E+04 -6.74596E+03
 -6.45107E+03 -9.42715E+03 -7.26146E+02 -3.63480E+01 -3.21879E+03  4.79849E+03 -7.59950E+03  4.25108E+03
 -1.65474E+04 -3.07393E+03 -1.68172E+04 -1.35219E+04 -9.09806E+03 -2.08822E+04  7.41667E+03 -1.90901E+04
  1.38286E+04 -7.40901E+03  1.08267E+04  6.36822E+03 -2.33340E+02  7.78260E+03 -1.10219E+04 -1.36836E+03
 -9.52022E+03 -1.14152E+04 -2.71659E+03 -1.96493E+04  1.09705E+04 -1.96357E+04  2.29555E+04 -9.00846E+03
  2.82768E+04  4.15737E+03  1.99962E+04  1.67918E+04  2.96825E+03  2.30774E+04 -1.34131E+04  1.75283E+04
 -1.37082E+04  5.43097E+03 -9.56311E+03 -4.19516E+03  3.58880E+03 -6.16018E+03  1.01869E+04 -1.34910E+03
  7.85962E+03  7.48433E+03  1.07509E+03  1.50085E+04 -1.11719E+04  1.50740E+04 -1.87149E+04  3.07166E+03
 -1.26095E+04 -9.71333E+03 -8.67706E+02 -1.63127E+04  1.26372E+04 -7.00389E+03  1.00846E+04  4.60265E+03
  1.83513E+03  1.20307E+04 -1.01946E+04  1.40561E+04 -1.68508E+04  6.20963E+03 -1.81374E+04 -5.93217E+03
 -1.15067E+04 -2.00847E+04  5.11653E+03 -2.27264E+04  1.76503E+04 -1.47328E+04  2.04097E+04  1.96968E+03
  1.16704E+04  1.52186E+04 -9.82501E+02  1.74959E+04 -1.43464E+04  9.63088E+03 -1.43718E+04 -6.19848E+02
 -1.27765E+04 -1.43494E+04 -2.96509E+03 -1.40931E+04  7.70422E+03 -1.14667E+04  7.42844E+03 -3.74062E+03
  5.19299E+03  2.09812E+03 -7.13041E+02  1.95829E+03 -2.17240E+03 -3.64095E+03  3.41787E+03 -8.68547E+03
  1.51336E+04 -6.45721E+03  1.92884E+04  1.12081E+03  2.01439E+04  1.35566E+04  1.12743E+04  2.62585E+04
 -4.81239E+03  3.09380E+04 -2.35942E+04  2.22442E+04 -3.19927E+04  5.58231E+03 -2.47877E+04 -1.15516E+04
 -1.30538E+04 -2.24926E+04  6.53947E+01 -1.72323E+04  4.89658E+03 -1.12647E+04  7.15496E+03 -6.39332E+03
  5.54346E+03 -3.60172E+03  5.65620E+03 -3.41332E+03  4.67552E+03 -4.71137E+03  8.68080E+03 -1.53509E+03
  1.43011E+04  3.76577E+03  6.89982E+03  1.25551E+04 -3.56216E+03  1.55901E+04 -1.52737E+04  1.04593E+04
 -1.80801E+04 -1.96099E+03 -1.18146E+04 -1.32308E+04 -8.76860E+02 -1.97806E+04  1.27768E+04 -2.07126E+04
  2.11161E+04 -1.14955E+04  2.66571E+04  3.32510E+03  1.85280E+04  1.70147E+04  8.27665E+02  2.29407E+04
 -8.43660E+03  1.68585E+04 -1.28997E+04  6.22085E+03 -9.82367E+03 -1.04088E+03 -5.57793E+03 -2.93228E+03
 -2.50179E+03 -4.96916E+02 -2.87892E+03  3.30311E+03 -6.87584E+03  3.32622E+03 -1.27485E+04 -1.25449E+03
 -8.62266E+03 -1.30288E+04 -1.45869E+03 -1.98677E+04  9.91139E+03 -1.77046E+04  1.90717E+04 -5.32158E+03
  1.89026E+04  9.55103E+03  1.16446E+04  1.72868E+04 -4.37915E+03  1.92434E+04 -1.23824E+04  1.27988E+04
 -1.80048E+04  1.86171E+03 -1.30778E+04 -1.26449E+04 -3.10958E+03 -1.45863E+04  8.92323E+03 -1.22096E+04
  1.15814E+04 -4.27500E+03  8.45334E+03  5.09621E+03  3.24657E+03  5.46756E+03  9.93739E+01  2.82841E+03
  8.82708E+02  1.32095E+03  3.48941E+03  2.62374E+03  6.45200E+03  5.89959E+03  4.53994E+03  9.48791E+03
 -5.38721E+03  1.57009E+04 -1.26001E+04  1.56892E+04 -2.26734E+04  3.02330E+03 -2.07451E+04 -8.01464E+03
 -1.16141E+04 -2.00715E+04  3.95870E+03 -2.17688E+04  1.46629E+04 -1.78412E+04  1.52790E+04 -5.74794E+03
  1.30412E+04  8.12775E+03  2.95198E+03  1.13928E+04 -5.96708E+03  6.74973E+03 -8.21563E+03 -1.92988E+03
 -6.47886E+03 -8.15588E+03  4.86993E+03 -8.25429E+03  1.02131E+04 -4.95433E+03  6.87864E+03  1.22306E+03
  4.28954E+03  4.53103E+03  2.12250E+03  4.37254E+03 -1.69028E+03  1.40138E+03  2.06352E+03 -1.36133E+03
  5.12996E+03 -2.33435E+03  9.45559E+03  7.58439E+02  3.54558E+03  1.09932E+04 -2.59695E+03  1.33963E+04
 -8.78006E+03  9.88491E+03 -1.23373E+04  2.49882E+03 -1.32580E+04 -5.35928E+03 -6.82868E+03 -7.73039E+03
  1.72522E+03 -8.43520E+03  4.96885E+03 -1.91943E+03  2.62711E+03  4.62376E+03 -1.20557E+03  7.38849E+03
 -9.10309E+03  5.06679E+03 -1.07781E+04 -5.20461E+03 -7.45720E+03 -1.21366E+04  1.42893E+03 -1.14493E+04
  8.14735E+03 -7.20862E+03  8.22066E+03  1.89703E+02  5.72115E+03  3.42294E+03  1.36399E+03  4.24413E+03
 -5.14873E+03  2.54742E+03 -5.02454E+03 -4.66187E+03  1.58947E+03 -8.93501E+03  1.01796E+04 -9.45579E+03
  1.41792E+04  1.78197E+03  1.10806E+04  1.08749E+04  3.71197E+03  1.29173E+04 -3.30997E+03  1.31632E+04
 -1.00845E+04  7.39755E+03 -1.11501E+04 -2.83276E+03 -5.88101E+03 -9.14615E+03  1.04792E+03 -8.45596E+03
  9.61053E+03 -4.23747E+03  7.47254E+03  2.93217E+03  3.82012E+03  7.95356E+03 -2.05575E+03  8.62771E+03
 -5.11683E+03  3.48126E+03 -3.77141E+03 -4.84650E+01 -1.48432E+03  1.40926E+03 -9.95981E+02  2.59164E+03
 -3.30065E+03  5.00689E+03 -8.21553E+03  5.75673E+03 -1.45457E+04  1.06297E+03 -1.69157E+04 -9.99360E+03
 -8.78452E+03 -1.86400E+04  5.21204E+03 -2.18985E+04  1.28535E+04 -1.78073E+04  2.12683E+04 -6.54215E+03
  1.98284E+04  3.55183E+03  1.24035E+04  1.34115E+04  2.04253E+03  1.47459E+04 -4.70712E+03  1.10322E+04
 -9.99197E+03  3.30759E+03 -3.70049E+03 -1.42717E+03 -2.26184E+03 -3.56896E+03 -5.65048E+02 -1.93426E+02
 -4.66330E+03  9.27198E+02 -2.41787E+03  4.28394E+02 -3.30476E+02 -2.20050E+03  1.14523E+03 -6.18711E+03
  5.86861E+03 -4.32052E+03  1.14016E+04  4.41623E+02  1.08449E+04  8.24751E+03  3.30336E+03  1.50286E+04
 -8.30714E+03  1.66386E+04 -1.70697E+04  1.04759E+04 -1.81065E+04 -2.31134E+03 -1.46997E+04 -1.26412E+04
 -6.22781E+03 -1.55351E+04  5.38417E+03 -1.43899E+04  1.13142E+04 -8.15195E+03  9.02353E+03  6.81401E+02
  7.46364E+03  4.16613E+03  1.44196E+02  5.12714E+03 -4.48679E+03  8.95616E+02  1.16125E+03 -6.23296E+03
  5.81192E+03 -2.52615E+03  6.37113E+03  1.55951E+03  4.21945E+03  7.34258E+03 -1.75095E+03  6.91881E+03
 -5.77581E+03  7.28964E+03 -1.09765E+04  4.86751E+02 -9.94296E+03 -9.04362E+03 -2.16498E+03 -1.36291E+04
  6.21985E+03 -9.89267E+03  1.08860E+04 -3.84778E+03  1.11400E+04  4.45378E+03  7.72951E+03  1.00718E+04
 -6.23773E+01  1.04338E+04 -5.24626E+03  7.92899E+03 -5.02859E+03  4.52826E+03 -4.95929E+03 -6.06645E+02
 -3.92845E+03 -1.19245E+03 -3.54089E+03  1.22196E+03 -6.90264E+03  1.11876E+03 -8.42182E+03 -3.06032E+03
 -7.55101E+03 -7.19165E+03 -1.55300E+03 -9.84308E+03  3.58116E+03 -1.08161E+04  1.03781E+04 -4.85835E+03
  1.11142E+04  2.97217E+03  4.92305E+03  8.04040E+03 -5.25326E+02  1.19298E+04 -8.07319E+03  8.23975E+03
