 $NMID ID='MM_0lb_SNR200_11hz_g60_46.RAW', FMTDAT='(8E13.5)'
 TRAMP=1., VOLUME=1. $END
  3.09885E+05 -3.47245E+02  3.37053E+05  2.52716E+05  8.46618E+04  3.38186E+05 -1.31438E+05  2.51681E+05
 -1.91450E+05  8.31135E+04 -1.13069E+05 -3.19635E+04  6.31258E+02 -5.05800E+04  5.36230E+04 -1.82070E+03
  3.62884E+04  5.39698E+04 -1.59854E+04  7.64538E+04 -6.22436E+04  6.51045E+04 -8.53912E+04  3.23204E+04
 -8.28929E+04 -1.28268E+04 -5.71936E+04 -5.24407E+04 -1.39480E+04 -7.08502E+04  2.76155E+04 -4.67369E+04
  4.14334E+04  4.61603E+03  1.63231E+04  5.00639E+04 -3.47357E+04  4.81562E+04 -6.84078E+04  5.98120E+02
 -5.48910E+04 -5.67032E+04 -7.94735E+03 -7.89235E+04  3.46173E+04 -5.57155E+04  5.09452E+04 -1.84325E+04
  4.56930E+04  1.23494E+04  3.29933E+04  2.48034E+04  1.48930E+04  3.13780E+04 -5.23241E+03  2.80931E+04
 -2.28524E+04  1.20918E+04 -1.76267E+04 -6.32293E+03  6.96469E+03 -8.29387E+03  2.33533E+04  1.32713E+04
  7.83263E+03  3.66584E+04 -3.27315E+04  3.69076E+04 -6.48040E+04  1.62859E+03 -5.79345E+04 -4.33756E+04
 -1.22146E+04 -6.59414E+04  4.10746E+04 -4.67237E+04  6.20387E+04 -2.35056E+03  3.69539E+04  3.46201E+04
 -7.11660E+03  3.96192E+04 -3.03367E+04  1.83975E+04 -3.25866E+04 -4.76318E+03 -1.82080E+04 -1.26226E+04
 -8.97983E+03 -1.35109E+04  4.03801E+01 -1.96514E+04  8.59717E+03 -2.33948E+04  1.66491E+04 -1.26241E+04
  1.01349E+04  5.85930E+03 -1.10761E+04  1.23103E+04 -2.38060E+04 -6.06453E+03 -9.92892E+03 -3.73815E+04
  2.35931E+04 -4.58368E+04  5.18251E+04 -2.05343E+04  4.89570E+04  1.90926E+04  1.43999E+04  4.52883E+04
 -1.71740E+04  3.48285E+04 -2.62717E+04  2.50042E+03 -1.09436E+04 -2.86519E+04  2.34870E+04 -3.76184E+04
  4.45509E+04 -9.06602E+03  3.88363E+04  2.50178E+04  2.02169E+04  4.92986E+04 -7.21997E+03  5.54662E+04
 -3.51117E+04  3.84272E+04 -4.79216E+04  1.05937E+04 -4.66494E+04 -1.83399E+04 -2.47958E+04 -4.33469E+04
  7.86680E+03 -4.23771E+04  3.50398E+04 -1.70449E+04  3.11584E+04  1.00454E+04  3.75862E+03  2.14865E+04
 -1.44952E+04  9.50647E+03 -1.07439E+04 -7.47744E+03  5.17226E+03 -1.06712E+04  1.94035E+04  4.43071E+03
  1.41375E+04  2.22742E+04 -6.66851E+03  2.62167E+04 -2.27418E+04  1.38525E+04 -2.86081E+04 -2.94312E+03
 -2.54857E+04 -1.81092E+04 -1.08517E+04 -2.44582E+04  4.76919E+03 -2.44646E+04  1.85007E+04 -2.15453E+04
  3.03348E+04 -1.41734E+04  3.63308E+04  5.04995E+03  2.68184E+04  2.34640E+04  4.53231E+03  4.10494E+04
 -1.84726E+04  3.32871E+04 -2.95238E+04  1.11697E+04 -2.11135E+04 -1.09552E+04 -5.59525E+03 -1.29367E+04
  3.26939E+02 -1.88820E+02 -7.86805E+03  6.70817E+03 -1.90895E+04  5.86651E+03 -1.82182E+04 -9.47625E+03
 -1.20077E+04 -2.28341E+04  7.05672E+03 -2.69056E+04  1.76870E+04 -2.00412E+04  2.23991E+04 -2.09024E+03
  1.33796E+04  1.65285E+04 -5.16814E+02  2.20768E+04 -1.59859E+04  1.33965E+04 -2.32217E+04 -3.99986E+03
 -1.74155E+04 -2.02793E+04 -1.65370E+03 -2.67209E+04  1.22080E+04 -2.15769E+04  2.23704E+04 -1.11880E+04
  2.05000E+04 -1.86663E+02  1.51203E+04  5.11607E+03  7.78185E+03  1.95010E+03  1.11546E+04 -1.65332E+03
  2.23067E+04  2.98270E+03  2.38072E+04  1.79811E+04  1.67565E+04  3.75020E+04 -3.40997E+03  4.23782E+04
 -2.35266E+04  3.44625E+04 -4.06587E+04  1.69744E+04 -4.30662E+04 -3.60884E+03 -3.53036E+04 -2.61709E+04
 -1.57436E+04 -3.44483E+04  1.23436E+04 -3.16111E+04  2.60740E+04 -1.48328E+04  2.17204E+04  6.97016E+03
  8.81172E+03  1.78890E+04 -1.03530E+04  1.50804E+04 -1.97895E+04  7.51927E+02 -1.50138E+04 -1.21410E+04
 -1.11877E+02 -1.78385E+04  1.12066E+04 -1.39178E+04  1.41625E+04 -1.12260E+03  4.01299E+03  1.00732E+04
 -7.06862E+03  4.61298E+03 -8.53335E+03 -7.30790E+03 -1.30435E+03 -1.66591E+04  1.04859E+04 -1.97246E+04
  2.14819E+04 -1.11532E+04  2.45919E+04  2.97376E+03  2.06135E+04  1.66749E+04  1.03947E+04  2.88607E+04
 -4.68472E+03  2.95379E+04 -1.96018E+04  1.75310E+04 -2.09715E+04  4.77412E+03 -1.46129E+04 -5.29830E+03
 -6.53944E+03 -7.42268E+03 -1.22195E+03 -4.80626E+02 -2.93555E+03  3.24591E+03 -6.14919E+03  6.38702E+03
 -1.34835E+04 -5.65074E+02 -1.48374E+04 -1.16244E+04 -5.70725E+03 -1.81981E+04  5.86428E+03 -1.23533E+04
  1.27693E+04 -6.76109E+03  7.78587E+03  3.96962E+03  4.30668E+02  4.98524E+03 -6.93510E+03 -1.50139E+03
 -8.08755E+03 -1.01714E+04 -1.75837E+02 -1.33264E+04  7.41369E+03 -1.52173E+04  1.69800E+04 -7.83762E+03
  2.36580E+04  2.57598E+03  1.56321E+04  1.38853E+04  3.44466E+03  1.80030E+04 -1.03209E+04  1.44790E+04
 -1.26388E+04  3.80027E+03 -4.78120E+03 -2.35240E+03  2.72259E+03 -3.94728E+03  7.60835E+03 -1.35971E+03
  5.73998E+03  7.40401E+03  5.07208E+02  1.17137E+04 -8.70159E+03  1.02339E+04 -1.47075E+04  3.48079E+03
 -9.13607E+03 -8.32554E+03 -2.54383E+02 -1.22263E+04  9.24421E+03 -7.82926E+03  8.43635E+03  2.08557E+03
  1.64916E+03  8.81439E+03 -8.53294E+03  9.93661E+03 -1.31151E+04  4.28484E+03 -1.31766E+04 -4.91899E+03
 -6.54745E+03 -1.37919E+04  3.20263E+03 -1.65250E+04  1.39422E+04 -9.98224E+03  1.65636E+04  3.03529E+03
  9.16958E+03  1.27346E+04 -5.98042E+02  1.43911E+04 -1.13198E+04  7.98584E+03 -1.12637E+04 -1.52717E+03
 -7.76158E+03 -1.17060E+04 -2.48822E+03 -1.07312E+04  5.38858E+03 -9.38351E+03  7.10477E+03 -4.21047E+03
  2.43975E+03  8.95394E+02 -1.26514E+03  2.11803E+03 -9.40537E+02 -3.32637E+03  2.94403E+03 -6.83611E+03
  1.05208E+04 -3.76974E+03  1.32943E+04  1.26607E+03  1.47967E+04  9.94596E+03  9.14892E+03  1.88384E+04
 -3.70953E+03  2.17618E+04 -1.91796E+04  1.57921E+04 -2.31955E+04  2.43727E+03 -1.80607E+04 -8.52734E+03
 -9.84529E+03 -1.45045E+04 -9.54550E+02 -1.40872E+04  5.45112E+03 -8.25923E+03  4.16179E+03 -4.66417E+03
  2.43403E+03 -3.01983E+03  3.52543E+03 -3.64448E+03  5.57530E+03 -1.33453E+03  7.77813E+03 -8.23536E+02
  1.11978E+04  1.77282E+03  6.10510E+03  7.10620E+03 -1.81595E+03  1.05422E+04 -1.13131E+04  7.73894E+03
 -1.41024E+04 -2.09073E+03 -9.58402E+03 -1.09218E+04 -8.06045E+02 -1.32230E+04  6.86050E+03 -1.33389E+04
  1.48903E+04 -6.74105E+03  1.70012E+04  1.86579E+03  1.31212E+04  1.15623E+04  8.79982E+02  1.55587E+04
 -5.18079E+03  1.32105E+04 -1.02959E+04  5.02913E+03 -5.39656E+03 -1.41596E+03 -2.05297E+03 -1.46446E+03
 -2.84720E+03 -6.14561E+01 -1.75152E+03  3.27952E+03 -6.34971E+03  1.55008E+03 -1.01774E+04 -2.32019E+03
 -5.62569E+03 -8.96992E+03 -1.05990E+03 -1.29272E+04  9.26347E+03 -1.17076E+04  1.23424E+04 -3.53802E+03
  1.26676E+04  6.63679E+03  6.01098E+03  9.84425E+03 -3.24520E+03  1.41792E+04 -9.33103E+03  9.76353E+03
 -1.23941E+04  3.56431E+02 -8.90086E+03 -6.90663E+03 -8.45003E+02 -1.07657E+04  5.51133E+03 -7.01121E+03
  8.55285E+03 -2.26513E+03  5.65030E+03  1.97718E+03  1.98094E+03  1.27745E+03  1.79211E+03  1.08551E+03
  2.32244E+03  1.73119E+03  3.03882E+03  1.64888E+03  4.63376E+03  4.27149E+03  2.44629E+03  7.50433E+03
 -2.25565E+03  9.35482E+03 -8.87243E+03  1.04913E+04 -1.21492E+04  2.33181E+03 -1.37907E+04 -6.03410E+03
 -7.64026E+03 -1.18695E+04  1.51284E+03 -1.21272E+04  6.79497E+03 -8.56896E+03  9.59158E+03 -1.95621E+03
  7.47419E+03  5.92513E+03  1.14671E+03  9.58662E+03 -2.97877E+03  4.98423E+03 -5.51578E+03 -3.79565E+02
 -1.96995E+03 -4.57128E+03  2.80848E+03 -5.78217E+03  5.29331E+03 -1.43417E+03  5.42025E+03  7.79029E+01
  3.69120E+03  2.94496E+03  1.17016E+03  3.49418E+03 -5.97103E+02  2.05652E+03  1.79250E+03 -3.69432E+02
  3.08364E+03  4.97261E+02  5.23841E+03  5.29342E+02  2.09259E+03  6.31865E+03 -7.10425E+02  9.63398E+03
 -6.47449E+03  6.37464E+03 -8.71385E+03  1.56467E+03 -6.43691E+03 -1.77600E+03 -1.70565E+03 -3.92055E+03
 -6.00892E+02 -5.39447E+03  2.57970E+03 -2.73381E+03  3.47795E+03  3.54908E+03 -1.45791E+03  3.63088E+03
 -4.47388E+03  1.66489E+03 -4.91484E+03 -2.30231E+03 -3.88800E+03 -6.26189E+03  1.24168E+03 -6.01917E+03
  2.13905E+03 -4.61790E+03  3.66732E+03 -1.09219E+02  3.90879E+03  1.81820E+03  3.20111E+01  4.07363E+03
 -2.07481E+03  1.17797E+03 -3.39829E+03 -1.87339E+03  2.45672E+03 -3.88196E+03  5.54394E+03 -3.51907E+03
  8.12031E+03 -1.55772E+03  6.54135E+03  3.98402E+03  2.64508E+03  9.27034E+03 -1.68662E+03  8.18438E+03
 -5.19771E+03  3.30030E+03 -7.05407E+03 -2.32453E+02 -4.38966E+03 -5.00271E+03  6.70775E+02 -4.42416E+03
  3.80292E+03 -3.28098E+03  3.60204E+03  2.18702E+03  1.81215E+02  4.26094E+03  6.99060E+02  4.54188E+03
 -1.30009E+03  3.47060E+03 -2.45939E+03  3.91694E+02 -2.29970E+03  1.29674E+03 -1.22749E+02  1.52043E+03
 -1.31638E+03  3.07127E+03 -5.63629E+03  3.69803E+03 -7.67505E+03 -3.78334E+02 -9.12813E+03 -5.52409E+03
 -4.98389E+03 -1.11385E+04  1.53464E+03 -1.11924E+04  7.67869E+03 -9.97434E+03  1.12529E+04 -2.76362E+03
  9.62485E+03  2.62471E+03  6.65807E+03  6.32592E+03  8.79842E+02  9.46786E+03 -5.19766E+03  5.25944E+03
 -4.72774E+03  3.70198E+03 -2.45859E+03 -7.44355E+02 -1.61642E+03 -3.20228E+02 -1.35550E+03  1.14797E+03
 -1.92656E+03  2.98535E+02 -1.71794E+03 -9.65326E+02 -2.23995E+03 -2.14242E+03  1.00944E+03 -3.15869E+03
  4.21761E+03 -2.17324E+03  5.26192E+03 -3.16229E+02  5.81422E+03  4.23670E+03 -3.01785E+02  6.97260E+03
 -4.38445E+03  9.06363E+03 -7.99693E+03  5.16102E+03 -9.60676E+03 -1.06288E+03 -6.63702E+03 -5.91918E+03
 -1.84360E+03 -6.79732E+03  1.46857E+03 -7.65850E+03  6.82440E+03 -3.94595E+03  5.86761E+03  5.73063E+02
  4.11677E+03  3.02939E+03 -1.63838E+03  1.88616E+03 -4.02378E+03  1.25410E+02  4.05691E+02 -1.40975E+03
  3.01270E+03 -6.06108E+02  4.05281E+03  2.06395E+03  2.54609E+03  4.30761E+03 -1.06584E+03  3.00857E+03
 -1.23712E+03  3.67678E+03 -3.68694E+03  1.27606E+03 -4.03470E+03 -3.37040E+03 -9.69144E+02 -6.19342E+03
  4.27272E+03 -5.08075E+03  7.39633E+03 -1.61606E+03  4.21114E+03  1.56003E+03  2.71494E+03  5.43489E+03
  1.11530E+03  5.54259E+03 -7.90301E+02  4.54317E+03 -3.56320E+03  2.67701E+03 -1.73405E+03  1.15646E+03
 -1.32494E+03 -2.78170E+02 -1.83302E+03 -6.64181E+02 -2.26623E+03  2.12233E+03 -5.21326E+03 -1.69245E+03
 -4.11390E+03 -2.91434E+03 -2.65533E+03 -5.65315E+03  3.58547E+03 -4.77770E+03  3.31490E+03 -1.90432E+03
  4.15778E+03  1.25047E+03  2.16686E+03  4.30362E+03 -1.18005E+03  5.52413E+03 -3.32046E+03  2.74596E+03
