 $NMID ID='MM_0lb_SNR200_13hz_g45_71.RAW', FMTDAT='(8E13.5)'
 TRAMP=1., VOLUME=1. $END
  3.10369E+05  7.16566E+02  3.37305E+05  2.50162E+05  8.53575E+04  3.38209E+05 -1.32491E+05  2.51160E+05
 -1.90166E+05  8.29714E+04 -1.12232E+05 -3.33519E+04  1.14277E+03 -5.14550E+04  5.21562E+04 -5.86632E+02
  3.43926E+04  5.24880E+04 -1.79914E+04  7.50548E+04 -6.03278E+04  6.50991E+04 -8.47067E+04  3.18807E+04
 -8.10448E+04 -1.18859E+04 -5.77086E+04 -5.13311E+04 -1.49760E+04 -6.98052E+04  2.66112E+04 -4.61523E+04
  4.00770E+04  5.50303E+03  1.61766E+04  4.79707E+04 -3.44899E+04  4.80866E+04 -6.50502E+04 -1.57982E+03
 -5.34415E+04 -5.82084E+04 -6.12210E+03 -7.70378E+04  3.32666E+04 -5.53693E+04  4.83580E+04 -1.75421E+04
  4.34116E+04  1.07782E+04  3.33650E+04  2.48374E+04  1.65469E+04  2.91098E+04 -4.45590E+03  2.71732E+04
 -2.23575E+04  1.23261E+04 -1.98187E+04 -4.88516E+03  5.40691E+03 -7.24162E+03  2.22479E+04  1.17489E+04
  7.80265E+03  3.54873E+04 -3.20276E+04  3.65970E+04 -6.32974E+04  3.45745E+03 -5.79741E+04 -4.28907E+04
 -1.21164E+04 -6.32625E+04  3.84205E+04 -4.47814E+04  5.87542E+04 -8.97191E+02  3.53937E+04  3.16319E+04
 -5.24409E+03  3.67932E+04 -2.93084E+04  1.59695E+04 -3.15798E+04 -4.64468E+03 -1.82729E+04 -1.14475E+04
 -7.67180E+03 -1.34490E+04  2.34640E+02 -1.92627E+04  6.99351E+03 -2.24610E+04  1.57431E+04 -1.24523E+04
  1.16007E+04  3.90824E+03 -7.82303E+03  1.22764E+04 -2.13273E+04 -3.91839E+03 -8.57397E+03 -3.53527E+04
  2.31402E+04 -4.28401E+04  4.76671E+04 -1.88762E+04  4.46490E+04  2.05046E+04  1.64600E+04  4.49930E+04
 -1.58929E+04  3.39126E+04 -2.52660E+04  1.83889E+03 -1.16152E+04 -2.73851E+04  2.12493E+04 -3.47547E+04
  4.02467E+04 -1.07293E+04  3.55005E+04  2.27910E+04  1.79162E+04  4.62012E+04 -7.47668E+03  5.04620E+04
 -3.12209E+04  3.38181E+04 -4.18909E+04  9.19362E+03 -4.12953E+04 -1.71168E+04 -2.40218E+04 -3.85961E+04
  7.96844E+03 -3.84310E+04  3.13771E+04 -1.46535E+04  2.89188E+04  1.04952E+04  5.61616E+03  1.94247E+04
 -1.31378E+04  7.77334E+03 -1.29421E+04 -8.46204E+03  5.93495E+03 -1.07265E+04  1.80314E+04  5.89534E+03
  1.24769E+04  2.35388E+04 -5.29790E+03  2.47661E+04 -2.17918E+04  1.23905E+04 -2.90516E+04 -4.84901E+03
 -2.16151E+04 -1.72578E+04 -8.03544E+03 -2.13226E+04  4.62679E+03 -2.08541E+04  1.71439E+04 -1.97926E+04
  2.67270E+04 -1.34623E+04  3.35307E+04  2.53507E+03  2.41108E+04  2.00876E+04  4.27912E+03  3.68047E+04
 -1.68151E+04  3.10006E+04 -2.85917E+04  9.97720E+03 -2.14888E+04 -1.03155E+04 -4.27891E+03 -1.42778E+04
  2.14980E+03 -3.15956E+03 -6.17293E+03  6.50552E+03 -1.59318E+04  5.57002E+03 -1.60290E+04 -7.14757E+03
 -1.12866E+04 -1.97298E+04  5.46484E+03 -2.36389E+04  1.45303E+04 -1.74836E+04  1.87455E+04 -9.39985E+02
  1.14193E+04  1.36933E+04 -1.32368E+03  1.91041E+04 -1.34192E+04  1.11050E+04 -1.82845E+04 -2.85728E+03
 -1.44038E+04 -1.82610E+04 -1.44311E+03 -2.34278E+04  1.19943E+04 -1.97539E+04  1.96585E+04 -9.33089E+03
  1.79308E+04 -3.00408E+01  1.34921E+04  4.84308E+03  7.28333E+03  2.64840E+02  9.90816E+03 -1.79612E+03
  1.70372E+04  2.94534E+03  2.09050E+04  1.61742E+04  1.27055E+04  3.03536E+04 -3.21737E+03  3.58769E+04
 -2.08641E+04  2.83135E+04 -3.22943E+04  1.33478E+04 -3.46243E+04 -3.30715E+03 -2.76571E+04 -1.98397E+04
 -1.20499E+04 -2.89526E+04  1.04564E+04 -2.69313E+04  2.10660E+04 -1.24985E+04  1.91454E+04  5.09240E+03
  6.23591E+03  1.50240E+04 -1.00478E+04  1.43545E+04 -1.67391E+04  2.45501E+03 -1.25835E+04 -9.61730E+03
 -1.03255E+03 -1.61959E+04  8.07026E+03 -1.12201E+04  1.00240E+04 -1.23557E+03  2.45647E+03  5.80018E+03
 -7.17616E+03  3.17813E+03 -6.52652E+03 -5.95380E+03 -2.33791E+02 -1.48768E+04  9.42924E+03 -1.48288E+04
  1.83479E+04 -8.53188E+03  1.85611E+04  2.65047E+03  1.63113E+04  1.42966E+04  7.71887E+03  2.09938E+04
 -2.99447E+03  2.32729E+04 -1.53661E+04  1.51216E+04 -1.59357E+04  3.72235E+03 -1.19844E+04 -3.26457E+03
 -5.35869E+03 -4.32740E+03 -1.74739E+03  8.16873E+02 -1.76512E+03  3.30992E+03 -4.81681E+03  4.20651E+03
 -1.26590E+04 -1.11943E+03 -1.20053E+04 -9.63267E+03 -5.34215E+03 -1.58905E+04  4.32747E+03 -1.16073E+04
  1.05691E+04 -5.10441E+03  7.42013E+03  2.90909E+03  4.55434E+02  4.26505E+03 -4.52244E+03  4.39592E+02
 -5.18072E+03 -7.70871E+03 -1.29704E+03 -1.08018E+04  6.32220E+03 -1.16769E+04  1.45160E+04 -5.54029E+03
  1.81637E+04  1.82794E+03  1.29614E+04  1.09329E+04  2.80372E+03  1.32293E+04 -7.30206E+03  1.14190E+04
 -9.26900E+03  5.07880E+03 -4.71532E+03 -8.17617E+02  2.31853E+03 -4.06239E+03  5.84870E+03 -1.69341E+03
  5.55190E+03  4.15055E+03  1.10871E+03  9.12470E+03 -5.71413E+03  8.42401E+03 -1.10836E+04  7.57414E+02
 -8.05538E+03 -6.22229E+03 -6.69666E+02 -9.42753E+03  5.84058E+03 -4.77880E+03  6.26098E+03  2.28010E+03
  1.84637E+03  6.52869E+03 -6.20895E+03  8.53419E+03 -9.34893E+03  3.03374E+03 -8.11970E+03 -2.69763E+03
 -4.91498E+03 -1.03445E+04  4.86789E+02 -9.84445E+03  1.03606E+04 -7.75232E+03  1.07056E+04  2.15207E+03
  6.95141E+03  8.42299E+03 -9.78161E+02  1.13019E+04 -7.65197E+03  6.43608E+03 -8.86018E+03 -1.09682E+03
 -7.83204E+03 -7.29060E+03 -2.50825E+03 -6.99776E+03  4.60148E+03 -7.92592E+03  4.10077E+03 -2.51970E+03
  3.13379E+03  1.36239E+03  1.32659E+01  2.47781E+03 -6.27720E+02 -1.23361E+03  8.54889E+02 -4.19598E+03
  7.25980E+03 -3.03476E+03  1.05212E+04  2.01286E+03  9.02586E+03  7.63778E+03  7.81910E+03  1.47209E+04
 -2.69259E+03  1.55433E+04 -1.29583E+04  1.19751E+04 -1.70408E+04  2.14591E+03 -1.31126E+04 -5.91849E+03
 -7.80133E+03 -9.69187E+03 -8.48768E+01 -9.63563E+03  4.60656E+03 -5.26284E+03  2.71938E+03 -3.55438E+03
  2.01613E+03 -3.09280E+03  2.94752E+03 -3.11357E+03  3.51308E+03 -2.72921E+03  4.37764E+03  1.10333E+02
  7.81643E+03  1.88894E+03  2.57778E+03  5.93186E+03 -2.11770E+03  6.87073E+03 -7.46115E+03  5.42238E+03
 -8.42128E+03 -7.32740E+02 -4.80866E+03 -6.01516E+03 -2.97445E+00 -1.02508E+04  7.59809E+03 -1.04553E+04
  9.42536E+03 -4.77580E+03  1.36823E+04  1.40947E+03  9.65696E+03  8.54999E+03  3.02244E+03  1.08938E+04
 -4.10464E+03  1.06111E+04 -6.06397E+03  2.05166E+03 -3.32826E+03 -1.52601E+02 -1.33931E+03 -2.34539E+03
  4.55117E+02 -2.46396E+02 -2.96378E+03  3.17319E+03 -4.48368E+03  2.52883E+03 -6.78543E+03 -1.78328E+03
 -2.67149E+03 -7.77743E+03 -4.59390E+02 -8.83832E+03  6.36114E+03 -8.43311E+03  8.64750E+03 -2.89605E+03
  8.59844E+03  4.15892E+03  3.05280E+03  7.38753E+03 -1.50011E+03  8.98670E+03 -7.13403E+03  5.97619E+03
 -8.11093E+03  7.61624E+02 -7.34357E+03 -5.39359E+03 -5.88966E+02 -6.60300E+03  3.89277E+03 -4.90425E+03
  6.50514E+03 -1.37706E+03  3.69778E+03  1.39013E+03  1.25779E+03  3.80075E+03  2.21772E+03  1.41956E+03
  1.09921E+03  2.52565E+02  2.47721E+03  2.41346E+03  1.98211E+03  2.38956E+03  2.47792E+03  3.25784E+03
 -1.86576E+03  7.15821E+03 -5.29178E+03  7.03274E+03 -8.06053E+03  2.55809E+03 -8.74917E+03 -2.69606E+03
 -4.84189E+03 -7.83481E+03  1.06149E+03 -9.37009E+03  4.38525E+03 -6.64928E+03  6.43193E+03 -2.36079E+03
  6.14535E+03  3.59890E+03 -9.06474E+01  4.55943E+03 -2.09156E+03  3.16682E+03 -3.36991E+03 -5.12812E+02
 -1.21944E+03 -4.21032E+03  2.21047E+03 -3.99807E+03  3.62062E+03 -1.64122E+03  3.26115E+03  9.38222E+02
  1.08917E+03  8.65970E+02  2.08687E+03  1.08570E+03 -3.05125E+02  1.27476E+03  2.12222E+03 -8.60373E+02
  1.10189E+03 -6.41744E+02  3.34768E+03  2.23560E+03  1.49401E+03  4.54578E+03 -3.04868E+02  5.88770E+03
 -4.50158E+03  2.41651E+03 -6.47424E+03  1.09701E+03 -4.90745E+03 -1.80309E+03 -1.62003E+03 -2.95896E+03
 -3.47742E+02 -2.72837E+03  3.57030E+03 -1.79708E+03  1.15781E+03  1.54748E+03 -1.01977E+03  2.39885E+03
 -4.24224E+03  1.90622E+03 -3.03389E+03 -2.54259E+03 -2.12789E+03 -3.81166E+03  5.11820E+02 -4.76402E+03
  2.00821E+03 -1.46370E+03  3.03975E+03 -3.76055E+02  3.10336E+03  2.94571E+03 -1.00257E+03  2.01596E+03
 -1.34630E+03  2.47491E+02 -2.45617E+03 -1.44251E+03  4.42788E+02 -3.79008E+03  3.22811E+03 -1.55322E+03
  3.64438E+03  1.01758E+03  5.26123E+03  3.02624E+03  2.10292E+03  4.33712E+03 -1.83080E+03  4.34484E+03
 -3.77725E+03  3.08383E+03 -4.05891E+03 -6.09851E+02 -1.87042E+03 -3.98626E+03 -3.47791E+01 -2.91577E+03
  4.04205E+03 -2.25773E+03  2.84782E+03  2.60290E+03  8.61270E+02  2.52494E+03 -3.53749E+02  3.46705E+03
 -1.67730E+03  1.09500E+03 -6.49504E+02 -3.65249E+02  3.91473E+02 -5.35573E+02 -2.99254E+03  1.46459E+03
 -1.98476E+03  2.04147E+03 -3.08197E+03  6.55117E+02 -4.61897E+03 -6.99301E+02 -5.60459E+03 -2.83449E+03
 -2.33923E+03 -7.92402E+03  4.27351E+01 -8.11860E+03  3.21015E+03 -5.61272E+03  7.48945E+03 -2.93348E+03
  7.43074E+03  4.29824E+02  4.07463E+03  4.70466E+03  2.26076E+02  4.07814E+03 -1.81559E+03  4.05669E+03
 -3.19450E+03  2.55870E+03 -2.10713E+03 -9.03224E+02 -8.84257E+02 -4.51294E+01 -1.33424E+03 -8.28483E+02
 -1.40378E+03  1.07085E+03 -1.00621E+03 -1.05567E+02 -1.04400E+03 -6.19467E+02 -1.21855E+03 -2.44887E+03
  1.90576E+03 -1.37224E+03  2.62014E+03  8.71202E+01  4.13687E+03  2.31501E+03 -6.50693E+02  4.18863E+03
 -2.65302E+03  6.46369E+03 -4.28182E+03  3.10843E+03 -5.78234E+03  1.91700E+02 -4.21765E+03 -3.90749E+03
 -2.40485E+03 -3.97637E+03  1.50463E+03 -5.11066E+03  3.19691E+03 -3.44513E+03  2.55473E+03  1.03515E+03
  1.05916E+03  2.02309E+03 -4.85095E+02  4.78221E+01 -1.42256E+03  3.68067E+02  7.03952E+02  5.41575E+02
  1.54459E+03 -1.67642E+03  7.86753E+02  9.89798E+02  1.17328E+03  1.66117E+03  5.24794E+02  2.20004E+03
 -1.60260E+03  2.21250E+03 -2.40686E+03 -6.29103E+02 -2.64522E+03 -1.68076E+03 -1.03029E+03 -4.73199E+03
  2.35016E+03 -3.57216E+03  3.23955E+03 -2.48437E+02  2.76622E+03 -1.64610E+02  2.20344E+03  2.97914E+03
  6.34540E+01  3.20513E+03 -1.60502E+03  1.79516E+03 -1.86465E+03  7.92781E+02 -1.56723E+03  4.92267E+01
 -1.13551E+03  1.43518E+03 -1.20954E+03  1.66811E+03 -1.10322E+03  1.01012E+03 -1.84173E+03 -1.52017E+03
 -1.23753E+03 -8.47548E+02 -2.61509E+02 -3.55072E+03  7.09840E+02 -3.58746E+03  2.78146E+03 -2.02885E+03
  2.47001E+03  1.24988E+03  1.96337E+03  3.59761E+03 -6.94382E+02  3.08567E+03 -1.08797E+03  2.08782E+03
