 $NMID ID='MM_0lb_SNR200_15hz_g40_52.RAW', FMTDAT='(8E13.5)'
 TRAMP=1., VOLUME=1. $END
  3.09437E+05 -2.26656E+02  3.37140E+05  2.50572E+05  8.40693E+04  3.38425E+05 -1.32548E+05  2.50888E+05
 -1.90200E+05  8.23128E+04 -1.12208E+05 -3.30102E+04  7.87450E+02 -4.97418E+04  5.32727E+04  1.52545E+02
  3.51424E+04  5.20627E+04 -1.75924E+04  7.49384E+04 -6.00575E+04  6.23160E+04 -8.34593E+04  3.22302E+04
 -8.08397E+04 -1.12823E+04 -5.70061E+04 -5.05565E+04 -1.56187E+04 -7.11837E+04  2.79322E+04 -4.46025E+04
  4.00820E+04  3.31782E+03  1.66850E+04  4.85340E+04 -3.38215E+04  4.51696E+04 -6.52678E+04 -7.36037E+01
 -5.32204E+04 -5.68741E+04 -5.70796E+03 -7.51650E+04  3.33076E+04 -5.41870E+04  4.56884E+04 -1.80500E+04
  4.22920E+04  1.18794E+04  3.02910E+04  2.42733E+04  1.57160E+04  2.91136E+04 -5.20004E+03  2.69130E+04
 -2.12420E+04  1.20090E+04 -1.84128E+04 -4.14989E+03  5.42344E+03 -7.53514E+03  2.13529E+04  1.12997E+04
  7.07162E+03  3.36693E+04 -3.19354E+04  3.41772E+04 -6.22021E+04  2.80368E+03 -5.59984E+04 -4.20323E+04
 -1.20272E+04 -6.12096E+04  3.88176E+04 -4.32604E+04  5.73636E+04 -2.17176E+03  3.30110E+04  3.10588E+04
 -6.37119E+03  3.47144E+04 -2.89190E+04  1.41422E+04 -2.78157E+04 -4.11996E+03 -1.50213E+04 -1.09533E+04
 -7.50363E+03 -1.19614E+04 -5.79024E+02 -1.68486E+04  7.00907E+03 -2.34353E+04  1.51617E+04 -1.45543E+04
  1.19438E+04  5.34926E+03 -7.17318E+03  1.24006E+04 -1.98376E+04 -3.01894E+03 -8.40578E+03 -3.19768E+04
  2.23274E+04 -4.26218E+04  4.65116E+04 -1.89805E+04  4.32716E+04  1.90477E+04  1.45791E+04  4.33573E+04
 -1.51453E+04  3.14170E+04 -2.46372E+04  1.84847E+03 -9.09126E+03 -2.73197E+04  2.12410E+04 -3.31515E+04
  3.95591E+04 -6.98859E+03  3.41648E+04  2.40162E+04  1.58284E+04  4.47772E+04 -8.47515E+03  4.68678E+04
 -3.02018E+04  3.20129E+04 -3.96188E+04  7.71420E+03 -4.12439E+04 -1.63623E+04 -2.12743E+04 -3.68887E+04
  6.40870E+03 -3.60896E+04  2.99442E+04 -1.27093E+04  2.95445E+04  1.11046E+04  3.47412E+03  1.91920E+04
 -1.33846E+04  8.43861E+03 -9.99211E+03 -6.82548E+03  6.36651E+03 -1.03741E+04  1.86701E+04  7.00193E+03
  1.29927E+04  2.27515E+04 -6.97079E+03  2.41350E+04 -2.13082E+04  1.08483E+04 -2.61360E+04 -6.27063E+03
 -1.85005E+04 -1.61760E+04 -8.03202E+03 -1.86725E+04  3.62536E+03 -1.68036E+04  1.40520E+04 -1.54434E+04
  2.33837E+04 -1.18467E+04  3.16769E+04  2.34806E+03  2.28890E+04  1.83992E+04  3.45629E+03  3.43979E+04
 -1.69344E+04  2.76147E+04 -2.80269E+04  9.08820E+03 -1.94167E+04 -1.06789E+04 -4.19677E+03 -1.44076E+04
  1.37777E+03 -3.72146E+03 -4.11750E+03  6.37964E+03 -1.44526E+04  4.73871E+03 -1.48174E+04 -5.28098E+03
 -8.94462E+03 -1.74090E+04  4.76760E+03 -2.10195E+04  1.47141E+04 -1.59589E+04  1.71907E+04 -1.69753E+03
  9.91850E+03  1.20962E+04 -1.36456E+03  1.60174E+04 -1.30016E+04  1.01523E+04 -1.74552E+04 -4.17692E+03
 -1.32871E+04 -1.62703E+04 -1.75976E+03 -2.04481E+04  1.05868E+04 -1.70246E+04  1.86605E+04 -8.93458E+03
  1.68756E+04  1.20804E+02  1.21408E+04  4.53649E+03  6.78452E+03  4.04668E+02  7.12324E+03 -1.70971E+03
  1.57582E+04  2.25903E+03  1.75574E+04  1.50430E+04  1.16269E+04  2.84651E+04 -3.98714E+03  3.10177E+04
 -1.88901E+04  2.38023E+04 -2.96185E+04  1.23123E+04 -3.05137E+04 -1.24999E+03 -2.53272E+04 -1.70256E+04
 -1.02470E+04 -2.45337E+04  7.49768E+03 -2.22752E+04  1.83291E+04 -1.40577E+04  1.88272E+04  5.46677E+03
  6.40053E+03  1.34756E+04 -8.35616E+03  1.14261E+04 -1.49239E+04  1.90103E+03 -1.24575E+04 -9.81415E+03
 -1.29543E+01 -1.51217E+04  7.09691E+03 -9.96520E+03  8.59229E+03 -2.14665E+03  2.56472E+03  5.93315E+03
 -5.93965E+03  1.99012E+03 -5.03795E+03 -4.40509E+03 -3.40146E+02 -1.28188E+04  9.61723E+03 -1.17068E+04
  1.38004E+04 -6.85502E+03  1.53987E+04  3.20239E+03  1.36343E+04  1.17654E+04  6.16487E+03  1.84538E+04
 -2.67423E+03  2.01640E+04 -1.16240E+04  1.26704E+04 -1.39770E+04  3.69943E+03 -1.02780E+04 -2.78829E+03
 -3.97021E+03 -4.20733E+03 -1.51982E+03  1.06687E+03 -2.03026E+03  3.45893E+03 -4.09084E+03  4.14139E+03
 -9.86029E+03 -5.40671E+02 -1.07915E+04 -8.89283E+03 -4.42001E+03 -1.38295E+04  3.45563E+03 -1.08181E+04
  9.67337E+03 -5.02969E+03  5.87204E+03  3.94006E+03  1.57007E+03  4.90175E+03 -3.96094E+03 -3.30254E+02
 -3.96041E+03 -5.77986E+03 -8.28286E+02 -8.85011E+03  4.87235E+03 -1.06053E+04  1.20883E+04 -5.72890E+03
  1.52804E+04  8.58239E+02  1.09730E+04  8.17910E+03  1.93989E+03  1.20385E+04 -6.02300E+03  1.02939E+04
 -9.01043E+03  3.05853E+03 -5.19103E+03 -1.84298E+03  1.67846E+03 -1.14732E+03  4.94876E+03 -1.28206E+02
  4.37773E+03  4.66024E+03  1.45182E+03  7.75581E+03 -5.92614E+03  6.92964E+03 -1.08490E+04  2.53468E+03
 -6.43469E+03 -5.54072E+03  2.71663E+01 -8.68850E+03  4.12974E+03 -3.34973E+03  5.37379E+03  1.29307E+03
  1.10436E+03  5.81722E+03 -4.80160E+03  5.81583E+03 -6.44000E+03  3.58135E+03 -6.21304E+03 -1.57878E+03
 -3.22136E+03 -7.81562E+03  1.51768E+03 -9.40280E+03  8.30683E+03 -6.30686E+03  9.17521E+03  1.19413E+03
  5.84529E+03  6.73456E+03  4.81287E+02  8.97392E+03 -6.42640E+03  4.73904E+03 -6.51385E+03 -4.67708E+02
 -6.17543E+03 -6.48440E+03 -1.39719E+03 -7.17752E+03  2.35736E+03 -5.72727E+03  2.98574E+03 -3.47891E+03
  1.86268E+03  5.29112E+02  6.04826E+01  1.12920E+03  1.03771E+03 -1.21938E+03  9.89200E+02 -2.97693E+03
  5.24642E+03 -1.33658E+03  7.58715E+03  7.69270E+02  7.98555E+03  4.76316E+03  7.48106E+03  1.02898E+04
 -3.12511E+03  1.22046E+04 -9.97080E+03  1.10505E+04 -1.33044E+04  1.57080E+03 -1.01730E+04 -3.40794E+03
 -5.27199E+03 -8.19929E+03 -7.31865E+02 -8.29738E+03  2.66857E+03 -3.91096E+03  3.15788E+03 -2.51181E+03
  1.57196E+03 -1.52453E+03  2.33872E+03 -2.64034E+03  5.35834E+03 -2.00306E+03  4.96146E+03  4.17015E+02
  5.64626E+03  2.10396E+03  3.02894E+03  5.57588E+03 -2.03693E+03  5.15973E+03 -4.82143E+03  2.74844E+03
 -7.49342E+03 -1.41975E+03 -3.38265E+03 -6.00884E+03 -1.68973E+02 -7.79483E+03  3.90914E+03 -7.68308E+03
  6.59191E+03 -5.31226E+03  1.08465E+04  5.72829E+02  6.92478E+03  6.50338E+03  1.45835E+03  7.79077E+03
 -4.40992E+03  8.43317E+03 -4.67368E+03  3.21308E+03 -4.69148E+03 -5.46268E+02 -1.86587E+03 -1.71645E+03
  3.77029E+02  1.51729E+02 -1.42021E+03  2.98338E+03 -3.70513E+03  1.22281E+03 -5.68978E+03 -1.25710E+03
 -3.15671E+03 -4.60328E+03  1.62005E+02 -7.01099E+03  4.53151E+03 -6.48331E+03  6.27186E+03 -2.22405E+03
  5.85560E+03  4.10385E+03  2.87825E+03  5.21630E+03 -6.82196E+02  6.12783E+03 -4.82197E+03  4.38184E+03
 -6.00201E+03  1.09744E+03 -4.93870E+03 -4.25011E+03  8.28522E+01 -3.94272E+03  2.97325E+03 -3.49650E+03
  4.44121E+03 -1.35196E+03  3.77987E+03  1.24844E+02  1.70627E+02  2.90956E+03  1.14306E+03  1.09515E+03
  2.56173E+03  1.05309E+03  2.36489E+03  2.06880E+03  8.24915E+02  1.45821E+03  1.90627E+03  2.14112E+03
 -1.63309E+03  5.14634E+03 -4.76513E+03  6.28470E+03 -5.52334E+03  1.08722E+03 -6.15775E+03 -2.70147E+03
 -3.68530E+03 -5.82696E+03 -5.26826E+01 -7.48649E+03  3.76469E+03 -3.90726E+03  5.94879E+03 -7.81385E+02
  3.08358E+03  1.83807E+03  1.60197E+03  3.93482E+03 -1.83656E+03  2.34324E+03 -2.23430E+03  2.24004E+02
 -1.55646E+03 -3.30363E+03  1.04402E+03 -2.05282E+03  2.25112E+03 -2.11146E+03  1.74804E+03  4.13258E+02
  1.21092E+03 -1.92928E+02  1.04794E+03  3.48053E+02 -2.66660E+02  1.49727E+03  1.40131E+03 -7.85908E+02
  3.99118E+02  7.25791E+02  2.42255E+03  1.34032E+03  4.60927E+02  3.97408E+03 -8.30962E+02  4.19112E+03
 -3.01130E+03  1.77540E+03 -4.03178E+03  7.50194E+02 -3.96633E+03 -1.43743E+03 -1.34993E+03 -2.65402E+03
  8.67593E+02 -1.93699E+03  1.67628E+03 -5.07507E+02  1.09907E+03  2.24348E+03 -5.64530E+02  1.21186E+03
 -1.96974E+03  7.02669E+02 -2.72366E+03 -1.86952E+03 -6.28818E+02 -3.11454E+03  3.19910E+02 -4.26622E+03
  2.51678E+03 -1.37062E+03  3.22269E+03  3.59491E+02  2.73934E+03  1.39428E+02  8.64691E+02  1.78060E+03
 -6.26563E+02  3.93831E+02 -8.73490E+02  9.58873E+02  1.17519E+03 -2.68969E+03  1.99279E+03 -1.90907E+03
  2.31145E+03 -1.57618E+02  4.03802E+03  1.69231E+03  1.48240E+03  3.23422E+03 -7.54047E+02  3.10161E+03
 -2.93873E+03  1.42115E+03 -2.85220E+03 -1.34285E+02 -1.76480E+03 -1.60916E+03 -9.43416E+02 -1.97941E+03
  2.92704E+03 -3.20030E+02  1.57117E+03  6.98759E+02 -6.97885E+01  1.55376E+03  8.52389E+02  3.05459E+03
 -1.34117E+03  1.35866E+03 -2.63680E+02  6.82093E+02  4.83539E+02 -8.98498E+02 -9.34227E+02  1.14793E+03
 -1.08127E+03  6.73853E+02 -4.03734E+03  1.22648E+03 -2.80775E+03  3.54217E+02 -3.89430E+03 -1.28657E+03
 -2.85264E+03 -4.00732E+03  7.59122E+02 -5.47997E+03  2.59762E+03 -3.22964E+03  4.65605E+03 -1.21557E+03
  4.37148E+03  9.92691E+02  2.07849E+03  3.56236E+03  5.64424E+02  3.65157E+03 -1.07486E+03  2.37550E+03
 -2.55414E+03  1.94655E+03 -3.42428E+02 -7.19461E+02 -8.01020E+02 -8.58852E+01 -6.15010E+02 -5.50516E+02
 -4.00877E+01 -5.14025E+02 -1.43104E+03  1.30756E+03 -5.08008E+02  2.10719E+02  3.84852E+02 -1.89482E+03
  1.20714E+03 -1.04049E+03  1.84041E+03  9.37605E+02  8.72720E+02  2.15652E+03  5.35475E+02  3.54189E+03
 -2.06885E+03  5.57753E+03 -3.29668E+03  2.42643E+03 -2.92220E+03 -9.53446E+02 -1.50638E+03 -1.19627E+03
 -8.58956E+02 -1.98017E+03  9.06932E+02 -3.10045E+03  8.71395E+02 -2.41439E+03  1.64361E+03  1.29831E+03
  9.27881E+02  8.13085E+02 -6.05411E+02  1.09986E+03 -1.08588E+03 -1.51462E+02 -5.10690E+02  7.02403E+01
  9.12716E+02 -4.24200E+02  7.46343E+02  8.73475E+02  4.08226E+02  1.08562E+03  3.45891E+02  2.22458E+03
 -1.61298E+03  7.22510E+02 -5.03698E+02 -9.16220E+02 -2.26634E+03 -2.54325E+02 -1.74916E+02 -1.55047E+03
  1.95121E+03 -2.62218E+03  2.08011E+03  7.31489E+00  1.27525E+03  5.76667E+02  6.61182E+02  1.18313E+03
  4.63777E+02  1.03343E+03 -4.39176E+02  1.19125E+03 -5.98028E+02  2.10734E+03 -1.54278E+03 -2.63405E+02
 -3.94120E+02 -3.08280E+02 -4.44944E+02  1.14501E+03 -9.24915E+02  5.71353E+02 -2.50363E+03  4.34815E+01
 -1.15922E+03 -8.78979E+02 -9.43356E+02 -1.90689E+03  9.38837E+02 -1.48962E+03  5.92675E+02 -1.62479E+03
  4.22507E+02  9.41935E+02  3.78136E+02  1.43034E+03 -9.53021E+02  1.50053E+03  3.76616E+02  8.47314E+02
