 $NMID ID='MM_0lb_SNR200_10hz_g45_69.RAW', FMTDAT='(8E13.5)'
 TRAMP=1., VOLUME=1. $END
  3.10854E+05 -7.52231E+02  3.37318E+05  2.49480E+05  8.43893E+04  3.37817E+05 -1.32071E+05  2.51078E+05
 -1.87991E+05  8.26626E+04 -1.12434E+05 -3.29887E+04  4.66907E+02 -5.05953E+04  5.20924E+04 -7.86844E+02
  3.57464E+04  5.23132E+04 -1.63386E+04  7.54894E+04 -6.19199E+04  6.31875E+04 -8.63105E+04  3.21627E+04
 -8.25721E+04 -1.33712E+04 -5.78186E+04 -5.19433E+04 -1.61117E+04 -7.10884E+04  2.82794E+04 -4.75934E+04
  4.10833E+04  3.64135E+03  1.63068E+04  4.87811E+04 -3.41432E+04  4.81010E+04 -6.78552E+04  4.41177E+02
 -5.47574E+04 -5.75882E+04 -7.13099E+03 -7.96175E+04  3.39030E+04 -5.65259E+04  4.96928E+04 -1.74443E+04
  4.42461E+04  1.20867E+04  3.25879E+04  2.59670E+04  1.62167E+04  3.07982E+04 -5.41245E+03  2.90864E+04
 -2.24971E+04  1.20551E+04 -1.86871E+04 -4.83463E+03  7.87279E+03 -5.76137E+03  2.24992E+04  1.26417E+04
  5.65792E+03  3.70905E+04 -3.35012E+04  3.71022E+04 -6.59637E+04  1.61258E+03 -5.90074E+04 -4.45607E+04
 -1.26735E+04 -6.71728E+04  4.09542E+04 -4.82701E+04  5.89649E+04 -3.44061E+03  3.61286E+04  3.28778E+04
 -5.20029E+03  3.79968E+04 -3.21648E+04  1.80198E+04 -3.26908E+04 -2.96600E+03 -1.81844E+04 -1.23177E+04
 -8.29023E+03 -1.46167E+04 -9.48835E+01 -1.90907E+04  7.78921E+03 -2.22579E+04  1.64625E+04 -1.17568E+04
  9.95004E+03  6.23885E+03 -1.02242E+04  1.32974E+04 -2.46950E+04 -7.81624E+03 -8.51860E+03 -3.57323E+04
  2.51003E+04 -4.58449E+04  4.93540E+04 -1.90699E+04  4.71084E+04  1.99784E+04  1.65256E+04  4.67645E+04
 -1.65508E+04  3.55272E+04 -2.63851E+04  2.19115E+03 -1.20680E+04 -2.87081E+04  2.21172E+04 -3.49274E+04
  4.19433E+04 -1.09790E+04  4.03097E+04  2.38957E+04  2.07470E+04  5.09743E+04 -7.70552E+03  5.34729E+04
 -3.45131E+04  3.75536E+04 -4.52058E+04  1.07776E+04 -4.69111E+04 -1.78165E+04 -2.64760E+04 -4.21300E+04
  6.12799E+03 -4.02130E+04  3.27924E+04 -1.68231E+04  3.08778E+04  1.13510E+04  5.01370E+03  1.94255E+04
 -1.34121E+04  7.59092E+03 -1.16036E+04 -7.71980E+03  4.90454E+03 -1.16269E+04  1.69273E+04  5.05542E+03
  1.50461E+04  2.32983E+04 -5.48080E+03  2.60854E+04 -2.46581E+04  1.25264E+04 -3.07624E+04 -4.39264E+03
 -2.29636E+04 -1.88374E+04 -1.07347E+04 -2.21424E+04  4.44006E+03 -2.41747E+04  1.85819E+04 -2.14239E+04
  2.96691E+04 -1.35623E+04  3.67559E+04  3.71988E+03  2.65335E+04  2.28578E+04  4.54810E+03  4.02149E+04
 -2.07554E+04  3.25971E+04 -2.96370E+04  1.26994E+04 -2.07340E+04 -9.97135E+03 -5.50137E+03 -1.38026E+04
  1.00095E+03 -1.50565E+03 -7.61397E+03  7.26361E+03 -1.86598E+04  4.95093E+03 -1.97840E+04 -9.63591E+03
 -1.04107E+04 -2.34870E+04  5.83716E+03 -2.67739E+04  1.90034E+04 -1.96881E+04  2.20295E+04 -1.88094E+03
  1.41090E+04  1.40899E+04 -1.26807E+03  2.28587E+04 -1.53578E+04  1.39429E+04 -2.07296E+04 -4.99174E+03
 -1.63455E+04 -1.89085E+04 -1.87617E+03 -2.62152E+04  1.35318E+04 -2.18492E+04  2.14233E+04 -1.12288E+04
  2.18264E+04  6.19244E+02  1.33582E+04  5.56641E+03  8.11255E+03  2.46882E+03  1.19293E+04 -5.36754E+02
  1.90065E+04  3.43588E+03  2.45698E+04  1.69208E+04  1.64538E+04  3.46662E+04 -2.86832E+03  4.15954E+04
 -2.37460E+04  3.36490E+04 -3.81156E+04  1.75865E+04 -4.09916E+04 -3.59979E+03 -3.36180E+04 -2.38143E+04
 -1.32352E+04 -3.54013E+04  1.33167E+04 -3.03437E+04  2.49861E+04 -1.51919E+04  2.26121E+04  7.07368E+03
  8.58833E+03  1.86381E+04 -1.20457E+04  1.46379E+04 -1.97138E+04  2.79022E+03 -1.36789E+04 -1.23906E+04
  1.01677E+02 -1.86612E+04  1.09152E+04 -1.25192E+04  1.30899E+04 -3.16658E+02  3.01177E+03  1.07723E+04
 -9.05068E+03  2.46133E+03 -8.66644E+03 -6.95696E+03 -1.93306E+03 -1.84532E+04  9.70346E+03 -1.83407E+04
  2.11030E+04 -1.12654E+04  2.44319E+04  4.31827E+03  1.98666E+04  1.48732E+04  9.17875E+03  2.71292E+04
 -5.21087E+03  2.85097E+04 -1.89409E+04  1.78871E+04 -2.07842E+04  3.64334E+03 -1.51957E+04 -5.89760E+03
 -6.41658E+03 -7.15191E+03 -1.88460E+03  2.96219E+02 -3.69787E+03  2.73860E+03 -6.86180E+03  4.53884E+03
 -1.47304E+04 -2.38818E+02 -1.23190E+04 -1.08100E+04 -5.04299E+03 -1.87877E+04  7.12949E+03 -1.32979E+04
  1.25021E+04 -6.96580E+03  8.33715E+03  3.52270E+03 -4.18077E+02  4.56199E+03 -6.90763E+03  2.13992E+02
 -5.14518E+03 -7.50513E+03  6.83529E+02 -1.42497E+04  7.74522E+03 -1.43348E+04  1.81671E+04 -7.17448E+03
  2.09627E+04  2.06599E+03  1.69470E+04  1.33981E+04  3.99562E+03  1.75143E+04 -8.17625E+03  1.46901E+04
 -1.19930E+04  3.72502E+03 -6.14689E+03 -3.77105E+03  2.27428E+03 -6.54242E+03  6.51304E+03 -3.09902E+02
  8.49603E+03  5.95881E+03  1.53061E+02  1.13480E+04 -8.49436E+03  1.16006E+04 -1.41100E+04  1.30277E+03
 -9.72275E+03 -8.09529E+03 -1.10367E+01 -1.21977E+04  9.73547E+03 -6.68157E+03  7.58145E+03  2.98462E+03
  1.83525E+03  8.21266E+03 -9.36667E+03  9.18305E+03 -1.32338E+04  3.01578E+03 -1.19095E+04 -3.26479E+03
 -6.50416E+03 -1.44356E+04  3.41462E+03 -1.70147E+04  1.46029E+04 -9.58784E+03  1.52390E+04  2.95466E+03
  9.08274E+03  1.17245E+04 -2.26015E+03  1.36852E+04 -1.00362E+04  7.36378E+03 -1.29893E+04 -1.34877E+03
 -1.00727E+04 -7.73025E+03 -1.18056E+03 -1.14625E+04  4.75906E+03 -9.17547E+03  6.14345E+03 -3.66449E+03
  3.06005E+03  2.29632E+03 -7.93390E+02  3.07897E+03 -1.11897E+03 -2.52324E+03  2.44461E+03 -6.03502E+03
  1.05260E+04 -3.66833E+03  1.37942E+04  1.61785E+03  1.43390E+04  8.76969E+03  9.10195E+03  1.83355E+04
 -4.62223E+03  2.02880E+04 -1.74034E+04  1.63441E+04 -2.17142E+04  3.46281E+03 -1.77934E+04 -6.79793E+03
 -8.17159E+03 -1.49794E+04 -8.36135E+02 -1.36348E+04  3.11097E+03 -6.94938E+03  3.31428E+03 -4.73241E+03
  4.26394E+03 -4.56924E+03  5.19377E+03 -3.12792E+03  6.04636E+03 -3.99523E+03  5.87071E+03 -1.42789E+03
  1.08755E+04  2.31092E+03  5.33807E+03  9.28602E+03 -1.56305E+03  1.02962E+04 -1.06690E+04  6.95357E+03
 -1.35680E+04 -3.83409E+02 -7.95883E+03 -8.08166E+03 -2.25206E+02 -1.49095E+04  7.84953E+03 -1.39563E+04
  1.37268E+04 -7.62293E+03  1.73011E+04  1.47001E+03  1.19886E+04  1.31218E+04  2.90381E+03  1.63919E+04
 -6.77433E+03  1.32888E+04 -7.84636E+03  3.69700E+03 -7.00828E+03 -1.30096E+03 -1.23201E+03 -1.61271E+03
 -3.53807E+02  1.40555E+03 -3.83038E+03  3.13505E+03 -5.66156E+03  1.92032E+03 -1.08157E+04 -4.48667E+02
 -5.51402E+03 -7.98528E+03  6.73947E+02 -1.17424E+04  6.04259E+03 -1.12809E+04  1.12335E+04 -3.05036E+03
  1.10850E+04  5.58633E+03  5.30638E+03  1.10742E+04 -1.56252E+03  1.23492E+04 -9.59564E+03  7.92500E+03
 -1.17419E+04  7.85323E+02 -8.49338E+03 -8.32015E+03 -3.32004E+02 -1.01264E+04  3.33932E+03 -7.68387E+03
  1.08862E+04 -1.85299E+03  6.94086E+03  2.21217E+03  2.14837E+03  3.20085E+03  1.13533E+03  1.81647E+03
  2.21494E+03  1.61751E+03  3.75204E+03  9.62548E+02  3.77139E+03  4.73028E+03  3.20735E+03  7.12376E+03
 -2.66040E+03  1.20165E+04 -9.63589E+03  1.14519E+04 -1.26140E+04  2.95208E+03 -1.54634E+04 -4.31619E+03
 -6.86137E+03 -1.37467E+04  2.71957E+03 -1.45237E+04  7.05588E+03 -9.67736E+03  9.51258E+03 -3.00572E+03
  7.12392E+03  4.60069E+03  1.01029E+03  7.13683E+03 -2.96592E+03  3.64195E+03 -4.59765E+03 -1.77151E+03
 -9.05758E+02 -5.95684E+03  2.89856E+03 -6.13924E+03  4.14257E+03 -2.98629E+03  5.31099E+03  3.02908E+03
  2.80091E+03  2.39231E+03  1.00290E+02  2.41094E+03 -7.30367E+02  1.62195E+03  8.58547E+02 -3.46856E+02
  1.65347E+03 -4.38394E+02  5.02247E+03  2.84722E+03  1.40520E+03  7.76183E+03 -3.16167E+02  1.04359E+04
 -5.24113E+03  5.66488E+03 -7.60817E+03  1.02060E+03 -6.92823E+03 -2.12504E+03 -2.52509E+03 -5.65417E+03
  5.95435E+02 -4.06397E+03  2.25005E+03 -1.69777E+03  2.99923E+03  3.45088E+03 -2.33623E+03  4.08853E+03
 -5.31496E+03  4.24598E+03 -6.13904E+03 -2.30376E+03 -2.52230E+03 -6.51614E+03  2.81892E+02 -6.80186E+03
  2.87372E+03 -3.96030E+03  4.81206E+03 -8.21950E+02  4.78778E+03  2.38109E+03 -5.61822E+02  3.72783E+03
 -1.97609E+03 -5.43399E+02 -3.66787E+03 -2.86838E+03  1.64881E+03 -5.48533E+03  5.64671E+03 -4.74314E+03
  8.60507E+03 -3.67006E+02  9.53239E+03  5.22547E+03  3.64997E+03  8.08857E+03 -5.00423E+03  7.31247E+03
 -7.52699E+03  3.60369E+03 -6.95695E+03 -1.48119E+03 -2.91571E+03 -4.24712E+03  9.60379E+01 -5.54539E+03
  5.32656E+03 -2.68814E+03  3.11013E+03  1.91750E+03  1.07904E+03  3.25145E+03  1.84186E+02  3.79971E+03
 -1.45968E+03  3.32993E+03 -4.69465E+02 -3.00415E+00 -7.26011E+02  6.99296E+02 -2.39508E+03  2.03923E+03
 -1.21574E+03  3.50924E+03 -5.87410E+03  2.57204E+03 -7.65905E+03 -1.59539E+03 -1.10135E+04 -6.65863E+03
 -4.30824E+03 -1.11446E+04  1.95836E+02 -1.21534E+04  7.02821E+03 -8.90717E+03  1.22304E+04 -3.08973E+03
  1.03960E+04  2.47721E+03  8.17991E+03  7.82369E+03 -1.28932E+02  6.45430E+03 -3.54597E+03  6.52807E+03
 -3.92810E+03  3.48334E+03 -3.94509E+03 -2.49308E+03  5.05579E+02  9.51280E+02 -6.04562E+02 -8.77558E+02
 -2.96816E+03  1.76040E+02 -1.46836E+03 -6.44061E+02  8.35996E+02 -1.21406E+03  1.85010E+02 -3.05826E+03
  3.43084E+03 -3.91249E+03  5.59462E+03  2.33472E+03  6.05397E+03  4.69594E+03  1.02912E+03  8.77434E+03
 -2.86238E+03  9.96083E+03 -8.86073E+03  5.44215E+03 -1.07860E+04  6.91897E+02 -7.59717E+03 -6.96178E+03
 -3.76732E+03 -8.38698E+03  3.27113E+03 -8.25652E+03  5.78292E+03 -3.77196E+03  5.44988E+03 -5.42133E+02
  4.55849E+03  1.98676E+03  2.08574E+02  1.79399E+03 -2.63433E+03  4.56290E+02  6.55954E+02 -2.30363E+03
  3.03274E+03 -1.85032E+03  2.98715E+03  1.85970E+03  3.13859E+03  4.24640E+03 -3.38195E+02  4.11645E+03
 -2.83114E+03  2.02194E+03 -6.36301E+03  6.06698E+02 -3.53249E+03 -6.22421E+03 -3.04001E+02 -6.14153E+03
  4.74570E+03 -6.47209E+03  7.05881E+03 -1.85444E+03  6.47208E+03  3.07560E+03  3.46389E+03  4.59834E+03
  1.87381E+03  4.80181E+03 -2.01632E+03  4.65646E+03 -2.37076E+03  3.56338E+03 -3.31503E+03  1.33471E+03
 -2.29785E+03 -1.52491E+02 -1.43436E+03  2.40709E+02 -3.75013E+03  2.87971E+03 -3.96382E+03 -1.46930E+03
 -4.69428E+03 -2.75287E+03 -1.78369E+03 -5.10137E+03  2.50874E+03 -3.28380E+03  5.57336E+03 -2.11316E+03
  5.26315E+03  1.43623E+03  1.44804E+03  4.06610E+03 -9.08210E+02  6.06559E+03 -5.36881E+03  3.98993E+03
