 $NMID ID='MM_0lb_SNR200_10hz_g55_30.RAW', FMTDAT='(8E13.5)'
 TRAMP=1., VOLUME=1. $END
  3.09513E+05 -5.20176E+02  3.37324E+05  2.51410E+05  8.49514E+04  3.38649E+05 -1.31902E+05  2.52455E+05
 -1.89415E+05  8.45620E+04 -1.11708E+05 -3.31525E+04  1.20233E+03 -4.97986E+04  5.39922E+04 -5.90192E+02
  3.51285E+04  5.29625E+04 -1.65165E+04  7.40886E+04 -6.11429E+04  6.59691E+04 -8.39306E+04  3.11794E+04
 -8.33588E+04 -1.13221E+04 -5.84634E+04 -5.22571E+04 -1.40687E+04 -7.14777E+04  2.75822E+04 -4.66213E+04
  4.20069E+04  3.71033E+03  1.81575E+04  4.97088E+04 -3.69177E+04  4.89838E+04 -6.70541E+04  4.60660E+02
 -5.38012E+04 -5.73760E+04 -6.53464E+03 -7.77795E+04  3.65683E+04 -5.61246E+04  5.02504E+04 -1.78041E+04
  4.59302E+04  1.05530E+04  3.53058E+04  2.73934E+04  1.62764E+04  2.94489E+04 -6.86460E+03  2.70028E+04
 -2.23681E+04  1.23104E+04 -1.89808E+04 -5.99728E+03  5.42477E+03 -8.87002E+03  2.25143E+04  1.41601E+04
  7.22041E+03  3.71339E+04 -3.47788E+04  3.60443E+04 -6.59805E+04  1.57352E+03 -5.80356E+04 -4.43656E+04
 -1.22684E+04 -6.59832E+04  4.11968E+04 -4.61667E+04  6.11075E+04 -2.66536E+03  3.65984E+04  3.30586E+04
 -6.55647E+03  3.74558E+04 -3.15324E+04  1.90169E+04 -3.33693E+04 -3.56460E+03 -1.83119E+04 -1.23314E+04
 -9.21196E+03 -1.52289E+04 -6.63278E+02 -1.90116E+04  8.46497E+03 -2.45016E+04  1.60432E+04 -1.26956E+04
  1.13425E+04  6.24300E+03 -8.51869E+03  1.24056E+04 -2.27750E+04 -6.63226E+03 -7.93137E+03 -3.81537E+04
  2.34888E+04 -4.66399E+04  5.17835E+04 -2.02309E+04  4.88650E+04  1.89463E+04  1.55426E+04  4.54798E+04
 -1.55478E+04  3.48403E+04 -2.77904E+04  2.47737E+03 -1.09690E+04 -2.88656E+04  2.09526E+04 -3.49101E+04
  4.62112E+04 -1.18417E+04  4.01573E+04  2.45868E+04  2.10595E+04  4.95986E+04 -7.57236E+03  5.55345E+04
 -3.53263E+04  3.83014E+04 -4.67454E+04  1.07401E+04 -4.69785E+04 -1.85797E+04 -2.74534E+04 -4.18757E+04
  7.75474E+03 -4.23283E+04  3.45950E+04 -1.53279E+04  3.24943E+04  1.10505E+04  5.60161E+03  2.11236E+04
 -1.51454E+04  9.95746E+03 -1.17408E+04 -8.03424E+03  3.88215E+03 -1.26855E+04  1.89740E+04  4.39422E+03
  1.46248E+04  2.09995E+04 -4.60641E+03  2.62105E+04 -2.28416E+04  1.60349E+04 -3.19558E+04 -2.61614E+03
 -2.54095E+04 -1.76646E+04 -1.09623E+04 -2.45127E+04  4.10907E+03 -2.54222E+04  2.06454E+04 -2.17506E+04
  3.02761E+04 -1.51726E+04  3.70334E+04  3.75239E+03  2.76792E+04  2.15291E+04  3.76832E+03  4.08452E+04
 -2.09314E+04  3.34997E+04 -3.11974E+04  1.02514E+04 -2.21554E+04 -1.05645E+04 -3.93011E+03 -1.31669E+04
  1.39826E+03 -1.56101E+03 -6.73007E+03  9.24307E+03 -2.06070E+04  5.16297E+03 -2.05094E+04 -9.05109E+03
 -1.17458E+04 -2.24929E+04  6.06960E+03 -2.77876E+04  1.88766E+04 -2.05954E+04  2.25947E+04 -1.80695E+03
  1.43663E+04  1.43978E+04 -2.24799E+03  2.40911E+04 -1.56956E+04  1.28605E+04 -2.35779E+04 -3.14046E+03
 -1.73487E+04 -2.12992E+04 -2.08862E+03 -2.69062E+04  1.17648E+04 -2.32704E+04  2.32500E+04 -1.32595E+04
  2.14468E+04 -1.17001E+03  1.45003E+04  3.48168E+03  9.96899E+03 -5.48761E+02  1.14717E+04 -1.08505E+03
  2.12922E+04  3.93903E+03  2.52277E+04  1.65970E+04  1.72701E+04  3.60087E+04 -3.55395E+03  4.30512E+04
 -2.29484E+04  3.65117E+04 -4.19204E+04  1.83574E+04 -4.41522E+04 -4.25024E+03 -3.50066E+04 -2.48051E+04
 -1.32091E+04 -3.58479E+04  1.23160E+04 -3.21986E+04  2.87985E+04 -1.46637E+04  2.38517E+04  7.20058E+03
  8.40869E+03  1.86777E+04 -1.20114E+04  1.46566E+04 -1.94869E+04  2.36348E+03 -1.53770E+04 -1.24578E+04
 -1.16634E+03 -1.88174E+04  1.04361E+04 -1.32339E+04  1.21732E+04 -1.46168E+03  2.11117E+03  8.47338E+03
 -8.77461E+03  4.13557E+03 -8.48310E+03 -5.85046E+03 -9.56046E+02 -1.76088E+04  1.01733E+04 -1.77851E+04
  2.28424E+04 -9.77554E+03  2.49850E+04  3.36421E+03  2.17743E+04  1.67476E+04  1.01767E+04  2.80169E+04
 -6.29181E+03  3.14973E+04 -1.83189E+04  1.98472E+04 -2.23093E+04  5.52658E+03 -1.62230E+04 -4.98658E+03
 -4.67807E+03 -7.55257E+03 -1.12140E+02 -6.55009E+02 -1.32945E+03  5.03303E+03 -8.40983E+03  5.24610E+03
 -1.40153E+04 -9.49706E+02 -1.25500E+04 -1.16166E+04 -6.47282E+03 -2.05031E+04  7.40885E+03 -1.51518E+04
  1.19816E+04 -7.85954E+03  9.66807E+03  3.97353E+03 -2.94857E+02  5.62597E+03 -7.48844E+03  1.12740E+02
 -6.68924E+03 -1.04356E+04 -1.32617E+03 -1.34823E+04  8.00748E+03 -1.61668E+04  1.70247E+04 -8.13638E+03
  2.34798E+04  2.42460E+03  1.63073E+04  1.32785E+04  2.80859E+03  1.73371E+04 -9.68028E+03  1.43767E+04
 -1.13055E+04  5.32261E+03 -6.19067E+03 -1.80396E+03  2.69750E+03 -4.81063E+03  8.03399E+03 -1.19845E+03
  6.23769E+03  5.25570E+03  1.11087E+03  1.19058E+04 -9.93201E+03  1.14665E+04 -1.57363E+04  1.71777E+03
 -9.64205E+03 -1.00497E+04  8.08883E+02 -1.38858E+04  8.21284E+03 -6.74978E+03  8.52364E+03  3.67796E+03
  2.14277E+03  9.58351E+03 -8.49057E+03  1.14562E+04 -1.23232E+04  5.06410E+03 -1.20220E+04 -3.93812E+03
 -6.43412E+03 -1.23637E+04  4.38095E+03 -1.71519E+04  1.48377E+04 -9.02410E+03  1.63682E+04  3.23533E+03
  1.00604E+04  1.38541E+04 -7.92825E+02  1.48164E+04 -1.02773E+04  8.12409E+03 -1.26450E+04 -2.82807E+03
 -8.20435E+03 -9.16006E+03 -1.65441E+03 -1.25604E+04  6.37632E+03 -8.67829E+03  6.07479E+03 -2.37715E+03
  6.31115E+03  2.16095E+03 -7.80171E+02  1.64164E+03 -9.78238E+02 -4.35453E+03  1.55726E+03 -7.66222E+03
  1.28379E+04 -4.77370E+03  1.53851E+04  1.34049E+03  1.42742E+04  8.39289E+03  9.95566E+03  1.96858E+04
 -5.76999E+03  2.27554E+04 -1.75452E+04  1.57651E+04 -2.37100E+04  3.96725E+03 -1.88531E+04 -8.35435E+03
 -1.02991E+04 -1.63165E+04 -9.82777E+02 -1.24686E+04  5.65634E+03 -8.30032E+03  6.84044E+03 -5.28923E+03
  2.93253E+03 -2.79342E+03  4.22749E+03 -3.20691E+03  6.69959E+03 -3.02355E+03  7.66978E+03 -1.22576E+03
  9.67096E+03  3.05402E+03  5.80801E+03  8.06382E+03 -2.34723E+03  1.09156E+04 -1.23472E+04  9.02744E+03
 -1.40949E+04 -2.30643E+03 -9.49070E+03 -8.52029E+03 -1.55635E+03 -1.33414E+04  9.14565E+03 -1.33822E+04
  1.59164E+04 -7.82060E+03  1.81550E+04  3.28633E+03  1.26732E+04  1.25531E+04  1.99781E+03  1.75045E+04
 -5.36419E+03  1.31392E+04 -8.44952E+03  6.12279E+03 -8.27971E+03 -1.68936E+03 -2.36557E+03 -2.14844E+03
  1.96844E+02 -1.64437E+03 -1.42758E+03  1.97712E+03 -5.99796E+03  3.10642E+03 -7.40248E+03 -6.13210E+02
 -7.88870E+03 -9.47170E+03  4.82415E+02 -1.35632E+04  8.86717E+03 -1.36092E+04  1.57131E+04 -4.91118E+03
  1.45023E+04  8.00653E+03  6.56962E+03  1.17349E+04 -3.51337E+03  1.37256E+04 -8.18090E+03  9.24121E+03
 -1.24287E+04 -4.03660E+02 -1.04301E+04 -8.69780E+03 -1.85385E+03 -1.19344E+04  6.04844E+03 -8.86625E+03
  8.57428E+03 -2.21801E+03  5.66042E+03  2.03609E+03  3.34256E+03  4.22824E+03  8.92947E+02  2.14829E+03
  2.40884E+03  2.38015E+03  2.98353E+03  6.73681E+02  5.88779E+03  4.80868E+03  2.94677E+03  6.32900E+03
 -1.77013E+03  1.10910E+04 -8.73285E+03  1.10339E+04 -1.38070E+04  2.59358E+03 -1.42188E+04 -6.54674E+03
 -7.64461E+03 -1.39527E+04  4.88968E+02 -1.59525E+04  7.30035E+03 -8.78277E+03  1.19128E+04 -3.81081E+03
  8.69553E+03  4.86625E+03  1.09581E+03  6.71701E+03 -4.44600E+03  5.48897E+03 -6.38082E+03 -9.69723E+02
 -3.96544E+03 -7.20325E+03  3.58259E+03 -7.42098E+03  6.49086E+03 -1.89717E+03  6.12651E+03  4.69680E+02
  2.83317E+03  3.54798E+03  1.24609E+03  1.99338E+03 -2.44958E+03  1.74244E+03  4.20687E+02 -1.71001E+02
  2.60656E+03 -3.70483E+02  7.59029E+03  2.00117E+03  2.03370E+03  7.50298E+03 -2.85761E+03  9.99927E+03
 -6.58898E+03  6.01062E+03 -8.69711E+03  1.50353E+03 -8.09017E+03 -4.13474E+03 -4.04615E+03 -6.17605E+03
  8.37794E+02 -6.26513E+03  4.29107E+03 -1.54778E+03  2.54662E+03  3.43943E+03 -9.15463E+02  4.62968E+03
 -4.60865E+03  5.76902E+02 -6.56358E+03 -4.87259E+03 -3.24554E+03 -7.79322E+03  9.78615E+02 -8.71034E+03
  4.59881E+03 -4.05461E+03  5.27121E+03 -2.50913E+03  5.69611E+03  1.29687E+03  9.05853E+01  4.98727E+03
 -2.52012E+03 -3.42125E+02 -3.49950E+03 -2.22269E+03  2.74892E+03 -6.58067E+03  8.43202E+03 -5.90089E+03
  7.87988E+03  6.72584E+02  7.15409E+03  5.30531E+03  2.26647E+03  8.43082E+03 -2.40079E+03  7.48092E+03
 -8.35284E+03  1.96388E+03 -7.46715E+03 -1.23575E+03 -5.43743E+03 -5.84705E+03  2.16496E+03 -5.96541E+03
  5.31356E+03 -2.61341E+03  3.46176E+03  3.42399E+03  1.15572E+03  4.69236E+03 -8.29881E+02  4.08432E+03
 -1.87387E+03  2.00728E+03 -1.39834E+03  4.74613E+02 -1.99657E+03  1.04473E+03 -2.43656E+03  1.51992E+03
 -2.24750E+03  2.63159E+03 -6.43207E+03  3.38893E+03 -1.04847E+04  9.59292E+02 -9.34890E+03 -5.75580E+03
 -5.09141E+03 -1.15447E+04  3.11030E+03 -1.39179E+04  8.50368E+03 -9.41623E+03  1.21547E+04 -3.94383E+03
  1.24166E+04  5.31250E+02  6.09948E+03  9.22647E+03  9.77524E+02  8.71303E+03 -2.73049E+03  8.61128E+03
 -4.90688E+03  1.15048E+03 -3.49628E+03 -1.43381E+03 -1.00481E+03 -7.38180E+02 -1.41754E+03  9.57839E+02
 -1.40384E+03  4.88230E+02 -2.91696E+03  1.83481E+03  1.97548E+02 -3.16802E+03  1.21200E+03 -2.60512E+03
  4.05317E+03 -2.90101E+03  5.68390E+03  1.14546E+03  6.62224E+03  5.85043E+03  1.71928E+03  9.11871E+03
 -5.19365E+03  9.60098E+03 -8.79699E+03  6.94408E+03 -1.21603E+04 -1.63285E+03 -9.22088E+03 -5.05399E+03
 -4.27295E+03 -1.01659E+04  9.07997E+02 -8.41975E+03  5.29354E+03 -3.98159E+03  4.19287E+03 -5.85988E+02
  3.19767E+03  3.42078E+03 -2.95215E+02  6.87171E+01 -3.78677E+03 -3.67534E+02  7.85692E+02 -8.85966E+02
  3.08116E+03 -2.57651E+02  2.71400E+03  1.10334E+03  1.99513E+03  4.24301E+03 -8.38140E+01  5.15471E+03
 -3.96130E+03  5.06189E+03 -5.44158E+03 -2.53926E+02 -5.85228E+03 -3.78120E+03 -5.78667E+01 -7.36344E+03
  4.09605E+03 -6.32099E+03  6.66668E+03 -1.89492E+03  6.42355E+03  2.63159E+03  3.89050E+03  6.17351E+03
  4.53851E+02  5.71901E+03 -3.24255E+03  4.57789E+03 -4.11185E+03  2.26302E+03 -2.48370E+03  4.22830E+02
 -1.81450E+03 -5.97117E+02 -3.04297E+03  1.26749E+03 -2.51159E+03  6.05081E+02 -4.56027E+03 -9.58732E+02
 -4.86393E+03 -4.64733E+03 -8.54905E+02 -5.76344E+03  3.54157E+03 -5.18597E+03  5.17310E+03 -1.81553E+03
  5.67547E+03  5.14910E+02  2.39524E+03  5.73636E+03 -6.11482E+02  5.91161E+03 -5.09099E+03  3.37318E+03
