 $NMID ID='MM_0lb_SNR200_12hz_g60_3.RAW', FMTDAT='(8E13.5)'
 TRAMP=1., VOLUME=1. $END
  3.12686E+05 -7.11862E+02  3.36921E+05  2.50284E+05  8.34033E+04  3.39168E+05 -1.33132E+05  2.50552E+05
 -1.91141E+05  8.39605E+04 -1.12869E+05 -3.09207E+04  2.93593E+02 -5.11749E+04  5.39269E+04 -2.73794E+02
  3.53796E+04  5.35319E+04 -1.78044E+04  7.58458E+04 -6.17279E+04  6.53432E+04 -8.56003E+04  3.22715E+04
 -8.18897E+04 -1.05324E+04 -5.83225E+04 -5.35076E+04 -1.49034E+04 -7.09601E+04  2.81153E+04 -4.82430E+04
  4.01662E+04  4.08306E+03  1.67412E+04  4.83265E+04 -3.48834E+04  4.80519E+04 -6.71814E+04  1.47647E+03
 -5.51220E+04 -5.74712E+04 -6.52956E+03 -7.77283E+04  3.66165E+04 -5.59457E+04  4.94398E+04 -1.71155E+04
  4.53452E+04  1.07642E+04  3.20274E+04  2.54125E+04  1.59672E+04  2.99101E+04 -6.06197E+03  2.83619E+04
 -2.18035E+04  1.33591E+04 -1.76906E+04 -5.50454E+03  6.48339E+03 -7.04528E+03  2.38890E+04  1.34425E+04
  7.18383E+03  3.74734E+04 -3.21656E+04  3.52875E+04 -6.60666E+04  3.06312E+03 -5.80131E+04 -4.39281E+04
 -1.25763E+04 -6.46452E+04  4.09655E+04 -4.74133E+04  6.15129E+04 -1.88311E+03  3.64879E+04  3.46340E+04
 -4.86739E+03  3.83528E+04 -3.08059E+04  1.68744E+04 -3.30232E+04 -3.87332E+03 -1.79085E+04 -9.94309E+03
 -8.60677E+03 -1.43704E+04 -5.02388E+02 -1.85247E+04  9.16637E+03 -2.39568E+04  1.49408E+04 -1.21903E+04
  1.03009E+04  4.84880E+03 -1.04832E+04  1.23979E+04 -2.29788E+04 -5.96783E+03 -1.06340E+04 -3.58429E+04
  2.43092E+04 -4.60467E+04  5.12794E+04 -2.00590E+04  4.64921E+04  2.09370E+04  1.69647E+04  4.54024E+04
 -1.68209E+04  3.53221E+04 -2.71854E+04  2.77766E+03 -1.26428E+04 -2.99347E+04  2.27761E+04 -3.55483E+04
  4.47250E+04 -1.10256E+04  3.87805E+04  2.53525E+04  2.00730E+04  4.93730E+04 -8.31884E+03  5.41177E+04
 -3.39071E+04  3.72730E+04 -4.62532E+04  1.04645E+04 -4.63503E+04 -1.83762E+04 -2.54483E+04 -4.08086E+04
  8.25249E+03 -3.97278E+04  3.28763E+04 -1.59588E+04  3.11645E+04  1.04496E+04  4.57909E+03  2.03034E+04
 -1.40145E+04  7.79341E+03 -1.15473E+04 -8.29706E+03  4.04584E+03 -1.17089E+04  1.86610E+04  5.67761E+03
  1.45455E+04  2.29326E+04 -5.08900E+03  2.72709E+04 -2.34144E+04  1.35620E+04 -3.03296E+04 -4.31506E+03
 -2.26120E+04 -1.72683E+04 -1.06915E+04 -2.37504E+04  3.53570E+03 -2.43037E+04  1.82786E+04 -2.01761E+04
  3.04456E+04 -1.43039E+04  3.78754E+04  4.16425E+03  2.40607E+04  2.28620E+04  5.15549E+03  4.10496E+04
 -1.64455E+04  3.27847E+04 -2.83556E+04  1.09821E+04 -2.08585E+04 -1.20436E+04 -5.78803E+03 -1.38720E+04
  1.88968E+03 -6.11602E+02 -6.39940E+03  7.35103E+03 -1.85359E+04  5.05885E+03 -1.92320E+04 -8.57595E+03
 -1.04266E+04 -2.22230E+04  5.84137E+03 -2.52428E+04  1.71670E+04 -1.78355E+04  1.92850E+04 -1.85011E+02
  1.47723E+04  1.52696E+04 -1.47237E+03  2.14110E+04 -1.54346E+04  1.09672E+04 -2.31454E+04 -4.65441E+03
 -1.67686E+04 -2.08241E+04 -1.80742E+03 -2.52535E+04  1.16320E+04 -2.15783E+04  2.14068E+04 -1.06468E+04
  1.94820E+04  8.77938E+01  1.60452E+04  4.90937E+03  7.96977E+03  4.78349E+02  1.22292E+04 -5.42647E+02
  1.98444E+04  1.21923E+03  2.31745E+04  1.78994E+04  1.60722E+04  3.39904E+04 -2.27747E+03  4.02828E+04
 -2.38721E+04  3.35841E+04 -3.84822E+04  1.70219E+04 -4.07247E+04 -2.22981E+03 -3.28838E+04 -2.36832E+04
 -1.38714E+04 -3.31303E+04  1.20584E+04 -2.95955E+04  2.51425E+04 -1.37290E+04  2.08632E+04  7.42660E+03
  6.60756E+03  1.79115E+04 -1.15990E+04  1.47356E+04 -1.89894E+04  2.96443E+03 -1.42517E+04 -1.09752E+04
 -8.82568E+02 -1.78152E+04  9.05585E+03 -1.31723E+04  1.23397E+04 -6.17678E+02  2.46178E+03  7.05534E+03
 -8.44730E+03  4.19441E+03 -8.63428E+03 -5.60109E+03  5.30436E+02 -1.68995E+04  1.15902E+04 -1.68946E+04
  2.12589E+04 -9.84403E+03  2.20762E+04  3.02811E+03  1.95857E+04  1.61603E+04  7.70701E+03  2.51923E+04
 -5.95186E+03  2.59531E+04 -1.72208E+04  1.87733E+04 -2.00311E+04  3.21665E+03 -1.28558E+04 -5.28452E+03
 -5.94160E+03 -7.67569E+03 -2.39040E+02  2.28591E+02 -2.78034E+03  1.80781E+03 -6.85058E+03  4.64989E+03
 -1.34638E+04 -2.00620E+03 -1.27633E+04 -1.10267E+04 -6.31330E+03 -1.67179E+04  5.51606E+03 -1.45897E+04
  1.10007E+04 -5.57364E+03  8.51966E+03  4.28838E+03 -6.71035E+02  5.90554E+03 -6.18652E+03  1.08409E+03
 -7.12378E+03 -9.36458E+03 -1.89067E+03 -1.35576E+04  9.04125E+03 -1.36278E+04  1.83046E+04 -8.09520E+03
  2.05999E+04  2.13966E+03  1.50647E+04  1.14124E+04  2.48810E+03  1.71407E+04 -9.14639E+03  1.35047E+04
 -1.16116E+04  3.42056E+03 -7.07143E+03 -2.46496E+03  2.45554E+03 -3.66109E+03  6.59328E+03 -9.59524E+02
  5.99011E+03  6.96840E+03  8.19754E+02  1.23369E+04 -8.23851E+03  1.10719E+04 -1.33293E+04  2.36705E+03
 -8.30018E+03 -6.97133E+03 -5.13911E+00 -1.15703E+04  7.66277E+03 -6.15274E+03  9.18786E+03  2.78036E+03
  1.02265E+03  8.66673E+03 -7.48416E+03  1.00617E+04 -1.11099E+04  4.11585E+03 -1.13209E+04 -3.80025E+03
 -5.54396E+03 -1.14078E+04  3.38255E+03 -1.49612E+04  1.31078E+04 -9.19641E+03  1.40588E+04  2.76578E+03
  7.22183E+03  1.06353E+04 -2.42113E+02  1.44080E+04 -8.84260E+03  6.54311E+03 -9.53041E+03 -3.72876E+01
 -7.12349E+03 -9.25739E+03 -1.26623E+03 -9.24338E+03  5.60830E+03 -9.68811E+03  7.93218E+03 -2.32826E+03
  5.01277E+03  7.88912E+02 -4.74707E+02  1.40723E+03 -2.54155E+01 -4.16597E+03  2.38999E+03 -7.23738E+03
  9.36614E+03 -4.10461E+03  1.27644E+04  1.93406E+03  1.36663E+04  8.40766E+03  9.03022E+03  1.72073E+04
 -2.24370E+03  1.93532E+04 -1.62079E+04  1.35012E+04 -1.96449E+04  2.60135E+03 -1.58741E+04 -7.60862E+03
 -8.35666E+03 -1.36273E+04 -2.39610E+02 -1.14257E+04  4.19861E+03 -6.58558E+03  5.65831E+03 -3.53578E+03
  3.00677E+03 -3.79509E+03  3.33557E+03 -3.61221E+03  6.00974E+03 -2.48251E+03  6.02062E+03 -1.22665E+03
  8.15661E+03  2.08315E+03  5.12637E+03  6.62252E+03 -2.19737E+03  1.00361E+04 -8.23051E+03  7.40984E+03
 -1.19535E+04 -1.93664E+03 -7.53571E+03 -8.80176E+03 -5.22775E+01 -1.23967E+04  6.97406E+03 -1.19603E+04
  1.33094E+04 -6.80810E+03  1.46606E+04  1.24251E+03  1.17472E+04  1.14813E+04  1.79209E+03  1.46392E+04
 -6.37381E+03  1.13050E+04 -7.42293E+03  3.47274E+03 -7.92170E+03 -2.39537E+03 -2.18330E+03 -1.28051E+03
 -9.49080E+02  1.02885E+02 -1.49443E+03  2.07307E+03 -4.47331E+03  2.31589E+03 -8.54769E+03 -1.82460E+02
 -5.71396E+03 -8.14377E+03  2.10178E+02 -1.17992E+04  6.37167E+03 -9.89753E+03  1.12049E+04 -4.09728E+03
  1.13329E+04  4.49955E+03  5.28328E+03  1.01937E+04 -2.62894E+03  1.26306E+04 -6.90434E+03  9.05110E+03
 -9.54407E+03  9.88218E+02 -7.70136E+03 -7.23536E+03 -1.28313E+03 -9.51906E+03  5.57311E+03 -6.65355E+03
  6.33958E+03 -2.01303E+03  4.80825E+03  2.33124E+03  1.54832E+03  3.81533E+03  1.25135E+03  7.62627E+02
  1.88958E+03  1.37826E+03  3.65485E+03  2.46319E+03  4.37015E+03  4.44749E+03  3.46957E+03  4.42027E+03
 -2.44582E+03  9.97452E+03 -7.65860E+03  8.78298E+03 -1.09692E+04  2.30181E+03 -1.22504E+04 -3.93321E+03
 -5.15295E+03 -9.75893E+03  2.07497E+03 -1.23914E+04  6.76506E+03 -7.29652E+03  7.90866E+03 -1.95283E+03
  4.86728E+03  3.41059E+03  1.35392E+03  6.68664E+03 -3.00694E+03  2.86860E+03 -3.85196E+03  2.29342E+02
 -1.48421E+03 -3.22351E+03  2.43310E+03 -4.11250E+03  5.74332E+03 -3.48692E+03  4.73029E+03  1.24934E+03
  3.74599E+03  1.80302E+03  7.96999E+02  9.64068E+02 -1.07579E+03  2.22531E+03  2.25642E+03 -9.76974E+02
  4.87966E+02 -1.19006E+03  5.17275E+03  1.71804E+03  2.68204E+03  5.39713E+03 -2.52064E+02  7.39827E+03
 -4.75010E+03  3.88609E+03 -7.32888E+03  1.90474E+03 -6.32272E+03 -1.14941E+03 -1.64278E+03 -4.46872E+03
  1.42621E+03 -3.57650E+03  2.25410E+03 -1.18880E+03  3.47635E+03  2.48508E+03 -7.33155E+02  1.88116E+03
 -3.76631E+03  3.00411E+03 -4.74120E+03 -8.26518E+02 -4.08815E+03 -5.66036E+03 -3.89027E+02 -5.53840E+03
  2.66159E+03 -2.40295E+03  3.37660E+03 -3.22136E+02  3.29287E+03  2.03204E+03  3.94316E+02  2.98085E+03
 -1.82925E+03  7.43884E+02 -2.42560E+03 -7.55382E+02  1.85447E+02 -4.68280E+03  4.13302E+03 -2.64932E+03
  5.53477E+03  9.04688E+02  6.62787E+03  2.64727E+03  2.25522E+03  6.65986E+03 -2.33221E+03  6.16337E+03
 -5.47431E+03  2.35675E+03 -3.57944E+03 -1.03331E+03 -3.57569E+03 -5.30344E+03  1.28057E+03 -2.89955E+03
  3.33669E+03 -2.05088E+03  3.90648E+03  3.13062E+03  1.01650E+03  2.94984E+03 -6.53022E+02  3.35590E+03
 -1.35782E+03  2.41771E+03 -2.90557E+03 -5.17036E+01 -4.48893E+02  9.24758E+02 -8.08025E+02  1.03982E+03
 -2.38015E+03  3.11801E+03 -5.30810E+03  2.47714E+03 -7.19994E+03 -7.92368E+02 -8.41087E+03 -4.41685E+03
 -4.59289E+03 -7.89241E+03  2.17151E+03 -1.00069E+04  6.38105E+03 -6.88312E+03  9.81090E+03 -1.19838E+03
  9.22429E+03  2.27251E+03  6.29193E+03  5.29412E+03 -1.37844E+02  8.26974E+03 -3.13144E+03  5.06989E+03
 -1.97527E+03  1.19872E+03 -1.59567E+03  1.06999E+02 -1.25939E+03  7.13404E+02  2.10090E+02  5.68276E+02
 -1.52189E+03  3.53417E+02 -1.02135E+03  7.44938E+02  2.57351E+02 -1.99558E+03  1.17247E+03 -1.16000E+03
  3.52148E+03 -3.36877E+03  3.33713E+03 -7.48285E+02  4.47976E+03  4.60949E+03  1.53916E+03  6.29027E+03
 -2.27389E+03  8.42684E+03 -7.21840E+03  6.03326E+03 -7.19456E+03  5.55290E+02 -5.93187E+03 -5.76238E+03
 -3.21108E+03 -6.82092E+03  1.12672E+03 -6.32461E+03  3.56871E+03 -4.07234E+03  4.59226E+03 -4.55891E+02
  6.82929E+02  1.22851E+03 -2.22473E+02  1.28099E+03 -1.79377E+03 -5.45464E+02 -7.68030E+00 -1.30665E+03
  1.95512E+03  4.01059E+02  2.88701E+03  1.66012E+03  7.79293E+02  2.44223E+03  2.51544E+02  2.76804E+03
 -2.97583E+03  4.77236E+03 -4.69733E+03  7.07705E+02 -3.29954E+03 -2.19305E+03 -2.60306E+02 -5.36087E+03
  2.69834E+03 -4.47673E+03  3.12060E+03 -3.01408E+02  4.99688E+03  9.84615E+01  2.27252E+03  3.60444E+03
  1.40253E+02  2.90111E+03 -1.78991E+03  4.15024E+03 -2.00574E+03  2.26074E+03 -1.57966E+03  1.37491E+02
 -4.24347E+02 -5.29257E+02 -3.39236E+02  6.47550E+02 -1.85924E+03  7.74909E+02 -2.98561E+03 -2.62962E+02
 -3.27431E+03 -1.79223E+03 -1.14567E+03 -4.35096E+03  3.06973E+03 -4.51814E+03  2.94579E+03 -2.40963E+03
  4.80783E+03  5.98747E+02  2.35241E+03  2.78838E+03 -7.23783E+02  3.95627E+03 -2.49343E+03  1.66939E+03
