 $NMID ID='MM_0lb_SNR200_8hz_g55_74.RAW', FMTDAT='(8E13.5)'
 TRAMP=1., VOLUME=1. $END
  3.10021E+05  8.44343E+02  3.37770E+05  2.51159E+05  8.41836E+04  3.39118E+05 -1.32716E+05  2.52637E+05
 -1.92613E+05  8.38422E+04 -1.13238E+05 -3.39939E+04  8.88482E+02 -5.18391E+04  5.21047E+04 -2.39100E+03
  3.64333E+04  5.19577E+04 -1.62515E+04  7.66807E+04 -6.09191E+04  6.52485E+04 -8.67074E+04  3.27340E+04
 -8.44649E+04 -1.05052E+04 -5.91488E+04 -5.23235E+04 -1.58588E+04 -7.12348E+04  2.81472E+04 -4.68428E+04
  4.36567E+04  4.41332E+03  1.82837E+04  4.88222E+04 -3.57642E+04  4.93347E+04 -6.94376E+04 -4.11243E+02
 -5.48445E+04 -5.86228E+04 -7.13207E+03 -7.85953E+04  3.51488E+04 -5.68648E+04  5.13517E+04 -1.77897E+04
  4.59011E+04  1.03150E+04  3.29430E+04  2.60843E+04  1.66114E+04  3.09886E+04 -7.56277E+03  2.74225E+04
 -2.17429E+04  1.07512E+04 -1.76556E+04 -6.34377E+03  8.95149E+03 -6.65635E+03  2.33728E+04  1.41006E+04
  7.67357E+03  4.00565E+04 -3.51115E+04  3.70009E+04 -6.73767E+04  8.43721E+02 -5.91590E+04 -4.53490E+04
 -1.34234E+04 -6.74442E+04  4.37452E+04 -4.84721E+04  6.42499E+04 -2.18853E+03  3.80979E+04  3.48247E+04
 -5.07904E+03  4.07065E+04 -3.24515E+04  1.74743E+04 -3.26479E+04 -3.07164E+03 -2.10637E+04 -1.00744E+04
 -1.02144E+04 -1.66843E+04 -1.80183E+03 -2.01285E+04  6.17913E+03 -2.56769E+04  1.63788E+04 -1.30884E+04
  1.06417E+04  6.47174E+03 -1.16937E+04  1.31183E+04 -2.37511E+04 -8.25360E+03 -8.95518E+03 -4.06184E+04
  2.59571E+04 -4.76740E+04  5.15694E+04 -2.04065E+04  4.88584E+04  2.25105E+04  1.82644E+04  4.74567E+04
 -1.57043E+04  3.65570E+04 -2.84757E+04  3.05372E+03 -1.22731E+04 -2.79551E+04  2.23256E+04 -3.88073E+04
  4.44503E+04 -1.06654E+04  4.27730E+04  2.47297E+04  2.15132E+04  5.06048E+04 -7.81243E+03  5.87419E+04
 -3.62826E+04  3.98380E+04 -4.80008E+04  1.17225E+04 -4.97105E+04 -2.01642E+04 -2.56965E+04 -4.30464E+04
  6.87647E+03 -4.47154E+04  3.50565E+04 -1.85342E+04  3.21624E+04  1.23720E+04  4.34497E+03  2.30005E+04
 -1.39554E+04  1.04076E+04 -9.79767E+03 -6.49505E+03  6.58334E+03 -1.02295E+04  1.93054E+04  6.10823E+03
  1.53810E+04  2.25881E+04 -5.81201E+03  2.87235E+04 -2.55598E+04  1.54308E+04 -3.31274E+04 -1.46559E+03
 -2.75911E+04 -2.03623E+04 -1.03243E+04 -2.79736E+04  3.58358E+03 -2.56856E+04  2.09599E+04 -2.35682E+04
  3.45451E+04 -1.57837E+04  4.12460E+04  4.69101E+03  2.70394E+04  2.87175E+04  4.05624E+03  4.33388E+04
 -1.92492E+04  3.55181E+04 -3.22859E+04  1.26352E+04 -2.35352E+04 -1.04917E+04 -4.82297E+03 -1.18669E+04
 -5.37282E+02 -1.05246E+01 -1.01915E+04  9.26022E+03 -2.21253E+04  3.25120E+03 -2.13174E+04 -1.07566E+04
 -1.19364E+04 -2.57848E+04  7.39866E+03 -2.82462E+04  1.97665E+04 -2.18457E+04  2.18679E+04 -2.75639E+03
  1.52503E+04  1.83012E+04 -5.90218E+02  2.48516E+04 -1.82254E+04  1.33132E+04 -2.56026E+04 -4.14438E+03
 -1.85189E+04 -2.10676E+04 -2.10269E+03 -3.10274E+04  1.20625E+04 -2.50151E+04  2.41378E+04 -1.32523E+04
  2.42475E+04 -1.23450E+03  1.65627E+04  7.65122E+03  1.15545E+04  2.97202E+03  1.39406E+04 -1.45368E+03
  2.39211E+04  5.31152E+03  2.79836E+04  1.86976E+04  1.84021E+04  4.07503E+04 -8.82924E+02  4.77383E+04
 -2.64428E+04  3.95012E+04 -4.45220E+04  2.20829E+04 -4.71967E+04 -3.33144E+03 -3.97224E+04 -2.75608E+04
 -1.58752E+04 -4.04477E+04  1.42112E+04 -3.59831E+04  3.06006E+04 -1.79287E+04  2.58006E+04  7.47401E+03
  9.30379E+03  2.03545E+04 -1.25607E+04  1.68655E+04 -1.94660E+04  2.78685E+03 -1.61470E+04 -1.42072E+04
  1.27762E+03 -2.16443E+04  1.07129E+04 -1.41571E+04  1.41043E+04 -3.02881E+03  4.95059E+03  1.07739E+04
 -1.01534E+04  4.96713E+03 -8.30995E+03 -8.27168E+03 -1.89199E+03 -1.90024E+04  1.25391E+04 -2.22063E+04
  2.43186E+04 -1.15321E+04  3.01767E+04  3.80874E+03  2.62686E+04  2.17174E+04  1.01756E+04  3.17683E+04
 -7.22464E+03  3.44295E+04 -2.21710E+04  2.24997E+04 -2.67870E+04  4.16738E+03 -1.71575E+04 -5.90553E+03
 -6.10881E+03 -8.53139E+03 -7.98622E+02 -1.22487E+03 -3.87619E+03  3.16568E+03 -7.99338E+03  6.26512E+03
 -1.47623E+04 -1.57106E+03 -1.59380E+04 -1.32937E+04 -6.33989E+03 -2.02529E+04  7.51092E+03 -1.68269E+04
  1.28321E+04 -7.30084E+03  8.24338E+03  5.32578E+03  1.15624E+03  4.89620E+03 -1.10920E+04 -6.68238E+02
 -8.30666E+03 -1.02993E+04 -2.46757E+03 -1.87260E+04  1.04788E+04 -1.79171E+04  2.06594E+04 -9.69528E+03
  2.70877E+04  3.03576E+03  1.89854E+04  1.63473E+04  3.63313E+03  2.05123E+04 -1.00060E+04  1.66614E+04
 -1.32412E+04  3.99392E+03 -5.54141E+03 -6.22364E+03  2.44989E+03 -5.99636E+03  8.13740E+03  1.50896E+02
  7.30347E+03  6.48490E+03  3.10499E+02  1.48148E+04 -1.06229E+04  1.22268E+04 -1.75633E+04  3.03443E+03
 -1.11711E+04 -9.00275E+03  9.92146E+02 -1.41081E+04  9.69988E+03 -8.29074E+03  1.01556E+04  3.35605E+03
  2.85271E+03  1.16998E+04 -9.93896E+03  1.20779E+04 -1.51504E+04  6.07171E+03 -1.54151E+04 -5.57153E+03
 -7.68023E+03 -1.79059E+04  5.51496E+03 -2.18031E+04  1.51327E+04 -1.21899E+04  1.78989E+04  4.05612E+03
  9.81314E+03  1.39850E+04 -2.35096E+03  1.67179E+04 -1.26041E+04  9.68020E+03 -1.45758E+04 -2.13677E+03
 -1.09713E+04 -1.16336E+04 -2.24657E+03 -1.34276E+04  7.78567E+03 -1.11186E+04  8.16365E+03 -3.89354E+03
  7.58250E+03  2.84612E+03 -6.29868E+02  3.08548E+03  7.42527E+02 -3.57684E+03  3.34147E+03 -1.03393E+04
  1.34423E+04 -4.76572E+03  1.90307E+04  3.66649E+03  1.87383E+04  1.37129E+04  1.16825E+04  2.45962E+04
 -6.18189E+03  2.72562E+04 -2.19349E+04  1.83923E+04 -2.84360E+04  3.16982E+03 -2.32465E+04 -1.00602E+04
 -1.05985E+04 -2.04298E+04 -4.60585E+02 -1.61476E+04  6.10847E+03 -8.64853E+03  6.22770E+03 -6.18009E+03
  4.25210E+03 -2.94996E+03  5.80990E+03 -3.41800E+03  5.45126E+03 -5.19742E+03  1.01970E+04 -1.95959E+03
  1.17683E+04  3.04415E+03  7.01234E+03  1.05813E+04 -3.47206E+03  1.18321E+04 -1.20322E+04  1.10235E+04
 -1.64569E+04 -1.68289E+02 -1.25397E+04 -1.16245E+04 -1.24519E+03 -1.84301E+04  8.95028E+03 -1.90464E+04
  1.79827E+04 -1.02288E+04  2.20909E+04  4.00726E+03  1.51653E+04  1.60851E+04  2.97630E+03  2.09800E+04
 -8.74950E+03  1.65559E+04 -1.19951E+04  4.64502E+03 -7.30438E+03 -8.66131E+02 -3.57690E+03 -1.26904E+03
 -2.79190E+03  4.24530E+02 -2.56094E+03  1.70202E+03 -6.98052E+03  3.14883E+03 -9.81413E+03 -1.65444E+03
 -7.69965E+03 -1.18554E+04 -9.83110E+01 -1.74623E+04  9.72919E+03 -1.43701E+04  1.71187E+04 -4.39424E+03
  1.78218E+04  8.62684E+03  8.20869E+03  1.56755E+04 -1.44988E+03  1.90178E+04 -1.11608E+04  1.17856E+04
 -1.70751E+04 -1.61137E+02 -1.33486E+04 -9.19048E+03  7.59561E+01 -1.41691E+04  8.40504E+03 -1.14717E+04
  1.14225E+04 -3.29713E+03  7.36265E+03  3.67267E+03  2.45167E+03  4.43033E+03  2.02783E+03  3.25730E+03
  2.56230E+03  9.05402E+01  4.79598E+03  3.85985E+03  6.31673E+03  4.75949E+03  6.12407E+03  1.17587E+04
 -3.30667E+03  1.39760E+04 -1.21791E+04  1.37486E+04 -1.86047E+04  2.51981E+03 -1.87794E+04 -6.60928E+03
 -7.51898E+03 -1.80687E+04  4.10811E+03 -2.06685E+04  1.12827E+04 -1.18712E+04  1.22088E+04 -3.60266E+03
  1.22262E+04  7.84831E+03  3.38620E+03  9.42583E+03 -6.64678E+03  5.20341E+03 -8.33398E+03 -6.04371E+02
 -3.38758E+03 -8.35573E+03  5.07186E+03 -7.27646E+03  8.66979E+03 -4.64738E+03  7.56847E+03  1.60966E+03
  3.99823E+03  3.69209E+03  1.17005E+03  3.31405E+03  5.16548E+02  4.14250E+03  1.16149E+03 -7.59618E+02
  1.63293E+03  3.89053E+01  6.72713E+03  1.59324E+03  4.69193E+03  8.23628E+03 -1.86863E+03  1.30675E+04
 -7.94972E+03  7.60737E+03 -1.10560E+04  2.38937E+03 -1.08196E+04 -3.98544E+03 -4.33090E+03 -6.67339E+03
  7.54104E+02 -7.66116E+03  4.81734E+03 -3.59635E+03  5.30866E+03  2.07842E+03 -2.00722E+03  6.93721E+03
 -7.79904E+03  2.25603E+03 -1.05439E+04 -4.55312E+03 -6.13673E+03 -9.29459E+03  1.29129E+03 -1.15074E+04
  6.66813E+03 -6.09112E+03  8.71377E+03 -1.81706E+03  5.64741E+03  2.87931E+03 -9.01394E+01  5.03214E+03
 -5.41508E+03  1.91413E+03 -5.82836E+03 -3.49028E+03  8.95859E+02 -7.57139E+03  7.11083E+03 -7.65184E+03
  1.26738E+04  2.37788E+03  1.15531E+04  7.87404E+03  3.22609E+03  1.34871E+04 -4.34117E+03  9.86979E+03
 -9.01005E+03  3.53230E+03 -1.02618E+04 -8.50035E+02 -6.24622E+03 -8.58938E+03  1.17710E+03 -7.80177E+03
  8.08360E+03 -3.96383E+03  5.89564E+03  3.29602E+03  1.82221E+03  5.18522E+03 -8.44401E+02  4.35594E+03
 -2.24369E+03  4.21677E+03 -2.81052E+03  2.14442E+03 -1.43286E+03  2.23565E+03 -2.95658E+03  2.17649E+03
 -2.14050E+03  4.00647E+03 -7.06728E+03  4.76154E+03 -1.26443E+04  3.26372E+02 -1.15834E+04 -7.36134E+03
 -7.28633E+03 -1.62088E+04  2.85356E+03 -1.72913E+04  1.26452E+04 -1.35419E+04  1.74648E+04 -5.23119E+03
  1.63817E+04  1.60742E+03  1.07854E+04  1.23070E+04  1.60525E+03  1.28852E+04 -4.64884E+03  1.02281E+04
 -6.99469E+03  3.39913E+03 -4.49263E+03 -5.89396E+02 -5.66806E+02 -1.79571E+03 -1.00661E+03  2.12753E+02
 -2.74314E+03  6.47586E+02 -2.61993E+03 -1.16854E+03  9.97508E+01 -8.49015E+02 -4.05314E+02 -3.65065E+03
  7.71802E+03 -3.85172E+03  8.22912E+03  1.35733E+03  9.40549E+03  7.46204E+03  3.74230E+03  1.23348E+04
 -5.20703E+03  1.61145E+04 -1.19853E+04  8.76684E+03 -1.56223E+04 -2.04618E+02 -1.08402E+04 -8.71538E+03
 -5.81499E+03 -1.38887E+04  3.23232E+03 -1.20310E+04  9.14976E+03 -5.88352E+03  9.63186E+03  2.71072E+02
  5.23128E+03  4.63668E+03 -1.39480E+03  3.61906E+03 -1.66382E+03 -1.18298E+03  1.86918E+03 -3.65198E+03
  4.46528E+03 -3.14523E+02  5.75398E+03  1.18651E+03  3.47773E+03  4.72302E+03  3.86046E+02  7.05541E+03
 -6.07872E+03  6.77151E+03 -1.00149E+04  9.48062E+02 -7.75593E+03 -6.24525E+03 -3.00345E+03 -1.17046E+04
  4.71914E+03 -8.80242E+03  8.98289E+03 -3.65428E+03  9.99516E+03  2.46235E+03  5.01238E+03  7.67974E+03
  1.57841E+03  7.26925E+03 -4.18297E+03  7.58274E+03 -6.99331E+03  4.08171E+03 -2.67263E+03 -9.44207E+02
 -5.28511E+03 -1.17187E+03 -1.14761E+03  1.40521E+03 -6.22238E+03  3.00083E+03 -7.47193E+03 -9.56285E+02
 -5.87795E+03 -4.61778E+03 -5.79863E+02 -8.04769E+03  5.07481E+03 -8.95135E+03  7.82058E+03 -4.18339E+03
  8.65720E+03  2.36273E+03  5.48413E+03  8.47883E+03  1.18818E+03  6.76939E+03 -8.17571E+03  6.15757E+03
