 $NMID ID='MM_0lb_SNR200_20hz_g60_100.RAW', FMTDAT='(8E13.5)'
 TRAMP=1., VOLUME=1. $END
  3.09888E+05  1.55097E+03  3.38540E+05  2.49426E+05  8.45768E+04  3.36755E+05 -1.32696E+05  2.50452E+05
 -1.90905E+05  8.34913E+04 -1.11813E+05 -3.30875E+04  7.13048E+02 -5.01524E+04  5.35700E+04  3.88976E+02
  3.62375E+04  5.26553E+04 -1.72615E+04  7.35909E+04 -6.12205E+04  6.24461E+04 -8.36281E+04  3.20426E+04
 -7.97075E+04 -1.05688E+04 -5.70997E+04 -5.07348E+04 -1.48619E+04 -6.82876E+04  2.75104E+04 -4.52532E+04
  3.83272E+04  3.08958E+03  1.67362E+04  4.77319E+04 -3.30128E+04  4.63589E+04 -6.68870E+04 -6.72509E+02
 -5.31946E+04 -5.69015E+04 -5.47779E+03 -7.48845E+04  3.42435E+04 -5.49523E+04  4.67417E+04 -1.65607E+04
  4.18700E+04  1.05627E+04  3.06415E+04  2.48964E+04  1.49645E+04  2.88588E+04 -4.34972E+03  2.68779E+04
 -2.16273E+04  1.34731E+04 -1.80838E+04 -4.19020E+03  4.78936E+03 -7.82894E+03  2.23745E+04  1.21500E+04
  6.90773E+03  3.45393E+04 -3.02529E+04  3.42283E+04 -6.12880E+04  3.12115E+03 -5.54497E+04 -4.09857E+04
 -1.25052E+04 -6.16792E+04  3.78292E+04 -4.47800E+04  5.56507E+04 -1.88362E+03  3.21348E+04  3.16635E+04
 -6.17312E+03  3.31750E+04 -2.89398E+04  1.42630E+04 -2.92228E+04 -5.01656E+03 -1.46829E+04 -1.07431E+04
 -7.28732E+03 -1.28283E+04 -7.78314E+02 -1.68909E+04  7.50566E+03 -2.34745E+04  1.47818E+04 -1.39255E+04
  1.16746E+04  4.99498E+03 -6.29764E+03  1.27731E+04 -1.95233E+04 -3.18922E+03 -9.15363E+03 -3.07309E+04
  2.04644E+04 -4.18653E+04  4.57919E+04 -1.79755E+04  4.25688E+04  1.88352E+04  1.38162E+04  4.24495E+04
 -1.55853E+04  3.24138E+04 -2.39304E+04  1.72195E+03 -9.31105E+03 -2.62086E+04  1.95929E+04 -3.14359E+04
  3.80827E+04 -8.07561E+03  3.26053E+04  2.29776E+04  1.53077E+04  4.42177E+04 -7.65177E+03  4.58829E+04
 -2.82467E+04  3.07783E+04 -3.82643E+04  8.90854E+03 -3.95834E+04 -1.62788E+04 -2.23325E+04 -3.53578E+04
  6.86824E+03 -3.52963E+04  3.02329E+04 -1.27414E+04  2.70455E+04  1.09030E+04  2.55739E+03  1.76583E+04
 -1.35761E+04  7.92722E+03 -1.04791E+04 -7.98435E+03  6.30413E+03 -1.00777E+04  1.71847E+04  6.86538E+03
  1.28414E+04  2.20696E+04 -7.08894E+03  2.39173E+04 -2.11314E+04  1.02308E+04 -2.59987E+04 -6.57630E+03
 -1.77594E+04 -1.69928E+04 -4.88577E+03 -1.72644E+04  3.15695E+03 -1.61702E+04  1.28820E+04 -1.41774E+04
  2.15915E+04 -1.17831E+04  2.96456E+04  1.77877E+03  2.10421E+04  1.77735E+04  4.31250E+03  3.27760E+04
 -1.63045E+04  2.76702E+04 -2.63810E+04  9.08160E+03 -1.97211E+04 -1.01234E+04 -2.90076E+03 -1.40999E+04
  1.96416E+03 -4.12345E+03 -2.71561E+03  6.34169E+03 -1.35163E+04  5.70161E+03 -1.39667E+04 -4.68697E+03
 -8.13083E+03 -1.55754E+04  4.71640E+03 -1.96753E+04  1.35969E+04 -1.26220E+04  1.45210E+04 -1.83299E+03
  1.00672E+04  1.17669E+04 -1.44319E+03  1.50007E+04 -1.15891E+04  9.18858E+03 -1.54874E+04 -3.17639E+03
 -1.14909E+04 -1.41855E+04 -1.79796E+03 -2.01598E+04  8.96460E+03 -1.53738E+04  1.65547E+04 -7.34770E+03
  1.46545E+04  7.01044E+02  1.17075E+04  4.21760E+03  5.86846E+03  2.77782E+02  7.09048E+03 -2.13596E+03
  1.46882E+04  1.86933E+03  1.55467E+04  1.14487E+04  8.47742E+03  2.50372E+04 -3.44981E+03  2.63960E+04
 -1.73151E+04  2.06361E+04 -2.46861E+04  1.02263E+04 -2.47409E+04 -2.04036E+03 -2.23126E+04 -1.44297E+04
 -1.02617E+04 -2.03040E+04  7.35178E+03 -1.90633E+04  1.66347E+04 -1.04002E+04  1.53731E+04  2.89107E+03
  6.43989E+03  1.07699E+04 -7.53983E+03  1.02190E+04 -1.24689E+04  2.15215E+03 -1.09851E+04 -7.57576E+03
 -1.38622E+03 -1.25652E+04  6.59249E+03 -9.30949E+03  8.44501E+03 -1.40653E+03  1.20886E+03  4.32963E+03
 -5.08833E+03  8.94680E+02 -3.85902E+03 -4.60257E+03  1.12972E+03 -9.88330E+03  8.35021E+03 -9.89757E+03
  1.08460E+04 -5.30739E+03  1.22859E+04  3.39232E+03  9.99965E+03  8.83871E+03  4.54634E+03  1.40082E+04
 -1.23893E+03  1.55999E+04 -8.15417E+03  1.10555E+04 -1.15688E+04  3.51333E+03 -8.35665E+03 -1.72871E+03
 -4.01131E+03 -3.69210E+03 -1.03301E+03  1.73469E+03 -9.56466E+02  1.88005E+03 -2.66376E+03  3.82058E+03
 -6.69668E+03 -2.40220E+02 -8.72951E+03 -7.84823E+03 -3.37691E+03 -1.07397E+04  4.27860E+03 -8.87337E+03
  6.39662E+03 -4.42205E+03  6.01646E+03  2.36800E+03 -3.99136E+02  3.64459E+03 -2.97829E+03 -3.86035E+02
 -3.46961E+03 -4.98321E+03 -1.00311E+02 -7.55810E+03  3.38976E+03 -8.15553E+03  1.01515E+04 -4.67011E+03
  1.20827E+04  2.92466E+02  8.50198E+03  5.42125E+03  1.31724E+03  8.77021E+03 -5.98507E+03  7.02379E+03
 -6.31174E+03  2.90024E+03 -4.08014E+03 -6.99748E+02  2.00715E+03 -1.97968E+03  5.72373E+03 -1.64367E+03
  4.67870E+03  3.45387E+03  4.55884E+02  5.66758E+03 -4.51167E+03  6.83202E+03 -7.40811E+03  2.03210E+03
 -4.87261E+03 -2.33242E+03  5.22450E+02 -6.52614E+03  4.43591E+03 -2.22989E+03  3.67406E+03  5.15410E+02
  5.18307E+02  3.12778E+03 -4.76112E+03  4.16620E+03 -5.00578E+03  2.09530E+03 -3.42436E+03 -5.73071E+02
 -2.52786E+03 -5.46766E+03  8.75991E+02 -7.19083E+03  5.34648E+03 -3.87178E+03  5.87199E+03  1.77772E+03
  4.70070E+03  4.71338E+03  6.10461E+02  6.42672E+03 -3.52144E+03  2.70959E+03 -5.17459E+03 -5.22633E+02
 -6.58505E+03 -5.13398E+03 -7.81347E+02 -4.84954E+03  2.00928E+03 -5.11332E+03  3.12115E+03 -2.84994E+03
  2.48296E+03 -2.63789E+02  4.69749E+02  1.53785E+03  1.15163E+03  9.00313E+02  5.62363E+02 -2.32005E+03
  3.87270E+03 -1.35459E+03  4.83919E+03 -1.41874E+01  4.34397E+03  1.97067E+03  5.61725E+03  6.78943E+03
 -1.04776E+03  8.54581E+03 -6.09829E+03  4.75327E+03 -8.23402E+03  2.83591E+02 -7.24451E+03 -3.15557E+03
 -3.15357E+03 -5.60638E+03 -7.11404E+02 -4.94029E+03  1.70687E+03 -1.33747E+03  1.15505E+03 -1.41729E+03
  2.13097E+02 -7.98021E+02  2.40571E+03 -2.27261E+03  3.75661E+03 -1.95998E+03  3.65893E+03  5.17712E+02
  3.31830E+03  2.13280E+03  5.38729E+02  3.08002E+03 -1.62031E+03  2.44261E+03 -5.05096E+03  1.85129E+03
 -4.51095E+03 -1.89656E+03 -1.87419E+03 -2.92276E+03  2.88786E+02 -4.49473E+03  2.95560E+03 -4.76804E+03
  4.37033E+03 -2.59888E+03  6.42937E+03  2.48782E+02  3.62068E+03  3.18584E+03  4.84737E+02  5.06772E+03
 -2.07245E+03  5.10150E+03 -2.98451E+03  2.37852E+03 -1.29047E+03 -5.19160E+02  6.72093E+02 -2.51206E+02
 -2.92819E+02  1.41731E+03 -2.52266E+02  1.61758E+03 -1.17809E+03  4.12574E+02 -3.28701E+03 -3.90787E+02
 -1.05578E+03 -3.51543E+03  1.12871E+02 -4.67547E+03  2.76995E+03 -4.64114E+03  3.20696E+03 -1.22477E+03
  4.40268E+03  1.46374E+03  1.26987E+03  2.32919E+03 -2.08465E+03  3.66780E+03 -1.88681E+03  1.12403E+03
 -4.63127E+03  8.26781E+02 -2.34183E+03 -2.20061E+03 -4.97752E+02 -3.19329E+03  2.24491E+03 -8.85094E+02
  2.60756E+03 -1.63974E+03  1.26264E+03  5.75230E+02  3.32738E+02  1.73955E+03  1.35979E+03  3.94148E+02
  2.77664E+03  4.46375E+02  6.98557E+02  2.95433E+02  7.43469E+02  2.04351E+03  8.92718E+02  1.52229E+03
 -1.31617E+03  3.87706E+03 -2.03166E+03  3.74488E+03 -1.72990E+03  1.22420E+03 -3.44771E+03 -9.64041E+02
 -6.39293E+02 -2.00516E+03  6.81060E+02 -3.76396E+03  9.52565E+02 -1.68827E+03  2.06332E+03  1.91016E+01
  1.32543E+03  1.09216E+03  6.80912E+02  2.52673E+03 -2.06131E+02  1.00590E+03 -5.20233E+02  1.94408E+02
 -7.96429E+02 -7.35505E+02  2.29291E+03 -1.40012E+03  1.32832E+03 -1.48884E+03  8.92847E+02  1.06938E+03
 -4.21141E+02 -1.13459E+03  1.34469E+03 -2.72149E+02 -2.87432E+02  6.75821E+02  1.27044E+03  1.00807E+02
  5.08368E+01 -1.60738E+03  4.95160E+02  5.86415E+02 -7.03668E+02  2.25137E+03 -7.78348E+02  2.25245E+03
 -1.99886E+03  5.28278E+02 -1.24278E+03 -3.38409E+02 -1.18775E+03 -6.84548E+02 -1.41705E+02 -4.51618E+02
  7.28094E+02 -1.44631E+02  6.94367E+02 -1.08812E+03  4.03915E+02  1.82389E+03 -9.16733E+02  9.45582E+02
 -1.44469E+03  5.17779E+01 -3.55715E+02 -1.01945E+03 -8.19358E+01 -1.47608E+03 -5.96939E+02 -7.88374E+02
  5.49831E+02 -5.05105E+02 -3.78274E+02 -4.15828E+02  9.51837E+02  1.68128E+02 -1.91153E+02  1.87635E+03
 -7.38836E+02  5.02193E+01 -1.44910E+03  8.36047E+02  9.65409E+02 -4.77094E+00  2.10795E+03 -3.75407E+02
  5.66710E+02 -2.54281E+02  1.92424E+03  1.14409E+03  9.08779E+02  5.01291E+02  7.82878E+02  1.70498E+03
 -3.09277E+02  4.84837E+02 -8.27704E+02  1.50601E+02 -4.03592E+02 -4.87730E+02 -5.85425E+02 -4.04304E+02
  1.71194E+03 -7.55049E+02 -2.34720E+02  1.54075E+02 -4.17292E+02  1.11677E+03  1.12365E+03  9.89842E+01
 -2.18401E+02  7.07337E+02  4.38970E+02  5.76608E+02  4.45247E+02  1.00849E+03 -3.24654E+02  7.02537E+02
  9.00546E+02  9.51914E+02 -1.60241E+03  5.71119E+02 -1.99066E+03 -2.09002E+02 -1.31745E+03 -1.52912E+02
 -8.52894E+02 -1.78656E+03  6.29928E+02 -3.18047E+03  9.78784E+02 -2.41423E+03  2.06223E+03 -1.40064E+03
  1.84423E+03 -7.10885E+02  5.26149E+02  1.91521E+03 -2.28575E+02  9.66849E+02 -4.49314E+02  1.30935E+03
 -6.12390E+02  1.25908E+03 -2.87115E+01  7.32466E+02 -8.54035E+02  3.17881E+02 -6.72195E+02  8.10499E+02
 -1.73104E+03 -1.26642E+03 -1.33192E+03  3.32595E+02  3.01064E+02 -7.68326E+02 -3.19058E+02 -3.85136E+02
  1.32957E+03  5.54621E+02 -3.11126E+02  1.01739E+03  1.00554E+03  1.17387E+03  5.71128E+02  1.35483E+03
 -3.32492E+02  1.77716E+03 -1.47513E+03 -3.16737E+02 -9.81598E+02 -1.50534E+03 -9.42809E+02 -1.79597E+03
 -1.12685E+03 -8.97110E+02 -1.31502E+02 -3.37283E+02  3.89766E+02 -1.34763E+02  2.23537E+02 -7.47317E+02
  7.78481E+02  1.87522E+02  7.04838E+02  5.66049E+02  1.83231E+02 -2.04017E+02 -7.01506E+02 -9.33441E+02
  3.94261E+02  3.25179E+02 -6.57197E+02  4.68818E+02  1.45400E+02  1.03235E+02  5.32646E+02 -1.05907E+03
  3.06714E+02 -2.41789E+02 -5.69909E+02 -6.36297E+02 -5.56256E+02 -6.34131E+02  5.10506E+02 -1.21924E+03
  1.30477E+03 -6.78943E+02  7.90821E+02  3.79709E+02  1.15803E+03 -5.53605E+02  3.41691E+02  9.41525E+02
  9.13869E+02 -1.71480E+02  5.29520E+02 -6.85843E+02  2.03722E+01  1.03759E+03 -1.49272E+03  4.21741E+02
  3.20792E+02 -6.51674E+02 -9.63177E+02 -1.26635E+02 -7.99316E+02  1.13738E+03 -9.73273E+02  9.38520E+02
 -3.60009E+02  1.14618E+03 -9.15855E+02 -1.00338E+03  7.08598E+02 -1.30439E+03  2.49708E+02  1.62667E+02
 -1.31390E+02 -6.29616E+02 -1.63962E+03  6.43964E+02  1.12235E+03  5.23502E+02  3.81194E+02 -3.52996E+02
