 $NMID ID='MM_0lb_SNR200_10hz_g50_66.RAW', FMTDAT='(8E13.5)'
 TRAMP=1., VOLUME=1. $END
  3.09474E+05 -2.13645E+02  3.38392E+05  2.49539E+05  8.49572E+04  3.38733E+05 -1.32514E+05  2.50722E+05
 -1.90152E+05  8.25909E+04 -1.12419E+05 -3.38134E+04  8.30137E+02 -5.03893E+04  5.45173E+04 -1.75820E+03
  3.63171E+04  5.34000E+04 -1.65445E+04  7.60277E+04 -6.20833E+04  6.39517E+04 -8.46230E+04  3.19221E+04
 -8.08596E+04 -1.18296E+04 -5.86262E+04 -5.26821E+04 -1.42676E+04 -7.13046E+04  2.87636E+04 -4.67881E+04
  4.24014E+04  4.21165E+03  1.67260E+04  4.86355E+04 -3.56492E+04  4.78374E+04 -6.80249E+04  6.50256E+02
 -5.49066E+04 -5.72069E+04 -6.37178E+03 -7.88470E+04  3.45544E+04 -5.68488E+04  4.91590E+04 -2.00479E+04
  4.56346E+04  1.16233E+04  3.21265E+04  2.62366E+04  1.49907E+04  3.03579E+04 -5.19699E+03  2.60899E+04
 -2.25279E+04  1.22961E+04 -1.77309E+04 -4.78504E+03  5.48141E+03 -7.62260E+03  2.36705E+04  1.35897E+04
  7.75875E+03  3.63015E+04 -3.31760E+04  3.54369E+04 -6.38650E+04  1.25421E+03 -5.86380E+04 -4.53060E+04
 -1.14841E+04 -6.47716E+04  3.95355E+04 -4.59829E+04  6.14896E+04 -1.92893E+03  3.53782E+04  3.31493E+04
 -4.68722E+03  4.00187E+04 -3.04322E+04  1.79139E+04 -3.16310E+04 -4.02316E+03 -1.90308E+04 -1.21732E+04
 -9.99532E+03 -1.56076E+04  4.73282E+01 -2.17368E+04  7.91438E+03 -2.19535E+04  1.79868E+04 -1.22508E+04
  1.03368E+04  5.99698E+03 -8.89886E+03  1.32825E+04 -2.24989E+04 -5.86076E+03 -9.81686E+03 -3.66449E+04
  2.46924E+04 -4.65183E+04  5.07371E+04 -2.06287E+04  4.79245E+04  2.11190E+04  1.67172E+04  4.66865E+04
 -1.52891E+04  3.44714E+04 -2.81878E+04  1.80741E+03 -1.26216E+04 -2.82692E+04  2.07787E+04 -3.67913E+04
  4.26846E+04 -9.51894E+03  4.07762E+04  2.45461E+04  2.15143E+04  4.80862E+04 -7.47307E+03  5.51108E+04
 -3.44676E+04  3.79960E+04 -4.51404E+04  1.02570E+04 -4.76028E+04 -1.72707E+04 -2.42990E+04 -4.04545E+04
  7.44553E+03 -4.09756E+04  3.36194E+04 -1.67226E+04  3.13854E+04  1.12919E+04  4.87168E+03  2.23245E+04
 -1.35380E+04  1.05966E+04 -1.01616E+04 -7.25888E+03  6.46137E+03 -1.15960E+04  1.87618E+04  4.46066E+03
  1.40604E+04  2.31615E+04 -4.82688E+03  2.70256E+04 -2.44062E+04  1.34426E+04 -3.17553E+04 -4.18952E+03
 -2.50565E+04 -1.74648E+04 -1.10735E+04 -2.28160E+04  3.61069E+03 -2.32783E+04  2.04327E+04 -2.37644E+04
  3.15024E+04 -1.36810E+04  3.50462E+04  3.98031E+03  2.65771E+04  2.24695E+04  4.67018E+03  4.09986E+04
 -1.84081E+04  3.33105E+04 -3.13148E+04  1.04905E+04 -2.19309E+04 -1.04866E+04 -5.30905E+03 -1.31911E+04
  1.15098E+03 -2.61063E+03 -5.77321E+03  7.52239E+03 -2.00489E+04  6.17559E+03 -1.92421E+04 -7.84459E+03
 -1.17781E+04 -2.21485E+04  5.03387E+03 -2.67783E+04  1.73980E+04 -1.99294E+04  2.19856E+04 -9.50973E+02
  1.42113E+04  1.59352E+04 -1.78562E+03  2.20026E+04 -1.64459E+04  1.36170E+04 -2.27842E+04 -5.87935E+03
 -1.50071E+04 -1.92718E+04 -2.12827E+03 -2.77721E+04  1.02842E+04 -2.33673E+04  2.25610E+04 -1.01493E+04
  2.28888E+04  3.23783E+02  1.46418E+04  4.79661E+03  8.61112E+03  1.87140E+03  1.07947E+04 -2.54378E+03
  2.24971E+04  1.85841E+03  2.25450E+04  1.81136E+04  1.59396E+04  3.77306E+04 -2.36638E+03  4.28576E+04
 -2.42104E+04  3.39505E+04 -3.97447E+04  1.72952E+04 -4.25164E+04 -4.01303E+03 -3.37663E+04 -2.47017E+04
 -1.41706E+04 -3.47954E+04  1.28421E+04 -3.05106E+04  2.57590E+04 -1.36384E+04  2.23689E+04  6.44429E+03
  7.62623E+03  1.95259E+04 -1.01201E+04  1.62890E+04 -1.87613E+04  2.49113E+03 -1.44808E+04 -1.04320E+04
 -1.37989E+03 -1.81336E+04  1.06923E+04 -1.38944E+04  1.34963E+04 -1.60885E+03  4.12049E+03  8.48255E+03
 -9.09022E+03  3.94103E+03 -6.68834E+03 -5.30385E+03 -2.97863E+01 -1.74236E+04  1.09552E+04 -1.84686E+04
  2.28596E+04 -8.98528E+03  2.47225E+04  3.39965E+03  2.19185E+04  1.66857E+04  1.08563E+04  2.51162E+04
 -4.10700E+03  3.01235E+04 -1.97962E+04  1.87970E+04 -2.28848E+04  4.18820E+03 -1.45344E+04 -3.89088E+03
 -6.29203E+03 -7.66651E+03  5.09882E+02  4.74822E+02 -2.12822E+03  4.19507E+03 -7.20633E+03  5.14862E+03
 -1.36153E+04 -1.53869E+03 -1.52914E+04 -1.11565E+04 -4.18420E+03 -1.80374E+04  6.64872E+03 -1.53118E+04
  1.22207E+04 -5.40609E+03  9.14798E+03  3.21537E+03 -4.45345E+02  5.40482E+03 -6.32347E+03 -1.08790E+02
 -7.68231E+03 -1.15761E+04 -1.29849E+03 -1.64269E+04  9.34259E+03 -1.46645E+04  1.86908E+04 -9.19394E+03
  2.14499E+04  3.11179E+03  1.61584E+04  1.31183E+04  2.61125E+03  1.69593E+04 -1.01140E+04  1.39090E+04
 -1.20719E+04  3.67345E+03 -6.99138E+03 -3.83107E+03  2.55849E+03 -3.49766E+03  7.40566E+03 -1.58448E+03
  7.39960E+03  6.40464E+03  9.39107E+01  1.30407E+04 -8.30860E+03  1.10215E+04 -1.32378E+04  1.91069E+03
 -9.51166E+03 -7.14954E+03  6.48879E+02 -1.27165E+04  8.50017E+03 -7.27901E+03  8.58635E+03  2.20502E+03
  1.65250E+03  8.15802E+03 -5.54380E+03  9.89449E+03 -1.19977E+04  4.92758E+03 -1.26422E+04 -6.76938E+03
 -7.68362E+03 -1.46561E+04  3.56839E+03 -1.72992E+04  1.45945E+04 -9.82026E+03  1.52181E+04  3.47646E+03
  8.98237E+03  1.17927E+04 -6.77880E+02  1.56912E+04 -1.11161E+04  7.75137E+03 -1.08786E+04  4.17930E+02
 -1.11615E+04 -1.02012E+04 -3.06323E+03 -1.05522E+04  5.88468E+03 -8.35106E+03  5.79115E+03 -2.73854E+03
  5.32492E+03 -6.54064E+02 -3.55699E+02 -5.76720E-01 -8.69967E+02 -2.81958E+03  1.51196E+03 -6.62342E+03
  9.43399E+03 -3.79727E+03  1.53308E+04  3.86842E+02  1.35480E+04  1.08882E+04  1.05672E+04  1.86567E+04
 -3.81281E+03  2.13796E+04 -1.90563E+04  1.55430E+04 -2.31222E+04  3.46422E+03 -1.91252E+04 -7.96817E+03
 -1.01484E+04 -1.46091E+04 -1.06623E+03 -1.25266E+04  5.83097E+03 -6.66092E+03  4.58872E+03 -4.14495E+03
  3.09674E+03 -4.51685E+03  2.51154E+03 -4.46563E+03  7.43799E+03 -2.98965E+03  7.09619E+03 -1.39190E+03
  1.01982E+04  2.45063E+03  5.30437E+03  1.00007E+04 -2.95545E+03  1.10841E+04 -1.08631E+04  7.66064E+03
 -1.32701E+04 -1.25737E+03 -8.28535E+03 -1.05328E+04 -1.24655E+03 -1.22777E+04  7.34321E+03 -1.52788E+04
  1.72357E+04 -7.99186E+03  1.60988E+04  2.81585E+03  1.18723E+04  1.19523E+04  1.73564E+03  1.46258E+04
 -7.40114E+03  1.37336E+04 -9.34900E+03  2.98459E+03 -6.28685E+03 -2.20274E+03 -2.77236E+03 -1.09314E+03
 -9.76437E+02  5.00036E+02 -2.81669E+03  2.79306E+03 -7.19739E+03  2.48131E+03 -1.05930E+04 -1.61992E+03
 -7.47042E+03 -9.90359E+03 -6.97851E+02 -1.25861E+04  6.91910E+03 -1.30355E+04  1.38198E+04 -4.11670E+03
  1.26653E+04  6.69631E+03  5.75888E+03  1.15249E+04 -2.13550E+03  1.53028E+04 -9.96218E+03  8.47037E+03
 -1.21596E+04 -9.89103E+02 -9.30929E+03 -7.27135E+03 -2.29294E+03 -1.16642E+04  5.26834E+03 -9.57960E+03
  8.38093E+03 -3.25011E+03  6.64782E+03  2.45648E+03  2.58547E+03  4.43352E+03  2.72569E+03  3.10043E+03
  2.40821E+03  1.01475E+03  2.36201E+03  1.70349E+03  4.18282E+03  4.71687E+03  4.51272E+03  7.19343E+03
 -3.68398E+03  1.08984E+04 -8.38432E+03  9.09933E+03 -1.38498E+04  2.73922E+03 -1.39142E+04 -5.14295E+03
 -5.73731E+03 -1.32378E+04  2.08922E+03 -1.37223E+04  6.08930E+03 -8.95557E+03  1.05059E+04 -2.11384E+03
  9.05043E+03  4.76405E+03  2.13100E+03  7.18603E+03 -4.55930E+03  5.32495E+03 -5.14799E+03 -1.13188E+03
 -2.49104E+03 -5.77929E+03  3.26412E+03 -6.52362E+03  5.88159E+03 -1.13420E+03  4.30633E+03  1.90682E+03
  2.91035E+03  2.78459E+03  1.69899E+03  2.78530E+03 -9.04975E+02  2.93864E+03  1.00965E+03 -1.17031E+03
  2.10452E+03 -1.20899E+03  5.03007E+03  2.79106E+03  3.62731E+03  8.19119E+03 -3.88394E+02  9.57898E+03
 -5.75019E+03  5.12481E+03 -9.74247E+03  1.94772E+03 -8.04696E+03 -1.64326E+03 -3.08145E+03 -5.54786E+03
  1.18194E+03 -4.38444E+03  2.99979E+03 -3.26933E+03  2.74028E+03  1.38223E+03 -2.05623E+03  4.38567E+03
 -5.10749E+03  1.73168E+03 -7.27757E+03 -3.04386E+03 -1.46289E+03 -8.58961E+03  2.17449E+03 -6.76362E+03
  4.55970E+03 -5.57787E+03  4.69651E+03  3.79911E+02  4.73485E+03  2.03134E+03  1.34886E+02  3.88440E+03
 -2.00376E+03  8.59672E+02 -2.66230E+03 -2.00905E+03  1.34776E+03 -5.18461E+03  6.82568E+03 -6.05916E+03
  7.64751E+03  7.94228E+02  6.01830E+03  5.58021E+03  2.56894E+03  9.06036E+03 -3.32589E+03  8.27723E+03
 -6.31641E+03  3.81498E+03 -8.89967E+03 -1.23563E+03 -3.48003E+03 -5.29763E+03  1.52854E+03 -3.05349E+03
  5.56721E+03 -2.60872E+03  2.55533E+03  2.52458E+03  1.20216E+03  7.04496E+03 -8.06842E+02  4.11485E+03
 -9.58653E+02  2.05820E+03 -1.71842E+03  1.71832E+03 -1.59952E+03 -1.89932E+02 -5.44391E+02  2.54287E+03
 -3.11924E+03  2.80301E+03 -7.29679E+03  3.64322E+03 -8.70292E+03  7.48817E+02 -8.04548E+03 -5.03727E+03
 -5.05205E+03 -1.22018E+04  2.28968E+03 -1.25319E+04  7.24910E+03 -9.71269E+03  1.24515E+04 -5.41042E+03
  1.11426E+04  2.82712E+03  6.31748E+03  7.92816E+03 -7.90348E+02  8.47703E+03 -3.69089E+03  7.70837E+03
 -4.21165E+03  2.76136E+03 -2.13072E+03  3.85960E+02 -8.15983E+02 -8.65307E+02 -2.21091E+03  8.62385E+02
 -2.87735E+03  1.12757E+03 -1.77937E+03 -1.63006E+03 -2.33318E+02 -2.73388E+03 -4.01392E+02 -3.12371E+03
  4.28742E+03 -3.28721E+03  6.58460E+03 -3.89494E+02  4.47621E+03  3.06641E+03  1.76242E+03  8.41922E+03
 -4.81155E+03  9.82328E+03 -1.03541E+04  4.30029E+03 -1.08305E+04 -6.14571E+02 -6.85538E+03 -6.55982E+03
 -2.96725E+03 -9.03159E+03  3.03211E+03 -8.77082E+03  6.54788E+03 -5.37675E+03  6.16937E+03 -6.56985E+02
  2.94734E+03  2.90089E+03  8.92091E+01  2.03111E+03 -7.08238E+02  1.41397E+02  1.59448E+03 -2.38678E+03
  3.56501E+03 -2.11780E+03  2.95616E+03 -2.08665E+02  1.74282E+03  3.69585E+03  6.74857E+02  5.23642E+03
 -3.92719E+03  4.95323E+03 -5.18440E+03  8.41019E+02 -5.11414E+03 -3.63055E+03 -4.48212E+02 -7.31682E+03
  4.42478E+03 -7.25564E+03  6.05775E+03 -1.52281E+03  6.89311E+03  4.53551E+02  4.13907E+03  7.01690E+03
  1.66154E+03  6.44518E+03 -1.53527E+03  5.69600E+03 -2.37914E+03  3.09223E+03 -3.76569E+03 -5.82430E+02
 -2.00620E+03 -8.96630E+01 -6.82379E+02  1.71339E+01 -3.24296E+03  2.20590E+03 -4.73391E+03 -1.00193E+03
 -4.95441E+03 -2.49616E+03 -2.39975E+03 -6.20239E+03  3.86325E+03 -7.19009E+03  5.09462E+03 -3.21449E+03
  6.28672E+03  5.54882E+02  2.28800E+03  3.57604E+03  1.07464E+03  5.85992E+03 -4.37246E+03  4.46986E+03
