 $NMID ID='MM_0lb_SNR200_9hz_g40_46.RAW', FMTDAT='(8E13.5)'
 TRAMP=1., VOLUME=1. $END
  3.09978E+05  4.75122E+02  3.37244E+05  2.50737E+05  8.36211E+04  3.38720E+05 -1.33484E+05  2.50075E+05
 -1.89488E+05  8.42309E+04 -1.12847E+05 -3.14508E+04  1.05081E+03 -5.13863E+04  5.34297E+04 -1.28783E+03
  3.52591E+04  5.35505E+04 -1.53282E+04  7.63240E+04 -6.22621E+04  6.53802E+04 -8.44591E+04  3.12804E+04
 -8.34743E+04 -1.08244E+04 -5.51758E+04 -5.22220E+04 -1.49393E+04 -6.93030E+04  2.75749E+04 -4.77559E+04
  4.22920E+04  4.05147E+03  1.54030E+04  4.92040E+04 -3.45961E+04  4.76727E+04 -6.97460E+04  3.05513E+02
 -5.49091E+04 -5.84735E+04 -6.43641E+03 -7.88634E+04  3.45524E+04 -5.59963E+04  4.88726E+04 -1.77817E+04
  4.53707E+04  1.07993E+04  3.34362E+04  2.69944E+04  1.72395E+04  3.08074E+04 -4.76619E+03  2.80265E+04
 -2.19296E+04  1.05902E+04 -1.74750E+04 -4.70006E+03  6.09072E+03 -8.11939E+03  2.25302E+04  1.30182E+04
  7.94610E+03  3.70147E+04 -3.40220E+04  3.58702E+04 -6.47813E+04  2.66034E+03 -5.90114E+04 -4.41854E+04
 -1.29360E+04 -6.47338E+04  4.07330E+04 -4.87193E+04  6.00808E+04 -2.95354E+03  3.63341E+04  3.44422E+04
 -5.38227E+03  3.82685E+04 -3.27857E+04  1.79411E+04 -3.29130E+04 -1.27932E+03 -1.75117E+04 -1.11395E+04
 -8.05280E+03 -1.49126E+04 -1.24640E+03 -1.95351E+04  8.75970E+03 -2.28437E+04  1.59419E+04 -1.21659E+04
  1.13466E+04  7.16947E+03 -8.94019E+03  1.25053E+04 -2.31796E+04 -6.19505E+03 -8.53427E+03 -3.72736E+04
  2.43518E+04 -4.68754E+04  5.02288E+04 -2.16307E+04  4.72956E+04  2.02228E+04  1.65325E+04  4.48960E+04
 -1.70253E+04  3.60030E+04 -2.76552E+04  2.38816E+03 -1.11616E+04 -2.94578E+04  2.24348E+04 -3.69461E+04
  4.39571E+04 -1.08578E+04  3.91585E+04  2.39968E+04  2.08291E+04  5.01836E+04 -7.06333E+03  5.45733E+04
 -3.42908E+04  3.70290E+04 -4.64177E+04  1.11544E+04 -4.53800E+04 -1.78947E+04 -2.62272E+04 -4.14833E+04
  8.63671E+03 -4.13265E+04  3.19881E+04 -1.71375E+04  3.19473E+04  1.29490E+04  4.30771E+03  2.11296E+04
 -1.42242E+04  1.04343E+04 -8.90945E+03 -7.19037E+03  7.11012E+03 -1.19618E+04  1.78915E+04  5.91685E+03
  1.48856E+04  2.30135E+04 -5.98847E+03  2.63186E+04 -2.26314E+04  1.21529E+04 -3.03739E+04 -3.29604E+03
 -2.45451E+04 -1.86356E+04 -9.65349E+03 -2.41112E+04  4.56640E+03 -2.40188E+04  2.03014E+04 -2.24890E+04
  3.07412E+04 -1.47409E+04  3.74293E+04  5.56739E+03  2.69537E+04  2.40927E+04  4.76409E+03  4.09124E+04
 -1.89538E+04  3.35629E+04 -3.13364E+04  1.29953E+04 -2.22819E+04 -1.00970E+04 -6.02461E+03 -1.27933E+04
  1.01372E+03 -3.69591E+03 -6.56667E+03  8.26664E+03 -1.93245E+04  5.56330E+03 -1.99029E+04 -8.33957E+03
 -1.00443E+04 -2.28967E+04  6.69445E+03 -2.76701E+04  1.82228E+04 -1.98088E+04  2.14970E+04 -1.30100E+03
  1.47887E+04  1.53710E+04 -1.16330E+03  2.18750E+04 -1.64106E+04  1.29607E+04 -2.30296E+04 -5.63585E+03
 -1.78493E+04 -1.91443E+04 -2.55912E+03 -2.78721E+04  1.14932E+04 -2.25664E+04  2.07154E+04 -1.12858E+04
  2.30759E+04  2.61403E+02  1.46001E+04  5.24571E+03  8.13056E+03  2.16579E+03  1.25918E+04 -1.36881E+03
  2.01047E+04  3.74124E+03  2.38264E+04  1.74027E+04  1.66980E+04  3.52634E+04 -2.44777E+03  4.28538E+04
 -2.57635E+04  3.66129E+04 -3.96514E+04  1.82644E+04 -4.21199E+04 -3.98719E+03 -3.35694E+04 -2.52921E+04
 -1.43967E+04 -3.44663E+04  1.21552E+04 -3.18207E+04  2.77338E+04 -1.47671E+04  2.36663E+04  7.48384E+03
  9.14491E+03  1.76599E+04 -1.13149E+04  1.56239E+04 -2.00756E+04  1.50111E+03 -1.57574E+04 -1.31081E+04
 -1.14459E+02 -1.82745E+04  9.75885E+03 -1.44312E+04  1.09744E+04 -5.55162E+02  2.96046E+03  8.08238E+03
 -9.22045E+03  3.94026E+03 -7.36097E+03 -7.99193E+03 -3.28087E+03 -1.65234E+04  1.13869E+04 -2.03956E+04
  2.11411E+04 -1.00311E+04  2.49440E+04  3.63495E+03  2.13545E+04  1.89953E+04  1.07340E+04  2.74271E+04
 -4.61079E+03  2.90142E+04 -2.07926E+04  2.00980E+04 -2.21969E+04  3.63176E+03 -1.51890E+04 -4.57919E+03
 -7.06025E+03 -6.33629E+03 -1.70582E+03 -2.21640E+02 -3.59582E+03  4.07010E+03 -8.30234E+03  6.30893E+03
 -1.40842E+04 -1.13315E+03 -1.46094E+04 -1.04538E+04 -4.93452E+03 -1.86582E+04  8.27307E+03 -1.60650E+04
  1.18632E+04 -5.07360E+03  8.46820E+03  3.88588E+03  6.39113E+02  5.08752E+03 -6.81535E+03 -1.22821E+03
 -8.05406E+03 -9.75427E+03 -2.19375E+03 -1.56970E+04  8.10725E+03 -1.52813E+04  1.85624E+04 -8.36159E+03
  2.21716E+04  1.80513E+03  1.63694E+04  1.40090E+04  3.16873E+03  1.94275E+04 -9.15550E+03  1.43292E+04
 -1.22161E+04  5.73957E+03 -6.23565E+03 -4.23549E+03  1.12838E+03 -3.55916E+03  7.00833E+03 -1.68841E+03
  7.17999E+03  7.00297E+03 -9.98664E+02  1.26371E+04 -8.75634E+03  1.16255E+04 -1.43140E+04  2.53752E+03
 -9.12570E+03 -8.29629E+03  1.03365E+03 -1.29720E+04  8.37489E+03 -6.42626E+03  9.93120E+03  2.80133E+03
  5.05476E+02  8.96934E+03 -8.93896E+03  1.01261E+04 -1.32386E+04  3.30467E+03 -1.27896E+04 -4.31369E+03
 -8.44337E+03 -1.51232E+04  4.30265E+03 -1.68588E+04  1.30059E+04 -1.06699E+04  1.59669E+04  3.90017E+03
  8.95511E+03  1.31622E+04 -2.11904E+03  1.52746E+04 -1.08188E+04  7.54873E+03 -1.33079E+04 -1.52654E+03
 -9.70535E+03 -1.10619E+04 -8.44013E+02 -1.02523E+04  6.34232E+03 -9.54023E+03  6.62765E+03 -4.39630E+03
  5.11322E+03  1.33663E+03 -1.66491E+03  1.86865E+03 -1.77732E+03 -2.02840E+03  6.87132E+02 -6.91211E+03
  9.67577E+03 -5.52202E+03  1.52847E+04  2.49790E+03  1.47345E+04  1.23080E+04  9.59603E+03  1.88443E+04
 -3.97611E+03  2.23890E+04 -1.93396E+04  1.63703E+04 -2.31491E+04  3.15864E+03 -1.98533E+04 -8.32883E+03
 -1.10043E+04 -1.68313E+04 -1.22451E+03 -1.27502E+04  6.40347E+03 -7.83878E+03  4.35338E+03 -5.33023E+03
  3.74530E+03 -3.49152E+03  4.19974E+03 -3.11717E+03  5.27415E+03 -3.15708E+03  6.59903E+03 -5.47742E+02
  9.64738E+03  1.16251E+03  5.33830E+03  9.12525E+03 -2.37749E+03  9.55213E+03 -1.26142E+04  7.87476E+03
 -1.40121E+04 -1.83261E+03 -8.37727E+03 -1.02091E+04 -7.91962E+02 -1.58300E+04  6.95645E+03 -1.54393E+04
  1.62576E+04 -8.57079E+03  1.92587E+04  2.91172E+03  1.31365E+04  1.24959E+04  4.80185E+02  1.65568E+04
 -8.42170E+03  1.31078E+04 -9.83378E+03  4.43688E+03 -7.87995E+03 -2.27701E+03 -2.35000E+03 -1.50239E+03
 -1.38573E+03 -1.22010E+03 -2.15331E+03  1.93835E+03 -4.95471E+03  1.55975E+03 -9.81880E+03 -1.53392E+03
 -6.25954E+03 -9.40869E+03 -2.66305E+01 -1.27270E+04  8.29713E+03 -1.24766E+04  1.20472E+04 -3.06253E+03
  1.34767E+04  6.92193E+03  7.18448E+03  1.17119E+04 -1.83698E+03  1.50952E+04 -1.01038E+04  8.01491E+03
 -1.40099E+04  1.18728E+03 -1.04580E+04 -8.25767E+03 -1.61378E+03 -1.15114E+04  4.88255E+03 -8.81269E+03
  9.70482E+03 -3.32339E+03  6.51447E+03  2.71872E+03  3.94358E+03  3.31864E+03  1.67656E+03  2.82133E+02
  1.93779E+03  1.26962E+03  4.66864E+03  1.50020E+03  5.04445E+03  5.13890E+03  4.41785E+03  6.94560E+03
 -2.66006E+03  9.47990E+03 -9.89636E+03  1.14708E+04 -1.51295E+04  2.26276E+03 -1.35753E+04 -6.39739E+03
 -6.99173E+03 -1.47200E+04  1.29754E+03 -1.51029E+04  8.10776E+03 -8.96939E+03  1.07984E+04 -2.93261E+03
  8.78384E+03  4.34473E+03  4.30682E+03  7.79436E+03 -5.37582E+03  5.22561E+03 -6.22755E+03 -5.90245E+02
 -4.14450E+03 -5.40718E+03  3.17034E+03 -7.59704E+03  6.77820E+03 -3.79416E+03  5.66127E+03  1.06294E+03
  3.79580E+03  3.14319E+03  7.51248E+02  1.07896E+03 -1.53078E+03  2.56519E+03  2.67630E+03  3.12617E+02
  3.66436E+03  6.87951E+02  5.40726E+03  3.06666E+03  2.60099E+03  7.70976E+03 -1.39158E+03  1.05343E+04
 -7.77267E+03  6.30753E+03 -8.38569E+03  3.86144E+03 -8.52006E+03 -3.46361E+03 -4.24997E+03 -5.19646E+03
  4.04357E+02 -6.53430E+03  3.81565E+03 -2.57525E+03  2.33971E+03  3.19040E+03  4.54734E+02  4.06729E+03
 -6.97903E+03  3.23517E+03 -6.86411E+03 -4.77985E+03 -4.37924E+03 -8.60431E+03  3.06100E+02 -7.12799E+03
  2.45681E+03 -4.34280E+03  6.89628E+03 -1.79697E+02  3.58758E+03  2.72773E+03 -1.89063E+02  4.62421E+03
 -2.16336E+03  2.51014E+03 -3.28192E+03 -3.33619E+03  1.12031E+03 -5.81852E+03  7.21370E+03 -5.79027E+03
  1.00256E+04  1.42796E+03  8.40436E+03  5.33584E+03  2.06042E+03  8.17990E+03 -3.39125E+03  8.86027E+03
 -7.61272E+03  4.18802E+03 -7.05347E+03 -9.70788E+01 -4.62429E+03 -7.00851E+03  1.97728E+03 -6.44754E+03
  6.13558E+03 -3.42920E+03  5.88024E+03  2.64599E+03  2.62644E+03  5.84121E+03 -4.19758E+02  5.57965E+03
 -2.00583E+03  3.05650E+03 -1.85406E+03  3.23524E+02 -4.00339E+02  1.21331E+03 -7.17192E+02  7.82031E+02
 -1.44536E+03  4.61573E+03 -6.96784E+03  3.77443E+03 -1.03628E+04  6.02560E+01 -1.05666E+04 -7.46893E+03
 -5.18924E+03 -1.19214E+04  1.26148E+03 -1.42634E+04  9.07481E+03 -1.11717E+04  1.37067E+04 -4.24772E+03
  1.26476E+04  2.70052E+03  8.36491E+03  8.01900E+03  9.08441E+01  1.09618E+04 -3.53043E+03  6.56050E+03
 -5.67562E+03  1.46486E+03 -5.26024E+03 -1.99493E+03 -1.30532E+02 -7.33071E+02 -8.06353E+02  6.66728E+02
 -2.31467E+03  1.31488E+03 -2.94396E+03 -1.95684E+02 -1.31438E+03 -1.40945E+03  1.41067E+03 -2.77298E+03
  4.14181E+03 -2.77267E+03  4.80040E+03  1.64564E+02  5.64902E+03  6.52258E+03  1.79751E+03  1.09796E+04
 -5.87313E+03  1.29354E+04 -8.54229E+03  5.31709E+03 -1.33934E+04 -1.49435E+03 -9.39709E+03 -6.13881E+03
 -3.24762E+03 -9.59134E+03  3.25724E+03 -8.64572E+03  6.56102E+03 -7.25982E+03  6.11695E+03  2.34533E+03
  4.29997E+03  2.56325E+03 -2.71684E+02  3.17259E+03 -2.19423E+03 -5.90383E+01  4.97212E+02 -1.11734E+03
  2.51297E+03 -2.41616E+03  3.12633E+03  1.28710E+03  3.42720E+03  3.55828E+03  1.74381E+03  4.49348E+03
 -6.47004E+03  5.51542E+03 -6.04698E+03  1.05539E+03 -5.81772E+03 -5.66163E+03 -1.54934E+03 -7.89263E+03
  5.79259E+03 -5.32037E+03  7.00398E+03 -2.32749E+03  8.17864E+03  1.93578E+03  5.72736E+03  6.20774E+03
  6.82223E+02  5.85095E+03 -2.58577E+03  4.54950E+03 -4.03038E+03  2.08901E+03 -4.56382E+03  1.62517E+03
 -2.06833E+03  4.18649E+01 -3.16725E+03 -3.77998E+02 -2.06697E+03  8.46628E+02 -5.98955E+03 -4.93504E+02
 -5.27441E+03 -2.88660E+03 -3.79388E+03 -7.87992E+03  1.93549E+03 -7.95240E+03  6.46926E+03 -2.79364E+03
  7.47097E+03  5.36850E+02  2.03316E+03  4.19994E+03 -1.35761E+03  6.45318E+03 -6.93228E+03  4.09690E+03
