 $NMID ID='MM_0lb_SNR200_10hz_g40_24.RAW', FMTDAT='(8E13.5)'
 TRAMP=1., VOLUME=1. $END
  3.10485E+05  3.58817E+03  3.39170E+05  2.50217E+05  8.42806E+04  3.38417E+05 -1.31654E+05  2.50573E+05
 -1.92196E+05  8.10317E+04 -1.12645E+05 -3.23550E+04  2.21212E+02 -5.17893E+04  5.35122E+04 -1.82394E+03
  3.56899E+04  5.31506E+04 -1.60211E+04  7.67824E+04 -6.07912E+04  6.41645E+04 -8.35036E+04  3.19924E+04
 -8.19083E+04 -1.16538E+04 -5.70815E+04 -5.14585E+04 -1.40768E+04 -7.07264E+04  2.67916E+04 -4.64057E+04
  4.05552E+04  4.81670E+03  1.53498E+04  4.73124E+04 -3.53845E+04  4.76213E+04 -6.87481E+04 -3.54992E+02
 -5.38987E+04 -5.72633E+04 -7.85310E+03 -7.80727E+04  3.47628E+04 -5.65522E+04  4.90698E+04 -1.78250E+04
  4.47756E+04  1.13012E+04  3.15962E+04  2.74333E+04  1.52054E+04  2.83219E+04 -5.82641E+03  2.72688E+04
 -2.16618E+04  1.21986E+04 -1.80063E+04 -5.44306E+03  7.65309E+03 -7.44155E+03  2.17712E+04  1.33422E+04
  6.35493E+03  3.65022E+04 -3.22214E+04  3.65565E+04 -6.43835E+04  3.06214E+03 -5.77285E+04 -4.35137E+04
 -1.43059E+04 -6.50956E+04  3.94675E+04 -4.67448E+04  6.10480E+04 -2.00646E+03  3.53412E+04  3.29823E+04
 -6.10459E+03  3.92340E+04 -2.94156E+04  1.77701E+04 -3.18752E+04 -5.29552E+03 -1.75406E+04 -1.20147E+04
 -8.90582E+03 -1.46034E+04 -2.79695E+02 -1.83522E+04  8.38736E+03 -2.29685E+04  1.60111E+04 -1.38226E+04
  9.93890E+03  5.13860E+03 -8.96199E+03  1.40610E+04 -2.29061E+04 -5.06483E+03 -9.78483E+03 -3.55113E+04
  2.44350E+04 -4.39951E+04  5.12734E+04 -1.89658E+04  4.63889E+04  2.01642E+04  1.57599E+04  4.56639E+04
 -1.72154E+04  3.40760E+04 -2.63423E+04  1.66547E+03 -9.71447E+03 -2.85978E+04  1.98348E+04 -3.62676E+04
  4.31426E+04 -1.03536E+04  3.99513E+04  2.64367E+04  1.99475E+04  5.07910E+04 -7.43991E+03  5.38512E+04
 -3.36688E+04  3.56869E+04 -4.46421E+04  1.12662E+04 -4.51422E+04 -1.70471E+04 -2.44241E+04 -4.02240E+04
  8.61859E+03 -3.91280E+04  3.27277E+04 -1.63437E+04  3.24020E+04  1.07917E+04  4.77960E+03  1.96544E+04
 -1.22331E+04  1.06694E+04 -1.02613E+04 -7.77851E+03  6.72707E+03 -1.10717E+04  1.87538E+04  5.23601E+03
  1.51267E+04  2.32898E+04 -5.21792E+03  2.59191E+04 -2.43417E+04  1.19129E+04 -2.96406E+04 -3.60554E+03
 -2.27946E+04 -1.87180E+04 -1.09123E+04 -2.34440E+04  2.93394E+03 -2.30861E+04  1.86963E+04 -2.06212E+04
  2.92576E+04 -1.42055E+04  3.64817E+04  4.53096E+03  2.63191E+04  2.20270E+04  4.77967E+03  4.00906E+04
 -1.79339E+04  3.21626E+04 -3.07103E+04  1.15679E+04 -2.25647E+04 -9.84720E+03 -4.49471E+03 -1.32075E+04
  4.06381E+02 -1.23602E+03 -8.33333E+03  8.25731E+03 -1.84026E+04  5.06516E+03 -1.84205E+04 -8.89917E+03
 -1.11220E+04 -2.19507E+04  4.75139E+03 -2.69645E+04  1.73651E+04 -1.85614E+04  2.16848E+04 -1.32634E+03
  1.32588E+04  1.43844E+04 -8.49349E+02  2.20090E+04 -1.25742E+04  1.20404E+04 -2.02400E+04 -3.89279E+03
 -1.55241E+04 -1.96899E+04 -2.60365E+03 -2.60000E+04  1.12877E+04 -2.22764E+04  2.22689E+04 -1.06058E+04
  2.11679E+04 -1.80227E+02  1.48487E+04  5.05763E+03  8.81979E+03  1.25239E+03  1.14968E+04 -2.11585E+03
  1.98432E+04  3.87111E+03  2.19000E+04  1.59736E+04  1.60860E+04  3.56118E+04 -3.42097E+03  3.90462E+04
 -2.28248E+04  3.29958E+04 -3.71972E+04  1.74056E+04 -4.13628E+04 -3.99526E+03 -3.18752E+04 -2.29373E+04
 -1.29869E+04 -3.38316E+04  1.17517E+04 -3.07505E+04  2.56381E+04 -1.43025E+04  2.23472E+04  6.93762E+03
  6.71233E+03  1.70544E+04 -1.15242E+04  1.48328E+04 -1.80181E+04  1.60401E+03 -1.40197E+04 -1.27094E+04
 -7.41045E+02 -1.93747E+04  9.02853E+03 -1.39301E+04  1.28671E+04  2.34529E+02  2.74382E+03  7.60225E+03
 -8.01464E+03  3.52595E+03 -8.81063E+03 -6.02291E+03 -5.96019E+02 -1.67916E+04  1.26522E+04 -1.88838E+04
  2.03214E+04 -1.01558E+04  2.30884E+04  3.68464E+03  2.05819E+04  1.70621E+04  1.06567E+04  2.62929E+04
 -5.57364E+03  2.77752E+04 -1.78090E+04  1.72314E+04 -2.05961E+04  5.30253E+03 -1.34674E+04 -4.75199E+03
 -6.63463E+03 -5.57710E+03 -1.65666E+02 -2.56226E+02 -2.41745E+03  5.04580E+03 -8.11971E+03  4.51513E+03
 -1.31111E+04 -1.02807E+03 -1.18795E+04 -1.07764E+04 -5.30823E+03 -1.63612E+04  5.19001E+03 -1.41793E+04
  1.25957E+04 -6.09504E+03  7.95193E+03  3.85655E+03 -1.49929E+02  5.58979E+03 -7.41108E+03 -2.04271E+02
 -6.15042E+03 -9.79478E+03 -4.38331E+02 -1.35423E+04  9.25440E+03 -1.37971E+04  1.85411E+04 -7.94047E+03
  2.16609E+04  1.21445E+03  1.46028E+04  1.19456E+04  3.34721E+03  1.77196E+04 -1.00598E+04  1.38403E+04
 -1.28649E+04  5.48970E+03 -7.66939E+03 -2.14253E+03  1.69127E+03 -4.66926E+03  7.23894E+03 -1.49353E+03
  7.53926E+03  5.67245E+03  6.36396E+02  1.05985E+04 -9.08172E+03  1.19603E+04 -1.41022E+04  2.50770E+03
 -8.47563E+03 -6.88572E+03  7.34879E+02 -1.08141E+04  7.22910E+03 -5.84431E+03  8.61074E+03  3.35732E+03
  1.54999E+03  8.64539E+03 -7.78910E+03  9.50705E+03 -1.26368E+04  3.79168E+03 -1.11785E+04 -4.44841E+03
 -7.02089E+03 -1.34684E+04  3.23867E+03 -1.67329E+04  1.23836E+04 -9.10264E+03  1.42235E+04  2.22433E+03
  9.18178E+03  1.25520E+04  3.02680E+02  1.32667E+04 -9.29418E+03  7.30537E+03 -1.10182E+04 -1.58619E+03
 -9.96706E+03 -9.60247E+03 -4.50761E+02 -1.05367E+04  6.05973E+03 -8.32066E+03  7.35192E+03 -5.53240E+03
  4.79971E+03  1.70056E+03 -1.10609E+03  1.98014E+03 -8.83581E+02 -2.47167E+03  1.81550E+03 -5.28748E+03
  1.11254E+04 -3.96733E+03  1.36640E+04  9.94316E+02  1.26061E+04  8.68436E+03  1.01731E+04  1.86073E+04
 -4.65301E+03  1.97645E+04 -1.68161E+04  1.41499E+04 -2.21402E+04  2.63884E+03 -1.72290E+04 -8.28168E+03
 -8.52631E+03 -1.37485E+04  1.16139E+02 -1.25316E+04  4.46830E+03 -6.06022E+03  4.98608E+03 -3.98631E+03
  4.03889E+03 -3.37443E+03  4.44725E+03 -3.71940E+03  5.19944E+03 -2.83869E+03  8.07933E+03 -2.39566E+03
  1.03247E+04  1.64918E+03  4.57901E+03  7.76693E+03 -2.10284E+03  9.70784E+03 -1.18695E+04  6.77346E+03
 -1.03628E+04 -2.28169E+03 -7.37107E+03 -9.59276E+03 -2.47090E+03 -1.41533E+04  8.55813E+03 -1.40586E+04
  1.30776E+04 -7.28180E+03  1.66770E+04  2.93170E+03  1.17546E+04  1.17949E+04  2.38573E+03  1.50033E+04
 -5.59385E+03  1.26757E+04 -8.97902E+03  5.90448E+03 -6.43737E+03 -2.17359E+03 -2.54549E+03 -2.04480E+03
 -1.09421E+03 -1.62033E+03 -1.46361E+03  1.92257E+03 -4.90089E+03  9.16177E+02 -9.67190E+03 -5.39779E+02
 -5.83038E+03 -8.23929E+03 -8.34384E+02 -1.18859E+04  7.06832E+03 -1.11584E+04  1.22147E+04 -2.80900E+03
  1.22242E+04  6.11839E+03  7.03127E+03  1.10638E+04 -2.55321E+03  1.17013E+04 -8.18886E+03  7.27248E+03
 -1.18475E+04  2.04842E+03 -8.56099E+03 -7.98143E+03 -3.45171E+02 -9.79833E+03  6.95243E+03 -7.31399E+03
  7.63205E+03 -1.81356E+03  5.72839E+03  5.69384E+02  1.89702E+03  5.12482E+03  8.10649E+02  1.73294E+03
  2.94468E+03  1.46729E+03  3.00122E+03  2.05081E+03  3.26659E+03  4.03920E+03  3.21409E+03  5.69013E+03
 -2.80417E+03  9.07430E+03 -8.72660E+03  9.26310E+03 -1.18102E+04  2.56921E+03 -1.40576E+04 -6.07819E+03
 -6.13649E+03 -1.02301E+04  2.30944E+03 -1.38571E+04  6.42628E+03 -8.26328E+03  9.60915E+03 -3.08483E+03
  8.92978E+03  5.20269E+03  2.23486E+03  7.46636E+03 -4.29800E+03  6.34224E+03 -4.94112E+03 -6.39682E+02
 -2.94737E+03 -5.31864E+03  2.19097E+03 -6.04910E+03  4.94524E+03 -2.36027E+03  4.77280E+03  1.46320E+03
  3.64041E+03  2.73146E+03  2.10195E+03  2.24881E+03  4.63911E+02  2.71424E+03  1.42492E+03 -2.65706E+02
  2.89905E+03 -9.57008E+02  5.96121E+03  1.64697E+03  3.65982E+03  6.87945E+03 -2.17921E+01  8.57159E+03
 -6.10886E+03  7.07701E+03 -9.54189E+03  1.57646E+03 -6.37852E+03 -3.16171E+03 -7.46843E+02 -5.33528E+03
  5.81494E+02 -3.47789E+03  3.07923E+03 -2.36654E+03  3.96013E+03  1.69417E+03 -1.95303E+03  3.58095E+03
 -4.92089E+03  3.57276E+03 -4.63902E+03 -2.70400E+03 -3.31464E+03 -7.03628E+03  1.05312E+03 -6.97324E+03
  3.25646E+03 -3.52004E+03  5.24257E+03 -3.31646E+02  5.47368E+03  2.85899E+03  8.94383E+02  4.52666E+03
 -3.18270E+03  3.02929E+02 -2.73229E+03 -2.36850E+03  1.63469E+03 -4.21556E+03  5.28037E+03 -5.13328E+03
  6.09583E+03  6.52946E+02  6.61161E+03  5.90462E+03  2.43643E+03  8.49556E+03 -2.28899E+03  7.63725E+03
 -7.36438E+03  3.11133E+03 -6.64210E+03 -6.78061E+02 -3.92274E+03 -4.69319E+03  2.29913E+03 -4.83741E+03
  4.00740E+03 -2.62574E+03  3.64398E+03  1.63120E+03  1.50285E+03  4.03033E+03 -2.20294E+03  6.01975E+03
 -3.40560E+03  2.55815E+03 -1.70593E+03  8.09680E+02 -6.55726E+02 -5.09447E+02 -1.03086E+03  2.84057E+03
 -2.17527E+03  2.71512E+03 -6.08326E+03  1.51667E+03 -6.54071E+03 -3.56684E+02 -9.07344E+03 -6.28302E+03
 -3.49825E+03 -1.02976E+04  1.72636E+03 -1.10908E+04  6.95839E+03 -9.58070E+03  1.16162E+04 -3.77731E+03
  1.09505E+04  1.90392E+03  6.68855E+03  6.62852E+03  7.13072E+02  9.48280E+03 -4.86549E+03  6.58348E+03
 -5.13858E+03  2.83545E+03 -2.93677E+03 -7.55737E+02 -1.31241E+03 -6.57394E+02 -4.46304E+02 -1.61064E+03
 -1.27676E+03  2.94847E+02 -2.66525E+03 -9.13265E+01 -1.02402E+03 -2.07843E+03  2.61068E+02 -2.95594E+03
  3.41869E+03 -3.89590E+03  4.46675E+03 -6.16986E+01  6.46516E+03  5.45105E+03  1.47966E+03  7.16187E+03
 -3.21122E+03  8.41891E+03 -8.51825E+03  4.67188E+03 -8.43022E+03 -1.18624E+03 -8.62020E+03 -7.22640E+03
 -2.46164E+03 -8.97676E+03  2.31829E+03 -6.44776E+03  5.14731E+03 -3.86574E+03  4.99180E+03  4.41468E+02
  3.26414E+03  2.19400E+03  6.02183E+01  3.34189E+03 -1.82711E+03  4.09017E+02  1.72284E+03 -2.52798E+03
  2.59420E+03 -1.36731E+03  2.94108E+03  3.12333E+03  2.94029E+03  3.66614E+03  1.41405E+02  5.08035E+03
 -2.42815E+03  3.07329E+03 -5.57883E+03  6.31821E+02 -4.94461E+03 -2.77908E+03 -4.77744E+02 -6.29994E+03
  5.11464E+03 -6.23825E+03  6.05333E+03 -7.52975E+02  6.32940E+03  1.39200E+02  4.06955E+03  5.69334E+03
  5.77201E+02  6.49929E+03 -1.99739E+03  4.81268E+03 -3.28168E+03  2.59399E+03 -4.95463E+03  2.91268E+02
 -2.59839E+03 -6.33563E+02 -1.40397E+03  2.71254E+02 -3.60916E+03  1.13031E+03 -4.85630E+03 -6.14282E+02
 -2.35660E+03 -3.36916E+03 -7.28126E+02 -5.83530E+03  2.46532E+03 -4.64133E+03  3.62939E+03 -1.85650E+03
  5.14928E+03  1.01491E+03  2.61969E+03  4.30616E+03  3.38551E+02  4.94377E+03 -4.50667E+03  4.26619E+03
