 $NMID ID='MM_0lb_SNR200_19hz_g40_8.RAW', FMTDAT='(8E13.5)'
 TRAMP=1., VOLUME=1. $END
  3.08926E+05  2.97459E+02  3.37325E+05  2.51632E+05  8.35330E+04  3.37270E+05 -1.32678E+05  2.49785E+05
 -1.89475E+05  8.15382E+04 -1.10407E+05 -3.17999E+04  7.71459E+02 -4.99776E+04  5.30788E+04  1.69348E+02
  3.48165E+04  5.29223E+04 -1.73673E+04  7.39954E+04 -6.00095E+04  6.15680E+04 -8.21531E+04  3.15330E+04
 -7.84544E+04 -1.06259E+04 -5.60485E+04 -5.07419E+04 -1.44699E+04 -6.69214E+04  2.76407E+04 -4.45770E+04
  3.87613E+04  4.52591E+03  1.53407E+04  4.67698E+04 -3.34654E+04  4.54055E+04 -6.42165E+04 -1.20513E+03
 -5.13727E+04 -5.62982E+04 -6.28318E+03 -7.41265E+04  3.27061E+04 -5.27335E+04  4.56114E+04 -1.63732E+04
  4.06822E+04  1.08350E+04  3.01619E+04  2.36119E+04  1.59783E+04  2.88163E+04 -3.82034E+03  2.61646E+04
 -2.15786E+04  1.30370E+04 -1.88412E+04 -2.57123E+03  3.15232E+03 -8.02086E+03  2.08369E+04  1.01860E+04
  6.59430E+03  3.30560E+04 -2.90966E+04  3.37037E+04 -6.00823E+04  2.29229E+03 -5.51016E+04 -3.97806E+04
 -1.21909E+04 -6.08241E+04  3.75925E+04 -4.29227E+04  5.51423E+04 -2.29607E+03  3.09150E+04  2.96500E+04
 -7.31301E+03  3.20647E+04 -2.73068E+04  1.23991E+04 -2.60551E+04 -5.72096E+03 -1.30029E+04 -9.11374E+03
 -6.92399E+03 -1.14228E+04 -8.66299E+02 -1.61971E+04  6.76864E+03 -2.29998E+04  1.44389E+04 -1.40069E+04
  1.26444E+04  3.54238E+03 -5.19105E+03  1.30986E+04 -1.79689E+04 -2.30308E+03 -8.00471E+03 -2.98560E+04
  1.98180E+04 -3.97712E+04  4.29523E+04 -1.85245E+04  4.03239E+04  1.87666E+04  1.37862E+04  4.06095E+04
 -1.50004E+04  2.98535E+04 -2.25034E+04  7.30957E+02 -7.59772E+03 -2.59001E+04  2.11558E+04 -3.04947E+04
  3.71728E+04 -7.07253E+03  3.06784E+04  2.33738E+04  1.48038E+04  4.12637E+04 -7.12587E+03  4.41239E+04
 -2.79549E+04  2.88444E+04 -3.54876E+04  7.76904E+03 -3.71438E+04 -1.49350E+04 -1.95033E+04 -3.42959E+04
  6.78241E+03 -3.31178E+04  2.87198E+04 -1.26436E+04  2.65956E+04  1.06440E+04  1.76691E+03  1.78699E+04
 -1.35069E+04  8.64669E+03 -9.09472E+03 -7.11450E+03  6.15491E+03 -1.01697E+04  1.64029E+04  7.07603E+03
  1.18435E+04  2.06028E+04 -7.14681E+03  2.32223E+04 -2.20587E+04  8.54162E+03 -2.50101E+04 -6.70023E+03
 -1.53775E+04 -1.59431E+04 -4.74463E+03 -1.51378E+04  3.87450E+03 -1.27227E+04  1.08371E+04 -1.38622E+04
  2.01546E+04 -1.18684E+04  2.73345E+04 -2.53310E+02  2.10698E+04  1.52216E+04  3.88469E+03  3.23873E+04
 -1.64657E+04  2.66161E+04 -2.46445E+04  9.54797E+03 -1.94778E+04 -9.75195E+03 -3.82792E+03 -1.41377E+04
  1.88368E+03 -4.51660E+03 -2.89086E+03  5.30466E+03 -1.20952E+04  4.96158E+03 -1.29936E+04 -4.24502E+03
 -8.29623E+03 -1.37813E+04  3.47563E+03 -1.93053E+04  1.14996E+04 -1.31908E+04  1.45761E+04 -7.92066E+02
  8.57319E+03  1.04747E+04 -1.08723E+03  1.60736E+04 -1.03003E+04  7.89711E+03 -1.47087E+04 -3.76654E+03
 -9.96621E+03 -1.40133E+04 -1.56533E+03 -1.84002E+04  8.14565E+03 -1.39050E+04  1.53517E+04 -7.20932E+03
  1.19549E+04  1.06082E+03  8.93768E+03  4.30649E+03  4.85842E+03  1.41774E+03  7.13951E+03 -6.10048E+02
  1.33251E+04  1.79187E+03  1.32778E+04  1.29233E+04  8.14018E+03  2.41463E+04 -3.67742E+03  2.39912E+04
 -1.40880E+04  1.97322E+04 -2.29641E+04  9.84682E+03 -2.23360E+04 -1.85952E+03 -1.99243E+04 -1.36671E+04
 -1.00382E+04 -1.78726E+04  5.67690E+03 -1.75086E+04  1.63711E+04 -1.05535E+04  1.53794E+04  3.07345E+03
  5.62698E+03  1.12197E+04 -6.73164E+03  1.02300E+04 -1.27794E+04  2.89099E+03 -9.65136E+03 -7.51908E+03
  1.13226E+02 -1.24843E+04  6.40930E+03 -9.51771E+03  7.58585E+03 -6.74416E+02  1.03930E+03  4.62660E+03
 -5.14473E+03  1.17308E+03 -2.93522E+03 -4.26912E+03  1.14613E+03 -9.22293E+03  6.94817E+03 -8.36360E+03
  1.15015E+04 -4.43677E+03  1.00068E+04  2.44533E+03  9.22778E+03  9.55145E+03  4.57103E+03  1.27813E+04
 -1.70490E+03  1.45635E+04 -9.15849E+03  9.87666E+03 -9.57197E+03  3.03754E+03 -7.11725E+03 -9.25860E+02
 -3.33838E+03 -3.68238E+03 -2.78625E+01  1.37103E+03 -1.84110E+03  8.62140E+02 -3.54750E+03  3.59468E+03
 -6.60820E+03 -2.09686E+03 -8.58267E+03 -6.21753E+03 -3.27008E+03 -1.01896E+04  2.58558E+03 -8.05903E+03
  7.60707E+03 -3.82640E+03  4.34916E+03  1.96672E+03  1.03854E+02  2.83114E+03 -2.23167E+03 -5.56532E+02
 -3.71339E+03 -4.67308E+03 -1.38107E+03 -6.30770E+03  4.13634E+03 -6.81847E+03  9.67526E+03 -2.70812E+03
  1.08006E+04 -5.70387E+02  1.00917E+04  5.06022E+03  1.65220E+03  8.29910E+03 -4.57988E+03  6.60807E+03
 -5.65519E+03  2.32869E+03 -4.41919E+03 -1.43806E+03  1.28050E+03 -2.24204E+03  4.65533E+03 -1.66158E+03
  4.77050E+03  3.11322E+03  1.25085E+03  5.82864E+03 -4.80273E+03  5.83568E+03 -7.17206E+03  1.96553E+03
 -3.80195E+03 -3.24494E+03  1.24861E+03 -5.73742E+03  2.42568E+03 -2.87492E+03  2.20967E+03  7.32303E+02
  1.55316E+03  2.40507E+03 -3.02589E+03  4.83146E+03 -3.64005E+03  2.40196E+03 -4.35854E+03 -1.16124E+03
 -3.04930E+03 -4.56099E+03  1.53308E+02 -7.08728E+03  4.84720E+03 -4.92821E+03  5.90867E+03  6.32682E+02
  4.22240E+03  4.87379E+03  5.17772E+02  6.40190E+03 -3.69676E+03  2.53042E+03 -4.26199E+03 -3.41831E+02
 -5.44632E+03 -5.17891E+03 -2.47870E+03 -5.87746E+03  2.32184E+03 -4.70922E+03  2.80724E+03 -2.26438E+03
  2.91672E+03 -9.83961E+02  8.57864E+02  8.22623E+02  6.60309E+02 -3.50093E+02 -2.09536E+02 -1.39708E+03
  4.59379E+03 -8.82369E+01  5.25632E+03  1.37886E+03  5.15470E+03  3.20786E+03  5.09087E+03  6.66717E+03
 -1.22902E+03  7.48401E+03 -6.14937E+03  6.75181E+03 -8.95145E+03  1.63320E+03 -7.67061E+03 -3.16542E+03
 -4.39551E+03 -5.13701E+03 -1.03933E+03 -4.50569E+03  2.15271E+03 -2.42551E+03  1.19844E+03 -2.49439E+03
  1.07781E+03 -1.85353E+03  2.33298E+03 -2.23985E+03  3.47372E+03 -1.19875E+02  2.64548E+03  1.19066E+03
  4.29243E+03  5.07115E+02  7.42833E+02  2.51999E+03 -1.46380E+03  1.93415E+03 -4.53300E+03  1.85496E+03
 -5.52745E+03 -1.31879E+03 -1.41428E+03 -3.57930E+03  1.08122E+02 -4.73067E+03  2.66433E+03 -4.51187E+03
  4.10359E+03 -2.41350E+03  5.85446E+03  4.10908E+01  4.62319E+03  4.21663E+03  4.87406E+02  5.92666E+03
 -1.77020E+03  4.37146E+03 -2.21684E+03  2.05416E+03 -1.18302E+03 -1.45812E+03  1.08758E+02 -4.45027E+02
 -9.35266E+02  4.89585E+02 -1.23637E+03  2.73819E+03 -2.49067E+03  1.92991E+02 -4.10113E+03 -5.48234E+02
 -1.68911E+03 -3.55839E+03  9.42981E+02 -4.83689E+03  2.04255E+03 -4.40901E+03  2.76818E+03 -2.23331E+03
  3.86221E+03  2.74379E+03  1.65952E+03  1.92059E+03 -1.47141E+03  4.73690E+03 -2.26622E+03  2.65137E+03
 -3.30319E+03  7.12303E+02 -3.19574E+03 -1.84357E+03 -3.50503E+02 -2.68891E+03  1.08475E+03 -3.30877E+03
  3.47234E+03 -1.21169E+03  1.91116E+03 -2.00038E+02 -8.69636E+02  1.21628E+03  1.12234E+03  4.68345E+01
  2.30500E+03  1.26338E+03  7.40631E+01  1.50745E+03  5.96772E+02  1.75664E+03  4.23495E+02  1.47969E+03
 -1.28259E+03  2.72007E+03 -2.59530E+03  4.51390E+03 -3.23448E+03  1.10518E+03 -2.62703E+03 -1.11766E+03
 -2.47432E+03 -3.91827E+03  1.31963E+02 -5.67022E+03  1.53612E+03 -2.26538E+03  1.66311E+03 -4.45121E+02
  1.98960E+03  1.52051E+03  3.60178E+02  1.92613E+03 -1.39830E+03  7.18821E+02 -1.10649E+03 -7.95375E+02
 -1.09124E+03 -2.63731E+03  9.44680E+02 -1.15611E+03  1.62029E+03 -1.19647E+03  9.75866E+02 -5.83119E+02
 -5.69087E+02  1.07170E+03  8.92741E+02  1.45000E+02  3.22963E+02  1.38186E+03  1.64885E+03 -1.05134E+02
  2.48057E+02 -5.93627E+02  1.85156E+03  1.27079E+03  6.29037E+02  2.90574E+03 -3.62961E+01  2.97327E+03
 -1.46537E+03  1.20255E+03 -1.26897E+03 -4.93824E+01 -1.61760E+03 -6.94663E+02 -1.59875E+03 -1.24055E+03
  1.48098E+03 -9.46091E+02  1.05876E+03 -3.98494E+02 -1.43523E+02  2.25916E+03 -4.39330E+02  1.11119E+03
 -9.92107E+02 -3.90452E+02 -9.13535E+02 -8.62675E+02 -8.26680E+02 -1.64466E+03  4.02132E+02 -1.83051E+03
  6.93620E+02 -8.50454E+02  3.92713E+02 -7.23300E+02  1.89812E+03 -2.72988E+02  3.99671E+02  1.39588E+03
  1.14503E+01 -4.58765E+02 -2.30282E+02 -1.11534E+01  8.54357E+02  3.34132E+01  1.77516E+03 -7.14782E+02
 -5.80213E+01  5.32316E+02  2.76601E+03  2.02927E+03  1.59715E+03  7.94119E+02 -4.07305E+02  2.17989E+03
 -8.37271E+02 -2.92752E+01 -1.15103E+03  9.82321E+02 -6.06311E+02 -1.00417E+03  8.70870E+02 -1.59148E+02
  2.56987E+03 -7.26681E+02  3.18494E+01  7.65034E+02 -3.27094E+02  1.45818E+03  1.08618E+02 -3.27157E+01
  2.03529E+02  4.14376E+02 -7.00201E+02 -3.04194E+02 -5.24452E+02 -6.55770E+01 -1.22904E+03  4.41172E+02
 -9.12430E+02  1.31439E+03 -1.82043E+03  7.26792E+02 -1.71083E+03  4.02826E+02 -3.76517E+03 -6.32503E+02
 -1.25894E+03 -2.17169E+03 -2.47666E+01 -2.73152E+03  3.11866E+02 -2.61424E+03  2.15715E+03 -4.51821E+02
  2.69906E+03 -4.47802E+02  1.46500E+03  1.36751E+03 -1.69102E+02  1.48450E+03 -7.43512E+02  7.16032E+02
 -1.18958E+03  9.52663E+02 -9.00983E+02 -4.04062E+02 -9.28424E+02  7.22193E+02 -4.40784E+02  1.29843E+02
 -1.51267E+03 -4.41496E+02 -5.80765E+02 -7.10381E+01  8.87487E+02 -1.51040E+03  3.34918E+02 -4.95808E+02
  7.73386E+02 -6.38600E+02  3.43794E+02  5.51736E+02  1.70473E+03  5.78892E+02 -8.17936E+02  1.12580E+03
 -1.62973E+03  2.29650E+03 -1.34812E+03  1.72294E+03 -1.14192E+03  3.77923E+02 -1.26062E+03 -1.43010E+03
 -1.02943E+03 -1.16424E+03  3.36630E+02 -9.38003E+02  6.17797E+02 -1.03057E+03  1.07496E+03 -6.84133E+02
  8.20115E+01 -3.46496E+02 -2.82142E+02  3.24862E+02 -3.38558E+02  4.20781E+02  4.02248E+01  1.30718E+02
 -1.55916E+02  6.64657E+01 -4.72236E+02  1.04032E+03  4.76187E+02  1.48279E+01 -3.42845E+01 -5.12215E+02
 -5.72478E+02  8.42926E+02 -3.86289E+02 -5.30822E+01 -1.42030E+03  1.00115E+02  5.10259E+02 -9.98480E+02
  1.02860E+03 -6.64093E+02  5.81638E+02 -1.50136E+02  2.53198E+02 -2.90381E+02  5.17237E+02  4.26890E+02
  5.91327E+02  6.32777E+02 -2.71390E+02 -2.90643E+02 -1.47285E+03  1.38312E+03  7.46959E+02 -3.01776E+02
 -5.71778E+02 -5.87051E+02 -6.39496E+02  5.31099E+02 -8.63611E+02 -5.91223E+02 -1.42820E+03 -1.36170E+02
 -7.98397E+02  5.09789E+02 -2.53238E+02 -1.96296E+03  3.90027E+02 -1.42604E+03  4.63602E+02 -8.35450E+02
 -6.60503E+02  2.49429E+02 -1.22456E+02 -2.97632E+02 -4.76038E+02  1.72634E+03 -7.81405E+02  1.32514E+03
