 $NMID ID='MM_0lb_SNR200_12hz_g60_4.RAW', FMTDAT='(8E13.5)'
 TRAMP=1., VOLUME=1. $END
  3.08625E+05 -1.07213E+02  3.38521E+05  2.51792E+05  8.35345E+04  3.37734E+05 -1.31151E+05  2.52563E+05
 -1.90694E+05  8.39273E+04 -1.12217E+05 -3.07629E+04 -4.04292E+02 -5.04477E+04  5.35023E+04 -9.61130E+02
  3.58154E+04  5.18307E+04 -1.64685E+04  7.69206E+04 -6.11785E+04  6.35180E+04 -8.54954E+04  3.28325E+04
 -8.23959E+04 -1.11206E+04 -5.66309E+04 -5.04861E+04 -1.50186E+04 -7.07280E+04  2.90945E+04 -4.61503E+04
  4.20735E+04  4.78598E+03  1.68074E+04  4.92425E+04 -3.48666E+04  4.61973E+04 -6.90773E+04 -1.22432E+03
 -5.49874E+04 -5.67194E+04 -5.75446E+03 -7.75508E+04  3.48607E+04 -5.69229E+04  4.93184E+04 -1.89059E+04
  4.49625E+04  1.05934E+04  3.24943E+04  2.61456E+04  1.62940E+04  2.93646E+04 -5.18145E+03  2.75988E+04
 -2.26411E+04  1.33732E+04 -1.79315E+04 -6.46184E+03  6.94643E+03 -6.87354E+03  2.41723E+04  1.41828E+04
  7.38118E+03  3.65274E+04 -3.21644E+04  3.63104E+04 -6.57248E+04  1.43810E+03 -5.68363E+04 -4.34298E+04
 -1.25436E+04 -6.43068E+04  4.22238E+04 -4.65479E+04  6.13921E+04 -3.03741E+03  3.59876E+04  3.54080E+04
 -5.87659E+03  3.82686E+04 -3.20864E+04  1.77341E+04 -3.24793E+04 -3.21697E+03 -1.71171E+04 -1.10346E+04
 -9.51067E+03 -1.56795E+04 -9.76092E+02 -1.86121E+04  7.78095E+03 -2.17565E+04  1.67227E+04 -1.38706E+04
  1.12555E+04  5.47007E+03 -1.05558E+04  1.34006E+04 -2.23203E+04 -7.17614E+03 -8.04078E+03 -3.69318E+04
  2.58116E+04 -4.64188E+04  5.12460E+04 -2.13650E+04  4.84564E+04  1.97076E+04  1.65869E+04  4.57792E+04
 -1.64460E+04  3.53650E+04 -2.72244E+04  1.06653E+03 -1.08407E+04 -2.98681E+04  2.05847E+04 -3.56098E+04
  4.25981E+04 -1.05816E+04  3.89100E+04  2.40096E+04  1.92159E+04  4.94973E+04 -8.16145E+03  5.32647E+04
 -3.46887E+04  3.72639E+04 -4.63703E+04  1.06663E+04 -4.53757E+04 -1.75272E+04 -2.59399E+04 -3.93153E+04
  6.97869E+03 -4.11602E+04  3.29119E+04 -1.62980E+04  3.06793E+04  1.15905E+04  3.67670E+03  1.87502E+04
 -1.54786E+04  9.28890E+03 -1.06295E+04 -6.23985E+03  6.76709E+03 -1.08084E+04  1.80389E+04  5.16282E+03
  1.34693E+04  2.19683E+04 -5.82169E+03  2.60003E+04 -2.32434E+04  1.31568E+04 -3.05115E+04 -3.42278E+03
 -2.46222E+04 -1.90642E+04 -1.04255E+04 -2.35326E+04  4.03765E+03 -2.31100E+04  1.86641E+04 -2.12228E+04
  3.00654E+04 -1.36986E+04  3.62447E+04  3.63301E+03  2.63826E+04  2.30995E+04  3.97832E+03  3.86309E+04
 -2.06716E+04  3.28157E+04 -3.05077E+04  1.07936E+04 -2.12005E+04 -8.61879E+03 -5.30728E+03 -1.34746E+04
  1.61600E+03 -2.00387E+03 -7.04072E+03  6.79399E+03 -1.91105E+04  3.48853E+03 -1.76193E+04 -8.48293E+03
 -1.08076E+04 -2.12434E+04  5.48622E+03 -2.63178E+04  1.80705E+04 -1.89752E+04  2.17517E+04 -2.29920E+03
  1.29626E+04  1.63577E+04 -2.12596E+03  2.28174E+04 -1.53768E+04  1.20573E+04 -2.07467E+04 -4.90315E+03
 -1.59912E+04 -2.10391E+04 -1.43258E+03 -2.65486E+04  1.23829E+04 -2.14913E+04  2.09010E+04 -1.10382E+04
  1.91345E+04 -2.02306E+02  1.46172E+04  4.96560E+03  6.87898E+03  6.98990E+02  1.13140E+04 -2.54110E+03
  1.95155E+04  2.11474E+03  2.48197E+04  1.65665E+04  1.56410E+04  3.47110E+04 -1.91386E+03  3.98977E+04
 -2.26757E+04  3.28912E+04 -3.91617E+04  1.72405E+04 -3.82959E+04 -3.30272E+03 -3.26699E+04 -2.36111E+04
 -1.32671E+04 -3.40625E+04  1.13720E+04 -2.94537E+04  2.40256E+04 -1.41411E+04  2.14299E+04  5.60648E+03
  7.86433E+03  1.67512E+04 -9.86617E+03  1.55372E+04 -1.86129E+04  2.84342E+03 -1.34111E+04 -1.29805E+04
 -2.02715E+03 -1.72281E+04  9.61329E+03 -1.36055E+04  1.23582E+04 -2.11538E+03  4.65625E+03  6.48433E+03
 -6.56045E+03  2.48360E+03 -7.88671E+03 -5.84229E+03 -8.18295E+02 -1.63262E+04  1.16778E+04 -1.87040E+04
  2.09272E+04 -1.01729E+04  2.20091E+04  1.87265E+03  1.94504E+04  1.57143E+04  8.96304E+03  2.43343E+04
 -3.81965E+03  2.76907E+04 -1.66288E+04  1.62445E+04 -1.89462E+04  3.37578E+03 -1.38678E+04 -4.75730E+03
 -5.17503E+03 -5.52589E+03  2.62930E+01  8.93790E+02 -1.29768E+03  3.63801E+03 -4.89160E+03  5.65476E+03
 -1.32009E+04  6.08134E+01 -1.34840E+04 -1.05585E+04 -4.00546E+03 -1.67189E+04  6.58155E+03 -1.32063E+04
  1.30289E+04 -7.66163E+03  8.03974E+03  4.15009E+03  2.66365E+02  5.95272E+03 -6.33810E+03 -9.18739E+02
 -7.57201E+03 -8.56708E+03 -1.18613E+03 -1.23467E+04  7.79572E+03 -1.45493E+04  1.74551E+04 -7.46253E+03
  2.15426E+04  2.32344E+03  1.56671E+04  1.33244E+04  3.35247E+03  1.58713E+04 -8.36969E+03  1.49666E+04
 -1.16581E+04  2.82166E+03 -5.12250E+03 -2.47958E+03  1.66007E+03 -4.19690E+03  7.59470E+03 -1.38878E+03
  7.42660E+03  6.30668E+03  1.40882E+03  1.10731E+04 -6.55719E+03  1.13897E+04 -1.34735E+04  2.19118E+03
 -9.48112E+03 -7.95253E+03  2.98945E+02 -1.22324E+04  7.01976E+03 -5.03921E+03  7.32127E+03  3.43883E+03
  1.40165E+03  9.00789E+03 -7.29111E+03  9.13131E+03 -1.17010E+04  3.76027E+03 -1.16108E+04 -3.06322E+03
 -6.13631E+03 -1.34084E+04  4.44821E+03 -1.52893E+04  1.43732E+04 -8.35023E+03  1.28985E+04  2.36435E+03
  8.65805E+03  1.08672E+04 -3.22199E+02  1.27429E+04 -1.11929E+04  7.93486E+03 -8.85159E+03 -5.13518E+02
 -1.01337E+04 -9.12398E+03 -3.95290E+02 -8.43629E+03  5.79958E+03 -8.73043E+03  5.30682E+03 -3.80755E+03
  4.57658E+03  2.54555E+03 -6.88452E+02  2.42204E+03 -9.08834E+01 -1.98542E+03  2.39278E+03 -4.97436E+03
  9.21866E+03 -2.88841E+03  1.30014E+04  2.07726E+03  1.25513E+04  9.27315E+03  8.78870E+03  1.71573E+04
 -4.15734E+03  2.04639E+04 -1.72329E+04  1.36282E+04 -2.02112E+04  3.19033E+03 -1.65768E+04 -8.29734E+03
 -8.10535E+03 -1.48958E+04 -2.26822E+02 -1.05993E+04  4.44422E+03 -7.15548E+03  4.45896E+03 -4.24892E+03
  2.77956E+03 -2.25648E+03  1.79234E+03 -3.19539E+03  4.90073E+03 -4.17162E+03  4.90865E+03 -1.11588E+03
  8.85955E+03  1.79554E+03  5.29166E+03  7.63980E+03 -2.95593E+03  8.62707E+03 -9.02742E+03  6.55738E+03
 -1.05187E+04 -2.07400E+03 -6.81876E+03 -8.42009E+03 -6.39978E+02 -1.29305E+04  7.64479E+03 -1.18788E+04
  1.16079E+04 -6.62540E+03  1.55471E+04  2.90441E+03  1.13693E+04  1.06277E+04  2.49812E+03  1.31803E+04
 -5.94629E+03  1.19495E+04 -8.29906E+03  4.88752E+03 -5.87065E+03 -1.39590E+03 -2.71700E+03 -1.90986E+03
 -1.06321E+03 -5.39190E+02 -8.35751E+02  1.95445E+03 -3.20422E+03  1.74267E+03 -8.63447E+03 -1.17252E+03
 -5.64551E+03 -7.51348E+03  5.01419E+02 -1.04506E+04  6.46590E+03 -9.59672E+03  1.04531E+04 -3.97447E+03
  1.03384E+04  5.57599E+03  4.82370E+03  9.84805E+03 -2.34513E+03  1.23727E+04 -8.58096E+03  7.03523E+03
 -1.09332E+04  2.26437E+03 -7.48252E+03 -5.71082E+03 -2.03551E+03 -8.84660E+03  5.54221E+03 -6.85854E+03
  7.06786E+03 -2.78097E+03  4.11980E+03  2.09139E+03  7.32563E+02  2.64877E+03  5.73452E+02  8.23689E+02
  1.79190E+03  1.31305E+03  3.19056E+03  5.22809E+02  4.12184E+03  4.51580E+03  2.78702E+03  6.75820E+03
 -1.31028E+03  8.16936E+03 -7.97118E+03  7.88227E+03 -1.15040E+04  2.29778E+03 -1.23049E+04 -3.87133E+03
 -4.84732E+03 -1.17611E+04  3.99747E+02 -1.07656E+04  6.23469E+03 -7.73784E+03  8.01347E+03 -2.21586E+03
  6.60876E+03  4.38872E+03  1.89418E+03  6.38614E+03 -3.49581E+03  3.83560E+03 -4.58805E+03 -4.17495E+02
 -1.50279E+03 -4.79832E+03  1.98590E+03 -5.63584E+03  4.56025E+03 -1.87985E+03  3.99329E+03  9.81233E+02
  2.56876E+03  2.05746E+03  1.70119E+03  2.15136E+03 -1.98108E+02  2.24466E+03  1.15754E+03 -1.25990E+03
  1.75058E+03 -1.08783E+03  5.14777E+03  2.17011E+03  2.85365E+03  5.17179E+03 -1.30466E+03  9.23257E+03
 -5.81601E+03  5.10867E+03 -6.51872E+03  1.65121E+03 -6.32918E+03 -2.68898E+03 -1.62756E+03 -4.68534E+03
  5.23392E+02 -3.93243E+03  2.29681E+03 -1.68134E+03  3.62248E+03  2.62756E+03 -1.97760E+03  4.12206E+03
 -4.28245E+03  3.42250E+03 -5.19868E+03 -1.81023E+03 -2.93175E+03 -5.64711E+03  7.12917E+02 -5.49946E+03
  2.55186E+03 -4.06548E+03  3.95991E+03 -7.26788E+02  3.43063E+03  9.44374E+02  6.23713E+02  3.00624E+03
 -2.65594E+03  1.82422E+03 -3.43356E+03 -3.12663E+03  1.60150E+03 -2.40195E+03  3.79796E+03 -2.88110E+03
  6.13935E+03 -5.43000E+02  6.83199E+03  3.98028E+03  2.71126E+03  7.72167E+03 -1.76749E+03  5.97545E+03
 -4.23855E+03  2.55554E+03 -4.49928E+03 -7.08262E+02 -3.14826E+03 -4.25236E+03 -5.04776E+02 -3.63000E+03
  4.85902E+03 -3.01337E+03  1.82423E+03  1.54596E+03  9.33065E+02  4.02010E+03 -1.40523E+03  3.76473E+03
 -1.93938E+03  2.08477E+03 -1.96434E+03 -2.44935E+02 -1.51475E+03  4.71511E+02 -9.69331E+02  2.37875E+03
 -1.33083E+03  2.76660E+03 -4.44085E+03  3.30735E+03 -6.53632E+03  1.02506E+02 -8.07226E+03 -5.51719E+03
 -4.14060E+03 -7.87458E+03  2.89272E+03 -1.08390E+04  5.03804E+03 -8.29806E+03  9.58997E+03 -2.84961E+03
  6.68573E+03  7.56568E+02  4.46568E+03  5.50954E+03  4.94772E+02  5.75787E+03 -1.65062E+03  4.83309E+03
 -2.54997E+03  2.05140E+03 -3.76130E+03 -6.88805E+02 -7.85922E+02 -1.00794E+03 -1.86877E+03  4.32136E+02
 -1.83490E+03 -1.04324E+02 -1.69669E+03 -8.87468E+02  9.90636E+01 -8.92119E+02  6.12712E+02 -2.99645E+03
  2.61299E+03 -1.63543E+03  3.87616E+03 -1.41816E+02  4.16810E+03  3.30168E+03  3.76183E+02  6.99299E+03
 -1.69154E+03  7.42583E+03 -5.64426E+03  5.91919E+03 -8.28310E+03  8.82919E+02 -5.77685E+03 -5.96760E+03
 -2.62743E+03 -6.85996E+03  1.17864E+03 -5.53885E+03  4.51602E+03 -4.20142E+03  4.30227E+03  1.48330E+03
  2.68005E+03  1.85534E+03 -9.73711E+02  2.25873E+03 -9.30646E+02 -1.07442E+03 -9.16195E+01 -1.69166E+03
  1.85633E+03 -2.58724E+02  2.38259E+03  1.47861E+03  1.51582E+03  2.42613E+03 -6.06466E+02  2.93247E+03
 -2.90118E+03  3.23376E+03 -3.81342E+03  8.30604E+02 -3.84091E+03 -2.95683E+03 -3.97227E+02 -5.11536E+03
  2.98366E+03 -4.72415E+03  3.98271E+03 -1.05175E+03  3.79317E+03  1.18914E+03  1.56716E+03  3.30103E+03
  1.24910E+02  4.54984E+03  1.88546E+02  3.88053E+03 -3.47456E+03  1.69245E+03 -1.45937E+03 -5.15555E+02
 -1.57397E+03  9.77663E+01 -1.46274E+03 -1.04385E+03 -1.76766E+03  1.16908E+03 -3.31218E+03 -5.09313E+02
 -2.55368E+03 -1.32001E+03 -9.42506E+02 -4.68410E+03  2.15994E+03 -4.84055E+03  3.60940E+03 -2.34628E+03
  3.40679E+03  8.91819E+02  1.25165E+03  2.69689E+03 -7.57076E+02  4.40428E+03 -3.71325E+03  2.73488E+03
