 $NMID ID='MM_0lb_SNR200_13hz_g50_58.RAW', FMTDAT='(8E13.5)'
 TRAMP=1., VOLUME=1. $END
  3.10674E+05 -1.62129E+02  3.37334E+05  2.51365E+05  8.59097E+04  3.39193E+05 -1.32418E+05  2.51327E+05
 -1.90948E+05  8.44781E+04 -1.12591E+05 -3.34122E+04  3.78870E+02 -5.05455E+04  5.35244E+04 -1.67876E+03
  3.49432E+04  5.28611E+04 -1.65770E+04  7.60402E+04 -6.06811E+04  6.48392E+04 -8.53833E+04  3.14980E+04
 -8.26219E+04 -1.09909E+04 -5.70119E+04 -5.15367E+04 -1.52068E+04 -7.04574E+04  2.62648E+04 -4.62922E+04
  4.13649E+04  3.66246E+03  1.58100E+04  4.74468E+04 -3.37582E+04  4.62175E+04 -6.70007E+04  9.92270E+02
 -5.53002E+04 -5.61485E+04 -7.29679E+03 -7.75685E+04  3.43818E+04 -5.42763E+04  4.88733E+04 -1.68858E+04
  4.45266E+04  1.16216E+04  3.28626E+04  2.60085E+04  1.58257E+04  2.93584E+04 -5.78098E+03  2.66622E+04
 -2.15201E+04  1.30471E+04 -1.91476E+04 -3.55884E+03  5.80665E+03 -7.88124E+03  2.29348E+04  1.24992E+04
  7.79335E+03  3.48351E+04 -3.20742E+04  3.61303E+04 -6.37159E+04  2.32465E+03 -5.69949E+04 -4.33545E+04
 -1.20989E+04 -6.36421E+04  4.02386E+04 -4.57679E+04  5.88765E+04 -2.22348E+03  3.50226E+04  3.35303E+04
 -7.59169E+03  3.70759E+04 -3.07392E+04  1.67548E+04 -3.28583E+04 -4.91998E+03 -1.81321E+04 -1.11403E+04
 -8.81403E+03 -1.52016E+04 -1.38330E+03 -1.96617E+04  6.18909E+03 -2.40624E+04  1.70613E+04 -1.34874E+04
  1.12664E+04  5.49972E+03 -9.12705E+03  1.33496E+04 -2.22043E+04 -5.39226E+03 -8.41561E+03 -3.40385E+04
  2.28130E+04 -4.46561E+04  4.99563E+04 -1.95136E+04  4.63968E+04  1.94701E+04  1.53762E+04  4.47052E+04
 -1.65909E+04  3.17942E+04 -2.57177E+04  1.59486E+03 -1.07772E+04 -2.77282E+04  2.29678E+04 -3.46902E+04
  4.25698E+04 -1.03704E+04  3.53561E+04  2.44134E+04  1.88133E+04  4.76585E+04 -9.11505E+03  5.20854E+04
 -3.18691E+04  3.47439E+04 -4.46345E+04  9.25678E+03 -4.43807E+04 -1.66380E+04 -2.57254E+04 -3.93527E+04
  6.18327E+03 -3.84659E+04  3.19150E+04 -1.44132E+04  3.05586E+04  1.10683E+04  3.35846E+03  2.00150E+04
 -1.46423E+04  1.02045E+04 -1.27926E+04 -7.38283E+03  5.99923E+03 -1.09138E+04  1.81855E+04  6.26526E+03
  1.37931E+04  2.29892E+04 -5.76166E+03  2.55161E+04 -2.30792E+04  1.27312E+04 -2.83146E+04 -3.91961E+03
 -2.18797E+04 -1.76033E+04 -9.07439E+03 -2.17758E+04  4.70525E+03 -2.04113E+04  1.66729E+04 -1.94633E+04
  2.74069E+04 -1.17956E+04  3.36428E+04  2.50591E+03  2.41566E+04  2.10450E+04  3.87436E+03  3.64207E+04
 -1.84634E+04  3.10199E+04 -2.93172E+04  1.06529E+04 -2.17128E+04 -1.04033E+04 -4.92198E+03 -1.18723E+04
  1.21998E+03 -2.29312E+03 -5.66820E+03  6.90317E+03 -1.79917E+04  5.93325E+03 -1.72774E+04 -7.83170E+03
 -1.02390E+04 -1.97212E+04  4.40975E+03 -2.37209E+04  1.69118E+04 -1.73888E+04  1.91480E+04 -2.04245E+03
  1.14814E+04  1.43131E+04 -2.10158E+03  1.97183E+04 -1.44767E+04  1.13116E+04 -1.93550E+04 -3.75234E+03
 -1.57385E+04 -1.78363E+04 -2.08467E+03 -2.29326E+04  1.23755E+04 -1.99716E+04  2.10084E+04 -9.99629E+03
  1.90288E+04  1.41722E+03  1.53373E+04  3.99946E+03  7.27279E+03  5.04754E+02  1.12209E+04 -2.48456E+03
  1.85505E+04  2.73930E+03  1.97435E+04  1.48009E+04  1.43486E+04  3.12544E+04 -2.76679E+03  3.51914E+04
 -2.13673E+04  2.85113E+04 -3.25368E+04  1.45397E+04 -3.44950E+04 -2.45707E+03 -3.01618E+04 -2.01434E+04
 -1.25127E+04 -3.13559E+04  1.06071E+04 -2.69234E+04  2.34391E+04 -1.34899E+04  2.09213E+04  6.73360E+03
  6.40476E+03  1.57294E+04 -1.04179E+04  1.30498E+04 -1.74457E+04  3.36837E+03 -1.27957E+04 -1.06424E+04
 -1.29458E+03 -1.66657E+04  8.25212E+03 -1.28221E+04  1.06667E+04 -2.33580E+02  1.44780E+03  6.77581E+03
 -6.71705E+03  3.56454E+03 -7.70844E+03 -5.67140E+03 -1.17127E+03 -1.39696E+04  1.00442E+04 -1.55750E+04
  1.85177E+04 -8.47611E+03  2.15486E+04  3.56417E+03  1.73142E+04  1.53486E+04  7.00519E+03  2.17947E+04
 -2.90911E+03  2.44054E+04 -1.58373E+04  1.48585E+04 -1.70470E+04  4.07573E+03 -1.35477E+04 -3.78712E+03
 -5.88944E+03 -6.15651E+03 -1.15813E+03  7.52904E+02 -2.32455E+03  1.20264E+03 -4.59130E+03  5.09990E+03
 -1.13717E+04 -9.79523E+01 -1.25507E+04 -1.01433E+04 -5.03698E+03 -1.52498E+04  4.91466E+03 -1.17394E+04
  1.06644E+04 -5.82530E+03  8.17753E+03  3.60742E+03 -1.04221E+02  4.66034E+03 -5.72300E+03  4.88453E+02
 -5.93346E+03 -6.19830E+03 -9.19721E+02 -1.11236E+04  6.47511E+03 -1.32343E+04  1.48888E+04 -6.81241E+03
  1.85609E+04  2.28186E+03  1.30107E+04  9.30992E+03  1.50871E+03  1.39820E+04 -7.22635E+03  1.20378E+04
 -8.84878E+03  4.15081E+03 -4.82172E+03 -2.61557E+03  2.36593E+03 -3.18161E+03  7.56728E+03 -8.35282E+02
  7.83405E+03  4.98265E+03  6.85118E+02  9.04420E+03 -6.92857E+03  1.03444E+04 -1.11389E+04  2.67338E+03
 -7.93254E+03 -6.72582E+03  1.44844E+03 -1.08432E+04  5.90905E+03 -5.02049E+03  6.52366E+03  5.11736E+02
  1.09030E+03  6.52029E+03 -6.59741E+03  8.42691E+03 -9.35293E+03  3.20206E+03 -8.69117E+03 -4.25408E+03
 -5.37472E+03 -9.62692E+03  2.16227E+03 -1.29399E+04  9.48606E+03 -7.61736E+03  1.11173E+04  2.46354E+03
  6.44806E+03  9.83459E+03  4.32837E+02  1.11780E+04 -8.25617E+03  6.70075E+03 -8.38979E+03 -1.03502E+03
 -9.37934E+03 -7.75560E+03 -1.91458E+03 -9.55950E+03  4.27751E+03 -6.38213E+03  3.86848E+03 -2.17662E+03
  5.15713E+03  3.11021E+02 -4.02904E+01  1.02066E+03  8.36998E+02 -1.16965E+03  1.42526E+03 -3.87906E+03
  6.65514E+03 -2.95066E+03  1.02988E+04  5.94719E+02  1.08235E+04  7.06555E+03  9.44824E+03  1.38583E+04
 -3.19347E+03  1.75594E+04 -1.35384E+04  1.21422E+04 -1.79208E+04  1.52644E+03 -1.50674E+04 -6.31612E+03
 -6.99848E+03 -1.26319E+04  2.63300E+01 -1.07420E+04  3.43733E+03 -4.81418E+03  3.16087E+03 -3.30411E+03
  1.24836E+03 -1.47460E+03  2.45065E+03 -3.70160E+03  4.67519E+03 -2.77517E+03  6.05609E+03 -5.48765E+02
  8.79129E+03  1.58253E+03  1.97185E+03  7.28447E+03 -2.08921E+03  7.89676E+03 -8.60751E+03  6.14073E+03
 -9.86165E+03 -1.81051E+03 -4.08673E+03 -6.71319E+03 -2.87109E+02 -1.06485E+04  5.52233E+03 -1.03158E+04
  9.94762E+03 -4.23414E+03  1.35295E+04  1.59433E+03  9.40107E+03  9.20563E+03  2.16385E+03  1.03235E+04
 -4.50291E+03  1.08922E+04 -6.61880E+03  3.71780E+03 -5.19471E+03 -7.81571E+02 -1.55184E+03 -1.01665E+03
 -1.15982E+03  8.52311E+02 -1.85090E+03  3.17074E+03 -4.10282E+03  2.18916E+03 -6.00752E+03 -3.63790E+02
 -3.75765E+03 -8.70557E+03  6.20220E+02 -9.31129E+03  6.13943E+03 -9.24755E+03  8.33567E+03 -1.80420E+03
  9.43684E+03  4.60491E+03  2.75980E+03  6.95980E+03 -3.57377E+01  1.12113E+04 -5.52984E+03  6.06636E+03
 -9.08941E+03 -2.52094E+02 -5.63089E+03 -6.22701E+03 -1.11376E+03 -5.94379E+03  3.44588E+03 -6.08651E+03
  4.71789E+03 -3.13746E+03  3.94580E+03  9.42165E+02  2.35144E+03  2.14213E+03  1.83653E+03  2.34222E+03
  4.93722E+03 -7.51365E+01  9.47395E+02  1.55835E+03  2.41895E+03  2.52851E+03  2.38736E+03  5.57262E+03
 -1.53920E+03  6.00207E+03 -7.28031E+03  7.78358E+03 -9.46120E+03  2.72499E+03 -9.34029E+03 -3.20317E+03
 -4.03741E+03 -8.10627E+03  1.58509E+03 -1.16717E+04  3.91652E+03 -6.55056E+03  7.07423E+03 -8.97472E+02
  5.18903E+03  4.02047E+03  1.20018E+03  5.16526E+03 -2.63628E+03  3.25413E+03 -2.72481E+03  1.01440E+03
 -6.10407E+02 -3.08993E+03  1.74518E+03 -4.76122E+03  4.02021E+03 -1.47939E+03  1.98861E+03  3.30946E+02
  1.47527E+03  2.44420E+03  1.94203E+03  1.81545E+03 -1.43782E+03  1.54677E+03  9.95988E+02 -5.41239E+02
  1.33527E+02 -1.26466E+03  3.66046E+03  1.20635E+03  1.00664E+03  3.84850E+03 -9.88610E+02  4.62948E+03
 -2.75380E+03  3.43607E+03 -5.22596E+03  5.81992E+02 -3.94235E+03 -2.62677E+03 -2.55026E+03 -2.90745E+03
  5.88733E+02 -4.90793E+03  1.88829E+03 -1.85275E+03  6.19068E+02  1.43548E+03 -2.18118E+03  2.47063E+03
 -3.34392E+03  1.57369E+03 -3.96710E+03 -3.06273E+03 -1.88617E+03 -6.00015E+03  6.46772E+02 -5.18744E+03
  2.77089E+03 -2.03524E+03  2.80156E+03 -6.13647E+02  2.26611E+03  6.40506E+02  1.47867E+03  2.38259E+03
 -1.29629E+03  1.67000E+03 -4.18580E+03 -9.71637E+02  1.72991E+03 -2.42226E+03  3.46917E+03 -2.00881E+03
  5.59118E+03  2.75933E+02  5.76627E+03  2.37620E+03  1.80412E+03  4.76415E+03 -1.02331E+03  4.56360E+03
 -3.58338E+03  1.77005E+03 -4.11275E+03  5.02812E+02 -1.99097E+03 -4.35999E+03  1.87174E+03 -2.48519E+03
  3.53029E+03 -1.31502E+03  2.43372E+03  1.24039E+03  1.29336E+03  3.18581E+03 -2.04890E+03  3.07779E+03
  7.16492E+02  2.69450E+03 -1.61208E+03  1.11350E+03 -1.55727E+02  7.83814E+02 -1.46164E+03  1.54610E+03
 -1.37649E+03  2.02117E+03 -3.95733E+03  2.36316E+03 -5.29779E+03 -7.40292E+02 -7.04527E+03 -4.09801E+03
 -2.35671E+03 -6.92851E+03  8.57944E+02 -8.29853E+03  4.75066E+03 -4.60555E+03  7.44398E+03 -1.43540E+03
  7.21961E+03  1.26052E+03  6.62881E+03  3.64653E+03 -1.28699E+02  4.84821E+03 -2.52530E+03  4.52011E+03
 -1.76864E+03  4.93213E+02 -9.52788E+02 -1.77454E+03 -2.13177E+03  2.84914E+02 -4.35649E+02  6.44281E+02
 -1.62437E+03  1.17530E+03 -1.40718E+03 -1.10500E+03 -5.66496E+02 -9.36774E+02 -1.91080E+02 -2.59458E+03
  1.62795E+03 -1.01120E+03  2.66387E+03 -1.73164E+02  3.37905E+03  2.58877E+03  9.83188E+02  4.80205E+03
 -2.80514E+03  6.49748E+03 -5.73598E+03  3.36531E+03 -5.11123E+03 -1.15560E+03 -4.45529E+03 -3.26281E+03
 -1.56819E+03 -4.00947E+03  8.89217E+02 -4.80894E+03  2.68270E+03 -2.06060E+03  3.84429E+03 -5.77556E+02
  2.34518E+03  3.22781E+02 -9.68730E+01  1.52469E+03 -6.31660E+02 -3.27593E+02 -9.10560E+02 -5.25056E+02
  5.23356E+02 -1.03752E+03  1.49703E+03  1.46516E+02  1.81861E+03 -1.35832E+02  6.82827E+02  1.72062E+03
 -2.43695E+03  2.78075E+03 -2.57595E+03 -5.02180E+02 -3.78382E+03 -1.95475E+03 -6.23021E+02 -3.48376E+03
  8.83331E+02 -3.61849E+03  3.07385E+03 -1.70592E+03  5.79253E+03  1.02543E+03  2.49668E+03  2.93812E+03
  1.43692E+03  2.27444E+03 -1.65907E+03  2.14472E+03 -2.58041E+03  1.71418E+03 -1.65906E+03  1.39204E+02
 -1.53813E+03 -1.21742E+03 -9.77923E+02  5.62641E+02 -2.28534E+03  2.02245E+02 -1.26504E+03 -1.25246E+02
 -2.46083E+03 -9.10610E+02 -1.12070E+02 -2.31606E+03  3.26593E+02 -2.99871E+03  3.04574E+03 -2.72717E+03
  2.63422E+03  9.99845E+01  3.86528E+02  2.49542E+03 -9.53428E+02  2.92748E+03 -3.32581E+03  1.36541E+03
