 $NMID ID='MM_0lb_SNR200_8hz_g40_26.RAW', FMTDAT='(8E13.5)'
 TRAMP=1., VOLUME=1. $END
  3.09796E+05  5.74436E+02  3.38638E+05  2.50574E+05  8.76566E+04  3.38844E+05 -1.32436E+05  2.52656E+05
 -1.89511E+05  8.38377E+04 -1.12938E+05 -3.24215E+04  1.25689E+03 -5.12806E+04  5.43314E+04 -2.04104E+03
  3.65294E+04  5.39761E+04 -1.70387E+04  7.49844E+04 -6.14794E+04  6.54286E+04 -8.71131E+04  3.35465E+04
 -8.18630E+04 -1.23235E+04 -5.81497E+04 -5.16729E+04 -1.62576E+04 -7.05919E+04  2.76665E+04 -4.55230E+04
  4.19171E+04  4.85621E+03  1.55423E+04  4.93811E+04 -3.43944E+04  4.75044E+04 -6.92657E+04 -4.06785E+02
 -5.56699E+04 -5.74599E+04 -7.60804E+03 -7.83263E+04  3.39575E+04 -5.73437E+04  4.90277E+04 -1.78254E+04
  4.53270E+04  1.15871E+04  3.24888E+04  2.36914E+04  1.54688E+04  3.11488E+04 -5.48458E+03  2.86698E+04
 -2.25354E+04  1.19583E+04 -1.86745E+04 -6.87302E+03  7.36774E+03 -8.12595E+03  2.16976E+04  1.30915E+04
  7.86419E+03  3.80253E+04 -3.36785E+04  3.74006E+04 -6.67707E+04  1.53988E+03 -5.95638E+04 -4.31611E+04
 -1.31910E+04 -6.68552E+04  4.15003E+04 -4.75039E+04  6.19963E+04 -2.04518E+03  3.71581E+04  3.52437E+04
 -4.05943E+03  3.95566E+04 -3.17001E+04  1.90674E+04 -3.31186E+04 -2.65522E+03 -2.04963E+04 -1.22806E+04
 -1.01669E+04 -1.52462E+04  6.65130E+02 -2.02557E+04  1.05596E+04 -2.41212E+04  1.56063E+04 -1.37475E+04
  1.27253E+04  6.63242E+03 -1.01054E+04  1.34095E+04 -2.53165E+04 -5.76614E+03 -7.50993E+03 -3.79135E+04
  2.68331E+04 -4.57517E+04  5.14500E+04 -2.02823E+04  4.79726E+04  2.08148E+04  1.81825E+04  4.75336E+04
 -1.62055E+04  3.62383E+04 -2.82754E+04  3.68264E+03 -1.03757E+04 -3.05403E+04  2.10795E+04 -3.72297E+04
  4.48014E+04 -1.27215E+04  4.07686E+04  2.49398E+04  2.32283E+04  5.15394E+04 -8.61724E+03  5.59283E+04
 -3.56238E+04  3.76306E+04 -4.73465E+04  1.10494E+04 -4.85289E+04 -1.78685E+04 -2.54727E+04 -4.10256E+04
  8.85785E+03 -4.23880E+04  3.28171E+04 -1.81457E+04  3.15817E+04  1.01210E+04  4.75592E+03  2.12077E+04
 -1.43032E+04  1.11530E+04 -1.26499E+04 -8.31250E+03  6.25212E+03 -1.07011E+04  1.83612E+04  7.89074E+03
  1.42768E+04  2.18678E+04 -5.21591E+03  2.88608E+04 -2.37672E+04  1.64026E+04 -3.23378E+04 -3.23326E+03
 -2.37539E+04 -1.97628E+04 -1.22041E+04 -2.52788E+04  5.94286E+03 -2.77126E+04  1.94935E+04 -2.35541E+04
  3.16707E+04 -1.51128E+04  3.78557E+04  5.02545E+03  2.68853E+04  2.46186E+04  4.62051E+03  4.26092E+04
 -2.10682E+04  3.47744E+04 -3.06096E+04  1.12307E+04 -2.23302E+04 -9.57080E+03 -5.38897E+03 -1.38065E+04
  1.19893E+03 -2.92450E+01 -7.66775E+03  8.78727E+03 -1.87882E+04  5.07978E+03 -2.08934E+04 -9.50503E+03
 -1.27315E+04 -2.26362E+04  5.73421E+03 -2.71877E+04  1.89060E+04 -1.94271E+04  2.40465E+04 -2.39157E+03
  1.46108E+04  1.65888E+04 -1.78879E+03  2.31677E+04 -1.60465E+04  1.51758E+04 -2.48361E+04 -5.93840E+03
 -1.71779E+04 -2.11147E+04 -2.01518E+03 -2.70834E+04  1.43239E+04 -2.22137E+04  2.21188E+04 -1.07939E+04
  2.16148E+04  1.74973E+02  1.60017E+04  5.49657E+03  8.66381E+03  5.12982E+02  1.25805E+04 -1.21859E+03
  2.33368E+04  3.39505E+03  2.45194E+04  1.95447E+04  1.67972E+04  3.75227E+04 -2.43663E+03  4.52100E+04
 -2.65891E+04  3.79233E+04 -4.19676E+04  1.94150E+04 -4.58858E+04 -3.48098E+03 -3.62390E+04 -2.60800E+04
 -1.40463E+04 -3.63892E+04  1.27923E+04 -3.36000E+04  2.76248E+04 -1.72095E+04  2.38878E+04  7.33505E+03
  9.82623E+03  1.99993E+04 -1.07967E+04  1.55762E+04 -1.99729E+04  3.25105E+03 -1.46078E+04 -1.27319E+04
 -6.74755E+02 -1.96022E+04  1.31217E+04 -1.44065E+04  1.59623E+04 -1.60572E+03  2.66652E+03  8.22614E+03
 -8.34306E+03  4.87436E+03 -9.57127E+03 -6.47523E+03  3.64910E+02 -2.06523E+04  1.35308E+04 -2.06732E+04
  2.13473E+04 -1.19877E+04  2.56145E+04  2.48665E+03  2.49091E+04  2.00673E+04  1.18855E+04  2.98695E+04
 -6.49678E+03  3.05921E+04 -2.15303E+04  1.91440E+04 -2.43999E+04  3.27514E+03 -1.58959E+04 -5.05067E+03
 -7.13314E+03 -7.89295E+03 -2.06286E+02  1.30959E+03 -2.71696E+03  1.77371E+03 -8.03226E+03  7.13868E+03
 -1.33322E+04 -1.06153E+03 -1.35597E+04 -1.09971E+04 -4.68420E+03 -1.94261E+04  7.19881E+03 -1.81326E+04
  1.49873E+04 -6.35119E+03  9.39536E+03  5.10306E+03  2.66143E+02  6.88384E+03 -7.63405E+03  1.30917E+01
 -6.87694E+03 -9.49173E+03 -1.05065E+03 -1.76604E+04  9.31715E+03 -1.57401E+04  2.10994E+04 -8.50035E+03
  2.65404E+04  2.67819E+03  2.05043E+04  1.53939E+04  3.78689E+03  1.99832E+04 -1.18025E+04  1.73366E+04
 -1.21343E+04  4.42069E+03 -6.45029E+03 -4.38643E+03  2.38236E+03 -4.67238E+03  7.03329E+03 -9.85060E+02
  6.51417E+03  7.16833E+03  1.38145E+03  1.36100E+04 -1.03998E+04  1.12887E+04 -1.60758E+04 -2.81459E+02
 -1.13244E+04 -9.12622E+03 -1.93640E+03 -1.23937E+04  7.77784E+03 -6.97212E+03  9.36453E+03  3.29073E+03
  7.93962E+02  1.01407E+04 -1.04323E+04  1.04949E+04 -1.41151E+04  6.13932E+03 -1.51266E+04 -3.62103E+03
 -8.83488E+03 -1.70067E+04  3.58184E+03 -1.76985E+04  1.52187E+04 -1.01788E+04  1.81671E+04  2.52392E+03
  1.07412E+04  1.28939E+04 -2.56671E+03  1.46218E+04 -1.16724E+04  9.04746E+03 -1.20501E+04  6.96822E+01
 -9.38150E+03 -1.12619E+04 -2.11796E+03 -1.18916E+04  8.21246E+03 -9.72932E+03  9.02244E+03 -3.42380E+03
  6.98141E+03  1.96933E+03 -1.83332E+03  2.23419E+03 -5.13215E+02 -3.05062E+03  2.78175E+03 -8.04525E+03
  1.23322E+04 -6.48688E+03  1.74996E+04  2.27801E+03  1.77679E+04  1.16073E+04  1.15215E+04  2.18596E+04
 -7.03343E+03  2.55199E+04 -2.06277E+04  1.97784E+04 -2.54737E+04  3.86850E+03 -2.22695E+04 -8.85272E+03
 -1.03134E+04 -1.78667E+04 -1.77958E+03 -1.62262E+04  5.61666E+03 -8.75356E+03  6.99534E+03 -4.26653E+03
  3.45786E+03 -4.35952E+03  6.08636E+03 -2.59607E+03  7.04157E+03 -2.78895E+03  8.69733E+03 -2.89413E+03
  1.07093E+04  4.04618E+03  6.80739E+03  9.41434E+03 -2.52907E+03  1.10945E+04 -1.19299E+04  8.81905E+03
 -1.51377E+04 -1.20090E+03 -1.00733E+04 -1.13440E+04 -1.80469E+03 -1.54145E+04  9.88554E+03 -1.65485E+04
  1.63967E+04 -9.73875E+03  2.01492E+04  2.45300E+03  1.38162E+04  1.40561E+04  1.87350E+03  2.04498E+04
 -8.50222E+03  1.34869E+04 -1.09286E+04  4.01838E+03 -6.99687E+03 -2.92391E+03 -3.37567E+03 -2.40209E+03
 -4.22490E+02 -5.17715E+02 -2.62223E+03  2.91284E+03 -6.71081E+03  1.88275E+03 -1.06572E+04 -1.39831E+03
 -6.90379E+03 -1.02585E+04 -4.11379E+02 -1.47440E+04  9.14510E+03 -1.35616E+04  1.60032E+04 -5.35651E+03
  1.57926E+04  6.80455E+03  8.72259E+03  1.46198E+04 -3.39334E+03  1.56262E+04 -1.12151E+04  8.21765E+03
 -1.31172E+04  1.57578E+03 -1.03559E+04 -8.66314E+03 -5.48539E+02 -1.40130E+04  7.87411E+03 -1.04451E+04
  1.02874E+04 -3.09406E+03  7.90405E+03  2.57883E+03  2.39734E+03  4.41209E+03  2.02899E+03  1.20590E+03
  3.02068E+03  1.09608E+03  3.12923E+03  8.57456E+02  4.78795E+03  6.83133E+03  4.06767E+03  9.64379E+03
 -3.14556E+03  1.32645E+04 -1.34171E+04  1.41916E+04 -1.60325E+04  2.52751E+03 -1.61120E+04 -7.28953E+03
 -7.29108E+03 -1.59066E+04  3.41844E+03 -1.71170E+04  9.18703E+03 -1.08336E+04  1.35045E+04 -3.84250E+03
  9.86456E+03  5.64421E+03 -4.62975E+01  8.60992E+03 -5.09968E+03  6.97157E+03 -6.34890E+03 -1.56417E+03
 -4.11158E+03 -7.81617E+03  3.73232E+03 -8.28021E+03  5.27735E+03 -3.07145E+03  7.14548E+03  8.32311E+02
  3.37656E+03  3.24536E+03  2.16337E+03  3.49725E+03 -2.02033E+03  6.32542E+02  1.94908E+03 -5.45917E+02
  3.04995E+03  9.37121E+02  6.97908E+03  3.01037E+03  4.17830E+03  8.15140E+03 -2.36841E+03  1.16964E+04
 -8.20458E+03  9.05513E+03 -1.01061E+04  1.38986E+03 -9.97730E+03 -3.40353E+03 -2.52829E+03 -7.14098E+03
 -3.36997E+02 -8.26656E+03  4.22493E+03 -3.34453E+03  3.49706E+03  1.31560E+03 -2.07581E+03  5.43899E+03
 -5.65868E+03  3.43327E+03 -7.11363E+03 -4.66991E+03 -6.39746E+03 -9.60250E+03  2.07334E+03 -9.42606E+03
  6.48787E+03 -6.06439E+03  6.69024E+03 -6.64658E+02  7.61421E+03  2.31344E+03  2.01236E+02  6.15295E+03
 -4.98243E+03  1.20976E+03 -4.92144E+03 -4.27691E+03  2.95761E+02 -8.49386E+03  8.36223E+03 -6.58717E+03
  9.48876E+03  1.26039E+03  1.18185E+04  6.20299E+03  3.03710E+03  1.09149E+04 -4.97967E+03  1.06923E+04
 -7.18215E+03  5.43956E+03 -1.05577E+04 -5.71846E+02 -5.39926E+03 -7.01192E+03  2.76349E+03 -6.51266E+03
  6.76039E+03 -1.13873E+03  6.20174E+03  3.28294E+03  7.86078E+02  6.98935E+03 -5.73982E+02  5.52525E+03
 -3.82958E+03  3.25062E+03 -4.06383E+03 -8.88335E+02 -1.22469E+03  1.45830E+02 -1.68574E+03  1.29892E+03
 -1.84179E+03  3.90645E+03 -6.91594E+03  4.82076E+03 -1.13418E+04  1.81004E+03 -1.35846E+04 -6.65367E+03
 -6.66351E+03 -1.28754E+04  4.52106E+03 -1.73638E+04  1.13067E+04 -1.39166E+04  1.66955E+04 -6.55624E+03
  1.46271E+04  2.72115E+03  9.25401E+03  1.01550E+04  1.44946E+03  1.11075E+04 -4.59982E+03  7.95971E+03
 -6.04309E+03  1.63687E+03 -3.78745E+03 -2.19685E+03 -2.23737E+03 -2.66873E+03 -4.26534E+02  9.80246E+01
 -2.19749E+03  2.71983E+02 -1.81971E+03 -6.67663E+02 -6.25429E+02 -1.94217E+03  6.07727E+02 -5.26655E+03
  7.48117E+03 -3.91985E+03  6.88769E+03 -1.47156E+03  7.63544E+03  6.51809E+03  2.95327E+03  1.10465E+04
 -5.67895E+03  1.47677E+04 -1.18937E+04  1.02385E+04 -1.54426E+04 -8.76889E+02 -1.19673E+04 -8.91032E+03
 -4.85434E+03 -1.25742E+04  5.36205E+03 -1.14152E+04  8.03914E+03 -7.30900E+03  8.25431E+03  5.09326E+02
  4.48023E+03  4.69108E+03 -3.20567E+02  2.51109E+03 -3.31384E+03 -1.67647E+03 -1.01273E+03 -4.10972E+03
  2.20284E+03 -2.53821E+03  5.88638E+03  1.65851E+03  3.26983E+03  4.96652E+03  3.66243E+02  6.04965E+03
 -5.22533E+03  4.71881E+03 -8.33716E+03 -3.23207E+02 -8.87735E+03 -5.42472E+03 -2.52470E+03 -9.50453E+03
  6.71113E+03 -9.50543E+03  9.92829E+03 -2.83344E+03  7.18176E+03  2.55751E+03  4.91516E+03  8.12372E+03
 -4.48580E+02  8.41104E+03 -3.91321E+03  6.76514E+03 -5.31400E+03  3.52600E+03 -4.73960E+03  4.19391E+02
 -1.79336E+03 -9.66493E+02 -3.31849E+03  2.01507E+03 -2.69976E+03  8.78158E+02 -6.25011E+03 -1.20497E+03
 -6.06420E+03 -4.94938E+03 -1.69797E+03 -8.29749E+03  4.04962E+03 -8.87824E+03  9.13116E+03 -3.86634E+03
  9.78063E+03  1.94242E+03  4.02086E+03  4.43475E+03 -2.70482E+03  7.95518E+03 -6.50024E+03  5.46785E+03
