 $NMID ID='MM_0lb_SNR200_17hz_g40_83.RAW', FMTDAT='(8E13.5)'
 TRAMP=1., VOLUME=1. $END
  3.09459E+05 -1.06580E+02  3.38070E+05  2.50933E+05  8.39717E+04  3.37658E+05 -1.32288E+05  2.50038E+05
 -1.88907E+05  8.19171E+04 -1.12015E+05 -3.24978E+04  1.54770E+03 -4.99005E+04  5.34874E+04  1.67165E+02
  3.47262E+04  5.28069E+04 -1.66990E+04  7.50340E+04 -5.94714E+04  6.29561E+04 -8.29977E+04  3.22240E+04
 -8.06479E+04 -1.15074E+04 -5.75735E+04 -5.02763E+04 -1.52999E+04 -6.77876E+04  2.63548E+04 -4.46766E+04
  3.90111E+04  3.67896E+03  1.60108E+04  4.73650E+04 -3.47699E+04  4.62480E+04 -6.57000E+04 -1.51958E+03
 -5.19964E+04 -5.63084E+04 -6.92154E+03 -7.56404E+04  3.36843E+04 -5.39920E+04  4.58959E+04 -1.68790E+04
  4.17377E+04  1.06396E+04  3.11143E+04  2.49856E+04  1.57769E+04  2.86135E+04 -4.50524E+03  2.69550E+04
 -2.11379E+04  1.31448E+04 -1.94776E+04 -5.04775E+03  3.48554E+03 -7.01921E+03  1.99810E+04  1.13117E+04
  7.54895E+03  3.37107E+04 -2.98976E+04  3.44371E+04 -6.17467E+04  2.82381E+03 -5.56971E+04 -4.10239E+04
 -1.20227E+04 -6.12913E+04  3.93024E+04 -4.29810E+04  5.53858E+04 -1.04608E+03  3.27693E+04  3.04987E+04
 -6.39258E+03  3.29592E+04 -2.89051E+04  1.28813E+04 -2.75080E+04 -4.97823E+03 -1.46282E+04 -1.12734E+04
 -7.29035E+03 -1.16278E+04 -3.45819E+02 -1.78004E+04  7.08832E+03 -2.26622E+04  1.41012E+04 -1.35385E+04
  1.20080E+04  4.05126E+03 -6.82513E+03  1.35600E+04 -1.98038E+04 -2.25592E+03 -7.33647E+03 -3.10226E+04
  2.02504E+04 -3.97474E+04  4.42256E+04 -1.75378E+04  4.17982E+04  1.94731E+04  1.45006E+04  4.22114E+04
 -1.57699E+04  3.19620E+04 -2.41531E+04  1.40312E+03 -8.42918E+03 -2.59195E+04  2.02340E+04 -3.09703E+04
  3.83813E+04 -8.33471E+03  3.22540E+04  2.24618E+04  1.47669E+04  4.32300E+04 -9.58192E+03  4.51880E+04
 -3.00305E+04  3.03856E+04 -3.78607E+04  7.65320E+03 -3.88326E+04 -1.47868E+04 -2.04775E+04 -3.56181E+04
  6.34194E+03 -3.37467E+04  2.99854E+04 -1.23139E+04  2.64893E+04  1.04353E+04  4.60684E+03  1.73524E+04
 -1.28288E+04  6.05740E+03 -8.09768E+03 -8.67205E+03  6.52477E+03 -1.01726E+04  1.88614E+04  6.80728E+03
  1.20217E+04  2.17772E+04 -6.73472E+03  2.32939E+04 -2.22935E+04  9.21110E+03 -2.65896E+04 -5.75366E+03
 -1.71049E+04 -1.66676E+04 -6.05494E+03 -1.66457E+04  4.06265E+03 -1.47540E+04  1.35731E+04 -1.53652E+04
  2.13174E+04 -1.15118E+04  2.88462E+04  1.54743E+03  2.20723E+04  1.69633E+04  4.60155E+03  3.17050E+04
 -1.61126E+04  2.81536E+04 -2.63478E+04  8.89483E+03 -1.99429E+04 -1.03588E+04 -3.63434E+03 -1.39288E+04
  1.96392E+03 -3.74669E+03 -1.89676E+03  4.70166E+03 -1.34622E+04  6.18053E+03 -1.25283E+04 -6.07629E+03
 -9.59906E+03 -1.75360E+04  5.50184E+03 -1.91358E+04  1.32839E+04 -1.55085E+04  1.56915E+04 -1.11392E+03
  8.89451E+03  1.08300E+04 -1.92600E+02  1.51226E+04 -1.09067E+04  9.57353E+03 -1.53028E+04 -3.28199E+03
 -1.22036E+04 -1.42252E+04 -2.34522E+03 -1.90645E+04  9.15200E+03 -1.52932E+04  1.60434E+04 -7.36787E+03
  1.57662E+04  4.70105E+02  1.09601E+04  4.59067E+03  5.11117E+03  2.70836E+02  8.26449E+03 -1.61740E+03
  1.31913E+04  1.95349E+03  1.56729E+04  1.35773E+04  8.86702E+03  2.52644E+04 -2.82881E+03  2.70569E+04
 -1.77107E+04  2.02759E+04 -2.49377E+04  9.23313E+03 -2.65338E+04 -2.76984E+03 -2.27396E+04 -1.58702E+04
 -9.21423E+03 -2.13789E+04  6.29359E+03 -1.99903E+04  1.68089E+04 -1.08452E+04  1.63045E+04  4.61260E+03
  6.10619E+03  1.33725E+04 -7.33544E+03  1.07153E+04 -1.38911E+04  2.46467E+03 -1.09166E+04 -8.66903E+03
 -2.51902E+02 -1.31499E+04  6.23213E+03 -1.03974E+04  8.11003E+03 -1.20140E+03  9.36780E+02  5.16243E+03
 -6.17234E+03  1.63259E+03 -3.59061E+03 -3.71983E+03  1.20031E+02 -1.06500E+04  7.91825E+03 -9.10005E+03
  1.28561E+04 -5.43216E+03  1.29382E+04  1.19496E+03  1.22053E+04  1.00959E+04  5.35804E+03  1.46184E+04
 -2.38291E+03  1.67975E+04 -1.08808E+04  1.12924E+04 -1.07938E+04  3.18150E+03 -9.18806E+03 -2.20703E+03
 -4.90849E+03 -2.73134E+03 -1.39851E+03  2.09886E+03 -1.77369E+03  1.67595E+03 -3.70665E+03  3.50151E+03
 -8.58124E+03 -8.99574E+02 -9.77913E+03 -6.99374E+03 -4.36617E+03 -1.11403E+04  3.12933E+03 -8.55268E+03
  7.14717E+03 -3.53935E+03  5.96950E+03  3.36383E+03  4.96874E+02  3.68520E+03 -2.32041E+03 -1.56503E+02
 -3.31241E+03 -5.33267E+03 -1.05724E+03 -7.16293E+03  5.12191E+03 -8.05739E+03  1.09342E+04 -3.93060E+03
  1.30228E+04  7.24263E+02  1.00418E+04  6.68728E+03  1.56285E+03  9.39462E+03 -6.10469E+03  8.43444E+03
 -7.41314E+03  2.77472E+03 -3.31424E+03 -1.25985E+03  1.20343E+03 -1.66239E+03  5.44613E+03 -1.12116E+03
  4.80052E+03  3.98575E+03  1.17819E+03  7.26606E+03 -5.79759E+03  6.60366E+03 -7.81661E+03  9.15483E+02
 -5.51725E+03 -3.16850E+03  3.53428E+02 -7.39024E+03  4.68661E+03 -3.10650E+03  3.19070E+03  7.46124E+02
  4.41155E+02  4.00822E+03 -4.15601E+03  5.42537E+03 -4.88305E+03  3.04203E+03 -5.35961E+03 -1.80470E+03
 -3.30255E+03 -6.70965E+03  2.18104E+03 -8.44173E+03  6.06185E+03 -3.93812E+03  6.14759E+03  3.91733E+02
  3.83988E+03  6.16261E+03  8.01574E+02  7.39916E+03 -4.83706E+03  3.76773E+03 -5.82414E+03  9.98182E+02
 -5.94884E+03 -5.18038E+03 -1.60100E+03 -5.04439E+03  2.58902E+03 -4.73451E+03  3.37152E+03 -2.46917E+03
  2.16772E+03 -6.28002E+01 -1.62092E+02 -2.81442E+02  9.42983E+02  1.03784E+03  7.86867E+02 -1.92129E+03
  4.65652E+03 -1.08458E+03  6.13628E+03  1.28957E+03  6.64220E+03  4.00270E+03  4.99406E+03  8.85038E+03
 -2.59465E+03  8.47321E+03 -8.77990E+03  7.70979E+03 -1.11354E+04  1.10576E+03 -8.05598E+03 -3.40495E+03
 -6.53200E+03 -6.57726E+03  1.63353E+02 -5.44301E+03  2.82562E+03 -2.69498E+03  2.61381E+03 -2.92583E+03
  1.46970E+03 -1.80795E+03  2.42619E+03 -1.90566E+03  4.11109E+03  2.22779E+02  4.30434E+03  3.23514E+02
  5.72375E+03  1.64602E+03  7.81428E+02  3.14602E+03 -7.11966E+01  3.52944E+03 -5.34354E+03  3.83249E+03
 -6.14260E+03 -7.69257E+02 -2.60247E+03 -4.40200E+03 -2.83288E+02 -6.48512E+03  4.02888E+03 -6.17467E+03
  7.00780E+03 -3.70569E+03  6.58386E+03  3.98634E+02  5.81896E+03  3.91922E+03  1.61600E+03  6.98315E+03
 -2.26436E+03  6.45979E+03 -3.41608E+03  1.04242E+03 -2.25987E+03 -1.60151E+03 -4.51262E+02 -1.10718E+03
 -1.11489E+02  1.26439E+03 -2.60854E+02  2.09115E+03 -2.69931E+03  1.31911E+03 -3.81046E+03 -6.02759E+02
 -1.62895E+03 -4.49832E+03  1.69770E+03 -5.72277E+03  2.56162E+03 -3.51696E+03  3.68231E+03 -9.26324E+02
  6.01189E+03  3.17624E+03  2.15894E+03  3.57521E+03 -9.40327E+02  5.45862E+03 -3.82086E+03  3.24340E+03
 -4.70742E+03  8.96255E+02 -3.92909E+03 -3.34002E+03 -2.29583E+02 -3.44703E+03  7.91200E+02 -3.78202E+03
  2.30346E+03 -2.90768E+02  2.01437E+03  4.64136E+02  7.00418E+02  1.85895E+03  1.59147E+03  9.95199E+02
  3.69467E+03  9.69348E+02  9.61127E+02  1.34342E+03  1.28402E+03  3.16950E+03  1.22605E+03  1.63079E+03
 -1.14444E+03  3.72019E+03 -3.72836E+03  5.00684E+03 -4.38350E+03  1.82043E+03 -5.80244E+03 -1.25303E+03
 -1.64276E+03 -3.98816E+03 -2.88699E+02 -4.98996E+03  2.36099E+03 -3.36827E+03  3.66097E+03 -1.47916E+03
  2.14136E+03  2.45794E+03  9.60282E+02  2.96236E+03 -1.44138E+03  5.07589E+02 -1.45914E+03 -1.73095E+02
 -1.61273E+02 -1.48160E+03  1.50560E+03 -2.51907E+03  2.01091E+03 -8.23487E+02  2.52649E+03 -2.76753E+02
  8.21350E+02  5.48260E+02  6.18998E+02  1.91461E+02 -5.14684E+02  1.01815E+03  2.69553E+03 -7.77732E+02
 -2.13036E+02 -3.27325E+02  1.69341E+03  7.81984E+02  8.80094E+02  3.46823E+03 -7.07195E+01  3.92584E+03
 -1.10489E+03  7.48318E+02 -3.45279E+03  1.32263E+02 -2.79616E+03 -3.62839E+02 -7.89369E+02 -1.00261E+03
  2.96180E+02 -1.38140E+03  9.78159E+02 -7.61865E+02  1.05051E+03  2.86142E+02 -7.06757E+02  2.55279E+03
 -9.70346E+02  9.36894E+02 -1.37774E+03 -1.86934E+03 -6.02859E+02 -2.18219E+03 -3.30760E+02 -3.37700E+03
 -1.27889E+01 -1.56945E+02  1.30413E+03 -5.29589E+02  1.48763E+03  6.30102E+02 -7.83181E+01  1.13867E+03
 -3.91428E+02 -4.52641E+02 -4.85912E+02 -1.37909E+03  2.79544E+02 -1.77805E+03  1.84647E+03 -1.66769E+03
  1.98113E+03  7.99450E+02  2.91810E+03  3.72015E+02  2.11525E+03  1.78386E+03 -1.40855E+03  2.00326E+03
 -8.66275E+02  1.29995E+03 -9.34232E+02  2.09987E+02 -1.10029E+03 -1.74964E+03 -1.12610E+03 -1.73612E+02
  2.19883E+03 -1.10257E+03  7.10133E+02  3.54674E+02  5.45818E+02  1.26463E+03  1.01569E+03  1.49660E+03
  1.99508E+02  1.00760E+03 -7.47093E+02 -5.80895E+02  9.15309E+02  1.62400E+02 -2.58945E+03  5.49085E+02
 -5.31665E+02  2.50657E+03 -2.23852E+03  2.60855E+02 -1.94620E+03  6.86490E+02 -2.94664E+03 -1.05667E+03
 -1.59055E+03 -3.21005E+03  2.76664E+01 -2.89217E+03  8.80001E+02 -2.89266E+03  2.84263E+03 -1.86432E+03
  3.69869E+03  1.31410E+03  2.09271E+03  1.60849E+03 -1.96255E+02  1.30298E+03 -5.96787E+02  2.15261E+03
 -3.49609E+02  9.33036E+02  2.69987E+02 -9.36665E+02 -2.09079E+02 -5.73619E+02 -6.65203E+02  1.72022E+02
 -1.06584E+03  2.33447E+02 -3.02852E+02 -5.48517E+02  2.15582E+02 -7.80168E+02 -9.32205E+01 -1.17806E+03
  5.42929E+02 -2.04189E+03  1.57202E+03  1.33319E+02  2.36922E+03  6.69514E+02  6.46573E+02  1.69797E+03
 -1.15188E+03  3.01860E+03 -2.05744E+03  1.21085E+03 -2.66792E+03 -3.61206E+02 -1.74133E+03 -1.89874E+03
 -1.40127E+03 -3.36841E+03 -3.43678E+02 -1.90472E+03  1.23882E+03 -1.76457E+03  9.14861E+02  5.60027E+02
  1.19215E+03  4.90751E+02  9.83191E+02  3.48426E+01 -6.86917E+02  6.46395E+02  3.57457E+02 -7.66994E+02
  7.30603E+02  8.18189E+01  4.12686E+02  5.31633E+02 -1.09515E+02  3.72370E+02 -3.41915E+02  1.72624E+03
 -7.33018E+02  1.27634E+03 -2.37212E+03 -2.57601E+02 -1.23106E+03 -3.33541E+02  2.30781E+02 -2.13706E+03
  9.15548E+02 -5.43417E+02  1.35970E+03 -8.41042E+01  1.96412E+03  4.31203E+02  1.88732E+03  1.41131E+03
 -1.03906E+03  5.87238E+02 -4.36346E+01  8.52682E+02  1.46359E+02  1.08541E+03  5.31288E+02  2.94240E+02
  2.14848E+01  1.02324E+03 -8.75736E+02  6.41723E+02 -6.91349E+02 -3.19244E+02 -1.04142E+03  1.12134E+02
 -1.69091E+03 -3.55654E+01 -3.40332E+02 -8.66768E+02  6.20295E+02 -1.24234E+03  1.91515E+03 -6.86226E+02
  6.53745E+02  2.01702E+02 -4.79114E+02  2.79301E+02  1.96897E+02  1.25032E+03 -1.44905E+03  1.65473E+03
