 $NMID ID='MM_0lb_SNR200_13hz_g55_65.RAW', FMTDAT='(8E13.5)'
 TRAMP=1., VOLUME=1. $END
  3.09607E+05 -7.96175E+02  3.36999E+05  2.48856E+05  8.48300E+04  3.37040E+05 -1.32782E+05  2.51891E+05
 -1.91236E+05  8.23258E+04 -1.12381E+05 -3.14102E+04  7.22762E+02 -5.11484E+04  5.36583E+04 -1.02945E+03
  3.50586E+04  5.29600E+04 -1.80131E+04  7.63407E+04 -6.04285E+04  6.31935E+04 -8.57721E+04  3.19735E+04
 -8.10410E+04 -1.18112E+04 -5.76699E+04 -5.03453E+04 -1.33458E+04 -6.92541E+04  2.70474E+04 -4.64144E+04
  3.97117E+04  3.29138E+03  1.60119E+04  4.80126E+04 -3.45300E+04  4.66235E+04 -6.71016E+04 -1.25083E+03
 -5.43318E+04 -5.70975E+04 -7.74449E+03 -7.80748E+04  3.35720E+04 -5.53952E+04  4.99479E+04 -1.92552E+04
  4.38179E+04  1.09181E+04  3.30030E+04  2.68564E+04  1.55545E+04  3.12013E+04 -5.13423E+03  2.59480E+04
 -2.24096E+04  1.18147E+04 -1.80769E+04 -4.31652E+03  6.44348E+03 -6.59039E+03  2.25666E+04  1.29763E+04
  7.88251E+03  3.62544E+04 -3.31453E+04  3.56479E+04 -6.49511E+04  2.95135E+03 -5.73737E+04 -4.50053E+04
 -1.28294E+04 -6.47450E+04  4.06247E+04 -4.71455E+04  6.12961E+04 -1.32836E+03  3.41331E+04  3.30394E+04
 -6.25688E+03  3.72882E+04 -3.17213E+04  1.67968E+04 -3.16878E+04 -3.35762E+03 -1.78959E+04 -1.06517E+04
 -8.63551E+03 -1.40198E+04  1.58719E+02 -1.84861E+04  7.63125E+03 -2.29878E+04  1.49234E+04 -1.33999E+04
  1.12936E+04  5.01461E+03 -9.46341E+03  1.21127E+04 -2.23255E+04 -5.58227E+03 -7.58748E+03 -3.53933E+04
  2.40574E+04 -4.57618E+04  5.09377E+04 -1.95096E+04  4.75832E+04  1.99090E+04  1.74365E+04  4.56635E+04
 -1.61454E+04  3.49508E+04 -2.58958E+04  2.27203E+03 -1.16079E+04 -2.76962E+04  2.12593E+04 -3.49499E+04
  4.29692E+04 -9.02001E+03  3.80274E+04  2.46445E+04  1.98499E+04  4.74674E+04 -8.16395E+03  5.25824E+04
 -3.35522E+04  3.49392E+04 -4.31660E+04  1.11029E+04 -4.61815E+04 -1.64985E+04 -2.34469E+04 -3.94743E+04
  7.86033E+03 -3.87417E+04  3.24556E+04 -1.75164E+04  3.04718E+04  1.18478E+04  5.58276E+03  1.93088E+04
 -1.29503E+04  8.77778E+03 -9.51709E+03 -7.85731E+03  4.34460E+03 -9.84991E+03  1.77586E+04  6.93213E+03
  1.42956E+04  2.08026E+04 -5.37703E+03  2.57305E+04 -2.32303E+04  1.25424E+04 -2.92229E+04 -4.06699E+03
 -2.30707E+04 -1.77406E+04 -9.00175E+03 -2.17741E+04  3.88808E+03 -2.15338E+04  1.59159E+04 -2.00448E+04
  2.94218E+04 -1.23222E+04  3.32616E+04  3.17166E+03  2.43859E+04  2.22775E+04  5.25254E+03  3.66570E+04
 -2.00215E+04  3.23525E+04 -2.81103E+04  1.17454E+04 -2.17586E+04 -1.09700E+04 -4.00743E+03 -1.15064E+04
  1.25766E+03 -2.49922E+03 -5.93279E+03  7.04023E+03 -1.75609E+04  5.30025E+03 -1.86648E+04 -6.04386E+03
 -1.04489E+04 -2.00260E+04  5.94466E+03 -2.46958E+04  1.57679E+04 -1.71224E+04  1.97094E+04 -2.02596E+03
  1.23360E+04  1.30292E+04 -1.69487E+03  2.08261E+04 -1.28749E+04  1.12514E+04 -1.99997E+04 -5.57736E+03
 -1.58209E+04 -1.79101E+04 -1.89066E+03 -2.50493E+04  1.20333E+04 -2.04420E+04  2.16486E+04 -1.11909E+04
  1.93712E+04 -1.76783E+02  1.42947E+04  5.09573E+03  7.67722E+03 -7.85555E+01  9.40481E+03 -3.52169E+03
  2.10919E+04  3.10205E+03  2.04951E+04  1.62398E+04  1.31804E+04  3.25572E+04 -3.79336E+03  3.69031E+04
 -2.20407E+04  3.03169E+04 -3.43804E+04  1.64419E+04 -3.78141E+04 -2.96304E+03 -2.88896E+04 -2.16577E+04
 -1.37619E+04 -3.06007E+04  1.10103E+04 -2.67670E+04  2.40645E+04 -1.44205E+04  2.06804E+04  5.55757E+03
  7.90696E+03  1.55103E+04 -8.83005E+03  1.20954E+04 -1.73129E+04  1.80160E+03 -1.31913E+04 -1.13714E+04
  1.35693E+03 -1.65132E+04  8.70535E+03 -1.19841E+04  1.08802E+04 -1.13570E+03  2.56524E+03  7.67993E+03
 -7.80691E+03  2.78126E+03 -8.27090E+03 -6.06122E+03 -8.29508E+02 -1.54881E+04  1.03375E+04 -1.48655E+04
  1.89411E+04 -7.84066E+03  1.94926E+04  4.40419E+03  1.85226E+04  1.48823E+04  7.54327E+03  2.36669E+04
 -3.57967E+03  2.47178E+04 -1.76163E+04  1.53259E+04 -1.64909E+04  3.51087E+03 -1.22194E+04 -3.90662E+03
 -4.19929E+03 -4.91862E+03 -6.01330E+02  3.12302E+02 -1.43024E+03  1.62779E+03 -5.34696E+03  4.58541E+03
 -1.22851E+04  1.18490E+02 -1.20775E+04 -1.06140E+04 -4.60282E+03 -1.54846E+04  5.21247E+03 -1.30815E+04
  1.03925E+04 -5.09440E+03  6.64027E+03  1.86194E+03  4.78352E+02  5.96586E+03 -4.82564E+03 -7.07950E-01
 -5.21127E+03 -7.88018E+03 -6.66043E+02 -1.11410E+04  7.34532E+03 -1.23693E+04  1.65998E+04 -7.16288E+03
  1.73984E+04  2.82839E+03  1.39742E+04  1.10027E+04  2.67801E+03  1.53547E+04 -7.36593E+03  1.24666E+04
 -1.01829E+04  4.57492E+03 -5.55483E+03 -1.29169E+03  2.15321E+03 -4.26336E+03  5.48526E+03 -4.89147E+02
  6.01241E+03  5.64634E+03  2.13383E+03  1.00297E+04 -7.46234E+03  9.62316E+03 -1.26526E+04  2.43878E+03
 -8.18483E+03 -5.39674E+03 -5.04501E+02 -1.14659E+04  7.26062E+03 -5.24195E+03  6.06146E+03  2.08631E+03
  6.51209E+02  6.64009E+03 -6.98428E+03  8.39321E+03 -9.03010E+03  3.96249E+03 -1.02252E+04 -3.76735E+03
 -5.93367E+03 -1.01523E+04  3.90118E+03 -1.26657E+04  1.08115E+04 -7.53542E+03  1.21606E+04  3.10596E+03
  6.09906E+03  9.45830E+03 -6.94135E+02  1.07430E+04 -9.20777E+03  6.95272E+03 -8.10620E+03 -1.07499E+03
 -6.58370E+03 -8.95021E+03 -2.22159E+03 -9.08903E+03  4.49192E+03 -8.23880E+03  5.89408E+03 -2.91941E+03
  4.22292E+03  1.16576E+03 -5.65629E+02  1.52963E+03 -3.32413E+02 -2.68611E+03  2.41126E+03 -4.12572E+03
  7.03438E+03 -2.89998E+03  1.07101E+04  1.84301E+03  1.22253E+04  7.29698E+03  7.37058E+03  1.38534E+04
 -3.17837E+03  1.62317E+04 -1.43337E+04  1.20284E+04 -1.81320E+04  3.23646E+03 -1.54825E+04 -6.27604E+03
 -7.67926E+03 -1.15535E+04 -5.15550E+02 -1.06343E+04  3.23396E+03 -6.21675E+03  2.64453E+03 -3.41990E+03
  2.71286E+03 -2.16450E+03  3.85429E+03 -3.85122E+03  4.19397E+03 -2.02466E+03  6.62608E+03 -9.05567E+02
  7.73112E+03  1.47082E+03  3.01823E+03  6.03977E+03 -2.84987E+03  6.97748E+03 -7.14475E+03  4.94187E+03
 -9.75013E+03 -3.54749E+02 -4.65867E+03 -5.80555E+03 -9.81573E+02 -1.14072E+04  5.35450E+03 -1.01593E+04
  1.15049E+04 -6.37398E+03  1.29327E+04  2.80756E+03  9.90637E+03  7.53296E+03  1.73623E+03  1.22657E+04
 -4.07038E+03  1.05323E+04 -7.63298E+03  3.61529E+03 -5.58029E+03  2.51654E+02 -2.13758E+03 -2.47120E+03
 -1.92979E+02  6.81960E+02 -1.79700E+03  1.45824E+03 -5.02287E+03  2.81596E+03 -5.62422E+03 -7.30545E+02
 -3.10078E+03 -6.68364E+03  9.22598E+02 -9.28102E+03  6.89666E+03 -8.00146E+03  9.28589E+03 -2.62733E+03
  8.95179E+03  5.57419E+03  5.04530E+03  9.15467E+03 -1.95964E+03  9.55887E+03 -6.59823E+03  5.90956E+03
 -8.41703E+03  6.92335E+01 -6.42554E+03 -5.66649E+03 -2.83545E+03 -8.70754E+03  4.29015E+03 -4.88067E+03
  6.23578E+03 -2.30791E+03  5.24682E+03  9.32065E+02  2.96164E+02  3.69575E+03  6.11911E+02  1.38307E+03
  3.01640E+03  1.65078E+03  1.52437E+03  1.58144E+03  2.75464E+03  2.83518E+03  1.69880E+03  4.33054E+03
 -3.22530E+03  6.20496E+03 -6.98076E+03  7.26734E+03 -9.47669E+03  1.42201E+03 -9.64806E+03 -3.94967E+03
 -3.15955E+03 -8.07018E+03  1.80579E+03 -9.87712E+03  6.85031E+03 -5.97361E+03  7.88612E+03 -1.48741E+03
  6.37587E+03  3.12066E+03  2.60604E+03  5.00139E+03 -2.07411E+03  3.26059E+03 -2.86785E+03 -5.26026E+02
 -1.85447E+03 -5.77199E+03  1.46319E+03 -5.00800E+03  2.86396E+03 -1.62540E+03  2.74334E+03 -1.32598E+03
  3.04593E+03  1.73261E+03  5.86989E+02  1.13912E+03 -1.43658E+03  1.79819E+03  1.84363E+03 -9.38786E+02
  2.94054E+03 -6.83761E+02  3.79137E+03  6.38549E+02  8.17576E+02  4.15875E+03 -7.27249E+02  6.28102E+03
 -4.71123E+03  3.68542E+03 -6.01410E+03  1.29964E+03 -5.00231E+03 -2.73867E+03 -3.24456E+03 -3.11155E+03
  1.24188E+03 -1.81890E+03  2.57390E+03 -1.62974E+03  2.49687E+03  2.36374E+03 -1.49725E+02  4.28638E+03
 -3.47892E+03  1.75063E+03 -2.56924E+03 -2.01531E+03 -6.66022E+02 -4.78585E+03 -1.23788E+02 -5.60144E+03
  2.48189E+03 -1.30647E+03  3.34563E+03 -2.80895E+02  3.52340E+03  1.58530E+03 -4.75647E+02  2.95170E+03
 -2.08286E+03  1.31719E+03 -2.19806E+03 -7.96405E+02  1.83975E+03 -2.69082E+03  4.29276E+03 -3.22308E+03
  4.13226E+03  2.30949E+02  4.97790E+03  4.30321E+03  2.02952E+03  5.82239E+03 -1.95326E+03  4.54239E+03
 -3.85645E+03  1.92925E+03 -4.49479E+03 -4.10077E+02 -2.63543E+03 -4.03136E+03  5.90030E+02 -4.84763E+03
  2.65431E+03 -6.59326E+02  3.68277E+03 -1.29216E+02  1.34452E+03  2.05007E+03 -1.14233E+03  3.73325E+03
 -9.31112E+02  2.46683E+03 -1.83054E+03 -3.02045E+02 -2.56818E+01  7.30082E+02 -2.78194E+01  1.46477E+03
 -5.84571E+02  1.29690E+03 -5.26991E+03  3.01194E+03 -5.79785E+03  7.65946E+02 -6.13502E+03 -2.88754E+03
 -3.07175E+03 -6.86741E+03  2.69236E+03 -7.03924E+03  4.50612E+03 -7.19061E+03  7.23434E+03 -1.45960E+03
  7.21338E+03  7.46669E+02  5.03738E+03  5.92061E+03 -1.15246E+03  5.03253E+03 -3.24831E+03  4.45195E+03
 -4.03644E+03  1.52845E+03 -1.72538E+03  4.60138E+02 -1.29695E+03 -6.62070E+02 -1.27384E+03  1.41493E+02
 -1.85319E+03  8.13149E+02 -2.30219E+01 -3.24773E+02 -5.57917E+01 -2.24949E+03 -3.70741E+02 -2.58899E+03
  1.69297E+03 -2.54370E+03  3.63566E+03 -1.44531E+03  4.67605E+03  3.28170E+03  8.97011E+02  5.10394E+03
 -2.59363E+03  6.05339E+03 -4.99371E+03  4.17801E+03 -7.18265E+03 -4.23245E+02 -4.93398E+03 -3.95360E+03
 -2.09093E+03 -5.79454E+03  5.82106E+02 -5.20998E+03  3.60339E+03 -2.94132E+03  3.03522E+03  3.50557E+02
  3.02017E+03  1.69264E+03 -1.81603E+02  2.10030E+03 -5.43472E+02 -1.00516E+02 -2.85363E+02 -8.02973E+02
  1.76157E+03 -1.52201E+03  1.35624E+03  8.99482E+02  1.65904E+02  2.77053E+03  8.24884E+02  1.81227E+03
 -2.33424E+03  2.22644E+03 -2.64572E+03 -9.11254E+00 -3.36592E+03 -2.17064E+03 -1.06127E+02 -4.05760E+03
  1.33509E+03 -3.84990E+03  3.03650E+03  1.97703E+02  5.04245E+03  1.17794E+03  2.26539E+03  3.70058E+03
  1.41178E+03  2.12586E+03 -1.12791E+03  2.79207E+03 -1.98027E+03  1.25576E+03 -1.21965E+03  1.16887E+03
 -6.91233E+02 -1.28028E+01 -1.90646E+03 -1.10226E+02 -2.04625E+03  1.25621E+00 -1.65488E+03 -1.35654E+03
 -1.79191E+03 -1.66997E+03  5.05867E+02 -3.54665E+03  8.90839E+02 -2.68724E+03  3.30059E+03 -1.02722E+03
  2.07089E+03  2.16807E+02  1.34736E+02  1.67381E+03 -5.62690E+02  3.07316E+03 -3.75420E+03  1.84843E+03
