 $NMID ID='MM_0lb_SNR200_10hz_g45_11.RAW', FMTDAT='(8E13.5)'
 TRAMP=1., VOLUME=1. $END
  3.09941E+05  2.92598E+02  3.38498E+05  2.49944E+05  8.56079E+04  3.38316E+05 -1.33047E+05  2.51568E+05
 -1.90324E+05  8.47495E+04 -1.12755E+05 -3.31222E+04  1.31561E+03 -5.10236E+04  5.39832E+04 -7.50520E+02
  3.49872E+04  5.29252E+04 -1.61891E+04  7.61130E+04 -6.12771E+04  6.27610E+04 -8.48413E+04  3.14154E+04
 -8.20308E+04 -1.29080E+04 -5.73877E+04 -5.37485E+04 -1.72207E+04 -7.06715E+04  2.71147E+04 -4.56874E+04
  4.13416E+04  2.65859E+03  1.72187E+04  4.72361E+04 -3.49941E+04  4.76603E+04 -6.79491E+04 -4.12703E+02
 -5.39164E+04 -5.75967E+04 -8.68382E+03 -7.81758E+04  3.43330E+04 -5.74358E+04  4.86825E+04 -1.82859E+04
  4.30956E+04  1.31693E+04  3.25183E+04  2.64113E+04  1.67201E+04  3.14883E+04 -5.81885E+03  2.76352E+04
 -2.26001E+04  1.16515E+04 -1.80891E+04 -5.09551E+03  3.94162E+03 -7.42395E+03  2.24245E+04  1.23939E+04
  7.62553E+03  3.60120E+04 -3.29233E+04  3.64997E+04 -6.61924E+04  2.94373E+03 -5.86578E+04 -4.45730E+04
 -1.27176E+04 -6.38542E+04  3.98449E+04 -4.69308E+04  6.07053E+04 -3.43825E+03  3.53030E+04  3.24400E+04
 -6.54572E+03  3.81459E+04 -3.20335E+04  1.85139E+04 -3.25161E+04 -3.71004E+03 -1.79177E+04 -1.24944E+04
 -9.17425E+03 -1.43326E+04 -6.33428E+02 -2.00012E+04  6.81993E+03 -2.35319E+04  1.49411E+04 -1.29709E+04
  1.02669E+04  7.06904E+03 -8.86273E+03  1.35396E+04 -2.43400E+04 -6.06676E+03 -8.71192E+03 -3.63541E+04
  2.49348E+04 -4.50724E+04  4.96720E+04 -2.01818E+04  4.81629E+04  2.07738E+04  1.57529E+04  4.69822E+04
 -1.82031E+04  3.56500E+04 -2.81892E+04  2.25693E+03 -1.02960E+04 -2.98357E+04  2.04836E+04 -3.75382E+04
  4.26298E+04 -1.10682E+04  3.81095E+04  2.39627E+04  2.23653E+04  5.05487E+04 -8.72898E+03  5.34225E+04
 -3.39445E+04  3.74281E+04 -4.60743E+04  9.86618E+03 -4.54487E+04 -1.75981E+04 -2.54934E+04 -3.98199E+04
  8.39908E+03 -3.99645E+04  3.13579E+04 -1.49606E+04  3.13225E+04  1.06609E+04  4.77741E+03  2.06853E+04
 -1.33592E+04  9.46649E+03 -1.20868E+04 -7.62702E+03  6.20056E+03 -9.60454E+03  1.93094E+04  5.95754E+03
  1.47428E+04  2.14989E+04 -5.57646E+03  2.57810E+04 -2.36028E+04  1.35699E+04 -3.04181E+04 -3.68559E+03
 -2.38923E+04 -1.85375E+04 -9.97195E+03 -2.32382E+04  4.08362E+03 -2.39078E+04  1.77802E+04 -2.02468E+04
  2.99496E+04 -1.38110E+04  3.61080E+04  4.69071E+03  2.64093E+04  2.35374E+04  3.46911E+03  4.03364E+04
 -2.06277E+04  3.34795E+04 -2.94339E+04  1.17871E+04 -2.23736E+04 -9.69864E+03 -3.41498E+03 -1.37154E+04
  2.54173E+03 -1.36859E+03 -7.68707E+03  8.15046E+03 -1.90267E+04  4.26081E+03 -1.85568E+04 -8.65645E+03
 -1.17683E+04 -2.25526E+04  7.43145E+03 -2.77371E+04  1.79294E+04 -1.76380E+04  2.20126E+04 -1.55404E+03
  1.38452E+04  1.46749E+04 -1.69857E+03  2.24540E+04 -1.63928E+04  1.31064E+04 -2.21122E+04 -5.07286E+03
 -1.57678E+04 -1.88714E+04 -1.98051E+03 -2.64247E+04  1.01911E+04 -2.16233E+04  2.19746E+04 -1.27050E+04
  2.01398E+04  9.53949E+02  1.59668E+04  5.34092E+03  8.54123E+03  1.00892E+03  1.16006E+04 -1.74042E+03
  2.23234E+04  1.10148E+03  2.25438E+04  1.66209E+04  1.64267E+04  3.50834E+04 -3.48151E+03  4.04469E+04
 -2.42190E+04  3.32136E+04 -3.95967E+04  1.80762E+04 -4.01148E+04 -3.23404E+03 -3.43012E+04 -2.34740E+04
 -1.27354E+04 -3.29500E+04  1.20031E+04 -2.98110E+04  2.52260E+04 -1.32271E+04  2.36208E+04  6.36627E+03
  7.68441E+03  1.75508E+04 -1.15375E+04  1.46474E+04 -1.93471E+04  3.14160E+03 -1.56422E+04 -1.04769E+04
  8.25990E+02 -1.80347E+04  1.02579E+04 -1.28853E+04  1.25470E+04 -1.35687E+03  2.49276E+03  8.71411E+03
 -9.05428E+03  3.47348E+03 -9.07429E+03 -7.47746E+03 -2.13809E+03 -1.62658E+04  1.15921E+04 -1.82367E+04
  2.18117E+04 -1.05267E+04  2.45288E+04  3.53923E+03  2.05758E+04  1.72196E+04  1.10300E+04  2.48325E+04
 -5.08466E+03  2.65795E+04 -1.83435E+04  1.82322E+04 -1.98864E+04  5.41895E+03 -1.40907E+04 -5.80647E+03
 -6.23383E+03 -6.76249E+03 -4.10133E+02  1.67209E+03 -3.72992E+03  3.42342E+03 -6.20688E+03  6.16611E+03
 -1.28375E+04 -2.34858E+03 -1.50923E+04 -9.44699E+03 -4.07068E+03 -1.81755E+04  4.62298E+03 -1.59443E+04
  1.09691E+04 -5.87108E+03  9.39285E+03  4.60679E+03  4.22382E+02  4.28394E+03 -6.26759E+03 -7.44204E+01
 -7.09577E+03 -9.16534E+03  2.16482E+02 -1.57244E+04  8.63253E+03 -1.30938E+04  1.71891E+04 -7.24946E+03
  2.07455E+04  2.92431E+03  1.52473E+04  1.30830E+04  3.13911E+03  1.66765E+04 -7.69454E+03  1.62339E+04
 -1.06566E+04  4.26783E+03 -6.23529E+03 -4.53634E+03  2.85395E+03 -5.13445E+03  7.59777E+03 -2.42605E+03
  6.37234E+03  7.40061E+03  1.87299E+03  1.13554E+04 -8.18792E+03  9.79847E+03 -1.42309E+04  3.64744E+03
 -8.84611E+03 -4.76027E+03  6.37381E+02 -1.33854E+04  6.73934E+03 -6.06637E+03  9.01915E+03  1.78475E+03
  2.08992E+03  9.20882E+03 -6.34429E+03  1.09437E+04 -1.38902E+04  5.39654E+03 -1.29276E+04 -6.50235E+03
 -6.62150E+03 -1.47334E+04  2.55135E+03 -1.65032E+04  1.31785E+04 -8.65206E+03  1.49553E+04  4.00165E+03
  8.63291E+03  1.10812E+04 -2.38959E+03  1.31984E+04 -1.10789E+04  9.11248E+03 -1.26807E+04 -2.64604E+03
 -1.07599E+04 -8.69135E+03 -3.19768E+03 -1.28331E+04  5.72729E+03 -9.11010E+03  7.50597E+03 -3.77580E+03
  4.70521E+03  1.15536E+03  8.05645E+01  1.78049E+03 -4.70717E+02 -4.52154E+03  3.21264E+03 -5.53326E+03
  1.01673E+04 -3.07226E+03  1.49421E+04  2.01871E+03  1.43964E+04  9.29045E+03  9.96514E+03  1.96532E+04
 -3.46771E+03  2.25954E+04 -1.77593E+04  1.58346E+04 -2.32236E+04  1.98063E+03 -1.81365E+04 -7.80641E+03
 -9.20737E+03 -1.59470E+04 -1.18586E+03 -1.21868E+04  4.95904E+03 -6.70518E+03  4.73107E+03 -5.53032E+03
  3.74785E+03 -2.99556E+03  4.14944E+03 -4.31861E+03  6.32948E+03 -2.99612E+03  7.56202E+03 -1.34658E+03
  8.47692E+03  2.45770E+03  4.50442E+03  7.19955E+03 -1.89513E+03  9.83658E+03 -9.71436E+03  7.33571E+03
 -1.19811E+04 -9.59869E+02 -8.09149E+03 -8.55038E+03 -2.19320E+03 -1.29613E+04  8.66845E+03 -1.49891E+04
  1.53300E+04 -7.10945E+03  1.77768E+04  2.02130E+03  1.31297E+04  1.00347E+04  3.68743E+03  1.59529E+04
 -5.61934E+03  1.34698E+04 -9.54942E+03  4.47202E+03 -6.81263E+03 -3.23656E+03 -1.91231E+03 -3.50631E+03
 -1.78199E+01  5.35884E+02 -2.30953E+03  3.53705E+03 -6.31007E+03  2.38385E+03 -7.43698E+03 -1.09953E+03
 -5.76630E+03 -9.33822E+03  1.71361E+03 -1.04400E+04  9.63829E+03 -1.20462E+04  1.20541E+04 -2.73719E+03
  1.23816E+04  5.57282E+03  5.36059E+03  1.05667E+04 -5.62718E+02  1.17467E+04 -1.07818E+04  8.26609E+03
 -1.08066E+04  6.54380E+02 -9.86775E+03 -7.97762E+03 -1.37605E+02 -1.04678E+04  6.43405E+03 -7.96387E+03
  7.21514E+03 -1.90017E+03  4.39894E+03  2.88652E+03  1.33905E+03  3.93059E+03  2.14407E+03  2.48674E+03
  1.93870E+03  1.60370E+02  3.38402E+03  9.54759E+02  3.19831E+03  3.37377E+03  4.95909E+03  6.79365E+03
 -3.12033E+03  9.84470E+03 -8.18235E+03  1.03340E+04 -1.29056E+04  3.54768E+03 -1.33332E+04 -5.70195E+03
 -6.17441E+03 -1.18247E+04  3.42021E+03 -1.44815E+04  9.03526E+03 -8.76628E+03  1.08345E+04 -4.40920E+03
  7.72820E+03  4.56766E+03  1.95936E+03  8.10012E+03 -2.84364E+03  4.60781E+03 -5.59706E+03  6.00256E+02
 -2.18305E+03 -4.34647E+03  2.98636E+03 -4.49395E+03  5.18579E+03 -2.04942E+03  6.13331E+03  8.08086E+02
  1.93491E+03  2.37389E+03  1.95108E+03  1.90628E+03 -4.93875E+02  3.19062E+03  7.19487E+02 -2.79507E+02
  1.14506E+03 -1.39069E+03  5.02477E+03  2.82252E+03  4.23440E+03  6.21557E+03 -4.39390E+02  9.11648E+03
 -7.24439E+03  6.71556E+03 -8.78845E+03  5.25623E+02 -6.80464E+03 -3.72283E+03 -6.19425E+02 -5.11698E+03
  1.04616E+03 -5.66022E+03  3.86252E+03 -8.54160E+02  2.04028E+03  2.13059E+03 -1.85832E+03  4.82934E+03
 -4.73777E+03  3.13187E+03 -5.00716E+03 -1.03978E+03 -3.69548E+03 -7.30764E+03  1.31785E+03 -7.93593E+03
  2.79315E+03 -5.55652E+03  5.54078E+03 -2.82466E+03  4.31205E+03  1.48793E+03  1.81265E+03  3.40964E+03
 -2.17156E+03  2.75748E+02 -3.96405E+03 -3.09322E+03  2.12378E+03 -6.41886E+03  5.42228E+03 -4.48246E+03
  9.12878E+03  1.64429E+03  8.80474E+03  5.48089E+03  3.04021E+03  7.51767E+03 -2.28845E+03  7.37992E+03
 -7.50954E+03  3.97213E+03 -6.15456E+03  1.00707E+02 -3.62142E+03 -4.30777E+03  1.67651E+03 -6.08842E+03
  6.57085E+03 -9.11738E+02  6.04131E+03  2.77343E+03  1.57689E+03  3.17989E+03 -9.08638E+02  4.13809E+03
 -3.80879E+03  2.28351E+03 -1.37068E+03  4.38888E+02 -1.31983E+03  2.99412E+03 -1.90394E+03  8.86685E+02
 -2.33243E+03  4.15418E+03 -6.28668E+03  1.49841E+02 -7.74770E+03 -2.53953E+01 -9.20364E+03 -4.03400E+03
 -4.35257E+03 -1.11708E+04  3.56102E+03 -1.23398E+04  8.06082E+03 -8.83551E+03  1.13253E+04 -4.27043E+03
  1.07222E+04  3.05382E+03  7.15118E+03  7.92643E+03 -7.09299E+02  8.29883E+03 -3.04635E+03  7.50463E+03
 -4.11311E+03  2.17407E+03 -2.23870E+03 -2.62961E+03 -1.62538E+03  2.03549E+02 -6.93179E+01 -1.75802E+03
 -2.25370E+03  3.04058E+02 -3.23520E+03 -1.05590E+03  7.33569E+02 -1.75570E+03 -1.36923E+03 -3.37665E+03
  4.08727E+03 -2.04958E+03  5.40856E+03 -8.67493E+02  6.64446E+03  3.21463E+03  1.63820E+03  9.45457E+03
 -2.68399E+03  9.91437E+03 -1.01230E+04  6.48962E+03 -9.66512E+03 -5.89214E+02 -7.60467E+03 -6.38994E+03
 -3.76804E+03 -7.87943E+03  2.42076E+03 -8.09647E+03  4.48555E+03 -4.00944E+03  6.66928E+03  6.00421E+02
  3.98545E+03  3.04404E+03 -3.47641E+02  1.98886E+03 -1.18588E+03 -2.71714E+02 -2.64911E+02 -7.45303E+02
  1.99240E+03 -6.43692E+02  2.35616E+03  1.29791E+03  2.08117E+03  2.23455E+03 -2.46087E+02  4.40922E+03
 -2.72608E+03  4.14572E+03 -5.04987E+03  1.48250E+03 -5.24123E+03 -3.34530E+03 -7.70598E+02 -6.53723E+03
  3.74511E+03 -5.19949E+03  5.52782E+03 -2.14969E+03  4.58267E+03  3.07111E+02  4.34206E+03  5.24440E+03
  8.98896E+02  4.97538E+03 -2.22681E+03  4.48663E+03 -4.14259E+03  1.63533E+03 -2.23167E+03  1.03769E+03
 -1.17127E+03 -3.66482E+02 -1.65308E+03 -2.80983E+02 -2.79592E+03 -1.90657E+02 -4.08217E+03 -6.84611E+02
 -4.74100E+03 -2.88626E+03 -1.35849E+03 -5.66374E+03  3.40197E+03 -5.61621E+03  5.56714E+03 -2.79446E+03
  3.79875E+03  5.14273E+02  2.63226E+03  4.54373E+03  1.12326E+03  5.38635E+03 -3.93931E+03  4.60351E+03
