 $NMID ID='MM_0lb_SNR200_8hz_g40_33.RAW', FMTDAT='(8E13.5)'
 TRAMP=1., VOLUME=1. $END
  3.10108E+05 -3.56157E+02  3.37302E+05  2.50292E+05  8.37460E+04  3.38852E+05 -1.32293E+05  2.52196E+05
 -1.89799E+05  8.47829E+04 -1.12866E+05 -3.26428E+04  3.30343E+02 -4.97262E+04  5.37464E+04 -1.72415E+03
  3.44003E+04  5.19747E+04 -1.80584E+04  7.62715E+04 -6.02091E+04  6.50762E+04 -8.31275E+04  3.32080E+04
 -8.20134E+04 -1.19802E+04 -5.74375E+04 -5.27656E+04 -1.47214E+04 -7.06488E+04  2.99409E+04 -4.82160E+04
  3.94033E+04  4.12026E+03  1.60587E+04  4.81489E+04 -3.47145E+04  4.83390E+04 -6.81094E+04 -7.06742E+02
 -5.41579E+04 -5.91531E+04 -9.00695E+03 -7.81247E+04  3.36094E+04 -5.67434E+04  5.03181E+04 -1.73466E+04
  4.54640E+04  1.21615E+04  3.38082E+04  2.68806E+04  1.68690E+04  3.23301E+04 -5.61703E+03  2.77776E+04
 -2.45987E+04  1.20006E+04 -1.89470E+04 -4.31053E+03  7.43888E+03 -6.76943E+03  2.31254E+04  1.37189E+04
  6.12369E+03  3.81000E+04 -3.36657E+04  3.73200E+04 -6.45115E+04  2.36203E+03 -5.87337E+04 -4.33919E+04
 -1.30441E+04 -6.67738E+04  4.20339E+04 -4.65793E+04  6.34842E+04 -2.84643E+03  3.67178E+04  3.36789E+04
 -6.37089E+03  3.92936E+04 -3.17466E+04  1.94287E+04 -3.21614E+04 -3.12781E+03 -1.82487E+04 -1.16595E+04
 -1.06745E+04 -1.54102E+04 -2.60446E+03 -1.97235E+04  7.76864E+03 -2.33726E+04  1.47214E+04 -1.35684E+04
  1.23783E+04  5.01834E+03 -1.10958E+04  1.16237E+04 -2.36654E+04 -7.30885E+03 -8.80646E+03 -3.86277E+04
  2.63158E+04 -4.68640E+04  5.13135E+04 -2.09890E+04  4.86830E+04  2.24122E+04  1.74111E+04  4.57301E+04
 -1.60836E+04  3.69710E+04 -2.79855E+04  2.01433E+03 -1.21289E+04 -2.82766E+04  2.24681E+04 -3.59808E+04
  4.65152E+04 -1.07035E+04  4.11871E+04  2.61886E+04  2.02897E+04  5.25734E+04 -7.61887E+03  5.45919E+04
 -3.66428E+04  3.83024E+04 -4.67894E+04  1.10457E+04 -4.61243E+04 -1.82973E+04 -2.72162E+04 -4.20484E+04
  5.99596E+03 -4.17658E+04  3.40721E+04 -1.94363E+04  3.32398E+04  1.10242E+04  5.35068E+03  2.08600E+04
 -1.36977E+04  8.53940E+03 -1.10472E+04 -6.49688E+03  6.85439E+03 -1.16835E+04  1.86792E+04  6.77057E+03
  1.54798E+04  2.29261E+04 -4.21204E+03  2.56335E+04 -2.16094E+04  1.47454E+04 -3.13056E+04 -3.81970E+03
 -2.61380E+04 -1.82040E+04 -1.25239E+04 -2.53884E+04  4.08905E+03 -2.59599E+04  1.97263E+04 -2.27005E+04
  3.18896E+04 -1.48038E+04  3.83680E+04  4.43484E+03  2.73726E+04  2.42986E+04  4.53012E+03  4.18761E+04
 -1.82412E+04  3.28840E+04 -2.92270E+04  1.24024E+04 -2.20870E+04 -1.17801E+04 -4.23933E+03 -1.22860E+04
 -1.43608E+03  1.78874E+02 -8.03968E+03  7.44624E+03 -2.11629E+04  4.59655E+03 -2.06658E+04 -9.86960E+03
 -1.21855E+04 -2.42766E+04  8.61184E+03 -2.84319E+04  1.80534E+04 -1.98669E+04  2.24198E+04 -1.46118E+03
  1.63510E+04  1.64924E+04 -3.30942E+03  2.45438E+04 -1.49625E+04  1.29849E+04 -2.27981E+04 -3.52547E+03
 -1.86264E+04 -2.07943E+04 -2.49656E+03 -2.93396E+04  1.25330E+04 -2.37187E+04  2.24318E+04 -1.12129E+04
  2.30550E+04  1.24214E+03  1.52308E+04  6.82388E+03  7.90748E+03  2.11610E+03  1.11642E+04 -3.33738E+03
  2.08805E+04  1.49583E+03  2.52829E+04  1.84847E+04  1.61808E+04  3.83126E+04 -2.12590E+03  4.50403E+04
 -2.47433E+04  3.74733E+04 -4.49506E+04  1.92577E+04 -4.50460E+04 -4.25346E+03 -3.85595E+04 -2.74855E+04
 -1.44668E+04 -3.79977E+04  1.39737E+04 -3.25629E+04  3.01463E+04 -1.50849E+04  2.54609E+04  9.00282E+03
  7.20283E+03  1.90212E+04 -1.28477E+04  1.77580E+04 -2.05944E+04  2.40295E+03 -1.61079E+04 -1.26747E+04
 -5.85103E+02 -1.80110E+04  1.08591E+04 -1.49489E+04  1.35835E+04 -1.19044E+03  3.01862E+03  7.03199E+03
 -9.34417E+03  4.62259E+03 -8.36254E+03 -7.19097E+03 -3.32384E+01 -1.67130E+04  1.27517E+04 -2.01242E+04
  2.19056E+04 -1.24501E+04  2.70400E+04  2.31217E+03  2.24941E+04  1.81227E+04  1.09507E+04  3.06306E+04
 -4.92788E+03  3.20112E+04 -2.18522E+04  1.96787E+04 -2.31130E+04  3.05619E+03 -1.61307E+04 -6.57693E+03
 -5.88038E+03 -7.94184E+03 -1.32511E+03  1.18422E+02 -3.39670E+03  3.60817E+03 -6.38909E+03  5.89498E+03
 -1.60051E+04 -1.23198E+03 -1.50567E+04 -1.36607E+04 -5.92417E+03 -2.01354E+04  5.33576E+03 -1.69491E+04
  1.54323E+04 -6.14735E+03  9.83124E+03  3.49654E+03 -2.08935E+02  5.76089E+03 -8.13695E+03  1.42577E+03
 -8.71909E+03 -1.05389E+04 -2.21015E+03 -1.54301E+04  8.74318E+03 -1.83504E+04  1.90786E+04 -9.99944E+03
  2.39037E+04  2.49112E+03  1.75280E+04  1.32311E+04  3.12746E+03  2.09771E+04 -9.83055E+03  1.43154E+04
 -1.21540E+04  5.87655E+03 -6.19432E+03 -4.81474E+03  1.89117E+03 -6.82549E+03  7.55372E+03 -1.06358E+03
  7.96918E+03  7.17354E+03  5.32054E+02  1.21936E+04 -9.91369E+03  1.18329E+04 -1.79794E+04  3.97823E+03
 -1.13622E+04 -1.04038E+04  7.74061E+02 -1.36024E+04  1.02889E+04 -8.10877E+03  1.04478E+04  5.07993E+03
  3.18402E+03  1.07413E+04 -8.72657E+03  1.23005E+04 -1.38381E+04  5.28781E+03 -1.36683E+04 -5.55357E+03
 -9.37051E+03 -1.74002E+04  3.87158E+03 -1.84934E+04  1.59972E+04 -1.15468E+04  1.84552E+04  2.63755E+03
  9.01187E+03  1.37117E+04 -2.63645E+03  1.60397E+04 -1.29504E+04  6.82430E+03 -1.18089E+04 -2.33029E+03
 -1.09239E+04 -1.19009E+04 -1.97215E+03 -1.10482E+04  7.38671E+03 -1.03003E+04  6.59403E+03 -2.06324E+03
  4.64952E+03  4.79952E+02 -6.61326E+02  3.59915E+03 -6.57361E+02 -5.10747E+03  3.53530E+03 -7.67319E+03
  1.27094E+04 -5.04886E+03  1.63436E+04  8.51970E+02  1.70796E+04  1.03667E+04  1.15039E+04  2.16983E+04
 -5.95012E+03  2.47363E+04 -1.99719E+04  1.95149E+04 -2.79235E+04  3.73772E+03 -2.09021E+04 -1.09122E+04
 -1.09325E+04 -1.64292E+04  1.89941E+02 -1.54013E+04  5.54909E+03 -8.16554E+03  5.65046E+03 -6.29874E+03
  4.29882E+03 -2.71044E+03  5.38867E+03 -4.58507E+03  7.12902E+03 -4.73481E+03  7.97590E+03 -3.27608E+02
  1.19764E+04  3.05605E+03  6.34933E+03  1.13058E+04 -2.36875E+03  1.27623E+04 -1.16836E+04  1.05897E+04
 -1.54524E+04 -8.54730E+02 -9.24797E+03 -1.07654E+04 -1.71982E+03 -1.69667E+04  9.02961E+03 -1.65821E+04
  1.63493E+04 -8.10397E+03  2.13260E+04  3.30863E+03  1.38748E+04  1.41098E+04  3.47884E+03  1.93538E+04
 -8.24306E+03  1.46331E+04 -1.34152E+04  5.29981E+03 -7.92861E+03 -2.62804E+03 -3.54051E+03 -3.34915E+03
 -2.20306E+03 -1.83502E+02 -2.17786E+03  2.63179E+03 -6.78528E+03  2.60904E+03 -9.81757E+03 -7.09599E+02
 -9.20817E+03 -1.10677E+04  7.47913E+02 -1.69565E+04  1.10101E+04 -1.47277E+04  1.61373E+04 -4.44151E+03
  1.55233E+04  8.05085E+03  7.43272E+03  1.46452E+04 -3.39208E+03  1.49831E+04 -1.15093E+04  1.07363E+04
 -1.34992E+04 -3.51719E+02 -1.27423E+04 -9.57323E+03 -2.80231E+03 -1.36562E+04  7.09635E+03 -1.04774E+04
  1.14053E+04 -3.30432E+03  7.54148E+03  3.97876E+03  2.43214E+03  4.50160E+03  2.02530E+03  1.21302E+02
  5.72529E+02  1.46111E+03  3.09743E+03  2.61241E+03  5.59385E+03  6.67649E+03  3.58490E+03  8.61332E+03
 -3.06168E+03  1.30647E+04 -1.23698E+04  1.18693E+04 -1.52931E+04  4.26933E+03 -1.69189E+04 -7.06687E+03
 -6.65919E+03 -1.68951E+04  3.70307E+03 -1.82806E+04  1.05094E+04 -1.17617E+04  1.36103E+04 -2.87721E+03
  1.07181E+04  6.87813E+03  1.55763E+03  9.89545E+03 -3.88394E+03  6.90906E+03 -7.05165E+03 -8.49444E+02
 -4.13421E+03 -6.25808E+03  3.17234E+03 -7.64696E+03  6.52677E+03 -3.39831E+03  7.19864E+03  1.30226E+03
  5.01452E+03  2.38694E+03  3.16766E+03  3.37691E+03 -2.68329E+03  2.21551E+03  1.84595E+03 -8.32686E+02
  2.59748E+03 -1.29065E+03  5.84633E+03  3.17181E+03  3.85848E+03  8.54383E+03 -2.66390E+03  1.07290E+04
 -8.49282E+03  8.90388E+03 -9.86547E+03  3.59394E+03 -9.80727E+03 -2.74088E+03 -3.29289E+03 -6.11395E+03
  1.92032E+03 -6.05627E+03  3.27554E+03 -3.45647E+03  6.19537E+03  2.88762E+03 -2.97212E+03  5.84512E+03
 -6.37095E+03  3.28303E+03 -5.98852E+03 -2.36281E+03 -2.99868E+03 -8.14809E+03  4.20342E+02 -9.25495E+03
  5.21012E+03 -5.64623E+03  5.50072E+03  4.21171E+02  5.93717E+03  1.12354E+03  2.96175E+02  5.94283E+03
 -4.04334E+03  1.67378E+03 -5.78555E+03 -1.34719E+03  4.13867E+03 -6.46780E+03  6.89181E+03 -5.34367E+03
  1.19538E+04  7.02586E+02  1.02310E+04  8.98414E+03  1.95013E+03  1.07779E+04 -3.73285E+03  1.09380E+04
 -9.92934E+03  3.72796E+03 -8.01100E+03 -2.36123E+03 -6.32438E+03 -7.25392E+03  6.48232E+02 -7.62655E+03
  6.27243E+03 -2.82963E+03  5.57773E+03  3.04977E+03  3.36498E+03  6.20858E+03 -1.17716E+03  4.26342E+03
 -1.67905E+03  4.02201E+03 -2.54190E+03  1.42855E+02 -1.89447E+03  6.07519E+02 -8.57696E+02  1.29462E+03
 -3.22145E+03  4.55387E+03 -9.27707E+03  3.46243E+03 -1.01955E+04  2.54143E+02 -1.17372E+04 -5.94206E+03
 -6.15747E+03 -1.45937E+04  3.14532E+03 -1.46748E+04  1.02649E+04 -1.28250E+04  1.60581E+04 -5.37961E+03
  1.55085E+04  3.79448E+03  8.41847E+03  1.13092E+04  6.82896E+02  1.09761E+04 -4.74283E+03  7.69366E+03
 -6.68754E+03  4.07429E+03 -4.42742E+03 -1.19144E+03  5.37302E+02 -1.72865E+03 -1.29377E+03  5.44145E+02
 -2.65775E+03 -3.88294E+01 -3.99647E+03 -3.63003E+02 -6.42223E+02 -1.20523E+03 -5.26240E+02 -2.04058E+03
  3.07086E+03 -2.60170E+03  6.68155E+03  2.03932E+03  7.96118E+03  6.00082E+03  1.40704E+03  1.07818E+04
 -4.33804E+03  1.38161E+04 -1.33190E+04  8.69809E+03 -1.51821E+04 -3.41718E+02 -1.19620E+04 -9.70201E+03
 -3.97586E+03 -1.21069E+04  2.47859E+03 -1.19973E+04  8.52553E+03 -7.01467E+03  7.91479E+03  2.84591E+02
  2.34244E+03  5.67045E+03 -6.51784E+02  2.37216E+03 -2.64042E+03 -1.47135E+03 -1.86109E+03 -2.96394E+03
  4.33752E+03 -2.14260E+03  5.09692E+03  1.04402E+03  1.81523E+03  4.84308E+03  1.87534E+03  5.53628E+03
 -5.14994E+03  4.17325E+03 -6.28953E+03  2.35303E+03 -8.24669E+03 -6.14227E+03 -1.23424E+03 -1.14698E+04
  6.20704E+03 -7.78676E+03  9.51839E+03 -1.63665E+03  9.36315E+03  2.50469E+03  6.41081E+03  6.24506E+03
  8.35619E+02  6.74139E+03 -2.67824E+03  5.75766E+03 -4.22488E+03  4.74479E+03 -4.57544E+03  2.10351E+02
 -2.37803E+03 -9.15042E+02 -3.04144E+03  1.09909E+03 -2.86998E+03  8.92719E+02 -7.62305E+03 -1.47964E+03
 -6.11281E+03 -4.73081E+03 -2.82431E+03 -7.73289E+03  4.47489E+03 -8.64979E+03  6.12277E+03 -3.80511E+03
  8.34544E+03  8.79586E+01  5.52205E+03  6.26746E+03 -2.33809E+03  7.69455E+03 -5.70131E+03  5.88529E+03
