 $NMID ID='MM_0lb_SNR200_12hz_g55_68.RAW', FMTDAT='(8E13.5)'
 TRAMP=1., VOLUME=1. $END
  3.09262E+05  2.14654E+03  3.35812E+05  2.51336E+05  8.49830E+04  3.38211E+05 -1.33371E+05  2.52349E+05
 -1.90941E+05  8.34193E+04 -1.12481E+05 -3.26573E+04 -2.89527E+02 -5.15756E+04  5.35928E+04 -4.76775E+02
  3.58837E+04  5.24590E+04 -1.66052E+04  7.53818E+04 -5.98976E+04  6.39526E+04 -8.48493E+04  3.24326E+04
 -8.17227E+04 -1.12372E+04 -5.75867E+04 -5.15202E+04 -1.56737E+04 -6.98111E+04  2.82401E+04 -4.69186E+04
  4.09351E+04  4.16138E+03  1.52915E+04  4.75863E+04 -3.51063E+04  4.78152E+04 -6.65087E+04  1.54251E+03
 -5.39787E+04 -5.61392E+04 -6.76972E+03 -7.89467E+04  3.45191E+04 -5.51342E+04  4.88640E+04 -1.64431E+04
  4.52484E+04  1.16339E+04  3.16267E+04  2.51152E+04  1.49180E+04  2.94599E+04 -5.48475E+03  2.71340E+04
 -2.24574E+04  1.28981E+04 -1.72024E+04 -5.07797E+03  5.47447E+03 -7.86736E+03  2.30032E+04  1.29086E+04
  6.81127E+03  3.61584E+04 -3.13903E+04  3.46790E+04 -6.53167E+04  2.61902E+03 -5.88849E+04 -4.41452E+04
 -1.32747E+04 -6.45345E+04  4.12399E+04 -4.60674E+04  5.93570E+04 -2.38265E+03  3.44304E+04  3.34951E+04
 -6.01736E+03  3.78452E+04 -3.06285E+04  1.75773E+04 -3.15091E+04 -4.95563E+03 -1.81782E+04 -1.35733E+04
 -9.27064E+03 -1.39530E+04 -5.29310E+02 -1.91696E+04  8.75188E+03 -2.23495E+04  1.53251E+04 -1.27001E+04
  1.14625E+04  6.12835E+03 -9.55247E+03  1.11579E+04 -2.20268E+04 -6.73631E+03 -8.17357E+03 -3.70451E+04
  2.52070E+04 -4.60712E+04  4.99708E+04 -2.18491E+04  4.77886E+04  2.10062E+04  1.62505E+04  4.71743E+04
 -1.56680E+04  3.45406E+04 -2.68314E+04  1.89544E+03 -1.02607E+04 -2.74054E+04  2.11562E+04 -3.51404E+04
  4.18551E+04 -1.07328E+04  3.86292E+04  2.45978E+04  1.87675E+04  4.94864E+04 -9.17343E+03  5.31700E+04
 -3.39043E+04  3.58413E+04 -4.40079E+04  1.14946E+04 -4.49825E+04 -1.81691E+04 -2.43423E+04 -3.97927E+04
  8.66614E+03 -4.10723E+04  3.28205E+04 -1.60566E+04  3.03625E+04  1.16446E+04  4.96016E+03  1.90723E+04
 -1.24583E+04  9.58953E+03 -1.10389E+04 -8.33526E+03  5.41310E+03 -1.07447E+04  1.97574E+04  6.03848E+03
  1.42778E+04  2.26016E+04 -6.97179E+03  2.62937E+04 -2.24894E+04  1.44219E+04 -3.02150E+04 -3.61587E+03
 -2.34392E+04 -1.74679E+04 -1.03914E+04 -2.31020E+04  3.99004E+03 -2.26839E+04  1.81156E+04 -1.97253E+04
  2.88362E+04 -1.43596E+04  3.46909E+04  3.37527E+03  2.57679E+04  2.07249E+04  4.77165E+03  3.72526E+04
 -1.85140E+04  3.29790E+04 -2.96486E+04  1.05692E+04 -2.15608E+04 -1.10083E+04 -3.65552E+03 -1.32343E+04
  1.00600E+03 -2.35547E+03 -5.60328E+03  8.10111E+03 -1.87310E+04  4.09252E+03 -1.78699E+04 -8.06325E+03
 -1.09267E+04 -2.13821E+04  6.27313E+03 -2.61037E+04  1.66773E+04 -1.88771E+04  2.06780E+04 -2.64123E+03
  1.39692E+04  1.46456E+04 -1.44622E+03  2.16555E+04 -1.42233E+04  1.31565E+04 -2.23580E+04 -3.99193E+03
 -1.55098E+04 -1.93023E+04 -2.48586E+03 -2.66648E+04  9.98130E+03 -2.16656E+04  2.11318E+04 -1.10013E+04
  2.13087E+04  7.08461E+02  1.49417E+04  5.32802E+03  7.59574E+03  8.94029E+02  1.03632E+04 -5.91698E+02
  2.08020E+04  3.19185E+03  2.27731E+04  1.59814E+04  1.61567E+04  3.35780E+04 -3.51567E+03  4.00937E+04
 -2.24824E+04  3.23764E+04 -3.69599E+04  1.62402E+04 -3.92864E+04 -2.44481E+03 -3.18920E+04 -2.21964E+04
 -1.18502E+04 -3.20150E+04  1.02502E+04 -2.89314E+04  2.43075E+04 -1.36215E+04  2.08830E+04  7.46618E+03
  7.55865E+03  1.58710E+04 -1.12423E+04  1.42106E+04 -1.91389E+04  3.15579E+03 -1.30348E+04 -1.20342E+04
 -7.29590E+02 -1.76557E+04  9.30457E+03 -1.22364E+04  1.21818E+04 -2.31686E+03  3.08984E+03  6.29465E+03
 -8.31473E+03  3.45339E+03 -7.78190E+03 -5.16755E+03 -1.91954E+03 -1.57902E+04  1.07086E+04 -1.77611E+04
  1.94586E+04 -8.87543E+03  2.23273E+04  3.32035E+03  1.99022E+04  1.70961E+04  9.27256E+03  2.46630E+04
 -4.47850E+03  2.57457E+04 -1.67576E+04  1.73598E+04 -1.88626E+04  3.74337E+03 -1.28987E+04 -4.26433E+03
 -6.66746E+03 -6.70555E+03  4.54605E+02  1.48738E+03 -2.00043E+03  4.08525E+03 -6.22397E+03  6.53444E+03
 -1.20333E+04 -1.06810E+03 -1.28992E+04 -1.00582E+04 -5.66845E+03 -1.69287E+04  6.40104E+03 -1.26342E+04
  1.12698E+04 -5.62687E+03  7.09746E+03  3.77345E+03  8.15588E+02  6.06518E+03 -6.24993E+03  9.01034E+02
 -5.56000E+03 -7.67722E+03 -1.38858E+03 -1.21437E+04  8.10120E+03 -1.34004E+04  1.66164E+04 -6.83717E+03
  1.92123E+04  1.38821E+03  1.52832E+04  1.14709E+04  3.44159E+03  1.40142E+04 -7.13215E+03  1.35017E+04
 -9.53662E+03  4.12260E+03 -4.80888E+03 -3.36584E+03  6.83662E+02 -3.53432E+03  7.55093E+03  5.31242E+01
  7.25844E+03  7.25264E+03  1.37087E+03  9.65206E+03 -7.85324E+03  1.13472E+04 -1.13589E+04  2.64267E+03
 -8.94223E+03 -6.67398E+03  9.45082E+02 -1.02985E+04  7.38649E+03 -5.38185E+03  7.16942E+03  2.10415E+03
  1.16162E+03  8.97259E+03 -5.75794E+03  1.07159E+04 -9.93993E+03  5.91745E+03 -1.15301E+04 -4.27325E+03
 -6.60323E+03 -1.38951E+04  2.20090E+03 -1.36803E+04  1.16255E+04 -8.24170E+03  1.23235E+04  3.54332E+03
  8.24875E+03  1.10890E+04 -2.01224E+03  1.17347E+04 -8.79116E+03  7.37068E+03 -1.12088E+04 -8.61652E+02
 -7.88243E+03 -9.21913E+03 -1.23318E+03 -1.04158E+04  4.91962E+03 -8.02678E+03  5.21949E+03 -3.04474E+03
  5.01898E+03  1.60965E+03 -6.58274E+02  9.61549E+02 -7.78506E+02 -2.52145E+03  1.40932E+03 -5.61044E+03
  9.37075E+03 -3.82984E+03  1.11707E+04  1.46794E+03  1.15745E+04  8.43579E+03  8.19867E+03  1.66892E+04
 -3.93603E+03  1.79337E+04 -1.44532E+04  1.33485E+04 -2.00036E+04  3.28068E+03 -1.69922E+04 -5.28179E+03
 -8.29788E+03 -1.35625E+04  1.52248E+01 -1.13862E+04  3.97070E+03 -6.50199E+03  4.49530E+03 -4.21511E+03
  3.20293E+03 -2.32406E+03  3.27984E+03 -3.48343E+03  4.00234E+03 -2.03091E+03  5.44479E+03 -1.67172E+03
  7.26553E+03  2.39531E+03  2.69223E+03  7.88202E+03 -8.01340E+02  9.17739E+03 -8.30292E+03  6.83973E+03
 -1.07089E+04 -1.15577E+03 -4.99561E+03 -8.01916E+03 -1.11411E+03 -1.18535E+04  7.03426E+03 -1.28729E+04
  1.33229E+04 -5.33372E+03  1.54969E+04  2.61829E+03  1.13007E+04  1.00645E+04  1.51957E+03  1.29112E+04
 -6.28744E+03  9.37775E+03 -7.45038E+03  4.71796E+03 -5.18102E+03 -8.85827E+02 -2.61095E+03 -3.00753E+03
 -7.66466E+02 -2.67763E+02 -2.47509E+03  2.67067E+03 -5.87139E+03  1.62626E+03 -8.69934E+03 -1.41282E+03
 -5.11570E+03 -7.10134E+03  6.28647E+02 -1.23801E+04  6.89129E+03 -9.95818E+03  9.51638E+03 -2.99333E+03
  1.07871E+04  5.33643E+03  4.81792E+03  9.49494E+03 -2.40643E+03  9.78476E+03 -7.25755E+03  6.81436E+03
 -1.11719E+04  6.33927E+02 -7.67286E+03 -6.62834E+03  3.57432E+02 -9.02857E+03  4.25544E+03 -7.02457E+03
  5.48676E+03 -2.68145E+03  3.99887E+03  2.05628E+03  1.14741E+03  2.74746E+03  8.96209E+02  1.30788E+03
  2.84551E+03  3.69007E+02  2.12896E+03  5.29760E+02  2.73733E+03  2.63914E+03  1.89183E+03  6.06262E+03
 -6.17371E+02  8.18808E+03 -7.04226E+03  1.00952E+04 -1.10734E+04  2.72611E+03 -1.07899E+04 -3.61182E+03
 -5.01795E+03 -8.92672E+03  5.70311E+02 -1.08539E+04  6.06472E+03 -7.58736E+03  9.00179E+03 -3.03457E+03
  6.04504E+03  4.10451E+03  9.81917E+02  4.91399E+03 -3.22869E+03  3.97363E+03 -2.98776E+03 -1.16248E+03
 -2.93486E+03 -3.96161E+03  1.83511E+03 -3.08205E+03  3.83939E+03 -2.72773E+03  2.13156E+03 -4.97742E+02
  2.46304E+03  1.27776E+03  1.13791E+03  1.81366E+03 -3.64452E+02  3.58026E+02  1.32888E+03  4.52497E+02
 -2.04487E+02 -2.10720E+03  3.63304E+03  1.93069E+03  3.04987E+03  6.30407E+03 -1.22746E+03  8.02357E+03
 -3.74199E+03  5.04009E+03 -7.34792E+03  1.33968E+03 -5.50187E+03 -1.71210E+03 -1.92962E+03 -5.25309E+03
 -8.26994E+02 -4.50246E+03  2.56095E+03 -1.20933E+03  1.60932E+03  2.85994E+03 -7.31166E+02  4.25528E+03
 -3.63143E+03  6.87777E+02 -4.98689E+03 -3.66064E+03 -2.27727E+03 -5.91003E+03  1.70387E+03 -3.73347E+03
  3.27480E+03 -2.54139E+03  4.14155E+03 -3.87984E+02  3.44552E+03  1.78621E+03  1.06954E+03  2.11099E+03
 -1.41607E+03  2.31141E+03 -2.69511E+03 -1.25134E+03  1.15278E+03 -4.05155E+03  5.27938E+03 -3.18785E+03
  5.99545E+03  8.38635E+02  5.46518E+03  3.53889E+03  1.87412E+03  5.70625E+03 -2.56021E+03  5.75030E+03
 -3.77058E+03  3.59994E+03 -6.26292E+03 -2.33614E+03 -3.78443E+03 -4.51861E+03  1.14640E+03 -4.44538E+03
  4.30198E+03 -1.77666E+03  2.78377E+03  2.36598E+03  1.37781E+02  3.62766E+03 -5.50657E+02  3.45761E+03
 -1.40392E+03  1.59417E+03 -1.72449E+03  1.15042E+03  1.62643E+01 -1.06080E+02 -1.34806E+03  1.14700E+03
 -1.72655E+03  3.53190E+03 -4.23060E+03  1.08169E+03 -5.32506E+03  1.35847E+03 -6.02346E+03 -4.35364E+03
 -3.64150E+03 -8.19591E+03  1.02501E+03 -1.00385E+04  6.15529E+03 -7.33645E+03  9.43707E+03 -2.78335E+03
  9.56135E+03  1.20719E+03  4.91567E+03  6.44604E+03 -4.38814E+02  6.83467E+03 -3.07291E+03  4.52856E+03
 -3.95055E+03  1.57453E+03 -2.67002E+03 -1.16779E+03 -1.05059E+03 -8.22400E+02 -1.64495E+03  2.85043E+02
 -8.04248E+02 -4.46019E+01 -1.83006E+03  6.89584E+02 -1.09738E+03 -2.82941E+02 -8.85155E+02 -2.25742E+03
  2.77489E+03 -1.55481E+03  3.73576E+03 -1.01648E+03  2.45889E+03  2.62388E+03  5.30250E+01  4.24043E+03
 -2.52906E+03  7.44837E+03 -6.67080E+03  5.74329E+03 -7.76188E+03 -2.63374E+02 -5.32708E+03 -4.99279E+03
 -2.20863E+03 -6.20765E+03  1.87760E+03 -5.80630E+03  3.59403E+03 -3.59895E+03  3.94905E+03  1.15712E+03
  2.61849E+03  1.30287E+03 -3.76269E+02  1.57971E+03 -9.98994E+02  6.33454E+02  5.96844E+02 -1.59754E+03
  1.19416E+03 -4.80324E+02  2.65192E+03  2.16498E+03  1.67405E+03  2.53970E+03  1.10398E+03  2.53962E+03
 -2.60933E+03  2.35466E+03 -3.73435E+03  3.59254E+02 -2.25656E+03 -2.83251E+03 -4.91336E+02 -5.57865E+03
  2.57571E+03 -4.24176E+03  4.74593E+03 -9.13043E+02  4.34474E+03  3.01559E+02  3.07183E+03  3.59500E+03
  6.91700E+02  3.54928E+03 -1.09506E+03  3.77617E+03 -1.63078E+03  9.94553E+02 -3.10323E+03 -1.67809E+02
 -1.11927E+03 -6.69345E+02 -6.74378E+02  1.19585E+03 -1.30280E+03  6.99921E+02 -3.72687E+03 -1.04902E+03
 -3.24835E+03 -8.10559E+02 -3.95661E+02 -3.64050E+03  1.99662E+03 -5.04480E+03  2.86510E+03 -2.16457E+03
  3.70295E+03 -1.98434E+02  3.21681E+03  1.48688E+03 -9.93933E+02  4.13704E+03 -3.73251E+03  2.08953E+03
