 $NMID ID='MM_0lb_SNR200_9hz_g40_84.RAW', FMTDAT='(8E13.5)'
 TRAMP=1., VOLUME=1. $END
  3.09236E+05  1.15958E+03  3.37856E+05  2.51169E+05  8.60273E+04  3.41000E+05 -1.33172E+05  2.51070E+05
 -1.91856E+05  8.30272E+04 -1.12362E+05 -3.27457E+04  4.21069E+02 -5.11332E+04  5.26549E+04 -2.81356E+02
  3.61213E+04  5.35990E+04 -1.63260E+04  7.50020E+04 -6.24846E+04  6.28133E+04 -8.43982E+04  3.17704E+04
 -8.18354E+04 -1.06989E+04 -5.75991E+04 -5.36698E+04 -1.43760E+04 -7.15912E+04  2.76542E+04 -4.71659E+04
  4.19003E+04  4.40762E+03  1.63045E+04  4.73638E+04 -3.43833E+04  4.76906E+04 -6.79279E+04  1.83507E+03
 -5.28493E+04 -5.73161E+04 -7.35320E+03 -7.92834E+04  3.49094E+04 -5.60246E+04  4.93255E+04 -1.85339E+04
  4.39436E+04  1.25459E+04  3.31280E+04  2.63960E+04  1.72803E+04  2.97054E+04 -3.58994E+03  2.90384E+04
 -2.24272E+04  1.17850E+04 -1.87339E+04 -5.83048E+03  5.92601E+03 -7.87574E+03  2.30270E+04  1.27480E+04
  7.10138E+03  3.68712E+04 -3.38097E+04  3.59609E+04 -6.55487E+04  7.02154E+02 -5.87519E+04 -4.50944E+04
 -1.47405E+04 -6.48287E+04  4.09986E+04 -4.61732E+04  5.95096E+04 -3.10763E+03  3.68132E+04  3.29439E+04
 -3.77546E+03  3.77748E+04 -3.22088E+04  1.64236E+04 -3.33614E+04 -2.81235E+03 -1.82231E+04 -1.18840E+04
 -1.06761E+04 -1.39405E+04 -2.88755E+03 -1.94090E+04  8.82857E+03 -2.29696E+04  1.63921E+04 -1.27669E+04
  1.09250E+04  5.48732E+03 -1.00934E+04  1.32480E+04 -2.36584E+04 -6.98717E+03 -9.83813E+03 -3.71554E+04
  2.32884E+04 -4.50135E+04  5.03019E+04 -2.10550E+04  4.89407E+04  1.88144E+04  1.74554E+04  4.67373E+04
 -1.59454E+04  3.54441E+04 -2.81099E+04  1.74419E+03 -1.06331E+04 -2.88940E+04  2.12944E+04 -3.70356E+04
  4.45079E+04 -9.70281E+03  3.84201E+04  2.51221E+04  2.16083E+04  4.95234E+04 -9.71339E+03  5.27906E+04
 -3.52365E+04  3.75549E+04 -4.62295E+04  1.24850E+04 -4.76196E+04 -1.65329E+04 -2.59924E+04 -4.21879E+04
  7.11931E+03 -4.12396E+04  3.33888E+04 -1.66313E+04  3.18103E+04  1.22525E+04  5.01027E+03  2.08729E+04
 -1.54057E+04  9.80255E+03 -1.06681E+04 -8.32146E+03  5.29201E+03 -1.11242E+04  1.85854E+04  6.63863E+03
  1.46901E+04  2.31257E+04 -6.29112E+03  2.72601E+04 -2.32028E+04  1.39034E+04 -3.08775E+04 -2.85921E+03
 -2.33418E+04 -1.89106E+04 -1.00830E+04 -2.50766E+04  3.89367E+03 -2.49675E+04  1.90362E+04 -2.23653E+04
  3.09831E+04 -1.41493E+04  3.74336E+04  4.29045E+03  2.64831E+04  2.26749E+04  5.22062E+03  4.00645E+04
 -1.88631E+04  3.38084E+04 -3.15573E+04  1.21705E+04 -2.07320E+04 -1.14066E+04 -5.93588E+03 -1.48907E+04
  8.15000E+02 -9.45381E+02 -7.76143E+03  8.93689E+03 -1.99987E+04  6.17263E+03 -1.98124E+04 -9.22793E+03
 -1.12568E+04 -2.26618E+04  6.11195E+03 -2.71577E+04  1.78306E+04 -1.95152E+04  2.23337E+04 -2.13529E+03
  1.45682E+04  1.57572E+04 -1.17530E+03  2.32805E+04 -1.46926E+04  1.32753E+04 -2.22901E+04 -4.01797E+03
 -1.68285E+04 -2.05619E+04 -2.01004E+03 -2.70740E+04  1.27365E+04 -2.24463E+04  2.19340E+04 -1.19961E+04
  2.09387E+04  1.21607E+03  1.56377E+04  4.27433E+03  8.84344E+03  2.09861E+03  1.17184E+04 -2.13638E+03
  2.17342E+04  2.61952E+03  2.40900E+04  1.66055E+04  1.81569E+04  3.61429E+04 -2.33189E+03  4.14794E+04
 -2.35766E+04  3.50218E+04 -4.06176E+04  1.96051E+04 -4.18574E+04 -2.06224E+03 -3.53249E+04 -2.53825E+04
 -1.53886E+04 -3.58232E+04  1.35648E+04 -3.12029E+04  2.68962E+04 -1.38308E+04  2.37600E+04  9.85211E+03
  8.75577E+03  1.79229E+04 -1.18701E+04  1.56780E+04 -1.97717E+04  3.92721E+03 -1.66874E+04 -1.30660E+04
 -1.65800E+03 -1.85321E+04  1.05364E+04 -1.36758E+04  1.17299E+04 -2.05142E+03  4.04044E+03  7.23129E+03
 -7.80780E+03  4.34304E+03 -9.34107E+03 -6.38876E+03 -1.27316E+03 -1.74735E+04  1.29093E+04 -1.88668E+04
  2.13141E+04 -1.04422E+04  2.64841E+04  3.31351E+03  2.29036E+04  1.99448E+04  1.03816E+04  2.64179E+04
 -5.57350E+03  2.82392E+04 -1.95538E+04  1.72874E+04 -2.21859E+04  3.16682E+03 -1.50422E+04 -5.19347E+03
 -7.95966E+03 -5.99391E+03 -1.11043E+03  7.14678E+02 -1.99231E+03  3.08687E+03 -6.53442E+03  4.34344E+03
 -1.47830E+04 -1.45693E+03 -1.51477E+04 -1.03746E+04 -5.71247E+03 -1.77829E+04  6.43122E+03 -1.42733E+04
  1.24047E+04 -5.01126E+03  1.05679E+04  5.61552E+03 -1.33702E+03  7.18233E+03 -7.02684E+03 -1.14874E+03
 -5.73910E+03 -1.07315E+04 -8.94533E+02 -1.49433E+04  8.42222E+03 -1.66723E+04  1.67629E+04 -8.13672E+03
  2.28054E+04  3.17263E+03  1.73988E+04  1.40861E+04  2.71341E+03  1.90245E+04 -9.70292E+03  1.41582E+04
 -1.39150E+04  6.04426E+03 -6.97222E+03 -3.88004E+03  1.29770E+03 -4.19131E+03  9.34339E+03 -1.14640E+03
  6.12731E+03  5.91446E+03  4.30398E+02  1.18854E+04 -9.56199E+03  1.05179E+04 -1.51102E+04  4.43897E+02
 -8.45956E+03 -7.44301E+03  2.29503E+01 -1.35150E+04  8.44281E+03 -7.40001E+03  1.01379E+04  4.25825E+03
  3.75440E+02  1.03237E+04 -6.82164E+03  1.04875E+04 -1.48208E+04  4.01384E+03 -1.17218E+04 -4.22399E+03
 -6.95620E+03 -1.38226E+04  2.07335E+03 -1.66783E+04  1.36492E+04 -1.03751E+04  1.53536E+04  3.27459E+03
  9.83369E+03  1.23295E+04 -1.27361E+03  1.50637E+04 -1.01085E+04  7.45693E+03 -1.15081E+04 -1.63788E+01
 -1.13376E+04 -1.01583E+04 -2.24883E+03 -1.18990E+04  6.37960E+03 -1.09338E+04  6.51891E+03 -2.44085E+03
  4.68779E+03  2.36685E+03  6.23775E+01  1.59033E+03 -2.19987E+03 -2.68703E+03  2.79145E+03 -8.39511E+03
  1.02160E+04 -5.36756E+03  1.52535E+04  1.94778E+03  1.49410E+04  9.47463E+03  1.05029E+04  1.79967E+04
 -3.43814E+03  2.33021E+04 -1.85090E+04  1.69787E+04 -2.44378E+04  3.14256E+03 -1.81172E+04 -8.16295E+03
 -9.11045E+03 -1.62661E+04  7.39255E+02 -1.32557E+04  3.78412E+03 -8.99164E+03  4.66176E+03 -6.57924E+03
  4.50881E+03 -2.41791E+03  4.74346E+03 -3.61788E+03  5.35811E+03 -3.49911E+03  7.93855E+03 -1.43524E+03
  9.26810E+03  3.18858E+03  6.57443E+03  8.53592E+03 -2.39889E+03  1.10986E+04 -9.49724E+03  8.35930E+03
 -1.39106E+04 -1.80149E+03 -8.52964E+03 -1.01849E+04 -1.83800E+03 -1.56245E+04  1.00669E+04 -1.44845E+04
  1.55151E+04 -8.32582E+03  1.85022E+04  1.64554E+03  1.26172E+04  1.11773E+04  3.47799E+03  1.73739E+04
 -6.69825E+03  1.37601E+04 -1.01192E+04  3.88079E+03 -4.49176E+03 -2.57849E+03 -3.61782E+03 -2.91504E+03
 -1.21271E+03  1.08179E+03 -3.50668E+02  1.99705E+03 -6.08438E+03  2.19317E+03 -1.00797E+04  9.14396E+00
 -6.79464E+03 -1.05228E+04 -5.73001E+02 -1.44469E+04  6.37635E+03 -1.35150E+04  1.55948E+04 -3.89971E+03
  1.25193E+04  6.01835E+03  7.37253E+03  1.34892E+04 -2.49587E+03  1.49868E+04 -9.91995E+03  9.45295E+03
 -1.33290E+04  2.54820E+02 -1.07168E+04 -7.67407E+03 -8.38753E+02 -1.17731E+04  4.95565E+03 -7.32301E+03
  7.78128E+03 -1.66258E+03  6.49022E+03  2.20361E+03  3.34905E+03  5.14286E+03  2.13736E+03  3.44191E+03
  3.46721E+03  3.79834E+02  4.44774E+03  9.91396E+02  4.00094E+03  6.70309E+03  3.95181E+03  6.94372E+03
 -2.89356E+03  1.09455E+04 -8.25129E+03  1.05193E+04 -1.27416E+04  3.60752E+03 -1.39842E+04 -5.54040E+03
 -6.20615E+03 -1.38630E+04  1.97950E+03 -1.57555E+04  7.66379E+03 -1.16075E+04  1.38817E+04 -2.86983E+03
  8.67481E+03  4.02546E+03  3.05367E+03  7.94345E+03 -5.03085E+03  3.60403E+03 -5.91224E+03 -9.64819E+02
 -2.93027E+03 -6.94358E+03  4.41018E+03 -6.39483E+03  5.68399E+03 -2.51790E+03  4.96608E+03  2.08684E+03
  2.52258E+03  3.41834E+03  2.82541E+03  1.94737E+03  6.02666E+01  1.41498E+03  1.19532E+03 -1.06208E+03
  1.43807E+03  5.54269E+01  6.14347E+03  2.42314E+03  4.53966E+03  6.65387E+03 -2.17641E+03  9.48582E+03
 -6.54650E+03  3.84621E+03 -8.23563E+03  2.16566E+03 -8.25193E+03 -3.39738E+03 -3.02259E+03 -5.34996E+03
  8.52281E+02 -5.14307E+03  5.12228E+03 -2.02579E+03  3.53137E+03  2.10467E+03 -1.02221E+03  5.45927E+03
 -5.93018E+03  3.66545E+03 -5.16485E+03 -3.27852E+03 -4.40968E+03 -6.76814E+03  1.51685E+03 -7.47764E+03
  6.41011E+03 -4.62176E+03  6.34689E+03  6.10028E+02  3.92800E+03  2.57467E+03  7.12100E+02  5.00092E+03
 -3.13860E+03  1.12522E+02 -5.34747E+03 -2.74203E+03  2.84741E+03 -7.35606E+03  7.73464E+03 -5.55748E+03
  9.70641E+03  7.34896E+02  8.64211E+03  5.29381E+03  2.92283E+03  1.00735E+04 -5.02555E+03  9.15988E+03
 -6.01800E+03  2.73830E+03 -8.71245E+03 -2.61646E+03 -5.34065E+03 -5.93374E+03  2.80578E+03 -5.03835E+03
  5.59890E+03 -2.94731E+03  4.91161E+03  3.67486E+03  2.82566E+03  5.85055E+03 -3.21830E+02  5.80593E+03
 -1.57012E+03  2.53443E+03 -1.53845E+03  2.74912E+02  7.17264E-01  1.69028E+03 -1.35874E+03  1.76427E+03
 -3.24967E+03  2.59622E+03 -6.66492E+03  3.67106E+03 -8.27152E+03  3.00461E+02 -1.23306E+04 -6.19754E+03
 -3.70071E+03 -1.28659E+04  2.62176E+03 -1.39399E+04  8.93237E+03 -1.08509E+04  1.39636E+04 -6.42301E+03
  1.26270E+04  1.72127E+03  7.33901E+03  8.05754E+03  1.31590E+02  9.59713E+03 -3.72815E+03  5.84094E+03
 -6.02967E+03  2.26055E+03 -3.69043E+03 -1.54142E+03 -2.92493E+02 -5.38656E+02 -1.51353E+03  7.09468E+02
 -1.00171E+03  3.73836E+02 -1.98075E+03 -4.82239E+01 -6.56839E+02 -3.19390E+03 -1.62050E+03 -3.24232E+03
  2.70331E+03 -3.92368E+03  5.90139E+03 -6.30710E+02  5.69848E+03  5.51960E+03  1.67504E+03  8.73096E+03
 -3.69836E+03  1.16435E+04 -1.00211E+04  6.16205E+03 -1.01017E+04 -1.85149E+03 -8.68907E+03 -7.56559E+03
 -3.99071E+03 -9.91511E+03  3.03058E+03 -9.02423E+03  6.33517E+03 -4.90548E+03  6.90226E+03 -2.91997E+02
  4.28070E+03  3.98514E+03  1.36838E+02  3.49280E+03 -2.17578E+03 -8.76345E+02 -1.18287E+03 -4.20039E+03
  3.00189E+03 -1.61068E+03  3.31816E+03  1.37540E+03  2.34804E+03  1.97615E+03 -1.30817E+02  7.24003E+03
 -2.93148E+03  3.39463E+03 -6.93521E+03 -1.97315E+02 -5.65654E+03 -5.00930E+03  2.15908E+02 -8.19176E+03
  6.05184E+03 -6.07668E+03  6.84776E+03 -2.25342E+03  6.11562E+03  3.11779E+03  4.87483E+03  6.36901E+03
  5.92770E+02  5.73834E+03 -2.97626E+03  6.78755E+03 -3.32315E+03  2.38505E+03 -2.94552E+03  1.59631E+01
 -1.70125E+03 -1.16615E+02 -2.97140E+03  1.09356E+03 -3.21601E+03  1.84583E+03 -4.56841E+03 -6.25558E+02
 -3.96125E+03 -3.36602E+03 -1.19646E+03 -8.69325E+03  3.34815E+03 -6.75602E+03  5.33085E+03 -3.36970E+03
  6.07965E+03 -8.82502E+02  2.27869E+03  5.52106E+03 -1.34334E+03  5.32922E+03 -3.93588E+03  6.49587E+03
