 $NMID ID='MM_0lb_SNR200_11hz_g45_3.RAW', FMTDAT='(8E13.5)'
 TRAMP=1., VOLUME=1. $END
  3.10667E+05 -6.01925E+02  3.38447E+05  2.51176E+05  8.52361E+04  3.36536E+05 -1.32890E+05  2.50241E+05
 -1.89929E+05  8.30818E+04 -1.11872E+05 -3.14041E+04 -1.87811E+02 -5.18976E+04  5.38969E+04  1.86036E+02
  3.44096E+04  5.27867E+04 -1.63912E+04  7.46731E+04 -6.23856E+04  6.43797E+04 -8.49448E+04  3.37525E+04
 -8.00215E+04 -1.14936E+04 -5.92801E+04 -5.16157E+04 -1.58422E+04 -6.97308E+04  2.73968E+04 -4.63895E+04
  3.93831E+04  3.80903E+03  1.73637E+04  4.84763E+04 -3.48173E+04  4.74005E+04 -6.71721E+04 -5.44028E+02
 -5.49892E+04 -5.82853E+04 -6.60727E+03 -7.62752E+04  3.38232E+04 -5.50687E+04  4.83159E+04 -1.79859E+04
  4.33310E+04  1.14147E+04  3.32735E+04  2.56673E+04  1.59786E+04  2.81326E+04 -5.49646E+03  2.78149E+04
 -2.15511E+04  1.32789E+04 -1.93634E+04 -4.22003E+03  7.26997E+03 -7.99288E+03  2.30712E+04  1.28596E+04
  7.69113E+03  3.60960E+04 -3.32867E+04  3.76849E+04 -6.40976E+04  2.36314E+03 -5.82898E+04 -4.25268E+04
 -1.21030E+04 -6.49427E+04  4.07041E+04 -4.58980E+04  5.91988E+04 -1.96120E+03  3.62527E+04  3.38917E+04
 -6.43980E+03  3.71658E+04 -3.07284E+04  1.66626E+04 -3.16330E+04 -4.58403E+03 -1.60793E+04 -1.00165E+04
 -9.25193E+03 -1.38674E+04 -4.44081E+02 -1.93274E+04  8.78846E+03 -2.31132E+04  1.64977E+04 -1.38982E+04
  1.14390E+04  4.93435E+03 -9.67760E+03  1.31645E+04 -2.18364E+04 -5.55110E+03 -9.66584E+03 -3.62714E+04
  2.33188E+04 -4.43979E+04  5.02512E+04 -2.00672E+04  4.73910E+04  2.10083E+04  1.61366E+04  4.56553E+04
 -1.65660E+04  3.26376E+04 -2.64655E+04  2.60293E+03 -1.11928E+04 -2.74560E+04  2.16285E+04 -3.44720E+04
  4.24589E+04 -9.96880E+03  3.73165E+04  2.30921E+04  1.95175E+04  4.87278E+04 -8.67207E+03  5.27507E+04
 -3.37052E+04  3.54546E+04 -4.45598E+04  1.12546E+04 -4.47523E+04 -1.85804E+04 -2.48007E+04 -3.97325E+04
  8.72386E+03 -4.14840E+04  3.31617E+04 -1.61585E+04  3.02959E+04  1.13461E+04  5.32029E+03  1.97711E+04
 -1.33529E+04  1.00964E+04 -1.14799E+04 -6.39889E+03  5.59974E+03 -1.04299E+04  1.79515E+04  5.06685E+03
  1.37109E+04  2.20524E+04 -5.71735E+03  2.74843E+04 -2.19766E+04  1.28286E+04 -3.00457E+04 -1.16347E+03
 -2.33257E+04 -1.85436E+04 -9.50963E+03 -2.25508E+04  4.28582E+03 -2.14854E+04  1.89724E+04 -2.09596E+04
  2.83931E+04 -1.49137E+04  3.61997E+04  2.71660E+03  2.62669E+04  2.22038E+04  5.23639E+03  3.91016E+04
 -1.93598E+04  3.23951E+04 -2.74509E+04  1.01964E+04 -2.24905E+04 -1.17040E+04 -5.41330E+03 -1.41590E+04
  3.09097E+02 -3.53842E+03 -5.52647E+03  6.39482E+03 -1.71262E+04  7.29822E+03 -1.84332E+04 -8.95462E+03
 -1.07748E+04 -2.01832E+04  4.63614E+03 -2.54309E+04  1.63789E+04 -1.84975E+04  2.08296E+04 -1.64959E+03
  1.36141E+04  1.46466E+04 -1.60349E+03  2.08588E+04 -1.53345E+04  1.02146E+04 -2.09338E+04 -4.34480E+03
 -1.68614E+04 -1.99305E+04 -9.67279E+02 -2.66482E+04  1.24765E+04 -1.94964E+04  2.14058E+04 -1.08624E+04
  2.08371E+04 -1.01038E+03  1.45625E+04  4.63996E+03  7.68846E+03  2.56725E+03  1.16921E+04 -7.00090E+02
  1.89089E+04  3.34539E+03  2.15906E+04  1.74842E+04  1.48202E+04  3.36229E+04 -1.55088E+03  3.79085E+04
 -2.21363E+04  3.09406E+04 -3.64413E+04  1.75996E+04 -3.74739E+04 -2.51599E+03 -3.14730E+04 -2.27494E+04
 -1.31967E+04 -3.33377E+04  1.11212E+04 -2.86725E+04  2.44752E+04 -1.36310E+04  2.21850E+04  6.52425E+03
  7.45009E+03  1.75409E+04 -1.19268E+04  1.34163E+04 -1.81986E+04  3.36778E+03 -1.25212E+04 -1.14772E+04
 -6.90104E+02 -1.69513E+04  1.05302E+04 -1.37474E+04  1.20436E+04 -1.56881E+03  2.35195E+03  8.92177E+03
 -7.69272E+03  2.56467E+03 -7.79654E+03 -5.50411E+03 -1.39933E+03 -1.48552E+04  1.09898E+04 -1.70231E+04
  1.86218E+04 -8.13718E+03  2.18328E+04  2.54915E+03  1.91766E+04  1.35385E+04  1.04158E+04  2.47447E+04
 -4.35278E+03  2.58347E+04 -1.65095E+04  1.53748E+04 -1.86658E+04  1.92826E+03 -1.33381E+04 -5.11349E+03
 -7.10198E+03 -6.40673E+03  8.09669E+02  1.85492E+02 -2.16922E+03  4.13300E+03 -5.83935E+03  4.24960E+03
 -1.07516E+04 -1.58755E+03 -1.17945E+04 -1.05962E+04 -6.14010E+03 -1.67316E+04  5.65858E+03 -1.52578E+04
  1.09090E+04 -6.44301E+03  7.60686E+03  4.90451E+03  8.11689E+01  4.87378E+03 -5.86436E+03 -5.26429E+01
 -5.06065E+03 -9.19484E+03 -1.61533E+03 -1.42753E+04  7.37921E+03 -1.37025E+04  1.74582E+04 -6.59462E+03
  1.98825E+04  1.08741E+03  1.41089E+04  1.10924E+04  1.97014E+03  1.59328E+04 -7.82690E+03  1.32444E+04
 -1.12311E+04  3.33399E+03 -6.34074E+03 -2.33593E+03  1.29915E+03 -4.51048E+03  7.48981E+03 -7.47975E+02
  5.60045E+03  4.55818E+03  2.70921E+02  1.01098E+04 -9.83964E+03  1.08886E+04 -1.48075E+04  1.35502E+03
 -1.04368E+04 -7.11785E+03  4.04023E+01 -1.22166E+04  6.43361E+03 -7.19580E+03  6.88005E+03  2.46923E+03
  1.84339E+03  8.36893E+03 -7.10676E+03  9.61410E+03 -1.14535E+04  4.33689E+03 -1.02016E+04 -5.07546E+03
 -6.00321E+03 -1.27407E+04  2.81483E+03 -1.51906E+04  1.35473E+04 -8.70190E+03  1.42955E+04  1.79647E+03
  8.94218E+03  1.06132E+04 -1.16073E+03  1.35231E+04 -8.98084E+03  6.76184E+03 -9.98297E+03 -1.24897E+02
 -9.52073E+03 -9.31818E+03 -1.65104E+03 -9.79780E+03  5.48930E+03 -7.88021E+03  4.56512E+03 -4.10712E+03
  5.12425E+03  9.71795E+02 -3.07234E+02  9.89500E+02 -8.43515E+02 -1.73544E+03  1.45907E+03 -6.17237E+03
  8.59697E+03 -3.61117E+03  1.21425E+04 -4.68352E+02  1.20321E+04  7.57818E+03  9.26929E+03  1.53823E+04
 -2.89704E+03  2.05692E+04 -1.72103E+04  1.33439E+04 -2.04358E+04  1.73415E+03 -1.73148E+04 -6.28787E+03
 -8.55839E+03 -1.32267E+04  1.90681E+02 -1.14813E+04  3.30557E+03 -5.78420E+03  3.81951E+03 -5.48001E+03
  3.06722E+03 -3.23575E+03  2.52567E+03 -3.47317E+03  4.80684E+03 -1.82307E+03  6.54456E+03 -1.87275E+03
  8.78234E+03  2.00135E+03  4.57085E+03  7.90447E+03 -3.22351E+03  8.21304E+03 -8.96548E+03  7.66105E+03
 -1.22992E+04 -1.11331E+03 -5.94811E+03 -7.08463E+03  5.80860E+02 -1.21109E+04  6.83275E+03 -1.22654E+04
  1.36697E+04 -5.41229E+03  1.40817E+04  4.81711E+02  1.12486E+04  1.13188E+04  2.34020E+03  1.38862E+04
 -5.15098E+03  1.18474E+04 -7.35938E+03  2.66479E+03 -6.63128E+03 -2.17867E+03 -1.73062E+03 -3.14608E+01
 -2.25798E+03 -2.16854E+02 -2.38139E+03  2.57519E+03 -4.62543E+03  8.91933E+02 -7.19613E+03 -1.63437E+03
 -5.48826E+03 -6.95124E+03 -1.71610E+03 -1.23782E+04  7.29664E+03 -1.09833E+04  1.03925E+04 -2.47701E+03
  1.07752E+04  6.54130E+03  5.02911E+03  1.08863E+04 -2.57762E+03  1.18272E+04 -8.33136E+03  6.52921E+03
 -1.03100E+04 -2.21299E+02 -8.78861E+03 -6.67927E+03 -9.52770E+01 -6.85271E+03  4.54779E+03 -7.60507E+03
  6.64604E+03 -2.21017E+03  5.93656E+03  3.73086E+03  2.59672E+02  3.75506E+03  3.29391E+03  1.39771E+03
  1.83825E+03  4.78038E+01  2.31928E+03  1.72046E+03  3.49150E+03  3.27185E+03  3.01043E+03  5.77815E+03
 -2.64526E+03  8.05910E+03 -9.04125E+03  9.18315E+03 -1.02181E+04  2.09641E+03 -1.19164E+04 -3.69019E+03
 -5.18336E+03 -1.05885E+04  2.22088E+03 -1.28359E+04  6.65603E+03 -6.42561E+03  9.23307E+03 -1.81790E+03
  6.69726E+03  4.16490E+03  1.62442E+03  6.41213E+03 -2.53013E+03  4.62676E+03 -4.84556E+03 -1.00809E+03
 -2.55020E+03 -4.76394E+03  2.26415E+03 -4.75521E+03  3.46964E+03 -2.11094E+03  5.00648E+03  3.05885E+03
  1.89250E+03  2.64767E+03  5.53542E+02  2.51808E+03 -2.76794E+01  1.65081E+03  2.19889E+03 -2.98531E+02
  1.99202E+03 -1.92762E+03  4.83885E+03  1.00517E+03  3.10593E+03  5.87304E+03 -2.69302E+03  9.14187E+03
 -4.85008E+03  5.44272E+03 -6.66002E+03  1.31060E+03 -7.42456E+03 -3.52673E+03 -1.88595E+03 -3.57823E+03
  6.13316E+02 -5.84073E+03  3.21203E+03 -9.69642E+02  3.13451E+03  1.53608E+03 -1.08919E+03  3.84363E+03
 -5.22936E+03  1.98261E+03 -4.76816E+03 -3.34250E+03 -3.00298E+03 -6.00556E+03  7.95965E+02 -6.86855E+03
  4.20573E+03 -2.34677E+03  3.41618E+03 -2.79653E+01  2.40464E+03  5.67293E+02  1.59886E+03  3.22185E+03
 -2.79961E+03  7.22866E+02 -2.58740E+03  1.06683E+02  1.48818E+03 -5.01951E+03  6.48317E+03 -3.69398E+03
  7.85027E+03  1.48096E+03  7.28534E+03  4.27058E+03  2.08670E+03  5.91679E+03 -2.88553E+03  7.23688E+03
 -6.86497E+03  3.02621E+03 -5.81753E+03 -2.10215E+03 -3.52000E+03 -3.25721E+03  1.30141E+03 -4.11831E+03
  5.07799E+03 -1.50718E+03  3.39831E+03  2.05189E+03 -7.94337E-01  2.15699E+03  1.31370E+02  3.47478E+03
 -2.23187E+03  2.82776E+03 -1.48981E+03 -7.45605E+02 -1.32910E+03  3.54641E+02 -1.71852E+03  2.15744E+03
 -2.89063E+03  3.34936E+03 -5.63265E+03  1.82176E+03 -7.19423E+03 -2.28835E+02 -9.29498E+03 -4.02831E+03
 -5.57778E+03 -1.00377E+04  8.56931E+02 -1.10061E+04  6.50461E+03 -8.12994E+03  1.19204E+04 -4.72334E+03
  9.35134E+03  5.07699E+02  4.94853E+03  6.02674E+03 -6.28492E+02  7.22654E+03 -2.95080E+03  5.12161E+03
 -3.53049E+03  2.63977E+03 -2.59609E+03  7.47735E+02 -1.95823E+03 -7.82339E+02 -1.10009E+03 -4.77502E+02
 -5.00347E+02  2.13307E+02 -2.20381E+03 -2.39513E+02 -1.23682E+03 -2.39507E+03 -1.20070E+03 -2.56564E+03
  1.55691E+03 -3.18712E+03  5.09314E+03  5.82906E+02  5.72520E+03  2.92392E+03  1.03831E+03  7.04289E+03
 -2.65691E+03  6.97393E+03 -7.21240E+03  4.34866E+03 -8.75781E+03 -6.77480E+01 -6.54140E+03 -5.25940E+03
 -2.40281E+03 -7.48253E+03  2.47327E+03 -5.94576E+03  3.78791E+03 -4.18407E+03  4.60666E+03 -5.14002E+02
  1.10559E+03  2.97804E+03  2.21549E+02  1.28014E+03 -1.85792E+03 -2.41696E+02  1.24374E+02 -2.41253E+03
  2.67461E+02 -4.10944E+02  2.37828E+03  8.27600E+01  1.88560E+03  3.06927E+03  4.14768E+02  3.64573E+03
 -3.76278E+03  3.55496E+03 -5.52421E+03  6.62010E+02 -4.64981E+03 -3.14160E+03 -1.35940E+03 -5.76763E+03
  2.86454E+03 -5.09764E+03  5.22445E+03 -5.70196E+02  5.09958E+03  1.46030E+03  3.23512E+03  5.17889E+03
  3.22247E+02  3.46576E+03 -2.70193E+03  3.93670E+03 -2.33724E+03  2.69939E+03 -2.24132E+03  1.07743E+03
 -1.17978E+03  3.05443E+02  8.93440E+02  1.59424E+03 -2.53022E+03  1.31152E+03 -2.77770E+03 -2.88406E+02
 -2.56323E+03 -9.62295E+02 -1.37104E+03 -4.96523E+03  1.34837E+03 -6.22669E+03  3.52157E+03 -2.74311E+03
  3.43590E+03 -9.23125E+02  3.54365E+03  4.01216E+03 -3.17857E+02  4.18795E+03 -2.89385E+03  2.04449E+03
