 $NMID ID='MM_0lb_SNR200_19hz_g45_91.RAW', FMTDAT='(8E13.5)'
 TRAMP=1., VOLUME=1. $END
  3.10586E+05  2.61085E+02  3.36973E+05  2.50492E+05  8.44745E+04  3.37527E+05 -1.31742E+05  2.48943E+05
 -1.89782E+05  8.18270E+04 -1.11750E+05 -3.30421E+04  1.86690E+03 -5.14171E+04  5.38985E+04 -1.98526E+02
  3.46756E+04  5.21193E+04 -1.75579E+04  7.50795E+04 -6.05704E+04  6.24969E+04 -8.36491E+04  3.14200E+04
 -7.96926E+04 -1.02504E+04 -5.55602E+04 -4.96701E+04 -1.55237E+04 -6.75147E+04  2.65352E+04 -4.44657E+04
  3.83619E+04  3.55184E+03  1.62489E+04  4.76120E+04 -3.36379E+04  4.65138E+04 -6.52283E+04 -7.57071E+02
 -5.19351E+04 -5.64284E+04 -5.47530E+03 -7.52051E+04  3.26864E+04 -5.28552E+04  4.68646E+04 -1.60809E+04
  4.11199E+04  1.11394E+04  3.12926E+04  2.35848E+04  1.63767E+04  2.89034E+04 -2.87525E+03  2.72189E+04
 -2.17561E+04  1.32210E+04 -1.96420E+04 -4.15803E+03  3.32423E+03 -8.44072E+03  2.02385E+04  1.01528E+04
  8.09872E+03  3.34818E+04 -2.96496E+04  3.38138E+04 -6.05567E+04  2.25072E+03 -5.41241E+04 -4.02490E+04
 -1.18033E+04 -5.97534E+04  3.74909E+04 -4.29673E+04  5.56489E+04 -1.97786E+03  3.18459E+04  3.02858E+04
 -7.41735E+03  3.22357E+04 -2.80129E+04  1.33829E+04 -2.68512E+04 -6.62780E+03 -1.42067E+04 -9.36107E+03
 -8.25194E+03 -1.16046E+04 -9.11194E+02 -1.70460E+04  7.20052E+03 -2.24790E+04  1.56428E+04 -1.36820E+04
  1.19617E+04  3.15265E+03 -6.17690E+03  1.31053E+04 -1.83311E+04 -1.67605E+03 -7.52538E+03 -2.96952E+04
  2.00388E+04 -4.05196E+04  4.42764E+04 -1.79101E+04  4.13016E+04  1.81487E+04  1.44079E+04  4.10019E+04
 -1.54057E+04  3.07686E+04 -2.27950E+04  9.27983E+02 -8.43353E+03 -2.64253E+04  2.03878E+04 -3.17702E+04
  3.72743E+04 -6.21323E+03  2.98276E+04  2.19614E+04  1.45194E+04  4.27568E+04 -7.72168E+03  4.43814E+04
 -2.79695E+04  3.02118E+04 -3.61231E+04  7.69015E+03 -3.66005E+04 -1.49994E+04 -2.00148E+04 -3.30601E+04
  7.84803E+03 -3.40898E+04  2.88184E+04 -1.32655E+04  2.56969E+04  1.04843E+04  3.45137E+03  1.81986E+04
 -1.18799E+04  6.94555E+03 -9.30965E+03 -7.12503E+03  5.52361E+03 -9.67256E+03  1.62625E+04  7.13952E+03
  1.18588E+04  2.15516E+04 -6.08452E+03  2.34799E+04 -2.12873E+04  8.96340E+03 -2.55815E+04 -7.32406E+03
 -1.65431E+04 -1.67003E+04 -5.64434E+03 -1.66021E+04  3.45180E+03 -1.49108E+04  1.19090E+04 -1.33990E+04
  2.04104E+04 -1.18794E+04  2.66878E+04  1.11842E+03  2.07354E+04  1.57611E+04  4.09723E+03  3.07847E+04
 -1.57781E+04  2.77072E+04 -2.53132E+04  9.51388E+03 -1.90512E+04 -1.05872E+04 -4.88575E+03 -1.42552E+04
  2.81415E+03 -3.19468E+03 -3.11146E+03  4.77430E+03 -1.24322E+04  5.25812E+03 -1.31741E+04 -4.87249E+03
 -8.45940E+03 -1.49302E+04  4.20635E+03 -1.83714E+04  1.21625E+04 -1.31704E+04  1.49277E+04 -1.13280E+03
  9.12362E+03  1.09122E+04 -3.84696E+02  1.53298E+04 -1.03711E+04  9.76053E+03 -1.49044E+04 -3.35611E+03
 -1.23074E+04 -1.25266E+04 -1.41578E+03 -1.91182E+04  9.10215E+03 -1.49075E+04  1.56990E+04 -5.95041E+03
  1.35814E+04  9.43857E+02  9.95751E+03  4.42053E+03  5.44740E+03  1.64280E+03  7.42110E+03 -1.05898E+03
  1.33906E+04  2.61060E+03  1.42894E+04  1.24669E+04  9.13106E+03  2.46188E+04 -1.44053E+03  2.60949E+04
 -1.44275E+04  1.94311E+04 -2.33296E+04  9.78769E+03 -2.35959E+04 -1.13676E+03 -2.02048E+04 -1.25145E+04
 -9.56991E+03 -2.03642E+04  6.08805E+03 -1.80829E+04  1.54920E+04 -1.09167E+04  1.55640E+04  3.05650E+03
  6.49068E+03  1.07060E+04 -6.34056E+03  9.75056E+03 -1.26382E+04  2.04478E+03 -9.29169E+03 -8.87611E+03
 -6.61712E+01 -1.19328E+04  5.28861E+03 -8.76539E+03  8.11158E+03 -9.10696E+02  4.46213E+02  4.96791E+03
 -5.63672E+03  1.02752E+03 -2.82988E+03 -5.75152E+03  9.19583E+02 -9.07402E+03  7.27539E+03 -9.04098E+03
  1.08853E+04 -3.64622E+03  1.13337E+04  3.48012E+03  9.84830E+03  8.88760E+03  5.64391E+03  1.40750E+04
 -1.28000E+03  1.51128E+04 -8.68561E+03  1.03678E+04 -1.07440E+04  2.46585E+03 -7.59505E+03 -1.77313E+03
 -4.12583E+03 -2.84167E+03 -7.67663E+02  1.92106E+03 -2.08510E+03  2.56533E+03 -4.48453E+03  3.47592E+03
 -9.07625E+03  1.19246E+02 -7.63840E+03 -6.44468E+03 -2.35477E+03 -1.07005E+04  3.76629E+03 -7.93380E+03
  6.23558E+03 -2.93140E+03  5.62398E+03  1.77987E+03  1.55358E+03  2.47839E+03 -3.43773E+03 -2.78894E+02
 -2.39175E+03 -5.85538E+03 -1.09291E+03 -7.11302E+03  2.51920E+03 -7.47941E+03  9.19152E+03 -4.07590E+03
  1.12398E+04  3.68779E+02  7.97363E+03  5.86527E+03  1.67551E+03  9.26123E+03 -4.10115E+03  7.61120E+03
 -5.62738E+03  2.67459E+03 -3.47428E+03 -1.29426E+03  1.82245E+03 -1.76954E+03  5.12351E+03 -1.02548E+03
  3.74521E+03  3.35308E+03 -1.05180E+02  5.24612E+03 -3.50166E+03  6.43122E+03 -7.09248E+03  7.46642E+02
 -4.61595E+03 -3.29937E+03  2.84198E+02 -6.38210E+03  3.32943E+03 -4.63347E+03  3.76162E+03  2.49968E+03
  6.46866E+02  3.44246E+03 -3.72099E+03  3.63771E+03 -4.08592E+03  3.36962E+03 -4.74626E+03 -1.96234E+03
 -2.34623E+03 -5.22499E+03  3.08847E+02 -6.75111E+03  4.67559E+03 -4.90866E+03  6.03714E+03  1.02535E+03
  5.01515E+03  4.94988E+03  1.07776E+03  6.19600E+03 -4.37260E+03  3.89919E+03 -4.74011E+03 -1.20900E+03
 -5.27879E+03 -5.28514E+03 -2.16324E+03 -4.67884E+03  2.50698E+03 -4.74546E+03  2.40774E+03 -2.86803E+03
  2.69623E+03 -1.37558E+02  1.32810E+03  1.54208E+03  1.20491E+03  2.61754E+02  1.19261E+03 -1.39749E+03
  2.92246E+03 -1.07501E+02  5.30111E+03 -3.68188E+02  3.80110E+03  2.57006E+03  5.86267E+03  7.40083E+03
 -1.10722E+03  7.75116E+03 -7.42500E+03  6.77735E+03 -9.53061E+03  1.24310E+03 -7.52940E+03 -1.05421E+03
 -3.68371E+03 -5.59643E+03  6.92130E+02 -5.24080E+03  1.88283E+03 -2.11358E+03  2.83483E+03 -2.04123E+03
  1.37532E+03 -8.03522E+02  1.47609E+03 -2.38790E+03  4.14674E+03 -7.08919E+02  3.25218E+03  4.84433E+02
  4.93303E+03  1.47015E+03  6.52963E+02  2.51660E+03 -1.53868E+03  2.05806E+03 -3.95318E+03  2.06172E+03
 -5.29713E+03 -1.71005E+03 -6.30948E+02 -3.01159E+03  1.23463E+02 -4.79357E+03  3.31954E+03 -5.27776E+03
  4.37150E+03 -2.87091E+03  6.72440E+03 -5.11686E+01  3.70873E+03  3.10636E+03  9.15128E+02  4.91146E+03
 -1.55065E+03  5.72204E+03 -2.71079E+03  1.66328E+03 -2.20349E+03 -1.20656E+03  4.37842E+02 -5.23900E+02
 -7.04465E+02  7.53490E+02 -3.69760E+02  2.81775E+03 -2.14978E+03  1.18151E+03 -3.71222E+03 -1.28261E+03
 -1.32303E+03 -4.39659E+03  1.54782E+03 -5.42069E+03  2.65314E+03 -3.33347E+03  4.57483E+03 -1.24211E+03
  3.54164E+03  2.59818E+03  7.28274E+02  2.93870E+03 -8.23573E+02  4.17927E+03 -3.59090E+03  2.49974E+03
 -2.50692E+03  7.34863E+02 -2.68599E+03 -2.83995E+03  1.02512E+03 -3.60227E+03  1.48230E+03 -2.88877E+03
  2.99281E+03 -5.25708E+02  7.43272E+02  2.13707E+02  5.39899E+02  1.54409E+03 -4.19876E+02 -9.31597E+02
  2.25856E+03  1.30562E+03  1.65524E+03  1.49546E+03  4.09972E+02  2.97570E+03  1.83454E+03  1.26678E+03
 -1.67324E+03  2.48098E+03 -2.09426E+03  2.93527E+03 -2.63893E+03  1.31004E+03 -3.80807E+03 -1.19895E+03
 -1.43164E+03 -2.31560E+03  7.35238E+02 -4.73894E+03  1.71208E+03 -2.49805E+03  2.33025E+03 -3.70028E+02
  2.52906E+03  1.44137E+03 -5.16013E+02  2.80951E+03 -8.88293E+02  1.56296E+03 -4.18309E+02 -8.31449E+02
 -3.17141E+02 -7.99071E+02  2.54740E+02 -1.78598E+03  1.31405E+03 -2.14598E+03  1.18374E+03 -2.82827E+02
  4.87270E+02 -5.99954E+00  1.08026E+03 -6.91059E+02 -4.60312E+02  1.15040E+03  1.33434E+03 -3.50437E+01
 -5.30165E+02  3.85697E+01  1.65073E+03 -3.07225E+02  2.48998E+02  2.13865E+03 -5.62302E+01  1.88848E+03
 -1.67997E+03  9.36073E+02 -1.48273E+03  7.60525E+02 -2.15330E+03 -1.06653E+03  1.07582E+03 -5.38902E+02
  1.04107E+02 -6.98784E+02  3.37401E+02 -1.01235E+03  1.22709E+03  1.67926E+02 -1.05513E+02  2.23597E+03
 -1.22613E+03  8.36400E+02 -9.10912E+02 -7.44536E+02 -8.38965E+02 -1.95677E+03  4.68648E+02 -1.29203E+03
 -6.56749E+01  2.07469E+02  1.35735E+03 -6.03233E+01  8.04622E+02  1.59210E+02 -5.98368E+01  1.92502E+03
  2.13077E+02 -1.02049E+03  1.49974E+02  1.63885E+02  4.08228E+02 -1.60627E+03  1.14963E+03 -1.90721E+03
  1.57150E+03  7.13103E+01  2.50692E+03  1.19891E+03  6.66934E+01  1.49437E+03 -1.22136E+03  2.17752E+03
 -1.16144E+03 -2.98236E+01 -1.93927E+03  1.66436E+02 -9.62168E+02 -8.08859E+02  1.59706E+03 -2.07592E+00
  1.10941E+03 -7.50130E+02  4.32473E+02  1.52000E+03  2.35605E+02  1.47624E+03 -3.56561E+02 -8.31809E+01
 -9.37995E+02  2.55111E+03  1.07514E+03  4.89903E+02  3.06128E+02  1.25020E+03 -6.21889E+02  2.90590E+02
  3.31290E+02  5.28488E+02 -1.39655E+03 -6.28681E+02 -2.50113E+03 -8.30621E+02 -1.98421E+03 -1.34949E+03
 -5.24148E+02 -1.98997E+03  1.76669E+02 -1.24814E+03  5.57233E+02 -1.92733E+03  2.03164E+03 -8.63967E+02
  1.41279E+03  1.20258E+03  1.29571E+03  1.79204E+03  3.83435E+02  1.42733E+03 -1.41711E+03  1.49937E+03
 -1.29629E+03 -7.11321E+02  4.57114E+02 -8.31952E+02 -9.66207E+02 -1.31994E+02 -7.08521E+02  5.16335E+02
 -1.41038E+03 -4.78160E+02 -7.61024E+02  2.30117E+02  4.52303E+02 -1.69668E+03 -8.18263E+02 -1.13705E+03
  1.54898E+03 -5.82643E+02  3.57923E+02 -2.13799E+02  6.08185E+02  9.74003E+02 -2.75382E+02  8.83302E+02
 -1.09852E+03  1.71625E+03 -9.19334E+02  7.99564E+02 -1.32304E+03 -1.05733E+03 -1.37569E+03 -1.20393E+03
 -1.15373E+03 -1.62915E+03  2.67348E+02 -2.99775E+02  1.07344E+03  3.20205E+02  1.85590E+03  1.55229E+02
  4.40702E+02  9.05103E+02  1.00981E+03  1.03057E+03 -1.89072E+02  9.05497E+02  1.40299E+03 -7.13289E+02
  1.17991E+03  1.67387E+01  2.76430E+02  8.26456E+01  7.07090E+02  8.81037E+02  4.58828E+02 -2.77596E+02
 -2.13792E+02 -1.52396E+02  5.78800E+02  4.36537E+02 -9.04963E+02 -4.05936E+02  3.78232E+02 -2.07814E+03
  7.32521E+02 -1.12055E+03  8.82446E+02 -1.12708E+03  1.77015E+03 -4.61107E+01  7.50915E+02  6.16580E+02
  1.73465E+02  6.79651E+02  2.68778E+02  1.03546E+03 -1.07973E+03  5.55216E+02 -1.32002E+03 -6.90785E+02
  3.50205E+02 -9.58629E+02 -4.62464E+02  4.30182E+02 -4.52905E+02 -3.30096E+02 -1.52443E+02 -6.25935E+02
 -7.16490E+02  7.46007E+02 -2.14512E+02 -5.61020E+02  1.44978E+03 -2.83945E+03  7.14444E+02  3.06225E+02
  7.75875E+02  1.84901E+02 -2.20678E+01 -5.97514E+02 -6.44289E+02  4.81707E+02 -6.61734E+02 -7.65635E+01
