 $NMID ID='MM_0lb_SNR200_14hz_g45_46.RAW', FMTDAT='(8E13.5)'
 TRAMP=1., VOLUME=1. $END
  3.10411E+05  4.89809E+02  3.37272E+05  2.49601E+05  8.36399E+04  3.37350E+05 -1.32095E+05  2.50959E+05
 -1.90411E+05  8.34510E+04 -1.11729E+05 -3.34824E+04  9.74947E+02 -4.98549E+04  5.30726E+04 -1.14325E+03
  3.43514E+04  5.37825E+04 -1.70408E+04  7.62810E+04 -6.13329E+04  6.31966E+04 -8.53272E+04  3.18542E+04
 -8.18065E+04 -1.10884E+04 -5.72017E+04 -5.06943E+04 -1.54520E+04 -6.91948E+04  2.71910E+04 -4.64896E+04
  4.01784E+04  4.97208E+03  1.56924E+04  4.73382E+04 -3.45798E+04  4.79790E+04 -6.56397E+04 -1.16695E+02
 -5.31948E+04 -5.57144E+04 -6.54250E+03 -7.72075E+04  3.42879E+04 -5.55472E+04  4.73343E+04 -1.72242E+04
  4.40896E+04  1.04235E+04  3.18789E+04  2.50423E+04  1.54154E+04  2.89018E+04 -5.58200E+03  2.70089E+04
 -2.20782E+04  1.22509E+04 -1.92487E+04 -5.75954E+03  4.86389E+03 -7.54807E+03  2.32526E+04  1.14398E+04
  8.60918E+03  3.53695E+04 -3.24295E+04  3.50827E+04 -6.22942E+04  1.42812E+03 -5.58596E+04 -4.13944E+04
 -1.13095E+04 -6.32278E+04  3.93687E+04 -4.40362E+04  5.78994E+04 -2.65534E+03  3.42830E+04  3.21376E+04
 -5.09372E+03  3.48769E+04 -2.86567E+04  1.64633E+04 -3.07486E+04 -4.78429E+03 -1.78897E+04 -9.58464E+03
 -8.43724E+03 -1.29525E+04 -3.09924E+02 -1.75080E+04  6.99228E+03 -2.30342E+04  1.54272E+04 -1.29734E+04
  1.09247E+04  5.28849E+03 -7.89835E+03  1.33793E+04 -2.10308E+04 -4.63009E+03 -7.91367E+03 -3.29536E+04
  2.25099E+04 -4.22841E+04  4.72975E+04 -1.96799E+04  4.51900E+04  2.04185E+04  1.58258E+04  4.39422E+04
 -1.71639E+04  3.49563E+04 -2.51070E+04  1.36253E+03 -8.77878E+03 -2.66871E+04  2.04431E+04 -3.46523E+04
  4.17459E+04 -7.74254E+03  3.45743E+04  2.28067E+04  1.69134E+04  4.62626E+04 -7.87446E+03  4.97148E+04
 -3.15031E+04  3.16290E+04 -4.03640E+04  9.24278E+03 -4.13508E+04 -1.72966E+04 -2.32925E+04 -3.74010E+04
  7.10973E+03 -3.74366E+04  3.12463E+04 -1.39146E+04  2.81135E+04  1.13326E+04  3.59139E+03  1.83431E+04
 -1.39069E+04  7.94932E+03 -8.99008E+03 -7.21157E+03  6.89575E+03 -9.75332E+03  1.70681E+04  5.79701E+03
  1.26605E+04  2.24170E+04 -6.51844E+03  2.37814E+04 -2.13635E+04  1.20584E+04 -2.85705E+04 -4.86895E+03
 -2.05769E+04 -1.69635E+04 -8.60321E+03 -2.02020E+04  4.12837E+03 -2.02726E+04  1.60729E+04 -1.66089E+04
  2.51557E+04 -1.21194E+04  3.27458E+04  3.05038E+03  2.25584E+04  1.88229E+04  4.79017E+03  3.50001E+04
 -1.75312E+04  3.02533E+04 -2.81273E+04  1.02265E+04 -1.99552E+04 -1.22469E+04 -5.32246E+03 -1.40506E+04
  3.41161E+03 -4.36045E+03 -4.82079E+03  7.78597E+03 -1.60986E+04  5.73847E+03 -1.64905E+04 -7.11875E+03
 -1.06974E+04 -1.95045E+04  5.57380E+03 -2.29215E+04  1.52608E+04 -1.74904E+04  1.74405E+04 -9.46474E+02
  1.19431E+04  1.28320E+04 -1.33791E+03  1.77765E+04 -1.18865E+04  1.03041E+04 -1.86585E+04 -4.34966E+03
 -1.36257E+04 -1.66901E+04 -9.36343E+02 -2.14418E+04  1.20928E+04 -1.76678E+04  1.86377E+04 -8.60596E+03
  1.66792E+04  3.12023E+02  1.29389E+04  4.83774E+03  6.96794E+03  5.03443E+02  8.48564E+03 -2.79625E+03
  1.84035E+04  2.75004E+03  1.90141E+04  1.41058E+04  1.24921E+04  2.94424E+04 -2.72870E+03  3.30861E+04
 -1.84198E+04  2.77662E+04 -3.04080E+04  1.29173E+04 -3.22601E+04 -2.49054E+03 -2.71607E+04 -1.94988E+04
 -1.12418E+04 -2.64463E+04  9.05932E+03 -2.29351E+04  2.08310E+04 -1.25793E+04  2.01413E+04  4.40869E+03
  7.40992E+03  1.51493E+04 -9.00999E+03  1.27839E+04 -1.60327E+04  3.04176E+03 -1.19167E+04 -1.04122E+04
 -1.20293E+02 -1.59655E+04  7.51010E+03 -1.08994E+04  9.51287E+03 -1.48595E+03  1.43104E+03  6.68931E+03
 -6.98110E+03  2.23630E+03 -7.02634E+03 -5.24208E+03  2.45380E+02 -1.31767E+04  8.91483E+03 -1.42247E+04
  1.52207E+04 -7.11718E+03  1.76300E+04  3.32471E+03  1.54317E+04  1.30560E+04  7.03674E+03  1.94174E+04
 -3.79904E+03  2.21967E+04 -1.34867E+04  1.38602E+04 -1.39092E+04  4.24557E+03 -1.10147E+04 -4.67125E+03
 -4.96992E+03 -5.10277E+03 -2.16458E+03  1.19963E+03 -3.06943E+03  2.97856E+03 -5.04073E+03  3.87954E+03
 -1.12784E+04 -5.61204E+02 -1.19391E+04 -8.39449E+03 -3.92007E+03 -1.50747E+04  3.91938E+03 -1.22232E+04
  9.54528E+03 -5.07948E+03  7.83436E+03  2.60488E+03  2.27231E+03  4.15031E+03 -4.05759E+03 -3.28183E+02
 -3.87065E+03 -6.54602E+03 -1.27683E+03 -9.68988E+03  5.37533E+03 -1.26585E+04  1.34632E+04 -5.99866E+03
  1.62632E+04  7.13790E+02  1.18810E+04  9.96937E+03  1.70647E+03  1.22127E+04 -5.86546E+03  9.82574E+03
 -8.63149E+03  3.24660E+03 -4.52822E+03 -2.50936E+03  2.36660E+03 -3.34244E+03  5.87635E+03 -1.52133E+02
  5.81199E+03  4.99786E+03  1.02973E+03  8.69335E+03 -5.72886E+03  7.72993E+03 -9.44861E+03  7.87671E+02
 -6.91311E+03 -6.06831E+03 -6.38932E+02 -8.69956E+03  5.19577E+03 -4.23338E+03  4.69965E+03  2.09067E+03
  2.45521E+03  5.44213E+03 -5.42632E+03  8.11170E+03 -8.98407E+03  3.17960E+03 -8.60598E+03 -2.83474E+03
 -4.24065E+03 -9.24837E+03  2.74974E+03 -9.86590E+03  1.03349E+04 -6.09768E+03  1.01120E+04  1.49328E+03
  5.77417E+03  8.12067E+03  3.49691E+02  1.02142E+04 -8.35919E+03  6.52056E+03 -6.94619E+03 -5.85700E+02
 -8.22774E+03 -7.53830E+03 -2.14417E+03 -7.60220E+03  3.18380E+03 -7.09532E+03  3.79286E+03 -3.18620E+03
  4.27228E+03 -2.35502E+01 -1.33788E+03  2.55107E+03  1.31074E+03 -2.40095E+03  3.26458E+02 -4.61734E+03
  6.90086E+03 -2.91204E+03  9.43436E+03  1.17215E+03  8.62413E+03  6.87370E+03  6.33575E+03  1.05767E+04
 -1.99662E+03  1.39787E+04 -1.14510E+04  1.09722E+04 -1.50858E+04  2.27127E+03 -1.30679E+04 -5.00911E+03
 -6.09045E+03 -1.00045E+04 -1.17144E+03 -9.74121E+03  2.83535E+03 -3.27800E+03  2.58306E+03 -3.57076E+03
  2.50943E+03 -1.85410E+03  2.39602E+03 -3.20105E+03  4.88704E+03 -2.27350E+03  6.08881E+03  4.63249E+02
  6.83622E+03  1.91236E+03  3.92265E+03  5.00989E+03 -2.29380E+03  6.76418E+03 -7.38204E+03  4.56513E+03
 -8.35686E+03 -1.31719E+03 -4.52965E+03 -6.26198E+03 -4.94170E+01 -8.64814E+03  4.86200E+03 -9.70971E+03
  9.55894E+03 -5.25471E+03  1.00686E+04  1.24696E+03  7.67195E+03  7.03360E+03  1.50381E+03  8.64113E+03
 -4.16627E+03  7.59955E+03 -5.59523E+03  3.17629E+03 -3.64803E+03 -1.63624E+03 -2.45140E+03 -8.47132E+02
  4.24608E+02  6.75237E+02 -2.13969E+03  1.56670E+03 -4.68009E+03  1.44455E+03 -6.26263E+03 -1.29064E+03
 -3.69122E+03 -5.57275E+03 -1.15157E+03 -8.61643E+03  3.95445E+03 -7.04872E+03  6.82324E+03 -1.35224E+03
  8.75776E+03  4.07264E+03  3.41551E+03  6.67122E+03 -1.41360E+03  8.41166E+03 -5.55474E+03  5.10697E+03
 -6.57325E+03 -8.64298E+02 -5.07662E+03 -4.28112E+03 -4.04501E+02 -6.70254E+03  3.31617E+03 -4.22637E+03
  5.03228E+03 -1.70295E+03  4.77808E+03  1.52078E+03  1.51349E+03  3.25405E+03  2.43439E+03  1.76468E+03
  1.76004E+03  7.49462E+02  1.90917E+03  1.62056E+03  2.65176E+03  2.51664E+03  1.79720E+03  5.41598E+03
 -2.19621E+03  5.80259E+03 -5.28055E+03  5.20629E+03 -7.99408E+03  2.40021E+03 -7.51609E+03 -2.36173E+03
 -3.37731E+03 -6.18464E+03  1.08549E+03 -8.68210E+03  3.04019E+03 -5.16161E+03  6.45381E+03 -1.73890E+03
  4.56532E+03  3.54573E+03  1.09824E+03  4.92017E+03 -2.13844E+03  1.96941E+03 -2.95749E+03  2.36293E+01
 -1.92521E+03 -2.60393E+03  3.21532E+03 -2.06944E+03  2.43900E+03 -1.99684E+03  3.80258E+03  2.59338E+02
  1.12844E+03  8.90250E+02  1.57061E+03  4.59898E+02 -7.68365E+02 -1.48647E+02  1.11432E+03 -7.31689E+02
  1.28930E+03 -4.26806E+02  1.98450E+03  1.71203E+03  1.14932E+03  4.09401E+03 -8.02677E+02  6.20850E+03
 -2.16193E+03  3.11056E+03 -5.19385E+03  1.16115E+03 -3.00418E+03 -2.37949E+03 -4.77466E+02 -1.76261E+03
  1.23393E+03 -2.83906E+03  2.06729E+03 -1.30569E+03  5.70302E+02  1.57744E+03 -7.45273E+02  2.64645E+03
 -3.75661E+03  1.71608E+03 -2.81635E+03 -1.99502E+03 -1.64087E+03 -3.97763E+03  4.89853E+02 -2.95749E+03
  2.00626E+03 -7.07228E+02  2.22546E+03  1.22855E+02  2.59045E+03  1.67628E+03  1.18808E+02  2.33454E+03
 -1.33481E+03  5.51964E+02 -1.76001E+03 -2.29056E+03  1.40837E+03 -1.72872E+03  2.60546E+03 -3.31677E+03
  4.31302E+03  1.02229E+03  4.08985E+03  2.25418E+03  1.60715E+03  5.54151E+03 -7.08569E+02  4.09302E+03
 -3.23033E+03  1.63061E+03 -4.67033E+03 -1.57117E+02 -1.64201E+03 -4.02377E+03  3.57433E+02 -1.96422E+03
  2.74458E+03 -8.25262E+02  1.78677E+03  1.19757E+03  1.33694E+03  2.46229E+03 -6.06757E+02  1.68564E+03
 -1.13723E+03  2.65044E+03 -1.59136E+03 -5.87911E+02 -2.55465E+02 -2.20923E+02 -1.78224E+03  9.30980E+02
 -8.93611E+02  2.17190E+03 -4.15610E+03  1.14484E+03 -3.67919E+03 -3.49823E+02 -5.04860E+03 -2.74605E+03
 -1.92836E+03 -4.97416E+03 -2.06470E+02 -5.78191E+03  3.51447E+03 -5.31760E+03  5.90120E+03 -1.77523E+03
  5.57141E+03  5.59609E+02  3.36118E+03  3.66904E+03 -5.28948E+02  3.40236E+03 -2.15736E+03  2.70298E+03
 -1.71096E+03  9.49530E+01 -2.02409E+03 -6.29532E+02 -1.40750E+03  1.07364E+03 -6.00996E+02 -8.87381E+02
  2.49122E+02  5.02827E+02 -3.48041E+01 -4.29142E+02  4.62800E+02 -1.41318E+03  1.59582E+02 -1.61338E+03
  2.47686E+03 -1.87677E+03  1.22064E+03  1.02497E+03  3.06173E+03  2.39622E+03 -1.83957E+02  3.74651E+03
 -1.31816E+03  3.25676E+03 -4.19313E+03  2.38552E+03 -4.34626E+03  1.26127E+02 -3.51370E+03 -2.34485E+03
 -6.31266E+02 -3.58410E+03  1.53427E+03 -4.11133E+03  3.11153E+03 -2.46718E+03  2.87697E+03 -1.33866E+02
  8.70301E+02  1.90856E+03 -4.62975E+02  3.05116E+02 -9.81814E+02 -5.17521E+02  9.88033E+02 -4.44484E+02
  1.18886E+03 -4.12313E+02  7.89515E+02 -1.39436E+02 -2.97069E+01  7.91804E+02  2.14064E+02  2.11365E+03
 -1.23998E+03  1.43755E+03 -8.42378E+02 -1.95263E+02 -2.02122E+03 -1.74576E+03 -1.50908E+02 -3.27163E+03
  1.76638E+03 -1.68825E+03  2.11639E+03 -1.62019E+03  2.68437E+03 -7.33004E+02  3.57710E+02  2.58152E+03
  5.42897E+02  2.39049E+03  1.15694E+02  7.11375E+02 -7.81263E+02  1.91194E+03 -1.67114E+03  8.52680E+02
 -2.42902E+02  6.17038E+02 -1.14534E+03  8.63887E+02 -2.38854E+03  7.92763E+02 -3.55144E+03 -1.56642E+03
 -6.48450E+02 -1.24748E+03 -1.51005E+03 -1.06499E+03  1.67458E+03 -3.19115E+03  2.49264E+03 -1.34953E+03
  1.35376E+03  4.17137E+02  1.08098E+03 -1.91484E+02 -7.62191E+02  1.93150E+03 -1.08831E+03  2.43765E+03
