 $NMID ID='MM_0lb_SNR200_8hz_g60_4.RAW', FMTDAT='(8E13.5)'
 TRAMP=1., VOLUME=1. $END
  3.11469E+05  6.35354E+02  3.38455E+05  2.52944E+05  8.53626E+04  3.38903E+05 -1.34247E+05  2.53490E+05
 -1.92612E+05  8.46020E+04 -1.14181E+05 -3.20669E+04  1.25911E+03 -5.08010E+04  5.47355E+04 -8.73061E+02
  3.33710E+04  5.24737E+04 -1.56711E+04  7.63103E+04 -6.07412E+04  6.63107E+04 -8.49364E+04  3.19562E+04
 -8.31852E+04 -1.18161E+04 -5.79557E+04 -5.35039E+04 -1.56044E+04 -7.18993E+04  2.72969E+04 -4.59584E+04
  4.30185E+04  4.70598E+03  1.64759E+04  4.99440E+04 -3.40847E+04  4.79516E+04 -6.80086E+04  8.91221E+02
 -5.56898E+04 -5.76191E+04 -6.65972E+03 -7.97389E+04  3.38409E+04 -5.81751E+04  4.97621E+04 -1.81126E+04
  4.53882E+04  1.20276E+04  3.42968E+04  2.67910E+04  1.48860E+04  3.07307E+04 -6.11490E+03  2.71491E+04
 -2.21279E+04  1.05945E+04 -1.82689E+04 -7.22381E+03  9.31614E+03 -8.12723E+03  2.55904E+04  1.47393E+04
  4.95075E+03  3.72213E+04 -3.41800E+04  3.76043E+04 -6.61560E+04  2.35530E+03 -5.76769E+04 -4.41134E+04
 -1.15989E+04 -6.61762E+04  4.19248E+04 -4.94721E+04  6.09724E+04 -3.51259E+03  3.79367E+04  3.51597E+04
 -4.55148E+03  4.19074E+04 -3.22560E+04  2.05933E+04 -3.34476E+04 -4.46322E+03 -1.98052E+04 -1.34882E+04
 -9.05837E+03 -1.70574E+04 -8.46406E+02 -2.03030E+04  9.54532E+03 -2.36943E+04  1.55331E+04 -1.31350E+04
  1.07122E+04  3.95525E+03 -1.03459E+04  1.18057E+04 -2.55976E+04 -8.25859E+03 -9.12043E+03 -3.83926E+04
  2.81804E+04 -4.71619E+04  5.33935E+04 -1.85874E+04  4.95943E+04  1.97680E+04  1.92469E+04  4.86242E+04
 -1.73209E+04  3.70951E+04 -2.91836E+04  4.00151E+03 -1.39138E+04 -2.97639E+04  2.23499E+04 -3.71262E+04
  4.80673E+04 -1.27795E+04  4.15469E+04  2.71455E+04  2.30453E+04  5.25818E+04 -8.39157E+03  5.81955E+04
 -3.72525E+04  4.03724E+04 -5.06456E+04  1.33217E+04 -5.00614E+04 -1.70200E+04 -2.79958E+04 -4.24954E+04
  8.65980E+03 -4.38182E+04  3.54772E+04 -1.55358E+04  3.26891E+04  1.12166E+04  7.51328E+03  2.19435E+04
 -1.37461E+04  1.03421E+04 -1.10545E+04 -9.25791E+03  6.28084E+03 -1.05255E+04  1.81498E+04  6.37508E+03
  1.55460E+04  2.17167E+04 -2.88021E+03  2.73028E+04 -2.58792E+04  1.53031E+04 -3.35635E+04 -2.92552E+03
 -2.75879E+04 -1.81019E+04 -1.34654E+04 -2.62286E+04  4.00328E+03 -2.83973E+04  2.18663E+04 -2.54613E+04
  3.37466E+04 -1.32591E+04  4.03355E+04  5.81584E+03  2.81607E+04  2.68681E+04  5.04111E+03  4.36105E+04
 -2.07135E+04  3.32174E+04 -3.10054E+04  1.37528E+04 -2.29591E+04 -1.15740E+04 -6.01147E+03 -1.38105E+04
  2.98720E+02  8.55961E+02 -8.78738E+03  9.49857E+03 -2.25737E+04  4.55485E+03 -2.24223E+04 -1.01072E+04
 -1.18885E+04 -2.64368E+04  5.85274E+03 -2.83022E+04  1.99139E+04 -2.24805E+04  2.57158E+04 -9.53882E+02
  1.58933E+04  1.79655E+04 -1.46393E+03  2.53611E+04 -1.79760E+04  1.54998E+04 -2.52590E+04 -4.17523E+03
 -1.84609E+04 -2.30693E+04 -1.20950E+03 -3.04488E+04  1.24408E+04 -2.55203E+04  2.52533E+04 -1.25963E+04
  2.44700E+04 -2.12710E+03  1.58542E+04  4.92012E+03  8.89241E+03 -1.19276E+03  1.49212E+04 -2.33808E+03
  2.45332E+04  4.31125E+03  2.72804E+04  2.01524E+04  1.85005E+04  3.94275E+04 -8.21647E+02  4.80767E+04
 -2.78137E+04  4.06378E+04 -4.71442E+04  2.19103E+04 -4.79851E+04 -4.09014E+03 -3.98183E+04 -2.80997E+04
 -1.48122E+04 -4.16937E+04  1.62227E+04 -3.69856E+04  3.08170E+04 -1.54791E+04  2.62869E+04  1.08392E+04
  9.05548E+03  2.14956E+04 -1.23788E+04  1.76239E+04 -2.34088E+04  1.55444E+03 -1.79234E+04 -1.38031E+04
  1.07998E+03 -2.19826E+04  1.10890E+04 -1.66332E+04  1.55480E+04 -2.55204E+03  5.15460E+03  1.09403E+04
 -8.58365E+03  5.71240E+03 -1.13354E+04 -8.84943E+03 -3.94550E+03 -2.12695E+04  1.36541E+04 -2.29213E+04
  2.53405E+04 -1.37639E+04  3.03132E+04  3.30597E+03  2.67334E+04  2.17979E+04  1.10726E+04  3.39013E+04
 -6.63608E+03  3.40354E+04 -2.22167E+04  2.07496E+04 -2.58401E+04  2.55635E+03 -1.70537E+04 -7.94761E+03
 -6.59674E+03 -8.21504E+03  1.10974E+03 -9.90859E+01 -1.72514E+03  3.87995E+03 -6.92478E+03  6.53303E+03
 -1.56215E+04 -2.05824E+03 -1.66285E+04 -1.30276E+04 -5.37770E+03 -2.15856E+04  7.33008E+03 -1.67090E+04
  1.40581E+04 -7.12159E+03  1.03833E+04  4.73903E+03  4.78127E+01  7.04174E+03 -9.22293E+03 -1.93757E+02
 -8.31756E+03 -9.26401E+03 -2.72227E+03 -1.73913E+04  1.05782E+04 -1.83480E+04  2.15967E+04 -1.14585E+04
  2.72688E+04  2.29059E+03  1.85981E+04  1.57266E+04  3.22690E+03  2.15045E+04 -1.05101E+04  1.68640E+04
 -1.55414E+04  3.81298E+03 -7.20080E+03 -3.48926E+03  1.42552E+03 -7.53756E+03  9.43508E+03 -6.48078E+02
  8.17827E+03  9.65753E+03  2.53730E+03  1.46917E+04 -1.10628E+04  1.44326E+04 -1.74777E+04  2.62877E+03
 -1.14770E+04 -7.98067E+03  1.35985E+03 -1.38822E+04  1.05598E+04 -6.76855E+03  1.04973E+04  5.39943E+03
  4.65350E+03  1.16608E+04 -1.06537E+04  1.32888E+04 -1.50013E+04  6.36654E+03 -1.82244E+04 -5.23369E+03
 -1.03780E+04 -1.81719E+04  5.64182E+03 -2.13510E+04  1.86436E+04 -1.14133E+04  1.97853E+04  2.78849E+03
  1.07752E+04  1.43078E+04 -1.26263E+03  1.69994E+04 -1.36451E+04  1.17446E+04 -1.35275E+04 -1.57024E+03
 -1.11895E+04 -1.20366E+04 -3.26981E+03 -1.28800E+04  6.19906E+03 -9.55506E+03  1.01616E+04 -4.22078E+03
  4.78688E+03  4.30124E+03 -1.98092E+03  1.43403E+03 -9.96187E+02 -5.76694E+03  4.19604E+03 -8.40835E+03
  1.37238E+04 -6.66058E+03  1.97448E+04  2.13941E+03  1.90487E+04  1.16075E+04  1.26696E+04  2.45883E+04
 -6.62583E+03  2.77216E+04 -2.35832E+04  2.05828E+04 -2.97551E+04  3.32428E+03 -2.27876E+04 -1.05383E+04
 -1.39188E+04 -2.03602E+04 -3.42996E+02 -1.72584E+04  4.17514E+03 -1.01229E+04  5.78672E+03 -4.94282E+03
  4.74005E+03 -4.20305E+03  3.24245E+03 -4.69311E+03  5.54346E+03 -4.48678E+03  9.17045E+03 -2.90040E+03
  1.31283E+04  2.57013E+03  7.81782E+03  9.53608E+03 -2.52603E+03  1.27973E+04 -1.26385E+04  1.01145E+04
 -1.75914E+04 -9.68554E+02 -1.02292E+04 -1.27247E+04 -2.26353E+03 -1.83677E+04  1.01385E+04 -1.99114E+04
  1.83581E+04 -9.95430E+03  2.35436E+04  3.47073E+03  1.55389E+04  1.69149E+04  4.83111E+03  2.22917E+04
 -9.49094E+03  1.54676E+04 -1.18867E+04  6.30460E+03 -7.07433E+03 -3.81460E+03 -3.95814E+03 -3.38720E+03
 -5.89592E+01  8.69632E+02 -3.47999E+03  4.00364E+03 -7.32481E+03  2.94246E+03 -1.02543E+04 -2.70180E+03
 -9.88147E+03 -1.10322E+04 -1.12562E+03 -1.75492E+04  9.63928E+03 -1.55185E+04  1.69695E+04 -6.11200E+03
  1.74933E+04  9.00937E+03  9.73434E+03  1.64162E+04 -2.85414E+03  1.82210E+04 -1.32687E+04  1.17640E+04
 -1.72510E+04 -1.33106E+03 -1.41199E+04 -1.05201E+04 -2.15352E+03 -1.52870E+04  7.16446E+03 -1.24794E+04
  1.03869E+04 -4.26798E+03  8.14977E+03  4.55003E+03  4.75366E+03  6.03471E+03  2.79176E+03  3.30705E+03
  3.46203E+03 -4.95577E+02  3.73323E+03  2.68861E+03  3.99958E+03  6.73479E+03  6.05732E+03  9.23413E+03
 -3.22582E+03  1.54690E+04 -1.32317E+04  1.25355E+04 -1.90688E+04  2.86513E+03 -1.79727E+04 -8.71039E+03
 -9.36537E+03 -1.86211E+04  3.35256E+03 -2.02963E+04  1.20415E+04 -1.34559E+04  1.70613E+04 -3.96946E+03
  1.08208E+04  7.17861E+03  3.32113E+03  1.29152E+04 -6.20920E+03  5.97386E+03 -8.76649E+03 -2.07168E+03
 -3.25402E+03 -8.83881E+03  4.01974E+03 -8.65722E+03  9.04036E+03 -4.37629E+03  8.08788E+03  1.62234E+03
  4.05689E+03  5.06443E+03  1.36323E+03  1.44294E+03 -2.33090E+03  3.32254E+03 -4.15522E+02 -1.59557E+03
  3.55200E+03 -4.85641E+02  9.02275E+03  3.82062E+03  3.66961E+03  9.08994E+03 -2.36333E+03  1.32459E+04
 -1.11462E+04  8.94557E+03 -9.35534E+03  2.29106E+03 -1.02200E+04 -3.84681E+03 -4.70304E+03 -5.79415E+03
  6.98829E+02 -8.27193E+03  5.59770E+03 -1.80034E+03  3.64428E+03  3.29083E+03 -7.87460E+02  5.13497E+03
 -8.41006E+03  2.60858E+03 -8.89534E+03 -6.22675E+03 -4.82135E+03 -1.02263E+04 -3.31370E+02 -1.12212E+04
  7.55591E+03 -5.64671E+03  8.42743E+03 -3.27303E+03  5.98341E+03  3.72325E+03  1.70430E+03  6.66875E+03
 -4.93607E+03  2.05517E+03 -4.76642E+03 -5.23645E+03  1.19327E+03 -8.61843E+03  9.41637E+03 -6.81215E+03
  1.20083E+04 -3.46985E+02  1.24399E+04  8.32547E+03  3.49274E+03  1.27528E+04 -5.57430E+03  1.22888E+04
 -1.11916E+04  6.83133E+03 -1.16924E+04 -3.32821E+03 -5.46171E+03 -9.64419E+03  2.63731E+03 -8.72731E+03
  7.27692E+03 -3.92052E+03  6.68267E+03  2.11345E+03  2.63784E+03  7.73593E+03 -9.89767E+02  6.19684E+03
 -3.58165E+03  2.38591E+03 -2.26078E+03  1.83730E+03 -8.69145E+02  8.18483E+02 -3.63306E+03  9.07609E+02
 -3.22299E+03  3.51912E+03 -9.89582E+03  5.92948E+03 -1.45144E+04 -7.10014E+02 -1.54523E+04 -9.15139E+03
 -9.82908E+03 -1.52669E+04  3.40957E+03 -2.02896E+04  1.15541E+04 -1.61190E+04  1.82018E+04 -5.04897E+03
  1.76483E+04  4.38921E+03  1.01702E+04  1.09558E+04  1.68710E+03  1.32118E+04 -4.34135E+03  1.02558E+04
 -1.05946E+04  6.05850E+03 -5.87675E+03 -1.70365E+03 -5.52548E+02 -4.14863E+03  1.87347E+02 -7.68004E+02
 -1.13507E+03 -1.78603E+02 -3.39876E+03  3.18616E+02  7.02517E+02 -3.64007E+03  1.43011E+03 -5.56068E+03
  4.79736E+03 -4.46547E+03  6.10005E+03 -1.30891E+02  1.03923E+04  6.95262E+03  3.10137E+03  1.27725E+04
 -6.39988E+03  1.56938E+04 -1.37658E+04  8.79266E+03 -1.55610E+04 -8.44079E+02 -1.19666E+04 -7.33770E+03
 -4.43193E+03 -1.22827E+04  4.90281E+03 -1.37214E+04  8.83531E+03 -6.71564E+03  9.06437E+03  1.98705E+02
  5.91626E+03  6.28977E+03 -1.75017E+03  2.44154E+03 -2.06713E+03 -1.56793E+02  6.46150E+02 -2.65595E+03
  3.49114E+03 -1.79328E+03  4.59042E+03  1.77870E+03  4.22730E+03  4.41762E+03 -2.35974E+02  6.95861E+03
 -6.75963E+03  6.55577E+03 -8.42156E+03 -8.67364E+02 -1.05810E+04 -6.09283E+03 -1.15517E+03 -1.25335E+04
  6.90790E+03 -7.35578E+03  1.26388E+04 -2.98311E+03  1.11478E+04  4.32736E+03  7.89480E+03  7.63936E+03
  2.10448E+03  9.16340E+03 -3.66934E+03  7.74632E+03 -7.73706E+03  4.07966E+03 -4.19364E+03  4.12993E+02
 -4.27009E+03 -9.29498E+02 -3.49541E+03  5.34117E+02 -6.69391E+03  3.73922E+03 -7.08017E+03 -1.79166E+03
 -8.55313E+03 -3.86617E+03 -2.51400E+03 -9.88186E+03  3.30919E+03 -9.30686E+03  8.87829E+03 -5.06622E+03
  1.03168E+04  3.49874E+03  6.40238E+03  7.36667E+03 -6.84198E+02  9.53429E+03 -7.08591E+03  2.46045E+03
