 $NMID ID='MM_0lb_SNR200_19hz_g55_61.RAW', FMTDAT='(8E13.5)'
 TRAMP=1., VOLUME=1. $END
  3.09577E+05 -2.97347E+02  3.37906E+05  2.50312E+05  8.42566E+04  3.38139E+05 -1.33059E+05  2.51352E+05
 -1.90029E+05  8.29960E+04 -1.10782E+05 -3.20239E+04  4.89335E+02 -5.06598E+04  5.29494E+04  6.56318E+02
  3.50763E+04  5.29553E+04 -1.71992E+04  7.53724E+04 -6.05624E+04  6.21532E+04 -8.30245E+04  3.22989E+04
 -8.04947E+04 -1.11035E+04 -5.70257E+04 -5.05785E+04 -1.26626E+04 -6.82686E+04  2.69661E+04 -4.45560E+04
  3.97587E+04  3.87490E+03  1.59138E+04  4.65893E+04 -3.42728E+04  4.54577E+04 -6.62412E+04 -6.20174E+02
 -5.22076E+04 -5.59550E+04 -6.01432E+03 -7.49368E+04  3.38386E+04 -5.31932E+04  4.59237E+04 -1.61608E+04
  4.22890E+04  1.01576E+04  3.07875E+04  2.48301E+04  1.57152E+04  2.87927E+04 -5.56661E+03  2.81570E+04
 -2.14600E+04  1.21031E+04 -1.99283E+04 -3.96569E+03  5.06544E+03 -7.33052E+03  2.14915E+04  1.14110E+04
  6.92456E+03  3.42959E+04 -3.15269E+04  3.42706E+04 -6.13031E+04  2.25672E+03 -5.60854E+04 -4.14851E+04
 -1.20987E+04 -6.14925E+04  3.85545E+04 -4.41996E+04  5.63848E+04 -1.91164E+03  3.24554E+04  3.05718E+04
 -7.03509E+03  3.38010E+04 -2.95970E+04  1.38679E+04 -2.81147E+04 -4.68708E+03 -1.54350E+04 -1.03296E+04
 -8.06446E+03 -1.19295E+04 -1.45684E+03 -1.72584E+04  7.44097E+03 -2.22134E+04  1.51085E+04 -1.27246E+04
  1.12906E+04  3.69122E+03 -6.74505E+03  1.34507E+04 -1.94790E+04 -3.34613E+03 -9.00232E+03 -3.20723E+04
  2.09450E+04 -4.12625E+04  4.40277E+04 -1.95109E+04  4.24054E+04  1.86369E+04  1.50000E+04  4.18044E+04
 -1.53256E+04  3.14144E+04 -2.40836E+04  1.38461E+03 -8.22960E+03 -2.76367E+04  2.03155E+04 -3.21649E+04
  3.88058E+04 -8.26532E+03  3.25042E+04  2.23379E+04  1.51879E+04  4.41458E+04 -7.04352E+03  4.71531E+04
 -2.89241E+04  3.12358E+04 -3.76653E+04  8.62014E+03 -3.89298E+04 -1.49845E+04 -2.24737E+04 -3.58989E+04
  6.28594E+03 -3.53800E+04  2.91104E+04 -1.28002E+04  2.77931E+04  1.09151E+04  2.47662E+03  1.88908E+04
 -1.22048E+04  8.36416E+03 -8.69323E+03 -6.62757E+03  5.55733E+03 -1.03780E+04  1.72771E+04  5.61855E+03
  1.33123E+04  2.09862E+04 -6.60612E+03  2.29540E+04 -2.15796E+04  9.24112E+03 -2.51364E+04 -5.58105E+03
 -1.81439E+04 -1.64091E+04 -6.22013E+03 -1.74693E+04  3.44896E+03 -1.56062E+04  1.32311E+04 -1.41678E+04
  2.15103E+04 -1.29644E+04  2.85846E+04  1.11168E+03  2.09463E+04  1.70359E+04  3.96073E+03  3.34518E+04
 -1.50062E+04  2.94121E+04 -2.60374E+04  8.24562E+03 -2.00320E+04 -9.20680E+03 -3.75277E+03 -1.43227E+04
  2.59099E+03 -3.66140E+03 -2.93833E+03  5.71415E+03 -1.35610E+04  5.36313E+03 -1.27429E+04 -6.47908E+03
 -9.28500E+03 -1.55234E+04  4.67992E+03 -1.91847E+04  1.34580E+04 -1.45318E+04  1.37336E+04 -1.86460E+03
  8.79283E+03  9.54621E+03 -4.47251E+02  1.63627E+04 -1.08478E+04  8.64453E+03 -1.59569E+04 -3.51802E+03
 -1.13395E+04 -1.51904E+04 -1.56452E+03 -2.03589E+04  9.05627E+03 -1.57745E+04  1.43681E+04 -8.28711E+03
  1.48417E+04 -9.60882E+01  1.16917E+04  2.47996E+03  5.98125E+03  5.67822E+02  7.14463E+03 -1.42609E+03
  1.45918E+04  2.23874E+03  1.47623E+04  1.39781E+04  9.61547E+03  2.56795E+04 -3.26318E+03  2.80067E+04
 -1.82305E+04  2.14408E+04 -2.54702E+04  9.31048E+03 -2.61565E+04 -1.51810E+03 -2.13809E+04 -1.47455E+04
 -1.06292E+04 -2.09301E+04  6.01253E+03 -2.00157E+04  1.71920E+04 -1.22400E+04  1.53860E+04  3.77362E+03
  6.98869E+03  1.14586E+04 -6.94806E+03  1.10899E+04 -1.32678E+04  2.42431E+03 -1.04527E+04 -8.63399E+03
 -6.36460E+02 -1.22096E+04  6.18408E+03 -1.00845E+04  8.39154E+03 -2.26366E+03  1.82300E+03  4.25213E+03
 -5.05910E+03  1.13367E+03 -3.75271E+03 -4.54160E+03  3.11967E+02 -9.44907E+03  8.15754E+03 -1.02052E+04
  1.30881E+04 -4.29642E+03  1.17827E+04  2.20235E+03  1.05614E+04  9.99264E+03  3.98159E+03  1.52465E+04
 -1.69781E+03  1.65440E+04 -1.01259E+04  1.09461E+04 -1.11354E+04  3.39123E+03 -8.42990E+03 -1.83112E+03
 -4.15465E+03 -4.27201E+03 -1.59800E+03  1.43191E+03 -1.22889E+03  1.87300E+03 -2.80776E+03  4.42942E+03
 -7.74336E+03 -4.15379E+02 -9.13912E+03 -6.95102E+03 -3.23470E+03 -1.16875E+04  3.24979E+03 -7.68504E+03
  7.41139E+03 -4.73913E+03  4.84032E+03  2.39179E+03  6.51287E+02  3.56421E+03 -3.48503E+03 -3.10754E+02
 -3.91145E+03 -5.41471E+03 -2.18145E+03 -6.87399E+03  5.38351E+03 -8.76003E+03  1.08595E+04 -4.65567E+03
  1.16725E+04  8.50942E+02  8.94942E+03  5.82479E+03  1.82769E+03  8.75123E+03 -4.41369E+03  9.09049E+03
 -7.29667E+03  2.82267E+03 -3.32882E+03 -1.58439E+03  1.48801E+03 -1.54150E+03  5.17265E+03 -1.38125E+03
  3.69842E+03  3.75788E+03  1.35152E+03  6.91079E+03 -4.33360E+03  5.81877E+03 -8.26014E+03  1.18013E+03
 -4.85125E+03 -4.53482E+03 -5.69208E+02 -6.31282E+03  3.81958E+03 -3.11889E+03  3.11727E+03  1.74331E+03
  8.60171E+02  4.20427E+03 -4.18979E+03  5.53640E+03 -5.47718E+03  3.00869E+03 -4.43549E+03 -5.76896E+02
 -2.50347E+03 -6.31808E+03  9.25108E+02 -7.50651E+03  6.30246E+03 -5.12994E+03  6.08854E+03  5.33022E+02
  4.18984E+03  5.48484E+03 -1.04121E+03  8.50927E+03 -4.74298E+03  4.48139E+03 -6.23106E+03 -2.58116E+01
 -5.15829E+03 -5.31841E+03 -9.39377E+02 -4.62118E+03  3.80747E+03 -4.68643E+03  2.39520E+03 -2.60720E+03
  3.07971E+03  1.57631E+02  7.35041E+02  9.79856E+02  1.43623E+03  1.67145E+02  3.88996E+01 -7.04942E+02
  4.47780E+03  5.71052E+01  4.66876E+03  1.04896E+03  5.60248E+03  3.15920E+03  4.57414E+03  8.14492E+03
 -1.56946E+03  8.05965E+03 -8.64152E+03  6.92119E+03 -1.03214E+04  1.25220E+03 -6.81022E+03 -2.17932E+03
 -4.29379E+03 -5.99472E+03  3.77831E+02 -5.92473E+03  1.89312E+03 -1.75133E+03  7.95871E+02 -1.65191E+03
  1.13224E+03 -1.60920E+03  1.94342E+03 -3.90250E+03  4.04968E+03 -1.99094E+03  3.63954E+03  3.54790E+02
  4.61781E+03  1.11862E+03  1.06706E+03  4.15009E+03 -9.41777E+02  2.33989E+03 -4.14729E+03  2.38793E+03
 -4.87786E+03 -6.06947E+02 -2.31310E+03 -3.44147E+03  7.84456E+02 -5.24629E+03  2.58220E+03 -5.64953E+03
  5.04434E+03 -3.07038E+03  6.88601E+03 -1.02496E+02  6.15453E+03  4.45051E+03  1.36177E+03  5.28851E+03
 -1.22453E+03  5.28092E+03 -3.43212E+03  1.78541E+03 -1.32463E+03 -1.70331E+03 -1.10344E+03 -1.14880E+03
 -6.95647E+02  2.38416E+02 -8.89011E+02  2.03611E+03 -2.37615E+03  1.86437E+03 -4.76831E+03 -3.65679E+02
 -1.29118E+03 -3.34534E+03 -5.78822E+02 -3.84978E+03  2.01140E+03 -3.97289E+03  3.42314E+03 -9.71080E+02
  3.71058E+03  2.67561E+03  1.53051E+03  2.90589E+03 -9.63653E+02  4.03195E+03 -2.27499E+03  2.50660E+03
 -3.88289E+03  5.90072E+02 -3.45913E+03 -2.20643E+03  2.55281E+02 -2.99435E+03  1.77847E+03 -3.79758E+03
  2.21600E+03 -1.70126E+03  1.06799E+03 -4.83781E+02  1.32751E+02  1.12719E+03  1.26577E+02  5.59482E+02
  1.01306E+03  3.59575E+02  2.00771E+03  1.42815E+03  9.11285E+02  2.06595E+03  1.68105E+03  1.43510E+03
 -1.52884E+03  3.27993E+03 -2.79592E+03  3.80843E+03 -3.20580E+03  1.74241E+03 -4.12018E+03  1.29404E+02
 -1.50976E+03 -5.15249E+03  3.37071E+02 -4.62690E+03  2.68317E+03 -2.25817E+03  2.83963E+03 -2.99695E+01
  1.82417E+03  2.08710E+03 -1.71402E+02  1.88943E+03  2.30527E+02  1.42426E+03 -3.65493E+02 -5.79147E+01
  4.65114E+01 -9.17153E+02  1.71779E+03 -8.04398E+02  1.65541E+03 -9.08930E+02  1.55407E+03  5.52824E+02
  9.32994E+02  3.87522E+02  9.38506E+02 -5.79624E+02 -6.96428E+02  7.49399E+02  2.52391E+03 -1.08170E+03
  7.81514E+02  1.82197E+02  1.89529E+03  4.62700E+02 -5.87976E+02  1.52071E+03  5.84025E+01  3.02664E+03
 -1.06205E+03  5.36176E+02 -2.14507E+03  2.00272E+03 -1.25793E+03 -9.45439E+02  6.93211E+02 -2.84419E+03
 -1.60221E+02 -1.13314E+03  8.54438E+02  1.59582E+02  6.68842E+02  1.59890E+03 -5.47223E+02  5.53421E+02
 -2.18462E+03  1.17505E+03 -1.28555E+03 -1.12091E+03 -7.18462E+02 -1.71175E+03  1.90930E+02 -1.70103E+03
  1.44073E+02 -7.16891E+02  9.60951E+02 -7.28369E+00  7.60325E+02 -1.13701E+02  3.37616E+02  1.27713E+03
 -1.33676E+02 -4.06130E+02 -9.66198E+02  2.48104E+02  5.41796E+02  7.35149E+01  1.40873E+03  3.01675E+02
  1.26419E+03  2.92501E+02  3.37113E+03  7.93002E+02  7.78791E+02  1.07858E+03 -4.04025E+02  2.05852E+03
 -1.72155E+03 -1.04412E+03 -1.54073E+03 -1.76720E+02 -4.42962E+02  3.55098E+02 -6.59846E+02 -7.20834E+02
  1.69200E+03 -9.07860E+02  1.22311E+03  1.22903E+03  7.58630E+02  1.23622E+03 -6.11453E+02  5.30930E+02
 -4.76574E+02  9.92961E+02 -8.82682E+02  3.49435E+02 -2.21986E+02  2.71389E+01 -6.96138E+02 -6.06096E+02
 -2.33741E+01  5.03219E+02 -1.58010E+03  4.29415E+02 -2.08484E+03  5.24352E+02 -2.25208E+03 -1.53205E+03
 -1.50193E+03 -1.64715E+03  6.31332E+02 -2.55772E+03  5.81099E+02 -2.69194E+03  2.60543E+03 -1.91445E+03
  1.36216E+03  1.28574E+02  7.06167E+02  1.31409E+03 -9.69250E+02  1.37800E+03 -9.32404E+02  6.93114E+02
 -1.41543E+02  5.99447E+02  2.79435E+02 -2.22220E+02  1.38028E+02  3.51705E+02 -2.24403E+03  4.26622E+02
 -9.74400E+02  2.35789E+02 -5.12620E+02 -1.46309E+03 -4.22219E+02 -1.37157E+03 -6.10493E+02 -6.34334E+02
  1.00624E+03  1.60747E+01  5.30721E+02  4.03227E+02 -6.72118E+02  7.52136E+02  9.12600E+01  9.90236E+02
 -1.10721E+03  2.17992E+03 -1.52326E+03  1.77270E+03 -7.97161E+02  6.53233E+02 -5.58593E+02 -2.02541E+03
 -1.03901E+03 -1.40015E+03  3.88486E+02 -4.26246E+02  2.00336E+02  3.55805E+02  7.85159E+02  3.28347E+02
  1.44155E+03  1.82042E+02  5.90365E+02  3.07867E+02  3.16562E+02 -5.58780E+02  1.28700E+02 -4.36941E+02
  1.12576E+03 -3.27292E+01 -8.18132E+02  1.71041E+02  2.20456E+02  6.85240E+02  4.39916E+01  5.51820E+02
 -2.29293E+01  8.93091E+02 -5.10704E+02  3.01530E+02 -3.81590E+02  1.38374E+01 -1.11228E+02 -1.60251E+03
  1.61241E+03 -9.56453E+01  8.13847E+02 -6.95860E+02  7.13739E+02 -1.19076E+03  1.13192E+01  1.25973E+03
  4.43104E+02  6.50538E+02 -1.30806E+03  9.58973E+02  2.77435E+02  1.03160E+03  9.87674E+01  6.04860E+02
  4.05016E+02 -6.09544E+01 -1.02063E+03 -1.48642E+02 -2.60386E+02  1.62986E+03 -2.32501E+03  2.67672E+02
 -1.15381E+03  1.38380E+02 -4.89384E+02 -4.67310E+02  1.34008E+03 -1.40822E+03  9.40793E+02 -2.99142E+02
  2.19991E+02  5.19155E+02  7.36582E+02  5.54383E+02 -6.01281E+02  5.61031E+02 -8.62312E+02  9.06710E+02
