 $NMID ID='MM_0lb_SNR200_7hz_g50_96.RAW', FMTDAT='(8E13.5)'
 TRAMP=1., VOLUME=1. $END
  3.10071E+05  6.55577E+02  3.38762E+05  2.48587E+05  8.42076E+04  3.39196E+05 -1.32813E+05  2.51073E+05
 -1.90825E+05  8.51099E+04 -1.12719E+05 -3.24919E+04  2.41288E+02 -5.14963E+04  5.42882E+04 -1.50099E+03
  3.53307E+04  5.27412E+04 -1.57180E+04  7.73001E+04 -6.16054E+04  6.28260E+04 -8.69734E+04  3.30813E+04
 -8.15968E+04 -1.29764E+04 -5.78748E+04 -5.21600E+04 -1.59921E+04 -7.02034E+04  2.76470E+04 -4.80296E+04
  4.06225E+04  2.39287E+03  1.70694E+04  4.79009E+04 -3.45797E+04  5.09926E+04 -6.76113E+04  1.95496E+02
 -5.45457E+04 -5.67741E+04 -7.44744E+03 -7.85216E+04  3.39296E+04 -5.79094E+04  5.22287E+04 -2.13871E+04
  4.49162E+04  1.15389E+04  3.26422E+04  2.74978E+04  1.62217E+04  3.05552E+04 -5.74826E+03  2.69089E+04
 -2.38337E+04  1.28536E+04 -1.89809E+04 -5.67456E+03  7.84344E+03 -7.84424E+03  2.34963E+04  1.39218E+04
  6.11997E+03  3.84853E+04 -3.57179E+04  3.68151E+04 -6.65092E+04  2.04929E+03 -5.95060E+04 -4.54229E+04
 -1.49683E+04 -6.72528E+04  4.21613E+04 -4.90193E+04  6.33512E+04 -2.45705E+03  3.79339E+04  3.57358E+04
 -4.06563E+03  4.12787E+04 -3.25036E+04  2.10569E+04 -3.29994E+04 -3.59552E+03 -2.01859E+04 -1.28910E+04
 -1.14605E+04 -1.51653E+04 -9.03260E+02 -2.16365E+04  7.43842E+03 -2.22246E+04  1.64878E+04 -1.19278E+04
  1.06012E+04  7.76167E+03 -1.26110E+04  1.52251E+04 -2.45640E+04 -7.65177E+03 -7.10424E+03 -3.90188E+04
  2.57397E+04 -5.05018E+04  5.28643E+04 -2.26974E+04  4.89230E+04  2.18569E+04  1.79966E+04  4.85947E+04
 -1.66186E+04  3.94747E+04 -2.87379E+04  2.56775E+03 -1.26381E+04 -2.92169E+04  2.03717E+04 -3.89419E+04
  4.55167E+04 -1.15304E+04  4.19180E+04  2.75936E+04  2.26795E+04  5.31066E+04 -8.14860E+03  5.78438E+04
 -3.88423E+04  3.94659E+04 -4.95190E+04  1.20700E+04 -4.98347E+04 -2.01706E+04 -2.66900E+04 -4.29756E+04
  9.83586E+03 -4.35307E+04  3.29065E+04 -1.80333E+04  3.48133E+04  1.11085E+04  6.41705E+03  2.12223E+04
 -1.51217E+04  9.31716E+03 -1.03310E+04 -6.70378E+03  6.33206E+03 -1.17892E+04  1.96424E+04  4.53159E+03
  1.48696E+04  2.25723E+04 -6.35047E+03  2.62983E+04 -2.42472E+04  1.45218E+04 -3.66255E+04 -1.77902E+03
 -2.62939E+04 -1.93696E+04 -1.27244E+04 -2.64680E+04  6.45400E+03 -2.64345E+04  2.16655E+04 -2.43419E+04
  3.39045E+04 -1.33469E+04  4.13015E+04  5.67932E+03  2.72651E+04  2.54813E+04  5.35725E+03  4.43946E+04
 -2.08212E+04  3.40806E+04 -3.34079E+04  1.25148E+04 -2.33382E+04 -9.20675E+03 -6.34248E+03 -1.41643E+04
  3.55654E+02 -1.49079E+03 -7.99673E+03  9.93092E+03 -2.24159E+04  6.21673E+03 -2.15681E+04 -1.01711E+04
 -1.35623E+04 -2.67682E+04  6.26682E+03 -2.82556E+04  2.08657E+04 -2.01490E+04  2.52746E+04 -2.71713E+03
  1.54238E+04  1.68309E+04 -6.67614E+02  2.61948E+04 -1.94658E+04  1.50860E+04 -2.78138E+04 -6.26661E+03
 -1.59945E+04 -2.40509E+04 -3.72820E+03 -3.06959E+04  1.16334E+04 -2.53741E+04  2.38770E+04 -1.23016E+04
  2.36082E+04  1.32335E+01  1.53399E+04  4.78863E+03  9.58641E+03  1.70204E+03  1.17968E+04 -1.84150E+03
  2.32406E+04  3.18209E+03  2.82474E+04  2.00004E+04  1.96186E+04  4.21902E+04 -1.34426E+03  4.83989E+04
 -2.57748E+04  4.04516E+04 -4.70557E+04  2.14739E+04 -5.02380E+04 -3.64005E+03 -3.98969E+04 -2.90981E+04
 -1.37113E+04 -4.17471E+04  1.66157E+04 -3.70201E+04  3.09628E+04 -1.78653E+04  2.52338E+04  1.03466E+04
  8.71487E+03  1.85939E+04 -1.14900E+04  1.68380E+04 -2.12288E+04  1.00968E+03 -1.68320E+04 -1.39200E+04
 -1.24779E+03 -2.18640E+04  1.25602E+04 -1.42905E+04  1.43435E+04 -1.33179E+03  4.18884E+03  8.90454E+03
 -8.56336E+03  4.91842E+03 -9.74180E+03 -6.95220E+03 -3.79972E+03 -1.98608E+04  1.41899E+04 -2.10708E+04
  2.50999E+04 -1.40595E+04  3.00875E+04  3.60795E+03  2.67924E+04  2.02348E+04  1.23096E+04  3.40941E+04
 -5.25760E+03  3.52390E+04 -2.39553E+04  2.14147E+04 -2.65182E+04  3.34355E+03 -1.70087E+04 -6.69592E+03
 -6.41972E+03 -1.04492E+04 -1.44387E+03 -1.66972E+03 -4.37065E+03  5.15836E+03 -7.14956E+03  3.70360E+03
 -1.71325E+04 -2.54829E+03 -1.65272E+04 -1.33117E+04 -7.56039E+03 -2.19401E+04  7.51661E+03 -1.78590E+04
  1.33498E+04 -7.00025E+03  8.73552E+03  6.11637E+03 -3.98840E+02  7.19902E+03 -8.40426E+03 -2.17027E+02
 -9.15637E+03 -9.72172E+03  3.17500E+02 -1.71297E+04  1.16471E+04 -1.88067E+04  2.40233E+04 -1.14960E+04
  2.96556E+04  2.11385E+03  1.97055E+04  1.70724E+04  3.66097E+03  2.29379E+04 -1.09814E+04  1.64726E+04
 -1.47046E+04  5.22186E+03 -7.90110E+03 -5.49299E+03  1.90839E+03 -4.79914E+03  1.11966E+04 -1.54994E+03
  8.38273E+03  8.75612E+03  7.06151E+02  1.43167E+04 -1.03107E+04  1.14182E+04 -1.81972E+04  2.76606E+03
 -1.15494E+04 -1.06181E+04 -9.38911E+02 -1.53441E+04  1.05458E+04 -7.59994E+03  1.17279E+04  4.47032E+03
  2.55291E+03  1.08895E+04 -8.20393E+03  1.46688E+04 -1.43096E+04  6.42647E+03 -1.57352E+04 -7.16991E+03
 -1.17732E+04 -1.86177E+04  4.49066E+03 -2.02536E+04  1.86314E+04 -1.19669E+04  1.85279E+04  2.62407E+03
  1.21670E+04  1.66480E+04 -2.19139E+03  1.95803E+04 -1.32729E+04  9.32295E+03 -1.40846E+04 -2.69155E+03
 -1.30562E+04 -1.17260E+04 -2.26692E+03 -1.44768E+04  9.50675E+03 -1.08561E+04  1.02450E+04 -2.64190E+03
  5.42326E+03  2.34554E+03 -2.21687E+03  1.30113E+03 -1.65500E+03 -4.99902E+03  1.57470E+03 -9.87942E+03
  1.25974E+04 -6.62363E+03  1.92757E+04  3.14833E+03  1.80524E+04  1.25522E+04  1.19575E+04  2.46830E+04
 -3.62226E+03  2.98357E+04 -2.15176E+04  2.23148E+04 -3.10466E+04  5.28417E+03 -2.43974E+04 -1.19030E+04
 -1.27498E+04 -2.15485E+04 -2.24345E+02 -1.80886E+04  6.42785E+03 -9.88721E+03  6.48246E+03 -6.20200E+03
  5.92794E+03 -3.72117E+03  5.47026E+03 -5.64057E+03  6.38910E+03 -5.32072E+03  1.04723E+04 -2.15781E+03
  1.31572E+04  3.23498E+03  7.42986E+03  1.10475E+04 -6.83447E+02  1.36546E+04 -1.26969E+04  1.07671E+04
 -1.87255E+04 -6.49469E+02 -1.22924E+04 -1.20158E+04 -2.76166E+03 -2.00583E+04  1.08440E+04 -2.03319E+04
  2.25403E+04 -1.06128E+04  2.37030E+04  3.54710E+03  1.82377E+04  1.82094E+04  2.04461E+03  2.23628E+04
 -8.45879E+03  1.82561E+04 -1.33046E+04  5.77770E+03 -1.01941E+04 -2.30443E+03 -3.15529E+03 -3.29386E+03
 -3.32540E+03 -6.01042E+02 -2.68747E+03  4.34442E+03 -7.36397E+03  3.35069E+03 -1.04665E+04 -8.88475E+02
 -9.49242E+03 -1.42676E+04  5.33115E+02 -1.82767E+04  1.16343E+04 -1.61082E+04  2.06777E+04 -6.14016E+03
  1.89930E+04  9.27289E+03  7.94200E+03  1.64036E+04 -3.48281E+03  1.91466E+04 -1.49911E+04  1.20392E+04
 -1.83564E+04  1.68235E+03 -1.27044E+04 -1.10972E+04 -1.98521E+03 -1.54699E+04  7.16810E+03 -1.09841E+04
  1.19083E+04 -3.45685E+03  8.27709E+03  3.55522E+03  2.48802E+02  6.22497E+03  1.29814E+03  2.43038E+03
  3.74025E+03  1.47158E+03  3.37149E+03  3.80013E+02  5.48593E+03  7.97458E+03  5.01831E+03  1.01419E+04
 -4.80888E+03  1.59410E+04 -1.38217E+04  1.30072E+04 -1.97565E+04  3.49042E+03 -2.03252E+04 -8.21955E+03
 -9.76097E+03 -1.92481E+04  1.34670E+03 -2.04911E+04  1.41303E+04 -1.32093E+04  1.44873E+04 -1.66985E+03
  1.42595E+04  7.40109E+03  2.85375E+03  9.65532E+03 -5.59006E+03  7.21944E+03 -9.20745E+03 -1.30760E+03
 -1.90111E+03 -8.40817E+03  5.36002E+03 -8.38038E+03  9.51481E+03 -3.63566E+03  7.33613E+03  1.75078E+03
  5.45030E+03  4.81422E+03  2.28141E+03  2.99802E+03 -1.79823E+03  3.31692E+03  3.03897E+03 -2.26761E+03
  4.26048E+03  6.41171E+02  7.42560E+03  4.01874E+03  6.24544E+03  1.07894E+04 -3.17553E+03  1.31641E+04
 -8.84275E+03  8.69461E+03 -1.40295E+04  3.15821E+02 -1.08141E+04 -3.34690E+03 -5.86821E+03 -7.70600E+03
  4.30845E+02 -9.61219E+03  5.31896E+03 -3.11919E+03  2.69244E+03  2.99295E+03 -2.84208E+03  5.48934E+03
 -7.20747E+03  5.36066E+03 -9.56376E+03 -5.18532E+03 -7.25015E+03 -1.18864E+04  2.83953E+03 -1.21941E+04
  6.64826E+03 -6.51410E+03  7.71006E+03 -1.95108E+03  6.41417E+03  3.12132E+03  2.08163E+03  5.26667E+03
 -3.28320E+03  2.82734E+03 -6.26849E+03 -2.88149E+03  3.27537E+03 -8.38623E+03  1.05937E+04 -7.91537E+03
  1.27482E+04  5.30846E+02  1.06892E+04  9.25338E+03  2.14403E+03  1.41314E+04 -5.54463E+03  1.32213E+04
 -1.11773E+04  6.49953E+03 -1.18605E+04 -1.67752E+03 -7.96804E+03 -1.09550E+04  7.75413E+02 -7.74604E+03
  8.53024E+03 -3.95958E+03  6.34411E+03  3.34595E+03  2.96233E+03  7.43792E+03  1.82870E+03  6.65542E+03
 -3.55627E+03  3.75191E+03 -4.62428E+03  2.76549E+03 -2.08281E+03  1.19975E+03 -2.27549E+03  2.83497E+03
 -4.52205E+03  5.84826E+03 -8.99054E+03  5.10260E+03 -1.33431E+04  4.00447E+02 -1.70544E+04 -9.21607E+03
 -9.09627E+03 -1.92107E+04  6.39900E+03 -2.24792E+04  1.44297E+04 -1.63273E+04  1.99948E+04 -8.04047E+03
  1.90807E+04  4.72662E+03  1.32513E+04  1.32322E+04  2.57242E+03  1.38253E+04 -5.84278E+03  1.09053E+04
 -9.63255E+03  3.20057E+03 -4.81168E+03 -1.44360E+03 -2.61831E+03 -2.19692E+03 -9.60534E+02  2.61523E+02
 -3.33122E+03 -2.30513E+02 -2.07722E+03 -2.01821E+03 -2.62004E+03 -2.89574E+03  1.61068E+03 -5.99679E+03
  7.69988E+03 -4.66492E+03  9.78169E+03 -1.64198E+03  9.51707E+03  8.21409E+03  2.23150E+03  1.42362E+04
 -7.55087E+03  1.42928E+04 -1.61370E+04  9.68641E+03 -1.85970E+04 -8.40831E+02 -1.13430E+04 -1.07852E+04
 -3.06317E+03 -1.55824E+04  2.89989E+03 -1.25855E+04  8.82209E+03 -6.58039E+03  8.94408E+03 -5.73806E+02
  5.03179E+03  7.14539E+03 -1.43742E+02  5.03575E+03 -3.93808E+03 -6.09198E+02 -1.54208E+02 -4.11469E+03
  3.87026E+03 -2.41338E+03  8.07019E+03  1.55687E+03  5.27346E+03  6.04637E+03 -2.66461E+02  8.43832E+03
 -7.27427E+03  8.35925E+03 -9.02977E+03  3.42422E+02 -8.95552E+03 -5.23387E+03 -2.74347E+03 -1.36435E+04
  7.79706E+03 -1.32228E+04  1.20816E+04 -3.74888E+03  1.25992E+04  4.83193E+03  7.87327E+03  9.50065E+03
  1.31646E+03  9.64724E+03 -4.75408E+03  8.62879E+03 -5.69361E+03  3.65686E+03 -4.75367E+03  6.62471E+02
 -3.14529E+03 -7.60150E+02 -4.15828E+03  3.00815E+03 -5.98472E+03  3.37342E+03 -8.49503E+03 -8.16676E+02
 -7.75321E+03 -5.63234E+03 -3.35123E+03 -1.07272E+04  3.99436E+03 -1.23147E+04  8.30921E+03 -4.94728E+03
  1.09286E+04  1.70037E+03  7.77109E+03  7.22223E+03 -1.91194E+03  1.05764E+04 -7.26563E+03  7.63608E+03
