 $NMID ID='MM_0lb_SNR200_10hz_g50_36.RAW', FMTDAT='(8E13.5)'
 TRAMP=1., VOLUME=1. $END
  3.09701E+05 -5.20396E+02  3.36810E+05  2.51227E+05  8.37443E+04  3.37146E+05 -1.33044E+05  2.51877E+05
 -1.89024E+05  8.52611E+04 -1.11876E+05 -3.14091E+04 -3.01472E+02 -5.04094E+04  5.36519E+04 -1.20427E+03
  3.49124E+04  5.27110E+04 -1.69265E+04  7.66973E+04 -6.15013E+04  6.30677E+04 -8.54682E+04  3.18935E+04
 -8.35445E+04 -1.25632E+04 -5.75286E+04 -5.32272E+04 -1.47578E+04 -7.15008E+04  2.85227E+04 -4.71254E+04
  4.24639E+04  1.98510E+03  1.65715E+04  4.93650E+04 -3.45819E+04  4.79147E+04 -6.79520E+04 -6.22358E+02
 -5.49853E+04 -5.57881E+04 -6.68637E+03 -7.87951E+04  3.38630E+04 -5.74115E+04  5.00827E+04 -1.81963E+04
  4.43363E+04  1.01493E+04  3.16421E+04  2.57938E+04  1.70135E+04  2.96867E+04 -5.91223E+03  2.75119E+04
 -2.23369E+04  1.21912E+04 -1.91052E+04 -5.63211E+03  7.43532E+03 -8.08386E+03  2.24465E+04  1.39494E+04
  6.12090E+03  3.68843E+04 -3.35066E+04  3.70912E+04 -6.59847E+04  1.13669E+03 -5.80266E+04 -4.26636E+04
 -1.13217E+04 -6.50725E+04  4.19257E+04 -4.86546E+04  6.09800E+04 -2.55800E+03  3.75687E+04  3.39393E+04
 -5.51291E+03  3.82252E+04 -3.20485E+04  1.79406E+04 -3.26766E+04 -2.78084E+03 -1.92671E+04 -1.14586E+04
 -8.17111E+03 -1.59027E+04  2.17595E+02 -1.98484E+04  9.13684E+03 -2.30866E+04  1.49943E+04 -1.15092E+04
  1.04356E+04  5.15861E+03 -9.17832E+03  1.25585E+04 -2.35462E+04 -4.81928E+03 -8.43159E+03 -3.54060E+04
  2.62427E+04 -4.64569E+04  5.29060E+04 -2.14478E+04  4.93693E+04  1.94662E+04  1.78521E+04  4.74596E+04
 -1.72648E+04  3.64305E+04 -2.71503E+04  2.86204E+03 -1.14750E+04 -2.79986E+04  2.11267E+04 -3.56547E+04
  4.39506E+04 -9.28861E+03  4.09262E+04  2.51630E+04  2.02035E+04  5.00084E+04 -6.95136E+03  5.56500E+04
 -3.55166E+04  3.75276E+04 -4.55523E+04  1.10482E+04 -4.64895E+04 -1.82821E+04 -2.52055E+04 -4.03789E+04
  6.32423E+03 -4.22353E+04  3.24310E+04 -1.60187E+04  3.04006E+04  1.04679E+04  5.11217E+03  1.98298E+04
 -1.23140E+04  9.76243E+03 -1.07050E+04 -6.86277E+03  6.01151E+03 -1.25072E+04  1.79217E+04  5.07335E+03
  1.50100E+04  2.28464E+04 -5.11532E+03  2.54975E+04 -2.53145E+04  1.28603E+04 -3.09954E+04 -3.31714E+03
 -2.46290E+04 -1.91589E+04 -1.14015E+04 -2.46566E+04  3.88589E+03 -2.52752E+04  2.00188E+04 -2.13511E+04
  3.02661E+04 -1.46695E+04  3.62321E+04  3.94503E+03  2.68685E+04  2.40989E+04  6.42433E+03  4.12643E+04
 -1.90725E+04  3.28277E+04 -3.03796E+04  1.25700E+04 -2.17994E+04 -1.00333E+04 -4.57653E+03 -1.29278E+04
  1.19066E+02 -8.74581E+00 -6.10188E+03  9.11424E+03 -1.96332E+04  4.97855E+03 -1.86711E+04 -1.05322E+04
 -1.03308E+04 -2.06188E+04  5.81492E+03 -2.54604E+04  1.84555E+04 -1.97894E+04  2.17424E+04 -1.50321E+02
  1.47543E+04  1.66026E+04 -6.54320E+02  2.26799E+04 -1.60444E+04  1.16760E+04 -2.16520E+04 -6.44918E+03
 -1.67225E+04 -2.10487E+04 -2.13355E+03 -2.72578E+04  1.25600E+04 -2.42151E+04  2.18770E+04 -1.13472E+04
  2.08532E+04 -1.17141E+03  1.42489E+04  4.05907E+03  8.60550E+03  4.57082E+02  1.13137E+04 -8.92328E+02
  1.97229E+04  7.44468E+02  2.37186E+04  1.79076E+04  1.64909E+04  3.66343E+04 -4.78968E+03  4.12488E+04
 -2.40439E+04  3.44838E+04 -3.87130E+04  1.81959E+04 -4.21792E+04 -7.61933E+02 -3.54597E+04 -2.48684E+04
 -1.25655E+04 -3.50670E+04  1.28253E+04 -3.09801E+04  2.69689E+04 -1.54173E+04  2.28478E+04  7.61046E+03
  9.43767E+03  1.90314E+04 -1.10531E+04  1.51440E+04 -1.72814E+04  1.78909E+03 -1.59957E+04 -1.23762E+04
 -1.24135E+03 -1.73928E+04  9.89114E+03 -1.26198E+04  1.30849E+04 -7.52843E+00  3.17112E+03  8.17658E+03
 -8.93210E+03  3.08128E+03 -8.27072E+03 -4.57975E+03 -1.94609E+03 -1.71886E+04  1.25615E+04 -1.74422E+04
  1.98548E+04 -1.21084E+04  2.32560E+04  1.91668E+03  2.22547E+04  1.80893E+04  8.36657E+03  2.67728E+04
 -5.13946E+03  2.96489E+04 -1.96367E+04  1.71074E+04 -2.24176E+04  2.60786E+03 -1.49550E+04 -7.78515E+03
 -7.15168E+03 -7.40247E+03 -3.35007E+02  3.42455E+01 -2.17120E+03  2.71867E+03 -5.55650E+03  5.86753E+03
 -1.25563E+04  5.47212E+02 -1.37949E+04 -1.18932E+04 -3.38799E+03 -1.86378E+04  4.94548E+03 -1.50670E+04
  1.21501E+04 -5.17366E+03  9.14827E+03  3.88023E+03  1.34136E+02  5.89693E+03 -7.01951E+03 -1.02291E+02
 -7.74035E+03 -9.22244E+03 -1.13089E+03 -1.48156E+04  9.13476E+03 -1.35762E+04  1.81315E+04 -7.73731E+03
  2.19075E+04  2.24759E+03  1.43503E+04  1.53849E+04  3.10500E+03  1.81323E+04 -1.00290E+04  1.49775E+04
 -1.20951E+04  5.31909E+03 -5.56203E+03 -2.91162E+03  3.15791E+03 -3.21756E+03  7.16610E+03 -6.17405E+02
  5.90758E+03  6.57229E+03  8.17741E+02  1.05576E+04 -8.26653E+03  9.70536E+03 -1.56720E+04  2.36541E+03
 -9.48080E+03 -7.85988E+03  1.18098E+02 -1.34699E+04  6.74671E+03 -6.24589E+03  9.21319E+03  3.00440E+03
  3.56878E+03  8.19224E+03 -9.08965E+03  1.01944E+04 -1.39015E+04  5.76323E+03 -1.42260E+04 -3.90170E+03
 -8.49613E+03 -1.44310E+04  3.81318E+03 -1.54660E+04  1.42404E+04 -9.88750E+03  1.31131E+04  1.73740E+03
  9.50164E+03  1.26065E+04 -1.28591E+03  1.48185E+04 -9.82650E+03  8.09094E+03 -1.10199E+04 -1.66002E+03
 -1.07055E+04 -1.01975E+04 -1.57625E+03 -1.09717E+04  6.87004E+03 -9.47530E+03  6.87693E+03 -3.01261E+03
  4.73124E+03  2.00687E+03 -3.77088E+02  2.02623E+03 -6.43820E+02 -3.49681E+03  1.09265E+03 -9.10961E+03
  1.02476E+04 -5.76492E+03  1.57960E+04  3.48523E+03  1.48155E+04  9.54691E+03  9.57408E+03  1.84734E+04
 -4.86143E+03  2.21493E+04 -1.69187E+04  1.65914E+04 -2.34815E+04  1.68413E+03 -1.93766E+04 -7.06761E+03
 -7.71988E+03 -1.55277E+04  8.20903E+02 -1.29465E+04  5.56455E+03 -7.58250E+03  4.89788E+03 -4.02527E+03
  4.54773E+03 -2.61794E+03  3.26981E+03 -3.38428E+03  5.48912E+03 -2.40460E+03  6.43249E+03 -1.45126E+03
  9.67089E+03  2.06806E+03  6.02246E+03  8.47205E+03 -4.14092E+03  9.98237E+03 -1.08752E+04  7.70621E+03
 -1.36631E+04 -1.05367E+03 -8.43754E+03 -8.78766E+03 -6.57005E+02 -1.66407E+04  7.48344E+03 -1.60437E+04
  1.39248E+04 -7.49779E+03  1.61184E+04  3.63669E+03  1.15646E+04  1.39536E+04  1.93438E+03  1.54102E+04
 -5.85220E+03  1.16629E+04 -9.36025E+03  4.33678E+03 -6.17003E+03 -2.03017E+03 -2.85551E+03 -2.01275E+03
 -6.47899E+02 -4.15780E+02 -1.01817E+03  3.52750E+03 -6.61989E+03  2.73661E+03 -8.17526E+03 -2.02877E+03
 -6.79017E+03 -9.39452E+03  1.23657E+02 -1.41495E+04  8.63049E+03 -1.30800E+04  1.36004E+04 -3.22784E+03
  1.20272E+04  4.25543E+03  5.94931E+03  1.22992E+04 -2.16941E+03  1.50012E+04 -9.76135E+03  8.78838E+03
 -1.29773E+04  8.12650E+02 -9.39893E+03 -5.91143E+03 -2.47705E+03 -1.15454E+04  5.57398E+03 -7.69585E+03
  7.67949E+03 -3.38532E+03  5.68621E+03  2.14990E+03  1.84548E+03  2.67521E+03  8.73650E+02  1.42551E+03
  3.95372E+03  1.27638E+03  5.76910E+03  1.01626E+03  4.30589E+03  4.24150E+03  3.96128E+03  5.58382E+03
 -2.89913E+03  9.15267E+03 -1.04077E+04  1.13830E+04 -1.34071E+04  2.52533E+03 -1.37496E+04 -5.43784E+03
 -6.87735E+03 -1.45902E+04  2.55401E+02 -1.52776E+04  7.79515E+03 -1.03122E+04  1.03490E+04 -2.87093E+03
  8.99360E+03  5.48748E+03  1.80491E+03  7.46825E+03 -3.65279E+03  5.46962E+03 -4.19994E+03 -1.43421E+03
 -2.34093E+03 -5.69052E+03  3.88606E+03 -5.34704E+03  6.92184E+03 -2.13005E+03  5.73342E+03  1.03583E+03
  3.41212E+03  3.18617E+03  1.21991E+03  3.54625E+03 -1.15816E+03  3.92631E+03  2.00162E+03 -9.00609E+02
  1.67844E+03 -1.29213E+03  6.48477E+03  2.37161E+03  3.29686E+03  6.33716E+03  2.47285E+02  9.82313E+03
 -5.91018E+03  5.42338E+03 -1.04003E+04  9.20466E+02 -7.31256E+03 -3.37742E+03 -4.07942E+03 -6.18480E+03
  1.16242E+03 -5.98621E+03  3.01343E+03 -5.99959E+02  4.10184E+03  1.70841E+03 -1.67577E+03  5.51820E+03
 -5.75434E+03  1.71281E+03 -7.85158E+03 -4.17444E+03 -4.30513E+03 -6.72099E+03 -1.84087E+02 -7.97021E+03
  4.11695E+03 -2.54454E+03  5.57361E+03 -8.04985E+02  4.04009E+03  3.10924E+03  8.34940E+02  3.99168E+03
 -2.02245E+03  2.01851E+03 -4.83851E+03 -2.60749E+03  2.78008E+03 -5.08426E+03  6.66529E+03 -3.98951E+03
  8.73959E+03  1.92619E+03  7.95803E+03  6.83251E+03  1.69751E+03  7.55094E+03 -2.41393E+03  7.81071E+03
 -7.47146E+03  4.07142E+03 -5.74702E+03 -2.89591E+03 -2.45768E+03 -4.98667E+03  8.26440E+02 -5.72033E+03
  5.66371E+03 -1.24671E+03  5.33997E+03  2.43193E+03  2.37769E+03  3.04279E+03 -1.71845E+03  3.89772E+03
 -3.28169E+03  3.78877E+03 -1.99120E+03  6.51995E+02 -1.31700E+03  2.12588E+03 -8.40142E+02  2.02698E+03
 -3.97984E+03  3.41689E+03 -5.15011E+03  3.66955E+03 -8.76380E+03  3.94857E+02 -1.06465E+04 -6.26483E+03
 -4.88340E+03 -1.17670E+04  2.71484E+03 -1.24831E+04  7.44168E+03 -1.10624E+04  1.17376E+04 -4.38264E+03
  1.17820E+04  3.82096E+03  7.69826E+03  8.54655E+03  1.39277E+03  8.14749E+03 -3.67468E+03  6.48403E+03
 -4.93190E+03  2.01173E+03 -3.25369E+03 -1.86784E+03 -9.93406E+02  1.40613E+03 -1.00786E+02  1.81949E+02
 -6.09268E+02 -3.88657E+02 -2.36741E+02  5.71452E+02 -7.93964E+01 -2.29856E+03  9.76124E+02 -3.37553E+03
  3.26417E+03 -2.80183E+03  5.20685E+03  1.41070E+02  8.18539E+03  4.05135E+03  2.30471E+03  8.33633E+03
 -4.33790E+03  1.02541E+04 -9.26530E+03  5.08306E+03 -1.07514E+04 -8.21007E+02 -8.43802E+03 -6.22580E+03
 -1.17355E+03 -7.84745E+03  1.44536E+03 -6.29635E+03  4.81549E+03 -4.97936E+03  4.91044E+03  3.82399E+02
  2.89699E+03  3.37657E+03 -4.53651E+02  1.72511E+03 -1.09772E+03  7.47983E+01 -7.65708E+02 -2.23574E+03
  2.30031E+03  7.30558E+02  3.10257E+03  1.96043E+03  1.70322E+03  4.04033E+03  1.24725E+03  4.10478E+03
 -3.24198E+03  4.11168E+03 -5.40265E+03  4.17603E+02 -3.73435E+03 -3.36492E+03 -1.92945E+03 -7.13054E+03
  5.06161E+03 -5.95986E+03  7.38318E+03 -2.39995E+03  7.89071E+03  2.97084E+03  4.90651E+03  4.56526E+03
  1.07619E+03  6.90727E+03 -2.16871E+03  4.91844E+03 -2.93566E+03  1.42333E+03 -1.88278E+03  8.82839E+01
 -9.17802E+02 -1.18437E+03 -2.54802E+03  1.07908E+03 -3.80855E+03  2.36237E+02 -4.23447E+03 -1.06334E+02
 -4.48597E+03 -1.27833E+03 -1.76286E+03 -4.86386E+03  2.24918E+03 -6.70424E+03  4.48940E+03 -3.75342E+03
  6.29319E+03  1.17430E+03  2.62508E+03  4.07209E+03 -1.35798E+02  4.56497E+03 -3.21105E+03  5.22642E+03
