 $NMID ID='MM_0lb_SNR200_14hz_g45_96.RAW', FMTDAT='(8E13.5)'
 TRAMP=1., VOLUME=1. $END
  3.10216E+05  1.26516E+03  3.37270E+05  2.49669E+05  8.47527E+04  3.38049E+05 -1.32702E+05  2.50495E+05
 -1.90373E+05  8.39622E+04 -1.11535E+05 -3.23024E+04  9.38966E+02 -5.10432E+04  5.36427E+04  1.47339E+03
  3.50231E+04  5.32176E+04 -1.70937E+04  7.50223E+04 -5.95090E+04  6.21859E+04 -8.40082E+04  3.26913E+04
 -8.09224E+04 -1.17018E+04 -5.59623E+04 -5.06665E+04 -1.45857E+04 -6.85778E+04  2.78496E+04 -4.52390E+04
  3.99033E+04  3.81533E+03  1.67999E+04  4.84032E+04 -3.40947E+04  4.69116E+04 -6.65553E+04 -1.16692E+03
 -5.37612E+04 -5.71407E+04 -4.95173E+03 -7.65946E+04  3.32066E+04 -5.45587E+04  4.69518E+04 -1.83185E+04
  4.28517E+04  1.09901E+04  3.23752E+04  2.52805E+04  1.55245E+04  3.06240E+04 -5.33620E+03  2.75179E+04
 -2.17434E+04  1.19880E+04 -1.76775E+04 -5.27068E+03  4.11467E+03 -7.92693E+03  2.28996E+04  1.20277E+04
  7.28460E+03  3.59863E+04 -3.15574E+04  3.47468E+04 -6.19130E+04  1.66909E+03 -5.72064E+04 -4.16847E+04
 -1.16924E+04 -6.27702E+04  3.97815E+04 -4.58439E+04  5.71883E+04 -2.25580E+03  3.34645E+04  3.26871E+04
 -6.64921E+03  3.60626E+04 -3.02800E+04  1.51680E+04 -2.80549E+04 -2.49594E+03 -1.55044E+04 -1.05508E+04
 -8.12019E+03 -1.36972E+04 -5.89432E+02 -1.74113E+04  7.52287E+03 -2.35575E+04  1.54945E+04 -1.42186E+04
  1.20326E+04  5.06122E+03 -8.87984E+03  1.27738E+04 -2.01593E+04 -4.06937E+03 -8.71678E+03 -3.43929E+04
  2.30154E+04 -4.31240E+04  4.81062E+04 -1.91927E+04  4.49289E+04  1.99078E+04  1.56273E+04  4.32401E+04
 -1.63792E+04  3.30351E+04 -2.52846E+04  7.59131E+02 -9.90543E+03 -2.67602E+04  2.04879E+04 -3.33172E+04
  4.13238E+04 -1.03040E+04  3.45272E+04  2.50124E+04  1.75056E+04  4.59355E+04 -8.76681E+03  4.92511E+04
 -3.16377E+04  3.38783E+04 -4.12941E+04  9.97519E+03 -4.32862E+04 -1.60496E+04 -2.47142E+04 -3.89547E+04
  6.84177E+03 -3.72172E+04  3.12543E+04 -1.40602E+04  2.89332E+04  1.12630E+04  3.08151E+03  1.98840E+04
 -1.33430E+04  7.53153E+03 -9.17839E+03 -7.69799E+03  4.11068E+03 -1.03763E+04  1.70682E+04  5.84798E+03
  1.31164E+04  2.22251E+04 -5.72068E+03  2.63579E+04 -2.19458E+04  1.25781E+04 -2.80075E+04 -4.73156E+03
 -2.03905E+04 -1.76870E+04 -8.30122E+03 -2.02558E+04  3.65301E+03 -1.91401E+04  1.61797E+04 -1.76237E+04
  2.54206E+04 -1.24081E+04  3.25277E+04  3.19227E+03  2.27077E+04  2.00385E+04  4.62603E+03  3.59364E+04
 -1.83007E+04  3.00646E+04 -2.71145E+04  1.04064E+04 -2.11855E+04 -1.08549E+04 -4.62510E+03 -1.32846E+04
  2.21203E+03 -1.98775E+03 -4.11428E+03  6.76379E+03 -1.52757E+04  4.38312E+03 -1.50397E+04 -7.07003E+03
 -8.58507E+03 -1.89105E+04  4.33608E+03 -2.22724E+04  1.53315E+04 -1.65739E+04  1.74566E+04 -1.66305E+03
  1.05555E+04  1.33431E+04  3.06995E+02  1.99236E+04 -1.39307E+04  1.09407E+04 -2.00855E+04 -4.86861E+03
 -1.46745E+04 -1.60477E+04 -1.27305E+03 -2.32295E+04  1.08781E+04 -1.93083E+04  1.80841E+04 -9.59932E+03
  1.78596E+04  1.02421E+03  1.26698E+04  4.09270E+03  6.51363E+03  1.80186E+02  9.87786E+03 -7.63142E+02
  1.78355E+04  2.79121E+03  1.95223E+04  1.43723E+04  1.20717E+04  2.80270E+04 -1.99011E+03  3.35241E+04
 -1.95316E+04  2.69660E+04 -3.22422E+04  1.27303E+04 -3.40800E+04 -2.10950E+03 -2.79800E+04 -1.91351E+04
 -1.19843E+04 -2.65395E+04  9.84481E+03 -2.39221E+04  2.05046E+04 -1.21512E+04  1.94226E+04  5.03809E+03
  6.19289E+03  1.41488E+04 -9.60529E+03  1.19445E+04 -1.60179E+04  2.43135E+03 -1.18311E+04 -1.01759E+04
 -1.53828E+03 -1.48382E+04  8.35961E+03 -1.14063E+04  9.77314E+03 -2.46143E+03  2.20703E+03  6.04967E+03
 -7.44720E+03  3.23994E+03 -6.73805E+03 -5.74426E+03 -1.49467E+03 -1.27463E+04  8.53261E+03 -1.36330E+04
  1.62329E+04 -6.30787E+03  1.68414E+04  3.22897E+03  1.52544E+04  1.16774E+04  7.03889E+03  1.98835E+04
 -3.44682E+03  2.20805E+04 -1.31998E+04  1.25421E+04 -1.54940E+04  3.24211E+03 -1.00393E+04 -5.24179E+03
 -3.52909E+03 -3.90106E+03 -6.48418E+02  1.54602E+01 -2.63297E+03  1.81914E+03 -5.68165E+03  4.24366E+03
 -1.03689E+04  1.52827E+02 -1.06436E+04 -1.04396E+04 -3.47215E+03 -1.50574E+04  4.93537E+03 -1.15897E+04
  8.91989E+03 -4.21037E+03  6.62664E+03  2.78071E+03 -4.49628E+02  3.98431E+03 -5.90418E+03 -2.61518E+02
 -4.44015E+03 -6.48385E+03 -1.96450E+03 -1.04436E+04  5.57956E+03 -1.12550E+04  1.36720E+04 -5.51025E+03
  1.65899E+04  1.56501E+03  1.26279E+04  8.81053E+03  2.52881E+03  1.23114E+04 -7.59436E+03  1.24209E+04
 -8.88270E+03  2.97791E+03 -3.82575E+03 -1.60724E+03  1.77500E+03 -2.41920E+03  4.98156E+03 -9.44712E+02
  5.41608E+03  4.69269E+03  8.56437E+02  8.17897E+03 -5.97538E+03  7.75410E+03 -1.09743E+04  2.59027E+03
 -6.62576E+03 -6.41380E+03  1.05997E+03 -8.36726E+03  5.16930E+03 -4.77016E+03  5.21501E+03  1.64769E+03
  5.58312E+02  5.16364E+03 -5.32896E+03  6.13417E+03 -7.39281E+03  3.51728E+03 -7.62199E+03 -2.08457E+03
 -4.52149E+03 -1.07608E+04  1.18090E+03 -9.69307E+03  9.65476E+03 -6.32812E+03  1.05480E+04  1.60615E+03
  6.64490E+03  8.18387E+03 -6.37254E+02  1.08291E+04 -7.29900E+03  4.26101E+03 -7.36465E+03 -7.31590E+02
 -7.79959E+03 -7.07757E+03 -3.16318E+03 -7.86813E+03  4.51557E+03 -5.96849E+03  4.08783E+03 -4.23431E+03
  3.45072E+03  2.14345E+03  3.82539E+02  1.08629E+03  3.68075E+02 -1.98172E+03 -1.05355E+02 -3.50638E+03
  7.07641E+03 -6.52396E+02  9.51632E+03  1.78862E+03  8.72206E+03  6.66743E+03  7.97504E+03  1.19862E+04
 -2.35689E+03  1.38963E+04 -1.24611E+04  9.20584E+03 -1.50326E+04  2.87324E+03 -1.37881E+04 -3.68855E+03
 -5.22198E+03 -1.09138E+04 -1.30079E+03 -8.30518E+03  3.29314E+03 -3.33301E+03  2.42561E+03 -3.30107E+03
  2.05635E+03 -2.66319E+03  2.88086E+03 -3.02339E+03  3.65347E+03 -1.27320E+03  5.37480E+03  4.21454E+02
  7.36636E+03  2.15484E+03  2.46163E+03  5.48757E+03 -2.84043E+03  5.05947E+03 -5.97652E+03  4.44307E+03
 -7.84295E+03 -1.11162E+03 -3.20504E+03 -5.52920E+03 -1.02325E+02 -8.56965E+03  4.59952E+03 -8.76688E+03
  9.86110E+03 -3.75370E+03  1.07019E+04  9.81626E+02  6.60429E+03  7.47949E+03  2.92765E+03  9.80409E+03
 -2.76372E+03  7.84866E+03 -4.98961E+03  3.52292E+03 -3.21573E+03 -1.29937E+03 -1.16839E+03 -1.18490E+03
 -4.64539E+02  3.55103E+02 -1.32269E+03  2.12330E+03 -4.78046E+03  1.80572E+03 -5.48916E+03 -5.99566E+02
 -4.92330E+03 -5.47359E+03  7.26202E+01 -8.03488E+03  5.51143E+03 -8.02327E+03  7.75772E+03 -2.11146E+03
  7.70384E+03  4.77607E+03  3.15334E+03  6.84515E+03 -1.84240E+03  9.29120E+03 -5.21748E+03  4.79811E+03
 -6.48908E+03  4.52297E+02 -7.07645E+03 -3.91053E+03 -5.97236E+02 -6.65736E+03  2.24003E+03 -4.09398E+03
  4.51715E+03 -1.97590E+03  3.03930E+03  1.46914E+03  1.56656E+03  3.20356E+03  7.59262E+02  5.87240E+02
  1.72333E+03  1.30172E+03  2.79637E+03  1.50408E+03  2.61226E+03  2.15543E+03  3.16597E+03  4.27278E+03
 -2.16673E+03  6.34912E+03 -4.51573E+03  7.31049E+03 -6.91267E+03  1.32942E+03 -8.33207E+03 -2.71326E+03
 -3.07411E+03 -6.98377E+03  1.08599E+03 -8.28899E+03  5.70043E+03 -5.19036E+03  5.63337E+03 -2.00397E+03
  4.56984E+03  2.77220E+03  1.39465E+03  4.58477E+03 -3.37468E+03  2.54162E+03 -1.68282E+03 -4.92844E+02
 -1.46594E+03 -3.56821E+03  1.04560E+03 -3.42182E+03  2.48227E+03 -1.60950E+03  1.29189E+03  1.69083E+03
  2.28616E+03  2.52134E+03  1.02165E+03  6.31124E+02 -1.06425E+03  3.19590E+02  1.77303E+03 -2.38977E+02
  1.55471E+03 -6.39787E+02  2.62352E+03  1.74888E+03  1.56450E+03  3.96959E+03 -7.48779E+02  4.71628E+03
 -3.94127E+03  2.62931E+03 -5.05540E+03  1.16343E+03 -4.23691E+03 -1.89167E+03 -1.79884E+03 -2.40147E+03
  1.17126E+01 -2.41638E+03  2.22296E+03 -2.31845E+03  1.18943E+03  1.77189E+03 -1.57618E+03  1.76741E+03
 -2.77226E+03  4.55493E+02 -3.95181E+03 -1.83307E+03 -2.39929E+03 -3.30614E+03  1.59909E+03 -2.82147E+03
  2.31480E+03 -2.68727E+03  2.46532E+03 -7.64889E+02  1.66376E+03  1.77792E+03  4.00586E+02  1.95736E+03
  6.18028E+01  4.94973E+02 -1.94566E+03  3.33587E+02  1.78996E+03 -1.75397E+03  3.86173E+03 -2.87279E+03
  4.19579E+03  4.52897E+02  5.65660E+03  2.64743E+03  2.71438E+03  4.28383E+03 -9.78403E+02  3.86495E+03
 -3.07470E+03  1.79271E+03 -3.99368E+03 -1.55365E+03 -2.55338E+03 -2.58883E+03 -1.71325E+02 -2.45358E+03
  2.91155E+03 -1.85905E+03  1.27348E+03  3.93978E+02  2.93532E+02  3.46391E+03  7.47832E+02  9.81029E+02
 -1.36202E+03  2.11317E+03 -9.09027E+02  4.20975E+02  1.10177E+03  6.31390E+02 -1.91376E+03  1.29094E+03
 -5.82145E+02  2.24922E+03 -3.39749E+03  9.48188E+02 -3.57195E+03  5.77957E+02 -5.55480E+03 -3.03406E+03
 -2.35973E+03 -4.32091E+03  1.29966E+03 -6.45576E+03  3.58022E+03 -4.78228E+03  6.63824E+03 -2.81210E+03
  4.92730E+03  1.23845E+03  2.44007E+03  3.76419E+03 -1.42620E+03  3.57637E+03 -2.42052E+03  4.04056E+03
 -9.03004E+01  1.35983E+03 -2.22845E+03 -1.12875E+03 -5.90890E+02  1.96997E+01 -2.19517E+02  4.47538E+02
 -1.28139E+03  4.02948E+02 -9.27340E+02  1.14618E+03 -4.44462E+02 -2.28886E+03  8.09492E+01 -1.90267E+03
  2.17466E+03 -2.06221E+03  2.53932E+03  2.60447E+02  2.35988E+03  2.79183E+03 -1.02745E+03  3.66774E+03
 -1.40376E+03  5.08797E+03 -5.44177E+03  2.68106E+03 -4.64699E+03 -1.69366E+03 -2.62094E+03 -2.41133E+03
 -2.22376E+03 -3.39185E+03  7.22332E+02 -3.40956E+03  1.16156E+03 -9.97759E+02  2.26579E+03  2.70092E+02
  1.75534E+02  1.16121E+03 -5.71572E+02  2.31795E+03 -2.57937E+02  4.26997E+02  5.60577E+02 -8.46062E+01
  1.64269E+03 -8.27202E+01  2.39413E+03  1.00276E+03  9.35176E+02  1.42449E+03 -1.08954E+03  1.49697E+03
 -2.05954E+03  2.85103E+03 -1.96942E+03 -8.71846E+02 -2.46309E+03 -4.45620E+02  5.78432E+02 -2.81673E+03
  1.79900E+03 -1.06641E+03  1.14641E+03 -8.05873E+02  2.04809E+03 -1.34314E+03  1.36698E+03  2.37578E+03
  4.97998E+02  1.36667E+03 -2.71276E+01  2.09626E+03 -6.47280E+02  1.48704E+03 -2.80718E+03 -3.17990E+02
  6.72747E+02 -3.40129E+02 -1.43464E+03 -1.20210E+02 -8.19517E+02  1.27128E+03 -1.81735E+03 -1.46501E+02
 -2.83503E+03 -1.11858E+03  2.06058E+02 -3.30270E+03  1.32459E+03 -3.22012E+03  2.33601E+03 -1.31949E+03
  3.80261E+03  9.40740E+02  1.05433E+03  8.91076E+02 -5.47856E+02  1.82284E+03 -3.28045E+03  1.55680E+03
