 $NMID ID='MM_0lb_SNR200_8hz_g60_44.RAW', FMTDAT='(8E13.5)'
 TRAMP=1., VOLUME=1. $END
  3.10310E+05  1.01945E+03  3.37661E+05  2.50065E+05  8.61486E+04  3.38644E+05 -1.34091E+05  2.51917E+05
 -1.90143E+05  8.46606E+04 -1.12580E+05 -3.34602E+04  9.64615E+02 -5.03591E+04  5.34072E+04 -8.59604E+02
  3.49149E+04  5.12811E+04 -1.62856E+04  7.48935E+04 -6.08870E+04  6.52715E+04 -8.56621E+04  3.27651E+04
 -8.30477E+04 -1.17880E+04 -5.82078E+04 -5.26596E+04 -1.57027E+04 -7.18960E+04  2.83171E+04 -4.70176E+04
  4.21210E+04  3.73524E+03  1.85812E+04  4.90051E+04 -3.40119E+04  4.81833E+04 -6.81883E+04  1.60863E+03
 -5.55284E+04 -5.84207E+04 -8.43071E+03 -7.90976E+04  3.42244E+04 -5.72736E+04  4.97930E+04 -1.74613E+04
  4.79475E+04  1.22950E+04  3.39113E+04  2.61919E+04  1.61979E+04  2.92263E+04 -6.68952E+03  2.67408E+04
 -2.31607E+04  1.23681E+04 -1.79439E+04 -5.69120E+03  6.96824E+03 -7.24937E+03  2.46331E+04  1.23359E+04
  6.69930E+03  3.80595E+04 -3.46796E+04  3.81369E+04 -6.76866E+04  1.65325E+03 -5.87073E+04 -4.58229E+04
 -1.14575E+04 -6.53686E+04  4.41001E+04 -4.87134E+04  6.13780E+04 -2.35004E+03  3.94475E+04  3.40674E+04
 -4.28244E+03  4.05055E+04 -3.32358E+04  1.72746E+04 -3.48427E+04 -4.96334E+03 -2.13684E+04 -1.27458E+04
 -9.02749E+03 -1.76483E+04  4.04339E+02 -2.03449E+04  9.30050E+03 -2.45162E+04  1.64445E+04 -1.22076E+04
  8.96402E+03  5.97530E+03 -1.04723E+04  1.41807E+04 -2.41107E+04 -6.42727E+03 -9.45785E+03 -4.11852E+04
  2.62116E+04 -4.78151E+04  5.48092E+04 -2.15773E+04  4.87298E+04  2.20563E+04  1.88213E+04  4.99447E+04
 -1.66836E+04  3.63723E+04 -2.93484E+04  4.40058E+03 -1.13403E+04 -3.18741E+04  2.08401E+04 -3.64889E+04
  4.70632E+04 -1.31851E+04  4.29377E+04  2.53564E+04  2.16375E+04  5.35767E+04 -7.39140E+03  5.96516E+04
 -3.59063E+04  3.93474E+04 -5.04173E+04  1.07592E+04 -5.13878E+04 -1.91107E+04 -2.68895E+04 -4.51845E+04
  9.72624E+03 -4.33048E+04  3.56966E+04 -1.82395E+04  3.24427E+04  1.12963E+04  5.08303E+03  2.04339E+04
 -1.29390E+04  1.16759E+04 -1.15645E+04 -8.29925E+03  6.99734E+03 -1.04657E+04  2.00747E+04  6.05587E+03
  1.59672E+04  2.42770E+04 -5.11063E+03  2.80449E+04 -2.46793E+04  1.55691E+04 -3.23495E+04 -2.38282E+03
 -2.64748E+04 -1.85352E+04 -1.28770E+04 -2.73222E+04  4.14062E+03 -2.79355E+04  2.23544E+04 -2.64381E+04
  3.56911E+04 -1.43077E+04  3.95417E+04  6.70818E+03  2.88546E+04  2.63736E+04  2.35684E+03  4.24817E+04
 -2.05735E+04  3.48678E+04 -3.03977E+04  1.17173E+04 -2.37624E+04 -9.53913E+03 -4.11610E+03 -1.10884E+04
  7.86355E+02 -1.10742E+03 -8.18708E+03  1.01004E+04 -2.35713E+04  4.85087E+03 -1.98332E+04 -1.13178E+04
 -1.29214E+04 -2.59938E+04  6.10993E+03 -3.02465E+04  2.25853E+04 -2.16954E+04  2.46059E+04 -3.08997E+03
  1.61292E+04  1.56273E+04 -8.43006E+02  2.52958E+04 -1.64486E+04  1.48698E+04 -2.75964E+04 -3.81354E+03
 -1.78510E+04 -2.25414E+04 -1.80345E+03 -3.15398E+04  1.41240E+04 -2.51995E+04  2.50933E+04 -1.27841E+04
  2.41576E+04 -1.09899E+03  1.88526E+04  4.93521E+03  1.06660E+04  1.75031E+03  1.34734E+04 -3.58649E+03
  2.35376E+04  3.90302E+03  2.73979E+04  1.86348E+04  1.94157E+04  3.88593E+04 -3.40509E+03  4.96786E+04
 -2.74516E+04  4.11870E+04 -4.58718E+04  2.10734E+04 -4.99140E+04 -4.11130E+03 -3.95115E+04 -2.98736E+04
 -1.51433E+04 -4.16138E+04  1.50204E+04 -3.47512E+04  3.03495E+04 -1.76103E+04  2.62696E+04  7.58866E+03
  7.95309E+03  2.17917E+04 -1.19620E+04  1.65123E+04 -2.07666E+04  2.16878E+03 -1.64837E+04 -1.44471E+04
  1.20051E+02 -2.13041E+04  1.07136E+04 -1.64668E+04  1.54807E+04 -1.56217E+03  3.61457E+03  1.02084E+04
 -7.15902E+03  4.67128E+03 -1.11834E+04 -7.24060E+03 -3.57054E+03 -2.10155E+04  1.33009E+04 -2.20519E+04
  2.62556E+04 -1.22239E+04  2.93763E+04  5.86120E+03  2.61832E+04  2.21422E+04  9.87935E+03  3.28951E+04
 -4.85503E+03  3.40619E+04 -2.56036E+04  1.99285E+04 -2.67116E+04  3.46607E+03 -1.84401E+04 -7.86452E+03
 -7.12750E+03 -8.91258E+03 -8.00981E+02  1.38991E+02 -3.77418E+03  3.53798E+03 -9.76600E+03  6.70050E+03
 -1.49190E+04 -7.73520E+02 -1.69774E+04 -1.32213E+04 -5.21088E+03 -2.11091E+04  7.79668E+03 -1.81074E+04
  1.38397E+04 -9.96058E+03  1.04631E+04  5.02316E+03 -1.99614E+03  7.70917E+03 -9.32487E+03 -1.08696E+03
 -8.83374E+03 -1.12847E+04 -3.38758E+03 -1.88761E+04  1.20091E+04 -1.88710E+04  2.51726E+04 -9.73871E+03
  2.68693E+04  3.79738E+03  1.93858E+04  1.58414E+04  3.28357E+03  2.23921E+04 -1.12129E+04  1.75354E+04
 -1.42590E+04  5.74710E+03 -7.27896E+03 -3.31939E+03  6.11210E+02 -3.90279E+03  8.37870E+03  9.55710E+02
  9.06144E+03  8.37951E+03  1.31247E+03  1.48303E+04 -9.52970E+03  1.43309E+04 -1.76427E+04  2.09893E+03
 -1.36498E+04 -9.14630E+03 -9.22832E+02 -1.47805E+04  1.11633E+04 -7.11412E+03  1.07447E+04  2.99640E+03
  1.96011E+03  1.30177E+04 -8.21576E+03  1.11092E+04 -1.54023E+04  6.33170E+03 -1.60364E+04 -7.01216E+03
 -1.05774E+04 -1.73338E+04  2.69127E+03 -2.12984E+04  1.80402E+04 -1.11509E+04  1.90248E+04  3.86643E+03
  1.23627E+04  1.59808E+04 -2.44302E+03  1.76765E+04 -1.37456E+04  9.70898E+03 -1.41251E+04  9.30782E+00
 -1.12888E+04 -1.31864E+04 -1.85171E+03 -1.35217E+04  6.68819E+03 -1.11873E+04  1.02157E+04 -5.09648E+03
  3.24199E+03  1.26491E+03 -1.99114E+03  2.46546E+03 -1.14665E+03 -7.53817E+03  3.55373E+03 -8.68916E+03
  1.39448E+04 -4.98153E+03  2.01599E+04  2.54219E+03  1.81820E+04  1.38623E+04  1.18887E+04  2.55919E+04
 -6.28358E+03  2.84435E+04 -2.26143E+04  1.95948E+04 -3.14717E+04  4.52884E+03 -2.46255E+04 -1.08281E+04
 -1.12533E+04 -2.01374E+04 -6.24598E+02 -1.56448E+04  5.29267E+03 -8.87120E+03  5.26289E+03 -6.08696E+03
  4.33824E+03 -2.77071E+03  2.61313E+03 -2.60788E+03  5.59502E+03 -4.47392E+03  8.74017E+03 -2.39820E+03
  1.26920E+04  2.82013E+03  7.00711E+03  9.84219E+03 -5.43158E+03  1.36316E+04 -1.60420E+04  1.03294E+04
 -1.84198E+04 -1.26305E+03 -1.17493E+04 -1.13515E+04 -2.60631E+03 -1.83340E+04  1.03438E+04 -1.78087E+04
  2.04431E+04 -1.02402E+04  2.32963E+04  5.50201E+03  1.43223E+04  1.61376E+04  1.20961E+03  1.97319E+04
 -9.00947E+03  1.65554E+04 -1.22747E+04  5.80823E+03 -8.18884E+03 -2.32032E+03 -4.67256E+03 -2.40635E+03
 -1.89139E+03 -1.14662E+03 -2.58631E+03  4.86412E+03 -7.22541E+03  4.37840E+03 -1.13893E+04 -1.44236E+03
 -8.26885E+03 -1.19825E+04  5.62558E+02 -1.77312E+04  1.03672E+04 -1.63600E+04  1.70681E+04 -4.51534E+03
  1.67443E+04  7.89689E+03  8.35491E+03  1.61074E+04 -4.02447E+03  1.84004E+04 -1.40977E+04  8.81914E+03
 -1.71977E+04  6.77428E+02 -1.25755E+04 -9.14084E+03 -1.78193E+03 -1.49360E+04  6.48722E+03 -1.25527E+04
  1.15932E+04 -3.85132E+03  6.65592E+03  3.05457E+03  4.73049E+03  3.27764E+03  2.17127E+03  3.05720E+03
  2.84779E+03  2.27010E+03  4.83219E+03  1.74845E+03  3.35554E+03  5.71142E+03  4.59645E+03  9.05365E+03
 -3.39625E+03  1.40165E+04 -1.09431E+04  1.39956E+04 -1.88984E+04  4.92417E+03 -1.96011E+04 -7.43539E+03
 -9.41792E+03 -1.85185E+04  6.95323E+02 -2.07723E+04  9.70822E+03 -1.15480E+04  1.50877E+04 -4.44791E+03
  1.10788E+04  8.33826E+03  1.72780E+03  1.21673E+04 -5.95724E+03  6.91613E+03 -6.68212E+03 -3.51215E+03
 -4.28997E+03 -6.68331E+03  4.89054E+03 -8.38475E+03  7.92117E+03 -4.19067E+03  8.63353E+03  1.69336E+03
  3.36232E+03  3.81714E+03  2.78596E+03  3.49181E+03  3.12991E+02  1.84048E+03  1.10102E+03  9.71924E+02
  2.85950E+03 -9.78208E+02  7.48698E+03  3.11912E+03  3.59265E+03  1.07662E+04 -3.09813E+03  1.24717E+04
 -9.29799E+03  8.84893E+03 -1.35611E+04  2.64281E+03 -1.06299E+04 -4.58899E+03 -3.88057E+03 -8.00512E+03
  1.40933E+03 -8.61707E+03  4.93794E+03 -2.54968E+03  2.27492E+03  2.77197E+03 -2.41751E+03  4.77038E+03
 -1.02301E+04  3.00088E+03 -8.80876E+03 -2.83604E+03 -3.58845E+03 -1.08185E+04  8.94393E+01 -1.03656E+04
  6.49754E+03 -5.73943E+03  8.53759E+03 -1.53653E+03  5.60815E+03  3.63743E+03  2.13130E+03  6.37590E+03
 -2.92395E+03  2.33676E+03 -6.15672E+03 -2.80338E+03  9.94245E+02 -7.74993E+03  1.02261E+04 -6.54826E+03
  1.28194E+04  5.08317E+02  1.18777E+04  8.10948E+03  4.69243E+03  1.30647E+04 -5.12455E+03  1.20524E+04
 -1.19253E+04  6.32599E+03 -1.23614E+04 -3.18572E+03 -8.51075E+03 -9.62013E+03  1.84414E+03 -7.10696E+03
  8.29829E+03 -4.30583E+03  6.85787E+03  4.70367E+03  3.67499E+03  7.26961E+03 -3.36954E+03  4.66478E+03
 -3.35589E+03  3.60243E+03 -5.42495E+03  1.41496E+03 -2.80964E+03 -1.96766E+02 -1.89665E+03  3.74557E+03
 -3.62798E+03  3.08258E+03 -8.60236E+03  3.73111E+03 -1.27319E+04 -7.07830E+02 -1.51894E+04 -9.42514E+03
 -6.11384E+03 -1.54950E+04  2.03317E+03 -1.99062E+04  1.22124E+04 -1.51389E+04  1.93808E+04 -5.83590E+03
  1.66950E+04  4.35161E+03  9.95634E+03  1.05184E+04  1.61609E+03  1.30080E+04 -6.46445E+03  8.41419E+03
 -7.15459E+03  4.31049E+03 -5.64898E+03 -1.61620E+03 -1.83426E+03 -2.76485E+03 -2.29671E+03 -1.12734E+03
 -1.57881E+03  3.88731E+02 -1.47367E+03 -9.15452E+02 -2.44610E+03 -3.38580E+03  1.65729E+03 -6.00913E+03
  5.65819E+03 -2.92361E+03  7.04018E+03  1.00718E+03  9.05601E+03  7.30731E+03  3.67999E+03  1.21030E+04
 -5.89921E+03  1.57522E+04 -1.53352E+04  8.60582E+03 -1.54594E+04 -1.01169E+03 -1.14292E+04 -9.35855E+03
 -5.84623E+03 -1.47914E+04  3.50797E+03 -1.38936E+04  1.01568E+04 -7.09627E+03  9.74248E+03  6.58685E+02
  4.35456E+03  3.99909E+03 -9.27465E+02  2.51668E+03 -1.12499E+03 -5.95762E+02  1.17288E+02 -2.43727E+03
  4.13947E+03 -1.60001E+03  5.72075E+03  7.94033E+02  4.90442E+03  6.27097E+03 -8.29796E+01  8.39899E+03
 -5.73285E+03  6.47958E+03 -1.15689E+04  2.03763E+03 -7.12064E+03 -7.13103E+03 -1.63761E+03 -1.18349E+04
  5.76471E+03 -9.21725E+03  1.05813E+04 -3.99447E+03  9.81868E+03  2.59644E+03  6.54692E+03  9.34669E+03
  1.84035E+02  8.83096E+03 -3.64990E+03  8.41228E+03 -4.38081E+03  3.51464E+03 -4.29533E+03  6.47468E+02
 -2.61571E+03 -2.66697E+02 -3.54198E+03  1.72851E+03 -2.89142E+03  2.25816E+03 -8.48881E+03 -3.50746E+01
 -8.70324E+03 -5.64330E+03 -5.00391E+03 -8.68346E+03  4.47183E+03 -1.01977E+04  8.76145E+03 -6.19005E+03
  9.58935E+03  1.77817E+03  4.81493E+03  5.57975E+03  1.21446E+03  1.09225E+04 -9.34090E+03  6.20315E+03
