 $NMID ID='MM_0lb_SNR200_19hz_g45_25.RAW', FMTDAT='(8E13.5)'
 TRAMP=1., VOLUME=1. $END
  3.09071E+05  1.43684E+03  3.36874E+05  2.50000E+05  8.47282E+04  3.38016E+05 -1.32188E+05  2.49414E+05
 -1.89813E+05  8.23137E+04 -1.11197E+05 -3.33122E+04  1.38794E+03 -5.01260E+04  5.47494E+04 -9.36644E+01
  3.46175E+04  5.27711E+04 -1.79921E+04  7.50887E+04 -5.96255E+04  6.20705E+04 -8.26029E+04  3.20723E+04
 -8.00883E+04 -1.12520E+04 -5.60473E+04 -5.01922E+04 -1.53389E+04 -6.82858E+04  2.71321E+04 -4.43094E+04
  3.89052E+04  2.89367E+03  1.49171E+04  4.68152E+04 -3.29007E+04  4.73895E+04 -6.51722E+04 -8.92919E+02
 -5.24734E+04 -5.62404E+04 -5.96265E+03 -7.47687E+04  3.25544E+04 -5.15331E+04  4.61497E+04 -1.70133E+04
  4.17956E+04  1.18314E+04  3.06343E+04  2.30667E+04  1.61556E+04  2.84256E+04 -4.89437E+03  2.62267E+04
 -2.07557E+04  1.24846E+04 -1.93952E+04 -4.10810E+03  4.44885E+03 -7.41262E+03  2.22323E+04  1.05319E+04
  7.25105E+03  3.23960E+04 -2.97516E+04  3.43394E+04 -6.10371E+04  2.06591E+03 -5.61861E+04 -3.98443E+04
 -1.17453E+04 -6.02442E+04  3.71562E+04 -4.29282E+04  5.62921E+04 -1.25208E+03  3.14228E+04  3.03361E+04
 -6.80518E+03  3.26221E+04 -2.84506E+04  1.30657E+04 -2.70350E+04 -4.66008E+03 -1.37087E+04 -9.71089E+03
 -6.58559E+03 -1.07143E+04 -1.75213E+03 -1.62007E+04  6.14808E+03 -2.31789E+04  1.48690E+04 -1.41739E+04
  1.20814E+04  3.89398E+03 -6.79603E+03  1.27098E+04 -1.88742E+04 -1.41561E+03 -8.98103E+03 -2.86819E+04
  2.10245E+04 -3.95428E+04  4.48844E+04 -1.83464E+04  4.11751E+04  1.85707E+04  1.46092E+04  4.17370E+04
 -1.45787E+04  3.13584E+04 -2.32577E+04  1.85533E+02 -8.12368E+03 -2.60406E+04  2.10724E+04 -3.11279E+04
  3.71130E+04 -7.49170E+03  3.18864E+04  2.26267E+04  1.46782E+04  4.19402E+04 -8.20651E+03  4.38275E+04
 -2.92978E+04  2.86772E+04 -3.59545E+04  8.11272E+03 -3.70998E+04 -1.38845E+04 -2.03754E+04 -3.50115E+04
  6.20594E+03 -3.40430E+04  2.96168E+04 -1.22141E+04  2.69632E+04  9.52006E+03  2.58630E+03  1.69651E+04
 -1.17677E+04  6.82376E+03 -1.03438E+04 -7.80297E+03  5.91706E+03 -9.22919E+03  1.74732E+04  7.40787E+03
  1.24084E+04  2.16430E+04 -6.94813E+03  2.34790E+04 -2.07685E+04  7.65205E+03 -2.52157E+04 -6.53693E+03
 -1.51723E+04 -1.56338E+04 -5.97784E+03 -1.63363E+04  3.38206E+03 -1.46300E+04  1.13522E+04 -1.37814E+04
  1.91560E+04 -1.16783E+04  2.73955E+04 -8.16265E+01  2.13826E+04  1.49916E+04  3.11611E+03  3.29831E+04
 -1.55720E+04  2.71920E+04 -2.52234E+04  9.00047E+03 -1.92534E+04 -9.10159E+03 -2.66651E+03 -1.34968E+04
  3.82140E+03 -4.07178E+03 -1.95364E+03  4.83310E+03 -1.30321E+04  3.97636E+03 -1.23958E+04 -4.38498E+03
 -7.61326E+03 -1.52519E+04  4.30064E+03 -1.86705E+04  1.13059E+04 -1.47246E+04  1.51198E+04 -2.26915E+03
  8.40547E+03  1.08916E+04 -1.52872E+03  1.59609E+04 -9.77185E+03  8.66413E+03 -1.55986E+04 -4.35270E+03
 -1.13510E+04 -1.45291E+04 -1.34148E+03 -1.87773E+04  8.59765E+03 -1.50212E+04  1.46988E+04 -7.09613E+03
  1.39728E+04 -8.58780E+01  8.71980E+03  3.91811E+03  4.51611E+03  7.24765E+02  8.31461E+03 -1.38102E+03
  1.34130E+04  2.89714E+03  1.42774E+04  1.19409E+04  8.35497E+03  2.46751E+04 -3.85798E+03  2.55476E+04
 -1.61867E+04  1.95449E+04 -2.33963E+04  1.00881E+04 -2.39617E+04 -8.67155E+02 -1.92601E+04 -1.30834E+04
 -1.04437E+04 -1.94488E+04  6.07498E+03 -1.88265E+04  1.60852E+04 -1.04056E+04  1.52268E+04  3.80138E+03
  5.86577E+03  9.68335E+03 -7.57173E+03  1.01117E+04 -1.24937E+04  1.90260E+03 -9.59304E+03 -8.41814E+03
  3.03022E+02 -1.16511E+04  6.31407E+03 -9.25538E+03  7.60921E+03 -1.08807E+03  1.18123E+03  4.68156E+03
 -6.13213E+03  1.45981E+03 -3.54862E+03 -4.72516E+03  9.50426E+02 -9.86864E+03  7.34069E+03 -9.83330E+03
  1.29594E+04 -4.14080E+03  1.12075E+04  3.16244E+03  1.07664E+04  9.33820E+03  4.63486E+03  1.32599E+04
 -8.80767E+02  1.47845E+04 -8.56006E+03  1.00339E+04 -1.07419E+04  3.99628E+03 -8.28018E+03 -2.22927E+03
 -4.11138E+03 -2.60726E+03 -5.17257E+02  2.08772E+03 -1.66999E+03  1.36885E+03 -3.87353E+03  3.20807E+03
 -8.28239E+03 -9.76145E+02 -7.99791E+03 -7.12086E+03 -2.51504E+03 -1.24281E+04  3.26184E+03 -7.65786E+03
  6.49825E+03 -4.02475E+03  4.37178E+03  1.70351E+03  9.58254E+02  3.57437E+03 -4.41440E+03  6.40641E+02
 -2.28640E+03 -6.33852E+03 -8.87868E+02 -7.12797E+03  2.59301E+03 -7.15751E+03  1.00617E+04 -4.66340E+03
  1.14508E+04  2.54009E+02  8.97942E+03  6.07406E+03  1.40613E+03  7.99600E+03 -5.52650E+03  7.63590E+03
 -7.39990E+03  3.77361E+03 -3.29860E+03 -8.72187E+02  8.66952E+02 -1.38754E+03  4.64280E+03 -2.84265E+02
  3.31132E+03  3.40594E+03  6.64727E+02  6.34686E+03 -5.08778E+03  6.30510E+03 -7.79114E+03  2.54909E+03
 -4.45111E+03 -3.86415E+03  4.33115E+02 -6.02806E+03  3.27128E+03 -3.61343E+03  2.66717E+03  1.79779E+03
 -2.92968E+02  3.38714E+03 -3.89305E+03  5.22024E+03 -4.28344E+03  2.16230E+03 -3.65713E+03 -8.75572E+02
 -2.32399E+03 -5.09106E+03  1.71483E+03 -6.46968E+03  5.06960E+03 -4.14613E+03  7.04281E+03  4.76700E+02
  4.58934E+03  5.49929E+03  2.83308E+02  5.66650E+03 -2.59238E+03  3.88273E+03 -4.42964E+03 -1.21918E+03
 -6.55101E+03 -4.52314E+03 -1.72222E+03 -3.74488E+03  2.92848E+03 -3.18314E+03  2.77847E+03 -3.05226E+03
  2.97280E+03 -1.08656E+03 -1.68124E+02  7.30364E+02  9.70337E+02 -4.43317E+02  5.62871E+02 -1.02839E+03
  2.44334E+03 -2.13051E+02  5.68214E+03  1.52255E+03  5.12884E+03  2.89492E+03  5.25791E+03  6.67877E+03
 -1.61567E+03  8.00990E+03 -8.05860E+03  5.95431E+03 -8.53768E+03  1.12923E+03 -6.67637E+03 -2.82631E+03
 -3.84924E+03 -5.51824E+03 -2.11211E+00 -4.66726E+03  1.37515E+03 -2.29386E+03  1.56675E+03 -1.78224E+03
  3.78064E+02 -1.83518E+03  1.64134E+03 -1.77059E+03  2.98809E+03 -5.60134E+02  3.95613E+03  8.06106E+02
  4.26235E+03  1.64521E+03  4.18900E+02  3.68654E+03 -2.42237E+03  2.14435E+03 -4.21830E+03  1.85702E+03
 -5.33740E+03 -6.06707E+02 -1.79464E+03 -3.38082E+03  9.66553E+02 -5.53882E+03  2.44081E+03 -4.72140E+03
  5.99636E+03 -3.40105E+03  6.44005E+03 -2.38499E+02  4.16156E+03  4.20234E+03  7.69246E+02  5.12259E+03
 -1.82607E+03  5.43349E+03 -3.76948E+03  7.04512E+02 -8.50142E+02 -1.59930E+03  4.10817E+02 -3.13919E+02
 -6.86327E+02  1.18777E+03 -8.10493E+02  1.46407E+03 -2.39669E+03  1.17452E+03 -3.33621E+03 -2.57661E+02
 -4.16550E+02 -3.42951E+03  8.39852E+02 -4.25426E+03  3.54021E+03 -3.99170E+03  2.98511E+03 -7.67275E+02
  3.65553E+03  1.92793E+03  1.27392E+03  2.96013E+03 -1.13775E+03  4.34151E+03 -2.72785E+03  2.19505E+03
 -3.48916E+03  5.72788E+02 -2.78845E+03 -1.84955E+03  5.58590E+02 -2.38622E+03  1.78689E+03 -1.54134E+03
  3.00894E+03 -6.45130E+02  1.43758E+03  9.34894E+02  1.18960E+03  1.80351E+03  1.14547E+03  8.41231E+02
  1.12475E+03 -1.32667E+02  1.61168E+03  2.37946E+03  1.36983E+03  2.13025E+03  1.59484E+03  1.18247E+03
 -4.39492E+02  3.07212E+03 -2.67107E+03  4.04653E+03 -2.24698E+03  1.76600E+03 -5.25368E+03 -8.80314E+01
 -2.41301E+03 -2.63978E+03  7.43497E+02 -4.74517E+03  2.68828E+03 -3.14680E+03  1.45543E+03 -1.69693E+03
  2.32291E+03  8.89455E+02 -1.16461E+02  2.38770E+03 -6.78025E+02  9.18959E+02 -5.46618E+02  4.92060E+02
 -4.54137E+02 -9.88858E+02  9.26828E+02 -1.64818E+03  8.18859E+02 -2.04035E+03  1.30765E+03  2.88632E+02
  7.76726E+02  9.98663E+02  6.07210E+02 -8.85346E+02  2.33630E+00  5.88230E+02  1.66543E+03 -4.61269E+02
  2.55587E+02 -2.96817E+02  2.44113E+03  8.11006E+01  5.84966E+02  3.26159E+03 -3.97283E+02  1.59827E+03
 -1.60907E+03  1.39467E+03 -1.21054E+03 -8.74587E+01 -8.54940E+02 -9.11582E+02  6.74851E+02 -5.25314E+02
  1.10378E+03 -1.35573E+03  7.54993E+01  3.30589E+02  2.82134E+02  1.60442E+03 -7.48806E+02  1.48592E+03
 -9.45138E+02  2.16411E+02 -1.39978E+03 -1.48937E+03 -9.48399E+02 -1.60943E+03  9.22156E+02 -1.37060E+03
 -8.00514E+02 -9.26258E+02  1.05151E+03 -1.79578E+02  1.23389E+03 -1.00406E+03  1.50936E+02 -3.90273E+02
 -1.97426E+03  7.92646E+02 -8.16058E+02  9.32804E+02 -2.46495E+01 -4.79619E+02  2.55652E+03 -1.01380E+03
  1.64892E+03 -5.85920E+02  2.22125E+03 -1.91151E+03  6.87642E+02  1.28600E+03 -4.75428E+02  1.86006E+03
 -1.03980E+03  1.21363E+03 -1.10133E+03 -2.79443E+02 -1.72746E+03 -9.57710E+02  3.85851E+02 -4.07031E+02
  1.11095E+03 -9.36805E+02  5.18066E+02  5.90064E+02  1.72342E+01  1.72828E+03  1.30234E+03  1.17037E+03
  2.45937E+02  2.56789E+03 -4.26480E+02  1.82482E+02  1.30202E+02  9.59386E+02 -4.88880E+02  5.33838E+01
 -3.42468E+02  9.83284E+02 -2.45961E+03  5.07237E+01 -2.26696E+03 -6.10060E+02 -3.28918E+03 -9.09164E+02
 -4.03261E+02 -1.09394E+03 -1.55577E+02 -3.19644E+03  2.40090E+02 -1.02149E+03  2.51949E+03 -9.40046E+02
  2.08666E+03 -6.75654E+02 -5.18940E+02 -1.01819E+02 -1.11169E+03  1.03195E+03 -2.22448E+02  1.36420E+03
 -5.99660E+02  1.11310E+03 -5.87618E+02 -2.26951E+02 -1.53530E+02 -5.43088E+02 -5.25613E+02  2.47210E+02
 -7.43512E+02 -8.37725E+01 -9.26811E+02  8.86870E+02  5.26567E+01 -4.66096E+02 -8.61071E+02 -1.32646E+02
  9.54766E+02 -3.62180E+02  8.44205E+02 -6.09034E+02  5.28499E+02  1.30017E+03 -6.90633E+02  9.83167E+02
 -3.20251E+02  2.72991E+03 -2.06041E+03  1.18188E+03 -2.37352E+03  3.49378E+02  1.48928E+02  1.42584E+02
 -1.00442E+03 -3.19682E+01 -2.39312E+02 -2.17328E+03  9.07061E+02 -1.45733E+03  9.86465E+01  8.87168E+02
  1.54644E+03 -1.73113E+03  5.05052E+02 -2.31493E+02 -4.04720E+02  8.76347E+02 -2.78111E+02  9.98519E+01
  4.76116E+02  1.51123E+03  8.16158E+02  1.30322E+02 -4.60104E+02 -8.28730E+01  8.66919E+02 -6.78693E+01
 -4.62098E+02 -2.10144E+02 -8.05948E+02  3.84356E+02 -3.94277E+02 -2.95801E+02 -2.24625E+02  2.68093E+02
 -9.62690E+01 -6.99621E+02  6.87315E+01  1.52259E+03  1.90228E+02 -4.70024E+02 -2.69164E+02  1.96397E+03
  4.77048E+02  9.80881E+02 -8.11229E+01  5.53380E+02 -8.24351E+02  4.62342E+02 -3.13464E+02  4.85308E+02
  2.99559E+02 -3.57495E+02 -1.63808E+03 -1.46858E+02 -6.11907E+02 -5.00176E+02 -1.67122E+03 -8.94818E+02
 -1.43823E+02  5.70466E+02  5.57658E+02 -4.58880E+02  1.06946E+03 -2.43252E+03 -4.28883E+02 -5.49458E+02
  1.20352E+03 -7.85665E+02 -5.06298E+02  4.53302E+02 -2.75866E+02 -7.37583E+01  1.03631E+00  5.90945E+02
