 $NMID ID='MM_0lb_SNR200_14hz_g45_22.RAW', FMTDAT='(8E13.5)'
 TRAMP=1., VOLUME=1. $END
  3.09577E+05 -8.53293E+02  3.36846E+05  2.51009E+05  8.55163E+04  3.39551E+05 -1.32897E+05  2.50064E+05
 -1.90041E+05  8.27768E+04 -1.10914E+05 -3.35636E+04  1.20647E+03 -5.04809E+04  5.43542E+04  1.02528E+03
  3.54061E+04  5.42309E+04 -1.66728E+04  7.52769E+04 -5.91738E+04  6.40600E+04 -8.29704E+04  3.15265E+04
 -8.05338E+04 -1.09120E+04 -5.63007E+04 -5.16509E+04 -1.39664E+04 -6.89843E+04  2.74733E+04 -4.62540E+04
  4.12523E+04  4.58569E+03  1.65414E+04  4.74652E+04 -3.55893E+04  4.67601E+04 -6.59915E+04 -3.68676E+00
 -5.36574E+04 -5.57160E+04 -5.20630E+03 -7.64775E+04  3.34279E+04 -5.35004E+04  4.70260E+04 -1.63905E+04
  4.33221E+04  1.15325E+04  3.18985E+04  2.67040E+04  1.53945E+04  2.94512E+04 -4.77603E+03  2.71650E+04
 -2.15109E+04  1.17044E+04 -1.88924E+04 -5.00947E+03  5.43879E+03 -7.27245E+03  2.26503E+04  1.13123E+04
  7.29857E+03  3.53551E+04 -3.23984E+04  3.58707E+04 -6.42536E+04  2.42702E+03 -5.70893E+04 -4.23053E+04
 -1.14999E+04 -6.23160E+04  4.01521E+04 -4.50622E+04  5.77234E+04 -2.79017E+03  3.29099E+04  3.15145E+04
 -7.37344E+03  3.62818E+04 -2.94644E+04  1.50845E+04 -3.04279E+04 -3.89244E+03 -1.66270E+04 -1.09991E+04
 -7.85410E+03 -1.37488E+04 -7.49218E+02 -1.84207E+04  7.00247E+03 -2.30304E+04  1.56607E+04 -1.29852E+04
  1.07621E+04  5.02283E+03 -7.72666E+03  1.37551E+04 -2.09493E+04 -4.95504E+03 -8.42293E+03 -3.18716E+04
  2.30819E+04 -4.42065E+04  4.69340E+04 -1.98356E+04  4.32339E+04  2.07118E+04  1.49265E+04  4.44734E+04
 -1.60516E+04  3.28256E+04 -2.53611E+04  1.57898E+03 -1.00664E+04 -2.75826E+04  2.09626E+04 -3.32070E+04
  3.94799E+04 -8.62987E+03  3.52207E+04  2.37328E+04  1.88223E+04  4.60440E+04 -7.40507E+03  4.94495E+04
 -3.11847E+04  3.37552E+04 -4.21533E+04  8.60725E+03 -4.22990E+04 -1.63013E+04 -2.29406E+04 -3.67371E+04
  7.47030E+03 -3.74795E+04  3.07510E+04 -1.46396E+04  2.92022E+04  1.09490E+04  4.57048E+03  2.00840E+04
 -1.43521E+04  8.48457E+03 -1.04603E+04 -8.20716E+03  6.11292E+03 -1.11599E+04  1.78059E+04  4.25636E+03
  1.36539E+04  2.23849E+04 -5.39081E+03  2.46077E+04 -2.22964E+04  1.22144E+04 -2.85689E+04 -5.20551E+03
 -2.10731E+04 -1.70692E+04 -7.44465E+03 -1.98983E+04  4.67618E+03 -1.87681E+04  1.64126E+04 -1.73372E+04
  2.58117E+04 -1.21767E+04  3.25016E+04  3.30736E+03  2.41889E+04  1.96484E+04  4.25242E+03  3.65356E+04
 -1.68990E+04  2.97006E+04 -2.74533E+04  1.10448E+04 -2.05765E+04 -1.07404E+04 -4.12399E+03 -1.45145E+04
  1.71889E+03 -2.34298E+03 -3.09933E+03  6.50269E+03 -1.38513E+04  5.53774E+03 -1.70166E+04 -5.71828E+03
 -1.00123E+04 -1.88697E+04  6.02565E+03 -2.13497E+04  1.46641E+04 -1.60609E+04  1.78089E+04 -1.82535E+03
  1.09380E+04  1.28130E+04 -1.34634E+03  1.83514E+04 -1.32307E+04  1.03496E+04 -1.91023E+04 -4.23491E+03
 -1.34705E+04 -1.65339E+04 -2.33246E+03 -2.20272E+04  9.75565E+03 -1.79850E+04  1.92021E+04 -9.63425E+03
  1.67603E+04 -6.87090E+02  1.31568E+04  4.42502E+03  6.35800E+03 -7.97694E+02  8.98187E+03 -1.60591E+03
  1.77012E+04  3.30148E+03  1.90074E+04  1.49748E+04  1.18987E+04  3.03503E+04 -2.62014E+03  3.37826E+04
 -1.95830E+04  2.71700E+04 -3.12716E+04  1.27223E+04 -3.17655E+04 -2.06428E+03 -2.71453E+04 -2.00935E+04
 -1.12392E+04 -2.68105E+04  8.24453E+03 -2.44422E+04  1.95460E+04 -1.21195E+04  1.93285E+04  6.21774E+03
  7.35658E+03  1.46298E+04 -9.18532E+03  1.21524E+04 -1.65481E+04  1.93541E+03 -1.15490E+04 -1.01959E+04
 -1.96996E+03 -1.42557E+04  7.47880E+03 -1.02325E+04  1.10323E+04 -7.10727E+02  2.01960E+03  6.97739E+03
 -6.91962E+03  2.57161E+03 -4.84468E+03 -5.07493E+03 -9.95770E+02 -1.22896E+04  1.13013E+04 -1.34150E+04
  1.70724E+04 -6.92741E+03  1.66403E+04  4.21099E+03  1.59005E+04  1.28602E+04  7.64929E+03  1.87366E+04
 -2.23712E+03  2.13566E+04 -1.38635E+04  1.30098E+04 -1.51954E+04  2.88107E+03 -1.21831E+04 -3.41604E+03
 -5.40925E+03 -5.91957E+03  3.19592E+02  2.14075E+03 -2.24549E+03  3.66310E+03 -4.63643E+03  3.11811E+03
 -1.05064E+04 -7.36618E+02 -1.10943E+04 -8.98654E+03 -4.02371E+03 -1.38107E+04  4.75627E+03 -1.11639E+04
  8.71898E+03 -5.11021E+03  6.43565E+03  2.71847E+03  1.26997E+02  3.64501E+03 -6.19610E+03  7.98236E+01
 -5.64382E+03 -6.70226E+03 -5.39396E+02 -9.88466E+03  5.83607E+03 -1.08191E+04  1.43036E+04 -5.41887E+03
  1.73185E+04  2.09121E+03  1.19594E+04  8.89492E+03  2.21108E+03  1.26225E+04 -6.62804E+03  1.11836E+04
 -8.82759E+03  3.37659E+03 -4.12262E+03 -3.23887E+03  1.47059E+03 -2.91993E+03  5.43734E+03 -1.53051E+03
  5.43360E+03  5.15328E+03  1.01541E+03  9.11684E+03 -5.50342E+03  9.23464E+03 -1.13613E+04  3.43124E+03
 -7.26161E+03 -4.49560E+03  6.14343E+02 -8.57633E+03  5.45915E+03 -5.28983E+03  6.11201E+03  2.65997E+03
  8.00017E+02  6.08051E+03 -4.26912E+03  7.21270E+03 -8.07816E+03  3.95644E+03 -7.00584E+03 -2.12070E+03
 -4.82761E+03 -9.60561E+03  2.95918E+03 -9.31041E+03  1.05738E+04 -6.50825E+03  9.80495E+03  1.20090E+03
  6.75977E+03  7.29432E+03 -2.52362E+02  9.80153E+03 -7.87951E+03  6.18071E+03 -7.70694E+03 -5.92828E+02
 -7.60274E+03 -7.23290E+03 -1.84042E+03 -7.65999E+03  3.28906E+03 -6.25647E+03  6.13683E+03 -3.04308E+03
  3.74132E+03  1.38655E+03  3.29277E+02  7.78733E+02 -2.26239E+02 -1.46360E+03 -7.58080E+01 -5.57920E+03
  6.84704E+03 -2.32807E+03  8.99841E+03  2.73198E+03  9.01258E+03  7.40059E+03  6.72960E+03  1.29344E+04
 -2.34296E+03  1.38492E+04 -1.14179E+04  1.07926E+04 -1.48281E+04  1.94603E+03 -1.17817E+04 -5.58773E+03
 -5.77164E+03 -1.10851E+04 -1.06412E+03 -7.57480E+03  2.79067E+03 -4.08016E+03  3.38649E+03 -3.62507E+03
  4.80201E+02 -2.40113E+03  1.89554E+03 -2.99282E+03  4.14926E+03 -1.68150E+03  5.92231E+03 -1.11791E+03
  6.17329E+03  2.26279E+03  3.60830E+03  5.40613E+03 -2.53056E+03  5.29431E+03 -7.03363E+03  5.82324E+03
 -8.48254E+03 -1.87817E+03 -4.44779E+03 -5.95337E+03 -2.68388E+00 -9.12110E+03  4.50186E+03 -8.15503E+03
  8.39601E+03 -5.80656E+03  1.19462E+04  5.03756E+02  7.70485E+03  8.24756E+03  1.78309E+03  1.04572E+04
 -3.41157E+03  8.67123E+03 -6.33038E+03  3.66552E+03 -3.77677E+03 -1.35717E+03 -1.53356E+03 -1.36776E+03
 -1.16685E+03 -3.76560E+02 -2.32259E+03  2.10200E+03 -3.54635E+03  1.76171E+03 -5.68871E+03 -7.62287E+02
 -3.07768E+03 -6.45007E+03  7.47533E+02 -7.54766E+03  6.11874E+03 -7.13274E+03  7.19754E+03 -1.97921E+03
  7.88491E+03  4.39596E+03  3.98007E+03  5.04425E+03 -1.71776E+03  8.71954E+03 -5.66408E+03  4.73848E+03
 -6.28665E+03  7.17464E+01 -6.39838E+03 -4.82477E+03  4.47052E+02 -5.51676E+03  3.53067E+03 -3.22877E+03
  4.74223E+03 -2.38732E+03  3.92536E+03  1.76739E+03  1.88462E+03  2.02351E+03  1.06927E+03  7.00247E+02
  2.21350E+03  7.35574E+02  2.22656E+03  2.26433E+03  5.44196E+02  3.06576E+03  1.88071E+03  2.67221E+03
 -4.86165E+02  5.32464E+03 -6.11782E+03  7.37598E+03 -7.58108E+03  1.12640E+03 -7.95260E+03 -2.16052E+03
 -3.45556E+03 -6.34988E+03  6.77495E+02 -9.38972E+03  3.19259E+03 -4.22969E+03  6.96200E+03 -1.85985E+03
  4.50800E+03  4.08241E+03  1.59583E+03  4.38863E+03 -3.13239E+03  2.33605E+03 -2.71748E+03 -7.61582E+02
 -1.29879E+03 -2.61660E+03  2.00206E+03 -3.32086E+03  3.63512E+03 -1.96303E+03  2.75405E+03  8.45239E+02
  1.37804E+03  7.47852E+02  7.57298E+02  1.36091E+03  6.58548E+02  5.48542E+02  8.98461E+02 -8.04977E+02
  1.05292E+03  1.58053E+03  2.07082E+03  1.33563E+03  1.69110E+03  4.33266E+03 -7.89403E+02  5.35361E+03
 -2.79302E+03  2.98439E+03 -5.44656E+03 -3.21235E+01 -4.48355E+03 -2.07775E+03 -2.10381E+02 -3.16064E+03
  1.20352E+03 -2.56232E+03  1.63823E+03 -1.66566E+03  1.54457E+03  2.04704E+03 -6.64651E+02  2.53517E+03
 -3.18594E+03  1.86127E+03 -3.95078E+03 -1.54226E+03 -2.70724E+03 -3.47385E+03 -4.38718E+02 -3.97114E+03
  1.82392E+03 -2.51827E+03  2.27904E+03  2.37201E+02  3.21157E+03 -8.37761E+02  5.00826E+02  3.48443E+03
 -7.63411E+02  1.10793E+03 -8.30147E+02 -5.60606E+02  2.11665E+03 -1.65576E+03  3.40627E+03 -2.11620E+03
  4.32924E+03 -4.87888E+01  3.09510E+03  3.24221E+03  3.93446E+02  3.13165E+03 -3.17769E+03  3.33745E+03
 -2.92694E+03  1.08592E+03 -3.42818E+03  5.62400E+01 -1.09994E+03 -4.16860E+03  4.59493E+02 -2.58421E+03
  3.42313E+03 -2.02941E+03  2.60865E+03  1.30511E+03  5.63125E+02  3.10319E+03  5.32669E+02  1.82528E+03
 -1.22109E+03  2.40640E+03 -5.86961E+01 -4.63049E+02 -9.30126E+02  1.08831E+03 -6.84980E+02  6.60804E+02
 -1.44440E+03  2.24088E+03 -2.04425E+03  1.44690E+03 -4.37396E+03  5.85291E+02 -5.11355E+03 -1.67006E+03
 -3.07838E+03 -4.41373E+03  1.33718E+03 -6.70636E+03  2.97426E+03 -4.69465E+03  5.96647E+03 -1.27551E+03
  5.37164E+03  1.40160E+03  3.98615E+03  1.79833E+03  1.38486E+02  3.52325E+03 -1.17189E+03  2.07288E+03
 -1.77614E+03  3.56403E+02 -2.19891E+03 -5.77330E+02 -8.01260E+02 -2.38703E+02 -5.04829E+02  4.27015E+02
 -9.63468E+02 -1.10147E+02 -1.27592E+03  1.51674E+01  1.98213E+02 -1.03033E+03  7.49818E+02 -1.67162E+03
  2.20111E+03 -2.49841E+02  7.65899E+02  6.22750E+02  2.01984E+03  2.78780E+03  2.01127E+02  3.13590E+03
 -1.33302E+03  4.88006E+03 -5.62917E+03  3.02701E+03 -6.09847E+03 -4.44537E+02 -3.84353E+03 -3.54350E+03
 -1.22299E+03 -4.26852E+03  1.11021E+03 -3.14713E+03  1.07891E+03 -1.33414E+03  4.07945E+03  6.55067E+02
  1.90574E+03  9.07132E+02  1.22164E+03  1.32963E+03 -1.19410E+03  9.51149E+02 -1.24529E+02 -2.01824E+02
  1.35370E+03 -2.29743E+02  2.09379E+03  1.94892E+03  1.35391E+03 -4.44156E+02  5.64355E+02  1.30438E+03
 -1.24942E+03  2.10335E+03 -1.85261E+03 -5.20343E+02 -1.39176E+03 -1.96606E+03 -1.09084E+02 -2.59065E+03
  2.02919E+03 -2.18539E+03  2.66798E+03  2.25633E+02  2.29114E+03 -4.31175E+02  2.05055E+03  2.52058E+03
  1.18969E+03  1.30844E+03 -1.83136E+03  2.18713E+03 -1.50712E+03  2.18972E+03 -1.93380E+03 -1.63776E+02
 -1.70876E+03  1.48612E+02 -8.09906E+02  7.48986E+02 -2.19520E+03 -2.38616E+02 -2.05030E+03 -1.02600E+03
 -7.75265E+02 -5.55624E+02 -1.83409E+02 -2.39967E+03  9.37109E+02 -3.05412E+03  2.16013E+03 -3.74283E+02
  1.59336E+03  8.16934E+02  1.71524E+03  2.30799E+03 -2.25699E+02  3.53438E+03 -1.75066E+03  8.26151E+02
