 $NMID ID='MM_0lb_SNR200_9hz_g50_56.RAW', FMTDAT='(8E13.5)'
 TRAMP=1., VOLUME=1. $END
  3.08771E+05  6.08623E+01  3.36920E+05  2.51870E+05  8.45156E+04  3.39350E+05 -1.32863E+05  2.52117E+05
 -1.90747E+05  8.22015E+04 -1.14263E+05 -3.18928E+04 -7.85400E+02 -5.18775E+04  5.43091E+04 -1.33727E+03
  3.58251E+04  5.24653E+04 -1.64366E+04  7.84501E+04 -6.22959E+04  6.27084E+04 -8.55753E+04  3.23523E+04
 -8.24296E+04 -1.24510E+04 -5.96682E+04 -5.20364E+04 -1.42505E+04 -7.16732E+04  2.92105E+04 -4.74578E+04
  4.05841E+04  4.27516E+03  1.76515E+04  4.76381E+04 -3.55934E+04  4.68213E+04 -6.82272E+04 -1.29446E+03
 -5.40180E+04 -5.66858E+04 -7.01099E+03 -7.66426E+04  3.48589E+04 -5.58690E+04  4.92297E+04 -1.87085E+04
  4.55320E+04  1.20001E+04  3.13611E+04  2.45263E+04  1.65652E+04  3.13642E+04 -4.62857E+03  2.73462E+04
 -2.28340E+04  1.17761E+04 -1.76072E+04 -5.63544E+03  6.70969E+03 -7.30189E+03  2.28190E+04  1.34015E+04
  4.61991E+03  3.84051E+04 -3.56259E+04  3.72053E+04 -6.57379E+04  9.78209E+02 -5.71602E+04 -4.38520E+04
 -1.33094E+04 -6.68418E+04  4.10990E+04 -4.79090E+04  6.08901E+04 -9.73046E+02  3.60808E+04  3.30620E+04
 -6.94719E+03  3.94750E+04 -3.23115E+04  1.78139E+04 -3.35005E+04 -2.05852E+03 -1.85476E+04 -1.22440E+04
 -1.00044E+04 -1.58454E+04  3.97932E+02 -1.99851E+04  9.81484E+03 -2.50988E+04  1.76371E+04 -1.34667E+04
  1.02355E+04  6.85009E+03 -1.10887E+04  1.32641E+04 -2.47282E+04 -5.61961E+03 -8.41338E+03 -3.73924E+04
  2.29396E+04 -4.75742E+04  5.22687E+04 -2.20394E+04  4.94760E+04  2.18941E+04  1.65413E+04  4.56023E+04
 -1.75789E+04  3.59224E+04 -2.86405E+04  2.19244E+03 -1.20860E+04 -3.06238E+04  2.12042E+04 -3.74022E+04
  4.56861E+04 -1.17669E+04  4.09667E+04  2.53275E+04  2.12290E+04  5.12856E+04 -8.11422E+03  5.61353E+04
 -3.52323E+04  3.77353E+04 -4.74008E+04  1.13898E+04 -4.74606E+04 -1.74471E+04 -2.57855E+04 -4.30113E+04
  9.22576E+03 -4.22218E+04  3.47199E+04 -1.71577E+04  3.13039E+04  1.11312E+04  4.74449E+03  2.16787E+04
 -1.41015E+04  9.98090E+03 -1.13252E+04 -8.36647E+03  4.88683E+03 -1.09791E+04  1.98779E+04  6.21789E+03
  1.38504E+04  2.27867E+04 -4.87927E+03  2.59955E+04 -2.26239E+04  1.46506E+04 -3.26548E+04 -3.67628E+03
 -2.60398E+04 -1.94442E+04 -1.29589E+04 -2.57701E+04  4.03522E+03 -2.66504E+04  2.06947E+04 -2.30803E+04
  3.21722E+04 -1.58608E+04  3.74509E+04  5.43979E+03  2.74273E+04  2.37830E+04  4.99353E+03  4.05049E+04
 -2.01604E+04  3.37765E+04 -3.11456E+04  1.26654E+04 -2.06675E+04 -9.92336E+03 -5.13472E+03 -1.29913E+04
 -6.34154E+02 -3.54928E+02 -5.33950E+03  8.28419E+03 -2.12960E+04  4.56011E+03 -1.98902E+04 -1.12291E+04
 -1.23344E+04 -2.34770E+04  6.08734E+03 -2.79841E+04  1.76956E+04 -2.01621E+04  2.20292E+04 -1.53744E+03
  1.40835E+04  1.56236E+04 -1.39734E+03  2.27421E+04 -1.52409E+04  1.20068E+04 -2.39456E+04 -4.19526E+03
 -1.75861E+04 -1.96582E+04 -9.87943E+02 -2.57304E+04  1.23162E+04 -2.30156E+04  2.32002E+04 -1.19158E+04
  2.14373E+04 -7.73089E+02  1.56571E+04  5.10522E+03  9.83885E+03  3.20316E+03  1.16510E+04 -2.96607E+03
  2.32453E+04  2.88168E+03  2.62986E+04  1.87217E+04  1.70220E+04  3.71471E+04 -1.99088E+03  4.46484E+04
 -2.56151E+04  3.68557E+04 -4.23613E+04  2.01284E+04 -4.61101E+04 -3.39453E+03 -3.53687E+04 -2.50774E+04
 -1.46680E+04 -3.76082E+04  1.23595E+04 -3.32552E+04  2.95740E+04 -1.55988E+04  2.54699E+04  8.02109E+03
  7.82239E+03  1.84332E+04 -1.17633E+04  1.48986E+04 -1.83060E+04  3.36723E+03 -1.55103E+04 -1.32501E+04
 -6.82681E+02 -2.08020E+04  1.17365E+04 -1.43977E+04  1.51421E+04 -1.48953E+03  3.06766E+03  9.03215E+03
 -6.37645E+03  3.18568E+03 -9.24478E+03 -7.59612E+03 -2.44520E+03 -1.59064E+04  1.26532E+04 -1.88390E+04
  2.38503E+04 -1.23138E+04  2.63940E+04  2.77638E+03  2.37684E+04  1.75284E+04  9.34898E+03  2.77791E+04
 -5.36865E+03  3.10869E+04 -2.10565E+04  1.90792E+04 -2.29210E+04  3.25339E+03 -1.57838E+04 -6.82596E+03
 -6.36721E+03 -7.43739E+03 -9.28869E+02  1.14324E+03 -2.51963E+03  3.33267E+03 -7.34888E+03  5.66221E+03
 -1.48282E+04 -1.32891E+03 -1.43555E+04 -1.18940E+04 -5.24640E+03 -1.86441E+04  7.14238E+03 -1.52189E+04
  1.19691E+04 -6.46443E+03  9.95087E+03  4.46104E+03 -6.24795E+02  5.60898E+03 -7.69626E+03 -2.77970E+02
 -7.83185E+03 -9.30433E+03  1.30974E+02 -1.38013E+04  8.82729E+03 -1.63904E+04  1.94546E+04 -1.03418E+04
  2.36457E+04  2.52246E+03  1.74098E+04  1.42278E+04  3.37408E+03  1.80218E+04 -1.03610E+04  1.50771E+04
 -1.22620E+04  3.27413E+03 -5.95589E+03 -2.99624E+03  2.32983E+03 -5.60590E+03  8.26951E+03 -1.35504E+03
  8.45483E+03  6.67557E+03  5.42938E+02  1.33346E+04 -8.09596E+03  1.22153E+04 -1.49771E+04  3.60820E+03
 -1.19282E+04 -8.40425E+03  9.10960E+02 -1.37267E+04  9.60955E+03 -7.08847E+03  1.12513E+04  4.81957E+03
  1.99838E+03  9.73119E+03 -7.94157E+03  1.15565E+04 -1.47419E+04  6.45353E+03 -1.33106E+04 -5.53057E+03
 -6.87331E+03 -1.56533E+04  4.11016E+03 -1.88296E+04  1.67780E+04 -9.83033E+03  1.67816E+04  2.21094E+03
  1.04005E+04  1.40230E+04 -2.12279E+03  1.64320E+04 -1.28255E+04  8.81800E+03 -1.18044E+04 -2.25916E+03
 -1.14200E+04 -1.15968E+04 -3.03030E+03 -1.23972E+04  8.40392E+03 -1.03819E+04  8.32296E+03 -3.79443E+03
  6.76841E+03  2.05492E+03 -9.57081E+02  1.85684E+03 -1.38334E+03 -3.67170E+03  1.21972E+03 -7.68416E+03
  1.30556E+04 -4.65061E+03  1.58624E+04  1.67574E+03  1.54613E+04  1.03103E+04  9.24291E+03  1.96879E+04
 -5.81156E+03  2.42886E+04 -2.09297E+04  1.81112E+04 -2.57535E+04  2.42719E+03 -2.12538E+04 -8.93444E+03
 -1.05675E+04 -1.64714E+04 -2.31632E+03 -1.58833E+04  6.51999E+03 -8.38823E+03  4.44305E+03 -5.49565E+03
  4.68205E+03 -3.95100E+03  3.27740E+03 -3.43403E+03  5.45513E+03 -3.42221E+03  1.00453E+04  5.04366E+02
  1.05885E+04  2.60399E+03  5.28306E+03  8.70293E+03 -2.82165E+03  1.15321E+04 -1.21584E+04  9.03241E+03
 -1.47843E+04 -1.98728E+03 -8.00619E+03 -1.07559E+04 -1.65876E+03 -1.58426E+04  7.65173E+03 -1.52397E+04
  1.51002E+04 -9.44359E+03  2.04063E+04  3.92814E+03  1.38533E+04  1.30692E+04  1.80459E+03  1.80931E+04
 -8.41220E+03  1.30377E+04 -9.43150E+03  4.15669E+03 -8.52020E+03 -1.55977E+03 -3.24102E+03 -4.34708E+03
 -2.15230E+03  5.62764E+02 -1.42416E+03  2.23193E+03 -6.08666E+03  1.91466E+03 -1.08622E+04 -1.95925E+03
 -8.02447E+03 -1.17189E+04 -7.44519E+01 -1.47090E+04  8.66162E+03 -1.48026E+04  1.50345E+04 -4.85681E+03
  1.49832E+04  7.25970E+03  8.05651E+03  1.33989E+04 -1.72275E+03  1.40325E+04 -1.11659E+04  9.32384E+03
 -1.36207E+04  1.52281E+03 -8.72267E+03 -9.31423E+03 -1.34162E+03 -1.11980E+04  5.71406E+03 -9.94610E+03
  1.03473E+04 -2.45275E+03  6.80723E+03  3.52127E+03  6.43737E+02  4.66034E+03 -1.68819E+03  4.09463E+03
  3.23435E+03  1.21163E+03  3.20252E+03  4.10565E+02  4.40184E+03  5.35164E+03  2.53994E+03  7.62205E+03
 -3.65675E+03  1.37974E+04 -1.06243E+04  1.14838E+04 -1.55152E+04  2.55851E+03 -1.52022E+04 -6.30754E+03
 -7.72015E+03 -1.50437E+04  1.58595E+03 -1.68764E+04  8.97999E+03 -9.73125E+03  1.15509E+04 -1.38061E+03
  8.52331E+03  4.73017E+03  1.12664E+03  8.03081E+03 -4.65981E+03  5.23552E+03 -6.57586E+03 -1.19912E+01
 -1.86184E+03 -8.04599E+03  3.69548E+03 -6.75698E+03  6.42277E+03 -2.62555E+03  5.48982E+03  2.57087E+03
  2.93779E+03  2.99721E+03  2.61272E+03  3.13175E+03 -6.78747E+02  1.75747E+03  1.92998E+03  1.01070E+03
  2.13329E+03 -2.22525E+03  5.95329E+03  2.59779E+03  2.76079E+03  6.32617E+03 -6.96006E+01  1.04014E+04
 -7.73632E+03  5.17093E+03 -9.05381E+03  1.08702E+03 -8.56171E+03 -4.86539E+03 -4.45657E+03 -5.79781E+03
  1.51299E+03 -5.52004E+03  2.98974E+03 -2.03515E+03  3.88038E+03  2.03352E+03 -2.32219E+03  4.36368E+03
 -6.44446E+03  2.89622E+03 -7.49155E+03 -3.33176E+03 -4.94850E+03 -7.17037E+03  1.68074E+02 -8.11066E+03
  4.59891E+03 -4.66743E+03  6.63744E+03 -2.06554E+03  4.30142E+03  3.19247E+03  7.79578E+02  5.63698E+03
 -2.15572E+03  8.25442E+02 -5.21672E+03 -3.76542E+03  2.20159E+03 -7.17032E+03  6.38638E+03 -5.67110E+03
  1.01508E+04  1.16841E+03  8.81926E+03  6.98768E+03  2.59694E+03  1.05013E+04 -5.17662E+03  8.67807E+03
 -6.93590E+03  3.92570E+03 -9.41237E+03 -9.18497E+02 -4.37619E+03 -5.40637E+03  3.27613E+02 -6.62912E+03
  5.98691E+03 -2.28025E+03  5.81978E+03  1.96767E+03  1.10101E+03  5.24442E+03 -2.15536E+03  5.01963E+03
 -1.31174E+03  4.23375E+03 -3.17400E+03 -5.42118E+02 -1.45678E+03 -2.16736E+02 -2.26732E+03  9.67819E+02
 -1.94433E+03  4.91613E+03 -5.01164E+03  4.05691E+03 -1.00590E+04  2.45952E+02 -1.15509E+04 -7.33910E+03
 -7.92577E+03 -1.17470E+04  2.01973E+03 -1.63033E+04  1.10442E+04 -1.03820E+04  1.48077E+04 -4.02522E+03
  1.23699E+04  3.13049E+03  7.00314E+03  1.00882E+04  7.46332E+02  1.17895E+04 -3.71740E+03  4.56260E+03
 -5.81085E+03  2.34844E+03 -4.30407E+03 -1.48594E+03 -3.42760E+02 -7.02454E+02 -6.60951E+02  9.95964E+02
  5.50025E+02 -1.16368E+03 -3.06875E+03  2.96045E+02 -1.90320E+03 -3.24060E+03  2.00147E+02 -4.25314E+03
  4.86639E+03 -3.82048E+03  6.40707E+03 -1.77927E+03  7.83260E+03  3.57433E+03  1.35304E+03  1.24658E+04
 -5.44212E+03  1.22048E+04 -1.18666E+04  9.18339E+03 -1.33809E+04  1.89573E+02 -9.45292E+03 -7.80316E+03
 -4.64683E+03 -1.12966E+04  2.50035E+03 -1.09330E+04  6.72256E+03 -5.83779E+03  7.31546E+03  1.84934E+03
  4.53611E+03  1.49169E+03 -3.21047E+02  3.19667E+03 -1.17546E+03  6.13362E+02  1.83706E+03 -2.49029E+03
  2.29517E+03 -1.13116E+03  2.91910E+03  1.27385E+03  3.16705E+03  4.79004E+03 -1.00282E+03  5.03370E+03
 -5.30710E+03  5.29052E+03 -6.06213E+03  4.75881E+02 -7.22522E+03 -4.83845E+03  3.04566E+02 -9.81513E+03
  4.04286E+03 -6.93248E+03  8.62442E+03 -1.50614E+03  8.36406E+03  2.82214E+03  5.76867E+03  5.25212E+03
  1.58575E+03  8.67324E+03 -3.44597E+03  5.16611E+03 -3.17036E+03  3.52702E+03 -2.41993E+03 -5.96382E+02
 -3.70102E+03 -4.53884E+02 -1.65746E+03  1.11951E+03 -3.32719E+03  2.12108E+03 -4.66733E+03 -9.43983E+02
 -5.15150E+03 -3.04372E+03 -1.86435E+03 -6.44062E+03  4.22543E+03 -7.13600E+03  5.47828E+03 -5.22947E+03
  6.78617E+03  1.69740E+03  4.25370E+03  5.03092E+03 -1.50769E+03  6.47628E+03 -6.19038E+03  4.24966E+03
