 $NMID ID='MM_0lb_SNR200_7hz_g60_94.RAW', FMTDAT='(8E13.5)'
 TRAMP=1., VOLUME=1. $END
  3.09925E+05 -7.97119E+02  3.37486E+05  2.50972E+05  8.57444E+04  3.39422E+05 -1.33195E+05  2.52770E+05
 -1.91966E+05  8.51031E+04 -1.12153E+05 -3.22472E+04  6.87358E+02 -5.03507E+04  5.49469E+04 -5.91878E+02
  3.59483E+04  5.39531E+04 -1.51350E+04  7.66123E+04 -6.15614E+04  6.54988E+04 -8.60349E+04  3.01846E+04
 -8.44013E+04 -1.19088E+04 -5.65307E+04 -5.34312E+04 -1.56026E+04 -7.13154E+04  2.98204E+04 -4.91942E+04
  4.30803E+04  3.43507E+03  1.67307E+04  4.97096E+04 -3.39057E+04  5.05079E+04 -6.99107E+04 -8.53997E+02
 -5.80856E+04 -5.90944E+04 -7.93288E+03 -7.89479E+04  3.57442E+04 -5.92882E+04  5.00754E+04 -1.78025E+04
  4.72916E+04  1.15085E+04  3.18353E+04  2.72061E+04  1.72355E+04  3.01489E+04 -7.39777E+03  2.82853E+04
 -2.34120E+04  1.28071E+04 -1.77728E+04 -6.93839E+03  7.89531E+03 -6.92778E+03  2.45409E+04  1.49101E+04
  5.94339E+03  3.94896E+04 -3.40609E+04  3.85370E+04 -6.47500E+04  2.00791E+03 -5.76385E+04 -4.59013E+04
 -1.41097E+04 -6.69118E+04  4.41902E+04 -4.96582E+04  6.44401E+04 -2.37698E+03  3.88294E+04  3.51375E+04
 -6.50504E+03  4.10239E+04 -3.34498E+04  2.07822E+04 -3.51452E+04 -2.06015E+03 -1.99917E+04 -1.22603E+04
 -8.86657E+03 -1.70836E+04  1.17529E+03 -1.86418E+04  9.21767E+03 -2.35016E+04  1.66575E+04 -1.24326E+04
  1.13789E+04  8.76431E+03 -1.25198E+04  1.13229E+04 -2.41218E+04 -6.70913E+03 -8.25894E+03 -3.94178E+04
  2.61510E+04 -4.88423E+04  5.43958E+04 -2.19286E+04  5.08942E+04  2.01772E+04  1.79153E+04  4.88927E+04
 -1.75055E+04  3.90193E+04 -2.91065E+04  3.92372E+03 -1.25353E+04 -3.20460E+04  2.40621E+04 -3.89021E+04
  4.85052E+04 -1.21750E+04  4.46211E+04  2.63754E+04  2.41272E+04  5.19388E+04 -8.36333E+03  5.87560E+04
 -3.85521E+04  3.95223E+04 -5.16314E+04  1.19788E+04 -5.16795E+04 -1.90788E+04 -2.79192E+04 -4.62815E+04
  9.23452E+03 -4.67275E+04  3.66527E+04 -1.78717E+04  3.35622E+04  1.13308E+04  6.00616E+03  2.20115E+04
 -1.39132E+04  1.07175E+04 -1.29610E+04 -7.73473E+03  3.31123E+03 -1.03253E+04  1.80596E+04  4.27828E+03
  1.54884E+04  2.12217E+04 -6.85205E+03  2.74444E+04 -2.35091E+04  1.61187E+04 -3.38346E+04 -1.76126E+03
 -2.67555E+04 -1.93462E+04 -1.48077E+04 -2.77742E+04  5.09888E+03 -2.98147E+04  2.13623E+04 -2.53139E+04
  3.52275E+04 -1.37162E+04  4.13143E+04  4.38342E+03  2.94556E+04  2.83696E+04  4.98409E+03  4.42561E+04
 -2.10971E+04  3.59619E+04 -3.09222E+04  1.30028E+04 -2.43832E+04 -1.02022E+04 -4.95857E+03 -1.36040E+04
  1.03327E+03 -1.06566E+02 -8.63899E+03  9.08796E+03 -2.17705E+04  2.56791E+03 -2.14552E+04 -1.08343E+04
 -1.24404E+04 -2.34829E+04  6.57263E+03 -3.05641E+04  1.99211E+04 -2.24287E+04  2.49483E+04 -5.32442E+02
  1.50592E+04  1.76619E+04  3.86735E+02  2.62285E+04 -1.73297E+04  1.47044E+04 -2.44793E+04 -7.34094E+03
 -2.04913E+04 -2.44352E+04 -3.90361E+03 -3.18402E+04  1.29194E+04 -2.62057E+04  2.46582E+04 -1.25581E+04
  2.20711E+04  3.68595E+02  1.82879E+04  6.77293E+03  8.96630E+03  2.90757E+03  1.29371E+04 -1.70868E+03
  2.72650E+04  3.24050E+03  2.86561E+04  2.06883E+04  2.14066E+04  4.32381E+04 -2.59789E+03  5.10119E+04
 -3.11490E+04  4.42199E+04 -4.67728E+04  2.22858E+04 -5.15847E+04 -4.34224E+03 -4.18687E+04 -3.16395E+04
 -1.71269E+04 -4.22442E+04  1.53205E+04 -3.82308E+04  3.26784E+04 -1.52042E+04  2.61428E+04  9.30215E+03
  8.33479E+03  1.97238E+04 -1.23919E+04  1.72929E+04 -2.26239E+04  9.98859E+02 -1.68405E+04 -1.46807E+04
 -8.58881E+02 -2.09166E+04  1.22226E+04 -1.66331E+04  1.58732E+04 -1.18135E+03  4.73658E+03  9.93292E+03
 -8.67403E+03  5.86670E+03 -1.16816E+04 -8.93046E+03 -2.86747E+03 -2.16169E+04  1.42159E+04 -2.32085E+04
  2.67402E+04 -1.37306E+04  3.13914E+04  3.63532E+03  2.68938E+04  2.28761E+04  1.18232E+04  3.45217E+04
 -6.65756E+03  3.80152E+04 -2.44066E+04  2.39456E+04 -2.74721E+04  3.03633E+03 -1.89507E+04 -5.66933E+03
 -8.58867E+03 -9.66278E+03 -2.35036E+03 -2.17501E+03 -5.04705E+03  3.46022E+03 -7.52027E+03  8.43008E+03
 -1.91633E+04 -2.20751E+03 -1.74346E+04 -1.52236E+04 -7.38025E+03 -2.29004E+04  7.68047E+03 -1.83184E+04
  1.60821E+04 -7.11996E+03  1.08608E+04  3.99048E+03  3.76777E+02  6.34900E+03 -1.15720E+04 -2.31288E+02
 -8.73118E+03 -1.21456E+04 -8.40656E+02 -1.69643E+04  9.84224E+03 -1.90347E+04  2.55296E+04 -1.01679E+04
  3.22159E+04  2.46195E+03  2.07146E+04  1.76018E+04  3.97993E+03  2.31899E+04 -1.00406E+04  1.70161E+04
 -1.25657E+04  5.69772E+03 -8.95423E+03 -5.17381E+03  3.62918E+03 -5.09646E+03  9.86696E+03 -2.68158E+03
  9.26682E+03  8.81241E+03  2.22531E+03  1.38568E+04 -1.22421E+04  1.35663E+04 -1.80008E+04  2.78561E+03
 -1.26177E+04 -1.08213E+04 -6.10671E+02 -1.61383E+04  1.19074E+04 -9.42062E+03  1.28809E+04  4.97181E+03
  4.63609E+03  1.22092E+04 -1.01407E+04  1.22792E+04 -1.79836E+04  4.86476E+03 -1.67688E+04 -8.34798E+03
 -9.00744E+03 -1.94967E+04  5.33940E+03 -2.26924E+04  1.94397E+04 -1.31925E+04  2.10015E+04  5.33643E+03
  1.43206E+04  1.67636E+04 -1.46930E+03  1.90816E+04 -1.52554E+04  9.51557E+03 -1.63725E+04 -2.46584E+03
 -1.18927E+04 -1.27930E+04  5.22801E+02 -1.46975E+04  7.08724E+03 -1.44678E+04  1.04635E+04 -3.95419E+03
  7.63895E+03  3.81748E+03 -2.38077E+03  6.16080E+02 -7.58875E+02 -3.71919E+03  2.18369E+03 -1.06358E+04
  1.45828E+04 -5.96736E+03  2.26719E+04  1.75860E+03  1.88382E+04  1.63136E+04  1.11625E+04  2.93851E+04
 -5.96348E+03  3.14251E+04 -2.58834E+04  2.13027E+04 -3.23172E+04  5.83875E+03 -2.69280E+04 -9.58618E+03
 -1.07411E+04 -2.10271E+04  1.22099E+03 -2.01252E+04  7.17447E+03 -1.17013E+04  7.69309E+03 -4.79312E+03
  5.06209E+03 -4.76306E+03  6.41031E+03 -5.42701E+03  7.86699E+03 -4.45111E+03  9.24851E+03 -1.14536E+03
  1.49904E+04  2.34510E+03  9.53459E+03  1.30501E+04 -2.39619E+03  1.61291E+04 -1.36631E+04  1.19752E+04
 -1.95623E+04 -1.67283E+03 -1.29734E+04 -1.36063E+04 -1.84577E+03 -2.10734E+04  1.38183E+04 -2.24651E+04
  2.10320E+04 -1.14233E+04  2.45715E+04  3.53555E+03  1.79857E+04  1.97156E+04  1.96362E+03  2.09804E+04
 -1.09042E+04  2.05903E+04 -1.42556E+04  7.17438E+03 -8.87215E+03 -1.67577E+03 -4.18474E+03 -4.14986E+03
 -2.09586E+03 -9.39807E+01 -2.62224E+03  3.20284E+03 -7.40680E+03  3.46144E+03 -1.37465E+04 -2.63512E+03
 -9.26851E+03 -1.21646E+04  1.49896E+02 -2.03240E+04  1.28035E+04 -1.78065E+04  1.81807E+04 -4.16632E+03
  2.07040E+04  9.81967E+03  8.52314E+03  1.78445E+04 -2.81950E+03  2.10760E+04 -1.58323E+04  1.04603E+04
 -1.99535E+04  1.59547E+03 -1.62440E+04 -9.93298E+03 -4.09247E+02 -1.61266E+04  9.41793E+03 -1.42799E+04
  1.23462E+04 -4.76449E+03  1.00601E+04  2.72252E+03  2.63713E+03  6.71854E+03  2.01636E+03  1.64979E+03
  3.17025E+03  2.67289E+02  4.90857E+03  2.71912E+03  7.19744E+03  7.63866E+03  5.48087E+03  1.27292E+04
 -3.93578E+03  1.57109E+04 -1.45878E+04  1.54390E+04 -2.30043E+04  3.55589E+03 -2.20246E+04 -9.29940E+03
 -1.25278E+04 -2.05882E+04  2.30506E+03 -2.28617E+04  1.20349E+04 -1.48909E+04  1.72312E+04 -3.95473E+03
  1.38166E+04  8.38700E+03  3.17656E+03  1.25273E+04 -6.73044E+03  7.88815E+03 -9.45453E+03  1.27444E+03
 -3.33802E+03 -8.97387E+03  3.48173E+03 -1.10259E+04  7.99468E+03 -3.58763E+03  7.88132E+03  1.68653E+03
  5.59610E+03  3.33784E+03  2.23171E+03  5.53872E+03 -2.43248E+03  2.96195E+03  1.48058E+03 -8.85364E+02
  5.10596E+03 -1.34042E+03  8.57557E+03  5.28579E+03  5.56395E+03  1.02849E+04 -1.53655E+03  1.35811E+04
 -8.81264E+03  9.98802E+03 -1.52603E+04  3.45180E+03 -1.08787E+04 -5.04807E+03 -5.92460E+03 -9.59859E+03
  1.39147E+03 -8.23463E+03  5.56620E+03 -4.96009E+03  5.29489E+03  3.57993E+03 -2.06020E+03  6.27988E+03
 -9.43079E+03  4.66466E+03 -1.09373E+04 -4.60378E+03 -5.48849E+03 -1.13137E+04  2.09127E+03 -1.12487E+04
  8.70581E+03 -6.86033E+03  7.57174E+03 -1.58939E+03  6.43229E+03  2.96016E+03  8.66862E+01  7.06309E+03
 -5.51099E+03  3.39184E+03 -4.13906E+03 -4.00052E+03  4.58866E+03 -9.67288E+03  1.12773E+04 -8.51942E+03
  1.34886E+04  2.36662E+03  1.40264E+04  9.27787E+03  4.04138E+03  1.64645E+04 -5.32801E+03  1.36169E+04
 -1.18821E+04  6.63765E+03 -1.27082E+04 -1.93453E+03 -6.52970E+03 -8.43449E+03  1.80903E+03 -8.01111E+03
  8.59375E+03 -6.64160E+03  6.72779E+03  3.30208E+03  2.15521E+03  7.44093E+03 -2.60165E+03  6.59411E+03
 -4.53584E+03  3.26716E+03 -1.70110E+03  1.83232E+03 -1.05031E+03  1.15000E+03 -2.35003E+03  2.75779E+03
 -4.27909E+03  6.91784E+03 -1.02876E+04  7.02976E+03 -1.42173E+04 -3.47981E+02 -1.54639E+04 -1.08575E+04
 -6.70425E+03 -2.13770E+04  4.83366E+03 -2.17102E+04  1.57166E+04 -1.72263E+04  2.10618E+04 -7.90867E+03
  1.90112E+04  4.60553E+03  1.24036E+04  1.43109E+04  4.88103E+03  1.42499E+04 -8.55012E+03  1.42902E+04
 -9.47639E+03  5.32838E+03 -4.16055E+03  1.25218E+03 -1.38577E+03 -1.11717E+03  2.55731E+02  9.92270E+02
 -1.92805E+03  9.66124E+02 -2.24648E+03  3.75758E+02 -4.77469E+02 -3.07529E+03  6.93121E+02 -4.83865E+03
  8.47760E+03 -4.15727E+03  9.52905E+03 -7.29878E+02  1.30885E+04  1.04828E+04  2.73589E+03  1.60052E+04
 -7.55064E+03  1.74478E+04 -1.71879E+04  1.00802E+04 -1.81600E+04  1.55043E+03 -1.40408E+04 -1.37772E+04
 -4.14236E+03 -1.49712E+04  3.81234E+03 -1.55257E+04  1.00425E+04 -8.11612E+03  1.09734E+04 -4.35522E+02
  6.83225E+03  5.34412E+03  3.23537E+02  4.56508E+03 -2.62484E+03  3.94347E+02  1.70705E+03 -4.60456E+03
  5.32764E+03 -1.90552E+03  8.97245E+03  2.77146E+03  4.72306E+03  7.94854E+03  1.33684E+03  9.46277E+03
 -5.90041E+03  9.20338E+03 -1.09937E+04  8.67379E+02 -1.07363E+04 -7.77446E+03 -8.04757E+02 -1.39709E+04
  8.46351E+03 -1.28338E+04  1.34407E+04 -4.36163E+03  1.32766E+04  4.09806E+03  7.99484E+03  1.07657E+04
  1.70064E+03  1.29940E+04 -4.12509E+03  9.79851E+03 -8.25248E+03  2.95757E+03 -7.10940E+03 -4.13442E+02
 -3.89529E+03 -5.38916E+02 -2.68964E+03  1.51700E+03 -8.28052E+03  3.09399E+03 -9.06858E+03 -1.04257E+03
 -7.97024E+03 -5.13370E+03 -1.96906E+03 -1.13683E+04  5.15893E+03 -1.11454E+04  1.09653E+04 -6.40021E+03
  1.09172E+04  8.25447E+02  4.47912E+03  9.53892E+03 -1.40365E+03  1.11317E+04 -8.89446E+03  6.26443E+03
