 $NMID ID='MM_0lb_SNR200_20hz_g45_87.RAW', FMTDAT='(8E13.5)'
 TRAMP=1., VOLUME=1. $END
  3.10068E+05  1.13073E+03  3.37496E+05  2.50491E+05  8.39027E+04  3.37982E+05 -1.30867E+05  2.49478E+05
 -1.88946E+05  8.21558E+04 -1.10560E+05 -3.27059E+04  2.38010E+03 -4.97837E+04  5.36684E+04 -1.49570E+02
  3.43547E+04  5.28754E+04 -1.74658E+04  7.50390E+04 -5.93397E+04  6.16951E+04 -8.24630E+04  3.16335E+04
 -7.94361E+04 -1.02721E+04 -5.57103E+04 -4.93185E+04 -1.44273E+04 -6.81537E+04  2.64787E+04 -4.50080E+04
  3.88309E+04  3.85452E+03  1.50427E+04  4.69071E+04 -3.38574E+04  4.57519E+04 -6.42013E+04 -4.91699E+02
 -5.09711E+04 -5.56438E+04 -6.14969E+03 -7.39205E+04  3.33769E+04 -5.33402E+04  4.55607E+04 -1.51783E+04
  4.11306E+04  1.09838E+04  3.00654E+04  2.41255E+04  1.66789E+04  2.71242E+04 -4.56081E+03  2.64651E+04
 -2.25901E+04  1.17232E+04 -2.00806E+04 -4.18190E+03  3.66705E+03 -7.77829E+03  2.13369E+04  1.01615E+04
  8.23013E+03  3.24151E+04 -2.99234E+04  3.30636E+04 -6.05159E+04  1.62203E+03 -5.49427E+04 -4.11362E+04
 -1.22518E+04 -6.00620E+04  3.68534E+04 -4.25488E+04  5.37942E+04 -1.45335E+03  3.11030E+04  3.07277E+04
 -6.99928E+03  3.09422E+04 -2.85732E+04  1.25532E+04 -2.61419E+04 -5.75388E+03 -1.32797E+04 -9.65492E+03
 -7.43807E+03 -9.35199E+03 -9.33893E+02 -1.54407E+04  7.25648E+03 -2.27405E+04  1.50105E+04 -1.38265E+04
  1.26080E+04  4.82493E+03 -6.25626E+03  1.28305E+04 -1.82339E+04 -2.32221E+03 -7.86170E+03 -2.97028E+04
  2.03413E+04 -3.91380E+04  4.37678E+04 -1.81097E+04  4.15944E+04  1.82290E+04  1.42783E+04  4.13213E+04
 -1.52154E+04  3.05058E+04 -2.25768E+04  1.43960E+03 -8.16854E+03 -2.55390E+04  2.04859E+04 -3.05247E+04
  3.72412E+04 -6.56516E+03  2.93423E+04  2.19158E+04  1.45806E+04  4.14569E+04 -7.91396E+03  4.25175E+04
 -2.88299E+04  2.82577E+04 -3.63901E+04  7.55431E+03 -3.66575E+04 -1.53531E+04 -2.03724E+04 -3.37092E+04
  6.81138E+03 -3.42138E+04  2.86381E+04 -1.12486E+04  2.63143E+04  1.02934E+04  2.22773E+03  1.70404E+04
 -1.27578E+04  7.42274E+03 -8.59973E+03 -7.41356E+03  6.17580E+03 -1.05907E+04  1.76983E+04  6.22334E+03
  1.22689E+04  2.18422E+04 -6.49590E+03  2.20554E+04 -2.11775E+04  8.21602E+03 -2.42364E+04 -6.53506E+03
 -1.57648E+04 -1.65051E+04 -4.75646E+03 -1.57812E+04  4.27198E+03 -1.31029E+04  1.08602E+04 -1.34096E+04
  2.00680E+04 -1.22262E+04  2.70033E+04 -6.89903E+02  2.13920E+04  1.52259E+04  4.41264E+03  3.08769E+04
 -1.58916E+04  2.63712E+04 -2.49444E+04  9.31263E+03 -1.87999E+04 -1.07101E+04 -3.81860E+03 -1.46971E+04
  2.08166E+03 -5.09332E+03 -1.35830E+03  4.54026E+03 -1.17128E+04  5.60088E+03 -1.23549E+04 -4.79215E+03
 -7.38445E+03 -1.52392E+04  3.68618E+03 -1.70198E+04  1.22040E+04 -1.30660E+04  1.37167E+04 -8.79202E+02
  7.87644E+03  1.05429E+04 -6.95739E+02  1.50828E+04 -9.28016E+03  7.93319E+03 -1.45236E+04 -2.40385E+03
 -1.01645E+04 -1.38564E+04 -8.32658E+02 -1.80290E+04  7.76646E+03 -1.53191E+04  1.45681E+04 -5.51534E+03
  1.38584E+04  1.20666E+03  8.76775E+03  3.70675E+03  3.36767E+03  1.22319E+03  7.65966E+03 -1.92371E+03
  1.36725E+04  2.35584E+03  1.37802E+04  1.13586E+04  6.62002E+03  2.23490E+04 -2.67806E+03  2.38910E+04
 -1.45824E+04  1.90370E+04 -2.18439E+04  7.17589E+03 -2.31805E+04 -1.38714E+03 -1.95575E+04 -1.21704E+04
 -8.93657E+03 -1.75990E+04  5.99316E+03 -1.75663E+04  1.43074E+04 -8.92498E+03  1.38018E+04  2.41554E+03
  6.12644E+03  1.00507E+04 -7.41122E+03  1.07404E+04 -1.23150E+04  3.08209E+03 -9.88288E+03 -6.90143E+03
 -1.03220E+03 -1.14693E+04  6.21321E+03 -8.86951E+03  6.63551E+03 -2.05848E+03  6.70731E+02  5.30699E+03
 -5.50277E+03  9.33967E+02 -2.51080E+03 -3.70574E+03  1.85075E+03 -9.00343E+03  7.29833E+03 -8.50034E+03
  1.13040E+04 -4.37430E+03  1.06155E+04  2.77193E+03  9.17619E+03  7.59511E+03  4.22977E+03  1.24274E+04
 -1.15554E+03  1.48961E+04 -8.03482E+03  8.44878E+03 -1.04109E+04  2.31004E+03 -7.82128E+03 -1.25055E+03
 -4.17586E+03 -2.60640E+03 -1.08724E+03  2.27758E+03 -1.59632E+03  1.77596E+03 -3.25887E+03  4.33330E+03
 -7.04253E+03 -9.61241E+02 -8.38261E+03 -6.77233E+03 -1.89369E+03 -1.10472E+04  2.92474E+03 -8.65365E+03
  6.05590E+03 -4.31847E+03  5.25801E+03  2.44959E+03 -2.50365E+02  2.41761E+03 -3.26460E+03  3.78747E+02
 -2.73308E+03 -4.24253E+03 -1.23198E+03 -6.55967E+03  1.92291E+03 -6.37940E+03  8.71025E+03 -3.70381E+03
  9.72748E+03 -4.48447E+02  8.54414E+03  4.92236E+03  4.96587E+02  7.87840E+03 -4.54003E+03  7.37217E+03
 -6.87011E+03  3.82680E+03 -4.19349E+03 -1.40434E+03  1.19654E+03 -4.99231E+02  5.09615E+03 -1.62571E+03
  3.84828E+03  3.71709E+03  1.61128E+03  4.82229E+03 -3.89039E+03  5.25237E+03 -7.17664E+03  1.59014E+03
 -4.77947E+03 -2.63247E+03  3.91699E+02 -7.20325E+03  2.56931E+03 -3.78592E+03  2.56196E+03  1.93615E+02
  3.91883E+02  2.90931E+03 -4.09451E+03  4.37908E+03 -3.67900E+03  1.75328E+03 -3.21011E+03  5.46223E+01
 -2.93236E+03 -4.71522E+03  2.39657E+03 -6.47571E+03  4.46922E+03 -4.10423E+03  5.10901E+03  4.85683E+02
  4.01693E+03  4.51022E+03  6.34003E+02  6.26809E+03 -3.97930E+03  4.26597E+03 -3.98342E+03 -1.96838E+02
 -6.29301E+03 -4.40243E+03 -1.27587E+03 -4.47060E+03  3.01954E+03 -3.50840E+03  2.56560E+03 -3.35767E+03
  3.28789E+03 -1.23574E+03  1.95834E+02  8.29391E+02  1.14141E+03 -4.31871E+02  4.52162E+02 -1.15647E+03
  2.97812E+03 -1.02357E+03  4.66121E+03 -2.68769E+02  4.09186E+03  1.83220E+03  4.90004E+03  5.75293E+03
 -6.27485E+02  6.34800E+03 -6.22900E+03  5.27957E+03 -7.69110E+03  3.69128E+02 -6.42357E+03 -2.07968E+03
 -2.75581E+03 -4.97922E+03 -1.42619E+03 -4.73134E+03  2.79491E+03 -9.73972E+02  1.14473E+03 -1.84433E+03
  4.07412E+02 -1.77450E+03  2.06915E+03 -2.98192E+03  3.75167E+03 -1.76109E+03  3.88077E+03  9.05087E+02
  4.21280E+03  1.42223E+03  1.81254E+02  2.60377E+03 -1.10965E+03  1.21812E+03 -3.43706E+03  1.91184E+03
 -4.27861E+03 -1.12642E+03  3.17148E+02 -1.52849E+03  1.43381E+03 -3.96480E+03  1.92907E+03 -4.34786E+03
  3.05684E+03 -3.39050E+03  5.12194E+03  3.42486E+02  4.22554E+03  2.32171E+03  6.54276E+02  5.47131E+03
 -1.95757E+03  4.54279E+03 -2.98331E+03  7.27001E+02 -1.36999E+03 -9.81861E+02 -7.80048E+02 -1.36705E+03
 -1.03403E+03  5.84741E+02 -9.19010E+02  1.46819E+03 -1.88192E+03  6.61574E+02 -4.52952E+03  6.18249E+01
 -1.03463E+03 -4.26078E+03  8.12444E+02 -2.57167E+03  2.54171E+03 -2.82436E+03  2.52430E+03 -1.12259E+03
  3.10196E+03  1.75855E+03  1.29676E+03  1.65126E+03 -7.95567E+02  3.62788E+03 -1.56677E+03  1.96391E+03
 -3.03291E+03  1.91961E+03 -2.46221E+03 -1.27511E+03 -7.14378E+02 -1.41340E+03  1.35787E+03 -1.36857E+03
  1.66842E+03 -7.50865E+02  1.41682E+03 -3.22961E+02  9.54696E+02  1.27391E+03  1.05366E+03 -1.15722E+02
  2.26376E+03  9.06319E+02  1.55534E+03  1.22202E+03  1.45652E+03  1.95743E+03  1.09922E+03  1.37390E+03
 -1.39279E+02  1.83220E+03 -1.79673E+03  3.21702E+03 -2.76459E+03  1.30816E+03 -3.60813E+03  4.26686E+01
 -1.27072E+03 -2.94682E+03  1.06684E+03 -2.32557E+03  1.53338E+03 -6.92870E+02  7.93284E+02 -1.31955E+03
  2.40460E+03  3.98469E+02 -1.26527E+02  2.23363E+03 -1.45400E+03  8.39120E+02 -7.57981E+02 -4.45992E+02
 -2.72785E+02 -1.21228E+03  9.32205E+02 -1.01852E+03  1.64440E+03 -1.04319E+03  6.06783E+02  6.08760E+02
  1.25178E+03 -8.19077E+02  4.47178E+02 -5.74046E+02  6.83810E+01  8.18040E+02  1.03876E+03 -1.16941E+02
 -6.81663E+02 -3.81816E+02  2.44344E+03 -4.17312E+01 -2.97108E+02  1.93212E+03  4.50672E+02  2.73250E+03
 -2.00914E+03  3.04700E+02 -1.51469E+03  1.36840E+02 -2.03008E+03  3.36265E+02  1.10084E+03  4.37790E+02
  1.82913E+02 -1.43617E+02  1.20397E+03 -1.18814E+03  3.33798E+02  5.03696E+02 -9.26704E+02  1.25514E+03
 -1.24548E+03  1.48340E+03 -1.36929E+03 -1.36687E+03 -8.22598E+02 -2.23860E+03 -6.35815E+02 -8.03980E+02
  3.75774E+02 -2.64347E+02  2.98432E+02  7.45919E+02  1.14510E+03 -1.12112E+03 -5.45067E+02  9.35205E+02
  1.41311E+02  4.47008E+02 -1.48482E+03 -1.18975E+02  7.28704E+02 -8.20110E+02  1.73921E+03  2.67578E+02
  8.65151E+02 -8.64324E+02  2.82859E+03  5.13465E+02  1.37758E+03  8.03073E+02 -3.98247E+02  9.76189E+02
 -1.54186E+03  1.92500E+02 -2.01938E+03  2.35410E+02 -4.43747E+02 -1.96415E+03  3.21087E+02  5.56377E+02
  2.29268E+03 -1.15022E+03  1.08921E+03  1.71158E+03 -1.09977E+02  5.30609E+02  1.77605E+02  1.19949E+03
  9.28166E+01  7.23615E+02 -5.31383E+00 -1.13028E+03 -9.70584E+01 -6.08240E+02 -1.48509E+03  4.71730E+02
 -7.29659E+02  4.80246E+02 -1.78199E+03  8.67288E+02 -1.24546E+03  3.09378E+02 -2.01715E+03 -9.87451E+02
 -1.67425E+03 -1.36043E+03 -6.59894E+01 -2.63035E+03  6.86829E+02 -1.51905E+03  2.30462E+03 -6.20189E+00
  1.85026E+03 -1.01147E+01  1.17992E+02  1.35229E+03 -6.13988E+00  8.10776E+02 -7.82138E+02  5.97831E+02
 -1.19354E+02  8.50713E+02 -2.97612E+02 -9.09652E+02  3.28859E+02  6.18521E+02 -9.36315E+02 -3.25651E+02
 -6.15565E+02 -2.72889E+02 -2.07060E+02 -5.32848E+02  4.25006E+02 -1.01294E+03 -6.40242E+02 -7.27834E+02
  1.17217E+03 -7.37141E+02 -3.93486E+02  1.32627E+03  6.44930E+01  9.36474E+02 -5.13291E+02  9.76386E+02
 -2.19407E+03  1.85974E+03 -5.01728E+02 -7.51817E+00  9.72001E+01  1.48568E+02 -5.12301E+02 -2.84392E+02
  2.83234E+01 -2.03233E+02 -1.05470E+03  2.21128E+02  8.15010E+02 -1.00523E+03 -7.32469E+02 -7.09647E+01
  5.43011E+02 -1.09397E+03  4.46302E-01 -6.14139E+02 -3.10927E+02  6.73941E+02  7.21307E+02 -7.16552E+02
  2.68110E+02  3.37623E+02  1.86742E+02  9.45404E+02 -1.22592E+02  4.03819E+02  5.04917E+02 -2.21451E+02
 -7.23386E+02  6.67324E+02 -1.00714E+03  6.38749E+02 -9.55195E+02 -4.88369E+02  5.83816E+02 -1.99202E+02
  5.39243E+02 -7.25637E+02  9.98229E+01  4.38112E+01 -4.03929E+02  1.07756E+01  5.49938E+02  9.06011E+01
  2.93589E+02  7.89039E+02 -1.27319E+02  1.02664E+02 -8.61776E+01  1.17964E+03 -2.60124E+02  1.58495E+02
 -1.83110E+02 -6.22666E+02 -8.15297E+02  1.40993E+01 -2.97186E+02 -1.07773E+02  6.23320E+02 -4.84895E+02
 -1.70896E+03  2.00133E+02 -1.10084E+02 -1.32075E+03  8.90947E+02 -1.43741E+03  9.39540E+02 -7.60711E+02
  1.24487E+03  5.28200E+02 -5.83519E+02  5.14843E+02  3.79319E+02  5.99397E+02  3.51692E+02 -3.06198E+02
