 $NMID ID='MM_0lb_SNR200_10hz_g55_79.RAW', FMTDAT='(8E13.5)'
 TRAMP=1., VOLUME=1. $END
  3.09534E+05  9.75206E+02  3.38652E+05  2.50985E+05  8.49209E+04  3.39227E+05 -1.33811E+05  2.52256E+05
 -1.91226E+05  8.37919E+04 -1.13488E+05 -3.28448E+04  7.49113E+02 -5.17181E+04  5.22427E+04 -9.44845E+02
  3.53974E+04  5.30114E+04 -1.56887E+04  7.56621E+04 -6.10766E+04  6.38574E+04 -8.38104E+04  3.28337E+04
 -8.32341E+04 -1.18450E+04 -5.60181E+04 -5.24310E+04 -1.42201E+04 -7.16832E+04  2.88515E+04 -4.65153E+04
  4.22211E+04  4.04187E+03  1.51005E+04  4.79336E+04 -3.53875E+04  4.74543E+04 -6.85646E+04  6.24436E+02
 -5.36647E+04 -5.75655E+04 -6.63073E+03 -7.99160E+04  3.35468E+04 -5.73281E+04  4.98017E+04 -1.68015E+04
  4.43979E+04  1.09902E+04  3.30243E+04  2.56368E+04  1.66311E+04  3.05591E+04 -4.41002E+03  2.81198E+04
 -2.12315E+04  1.22273E+04 -1.62607E+04 -5.91456E+03  7.08876E+03 -7.42344E+03  2.36205E+04  1.38159E+04
  7.52174E+03  3.80421E+04 -3.39314E+04  3.76035E+04 -6.55016E+04  2.76079E+03 -5.96995E+04 -4.46180E+04
 -1.25856E+04 -6.60435E+04  4.19288E+04 -4.62820E+04  5.99324E+04 -2.82718E+03  3.70881E+04  3.32536E+04
 -5.57594E+03  3.88326E+04 -3.27360E+04  1.89803E+04 -3.47715E+04 -3.56945E+03 -1.89815E+04 -1.26503E+04
 -9.18953E+03 -1.39359E+04 -1.80972E+02 -2.09311E+04  7.32878E+03 -2.48207E+04  1.50487E+04 -1.35101E+04
  1.12345E+04  7.34934E+03 -9.57242E+03  1.19091E+04 -2.41086E+04 -6.86098E+03 -8.38884E+03 -3.74782E+04
  2.54114E+04 -4.77953E+04  5.18534E+04 -2.10417E+04  4.90047E+04  2.12824E+04  1.65765E+04  4.65887E+04
 -1.48668E+04  3.58157E+04 -2.78517E+04  2.59167E+03 -1.10706E+04 -2.96930E+04  2.35450E+04 -3.66519E+04
  4.55037E+04 -1.00277E+04  3.97119E+04  2.51568E+04  2.20852E+04  5.04567E+04 -1.04771E+04  5.45716E+04
 -3.53169E+04  3.81383E+04 -4.64148E+04  1.15062E+04 -4.76387E+04 -1.91366E+04 -2.59112E+04 -4.17386E+04
  5.79449E+03 -4.20717E+04  3.37370E+04 -1.78830E+04  3.13394E+04  1.30805E+04  6.62798E+03  1.96491E+04
 -1.21425E+04  1.04095E+04 -1.02408E+04 -7.50680E+03  6.26720E+03 -1.15562E+04  1.76883E+04  5.45921E+03
  1.64437E+04  2.18520E+04 -5.14475E+03  2.62930E+04 -2.23988E+04  1.42615E+04 -3.22705E+04 -2.09224E+03
 -2.61437E+04 -1.81996E+04 -1.07755E+04 -2.33427E+04  5.15401E+03 -2.60038E+04  1.84741E+04 -2.22204E+04
  3.09368E+04 -1.48563E+04  3.74525E+04  5.99636E+03  2.62923E+04  2.48020E+04  4.57199E+03  4.06734E+04
 -1.78709E+04  3.39689E+04 -3.13914E+04  1.31104E+04 -2.28938E+04 -1.04870E+04 -4.86569E+03 -1.32522E+04
  2.25840E+03 -1.99635E+03 -6.34926E+03  8.70873E+03 -2.04693E+04  3.81810E+03 -2.00695E+04 -8.38981E+03
 -1.23195E+04 -2.34791E+04  5.65911E+03 -2.85680E+04  1.94969E+04 -1.99295E+04  2.23885E+04 -2.73534E+03
  1.51112E+04  1.50554E+04 -6.82800E+02  2.08015E+04 -1.46659E+04  1.39405E+04 -2.43798E+04 -4.97756E+03
 -1.62912E+04 -2.19217E+04 -1.49411E+03 -2.78730E+04  1.13567E+04 -2.20449E+04  2.22009E+04 -1.24038E+04
  2.19929E+04 -2.07830E+02  1.36878E+04  5.31086E+03  1.06971E+04  1.63680E+03  1.11109E+04 -2.99319E+03
  2.13375E+04  2.30279E+03  2.36303E+04  1.82110E+04  1.74894E+04  3.83515E+04 -2.18421E+03  4.21738E+04
 -2.53109E+04  3.59256E+04 -4.01977E+04  1.78624E+04 -4.38026E+04 -2.52705E+03 -3.48471E+04 -2.54478E+04
 -1.57170E+04 -3.59730E+04  1.28921E+04 -3.19572E+04  2.68524E+04 -1.48064E+04  2.51012E+04  6.88327E+03
  8.80718E+03  1.76965E+04 -1.07622E+04  1.52428E+04 -2.02929E+04  1.25833E+03 -1.41381E+04 -1.27022E+04
 -3.95846E+02 -2.05192E+04  1.14404E+04 -1.34182E+04  1.12138E+04 -6.47243E+02  2.45701E+03  9.43318E+03
 -9.41117E+03  3.91275E+03 -8.84902E+03 -6.97541E+03 -2.75699E+03 -1.78127E+04  1.20362E+04 -1.89309E+04
  2.25245E+04 -1.23525E+04  2.55830E+04  2.82197E+03  2.22263E+04  1.90075E+04  9.96047E+03  2.76244E+04
 -6.01379E+03  3.00260E+04 -1.95215E+04  1.84067E+04 -2.00900E+04  2.43145E+03 -1.39233E+04 -5.90279E+03
 -6.30397E+03 -7.55230E+03 -1.44518E+03  1.36612E+03 -3.09100E+03  4.12924E+03 -7.01829E+03  5.80142E+03
 -1.44630E+04 -1.04861E+03 -1.32257E+04 -1.04532E+04 -6.39512E+03 -1.92868E+04  5.38597E+03 -1.60946E+04
  1.27797E+04 -6.45392E+03  9.24366E+03  3.81300E+03  1.88474E+02  5.99553E+03 -7.19480E+03  6.07091E+02
 -7.89576E+03 -1.02508E+04 -1.23949E+03 -1.32560E+04  8.39692E+03 -1.64707E+04  2.07684E+04 -7.86187E+03
  2.18178E+04  2.12281E+03  1.68802E+04  1.48881E+04  3.72029E+03  1.83415E+04 -9.35313E+03  1.38287E+04
 -1.25757E+04  4.12403E+03 -6.74994E+03 -3.35684E+03  2.09789E+03 -5.40514E+03  7.01222E+03 -1.45718E+03
  6.06863E+03  4.57676E+03  2.25801E+03  1.30280E+04 -9.07204E+03  1.18030E+04 -1.37300E+04  1.35483E+03
 -9.60548E+03 -7.01493E+03 -4.18750E+02 -1.35470E+04  1.02403E+04 -6.13844E+03  9.56406E+03  3.64696E+03
  1.94321E+03  8.51667E+03 -8.06793E+03  1.19031E+04 -1.49049E+04  5.03236E+03 -1.29433E+04 -3.85125E+03
 -6.67765E+03 -1.46811E+04  3.39040E+03 -1.72543E+04  1.38935E+04 -8.91074E+03  1.56931E+04  2.13112E+03
  9.91623E+03  1.62561E+04 -1.09637E+03  1.72082E+04 -1.15622E+04  8.25471E+03 -1.17694E+04 -1.24632E+03
 -1.05676E+04 -9.53512E+03 -1.75782E+03 -1.23164E+04  5.40037E+03 -1.16141E+04  6.13114E+03 -2.80645E+03
  4.33812E+03  3.23813E+03 -1.17870E+03  9.47831E+02  1.40868E+03 -3.62401E+03  1.99808E+03 -5.60459E+03
  1.06292E+04 -3.74731E+03  1.61550E+04  2.47262E+03  1.56056E+04  9.18082E+03  1.01271E+04  1.99378E+04
 -4.60992E+03  2.30922E+04 -1.90341E+04  1.66124E+04 -2.51400E+04  2.78942E+03 -2.09407E+04 -9.31240E+03
 -9.73105E+03 -1.66011E+04 -1.73307E+03 -1.36728E+04  5.10576E+03 -7.55987E+03  4.37769E+03 -5.78665E+03
  4.31362E+03 -2.02010E+03  3.02875E+03 -3.99914E+03  6.37648E+03 -4.86029E+03  7.09246E+03 -1.46341E+03
  1.11017E+04  1.44801E+03  5.96915E+03  9.45938E+03 -1.76606E+03  9.19504E+03 -9.88846E+03  8.46903E+03
 -1.35951E+04 -1.58174E+03 -7.69803E+03 -9.64321E+03 -2.30731E+03 -1.34422E+04  7.25961E+03 -1.60184E+04
  1.61758E+04 -9.14871E+03  1.77205E+04  1.48049E+03  1.31628E+04  1.35917E+04  1.67017E+03  1.51506E+04
 -6.42918E+03  1.35452E+04 -1.03054E+04  5.80151E+03 -6.49052E+03 -1.63569E+03 -3.06086E+03 -1.66522E+03
 -2.48238E+03  5.33110E+02 -1.58250E+03  3.70019E+03 -6.49443E+03  2.11319E+03 -9.36366E+03  1.02939E+02
 -7.66192E+03 -7.07732E+03 -1.32237E+03 -1.35643E+04  8.48816E+03 -1.22529E+04  1.33009E+04 -3.83383E+03
  1.34996E+04  4.89365E+03  5.69074E+03  1.11541E+04 -4.03903E+03  1.39769E+04 -9.46677E+03  8.72663E+03
 -1.26097E+04  2.73677E+02 -1.09320E+04 -8.89110E+03 -2.37445E+03 -1.26552E+04  6.60422E+03 -8.90132E+03
  7.80435E+03 -3.98933E+03  5.62404E+03  2.78877E+03  1.71727E+03  4.29304E+03  5.66166E+02  3.03849E+03
  3.96696E+03  9.22883E+02  3.79909E+03  1.72128E+03  4.49814E+03  5.01085E+03  3.07214E+03  6.48849E+03
 -2.04311E+03  1.15709E+04 -9.52507E+03  1.00518E+04 -1.29616E+04  2.37638E+03 -1.40606E+04 -4.41007E+03
 -6.68969E+03 -1.37625E+04  2.46727E+03 -1.50819E+04  9.40856E+03 -9.04481E+03  1.17981E+04 -3.09977E+03
  8.10256E+03  5.00482E+03  3.65861E+02  7.75696E+03 -4.32703E+03  5.87821E+03 -4.82039E+03 -2.96622E+03
 -3.68248E+03 -6.06888E+03  3.19485E+03 -7.35445E+03  5.44904E+03 -2.96666E+03  6.17566E+03  1.34526E+03
  5.17028E+03  2.10822E+03  1.02961E+03  2.68521E+03 -8.85773E+02  1.35790E+03  6.62383E+02  2.38729E+02
  2.62112E+03 -7.28275E+02  5.14117E+03  2.22882E+03  2.66083E+03  6.90876E+03  9.09726E+02  1.06722E+04
 -6.69998E+03  6.41660E+03 -8.04037E+03  2.09255E+03 -9.18710E+03 -3.15886E+03 -3.29088E+03 -5.18157E+03
  2.32967E+03 -3.86795E+03  4.83018E+03 -4.07292E+03  3.26115E+03  3.34091E+03 -1.84753E+03  4.76692E+03
 -6.64086E+03  2.41994E+03 -6.34708E+03 -3.23545E+03 -3.83366E+03 -7.83864E+03  2.51037E+02 -6.62072E+03
  4.59301E+03 -5.36911E+03  6.33696E+03 -1.88788E+03  6.02454E+03  1.37308E+03  4.82807E+02  3.79929E+03
 -2.90348E+03  1.53056E+03 -4.26687E+03 -3.57377E+03  4.19830E+02 -5.02843E+03  5.58624E+03 -5.42290E+03
  9.84779E+03  2.54295E+03  8.81022E+03  5.79471E+03  2.86910E+03  8.53487E+03 -4.05135E+03  8.97865E+03
 -7.05300E+03  3.76253E+03 -8.39530E+03 -1.33674E+03 -5.00477E+03 -7.09288E+03  1.25968E+02 -6.42293E+03
  7.35503E+03 -1.11999E+03  3.57600E+03  1.36480E+03  1.52117E+03  4.40327E+03  4.88832E+01  4.73319E+03
 -1.39155E+03  2.43843E+03 -2.28248E+03  8.55191E+02 -7.13820E+02  1.27024E+03  7.04892E+02  3.63359E+02
 -2.95644E+03  3.17183E+03 -6.25675E+03  1.00932E+03 -8.27372E+03 -1.33706E+02 -1.02400E+04 -5.46008E+03
 -6.49676E+03 -1.26551E+04  2.66906E+03 -1.42364E+04  8.66795E+03 -1.11425E+04  1.20875E+04 -4.98831E+03
  1.16897E+04  2.51841E+03  7.67193E+03  9.65154E+03  1.82358E+03  9.45964E+03 -3.44776E+03  7.29683E+03
 -4.33969E+03  3.02578E+03 -4.09438E+03 -2.20968E+03 -1.30232E+03 -7.65202E+02 -1.44808E+03  1.24595E+03
 -2.41936E+03  2.05523E+03 -2.09007E+03  5.98681E+02 -1.57902E+03 -2.03115E+03  5.31980E+02 -2.28606E+03
  4.58487E+03 -2.76618E+03  6.30240E+03  3.07156E+02  5.58980E+03  4.87555E+03  1.44148E+03  8.60015E+03
 -5.13168E+03  1.10407E+04 -9.22248E+03  6.47215E+03 -1.19284E+04  4.57270E+02 -8.54110E+03 -7.21562E+03
 -3.19541E+03 -8.00589E+03  3.13030E+03 -8.48222E+03  4.75989E+03 -5.31020E+03  5.93712E+03 -3.38397E+02
  2.23609E+03  1.60031E+03 -9.47965E+02  1.77555E+03 -1.14898E+03  1.14485E+03  1.61958E+03 -1.47113E+01
  2.54055E+03 -3.72198E+02  4.08003E+03  7.11666E+02  2.38741E+03  3.51037E+03  5.61716E+02  4.93658E+03
 -5.60756E+03  4.26056E+03 -5.41267E+03  6.84134E+02 -5.37249E+03 -4.07225E+03  1.00746E+03 -7.34789E+03
  3.78371E+03 -5.17397E+03  6.97429E+03 -1.98296E+03  7.16431E+03  1.58154E+03  3.34005E+03  5.97907E+03
  1.07117E+03  4.72242E+03 -2.08418E+03  4.30551E+03 -2.89665E+03  2.48432E+03 -4.00270E+03  7.65085E+02
 -1.20104E+03 -6.96446E+02 -4.15027E+02  2.66942E+03 -2.06346E+03  1.52736E+03 -4.40635E+03 -1.54033E+02
 -6.30529E+03 -3.44024E+03 -1.71895E+03 -6.39193E+03  2.18018E+03 -6.55656E+03  3.74739E+03 -4.47640E+03
  6.51831E+03  3.67155E+02  3.55075E+03  6.04738E+03  6.53585E+02  5.77082E+03 -4.66733E+03  4.00007E+03
