 $NMID ID='MM_0lb_SNR200_9hz_g60_33.RAW', FMTDAT='(8E13.5)'
 TRAMP=1., VOLUME=1. $END
  3.09387E+05 -1.39284E+03  3.39644E+05  2.50026E+05  8.63917E+04  3.37047E+05 -1.33369E+05  2.51687E+05
 -1.91656E+05  8.49653E+04 -1.13541E+05 -3.35209E+04  1.22097E+03 -5.07360E+04  5.46403E+04 -2.47806E+03
  3.39174E+04  5.29671E+04 -1.70508E+04  7.69994E+04 -6.03084E+04  6.49404E+04 -8.65232E+04  3.33391E+04
 -8.38991E+04 -1.12693E+04 -5.86448E+04 -5.21466E+04 -1.43412E+04 -7.08517E+04  2.80171E+04 -4.87521E+04
  4.12599E+04  5.30715E+03  1.71491E+04  4.78277E+04 -3.57870E+04  4.93178E+04 -6.64165E+04  1.28455E+02
 -5.36155E+04 -5.91181E+04 -8.09597E+03 -8.09597E+04  3.44098E+04 -5.72880E+04  5.03239E+04 -1.96017E+04
  4.52212E+04  1.27182E+04  3.33333E+04  2.86406E+04  1.42776E+04  2.98120E+04 -5.35414E+03  2.78301E+04
 -2.25179E+04  1.17790E+04 -1.76535E+04 -6.32796E+03  8.27704E+03 -8.09877E+03  2.23160E+04  1.36063E+04
  6.19867E+03  3.88409E+04 -3.49863E+04  3.65252E+04 -6.62812E+04  1.40348E+03 -5.80454E+04 -4.46225E+04
 -1.25308E+04 -6.85972E+04  4.37055E+04 -4.84533E+04  6.07561E+04 -3.68895E+03  3.71663E+04  3.50868E+04
 -5.59478E+03  4.01802E+04 -3.28431E+04  1.87418E+04 -3.56405E+04 -3.44458E+03 -1.98451E+04 -1.19356E+04
 -1.00798E+04 -1.52333E+04 -1.04817E+03 -2.13969E+04  8.59004E+03 -2.41130E+04  1.67476E+04 -1.33650E+04
  9.84409E+03  6.42553E+03 -1.20140E+04  1.12547E+04 -2.34246E+04 -7.32191E+03 -7.76627E+03 -3.87069E+04
  2.39450E+04 -4.76956E+04  5.60624E+04 -2.02181E+04  4.90941E+04  2.11957E+04  1.82998E+04  4.87589E+04
 -1.78446E+04  3.84612E+04 -2.83451E+04  2.00428E+03 -9.72711E+03 -2.94204E+04  2.31378E+04 -3.84704E+04
  4.54826E+04 -1.13357E+04  4.17454E+04  2.51970E+04  2.19243E+04  5.01659E+04 -9.05870E+03  5.79046E+04
 -3.70202E+04  3.89256E+04 -4.87724E+04  1.16470E+04 -4.99840E+04 -2.06848E+04 -2.62759E+04 -4.19695E+04
  7.44969E+03 -4.41998E+04  3.47568E+04 -1.83252E+04  3.19130E+04  9.98349E+03  6.78102E+03  2.21414E+04
 -1.31741E+04  1.03174E+04 -1.18998E+04 -7.01588E+03  5.57017E+03 -1.06625E+04  1.81959E+04  3.70233E+03
  1.61246E+04  2.27671E+04 -6.37161E+03  2.84271E+04 -2.37393E+04  1.56470E+04 -3.14414E+04 -1.21195E+03
 -2.60441E+04 -1.99443E+04 -1.35526E+04 -2.72744E+04  4.78731E+03 -2.80637E+04  2.04312E+04 -2.32545E+04
  3.43314E+04 -1.47400E+04  3.91156E+04  4.19779E+03  2.90328E+04  2.43027E+04  5.69622E+03  4.18679E+04
 -1.85675E+04  3.42331E+04 -3.09308E+04  1.19529E+04 -2.18369E+04 -1.11818E+04 -3.88510E+03 -1.34059E+04
  1.17544E+03  2.84725E+02 -8.28795E+03  7.46987E+03 -2.17630E+04  5.62902E+03 -2.17354E+04 -8.85244E+03
 -1.28022E+04 -2.61149E+04  6.03216E+03 -2.89674E+04  1.97837E+04 -2.09401E+04  2.37481E+04 -9.33725E+02
  1.61577E+04  1.63739E+04 -1.81433E+03  2.50117E+04 -1.68017E+04  1.31615E+04 -2.46465E+04 -4.63811E+03
 -1.60618E+04 -2.23212E+04 -2.31041E+03 -2.97995E+04  1.47297E+04 -2.36796E+04  2.46256E+04 -1.19381E+04
  2.20213E+04 -8.23195E+02  1.64993E+04  5.75000E+03  1.04120E+04  1.09715E+03  1.34742E+04 -1.88313E+03
  2.19714E+04  2.77550E+03  2.66579E+04  1.88003E+04  1.91388E+04  3.84704E+04 -1.98694E+03  4.65287E+04
 -2.54680E+04  3.92993E+04 -4.38361E+04  2.09672E+04 -4.77672E+04 -4.59567E+03 -3.79102E+04 -2.71745E+04
 -1.25244E+04 -3.89962E+04  1.56348E+04 -3.56933E+04  3.01934E+04 -1.72270E+04  2.43062E+04  7.65870E+03
  9.23358E+03  1.95107E+04 -1.28424E+04  1.57218E+04 -2.03023E+04  3.79237E+03 -1.52636E+04 -1.33654E+04
  1.02446E+03 -2.09856E+04  9.44051E+03 -1.54097E+04  1.34113E+04 -2.64572E+02  3.26372E+03  8.81243E+03
 -1.08013E+04  4.26426E+03 -9.07335E+03 -6.81834E+03 -6.66667E+02 -2.00609E+04  1.23019E+04 -2.13027E+04
  2.20088E+04 -1.19350E+04  2.80672E+04  2.30462E+03  2.37039E+04  1.93774E+04  1.31409E+04  3.07826E+04
 -4.32605E+03  3.25209E+04 -2.14458E+04  2.03036E+04 -2.31197E+04  3.13496E+03 -1.71412E+04 -6.82978E+03
 -6.76538E+03 -8.29079E+03 -1.04991E+03  6.28715E+02 -1.62393E+03  4.78092E+03 -7.67687E+03  4.62429E+03
 -1.45027E+04 -1.60244E+03 -1.53185E+04 -1.19488E+04 -7.59262E+03 -2.07278E+04  5.72873E+03 -1.69650E+04
  1.47743E+04 -7.43169E+03  9.40870E+03  5.82130E+03 -8.30286E+02  5.50064E+03 -1.08262E+04 -9.25607E+02
 -8.14719E+03 -1.08887E+04 -1.61708E+03 -1.57688E+04  1.03276E+04 -1.65387E+04  2.24822E+04 -8.98080E+03
  2.42366E+04  3.64132E+03  1.84191E+04  1.61917E+04  4.54386E+03  1.98751E+04 -9.19390E+03  1.69660E+04
 -1.15073E+04  4.67625E+03 -6.92637E+03 -3.94391E+03  2.26601E+03 -5.26033E+03  9.28301E+03  3.67650E+02
  7.59343E+03  5.85228E+03  1.07097E+03  1.31459E+04 -7.84973E+03  1.27725E+04 -1.80203E+04  2.23046E+03
 -1.11730E+04 -9.30392E+03  1.64875E+02 -1.33069E+04  9.44068E+03 -7.10823E+03  1.10590E+04  3.66604E+03
  2.74054E+03  1.17737E+04 -1.01269E+04  1.24074E+04 -1.49480E+04  6.61491E+03 -1.46023E+04 -5.68718E+03
 -8.86042E+03 -1.70675E+04  5.78442E+03 -1.95007E+04  1.75696E+04 -1.21009E+04  1.66084E+04  3.04073E+03
  1.08386E+04  1.45580E+04 -1.39451E+03  1.59893E+04 -1.33432E+04  9.96207E+03 -1.30316E+04  3.84112E+00
 -1.24469E+04 -9.91971E+03 -1.29400E+03 -1.15841E+04  5.96165E+03 -1.12390E+04  7.53487E+03 -2.83324E+03
  5.20475E+03  1.62318E+03 -3.87533E+02  2.87540E+03 -8.76598E+01 -4.03608E+03  2.97317E+03 -7.83164E+03
  1.16292E+04 -4.88933E+03  1.66682E+04  2.67059E+03  1.68490E+04  1.06208E+04  1.00255E+04  2.21155E+04
 -4.84762E+03  2.61791E+04 -2.19175E+04  1.86410E+04 -2.72629E+04  3.26316E+03 -2.05572E+04 -8.44052E+03
 -1.07984E+04 -1.74152E+04 -2.40162E+02 -1.50235E+04  5.29329E+03 -9.58466E+03  5.51344E+03 -5.08156E+03
  5.42286E+03 -4.31426E+03  5.37919E+03 -3.47409E+03  8.19754E+03 -5.08935E+03  7.43332E+03 -1.85471E+02
  1.32475E+04  3.27661E+03  6.58176E+03  9.70594E+03 -2.64315E+03  1.18836E+04 -1.11663E+04  7.79098E+03
 -1.63795E+04 -1.83733E+03 -8.53236E+03 -1.02662E+04 -1.92175E+03 -1.77421E+04  8.93609E+03 -1.65249E+04
  1.90437E+04 -6.93495E+03  2.36267E+04  5.27931E+03  1.39167E+04  1.42199E+04  2.86465E+03  1.88524E+04
 -6.16580E+03  1.51756E+04 -1.15091E+04  4.33191E+03 -8.12901E+03 -4.76826E+03 -2.25547E+03 -1.70480E+03
 -1.39721E+03 -7.79063E+02 -1.12399E+03  1.67473E+03 -5.62541E+03  2.91323E+03 -1.11136E+04 -2.02860E+03
 -8.90946E+03 -9.23551E+03 -1.24802E+03 -1.82970E+04  1.02205E+04 -1.49562E+04  1.58458E+04 -3.71209E+03
  1.42326E+04  7.60671E+03  6.65587E+03  1.26857E+04 -5.30030E+03  1.59616E+04 -1.24001E+04  1.02056E+04
 -1.47771E+04  8.93558E+01 -1.08032E+04 -1.01191E+04 -2.46029E+03 -1.40079E+04  7.61920E+03 -8.39673E+03
  1.07604E+04 -3.27655E+03  8.08277E+03  2.48551E+03  2.26359E+03  4.32542E+03 -1.02054E+02  2.07455E+03
  1.41828E+03  1.33774E+03  4.19296E+03  3.35472E+03  6.40096E+03  5.15517E+03  4.58483E+03  9.65422E+03
 -3.02635E+03  1.26073E+04 -1.31763E+04  1.18356E+04 -1.73603E+04  1.78823E+03 -1.57727E+04 -6.73752E+03
 -6.87898E+03 -1.78154E+04  1.75611E+03 -1.86082E+04  1.02561E+04 -1.21248E+04  1.36935E+04 -3.11822E+03
  8.89650E+03  6.11356E+03  3.41017E+03  9.24795E+03 -4.64650E+03  5.37958E+03 -7.24870E+03 -1.11898E+03
 -3.65252E+03 -7.46411E+03  5.13766E+03 -9.11369E+03  6.87422E+03 -4.16841E+03  5.21862E+03  2.38722E+03
  4.08577E+03  1.75814E+03  7.01192E+02  2.51936E+03  6.79985E+01  1.01083E+03 -1.78214E+01 -1.21951E+03
  1.24316E+03 -4.41762E+02  5.28983E+03  2.12890E+03  2.77490E+03  1.04339E+04 -2.35868E+03  1.20590E+04
 -7.43439E+03  7.75128E+03 -1.19021E+04  7.67655E+02 -1.09053E+04 -4.57788E+03 -4.24057E+03 -5.80146E+03
  9.90165E+02 -6.66364E+03  4.01766E+03 -3.28567E+03  2.40586E+03  2.28281E+03 -2.49060E+03  4.56218E+03
 -7.49055E+03  3.51416E+03 -7.41820E+03 -4.01176E+03 -3.92248E+03 -9.99786E+03  1.50481E+03 -9.62784E+03
  6.58113E+03 -5.19101E+03  7.24874E+03  1.62069E+02  5.76770E+03  4.17958E+03 -7.51510E+01  3.71031E+03
 -3.55815E+03  1.14016E+03 -3.63135E+03 -1.95481E+03  1.21105E+03 -8.56764E+03  7.26763E+03 -6.25007E+03
  1.20216E+04 -2.65969E+02  9.57941E+03  5.90672E+03  3.74781E+03  1.11811E+04 -2.67073E+03  1.04847E+04
 -7.70005E+03  3.67457E+03 -8.35220E+03 -1.27683E+03 -5.98415E+03 -7.25004E+03  2.64039E+03 -7.52708E+03
  5.08315E+03 -2.89738E+03  4.74279E+03  3.00789E+03  1.12554E+03  6.84179E+03 -2.35844E+03  4.68331E+03
 -2.99109E+03  4.60088E+03 -2.63923E+03  1.63656E+03 -1.24340E+03  6.01082E+02 -6.19748E+02  2.27971E+03
 -3.58982E+03  5.02559E+03 -6.29389E+03  3.70603E+03 -1.14874E+04 -3.81407E+01 -1.22416E+04 -7.95150E+03
 -6.20335E+03 -1.64421E+04  1.89192E+03 -1.68007E+04  1.05761E+04 -1.18032E+04  1.72974E+04 -3.82852E+03
  1.30794E+04  2.89885E+03  9.40322E+03  8.64030E+03  8.34642E+02  1.10699E+04 -4.11092E+03  9.10952E+03
 -6.21153E+03  2.36257E+03 -4.30484E+03 -2.89449E+03 -6.46744E+02 -1.17799E+03 -3.62472E+02 -6.45641E+02
 -1.09985E+02 -1.94711E+02 -1.95546E+03 -8.16364E+02 -2.20892E+03 -2.63338E+03  9.27101E+02 -4.52748E+03
  6.51293E+03 -3.90833E+03  8.31423E+03  1.57459E+03  7.75507E+03  5.49495E+03  2.64241E+03  1.00826E+04
 -5.01258E+03  1.15004E+04 -1.49218E+04  7.50799E+03 -1.35036E+04 -2.01656E+03 -1.13896E+04 -7.30832E+03
 -4.13369E+03 -1.10332E+04  1.90312E+03 -1.13474E+04  7.55016E+03 -5.30122E+03  6.17195E+03 -4.71503E+02
  4.17718E+03  4.60254E+03 -8.90447E+01  3.46971E+03 -7.69911E+02  2.04592E+02  2.50766E+01 -2.15876E+03
  3.60075E+03 -2.79787E+03  2.73835E+03  6.81136E+02  4.81864E+03  4.11011E+03 -4.13037E+02  5.82089E+03
 -4.91664E+03  7.01039E+03 -8.84137E+03  1.29908E+03 -8.24806E+03 -3.01516E+03 -1.89383E+03 -7.63873E+03
  5.91575E+03 -8.34948E+03  8.36815E+03 -1.99157E+03  7.69337E+03  1.56484E+03  6.20703E+03  6.69436E+03
  2.85461E+01  7.02856E+03 -1.69676E+03  6.95264E+03 -3.60622E+03  2.38008E+03 -4.18707E+03  7.19435E+02
 -1.70636E+03 -1.56160E+02  3.27435E+02  3.37428E+02 -4.46249E+03  6.22739E+02 -6.70308E+03 -2.66912E+03
 -5.07269E+03 -2.50442E+03 -2.29833E+03 -7.72583E+03  4.66000E+03 -9.13323E+03  7.10307E+03 -3.21675E+03
  6.84069E+03  1.75821E+03  4.59617E+03  4.70568E+03 -2.43210E+03  7.07965E+03 -5.98584E+03  6.03376E+03
