 $NMID ID='MM_0lb_SNR200_12hz_g45_54.RAW', FMTDAT='(8E13.5)'
 TRAMP=1., VOLUME=1. $END
  3.10299E+05 -1.76867E+03  3.36181E+05  2.51466E+05  8.45219E+04  3.39751E+05 -1.32336E+05  2.51719E+05
 -1.90130E+05  8.41777E+04 -1.11394E+05 -3.25306E+04  2.25406E+03 -5.03724E+04  5.48323E+04 -1.85837E+03
  3.50728E+04  5.30690E+04 -1.72089E+04  7.53361E+04 -6.18683E+04  6.47090E+04 -8.49447E+04  3.32613E+04
 -8.15428E+04 -1.20055E+04 -5.74781E+04 -5.18370E+04 -1.53124E+04 -7.06271E+04  2.75943E+04 -4.56414E+04
  4.11831E+04  3.92121E+03  1.55667E+04  4.70844E+04 -3.52852E+04  4.66413E+04 -6.62773E+04 -3.81419E+00
 -5.38055E+04 -5.78919E+04 -7.21881E+03 -7.83946E+04  3.32199E+04 -5.63427E+04  4.85140E+04 -1.66455E+04
  4.38549E+04  1.05861E+04  3.22667E+04  2.57973E+04  1.59246E+04  2.93125E+04 -5.99489E+03  2.71033E+04
 -2.18268E+04  1.24896E+04 -1.84643E+04 -5.58205E+03  7.24823E+03 -7.24255E+03  2.13817E+04  1.24916E+04
  6.02399E+03  3.61870E+04 -3.26246E+04  3.57354E+04 -6.45897E+04  2.96550E+03 -5.71061E+04 -4.33879E+04
 -1.22648E+04 -6.38741E+04  4.03361E+04 -4.63303E+04  5.88566E+04 -1.26723E+03  3.31532E+04  3.27497E+04
 -6.98086E+03  3.78794E+04 -2.91462E+04  1.71812E+04 -3.06618E+04 -5.35585E+03 -1.75871E+04 -1.09110E+04
 -9.25708E+03 -1.39835E+04  1.08059E+03 -1.89878E+04  6.86668E+03 -2.41869E+04  1.60387E+04 -1.31162E+04
  1.08135E+04  5.28971E+03 -8.86180E+03  1.38033E+04 -2.12912E+04 -3.66311E+03 -8.94680E+03 -3.50116E+04
  2.34037E+04 -4.48906E+04  4.92831E+04 -1.90041E+04  4.63816E+04  2.05528E+04  1.54454E+04  4.44700E+04
 -1.70368E+04  3.43019E+04 -2.51891E+04  1.05780E+03 -1.04743E+04 -2.95642E+04  2.07472E+04 -3.47688E+04
  4.19785E+04 -9.25664E+03  3.58467E+04  2.43061E+04  1.80242E+04  4.80356E+04 -7.87673E+03  5.07236E+04
 -3.21708E+04  3.61986E+04 -4.17479E+04  9.83909E+03 -4.45485E+04 -1.68335E+04 -2.36413E+04 -3.90451E+04
  7.70069E+03 -3.82463E+04  3.08238E+04 -1.45269E+04  2.87658E+04  1.00377E+04  3.54031E+03  1.94680E+04
 -1.39901E+04  9.11806E+03 -1.01889E+04 -8.77215E+03  5.97795E+03 -1.19154E+04  1.77413E+04  5.39037E+03
  1.32411E+04  2.28191E+04 -4.40219E+03  2.55959E+04 -2.25088E+04  1.12477E+04 -2.87482E+04 -4.68358E+03
 -2.24409E+04 -1.83383E+04 -9.58221E+03 -2.17047E+04  3.78260E+03 -2.22517E+04  1.78055E+04 -1.97664E+04
  2.85652E+04 -1.33532E+04  3.40774E+04  3.28225E+03  2.58481E+04  2.10975E+04  4.07089E+03  3.87753E+04
 -1.83274E+04  3.17773E+04 -2.88901E+04  1.10486E+04 -2.23245E+04 -1.08041E+04 -5.08443E+03 -1.38643E+04
  1.30824E+03 -1.44359E+03 -5.70911E+03  7.51567E+03 -1.65764E+04  4.38225E+03 -1.76354E+04 -8.31154E+03
 -1.04419E+04 -2.00424E+04  5.95879E+03 -2.45253E+04  1.54451E+04 -1.87522E+04  1.88209E+04 -1.42616E+03
  1.24260E+04  1.43320E+04 -1.13687E+03  2.13184E+04 -1.36982E+04  1.07819E+04 -2.12927E+04 -4.96962E+03
 -1.54008E+04 -1.89143E+04 -1.03543E+03 -2.42239E+04  1.08730E+04 -1.91286E+04  1.98657E+04 -9.35885E+03
  2.01367E+04 -4.64400E+02  1.36411E+04  5.60800E+03  6.76978E+03 -4.19227E+02  9.73732E+03 -1.73854E+03
  1.85001E+04  3.49411E+03  2.10851E+04  1.48568E+04  1.31743E+04  3.12559E+04 -3.37941E+03  3.65182E+04
 -2.23023E+04  3.12222E+04 -3.44417E+04  1.51860E+04 -3.69678E+04 -2.31544E+03 -2.88498E+04 -2.22974E+04
 -1.24237E+04 -3.14896E+04  1.00118E+04 -2.69227E+04  2.38845E+04 -1.28509E+04  2.04457E+04  5.07726E+03
  8.21330E+03  1.72435E+04 -1.02796E+04  1.42535E+04 -1.74958E+04  3.38744E+03 -1.40675E+04 -1.03474E+04
  4.71778E+02 -1.67264E+04  6.70607E+03 -1.24094E+04  1.10460E+04 -1.67249E+03  2.75559E+03  8.05694E+03
 -8.16700E+03  2.61201E+03 -5.60090E+03 -6.40191E+03 -1.98907E+03 -1.54765E+04  9.58572E+03 -1.52002E+04
  1.91028E+04 -1.02640E+04  1.99690E+04  2.71551E+03  1.79048E+04  1.40318E+04  7.85162E+03  2.30007E+04
 -2.82737E+03  2.54619E+04 -1.64761E+04  1.71957E+04 -1.76451E+04  3.68226E+03 -1.32548E+04 -3.91440E+03
 -5.93892E+03 -3.81583E+03 -1.03944E+03  1.77173E+03 -1.08835E+03  2.39494E+03 -6.55294E+03  4.79315E+03
 -1.13317E+04 -1.57242E+02 -1.11509E+04 -9.93544E+03 -5.46914E+03 -1.63476E+04  5.88224E+03 -1.31144E+04
  1.02298E+04 -5.44400E+03  7.69737E+03  3.24264E+03 -4.19422E+01  4.87827E+03 -6.28762E+03 -1.00130E+02
 -5.42291E+03 -7.48152E+03 -6.50295E+02 -1.30800E+04  4.59661E+03 -1.26623E+04  1.60274E+04 -6.86977E+03
  1.83809E+04  1.61791E+03  1.31829E+04  1.02756E+04  2.55591E+03  1.44494E+04 -7.72190E+03  1.34143E+04
 -1.06191E+04  3.20639E+03 -5.34764E+03 -8.52728E+02  2.70401E+03 -3.06166E+03  7.32057E+03 -2.53825E+03
  5.12292E+03  5.61495E+03  1.66832E+03  9.95777E+03 -8.42851E+03  1.11490E+04 -1.27747E+04  1.17704E+03
 -8.57686E+03 -7.08125E+03  8.61633E+02 -1.07690E+04  7.33452E+03 -4.84742E+03  7.86491E+03  1.45680E+03
  9.77535E+02  6.22824E+03 -5.92011E+03  9.52475E+03 -9.81637E+03  6.82196E+03 -1.01817E+04 -3.11885E+03
 -5.52224E+03 -1.05709E+04  2.70366E+03 -1.44079E+04  1.14529E+04 -8.53280E+03  1.27626E+04  1.50485E+03
  8.19661E+03  1.04877E+04 -2.08121E+03  1.41580E+04 -9.50088E+03  6.72377E+03 -1.04636E+04 -9.68489E+02
 -8.16794E+03 -8.62736E+03 -1.02481E+03 -9.82662E+03  5.27390E+03 -6.99400E+03  5.74729E+03 -2.65905E+03
  3.14772E+03  5.44477E+02  9.79028E+00  3.45802E+03  7.43516E+02 -2.90565E+03  2.26447E+01 -6.79099E+03
  7.75260E+03 -1.78415E+03  1.16181E+04  1.19827E+03  1.21436E+04  8.17459E+03  7.82408E+03  1.37207E+04
 -3.78160E+03  1.74082E+04 -1.46349E+04  1.13331E+04 -1.85644E+04  1.65666E+03 -1.57465E+04 -6.86344E+03
 -7.07207E+03 -1.10009E+04 -1.36056E+02 -1.08509E+04  4.28231E+03 -5.54945E+03  4.30713E+03 -2.93771E+03
  2.41447E+03 -2.15787E+03  4.69830E+03 -4.21817E+03  4.52395E+03 -3.09931E+03  6.41183E+03 -3.56085E+02
  7.86132E+03  2.57566E+03  3.28994E+03  7.08363E+03 -2.10806E+03  7.70371E+03 -7.28849E+03  6.11798E+03
 -9.91511E+03 -6.96648E+02 -5.63220E+03 -6.52969E+03 -7.77572E+02 -1.22732E+04  5.08473E+03 -1.20858E+04
  1.07853E+04 -5.59455E+03  1.44830E+04  1.86331E+03  9.04025E+03  9.54800E+03  2.34651E+03  1.12762E+04
 -6.09738E+03  1.06484E+04 -6.63566E+03  3.84202E+03 -3.68005E+03 -1.12924E+03 -2.31433E+03 -1.17928E+03
 -3.61454E+02  7.58192E+02 -1.81659E+03  3.24245E+03 -4.46496E+03  1.40714E+03 -8.70940E+03 -1.84558E+03
 -5.03049E+03 -6.53440E+03 -8.41766E+01 -1.01356E+04  5.52000E+03 -9.17018E+03  8.77493E+03 -2.86597E+03
  9.71687E+03  5.77840E+03  4.52091E+03  8.57424E+03 -1.85354E+03  9.69295E+03 -7.45089E+03  5.61005E+03
 -9.49351E+03  4.72579E+02 -6.25386E+03 -7.06518E+03 -8.38611E+02 -8.65151E+03  2.96544E+03 -5.77686E+03
  7.36761E+03 -2.56427E+03  4.15314E+03  1.06384E+03  1.27732E+03  2.01575E+03  4.40196E+02  9.71315E+02
  1.85747E+03  9.39808E+02  2.92436E+03  1.75872E+03  3.38190E+03  2.45594E+03  3.84593E+03  6.34450E+03
 -1.16849E+03  6.94028E+03 -6.32491E+03  8.77373E+03 -8.53683E+03  2.38727E+03 -9.75867E+03 -2.60539E+03
 -4.48962E+03 -9.93619E+03  1.00638E+03 -1.03519E+04  5.07494E+03 -7.78967E+03  7.98622E+03 -4.60742E+02
  5.91352E+03  2.75871E+03  1.44103E+03  5.66310E+03 -2.72643E+03  4.92303E+03 -3.09551E+03  9.63262E+01
 -5.88265E+02 -3.20806E+03  2.57041E+03 -3.39528E+03  3.70435E+03 -1.87810E+03  3.03174E+03  1.00002E+03
  9.27963E+02  1.02320E+03  1.58626E+03  2.06109E+03 -1.13558E+03  2.01116E+03  1.50126E+03 -8.92616E+02
  1.73266E+03 -1.44984E+03  4.13564E+03  1.04391E+03  3.20656E+03  5.90002E+03  8.03137E+01  7.00350E+03
 -4.33435E+03  3.01119E+03 -6.70039E+03  2.41456E+03 -5.05592E+03 -1.35030E+03 -9.09243E+02 -3.04519E+03
  8.29362E+02 -3.49400E+03  2.73276E+03 -2.42055E+03  1.49847E+03  1.16963E+03 -1.24978E+03  2.87206E+03
 -4.52975E+03  2.90820E+03 -4.63015E+03 -2.16520E+03 -2.73407E+03 -5.74952E+03  1.49739E+03 -4.80765E+03
  2.96794E+03 -2.31956E+03  3.31215E+03 -1.74070E+03  2.91644E+03  1.99642E+03  1.02201E+03  2.67484E+03
 -2.59714E+03  1.67647E+03 -1.38591E+03 -8.12890E+02  1.38856E+03 -3.49465E+03  4.45421E+03 -2.42830E+03
  7.06116E+03  3.51579E+02  7.14536E+03  3.49329E+03  3.01508E+03  5.42449E+03 -1.97565E+03  5.66128E+03
 -5.06822E+03  3.21299E+03 -4.99315E+03 -2.11585E+03 -2.19878E+03 -4.38991E+03  8.45715E+02 -3.67532E+03
  3.96565E+03 -2.10570E+03  2.95599E+03  2.55752E+03  1.07664E+03  3.05499E+03 -1.70532E+03  3.27573E+03
 -1.46885E+03  2.14986E+03 -9.42895E+02  1.50382E+02 -7.43439E+02 -1.25518E+03 -1.24193E+03  3.40025E+03
 -2.07997E+03  3.27990E+03 -5.02452E+03  2.66519E+03 -5.88662E+03  4.59525E+02 -6.84148E+03 -3.61737E+03
 -3.67975E+03 -6.87275E+03  3.65069E+02 -9.39052E+03  4.06371E+03 -6.29454E+03  9.57686E+03 -1.70995E+03
  8.31046E+03  8.27732E+02  4.23825E+03  6.78239E+03  8.89147E+02  6.32183E+03 -1.93602E+03  4.62574E+03
 -4.08441E+03  2.69589E+03 -8.03322E+02 -7.74485E+02  2.34644E+02 -6.38086E+02 -1.64444E+03  7.79422E+01
 -1.47918E+03 -1.38811E+03 -1.88481E+03  4.70048E+01  9.47388E+01 -1.69522E+02  1.40882E+03 -2.70095E+03
  2.58654E+03 -1.37113E+03  3.64253E+03  3.74206E+02  3.90012E+03  3.29496E+03  1.49197E+03  6.06633E+03
 -3.75758E+03  6.54964E+03 -5.77159E+03  4.62414E+03 -7.69139E+03 -2.96945E+02 -5.41536E+03 -5.16177E+03
 -2.01848E+03 -6.72123E+03  9.53239E+02 -5.29973E+03  3.14488E+03 -3.00298E+03  3.41223E+03 -4.93029E+02
  2.90130E+03  2.51902E+03  4.19061E+02  2.11280E+03 -1.35020E+03  4.10338E+02  3.94008E+02 -2.33945E+03
  1.59057E+03 -1.35722E+03  2.17837E+03  4.80814E+02  1.46440E+03  1.47992E+03  7.79659E+02  1.85280E+03
 -2.58581E+03  2.16385E+03 -2.43576E+03  1.51725E+03 -3.17889E+03 -3.38060E+03 -1.09183E+03 -3.55092E+03
  2.44049E+03 -4.55479E+03  3.14894E+03  1.13564E+02  4.63251E+03  2.44533E+03  2.84548E+03  2.97103E+03
  6.93205E+02  3.55027E+03 -1.96305E+03  3.22218E+03 -2.35091E+03  3.17399E+03 -2.44004E+03 -8.70743E+02
 -2.18392E+03 -2.78030E+02 -6.56585E+02 -9.57919E+02 -2.54013E+03  5.49148E+02 -2.85035E+03 -1.95620E+03
 -2.35774E+03 -1.67204E+03 -1.22465E+03 -4.90762E+03  5.34409E+02 -3.59064E+03  4.11035E+03 -1.77998E+03
  3.61904E+03  1.15203E+03  1.80357E+03  3.40197E+03 -8.51887E+02  3.29100E+03 -4.50901E+03  2.57692E+03
