 $NMID ID='MM_0lb_SNR200_20hz_g60_14.RAW', FMTDAT='(8E13.5)'
 TRAMP=1., VOLUME=1. $END
  3.09278E+05  3.38351E+02  3.37523E+05  2.50693E+05  8.42113E+04  3.37100E+05 -1.33469E+05  2.51881E+05
 -1.89910E+05  8.20205E+04 -1.10876E+05 -3.20051E+04  9.98653E+02 -5.00049E+04  5.36435E+04 -4.99918E+02
  3.46896E+04  5.27345E+04 -1.72751E+04  7.53267E+04 -6.01511E+04  6.25877E+04 -8.25151E+04  3.22937E+04
 -7.99161E+04 -1.08609E+04 -5.69371E+04 -4.99567E+04 -1.37374E+04 -6.90111E+04  2.71688E+04 -4.59010E+04
  3.82005E+04  4.96484E+03  1.53313E+04  4.69283E+04 -3.55639E+04  4.72931E+04 -6.66323E+04 -9.01331E+02
 -5.26834E+04 -5.59031E+04 -6.98977E+03 -7.52843E+04  3.48567E+04 -5.30776E+04  4.59466E+04 -1.65097E+04
  4.18321E+04  1.10221E+04  3.11064E+04  2.50762E+04  1.48823E+04  2.82926E+04 -4.38165E+03  2.78143E+04
 -2.20612E+04  1.33399E+04 -1.80513E+04 -4.58306E+03  4.87183E+03 -7.81304E+03  2.15412E+04  1.15807E+04
  6.60300E+03  3.46655E+04 -3.05878E+04  3.53862E+04 -6.15216E+04  1.78504E+03 -5.50080E+04 -4.10923E+04
 -1.28027E+04 -6.14280E+04  3.88119E+04 -4.40509E+04  5.66083E+04 -1.70756E+03  3.36001E+04  3.16229E+04
 -5.73194E+03  3.36033E+04 -2.87483E+04  1.38917E+04 -2.84998E+04 -5.15585E+03 -1.48531E+04 -1.05564E+04
 -8.11630E+03 -1.24544E+04 -7.41496E+02 -1.62182E+04  6.35083E+03 -2.35432E+04  1.41286E+04 -1.34797E+04
  1.14181E+04  4.42194E+03 -6.01636E+03  1.35938E+04 -1.96975E+04 -3.33251E+03 -7.78048E+03 -3.15943E+04
  2.07853E+04 -4.09689E+04  4.69251E+04 -1.94230E+04  4.26053E+04  1.87732E+04  1.44356E+04  4.27174E+04
 -1.50176E+04  3.11812E+04 -2.31255E+04  1.27831E+03 -7.35849E+03 -2.63604E+04  2.09281E+04 -3.25209E+04
  3.89889E+04 -8.59652E+03  3.16493E+04  2.20623E+04  1.63651E+04  4.42568E+04 -8.17130E+03  4.73744E+04
 -2.87170E+04  3.10136E+04 -3.88633E+04  8.04135E+03 -3.97886E+04 -1.53696E+04 -2.16438E+04 -3.51861E+04
  8.30663E+03 -3.49819E+04  3.00783E+04 -1.27224E+04  2.71499E+04  1.03154E+04  2.71518E+03  1.74487E+04
 -1.41970E+04  7.73299E+03 -9.57417E+03 -7.55860E+03  4.98679E+03 -1.06616E+04  1.69308E+04  5.67517E+03
  1.22567E+04  2.22527E+04 -7.05844E+03  2.42811E+04 -2.19971E+04  9.97785E+03 -2.53079E+04 -6.71300E+03
 -1.76861E+04 -1.61869E+04 -6.26112E+03 -1.81982E+04  4.50713E+03 -1.59078E+04  1.32780E+04 -1.39194E+04
  2.23993E+04 -1.12060E+04  2.94845E+04  2.01619E+03  2.18625E+04  1.61366E+04  3.64383E+03  3.26953E+04
 -1.69022E+04  2.78201E+04 -2.66574E+04  9.04858E+03 -1.87664E+04 -1.03825E+04 -4.21649E+03 -1.42870E+04
  2.02455E+03 -3.73001E+03 -2.35807E+03  5.05589E+03 -1.30504E+04  5.43106E+03 -1.28939E+04 -5.27038E+03
 -9.07527E+03 -1.53790E+04  4.90282E+03 -2.06240E+04  1.40730E+04 -1.35355E+04  1.56418E+04 -1.79170E+03
  9.46826E+03  1.07936E+04  7.99084E+01  1.55669E+04 -1.10648E+04  8.59424E+03 -1.65934E+04 -3.18569E+03
 -1.08613E+04 -1.53242E+04 -9.45603E+02 -1.97967E+04  8.77300E+03 -1.53097E+04  1.65641E+04 -7.85644E+03
  1.49237E+04  7.53175E+02  1.09144E+04  3.36435E+03  5.35186E+03  1.03456E+03  7.72932E+03 -1.48643E+03
  1.35710E+04  3.16655E+03  1.46233E+04  1.29228E+04  8.77401E+03  2.47052E+04 -3.08847E+03  2.75180E+04
 -1.54432E+04  2.05857E+04 -2.45205E+04  9.73219E+03 -2.51137E+04 -2.24095E+03 -2.24699E+04 -1.54984E+04
 -1.00197E+04 -2.02557E+04  6.43233E+03 -1.91072E+04  1.67529E+04 -1.12751E+04  1.59395E+04  3.97831E+03
  6.90382E+03  1.18055E+04 -7.90573E+03  1.04733E+04 -1.30506E+04  2.26019E+03 -1.02970E+04 -8.54465E+03
  2.55231E+02 -1.22575E+04  5.14782E+03 -9.17439E+03  7.06525E+03 -1.03401E+03  4.57435E+01  5.87125E+03
 -5.46689E+03  1.55501E+03 -3.07676E+03 -4.56094E+03 -3.51078E+02 -1.04885E+04  8.37746E+03 -1.05758E+04
  1.17547E+04 -4.77973E+03  1.24143E+04  2.72286E+03  1.04941E+04  8.78091E+03  5.03734E+03  1.43306E+04
 -1.81354E+03  1.62836E+04 -9.13159E+03  9.57305E+03 -1.09947E+04  2.52394E+03 -9.60271E+03 -2.43683E+03
 -4.66125E+03 -3.61313E+03 -1.11645E+03  3.02686E+03 -1.54818E+03  2.15572E+03 -3.05922E+03  3.75851E+03
 -8.59451E+03 -9.90022E+02 -8.59095E+03 -7.70196E+03 -3.36811E+03 -1.15940E+04  2.55771E+03 -8.52104E+03
  7.05110E+03 -3.63903E+03  5.38184E+03  2.20389E+03  6.48792E+02  2.37828E+03 -3.45657E+03  2.94927E+02
 -3.60972E+03 -5.47272E+03 -4.19744E+02 -7.00517E+03  4.21706E+03 -7.67294E+03  9.66950E+03 -3.98070E+03
  1.13672E+04  2.51420E+02  7.84992E+03  6.62538E+03  1.66355E+03  8.12537E+03 -5.56950E+03  8.90539E+03
 -6.37752E+03  2.03392E+03 -4.35069E+03 -1.21427E+03  1.51995E+03 -1.84607E+03  3.59929E+03 -1.93834E+03
  2.80158E+03  3.13958E+03  1.00600E+03  5.89843E+03 -3.79692E+03  5.80415E+03 -8.46452E+03  1.70003E+03
 -5.48132E+03 -3.63606E+03  8.79440E+01 -6.28093E+03  4.10671E+03 -2.54842E+03  3.18923E+03  1.51137E+03
  8.01056E+02  3.07816E+03 -3.57562E+03  5.37215E+03 -4.12308E+03  2.93900E+03 -4.48478E+03 -4.75014E+02
 -3.03755E+03 -5.65838E+03  1.50060E+03 -5.86539E+03  5.07945E+03 -5.32790E+03  5.20318E+03  3.48814E+02
  3.76565E+03  4.85637E+03  5.90488E+02  6.06760E+03 -4.33536E+03  2.54550E+03 -5.04822E+03 -5.29225E+02
 -5.77025E+03 -4.81923E+03 -7.99439E+02 -5.31427E+03  1.03394E+03 -4.31569E+03  3.53045E+03 -3.48326E+03
  2.29616E+03  3.03456E+02 -4.00360E+02  1.93151E+03  1.13325E+03 -8.63779E+01  8.12071E+02 -1.69591E+03
  2.67457E+03  1.49976E+02  4.30568E+03  1.30492E+03  4.60578E+03  1.85650E+03  4.94315E+03  6.38750E+03
 -1.80523E+02  7.38352E+03 -6.68015E+03  5.84852E+03 -8.07143E+03  1.24650E+03 -7.42826E+03 -1.84041E+03
 -3.91783E+03 -5.71115E+03  3.09350E+02 -4.46042E+03  1.25709E+03 -1.93815E+03  6.43786E+02 -1.86921E+03
  7.59412E+02 -1.56941E+03  1.79959E+03 -2.40133E+03  3.30735E+03 -7.29973E+02  3.13588E+03  6.84953E+02
  3.45922E+03  6.33692E+01  6.11307E+02  1.83698E+03 -1.72209E+03  1.84952E+03 -5.47615E+03  2.60016E+03
 -4.40136E+03 -1.16926E+03 -1.74421E+03 -2.87840E+03  9.11885E+02 -3.88581E+03  2.81479E+03 -4.85540E+03
  4.25465E+03 -1.92515E+03  5.75054E+03  7.28225E+02  4.60684E+03  4.12723E+03  1.25433E+02  4.60957E+03
 -1.75229E+03  5.60141E+03 -3.75935E+03  5.35924E+02 -1.46806E+03 -1.03247E+03 -9.99749E+01 -4.21424E+02
 -2.89109E+02  1.39726E+03 -1.28135E+03  2.03943E+03 -8.61394E+02  1.32263E+03 -3.29128E+03  6.90501E+02
 -1.43809E+03 -3.54275E+03  9.70785E+02 -4.51214E+03  1.70750E+03 -4.32858E+03  1.78464E+03 -7.83358E+02
  4.80374E+03  1.91379E+03  2.49238E+03  2.09765E+03 -1.35656E+03  3.10678E+03 -3.02908E+03  2.34387E+03
 -3.22897E+03  4.12510E+02 -3.24083E+03 -2.12336E+03 -1.81223E+03 -2.60584E+03  1.07586E+03 -2.68950E+03
  1.98559E+03  1.26552E+02  7.43768E+02  7.89143E+01  4.59532E+02  6.36346E+02  6.43540E+02  1.00531E+03
  2.27542E+03 -9.92479E+01  1.69927E+03  1.84686E+03  1.70329E+03  1.98306E+03  4.67297E+02  2.02886E+03
 -2.01419E+03  2.29413E+03 -6.34415E+02  4.00703E+03 -1.16236E+03  9.17022E+02 -2.11981E+03  9.82668E+02
 -8.36564E+02 -2.71478E+03 -2.48225E+02 -5.15022E+03  1.61925E+03 -2.36002E+03  2.41486E+03 -9.90797E+02
  2.01832E+03  2.45807E+03 -4.93184E+01  6.95997E+02  3.85879E+02  1.65082E+03 -5.56645E+02 -1.44252E+02
 -1.64360E+03 -1.90044E+03  1.48961E+03 -9.67480E+02  1.06000E+03 -1.17536E+03  1.52709E+03  1.78482E+02
  4.36277E+02  1.17976E+03  1.17999E+03  2.90907E+02  8.67548E+02  2.44677E+02  8.69821E+02 -6.07458E+02
  6.12592E+02 -2.07339E+02  1.38717E+03  5.71331E+02 -1.82747E+02  1.83323E+03 -1.09462E+03  2.98630E+03
 -1.25653E+03 -3.70446E+01 -1.21138E+03  3.58921E+02 -2.10255E+03 -4.81049E+02 -2.52241E+02  5.55278E+02
 -6.57457E+02 -1.99850E+03  1.40054E+03 -1.12677E+03 -1.07814E+03  9.61782E+02 -7.41445E+02  4.66282E+02
 -5.73439E+02  6.89958E+02 -1.10394E+03 -1.60265E+03 -1.86154E+02 -1.41736E+03 -1.75154E+02 -2.45442E+03
  2.30321E+02  2.29796E+02  1.06370E+03 -1.15463E+02  4.90875E+02 -1.04392E+03  7.11421E+02  3.92299E+02
  4.65568E+02 -6.04276E+01 -1.11568E+03  1.62868E+02  2.13199E+02 -3.45377E+02  1.09138E+03 -5.15040E+02
  1.40697E+03  2.15029E+00  1.74474E+03  8.50027E+02  1.63951E+03  1.06128E+03  7.85107E+02  1.42754E+03
 -6.99258E+02  4.00358E+02 -1.14432E+03  1.08750E+03 -9.29701E+02 -1.82638E+03  1.95802E+02  7.99412E+02
  1.82669E+03  3.53564E+02  3.68112E+02 -3.35747E+02  3.98535E+01  4.00551E+02 -9.43227E+01  1.44796E+03
 -1.04631E+03  1.28474E+03 -3.98553E+02  8.21475E+01 -1.82202E+02  9.36658E+02 -1.47644E+03 -7.16818E+01
 -6.19760E+02  1.28547E+03 -1.42570E+03  1.39506E+03 -1.62299E+03  3.71082E+02 -1.25944E+03 -8.44067E+02
 -1.44631E+03 -1.68567E+03  9.35547E+02 -2.00358E+03 -4.96464E+02 -2.17129E+03  1.54251E+03 -6.03257E+02
  9.71243E+02 -5.61607E+02  3.06073E+02  1.02037E+03 -8.38364E+02  1.26136E+03 -3.12319E+02  4.85180E+02
 -2.73109E+02  7.37285E+02 -6.44120E+02 -8.43404E+02  8.79164E+02  9.41802E+02 -9.19240E+02 -6.55796E+02
 -8.22342E+02 -9.71506E+02 -7.74834E+02  3.98123E+02 -4.23956E+02 -4.21194E+02 -2.18604E+02 -1.62679E+03
  1.94083E+03 -9.14016E+02  1.36403E+02 -3.77441E+02  1.21733E+03  5.31064E+02 -2.68927E+02  8.77282E+02
 -1.59380E+03  1.85801E+03 -7.03625E+02  8.44172E+02 -8.56238E+02  4.31831E+01 -1.34609E+03 -1.53973E+03
 -1.36973E+03 -4.33425E+02 -7.01249E+02 -1.25635E+03  6.77790E+02 -5.70450E+02  4.83547E+02 -1.10278E+03
  9.08467E+02 -8.89383E+01 -2.12261E+02  3.51800E+01 -5.68765E+02 -5.93983E+02 -9.36754E+02  5.96879E+02
  1.20991E+03  1.01015E+03  9.76629E+02  7.51716E+02  6.13479E+02  1.27326E+03 -3.91365E+01 -2.88391E+02
  1.48589E+02  6.45131E+02  6.77067E+02  4.70289E+01  3.30234E+02  1.73643E+02 -2.00683E+02 -2.61555E+02
 -1.73240E+02 -5.12145E+02  5.30470E+01 -5.71037E+01  2.26052E+02 -4.13423E+02  1.05274E+02  6.16138E+01
 -1.30313E+02 -4.77983E+02 -6.39872E+02 -5.97523E+02 -1.49814E+02  1.20216E+02 -3.70600E+02  9.11687E+02
  1.56324E+03 -2.12482E+02 -4.06414E+02 -2.84235E+02 -1.11992E+03 -6.25561E+02 -3.12219E+02 -4.27448E+01
 -2.00454E+03  6.22300E+02 -1.31222E+03 -1.01083E+03  2.71649E+02 -1.21780E+03  1.86882E+02 -1.40641E+03
 -7.47882E+01 -3.16258E+02 -2.33572E+01  7.54995E+01  9.05158E+02 -6.61582E+02  7.08959E+01  1.59703E+03
