 $NMID ID='MM_0lb_SNR200_20hz_g60_42.RAW', FMTDAT='(8E13.5)'
 TRAMP=1., VOLUME=1. $END
  3.09816E+05 -2.34993E+02  3.37694E+05  2.49624E+05  8.48451E+04  3.37379E+05 -1.31783E+05  2.49756E+05
 -1.90440E+05  8.31822E+04 -1.11326E+05 -3.27855E+04  2.19170E+03 -5.08736E+04  5.43559E+04 -2.17658E+02
  3.53001E+04  5.42975E+04 -1.69395E+04  7.58320E+04 -6.07005E+04  6.33364E+04 -8.39743E+04  3.24604E+04
 -7.93861E+04 -1.17077E+04 -5.60806E+04 -5.16377E+04 -1.45465E+04 -6.93647E+04  2.68015E+04 -4.47776E+04
  3.99922E+04  3.86589E+03  1.63667E+04  4.67406E+04 -3.43593E+04  4.79520E+04 -6.61925E+04  1.48859E+02
 -5.27334E+04 -5.68009E+04 -6.11743E+03 -7.62179E+04  3.35240E+04 -5.34797E+04  4.61836E+04 -1.79527E+04
  4.19557E+04  1.09394E+04  3.18156E+04  2.44313E+04  1.52255E+04  2.83518E+04 -4.68889E+03  2.66907E+04
 -2.14233E+04  1.27868E+04 -1.92708E+04 -4.34820E+03  4.33371E+03 -8.13785E+03  2.23075E+04  1.05011E+04
  7.72561E+03  3.50245E+04 -3.04849E+04  3.46812E+04 -6.25212E+04  1.94849E+03 -5.55982E+04 -4.21756E+04
 -1.19417E+04 -6.20669E+04  3.79206E+04 -4.32958E+04  5.69553E+04 -1.28497E+03  3.35186E+04  3.03972E+04
 -5.89888E+03  3.36368E+04 -2.83531E+04  1.37968E+04 -2.91341E+04 -5.09910E+03 -1.48560E+04 -1.14347E+04
 -7.46428E+03 -1.26441E+04 -7.64314E+02 -1.81589E+04  7.43305E+03 -2.25859E+04  1.54174E+04 -1.40011E+04
  1.17467E+04  4.61847E+03 -6.45853E+03  1.32559E+04 -1.88686E+04 -2.77322E+03 -7.71498E+03 -3.12244E+04
  2.22416E+04 -4.10083E+04  4.71951E+04 -1.82617E+04  4.22662E+04  1.90835E+04  1.47635E+04  4.14259E+04
 -1.60581E+04  3.08089E+04 -2.46558E+04  1.82961E+03 -8.41743E+03 -2.67372E+04  2.06010E+04 -3.27588E+04
  3.79305E+04 -8.13127E+03  3.25528E+04  2.26621E+04  1.52363E+04  4.31309E+04 -7.85766E+03  4.58250E+04
 -2.94180E+04  3.05743E+04 -3.93520E+04  9.04319E+03 -3.90911E+04 -1.56568E+04 -2.19696E+04 -3.54329E+04
  6.87631E+03 -3.45467E+04  2.99483E+04 -1.27123E+04  2.68894E+04  9.22587E+03  4.03715E+03  1.76921E+04
 -1.29069E+04  7.15084E+03 -7.82453E+03 -8.12079E+03  6.68316E+03 -9.57887E+03  1.75015E+04  6.76225E+03
  1.19582E+04  2.25331E+04 -6.47340E+03  2.31265E+04 -2.18238E+04  9.68832E+03 -2.59866E+04 -5.85877E+03
 -1.78243E+04 -1.66290E+04 -6.13830E+03 -1.72618E+04  3.30877E+03 -1.47153E+04  1.29889E+04 -1.48232E+04
  2.13417E+04 -1.19977E+04  2.82021E+04  1.82958E+03  2.14567E+04  1.60125E+04  3.95037E+03  3.32058E+04
 -1.60957E+04  2.74452E+04 -2.56911E+04  9.68219E+03 -1.96553E+04 -9.95463E+03 -4.24576E+03 -1.38554E+04
  3.65329E+03 -4.19779E+03 -4.23112E+03  5.31715E+03 -1.38988E+04  5.02032E+03 -1.42754E+04 -5.57894E+03
 -8.19775E+03 -1.56323E+04  4.76264E+03 -1.97716E+04  1.26566E+04 -1.42035E+04  1.56807E+04 -2.01125E+03
  8.89200E+03  1.11239E+04 -8.75678E+02  1.51097E+04 -1.01957E+04  1.02696E+04 -1.51030E+04 -3.85237E+03
 -1.11688E+04 -1.39371E+04 -9.31706E+02 -1.93490E+04  9.06575E+03 -1.54291E+04  1.67156E+04 -7.17826E+03
  1.53679E+04  3.30240E+02  1.07956E+04  4.16084E+03  4.50029E+03  1.20311E+03  7.40146E+03 -9.29587E+02
  1.39531E+04  2.35199E+03  1.46545E+04  1.31639E+04  8.55483E+03  2.52739E+04 -4.23076E+03  2.74546E+04
 -1.56643E+04  2.10379E+04 -2.43754E+04  1.04309E+04 -2.47864E+04 -2.63825E+03 -2.19087E+04 -1.55747E+04
 -9.38055E+03 -1.96405E+04  7.91936E+03 -2.01968E+04  1.63717E+04 -1.16240E+04  1.56186E+04  3.48347E+03
  6.99523E+03  1.09135E+04 -7.27238E+03  1.02316E+04 -1.28207E+04  4.89887E+03 -1.04217E+04 -7.34655E+03
 -5.07326E+01 -1.22032E+04  6.40541E+03 -9.18706E+03  8.17396E+03 -1.92942E+03  1.96371E+03  5.82383E+03
 -4.72330E+03  1.30258E+03 -4.23255E+03 -5.58912E+03  8.49452E+02 -1.04737E+04  7.56713E+03 -9.68976E+03
  1.30912E+04 -4.69655E+03  1.21663E+04  3.49557E+03  1.08950E+04  8.94578E+03  4.72044E+03  1.40265E+04
 -1.88972E+03  1.58947E+04 -9.74559E+03  1.03792E+04 -1.11498E+04  2.71091E+03 -8.30928E+03 -2.03090E+03
 -3.71497E+03 -2.63430E+03 -1.45588E+03  7.12911E+02 -2.32839E+03  2.04762E+03 -2.87524E+03  2.77320E+03
 -7.11483E+03 -5.72044E+02 -7.72667E+03 -8.27825E+03 -4.12185E+03 -1.25890E+04  3.77193E+03 -7.96397E+03
  6.62934E+03 -3.47881E+03  4.96674E+03  1.88561E+03  1.46224E+03  2.63343E+03 -3.21578E+03  4.00231E+02
 -2.82048E+03 -5.39428E+03 -1.11831E+03 -7.11519E+03  3.83177E+03 -7.18355E+03  9.22857E+03 -3.20132E+03
  1.20734E+04  1.03649E+03  8.35918E+03  5.21998E+03  3.06702E+03  8.70769E+03 -5.47052E+03  7.93693E+03
 -6.25997E+03  2.93005E+03 -4.29132E+03 -9.69099E+02  1.29027E+03 -1.39298E+03  5.59161E+03  1.04793E+02
  2.88407E+03  2.76239E+03  1.00650E+03  6.98009E+03 -5.11123E+03  5.65621E+03 -7.66665E+03  2.53349E+03
 -4.86465E+03 -3.45303E+03 -4.13705E+01 -5.10922E+03  4.05343E+03 -3.47432E+03  3.95826E+03  9.25414E+02
  1.19928E+03  3.83788E+03 -2.81842E+03  4.63304E+03 -3.31034E+03  2.21034E+03 -3.70537E+03 -8.07997E+02
 -1.04796E+03 -5.82308E+03  1.32385E+03 -6.20524E+03  6.07694E+03 -4.71116E+03  5.74983E+03  1.26176E+03
  4.13271E+03  5.30801E+03 -7.10162E+01  6.64047E+03 -3.89302E+03  3.50886E+03 -5.59348E+03  4.00189E+02
 -5.48932E+03 -5.95739E+03 -9.95450E+02 -4.28156E+03  3.12000E+03 -5.42125E+03  2.98329E+03 -2.62028E+03
  2.55843E+03  2.85542E+02  3.44312E+02  4.88161E+02  6.39897E+02 -3.49855E+02  1.40265E+03 -1.04562E+03
  3.31845E+03 -1.68699E+03  4.76908E+03 -8.04194E+00  4.39608E+03  2.16717E+03  5.71401E+03  5.42181E+03
 -3.67378E+02  7.64330E+03 -6.79894E+03  6.29918E+03 -8.55780E+03  1.04697E+03 -7.71583E+03 -1.65260E+03
 -3.66101E+03 -4.92996E+03 -4.53132E+02 -4.45298E+03  1.61839E+03 -2.06469E+03  2.23943E+03 -2.09906E+03
  7.45888E+02 -2.51904E+03  2.31267E+03 -2.22004E+03  3.91604E+03 -8.85288E+02  4.26120E+03 -3.83187E+01
  4.97784E+03  7.76199E+02  1.56403E+03  3.14219E+03 -1.65505E+03  1.48412E+03 -3.50451E+03  2.74988E+03
 -4.38809E+03 -9.45813E+02 -1.02899E+03 -2.51143E+03 -1.61453E+02 -3.97350E+03  2.79582E+03 -5.09084E+03
  4.13842E+03 -2.49746E+03  6.33018E+03 -1.34494E+03  4.34489E+03  3.78298E+03  9.79854E+02  4.86408E+03
 -1.69549E+03  5.44733E+03 -3.34619E+03  1.69660E+03 -1.17623E+03 -1.05692E+03 -4.34607E+02 -1.30156E+02
  5.44056E+02  7.45139E+02 -1.06155E+03  2.18075E+03 -1.44964E+03  1.54550E+03 -2.79747E+03 -2.27783E+02
 -1.79876E+03 -3.86219E+03  1.35473E+03 -3.37155E+03  1.61906E+03 -3.44003E+03  2.81008E+03 -1.35715E+03
  4.53618E+03  2.44222E+03  1.99736E+03  2.11989E+03 -1.41426E+03  3.50736E+03 -1.60478E+03  1.09329E+03
 -2.53670E+03  1.18335E+03 -2.68890E+03 -1.86853E+03 -1.90805E+02 -2.02063E+03  2.79335E+03 -2.01108E+03
  1.95321E+03 -1.54770E+03  1.69921E+03  7.69163E+02  3.06614E+02  1.35424E+03  8.92156E+02 -3.69214E+01
  1.32589E+03  7.18212E+02  1.50731E+03  1.91233E+03  3.49780E+01  3.03863E+03  7.71894E+02  1.32342E+03
 -1.79703E+03  2.63573E+03 -1.71752E+03  3.71995E+03 -1.62925E+03  6.01434E+02 -2.87885E+03  6.12879E+02
 -8.05322E+02 -2.27423E+03  1.10582E+03 -3.89824E+03  8.09059E+02 -2.68074E+03  2.46356E+03 -7.11848E+02
  7.43849E+02  9.06446E+02 -2.70392E+02  2.43692E+03 -4.94300E+02  1.22974E+03 -6.43387E+02  1.86564E+02
  2.03072E+02 -3.40477E+02  1.17191E+03 -7.29984E+02  1.72325E+03 -1.71458E+03  1.48509E+03  7.21044E+02
  1.69716E+01  8.84177E+02  1.12708E+03  6.61476E+01  4.61892E+02  3.12393E+02  1.69720E+03  2.37122E+02
 -4.71494E+02 -2.59502E+02  2.35471E+03  6.85741E+01 -1.55390E+02  1.53415E+03 -1.38193E+03  2.20495E+03
 -9.44701E+02  1.01752E+03 -1.49107E+03 -5.36859E+02 -1.30670E+03 -8.30604E+02 -9.44779E+01 -1.44402E+03
  1.12672E+02 -1.35654E+03  1.12360E+03  1.28922E+02  1.62721E+02  1.36647E+03 -8.95001E+02 -1.94273E+02
 -1.27656E+03  9.48113E+02 -5.64688E+02 -3.54207E+02 -6.70385E+02 -1.95573E+03 -9.50084E+02 -2.14402E+02
  2.87775E+02 -3.07493E+02 -1.50394E+02 -9.27357E+01  8.11884E+02  3.86505E+02  1.23985E+03  3.91241E+02
  4.71774E+02 -1.47079E+01 -8.42402E+02  2.21356E+02  1.74076E+02  8.10085E+02  1.43264E+03 -1.08061E+02
 -2.19025E+02  1.80601E+03  1.46359E+03  3.25652E+02  1.71070E+03  1.54718E+02  6.06566E+02  2.63633E+03
 -1.45122E+03  6.88484E+02 -9.27315E+02 -2.09935E+02 -8.87961E+02 -1.06756E+03  1.03163E+03 -9.58233E+02
  2.59365E+02 -1.01242E+03 -4.55660E+01  8.92676E+02  3.56360E+02  2.73257E+02  6.40298E+02  1.10663E+03
 -6.00752E+02  1.13941E+03 -9.14842E+02  7.47141E+02  8.32318E+02 -6.18927E+02 -5.96551E+02  5.02345E+02
 -1.97414E+03  6.03788E+02 -2.25943E+03  8.54902E+01 -7.05211E+02  9.29074E+02 -2.51502E+03  3.41720E+02
 -1.28300E+03 -1.28868E+03  1.21730E+03 -1.85946E+03  8.73478E+02 -1.52059E+03  1.61865E+03  3.69263E+02
  2.76187E+02 -8.54732E+02  9.92990E+01  8.94081E+02 -8.92667E+02  2.27137E+02 -6.47498E+02  1.52589E+03
 -9.34772E+02  1.64146E+02 -1.70517E+02  5.96430E+02 -4.28761E+02  4.74588E+02 -2.33676E+02  1.86702E+02
 -1.24384E+03  6.37405E+01 -8.52641E+02 -3.31977E+01  3.11992E+02 -1.19431E+03 -3.65485E+02 -6.54434E+02
  6.54183E+02 -8.55194E+02 -4.69813E+02  9.82315E+02  8.59930E+02  4.09497E+02 -1.66600E+03  7.87593E+02
 -4.52868E+01  6.09282E+02 -9.05294E+02 -7.03278E+01 -1.18619E+03 -3.01430E+02 -6.02729E+02 -7.51812E+02
 -1.38574E+03 -4.83354E+02 -5.57883E+01  1.50898E+00  5.14893E+02 -4.81579E+02  7.16215E+02  4.05157E+02
  3.36459E+02 -4.18744E+02  8.70115E+02  5.85615E+02 -1.35228E+03  7.65262E+02  3.84335E+02 -6.71139E+02
  1.61755E+02  3.25958E+02 -3.87088E+02  6.87094E+02 -1.39057E+02  6.21897E+02  2.00278E+03  1.71556E+02
 -1.48964E+02  5.52041E+02 -6.84784E+02 -1.09991E+01 -6.37658E+01  3.50703E+02 -9.15095E+02 -4.20210E+02
  6.99416E+02 -7.78639E+02 -7.36418E+02  8.66610E+01  7.54272E+02 -1.33300E+03 -2.27741E+02 -1.51733E+02
 -9.57511E+02  1.07306E+03  3.51424E+02  3.89977E+02 -4.22859E+02 -3.20103E+02  1.59874E+02 -1.21191E+02
  4.12660E+02  5.12026E+02  6.78280E+01  1.06494E+02 -5.28590E+02  2.05888E+02  1.60233E+02 -9.44156E+02
 -4.20463E+02  7.59275E+02 -3.44526E+01 -5.61055E+02 -2.07634E+01 -1.43479E+03  1.10714E+03 -1.06576E+03
  4.98959E+01  8.91245E+01 -3.46945E+02  4.24842E+02  9.62909E+02  1.62501E+03 -1.01811E+02  7.59053E+02
