 $NMID ID='MM_0lb_SNR200_14hz_g55_89.RAW', FMTDAT='(8E13.5)'
 TRAMP=1., VOLUME=1. $END
  3.08704E+05  6.20439E+01  3.36874E+05  2.51251E+05  8.38591E+04  3.38352E+05 -1.33369E+05  2.51556E+05
 -1.90964E+05  8.45986E+04 -1.11519E+05 -3.26587E+04  3.09763E+02 -5.08556E+04  5.36439E+04  2.90767E+02
  3.45257E+04  5.28491E+04 -1.69501E+04  7.56108E+04 -6.05664E+04  6.28931E+04 -8.47533E+04  3.20558E+04
 -8.19123E+04 -1.18108E+04 -5.63354E+04 -5.07887E+04 -1.48964E+04 -7.10316E+04  2.72562E+04 -4.54934E+04
  4.08981E+04  2.95012E+03  1.62429E+04  4.84538E+04 -3.46039E+04  4.73530E+04 -6.65771E+04 -9.96193E+00
 -5.38808E+04 -5.70603E+04 -6.60033E+03 -7.77692E+04  3.43050E+04 -5.55495E+04  4.89533E+04 -1.63314E+04
  4.41930E+04  1.13268E+04  3.23648E+04  2.63219E+04  1.64291E+04  3.18793E+04 -5.07507E+03  2.91898E+04
 -2.09808E+04  1.21425E+04 -1.91497E+04 -3.77013E+03  7.20372E+03 -6.99764E+03  2.46258E+04  1.33515E+04
  7.12886E+03  3.44179E+04 -3.25618E+04  3.63110E+04 -6.46051E+04  2.83027E+03 -5.76244E+04 -4.34137E+04
 -1.27040E+04 -6.36583E+04  4.20174E+04 -4.57773E+04  5.89135E+04 -2.75463E+03  3.70039E+04  3.33837E+04
 -5.78548E+03  3.68913E+04 -2.98369E+04  1.64653E+04 -3.19178E+04 -3.57365E+03 -1.65530E+04 -1.25800E+04
 -7.82963E+03 -1.27798E+04 -1.60665E+03 -1.92767E+04  8.68838E+03 -2.29951E+04  1.58774E+04 -1.50397E+04
  9.96494E+03  5.26106E+03 -8.49479E+03  1.23155E+04 -1.95901E+04 -4.94798E+03 -9.69799E+03 -3.54763E+04
  2.39151E+04 -4.33056E+04  4.84219E+04 -2.03195E+04  4.52306E+04  1.82729E+04  1.72180E+04  4.50693E+04
 -1.66098E+04  3.34847E+04 -2.62659E+04  1.20474E+03 -1.15076E+04 -2.90907E+04  2.13915E+04 -3.43154E+04
  4.19389E+04 -9.96038E+03  3.62969E+04  2.41320E+04  1.88847E+04  4.71599E+04 -7.48454E+03  5.14082E+04
 -3.26975E+04  3.38878E+04 -4.34666E+04  1.00710E+04 -4.20755E+04 -1.55108E+04 -2.40575E+04 -3.84241E+04
  8.01574E+03 -3.95545E+04  3.20455E+04 -1.41749E+04  2.97019E+04  1.06782E+04  4.22098E+03  1.92062E+04
 -1.41580E+04  7.15063E+03 -1.03278E+04 -7.04155E+03  6.20572E+03 -1.07747E+04  1.91736E+04  5.58919E+03
  1.46536E+04  2.22611E+04 -4.67124E+03  2.59398E+04 -2.19548E+04  1.29026E+04 -2.92903E+04 -4.31800E+03
 -2.00670E+04 -1.71847E+04 -9.21168E+03 -2.16729E+04  4.64486E+03 -2.16397E+04  1.53682E+04 -1.79765E+04
  2.73251E+04 -1.26365E+04  3.34884E+04  3.33629E+03  2.45899E+04  2.20417E+04  4.59720E+03  3.58344E+04
 -1.71070E+04  3.05554E+04 -2.86254E+04  1.18581E+04 -2.10675E+04 -1.07225E+04 -4.26416E+03 -1.34499E+04
  1.23915E+03 -2.88118E+03 -5.65863E+03  7.22719E+03 -1.71522E+04  4.16238E+03 -1.65451E+04 -7.49328E+03
 -1.05731E+04 -1.84218E+04  5.83503E+03 -2.41903E+04  1.53750E+04 -1.72042E+04  1.92722E+04 -1.34116E+03
  1.27959E+04  1.22992E+04 -1.25836E+03  2.02331E+04 -1.42681E+04  1.00172E+04 -1.99943E+04 -3.59536E+03
 -1.35907E+04 -1.77993E+04 -1.70062E+03 -2.47470E+04  1.08290E+04 -1.92053E+04  1.95832E+04 -1.15304E+04
  1.82726E+04 -9.48478E+02  1.25938E+04  4.48810E+03  7.58486E+03  7.49502E+02  1.05551E+04 -1.51992E+03
  1.80717E+04  3.78890E+03  2.08369E+04  1.58252E+04  1.20429E+04  3.01218E+04 -2.86803E+03  3.57900E+04
 -2.21970E+04  2.99749E+04 -3.32785E+04  1.45252E+04 -3.53035E+04 -2.72897E+03 -2.87400E+04 -2.03487E+04
 -1.16924E+04 -2.82541E+04  9.53279E+03 -2.64974E+04  2.33293E+04 -1.30749E+04  1.90643E+04  4.48237E+03
  7.64641E+03  1.45034E+04 -1.00242E+04  1.33313E+04 -1.59503E+04  2.55611E+03 -1.33091E+04 -8.13975E+03
 -5.93134E+02 -1.64059E+04  6.84585E+03 -1.21101E+04  9.90240E+03 -1.43608E+03  2.47018E+03  6.53472E+03
 -6.72555E+03  4.51399E+03 -5.81938E+03 -6.57454E+03 -1.43608E+02 -1.35112E+04  1.06574E+04 -1.45242E+04
  1.73852E+04 -7.35456E+03  1.87312E+04  3.37719E+03  1.63362E+04  1.50837E+04  7.91620E+03  2.08225E+04
 -2.94546E+03  2.31506E+04 -1.53463E+04  1.57817E+04 -1.65215E+04  3.56207E+03 -1.04960E+04 -3.61775E+03
 -5.89685E+03 -5.42363E+03 -3.36122E+02  1.77845E+03 -2.14243E+03  2.08147E+03 -5.56352E+03  5.29959E+03
 -1.10814E+04 -1.04028E+03 -1.15009E+04 -7.92518E+03 -4.92707E+03 -1.50062E+04  4.64346E+03 -1.15699E+04
  9.47384E+03 -4.65080E+03  6.38844E+03  2.86945E+03  1.22797E+02  3.56710E+03 -6.26188E+03 -3.65953E+02
 -5.66882E+03 -6.06631E+03 -9.94882E+02 -1.26194E+04  5.05193E+03 -1.09894E+04  1.47126E+04 -6.58011E+03
  1.80000E+04  6.42083E+02  1.29897E+04  9.22693E+03  2.73965E+03  1.34001E+04 -6.74487E+03  1.27762E+04
 -9.70915E+03  3.02061E+03 -4.97292E+03 -2.18900E+03  2.71402E+03 -3.06910E+03  6.34788E+03 -2.41827E+03
  5.30401E+03  3.62995E+03  8.46787E+02  7.86880E+03 -6.15047E+03  8.22742E+03 -1.26620E+04  1.35365E+03
 -8.61800E+03 -5.57589E+03  1.00907E+03 -1.02407E+04  6.49027E+03 -4.52512E+03  6.57713E+03  9.17439E+02
  7.76382E+02  6.19018E+03 -5.80410E+03  7.47717E+03 -8.63251E+03  4.00267E+03 -8.07563E+03 -3.49080E+03
 -5.34943E+03 -9.94453E+03  2.83611E+03 -1.20758E+04  1.07264E+04 -7.02798E+03  1.14161E+04  1.65292E+03
  7.84180E+03  7.77112E+03 -4.37239E+02  9.41207E+03 -7.29506E+03  5.06023E+03 -8.77690E+03  1.24595E+02
 -7.86691E+03 -7.83923E+03 -1.43572E+03 -8.76624E+03  3.30560E+03 -7.63509E+03  5.24893E+03 -3.48099E+03
  4.89975E+03  1.83752E+03 -7.19648E+02  2.55940E+03 -3.54117E+02 -1.73292E+03  2.31519E+03 -4.40937E+03
  7.93136E+03 -2.88552E+03  9.36850E+03  1.82162E+03  9.60620E+03  6.72154E+03  7.93319E+03  1.43024E+04
 -2.14810E+03  1.47461E+04 -1.32266E+04  1.18277E+04 -1.63504E+04  1.94484E+03 -1.34825E+04 -5.08694E+03
 -8.30537E+03 -1.19634E+04 -4.15084E+01 -9.35917E+03  1.98217E+03 -5.14816E+03  3.94476E+03 -3.95882E+03
  2.89173E+03 -1.71132E+03  1.64986E+03 -3.53585E+03  4.45442E+03 -1.84921E+03  5.01635E+03 -1.39972E+03
  7.10163E+03  2.39721E+03  3.00433E+03  5.36293E+03 -1.25078E+03  5.69873E+03 -7.13041E+03  5.10420E+03
 -8.60019E+03 -1.43274E+03 -5.08453E+03 -5.85665E+03 -9.12394E+02 -9.59799E+03  4.30871E+03 -1.00799E+04
  1.03386E+04 -4.91704E+03  1.37581E+04  6.51422E+02  7.85094E+03  8.19327E+03  8.50845E+02  1.06506E+04
 -3.59336E+03  8.00029E+03 -6.43997E+03  4.15151E+03 -3.44401E+03 -1.03294E+03 -5.13970E+02 -8.69539E+02
 -1.47111E+03 -5.14068E+02 -8.48230E+02  2.67128E+03 -5.19625E+03  1.46581E+03 -6.70269E+03 -7.58276E+02
 -3.76413E+03 -6.64096E+03  2.43649E+02 -8.32914E+03  4.44151E+03 -7.69826E+03  6.72389E+03 -2.24779E+03
  7.09899E+03  4.44555E+03  3.37325E+03  6.97013E+03 -2.06439E+03  7.49045E+03 -5.89330E+03  6.00410E+03
 -6.19082E+03  8.50083E+02 -6.54121E+03 -4.28197E+03  2.27789E+02 -4.91344E+03  3.33348E+03 -4.05233E+03
  4.91885E+03 -1.63029E+03  3.70326E+03  1.20339E+03  1.10422E+03  2.01607E+03  9.80808E+02  1.14528E+03
  1.50135E+03  1.49320E+03  2.14301E+03  2.07013E+03  1.97342E+03  3.84991E+03  1.41202E+03  4.50994E+03
 -2.20958E+03  6.88890E+03 -5.34495E+03  7.86164E+03 -9.01928E+03  9.45830E+02 -8.49190E+03 -2.02026E+03
 -3.36307E+03 -7.57840E+03  8.75665E+02 -9.56237E+03  4.38871E+03 -5.54399E+03  7.07040E+03 -1.67105E+03
  4.85313E+03  4.18099E+03  4.87268E+02  5.03176E+03 -2.01756E+03  3.58296E+03 -1.80082E+03 -1.19678E+03
 -1.50033E+03 -2.93251E+03  2.21522E+03 -2.94568E+03  3.09000E+03 -7.42145E+02  1.98406E+03  7.99220E+02
  2.22896E+03  1.74189E+03  1.01969E+03  1.17692E+03 -4.40574E+02  1.11534E+03 -8.05765E+01 -1.24714E+03
  1.82474E+03 -1.45417E+03  3.76570E+03  8.51336E+02  1.71209E+03  4.11272E+03 -3.12338E+02  5.91745E+03
 -4.06780E+03  3.79754E+03 -4.70994E+03  1.89680E+03 -3.35619E+03 -1.95482E+03 -2.07814E+03 -2.45446E+03
  5.37663E+02 -3.08384E+03  1.40322E+03 -7.14583E+02  1.61461E+03  1.81392E+03 -1.26768E+03  2.37457E+03
 -2.91456E+03  1.08393E+03 -2.26324E+03 -1.95065E+03 -1.67376E+03 -3.41998E+03  3.26064E+01 -3.75382E+03
  1.73709E+03 -1.28225E+03  2.63037E+03 -7.22777E+01  1.97053E+03  1.80910E+03  1.34417E+03  2.00158E+03
 -5.45358E+02  7.51418E+02 -2.17235E+03 -2.52522E+02 -2.57675E+02 -2.33904E+03  4.61707E+03 -3.64838E+03
  3.81921E+03  7.89744E+02  5.33493E+03  1.81246E+03  1.57765E+03  4.17460E+03 -1.25192E+03  5.09105E+03
 -3.38909E+03  2.32278E+03 -3.62037E+03  4.86400E+02 -7.61234E+02 -2.31598E+03 -3.86658E+02 -2.66015E+03
  4.17630E+03 -4.95901E+02  4.17031E+03  2.49484E+03  1.63944E+02  2.18809E+03  1.52077E+03  3.20284E+03
 -6.30198E+02  2.00062E+03 -1.64716E+03  1.23377E+03 -1.70600E+02  9.65928E+02 -1.99439E+03  1.36162E+03
 -1.67664E+03  3.04433E+03 -2.94824E+03  1.58909E+03 -4.03141E+03  6.73065E+02 -5.93883E+03 -4.42252E+03
 -2.49806E+03 -5.15489E+03  1.05256E+03 -5.69584E+03  3.96358E+03 -7.20614E+03  5.59059E+03 -1.65371E+03
  6.50625E+03 -9.80095E+02  4.03207E+03  3.95022E+03  3.19928E+02  4.22406E+03 -1.74859E+03  3.38583E+03
 -1.92533E+03  1.76273E+03 -4.93938E+02 -6.45620E+02 -1.16415E+03 -8.19489E+02 -8.26330E+02 -7.15364E+02
 -2.07296E+03  2.79604E+02 -1.59742E+03  2.29302E+02 -7.88147E+02 -4.37795E+02 -7.88923E+02 -2.25177E+03
  1.52619E+03 -2.40628E+03  2.82006E+03  1.10161E+02  2.65298E+03  2.94271E+03  1.43178E+03  3.38323E+03
 -2.43786E+03  3.66102E+03 -4.56228E+03  2.46838E+03 -5.12844E+03 -8.40205E+02 -3.82348E+03 -2.70794E+03
 -1.84413E+03 -4.35504E+03  7.83210E+02 -4.06738E+03  3.14128E+03 -1.88031E+03  2.32220E+03 -7.53300E+01
  1.16817E+03  1.17864E+03 -7.58481E+02  8.82279E+02 -9.47247E+02 -1.31582E+03 -1.19143E+02 -2.95395E+02
  5.09239E+02  9.87179E+00  2.80311E+03  4.36032E+02 -1.22845E+02  2.21944E+03  8.21082E+01  1.49204E+03
 -1.88603E+03  2.32548E+03 -2.99404E+03  3.97265E+02 -2.61031E+03 -1.56650E+03 -2.28770E+02 -2.48013E+03
  2.11118E+03 -2.43964E+03  2.94738E+03 -3.61238E+02  2.98676E+03  1.04734E+03  6.96381E+02  2.30228E+03
  6.46302E+02  7.36855E+02 -1.94779E+03  1.73203E+03 -1.11991E+03  2.17227E+03 -1.30788E+03  5.25656E+02
  3.84354E+02  3.26105E+02 -1.02634E+03  3.53776E+02 -1.01887E+03  6.02727E+02 -1.51387E+03 -4.01699E+02
 -2.76207E+03 -1.09510E+02 -2.57256E+02 -2.81612E+03  1.71399E+03 -2.69962E+03  1.57459E+03  3.29737E+02
  1.79709E+03  1.53731E+03  1.20496E+03  1.04319E+03  1.97016E+01  2.98891E+03 -6.89657E+02  1.95052E+03
