 $NMID ID='MM_0lb_SNR200_16hz_g55_67.RAW', FMTDAT='(8E13.5)'
 TRAMP=1., VOLUME=1. $END
  3.10951E+05  5.44409E+02  3.37530E+05  2.49890E+05  8.48095E+04  3.37506E+05 -1.32506E+05  2.51105E+05
 -1.89182E+05  8.33288E+04 -1.10929E+05 -3.16379E+04 -9.59291E+02 -5.12938E+04  5.44868E+04  3.91442E+02
  3.49117E+04  5.32891E+04 -1.63600E+04  7.44195E+04 -5.99704E+04  6.35333E+04 -8.42565E+04  3.17859E+04
 -8.16884E+04 -1.17029E+04 -5.75074E+04 -5.11778E+04 -1.51923E+04 -6.85109E+04  2.81059E+04 -4.54514E+04
  4.00098E+04  3.13032E+03  1.57489E+04  4.80324E+04 -3.38963E+04  4.65740E+04 -6.59309E+04 -9.79902E+01
 -5.42243E+04 -5.69699E+04 -6.00143E+03 -7.52973E+04  3.43602E+04 -5.52973E+04  4.64438E+04 -1.74333E+04
  4.30868E+04  1.08004E+04  3.17907E+04  2.54228E+04  1.46155E+04  2.97202E+04 -5.66747E+03  2.69456E+04
 -2.21286E+04  1.16208E+04 -1.93530E+04 -4.97214E+03  5.22185E+03 -7.88336E+03  2.19338E+04  1.19785E+04
  7.33835E+03  3.45861E+04 -3.22877E+04  3.58157E+04 -6.15366E+04  1.45642E+03 -5.78612E+04 -4.26102E+04
 -1.28400E+04 -6.26930E+04  3.95725E+04 -4.49127E+04  5.71833E+04 -1.61238E+03  3.49005E+04  3.14383E+04
 -4.50368E+03  3.54081E+04 -2.84435E+04  1.55159E+04 -2.99024E+04 -5.20090E+03 -1.57942E+04 -1.06823E+04
 -8.73754E+03 -1.27783E+04 -1.93694E+03 -1.82528E+04  7.54524E+03 -2.26460E+04  1.53794E+04 -1.30229E+04
  1.13823E+04  2.76569E+03 -8.40690E+03  1.29503E+04 -2.16937E+04 -4.83450E+03 -7.34304E+03 -3.29694E+04
  2.33081E+04 -4.37774E+04  4.70973E+04 -2.07543E+04  4.38207E+04  2.00033E+04  1.57770E+04  4.39564E+04
 -1.61107E+04  3.26065E+04 -2.45516E+04  1.97222E+03 -1.06158E+04 -2.72054E+04  2.05716E+04 -3.47431E+04
  4.12183E+04 -8.19743E+03  3.54625E+04  2.41874E+04  1.70063E+04  4.50075E+04 -8.39669E+03  4.96844E+04
 -3.12291E+04  3.36721E+04 -4.20691E+04  8.12728E+03 -4.15288E+04 -1.57739E+04 -2.32514E+04 -3.70880E+04
  6.77587E+03 -3.74272E+04  3.14088E+04 -1.41796E+04  2.94177E+04  1.08770E+04  4.59328E+03  1.86589E+04
 -1.29808E+04  9.28448E+03 -9.62760E+03 -7.58905E+03  6.61882E+03 -9.87937E+03  1.83529E+04  5.11501E+03
  1.31012E+04  2.10095E+04 -5.74598E+03  2.46507E+04 -2.22512E+04  1.08156E+04 -2.66970E+04 -5.02324E+03
 -1.91673E+04 -1.69204E+04 -6.95052E+03 -1.99581E+04  4.46134E+03 -1.87653E+04  1.45927E+04 -1.77825E+04
  2.52564E+04 -1.17929E+04  3.11507E+04  1.68133E+03  2.38658E+04  1.78050E+04  4.69413E+03  3.48838E+04
 -1.70881E+04  2.94278E+04 -2.71152E+04  9.57499E+03 -1.96680E+04 -1.04406E+04 -4.79864E+03 -1.34863E+04
  1.84971E+03 -3.44283E+03 -4.88728E+03  6.06952E+03 -1.59678E+04  4.95656E+03 -1.56187E+04 -6.23576E+03
 -9.06726E+03 -1.83213E+04  4.99276E+03 -2.25450E+04  1.53979E+04 -1.50290E+04  1.64145E+04 -6.67233E+02
  1.03826E+04  1.14513E+04 -9.55065E+02  1.89567E+04 -1.24598E+04  1.11702E+04 -1.74447E+04 -3.25156E+03
 -1.25748E+04 -1.66065E+04 -1.33073E+03 -2.16836E+04  9.52822E+03 -1.76638E+04  1.79754E+04 -8.99519E+03
  1.74866E+04  9.20577E+02  1.12653E+04  5.21601E+03  6.09156E+03  1.18683E+03  1.00522E+04 -1.03741E+03
  1.61885E+04  3.47388E+03  1.78324E+04  1.47235E+04  1.19383E+04  2.84819E+04 -2.18439E+03  3.21573E+04
 -1.85942E+04  2.50692E+04 -2.94498E+04  1.27009E+04 -3.09628E+04 -9.87921E+02 -2.61227E+04 -1.79143E+04
 -1.04288E+04 -2.55245E+04  9.64501E+03 -2.49660E+04  2.00945E+04 -1.16560E+04  1.81128E+04  4.62930E+03
  7.06413E+03  1.42035E+04 -8.54089E+03  1.12494E+04 -1.40444E+04  2.48937E+03 -1.22124E+04 -8.88754E+03
 -8.80265E+01 -1.39266E+04  7.15470E+03 -1.02903E+04  1.02460E+04 -1.68141E+03  7.61786E+02  6.79340E+03
 -5.61501E+03  1.75794E+03 -6.47521E+03 -5.00380E+03  3.93604E+02 -1.28976E+04  9.33585E+03 -1.21131E+04
  1.51373E+04 -6.82069E+03  1.59451E+04  3.52561E+03  1.34271E+04  1.27700E+04  7.11953E+03  1.86442E+04
 -1.90479E+03  1.96333E+04 -1.12644E+04  1.16543E+04 -1.37149E+04  3.25735E+03 -1.07603E+04 -3.42550E+03
 -3.95595E+03 -4.52083E+03 -8.08377E+02  4.19345E+02 -1.80231E+03  3.18085E+03 -5.11700E+03  3.28119E+03
 -8.82024E+03 -1.01897E+02 -1.10626E+04 -8.39278E+03 -4.34867E+03 -1.54459E+04  4.31349E+03 -1.12968E+04
  8.61391E+03 -4.70648E+03  6.37397E+03  3.36271E+03  1.32240E+02  5.00583E+03 -4.20214E+03 -7.05825E+02
 -4.71480E+03 -7.23769E+03  5.02841E+02 -8.98462E+03  5.26250E+03 -1.02658E+04  1.25278E+04 -5.76084E+03
  1.57040E+04 -3.19965E+02  1.22953E+04  7.87060E+03  9.88428E+02  1.09360E+04 -6.04623E+03  1.04828E+04
 -9.44089E+03  3.66328E+03 -4.42135E+03 -1.71143E+03  4.84701E+02 -1.51823E+03  4.81247E+03 -8.21502E+02
  4.93377E+03  4.62988E+03  1.29369E+03  7.20141E+03 -6.15674E+03  7.56372E+03 -1.03656E+04  2.60679E+03
 -7.35957E+03 -4.33821E+03 -8.71993E+01 -8.13715E+03  5.68055E+03 -3.66350E+03  5.66366E+03  9.56594E+02
  1.44663E+03  4.39328E+03 -5.66846E+03  6.22157E+03 -7.61695E+03  3.26731E+03 -6.78374E+03 -2.51136E+03
 -5.41507E+03 -7.25746E+03  1.59956E+03 -9.97553E+03  7.77847E+03 -5.73203E+03  7.17315E+03  1.21826E+03
  4.73093E+03  8.14223E+03  2.08437E+02  9.98223E+03 -5.83382E+03  5.17864E+03 -6.84475E+03 -5.38746E+02
 -7.00776E+03 -6.46753E+03 -1.22645E+03 -7.37765E+03  3.36031E+03 -5.52375E+03  4.57483E+03 -3.54126E+03
  3.10321E+03  1.04916E+03 -3.48988E+02  2.60430E+03  3.35859E+02 -1.88045E+03  2.03901E+03 -2.98111E+03
  5.17794E+03 -2.04002E+03  7.64878E+03  5.86120E+02  7.49480E+03  4.41269E+03  5.98922E+03  1.12303E+04
 -2.43334E+03  1.16937E+04 -1.10968E+04  8.45096E+03 -1.20056E+04  1.73116E+03 -1.20612E+04 -4.48067E+03
 -6.09819E+03 -9.48358E+03  2.94048E+01 -7.51515E+03  2.92017E+03 -4.22550E+03  3.45444E+03 -3.68471E+03
  5.20317E+02 -3.17272E+03  4.22615E+03 -2.53187E+03  4.72267E+03 -1.48551E+03  4.06194E+03  4.17295E+02
  5.40498E+03  1.58568E+03  1.82054E+03  6.73139E+03 -2.90893E+02  5.20305E+03 -6.83220E+03  4.35309E+03
 -7.49929E+03 -5.52628E+02 -3.40273E+03 -5.22616E+03  3.21621E+02 -6.60996E+03  3.99887E+03 -7.61679E+03
  6.49486E+03 -4.71434E+03  1.02258E+04  4.50095E+02  6.71526E+03  5.98006E+03  1.43873E+03  8.85752E+03
 -2.92129E+03  5.80985E+03 -5.40889E+03  2.35052E+03 -2.98568E+03 -2.12428E+03 -8.21848E+02 -6.93134E+02
 -3.02449E+02 -2.67146E+02 -1.47911E+03  2.28055E+03 -2.30847E+03  1.06103E+03 -5.34385E+03 -5.19033E+02
 -1.98923E+03 -5.40153E+03  4.46627E+02 -7.34472E+03  4.56215E+03 -6.38276E+03  5.61376E+03 -1.43064E+03
  6.24256E+03  4.55282E+03  3.61321E+03  4.70986E+03 -9.87191E+02  7.06582E+03 -4.72349E+03  2.82102E+03
 -5.71591E+03  9.22134E+02 -5.25724E+03 -3.88513E+03  5.34838E+02 -7.00313E+03  2.53462E+03 -4.18057E+03
  3.87799E+03 -4.78944E+02  2.52132E+03  2.70767E+02  1.26172E+03  2.67240E+03 -1.25980E+02  1.63664E+03
  2.10867E+03  1.26235E+03  1.14500E+03  9.98799E+02  1.87058E+03  2.30681E+03  2.31257E+03  2.35414E+03
 -1.69634E+03  4.09111E+03 -4.06747E+03  5.33849E+03 -5.74064E+03  1.34153E+03 -6.16568E+03 -1.99187E+03
 -3.39380E+03 -6.45777E+03  4.56875E+02 -5.95655E+03  2.63082E+03 -3.74953E+03  5.56701E+03 -2.54736E+03
  3.66832E+03  2.76287E+03  1.94216E+03  4.17881E+03 -1.26024E+03  1.40057E+03 -2.84868E+03 -2.96031E+02
 -1.31371E+03 -2.72567E+03  1.08646E+03 -1.60623E+03  2.91715E+03 -6.17594E+02  3.36626E+03 -6.12845E+02
  8.92749E+02  1.76800E+03  6.63315E+02  1.41797E+02 -6.04396E+01 -1.10141E+02  9.71659E+02 -6.36185E+02
  8.83271E+02 -6.37906E+02  2.54109E+03  1.59952E+03  1.22316E+03  3.41503E+03  4.74510E+01  3.54439E+03
 -2.21858E+03  2.65180E+03 -2.80305E+03 -1.07592E+03 -2.81433E+03 -2.32527E+03 -2.28551E+03 -2.04151E+03
 -3.45485E+02 -1.31525E+03  8.52841E+02 -8.72286E+02  2.00308E+03  7.32977E+02 -1.56619E+03  1.37238E+03
 -2.20179E+03  1.66549E+03 -2.42290E+03 -1.00672E+02 -1.70809E+03 -2.92679E+03  1.30728E+02 -2.65202E+03
  8.61985E+02 -1.82685E+03  1.68574E+03  1.30802E+02  1.59075E+03 -5.43343E+02 -7.64074E+01  6.07153E+02
 -2.79500E+02  7.56576E+02 -1.82450E+03 -1.17607E+03 -4.24391E+01 -1.53755E+03  2.16226E+03 -1.33337E+03
  1.28194E+03  1.13717E+03  3.20541E+03  1.07704E+03  8.93387E+01  3.36036E+03 -2.76345E+02  2.48894E+03
 -2.00909E+03  1.30519E+03 -3.42245E+03  1.68405E+02 -7.17011E+02 -1.25543E+03  1.19372E+02 -2.57807E+03
  2.28351E+03  5.96754E+02  1.53157E+03  1.02701E+03  5.18223E+02  1.46502E+03  9.89104E+01  2.51250E+03
 -3.23571E+02  1.56548E+03  7.70655E+02  5.50802E+02  7.06353E+02  4.52465E+02 -2.26386E+03  1.35958E+02
 -2.44901E+03  1.42939E+03 -3.70746E+03  2.31899E+02 -2.62039E+03  8.10055E+02 -4.19182E+03 -1.55576E+03
 -1.27008E+03 -2.41473E+03  1.53646E+03 -4.28164E+03  1.05471E+03 -3.29630E+03  3.64658E+03 -1.06464E+03
  2.77992E+03 -2.00893E+00  2.25103E+03  1.25800E+03 -1.46003E+03  3.03656E+03 -1.69317E+03  3.59935E+03
 -1.72399E+03  7.81513E+02  1.17407E+02 -2.50135E+03  1.15173E+03  4.95924E+02 -6.54918E+02  1.69642E+02
 -1.05146E+03 -8.10964E+02 -7.51023E+02  4.44187E+02  3.04145E+02 -6.77308E+02 -4.49766E+02 -1.74992E+03
  1.01461E+03 -1.97082E+03  1.61094E+03  8.62043E+02  1.50587E+03  2.44419E+03 -2.47803E+02  2.66359E+03
 -1.63171E+03  4.51851E+03 -2.54547E+03  2.09666E+03 -3.68608E+03 -4.36145E+02 -1.85415E+03 -2.37717E+03
 -1.00066E+03 -2.15840E+03  5.03403E+01 -8.56703E+02  1.90765E+03 -2.78308E+03  6.69697E+02 -2.65618E+02
  1.80777E+02  6.95900E+02 -3.77482E+02  3.65469E+02 -4.81660E+02  5.43604E+02 -4.40229E+02 -1.01739E+03
  1.48527E+03 -2.72887E+02 -4.62599E+02  1.20669E+03 -2.15018E+02  1.96994E+03 -1.19239E+03  1.03632E+03
 -1.15728E+03  7.01277E+02 -1.84083E+03  7.71548E+02 -1.53102E+03 -6.88380E+02 -1.14537E+02 -2.50749E+03
  9.89007E+02 -1.56917E+03  6.56610E+02 -9.26157E+02  1.66769E+03 -5.71025E+02  6.20279E+02  1.42889E+03
  1.00117E+03  1.13670E+03 -2.49051E+02  1.43663E+03 -3.04471E+02  1.67749E+03 -1.38952E+03 -9.38101E+02
 -4.18294E+02 -4.39358E+02 -4.71621E+01  2.22802E+02 -8.38113E+02 -5.91599E+02 -1.51532E+03 -1.52710E+01
 -1.13659E+03  5.02371E+02  4.67880E+02 -5.10196E+02  1.20944E+03 -1.37727E+03  8.01647E+02 -3.67013E+02
  7.59922E+02  9.56048E+01  3.89949E+02  7.18073E+02 -3.28568E+02  1.93937E+03 -8.93463E+02  1.79877E+03
