 $NMID ID='MM_0lb_SNR200_18hz_g40_82.RAW', FMTDAT='(8E13.5)'
 TRAMP=1., VOLUME=1. $END
  3.09297E+05  8.01730E+02  3.37630E+05  2.50430E+05  8.46649E+04  3.37443E+05 -1.33175E+05  2.50037E+05
 -1.88836E+05  8.23009E+04 -1.10897E+05 -3.23417E+04  1.91506E+03 -4.94102E+04  5.50632E+04  2.38919E+02
  3.48754E+04  5.28755E+04 -1.61167E+04  7.43704E+04 -6.04778E+04  6.24056E+04 -8.33171E+04  3.13606E+04
 -7.95659E+04 -1.11637E+04 -5.64327E+04 -5.09067E+04 -1.58086E+04 -6.72736E+04  2.58398E+04 -4.56138E+04
  3.81070E+04  3.39145E+03  1.50924E+04  4.70061E+04 -3.43911E+04  4.56549E+04 -6.53110E+04 -1.20247E+03
 -5.22832E+04 -5.58315E+04 -5.84413E+03 -7.53240E+04  3.26894E+04 -5.20139E+04  4.59483E+04 -1.64820E+04
  4.13271E+04  1.14888E+04  3.04462E+04  2.39068E+04  1.61825E+04  2.87868E+04 -4.67416E+03  2.69682E+04
 -2.15104E+04  1.21050E+04 -1.84055E+04 -3.87729E+03  3.79031E+03 -8.42472E+03  2.16562E+04  1.19120E+04
  6.47377E+03  3.40631E+04 -3.06932E+04  3.45988E+04 -6.10153E+04  2.33588E+03 -5.56645E+04 -4.19645E+04
 -1.27734E+04 -6.06437E+04  3.85297E+04 -4.19379E+04  5.58060E+04 -1.48542E+03  3.21166E+04  3.02075E+04
 -6.88118E+03  3.17721E+04 -2.85675E+04  1.37927E+04 -2.72087E+04 -5.79825E+03 -1.42102E+04 -1.00179E+04
 -7.42378E+03 -1.14178E+04 -1.92548E+03 -1.57344E+04  6.86363E+03 -2.38166E+04  1.54070E+04 -1.35072E+04
  1.16467E+04  4.72094E+03 -5.06504E+03  1.31463E+04 -1.84091E+04 -2.41792E+03 -7.59173E+03 -3.08267E+04
  2.08290E+04 -3.92172E+04  4.45765E+04 -1.82379E+04  4.17723E+04  1.73224E+04  1.41141E+04  4.15760E+04
 -1.58668E+04  3.14122E+04 -2.32688E+04  9.70276E+02 -9.51526E+03 -2.54202E+04  1.98949E+04 -3.01641E+04
  3.71469E+04 -7.41189E+03  3.02745E+04  2.36247E+04  1.49026E+04  4.29722E+04 -6.98159E+03  4.51157E+04
 -2.88693E+04  3.00156E+04 -3.77260E+04  8.23838E+03 -3.71997E+04 -1.42907E+04 -2.04402E+04 -3.40295E+04
  6.37109E+03 -3.48059E+04  2.82828E+04 -1.32471E+04  2.66070E+04  1.00735E+04  3.52550E+03  1.85035E+04
 -1.31027E+04  6.66492E+03 -9.91209E+03 -6.72444E+03  5.04073E+03 -9.56369E+03  1.73104E+04  6.58078E+03
  1.22947E+04  2.15060E+04 -6.38278E+03  2.37385E+04 -2.12410E+04  8.24429E+03 -2.47482E+04 -6.70220E+03
 -1.72865E+04 -1.54719E+04 -4.59003E+03 -1.71244E+04  2.43252E+03 -1.41940E+04  1.08007E+04 -1.45470E+04
  2.11385E+04 -1.20158E+04  2.83444E+04  6.86522E+02  2.04442E+04  1.61773E+04  4.80108E+03  3.27719E+04
 -1.63697E+04  2.67103E+04 -2.53203E+04  9.78849E+03 -1.98705E+04 -1.09449E+04 -4.25710E+03 -1.43396E+04
  3.21718E+03 -5.00518E+03 -2.41674E+03  4.72486E+03 -1.30765E+04  5.45415E+03 -1.44930E+04 -4.18672E+03
 -7.81461E+03 -1.52777E+04  4.82484E+03 -1.89645E+04  1.24230E+04 -1.40800E+04  1.46633E+04 -1.52475E+03
  9.40633E+03  1.03579E+04 -2.22324E+02  1.55118E+04 -1.07540E+04  7.73097E+03 -1.52854E+04 -3.82399E+03
 -1.17082E+04 -1.42777E+04 -1.81190E+03 -1.96848E+04  8.79274E+03 -1.48666E+04  1.52232E+04 -6.44939E+03
  1.41531E+04 -2.30290E+02  1.08673E+04  3.07200E+03  5.73714E+03  5.65958E+02  6.89587E+03 -7.69557E+02
  1.30393E+04  3.32615E+03  1.40834E+04  1.30002E+04  9.48857E+03  2.65392E+04 -3.99335E+03  2.64947E+04
 -1.52946E+04  2.00605E+04 -2.41509E+04  9.45181E+03 -2.44074E+04 -2.64928E+03 -2.05998E+04 -1.44360E+04
 -9.94070E+03 -2.01352E+04  6.94064E+03 -1.90343E+04  1.63185E+04 -1.08390E+04  1.58050E+04  3.94758E+03
  6.54152E+03  1.13763E+04 -7.86633E+03  1.11462E+04 -1.26316E+04  2.24156E+03 -9.28486E+03 -7.79894E+03
 -5.70783E+02 -1.18728E+04  5.83056E+03 -9.41434E+03  7.73154E+03 -1.14568E+03  1.23087E+03  4.56691E+03
 -4.85056E+03  1.43858E+03 -3.30668E+03 -3.77153E+03  1.16541E+03 -9.82774E+03  7.44867E+03 -1.06792E+04
  1.18589E+04 -4.63641E+03  1.22546E+04  2.96955E+03  1.04603E+04  1.04786E+04  4.49600E+03  1.40852E+04
 -1.13593E+03  1.61711E+04 -1.05814E+04  1.07985E+04 -1.06191E+04  2.87454E+03 -7.48878E+03 -1.90081E+03
 -3.94883E+03 -3.62324E+03 -1.16027E+03  1.95919E+03 -9.01283E+02  2.41672E+03 -4.46430E+03  4.65253E+03
 -8.32740E+03 -9.68026E+02 -8.27669E+03 -6.64153E+03 -3.79261E+03 -1.14331E+04  3.72755E+03 -9.53152E+03
  7.73622E+03 -4.03362E+03  5.02758E+03  2.10785E+03  6.30504E+02  2.12474E+03 -3.41216E+03 -7.40810E+02
 -3.27141E+03 -5.99259E+03 -1.77147E+03 -8.17320E+03  4.33864E+03 -8.75044E+03  1.05066E+04 -3.78804E+03
  1.20883E+04  5.92736E+02  8.79973E+03  6.73038E+03  1.84951E+03  8.33416E+03 -5.18997E+03  8.64572E+03
 -6.58512E+03  3.52940E+03 -4.18703E+03 -1.02985E+03  8.73435E+02 -2.25877E+03  4.43380E+03  7.39703E+01
  4.36520E+03  3.30529E+03  1.08604E+03  5.77778E+03 -4.28978E+03  5.30802E+03 -7.88069E+03  1.90680E+03
 -5.04796E+03 -3.19499E+03  6.90771E+02 -6.29786E+03  3.80332E+03 -3.02174E+03  3.47710E+03  1.39290E+03
  9.80861E+02  3.16730E+03 -4.44358E+03  5.09535E+03 -4.58943E+03  3.13880E+03 -3.98529E+03 -9.91302E+02
 -3.21497E+03 -6.61664E+03  2.00898E+03 -7.04379E+03  6.15298E+03 -3.86058E+03  5.53549E+03  1.10421E+03
  4.69393E+03  6.05701E+03  1.01990E+03  7.00639E+03 -5.25781E+03  4.70867E+03 -4.98760E+03 -7.68224E+02
 -5.53546E+03 -4.40572E+03 -1.82927E+03 -4.43046E+03  2.14696E+03 -4.51089E+03  2.61408E+03 -3.18479E+03
  2.93942E+03  1.01165E+03 -1.40149E+01  1.21930E+03  1.06453E+03 -1.61726E+02  8.00907E+02 -1.84043E+03
  4.22840E+03 -1.04032E+03  5.86913E+03 -1.43791E+02  6.03476E+03  2.95644E+03  4.23135E+03  6.00817E+03
 -8.60094E+02  7.34956E+03 -7.25786E+03  7.22146E+03 -1.08355E+04  9.56430E+02 -8.48935E+03 -2.07847E+03
 -3.43166E+03 -6.36757E+03 -5.39995E+02 -5.21701E+03  1.25365E+03 -1.39402E+03  1.56681E+03 -8.66776E+02
  1.70421E+03 -1.38049E+03  2.11681E+03 -3.38636E+03  4.15822E+03 -2.22682E+03  3.87457E+03  6.19959E+02
  4.71667E+03  1.27405E+03  9.39317E+02  2.95448E+03 -2.49601E+03  2.34850E+03 -4.43271E+03  2.20324E+03
 -4.90984E+03 -1.12225E+03 -2.68361E+03 -3.51548E+03 -3.31059E+01 -3.97233E+03  3.15437E+03 -5.57689E+03
  6.12444E+03 -3.41277E+03  7.28857E+03 -4.53258E+02  4.58797E+03  3.76129E+03  1.10152E+03  6.52823E+03
 -2.48583E+03  5.69116E+03 -3.85702E+03  1.60092E+03 -2.33567E+03 -1.86255E+03  1.66462E+02  2.90646E+02
 -4.29632E+02 -6.39643E+01 -1.00564E+03  1.97806E+03 -2.38568E+03  6.59293E+02 -4.40164E+03 -1.12618E+03
 -1.57552E+03 -4.36647E+03  5.25479E+02 -6.06035E+03  3.03723E+03 -2.96575E+03  3.69978E+03 -2.68263E+03
  4.64657E+03  2.91778E+03  1.47260E+03  3.81142E+03 -7.97234E+02  4.98291E+03 -3.59102E+03  3.34552E+03
 -4.05769E+03  8.47270E+02 -1.87895E+03 -2.17019E+03  4.02088E+02 -2.48665E+03  1.36788E+03 -3.48685E+03
  2.82517E+03 -6.59814E+02  1.95813E+03  4.56015E+02 -3.32454E+02  2.72288E+03  1.06004E+03 -2.45907E+01
  1.40676E+03  7.61037E+02  1.02997E+03  6.94750E+02  7.40067E+02  1.78068E+03  4.36764E+02  1.92344E+03
 -2.60576E+03  3.61595E+03 -2.53610E+03  3.10502E+03 -3.18711E+03  2.21750E+03 -5.04956E+03 -4.46829E+02
 -5.50695E+02 -3.96223E+03  4.31466E+02 -3.88956E+03  1.97322E+03 -3.51224E+03  3.56355E+03 -9.25438E+02
  1.72216E+03  1.07919E+03  4.68668E+02  1.92451E+03 -8.09546E+01  8.30975E+02  6.15111E+02  9.89053E+02
 -6.12193E+02 -7.64694E+02  6.44278E+02 -1.73872E+03  2.04673E+03 -1.23804E+03  1.99645E+02  9.12969E+02
  1.44192E+03  7.48339E+02  1.41620E+03 -1.28878E-01 -4.89521E+01  9.99707E+02  2.29582E+03  7.05285E+01
 -9.34218E+01 -9.60619E+02  1.54611E+03  6.69801E+01  8.35859E+02  2.16937E+03 -8.31040E+02  3.09544E+03
 -1.39063E+03  1.01731E+03 -1.50340E+03  8.85324E+02 -2.18259E+03 -5.43294E+02 -7.05207E+02 -1.67679E+03
 -4.39120E+01 -1.23344E+03  1.21492E+03 -1.72055E+03  5.62238E+02  2.37846E+03  2.82910E+02  1.52362E+03
 -1.55056E+03  1.22505E+03 -1.79943E+03 -1.88868E+03 -9.39112E+02 -2.59669E+03  6.80063E+02 -1.75092E+03
  5.71008E+02 -8.77729E+02  1.18581E+03  6.40105E+02  1.57093E+03  3.02269E+02  1.37374E+02  1.90277E+03
 -6.94128E+02 -3.50085E+01 -7.04337E+02 -3.54091E+02  5.70169E+02 -6.21311E+02  1.07520E+03 -6.45551E+02
  1.90817E+03 -3.25716E+01  2.57495E+03  1.04982E+03  1.39544E+03  2.34555E+03  2.12036E+02  2.00749E+03
 -1.34352E+03 -1.26433E+02 -2.52803E+03  5.22446E+02 -7.08117E+02 -2.63929E+03  1.63554E+03 -3.13695E+02
  1.41573E+03 -8.03248E+02  2.24919E+02  1.17152E+03  4.61655E+02  1.07520E+03 -5.20596E+02  8.21764E+02
 -6.52356E+02  7.69438E+02 -5.65796E+02  1.76418E+02  5.52475E+02  1.17275E+03 -1.45050E+03  1.41777E+03
 -1.38276E+03  1.95438E+03 -2.22603E+03 -2.41149E+02 -2.44001E+03 -3.99108E+02 -2.21239E+03 -3.44195E+02
 -2.61045E+03 -1.55288E+03  9.78025E+02 -3.02563E+03  4.48971E+02 -2.97859E+03  3.27054E+03 -1.15072E+03
  3.12325E+03  2.26982E+02  1.56398E+03  1.36502E+03 -8.01404E+02  1.32549E+03 -5.25407E+02  1.58546E+03
 -4.84518E+02  1.04238E+03 -1.55322E+03 -2.99398E+02 -1.78821E+03 -4.61459E+02 -1.01497E+03 -8.46560E+02
 -1.34966E+03 -5.87569E+02  2.01644E+02 -3.55042E+02  4.74172E+01 -4.02256E+02  3.19655E+01 -1.43636E+03
  7.47697E+02 -1.53269E+03  9.79135E+02 -8.01888E+01  3.47813E+02  4.42839E+02 -6.70222E+02  1.32923E+03
 -6.46894E+02  2.30697E+03 -1.64648E+03  9.50409E+02 -6.35281E+02 -1.00078E+03 -2.48216E+02 -1.02677E+03
 -7.04056E+02 -9.33636E+02  9.54807E+02 -1.85049E+03  1.10181E+02 -4.44579E+02 -1.38447E+02  6.96255E+02
  6.03753E+02  3.04556E+02  1.81378E+02 -6.47798E+01 -8.96675E+02  9.07428E+01  3.40049E+02  2.16717E+02
 -2.60894E+02 -4.75914E+02 -3.72837E+02  5.92229E+02  4.75177E+02 -7.77714E+01  2.16322E+02 -6.11182E+02
 -8.78616E+02  3.86105E+01 -1.30048E+03 -7.00319E+02 -6.78186E+02 -6.61315E+02 -3.69101E+02 -1.59505E+03
  8.64865E+02 -1.69805E+03  3.89189E+02  3.40327E+02  9.21547E+02 -1.04313E+03  6.85912E+02  1.50560E+03
  6.65156E+02  1.80278E+02  1.70288E+02 -1.60633E+02 -1.49630E+02  1.57236E+02  7.07249E+02  9.27084E+02
  3.69485E+02 -5.74913E+02 -3.18475E+02 -8.71455E+02 -1.12518E+03 -1.44783E+03 -6.32603E+02 -9.42601E+01
 -2.82529E+03  4.41077E+01 -1.00291E+03 -8.88735E+02  9.40897E+02 -2.56136E+03  8.14006E+02  2.38619E+02
 -3.87807E+02  5.40681E+01 -8.84199E+01 -1.52023E+02  3.42250E+02  9.43071E+02 -1.16066E+03  7.15837E+02
