 $NMID ID='MM_0lb_SNR200_15hz_g60_42.RAW', FMTDAT='(8E13.5)'
 TRAMP=1., VOLUME=1. $END
  3.09797E+05  1.13626E+03  3.38494E+05  2.50323E+05  8.45794E+04  3.37324E+05 -1.32380E+05  2.51030E+05
 -1.91899E+05  8.35303E+04 -1.12798E+05 -3.20020E+04  1.48433E+03 -5.15075E+04  5.38113E+04 -7.04306E+02
  3.70427E+04  5.24023E+04 -1.75080E+04  7.62921E+04 -6.00157E+04  6.37634E+04 -8.39636E+04  3.19010E+04
 -8.14854E+04 -1.04993E+04 -5.83007E+04 -5.14559E+04 -1.40296E+04 -6.97258E+04  2.78629E+04 -4.55689E+04
  4.03009E+04  3.87052E+03  1.60382E+04  4.79533E+04 -3.36918E+04  4.71937E+04 -6.68062E+04  2.03056E+02
 -5.33984E+04 -5.60988E+04 -7.21158E+03 -7.80544E+04  3.42672E+04 -5.65443E+04  4.87266E+04 -1.62508E+04
  4.45297E+04  1.20133E+04  3.24758E+04  2.56625E+04  1.47446E+04  2.97210E+04 -3.82950E+03  2.79400E+04
 -2.22196E+04  1.22565E+04 -1.84965E+04 -5.98570E+03  5.92137E+03 -7.27724E+03  2.28802E+04  1.33269E+04
  7.73338E+03  3.56222E+04 -3.39723E+04  3.60950E+04 -6.42677E+04  2.64804E+03 -5.76712E+04 -4.36478E+04
 -1.30390E+04 -6.45159E+04  4.03328E+04 -4.58286E+04  5.85037E+04 -2.63578E+03  3.35665E+04  3.24465E+04
 -7.11921E+03  3.76286E+04 -2.92855E+04  1.71528E+04 -3.03484E+04 -5.32615E+03 -1.75125E+04 -1.05747E+04
 -8.56442E+03 -1.35733E+04  2.78541E+01 -1.81314E+04  9.27103E+03 -2.30438E+04  1.64623E+04 -1.31160E+04
  1.15697E+04  5.85764E+03 -1.06312E+04  1.32727E+04 -2.20412E+04 -4.36918E+03 -7.63315E+03 -3.40368E+04
  2.44641E+04 -4.29071E+04  4.84272E+04 -2.00418E+04  4.54023E+04  1.95350E+04  1.59270E+04  4.48970E+04
 -1.59666E+04  3.45037E+04 -2.67937E+04  3.44877E+02 -9.52134E+03 -2.85005E+04  2.07635E+04 -3.37069E+04
  4.14364E+04 -9.98924E+03  3.64375E+04  2.33103E+04  1.85056E+04  4.66072E+04 -8.43806E+03  5.11625E+04
 -3.12946E+04  3.45683E+04 -4.27838E+04  1.00121E+04 -4.32649E+04 -1.79859E+04 -2.40631E+04 -3.91923E+04
  7.52837E+03 -3.85128E+04  3.12262E+04 -1.46613E+04  2.99179E+04  1.06559E+04  4.73150E+03  1.95336E+04
 -1.31581E+04  9.40405E+03 -1.07275E+04 -8.22252E+03  6.17862E+03 -1.03263E+04  1.81215E+04  5.56394E+03
  1.34345E+04  2.17757E+04 -5.10163E+03  2.56719E+04 -2.24758E+04  1.21691E+04 -2.82526E+04 -4.19127E+03
 -2.05175E+04 -1.85975E+04 -7.41382E+03 -2.12925E+04  3.93818E+03 -2.04790E+04  1.63616E+04 -1.95518E+04
  2.72521E+04 -1.26945E+04  3.41805E+04  1.90742E+03  2.47420E+04  2.09386E+04  3.85098E+03  3.56272E+04
 -1.84432E+04  3.09183E+04 -2.80801E+04  9.09037E+03 -2.10510E+04 -1.05042E+04 -3.73667E+03 -1.26526E+04
  9.81875E+02 -2.14298E+03 -3.63253E+03  7.84386E+03 -1.79278E+04  5.61650E+03 -1.74840E+04 -7.55951E+03
 -1.04186E+04 -2.03250E+04  5.42596E+03 -2.35009E+04  1.61126E+04 -1.58035E+04  1.93200E+04 -2.51426E+03
  1.11706E+04  1.39176E+04 -1.45084E+03  1.93501E+04 -1.33462E+04  9.99252E+03 -1.89915E+04 -4.02488E+03
 -1.40961E+04 -1.64417E+04 -6.55791E+02 -2.27163E+04  1.12160E+04 -1.84124E+04  1.86270E+04 -9.31398E+03
  1.79653E+04  3.04603E+02  1.25601E+04  5.35380E+03  6.54101E+03  2.88407E+02  9.94591E+03 -9.33510E+02
  1.80173E+04  2.27437E+03  1.93605E+04  1.41457E+04  1.27853E+04  3.02358E+04 -3.46567E+03  3.47653E+04
 -1.91551E+04  2.85188E+04 -3.11224E+04  1.35146E+04 -3.34250E+04 -3.73270E+03 -2.95899E+04 -1.89918E+04
 -1.28076E+04 -2.85875E+04  1.00606E+04 -2.52975E+04  2.15678E+04 -1.22857E+04  1.98702E+04  4.68761E+03
  7.41354E+03  1.34372E+04 -9.47717E+03  1.26230E+04 -1.67987E+04  3.19912E+03 -1.24693E+04 -1.01384E+04
 -6.20368E+01 -1.59072E+04  7.72998E+03 -1.11074E+04  9.64350E+03 -5.49165E+02  2.05338E+03  6.59906E+03
 -6.40294E+03  7.91118E+02 -6.41919E+03 -5.60391E+03  3.19430E+02 -1.43887E+04  1.03508E+04 -1.46914E+04
  1.63407E+04 -6.32657E+03  1.73532E+04  2.70887E+03  1.50235E+04  1.35220E+04  7.19244E+03  2.12507E+04
 -3.65141E+03  2.26974E+04 -1.42183E+04  1.44013E+04 -1.59009E+04  2.92386E+03 -1.30349E+04 -3.65995E+03
 -5.34371E+03 -5.06608E+03  1.70287E+01  1.42638E+03 -1.96447E+03  2.90577E+03 -5.49190E+03  3.19636E+03
 -1.04102E+04 -1.16788E+03 -1.12227E+04 -1.06143E+04 -5.77890E+03 -1.47760E+04  4.74865E+03 -1.11616E+04
  9.21114E+03 -4.82301E+03  7.75798E+03  3.48713E+03  7.63053E+02  3.87147E+03 -5.49163E+03 -1.05158E+02
 -5.52414E+03 -6.46155E+03 -1.72059E+03 -1.04165E+04  5.56212E+03 -1.20792E+04  1.47972E+04 -5.95672E+03
  1.73151E+04  2.56936E+03  1.29861E+04  9.57868E+03  1.37311E+03  1.24881E+04 -7.89568E+03  1.00663E+04
 -7.91786E+03  3.93532E+03 -4.79015E+03 -3.56269E+03  7.41422E+02 -1.77361E+03  5.70856E+03 -9.68711E+02
  5.02120E+03  4.22479E+03  4.27103E+02  9.70441E+03 -6.72419E+03  7.56851E+03 -1.10217E+04  1.68334E+03
 -8.41368E+03 -6.24391E+03 -9.13363E+02 -9.20796E+03  5.68631E+03 -3.40214E+03  6.67305E+03  1.21612E+03
  1.87120E+03  5.14602E+03 -5.28159E+03  6.79653E+03 -8.45709E+03  3.29975E+03 -8.44218E+03 -3.71483E+03
 -5.72076E+03 -9.31449E+03  1.84368E+03 -1.18723E+04  9.50838E+03 -8.51615E+03  1.05580E+04  2.15363E+03
  7.09362E+03  8.30191E+03 -6.82116E+02  1.09467E+04 -7.71022E+03  6.88779E+03 -8.07824E+03 -7.09540E+02
 -7.93438E+03 -7.08278E+03 -2.24341E+03 -7.52729E+03  4.48112E+03 -7.14322E+03  4.54025E+03 -2.65965E+03
  3.54797E+03  3.16883E+02 -1.19319E+03  2.45527E+03 -1.01972E+02 -9.78795E+02  1.99689E+03 -3.69821E+03
  6.63700E+03 -1.10061E+03  1.03270E+04  6.93727E+02  9.93225E+03  4.24945E+03  6.66527E+03  1.19942E+04
 -3.16412E+03  1.32621E+04 -1.26955E+04  9.84291E+03 -1.43415E+04  3.14888E+03 -1.16684E+04 -3.90987E+03
 -5.45552E+03 -1.05048E+04  7.90971E+01 -9.26261E+03  1.79793E+03 -4.83102E+03  2.80641E+03 -2.59331E+03
  2.53048E+03 -7.88555E+02  2.59769E+03 -3.07188E+03  5.37771E+03 -1.20224E+03  5.53786E+03 -4.28203E+02
  6.10771E+03  9.67238E+02  2.59526E+03  5.55982E+03 -1.90333E+03  6.37651E+03 -6.42267E+03  4.27235E+03
 -8.56335E+03 -8.71721E+02 -5.33304E+03 -5.76846E+03 -2.71076E+02 -8.38774E+03  5.40043E+03 -9.04427E+03
  9.18391E+03 -5.85262E+03  1.07519E+04  1.41628E+03  7.73250E+03  6.43551E+03  2.64037E+02  9.51332E+03
 -4.73870E+03  8.24543E+03 -5.72422E+03  4.26464E+03 -3.18310E+03 -2.65706E+03 -3.27172E+02 -9.56019E+02
 -2.53999E+02  7.17582E+02 -1.95001E+03  2.98636E+03 -3.11160E+03  3.01072E+03 -7.59240E+03  3.82370E+02
 -3.12563E+03 -4.65429E+03  2.59230E+02 -8.04936E+03  4.42046E+03 -6.41287E+03  7.71850E+03 -2.72192E+03
  7.09012E+03  4.47902E+03  3.99870E+03  7.06964E+03 -8.49084E+02  7.49065E+03 -4.77755E+03  4.73616E+03
 -6.41573E+03  6.14739E+02 -5.47953E+03 -4.34460E+03 -9.93576E+01 -6.50429E+03  1.99938E+03 -2.59063E+03
  5.22577E+03 -1.21187E+03  3.47035E+03  1.92549E+03 -7.22109E+01  1.84304E+03  1.02041E+03  1.56862E+03
  2.36366E+03 -5.52880E+02  1.86823E+03  1.26851E+03  2.07446E+03  2.20108E+03  2.61104E+03  3.37291E+03
 -2.16801E+03  7.03287E+03 -5.65282E+03  6.29129E+03 -7.67113E+03  1.46920E+03 -7.91739E+03 -3.00094E+03
 -3.41554E+03 -6.75060E+03  1.48779E+03 -8.03285E+03  5.07197E+03 -5.59646E+03  5.80569E+03 -5.34148E+02
  5.29668E+03  3.04820E+03  5.15455E+02  5.16151E+03 -2.63600E+03  2.77150E+03 -1.92407E+03 -2.05715E+03
 -1.40057E+03 -2.56616E+03  1.85961E+03 -1.84774E+03  3.17591E+03 -2.36423E+03  3.14547E+03  7.18737E+02
  1.51152E+03  1.11778E+03  2.02231E+02  5.58485E+02 -8.06745E+02  1.64460E+03  2.68334E+03  3.62426E+02
 -9.60120E+01 -5.95556E+02  2.69273E+03  1.01894E+03  1.95884E+03  4.61889E+03 -4.00493E+02  4.59126E+03
 -2.30370E+03  2.54549E+03 -3.70267E+03  1.18327E+03 -3.42784E+03 -2.17446E+03  3.70712E+02 -2.42959E+03
  1.41808E+03 -2.76869E+03  2.10819E+03 -2.12590E+03  1.65339E+03  2.37167E+03 -4.45415E+02  2.01020E+03
 -2.37137E+03  1.58076E+03 -2.09820E+03 -1.60673E+03 -7.46390E+02 -4.14817E+03  5.57595E+02 -3.04272E+03
  1.35814E+03 -2.70843E+03  2.76351E+03 -3.91353E+02  2.48079E+03  3.79237E+02  8.14297E+02  2.35176E+03
 -3.08894E+02  9.36839E+02 -1.98212E+03  4.08945E+02  9.67563E+02 -1.69271E+03  3.18630E+03 -1.92030E+03
  2.98616E+03 -8.70299E+02  3.64729E+03  2.06997E+03  2.11255E+03  3.71436E+03 -1.56312E+03  4.40885E+03
 -3.56760E+03  2.58701E+01 -2.90931E+03 -7.03490E+02 -2.37327E+03 -2.27561E+03  1.72245E+03 -2.66804E+03
  3.21097E+03 -1.17293E+03  2.59528E+03  4.86634E+02  3.87801E+02  1.97630E+03  1.83473E+03  1.53244E+03
 -1.68750E+03  2.38075E+03 -4.69403E+02  1.28519E+03  4.86407E+02 -8.45249E+01 -6.55186E+02  1.25920E+03
 -1.55671E+03  2.10240E+03 -3.32313E+03  9.83244E+02 -4.32934E+03  1.41462E+03 -4.36438E+03 -1.66925E+03
 -2.92870E+03 -5.00707E+03  6.13114E+02 -5.27925E+03  4.21620E+03 -4.85340E+03  6.22071E+03 -2.78332E+03
  4.60135E+03  7.55329E+02  2.26675E+03  3.08081E+03 -4.28461E+02  2.37930E+03 -5.18810E+02  2.83527E+03
 -2.08478E+03  1.42898E+03 -1.44636E+03 -6.51540E+02 -3.61869E+02  3.76012E+02 -1.16603E+03 -2.10238E+02
 -8.50122E+02  7.31396E+02  8.48739E+02  3.92332E+02  1.54960E+02 -1.54291E+03 -9.20699E+02 -9.53874E+02
  1.86949E+03 -1.91871E+03  2.81454E+03  1.72597E+01  2.51214E+03  1.82406E+03 -5.14100E+02  3.19091E+03
 -2.29627E+03  3.25289E+03 -4.90746E+03  1.63776E+03 -4.59205E+03 -8.44402E+02 -3.65112E+03 -3.50284E+03
 -5.28678E+02 -3.00693E+03  5.74912E+02 -3.81231E+03  1.52492E+03 -2.36312E+03  2.10609E+03 -5.78510E+02
  1.91843E+03  1.94709E+03 -8.19079E+02  4.94161E+02 -2.16023E+03 -9.20876E+02  1.07940E+02 -2.44505E+02
  1.64475E+03 -1.94236E+02  4.18285E+02  1.17672E+03 -2.86863E+02  1.31810E+03 -1.25514E+03  1.37731E+03
 -5.36499E+02  1.77685E+03 -9.86961E+02 -3.80713E+02 -1.86434E+03 -3.15411E+03 -9.00956E+02 -3.43179E+03
  1.28348E+03 -2.00113E+03  1.95255E+03  7.67766E+02  2.54229E+03 -1.50150E+03  8.16487E+02  1.65459E+03
  9.63337E+02  1.26287E+03 -6.53640E+02  9.73586E+02 -1.54871E+03  1.05784E+03 -1.36706E+03  2.77587E+02
 -7.50654E+02  6.12096E+02 -8.86709E+02  3.84304E+02 -5.39320E+02 -5.49765E+01 -8.85245E+02  4.32216E+02
 -2.03290E+03  4.09130E+02 -8.03248E+02 -1.26914E+02  2.38236E+03 -2.59722E+03  2.12632E+03 -1.01898E+03
  2.34503E+03  6.16390E+02  6.92236E+01 -1.56681E+02  1.87652E+02  2.13147E+03 -6.93576E+02  2.06107E+02
