 $NMID ID='MM_0lb_SNR200_16hz_g60_15.RAW', FMTDAT='(8E13.5)'
 TRAMP=1., VOLUME=1. $END
  3.10558E+05  1.21048E+03  3.38020E+05  2.50513E+05  8.51351E+04  3.37346E+05 -1.33325E+05  2.50820E+05
 -1.91282E+05  8.33003E+04 -1.11847E+05 -3.23202E+04  9.35078E+02 -5.04735E+04  5.43454E+04 -6.59817E+02
  3.58425E+04  5.32880E+04 -1.73322E+04  7.46409E+04 -6.05504E+04  6.41071E+04 -8.42830E+04  3.26534E+04
 -8.07682E+04 -1.11911E+04 -5.72093E+04 -5.14275E+04 -1.60441E+04 -6.93912E+04  2.75531E+04 -4.54028E+04
  4.02789E+04  4.91986E+03  1.62745E+04  4.73721E+04 -3.42807E+04  4.71498E+04 -6.58051E+04 -4.72525E+02
 -5.37835E+04 -5.63516E+04 -7.54160E+03 -7.76020E+04  3.40521E+04 -5.60440E+04  4.75363E+04 -1.86614E+04
  4.25344E+04  1.26074E+04  3.24660E+04  2.70108E+04  1.64448E+04  2.87080E+04 -3.95919E+03  2.73330E+04
 -2.16434E+04  1.16453E+04 -1.76672E+04 -4.62880E+03  5.72067E+03 -7.47010E+03  2.17944E+04  1.20275E+04
  8.57284E+03  3.52405E+04 -3.20796E+04  3.64670E+04 -6.32965E+04  2.71034E+03 -5.69957E+04 -4.24095E+04
 -1.24521E+04 -6.23318E+04  3.86436E+04 -4.50311E+04  5.87788E+04 -1.16355E+03  3.39567E+04  3.39119E+04
 -5.59042E+03  3.62847E+04 -3.03974E+04  1.54800E+04 -2.96764E+04 -4.06301E+03 -1.78230E+04 -9.95390E+03
 -7.28793E+03 -1.28071E+04 -5.97366E+02 -1.76233E+04  7.47937E+03 -2.24428E+04  1.51259E+04 -1.28172E+04
  1.26131E+04  5.88813E+03 -8.23996E+03  1.24692E+04 -2.07438E+04 -3.91081E+03 -8.76442E+03 -3.36838E+04
  2.27253E+04 -4.26572E+04  4.78044E+04 -2.01414E+04  4.49350E+04  1.99743E+04  1.48978E+04  4.42039E+04
 -1.59503E+04  3.32063E+04 -2.53111E+04  1.99075E+03 -9.36465E+03 -2.72569E+04  2.06490E+04 -3.35674E+04
  4.14831E+04 -8.94793E+03  3.49696E+04  2.33374E+04  1.90209E+04  4.55938E+04 -8.01132E+03  4.97902E+04
 -3.22095E+04  3.36325E+04 -4.25775E+04  7.64770E+03 -4.25562E+04 -1.53828E+04 -2.40282E+04 -3.76985E+04
  7.72945E+03 -3.76859E+04  3.12355E+04 -1.45088E+04  2.89766E+04  1.12681E+04  4.99525E+03  1.94992E+04
 -1.37993E+04  9.09774E+03 -1.10323E+04 -8.40255E+03  6.00256E+03 -1.07740E+04  1.85006E+04  6.41826E+03
  1.21866E+04  2.19320E+04 -5.82527E+03  2.54829E+04 -2.16530E+04  1.11558E+04 -2.71594E+04 -5.35177E+03
 -2.14372E+04 -1.72241E+04 -8.52581E+03 -2.00529E+04  5.00625E+03 -1.97258E+04  1.46903E+04 -1.70026E+04
  2.55039E+04 -1.26189E+04  3.19649E+04  2.21002E+03  2.38784E+04  1.86884E+04  4.28361E+03  3.60037E+04
 -1.77505E+04  3.12337E+04 -2.77163E+04  1.07530E+04 -2.11546E+04 -1.06330E+04 -3.83544E+03 -1.32741E+04
  2.38321E+03 -2.40228E+03 -4.97876E+03  5.89034E+03 -1.58954E+04  6.34848E+03 -1.73837E+04 -5.86881E+03
 -1.07744E+04 -1.79877E+04  7.17720E+03 -2.21301E+04  1.44107E+04 -1.64791E+04  1.84445E+04 -8.92303E+02
  1.18774E+04  1.29939E+04 -9.88453E+02  1.83867E+04 -1.32754E+04  1.06150E+04 -1.82086E+04 -3.99656E+03
 -1.30948E+04 -1.55893E+04 -2.86139E+03 -2.21906E+04  1.03693E+04 -1.81107E+04  1.81341E+04 -8.58760E+03
  1.71744E+04 -2.29978E+02  1.25457E+04  3.36653E+03  7.88658E+03  1.35417E+03  9.65010E+03 -2.15205E+03
  1.73945E+04  1.97558E+03  1.84549E+04  1.34063E+04  1.06802E+04  2.94496E+04 -3.02145E+03  3.20896E+04
 -1.88241E+04  2.69878E+04 -3.06107E+04  1.44978E+04 -3.13964E+04 -2.67792E+03 -2.59103E+04 -1.93683E+04
 -1.19182E+04 -2.79688E+04  9.18657E+03 -2.47296E+04  2.13705E+04 -1.28830E+04  1.94852E+04  4.79164E+03
  7.39945E+03  1.42664E+04 -9.12192E+03  1.31016E+04 -1.48039E+04  2.18331E+03 -1.14354E+04 -1.00861E+04
 -3.35830E+02 -1.55139E+04  8.03458E+03 -1.26830E+04  9.76593E+03 -4.83323E+02  1.52331E+03  6.92376E+03
 -7.55522E+03  3.05762E+03 -5.33765E+03 -6.14024E+03  1.49480E+03 -1.28049E+04  1.00835E+04 -1.35214E+04
  1.64935E+04 -6.58416E+03  1.74913E+04  3.45892E+03  1.49898E+04  1.37300E+04  7.10606E+03  1.83239E+04
 -2.37593E+03  2.13506E+04 -1.29663E+04  1.29792E+04 -1.54525E+04  3.44307E+03 -1.14381E+04 -3.27369E+03
 -4.88699E+03 -3.41656E+03 -2.08844E+03  1.81333E+03 -1.41945E+03  2.10545E+03 -4.82297E+03  5.16442E+03
 -1.13425E+04 -1.11499E+03 -1.16524E+04 -9.01937E+03 -4.05584E+03 -1.33520E+04  3.61747E+03 -1.07016E+04
  8.72452E+03 -5.00394E+03  6.12964E+03  1.88628E+03  2.76391E+02  3.51232E+03 -6.12181E+03  1.58592E+02
 -5.49121E+03 -6.01219E+03 -1.47620E+03 -1.00502E+04  5.20268E+03 -1.21053E+04  1.22042E+04 -6.84586E+03
  1.58623E+04  1.78541E+02  1.13274E+04  9.00577E+03  1.68445E+03  1.13992E+04 -6.84742E+03  1.11045E+04
 -8.61343E+03  3.53303E+03 -3.97421E+03 -2.04249E+03  2.36555E+03 -2.10475E+03  6.06103E+03 -1.14114E+02
  4.78744E+03  4.35453E+03  1.42947E+03  7.68159E+03 -7.15068E+03  8.39285E+03 -1.05074E+04  2.57732E+03
 -6.94054E+03 -4.91103E+03 -1.84941E+02 -8.60905E+03  5.29007E+03 -4.26486E+03  4.63832E+03  1.47327E+03
  9.27285E+02  5.46150E+03 -6.07966E+03  6.63039E+03 -7.61805E+03  2.39888E+03 -8.06786E+03 -3.48575E+03
 -5.67195E+03 -8.61046E+03  1.47939E+03 -9.66879E+03  8.52063E+03 -6.68074E+03  1.00827E+04  1.59189E+03
  5.92275E+03  6.37208E+03 -3.59138E+02  9.87862E+03 -7.23103E+03  5.21951E+03 -7.90014E+03 -1.80795E+02
 -6.30260E+03 -5.09900E+03 -1.52072E+03 -6.60532E+03  3.93069E+03 -5.83745E+03  2.83142E+03 -2.69769E+03
  2.48130E+03  6.38438E+02 -1.32474E+03  9.79508E+02 -4.35007E+01 -6.85239E+02  1.66109E+03 -3.59082E+03
  5.96018E+03 -2.43885E+03  7.26946E+03  9.10982E+02  8.37113E+03  4.28659E+03  6.85845E+03  1.06038E+04
 -1.74748E+03  1.21748E+04 -1.10329E+04  9.15203E+03 -1.40827E+04  6.15333E+02 -1.11718E+04 -5.07765E+03
 -6.31961E+03 -9.70835E+03  1.02237E+03 -7.48413E+03  2.29524E+03 -4.21132E+03  2.30473E+03 -3.83898E+03
  2.17806E+03 -1.96100E+03  3.00844E+03 -3.06055E+03  3.85381E+03 -1.24390E+03  4.15932E+03  8.84515E+02
  6.53014E+03  8.10217E+02  1.74540E+03  4.88777E+03 -1.33927E+03  4.62067E+03 -6.49238E+03  4.05694E+03
 -7.01240E+03 -1.63599E+03 -4.09657E+03 -4.84321E+03  5.71814E+02 -6.89460E+03  4.63992E+03 -7.73490E+03
  7.07565E+03 -5.03858E+03  9.56957E+03  3.86773E+02  6.01637E+03  5.26179E+03  1.35253E+03  9.19597E+03
 -3.09744E+03  8.22883E+03 -5.57569E+03  2.82399E+03 -2.27869E+03 -1.62409E+03 -6.98607E+02 -2.13531E+03
  4.02346E+02  1.20388E+03 -2.50475E+03  2.77986E+03 -2.95287E+03  2.34060E+03 -5.32737E+03  3.37926E+02
 -2.85304E+03 -6.93708E+03 -1.99736E+02 -6.36103E+03  4.29458E+03 -5.53123E+03  6.58912E+03 -2.00473E+03
  6.68396E+03  4.45269E+03  3.10677E+03  5.36204E+03 -1.73235E+03  6.22979E+03 -4.45966E+03  3.73593E+03
 -5.16226E+03 -1.75670E+02 -5.33435E+03 -4.24933E+03 -1.37071E+03 -5.28282E+03  2.24118E+03 -3.80823E+03
  4.56437E+03 -2.20489E+03  2.17112E+03  1.17592E+03  1.18023E+03  3.80320E+03  1.62555E+03  1.31184E+03
  1.90241E+03  9.72168E+02  2.14963E+03  4.01847E+02  2.04632E+03  3.20532E+03  2.19477E+03  3.00353E+03
 -1.06882E+03  4.98579E+03 -4.28288E+03  6.15169E+03 -7.00689E+03  8.57298E+02 -6.61083E+03 -2.06406E+03
 -2.47855E+03 -6.83707E+03 -3.18923E+02 -7.54137E+03  3.51500E+03 -4.10030E+03  4.30348E+03 -1.06556E+03
  3.52843E+03  2.13765E+03  5.90594E+02  3.72619E+03 -1.13201E+03  1.39130E+03 -1.22005E+03  9.82371E+01
 -7.91181E+02 -1.87007E+03  2.27666E+03 -2.14389E+03  2.61348E+03 -1.54700E+03  1.52653E+03  2.27329E+02
  8.03495E+02  4.21579E+01  2.22017E+02  3.39296E+02 -1.34244E+03  7.98135E+02  1.11177E+03 -3.40058E+02
  9.16399E+02 -5.06150E+02  2.42472E+03  1.97555E+03  1.41076E+02  3.90751E+03 -2.10232E+02  4.99261E+03
 -1.48696E+03  9.97984E+02 -3.72448E+03 -1.76938E+02 -3.18441E+03 -1.00370E+03 -1.27287E+03 -2.76844E+03
  3.21063E+02 -1.49996E+03  1.57295E+03 -1.57258E+03  1.31409E+03  1.17026E+03 -9.31145E+01  2.07599E+03
 -3.06800E+03  2.68455E+02 -2.55531E+03 -2.03010E+03 -1.54446E+03 -2.72589E+03 -4.57568E+02 -1.65222E+03
  1.20457E+03 -1.12335E+03 -5.36127E+02  1.76771E+02  8.96518E+02 -3.58100E+02 -7.07031E+01  1.17756E+03
 -1.15430E+03 -6.15428E+02 -1.90107E+03 -1.60052E+03  8.56582E+02 -1.66746E+03  2.35933E+03 -3.40498E+03
  2.56819E+03  4.63932E+02  4.02056E+03  1.02822E+03  1.68405E+03  3.29162E+03 -1.66199E+03  3.56732E+03
 -2.95167E+03  4.82782E+02 -3.03585E+03 -1.35675E+03 -2.11775E+03 -2.10098E+03  9.35111E+02 -1.35217E+03
  2.42735E+03 -1.21003E+03  8.05837E+02  1.27290E+03  1.42807E+03  1.79899E+03 -3.54711E+02  2.66107E+03
 -6.53363E+02  1.62519E+03  3.14907E+01 -5.48841E+02 -2.62860E+02  1.38004E+01 -1.67858E+03  9.44653E+02
 -9.42310E+02  2.69490E+03 -3.38299E+03  1.60889E+03 -3.18499E+03 -3.14871E+02 -3.33451E+03 -2.55069E+03
 -1.88936E+03 -2.26174E+03 -3.29306E+02 -3.81138E+03  3.00176E+03 -3.83284E+03  4.61902E+03 -1.47245E+03
  3.42333E+03 -2.44359E+02  2.32353E+03  1.52431E+03 -8.94292E+02  2.23555E+03 -2.35637E+02  2.23710E+03
 -1.90658E+03  1.72629E+03 -1.59028E+03 -1.32278E+03 -8.73064E+02  5.50234E+02  8.94665E+01  3.68527E+02
 -2.23519E+03  8.84986E+02 -1.12841E+03  1.13288E+03  1.36402E+02 -7.53858E+02 -5.35299E+02 -1.47325E+03
  1.01456E+03 -1.07430E+03  2.15208E+03 -8.61461E+02  1.82213E+03  1.57262E+03  2.58945E+02  1.65831E+03
 -2.46277E+03  4.81121E+03 -2.79398E+03  1.87371E+03 -3.67642E+03 -8.69719E+01 -3.45976E+03 -2.04519E+03
 -2.01414E+03 -2.70929E+03  6.63282E+02 -2.94774E+03  2.34867E+03 -1.36054E+03  2.25203E+02  2.58931E+02
  3.89969E+02  8.99905E+02 -1.19781E+02  1.00250E+03 -1.39240E+02  2.16035E+02  1.21714E+03 -4.96295E+02
  2.35781E+02 -5.62203E+02 -2.96907E+02  1.59198E+03  3.53668E+02  1.14102E+03  1.22292E+03  5.67895E+02
 -1.75466E+02  2.00883E+03 -1.78262E+03  1.43582E+01 -1.32467E+03 -9.91809E+02 -3.90886E+02 -2.52592E+03
  1.77876E+03 -1.44299E+03  7.47331E+01 -4.40796E+01  1.80122E+03 -7.61264E+02  7.02547E+02  1.11267E+03
  1.33673E+03  1.80896E+03  3.92418E+02  1.81124E+03 -1.44644E+03  1.10777E+03  9.63534E+02 -3.00188E+02
  1.08098E+02 -2.23005E+02 -1.00813E+03 -8.08734E+02 -8.25511E+02 -3.25569E+02 -1.61273E+03 -2.40612E+02
 -2.18059E+03  3.37958E+02 -4.28159E+02 -1.75028E+03  1.67549E+03 -1.51538E+03  8.72306E+02 -1.17352E+03
  1.49363E+03  3.08627E+02  4.38967E+02 -7.34636E+02 -8.49408E+02  1.06263E+03 -8.71285E+02  1.08640E+03
