 $NMID ID='MM_0lb_SNR200_10hz_g55_93.RAW', FMTDAT='(8E13.5)'
 TRAMP=1., VOLUME=1. $END
  3.09369E+05  7.04855E+02  3.38194E+05  2.51928E+05  8.40319E+04  3.38870E+05 -1.32610E+05  2.50926E+05
 -1.91298E+05  8.27957E+04 -1.11915E+05 -3.21318E+04  1.34748E+03 -5.08817E+04  5.35445E+04 -1.08826E+03
  3.60366E+04  5.39326E+04 -1.69078E+04  7.60101E+04 -6.08527E+04  6.54464E+04 -8.51582E+04  3.28185E+04
 -8.20460E+04 -1.20624E+04 -5.73665E+04 -5.18601E+04 -1.39547E+04 -7.09760E+04  2.82777E+04 -4.63810E+04
  4.00784E+04  4.48841E+03  1.68171E+04  4.72220E+04 -3.50280E+04  4.65827E+04 -6.85677E+04  1.17098E+03
 -5.44435E+04 -5.79599E+04 -7.85374E+03 -7.89785E+04  3.38132E+04 -5.59791E+04  5.10078E+04 -1.80714E+04
  4.59187E+04  1.07015E+04  3.29170E+04  2.52776E+04  1.56265E+04  3.06396E+04 -5.86532E+03  2.78864E+04
 -2.13773E+04  1.22333E+04 -1.81040E+04 -4.64629E+03  7.21352E+03 -8.33465E+03  2.31022E+04  1.31704E+04
  7.64819E+03  3.71503E+04 -3.29711E+04  3.76817E+04 -6.44344E+04  1.24720E+03 -5.87597E+04 -4.32196E+04
 -1.12119E+04 -6.52016E+04  4.03682E+04 -4.66496E+04  6.12165E+04 -1.81481E+03  3.57234E+04  3.32062E+04
 -5.91228E+03  3.64399E+04 -3.09945E+04  1.90065E+04 -3.36568E+04 -4.73982E+03 -1.97301E+04 -1.19980E+04
 -9.44729E+03 -1.42856E+04  2.28777E+02 -1.85798E+04  8.30311E+03 -2.35297E+04  1.55031E+04 -1.14948E+04
  9.56626E+03  6.87127E+03 -9.68577E+03  1.28403E+04 -2.33977E+04 -6.30856E+03 -9.16704E+03 -3.62835E+04
  2.52185E+04 -4.65827E+04  5.28334E+04 -1.97408E+04  4.66543E+04  2.16911E+04  1.75643E+04  4.71785E+04
 -1.77128E+04  3.52733E+04 -2.76826E+04  3.85177E+03 -1.12755E+04 -2.86766E+04  2.09297E+04 -3.74341E+04
  4.47650E+04 -1.10728E+04  3.98750E+04  2.53076E+04  2.17202E+04  5.01634E+04 -6.94216E+03  5.69886E+04
 -3.50410E+04  3.69397E+04 -4.74549E+04  1.15819E+04 -4.71932E+04 -1.75203E+04 -2.53343E+04 -4.13068E+04
  6.97109E+03 -4.19346E+04  3.44194E+04 -1.69067E+04  3.19827E+04  1.09757E+04  4.95265E+03  2.24015E+04
 -1.29756E+04  8.62479E+03 -1.10480E+04 -6.34463E+03  6.32949E+03 -1.11864E+04  1.80097E+04  7.08104E+03
  1.35981E+04  2.38658E+04 -5.38689E+03  2.60148E+04 -2.26551E+04  1.28568E+04 -3.23043E+04 -3.93116E+03
 -2.56911E+04 -1.81761E+04 -1.14650E+04 -2.44920E+04  4.12081E+03 -2.60095E+04  1.95189E+04 -2.41720E+04
  3.31799E+04 -1.42712E+04  3.81497E+04  4.26831E+03  2.66212E+04  2.32087E+04  3.92668E+03  4.04253E+04
 -1.87316E+04  3.31377E+04 -3.02122E+04  1.13580E+04 -2.17112E+04 -1.04941E+04 -6.24295E+03 -1.16858E+04
  1.32016E+03 -7.63207E+02 -6.94273E+03  8.11796E+03 -2.07069E+04  4.80103E+03 -2.01864E+04 -1.05307E+04
 -1.05809E+04 -2.09185E+04  6.15713E+03 -2.63287E+04  1.81759E+04 -2.00462E+04  2.19668E+04 -1.08258E+03
  1.41769E+04  1.51366E+04 -7.62468E+02  2.33216E+04 -1.58599E+04  1.34219E+04 -2.17154E+04 -4.28943E+03
 -1.76732E+04 -1.99832E+04 -1.91810E+03 -2.81351E+04  1.22613E+04 -2.27038E+04  2.27743E+04 -1.18821E+04
  2.08437E+04 -3.37839E+02  1.47798E+04  5.52114E+03  7.84421E+03  1.86513E+03  1.18779E+04 -2.48937E+03
  2.19702E+04  4.55803E+03  2.59054E+04  1.78055E+04  1.72176E+04  3.80504E+04 -2.75361E+03  4.16324E+04
 -2.48869E+04  3.53085E+04 -3.96953E+04  1.84349E+04 -4.31856E+04 -4.61413E+03 -3.51727E+04 -2.60143E+04
 -1.30069E+04 -3.49820E+04  1.44944E+04 -3.14751E+04  2.74757E+04 -1.49251E+04  2.49451E+04  7.81806E+03
  9.39636E+03  1.65797E+04 -1.16839E+04  1.48760E+04 -1.92891E+04  1.26562E+03 -1.67185E+04 -1.34859E+04
  5.12674E+02 -1.93320E+04  9.07449E+03 -1.41477E+04  1.24864E+04 -8.15091E+02  3.81245E+03  8.72356E+03
 -7.12062E+03  4.07801E+03 -9.64292E+03 -6.38178E+03 -1.64706E+03 -1.62576E+04  1.18448E+04 -2.06558E+04
  2.21078E+04 -1.13884E+04  2.53400E+04  6.35337E+02  2.19331E+04  1.79666E+04  9.27306E+03  2.76376E+04
 -4.44290E+03  3.13349E+04 -1.95482E+04  1.83901E+04 -2.20780E+04  3.81275E+03 -1.53977E+04 -5.71225E+03
 -7.39998E+03 -6.68534E+03 -1.78495E+03  3.71199E+02 -3.26755E+03  2.67509E+03 -6.63397E+03  5.77991E+03
 -1.30499E+04 -1.52780E+03 -1.35908E+04 -1.21148E+04 -5.90966E+03 -1.84971E+04  7.74235E+03 -1.58371E+04
  1.29468E+04 -6.92958E+03  8.30397E+03  4.73392E+03 -6.87349E+02  5.39062E+03 -6.56311E+03 -3.88655E+02
 -7.16311E+03 -1.02566E+04 -2.23511E+03 -1.46488E+04  8.84487E+03 -1.52977E+04  1.98745E+04 -8.92836E+03
  2.38248E+04  1.86360E+03  1.60385E+04  1.27757E+04  2.64304E+03  1.75911E+04 -8.46629E+03  1.48811E+04
 -1.10375E+04  5.40124E+03 -6.02162E+03 -3.38149E+03  8.16242E+02 -4.73958E+03  7.42952E+03 -1.95112E+03
  7.81284E+03  7.05466E+03  1.36174E+03  1.12552E+04 -9.40298E+03  1.33578E+04 -1.50215E+04  2.21505E+03
 -1.00916E+04 -9.05890E+03  4.91915E+02 -1.24475E+04  7.41491E+03 -6.49602E+03  1.11143E+04  4.21658E+03
  1.90891E+03  9.74453E+03 -7.76631E+03  1.02956E+04 -1.30579E+04  4.66945E+03 -1.34670E+04 -5.08299E+03
 -6.88621E+03 -1.58340E+04  4.23106E+03 -1.74298E+04  1.39986E+04 -9.72052E+03  1.56281E+04  2.65870E+03
  9.15680E+03  1.12713E+04  2.56438E+02  1.56955E+04 -1.11646E+04  8.88413E+03 -1.15614E+04 -7.76109E+02
 -9.87623E+03 -1.08086E+04 -3.15445E+03 -1.17271E+04  6.20868E+03 -8.79615E+03  5.95004E+03 -3.90660E+03
  5.15311E+03  2.53229E+03 -5.65256E+02  2.64164E+03 -1.32440E+03 -2.37233E+03  1.48104E+03 -7.54438E+03
  1.17806E+04 -4.40602E+03  1.63043E+04  1.53771E+03  1.40207E+04  9.84880E+03  9.71397E+03  2.01595E+04
 -4.18086E+03  2.28318E+04 -1.91256E+04  1.63932E+04 -2.31948E+04  4.23963E+03 -1.97239E+04 -9.85575E+03
 -9.17018E+03 -1.70244E+04 -6.86609E+02 -1.41498E+04  4.93680E+03 -6.95360E+03  5.00077E+03 -4.99659E+03
  3.29224E+03 -3.01854E+03  4.24440E+03 -3.77415E+03  5.43432E+03 -3.56283E+03  7.98078E+03 -2.70363E+03
  9.79326E+03  1.27603E+03  6.11569E+03  9.05455E+03 -2.90638E+03  1.04944E+04 -1.19200E+04  7.70249E+03
 -1.39157E+04 -1.05791E+03 -8.58618E+03 -1.13806E+04 -1.21107E+03 -1.45613E+04  9.86402E+03 -1.46786E+04
  1.63400E+04 -8.78294E+03  1.78321E+04  3.04548E+03  1.23501E+04  1.20558E+04  7.83838E+02  1.55181E+04
 -6.64758E+03  1.33021E+04 -8.13064E+03  5.08997E+03 -5.92218E+03 -4.89679E+02 -1.76437E+03 -2.29936E+03
 -1.26759E+03 -1.86966E+02 -3.85239E+03  3.49195E+03 -4.64136E+03  1.19503E+03 -9.30501E+03 -7.80303E+02
 -7.00736E+03 -7.58198E+03 -4.42349E+02 -1.25977E+04  8.24707E+03 -1.17252E+04  1.39101E+04 -4.23019E+03
  1.29410E+04  6.14337E+03  5.07149E+03  1.22496E+04 -2.44537E+03  1.34340E+04 -1.06541E+04  8.36894E+03
 -1.16745E+04  3.82080E+02 -9.53523E+03 -8.02251E+03 -6.84368E+02 -1.12105E+04  4.60369E+03 -8.76776E+03
  8.16146E+03 -3.68953E+03  6.95671E+03  2.91551E+03  1.62763E+03  4.91847E+03  2.76819E+03  6.66023E+02
  1.58340E+03 -4.44166E+02  3.96109E+03  6.66643E+02  3.81179E+03  4.18605E+03  4.42848E+03  6.44406E+03
 -2.93179E+03  9.30201E+03 -8.83980E+03  1.06800E+04 -1.30169E+04  2.77098E+03 -1.27935E+04 -4.83967E+03
 -6.37310E+03 -1.29518E+04  2.01928E+03 -1.45579E+04  8.25358E+03 -9.52633E+03  9.74235E+03 -1.75577E+03
  8.28998E+03  6.00676E+03  2.38622E+03  7.37157E+03 -3.71093E+03  4.28230E+03 -5.82329E+03 -1.57832E+02
 -2.70593E+03 -8.30175E+03  3.86998E+03 -7.21295E+03  7.34046E+03 -2.38345E+03  4.63719E+03  2.19641E+03
  2.48822E+03  2.45887E+03  2.38952E+03  2.24364E+03 -2.05165E+03  2.05168E+03  1.57981E+03 -1.09483E+03
  1.45261E+03 -2.27967E+03  4.87014E+03  2.70814E+03  3.25406E+03  7.50249E+03 -1.04629E+03  9.32415E+03
 -7.48790E+03  5.47093E+03 -9.14361E+03  1.11723E+03 -8.47090E+03 -2.86234E+03 -1.83830E+03 -5.03903E+03
  5.95883E+02 -5.68029E+03  2.40170E+03 -1.94575E+03  2.15267E+03  3.07200E+03 -1.50409E+03  5.66308E+03
 -6.11457E+03  4.27085E+03 -7.04386E+03 -3.32089E+03 -4.28556E+03 -8.79530E+03  1.97154E+03 -7.34355E+03
  3.34322E+03 -3.98215E+03  5.40070E+03  2.57629E+01  3.93943E+03  1.01108E+03  1.01311E+03  4.06536E+03
 -3.84961E+03  3.05055E+03 -4.80213E+03 -2.68782E+03  1.72511E+03 -6.12680E+03  6.98389E+03 -5.63467E+03
  7.11972E+03  1.77057E+03  7.62566E+03  5.82701E+03  2.92176E+03  9.83788E+03 -3.65241E+03  7.08710E+03
 -7.93174E+03  4.70734E+03 -6.56761E+03 -2.12619E+03 -2.75870E+03 -4.90296E+03  2.73650E+03 -6.93863E+03
  5.82410E+03 -3.40560E+03  4.47088E+03  3.47121E+03  2.19605E+03  4.72844E+03  1.06005E+03  5.57784E+03
 -2.36291E+03  2.85055E+03 -2.61988E+03  9.55242E+02 -9.42136E+02  2.22127E+03 -3.72565E+02  9.65335E+02
 -2.25745E+03  2.34094E+03 -6.31660E+03  2.68319E+03 -8.99533E+03 -3.61520E+02 -1.09204E+04 -6.16377E+03
 -5.84882E+03 -1.19631E+04  1.67268E+03 -1.39184E+04  8.61957E+03 -1.08099E+04  1.21910E+04 -3.85962E+03
  1.17217E+04  2.28594E+03  6.46085E+03  7.98310E+03  1.80061E+03  9.90302E+03 -3.12266E+03  5.15962E+03
 -4.62793E+03  3.08212E+03 -4.37232E+03 -9.14598E+02 -2.34096E+03 -2.40973E+03 -1.21718E+03  8.54254E+01
 -1.51471E+03 -5.78256E+02 -1.75114E+03  5.92510E+02  6.92107E+02 -1.91967E+03  8.99791E+02 -2.93960E+03
  2.85681E+03 -4.45728E+03  5.98998E+03 -6.74952E+02  6.54938E+03  6.46659E+03  1.25032E+03  9.84560E+03
 -4.87864E+03  1.10673E+04 -8.92116E+03  5.39536E+03 -1.05252E+04 -1.45954E+03 -8.57848E+03 -6.10802E+03
 -2.23104E+03 -9.00430E+03  1.25492E+03 -7.81081E+03  4.40214E+03 -5.97060E+03  7.33233E+03 -1.40840E+03
  9.84880E+02  3.21018E+03 -6.15243E+02  2.22945E+03 -1.21296E+03 -1.08847E+03  3.99527E+02 -2.72961E+03
  5.00610E+03 -9.58541E+02  4.16249E+03  2.23472E+03  1.76913E+03  3.90874E+03 -1.42174E+03  5.64963E+03
 -3.92509E+03  4.04514E+03 -6.45394E+03  1.29759E+03 -5.40489E+03 -5.19738E+03 -2.04691E+02 -8.55438E+03
  4.51797E+03 -6.64204E+03  7.26017E+03 -1.72751E+03  5.95541E+03 -7.10067E+02  4.10702E+03  5.46983E+03
 -1.93457E+02  7.29019E+03 -3.13643E+03  4.05720E+03 -4.36461E+03  2.94679E+03 -2.06934E+03  1.51468E+03
 -1.65639E+03 -5.98705E+02 -4.10623E+01  2.13059E+03 -3.28143E+03  1.33287E+03 -3.83294E+03 -1.11437E+03
 -6.46574E+03 -2.65483E+03 -1.15165E+03 -5.06582E+03  2.11847E+03 -5.18129E+03  5.96200E+03 -2.88268E+03
  4.51511E+03 -3.98364E+02  2.59761E+03  4.19492E+03 -7.37071E+02  5.76087E+03 -5.46778E+03  3.98772E+03
