 $NMID ID='MM_0lb_SNR200_14hz_g40_53.RAW', FMTDAT='(8E13.5)'
 TRAMP=1., VOLUME=1. $END
  3.08823E+05  1.80206E+02  3.37256E+05  2.51325E+05  8.53202E+04  3.38705E+05 -1.33036E+05  2.51422E+05
 -1.89147E+05  8.38479E+04 -1.11651E+05 -3.27671E+04  1.21376E+03 -4.89330E+04  5.39988E+04 -1.44366E+03
  3.57375E+04  5.34953E+04 -1.73810E+04  7.54044E+04 -6.13560E+04  6.25736E+04 -8.30257E+04  3.20396E+04
 -8.09592E+04 -1.09649E+04 -5.68423E+04 -4.96498E+04 -1.48729E+04 -7.03699E+04  2.65757E+04 -4.51823E+04
  3.90298E+04  5.00473E+03  1.64739E+04  4.82607E+04 -3.32748E+04  4.68644E+04 -6.68632E+04 -3.60601E+02
 -5.34649E+04 -5.77571E+04 -6.91375E+03 -7.52032E+04  3.43976E+04 -5.37649E+04  4.75722E+04 -1.65533E+04
  4.24144E+04  1.15832E+04  3.17066E+04  2.52849E+04  1.66578E+04  2.79854E+04 -5.78960E+03  2.59819E+04
 -2.32848E+04  1.22214E+04 -1.84568E+04 -5.24694E+03  5.07082E+03 -7.20488E+03  2.23917E+04  1.28482E+04
  7.98502E+03  3.64461E+04 -3.19503E+04  3.62124E+04 -6.29736E+04  2.69287E+03 -5.77801E+04 -4.26539E+04
 -1.24982E+04 -6.32294E+04  3.78607E+04 -4.51255E+04  5.76212E+04 -1.94095E+03  3.46831E+04  3.12117E+04
 -5.73022E+03  3.53647E+04 -2.89577E+04  1.41066E+04 -2.83613E+04 -5.33784E+03 -1.67963E+04 -1.11579E+04
 -7.91620E+03 -1.26448E+04 -5.12443E+02 -1.86032E+04  6.79612E+03 -2.38198E+04  1.51048E+04 -1.31209E+04
  1.23348E+04  4.90258E+03 -8.34980E+03  1.35903E+04 -2.10663E+04 -3.25441E+03 -7.47567E+03 -3.24816E+04
  2.18732E+04 -4.23164E+04  4.86983E+04 -1.98738E+04  4.44267E+04  2.00594E+04  1.59363E+04  4.44319E+04
 -1.55551E+04  3.25800E+04 -2.46173E+04  6.62165E+02 -8.81977E+03 -2.78483E+04  2.09759E+04 -3.36468E+04
  4.08590E+04 -9.10894E+03  3.53208E+04  2.30826E+04  1.76267E+04  4.58012E+04 -7.24056E+03  4.95450E+04
 -3.01208E+04  3.32124E+04 -4.13348E+04  8.29425E+03 -4.21410E+04 -1.66120E+04 -2.33644E+04 -3.70788E+04
  7.28964E+03 -3.59022E+04  3.17006E+04 -1.49621E+04  2.82795E+04  1.08819E+04  2.72286E+03  1.84342E+04
 -1.39185E+04  8.70733E+03 -9.99694E+03 -7.61788E+03  5.89663E+03 -9.96542E+03  1.74231E+04  7.34801E+03
  1.37028E+04  2.19923E+04 -5.58527E+03  2.43074E+04 -2.22035E+04  1.10754E+04 -2.66116E+04 -4.22313E+03
 -1.92002E+04 -1.72238E+04 -8.45916E+03 -1.92886E+04  4.30038E+03 -1.93606E+04  1.52038E+04 -1.80582E+04
  2.48497E+04 -1.22087E+04  3.17085E+04  2.58583E+03  2.42463E+04  1.86401E+04  3.78239E+03  3.58345E+04
 -1.64921E+04  2.89674E+04 -2.76686E+04  1.08354E+04 -2.05663E+04 -9.54491E+03 -3.98793E+03 -1.36026E+04
  2.01592E+03 -2.42872E+03 -5.68566E+03  6.57369E+03 -1.59425E+04  6.60625E+03 -1.60692E+04 -6.65505E+03
 -9.61286E+03 -1.71730E+04  3.79204E+03 -2.17103E+04  1.45521E+04 -1.53773E+04  1.76813E+04 -1.71814E+03
  1.06846E+04  1.30507E+04 -1.10556E+03  1.88034E+04 -1.23132E+04  1.06212E+04 -1.75322E+04 -3.98714E+03
 -1.37682E+04 -1.60883E+04 -9.40942E+02 -2.25956E+04  9.65107E+03 -1.72094E+04  1.81332E+04 -8.73298E+03
  1.73631E+04  5.22507E+02  1.25118E+04  4.08573E+03  6.07305E+03  9.01845E+02  8.99010E+03 -1.54603E+03
  1.70098E+04  3.03553E+03  1.93430E+04  1.39846E+04  1.23679E+04  2.88355E+04 -2.83852E+03  3.15393E+04
 -1.95137E+04  2.55551E+04 -3.08676E+04  1.36385E+04 -3.12741E+04 -3.07593E+03 -2.66491E+04 -1.91734E+04
 -1.08444E+04 -2.51394E+04  8.59667E+03 -2.37420E+04  2.04630E+04 -1.20996E+04  1.84661E+04  4.31373E+03
  7.78352E+03  1.36624E+04 -9.73255E+03  1.25911E+04 -1.64527E+04  2.43597E+03 -1.12648E+04 -9.85953E+03
  1.20623E+03 -1.48134E+04  7.61522E+03 -1.14721E+04  9.52877E+03 -1.60084E+03  2.19130E+03  6.50677E+03
 -6.07974E+03  3.22867E+02 -6.13896E+03 -4.91984E+03 -3.57672E+02 -1.32610E+04  9.13295E+03 -1.28156E+04
  1.51794E+04 -7.16308E+03  1.72656E+04  2.79997E+03  1.51351E+04  1.25589E+04  7.14311E+03  1.93190E+04
 -2.62684E+03  2.07156E+04 -1.43568E+04  1.41287E+04 -1.48498E+04  4.17609E+03 -1.12212E+04 -3.07158E+03
 -5.31197E+03 -4.21391E+03  1.17705E+02  8.09169E+02 -2.81538E+03  3.19478E+03 -5.51983E+03  4.45785E+03
 -1.14389E+04  1.15499E+03 -1.10203E+04 -8.71488E+03 -3.52572E+03 -1.45333E+04  5.25950E+03 -1.13167E+04
  9.94701E+03 -3.62464E+03  7.14714E+03  2.45323E+03  4.93222E+02  4.86677E+03 -5.60444E+03 -3.61687E+02
 -4.02426E+03 -7.01020E+03 -4.78822E+02 -1.06574E+04  6.56357E+03 -1.01341E+04  1.30838E+04 -6.23082E+03
  1.64257E+04  7.70948E+02  1.18424E+04  8.44936E+03  1.09696E+03  1.23085E+04 -7.13692E+03  9.70452E+03
 -8.99188E+03  3.51044E+03 -3.63249E+03 -1.06322E+03  1.68215E+03 -1.79064E+03  6.18086E+03 -6.57009E+01
  5.21068E+03  4.53039E+03  1.06776E+03  9.22066E+03 -5.67679E+03  8.64377E+03 -1.01259E+04  2.23579E+03
 -6.36211E+03 -4.25623E+03  4.44957E+02 -9.40178E+03  5.21295E+03 -3.67445E+03  5.83644E+03  1.46168E+03
  1.59077E+03  6.33651E+03 -6.23880E+03  6.44815E+03 -6.59712E+03  3.07993E+03 -8.08759E+03 -3.12578E+03
 -4.28469E+03 -9.74694E+03  9.50495E+02 -1.05293E+04  8.93433E+03 -6.76740E+03  8.64948E+03  1.95431E+03
  5.78786E+03  8.11593E+03  1.50606E+03  1.00934E+04 -6.48642E+03  6.35771E+03 -9.34209E+03 -8.84597E+02
 -6.40184E+03 -6.81268E+03 -1.74775E+03 -7.86830E+03  3.16566E+03 -6.29722E+03  4.43257E+03 -3.03770E+03
  2.26648E+03  1.25811E+03 -8.09213E+02  1.87796E+03 -1.23496E+03 -1.82867E+03  1.79799E+03 -4.16844E+03
  6.13507E+03 -2.11362E+03  1.00843E+04  1.59026E+03  8.31127E+03  5.63598E+03  7.14495E+03  1.19099E+04
 -2.26704E+03  1.40501E+04 -1.13807E+04  9.49291E+03 -1.38922E+04  1.54790E+03 -1.33945E+04 -4.80413E+03
 -6.67737E+03 -9.70167E+03 -9.98984E+02 -9.27570E+03  2.62795E+03 -4.39603E+03  1.62773E+03 -3.51235E+03
  9.29661E+02 -1.86551E+03  2.96755E+03 -3.79339E+03  4.44692E+03 -2.45034E+03  4.55123E+03  7.81795E+02
  6.10331E+03  1.76864E+03  1.78181E+03  5.72557E+03 -8.75332E+02  6.24189E+03 -8.01359E+03  4.46713E+03
 -7.91031E+03 -5.32603E+02 -2.91524E+03 -6.30417E+03 -6.20930E+01 -8.63520E+03  4.80696E+03 -7.85095E+03
  9.24645E+03 -5.46408E+03  1.06120E+04  1.39011E+01  7.59891E+03  7.38627E+03  1.49389E+03  9.48005E+03
 -4.76089E+03  7.61498E+03 -6.22829E+03  3.33315E+03 -4.51214E+03 -8.71896E+02 -1.48440E+03  2.77848E+02
  7.07502E+02 -7.05675E+02 -1.72786E+03  2.11313E+03 -4.06974E+03  1.37747E+03 -5.30302E+03 -1.57356E+03
 -3.03473E+03 -6.12879E+03  1.35143E+02 -7.98648E+03  3.95627E+03 -8.12399E+03  6.76639E+03 -2.35718E+03
  6.80232E+03  4.50599E+03  4.44824E+03  6.03365E+03 -9.93294E+02  7.48296E+03 -3.86257E+03  5.01483E+03
 -7.10021E+03 -2.69666E+02 -4.98085E+03 -5.29947E+03  4.26955E+02 -5.44641E+03  2.89117E+03 -4.48813E+03
  3.73418E+03 -1.56407E+03  3.65200E+03  1.02065E+03  4.96107E+02  2.33162E+03  5.56924E+02  7.22112E+02
  3.56998E+03  5.05963E+00  1.65625E+03  1.52068E+03  1.38673E+03  4.17520E+03  2.74839E+03  3.21290E+03
 -2.02569E+03  5.40444E+03 -5.03857E+03  4.90440E+03 -7.12442E+03  1.35160E+03 -6.93506E+03 -1.80333E+03
 -3.94753E+03 -6.48769E+03  4.73716E+02 -8.28741E+03  3.40218E+03 -5.46191E+03  6.44491E+03 -1.45186E+03
  4.12507E+03  3.23602E+03  6.91230E+02  3.82500E+03 -2.58274E+03  2.23927E+03 -2.29729E+03 -1.04093E+03
 -9.86915E+02 -3.22430E+03  2.55831E+03 -3.54018E+03  3.51546E+03 -1.66802E+03  2.86624E+03  1.91190E+03
  1.29958E+03  1.99727E+03 -6.45657E+00  5.40938E+02 -3.92546E+02  1.51328E+03  1.85980E+03 -7.30987E+02
  1.43982E+03 -6.80798E+02  2.83663E+03  1.65029E+03  6.92534E+02  4.64830E+03  1.69830E+02  5.72046E+03
 -2.77868E+03  3.81155E+03 -4.78721E+03  2.44889E+03 -4.10052E+03 -2.17719E+03 -3.77181E+02 -3.17324E+03
  4.73560E+02 -3.14720E+03  2.58639E+03 -9.93290E+02  1.24700E+03  2.73409E+03 -1.79586E+03  1.82909E+03
 -3.26110E+03  1.36380E+03 -3.40171E+03 -1.27280E+03 -1.97844E+03 -4.15744E+03 -4.49900E+01 -2.29427E+03
  1.79079E+03 -1.65869E+03  2.33523E+03  6.93787E+01  2.39544E+03  6.78702E+02  4.34168E+02  1.66751E+03
 -9.39221E+02 -6.89153E+02 -1.15929E+03 -9.88094E+02 -1.37460E+02 -1.86193E+03  3.17890E+03 -3.86257E+03
  3.75866E+03 -1.73763E+02  5.58902E+03  2.53791E+03  1.72092E+03  4.64074E+03 -1.48847E+03  3.48566E+03
 -2.63796E+03  1.84922E+03 -3.99339E+03 -9.62716E+02 -2.31624E+03 -2.26799E+03  9.02981E+02 -2.27023E+03
  2.18829E+03 -1.52538E+03  1.89986E+03  1.30597E+03  9.07048E+02  1.88338E+03 -2.38589E+02  2.70633E+03
 -2.13972E+03  1.25376E+03 -1.01414E+03 -1.40570E+02 -6.60722E+02  1.05967E+03 -5.05304E+02  2.01839E+03
 -1.32004E+03  2.67384E+03 -3.09254E+03  1.25320E+03 -3.61372E+03 -6.71316E+02 -3.85435E+03 -2.30670E+03
 -2.73561E+03 -6.36425E+03  1.22556E+03 -5.45085E+03  3.20041E+03 -4.45876E+03  5.62655E+03 -1.64597E+03
  5.32934E+03  9.99049E+02  2.71827E+03  4.15938E+03  4.70606E+02  4.29649E+03 -1.51498E+03  3.21720E+03
 -3.01980E+03  1.06612E+03 -1.73848E+03  1.55103E+02 -5.47971E+02 -3.63006E+02 -5.87771E+02 -3.12243E+02
 -1.50234E+03  7.09685E+02 -1.73383E+03  4.31077E+02  8.02454E+02 -1.80409E+03 -8.26538E+02 -2.69865E+03
  2.92152E+03 -4.62103E+02  1.42003E+03 -4.50006E+02  1.64914E+03  1.54498E+03 -8.31746E+02  3.80271E+03
 -1.39672E+03  4.79429E+03 -4.53703E+03  3.13949E+03 -5.48099E+03 -1.47031E+02 -3.12869E+03 -2.78759E+03
 -1.96031E+03 -3.84326E+03  9.17151E+02 -3.89418E+03  2.02987E+03 -2.45983E+03  1.94707E+03  8.51035E+02
  1.09285E+03  3.71191E+02  2.71458E+02  1.40778E+03 -8.20602E+02 -8.14945E+02 -1.38894E+02 -1.43463E+03
  2.24337E+03 -1.05789E+03  1.91468E+03  1.04069E+03  1.33362E+03  1.68492E+03  6.94259E+02  1.82889E+03
 -1.51967E+03  1.95688E+03 -1.13652E+03 -1.82856E+02 -1.58482E+03 -2.22036E+03 -2.41802E+02 -2.34975E+03
  2.34315E+03 -2.85360E+03  8.69023E+02  2.27634E+02  3.26512E+03  4.56362E+01  1.08093E+03  2.41892E+03
 -1.57322E+02  2.23143E+03 -7.68489E+01  9.39018E+02 -1.60754E+03  4.34002E+01 -1.73685E+03  3.39889E+02
 -4.93143E+01  6.35221E+02 -1.27653E+03  3.79022E+02 -2.48069E+03  3.61904E+01 -1.28974E+03  4.53274E+02
 -1.96077E+03 -1.69975E+03 -8.52068E+01 -3.21630E+03  1.65316E+03 -3.28049E+03  3.80981E+03 -1.25711E+02
  1.47276E+03 -2.39580E+01  1.80787E+03  1.64303E+03  2.04573E+02  2.57329E+03 -1.40383E+03  1.23308E+03
