 $NMID ID='MM_0lb_SNR200_10hz_g50_72.RAW', FMTDAT='(8E13.5)'
 TRAMP=1., VOLUME=1. $END
  3.10613E+05  7.14111E+02  3.38843E+05  2.52066E+05  8.41879E+04  3.37337E+05 -1.33016E+05  2.51078E+05
 -1.92113E+05  8.38345E+04 -1.14164E+05 -3.18079E+04  1.54476E+03 -5.03686E+04  5.31873E+04  4.31991E+02
  3.57936E+04  5.25140E+04 -1.67441E+04  7.51900E+04 -6.21164E+04  6.37497E+04 -8.46956E+04  3.32174E+04
 -8.20601E+04 -1.20700E+04 -5.94537E+04 -5.33593E+04 -1.60401E+04 -7.04375E+04  2.88937E+04 -4.59703E+04
  4.11278E+04  2.98474E+03  1.62285E+04  4.69673E+04 -3.56412E+04  4.84319E+04 -6.84654E+04 -3.26165E+02
 -5.43518E+04 -5.67536E+04 -8.96407E+03 -7.80833E+04  3.43268E+04 -5.67240E+04  4.90244E+04 -1.80877E+04
  4.36057E+04  1.10034E+04  3.15261E+04  2.61978E+04  1.62885E+04  3.19884E+04 -6.36206E+03  2.73028E+04
 -2.24082E+04  1.17075E+04 -1.90341E+04 -5.48856E+03  6.67868E+03 -7.72625E+03  2.52117E+04  1.38381E+04
  7.38190E+03  3.52525E+04 -3.35955E+04  3.62321E+04 -6.50390E+04  2.56822E+03 -5.82710E+04 -4.48359E+04
 -1.35727E+04 -6.51805E+04  4.19869E+04 -4.59230E+04  6.00644E+04 -1.74407E+03  3.73656E+04  3.59326E+04
 -3.96176E+03  3.77062E+04 -3.12414E+04  1.74305E+04 -3.31272E+04 -4.06321E+03 -1.92863E+04 -1.24774E+04
 -1.00718E+04 -1.43700E+04 -1.46788E+02 -2.09305E+04  8.75663E+03 -2.23121E+04  1.49414E+04 -1.35863E+04
  1.09955E+04  5.48137E+03 -1.04124E+04  1.21345E+04 -2.35107E+04 -6.20245E+03 -7.97719E+03 -3.61688E+04
  2.33495E+04 -4.58635E+04  5.11527E+04 -1.99042E+04  4.74604E+04  2.12615E+04  1.64765E+04  4.58081E+04
 -1.63525E+04  3.41471E+04 -2.79135E+04  1.08245E+03 -9.85373E+03 -2.88125E+04  2.16693E+04 -3.68027E+04
  4.39525E+04 -1.10685E+04  3.89936E+04  2.33087E+04  2.08025E+04  4.97565E+04 -6.92619E+03  5.59452E+04
 -3.45755E+04  3.71666E+04 -4.79632E+04  1.17334E+04 -4.71311E+04 -1.86176E+04 -2.56145E+04 -3.97030E+04
  7.68590E+03 -4.07236E+04  3.28983E+04 -1.50755E+04  3.18672E+04  1.23163E+04  3.53256E+03  2.16898E+04
 -1.26325E+04  9.17083E+03 -1.16871E+04 -6.56721E+03  5.44000E+03 -1.33549E+04  1.84212E+04  6.58810E+03
  1.43710E+04  2.22604E+04 -5.66505E+03  2.59526E+04 -2.31777E+04  1.25479E+04 -3.10423E+04 -3.35336E+03
 -2.51827E+04 -1.91424E+04 -1.07216E+04 -2.38700E+04  4.70960E+03 -2.54708E+04  1.87129E+04 -2.05079E+04
  3.08554E+04 -1.26312E+04  3.66599E+04  3.22306E+03  2.54907E+04  2.46234E+04  4.29977E+03  4.03506E+04
 -1.91284E+04  3.28336E+04 -2.96301E+04  1.06598E+04 -2.24628E+04 -1.01841E+04 -5.29157E+03 -1.30126E+04
  2.12058E+03 -4.06446E+02 -7.15720E+03  6.61241E+03 -2.00292E+04  3.99784E+03 -2.01035E+04 -1.06080E+04
 -1.09873E+04 -2.35113E+04  6.63144E+03 -2.66950E+04  1.91038E+04 -1.89777E+04  2.07110E+04 -1.63098E+03
  1.36075E+04  1.58485E+04 -2.17281E+03  2.07002E+04 -1.61291E+04  1.29306E+04 -2.18427E+04 -5.49565E+03
 -1.65788E+04 -1.94022E+04 -3.54362E+03 -2.59930E+04  1.09919E+04 -2.10925E+04  2.20807E+04 -1.11724E+04
  2.30105E+04  6.94555E+02  1.47460E+04  5.95911E+03  7.71747E+03  9.96768E+02  1.23913E+04 -2.05353E+03
  1.98117E+04  3.12911E+03  2.46766E+04  1.80888E+04  1.71684E+04  3.67757E+04 -2.53148E+03  4.25642E+04
 -2.52966E+04  3.38891E+04 -3.99973E+04  1.94624E+04 -4.25094E+04 -2.96897E+03 -3.54609E+04 -2.61152E+04
 -1.42341E+04 -3.61310E+04  1.28746E+04 -3.08085E+04  2.64172E+04 -1.43407E+04  2.28973E+04  7.74344E+03
  8.14395E+03  1.74468E+04 -1.10380E+04  1.63388E+04 -1.88644E+04  1.05894E+03 -1.51122E+04 -1.34788E+04
  7.88437E+02 -1.88217E+04  9.82668E+03 -1.32283E+04  1.17129E+04 -1.04724E+03  2.95000E+03  6.41877E+03
 -8.08000E+03  5.94644E+02 -7.66973E+03 -7.61105E+03 -2.42041E+03 -1.74844E+04  1.21556E+04 -1.97451E+04
  2.13169E+04 -1.12172E+04  2.54898E+04  2.64560E+03  2.04775E+04  1.67882E+04  1.01238E+04  2.76315E+04
 -6.18345E+03  3.01207E+04 -1.95831E+04  1.87828E+04 -1.97619E+04  3.26772E+03 -1.43202E+04 -5.53737E+03
 -5.64099E+03 -5.34825E+03 -1.45675E+02  8.29062E+02 -4.22953E+03  3.41924E+03 -5.87118E+03  4.36995E+03
 -1.29872E+04 -2.41250E+01 -1.49712E+04 -9.81930E+03 -7.68088E+03 -1.62165E+04  5.90647E+03 -1.42159E+04
  1.20546E+04 -5.02958E+03  7.16072E+03  3.38953E+03  1.75332E+02  4.30122E+03 -6.42015E+03 -1.34454E+03
 -5.93083E+03 -9.61390E+03 -1.35062E+03 -1.30857E+04  7.78135E+03 -1.57735E+04  1.98925E+04 -9.56724E+03
  2.14495E+04  2.06743E+03  1.69975E+04  1.20147E+04  3.74165E+03  1.78439E+04 -8.71105E+03  1.51779E+04
 -1.24382E+04  3.15584E+03 -4.42337E+03 -3.59362E+03  2.13827E+03 -3.84843E+03  8.51177E+03 -1.98246E+03
  6.54614E+03  7.73369E+03  1.05343E+03  1.22760E+04 -8.21008E+03  1.02603E+04 -1.53183E+04  3.80218E+03
 -9.42032E+03 -8.01652E+03 -9.50595E+01 -1.37708E+04  7.84802E+03 -6.80375E+03  9.03227E+03  3.97553E+03
  2.85302E+03  1.00099E+04 -7.38404E+03  9.59818E+03 -1.29042E+04  4.76573E+03 -1.35758E+04 -5.23513E+03
 -7.77052E+03 -1.47550E+04  3.28872E+03 -1.65609E+04  1.56571E+04 -1.05572E+04  1.66100E+04  2.52412E+03
  9.35465E+03  1.26521E+04 -1.09532E+03  1.29945E+04 -1.06754E+04  9.46985E+03 -1.36153E+04 -7.06717E+02
 -1.04151E+04 -9.36114E+03 -3.30472E+03 -1.18052E+04  4.87825E+03 -8.85165E+03  7.09085E+03 -3.84553E+03
  5.78437E+03  2.33861E+02 -8.30232E+02  1.76591E+03 -1.19570E+03 -1.89645E+03  2.28922E+02 -8.64443E+03
  1.14359E+04 -3.60606E+03  1.33673E+04  2.73352E+03  1.40078E+04  9.17900E+03  9.12156E+03  1.95158E+04
 -4.74815E+03  2.27065E+04 -1.96214E+04  1.62848E+04 -2.46671E+04  3.70292E+03 -1.95934E+04 -7.00765E+03
 -7.86992E+03 -1.58433E+04 -1.21701E+03 -1.28671E+04  4.78128E+03 -7.60279E+03  3.37702E+03 -2.93534E+03
  3.14327E+03 -4.78845E+03  2.35734E+03 -3.48585E+03  6.23795E+03 -2.52215E+03  7.67760E+03 -2.68582E+02
  8.68031E+03  2.33287E+03  5.71638E+03  7.60948E+03 -2.76065E+03  8.69597E+03 -9.45618E+03  7.02238E+03
 -1.28186E+04 -5.05724E+02 -9.31889E+03 -1.00358E+04 -1.72732E+03 -1.42952E+04  9.72415E+03 -1.43840E+04
  1.57634E+04 -6.73346E+03  1.71449E+04  1.47921E+03  1.19045E+04  1.39463E+04  1.64220E+03  1.72236E+04
 -6.01130E+03  1.33247E+04 -9.10023E+03  4.56005E+03 -5.96515E+03 -1.74223E+03 -2.56481E+03 -7.80094E+02
 -7.58134E+02 -1.40628E+01 -2.15363E+03  3.16173E+03 -5.95854E+03  2.78580E+03 -9.15065E+03 -3.18702E+02
 -5.70228E+03 -8.47243E+03 -1.78627E+02 -1.21960E+04  8.04455E+03 -1.28190E+04  1.25750E+04 -3.19069E+03
  1.37997E+04  6.39326E+03  6.48777E+03  1.09459E+04 -2.66783E+03  1.16373E+04 -9.74025E+03  8.48026E+03
 -1.15018E+04  7.44424E+02 -1.05079E+04 -6.78606E+03 -1.13703E+03 -1.33974E+04  5.44448E+03 -6.82140E+03
  6.56720E+03 -3.08124E+03  7.35494E+03  1.64536E+03  3.04551E+03  3.95627E+03  2.60701E+03  1.51385E+03
  1.24811E+03 -5.32509E+02  4.54391E+03  2.03371E+03  4.98790E+03  4.53481E+03  5.70752E+03  6.96514E+03
 -3.76386E+03  9.47852E+03 -9.56327E+03  8.82131E+03 -1.28901E+04  2.17708E+03 -1.44117E+04 -6.32457E+03
 -6.04150E+03 -1.20339E+04  1.37246E+03 -1.52764E+04  7.62066E+03 -8.76217E+03  1.11637E+04 -1.89339E+03
  6.38453E+03  4.48493E+03  2.34569E+03  7.50380E+03 -5.32960E+03  6.43904E+03 -5.05369E+03  7.82703E+02
 -1.95999E+03 -6.23099E+03  5.64035E+03 -5.82773E+03  5.34892E+03 -2.53985E+03  3.89416E+03  7.01376E+02
  2.34111E+03  2.00095E+03  2.07311E+03  2.36777E+03 -1.73851E+03  1.93984E+03  1.18600E+03 -1.19998E+03
  3.76459E+03 -2.22209E+03  5.26765E+03  1.58725E+03  3.89209E+03  7.99473E+03 -6.94401E+02  8.43104E+03
 -4.82873E+03  5.07441E+03 -7.29034E+03  1.74120E+03 -7.37181E+03 -2.51329E+03 -2.79445E+03 -5.77522E+03
  1.33548E+03 -4.75976E+03  3.25586E+03 -2.74142E+03  1.64224E+03  2.49140E+03 -6.64968E+02  5.28793E+03
 -6.37460E+03  3.32842E+03 -6.27855E+03 -3.02799E+03 -3.79998E+03 -7.45350E+03  9.84095E+02 -7.53372E+03
  4.34186E+03 -3.23745E+03  5.08297E+03 -1.23235E+03  4.44651E+03  3.55231E+02  1.64255E+03  5.72278E+03
 -1.75120E+03  1.20104E+03 -4.40717E+03 -2.96844E+03  1.49820E+03 -6.55452E+03  7.47471E+03 -4.24297E+03
  7.95057E+03  1.56610E+03  8.57272E+03  3.84422E+03  2.78886E+03  7.90625E+03 -2.89414E+03  8.71420E+03
 -6.44091E+03  2.69704E+03 -6.98126E+03 -1.80944E+03 -4.53473E+03 -6.50686E+03  1.30909E+03 -5.03108E+03
  5.01761E+03 -3.79479E+03  5.57050E+03  1.92415E+03  3.39117E+03  5.99119E+03  9.07570E+02  4.51171E+03
 -6.69043E+02  1.80037E+03 -3.01223E+03 -5.20245E+02 -9.45139E+02  1.50070E+03 -8.42908E+02  1.46490E+03
 -3.02803E+03  1.18977E+03 -6.11216E+03  2.65056E+03 -9.01691E+03 -1.24309E+02 -9.87774E+03 -7.31645E+03
 -5.01123E+03 -9.84927E+03  1.54792E+03 -1.31068E+04  7.88817E+03 -1.07044E+04  1.20205E+04 -3.02398E+03
  1.17161E+04  2.84867E+03  8.15324E+03  8.50352E+03  1.00489E+03  9.50487E+03 -2.95908E+03  7.72311E+03
 -4.79916E+03  2.19111E+03 -2.64552E+03 -1.34763E+03 -2.16231E+02 -1.64670E+02 -4.28082E+02  1.79234E+02
 -1.37648E+03 -8.04696E+02 -1.89432E+03 -1.22804E+03 -1.67039E+03 -3.67162E+03  4.34759E+02 -3.85818E+03
  4.21743E+03 -3.45048E+03  4.82339E+03 -8.00502E+02  6.24374E+03  4.38224E+03  6.48610E+02  8.19112E+03
 -4.07270E+03  1.07371E+04 -9.61845E+03  6.98469E+03 -9.68553E+03 -3.93405E+02 -7.57910E+03 -6.43883E+03
 -3.30735E+03 -9.45739E+03  1.40229E+03 -8.53200E+03  5.68867E+03 -4.69786E+03  6.13747E+03  2.10573E+03
  4.78340E+03  1.73180E+03  1.62711E+01  3.35361E+03 -9.36290E+02 -4.66466E+02  3.20783E+01 -1.21129E+03
  3.03697E+03 -9.96410E+02  3.25579E+03 -2.26594E+02  3.90942E+03  3.99347E+03  2.15888E+03  4.26495E+03
 -4.30693E+03  3.96866E+03 -6.44622E+03  3.14924E+02 -6.37793E+03 -3.46835E+03 -3.91386E+02 -6.53605E+03
  3.28926E+03 -6.81957E+03  8.74338E+03 -1.02600E+03  5.46948E+03  6.11373E+02  4.96170E+03  4.12876E+03
  9.43433E+02  4.96950E+03 -1.79185E+03  5.14495E+03 -4.10151E+03  2.10316E+03 -3.48216E+03  2.23026E+03
 -1.98532E+03 -1.28036E+03 -9.98857E+02  6.97908E+02 -3.83117E+03  6.01192E+02 -4.20514E+03 -1.79558E+03
 -5.30559E+03 -2.07123E+03 -2.50605E+03 -5.40882E+03  3.51098E+03 -6.36029E+03  5.33898E+03 -1.54571E+03
  7.03768E+03 -9.36382E+02  3.40601E+03  4.85594E+03 -9.90338E+02  6.55140E+03 -4.20325E+03  3.71516E+03
