 $NMID ID='MM_0lb_SNR200_10hz_g60_45.RAW', FMTDAT='(8E13.5)'
 TRAMP=1., VOLUME=1. $END
  3.09620E+05  1.67700E+03  3.36945E+05  2.50417E+05  8.52790E+04  3.37850E+05 -1.32013E+05  2.50056E+05
 -1.90775E+05  8.41208E+04 -1.14176E+05 -3.29663E+04 -3.73671E+02 -5.18585E+04  5.25002E+04  4.74973E+02
  3.54101E+04  5.31841E+04 -1.59115E+04  7.58724E+04 -6.18719E+04  6.51843E+04 -8.56324E+04  3.29184E+04
 -8.37574E+04 -1.21173E+04 -5.79810E+04 -5.31751E+04 -1.45431E+04 -7.10208E+04  2.65934E+04 -4.71475E+04
  4.21129E+04  4.47469E+03  1.70055E+04  4.78957E+04 -3.42168E+04  4.72923E+04 -6.79731E+04 -7.51343E+02
 -5.46553E+04 -5.65608E+04 -7.14643E+03 -7.97244E+04  3.47610E+04 -5.68108E+04  5.15023E+04 -1.85445E+04
  4.63278E+04  1.15987E+04  3.17231E+04  2.82042E+04  1.44565E+04  3.18022E+04 -5.80923E+03  2.92280E+04
 -2.33258E+04  1.07665E+04 -1.89290E+04 -5.99369E+03  7.24247E+03 -8.29109E+03  2.34235E+04  1.30655E+04
  7.74383E+03  3.79412E+04 -3.44008E+04  3.68977E+04 -6.56437E+04  2.07908E+03 -6.02639E+04 -4.41993E+04
 -1.27730E+04 -6.52567E+04  4.21830E+04 -4.86996E+04  6.05821E+04 -3.65629E+03  3.75661E+04  3.60796E+04
 -5.29993E+03  3.96627E+04 -3.10263E+04  1.87145E+04 -3.33153E+04 -3.93121E+03 -2.06365E+04 -1.24105E+04
 -8.40358E+03 -1.46756E+04 -3.07034E+02 -2.00953E+04  9.74226E+03 -2.40233E+04  1.50853E+04 -1.23903E+04
  9.99639E+03  6.04068E+03 -9.38385E+03  1.29128E+04 -2.20817E+04 -7.83250E+03 -1.03191E+04 -3.65405E+04
  2.51448E+04 -4.60516E+04  5.30020E+04 -2.05050E+04  4.91698E+04  1.99425E+04  1.54501E+04  4.65502E+04
 -1.77798E+04  3.69973E+04 -2.78946E+04  2.74526E+03 -1.18939E+04 -2.81707E+04  2.20645E+04 -3.71113E+04
  4.49352E+04 -1.02394E+04  4.16081E+04  2.57497E+04  2.16538E+04  5.24845E+04 -7.65266E+03  5.56998E+04
 -3.58587E+04  3.72521E+04 -4.85397E+04  9.83319E+03 -4.72880E+04 -2.00929E+04 -2.50881E+04 -4.16483E+04
  8.21873E+03 -4.15614E+04  3.57171E+04 -1.73887E+04  3.16627E+04  1.03817E+04  5.74416E+03  2.05262E+04
 -1.37654E+04  8.60646E+03 -9.92415E+03 -7.41974E+03  5.03902E+03 -9.94759E+03  1.66805E+04  6.81162E+03
  1.43364E+04  2.16202E+04 -5.15125E+03  2.68250E+04 -2.36304E+04  1.40024E+04 -3.03705E+04 -2.69203E+03
 -2.58711E+04 -1.81319E+04 -1.23467E+04 -2.56441E+04  3.90518E+03 -2.71620E+04  2.02984E+04 -2.27990E+04
  3.12291E+04 -1.42990E+04  3.89825E+04  4.82345E+03  2.76725E+04  2.36441E+04  5.20521E+03  4.26639E+04
 -1.88137E+04  3.31873E+04 -3.21863E+04  1.13038E+04 -2.19554E+04 -1.03533E+04 -5.45376E+03 -1.27118E+04
  8.27245E+02 -1.01228E+03 -5.93785E+03  7.56357E+03 -2.02995E+04  6.52633E+03 -2.00289E+04 -9.18473E+03
 -1.24528E+04 -2.37468E+04  6.63167E+03 -2.88852E+04  1.90080E+04 -1.98724E+04  2.31103E+04 -1.67396E+03
  1.49505E+04  1.50516E+04 -1.44767E+03  2.22434E+04 -1.52235E+04  1.18750E+04 -2.49970E+04 -4.45535E+03
 -1.79801E+04 -2.23689E+04 -1.83741E+03 -2.85593E+04  1.27115E+04 -2.33686E+04  2.34140E+04 -1.10167E+04
  2.14574E+04 -1.13908E+03  1.64378E+04  5.11427E+03  1.04337E+04  1.42059E+03  1.26299E+04 -9.60513E+02
  2.20783E+04  2.82840E+03  2.59243E+04  1.89035E+04  1.69232E+04  3.59694E+04 -2.57765E+03  4.37310E+04
 -2.43157E+04  3.81280E+04 -4.18285E+04  1.96699E+04 -4.64760E+04 -2.07038E+03 -3.70858E+04 -2.55067E+04
 -1.49582E+04 -3.70891E+04  1.47303E+04 -3.29944E+04  2.83017E+04 -1.54740E+04  2.38873E+04  8.05073E+03
  7.31728E+03  1.84932E+04 -1.11003E+04  1.73725E+04 -2.05150E+04  3.14708E+03 -1.57883E+04 -1.31569E+04
  5.19574E+02 -1.85205E+04  1.17954E+04 -1.35117E+04  1.32807E+04 -1.64429E+03  3.83041E+03  9.28621E+03
 -8.42851E+03  5.54065E+03 -8.64467E+03 -6.99344E+03 -2.16503E+03 -1.80104E+04  1.11718E+04 -1.94337E+04
  2.28928E+04 -1.05469E+04  2.62509E+04  3.17986E+03  2.27737E+04  1.77602E+04  9.20185E+03  2.84404E+04
 -5.79605E+03  3.07423E+04 -2.10885E+04  1.97042E+04 -2.38400E+04  2.00318E+03 -1.58653E+04 -5.94566E+03
 -6.60770E+03 -8.18040E+03 -2.80736E+01  1.07646E+03 -3.68274E+03  3.68287E+03 -7.97365E+03  5.55198E+03
 -1.42504E+04  7.65951E+02 -1.47122E+04 -1.29133E+04 -7.13950E+03 -1.86488E+04  7.53466E+03 -1.67942E+04
  1.28438E+04 -6.34300E+03  8.38050E+03  4.49281E+03  2.83346E+02  5.80463E+03 -7.38046E+03 -1.07194E+03
 -8.13613E+03 -8.57328E+03 -8.04200E+02 -1.52636E+04  9.83941E+03 -1.53041E+04  1.91511E+04 -7.67813E+03
  2.31473E+04  1.63427E+03  1.60447E+04  1.37175E+04  4.73859E+03  1.77837E+04 -1.01047E+04  1.67842E+04
 -1.17130E+04  4.33687E+03 -5.76015E+03 -4.49908E+03  9.03495E+02 -5.50778E+03  7.63478E+03 -1.39404E+03
  7.57972E+03  7.91322E+03  5.33394E+02  1.17952E+04 -9.21285E+03  1.12684E+04 -1.74537E+04  3.51529E+03
 -9.50238E+03 -6.94619E+03  1.19862E+03 -1.18208E+04  8.72103E+03 -6.50867E+03  7.26792E+03  2.23586E+03
  1.72741E+03  9.85369E+03 -8.52923E+03  1.17202E+04 -1.43445E+04  6.02672E+03 -1.43266E+04 -4.60763E+03
 -7.85936E+03 -1.44396E+04  2.80283E+03 -1.82524E+04  1.44499E+04 -1.18193E+04  1.82236E+04  2.73676E+03
  1.05203E+04  1.39312E+04 -7.76916E-01  1.75715E+04 -1.05590E+04  9.43510E+03 -1.22933E+04 -1.00565E+03
 -9.64635E+03 -1.01627E+04 -1.06817E+03 -1.09301E+04  5.33404E+03 -9.08778E+03  6.90533E+03 -2.41654E+03
  4.66393E+03  1.23704E+03 -1.95891E+03  2.24939E+03 -1.86329E+03 -4.20749E+03  1.84270E+03 -6.72953E+03
  1.12083E+04 -4.29011E+03  1.61084E+04  2.34456E+03  1.43449E+04  1.22887E+04  9.59378E+03  2.01982E+04
 -4.60682E+03  2.44378E+04 -1.94012E+04  1.64499E+04 -2.44829E+04  3.24912E+03 -1.92794E+04 -9.05817E+03
 -1.15753E+04 -1.67035E+04 -8.49382E+02 -1.44382E+04  5.45954E+03 -8.16179E+03  6.33873E+03 -4.93882E+03
  3.33836E+03 -4.16790E+03  4.37266E+03 -4.01695E+03  6.19278E+03 -3.22489E+03  8.65556E+03 -1.53794E+02
  1.07952E+04  3.56957E+03  6.14207E+03  9.45510E+03 -3.70211E+03  1.13736E+04 -1.12678E+04  7.28501E+03
 -1.43151E+04 -1.55755E+03 -9.66546E+03 -9.54672E+03 -6.22945E+02 -1.40442E+04  7.04224E+03 -1.58366E+04
  1.46346E+04 -1.02120E+04  1.95925E+04  2.84681E+03  1.34544E+04  1.42828E+04  4.08077E+03  1.60578E+04
 -6.90279E+03  1.51476E+04 -1.15725E+04  5.04369E+03 -7.26422E+03 -6.95286E+02 -4.27645E+03 -2.62220E+03
 -2.22432E+03 -1.07541E+03 -1.48963E+03  3.14019E+03 -6.55692E+03  6.14120E+02 -7.76807E+03 -1.34976E+03
 -5.45301E+03 -6.00657E+03  3.01675E+02 -1.42287E+04  8.97558E+03 -1.26994E+04  1.30725E+04 -4.27406E+03
  1.44029E+04  6.08209E+03  5.94803E+03  1.21904E+04 -3.55695E+03  1.49163E+04 -9.96387E+03  8.95344E+03
 -1.30654E+04 -1.03481E+03 -9.42246E+03 -8.74522E+03 -1.55620E+03 -1.21347E+04  6.19904E+03 -9.71570E+03
  9.49778E+03 -5.62221E+03  7.24494E+03  1.91925E+03  3.95721E+03  4.68833E+03  1.23123E+03  1.62382E+03
  1.89864E+03  2.25246E+03  3.70515E+03  6.17065E+02  5.12119E+03  4.95636E+03  3.65834E+03  7.68155E+03
 -1.44355E+03  1.03839E+04 -1.04651E+04  1.17871E+04 -1.35771E+04  2.26461E+03 -1.57656E+04 -4.93508E+03
 -7.57910E+03 -1.27940E+04  2.07967E+03 -1.67322E+04  7.96901E+03 -1.07701E+04  1.15961E+04 -2.76021E+03
  9.70490E+03  5.50774E+03  2.02208E+03  6.54935E+03 -5.02942E+03  5.08569E+03 -6.26532E+03 -6.81847E+01
 -4.26644E+03 -3.97345E+03  3.02161E+03 -6.64182E+03  6.01186E+03 -2.76261E+03  5.94375E+03  1.96855E+03
  4.68493E+03  2.48825E+03 -4.34624E+02  2.43500E+03 -1.38690E+03  2.68838E+03  2.36152E+03 -7.50757E+02
  1.71387E+03 -6.41053E+02  5.07003E+03  1.92945E+03  3.83270E+03  8.02005E+03 -2.36846E+03  1.08795E+04
 -5.53408E+03  6.04037E+03 -9.65392E+03  2.22863E+03 -8.38984E+03 -2.95518E+03 -1.83709E+03 -5.32289E+03
  2.50150E+03 -5.98426E+03  3.59917E+03 -2.83193E+03  3.90795E+03  2.78509E+03 -1.86289E+03  4.79672E+03
 -5.13497E+03  2.75514E+03 -7.46439E+03 -3.42109E+03 -3.55216E+03 -8.10758E+03  1.15322E+03 -9.08676E+03
  5.89226E+03 -4.34416E+03  6.33825E+03 -5.76430E+02  4.57964E+03  2.97843E+03  4.65525E+02  6.40863E+03
 -2.87747E+03  2.70214E+03 -3.01931E+03 -1.68157E+03  1.52320E+03 -4.71447E+03  5.56451E+03 -4.32642E+03
  9.53021E+03  1.52591E+02  9.37629E+03  5.57199E+03  2.91724E+03  1.13031E+04 -3.46371E+03  1.01970E+04
 -7.19711E+03  1.92343E+03 -8.92398E+03 -2.42240E+03 -4.69873E+03 -6.26758E+03  2.41508E+03 -6.04867E+03
  5.55040E+03 -2.74854E+03  5.29851E+03  2.72316E+03  1.15964E+03  5.78404E+03 -7.29090E+02  3.75736E+03
 -3.03829E+03  3.26223E+03 -4.10479E+03  2.07450E+02 -2.55752E+03  1.67419E+03 -1.78485E+03  2.03131E+03
 -1.06630E+03  3.89063E+03 -6.45439E+03  2.96836E+03 -8.18664E+03  9.62453E+02 -1.03543E+04 -5.27581E+03
 -6.76091E+03 -1.25009E+04  3.21939E+03 -1.47211E+04  9.22841E+03 -1.09808E+04  1.32502E+04 -4.15897E+03
  1.30298E+04  4.13048E+03  7.85292E+03  9.06773E+03 -3.07540E+02  9.61288E+03 -2.26750E+03  7.04900E+03
 -5.09582E+03  4.12609E+03 -2.13464E+03 -7.17814E+02 -1.69190E+03 -6.12986E+01  9.13854E+02 -2.61703E+02
 -2.74362E+03  8.79337E+02 -2.93099E+03  1.33680E+02 -6.93899E+02 -2.58781E+03 -2.22133E+03 -3.81244E+03
  4.77180E+03 -4.04345E+03  5.65061E+03  1.51260E+03  7.43182E+03  5.07446E+03  8.58488E+02  9.99207E+03
 -5.83971E+03  1.02803E+04 -8.75727E+03  5.33558E+03 -1.20520E+04 -1.35186E+03 -8.55136E+03 -8.71757E+03
 -3.40559E+03 -8.96149E+03  3.29758E+03 -1.04248E+04  4.69704E+03 -4.37879E+03  6.90870E+03  5.03205E+02
  3.42362E+03  2.93069E+03 -2.58756E+02  2.13481E+03 -1.63372E+03  5.96203E+02 -6.30328E+02 -1.89527E+03
  3.27042E+03 -1.08450E+03  4.01046E+03  1.06918E+03  3.56782E+03  3.41418E+03 -9.03584E+02  5.68141E+03
 -4.87574E+03  4.73382E+03 -8.29395E+03  7.99067E+02 -6.17000E+03 -5.94634E+03 -1.13673E+03 -8.45265E+03
  4.07243E+03 -5.60323E+03  5.96054E+03 -2.28830E+03  6.37970E+03  9.61262E+02  3.57968E+03  5.37896E+03
  1.78340E+03  6.44872E+03 -2.19629E+03  4.77417E+03 -3.41426E+03  3.36332E+03 -4.71408E+03 -2.24126E+02
 -7.36041E+02 -1.31297E+03 -2.08492E+03  6.86206E+02 -2.25523E+03  3.84965E+02 -4.50856E+03 -1.40082E+03
 -3.32232E+03 -3.70390E+03 -2.19401E+03 -6.23679E+03  2.78236E+03 -7.80821E+03  5.27702E+03 -3.76775E+03
  6.05184E+03  1.57447E+03  1.10027E+03  4.07919E+03  4.92725E+02  7.29453E+03 -5.11013E+03  3.06573E+03
