 $NMID ID='MM_0lb_SNR200_9hz_g40_91.RAW', FMTDAT='(8E13.5)'
 TRAMP=1., VOLUME=1. $END
  3.08582E+05 -6.80533E+02  3.38997E+05  2.49176E+05  8.45449E+04  3.38205E+05 -1.31809E+05  2.51205E+05
 -1.90010E+05  8.36251E+04 -1.12057E+05 -3.28691E+04  7.21837E+02 -5.11410E+04  5.46570E+04 -1.12579E+03
  3.47261E+04  5.18094E+04 -1.67072E+04  7.65683E+04 -6.10349E+04  6.45013E+04 -8.72194E+04  3.28945E+04
 -8.16983E+04 -1.12831E+04 -5.81517E+04 -5.27238E+04 -1.53575E+04 -6.99845E+04  2.81772E+04 -4.64463E+04
  4.04817E+04  4.13142E+03  1.60967E+04  4.90144E+04 -3.53791E+04  4.60224E+04 -6.83076E+04  1.65914E+02
 -5.48046E+04 -5.76733E+04 -6.01175E+03 -7.92939E+04  3.42804E+04 -5.71912E+04  4.88265E+04 -1.82269E+04
  4.46382E+04  1.28603E+04  3.20793E+04  2.61807E+04  1.60974E+04  3.11251E+04 -7.76329E+03  2.73287E+04
 -2.21565E+04  1.25888E+04 -1.95315E+04 -5.57238E+03  6.13717E+03 -6.55213E+03  2.33029E+04  1.25738E+04
  7.18573E+03  3.72219E+04 -3.46556E+04  3.79097E+04 -6.56197E+04  4.87026E+02 -5.86894E+04 -4.28303E+04
 -1.25343E+04 -6.48491E+04  4.09290E+04 -4.81775E+04  6.26890E+04 -2.28966E+03  3.56981E+04  3.40466E+04
 -5.66412E+03  4.01581E+04 -3.24858E+04  1.88493E+04 -3.40201E+04 -3.37035E+03 -1.82243E+04 -1.24157E+04
 -7.71429E+03 -1.48627E+04 -9.02772E+02 -1.72239E+04  8.80314E+03 -2.33724E+04  1.49251E+04 -1.31496E+04
  1.21715E+04  7.00841E+03 -1.21984E+04  1.29346E+04 -2.21760E+04 -4.11852E+03 -8.61004E+03 -3.75916E+04
  2.55736E+04 -4.70970E+04  5.08335E+04 -2.14093E+04  4.70797E+04  2.14764E+04  1.73435E+04  4.56693E+04
 -1.91124E+04  3.47510E+04 -2.64636E+04  1.78797E+03 -1.16897E+04 -2.92512E+04  2.13726E+04 -3.58394E+04
  4.22122E+04 -1.15475E+04  3.92589E+04  2.54685E+04  2.16695E+04  4.92282E+04 -8.00332E+03  5.57586E+04
 -3.42527E+04  3.76802E+04 -4.65847E+04  9.40315E+03 -4.81658E+04 -1.68324E+04 -2.51199E+04 -4.06538E+04
  9.10857E+03 -4.18105E+04  3.14046E+04 -1.59100E+04  3.19773E+04  9.64583E+03  4.45352E+03  2.13318E+04
 -1.34598E+04  1.13423E+04 -1.17110E+04 -6.36353E+03  4.48558E+03 -1.25163E+04  1.94326E+04  6.38604E+03
  1.55520E+04  2.17147E+04 -3.96659E+03  2.59422E+04 -2.30908E+04  1.24763E+04 -2.89581E+04 -2.02903E+03
 -2.55026E+04 -1.85231E+04 -1.11342E+04 -2.28667E+04  4.64916E+03 -2.61484E+04  1.96949E+04 -2.20890E+04
  3.19933E+04 -1.33597E+04  3.58275E+04  4.19668E+03  2.57435E+04  2.36510E+04  6.61302E+03  3.95797E+04
 -1.86924E+04  3.45003E+04 -2.97515E+04  1.18478E+04 -2.35644E+04 -1.01790E+04 -5.02386E+03 -1.32984E+04
  1.38351E+03 -8.81111E+02 -6.81390E+03  7.42665E+03 -1.97560E+04  6.57480E+03 -1.94860E+04 -9.66775E+03
 -1.20854E+04 -2.30874E+04  5.44410E+03 -2.80753E+04  1.67472E+04 -1.92352E+04  2.22257E+04 -1.99175E+03
  1.47216E+04  1.69041E+04  1.07447E+02  2.18997E+04 -1.63062E+04  1.19165E+04 -2.15792E+04 -4.55910E+03
 -1.78447E+04 -1.97664E+04 -1.44424E+03 -2.67993E+04  1.18600E+04 -2.25803E+04  2.24347E+04 -1.13414E+04
  2.12378E+04 -1.83308E+03  1.40291E+04  4.56544E+03  7.68462E+03  2.94250E+03  1.14042E+04 -1.55038E+03
  2.02265E+04  2.72456E+03  2.53826E+04  1.83919E+04  1.52430E+04  3.68582E+04 -2.74925E+03  4.26073E+04
 -2.27564E+04  3.74557E+04 -3.95771E+04  1.71814E+04 -4.26963E+04 -2.95714E+03 -3.45775E+04 -2.61315E+04
 -1.32089E+04 -3.56380E+04  1.19500E+04 -3.10459E+04  2.72180E+04 -1.50566E+04  2.21092E+04  5.83349E+03
  8.99081E+03  1.76464E+04 -1.01455E+04  1.49057E+04 -1.88587E+04  3.05212E+03 -1.33358E+04 -1.17791E+04
  3.79480E+02 -1.93389E+04  1.02673E+04 -1.46075E+04  1.28057E+04 -1.72424E+03  2.71656E+03  8.09887E+03
 -9.73174E+03  3.04130E+03 -9.86863E+03 -6.85390E+03 -1.32511E+03 -1.56540E+04  1.29334E+04 -1.81482E+04
  2.09932E+04 -1.07521E+04  2.42123E+04  2.76179E+03  2.14045E+04  1.80598E+04  1.09179E+04  2.59059E+04
 -4.83590E+03  3.09245E+04 -1.87538E+04  1.83584E+04 -2.07386E+04  3.49706E+03 -1.54645E+04 -7.03788E+03
 -5.70964E+03 -6.62158E+03 -5.84813E+02  7.66994E+02 -2.53406E+03  2.70804E+03 -6.99493E+03  5.64055E+03
 -1.48040E+04 -5.03877E+01 -1.28984E+04 -1.12673E+04 -5.37502E+03 -1.80113E+04  4.64455E+03 -1.43682E+04
  1.37911E+04 -7.12547E+03  7.27817E+03  3.91242E+03 -5.58853E+02  6.92945E+03 -8.33991E+03  2.07268E+02
 -8.44015E+03 -9.87878E+03 -1.37967E+03 -1.41929E+04  9.85128E+03 -1.69166E+04  1.93982E+04 -8.95544E+03
  2.09200E+04  1.90328E+03  1.62493E+04  1.30279E+04  1.97438E+03  1.81541E+04 -9.45284E+03  1.49687E+04
 -1.06829E+04  5.48268E+03 -5.89043E+03 -2.42930E+03  2.63022E+03 -2.10755E+03  7.27423E+03 -1.89957E+03
  6.58651E+03  8.08022E+03  8.23636E+02  1.15511E+04 -8.80404E+03  1.22990E+04 -1.58725E+04  2.69302E+03
 -1.03727E+04 -9.31983E+03  1.11370E+03 -1.28370E+04  8.27928E+03 -5.09119E+03  1.03131E+04  2.86949E+03
  1.23752E+03  1.08685E+04 -6.71188E+03  1.09990E+04 -1.29386E+04  5.29636E+03 -1.39170E+04 -4.13696E+03
 -6.23919E+03 -1.39904E+04  2.21793E+03 -1.76048E+04  1.40341E+04 -8.66669E+03  1.60929E+04  3.65858E+03
  7.82029E+03  1.19368E+04 -5.48044E+02  1.52652E+04 -1.08740E+04  9.47378E+03 -1.23715E+04 -9.07076E+02
 -1.01676E+04 -9.63507E+03 -7.51349E+02 -1.17974E+04  5.48490E+03 -1.00465E+04  7.71096E+03 -3.44403E+03
  4.88657E+03  8.42246E+02 -1.70663E+03  2.11230E+03  3.07326E+02 -2.84846E+03  2.68906E+03 -6.82366E+03
  1.09589E+04 -4.28815E+03  1.39552E+04 -8.36366E+01  1.54391E+04  8.29997E+03  9.65074E+03  1.96090E+04
 -3.94507E+03  2.13850E+04 -2.05767E+04  1.73358E+04 -2.51259E+04  2.94543E+03 -1.86581E+04 -1.00457E+04
 -9.79342E+03 -1.50665E+04  1.53360E+03 -1.38404E+04  5.87822E+03 -7.51937E+03  3.83645E+03 -4.38905E+03
  4.54782E+03 -4.08215E+03  2.84906E+03 -4.20028E+03  5.36333E+03 -3.40346E+03  5.32253E+03 -2.08653E+03
  9.69497E+03  2.31685E+03  6.61264E+03  8.99832E+03 -3.49289E+03  1.18015E+04 -1.08667E+04  6.62213E+03
 -1.48816E+04 -3.49975E+02 -8.43716E+03 -9.65319E+03 -1.83127E+03 -1.68048E+04  7.55200E+03 -1.51966E+04
  1.42649E+04 -9.09554E+03  1.92613E+04  1.64949E+03  1.48671E+04  1.15330E+04  2.21149E+03  1.66511E+04
 -8.38794E+03  1.40502E+04 -1.01583E+04  4.04191E+03 -5.51908E+03 -1.69211E+03 -3.10406E+03 -9.55360E+02
 -1.30785E+03 -3.26384E+02 -2.70980E+03  3.37308E+03 -4.47227E+03  2.20015E+03 -8.89489E+03 -2.09061E+03
 -6.92454E+03 -9.46887E+03  1.11976E+03 -1.40647E+04  9.91958E+03 -1.40450E+04  1.47418E+04 -3.53201E+03
  1.45601E+04  5.99661E+03  5.58109E+03  1.22230E+04 -3.72102E+03  1.55263E+04 -9.59352E+03  9.00871E+03
 -1.28103E+04  4.47593E+02 -1.08922E+04 -8.23661E+03 -2.07447E+02 -1.17897E+04  5.97029E+03 -8.78667E+03
  8.56584E+03 -2.96444E+03  6.10154E+03  2.96062E+03  1.58922E+03  3.87821E+03  5.47930E+02  9.27362E+02
  1.37628E+03  1.49594E+03  3.39338E+03  2.19411E+03  3.91958E+03  4.68283E+03  4.46360E+03  7.94663E+03
 -2.41754E+03  1.13567E+04 -8.37707E+03  1.08610E+04 -1.57586E+04  3.66657E+03 -1.55350E+04 -6.05947E+03
 -7.70087E+03 -1.42561E+04  1.89403E+03 -1.41911E+04  9.00912E+03 -9.85792E+03  1.02963E+04 -3.00985E+03
  7.39190E+03  4.95625E+03  2.45861E+03  9.42026E+03 -4.72260E+03  5.19204E+03 -6.48081E+03 -9.61848E+02
 -2.65889E+03 -5.46647E+03  3.07826E+03 -6.81517E+03  5.40300E+03 -3.42475E+03  4.77721E+03  8.89845E+02
  4.73000E+03  2.98526E+03  1.92447E+03  1.36752E+03  8.16338E+02  3.06415E+03  2.89486E+03 -1.71049E+03
  2.57030E+03 -1.56946E+03  3.79579E+03  1.61772E+03  2.86697E+03  6.85071E+03 -3.33770E+02  1.05513E+04
 -6.88292E+03  7.19990E+03 -8.92459E+03  2.14978E+03 -9.85605E+03 -3.54118E+03 -1.77949E+03 -6.22936E+03
  1.25323E+03 -5.77474E+03  3.34194E+03 -1.56102E+03  3.17430E+03  2.78594E+03 -5.48961E+02  4.14301E+03
 -5.50707E+03  2.83058E+03 -5.17644E+03 -4.09984E+03 -3.93622E+03 -6.44781E+03  1.78056E+03 -7.03186E+03
  4.87852E+03 -4.62864E+03  5.52400E+03  6.24798E+02  4.14478E+03  3.78034E+03  9.22993E+02  4.80293E+03
 -2.92809E+03  1.44286E+03 -4.23253E+03 -2.59877E+03  2.91905E+02 -6.32891E+03  8.68329E+03 -5.31830E+03
  8.45100E+03  1.31258E+02  8.82359E+03  5.02928E+03  1.68633E+03  9.88677E+03 -2.76748E+03  9.55259E+03
 -8.34953E+03  2.88547E+03 -6.89822E+03 -7.48185E+02 -4.10144E+03 -7.37390E+03  5.94882E+02 -5.51773E+03
  5.15847E+03 -2.69055E+03  4.93288E+03  2.12596E+03  1.16294E+03  4.92010E+03 -1.38767E+03  2.93221E+03
 -3.12541E+03  2.55082E+03 -6.92248E+02  2.41434E+03 -2.99194E+02  1.77586E+03 -1.09971E+03  2.74086E+03
 -1.09659E+03  2.22400E+03 -7.67945E+03  2.72529E+03 -1.06645E+04  3.64848E+02 -1.12654E+04 -5.28548E+03
 -5.09248E+03 -1.21040E+04  2.50666E+03 -1.41557E+04  7.62794E+03 -1.13036E+04  1.39886E+04 -5.83202E+03
  1.28765E+04  2.23920E+03  6.97195E+03  8.11570E+03  1.64107E+02  8.73098E+03 -4.73300E+03  8.75477E+03
 -6.77539E+03  2.66453E+03 -3.12265E+03 -1.84249E+03 -1.24865E+03 -2.06140E+02 -1.50697E+03  1.28266E+03
 -1.11761E+03 -7.34509E+01 -3.28373E+03 -9.70129E+01 -1.35377E+03 -1.38492E+03 -2.65533E+02 -3.19404E+03
  4.55793E+03 -3.27287E+03  7.17831E+03 -3.63177E+02  6.74328E+03  4.61358E+03  1.18190E+03  9.48625E+03
 -5.85236E+03  1.09959E+04 -1.18558E+04  6.59342E+03 -1.16381E+04 -1.42250E+03 -9.88620E+03 -7.25474E+03
 -4.88685E+03 -9.27334E+03  2.17568E+03 -9.40377E+03  8.29192E+03 -5.98317E+03  6.50517E+03  5.94151E+02
  4.04500E+03  3.66642E+03  5.87881E+02  3.76161E+03 -1.70894E+03 -2.37070E+01  5.35102E+02 -3.18413E+03
  4.60926E+03  7.07359E+00  3.47338E+03  1.08579E+03  2.31654E+03  4.33355E+03 -1.00149E+03  5.12648E+03
 -4.76502E+03  3.42564E+03 -6.26683E+03  3.36076E+02 -5.12151E+03 -4.94752E+03 -7.53633E+02 -8.48864E+03
  4.95384E+03 -7.65109E+03  7.59169E+03 -3.00150E+03  7.46441E+03  2.66274E+03  4.40958E+03  5.28074E+03
  1.83916E+03  6.90826E+03 -3.59149E+03  4.02668E+03 -3.78189E+03  5.49736E+03 -2.90936E+03 -4.90334E+02
 -2.52835E+03 -7.12595E+02 -2.46626E+03  5.58985E+02 -3.28417E+03  8.49124E+02 -4.48803E+03 -1.59461E+02
 -7.53560E+03 -4.14719E+03  3.80321E+02 -7.42698E+03  3.04238E+03 -8.87105E+03  6.42801E+03 -4.23259E+03
  6.58163E+03  1.28180E+03  4.77067E+03  4.78584E+03 -1.80801E+03  5.44489E+03 -4.87216E+03  4.17792E+03
