 $NMID ID='MM_0lb_SNR200_8hz_g60_1.RAW', FMTDAT='(8E13.5)'
 TRAMP=1., VOLUME=1. $END
  3.09951E+05  9.85292E+02  3.36577E+05  2.49205E+05  8.61723E+04  3.36837E+05 -1.32607E+05  2.50585E+05
 -1.90874E+05  8.35748E+04 -1.10270E+05 -3.31660E+04 -1.79322E+03 -5.33776E+04  5.49770E+04 -5.11356E+02
  3.45088E+04  5.18310E+04 -1.58980E+04  7.75350E+04 -6.23642E+04  6.47745E+04 -8.65302E+04  3.25479E+04
 -8.25962E+04 -1.14118E+04 -5.77989E+04 -5.39145E+04 -1.62986E+04 -7.21859E+04  2.89135E+04 -4.67420E+04
  4.19959E+04  4.19426E+03  1.38106E+04  4.96048E+04 -3.57505E+04  4.77857E+04 -6.90870E+04 -1.66033E+00
 -5.60427E+04 -5.87905E+04 -7.85868E+03 -7.96686E+04  3.50627E+04 -5.69791E+04  4.99384E+04 -1.93424E+04
  4.77292E+04  1.06006E+04  3.44800E+04  2.66952E+04  1.59050E+04  3.12374E+04 -6.82746E+03  2.77377E+04
 -2.19112E+04  1.15410E+04 -2.08692E+04 -9.04839E+03  7.47719E+03 -7.80358E+03  2.52171E+04  1.40680E+04
  7.73808E+03  3.87277E+04 -3.44211E+04  3.69830E+04 -6.67498E+04  1.91173E+03 -5.96225E+04 -4.46012E+04
 -1.32001E+04 -6.60252E+04  4.08026E+04 -4.91265E+04  6.17445E+04 -2.31494E+03  3.71750E+04  3.56361E+04
 -5.59216E+03  4.00099E+04 -3.37502E+04  1.86628E+04 -3.39819E+04 -1.56304E+03 -2.07687E+04 -1.32223E+04
 -9.53014E+03 -1.57073E+04 -1.62380E+03 -1.96031E+04  1.05201E+04 -2.36450E+04  1.66306E+04 -1.26257E+04
  1.05952E+04  6.62468E+03 -1.10915E+04  1.20961E+04 -2.36504E+04 -8.63362E+03 -8.12394E+03 -3.83355E+04
  2.57323E+04 -4.83234E+04  5.34126E+04 -2.20785E+04  4.90222E+04  2.20678E+04  1.71754E+04  4.92161E+04
 -1.71523E+04  3.82063E+04 -2.94845E+04  3.12469E+03 -1.26407E+04 -3.21772E+04  2.06080E+04 -3.89482E+04
  4.63837E+04 -1.25024E+04  4.12420E+04  2.44475E+04  2.25803E+04  5.29001E+04 -8.25058E+03  5.83264E+04
 -3.73994E+04  3.99710E+04 -5.06015E+04  1.24219E+04 -4.88826E+04 -1.80779E+04 -2.84796E+04 -4.35478E+04
  9.28707E+03 -4.32072E+04  3.69002E+04 -1.67659E+04  3.50650E+04  1.14324E+04  6.47290E+03  2.11109E+04
 -1.32194E+04  9.33393E+03 -1.15922E+04 -8.73623E+03  5.62634E+03 -1.09800E+04  1.89455E+04  6.88790E+03
  1.44619E+04  2.28568E+04 -5.42589E+03  2.88111E+04 -2.56163E+04  1.45553E+04 -3.26569E+04 -2.45301E+03
 -2.57184E+04 -1.78128E+04 -1.35184E+04 -2.57889E+04  4.44498E+03 -2.88476E+04  2.11722E+04 -2.60781E+04
  3.37482E+04 -1.39961E+04  3.97014E+04  6.39011E+03  2.94744E+04  2.57938E+04  5.79451E+03  4.22480E+04
 -2.10815E+04  3.51129E+04 -3.21615E+04  1.10288E+04 -2.26801E+04 -1.05293E+04 -6.03255E+03 -1.21751E+04
  2.84496E+02  6.95308E+01 -9.26349E+03  7.99189E+03 -2.27512E+04  4.85467E+03 -2.08499E+04 -1.05600E+04
 -1.40215E+04 -2.56046E+04  6.93193E+03 -3.05645E+04  2.12325E+04 -2.07199E+04  2.48052E+04 -1.05413E+03
  1.64479E+04  1.78565E+04 -2.14822E+03  2.41496E+04 -1.76916E+04  1.40468E+04 -2.65025E+04 -4.60252E+03
 -1.76616E+04 -2.17322E+04 -1.39520E+03 -3.09332E+04  1.32242E+04 -2.56602E+04  2.48411E+04 -1.40261E+04
  2.19727E+04 -9.66177E+02  1.76222E+04  5.42347E+03  1.03071E+04  1.20820E+03  1.23642E+04 -3.89128E+03
  2.51925E+04  2.80649E+03  2.74008E+04  1.98383E+04  2.08354E+04  4.16888E+04 -1.90078E+03  4.81846E+04
 -2.78500E+04  4.11786E+04 -4.53234E+04  2.14994E+04 -4.94727E+04 -4.18369E+03 -3.93750E+04 -2.80224E+04
 -1.68226E+04 -4.11546E+04  1.34007E+04 -3.59893E+04  3.06072E+04 -1.57542E+04  2.69623E+04  8.82198E+03
  8.41808E+03  2.08057E+04 -1.34438E+04  1.64499E+04 -2.20033E+04  3.22842E+03 -1.66514E+04 -1.29248E+04
 -1.45874E+03 -2.19273E+04  1.13340E+04 -1.54735E+04  1.53174E+04  1.06183E+02  5.67659E+03  9.40299E+03
 -9.69745E+03  3.91214E+03 -8.94845E+03 -8.45375E+03 -2.73421E+03 -1.97430E+04  1.19234E+04 -2.17510E+04
  2.45551E+04 -1.12356E+04  3.15982E+04  4.37036E+03  2.69841E+04  2.13616E+04  1.08401E+04  3.33505E+04
 -6.26350E+03  3.56455E+04 -2.33192E+04  2.21412E+04 -2.63271E+04  4.72293E+03 -1.73218E+04 -6.35696E+03
 -5.09222E+03 -8.22416E+03 -9.16200E+02 -8.27619E+02 -2.57591E+03  3.99809E+03 -6.63640E+03  5.42525E+03
 -1.58719E+04 -1.76372E+03 -1.72372E+04 -1.40217E+04 -5.55447E+03 -2.10956E+04  6.81911E+03 -1.66994E+04
  1.55353E+04 -5.37813E+03  1.11893E+04  7.56900E+03 -1.20748E+03  7.51524E+03 -9.64935E+03  1.52830E+03
 -8.13941E+03 -1.12553E+04 -3.02976E+03 -1.75002E+04  9.11898E+03 -1.91915E+04  2.27447E+04 -1.12642E+04
  2.59726E+04  2.77670E+03  2.06471E+04  1.72140E+04  3.74416E+03  2.10924E+04 -1.05938E+04  1.64325E+04
 -1.40038E+04  4.25443E+03 -7.04396E+03 -5.07475E+03  2.00582E+03 -5.63802E+03  7.61985E+03 -1.06004E+03
  8.71538E+03  6.44691E+03  1.87629E+03  1.52148E+04 -1.16497E+04  1.34563E+04 -1.79855E+04  4.15464E+03
 -1.18552E+04 -9.19654E+03  1.85967E+03 -1.65762E+04  1.05170E+04 -7.36047E+03  9.78545E+03  3.87763E+03
  3.79985E+03  1.41561E+04 -7.86796E+03  1.46346E+04 -1.75887E+04  6.02754E+03 -1.53122E+04 -5.17581E+03
 -9.88033E+03 -1.80192E+04  5.76470E+03 -2.11194E+04  1.58750E+04 -1.19161E+04  1.85401E+04  1.97394E+03
  1.20450E+04  1.51114E+04 -2.00724E+03  1.70739E+04 -1.36072E+04  9.38508E+03 -1.42858E+04 -2.80258E+03
 -1.17380E+04 -1.12423E+04 -1.78667E+03 -1.45306E+04  5.84547E+03 -1.21829E+04  9.32118E+03 -2.50895E+03
  5.79460E+03  1.36551E+03 -1.46116E+03  1.76525E+03 -1.86232E+03 -3.63379E+03  2.96878E+03 -9.34448E+03
  1.39201E+04 -4.68537E+03  2.12894E+04  7.16811E+02  1.91374E+04  1.27800E+04  1.13969E+04  2.47359E+04
 -5.71161E+03  2.91695E+04 -2.49725E+04  2.05988E+04 -3.09723E+04  2.95623E+03 -2.37480E+04 -1.14004E+04
 -1.29918E+04 -1.87643E+04 -8.37920E+02 -1.89734E+04  7.45233E+03 -9.04478E+03  5.98397E+03 -7.43494E+03
  6.74331E+03 -4.07963E+03  5.83700E+03 -2.96194E+03  8.20548E+03 -2.18807E+03  9.24053E+03 -2.81531E+03
  1.28535E+04  1.96016E+03  8.16952E+03  1.14067E+04 -3.19452E+03  1.15937E+04 -1.44614E+04  1.21471E+04
 -1.67819E+04 -1.79366E+03 -1.08266E+04 -1.29357E+04 -1.47536E+03 -2.04259E+04  1.02687E+04 -1.97798E+04
  2.06832E+04 -1.11581E+04  2.25698E+04  2.20238E+03  1.70249E+04  1.57380E+04  2.18176E+03  2.12981E+04
 -7.84352E+03  1.73815E+04 -1.06379E+04  6.52025E+03 -7.99276E+03 -1.25163E+03 -1.78427E+03 -2.24527E+03
 -3.75641E+03  4.44831E+02 -2.10584E+03  1.44402E+03 -7.89227E+03  2.81567E+03 -1.18026E+04 -3.80416E+03
 -7.97735E+03 -1.21415E+04 -2.07896E+03 -1.80937E+04  1.04546E+04 -1.73023E+04  1.67041E+04 -4.37364E+03
  2.01043E+04  8.54478E+03  7.44292E+03  1.57417E+04 -5.15055E+03  1.75970E+04 -1.43781E+04  1.23737E+04
 -1.72204E+04  2.82989E+03 -1.44264E+04 -9.05113E+03 -1.45293E+03 -1.52781E+04  6.75081E+03 -1.10940E+04
  1.01622E+04 -4.88982E+03  6.71483E+03  3.48838E+03  1.56239E+03  4.42862E+03  2.99988E+03  3.40091E+03
  3.34872E+03 -2.16725E+02  2.99166E+03  2.58545E+03  5.63976E+03  6.07079E+03  5.42965E+03  9.67412E+03
 -4.67780E+03  1.41951E+04 -1.41297E+04  1.52220E+04 -1.82674E+04  3.24101E+03 -2.04294E+04 -8.67523E+03
 -8.75373E+03 -1.81594E+04  2.86172E+03 -1.96422E+04  1.17278E+04 -1.17262E+04  1.56471E+04 -1.73295E+03
  1.17231E+04  6.89761E+03  3.72834E+03  9.43309E+03 -5.07850E+03  6.30423E+03 -7.67816E+03  3.45325E+02
 -3.97683E+03 -9.43520E+03  5.04414E+03 -8.68553E+03  8.24252E+03 -4.51206E+03  9.09211E+03  2.58643E+03
  5.83938E+03  3.71798E+03  2.80778E+03  1.70735E+03  8.20954E+02  2.75881E+03  1.27693E+03  3.41570E+02
  2.77295E+03 -1.30685E+03  8.32961E+03  3.60071E+03  6.22912E+03  1.04742E+04 -4.76041E+02  1.24530E+04
 -1.09644E+04  7.17186E+03 -1.18452E+04  1.49895E+03 -9.93832E+03 -2.44164E+03 -4.05255E+03 -5.97862E+03
  1.97764E+03 -7.19497E+03  5.29752E+03 -2.13709E+03  3.46390E+03  2.54167E+03 -6.27097E+02  5.79331E+03
 -7.84666E+03  2.44078E+03 -9.65596E+03 -3.14312E+03 -4.53150E+03 -1.17379E+04  2.05394E+03 -1.09557E+04
  6.96133E+03 -7.60723E+03  5.93756E+03 -9.09680E+02  5.93601E+03  1.77976E+03  1.77084E+03  5.42842E+03
 -4.73128E+03  1.41852E+03 -5.02899E+03 -4.34510E+03  4.45010E+02 -8.94808E+03  8.87465E+03 -7.44511E+03
  1.27340E+04 -8.28752E+02  1.24864E+04  8.58880E+03  3.60718E+03  1.25290E+04 -3.52618E+03  1.37724E+04
 -1.03931E+04  7.56887E+03 -1.20418E+04 -1.23873E+03 -5.32754E+03 -8.66691E+03  3.52818E+03 -7.24467E+03
  7.81148E+03 -4.72240E+03  7.05141E+03  3.27669E+03  3.21634E+03  4.72589E+03 -1.48030E+03  7.95210E+03
 -4.06714E+03  2.66931E+03 -3.01389E+03  3.58047E+03 -7.92608E+02 -2.39542E+02 -3.83785E+03  3.57152E+03
 -3.14308E+03  3.62669E+03 -8.33610E+03  4.86206E+03 -1.13238E+04 -2.45018E+03 -1.27032E+04 -7.32675E+03
 -7.66748E+03 -1.69506E+04  2.97178E+03 -1.99945E+04  1.22316E+04 -1.61444E+04  1.89911E+04 -6.75559E+03
  1.67263E+04  3.78351E+03  1.17436E+04  1.30742E+04  1.77798E+03  1.33331E+04 -5.22572E+03  1.02189E+04
 -8.27915E+03  3.76809E+03 -5.31474E+03 -5.29126E+02 -1.52989E+03 -9.28206E+02 -1.38514E+03  1.80236E+03
 -3.40978E+03  9.57001E+02 -3.61766E+03 -5.71774E+02 -5.74382E+02 -4.26565E+03  1.22826E+03 -4.75462E+03
  5.85357E+03 -5.24178E+03  7.50726E+03 -6.06871E+02  8.25679E+03  7.32120E+03  3.04616E+03  1.57404E+04
 -7.07038E+03  1.59742E+04 -1.37159E+04  9.98429E+03 -1.69812E+04 -1.13326E+03 -1.28635E+04 -8.56762E+03
 -5.22844E+03 -1.36092E+04  3.00446E+03 -1.51141E+04  8.88928E+03 -4.64650E+03  8.63612E+03 -5.37122E+02
  5.06312E+03  4.50507E+03  1.32467E+02  3.46276E+03 -3.02085E+03 -1.07909E+03 -1.10672E+03 -2.94994E+03
  4.04875E+03 -4.93223E+02  6.61284E+03  2.09438E+03  3.55938E+03  5.93490E+03  2.26572E+02  7.24310E+03
 -3.92456E+03  6.02559E+03 -9.73724E+03 -7.14534E+02 -8.59267E+03 -4.43566E+03  1.79885E+03 -1.21021E+04
  7.53013E+03 -1.01761E+04  1.01117E+04 -2.36169E+03  1.23342E+04  2.45367E+03  4.65900E+03  1.05948E+04
  1.75025E+03  9.67835E+03 -4.83843E+03  6.83974E+03 -6.19763E+03  3.56907E+03 -4.04104E+03  4.00210E+02
 -2.66603E+03 -1.47703E+03 -3.31403E+03  1.76862E+03 -3.62728E+03  9.83936E+02 -6.57972E+03 -1.58052E+03
 -5.61923E+03 -4.20454E+03 -1.07625E+03 -8.20655E+03  3.42610E+03 -9.31265E+03  8.09145E+03 -6.48348E+03
  8.30407E+03  2.97697E+03  5.94654E+03  6.24655E+03 -4.93209E+02  8.41312E+03 -8.95401E+03  8.52733E+03
