 $NMID ID='MM_0lb_SNR200_16hz_g55_28.RAW', FMTDAT='(8E13.5)'
 TRAMP=1., VOLUME=1. $END
  3.10136E+05 -2.41459E+02  3.37988E+05  2.50524E+05  8.45498E+04  3.37859E+05 -1.32806E+05  2.51163E+05
 -1.89919E+05  8.26248E+04 -1.10847E+05 -3.34270E+04  1.44045E+03 -5.07269E+04  5.47765E+04 -2.63320E+02
  3.51017E+04  5.31185E+04 -1.73208E+04  7.55499E+04 -6.08791E+04  6.27231E+04 -8.32677E+04  3.20234E+04
 -8.09258E+04 -1.09236E+04 -5.67752E+04 -5.17151E+04 -1.44955E+04 -6.84852E+04  2.76825E+04 -4.51867E+04
  4.01983E+04  4.41949E+03  1.47630E+04  4.76629E+04 -3.46525E+04  4.77943E+04 -6.63786E+04  5.15926E+01
 -5.31313E+04 -5.62819E+04 -6.18606E+03 -7.66421E+04  3.35368E+04 -5.52295E+04  4.79313E+04 -1.68158E+04
  4.24347E+04  1.23424E+04  3.17374E+04  2.54675E+04  1.63081E+04  2.96851E+04 -4.62305E+03  2.69079E+04
 -2.14711E+04  1.19678E+04 -1.88249E+04 -4.91235E+03  5.84140E+03 -7.08443E+03  2.16240E+04  1.20146E+04
  7.58731E+03  3.42693E+04 -3.16071E+04  3.43424E+04 -6.30208E+04  1.42834E+03 -5.78254E+04 -4.20880E+04
 -1.30392E+04 -6.37685E+04  3.95328E+04 -4.39947E+04  5.80909E+04 -1.75233E+03  3.34717E+04  3.19725E+04
 -6.66259E+03  3.67720E+04 -2.91599E+04  1.49797E+04 -3.04641E+04 -4.34303E+03 -1.66521E+04 -9.76608E+03
 -7.95588E+03 -1.33950E+04 -1.68539E+03 -1.83019E+04  7.45639E+03 -2.31171E+04  1.60894E+04 -1.34678E+04
  1.05663E+04  4.48802E+03 -6.84145E+03  1.27648E+04 -2.14156E+04 -3.20205E+03 -9.47119E+03 -3.29481E+04
  2.12897E+04 -4.24084E+04  4.70033E+04 -1.95366E+04  4.51077E+04  1.79168E+04  1.52989E+04  4.33480E+04
 -1.49379E+04  3.20754E+04 -2.56056E+04  2.86144E+03 -1.00940E+04 -2.70269E+04  2.05017E+04 -3.25786E+04
  4.07061E+04 -7.86086E+03  3.52104E+04  2.27185E+04  1.75896E+04  4.53867E+04 -8.36472E+03  4.96065E+04
 -3.06050E+04  3.20962E+04 -4.08072E+04  9.33588E+03 -4.28807E+04 -1.67195E+04 -2.34314E+04 -3.75890E+04
  6.98507E+03 -3.63409E+04  3.12514E+04 -1.31673E+04  2.89033E+04  1.09360E+04  4.91815E+03  1.81966E+04
 -1.39195E+04  8.46873E+03 -9.49403E+03 -8.55509E+03  5.89047E+03 -1.07857E+04  1.79457E+04  5.49209E+03
  1.32351E+04  2.22068E+04 -5.64665E+03  2.46298E+04 -2.14863E+04  1.17944E+04 -2.64963E+04 -5.67148E+03
 -1.87898E+04 -1.58533E+04 -7.64279E+03 -2.04133E+04  4.13028E+03 -1.82458E+04  1.47186E+04 -1.70942E+04
  2.48633E+04 -1.17068E+04  3.12808E+04  1.94827E+03  2.36586E+04  1.93902E+04  5.44597E+03  3.64854E+04
 -1.82235E+04  2.96921E+04 -2.75600E+04  1.19351E+04 -2.01501E+04 -9.81382E+03 -4.44389E+03 -1.33435E+04
  2.08442E+03 -1.86782E+03 -3.46007E+03  6.86659E+03 -1.51687E+04  5.02279E+03 -1.51667E+04 -5.71453E+03
 -8.77861E+03 -1.73801E+04  4.01488E+03 -2.25565E+04  1.49590E+04 -1.60846E+04  1.66933E+04 -2.86111E+01
  1.09028E+04  1.11159E+04 -1.39141E+03  1.84586E+04 -1.22967E+04  1.04384E+04 -1.75516E+04 -3.68700E+03
 -1.33908E+04 -1.63203E+04 -1.32854E+03 -2.19825E+04  1.01006E+04 -1.91102E+04  1.91066E+04 -8.80948E+03
  1.60661E+04  7.72200E+02  1.24011E+04  4.40755E+03  5.85433E+03  5.35802E+02  8.86288E+03 -2.21724E+03
  1.62206E+04  2.42325E+03  1.68981E+04  1.40647E+04  1.21663E+04  2.76647E+04 -2.40246E+03  3.25350E+04
 -1.76057E+04  2.51605E+04 -2.90919E+04  1.19104E+04 -3.06318E+04 -2.49714E+03 -2.65100E+04 -1.73670E+04
 -1.12265E+04 -2.60463E+04  8.73565E+03 -2.18250E+04  2.01355E+04 -1.19598E+04  1.82777E+04  5.66552E+03
  8.11144E+03  1.33327E+04 -7.85860E+03  1.19282E+04 -1.49654E+04  1.88287E+03 -1.32025E+04 -9.21840E+03
  3.00334E+02 -1.52792E+04  8.00566E+03 -1.05386E+04  9.02880E+03 -2.93781E+02  3.13386E+03  6.29484E+03
 -6.97870E+03  2.63159E+03 -4.53884E+03 -6.38474E+03 -7.13532E+02 -1.29481E+04  9.82802E+03 -1.24585E+04
  1.60674E+04 -7.65963E+03  1.57247E+04  2.25609E+03  1.44829E+04  1.29234E+04  6.04991E+03  1.86214E+04
 -3.68694E+03  2.12846E+04 -1.30456E+04  1.24432E+04 -1.41269E+04  3.79248E+03 -9.92393E+03 -3.18560E+03
 -5.99635E+03 -3.87559E+03  3.09595E+02  1.29338E+03 -2.75129E+03  2.10732E+03 -5.04197E+03  4.98546E+03
 -8.89834E+03  2.14803E+02 -1.08551E+04 -9.00502E+03 -4.58246E+03 -1.42142E+04  4.10574E+03 -1.06306E+04
  9.28500E+03 -4.74953E+03  5.41216E+03  3.48743E+03  8.73323E+02  4.72164E+03 -5.54310E+03 -1.65134E+02
 -4.78007E+03 -5.84571E+03 -9.85503E+02 -1.07997E+04  4.68339E+03 -9.84893E+03  1.29126E+04 -5.75829E+03
  1.43243E+04  1.16070E+03  1.16818E+04  9.08624E+03  4.33565E+03  1.17575E+04 -5.90866E+03  1.11056E+04
 -8.18094E+03  2.25642E+03 -4.50703E+03 -2.07219E+03  1.23425E+03 -3.14878E+03  6.59717E+03 -6.39132E+02
  3.50710E+03  3.74413E+03  1.09477E+03  6.96198E+03 -5.44140E+03  7.99504E+03 -8.99848E+03  2.39529E+03
 -6.15387E+03 -5.68253E+03  4.53251E+02 -8.84323E+03  5.18637E+03 -4.59148E+03  4.70432E+03  1.47455E+03
  2.22893E+03  6.24758E+03 -5.64777E+03  6.20341E+03 -6.66272E+03  3.47501E+03 -5.52331E+03 -1.88902E+03
 -4.57572E+03 -8.08849E+03  2.18844E+03 -9.59189E+03  8.81665E+03 -6.42649E+03  8.78409E+03  1.54341E+03
  5.15682E+03  7.07306E+03  3.78661E+02  1.05175E+04 -6.59128E+03  5.51057E+03 -7.40610E+03 -2.47338E+02
 -6.87654E+03 -6.42555E+03 -1.75059E+03 -6.34434E+03  4.32936E+03 -6.22301E+03  3.04369E+03 -3.61303E+03
  3.58988E+03  1.86343E+02 -7.71166E+02  1.38134E+03 -2.12586E+02 -2.07983E+03  7.86367E+02 -1.93919E+03
  4.29819E+03 -2.13826E+03  8.17034E+03  5.75163E+01  8.36075E+03  5.27920E+03  5.63551E+03  1.00514E+04
 -1.80251E+03  1.25494E+04 -1.00101E+04  7.37365E+03 -1.39463E+04  2.06608E+03 -1.01148E+04 -5.09477E+03
 -5.22061E+03 -7.80369E+03 -5.84217E+02 -6.90929E+03  2.71902E+03 -3.52308E+03  1.95546E+03 -2.48113E+03
  2.43680E+03 -2.36712E+03  2.89342E+03 -3.49743E+03  4.13856E+03 -2.49234E+03  4.33765E+03  5.02326E+02
  6.69040E+03  1.26064E+03  1.83012E+03  3.86363E+03 -7.86856E+02  3.85083E+03 -4.40839E+03  3.21516E+03
 -7.92200E+03 -9.02526E+02 -3.75117E+03 -4.34014E+03 -3.73311E+02 -6.85474E+03  4.12901E+03 -6.81805E+03
  7.70916E+03 -4.71748E+03  1.00332E+04  6.05076E+02  6.96291E+03  5.74796E+03  1.55211E+03  7.54681E+03
 -2.95546E+03  6.66879E+03 -4.63041E+03  3.78155E+03 -3.19155E+03 -3.90094E+02 -1.66933E+03 -2.00292E+03
 -1.36404E+03 -9.61427E+01 -2.83671E+02  2.93679E+03 -2.02870E+03  1.45486E+03 -5.22267E+03  1.31797E+02
 -2.17765E+03 -5.38693E+03 -1.57381E+03 -5.65866E+03  4.07629E+03 -7.11019E+03  5.94528E+03 -1.28545E+03
  5.00744E+03  3.60681E+03  2.99832E+03  5.02287E+03 -1.11726E+03  6.14205E+03 -3.51895E+03  3.28479E+03
 -4.86440E+03  2.13807E+03 -4.32040E+03 -4.09847E+03 -4.32244E+02 -6.31699E+03  2.28411E+03 -4.54135E+03
  2.59527E+03 -8.59960E+02  2.87519E+03  1.11768E+03  6.71057E+02  1.97070E+03  6.85406E+02  2.40453E+02
  1.78142E+03  4.45867E+02  1.43863E+03  8.17897E+02  1.55775E+03  3.66138E+03  1.69172E+03  1.84773E+03
 -2.18874E+03  4.06895E+03 -4.15771E+03  4.14754E+03 -4.34415E+03  2.03969E+03 -4.67878E+03 -1.53458E+03
 -3.07736E+03 -5.75714E+03  9.28708E+02 -6.25525E+03  2.35070E+03 -4.66549E+03  4.87686E+03 -2.11259E+03
  3.97523E+03  2.72230E+03  1.49896E+02  3.64494E+03 -1.87773E+03  2.14105E+03 -1.03139E+03  3.39608E+02
 -2.12357E+03 -1.31698E+03  9.58996E+02 -3.03824E+03  1.91942E+03 -1.25422E+03  1.91716E+03  2.45787E+02
  1.61286E+03  1.36753E+03  1.02483E+03  4.24661E+02 -2.74115E+02  5.84029E+02  1.23720E+03  5.96209E+02
  6.88782E+01  1.07813E+01  2.87313E+03  1.66579E+03 -5.49471E+02  2.80616E+03  2.88090E+01  3.73287E+03
 -2.48075E+03  2.55653E+03 -3.89120E+03  1.37186E+03 -3.15108E+03 -2.24992E+03 -2.45987E+02 -1.68674E+03
  8.88713E+02 -2.01717E+03  8.90074E+02 -1.54331E+03  1.21149E+03  9.21960E+02 -1.52575E+03  1.61188E+03
 -2.32641E+03  1.64738E+03 -2.39471E+03 -2.43939E+03 -1.19916E+03 -3.30231E+03 -1.41534E+02 -2.51236E+03
  1.48603E+03 -1.15178E+03  2.00243E+03  1.35744E+02  2.39154E+03  6.24416E+02 -8.51621E+02  1.42115E+03
 -3.72838E+02  9.06612E+02 -1.91081E+03 -1.11368E+03 -9.06666E+01 -1.82985E+03  1.82928E+03 -2.34549E+03
  1.15759E+03 -3.94825E+02  3.98761E+03  8.10491E+02  1.95717E+03  2.35522E+03 -1.30721E+03  2.30685E+03
 -2.32964E+03  1.95434E+03 -2.26255E+03 -1.25563E+03 -1.60612E+03 -1.20403E+03  1.00610E+03 -4.43925E+02
  3.49753E+03 -9.18300E+02  9.09073E+02  5.42585E+02  1.35445E+03  2.84494E+03  1.34937E+03  8.85361E+02
  1.61648E+02  4.55441E+02 -4.70318E+02 -2.83601E+02  2.93431E+02  2.60837E+02 -2.36359E+03  2.78678E+02
 -6.27921E+02  1.51872E+03 -3.12960E+03 -2.69867E+02 -2.08956E+03 -2.77297E+02 -2.95678E+03 -2.24092E+02
 -2.11097E+03 -3.48354E+03  7.17775E+02 -5.02222E+03  2.07439E+03 -3.95245E+03  4.48912E+03 -1.68577E+03
  4.68214E+03  2.78635E+02  2.62407E+03  2.30478E+03 -1.56298E+03  2.40544E+03 -8.69511E+02  2.04997E+03
 -2.30147E+03  1.39364E+03 -1.87051E+03 -1.00779E+03 -4.05782E+02  1.38238E+03  1.41798E+02 -4.35135E+02
 -9.15505E+02  2.10502E+02 -8.11997E+02  9.14669E+02 -3.44763E+02 -1.17277E+03  4.36465E+02 -1.32448E+03
  3.15588E+03 -9.33697E+02  1.69110E+03  9.98939E+02  2.67154E+03  2.60709E+03 -1.60396E+03  1.11436E+03
  2.10357E+02  3.41425E+03 -1.42715E+03  1.87534E+03 -4.73520E+03 -1.31277E+03 -2.37048E+03 -2.15270E+03
 -1.96041E+03 -3.42305E+03  5.58646E+02 -2.41710E+03  1.72681E+03 -9.55313E+02  8.32815E+02 -4.61731E+02
  1.30972E+03  6.27965E+02  3.30790E+02  7.67285E+02  3.10717E+02 -1.49769E+02 -2.68761E+02  2.26229E+02
  8.72126E+02 -6.28543E+02  3.16137E+02  2.05247E+03 -2.88169E+02  1.51515E+02  5.14774E+02  2.09568E+03
 -1.54772E+03  4.25405E+02 -1.45430E+03  2.49314E+02 -7.79808E+02 -5.76047E+02  1.19899E+02 -2.05484E+03
  1.04095E+03 -1.86467E+03  1.35189E+03 -5.84734E+01  2.40711E+03 -4.51499E+02  1.31403E+02  1.67710E+03
  9.65769E+02  3.16156E+02  1.11072E+02  9.60293E+02 -1.74026E+03  7.68616E+02 -1.53821E+03  1.20403E+02
 -7.55140E+02 -4.72958E+01 -3.32800E+02  1.25001E+03 -3.40545E+02  8.65664E+02 -1.34388E+03  3.66567E+02
 -1.94007E+03 -4.32002E+02 -6.50630E+02 -2.25686E+03  1.66969E+03 -2.67859E+03  2.31668E+03 -5.95998E+02
  1.05731E+03  6.03886E+02  2.59616E+02 -5.95598E+02 -3.54362E+02  1.88594E+03 -1.68473E+03  7.12178E+02
