 $NMID ID='MM_0lb_SNR200_12hz_g55_98.RAW', FMTDAT='(8E13.5)'
 TRAMP=1., VOLUME=1. $END
  3.10421E+05  1.24421E+02  3.37523E+05  2.51156E+05  8.50198E+04  3.38162E+05 -1.34025E+05  2.51139E+05
 -1.90897E+05  8.30062E+04 -1.12311E+05 -3.23937E+04  1.31505E+03 -4.99291E+04  5.37647E+04 -4.13376E+02
  3.42987E+04  5.32477E+04 -1.73905E+04  7.55174E+04 -6.17793E+04  6.25067E+04 -8.44333E+04  3.19105E+04
 -8.12420E+04 -1.27448E+04 -5.75042E+04 -5.10187E+04 -1.57155E+04 -7.20666E+04  2.77035E+04 -4.58567E+04
  4.11472E+04  3.27309E+03  1.48827E+04  4.90018E+04 -3.41929E+04  4.84442E+04 -6.70311E+04 -1.51844E+02
 -5.50916E+04 -5.67892E+04 -7.81898E+03 -7.81784E+04  3.47972E+04 -5.59159E+04  4.94551E+04 -1.76353E+04
  4.33966E+04  1.09799E+04  3.24762E+04  2.69108E+04  1.55686E+04  3.03066E+04 -5.47858E+03  2.75763E+04
 -2.28813E+04  1.36317E+04 -1.81947E+04 -4.77525E+03  6.51686E+03 -7.08075E+03  2.42861E+04  1.33425E+04
  6.77449E+03  3.70970E+04 -3.22629E+04  3.65022E+04 -6.36249E+04  2.31949E+03 -5.89075E+04 -4.31922E+04
 -1.34149E+04 -6.38115E+04  4.14391E+04 -4.60816E+04  5.96834E+04 -2.68132E+03  3.67088E+04  3.32872E+04
 -4.38741E+03  3.88714E+04 -3.12397E+04  1.79097E+04 -3.33205E+04 -2.41284E+03 -1.77603E+04 -1.08667E+04
 -8.77889E+03 -1.53976E+04 -6.74106E+02 -1.77692E+04  7.52975E+03 -2.55160E+04  1.58126E+04 -1.36356E+04
  1.20361E+04  6.05617E+03 -9.10789E+03  1.24260E+04 -2.29046E+04 -6.14259E+03 -8.22867E+03 -3.62001E+04
  2.38211E+04 -4.62889E+04  4.92382E+04 -2.04608E+04  4.74766E+04  2.04311E+04  1.74380E+04  4.57001E+04
 -1.53584E+04  3.54995E+04 -2.70239E+04  2.67300E+03 -1.16359E+04 -2.82808E+04  2.07399E+04 -3.58244E+04
  4.32313E+04 -1.01566E+04  3.82490E+04  2.35068E+04  1.87745E+04  4.96566E+04 -8.41510E+03  5.40122E+04
 -3.33356E+04  3.59390E+04 -4.61331E+04  1.06875E+04 -4.39076E+04 -1.67484E+04 -2.50126E+04 -3.99866E+04
  6.63666E+03 -4.01746E+04  3.40035E+04 -1.73955E+04  3.08307E+04  1.11134E+04  5.47040E+03  1.90260E+04
 -1.29004E+04  9.52064E+03 -1.07567E+04 -7.54627E+03  6.38298E+03 -1.15391E+04  1.74168E+04  6.00606E+03
  1.52085E+04  2.22135E+04 -4.77595E+03  2.65073E+04 -2.42052E+04  1.26607E+04 -2.99342E+04 -4.06671E+03
 -2.26271E+04 -1.77950E+04 -1.10183E+04 -2.29622E+04  3.13631E+03 -2.23908E+04  1.82963E+04 -2.10813E+04
  2.88402E+04 -1.24120E+04  3.52695E+04  3.40375E+03  2.43887E+04  2.07743E+04  3.44279E+03  3.80196E+04
 -1.80674E+04  3.15636E+04 -2.99927E+04  1.15407E+04 -2.25250E+04 -9.84715E+03 -5.11562E+03 -1.29137E+04
  3.56221E+02 -1.84027E+03 -6.49655E+03  7.19917E+03 -1.88904E+04  4.68919E+03 -1.85977E+04 -8.10600E+03
 -1.17744E+04 -2.05980E+04  6.80521E+03 -2.78224E+04  1.73147E+04 -1.71206E+04  2.02381E+04 -6.82783E+02
  1.37876E+04  1.42290E+04  4.05231E+02  1.97213E+04 -1.33515E+04  1.29214E+04 -2.12921E+04 -5.07274E+03
 -1.68531E+04 -2.03513E+04 -3.00591E+03 -2.55140E+04  1.15939E+04 -2.06846E+04  2.02757E+04 -1.11003E+04
  1.80229E+04  1.57931E+01  1.43301E+04  4.70478E+03  8.74790E+03  1.00235E+03  1.05971E+04 -2.45539E+03
  2.00671E+04  4.29873E+03  2.28525E+04  1.69326E+04  1.47004E+04  3.52123E+04 -2.80785E+03  3.98809E+04
 -2.41170E+04  3.12118E+04 -3.63904E+04  1.70323E+04 -4.06210E+04 -3.06899E+03 -3.10812E+04 -2.21954E+04
 -1.37314E+04 -3.27416E+04  1.11311E+04 -2.87442E+04  2.55181E+04 -1.39370E+04  2.04204E+04  7.25686E+03
  6.85828E+03  1.66734E+04 -1.03043E+04  1.36799E+04 -1.87736E+04  1.62036E+03 -1.28782E+04 -1.22739E+04
 -5.47530E+02 -1.73004E+04  9.57740E+03 -1.32064E+04  1.25547E+04 -9.95538E+02  3.45117E+03  7.39256E+03
 -7.52859E+03  3.79502E+03 -8.53075E+03 -7.31161E+03 -6.08166E+02 -1.42017E+04  1.18712E+04 -1.65073E+04
  1.97724E+04 -1.17190E+04  2.19284E+04  4.83399E+03  1.90156E+04  1.51107E+04  9.02960E+03  2.46749E+04
 -4.98652E+03  2.56884E+04 -1.69994E+04  1.70641E+04 -1.94379E+04  2.86858E+03 -1.38916E+04 -4.83546E+03
 -7.32604E+03 -6.13373E+03 -1.19898E+03  1.74408E+01 -2.72999E+03  3.18186E+03 -5.28494E+03  6.13337E+03
 -1.30235E+04 -1.02911E+03 -1.28059E+04 -1.11775E+04 -4.29614E+03 -1.82039E+04  4.54631E+03 -1.43212E+04
  1.19513E+04 -6.15818E+03  8.03824E+03  4.34602E+03 -6.67957E+02  5.14163E+03 -6.62328E+03  3.27110E+02
 -6.02144E+03 -7.89276E+03 -2.18860E+03 -1.21340E+04  8.30926E+03 -1.47149E+04  1.68167E+04 -6.89210E+03
  1.92652E+04  1.10074E+03  1.47429E+04  1.07589E+04  3.43021E+03  1.60128E+04 -9.88159E+03  1.29128E+04
 -1.01169E+04  3.36082E+03 -4.91423E+03 -3.74429E+03  2.25328E+03 -4.32380E+03  7.58981E+03 -9.51783E+02
  6.22636E+03  5.21417E+03  9.32431E+02  1.08289E+04 -8.32496E+03  1.03749E+04 -1.23837E+04  2.65484E+03
 -8.93138E+03 -6.87966E+03  3.19840E+01 -1.28084E+04  6.99270E+03 -3.75215E+03  8.23760E+03  2.71274E+03
  4.27649E+02  7.54196E+03 -6.99215E+03  8.99805E+03 -1.11776E+04  4.55532E+03 -8.04635E+03 -4.19899E+03
 -7.32054E+03 -1.24670E+04  2.86502E+03 -1.52786E+04  1.21104E+04 -7.99068E+03  1.29724E+04  2.43247E+03
  8.33798E+03  1.15314E+04 -1.00293E+03  1.25767E+04 -1.01480E+04  6.99829E+03 -1.07215E+04  1.18282E+02
 -8.53932E+03 -8.77095E+03 -1.46192E+03 -9.25107E+03  5.99744E+03 -7.25340E+03  6.69119E+03 -3.87320E+03
  4.52305E+03  2.30201E+03 -8.17434E+02  1.48513E+03 -1.91740E+03 -1.48584E+03 -3.63334E+02 -6.09067E+03
  8.70076E+03 -3.32675E+03  1.21396E+04  6.48019E+02  1.10729E+04  8.14217E+03  9.13472E+03  1.57256E+04
 -3.76090E+03  1.87665E+04 -1.57289E+04  1.40740E+04 -2.03497E+04  3.48382E+03 -1.68206E+04 -6.79554E+03
 -1.02060E+04 -1.37176E+04  5.33054E+02 -1.18909E+04  3.73946E+03 -4.84957E+03  2.70015E+03 -3.11091E+03
  4.07510E+03 -1.82842E+03  3.21597E+03 -2.86298E+03  6.11615E+03 -3.06561E+03  6.59229E+03 -2.08708E+03
  7.71286E+03  1.81644E+03  4.36397E+03  8.60937E+03 -1.52344E+03  8.77148E+03 -8.59505E+03  6.02833E+03
 -1.13168E+04 -1.64046E+03 -6.88687E+03 -8.64682E+03 -6.11639E+02 -1.06417E+04  6.33005E+03 -1.16778E+04
  1.14537E+04 -6.06350E+03  1.40877E+04  2.79368E+03  1.00282E+04  1.08045E+04  8.93706E+02  1.37231E+04
 -4.80787E+03  1.16762E+04 -7.22401E+03  3.44840E+03 -4.95347E+03 -1.95440E+03 -1.82677E+03 -2.12123E+03
 -6.44671E+02 -4.39104E+02 -2.75888E+03  3.30629E+03 -5.68375E+03  1.76795E+03 -9.60141E+03 -1.11834E+03
 -4.48663E+03 -7.43879E+03  6.53577E+02 -1.09267E+04  7.38892E+03 -8.97561E+03  1.04530E+04 -3.08578E+03
  1.00336E+04  7.09184E+03  5.13529E+03  9.19219E+03 -1.74883E+03  1.11418E+04 -7.15188E+03  6.76192E+03
 -1.15529E+04  1.14804E+03 -8.28553E+03 -7.01195E+03 -9.16024E+02 -9.39420E+03  5.47031E+03 -7.01782E+03
  7.10824E+03 -3.96340E+03  4.12405E+03  2.63979E+03  1.71176E+03  2.61646E+03  1.57323E+03  1.50464E+03
  2.40056E+03  1.61161E+03  3.05706E+03  1.06539E+03  1.20962E+03  3.72785E+03  2.15636E+03  5.35918E+03
 -2.43975E+03  8.59351E+03 -6.66649E+03  9.85279E+03 -1.01600E+04  3.42843E+03 -1.03349E+04 -3.79671E+03
 -5.49752E+03 -1.07998E+04  1.16642E+03 -1.15624E+04  6.62220E+03 -6.86067E+03  8.68481E+03 -1.86181E+03
  6.32593E+03  4.62093E+03  1.53843E+03  5.88658E+03 -3.03696E+03  3.69741E+03 -4.25858E+03 -4.17784E+02
 -5.60217E+02 -6.08122E+03  2.20953E+03 -4.02853E+03  3.90147E+03 -1.86357E+03  3.93310E+03  2.56288E+02
  2.69269E+03  2.03550E+03  7.96099E+02  2.30321E+03 -1.30648E+03  7.99366E+02  1.50179E+03 -2.13104E+03
  2.00942E+03 -3.31323E+02  4.88022E+03  1.28294E+03  3.01875E+03  5.13315E+03 -1.51140E+03  9.03024E+03
 -3.86952E+03  5.57495E+03 -5.01149E+03  1.19519E+03 -4.98476E+03 -1.97879E+03 -2.44223E+03 -4.12376E+03
  2.24852E+02 -4.91079E+03  2.26547E+03 -1.37207E+03  2.48369E+03  2.47088E+03 -5.61898E+02  2.96283E+03
 -5.09395E+03  1.91722E+03 -5.16165E+03 -2.94763E+03 -3.20613E+03 -4.94826E+03  1.42794E+03 -6.02844E+03
  3.25351E+03 -3.06719E+03  3.61079E+03 -6.67077E+02  4.10650E+03  8.64833E+02  8.91148E+02  3.87543E+03
  7.75431E+01  5.48169E+02 -3.33925E+03 -1.06810E+03  1.55525E+03 -4.83728E+03  4.33682E+03 -2.59307E+03
  5.96851E+03  9.22989E+02  6.42086E+03  3.93040E+03  1.13228E+03  5.69177E+03 -1.65559E+03  6.19256E+03
 -6.02251E+03  1.23745E+03 -5.00315E+03 -6.19897E+02 -2.20890E+03 -2.85896E+03  1.01024E+03 -3.14800E+03
  3.39865E+03 -1.45227E+03  3.79588E+03  2.29642E+03  8.68110E+02  3.96927E+03 -1.28090E+03  3.51396E+03
 -8.36579E+02  1.64346E+03  1.78585E+02  5.81845E+02 -1.82201E+03  7.77804E+02 -1.74838E+03  2.34591E+03
 -1.63807E+03  3.17863E+03 -4.51258E+03  2.07008E+03 -5.91765E+03 -9.41506E+01 -7.21456E+03 -3.72285E+03
 -4.54005E+03 -8.30737E+03  1.63558E+03 -1.00900E+04  4.80325E+03 -6.60907E+03  9.59598E+03 -3.11729E+03
  9.53354E+03  3.28415E+02  5.30294E+03  6.08652E+03  2.60121E+02  7.11432E+03 -1.18042E+03  3.51317E+03
 -2.33178E+03  2.92513E+03 -2.44152E+03 -1.99168E+02 -2.14874E+03 -7.71149E+01 -1.77131E+03  5.89279E+02
 -5.47579E+02 -4.13725E+02 -1.93119E+03 -4.43065E+02  1.96094E+02 -1.79360E+03 -6.99586E+02 -2.31687E+03
  2.41585E+03 -1.37815E+03  4.05925E+03 -5.97268E+02  4.04276E+03  3.07582E+03  8.06082E+02  5.78883E+03
 -3.71090E+03  6.95532E+03 -7.56221E+03  5.68123E+03 -7.75567E+03  2.27713E+02 -6.07233E+03 -4.76106E+03
 -2.81968E+03 -6.69259E+03  4.79320E+02 -5.46559E+03  3.44567E+03 -2.59949E+03  4.58808E+03  2.24972E+02
  8.01722E+02  2.31010E+03 -6.64822E+02  6.74729E+02 -1.52823E+03  1.76910E+02  1.41252E+03 -8.15328E+02
  3.04683E+03 -1.17242E+03  2.79635E+03  4.65245E+02  9.61179E+02  1.66829E+03  1.04206E+03  2.60965E+03
 -4.04531E+03  3.34923E+03 -3.68011E+03  3.30062E+02 -3.91979E+03 -2.42975E+03 -1.52808E+02 -5.39519E+03
  3.46634E+03 -3.50596E+03  3.43707E+03 -2.08351E+03  3.44082E+03 -9.86990E+02  4.35744E+03  3.92118E+03
  2.77756E+02  3.91614E+03 -1.34435E+03  3.99263E+03 -3.06658E+03  2.58598E+03  4.05670E+01  2.71598E+02
 -1.95277E+03  1.04549E+03  1.47288E+02  4.53719E+02 -2.58819E+03  9.92437E+02 -3.31775E+03 -1.37206E+03
 -2.37713E+03 -1.18020E+03 -2.54414E+03 -2.83887E+03  2.16129E+03 -4.84140E+03  3.09008E+03 -2.04007E+03
  4.64581E+03  7.78465E+02  2.20569E+03  3.35611E+03 -2.63579E+01  4.92461E+03 -3.39921E+03  2.77972E+03
