 $NMID ID='MM_0lb_SNR200_8hz_g45_37.RAW', FMTDAT='(8E13.5)'
 TRAMP=1., VOLUME=1. $END
  3.09772E+05  4.63185E+02  3.36948E+05  2.48670E+05  8.51655E+04  3.38162E+05 -1.32121E+05  2.51912E+05
 -1.92124E+05  8.27843E+04 -1.11293E+05 -3.18031E+04  8.66618E+01 -5.02935E+04  5.30559E+04 -1.63193E+03
  3.67938E+04  5.35858E+04 -1.71818E+04  7.82588E+04 -6.15418E+04  6.32494E+04 -8.72370E+04  3.23231E+04
 -8.37942E+04 -1.30047E+04 -5.84410E+04 -5.37257E+04 -1.50827E+04 -7.20112E+04  2.88328E+04 -4.61857E+04
  4.06132E+04  4.73166E+03  1.66349E+04  4.95851E+04 -3.45806E+04  4.85823E+04 -6.82052E+04 -1.78111E+02
 -5.33056E+04 -5.85979E+04 -7.81904E+03 -8.14349E+04  3.34811E+04 -5.73935E+04  4.92623E+04 -1.87884E+04
  4.43981E+04  1.16787E+04  3.24332E+04  2.79764E+04  1.43705E+04  3.04280E+04 -4.59058E+03  2.74752E+04
 -2.40146E+04  1.16029E+04 -1.82091E+04 -6.05111E+03  6.36850E+03 -8.02924E+03  2.37252E+04  1.40343E+04
  6.96403E+03  3.91738E+04 -3.22229E+04  3.71130E+04 -6.62929E+04  1.21304E+03 -6.00613E+04 -4.45916E+04
 -1.19668E+04 -6.62427E+04  4.00268E+04 -4.79929E+04  6.07517E+04 -3.39533E+03  3.62266E+04  3.54157E+04
 -6.45720E+03  3.87328E+04 -3.26889E+04  1.95652E+04 -3.41730E+04 -4.44584E+03 -2.01764E+04 -1.15476E+04
 -9.29214E+03 -1.59685E+04  1.72874E+02 -1.89925E+04  8.86941E+03 -2.39945E+04  1.62258E+04 -1.11857E+04
  9.67044E+03  6.90635E+03 -1.27307E+04  1.30377E+04 -2.34964E+04 -6.86572E+03 -8.74721E+03 -3.76154E+04
  2.31567E+04 -4.61865E+04  5.22650E+04 -2.05652E+04  4.96010E+04  1.98507E+04  1.68726E+04  4.83244E+04
 -1.57154E+04  3.59830E+04 -2.91218E+04  4.08799E+03 -1.10015E+04 -3.01012E+04  2.11250E+04 -3.88458E+04
  4.53522E+04 -1.14151E+04  3.98194E+04  2.36729E+04  1.98187E+04  5.09839E+04 -9.64091E+03  5.68466E+04
 -3.57685E+04  3.79106E+04 -4.88805E+04  1.02531E+04 -4.83289E+04 -1.73038E+04 -2.56851E+04 -4.28842E+04
  9.78392E+03 -4.33097E+04  3.43589E+04 -1.91091E+04  3.07768E+04  1.19145E+04  5.25111E+03  2.00431E+04
 -1.46353E+04  1.22168E+04 -1.09526E+04 -6.38858E+03  5.66567E+03 -1.21642E+04  1.88780E+04  6.16259E+03
  1.58536E+04  2.19436E+04 -4.55965E+03  2.62138E+04 -2.28696E+04  1.45500E+04 -3.05495E+04 -3.29330E+03
 -2.52162E+04 -1.80182E+04 -1.24104E+04 -2.58186E+04  4.79155E+03 -2.56925E+04  2.18467E+04 -2.40588E+04
  3.35484E+04 -1.27102E+04  3.81712E+04  5.58065E+03  2.67867E+04  2.40039E+04  4.25078E+03  4.24582E+04
 -1.85510E+04  3.46630E+04 -2.90310E+04  1.27883E+04 -2.35190E+04 -9.86343E+03 -5.96395E+03 -1.11443E+04
  1.60469E+03 -2.03820E+03 -7.76906E+03  7.87977E+03 -2.03616E+04  5.49689E+03 -1.94298E+04 -1.08417E+04
 -1.36550E+04 -2.37398E+04  3.73167E+03 -2.75655E+04  1.84227E+04 -2.06179E+04  2.41706E+04 -1.78641E+03
  1.42999E+04  1.57681E+04 -1.48739E+03  2.23778E+04 -1.71391E+04  1.36683E+04 -2.32918E+04 -3.91758E+03
 -1.80276E+04 -2.02180E+04 -2.78064E+03 -2.90366E+04  1.32393E+04 -2.32643E+04  2.33941E+04 -1.31321E+04
  2.35799E+04 -3.71071E+02  1.64531E+04  6.49896E+03  9.07798E+03  4.33908E+02  1.33380E+04 -3.12346E+03
  2.29427E+04  2.75881E+03  2.60439E+04  1.87621E+04  1.73698E+04  3.80456E+04 -3.95682E+03  4.55775E+04
 -2.58238E+04  3.90060E+04 -4.31167E+04  2.08744E+04 -4.65516E+04 -3.92087E+03 -3.56429E+04 -2.60689E+04
 -1.39658E+04 -3.74583E+04  1.35559E+04 -3.44047E+04  2.64489E+04 -1.58150E+04  2.58163E+04  9.51758E+03
  9.14596E+03  2.06226E+04 -1.14005E+04  1.62368E+04 -2.04683E+04  1.36984E+03 -1.50386E+04 -1.36028E+04
  6.69608E+02 -1.93926E+04  1.01774E+04 -1.51981E+04  1.36140E+04 -1.74074E+03  2.21372E+03  9.28114E+03
 -8.89747E+03  4.47060E+03 -8.27304E+03 -6.64700E+03 -2.22279E+03 -1.91544E+04  1.29956E+04 -2.06612E+04
  2.54563E+04 -1.25456E+04  2.61367E+04  3.41969E+03  2.47944E+04  2.01889E+04  1.06723E+04  3.12676E+04
 -5.93412E+03  3.17398E+04 -1.94192E+04  1.98564E+04 -2.35019E+04  4.64980E+03 -1.65976E+04 -6.04858E+03
 -6.89334E+03 -6.70041E+03 -1.34802E+03 -1.50099E+02 -1.62559E+03  3.75377E+03 -8.78844E+03  6.45582E+03
 -1.49371E+04 -1.43745E+03 -1.48740E+04 -1.15492E+04 -6.06730E+03 -2.06197E+04  7.15846E+03 -1.67424E+04
  1.19866E+04 -5.50210E+03  8.51883E+03  3.79627E+03  1.32615E+03  7.17787E+03 -7.78231E+03 -1.51781E+03
 -6.84609E+03 -8.99212E+03 -1.04432E+03 -1.66398E+04  9.95220E+03 -1.73611E+04  2.14309E+04 -8.42055E+03
  2.47262E+04  2.84521E+03  1.69406E+04  1.39816E+04  2.98684E+03  1.95276E+04 -9.99587E+03  1.55134E+04
 -1.36708E+04  5.25517E+03 -8.42130E+03 -4.47116E+03  9.84773E+02 -5.42670E+03  8.12310E+03 -1.63720E+03
  7.18581E+03  7.03016E+03  7.42537E+02  1.30799E+04 -8.17409E+03  1.32129E+04 -1.70650E+04  3.07503E+03
 -1.32733E+04 -9.52692E+03  7.65271E+02 -1.44704E+04  9.86052E+03 -6.27117E+03  9.06755E+03  4.90349E+03
  1.74015E+03  1.02039E+04 -1.01155E+04  1.21122E+04 -1.34512E+04  4.60081E+03 -1.58072E+04 -5.21690E+03
 -9.13584E+03 -1.64036E+04  3.26522E+03 -1.89675E+04  1.72523E+04 -1.13464E+04  1.81888E+04  4.29704E+03
  1.22268E+04  1.33268E+04 -7.97153E+02  1.80555E+04 -1.24192E+04  8.31495E+03 -1.42296E+04 -2.09017E+03
 -1.02262E+04 -1.21635E+04 -2.71142E+03 -1.16986E+04  6.28297E+03 -9.52538E+03  7.56692E+03 -3.20226E+03
  6.02349E+03  9.06442E+02 -3.90476E+03  3.51739E+03 -1.96887E+02 -4.16443E+03  2.15804E+03 -6.74145E+03
  1.27757E+04 -4.95380E+03  1.84015E+04  1.82001E+03  1.82551E+04  1.02300E+04  9.23254E+03  2.09322E+04
 -6.05338E+03  2.51675E+04 -2.04530E+04  1.91753E+04 -2.73001E+04  3.48190E+03 -2.24018E+04 -9.40945E+03
 -1.22946E+04 -1.76134E+04 -5.18827E+02 -1.52678E+04  6.07890E+03 -8.54234E+03  6.85919E+03 -4.95035E+03
  4.70216E+03 -1.53895E+03  3.51725E+03 -6.64277E+03  7.73868E+03 -3.86773E+03  1.00200E+04 -7.28179E+02
  1.08007E+04  3.69336E+03  7.22696E+03  1.04566E+04 -3.76758E+03  1.21511E+04 -1.16557E+04  9.16058E+03
 -1.52978E+04 -2.39529E+03 -9.87112E+03 -1.08748E+04 -2.82098E+01 -1.66129E+04  8.64418E+03 -1.73379E+04
  1.60713E+04 -1.02931E+04  1.98136E+04  3.43367E+03  1.49265E+04  1.51996E+04  2.58504E+03  1.95027E+04
 -8.31809E+03  1.52740E+04 -1.23429E+04  6.67237E+03 -8.51929E+03 -2.16521E+03 -1.89811E+03 -2.18821E+03
 -1.09490E+03 -3.17087E+02 -2.30636E+03  2.77114E+03 -6.12712E+03  2.41538E+03 -1.10095E+04 -9.31926E+02
 -9.41926E+03 -1.18936E+04  5.40936E+00 -1.81658E+04  1.02093E+04 -1.39626E+04  1.48847E+04 -3.63076E+03
  1.74635E+04  8.73544E+03  7.29432E+03  1.46550E+04 -2.76727E+03  1.68310E+04 -1.21219E+04  1.15697E+04
 -1.30228E+04 -3.45301E+02 -1.13226E+04 -8.93833E+03 -3.02063E+03 -1.46003E+04  5.96547E+03 -1.14227E+04
  1.12627E+04 -2.63222E+03  7.49105E+03  1.08308E+03  2.76153E+03  5.89925E+03  1.21393E+03  2.98459E+03
  2.66055E+03 -1.90882E+02  3.70404E+03  1.10951E+03  4.10431E+03  5.99765E+03  4.36080E+03  1.02703E+04
 -2.78514E+03  1.23210E+04 -1.20344E+04  1.39161E+04 -1.72357E+04  3.51168E+03 -1.74825E+04 -6.45274E+03
 -6.54745E+03 -1.61562E+04  3.33863E+03 -1.91123E+04  8.83950E+03 -1.13337E+04  1.30367E+04 -2.33325E+03
  1.03120E+04  5.05625E+03  3.23279E+03  1.02376E+04 -3.07980E+03  6.24320E+03 -7.07014E+03 -2.15702E+03
 -2.51106E+03 -6.93521E+03  4.05281E+03 -7.61237E+03  5.89005E+03 -3.08631E+03  6.99274E+03  1.60634E+03
  3.43017E+03  2.52196E+03  1.87240E+03  3.58812E+03 -8.50065E+02  1.79988E+03  4.80729E+02 -1.05382E+03
  3.48938E+03 -5.88859E+02  6.00566E+03  3.42449E+03  3.84570E+03  9.60643E+03 -2.51205E+03  1.25260E+04
 -8.55846E+03  8.49087E+03 -1.19200E+04  2.99404E+03 -9.06654E+03 -2.34565E+03 -4.87794E+03 -4.48484E+03
  1.58588E+03 -7.73678E+03  4.62827E+03 -3.86940E+03  2.80657E+03  5.84872E+03 -1.47875E+03  6.26796E+03
 -6.62530E+03  2.66067E+03 -1.03353E+04 -3.73109E+03 -6.31448E+03 -8.58563E+03  1.66906E+03 -1.03877E+04
  7.18867E+03 -6.67730E+03  6.45007E+03 -1.92164E+03  4.47251E+03  3.26104E+03  1.34087E+02  6.71849E+03
 -3.73922E+03 -1.27488E+02 -4.53306E+03 -4.44510E+03  2.89394E+02 -8.24359E+03  8.51107E+03 -6.13425E+03
  1.03526E+04  9.44134E+02  9.19639E+03  6.83895E+03  2.41069E+03  1.17090E+04 -4.61580E+03  1.03553E+04
 -8.23234E+03  6.18856E+03 -1.16345E+04 -9.44656E+02 -3.71816E+03 -7.24596E+03  1.48546E+03 -7.24921E+03
  6.47220E+03 -5.03635E+03  5.22659E+03 -5.13131E+02  9.68901E+02  7.95324E+03 -2.33131E+03  4.98256E+03
 -2.83029E+03  4.98865E+03 -2.81469E+03  1.19355E+03 -1.69332E+03  1.21640E+03 -1.11064E+03  2.03830E+03
 -2.13633E+03  4.72170E+03 -6.43078E+03  3.72253E+03 -1.16551E+04  4.68845E+01 -1.35125E+04 -7.07753E+03
 -5.20745E+03 -1.51945E+04  2.33005E+03 -1.67960E+04  1.11983E+04 -1.57324E+04  1.78377E+04 -5.16598E+03
  1.47712E+04  2.24820E+03  9.05063E+03  9.90398E+03  1.70616E+03  1.36807E+04 -5.26547E+03  9.24589E+03
 -6.92369E+03  4.27819E+03 -4.69256E+03 -2.35475E+03 -3.52855E+02  1.74280E+02 -1.53113E+03  3.60816E+02
 -1.85614E+03  1.26129E+03 -3.19077E+03 -3.85463E+02 -6.37520E+02 -4.13766E+03  1.80766E+03 -4.98114E+03
  6.05737E+03 -2.80895E+03  7.37226E+03 -8.13127E+02  8.84197E+03  7.07920E+03  3.61078E+03  1.16540E+04
 -5.32414E+03  1.33005E+04 -1.30635E+04  8.76857E+03 -1.40695E+04 -1.90878E+03 -9.87789E+03 -8.10174E+03
 -4.05330E+03 -1.28905E+04  2.77277E+03 -1.10161E+04  9.15571E+03 -7.07608E+03  8.25463E+03 -8.21909E+01
  4.76241E+03  4.14562E+03  8.80786E+02  5.08867E+03 -2.36224E+03  4.15671E+01  4.19857E+02 -2.52885E+03
  3.95565E+03 -4.65126E+03  4.51280E+03  1.67339E+03  3.01076E+03  3.40879E+03  6.77932E+02  6.10717E+03
 -5.80745E+03  4.15262E+03 -8.86134E+03  9.61868E+02 -7.05834E+03 -5.26817E+03  5.20933E+02 -1.17290E+04
  5.68496E+03 -9.39576E+03  9.68470E+03 -2.25054E+03  8.56433E+03  1.36266E+03  4.01010E+03  9.48914E+03
  2.11288E+03  9.42374E+03 -3.38474E+03  7.37820E+03 -3.83397E+03  3.21229E+03 -5.00535E+03  1.28524E+03
 -2.11339E+03  3.88529E+02 -2.19718E+03 -2.06073E+02 -5.07957E+03  4.38211E+03 -5.66823E+03 -1.97889E+03
 -5.97345E+03 -4.40886E+03 -2.45978E+03 -8.57254E+03  2.03505E+03 -8.41643E+03  8.27362E+03 -4.30599E+03
  8.03313E+03  1.61946E+03  4.63536E+03  4.94448E+03  5.74194E+02  8.15885E+03 -5.61718E+03  6.10777E+03
