 $NMID ID='MM_0lb_SNR200_12hz_g50_97.RAW', FMTDAT='(8E13.5)'
 TRAMP=1., VOLUME=1. $END
  3.11658E+05  1.85150E+03  3.37412E+05  2.48994E+05  8.51495E+04  3.37115E+05 -1.33174E+05  2.51058E+05
 -1.91145E+05  8.42144E+04 -1.11297E+05 -3.24543E+04  1.34222E+03 -5.00219E+04  5.50832E+04  2.10821E+02
  3.61907E+04  5.20860E+04 -1.69112E+04  7.43566E+04 -6.02474E+04  6.24746E+04 -8.46639E+04  3.10741E+04
 -8.21116E+04 -1.16581E+04 -5.67532E+04 -5.14993E+04 -1.51624E+04 -7.06209E+04  2.75012E+04 -4.57651E+04
  4.01855E+04  3.77679E+03  1.65344E+04  4.90604E+04 -3.34180E+04  4.81882E+04 -6.65877E+04 -1.16717E+03
 -5.30658E+04 -5.88588E+04 -7.10729E+03 -7.78180E+04  3.43684E+04 -5.63946E+04  4.86447E+04 -1.73477E+04
  4.41916E+04  1.12675E+04  3.19971E+04  2.49494E+04  1.36229E+04  2.93334E+04 -4.93985E+03  2.81501E+04
 -2.14758E+04  1.12325E+04 -1.74637E+04 -5.57178E+03  7.15888E+03 -7.12093E+03  2.37753E+04  1.26648E+04
  7.07930E+03  3.64952E+04 -3.32842E+04  3.61181E+04 -6.30139E+04  2.90639E+03 -5.68875E+04 -4.27694E+04
 -1.34718E+04 -6.35157E+04  4.02492E+04 -4.51831E+04  6.04808E+04 -2.41882E+03  3.36022E+04  3.36161E+04
 -7.73142E+03  3.62536E+04 -3.23999E+04  1.49315E+04 -3.04677E+04 -3.56576E+03 -1.82700E+04 -1.20767E+04
 -7.69476E+03 -1.38951E+04 -9.59386E+02 -1.79665E+04  7.68858E+03 -2.39060E+04  1.51185E+04 -1.24413E+04
  1.06625E+04  6.17047E+03 -7.60395E+03  1.42332E+04 -2.08601E+04 -5.62720E+03 -7.27694E+03 -3.61153E+04
  2.48556E+04 -4.36797E+04  4.99701E+04 -2.08519E+04  4.58242E+04  2.04730E+04  1.62926E+04  4.50490E+04
 -1.58541E+04  3.39167E+04 -2.62013E+04  1.42885E+03 -1.06081E+04 -2.86414E+04  2.09865E+04 -3.40790E+04
  4.19857E+04 -9.47544E+03  3.81950E+04  2.47313E+04  1.96127E+04  4.78131E+04 -8.50178E+03  5.17229E+04
 -3.25076E+04  3.49468E+04 -4.44492E+04  1.04522E+04 -4.45881E+04 -1.71659E+04 -2.63404E+04 -3.94609E+04
  8.77748E+03 -4.07399E+04  3.26534E+04 -1.64510E+04  3.07595E+04  1.06922E+04  3.91701E+03  1.86656E+04
 -1.29206E+04  8.60710E+03 -1.04860E+04 -6.17646E+03  6.25148E+03 -1.18990E+04  1.85264E+04  6.27865E+03
  1.47080E+04  2.10785E+04 -5.57126E+03  2.60165E+04 -2.20033E+04  1.35022E+04 -2.98510E+04 -3.88634E+03
 -2.28704E+04 -1.75221E+04 -8.91510E+03 -2.19917E+04  4.18176E+03 -2.27689E+04  1.71889E+04 -2.03514E+04
  2.75790E+04 -1.39654E+04  3.48000E+04  3.05198E+03  2.56350E+04  2.35397E+04  3.85971E+03  3.88272E+04
 -1.96933E+04  3.22700E+04 -2.91602E+04  1.08607E+04 -2.19031E+04 -1.11559E+04 -4.47413E+03 -1.34857E+04
  1.56434E+03 -1.78659E+03 -6.56232E+03  7.18352E+03 -1.79112E+04  4.20343E+03 -1.85171E+04 -7.57792E+03
 -1.20598E+04 -2.10373E+04  4.64178E+03 -2.37881E+04  1.81284E+04 -1.74922E+04  2.06728E+04 -1.91005E+03
  1.26180E+04  1.50206E+04 -9.54195E+02  2.14549E+04 -1.34863E+04  1.03024E+04 -2.17078E+04 -4.31464E+03
 -1.50791E+04 -1.97010E+04 -1.14370E+03 -2.58112E+04  1.21476E+04 -2.11720E+04  2.07996E+04 -1.00671E+04
  1.94829E+04 -1.89635E+02  1.34575E+04  4.02278E+03  7.71999E+03  2.39187E+03  9.05523E+03 -2.39687E+03
  1.96744E+04  1.79673E+03  2.14225E+04  1.61703E+04  1.43953E+04  3.31853E+04 -3.19734E+03  3.83051E+04
 -2.26047E+04  3.14664E+04 -3.65555E+04  1.41229E+04 -3.72133E+04 -3.23861E+03 -3.03946E+04 -2.20088E+04
 -1.37208E+04 -3.12714E+04  1.13246E+04 -2.92156E+04  2.35889E+04 -1.45454E+04  2.03012E+04  6.69391E+03
  7.49297E+03  1.49192E+04 -1.03058E+04  1.47875E+04 -1.72012E+04  1.96586E+03 -1.25651E+04 -1.05698E+04
  1.16671E+02 -1.63478E+04  9.06434E+03 -1.24621E+04  1.13308E+04 -1.46339E+03  2.95103E+03  7.19168E+03
 -7.70145E+03  2.59145E+03 -7.37730E+03 -5.50465E+03 -1.92221E+03 -1.46067E+04  1.10905E+04 -1.61359E+04
  1.89160E+04 -8.07558E+03  2.13473E+04  2.81451E+03  1.80610E+04  1.56283E+04  9.42512E+03  2.34229E+04
 -4.91917E+03  2.66171E+04 -1.53868E+04  1.53703E+04 -1.88756E+04  3.55329E+03 -1.31566E+04 -3.46651E+03
 -5.81430E+03 -6.79219E+03 -8.86701E+02  1.62266E+03 -2.52607E+03  3.20989E+03 -5.83464E+03  5.50088E+03
 -1.18976E+04  6.77169E+02 -1.34742E+04 -9.99920E+03 -5.26897E+03 -1.65438E+04  6.56481E+03 -1.22388E+04
  1.17566E+04 -6.12093E+03  8.59245E+03  2.61611E+03 -2.07411E+03  4.60916E+03 -6.58364E+03 -7.40945E+02
 -6.53809E+03 -7.73828E+03 -1.80143E+02 -1.15458E+04  6.34837E+03 -1.30321E+04  1.78603E+04 -6.62696E+03
  1.99774E+04  9.21584E+02  1.37427E+04  1.19250E+04  3.70541E+03  1.50140E+04 -7.12980E+03  1.23688E+04
 -9.88002E+03  5.02630E+03 -5.42501E+03 -3.09152E+03  1.14224E+03 -2.23117E+03  7.40112E+03 -8.44467E+02
  6.46347E+03  5.96184E+03  1.24739E+03  1.00970E+04 -6.40706E+03  9.97374E+03 -1.36043E+04  2.56168E+03
 -9.25381E+03 -7.07444E+03 -9.56729E+02 -1.04336E+04  6.32826E+03 -4.93804E+03  6.99109E+03  3.02478E+03
  1.09423E+03  7.30218E+03 -7.30924E+03  8.72915E+03 -1.10137E+04  3.90902E+03 -1.09673E+04 -2.78622E+03
 -5.76199E+03 -1.08071E+04  1.80441E+03 -1.46953E+04  1.14012E+04 -9.02211E+03  1.22484E+04  2.79156E+03
  7.28006E+03  1.04055E+04 -1.40094E+03  1.23936E+04 -9.79489E+03  7.48494E+03 -9.65394E+03 -2.45689E+03
 -9.94131E+03 -8.92186E+03 -2.96905E+03 -8.58530E+03  4.62060E+03 -8.79851E+03  6.77311E+03 -3.55579E+03
  3.94991E+03  2.03913E+03 -1.92428E+03  1.37447E+03 -1.36827E+02 -2.28657E+03  2.49942E+03 -4.69774E+03
  8.17595E+03 -1.50981E+03  1.21917E+04  2.48749E+03  1.07732E+04  7.44318E+03  8.25218E+03  1.49873E+04
 -3.08780E+03  1.61585E+04 -1.55737E+04  1.25662E+04 -1.97268E+04  3.09289E+03 -1.62253E+04 -5.94484E+03
 -7.73677E+03 -1.19151E+04 -4.89467E+02 -9.90118E+03  6.08546E+03 -3.65896E+03  5.08599E+03 -4.88090E+03
  3.77872E+03 -1.62319E+03  3.31849E+03 -3.53751E+03  5.71113E+03 -3.83218E+03  7.98190E+03 -5.36008E+02
  7.68614E+03  1.60890E+03  4.27035E+03  8.01031E+03 -1.18730E+03  7.85883E+03 -8.21327E+03  5.34245E+03
 -1.11115E+04 -8.92590E+02 -7.16559E+03 -8.47486E+03 -6.28052E+02 -1.04238E+04  5.38054E+03 -1.34469E+04
  1.13626E+04 -5.48031E+03  1.43072E+04  1.92911E+03  1.04036E+04  8.06981E+03  1.99342E+03  1.14649E+04
 -4.27408E+03  1.15115E+04 -7.50534E+03  4.66167E+03 -4.96431E+03 -1.79902E+03 -1.94225E+03 -2.74668E+03
 -5.34816E+02  3.23972E+02 -2.53496E+03  2.50931E+03 -4.76062E+03  1.25836E+03 -6.96843E+03 -7.97740E+02
 -4.46775E+03 -8.38154E+03 -1.86648E+02 -9.82781E+03  7.73837E+03 -9.76759E+03  1.08624E+04 -3.80023E+03
  1.01858E+04  5.33745E+03  5.68319E+03  8.63311E+03 -2.71241E+03  1.10758E+04 -6.34471E+03  5.57358E+03
 -9.92436E+03  9.23511E+02 -7.67502E+03 -4.94428E+03 -1.22676E+02 -8.87754E+03  5.16452E+03 -6.88365E+03
  5.85768E+03 -2.20467E+03  4.88176E+03  2.47861E+03  1.77719E+03  4.20916E+03 -1.41326E+02  1.91275E+03
  3.40722E+03  1.37431E+03  2.40929E+03  1.27765E+03  2.95380E+03  3.65147E+03  3.17887E+03  4.93654E+03
 -2.97810E+03  8.27584E+03 -5.95112E+03  8.30724E+03 -9.38558E+03  3.23708E+03 -9.14303E+03 -3.86451E+03
 -6.16351E+03 -9.58917E+03  1.25985E+03 -1.16327E+04  4.94984E+03 -6.89796E+03  8.05370E+03 -2.14929E+03
  6.36885E+03  4.14531E+03  1.88917E+03  6.02328E+03 -2.59844E+03  4.67681E+03 -4.14879E+03 -1.71080E+03
 -2.36279E+03 -5.73202E+03  2.38599E+03 -4.47253E+03  4.53502E+03 -2.15145E+03  3.35228E+03 -5.70029E+01
  3.05895E+03  2.56021E+03  1.28413E+03  1.87856E+03 -1.56395E+02  5.47709E+02  1.40174E+03  3.37259E+02
  1.53581E+03 -7.46445E+02  4.55659E+03  1.50437E+03  1.71604E+03  4.03334E+03 -4.04623E+02  6.49579E+03
 -4.03849E+03  3.60691E+03 -6.52714E+03  8.46123E+02 -5.80440E+03 -3.07643E+03 -2.90781E+03 -3.93968E+03
 -3.75097E+02 -3.32335E+03  3.10016E+03 -1.43186E+03  5.80871E+02  2.93994E+03 -1.56331E+03  4.24016E+03
 -3.46497E+03  2.78175E+03 -4.25172E+03 -2.25181E+03 -3.03488E+03 -4.74056E+03  1.20236E+03 -5.00452E+03
  3.27957E+03 -3.68687E+03  4.98857E+03 -2.93625E+02  3.05267E+03  1.74951E+03  4.89571E+02  4.11730E+03
 -2.25169E+03  2.11913E+03 -3.44967E+03 -2.94445E+03  1.01773E+03 -4.82789E+03  5.98748E+03 -4.38245E+03
  4.94800E+03 -4.06774E+02  6.64139E+03  2.87019E+03  1.63437E+03  6.64399E+03 -1.65390E+03  5.99750E+03
 -5.91806E+03  2.50255E+03 -3.91101E+03 -1.27374E+03 -2.93211E+03 -4.58974E+03  5.00979E+02 -3.15195E+03
  3.89995E+03 -1.44106E+03  2.12323E+03  6.71495E+01  1.34023E+03  3.27763E+03  6.35256E+02  3.10897E+03
 -8.38703E+02  2.47766E+03 -1.71586E+03  1.55988E+03 -1.21472E+03  1.64455E+02 -1.91377E+03  2.04449E+03
 -3.97293E+02  1.05304E+03 -4.34705E+03  1.25146E+03 -6.11188E+03  1.10504E+03 -6.81435E+03 -3.49573E+03
 -2.72304E+03 -7.90040E+03  1.09925E+03 -9.82304E+03  6.06894E+03 -7.67817E+03  7.11729E+03 -2.40093E+03
  7.56044E+03  1.83924E+03  5.50287E+03  4.54294E+03  1.39383E+03  5.54822E+03 -2.94358E+03  3.29503E+03
 -3.40070E+03  3.45097E+03 -1.83509E+03 -1.54682E+03  2.00695E+01 -4.26202E+02 -5.62687E+02 -3.00846E+02
 -2.29604E+03  7.17688E+02 -2.34915E+03 -1.03678E+03 -4.35893E+02 -1.04936E+02  4.20571E+02 -2.15324E+03
  3.42210E+03 -2.55917E+03  4.00789E+03 -3.49040E+02  4.88385E+03  3.87714E+03  8.19502E+02  5.41921E+03
 -2.41608E+03  7.26981E+03 -6.23028E+03  4.26170E+03 -7.21313E+03 -8.17011E+02 -5.27232E+03 -2.97282E+03
 -1.54885E+03 -6.57527E+03  1.42621E+03 -5.73507E+03  3.82567E+03 -2.39399E+03  4.24198E+03  9.12094E+02
  3.64007E+03  2.27209E+03  2.07478E+02  2.32364E+02 -9.67766E+02  1.45695E+03 -4.57310E+02 -9.04162E+02
  9.70182E+02  4.47613E+02  2.76562E+03  1.49310E+03  9.23286E+02  2.11867E+03  4.22514E+02  3.43521E+03
 -2.61073E+03  3.97138E+03 -4.02327E+03  7.74235E+02 -3.59669E+03 -4.60611E+03  1.25632E+02 -5.38532E+03
  3.53000E+03 -4.14309E+03  4.23922E+03 -1.11372E+03  3.73846E+03  2.07189E+02  1.04980E+03  4.69553E+03
 -1.31245E+02  4.12132E+03 -7.73481E+02  1.62470E+03 -2.83658E+03  3.30662E+03 -1.88503E+03 -1.17257E+03
 -3.14802E+03 -1.46254E+01 -1.59280E+03 -3.11557E-01 -1.99235E+03  8.08462E+02 -3.23604E+03 -9.14986E+02
 -3.23889E+03 -1.13785E+03 -2.75138E+03 -3.23980E+03  2.17222E+03 -4.87820E+03  2.46836E+03 -2.10970E+03
  3.15176E+03 -3.28424E+02  2.34393E+03  1.99921E+03 -7.45231E+02  3.08336E+03 -3.11807E+03  1.38400E+03
