 $NMID ID='MM_0lb_SNR200_18hz_g60_88.RAW', FMTDAT='(8E13.5)'
 TRAMP=1., VOLUME=1. $END
  3.10888E+05  5.22301E+02  3.38181E+05  2.50980E+05  8.43188E+04  3.37594E+05 -1.32913E+05  2.50400E+05
 -1.89774E+05  8.35498E+04 -1.11954E+05 -3.24644E+04  2.63931E+01 -5.01898E+04  5.43548E+04  6.28159E+02
  3.58560E+04  5.26970E+04 -1.69356E+04  7.52936E+04 -6.07130E+04  6.37648E+04 -8.35763E+04  3.26747E+04
 -8.03820E+04 -1.18911E+04 -5.68352E+04 -5.06894E+04 -1.54524E+04 -6.91454E+04  2.76755E+04 -4.60511E+04
  3.88737E+04  3.47602E+03  1.47749E+04  4.75348E+04 -3.46176E+04  4.59067E+04 -6.56030E+04 -9.39431E+02
 -5.23765E+04 -5.70014E+04 -5.30128E+03 -7.55083E+04  3.36151E+04 -5.34328E+04  4.70103E+04 -1.67836E+04
  4.22286E+04  1.06237E+04  3.12019E+04  2.48611E+04  1.67632E+04  2.97781E+04 -4.72409E+03  2.70635E+04
 -2.24617E+04  1.24460E+04 -1.79235E+04 -4.51205E+03  4.90490E+03 -7.37350E+03  2.20700E+04  1.32344E+04
  8.78883E+03  3.42462E+04 -3.12542E+04  3.66296E+04 -6.28014E+04  2.14670E+03 -5.56822E+04 -4.16306E+04
 -1.15669E+04 -6.24527E+04  3.97509E+04 -4.44558E+04  5.73546E+04 -2.24665E+03  3.45463E+04  3.17312E+04
 -6.22043E+03  3.57240E+04 -2.90288E+04  1.39999E+04 -2.88226E+04 -4.17890E+03 -1.63113E+04 -1.11560E+04
 -7.73721E+03 -1.35530E+04 -2.82405E+02 -1.71047E+04  5.90001E+03 -2.36589E+04  1.44653E+04 -1.37953E+04
  1.29069E+04  4.37011E+03 -7.85557E+03  1.28841E+04 -2.17998E+04 -4.64141E+03 -8.30300E+03 -3.24435E+04
  2.22664E+04 -4.22968E+04  4.69111E+04 -1.88267E+04  4.35527E+04  1.80260E+04  1.50252E+04  4.35596E+04
 -1.53307E+04  3.20585E+04 -2.45874E+04  1.59755E+03 -1.05363E+04 -2.73431E+04  2.03383E+04 -3.30012E+04
  3.93289E+04 -7.33692E+03  3.47774E+04  2.27336E+04  1.84927E+04  4.52837E+04 -6.94260E+03  4.91486E+04
 -3.03320E+04  3.17266E+04 -4.01637E+04  9.27675E+03 -4.11183E+04 -1.59525E+04 -2.17697E+04 -3.61633E+04
  6.58782E+03 -3.65834E+04  3.01049E+04 -1.36773E+04  2.77101E+04  1.16429E+04  3.26463E+03  1.82772E+04
 -1.38360E+04  8.14346E+03 -1.09240E+04 -7.71957E+03  5.66274E+03 -1.05875E+04  1.75301E+04  6.55748E+03
  1.29534E+04  2.14485E+04 -6.50618E+03  2.51688E+04 -2.20664E+04  9.73742E+03 -2.68860E+04 -4.69492E+03
 -1.97167E+04 -1.69623E+04 -6.76697E+03 -1.90784E+04  3.75931E+03 -1.68594E+04  1.35614E+04 -1.67924E+04
  2.45452E+04 -1.25007E+04  3.14009E+04  1.80188E+03  2.33516E+04  1.85455E+04  3.72160E+03  3.53491E+04
 -1.67535E+04  2.97688E+04 -2.62961E+04  1.09876E+04 -2.08055E+04 -9.83745E+03 -4.20774E+03 -1.42954E+04
  1.17139E+03 -3.27142E+03 -3.73232E+03  5.80025E+03 -1.44336E+04  5.14970E+03 -1.52600E+04 -6.25448E+03
 -1.02507E+04 -1.67929E+04  5.54109E+03 -2.13211E+04  1.41368E+04 -1.47131E+04  1.66788E+04 -1.46358E+03
  9.83516E+03  1.15277E+04 -1.57599E+03  1.70232E+04 -1.20855E+04  9.92868E+03 -1.76408E+04 -3.45810E+03
 -1.39212E+04 -1.55144E+04 -1.08589E+03 -2.19946E+04  8.68531E+03 -1.81582E+04  1.70189E+04 -8.96306E+03
  1.72025E+04  1.20925E+03  1.21172E+04  4.56704E+03  5.29264E+03  5.07948E+02  9.06685E+03 -1.83746E+03
  1.55445E+04  2.79153E+03  1.74929E+04  1.36259E+04  1.10503E+04  2.74641E+04 -2.49398E+03  3.02745E+04
 -1.80054E+04  2.41737E+04 -2.78881E+04  1.17642E+04 -2.85238E+04 -2.06596E+03 -2.45773E+04 -1.51851E+04
 -1.20801E+04 -2.36250E+04  7.63691E+03 -2.10884E+04  1.83044E+04 -1.07775E+04  1.78051E+04  3.88614E+03
  6.13324E+03  1.26607E+04 -6.99252E+03  1.22290E+04 -1.49128E+04  2.74276E+03 -1.03936E+04 -9.60312E+03
  5.76847E+02 -1.35161E+04  6.45089E+03 -1.01236E+04  8.11418E+03 -1.66000E+03  1.23983E+03  6.09647E+03
 -6.12778E+03  1.69079E+03 -4.04587E+03 -5.23380E+03  2.74268E+02 -1.29045E+04  8.38073E+03 -1.25531E+04
  1.35256E+04 -5.61392E+03  1.42239E+04  2.55477E+03  1.15180E+04  1.11699E+04  6.00606E+03  1.68746E+04
 -2.75690E+03  1.83748E+04 -1.08235E+04  1.22517E+04 -1.30260E+04  2.30940E+03 -9.33167E+03 -2.55800E+03
 -4.39352E+03 -3.60399E+03 -9.08328E+02  1.28103E+03 -1.58511E+03  2.34188E+03 -5.07371E+03  3.48981E+03
 -9.59812E+03 -1.34783E+03 -9.18238E+03 -7.55678E+03 -5.27884E+03 -1.17750E+04  4.07721E+03 -9.70325E+03
  8.38526E+03 -5.02368E+03  5.45855E+03  1.91073E+03  7.56331E+02  3.34015E+03 -3.49264E+03  8.57142E+02
 -4.18907E+03 -7.46581E+03 -1.35932E+02 -8.71263E+03  5.05130E+03 -9.53871E+03  1.11778E+04 -5.41534E+03
  1.28156E+04  1.10140E+03  1.05549E+04  8.02840E+03  2.32641E+03  1.05801E+04 -6.97757E+03  1.10536E+04
 -7.80998E+03  3.55723E+03 -3.60573E+03 -1.20601E+03  1.26167E+03 -2.77346E+03  4.61218E+03 -6.66738E+02
  2.90366E+03  3.45925E+03  9.07543E+02  7.45714E+03 -4.63282E+03  6.79053E+03 -9.06865E+03  1.68295E+03
 -5.06645E+03 -4.85189E+03  9.95438E+02 -7.75539E+03  4.24036E+03 -3.56449E+03  4.92788E+03  1.97875E+03
  4.23046E+02  3.73162E+03 -5.01922E+03  5.90147E+03 -5.83033E+03  2.44494E+03 -6.00974E+03 -1.75098E+03
 -3.56484E+03 -7.30170E+03  2.28115E+03 -9.43292E+03  7.07446E+03 -5.58602E+03  7.90371E+03  1.21089E+03
  4.86991E+03  5.77228E+03 -3.06306E+02  8.73755E+03 -4.17627E+03  4.98123E+03 -6.03463E+03 -1.15822E+03
 -6.22043E+03 -5.53954E+03 -1.08665E+03 -6.11194E+03  2.68413E+03 -5.06309E+03  3.21890E+03 -2.61478E+03
  3.12642E+03  5.41582E+02  1.08871E+03  9.29962E+02  1.16022E+02 -5.46080E+02 -1.59858E+02 -2.40815E+03
  4.56164E+03 -6.65949E+02  6.17582E+03  1.15134E+03  8.15922E+03  3.80632E+03  4.63006E+03  8.37545E+03
 -1.61680E+03  1.07106E+04 -9.07313E+03  7.49439E+03 -1.21288E+04  1.27215E+03 -7.52532E+03 -3.88609E+03
 -4.35896E+03 -7.18727E+03  3.64374E+02 -5.78216E+03  3.31891E+03 -2.57158E+03  2.46548E+03 -1.39881E+03
  1.87344E+03 -2.38804E+03  1.36229E+03 -2.74406E+03  3.22073E+03 -3.06129E+02  4.81239E+03  4.28443E+02
  5.28693E+03  1.32500E+03  1.40935E+03  3.55159E+03 -1.59512E+03  3.29961E+03 -4.56065E+03  4.08858E+03
 -4.93297E+03 -8.81228E+02 -2.50817E+03 -4.20771E+03  1.18309E+03 -5.14775E+03  2.52757E+03 -6.74078E+03
  6.00564E+03 -3.65177E+03  8.04680E+03  2.03522E+02  5.41310E+03  4.89476E+03  1.99626E+03  7.04343E+03
 -2.05635E+03  5.80748E+03 -2.91296E+03  1.73103E+03 -2.38574E+03 -1.23807E+03 -5.72454E+02 -9.10474E+02
  1.00089E+02  5.77001E+02 -6.65990E+02  3.11693E+03 -2.28427E+03  1.59312E+03 -3.91749E+03 -5.89828E+02
 -2.62728E+03 -3.77952E+03  1.51852E+03 -6.40155E+03  2.50948E+03 -5.40665E+03  3.98056E+03 -1.10332E+03
  3.53219E+03  4.14053E+03  2.99465E+03  3.10591E+03 -1.02558E+03  4.83259E+03 -1.52393E+03  2.11303E+03
 -4.43093E+03  1.12901E+03 -4.26781E+03 -3.05999E+03 -2.91743E+01 -4.15857E+03  2.94836E+03 -2.44786E+03
  3.27334E+03 -1.73152E+03  1.29750E+03  1.79229E+03  7.94290E+02  4.59938E+02  8.12830E+02 -2.67650E+02
  2.79081E+03  5.03507E+02  1.67804E+03  1.80823E+03  1.59451E+03  2.95887E+03  1.97825E+03  1.86465E+03
 -1.12663E+03  3.14350E+03 -3.47175E+03  3.20757E+03 -2.47400E+03  9.39385E+02 -5.87948E+03 -2.31332E+03
 -2.96429E+03 -4.20875E+03  1.16741E+03 -4.40031E+03  1.37056E+03 -2.84942E+03  2.72683E+03 -1.07899E+03
  3.10661E+03  9.74421E+02  1.86770E+03  2.51904E+03 -1.05417E+03  1.19712E+03 -1.45182E+03  9.08280E+02
 -8.00656E+02 -1.04610E+03  1.29354E+03 -1.98866E+03 -3.52378E+02 -1.02766E+03  1.03960E+03  8.14303E+02
  1.13781E+03  4.74854E+02  3.46042E+02 -2.26593E+02  1.69547E+00  8.00312E+02  2.18229E+03 -6.85769E+02
 -4.11327E+02  3.75994E+02  2.05979E+03  9.32983E+02 -2.71343E+02  2.31288E+03 -3.87667E+01  3.67152E+03
 -2.35391E+03  7.74263E+02 -7.69011E+02  1.82204E+03 -1.33550E+03 -1.68257E+03 -4.76726E+02 -1.12285E+03
  1.70930E+02 -1.61920E+03 -1.09457E+02 -1.56217E+03  4.95083E+02 -2.95136E+02 -1.97512E+03  1.06988E+03
 -2.69842E+03  8.04440E+02 -4.30000E+02 -8.23395E+02 -9.67492E+01 -2.31134E+03 -3.78212E+02 -1.66644E+03
  1.03211E+03 -4.25132E+02  7.56434E+02 -2.27983E+02  2.13092E+03 -4.28211E+02  1.25358E+02  1.00951E+03
 -4.88505E+02 -1.34371E+02 -1.60495E+03 -4.75495E+02  3.35260E+02 -5.34270E+02  1.76806E+03 -9.48561E+02
  2.05736E+03  7.97754E+02  2.59349E+03  5.23018E+02  2.06958E+03  1.99181E+03 -5.73464E+02  3.57876E+03
 -3.06044E+03  3.12447E+02 -1.24540E+03  8.85313E+01 -1.29344E+03 -1.09152E+03  1.56217E+02 -1.68810E+03
  1.59257E+03 -1.14055E+03  8.08147E+02  1.36590E+03  1.19421E+02  1.18229E+03 -1.04720E+02  1.80681E+03
 -4.09680E+02  1.08777E+03 -1.34409E+03  1.02655E+02 -1.13128E+02  3.00008E+02 -3.48347E+02  9.72876E+02
  7.61315E+01  1.18658E+02 -9.68661E+02  3.40243E+02 -1.41106E+03  5.17505E+02 -2.97742E+03 -1.18727E+03
 -1.36457E+03 -2.18554E+03  8.59723E+02 -2.45406E+03  1.94724E+03 -2.52695E+03  3.00116E+03 -1.94173E+03
  1.92127E+03 -2.99821E+02  1.19149E+03  1.57496E+03 -1.06324E+03  6.78842E+02 -5.70613E+02  1.61808E+03
 -4.82376E+02  3.93840E+02 -9.73614E+02 -1.71787E+03  1.02976E+00  8.72420E+02 -1.27468E+03  1.41415E+02
 -4.85022E+02  1.12955E+03 -4.41295E+01  1.23032E+03  1.95678E+02 -7.98394E+02 -3.09158E+02 -6.28700E+02
  1.43423E+03  1.87893E+02 -2.64577E+01  5.32571E+02  2.06730E+03  2.53946E+01  1.72674E+02  5.22480E+02
  2.11377E+02  1.47611E+03 -1.90868E+03  2.02186E+03 -1.28753E+03 -4.85447E+02 -8.98577E+02 -7.65051E+02
 -9.58453E+02 -1.23649E+03  1.55969E+02 -9.87585E+02  1.11696E+03 -1.06992E+03  4.44485E+02  3.33868E+01
  1.16612E+03  5.82345E+02  3.22749E+02 -3.32943E+02  3.47902E+02  8.26946E+02  2.90489E+02 -4.08955E+02
 -4.37463E+02  9.10688E+02  1.43682E+03  5.10186E+02 -1.02788E+03  8.46266E+02  2.81981E+02  2.90537E+02
 -8.33322E+02 -3.80286E+02 -7.84541E+01  3.69140E+02 -4.97744E+02 -6.79552E+02 -2.89623E+02 -9.12562E+02
  3.96868E+02 -1.85099E+03  8.17877E+02  8.42538E+02  1.30306E+03 -8.60385E+01 -4.84295E+01  8.24298E+02
  5.96074E+02 -2.28093E+02  2.14500E+02  4.78264E+02 -6.31602E+02  2.08628E+03 -2.68391E+01 -1.03543E+02
  2.90452E+02 -1.42977E+03  5.49738E+02  9.33192E+01 -1.60516E+03  2.00760E+02 -1.22170E+03  5.52459E+02
 -8.36099E+01 -2.10760E+02  3.29807E+02 -9.69356E+02  6.11543E+02 -1.54984E+03  1.70583E+03 -1.42006E+02
  2.85326E+02 -6.55496E+02  8.89736E+02  1.54424E+03 -5.02211E+02  7.47866E+01 -3.42255E+02  9.67190E+02
