 $NMID ID='MM_0lb_SNR200_17hz_g55_70.RAW', FMTDAT='(8E13.5)'
 TRAMP=1., VOLUME=1. $END
  3.08972E+05  1.42537E+02  3.37189E+05  2.50718E+05  8.43839E+04  3.38063E+05 -1.33219E+05  2.50002E+05
 -1.90706E+05  8.40070E+04 -1.10931E+05 -3.34023E+04  1.76494E+03 -5.10412E+04  5.41383E+04  9.83030E+02
  3.61783E+04  5.35543E+04 -1.69151E+04  7.52788E+04 -6.08218E+04  6.27639E+04 -8.48214E+04  3.27598E+04
 -8.09041E+04 -1.19542E+04 -5.67448E+04 -5.02501E+04 -1.48518E+04 -6.86701E+04  2.80484E+04 -4.51879E+04
  3.99452E+04  4.74469E+03  1.59035E+04  4.73474E+04 -3.41701E+04  4.75881E+04 -6.52599E+04 -1.38365E+03
 -5.25486E+04 -5.55589E+04 -7.16458E+03 -7.62016E+04  3.30780E+04 -5.35671E+04  4.66803E+04 -1.61306E+04
  4.23721E+04  1.16642E+04  3.14615E+04  2.47575E+04  1.59835E+04  2.95053E+04 -5.47350E+03  2.81402E+04
 -2.08926E+04  1.30564E+04 -1.82243E+04 -4.80910E+03  5.55581E+03 -6.73980E+03  2.19445E+04  1.14380E+04
  7.11428E+03  3.40909E+04 -3.20978E+04  3.49031E+04 -6.31265E+04  9.99217E+02 -5.65090E+04 -4.16725E+04
 -1.28219E+04 -6.17176E+04  4.05236E+04 -4.45536E+04  5.82672E+04 -2.61083E+03  3.32868E+04  3.12392E+04
 -6.60905E+03  3.48511E+04 -2.91194E+04  1.56439E+04 -2.92709E+04 -3.72152E+03 -1.58474E+04 -1.18083E+04
 -8.78185E+03 -1.24534E+04 -1.91009E+03 -1.75373E+04  6.45516E+03 -2.29471E+04  1.50416E+04 -1.40442E+04
  1.09511E+04  4.10601E+03 -8.18644E+03  1.33684E+04 -2.11655E+04 -3.06854E+03 -8.99910E+03 -3.30958E+04
  2.16313E+04 -4.37911E+04  4.65439E+04 -1.95016E+04  4.29375E+04  1.94788E+04  1.58990E+04  4.25748E+04
 -1.54327E+04  3.25106E+04 -2.46881E+04  2.07373E+03 -8.51287E+03 -2.72928E+04  2.07068E+04 -3.31614E+04
  3.96322E+04 -7.99039E+03  3.43001E+04  2.38581E+04  1.65684E+04  4.52337E+04 -7.52290E+03  4.95091E+04
 -3.05432E+04  3.32289E+04 -3.98793E+04  9.62025E+03 -4.10117E+04 -1.49310E+04 -2.17759E+04 -3.64888E+04
  8.00727E+03 -3.69952E+04  3.03493E+04 -1.36453E+04  2.84514E+04  1.08426E+04  3.78086E+03  1.88471E+04
 -1.36540E+04  7.90042E+03 -1.05192E+04 -8.08767E+03  5.26549E+03 -1.07670E+04  1.67957E+04  6.77366E+03
  1.21811E+04  2.13355E+04 -5.26360E+03  2.40496E+04 -2.19980E+04  1.15974E+04 -2.71451E+04 -5.70201E+03
 -1.93768E+04 -1.68512E+04 -7.52137E+03 -1.88560E+04  4.33975E+03 -1.71161E+04  1.49168E+04 -1.64409E+04
  2.40050E+04 -1.12600E+04  2.98279E+04  3.33469E+03  2.27165E+04  1.73037E+04  4.54540E+03  3.51306E+04
 -1.76281E+04  2.98074E+04 -2.70075E+04  9.97175E+03 -2.02686E+04 -1.10993E+04 -3.57700E+03 -1.32192E+04
  2.08815E+03 -3.11841E+03 -4.61490E+03  6.06948E+03 -1.43746E+04  5.56493E+03 -1.58167E+04 -6.09587E+03
 -8.74005E+03 -1.85981E+04  6.01740E+03 -2.13480E+04  1.35371E+04 -1.57792E+04  1.66089E+04 -1.53495E+03
  1.02854E+04  1.15766E+04 -1.70641E+03  1.77971E+04 -1.22236E+04  1.00875E+04 -1.71232E+04 -3.94351E+03
 -1.32044E+04 -1.50389E+04 -1.62973E+03 -2.14367E+04  9.71147E+03 -1.71829E+04  1.77645E+04 -7.90504E+03
  1.62868E+04  1.51940E+03  1.20064E+04  3.79096E+03  6.04976E+03  1.16361E+03  8.45069E+03 -2.80502E+02
  1.51231E+04  2.75497E+03  1.67883E+04  1.36914E+04  1.09369E+04  2.73144E+04 -2.60667E+03  3.03260E+04
 -1.80694E+04  2.43681E+04 -2.76007E+04  1.28740E+04 -2.93125E+04 -2.15241E+03 -2.53682E+04 -1.66345E+04
 -1.03053E+04 -2.38516E+04  8.81409E+03 -2.27417E+04  1.91920E+04 -1.04715E+04  1.86485E+04  4.87801E+03
  6.47688E+03  1.32277E+04 -8.75641E+03  1.35015E+04 -1.45654E+04  2.57382E+03 -1.22072E+04 -7.97856E+03
 -2.11086E+02 -1.37172E+04  6.26762E+03 -9.96453E+03  1.01421E+04 -1.41674E+03  1.52565E+03  5.75225E+03
 -5.74935E+03  5.46455E+02 -5.13786E+03 -4.98386E+03  9.64796E+02 -1.23159E+04  9.15248E+03 -1.19042E+04
  1.45248E+04 -5.91222E+03  1.47174E+04  2.63985E+03  1.29793E+04  1.13962E+04  6.37223E+03  1.68889E+04
 -1.97502E+03  1.89851E+04 -1.23179E+04  1.20722E+04 -1.39501E+04  2.72489E+03 -9.92444E+03 -1.90298E+03
 -4.38547E+03 -3.53047E+03  3.73953E+02  1.17335E+03 -2.05601E+02  2.68229E+03 -3.75102E+03  4.10043E+03
 -8.41109E+03 -6.11851E+02 -9.21889E+03 -8.15697E+03 -3.41419E+03 -1.41776E+04  4.44599E+03 -1.03906E+04
  7.60720E+03 -5.20677E+03  5.63668E+03  2.92785E+03 -9.25195E+01  4.10053E+03 -4.00711E+03  2.89894E+02
 -3.51617E+03 -5.76585E+03 -7.45462E+02 -8.21059E+03  4.82301E+03 -8.75894E+03  1.09240E+04 -6.03293E+03
  1.43907E+04  1.40573E+03  1.05590E+04  8.42242E+03  3.34647E+03  1.05392E+04 -5.29711E+03  1.07599E+04
 -9.18400E+03  2.88859E+03 -4.53062E+03 -1.50186E+03  1.90992E+03 -2.92264E+03  5.49097E+03 -6.13114E+02
  4.28649E+03  3.56640E+03  7.12347E+02  6.89099E+03 -5.25201E+03  6.79981E+03 -9.27457E+03  2.09059E+03
 -6.48499E+03 -4.31585E+03  4.32831E+02 -6.13247E+03  4.98824E+03 -3.61284E+03  5.01255E+03  6.97216E+02
  5.15693E+02  3.39402E+03 -4.42383E+03  4.93662E+03 -6.90693E+03  3.49314E+03 -5.25377E+03 -1.79514E+03
 -4.43959E+03 -7.29328E+03  2.90666E+03 -9.97436E+03  8.31898E+03 -4.57125E+03  8.75675E+03  1.20939E+03
  5.87880E+03  7.04695E+03 -6.57257E+02  7.73915E+03 -6.22258E+03  4.16589E+03 -6.71652E+03 -8.39226E+02
 -6.48598E+03 -5.60862E+03 -1.01480E+03 -6.87931E+03  3.25272E+03 -3.51128E+03  4.19344E+03 -2.97442E+03
  3.12129E+03  1.05767E+03 -1.93830E+02  1.58329E+03  1.30484E+03 -1.17769E+03  7.72900E+02 -2.98261E+03
  4.94210E+03 -1.03348E+03  6.98074E+03  3.18783E+01  8.37036E+03  4.19532E+03  5.98829E+03  8.90498E+03
 -2.46191E+03  1.10470E+04 -9.29881E+03  7.86429E+03 -1.22482E+04  9.02735E+01 -9.96573E+03 -3.05910E+03
 -4.77979E+03 -7.58610E+03 -2.01816E+02 -5.92028E+03  2.74770E+03 -2.95614E+03  1.39141E+03 -2.48928E+03
  1.61267E+03 -1.44523E+03  1.56707E+03 -2.93866E+03  4.06644E+03 -1.96202E+03  4.09110E+03  5.94195E+02
  5.28707E+03  1.44008E+03  6.68149E+02  3.91726E+03 -1.45260E+03  3.87803E+03 -5.22415E+03  2.09689E+03
 -4.85289E+03 -5.87263E+02 -2.44436E+03 -4.95759E+03  5.74502E+02 -7.07571E+03  4.11217E+03 -6.53049E+03
  7.65474E+03 -4.25707E+03  8.16065E+03  1.15617E+03  5.92244E+03  5.69481E+03  7.93198E+02  7.20898E+03
 -2.27715E+03  6.38510E+03 -4.86763E+03  2.26478E+03 -2.29258E+03 -6.31171E+02 -1.04956E+03 -9.25513E+02
 -1.53093E+03  1.56176E+03 -7.52071E+02  3.26518E+03 -1.80784E+03  1.54663E+03 -3.95033E+03 -1.30306E+03
 -3.18953E+03 -4.70480E+03  1.50072E+02 -6.09070E+03  2.54944E+03 -6.01993E+03  4.98377E+03 -1.11354E+03
  5.99012E+03  3.33461E+03  3.10780E+03  3.25140E+03  1.05535E+02  5.52892E+03 -3.65356E+03  4.50432E+03
 -5.69373E+03  4.81274E+02 -3.20660E+03 -3.08159E+03 -9.21297E+02 -2.90956E+03  1.97070E+03 -3.86825E+03
  3.64552E+03 -1.12062E+03  2.16058E+03  2.23113E+02  4.71042E+02  2.02525E+03  3.85329E+02  1.92450E+03
  1.40248E+03  5.33643E+02  1.53944E+03  3.56322E+02  7.74962E+02  3.30276E+03  1.97158E+03  3.35699E+03
 -1.25132E+03  4.09667E+03 -3.75083E+03  3.85793E+03 -5.40429E+03  1.76124E+03 -4.42807E+03 -6.58147E+02
 -3.79110E+03 -4.33435E+03 -4.77388E+01 -6.18305E+03  2.76004E+03 -4.60400E+03  2.54736E+03 -1.26757E+03
  3.64049E+03  7.51633E+02  7.02632E+02  2.54102E+03 -1.03464E+03  4.63468E+02 -1.01876E+03 -8.12093E+01
 -7.99701E+02 -2.05086E+03  9.12135E+02 -2.65362E+03  2.05205E+03 -1.49091E+03  2.02359E+03  5.44716E+02
  2.05144E+03  4.03654E+02 -2.57309E+02 -6.37669E+02  8.52053E+01  1.28720E+03  2.36924E+03  7.50723E+02
  1.64591E+03 -4.20320E+02  1.88935E+03 -3.79270E+02  2.86929E+02  2.52733E+03  9.64809E+02  4.67180E+03
 -2.75525E+03  1.09528E+03 -2.95092E+03  4.71929E+02 -3.03427E+03 -5.17731E+02 -1.84373E+03 -1.13377E+03
 -2.05248E+01 -1.90049E+03  2.29468E+02 -2.58143E+03  3.28836E+02  1.19954E+03 -5.64589E+02  1.68002E+03
 -2.32302E+03  4.16096E+02 -4.17025E+02 -2.66979E+03 -1.65410E+03 -3.76367E+03 -8.64076E+02 -1.39768E+03
  1.85366E+03 -6.03992E+02  1.11824E+03  4.88901E+02  1.86963E+03 -7.27454E+02  4.49976E+02  2.08057E+03
 -1.22904E+03 -4.47756E+02 -1.01874E+03  8.80771E+02  5.72468E+02 -1.79618E+03  1.89749E+03 -1.53144E+03
  2.57643E+03  7.44391E+02  3.36027E+03  1.17984E+03  8.65155E+02  2.41290E+03  1.23025E+03  1.49753E+03
 -2.72629E+03  3.47111E+02 -1.05034E+03  4.67925E+01  8.84481E+01 -1.38602E+03 -9.09522E+02 -3.04660E+02
  1.92838E+03 -2.24672E+02  1.10025E+03  1.02610E+03  1.13122E+03  2.15391E+03  2.86694E+02  2.24277E+03
 -5.02866E+02  1.32649E+02 -1.41942E+02  5.35786E+02  1.12065E+01  1.54735E+02 -8.35479E+02  1.66335E+02
 -6.39578E+02  5.08068E+02 -1.99081E+03  4.43316E+02 -2.39226E+03  6.12693E+02 -3.76962E+03 -1.21772E+03
 -4.16058E+02 -2.85630E+03  1.48655E+03 -4.04259E+03  1.23172E+03 -2.35965E+03  3.28404E+03 -4.50685E+02
  2.92969E+03 -6.20099E+02  1.26477E+03  1.92890E+03 -1.66099E+03  1.44063E+03 -1.06834E+03  2.01004E+03
 -1.61425E+03 -4.97263E+02 -6.17351E+02 -2.21787E+02 -7.36402E+02 -1.25503E+02 -1.18188E+03 -6.17142E+02
 -8.66655E+02  2.89358E+02 -6.76296E+02  7.14916E+02  3.69876E+02 -1.05195E+03 -5.00555E+02 -5.34595E+02
  1.38014E+03  6.95029E+01  1.16570E+03  5.08457E+02  1.56925E+03  1.18314E+03 -2.48979E+02  2.07182E+03
 -1.43702E+03  2.55261E+03 -2.34782E+03  6.63812E+02 -2.08496E+03 -5.15837E-01 -6.99882E+02 -2.10107E+03
 -8.54540E+02 -2.00862E+03  7.42806E+02 -2.27733E+03  3.83498E+02 -1.15542E+03  1.05370E+03  3.94489E+02
  8.12242E+02  5.72385E+02  1.58623E+02  1.53281E+03 -1.44866E+03 -2.89485E+01  3.32206E+02 -8.37305E+02
  5.61933E+01  3.18812E+02  1.08825E+03  4.60934E+01 -6.11586E+01  1.34793E+02  9.49097E+02  5.62325E+02
 -1.30839E+03  6.07912E+02 -1.56092E+03  1.22070E+03 -1.39784E+02 -3.17854E+02  4.88644E+02 -8.61132E+02
  1.34951E+03 -2.08857E+03  1.25828E+03  1.44535E+02  9.63262E+02 -4.37781E+02  1.19893E+02  1.17848E+03
  7.00737E+02  5.04196E+02  6.74502E+02  7.49922E+02 -6.27135E+02  6.22552E+02 -1.24906E+03  1.54641E+03
 -5.08797E+02 -4.76481E+02  3.57281E+02  2.50661E+02 -1.23255E+03  2.67095E+02 -8.62930E+02 -1.01320E+02
 -1.16719E+03 -1.19003E+02 -1.09031E+03 -1.24261E+03  8.97667E+01 -1.92776E+03  8.11950E+02 -4.41064E+02
  1.14941E+03  7.20256E+01  6.71010E+02 -4.89431E+02  1.41445E+02  1.60576E+03 -5.96454E+02  7.74944E+01
