 $NMID ID='MM_0lb_SNR200_14hz_g55_91.RAW', FMTDAT='(8E13.5)'
 TRAMP=1., VOLUME=1. $END
  3.09960E+05  1.90968E+02  3.37440E+05  2.51721E+05  8.47467E+04  3.37900E+05 -1.33910E+05  2.49499E+05
 -1.90164E+05  8.36235E+04 -1.12097E+05 -3.26608E+04  8.21731E+02 -4.99771E+04  5.36330E+04 -4.96058E+01
  3.51483E+04  5.33932E+04 -1.66576E+04  7.61167E+04 -6.02315E+04  6.38270E+04 -8.47532E+04  3.18917E+04
 -8.12491E+04 -1.16281E+04 -5.82090E+04 -5.14356E+04 -1.39483E+04 -7.00501E+04  2.73417E+04 -4.53745E+04
  4.02383E+04  4.02362E+03  1.58075E+04  4.82992E+04 -3.39504E+04  4.62581E+04 -6.71356E+04  4.48940E+02
 -5.56644E+04 -5.89835E+04 -7.37011E+03 -7.63351E+04  3.31434E+04 -5.47635E+04  4.80730E+04 -1.80177E+04
  4.46197E+04  1.06049E+04  3.19368E+04  2.59479E+04  1.58526E+04  2.94710E+04 -5.25970E+03  2.72848E+04
 -2.15624E+04  1.25488E+04 -1.85824E+04 -4.29606E+03  5.90280E+03 -6.40771E+03  2.35204E+04  1.28040E+04
  6.62479E+03  3.45453E+04 -3.26549E+04  3.65619E+04 -6.48841E+04  1.53736E+03 -5.72052E+04 -4.33295E+04
 -1.23619E+04 -6.37806E+04  4.06894E+04 -4.61644E+04  5.90003E+04 -2.34240E+03  3.56992E+04  3.36612E+04
 -5.97071E+03  3.70348E+04 -2.95664E+04  1.67328E+04 -3.15641E+04 -4.44694E+03 -1.67303E+04 -1.08847E+04
 -8.27942E+03 -1.35861E+04 -1.10056E+03 -1.86248E+04  6.78843E+03 -2.21441E+04  1.70282E+04 -1.35510E+04
  1.13849E+04  5.29339E+03 -9.11228E+03  1.25337E+04 -2.11926E+04 -4.45296E+03 -9.13817E+03 -3.47227E+04
  2.37247E+04 -4.43246E+04  4.92199E+04 -2.07645E+04  4.61006E+04  1.94409E+04  1.60600E+04  4.41442E+04
 -1.57556E+04  3.52825E+04 -2.60838E+04  2.33227E+03 -8.80675E+03 -2.78012E+04  1.99815E+04 -3.38533E+04
  4.05784E+04 -1.01232E+04  3.70645E+04  2.43351E+04  1.86859E+04  4.77234E+04 -9.05929E+03  5.06581E+04
 -3.28781E+04  3.42506E+04 -4.28837E+04  1.25314E+04 -4.29699E+04 -1.68864E+04 -2.29506E+04 -3.88937E+04
  6.86855E+03 -3.81433E+04  3.17422E+04 -1.48843E+04  3.01126E+04  1.26445E+04  3.81193E+03  1.98335E+04
 -1.48757E+04  8.70119E+03 -1.09178E+04 -7.96371E+03  6.89858E+03 -1.04959E+04  1.87993E+04  6.47057E+03
  1.43890E+04  2.23535E+04 -5.32027E+03  2.55220E+04 -2.18927E+04  1.23286E+04 -2.92018E+04 -5.36033E+03
 -2.10686E+04 -1.84877E+04 -8.76573E+03 -2.03171E+04  4.20259E+03 -2.10070E+04  1.59938E+04 -1.97195E+04
  2.78022E+04 -1.30447E+04  3.32564E+04  3.25141E+03  2.42485E+04  2.01107E+04  3.80380E+03  3.66809E+04
 -1.67423E+04  2.99475E+04 -2.80268E+04  1.18006E+04 -2.04422E+04 -1.02267E+04 -4.06706E+03 -1.34086E+04
  2.15580E+03 -2.05670E+03 -5.80243E+03  6.49435E+03 -1.68670E+04  5.15978E+03 -1.68387E+04 -7.41026E+03
 -1.10212E+04 -2.01701E+04  6.01418E+03 -2.40233E+04  1.56699E+04 -1.62713E+04  1.86634E+04 -3.04414E+03
  1.17532E+04  1.41588E+04 -1.65007E+03  1.97790E+04 -1.44476E+04  1.08812E+04 -1.95081E+04 -3.45752E+03
 -1.44395E+04 -1.73608E+04 -2.36254E+03 -2.30842E+04  1.14257E+04 -1.89404E+04  2.10180E+04 -9.98911E+03
  1.79848E+04  1.10527E+03  1.35612E+04  5.86021E+03  6.93013E+03  1.43711E+03  9.78072E+03 -1.26198E+03
  1.87986E+04  3.78347E+03  2.09835E+04  1.54666E+04  1.29989E+04  3.10174E+04 -2.76138E+03  3.56403E+04
 -2.09263E+04  2.82958E+04 -3.36774E+04  1.63696E+04 -3.44586E+04 -1.92750E+03 -2.89275E+04 -2.05708E+04
 -1.35227E+04 -2.94813E+04  1.00258E+04 -2.67858E+04  2.20168E+04 -1.27128E+04  1.87698E+04  5.04594E+03
  6.90004E+03  1.41580E+04 -8.93623E+03  1.28742E+04 -1.63254E+04  2.68630E+03 -1.26926E+04 -1.03354E+04
  1.02271E+03 -1.51055E+04  8.01099E+03 -1.14535E+04  1.07249E+04  7.92096E+01  1.04565E+03  6.82989E+03
 -6.74852E+03  3.22095E+03 -7.23639E+03 -5.66983E+03 -1.53080E+03 -1.41499E+04  9.92539E+03 -1.41884E+04
  1.73664E+04 -8.06542E+03  1.80100E+04  3.41522E+03  1.82104E+04  1.42410E+04  7.92669E+03  2.13564E+04
 -3.27418E+03  2.21006E+04 -1.50127E+04  1.39091E+04 -1.69399E+04  3.65138E+03 -1.03984E+04 -5.23218E+03
 -5.59137E+03 -5.33415E+03 -1.30084E+03  7.21878E+02 -3.48369E+03  2.87762E+03 -6.37226E+03  3.88789E+03
 -1.13501E+04 -5.67919E+02 -1.20644E+04 -9.33940E+03 -4.28462E+03 -1.44186E+04  4.59135E+03 -1.24224E+04
  9.33771E+03 -5.28284E+03  7.02758E+03  2.89864E+03 -6.68927E+02  4.16004E+03 -6.56681E+03 -9.55819E+02
 -5.56125E+03 -7.63354E+03 -1.13335E+03 -1.14059E+04  5.98313E+03 -1.17090E+04  1.42466E+04 -6.16415E+03
  1.54804E+04  1.87622E+03  1.23936E+04  9.82340E+03  2.91735E+03  1.24418E+04 -6.44257E+03  1.11733E+04
 -1.05081E+04  2.44430E+03 -3.82436E+03 -3.95444E+03  1.41236E+03 -2.02294E+03  7.51420E+03 -9.68155E+02
  6.17548E+03  4.82690E+03  1.79500E+03  8.33296E+03 -5.71837E+03  9.24793E+03 -1.24204E+04  3.25366E+03
 -7.53488E+03 -4.92033E+03  2.91369E+02 -1.06515E+04  5.28159E+03 -4.65761E+03  6.56630E+03  2.05466E+03
  1.82981E+03  6.34459E+03 -4.57874E+03  8.23024E+03 -7.41644E+03  4.70593E+03 -8.48242E+03 -2.60455E+03
 -5.39561E+03 -9.39903E+03  2.79079E+03 -1.28164E+04  1.13066E+04 -7.24903E+03  1.11893E+04  2.80350E+03
  6.79846E+03  7.94581E+03 -1.56964E+03  1.04814E+04 -7.94996E+03  7.07100E+03 -8.06291E+03 -1.30338E+03
 -7.52896E+03 -7.42480E+03 -1.84516E+03 -8.26687E+03  3.69305E+03 -5.94361E+03  5.37022E+03 -1.59811E+03
  4.80623E+03  1.06972E+03 -9.76333E+02  2.38049E+03  5.39227E+02 -1.65189E+03 -6.82522E+01 -3.86881E+03
  7.27657E+03 -3.18430E+03  1.06072E+04 -9.01414E+02  9.79092E+03  7.58299E+03  7.47366E+03  1.32251E+04
 -3.07699E+03  1.45921E+04 -1.25444E+04  1.09063E+04 -1.64995E+04  2.86650E+03 -1.22343E+04 -6.37670E+03
 -7.23755E+03 -1.01178E+04 -5.25513E+02 -8.47009E+03  3.60229E+03 -5.25912E+03  2.92629E+03 -3.58258E+03
  1.10761E+03 -2.08112E+03  3.64883E+03 -3.24868E+03  4.38771E+03 -2.55213E+03  5.17647E+03  5.78342E+02
  6.54034E+03  2.36943E+02  3.93816E+03  5.28152E+03 -2.36906E+03  6.49612E+03 -8.12524E+03  6.15419E+03
 -8.56082E+03 -1.47104E+03 -5.66580E+03 -5.62826E+03 -3.26635E+01 -1.00852E+04  5.49737E+03 -1.06077E+04
  1.09574E+04 -6.13433E+03  1.15269E+04  2.24565E+03  9.35167E+03  7.42857E+03  5.70199E+02  1.11101E+04
 -3.95130E+03  1.01773E+04 -6.79525E+03  1.68982E+03 -4.88455E+03 -1.28061E+03 -2.39162E+03 -1.02956E+03
 -1.00002E+03 -2.64167E+02 -2.26412E+02  2.21097E+03 -2.93986E+03  3.04982E+03 -6.27109E+03 -1.40720E+03
 -3.90438E+03 -7.87739E+03 -1.16428E+03 -8.43702E+03  4.61262E+03 -8.73094E+03  7.79976E+03 -1.05600E+03
  8.92479E+03  4.87442E+03  3.68501E+03  8.10749E+03 -1.71345E+03  7.71900E+03 -5.47634E+03  5.19044E+03
 -8.20576E+03  6.75785E+02 -5.06012E+03 -4.98767E+03 -5.30411E+02 -7.45035E+03  3.30136E+03 -3.66300E+03
  5.88683E+03 -2.05212E+03  2.49556E+03  1.25387E+03  1.77152E+03  2.56580E+03  1.04170E+03  6.64461E+02
  1.90433E+03  7.53339E+02  2.18287E+03  1.58980E+03  2.86107E+03  4.36739E+03  2.85076E+03  3.42054E+03
 -1.16163E+03  6.51186E+03 -5.21994E+03  6.45399E+03 -6.65029E+03  2.66515E+03 -7.83807E+03 -1.71204E+03
 -4.44410E+03 -8.00544E+03  9.05729E+02 -8.87720E+03  5.28880E+03 -5.34807E+03  5.46920E+03 -1.33154E+03
  4.46154E+03  2.70324E+03  5.14919E+02  4.03199E+03 -2.29342E+03  3.48554E+03 -2.94302E+03  2.06328E+02
 -4.98129E+02 -3.70841E+03  2.38413E+03 -3.39069E+03  4.17842E+03 -2.01370E+03  4.19144E+03  3.34241E+02
  9.45149E+02  1.46013E+03  9.87344E+02  6.02415E+02 -5.15825E+02  1.00210E+03  3.67493E+01  1.31015E+03
  1.46652E+03 -5.22433E+02  2.54561E+03  9.27060E+02  1.25973E+03  4.91870E+03 -1.59708E+03  6.36957E+03
 -2.93386E+03  3.91484E+03 -5.29892E+03  1.01152E+03 -5.37995E+03 -1.64283E+03 -1.67523E+03 -2.47011E+03
  1.00268E+03 -3.60503E+03  1.01259E+03 -1.46494E+03  9.05773E+02  2.72088E+03 -1.74664E+03  1.87942E+03
 -2.94271E+03  6.33401E+02 -4.17120E+03 -2.06324E+03 -2.41531E+03 -4.43507E+03  1.57823E+02 -4.51801E+03
  1.82618E+03 -1.56215E+03  3.82401E+03  1.17943E+03  2.32224E+03  2.58361E+02 -2.45667E+02  2.75849E+03
 -9.58588E+02  5.82150E+02 -1.27542E+03 -3.33454E+02  3.35786E+02 -2.68047E+03  4.81584E+03 -2.48205E+03
  3.26360E+03  1.09186E+03  4.98774E+03  2.19205E+03  1.64300E+03  4.41213E+03 -1.44109E+03  3.28695E+03
 -3.45254E+03  1.42827E+03 -4.21946E+03 -3.00948E+02 -1.88013E+03 -2.57638E+03  1.18907E+03 -2.91189E+03
  2.90733E+03 -1.42120E+03  3.76759E+03  3.18158E+02  9.50466E+02  2.25127E+03 -1.66075E+02  2.03317E+03
 -1.63129E+03  2.13920E+03 -8.95131E+02  5.21525E+02 -8.91269E+01  1.31514E+03 -1.34030E+03  2.08937E+03
 -1.79517E+03  2.03975E+03 -4.92685E+03  1.23200E+03 -3.22721E+03 -1.19416E+03 -4.97036E+03 -2.75792E+03
 -1.33850E+03 -5.79572E+03  2.42731E+02 -6.34448E+03  1.71626E+03 -5.13319E+03  7.22212E+03 -2.08955E+03
  5.85424E+03  1.58729E+03  3.21306E+03  3.48603E+03  1.92623E+02  3.66797E+03 -1.83870E+03  3.67942E+03
 -3.36124E+03  1.29579E+03 -1.81858E+03  1.93427E+02 -1.03715E+03 -9.92319E+02 -8.40796E+02 -1.12394E+02
 -3.50919E+02 -5.83576E+02 -1.19874E+03  5.86893E+02  1.48060E+03 -1.36080E+03  8.54174E+00 -1.93684E+03
  1.80415E+03 -2.00556E+03  2.22087E+03  4.16746E+02  2.93802E+03  1.63048E+03  1.48785E+02  3.20875E+03
 -2.88485E+03  5.25048E+03 -4.59432E+03  2.92067E+03 -3.72311E+03  3.35751E+02 -4.86486E+03 -2.62514E+03
 -1.23675E+03 -3.54346E+03  6.77588E+02 -3.32926E+03  3.30005E+03 -1.39595E+03  2.46583E+03  2.90138E+01
  9.47536E+02  4.51326E+02 -1.22049E+03  1.12424E+02 -6.57224E+02 -3.01512E+02 -4.56550E+02 -1.41073E+03
  1.02632E+03 -1.95452E+02  8.16960E+02  1.89119E+03 -6.23239E+01  5.87995E+02  1.12288E+03  1.27923E+03
 -1.35173E+03  1.43837E+03 -3.01555E+03  7.36205E+01 -1.53244E+03 -1.96440E+03 -7.28148E+02 -4.01532E+03
  1.51015E+03 -2.13460E+03  1.86226E+03 -1.23597E+03  3.94711E+03  5.85503E+01  9.96257E+02  2.96187E+03
 -3.75303E+02  1.02174E+03 -3.65391E+02  5.31452E+02 -2.41435E+03  9.21434E+02 -8.89343E+02  1.22334E+03
 -1.49012E+03  1.25945E+02 -7.01210E+02  8.73244E+02 -6.03313E+02  2.29462E+02 -3.25097E+03 -6.86330E+02
 -1.98270E+03 -3.15707E+02 -4.35434E+02 -2.11348E+03  1.04391E+03 -2.95883E+03  2.25361E+03 -4.91213E+02
  3.90096E+03 -1.26524E+02  6.10426E+02  2.14655E+03 -1.60039E+03  2.39564E+03 -1.24933E+03  1.39122E+03
