 $NMID ID='MM_0lb_SNR200_15hz_g45_27.RAW', FMTDAT='(8E13.5)'
 TRAMP=1., VOLUME=1. $END
  3.08602E+05  6.05456E+02  3.37858E+05  2.50975E+05  8.54677E+04  3.37832E+05 -1.32990E+05  2.50389E+05
 -1.90627E+05  8.22355E+04 -1.11634E+05 -3.33478E+04  9.35444E+02 -5.07820E+04  5.37556E+04 -1.81369E+02
  3.60627E+04  5.38115E+04 -1.60712E+04  7.43207E+04 -5.99798E+04  6.33298E+04 -8.48880E+04  3.11119E+04
 -8.01108E+04 -1.16897E+04 -5.72941E+04 -4.99336E+04 -1.47485E+04 -6.83195E+04  2.83288E+04 -4.51051E+04
  3.99010E+04  3.65164E+03  1.57681E+04  4.70798E+04 -3.34586E+04  4.71018E+04 -6.70836E+04 -7.46871E+02
 -5.31784E+04 -5.63750E+04 -6.79384E+03 -7.63372E+04  3.28419E+04 -5.39953E+04  4.83455E+04 -1.70553E+04
  4.24590E+04  1.03378E+04  3.19165E+04  2.64267E+04  1.61837E+04  2.93223E+04 -4.64730E+03  2.66678E+04
 -2.20315E+04  1.24075E+04 -1.88053E+04 -5.25136E+03  5.21383E+03 -6.27312E+03  2.15880E+04  1.19388E+04
  6.62166E+03  3.56528E+04 -3.06308E+04  3.52885E+04 -6.33456E+04  2.36218E+03 -5.74542E+04 -4.18510E+04
 -1.20766E+04 -6.39686E+04  3.88872E+04 -4.49110E+04  5.74209E+04 -2.75481E+03  3.40304E+04  3.02437E+04
 -7.23722E+03  3.54690E+04 -2.90183E+04  1.45609E+04 -2.92125E+04 -4.89759E+03 -1.55297E+04 -1.10845E+04
 -7.63613E+03 -1.29730E+04 -3.59786E+02 -1.74151E+04  6.84463E+03 -2.30794E+04  1.41940E+04 -1.38166E+04
  1.14231E+04  5.11644E+03 -7.14931E+03  1.18170E+04 -2.03211E+04 -3.32410E+03 -8.08976E+03 -3.32142E+04
  2.17218E+04 -4.35880E+04  4.85424E+04 -1.94046E+04  4.43205E+04  1.97263E+04  1.50732E+04  4.30404E+04
 -1.62497E+04  3.24803E+04 -2.50566E+04  8.22925E+02 -9.14154E+03 -2.63394E+04  1.97259E+04 -3.39853E+04
  3.94172E+04 -9.06753E+03  3.49340E+04  2.33125E+04  1.65073E+04  4.50090E+04 -7.76572E+03  4.81147E+04
 -3.05758E+04  3.28436E+04 -4.13736E+04  9.26817E+03 -4.07644E+04 -1.50209E+04 -2.28187E+04 -3.69807E+04
  7.01871E+03 -3.60035E+04  3.04566E+04 -1.33724E+04  2.76677E+04  1.01796E+04  4.91870E+03  1.83771E+04
 -1.34374E+04  7.34289E+03 -9.47894E+03 -8.07004E+03  5.25665E+03 -9.73286E+03  1.82028E+04  5.90289E+03
  1.22734E+04  2.28639E+04 -5.90269E+03  2.35226E+04 -2.30248E+04  1.02646E+04 -2.63276E+04 -6.11494E+03
 -1.88762E+04 -1.65790E+04 -7.80171E+03 -1.97810E+04  3.50079E+03 -1.82281E+04  1.53099E+04 -1.70416E+04
  2.50773E+04 -1.41432E+04  3.19063E+04  2.07720E+03  2.37103E+04  1.91593E+04  5.08109E+03  3.41956E+04
 -1.76515E+04  2.88293E+04 -2.64414E+04  1.00716E+04 -2.08104E+04 -9.35010E+03 -5.36584E+03 -1.30048E+04
  1.38499E+03 -2.70673E+03 -3.78731E+03  8.27298E+03 -1.53620E+04  4.66447E+03 -1.47482E+04 -7.08390E+03
 -9.66729E+03 -1.80468E+04  4.43750E+03 -2.10635E+04  1.47637E+04 -1.53181E+04  1.61069E+04 -2.01538E+03
  1.06814E+04  1.12046E+04 -9.52819E+02  1.88542E+04 -1.17443E+04  1.11258E+04 -1.80041E+04 -3.09043E+03
 -1.26069E+04 -1.66349E+04 -1.31953E+03 -2.17511E+04  1.03588E+04 -1.87205E+04  1.83486E+04 -7.46285E+03
  1.59165E+04  3.78348E+02  1.20891E+04  4.71169E+03  5.29171E+03  1.23843E+03  7.65653E+03 -4.28429E+02
  1.64143E+04  2.14190E+03  1.81624E+04  1.31991E+04  1.17423E+04  2.86369E+04 -3.79464E+03  3.20234E+04
 -1.95212E+04  2.43543E+04 -3.00537E+04  1.16811E+04 -3.09676E+04 -1.98521E+03 -2.58176E+04 -1.88660E+04
 -1.07899E+04 -2.49696E+04  7.54937E+03 -2.33691E+04  1.91209E+04 -1.22674E+04  1.77768E+04  4.70656E+03
  6.97236E+03  1.35515E+04 -6.99568E+03  1.22498E+04 -1.60008E+04  1.42580E+03 -1.14490E+04 -8.85610E+03
 -3.34364E+02 -1.39577E+04  7.50950E+03 -9.72870E+03  9.95716E+03 -1.57628E+03  2.33272E+03  6.40013E+03
 -5.84830E+03  1.68291E+03 -4.67893E+03 -5.22342E+03  7.54369E+02 -1.16248E+04  9.64919E+03 -1.30016E+04
  1.66246E+04 -7.01673E+03  1.60145E+04  3.48917E+03  1.36164E+04  1.24719E+04  6.30747E+03  1.78429E+04
 -4.27476E+03  2.01722E+04 -1.21836E+04  1.23503E+04 -1.46284E+04  3.49277E+03 -9.89632E+03 -4.60896E+03
 -4.91482E+03 -4.11898E+03 -7.06623E+02  4.68009E+02 -1.95572E+03  1.98962E+03 -5.32068E+03  4.36176E+03
 -1.05462E+04 -1.60085E+03 -1.10383E+04 -8.43829E+03 -4.13551E+03 -1.39931E+04  4.59185E+03 -1.02346E+04
  9.00304E+03 -4.96354E+03  6.68348E+03  2.45613E+03  5.65606E+02  4.43743E+03 -4.29291E+03 -9.47971E+02
 -3.88176E+03 -6.53786E+03 -3.15989E+02 -8.89421E+03  6.26124E+03 -1.03918E+04  1.21383E+04 -4.17829E+03
  1.53119E+04  1.03653E+03  1.12011E+04  7.57771E+03  4.40686E+02  1.19190E+04 -5.06696E+03  1.06510E+04
 -8.03587E+03  4.81435E+03 -4.15029E+03 -1.62547E+03  1.33057E+03 -2.82125E+03  5.48019E+03 -3.88682E+02
  4.45654E+03  3.50206E+03  1.51565E+03  9.04494E+03 -5.76906E+03  7.78598E+03 -1.00942E+04  1.74489E+03
 -5.66084E+03 -4.81290E+03  9.39746E+02 -8.20036E+03  5.22934E+03 -4.10987E+03  5.49113E+03  4.89580E+02
  1.68682E+03  5.24134E+03 -5.81931E+03  5.98344E+03 -6.10920E+03  2.45732E+03 -7.52078E+03 -2.20583E+03
 -3.70535E+03 -8.84737E+03  2.19715E+03 -9.55081E+03  8.92711E+03 -5.44993E+03  7.96021E+03  2.13491E+03
  5.54697E+03  7.03747E+03 -8.78271E+02  9.19243E+03 -6.36210E+03  6.55863E+03 -8.86240E+03 -6.56083E+02
 -7.53405E+03 -5.20928E+03 -1.00329E+03 -5.27709E+03  3.54493E+03 -5.66374E+03  3.72356E+03 -2.33207E+03
  3.23375E+03  1.06011E+03  6.31293E+01  2.29538E+02  5.95576E+02 -3.78836E+02  1.80581E+03 -2.82647E+03
  5.21301E+03 -2.63024E+03  9.15221E+03  2.98988E+02  7.82613E+03  4.16241E+03  6.14409E+03  9.71212E+03
 -2.83679E+03  1.17658E+04 -1.16609E+04  1.04305E+04 -1.53960E+04 -1.87480E+02 -1.05008E+04 -2.53878E+03
 -5.75374E+03 -9.92892E+03 -1.44296E+03 -6.85952E+03  1.76495E+03 -3.74973E+03  2.81654E+03 -2.82964E+03
  2.20177E+03 -1.40172E+03  1.51050E+03 -2.94326E+03  4.06687E+03 -1.34335E+03  4.91999E+03  2.20327E+02
  7.28387E+03  2.24405E+03  1.77046E+03  4.87334E+03 -1.35319E+03  5.64907E+03 -4.73234E+03  4.02432E+03
 -6.91022E+03 -8.28635E+01 -4.42468E+03 -5.18545E+03  6.70549E+02 -8.33688E+03  4.43481E+03 -6.90811E+03
  8.68941E+03 -4.31028E+03  1.00352E+04  2.36847E+03  6.53607E+03  7.27023E+03  2.15011E+03  8.80392E+03
 -4.30146E+03  7.68934E+03 -4.58424E+03  2.43458E+03 -2.39328E+03 -1.17664E+03 -9.03101E+02 -1.21999E+03
 -2.81782E+02  6.45548E+02 -9.94876E+02  4.82830E+02 -3.00661E+03  1.49935E+03 -5.43289E+03 -6.33747E+02
 -4.00339E+03 -5.58913E+03  1.47187E+03 -6.29379E+03  3.30083E+03 -6.78750E+03  6.73602E+03 -2.32236E+03
  6.49275E+03  3.71715E+03  2.87076E+03  5.53878E+03 -6.14656E+01  6.13027E+03 -3.93259E+03  3.17958E+03
 -5.81941E+03  1.18385E+03 -6.37101E+03 -3.56431E+03 -7.51212E+02 -5.05588E+03  3.19909E+03 -5.07468E+03
  4.21492E+03 -1.61240E+03  3.32313E+03  1.50748E+03  1.22426E+03  2.77570E+03 -2.01144E+02  1.59728E+02
  2.73805E+03  2.81453E+02  8.91681E+02  1.51750E+03  2.15332E+03  2.44489E+03  1.69829E+03  2.76853E+03
 -1.46466E+03  4.86935E+03 -4.29315E+03  5.70383E+03 -6.34595E+03  1.80169E+03 -6.76203E+03 -7.33238E+02
 -3.68667E+03 -6.53673E+03  6.72943E+02 -7.16818E+03  2.99455E+03 -3.89682E+03  5.85542E+03 -4.25016E+02
  3.52878E+03  2.70860E+03  8.76642E+02  4.53193E+03 -2.04462E+03  3.52582E+03 -1.98141E+03 -1.67797E+03
 -1.03746E+03 -2.94174E+03  2.35744E+03 -2.62103E+03  2.63684E+03 -8.16000E+02  1.71412E+03  1.18770E+03
  2.24004E+03  5.38447E+02  2.57434E+03  2.49484E+02 -6.54095E+02  7.64902E+02  2.11433E+03 -2.83736E+02
  9.14179E+02  1.04401E+03  3.04827E+03  1.60344E+03  9.55992E+02  4.75391E+03 -1.78804E+02  5.61311E+03
 -3.74216E+03  2.73156E+03 -3.25630E+03  1.37543E+03 -3.09238E+03 -1.31943E+03 -1.07925E+03 -1.81262E+03
  3.56180E+02 -2.39145E+02  2.21540E+03 -7.16142E+02  1.61452E+03  8.76937E+02 -9.84019E+02  2.60229E+03
 -3.07205E+03  2.63388E+03 -1.88085E+03  3.80476E+02 -2.35184E+03 -3.51697E+03 -4.46427E+02 -2.32145E+03
  9.18329E+02 -1.40540E+03  5.22104E+02 -3.22138E+02  1.98747E+03 -2.98112E+02  2.12966E+02  4.74729E+02
 -2.64046E+02 -1.00759E+02 -1.66758E+03 -1.11047E+03 -2.84585E+02 -2.10299E+03  2.84399E+03 -2.25216E+03
  3.10953E+03  3.46770E+02  3.64505E+03  1.84021E+03  1.85848E+03  3.80286E+03 -8.20436E+02  5.07580E+03
 -3.36486E+03  2.39242E+03 -3.48453E+03 -1.99542E+02 -1.26612E+03 -2.43226E+03  1.18628E+03 -2.61931E+03
  2.42004E+03 -3.28696E+02  1.53194E+03  7.15155E+02  1.13962E+03  2.56644E+03  1.55694E+03  8.72898E+02
 -1.46650E+03  1.75518E+03 -2.27097E+03 -1.02844E+03 -1.12827E+03  1.04647E+03 -1.33407E+03 -4.63786E+02
 -1.95967E+03  1.12115E+03 -2.57579E+03  4.81691E+02 -3.32795E+03 -8.06172E+02 -4.42974E+03 -1.49591E+03
 -2.02123E+03 -5.00259E+03  6.66423E+02 -6.32246E+03  1.72364E+03 -3.96489E+03  5.72283E+03 -9.45412E+02
  3.89485E+03 -5.38764E+02  2.84522E+03  2.98090E+03 -8.01244E+02  3.83578E+03 -2.01968E+03  1.83740E+03
 -1.10223E+03  1.10265E+03 -1.62545E+03 -2.94686E+02 -1.22309E+03 -7.98678E+02 -6.15458E+02  8.87873E+02
 -1.59699E+03 -5.17223E+02 -1.66557E+03  4.79184E+01  1.93306E+02 -4.76240E+02 -1.00244E+03 -1.61611E+03
  2.09911E+03 -1.10258E+03  1.47244E+03  8.26453E+02  2.96315E+03  2.84063E+03 -1.20882E+03  3.13793E+03
 -1.24065E+03  3.87982E+03 -2.84264E+03  2.97305E+03 -3.51180E+03 -1.27640E+03 -2.70970E+03 -3.46089E+03
 -1.22446E+03 -1.96127E+03  2.61452E+02 -2.82933E+03  1.55989E+03 -1.88834E+03  7.55595E+02 -8.58861E+02
  1.37817E+03 -6.65752E+01  1.69239E+03  1.14084E+03 -6.31228E+01 -3.27881E+02 -1.49691E+02  1.17091E+02
  1.39223E+03 -1.08061E+03  7.36377E+02  8.48198E+02  2.56092E+02  3.93835E+02  8.25913E+00  6.57026E+02
 -2.22546E+03  1.93466E+03 -2.55559E+03 -2.57650E+02 -6.43177E+02 -1.64483E+03 -7.08654E+02 -2.63632E+03
  2.32925E+03 -2.33940E+03  1.20431E+03 -1.47935E+03  1.55229E+03  8.34334E+02  1.26424E+03  1.35264E+03
 -5.88460E+02  2.19085E+03  7.51979E+01  1.63130E+03 -4.62489E+02  7.35045E+02 -1.42966E+03 -9.76626E+02
  8.59326E+02 -7.13875E+02  1.63762E+02  7.60918E+02 -8.12981E+02 -6.05184E+02 -9.60025E+02  4.79671E+02
 -1.67139E+03  4.35130E+02 -1.19574E+03 -2.27645E+03  5.25828E+02 -2.42832E+03  1.33114E+03 -1.39885E+03
  1.44794E+03  1.82072E+02 -9.87618E+00  1.46282E+03 -5.02822E+02  1.30491E+03 -1.64146E+03  2.31601E+03
