 $NMID ID='MM_0lb_SNR200_7hz_g40_22.RAW', FMTDAT='(8E13.5)'
 TRAMP=1., VOLUME=1. $END
  3.09416E+05  4.30786E+02  3.39035E+05  2.49508E+05  8.45033E+04  3.38889E+05 -1.33293E+05  2.53394E+05
 -1.91194E+05  8.29446E+04 -1.12859E+05 -3.36161E+04  7.96228E+02 -5.18692E+04  5.31815E+04 -8.11020E+02
  3.75329E+04  5.35602E+04 -1.64357E+04  7.44543E+04 -6.22805E+04  6.41848E+04 -8.47550E+04  3.28279E+04
 -8.26449E+04 -1.25496E+04 -5.90104E+04 -5.17811E+04 -1.71153E+04 -7.08907E+04  2.82164E+04 -4.78681E+04
  4.15250E+04  2.82953E+03  1.60841E+04  4.98208E+04 -3.52296E+04  4.75327E+04 -6.83364E+04  1.77091E+03
 -5.40607E+04 -5.85072E+04 -7.72261E+03 -7.84734E+04  3.68936E+04 -5.70133E+04  5.06863E+04 -1.96340E+04
  4.66798E+04  1.26297E+04  3.21163E+04  2.78082E+04  1.68727E+04  3.10756E+04 -5.51016E+03  2.55128E+04
 -2.23223E+04  1.28377E+04 -1.93428E+04 -6.38866E+03  7.22534E+03 -7.17807E+03  2.35110E+04  1.26313E+04
  6.67724E+03  3.84187E+04 -3.40897E+04  3.73366E+04 -6.66642E+04  1.47073E+03 -6.08761E+04 -4.38110E+04
 -1.35620E+04 -6.55118E+04  4.14250E+04 -4.73197E+04  6.28951E+04 -6.11663E+03  3.54162E+04  3.42449E+04
 -6.38652E+03  4.09768E+04 -3.18258E+04  2.02927E+04 -3.40182E+04 -3.83082E+03 -1.85749E+04 -1.25571E+04
 -8.88560E+03 -1.66233E+04 -7.04184E+02 -1.91807E+04  7.33778E+03 -2.45591E+04  1.55855E+04 -1.32634E+04
  1.05195E+04  8.11222E+03 -9.78381E+03  1.33222E+04 -2.17443E+04 -7.17709E+03 -9.86041E+03 -3.82857E+04
  2.46469E+04 -4.71961E+04  5.31907E+04 -2.14179E+04  4.81364E+04  2.13117E+04  1.86091E+04  4.62433E+04
 -1.83684E+04  3.47878E+04 -2.80994E+04  2.24818E+03 -1.13698E+04 -3.09168E+04  2.08265E+04 -3.78268E+04
  4.52950E+04 -1.25192E+04  4.03949E+04  2.58393E+04  2.05394E+04  5.14539E+04 -7.08234E+03  5.73896E+04
 -3.84679E+04  4.00448E+04 -4.79422E+04  1.10337E+04 -4.80282E+04 -2.05024E+04 -2.59713E+04 -4.37157E+04
  7.54438E+03 -4.32056E+04  3.50345E+04 -1.70676E+04  3.45875E+04  1.25886E+04  7.62714E+03  2.02033E+04
 -1.47437E+04  9.47208E+03 -1.13106E+04 -8.72218E+03  4.00291E+03 -1.12220E+04  1.88749E+04  5.12206E+03
  1.52310E+04  2.29667E+04 -4.84238E+03  2.62174E+04 -2.32557E+04  1.58691E+04 -3.30787E+04 -2.45060E+03
 -2.78672E+04 -1.78851E+04 -1.14941E+04 -2.71746E+04  3.95045E+03 -2.73411E+04  2.25016E+04 -2.42435E+04
  3.41168E+04 -1.48250E+04  4.04043E+04  6.24576E+03  2.96563E+04  2.57913E+04  4.74117E+03  4.16609E+04
 -2.21295E+04  3.47703E+04 -3.09765E+04  1.01714E+04 -2.44416E+04 -9.81841E+03 -6.11925E+03 -1.22792E+04
  1.94485E+03 -2.33897E+02 -7.85017E+03  8.47925E+03 -2.07518E+04  4.11644E+03 -2.04052E+04 -1.08712E+04
 -1.22644E+04 -2.49996E+04  5.65376E+03 -2.96211E+04  1.84630E+04 -2.24301E+04  2.49424E+04 -2.22399E+03
  1.60684E+04  1.65166E+04 -1.17639E+03  2.52261E+04 -1.81099E+04  1.57110E+04 -2.51567E+04 -3.84311E+03
 -1.93219E+04 -2.33119E+04 -2.24323E+03 -2.84325E+04  1.20676E+04 -2.52945E+04  2.41225E+04 -1.50444E+04
  2.38996E+04 -1.16980E+03  1.70369E+04  5.31355E+03  1.00852E+04  1.48286E+03  1.26770E+04  3.14397E+02
  2.29244E+04  4.34763E+03  2.71932E+04  1.84460E+04  2.03694E+04  3.95637E+04 -3.27755E+03  4.70427E+04
 -2.57824E+04  3.86995E+04 -4.47257E+04  2.13501E+04 -4.87534E+04 -1.97671E+03 -3.79451E+04 -2.80592E+04
 -1.43924E+04 -4.09875E+04  1.54595E+04 -3.58204E+04  2.87173E+04 -1.91264E+04  2.56536E+04  8.08466E+03
  9.92695E+03  2.16290E+04 -1.18687E+04  1.71034E+04 -2.16076E+04  2.72374E+03 -1.71536E+04 -1.39735E+04
  4.87177E+02 -2.07117E+04  1.10976E+04 -1.67488E+04  1.35346E+04 -8.83777E+02  2.35034E+03  9.37826E+03
 -1.06804E+04  5.87868E+03 -9.73033E+03 -6.42618E+03 -2.45974E+03 -1.81638E+04  1.36273E+04 -2.08955E+04
  2.47659E+04 -1.19230E+04  2.76865E+04  4.21538E+03  2.32378E+04  2.02666E+04  1.33905E+04  3.23250E+04
 -4.99529E+03  3.40670E+04 -2.03207E+04  2.14186E+04 -2.43343E+04  5.69672E+03 -1.83032E+04 -7.58950E+03
 -4.71788E+03 -7.99465E+03 -4.60797E+02  6.30799E+02 -4.10656E+03  3.75444E+03 -7.27668E+03  5.53011E+03
 -1.56903E+04 -3.89832E+02 -1.48374E+04 -1.19602E+04 -5.83989E+03 -2.08052E+04  8.24194E+03 -1.65958E+04
  1.37020E+04 -6.88784E+03  1.09796E+04  5.02415E+03 -2.13986E+03  6.32086E+03 -8.71072E+03 -1.14581E+03
 -9.37930E+03 -1.05750E+04 -6.67006E+02 -1.79163E+04  1.13882E+04 -1.69014E+04  2.17256E+04 -1.09030E+04
  2.63261E+04  1.57213E+03  1.84834E+04  1.58198E+04  5.23687E+03  1.86649E+04 -1.03668E+04  1.69597E+04
 -1.25883E+04  5.29087E+03 -5.44063E+03 -3.75715E+03  2.57232E+03 -7.25035E+03  7.74974E+03 -2.35891E+03
  8.95505E+03  6.73457E+03  4.82228E+02  1.32740E+04 -9.61649E+03  1.18740E+04 -1.53541E+04  3.61509E+03
 -1.26893E+04 -1.01270E+04 -1.79807E+02 -1.61498E+04  1.13146E+04 -9.72603E+03  1.09082E+04  4.13819E+03
  2.93760E+03  1.08892E+04 -1.03371E+04  1.35450E+04 -1.57809E+04  6.95609E+03 -1.43829E+04 -4.48923E+03
 -8.55855E+03 -1.85932E+04  5.40328E+03 -1.90676E+04  1.79639E+04 -1.04262E+04  1.87378E+04  3.98542E+03
  1.13646E+04  1.49123E+04  4.82819E+02  1.81614E+04 -1.30096E+04  9.22416E+03 -1.46789E+04 -1.63519E+03
 -1.20087E+04 -1.08911E+04 -8.91162E+02 -1.29341E+04  7.59812E+03 -1.09325E+04  8.94183E+03 -4.26908E+03
  7.31806E+03  2.35600E+03 -4.59435E+02  9.05141E+02  1.03148E+03 -3.50346E+03  3.52632E+03 -9.54396E+03
  1.42429E+04 -6.25843E+03  1.86456E+04  4.69900E+02  1.89034E+04  1.30949E+04  1.14937E+04  2.42067E+04
 -6.56396E+03  2.87151E+04 -2.27005E+04  1.92061E+04 -2.99494E+04  2.19988E+03 -2.32256E+04 -1.14183E+04
 -1.20668E+04 -1.86231E+04  1.41736E+03 -1.67850E+04  6.42765E+03 -9.58221E+03  6.82105E+03 -7.41051E+03
  3.97502E+03 -2.15698E+03  4.32306E+03 -4.31895E+03  5.79545E+03 -4.15793E+03  9.86904E+03 -1.67944E+03
  1.40680E+04  3.15475E+03  6.50863E+03  9.17450E+03 -2.16899E+03  1.39398E+04 -1.37199E+04  1.04812E+04
 -1.78794E+04 -2.96731E+03 -1.20369E+04 -1.36922E+04 -3.17167E+03 -1.92709E+04  8.56813E+03 -1.70447E+04
  1.79555E+04 -1.14549E+04  2.30955E+04  4.90437E+03  1.65807E+04  1.52260E+04  3.63043E+03  2.23601E+04
 -7.22419E+03  1.62017E+04 -1.17843E+04  5.49972E+03 -7.13047E+03 -2.65782E+03 -3.38029E+03 -2.67652E+03
 -1.23118E+03 -2.18887E+03 -3.04042E+03  3.10603E+03 -7.82467E+03  1.32412E+03 -1.10137E+04 -2.01612E+03
 -8.40464E+03 -1.08717E+04 -1.21129E+03 -1.71783E+04  1.15220E+04 -1.71322E+04  1.75656E+04 -5.43136E+03
  1.75943E+04  9.57555E+03  6.45918E+03  1.52657E+04 -4.56752E+03  1.90358E+04 -1.28223E+04  1.08863E+04
 -1.79206E+04  5.38591E+02 -1.32604E+04 -1.00135E+04 -7.18916E+02 -1.49287E+04  7.29769E+03 -1.09772E+04
  1.09472E+04 -2.05972E+03  8.80634E+03  3.85521E+03  3.03985E+03  6.23169E+03  1.18122E+03  1.13716E+03
  3.20028E+03  1.22749E+03  5.08906E+03  1.09568E+03  6.35484E+03  5.32106E+03  3.56319E+03  1.10841E+04
 -1.32751E+03  1.47599E+04 -1.04466E+04  1.35314E+04 -1.81438E+04  3.86268E+03 -2.04110E+04 -9.26595E+03
 -8.38471E+03 -1.84127E+04  2.99817E+03 -2.11791E+04  1.08852E+04 -1.32033E+04  1.55350E+04 -2.07525E+03
  1.28878E+04  5.25800E+03  3.10500E+03  9.67989E+03 -4.18622E+03  6.21415E+03 -7.34452E+03 -4.54706E+02
 -5.36132E+03 -8.28086E+03  3.86593E+03 -1.11972E+04  9.12737E+03 -4.60849E+03  7.33393E+03  1.12703E+03
  5.59576E+03  3.89982E+03  3.53226E+03  1.62664E+03 -1.54355E+03  3.32319E+03  1.16810E+03 -1.02465E+03
  4.31669E+03  9.39404E+02  7.97607E+03  3.23435E+03  5.33553E+03  9.44350E+03 -1.81597E+03  1.37377E+04
 -7.35256E+03  9.81062E+03 -1.36650E+04  2.46450E+03 -1.14617E+04 -4.67993E+03 -3.62746E+03 -8.62878E+03
  1.00874E+03 -9.48068E+03  4.36216E+03 -3.54688E+03  4.99376E+03  3.71607E+03 -2.32312E+03  6.89852E+03
 -9.36228E+03  2.84868E+03 -9.06907E+03 -2.20174E+03 -4.96309E+03 -1.12975E+04  2.58370E+03 -1.07789E+04
  6.68216E+03 -6.64923E+03  9.07092E+03 -1.84377E+03  6.29722E+03  2.87559E+03  5.25985E+02  6.31540E+03
 -4.57164E+03  2.08216E+03 -3.67804E+03 -3.15936E+03  8.25863E+02 -1.03593E+04  8.38155E+03 -8.37501E+03
  1.20558E+04  1.55292E+03  1.09850E+04  7.32636E+03  5.29312E+03  1.38838E+04 -6.38009E+03  1.31008E+04
 -9.78439E+03  6.18565E+03 -9.17722E+03 -1.12091E+03 -6.32872E+03 -7.81699E+03  1.91358E+03 -7.72386E+03
  6.29389E+03 -2.39512E+03  6.60399E+03  3.86862E+03  1.86352E+03  7.29055E+03  1.05573E+02  4.35577E+03
 -4.08323E+03  3.75763E+03 -2.02058E+03  2.04526E+03 -2.47833E+03  1.31146E+03 -4.72995E+03  3.02730E+03
 -4.25902E+03  3.99386E+03 -7.84717E+03  5.56650E+03 -1.38384E+04  1.20738E+03 -1.27042E+04 -8.62646E+03
 -6.85090E+03 -1.72622E+04  3.86978E+03 -2.07637E+04  1.18167E+04 -1.55215E+04  2.12557E+04 -6.24820E+03
  1.83215E+04  2.67306E+03  1.23171E+04  1.06104E+04  2.39570E+03  1.35390E+04 -4.91021E+03  1.05062E+04
 -6.94865E+03  1.96730E+03 -5.99697E+03 -2.08473E+03 -2.49959E+03 -1.77372E+03 -3.40520E+02  1.34379E+03
 -3.37223E+03 -3.76421E+02 -2.96524E+03 -1.28569E+03 -1.25425E+03 -3.85596E+03 -3.61669E+02 -5.65163E+03
  5.01811E+03 -4.23670E+03  8.61989E+03 -1.97307E+02  9.46928E+03  7.17238E+03  8.82719E+02  1.44201E+04
 -5.69920E+03  1.66474E+04 -1.48209E+04  1.04126E+04 -1.69101E+04 -3.79304E+03 -1.37662E+04 -1.06932E+04
 -5.93131E+03 -1.43213E+04  2.36227E+03 -1.33395E+04  8.27966E+03 -7.49418E+03  1.01446E+04  7.23383E+02
  4.82759E+03  6.06268E+03  3.58231E+02  4.23022E+03 -3.18980E+03 -1.29429E+03  4.48786E+02 -2.68572E+03
  5.20492E+03 -2.23610E+03  6.16379E+03  6.30431E+02  4.36640E+03  4.10821E+03 -5.83120E+02  8.16673E+03
 -7.21915E+03  7.62527E+03 -1.07177E+04  5.35076E+01 -9.28666E+03 -8.38231E+03 -2.02070E+03 -1.06564E+04
  8.36246E+03 -1.03035E+04  1.18955E+04 -3.89028E+03  1.11697E+04  3.64146E+03  5.02544E+03  8.05229E+03
  2.06310E+03  9.37662E+03 -3.83573E+03  7.74097E+03 -6.22369E+03  4.46714E+03 -6.52202E+03  8.55549E+02
 -2.67294E+03  1.45631E+01 -3.91292E+03 -7.74073E+00 -3.57261E+03 -8.79773E+02 -7.10487E+03 -1.84865E+03
 -4.53020E+03 -4.16496E+03 -2.06059E+03 -1.02329E+04  1.90599E+03 -1.01541E+04  8.89938E+03 -5.53206E+03
  8.80975E+03  1.31438E+02  5.37974E+03  5.91129E+03 -1.43545E+03  9.40326E+03 -1.00500E+04  6.01659E+03
