 $NMID ID='MM_0lb_SNR200_9hz_g40_35.RAW', FMTDAT='(8E13.5)'
 TRAMP=1., VOLUME=1. $END
  3.09775E+05  1.19713E+02  3.37012E+05  2.50611E+05  8.53442E+04  3.36391E+05 -1.34310E+05  2.52384E+05
 -1.91112E+05  8.34479E+04 -1.13791E+05 -3.16988E+04  2.28569E+03 -5.10923E+04  5.36887E+04  3.64617E+02
  3.43395E+04  5.08880E+04 -1.63849E+04  7.58011E+04 -6.17339E+04  6.33036E+04 -8.60942E+04  3.29483E+04
 -8.25989E+04 -1.19484E+04 -5.71928E+04 -5.13584E+04 -1.51704E+04 -7.04211E+04  2.95933E+04 -4.59932E+04
  4.18184E+04  4.76715E+03  1.53673E+04  4.89192E+04 -3.51178E+04  4.86675E+04 -6.88867E+04  4.08231E+02
 -5.48334E+04 -5.86320E+04 -6.82897E+03 -7.76898E+04  3.50367E+04 -5.64711E+04  5.05972E+04 -1.78960E+04
  4.49894E+04  1.09445E+04  3.32745E+04  2.70358E+04  1.59696E+04  2.90790E+04 -5.87053E+03  2.78012E+04
 -2.13778E+04  1.20143E+04 -1.84169E+04 -5.58676E+03  6.60570E+03 -6.81472E+03  2.26626E+04  1.34951E+04
  6.93374E+03  3.77544E+04 -3.22037E+04  3.85065E+04 -6.40260E+04  2.06262E+03 -5.89755E+04 -4.43414E+04
 -1.25301E+04 -6.49981E+04  4.09173E+04 -4.62668E+04  5.98792E+04 -2.75136E+03  3.60613E+04  3.38933E+04
 -5.85539E+03  3.85608E+04 -3.15359E+04  1.79312E+04 -3.23834E+04 -3.72911E+03 -1.94173E+04 -1.10052E+04
 -8.79685E+03 -1.41085E+04 -3.61876E+01 -2.03561E+04  8.00568E+03 -2.33234E+04  1.57299E+04 -1.25255E+04
  1.13975E+04  5.28686E+03 -9.67558E+03  1.16388E+04 -2.37743E+04 -7.22515E+03 -8.10710E+03 -3.71511E+04
  2.38354E+04 -4.62443E+04  5.05505E+04 -1.88974E+04  4.68497E+04  2.07247E+04  1.65143E+04  4.66735E+04
 -1.76680E+04  3.61379E+04 -2.70713E+04  3.19485E+03 -1.06850E+04 -2.87306E+04  2.13042E+04 -3.47939E+04
  4.42516E+04 -1.13046E+04  3.96792E+04  2.60050E+04  1.97994E+04  4.94301E+04 -8.09044E+03  5.58670E+04
 -3.52130E+04  3.72480E+04 -4.56122E+04  1.12910E+04 -4.61682E+04 -1.95961E+04 -2.56465E+04 -3.95126E+04
  8.05719E+03 -4.07112E+04  3.49548E+04 -1.65317E+04  3.16384E+04  1.03935E+04  4.35151E+03  1.98927E+04
 -1.42780E+04  8.52561E+03 -1.17246E+04 -7.20513E+03  4.81446E+03 -1.13721E+04  1.95419E+04  6.13265E+03
  1.46632E+04  2.30736E+04 -6.94012E+03  2.66507E+04 -2.23496E+04  1.22523E+04 -3.09493E+04 -2.88092E+03
 -2.50517E+04 -1.66524E+04 -1.09991E+04 -2.53454E+04  4.50780E+03 -2.43233E+04  2.01451E+04 -2.23808E+04
  3.04472E+04 -1.50159E+04  3.69266E+04  4.19285E+03  2.74794E+04  2.38302E+04  3.99673E+03  4.06603E+04
 -1.82026E+04  3.28319E+04 -3.20805E+04  1.19917E+04 -2.30752E+04 -8.89481E+03 -5.90821E+03 -1.17112E+04
  1.16969E+03 -2.44545E+03 -9.07131E+03  7.15180E+03 -2.00058E+04  4.12249E+03 -1.67933E+04 -1.04272E+04
 -1.20322E+04 -2.23887E+04  5.45694E+03 -2.86205E+04  1.78331E+04 -1.85765E+04  2.22416E+04 -1.45644E+03
  1.49469E+04  1.44323E+04 -1.38778E+03  2.29310E+04 -1.55505E+04  1.20428E+04 -2.20612E+04 -5.26222E+03
 -1.63774E+04 -2.06417E+04 -2.95792E+03 -2.71700E+04  1.41446E+04 -2.20086E+04  2.37829E+04 -1.27621E+04
  2.00346E+04  9.48065E+01  1.59669E+04  2.96996E+03  8.43119E+03  1.88250E+03  1.17297E+04 -3.22535E+02
  2.09418E+04  3.37686E+03  2.42073E+04  1.90981E+04  1.53650E+04  3.43811E+04 -3.37783E+03  4.29709E+04
 -2.39277E+04  3.55571E+04 -4.00872E+04  1.77419E+04 -4.52382E+04 -3.25696E+03 -3.45407E+04 -2.50673E+04
 -1.46715E+04 -3.57725E+04  1.29535E+04 -3.26923E+04  2.57013E+04 -1.60982E+04  2.46087E+04  8.30978E+03
  7.85196E+03  2.03869E+04 -1.08849E+04  1.44692E+04 -1.88991E+04  1.93001E+03 -1.44105E+04 -1.05864E+04
  1.27069E+03 -1.87321E+04  1.04721E+04 -1.29804E+04  1.33818E+04 -2.39319E+02  3.52059E+03  9.77148E+03
 -8.43213E+03  4.46779E+03 -7.90333E+03 -7.55841E+03 -2.14611E+03 -1.78798E+04  1.11120E+04 -1.83521E+04
  2.18589E+04 -1.09807E+04  2.59678E+04  3.73312E+03  1.98984E+04  1.68131E+04  1.06275E+04  2.90828E+04
 -3.74433E+03  2.99033E+04 -1.71023E+04  1.92247E+04 -2.25991E+04  4.17685E+03 -1.62390E+04 -6.30311E+03
 -6.75246E+03 -4.50451E+03  1.04520E+03 -2.80526E+02 -2.13467E+03  3.04841E+03 -7.52499E+03  6.02093E+03
 -1.38583E+04 -1.25362E+03 -1.28502E+04 -1.11022E+04 -6.09232E+03 -1.98187E+04  5.64733E+03 -1.62887E+04
  1.35618E+04 -6.18652E+03  9.32361E+03  4.07851E+03 -7.46343E+02  4.41169E+03 -7.27233E+03  2.94188E+02
 -6.11625E+03 -8.84007E+03 -2.92411E+03 -1.48491E+04  9.03543E+03 -1.53129E+04  1.83342E+04 -8.05851E+03
  2.32159E+04  2.00081E+03  1.56213E+04  1.56833E+04  3.32075E+03  1.92885E+04 -8.98737E+03  1.63987E+04
 -1.25137E+04  5.02086E+03 -5.32611E+03 -3.62891E+03  1.42778E+03 -3.87529E+03  1.01170E+04  2.10865E+02
  6.25806E+03  5.08807E+03 -3.96743E+02  1.12746E+04 -7.30800E+03  1.11911E+04 -1.65409E+04  3.76579E+03
 -1.28254E+04 -6.40523E+03 -6.46220E+01 -1.36353E+04  8.38599E+03 -7.60392E+03  8.53428E+03  3.64625E+03
  3.06834E+03  8.88390E+03 -7.88369E+03  1.17504E+04 -1.26943E+04  5.11362E+03 -1.41811E+04 -5.12510E+03
 -8.78301E+03 -1.44861E+04  2.88259E+03 -1.79953E+04  1.47560E+04 -1.00379E+04  1.57843E+04  1.64544E+03
  9.71016E+03  1.27508E+04 -3.94742E+03  1.47123E+04 -1.05884E+04  9.37802E+03 -1.16399E+04 -1.49220E+03
 -1.00056E+04 -1.13421E+04 -1.93283E+03 -1.17440E+04  7.43542E+03 -9.16015E+03  8.15831E+03 -3.12291E+03
  6.06442E+03  7.71936E+02 -1.67505E+03  6.76695E+02  1.18814E+02 -2.06635E+03  2.65019E+03 -7.41238E+03
  1.08155E+04 -4.65472E+03  1.48711E+04  1.38984E+03  1.56277E+04  1.05072E+04  8.88238E+03  2.06394E+04
 -5.00153E+03  2.34910E+04 -1.92429E+04  1.58014E+04 -2.51665E+04  4.19038E+03 -1.87965E+04 -1.00242E+04
 -8.37782E+03 -1.66663E+04  3.56541E+02 -1.32733E+04  4.77033E+03 -8.85143E+03  5.81226E+03 -4.72023E+03
  4.43055E+03 -1.97443E+03  3.98774E+03 -3.30204E+03  5.62627E+03 -3.45341E+03  9.10985E+03 -1.08573E+03
  1.06766E+04  2.96577E+03  4.85645E+03  8.96263E+03 -1.00333E+03  9.16342E+03 -1.22710E+04  7.72287E+03
 -1.33290E+04  1.26200E+02 -7.90739E+03 -1.04268E+04 -1.35634E+01 -1.39674E+04  8.38610E+03 -1.56290E+04
  1.55084E+04 -8.30558E+03  1.83546E+04  2.28849E+03  1.21370E+04  1.26512E+04  2.15934E+03  1.65851E+04
 -6.53961E+03  1.52531E+04 -8.92237E+03  4.68844E+03 -7.01174E+03 -1.81435E+03 -1.24363E+03 -1.55302E+03
 -2.85587E+03  4.72140E+02 -6.54552E+02  3.50632E+03 -6.95694E+03  1.63675E+03 -9.71140E+03 -2.76340E+03
 -5.28515E+03 -8.42658E+03 -3.41059E+02 -1.30474E+04  8.53608E+03 -1.28983E+04  1.39147E+04 -3.76161E+03
  1.34242E+04  7.53411E+03  7.22481E+03  1.37614E+04 -3.46783E+03  1.43146E+04 -1.01332E+04  9.42346E+03
 -1.41175E+04  6.04522E+02 -9.93058E+03 -8.93530E+03 -2.19351E+03 -1.13983E+04  6.60820E+03 -8.81746E+03
  8.67344E+03 -2.76617E+03  6.30148E+03  3.39120E+03  2.43376E+03  3.92933E+03  1.04761E+03  1.54685E+03
  1.53403E+03  1.60812E+03  4.21163E+03  1.78515E+03  4.37325E+03  4.36861E+03  3.20396E+03  6.47331E+03
 -2.77486E+03  9.26852E+03 -9.06920E+03  1.08489E+04 -1.57142E+04  2.48770E+03 -1.50946E+04 -6.23788E+03
 -7.56462E+03 -1.34900E+04  1.32131E+03 -1.47822E+04  9.15148E+03 -1.05307E+04  1.09867E+04 -2.83004E+03
  9.16264E+03  4.14281E+03  2.20017E+03  6.08306E+03 -4.30155E+03  3.92840E+03 -3.99178E+03 -1.71193E+03
 -3.14396E+03 -7.10112E+03  4.84738E+03 -6.46122E+03  6.87613E+03 -7.32805E+02  6.53632E+03  8.87580E+02
  4.37790E+03  1.58676E+03  1.96219E+03  3.08175E+03 -1.38536E+03  2.40950E+03  3.52348E+03 -9.34672E+02
  1.56884E+03  1.43185E+02  5.25138E+03  2.94090E+03  3.53490E+03  7.77419E+03 -1.22557E+03  1.02893E+04
 -8.46373E+03  6.69055E+03 -8.11000E+03  2.25521E+03 -8.73838E+03 -3.39920E+03 -1.42603E+03 -5.77481E+03
  3.28138E+03 -4.48521E+03  5.47563E+03 -3.18674E+03  3.12343E+03  2.04392E+03 -6.58000E+02  5.03336E+03
 -5.47603E+03  3.10693E+03 -7.17578E+03 -3.13054E+03 -4.54191E+03 -7.82045E+03  1.40787E+03 -6.31913E+03
  4.01824E+03 -4.88584E+03  5.13490E+03  2.97222E+02  6.41086E+03  1.92959E+03  8.25996E+02  4.94865E+03
 -3.55025E+03  1.28189E+03 -1.20093E+03 -2.01437E+03  1.58369E+03 -5.61917E+03  6.57306E+03 -5.68180E+03
  9.25449E+03  6.10260E+02  8.40862E+03  7.73616E+03  3.52210E+03  1.02900E+04 -3.98742E+03  7.96222E+03
 -8.06810E+03  4.27842E+03 -9.06022E+03 -1.52632E+03 -4.43180E+03 -6.45986E+03 -2.37794E+02 -5.91878E+03
  5.88766E+03 -2.13641E+03  5.18971E+03  1.34871E+03  1.81543E+03  4.84610E+03 -1.08342E+03  4.93898E+03
 -2.29667E+03  4.39919E+03  3.22464E+02  9.28548E+02 -1.12798E+03  1.45281E+03 -3.68580E+03  2.74199E+03
 -2.04610E+03  3.83184E+03 -6.54148E+03  3.47233E+03 -8.50121E+03  1.30311E+02 -1.09161E+04 -5.97989E+03
 -5.47449E+03 -1.15668E+04  2.34068E+03 -1.32599E+04  6.00434E+03 -1.21359E+04  1.31354E+04 -4.53911E+03
  1.47131E+04  2.58036E+03  8.82285E+03  8.17695E+03  3.02181E+03  8.71881E+03 -3.29693E+03  7.58529E+03
 -7.15240E+03  3.16330E+03 -4.33405E+03  5.09582E+01 -1.16658E+03 -2.53888E+02 -1.70974E+03 -5.55074E+02
 -2.05220E+03  4.82750E+02 -2.17033E+03 -3.84930E+02 -4.74498E+02 -3.20307E+03 -5.49891E+02 -3.53511E+03
  2.21930E+03 -3.59878E+03  4.51239E+03 -1.34008E+03  7.13448E+03  5.00595E+03  2.04171E+03  8.94786E+03
 -6.64924E+03  1.22966E+04 -1.06226E+04  5.64220E+03 -1.22733E+04 -8.70184E+02 -1.00535E+04 -6.90938E+03
 -3.15081E+03 -1.01866E+04  2.01177E+03 -8.78081E+03  6.88136E+03 -4.99430E+03  6.39453E+03  2.49639E+02
  2.42432E+03  1.96025E+03 -1.33182E+03  3.32216E+03 -1.39887E+03 -5.88924E+02  3.18414E+02 -1.96018E+03
  3.96103E+03 -1.17447E+03  3.59352E+03  1.12333E+03  2.64198E+03  3.91520E+03  1.97685E+03  3.41803E+03
 -4.72880E+03  5.20437E+03 -6.40968E+03 -2.30407E+02 -5.41748E+03 -4.55531E+03 -1.14006E+03 -6.89877E+03
  3.95553E+03 -7.49273E+03  7.22359E+03 -1.24137E+03  8.08774E+03  2.16165E+03  4.11021E+03  5.33152E+03
  1.96918E+03  5.35579E+03 -3.00229E+03  7.19529E+03 -3.62187E+03  2.56402E+03 -4.38826E+03  1.99614E+03
 -1.50881E+03 -1.38892E+03 -3.76027E+03  9.90653E+02 -3.73371E+03  1.19753E+03 -4.59186E+03 -1.76739E+03
 -4.66268E+03 -2.63836E+03 -2.47740E+03 -6.06884E+03  3.86329E+03 -7.64115E+03  5.15406E+03 -3.75101E+03
  6.86360E+03  1.58860E+03  4.38803E+03  5.56351E+03 -1.21284E+03  9.21831E+03 -5.86025E+03  4.25935E+03
