 $NMID ID='MM_0lb_SNR200_16hz_g55_10.RAW', FMTDAT='(8E13.5)'
 TRAMP=1., VOLUME=1. $END
  3.08726E+05 -5.39356E+02  3.36940E+05  2.50068E+05  8.30243E+04  3.38653E+05 -1.33654E+05  2.50558E+05
 -1.90767E+05  8.34255E+04 -1.10718E+05 -3.31179E+04  1.21388E+03 -5.05661E+04  5.41513E+04  2.74999E+02
  3.68057E+04  5.34069E+04 -1.72423E+04  7.48400E+04 -6.12042E+04  6.40804E+04 -8.38439E+04  3.15610E+04
 -8.06909E+04 -1.09181E+04 -5.79970E+04 -5.06909E+04 -1.61423E+04 -6.95389E+04  2.63412E+04 -4.68418E+04
  4.07888E+04  4.54486E+03  1.72198E+04  4.83624E+04 -3.41093E+04  4.71620E+04 -6.68492E+04 -4.44956E+02
 -5.32526E+04 -5.68016E+04 -6.85009E+03 -7.63934E+04  3.30250E+04 -5.57055E+04  4.79822E+04 -1.71328E+04
  4.36237E+04  1.04888E+04  3.19076E+04  2.43821E+04  1.61663E+04  2.84729E+04 -4.82721E+03  2.65439E+04
 -2.14499E+04  1.21455E+04 -1.93094E+04 -5.49357E+03  4.84698E+03 -7.87862E+03  2.17158E+04  1.22270E+04
  7.13930E+03  3.61877E+04 -3.25669E+04  3.52668E+04 -6.19228E+04  3.08081E+03 -5.70077E+04 -4.33211E+04
 -1.28061E+04 -6.22716E+04  4.10756E+04 -4.51176E+04  5.81766E+04 -2.38241E+03  3.44200E+04  3.18205E+04
 -6.51446E+03  3.55423E+04 -2.98352E+04  1.56184E+04 -3.00510E+04 -3.59468E+03 -1.69515E+04 -1.09888E+04
 -8.75275E+03 -1.31953E+04 -2.22320E+02 -1.77039E+04  7.26677E+03 -2.32097E+04  1.55815E+04 -1.41711E+04
  1.19385E+04  4.73433E+03 -7.54546E+03  1.32603E+04 -2.05814E+04 -4.56620E+03 -7.51773E+03 -3.48029E+04
  2.29122E+04 -4.27171E+04  4.67206E+04 -1.91754E+04  4.42985E+04  1.92836E+04  1.56088E+04  4.42576E+04
 -1.64062E+04  3.38362E+04 -2.41479E+04  1.60911E+03 -1.04621E+04 -2.75774E+04  2.09528E+04 -3.33067E+04
  4.09267E+04 -9.11169E+03  3.58082E+04  2.36989E+04  1.72093E+04  4.54688E+04 -7.25125E+03  4.90718E+04
 -3.01334E+04  3.21444E+04 -4.09290E+04  9.09169E+03 -4.10254E+04 -1.67962E+04 -2.25040E+04 -3.72506E+04
  6.68038E+03 -3.84712E+04  3.16511E+04 -1.40445E+04  2.71837E+04  1.04128E+04  4.23790E+03  1.93311E+04
 -1.40847E+04  8.11718E+03 -9.75766E+03 -7.29527E+03  4.51194E+03 -1.08269E+04  1.74132E+04  5.93690E+03
  1.26254E+04  2.19159E+04 -5.68806E+03  2.35607E+04 -2.15816E+04  1.16303E+04 -2.73210E+04 -5.50224E+03
 -1.95626E+04 -1.79839E+04 -8.41082E+03 -1.92002E+04  3.84728E+03 -1.88835E+04  1.47746E+04 -1.78987E+04
  2.47945E+04 -1.20664E+04  3.22206E+04  1.10776E+03  2.28120E+04  1.91850E+04  4.46945E+03  3.58687E+04
 -1.73619E+04  2.99486E+04 -2.67829E+04  1.01460E+04 -2.12522E+04 -9.38493E+03 -4.19833E+03 -1.32777E+04
  1.96861E+03 -2.72633E+03 -4.06947E+03  6.37612E+03 -1.64244E+04  4.94849E+03 -1.62374E+04 -7.67198E+03
 -9.25515E+03 -1.83657E+04  5.10085E+03 -2.21072E+04  1.47830E+04 -1.57245E+04  1.73486E+04 -1.53660E+03
  1.12312E+04  1.11604E+04 -1.58172E+03  1.76977E+04 -1.20034E+04  1.07595E+04 -1.88354E+04 -5.04825E+03
 -1.39187E+04 -1.57294E+04 -9.33406E+02 -2.07032E+04  9.30429E+03 -1.73069E+04  1.76717E+04 -9.84180E+03
  1.69288E+04  5.66142E+02  1.23075E+04  5.21011E+03  5.82451E+03  9.04195E+02  9.40559E+03 -2.69844E+03
  1.61712E+04  2.88747E+03  1.87354E+04  1.47253E+04  1.12571E+04  2.91806E+04 -2.57923E+03  3.10882E+04
 -1.96849E+04  2.57320E+04 -3.00845E+04  1.17699E+04 -3.17566E+04 -1.23372E+03 -2.57859E+04 -1.84293E+04
 -1.04257E+04 -2.58926E+04  8.15765E+03 -2.43494E+04  2.00786E+04 -1.21715E+04  1.81821E+04  5.61076E+03
  6.20817E+03  1.31807E+04 -8.65489E+03  1.20005E+04 -1.55043E+04  2.29096E+03 -1.26664E+04 -9.11002E+03
 -6.54216E+02 -1.38111E+04  7.45223E+03 -1.07456E+04  8.54561E+03 -1.74137E+03  1.48317E+03  6.78275E+03
 -5.90423E+03  2.48196E+03 -5.13687E+03 -5.23361E+03  9.36683E+01 -1.21329E+04  8.31346E+03 -1.32996E+04
  1.50459E+04 -5.51759E+03  1.56350E+04  4.01199E+03  1.39501E+04  1.25609E+04  6.51447E+03  1.85150E+04
 -2.26368E+03  1.95941E+04 -1.28817E+04  1.26652E+04 -1.44696E+04  3.41348E+03 -1.01331E+04 -3.15651E+03
 -4.74521E+03 -3.65828E+03 -1.10765E+03 -5.45049E+01 -3.35823E+03  1.65954E+03 -6.14060E+03  3.84737E+03
 -9.56782E+03 -5.08759E+02 -9.64393E+03 -7.76889E+03 -4.00281E+03 -1.43114E+04  4.37632E+03 -9.98717E+03
  8.43573E+03 -5.37858E+03  6.24923E+03  3.63483E+03  1.33972E+03  3.12667E+03 -4.57596E+03 -1.69914E+03
 -3.80922E+03 -6.95043E+03 -7.12463E+02 -9.79022E+03  4.36019E+03 -1.07131E+04  1.30511E+04 -4.62950E+03
  1.40230E+04  3.70797E+02  1.19342E+04  7.71708E+03  2.00618E+03  1.14639E+04 -5.82937E+03  8.55860E+03
 -8.05508E+03  3.58842E+03 -4.46816E+03 -1.76556E+03  1.39646E+03 -2.52259E+03  6.63141E+03 -9.72031E+02
  5.18080E+03  4.47610E+03  1.42753E+03  7.42267E+03 -5.51713E+03  7.05671E+03 -1.00795E+04  1.86574E+03
 -6.86052E+03 -5.32064E+03 -7.22930E+02 -1.01567E+04  4.07868E+03 -4.63992E+03  4.85471E+03  2.60902E+03
  2.23873E+02  3.59736E+03 -4.76209E+03  6.12031E+03 -6.63334E+03  3.15607E+03 -6.45569E+03 -1.57182E+03
 -4.14407E+03 -6.98190E+03  1.60934E+03 -9.54471E+03  8.51290E+03 -5.27199E+03  8.40279E+03  2.41059E+03
  7.09433E+03  8.93776E+03  1.01446E+03  9.30987E+03 -7.22154E+03  4.81515E+03 -8.25517E+03  1.52343E+03
 -7.03153E+03 -6.26323E+03  1.68514E+02 -7.20491E+03  4.12760E+03 -6.20710E+03  4.04007E+03 -3.16646E+03
  3.40998E+03  6.94580E+02  2.48044E+02  2.33173E+03  9.67972E+02 -1.00139E+03  1.41634E+03 -2.89791E+03
  5.17348E+03 -1.83934E+03  8.28369E+03  2.15025E+02  9.06748E+03  5.35413E+03  6.51502E+03  9.46126E+03
 -4.15115E+02  1.14842E+04 -1.10915E+04  8.18949E+03 -1.29782E+04  1.55930E+03 -1.05681E+04 -4.38293E+03
 -6.19684E+03 -8.80428E+03 -1.29511E+01 -7.84134E+03  2.43528E+03 -4.36528E+03  2.19135E+03 -2.64328E+03
  1.88227E+03 -2.04442E+03  1.75787E+03 -3.97087E+03  4.10086E+03 -1.18215E+03  5.29247E+03 -9.13060E+02
  6.21548E+03  1.70999E+03  2.45400E+03  5.55076E+03 -8.72466E+02  5.49922E+03 -7.38802E+03  5.28295E+03
 -7.25155E+03 -1.92881E+03 -4.03012E+03 -4.86339E+03  5.33812E+02 -7.70916E+03  4.12581E+03 -7.10778E+03
  6.96362E+03 -4.54353E+03  9.19035E+03  9.56358E+02  5.46311E+03  7.15504E+03  1.47629E+03  8.29949E+03
 -3.30292E+03  7.64313E+03 -5.49649E+03  3.68880E+03 -1.67334E+03 -1.16475E+03 -9.24417E+02  4.88564E+02
 -2.01993E+03 -6.98799E+01 -1.93697E+03  1.52313E+03 -3.77879E+03  1.88774E+03 -4.30004E+03 -8.91354E+02
 -2.25586E+03 -5.07280E+03  5.73710E+02 -5.98768E+03  4.74545E+03 -5.45263E+03  5.71871E+03 -4.69628E+02
  6.91351E+03  4.13276E+03  2.31400E+03  5.92889E+03 -1.04189E+03  6.17387E+03 -4.15924E+03  3.83082E+03
 -6.06658E+03  2.61404E+02 -4.58576E+03 -3.88674E+03  5.70021E+02 -5.26331E+03  1.76826E+03 -3.01168E+03
  3.88750E+03 -2.26154E+03  3.44898E+03  1.80893E+03  3.74745E+02  1.81272E+03  9.44248E+02  1.21989E+03
  1.63683E+03  1.41040E+03  1.67909E+03  2.25665E+03  2.26067E+03  2.85174E+03  1.76217E+03  3.30503E+03
 -1.57241E+03  4.00007E+03 -4.58477E+03  5.30721E+03 -4.91155E+03  1.59546E+03 -5.25050E+03 -1.59664E+03
 -2.72290E+03 -5.74695E+03  8.13378E+02 -7.00116E+03  3.05807E+03 -4.42263E+03  4.87357E+03 -1.34884E+03
  3.30915E+03  2.97754E+03  1.80789E+03  3.57110E+03 -1.40074E+03  3.26990E+03 -1.83752E+03 -1.21813E+02
 -1.39278E+03 -1.84855E+03  1.35504E+03 -2.86067E+03  1.40708E+03 -1.46218E+03  2.63968E+03 -1.33315E+02
  1.04412E+03  1.19530E+02  1.44212E+03  6.63355E-01 -4.09465E+02  1.82223E+03  2.22768E+03 -3.97740E+02
 -2.52501E+02  3.23041E+02  2.28623E+03  6.77418E+02  1.16151E+02  2.89109E+03  6.20073E+01  3.48270E+03
 -3.27234E+03  2.81148E+03 -2.62532E+03  3.11964E+02 -3.55150E+03 -4.95664E+02 -7.96195E+02 -1.39473E+03
 -2.58299E+01 -2.33190E+03  1.39553E+03 -1.03837E+03  1.82570E+03  2.67060E+03 -4.39607E+02  1.64813E+03
 -1.85571E+03  2.13206E+03 -1.85509E+03 -1.31395E+03 -6.01500E+02 -2.21404E+03  6.57487E+02 -2.85650E+03
  5.96262E+02 -1.63217E+03  1.83403E+03  8.40831E+02  2.42291E+03  8.52975E+02  9.43006E+02  1.34375E+03
 -1.21943E+03 -2.37143E+01 -1.18738E+03 -8.68687E+02  1.65980E+03 -1.30795E+03  2.49974E+03 -1.97579E+03
  1.96679E+03 -8.42788E+02  4.05395E+03  1.39985E+03  2.01626E+03  2.06978E+03 -3.65144E+02  3.22177E+03
 -1.83093E+03  1.26037E+03 -2.91554E+03 -1.09734E+03 -7.59283E+02 -2.46560E+03  1.05606E+03 -1.84128E+03
  1.76583E+03 -1.64246E+03  2.31951E+03  1.02975E+03  4.33064E+02  2.28318E+03 -1.24292E+02  1.71477E+03
  2.55896E+02 -4.09831E+02 -7.96673E+02 -4.90195E+02  4.66434E+02  8.98016E+02 -1.31214E+03  4.71520E+02
 -1.43078E+03  2.19923E+03 -3.55723E+03  7.02445E+02 -3.55845E+03 -8.87329E+02 -3.91055E+03 -6.89501E+02
 -2.09735E+03 -3.13442E+03  7.65130E+02 -4.57489E+03  1.25548E+03 -4.27610E+03  3.95562E+03 -1.74196E+03
  3.69562E+03 -3.39124E+02  1.49248E+03  2.50409E+03 -8.44743E+02  2.98755E+03 -8.87028E+02  1.92044E+03
 -1.41596E+03  7.95982E+02 -1.34436E+03 -8.90633E+02 -1.01326E+03  2.06195E+02 -9.45629E+02 -8.37865E+02
 -9.42498E+02  5.39665E+02 -1.57407E+03 -4.24259E+02 -3.15802E+02 -4.47822E+02  8.67193E+02 -1.52389E+03
  2.26457E+03 -1.90561E+03  5.65765E+02  1.15991E+03  6.37414E+02  1.28741E+03  1.01154E+02  1.12345E+03
 -1.70769E+03  3.82683E+03 -2.11334E+03  1.59254E+03 -2.43174E+03 -1.07330E+03 -2.18816E+03 -2.00193E+03
 -1.70683E+03 -2.66021E+03  3.23069E+02 -2.82111E+03  6.81265E+02 -1.21068E+03  1.11858E+03 -2.65011E+02
  3.12697E+02 -6.06124E+02  5.76732E+02  1.03898E+03  2.68507E+02  6.71975E+02  1.31791E+02 -7.07961E+02
  7.65875E+02 -7.96008E+02  9.99480E+02 -9.03744E+02  9.26980E+02  1.90701E+03  7.89720E+01  4.83744E+02
 -7.95939E+02  1.47219E+03 -1.56799E+03  4.43465E+01 -2.13055E+03 -9.15687E+02  1.12813E+03 -1.44364E+03
  9.55083E+02 -1.10358E+03 -2.37287E+02 -6.54422E+02  1.15971E+03 -7.59705E+02  1.03389E+03  5.30660E+02
 -3.83367E+02  1.14463E+03 -9.22537E+02  1.18306E+03 -1.10606E+03  1.56357E+03 -6.51810E+02 -4.38800E+02
 -1.54912E+03  4.04636E+02 -1.32261E+03  6.02706E+02 -1.08511E+03  3.89070E+02 -5.73946E+02  5.08571E+02
 -1.20507E+03  7.69326E+01 -1.00075E+03 -1.71036E+03  1.11253E+03 -2.07470E+03  2.91899E+03  1.33264E+02
  1.08864E+03  1.84624E+02 -1.45065E+03  1.11159E+03 -1.18562E+03  1.09480E+03 -6.21088E+02  2.48656E+03
