 $NMID ID='MM_0lb_SNR200_16hz_g50_31.RAW', FMTDAT='(8E13.5)'
 TRAMP=1., VOLUME=1. $END
  3.09034E+05 -6.25125E+02  3.37018E+05  2.50766E+05  8.44247E+04  3.37524E+05 -1.32342E+05  2.49721E+05
 -1.90747E+05  8.19924E+04 -1.11175E+05 -3.18552E+04  1.37024E+03 -5.07382E+04  5.41231E+04 -8.85255E+02
  3.58265E+04  5.18712E+04 -1.65687E+04  7.47562E+04 -5.99845E+04  6.36553E+04 -8.31706E+04  3.17509E+04
 -8.09235E+04 -1.00786E+04 -5.59744E+04 -5.01128E+04 -1.53919E+04 -6.89527E+04  2.67025E+04 -4.65500E+04
  4.06255E+04  3.37954E+03  1.75749E+04  4.73915E+04 -3.43312E+04  4.71371E+04 -6.58450E+04 -1.21968E+03
 -5.29508E+04 -5.69570E+04 -7.53034E+03 -7.67661E+04  3.34009E+04 -5.36212E+04  4.71754E+04 -1.75814E+04
  4.25182E+04  1.15979E+04  3.24611E+04  2.38574E+04  1.59939E+04  2.95312E+04 -5.68600E+03  2.81559E+04
 -2.15134E+04  1.22374E+04 -1.81294E+04 -5.30773E+03  4.64094E+03 -7.08321E+03  2.22910E+04  1.14010E+04
  7.87038E+03  3.38318E+04 -3.20545E+04  3.55119E+04 -6.26029E+04  3.10282E+03 -5.62894E+04 -4.27192E+04
 -1.25838E+04 -6.18890E+04  3.95926E+04 -4.36814E+04  5.70834E+04 -2.19664E+03  3.38825E+04  3.27811E+04
 -6.38013E+03  3.39280E+04 -2.85874E+04  1.32876E+04 -2.92221E+04 -5.91203E+03 -1.64770E+04 -1.08619E+04
 -8.86358E+03 -1.16872E+04 -1.44089E+03 -1.75457E+04  6.07358E+03 -2.33024E+04  1.55639E+04 -1.30051E+04
  1.20212E+04  5.04110E+03 -6.22542E+03  1.28173E+04 -2.04521E+04 -3.84734E+03 -9.21189E+03 -3.40758E+04
  2.24282E+04 -4.17553E+04  4.83103E+04 -2.02863E+04  4.33445E+04  1.85022E+04  1.44378E+04  4.23168E+04
 -1.52419E+04  3.14841E+04 -2.49395E+04  1.68984E+03 -9.11550E+03 -2.69802E+04  1.99250E+04 -3.29874E+04
  4.00794E+04 -9.03589E+03  3.37469E+04  2.26770E+04  1.79450E+04  4.45653E+04 -8.25887E+03  4.82838E+04
 -3.04491E+04  3.24497E+04 -4.02626E+04  8.11034E+03 -4.02167E+04 -1.58734E+04 -2.39810E+04 -3.70874E+04
  6.82589E+03 -3.69713E+04  2.99630E+04 -1.40619E+04  2.88646E+04  1.06679E+04  3.67387E+03  1.85318E+04
 -1.37510E+04  6.40040E+03 -1.00850E+04 -7.33286E+03  6.72541E+03 -1.06850E+04  1.83921E+04  5.80430E+03
  1.27095E+04  2.23010E+04 -6.01880E+03  2.41102E+04 -2.20722E+04  9.88102E+03 -2.71177E+04 -4.63141E+03
 -1.93081E+04 -1.72837E+04 -7.16996E+03 -1.98961E+04  3.39761E+03 -1.77694E+04  1.50985E+04 -1.58023E+04
  2.38643E+04 -1.18173E+04  3.21770E+04  2.08431E+03  2.22412E+04  1.85781E+04  4.26636E+03  3.50399E+04
 -1.69714E+04  2.83301E+04 -2.67737E+04  9.84840E+03 -2.05296E+04 -1.05195E+04 -3.53975E+03 -1.30152E+04
  2.35290E+03 -3.93371E+03 -3.93575E+03  5.79645E+03 -1.49259E+04  5.09099E+03 -1.46255E+04 -6.79326E+03
 -9.27831E+03 -1.74423E+04  4.31212E+03 -2.15673E+04  1.43756E+04 -1.61963E+04  1.71540E+04 -1.05592E+03
  1.04439E+04  1.17218E+04 -2.24509E+02  1.81273E+04 -1.08922E+04  9.58577E+03 -1.72807E+04 -3.09866E+03
 -1.27751E+04 -1.67121E+04 -1.94682E+03 -2.06585E+04  9.30103E+03 -1.75587E+04  1.82453E+04 -8.37374E+03
  1.63924E+04 -1.32092E+02  1.20489E+04  3.79586E+03  6.84125E+03  1.32508E+03  8.71535E+03 -2.70775E+03
  1.54901E+04  2.59757E+03  1.61259E+04  1.41339E+04  1.16609E+04  2.81182E+04 -2.31366E+03  3.27181E+04
 -1.77395E+04  2.46897E+04 -2.83456E+04  1.17718E+04 -3.03288E+04 -2.56153E+03 -2.57139E+04 -1.69941E+04
 -1.20122E+04 -2.51895E+04  8.75678E+03 -2.25088E+04  1.86939E+04 -1.17688E+04  1.79485E+04  5.29873E+03
  5.37664E+03  1.33260E+04 -8.39359E+03  1.11585E+04 -1.58687E+04  3.58495E+03 -1.07872E+04 -9.56895E+03
 -2.99169E+02 -1.45922E+04  7.60416E+03 -9.86974E+03  9.65393E+03 -9.76609E+02  3.23065E+03  6.12933E+03
 -7.03574E+03  1.80967E+03 -4.60825E+03 -4.45066E+03 -2.48434E+02 -1.21966E+04  8.85204E+03 -1.23369E+04
  1.42613E+04 -5.74812E+03  1.58386E+04  3.15755E+03  1.28217E+04  1.12497E+04  6.74285E+03  1.78684E+04
 -2.60386E+03  1.97154E+04 -1.18123E+04  1.25081E+04 -1.32493E+04  2.97892E+03 -1.02217E+04 -3.14312E+03
 -4.14349E+03 -4.79123E+03 -8.57273E+02  1.57243E+03 -1.24830E+03  2.67394E+03 -4.58992E+03  4.18193E+03
 -9.15988E+03 -1.14989E+03 -1.04038E+04 -8.37466E+03 -4.49422E+03 -1.34420E+04  3.83757E+03 -1.00685E+04
  8.27872E+03 -4.17749E+03  5.99269E+03  2.61354E+03 -7.72164E+01  4.47287E+03 -3.97824E+03  8.26782E+02
 -3.45649E+03 -6.41673E+03 -6.74389E+02 -9.06995E+03  4.82343E+03 -9.49130E+03  1.06664E+04 -5.23318E+03
  1.39873E+04  6.37342E+02  1.14064E+04  8.31341E+03  2.61585E+03  1.16177E+04 -6.74391E+03  9.38531E+03
 -8.13764E+03  4.44804E+03 -5.13674E+03 -1.31870E+03  6.63262E+02 -1.75445E+03  5.87342E+03 -5.40456E+02
  4.37174E+03  3.45300E+03  1.71614E+03  7.42802E+03 -6.21322E+03  8.39252E+03 -9.31159E+03  1.70377E+03
 -5.21659E+03 -4.47328E+03  2.92014E+02 -7.56835E+03  5.21858E+03 -4.39846E+03  6.19969E+03  1.13139E+03
 -4.54963E+02  4.74394E+03 -6.04729E+03  6.42512E+03 -6.36223E+03  3.15029E+03 -5.52600E+03 -1.29253E+03
 -4.61686E+03 -8.47274E+03  2.41562E+03 -9.56883E+03  8.66036E+03 -6.94587E+03  7.12707E+03  1.09152E+03
  6.38486E+03  7.21430E+03 -2.68435E+02  8.31026E+03 -4.90653E+03  4.92641E+03 -6.05720E+03  1.43056E+02
 -5.97085E+03 -5.41168E+03 -2.50669E+03 -6.67410E+03  2.24739E+03 -4.96556E+03  3.86552E+03 -3.75346E+03
  4.12324E+03  6.64351E+02 -1.73974E+02  2.88116E+03  1.41083E+02 -8.10398E+02  3.44935E+02 -2.03461E+03
  5.79673E+03 -1.49058E+03  7.93549E+03  1.95386E+03  7.73812E+03  5.06172E+03  6.71221E+03  1.02417E+04
 -2.69066E+03  1.18399E+04 -1.05521E+04  8.00748E+03 -1.32357E+04  1.95803E+03 -1.11524E+04 -3.10577E+03
 -5.47499E+03 -8.05848E+03  1.47844E+02 -7.04525E+03  1.77315E+03 -3.17357E+03  2.85444E+03 -1.73427E+03
  4.13437E+02 -2.27105E+03  1.66061E+03 -2.31238E+03  4.17382E+03 -1.24264E+03  5.21641E+03  1.35443E+02
  5.74603E+03  1.87792E+03  1.87147E+03  3.79231E+03 -5.35180E+02  3.89780E+03 -5.53936E+03  4.99360E+03
 -7.23254E+03 -4.38573E+02 -3.23456E+03 -5.39415E+03 -2.74834E+01 -7.99593E+03  4.20934E+03 -7.69361E+03
  5.89317E+03 -4.30270E+03  9.39367E+03  2.06377E+02  6.63983E+03  5.81992E+03  1.80963E+03  8.61483E+03
 -3.20808E+03  8.50231E+03 -4.34820E+03  3.16303E+03 -4.03381E+03 -1.37821E+03 -1.46650E+03 -3.73928E+02
  2.25999E+02  4.85496E+02 -1.92717E+03  2.78576E+03 -4.41138E+03  1.05026E+03 -5.42390E+03 -1.23986E+03
 -1.69287E+03 -5.49909E+03  1.74825E+03 -5.36492E+03  4.45352E+03 -6.41411E+03  4.54965E+03 -2.22914E+03
  6.23320E+03  3.45772E+03  3.52917E+03  4.50160E+03 -6.42831E+02  7.25225E+03 -2.64364E+03  3.00897E+03
 -6.32221E+03  1.50729E+02 -4.14988E+03 -3.47955E+03 -5.27794E+02 -4.74303E+03  2.30259E+03 -2.67908E+03
  3.48761E+03 -2.48731E+03  2.01174E+03  7.47763E+01  8.00701E+02  1.56895E+03  1.36858E+02  7.34318E+02
  2.11489E+03  2.23967E+02  2.08936E+03  1.09960E+03  3.67285E+02  3.09822E+03  1.76665E+03  2.59724E+03
 -6.68844E+02  3.75638E+03 -4.57652E+03  4.72877E+03 -6.05905E+03  2.65191E+03 -5.52069E+03 -1.14682E+03
 -1.51320E+03 -4.50592E+03  2.89986E+02 -6.71654E+03  2.23228E+03 -4.12712E+03  4.38340E+03 -9.10303E+02
  2.98356E+03  1.61952E+03 -2.44559E+02  2.43529E+03 -2.41685E+03  1.45737E+03 -1.77604E+03 -5.58875E+02
 -8.59318E+02 -3.06727E+03  1.89627E+03 -2.00560E+03  1.74477E+03 -1.73062E+03  2.14856E+03  2.20129E+02
  1.07057E+03  1.09362E+03  2.21071E+03  8.29904E+02  7.07490E+02  3.27875E+02  2.73598E+03 -1.55407E+02
  4.49495E+02 -5.79672E+01  2.66809E+03  1.91204E+03  9.04091E+02  1.77828E+03 -1.08895E+02  3.77228E+03
 -1.77143E+03  1.66832E+03 -3.42352E+03  6.11409E+02 -3.25268E+03 -2.02195E+03 -5.79180E+02 -1.00197E+03
  4.79313E+02 -2.22344E+03  1.62015E+03 -1.00630E+03  1.05846E+03  1.24392E+03 -2.07138E+03  2.13366E+03
 -2.38630E+03  1.04120E+03 -3.19301E+03 -1.48398E+03 -1.44369E+03 -2.26448E+03  3.75589E+01 -2.98190E+03
  1.56571E+03 -1.88960E+03  1.15442E+03  1.19484E+03  1.68053E+03  1.30801E+03 -2.16864E+02  1.70675E+03
 -1.66080E+03  1.47617E+02 -2.36779E+03  5.96272E+02  1.64371E+03 -1.64313E+03  2.85074E+03 -9.84091E+02
  1.70637E+03  8.74498E+02  3.32419E+03  1.91303E+03  2.49546E+01  2.52818E+03 -1.33251E+03  2.62581E+03
 -2.43680E+03  1.31645E+03 -2.07936E+03 -9.72049E+02 -2.32704E+03 -2.77324E+03  9.23063E+02 -1.23572E+03
  1.43686E+03 -2.19178E+03  1.07604E+03  9.30165E+02  1.21100E+03  1.29851E+03  5.75328E+02  1.51202E+03
 -1.33181E+03  9.51799E+02 -1.19495E+03  1.05976E+03  9.85692E+02  9.71424E+02 -1.27433E+03  5.80548E+02
 -8.97116E+02  1.08351E+03 -2.90965E+03 -2.28748E+02 -2.86190E+03  5.52369E+01 -3.55715E+03 -1.77980E+03
 -1.72794E+03 -3.67376E+03  2.15178E+02 -4.16923E+03  1.70552E+03 -2.64387E+03  3.89308E+03 -1.84677E+03
  4.11744E+03 -4.43041E+02  2.21371E+03  3.13061E+03 -6.27356E+02  3.21898E+03 -1.15215E+03  5.32567E+02
 -2.08849E+03  1.44333E+03 -1.37750E+03 -3.44874E+02  2.91077E+02  4.59735E+02 -8.64489E+02  2.26081E+02
 -2.00947E+03 -1.11922E+02 -1.12303E+03  3.58440E+02  6.07477E+02 -7.01326E+02 -1.51517E+02 -1.46962E+03
  8.55710E+02 -2.46728E+02  1.71784E+03 -2.46366E+02  2.10325E+03  1.60776E+03 -5.87720E+02  3.11769E+03
 -2.12091E+03  3.39113E+03 -2.77777E+03  3.13388E+03 -1.93586E+03 -1.27141E+03 -1.86966E+03 -1.87042E+03
 -1.26376E+03 -3.33771E+03 -7.84560E+02 -1.85781E+03  2.71317E+03 -1.52310E+03  1.04057E+03  4.92346E+02
  7.72421E+02  6.46386E+02 -9.27461E+02  6.05677E+02  5.99671E+02  2.95057E+02 -8.41075E+01  6.76488E+01
  7.24669E+02  2.16589E+02 -4.42634E+01  3.66117E+02  5.05713E+02  1.79408E+03 -2.60846E+02  1.49380E+03
 -1.65543E+03  8.51623E+02 -8.11207E+02  5.83193E+01 -1.23648E+03 -4.36381E+02 -1.51964E+01 -3.04292E+03
  8.61130E+02 -8.40051E+02  1.22311E+03 -3.74063E+02  9.74716E+02 -1.35819E+03  1.63027E+03  2.21969E+03
  2.24390E+02  2.55593E+03  6.42417E+02  1.80494E+03 -6.97843E+02  1.33829E+03 -3.98383E+02  4.56156E+02
  6.82267E+01 -6.19857E+02 -7.84322E+02 -1.34410E+03 -1.88817E+03 -3.37003E+02 -2.02554E+03 -5.08884E+02
 -1.16490E+03 -5.20139E+02  5.90045E+02 -1.41108E+03  7.05680E+02 -2.62238E+03  9.61567E+02 -9.97917E+02
  1.24778E+03  3.18490E+02  1.35976E+02  1.04053E+03  1.37604E+03  2.35579E+03 -1.55938E+03  8.09998E+02
