 $NMID ID='MM_0lb_SNR200_7hz_g55_12.RAW', FMTDAT='(8E13.5)'
 TRAMP=1., VOLUME=1. $END
  3.10910E+05  1.22870E+02  3.38285E+05  2.49368E+05  8.42801E+04  3.36738E+05 -1.32171E+05  2.51669E+05
 -1.92318E+05  8.44957E+04 -1.14343E+05 -3.20881E+04 -1.54837E+03 -5.20850E+04  5.48183E+04 -4.82899E+02
  3.51838E+04  5.30643E+04 -1.67778E+04  7.70482E+04 -5.99357E+04  6.50782E+04 -8.59317E+04  3.38625E+04
 -8.31889E+04 -1.22626E+04 -6.04443E+04 -5.21309E+04 -1.59201E+04 -7.07973E+04  2.94619E+04 -4.62951E+04
  4.05851E+04  4.54509E+03  1.59816E+04  5.08024E+04 -3.58961E+04  4.67130E+04 -6.93969E+04 -3.20747E+02
 -5.31384E+04 -5.90527E+04 -8.34424E+03 -7.94243E+04  3.50621E+04 -5.83825E+04  5.10711E+04 -1.85694E+04
  4.67271E+04  1.35969E+04  3.34286E+04  2.60173E+04  1.55304E+04  3.16463E+04 -6.36421E+03  2.74321E+04
 -2.21873E+04  1.12012E+04 -1.98993E+04 -8.30170E+03  8.08351E+03 -6.47020E+03  2.58857E+04  1.57202E+04
  9.38333E+03  3.96690E+04 -3.44971E+04  4.02837E+04 -6.71547E+04  2.15423E+03 -5.86520E+04 -4.66581E+04
 -1.42977E+04 -6.66824E+04  4.28762E+04 -4.80403E+04  6.17672E+04 -2.18980E+03  3.75661E+04  3.42349E+04
 -6.30626E+03  4.23659E+04 -3.19910E+04  2.12059E+04 -3.41452E+04 -2.58681E+03 -1.93891E+04 -1.20940E+04
 -7.58903E+03 -1.60440E+04 -1.38020E+03 -2.03822E+04  9.09858E+03 -2.64520E+04  1.69816E+04 -1.14873E+04
  1.04749E+04  6.11241E+03 -1.13862E+04  1.17616E+04 -2.21748E+04 -7.06125E+03 -8.66260E+03 -3.92271E+04
  2.60406E+04 -4.88785E+04  5.27911E+04 -2.17678E+04  5.19096E+04  2.13427E+04  1.69441E+04  4.74644E+04
 -1.68866E+04  3.67929E+04 -2.79880E+04  1.95780E+03 -1.32183E+04 -3.00224E+04  2.23402E+04 -3.77891E+04
  4.76296E+04 -1.23076E+04  4.24040E+04  2.53832E+04  2.34501E+04  5.34074E+04 -7.46932E+03  5.70771E+04
 -3.51478E+04  3.93903E+04 -5.15487E+04  1.20971E+04 -5.02511E+04 -2.02628E+04 -2.78769E+04 -4.55681E+04
  6.60904E+03 -4.50951E+04  3.42814E+04 -1.83285E+04  3.39098E+04  1.13442E+04  5.51252E+03  2.01143E+04
 -1.61118E+04  1.07532E+04 -1.16095E+04 -9.13759E+03  5.58666E+03 -1.10443E+04  1.83313E+04  5.38615E+03
  1.71947E+04  2.43596E+04 -6.70866E+03  2.59625E+04 -2.46739E+04  1.60871E+04 -3.28936E+04 -1.87927E+03
 -2.56462E+04 -1.88975E+04 -1.35904E+04 -2.72070E+04  2.65392E+03 -2.91767E+04  2.14792E+04 -2.49881E+04
  3.52620E+04 -1.53588E+04  4.17303E+04  5.24860E+03  2.80698E+04  2.52935E+04  6.22787E+03  4.33770E+04
 -2.15594E+04  3.46554E+04 -3.31807E+04  1.33304E+04 -2.35322E+04 -1.07228E+04 -4.73341E+03 -1.28609E+04
 -1.50994E+02  1.05614E+03 -8.59589E+03  9.74248E+03 -2.26994E+04  4.21397E+03 -2.32136E+04 -1.13930E+04
 -1.06707E+04 -2.71192E+04  6.51380E+03 -3.16916E+04  2.02671E+04 -2.16973E+04  2.46623E+04 -3.21629E+03
  1.57200E+04  1.79119E+04 -2.85548E+03  2.43520E+04 -1.71087E+04  1.49329E+04 -2.42619E+04 -6.46714E+03
 -1.90349E+04 -2.50832E+04 -4.52695E+02 -3.04883E+04  1.24088E+04 -2.48598E+04  2.60449E+04 -1.31587E+04
  2.29824E+04 -1.04525E+03  1.81394E+04  4.50990E+03  1.09238E+04  9.22337E+02  1.36750E+04 -2.98717E+03
  2.71973E+04  3.19902E+03  2.88104E+04  1.88438E+04  2.07549E+04  4.02316E+04 -2.32058E+03  4.98697E+04
 -2.98705E+04  4.05354E+04 -4.68037E+04  2.41844E+04 -4.80603E+04 -4.77470E+03 -4.18884E+04 -2.81648E+04
 -1.65234E+04 -4.11003E+04  1.41831E+04 -3.63130E+04  3.26099E+04 -1.52397E+04  2.64836E+04  9.85987E+03
  7.58356E+03  2.23210E+04 -1.35221E+04  1.67827E+04 -2.31738E+04  3.96424E+03 -1.78545E+04 -1.41975E+04
 -1.29200E+03 -1.94252E+04  1.03708E+04 -1.65301E+04  1.56811E+04 -1.90513E+03  4.24835E+03  1.00319E+04
 -1.02058E+04  5.81709E+03 -1.01175E+04 -8.42347E+03 -2.43175E+03 -2.13104E+04  1.31009E+04 -2.32142E+04
  2.58355E+04 -1.40946E+04  3.17454E+04  4.47754E+03  2.66361E+04  2.21955E+04  1.36853E+04  3.38054E+04
 -1.00919E+04  3.51416E+04 -2.26189E+04  2.12813E+04 -2.52347E+04  4.31919E+03 -1.73855E+04 -6.54130E+03
 -7.59175E+03 -7.18053E+03 -1.74907E+03  5.93879E+02 -1.14611E+03  2.46750E+03 -9.17518E+03  5.61981E+03
 -1.76957E+04 -3.09497E+03 -1.74488E+04 -1.39286E+04 -6.62940E+03 -2.19145E+04  8.13342E+03 -1.54804E+04
  1.43404E+04 -8.46163E+03  9.33732E+03  4.98084E+03 -2.60876E+03  6.92404E+03 -8.92525E+03  1.30537E+03
 -1.07125E+04 -1.24150E+04 -2.93326E+02 -1.68754E+04  1.16928E+04 -2.17565E+04  2.26869E+04 -7.08689E+03
  2.70979E+04  3.44543E+03  2.19242E+04  1.66309E+04  5.86604E+03  2.08155E+04 -1.20496E+04  1.78421E+04
 -1.50001E+04  4.84695E+03 -8.64208E+03 -5.44486E+03  3.69942E+03 -5.68768E+03  8.26620E+03 -3.45423E+02
  8.81207E+03  7.48942E+03  1.76731E+03  1.40304E+04 -1.18980E+04  1.35759E+04 -1.88028E+04  3.65766E+03
 -1.33385E+04 -1.07620E+04 -6.79065E+01 -1.74227E+04  1.02785E+04 -8.17618E+03  1.01321E+04  4.36233E+03
  3.59783E+03  1.31385E+04 -8.17721E+03  1.53513E+04 -1.65651E+04  7.66754E+03 -1.86761E+04 -5.66618E+03
 -1.06571E+04 -2.02730E+04  3.04028E+03 -2.19989E+04  2.01431E+04 -1.04950E+04  2.01818E+04  4.79100E+03
  1.25983E+04  1.72209E+04 -3.64246E+03  1.85142E+04 -1.40967E+04  1.18651E+04 -1.46430E+04 -8.57420E+02
 -1.23297E+04 -1.17347E+04 -3.04967E+03 -1.39289E+04  7.41417E+03 -1.15827E+04  9.35854E+03 -3.52899E+03
  6.33620E+03  4.40941E+03 -2.01625E+03  1.54920E+03 -3.86868E+02 -3.58544E+03  3.84202E+03 -9.52836E+03
  1.67004E+04 -3.78292E+03  2.09755E+04  1.28603E+03  1.90958E+04  1.58765E+04  1.40761E+04  2.60345E+04
 -5.74968E+03  2.96989E+04 -2.44036E+04  2.34595E+04 -3.21862E+04  4.22477E+03 -2.54465E+04 -1.21237E+04
 -1.39977E+04 -1.97271E+04 -9.07763E+02 -1.62720E+04  4.95257E+03 -1.08032E+04  7.59642E+03 -6.53265E+03
  5.28141E+03 -5.30837E+03  6.37008E+03 -3.34910E+03  8.10497E+03 -5.71764E+03  8.64820E+03 -2.65167E+03
  1.25593E+04  2.31802E+03  8.70840E+03  1.16715E+04 -1.28868E+03  1.44237E+04 -1.37816E+04  1.24818E+04
 -1.73713E+04 -3.27220E+02 -1.10663E+04 -1.17911E+04 -1.25415E+03 -1.90212E+04  1.12399E+04 -1.97403E+04
  1.94520E+04 -9.95053E+03  2.51861E+04  3.21174E+03  1.66577E+04  1.95187E+04  2.54507E+03  2.39784E+04
 -9.36460E+03  1.90178E+04 -1.19372E+04  6.37431E+03 -9.49560E+03 -3.32093E+03 -3.35241E+03 -2.68362E+03
 -2.81421E+03 -1.39449E+03 -3.36032E+03  2.50028E+03 -5.77333E+03  2.70962E+03 -1.26712E+04 -2.93459E+03
 -8.42912E+03 -1.31670E+04  9.71897E+02 -1.87542E+04  1.18745E+04 -1.67191E+04  1.80766E+04 -4.32767E+03
  1.98723E+04  9.01812E+03  8.04506E+03  1.75618E+04 -5.00853E+03  1.93841E+04 -1.42832E+04  1.11308E+04
 -1.71994E+04 -2.94144E+02 -1.32401E+04 -1.00353E+04 -9.70480E+02 -1.69874E+04  7.35644E+03 -1.34216E+04
  1.22661E+04 -4.43686E+03  8.12788E+03  4.79282E+03  1.25640E+03  4.40429E+03  1.31807E+03  2.77502E+03
  3.21733E+03  1.28359E+03  4.21232E+03  3.03131E+03  6.82175E+03  7.66987E+03  2.86658E+03  1.19282E+04
 -4.39371E+03  1.67620E+04 -1.24077E+04  1.69712E+04 -2.15552E+04  3.34664E+03 -2.05353E+04 -7.94410E+03
 -9.12974E+03 -2.21390E+04  3.38642E+03 -1.91395E+04  1.31646E+04 -1.33225E+04  1.71112E+04 -2.82222E+03
  1.11598E+04  5.86200E+03  2.25487E+03  1.08858E+04 -6.76027E+03  8.26622E+03 -7.57341E+03  8.78717E+01
 -4.27466E+03 -8.30295E+03  5.77213E+03 -9.53674E+03  8.16635E+03 -3.73535E+03  9.14048E+03  2.31705E+02
  2.57056E+03  3.40700E+03  2.16126E+03  2.50405E+03 -1.43397E+03  3.23732E+03  1.60052E+03 -1.08484E+03
  3.23714E+03 -4.73680E+03  7.20691E+03  3.28658E+03  4.68535E+03  1.00051E+04 -1.49787E+03  1.39451E+04
 -8.91748E+03  1.00878E+04 -1.38221E+04  2.79097E+03 -1.26552E+04 -4.46665E+03 -5.16962E+03 -8.74352E+03
  3.25410E+02 -7.90171E+03  5.90100E+03 -3.73220E+03  3.49259E+03  3.88673E+03 -6.16931E+02  7.21330E+03
 -8.35465E+03  3.01064E+03 -8.39992E+03 -5.68286E+03 -6.52718E+03 -1.10424E+04  1.76128E+03 -1.30916E+04
  8.57888E+03 -6.36625E+03  1.01930E+04 -1.76452E+03  6.89919E+03  3.33479E+03  1.37854E+02  8.19732E+03
 -3.13740E+03  2.23779E+03 -5.33704E+03 -3.11961E+03  1.08923E+03 -1.02902E+04  1.05989E+04 -1.10739E+04
  1.36036E+04 -2.07647E+02  1.20283E+04  8.99397E+03  5.61004E+03  1.44335E+04 -3.37811E+03  1.38681E+04
 -1.09120E+04  8.10767E+03 -1.18850E+04 -2.99600E+02 -5.93761E+03 -9.80344E+03  1.48574E+03 -7.80412E+03
  8.66749E+03 -4.78035E+03  7.70828E+03  2.80050E+03  3.08188E+03  6.50432E+03 -1.57660E+03  7.41908E+03
 -3.64538E+03  5.51403E+03 -3.13685E+03  1.22235E+02 -2.45621E+03  2.36443E+02 -2.29255E+03  1.81518E+03
 -2.77306E+03  5.08180E+03 -9.22676E+03  5.24825E+03 -1.41783E+04  2.16128E+03 -1.69247E+04 -1.04307E+04
 -6.24974E+03 -1.96689E+04  3.22432E+03 -2.26562E+04  1.31678E+04 -1.73305E+04  2.08349E+04 -6.00476E+03
  1.93536E+04  4.56418E+03  1.22125E+04  1.29003E+04  3.02122E+03  1.37702E+04 -5.35194E+03  1.16095E+04
 -8.55353E+03  3.93002E+03 -3.50385E+03 -2.04146E+03 -2.33265E+03 -2.52540E+03 -1.32467E+03  1.85056E+02
 -3.49871E+03  1.57791E+03 -4.29654E+03 -3.14417E+02 -1.68613E+03 -2.61811E+03  1.93287E+03 -5.13321E+03
  5.70560E+03 -5.73897E+03  8.69758E+03 -8.29516E+02  1.19409E+04  8.67015E+03  4.12850E+03  1.44680E+04
 -8.35816E+03  1.65067E+04 -1.82774E+04  1.05187E+04 -1.85538E+04 -2.54128E+03 -1.40365E+04 -1.15603E+04
 -6.75844E+03 -1.52072E+04  3.08363E+03 -1.27450E+04  9.93999E+03 -7.39916E+03  1.16615E+04  4.10393E+02
  4.11554E+03  6.78813E+03  9.02869E+02  4.07506E+03 -2.49738E+03 -9.84437E+02  1.69639E+03 -3.41638E+03
  5.06606E+03 -2.63736E+03  6.07981E+03  2.15603E+03  3.77957E+03  5.43794E+03  1.99614E+03  8.85165E+03
 -6.73190E+03  8.17108E+03 -1.12780E+04 -5.96127E+02 -9.78375E+03 -5.61681E+03 -2.71734E+03 -1.41901E+04
  7.58892E+03 -9.68442E+03  1.23512E+04 -3.02379E+03  1.15699E+04  2.81389E+03  6.90875E+03  9.64769E+03
 -5.95388E+02  1.13398E+04 -3.62679E+03  8.48399E+03 -8.54186E+03  3.82566E+03 -6.71580E+03  1.47564E+03
 -2.62642E+03 -8.49389E+01 -1.66828E+03  2.65535E+03 -4.91207E+03  1.51390E+03 -8.03310E+03 -2.20645E+03
 -8.36406E+03 -4.78522E+03 -2.43229E+03 -1.04787E+04  4.28488E+03 -1.03484E+04  1.00008E+04 -4.35835E+03
  9.72086E+03  1.49317E+03  4.49483E+03  8.51767E+03  8.15483E+02  1.28829E+04 -8.60013E+03  6.89851E+03
