 $NMID ID='MM_0lb_SNR200_20hz_g40_31.RAW', FMTDAT='(8E13.5)'
 TRAMP=1., VOLUME=1. $END
  3.09804E+05  2.63964E+02  3.36664E+05  2.50110E+05  8.41454E+04  3.36656E+05 -1.31868E+05  2.50658E+05
 -1.90187E+05  8.21603E+04 -1.10382E+05 -3.21198E+04  1.46019E+03 -5.13217E+04  5.39344E+04  1.71702E+03
  3.53048E+04  5.29594E+04 -1.73945E+04  7.50864E+04 -6.00482E+04  6.20276E+04 -8.25270E+04  3.12624E+04
 -7.90623E+04 -1.07230E+04 -5.50859E+04 -5.02023E+04 -1.55325E+04 -6.76779E+04  2.66762E+04 -4.43005E+04
  3.90649E+04  3.71741E+03  1.52879E+04  4.67173E+04 -3.40067E+04  4.62175E+04 -6.48297E+04 -1.12069E+03
 -5.04015E+04 -5.50324E+04 -6.25561E+03 -7.36705E+04  3.33764E+04 -5.27931E+04  4.42136E+04 -1.61043E+04
  4.08343E+04  1.01729E+04  3.07577E+04  2.31934E+04  1.56554E+04  2.66482E+04 -5.28440E+03  2.61542E+04
 -2.13973E+04  1.32390E+04 -2.06106E+04 -4.53548E+03  3.86571E+03 -7.67314E+03  2.09409E+04  9.62220E+03
  7.60013E+03  3.22356E+04 -3.00766E+04  3.25931E+04 -5.98133E+04  1.52217E+03 -5.33316E+04 -4.08603E+04
 -1.18260E+04 -6.01822E+04  3.79291E+04 -4.24777E+04  5.34252E+04 -1.37884E+03  3.00834E+04  3.00533E+04
 -8.26986E+03  3.18136E+04 -2.82299E+04  1.13739E+04 -2.67471E+04 -5.74964E+03 -1.26847E+04 -9.88951E+03
 -6.56867E+03 -1.02373E+04 -1.48286E+03 -1.46744E+04  5.27139E+03 -2.31378E+04  1.42745E+04 -1.42157E+04
  1.36203E+04  3.66748E+03 -5.88195E+03  1.30302E+04 -1.93374E+04 -1.23361E+03 -8.26938E+03 -2.87968E+04
  2.00126E+04 -3.95759E+04  4.29781E+04 -1.77461E+04  4.05018E+04  1.73056E+04  1.33552E+04  4.00838E+04
 -1.48623E+04  2.93915E+04 -2.13186E+04  1.29546E+03 -6.51736E+03 -2.50370E+04  1.97521E+04 -3.01841E+04
  3.71459E+04 -6.60923E+03  2.88232E+04  2.23142E+04  1.48524E+04  4.06055E+04 -7.37386E+03  4.24750E+04
 -2.57672E+04  2.77257E+04 -3.38400E+04  8.43438E+03 -3.65610E+04 -1.49494E+04 -1.96704E+04 -3.27074E+04
  7.00380E+03 -3.23197E+04  2.79215E+04 -1.19606E+04  2.53450E+04  1.11027E+04  2.02093E+03  1.76562E+04
 -1.37603E+04  6.69174E+03 -9.60734E+03 -7.85831E+03  5.64319E+03 -1.01375E+04  1.66401E+04  6.83817E+03
  1.13330E+04  2.08234E+04 -6.66549E+03  2.23123E+04 -2.09979E+04  8.50020E+03 -2.38451E+04 -5.73219E+03
 -1.51995E+04 -1.60170E+04 -4.11029E+03 -1.39039E+04  4.01971E+03 -1.21044E+04  9.82106E+03 -1.27453E+04
  1.90307E+04 -1.22988E+04  2.49959E+04  5.67745E+02  2.00498E+04  1.44381E+04  4.51606E+03  3.05255E+04
 -1.51616E+04  2.73055E+04 -2.55613E+04  1.00696E+04 -1.83642E+04 -1.04144E+04 -3.41652E+03 -1.31826E+04
  2.53680E+03 -4.88363E+03 -2.48862E+03  4.56539E+03 -1.24788E+04  4.29809E+03 -1.20908E+04 -4.27130E+03
 -8.79142E+03 -1.44189E+04  4.73765E+03 -1.82477E+04  1.12495E+04 -1.22057E+04  1.41704E+04 -1.04724E+03
  7.97021E+03  8.78291E+03 -1.25013E+03  1.45891E+04 -1.00242E+04  8.00294E+03 -1.43638E+04 -4.04950E+03
 -1.09085E+04 -1.29072E+04 -1.12756E+03 -1.79695E+04  7.48259E+03 -1.36624E+04  1.53122E+04 -6.05283E+03
  1.28818E+04  4.11301E+02  1.01234E+04  4.40172E+03  4.68532E+03  4.33591E+02  6.53319E+03 -6.55389E+02
  1.21579E+04  2.54717E+03  1.22539E+04  1.15099E+04  7.86666E+03  2.12909E+04 -2.79941E+03  2.23281E+04
 -1.40516E+04  1.77870E+04 -2.24860E+04  7.92579E+03 -2.20285E+04 -1.66765E+03 -1.85502E+04 -1.22529E+04
 -1.00638E+04 -1.75738E+04  5.23090E+03 -1.74172E+04  1.34699E+04 -1.02458E+04  1.43341E+04  3.83017E+03
  6.15581E+03  9.73081E+03 -5.93680E+03  1.01066E+04 -1.11079E+04  2.57219E+03 -9.07574E+03 -6.66140E+03
  5.63259E+02 -1.10313E+04  5.75655E+03 -8.43765E+03  8.44936E+03 -1.44838E+03  1.06473E+03  4.50523E+03
 -4.90804E+03  1.53722E+03 -2.26425E+03 -3.66644E+03  7.15471E+02 -9.55082E+03  6.62312E+03 -7.89467E+03
  1.02379E+04 -4.19873E+03  1.04987E+04  2.33259E+03  9.05587E+03  9.96532E+03  3.71533E+03  1.22218E+04
 -1.70852E+03  1.45753E+04 -7.77396E+03  9.04507E+03 -1.07719E+04  2.14885E+03 -6.86193E+03 -1.05074E+03
 -3.90699E+03 -1.67543E+03 -9.25225E+02  1.02589E+03 -2.41460E+03  2.07778E+03 -2.50533E+03  3.41268E+03
 -6.97301E+03  2.05743E+02 -7.85987E+03 -6.80188E+03 -3.36515E+03 -1.02154E+04  2.69834E+03 -6.75955E+03
  6.48380E+03 -3.15786E+03  5.29263E+03  1.76124E+03  1.50876E+03  2.00865E+03 -2.60695E+03 -7.83463E+01
 -2.80318E+03 -4.74406E+03  7.01542E+01 -6.15830E+03  3.88015E+03 -6.71430E+03  8.14160E+03 -3.24238E+03
  1.13126E+04 -3.47106E+02  7.39152E+03  4.90287E+03  1.57874E+03  6.64770E+03 -3.99293E+03  7.58664E+03
 -6.95082E+03  2.92898E+03 -3.15448E+03 -8.84586E+02  9.45448E+02 -1.53708E+03  3.84481E+03 -8.66160E+02
  3.36310E+03  2.86364E+03  1.24369E+03  5.43594E+03 -3.13458E+03  5.01381E+03 -7.55206E+03  2.00724E+03
 -4.15840E+03 -2.35538E+03  8.36200E+02 -6.19854E+03  3.04576E+03 -2.71692E+03  3.69707E+03 -3.96640E+02
  4.52658E+02  2.86431E+03 -3.87106E+03  4.04622E+03 -3.59932E+03  2.59045E+03 -2.75191E+03 -2.30045E+02
 -1.96923E+03 -5.67070E+03  1.99446E+03 -5.00895E+03  4.23047E+03 -2.26388E+03  4.56030E+03  9.18618E+02
  5.42770E+03  3.46878E+03  6.74196E+02  7.10000E+03 -4.86240E+03  4.61863E+03 -4.49788E+03 -1.33467E+03
 -5.30675E+03 -4.42638E+03 -1.47341E+03 -4.15248E+03  1.72063E+03 -4.21458E+03  2.33125E+03 -2.63456E+03
  3.15430E+03  5.64344E+02 -1.84756E+02  1.39237E+03  8.55493E+02 -4.11064E+02 -4.34518E+02 -1.30218E+03
  2.66348E+03 -1.82414E+02  3.04033E+03  9.86607E+02  3.71584E+03  1.93403E+03  4.16504E+03  6.05005E+03
 -1.45505E+03  6.55342E+03 -6.83909E+03  4.93049E+03 -7.96144E+03  2.54859E+03 -6.75850E+03 -8.83512E+02
 -3.88866E+03 -5.20779E+03 -1.29275E+03 -3.09165E+03  2.21767E+03 -2.03413E+03  1.42075E+03 -2.28888E+03
  1.22541E+03 -2.10112E+03  1.64139E+03 -2.82006E+03  2.90887E+03 -1.06816E+03  2.05141E+03  1.01135E+03
  4.13397E+03  5.77093E+02  1.22432E+01  2.50263E+03 -2.63554E+03  2.61463E+03 -4.12899E+03  2.13435E+03
 -3.50775E+03 -8.43011E+02 -1.01237E+03 -2.76913E+03  1.08506E+03 -4.82023E+03  2.52606E+03 -3.95752E+03
  3.59784E+03 -2.38685E+03  6.04272E+03 -7.39956E+02  4.57231E+03  3.15174E+03  8.77818E+02  5.59303E+03
 -1.10338E+03  5.01437E+03 -2.51433E+03  4.02166E+02 -9.53865E+02 -7.74383E+02 -3.62704E+02  4.65350E+02
 -4.90512E+02  6.93501E+02 -6.32113E+02  1.21532E+03 -2.28010E+03  6.50686E+02 -3.10572E+03  2.31821E+02
 -5.80322E+02 -3.57372E+03  1.12404E+03 -3.55831E+03  1.88383E+03 -3.54962E+03  2.39321E+03 -4.06857E+02
  2.76217E+03  1.44051E+03  1.36760E+03  2.16251E+03 -9.35969E+02  2.57817E+03 -8.70680E+02  2.39389E+03
 -3.09556E+03  1.25974E+03 -3.00767E+03 -1.84344E+03  1.18156E+02 -2.34321E+03  1.35413E+03 -2.30365E+03
  2.78412E+03 -8.59592E+02  1.78172E+03  4.74802E+02  8.08702E+02  1.50310E+03  1.03708E+03  2.29664E+02
  2.16432E+03 -3.09895E+02 -9.35964E+01  6.19512E+02  1.55124E+03  2.54376E+03  8.90722E+02  4.50975E+02
 -2.06544E+03  1.77788E+03 -1.61669E+03  3.16471E+03 -1.69702E+03  1.15034E+03 -4.32889E+03  4.22084E+02
 -1.65032E+03 -2.46500E+03  1.07259E+03 -3.79568E+03  1.58584E+03 -1.41561E+03  2.24691E+03 -9.66262E+02
  1.48856E+03  7.78654E+02  4.74550E+02  1.83236E+03  3.79620E+02  1.80133E+03  2.63495E+02 -8.06146E+02
 -1.92478E+01 -1.27452E+03  1.51176E+03 -1.06908E+03  1.05694E+03 -1.54757E+03  1.35455E+03  1.89367E+02
  3.74133E+02  1.62856E+02  3.84317E+01 -4.28892E+02 -4.79198E+02  5.35567E+02  1.67894E+03  5.18226E+02
 -2.75482E+02 -1.10846E+03  4.73623E+02  1.52231E+03 -2.05353E+02  2.45353E+03  4.70011E+02  1.95974E+03
 -6.18096E+02  2.15889E+02 -1.30373E+03  3.06324E+02 -1.56138E+03 -8.38089E+02  7.58318E+02 -1.21038E+01
  1.63496E+02 -1.12923E+03  7.66235E+02 -1.31410E+03  3.69998E+02  4.42979E+02 -2.89257E+02  5.36035E+02
 -4.31328E+02  8.09893E+02  2.85537E+02 -6.94693E+02 -1.09695E+03 -1.49912E+03  2.63925E+02 -8.71310E+02
 -3.27559E+02 -8.85628E+02  1.65430E+03 -3.85726E+01  1.00456E+03  1.16139E+03 -1.35116E+02  4.93893E+02
 -1.82319E+03  1.24355E+03 -3.40108E+02 -3.73048E+02  9.43601E+02 -3.54378E+02  1.51074E+03 -8.68292E+02
  6.43671E+02 -1.32031E+02  3.57051E+03 -4.00652E+02  8.74340E+02  1.68375E+03 -4.03288E+01  1.78528E+03
 -1.01702E+02 -1.42530E+02 -1.06023E+03 -5.81462E+02 -8.64079E+02 -1.32297E+03  7.68610E+02 -6.18630E+02
  4.39918E+02 -5.32598E+02  5.01032E+02  1.55992E+03 -6.75759E+01 -8.44704E+01  5.69590E+02  1.49021E+03
 -4.43142E+02  8.38406E+02 -7.67565E+02 -4.60167E+02  4.89952E+02  1.12532E+03 -4.16007E+02 -5.64760E+02
  6.30784E+02  1.47290E+03 -1.69032E+03  2.21018E+03 -1.50815E+03  3.26380E+02 -3.33727E+03 -1.10791E+03
 -7.11127E+02 -1.45319E+03  7.62990E+02 -1.75023E+03  1.14160E+03 -1.73589E+03  2.05862E+03 -1.55662E+03
  2.81603E+03  1.00982E+03  5.52772E+02  2.63755E+02 -3.96253E+02  5.93457E+02  6.00759E+02  7.72837E+02
 -6.37860E+02  1.06849E+03 -8.07526E+02 -1.29991E+02 -1.01319E+03  7.48508E+02 -7.43811E+02 -4.01693E+02
  1.49966E+02  7.32481E+02 -8.53584E+02 -2.96228E+02  6.37906E+02  3.67957E+02  9.52684E+02 -2.39616E+02
  1.27243E+03 -1.04532E+03  4.78501E+02  1.28549E+02  1.68560E+03  1.02334E+03 -8.99814E+02  1.52610E+03
 -8.49925E+02  1.16248E+03 -1.01482E+03  7.48875E+02 -1.69579E+03  8.14657E+00 -9.79317E+02 -9.21786E+02
 -9.69723E+02 -7.07411E+02 -1.10525E+03  9.14591E+02 -3.42835E+02 -6.73058E+02  6.04026E+02  4.75792E+02
  1.02912E+03 -9.64180E+02  9.63484E+02  3.35681E+02 -3.17391E+01 -6.12269E+02  1.23508E+02 -4.41774E+02
 -2.64954E+01  5.29042E+02 -1.55515E+02 -2.58124E+02  2.67094E+02  3.84665E+02  3.95168E+02 -3.18219E+02
 -9.33406E+02 -1.76931E+01 -6.29575E+02  8.63607E+02 -9.58180E+02 -4.17512E+02 -9.35589E+02 -8.58884E+02
  8.45895E+02  1.20877E+02  1.15499E+03 -1.46861E+02  8.44594E+02 -1.04520E+03 -6.70358E+01  8.16855E+02
  1.44572E+03  2.62346E+02 -2.76070E+02  5.15549E+02 -6.06338E+01  1.98972E+02 -1.66633E+02  5.99880E+02
 -1.27459E+03 -4.70355E+02 -6.78970E+02 -1.18295E+03 -6.49147E+02 -5.25594E+02 -1.89215E+02  6.34301E+02
 -2.81712E+02  2.07328E+03 -1.22985E+03 -1.23305E+03 -4.39248E+02 -1.09015E+03  1.12919E+03  2.10083E+02
  2.24215E+01 -1.44668E-01 -6.13283E+02 -8.68669E+02 -7.87296E+02  8.15726E+02 -6.13683E+02  3.76800E+02
