 $NMID ID='MM_0lb_SNR200_10hz_g45_78.RAW', FMTDAT='(8E13.5)'
 TRAMP=1., VOLUME=1. $END
  3.09088E+05  8.98975E+02  3.37911E+05  2.50125E+05  8.36784E+04  3.38319E+05 -1.31757E+05  2.52211E+05
 -1.90061E+05  8.47185E+04 -1.11956E+05 -3.10968E+04  1.11843E+03 -5.02875E+04  5.30842E+04  8.68430E+02
  3.44832E+04  5.20831E+04 -1.67011E+04  7.55557E+04 -6.00011E+04  6.44086E+04 -8.53902E+04  3.32886E+04
 -8.19612E+04 -1.03480E+04 -5.86162E+04 -4.98484E+04 -1.49480E+04 -7.08770E+04  2.80476E+04 -4.77640E+04
  4.10952E+04  4.23029E+03  1.79721E+04  4.81413E+04 -3.36102E+04  4.83826E+04 -6.67062E+04  1.16872E+03
 -5.57314E+04 -5.67794E+04 -6.04882E+03 -7.86935E+04  3.51605E+04 -5.65043E+04  4.86861E+04 -1.84002E+04
  4.65374E+04  1.18470E+04  3.39390E+04  2.64495E+04  1.64211E+04  2.87622E+04 -6.37395E+03  2.66999E+04
 -2.28177E+04  1.20425E+04 -1.72342E+04 -5.56245E+03  6.57810E+03 -5.68857E+03  2.44671E+04  1.31560E+04
  8.02399E+03  3.70129E+04 -3.30414E+04  3.60439E+04 -6.79403E+04  3.65287E+03 -5.85737E+04 -4.38190E+04
 -1.22886E+04 -6.51665E+04  4.02873E+04 -4.66840E+04  5.94560E+04 -2.37058E+03  3.55255E+04  3.45166E+04
 -5.91618E+03  3.84834E+04 -3.12974E+04  1.78147E+04 -3.36552E+04 -4.07531E+03 -1.68205E+04 -1.33525E+04
 -9.30833E+03 -1.58271E+04  8.57019E+01 -1.98004E+04  9.19359E+03 -2.42875E+04  1.61569E+04 -1.35375E+04
  9.91210E+03  6.60383E+03 -9.67444E+03  1.15043E+04 -2.20067E+04 -5.70650E+03 -8.12689E+03 -3.59414E+04
  2.55799E+04 -4.66553E+04  5.17535E+04 -1.98686E+04  4.76874E+04  2.04382E+04  1.47561E+04  4.69500E+04
 -1.63266E+04  3.40455E+04 -2.63832E+04  2.24105E+03 -1.20990E+04 -2.84126E+04  2.14937E+04 -3.61938E+04
  4.39173E+04 -1.08428E+04  3.81963E+04  2.47667E+04  2.01338E+04  5.05659E+04 -7.88304E+03  5.48560E+04
 -3.34525E+04  3.66335E+04 -4.43779E+04  1.06909E+04 -4.66193E+04 -1.76075E+04 -2.43196E+04 -4.12594E+04
  9.69200E+03 -4.17022E+04  3.32258E+04 -1.52645E+04  3.15567E+04  1.08223E+04  5.49410E+03  2.07311E+04
 -1.55932E+04  9.00743E+03 -1.09228E+04 -8.79013E+03  5.99489E+03 -1.09629E+04  1.71800E+04  6.20723E+03
  1.50012E+04  2.18099E+04 -4.35790E+03  2.64088E+04 -2.45426E+04  1.32164E+04 -3.10974E+04 -3.80430E+03
 -2.42929E+04 -1.74857E+04 -1.19399E+04 -2.37082E+04  3.37198E+03 -2.50989E+04  1.81630E+04 -2.25428E+04
  2.91625E+04 -1.42488E+04  3.67832E+04  3.35389E+03  2.64402E+04  2.34411E+04  3.53921E+03  3.90180E+04
 -1.94402E+04  3.25908E+04 -2.99917E+04  1.22727E+04 -2.17708E+04 -1.01289E+04 -4.64213E+03 -1.28358E+04
  3.42170E+02 -1.31184E+03 -6.17351E+03  8.19786E+03 -2.02333E+04  6.09634E+03 -1.93460E+04 -8.13199E+03
 -1.16576E+04 -2.20356E+04  3.03324E+03 -2.64889E+04  1.82623E+04 -1.89458E+04  2.23025E+04 -2.10265E+03
  1.38328E+04  1.45505E+04 -9.17451E+02  2.28774E+04 -1.50443E+04  1.21161E+04 -2.13439E+04 -4.33740E+03
 -1.58307E+04 -1.95628E+04 -1.06844E+03 -2.79061E+04  1.25752E+04 -2.19524E+04  2.24589E+04 -9.95144E+03
  1.99785E+04  1.07150E+03  1.58600E+04  4.53964E+03  8.40099E+03  1.22272E+03  1.21121E+04 -2.26024E+03
  1.89245E+04  3.84132E+03  2.39178E+04  1.82423E+04  1.64752E+04  3.41904E+04 -2.14243E+03  4.08233E+04
 -2.26639E+04  3.59805E+04 -3.77840E+04  1.53062E+04 -4.17238E+04 -3.49938E+03 -3.23473E+04 -2.36837E+04
 -1.46226E+04 -3.59093E+04  1.03783E+04 -2.96919E+04  2.56798E+04 -1.40605E+04  2.29484E+04  6.54524E+03
  8.32957E+03  1.71375E+04 -9.38990E+03  1.45822E+04 -1.96373E+04  3.13732E+03 -1.49876E+04 -1.24858E+04
 -6.76334E+00 -1.64575E+04  9.28733E+03 -1.25932E+04  1.38661E+04 -4.97561E+02  2.88587E+03  8.02902E+03
 -7.99012E+03  3.66501E+03 -8.84552E+03 -6.14231E+03 -1.72029E+03 -1.72101E+04  1.05586E+04 -1.80139E+04
  2.00202E+04 -1.06503E+04  2.26415E+04  4.13418E+03  1.98792E+04  1.74673E+04  8.70900E+03  2.62785E+04
 -5.08805E+03  2.87420E+04 -1.94595E+04  1.69086E+04 -2.04885E+04  4.08848E+03 -1.30474E+04 -5.68184E+03
 -7.29578E+03 -5.47380E+03  7.40130E+02  1.16643E+03 -3.11911E+03  3.18781E+03 -7.24807E+03  4.95078E+03
 -1.31087E+04 -7.12104E+02 -1.46362E+04 -1.19035E+04 -4.90006E+03 -1.86706E+04  6.69073E+03 -1.50483E+04
  1.09881E+04 -6.60848E+03  7.81296E+03  3.53292E+03 -3.03332E+02  5.97902E+03 -7.66422E+03 -2.33800E+02
 -6.95528E+03 -9.01984E+03 -8.46898E+02 -1.37764E+04  7.74790E+03 -1.55132E+04  1.89884E+04 -7.23506E+03
  2.10262E+04  3.37329E+03  1.56615E+04  1.28638E+04  2.58723E+03  1.71703E+04 -9.58126E+03  1.34834E+04
 -1.05500E+04  3.50329E+03 -6.32519E+03 -3.67149E+03  1.60967E+03 -3.97329E+03  7.78129E+03 -1.20702E+03
  6.37073E+03  6.51508E+03  1.55898E+03  1.12273E+04 -8.62135E+03  1.14295E+04 -1.36894E+04  3.58285E+03
 -1.11395E+04 -6.54068E+03  4.57811E+02 -1.16258E+04  7.75503E+03 -5.81520E+03  9.43838E+03  2.41819E+03
  1.68186E+03  8.97128E+03 -7.92606E+03  1.00270E+04 -1.24398E+04  4.73869E+03 -1.21361E+04 -3.65469E+03
 -7.42347E+03 -1.33314E+04  3.01650E+03 -1.64622E+04  1.58529E+04 -8.85300E+03  1.45683E+04  1.99050E+03
  8.79247E+03  1.17378E+04 -6.77268E+02  1.46148E+04 -9.92992E+03  7.75658E+03 -1.29848E+04 -1.36293E+03
 -9.82973E+03 -1.07747E+04 -1.95812E+03 -8.64379E+03  6.57143E+03 -8.34117E+03  7.07168E+03 -3.96553E+03
  5.82376E+03  2.33738E+03  1.41780E+03  2.06561E+03 -2.17498E+02 -2.29056E+03  3.37252E+03 -6.28809E+03
  1.12979E+04 -4.55187E+03  1.53474E+04  5.33017E+02  1.31559E+04  9.46434E+03  8.77599E+03  1.83090E+04
 -3.34975E+03  2.08669E+04 -1.65991E+04  1.75083E+04 -2.23321E+04  2.18985E+03 -1.76964E+04 -8.32314E+03
 -9.15639E+03 -1.55945E+04  4.73370E+02 -1.32605E+04  3.54187E+03 -5.76522E+03  5.02508E+03 -5.85539E+03
  1.59234E+03 -3.81619E+03  4.45725E+03 -3.23196E+03  5.90140E+03 -2.73840E+03  7.04687E+03 -8.35867E+02
  9.91230E+03  2.94306E+03  4.70324E+03  7.89856E+03 -1.72469E+02  1.07694E+04 -1.00499E+04  7.39348E+03
 -1.26566E+04 -1.39421E+03 -7.10814E+03 -8.86362E+03 -2.04743E+03 -1.29496E+04  8.46046E+03 -1.43380E+04
  1.45880E+04 -9.11883E+03  1.75906E+04  3.26439E+03  1.24255E+04  1.28633E+04  1.85994E+03  1.46129E+04
 -7.30411E+03  1.17293E+04 -9.56104E+03  4.68920E+03 -5.75318E+03 -1.15238E+03 -2.47955E+03 -1.30679E+03
 -1.44039E+02  6.27204E+02 -3.38613E+03  2.16634E+03 -5.51901E+03  1.09498E+03 -6.37883E+03 -3.23932E+02
 -6.80451E+03 -8.11447E+03  1.37468E+02 -1.20527E+04  7.83698E+03 -1.06941E+04  1.32429E+04 -4.77496E+03
  1.25485E+04  5.73678E+03  4.87455E+03  1.09733E+04 -2.08512E+03  1.23085E+04 -8.44930E+03  7.48271E+03
 -1.25175E+04  2.03216E+03 -9.35197E+03 -8.57004E+03 -2.57554E+02 -1.07790E+04  6.01382E+03 -7.42343E+03
  7.66493E+03  5.16586E+02  3.55295E+03  1.82544E+03  9.32515E+02  4.78381E+03  6.38094E+02  1.64079E+03
  2.44070E+03  6.41698E+01  3.10679E+03  1.36837E+03  4.51929E+03  6.26140E+03  3.67599E+03  6.70353E+03
 -3.09504E+03  1.00133E+04 -8.30051E+03  1.02298E+04 -1.40882E+04  2.46358E+03 -1.36179E+04 -5.73706E+03
 -7.01523E+03 -1.18884E+04  1.82371E+03 -1.48880E+04  7.16578E+03 -8.74772E+03  1.10992E+04 -1.94328E+03
  8.30659E+03  4.89641E+03  5.66089E+02  6.67569E+03 -4.12877E+03  5.15001E+03 -5.63138E+03 -9.15978E+02
 -2.58043E+03 -5.49410E+03  4.77929E+03 -5.93540E+03  4.77147E+03 -3.71223E+03  6.27029E+03  2.11808E+03
  2.45236E+03  3.62635E+03  1.05960E+03  2.08390E+03  6.83757E+02  1.89042E+03  9.19689E+02 -5.17492E+02
  3.09737E+03 -2.68083E+02  6.06993E+03  2.87790E+03  3.10512E+03  6.17212E+03  3.10958E+02  8.80933E+03
 -5.81401E+03  7.60792E+03 -7.71516E+03  9.08385E+02 -6.56913E+03 -2.25713E+03 -2.52965E+03 -6.18051E+03
  4.34036E+02 -4.85938E+03  3.65064E+03 -1.91556E+03  3.30877E+03  3.31230E+03 -7.31599E+02  4.37869E+03
 -5.82641E+03  1.68162E+03 -5.87427E+03 -3.36022E+03 -2.35721E+03 -7.40771E+03  2.32755E+03 -7.32645E+03
  5.07848E+03 -5.43017E+03  4.74011E+03 -2.27021E+02  5.57911E+03  1.95440E+03 -1.09587E+03  3.12949E+03
 -3.17729E+03 -1.36610E+02 -3.18413E+03 -1.52193E+03  1.13078E+03 -5.59890E+03  5.24926E+03 -4.09460E+03
  8.99559E+03  5.45397E+02  6.84783E+03  7.19813E+03  2.66196E+03  8.36447E+03 -3.02805E+03  8.25136E+03
 -6.39283E+03  2.79187E+03 -6.69444E+03 -1.54802E+03 -3.59009E+03 -4.98646E+03  1.39084E+03 -5.32139E+03
  4.43933E+03 -2.29277E+03  5.00237E+03  2.52937E+03  1.79135E+02  6.01323E+03 -1.44703E+03  4.68622E+03
 -3.43302E+03  9.24694E+02 -2.98318E+03  7.44928E+02 -1.72631E+02  1.33069E+03 -1.96783E+03  7.23624E+02
 -1.76071E+03  3.61275E+03 -6.19743E+03  1.99450E+03 -8.21619E+03  2.03541E+02 -7.89421E+03 -4.70634E+03
 -3.84603E+03 -1.11895E+04  1.37464E+03 -1.10899E+04  7.84751E+03 -1.04971E+04  1.08191E+04 -4.02155E+03
  1.14886E+04  2.71825E+03  6.16182E+03  6.90756E+03  1.60587E+03  8.94463E+03 -2.79264E+03  5.15667E+03
 -4.10119E+03  1.73546E+03 -2.85148E+03  6.52070E+01 -1.37231E+03 -4.54015E+02 -5.41593E+02  1.28209E+03
 -3.89295E+02  4.35103E+02 -1.97938E+03 -4.78847E+02  4.54507E+02 -2.69215E+03  2.42925E+02 -3.61734E+03
  3.13195E+03 -3.70212E+03  5.27847E+03  3.26282E+02  5.37492E+03  5.87069E+03  1.80132E+03  8.27046E+03
 -3.52004E+03  1.05667E+04 -9.19740E+03  6.86545E+03 -9.44781E+03 -4.77681E+02 -6.67940E+03 -6.53541E+03
 -3.78801E+03 -8.71054E+03  1.80340E+03 -8.27139E+03  4.78406E+03 -5.22663E+03  5.95494E+03  1.16455E+03
  3.76830E+03  2.47344E+03 -6.99895E+02  1.55183E+03 -1.96103E+03  3.55078E+02  3.59780E+00 -2.76202E+03
  3.22902E+03 -2.36116E+03  3.46758E+03  8.99462E+02  1.87283E+03  4.51602E+03 -1.89885E+02  2.51023E+03
 -3.85718E+03  4.13173E+03 -5.90759E+03 -1.15480E+02 -4.07234E+03 -4.09678E+03  9.02475E+02 -6.86860E+03
  3.00336E+03 -5.47283E+03  5.70126E+03 -1.00546E+03  6.91431E+03  1.48528E+03  3.85308E+03  5.21191E+03
 -1.63074E+02  5.98603E+03 -3.94369E+03  4.08235E+03 -1.62013E+03  1.87765E+03 -1.18259E+03  7.14493E+02
 -1.63703E+03 -4.17333E+02 -1.58816E+03  1.46726E+03 -1.24520E+03  3.93655E+02 -3.90978E+03 -4.02977E+02
 -5.03080E+03 -3.42408E+03 -7.58593E+02 -5.75908E+03  1.81770E+03 -5.47542E+03  4.58411E+03 -3.05715E+03
  6.49029E+03  1.62114E+03  4.09596E+03  3.31266E+03 -2.78562E+02  6.27473E+03 -3.79151E+03  1.70127E+03
