 $NMID ID='MM_0lb_SNR200_20hz_g40_59.RAW', FMTDAT='(8E13.5)'
 TRAMP=1., VOLUME=1. $END
  3.10463E+05 -9.65779E+01  3.37327E+05  2.50617E+05  8.43753E+04  3.37342E+05 -1.31731E+05  2.48791E+05
 -1.90219E+05  8.18259E+04 -1.10264E+05 -3.22525E+04  1.22954E+03 -4.99224E+04  5.40858E+04  1.40017E+03
  3.43910E+04  5.24890E+04 -1.64814E+04  7.47294E+04 -5.96630E+04  6.22519E+04 -8.23617E+04  3.07836E+04
 -7.97862E+04 -1.17239E+04 -5.59868E+04 -4.90098E+04 -1.44244E+04 -6.75781E+04  2.59597E+04 -4.39570E+04
  3.83181E+04  4.15227E+03  1.62415E+04  4.73309E+04 -3.37498E+04  4.48905E+04 -6.46542E+04 -3.19158E+01
 -5.08210E+04 -5.48730E+04 -5.61291E+03 -7.42994E+04  3.30380E+04 -5.19204E+04  4.60324E+04 -1.65902E+04
  3.99110E+04  1.24249E+04  2.95436E+04  2.34863E+04  1.56296E+04  2.75782E+04 -4.42842E+03  2.63175E+04
 -2.11639E+04  1.23076E+04 -1.97984E+04 -3.71963E+03  4.22886E+03 -7.44829E+03  2.06560E+04  9.30437E+03
  7.36880E+03  3.26434E+04 -2.95063E+04  3.32122E+04 -6.02820E+04  1.45335E+03 -5.42907E+04 -3.99122E+04
 -1.19686E+04 -5.83110E+04  3.70018E+04 -4.32849E+04  5.58568E+04 -1.52232E+03  2.99211E+04  2.94732E+04
 -5.99956E+03  3.13453E+04 -2.75632E+04  1.11189E+04 -2.66420E+04 -6.10007E+03 -1.31764E+04 -8.41658E+03
 -6.96199E+03 -1.10828E+04 -1.48355E+03 -1.57852E+04  5.57310E+03 -2.24844E+04  1.35133E+04 -1.31891E+04
  1.22839E+04  3.92806E+03 -4.96825E+03  1.39737E+04 -1.82880E+04 -7.64951E+02 -8.07570E+03 -2.82713E+04
  2.10450E+04 -3.96303E+04  4.32202E+04 -1.83291E+04  4.03409E+04  1.82491E+04  1.39313E+04  4.10728E+04
 -1.48010E+04  3.01494E+04 -2.24236E+04  1.52938E+03 -7.47636E+03 -2.53880E+04  2.10873E+04 -3.03732E+04
  3.58709E+04 -6.39391E+03  2.88542E+04  2.30239E+04  1.37908E+04  4.10494E+04 -8.72626E+03  4.30367E+04
 -2.67546E+04  2.69260E+04 -3.43640E+04  9.45557E+03 -3.64300E+04 -1.56376E+04 -1.98488E+04 -3.18209E+04
  6.28623E+03 -3.21363E+04  2.75866E+04 -1.03386E+04  2.58414E+04  1.17272E+04  2.12821E+03  1.62371E+04
 -1.27992E+04  6.25951E+03 -7.75771E+03 -7.28414E+03  5.11777E+03 -9.71331E+03  1.72439E+04  6.44102E+03
  1.21908E+04  2.18747E+04 -7.14326E+03  2.33154E+04 -2.15578E+04  8.16421E+03 -2.39810E+04 -6.86759E+03
 -1.49862E+04 -1.62775E+04 -4.58215E+03 -1.53600E+04  3.30907E+03 -1.27418E+04  1.10367E+04 -1.27847E+04
  1.83503E+04 -1.10080E+04  2.44803E+04  1.68617E+03  2.03632E+04  1.50824E+04  4.61497E+03  3.07180E+04
 -1.49517E+04  2.68178E+04 -2.61930E+04  8.19260E+03 -1.92697E+04 -1.02142E+04 -4.31093E+03 -1.33812E+04
  3.15221E+03 -3.50675E+03 -1.26881E+03  4.39093E+03 -1.12354E+04  4.94393E+03 -1.21089E+04 -3.72632E+03
 -8.97844E+03 -1.33668E+04  3.32082E+03 -1.81924E+04  1.13506E+04 -1.36785E+04  1.32209E+04 -2.72950E+03
  8.49857E+03  1.00458E+04 -4.71328E+02  1.40695E+04 -9.92196E+03  8.35143E+03 -1.37863E+04 -1.66345E+03
 -9.98859E+03 -1.32816E+04 -3.55949E+02 -1.73301E+04  8.12454E+03 -1.43065E+04  1.42956E+04 -5.50811E+03
  1.34072E+04  1.55093E+03  1.02356E+04  3.98548E+03  5.11150E+03  9.42334E+02  6.43304E+03 -1.37641E+03
  1.03443E+04  2.63833E+03  1.22948E+04  1.15598E+04  6.99802E+03  2.31903E+04 -2.80881E+03  2.38247E+04
 -1.34137E+04  1.77764E+04 -2.12411E+04  8.05082E+03 -2.25697E+04 -2.82588E+03 -1.84459E+04 -1.08985E+04
 -9.44647E+03 -1.73376E+04  5.11721E+03 -1.63825E+04  1.52329E+04 -9.44629E+03  1.45172E+04  2.54070E+03
  5.98434E+03  1.02590E+04 -6.74225E+03  8.94978E+03 -1.23150E+04  3.32311E+03 -8.83454E+03 -6.22917E+03
 -2.38863E+02 -1.21435E+04  6.29634E+03 -9.05527E+03  7.37670E+03 -4.21587E+02  8.56921E+02  4.28623E+03
 -5.07397E+03  5.34879E+02 -2.13989E+03 -4.63026E+03  1.30019E+03 -7.78736E+03  7.40220E+03 -8.15392E+03
  1.09305E+04 -3.53737E+03  9.75255E+03  2.47797E+03  8.23238E+03  8.56592E+03  4.76513E+03  1.23270E+04
 -1.28969E+02  1.40865E+04 -8.25528E+03  9.15063E+03 -9.15469E+03  3.45419E+03 -7.82029E+03 -1.10076E+03
 -4.17632E+03 -2.09051E+03 -1.31021E+03  2.28486E+03 -1.94440E+03  2.50236E+03 -2.20193E+03  3.16195E+03
 -6.15331E+03  6.73168E+02 -7.72301E+03 -6.35756E+03 -3.97610E+03 -1.10505E+04  2.67811E+03 -7.59998E+03
  6.44879E+03 -3.22952E+03  4.41228E+03  2.11461E+03  1.53065E+02  3.11264E+03 -2.59867E+03  4.22298E+02
 -1.79957E+03 -4.96300E+03  1.58200E+02 -5.34848E+03  3.34177E+03 -7.85103E+03  8.38815E+03 -3.63745E+03
  9.89997E+03  1.57718E+03  7.46876E+03  5.15416E+03  9.29657E+02  6.86927E+03 -4.65098E+03  7.10925E+03
 -6.67942E+03  3.23485E+03 -3.10848E+03 -1.10040E+03  1.50973E+03 -1.94962E+03  4.08987E+03 -6.18865E+02
  4.09083E+03  2.84684E+03  1.23871E+03  5.26129E+03 -3.97106E+03  6.00816E+03 -7.00271E+03  1.50098E+03
 -2.76598E+03 -3.75700E+03 -1.03721E+03 -5.76567E+03  3.40654E+03 -4.40188E+03  3.33966E+03  9.10076E+02
  8.07915E+02  1.76289E+03 -3.61731E+03  3.51383E+03 -4.51748E+03  1.82274E+03 -3.97074E+03 -9.25983E+02
 -2.69784E+03 -4.86945E+03  8.17511E+02 -4.87538E+03  5.58166E+03 -3.56470E+03  4.29439E+03  5.62286E+02
  3.49464E+03  3.93955E+03  3.47558E+02  5.60879E+03 -3.54762E+03  2.98190E+03 -4.21915E+03 -9.03970E+02
 -5.09673E+03 -4.47152E+03 -7.47231E+02 -4.90963E+03  3.12769E+03 -4.11552E+03  1.59100E+03 -2.47848E+03
  1.48891E+03  1.64749E+02 -6.47691E+01  1.26191E+03  8.13308E+02  1.14308E+03  1.00036E+01 -1.21479E+03
  3.09283E+03 -3.33237E+02  3.67054E+03  5.25527E+02  4.22870E+03  1.60639E+03  4.67809E+03  5.79269E+03
 -9.75043E+02  6.39001E+03 -5.72622E+03  4.57513E+03 -7.64839E+03  1.26034E+03 -6.29663E+03 -3.15141E+03
 -3.85677E+03 -6.24370E+03 -1.09568E+03 -3.86808E+03  2.19696E+03 -1.77325E+03  5.51036E+02 -2.34978E+03
  1.13776E+03 -1.37472E+03  1.57963E+03 -1.87329E+03  3.57685E+03 -3.97191E+02  2.75463E+03  4.01039E+02
  4.13669E+03  1.92465E+02  6.80315E+02  2.40002E+03 -9.86074E+02  7.59558E+02 -4.17796E+03  1.57157E+03
 -3.75107E+03 -1.16029E+03 -8.65263E+02 -3.84028E+03  1.00541E+03 -4.33036E+03  2.40136E+03 -4.44197E+03
  3.94914E+03 -2.94277E+03  5.09871E+03  8.02008E+02  3.64666E+03  2.80723E+03  8.08568E+02  4.79214E+03
 -1.66257E+03  4.70176E+03 -1.56439E+03  1.17528E+03 -3.57536E+02  2.38309E+02  3.43883E+02 -6.04507E+02
  5.58309E+02  1.05801E+03 -5.58642E+02  1.62211E+03 -1.59280E+03  1.02386E+03 -4.40992E+03  2.91362E+02
 -8.28262E+02 -3.98210E+03  2.19216E+02 -3.57956E+03  3.07912E+03 -2.97776E+03  1.61636E+03 -9.60987E+02
  2.58621E+03  2.19338E+03  1.89560E+03  1.48955E+03 -4.11531E+02  4.17715E+03 -1.61533E+03  2.74441E+03
 -3.14228E+03 -3.23969E+02 -2.40632E+03 -2.19141E+03  1.14677E+03 -2.59555E+03  1.09528E+03 -1.39845E+03
  1.42499E+03 -1.69526E+03  7.59471E+02 -2.76113E+01  3.98575E+02  1.70386E+03  1.32787E+03  9.87165E+02
  2.16773E+03  1.49372E+03  1.92998E+03  9.60631E+02  7.63763E+02  2.24806E+03  1.48654E+03  9.86343E+02
 -1.62003E+03  2.06450E+03 -3.07342E+03  3.57451E+03 -2.43409E+03  1.12834E+03 -3.53033E+03 -3.93223E+02
 -1.59983E+03 -2.75416E+03  4.83061E+02 -3.58742E+03  1.58360E+03 -2.97115E+03  2.32235E+03 -9.25534E+02
  1.84877E+03  7.46220E+02  1.25813E+03  1.62600E+03  1.65812E+02  1.13117E+03 -2.18004E+02  2.92906E+02
 -6.25771E+00 -1.56781E+03  1.26211E+03 -7.15811E+02  4.59402E+02 -3.90158E+02  7.78338E+02  5.25396E+02
  1.25012E+02 -5.49129E+02  1.26688E+03 -3.88593E+02 -2.77380E+02  3.22416E+02  1.41742E+03  5.17056E+02
  1.66488E+03 -2.85734E+02  5.95921E+02  3.80771E+02 -1.19179E+03  2.02200E+03 -3.46100E+02  2.15742E+03
 -1.37312E+03  8.98630E+02 -1.44132E+03 -1.82283E+02 -1.90002E+03 -1.41754E+03  5.59994E+02 -9.52569E+02
  7.50657E+02 -9.82043E+02  6.89762E+02 -6.55706E+02  3.21036E+02  1.49585E+03 -2.60718E+02  1.02015E+03
 -2.11443E+03  5.76935E+02 -7.71922E+02 -5.45149E+02  1.60942E+02 -1.79169E+03 -3.51580E+02 -1.16461E+03
  1.21862E+02 -5.31225E+02  9.45821E+02  6.87700E+02  1.57037E+03 -1.98989E+02  9.32869E+01  6.99380E+02
  3.18980E+02  3.62459E+01 -6.79479E+02  1.44588E+02  9.15573E+02 -7.47233E+02  6.28246E+02 -6.67097E+02
  9.01932E+00 -6.33577E+02  2.09287E+03  3.16466E+02  1.29111E+03  1.41675E+03  9.13214E+01  2.41477E+03
 -1.99804E+03 -2.55035E+02 -1.21962E+03  2.66405E+02 -5.66474E+02 -9.47184E+02 -1.32147E+02  9.69452E+00
  1.95269E+03 -5.54385E+02  8.79635E+02  6.13724E+01 -5.86366E+02 -4.26706E+02 -3.25794E+02  1.14000E+03
  3.78619E+02  1.15367E+03 -1.19964E+03  3.09581E+02  1.08468E+03  1.66739E+02 -5.81040E+02  1.54926E+02
 -1.06085E+03  1.30473E+03 -1.42264E+03  3.73774E+02 -1.20483E+03 -2.37125E+01 -2.62559E+03  2.37647E+02
  1.41004E+02 -2.11830E+03 -1.40136E+02 -1.41201E+03  9.59300E+02 -1.57663E+03  2.37588E+03 -4.79341E+02
  1.64669E+03  5.25983E+02  1.42477E+03  7.10573E+02  6.40831E+01  3.98393E+02 -6.88619E+02  7.45868E+02
 -1.65310E+03  1.00274E+03 -1.01636E+02  3.84423E+02 -1.48759E+03  8.50467E+02  4.58335E+01  9.28234E+01
  2.55850E+02 -2.62538E+02 -9.44236E+02  2.99167E+01  9.44533E+02 -4.53667E+02  2.48089E+02 -1.23339E+03
  8.70692E+02 -2.13402E+02  1.82103E+02 -1.47694E+01  1.02210E+03  1.42831E+03 -5.70648E+02  1.85939E+03
 -1.21631E+03  1.01201E+03 -1.88250E+03  3.86106E+02 -8.03365E+02 -8.00309E+02 -4.78920E+02 -1.21070E+03
 -8.12672E+02 -4.82087E+02 -1.96146E+02 -9.82079E+02  2.04768E+02  6.36024E+01 -1.05860E+03 -7.32470E+02
  1.59071E+03  9.27826E+01  1.25016E+02  1.04487E+03 -8.31137E+01 -3.25417E+02 -2.30293E+02 -9.38377E+02
  4.80838E+02  1.70616E+02  2.94239E+02  1.61022E+02  1.14684E+01 -6.04814E+01 -1.66452E+02 -2.47574E+01
 -8.36312E+02  3.09580E+02 -3.81237E+02  2.84246E+02 -2.25419E+02 -1.02204E+03 -1.52962E+01 -7.33484E+02
  1.15350E+03 -5.82194E+02  1.21628E+01 -3.40318E+02  9.51297E+02 -6.72893E+02 -4.60131E+02  1.43831E+03
 -5.77733E+02  1.23576E+03 -2.38389E+02  4.56174E+02 -2.61737E+02  2.19702E+02 -8.53417E+02  3.35787E+02
 -5.08617E+02 -8.53126E+02 -1.42152E+03  2.73531E+02 -4.89372E+01  8.98750E+02 -1.03004E+03 -1.35958E+03
 -1.18246E+03  2.76351E+02  4.15603E+02 -9.76603E+02  4.27503E+02 -1.50249E+03  9.22037E+02 -5.05412E+02
  2.70445E+02 -6.55682E+02 -3.11396E+02  2.60533E+02  1.09578E+02  7.45337E+02 -1.91469E+01  1.21019E+03
