 $NMID ID='MM_0lb_SNR200_19hz_g40_56.RAW', FMTDAT='(8E13.5)'
 TRAMP=1., VOLUME=1. $END
  3.10462E+05  4.98424E+02  3.37756E+05  2.50866E+05  8.52171E+04  3.37385E+05 -1.32655E+05  2.50583E+05
 -1.90228E+05  8.20515E+04 -1.10334E+05 -3.29335E+04  1.95021E+03 -5.07209E+04  5.33825E+04  1.54011E+03
  3.43006E+04  5.35193E+04 -1.67213E+04  7.47879E+04 -5.99733E+04  6.25438E+04 -8.30292E+04  3.15804E+04
 -7.91222E+04 -1.05005E+04 -5.53735E+04 -4.89063E+04 -1.55145E+04 -6.75590E+04  2.67795E+04 -4.44044E+04
  3.95513E+04  3.96592E+03  1.61260E+04  4.66075E+04 -3.32683E+04  4.61269E+04 -6.40864E+04 -9.37757E+02
 -5.08921E+04 -5.43218E+04 -6.39248E+03 -7.42201E+04  3.23244E+04 -5.22697E+04  4.52393E+04 -1.70699E+04
  4.08150E+04  1.08087E+04  3.03153E+04  2.37240E+04  1.49419E+04  2.67430E+04 -3.92740E+03  2.71485E+04
 -2.12918E+04  1.28552E+04 -1.93226E+04 -4.97084E+03  4.76520E+03 -8.21142E+03  2.05502E+04  1.01243E+04
  7.76383E+03  3.24651E+04 -3.02196E+04  3.31320E+04 -5.94349E+04  1.45200E+03 -5.47306E+04 -4.09948E+04
 -1.16139E+04 -6.05773E+04  3.74385E+04 -4.28457E+04  5.38586E+04 -2.87486E+03  3.11401E+04  2.87650E+04
 -6.44709E+03  3.15220E+04 -2.77525E+04  1.29783E+04 -2.62951E+04 -4.87080E+03 -1.45322E+04 -8.98608E+03
 -6.66748E+03 -1.15545E+04 -1.10463E+03 -1.61428E+04  5.43193E+03 -2.34943E+04  1.50202E+04 -1.42087E+04
  1.25531E+04  3.41823E+03 -4.82292E+03  1.38612E+04 -1.87088E+04 -2.11915E+03 -7.76013E+03 -2.93264E+04
  2.03835E+04 -3.94190E+04  4.34322E+04 -1.84028E+04  4.13155E+04  1.82851E+04  1.44597E+04  4.09358E+04
 -1.62526E+04  2.98426E+04 -2.35352E+04  1.24422E+03 -8.27409E+03 -2.57706E+04  2.01346E+04 -3.16290E+04
  3.71149E+04 -7.05997E+03  2.95624E+04  2.26345E+04  1.49927E+04  4.20816E+04 -7.24176E+03  4.41320E+04
 -2.77998E+04  2.92143E+04 -3.64693E+04  8.89016E+03 -3.67389E+04 -1.39089E+04 -2.18541E+04 -3.29867E+04
  6.45775E+03 -3.28717E+04  2.87883E+04 -1.26748E+04  2.55564E+04  1.06527E+04  4.44107E+03  1.73731E+04
 -1.31228E+04  7.65287E+03 -8.98399E+03 -6.77386E+03  5.54687E+03 -1.04096E+04  1.68929E+04  6.11007E+03
  1.13808E+04  2.13191E+04 -6.09679E+03  2.27175E+04 -2.10259E+04  8.20002E+03 -2.35490E+04 -7.70940E+03
 -1.58612E+04 -1.65795E+04 -4.87338E+03 -1.58044E+04  4.20482E+03 -1.32386E+04  1.12365E+04 -1.29629E+04
  2.04166E+04 -1.15432E+04  2.72666E+04  9.20199E+02  2.05278E+04  1.49033E+04  4.25850E+03  3.14002E+04
 -1.65307E+04  2.62804E+04 -2.59043E+04  8.50862E+03 -1.88545E+04 -9.27682E+03 -4.72482E+03 -1.35819E+04
  2.35203E+03 -3.86898E+03 -1.56214E+03  5.40483E+03 -1.22709E+04  4.99503E+03 -1.27121E+04 -3.90147E+03
 -9.27990E+03 -1.50667E+04  3.30670E+03 -1.84571E+04  1.12798E+04 -1.40418E+04  1.22426E+04 -8.80668E+02
  7.90734E+03  1.01453E+04 -1.45257E+03  1.54638E+04 -9.78453E+03  7.74913E+03 -1.43200E+04 -3.47891E+03
 -1.01161E+04 -1.32252E+04 -1.48666E+03 -1.84041E+04  8.64054E+03 -1.47972E+04  1.50292E+04 -7.40430E+03
  1.39639E+04  5.02806E+02  1.02357E+04  3.45674E+03  4.41679E+03 -1.14439E+01  7.58742E+03 -9.30529E+02
  1.32069E+04  2.73985E+03  1.35559E+04  1.25372E+04  8.65446E+03  2.28816E+04 -2.60468E+03  2.40069E+04
 -1.37088E+04  1.94305E+04 -2.31773E+04  8.92312E+03 -2.36518E+04 -2.81402E+03 -1.92397E+04 -1.30651E+04
 -1.02238E+04 -1.93752E+04  5.95018E+03 -1.83885E+04  1.63603E+04 -1.05010E+04  1.38733E+04  2.36060E+03
  5.82244E+03  1.01193E+04 -6.56135E+03  1.01898E+04 -1.30112E+04  3.07924E+03 -1.09936E+04 -8.08157E+03
  4.51485E+02 -1.22355E+04  5.29860E+03 -9.16659E+03  7.72904E+03 -1.41078E+03  1.66138E+03  3.78904E+03
 -5.13488E+03  1.26225E+03 -3.01433E+03 -3.32142E+03  9.81475E+02 -9.42552E+03  7.59121E+03 -8.57357E+03
  1.25194E+04 -2.75342E+03  1.13358E+04  2.79578E+03  9.36282E+03  9.35743E+03  4.75762E+03  1.26770E+04
 -1.59144E+03  1.43863E+04 -9.04285E+03  9.76692E+03 -1.03591E+04  2.61409E+03 -8.28715E+03 -1.89648E+03
 -4.82794E+03 -3.83522E+03 -3.16030E+02  2.21468E+03 -2.40999E+03  1.59678E+03 -4.34460E+03  2.79842E+03
 -6.90999E+03  5.98497E+01 -7.70141E+03 -6.92754E+03 -2.94475E+03 -1.08324E+04  4.22466E+03 -8.44826E+03
  5.48289E+03 -3.64913E+03  4.50169E+03  1.68160E+03  1.88653E+02  2.87581E+03 -4.15148E+03 -6.54758E+02
 -2.40403E+03 -4.07106E+03 -3.41007E+02 -7.56743E+03  3.49845E+03 -7.11533E+03  8.26588E+03 -4.90926E+03
  1.09537E+04 -3.31351E+02  8.19644E+03  6.48675E+03  1.90103E+03  8.56224E+03 -5.01344E+03  8.95571E+03
 -6.14905E+03  3.14210E+03 -3.98140E+03 -1.05051E+03  1.17939E+03 -2.78336E+03  4.90354E+03 -1.26944E+03
  4.84793E+03  2.99604E+03  1.74588E+03  6.32050E+03 -4.13990E+03  6.80981E+03 -7.26655E+03  3.08184E+03
 -4.61047E+03 -3.13586E+03  7.75495E+02 -6.46786E+03  2.92650E+03 -2.44536E+03  2.07665E+03  1.00158E+03
  3.20233E+02  3.76024E+03 -3.73707E+03  3.58347E+03 -5.45617E+03  2.37209E+03 -4.36946E+03 -1.67403E+02
 -4.29530E+03 -4.83242E+03  2.03300E+03 -5.81963E+03  6.00759E+03 -4.14639E+03  5.03655E+03  6.79833E+02
  4.84817E+03  4.02601E+03  3.88452E+02  7.44353E+03 -4.39293E+03  3.64769E+03 -5.18927E+03 -1.98086E+02
 -6.60546E+03 -5.73092E+03 -6.98086E+02 -4.36279E+03  2.57925E+03 -4.36230E+03  3.00026E+03 -3.52974E+03
  2.39466E+03 -3.54030E+02 -2.58858E+02  1.86333E+03 -1.78318E+02 -6.76666E+01  1.18767E+03 -1.25559E+03
  2.62483E+03 -1.33389E+02  4.92752E+03 -4.78411E+02  5.71026E+03  2.89980E+03  3.92781E+03  6.08204E+03
 -9.33638E+02  7.95738E+03 -7.69350E+03  6.11411E+03 -8.24608E+03  8.56449E+02 -6.65982E+03 -3.47641E+03
 -4.21307E+03 -6.05615E+03 -5.82571E+02 -4.08545E+03  2.23494E+03 -1.60477E+03  1.14903E+03 -1.72632E+03
  1.54673E+03 -1.73413E+03  2.06565E+03 -3.11299E+03  4.18558E+03 -1.91099E+03  4.24425E+03  4.89387E+02
  3.74470E+03  1.30911E+03  1.73833E+02  3.16389E+03 -6.42902E+02  2.13925E+03 -3.91786E+03  1.57701E+03
 -4.31751E+03 -8.87052E+02 -1.66957E+03 -3.50845E+03  1.16387E+03 -3.57417E+03  2.32123E+03 -6.06776E+03
  3.91185E+03 -3.37848E+03  6.11653E+03 -1.06825E+03  3.79828E+03  4.18106E+03  9.24898E+02  5.51262E+03
 -9.86859E+02  5.64644E+03 -3.42684E+03  2.60281E+03 -8.57718E+02 -1.47052E+03 -7.28547E+02 -1.40079E+02
 -6.79087E+02  1.12374E+02 -3.24984E+02  9.22874E+02 -2.23854E+03  1.26208E+03 -4.35542E+03 -1.82215E+02
 -1.29665E+03 -3.52923E+03  1.59141E+02 -3.37035E+03  2.16278E+03 -3.19446E+03  2.08772E+03 -1.10322E+03
  3.96045E+03  2.51612E+03  2.36132E+03  4.08671E+03  1.69408E+02  4.76209E+03 -3.25177E+03  1.23727E+03
 -3.35165E+03 -1.77713E+02 -2.83412E+03 -2.35848E+03  9.08741E+01 -3.54007E+03  1.58843E+03 -2.09348E+03
  3.54815E+03 -9.32885E+02  1.99837E+03  6.16552E+02  3.42199E+02  1.21433E+03  8.76033E+01 -8.23601E+02
  1.56334E+03  1.45357E+03  9.89271E+02  1.37450E+03  7.25707E+02  2.78525E+03  1.21865E+03  1.74025E+03
 -1.62167E+03  2.84804E+03 -3.06134E+03  3.66212E+03 -3.10460E+03  2.08396E+03 -3.28881E+03 -4.28130E+02
 -1.54042E+03 -3.83463E+03  4.50616E+02 -3.92159E+03 -2.71901E+02 -1.97916E+03  3.35626E+03 -6.85547E+02
  2.46409E+03  1.68182E+03 -7.82923E+00  1.71158E+03 -1.34714E+02  6.53005E+02 -4.10336E+02  2.56046E+02
 -3.12745E+02 -1.10129E+03  2.08750E+03 -1.47483E+03  4.08449E+02 -1.05702E+03  7.52298E+01  8.00694E+02
  2.20048E+02 -1.45312E+02  1.41541E+03  4.28734E+02 -8.89869E+02  8.17557E+02  1.15330E+03 -2.19430E+02
 -3.73296E+02  1.43267E+02  3.14882E+03 -2.86468E+01 -1.06806E+03  2.16293E+03 -3.18724E+02  2.55618E+03
 -9.01064E+02  1.32431E+03 -8.79048E+02 -2.44943E+02 -3.20016E+03 -1.16787E+03 -7.21223E+02  6.77446E+02
 -1.89297E+02 -2.70623E+02  6.90689E+02  5.60387E+01 -7.58131E+01  5.25919E+02 -6.44685E+02  8.35875E+02
 -1.23811E+03  2.45571E+02 -7.37198E+02 -1.21403E+03  1.27546E+03 -2.05756E+03 -2.10966E+01 -8.57265E+02
 -1.02155E+03  1.48938E+02  6.79224E+02 -2.74805E+02  1.74672E+03 -8.75355E+02  1.08751E+03  1.62699E+02
 -6.11520E+02 -2.31818E+02 -1.02666E+03  2.79923E+02  2.56012E+02 -6.81045E+02  3.12656E+01 -1.41902E+03
  2.05800E+03  5.50768E+02  3.37509E+03 -2.12727E+01  5.84791E+02  1.30983E+03 -7.76235E+02  2.45338E+03
 -7.28490E+02  1.96760E+02 -1.92071E+03 -3.23069E+02 -1.74541E+03 -1.50782E+03  9.93534E+01 -5.73471E+02
  9.76687E+02 -7.15445E+02  9.19616E+02  6.71207E+02 -1.93127E+02  1.16135E+03 -1.68926E+02  1.16997E+03
 -1.05575E+02  1.38711E+03 -2.75290E+02 -6.52916E+02  6.14094E+02  1.16979E+03 -1.89437E+02  7.61928E+02
  1.22658E+02  1.52742E+03 -1.22692E+03  9.69156E+02 -1.43178E+03 -7.19446E+02 -1.47292E+03 -1.69824E+03
 -3.29388E+02 -2.31223E+03  4.78669E+02 -2.12446E+03  7.40254E+01 -1.36532E+03  2.77909E+03 -7.71476E+02
  2.40898E+03 -8.62348E+02  4.67509E+02  1.01631E+03 -1.20918E+03  7.07282E+02 -9.80064E+02  1.48125E+03
 -1.47571E+03  1.11922E+03 -4.91704E+02 -3.74485E+02  4.17445E+02  1.01709E+03 -1.81180E+03 -5.02923E+02
 -2.19291E+03 -2.92833E+02 -3.52428E+02  2.34418E+02 -4.62323E+02 -5.24101E+02 -2.78350E+02 -1.10524E+03
  1.55239E+03 -2.62591E+01  5.22255E+02 -5.92703E+02  1.29674E+03  1.07385E+03 -3.10075E+02  9.71574E+02
 -1.05376E+03  2.21937E+03 -1.38501E+03  4.41056E+02 -1.22360E+03  3.65120E+02 -8.78032E+02 -1.62114E+02
 -1.22065E+03 -1.27476E+03 -7.26399E+02 -8.15366E+02 -2.79619E+02 -4.79467E+02  4.05401E+02  1.10671E+03
  3.03151E+02  7.83762E+02 -8.03148E+01  1.92531E+01 -9.56085E+00 -1.24800E+02  5.51573E+02 -1.34941E+02
  1.10755E+03 -6.00225E+02  3.59569E+02  2.11381E+02 -2.50427E+01  4.17812E+02  7.90218E+02  1.19665E+03
 -8.75249E+02  3.37440E+02 -2.02253E+02  1.25190E+03 -1.40350E+03 -8.15814E+02  4.78395E+01 -1.68739E+03
  6.80795E+02  1.50183E+02  1.20799E+03  3.94548E+02  1.21286E+03 -4.91055E+02  1.26977E+03 -6.22022E+02
  9.48044E+02  1.09266E+03  4.92252E+02  1.30700E+03 -6.92111E+02  2.31782E+02 -4.54406E+02 -3.38346E+02
  9.94682E+01 -2.77115E+02 -9.81442E+02  8.76186E+02 -9.66464E+02  3.62892E+02 -8.55326E+02  7.14767E+02
 -1.30874E+03  1.00595E+03 -6.69625E+02 -9.29367E+02  5.13311E+02 -1.81795E+03  1.17847E+03 -8.04020E+02
  1.29359E+03  3.82417E+02 -8.52753E+02  4.61109E+02  4.06494E+01  9.46587E+02  3.83542E+02  5.76152E+02
