 $NMID ID='MM_0lb_SNR200_9hz_g60_42.RAW', FMTDAT='(8E13.5)'
 TRAMP=1., VOLUME=1. $END
  3.10375E+05 -1.11826E+02  3.39154E+05  2.49825E+05  8.43351E+04  3.40031E+05 -1.31427E+05  2.51518E+05
 -1.91192E+05  8.39920E+04 -1.12270E+05 -3.20523E+04  1.68630E+02 -5.07171E+04  5.49455E+04 -1.27325E+03
  3.68177E+04  5.31849E+04 -1.75587E+04  7.61382E+04 -6.25129E+04  6.50154E+04 -8.65827E+04  3.15104E+04
 -8.31617E+04 -1.27201E+04 -5.64131E+04 -5.24862E+04 -1.53345E+04 -7.14023E+04  2.91346E+04 -4.56782E+04
  4.03846E+04  3.59632E+03  1.65038E+04  4.88095E+04 -3.55597E+04  4.82084E+04 -6.97896E+04  2.28976E+02
 -5.54904E+04 -5.76882E+04 -6.40328E+03 -7.96572E+04  3.52900E+04 -5.77976E+04  4.99770E+04 -1.81176E+04
  4.54518E+04  1.18950E+04  3.30127E+04  2.68879E+04  1.76705E+04  3.09437E+04 -5.17532E+03  2.86347E+04
 -2.38992E+04  1.25106E+04 -1.87400E+04 -6.60969E+03  6.87935E+03 -8.72719E+03  2.29906E+04  1.53496E+04
  6.54941E+03  3.62716E+04 -3.46643E+04  3.72928E+04 -6.54425E+04  1.19020E+03 -5.96412E+04 -4.44883E+04
 -1.26717E+04 -6.77017E+04  4.21667E+04 -4.87384E+04  6.03886E+04 -1.64961E+03  3.78412E+04  3.38635E+04
 -4.98082E+03  4.09524E+04 -3.14067E+04  2.08177E+04 -3.52584E+04 -1.70448E+03 -2.08072E+04 -1.26927E+04
 -1.16787E+04 -1.55793E+04  1.30185E+02 -2.05631E+04  7.79821E+03 -2.30032E+04  1.62554E+04 -1.28451E+04
  8.55964E+03  6.37917E+03 -1.10642E+04  1.21906E+04 -2.29049E+04 -6.16128E+03 -9.24152E+03 -3.85533E+04
  2.52884E+04 -4.83969E+04  5.22069E+04 -2.05278E+04  4.99430E+04  2.19997E+04  1.75034E+04  4.80652E+04
 -1.67368E+04  3.61751E+04 -2.91960E+04  1.26815E+03 -1.22945E+04 -3.13205E+04  1.96287E+04 -3.74855E+04
  4.47636E+04 -1.09072E+04  4.13061E+04  2.54606E+04  2.17246E+04  5.18341E+04 -8.85177E+03  5.63300E+04
 -3.64839E+04  3.93124E+04 -4.88102E+04  1.09141E+04 -4.74463E+04 -1.78383E+04 -2.73858E+04 -4.38735E+04
  7.69024E+03 -4.43177E+04  3.38153E+04 -1.70067E+04  3.34053E+04  1.15917E+04  5.38541E+03  2.06710E+04
 -1.33878E+04  1.03360E+04 -1.06146E+04 -6.03386E+03  5.10681E+03 -1.10704E+04  1.91481E+04  6.06858E+03
  1.66583E+04  2.19895E+04 -5.68147E+03  2.70439E+04 -2.20191E+04  1.53316E+04 -3.07376E+04 -2.44406E+03
 -2.68930E+04 -1.77858E+04 -1.16821E+04 -2.63546E+04  4.79886E+03 -2.62475E+04  2.16700E+04 -2.50192E+04
  3.36376E+04 -1.39201E+04  3.87687E+04  4.82917E+03  2.85219E+04  2.60391E+04  5.10517E+03  4.28911E+04
 -2.02114E+04  3.45736E+04 -3.13014E+04  1.19435E+04 -2.33165E+04 -9.96890E+03 -4.47943E+03 -1.20517E+04
  5.61658E+02  3.48164E+02 -6.88775E+03  9.05109E+03 -2.03191E+04  3.08166E+03 -2.15276E+04 -1.10172E+04
 -1.23115E+04 -2.30892E+04  5.64925E+03 -2.92698E+04  1.98106E+04 -2.10651E+04  2.25268E+04 -3.23384E+03
  1.48153E+04  1.76473E+04 -8.15259E+02  2.46138E+04 -1.78788E+04  1.54000E+04 -2.36357E+04 -6.43094E+03
 -1.78874E+04 -2.12422E+04 -3.73873E+03 -2.89690E+04  1.29879E+04 -2.46140E+04  2.45185E+04 -1.21364E+04
  2.20276E+04  3.17024E+02  1.70518E+04  4.66025E+03  8.59688E+03  1.08677E+03  1.30097E+04 -1.74193E+03
  2.22201E+04  3.40932E+03  2.62455E+04  1.86075E+04  1.87450E+04  3.91408E+04 -3.51663E+03  4.56604E+04
 -2.65997E+04  4.05359E+04 -4.50115E+04  1.93816E+04 -4.73488E+04 -4.59183E+03 -3.55367E+04 -2.77088E+04
 -1.58453E+04 -3.88575E+04  1.44636E+04 -3.54033E+04  3.12273E+04 -1.64218E+04  2.59807E+04  7.91024E+03
  9.21607E+03  1.97117E+04 -1.25254E+04  1.64328E+04 -1.96202E+04  2.75925E+03 -1.52453E+04 -1.39656E+04
 -1.18307E+03 -1.94499E+04  1.11105E+04 -1.58970E+04  1.29186E+04 -8.75832E+02  2.56749E+03  9.33842E+03
 -8.83244E+03  4.61785E+03 -9.86518E+03 -7.75971E+03 -2.73562E+03 -2.01608E+04  1.17420E+04 -2.04616E+04
  2.33350E+04 -1.23269E+04  2.85735E+04  2.53255E+03  2.51607E+04  1.74707E+04  1.06993E+04  3.20575E+04
 -6.13320E+03  3.31511E+04 -2.12809E+04  2.04120E+04 -2.34487E+04  4.59731E+03 -1.60182E+04 -4.71825E+03
 -6.35728E+03 -8.23314E+03 -1.58793E+03 -1.04137E+03 -1.98408E+03  4.57964E+03 -8.43945E+03  4.76998E+03
 -1.70367E+04 -1.09839E+03 -1.46317E+04 -1.25187E+04 -5.38211E+03 -2.21137E+04  5.89193E+03 -1.65137E+04
  1.27673E+04 -9.12989E+03  1.10203E+04  3.01624E+03 -1.08980E+03  6.47693E+03 -9.12985E+03 -3.78546E+02
 -8.53880E+03 -1.15610E+04 -1.34856E+03 -1.55091E+04  1.04173E+04 -1.71765E+04  2.11796E+04 -9.16957E+03
  2.45369E+04  8.02918E+02  1.77525E+04  1.46007E+04  3.54230E+03  2.12960E+04 -1.17847E+04  1.62396E+04
 -1.31623E+04  4.84599E+03 -6.90478E+03 -3.19701E+03  2.24549E+03 -4.91961E+03  8.57519E+03  1.30566E+03
  7.04680E+03  7.11907E+03  1.14225E+03  1.22162E+04 -9.64679E+03  1.20820E+04 -1.71395E+04  3.50515E+03
 -9.96295E+03 -9.14743E+03  1.65600E+02 -1.32113E+04  9.00548E+03 -8.26062E+03  1.04161E+04  3.18128E+03
  3.38585E+03  1.14107E+04 -7.95879E+03  1.37316E+04 -1.49063E+04  4.85083E+03 -1.53157E+04 -5.17867E+03
 -7.73273E+03 -1.78531E+04  2.66363E+03 -1.98156E+04  1.70992E+04 -1.06124E+04  1.76907E+04  2.18390E+03
  1.06092E+04  1.35692E+04 -4.60261E+02  1.59488E+04 -1.28459E+04  9.28415E+03 -1.26384E+04  2.31916E+02
 -1.04062E+04 -1.10269E+04 -1.91078E+03 -1.28268E+04  5.31898E+03 -9.96774E+03  6.59697E+03 -3.72362E+03
  4.50448E+03  1.01598E+03 -1.85063E+03  2.28514E+03 -1.61677E+03 -5.50026E+03  1.78525E+03 -8.75101E+03
  1.14144E+04 -4.20753E+03  1.77254E+04  4.28596E+02  1.68431E+04  1.20025E+04  1.13871E+04  2.24393E+04
 -5.01543E+03  2.57964E+04 -2.02768E+04  1.96214E+04 -2.74445E+04  3.29537E+03 -2.28977E+04 -9.62902E+03
 -1.13464E+04 -1.91635E+04  7.07200E+02 -1.27774E+04  5.65727E+03 -9.39607E+03  5.68658E+03 -5.72978E+03
  5.15726E+03 -3.76052E+03  2.77739E+03 -3.64107E+03  5.67738E+03 -5.25323E+03  9.34599E+03 -2.10419E+03
  1.09191E+04  2.38553E+03  6.39759E+03  1.00836E+04 -3.39389E+03  1.29631E+04 -1.04052E+04  9.26806E+03
 -1.54241E+04 -1.25037E+03 -1.03739E+04 -9.52102E+03 -1.64810E+03 -1.67403E+04  9.02220E+03 -1.69422E+04
  1.82959E+04 -1.10134E+04  2.06625E+04  3.26859E+03  1.40211E+04  1.48218E+04  2.87697E+03  2.08000E+04
 -7.59694E+03  1.42215E+04 -1.18532E+04  6.12478E+03 -5.95569E+03 -2.05150E+03 -3.27177E+03 -2.78221E+03
 -1.87976E+03  5.88772E+02 -1.63816E+03  3.22809E+03 -7.09311E+03  2.54170E+03 -1.15211E+04 -1.16293E+03
 -8.09852E+03 -1.03458E+04 -1.40590E+03 -1.46284E+04  1.02324E+04 -1.32915E+04  1.51754E+04 -4.78639E+03
  1.52936E+04  7.88959E+03  6.22665E+03  1.35855E+04 -3.37376E+03  1.74793E+04 -1.02369E+04  1.11380E+04
 -1.44677E+04 -9.72396E+02 -1.25709E+04 -9.48732E+03 -1.55584E+03 -1.43818E+04  6.14671E+03 -1.01081E+04
  1.16849E+04 -3.52262E+03  6.69614E+03  4.14332E+03  3.24878E+03  3.50072E+03  9.17284E+02  1.85095E+03
  4.47204E+03  2.35196E+01  4.16481E+03  3.32403E+03  4.28080E+03  6.31054E+03  4.67031E+03  7.42760E+03
 -2.12989E+03  1.29407E+04 -9.80104E+03  1.37010E+04 -1.79413E+04  4.59373E+03 -1.79582E+04 -7.94788E+03
 -7.68912E+03 -1.54187E+04  2.32258E+03 -1.67172E+04  8.83823E+03 -9.03807E+03  1.32856E+04 -2.11812E+03
  1.00900E+04  6.16230E+03  1.57338E+03  8.70195E+03 -4.33958E+03  7.10591E+03 -7.54795E+03 -1.72516E+02
 -4.43603E+03 -5.67216E+03  3.28948E+03 -8.42452E+03  5.74225E+03 -4.49564E+03  7.40566E+03  1.02315E+03
  5.37798E+03  4.49710E+03  1.62138E+03  3.26389E+03 -9.38436E+02  6.30588E+02  2.17704E+03 -2.82158E+02
  2.75709E+03 -3.01477E+02  7.80806E+03  2.58004E+03  4.21816E+03  8.70630E+03 -9.16130E+02  1.00371E+04
 -6.33386E+03  9.00422E+03 -1.11946E+04  4.27142E+03 -9.38197E+03 -1.91007E+03 -3.32224E+03 -6.03454E+03
 -3.89979E+01 -6.07546E+03  2.52257E+03 -3.10776E+03  2.11621E+03  2.68548E+03 -2.58939E+03  5.63024E+03
 -5.94491E+03  4.72328E+03 -1.00651E+04 -3.28645E+03 -3.96843E+03 -1.02226E+04  1.54849E+03 -7.19462E+03
  5.93381E+03 -5.12855E+03  6.56528E+03  8.32469E+02  5.78480E+03  3.63268E+03  5.29294E+02  6.46652E+03
 -2.78469E+03  1.11067E+03 -3.93192E+03 -3.48190E+03  1.43351E+03 -7.25284E+03  7.27182E+03 -5.00009E+03
  1.02814E+04  1.11104E+03  9.85263E+03  8.45569E+03  3.69558E+03  1.21882E+04 -5.94318E+03  8.76136E+03
 -9.01671E+03  5.32907E+03 -8.53125E+03 -2.06973E+02 -3.19195E+03 -7.31446E+03  1.82339E+03 -6.67095E+03
  6.48801E+03 -2.89031E+03  6.19537E+03  3.43225E+03  1.89655E+03  8.46538E+03 -1.10354E+03  4.00339E+03
 -2.62731E+03  3.66826E+03 -2.00034E+03 -1.64957E+03 -1.98316E+03 -3.73637E+02 -1.03515E+03  1.86011E+03
 -2.29551E+03  3.94927E+03 -6.74775E+03  2.60965E+03 -1.10922E+04 -2.56700E+02 -1.14183E+04 -8.48439E+03
 -6.09282E+03 -1.61173E+04  2.95061E+03 -1.55184E+04  9.96245E+03 -1.26058E+04  1.63158E+04 -4.60671E+03
  1.48757E+04  3.39002E+03  8.51184E+03  1.07568E+04  8.58198E+02  1.09163E+04 -4.26550E+03  7.91659E+03
 -5.76764E+03  3.53586E+03 -5.71793E+03 -3.04944E+03 -1.96027E+03  8.40689E+02 -4.25741E+02  1.01785E+03
 -2.53468E+03  9.09791E+01 -3.01898E+03 -9.09678E+02 -4.03109E+02 -1.85489E+03  4.72717E+01 -3.39656E+03
  3.82711E+03 -4.13593E+03  6.29764E+03 -4.52167E+02  8.74043E+03  5.42545E+03  1.17079E+03  1.06739E+04
 -4.13251E+03  1.32120E+04 -1.18581E+04  9.66070E+03 -1.34617E+04 -1.56538E+03 -1.05535E+04 -1.06920E+04
 -4.81797E+03 -9.97945E+03  3.85224E+03 -1.04036E+04  6.61358E+03 -5.06273E+03  7.55652E+03  4.72268E+02
  4.10181E+03  4.53785E+03 -1.32863E+03  2.84337E+03 -7.05079E+02 -7.63097E+02  3.21007E+02 -3.86651E+03
  5.11548E+03 -1.08831E+03  4.32015E+03  4.20327E+02  3.42434E+03  4.03962E+03 -1.87943E+02  5.68840E+03
 -5.77403E+03  4.53062E+03 -7.14518E+03  4.79176E+02 -6.04707E+03 -6.68706E+03 -1.20117E+03 -1.02466E+04
  5.11897E+03 -6.90565E+03  8.35331E+03 -3.77647E+03  7.43727E+03  3.07133E+03  3.38428E+03  6.96679E+03
  1.50537E+03  7.27716E+03 -4.38323E+03  6.49078E+03 -5.29837E+03  4.27940E+03 -4.88883E+03  5.61753E+01
 -2.40863E+03  8.05216E+02 -2.83057E+03 -3.21400E+01 -3.43119E+03  1.43050E+03 -6.35035E+03 -1.07165E+03
 -5.95319E+03 -3.56444E+03 -1.89765E+03 -7.87525E+03  4.64155E+03 -8.24782E+03  7.27182E+03 -2.77736E+03
  7.54616E+03 -2.78629E+02  5.74275E+03  6.40870E+03 -3.01695E+02  8.10867E+03 -5.41126E+03  4.05329E+03
