 $NMID ID='MM_0lb_SNR200_16hz_g45_13.RAW', FMTDAT='(8E13.5)'
 TRAMP=1., VOLUME=1. $END
  3.11171E+05 -1.00168E+03  3.37036E+05  2.50687E+05  8.61095E+04  3.37928E+05 -1.32309E+05  2.49444E+05
 -1.90690E+05  8.23244E+04 -1.11793E+05 -3.28928E+04  7.03995E+02 -4.98565E+04  5.33724E+04  2.36527E+02
  3.52458E+04  5.23693E+04 -1.65815E+04  7.48150E+04 -6.03201E+04  6.26907E+04 -8.29654E+04  3.10904E+04
 -8.05128E+04 -1.11603E+04 -5.69690E+04 -5.10918E+04 -1.41369E+04 -6.97581E+04  2.65683E+04 -4.53520E+04
  3.86577E+04  2.82756E+03  1.53571E+04  4.71970E+04 -3.30075E+04  4.66353E+04 -6.56505E+04 -2.80138E+02
 -5.23839E+04 -5.64454E+04 -6.63500E+03 -7.66280E+04  3.32061E+04 -5.47115E+04  4.66612E+04 -1.65363E+04
  4.30064E+04  1.21950E+04  3.23457E+04  2.44919E+04  1.53391E+04  2.88406E+04 -4.62540E+03  2.78783E+04
 -2.11338E+04  1.24847E+04 -1.79353E+04 -4.45638E+03  4.55127E+03 -6.67707E+03  2.14634E+04  1.08643E+04
  7.66266E+03  3.46279E+04 -3.01636E+04  3.45126E+04 -6.29218E+04  3.80968E+03 -5.66404E+04 -4.17510E+04
 -1.23599E+04 -6.22695E+04  3.89067E+04 -4.26908E+04  5.69745E+04 -2.05338E+03  3.34201E+04  3.18757E+04
 -6.25395E+03  3.36376E+04 -2.93510E+04  1.50719E+04 -2.87671E+04 -4.54525E+03 -1.49056E+04 -1.04702E+04
 -6.11098E+03 -1.28123E+04 -8.11535E+02 -1.65282E+04  7.21545E+03 -2.20651E+04  1.59133E+04 -1.40268E+04
  1.18885E+04  4.61317E+03 -6.87587E+03  1.27578E+04 -2.01017E+04 -2.97330E+03 -7.49923E+03 -3.23114E+04
  2.31355E+04 -4.21198E+04  4.54289E+04 -1.98307E+04  4.33891E+04  1.92338E+04  1.47700E+04  4.28903E+04
 -1.60893E+04  3.23936E+04 -2.33436E+04  2.00452E+03 -8.64552E+03 -2.61071E+04  2.09317E+04 -3.21223E+04
  3.90874E+04 -8.42277E+03  3.26582E+04  2.26933E+04  1.59810E+04  4.35982E+04 -7.47289E+03  4.77036E+04
 -3.03059E+04  3.13295E+04 -4.04669E+04  9.36350E+03 -3.86658E+04 -1.58641E+04 -2.15318E+04 -3.55704E+04
  7.07674E+03 -3.65061E+04  3.06387E+04 -1.24086E+04  2.69901E+04  1.11858E+04  3.35097E+03  1.95894E+04
 -1.36175E+04  8.58653E+03 -9.20732E+03 -7.57814E+03  6.36444E+03 -1.02091E+04  1.81178E+04  5.60336E+03
  1.31283E+04  2.21759E+04 -6.01219E+03  2.44346E+04 -2.24766E+04  9.62142E+03 -2.69152E+04 -4.36214E+03
 -1.70304E+04 -1.59228E+04 -7.43721E+03 -1.94639E+04  4.32719E+03 -1.67778E+04  1.38907E+04 -1.57526E+04
  2.37256E+04 -1.26373E+04  2.96187E+04  2.32155E+03  2.36132E+04  1.82722E+04  4.73560E+03  3.36651E+04
 -1.60223E+04  2.86557E+04 -2.71739E+04  1.03111E+04 -2.02300E+04 -9.43144E+03 -3.70093E+03 -1.34196E+04
  1.88591E+03 -2.93845E+03 -3.29780E+03  6.45806E+03 -1.48458E+04  5.25448E+03 -1.41732E+04 -6.09959E+03
 -1.00505E+04 -1.84895E+04  5.70020E+03 -2.07549E+04  1.35275E+04 -1.55793E+04  1.60004E+04 -2.05886E+03
  1.06064E+04  1.21536E+04 -6.09085E+02  1.69650E+04 -1.22221E+04  9.53659E+03 -1.68893E+04 -1.90560E+03
 -1.30149E+04 -1.54192E+04 -1.76164E+03 -2.16050E+04  9.24507E+03 -1.62192E+04  1.67716E+04 -7.65642E+03
  1.57906E+04  4.03370E+02  1.18189E+04  4.04412E+03  6.72293E+03  8.96265E+02  7.88298E+03 -1.34599E+03
  1.62900E+04  3.33530E+03  1.64429E+04  1.34959E+04  1.07791E+04  2.71001E+04 -3.61223E+03  3.12149E+04
 -1.75343E+04  2.29110E+04 -2.65495E+04  1.35821E+04 -2.88629E+04 -3.75021E+03 -2.51063E+04 -1.72005E+04
 -1.11633E+04 -2.33311E+04  7.83219E+03 -2.22676E+04  1.99097E+04 -1.20679E+04  1.76012E+04  4.22401E+03
  6.28828E+03  1.21322E+04 -8.02974E+03  1.05932E+04 -1.46433E+04  2.90283E+03 -1.04316E+04 -9.23227E+03
 -5.19030E+01 -1.30138E+04  7.64807E+03 -8.90682E+03  8.60137E+03 -2.06371E+03  2.84254E+03  5.78837E+03
 -6.25330E+03  1.89517E+03 -4.71524E+03 -3.86567E+03  3.65394E+02 -1.17701E+04  9.62133E+03 -1.14417E+04
  1.37731E+04 -5.13567E+03  1.54645E+04  4.37311E+03  1.40173E+04  9.62678E+03  6.89457E+03  1.66980E+04
 -1.87302E+03  1.90243E+04 -1.17863E+04  1.20054E+04 -1.40579E+04  3.44061E+03 -9.07724E+03 -1.82514E+03
 -4.61827E+03 -3.85438E+03 -1.49340E+03  1.73259E+03 -2.38192E+03  1.75203E+03 -5.06094E+03  4.77914E+03
 -1.02569E+04 -6.94529E-01 -9.43941E+03 -8.03436E+03 -4.16209E+03 -1.31537E+04  4.34119E+03 -1.03593E+04
  8.71378E+03 -4.14364E+03  5.34058E+03  2.07570E+03 -1.95764E+02  4.05141E+03 -4.72264E+03  3.91260E+01
 -4.13306E+03 -4.92500E+03 -1.44580E+03 -9.03804E+03  5.14698E+03 -9.25743E+03  1.13286E+04 -4.79320E+03
  1.38722E+04  1.43277E+03  1.08104E+04  6.80345E+03  1.58349E+03  9.85978E+03 -5.61358E+03  9.32300E+03
 -8.29631E+03  2.82921E+03 -3.37773E+03 -1.79364E+03  5.55447E+02 -1.39351E+03  5.21172E+03 -1.35906E+03
  5.81488E+03  3.65485E+03  4.91444E+02  7.37217E+03 -4.63715E+03  7.38362E+03 -8.06066E+03  2.04684E+03
 -7.27227E+03 -4.68002E+03 -6.40820E+02 -7.36692E+03  5.03661E+03 -4.10434E+03  4.39400E+03  1.37757E+03
  1.18760E+03  4.54850E+03 -4.79621E+03  7.01987E+03 -6.24859E+03  2.42959E+03 -7.17930E+03 -2.47391E+03
 -3.87099E+03 -7.34062E+03  1.47437E+03 -8.38156E+03  7.47222E+03 -6.12127E+03  7.69718E+03  6.99271E+02
  5.44621E+03  6.95007E+03 -7.02164E+00  9.07039E+03 -5.27199E+03  4.97884E+03 -6.60101E+03 -9.08653E+02
 -5.94816E+03 -5.45568E+03 -1.56800E+03 -6.41867E+03  3.23061E+03 -5.95041E+03  4.53384E+03 -3.48274E+03
  3.94115E+03  1.60897E+03  1.26024E+02  6.31456E+02  1.37783E+02  4.18009E+01  2.18643E+03 -4.88931E+03
  3.52084E+03 -1.81266E+03  7.31641E+03  6.64945E+02  6.78956E+03  4.14933E+03  6.17762E+03  8.79988E+03
 -1.89350E+03  1.06105E+04 -9.58089E+03  8.22545E+03 -1.25638E+04  2.02990E+03 -1.07778E+04 -3.93547E+03
 -4.91458E+03 -9.12260E+03  9.59617E+01 -6.03736E+03  3.10599E+03 -3.01151E+03  1.26173E+03 -1.90270E+03
  2.36026E+03 -2.02649E+03  2.13947E+03 -2.59173E+03  3.49940E+03 -1.47643E+03  4.04750E+03 -5.20344E+02
  5.52461E+03  7.16558E+02  6.59727E+02  4.39185E+03 -1.50940E+03  3.49917E+03 -4.92241E+03  4.13767E+03
 -6.84763E+03 -1.16333E+03 -3.63974E+03 -5.52081E+03 -5.07797E+02 -7.96078E+03  3.43792E+03 -6.13851E+03
  6.06457E+03 -4.04459E+03  8.35664E+03  8.81155E+02  5.91997E+03  6.24642E+03  1.31544E+03  7.63187E+03
 -1.87472E+03  7.53929E+03 -5.66612E+03  2.31012E+03 -2.82971E+03 -1.57098E+03 -8.81078E+02 -8.78204E+02
 -4.45300E+02 -4.52552E+02 -2.43872E+03  1.59549E+03 -3.03002E+03  9.51870E+02 -4.51337E+03 -1.26607E+02
 -3.53132E+03 -4.63189E+03  1.28990E+03 -5.92863E+03  4.19636E+03 -6.25226E+03  4.98690E+03 -1.69109E+03
  5.12009E+03  3.19123E+03  2.42047E+03  5.22846E+03 -1.70264E+03  6.84140E+03 -4.72623E+03  3.59553E+03
 -5.63062E+03  8.63229E+02 -4.18296E+03 -3.77147E+03 -8.61621E+02 -3.39381E+03  2.13610E+03 -3.29249E+03
  3.92560E+03 -2.10082E+03  2.73624E+03  9.94508E+02  9.41086E+02  1.98477E+03  1.86885E+03  8.35844E+02
  1.83491E+03  4.76890E+02  2.37617E+03  2.44609E+02  1.92081E+03  1.34069E+03  1.47353E+03  3.06978E+03
 -1.14478E+03  4.34067E+03 -3.80171E+03  4.48326E+03 -4.58697E+03  1.11450E+03 -6.81967E+03 -1.88194E+03
 -3.60950E+03 -5.72553E+03  1.30356E+03 -6.17961E+03  1.75000E+03 -4.15423E+03  4.23736E+03 -2.02958E+03
  3.85493E+03  1.85124E+03  4.50449E+02  3.00313E+03 -5.91191E+02  1.38999E+03 -9.17203E+02 -7.50980E+02
  1.73040E+01 -1.58517E+03  1.57981E+03 -2.20678E+03  2.50704E+03 -1.32041E+03  5.57336E+02  9.77315E+02
  1.63204E+03  5.86125E+00  5.24044E+02  3.35150E+02 -4.80396E+02  3.10013E+02  2.01970E+03 -2.02838E+02
 -6.33446E+02 -1.46769E+02  2.93273E+03  8.77836E+02  1.71279E+03  3.01027E+03 -2.42430E+02  3.91574E+03
 -2.73448E+03  9.70597E+02 -3.77608E+03  1.33427E+02 -2.80353E+03 -1.14523E+03 -8.63147E+02 -1.46916E+03
  8.53915E+02 -2.94134E+03  1.04668E+03 -1.29684E+03  1.03293E+03  1.48603E+03 -7.56580E+02  1.46595E+03
 -2.79622E+03 -4.77837E+02 -9.98888E+02 -2.54290E+03 -1.51359E+03 -3.31076E+03 -3.04653E+02 -1.71666E+03
  1.24902E+03 -2.04651E+03  2.73910E+03  6.18119E+02  1.53326E+03  2.77706E+00  1.64568E+02  2.31541E+03
 -1.01382E+03  3.90135E+01 -9.95945E+02 -6.72682E+02  9.83283E+02 -1.59361E+03  1.49032E+03 -1.52503E+03
  2.76466E+03 -5.65310E+02  3.94685E+03  7.45187E+02  1.66422E+02  3.87081E+03 -1.33552E+03  1.89248E+03
 -2.33157E+03  3.40014E+02 -1.96087E+03 -7.20754E+02 -1.27591E+03 -2.49804E+03  1.21473E+03 -7.43815E+02
  1.97758E+03 -1.16018E+03  1.88101E+03  5.64662E+02  1.71936E+02  2.65522E+03  2.89371E+02  1.13012E+03
 -1.08397E+03  8.93903E+02 -1.06934E+03  1.30397E+02 -6.00514E+02  1.24152E+02 -4.83126E+02  5.11227E+02
 -7.17742E+02  1.60991E+03 -2.67966E+03  4.40214E+02 -2.63952E+03 -6.98745E+02 -2.66241E+03 -1.91692E+03
 -1.23260E+03 -2.52671E+03 -7.26402E+00 -4.05911E+03  1.36482E+03 -3.50781E+03  4.21129E+03 -1.97993E+03
  3.53500E+03  8.36168E+02  2.59162E+03  2.90134E+03 -2.34520E+02  2.71433E+03 -1.12229E+03  6.44657E+02
 -1.65018E+03  4.38984E+02 -1.60066E+03  3.77589E+02 -7.21444E+02 -1.90166E+02  2.41191E+01  7.31850E+01
 -1.06479E+03 -8.28134E+02 -8.38364E+02  2.45548E+01 -6.98584E+02 -5.23466E+02 -3.01018E+02 -1.81002E+03
  1.51819E+03 -6.92116E+02  2.03829E+03  1.04425E+03  2.53820E+03  6.96394E+02  4.77345E+02  3.38710E+03
 -6.11537E+02  3.30927E+03 -2.76862E+03  1.45040E+03 -3.90974E+03 -9.59084E+02 -1.92320E+03 -1.78400E+03
 -9.57285E+02 -2.23050E+03  3.03048E+02 -1.50802E+03  1.56106E+03 -1.78208E+03  1.76596E+03 -6.68497E+02
  1.71584E+03  7.60303E+02 -8.49975E+02  8.98841E+02 -9.95321E+02  6.50191E+02  1.03589E+02  5.14573E+01
  1.86402E+03  8.82840E+02  8.23982E+02 -7.32453E+01  2.42537E+02  8.14508E+02 -4.35019E+02  1.38905E+03
 -2.00737E+03  1.51352E+03 -1.62255E+03 -5.17441E+02 -1.05521E+03 -1.30278E+03 -1.11725E+03 -2.02561E+03
  2.85846E+02 -1.31983E+03 -7.70051E+01 -1.80990E+02  2.11533E+03 -9.13977E+02  9.65432E+02  1.17454E+03
  1.29092E+03  1.73014E+03 -2.25755E+02  1.34709E+03 -1.54270E+03  4.69160E+02 -4.82069E+02 -2.60595E+02
 -5.90945E+02  2.35038E+02 -4.66628E+02  4.23536E+02 -3.21763E+02 -6.60997E+02 -8.36798E+02 -3.70154E+02
 -1.41588E+03  7.48221E+02 -4.88903E+02 -2.18672E+03  5.16060E+02 -3.23280E+03  1.31939E+03 -8.00528E+02
  2.30435E+03  1.47224E+03 -2.97563E+02  5.25398E+02 -1.15712E+03  2.18016E+03 -7.99032E+02  2.35794E+03
