 $NMID ID='MM_0lb_SNR200_18hz_g50_92.RAW', FMTDAT='(8E13.5)'
 TRAMP=1., VOLUME=1. $END
  3.09208E+05 -8.12965E+02  3.37705E+05  2.50736E+05  8.46517E+04  3.37027E+05 -1.32414E+05  2.50040E+05
 -1.89853E+05  8.16820E+04 -1.12239E+05 -3.29745E+04  2.12791E+03 -5.03517E+04  5.39412E+04  4.40501E+02
  3.51449E+04  5.29322E+04 -1.68603E+04  7.46359E+04 -6.10406E+04  6.33062E+04 -8.31622E+04  3.21590E+04
 -7.93805E+04 -1.14460E+04 -5.63952E+04 -5.06312E+04 -1.38127E+04 -6.87602E+04  2.65880E+04 -4.53838E+04
  4.03900E+04  4.13813E+03  1.59944E+04  4.71396E+04 -3.31934E+04  4.61901E+04 -6.61368E+04 -6.62014E+02
 -5.24090E+04 -5.74382E+04 -5.95026E+03 -7.47645E+04  3.32561E+04 -5.38679E+04  4.67951E+04 -1.64595E+04
  4.21051E+04  1.11786E+04  3.07297E+04  2.48949E+04  1.66696E+04  2.90986E+04 -4.74633E+03  2.77031E+04
 -2.22566E+04  1.25328E+04 -1.84035E+04 -4.82496E+03  5.26851E+03 -7.52099E+03  2.18505E+04  1.23050E+04
  6.74539E+03  3.52029E+04 -3.07038E+04  3.41123E+04 -6.16989E+04  1.38557E+03 -5.63949E+04 -4.13437E+04
 -1.12080E+04 -6.09428E+04  3.93180E+04 -4.30961E+04  5.51723E+04 -1.73904E+03  3.22335E+04  3.02151E+04
 -7.02263E+03  3.42902E+04 -2.96914E+04  1.42044E+04 -2.81789E+04 -4.98056E+03 -1.43529E+04 -1.05529E+04
 -7.83995E+03 -1.22224E+04 -1.05377E+03 -1.54617E+04  5.91316E+03 -2.23975E+04  1.43022E+04 -1.39229E+04
  1.13202E+04  4.74389E+03 -6.76331E+03  1.34856E+04 -1.97555E+04 -3.64052E+03 -7.76913E+03 -3.15486E+04
  2.11327E+04 -4.16967E+04  4.48465E+04 -1.88710E+04  4.24132E+04  1.86139E+04  1.44783E+04  4.15347E+04
 -1.55040E+04  3.18430E+04 -2.33071E+04 -6.11464E+01 -9.74706E+03 -2.58874E+04  2.07981E+04 -3.14234E+04
  3.91320E+04 -6.99379E+03  3.29046E+04  2.24884E+04  1.72109E+04  4.31059E+04 -7.50142E+03  4.59488E+04
 -2.91190E+04  2.95411E+04 -3.77764E+04  8.64560E+03 -3.79895E+04 -1.49523E+04 -2.23902E+04 -3.54785E+04
  7.04945E+03 -3.34868E+04  2.96342E+04 -1.28124E+04  2.70331E+04  1.19303E+04  2.33026E+03  1.85696E+04
 -1.29446E+04  6.48685E+03 -1.04551E+04 -7.21258E+03  7.06968E+03 -9.90492E+03  1.81977E+04  6.49268E+03
  1.23873E+04  2.21773E+04 -6.42768E+03  2.39120E+04 -2.13047E+04  9.42394E+03 -2.57528E+04 -6.16410E+03
 -1.72560E+04 -1.73426E+04 -5.23419E+03 -1.68419E+04  3.25299E+03 -1.65613E+04  1.29961E+04 -1.38334E+04
  2.14226E+04 -1.18837E+04  2.93681E+04  1.45599E+03  2.25485E+04  1.72151E+04  3.87978E+03  3.30127E+04
 -1.62288E+04  2.85678E+04 -2.64637E+04  1.01727E+04 -1.94002E+04 -1.05861E+04 -3.86041E+03 -1.43077E+04
  3.19851E+03 -4.00403E+03 -2.97340E+03  5.15902E+03 -1.40601E+04  5.29782E+03 -1.37758E+04 -5.73596E+03
 -9.66480E+03 -1.63716E+04  4.62038E+03 -2.00502E+04  1.42422E+04 -1.49178E+04  1.51078E+04 -1.01887E+03
  1.00110E+04  1.15745E+04 -7.96782E+02  1.67971E+04 -1.03333E+04  8.99482E+03 -1.54918E+04 -3.14890E+03
 -1.13307E+04 -1.45202E+04 -1.15928E+03 -2.00581E+04  8.51158E+03 -1.61586E+04  1.62545E+04 -8.77463E+03
  1.43576E+04  8.61818E+02  1.21947E+04  3.81631E+03  5.13918E+03  1.60443E+03  7.83889E+03 -6.82208E+02
  1.34667E+04  2.39298E+03  1.47332E+04  1.30448E+04  9.45818E+03  2.52056E+04 -1.68160E+03  2.91876E+04
 -1.58699E+04  2.14986E+04 -2.52228E+04  9.84963E+03 -2.65256E+04 -2.43845E+03 -2.27857E+04 -1.41330E+04
 -1.14284E+04 -2.14397E+04  6.86609E+03 -1.91182E+04  1.75764E+04 -1.14127E+04  1.63587E+04  4.19083E+03
  8.15313E+03  1.10560E+04 -6.12502E+03  1.12891E+04 -1.37019E+04  1.66334E+03 -1.16091E+04 -8.90972E+03
  4.71703E+02 -1.30012E+04  5.93779E+03 -9.06388E+03  7.55795E+03 -1.83470E+03  9.21572E+02  4.92462E+03
 -5.91491E+03  1.81156E+03 -5.13999E+03 -4.16016E+03  8.82851E+02 -1.05343E+04  8.04430E+03 -1.17744E+04
  1.28385E+04 -4.24372E+03  1.29815E+04  2.14566E+03  1.14272E+04  1.06654E+04  5.12529E+03  1.53404E+04
 -1.14504E+03  1.59843E+04 -1.02188E+04  1.14231E+04 -1.24877E+04  2.21131E+03 -9.45419E+03 -2.37019E+03
 -4.48359E+03 -3.41681E+03 -8.23033E+02  2.17062E+03 -1.68554E+03  1.87915E+03 -4.32705E+03  2.72175E+03
 -8.02375E+03 -4.92878E+02 -9.55556E+03 -7.75907E+03 -4.51010E+03 -1.15368E+04  3.22703E+03 -8.85160E+03
  7.55771E+03 -3.76582E+03  5.50892E+03  2.82712E+03  1.33055E+02  1.91927E+03 -2.43529E+03 -6.13124E+01
 -2.66486E+03 -6.17211E+03  3.78507E+02 -6.77330E+03  3.65305E+03 -8.85600E+03  1.05641E+04 -4.19837E+03
  1.38780E+04 -1.78941E+02  9.51448E+03  6.37039E+03  1.83865E+03  9.48182E+03 -5.48463E+03  9.35051E+03
 -6.28938E+03  3.68593E+03 -4.16363E+03 -1.59247E+03  4.03601E+02 -9.32366E+02  4.41130E+03 -1.56270E+03
  3.70366E+03  4.13463E+03  7.52517E+02  6.64341E+03 -4.55732E+03  6.60543E+03 -8.39549E+03  7.29079E+02
 -5.33432E+03 -3.83560E+03  8.78352E+02 -6.94401E+03  3.88351E+03 -5.34263E+03  3.86059E+03  1.26526E+03
  1.24987E+03  4.10780E+03 -4.64369E+03  5.56504E+03 -5.58120E+03  2.86092E+03 -5.62884E+03 -1.42711E+03
 -3.42282E+03 -6.62337E+03  1.31925E+03 -8.82137E+03  5.96751E+03 -4.81837E+03  8.21847E+03  1.79281E+03
  4.60516E+03  4.55558E+03 -8.91530E+01  7.75911E+03 -5.27568E+03  5.07412E+03 -5.42536E+03 -1.82042E+03
 -5.26874E+03 -5.25583E+03 -2.30670E+03 -6.62738E+03  2.30673E+03 -5.58725E+03  3.13555E+03 -3.02888E+03
  3.40155E+03 -8.15588E+02 -1.15971E+02  1.67515E+03 -1.27393E+02  4.01998E+02  1.65293E+01 -1.71412E+03
  4.10436E+03 -1.62344E+03  4.45785E+03 -5.91263E+01  5.65343E+03  3.78627E+03  5.71488E+03  7.53967E+03
 -1.46280E+03  8.86966E+03 -8.24595E+03  6.65858E+03 -1.07103E+04  2.04428E+03 -8.21916E+03 -2.37261E+03
 -4.60768E+03 -6.23044E+03 -3.53798E+02 -5.68796E+03  1.79229E+03 -3.35355E+03  1.76853E+03 -1.86825E+03
  1.55666E+03  2.44493E+02  1.66698E+03 -2.46761E+03  4.27879E+03 -1.43234E+03  3.51820E+03 -1.01729E+02
  4.97354E+03  1.07965E+03  1.90426E+03  3.10479E+03 -2.02129E+03  2.53630E+03 -4.88855E+03  2.32969E+03
 -5.12563E+03 -1.79512E+03 -1.99999E+03 -2.96395E+03  6.23048E+01 -5.09952E+03  3.20073E+03 -6.05172E+03
  4.99704E+03 -3.67625E+03  7.45533E+03  6.48870E+02  5.26475E+03  4.18957E+03  8.51420E+02  7.09965E+03
 -2.89385E+03  5.26365E+03 -4.52316E+03  1.80768E+03 -2.07370E+03 -9.34996E+02 -1.39718E+03 -8.87046E+02
 -8.70296E+02 -3.44789E+02 -8.28578E+02  2.11131E+03 -3.27953E+03  5.27514E+02 -3.25007E+03 -1.49853E+03
 -1.81191E+03 -4.30846E+03  1.19598E+03 -4.64312E+03  3.55057E+03 -4.92078E+03  3.91250E+03 -9.73007E+02
  5.36054E+03  2.48105E+03  1.98241E+03  4.24958E+03 -6.36265E+02  5.14481E+03 -2.76432E+03  3.39504E+03
 -3.98801E+03  4.24977E+02 -3.71660E+03 -2.95970E+03 -5.74249E+01 -3.65488E+03  2.51537E+03 -2.35002E+03
  1.94269E+03 -9.46477E+02  1.39466E+03  1.66409E+03  8.24819E+02  2.10363E+03  1.29485E+02  5.89808E+02
  2.36742E+03  4.53705E+02  1.42661E+03  1.52048E+03  1.14832E+03  2.53351E+03  1.72514E+03  2.40437E+03
 -1.00225E+03  3.22354E+03 -2.34852E+03  4.97167E+03 -3.15272E+03  8.84349E+02 -5.39054E+03 -7.81243E+02
 -2.74019E+03 -3.83767E+03  6.99078E+02 -4.70217E+03  1.85073E+03 -2.72496E+03  3.59359E+03 -8.97179E+02
  2.86165E+03  1.30101E+03  2.27473E+02  2.26036E+03 -9.07523E+02  1.96437E+03 -1.44665E+03  7.88657E+01
 -7.32766E+02 -1.46328E+03  1.84795E+03 -2.12063E+03  1.86388E+03 -2.27576E+03  1.76560E+03  7.19261E+02
  4.94213E+02  6.12795E+02  2.00391E+03 -8.58298E+02 -4.64545E+02 -1.10476E+02  1.59676E+03 -1.61896E+02
 -7.72416E+02 -5.10302E+02  1.88440E+03  1.73208E+03  6.43704E+02  2.70375E+03 -1.15773E+03  3.14364E+03
 -2.98426E+03  1.46291E+03 -2.35919E+03 -1.33206E+02 -2.25491E+03 -1.07240E+03 -6.81747E+02 -1.46974E+03
  8.58380E+02 -1.42389E+03  1.90969E+02 -1.01158E+03  2.74628E+02  1.58379E+02 -3.42522E+02  9.99791E+02
 -1.86375E+03  1.20795E+03 -1.36039E+02 -1.36677E+03 -6.91875E+02 -2.44913E+03  1.06829E+03 -2.34571E+03
  1.02767E+03  1.48949E+01  6.57416E+02  2.28900E+02  1.64757E+03 -3.85402E+02 -5.24212E+01  9.83684E+02
 -3.20361E+02 -1.17779E+02 -6.68837E+02 -1.65459E+02  1.01610E+03 -1.56574E+03  1.94381E+03  1.09399E+02
  9.47156E+02  2.67393E+02  3.39368E+03  1.24519E+03  1.04246E+03  1.83747E+03 -1.14514E+03  2.21769E+03
 -1.26825E+03  3.59584E+02 -7.45534E+02 -1.41828E+02 -1.67470E+03 -1.41354E+03 -6.19129E+02 -7.09908E+02
  2.36230E+03 -1.91243E+03  3.83523E+02  3.40182E+02 -1.63293E+03  1.47312E+03 -1.06990E+02  3.02881E+02
 -3.52489E+02  1.05097E+03 -1.36619E+03  4.26648E+01  2.82295E+02 -8.71425E+02 -1.32627E+03  5.26432E+02
 -1.20761E+03  1.86999E+03 -2.06821E+03  1.08572E+03 -1.40257E+03  2.43900E+02 -1.95941E+03 -1.71431E+03
 -1.05681E+03 -2.13191E+03  1.66919E+03 -3.27549E+03  4.83450E+02 -2.93295E+03  2.87786E+03 -1.27551E+03
  2.57400E+03 -1.41069E+02  1.48545E+03  3.05033E+03 -5.65886E+02  1.34370E+03 -4.11617E+02  1.79014E+03
 -3.76045E+02  1.47948E+03 -9.72464E+02 -2.12303E+02 -7.37760E+02 -4.99954E+02 -1.51247E+03 -2.42006E+02
 -9.57688E+02  4.37430E+02 -1.54303E+03 -2.41083E+02 -3.98102E+02 -8.52142E+02 -2.27930E+02 -4.76289E+02
  1.75282E+03 -8.82221E+02 -1.54212E+02 -1.69641E+02  1.38838E+03  4.28462E+02 -2.61372E+02  2.28082E+03
 -7.84275E+02  2.02902E+03 -1.04811E+03  1.32138E+03 -2.32617E+03  5.25115E+02 -1.03179E+03 -1.67714E+03
 -6.84566E+02 -7.38154E+02  1.36188E+03 -2.04297E+03  5.82288E+02 -1.85188E+03  5.20183E+02 -7.50488E+01
  1.95402E+02  8.32915E+01  2.01657E+02 -4.24924E+02 -1.03200E+03 -3.57740E+02 -4.02708E+02  4.52779E+02
  9.37950E+02  6.63985E+02  1.11151E+03 -2.82885E+01  6.05727E+02  3.88904E+02  5.32270E+02  3.14425E+02
 -9.82048E+02  4.14689E+02 -3.22828E+02  4.18269E+02 -1.13626E+03 -6.07227E+02  1.14011E+02 -1.65134E+03
  1.49842E+03 -7.80930E+02  4.74225E+02 -2.45511E+02  6.09053E+02  1.87745E+02 -6.12341E+02  6.72624E+02
  2.11054E+02  1.63867E+03 -4.20185E+01  9.50629E+02 -1.13808E+03  4.61723E+02 -2.40211E+02 -6.14773E+02
  8.25086E+02  1.73160E+02 -6.35570E+02  1.36210E+02  2.50975E+02  8.57481E+02 -1.60694E+03 -1.12832E+03
 -1.23771E+03  2.82923E+02  6.40295E+02 -1.36662E+03  2.19299E+02 -1.43680E+03  1.41947E+03 -1.11826E+03
  2.15362E+02  2.21228E+02  2.51388E+02  2.78888E+02 -1.37653E+02  1.27494E+03 -9.83244E+02 -5.90643E+01
