 $NMID ID='MM_0lb_SNR200_18hz_g45_36.RAW', FMTDAT='(8E13.5)'
 TRAMP=1., VOLUME=1. $END
  3.09929E+05 -1.09504E+03  3.36667E+05  2.50349E+05  8.36776E+04  3.37017E+05 -1.32629E+05  2.50877E+05
 -1.89052E+05  8.26069E+04 -1.11424E+05 -3.35686E+04  1.48270E+03 -5.15163E+04  5.38729E+04  1.41298E+03
  3.49248E+04  5.33882E+04 -1.67317E+04  7.44282E+04 -6.07340E+04  6.21758E+04 -8.30833E+04  3.20610E+04
 -8.00944E+04 -1.12473E+04 -5.67530E+04 -4.91499E+04 -1.58874E+04 -6.88604E+04  2.71749E+04 -4.60329E+04
  3.97629E+04  5.02422E+03  1.62534E+04  4.71208E+04 -3.44469E+04  4.58731E+04 -6.61500E+04 -6.34845E+02
 -5.05253E+04 -5.56270E+04 -5.75262E+03 -7.54499E+04  3.29017E+04 -5.34808E+04  4.61384E+04 -1.62347E+04
  4.23946E+04  9.76817E+03  3.13184E+04  2.50053E+04  1.54596E+04  2.81732E+04 -4.43065E+03  2.73442E+04
 -2.27840E+04  1.31214E+04 -1.96492E+04 -3.57003E+03  3.83936E+03 -7.13253E+03  2.09352E+04  1.08227E+04
  6.74651E+03  3.30592E+04 -3.02031E+04  3.35184E+04 -6.13208E+04  2.13413E+03 -5.55952E+04 -4.20209E+04
 -1.29930E+04 -6.14818E+04  3.82321E+04 -4.37106E+04  5.60153E+04 -1.94031E+03  3.19298E+04  3.08748E+04
 -6.21898E+03  3.38668E+04 -2.91366E+04  1.35665E+04 -2.77514E+04 -5.04915E+03 -1.47411E+04 -1.05673E+04
 -7.45668E+03 -1.21222E+04 -2.69350E+02 -1.67918E+04  6.28879E+03 -2.21033E+04  1.53106E+04 -1.39363E+04
  1.19174E+04  2.92304E+03 -5.80717E+03  1.36667E+04 -1.95744E+04 -2.57356E+03 -7.18556E+03 -3.06051E+04
  2.03919E+04 -3.99914E+04  4.55241E+04 -1.84452E+04  4.29308E+04  1.81657E+04  1.50154E+04  4.12282E+04
 -1.47460E+04  3.06803E+04 -2.36732E+04  1.89512E+03 -7.89998E+03 -2.57497E+04  2.04754E+04 -3.10167E+04
  3.78395E+04 -7.04185E+03  3.08091E+04  2.22688E+04  1.57006E+04  4.32072E+04 -7.89572E+03  4.50136E+04
 -2.81072E+04  2.99437E+04 -3.75221E+04  8.29470E+03 -3.89991E+04 -1.54137E+04 -2.15428E+04 -3.49420E+04
  7.09857E+03 -3.51785E+04  2.95269E+04 -1.27589E+04  2.69475E+04  1.13156E+04  3.74544E+03  1.74401E+04
 -1.30627E+04  7.20157E+03 -8.54850E+03 -7.51643E+03  5.59603E+03 -1.00301E+04  1.62696E+04  7.14948E+03
  1.26379E+04  2.13664E+04 -6.62938E+03  2.34628E+04 -2.20497E+04  8.20561E+03 -2.53585E+04 -6.42343E+03
 -1.69727E+04 -1.72540E+04 -6.11798E+03 -1.71434E+04  3.35864E+03 -1.39178E+04  1.27145E+04 -1.42782E+04
  2.24193E+04 -1.20893E+04  2.77372E+04  1.65617E+03  2.09700E+04  1.58263E+04  4.09727E+03  3.20069E+04
 -1.52537E+04  2.72224E+04 -2.68208E+04  9.61062E+03 -1.89511E+04 -1.11526E+04 -4.69862E+03 -1.44276E+04
  2.91042E+03 -3.57207E+03 -3.29740E+03  5.47104E+03 -1.36191E+04  5.41259E+03 -1.29879E+04 -4.31930E+03
 -8.13768E+03 -1.61438E+04  5.01312E+03 -1.91564E+04  1.28748E+04 -1.38364E+04  1.53552E+04 -2.46789E+03
  8.83948E+03  1.09830E+04 -8.43106E+02  1.58859E+04 -1.12440E+04  8.57259E+03 -1.56845E+04 -3.60207E+03
 -1.17270E+04 -1.50399E+04 -5.16716E+02 -1.85483E+04  9.55568E+03 -1.52557E+04  1.64687E+04 -8.38629E+03
  1.40276E+04  1.45231E+03  1.08008E+04  3.14927E+03  4.84898E+03 -4.96161E+02  8.39564E+03 -1.13980E+03
  1.48436E+04  2.44731E+03  1.47190E+04  1.28721E+04  8.48487E+03  2.48413E+04 -3.09186E+03  2.71292E+04
 -1.55471E+04  2.05744E+04 -2.54908E+04  9.46031E+03 -2.54262E+04 -1.68923E+03 -2.27082E+04 -1.56266E+04
 -1.04204E+04 -2.07428E+04  6.30604E+03 -2.02191E+04  1.71641E+04 -1.06812E+04  1.64862E+04  3.58411E+03
  5.71786E+03  1.09397E+04 -7.50076E+03  1.08113E+04 -1.38369E+04  2.33907E+03 -1.11357E+04 -8.72956E+03
 -4.75913E+02 -1.24470E+04  5.14201E+03 -1.10904E+04  8.77540E+03 -2.83274E+03  9.98539E+02  6.26274E+03
 -5.13564E+03  5.87591E+02 -3.43232E+03 -4.90783E+03  3.33692E+02 -1.00133E+04  8.22342E+03 -1.05318E+04
  1.37447E+04 -4.21201E+03  1.24907E+04  3.02013E+03  1.02018E+04  8.88950E+03  4.73449E+03  1.39879E+04
 -7.68803E+02  1.72551E+04 -1.02759E+04  1.00304E+04 -1.12545E+04  3.06506E+03 -8.51763E+03 -2.11051E+03
 -4.42775E+03 -3.91343E+03 -1.19432E+03  1.74464E+03 -1.41012E+03  2.13371E+03 -4.75458E+03  4.36690E+03
 -8.12022E+03  1.47286E+01 -8.71361E+03 -8.54109E+03 -4.25646E+03 -1.21212E+04  3.64263E+03 -8.71274E+03
  7.17325E+03 -4.20687E+03  4.78362E+03  2.24493E+03  6.24004E+02  3.74226E+03 -4.20638E+03 -2.17749E+01
 -3.90979E+03 -6.31148E+03 -6.75265E+02 -6.83967E+03  4.60450E+03 -8.35807E+03  1.00154E+04 -3.58231E+03
  1.07268E+04  4.49796E+02  9.19175E+03  6.10483E+03  2.84067E+03  9.35488E+03 -5.95993E+03  8.98445E+03
 -7.84610E+03  2.52811E+03 -4.67993E+03 -2.96376E+02  1.18338E+03 -2.65343E+03  4.59401E+03 -1.65796E+03
  3.13350E+03  4.18181E+03  1.20644E+03  6.31681E+03 -3.86049E+03  7.62223E+03 -8.29962E+03  2.01291E+03
 -4.44372E+03 -3.74278E+03  3.96567E+02 -5.40102E+03  3.12796E+03 -4.08293E+03  2.94224E+03  1.40158E+03
  1.66598E+02  3.77092E+03 -4.76573E+03  4.93122E+03 -4.24680E+03  3.20717E+03 -4.46989E+03 -1.41962E+03
 -2.85644E+03 -6.47556E+03  5.65334E+02 -7.40843E+03  6.58509E+03 -4.66346E+03  6.66534E+03  6.53722E+02
  3.97238E+03  5.35159E+03 -6.22374E+01  6.29616E+03 -5.26956E+03  4.94795E+03 -5.12677E+03  8.69308E+02
 -5.79617E+03 -5.15805E+03 -8.17036E+02 -4.08660E+03  1.75157E+03 -5.33962E+03  3.06684E+03 -2.26793E+03
  3.06518E+03 -1.90944E+02 -2.46190E+02  1.68548E+03  1.17896E+03  2.09674E+02  9.67331E+02 -2.21583E+03
  4.28480E+03 -9.36609E+02  5.64779E+03  9.48767E+02  6.45290E+03  3.44475E+03  4.38104E+03  7.00076E+03
 -1.72993E+03  8.29629E+03 -8.22837E+03  5.64153E+03 -1.09930E+04  4.60386E+02 -7.27390E+03 -2.59666E+03
 -4.55136E+03 -7.25116E+03 -7.73147E+02 -3.50821E+03  2.10289E+03 -2.53949E+03  7.52402E+02 -1.73506E+03
  5.41390E+02 -2.51974E+03  3.26687E+03 -2.03870E+03  3.14322E+03 -1.60386E+03  4.39754E+03  9.84245E+02
  5.09896E+03  1.01910E+03  1.05377E+03  3.96022E+03 -1.99972E+03  4.13638E+03 -3.47097E+03  2.76943E+03
 -6.16361E+03 -2.14827E+03 -1.39894E+03 -3.18984E+03  3.40601E+02 -4.67821E+03  2.04327E+03 -7.20014E+03
  3.98806E+03 -3.35354E+03  6.33417E+03  3.66879E+02  4.55860E+03  4.44802E+03  4.24816E+02  5.86983E+03
 -1.50640E+03  6.27793E+03 -2.31296E+03  2.17996E+03 -2.90241E+03 -1.40700E+03 -8.22939E+02  1.48758E+02
 -3.64466E+02  4.47146E+02 -1.38486E+03  4.98568E+02 -3.00327E+03  1.98226E+03 -3.43552E+03 -3.15346E+02
 -1.59421E+03 -4.42410E+03  1.15073E+03 -4.32420E+03  2.69307E+03 -4.96086E+03  4.54023E+03 -1.54061E+03
  3.09636E+03  2.47687E+03  1.29262E+03  2.89094E+03 -1.02549E+03  5.07690E+03 -3.13380E+03  2.70948E+03
 -5.04133E+03  1.42486E+03 -3.81051E+03 -2.53056E+03  1.31480E+02 -2.54929E+03  1.85359E+03 -2.73420E+03
  3.29252E+03 -1.30156E+03  1.27936E+03  6.66807E+02  4.31158E+02  1.06668E+03  7.22035E+02  4.45177E+02
  5.84724E+02  1.52308E+03  1.19725E+03  7.73357E+02  1.23003E+03  2.04280E+03  1.99082E+03  2.20739E+03
 -1.04509E+03  2.64313E+03 -1.97937E+03  2.91242E+03 -2.08800E+03  2.09847E+03 -4.17571E+03  6.32994E+02
 -1.97673E+03 -3.32817E+03  1.51278E+03 -5.07287E+03  1.29772E+03 -2.91619E+03  2.66384E+03 -1.67759E+03
  2.84025E+03  3.29075E+03  2.60109E+02  2.78899E+03 -1.57725E+03  2.03423E+03 -9.19835E+02 -1.81417E+02
  1.73403E+02 -1.26220E+03  1.30125E+03 -6.10444E+02  1.89359E+03 -1.08024E+03  8.64749E+02  1.19412E+03
 -2.48510E+02  9.61737E+02  6.33852E+02 -4.81081E+01  4.99064E+02  1.75904E+03  2.10905E+03  5.96807E+01
 -4.05747E+02  1.37597E+02  1.46042E+03  1.42969E+03  4.79970E+02  9.65535E+02 -7.80141E+02  2.61445E+03
 -8.34163E+02  2.07698E+03 -2.47023E+03  8.34273E+02 -2.36110E+03 -3.29690E+02  3.22696E+02 -1.32084E+03
  1.03536E+03 -5.69993E+02  1.59257E+03 -4.25387E+02  1.18667E+03  1.44050E+03 -7.83495E+02  1.39896E+03
 -1.51203E+03  7.99041E+02 -1.54072E+03 -7.93207E+02 -1.59015E+03 -1.96016E+03  1.38303E+03 -2.21470E+03
  6.44996E+02 -3.94327E-01  1.17082E+03  6.79723E+02  1.68970E+03 -3.65443E+02  1.06350E+03  1.66095E+03
  1.64092E+02 -7.39157E+02 -1.72049E+03 -1.00676E+02  6.04135E+02 -1.01232E+03  1.38365E+03 -9.78191E+02
  1.31073E+03 -7.98437E+02  2.49273E+03  8.80851E+02  6.21433E+02  2.55888E+03 -6.02781E+02  2.92241E+03
 -1.32270E+03  3.83327E+02 -2.33488E+03 -8.62985E+02 -3.99101E+02 -2.21223E+03 -5.71322E+02 -1.38458E+03
  2.90758E+03 -3.70800E+02  1.30014E+03 -1.01871E+02  9.48410E+02  2.83273E+02  5.00283E+02  9.02618E+02
  2.04628E+02  2.72988E+03 -1.40761E+02 -6.37496E+01 -2.92699E+02 -7.29122E+02 -1.85429E+02  3.64782E+02
 -8.96289E+02  4.88407E+02 -1.86331E+03  1.89009E+02 -1.65651E+03  1.23634E+02 -3.71165E+03 -1.02293E+03
 -9.85236E+02 -3.42664E+03  4.14015E+02 -1.90673E+03  7.54538E+02 -3.01641E+03  2.12579E+03 -5.40853E+02
  2.39334E+03 -1.21196E+03  1.95036E+03  2.07487E+03 -7.63326E+02  1.50235E+03 -9.18442E+02  2.24325E+03
 -1.19789E+03  6.82672E+02 -1.51026E+02 -2.43228E+02 -7.56609E+01 -5.86811E+02 -7.70140E+02 -6.57750E+01
 -1.47281E+03 -3.11807E+02 -1.83896E+03 -6.45906E+02  1.08481E+03 -9.91270E+02 -6.84971E+02 -1.14555E+03
  1.56281E+03 -6.00233E+02  4.15364E+02  3.32707E+02  9.31125E+02  6.50043E+02 -9.33573E+02  1.34759E+03
 -8.19347E+02  1.55657E+03 -1.04726E+03  1.88528E+03 -2.70590E+03  7.71337E+02 -1.22556E+03 -1.07537E+03
 -1.49770E+03 -5.90875E+02  2.91324E+02 -9.27747E+02  5.05266E+02 -5.30733E+02  9.64617E+02  3.38282E+02
  8.43486E+02  1.51419E+02  2.64528E+02  3.16954E+01 -1.04476E+03  7.15988E+02 -1.24317E+03  7.40034E+02
  2.50917E+02  5.06386E+02  2.90130E+02 -1.60229E+01 -1.50497E+02 -5.95691E+02  5.76710E+02 -5.87258E+02
 -2.38448E+02  4.59790E+02 -2.20320E+02  7.93902E+02 -1.74362E+01  1.96590E+02 -5.74504E+02 -1.86479E+03
 -8.44821E+01 -6.28764E+02  6.05915E+02 -4.69864E+02  1.45230E+03 -9.61328E+02 -2.84989E+02  1.37366E+03
 -2.27691E+01 -3.79808E+02  1.29338E+02  2.63634E+02 -6.95306E+02  1.23132E+03 -8.82919E+02 -2.43453E+02
  9.07368E+02  2.55177E+02 -1.17835E+02  4.48580E+02  8.63082E+01 -1.07487E+03 -8.69196E+02 -8.71591E+02
 -5.23328E+02 -4.80422E+02 -3.55608E+02 -7.64777E+02  6.73801E+02 -1.79327E+03  3.43828E+02 -7.74701E+02
  1.65381E+03 -7.53344E+02 -3.97399E+02  7.23597E+02  6.83654E+02  1.15378E+03 -1.14396E+02  5.27828E+02
