 $NMID ID='MM_0lb_SNR200_9hz_g40_60.RAW', FMTDAT='(8E13.5)'
 TRAMP=1., VOLUME=1. $END
  3.11262E+05 -1.18951E+02  3.37750E+05  2.53068E+05  8.34642E+04  3.36752E+05 -1.33333E+05  2.50582E+05
 -1.91609E+05  8.46910E+04 -1.11869E+05 -3.29268E+04 -7.02640E+02 -5.12325E+04  5.38371E+04 -3.54111E+02
  3.60096E+04  5.19201E+04 -1.51607E+04  7.57490E+04 -6.17977E+04  6.49775E+04 -8.57246E+04  3.22607E+04
 -8.24149E+04 -1.13593E+04 -5.66365E+04 -5.24632E+04 -1.44598E+04 -7.12698E+04  2.73423E+04 -4.54826E+04
  4.08034E+04  5.49078E+03  1.69167E+04  4.77179E+04 -3.47661E+04  4.78729E+04 -6.87026E+04 -1.23189E+03
 -5.42304E+04 -5.75804E+04 -7.74050E+03 -7.83721E+04  3.40716E+04 -5.56775E+04  5.01116E+04 -1.85599E+04
  4.43109E+04  1.16056E+04  3.28335E+04  2.63472E+04  1.59753E+04  3.13234E+04 -4.63679E+03  2.69595E+04
 -2.30275E+04  1.27303E+04 -1.77617E+04 -5.24305E+03  5.95187E+03 -6.66055E+03  2.32579E+04  1.40740E+04
  7.13846E+03  3.74344E+04 -3.36872E+04  3.59742E+04 -6.53559E+04  1.72455E+03 -5.89222E+04 -4.38504E+04
 -1.23217E+04 -6.36294E+04  4.00652E+04 -4.72608E+04  6.00409E+04 -8.68608E+02  3.81591E+04  3.44835E+04
 -5.91908E+03  3.90183E+04 -3.11875E+04  1.59623E+04 -3.32042E+04 -3.87523E+03 -1.87466E+04 -1.19934E+04
 -8.81976E+03 -1.45704E+04  1.53078E+03 -1.93999E+04  9.10389E+03 -2.16471E+04  1.64713E+04 -1.29490E+04
  1.03627E+04  7.66944E+03 -1.02266E+04  1.42299E+04 -2.11972E+04 -5.53695E+03 -8.74311E+03 -3.73455E+04
  2.35922E+04 -4.57012E+04  5.10790E+04 -2.03001E+04  4.95739E+04  1.95161E+04  1.57153E+04  4.55051E+04
 -1.62983E+04  3.65234E+04 -2.67350E+04  1.28503E+03 -1.07845E+04 -2.75547E+04  2.28242E+04 -3.65125E+04
  4.37935E+04 -1.05564E+04  3.92039E+04  2.39457E+04  2.21232E+04  5.10860E+04 -5.81272E+03  5.30040E+04
 -3.48167E+04  3.64830E+04 -4.76423E+04  1.06990E+04 -4.64361E+04 -1.70377E+04 -2.54078E+04 -4.04404E+04
  7.38363E+03 -4.06996E+04  3.43762E+04 -1.75151E+04  3.14253E+04  1.01253E+04  5.24387E+03  2.10023E+04
 -1.52305E+04  9.92605E+03 -1.15439E+04 -7.29412E+03  5.00045E+03 -1.04825E+04  1.92681E+04  6.01117E+03
  1.35603E+04  2.25704E+04 -5.01915E+03  2.59050E+04 -2.20579E+04  1.48822E+04 -3.08173E+04 -3.20899E+03
 -2.29037E+04 -1.89182E+04 -9.77429E+03 -2.44800E+04  6.17776E+03 -2.43654E+04  1.93797E+04 -2.23326E+04
  3.07155E+04 -1.49828E+04  3.64818E+04  2.74897E+03  2.56801E+04  2.36997E+04  2.62523E+03  4.12006E+04
 -1.88337E+04  3.15961E+04 -2.98884E+04  1.27558E+04 -2.17110E+04 -9.58807E+03 -4.12714E+03 -1.25573E+04
 -5.47729E+02 -1.75189E+03 -6.87915E+03  7.70895E+03 -2.15800E+04  6.42048E+03 -1.92406E+04 -9.41794E+03
 -1.17890E+04 -2.22331E+04  6.40933E+03 -2.70809E+04  1.83373E+04 -1.89591E+04  2.19247E+04 -1.18046E+03
  1.37894E+04  1.54692E+04 -3.22814E+03  2.22803E+04 -1.73379E+04  1.25073E+04 -2.14203E+04 -4.60743E+03
 -1.74275E+04 -2.12679E+04 -2.35727E+03 -2.67381E+04  1.18374E+04 -2.26039E+04  2.32387E+04 -1.12751E+04
  2.27768E+04  2.76009E+02  1.57970E+04  5.46693E+03  8.36069E+03  2.36789E+03  1.28023E+04 -1.37215E+03
  2.03997E+04  3.53503E+03  2.42024E+04  1.57582E+04  1.44268E+04  3.65732E+04 -2.29627E+03  4.16393E+04
 -2.42471E+04  3.59289E+04 -4.06100E+04  1.71977E+04 -4.28429E+04 -2.51291E+03 -3.43051E+04 -2.55404E+04
 -1.50216E+04 -3.56565E+04  1.26725E+04 -3.00546E+04  2.58220E+04 -1.36695E+04  2.38563E+04  6.87021E+03
  9.69969E+03  1.79531E+04 -1.07879E+04  1.53250E+04 -2.01195E+04  1.63380E+03 -1.38726E+04 -1.18874E+04
 -4.42731E+02 -1.90240E+04  1.11319E+04 -1.46448E+04  1.00109E+04 -1.50463E+03  4.47664E+03  8.75155E+03
 -9.98357E+03  4.92040E+03 -8.99880E+03 -5.15109E+03 -1.24931E+03 -1.65452E+04  1.18640E+04 -1.78856E+04
  2.26419E+04 -1.03542E+04  2.49401E+04  4.63187E+03  1.96497E+04  1.70501E+04  1.02058E+04  2.81617E+04
 -5.45941E+03  2.96936E+04 -1.94515E+04  1.63931E+04 -2.20740E+04  4.10169E+03 -1.48940E+04 -5.67968E+03
 -7.05267E+03 -7.69675E+03  1.37103E+03 -4.58533E+02 -2.86706E+03  3.35236E+03 -6.48281E+03  4.77296E+03
 -1.34344E+04 -1.43401E+03 -1.45731E+04 -1.15692E+04 -5.67768E+03 -1.66764E+04  6.24015E+03 -1.66583E+04
  1.42972E+04 -6.47644E+03  8.55893E+03  3.79204E+03 -1.08968E+03  7.91254E+03 -8.04705E+03  2.94518E+02
 -7.40308E+03 -8.95452E+03 -3.56864E+02 -1.50185E+04  8.15541E+03 -1.41153E+04  1.99332E+04 -8.14219E+03
  2.20256E+04  2.97474E+03  1.71509E+04  1.44227E+04  2.99398E+03  1.73817E+04 -9.03852E+03  1.51716E+04
 -1.16149E+04  3.67072E+03 -5.31702E+03 -3.72276E+03  2.58708E+03 -2.91079E+03  6.98139E+03 -1.13895E+02
  7.34183E+03  6.74893E+03  7.90757E+02  1.18675E+04 -7.66898E+03  1.05373E+04 -1.58098E+04  2.70117E+03
 -1.07034E+04 -8.10528E+03 -4.57137E+02 -1.37609E+04  8.89317E+03 -5.17627E+03  9.58294E+03  4.86263E+03
  2.18744E+03  8.63550E+03 -8.13086E+03  1.03579E+04 -1.41539E+04  4.29294E+03 -1.41456E+04 -5.14439E+03
 -5.39829E+03 -1.48446E+04  2.10357E+03 -1.68742E+04  1.48481E+04 -1.23262E+04  1.47410E+04  4.08955E+03
  9.90182E+03  1.44519E+04 -1.14851E+03  1.53029E+04 -1.24460E+04  8.77557E+03 -1.34948E+04 -1.49282E+03
 -1.14107E+04 -1.07425E+04 -1.71894E+03 -1.17411E+04  5.89705E+03 -8.84253E+03  7.99617E+03 -3.23301E+03
  6.02819E+03  1.61333E+03 -1.69150E+03  2.30787E+03 -6.03195E+02 -4.63286E+03  3.22285E+03 -6.62081E+03
  1.16980E+04 -4.10550E+03  1.48710E+04  1.06805E+03  1.58867E+04  9.82520E+03  8.94987E+03  2.06442E+04
 -5.04657E+03  2.29707E+04 -1.90368E+04  1.72391E+04 -2.38247E+04  1.68040E+03 -2.04714E+04 -8.65331E+03
 -9.36674E+03 -1.59580E+04  1.64569E+02 -1.40064E+04  4.14822E+03 -7.96888E+03  5.53922E+03 -4.60937E+03
  4.69399E+03 -2.72358E+03  3.07755E+03 -4.88083E+03  4.86974E+03 -3.05663E+03  7.71998E+03 -6.07339E+02
  1.04196E+04  2.17009E+03  4.20080E+03  7.45623E+03 -3.05202E+03  1.16870E+04 -1.06052E+04  7.38161E+03
 -1.30181E+04 -1.16514E+03 -8.36779E+03 -1.08327E+04 -1.11358E+03 -1.58569E+04  7.46297E+03 -1.56846E+04
  1.43878E+04 -7.80211E+03  1.80706E+04  4.27585E+03  1.30092E+04  1.26963E+04  1.70394E+03  1.77640E+04
 -6.37657E+03  1.30832E+04 -1.09065E+04  4.11849E+03 -6.09990E+03 -2.77371E+03 -2.36520E+03 -2.72968E+03
 -1.43192E+03 -1.39236E+03 -2.52926E+03  3.46509E+03 -6.49125E+03  1.92078E+03 -9.08743E+03 -5.64987E+01
 -6.27612E+03 -8.41540E+03  9.36321E+01 -1.22751E+04  7.30083E+03 -1.16879E+04  1.47700E+04 -2.95227E+03
  1.27207E+04  7.06463E+03  6.95273E+03  1.03687E+04 -2.05360E+03  1.37241E+04 -9.45421E+03  9.63214E+03
 -1.17194E+04 -5.67781E+02 -8.82599E+03 -7.66025E+03 -1.46946E+01 -1.19837E+04  6.04350E+03 -9.06819E+03
  9.47104E+03 -3.10716E+02  5.72911E+03  2.80465E+03  2.75821E+03  4.66778E+03  1.93944E+03  1.13823E+03
  2.96442E+03  4.07128E+02  2.36789E+03  1.64046E+03  4.10100E+03  3.67929E+03  3.11468E+03  7.22064E+03
 -3.63533E+03  1.07504E+04 -1.05327E+04  1.21988E+04 -1.48733E+04  1.50724E+03 -1.56522E+04 -4.65172E+03
 -7.10503E+03 -1.42207E+04  1.68431E+03 -1.54781E+04  8.04542E+03 -9.24007E+03  1.21716E+04 -2.33745E+03
  6.79527E+03  6.45431E+03  2.36032E+03  7.45372E+03 -2.27659E+03  5.81575E+03 -5.41640E+03 -8.22466E+02
 -4.14046E+03 -5.76872E+03  4.95342E+03 -6.11926E+03  5.74626E+03 -2.12493E+03  5.41884E+03  3.52240E+03
  3.87624E+03  2.34068E+03  6.62963E+02  4.17567E+03 -9.25416E+02  2.05780E+03  1.49041E+03  2.23162E+02
  9.96790E+02 -4.67128E+02  6.34503E+03  2.63233E+03  2.11960E+03  7.73800E+03 -2.11269E+03  1.08257E+04
 -6.60384E+03  4.55837E+03 -1.05337E+04  1.43800E+03 -7.71308E+03 -2.37653E+03 -3.00467E+03 -5.09676E+03
  3.78819E+02 -6.48495E+03  3.75645E+03 -1.50605E+03  2.52714E+03  7.00824E+02 -1.52773E+03  5.62203E+03
 -5.77347E+03  2.11828E+03 -6.44129E+03 -3.92913E+03 -3.82746E+03 -6.47164E+03  1.35123E+03 -9.43565E+03
  4.79756E+03 -4.06613E+03  6.36335E+03  6.64386E+02  4.62615E+03  3.20021E+03 -8.44562E+01  4.31634E+03
 -2.49778E+03  1.21912E+03 -3.14020E+03 -2.23069E+03  2.11244E+03 -6.10919E+03  7.10418E+03 -4.15656E+03
  1.01862E+04  1.16148E+03  8.80874E+03  5.68819E+03  4.03489E+03  8.04204E+03 -3.99310E+03  9.29133E+03
 -6.65690E+03  5.51933E+03 -9.40680E+03 -1.81766E+03 -4.34443E+03 -5.33060E+03  4.70147E+02 -5.98175E+03
  8.14990E+03 -3.09824E+03  5.71527E+03  1.49043E+03  5.24139E+01  4.78870E+03 -2.56362E+03  2.99521E+03
 -2.69566E+03  2.98993E+03 -2.66527E+03 -3.51310E+02 -1.46221E+03  2.35390E+03 -2.25536E+03  1.83323E+03
 -2.22916E+03  4.13210E+03 -8.13335E+03  3.25734E+03 -9.42448E+03  2.98709E+02 -1.05343E+04 -5.60772E+03
 -4.58137E+03 -1.27658E+04  2.50915E+03 -1.36656E+04  7.94712E+03 -1.29323E+04  1.34623E+04 -4.80879E+03
  1.19681E+04  2.21525E+03  7.35225E+03  8.63213E+03  3.64129E+02  1.06564E+04 -4.07671E+03  8.40820E+03
 -6.13839E+03  3.70922E+03 -3.90203E+03 -8.97745E+02 -1.66729E+03 -9.64830E+02 -4.13044E+01 -1.69239E+03
 -1.44215E+03 -5.59100E+02 -2.79472E+03  6.46248E+02 -1.46078E+03 -2.64246E+03  1.71632E+02 -3.50574E+03
  2.54788E+03 -2.01456E+03  5.54357E+03 -9.91652E+02  6.64666E+03  5.27969E+03  2.89307E+03  9.91688E+03
 -4.38469E+03  8.98719E+03 -1.13127E+04  7.34363E+03 -1.15389E+04 -1.55664E+03 -8.25859E+03 -7.34176E+03
 -5.76937E+03 -9.89098E+03  2.30676E+03 -8.65819E+03  6.55562E+03 -3.93024E+03  7.90071E+03  2.46528E+02
  4.32771E+03  4.56821E+03  5.20678E+02  2.12164E+03 -4.86693E+02 -9.06683E+01  2.07510E+03 -1.15976E+03
  3.63537E+03 -1.02506E+03  2.68698E+03  2.29383E+03  3.00649E+03  3.60194E+03  1.18290E+03  4.16426E+03
 -4.15505E+03  5.07251E+03 -8.01035E+03  7.14329E+02 -4.62261E+03 -4.71002E+03 -6.39991E+02 -7.31818E+03
  3.65063E+03 -8.29630E+03  5.92008E+03 -2.07118E+03  7.56045E+03  3.57545E+03  3.37424E+03  5.82560E+03
 -1.77528E+02  6.70370E+03 -4.33601E+03  5.89336E+03 -4.96723E+03  2.17472E+03 -1.90667E+03  7.10430E+02
  6.07782E+00  8.16024E+02 -2.17573E+03  5.85888E+02 -2.94052E+03  2.68919E+03 -5.47730E+03 -1.12299E+03
 -3.33593E+03 -2.50197E+03 -2.74602E+02 -6.31792E+03  3.74546E+03 -6.83503E+03  6.54914E+03 -3.40278E+03
  7.03580E+03  1.20336E+02  3.32056E+03  3.29342E+03 -6.06653E+02  6.31626E+03 -5.24820E+03  5.97073E+03
