 $NMID ID='MM_0lb_SNR200_19hz_g60_46.RAW', FMTDAT='(8E13.5)'
 TRAMP=1., VOLUME=1. $END
  3.09865E+05  1.75469E+02  3.37183E+05  2.51703E+05  8.50095E+04  3.37759E+05 -1.32471E+05  2.50319E+05
 -1.89835E+05  8.29927E+04 -1.12047E+05 -3.16393E+04  6.20014E+02 -5.08779E+04  5.41136E+04  4.59395E+02
  3.46665E+04  5.22094E+04 -1.72190E+04  7.50598E+04 -6.00910E+04  6.31950E+04 -8.43296E+04  3.22557E+04
 -8.03421E+04 -1.19250E+04 -5.70471E+04 -5.09441E+04 -1.43295E+04 -6.80688E+04  2.67769E+04 -4.53906E+04
  3.93446E+04  3.46797E+03  1.62604E+04  4.70546E+04 -3.44818E+04  4.69680E+04 -6.59819E+04 -7.07104E+02
 -5.29316E+04 -5.70059E+04 -7.00154E+03 -7.67432E+04  3.21443E+04 -5.39407E+04  4.77725E+04 -1.68517E+04
  4.23655E+04  1.24669E+04  3.08857E+04  2.56148E+04  1.50089E+04  3.01068E+04 -4.74598E+03  2.75008E+04
 -2.19064E+04  1.27758E+04 -1.85814E+04 -4.59059E+03  4.92653E+03 -7.46874E+03  2.00196E+04  1.21425E+04
  7.74580E+03  3.31614E+04 -3.14567E+04  3.46569E+04 -6.27299E+04  2.12328E+03 -5.60966E+04 -4.25243E+04
 -1.26695E+04 -6.10020E+04  3.94691E+04 -4.48042E+04  5.73352E+04 -2.18028E+03  3.38333E+04  3.06008E+04
 -4.88201E+03  3.56857E+04 -2.95938E+04  1.46385E+04 -2.82579E+04 -4.98800E+03 -1.61506E+04 -1.08398E+04
 -9.29338E+03 -1.12654E+04 -6.31257E+02 -1.65307E+04  6.85387E+03 -2.26018E+04  1.51622E+04 -1.39430E+04
  1.29725E+04  3.03395E+03 -7.39193E+03  1.37147E+04 -1.97396E+04 -4.18240E+03 -7.86255E+03 -3.24726E+04
  2.14786E+04 -4.27052E+04  4.65742E+04 -1.84815E+04  4.39685E+04  1.96726E+04  1.42407E+04  4.29463E+04
 -1.48262E+04  3.20989E+04 -2.38675E+04  5.36699E+02 -1.00104E+04 -2.70243E+04  2.09504E+04 -3.27946E+04
  3.92444E+04 -8.32406E+03  3.43165E+04  2.25388E+04  1.61265E+04  4.46031E+04 -8.16425E+03  4.70188E+04
 -3.05128E+04  3.13984E+04 -3.89275E+04  8.17799E+03 -3.93035E+04 -1.41949E+04 -2.22454E+04 -3.53920E+04
  7.29905E+03 -3.55743E+04  3.00162E+04 -1.30889E+04  2.77630E+04  1.14627E+04  2.98310E+03  1.90431E+04
 -1.37821E+04  6.60594E+03 -1.07780E+04 -7.95390E+03  6.05883E+03 -1.01555E+04  1.80064E+04  6.56582E+03
  1.17690E+04  2.16664E+04 -5.47003E+03  2.38698E+04 -2.21396E+04  1.05972E+04 -2.59206E+04 -5.38331E+03
 -1.88196E+04 -1.65601E+04 -5.75522E+03 -1.69843E+04  3.32032E+03 -1.60727E+04  1.38850E+04 -1.50974E+04
  2.26989E+04 -1.14807E+04  2.92830E+04  2.16182E+03  2.29646E+04  1.78627E+04  3.66638E+03  3.37747E+04
 -1.63342E+04  3.02504E+04 -2.68559E+04  9.77819E+03 -1.99328E+04 -1.12965E+04 -3.86109E+03 -1.26462E+04
  1.78426E+03 -3.91872E+03 -3.51390E+03  5.23948E+03 -1.36829E+04  5.85525E+03 -1.37036E+04 -4.96986E+03
 -8.11868E+03 -1.60235E+04  5.42592E+03 -2.00741E+04  1.29329E+04 -1.33901E+04  1.64017E+04 -9.69629E+02
  9.32096E+03  1.17262E+04 -5.05367E+02  1.60323E+04 -1.16469E+04  1.02116E+04 -1.59130E+04 -3.20281E+03
 -1.25029E+04 -1.51271E+04 -8.22013E+02 -2.05851E+04  1.00171E+04 -1.70719E+04  1.56396E+04 -7.04602E+03
  1.54407E+04  5.70323E+00  1.06582E+04  4.63036E+03  4.54240E+03  6.46925E+02  8.05624E+03 -2.01644E+03
  1.60142E+04  2.65031E+03  1.57761E+04  1.37420E+04  9.51636E+03  2.52932E+04 -2.47595E+03  2.80693E+04
 -1.73325E+04  2.20248E+04 -2.61213E+04  1.09103E+04 -2.77871E+04 -1.12965E+03 -2.22845E+04 -1.52816E+04
 -1.03582E+04 -2.30059E+04  6.60190E+03 -2.05901E+04  1.82785E+04 -1.12114E+04  1.59594E+04  4.17151E+03
  7.48834E+03  1.27365E+04 -7.29371E+03  1.15209E+04 -1.30854E+04  1.84576E+03 -1.12898E+04 -8.26697E+03
 -8.86907E+01 -1.33096E+04  6.62301E+03 -1.03086E+04  7.83191E+03 -1.41485E+03  2.13186E+03  5.30464E+03
 -6.37328E+03  1.07617E+03 -4.86877E+03 -5.19486E+03  4.04170E+02 -1.08337E+04  7.86877E+03 -1.13718E+04
  1.25600E+04 -6.07196E+03  1.29855E+04  2.65423E+03  1.11017E+04  1.02692E+04  6.20903E+03  1.55086E+04
 -2.16432E+03  1.58053E+04 -1.03495E+04  1.20323E+04 -1.10453E+04  2.07693E+03 -8.77805E+03 -2.09084E+03
 -3.98246E+03 -3.52260E+03 -5.99553E+02  1.09997E+03 -1.85143E+03  1.84771E+03 -3.50424E+03  3.48943E+03
 -8.23351E+03 -1.11469E+03 -8.88388E+03 -6.80922E+03 -3.45152E+03 -1.16658E+04  2.84063E+03 -8.68129E+03
  7.53638E+03 -3.64067E+03  5.78933E+03  2.01099E+03 -2.58559E+01  3.15898E+03 -3.68723E+03 -9.44937E+02
 -2.72217E+03 -5.36515E+03 -1.39306E+03 -8.22164E+03  5.17345E+03 -7.67852E+03  9.34084E+03 -5.40624E+03
  1.24127E+04  9.32269E+00  8.67665E+03  6.37792E+03  2.21775E+03  8.98329E+03 -5.20289E+03  7.82485E+03
 -6.55158E+03  3.27471E+03 -3.95693E+03 -9.42539E+02  7.74682E+02 -1.95090E+03  4.54845E+03 -1.77923E+03
  4.13763E+03  4.49557E+03  5.57550E+02  6.11010E+03 -4.66628E+03  5.70545E+03 -8.46660E+03  2.22597E+03
 -5.06448E+03 -2.92089E+03 -6.02437E+01 -6.60228E+03  3.03889E+03 -2.31341E+03  3.08337E+03  1.40227E+03
  8.34226E+02  4.70446E+03 -3.74648E+03  4.41266E+03 -4.90434E+03  3.24004E+03 -5.21861E+03 -1.08320E+03
 -2.45891E+03 -6.44913E+03  1.81805E+03 -7.08396E+03  6.96781E+03 -4.35440E+03  6.05835E+03 -7.72469E+02
  5.25201E+03  4.52182E+03 -6.30060E+02  6.27790E+03 -5.10110E+03  4.34983E+03 -5.97073E+03 -3.16456E+02
 -7.22499E+03 -4.36355E+03 -1.30043E+03 -5.75083E+03  3.72924E+03 -4.82701E+03  3.95721E+03 -2.67578E+03
  3.02635E+03  9.59620E+02  1.33973E+03  2.13608E+03  1.59067E+03 -9.04578E+02 -3.06203E+02 -2.29859E+03
  4.23392E+03 -1.68220E+03  4.84957E+03 -5.52711E+01  5.29873E+03  3.18292E+03  4.76637E+03  7.01071E+03
 -1.36252E+03  8.65009E+03 -8.43727E+03  7.17277E+03 -9.07631E+03  5.42551E+02 -7.54932E+03 -2.12029E+03
 -4.49310E+03 -8.18231E+03 -2.48545E+02 -6.59471E+03  2.18919E+03 -1.70943E+03  2.66601E+03 -1.52713E+03
  1.04530E+03 -1.33663E+03  2.14652E+03 -1.80923E+03  3.09175E+03 -1.09777E+03  3.97563E+03  9.93360E+02
  4.64123E+03  1.38570E+03  6.35764E+02  2.75592E+03 -1.84646E+03  2.24672E+03 -4.18367E+03  3.40277E+03
 -4.77016E+03 -9.95661E+02 -2.86014E+03 -3.49057E+03  5.65848E+02 -4.71155E+03  1.79371E+03 -5.99423E+03
  4.93464E+03 -3.45724E+03  6.60903E+03  2.50112E+01  5.11980E+03  3.96585E+03  1.17749E+03  4.83510E+03
 -1.10856E+03  5.92877E+03 -3.23192E+03  1.42827E+03 -2.58590E+03 -7.15763E+02  4.40184E+02 -1.04621E+03
 -2.61793E+02  2.70833E+02 -1.66577E+03  2.10573E+03 -2.57250E+03  7.72203E+02 -3.71914E+03 -2.49137E+02
 -1.53799E+03 -4.41318E+03  6.11188E+02 -3.62398E+03  2.46500E+03 -4.68341E+03  3.97158E+03 -1.08543E+03
  3.81606E+03  2.44620E+03  1.15893E+03  3.81736E+03  5.91109E+01  3.94285E+03 -1.96045E+03  1.28893E+03
 -4.23854E+03 -1.04553E+02 -3.33250E+03 -2.79196E+03  1.64822E+02 -4.18412E+03  1.88485E+03 -2.13631E+03
  2.90683E+03 -5.99927E+02  2.40648E+03  5.14283E+02 -1.74027E+02  2.09615E+03  9.66665E+02  7.80516E+02
  1.94285E+03  3.55207E+02  1.19433E+03  9.20423E+02  1.56291E+03  2.74213E+03  1.56327E+03  1.42295E+03
 -1.02018E+03  3.02645E+03 -2.37050E+03  4.73419E+03 -1.89899E+03  1.34956E+03 -5.15133E+03  5.88544E+01
 -2.00410E+03 -3.36173E+03  6.23138E+01 -4.07955E+03  1.87641E+03 -2.96310E+03  1.58736E+03 -2.56610E+01
  2.56096E+03  1.57989E+03  9.06030E+02  1.55157E+03 -1.10115E+02  6.19299E+02 -4.27773E+02  8.76036E+02
 -1.12495E+03 -9.69325E+02  1.23161E+03 -1.81056E+03  1.46404E+03 -1.07231E+03  9.49661E+02 -2.48971E+02
  1.08748E+03  2.24433E+02  8.24375E+02 -5.76046E+02  8.53732E+02  1.00554E+03  9.99161E+02 -2.73755E+02
 -8.08216E+02 -8.08716E+02  1.35464E+03  2.41401E+02  4.88885E+02  1.80445E+03  6.07851E+01  1.96478E+03
 -1.82173E+03  1.88390E+02 -1.65897E+03  6.18059E+02 -8.14915E+02 -1.17566E+03 -8.50475E+02 -8.44552E+02
  4.18780E+02 -9.40583E+02  2.00781E+03  5.80781E+02  1.39567E+03  1.41252E+03 -3.57547E+02  5.52426E+02
 -1.60724E+03  6.39504E+02 -9.87039E+02 -1.68409E+03 -2.84010E+02 -2.57647E+03  1.08838E+03 -7.57088E+02
  6.40419E+02 -4.00063E+02  1.13601E+03 -5.42178E+02  7.52109E+02  4.54292E+02  3.67366E+02  1.36427E+03
 -7.38823E+02  2.11008E+02 -1.42826E+03  5.85099E+02  4.01499E+02 -1.45331E+03  1.48590E+03 -9.85286E+02
  1.00908E+03 -4.32589E+02  2.36765E+03  7.94821E+02  9.53651E+02  1.27916E+03 -3.74900E+02  1.58171E+03
 -1.92144E+03 -3.79541E+01 -2.49177E+02 -5.95111E+02 -1.40238E+03 -1.44239E+03  8.86999E+02 -1.13624E+03
  8.16567E+01 -1.03355E+03  7.88605E+02 -4.02565E+02 -1.04832E+03  6.26685E+02  1.56194E+02  1.23307E+03
  4.92287E+01  1.47849E+03 -1.39594E+02  1.42311E+03 -2.89687E+02  5.25647E+02 -6.35585E+01 -2.44826E+02
  2.64881E+01  1.04888E+03 -2.18012E+03 -3.55174E+02 -5.24274E+02  7.76374E+02 -2.30694E+03 -5.75716E+02
 -2.24353E+03 -1.52138E+03 -3.66054E+02 -2.34769E+03  1.28602E+03 -2.48673E+03  2.01543E+03 -1.47847E+03
  2.50072E+03  8.61736E+02  2.86557E+02  1.33031E+03 -1.33855E+02  4.97356E+02  2.62118E+02  1.71706E+02
 -1.56896E+03  1.22912E+03 -1.32411E+03  6.20728E+02 -1.39369E+03 -5.24717E+02  2.03284E+02 -6.11994E+02
 -5.59452E+02 -3.08374E+02 -1.03082E+03  2.36198E+02 -6.99869E+01 -8.99622E+02 -1.64589E+03 -1.04126E+03
  5.10986E+02 -9.01949E+02  2.40410E+02 -3.13873E+02  8.34182E+02  1.51651E+03  9.11807E+02  1.64499E+03
  1.22419E+02  1.48468E+03 -1.10625E+03  1.31853E+03 -1.58189E+03 -5.79796E+02 -1.67092E+03 -1.96473E+03
 -6.30289E+02 -6.49660E+02  6.20070E+02 -1.06964E+02  8.51399E+01  1.03200E+02  2.49273E+03  3.20910E+02
  1.27843E+03  7.85330E+02 -1.10661E+02  2.32296E+02 -2.02478E+03  3.43336E+02 -1.05832E+03  4.79398E+01
  7.85434E+02 -2.19560E+02  6.06415E+02  6.41211E+02  8.17284E+02  7.64775E+02  2.67376E+02 -2.85235E+02
 -1.16732E+03  6.71325E+02  4.33703E+02  5.13242E+02  4.89042E+02 -2.60299E+02  1.90395E+02 -8.70327E+02
  7.73159E+01 -8.90273E+01 -2.98891E+02  7.78900E+01  1.95801E+02 -1.15851E+03  3.58401E+02  7.73375E+02
 -6.44591E+02  1.28447E+02 -6.95398E+01  1.40137E+03  1.97288E+02  1.17622E+03  3.62716E+02  4.56064E+02
  3.38912E+02 -5.42735E+02 -2.23497E+02  2.08296E+02 -3.63517E+02  8.69656E+02 -2.18644E+02 -1.18315E+02
 -1.78443E+03  2.58965E+02 -4.79843E+02 -1.38129E+03  6.13217E+02 -2.20145E+03  5.10871E+02 -1.35348E+02
  7.74081E+02 -4.61768E+02 -1.96460E+02 -1.72693E+02 -5.76850E+02  9.49557E+02 -1.57589E+03  5.04762E+02
