 $NMID ID='MM_0lb_SNR200_10hz_g60_13.RAW', FMTDAT='(8E13.5)'
 TRAMP=1., VOLUME=1. $END
  3.09732E+05  3.06622E+02  3.38426E+05  2.51133E+05  8.71253E+04  3.39042E+05 -1.31706E+05  2.52583E+05
 -1.91893E+05  8.39851E+04 -1.12808E+05 -3.21272E+04  1.07749E+03 -5.12220E+04  5.34141E+04 -9.11264E+02
  3.43768E+04  5.28436E+04 -1.59784E+04  7.73137E+04 -5.97480E+04  6.44701E+04 -8.43583E+04  3.39598E+04
 -8.17098E+04 -1.16614E+04 -5.80969E+04 -5.29180E+04 -1.63231E+04 -7.24513E+04  2.71708E+04 -4.53748E+04
  4.09965E+04  3.38011E+03  1.79517E+04  4.74357E+04 -3.60984E+04  4.74747E+04 -6.69398E+04  9.83907E+01
 -5.53364E+04 -5.73669E+04 -7.24165E+03 -7.87833E+04  3.53789E+04 -5.59668E+04  5.04453E+04 -1.76385E+04
  4.69013E+04  1.15558E+04  3.21521E+04  2.61609E+04  1.63089E+04  3.09325E+04 -5.30076E+03  2.77270E+04
 -2.28390E+04  1.25745E+04 -1.74578E+04 -3.83748E+03  7.13869E+03 -7.43179E+03  2.31181E+04  1.37404E+04
  5.70394E+03  3.84057E+04 -3.45974E+04  3.64382E+04 -6.59922E+04  1.33037E+03 -5.84504E+04 -4.36836E+04
 -1.16633E+04 -6.74361E+04  4.30853E+04 -4.65102E+04  6.16462E+04 -4.28131E+03  3.72522E+04  3.25698E+04
 -5.81119E+03  4.02198E+04 -3.29076E+04  1.82696E+04 -3.27490E+04 -3.46920E+03 -1.97668E+04 -1.06334E+04
 -1.00012E+04 -1.51830E+04 -1.20434E+03 -2.04645E+04  9.45000E+03 -2.35347E+04  1.50842E+04 -1.08294E+04
  1.07751E+04  5.58782E+03 -1.01450E+04  1.39409E+04 -2.40065E+04 -6.88467E+03 -8.12160E+03 -3.75125E+04
  2.42443E+04 -4.65353E+04  5.22788E+04 -1.98983E+04  4.86480E+04  2.04305E+04  1.66819E+04  4.60100E+04
 -1.79330E+04  3.66454E+04 -2.73896E+04  4.17674E+03 -1.13062E+04 -3.01289E+04  2.16168E+04 -3.78596E+04
  4.51200E+04 -1.15847E+04  4.21341E+04  2.54419E+04  2.07774E+04  5.13176E+04 -7.95833E+03  5.74010E+04
 -3.60512E+04  3.87731E+04 -4.81972E+04  1.01683E+04 -4.80346E+04 -1.93466E+04 -2.51481E+04 -4.20227E+04
  7.61220E+03 -4.31224E+04  3.38610E+04 -1.79529E+04  3.25361E+04  1.29261E+04  5.19948E+03  2.13927E+04
 -1.39819E+04  1.08174E+04 -1.07894E+04 -8.57605E+03  5.48439E+03 -1.12869E+04  1.94252E+04  6.69153E+03
  1.63887E+04  2.23530E+04 -5.07506E+03  2.66859E+04 -2.32771E+04  1.37277E+04 -3.17402E+04 -2.61495E+03
 -2.56563E+04 -1.76163E+04 -1.16174E+04 -2.58014E+04  3.58582E+03 -2.66212E+04  1.91421E+04 -2.35320E+04
  3.38934E+04 -1.37482E+04  3.79729E+04  4.76448E+03  2.66872E+04  2.47513E+04  3.38192E+03  4.06685E+04
 -1.96186E+04  3.53039E+04 -3.02166E+04  1.25530E+04 -2.28120E+04 -1.03000E+04 -5.49631E+03 -1.18212E+04
  7.38243E+02 -2.49212E+03 -7.33825E+03  8.28973E+03 -1.96632E+04  4.83440E+03 -1.96998E+04 -9.52024E+03
 -1.25393E+04 -2.31714E+04  5.54433E+03 -2.81137E+04  1.83345E+04 -1.94440E+04  2.51053E+04 -3.11319E+03
  1.40528E+04  1.61437E+04 -5.18833E+02  2.38368E+04 -1.70239E+04  1.28054E+04 -2.44386E+04 -3.55301E+03
 -1.66921E+04 -2.04352E+04 -1.04331E+03 -2.88500E+04  1.20184E+04 -2.38266E+04  2.23485E+04 -1.19993E+04
  2.37514E+04 -1.59210E+02  1.74354E+04  4.89421E+03  9.06306E+03  1.81514E+03  1.34517E+04 -7.68063E+02
  2.17179E+04  2.69201E+03  2.43772E+04  1.72232E+04  1.75071E+04  3.75116E+04 -1.65558E+03  4.36383E+04
 -2.44948E+04  3.66129E+04 -4.12125E+04  1.96113E+04 -4.53853E+04 -2.23485E+03 -3.44855E+04 -2.71652E+04
 -1.54081E+04 -3.63870E+04  1.37069E+04 -3.24674E+04  2.79925E+04 -1.79126E+04  2.63875E+04  8.31514E+03
  7.20571E+03  1.94013E+04 -1.02532E+04  1.58626E+04 -2.01183E+04  1.13243E+03 -1.50408E+04 -1.38350E+04
 -6.31440E+02 -2.01094E+04  1.01250E+04 -1.46524E+04  1.35699E+04 -1.16685E+02  2.77005E+03  1.00996E+04
 -8.43557E+03  4.38697E+03 -7.92330E+03 -7.16859E+03 -2.35843E+03 -1.98509E+04  1.18894E+04 -1.93068E+04
  2.23694E+04 -1.23932E+04  2.67410E+04  4.28214E+03  2.41009E+04  2.04894E+04  1.12223E+04  2.88817E+04
 -5.61109E+03  3.06027E+04 -1.92577E+04  1.89298E+04 -2.27840E+04  4.36660E+03 -1.60564E+04 -7.14479E+03
 -7.48757E+03 -5.68196E+03 -9.50567E+02  1.13242E+03 -4.77375E+03  4.20278E+03 -6.89979E+03  5.48123E+03
 -1.27077E+04 -5.87160E+02 -1.64098E+04 -1.19216E+04 -5.96362E+03 -2.05944E+04  5.70972E+03 -1.64855E+04
  1.37150E+04 -5.35650E+03  9.96384E+03  2.35209E+03  8.82891E+01  6.52369E+03 -7.76967E+03 -1.14514E+03
 -6.53626E+03 -9.44083E+03 -8.42416E+02 -1.43584E+04  8.89166E+03 -1.58394E+04  1.90172E+04 -8.41379E+03
  2.33042E+04  2.83103E+03  1.80207E+04  1.44363E+04  2.36530E+03  1.99704E+04 -9.32179E+03  1.52000E+04
 -1.27655E+04  4.67950E+03 -5.49975E+03 -3.33747E+03  2.01673E+03 -3.58530E+03  8.75821E+03 -1.01971E+03
  6.44450E+03  6.78946E+03 -1.90549E+02  1.17115E+04 -9.94976E+03  1.23430E+04 -1.58083E+04  3.66170E+03
 -1.11733E+04 -9.05837E+03  9.55505E+02 -1.32804E+04  7.99825E+03 -6.86096E+03  9.21621E+03  2.76789E+03
  2.65944E+03  1.00384E+04 -7.44542E+03  1.23796E+04 -1.41318E+04  5.93132E+03 -1.48193E+04 -5.04412E+03
 -7.17931E+03 -1.56498E+04  3.83255E+03 -1.54791E+04  1.46157E+04 -1.09581E+04  1.67856E+04  3.91142E+03
  9.65373E+03  1.19282E+04 -1.60012E+03  1.49632E+04 -1.09027E+04  9.20988E+03 -1.39906E+04 -1.56425E+03
 -1.09494E+04 -1.09355E+04 -1.61883E+03 -1.12152E+04  5.81982E+03 -1.06487E+04  7.74127E+03 -2.19618E+03
  5.58208E+03  2.45550E+03  2.43591E+02  2.11238E+03 -1.70453E+03 -2.21938E+03  3.15703E+03 -7.90276E+03
  1.01276E+04 -3.52793E+03  1.48799E+04  1.81465E+03  1.51172E+04  9.07014E+03  9.61670E+03  2.22988E+04
 -3.80566E+03  2.36971E+04 -1.88491E+04  1.75779E+04 -2.54586E+04  3.18055E+03 -2.05196E+04 -8.76212E+03
 -9.88979E+03 -1.62098E+04 -5.66538E+02 -1.50829E+04  6.03109E+03 -9.76274E+03  4.16584E+03 -5.34672E+03
  4.49526E+03 -2.87595E+03  4.14199E+03 -4.00673E+03  5.19219E+03 -4.92299E+03  8.64107E+03 -1.74376E+03
  1.17130E+04  2.15549E+03  4.80682E+03  8.27341E+03 -2.89409E+03  1.13585E+04 -1.16955E+04  9.98982E+03
 -1.54948E+04 -1.97223E+03 -7.90559E+03 -1.10328E+04 -2.41526E+03 -1.56122E+04  7.93414E+03 -1.52241E+04
  1.59214E+04 -7.51866E+03  1.85761E+04  3.57029E+03  1.19549E+04  1.45048E+04  2.92016E+03  1.72448E+04
 -8.08858E+03  1.32957E+04 -1.00553E+04  4.66487E+03 -6.83478E+03 -1.89709E+03 -3.11169E+03 -3.17487E+03
 -1.34729E+03 -3.11289E+03 -2.22968E+03  3.03235E+03 -6.08765E+03  4.27915E+03 -9.51210E+03 -1.45387E+03
 -6.56717E+03 -9.92845E+03 -1.87619E+02 -1.45622E+04  9.83903E+03 -1.43382E+04  1.41641E+04 -4.20934E+03
  1.42610E+04  8.03744E+03  5.51798E+03  1.21193E+04 -1.66912E+03  1.42873E+04 -9.73596E+03  9.81719E+03
 -1.37909E+04  8.06026E+02 -1.17144E+04 -9.00351E+03 -1.32635E+03 -1.23478E+04  5.72093E+03 -8.04823E+03
  8.67725E+03 -4.43913E+03  6.03559E+03  2.96640E+03  1.55301E+03  4.79063E+03  2.30101E+03  2.94495E+03
  2.70488E+03  1.24688E+03  3.45929E+03  2.58297E+03  4.04812E+03  4.53960E+03  3.87024E+03  7.33401E+03
 -1.92054E+03  1.06222E+04 -9.99463E+03  1.20507E+04 -1.58874E+04  2.41108E+03 -1.38184E+04 -7.32689E+03
 -5.60777E+03 -1.57391E+04  3.38766E+03 -1.49824E+04  9.21750E+03 -8.64667E+03  1.16746E+04 -2.40037E+03
  1.06663E+04  4.92988E+03  1.48969E+03  8.42312E+03 -3.75067E+03  5.67777E+03 -6.02611E+03 -1.73503E+03
 -2.92404E+03 -6.92044E+03  3.90202E+03 -7.07238E+03  6.51898E+03 -3.58051E+03  5.57500E+03  1.21455E+03
  4.51989E+03  3.49642E+03 -1.06386E+02  1.84604E+03  8.11793E+02  1.12023E+03  1.72908E+03  9.55885E+01
  1.76501E+03  2.80080E+02  6.58190E+03  3.50356E+03  2.24908E+03  7.28456E+03 -3.12351E+03  1.08746E+04
 -8.21791E+03  7.19212E+03 -7.95850E+03  2.09460E+03 -8.71246E+03 -4.25286E+03 -3.56540E+03 -6.33436E+03
  1.57107E+02 -6.30225E+03  5.05031E+03 -2.66305E+03  2.50576E+03  2.78655E+03  1.88329E+02  3.95175E+03
 -5.95782E+03  1.73970E+03 -6.46555E+03 -3.34476E+03 -3.50101E+03 -7.88272E+03  1.13672E+03 -8.29526E+03
  4.96908E+03 -3.65527E+03  8.15202E+03 -9.66766E+02  5.71421E+03  1.52647E+03  8.18040E+02  4.83758E+03
 -3.04178E+03  1.30536E+03 -3.33879E+03 -2.06936E+03  3.59611E+02 -6.09514E+03  6.71435E+03 -4.16965E+03
  1.03084E+04  1.42258E+03  8.87785E+03  5.02391E+03  2.32014E+03  9.60858E+03 -2.44480E+03  8.23283E+03
 -7.31050E+03  4.03758E+03 -7.95609E+03 -2.23419E+03 -3.20030E+03 -4.79187E+03  7.02378E+02 -6.03354E+03
  7.90994E+03 -1.09563E+03  6.87006E+03  2.26796E+03  2.23802E+03  6.08027E+03 -1.35427E+02  4.44306E+03
 -1.67275E+03  2.82058E+03 -2.01477E+03  1.03707E+03 -1.43396E+03  4.07994E+02 -2.00804E+03  1.31939E+03
 -3.15010E+03  4.41907E+03 -4.83426E+03  2.76357E+03 -9.63679E+03  6.13274E+02 -1.22841E+04 -4.94466E+03
 -4.99700E+03 -1.27519E+04  3.79196E+03 -1.37510E+04  8.60095E+03 -1.08172E+04  1.23607E+04 -4.09318E+03
  1.22637E+04  2.90576E+03  8.74804E+03  8.33494E+03  7.28959E+02  1.05976E+04 -4.25711E+03  7.03732E+03
 -5.59746E+03  3.45256E+03 -1.08000E+03 -1.47299E+03 -1.75499E+03 -1.33236E+03 -2.22400E+03 -3.06921E+02
 -1.69279E+03  1.00138E+03 -2.68845E+03 -2.23761E+03 -1.84643E+03 -2.95536E+03 -1.12824E+03 -3.71699E+03
  3.79725E+03 -3.46587E+03  5.91774E+03 -1.11360E+03  7.38699E+03  4.53101E+03  2.98968E+03  9.10676E+03
 -4.63832E+03  1.15666E+04 -1.10200E+04  6.79757E+03 -1.17473E+04 -2.19976E+03 -8.36293E+03 -5.14822E+03
 -3.15819E+03 -1.03635E+04  1.89612E+03 -8.18261E+03  5.90717E+03 -5.89228E+03  8.30955E+03 -5.44636E+02
  3.02943E+03  2.79834E+03 -1.73914E+03  3.76504E+03 -1.64788E+03 -8.90426E+02  1.64747E+03 -3.60464E+03
  3.02105E+03 -9.02639E+02  5.78980E+03  1.75947E+03  3.11303E+03  3.42439E+03  1.05202E+03  5.56529E+03
 -4.73485E+03  3.43160E+03 -6.38595E+03  9.72703E+02 -5.94574E+03 -4.38183E+03 -1.36030E+03 -8.09920E+03
  4.02456E+03 -7.15206E+03  7.45497E+03 -2.37785E+03  7.67913E+03  1.95470E+03  4.01071E+03  5.01889E+03
  7.46911E+02  5.81360E+03 -1.68345E+03  4.32732E+03 -5.16637E+03  1.94091E+03 -4.15422E+03  9.03819E+02
 -1.06999E+03 -4.36316E+02 -2.38382E+03  1.05208E+03 -3.34612E+03  1.54336E+03 -6.44745E+03 -2.68595E+02
 -5.11933E+03 -4.67457E+03 -2.69969E+03 -6.22947E+03  1.14044E+03 -5.93467E+03  5.37903E+03 -2.59027E+03
  5.21485E+03 -1.74176E+02  2.71263E+03  5.73551E+03 -1.34650E+03  7.34273E+03 -5.97294E+03  5.64932E+03
