 $NMID ID='MM_0lb_SNR200_20hz_g50_59.RAW', FMTDAT='(8E13.5)'
 TRAMP=1., VOLUME=1. $END
  3.10086E+05 -2.92278E+02  3.37741E+05  2.50629E+05  8.43783E+04  3.37112E+05 -1.32393E+05  2.50592E+05
 -1.89921E+05  8.21318E+04 -1.10865E+05 -3.23302E+04  1.50351E+03 -5.00407E+04  5.39566E+04  8.84752E+02
  3.56697E+04  5.20658E+04 -1.63440E+04  7.36751E+04 -6.10949E+04  6.38248E+04 -8.28953E+04  3.14569E+04
 -7.98046E+04 -1.09978E+04 -5.63639E+04 -5.05260E+04 -1.51910E+04 -6.77930E+04  2.76208E+04 -4.40801E+04
  3.98348E+04  4.50331E+03  1.57803E+04  4.64806E+04 -3.36630E+04  4.53137E+04 -6.57802E+04 -4.26593E+02
 -5.19176E+04 -5.57876E+04 -6.35803E+03 -7.45140E+04  3.31356E+04 -5.19264E+04  4.55797E+04 -1.61547E+04
  4.07545E+04  1.12756E+04  2.99927E+04  2.39869E+04  1.50355E+04  2.83211E+04 -4.75200E+03  2.69920E+04
 -2.17424E+04  1.21083E+04 -1.97552E+04 -4.54056E+03  3.87437E+03 -7.47495E+03  2.02470E+04  1.06408E+04
  8.00402E+03  3.22811E+04 -2.97995E+04  3.42451E+04 -6.17000E+04  1.48681E+03 -5.45408E+04 -4.15547E+04
 -1.25607E+04 -6.11593E+04  3.75916E+04 -4.25213E+04  5.37202E+04 -2.29121E+03  3.14594E+04  3.05649E+04
 -5.94728E+03  3.24209E+04 -2.92272E+04  1.24189E+04 -2.78208E+04 -5.26965E+03 -1.35075E+04 -1.10614E+04
 -7.18774E+03 -1.05416E+04 -2.73920E+02 -1.61930E+04  6.96308E+03 -2.31484E+04  1.42782E+04 -1.41762E+04
  1.28498E+04  4.40807E+03 -6.54960E+03  1.31893E+04 -1.90711E+04 -1.24376E+03 -7.30230E+03 -3.07448E+04
  1.98302E+04 -3.97647E+04  4.50803E+04 -1.80122E+04  4.02926E+04  1.79420E+04  1.38063E+04  4.14358E+04
 -1.43707E+04  3.06153E+04 -2.32336E+04  1.37483E+03 -8.30121E+03 -2.68319E+04  2.00189E+04 -3.14326E+04
  3.74909E+04 -7.13803E+03  3.09063E+04  2.27017E+04  1.46481E+04  4.21534E+04 -8.23845E+03  4.44426E+04
 -2.73000E+04  2.91522E+04 -3.66969E+04  8.75297E+03 -3.80528E+04 -1.44891E+04 -2.18687E+04 -3.29140E+04
  7.48516E+03 -3.42162E+04  2.93721E+04 -1.20371E+04  2.64899E+04  1.01131E+04  2.09503E+03  1.76126E+04
 -1.40491E+04  8.11759E+03 -9.98358E+03 -7.67116E+03  6.57473E+03 -9.82287E+03  1.69377E+04  6.91528E+03
  1.13208E+04  2.09208E+04 -6.66298E+03  2.36356E+04 -2.10413E+04  8.64532E+03 -2.50673E+04 -6.59600E+03
 -1.56519E+04 -1.65852E+04 -5.43067E+03 -1.61880E+04  4.47058E+03 -1.43711E+04  1.18262E+04 -1.39469E+04
  2.05367E+04 -1.14618E+04  2.70541E+04 -6.41419E+00  2.16646E+04  1.60058E+04  4.84105E+03  3.11872E+04
 -1.54545E+04  2.75565E+04 -2.58259E+04  8.24044E+03 -1.94182E+04 -1.00555E+04 -4.00655E+03 -1.42519E+04
  3.55169E+03 -5.31930E+03 -3.09626E+03  4.78935E+03 -1.25227E+04  4.80921E+03 -1.27942E+04 -4.04282E+03
 -8.89097E+03 -1.47336E+04  3.95321E+03 -1.91453E+04  1.22815E+04 -1.37297E+04  1.36915E+04 -2.15350E+03
  8.53854E+03  1.09807E+04 -1.17249E+03  1.60501E+04 -9.34828E+03  8.07328E+03 -1.46281E+04 -3.20813E+03
 -1.05718E+04 -1.25375E+04 -1.10473E+03 -1.97303E+04  8.03427E+03 -1.39193E+04  1.52348E+04 -5.33515E+03
  1.46660E+04  3.58023E+02  1.02811E+04  3.64897E+03  3.80533E+03  1.04247E+03  6.45191E+03 -1.01419E+03
  1.30031E+04  4.21880E+03  1.46735E+04  1.26130E+04  7.69829E+03  2.27856E+04 -3.89047E+03  2.51624E+04
 -1.53236E+04  1.89032E+04 -2.15674E+04  7.85855E+03 -2.39769E+04 -2.11434E+03 -1.96429E+04 -1.30897E+04
 -9.82282E+03 -1.91892E+04  4.52378E+03 -1.85854E+04  1.62234E+04 -9.37143E+03  1.44028E+04  3.58091E+03
  6.92140E+03  1.05535E+04 -6.02564E+03  9.96586E+03 -1.33740E+04  3.16893E+03 -1.00175E+04 -7.22714E+03
 -2.24936E+02 -1.17592E+04  5.62220E+03 -8.95334E+03  6.74711E+03 -1.66314E+03  2.60021E+03  4.04495E+03
 -5.39187E+03  1.50330E+03 -2.62205E+03 -4.47246E+03  1.86153E+03 -9.71860E+03  8.06268E+03 -8.68768E+03
  1.20274E+04 -4.70175E+03  1.01163E+04  3.03899E+03  9.10465E+03  7.65663E+03  4.28299E+03  1.23790E+04
 -1.12158E+03  1.42400E+04 -9.45861E+03  9.33428E+03 -1.07043E+04  3.30965E+03 -8.50847E+03 -2.38334E+03
 -5.11144E+03 -3.15636E+03 -1.09428E+03  9.77415E+02 -1.95734E+03  2.78271E+03 -4.04728E+03  3.16980E+03
 -7.83908E+03 -5.83266E+02 -8.65785E+03 -6.90729E+03 -3.28782E+03 -1.09485E+04  1.94071E+03 -8.36353E+03
  6.17340E+03 -4.00169E+03  5.59409E+03  2.10148E+03  5.05922E+02  3.93968E+03 -3.65737E+03  1.27410E+03
 -3.51042E+03 -5.53525E+03 -1.07255E+03 -7.01130E+03  3.66393E+03 -6.85521E+03  9.20418E+03 -3.13574E+03
  1.14143E+04 -2.49148E+02  6.35919E+03  5.81948E+03  2.28870E+03  6.76918E+03 -4.45215E+03  7.09345E+03
 -6.65759E+03  2.50847E+03 -3.25495E+03 -3.81675E+02  1.09512E+03 -1.37255E+03  4.16968E+03 -7.25355E+02
  3.56230E+03  2.11780E+03  9.00266E+02  5.62799E+03 -3.81227E+03  6.32667E+03 -6.61349E+03  1.18649E+03
 -5.29273E+03 -3.46054E+03 -3.88349E+01 -6.06274E+03  3.61281E+03 -2.36454E+03  2.68296E+03  2.95522E+02
  2.73304E+02  3.26201E+03 -5.10573E+03  5.08107E+03 -4.12153E+03  2.43538E+03 -3.95522E+03 -1.58931E+03
 -2.33480E+03 -6.12348E+03  1.19120E+03 -6.77320E+03  4.63451E+03 -4.25096E+03  5.73831E+03  4.42515E+02
  4.60243E+03  5.15400E+03  5.09669E+02  6.57778E+03 -4.48591E+03  3.38327E+03 -4.66568E+03 -1.18313E+03
 -6.24558E+03 -5.02740E+03 -1.72771E+03 -4.35467E+03  2.82919E+03 -4.35003E+03  3.68183E+03 -2.17480E+03
  3.31238E+03 -5.68703E+02 -1.48807E+02  1.01650E+03  1.34540E+03  9.31332E+01 -6.35308E+02 -1.27603E+03
  2.95142E+03 -2.54103E+02  4.73762E+03  1.83422E+03  4.44941E+03  2.46589E+03  4.96109E+03  5.97312E+03
 -7.32577E+02  7.38398E+03 -7.70023E+03  5.48221E+03 -9.31526E+03  9.65452E+02 -5.67028E+03 -1.89983E+03
 -4.82844E+03 -5.29008E+03 -5.45696E+02 -5.31599E+03  2.49777E+03 -2.84061E+03  1.67768E+03 -2.48873E+03
  9.26036E+02 -1.51866E+03  2.22237E+03 -3.06617E+03  3.43270E+03 -8.67722E+02  3.33625E+03 -1.65007E+02
  2.62837E+03  2.03986E+03  1.17607E+03  3.29328E+03 -5.91515E+02  1.89737E+03 -4.84019E+03  1.47395E+03
 -3.48583E+03 -1.41439E+03 -1.91368E+03 -3.62885E+03  3.78637E+02 -3.99022E+03  4.46133E+03 -5.17818E+03
  3.26466E+03 -2.23560E+03  4.71988E+03 -7.96080E-01  5.34630E+03  2.77771E+03  3.87672E+02  5.14755E+03
 -1.18436E+03  4.88497E+03 -2.45459E+03  1.45521E+03 -1.41328E+03 -1.11786E+03 -7.16264E+02 -4.36919E+02
  7.62473E+02 -7.27293E+02  4.55763E+02  1.71498E+03 -1.03228E+03  2.20125E+03 -4.06970E+03 -7.62951E+02
 -1.20578E+03 -2.91373E+03  1.38445E+03 -4.07703E+03  2.04922E+03 -4.00108E+03  3.53198E+03 -7.51818E+02
  3.79626E+03  2.85959E+03  5.40607E+02  2.52489E+03 -1.19862E+03  3.18906E+03 -1.51122E+03  3.24418E+03
 -3.88686E+03 -1.86522E+02 -3.32448E+03 -2.11672E+03 -5.53652E+02 -2.11519E+03  2.06672E+03 -1.91451E+03
  2.32179E+03 -1.61626E+03  2.05114E+03 -4.06306E+02  6.21086E+02  8.61203E+02  1.68754E+03 -4.73194E+02
  2.00068E+02  1.44406E+03  1.18538E+03 -4.52045E+01  5.70953E+02  2.37959E+03  1.89884E+03  2.63189E+03
 -1.19497E+03  1.53480E+03 -2.59898E+03  3.27594E+03 -2.39292E+03  8.40601E+02 -3.09925E+03 -2.63558E+02
 -2.98219E+02 -2.56322E+03  1.31848E+03 -4.14819E+03  6.00965E+02 -5.87134E+02  3.19669E+03 -1.08532E+03
  1.40925E+03  1.37950E+03  8.72131E+02  2.24928E+03 -5.49271E+01  4.36643E+02 -4.72206E+02  1.66913E+03
  1.21110E+02 -1.13135E+03  1.05364E+03 -8.35505E+02  7.31539E+02 -1.19680E+03  1.19523E+03  1.16033E+03
  8.12829E+02  1.11000E+03  9.08532E+02 -1.02055E+03  1.79881E+01 -4.47539E+02  1.49026E+03  4.23510E+02
 -6.60122E+02  5.03865E+01  1.86631E+03  5.59881E+02  8.36992E+02  1.65620E+03 -5.54434E+02  2.09865E+03
 -7.17894E+02  9.34935E+02 -1.78554E+03 -8.94017E+02 -1.33610E+03 -2.29499E+02 -7.76270E+02 -1.03606E+03
  1.00788E+03 -1.66229E+03 -5.60184E+02 -3.82307E+02  1.29278E+03  5.33890E+02  3.72574E+01  1.09824E+03
 -2.37571E+03  1.21206E+03  6.74577E+02 -7.94877E+02 -3.17408E+02 -8.08732E+02  7.68669E+01 -1.64944E+03
 -2.24854E+02 -7.94583E+02  3.75984E+02 -2.55524E+02  2.16323E+03 -1.03981E+03  8.29605E+02  5.38133E+02
 -1.33806E+02  4.15555E+02  1.52287E+02 -1.00795E+03  8.10433E+02 -5.53174E+02  5.59367E+02 -3.51243E+02
  1.04099E+03 -4.11644E+02  2.95453E+03 -5.30823E+02  1.18947E+03  1.46390E+03  2.46704E+02  8.60538E+02
 -1.87582E+03  5.12799E+01 -1.96026E+03  8.74739E+01  4.30601E+02 -8.23213E+02  3.39215E+02 -1.18695E+03
  1.13677E+01 -3.43115E+02  1.12018E+03  1.77740E+03  7.80217E+02  5.12621E+02 -1.67827E+02  1.02827E+03
 -4.43542E+02  8.23646E+02 -3.01459E+02  6.15729E+01 -2.27572E+02  2.08322E+02  3.18807E+02  6.69327E+02
 -1.40338E+03  5.30440E+02  3.76304E+01 -1.32617E+02 -1.27066E+03 -8.63577E+02 -2.16696E+03 -2.66368E+02
 -1.44175E+03 -1.61251E+03  4.79795E+02 -1.92852E+03  7.05252E+02 -1.33835E+03  2.32859E+03 -1.15152E+03
  1.62880E+03  1.21862E+03  1.31326E+02  1.25841E+03  2.49749E+02  7.21055E+02  6.08811E+02  8.67421E+02
 -5.32950E+02  5.92701E+02 -1.25504E+02 -6.92701E+01 -1.02558E+03 -8.23268E+02 -1.72462E+02 -1.48057E+02
 -1.15540E+03 -5.33081E+02 -2.40509E+02  1.95675E+02  1.04004E+03 -2.45970E+02 -5.83743E+02 -6.75218E+02
  1.29753E+03 -4.34468E+02  7.45471E+01  6.73315E+02  2.47449E+02  1.38059E+03  1.54408E+01  1.03459E+03
 -9.98850E+02  1.26125E+03 -1.16939E+03  7.94222E+02 -1.11981E+03  2.16437E+01 -9.45044E+02 -1.97697E+02
 -1.10640E+03 -7.23706E+02 -3.17297E+02 -4.38374E+02  3.32110E+01  2.77429E+02  2.47931E+02  6.32734E+02
  9.89982E+02  4.04312E+02 -1.55595E+02 -2.23358E+02 -6.25708E+02  1.13188E+03 -4.73022E+02 -3.32768E+02
  1.43589E+03  7.53501E+02  4.09993E+02 -4.33945E+02  9.17379E+01  6.17595E+02  1.79503E+03 -9.48344E+02
 -1.29680E+03  2.58762E+02 -9.11226E+02  1.87556E+01 -5.58624E+02 -1.51692E+02  5.85504E+02 -2.91535E+02
  1.16873E+03 -9.02690E+02  1.36250E+03  5.04097E+02  4.49235E+02 -8.65910E+02 -3.09180E+01  4.99970E+02
  1.10515E+03  6.70638E+02 -3.87712E+02 -3.76314E+02 -8.17484E+02  9.61839E+02 -7.74526E+02  3.75381E+02
 -4.00374E+02  8.23936E+02  5.41805E+02  4.30973E+02 -4.01687E+02  2.00943E+02 -2.20005E+02 -1.17915E+03
 -2.23408E+03  3.46516E+02 -5.96466E+02 -6.78670E+02  1.59330E+03 -7.86135E+02  2.28733E+02 -2.64506E+01
  2.87176E+02  6.79951E+02 -1.83821E+01  3.85299E+01  6.79777E+02 -5.62059E+02  4.03168E+02  9.62575E+02
