 $NMID ID='MM_0lb_SNR200_16hz_g55_37.RAW', FMTDAT='(8E13.5)'
 TRAMP=1., VOLUME=1. $END
  3.10220E+05  9.77204E+02  3.36948E+05  2.51165E+05  8.49624E+04  3.38684E+05 -1.33744E+05  2.50602E+05
 -1.89527E+05  8.38236E+04 -1.11935E+05 -3.33644E+04  6.87756E+02 -4.97955E+04  5.39355E+04 -4.48712E+02
  3.58600E+04  5.31924E+04 -1.70445E+04  7.63709E+04 -6.11819E+04  6.38036E+04 -8.38982E+04  3.13443E+04
 -8.12935E+04 -1.12706E+04 -5.70052E+04 -5.11713E+04 -1.47695E+04 -6.99122E+04  2.72585E+04 -4.47402E+04
  4.08427E+04  4.18942E+03  1.55413E+04  4.81236E+04 -3.46199E+04  4.73269E+04 -6.81851E+04  1.50785E+02
 -5.32005E+04 -5.69352E+04 -6.33938E+03 -7.67657E+04  3.35062E+04 -5.45770E+04  4.88013E+04 -1.79245E+04
  4.33410E+04  1.05035E+04  3.13762E+04  2.57369E+04  1.45726E+04  2.94819E+04 -4.73271E+03  2.79368E+04
 -2.17729E+04  1.23119E+04 -1.97637E+04 -4.92388E+03  4.81362E+03 -7.55209E+03  2.27238E+04  1.13963E+04
  7.93914E+03  3.53265E+04 -3.09974E+04  3.47548E+04 -6.37659E+04  1.28305E+03 -5.61090E+04 -4.18015E+04
 -1.24311E+04 -6.32570E+04  3.85157E+04 -4.45730E+04  5.75103E+04 -2.81122E+03  3.34775E+04  3.10051E+04
 -5.83665E+03  3.48340E+04 -2.96582E+04  1.50948E+04 -3.08137E+04 -5.27252E+03 -1.55514E+04 -1.20412E+04
 -8.25301E+03 -1.31597E+04 -1.46756E+03 -1.79703E+04  8.18042E+03 -2.30057E+04  1.65865E+04 -1.27956E+04
  1.13070E+04  5.69485E+03 -8.01168E+03  1.31707E+04 -2.10248E+04 -3.23386E+03 -8.92628E+03 -3.37844E+04
  2.18960E+04 -4.34313E+04  4.80273E+04 -2.01517E+04  4.35048E+04  1.98750E+04  1.47099E+04  4.41288E+04
 -1.58272E+04  3.38452E+04 -2.41096E+04  1.55290E+03 -1.01752E+04 -2.76561E+04  2.05581E+04 -3.42420E+04
  4.07854E+04 -8.84414E+03  3.60673E+04  2.31471E+04  1.68434E+04  4.51949E+04 -7.96318E+03  4.97367E+04
 -3.11838E+04  3.25358E+04 -4.12821E+04  8.39534E+03 -4.16804E+04 -1.60008E+04 -2.37192E+04 -3.76584E+04
  7.41302E+03 -3.59238E+04  3.06854E+04 -1.39542E+04  2.84706E+04  1.07781E+04  4.67085E+03  1.84703E+04
 -1.26851E+04  7.42624E+03 -1.04880E+04 -7.35308E+03  6.60724E+03 -9.32140E+03  1.74038E+04  6.48448E+03
  1.48096E+04  2.15148E+04 -6.40312E+03  2.46553E+04 -2.25018E+04  1.18511E+04 -2.79344E+04 -4.95386E+03
 -2.10399E+04 -1.77650E+04 -7.90503E+03 -1.89427E+04  4.72516E+03 -1.95253E+04  1.46145E+04 -1.61064E+04
  2.58154E+04 -1.27854E+04  3.21451E+04  2.49470E+03  2.23776E+04  1.97813E+04  3.40132E+03  3.54557E+04
 -1.75062E+04  2.99499E+04 -2.71119E+04  1.06864E+04 -1.99139E+04 -1.02812E+04 -4.56804E+03 -1.44950E+04
  2.05208E+03 -3.35504E+03 -4.12120E+03  6.40370E+03 -1.49237E+04  5.64073E+03 -1.59164E+04 -7.47429E+03
 -7.38522E+03 -1.76905E+04  4.79945E+03 -2.18501E+04  1.52929E+04 -1.55737E+04  1.74430E+04 -1.28284E+03
  1.02120E+04  1.28329E+04 -9.85836E+02  1.73993E+04 -1.29258E+04  1.03440E+04 -1.83745E+04 -4.42563E+03
 -1.29692E+04 -1.55613E+04 -1.86902E+03 -2.09085E+04  9.18422E+03 -1.74390E+04  1.85208E+04 -8.85553E+03
  1.67531E+04  4.50159E+02  1.23765E+04  4.24111E+03  5.86239E+03  2.41172E+02  9.30570E+03 -1.68274E+03
  1.60518E+04  3.18050E+03  1.90337E+04  1.40087E+04  1.15064E+04  2.86532E+04 -1.52515E+03  3.37404E+04
 -1.85927E+04  2.60466E+04 -2.96095E+04  1.21323E+04 -3.06597E+04 -1.71543E+03 -2.63484E+04 -1.79743E+04
 -1.12992E+04 -2.46673E+04  9.25058E+03 -2.29179E+04  2.05240E+04 -1.26261E+04  1.89510E+04  4.26752E+03
  7.31318E+03  1.36981E+04 -8.94945E+03  1.21006E+04 -1.51246E+04  2.33601E+03 -1.19495E+04 -9.26387E+03
  1.55965E+02 -1.41376E+04  7.66457E+03 -1.02144E+04  1.01394E+04 -7.17997E+02  9.92364E+02  6.32801E+03
 -6.67041E+03  2.47525E+03 -6.55870E+03 -4.06836E+03  2.00318E+02 -1.30934E+04  9.11553E+03 -1.31545E+04
  1.49042E+04 -6.35682E+03  1.61283E+04  1.10107E+03  1.30698E+04  1.18412E+04  7.47779E+03  1.91069E+04
 -3.16224E+03  2.00378E+04 -1.27075E+04  1.29360E+04 -1.40095E+04  2.29474E+03 -1.02451E+04 -4.16753E+03
 -4.59242E+03 -4.17378E+03 -1.76076E+02  1.28766E+03 -1.69952E+03  2.83114E+03 -5.05461E+03  4.34105E+03
 -9.69326E+03 -8.88747E+01 -1.03452E+04 -8.15823E+03 -4.40541E+03 -1.35469E+04  5.45069E+03 -9.03738E+03
  9.45867E+03 -5.11174E+03  5.91165E+03  2.15930E+03  1.17665E+03  2.84060E+03 -5.89183E+03 -9.74752E+02
 -4.58068E+03 -6.56433E+03 -1.52064E+03 -9.51454E+03  5.17338E+03 -1.04150E+04  1.27670E+04 -6.23295E+03
  1.44790E+04  1.51652E+03  1.18324E+04  9.44172E+03  1.49763E+03  1.13488E+04 -5.09095E+03  1.00624E+04
 -7.68618E+03  2.51394E+03 -4.21327E+03 -2.40630E+03  1.13606E+03 -2.12295E+03  4.91855E+03 -1.74447E+03
  4.74913E+03  5.23911E+03  1.59772E+03  8.49961E+03 -5.71395E+03  6.42149E+03 -9.27513E+03  1.96926E+03
 -6.10849E+03 -5.10992E+03  1.18497E+02 -8.39735E+03  4.16617E+03 -3.91203E+03  4.31911E+03  2.02983E+03
  6.75833E+02  4.44293E+03 -6.13307E+03  6.11617E+03 -6.65354E+03  4.19124E+03 -7.06835E+03 -1.21765E+03
 -3.43426E+03 -8.20778E+03  1.54775E+03 -1.00650E+04  7.91429E+03 -5.91452E+03  7.40099E+03  1.56113E+03
  5.66038E+03  7.16235E+03 -4.61447E+01  1.03247E+04 -7.02254E+03  5.16666E+03 -6.76468E+03  2.16409E+02
 -7.10509E+03 -6.55553E+03 -1.82911E+03 -7.51586E+03  3.78951E+03 -5.15497E+03  3.13975E+03 -3.15137E+03
  2.97096E+03  3.08895E+02 -7.26468E+02  1.58602E+03  1.07648E+03 -1.33152E+03  7.55263E+02 -2.79503E+03
  4.59688E+03 -1.54892E+03  7.63562E+03  1.25033E+03  8.22650E+03  5.27180E+03  5.98078E+03  9.86019E+03
 -2.01257E+03  1.28987E+04 -9.81124E+03  8.66049E+03 -1.43880E+04  1.31570E+03 -1.09014E+04 -3.42422E+03
 -4.64375E+03 -9.23755E+03 -1.15648E+03 -7.68685E+03  2.62937E+03 -3.65488E+03  9.48160E+02 -3.02108E+03
  2.04757E+03 -1.99739E+03  1.52031E+03 -2.62214E+03  4.75067E+03 -1.58637E+03  4.38483E+03 -7.53667E+02
  5.94238E+03  1.47733E+03  2.55537E+03  5.12678E+03 -1.11131E+03  3.66176E+03 -6.58553E+03  4.45941E+03
 -8.43172E+03 -1.84412E+03 -4.13703E+03 -3.82738E+03 -1.02578E+03 -8.39570E+03  3.90972E+03 -7.58602E+03
  7.82599E+03 -4.89826E+03  9.71770E+03  1.29061E+03  7.38419E+03  6.38763E+03  1.96536E+03  9.59551E+03
 -3.28734E+03  6.85783E+03 -4.42181E+03  2.34731E+03 -2.32137E+03 -5.83832E+02 -1.00569E+03 -4.39264E+02
 -1.58925E+03 -5.25103E+02 -1.77738E+03  2.63376E+03 -2.95718E+03  1.48566E+03 -5.14957E+03 -1.46216E+03
 -3.05938E+03 -4.97069E+03  7.40183E+02 -5.92772E+03  2.63662E+03 -6.93620E+03  5.80242E+03 -1.46582E+03
  7.51736E+03  3.28265E+03  2.21695E+03  5.65013E+03 -1.93092E+03  6.10776E+03 -3.65924E+03  3.37256E+03
 -5.38773E+03  4.26131E+02 -5.25159E+03 -2.90900E+03 -1.58933E+02 -4.73144E+03  2.20547E+03 -3.51042E+03
  3.52876E+03 -2.30961E+03  2.09083E+03  1.68408E+03  1.12458E+03  2.02414E+03  5.27597E+02  6.46580E+02
  8.92747E+02  5.34211E+02  2.98746E+03  2.36012E+03  2.15273E+03  1.97884E+03  1.56219E+03  2.80407E+03
 -2.18040E+03  5.13114E+03 -2.93165E+03  4.50786E+03 -4.98923E+03  6.52995E+02 -7.26345E+03 -1.12347E+03
 -2.24873E+03 -5.38166E+03  3.38921E+01 -6.19078E+03  4.16743E+03 -4.56185E+03  5.42900E+03 -1.07364E+03
  4.42955E+03  4.79669E+03  1.16337E+03  3.46737E+03 -7.14640E+02  2.54846E+03 -1.25459E+03  3.16648E+01
 -2.09529E+03 -4.02870E+03  2.43724E+03 -3.35619E+03  2.38928E+03 -1.26238E+03  1.05500E+03  4.65746E+02
  1.54847E+03 -1.36963E+02  9.13259E+02 -2.66026E+02  1.45894E+02 -5.76917E+02  1.16001E+03  3.07471E+02
 -1.07355E+03 -1.74765E+02  2.12436E+03 -1.95796E+02  8.39527E+02  2.69108E+03 -1.11318E+02  4.40752E+03
 -4.05508E+03  2.53561E+03 -3.51306E+03  4.42365E+02 -3.68402E+03 -1.65608E+03 -1.51089E+03 -2.04316E+03
  4.96201E+01 -2.37315E+03  1.98818E+03 -4.90139E+02  1.45005E+03  2.36902E+03 -1.56625E+03  2.79583E+03
 -7.15539E+02  9.24939E+02 -1.95152E+03 -9.84576E+02 -1.27565E+03 -3.32830E+03  6.91562E+02 -2.73931E+03
  1.79504E+03 -2.64011E+02  1.26272E+03  3.94637E+02  2.53744E+03 -2.03075E+02  4.58040E+02  9.37736E+02
 -2.28837E+03  1.76994E+03 -1.69379E+03 -1.67142E+03  7.30329E+02 -1.94871E+03  2.17547E+03 -1.94499E+03
  3.17854E+03  1.47184E+03  3.58586E+03  1.50658E+03  1.66494E+03  2.46632E+03 -1.21713E+03  3.01456E+03
 -3.26960E+03  7.38121E+02 -1.99753E+03 -5.05216E+02 -9.39709E+02 -2.89213E+03  8.33803E+02 -1.08410E+03
  1.23289E+03 -9.82516E+02  1.90002E+03  1.24101E+03 -1.27594E+02  1.97389E+03  5.00330E+02  2.04441E+03
 -5.12267E+02  8.70270E+02 -6.38963E+02  9.67972E+02 -2.74896E+01  6.70652E+02 -5.55077E+02  1.41280E+03
  5.51653E+02  2.09290E+03 -2.30579E+03  3.15349E+02 -2.59793E+03  3.35957E+02 -2.39119E+03 -1.22921E+03
 -1.21208E+03 -2.39418E+03  1.68456E+03 -5.87790E+03  2.26161E+03 -3.01229E+03  3.45105E+03 -7.99193E+02
  3.74612E+03 -3.69331E+02  1.92066E+03  2.27273E+03  1.40197E+01  2.92121E+03 -1.99023E+03  1.57549E+03
 -2.39302E+03  7.99384E+01 -8.07532E+02 -8.06792E+02 -1.23289E+03 -5.31580E+01 -1.22044E+03  5.82325E+02
 -6.77979E+02 -3.54971E+02 -7.57805E+02  7.76839E+02  6.30848E+02 -8.24790E+02 -2.21719E+01 -1.70412E+03
  1.41813E+03 -1.40641E+03  1.03626E+03  4.84532E+02  2.80131E+03  3.06655E+03  2.31342E+02  2.64696E+03
 -1.11884E+03  3.38207E+03 -2.90201E+03  2.93147E+03 -2.26646E+03 -1.83476E+03 -3.54985E+03 -8.05330E+02
 -1.39920E+03 -2.10439E+03  1.62637E+03 -1.07425E+03  6.04038E+02 -1.13482E+03  1.98538E+03  3.99290E+02
  1.89465E+03  7.44893E+02 -8.20764E+02 -3.55820E+02 -8.51461E+02  1.13180E+03 -9.20986E+02 -3.00440E+02
  3.64276E+02 -8.88329E+02  9.44350E+02 -2.13332E+02  2.63769E-01  9.68177E+02  2.45040E+02  1.80468E+03
 -1.63486E+03  1.05679E+03 -1.17855E+03 -9.91480E+02 -1.09453E+03 -9.09561E+02 -1.70283E+02 -3.53551E+03
  6.05639E+02 -2.09158E+02  1.02147E+03 -2.27107E+02  1.34473E+03 -1.15350E+03  1.21096E+03  2.09027E+03
 -7.44553E+02  1.70716E+03 -1.18205E+03  1.92839E+03 -1.37519E+03 -3.17631E+01 -6.66248E+02  5.07934E+02
 -3.17111E+02  7.42673E+02 -6.41703E+02  3.06379E+02 -8.37426E+02  3.50268E+02 -1.10338E+03 -1.16714E+03
 -1.31353E+03  2.19756E+02  2.40048E+02 -2.03535E+03  1.70153E+03 -2.11653E+03  7.08140E+02  4.75228E+02
  1.99713E+03  1.08548E+03  2.12778E+02  3.58937E+02 -7.66950E+02  5.03528E+02  1.04771E+02  1.55139E+03
