 $NMID ID='MM_0lb_SNR200_15hz_g50_52.RAW', FMTDAT='(8E13.5)'
 TRAMP=1., VOLUME=1. $END
  3.10270E+05  3.28628E+02  3.38639E+05  2.51411E+05  8.33027E+04  3.37961E+05 -1.33600E+05  2.50565E+05
 -1.89929E+05  8.30551E+04 -1.11581E+05 -3.10293E+04  1.11435E+03 -5.01139E+04  5.40064E+04 -3.84052E+01
  3.49911E+04  5.27951E+04 -1.63122E+04  7.50092E+04 -6.09360E+04  6.34081E+04 -8.33237E+04  3.15896E+04
 -8.14408E+04 -1.20086E+04 -5.58248E+04 -5.19072E+04 -1.55444E+04 -6.96082E+04  2.62062E+04 -4.63266E+04
  3.97276E+04  4.20642E+03  1.67617E+04  4.77497E+04 -3.24986E+04  4.65955E+04 -6.55484E+04 -1.23526E+03
 -5.36588E+04 -5.70224E+04 -7.76276E+03 -7.63648E+04  3.37440E+04 -5.47495E+04  4.79204E+04 -1.68640E+04
  4.26325E+04  1.17130E+04  3.17097E+04  2.66763E+04  1.49725E+04  3.02203E+04 -5.10844E+03  2.60115E+04
 -2.18834E+04  1.31564E+04 -1.78517E+04 -3.55689E+03  4.78753E+03 -8.08676E+03  2.28315E+04  1.09113E+04
  6.47521E+03  3.43286E+04 -3.20962E+04  3.53910E+04 -6.38851E+04  3.15145E+03 -5.57599E+04 -4.29267E+04
 -1.29449E+04 -6.21891E+04  3.84113E+04 -4.57317E+04  5.80123E+04 -1.48639E+03  3.39991E+04  3.28273E+04
 -6.03415E+03  3.54267E+04 -2.94032E+04  1.52173E+04 -2.89683E+04 -5.04379E+03 -1.60146E+04 -1.13054E+04
 -7.98913E+03 -1.23922E+04 -1.54632E+03 -1.78656E+04  6.76484E+03 -2.19607E+04  1.48218E+04 -1.33146E+04
  1.13127E+04  6.34880E+03 -8.63233E+03  1.23793E+04 -2.13033E+04 -3.92442E+03 -8.85927E+03 -3.24147E+04
  2.28046E+04 -4.26489E+04  4.76156E+04 -2.06951E+04  4.44768E+04  1.91615E+04  1.56905E+04  4.43755E+04
 -1.53530E+04  3.21599E+04 -2.46330E+04  1.53487E+03 -8.91167E+03 -2.78694E+04  2.12642E+04 -3.29685E+04
  4.10709E+04 -9.37755E+03  3.49478E+04  2.40754E+04  1.71786E+04  4.60262E+04 -8.20665E+03  4.93473E+04
 -3.12472E+04  3.29856E+04 -4.01001E+04  9.73947E+03 -4.09644E+04 -1.65541E+04 -2.33449E+04 -3.72654E+04
  7.31317E+03 -3.72370E+04  3.16363E+04 -1.42353E+04  2.86219E+04  1.10807E+04  3.87598E+03  1.85886E+04
 -1.34723E+04  8.94530E+03 -1.05725E+04 -6.03462E+03  6.72724E+03 -1.07969E+04  1.91801E+04  6.22828E+03
  1.38286E+04  2.14675E+04 -6.51262E+03  2.44684E+04 -2.23755E+04  1.13523E+04 -2.65878E+04 -5.18871E+03
 -2.11565E+04 -1.68769E+04 -8.67223E+03 -2.03136E+04  3.32143E+03 -1.75145E+04  1.43440E+04 -1.68648E+04
  2.57199E+04 -1.22474E+04  3.27665E+04  3.16259E+03  2.39375E+04  2.04084E+04  2.91264E+03  3.60894E+04
 -1.77537E+04  2.99445E+04 -2.76907E+04  1.10298E+04 -2.06695E+04 -9.37266E+03 -5.14319E+03 -1.46642E+04
  2.22637E+03 -2.75168E+03 -4.13561E+03  6.01897E+03 -1.58542E+04  6.23226E+03 -1.70786E+04 -7.01049E+03
 -9.23948E+03 -1.75526E+04  5.59628E+03 -2.28412E+04  1.54440E+04 -1.65323E+04  1.75946E+04 -7.42034E+02
  1.05713E+04  1.19285E+04 -1.06625E+03  1.85753E+04 -1.13340E+04  9.58374E+03 -1.71788E+04 -3.90187E+03
 -1.28639E+04 -1.71850E+04 -2.71821E+03 -2.30637E+04  9.84622E+03 -1.84608E+04  1.88869E+04 -9.23076E+03
  1.68669E+04  1.77706E+02  1.37865E+04  5.18306E+03  6.55434E+03  1.86400E+02  9.73979E+03 -1.70431E+03
  1.81857E+04  3.65044E+03  1.75109E+04  1.48794E+04  1.16295E+04  2.84857E+04 -3.52397E+03  3.23988E+04
 -1.92745E+04  2.60366E+04 -2.98051E+04  1.29747E+04 -3.12032E+04 -1.87262E+03 -2.60203E+04 -1.77039E+04
 -1.23735E+04 -2.66796E+04  9.67533E+03 -2.45681E+04  2.05915E+04 -1.22857E+04  1.70156E+04  5.12181E+03
  6.88493E+03  1.31135E+04 -9.56600E+03  1.12532E+04 -1.40862E+04  4.53038E+03 -1.26205E+04 -9.24667E+03
  6.52692E+02 -1.53982E+04  7.90553E+03 -1.17745E+04  1.06493E+04 -6.74640E+02  2.08259E+03  6.63241E+03
 -6.06593E+03  2.46027E+03 -5.18069E+03 -6.65480E+03 -1.84537E+03 -1.34869E+04  9.90815E+03 -1.27037E+04
  1.65563E+04 -7.17349E+03  1.59790E+04  4.03357E+03  1.53853E+04  1.20202E+04  6.36429E+03  1.86262E+04
 -2.52792E+03  2.10513E+04 -1.31854E+04  1.34711E+04 -1.55813E+04  4.03018E+03 -1.16630E+04 -2.24040E+03
 -5.01113E+03 -3.68422E+03 -1.15098E+03  1.32158E+03 -3.11947E+03  1.42744E+03 -4.96160E+03  3.51406E+03
 -9.24390E+03 -5.31392E+02 -1.23911E+04 -8.55816E+03 -3.79052E+03 -1.47643E+04  3.55325E+03 -1.01932E+04
  7.46807E+03 -4.13908E+03  5.98847E+03  2.92642E+03  1.96395E+02  3.84224E+03 -4.28737E+03  2.32889E+01
 -4.68686E+03 -6.20534E+03 -1.96898E+02 -1.00031E+04  5.26098E+03 -1.10025E+04  1.32943E+04 -5.95518E+03
  1.40406E+04  2.13753E+03  1.05803E+04  8.62749E+03  2.68273E+03  1.19541E+04 -6.60534E+03  1.04690E+04
 -1.00027E+04  3.51510E+03 -4.39903E+03 -2.72103E+03  1.50340E+03 -3.12646E+03  5.88139E+03 -1.77779E+03
  5.13314E+03  4.46887E+03 -1.31764E+02  7.91479E+03 -5.72820E+03  6.88921E+03 -1.00903E+04  2.24504E+03
 -5.71193E+03 -4.87222E+03  2.69657E+02 -8.60218E+03  4.32221E+03 -4.19735E+03  4.96346E+03  1.82508E+03
  7.33989E+02  5.87505E+03 -3.90899E+03  6.81383E+03 -7.81946E+03  3.04645E+03 -6.97848E+03 -1.40703E+03
 -5.64864E+03 -9.24004E+03  9.39880E+02 -1.09498E+04  9.28282E+03 -7.23818E+03  1.04222E+04  2.96637E+02
  6.01362E+03  8.75226E+03  2.63271E+01  1.02732E+04 -7.50381E+03  5.40871E+03 -8.20608E+03 -1.32719E+03
 -8.03479E+03 -6.80356E+03 -1.27467E+03 -7.81016E+03  3.08077E+03 -6.06996E+03  4.42156E+03 -2.61988E+03
  3.20230E+03  1.35879E+01  9.51063E+01  1.74430E+03  2.80372E+02 -9.17350E+02  7.09967E+02 -3.65040E+03
  6.18880E+03 -2.56657E+03  8.88856E+03  9.44583E+02  9.17372E+03  5.21663E+03  5.48058E+03  1.22372E+04
 -1.85281E+03  1.27186E+04 -1.11026E+04  1.01836E+04 -1.41537E+04  1.99062E+03 -1.06133E+04 -4.29629E+03
 -6.38571E+03 -9.02509E+03 -1.38416E+03 -7.45145E+03  2.16075E+03 -3.16598E+03  2.17963E+03 -3.31376E+03
  1.34750E+03 -2.06954E+03  2.20526E+03 -1.74886E+03  5.17076E+03 -2.55993E+03  4.56063E+03  3.91445E+02
  5.93435E+03  6.18780E+02  2.29692E+03  5.41730E+03 -2.88821E+03  6.08543E+03 -6.30109E+03  3.51618E+03
 -7.33236E+03 -2.13810E+03 -3.97054E+03 -5.02042E+03  6.64610E+02 -8.30781E+03  4.78669E+03 -8.50441E+03
  8.24051E+03 -5.85081E+03  9.66545E+03  5.39925E+02  7.09100E+03  6.83696E+03  9.94247E+02  9.95881E+03
 -3.42770E+03  8.44857E+03 -4.85105E+03  3.16789E+03 -3.63539E+03 -1.47909E+03 -1.86510E+03 -2.43515E+03
 -1.16810E+03  1.12290E+03 -1.41880E+03  2.25664E+03 -2.38180E+03  1.62038E+03 -5.15012E+03 -8.03000E+02
 -2.27950E+03 -4.44288E+03 -6.77048E+02 -7.64720E+03  3.49575E+03 -7.11428E+03  6.38135E+03 -1.47361E+03
  5.43762E+03  4.84011E+03  4.18592E+03  6.20597E+03 -2.05714E+03  5.42013E+03 -3.73397E+03  4.31370E+03
 -4.56778E+03  8.34426E+02 -4.43376E+03 -4.74540E+03 -4.52106E+02 -6.21637E+03  2.41071E+03 -5.07843E+03
  5.72415E+03 -1.63800E+03  2.68635E+03 -3.30604E+02  3.83409E+01  2.53389E+03  1.49666E+03  1.94923E+02
  1.14315E+03  8.58008E+02  9.47469E+02  2.21594E+03  1.61054E+03  3.08975E+03  1.17121E+03  2.64875E+03
 -2.07812E+03  5.26165E+03 -5.01186E+03  6.10644E+03 -5.42019E+03  2.05119E+03 -6.52306E+03 -2.76715E+03
 -3.65008E+03 -5.74200E+03  2.41367E+03 -7.53190E+03  3.34508E+03 -4.13692E+03  4.29026E+03 -2.14974E+03
  4.05133E+03  3.77393E+03  9.70175E+02  3.61759E+03 -1.29057E+03  3.22647E+03 -2.25926E+03  1.04666E+02
 -6.03940E+02 -3.46624E+03  1.97028E+03 -1.74604E+03  1.82240E+03 -3.05879E+03  2.52809E+03  8.59139E+02
  2.54015E+03  1.07614E+03  6.12635E+02  5.52798E+02 -1.49625E+02  1.51797E+03  8.12058E+02  1.09845E+03
  8.78023E+02 -5.92374E+02  2.36504E+03  4.32714E+02  1.00014E+03  5.87586E+03 -1.23068E+02  4.64707E+03
 -3.06736E+03  2.51345E+03 -3.15506E+03  1.02488E+03 -3.77724E+03 -1.22741E+03 -1.33506E+03 -1.29031E+03
  2.05525E+03 -1.70639E+03  9.28649E+02 -2.93572E+02  2.42781E+03  1.32619E+03 -2.70292E+03  3.64639E+03
 -3.38317E+03  1.19940E+03 -3.00940E+03 -2.49758E+03 -1.09761E+03 -3.50576E+03  4.41259E+02 -4.01033E+03
  2.57321E+03 -5.88001E+02  1.55168E+03 -1.35373E+03  2.59651E+03  9.14121E+02  5.49656E+02  2.23647E+03
 -6.97533E+02  2.99870E+02 -1.55061E+03 -1.74984E+03  1.24524E+03 -2.23930E+03  3.00706E+03 -1.40437E+03
  2.44541E+03  6.77706E+02  3.89182E+03  2.73208E+03  1.55659E+03  3.09649E+03  1.33680E+03  3.87314E+03
 -3.62936E+03  1.75666E+03 -3.42012E+03  2.04039E+02 -2.62173E+03 -3.63311E+03  1.15080E+03 -1.24953E+03
  2.11716E+03 -1.44789E+03  3.03519E+02  7.97305E+02  5.67684E+02  1.88957E+03 -4.03107E+02  1.89613E+03
 -2.23845E+03  1.53289E+03 -4.09485E+02  1.80338E+03 -1.29217E+03  3.05208E+01 -1.66819E+03  1.41757E+03
 -1.36096E+03  1.78823E+03 -3.67094E+03  1.02953E+03 -4.40403E+03  8.63084E+02 -1.78547E+03 -2.34170E+03
 -1.03308E+03 -4.30439E+03  7.48466E+02 -6.31974E+03  3.13285E+03 -5.40730E+03  5.25284E+03 -1.86119E+03
  4.92809E+03  1.13328E+03  2.60504E+03  2.94955E+03 -1.41851E+03  3.14280E+03 -1.74103E+03  1.56409E+03
 -2.68043E+03  1.99415E+03 -1.23730E+03 -6.30896E+02 -1.18149E+03 -3.24917E+02 -1.64254E+02 -3.53702E+02
 -2.21273E+03  3.82432E+02  8.80230E+00 -1.99880E+02 -1.05733E+02 -1.23293E+03 -6.19744E+02  6.73851E+01
  2.09761E+03 -1.96694E+02  2.06683E+03 -5.28456E+02  1.43834E+03  1.66646E+02 -3.04720E+02  2.94010E+03
 -2.04832E+03  4.60167E+03 -3.63289E+03  2.83644E+03 -3.18897E+03 -9.16526E+02 -2.81013E+03 -2.59152E+03
 -1.83317E+03 -2.51891E+03  2.65396E+02 -4.08668E+03  1.57977E+03  1.15332E+02  1.60481E+03  1.82222E+02
  4.07304E+02  9.49406E+02 -6.28852E+02 -1.45893E+02 -1.00146E+03 -4.02069E+02 -1.44257E+03 -2.50705E+01
  7.72075E+01 -6.49283E+02  8.28754E+02  2.67369E+02  3.48339E+02  1.70744E+03  5.28097E+02  1.44683E+03
 -8.70803E+02  2.26389E+03 -1.87693E+03 -4.82066E+02 -2.44098E+03 -1.34186E+03 -5.20353E+02 -1.71726E+03
  5.42234E+02 -2.19713E+03  1.92683E+03  1.33580E+03  9.64814E+02  6.53066E+02  1.22146E+03  2.01210E+03
 -7.23008E+02  1.48450E+03 -6.83753E+02  1.19933E+03 -6.23148E+01  1.29709E+03 -9.42247E+01  1.21180E+03
  1.77500E+02  7.08789E+02 -1.17838E+02  1.34622E+02 -1.37103E+03  1.53725E+03 -1.95418E+03 -3.62758E+02
 -1.27346E+03 -9.03899E+02 -6.62696E+02 -1.26469E+03  1.44324E+03 -1.79274E+03  1.72408E+03 -3.78551E+02
  1.68985E+03  3.81710E+02 -4.92615E+01  2.36209E+03 -3.12570E+01  1.73766E+03 -1.08893E+03  5.99454E+02
