 $NMID ID='MM_0lb_SNR200_7hz_g45_47.RAW', FMTDAT='(8E13.5)'
 TRAMP=1., VOLUME=1. $END
  3.07625E+05 -1.11989E+02  3.38299E+05  2.50558E+05  8.46598E+04  3.38918E+05 -1.33009E+05  2.52004E+05
 -1.90470E+05  8.40219E+04 -1.12433E+05 -3.32497E+04  9.68274E+02 -5.10621E+04  5.45418E+04  3.28370E+02
  3.62070E+04  5.10632E+04 -1.73382E+04  7.69394E+04 -6.11186E+04  6.35163E+04 -8.46997E+04  3.22915E+04
 -8.11912E+04 -1.07166E+04 -5.85297E+04 -5.30323E+04 -1.48782E+04 -7.14300E+04  2.82682E+04 -4.59132E+04
  4.05797E+04  3.86344E+03  1.92186E+04  4.66679E+04 -3.77395E+04  5.12265E+04 -6.84692E+04  1.92768E+02
 -5.51598E+04 -5.87630E+04 -6.79146E+03 -7.75513E+04  3.56415E+04 -5.69961E+04  5.00230E+04 -1.98763E+04
  4.69842E+04  1.26983E+04  3.31483E+04  2.74636E+04  1.60230E+04  2.97898E+04 -8.42227E+03  2.55118E+04
 -2.21146E+04  1.11769E+04 -1.89747E+04 -7.35061E+03  7.95568E+03 -7.31103E+03  2.28843E+04  1.32663E+04
  8.40170E+03  3.89021E+04 -3.35978E+04  3.78443E+04 -6.87560E+04  2.45628E+03 -6.07270E+04 -4.65528E+04
 -1.22818E+04 -6.83014E+04  4.20966E+04 -4.86445E+04  6.19072E+04 -3.96925E+03  3.60686E+04  3.63663E+04
 -5.36662E+03  4.15879E+04 -3.18193E+04  1.88633E+04 -3.30692E+04 -2.78480E+03 -1.91901E+04 -1.41333E+04
 -9.35801E+03 -1.49349E+04 -2.02317E+03 -2.02988E+04  9.33709E+03 -2.37970E+04  1.68395E+04 -1.32644E+04
  8.26890E+03  8.45072E+03 -1.08964E+04  1.22783E+04 -2.45188E+04 -7.44023E+03 -9.63793E+03 -3.83193E+04
  2.54798E+04 -4.82287E+04  5.28652E+04 -2.01283E+04  5.11402E+04  2.22088E+04  1.80984E+04  4.78216E+04
 -1.81041E+04  3.67104E+04 -2.95268E+04  2.70047E+03 -1.03276E+04 -2.95008E+04  1.94213E+04 -3.74556E+04
  4.70738E+04 -1.13679E+04  4.02681E+04  2.54186E+04  2.21519E+04  5.25672E+04 -9.69437E+03  5.97087E+04
 -3.71819E+04  4.00484E+04 -5.05793E+04  1.24569E+04 -4.87852E+04 -1.82548E+04 -2.48699E+04 -4.41773E+04
  8.03516E+03 -4.42458E+04  3.61054E+04 -1.79142E+04  3.36754E+04  9.77485E+03  6.70782E+03  2.13790E+04
 -1.39102E+04  1.04456E+04 -1.09359E+04 -6.66992E+03  6.52863E+03 -1.10441E+04  1.84200E+04  6.19412E+03
  1.58811E+04  2.35701E+04 -5.20058E+03  2.83320E+04 -2.39129E+04  1.63119E+04 -3.28062E+04 -3.21830E+03
 -2.75962E+04 -1.88130E+04 -1.32945E+04 -2.69199E+04  5.90141E+03 -2.77430E+04  2.04142E+04 -2.43530E+04
  3.35202E+04 -1.62965E+04  4.07138E+04  5.46945E+03  2.76836E+04  2.68133E+04  4.53947E+03  4.19187E+04
 -2.26764E+04  3.40045E+04 -3.12892E+04  1.31321E+04 -2.34160E+04 -1.08888E+04 -5.70855E+03 -1.30443E+04
  1.36500E+03 -2.38943E+02 -9.89447E+03  1.00719E+04 -2.18113E+04  5.88581E+03 -2.04794E+04 -1.05731E+04
 -1.35339E+04 -2.45464E+04  7.25237E+03 -2.98494E+04  1.86896E+04 -2.01534E+04  2.46241E+04 -2.79794E+03
  1.58609E+04  1.71748E+04  2.25168E+02  2.49014E+04 -1.72110E+04  1.42891E+04 -2.47711E+04 -5.84964E+03
 -1.90908E+04 -2.34210E+04 -2.01565E+03 -2.99926E+04  1.21378E+04 -2.38172E+04  2.41696E+04 -1.39273E+04
  2.32396E+04  9.65716E+02  1.45482E+04  5.98878E+03  8.98272E+03  1.91283E+03  1.37226E+04 -3.91462E+03
  2.33828E+04  2.72988E+03  2.93211E+04  1.80727E+04  1.97678E+04  4.00387E+04 -4.06516E+03  4.88540E+04
 -2.90249E+04  4.07762E+04 -4.41037E+04  2.17888E+04 -4.89765E+04 -3.47839E+03 -3.98281E+04 -2.87750E+04
 -1.57825E+04 -3.91352E+04  1.46127E+04 -3.80745E+04  2.99067E+04 -1.61278E+04  2.46068E+04  7.07600E+03
  7.02820E+03  2.06110E+04 -1.25442E+04  1.56304E+04 -2.19787E+04  2.97678E+03 -1.74877E+04 -1.40075E+04
  1.13503E+03 -2.15914E+04  1.05766E+04 -1.40356E+04  1.45276E+04 -1.57529E+03  4.49829E+03  9.53356E+03
 -1.07956E+04  7.37504E+03 -9.10473E+03 -8.13347E+03 -6.77316E+02 -1.98825E+04  1.29812E+04 -2.29260E+04
  2.38615E+04 -1.31682E+04  3.04061E+04  4.21031E+03  2.70057E+04  1.82601E+04  1.16075E+04  3.10440E+04
 -5.39202E+03  3.42406E+04 -2.47702E+04  2.21853E+04 -2.33975E+04  3.24796E+03 -1.62050E+04 -7.21059E+03
 -5.62376E+03 -9.30029E+03 -1.11718E+03  4.77120E+02 -2.86545E+03  4.48998E+03 -9.89059E+03  8.07845E+03
 -1.70585E+04 -8.76179E+02 -1.59700E+04 -1.32916E+04 -9.10732E+03 -2.23610E+04  7.06309E+03 -1.82611E+04
  1.40135E+04 -6.32415E+03  1.09227E+04  4.33548E+03  5.79191E+02  7.19493E+03 -8.60835E+03 -1.83204E+02
 -8.56622E+03 -1.06402E+04 -2.84834E+03 -1.66091E+04  9.16340E+03 -1.81512E+04  2.19427E+04 -1.04825E+04
  2.67323E+04  1.70601E+03  1.91854E+04  1.46419E+04  4.29343E+03  2.20813E+04 -9.78620E+03  1.70705E+04
 -1.39196E+04  4.42883E+03 -7.14765E+03 -3.28651E+03  2.43543E+03 -3.24724E+03  8.56835E+03  7.98763E+02
  7.15396E+03  7.35380E+03 -1.52786E+02  1.36660E+04 -1.14058E+04  1.37039E+04 -1.90227E+04  1.66298E+03
 -1.21449E+04 -8.49172E+03  2.60301E+02 -1.59045E+04  1.02209E+04 -9.12297E+03  1.05901E+04  2.40832E+03
  2.35579E+03  1.29379E+04 -1.16257E+04  1.24673E+04 -1.51699E+04  5.89178E+03 -1.53256E+04 -6.64996E+03
 -8.63165E+03 -1.84589E+04  5.17706E+03 -2.22649E+04  1.90881E+04 -1.16164E+04  2.03733E+04  4.89013E+03
  1.10213E+04  1.48622E+04 -2.10757E+03  1.91185E+04 -1.16697E+04  1.01708E+04 -1.48531E+04 -4.70473E+02
 -1.15044E+04 -1.19468E+04 -1.62164E+03 -1.33666E+04  7.04386E+03 -1.31948E+04  9.21467E+03 -5.71063E+03
  3.92870E+03  1.69994E+03 -1.41370E+03  7.08816E+02 -1.86928E+03 -2.78889E+03  3.00236E+03 -9.75625E+03
  1.42614E+04 -7.36924E+03  1.75906E+04  2.22095E+03  1.84245E+04  1.37932E+04  1.24527E+04  2.49223E+04
 -6.93286E+03  2.74630E+04 -2.22861E+04  2.10019E+04 -3.09022E+04  4.44086E+03 -2.43634E+04 -9.88744E+03
 -1.20970E+04 -1.78014E+04 -3.90274E+01 -1.66878E+04  7.05846E+03 -1.11230E+04  7.29120E+03 -5.85654E+03
  6.20826E+03 -4.04032E+03  4.34023E+03 -3.26426E+03  5.71169E+03 -2.94020E+03  9.53572E+03 -2.47164E+03
  1.20339E+04  2.37118E+03  5.63429E+03  1.24439E+04 -4.95733E+03  1.44290E+04 -1.40307E+04  1.00929E+04
 -1.68852E+04 -4.04654E+02 -1.17513E+04 -1.25875E+04 -1.80772E+03 -1.87458E+04  1.02380E+04 -1.90041E+04
  2.08430E+04 -9.88641E+03  2.42208E+04  5.62091E+03  1.55183E+04  1.55617E+04  4.32186E+03  2.25164E+04
 -1.01516E+04  1.49170E+04 -1.46208E+04  6.10947E+03 -8.52085E+03 -2.32311E+03 -2.46381E+03 -2.18582E+03
 -4.11306E+02 -3.33439E+02 -3.19505E+03  3.13929E+03 -7.24356E+03  5.44608E+02 -1.17476E+04 -2.35036E+03
 -7.69570E+03 -1.17844E+04  5.29205E+02 -1.53029E+04  1.02536E+04 -1.66922E+04  1.99367E+04 -6.47179E+03
  1.75102E+04  9.47864E+03  7.15095E+03  1.56163E+04 -3.07736E+03  2.12068E+04 -1.33756E+04  1.05039E+04
 -1.87454E+04  3.99745E+02 -1.25277E+04 -1.26251E+04 -1.17799E+03 -1.51044E+04  8.83049E+03 -1.24145E+04
  1.05547E+04 -4.23158E+03  8.73380E+03  3.28933E+03  2.85159E+03  6.85367E+03  1.52555E+03  3.01875E+03
  2.81765E+03  1.50411E+03  3.84047E+03  3.02729E+03  6.57859E+03  6.53140E+03  2.64397E+03  8.66498E+03
 -2.88133E+03  1.31784E+04 -1.37456E+04  1.63127E+04 -1.88099E+04  4.95983E+03 -1.88382E+04 -8.48747E+03
 -7.90135E+03 -1.95610E+04  4.53208E+03 -2.20449E+04  1.15349E+04 -1.16652E+04  1.55605E+04 -4.15250E+03
  1.24527E+04  7.10141E+03  2.86296E+03  1.07679E+04 -4.53087E+03  7.99078E+03 -6.03211E+03 -2.27027E+03
 -4.24697E+03 -9.18194E+03  2.93498E+03 -8.25024E+03  7.91505E+03 -3.69366E+03  8.00796E+03  1.55526E+03
  5.34668E+03  3.41414E+03  1.79104E+03  3.71093E+03 -1.41273E+03  2.55497E+03  2.78232E+03 -1.87182E+03
  3.53606E+03 -5.20836E+02  5.58291E+03  3.75572E+03  5.87900E+03  8.94054E+03 -2.37486E+03  1.32456E+04
 -1.07734E+04  7.35176E+03 -1.12106E+04  1.36845E+03 -1.02929E+04 -4.96616E+03 -5.68391E+03 -6.94967E+03
  8.49600E+02 -7.44419E+03  4.26684E+03 -3.55750E+03  2.80113E+03  4.04278E+03 -2.13502E+03  6.23119E+03
 -8.13408E+03  3.89680E+03 -9.39707E+03 -5.43058E+03 -4.88379E+03 -9.65946E+03  1.31798E+03 -1.06687E+04
  6.55695E+03 -5.97332E+03  7.56680E+03 -4.41036E+02  7.55822E+03  5.52815E+03  1.35717E+03  5.45688E+03
 -2.91416E+03  1.36946E+02 -4.26487E+03 -3.68455E+03  1.93042E+03 -1.01775E+04  1.09095E+04 -6.87537E+03
  1.33465E+04  9.16241E+02  1.06377E+04  7.83373E+03  4.28935E+03  1.33679E+04 -4.48906E+03  1.27799E+04
 -1.15580E+04  3.36390E+03 -1.25089E+04 -3.81219E+03 -5.06399E+03 -8.94698E+03  1.29479E+02 -8.68055E+03
  8.01674E+03 -4.48136E+03  6.27682E+03  4.56024E+03  7.91824E+02  8.24292E+03 -2.73837E+03  5.68943E+03
 -3.27208E+03  5.78672E+03 -4.26731E+03  1.85569E+03 -2.30583E+03  1.15006E+03  1.70968E+01  2.07327E+03
 -2.57297E+03  5.45562E+03 -1.01383E+04  4.36136E+03 -1.25624E+04 -3.99452E+02 -1.59247E+04 -9.16122E+03
 -7.83936E+03 -1.79555E+04  2.48292E+03 -1.93516E+04  1.27827E+04 -1.59223E+04  1.82965E+04 -6.30918E+03
  1.78504E+04  5.75089E+03  1.09916E+04  1.22996E+04 -4.59667E+01  1.45948E+04 -5.15694E+03  9.23295E+03
 -7.19477E+03  3.65051E+03 -5.23305E+03 -1.51776E+03 -3.09771E+03 -9.90096E+02 -4.05296E+02  1.24700E+03
 -2.01482E+03 -5.45112E+02 -2.59723E+03 -9.73236E+02 -8.16245E+02 -4.73966E+03  6.57177E+02 -6.20859E+03
  7.41932E+03 -4.21356E+03  9.96599E+03 -1.12433E+03  1.08924E+04  7.58704E+03  2.00447E+03  1.30373E+04
 -5.43759E+03  1.56816E+04 -1.65254E+04  1.07679E+04 -1.77031E+04 -1.27193E+03 -1.49729E+04 -1.06022E+04
 -5.58869E+03 -1.45354E+04  3.49022E+03 -1.22990E+04  1.02134E+04 -7.64408E+03  9.75029E+03  2.08596E+03
  4.09336E+03  7.23366E+03 -2.21925E+03  3.79658E+03 -2.36891E+03 -9.53088E+02 -3.67639E+02 -3.66849E+03
  3.33813E+03 -1.57932E+03  3.38711E+03  2.43481E+03  4.10987E+03  7.07964E+03  1.19464E+03  8.91516E+03
 -6.92489E+03  6.85817E+03 -7.76150E+03 -1.82065E+02 -1.07064E+04 -9.76745E+03 -6.88236E+02 -1.20314E+04
  7.84120E+03 -1.01864E+04  1.07178E+04 -3.00541E+03  1.13366E+04  4.79543E+03  6.34980E+03  1.02994E+04
 -9.70327E+02  1.21710E+04 -3.53500E+03  6.04790E+03 -7.79949E+03  4.99098E+03 -3.97792E+03 -1.02531E+03
 -3.07754E+03 -9.18132E+02 -1.82901E+03  1.42600E+03 -7.03020E+03  2.03422E+03 -9.16433E+03 -3.85505E+03
 -8.49189E+03 -4.97456E+03 -2.58399E+03 -9.63867E+03  4.01279E+03 -9.61631E+03  8.40221E+03 -5.86846E+03
  1.07431E+04  7.91796E+02  6.06327E+03  7.53772E+03  8.77110E+01  1.30641E+04 -6.54129E+03  6.71128E+03
