 $NMID ID='MM_0lb_SNR200_17hz_g45_34.RAW', FMTDAT='(8E13.5)'
 TRAMP=1., VOLUME=1. $END
  3.10517E+05  6.15175E+02  3.38409E+05  2.50276E+05  8.41587E+04  3.37581E+05 -1.32593E+05  2.49071E+05
 -1.90207E+05  8.26723E+04 -1.10657E+05 -3.32593E+04  1.33658E+03 -5.03836E+04  5.42095E+04  5.70450E+02
  3.53847E+04  5.20103E+04 -1.59835E+04  7.51588E+04 -6.14209E+04  6.31167E+04 -8.36671E+04  3.06132E+04
 -8.00602E+04 -1.05638E+04 -5.67657E+04 -5.06002E+04 -1.51443E+04 -6.89786E+04  2.79547E+04 -4.45449E+04
  3.98926E+04  3.06774E+03  1.55639E+04  4.71394E+04 -3.33106E+04  4.57502E+04 -6.53515E+04 -8.03177E+01
 -5.32348E+04 -5.58474E+04 -6.27891E+03 -7.50841E+04  3.34458E+04 -5.35575E+04  4.73168E+04 -1.57715E+04
  4.13526E+04  1.12912E+04  3.12159E+04  2.36336E+04  1.60243E+04  2.96670E+04 -3.65062E+03  2.67588E+04
 -2.18396E+04  1.22664E+04 -1.84461E+04 -4.32579E+03  5.70196E+03 -7.06951E+03  2.08226E+04  1.12275E+04
  7.05189E+03  3.32189E+04 -3.11401E+04  3.50732E+04 -6.24066E+04  2.10169E+03 -5.59849E+04 -4.18763E+04
 -1.23778E+04 -6.14371E+04  3.79038E+04 -4.33605E+04  5.55630E+04 -1.97414E+03  3.25399E+04  3.11176E+04
 -5.96988E+03  3.25358E+04 -2.90493E+04  1.36045E+04 -2.89336E+04 -5.00912E+03 -1.43554E+04 -9.49177E+03
 -7.99230E+03 -1.15525E+04 -4.58792E+02 -1.68772E+04  8.47279E+03 -2.29330E+04  1.60949E+04 -1.30183E+04
  1.23035E+04  4.40515E+03 -6.05215E+03  1.25505E+04 -2.01310E+04 -2.68836E+03 -7.88365E+03 -3.17651E+04
  2.14102E+04 -4.04546E+04  4.51026E+04 -1.92494E+04  4.26518E+04  1.86800E+04  1.46127E+04  4.17833E+04
 -1.63364E+04  3.21348E+04 -2.37415E+04  2.35637E+03 -7.89311E+03 -2.78550E+04  2.14880E+04 -3.18176E+04
  3.91237E+04 -7.50692E+03  3.28199E+04  2.17577E+04  1.60625E+04  4.40913E+04 -7.40328E+03  4.64870E+04
 -2.89034E+04  3.05626E+04 -3.95015E+04  8.35165E+03 -3.93171E+04 -1.58208E+04 -2.11083E+04 -3.36564E+04
  7.05846E+03 -3.55406E+04  3.01144E+04 -1.23050E+04  2.69179E+04  1.08137E+04  3.17568E+03  1.85078E+04
 -1.23240E+04  6.98203E+03 -9.96901E+03 -7.56954E+03  5.45432E+03 -9.64492E+03  1.64917E+04  6.76971E+03
  1.23325E+04  2.18175E+04 -6.32834E+03  2.33563E+04 -2.30514E+04  1.12662E+04 -2.62529E+04 -5.46247E+03
 -1.74562E+04 -1.66169E+04 -5.49804E+03 -1.75889E+04  2.93959E+03 -1.61795E+04  1.37481E+04 -1.43337E+04
  2.09537E+04 -1.18037E+04  2.88248E+04  1.62450E+03  2.28055E+04  1.69832E+04  3.57505E+03  3.32214E+04
 -1.70222E+04  2.87286E+04 -2.66055E+04  9.83692E+03 -1.90489E+04 -1.04679E+04 -4.59421E+03 -1.55154E+04
  2.07617E+03 -3.01524E+03 -2.59027E+03  5.63646E+03 -1.50283E+04  4.59953E+03 -1.37215E+04 -5.39954E+03
 -9.09777E+03 -1.59907E+04  4.22166E+03 -2.05257E+04  1.27100E+04 -1.42451E+04  1.48253E+04 -1.58726E+03
  1.01518E+04  1.07128E+04 -2.74551E+02  1.66902E+04 -1.07236E+04  9.03949E+03 -1.59703E+04 -3.22830E+03
 -1.23169E+04 -1.56762E+04 -1.91799E+03 -1.97360E+04  8.89249E+03 -1.60645E+04  1.68255E+04 -8.55878E+03
  1.52517E+04  2.62694E+02  1.04864E+04  3.46210E+03  5.85915E+03 -5.96900E+01  8.14686E+03 -2.38708E+03
  1.51114E+04  3.23866E+03  1.67317E+04  1.42990E+04  9.82594E+03  2.56919E+04 -4.25390E+03  2.87006E+04
 -1.65736E+04  2.18563E+04 -2.61109E+04  1.01446E+04 -2.69680E+04 -1.40467E+03 -2.31583E+04 -1.51376E+04
 -1.07568E+04 -2.21552E+04  7.39396E+03 -2.14376E+04  1.89183E+04 -1.10302E+04  1.65531E+04  2.68145E+03
  5.91591E+03  1.18023E+04 -8.00142E+03  1.08143E+04 -1.37491E+04  2.20406E+03 -1.04060E+04 -1.04336E+04
 -1.42789E+03 -1.23392E+04  5.09000E+03 -9.46105E+03  8.89291E+03 -1.10104E+03  2.15879E+03  5.67390E+03
 -6.97377E+03  1.82258E+03 -4.87926E+03 -5.16042E+03 -3.81890E+02 -1.11204E+04  9.14640E+03 -1.06673E+04
  1.38122E+04 -5.50081E+03  1.30557E+04  3.49651E+03  1.19032E+04  1.02848E+04  4.63033E+03  1.57710E+04
 -2.72361E+03  1.68265E+04 -1.00329E+04  1.11809E+04 -1.27685E+04  1.81432E+03 -9.33432E+03 -1.93339E+03
 -4.30464E+03 -3.73083E+03 -5.41586E+01  6.20278E+02 -1.45687E+03  1.79913E+03 -4.64166E+03  3.49231E+03
 -9.05477E+03 -7.34735E+02 -9.36384E+03 -6.95737E+03 -3.74019E+03 -1.20508E+04  4.35974E+03 -9.16900E+03
  8.16894E+03 -4.60853E+03  5.85072E+03  1.77689E+03  5.34440E+01  2.78103E+03 -3.72914E+03 -5.20013E+02
 -3.90938E+03 -5.82152E+03 -1.32479E+03 -7.59166E+03  4.77371E+03 -8.34375E+03  1.10668E+04 -4.05561E+03
  1.34383E+04  1.85565E+01  9.17057E+03  8.26545E+03  1.89263E+03  1.07072E+04 -4.81946E+03  8.29643E+03
 -7.43366E+03  3.79152E+03 -3.59879E+03 -8.78818E+02  1.22028E+03 -2.12815E+03  5.60821E+03 -1.10094E+03
  4.58151E+03  3.67317E+03  4.40734E+02  6.31951E+03 -5.27630E+03  6.75368E+03 -8.48917E+03  7.15100E+02
 -5.20111E+03 -5.12196E+03 -1.75697E+02 -7.49958E+03  4.45292E+03 -4.08398E+03  4.23085E+03  1.96906E+03
  3.62483E+02  4.00199E+03 -4.80027E+03  5.39897E+03 -6.91055E+03  3.00191E+03 -4.78642E+03 -1.57027E+03
 -2.40262E+03 -7.59209E+03  2.18263E+03 -9.40323E+03  6.93785E+03 -4.87554E+03  7.67580E+03  2.30543E+02
  5.81213E+03  6.62929E+03  6.15846E+02  7.44297E+03 -5.83908E+03  4.74907E+03 -5.86824E+03  3.17649E+02
 -5.74091E+03 -6.30469E+03 -1.44543E+03 -5.12939E+03  2.93904E+03 -4.64196E+03  1.90963E+03 -2.86352E+03
  2.79212E+03  8.68824E+02 -1.10835E+02  1.64544E+03 -4.23258E+02 -1.39238E+03  1.26268E+03 -2.83344E+03
  4.10121E+03 -6.33669E+02  6.28004E+03  1.23047E+03  7.75555E+03  3.39942E+03  5.11283E+03  8.49279E+03
 -1.22634E+03  9.31645E+03 -9.35706E+03  8.38788E+03 -1.09299E+04  2.23156E+03 -8.11161E+03 -2.69785E+03
 -4.61174E+03 -7.36629E+03 -4.23593E+02 -6.10454E+03  3.04013E+03 -2.60798E+03  2.90471E+03 -2.61899E+03
  1.42198E+03 -2.09788E+03  2.01643E+03 -2.32417E+03  3.76456E+03 -1.74022E+03  3.92808E+03  1.43863E+02
  5.52866E+03  9.07011E+02  1.84992E+03  3.40477E+03 -1.94303E+03  3.22141E+03 -5.27354E+03  2.63122E+03
 -4.90770E+03 -7.78986E+02 -3.06186E+03 -3.58324E+03 -2.27747E+02 -6.26564E+03  4.56254E+03 -6.31400E+03
  5.58592E+03 -2.56777E+03  6.51030E+03  5.29478E+02  6.62817E+03  4.80601E+03  3.60360E+02  7.65331E+03
 -3.21094E+03  7.16658E+03 -3.70278E+03  2.15789E+03 -2.87448E+03 -6.34582E+02 -2.04708E+03 -6.88129E+02
  4.08439E+02 -3.27055E+02 -5.14650E+02  2.76822E+03 -3.00874E+03  3.74387E+02 -4.39755E+03 -1.58667E+03
 -1.58569E+03 -4.42630E+03  1.66248E+03 -4.65228E+03  2.92767E+03 -4.66541E+03  4.60571E+03 -2.97988E+02
  4.82892E+03  3.20648E+03  2.51244E+03  3.58175E+03 -1.31885E+03  6.19203E+03 -2.56846E+03  2.98895E+03
 -4.09562E+03  6.47539E+02 -4.52997E+03 -3.93044E+03 -5.13502E+02 -4.52208E+03  2.58267E+03 -3.46023E+03
  2.58029E+03 -1.35242E+03  3.64261E+03  1.23740E+03  5.76017E+01  1.92807E+03 -2.19425E+02  1.02465E+03
  1.80982E+03  1.06629E+03  7.06188E+02  7.41101E+02  1.95405E+03  1.30755E+03  2.10671E+03  2.51051E+03
 -1.19962E+03  3.96473E+03 -2.85004E+03  4.80384E+03 -3.45698E+03  1.65675E+03 -4.69745E+03 -9.86798E+02
 -2.74052E+03 -5.23021E+03  9.17910E+02 -5.07880E+03  2.37047E+03 -3.54236E+03  4.41357E+03 -1.55474E+03
  3.37956E+03  2.73543E+03  1.60944E+03  2.49658E+03 -1.84601E+03  1.16274E+03 -3.21194E+03 -5.50095E+02
 -1.97367E+02 -2.56230E+03  8.58105E+02 -1.55287E+03  1.81120E+03 -7.77887E+02  2.31977E+03  9.98225E+02
  7.26220E+02  1.12015E+03  3.07031E+02  3.46675E+02 -2.48501E+02  3.29777E+02  1.70332E+03 -2.02766E+03
  1.40724E+02  7.78201E+02  1.95709E+03 -4.26705E+02  1.19438E+03  1.79674E+03  6.15488E+02  3.58326E+03
 -2.15618E+03  1.17610E+03 -2.60755E+03  1.32397E+03 -2.62722E+03 -1.85536E+03 -5.90110E+02 -5.99305E+02
 -4.29688E+00 -7.71809E+02 -1.24258E+02 -1.79262E+03  3.45337E+02  1.43663E+03 -1.97659E+02  1.26372E+03
 -1.36354E+03  1.12431E+03 -5.11567E+02 -2.38227E+03 -9.94946E+02 -3.32784E+03  6.33997E+02 -4.30092E+03
 -1.66439E+02 -1.92338E+03  8.11961E+01 -2.18448E+02  9.17582E+02 -1.05927E+03  3.27222E+02  1.45124E+03
 -4.10611E+02 -9.41264E+01 -1.07397E+03 -1.73422E+02  1.71869E+03 -1.15370E+03  1.71093E+03 -1.91502E+03
  1.23138E+03 -7.25059E+02  3.91964E+03  1.25144E+03  2.01048E+03  1.62072E+03  1.65139E+02  2.33011E+03
 -3.35704E+03  9.46600E+02 -2.13168E+03 -4.40007E+01 -8.29270E+02 -1.39323E+03  1.37402E+03 -8.68797E+02
  2.05222E+03 -9.13582E+02  1.13071E+03  6.80081E+02  1.40638E+03  7.21005E+02  8.62418E+01  1.29403E+03
 -7.27031E+02  6.63403E+02 -1.55647E+03  4.39877E+01 -2.56700E+02 -2.81151E+02 -3.82237E+02  5.47806E+02
 -4.51771E+02  7.48575E+02 -1.94341E+03  6.77204E+02 -1.80641E+03  1.13313E+03 -3.89120E+03 -8.75041E+02
 -1.30850E+03 -3.59366E+03  8.23425E+02 -4.71816E+03  1.49454E+03 -4.56091E+03  3.01287E+03 -1.42766E+03
  2.82636E+03 -3.16849E+02  1.81150E+03  1.69275E+03 -9.51121E+02  2.44755E+03 -1.74425E+03  1.73649E+03
 -6.89283E+02  5.65084E+02  1.36130E+02 -2.57765E+02 -5.57281E+02  1.01428E+03 -7.89831E+02  4.53348E+01
 -4.08761E+02  1.61134E+02 -7.28214E+02  1.08056E+03 -2.26980E+02  9.36550E+02 -3.81216E+02 -2.88802E+02
  1.35380E+03 -2.36644E+02  1.27279E+02  4.11948E+02  1.01222E+03  1.51648E+03 -9.69907E+01  1.22767E+03
 -1.99335E+03  3.25071E+03 -1.72174E+03  1.80450E+03 -2.92540E+03  1.12370E+02 -2.04265E+03 -1.86023E+03
 -7.60100E+02 -3.11161E+03 -5.86067E+02 -2.45914E+03  1.40473E+03 -1.17095E+03  1.14010E+03  4.01577E+02
  1.53830E+03  2.79105E+02 -5.60032E+02  1.31004E+03 -4.63364E+02 -1.26853E+02  5.51353E+02  4.15161E+02
  7.81792E+02 -1.79563E+03  1.18977E+03  1.01819E+03 -2.79341E+02  4.58488E+02 -2.76593E+02  3.34172E+02
 -8.81924E+02  8.98111E+02 -9.17063E+02 -7.32410E+02 -7.03126E+02 -1.63762E+03 -6.57129E+02 -1.19121E+03
  1.79334E+03 -9.05403E+02  1.29603E+03  2.05327E+02  1.22643E+03 -4.86328E+02  1.11214E+03  7.27177E+02
  5.09462E+02  1.22468E+03 -7.01583E+02  3.59031E+02 -1.12202E+03 -1.91656E+02 -8.19434E+02  4.50894E+02
  5.59368E+02 -1.36268E+03  5.19459E+02 -2.42769E+02 -9.78922E+02 -2.41462E+02 -1.64566E+03 -7.07799E+02
 -1.53689E+03  4.46210E+01 -1.67641E+03 -8.94862E+02  3.58545E+02 -2.12444E+03 -3.95381E+02 -3.18819E+02
  1.44964E+03 -3.74402E+02  1.26245E+02  3.27229E+02  3.38302E+02  1.59209E+03 -1.19938E+03  4.37322E+02
