 $NMID ID='MM_0lb_SNR200_10hz_g55_23.RAW', FMTDAT='(8E13.5)'
 TRAMP=1., VOLUME=1. $END
  3.09834E+05  7.46497E+01  3.37757E+05  2.51284E+05  8.44345E+04  3.39588E+05 -1.31885E+05  2.51710E+05
 -1.92273E+05  8.43037E+04 -1.15173E+05 -3.13730E+04  1.23822E+02 -5.10181E+04  5.18926E+04  1.52687E+03
  3.43704E+04  5.37921E+04 -1.72728E+04  7.67190E+04 -6.14917E+04  6.53646E+04 -8.49827E+04  3.28697E+04
 -8.26714E+04 -1.07282E+04 -5.62213E+04 -5.12263E+04 -1.59513E+04 -6.98509E+04  2.67411E+04 -4.58612E+04
  4.10684E+04  2.05013E+03  1.70374E+04  4.81249E+04 -3.62769E+04  4.82039E+04 -6.86684E+04 -2.69987E+03
 -5.40293E+04 -5.72093E+04 -9.11138E+03 -7.89967E+04  3.61868E+04 -5.68446E+04  5.08947E+04 -1.76594E+04
  4.56871E+04  1.14231E+04  3.32600E+04  2.63058E+04  1.68598E+04  3.06509E+04 -5.85395E+03  2.76925E+04
 -2.19681E+04  1.25437E+04 -1.66034E+04 -7.10028E+03  7.73757E+03 -8.12249E+03  2.35286E+04  1.36857E+04
  7.05359E+03  3.85544E+04 -3.27251E+04  3.66024E+04 -6.48595E+04  1.35336E+03 -5.90966E+04 -4.35016E+04
 -1.36433E+04 -6.59191E+04  4.10644E+04 -4.81124E+04  6.15894E+04 -1.90661E+03  3.74039E+04  3.53646E+04
 -5.69605E+03  3.91624E+04 -3.22957E+04  1.63377E+04 -3.14384E+04 -2.42495E+03 -1.89278E+04 -1.20305E+04
 -9.80139E+03 -1.43020E+04 -1.38982E+02 -1.78398E+04  7.77320E+03 -2.35343E+04  1.62182E+04 -1.18377E+04
  1.17971E+04  5.35830E+03 -1.14570E+04  1.43573E+04 -2.42344E+04 -5.76962E+03 -9.15098E+03 -3.69743E+04
  2.51291E+04 -4.70036E+04  5.26826E+04 -2.06580E+04  4.64810E+04  1.98945E+04  1.50469E+04  4.67205E+04
 -1.63899E+04  3.43646E+04 -2.83554E+04  2.88671E+03 -1.11366E+04 -2.93924E+04  2.09012E+04 -3.71641E+04
  4.43227E+04 -1.10609E+04  3.93432E+04  2.44298E+04  2.12487E+04  4.95505E+04 -9.80903E+03  5.58769E+04
 -3.65033E+04  3.65782E+04 -4.54329E+04  1.03817E+04 -4.72031E+04 -1.89895E+04 -2.71388E+04 -4.03292E+04
  9.02411E+03 -4.07744E+04  3.42796E+04 -1.68595E+04  3.25485E+04  1.02919E+04  4.00304E+03  2.05862E+04
 -1.33689E+04  1.05282E+04 -1.11389E+04 -8.90849E+03  6.17798E+03 -1.14943E+04  1.91311E+04  6.38354E+03
  1.43446E+04  2.26256E+04 -6.07887E+03  2.72433E+04 -2.26219E+04  1.51821E+04 -3.09178E+04 -2.02587E+03
 -2.31874E+04 -2.02239E+04 -1.05074E+04 -2.52032E+04  5.57434E+03 -2.51517E+04  1.95098E+04 -2.27880E+04
  3.25032E+04 -1.41297E+04  3.79289E+04  5.97906E+03  2.56925E+04  2.27038E+04  4.62070E+03  4.00571E+04
 -1.90849E+04  3.36033E+04 -2.94481E+04  1.11511E+04 -2.08740E+04 -1.11536E+04 -4.50405E+03 -1.35877E+04
  6.56753E+02 -6.00718E+02 -7.78092E+03  7.61799E+03 -2.04516E+04  4.78513E+03 -1.97709E+04 -8.46525E+03
 -1.22071E+04 -2.28411E+04  5.56526E+03 -2.72929E+04  1.76916E+04 -1.85964E+04  2.31056E+04 -7.89362E+02
  1.54522E+04  1.66391E+04 -1.32194E+03  2.24845E+04 -1.77751E+04  1.38570E+04 -2.41612E+04 -2.46051E+03
 -1.77905E+04 -2.02165E+04 -2.07689E+03 -2.77226E+04  1.35237E+04 -2.25046E+04  2.27770E+04 -1.17265E+04
  2.24102E+04  3.99432E+02  1.56134E+04  5.31643E+03  8.90015E+03  1.62146E+03  1.20363E+04 -3.59648E+03
  2.19679E+04  3.14168E+03  2.46438E+04  1.89775E+04  1.70903E+04  3.77300E+04 -2.79679E+03  4.37259E+04
 -2.35186E+04  3.53313E+04 -4.06207E+04  1.96869E+04 -4.51569E+04 -3.92158E+03 -3.54814E+04 -2.49808E+04
 -1.25827E+04 -3.57098E+04  1.30977E+04 -3.13338E+04  2.79368E+04 -1.46076E+04  2.46992E+04  7.79020E+03
  8.59416E+03  1.80291E+04 -1.09778E+04  1.45817E+04 -1.83479E+04  2.99256E+03 -1.46243E+04 -1.24722E+04
  1.16721E+03 -1.75929E+04  9.91332E+03 -1.27440E+04  1.21739E+04 -1.13251E+03  3.23972E+03  8.74214E+03
 -8.07045E+03  4.37707E+03 -7.61080E+03 -7.97530E+03 -1.95669E+03 -1.78314E+04  1.10224E+04 -1.83017E+04
  2.32329E+04 -1.13210E+04  2.48666E+04  4.85242E+03  2.21532E+04  1.72337E+04  1.12188E+04  2.75120E+04
 -4.13656E+03  3.01164E+04 -1.94354E+04  1.91272E+04 -2.34614E+04  3.79023E+03 -1.49206E+04 -5.25027E+03
 -6.83728E+03 -7.17953E+03 -5.93306E+02  1.10831E+03 -2.34307E+03  3.47208E+03 -7.90708E+03  5.14072E+03
 -1.36026E+04 -1.35849E+03 -1.54789E+04 -1.37074E+04 -6.05376E+03 -1.87536E+04  5.12306E+03 -1.56292E+04
  1.42752E+04 -5.27645E+03  9.65012E+03  4.55415E+03 -6.31131E+02  4.96194E+03 -8.20710E+03  1.19562E+03
 -6.55973E+03 -1.02835E+04 -1.56050E+03 -1.39972E+04  7.97341E+03 -1.55729E+04  1.86675E+04 -8.63793E+03
  2.25075E+04  2.18027E+03  1.69672E+04  1.35493E+04  3.01644E+03  1.73893E+04 -8.64396E+03  1.45586E+04
 -1.24531E+04  2.45790E+03 -4.70898E+03 -3.77011E+03  3.56237E+03 -2.51613E+03  9.47179E+03 -2.15806E+03
  7.01037E+03  7.21438E+03  8.69830E+02  1.16264E+04 -7.63760E+03  1.08761E+04 -1.56361E+04  3.95737E+03
 -1.13800E+04 -8.22683E+03 -1.53495E+03 -1.27450E+04  8.04069E+03 -5.95260E+03  7.85480E+03  2.88655E+03
  1.03662E+03  9.80847E+03 -7.59929E+03  1.01205E+04 -1.42987E+04  4.89820E+03 -1.16870E+04 -5.01747E+03
 -8.70489E+03 -1.33617E+04  4.19595E+03 -1.76119E+04  1.32323E+04 -1.08002E+04  1.64148E+04  4.64167E+03
  9.54236E+03  1.26787E+04  8.92349E+02  1.49592E+04 -1.12576E+04  8.02778E+03 -1.16621E+04 -1.20969E+03
 -9.86787E+03 -1.11025E+04 -2.15704E+03 -1.06686E+04  4.84345E+03 -9.22509E+03  8.03960E+03 -3.39458E+03
  5.09271E+03  1.29065E+03 -1.67866E+02  1.15105E+03 -1.54624E+03 -3.67341E+03  1.03727E+03 -6.69136E+03
  1.11055E+04 -3.17244E+03  1.48235E+04  1.93080E+03  1.39664E+04  9.51527E+03  1.05562E+04  1.87656E+04
 -4.01771E+03  2.30511E+04 -1.82916E+04  1.80368E+04 -2.45884E+04  3.16603E+03 -1.93468E+04 -8.75500E+03
 -1.01471E+04 -1.52427E+04 -2.03943E+02 -1.44217E+04  4.49949E+03 -8.23039E+03  4.23639E+03 -5.73127E+03
  4.24505E+03 -3.41771E+03  4.99247E+03 -4.64664E+03  7.31424E+03 -2.98042E+03  8.44758E+03 -1.05994E+03
  9.63605E+03  2.84249E+03  4.95395E+03  1.01798E+04 -2.74317E+03  1.08631E+04 -1.10555E+04  8.39147E+03
 -1.40030E+04 -1.16043E+03 -7.88381E+03 -9.37555E+03  5.87068E+00 -1.39410E+04  7.91331E+03 -1.50706E+04
  1.57192E+04 -8.46628E+03  1.83697E+04  3.77579E+03  1.21338E+04  1.30261E+04  3.22471E+03  1.60588E+04
 -6.03638E+03  1.28496E+04 -1.02482E+04  5.95330E+03 -7.27099E+03 -1.18673E+03 -2.29091E+03 -8.78866E+02
 -1.44231E+03 -6.67914E+02 -1.52863E+03  2.60222E+03 -7.44183E+03  1.97516E+03 -7.88103E+03  2.23117E+02
 -5.97854E+03 -9.88266E+03 -1.58222E+02 -1.43594E+04  8.39424E+03 -1.26241E+04  1.33077E+04 -3.90233E+03
  1.50657E+04  6.91707E+03  7.08936E+03  1.36334E+04 -2.41018E+03  1.42491E+04 -9.80850E+03  7.83585E+03
 -1.33573E+04  1.50085E+03 -1.07025E+04 -8.12513E+03 -2.79894E+03 -9.73142E+03  6.07886E+03 -7.50802E+03
  8.79434E+03 -1.62950E+03  6.94407E+03  3.03366E+03  3.32717E+03  3.47951E+03  1.95766E+03  1.40406E+03
  4.11850E+03  1.56252E+03  2.89999E+03  1.99567E+03  4.73187E+03  5.66497E+03  2.79674E+03  6.65429E+03
 -3.09977E+03  1.15286E+04 -9.67371E+03  1.12825E+04 -1.43483E+04  2.91630E+03 -1.39588E+04 -5.59276E+03
 -8.50722E+03 -1.46536E+04  3.89172E+03 -1.51484E+04  9.79232E+03 -8.93725E+03  1.14421E+04 -3.82277E+03
  7.84889E+03  5.97998E+03  2.79501E+03  5.97188E+03 -2.55212E+03  5.24508E+03 -5.60914E+03 -1.40338E+02
 -2.52223E+03 -7.08714E+03  3.87229E+03 -7.05884E+03  5.39910E+03 -2.46315E+03  5.21296E+03  1.89870E+03
  4.06024E+03  1.86605E+03  6.23581E+02  2.36801E+03  7.08104E+02  1.67071E+03  2.45378E+03 -5.83088E+02
  8.09906E+02 -5.91242E+02  5.80967E+03  2.67363E+03  2.42657E+03  8.18519E+03 -1.55126E+03  1.04681E+04
 -6.19090E+03  6.31369E+03 -9.07871E+03  1.33875E+03 -7.91069E+03 -3.88479E+03 -3.76464E+03 -6.65037E+03
  1.36148E+03 -4.06977E+03  3.04140E+03 -2.77722E+03  2.96981E+03  1.85003E+03 -1.82217E+03  4.43395E+03
 -7.06692E+03  2.50394E+03 -6.16584E+03 -1.88833E+03 -3.03038E+03 -8.13766E+03  2.93730E+03 -7.28104E+03
  4.11194E+03 -4.23882E+03  4.96679E+03  3.33379E+01  4.46102E+03  8.67947E+02 -1.19381E+02  3.72439E+03
 -3.09776E+03  1.97691E+03 -2.79745E+03 -3.29498E+03  2.01896E+03 -6.85354E+03  6.57690E+03 -5.35556E+03
  8.27563E+03  2.68951E+03  7.90491E+03  6.70907E+03  4.27478E+03  9.60318E+03 -4.35738E+03  9.30850E+03
 -6.55209E+03  1.96537E+03 -6.13100E+03 -2.88125E+03 -2.89252E+03 -6.21587E+03  2.09466E+03 -4.41042E+03
  5.67578E+03 -3.14651E+03  4.93346E+03  2.74625E+03  2.30370E+03  4.11389E+03 -1.53827E+02  3.50519E+03
 -1.00295E+03  3.59830E+03 -2.76253E+03  3.86553E+02 -2.21689E+03  4.27133E+02 -1.49091E+03  3.48428E+03
 -3.32206E+03  3.80384E+03 -6.32362E+03  3.51311E+03 -8.89197E+03  4.43206E+02 -9.00894E+03 -5.99982E+03
 -6.57027E+03 -1.08305E+04  1.58554E+03 -1.40269E+04  1.01448E+04 -1.06472E+04  1.20903E+04 -4.48034E+03
  1.16802E+04  2.39470E+03  5.92619E+03  9.14184E+03  5.59719E+02  8.91664E+03 -3.88439E+03  5.80868E+03
 -4.44053E+03  1.65314E+03 -3.58160E+03 -1.14996E+03 -1.10193E+03 -1.25423E+03  8.98296E+02  3.48408E+02
 -2.60400E+03  1.24660E+03 -1.98999E+03  1.42994E+02  2.00613E+02 -3.10336E+03 -5.83373E+02 -3.68528E+03
  4.88896E+03 -3.55600E+03  7.10899E+03  1.33103E+03  6.57499E+03  3.56297E+03  1.98563E+02  9.94531E+03
 -4.39257E+03  1.00946E+04 -8.77743E+03  6.27485E+03 -1.05947E+04 -1.00161E+03 -7.88049E+03 -7.82192E+03
 -3.60718E+03 -9.56657E+03  3.94513E+02 -8.48432E+03  6.69190E+03 -3.38874E+03  5.06966E+03  1.29402E+03
  3.24836E+03  1.14890E+03 -2.18141E+02  2.87726E+03 -2.47487E+03 -1.31186E+03  4.06062E+02 -9.79034E+02
  1.98650E+03 -1.66605E+03  2.35966E+03  1.32326E+03  2.25215E+03  3.64059E+03 -7.87762E+02  3.74420E+03
 -2.88193E+03  4.10570E+03 -7.26929E+03  1.40479E+03 -4.75849E+03 -3.64015E+03 -1.07085E+03 -8.09922E+03
  3.09484E+03 -6.44262E+03  6.59466E+03 -2.52377E+03  7.02225E+03  6.33781E+02  3.74030E+03  6.19870E+03
 -2.14689E+02  5.38834E+03 -3.60089E+03  2.19990E+03 -2.95218E+03  2.35466E+03 -3.25784E+03  1.28040E+03
 -1.64358E+02  1.05263E+03 -1.61044E+03  2.17567E+03 -3.11115E+03  1.69949E+03 -5.39088E+03 -1.73296E+03
 -3.82437E+03 -1.83836E+03 -2.20978E+03 -5.66394E+03  2.23584E+03 -6.13846E+03  4.74918E+03 -1.05822E+03
  6.02886E+03  8.31681E+02  1.89165E+03  4.03806E+03 -1.09808E+03  5.69925E+03 -4.82439E+03  4.45351E+03
