 $NMID ID='MM_0lb_SNR200_17hz_g45_66.RAW', FMTDAT='(8E13.5)'
 TRAMP=1., VOLUME=1. $END
  3.09217E+05  7.49939E+02  3.37191E+05  2.50085E+05  8.54496E+04  3.37825E+05 -1.32682E+05  2.50589E+05
 -1.90081E+05  8.31044E+04 -1.10265E+05 -3.29819E+04  6.73634E+02 -5.12206E+04  5.40670E+04 -3.81098E+01
  3.42266E+04  5.33338E+04 -1.68600E+04  7.49562E+04 -6.12560E+04  6.31224E+04 -8.40193E+04  3.17750E+04
 -7.95364E+04 -1.02044E+04 -5.69848E+04 -5.10385E+04 -1.60092E+04 -6.86979E+04  2.74338E+04 -4.62462E+04
  3.94083E+04  3.32102E+03  1.50284E+04  4.73246E+04 -3.45904E+04  4.62733E+04 -6.51114E+04 -1.26729E+03
 -5.28279E+04 -5.58617E+04 -6.39443E+03 -7.56010E+04  3.32198E+04 -5.36974E+04  4.59618E+04 -1.71334E+04
  4.17278E+04  1.12164E+04  3.00256E+04  2.45018E+04  1.65878E+04  2.86016E+04 -5.35190E+03  2.63914E+04
 -2.17987E+04  1.26458E+04 -1.81457E+04 -5.08897E+03  3.92728E+03 -7.18689E+03  1.90761E+04  1.08754E+04
  8.15609E+03  3.30054E+04 -3.08436E+04  3.44319E+04 -6.13066E+04  2.22292E+03 -5.62394E+04 -4.14605E+04
 -1.22340E+04 -6.11935E+04  3.82178E+04 -4.40155E+04  5.59833E+04 -1.25364E+03  3.23399E+04  3.08193E+04
 -6.13068E+03  3.50075E+04 -2.90293E+04  1.53430E+04 -2.94080E+04 -5.64350E+03 -1.58270E+04 -1.01861E+04
 -8.39313E+03 -1.23150E+04 -6.07067E+02 -1.76077E+04  7.44521E+03 -2.22440E+04  1.47037E+04 -1.36897E+04
  1.23314E+04  4.30578E+03 -6.74004E+03  1.16359E+04 -2.06717E+04 -3.94773E+03 -7.13417E+03 -3.20130E+04
  2.10461E+04 -4.22785E+04  4.59685E+04 -1.73443E+04  4.32036E+04  1.92048E+04  1.43263E+04  4.25572E+04
 -1.62133E+04  3.16462E+04 -2.39510E+04  5.08128E+02 -8.72600E+03 -2.69117E+04  2.08095E+04 -3.11406E+04
  3.84625E+04 -7.20352E+03  3.28604E+04  2.35022E+04  1.63793E+04  4.24811E+04 -7.58858E+03  4.62369E+04
 -3.00634E+04  3.15506E+04 -3.83094E+04  9.22418E+03 -3.91224E+04 -1.54297E+04 -2.19215E+04 -3.50117E+04
  7.05532E+03 -3.45687E+04  3.02892E+04 -1.37144E+04  2.67438E+04  1.06394E+04  2.71351E+03  1.83327E+04
 -1.43537E+04  7.58638E+03 -1.03074E+04 -7.73944E+03  5.85824E+03 -1.08394E+04  1.80095E+04  6.97655E+03
  1.31707E+04  2.19541E+04 -6.58392E+03  2.45521E+04 -2.19991E+04  9.70016E+03 -2.73481E+04 -6.26343E+03
 -1.74635E+04 -1.57052E+04 -6.98792E+03 -1.79548E+04  3.91341E+03 -1.53765E+04  1.31347E+04 -1.56716E+04
  2.28669E+04 -1.20492E+04  2.91204E+04  1.34092E+03  2.16266E+04  1.84840E+04  4.47563E+03  3.36968E+04
 -1.68779E+04  2.82642E+04 -2.65665E+04  9.78802E+03 -2.06083E+04 -1.01210E+04 -2.86454E+03 -1.40182E+04
  2.49847E+03 -4.43088E+03 -3.39167E+03  5.52948E+03 -1.44158E+04  5.91199E+03 -1.34318E+04 -6.36743E+03
 -9.46124E+03 -1.57545E+04  4.27436E+03 -1.91480E+04  1.30715E+04 -1.37927E+04  1.50113E+04 -1.10519E+03
  8.35983E+03  1.10711E+04 -1.69557E+03  1.60775E+04 -1.14395E+04  1.01030E+04 -1.73426E+04 -2.26566E+03
 -1.19442E+04 -1.49135E+04 -1.80608E+03 -1.99319E+04  8.63736E+03 -1.67882E+04  1.71698E+04 -7.12574E+03
  1.45801E+04  3.64217E+02  1.13200E+04  3.94151E+03  4.56454E+03 -7.18229E+02  8.02883E+03 -1.75199E+03
  1.56119E+04  3.66606E+03  1.55934E+04  1.32701E+04  9.83575E+03  2.62588E+04 -2.79238E+03  2.86652E+04
 -1.73523E+04  2.23146E+04 -2.62136E+04  1.11173E+04 -2.57918E+04 -2.66311E+03 -2.29713E+04 -1.46673E+04
 -1.08056E+04 -2.17229E+04  6.99594E+03 -2.07285E+04  1.71790E+04 -1.15283E+04  1.66256E+04  3.74846E+03
  7.02389E+03  1.15031E+04 -7.04743E+03  1.04061E+04 -1.40462E+04  3.15616E+03 -1.07903E+04 -9.61700E+03
 -2.18044E+02 -1.33488E+04  5.96561E+03 -9.99414E+03  7.76975E+03 -1.90924E+03  1.02313E+03  5.30645E+03
 -5.93471E+03  9.36403E+02 -3.82628E+03 -5.92498E+03  5.34827E+02 -1.05519E+04  8.96500E+03 -1.08010E+04
  1.34367E+04 -5.83919E+03  1.35498E+04  6.82057E+02  1.21189E+04  8.99788E+03  5.16425E+03  1.57466E+04
 -2.56757E+03  1.63451E+04 -9.61266E+03  1.10261E+04 -1.31814E+04  2.42670E+03 -9.20489E+03 -1.72451E+03
 -3.18292E+03 -4.21962E+03 -1.12287E+02  1.41167E+03 -2.29754E+03  1.29021E+03 -4.53287E+03  3.45237E+03
 -8.12796E+03  1.86657E+02 -1.02689E+04 -7.97923E+03 -4.00769E+03 -1.39228E+04  4.08968E+03 -9.63872E+03
  6.85848E+03 -4.24871E+03  5.83979E+03  2.41935E+03 -6.44126E+02  4.75594E+03 -3.73928E+03 -6.79724E+02
 -3.34052E+03 -6.08887E+03 -1.69422E+03 -7.54898E+03  3.22459E+03 -9.06825E+03  1.12271E+04 -3.50964E+03
  1.29017E+04  8.87830E+02  1.03824E+04  7.73689E+03  2.47197E+03  9.82707E+03 -5.32792E+03  8.58909E+03
 -7.87546E+03  3.32988E+03 -3.10138E+03 -7.51772E+02  1.78963E+03 -2.39263E+03  4.47557E+03 -2.32831E+03
  4.87236E+03  3.11803E+03  1.32820E+02  7.26991E+03 -5.32522E+03  6.20956E+03 -7.74061E+03  2.02340E+03
 -4.65900E+03 -3.73051E+03  1.70465E+02 -7.46494E+03  4.19013E+03 -3.83541E+03  4.30175E+03  1.88147E+03
  7.48140E+02  3.67243E+03 -5.10419E+03  5.03610E+03 -5.60954E+03  3.24415E+03 -4.92616E+03 -1.03885E+03
 -3.44329E+03 -7.12475E+03  1.55108E+03 -7.23571E+03  6.77453E+03 -4.73188E+03  8.18900E+03  8.82827E+02
  5.24694E+03  6.61277E+03 -4.45920E+02  7.74378E+03 -5.30591E+03  3.62889E+03 -5.74203E+03  2.63668E+01
 -6.31932E+03 -4.43954E+03 -1.82029E+03 -7.22885E+03  3.55993E+03 -3.66550E+03  3.32713E+03 -3.24785E+03
  2.00273E+03  1.04900E+01 -2.86119E+02  3.59973E+02  1.42601E+03 -1.46585E+03 -2.23255E+02 -2.45881E+03
  4.47334E+03 -6.26827E+02  5.94497E+03  9.50917E+02  5.45471E+03  5.72581E+03  6.10081E+03  8.56441E+03
 -1.77701E+03  8.98167E+03 -8.35447E+03  6.37135E+03 -1.14893E+04  1.23237E+03 -9.16448E+03 -3.33318E+03
 -5.02180E+03 -7.84113E+03  4.29115E+02 -6.51887E+03  2.77322E+03 -2.51726E+03  1.57705E+03 -3.44783E+03
  1.26327E+03 -1.25173E+03  3.20393E+03 -2.77349E+03  3.33447E+03 -1.67026E+03  3.88498E+03  5.21506E+01
  3.62387E+03  1.78073E+03  1.52833E+03  4.35270E+03 -1.07676E+03  1.73585E+03 -4.91526E+03  3.42288E+03
 -5.28175E+03 -9.78646E+02 -1.39142E+03 -3.79612E+03 -7.32586E+02 -5.59011E+03  4.13483E+03 -6.35562E+03
  6.15891E+03 -3.46531E+03  7.71416E+03  4.38006E+02  5.69420E+03  5.60843E+03  1.07750E+03  6.28796E+03
 -1.76648E+03  6.17951E+03 -3.53903E+03  1.69605E+03 -2.65823E+03 -1.80031E+03 -4.00947E+02 -5.71007E+02
 -5.16361E+02  1.06970E+03 -1.81838E+03  2.69402E+03 -3.24669E+03  2.88211E+02 -4.26416E+03 -2.46431E+02
 -2.08558E+03 -4.10346E+03  6.34163E+02 -5.48587E+03  3.93710E+03 -5.04638E+03  3.80521E+03 -1.72638E+03
  4.72399E+03  3.12179E+03  1.99794E+03  4.67011E+03 -1.61523E+03  5.05783E+03 -4.00012E+03  1.97988E+03
 -4.40895E+03  5.13765E+02 -4.38010E+03 -3.18742E+03 -6.09976E+02 -3.13604E+03  2.00541E+03 -3.19376E+03
  3.83402E+03 -1.74077E+03  2.14073E+03  2.29621E+02  4.40011E+02  2.30920E+03  1.51756E+03  3.90197E+02
  1.55058E+03  1.26617E+03  2.30409E+03  1.90968E+03  1.64051E+03  3.09833E+03  6.54253E+02  2.47684E+03
 -5.77102E+02  3.55567E+03 -2.96758E+03  5.13410E+03 -4.23051E+03  1.68724E+03 -3.98910E+03 -1.27444E+03
 -2.65995E+03 -4.51585E+03  6.86421E+02 -6.25040E+03  1.92910E+03 -3.38174E+03  4.18574E+03 -9.37871E+02
  3.77039E+03  2.23708E+03  9.42187E+02  3.46089E+03 -1.18873E+03  4.83099E+02 -1.07388E+03  7.32515E+01
 -5.19563E+02 -1.30072E+03  2.05484E+02 -1.14897E+03  1.74189E+03 -1.15416E+03  1.40915E+03 -6.21614E+02
  2.29470E+03  9.24763E+02  5.81299E+02 -5.25259E+02  5.14371E+01 -7.80298E+02  1.44675E+03  3.38445E+02
 -4.44765E+02  8.67827E+01  2.16306E+03  1.19130E+03  9.14374E+02  1.93666E+03 -1.09846E+03  4.10197E+03
 -1.36469E+03  2.28336E+03 -2.30114E+03  3.89469E+02 -2.70749E+03 -5.78875E+02 -4.20573E+02 -7.80504E+02
 -5.37745E+02 -1.33360E+03  6.81487E+02 -8.72471E+02  9.78450E+02  7.69147E+02 -1.37443E+03  1.45096E+03
 -1.53877E+03  7.57482E+02 -1.67055E+03 -1.17673E+03 -9.99483E+02 -3.04796E+03 -8.11340E+02 -3.00626E+03
  1.81475E+03 -5.15996E+02  1.42163E+03 -4.90996E+01  1.51854E+03  2.49362E+02  2.03712E+02  1.07174E+03
 -1.24829E+03 -1.47562E+02 -8.80020E+02 -1.34518E+03  1.17261E+03 -1.70126E+03  1.15972E+03 -1.80872E+03
  7.89138E+02  5.81815E+02  3.05335E+03  1.90816E+03  4.59479E+02  2.09148E+03 -5.87264E+00  1.92238E+03
 -1.78286E+03 -5.47225E+02 -3.08714E+03  3.91041E+02 -7.35611E+02 -2.15349E+03  1.04798E+03 -1.27637E+03
  2.33753E+03 -1.28127E+03  1.92093E+02  7.28715E+02 -8.63467E+01  1.36274E+03  6.13979E+02  2.59932E+03
 -1.05443E+03  1.00444E+03 -2.22209E+03 -2.87750E+02 -1.27746E+02 -1.42452E+02 -8.49803E+02  9.32203E+02
 -4.21366E+02  1.02011E+03 -1.78805E+03 -9.81624E+02 -3.01810E+03 -3.79946E+02 -3.41516E+03 -1.42200E+03
 -9.38332E+02 -3.26338E+03  8.55717E+02 -3.98008E+03  1.31182E+03 -2.27835E+03  4.97926E+03 -2.00295E+03
  3.74782E+03  3.11233E+02  3.41799E+02  2.10832E+03 -6.54911E+01  3.10348E+03 -4.61821E+02  2.13680E+03
 -3.70032E+02  1.73987E+03 -1.38805E+03 -7.27363E+02 -4.51331E+02 -5.72408E+02 -8.92356E+02  1.82154E+01
 -8.71095E+02 -4.94615E+02 -7.70177E+02  5.93757E+02  5.45422E+02 -6.79599E+02  6.71935E+02 -7.79775E+02
  5.41264E+02 -3.93200E+02  1.26566E+03  1.46270E+03  2.74027E+03  1.09137E+03 -7.34363E+02  1.24397E+03
 -1.39536E+03  2.65523E+03 -1.94004E+03  1.02041E+03 -2.09524E+03 -1.45686E+03 -2.04192E+03 -1.23555E+03
 -1.15765E+03 -2.05797E+03  7.55525E+02 -1.63288E+03  1.08749E+03 -1.95602E+02  1.41480E+03  2.90932E+02
  3.64779E+02  1.68952E+03  1.73295E+02  1.20544E+03 -3.69796E+02 -2.26332E+02 -1.16320E+02 -4.43589E+02
  1.01123E+03  3.08951E+02  7.08875E+02  6.03748E+02 -6.35883E+02  7.98807E+02  7.18861E+02  5.26041E+02
 -1.08378E+03  1.07088E+03 -1.11668E+03  4.96471E+02 -6.91599E+02 -1.16376E+02 -1.72150E+02 -1.81062E+03
  5.66136E+02 -1.25849E+03  1.20193E+03 -1.42309E+02  1.82948E+03 -1.00454E+03  7.85701E+02  1.22002E+03
  1.14970E+03  1.58174E+03 -4.15880E+02  8.04606E+02 -1.18881E+03  2.00704E+03 -6.82298E+02 -4.92599E+01
  7.40020E+02 -1.78651E+02 -9.13980E+02  1.02637E+02 -1.47831E+03  6.67189E+02 -4.40687E+02 -1.38321E+03
 -1.57229E+03  7.24983E+01 -2.59218E+02 -1.03271E+03  2.72103E+02 -1.30398E+03  8.16298E+02  4.72815E+02
  1.13180E+03 -3.02404E+02  7.22605E+02  9.47645E+02 -1.98415E+02  7.31784E+02 -6.52046E+02  1.33019E+03
