 $NMID ID='MM_0lb_SNR200_15hz_g40_46.RAW', FMTDAT='(8E13.5)'
 TRAMP=1., VOLUME=1. $END
  3.09740E+05 -5.75056E+02  3.37551E+05  2.50732E+05  8.56108E+04  3.36077E+05 -1.32301E+05  2.51429E+05
 -1.89620E+05  8.17524E+04 -1.11545E+05 -3.42998E+04  5.08364E+02 -5.04252E+04  5.34503E+04  4.71740E+02
  3.48242E+04  5.36274E+04 -1.63811E+04  7.58604E+04 -6.09094E+04  6.37778E+04 -8.25379E+04  3.27371E+04
 -8.05979E+04 -1.15896E+04 -5.72119E+04 -5.08639E+04 -1.55615E+04 -6.90240E+04  2.62839E+04 -4.60444E+04
  3.95027E+04  4.28565E+03  1.65139E+04  4.67190E+04 -3.38470E+04  4.66488E+04 -6.67352E+04 -7.65512E+01
 -5.42136E+04 -5.62184E+04 -5.84574E+03 -7.55016E+04  3.40390E+04 -5.52023E+04  4.56748E+04 -1.65898E+04
  4.24457E+04  1.09238E+04  3.03575E+04  2.45081E+04  1.55956E+04  2.97440E+04 -5.34277E+03  2.71717E+04
 -2.19626E+04  1.27356E+04 -1.87862E+04 -4.06636E+03  4.99963E+03 -6.74636E+03  2.28359E+04  1.11940E+04
  5.86064E+03  3.43640E+04 -3.16142E+04  3.50287E+04 -6.18057E+04  1.52429E+03 -5.63417E+04 -4.14851E+04
 -1.20018E+04 -6.20804E+04  3.89540E+04 -4.28235E+04  5.77094E+04 -2.22561E+03  3.27195E+04  3.18636E+04
 -6.15651E+03  3.44423E+04 -2.97232E+04  1.59487E+04 -2.88266E+04 -5.19275E+03 -1.62851E+04 -9.38403E+03
 -6.99931E+03 -1.19670E+04 -2.57041E+02 -1.61138E+04  7.08371E+03 -2.34979E+04  1.50216E+04 -1.39952E+04
  1.15799E+04  5.25355E+03 -7.59029E+03  1.22361E+04 -2.03898E+04 -2.26107E+03 -8.76252E+03 -3.20123E+04
  2.06863E+04 -4.23830E+04  4.66712E+04 -1.91801E+04  4.32443E+04  1.99171E+04  1.47892E+04  4.17724E+04
 -1.59910E+04  3.20198E+04 -2.44357E+04  1.56797E+03 -9.05215E+03 -2.72139E+04  2.08981E+04 -3.24054E+04
  3.91796E+04 -8.86662E+03  3.34677E+04  2.37654E+04  1.66008E+04  4.46510E+04 -7.66608E+03  4.75435E+04
 -2.98545E+04  3.08837E+04 -3.94662E+04  8.70989E+03 -4.13144E+04 -1.62257E+04 -2.15184E+04 -3.64167E+04
  6.93967E+03 -3.68130E+04  3.08540E+04 -1.38177E+04  2.83135E+04  1.08239E+04  4.00534E+03  1.80824E+04
 -1.25185E+04  7.16274E+03 -9.11423E+03 -8.64689E+03  4.57091E+03 -1.05727E+04  1.60266E+04  6.77945E+03
  1.33530E+04  2.17757E+04 -5.88489E+03  2.32870E+04 -2.35289E+04  1.01824E+04 -2.78434E+04 -5.03716E+03
 -1.91332E+04 -1.76667E+04 -7.28923E+03 -1.80359E+04  4.49572E+03 -1.75194E+04  1.47922E+04 -1.86691E+04
  2.23809E+04 -1.26514E+04  3.08864E+04  1.76470E+03  2.16853E+04  1.81792E+04  3.75525E+03  3.34593E+04
 -1.75290E+04  2.92938E+04 -2.69409E+04  9.45817E+03 -1.89911E+04 -1.00573E+04 -3.39675E+03 -1.40736E+04
  2.77983E+03 -3.30612E+03 -4.93871E+03  5.81622E+03 -1.39188E+04  4.99276E+03 -1.53578E+04 -6.37115E+03
 -8.37602E+03 -1.74036E+04  6.48258E+03 -2.16495E+04  1.50332E+04 -1.64799E+04  1.74260E+04 -2.67829E+03
  9.22990E+03  1.31805E+04 -6.92175E+02  1.70084E+04 -1.14853E+04  9.00396E+03 -1.81391E+04 -4.19260E+03
 -1.36075E+04 -1.59715E+04 -1.53670E+03 -1.96923E+04  1.02934E+04 -1.71302E+04  1.75901E+04 -9.06659E+03
  1.69520E+04  1.28079E+03  1.18255E+04  3.89561E+03  6.43993E+03 -4.50150E+02  1.00727E+04 -7.00629E+02
  1.53056E+04  2.59128E+03  1.66421E+04  1.48093E+04  1.16414E+04  2.73504E+04 -1.91713E+03  3.16683E+04
 -1.77324E+04  2.43121E+04 -2.81194E+04  1.27551E+04 -3.02746E+04 -2.12620E+03 -2.52412E+04 -1.72274E+04
 -1.01039E+04 -2.48480E+04  8.26649E+03 -2.24343E+04  1.83285E+04 -1.21139E+04  1.83976E+04  4.31447E+03
  8.59512E+03  1.23370E+04 -7.37930E+03  1.27931E+04 -1.47500E+04  3.24555E+03 -1.02592E+04 -7.79245E+03
 -8.69974E+02 -1.41481E+04  8.03911E+03 -1.08506E+04  9.57124E+03 -1.56415E+03  1.62020E+03  5.86507E+03
 -6.54908E+03  2.92110E+03 -5.04625E+03 -5.40168E+03  5.97964E+02 -1.28614E+04  9.15619E+03 -1.13268E+04
  1.45500E+04 -6.82408E+03  1.46059E+04  2.48994E+03  1.40097E+04  1.15519E+04  5.51915E+03  1.80113E+04
 -2.19416E+03  2.02144E+04 -1.26358E+04  1.27543E+04 -1.27293E+04  2.89002E+03 -9.54990E+03 -3.42237E+03
 -3.71114E+03 -3.51810E+03 -7.29535E+02  6.14880E+02 -2.98040E+03  2.16805E+03 -3.82856E+03  3.92528E+03
 -9.56755E+03 -1.31288E+02 -9.36694E+03 -6.58817E+03 -4.45665E+03 -1.33993E+04  3.53474E+03 -1.09250E+04
  9.14526E+03 -4.98859E+03  5.76112E+03  2.55402E+03 -1.74562E+02  4.00832E+03 -4.11883E+03 -2.19441E+01
 -3.56432E+03 -6.96394E+03 -6.16394E+02 -1.03765E+04  5.11402E+03 -9.44433E+03  1.30298E+04 -5.11915E+03
  1.43729E+04  1.63961E+03  1.03177E+04  7.38992E+03  1.93405E+03  1.02690E+04 -5.69279E+03  8.68270E+03
 -8.12236E+03  3.90863E+03 -4.35069E+03 -2.69506E+03  1.53252E+03 -1.75897E+03  5.24663E+03 -5.33605E+02
  5.34210E+03  4.53992E+03 -2.62117E+02  7.31923E+03 -7.14575E+03  7.72640E+03 -9.20233E+03  1.49310E+03
 -6.37160E+03 -5.49532E+03  1.10270E+02 -9.58953E+03  3.50726E+03 -3.96903E+03  4.99831E+03  1.36371E+03
  1.09326E+03  5.79493E+03 -5.88155E+03  6.03686E+03 -7.00635E+03  2.08251E+03 -7.62193E+03 -2.01420E+03
 -4.49977E+03 -8.34426E+03  3.38513E+03 -1.05179E+04  8.28082E+03 -7.02658E+03  8.91506E+03  1.51230E+03
  5.35972E+03  7.31402E+03 -1.44610E+03  9.02648E+03 -5.77879E+03  5.46534E+03 -6.67665E+03 -2.82029E+02
 -7.22828E+03 -7.29532E+03  3.38568E+02 -7.13180E+03  3.82541E+03 -5.05748E+03  4.16674E+03 -2.51809E+03
  3.17564E+03 -2.96565E+02  7.61720E+02  1.12345E+03 -2.97189E+02 -6.59171E+02 -1.96737E+02 -3.37550E+03
  6.24008E+03 -1.92538E+03  7.63776E+03  1.01870E+03  7.66934E+03  4.88405E+03  6.34403E+03  1.01216E+04
 -2.10850E+03  1.23666E+04 -1.14506E+04  9.48152E+03 -1.42761E+04  9.98861E+02 -1.06528E+04 -5.61107E+03
 -5.04117E+03 -1.02340E+04 -1.06745E+03 -6.81320E+03  3.39972E+03 -2.99976E+03  2.34752E+03 -2.78482E+03
  2.86601E+03 -1.12515E+03  3.42647E+03 -3.57791E+03  3.54310E+03 -7.96199E+02  4.55604E+03  1.21560E+01
  5.81875E+03 -1.15554E+02  1.38676E+03  4.89824E+03 -1.49746E+03  4.53758E+03 -5.81637E+03  4.53370E+03
 -5.96898E+03 -1.55230E+03 -2.46649E+03 -5.31562E+03 -5.47921E+02 -7.93610E+03  3.79257E+03 -7.68893E+03
  7.83971E+03 -5.01473E+03  9.59252E+03  1.34442E+03  7.51773E+03  6.20322E+03  1.09549E+03  8.92966E+03
 -3.50974E+03  8.84881E+03 -5.60671E+03  2.36587E+03 -1.65247E+03 -1.10825E+03 -1.09317E+03 -2.11069E+03
 -2.52413E+02 -3.90310E+02 -1.57101E+03  2.24517E+03 -3.34449E+03  1.74051E+03 -6.05373E+03 -6.07850E+02
 -3.77668E+03 -5.37678E+03  6.74240E+02 -6.27415E+03  3.99874E+03 -6.30226E+03  6.56730E+03 -2.01318E+03
  5.90717E+03  3.43121E+03  2.78583E+03  5.37611E+03 -1.60784E+03  7.59249E+03 -4.85958E+03  2.78345E+03
 -5.43873E+03  1.60276E+03 -4.84725E+03 -3.13842E+03 -9.19038E+02 -5.52205E+03  1.85051E+03 -3.41904E+03
  4.58115E+03 -8.71587E+02  2.69414E+03  1.27761E+03  3.74000E+02  2.98647E+03  6.18860E+01  2.71002E+02
  2.13594E+03 -2.28310E+02  2.02895E+03  1.70298E+03  1.68100E+03  2.78323E+03  2.19719E+03  1.88653E+03
 -2.19820E+03  4.73862E+03 -4.40582E+03  4.85404E+03 -4.68030E+03  1.11832E+03 -6.87532E+03 -2.23790E+03
 -1.88091E+03 -6.54178E+03  1.14741E+03 -7.19642E+03  4.16883E+03 -4.12874E+03  5.32510E+03 -4.24643E+02
  3.55243E+03  3.82332E+03  1.07244E+03  3.12012E+03 -1.88075E+03  2.32953E+03 -1.45680E+03 -1.04944E+02
 -4.77890E+02 -2.69990E+03  1.92823E+03 -1.55010E+03  1.02208E+03 -1.73277E+03  1.01830E+03  1.66081E+02
  1.48422E+03  3.32559E+02  9.25143E+02 -4.82972E+01 -5.99445E+02  1.50294E+03  2.96604E+03  7.40259E+02
  4.13361E+02  5.52888E+01  3.04818E+03  5.49150E+02  4.71451E+02  3.92900E+03  4.35918E+02  5.08648E+03
 -3.39374E+03  2.53492E+03 -4.18214E+03  9.63521E+02 -1.70901E+03 -1.65777E+03 -1.10183E+03 -2.08960E+03
  6.79645E+02 -1.66458E+03  2.57761E+03 -1.46610E+03  1.87442E+03  4.27011E+02 -1.22296E+03  2.84798E+03
 -2.48312E+03  1.49511E+03 -3.87042E+03 -1.98475E+03 -1.43489E+03 -2.81882E+03  1.04700E+03 -4.17426E+03
  2.55692E+03 -7.31254E+02  1.27161E+03 -1.88091E+02  2.51798E+03  1.21522E+03 -4.06720E+02  1.80099E+03
 -5.99977E+01  6.84200E+02 -1.47166E+03  5.23013E+02  9.14914E+01 -2.15968E+03  2.64497E+03 -2.56072E+03
  2.84979E+03  7.06753E+02  3.92316E+03  3.31617E+03  1.03705E+03  2.94473E+03 -1.32299E+03  2.37533E+03
 -2.04368E+03  1.25188E+03 -2.93802E+03 -3.45326E+02 -1.19832E+03 -2.31201E+03  6.29593E+02 -1.30906E+03
  2.40767E+03 -1.28319E+03  1.83527E+03  8.17683E+02  9.63004E+02  2.02214E+03  3.56479E+02  2.47232E+03
 -2.12913E+03  2.10180E+03 -9.64445E+02  5.19716E+02 -2.84885E-01  4.19001E+02  2.25799E+02  1.17455E+03
 -1.18164E+03  1.34457E+03 -2.59896E+03  2.85398E+03 -2.78889E+03  7.33113E+01 -4.42713E+03 -7.52330E+02
 -1.78354E+03 -5.10992E+03  3.71553E+02 -4.98816E+03  2.89705E+03 -4.44851E+03  4.42234E+03 -2.85910E+03
  3.89955E+03  1.05160E+03  3.31860E+03  2.53662E+03  6.14679E+01  3.32758E+03 -1.36727E+03  2.77023E+03
 -1.60705E+03  7.68583E+02 -1.49155E+03  1.17174E+02 -3.83793E+01 -1.20456E+02 -8.57446E+02 -6.57427E+02
 -1.39419E+03 -9.54003E+02 -2.15510E+03 -4.45918E+02 -1.70197E+02 -1.49330E+03 -5.21544E+02 -1.53903E+03
  2.36543E+03 -4.05782E+02  6.33510E+02 -4.38672E+02  2.35623E+03  9.42574E+02 -7.87669E+02  2.68763E+03
 -9.29079E+02  3.06125E+03 -3.41045E+03  2.04862E+03 -3.52318E+03 -7.53479E+02 -2.81081E+03 -2.97302E+03
 -1.54965E+03 -3.69193E+03  3.88663E+02 -2.45132E+03  6.15235E+02 -1.73967E+03  1.16890E+03  1.24101E+03
  5.10668E+02  4.13699E+02  1.21167E+03  7.65606E+02 -6.91248E+02 -5.04646E+02 -6.29928E+02  3.05211E+02
  1.25566E+03  6.20589E+02  7.77543E+02  1.34238E+03  2.68779E+02  1.23476E+03  1.18225E+03  7.61574E+02
 -1.30287E+03 -3.50566E+02 -1.68500E+03  8.63246E+02 -2.04739E+03 -1.37164E+03 -1.22690E+02 -2.39373E+03
  2.07195E+03 -2.45194E+03  2.60297E+03  2.16976E+02  1.46444E+03  5.51651E+02  1.10229E+03  2.88447E+03
  1.93476E+03  2.30544E+03 -9.39224E+02  1.71032E+03  1.32541E+02  4.04546E+02 -1.63652E+03  1.46237E+02
 -1.19512E+01 -9.85603E+02  1.00336E+03 -8.85845E+01 -1.41083E+03  8.28427E+02 -2.64925E+02 -5.52741E+01
 -1.68597E+03  2.10797E+02  4.03336E+02 -1.48786E+03  9.21986E+02 -1.80274E+03  5.55355E+02 -4.12716E+02
  1.77194E+03 -3.71116E+02  6.89553E+02  1.66139E+03  6.20733E+02  2.66108E+03 -1.81201E+03  1.38061E+03
