 $NMID ID='MM_0lb_SNR200_11hz_g40_99.RAW', FMTDAT='(8E13.5)'
 TRAMP=1., VOLUME=1. $END
  3.09553E+05  5.98161E+02  3.37626E+05  2.51485E+05  8.39322E+04  3.37637E+05 -1.33298E+05  2.51166E+05
 -1.89727E+05  8.42864E+04 -1.10879E+05 -3.15364E+04  3.52888E+02 -5.01935E+04  5.28336E+04  6.41168E+02
  3.51447E+04  5.14925E+04 -1.66319E+04  7.54524E+04 -6.13608E+04  6.33539E+04 -8.43210E+04  3.16278E+04
 -8.14316E+04 -1.21552E+04 -5.79848E+04 -5.21613E+04 -1.52721E+04 -7.01439E+04  2.82414E+04 -4.62024E+04
  4.16756E+04  3.54188E+03  1.56853E+04  4.85539E+04 -3.54365E+04  4.69557E+04 -6.69258E+04 -5.03091E+02
 -5.41047E+04 -5.57809E+04 -6.37173E+03 -7.78826E+04  3.44732E+04 -5.63862E+04  4.84997E+04 -1.72642E+04
  4.49538E+04  1.01212E+04  3.25320E+04  2.68739E+04  1.61734E+04  2.79761E+04 -5.06496E+03  2.79405E+04
 -2.13294E+04  1.16729E+04 -1.76083E+04 -5.34525E+03  6.02520E+03 -7.91841E+03  2.22859E+04  1.26070E+04
  6.68916E+03  3.53022E+04 -3.39452E+04  3.68428E+04 -6.53173E+04  4.83575E+02 -5.66903E+04 -4.36158E+04
 -1.27810E+04 -6.55935E+04  4.03801E+04 -4.48015E+04  5.93041E+04 -2.26627E+03  3.43394E+04  3.38360E+04
 -5.16047E+03  3.70982E+04 -3.14325E+04  1.70823E+04 -3.10198E+04 -4.99537E+03 -1.85692E+04 -1.26439E+04
 -8.67889E+03 -1.45439E+04 -1.41785E+03 -1.94880E+04  8.05310E+03 -2.33534E+04  1.54712E+04 -1.34912E+04
  1.18981E+04  6.76175E+03 -8.38410E+03  1.42339E+04 -2.28444E+04 -4.78972E+03 -8.13352E+03 -3.56801E+04
  2.47777E+04 -4.48427E+04  5.10488E+04 -2.05717E+04  4.70308E+04  1.95603E+04  1.59107E+04  4.52003E+04
 -1.55742E+04  3.51535E+04 -2.66135E+04  1.39293E+03 -9.40670E+03 -2.85867E+04  2.17806E+04 -3.45546E+04
  4.29698E+04 -1.03749E+04  3.73969E+04  2.31791E+04  1.78624E+04  4.85136E+04 -6.47218E+03  5.28546E+04
 -3.27952E+04  3.62829E+04 -4.53323E+04  1.02926E+04 -4.36986E+04 -1.67121E+04 -2.54100E+04 -4.07920E+04
  7.38037E+03 -3.80743E+04  3.22327E+04 -1.73149E+04  2.91471E+04  1.13967E+04  4.34210E+03  2.03566E+04
 -1.26055E+04  8.23224E+03 -1.15267E+04 -8.86450E+03  6.59740E+03 -1.20303E+04  1.82308E+04  5.62176E+03
  1.28866E+04  2.35736E+04 -3.78844E+03  2.67615E+04 -2.31330E+04  1.19363E+04 -2.90481E+04 -2.87959E+03
 -2.30529E+04 -1.86137E+04 -9.20016E+03 -2.30620E+04  4.34026E+03 -2.21779E+04  1.66744E+04 -2.09504E+04
  2.88032E+04 -1.25004E+04  3.54448E+04  3.54075E+03  2.42968E+04  2.20576E+04  3.97774E+03  3.89731E+04
 -1.73669E+04  3.08300E+04 -2.90598E+04  1.15388E+04 -2.18195E+04 -9.12924E+03 -5.09178E+03 -1.37330E+04
  1.90244E+02 -2.23084E+03 -6.60175E+03  8.32487E+03 -1.78503E+04  4.45005E+03 -1.89950E+04 -8.76021E+03
 -1.08569E+04 -2.08058E+04  5.50967E+03 -2.55404E+04  1.71964E+04 -1.79662E+04  2.08307E+04 -1.57695E+03
  1.33610E+04  1.49387E+04 -1.08414E+03  2.03582E+04 -1.47598E+04  1.26477E+04 -2.01795E+04 -3.22970E+03
 -1.48465E+04 -1.88476E+04 -3.27641E+03 -2.42384E+04  1.26560E+04 -2.06173E+04  2.12608E+04 -1.15265E+04
  1.88525E+04  8.10084E+02  1.43537E+04  2.98916E+03  8.70333E+03  5.20153E+02  1.07611E+04 -1.93193E+03
  1.92296E+04  2.49168E+03  2.08203E+04  1.80556E+04  1.47244E+04  3.35658E+04 -1.67678E+03  3.68396E+04
 -2.15207E+04  3.12436E+04 -3.59889E+04  1.73809E+04 -3.79715E+04 -1.93114E+03 -3.18852E+04 -2.14206E+04
 -1.20701E+04 -3.03647E+04  1.09932E+04 -2.86642E+04  2.40321E+04 -1.40509E+04  2.14219E+04  6.63686E+03
  9.20773E+03  1.55561E+04 -1.00810E+04  1.42806E+04 -1.83959E+04  2.89616E+03 -1.38578E+04 -1.23751E+04
 -2.81736E+02 -1.80496E+04  9.33796E+03 -1.22130E+04  1.02591E+04 -7.78534E+02  1.79617E+03  8.11465E+03
 -8.65765E+03  2.78742E+03 -6.49891E+03 -4.69926E+03 -1.55205E+03 -1.60525E+04  1.15613E+04 -1.51690E+04
  1.98183E+04 -8.82302E+03  1.92404E+04  2.98924E+03  1.75949E+04  1.49521E+04  7.35729E+03  2.47725E+04
 -4.12370E+03  2.48448E+04 -1.78727E+04  1.71121E+04 -1.96942E+04  2.43654E+03 -1.36159E+04 -4.70541E+03
 -7.27220E+03 -6.10526E+03 -2.12067E+03  7.15744E+02 -2.41129E+03  2.16850E+03 -6.93821E+03  5.27736E+03
 -1.31819E+04 -2.05808E+03 -1.21803E+04 -9.40587E+03 -3.42358E+03 -1.68204E+04  4.64288E+03 -1.42702E+04
  1.18222E+04 -5.27463E+03  7.64013E+03  1.88805E+03 -3.59868E+02  5.15261E+03 -6.13809E+03  1.00217E+02
 -6.07893E+03 -7.72372E+03 -5.81384E+02 -1.27876E+04  7.20809E+03 -1.30724E+04  1.61944E+04 -7.76179E+03
  2.01834E+04  2.17323E+03  1.53198E+04  1.05122E+04  2.99881E+03  1.52687E+04 -8.20584E+03  1.24474E+04
 -9.66394E+03  3.84515E+03 -5.49558E+03 -2.19357E+03  3.47033E+02 -2.16815E+03  7.11946E+03 -2.47477E+03
  5.39099E+03  6.29753E+03  6.66529E+01  9.34981E+03 -5.82640E+03  9.67127E+03 -1.22082E+04  3.11233E+03
 -8.27557E+03 -5.79905E+03 -1.41822E+02 -1.15609E+04  6.23345E+03 -4.79276E+03  8.02114E+03  2.62436E+03
  6.75842E+02  8.55226E+03 -6.24861E+03  9.45989E+03 -1.15188E+04  5.13545E+03 -9.98345E+03 -3.17416E+03
 -5.41522E+03 -1.25843E+04  3.06757E+03 -1.45363E+04  1.24510E+04 -8.26871E+03  1.38488E+04  4.16807E+03
  9.85102E+03  1.05112E+04 -1.51587E+03  1.27307E+04 -1.08685E+04  7.06629E+03 -8.37377E+03 -3.31610E+02
 -8.45631E+03 -9.10123E+03 -1.77566E+03 -1.01328E+04  4.31745E+03 -6.84784E+03  6.97428E+03 -4.76363E+03
  3.40939E+03  1.83868E+03 -1.07110E+03  1.04152E+03  3.16851E+02 -3.67103E+03  1.67459E+03 -5.93957E+03
  1.00203E+04 -2.74986E+03  1.32507E+04  7.22778E+02  1.18953E+04  8.50423E+03  7.93521E+03  1.57202E+04
 -4.33317E+03  1.81237E+04 -1.61057E+04  1.34267E+04 -1.88719E+04  2.75511E+03 -1.66085E+04 -7.70914E+03
 -8.18214E+03 -1.40269E+04 -1.72077E+03 -1.20860E+04  3.73292E+03 -5.26259E+03  4.01692E+03 -4.58138E+03
  3.20925E+03 -2.42099E+03  4.43543E+03 -3.68499E+03  5.05540E+03 -1.78414E+03  4.96299E+03 -3.44409E+02
  7.31228E+03  2.77062E+03  5.66152E+03  6.93549E+03 -1.65438E+03  8.21262E+03 -8.82290E+03  5.86652E+03
 -1.19954E+04 -1.53721E+03 -6.16565E+03 -7.46856E+03 -6.17977E+02 -1.34533E+04  7.87004E+03 -1.32664E+04
  1.33762E+04 -7.19231E+03  1.47142E+04  1.38838E+03  9.42579E+03  1.07678E+04  1.38438E+03  1.29357E+04
 -5.14623E+03  1.16234E+04 -7.93525E+03  5.38495E+03 -5.04908E+03 -2.08849E+03 -2.07184E+03 -2.43751E+03
 -8.21978E+02  4.23437E+02 -2.34469E+03  2.18864E+03 -4.64159E+03  9.76481E+02 -1.00102E+04 -7.76630E+02
 -6.02647E+03 -7.06899E+03 -5.56011E+02 -1.12775E+04  6.95283E+03 -1.09699E+04  9.33993E+03 -2.15925E+03
  9.60194E+03  5.92796E+03  5.00890E+03  9.20922E+03 -9.89338E+02  1.08861E+04 -8.39854E+03  7.91615E+03
 -1.19755E+04  1.24010E+03 -7.37788E+03 -6.40689E+03 -7.61056E+02 -8.73112E+03  4.00824E+03 -6.48911E+03
  8.48014E+03 -2.70823E+03  5.13809E+03  2.14809E+03  1.47263E+03  3.66917E+03  6.17612E+02  1.38562E+03
  2.23421E+03  8.34202E+02  2.23438E+03  1.82690E+03  1.79975E+03  3.73642E+03  4.44240E+03  5.15807E+03
 -2.16478E+03  8.42623E+03 -8.38963E+03  8.33422E+03 -1.03992E+04  1.04683E+03 -1.20980E+04 -4.05764E+03
 -5.02441E+03 -1.07774E+04  1.23848E+03 -1.22227E+04  6.46225E+03 -6.55697E+03  7.68236E+03 -1.85825E+03
  7.68861E+03  1.89294E+03  2.76366E+02  7.03043E+03 -3.53942E+03  3.57657E+03 -3.28117E+03 -7.31532E+00
 -1.70086E+03 -3.94930E+03  2.88830E+03 -5.34817E+03  4.35960E+03 -3.31135E+03  5.73645E+03 -1.65081E+02
  9.98925E+02  1.57123E+03  3.43399E+03  1.77751E+03 -1.47635E+03  1.55160E+03  1.92650E+03 -3.83946E+02
  1.92235E+03 -8.48309E+02  4.80453E+03  2.36790E+03  3.20262E+03  6.79759E+03 -1.37653E+03  7.07614E+03
 -6.84529E+03  5.42361E+03 -6.31970E+03  1.44337E+02 -8.32204E+03 -1.12134E+03 -2.10942E+03 -3.50476E+03
  7.09969E+01 -4.05290E+03  3.06610E+03 -2.87478E+03  2.77072E+03  1.84669E+03 -1.35360E+03  3.44757E+03
 -3.89264E+03  2.25531E+03 -6.02680E+03 -4.45062E+03 -2.62102E+03 -6.56156E+03  6.95867E+02 -6.07223E+03
  2.01971E+03 -2.84771E+03  3.42145E+03 -1.47540E+03  4.81196E+03  2.09194E+03  7.44876E+02  3.62477E+03
 -2.43202E+03  4.76689E+01 -3.54485E+03 -1.91550E+03  6.66289E+02 -4.06669E+03  4.85084E+03 -4.58385E+03
  6.93894E+03  5.01726E+02  6.63862E+03  5.42536E+03  2.12350E+03  6.54702E+03 -4.12577E+03  6.46232E+03
 -5.66738E+03  3.16412E+03 -6.14062E+03 -2.77150E+03 -1.69238E+03 -3.78968E+03 -2.19018E+02 -1.33495E+03
  3.59238E+03 -2.12137E+03  3.42961E+03  2.17060E+03  1.13264E+03  3.67597E+03 -7.05697E+02  3.93334E+03
 -1.92262E+03  2.76207E+03 -1.27850E+03  9.23304E+02 -1.52959E+03 -6.21053E+01 -1.13298E+03  1.26303E+03
 -1.43680E+03  2.93725E+03 -5.24455E+03  3.35091E+03 -6.63338E+03  1.07839E+03 -7.93082E+03 -4.87603E+03
 -3.54230E+03 -1.01870E+04  2.58486E+03 -1.02468E+04  6.52001E+03 -7.94185E+03  9.58294E+03 -3.22341E+03
  9.02270E+03  6.95534E+02  5.13632E+03  5.14347E+03 -7.15525E+02  6.50156E+03 -3.82773E+03  4.03196E+03
 -4.75620E+03  3.30928E+03 -1.57712E+03 -5.10638E+02 -1.82546E+03  6.90261E+02 -4.34480E+01  3.30011E+02
 -7.67247E+02  7.19121E+02 -1.91931E+03 -3.50545E+02 -1.15578E+02 -2.17256E+03  2.31378E+02 -3.97768E+03
  3.70979E+03 -1.68314E+03  3.46642E+03 -1.62426E+02  3.92108E+03  2.71833E+03 -1.91363E+02  7.48818E+03
 -3.78945E+03  7.12196E+03 -6.41068E+03  4.04443E+03 -6.74416E+03 -8.78156E+02 -6.95471E+03 -5.70266E+03
 -2.33635E+03 -7.06713E+03  1.93425E+03 -5.56411E+03  2.78833E+03 -4.14560E+03  4.75469E+03  1.53090E+03
  2.24251E+03  2.02796E+03  9.31034E+01  1.18639E+03 -1.06766E+03 -2.08822E+02 -1.42339E+01 -1.16740E+03
  7.20377E+02 -8.17927E+02  1.07095E+03  6.88847E+02  2.18496E+03  2.67546E+03  1.58876E+03  2.63601E+03
 -2.28465E+03  2.67220E+03 -4.90472E+03 -4.68225E+02 -3.83085E+03 -4.67530E+03 -7.09726E+02 -5.56960E+03
  4.65771E+03 -4.32797E+03  5.61023E+03 -8.57194E+02  5.27101E+03  2.12148E+03  4.00156E+03  5.23390E+03
  1.14481E+03  4.08445E+03 -1.82243E+03  2.87288E+03 -2.53377E+03  1.97906E+03 -2.19351E+03  1.01929E+03
 -3.89216E+02 -1.55294E+03 -1.00014E+03  1.95925E+02 -3.00504E+03 -1.37760E+02 -3.83282E+03 -1.81304E+03
 -3.98830E+03 -3.71591E+03 -1.72841E+03 -4.26159E+03  1.44180E+03 -4.52111E+03  4.32539E+03 -2.47596E+03
  4.66860E+03  6.32518E+02  1.59142E+03  1.25334E+03 -9.54789E+02  3.82698E+03 -1.57966E+03  2.09868E+03
