 $NMID ID='MM_0lb_SNR200_8hz_g45_10.RAW', FMTDAT='(8E13.5)'
 TRAMP=1., VOLUME=1. $END
  3.09269E+05  2.48975E+03  3.37800E+05  2.50841E+05  8.61274E+04  3.36674E+05 -1.33098E+05  2.52587E+05
 -1.90138E+05  8.34334E+04 -1.13502E+05 -3.20547E+04 -8.16976E+02 -5.18333E+04  5.20036E+04 -7.67539E+02
  3.56184E+04  5.29141E+04 -1.62812E+04  7.63130E+04 -6.17993E+04  6.40820E+04 -8.46263E+04  3.18317E+04
 -8.48122E+04 -1.15926E+04 -5.75464E+04 -5.14540E+04 -1.47708E+04 -7.07924E+04  2.81118E+04 -4.73379E+04
  4.15933E+04  3.77297E+03  1.72425E+04  4.86874E+04 -3.46243E+04  4.77314E+04 -6.70659E+04 -1.16429E+02
 -5.33442E+04 -5.84612E+04 -7.12763E+03 -8.03837E+04  3.47451E+04 -5.81382E+04  5.11855E+04 -1.80532E+04
  4.63764E+04  1.10929E+04  3.28031E+04  2.58257E+04  1.67563E+04  2.94105E+04 -4.93408E+03  2.87156E+04
 -2.00115E+04  1.25252E+04 -1.74653E+04 -4.54745E+03  6.97583E+03 -7.37459E+03  2.24336E+04  1.43327E+04
  9.61693E+03  3.73239E+04 -3.39316E+04  3.82848E+04 -6.62113E+04  1.55446E+03 -5.81201E+04 -4.42383E+04
 -1.18357E+04 -6.50775E+04  4.13886E+04 -4.70807E+04  6.21397E+04 -2.50084E+03  3.62107E+04  3.37229E+04
 -4.91882E+03  4.02733E+04 -3.22705E+04  1.98121E+04 -3.37566E+04 -4.40975E+03 -1.99065E+04 -1.36630E+04
 -8.20652E+03 -1.73613E+04 -1.48196E+02 -1.99568E+04  8.69708E+03 -2.26123E+04  1.57557E+04 -1.28057E+04
  1.08398E+04  5.20348E+03 -1.12696E+04  1.48134E+04 -2.25648E+04 -5.25954E+03 -7.65817E+03 -3.87778E+04
  2.45995E+04 -4.72960E+04  5.23759E+04 -2.00468E+04  4.77162E+04  2.09808E+04  1.63768E+04  4.73462E+04
 -1.72575E+04  3.53441E+04 -2.74446E+04  3.68243E+03 -1.26456E+04 -2.86569E+04  2.24385E+04 -3.79172E+04
  4.36271E+04 -9.56306E+03  4.06843E+04  2.64710E+04  2.35814E+04  5.11188E+04 -6.92602E+03  5.60497E+04
 -3.65416E+04  3.92379E+04 -4.92221E+04  1.06044E+04 -4.75378E+04 -1.96532E+04 -2.58094E+04 -4.28846E+04
  7.45110E+03 -4.18036E+04  3.37510E+04 -1.85313E+04  3.24768E+04  1.16246E+04  4.76964E+03  2.11971E+04
 -1.41098E+04  9.14722E+03 -1.33312E+04 -8.43617E+03  4.64750E+03 -1.28902E+04  2.02856E+04  3.55323E+03
  1.45350E+04  2.29603E+04 -5.45609E+03  2.73320E+04 -2.30017E+04  1.64008E+04 -3.30963E+04 -4.38980E+03
 -2.77480E+04 -1.82959E+04 -1.25190E+04 -2.51562E+04  3.33492E+03 -2.62270E+04  1.97404E+04 -2.33747E+04
  3.12598E+04 -1.29413E+04  3.79473E+04  6.45885E+03  2.74297E+04  2.39527E+04  3.34431E+03  4.29769E+04
 -1.97465E+04  3.49164E+04 -3.20705E+04  1.37774E+04 -2.47312E+04 -9.22916E+03 -6.31305E+03 -1.39698E+04
  5.51129E+02 -1.78101E+03 -7.69410E+03  7.58833E+03 -2.13393E+04  5.43803E+03 -1.96782E+04 -8.82983E+03
 -1.12400E+04 -2.32284E+04  7.02626E+03 -3.00193E+04  1.95321E+04 -1.87782E+04  2.41738E+04 -6.19777E+02
  1.43787E+04  1.82516E+04 -6.87503E+02  2.19501E+04 -1.73648E+04  1.44643E+04 -2.52325E+04 -3.87076E+03
 -1.76593E+04 -2.08396E+04 -9.91845E+02 -2.86717E+04  1.28658E+04 -2.51620E+04  2.54773E+04 -1.26016E+04
  2.18953E+04 -1.64250E+03  1.50415E+04  6.31100E+03  8.52046E+03  2.32535E+03  1.47519E+04 -1.57446E+03
  2.04896E+04  2.95100E+03  2.71409E+04  1.89862E+04  1.78728E+04  3.91631E+04 -3.53643E+03  4.69817E+04
 -2.56792E+04  3.95157E+04 -4.52376E+04  1.98903E+04 -4.63273E+04 -2.93514E+03 -3.43711E+04 -2.84886E+04
 -1.51398E+04 -3.72701E+04  1.31741E+04 -3.23550E+04  2.86188E+04 -1.61241E+04  2.33933E+04  7.94341E+03
  7.36652E+03  1.90557E+04 -1.26702E+04  1.61877E+04 -2.09389E+04  3.46495E+03 -1.41879E+04 -1.40307E+04
 -1.22338E+02 -2.09785E+04  1.20269E+04 -1.51916E+04  1.56732E+04 -1.88116E+03  2.04921E+03  1.00364E+04
 -9.93752E+03  4.46849E+03 -9.76779E+03 -9.06844E+03 -2.66353E+03 -1.71222E+04  1.18616E+04 -1.96569E+04
  2.36795E+04 -1.20436E+04  2.58950E+04  3.69156E+03  2.52757E+04  2.06995E+04  1.07697E+04  2.91447E+04
 -4.83625E+03  3.17273E+04 -2.20921E+04  1.95846E+04 -2.28912E+04  3.60023E+03 -1.47392E+04 -6.91860E+03
 -6.82953E+03 -8.80345E+03 -5.17725E+01  2.54689E+02 -3.71005E+03  4.35787E+03 -9.27409E+03  4.03524E+03
 -1.37050E+04 -1.32309E+03 -1.63062E+04 -1.31480E+04 -4.79920E+03 -1.90844E+04  6.58869E+03 -1.74203E+04
  1.28914E+04 -7.49085E+03  1.02387E+04  3.70001E+03 -9.75767E+02  6.03960E+03 -8.48827E+03 -6.66775E+02
 -8.69904E+03 -1.16356E+04  3.54918E+02 -1.60311E+04  1.17661E+04 -1.66206E+04  2.05304E+04 -8.63100E+03
  2.46709E+04  3.53535E+03  1.85996E+04  1.68672E+04  3.35765E+03  1.82212E+04 -1.18079E+04  1.54728E+04
 -1.32762E+04  4.85386E+03 -7.50370E+03 -3.73654E+03  3.75737E+03 -3.36386E+03  8.77202E+03 -1.21516E+03
  7.55344E+03  6.62698E+03  1.52796E+03  1.44887E+04 -9.03592E+03  1.27071E+04 -1.79609E+04  2.45335E+03
 -1.00716E+04 -9.00018E+03 -2.98846E+02 -1.54304E+04  1.01736E+04 -6.37690E+03  1.05374E+04  3.13482E+03
  1.80369E+02  8.40010E+03 -7.97409E+03  1.25941E+04 -1.51374E+04  5.38701E+03 -1.48850E+04 -6.48252E+03
 -1.00562E+04 -1.51638E+04  3.29574E+03 -2.10302E+04  1.71854E+04 -1.26598E+04  1.74115E+04  3.46007E+03
  9.88501E+03  1.45283E+04 -1.58567E+03  1.68715E+04 -1.24760E+04  9.74173E+03 -1.32798E+04 -1.97837E+03
 -1.09387E+04 -1.19665E+04 -2.99291E+03 -1.34360E+04  7.22779E+03 -8.91850E+03  9.29383E+03 -4.31421E+03
  5.63693E+03  1.47168E+03 -2.37332E+03  1.75889E+03  2.48310E+02 -4.21888E+03  3.13011E+03 -8.39846E+03
  1.19141E+04 -5.96696E+03  1.70989E+04  1.52615E+03  1.68812E+04  1.15029E+04  1.06181E+04  2.28471E+04
 -4.86971E+03  2.67260E+04 -2.16114E+04  1.64875E+04 -2.66202E+04  4.45858E+03 -2.27966E+04 -1.07951E+04
 -1.11448E+04 -1.59986E+04  1.61569E+02 -1.62288E+04  4.99644E+03 -9.14709E+03  4.06351E+03 -5.85448E+03
  4.72161E+03 -2.98342E+03  4.39168E+03 -3.55555E+03  7.11612E+03 -4.56138E+03  7.50156E+03 -1.27921E+03
  1.11374E+04  1.85468E+03  6.51301E+03  1.08472E+04 -3.00689E+03  1.23532E+04 -1.09877E+04  1.09595E+04
 -1.66285E+04 -2.08893E+03 -1.09196E+04 -1.13318E+04  2.04788E+02 -1.78391E+04  9.69823E+03 -1.89122E+04
  1.67653E+04 -1.06546E+04  2.21542E+04  2.95517E+03  1.36567E+04  1.46258E+04  1.65788E+03  2.03840E+04
 -9.78916E+03  1.42002E+04 -9.29393E+03  5.40511E+03 -6.06309E+03 -3.81190E+03 -1.82685E+03 -1.37810E+03
 -8.84240E+02 -1.98263E+02 -3.37670E+03  2.93534E+03 -6.48654E+03  2.17628E+03 -1.02267E+04  6.16467E+01
 -9.83611E+03 -1.10657E+04 -3.85736E+02 -1.58199E+04  9.34600E+03 -1.52316E+04  1.42704E+04 -2.99805E+03
  1.61765E+04  7.36195E+03  8.21505E+03  1.41651E+04 -4.14626E+03  1.66661E+04 -1.14361E+04  8.58673E+03
 -1.43363E+04  1.15164E+02 -1.10693E+04 -9.68958E+03 -1.64494E+03 -1.28186E+04  7.19293E+03 -8.80100E+03
  9.94738E+03 -3.73862E+03  6.61541E+03  4.25049E+03  1.51084E+03  5.01796E+03  2.40164E+03  1.96260E+03
  3.59290E+03  6.81522E+02  3.17494E+03  2.49430E+03  5.16323E+03  4.52149E+03  4.76144E+03  9.16198E+03
 -3.52898E+03  1.29271E+04 -1.05377E+04  1.30650E+04 -1.79220E+04  3.86604E+03 -1.77322E+04 -6.63057E+03
 -9.27398E+03 -1.61830E+04  5.44101E+02 -1.70545E+04  1.15277E+04 -1.13690E+04  1.39003E+04 -3.75636E+03
  1.12520E+04  8.42912E+03  3.47326E+03  1.03548E+04 -4.65435E+03  6.82010E+03 -7.46786E+03 -1.09432E+03
 -4.52854E+03 -8.71916E+03  4.71878E+03 -6.39554E+03  7.06869E+03 -3.25149E+03  6.70690E+03  8.44116E+02
  4.31446E+03  4.59130E+03  2.68184E+03  1.56824E+03 -3.78932E+02 -4.59550E+01  1.30482E+03 -5.80652E+02
  1.22810E+03 -6.89188E+02  8.61217E+03  2.89377E+03  3.90528E+03  9.04344E+03  1.19857E+03  1.17740E+04
 -6.87433E+03  7.02899E+03 -1.11303E+04  9.85616E+02 -9.81526E+03 -3.39694E+03 -3.06688E+03 -7.77020E+03
 -5.22144E+02 -5.78359E+03  4.45957E+03 -2.24558E+03  2.56163E+03  2.09273E+03 -2.53108E+03  6.17878E+03
 -7.26466E+03  3.63525E+03 -7.20789E+03 -3.48907E+03 -6.43021E+03 -9.97968E+03  2.29357E+03 -1.08958E+04
  5.78135E+03 -5.13988E+03  7.52342E+03  1.32681E+03  5.80264E+03  2.48482E+03  3.91736E+02  5.14436E+03
 -2.62408E+03  9.61738E+02 -5.05193E+03 -4.04292E+03  2.09190E+03 -6.45333E+03  8.71478E+03 -5.21745E+03
  1.12742E+04 -3.47775E+02  1.09220E+04  7.50213E+03  2.96547E+03  1.13644E+04 -3.14030E+03  1.02861E+04
 -8.99426E+03  3.84756E+03 -1.13994E+04 -2.83926E+03 -4.70190E+03 -6.14359E+03  8.00259E+02 -7.88052E+03
  6.84780E+03 -2.22196E+03  7.23789E+03  3.60454E+03  1.16021E+03  5.25084E+03 -5.40451E+02  5.69564E+03
 -3.48040E+03  2.83165E+03 -2.01864E+03  1.93922E+02 -2.10024E+03  1.42502E+03 -1.98538E+00  1.68045E+03
 -2.61413E+03  3.89786E+03 -7.58002E+03  3.86502E+03 -9.69827E+03  2.93842E+02 -1.39585E+04 -7.05968E+03
 -6.48971E+03 -1.48014E+04  2.99401E+03 -1.75803E+04  1.08577E+04 -1.31496E+04  1.56869E+04 -5.06303E+03
  1.47543E+04  2.36604E+03  1.02769E+04  1.03868E+04 -8.46512E+01  1.21321E+04 -5.45268E+03  9.49407E+03
 -6.38101E+03  2.34490E+03 -3.22798E+03 -9.26677E+02 -8.79923E+02 -2.43252E+03 -7.09184E+02 -1.11164E+02
 -1.88688E+03  1.09781E+03 -3.63270E+03  4.56160E+02 -4.44839E+02 -2.52174E+03  6.41218E+02 -5.34442E+03
  6.03034E+03 -2.30076E+03  4.66896E+03 -1.07652E+02  8.72782E+03  5.43225E+03  1.93336E+03  1.29568E+04
 -6.31233E+03  1.28724E+04 -1.40043E+04  7.89484E+03 -1.56498E+04 -4.76575E+02 -1.19329E+04 -9.66538E+03
 -5.32943E+03 -1.15301E+04  2.30100E+03 -1.16573E+04  7.46279E+03 -6.00247E+03  7.46805E+03  4.95494E+02
  4.60080E+03  4.06799E+03  2.97265E+02  3.58106E+03 -3.81240E+03 -2.93941E+02  1.04534E+03 -3.16634E+03
  4.67073E+03 -1.60256E+03  4.90663E+03  2.66188E+03  4.03096E+03  6.19591E+03 -3.52910E+02  7.45363E+03
 -5.78074E+03  4.62268E+03 -8.59672E+03  1.28805E+03 -6.42341E+03 -5.84028E+03 -5.21406E+02 -1.00262E+04
  3.62561E+03 -9.32628E+03  8.20740E+03 -2.33976E+03  9.20430E+03  2.66265E+03  4.73853E+03  7.43004E+03
  2.03101E+03  7.67409E+03 -3.60918E+03  7.59058E+03 -3.92285E+03  3.80421E+03 -5.07165E+03  1.01700E+03
 -3.65613E+03 -3.40186E+02 -4.19231E+03  2.33891E+03 -3.26293E+03  1.24825E+03 -6.79690E+03 -1.45061E+03
 -7.28013E+03 -3.87804E+03 -4.96301E+02 -8.34235E+03  4.68969E+03 -8.15400E+03  7.61466E+03 -2.57525E+03
  6.85309E+03  1.48612E+03  5.03995E+03  5.60608E+03  2.57893E+02  9.25265E+03 -6.91768E+03  5.34468E+03
