 $NMID ID='MM_0lb_SNR200_8hz_g55_50.RAW', FMTDAT='(8E13.5)'
 TRAMP=1., VOLUME=1. $END
  3.10005E+05  7.08081E+02  3.38219E+05  2.50450E+05  8.50312E+04  3.38564E+05 -1.32619E+05  2.52003E+05
 -1.89811E+05  8.50218E+04 -1.11790E+05 -3.30054E+04  1.26525E+03 -5.04222E+04  5.08917E+04 -6.25394E+02
  3.51789E+04  5.47731E+04 -1.70054E+04  7.43024E+04 -6.11377E+04  6.36475E+04 -8.58364E+04  3.32468E+04
 -8.31183E+04 -1.24533E+04 -5.83683E+04 -5.05156E+04 -1.51676E+04 -7.10577E+04  2.79164E+04 -4.70021E+04
  4.11410E+04  2.11131E+03  1.75427E+04  4.87538E+04 -3.43632E+04  4.81739E+04 -6.77328E+04  2.64046E+02
 -5.67399E+04 -5.79450E+04 -8.22691E+03 -7.85124E+04  3.49936E+04 -5.82927E+04  5.00236E+04 -1.75585E+04
  4.64790E+04  1.11341E+04  3.36299E+04  2.51189E+04  1.75085E+04  3.28213E+04 -6.49918E+03  2.71977E+04
 -2.36717E+04  1.29978E+04 -1.83177E+04 -5.75640E+03  7.51462E+03 -7.54844E+03  2.19448E+04  1.40614E+04
  6.49908E+03  4.04865E+04 -3.49333E+04  3.78461E+04 -6.77190E+04  2.38747E+03 -5.94467E+04 -4.46142E+04
 -1.26698E+04 -6.62375E+04  4.41200E+04 -4.56815E+04  6.10621E+04 -1.89788E+03  3.73486E+04  3.46104E+04
 -4.68973E+03  4.04893E+04 -3.18466E+04  2.15207E+04 -3.50380E+04 -3.34527E+03 -2.19144E+04 -1.24304E+04
 -1.06579E+04 -1.39471E+04 -8.11854E+02 -1.94710E+04  1.01306E+04 -2.20640E+04  1.61040E+04 -1.13688E+04
  9.76394E+03  7.40167E+03 -9.83521E+03  1.10921E+04 -2.37644E+04 -6.52929E+03 -1.05356E+04 -3.92556E+04
  2.57594E+04 -4.65855E+04  5.39364E+04 -2.01666E+04  4.87559E+04  2.18418E+04  1.86873E+04  4.80620E+04
 -1.76265E+04  3.63239E+04 -2.87009E+04  2.97845E+03 -1.24863E+04 -2.91946E+04  2.31347E+04 -3.99227E+04
  4.65649E+04 -1.03879E+04  4.01838E+04  2.59788E+04  2.22127E+04  5.30697E+04 -8.67721E+03  5.73424E+04
 -3.60088E+04  4.01875E+04 -4.67137E+04  1.18893E+04 -4.88741E+04 -1.95945E+04 -2.81391E+04 -4.26887E+04
  7.74484E+03 -4.40840E+04  3.61136E+04 -1.68232E+04  3.36505E+04  1.07112E+04  5.15614E+03  2.05794E+04
 -1.26164E+04  1.04640E+04 -1.18526E+04 -9.56716E+03  5.18987E+03 -1.24335E+04  1.91623E+04  5.53119E+03
  1.59016E+04  2.23210E+04 -5.76299E+03  2.75571E+04 -2.49755E+04  1.52161E+04 -3.22347E+04 -1.89792E+03
 -2.48532E+04 -1.95112E+04 -1.06306E+04 -2.62639E+04  5.10031E+03 -2.86043E+04  2.09344E+04 -2.37798E+04
  3.48729E+04 -1.30721E+04  4.03700E+04  6.22536E+03  2.87636E+04  2.58506E+04  5.09100E+03  4.29681E+04
 -2.07015E+04  3.44650E+04 -3.11292E+04  1.32463E+04 -2.05726E+04 -1.13533E+04 -5.46206E+03 -1.07238E+04
  1.59354E+02 -8.65229E+02 -8.42763E+03  8.48339E+03 -2.13646E+04  3.72938E+03 -2.26742E+04 -1.02225E+04
 -1.25885E+04 -2.33337E+04  5.10450E+03 -3.00648E+04  1.87601E+04 -2.00351E+04  2.46284E+04 -1.28499E+03
  1.67759E+04  1.85828E+04 -6.17978E+02  2.39257E+04 -1.75173E+04  1.44591E+04 -2.58494E+04 -5.24114E+03
 -1.69805E+04 -2.13884E+04 -1.88583E+03 -2.98093E+04  1.42300E+04 -2.55679E+04  2.53162E+04 -1.39116E+04
  2.31900E+04  2.15668E+02  1.51228E+04  3.55106E+03  9.31522E+03  1.46909E+03  1.16284E+04 -1.69089E+03
  2.34154E+04  2.50405E+03  2.70820E+04  1.91148E+04  2.04186E+04  4.14725E+04 -3.33149E+03  4.66764E+04
 -2.98088E+04  4.02467E+04 -4.39703E+04  2.12357E+04 -4.99995E+04 -3.03270E+03 -3.87585E+04 -2.91280E+04
 -1.50079E+04 -3.94431E+04  1.47800E+04 -3.36700E+04  3.08700E+04 -1.49106E+04  2.50933E+04  8.94579E+03
  7.71289E+03  2.13033E+04 -1.18796E+04  1.62368E+04 -2.28077E+04  2.13088E+03 -1.47326E+04 -1.54705E+04
 -1.36685E+03 -2.15741E+04  1.32415E+04 -1.48118E+04  1.28429E+04 -2.38497E+03  4.50473E+03  1.04778E+04
 -1.08244E+04  5.34325E+03 -9.86318E+03 -6.58637E+03 -1.98123E+03 -2.03041E+04  1.26661E+04 -2.14342E+04
  2.48608E+04 -1.24470E+04  2.78576E+04  3.30756E+03  2.56898E+04  2.03692E+04  1.29860E+04  3.12257E+04
 -7.07585E+03  3.30023E+04 -2.35312E+04  2.13780E+04 -2.40228E+04  5.15433E+03 -1.60530E+04 -5.62259E+03
 -6.04518E+03 -8.65577E+03  4.55018E+02 -3.82110E+02 -2.18382E+03  1.50937E+03 -9.09842E+03  7.46413E+03
 -1.42837E+04 -9.92507E+02 -1.73612E+04 -1.22838E+04 -5.77063E+03 -2.04277E+04  6.05175E+03 -1.71353E+04
  1.42240E+04 -8.21532E+03  1.07632E+04  4.94954E+03 -1.33780E+03  6.21063E+03 -1.02121E+04 -2.65378E+02
 -8.35613E+03 -8.85215E+03 -1.42636E+03 -1.72038E+04  1.11740E+04 -2.03150E+04  2.23069E+04 -7.93322E+03
  2.62094E+04  3.05619E+03  1.82771E+04  1.53600E+04  3.82125E+03  2.20404E+04 -9.53698E+03  1.56340E+04
 -1.43028E+04  4.10300E+03 -7.28835E+03 -3.35733E+03  6.59379E+02 -4.40436E+03  8.43376E+03 -2.34660E+03
  7.52387E+03  7.43257E+03  1.26690E+03  1.27072E+04 -1.12230E+04  1.36704E+04 -1.76127E+04  3.31725E+03
 -1.04707E+04 -6.51842E+03 -9.70715E+02 -1.52539E+04  8.72012E+03 -7.11869E+03  1.01819E+04  2.62013E+03
  5.18566E+03  1.09083E+04 -8.64660E+03  1.19242E+04 -1.43094E+04  6.47013E+03 -1.59351E+04 -5.87106E+03
 -9.21582E+03 -1.72414E+04  5.99735E+03 -2.09934E+04  1.73764E+04 -1.20376E+04  1.91401E+04  2.89092E+03
  1.37022E+04  1.43831E+04 -1.22481E+03  1.73448E+04 -1.30922E+04  8.57073E+03 -1.55346E+04  2.54515E+01
 -1.05792E+04 -1.10825E+04 -6.24710E+01 -1.32887E+04  8.33389E+03 -1.05087E+04  6.78342E+03 -4.58827E+03
  7.73629E+03  1.45454E+03 -1.94346E+03  3.43214E+03 -2.94859E+03 -3.00791E+03  1.66406E+03 -8.52170E+03
  1.38770E+04 -4.99767E+03  1.75522E+04  2.36351E+03  1.58880E+04  1.14925E+04  1.16205E+04  2.38672E+04
 -5.16900E+03  2.72745E+04 -2.26603E+04  2.08155E+04 -2.96410E+04  3.91488E+03 -2.27565E+04 -1.15881E+04
 -1.03999E+04 -1.85077E+04  5.94653E+02 -1.66730E+04  5.84792E+03 -9.27617E+03  5.81033E+03 -5.49193E+03
  5.20913E+03 -3.75043E+03  4.98456E+03 -4.67509E+03  6.58782E+03 -4.05071E+03  7.46690E+03 -2.53909E+03
  1.14374E+04  2.06613E+03  7.11554E+03  9.57867E+03 -3.00742E+03  1.24453E+04 -1.36546E+04  1.13335E+04
 -1.76038E+04 -1.15136E+03 -1.25702E+04 -1.22128E+04 -6.34601E+02 -1.95715E+04  1.10450E+04 -1.97038E+04
  1.80386E+04 -9.08369E+03  2.08342E+04  2.79247E+03  1.49899E+04  1.63570E+04  6.49494E+02  2.19812E+04
 -8.26189E+03  1.56493E+04 -1.20976E+04  6.06251E+03 -9.61610E+03 -9.39975E+02 -4.76596E+03 -2.03997E+03
 -2.69832E+03  1.07254E+02 -4.38766E+03  1.81064E+03 -6.71687E+03  3.39155E+03 -1.24456E+04 -1.48672E+03
 -8.45150E+03 -1.18300E+04 -5.33021E+02 -1.72136E+04  1.03061E+04 -1.69334E+04  1.71354E+04 -5.50300E+03
  1.88439E+04  7.00781E+03  7.15856E+03  1.67077E+04 -2.71737E+03  1.88403E+04 -1.28905E+04  1.18794E+04
 -1.62005E+04 -1.10349E+03 -1.36016E+04 -9.50045E+03 -2.09452E+03 -1.34426E+04  8.40622E+03 -1.06596E+04
  1.00186E+04 -1.49448E+03  6.17489E+03  2.47736E+03  2.24174E+03  6.69805E+03  1.16557E+03  2.29617E+03
  1.68207E+03 -1.15406E+02  4.87254E+03  1.57903E+03  6.52756E+03  5.25927E+03  4.09787E+03  1.12214E+04
 -3.59098E+03  1.37700E+04 -1.23708E+04  1.46332E+04 -1.83836E+04  4.46461E+03 -1.84252E+04 -7.80621E+03
 -7.84098E+03 -1.79901E+04  2.69835E+03 -1.99252E+04  9.09053E+03 -1.17909E+04  1.51853E+04 -3.01752E+03
  1.10281E+04  5.86407E+03  2.87130E+03  1.17911E+04 -4.00428E+03  4.85034E+03 -7.24306E+03 -1.96724E+03
 -2.88563E+03 -7.54204E+03  4.00140E+03 -7.12959E+03  6.40978E+03 -1.46825E+03  8.14630E+03  1.11927E+03
  3.45081E+03  4.64223E+03  1.65303E+03  3.10289E+03 -2.77696E+03  1.93811E+03  4.70773E+02  1.02272E+03
  3.81969E+03 -1.25139E+03  6.56572E+03  1.84561E+03  3.96679E+03  1.10111E+04 -1.72272E+03  1.33618E+04
 -8.35433E+03  1.04665E+04 -1.01695E+04  1.54270E+03 -1.09145E+04 -2.15698E+03 -4.25323E+03 -6.09236E+03
  7.54180E+02 -6.61906E+03  4.47719E+03 -2.64299E+03  1.98389E+03  3.16963E+03 -5.89564E+02  4.59072E+03
 -6.59040E+03  3.54211E+03 -1.06927E+04 -5.07629E+03 -4.72451E+03 -1.09850E+04  2.16890E+03 -9.85268E+03
  5.67026E+03 -4.53988E+03  7.46265E+03  5.53225E+02  6.83525E+03  3.21187E+03  9.71370E+02  4.58360E+03
 -3.35830E+03  2.00317E+03 -4.26503E+03 -2.94826E+03  3.05320E+03 -6.89923E+03  1.04037E+04 -6.69875E+03
  1.34157E+04 -5.23817E+02  1.11583E+04  6.58373E+03  3.57318E+03  1.20351E+04 -3.58479E+03  1.00216E+04
 -9.47437E+03  5.28565E+03 -1.06418E+04  2.81399E+02 -5.86468E+03 -6.86750E+03  1.53162E+02 -6.67889E+03
  8.55748E+03 -2.07661E+03  7.86230E+03  3.83571E+03  9.09191E+02  7.38587E+03 -1.00606E+03  6.97256E+03
 -4.95790E+03  2.53510E+03 -2.94982E+03 -6.34251E+02 -2.08787E+03  1.02675E+03 -1.86916E+03  2.73930E+03
 -2.84099E+03  2.97117E+03 -7.76007E+03  4.57088E+03 -1.21649E+04  3.41520E+01 -1.48707E+04 -9.15073E+03
 -7.52524E+03 -1.73684E+04  3.16285E+03 -2.05367E+04  1.08577E+04 -1.37165E+04  1.98701E+04 -4.38616E+03
  1.80736E+04  3.99106E+03  1.07802E+04  1.19061E+04  9.58984E+02  1.24805E+04 -4.00326E+03  1.15843E+04
 -6.16973E+03  3.76500E+03 -3.65607E+03 -1.44441E+03 -1.96002E+03 -9.05280E+02 -2.85539E+03 -1.13591E+03
 -3.49018E+03  1.42816E+02 -2.77151E+03 -1.67902E+03  5.38430E+01 -4.12439E+03  1.26875E+03 -4.08745E+03
  7.12836E+03 -3.01513E+03  1.06851E+04  7.46680E+02  9.12882E+03  8.05110E+03  1.67495E+03  1.42306E+04
 -7.76931E+03  1.51136E+04 -1.32840E+04  8.46062E+03 -1.67726E+04 -6.14535E+02 -1.21944E+04 -9.71496E+03
 -4.51643E+03 -1.36077E+04  4.21312E+03 -1.20608E+04  1.01716E+04 -9.70698E+03  1.05540E+04  1.29340E+03
  4.14308E+03  4.86146E+03 -1.75443E+03  3.64117E+03 -1.92387E+03 -1.24858E+03  4.68948E+02 -2.54716E+03
  4.15742E+03 -2.91901E+03  4.07984E+03  1.33668E+02  1.73468E+03  6.37210E+03  5.85728E+02  7.65011E+03
 -6.03511E+03  6.07035E+03 -8.35883E+03  2.58166E+02 -8.49144E+03 -5.67055E+03 -1.78281E+03 -9.80318E+03
  5.25711E+03 -1.05304E+04  1.04635E+04 -2.70101E+03  1.00264E+04  2.70645E+03  3.95525E+03  6.35315E+03
  7.27158E+02  9.53826E+03 -3.95867E+03  6.57327E+03 -6.38942E+03  4.24076E+03 -3.62539E+03  1.71013E+03
 -1.36675E+03  1.96128E+03 -2.38128E+03  8.56337E+01 -4.03540E+03  2.42077E+03 -7.16287E+03  6.08367E+02
 -7.00797E+03 -5.47059E+03 -1.37977E+03 -9.28162E+03  2.99833E+03 -8.21171E+03  9.41681E+03 -5.67968E+03
  9.53444E+03  1.79122E+03  4.36242E+03  6.37421E+03 -7.03622E+02  7.38918E+03 -7.65218E+03  4.48264E+03
