 $NMID ID='MM_0lb_SNR200_14hz_g45_28.RAW', FMTDAT='(8E13.5)'
 TRAMP=1., VOLUME=1. $END
  3.10179E+05  5.51031E+02  3.36944E+05  2.50226E+05  8.31095E+04  3.36702E+05 -1.33023E+05  2.50135E+05
 -1.88947E+05  8.33198E+04 -1.11368E+05 -3.16684E+04  7.90670E+02 -5.06018E+04  5.39071E+04  1.93287E+01
  3.53019E+04  5.15338E+04 -1.65220E+04  7.49442E+04 -6.08510E+04  6.30807E+04 -8.41566E+04  3.25532E+04
 -8.11586E+04 -1.19439E+04 -5.73516E+04 -4.99691E+04 -1.47074E+04 -6.97060E+04  2.71240E+04 -4.47388E+04
  3.96366E+04  4.04522E+03  1.58752E+04  4.79098E+04 -3.42787E+04  4.59422E+04 -6.60556E+04 -2.96629E+02
 -5.32281E+04 -5.63119E+04 -6.85807E+03 -7.66816E+04  3.42417E+04 -5.53913E+04  4.87690E+04 -1.71043E+04
  4.32753E+04  1.14082E+04  3.24106E+04  2.61706E+04  1.63587E+04  2.92166E+04 -6.39479E+03  2.77349E+04
 -2.12342E+04  1.09153E+04 -1.97484E+04 -5.99176E+03  5.71391E+03 -8.26243E+03  2.13293E+04  1.11425E+04
  7.60362E+03  3.48158E+04 -3.13608E+04  3.48597E+04 -6.30581E+04  1.19153E+03 -5.70880E+04 -4.29445E+04
 -1.23606E+04 -6.23918E+04  4.03195E+04 -4.58516E+04  5.74967E+04 -2.51834E+03  3.24421E+04  3.17995E+04
 -6.07499E+03  3.57174E+04 -3.01233E+04  1.51955E+04 -2.98023E+04 -4.15723E+03 -1.65636E+04 -1.02807E+04
 -8.87462E+03 -1.37057E+04 -1.68252E+03 -1.73287E+04  6.43770E+03 -2.45413E+04  1.59038E+04 -1.23299E+04
  1.18731E+04  5.25304E+03 -7.40640E+03  1.30532E+04 -2.06591E+04 -4.86056E+03 -8.97346E+03 -3.36146E+04
  2.22751E+04 -4.28226E+04  4.73714E+04 -2.01967E+04  4.57725E+04  1.83996E+04  1.52875E+04  4.39124E+04
 -1.44448E+04  3.43458E+04 -2.51866E+04  2.21262E+03 -9.13987E+03 -2.80482E+04  2.06336E+04 -3.31550E+04
  4.14583E+04 -1.08247E+04  3.41579E+04  2.42952E+04  1.70178E+04  4.71346E+04 -7.69157E+03  4.99413E+04
 -3.19227E+04  3.29483E+04 -4.10623E+04  9.48278E+03 -4.24583E+04 -1.65904E+04 -2.38591E+04 -3.77394E+04
  6.76620E+03 -3.82200E+04  3.11078E+04 -1.44399E+04  2.89735E+04  1.17041E+04  4.70814E+03  1.98615E+04
 -1.37940E+04  7.44092E+03 -8.77757E+03 -7.05462E+03  6.43707E+03 -1.00403E+04  1.82737E+04  5.98080E+03
  1.28240E+04  2.24418E+04 -6.36264E+03  2.46753E+04 -2.21998E+04  1.13760E+04 -2.83494E+04 -5.55622E+03
 -1.94965E+04 -1.73770E+04 -6.69123E+03 -2.04985E+04  3.37185E+03 -1.89910E+04  1.67986E+04 -1.94130E+04
  2.68209E+04 -1.24796E+04  3.19927E+04  1.18445E+03  2.41332E+04  1.99028E+04  5.34387E+03  3.61342E+04
 -1.74854E+04  3.04214E+04 -2.80845E+04  1.04357E+04 -2.01388E+04 -1.06276E+04 -4.70565E+03 -1.49313E+04
  1.28795E+03 -3.79633E+03 -4.08054E+03  5.88293E+03 -1.57146E+04  5.07102E+03 -1.67638E+04 -7.53365E+03
 -9.37862E+03 -1.94625E+04  5.62639E+03 -2.28919E+04  1.44790E+04 -1.59599E+04  1.70315E+04 -2.28374E+03
  1.16941E+04  1.26668E+04  1.09301E+02  1.90349E+04 -1.20339E+04  1.12393E+04 -1.74571E+04 -3.80982E+03
 -1.40108E+04 -1.55500E+04 -1.67957E+03 -2.21551E+04  9.50476E+03 -1.92192E+04  1.83494E+04 -8.09300E+03
  1.73492E+04  5.76964E+02  1.34799E+04  4.45605E+03  6.91931E+03  1.06481E+03  8.71744E+03 -2.77968E+03
  1.75220E+04  2.70225E+03  1.96104E+04  1.55021E+04  1.05562E+04  2.96729E+04 -4.02501E+03  3.41788E+04
 -1.95651E+04  2.67306E+04 -3.12946E+04  1.27700E+04 -3.22034E+04 -3.35758E+03 -2.80932E+04 -1.95074E+04
 -1.11980E+04 -2.67653E+04  9.20876E+03 -2.51888E+04  2.19730E+04 -1.24575E+04  1.85197E+04  5.59997E+03
  6.59163E+03  1.36474E+04 -9.45835E+03  1.26262E+04 -1.59618E+04  2.52778E+03 -1.11630E+04 -1.00465E+04
 -2.11598E+01 -1.53627E+04  7.97253E+03 -1.16469E+04  1.00298E+04 -9.36860E+02  1.47857E+03  6.77182E+03
 -6.33847E+03  1.52065E+03 -6.89777E+03 -5.82017E+03 -9.02156E+02 -1.28793E+04  1.00431E+04 -1.35450E+04
  1.59502E+04 -7.47298E+03  1.69268E+04  2.77473E+03  1.64069E+04  1.20268E+04  8.11292E+03  2.03030E+04
 -3.47725E+03  2.17408E+04 -1.40069E+04  1.38806E+04 -1.56554E+04  3.63903E+03 -1.21019E+04 -3.73284E+03
 -6.42000E+03 -4.41383E+03 -1.18543E+03  1.36945E+03 -2.17236E+03  1.94807E+03 -4.45751E+03  4.11257E+03
 -1.02157E+04  5.16814E+01 -9.42945E+03 -9.63480E+03 -3.18103E+03 -1.46587E+04  4.77747E+03 -1.18440E+04
  9.88762E+03 -4.54972E+03  6.46072E+03  2.63610E+03  1.19466E+02  4.36809E+03 -4.83420E+03  5.61595E+02
 -5.60349E+03 -6.27482E+03 -1.26028E+03 -9.68071E+03  7.67834E+03 -1.08593E+04  1.34803E+04 -4.83829E+03
  1.47456E+04  1.08284E+02  1.07540E+04  8.48314E+03  2.10886E+03  1.30261E+04 -7.98877E+03  9.85466E+03
 -8.57057E+03  2.67733E+03 -4.44385E+03 -1.53553E+03  2.61954E+03 -1.50200E+03  6.06997E+03 -8.10740E+02
  6.98788E+03  4.70480E+03  1.75396E+03  9.46770E+03 -6.84723E+03  7.72225E+03 -1.05030E+04  7.67860E+02
 -6.69309E+03 -5.36448E+03 -7.32055E+02 -9.02306E+03  5.27204E+03 -6.12681E+03  5.70263E+03  2.19577E+03
  2.43165E+03  5.47959E+03 -5.85266E+03  7.58016E+03 -7.43112E+03  3.47065E+03 -7.85098E+03 -1.92530E+03
 -5.30262E+03 -1.06530E+04  1.63198E+03 -1.14234E+04  9.01937E+03 -6.44298E+03  1.01308E+04  8.27145E+02
  6.36266E+03  8.01572E+03 -1.17581E+03  1.00992E+04 -7.31589E+03  6.25210E+03 -8.22346E+03 -8.65605E+02
 -5.76248E+03 -6.09870E+03 -1.38702E+03 -7.67013E+03  3.73033E+03 -6.25254E+03  5.23851E+03 -3.48604E+03
  4.00545E+03  4.67682E+02  5.46135E+02  1.89463E+03  2.93882E+02 -9.46205E+02  3.58871E+02 -4.60739E+03
  7.30709E+03 -2.74133E+03  9.80301E+03  6.19202E+02  8.91713E+03  5.03721E+03  6.77892E+03  1.18800E+04
 -2.83874E+03  1.36858E+04 -1.32969E+04  9.11274E+03 -1.45469E+04  1.80493E+03 -1.21200E+04 -3.76740E+03
 -6.60100E+03 -1.03768E+04 -4.33730E+02 -8.63097E+03  2.77057E+03 -3.97269E+03  3.92133E+03 -3.16580E+03
  1.62799E+03 -1.85346E+03  2.39225E+03 -1.61118E+03  3.47806E+03 -2.66293E+03  5.14344E+03 -4.43581E+01
  5.89392E+03  1.99637E+03  2.98975E+03  5.84440E+03 -9.68784E+02  5.10501E+03 -6.20829E+03  4.81780E+03
 -9.10805E+03 -1.69598E+03 -5.18924E+03 -5.37312E+03 -7.01142E+01 -9.67564E+03  4.50431E+03 -8.99258E+03
  8.93717E+03 -4.61923E+03  1.09135E+04  1.92260E+03  8.12304E+03  6.54378E+03  1.94156E+03  9.97581E+03
 -3.64943E+03  9.15366E+03 -6.42729E+03  2.41487E+03 -3.09254E+03 -1.30239E+03 -1.33735E+03 -2.20865E+02
 -1.00837E+03  1.34579E+02 -4.97610E+02  1.56866E+03 -4.29732E+03  6.08359E+02 -5.90504E+03 -8.36123E+02
 -4.05082E+03 -5.52244E+03  2.81796E+02 -6.60684E+03  5.19670E+03 -7.35526E+03  7.76027E+03 -1.90996E+03
  7.74446E+03  4.33802E+03  3.42620E+03  5.46451E+03 -1.58472E+03  7.63016E+03 -4.74990E+03  4.46910E+03
 -6.56691E+03 -1.12886E+03 -5.07815E+03 -4.31612E+03 -1.64333E+03 -5.38970E+03  3.90296E+03 -4.86384E+03
  4.49624E+03 -7.15201E+02  3.80805E+03  6.45588E+02  1.14434E+03  2.00927E+03  1.26788E+03  2.11531E+03
  2.09925E+03  8.80811E+02  2.50900E+03  1.18650E+03  2.46572E+03  3.02465E+03  2.23709E+03  2.99054E+03
 -1.58509E+03  5.87521E+03 -6.92363E+03  6.99548E+03 -7.28085E+03  1.66794E+03 -7.96452E+03 -3.12387E+03
 -3.60706E+03 -7.06946E+03  5.58753E+02 -8.12179E+03  3.40557E+03 -4.66402E+03  6.51250E+03 -1.65731E+03
  4.27966E+03  3.08138E+03  6.84507E+02  4.01021E+03 -1.85936E+03  2.70404E+03 -2.38407E+03 -7.38460E+02
  1.20961E+02 -3.16142E+03  2.00075E+03 -3.20525E+03  1.46481E+03 -2.20669E+03  2.21760E+03  8.72212E+02
  1.74377E+03  1.00835E+03  1.21512E+03  6.23413E+02  4.88595E+02  2.28711E+02  2.42682E+03  1.24752E+02
  1.20127E+03 -1.40300E+02  2.70803E+03  1.88157E+03  1.30067E+03  3.81382E+03 -8.81778E+02  4.12310E+03
 -2.76983E+03  2.03144E+03 -5.38770E+03  1.94599E+02 -3.65230E+03 -1.75218E+03 -7.37884E+02 -2.19011E+03
  5.86112E+02 -3.29362E+03  1.90361E+03 -1.71695E+03  1.19612E+03  2.54215E+03 -2.30008E+03  1.87266E+03
 -3.28510E+03  2.55326E+03 -3.91355E+03 -8.32433E+02 -5.90379E+02 -4.23578E+03  3.20043E+02 -4.60676E+03
  2.48642E+03 -1.32571E+03  2.12415E+03  6.20755E+02  1.92071E+03 -3.06265E+02  2.45907E+02  1.93288E+03
 -1.22366E+03  5.89467E+02 -1.93791E+03 -1.65197E+03  5.28051E+02 -1.58437E+03  3.81923E+03 -1.35115E+03
  3.53485E+03  1.60195E+02  4.79207E+03  2.91937E+03  1.57747E+03  3.54681E+03 -5.87910E+02  4.49471E+03
 -2.84033E+03  1.41208E+03 -3.38358E+03 -1.40085E+02 -2.21177E+03 -2.90553E+03  1.21940E+03 -1.42909E+03
  2.79592E+03 -1.50713E+03  1.59784E+03  1.83695E+03  8.23817E+02  2.78666E+03  2.78181E+02  2.05731E+03
 -1.01751E+03  2.26177E+03 -3.23270E+02 -6.39904E+02  6.27269E+01  1.98578E+03 -1.41453E+02  1.42282E+03
 -2.04562E+03  1.89051E+03 -2.93434E+03  2.38150E+03 -3.69493E+03  2.41411E+02 -4.24996E+03 -1.70278E+03
 -1.82326E+03 -6.55637E+03  1.86984E+03 -6.32699E+03  3.47778E+03 -3.65907E+03  5.90708E+03 -1.79520E+03
  5.66547E+03 -1.15781E+02  4.35360E+03  2.65158E+03 -1.80922E+02  3.87371E+03 -1.47034E+03  4.17240E+03
 -1.92944E+03  1.32880E+03  5.77420E+02  2.98664E+02  1.76580E+02 -5.67763E+02 -2.16991E+03 -4.05124E+01
 -1.28505E+03  8.00805E+02 -1.43538E+03 -1.53726E+02 -8.17167E+02 -1.14199E+03 -7.61187E+02 -7.90441E+02
  1.92372E+03 -6.08049E+02  2.35156E+03  8.89824E+02  3.08432E+03  2.62379E+03 -1.06488E+02  3.81636E+03
 -7.53184E+02  4.24719E+03 -3.46868E+03  2.79813E+03 -5.18591E+03 -1.87063E+03 -2.95525E+03 -3.83231E+03
 -1.58271E+03 -3.80216E+03 -5.15983E+02 -3.87606E+03  1.93871E+03 -1.31601E+03  1.96195E+03 -5.81965E+02
  1.65258E+03  1.50771E+03  3.90194E+02  6.38653E+02  3.24143E+02 -9.02657E+01 -5.26899E+02 -1.73520E+03
  1.23701E+03  1.18387E+01  7.86815E+02 -5.61983E+02  2.11407E+02  1.05165E+03  1.40819E+03  1.14166E+03
 -1.37113E+03  1.25431E+03 -9.73035E+02  9.10223E+02 -2.00925E+03 -2.05715E+03 -1.80055E+02 -4.30907E+03
  1.90013E+03 -1.77707E+03  2.05488E+03  1.07031E+03  1.79143E+03 -5.24751E+02  2.00407E+03  1.43501E+03
  9.95938E+02  1.18922E+03  1.86734E+02  2.31127E+03 -7.30578E+02  1.47911E+03 -4.64178E+02  4.10407E+02
 -5.35354E+02 -3.90534E+02 -1.58640E+03  2.92477E+02 -2.06954E+03 -3.40062E+02 -2.86811E+03  2.65479E+02
 -2.10510E+03 -4.24020E+02 -1.50986E+03 -2.87744E+03  1.29934E+03 -2.55234E+03  2.14434E+03 -8.45338E+02
  1.27935E+03 -7.05149E+01  5.60110E+02  1.55165E+03  5.40874E+02  2.82944E+03 -2.08608E+03  1.66792E+03
