 $NMID ID='MM_0lb_SNR200_11hz_g60_16.RAW', FMTDAT='(8E13.5)'
 TRAMP=1., VOLUME=1. $END
  3.10315E+05  2.12856E+03  3.35635E+05  2.51095E+05  8.51707E+04  3.39676E+05 -1.33254E+05  2.52227E+05
 -1.90969E+05  8.22814E+04 -1.12149E+05 -3.06756E+04  6.27462E+02 -5.31532E+04  5.46299E+04  3.30081E+02
  3.69269E+04  5.22851E+04 -1.70705E+04  7.73711E+04 -6.23380E+04  6.52152E+04 -8.61395E+04  3.23027E+04
 -8.21789E+04 -1.30124E+04 -5.75485E+04 -5.16875E+04 -1.55116E+04 -7.04329E+04  2.69319E+04 -4.65936E+04
  4.15546E+04  4.52357E+03  1.71992E+04  4.72425E+04 -3.48765E+04  4.73861E+04 -6.87477E+04 -5.75783E+02
 -5.46842E+04 -5.72679E+04 -5.86956E+03 -7.91672E+04  3.42923E+04 -5.78981E+04  4.89961E+04 -1.70427E+04
  4.55985E+04  1.10550E+04  3.24694E+04  2.56949E+04  1.54903E+04  3.05785E+04 -6.64463E+03  2.77720E+04
 -2.25077E+04  1.32913E+04 -1.76698E+04 -4.62151E+03  7.14325E+03 -8.22419E+03  2.35383E+04  1.39467E+04
  7.34193E+03  3.73445E+04 -3.32613E+04  3.64166E+04 -6.60376E+04  3.62336E+03 -5.86949E+04 -4.28859E+04
 -1.37690E+04 -6.50521E+04  4.17026E+04 -4.66816E+04  6.08292E+04 -2.26812E+03  3.56530E+04  3.42048E+04
 -4.66370E+03  3.81345E+04 -3.14910E+04  1.84293E+04 -3.29564E+04 -2.08762E+03 -1.87266E+04 -1.20967E+04
 -7.52297E+03 -1.42447E+04 -4.67466E+02 -1.94451E+04  7.90751E+03 -2.31761E+04  1.59140E+04 -1.23056E+04
  1.05247E+04  5.12615E+03 -1.10930E+04  1.25162E+04 -2.24518E+04 -6.65219E+03 -7.64526E+03 -3.75027E+04
  2.45014E+04 -4.67052E+04  5.23905E+04 -1.95897E+04  4.78375E+04  1.95096E+04  1.73630E+04  4.63716E+04
 -1.68716E+04  3.56891E+04 -2.69831E+04  2.84249E+03 -9.85701E+03 -2.90984E+04  2.29238E+04 -3.75808E+04
  4.49358E+04 -1.05968E+04  4.05682E+04  2.37450E+04  2.10114E+04  5.03128E+04 -6.41197E+03  5.63459E+04
 -3.50831E+04  3.74345E+04 -4.58932E+04  1.15315E+04 -4.62456E+04 -1.75535E+04 -2.54396E+04 -4.16872E+04
  7.01988E+03 -4.18056E+04  3.44547E+04 -1.59165E+04  3.03118E+04  1.13869E+04  5.14408E+03  2.06691E+04
 -1.34104E+04  1.11098E+04 -1.08620E+04 -7.60450E+03  6.29791E+03 -1.18637E+04  1.76679E+04  6.92630E+03
  1.52979E+04  2.18151E+04 -6.24193E+03  2.63326E+04 -2.35503E+04  1.41838E+04 -3.11465E+04 -2.92940E+03
 -2.48617E+04 -1.85660E+04 -1.20602E+04 -2.51716E+04  4.26297E+03 -2.48637E+04  1.87599E+04 -2.22615E+04
  3.03781E+04 -1.30655E+04  3.68406E+04  3.88975E+03  2.83620E+04  2.40042E+04  4.92621E+03  4.00749E+04
 -1.87204E+04  3.31810E+04 -3.12029E+04  1.28133E+04 -2.09886E+04 -1.04526E+04 -4.14502E+03 -1.35082E+04
  1.48583E+03 -1.54177E+03 -6.31624E+03  8.31688E+03 -1.97027E+04  5.93335E+03 -1.88779E+04 -8.62906E+03
 -1.19028E+04 -2.22373E+04  6.04534E+03 -2.67424E+04  1.85674E+04 -2.07061E+04  2.09146E+04 -1.35580E+03
  1.48866E+04  1.58041E+04 -1.64049E+03  2.18192E+04 -1.59351E+04  1.31267E+04 -2.35430E+04 -4.50088E+03
 -1.65849E+04 -1.88099E+04 -2.26069E+03 -2.86145E+04  1.12564E+04 -2.34526E+04  2.34604E+04 -1.10921E+04
  2.23878E+04 -9.12495E+02  1.51484E+04  5.19095E+03  8.69597E+03  1.62346E+03  1.05187E+04 -1.28307E+03
  2.12311E+04  2.85220E+03  2.49362E+04  1.69144E+04  1.49169E+04  3.65774E+04 -2.38587E+03  4.26594E+04
 -2.50267E+04  3.56917E+04 -4.02493E+04  1.83620E+04 -4.34669E+04 -2.27006E+03 -3.55905E+04 -2.48723E+04
 -1.35724E+04 -3.62094E+04  1.21795E+04 -3.15354E+04  2.76883E+04 -1.41059E+04  2.22981E+04  7.00170E+03
  7.92580E+03  1.78454E+04 -1.07039E+04  1.50048E+04 -1.91041E+04  3.59121E+03 -1.49127E+04 -1.20769E+04
 -2.06347E+02 -1.77554E+04  9.72681E+03 -1.42602E+04  1.36019E+04 -2.14183E+03  2.21037E+03  9.13415E+03
 -8.62204E+03  4.14345E+03 -9.42212E+03 -7.17408E+03 -1.08734E+03 -1.66577E+04  1.27789E+04 -1.85075E+04
  2.24873E+04 -9.96037E+03  2.53403E+04  3.51603E+03  2.17974E+04  1.73562E+04  9.52905E+03  2.82743E+04
 -5.38693E+03  2.99110E+04 -2.01991E+04  1.80513E+04 -2.12055E+04  3.67691E+03 -1.46188E+04 -4.85515E+03
 -6.67901E+03 -6.65825E+03 -1.02517E+02  1.44955E+02 -2.97331E+03  3.13254E+03 -8.48648E+03  3.51865E+03
 -1.35995E+04 -4.80251E+02 -1.48970E+04 -1.14901E+04 -5.47044E+03 -1.84701E+04  6.45838E+03 -1.50146E+04
  1.21982E+04 -5.38373E+03  8.90732E+03  3.50455E+03  1.33359E+03  6.35473E+03 -6.49185E+03  7.76056E+02
 -7.12659E+03 -9.17541E+03  6.71280E+02 -1.40790E+04  7.69223E+03 -1.48880E+04  1.82388E+04 -9.37884E+03
  2.12224E+04  2.79921E+03  1.66011E+04  1.22358E+04  2.93889E+03  1.83474E+04 -1.01990E+04  1.42665E+04
 -1.18846E+04  4.25413E+03 -5.89957E+03 -3.98515E+03  2.09118E+03 -4.78088E+03  8.22027E+03 -9.36500E+01
  6.95067E+03  6.21677E+03  5.11473E+02  1.14209E+04 -9.34225E+03  9.74139E+03 -1.38421E+04  1.00061E+03
 -1.00897E+04 -8.53532E+03  5.78734E+02 -1.32385E+04  8.04031E+03 -5.51535E+03  8.21056E+03  1.97796E+03
  3.21989E+03  9.12105E+03 -6.54054E+03  9.94753E+03 -1.21952E+04  4.26405E+03 -1.31845E+04 -4.53665E+03
 -5.70188E+03 -1.41060E+04  2.83792E+03 -1.76921E+04  1.26984E+04 -9.72982E+03  1.52865E+04  3.67511E+03
  9.46800E+03  1.12761E+04  5.33354E+01  1.58843E+04 -1.07464E+04  8.83244E+03 -1.20693E+04 -1.12065E+03
 -1.13222E+04 -8.99967E+03 -1.59295E+03 -1.02041E+04  6.15412E+03 -9.59165E+03  6.10519E+03 -3.97643E+03
  5.12884E+03  1.61134E+03 -1.22473E+03  2.27640E+03 -8.08114E+02 -2.24544E+03  3.32321E+03 -6.47643E+03
  9.62234E+03 -4.18082E+03  1.54734E+04  3.20026E+03  1.36738E+04  8.63993E+03  8.25469E+03  1.80998E+04
 -5.38362E+03  2.09141E+04 -1.79320E+04  1.66134E+04 -2.18074E+04  4.08360E+03 -1.78477E+04 -8.81243E+03
 -9.08656E+03 -1.44459E+04 -1.10017E+03 -1.23341E+04  4.79767E+03 -7.89035E+03  4.56082E+03 -4.78668E+03
  1.28193E+03 -1.70852E+03  3.06175E+03 -2.72754E+03  6.06237E+03 -2.42924E+03  7.39160E+03 -1.28587E+03
  1.03140E+04  1.85734E+03  5.26363E+03  9.69401E+03 -2.37880E+03  9.42890E+03 -1.03222E+04  7.41453E+03
 -1.12192E+04 -1.71284E+03 -9.02695E+03 -9.57909E+03 -2.77682E+03 -1.41571E+04  6.94576E+03 -1.40850E+04
  1.31522E+04 -8.52232E+03  1.64617E+04  1.05117E+03  1.11029E+04  1.12532E+04  3.29267E+03  1.59873E+04
 -5.66435E+03  1.37418E+04 -1.03052E+04  3.76014E+03 -5.47520E+03 -1.18491E+03 -2.12382E+03 -1.11808E+03
  4.69090E+01 -2.21449E+02 -2.67787E+03  3.28724E+03 -6.17101E+03  1.02901E+03 -1.05437E+04 -1.40849E+03
 -6.59711E+03 -8.39372E+03  5.07079E+02 -1.17033E+04  6.89740E+03 -1.13584E+04  1.10355E+04 -4.38384E+03
  1.15898E+04  6.04929E+03  5.11764E+03  1.09147E+04 -3.69323E+03  1.23195E+04 -9.58222E+03  7.76023E+03
 -1.26375E+04  1.12927E+03 -1.03991E+04 -7.27195E+03  2.91962E+01 -1.15787E+04  5.42076E+03 -8.83319E+03
  7.64998E+03 -2.85965E+03  6.54235E+03  2.01963E+03  1.74032E+03  3.79160E+03  2.05028E+03  1.38819E+03
  2.15346E+03  4.18539E+02  2.35942E+03  1.21661E+03  4.18483E+03  4.84691E+03  2.88281E+03  6.30658E+03
 -1.70293E+03  1.17594E+04 -9.31638E+03  1.03466E+04 -1.25728E+04  3.54350E+03 -1.27212E+04 -4.94034E+03
 -6.13293E+03 -1.19974E+04  2.81912E+03 -1.39300E+04  8.48163E+03 -9.09127E+03  1.15839E+04 -2.98078E+03
  8.47783E+03  4.61560E+03  3.07327E+03  8.04888E+03 -4.11774E+03  3.56369E+03 -6.66998E+03 -2.22006E+03
 -3.77187E+03 -5.47162E+03  3.58067E+03 -5.71515E+03  5.63834E+03 -2.05942E+03  4.57384E+03  2.16655E+03
  4.74837E+03  1.35384E+03  2.12683E+03  1.19716E+03  6.49103E+02  8.16762E+01  1.81748E+03 -6.23826E+02
  2.23772E+03 -2.44575E+02  4.66599E+03  2.27788E+03  2.21497E+03  7.44956E+03 -1.82219E+03  8.47471E+03
 -6.04929E+03  6.10773E+03 -7.48481E+03  2.06312E+03 -7.99136E+03 -3.73079E+03 -3.09967E+03 -4.52871E+03
  6.66986E+02 -4.48977E+03  5.10564E+03 -1.94136E+03  3.67621E+03  3.54929E+03 -8.87813E+01  5.47050E+03
 -6.03381E+03  2.73601E+03 -5.53153E+03 -3.16258E+03 -3.75949E+03 -7.75340E+03 -2.77030E+02 -8.52502E+03
  4.07646E+03 -3.74511E+03  3.56816E+03 -1.57325E+03  4.25405E+03  1.57846E+03  6.93366E+02  3.75952E+03
 -2.21867E+03  1.27905E+03 -2.58269E+03 -2.08477E+03  9.28636E+02 -6.27939E+03  6.84827E+03 -6.18598E+03
  6.65553E+03  2.58142E+03  8.00888E+03  5.59140E+03  7.17073E+02  8.28429E+03 -2.43604E+03  8.37353E+03
 -5.40098E+03  2.54833E+03 -6.73887E+03 -1.36537E+03 -3.29008E+03 -4.98689E+03  1.64403E+03 -4.56484E+03
  4.44759E+03 -2.45883E+03  2.43540E+03  2.29824E+03  1.65464E+03  3.51994E+03 -1.62322E+03  3.56552E+03
 -2.49651E+03  3.80173E+03 -2.12939E+03  7.34991E+02  2.74009E+02  1.43457E+03 -1.58088E+03  1.07706E+03
 -2.73098E+03  1.33086E+03 -5.74963E+03  3.38221E+03 -5.95952E+03  3.69415E+02 -8.72182E+03 -3.87624E+03
 -3.55557E+03 -1.19018E+04  2.16195E+03 -1.22531E+04  9.75725E+03 -9.05382E+03  1.03920E+04 -4.72300E+03
  1.07573E+04 -4.29441E+02  6.58634E+03  6.26039E+03  1.11798E+03  8.74264E+03 -3.33876E+03  4.51451E+03
 -4.34547E+03  2.15271E+03 -1.95555E+03 -1.72542E+03 -3.88778E+02  1.81510E+02 -3.37573E+02  2.42391E+02
 -1.98509E+03  1.97706E+03 -1.53275E+03  6.26998E+02 -8.86082E+02 -1.08176E+03 -5.31136E+02 -2.26829E+03
  3.33250E+03 -1.92352E+03  4.89137E+03  9.00882E+02  5.34408E+03  4.30679E+03  7.89755E+02  8.66236E+03
 -3.19893E+03  8.27495E+03 -7.38395E+03  4.96041E+03 -9.10064E+03 -9.47095E+02 -7.57416E+03 -6.67619E+03
 -4.48448E+03 -9.13379E+03  1.37643E+03 -6.62119E+03  5.56466E+03 -5.63821E+03  5.19348E+03  7.43073E+02
  2.54857E+03  2.80489E+03 -2.52250E+02  2.31705E+03 -1.98462E+03  1.04424E+03  2.04060E+02 -4.80098E+02
  2.89723E+03 -8.01947E+02  2.90758E+03  8.53721E+02  2.59578E+03  3.49125E+03  1.64970E+03  4.01413E+03
 -2.21441E+03  4.33202E+03 -4.86095E+03  1.03534E+03 -5.13401E+03 -3.13766E+03 -3.16367E+02 -6.78938E+03
  4.65561E+03 -6.03751E+03  5.28350E+03 -8.86527E+02  5.75436E+03  2.72848E+03  1.53978E+03  4.31973E+03
  1.22388E+03  4.57856E+03 -2.42779E+03  3.17024E+03 -1.52877E+03  6.72818E+02 -1.29627E+03  1.07147E+03
 -1.58062E+03  2.92594E+01 -2.05962E+03  3.50379E+02 -1.35166E+03  7.84761E+02 -3.49650E+03 -1.49633E+03
 -3.41659E+03 -1.55192E+03 -1.04393E+02 -4.86938E+03  2.54862E+03 -6.22364E+03  4.67158E+03 -2.67792E+03
  5.05014E+03  6.50371E+02  2.97879E+03  3.68816E+03 -2.90460E+02  3.72573E+03 -2.13957E+03  4.32771E+03
