 $NMID ID='MM_0lb_SNR200_13hz_g55_41.RAW', FMTDAT='(8E13.5)'
 TRAMP=1., VOLUME=1. $END
  3.09793E+05  1.69038E+02  3.38904E+05  2.51141E+05  8.48282E+04  3.37887E+05 -1.31930E+05  2.52031E+05
 -1.91780E+05  8.29838E+04 -1.12565E+05 -3.26323E+04 -3.77514E+02 -5.00289E+04  5.39096E+04 -8.90128E+02
  3.54385E+04  5.21419E+04 -1.73315E+04  7.67186E+04 -6.20673E+04  6.29722E+04 -8.46421E+04  3.28383E+04
 -8.15103E+04 -1.15027E+04 -5.73802E+04 -5.15109E+04 -1.39383E+04 -7.02904E+04  2.78617E+04 -4.58451E+04
  4.11553E+04  4.23511E+03  1.72685E+04  4.68309E+04 -3.41510E+04  4.86194E+04 -6.76442E+04 -4.99702E+02
 -5.52260E+04 -5.76138E+04 -6.95435E+03 -7.75083E+04  3.41408E+04 -5.66746E+04  4.91539E+04 -1.66205E+04
  4.40220E+04  1.19298E+04  3.20331E+04  2.49311E+04  1.43945E+04  2.94234E+04 -4.16023E+03  2.58188E+04
 -2.25489E+04  1.14769E+04 -1.85267E+04 -5.53065E+03  5.33888E+03 -7.44516E+03  2.26539E+04  1.32303E+04
  7.66126E+03  3.57612E+04 -3.28439E+04  3.65828E+04 -6.38552E+04  1.53991E+03 -5.79495E+04 -4.27030E+04
 -1.19216E+04 -6.48387E+04  4.03426E+04 -4.68795E+04  5.95002E+04 -2.71491E+03  3.47569E+04  3.28236E+04
 -6.77725E+03  3.87980E+04 -2.99887E+04  1.73266E+04 -3.10621E+04 -3.52335E+03 -1.84975E+04 -1.10577E+04
 -7.95240E+03 -1.30330E+04 -1.61768E+02 -1.95445E+04  7.57566E+03 -2.25130E+04  1.59777E+04 -1.42773E+04
  1.05029E+04  6.77572E+03 -9.22476E+03  1.35143E+04 -2.31567E+04 -5.29504E+03 -8.82171E+03 -3.52743E+04
  2.37801E+04 -4.55791E+04  4.80913E+04 -2.09246E+04  4.64274E+04  2.02596E+04  1.58446E+04  4.51347E+04
 -1.59831E+04  3.53285E+04 -2.58993E+04  2.98625E+03 -1.06297E+04 -2.90996E+04  2.04115E+04 -3.63438E+04
  4.23027E+04 -1.09678E+04  3.81977E+04  2.36957E+04  1.80039E+04  4.91095E+04 -9.21768E+03  5.21535E+04
 -3.31059E+04  3.65616E+04 -4.38680E+04  1.07819E+04 -4.50932E+04 -1.64789E+04 -2.48250E+04 -4.07353E+04
  7.61685E+03 -3.88462E+04  3.33664E+04 -1.42757E+04  2.90401E+04  1.11326E+04  4.34503E+03  1.99901E+04
 -1.29682E+04  9.53581E+03 -9.53372E+03 -8.26427E+03  6.62140E+03 -1.12710E+04  1.71061E+04  6.46645E+03
  1.21035E+04  2.15234E+04 -6.30563E+03  2.56042E+04 -2.12786E+04  1.11854E+04 -2.97038E+04 -3.44148E+03
 -2.30871E+04 -1.79700E+04 -9.98078E+03 -2.27113E+04  3.14787E+03 -2.14158E+04  1.56958E+04 -2.04283E+04
  2.82518E+04 -1.29255E+04  3.47991E+04  3.47378E+03  2.50803E+04  2.16318E+04  5.34133E+03  3.72282E+04
 -1.88510E+04  3.09281E+04 -2.76783E+04  9.92213E+03 -2.19693E+04 -1.18000E+04 -4.61787E+03 -1.27141E+04
  8.95672E+02 -2.50376E+03 -6.01047E+03  6.34203E+03 -1.71367E+04  4.47252E+03 -1.76091E+04 -8.02016E+03
 -9.57122E+03 -1.94310E+04  6.42375E+03 -2.34302E+04  1.52798E+04 -1.77761E+04  1.91826E+04 -1.39215E+03
  1.30061E+04  1.42278E+04 -1.76062E+03  2.14916E+04 -1.33952E+04  1.18493E+04 -1.97306E+04 -3.40153E+03
 -1.48837E+04 -1.78379E+04 -1.41266E+03 -2.49835E+04  1.12651E+04 -1.94486E+04  2.11325E+04 -1.10577E+04
  1.82523E+04 -2.37974E+02  1.42274E+04  4.83190E+03  5.97287E+03  1.40170E+03  1.08908E+04 -2.06183E+03
  1.98374E+04  2.90336E+03  2.03044E+04  1.52301E+04  1.46000E+04  3.25212E+04 -2.65153E+03  3.79306E+04
 -2.23993E+04  3.09154E+04 -3.63086E+04  1.52184E+04 -3.75600E+04 -2.45887E+03 -2.96330E+04 -2.02500E+04
 -1.29715E+04 -2.94473E+04  9.68197E+03 -2.71397E+04  2.20054E+04 -1.46192E+04  2.10535E+04  6.18906E+03
  7.47412E+03  1.41542E+04 -8.76170E+03  1.38045E+04 -1.79884E+04  2.35848E+03 -1.44395E+04 -1.20773E+04
 -5.15739E+02 -1.59375E+04  9.94789E+03 -1.31798E+04  1.14081E+04 -1.15678E+03  3.00054E+03  6.25222E+03
 -6.74202E+03  3.89747E+03 -5.96033E+03 -5.24398E+03 -1.10152E+03 -1.44688E+04  8.95699E+03 -1.54916E+04
  1.89932E+04 -7.68221E+03  2.12814E+04  3.53769E+03  1.72705E+04  1.49307E+04  9.08510E+03  2.31525E+04
 -4.13945E+03  2.46992E+04 -1.64304E+04  1.56142E+04 -1.74640E+04  3.11702E+03 -1.22727E+04 -4.65151E+03
 -5.49250E+03 -5.93412E+03 -4.37148E+02  2.86851E+02 -3.46104E+03  4.28129E+03 -6.72532E+03  5.62681E+03
 -1.16262E+04 -1.18573E+03 -1.37747E+04 -8.60959E+03 -6.22376E+03 -1.56820E+04  5.19468E+03 -1.34735E+04
  9.43193E+03 -5.46348E+03  7.02555E+03  3.82756E+03  1.21241E+03  6.92200E+03 -5.17882E+03 -9.86889E+01
 -6.79689E+03 -8.23362E+03 -2.09351E+03 -1.12201E+04  6.33520E+03 -1.22123E+04  1.60252E+04 -6.86876E+03
  1.96023E+04  2.75396E+03  1.24977E+04  1.01879E+04  3.93886E+03  1.31514E+04 -6.51758E+03  1.22234E+04
 -1.08097E+04  3.72876E+03 -5.90847E+03 -2.92232E+03  1.92457E+03 -2.87523E+03  5.60134E+03 -6.82766E+02
  4.75016E+03  6.19579E+03  1.65023E+03  9.61659E+03 -7.17671E+03  1.09492E+04 -1.18417E+04  2.27740E+03
 -8.07821E+03 -5.90237E+03  1.71638E+03 -1.02676E+04  5.61930E+03 -5.06323E+03  7.70425E+03  2.30560E+03
  1.39233E+02  7.24453E+03 -5.97071E+03  8.18278E+03 -9.18801E+03  4.63795E+03 -8.84960E+03 -3.18468E+03
 -4.89246E+03 -1.22269E+04  3.59044E+03 -1.28359E+04  1.10497E+04 -8.84818E+03  1.36844E+04  1.75152E+03
  9.07272E+03  9.61314E+03 -7.63268E+02  1.29551E+04 -8.91197E+03  5.78800E+03 -1.00806E+04 -4.56287E+02
 -8.64032E+03 -8.24657E+03 -1.69171E+03 -8.34191E+03  4.90882E+03 -7.82944E+03  4.85065E+03 -3.66018E+03
  3.67912E+03  2.90448E+02  4.52196E+01  6.45087E+02  1.69819E+02 -2.15321E+03  3.44040E+01 -3.82292E+03
  7.17571E+03 -3.23719E+03  1.09170E+04  9.39373E+02  1.07693E+04  8.11030E+03  7.42346E+03  1.46143E+04
 -1.92435E+03  1.74890E+04 -1.33178E+04  1.34553E+04 -1.85221E+04  3.53641E+03 -1.49872E+04 -5.86980E+03
 -7.90618E+03 -1.10411E+04 -2.60270E+02 -1.08505E+04  3.27050E+03 -5.19737E+03  3.66742E+03 -4.54478E+03
  1.10215E+03 -1.74516E+03  2.81166E+03 -2.92257E+03  4.34333E+03 -2.86652E+03  6.69905E+03  3.45266E+02
  8.69783E+03  1.73747E+03  3.50543E+03  5.49678E+03 -1.92191E+03  8.28864E+03 -8.34607E+03  5.11625E+03
 -9.66546E+03 -3.25730E+02 -6.58856E+03 -6.45026E+03  5.31059E+02 -1.02371E+04  5.76193E+03 -1.05645E+04
  1.07657E+04 -6.39602E+03  1.35597E+04  1.45917E+03  9.78688E+03  7.63393E+03  7.62711E+02  1.16372E+04
 -5.61561E+03  9.53090E+03 -8.41027E+03  3.43716E+03 -4.27768E+03 -1.31659E+02 -1.59308E+03 -2.16698E+02
 -1.41174E+03  4.18300E+02 -2.52724E+03  1.75705E+03 -4.16151E+03  3.12126E+03 -6.65829E+03  1.22605E+02
 -3.32739E+03 -6.59323E+03 -2.64369E+02 -9.31809E+03  6.02356E+03 -9.56781E+03  8.19319E+03 -2.34793E+03
  1.02320E+04  5.46999E+03  4.40237E+03  7.24130E+03 -1.88182E+03  9.04595E+03 -6.62473E+03  7.08290E+03
 -9.07048E+03  2.47976E+03 -6.23867E+03 -5.16045E+03 -2.11051E+03 -7.54981E+03  3.64738E+03 -4.82048E+03
  5.98082E+03 -2.16423E+03  5.08970E+03  1.53935E+03  1.28908E+03  1.95288E+03  8.22460E+02  1.02447E+03
  3.34049E+03  1.19093E+03  2.09413E+03  2.02791E+03  2.35710E+03  3.38089E+03  2.15745E+03  5.88418E+03
 -3.28827E+03  5.65834E+03 -7.13446E+03  8.24707E+03 -8.22322E+03  2.17379E+03 -1.10487E+04 -4.07677E+03
 -4.39445E+03 -1.02279E+04  1.04885E+03 -1.06105E+04  6.18324E+03 -6.05003E+03  7.37790E+03 -1.50205E+03
  6.96145E+03  4.32351E+03  1.31074E+03  4.84051E+03 -3.01639E+03  3.96461E+03 -3.30604E+03 -1.45460E+03
 -1.65033E+03 -4.01870E+03  2.44485E+03 -4.78251E+03  2.55690E+03 -1.37787E+03  2.92884E+03  3.16947E+02
  2.38158E+03  1.52730E+03  3.21463E+02  1.66675E+03 -4.08037E+02  1.46058E+03  1.55988E+03 -1.46552E+03
  1.38170E+03  3.82583E+02  4.72820E+03  1.88925E+03  1.55356E+03  5.40851E+03 -1.76311E+03  6.32841E+03
 -4.12465E+03  3.47947E+03 -5.74961E+03  1.41583E+03 -5.56379E+03 -8.66334E+02 -1.14963E+03 -2.68397E+03
 -3.85375E+02 -3.13866E+03  3.20347E+03 -1.56643E+03  1.77945E+03  2.58006E+03 -1.42919E+03  3.18668E+03
 -3.25779E+03  2.54833E+03 -3.08943E+03 -3.52503E+03 -2.23061E+03 -6.18201E+03  7.32838E+02 -5.74141E+03
  3.32748E+03 -2.38045E+03  2.61239E+03 -5.67590E+02  3.08330E+03 -2.49473E+02 -1.48455E+02  3.15518E+03
 -2.34798E+03  1.41426E+02 -1.60962E+03 -5.90148E+02  1.07808E+03 -4.12818E+03  4.23045E+03 -2.40290E+03
  4.83288E+03  1.15323E+03  5.24056E+03  3.35482E+03  1.93317E+02  4.52441E+03 -1.16594E+03  6.08373E+03
 -2.82926E+03  1.07071E+03 -5.53014E+03 -5.56255E+02 -2.67040E+03 -3.15310E+03  6.53260E+02 -3.24315E+03
  3.89175E+03  1.59255E+02  2.82847E+03  1.48600E+03  1.30709E+03  3.53172E+03 -1.24082E+03  3.89178E+03
 -1.37455E+03  2.47643E+03 -1.13423E+03  4.01258E+02  4.03255E+02  4.37704E+02 -1.30709E+03  4.82473E+02
  1.45477E+02  1.68738E+03 -3.04907E+03  1.86372E+03 -4.57477E+03 -3.23087E+02 -4.78242E+03 -2.52948E+03
 -2.98808E+03 -6.81972E+03  1.17606E+03 -7.14036E+03  4.34681E+03 -6.16421E+03  8.01786E+03 -2.36442E+03
  8.36641E+03  3.10948E+02  3.19631E+03  4.83531E+03  3.56093E+02  5.24962E+03 -2.46581E+03  3.54051E+03
 -3.17491E+03  1.04123E+03 -1.63504E+03 -9.45192E+02 -1.93311E+03 -1.12942E+02 -8.16338E+02 -2.12620E+01
 -1.88706E+03  2.41007E+03 -4.91021E+02  2.99922E+02  5.06614E+02 -1.19013E+03  4.28949E+02 -2.87654E+03
  3.37465E+03 -2.04975E+03  2.19370E+03  1.00471E+03  3.70537E+03  3.03477E+03  1.04016E+03  5.37574E+03
 -2.27608E+03  5.97471E+03 -6.24331E+03  2.84216E+03 -5.86742E+03 -7.28180E+01 -4.66134E+03 -3.59407E+03
 -2.20181E+03 -6.29940E+03  1.18562E+03 -3.97069E+03  4.07645E+03 -1.74929E+03  3.31146E+03 -3.60755E+02
  8.16229E+02  1.02526E+03 -8.21038E+01  1.13630E+03 -3.44723E+02 -6.19358E+02 -3.91459E+02  5.19569E+00
  2.47881E+03  5.19622E+02  2.00730E+03  3.45971E+02  2.42341E+01  2.10505E+03  1.36231E+03  2.20345E+03
 -2.61149E+03  3.19704E+03 -3.57832E+03  1.47863E+03 -1.52276E+03 -2.65505E+03  8.81660E+02 -2.97493E+03
  1.70783E+03 -1.30298E+03  2.90011E+03  5.74006E+02  2.83743E+03  8.32865E+02  4.25441E+02  2.96167E+03
 -2.52591E+01  2.69231E+03 -1.29529E+03  2.92710E+03 -1.28247E+03  1.35154E+03 -2.67047E+03  3.88227E+02
 -6.45005E+02 -5.41896E+02 -6.05551E+02  1.12203E+03 -1.15243E+03  8.90050E+02 -1.31734E+03 -6.27908E+02
 -2.13565E+03 -1.33339E+03 -5.47850E+02 -3.08945E+03  6.58457E+02 -3.37055E+03  2.54775E+03 -2.40947E+03
  2.53858E+03  7.72731E+02  7.82455E+02  2.67695E+03  4.99169E+00  1.98137E+03 -1.03957E+03  2.58084E+03
