 $NMID ID='MM_0lb_SNR200_15hz_g55_40.RAW', FMTDAT='(8E13.5)'
 TRAMP=1., VOLUME=1. $END
  3.09911E+05 -2.32259E+02  3.37917E+05  2.49877E+05  8.32934E+04  3.38426E+05 -1.32423E+05  2.50737E+05
 -1.90744E+05  8.42628E+04 -1.10976E+05 -3.40870E+04  8.85537E+02 -5.03100E+04  5.44565E+04 -6.19635E+02
  3.41647E+04  5.30168E+04 -1.72113E+04  7.56486E+04 -6.05761E+04  6.38657E+04 -8.41669E+04  3.24256E+04
 -8.11134E+04 -1.11168E+04 -5.65805E+04 -5.17100E+04 -1.56642E+04 -7.02124E+04  2.73597E+04 -4.58622E+04
  3.98051E+04  4.94353E+03  1.60053E+04  4.80212E+04 -3.45673E+04  4.77215E+04 -6.61553E+04  1.37713E+03
 -5.31812E+04 -5.63460E+04 -6.05695E+03 -7.52373E+04  3.48142E+04 -5.47455E+04  4.74295E+04 -1.71749E+04
  4.39019E+04  1.07618E+04  3.18827E+04  2.44142E+04  1.63954E+04  2.88348E+04 -5.03718E+03  2.79526E+04
 -2.20349E+04  1.15861E+04 -1.77139E+04 -5.40778E+03  5.98496E+03 -8.09421E+03  2.26354E+04  1.25548E+04
  6.03671E+03  3.45762E+04 -3.32541E+04  3.40965E+04 -6.35545E+04  2.77891E+03 -5.79529E+04 -4.34915E+04
 -1.24241E+04 -6.34627E+04  4.23381E+04 -4.57644E+04  5.81956E+04 -2.14871E+03  3.49046E+04  3.31893E+04
 -6.04661E+03  3.60795E+04 -3.04297E+04  1.57740E+04 -2.97851E+04 -4.10940E+03 -1.75148E+04 -1.11414E+04
 -6.79229E+03 -1.23453E+04 -1.47504E+03 -1.78157E+04  6.91135E+03 -2.29167E+04  1.60189E+04 -1.25702E+04
  1.10424E+04  4.79719E+03 -8.06488E+03  1.34442E+04 -2.09357E+04 -2.84657E+03 -7.54134E+03 -3.23565E+04
  2.23577E+04 -4.32926E+04  4.77315E+04 -2.02871E+04  4.54771E+04  1.92473E+04  1.52963E+04  4.39849E+04
 -1.50199E+04  3.36237E+04 -2.41135E+04  1.22545E+03 -8.55529E+03 -2.75694E+04  2.11148E+04 -3.42330E+04
  4.06360E+04 -9.24271E+03  3.49551E+04  2.42120E+04  1.74322E+04  4.68944E+04 -8.68081E+03  4.94651E+04
 -3.22724E+04  3.36424E+04 -4.31793E+04  8.95335E+03 -4.27464E+04 -1.71645E+04 -2.31889E+04 -3.81741E+04
  7.91404E+03 -3.72264E+04  3.09031E+04 -1.57440E+04  2.89607E+04  1.08117E+04  3.84539E+03  1.87080E+04
 -1.42303E+04  9.27622E+03 -1.11162E+04 -6.64408E+03  4.90542E+03 -1.16724E+04  1.67086E+04  5.73939E+03
  1.19879E+04  2.19870E+04 -5.90468E+03  2.57942E+04 -2.29215E+04  1.23964E+04 -2.78433E+04 -5.11465E+03
 -2.07257E+04 -1.77743E+04 -8.46984E+03 -2.08294E+04  3.13932E+03 -2.00700E+04  1.51983E+04 -1.95122E+04
  2.63295E+04 -1.20943E+04  3.19790E+04  1.71936E+03  2.25015E+04  2.07252E+04  5.53456E+03  3.54350E+04
 -1.68482E+04  2.99682E+04 -2.73571E+04  1.12878E+04 -2.02962E+04 -1.16519E+04 -3.64525E+03 -1.26144E+04
  2.55212E+03 -2.37222E+03 -4.54801E+03  7.16418E+03 -1.56759E+04  6.28542E+03 -1.69705E+04 -5.85360E+03
 -9.32554E+03 -1.84157E+04  5.10701E+03 -2.48031E+04  1.51515E+04 -1.69834E+04  1.82723E+04 -1.50082E+03
  1.22554E+04  1.26178E+04 -1.66470E+03  1.84966E+04 -1.27708E+04  1.00361E+04 -1.86944E+04 -5.74844E+03
 -1.44854E+04 -1.74369E+04 -1.02479E+03 -2.29265E+04  1.09413E+04 -1.83918E+04  1.90109E+04 -9.30149E+03
  1.87020E+04  7.35008E+02  1.22033E+04  5.49770E+03  7.14062E+03  7.65718E+02  1.02829E+04 -1.50590E+03
  1.61192E+04  1.83524E+03  1.91242E+04  1.42059E+04  1.23330E+04  2.96250E+04 -2.98698E+03  3.23786E+04
 -2.08707E+04  2.67751E+04 -3.11063E+04  1.32833E+04 -3.31989E+04 -2.07605E+03 -2.63385E+04 -1.77657E+04
 -1.21007E+04 -2.66125E+04  1.00005E+04 -2.44554E+04  2.10646E+04 -1.16993E+04  1.94298E+04  6.52093E+03
  7.44223E+03  1.39510E+04 -8.95106E+03  1.27398E+04 -1.55280E+04  3.14703E+03 -1.27672E+04 -1.01900E+04
  1.34402E+02 -1.56904E+04  7.50464E+03 -1.18507E+04  8.78405E+03 -2.22417E+03  2.49335E+03  5.25515E+03
 -8.16619E+03  8.54260E+02 -5.85311E+03 -5.29507E+03 -1.41989E+03 -1.25583E+04  1.00900E+04 -1.34480E+04
  1.56794E+04 -7.12803E+03  1.68364E+04  3.05455E+03  1.39861E+04  1.27243E+04  6.73734E+03  1.92333E+04
 -3.15245E+03  2.27790E+04 -1.30095E+04  1.39796E+04 -1.48613E+04  3.45667E+03 -1.20417E+04 -2.23482E+03
 -5.43248E+03 -4.00871E+03 -2.14114E+03  6.14165E+02 -1.84201E+03  2.78428E+03 -5.13730E+03  3.56453E+03
 -1.09159E+04 -6.69911E+02 -1.08929E+04 -1.00967E+04 -4.78631E+03 -1.54270E+04  4.64902E+03 -1.20058E+04
  9.29938E+03 -4.52367E+03  6.08739E+03  2.86562E+03  6.15166E+02  4.82673E+03 -4.03946E+03  4.73228E+02
 -5.94417E+03 -7.12303E+03 -1.14988E+03 -1.04361E+04  5.16597E+03 -1.15236E+04  1.48166E+04 -5.82142E+03
  1.51588E+04  1.20609E+03  1.27081E+04  9.60966E+03  2.62229E+03  1.16638E+04 -6.75938E+03  1.11366E+04
 -9.66286E+03  3.28066E+03 -4.72374E+03 -3.00216E+03  1.90185E+03 -2.65910E+03  5.07254E+03 -6.71173E+02
  5.42571E+03  4.95279E+03  1.14454E+02  8.74144E+03 -5.92358E+03  8.48026E+03 -1.04866E+04  2.63639E+03
 -6.51308E+03 -6.03568E+03 -1.01831E+03 -8.15452E+03  5.39166E+03 -4.08042E+03  6.17960E+03  1.69569E+03
  8.66599E+02  5.53746E+03 -4.70258E+03  7.64027E+03 -8.49332E+03  2.24444E+03 -7.89148E+03 -3.28500E+03
 -5.30527E+03 -9.35699E+03  1.66677E+03 -1.09266E+04  8.91146E+03 -7.98414E+03  9.78389E+03  1.79414E+03
  6.38101E+03  8.29814E+03  1.94971E+02  9.02614E+03 -6.04246E+03  5.86246E+03 -9.10451E+03 -1.58024E+03
 -8.39007E+03 -7.37208E+03 -2.02771E+03 -7.94404E+03  3.07854E+03 -7.38736E+03  4.75239E+03 -3.69315E+03
  3.61617E+03  3.90325E+02 -1.30248E+03  1.36646E+03  1.94643E+02 -1.27285E+03  1.45510E+03 -3.37130E+03
  5.69273E+03 -2.80155E+03  8.70792E+03  8.21816E+02  9.51749E+03  5.31934E+03  7.35129E+03  1.22102E+04
 -2.98586E+03  1.29572E+04 -1.22805E+04  1.12151E+04 -1.50879E+04  2.27048E+03 -1.14847E+04 -4.87944E+03
 -6.86312E+03 -9.31800E+03 -1.21220E+03 -8.55811E+03  2.75937E+03 -4.87276E+03  2.78940E+03 -2.15057E+03
  1.86349E+03 -1.82880E+03  3.64743E+03 -2.93008E+03  5.06468E+03 -3.41124E+03  5.05127E+03 -1.74106E+02
  5.73986E+03  1.87282E+03  1.61200E+03  5.31884E+03 -2.29800E+02  4.79561E+03 -6.89124E+03  4.65539E+03
 -7.86450E+03 -1.97081E+03 -4.92567E+03 -5.01374E+03  2.55263E+02 -8.85626E+03  5.24513E+03 -9.15214E+03
  8.26838E+03 -4.08487E+03  1.21642E+04  5.09552E+02  7.66311E+03  7.50290E+03  9.47061E+02  9.78452E+03
 -5.00224E+03  8.68335E+03 -5.21017E+03  2.59719E+03 -3.80258E+03 -1.86083E+02 -1.14961E+03 -1.38401E+03
 -1.73100E+03  6.07997E+02 -1.54423E+03  1.31593E+03 -2.89960E+03  1.01012E+03 -5.61049E+03 -2.35964E+02
 -3.52329E+03 -5.07650E+03  5.61863E+02 -7.60271E+03  3.58790E+03 -6.92853E+03  7.30341E+03 -1.15410E+03
  7.25200E+03  3.52565E+03  3.52160E+03  7.15948E+03 -8.03740E+02  7.31989E+03 -5.33822E+03  6.06315E+03
 -5.97857E+03  1.80570E+03 -4.77390E+03 -3.58376E+03  1.35776E+02 -6.17752E+03  2.10227E+03 -4.82067E+03
  5.72866E+03 -1.26588E+03  3.18687E+03  4.77455E+02  1.49752E+03  2.38399E+03  6.59731E+02  4.43539E+02
  1.25303E+03  1.40937E+02  1.22596E+03  8.15928E+02  2.55897E+03  3.50686E+03  2.51679E+03  3.60121E+03
 -2.38895E+03  6.27737E+03 -4.88968E+03  5.23061E+03 -5.97123E+03  2.29375E+03 -8.17726E+03 -5.75631E+02
 -2.00695E+03 -7.38715E+03  4.15140E+02 -7.38301E+03  3.83578E+03 -5.44793E+03  5.50313E+03 -2.75387E+03
  5.01611E+03  2.72985E+03  5.88723E+02  3.90935E+03 -1.17447E+03  2.85148E+03 -3.06883E+03  5.83121E+01
 -5.81545E+02 -4.19470E+03  6.03714E+01 -2.80052E+03  3.22445E+03 -9.68562E+02  2.76799E+03  1.57892E+03
  8.80406E+02  1.31598E+03  1.13522E+03  1.47958E+02 -9.80893E+02  5.83637E+02  1.13264E+03 -3.29553E+02
  1.05485E+03  5.32856E+02  2.18635E+03  1.62134E+03  1.46192E+03  4.18387E+03 -9.46953E+02  5.49576E+03
 -3.21382E+03  2.56778E+03 -3.34608E+03  5.12537E+02 -3.61982E+03 -1.67721E+03 -1.03610E+03 -2.16668E+03
  8.30042E+02 -2.45811E+03  1.98888E+03 -1.09644E+03  7.71825E+02  1.72410E+03 -8.73458E+02  7.85702E+02
 -3.11947E+03  1.26205E+03 -2.32268E+03 -2.09007E+03 -1.11322E+03 -3.38371E+03 -2.08739E+02 -2.96217E+03
  1.74756E+03 -1.60242E+03  1.82572E+03 -1.31553E+01  3.01736E+03  1.19176E+03  4.54425E+02  1.83013E+03
 -1.49482E+03  7.12626E+02 -2.90390E+03 -8.91844E+02  9.44773E+02 -2.28765E+03  3.49684E+03 -1.83829E+03
  3.32148E+03  4.22151E+02  4.04224E+03  2.46159E+03 -5.04446E+02  4.15225E+03 -1.58312E+03  4.94904E+03
 -3.16843E+03  7.32587E+02 -3.45306E+03  1.05692E+03 -2.17190E+03 -1.18187E+03  1.51286E+02 -2.69118E+03
  2.56012E+03 -3.87423E+02  1.83263E+03  1.48551E+03  7.83233E+02  2.78762E+03  3.75806E+02  2.19785E+03
 -1.20758E+03  1.70902E+03 -1.95725E+03 -7.30567E+02 -7.72739E+02  4.81763E+02  1.17587E+03  9.96478E+02
  2.30813E+02  1.87440E+03 -1.63435E+03  5.70458E+02 -3.77550E+03 -3.28280E+02 -3.86158E+03 -1.78823E+03
 -2.18917E+03 -4.56695E+03  1.21174E+03 -6.32022E+03  2.73737E+03 -4.35272E+03  5.43049E+03 -1.27849E+03
  4.75633E+03  4.62575E+02  1.74669E+03  2.76740E+03 -9.13691E+02  2.19726E+03 -1.46622E+03  3.41774E+03
 -2.49401E+03  1.35191E+03  5.32361E+02  2.07250E+02 -2.73883E+02 -6.80291E+02 -1.69290E+03  1.07899E+02
 -2.23383E+02  7.45726E+02 -4.65613E+02 -6.19003E+01 -4.42259E+02 -5.88664E+02 -2.55387E+01 -1.82494E+03
  8.98075E+02 -1.76447E+03  1.56055E+03  4.34640E+02  1.10545E+03  2.88578E+03 -7.92206E+02  3.92748E+03
 -2.36774E+03  3.81282E+03 -3.07538E+03  2.92090E+03 -3.46570E+03 -1.34895E+03 -1.66446E+03 -3.13029E+03
 -1.30081E+03 -2.75654E+03  5.60554E+02 -2.28797E+03  2.01498E+03 -2.64543E+03  1.54042E+03  2.77785E+02
  1.02743E+03  1.17393E+02 -5.07372E+02  2.50145E+02  4.75273E+02  1.07076E+03  1.33447E+02 -8.32050E+01
  6.34628E+02 -5.86245E+02  5.02743E+02 -9.24122E+01  6.86343E+02  1.20030E+03  1.63919E+03  2.21569E+03
 -1.39143E+03  2.13992E+02 -1.61502E+03  5.52681E+02 -1.36984E+03 -1.01092E+03 -3.40707E+01 -3.30533E+03
  2.08115E+03 -2.44913E+03  2.09396E+03 -6.50045E+02  3.04424E+03 -1.03583E+02  1.09424E+03  2.07242E+03
  7.25306E+02  1.33054E+03 -4.28337E+02 -3.32522E+01 -1.50966E+03  7.95899E+02 -1.42468E+03  7.17696E+01
  1.51011E+02  9.59649E+02 -3.31866E+02 -6.84648E+02 -2.48381E+03 -4.22750E+02 -1.65118E+03  1.27337E+02
 -1.45348E+03  4.14712E+02 -2.56167E+02 -1.18931E+03  4.66941E+02 -2.96891E+03  1.03333E+03 -6.36227E+02
  1.16837E+03 -8.88214E+02 -1.71867E+02  9.09538E+02  1.62081E+02  1.14722E+03 -1.13243E+03  1.42264E+03
