 $NMID ID='MM_0lb_SNR200_12hz_g50_20.RAW', FMTDAT='(8E13.5)'
 TRAMP=1., VOLUME=1. $END
  3.09781E+05  5.16022E+02  3.38177E+05  2.51058E+05  8.43354E+04  3.38325E+05 -1.33025E+05  2.50851E+05
 -1.90588E+05  8.33982E+04 -1.11994E+05 -3.35258E+04  4.82657E+02 -5.04399E+04  5.35840E+04  3.86430E+02
  3.56677E+04  5.29341E+04 -1.68422E+04  7.61025E+04 -6.06462E+04  6.43666E+04 -8.40023E+04  3.28572E+04
 -8.17223E+04 -1.18448E+04 -5.76861E+04 -5.04060E+04 -1.44613E+04 -7.16779E+04  2.84921E+04 -4.55164E+04
  4.10785E+04  4.17988E+03  1.56771E+04  4.80003E+04 -3.46385E+04  4.69635E+04 -6.78752E+04 -2.82987E+02
 -5.29755E+04 -5.74350E+04 -7.15866E+03 -7.83336E+04  3.50992E+04 -5.51785E+04  4.78866E+04 -1.67901E+04
  4.37095E+04  1.14803E+04  3.17526E+04  2.70452E+04  1.69163E+04  2.95691E+04 -6.09583E+03  2.81838E+04
 -2.40277E+04  1.08160E+04 -1.85960E+04 -5.70272E+03  6.26928E+03 -7.27492E+03  2.32216E+04  1.34793E+04
  8.25267E+03  3.68616E+04 -3.28314E+04  3.59618E+04 -6.30132E+04  2.14426E+03 -5.76365E+04 -4.35264E+04
 -1.19471E+04 -6.36893E+04  4.09356E+04 -4.46025E+04  5.88796E+04 -2.84614E+03  3.51640E+04  3.23832E+04
 -6.60694E+03  3.59094E+04 -3.08552E+04  1.76337E+04 -3.15382E+04 -3.77341E+03 -1.77304E+04 -1.25209E+04
 -9.06699E+03 -1.53070E+04 -3.54665E+02 -1.88624E+04  9.67859E+03 -2.37166E+04  1.53013E+04 -1.25016E+04
  1.00863E+04  5.51239E+03 -9.83805E+03  1.30670E+04 -2.26365E+04 -5.46446E+03 -7.23140E+03 -3.56051E+04
  2.43498E+04 -4.55358E+04  5.01380E+04 -2.18666E+04  4.63635E+04  2.06379E+04  1.65144E+04  4.50866E+04
 -1.59024E+04  3.46280E+04 -2.53301E+04  9.50538E+01 -1.11733E+04 -2.75649E+04  1.97786E+04 -3.46461E+04
  4.20029E+04 -8.94003E+03  3.75444E+04  2.54648E+04  1.82761E+04  4.78493E+04 -8.55810E+03  5.24916E+04
 -3.31838E+04  3.59697E+04 -4.40101E+04  8.84754E+03 -4.54324E+04 -1.66695E+04 -2.38347E+04 -3.91028E+04
  7.80077E+03 -4.08815E+04  3.24439E+04 -1.45190E+04  2.99109E+04  9.22196E+03  4.42166E+03  1.93029E+04
 -1.29205E+04  1.01284E+04 -1.07482E+04 -6.38762E+03  5.87966E+03 -1.14928E+04  1.80131E+04  5.17196E+03
  1.40673E+04  2.06522E+04 -5.70312E+03  2.62740E+04 -2.29470E+04  1.41643E+04 -2.99943E+04 -4.72289E+03
 -2.27851E+04 -1.82724E+04 -1.00288E+04 -2.15734E+04  2.90291E+03 -2.08588E+04  1.72286E+04 -2.12989E+04
  2.78431E+04 -1.49659E+04  3.25930E+04  4.14336E+03  2.51132E+04  2.18073E+04  4.52620E+03  3.88354E+04
 -1.91897E+04  3.33869E+04 -2.97366E+04  1.21323E+04 -2.28144E+04 -9.55324E+03 -5.44142E+03 -1.37594E+04
  9.72825E+02 -2.28089E+03 -6.64327E+03  7.68840E+03 -1.99521E+04  4.86572E+03 -1.90839E+04 -8.59480E+03
 -1.18494E+04 -2.10698E+04  4.87391E+03 -2.55421E+04  1.71726E+04 -1.64210E+04  2.01657E+04 -8.20044E+02
  1.20081E+04  1.45038E+04 -2.00739E+03  1.97254E+04 -1.49748E+04  1.16669E+04 -2.12697E+04 -2.83234E+03
 -1.55437E+04 -1.85654E+04 -1.19632E+03 -2.42265E+04  1.11219E+04 -2.18097E+04  1.99578E+04 -1.09422E+04
  1.94149E+04  8.59656E+02  1.38832E+04  3.89668E+03  7.17729E+03  3.14871E+02  9.41674E+03 -1.85902E+03
  1.89947E+04  2.55922E+03  2.07052E+04  1.58783E+04  1.42401E+04  3.23103E+04 -2.81696E+03  4.04043E+04
 -2.04355E+04  3.16591E+04 -3.70275E+04  1.52559E+04 -3.79257E+04 -3.34831E+03 -3.05086E+04 -2.08699E+04
 -1.19316E+04 -3.12243E+04  1.08403E+04 -2.87034E+04  2.30799E+04 -1.25780E+04  2.06351E+04  4.56339E+03
  6.47421E+03  1.56777E+04 -1.01175E+04  1.30767E+04 -1.76968E+04  2.62629E+03 -1.32884E+04 -1.34217E+04
 -6.84447E+02 -1.69980E+04  8.74519E+03 -1.27169E+04  1.14063E+04 -9.26007E+02  4.15577E+03  5.82002E+03
 -7.86011E+03  3.82628E+03 -7.34357E+03 -6.10508E+03 -1.54138E+03 -1.53692E+04  1.09373E+04 -1.57612E+04
  1.77483E+04 -8.19086E+03  2.06363E+04  2.58009E+03  1.90401E+04  1.54398E+04  9.16180E+03  2.35721E+04
 -3.37117E+03  2.64326E+04 -1.71275E+04  1.71261E+04 -1.83420E+04  4.28603E+03 -1.37653E+04 -4.34126E+03
 -6.78924E+03 -7.44309E+03 -1.14940E+03 -4.24279E+02 -2.07277E+03  2.43187E+03 -6.48044E+03  3.73843E+03
 -1.16074E+04 -9.18235E+02 -1.16748E+04 -8.96850E+03 -4.16380E+03 -1.66132E+04  5.49311E+03 -1.25092E+04
  9.78497E+03 -5.76460E+03  7.05628E+03  2.59286E+03 -5.75138E+02  5.27169E+03 -5.11193E+03 -1.49542E+03
 -5.23733E+03 -7.90226E+03 -1.36823E+03 -1.24202E+04  6.73362E+03 -1.13305E+04  1.64193E+04 -5.89258E+03
  2.02978E+04  1.41192E+03  1.33811E+04  1.09754E+04  4.12329E+03  1.56679E+04 -8.89753E+03  1.35083E+04
 -1.05393E+04  4.65844E+03 -5.46309E+03 -2.53017E+03  1.14420E+03 -2.73474E+03  7.62479E+03 -9.32980E+02
  6.02931E+03  4.63452E+03  9.07806E+02  1.12947E+04 -6.90859E+03  1.02832E+04 -1.28176E+04  3.49410E+03
 -8.19128E+03 -5.21924E+03  5.29231E+01 -1.07516E+04  7.32639E+03 -5.55314E+03  7.13739E+03  2.25331E+03
  1.31757E+03  7.02882E+03 -8.07909E+03  9.05540E+03 -9.97507E+03  3.33749E+03 -9.75982E+03 -4.27976E+03
 -6.20037E+03 -1.20908E+04  2.20397E+03 -1.38468E+04  1.17092E+04 -7.89594E+03  1.28709E+04  1.92571E+03
  7.00984E+03  1.01217E+04  9.82533E+02  1.14611E+04 -8.06380E+03  7.54672E+03 -9.83783E+03 -8.47767E+02
 -9.00435E+03 -7.62953E+03 -9.07882E+02 -1.03674E+04  4.50498E+03 -8.11792E+03  4.99375E+03 -3.56874E+03
  3.26417E+03  1.24105E+03 -8.32449E+02  1.50579E+03  7.03068E+02 -1.92108E+03  1.29149E+03 -5.33480E+03
  8.27329E+03 -3.38849E+03  1.18555E+04  4.82471E+02  1.09133E+04  5.91476E+03  8.47872E+03  1.53238E+04
 -4.12283E+03  1.79839E+04 -1.42732E+04  1.37756E+04 -2.05345E+04  2.75145E+03 -1.76702E+04 -6.13980E+03
 -7.29786E+03 -1.18750E+04  4.73118E+02 -1.21229E+04  4.11420E+03 -6.06860E+03  4.45811E+03 -3.97095E+03
  1.98649E+03 -3.32908E+03  1.17101E+03 -4.43376E+03  5.95536E+03 -3.00178E+03  6.17459E+03 -3.93720E+02
  8.39083E+03  2.54851E+03  3.34904E+03  6.62740E+03 -2.89617E+03  6.97476E+03 -9.28950E+03  6.48728E+03
 -1.00454E+04 -1.55192E+03 -7.71984E+03 -6.50399E+03 -6.41222E+02 -1.26273E+04  7.73570E+03 -1.07488E+04
  1.27343E+04 -6.64809E+03  1.58136E+04  3.39343E+02  9.09387E+03  1.01253E+04  1.66095E+03  1.17704E+04
 -5.82387E+03  9.33688E+03 -8.03936E+03  3.09827E+03 -5.51313E+03 -2.90366E+03 -2.12170E+03 -2.21121E+03
 -4.83445E+02  5.18775E+01 -1.60026E+03  3.75322E+03 -3.97132E+03  2.17299E+03 -7.53058E+03 -1.88451E+03
 -3.56579E+03 -6.70945E+03  1.79240E+02 -1.13228E+04  5.57601E+03 -9.70373E+03  9.07039E+03 -2.38865E+03
  1.00722E+04  5.09531E+03  4.45140E+03  9.58541E+03 -2.70794E+03  9.80733E+03 -7.30112E+03  6.71511E+03
 -1.00985E+04  5.27186E+02 -7.98868E+03 -6.78513E+03 -1.93917E+03 -8.62608E+03  4.59303E+03 -6.57037E+03
  6.79358E+03 -1.91548E+03  3.60585E+03  2.89528E+03  2.50336E+03  2.91325E+03  1.45834E+03  1.30471E+03
  2.05415E+03  9.81016E+02  3.62976E+03  2.01710E+03  3.71892E+03  2.88154E+03  2.61730E+03  5.35497E+03
 -1.57722E+03  1.00261E+04 -7.05082E+03  8.40346E+03 -9.78759E+03  2.25618E+03 -1.12227E+04 -5.11917E+03
 -4.18747E+03 -1.04764E+04  1.80639E+03 -1.11279E+04  5.26820E+03 -8.19241E+03  7.85020E+03 -3.42778E+03
  5.19151E+03  4.57627E+03  1.55801E+03  5.74651E+03 -3.80841E+03  3.58562E+03 -3.87192E+03  9.53779E+02
 -3.19115E+03 -2.97213E+03  2.98842E+03 -4.30309E+03  3.71908E+03 -2.54487E+03  2.95976E+03  1.01186E+03
  1.86784E+03  1.86623E+03 -4.85291E+02  2.10500E+03 -2.12665E+03  1.60328E+03  1.42363E+03  9.20733E+02
  2.19373E+03  5.22029E+02  4.65672E+03  9.72970E+02  2.52596E+03  5.84222E+03 -1.50097E+03  7.61564E+03
 -4.24611E+03  3.81406E+03 -6.73928E+03  7.92174E+02 -5.00452E+03 -1.37450E+03 -4.12895E+02 -3.54048E+03
  1.91519E+03 -3.90895E+03  2.71720E+03 -1.56118E+03  1.95825E+03  2.85364E+03 -1.85362E+03  3.16259E+03
 -3.56578E+03  2.56851E+03 -4.14776E+03 -3.27720E+03 -3.53456E+03 -3.74460E+03  1.05867E+03 -4.56087E+03
  2.42655E+03 -2.70505E+03  3.63113E+03  4.30575E+01  2.30205E+03  4.83315E+02  6.57913E+02  1.84915E+03
 -1.55506E+03  9.93416E+02 -4.35783E+03 -1.03860E+03  1.87517E+03 -3.01994E+03  5.00811E+03 -3.65806E+03
  6.89733E+03 -1.02146E+02  5.32786E+03  3.68159E+03  1.32756E+03  5.58089E+03 -1.17861E+03  5.53384E+03
 -5.44171E+03  2.63310E+03 -5.64694E+03  1.32977E+01 -3.44987E+03 -4.79503E+03  7.42589E+02 -3.12104E+03
  2.13939E+03 -2.54281E+03  2.93733E+03  6.29010E+02 -7.26154E+01  3.43793E+03 -4.04234E+02  2.37547E+03
 -2.02710E+03  5.83611E+02 -1.26626E+03  3.19390E+02 -5.62890E+02  8.04184E+02 -8.54305E+02  1.12604E+03
 -1.58068E+03  1.43899E+03 -4.11050E+03  1.11955E+03 -5.58684E+03  4.41227E+02 -5.85671E+03 -3.33006E+03
 -3.01668E+03 -6.76023E+03  2.48602E+03 -9.48044E+03  6.06422E+03 -6.45337E+03  8.87829E+03 -2.71487E+03
  8.40152E+03  1.77215E+03  4.92657E+03  6.28532E+03 -1.38497E+03  3.69759E+03 -3.44280E+03  3.93050E+03
 -2.31428E+03  3.13860E+03 -3.21271E+03 -4.91220E+02 -2.96964E+02 -1.01774E+02 -1.29050E+03  6.23836E+02
 -2.59490E+03  1.66519E+03 -1.82268E+03 -6.36636E+02 -6.64097E+02 -2.60640E+03  7.03276E+02 -3.12451E+03
  2.83003E+03 -2.86399E+03  3.91163E+03 -1.00017E+03  4.45563E+03  3.73112E+03  7.56244E+02  6.50886E+03
 -3.08941E+03  6.85203E+03 -8.11398E+03  3.84873E+03 -7.38012E+03  2.16216E+02 -5.90731E+03 -5.14873E+03
 -2.19344E+03 -6.08049E+03  1.17076E+03 -4.83479E+03  3.45029E+03 -2.54554E+03  5.00632E+03  5.38019E+02
  1.15837E+03  1.50013E+03  3.16009E+02  2.36656E+03 -2.04742E+03  7.25704E+02 -1.90677E+03 -2.97762E+03
  2.11761E+03  8.96651E+02  3.20362E+03  1.82109E+02  1.85588E+03  3.04700E+03  1.21549E+03  2.45367E+03
 -2.42645E+03  2.22113E+03 -3.87056E+03  1.95041E+02 -2.19508E+03 -3.12259E+03 -1.33464E+03 -4.52816E+03
  1.83212E+03 -2.79113E+03  5.01982E+03 -6.01063E+02  4.12922E+03  5.74849E+02  3.41622E+03  4.31240E+03
  1.41828E+03  2.22646E+03 -2.35269E+03  3.74146E+03 -1.48721E+03  3.09776E+03 -1.46497E+03  5.68970E+02
 -1.25455E+03 -8.67159E+02 -3.30518E+02  8.33628E+02 -1.30248E+03 -3.26306E+02 -2.83799E+03 -1.27212E+03
 -3.22433E+03 -2.19676E+03 -1.80461E+03 -3.82141E+03  1.77849E+03 -3.10450E+03  3.21321E+03 -1.44254E+03
  4.67127E+03  4.65030E+02  2.56772E+03  2.28114E+03 -1.00724E+02  3.66090E+03 -2.37376E+03  2.52235E+03
