 $NMID ID='MM_0lb_SNR200_16hz_g60_19.RAW', FMTDAT='(8E13.5)'
 TRAMP=1., VOLUME=1. $END
  3.09692E+05  1.08598E+03  3.38391E+05  2.49999E+05  8.51431E+04  3.38108E+05 -1.32398E+05  2.51834E+05
 -1.90951E+05  8.30691E+04 -1.10478E+05 -3.30399E+04  5.52677E+02 -5.03488E+04  5.45916E+04 -8.89438E+02
  3.57596E+04  5.27602E+04 -1.71154E+04  7.53361E+04 -6.08086E+04  6.34477E+04 -8.46317E+04  3.25550E+04
 -8.02165E+04 -1.22047E+04 -5.75391E+04 -5.09355E+04 -1.38036E+04 -7.02229E+04  2.68385E+04 -4.49392E+04
  3.99211E+04  3.65507E+03  1.64626E+04  4.69943E+04 -3.38270E+04  4.59456E+04 -6.80203E+04 -2.85728E+02
 -5.29744E+04 -5.67378E+04 -7.84459E+03 -7.85433E+04  3.41102E+04 -5.46034E+04  4.81287E+04 -1.82389E+04
  4.30975E+04  1.06572E+04  3.26999E+04  2.50222E+04  1.59858E+04  2.92058E+04 -6.21388E+03  2.64512E+04
 -2.22043E+04  1.26243E+04 -1.78730E+04 -5.33073E+03  6.05003E+03 -7.61900E+03  2.16795E+04  1.23883E+04
  7.68911E+03  3.46485E+04 -3.18547E+04  3.46982E+04 -6.46825E+04  1.39257E+03 -5.67814E+04 -4.21037E+04
 -1.26045E+04 -6.30509E+04  4.07613E+04 -4.58722E+04  5.84927E+04 -1.85511E+03  3.52583E+04  3.29392E+04
 -5.66346E+03  3.61634E+04 -2.99328E+04  1.54084E+04 -2.94872E+04 -3.92739E+03 -1.68365E+04 -1.23500E+04
 -8.38963E+03 -1.32498E+04 -1.50265E+03 -1.82408E+04  7.07358E+03 -2.36464E+04  1.58181E+04 -1.43178E+04
  1.19671E+04  4.60948E+03 -7.97103E+03  1.34551E+04 -2.07400E+04 -4.65402E+03 -8.60748E+03 -3.28332E+04
  2.31527E+04 -4.30493E+04  4.84455E+04 -1.95618E+04  4.50180E+04  2.02708E+04  1.53010E+04  4.42703E+04
 -1.60448E+04  3.31439E+04 -2.53611E+04  1.52734E+03 -9.70702E+03 -2.73617E+04  2.13540E+04 -3.39797E+04
  4.14438E+04 -9.11760E+03  3.61365E+04  2.39849E+04  1.77020E+04  4.63218E+04 -7.30541E+03  4.89604E+04
 -3.19436E+04  3.28129E+04 -4.23619E+04  8.54098E+03 -4.27612E+04 -1.53662E+04 -2.40930E+04 -3.69336E+04
  7.00150E+03 -3.70929E+04  3.08075E+04 -1.55285E+04  2.90321E+04  1.09190E+04  3.33269E+03  1.87362E+04
 -1.32379E+04  8.39881E+03 -9.25508E+03 -6.71648E+03  5.56106E+03 -9.50350E+03  1.82160E+04  6.60178E+03
  1.36777E+04  2.17189E+04 -6.25390E+03  2.42616E+04 -2.14763E+04  1.14132E+04 -2.80645E+04 -4.98145E+03
 -2.01611E+04 -1.70874E+04 -7.67494E+03 -2.06327E+04  3.51793E+03 -1.92545E+04  1.56429E+04 -1.75244E+04
  2.64798E+04 -1.27651E+04  3.21527E+04  3.31760E+03  2.37252E+04  2.01471E+04  3.51555E+03  3.64430E+04
 -1.84098E+04  3.00071E+04 -2.91262E+04  1.07265E+04 -2.08678E+04 -1.02911E+04 -4.78802E+03 -1.32533E+04
  1.52223E+03 -1.62782E+03 -4.02432E+03  7.50768E+03 -1.71033E+04  6.18233E+03 -1.60799E+04 -6.25192E+03
 -1.08649E+04 -1.76081E+04  5.71217E+03 -2.36076E+04  1.54118E+04 -1.56472E+04  1.77467E+04 -2.32834E+03
  1.12899E+04  1.41413E+04 -1.51174E+03  1.80762E+04 -1.28528E+04  1.05969E+04 -1.81711E+04 -3.80056E+03
 -1.41232E+04 -1.75035E+04 -3.25235E+03 -2.27300E+04  1.05387E+04 -1.79380E+04  1.95318E+04 -9.61180E+03
  1.69447E+04  7.51456E+02  1.29007E+04  5.07470E+03  7.21048E+03  8.42872E+02  7.89439E+03 -9.29560E+02
  1.76829E+04  2.62689E+03  1.85903E+04  1.45702E+04  1.21049E+04  3.05036E+04 -3.65633E+03  3.29299E+04
 -1.88213E+04  2.67632E+04 -3.17199E+04  1.23628E+04 -3.29503E+04 -2.04175E+03 -2.70607E+04 -1.90274E+04
 -1.04054E+04 -2.64601E+04  8.50791E+03 -2.37649E+04  2.02929E+04 -1.22661E+04  1.78143E+04  3.85299E+03
  7.75939E+03  1.51485E+04 -9.04184E+03  1.17553E+04 -1.55014E+04  2.89600E+03 -1.24234E+04 -1.00762E+04
 -2.36074E+02 -1.53989E+04  6.81528E+03 -1.02746E+04  1.06197E+04 -8.75536E+02  1.75081E+03  6.52748E+03
 -6.66771E+03  2.72668E+03 -5.24132E+03 -5.66169E+03 -6.76286E+02 -1.27575E+04  9.12564E+03 -1.26658E+04
  1.66052E+04 -7.13553E+03  1.72531E+04  2.39067E+03  1.45663E+04  1.34561E+04  7.24093E+03  1.92118E+04
 -2.86093E+03  2.09354E+04 -1.21087E+04  1.39967E+04 -1.53890E+04  3.71667E+03 -1.09952E+04 -3.39516E+03
 -4.55910E+03 -6.10376E+03 -1.44221E+03  1.25033E+02 -3.39820E+03  2.79931E+03 -4.65950E+03  3.37129E+03
 -9.64937E+03 -2.74172E+02 -1.13426E+04 -9.16682E+03 -4.92812E+03 -1.49351E+04  4.00543E+03 -1.07414E+04
  9.12154E+03 -5.38158E+03  6.55994E+03  2.70037E+03 -2.40583E+02  3.12296E+03 -4.38119E+03 -5.11419E+02
 -5.39164E+03 -5.90044E+03 -2.46951E+02 -1.07456E+04  5.37704E+03 -1.12157E+04  1.30694E+04 -4.43857E+03
  1.57052E+04  5.13157E+02  1.29452E+04  9.49194E+03  2.13355E+03  1.18172E+04 -7.01612E+03  1.10909E+04
 -8.48495E+03  2.79977E+03 -4.35986E+03 -1.62522E+03  1.03470E+03 -3.62652E+03  6.04962E+03 -9.13332E+02
  5.71021E+03  3.72838E+03  1.66673E+03  7.62387E+03 -5.13253E+03  8.12622E+03 -1.10724E+04  1.90214E+03
 -5.71193E+03 -5.65594E+03  1.06865E+03 -7.89277E+03  5.71248E+03 -3.74523E+03  4.50785E+03  1.97428E+03
  9.08907E+02  4.64281E+03 -4.07938E+03  6.15813E+03 -7.67417E+03  3.99482E+03 -6.31048E+03 -2.18236E+03
 -4.38830E+03 -9.36519E+03  1.42697E+03 -9.57542E+03  8.49129E+03 -6.17972E+03  9.45995E+03  1.48176E+03
  6.73919E+03  8.27992E+03  1.72070E+00  1.04521E+04 -6.66728E+03  5.44624E+03 -7.60356E+03 -1.33518E+03
 -6.16159E+03 -7.03120E+03 -1.34413E+03 -7.53989E+03  5.04734E+03 -7.02540E+03  2.97499E+03 -2.85978E+03
  2.69230E+03  7.85988E+02 -9.58023E+01 -6.93266E+01 -2.02109E+02 -8.35476E+02  1.30353E+03 -3.66500E+03
  5.21059E+03 -2.66571E+03  8.16405E+03  7.84662E+02  9.15270E+03  5.48193E+03  6.30362E+03  1.15909E+04
 -1.22879E+03  1.21530E+04 -1.10986E+04  1.07442E+04 -1.42730E+04  1.02951E+03 -1.17065E+04 -4.39834E+03
 -5.44189E+03 -8.27432E+03 -1.16980E+02 -6.89800E+03  3.66902E+03 -3.26569E+03  2.70444E+03 -2.38857E+03
  1.75692E+03 -1.23095E+03  2.31420E+03 -2.94637E+03  4.56847E+03 -9.70408E+02  3.98138E+03 -2.97756E+02
  5.21311E+03  1.46283E+03  2.22736E+03  5.40546E+03 -1.74591E+03  4.84106E+03 -5.62447E+03  3.95474E+03
 -8.05256E+03 -1.53042E+03 -3.91145E+03 -5.51702E+03 -3.90667E+02 -7.74690E+03  4.73584E+03 -8.15264E+03
  7.35927E+03 -4.39851E+03  1.07844E+04  2.17719E+03  6.30768E+03  6.68173E+03  6.02582E+02  9.35419E+03
 -2.54099E+03  6.97086E+03 -4.09105E+03  3.13270E+03 -3.63273E+03 -2.85646E+03 -1.47349E+03 -2.81645E+02
  1.04244E+02  4.80933E+02 -5.47599E+02  1.99038E+03 -3.72114E+03  7.26735E+02 -5.52949E+03 -1.81155E+02
 -3.74674E+03 -4.94874E+03  1.43877E+03 -6.72039E+03  4.13659E+03 -5.68403E+03  4.84730E+03 -2.22235E+03
  5.58003E+03  3.03958E+03  2.67942E+03  5.59466E+03 -1.45126E+03  7.23511E+03 -5.11223E+03  3.27742E+03
 -5.26131E+03  5.39231E+02 -5.07750E+03 -3.60673E+03 -3.67402E+02 -4.57358E+03  2.89940E+03 -4.49757E+03
  3.83541E+03 -1.65132E+03  3.96142E+03  1.60690E+03  8.00511E+02  1.66898E+03  1.70512E+03  1.26539E+03
  1.98777E+03  1.18840E+03  2.03048E+03  5.15199E+02  2.74973E+03  2.78739E+03  2.48764E+03  4.00241E+03
 -1.51867E+03  4.59223E+03 -3.86789E+03  4.77453E+03 -5.99632E+03  1.25909E+03 -6.61287E+03 -1.50419E+03
 -3.41866E+03 -6.54762E+03  1.33602E+03 -6.64242E+03  2.67345E+03 -4.37169E+03  5.57593E+03 -1.95623E+03
  3.87146E+03  1.37364E+03  4.28159E+02  2.30502E+03 -1.52923E+03  1.22534E+03 -1.86024E+03 -4.76824E+02
 -1.69156E+03 -2.43378E+03  2.71869E+03 -1.98546E+03  2.10349E+03 -1.42148E+03  1.58920E+03  1.42693E+03
  5.94814E+02  9.83040E+02  9.57659E+02  1.86894E+02 -6.38569E+02  7.76145E+02  1.85426E+03  8.94087E+02
  7.09394E+02 -3.77282E+02  2.98914E+03  1.24378E+03  6.89409E+02  3.86324E+03 -6.82567E+02  4.61019E+03
 -3.43115E+03  2.56608E+03 -3.27616E+03  4.42640E+02 -3.87737E+03 -5.32760E+02 -1.39715E+03 -6.91824E+02
  6.30953E+02 -1.90089E+03  1.26227E+03 -1.73251E+03  7.75663E+02  1.35229E+03 -1.17656E+03  2.12216E+03
 -1.47050E+03  7.20291E+02 -2.01325E+03 -1.25813E+03 -7.50674E+02 -4.07856E+03  1.82748E+03 -3.43026E+03
  1.85333E+03 -1.65796E+03  1.30754E+03  4.71473E+02  3.63254E+03  3.44680E+02  1.35913E+03  6.32923E+02
 -6.52750E+02  2.81851E+02  5.83338E+02 -5.61010E+02  4.95505E+02 -1.12379E+03  2.58074E+03 -1.72471E+03
  4.53335E+03  2.91032E+02  2.55080E+03  1.46667E+03  1.39163E+03  3.74550E+03  3.77839E+02  4.33254E+03
 -1.90734E+03  1.47595E+03 -1.51968E+03  8.64257E+02 -2.11312E+03 -8.53913E+02  7.57480E+02 -1.43345E+03
  2.21947E+03 -4.85528E+02  1.33984E+03  1.43545E+03  7.09828E+02  2.33865E+03 -6.04108E+02  2.91404E+03
  1.96098E+02  1.39721E+03  4.81118E+02  4.19382E+02  5.39315E+01  4.52553E+01 -3.12251E+02  1.96606E+03
 -9.47444E+02  1.60633E+03 -2.57951E+03  7.77077E+02 -2.47739E+03  1.29458E+02 -4.16983E+03 -4.52503E+02
 -2.01661E+03 -3.80316E+03  1.75347E+03 -5.05173E+03  2.24908E+03 -3.93760E+03  4.21279E+03 -2.04809E+03
  4.90198E+03  9.73558E+02  2.62442E+03  2.90133E+03 -2.41052E+02  2.20795E+03  3.75190E+02  1.73603E+03
 -2.02923E+03  1.27879E+03  6.75306E+00 -7.26724E+02 -9.29898E+02 -3.69627E+02 -4.93723E+02 -1.27673E+03
 -1.11502E+03 -9.99992E+02 -8.77247E+02 -2.14988E+02 -1.50289E+02 -5.11919E+02 -6.69597E+02 -1.30582E+03
  6.13898E+02 -1.56488E+02 -6.74438E+01 -1.09424E+02  1.89925E+03  2.16744E+03 -2.18157E+02  2.73369E+03
 -1.62735E+03  4.68472E+03 -2.64607E+03  1.72491E+03 -3.01366E+03 -1.05802E+03 -1.30610E+03 -7.78642E+02
 -2.11825E+03 -2.83709E+03  4.00091E+02 -1.64660E+03  1.38738E+03 -1.79078E+03  9.31285E+02  3.57770E+02
  1.56483E+03  1.32663E+03  1.12435E+01 -1.18464E+02 -1.63552E+03  6.29964E+02  7.73005E+02 -6.97120E+02
  8.14246E+02 -1.37000E+02  8.58341E+01  1.16156E+03 -8.65328E+02  1.88632E+03  2.35994E+02  7.00424E+01
 -2.46221E+02  3.65056E+02 -6.40086E+01  2.13005E+02 -4.11835E+02 -2.23944E+02  3.05855E+02 -1.42091E+03
  7.62464E+02 -9.06136E+02  7.73386E+02 -2.33324E+03  2.14393E+03 -1.01771E+01  1.60877E+03  2.79214E+03
  6.22030E+02  1.59500E+03 -8.12425E+02  7.97928E+02 -3.31268E+02 -3.22126E+02  3.52644E+02 -5.66049E+02
 -5.40601E+02  2.77694E+02 -5.98817E+02 -6.30327E+02 -1.02157E+03  6.03055E+02 -2.17885E+03 -1.38757E+02
 -1.80781E+03  1.13894E+02 -2.67131E+02 -9.78051E+02  1.98791E+03 -2.48741E+03  2.17089E+03 -5.26289E+02
  4.92170E+02  8.81740E+02  1.48321E+03  1.29922E+03 -3.98393E+02  1.55562E+03 -5.83951E+02  9.28867E+02
