 $NMID ID='MM_0lb_SNR200_18hz_g50_40.RAW', FMTDAT='(8E13.5)'
 TRAMP=1., VOLUME=1. $END
  3.09974E+05  7.49065E+02  3.37950E+05  2.50606E+05  8.42993E+04  3.37962E+05 -1.32409E+05  2.50785E+05
 -1.89642E+05  8.40901E+04 -1.09982E+05 -3.32477E+04  1.75717E+02 -5.01568E+04  5.41011E+04  6.21991E+02
  3.53389E+04  5.23973E+04 -1.68411E+04  7.44959E+04 -6.07126E+04  6.29273E+04 -8.37145E+04  3.10745E+04
 -8.06519E+04 -1.13333E+04 -5.70470E+04 -5.02187E+04 -1.57078E+04 -6.87581E+04  2.68221E+04 -4.44598E+04
  3.90566E+04  3.58575E+03  1.59317E+04  4.74392E+04 -3.48471E+04  4.52156E+04 -6.42372E+04 -6.58038E+02
 -5.24216E+04 -5.67216E+04 -6.24798E+03 -7.66393E+04  3.21216E+04 -5.40289E+04  4.73722E+04 -1.58063E+04
  4.22564E+04  1.12969E+04  3.16644E+04  2.56507E+04  1.61926E+04  2.70727E+04 -4.60656E+03  2.67276E+04
 -2.24717E+04  1.35527E+04 -1.84354E+04 -4.66529E+03  4.68955E+03 -6.79486E+03  2.07241E+04  1.09835E+04
  6.59302E+03  3.33714E+04 -3.05034E+04  3.49765E+04 -6.25768E+04  1.55744E+03 -5.52237E+04 -4.28183E+04
 -1.29768E+04 -6.13928E+04  3.69581E+04 -4.33662E+04  5.57586E+04 -1.42371E+03  3.26865E+04  3.25073E+04
 -5.93929E+03  3.37833E+04 -2.84653E+04  1.45589E+04 -2.88959E+04 -5.49076E+03 -1.43903E+04 -1.04642E+04
 -7.44043E+03 -1.17879E+04  1.87992E+02 -1.59917E+04  7.04161E+03 -2.23784E+04  1.53959E+04 -1.43243E+04
  1.22916E+04  3.78488E+03 -6.43841E+03  1.31453E+04 -1.94382E+04 -3.24866E+03 -7.05247E+03 -3.10477E+04
  2.14004E+04 -4.13458E+04  4.55355E+04 -1.97303E+04  4.23080E+04  1.88214E+04  1.33629E+04  4.25381E+04
 -1.40442E+04  3.20061E+04 -2.37799E+04  1.68385E+03 -7.48054E+03 -2.64883E+04  2.03797E+04 -3.16712E+04
  3.91604E+04 -7.68777E+03  3.32921E+04  2.30029E+04  1.56150E+04  4.41621E+04 -6.36521E+03  4.55711E+04
 -2.84124E+04  3.10168E+04 -3.84071E+04  7.78460E+03 -3.87657E+04 -1.49585E+04 -2.25306E+04 -3.47302E+04
  7.29816E+03 -3.49591E+04  2.91285E+04 -1.33221E+04  2.77173E+04  1.04173E+04  2.53411E+03  1.84606E+04
 -1.35462E+04  7.43705E+03 -9.59232E+03 -7.53230E+03  4.97342E+03 -1.07207E+04  1.78962E+04  5.79104E+03
  1.27568E+04  2.03539E+04 -6.68592E+03  2.37301E+04 -2.24797E+04  8.95653E+03 -2.57154E+04 -5.31511E+03
 -1.70083E+04 -1.69735E+04 -7.10123E+03 -1.76454E+04  3.60617E+03 -1.63293E+04  1.31710E+04 -1.50425E+04
  2.23968E+04 -1.25189E+04  2.81516E+04  2.54817E+03  2.07461E+04  1.72816E+04  4.74586E+03  3.26870E+04
 -1.66730E+04  2.79411E+04 -2.51790E+04  9.11009E+03 -1.96853E+04 -1.02768E+04 -4.38985E+03 -1.40071E+04
  2.89158E+03 -2.97921E+03 -2.26758E+03  4.98442E+03 -1.44927E+04  5.54370E+03 -1.35312E+04 -4.24174E+03
 -7.83461E+03 -1.64077E+04  6.06071E+03 -1.90718E+04  1.33511E+04 -1.41355E+04  1.57627E+04 -9.25360E+02
  1.05717E+04  1.10748E+04 -1.74585E+02  1.69186E+04 -1.03966E+04  8.71179E+03 -1.72746E+04 -4.29941E+03
 -1.18197E+04 -1.50550E+04 -1.11683E+03 -2.03829E+04  9.23744E+03 -1.58641E+04  1.67300E+04 -7.77436E+03
  1.54548E+04  1.44836E+03  9.65973E+03  4.33065E+03  5.36650E+03  1.28020E+03  8.79789E+03 -2.81011E+03
  1.52017E+04  1.99371E+03  1.50814E+04  1.29768E+04  9.71166E+03  2.55961E+04 -3.70357E+03  2.75198E+04
 -1.51928E+04  2.14311E+04 -2.49588E+04  1.14737E+04 -2.60944E+04 -2.28115E+03 -2.31482E+04 -1.65174E+04
 -1.00559E+04 -2.10867E+04  7.19191E+03 -1.89728E+04  1.78648E+04 -1.16341E+04  1.56936E+04  4.50711E+03
  6.42504E+03  1.22896E+04 -6.54900E+03  1.11248E+04 -1.43416E+04  2.81785E+03 -1.11596E+04 -7.72170E+03
  2.00699E+02 -1.37813E+04  6.34353E+03 -8.85219E+03  7.99973E+03 -1.03734E+03  1.50426E+03  5.36288E+03
 -5.04797E+03  1.68447E+03 -3.39494E+03 -4.56266E+03 -2.41497E+01 -1.09630E+04  6.58453E+03 -1.05620E+04
  1.30027E+04 -4.27071E+03  1.28343E+04  2.93002E+03  1.12610E+04  8.70635E+03  5.70357E+03  1.54603E+04
 -2.57199E+03  1.67836E+04 -1.01173E+04  1.12729E+04 -1.13843E+04  3.07982E+03 -8.62861E+03 -1.53385E+03
 -4.72178E+03 -3.73313E+03 -5.46657E+02  1.90515E+03 -3.14688E+03  2.08431E+03 -4.94225E+03  4.85743E+03
 -8.64507E+03 -8.09347E+02 -9.71308E+03 -7.10039E+03 -3.31846E+03 -1.15050E+04  3.20475E+03 -9.17547E+03
  7.74107E+03 -4.41827E+03  5.06646E+03  1.89474E+03  2.47899E+02  3.93053E+03 -4.79080E+03 -1.73722E+02
 -4.14871E+03 -5.91737E+03 -1.59445E+03 -8.34859E+03  4.42688E+03 -8.84960E+03  1.04420E+04 -4.78377E+03
  1.23497E+04  1.18281E+03  1.00304E+04  6.08501E+03  1.99928E+03  9.69483E+03 -5.18113E+03  8.65003E+03
 -8.05650E+03  2.31678E+03 -3.33073E+03 -9.08554E+02  1.34794E+03 -3.05378E+03  6.12534E+03 -1.40959E+03
  5.05688E+03  3.74104E+03  1.10110E+03  6.93830E+03 -4.93909E+03  7.03325E+03 -7.07672E+03  1.96851E+03
 -3.95522E+03 -3.68492E+03  4.67410E+02 -6.99683E+03  3.73308E+03 -1.95562E+03  4.15242E+03  1.51819E+02
 -1.73066E+02  3.35300E+03 -4.12472E+03  4.22391E+03 -5.08936E+03  2.18809E+03 -5.40674E+03 -1.26380E+03
 -2.33292E+03 -6.57600E+03  1.14211E+03 -7.70532E+03  6.63795E+03 -4.24876E+03  7.13927E+03  7.27019E+02
  4.62765E+03  6.36795E+03  7.75852E+02  7.00447E+03 -4.86815E+03  4.57780E+03 -5.33225E+03 -8.25872E+01
 -5.66159E+03 -5.68401E+03 -1.75970E+03 -6.08735E+03  3.12310E+03 -5.31451E+03  2.66847E+03 -2.15138E+03
  3.66722E+03  2.15958E+02  4.06115E+02  7.48487E+02 -1.27090E+02 -1.24619E+03 -5.85692E+02 -1.83710E+03
  4.45942E+03 -9.88666E+01  5.99018E+03  2.00446E+02  6.60261E+03  3.34236E+03  5.31775E+03  7.84306E+03
 -7.75543E+02  8.99312E+03 -7.66691E+03  7.39794E+03 -9.81650E+03  2.01549E+03 -8.26872E+03 -2.62459E+03
 -3.74529E+03 -6.57986E+03 -4.49417E+02 -6.82329E+03  2.67558E+03 -1.88753E+03  1.81126E+03 -1.82458E+03
  1.50719E+03 -1.35518E+03  2.68803E+03 -3.78567E+03  4.42549E+03 -1.74765E+03  3.79750E+03 -7.22120E+01
  5.09816E+03  2.74301E+03  1.68178E+02  4.43066E+03 -1.38247E+03  3.78680E+03 -5.59072E+03  2.02698E+03
 -6.44534E+03 -2.10895E+03 -2.84295E+03 -4.17747E+03 -1.98265E+02 -5.89208E+03  4.35850E+03 -6.01258E+03
  6.48396E+03 -4.01237E+03  7.49694E+03 -4.23328E+02  5.27365E+03  4.95642E+03  7.16259E+02  6.06719E+03
 -1.88197E+03  5.72897E+03 -3.42398E+03  2.95498E+03 -2.15796E+03 -1.25952E+02 -5.57224E+02 -5.76512E+02
 -1.28913E+02 -2.23452E+02 -4.76115E+02  1.32155E+03 -3.38703E+03  9.99637E+02 -5.08846E+03 -9.15007E+02
 -1.32861E+03 -4.79511E+03  8.06939E+02 -4.88615E+03  3.04591E+03 -4.09462E+03  4.63130E+03 -1.43669E+03
  4.43408E+03  2.61808E+03  2.11407E+03  3.17678E+03 -7.85593E+02  3.97814E+03 -3.57740E+03  4.15170E+03
 -4.54814E+03  3.87932E+02 -2.78643E+03 -2.49804E+03 -4.99648E+02 -3.77268E+03  1.79353E+03 -2.61573E+03
  2.99106E+03 -1.36080E+03  2.17441E+03  8.44225E+01  6.92646E+02  1.74170E+03  7.54215E+02 -1.53904E+02
  6.79319E+02  1.06105E+03  2.06572E+02  8.03088E+02  1.38624E+03  2.12980E+03  1.36706E+03  2.01124E+03
 -6.97822E+02  2.80498E+03 -2.59188E+03  4.78025E+03 -4.18016E+03  1.77235E+03 -3.98756E+03 -4.37594E+02
 -2.01691E+03 -4.04609E+03  3.30371E+02 -5.30614E+03  2.49627E+03 -2.89144E+03  2.81145E+03 -1.44357E+03
  2.57467E+03  1.41853E+03  5.53307E+02  2.79932E+03 -6.67557E+02  1.08920E+03 -1.89358E+03 -9.05643E+02
 -1.31853E+03 -1.48758E+03  1.18329E+03 -1.37177E+03  2.47033E+03 -1.25927E+03  1.79054E+03  8.25814E+02
  1.39876E+03  3.20644E+02  1.11601E+02 -1.77385E+03 -7.07150E+02  2.00364E+02  1.08959E+03  5.79783E+02
  4.70816E+02 -8.82587E+02  3.11714E+03  1.04093E+03  5.95884E+02  2.00591E+03  2.72472E+01  2.25837E+03
 -8.39826E+02  1.37455E+03 -2.04500E+03  4.63907E+02 -1.68346E+03 -9.62977E+02 -1.50609E+02 -1.13446E+03
  9.11130E+02 -1.43771E+03  1.29698E+02 -1.09835E+03 -5.26834E+02  1.98746E+03 -3.63725E+02  8.68680E+02
 -1.25104E+03 -1.38538E+02 -1.33141E+03 -1.90620E+03 -5.35494E+02 -3.19733E+03 -8.71598E+02 -1.90442E+03
  3.83539E+02 -9.85185E+02  8.36964E+02  1.30708E+03  6.02913E+02 -2.70509E+02  2.15619E+02  1.32969E+03
 -3.03692E+02  2.33434E+02 -2.75394E+02  1.01991E+02  5.07758E+02 -6.38258E+02  1.34857E+03 -1.45519E+03
  1.12488E+03  6.28150E+02  3.53195E+03  8.43786E+01  8.42280E+02  1.99308E+03 -5.67087E+02  1.09567E+03
 -1.82910E+03  3.16514E+02 -1.95434E+03  2.34196E+02 -1.24417E+03 -2.16882E+03  1.22648E+03 -6.40713E+02
  1.55338E+03 -3.82509E+02  1.42476E+03  1.26312E+03  1.21623E+03  1.53500E+03 -2.57148E+02  1.06553E+03
 -1.94187E+02  1.31294E+03 -1.18647E+03  8.70975E+01 -8.46363E+02 -1.83213E+02 -1.74038E+03  7.67372E+02
 -4.08427E+02  5.04921E+02 -2.45763E+03  3.63157E+01 -2.11899E+03  8.40567E+02 -2.59114E+03 -1.54776E+03
 -1.78242E+03 -2.63193E+03  9.30642E+02 -3.96002E+03  6.98346E+02 -2.43484E+03  2.66136E+03 -8.64199E+02
  2.31265E+03 -4.63498E+02  1.35865E+03  1.33305E+03 -6.96550E+02  2.33368E+03 -9.26085E+02  1.98748E+03
  4.32758E+01 -1.21342E+02 -7.65807E+02  1.36559E+02 -1.29230E+03  2.89667E+02 -1.25899E+03 -5.40298E+02
 -1.51003E+03 -4.95354E+02 -7.51639E+02  9.94699E+01 -9.55543E+02 -1.17341E+03  5.50168E+01 -2.97961E+02
  1.02855E+03 -1.85553E+03 -4.33697E+01  7.91543E+02  1.17797E+03  1.25836E+03 -1.39737E+03  1.49876E+03
 -1.12385E+03  1.36961E+03 -1.11324E+03  8.86497E+02 -2.10907E+03 -1.39790E+03 -2.09637E+03 -1.04080E+03
 -6.72507E+02 -2.99047E+03 -1.41231E+02 -1.75568E+03  1.24138E+03 -8.14622E+02  5.51188E+02  1.01166E+03
 -7.73512E+02  4.01904E+02  2.75296E+02  8.50567E+02 -8.04147E+02  1.79144E+02 -2.80795E+01 -1.45303E+03
  1.00746E+03  4.86125E+02  1.10488E+03  3.78334E+02 -6.72341E+02  1.40859E+03  2.31975E+02  3.13737E+01
 -2.44890E+02  1.65101E+02 -1.10302E+03  7.13607E+02 -1.20903E+03  1.66881E+01 -2.67361E+02 -1.24745E+03
  5.21502E+02 -6.56373E+02  1.84226E+01  1.64698E+02  2.09730E+03 -9.06525E+01  1.20893E+02  4.82558E+02
  1.70383E+03  3.65883E+02 -1.02558E+03  1.57980E+01 -1.93052E+03  1.27137E+03 -1.75305E+00  7.64892E+02
 -4.95801E+02 -6.29536E+02 -7.37868E+02  4.33789E+02 -5.58322E+00  7.52139E+02 -2.07617E+03 -5.73881E+02
 -1.44162E+03 -6.52104E+02 -9.82001E+02 -2.63330E+03  6.69005E+02 -1.75018E+03  1.45090E+03  4.34412E+01
  1.28848E+03  2.76998E+02  1.25260E+02 -1.72866E+02  9.75162E+02  6.97246E+02 -7.10682E+02 -1.56295E+02
