 $NMID ID='MM_0lb_SNR200_15hz_g55_61.RAW', FMTDAT='(8E13.5)'
 TRAMP=1., VOLUME=1. $END
  3.09488E+05 -3.96274E+02  3.38042E+05  2.50135E+05  8.46027E+04  3.38176E+05 -1.32214E+05  2.50867E+05
 -1.90492E+05  8.28144E+04 -1.12000E+05 -3.13044E+04  7.53524E+02 -5.07352E+04  5.38238E+04  5.09462E+02
  3.53666E+04  5.20768E+04 -1.74932E+04  7.56166E+04 -6.11090E+04  6.40849E+04 -8.48727E+04  3.12208E+04
 -8.12048E+04 -1.14202E+04 -5.78633E+04 -5.15622E+04 -1.52448E+04 -6.97833E+04  2.83571E+04 -4.58020E+04
  3.98390E+04  4.09527E+03  1.66236E+04  4.75288E+04 -3.47272E+04  4.80611E+04 -6.84412E+04  5.08324E+02
 -5.36437E+04 -5.67251E+04 -6.46540E+03 -7.74812E+04  3.41755E+04 -5.50263E+04  4.84492E+04 -1.83987E+04
  4.27366E+04  1.11146E+04  3.22960E+04  2.63201E+04  1.72492E+04  2.95295E+04 -5.00031E+03  2.69649E+04
 -2.18138E+04  1.29535E+04 -1.71591E+04 -4.58268E+03  4.96628E+03 -8.35831E+03  2.20418E+04  1.16995E+04
  7.49432E+03  3.53439E+04 -3.26575E+04  3.51429E+04 -6.29014E+04  1.79892E+03 -5.68855E+04 -4.17605E+04
 -1.31993E+04 -6.33190E+04  3.99560E+04 -4.40182E+04  5.82327E+04 -2.31455E+03  3.46310E+04  3.27114E+04
 -5.98726E+03  3.59712E+04 -3.02519E+04  1.55860E+04 -2.95125E+04 -4.14351E+03 -1.76940E+04 -1.12188E+04
 -8.27911E+03 -1.36665E+04 -1.49820E+02 -1.75217E+04  7.64293E+03 -2.34227E+04  1.51579E+04 -1.37933E+04
  1.05062E+04  4.39302E+03 -8.10171E+03  1.30265E+04 -2.12722E+04 -4.84501E+03 -8.50574E+03 -3.55511E+04
  2.40419E+04 -4.35632E+04  4.88095E+04 -2.02219E+04  4.56616E+04  1.76525E+04  1.61260E+04  4.51459E+04
 -1.58296E+04  3.34025E+04 -2.53102E+04  2.15359E+03 -9.56673E+03 -2.74419E+04  2.08728E+04 -3.28436E+04
  3.97636E+04 -1.02268E+04  3.57310E+04  2.47338E+04  1.75632E+04  4.78714E+04 -8.39395E+03  5.00743E+04
 -3.09868E+04  3.30843E+04 -4.18568E+04  9.54304E+03 -4.26216E+04 -1.57248E+04 -2.19089E+04 -3.76105E+04
  6.72934E+03 -3.65632E+04  3.21427E+04 -1.48434E+04  2.83505E+04  1.02395E+04  3.84737E+03  1.91653E+04
 -1.43546E+04  7.92863E+03 -9.51897E+03 -7.50811E+03  6.05469E+03 -1.02204E+04  1.82044E+04  5.41191E+03
  1.41082E+04  2.23188E+04 -6.08623E+03  2.49367E+04 -2.26515E+04  1.01500E+04 -2.75173E+04 -5.27158E+03
 -2.08918E+04 -1.74298E+04 -8.87094E+03 -1.99019E+04  4.05555E+03 -1.92996E+04  1.70214E+04 -1.83363E+04
  2.51377E+04 -1.38721E+04  3.32920E+04  2.39069E+03  2.36433E+04  2.04653E+04  2.96833E+03  3.68788E+04
 -1.62135E+04  3.02474E+04 -2.82706E+04  1.11620E+04 -2.08120E+04 -9.38294E+03 -4.93492E+03 -1.48069E+04
  1.97253E+03 -2.77899E+03 -4.92324E+03  6.72626E+03 -1.65179E+04  5.18314E+03 -1.64304E+04 -6.43644E+03
 -1.01956E+04 -1.78566E+04  5.81016E+03 -2.28284E+04  1.58888E+04 -1.66929E+04  1.72391E+04 -1.50643E+03
  1.16501E+04  1.39071E+04 -8.46669E+02  1.90409E+04 -1.31647E+04  1.03485E+04 -1.83365E+04 -4.01298E+03
 -1.45961E+04 -1.74013E+04 -1.24901E+03 -2.29028E+04  9.34327E+03 -1.94717E+04  1.91538E+04 -9.23858E+03
  1.77923E+04 -6.23923E+02  1.20801E+04  4.72811E+03  6.49396E+03  9.18146E+02  9.79492E+03 -3.32501E+03
  1.78578E+04  3.29423E+03  1.86771E+04  1.58232E+04  1.16455E+04  2.96026E+04 -2.83825E+03  3.52267E+04
 -1.83190E+04  2.73642E+04 -3.04265E+04  1.31651E+04 -3.27907E+04 -2.72835E+03 -2.75014E+04 -1.84240E+04
 -1.14465E+04 -2.74222E+04  1.03266E+04 -2.26942E+04  2.10553E+04 -1.15440E+04  1.85473E+04  5.14519E+03
  7.44624E+03  1.33274E+04 -9.26296E+03  1.27777E+04 -1.56297E+04  2.77950E+03 -1.12797E+04 -9.47674E+03
 -3.10390E+02 -1.53060E+04  7.43840E+03 -1.09119E+04  8.80084E+03 -2.06533E+03  1.72481E+03  6.50845E+03
 -5.64875E+03  3.11657E+03 -5.13391E+03 -5.28896E+03  6.02324E+02 -1.36818E+04  1.02409E+04 -1.36345E+04
  1.67854E+04 -6.40453E+03  1.76007E+04  3.42513E+03  1.40027E+04  1.35866E+04  7.19854E+03  1.99055E+04
 -3.59617E+03  2.35431E+04 -1.28726E+04  1.43686E+04 -1.56125E+04  3.24511E+03 -1.15872E+04 -3.79088E+03
 -4.61975E+03 -4.86546E+03 -1.68177E+03  2.78132E+02 -2.44275E+03  2.83763E+03 -5.21407E+03  5.20883E+03
 -1.08346E+04 -1.21318E+03 -1.06530E+04 -8.86353E+03 -4.18259E+03 -1.43456E+04  4.76697E+03 -1.10052E+04
  8.58154E+03 -4.98380E+03  6.47364E+03  3.64036E+03 -2.46762E+02  4.19177E+03 -4.92712E+03  8.30276E+01
 -5.95134E+03 -7.27780E+03 -8.34892E+02 -1.01856E+04  6.21095E+03 -1.10367E+04  1.40188E+04 -4.96413E+03
  1.59676E+04  2.51133E+03  1.17093E+04  8.68544E+03  2.75670E+03  1.32315E+04 -7.67169E+03  1.04771E+04
 -9.04902E+03  2.27586E+03 -5.14571E+03 -1.85195E+03  1.64585E+03 -1.79743E+03  5.60431E+03 -5.51510E+02
  4.53376E+03  4.40855E+03  2.38989E+02  8.18036E+03 -5.79834E+03  8.25911E+03 -1.11848E+04  2.81558E+03
 -6.85219E+03 -5.43827E+03  3.24273E+02 -8.74145E+03  5.31072E+03 -4.53245E+03  4.71017E+03  1.42063E+03
  1.05372E+03  5.72918E+03 -5.07587E+03  7.44036E+03 -7.51479E+03  3.31049E+03 -7.11642E+03 -1.40931E+03
 -5.57637E+03 -9.85893E+03  2.57367E+03 -9.80376E+03  8.15366E+03 -6.80805E+03  9.77067E+03  1.22091E+03
  6.35467E+03  6.77983E+03 -8.89210E+02  1.01181E+04 -7.42918E+03  6.30306E+03 -7.07992E+03 -1.28537E+03
 -6.95883E+03 -6.45180E+03 -1.29842E+03 -7.50852E+03  3.26838E+03 -6.29307E+03  4.48053E+03 -3.32209E+03
  4.89751E+03  1.96909E+03 -4.81060E+02  8.93052E+02 -1.21352E+03 -1.03824E+03 -6.53867E+02 -3.70087E+03
  6.42091E+03 -1.41016E+03  8.67352E+03  8.43466E+02  8.96068E+03  5.98781E+03  6.82921E+03  1.18852E+04
 -2.75920E+03  1.30803E+04 -1.17313E+04  9.73603E+03 -1.68884E+04  1.58425E+03 -1.29461E+04 -4.49497E+03
 -6.73058E+03 -9.71885E+03 -6.34499E+02 -7.87760E+03  3.92608E+03 -3.49749E+03  1.65043E+03 -2.73344E+03
  1.81383E+03 -2.07672E+03  2.47441E+03 -3.10191E+03  4.68671E+03 -1.97812E+03  4.69119E+03 -3.39098E+02
  7.39938E+03  2.22175E+03  2.57682E+03  4.75003E+03 -2.20785E+03  6.26529E+03 -6.86221E+03  4.90334E+03
 -8.44120E+03 -1.33898E+03 -3.13448E+03 -4.70631E+03  9.36191E+02 -7.42008E+03  4.41351E+03 -8.08541E+03
  8.91418E+03 -4.76023E+03  1.12164E+04  1.35602E+03  8.09042E+03  6.67740E+03  1.08364E+03  1.05018E+04
 -4.10772E+03  8.14377E+03 -5.18944E+03  2.29633E+03 -3.83104E+03 -1.43101E+03 -1.39336E+03 -8.18604E+02
 -9.69274E+02 -7.10777E+02 -1.46926E+03  3.38143E+03 -3.78735E+03  1.13339E+03 -5.25195E+03 -2.97453E+02
 -3.54976E+03 -6.56073E+03  1.71035E+02 -5.90672E+03  5.10771E+03 -7.47913E+03  5.90207E+03 -2.31774E+03
  7.29886E+03  4.39053E+03  2.70180E+03  6.24072E+03 -1.87207E+03  7.10372E+03 -4.56417E+03  4.34301E+03
 -5.64131E+03  1.00845E+03 -6.16017E+03 -4.53433E+03 -2.90217E+02 -4.62719E+03  2.58730E+03 -4.21916E+03
  4.66197E+03 -1.84052E+03  4.03085E+03  1.67955E+03  8.33492E+02  3.86379E+03  3.55129E+02  1.23536E+03
  2.60567E+03  2.72351E+02  1.38439E+03  3.65030E+02  9.58148E+02  3.81130E+03  1.87969E+03  3.92930E+03
 -1.92621E+03  5.20363E+03 -4.51461E+03  5.08402E+03 -6.62782E+03  1.57086E+03 -7.37440E+03 -2.21520E+03
 -3.51033E+03 -7.66989E+03  8.25814E+02 -8.05342E+03  4.08180E+03 -4.62254E+03  4.80497E+03 -1.92253E+03
  4.32541E+03  2.50570E+03  1.29325E+03  3.37598E+03 -1.49573E+03  1.76320E+03 -2.54043E+03  8.70044E+01
 -8.89679E+02 -2.04100E+03  1.96764E+03 -3.11129E+03  2.55729E+03 -1.28399E+03  6.68983E+02 -8.15610E+02
  2.27370E+03  1.05968E+03  1.48626E+03  1.04216E+03 -1.19952E+02  1.79130E+03  9.22094E+02  6.55778E+02
  8.42191E+02 -3.24287E+02  2.51007E+03  1.32897E+03  1.66520E+03  2.74982E+03  2.89519E+02  5.01589E+03
 -2.72928E+03  2.29052E+03 -3.70955E+03  1.05657E+03 -3.38582E+03 -1.75498E+03 -9.96981E+02 -2.64639E+03
  7.19156E+02 -2.13461E+03  1.92074E+03 -1.86553E+03  1.05767E+03  1.92852E+03 -1.53564E+03  2.58230E+03
 -2.72808E+03  3.66310E+02 -3.21713E+03 -1.75827E+03 -2.00505E+03 -4.82897E+03  8.54699E+02 -3.49275E+03
  2.17656E+03 -1.66800E+03  1.39317E+03  3.89226E+02  1.17726E+03 -3.01401E+02 -9.54801E+02  6.97127E+02
 -8.49708E+02  1.09216E+03 -1.29514E+03 -1.61217E+03  8.13919E+02 -6.48230E+02  3.08553E+03 -2.35469E+03
  2.82006E+03  5.56133E+02  3.54020E+03  3.85865E+03  1.85241E+03  4.63334E+03 -1.26337E+03  4.25214E+03
 -3.43437E+03  2.10270E+03 -3.14155E+03 -2.01467E+02 -7.26303E+02 -3.04891E+03  1.01290E+03 -2.67349E+03
  2.96024E+03 -1.65593E+03  1.46497E+03  1.50645E+03  1.52156E+03  9.80980E+02 -6.05702E+02  1.94100E+03
 -1.58384E+03  2.06766E+03 -1.38675E+03 -4.81396E+02 -4.48574E+02 -1.53091E+02 -1.25422E+03  1.45389E+03
 -6.91010E+02  1.36213E+03 -3.30258E+03  1.55233E+03 -3.82867E+03 -2.07094E+02 -5.54057E+03 -1.92813E+03
 -1.86499E+03 -4.53402E+03  1.36179E+03 -5.85423E+03  3.38841E+03 -5.09858E+03  4.66586E+03 -3.48617E+03
  3.86198E+03  6.99313E+02  3.55115E+03  2.61450E+03  8.67461E+02  2.94115E+03 -1.16550E+03  2.06174E+03
 -2.00471E+03  1.59973E+03 -4.90833E+02 -6.18796E+01 -6.44206E+02  4.28183E+02 -8.87746E+02  1.43609E+01
 -1.62029E+03  4.59631E+02 -5.56015E+02 -7.59916E+02  2.13830E+02 -7.72005E+02  2.74453E+01 -1.54816E+03
  2.01114E+03 -1.52244E+03  2.18538E+03  2.10376E+02  1.52217E+03  2.11007E+03 -7.01566E+02  3.85518E+03
 -2.38427E+03  4.00163E+03 -3.78589E+03  2.86122E+03 -4.51173E+03 -5.13871E+02 -2.54338E+03 -2.67628E+03
 -2.77344E+03 -1.80684E+03  2.83431E+02 -2.03876E+03  1.81839E+03 -9.84991E+02  1.25165E+03  2.09279E+02
  8.59257E+02 -1.97084E+01  7.46806E+02  1.48649E+03  6.99704E+01 -1.65525E+03 -2.85185E+02 -8.70864E+02
  6.56613E+02  1.46458E+02  1.85839E+03  1.21396E+03  9.87966E+02  4.85795E+02 -3.89354E+01  1.69363E+03
 -1.11208E+03  1.52025E+03 -9.64242E+02 -2.64093E+02 -2.26971E+03 -5.25028E+02 -9.43224E+02 -1.31446E+03
  2.23381E+03 -1.96055E+03  1.83865E+03 -1.21153E+03  2.28129E+03 -6.24074E+02  1.20359E+03  1.27409E+03
  6.32889E+02  1.80661E+03 -2.33282E+02  1.88306E+03 -3.71819E+02  6.72916E+02 -9.09632E+02 -7.72977E+02
  1.80486E+02  2.17004E+02 -1.21115E+03  1.09833E+03 -1.40108E+03 -3.15281E+02 -2.13768E+03 -7.60309E+02
 -1.40186E+03  5.86552E+01 -4.41672E+02 -2.75425E+03  1.50156E+03 -3.54779E+03  1.25943E+03 -9.29665E+02
  2.49922E+03  2.37755E+02  7.94071E+02  6.01245E+02 -2.86072E+02  1.24783E+03 -7.76733E+01  1.55489E+03
