 $NMID ID='MM_0lb_SNR200_8hz_g55_99.RAW', FMTDAT='(8E13.5)'
 TRAMP=1., VOLUME=1. $END
  3.08538E+05 -4.92049E+01  3.38321E+05  2.50938E+05  8.53814E+04  3.40003E+05 -1.33304E+05  2.53543E+05
 -1.92120E+05  8.39954E+04 -1.11309E+05 -3.02462E+04  4.86009E+02 -4.97538E+04  5.51899E+04  2.69365E+02
  3.61055E+04  5.34105E+04 -1.74182E+04  7.63483E+04 -6.26476E+04  6.41277E+04 -8.56108E+04  3.24007E+04
 -8.37402E+04 -1.33061E+04 -5.80075E+04 -5.28279E+04 -1.43865E+04 -7.24687E+04  2.91617E+04 -4.67902E+04
  4.06566E+04  2.88243E+03  1.69924E+04  4.90361E+04 -3.53139E+04  4.88120E+04 -6.83081E+04  9.90692E+01
 -5.49259E+04 -5.79171E+04 -6.95068E+03 -7.86237E+04  3.60515E+04 -5.79916E+04  4.99717E+04 -1.81446E+04
  4.65005E+04  1.38535E+04  3.39083E+04  2.56579E+04  1.56195E+04  3.11199E+04 -7.43892E+03  2.84435E+04
 -2.29323E+04  1.21370E+04 -1.81703E+04 -5.96549E+03  6.40641E+03 -7.89124E+03  2.44612E+04  1.38476E+04
  6.22778E+03  3.72672E+04 -3.51591E+04  3.69556E+04 -6.75584E+04  2.79801E+03 -6.09389E+04 -4.50183E+04
 -1.10388E+04 -6.57538E+04  4.23309E+04 -4.82377E+04  6.11211E+04 -2.46492E+03  3.71888E+04  3.57172E+04
 -5.87581E+03  4.03617E+04 -3.37965E+04  2.01599E+04 -3.28580E+04 -3.83977E+03 -2.15113E+04 -1.27069E+04
 -1.04033E+04 -1.65874E+04 -1.49723E+02 -2.02888E+04  7.59970E+03 -2.30374E+04  1.66617E+04 -1.11943E+04
  8.97452E+03  4.83382E+03 -1.29703E+04  1.35744E+04 -2.74620E+04 -7.16637E+03 -9.04681E+03 -3.95647E+04
  2.60694E+04 -4.77398E+04  5.30404E+04 -2.02820E+04  4.97749E+04  1.95507E+04  1.79654E+04  4.80740E+04
 -1.61667E+04  3.73409E+04 -2.72997E+04  4.48270E+03 -1.28222E+04 -2.91687E+04  2.29573E+04 -3.81486E+04
  4.67561E+04 -1.17795E+04  4.22889E+04  2.51367E+04  2.25994E+04  5.33295E+04 -7.79160E+03  5.77867E+04
 -3.76232E+04  3.84820E+04 -5.01273E+04  1.24031E+04 -5.01588E+04 -1.85175E+04 -2.80992E+04 -4.31631E+04
  9.06612E+03 -4.54025E+04  3.74392E+04 -1.88438E+04  3.30853E+04  1.09999E+04  7.09449E+03  2.08305E+04
 -1.38832E+04  1.11509E+04 -1.25039E+04 -6.52123E+03  4.69540E+03 -1.23295E+04  1.85248E+04  4.76857E+03
  1.50497E+04  2.41477E+04 -4.63025E+03  2.75604E+04 -2.29311E+04  1.45768E+04 -3.44189E+04 -4.65763E+03
 -2.77532E+04 -1.94813E+04 -1.29743E+04 -2.65459E+04  4.41597E+03 -2.81736E+04  2.15527E+04 -2.30133E+04
  3.42684E+04 -1.56224E+04  4.02180E+04  5.31293E+03  2.90340E+04  2.59208E+04  3.61042E+03  4.29027E+04
 -2.14496E+04  3.45708E+04 -3.06016E+04  1.12914E+04 -2.23084E+04 -1.12004E+04 -3.77355E+03 -1.14202E+04
 -1.89416E+02 -2.06299E+03 -9.58076E+03  7.38587E+03 -2.16383E+04  4.70352E+03 -2.20789E+04 -1.01987E+04
 -1.28423E+04 -2.78260E+04  7.88760E+03 -2.89661E+04  1.99095E+04 -1.90014E+04  2.35322E+04 -2.10142E+03
  1.45264E+04  1.89591E+04 -1.50586E+03  2.41489E+04 -1.67707E+04  1.39048E+04 -2.51311E+04 -4.87677E+03
 -1.79863E+04 -2.31164E+04 -1.79628E+03 -3.02349E+04  1.32327E+04 -2.63572E+04  2.42136E+04 -1.39474E+04
  2.36173E+04 -1.16691E+03  1.57807E+04  4.25837E+03  9.39268E+03  1.36030E+03  1.23171E+04 -1.27365E+02
  2.23968E+04  3.51706E+03  2.70721E+04  2.06564E+04  2.02842E+04  4.10964E+04 -2.44078E+03  4.97104E+04
 -2.74981E+04  4.02785E+04 -4.40609E+04  2.21153E+04 -5.07448E+04 -3.25038E+03 -3.94278E+04 -2.75834E+04
 -1.59778E+04 -4.26805E+04  1.47640E+04 -3.40826E+04  3.05540E+04 -1.58043E+04  2.37507E+04  7.52266E+03
  9.52395E+03  1.98858E+04 -1.18910E+04  1.67475E+04 -2.21237E+04  2.86624E+03 -1.55251E+04 -1.32220E+04
 -2.19476E+03 -2.06372E+04  1.16525E+04 -1.48269E+04  1.33798E+04 -4.45959E+03  4.39473E+03  9.56890E+03
 -7.84192E+03  4.70503E+03 -1.04638E+04 -6.98385E+03 -1.76041E+03 -2.00512E+04  1.51840E+04 -2.21372E+04
  2.40634E+04 -1.16058E+04  2.74740E+04  3.09843E+03  2.59731E+04  2.05547E+04  1.12822E+04  3.12292E+04
 -4.82886E+03  3.41746E+04 -2.19415E+04  2.08340E+04 -2.51014E+04  3.33762E+03 -1.63910E+04 -6.48131E+03
 -7.51686E+03 -8.88664E+03  1.52587E+03  1.52754E+03 -2.38823E+03  5.18133E+03 -7.98248E+03  6.17401E+03
 -1.54738E+04 -9.48821E+02 -1.58181E+04 -1.34669E+04 -7.07329E+03 -2.17339E+04  6.79548E+03 -1.68411E+04
  1.30771E+04 -7.43072E+03  1.00158E+04  4.77612E+03 -1.76005E+03  6.06025E+03 -7.64474E+03  3.29618E+02
 -7.56312E+03 -8.66986E+03 -8.38339E+02 -1.90933E+04  1.00255E+04 -1.65069E+04  2.14796E+04 -1.19260E+04
  2.68825E+04  2.29235E+03  2.04725E+04  1.56533E+04  3.80098E+03  2.12020E+04 -9.63424E+03  1.74167E+04
 -1.32725E+04  4.12065E+03 -5.62599E+03 -3.63439E+03  1.81397E+03 -5.55459E+03  8.68952E+03 -2.42750E+03
  8.18940E+03  6.13535E+03  1.82913E+03  1.50884E+04 -1.06381E+04  1.37135E+04 -1.72111E+04  3.27223E+03
 -1.05700E+04 -9.31547E+03  3.37984E+02 -1.50782E+04  1.07561E+04 -7.89194E+03  1.08910E+04  2.96165E+03
  2.20310E+03  1.08840E+04 -9.86352E+03  1.19663E+04 -1.64999E+04  4.65142E+03 -1.58948E+04 -6.91577E+03
 -7.96685E+03 -1.90973E+04  3.08470E+03 -2.06734E+04  1.71546E+04 -1.20292E+04  1.99750E+04  3.67349E+03
  1.07040E+04  1.66199E+04 -2.66974E+03  1.65212E+04 -1.40712E+04  1.02331E+04 -1.38356E+04 -1.90502E+03
 -1.34541E+04 -1.32928E+04 -2.42118E+03 -1.47545E+04  6.81868E+03 -1.23867E+04  8.19657E+03 -4.30053E+03
  4.04802E+03  2.93443E+03 -1.23441E+03  1.65076E+03  2.81629E+01 -3.76223E+03  4.40546E+03 -7.43236E+03
  1.29541E+04 -4.30986E+03  1.70174E+04  1.66327E+03  1.58902E+04  1.35332E+04  1.24649E+04  2.32906E+04
 -4.51984E+03  2.76315E+04 -2.17982E+04  1.84493E+04 -3.06040E+04  3.41878E+03 -2.33662E+04 -1.09475E+04
 -1.04857E+04 -1.98413E+04 -1.54076E+03 -1.69868E+04  6.45711E+03 -7.68513E+03  5.30499E+03 -5.47485E+03
  2.61633E+03 -2.41197E+03  4.30371E+03 -4.49216E+03  6.14605E+03 -2.58060E+03  7.00703E+03 -1.71588E+03
  1.26116E+04  2.67466E+03  7.20079E+03  9.91424E+03 -1.80838E+03  1.31301E+04 -1.25894E+04  8.64228E+03
 -1.57268E+04 -1.63787E+03 -1.19661E+04 -1.04059E+04 -1.31235E+03 -1.78229E+04  8.38909E+03 -1.88299E+04
  1.93953E+04 -9.93182E+03  2.25206E+04  3.27601E+03  1.45299E+04  1.62554E+04  3.64059E+03  1.86840E+04
 -9.13294E+03  1.77803E+04 -1.13320E+04  6.08260E+03 -9.32042E+03 -3.29698E+03 -4.40124E+03 -2.05565E+03
 -1.43093E+03 -3.92135E+02 -1.59461E+03  2.71384E+03 -5.65135E+03  3.02737E+03 -1.10635E+04 -2.26742E+03
 -8.67461E+03 -1.13898E+04  8.04906E+02 -1.55163E+04  1.13665E+04 -1.42719E+04  1.55966E+04 -2.70049E+03
  1.85711E+04  9.32386E+03  7.21589E+03  1.55277E+04 -1.87741E+03  1.73531E+04 -1.11430E+04  9.97913E+03
 -1.66550E+04  7.77274E+02 -1.03076E+04 -1.04908E+04 -7.57812E+02 -1.47410E+04  6.40853E+03 -1.14078E+04
  1.13716E+04 -2.51920E+03  7.04656E+03  1.84087E+03  3.21633E+03  5.39076E+03  2.11008E+03  2.58723E+03
  2.53703E+03  2.11035E+03  4.11988E+03  2.87872E+03  6.22286E+03  5.45394E+03  5.67789E+03  7.80941E+03
 -5.87215E+03  1.31596E+04 -1.43020E+04  1.42704E+04 -1.56955E+04  3.42875E+03 -1.80991E+04 -1.08979E+04
 -9.36656E+03 -1.68124E+04  2.68215E+03 -1.75723E+04  1.05041E+04 -1.30688E+04  1.51104E+04 -2.88913E+03
  1.01596E+04  7.45160E+03  2.78168E+03  8.86953E+03 -4.79051E+03  6.22158E+03 -8.44111E+03 -1.22676E+03
 -1.99041E+03 -7.27632E+03  4.39487E+03 -5.85374E+03  8.22527E+03 -6.05244E+03  8.20643E+03  4.41663E+02
  4.83194E+03  2.89329E+03  3.23002E+03  4.09368E+03 -1.81278E+03  2.25353E+03  1.09148E+03  3.37223E+02
  4.26982E+03 -7.88870E+02  7.01953E+03  3.04646E+03  4.46230E+03  9.40611E+03 -2.94365E+03  1.35398E+04
 -9.16971E+03  9.47334E+03 -1.17339E+04  2.57945E+03 -8.80627E+03 -3.45430E+03 -4.68593E+03 -7.76440E+03
  2.67384E+03 -7.42613E+03  6.43219E+03 -2.12819E+03  3.68076E+03  2.64188E+03 -1.53666E+03  6.28379E+03
 -9.01874E+03  1.89423E+03 -8.47158E+03 -4.38236E+03 -5.32776E+03 -8.25245E+03  2.62645E+03 -9.21115E+03
  5.94920E+03 -6.03922E+03  8.43950E+03 -1.17544E+03  5.27088E+03  2.76948E+03  2.65655E+02  5.42120E+03
 -3.88287E+03  2.05840E+03 -4.97755E+03 -2.67735E+03  1.26944E+03 -6.98970E+03  8.90468E+03 -6.86543E+03
  1.17333E+04 -3.14991E+02  1.26914E+04  9.02112E+03  4.19005E+03  1.10361E+04 -4.08128E+03  1.11996E+04
 -9.88368E+03  5.43233E+03 -1.02527E+04 -2.89418E+03 -7.35455E+03 -6.90658E+03  2.56626E+03 -7.86295E+03
  6.04942E+03 -4.17221E+03  6.17716E+03  3.24222E+03  1.60304E+03  7.64201E+03 -3.26517E+01  5.36991E+03
 -3.30355E+03  2.72822E+03 -2.47766E+03  8.46904E+02 -1.63675E+03  2.30042E+03 -1.71275E+03  2.38718E+03
 -2.74218E+03  4.47728E+03 -7.68331E+03  3.69440E+03 -1.17067E+04  5.83390E+02 -1.31491E+04 -7.44705E+03
 -7.38675E+03 -1.64183E+04  3.32355E+03 -1.99089E+04  1.14501E+04 -1.41180E+04  1.64044E+04 -6.25923E+03
  1.81017E+04  2.99924E+03  1.00752E+04  1.27486E+04  1.43578E+03  1.43309E+04 -5.41062E+03  1.03073E+04
 -7.01067E+03  4.11667E+03 -5.47290E+03 -4.33361E+02 -1.79836E+03 -1.58390E+02 -1.61431E+03 -8.80672E+02
 -2.52614E+03  1.90264E+03 -3.50494E+03  8.79903E+02 -5.00484E+02 -1.92022E+03 -1.00588E+03 -4.61670E+03
  5.17880E+03 -4.60484E+03  8.07044E+03  6.65019E+02  1.11574E+04  7.28884E+03  4.34928E+03  1.13076E+04
 -5.43693E+03  1.32771E+04 -1.35273E+04  7.26601E+03 -1.53785E+04 -1.24648E+03 -1.28926E+04 -1.05628E+04
 -4.75130E+03 -1.42771E+04  5.20640E+03 -1.15829E+04  7.89737E+03 -8.14494E+03  8.08940E+03  1.02795E+03
  4.29567E+03  4.78602E+03 -2.97451E+02  4.06711E+03 -3.35924E+03  2.09833E+02 -7.21924E+02 -2.82265E+03
  4.75969E+03  1.52410E+02  4.18767E+03  1.02161E+03  3.19353E+03  5.55119E+03 -1.00403E+02  7.82696E+03
 -6.36912E+03  5.65609E+03 -6.12561E+03  5.77979E+02 -7.73651E+03 -5.97823E+03  7.40073E+02 -1.08828E+04
  6.27901E+03 -8.95013E+03  1.02631E+04 -1.47178E+03  1.04836E+04  1.77016E+03  7.39621E+03  8.04704E+03
  1.39894E+03  8.84907E+03 -3.33232E+03  5.37410E+03 -5.03339E+03  3.16721E+03 -5.02285E+03 -5.34027E+00
 -3.77036E+03  1.34074E+02 -5.02873E+02  1.34403E+03 -5.00388E+03  1.58003E+03 -7.65121E+03 -7.47953E+02
 -7.09442E+03 -7.46329E+03 -2.35349E+03 -8.51784E+03  3.11996E+03 -1.01832E+04  8.45741E+03 -4.44472E+03
  9.00361E+03  2.61727E+03  3.79547E+03  5.18238E+03 -2.91929E+03  8.43356E+03 -5.09176E+03  4.29752E+03
