 $NMID ID='MM_0lb_SNR200_14hz_g55_88.RAW', FMTDAT='(8E13.5)'
 TRAMP=1., VOLUME=1. $END
  3.08640E+05  5.69060E+02  3.38568E+05  2.51364E+05  8.44261E+04  3.38462E+05 -1.32196E+05  2.51382E+05
 -1.91399E+05  8.24235E+04 -1.11713E+05 -3.14564E+04  2.22544E+02 -5.17323E+04  5.37595E+04  6.92114E+02
  3.60157E+04  5.35502E+04 -1.69110E+04  7.59761E+04 -6.02129E+04  6.33836E+04 -8.39341E+04  3.24807E+04
 -8.12613E+04 -1.16109E+04 -5.80141E+04 -5.12545E+04 -1.57106E+04 -7.00468E+04  2.89188E+04 -4.54386E+04
  4.12746E+04  3.82395E+03  1.59231E+04  4.83817E+04 -3.39527E+04  4.78877E+04 -6.70271E+04 -7.15983E+02
 -5.39747E+04 -5.73965E+04 -7.40921E+03 -7.79750E+04  3.41650E+04 -5.61688E+04  4.76407E+04 -1.84890E+04
  4.42934E+04  1.15285E+04  3.38832E+04  2.59908E+04  1.50990E+04  2.97784E+04 -5.43976E+03  2.66348E+04
 -2.13967E+04  1.25358E+04 -1.81252E+04 -5.25412E+03  4.73096E+03 -7.72926E+03  2.22737E+04  1.22593E+04
  6.65464E+03  3.64452E+04 -3.12909E+04  3.56932E+04 -6.34361E+04  1.54477E+03 -5.77051E+04 -4.35549E+04
 -1.27147E+04 -6.30609E+04  3.95412E+04 -4.53054E+04  5.96838E+04 -1.96865E+03  3.48906E+04  3.33948E+04
 -6.37450E+03  3.70431E+04 -2.93688E+04  1.60356E+04 -3.09185E+04 -4.00725E+03 -1.77818E+04 -1.05624E+04
 -8.20645E+03 -1.39612E+04 -5.01468E+01 -1.79520E+04  6.93973E+03 -2.36114E+04  1.55944E+04 -1.21843E+04
  1.07167E+04  5.26851E+03 -9.11103E+03  1.36159E+04 -2.15475E+04 -5.59634E+03 -8.03774E+03 -3.39842E+04
  2.33182E+04 -4.37261E+04  4.88999E+04 -2.02301E+04  4.45126E+04  1.96051E+04  1.59259E+04  4.51082E+04
 -1.54894E+04  3.32286E+04 -2.49975E+04  1.97886E+03 -1.03921E+04 -2.90983E+04  2.04614E+04 -3.38878E+04
  4.18711E+04 -8.85264E+03  3.65003E+04  2.56381E+04  1.77725E+04  4.62089E+04 -8.46789E+03  5.02025E+04
 -3.26556E+04  3.31290E+04 -4.27653E+04  1.05072E+04 -4.38441E+04 -1.75446E+04 -2.33293E+04 -3.90785E+04
  7.74177E+03 -3.85773E+04  3.18012E+04 -1.51147E+04  3.05226E+04  1.12799E+04  3.82975E+03  2.05816E+04
 -1.38903E+04  8.36890E+03 -9.51180E+03 -8.77259E+03  5.24594E+03 -1.12003E+04  1.81169E+04  4.81849E+03
  1.48583E+04  2.31485E+04 -5.49962E+03  2.57061E+04 -2.17838E+04  1.19891E+04 -2.79514E+04 -4.62535E+03
 -2.11753E+04 -1.54771E+04 -7.85751E+03 -2.15500E+04  4.63432E+03 -2.05524E+04  1.61687E+04 -1.82175E+04
  2.77374E+04 -1.27508E+04  3.35781E+04  3.15779E+03  2.46642E+04  2.17812E+04  3.64576E+03  3.71462E+04
 -1.80094E+04  3.11741E+04 -2.89715E+04  1.06187E+04 -2.10948E+04 -9.72905E+03 -5.16468E+03 -1.40126E+04
  1.64723E+03 -1.31800E+03 -4.96271E+03  5.17797E+03 -1.60245E+04  3.89187E+03 -1.73909E+04 -7.62184E+03
 -1.08273E+04 -1.92484E+04  4.69864E+03 -2.26374E+04  1.54105E+04 -1.73432E+04  1.86791E+04 -8.24664E+02
  1.21842E+04  1.26679E+04 -5.20504E+02  2.07769E+04 -1.39154E+04  1.19979E+04 -1.98320E+04 -4.19121E+03
 -1.46497E+04 -1.79016E+04 -2.35072E+03 -2.32319E+04  1.08972E+04 -1.95929E+04  1.96264E+04 -9.14522E+03
  1.88307E+04  1.77885E+03  1.49849E+04  3.77449E+03  8.02871E+03  1.39801E+03  1.07444E+04 -8.16268E+02
  1.87321E+04  3.20616E+03  2.07310E+04  1.56884E+04  1.29448E+04  3.02864E+04 -4.39930E+03  3.46002E+04
 -2.16545E+04  2.91170E+04 -3.40645E+04  1.44249E+04 -3.48301E+04 -2.45771E+03 -2.86768E+04 -1.99395E+04
 -1.36907E+04 -2.84536E+04  9.38789E+03 -2.56210E+04  2.26716E+04 -1.36392E+04  1.89339E+04  6.76373E+03
  6.63370E+03  1.43747E+04 -9.23359E+03  1.38681E+04 -1.63621E+04  2.89089E+03 -1.21262E+04 -1.00954E+04
 -7.18542E+02 -1.65169E+04  8.60890E+03 -1.13622E+04  9.82332E+03 -3.72983E+02  3.23157E+03  5.51693E+03
 -6.29626E+03  2.60833E+03 -6.73057E+03 -5.13211E+03  1.27418E+02 -1.46511E+04  1.01376E+04 -1.39278E+04
  1.66581E+04 -7.27301E+03  1.88404E+04  2.16443E+03  1.68612E+04  1.41115E+04  7.06625E+03  2.22439E+04
 -2.44043E+03  2.31053E+04 -1.53838E+04  1.50204E+04 -1.57149E+04  4.64283E+03 -1.17907E+04 -3.50390E+03
 -5.86389E+03 -5.63016E+03 -1.85102E+03  3.81743E+02 -2.20771E+03  3.21983E+03 -5.12878E+03  3.00956E+03
 -1.18780E+04 -1.87246E+03 -1.19950E+04 -8.78318E+03 -3.94531E+03 -1.46601E+04  5.21192E+03 -1.19826E+04
  9.84627E+03 -5.84447E+03  6.05207E+03  2.16534E+03 -2.41005E+02  5.83193E+03 -4.84715E+03 -7.36906E+02
 -6.24992E+03 -7.09661E+03 -1.28528E+03 -1.17217E+04  5.50519E+03 -1.14435E+04  1.55480E+04 -6.17497E+03
  1.63189E+04  2.31192E+03  1.12669E+04  9.29873E+03  3.16946E+03  1.33541E+04 -7.17241E+03  1.20991E+04
 -8.82217E+03  2.40762E+03 -5.90816E+03 -1.53131E+03  1.89273E+03 -2.78271E+03  6.57595E+03 -1.84631E+02
  5.34421E+03  5.37142E+03  1.38698E+03  1.01336E+04 -6.08977E+03  8.71374E+03 -1.16919E+04  2.50063E+03
 -7.63318E+03 -6.06671E+03  1.09329E+03 -9.79216E+03  5.17016E+03 -5.01906E+03  6.44994E+03  1.22334E+03
  1.10407E+03  6.18605E+03 -5.58303E+03  7.38550E+03 -9.30551E+03  4.14278E+03 -9.10908E+03 -1.95581E+03
 -5.15948E+03 -9.89421E+03  1.98901E+03 -1.19426E+04  1.00639E+04 -6.94844E+03  1.13765E+04  2.15751E+03
  7.36753E+03  9.69454E+03 -2.16695E+02  1.16301E+04 -8.56666E+03  5.76530E+03 -8.42480E+03 -2.41578E+02
 -7.35675E+03 -6.72808E+03 -1.11242E+03 -8.57866E+03  4.45607E+03 -6.86962E+03  5.73064E+03 -2.63553E+03
  3.40347E+03  1.61441E+02 -1.12895E+02  3.30298E+02 -3.02302E+02 -2.17196E+03  1.77143E+03 -4.44869E+03
  6.58924E+03 -1.68223E+03  1.02347E+04  1.07302E+03  1.05145E+04  6.94391E+03  7.57261E+03  1.35560E+04
 -2.96078E+03  1.47290E+04 -1.28311E+04  1.09721E+04 -1.73568E+04  9.26808E+01 -1.30301E+04 -5.10544E+03
 -7.20903E+03 -1.19347E+04 -3.29357E+02 -9.47939E+03  1.94825E+03 -3.90146E+03  4.10479E+03 -3.35895E+03
  1.46974E+03 -1.04657E+03  3.33340E+03 -2.78166E+03  4.85236E+03 -1.82687E+03  5.15318E+03  2.83643E+02
  6.63555E+03  1.76185E+03  4.36286E+03  5.84455E+03 -2.31693E+03  4.63208E+03 -7.48289E+03  4.72154E+03
 -7.84177E+03 -8.85568E+02 -5.36157E+03 -6.21811E+03 -3.35522E+02 -1.05580E+04  5.43488E+03 -9.36395E+03
  8.87357E+03 -5.87943E+03  1.03799E+04  2.87381E+03  7.39259E+03  8.94818E+03  1.55273E+03  1.04261E+04
 -3.76521E+03  1.04522E+04 -4.20156E+03  3.80470E+03 -3.35922E+03 -1.46512E+03 -8.95685E+02 -2.18398E+03
 -1.21710E+03  3.54043E+02 -2.22805E+03  2.70918E+03 -3.72076E+03  9.61718E+02 -5.57289E+03 -7.39233E+02
 -4.06750E+03 -6.84796E+03 -1.21133E+01 -9.50350E+03  4.48520E+03 -7.81110E+03  8.01383E+03 -1.21948E+03
  7.88875E+03  4.40368E+03  3.68103E+03  7.38524E+03 -8.20496E+02  7.70181E+03 -6.34412E+03  5.49996E+03
 -8.27968E+03  1.92422E+03 -7.23785E+03 -4.21512E+03  1.95616E+02 -6.83061E+03  4.24313E+03 -3.40841E+03
  4.99545E+03 -7.04045E+02  3.87038E+03  1.03548E+03  2.48345E+02  1.90458E+03  1.75761E+03  1.54910E+03
  2.64029E+03  1.97394E+02  1.32792E+03  2.35965E+03  2.95074E+03  3.25908E+03  9.14703E+02  3.24667E+03
 -2.23682E+03  6.21717E+03 -5.95258E+03  7.30788E+03 -7.40457E+03  9.79632E+02 -6.92877E+03 -3.32390E+03
 -3.80308E+03 -7.49075E+03  2.03190E+03 -1.00439E+04  5.01089E+03 -4.80435E+03  7.86279E+03 -1.33303E+03
  3.53592E+03  4.46893E+03  1.35496E+03  4.66300E+03 -9.37578E+02  2.97496E+03 -2.94208E+03  1.44088E+02
 -2.44027E+03 -2.32770E+03  1.96716E+03 -3.14407E+03  3.44294E+03 -1.31963E+03  3.19673E+03  4.65008E+02
  1.75786E+03  8.57186E+02  2.41782E+02  1.34781E+03 -4.37942E+02  1.19788E+03  7.34303E+02 -2.08790E+02
  3.50387E+02  7.91052E+02  3.66083E+03  1.21223E+03  1.03267E+03  4.77889E+03 -6.23398E+02  5.82014E+03
 -3.17965E+03  2.43629E+03 -3.18707E+03  1.44767E+03 -4.34320E+03 -2.12804E+03 -1.45063E+03 -2.60435E+03
  1.20243E+03 -3.41905E+03  2.35555E+03 -1.05421E+03  2.51217E+03  6.25096E+02 -1.27608E+02  2.95082E+03
 -2.64503E+03  8.39039E+02 -1.33904E+03 -2.03666E+03 -3.06014E+03 -4.77712E+03  4.42256E+02 -4.63595E+03
  1.85960E+03 -1.86888E+03  1.76666E+03 -1.25739E+03  2.77687E+03  8.69578E+01  6.83936E+02  1.17339E+03
  7.76361E+02  3.82858E+02 -2.10058E+03 -2.40566E+02  2.04923E+03 -3.07006E+03  3.92133E+03 -1.47901E+03
  4.39477E+03  2.38635E+02  4.00022E+03  2.68761E+03  3.12522E+02  4.39746E+03 -7.49094E+02  3.26132E+03
 -4.07577E+03  1.53649E+03 -3.29813E+03  4.36449E+02 -2.41203E+03 -3.22726E+03  1.70740E+03 -2.90376E+03
  2.66850E+03 -1.28106E+03  2.02762E+03  3.97894E+02  1.93986E+03  2.76810E+03  9.68816E+02  2.95678E+03
 -5.99840E+02  2.95443E+03 -1.19950E+03  4.36312E+01 -6.18351E+01  6.49673E+02 -1.86395E+03  9.09872E+02
 -6.64366E+02  1.81467E+03 -2.45471E+03  1.11664E+03 -3.82783E+03  4.37920E+02 -4.64437E+03 -1.96925E+03
 -2.84382E+03 -5.47367E+03  1.36389E+03 -6.82365E+03  2.89468E+03 -4.83056E+03  5.86087E+03 -2.10748E+03
  5.32860E+03  4.58085E+02  2.66936E+03  4.07398E+03  3.61089E+02  4.85613E+03 -1.73237E+03  2.91485E+03
 -2.45925E+03  1.75235E+03 -1.81897E+03 -5.06395E+02 -6.54729E+02 -8.27623E+01  4.20149E+02  6.41091E+02
 -1.17653E+03  2.99125E+02 -3.16493E+03 -7.12911E+02  2.20417E+02 -1.95968E+03  4.81132E+02 -1.45661E+03
  1.09777E+03  5.30595E+02  2.78173E+03 -1.09117E+02  2.23705E+03  2.75677E+03 -2.38921E+02  3.83591E+03
 -3.27267E+03  4.22357E+03 -5.89548E+03  2.40392E+03 -4.20350E+03  2.02021E+02 -2.74892E+03 -4.42381E+03
 -2.00603E+03 -5.19010E+03  1.52237E+03 -3.32196E+03  1.64640E+03 -2.92750E+03  2.67109E+03 -1.31807E+03
  9.89395E+02  1.58319E+03 -2.40705E+02  1.56222E+03 -1.42270E+03 -7.51856E+02 -4.17637E+01 -1.26644E+03
  1.72667E+03  8.43686E+02  7.25470E+02  1.35421E+03  1.54483E+03  1.39976E+03  8.81903E+02 -2.30299E+01
 -2.11570E+03  1.38043E+02 -1.49567E+03  6.97596E+02 -1.90961E+03 -5.19045E+02 -1.71674E+03 -3.16215E+03
  1.62604E+03 -3.52496E+03  1.76225E+03 -4.96381E+02  2.99824E+03 -1.27560E+03  1.93111E+03  1.97333E+03
  1.08928E+03  2.44473E+03 -1.98981E+03  2.14984E+03 -2.43782E+03  1.05881E+03 -1.49028E+03 -6.57878E+02
 -1.27393E+03  2.95284E+02 -2.18552E+02 -5.05522E+02 -1.77260E+03 -2.99699E+02 -2.82756E+03 -9.53642E+01
 -2.04895E+03 -1.06979E+03 -1.30470E+03 -2.86298E+03  1.94537E+03 -3.22951E+03  2.75661E+03 -1.02493E+03
  1.98221E+03 -7.32689E+02  4.79424E+02  3.00292E+01 -6.45039E+02  3.35514E+03 -1.34109E+03  1.70298E+03
