 $NMID ID='MM_0lb_SNR200_12hz_g40_12.RAW', FMTDAT='(8E13.5)'
 TRAMP=1., VOLUME=1. $END
  3.10430E+05  2.55181E+02  3.38529E+05  2.51337E+05  8.52628E+04  3.36733E+05 -1.32119E+05  2.50955E+05
 -1.89928E+05  8.36580E+04 -1.13056E+05 -3.12761E+04  6.58094E+02 -5.13396E+04  5.25211E+04 -1.01206E+03
  3.60605E+04  5.29579E+04 -1.67551E+04  7.67585E+04 -6.03579E+04  6.33785E+04 -8.39255E+04  3.25839E+04
 -8.07267E+04 -1.24316E+04 -5.79156E+04 -5.19693E+04 -1.63650E+04 -7.08574E+04  2.74321E+04 -4.57552E+04
  4.08879E+04  4.21974E+03  1.63811E+04  4.87837E+04 -3.26759E+04  4.73478E+04 -6.58560E+04  6.99671E+01
 -5.27529E+04 -5.74775E+04 -6.61145E+03 -7.82484E+04  3.38804E+04 -5.48171E+04  4.85654E+04 -1.70620E+04
  4.50393E+04  1.05227E+04  3.32032E+04  2.64311E+04  1.54069E+04  2.83361E+04 -5.57516E+03  2.81505E+04
 -2.21179E+04  1.20359E+04 -1.66103E+04 -5.21605E+03  6.57374E+03 -8.12979E+03  2.16841E+04  1.25824E+04
  6.25472E+03  3.65418E+04 -3.21928E+04  3.52555E+04 -6.37754E+04  3.33121E+03 -5.60064E+04 -4.29281E+04
 -1.22086E+04 -6.45888E+04  4.01112E+04 -4.48826E+04  5.85268E+04 -3.10156E+03  3.58823E+04  3.34128E+04
 -5.47761E+03  3.64459E+04 -3.07135E+04  1.69221E+04 -3.08500E+04 -4.64577E+03 -1.81614E+04 -1.17278E+04
 -8.67306E+03 -1.39077E+04 -1.00504E+03 -1.91819E+04  8.88994E+03 -2.13105E+04  1.56741E+04 -1.32343E+04
  1.03177E+04  5.18828E+03 -8.13586E+03  1.37011E+04 -2.16360E+04 -4.75009E+03 -9.65840E+03 -3.59821E+04
  2.35646E+04 -4.45309E+04  4.97396E+04 -2.03491E+04  4.68549E+04  1.95993E+04  1.61819E+04  4.58709E+04
 -1.51916E+04  3.39459E+04 -2.59698E+04  2.05606E+03 -1.11016E+04 -2.71889E+04  2.14688E+04 -3.63654E+04
  4.08000E+04 -9.53313E+03  3.63986E+04  2.42021E+04  1.95033E+04  4.68290E+04 -9.19218E+03  5.00553E+04
 -3.38288E+04  3.43264E+04 -4.38877E+04  1.15457E+04 -4.36248E+04 -1.59150E+04 -2.43490E+04 -3.90487E+04
  7.74609E+03 -3.88991E+04  3.20143E+04 -1.53371E+04  3.05648E+04  1.03438E+04  4.60707E+03  1.91401E+04
 -1.30110E+04  9.79287E+03 -8.80833E+03 -8.20282E+03  6.70309E+03 -1.16820E+04  1.82403E+04  6.79759E+03
  1.31792E+04  2.11719E+04 -6.21849E+03  2.54893E+04 -2.22720E+04  1.29745E+04 -2.91577E+04 -4.98653E+03
 -2.13984E+04 -1.79390E+04 -9.24700E+03 -2.13452E+04  3.18524E+03 -2.08279E+04  1.58918E+04 -1.92953E+04
  2.67929E+04 -1.28106E+04  3.42339E+04  2.14856E+03  2.31716E+04  2.07029E+04  4.13744E+03  3.71796E+04
 -1.73663E+04  3.14866E+04 -2.82057E+04  1.09386E+04 -2.09878E+04 -9.61205E+03 -4.19545E+03 -1.35492E+04
  1.75118E+03 -2.86638E+03 -6.13211E+03  6.26330E+03 -1.76216E+04  4.48059E+03 -1.70148E+04 -7.73695E+03
 -1.17918E+04 -2.00926E+04  5.72977E+03 -2.35954E+04  1.56375E+04 -1.80008E+04  1.95948E+04 -1.07839E+03
  1.23559E+04  1.27377E+04 -7.66556E+02  1.96889E+04 -1.29558E+04  1.02640E+04 -1.92088E+04 -4.01999E+03
 -1.52274E+04 -1.77599E+04 -2.18581E+03 -2.44672E+04  9.63857E+03 -2.12635E+04  2.07207E+04 -9.38429E+03
  1.89515E+04  1.23049E+02  1.47549E+04  6.05196E+03  6.61633E+03 -1.48324E+01  9.68100E+03 -8.76196E+02
  1.85586E+04  2.77252E+03  2.13296E+04  1.56869E+04  1.34224E+04  3.25046E+04 -2.59701E+03  3.67781E+04
 -2.00656E+04  3.02355E+04 -3.35741E+04  1.48698E+04 -3.63534E+04 -2.14469E+03 -2.78463E+04 -1.96035E+04
 -1.30618E+04 -3.15147E+04  9.83264E+03 -2.71825E+04  2.32232E+04 -1.28864E+04  2.09967E+04  6.19015E+03
  7.41361E+03  1.54218E+04 -8.78301E+03  1.38730E+04 -1.79069E+04  2.69524E+03 -1.42202E+04 -1.11584E+04
  4.79350E+01 -1.45142E+04  6.91012E+03 -1.28475E+04  1.22458E+04 -3.09218E+02  2.48227E+03  5.96333E+03
 -6.94166E+03  2.77437E+03 -7.63205E+03 -6.07746E+03 -4.01654E+02 -1.47620E+04  9.87554E+03 -1.45784E+04
  1.75456E+04 -7.64845E+03  2.03402E+04  3.06118E+03  1.70762E+04  1.46809E+04  7.32330E+03  2.11284E+04
 -4.51204E+03  2.29703E+04 -1.35755E+04  1.71731E+04 -1.65297E+04  2.78304E+03 -1.22486E+04 -4.21548E+03
 -5.40540E+03 -6.55324E+03 -1.27287E+03  4.91870E+02 -3.57598E+03  2.97579E+03 -5.75442E+03  4.65249E+03
 -1.20693E+04 -8.78047E+02 -1.14128E+04 -8.67007E+03 -4.31116E+03 -1.39338E+04  3.80857E+03 -1.23743E+04
  1.03224E+04 -6.30146E+03  7.31263E+03  3.81553E+03 -1.80908E+02  4.59513E+03 -5.96957E+03 -1.62890E+03
 -5.94439E+03 -8.82900E+03 -1.33441E+03 -1.12948E+04  7.27663E+03 -1.31053E+04  1.49682E+04 -6.19297E+03
  1.81718E+04  2.09376E+03  1.30616E+04  1.10240E+04  3.32753E+03  1.35285E+04 -6.60385E+03  1.22574E+04
 -9.47721E+03  2.90238E+03 -5.98760E+03 -2.62343E+03  1.65862E+03 -2.87458E+03  7.62703E+03 -5.28070E+02
  6.31863E+03  5.05894E+03  9.86800E+02  1.07330E+04 -7.33236E+03  1.02154E+04 -1.21747E+04  3.05067E+03
 -7.36043E+03 -6.38449E+03  8.01047E+02 -9.79092E+03  7.17755E+03 -5.50888E+03  7.08252E+03  2.68841E+03
  1.31075E+03  7.27575E+03 -6.07882E+03  7.26336E+03 -9.86399E+03  3.29162E+03 -1.02702E+04 -3.92069E+03
 -5.60738E+03 -1.20226E+04  5.81747E+02 -1.24958E+04  9.75074E+03 -9.28366E+03  1.05850E+04  1.00972E+03
  7.78363E+03  8.86747E+03 -5.15050E+02  1.18936E+04 -8.78573E+03  7.06273E+03 -8.87282E+03 -1.20898E+03
 -8.97801E+03 -6.90040E+03 -1.44120E+03 -9.51827E+03  3.70891E+03 -8.21000E+03  6.07525E+03 -3.60613E+03
  3.15478E+03  1.23206E+03 -3.53192E+02  1.01099E+03 -7.91690E+02 -2.04771E+03  8.45214E+02 -4.41014E+03
  8.17830E+03 -3.90564E+03  1.14026E+04  4.24361E+02  1.10676E+04  5.75148E+03  6.88525E+03  1.43155E+04
 -3.42509E+03  1.72819E+04 -1.30311E+04  1.22246E+04 -1.79613E+04  3.17244E+03 -1.44930E+04 -6.96925E+03
 -7.51003E+03 -1.23507E+04 -1.58833E+02 -1.05036E+04  5.04937E+03 -6.48307E+03  2.57788E+03 -3.89295E+03
  3.06098E+03 -3.14958E+03  2.36097E+03 -2.65698E+03  4.68785E+03 -1.78217E+03  6.12295E+03 -1.16873E+03
  7.59963E+03  1.43083E+03  3.51480E+03  6.84867E+03 -9.20909E+02  7.26825E+03 -8.52608E+03  5.37944E+03
 -8.90472E+03 -4.02272E+02 -5.93967E+03 -6.60310E+03 -5.97069E+02 -1.02393E+04  6.60824E+03 -1.07159E+04
  1.13147E+04 -7.26096E+03  1.33700E+04  2.20351E+03  8.81798E+03  1.01617E+04  1.89336E+03  1.11051E+04
 -4.18546E+03  1.04072E+04 -6.05405E+03  3.08912E+03 -5.20632E+03 -1.43628E+03 -2.79965E+03 -6.53204E+02
 -5.87685E+02  4.06271E+02 -1.35269E+03  2.14227E+03 -4.28762E+03  1.80128E+03 -5.48545E+03 -1.35504E+03
 -4.73888E+03 -6.74550E+03 -7.95518E+01 -1.07068E+04  6.41313E+03 -8.15470E+03  8.73887E+03 -3.00681E+03
  9.00704E+03  4.32859E+03  4.93774E+03  8.50831E+03 -1.74650E+03  9.50955E+03 -6.79324E+03  7.78804E+03
 -9.43040E+03 -1.01044E+02 -7.47262E+03 -5.20141E+03  3.33411E+02 -8.47677E+03  2.67740E+03 -6.23796E+03
  5.33766E+03 -3.27836E+03  3.04795E+03  1.30409E+03  1.11262E+03  4.01657E+03  7.93367E+01  1.28942E+03
  1.22084E+03 -6.16730E+01  1.24847E+03  1.11537E+03  3.36466E+03  3.31640E+03  2.43874E+03  4.54745E+03
 -2.52326E+03  7.52774E+03 -7.30896E+03  8.59528E+03 -9.44210E+03  2.65208E+03 -9.54976E+03 -2.08294E+03
 -4.40317E+03 -9.53236E+03  1.78336E+02 -1.19512E+04  5.71415E+03 -8.10828E+03  7.08569E+03 -1.79563E+03
  5.62645E+03  3.56901E+03  7.10403E+02  5.01361E+03 -2.73153E+03  2.97675E+03 -3.53777E+03 -1.06006E+02
 -2.66137E+03 -2.58312E+03  2.39559E+03 -3.44651E+03  3.99662E+03 -1.48254E+03  3.59665E+03  1.48388E+03
  1.92817E+03  9.53692E+02  6.77367E+02  9.34719E+02 -4.82173E+02  2.51090E+03  2.03047E+03 -3.05634E+02
 -1.12746E+02 -4.31439E+01  2.62279E+03  1.84307E+03  1.36934E+03  4.77446E+03 -1.21532E+03  6.60366E+03
 -5.77461E+03  3.70965E+03 -6.67203E+03  1.08276E+03 -5.56056E+03 -2.07196E+03 -1.33434E+03 -3.23159E+03
  1.11338E+03 -4.04641E+03  2.97109E+03 -2.21988E+03  1.98436E+03  2.31845E+03 -1.21553E+03  3.00827E+03
 -2.85095E+03  2.71105E+03 -4.49931E+03 -3.73008E+03 -1.40086E+03 -4.96284E+03  7.51711E+02 -4.78100E+03
  3.35560E+03 -2.65539E+03  3.27190E+03  7.73823E+01  1.82888E+03  2.22102E+02 -8.55173E+02  1.98033E+03
 -1.84491E+03 -1.92228E+02 -1.84127E+03 -2.40170E+03  2.75117E+02 -3.92720E+03  3.56131E+03 -3.44569E+03
  4.50398E+03  4.56320E+02  6.10204E+03  3.17447E+03  2.56524E+03  6.14740E+03 -2.28178E+03  5.65748E+03
 -5.47787E+03  2.16514E+03 -5.12278E+03 -1.94556E+02 -3.01551E+03 -3.51575E+03  3.55422E+02 -3.77746E+03
  4.06744E+03 -1.78465E+03  4.14723E+03  1.97445E+03  8.68366E+02  3.38557E+03  7.85210E+01  1.83717E+03
 -2.74093E+03  2.44557E+03 -7.77485E+02  7.23865E+02 -1.45598E+02  8.01283E+02 -1.26554E+03  7.57257E+02
 -1.96815E+03  1.75966E+03 -5.00493E+03  1.59469E+03 -5.32634E+03 -1.10997E+02 -6.06946E+03 -4.13358E+03
 -3.77764E+03 -6.44543E+03  1.13204E+03 -1.01217E+04  4.38833E+03 -6.36598E+03  8.88300E+03 -2.75717E+03
  8.22813E+03  1.38444E+03  4.66260E+03  4.93496E+03  1.50962E+02  6.76624E+03 -2.99246E+03  3.08025E+03
 -2.59447E+03  1.84669E+03 -2.91308E+03 -6.49918E+02 -1.34849E+03 -6.75794E+02 -7.24704E+02 -8.58952E+01
 -4.20086E+02  2.61918E+02 -2.47905E+03 -8.57293E+02  3.68914E+02 -5.68951E+02 -6.28101E+02 -3.06856E+03
  2.06934E+03 -2.58421E+03  3.21390E+03  7.46005E+02  5.68814E+03  3.67864E+03  2.10696E+02  5.39081E+03
 -3.77804E+03  6.34573E+03 -6.45818E+03  2.51075E+03 -7.22914E+03  1.21780E+02 -4.77280E+03 -3.20282E+03
 -2.68240E+03 -4.89692E+03  2.78071E+03 -5.50281E+03  3.73460E+03 -1.67360E+03  3.46084E+03  1.34792E+03
  2.44792E+03  9.72291E+02 -6.76771E+02  8.42142E+02 -1.05903E+03 -3.29151E+02  1.33823E+03 -3.17248E+02
  1.83909E+03 -9.04661E+02  2.27867E+03  2.24556E+03  1.04830E+03  2.42204E+03  1.25514E+03  2.52786E+03
 -3.72688E+03  2.96555E+03 -3.32328E+03 -3.05470E+02 -4.03978E+03 -3.70249E+03 -1.25420E+03 -5.14252E+03
  2.11518E+03 -3.24586E+03  3.91389E+03 -1.26226E+03  3.69148E+03  1.08426E+02  1.31227E+03  3.69651E+03
  1.47029E+02  3.33039E+03 -2.50020E+02  3.24463E+03 -9.48220E+02  9.61859E+02 -5.46528E+02 -1.08965E+03
 -1.13220E+03 -3.63493E+02 -9.68589E+02  4.56805E+02 -1.51763E+03  7.28799E+02 -2.26145E+03  2.27778E+02
 -4.29074E+03 -1.33368E+03 -1.31887E+03 -2.78947E+03  2.17829E+03 -4.68557E+03  4.34491E+03 -1.01707E+03
  2.83360E+03 -5.39823E+02  6.84609E+02  2.54398E+03 -1.16175E+03  4.49906E+03 -2.11846E+03  9.32310E+02
