 $NMID ID='MM_0lb_SNR200_13hz_g40_41.RAW', FMTDAT='(8E13.5)'
 TRAMP=1., VOLUME=1. $END
  3.09737E+05  1.60153E+03  3.38324E+05  2.50491E+05  8.40438E+04  3.37647E+05 -1.31374E+05  2.52012E+05
 -1.89250E+05  8.23800E+04 -1.12095E+05 -3.37040E+04  9.56804E+02 -5.10798E+04  5.33037E+04  2.41667E+01
  3.60799E+04  5.27240E+04 -1.56225E+04  7.65105E+04 -6.06785E+04  6.33763E+04 -8.32272E+04  3.12994E+04
 -8.15987E+04 -1.15621E+04 -5.80998E+04 -5.02929E+04 -1.43871E+04 -6.99533E+04  2.69354E+04 -4.70822E+04
  4.08606E+04  3.64826E+03  1.58918E+04  4.79063E+04 -3.49414E+04  4.64310E+04 -6.61123E+04 -1.93418E+02
 -5.38301E+04 -5.68812E+04 -7.15076E+03 -7.72302E+04  3.29627E+04 -5.39855E+04  4.88176E+04 -1.71931E+04
  4.26547E+04  1.21272E+04  3.05546E+04  2.58481E+04  1.55624E+04  2.91408E+04 -5.04896E+03  2.81059E+04
 -2.31948E+04  1.16901E+04 -1.81214E+04 -4.72608E+03  5.26643E+03 -7.08493E+03  2.27753E+04  1.25121E+04
  6.87011E+03  3.67563E+04 -3.18112E+04  3.59766E+04 -6.38359E+04  1.93788E+03 -5.68077E+04 -4.20756E+04
 -1.23709E+04 -6.36659E+04  4.00215E+04 -4.47025E+04  5.73945E+04 -1.69228E+03  3.32836E+04  3.24641E+04
 -6.07354E+03  3.67259E+04 -2.96544E+04  1.60218E+04 -3.13031E+04 -3.41018E+03 -1.74509E+04 -1.10469E+04
 -8.15585E+03 -1.42382E+04 -4.07109E+02 -1.90159E+04  8.64371E+03 -2.34446E+04  1.60375E+04 -1.38725E+04
  1.18812E+04  5.85262E+03 -7.97058E+03  1.30373E+04 -2.01805E+04 -4.01107E+03 -9.03869E+03 -3.35114E+04
  2.29551E+04 -4.38238E+04  4.73003E+04 -1.95406E+04  4.46267E+04  1.98277E+04  1.60514E+04  4.48552E+04
 -1.56022E+04  3.33147E+04 -2.53816E+04  1.82123E+03 -9.17271E+03 -2.71096E+04  2.12001E+04 -3.40655E+04
  4.02698E+04 -9.01282E+03  3.49745E+04  2.34919E+04  1.95180E+04  4.73561E+04 -7.46064E+03  4.99745E+04
 -3.17271E+04  3.49424E+04 -4.24739E+04  8.74343E+03 -4.20699E+04 -1.59991E+04 -2.46418E+04 -3.78329E+04
  5.80847E+03 -3.69334E+04  3.13271E+04 -1.46913E+04  2.87795E+04  1.00628E+04  4.77304E+03  1.91986E+04
 -1.19327E+04  7.80300E+03 -1.05740E+04 -7.55220E+03  5.76351E+03 -1.05298E+04  1.74165E+04  5.44375E+03
  1.32997E+04  2.27609E+04 -6.11660E+03  2.48963E+04 -2.17680E+04  1.02991E+04 -2.84547E+04 -5.29700E+03
 -2.06559E+04 -1.66946E+04 -8.50836E+03 -1.97586E+04  5.08832E+03 -1.94866E+04  1.56113E+04 -1.84053E+04
  2.64592E+04 -1.21204E+04  3.29947E+04  2.88924E+03  2.29032E+04  2.13261E+04  4.35522E+03  3.61396E+04
 -1.81370E+04  3.04843E+04 -2.78549E+04  9.89314E+03 -2.15174E+04 -1.07327E+04 -5.68020E+03 -1.30274E+04
  2.94965E+03 -3.43055E+03 -4.28050E+03  6.78536E+03 -1.61015E+04  6.55159E+03 -1.69944E+04 -6.63922E+03
 -1.08997E+04 -1.99647E+04  5.10555E+03 -2.32524E+04  1.53587E+04 -1.73511E+04  1.83789E+04 -2.08299E+03
  1.04286E+04  1.40143E+04 -9.86311E+02  1.99793E+04 -1.39859E+04  1.03164E+04 -1.86408E+04 -3.83212E+03
 -1.50051E+04 -1.75989E+04 -2.01659E+03 -2.29878E+04  1.17462E+04 -1.80609E+04  1.77442E+04 -1.01725E+04
  1.73020E+04 -9.28593E+02  1.28194E+04  3.62712E+03  7.65626E+03  2.17882E+02  1.07250E+04 -2.39192E+03
  1.77376E+04  2.06841E+03  1.87171E+04  1.47581E+04  1.21145E+04  3.03926E+04 -1.92196E+03  3.46295E+04
 -2.03965E+04  2.80344E+04 -3.24179E+04  1.35638E+04 -3.39861E+04 -3.75098E+03 -2.75415E+04 -1.80214E+04
 -1.25629E+04 -2.73249E+04  9.60686E+03 -2.43184E+04  2.08361E+04 -1.26309E+04  2.02681E+04  5.38512E+03
  7.44337E+03  1.50474E+04 -8.61068E+03  1.39763E+04 -1.63515E+04  2.36147E+03 -1.26406E+04 -1.05117E+04
 -1.11715E+03 -1.57742E+04  7.58373E+03 -1.11257E+04  1.02198E+04 -2.37110E+03  3.37746E+03  7.18811E+03
 -6.84665E+03  2.01447E+03 -6.73917E+03 -6.12229E+03 -6.46449E+02 -1.34116E+04  8.25080E+03 -1.36486E+04
  1.85644E+04 -7.67340E+03  1.78560E+04  1.55740E+03  1.68455E+04  1.38323E+04  6.04195E+03  2.07696E+04
 -3.10449E+03  2.30462E+04 -1.36658E+04  1.30717E+04 -1.64108E+04  4.14974E+03 -1.05282E+04 -4.77789E+03
 -5.82078E+03 -4.32528E+03 -1.32859E+03  3.30668E+02 -2.53149E+03  1.43476E+03 -5.48068E+03  2.89172E+03
 -9.72060E+03 -3.09686E+02 -1.16004E+04 -9.74116E+03 -4.44374E+03 -1.39705E+04  5.53171E+03 -1.14806E+04
  8.78016E+03 -5.77925E+03  7.26873E+03  3.47985E+03 -5.52185E+02  4.91422E+03 -5.92099E+03 -4.62386E+01
 -4.81168E+03 -6.64008E+03 -1.18854E+03 -1.01784E+04  7.09253E+03 -1.15443E+04  1.50969E+04 -4.58210E+03
  1.66265E+04  2.72553E+03  1.16204E+04  9.18519E+03  1.54366E+03  1.33874E+04 -7.98845E+03  1.10176E+04
 -9.49078E+03  4.18933E+03 -5.45904E+03 -2.23567E+03  9.52658E+02 -2.14048E+03  7.80169E+03 -1.28002E+03
  5.58766E+03  5.25775E+03  9.34555E+02  9.66605E+03 -6.99327E+03  7.68904E+03 -1.04489E+04  1.78161E+03
 -7.01641E+03 -6.45784E+03 -3.30175E+02 -8.11562E+03  6.60828E+03 -5.54207E+03  6.42513E+03  1.54489E+03
  2.18217E+03  6.45389E+03 -5.59878E+03  7.30825E+03 -8.38096E+03  3.18913E+03 -9.53634E+03 -3.62668E+03
 -5.80775E+03 -9.29559E+03  2.04593E+03 -1.18756E+04  1.02080E+04 -5.88023E+03  1.00312E+04  1.57488E+03
  6.04695E+03  9.58909E+03  1.15299E+02  1.07066E+04 -7.44807E+03  6.76978E+03 -9.64666E+03 -4.93166E+02
 -6.64205E+03 -6.56031E+03 -2.65461E+03 -7.43447E+03  4.13424E+03 -6.40245E+03  4.85906E+03 -2.46708E+03
  4.65978E+03  1.57302E+03  1.06147E+03  2.37394E+03  4.65039E+02 -1.48216E+03  1.79516E+03 -5.21626E+03
  8.41183E+03 -2.66104E+03  1.04014E+04  1.94434E+03  9.25274E+03  5.54204E+03  6.55785E+03  1.39647E+04
 -4.08020E+03  1.57773E+04 -1.38563E+04  1.08269E+04 -1.64501E+04  1.02280E+03 -1.33418E+04 -5.72540E+03
 -7.74285E+03 -1.05866E+04 -1.14445E+03 -8.33525E+03  3.28234E+03 -4.93557E+03  2.88098E+03 -3.61161E+03
  1.99635E+03 -1.21541E+03  2.97948E+03 -3.53372E+03  3.09427E+03 -1.72988E+03  5.73727E+03 -5.32020E+02
  8.06294E+03  1.57684E+03  2.93829E+03  6.03037E+03 -6.11451E+02  5.74800E+03 -6.46870E+03  5.81291E+03
 -9.79372E+03 -8.60939E+02 -4.62742E+03 -6.30557E+03 -4.27729E+02 -9.80931E+03  5.29257E+03 -1.00236E+04
  9.91533E+03 -4.92994E+03  1.16897E+04  5.39825E+02  7.15731E+03  8.66077E+03  2.07841E+03  1.11026E+04
 -4.95783E+03  8.98727E+03 -5.72458E+03  2.20502E+03 -4.22168E+03 -1.53891E+03 -9.23772E+02 -1.54199E+03
 -8.15894E+01  1.56617E+02 -9.28403E+02  2.36597E+03 -3.99224E+03  1.66665E+03 -6.50082E+03  2.98069E+02
 -3.14112E+03 -6.56306E+03  1.14981E+03 -8.00679E+03  6.40100E+03 -7.48716E+03  8.68840E+03 -2.85802E+03
  8.54370E+03  5.35857E+03  3.06857E+03  7.98302E+03 -3.58695E+03  1.01913E+04 -5.59283E+03  5.52526E+03
 -8.58599E+03  6.94221E+02 -5.50716E+03 -3.57774E+03 -1.72507E+03 -6.91553E+03  2.72485E+03 -4.82318E+03
  5.08337E+03 -2.17602E+03  3.09231E+03  1.95341E+03  6.24905E+02  2.74772E+03  5.02885E+02  5.87016E+02
  1.79386E+03  1.78067E+03  2.67968E+03  1.19107E+03  1.15925E+03  1.98710E+03  2.04121E+03  4.80873E+03
 -2.51211E+03  6.84280E+03 -4.57684E+03  8.10712E+03 -8.60718E+03  1.27517E+03 -9.58710E+03 -2.42113E+03
 -3.80387E+03 -8.16304E+03  1.98562E+03 -9.80769E+03  5.32643E+03 -5.51620E+03  6.50771E+03 -2.75165E+03
  5.26007E+03  2.31199E+03  1.69232E+03  3.55485E+03 -2.52973E+03  2.49988E+03 -4.41360E+03 -9.67748E+02
 -1.10028E+03 -3.93204E+03  2.16905E+03 -3.62288E+03  3.11692E+03 -1.37909E+03  3.48499E+03  6.07047E+02
  1.49438E+03  2.45207E+03  6.19567E+01  2.07476E+03 -8.66052E+02  1.57564E+03  1.10411E+03 -1.31324E+03
  2.15273E+03 -4.14309E+02  3.15373E+03  1.28461E+03  1.11987E+03  4.33641E+03 -8.07617E+02  4.52982E+03
 -3.81949E+03  3.53806E+03 -2.81028E+03  9.28188E+02 -3.87134E+03 -2.48092E+03 -8.83433E+02 -2.59437E+03
  1.70644E+02 -2.74464E+03  1.89067E+03 -8.84073E+02  1.88869E+03  2.14931E+03 -1.69733E+03  2.25253E+03
 -3.23040E+03  9.43633E+02 -3.53111E+03 -2.62389E+03 -2.24827E+03 -3.15537E+03  2.06318E+03 -3.74415E+03
  2.03281E+03 -3.65453E+03  2.87734E+03  8.97688E+02  2.01512E+03  2.58392E+03 -5.91130E+02  2.39101E+03
 -1.03893E+03  6.77108E+02 -3.19825E+03 -1.59382E+03  1.51139E+02 -2.26961E+03  2.66619E+03 -2.77845E+03
  4.45672E+03 -2.10503E+02  5.42888E+03  1.76480E+03  1.10193E+03  5.04472E+03 -1.91667E+03  5.12342E+03
 -2.70583E+03  2.60018E+03 -3.71725E+03 -6.35267E+02 -2.08122E+03 -3.46669E+03 -9.71603E+01 -2.48181E+03
  2.84292E+03 -1.94695E+03  1.57498E+03  2.65378E+02  2.51975E+02  4.24602E+03 -5.28383E+02  2.60196E+03
 -6.57565E+02  1.22252E+03 -2.07202E+03  1.11954E+03 -2.10354E+01  1.51824E+03 -5.46420E+02  1.96510E+03
 -1.51692E+03  2.73747E+03 -4.89854E+03  1.57763E+03 -4.80837E+03 -6.56053E+02 -5.98478E+03 -5.15363E+03
 -2.15262E+03 -7.15307E+03  6.48813E+02 -7.90679E+03  3.54601E+03 -5.79429E+03  7.79842E+03 -1.92804E+03
  6.44921E+03  8.07423E+02  2.31543E+03  4.36033E+03 -1.13967E+02  5.22978E+03 -1.79717E+03  2.71952E+03
 -1.63588E+03  8.98444E+02 -1.96462E+03 -1.10787E+03 -8.84601E+02 -4.49757E+02 -8.86298E+02 -3.80499E+02
 -1.98804E+03  4.80927E+01 -1.57396E+03  8.75828E+02  5.49980E+02 -1.00226E+03  6.73571E+02 -2.17196E+03
  3.39407E+03 -2.33859E+03  2.15115E+03  2.24107E+02  3.00855E+03  2.41547E+03 -3.09796E+02  4.78427E+03
 -1.69884E+03  5.27700E+03 -4.65752E+03  4.49194E+03 -4.71313E+03 -9.52082E+02 -4.17526E+03 -5.14926E+03
 -2.70391E+03 -5.39614E+03 -6.31949E+02 -4.00532E+03  2.32859E+03 -2.39897E+03  3.95240E+03 -2.92861E+02
  1.67122E+03  8.04492E+02  3.19688E+02  1.14566E+03 -1.80862E+03  9.45003E+02  3.48905E+01 -6.10641E+02
  7.03867E+02 -6.25471E+01  1.53210E+02  8.07359E+02  6.10706E+02  2.11443E+03 -1.96145E+02  2.25368E+03
 -1.56126E+03  2.96972E+03 -3.37218E+03  1.48396E+03 -2.22383E+03 -1.88283E+03 -3.11924E+02 -4.09857E+03
  2.70979E+03 -3.51849E+03  4.14106E+03 -8.20243E+02  4.24678E+03  5.57311E+02  2.62290E+03  3.75460E+03
  4.12588E+02  3.06559E+03 -9.31500E+02  1.30807E+03 -3.65307E+03  1.12167E+03 -1.69438E+03 -1.22079E+03
 -1.12672E+03 -6.12319E+02 -1.01304E+03  2.37381E+02 -1.15045E+03 -3.51934E+02 -2.35297E+03 -4.59374E+02
 -1.53125E+03 -8.03664E+02  2.57907E+02 -3.47822E+03  7.26015E+02 -2.66486E+03  1.45627E+03 -9.66789E+02
  4.19915E+03  1.50103E+03  1.93656E+03  2.23826E+03 -1.58566E+03  1.69918E+03 -1.96273E+03  4.33462E+02
