 $NMID ID='MM_0lb_SNR200_11hz_g40_74.RAW', FMTDAT='(8E13.5)'
 TRAMP=1., VOLUME=1. $END
  3.10100E+05  1.03326E+03  3.36342E+05  2.50142E+05  8.48690E+04  3.37393E+05 -1.32531E+05  2.50427E+05
 -1.90363E+05  8.28308E+04 -1.12468E+05 -3.31991E+04  1.63868E+02 -5.02305E+04  5.36027E+04 -7.39707E+01
  3.59061E+04  5.34119E+04 -1.69266E+04  7.63015E+04 -6.04114E+04  6.43336E+04 -8.53922E+04  3.27444E+04
 -8.30233E+04 -1.08522E+04 -5.78460E+04 -5.23280E+04 -1.50892E+04 -6.92511E+04  2.73082E+04 -4.55938E+04
  4.11524E+04  4.10457E+03  1.62325E+04  4.71933E+04 -3.29917E+04  4.73062E+04 -6.61893E+04 -1.09318E+03
 -5.46473E+04 -5.85240E+04 -7.53808E+03 -7.74226E+04  3.49620E+04 -5.53848E+04  4.82490E+04 -1.76470E+04
  4.37482E+04  1.25584E+04  3.19979E+04  2.64843E+04  1.65389E+04  3.03160E+04 -6.64557E+03  2.70836E+04
 -2.20947E+04  1.19697E+04 -1.77321E+04 -3.72040E+03  6.52821E+03 -7.41374E+03  2.18567E+04  1.23919E+04
  6.21839E+03  3.67745E+04 -3.31453E+04  3.54212E+04 -6.44795E+04  4.07590E+03 -5.78467E+04 -4.29976E+04
 -1.31352E+04 -6.52542E+04  4.09456E+04 -4.59706E+04  6.01878E+04 -2.16049E+03  3.44508E+04  3.25404E+04
 -6.60072E+03  3.65061E+04 -2.98124E+04  1.74632E+04 -3.11998E+04 -4.40982E+03 -1.75504E+04 -1.23055E+04
 -9.83906E+03 -1.34526E+04 -1.14362E+03 -1.97218E+04  8.33283E+03 -2.34470E+04  1.62303E+04 -1.22393E+04
  1.21445E+04  4.80981E+03 -9.06991E+03  1.25177E+04 -2.28177E+04 -4.84412E+03 -8.10717E+03 -3.50463E+04
  2.32559E+04 -4.41634E+04  5.02010E+04 -2.05765E+04  4.64557E+04  1.94157E+04  1.62438E+04  4.62460E+04
 -1.69895E+04  3.36072E+04 -2.53779E+04  1.80514E+03 -1.05080E+04 -2.71639E+04  2.06560E+04 -3.51027E+04
  4.17696E+04 -1.09979E+04  3.71444E+04  2.40516E+04  1.93573E+04  4.71716E+04 -8.75397E+03  5.22376E+04
 -3.34333E+04  3.64638E+04 -4.16487E+04  8.84303E+03 -4.46554E+04 -1.85098E+04 -2.45627E+04 -3.96917E+04
  8.95116E+03 -4.09110E+04  3.23834E+04 -1.51431E+04  3.09284E+04  1.00220E+04  4.61617E+03  1.88527E+04
 -1.29869E+04  9.48422E+03 -1.07603E+04 -7.42524E+03  3.51107E+03 -1.15749E+04  1.78190E+04  5.97694E+03
  1.31876E+04  1.97446E+04 -5.94614E+03  2.51879E+04 -2.32424E+04  1.42976E+04 -2.92934E+04 -3.73178E+03
 -2.32957E+04 -1.74832E+04 -1.04437E+04 -2.41984E+04  6.12701E+03 -2.14385E+04  1.78710E+04 -2.06741E+04
  2.89980E+04 -1.34882E+04  3.44751E+04  2.66449E+03  2.46616E+04  2.22564E+04  3.46294E+03  3.84063E+04
 -1.94583E+04  3.10754E+04 -2.89958E+04  1.13797E+04 -2.15615E+04 -1.09963E+04 -4.47005E+03 -1.24548E+04
  4.91752E+02 -2.45314E+03 -6.16560E+03  8.98407E+03 -1.77713E+04  4.33673E+03 -1.71715E+04 -7.31061E+03
 -1.11170E+04 -1.96698E+04  6.14936E+03 -2.57988E+04  1.66083E+04 -1.70003E+04  1.94824E+04 -4.47776E+02
  1.42719E+04  1.35329E+04  2.28180E+02  2.08187E+04 -1.38310E+04  1.28885E+04 -2.07301E+04 -4.73817E+03
 -1.46556E+04 -1.73522E+04 -2.85593E+03 -2.64208E+04  1.11685E+04 -2.03148E+04  2.10449E+04 -9.82929E+03
  1.89432E+04 -7.60206E+02  1.33653E+04  4.54050E+03  8.10206E+03  2.69025E+03  1.07336E+04 -1.75185E+03
  1.88129E+04  3.49558E+03  2.24684E+04  1.54982E+04  1.47349E+04  3.33227E+04 -2.66211E+03  3.79766E+04
 -2.16980E+04  3.08141E+04 -3.51607E+04  1.54533E+04 -3.95647E+04 -1.60321E+03 -3.09425E+04 -2.24579E+04
 -1.37282E+04 -3.11504E+04  1.04415E+04 -2.90225E+04  2.52828E+04 -1.30864E+04  2.12720E+04  6.31980E+03
  8.57939E+03  1.49438E+04 -9.36260E+03  1.48644E+04 -1.69933E+04  3.54155E+03 -1.36876E+04 -9.85189E+03
 -6.63026E+01 -1.79814E+04  8.43586E+03 -1.35060E+04  1.07863E+04 -1.26393E+02  3.18468E+03  8.14869E+03
 -7.21294E+03  3.65524E+03 -7.46361E+03 -6.10425E+03 -2.87647E+03 -1.49997E+04  1.18745E+04 -1.57070E+04
  1.93076E+04 -9.26214E+03  2.23627E+04  2.52371E+03  1.91726E+04  1.47396E+04  7.96718E+03  2.43814E+04
 -4.21242E+03  2.64539E+04 -1.72817E+04  1.65986E+04 -1.78192E+04  5.81456E+03 -1.27966E+04 -3.73082E+03
 -5.83284E+03 -4.33078E+03 -3.51884E+02  1.16557E+03 -1.90102E+03  3.57865E+03 -6.13831E+03  5.54346E+03
 -1.23119E+04 -1.23329E+03 -1.34210E+04 -1.03049E+04 -4.87526E+03 -1.58762E+04  5.27305E+03 -1.36244E+04
  1.10423E+04 -4.50347E+03  8.47099E+03  3.91987E+03  3.04373E+02  5.50754E+03 -5.90478E+03  1.15811E+03
 -6.01054E+03 -8.03432E+03 -1.58847E+03 -1.27301E+04  5.88575E+03 -1.47190E+04  1.69843E+04 -6.66813E+03
  2.03585E+04  1.74267E+03  1.37887E+04  1.23121E+04  3.04046E+03  1.37612E+04 -7.33594E+03  1.29116E+04
 -9.51846E+03  5.42505E+03 -4.68278E+03 -2.22043E+03  4.24584E+02 -2.54629E+03  8.22678E+03 -4.64171E+00
  6.38172E+03  6.95566E+03  7.84911E+02  9.98593E+03 -6.96253E+03  8.77160E+03 -1.32841E+04  3.50164E+03
 -9.45467E+03 -5.93466E+03 -4.20423E+02 -1.00379E+04  7.27485E+03 -3.62237E+03  8.25021E+03  1.63625E+03
  2.24678E+03  7.72044E+03 -6.71475E+03  9.22044E+03 -1.06854E+04  4.87848E+03 -1.04597E+04 -4.94431E+03
 -7.05612E+03 -1.15697E+04  3.15616E+03 -1.38611E+04  1.18744E+04 -8.73627E+03  1.23130E+04  2.56471E+03
  8.23258E+03  1.06291E+04 -2.08552E+02  1.34116E+04 -8.23483E+03  6.41742E+03 -1.07392E+04 -1.89206E+03
 -9.41423E+03 -8.58409E+03 -2.22600E+03 -9.85534E+03  5.13373E+03 -9.21164E+03  6.03254E+03 -2.30517E+03
  4.44519E+03  3.96535E+02 -1.47242E+03  1.10340E+03 -3.39538E+02 -2.94638E+03  7.61800E+02 -4.35727E+03
  8.51238E+03 -3.67779E+03  1.17639E+04  1.31009E+03  1.28856E+04  9.55274E+03  7.81291E+03  1.56660E+04
 -3.14705E+03  1.94421E+04 -1.52511E+04  1.44911E+04 -1.98151E+04  1.68505E+03 -1.61373E+04 -8.64098E+03
 -7.52139E+03 -1.27059E+04  7.18640E+02 -1.16695E+04  3.01699E+03 -6.21438E+03  2.91034E+03 -4.57387E+03
  3.50023E+03 -2.34147E+03  4.18052E+03 -3.11017E+03  5.23878E+03 -1.87953E+03  6.09070E+03 -8.18180E+02
  8.44567E+03  2.02660E+03  2.80146E+03  6.87892E+03 -2.32058E+03  9.02860E+03 -1.01713E+04  7.44631E+03
 -1.04600E+04 -7.61994E+02 -6.24918E+03 -8.32655E+03 -1.01527E+03 -1.24165E+04  6.90209E+03 -1.24350E+04
  1.23199E+04 -4.77305E+03  1.44511E+04  2.10810E+03  1.15734E+04  1.04759E+04  1.34268E+03  1.24110E+04
 -5.75116E+03  1.14375E+04 -9.06625E+03  3.70475E+03 -5.05669E+03 -1.87499E+03 -3.30902E+03 -1.02886E+03
 -6.22711E+02 -5.75137E+02 -1.77930E+03  2.81008E+03 -5.69549E+03  2.26238E+03 -7.20146E+03 -2.71271E+02
 -5.67928E+03 -7.67586E+03  5.52607E+02 -1.04900E+04  7.54980E+03 -1.00072E+04  1.11286E+04 -4.36614E+03
  1.17799E+04  5.85702E+03  4.86607E+03  1.02832E+04 -1.79234E+03  1.09165E+04 -8.08047E+03  6.97815E+03
 -1.02116E+04 -1.14217E+03 -7.05382E+03 -8.05981E+03 -3.74830E+02 -8.47301E+03  3.65423E+03 -6.95166E+03
  6.91894E+03 -2.65825E+03  4.68269E+03  1.26735E+03  1.32001E+03  2.66742E+03  1.44238E+03  3.23516E+03
  2.26586E+03  1.52886E+03  2.65473E+03  8.23565E+02  3.30247E+03  3.92983E+03  3.72729E+03  6.57618E+03
 -2.18717E+03  7.92188E+03 -7.79174E+03  8.32246E+03 -1.11839E+04  3.19088E+03 -1.13770E+04 -2.88768E+03
 -6.36888E+03 -1.10442E+04  1.80985E+03 -1.20818E+04  7.60604E+03 -8.13434E+03  8.49668E+03 -2.14385E+03
  7.99531E+03  3.94209E+03  1.73310E+03  6.51757E+03 -3.30313E+03  4.48075E+03 -3.30287E+03 -1.30240E+03
 -2.35851E+03 -5.33268E+03  3.99529E+03 -4.84754E+03  4.84381E+03 -2.86634E+03  3.27224E+03  2.27780E+03
  2.59729E+03  2.50802E+03  4.09887E+02  1.81138E+03 -5.59237E+02  1.10848E+03  3.80211E+02 -1.90668E+03
  3.21731E+03  2.73280E+02  4.04391E+03  1.84577E+03  2.35002E+03  5.68176E+03 -1.38818E+03  8.32839E+03
 -6.03474E+03  4.93659E+03 -7.62172E+03  1.53536E+03 -6.40498E+03 -2.59148E+03 -2.90487E+03 -3.75296E+03
  1.34790E+03 -4.40643E+03  2.49955E+03 -2.52323E+03  3.74125E+03  2.19597E+03  5.44590E+02  2.95252E+03
 -5.28130E+03  9.72763E+02 -4.94912E+03 -2.36109E+03 -2.78520E+03 -6.20913E+03  6.56445E+02 -7.49175E+03
  4.23472E+03 -2.90349E+03  3.49048E+03 -8.73646E+02  3.86544E+03  1.07787E+03  4.27600E+02  3.82844E+03
 -1.01767E+03  7.35932E+02 -2.68603E+03 -1.27430E+03  1.42381E+03 -4.94798E+03  5.30619E+03 -3.32014E+03
  5.97325E+03  7.52569E+02  6.23502E+03  4.10606E+03  1.42753E+03  7.01692E+03 -2.77009E+03  5.37546E+03
 -5.41878E+03  2.87991E+03 -5.09947E+03  3.56847E+02 -4.40893E+03 -3.84287E+03  4.72060E+02 -4.76507E+03
  4.99425E+03 -2.63909E+03  3.29400E+03  2.41463E+03  5.47070E+02  5.49101E+03 -6.49393E+02  3.42138E+03
 -1.04326E+03  2.95102E+03 -2.12457E+03  2.80389E+02 -1.33166E+03  6.15503E+02 -2.87269E+03  1.49761E+03
 -2.08250E+03  2.97914E+03 -4.85428E+03  1.42368E+03 -6.22711E+03 -1.36207E+03 -8.37490E+03 -3.22427E+03
 -4.03387E+03 -8.69941E+03  1.31761E+03 -1.17353E+04  6.03992E+03 -8.32790E+03  1.05393E+04 -2.35032E+03
  7.94746E+03  1.73661E+03  4.05655E+03  5.70965E+03  7.50786E+02  8.14730E+03 -4.61550E+03  4.12208E+03
 -2.94512E+03  1.56002E+03 -1.97824E+03  1.59360E+01 -1.59103E+03 -1.93574E+03 -2.13382E+02  1.05750E+03
 -1.70477E+03 -2.62698E+02 -2.39782E+03  4.25598E+02  5.17794E+02 -3.13050E+02 -5.20343E+02 -1.35409E+03
  2.76870E+03 -2.85146E+03  4.28578E+03 -3.77709E+01  5.38422E+03  3.52646E+03  3.31493E+02  7.85528E+03
 -2.91290E+03  8.42296E+03 -7.52828E+03  4.99112E+03 -6.75163E+03 -1.86689E+03 -5.88871E+03 -4.20207E+03
 -3.71055E+03 -7.73546E+03  2.01700E+03 -4.10696E+03  4.65698E+03 -3.17406E+03  5.20825E+03 -3.21103E+02
  2.00082E+03  2.65395E+03  6.64664E+01  2.71584E+03 -2.01816E+03 -5.69810E+02  1.67385E+03 -1.86604E+03
  2.63560E+03  1.00903E+02  2.47082E+03  1.69863E+03  2.54141E+03  1.99260E+03  1.50769E+02  2.33778E+03
 -1.87861E+03  1.54217E+03 -4.09576E+03  4.11547E+02 -3.19575E+03 -3.92218E+03 -9.56965E+02 -6.98909E+03
  3.38994E+03 -4.09362E+03  4.97414E+03 -1.84080E+03  4.22930E+03  1.57313E+03  2.52265E+03  5.08709E+03
 -2.17446E+02  2.96967E+03 -7.98952E+02  3.04048E+03 -1.88748E+03  3.48000E+03 -2.66378E+03  1.24364E+03
  7.53883E+01 -2.67357E+00 -1.21176E+03 -9.18662E+02 -2.56279E+03  8.06439E+02 -3.34038E+03 -4.18134E+01
 -3.95230E+03 -2.89848E+03 -6.90595E+02 -4.36335E+03  2.42653E+03 -5.75250E+03  4.20680E+03 -1.41496E+03
  3.57201E+03  6.67272E+02  2.01797E+03  2.54685E+03  8.14064E+02  3.69267E+03 -3.29186E+03  2.11450E+03
