 $NMID ID='MM_0lb_SNR200_8hz_g60_12.RAW', FMTDAT='(8E13.5)'
 TRAMP=1., VOLUME=1. $END
  3.11427E+05  2.26900E+03  3.38688E+05  2.50051E+05  8.55448E+04  3.39706E+05 -1.33794E+05  2.52874E+05
 -1.91069E+05  8.34277E+04 -1.13503E+05 -3.24121E+04 -1.63123E+03 -5.06507E+04  5.23725E+04  4.26516E+02
  3.64393E+04  5.08586E+04 -1.53788E+04  7.58371E+04 -6.12548E+04  6.34099E+04 -8.57721E+04  3.17239E+04
 -8.28662E+04 -1.26751E+04 -5.98882E+04 -5.22323E+04 -1.65678E+04 -7.33759E+04  2.92237E+04 -4.71090E+04
  4.33694E+04  5.07974E+03  1.77011E+04  4.87518E+04 -3.51253E+04  4.93657E+04 -6.69137E+04 -1.73491E+02
 -5.60498E+04 -5.69043E+04 -5.92280E+03 -7.96638E+04  3.42777E+04 -5.82439E+04  5.16168E+04 -1.83906E+04
  4.54964E+04  9.81131E+03  3.22038E+04  2.94310E+04  1.40823E+04  3.01837E+04 -3.76068E+03  2.78540E+04
 -2.27998E+04  1.09594E+04 -1.74028E+04 -6.84561E+03  6.44223E+03 -7.34480E+03  2.43180E+04  1.38873E+04
  8.28791E+03  3.87645E+04 -3.49568E+04  3.62712E+04 -6.77562E+04  1.77512E+03 -5.94880E+04 -4.61627E+04
 -1.22847E+04 -6.77692E+04  4.28979E+04 -4.78353E+04  6.10589E+04 -1.14120E+03  3.77436E+04  3.65892E+04
 -4.40486E+03  3.92972E+04 -3.32982E+04  2.17330E+04 -3.41974E+04 -4.06609E+03 -2.12408E+04 -1.19042E+04
 -9.39349E+03 -1.65452E+04 -5.56553E+02 -2.13470E+04  9.11854E+03 -2.40994E+04  1.63112E+04 -1.23644E+04
  1.00212E+04  5.48240E+03 -1.16701E+04  1.21533E+04 -2.42556E+04 -7.08707E+03 -9.80495E+03 -3.85239E+04
  2.77421E+04 -5.10846E+04  5.43312E+04 -2.25869E+04  5.03042E+04  2.13905E+04  1.92604E+04  4.81387E+04
 -1.76367E+04  3.69971E+04 -2.98026E+04  3.10970E+03 -1.23633E+04 -3.00652E+04  2.19325E+04 -3.86522E+04
  4.76161E+04 -1.10112E+04  4.23349E+04  2.50992E+04  2.37970E+04  5.36747E+04 -7.86813E+03  5.87675E+04
 -3.72463E+04  4.02775E+04 -5.00591E+04  1.10419E+04 -5.07277E+04 -1.93463E+04 -2.78217E+04 -4.36433E+04
  9.80081E+03 -4.55757E+04  3.55552E+04 -1.75953E+04  3.39918E+04  9.53797E+03  3.25195E+03  2.20681E+04
 -1.41401E+04  9.40888E+03 -1.04688E+04 -5.94929E+03  5.61894E+03 -1.13553E+04  1.90918E+04  5.70481E+03
  1.70682E+04  2.35365E+04 -4.67147E+03  3.01759E+04 -2.69496E+04  1.48113E+04 -3.17404E+04 -3.25332E+03
 -2.74454E+04 -1.75586E+04 -1.29990E+04 -2.61386E+04  5.26075E+03 -2.77015E+04  2.02220E+04 -2.43543E+04
  3.58350E+04 -1.42840E+04  4.05441E+04  6.64336E+03  2.74497E+04  2.68377E+04  5.41495E+03  4.22633E+04
 -2.04527E+04  3.67191E+04 -3.17743E+04  1.37202E+04 -2.20853E+04 -1.03819E+04 -4.65178E+03 -1.28328E+04
 -1.10578E+03 -7.28579E+02 -9.43697E+03  1.02064E+04 -2.25001E+04  5.53867E+03 -1.99164E+04 -1.20720E+04
 -1.25306E+04 -2.55784E+04  7.13785E+03 -2.86764E+04  1.98916E+04 -2.15883E+04  2.51954E+04 -1.77291E+03
  1.46466E+04  1.73167E+04 -8.35077E+02  2.53820E+04 -1.67127E+04  1.54463E+04 -2.67565E+04 -4.49043E+03
 -1.82870E+04 -2.23462E+04 -1.41714E+03 -2.84586E+04  1.50897E+04 -2.55794E+04  2.41006E+04 -1.25950E+04
  2.35504E+04  1.17844E+02  1.56048E+04  5.78982E+03  8.50352E+03  2.09497E+03  1.39523E+04 -2.38900E+03
  2.33498E+04  3.13637E+03  2.69810E+04  1.99345E+04  1.83457E+04  3.89715E+04 -4.29629E+03  4.75451E+04
 -2.80034E+04  4.17430E+04 -4.71769E+04  2.23987E+04 -4.87706E+04 -1.26713E+03 -3.75930E+04 -2.82819E+04
 -1.45095E+04 -4.00589E+04  1.63243E+04 -3.64523E+04  2.93591E+04 -1.54887E+04  2.58102E+04  8.45824E+03
  7.95627E+03  2.11215E+04 -1.24515E+04  1.71606E+04 -2.21799E+04  1.64593E+03 -1.65938E+04 -1.32886E+04
  6.77938E+02 -2.26118E+04  1.11457E+04 -1.57253E+04  1.26758E+04 -6.49771E+02  3.28277E+03  1.10942E+04
 -8.44338E+03  4.51945E+03 -9.89366E+03 -9.91090E+03 -2.52270E+03 -1.98189E+04  1.45485E+04 -2.34272E+04
  2.69866E+04 -1.39675E+04  2.97936E+04  1.81215E+03  2.58621E+04  2.05612E+04  1.23370E+04  3.24018E+04
 -7.31549E+03  3.51016E+04 -2.42937E+04  2.06022E+04 -2.58278E+04  2.80789E+03 -1.71146E+04 -6.36608E+03
 -7.40290E+03 -9.17521E+03 -1.57077E+03  7.00065E+02 -3.81752E+03  3.41011E+03 -7.94945E+03  6.92726E+03
 -1.73611E+04  7.13084E+02 -1.52295E+04 -1.31883E+04 -6.47529E+03 -2.22999E+04  5.77750E+03 -1.70618E+04
  1.37847E+04 -7.86430E+03  9.83383E+03  6.54630E+03 -5.10578E+02  6.82355E+03 -1.06703E+04  1.82382E+02
 -1.00733E+04 -1.07285E+04 -1.17702E+03 -1.82606E+04  9.91314E+03 -1.97605E+04  2.33409E+04 -8.62278E+03
  2.74428E+04  3.72149E+03  1.86125E+04  1.68303E+04  3.81798E+03  2.28709E+04 -1.04778E+04  1.78710E+04
 -1.50380E+04  3.93882E+03 -7.16379E+03 -4.54796E+03  3.21360E+03 -3.25701E+03  9.91564E+03 -1.89798E+03
  8.42401E+03  7.91393E+03 -1.52067E+01  1.40127E+04 -1.01592E+04  1.31937E+04 -1.80780E+04  1.19108E+03
 -1.51335E+04 -7.92416E+03 -6.81592E+01 -1.46026E+04  8.47809E+03 -7.92632E+03  9.96433E+03  4.39565E+03
  1.52886E+03  1.14074E+04 -8.98516E+03  1.39942E+04 -1.63235E+04  5.12731E+03 -1.70019E+04 -4.06974E+03
 -9.43930E+03 -1.84043E+04  3.33886E+03 -2.10245E+04  1.81061E+04 -1.18616E+04  1.86829E+04  4.28933E+03
  1.06862E+04  1.58517E+04 -1.41165E+03  1.86083E+04 -1.32434E+04  1.03140E+04 -1.53586E+04 -5.49635E+02
 -1.45100E+04 -1.09781E+04 -2.81840E+03 -1.40045E+04  6.04621E+03 -1.07396E+04  8.49423E+03 -3.84093E+03
  6.52161E+03  2.03266E+03 -2.46174E+03  1.89916E+03 -8.44483E+02 -4.13482E+03  2.42229E+03 -9.67829E+03
  1.27924E+04 -6.75817E+03  1.94776E+04  1.52264E+03  1.86639E+04  1.31589E+04  1.07880E+04  2.38771E+04
 -5.61504E+03  2.78493E+04 -2.26886E+04  2.02891E+04 -3.04123E+04  3.15572E+03 -2.15167E+04 -8.89784E+03
 -1.30296E+04 -1.90909E+04 -2.21076E+02 -1.97682E+04  7.01052E+03 -9.54895E+03  4.40188E+03 -5.49714E+03
  5.07916E+03 -3.40233E+03  5.81166E+03 -2.38029E+03  7.06529E+03 -5.79747E+03  8.76504E+03 -1.06658E+03
  1.24988E+04  1.63798E+03  8.41702E+03  1.27163E+04 -3.39599E+03  1.31201E+04 -1.22919E+04  1.02058E+04
 -1.63872E+04 -8.21218E+02 -1.16429E+04 -1.30215E+04 -1.10351E+03 -1.80585E+04  9.48705E+03 -1.76168E+04
  1.80502E+04 -1.08448E+04  2.23513E+04  3.21543E+03  1.52486E+04  1.81921E+04  7.30429E+02  2.01723E+04
 -7.98450E+03  1.47864E+04 -1.29021E+04  4.96023E+03 -8.54489E+03 -3.54203E+03 -4.65706E+03 -2.35451E+03
 -2.84129E+03 -4.00414E+02 -3.69590E+03  2.64845E+03 -6.99018E+03  2.34445E+03 -1.16346E+04 -2.73618E+03
 -9.64529E+03 -1.14426E+04  6.33367E+02 -1.92567E+04  9.44428E+03 -1.69316E+04  1.85931E+04 -5.03278E+03
  1.77616E+04  9.49262E+03  9.17093E+03  1.67103E+04 -4.34566E+03  1.77227E+04 -1.23133E+04  1.17332E+04
 -1.74612E+04  1.35531E+03 -1.35335E+04 -1.20407E+04 -1.40446E+03 -1.50144E+04  9.08533E+03 -1.15939E+04
  1.11549E+04 -3.49178E+03  7.33157E+03  2.22936E+03  2.07120E+03  4.14816E+03  1.77510E+03  2.11330E+03
  4.06767E+03  7.73066E+02  3.23257E+03  2.96378E+03  6.26023E+03  5.40514E+03  5.02801E+03  1.12741E+04
 -3.01261E+03  1.43981E+04 -1.07191E+04  1.51802E+04 -1.94183E+04  3.19656E+03 -1.82543E+04 -6.96003E+03
 -8.79726E+03 -1.89915E+04  1.80489E+03 -2.07375E+04  1.23566E+04 -1.21147E+04  1.30312E+04 -2.50227E+03
  1.16536E+04  6.67904E+03  1.91655E+03  1.17454E+04 -4.35921E+03  6.01712E+03 -8.70092E+03 -1.40536E+03
 -3.30084E+03 -8.03882E+03  3.04892E+03 -7.16710E+03  1.02590E+04 -2.83439E+03  6.82750E+03  1.24724E+03
  5.31365E+03  3.60207E+03  1.71294E+03  2.43524E+03 -1.79432E+03  2.43424E+03  2.08156E+03 -1.59302E+03
  2.58808E+03 -1.49926E+03  6.72212E+03  4.01909E+03  5.42974E+03  1.15124E+04  2.71614E+02  1.16611E+04
 -7.46377E+03  9.03181E+03 -1.06730E+04  1.73844E+03 -1.19947E+04 -2.04298E+03 -3.79219E+03 -8.13267E+03
  8.03698E+02 -9.38652E+03  3.07405E+03 -3.86489E+03  3.91002E+03  4.04500E+03 -1.47690E+03  5.83754E+03
 -6.34527E+03  4.07518E+03 -1.01763E+04 -3.16267E+03 -6.16986E+03 -1.04102E+04  1.83625E+03 -9.00207E+03
  5.46985E+03 -5.28122E+03  9.60433E+03 -1.44420E+03  6.20565E+03  2.94970E+03 -7.37010E+02  6.47976E+03
 -4.01252E+03  1.60048E+02 -4.05844E+03 -4.01370E+03  1.58546E+03 -7.87454E+03  7.45115E+03 -6.40689E+03
  1.40841E+04 -1.03540E+03  1.15120E+04  9.77130E+03  3.31326E+03  1.09251E+04 -6.06450E+03  1.18803E+04
 -9.32279E+03  5.53471E+03 -9.56243E+03 -2.47147E+03 -4.61332E+03 -8.06117E+03  1.57990E+03 -9.06549E+03
  8.04273E+03 -2.96854E+03  8.74133E+03  1.91476E+03  3.14215E+03  5.98928E+03 -5.38251E+02  4.62186E+03
 -3.21860E+03  4.15775E+03 -3.21245E+03  2.52661E+03 -1.69826E+02  1.29088E+03 -9.24119E+02  1.72529E+03
 -3.41622E+03  3.65991E+03 -1.03083E+04  5.40956E+03 -1.42571E+04 -2.60722E+02 -1.50386E+04 -9.62158E+03
 -8.11097E+03 -1.77466E+04  2.60682E+03 -1.95832E+04  1.23630E+04 -1.54378E+04  1.74651E+04 -6.25778E+03
  1.75448E+04  4.43948E+03  1.25018E+04  1.20051E+04  7.32414E+02  1.25064E+04 -4.92874E+03  8.89683E+03
 -6.67710E+03  3.35972E+03 -3.98174E+03 -6.00161E+01 -1.47721E+03 -1.53146E+03 -1.89696E+03 -2.85908E+02
 -6.90119E+02  2.59346E+03 -1.92140E+03 -5.14121E+02 -1.31433E+03 -3.21455E+03  8.50217E+02 -5.16885E+03
  6.73219E+03 -4.68240E+03  9.55397E+03 -4.48707E+02  1.12864E+04  7.25162E+03  2.95552E+03  1.34684E+04
 -7.17251E+03  1.43624E+04 -1.39328E+04  1.04954E+04 -1.65350E+04 -2.09462E+03 -1.42305E+04 -1.01807E+04
 -5.07394E+03 -1.45709E+04  2.60239E+03 -1.31161E+04  1.05749E+04 -7.08935E+03  8.82602E+03 -7.70751E+02
  4.17705E+03  5.33322E+03 -2.48973E+02  4.30697E+03 -2.53283E+02 -4.39858E+01  1.13994E+03 -4.45026E+03
  4.09372E+03 -2.07446E+03  4.63873E+03  2.74042E+03  3.27497E+03  5.31963E+03 -1.77258E+01  6.55035E+03
 -5.82374E+03  5.53878E+03 -9.36595E+03  1.09935E+03 -9.03362E+03 -7.14687E+03 -1.48912E+03 -1.20336E+04
  6.32923E+03 -9.75087E+03  1.00154E+04 -3.91685E+03  8.94316E+03  3.92989E+03  7.06582E+03  7.47146E+03
  1.21310E+03  9.98681E+03 -5.36647E+03  8.12871E+03 -7.28642E+03  3.72277E+03 -4.06197E+03  7.96288E+02
 -2.06812E+03  6.23813E+02 -2.24651E+03  1.66907E+03 -3.74964E+03  2.04220E+03 -5.54604E+03 -1.22863E+03
 -6.12503E+03 -4.04996E+03 -2.41038E+03 -1.00084E+04  4.77105E+03 -8.44206E+03  9.23265E+03 -3.60384E+03
  9.34310E+03  2.54117E+02  6.46889E+03  5.84673E+03 -1.80019E+03  9.17988E+03 -7.52452E+03  6.36296E+03
