 $NMID ID='MM_0lb_SNR200_16hz_g60_12.RAW', FMTDAT='(8E13.5)'
 TRAMP=1., VOLUME=1. $END
  3.08884E+05 -3.25105E+02  3.37106E+05  2.50906E+05  8.47511E+04  3.38293E+05 -1.32449E+05  2.51666E+05
 -1.90512E+05  8.30537E+04 -1.12000E+05 -3.27180E+04  2.12884E+02 -5.03413E+04  5.33309E+04  8.80096E+01
  3.43954E+04  5.32082E+04 -1.67429E+04  7.56775E+04 -6.04752E+04  6.37853E+04 -8.48162E+04  3.20911E+04
 -8.13066E+04 -1.06358E+04 -5.70257E+04 -5.03873E+04 -1.40479E+04 -6.89726E+04  2.95146E+04 -4.56738E+04
  4.12003E+04  3.88551E+03  1.60267E+04  4.85449E+04 -3.40948E+04  4.64051E+04 -6.64042E+04 -6.70918E+02
 -5.34256E+04 -5.54423E+04 -6.95071E+03 -7.66210E+04  3.44062E+04 -5.45515E+04  4.77994E+04 -1.74214E+04
  4.30578E+04  1.03120E+04  3.27386E+04  2.51349E+04  1.57906E+04  2.87363E+04 -6.20005E+03  2.70792E+04
 -2.11826E+04  1.24612E+04 -1.80719E+04 -4.42599E+03  6.63921E+03 -6.65997E+03  2.28536E+04  1.30627E+04
  8.32438E+03  3.49265E+04 -3.27965E+04  3.53464E+04 -6.43327E+04  2.09341E+03 -5.75854E+04 -4.17982E+04
 -1.11282E+04 -6.49935E+04  4.00564E+04 -4.44756E+04  5.74706E+04 -1.80705E+03  3.39770E+04  3.23408E+04
 -5.03966E+03  3.71915E+04 -3.01432E+04  1.55218E+04 -3.15992E+04 -5.15454E+03 -1.65827E+04 -1.10436E+04
 -7.17915E+03 -1.32336E+04  2.44193E+02 -1.84022E+04  8.93645E+03 -2.29455E+04  1.55700E+04 -1.36004E+04
  1.17698E+04  6.41726E+03 -8.79159E+03  1.30069E+04 -2.16367E+04 -4.87853E+03 -6.80646E+03 -3.42257E+04
  2.26868E+04 -4.48121E+04  4.88225E+04 -1.95815E+04  4.42712E+04  1.94904E+04  1.54320E+04  4.39712E+04
 -1.58768E+04  3.30180E+04 -2.50537E+04  9.53799E+02 -9.63578E+03 -2.86262E+04  2.04334E+04 -3.26741E+04
  4.09897E+04 -9.59428E+03  3.55378E+04  2.41662E+04  1.86905E+04  4.66507E+04 -8.66227E+03  4.82742E+04
 -3.14579E+04  3.30508E+04 -4.28497E+04  1.08769E+04 -4.18117E+04 -1.71688E+04 -2.26863E+04 -3.85573E+04
  5.96710E+03 -3.79422E+04  3.26088E+04 -1.47903E+04  2.85441E+04  1.08373E+04  3.53743E+03  1.94421E+04
 -1.42754E+04  8.48005E+03 -1.01173E+04 -8.66967E+03  6.72740E+03 -1.14264E+04  1.77229E+04  5.60373E+03
  1.34618E+04  2.23592E+04 -6.53559E+03  2.51468E+04 -2.26427E+04  1.20857E+04 -2.67678E+04 -4.95373E+03
 -2.05902E+04 -1.71894E+04 -7.98510E+03 -2.06168E+04  3.85756E+03 -1.95380E+04  1.57890E+04 -1.78012E+04
  2.53318E+04 -1.12821E+04  3.20759E+04  2.49740E+03  2.45613E+04  2.11422E+04  3.30556E+03  3.56252E+04
 -1.76091E+04  2.98655E+04 -2.85459E+04  1.09267E+04 -2.19683E+04 -1.12121E+04 -5.61569E+03 -1.39686E+04
  1.33951E+03 -2.35967E+03 -5.35271E+03  7.62089E+03 -1.68694E+04  5.13636E+03 -1.67378E+04 -8.02194E+03
 -9.38198E+03 -1.88375E+04  4.48957E+03 -2.24947E+04  1.59476E+04 -1.65600E+04  1.83050E+04 -1.76603E+03
  1.07914E+04  1.27280E+04 -1.93850E+03  1.92906E+04 -1.38299E+04  1.11559E+04 -1.90464E+04 -4.47580E+03
 -1.43694E+04 -1.64541E+04 -6.49460E+02 -2.21496E+04  1.12846E+04 -1.86311E+04  1.90735E+04 -8.35043E+03
  1.66472E+04  8.89696E+02  1.15723E+04  3.88261E+03  6.80504E+03  2.71969E+02  9.79152E+03 -1.30596E+03
  1.60203E+04  1.99007E+03  1.82021E+04  1.56532E+04  1.19061E+04  2.93190E+04 -3.05115E+03  3.32315E+04
 -1.93158E+04  2.52578E+04 -2.97395E+04  1.36234E+04 -3.21255E+04 -2.32433E+03 -2.56337E+04 -1.91365E+04
 -1.27710E+04 -2.71256E+04  8.20234E+03 -2.35082E+04  2.13410E+04 -1.25096E+04  1.82862E+04  5.18003E+03
  7.69875E+03  1.40538E+04 -8.54312E+03  1.28299E+04 -1.68500E+04  2.99031E+03 -1.27507E+04 -1.00691E+04
 -4.68181E+01 -1.41315E+04  7.03580E+03 -1.26688E+04  1.05776E+04 -6.14311E+02  1.03864E+03  7.28210E+03
 -5.65895E+03  3.21088E+03 -5.99731E+03 -5.57891E+03  4.15842E+02 -1.38764E+04  9.96668E+03 -1.35725E+04
  1.64313E+04 -6.16951E+03  1.71087E+04  3.06582E+03  1.41870E+04  1.22287E+04  7.35604E+03  1.91782E+04
 -4.11092E+03  2.05376E+04 -1.32673E+04  1.35230E+04 -1.53142E+04  2.91754E+03 -1.19639E+04 -2.39197E+03
 -5.05961E+03 -4.17666E+03 -2.93667E+02  4.39670E+02 -2.32268E+03  1.87995E+03 -4.00375E+03  3.14307E+03
 -1.10361E+04 -1.32225E+03 -1.02091E+04 -9.04887E+03 -2.71981E+03 -1.29393E+04  3.20123E+03 -1.10997E+04
  8.89085E+03 -5.29661E+03  5.75916E+03  2.85421E+03 -8.54011E+01  3.58337E+03 -4.64403E+03  2.77578E+00
 -5.17140E+03 -7.03592E+03 -2.82337E+02 -1.02429E+04  5.13940E+03 -1.02598E+04  1.19573E+04 -5.10790E+03
  1.52397E+04  1.13110E+03  1.14322E+04  8.80560E+03  3.18136E+03  1.06280E+04 -6.99296E+03  1.01202E+04
 -7.14986E+03  3.29313E+03 -3.59881E+03 -2.62987E+03  1.84894E+03 -3.06820E+03  4.73404E+03 -3.33237E+02
  5.43415E+03  4.49783E+03  1.59633E+03  7.88892E+03 -6.12561E+03  8.18248E+03 -1.04038E+04  2.50603E+03
 -6.06419E+03 -3.66988E+03  3.27722E+01 -7.62292E+03  4.73115E+03 -4.79050E+03  4.94049E+03  1.80418E+03
  1.16565E+03  5.55459E+03 -3.93261E+03  6.80973E+03 -6.85848E+03  3.60046E+03 -7.90082E+03 -2.79973E+03
 -5.04322E+03 -7.16685E+03  1.18500E+03 -1.01787E+04  7.79738E+03 -7.01231E+03  9.72167E+03  1.29966E+03
  5.76075E+03  7.63664E+03 -1.35652E+03  9.18245E+03 -6.98722E+03  4.82062E+03 -7.83296E+03 -8.16116E+02
 -6.72161E+03 -6.92061E+03 -1.57124E+03 -6.33460E+03  3.69284E+03 -5.41123E+03  4.45713E+03 -3.08853E+03
  3.53589E+03  1.01087E+03 -1.09689E+03  8.78726E+02 -2.64393E+00 -1.29019E+03  1.27962E+03 -3.06958E+03
  5.15812E+03 -1.83626E+03  8.13461E+03  2.48253E+02  7.31925E+03  4.88896E+03  6.89492E+03  1.17534E+04
 -2.54127E+03  1.30100E+04 -1.01932E+04  9.91217E+03 -1.41735E+04  1.04019E+03 -1.07639E+04 -4.52339E+03
 -5.89218E+03 -9.84094E+03 -9.94611E+02 -7.84581E+03  2.63536E+03 -4.11803E+03  1.62622E+03 -1.96751E+03
  2.17612E+03 -1.76581E+03  3.38887E+03 -2.79085E+03  4.14091E+03 -1.73364E+03  5.19858E+03  6.75174E+02
  5.21305E+03  2.26990E+03  2.31144E+03  5.07533E+03 -1.60219E+03  5.13403E+03 -5.87182E+03  4.26044E+03
 -8.05048E+03 -1.34066E+03 -4.02452E+03 -5.60078E+03 -1.33864E+03 -5.66459E+03  4.44806E+03 -9.31901E+03
  7.03475E+03 -5.47968E+03  1.06207E+04  1.05154E+03  6.52972E+03  7.44044E+03  2.30007E+03  8.49791E+03
 -3.57041E+03  7.65669E+03 -4.32100E+03  2.19671E+03 -3.52270E+03 -1.65106E+03 -1.68238E+03  9.02735E+02
 -7.34218E+02 -4.32235E+02 -1.31598E+03  2.09956E+03 -2.22354E+03  1.66695E+03 -5.62333E+03 -1.68105E+03
 -2.36259E+03 -5.53247E+03  1.26453E+03 -7.04075E+03  3.95784E+03 -6.26706E+03  5.15483E+03 -1.32185E+03
  6.90347E+03  3.74906E+03  2.92027E+03  5.61669E+03 -1.74275E+03  8.17406E+03 -4.13662E+03  5.70861E+03
 -6.67930E+03  3.35100E+02 -5.11828E+03 -4.73084E+03 -4.16804E+02 -5.47084E+03  3.73839E+03 -4.40392E+03
  3.04722E+03 -1.82449E+03  3.56698E+03  4.29366E+02  5.74129E+02  2.88767E+03  8.53021E+02  2.12774E+03
  2.45633E+03  4.43719E+02  6.76824E+02  1.26658E+03  1.41918E+03  1.97865E+03  1.91729E+03  2.65008E+03
 -1.36799E+03  4.83817E+03 -3.06348E+03  5.99076E+03 -4.98112E+03  2.21643E+03 -6.77252E+03 -9.06501E+02
 -2.93910E+03 -6.38762E+03  1.20399E+03 -7.59010E+03  2.39498E+03 -4.33582E+03  4.26494E+03 -1.96371E+03
  3.94667E+03  2.86059E+03  1.16270E+03  2.76819E+03 -3.47057E+01  1.84576E+03 -2.70539E+03 -5.20023E+02
 -8.62339E+02 -1.96434E+03  1.97888E+03 -2.91605E+03  2.26382E+03 -2.20871E+03  2.17266E+03  2.54734E+02
  1.98161E+03  6.08451E+02 -3.85363E+02  1.03315E+02  3.50166E+02  6.59862E+02 -1.64542E+01 -4.71795E+02
 -3.71937E+02 -1.14690E+03  3.28204E+03  8.15664E+02  1.46059E+03  2.87669E+03 -5.73848E+02  3.44972E+03
 -2.96306E+03  2.93248E+03 -1.65121E+03  1.14140E+03 -2.25417E+03 -9.99609E+02 -1.84625E+02 -2.47779E+03
  7.65960E+02 -1.66710E+03  1.19667E+03 -6.93710E+01  1.27180E+03  2.12384E+03 -6.52462E+02  2.06283E+03
 -3.19451E+03  6.62389E+02 -1.87959E+03 -3.07308E+03 -7.69631E+02 -3.33944E+03  2.79254E+01 -4.09735E+03
  4.46976E+02 -9.09564E+02  2.11528E+03 -8.81090E+01  2.05609E+03  6.59825E+02  1.98803E+03  1.42025E+03
 -6.78865E+02  7.58117E+02 -1.24121E+03 -8.47987E+02  1.27519E+03 -7.20620E+02  2.50537E+03 -2.00261E+03
  2.79569E+03 -1.25767E+03  2.87041E+03  1.53693E+03  1.50677E+03  2.93467E+03  1.77543E+02  2.80228E+03
 -2.24755E+03  1.50541E+03 -1.89280E+03 -5.26759E+02 -2.42538E+03 -3.23716E+03  2.77143E+02 -2.80522E+02
  1.70199E+03 -8.84881E+02  1.19747E+03  7.61514E+02  1.22201E+03  2.02821E+03 -6.60867E+02  1.90691E+03
 -4.46774E+02  9.90952E+02 -4.44474E+02 -5.23683E+02 -1.29367E+03  1.00106E+03  1.93068E+02  1.07927E+03
 -1.54752E+03  1.52341E+03 -2.27710E+03  3.04776E+02 -2.27288E+03  1.45555E+02 -3.68076E+03 -2.27400E+03
 -1.00595E+03 -4.96104E+03  5.02866E+02 -4.97339E+03  1.24544E+03 -2.14058E+03  3.16284E+03 -1.45154E+02
  3.35492E+03 -4.77179E+01  2.90801E+03  2.05578E+03 -8.53662E+02  1.60739E+03 -1.11614E+03  2.59526E+03
 -1.94010E+03  6.90063E+02 -7.60864E+02  1.81693E+02 -1.64229E+03  1.98580E+02 -8.24391E+02  5.34985E+02
 -9.30525E+02 -5.96201E+02 -1.74084E+03  4.50631E+02  2.28966E+02 -1.36011E+03  8.96728E+00 -2.11785E+03
  8.08737E+02 -4.18877E+02  6.02514E+02  4.57990E+02  2.05559E+03  1.35455E+03 -1.54651E+03  3.78726E+03
 -1.63992E+03  3.70362E+03 -2.65009E+03  1.33774E+03 -2.89362E+03 -2.43287E+02 -1.67259E+03 -1.56993E+03
 -1.53393E+03 -1.67405E+03  8.63228E+02 -2.32018E+03  1.54283E+03 -2.29967E+03  1.44497E+03  1.94666E+02
  1.70091E+03  1.36461E+03  1.06812E+03  4.28039E+02 -5.87310E+02  1.31100E+02  1.21252E+03 -1.20213E+03
  3.78346E+02 -5.70615E+02  4.91102E+01  1.04052E+03  1.51559E+03 -1.54666E+02  9.12904E+02  2.29958E+02
 -1.41946E+03  2.10558E+03 -1.30567E+02 -1.37135E+02 -2.18535E+03 -1.44505E+03 -2.63614E+02 -2.09716E+03
  4.21716E+02 -8.40645E+02  1.64331E+03 -5.29926E+02  8.60307E+02 -2.38774E+02  9.10374E+02  2.14441E+03
 -7.49933E+02  6.89997E+02 -6.97102E+02  4.74935E+02 -1.60427E+03  1.64192E+03 -5.27140E+02  5.90019E+02
 -3.21131E+02 -3.72379E+02  5.56042E+02  4.79807E+02  5.95119E+01  2.26554E+02 -1.41298E+01  8.51902E+01
 -5.84297E+02 -4.85476E+02 -1.00375E+03 -7.18630E+02  1.09281E+03 -2.42316E+03  1.12647E+03 -2.20182E+01
 -5.99814E+00 -5.05123E+02 -5.71998E+01  5.48440E+02  3.31252E+01  2.12366E+03 -1.83183E+03  1.93744E+03
