 $NMID ID='MM_0lb_SNR200_20hz_g60_95.RAW', FMTDAT='(8E13.5)'
 TRAMP=1., VOLUME=1. $END
  3.09984E+05 -8.84979E+01  3.37862E+05  2.50172E+05  8.45476E+04  3.38033E+05 -1.32079E+05  2.50066E+05
 -1.90189E+05  8.28416E+04 -1.10302E+05 -3.22337E+04  1.69687E+03 -4.99768E+04  5.39518E+04 -2.21993E+02
  3.52902E+04  5.30549E+04 -1.69973E+04  7.63201E+04 -6.06449E+04  6.23893E+04 -8.32639E+04  3.27374E+04
 -8.02968E+04 -1.20393E+04 -5.68352E+04 -5.01950E+04 -1.54684E+04 -6.97740E+04  2.72568E+04 -4.66021E+04
  4.03357E+04  4.35128E+03  1.57946E+04  4.68790E+04 -3.43227E+04  4.68460E+04 -6.56859E+04 -1.24310E+03
 -5.11376E+04 -5.64153E+04 -7.81406E+03 -7.45330E+04  3.37742E+04 -5.38612E+04  4.65951E+04 -1.67210E+04
  4.30936E+04  1.01942E+04  3.13001E+04  2.42966E+04  1.54593E+04  2.83364E+04 -5.32177E+03  2.60465E+04
 -2.23733E+04  1.25000E+04 -1.85645E+04 -4.72167E+03  3.96323E+03 -6.90485E+03  2.19010E+04  1.20579E+04
  7.21458E+03  3.38794E+04 -2.98203E+04  3.46630E+04 -6.06618E+04  2.27173E+03 -5.54152E+04 -4.18654E+04
 -1.23534E+04 -6.10375E+04  3.87671E+04 -4.34120E+04  5.57428E+04 -2.33225E+03  3.29552E+04  3.04649E+04
 -6.62640E+03  3.44162E+04 -2.90874E+04  1.31838E+04 -2.73207E+04 -5.04608E+03 -1.44694E+04 -9.79171E+03
 -7.11677E+03 -1.07592E+04 -9.36815E+02 -1.80571E+04  6.99331E+03 -2.22589E+04  1.51623E+04 -1.40240E+04
  1.18737E+04  5.13047E+03 -6.55835E+03  1.22219E+04 -1.99583E+04 -2.70171E+03 -8.25472E+03 -3.14185E+04
  2.15599E+04 -4.20052E+04  4.52763E+04 -1.90711E+04  4.27127E+04  1.97278E+04  1.50626E+04  4.23865E+04
 -1.58856E+04  3.23296E+04 -2.40341E+04  1.51034E+03 -9.48303E+03 -2.69555E+04  2.10411E+04 -3.24357E+04
  3.81605E+04 -8.55839E+03  3.22686E+04  2.34354E+04  1.69213E+04  4.37445E+04 -8.50501E+03  4.70446E+04
 -3.04062E+04  3.10119E+04 -3.88910E+04  9.52743E+03 -3.81280E+04 -1.62012E+04 -2.05595E+04 -3.55600E+04
  5.90809E+03 -3.45597E+04  2.97715E+04 -1.26004E+04  2.70943E+04  9.57214E+03  3.29372E+03  1.78385E+04
 -1.27075E+04  7.53894E+03 -9.39533E+03 -7.31729E+03  6.27099E+03 -9.72069E+03  1.78665E+04  5.20385E+03
  1.25975E+04  2.17064E+04 -5.45801E+03  2.48254E+04 -2.14496E+04  9.55611E+03 -2.64380E+04 -5.44240E+03
 -1.69215E+04 -1.61733E+04 -6.50249E+03 -1.77600E+04  4.48298E+03 -1.55559E+04  1.28025E+04 -1.58443E+04
  2.04826E+04 -1.09093E+04  2.99178E+04  1.22466E+03  2.08690E+04  1.70663E+04  3.87911E+03  3.38316E+04
 -1.62077E+04  2.68537E+04 -2.76390E+04  9.47235E+03 -2.01120E+04 -1.03780E+04 -3.45560E+03 -1.39875E+04
  3.03839E+03 -4.41364E+03 -2.52721E+03  5.88696E+03 -1.32635E+04  5.82381E+03 -1.36588E+04 -4.58595E+03
 -9.01388E+03 -1.62926E+04  4.70307E+03 -2.06949E+04  1.25255E+04 -1.49035E+04  1.42888E+04 -1.45701E+03
  9.85364E+03  9.64553E+03 -7.48507E+02  1.62674E+04 -1.07582E+04  9.55408E+03 -1.63219E+04 -3.24469E+03
 -1.19536E+04 -1.33273E+04 -1.97971E+03 -1.88850E+04  9.06239E+03 -1.58776E+04  1.56051E+04 -6.22213E+03
  1.48607E+04  1.16927E+03  1.01436E+04  4.25326E+03  5.64172E+03 -6.93441E+01  7.43829E+03 -7.78037E+02
  1.42951E+04  3.26286E+03  1.59365E+04  1.20887E+04  9.85685E+03  2.49524E+04 -3.34032E+03  2.75068E+04
 -1.68170E+04  1.96315E+04 -2.56195E+04  9.00376E+03 -2.55193E+04 -1.52045E+03 -2.21891E+04 -1.44954E+04
 -9.55066E+03 -2.03118E+04  6.88432E+03 -1.98022E+04  1.66605E+04 -1.10794E+04  1.60400E+04  4.24718E+03
  6.79869E+03  1.16759E+04 -6.63908E+03  1.03778E+04 -1.24710E+04  2.26862E+03 -9.93297E+03 -8.57609E+03
  1.46757E+02 -1.18714E+04  6.50455E+03 -9.67340E+03  7.61973E+03 -1.05291E+03  2.49479E+03  5.86965E+03
 -5.06175E+03  2.66262E+03 -3.77877E+03 -4.60513E+03  8.95332E+02 -1.05173E+04  7.75965E+03 -1.05980E+04
  1.23626E+04 -4.46153E+03  1.13599E+04  2.92692E+03  9.48167E+03  8.97656E+03  4.87768E+03  1.28698E+04
 -2.33481E+03  1.63133E+04 -9.46332E+03  9.56583E+03 -1.09608E+04  3.40087E+03 -8.20234E+03 -1.53058E+03
 -3.86370E+03 -3.33983E+03 -1.49734E+03  1.69556E+03 -2.13869E+03  1.91572E+03 -3.09985E+03  3.65488E+03
 -7.59235E+03 -1.00427E+03 -8.35434E+03 -7.83751E+03 -4.31514E+03 -1.15586E+04  3.69644E+03 -7.85527E+03
  7.27187E+03 -3.31545E+03  4.60945E+03  2.24305E+03  4.36435E+02  2.84678E+03 -3.64756E+03 -5.06989E+02
 -3.74415E+03 -5.95511E+03 -5.87240E+02 -8.00334E+03  3.30911E+03 -7.45355E+03  9.26644E+03 -4.27969E+03
  1.06547E+04 -3.88926E+02  8.75971E+03  5.46434E+03  1.82732E+03  8.30619E+03 -5.45827E+03  7.21297E+03
 -6.68872E+03  2.58237E+03 -3.40860E+03 -1.49763E+03  2.26327E+03 -2.44667E+03  4.17644E+03 -1.18247E+03
  2.86225E+03  3.03930E+03  8.17064E+02  5.88487E+03 -3.65587E+03  6.59162E+03 -7.66046E+03  1.21057E+03
 -4.04853E+03 -3.16143E+03 -5.24506E+02 -7.32432E+03  3.70155E+03 -3.41794E+03  3.91217E+03 -4.03596E+01
  9.71888E+02  4.02978E+03 -3.84153E+03  4.07808E+03 -5.40709E+03  2.01565E+03 -3.32629E+03 -1.57659E+03
 -3.08955E+03 -5.64251E+03  1.26802E+03 -6.23519E+03  5.54594E+03 -5.15113E+03  5.32133E+03  1.06856E+03
  4.87740E+03  4.88743E+03  4.83067E+02  6.91859E+03 -4.02975E+03  4.11383E+03 -4.31370E+03  9.29087E+01
 -5.37024E+03 -4.22914E+03 -1.36493E+03 -4.50133E+03  2.73242E+03 -3.90642E+03  2.52535E+03 -3.54980E+03
  1.69088E+03  4.80701E+02  6.44855E+02  2.51647E+02  1.03805E+03 -1.63456E+02 -7.00829E+02 -2.43107E+03
  3.50570E+03  2.88140E+02  4.37552E+03  2.38013E+02  4.86412E+03  2.43453E+03  5.06930E+03  6.61327E+03
 -1.32375E+03  7.83505E+03 -6.63937E+03  6.40155E+03 -9.49384E+03  3.10378E+02 -7.06260E+03 -1.55273E+03
 -3.25643E+03 -6.40771E+03 -1.12027E+03 -4.05567E+03  3.09888E+03 -1.22728E+03  8.26105E+02 -1.54154E+03
  3.19027E+02 -8.95157E+02  3.09062E+03 -2.83347E+03  3.30420E+03 -1.66534E+02  4.26054E+03 -2.18795E+01
  3.51009E+03  7.14550E+02  1.14218E+03  3.38472E+03 -1.42648E+03  2.28107E+03 -3.33502E+03  1.53177E+03
 -4.42478E+03  2.14563E+02 -2.05617E+03 -3.29197E+03  5.60520E+02 -3.45426E+03  3.26438E+03 -4.01875E+03
  5.54192E+03 -3.52893E+03  5.38928E+03  1.64434E+02  4.73631E+03  3.37828E+03  8.44666E+02  5.08942E+03
 -1.55806E+03  4.93058E+03 -3.21922E+03  1.47946E+03 -2.66509E+03 -1.40160E+03 -8.70827E+02 -8.46780E+02
  1.55803E+02  8.24045E+02 -7.45047E+02  2.01346E+03 -3.35835E+03  1.27217E+03 -4.13098E+03  1.10954E+03
  2.53175E+02 -3.56125E+03  2.21946E+02 -3.92212E+03  2.25206E+03 -3.31435E+03  2.60620E+03 -6.83749E+01
  3.74415E+03  1.80275E+03  1.71115E+03  2.24546E+03 -2.19105E+02  3.68852E+03 -2.54353E+03  1.67447E+03
 -2.98373E+03  4.89634E+01 -1.53615E+03 -2.01025E+03 -3.84774E+02 -2.76650E+03  1.06970E+03 -2.54666E+03
  2.45917E+03 -5.85467E+02  1.21155E+03 -3.93325E+02 -1.95529E+02  2.37092E+03  6.68870E+02  1.61526E+03
  4.60916E+02  3.97087E+02  1.20181E+03  1.00731E+03  4.33412E+02  1.97547E+03  4.27264E+02  8.38188E+02
 -1.35474E+03  2.89411E+03 -2.06826E+03  3.73685E+03 -2.46389E+03  1.75459E+03 -2.73031E+03 -6.87173E+02
 -4.87602E+02 -3.10992E+03  2.01649E+03 -4.14160E+03  1.79697E+03 -2.42771E+03  1.01384E+03 -1.25013E+03
  1.25730E+03  1.37586E+03  5.59555E+02  1.89267E+03 -8.73631E+02  1.70360E+03 -1.46295E+03 -5.63621E+02
 -7.86896E+02 -1.76683E+03  5.16236E+02 -1.32025E+03  9.73619E+02 -8.65061E+02  1.02986E+02  2.76950E+01
  1.12395E+03  1.96095E+02  1.51808E+03 -1.94393E+02  1.21907E+02  1.76395E+03  2.26824E+03  1.34985E+01
  8.41104E+00 -2.68489E+02  2.15636E+03  5.49381E+02  3.20728E+01  1.79309E+03 -6.66142E+02  3.13635E+03
 -1.36452E+03  5.66870E+02 -4.09402E+02 -7.86472E+02 -2.56011E+03 -1.16897E+03 -7.27550E+02 -4.26636E+02
 -1.87647E+02 -1.96626E+03  4.40681E+02 -6.84050E+02  2.25278E+02  1.04710E+03 -8.23710E+02  7.31162E+02
 -7.80167E+02  1.37896E+03 -8.65226E+02 -1.11213E+03 -1.18942E+03 -2.39348E+03 -9.50856E+02 -1.44379E+03
 -9.13025E+02 -5.65023E+02  1.00363E+03  2.94561E+02  1.39106E+03 -1.34213E+02  7.02254E+01  2.13380E+02
 -3.04984E+02  2.01155E+02 -2.51799E+02 -2.49229E+02  9.71614E+01 -1.13879E+03  1.58962E+03 -7.18260E+02
  1.49095E+03  2.56095E+02  3.49232E+03 -5.31612E+01  1.24191E+03  1.57084E+03 -9.87908E+02  1.99399E+03
 -1.49354E+03  6.06581E+02 -1.42102E+03  6.89502E+02 -1.25257E+03 -9.81150E+02  2.52971E+02  1.05057E+03
  3.75582E+02 -3.99492E+02 -6.42610E+00  3.83155E+01  7.71521E+02  1.16662E+03  5.05618E+02  7.23276E+02
 -5.45577E+02  1.41528E+03 -3.35381E+01  5.49873E+02  7.13525E+02  3.65880E+02 -1.11347E+03 -8.18542E+02
 -5.29832E+02  2.17700E+03 -6.95336E+02  6.74905E+02 -5.46015E+02 -1.97343E+01 -6.22188E+02 -2.08203E+01
 -2.54712E+02 -1.83337E+03  1.35309E+03 -1.72391E+03  6.58426E+02 -2.38888E+03  3.39181E+02 -1.97732E+02
  2.07451E+03 -1.08959E+03  8.14096E+02  8.26047E+02 -8.26138E+01  1.45470E+03  2.92532E+02  1.02226E+03
 -1.12592E+03  3.46881E+02  8.98647E+02  5.53842E+02 -1.14104E+03  6.16905E+02 -1.60718E+03  9.83634E+02
 -1.26962E+03  1.61248E+02 -6.53634E+02 -1.16991E+02  6.69672E+02 -1.29895E+03 -1.00711E+03 -1.22021E+03
  2.07454E+03 -1.01053E+03 -3.12000E+01 -1.05913E+03 -4.70375E+02  1.24102E+03  1.50537E+02  1.40580E+03
 -4.95389E+02  1.30163E+03 -1.62621E+03  6.24576E+02 -2.26980E+03  5.71200E+01 -6.90608E+02 -6.42213E+02
 -1.54522E+03 -1.75662E+03  3.47649E+00 -7.10334E+02 -6.53379E+02 -2.73068E+02 -3.80377E+02  3.43687E+02
  4.79621E+02 -8.03859E+02  2.70897E+02  5.24807E+00  6.95594E+02 -2.90791E+02  9.18363E+02 -5.25851E+02
  1.87391E+02  1.35579E+03  4.25980E+01  1.09393E+03 -3.68193E+02 -3.48707E+02 -1.40971E+02 -3.98919E+02
  3.90053E+02 -7.64936E+02 -2.46668E+02  8.34028E+02 -8.64377E+02  7.96783E+02  1.61626E+03 -1.04663E+03
  2.34346E+02 -4.82366E+02 -5.24197E+02  6.11509E+01 -9.47801E+01 -9.97510E+02 -3.63958E+02  4.49709E+02
  2.69686E+02  4.15084E+02 -1.16197E+02  6.29697E+02  1.43269E+01  6.42583E+02 -6.22416E+02 -2.85710E+02
  1.29421E+03 -2.05752E+02  8.04703E+01  1.12348E+03 -7.27202E+02 -1.09039E+03 -1.23326E+03 -4.83685E+02
 -7.88008E+02  9.64726E+02 -1.08593E+03 -3.49104E+02 -2.57099E+02 -1.86831E+03  3.85809E+02  5.14459E+02
 -6.19705E+02 -4.69628E+02 -9.58435E+02 -2.26309E+02 -9.68239E+02  8.82225E+02  8.17546E+02  6.68963E+02
