 $NMID ID='MM_0lb_SNR200_20hz_g60_9.RAW', FMTDAT='(8E13.5)'
 TRAMP=1., VOLUME=1. $END
  3.10465E+05 -1.92060E+01  3.37483E+05  2.49412E+05  8.55420E+04  3.38431E+05 -1.31586E+05  2.51036E+05
 -1.89163E+05  8.20975E+04 -1.11578E+05 -3.27416E+04  8.78778E+02 -5.05443E+04  5.37021E+04  7.23749E+02
  3.51681E+04  5.37862E+04 -1.70952E+04  7.55845E+04 -6.09637E+04  6.22571E+04 -8.25827E+04  3.11869E+04
 -7.94033E+04 -1.15887E+04 -5.63817E+04 -5.03461E+04 -1.41777E+04 -6.81866E+04  2.66419E+04 -4.61794E+04
  3.93996E+04  4.82544E+03  1.58972E+04  4.83372E+04 -3.47759E+04  4.62938E+04 -6.54739E+04  3.09875E+02
 -5.27699E+04 -5.73847E+04 -6.48465E+03 -7.62842E+04  3.27191E+04 -5.43065E+04  4.63803E+04 -1.63521E+04
  4.25505E+04  1.04653E+04  3.15854E+04  2.53100E+04  1.69538E+04  2.84127E+04 -3.87444E+03  2.72636E+04
 -2.21977E+04  1.29370E+04 -1.87418E+04 -4.16509E+03  4.88538E+03 -7.78923E+03  2.06011E+04  1.16786E+04
  7.48654E+03  3.48040E+04 -3.02962E+04  3.40363E+04 -6.02806E+04  2.33752E+03 -5.62099E+04 -4.12868E+04
 -1.24917E+04 -6.20707E+04  3.80623E+04 -4.41186E+04  5.60951E+04 -1.69454E+03  3.30359E+04  3.12112E+04
 -5.09464E+03  3.43022E+04 -2.82139E+04  1.39560E+04 -2.78112E+04 -7.37778E+03 -1.56943E+04 -1.05801E+04
 -8.27828E+03 -1.15780E+04 -5.44282E+02 -1.69585E+04  7.19708E+03 -2.19215E+04  1.56624E+04 -1.47575E+04
  1.19706E+04  5.28380E+03 -6.71814E+03  1.38602E+04 -2.12639E+04 -3.12434E+03 -8.25624E+03 -3.19094E+04
  2.14673E+04 -4.16525E+04  4.53289E+04 -1.88234E+04  4.29919E+04  1.96913E+04  1.43056E+04  4.21158E+04
 -1.63697E+04  3.11712E+04 -2.35391E+04  8.20933E+02 -9.96667E+03 -2.60383E+04  1.97647E+04 -3.26477E+04
  3.91722E+04 -8.13951E+03  3.21854E+04  2.24804E+04  1.58492E+04  4.24970E+04 -7.06192E+03  4.60165E+04
 -2.91476E+04  2.99533E+04 -3.77763E+04  8.99689E+03 -3.84047E+04 -1.53404E+04 -2.21804E+04 -3.52652E+04
  6.39689E+03 -3.52169E+04  3.09754E+04 -1.27392E+04  2.70420E+04  1.05371E+04  2.41032E+03  1.86463E+04
 -1.43222E+04  7.82176E+03 -9.57741E+03 -7.06034E+03  5.99848E+03 -1.02877E+04  1.85435E+04  6.82155E+03
  1.26903E+04  2.16838E+04 -6.34119E+03  2.44645E+04 -2.11176E+04  8.80853E+03 -2.59961E+04 -5.37594E+03
 -1.85203E+04 -1.67350E+04 -5.33521E+03 -1.69255E+04  4.61048E+03 -1.59685E+04  1.24598E+04 -1.49411E+04
  2.16802E+04 -1.16643E+04  2.80340E+04  7.59651E+02  2.13695E+04  1.70026E+04  5.23461E+03  3.43578E+04
 -1.63982E+04  2.77489E+04 -2.72068E+04  1.02062E+04 -1.97144E+04 -1.09136E+04 -3.17626E+03 -1.38415E+04
  3.22111E+03 -4.91834E+03 -3.41421E+03  6.41286E+03 -1.24690E+04  4.39850E+03 -1.47900E+04 -5.84768E+03
 -8.86851E+03 -1.61599E+04  4.83523E+03 -1.93531E+04  1.32643E+04 -1.46259E+04  1.49302E+04 -2.20564E+03
  1.01919E+04  1.14338E+04 -1.05849E+03  1.53204E+04 -1.12486E+04  9.41626E+03 -1.64120E+04 -2.90883E+03
 -1.22650E+04 -1.39905E+04 -1.41069E+03 -1.91758E+04  9.60596E+03 -1.59016E+04  1.52435E+04 -7.94588E+03
  1.34402E+04  1.11715E+03  1.07415E+04  2.70415E+03  4.96667E+03  2.83417E+02  7.60523E+03 -1.19322E+03
  1.49010E+04  2.58336E+03  1.54280E+04  1.23976E+04  9.19927E+03  2.51496E+04 -2.81927E+03  2.70901E+04
 -1.54403E+04  2.10346E+04 -2.51771E+04  8.93698E+03 -2.49019E+04 -1.76791E+03 -2.12208E+04 -1.38006E+04
 -9.92325E+03 -2.07927E+04  6.50527E+03 -1.97120E+04  1.70363E+04 -1.06775E+04  1.61769E+04  4.53373E+03
  6.56369E+03  1.19964E+04 -6.88540E+03  1.10127E+04 -1.37939E+04  3.13822E+03 -1.15684E+04 -6.83143E+03
  3.23622E+02 -1.19816E+04  5.93405E+03 -9.26407E+03  8.15063E+03 -5.98587E+02  1.61606E+03  4.81975E+03
 -5.86588E+03  2.56094E+03 -3.50494E+03 -5.63544E+03  5.70640E+02 -1.02670E+04  9.00773E+03 -1.11737E+04
  1.20011E+04 -3.50135E+03  1.15510E+04  2.82206E+03  1.02859E+04  1.02074E+04  4.26484E+03  1.47888E+04
 -1.74948E+03  1.60511E+04 -1.08572E+04  1.11341E+04 -1.12706E+04  2.53526E+03 -8.44994E+03 -1.81928E+03
 -5.01581E+03 -3.48469E+03 -1.07714E+03  6.87748E+02 -1.94071E+03  1.90787E+03 -4.65681E+03  2.47733E+03
 -8.35674E+03 -1.05004E+03 -8.05766E+03 -6.87764E+03 -3.29207E+03 -1.11067E+04  2.67855E+03 -8.06970E+03
  7.12098E+03 -3.86675E+03  4.72401E+03  2.74973E+03  8.79896E+02  3.19629E+03 -4.48585E+03  4.03786E+02
 -3.03467E+03 -4.26066E+03 -7.76907E+02 -7.93458E+03  4.20965E+03 -7.69460E+03  8.82715E+03 -3.52555E+03
  1.13378E+04  8.95590E+01  7.82780E+03  6.24293E+03  2.23731E+03  9.10734E+03 -4.77942E+03  7.54913E+03
 -7.35322E+03  2.67084E+03 -3.55815E+03 -1.06125E+03  1.47938E+03 -2.11652E+03  4.16538E+03 -1.83565E+03
  5.03055E+03  3.87576E+03  1.42884E+03  6.74142E+03 -3.96804E+03  5.94463E+03 -6.99572E+03  9.41120E+02
 -4.22203E+03 -4.55563E+03  4.17007E+02 -6.54796E+03  3.50792E+03 -2.94785E+03  3.79997E+03 -9.28625E+01
  1.00932E+02  2.46519E+03 -4.52773E+03  5.07813E+03 -3.18256E+03  1.94572E+03 -5.10801E+03 -1.53821E+03
 -2.52099E+03 -4.85903E+03  1.00587E+03 -5.48603E+03  5.89849E+03 -3.83617E+03  5.76377E+03  1.39573E+03
  5.06771E+03  4.31123E+03  1.28403E+02  6.47975E+03 -4.73957E+03  3.97866E+03 -4.65050E+03 -1.09237E+02
 -5.98365E+03 -4.06479E+03 -6.43356E+02 -4.68275E+03  2.76668E+03 -4.43854E+03  1.38650E+03 -2.53648E+03
  1.88009E+03  8.62273E+02 -2.39123E+02  1.66272E+03  8.28007E+01 -1.41934E+02 -1.07713E+03 -2.03495E+03
  3.30520E+03  2.65709E+02  5.01774E+03  1.92363E+03  5.32446E+03  2.80883E+03  5.13485E+03  7.15683E+03
 -1.53815E+03  7.60456E+03 -7.31714E+03  6.46526E+03 -9.02489E+03  1.34678E+03 -6.55043E+03 -7.25099E+02
 -3.07251E+03 -6.44446E+03 -8.94236E+02 -4.00102E+03  1.85398E+03 -1.77458E+03  9.71766E+02 -1.68821E+03
  8.37253E+02 -1.92621E+03  2.25284E+03 -1.84839E+03  3.24840E+03 -6.64351E+02  2.96747E+03  3.66679E+02
  4.67478E+03  1.01002E+03  9.64686E+02  3.07861E+03 -1.33591E+03  2.78540E+03 -2.60612E+03  2.55618E+03
 -4.49702E+03 -1.57729E+03 -1.04893E+03 -2.74570E+03  4.57875E+01 -5.21961E+03  3.03216E+03 -4.85431E+03
  3.90450E+03 -3.59921E+03  6.51381E+03  4.84690E+02  4.49903E+03  3.10437E+03  1.89368E+03  5.99813E+03
 -1.95197E+03  5.20445E+03 -2.39695E+03  1.67671E+03 -9.12955E+02 -1.11152E+03 -2.65016E+02 -9.89097E+02
 -8.28016E+02  5.75139E+02 -4.47717E+02  1.64825E+03 -2.57692E+03  1.79833E+03 -4.14589E+03 -2.04673E+02
 -1.35195E+03 -4.58035E+03  4.47286E+02 -3.64226E+03  3.12914E+03 -4.15502E+03  2.71718E+03 -1.66885E+03
  2.94263E+03  1.65935E+03  9.98470E+02  2.15713E+03 -1.06138E+02  3.21572E+03 -2.17843E+03  1.98331E+03
 -3.52049E+03 -7.36360E+01 -3.07618E+03 -1.96521E+03  1.04425E+03 -2.16089E+03  1.93980E+03 -2.04530E+03
  1.96285E+03 -9.59345E+02  1.92131E+03  1.46109E+03  1.13558E+03  1.47066E+03  7.35191E+02  2.94320E+01
  9.85811E+02  1.38298E+03  1.08361E+03  7.25084E+02  4.49844E+02  3.35966E+03  9.38951E+02  2.57446E+03
 -2.83409E+02  1.98668E+03 -1.88810E+03  3.75164E+03 -2.46299E+03  1.67610E+03 -3.98817E+03  1.94874E+02
 -1.86707E+03 -3.39448E+03  7.68714E+02 -4.03505E+03  1.18667E+03 -2.20281E+03  3.25036E+03 -1.93879E+02
  2.52051E+03  9.13335E+02  3.98963E+02  5.66941E+02  1.76270E+02  1.63569E+03 -1.31730E+03  3.98622E+02
 -1.09772E+03 -1.45650E+03 -1.53536E+02 -1.48947E+03  6.57160E+02  1.24884E+02  1.48685E+03  4.83151E+02
  4.11464E+02 -3.25998E+02  5.42901E+02  1.93359E+02 -6.87635E+02 -8.38678E+02  3.02308E+03 -2.65399E+02
  1.03628E+03 -5.53268E+02  2.96388E+03  8.28790E+02  8.36758E+02  2.16464E+03 -5.82935E+02  2.47543E+03
 -2.38479E+03  1.66011E+02 -1.71190E+03  1.23031E+03 -1.36212E+03 -1.51506E+03  2.64454E+02  9.70575E+01
  4.58127E+02 -7.73416E+02  2.73609E+02 -6.34727E+02 -3.09128E+02  5.64992E+02 -3.89333E+02  1.06197E+03
 -8.27086E+02  6.40548E+02 -9.38933E+02 -2.12117E+03 -1.37796E+03 -2.70534E+03 -2.86219E+02 -1.27253E+03
 -1.35639E+02 -1.64710E+02  1.44618E+03  6.40261E+02  5.74555E+02 -1.67952E+02 -9.04181E+02  6.86771E+02
 -1.01301E+03  6.95817E+02 -1.72870E+03 -3.37853E+02  5.21558E+02 -4.55636E+02  1.33582E+03 -1.21100E+03
  7.82962E+02  2.16579E+02  2.04178E+03  7.47807E+02 -3.63269E+00  2.13370E+03 -1.24819E+02  1.85328E+03
 -1.13409E+03 -1.99585E+02 -1.28755E+02 -6.63547E+02  8.84884E+01 -7.71145E+02 -4.16270E+01  1.91160E+01
  2.29640E+03 -2.29582E+01  6.52267E+02  4.39746E+02 -3.11899E+02  7.35094E+02  6.42506E+02  1.31174E+03
  3.77227E+02  1.10561E+03 -8.59122E+01  7.74250E+02 -1.74043E+02 -5.05350E+02 -5.32943E+02  1.36468E+03
  3.28087E+02  3.92940E+02 -1.31752E+03  3.50327E+02 -1.35937E+03 -8.35183E+01 -1.18097E+03 -3.02280E+02
  1.07453E+02 -2.43713E+03  3.16716E+02 -1.99867E+03 -2.34223E+02 -1.75675E+03  2.97362E+03 -1.03551E+03
  9.22216E+02  8.81523E+02  1.61882E+02  1.21481E+03 -1.21669E+03 -7.44672E+02 -1.28954E+03  9.89794E+02
 -1.31405E+03  1.20317E+03 -1.03975E+03  5.53080E+02 -2.63809E+02 -1.29786E+01 -1.16010E+02 -1.15373E+01
 -1.60627E+03  2.55392E+02 -1.14129E+03 -6.20381E+02  8.36916E+02  5.31836E+01 -3.75927E+02 -1.59184E+02
  1.17916E+03 -8.42327E+01 -3.75113E+02  6.75373E+02  4.62273E+02  1.92350E+03 -1.15405E+01  1.86922E+02
 -2.19151E+02  1.38991E+03 -1.00843E+03  1.74274E+03 -3.85266E+02 -5.28057E+02 -6.48692E+02 -1.41079E+03
 -8.17325E+02  1.82805E+02 -9.21073E+01  8.32109E+02 -6.83672E+01  2.98399E+02 -2.25888E+02 -5.38638E+02
  7.68071E+02 -1.51913E+00 -4.96338E+02 -2.26082E+02 -5.27037E+02 -2.77286E+02 -1.38488E+02  3.57234E+01
  2.29800E+02 -1.49987E+02 -7.02694E+02  2.94672E+02 -4.08912E+02  4.58040E+02 -1.22174E+02 -6.54870E+02
 -1.16852E+02  1.09021E+03  6.11724E+01  1.35726E+02  6.34841E+02  5.33472E+02  1.25935E+03 -2.31467E+02
  5.05874E+02 -6.25627E+02 -3.00641E+02 -4.77472E+02  2.92991E+01 -6.84377E+02 -9.64948E+01  5.90393E+02
  9.45823E+01 -3.56129E+02 -9.82095E+01  4.84997E+02 -1.41073E+03  1.67482E+02 -1.72526E+02 -1.25661E+02
 -1.65456E+02 -2.84548E+02 -2.62720E+02  7.33624E+02 -1.13174E+03  4.00635E+02 -1.30455E+03 -4.88792E+02
  1.81492E+02  8.47084E+02 -7.95301E+02  5.31583E+02  2.43563E+02 -1.02978E+03  1.76820E+03 -3.75711E+02
  7.34628E+02  8.10498E+02  1.95131E+02  9.35860E+02 -9.85931E+02  1.00660E+03 -6.71504E+02 -1.06511E+01
