 $NMID ID='MM_0lb_SNR200_9hz_g50_86.RAW', FMTDAT='(8E13.5)'
 TRAMP=1., VOLUME=1. $END
  3.09900E+05  1.18026E+03  3.36448E+05  2.51241E+05  8.31130E+04  3.36050E+05 -1.32838E+05  2.52035E+05
 -1.90787E+05  8.40425E+04 -1.13561E+05 -3.25646E+04  1.15294E+03 -5.14310E+04  5.29047E+04  5.95816E+01
  3.70216E+04  5.18922E+04 -1.73369E+04  7.52301E+04 -6.22364E+04  6.63872E+04 -8.55306E+04  3.19531E+04
 -8.32594E+04 -1.17609E+04 -5.71074E+04 -5.08553E+04 -1.63170E+04 -7.25294E+04  2.75141E+04 -4.60259E+04
  4.11375E+04  2.65606E+03  1.54303E+04  4.86909E+04 -3.56473E+04  4.73149E+04 -6.81810E+04  1.27180E+03
 -5.60987E+04 -5.94369E+04 -7.79759E+03 -7.88261E+04  3.51207E+04 -5.71484E+04  4.99684E+04 -1.99369E+04
  4.52508E+04  1.25629E+04  3.32789E+04  2.59097E+04  1.58124E+04  3.09657E+04 -6.12259E+03  2.86025E+04
 -2.26217E+04  1.23208E+04 -1.86318E+04 -6.76116E+03  7.63508E+03 -7.55409E+03  2.31423E+04  1.54205E+04
  7.29401E+03  3.75145E+04 -3.28293E+04  3.76499E+04 -6.74730E+04  2.70749E+03 -5.99349E+04 -4.50465E+04
 -1.15634E+04 -6.78362E+04  4.24734E+04 -4.66923E+04  5.94269E+04 -1.75210E+03  3.61762E+04  3.37693E+04
 -4.13290E+03  3.91435E+04 -3.14872E+04  1.83008E+04 -3.16280E+04 -1.97629E+03 -2.00693E+04 -1.15064E+04
 -9.12810E+03 -1.59820E+04 -5.79261E+02 -1.88224E+04  7.68855E+03 -2.39526E+04  1.50287E+04 -1.25521E+04
  8.87373E+03  6.93378E+03 -1.03242E+04  1.36671E+04 -2.19234E+04 -5.35668E+03 -8.59388E+03 -3.88366E+04
  2.44908E+04 -4.67398E+04  5.00981E+04 -2.09002E+04  4.78823E+04  2.07990E+04  1.68443E+04  4.67725E+04
 -1.72398E+04  3.68068E+04 -2.62507E+04  2.46340E+03 -1.14041E+04 -2.92631E+04  2.04974E+04 -3.66917E+04
  4.45899E+04 -1.12645E+04  3.96266E+04  2.38988E+04  2.07996E+04  5.04879E+04 -7.04906E+03  5.78941E+04
 -3.62308E+04  3.67958E+04 -4.58020E+04  1.09116E+04 -4.75914E+04 -1.72970E+04 -2.62945E+04 -3.99894E+04
  8.20173E+03 -4.29829E+04  3.48401E+04 -1.61108E+04  3.12383E+04  1.14847E+04  5.59709E+03  2.21764E+04
 -1.39670E+04  9.11388E+03 -1.16511E+04 -7.91854E+03  5.24875E+03 -1.07913E+04  1.91398E+04  8.25851E+03
  1.47922E+04  2.45025E+04 -3.94978E+03  2.73847E+04 -2.31401E+04  1.32699E+04 -3.18975E+04 -3.13594E+03
 -2.47949E+04 -1.84748E+04 -1.10406E+04 -2.61553E+04  4.47035E+03 -2.46020E+04  2.03668E+04 -2.40496E+04
  3.27499E+04 -1.26954E+04  3.77742E+04  5.32853E+03  2.52413E+04  2.35487E+04  4.43933E+03  4.09307E+04
 -1.92591E+04  3.39328E+04 -3.08397E+04  1.20861E+04 -2.40653E+04 -1.02331E+04 -4.28223E+03 -1.38515E+04
  6.30595E+02 -1.23832E+03 -7.13533E+03  8.10366E+03 -2.25586E+04  4.30643E+03 -2.12557E+04 -9.98615E+03
 -1.30353E+04 -2.22717E+04  6.15749E+03 -2.80621E+04  1.87797E+04 -1.94588E+04  2.27142E+04 -3.02174E+02
  1.37151E+04  1.52726E+04  6.05708E+02  2.31832E+04 -1.48393E+04  1.31614E+04 -2.34149E+04 -4.37469E+03
 -1.89380E+04 -2.11241E+04 -2.33306E+03 -2.87705E+04  1.40019E+04 -2.23359E+04  2.23690E+04 -1.20811E+04
  2.23850E+04  2.68296E+02  1.69828E+04  5.83203E+03  8.98268E+03  9.76225E+02  1.21356E+04 -2.46023E+03
  2.32814E+04  1.92764E+03  2.58888E+04  1.69004E+04  1.71806E+04  3.65086E+04 -2.80673E+03  4.47862E+04
 -2.48865E+04  3.59123E+04 -4.18180E+04  1.91782E+04 -4.61072E+04 -2.80874E+03 -3.53838E+04 -2.74142E+04
 -1.52395E+04 -3.67806E+04  1.28939E+04 -3.13508E+04  2.77474E+04 -1.44378E+04  2.46217E+04  6.39993E+03
  8.02914E+03  1.92030E+04 -1.21641E+04  1.59109E+04 -2.03674E+04  1.98122E+03 -1.57591E+04 -1.18726E+04
  5.78506E+02 -1.89873E+04  1.03800E+04 -1.47139E+04  1.45631E+04 -2.38458E+03  4.16984E+03  1.09480E+04
 -8.16763E+03  4.08727E+03 -7.62742E+03 -6.65085E+03 -1.77100E+03 -1.88058E+04  1.01779E+04 -1.95366E+04
  2.18687E+04 -1.09006E+04  2.59971E+04  2.74088E+03  2.26894E+04  1.76694E+04  1.07252E+04  2.96980E+04
 -6.60875E+03  3.12840E+04 -2.04193E+04  2.00032E+04 -2.25947E+04  3.43792E+03 -1.47782E+04 -5.18383E+03
 -8.36723E+03 -6.24960E+03 -8.03404E+02  4.68916E+02 -4.00709E+03  1.58480E+03 -8.44764E+03  4.80853E+03
 -1.51294E+04 -9.54969E+02 -1.41654E+04 -1.26749E+04 -6.76105E+03 -1.87297E+04  6.61928E+03 -1.63113E+04
  1.36078E+04 -7.29325E+03  8.70965E+03  5.05539E+03 -5.23098E+02  8.09813E+03 -7.82668E+03  4.38209E+02
 -6.65142E+03 -9.40202E+03 -2.32945E+02 -1.50607E+04  8.63020E+03 -1.56993E+04  1.85914E+04 -9.04183E+03
  2.49049E+04  3.15364E+03  1.81960E+04  1.48069E+04  3.30266E+03  1.84408E+04 -9.63011E+03  1.52053E+04
 -1.36741E+04  4.34972E+03 -7.77634E+03 -2.80229E+03  2.82238E+03 -4.50264E+03  9.74907E+03 -1.40917E+03
  6.33711E+03  6.19755E+03  7.84772E+02  1.34595E+04 -9.18622E+03  1.03217E+04 -1.47591E+04  3.48616E+03
 -1.15958E+04 -7.13795E+03  4.73691E+02 -1.33196E+04  1.05697E+04 -6.05575E+03  8.64405E+03  3.29565E+03
  2.82336E+03  9.78406E+03 -8.09626E+03  1.21527E+04 -1.39938E+04  5.57537E+03 -1.51608E+04 -5.84507E+03
 -9.15277E+03 -1.60978E+04  3.47834E+03 -1.90332E+04  1.48576E+04 -1.00206E+04  1.65847E+04  2.33799E+03
  9.24383E+03  1.16981E+04 -2.39599E+03  1.53772E+04 -1.11025E+04  8.79455E+03 -1.20982E+04 -7.07721E+02
 -1.19218E+04 -1.06717E+04 -2.25226E+03 -1.31643E+04  6.61724E+03 -9.97833E+03  6.36599E+03 -6.04012E+03
  3.96287E+03  1.78380E+03 -9.18897E+02  1.16614E+03 -3.20568E+02 -3.89238E+03  3.45034E+03 -8.12572E+03
  1.10184E+04 -5.24042E+03  1.79428E+04  3.24997E+03  1.49643E+04  1.15310E+04  1.04075E+04  2.22219E+04
 -5.50168E+03  2.48005E+04 -2.04666E+04  1.78646E+04 -2.62738E+04  3.05882E+03 -2.04671E+04 -1.15440E+04
 -9.90189E+03 -1.77131E+04 -1.84963E+03 -1.39598E+04  6.45071E+03 -8.68404E+03  4.84650E+03 -4.91272E+03
  3.34382E+03 -2.84250E+03  3.42797E+03 -1.94510E+03  6.55522E+03 -2.71801E+03  8.84800E+03 -1.54290E+03
  9.92635E+03  1.47259E+03  3.63491E+03  1.08489E+04 -2.75836E+03  1.27057E+04 -1.18823E+04  7.88273E+03
 -1.50832E+04 -1.88915E+03 -9.92023E+03 -9.42865E+03 -1.89075E+02 -1.63862E+04  7.50433E+03 -1.70505E+04
  1.55464E+04 -9.37330E+03  1.89259E+04  2.40298E+03  1.32757E+04  1.45780E+04  2.61054E+03  1.76020E+04
 -7.42316E+03  1.55911E+04 -1.02614E+04  4.86007E+03 -8.71605E+03 -1.26826E+03 -2.62669E+03 -2.27940E+03
 -9.27902E+02  3.16532E+02 -2.95978E+03  2.56957E+03 -5.12592E+03  3.40289E+03 -1.05394E+04 -2.26425E+03
 -8.36907E+03 -9.52829E+03 -4.44713E+01 -1.57007E+04  8.69368E+03 -1.32066E+04  1.63918E+04 -4.65656E+03
  1.44231E+04  5.99975E+03  7.62215E+03  1.38488E+04 -7.65675E+02  1.51362E+04 -1.07254E+04  1.01428E+04
 -1.49151E+04  4.23753E+02 -1.04113E+04 -9.75182E+03 -1.74596E+03 -1.20743E+04  5.53232E+03 -9.80500E+03
  7.78425E+03 -2.66899E+03  6.93118E+03  3.72431E+03  1.74022E+03  3.61920E+03  7.55720E+01  2.47533E+03
  2.27408E+03  2.40413E+03  3.03676E+03  1.86474E+03  2.85797E+03  4.95556E+03  5.33720E+03  6.14901E+03
 -2.72020E+03  1.22849E+04 -1.01422E+04  1.18123E+04 -1.72057E+04  3.07286E+03 -1.53255E+04 -5.47856E+03
 -6.71548E+03 -1.57212E+04  2.34354E+03 -1.58723E+04  8.56958E+03 -1.06508E+04  1.24976E+04 -2.52701E+03
  9.66479E+03  4.41373E+03  3.94424E+03  9.66226E+03 -5.74015E+03  5.90303E+03 -5.64633E+03 -1.24016E+03
 -3.49170E+03 -6.36232E+03  3.53875E+03 -5.31564E+03  7.27278E+03 -4.58238E+03  7.39639E+03 -8.39910E+01
  3.53218E+03  3.24862E+03 -2.47472E+01  3.46169E+03 -1.67475E+03  1.98255E+03  2.04033E+03 -5.57882E+02
  2.83830E+03  1.06646E+03  5.28594E+03  3.05125E+03  3.52769E+03  6.66678E+03 -1.64010E+03  1.07452E+04
 -6.04847E+03  7.41934E+03 -1.22670E+04  1.89322E+03 -8.12630E+03 -3.68376E+03 -4.57909E+03 -6.58496E+03
  2.52549E+03 -3.97574E+03  3.50029E+03 -2.64610E+03  3.34300E+03  1.74767E+03 -1.72721E+03  3.47446E+03
 -6.00665E+03  2.67563E+03 -6.72238E+03 -4.27692E+03 -4.85225E+03 -7.87571E+03  1.52406E+03 -8.03335E+03
  5.56018E+03 -5.60117E+03  7.77856E+03 -5.65845E+02  4.69466E+03  2.20733E+03 -1.20551E+02  5.09150E+03
 -2.44947E+03  2.53921E+03 -2.58430E+03 -2.49846E+03  2.60278E+03 -6.30072E+03  7.79187E+03 -4.17964E+03
  1.00952E+04  4.74872E+02  9.91633E+03  5.27010E+03  1.46395E+03  9.27922E+03 -3.66719E+03  9.96438E+03
 -9.24473E+03  2.25497E+03 -7.31728E+03 -5.01048E+02 -4.24185E+03 -6.07728E+03  2.85432E+03 -5.20560E+03
  7.47894E+03 -3.66037E+03  5.57122E+03  3.44518E+03  1.13283E+03  6.80821E+03 -1.48349E+03  3.60094E+03
 -3.76955E+03  3.33573E+03 -4.53264E+03  1.19901E+03 -1.61538E+02  4.28087E+02 -1.40043E+03  2.26206E+03
 -2.60852E+03  4.47987E+03 -6.32005E+03  4.09915E+03 -1.06054E+04  1.22346E+03 -1.13061E+04 -8.66283E+03
 -5.69814E+03 -1.31587E+04  3.46265E+03 -1.53485E+04  9.90474E+03 -1.18436E+04  1.38422E+04 -5.37013E+03
  1.56693E+04  2.84783E+03  8.86058E+03  1.02563E+04  1.64608E+03  1.06351E+04 -4.01505E+03  7.19897E+03
 -6.29340E+03  1.54801E+03 -3.58240E+03 -7.82615E+02 -9.33552E+02 -6.15292E+02 -1.28782E+01  4.44618E+02
 -1.75867E+03  5.58287E+00 -2.60018E+03 -1.23050E+02 -1.53131E+03 -3.64410E+03 -1.74401E+03 -3.09087E+03
  4.26402E+03 -3.36476E+03  7.62172E+03 -9.18841E+02  7.77061E+03  5.69957E+03  2.38925E+03  1.02230E+04
 -4.01208E+03  1.22342E+04 -1.15594E+04  8.05301E+03 -1.22806E+04 -1.81933E+03 -1.03690E+04 -7.34881E+03
 -5.17262E+03 -1.19458E+04  4.45738E+03 -1.05036E+04  5.93454E+03 -6.36479E+03  6.39246E+03 -1.98552E+01
  2.82439E+03  2.89066E+03 -8.08097E+01  2.86240E+03 -2.20453E+03 -1.39562E+03  4.47741E+02 -2.89458E+03
  2.69266E+03 -2.29739E+03  5.25295E+03 -1.15317E+03  3.22545E+03  4.68828E+03 -9.31348E+02  4.88548E+03
 -4.66727E+03  3.63195E+03 -5.28340E+03  3.02985E+02 -5.40347E+03 -4.44280E+03 -1.08760E+03 -9.27957E+03
  5.01275E+03 -7.68695E+03  8.97150E+03 -1.26550E+03  8.03387E+03  4.26709E+03  5.32764E+03  6.90729E+03
  1.99314E+03  6.71413E+03 -2.19716E+03  5.30987E+03 -2.86278E+03  2.82068E+03 -4.92425E+03  1.15571E+03
 -2.32897E+03 -1.26937E+03 -1.50375E+03  1.38185E+03 -4.02986E+03 -5.82741E+02 -5.37132E+03 -1.79893E+03
 -4.17500E+03 -2.61821E+03 -1.64236E+03 -4.29104E+03  2.61137E+03 -9.02830E+03  6.41203E+03 -2.27918E+03
  5.02696E+03 -1.04194E+03  1.57499E+03  5.97345E+03 -3.30993E+02  6.36993E+03 -5.77199E+03  3.73058E+03
