 $NMID ID='MM_0lb_SNR200_11hz_g45_12.RAW', FMTDAT='(8E13.5)'
 TRAMP=1., VOLUME=1. $END
  3.09250E+05  4.30085E+02  3.37967E+05  2.51740E+05  8.44176E+04  3.37349E+05 -1.32512E+05  2.51147E+05
 -1.91395E+05  8.33125E+04 -1.10446E+05 -3.11888E+04  1.63419E+03 -5.15900E+04  5.32723E+04 -1.33557E+03
  3.51297E+04  5.36980E+04 -1.65155E+04  7.62560E+04 -6.01284E+04  6.39858E+04 -8.49753E+04  3.17612E+04
 -8.18381E+04 -1.07896E+04 -5.92118E+04 -5.03482E+04 -1.43846E+04 -7.12689E+04  2.88917E+04 -4.64651E+04
  4.16201E+04  4.21601E+03  1.75616E+04  4.82450E+04 -3.53593E+04  4.75512E+04 -6.66820E+04  7.17404E+02
 -5.46912E+04 -5.72573E+04 -7.14812E+03 -7.80324E+04  3.60065E+04 -5.64525E+04  4.75766E+04 -1.70481E+04
  4.34282E+04  1.09541E+04  3.28784E+04  2.63943E+04  1.59607E+04  3.00103E+04 -5.10788E+03  2.73830E+04
 -2.20019E+04  1.24079E+04 -1.78634E+04 -5.31023E+03  7.39919E+03 -7.38331E+03  2.33833E+04  1.24889E+04
  7.83916E+03  3.68972E+04 -3.24084E+04  3.81191E+04 -6.55387E+04  1.87998E+03 -5.59727E+04 -4.39380E+04
 -1.28291E+04 -6.42825E+04  4.11329E+04 -4.56950E+04  6.05925E+04 -2.24516E+03  3.63787E+04  3.35500E+04
 -7.33487E+03  3.82455E+04 -3.24168E+04  1.61714E+04 -3.21241E+04 -3.93233E+03 -1.73495E+04 -1.18760E+04
 -7.44350E+03 -1.49476E+04 -6.24355E+02 -1.93629E+04  6.32079E+03 -2.16429E+04  1.82671E+04 -1.41688E+04
  9.74038E+03  5.85632E+03 -9.74816E+03  1.29056E+04 -2.22841E+04 -5.91790E+03 -7.71469E+03 -3.60111E+04
  2.54675E+04 -4.58467E+04  4.99930E+04 -1.89873E+04  4.59775E+04  2.10539E+04  1.72415E+04  4.52726E+04
 -1.64123E+04  3.48724E+04 -2.72129E+04  2.34859E+03 -1.08173E+04 -2.73028E+04  2.25211E+04 -3.55492E+04
  4.36847E+04 -1.04061E+04  3.88710E+04  2.39162E+04  1.91786E+04  4.89595E+04 -7.40656E+03  5.31957E+04
 -3.34497E+04  3.60189E+04 -4.41485E+04  1.06080E+04 -4.54567E+04 -1.73617E+04 -2.53313E+04 -3.97901E+04
  7.64153E+03 -3.94775E+04  3.39261E+04 -1.64067E+04  2.96350E+04  1.04418E+04  4.39000E+03  1.90831E+04
 -1.38187E+04  9.14177E+03 -1.22356E+04 -8.36614E+03  5.39521E+03 -1.20435E+04  2.05017E+04  6.45455E+03
  1.35709E+04  2.31639E+04 -5.44280E+03  2.67727E+04 -2.26364E+04  1.33271E+04 -2.83274E+04 -4.38747E+03
 -2.27258E+04 -1.77909E+04 -9.96648E+03 -2.07243E+04  4.78465E+03 -2.24722E+04  1.81984E+04 -2.16824E+04
  2.97640E+04 -1.32738E+04  3.52369E+04  4.32749E+03  2.56548E+04  2.28392E+04  3.90573E+03  3.85152E+04
 -1.89421E+04  3.22511E+04 -3.04915E+04  1.04604E+04 -2.12939E+04 -1.12172E+04 -4.80230E+03 -1.21148E+04
  1.34336E+03 -8.08590E+01 -6.20830E+03  5.87499E+03 -1.81523E+04  6.46865E+03 -1.80778E+04 -8.43475E+03
 -1.30856E+04 -2.03680E+04  5.71698E+03 -2.54381E+04  1.71658E+04 -1.76467E+04  2.14941E+04 -9.33908E+02
  1.30710E+04  1.48749E+04 -1.88595E+03  2.35624E+04 -1.57911E+04  1.10541E+04 -2.23811E+04 -4.81921E+03
 -1.62020E+04 -1.95145E+04 -3.09584E+03 -2.69147E+04  1.09701E+04 -2.23104E+04  2.12639E+04 -1.10799E+04
  1.89000E+04 -7.63728E+02  1.38351E+04  5.81035E+03  7.97146E+03  3.27451E+03  1.08896E+04 -6.88419E+02
  1.96062E+04  3.64772E+03  2.15389E+04  1.65169E+04  1.43896E+04  3.30222E+04 -1.67053E+03  3.86913E+04
 -2.20084E+04  3.28702E+04 -3.75099E+04  1.59701E+04 -4.10561E+04 -3.48452E+03 -3.13984E+04 -2.31615E+04
 -1.29058E+04 -3.18543E+04  1.12980E+04 -2.93452E+04  2.36153E+04 -1.42808E+04  1.98002E+04  5.21806E+03
  7.40821E+03  1.75603E+04 -9.22415E+03  1.33131E+04 -1.80368E+04  3.01119E+03 -1.45352E+04 -1.08233E+04
 -3.06201E+02 -1.58810E+04  7.97989E+03 -1.36642E+04  1.27802E+04 -5.44472E+02  2.62920E+03  7.64469E+03
 -8.34566E+03  4.15107E+03 -8.50050E+03 -6.12443E+03 -9.69332E+02 -1.60528E+04  1.04169E+04 -1.63004E+04
  2.14618E+04 -1.08646E+04  2.15500E+04  3.91099E+03  1.83137E+04  1.49655E+04  8.42344E+03  2.52694E+04
 -3.48787E+03  2.61547E+04 -1.82047E+04  1.71780E+04 -1.86505E+04  2.98350E+03 -1.46777E+04 -4.49213E+03
 -7.01752E+03 -6.49382E+03  2.78326E+01  8.94782E+02 -2.77192E+03  2.81326E+03 -7.14319E+03  6.91073E+03
 -1.12843E+04 -5.92447E+02 -1.16620E+04 -9.63011E+03 -4.46486E+03 -1.69703E+04  5.91258E+03 -1.33147E+04
  1.13645E+04 -4.51054E+03  9.11570E+03  2.30976E+03 -1.42739E+03  5.46179E+03 -7.32519E+03  4.57900E+02
 -6.90202E+03 -8.40722E+03 -9.06866E+01 -1.39804E+04  8.43035E+03 -1.30037E+04  1.67722E+04 -6.87257E+03
  1.98628E+04  1.53001E+03  1.56365E+04  1.15590E+04  4.46588E+03  1.56964E+04 -9.70545E+03  1.40416E+04
 -1.06996E+04  4.48835E+03 -5.60162E+03 -3.90302E+03  1.70588E+03 -3.99693E+03  6.91832E+03 -3.67371E+02
  5.78577E+03  7.56652E+03  1.32531E+03  1.12996E+04 -7.42286E+03  1.06323E+04 -1.26554E+04  2.48272E+03
 -9.76207E+03 -7.08228E+03  4.63609E+02 -1.12731E+04  7.32380E+03 -5.49947E+03  7.08787E+03  2.53140E+03
  1.35439E+03  7.58555E+03 -6.48926E+03  8.74181E+03 -1.06469E+04  3.51484E+03 -1.11115E+04 -5.00944E+03
 -5.93835E+03 -1.32651E+04  1.74675E+03 -1.45222E+04  1.25043E+04 -7.99191E+03  1.42231E+04  9.25224E+02
  8.59562E+03  1.08620E+04 -2.99782E+02  1.39442E+04 -9.26602E+03  7.80403E+03 -1.08850E+04 -1.80596E+03
 -8.95868E+03 -8.42799E+03 -1.87504E+03 -8.65352E+03  4.24766E+03 -7.46735E+03  6.23976E+03 -3.71774E+03
  5.01125E+03  8.43433E+02 -1.13798E+03  1.08526E+03 -7.23489E+02 -2.19483E+03  6.45606E+02 -6.05906E+03
  8.92246E+03 -3.92763E+03  1.19546E+04  2.33489E+03  1.27466E+04  8.79587E+03  8.68676E+03  1.67059E+04
 -2.90098E+03  1.95402E+04 -1.57241E+04  1.38249E+04 -1.85783E+04  2.52586E+03 -1.59566E+04 -7.95237E+03
 -7.85471E+03 -1.39375E+04 -5.92466E+02 -1.27201E+04  5.23039E+03 -6.03738E+03  4.98594E+03 -5.76375E+03
  3.03896E+03 -3.02718E+03  2.30822E+03 -2.87285E+03  4.31113E+03 -9.47099E+02  6.34460E+03  4.85628E+02
  9.90927E+03  2.98625E+03  5.00396E+03  8.55654E+03 -2.27495E+03  8.62586E+03 -7.64793E+03  7.20341E+03
 -1.11735E+04 -1.82493E+03 -7.21219E+03 -7.92180E+03  3.85943E+01 -1.24236E+04  6.95621E+03 -1.05741E+04
  1.26912E+04 -5.90982E+03  1.54894E+04  2.17439E+03  1.01193E+04  1.20967E+04  1.71960E+03  1.41617E+04
 -5.75070E+03  1.32861E+04 -9.68683E+03  3.94631E+03 -5.88979E+03 -2.27515E+03 -2.70869E+03 -1.47351E+03
 -1.70186E+03 -1.21364E+02 -1.88621E+03  2.83090E+03 -5.90701E+03  1.98590E+03 -7.69011E+03  1.93054E+02
 -4.73046E+03 -7.71486E+03  1.19705E+03 -1.03573E+04  6.60518E+03 -1.12380E+04  1.05279E+04 -3.24684E+03
  1.07983E+04  4.76541E+03  4.16180E+03  1.08529E+04 -1.73117E+03  1.15711E+04 -8.38318E+03  7.71090E+03
 -1.15486E+04  1.15497E+02 -8.35680E+03 -6.63616E+03 -1.30073E+03 -1.09143E+04  4.60934E+03 -7.58037E+03
  6.47244E+03 -2.98965E+03  4.19007E+03  2.08095E+03  1.29459E+03  3.66313E+03 -9.41672E+01  7.01832E+02
  2.50890E+03 -3.57506E+02  2.87540E+03  1.30135E+03  3.50026E+03  4.75568E+03  2.77433E+03  6.21114E+03
 -2.87369E+03  7.59091E+03 -7.75897E+03  8.97420E+03 -1.16261E+04  1.73946E+03 -1.26553E+04 -3.79742E+03
 -5.66305E+03 -1.16811E+04  1.31127E+03 -1.18527E+04  5.93734E+03 -8.67451E+03  9.12149E+03 -3.18310E+03
  6.48149E+03  4.97823E+03  2.47713E+03  5.71382E+03 -2.47803E+03  3.88786E+03 -5.86258E+03 -6.08239E+02
 -3.01654E+03 -4.16927E+03  3.27320E+03 -5.07672E+03  4.41339E+03 -2.62219E+03  4.99144E+03  1.68110E+03
  3.46570E+03  1.95456E+03  1.03613E+03  2.22644E+03 -6.65496E+02  2.20658E+03  1.92088E+03 -1.26541E+03
  2.05419E+03 -9.61072E+02  5.90233E+03  1.61217E+03  1.34904E+03  4.55803E+03 -1.90993E+02  8.01572E+03
 -6.31870E+03  4.98483E+03 -7.60875E+03  1.81281E+03 -5.91712E+03 -2.55884E+03 -2.01768E+03 -4.89229E+03
  6.49272E+02 -3.17166E+03  3.12877E+03 -1.28284E+03  2.40822E+03  3.25368E+03 -2.00892E+03  5.58860E+03
 -4.72324E+03  2.84297E+03 -6.14403E+03 -1.77665E+03 -3.04820E+03 -6.64302E+03  1.24759E+03 -6.82562E+03
  3.47572E+03 -4.17069E+03  4.28534E+03 -6.71133E+02  3.64301E+03  6.62055E+02  1.34329E+03  2.76228E+03
 -1.51022E+03  1.59127E+03 -4.03870E+03 -2.39318E+03  2.35328E+03 -4.80637E+03  4.97959E+03 -3.72964E+03
  5.22103E+03  9.31310E+02  6.27837E+03  3.89312E+03  1.42838E+03  7.60580E+03 -2.85549E+03  6.12584E+03
 -3.99753E+03  2.73316E+03 -6.07190E+03 -4.94862E+02 -3.61974E+03 -4.88336E+03  6.90596E+02 -4.54761E+03
  3.92083E+03 -2.17189E+03  4.11549E+03  1.73176E+03  1.20051E+03  4.00352E+03  1.31388E+03  2.65734E+03
 -1.64806E+03  2.10334E+03 -1.61059E+03  1.11660E+03 -8.83736E+02  1.25037E+03 -1.98751E+03  2.41105E+03
 -1.95989E+03  3.47313E+03 -6.97013E+03  2.33304E+03 -6.32141E+03 -4.82605E+02 -7.64773E+03 -4.14414E+03
 -3.36834E+03 -9.32114E+03  2.96997E+03 -1.04910E+04  5.44624E+03 -8.84220E+03  9.15912E+03 -2.08120E+03
  9.29701E+03  1.98212E+03  4.85221E+03  8.30979E+03  1.36542E+03  7.00556E+03 -2.15759E+03  4.67226E+03
 -3.92934E+03  2.23281E+03 -2.64404E+03 -6.77763E+02 -1.80024E+03 -1.49453E+03 -1.01319E+03 -2.43534E+02
 -1.33652E+03 -2.40832E+02 -1.30233E+03 -6.05538E+02  4.28846E+02 -2.71588E+03 -4.95579E+02 -3.01810E+03
  2.63426E+03 -1.56198E+03  3.53395E+03  1.14469E+03  5.97056E+03  5.43913E+03  1.41012E+03  7.46223E+03
 -4.44247E+03  8.78187E+03 -8.49268E+03  4.61008E+03 -8.42614E+03 -1.30635E+03 -6.75309E+03 -4.74292E+03
 -2.54898E+03 -7.53362E+03  1.78211E+03 -7.26370E+03  5.14051E+03 -3.32097E+03  5.14319E+03  3.59171E+02
  1.17610E+03  2.18008E+03  1.18135E+03  3.21445E+03 -1.53549E+03 -7.15845E+02 -9.51708E+02 -2.65312E+03
  1.34284E+03 -9.04128E+02  2.08109E+03  2.11518E+03  1.42434E+03  3.00218E+03  5.40486E+02  2.93818E+03
 -3.34507E+03  3.57679E+03 -5.70248E+03  5.79498E+02 -4.06193E+03 -4.94627E+03 -1.89050E+03 -5.92505E+03
  4.80815E+03 -5.77281E+03  6.28187E+03 -3.11708E+02  5.87485E+03  1.12195E+03  1.80900E+03  5.81775E+03
 -7.31669E+02  4.12830E+03 -8.20828E+02  2.95896E+03 -2.90076E+03  2.21059E+03 -3.05203E+03 -7.80621E+02
 -3.03396E+02 -9.70782E+02 -1.44449E+03  3.75504E+02 -9.05655E+02  1.01554E+03 -3.91947E+03 -1.82173E+03
 -3.55543E+03 -1.84402E+03 -5.61926E+02 -4.78471E+03  1.32797E+03 -5.56157E+03  3.72604E+03 -3.34002E+03
  3.50033E+03  1.29640E+03  1.68524E+03  2.69813E+03 -7.58032E+02  5.01768E+03 -4.45193E+03  4.47108E+03
