 $NMID ID='MM_0lb_SNR200_10hz_g45_82.RAW', FMTDAT='(8E13.5)'
 TRAMP=1., VOLUME=1. $END
  3.09357E+05 -6.92623E+02  3.38651E+05  2.51996E+05  8.66122E+04  3.38098E+05 -1.32171E+05  2.51828E+05
 -1.90466E+05  8.37014E+04 -1.11778E+05 -3.22944E+04  9.46173E+01 -5.05450E+04  5.21069E+04 -7.67760E+02
  3.46263E+04  5.27052E+04 -1.67011E+04  7.53169E+04 -6.04703E+04  6.50545E+04 -8.46022E+04  3.11724E+04
 -8.22400E+04 -1.10722E+04 -5.86514E+04 -5.16512E+04 -1.46912E+04 -7.04929E+04  2.72210E+04 -4.53311E+04
  4.03966E+04  4.06231E+03  1.61985E+04  4.74091E+04 -3.41639E+04  4.69972E+04 -6.74331E+04  1.66673E+02
 -5.41010E+04 -5.76800E+04 -7.55905E+03 -7.74148E+04  3.53676E+04 -5.59997E+04  4.92355E+04 -1.77844E+04
  4.42308E+04  1.13828E+04  3.19499E+04  2.71288E+04  1.67807E+04  3.01496E+04 -5.41229E+03  2.77901E+04
 -2.34905E+04  1.35090E+04 -1.94299E+04 -7.12755E+03  7.07481E+03 -7.89376E+03  2.36005E+04  1.41805E+04
  6.35356E+03  3.74595E+04 -3.35357E+04  3.59364E+04 -6.39782E+04  2.49132E+03 -5.95470E+04 -4.27943E+04
 -1.22279E+04 -6.46568E+04  4.18468E+04 -4.67704E+04  6.13124E+04 -2.38033E+03  3.52130E+04  3.35566E+04
 -5.37356E+03  3.75680E+04 -3.08028E+04  1.68940E+04 -3.27987E+04 -4.01145E+03 -1.80467E+04 -1.12022E+04
 -9.41235E+03 -1.50902E+04 -1.83342E+03 -1.99082E+04  1.05601E+04 -2.32477E+04  1.69145E+04 -1.27576E+04
  1.11894E+04  4.93328E+03 -9.66888E+03  1.39604E+04 -2.20915E+04 -6.83702E+03 -9.06778E+03 -3.56486E+04
  2.58168E+04 -4.68372E+04  5.10419E+04 -2.11282E+04  4.82027E+04  2.00560E+04  1.58144E+04  4.51554E+04
 -1.66357E+04  3.52734E+04 -2.61458E+04  1.55744E+03 -1.13029E+04 -2.88157E+04  2.23911E+04 -3.64992E+04
  4.46517E+04 -9.12318E+03  3.90204E+04  2.46920E+04  1.95343E+04  4.97935E+04 -8.97492E+03  5.32468E+04
 -3.28221E+04  3.64539E+04 -4.59968E+04  1.16301E+04 -4.63418E+04 -1.80481E+04 -2.50741E+04 -4.13616E+04
  7.83870E+03 -4.05404E+04  3.39210E+04 -1.65548E+04  3.15828E+04  1.03237E+04  4.68142E+03  1.97656E+04
 -1.42262E+04  9.96818E+03 -9.86667E+03 -6.68039E+03  5.34670E+03 -1.14605E+04  1.92377E+04  5.56972E+03
  1.37685E+04  2.36052E+04 -3.54488E+03  2.63476E+04 -2.27353E+04  1.35776E+04 -3.13560E+04 -3.35948E+03
 -2.48050E+04 -1.85387E+04 -1.16524E+04 -2.45091E+04  4.94470E+03 -2.20500E+04  1.76739E+04 -2.09366E+04
  2.99353E+04 -1.36365E+04  3.69067E+04  4.08737E+03  2.51641E+04  2.24795E+04  5.30668E+03  4.06682E+04
 -1.84911E+04  3.27905E+04 -2.84054E+04  1.21742E+04 -2.31036E+04 -1.02717E+04 -5.06503E+03 -1.33487E+04
  1.97835E+03 -1.42133E+03 -6.96344E+03  7.57173E+03 -1.89888E+04  6.08304E+03 -1.87763E+04 -9.14422E+03
 -1.08064E+04 -2.27833E+04  4.85986E+03 -2.53094E+04  1.59141E+04 -2.05566E+04  2.05934E+04 -8.80075E+02
  1.36317E+04  1.54972E+04 -1.30567E+03  2.04825E+04 -1.55668E+04  1.24083E+04 -2.28536E+04 -4.75207E+03
 -1.73320E+04 -2.02404E+04 -2.50258E+03 -2.56732E+04  1.26496E+04 -1.98657E+04  2.33048E+04 -1.22930E+04
  2.05145E+04 -8.31175E+02  1.48178E+04  4.70188E+03  7.91824E+03  1.06507E+03  1.09665E+04 -1.92466E+03
  2.02208E+04  3.07943E+03  2.49958E+04  1.72788E+04  1.62038E+04  3.59929E+04 -3.64346E+03  4.15720E+04
 -2.31901E+04  3.47402E+04 -3.71209E+04  1.63911E+04 -4.13248E+04 -2.19630E+03 -3.20579E+04 -2.33257E+04
 -1.31669E+04 -3.55174E+04  1.29803E+04 -3.06206E+04  2.61594E+04 -1.55092E+04  2.38152E+04  7.74766E+03
  7.70515E+03  1.91267E+04 -1.15589E+04  1.37103E+04 -1.94038E+04  2.95413E+03 -1.37325E+04 -1.12294E+04
 -8.16765E+02 -1.87837E+04  9.51135E+03 -1.34806E+04  1.28466E+04 -1.96944E+03  4.22998E+03  8.22668E+03
 -7.47066E+03  2.03238E+03 -6.84858E+03 -5.24292E+03 -2.71774E+03 -1.86759E+04  1.11945E+04 -1.85415E+04
  2.09849E+04 -1.15988E+04  2.47467E+04  2.27991E+03  2.01876E+04  1.70909E+04  9.96363E+03  2.50951E+04
 -4.79734E+03  2.81415E+04 -1.96062E+04  1.70616E+04 -2.07180E+04  3.99918E+03 -1.54996E+04 -6.04581E+03
 -6.81358E+03 -6.70106E+03 -1.57015E+03  9.66831E+02 -2.29861E+03  3.70542E+03 -7.24443E+03  5.21371E+03
 -1.22100E+04 -5.79500E+02 -1.39979E+04 -1.13927E+04 -6.22516E+03 -1.74628E+04  6.34881E+03 -1.60340E+04
  1.18293E+04 -6.47621E+03  8.10391E+03  5.06346E+03 -1.99055E+03  4.73147E+03 -6.11919E+03  1.84652E+03
 -7.68334E+03 -8.23015E+03 -1.22069E+02 -1.45130E+04  8.24183E+03 -1.51830E+04  1.76586E+04 -8.08074E+03
  2.15740E+04  1.81392E+03  1.41707E+04  1.17318E+04  2.34141E+03  1.65847E+04 -7.99959E+03  1.30547E+04
 -1.12326E+04  4.89206E+03 -6.33369E+03 -3.40312E+03  1.84710E+03 -2.81603E+03  8.20876E+03 -1.11100E+03
  6.75421E+03  7.57169E+03  1.94837E+03  1.08335E+04 -8.21396E+03  1.07710E+04 -1.41094E+04  3.87984E+03
 -1.01931E+04 -5.20799E+03  8.74956E+02 -1.35358E+04  8.39647E+03 -6.52918E+03  8.22390E+03  3.46217E+03
  1.24280E+03  8.03255E+03 -7.63456E+03  9.88527E+03 -1.27255E+04  6.95659E+03 -1.22557E+04 -3.85687E+03
 -8.53285E+03 -1.34036E+04  2.90527E+03 -1.56302E+04  1.32911E+04 -8.94601E+03  1.52802E+04  3.25343E+03
  8.32345E+03  1.19195E+04 -1.01187E+03  1.47926E+04 -9.99386E+03  6.35339E+03 -1.11181E+04  3.95695E+02
 -8.33211E+03 -9.11448E+03 -2.06228E+03 -1.10189E+04  6.56025E+03 -8.60134E+03  6.22489E+03 -3.90741E+03
  4.53423E+03  2.16129E+03 -3.69569E+01  2.77327E+03 -1.65465E+03 -3.39245E+03  1.66025E+03 -6.50969E+03
  1.13944E+04 -5.49196E+03  1.49066E+04  1.06384E+03  1.57850E+04  8.34970E+03  9.97349E+03  1.82645E+04
 -3.97162E+03  2.01221E+04 -1.67379E+04  1.42684E+04 -2.40218E+04  3.36882E+03 -1.92930E+04 -7.26571E+03
 -1.06803E+04 -1.70180E+04  3.04328E+02 -1.37109E+04  3.78494E+03 -6.49104E+03  4.35249E+03 -5.11723E+03
  4.07574E+03 -3.38461E+03  4.34154E+03 -2.90561E+03  5.18586E+03 -2.70847E+03  8.27972E+03 -1.16822E+03
  9.94624E+03  5.82901E+02  5.28402E+03  8.79610E+03 -2.39253E+03  1.07784E+04 -1.19753E+04  5.74995E+03
 -1.37165E+04 -1.22236E+03 -7.74132E+03 -9.48631E+03 -2.39011E+03 -1.37543E+04  8.05424E+03 -1.33240E+04
  1.49873E+04 -7.25723E+03  1.71446E+04  1.78245E+03  1.06823E+04  1.14487E+04  1.78782E+03  1.44765E+04
 -6.49344E+03  1.34714E+04 -1.08061E+04  4.56150E+03 -5.83925E+03 -1.36110E+02 -2.45716E+03 -1.12228E+03
 -1.03371E+03 -7.96179E+02 -1.46840E+03  3.30827E+03 -3.92481E+03  1.77369E+03 -8.74761E+03 -2.32754E+03
 -6.98906E+03 -9.14500E+03 -1.32192E+03 -1.21803E+04  9.25306E+03 -1.25954E+04  1.24955E+04 -2.82510E+03
  1.17277E+04  5.09724E+03  6.66219E+03  1.10621E+04 -2.41795E+03  1.30384E+04 -9.91159E+03  8.15158E+03
 -1.13089E+04  1.15085E+03 -9.82313E+03 -7.63261E+03 -2.64308E+03 -1.02882E+04  4.72687E+03 -8.87131E+03
  8.07684E+03 -2.13882E+03  5.29595E+03  5.29082E+02  2.21246E+03  4.20644E+03  1.82908E+03  1.82661E+03
  2.72763E+03  1.74647E+03  2.67603E+03  1.22643E+03  2.85867E+03  4.77960E+03  3.61816E+03  6.75431E+03
 -1.84164E+03  1.00975E+04 -7.68101E+03  1.18236E+04 -1.34124E+04  2.96543E+03 -1.36045E+04 -5.02704E+03
 -5.33390E+03 -1.23866E+04  2.37198E+03 -1.48493E+04  6.53003E+03 -9.08132E+03  1.13832E+04 -2.40942E+03
  8.87934E+03  6.17825E+03  1.71025E+03  6.93869E+03 -4.45315E+03  3.33507E+03 -4.11982E+03 -1.40803E+03
 -1.73552E+03 -5.29136E+03  2.46177E+03 -6.39803E+03  4.97835E+03 -1.10667E+03  6.12699E+03  2.70850E+03
  2.67163E+03  2.43381E+03  1.52312E+03  2.25172E+03 -1.09351E+03  6.95278E+01  1.10364E+03  7.08391E+02
  2.82608E+03  8.59342E+02  6.50840E+03  1.39023E+03  2.60862E+03  6.40352E+03 -2.34437E+02  9.97469E+03
 -6.22477E+03  5.56871E+03 -7.80830E+03  2.11102E+03 -8.33697E+03 -4.53527E+03 -1.37669E+03 -5.61455E+03
  3.37133E+02 -5.30210E+03  5.39026E+03 -2.70442E+03  1.92295E+03  2.39625E+03  7.88953E+02  3.61455E+03
 -5.83292E+03  4.10259E+03 -6.75502E+03 -4.52440E+03 -4.53190E+03 -6.89053E+03  1.64879E+03 -6.54010E+03
  3.30435E+03 -3.53772E+03  5.38383E+03  7.36053E+02  4.60316E+03  2.07687E+03  1.65512E+03  4.43796E+03
 -3.09554E+03  1.59613E+03 -2.15414E+03 -2.49100E+03  1.76730E+03 -4.77887E+03  5.02329E+03 -4.79915E+03
  7.38759E+03  8.16280E+02  6.47377E+03  6.30186E+03  1.39898E+03  8.22648E+03 -3.03612E+03  1.00263E+04
 -6.89203E+03  2.88763E+03 -7.17207E+03 -1.08545E+03 -4.68581E+03 -4.89531E+03  5.28336E+02 -4.96704E+03
  5.91178E+03 -1.40115E+02  4.54864E+03  1.78266E+03  2.91495E+03  4.86436E+03 -1.14665E+03  4.70545E+03
 -2.03849E+03  1.27881E+03 -2.93023E+03  1.06554E+03 -1.21873E+03  2.69093E+03 -1.32561E+03  1.55172E+03
 -1.88242E+03  2.99401E+03 -4.46263E+03  2.47475E+03 -7.50220E+03 -7.25363E+02 -8.24869E+03 -5.75615E+03
 -5.31776E+03 -1.03493E+04  3.34376E+03 -1.23634E+04  6.86620E+03 -9.98291E+03  1.22914E+04 -4.65935E+03
  1.13506E+04  2.55152E+03  7.97042E+03  8.33325E+03  1.78563E+02  8.60354E+03 -2.70707E+03  6.32380E+03
 -4.01480E+03  3.20531E+03 -4.05897E+03 -1.68187E+03 -1.89382E+03  9.02607E+02 -1.89408E+03 -1.25805E+03
 -1.26098E+03 -1.71794E+02 -1.49743E+03 -3.59915E+02 -9.90609E+02 -1.35077E+03  2.06155E+02 -3.42575E+03
  4.23090E+03 -3.63919E+03  5.81762E+03 -1.52587E+02  5.42525E+03  4.26202E+03  1.82914E+03  8.50768E+03
 -4.15340E+03  1.10926E+04 -9.16422E+03  4.58946E+03 -9.85038E+03 -1.24887E+03 -6.51350E+03 -6.92384E+03
 -2.65127E+03 -8.69703E+03  1.23304E+02 -7.27419E+03  6.25626E+03 -4.63728E+03  4.62612E+03  1.58168E+03
  3.54386E+03  1.92464E+03 -1.80126E+02  1.03817E+03 -1.80921E+03  5.48800E+02  5.65263E+02 -1.21816E+03
  3.87671E+03 -2.38788E+02  3.66069E+03  1.88079E+03  1.69454E+03  5.35023E+03  7.15185E+02  5.44950E+03
 -4.43013E+03  4.79328E+03 -5.19750E+03  1.55399E+02 -6.10237E+03 -4.10282E+03 -9.55265E+02 -7.56015E+03
  3.41795E+03 -5.95196E+03  6.54327E+03 -1.13096E+03  7.27365E+03  1.99505E+03  3.97099E+03  4.90769E+03
  1.87452E+03  4.88675E+03 -2.26465E+03  4.08085E+03 -4.56064E+03  1.96718E+03 -3.59345E+03  1.99113E+03
 -2.55038E+02 -9.65613E+02 -2.56905E+03 -2.11862E+02 -2.71285E+03  6.70088E+02 -4.98703E+03 -9.96108E+02
 -4.16883E+03 -2.85262E+03 -1.39228E+03 -4.79386E+03  1.31722E+03 -6.11957E+03  4.33814E+03 -2.55615E+03
  7.02790E+03 -2.66967E+02  2.80210E+03  3.85477E+03 -6.79889E+02  5.76440E+03 -3.25215E+03  2.83826E+03
