 $NMID ID='MM_0lb_SNR200_20hz_g40_55.RAW', FMTDAT='(8E13.5)'
 TRAMP=1., VOLUME=1. $END
  3.09520E+05  6.91514E+02  3.37325E+05  2.51125E+05  8.48508E+04  3.36846E+05 -1.32360E+05  2.49576E+05
 -1.88604E+05  8.20400E+04 -1.10151E+05 -3.35425E+04  8.96493E+02 -5.06210E+04  5.30602E+04 -3.84858E+02
  3.53083E+04  5.27306E+04 -1.66974E+04  7.47071E+04 -5.90118E+04  6.21715E+04 -8.21298E+04  3.12953E+04
 -7.91114E+04 -1.08442E+04 -5.58042E+04 -4.95830E+04 -1.46745E+04 -6.71995E+04  2.58341E+04 -4.42831E+04
  3.93909E+04  4.24452E+03  1.62241E+04  4.74170E+04 -3.38555E+04  4.53956E+04 -6.45981E+04 -3.73815E+02
 -5.06628E+04 -5.47971E+04 -6.39621E+03 -7.40099E+04  3.30762E+04 -5.30683E+04  4.45558E+04 -1.46843E+04
  3.97199E+04  1.09864E+04  3.03466E+04  2.35520E+04  1.59301E+04  2.76115E+04 -3.84115E+03  2.57172E+04
 -2.18673E+04  1.35841E+04 -1.98851E+04 -4.30647E+03  3.56661E+03 -6.81656E+03  2.03428E+04  1.06840E+04
  7.66170E+03  3.31692E+04 -2.87824E+04  3.30084E+04 -6.04169E+04  2.28770E+03 -5.44138E+04 -4.04411E+04
 -1.27170E+04 -5.88783E+04  3.73689E+04 -4.23088E+04  5.40879E+04 -1.71145E+03  3.12798E+04  2.94545E+04
 -6.62194E+03  3.14982E+04 -2.81996E+04  1.15820E+04 -2.60607E+04 -4.94385E+03 -1.25079E+04 -9.08767E+03
 -6.97603E+03 -1.07285E+04 -1.82102E+03 -1.54766E+04  6.38582E+03 -2.25207E+04  1.41746E+04 -1.42881E+04
  1.18224E+04  3.80464E+03 -4.31551E+03  1.37967E+04 -1.88898E+04 -1.83083E+03 -7.80021E+03 -2.73084E+04
  1.93611E+04 -3.87511E+04  4.39226E+04 -1.80611E+04  4.01671E+04  1.72349E+04  1.33084E+04  4.03471E+04
 -1.52440E+04  3.00367E+04 -2.17180E+04  9.20791E+02 -7.22012E+03 -2.59378E+04  1.98709E+04 -2.96148E+04
  3.63544E+04 -6.29309E+03  3.00244E+04  2.22851E+04  1.40514E+04  4.03455E+04 -6.72347E+03  4.26206E+04
 -2.65133E+04  2.72061E+04 -3.49969E+04  7.98608E+03 -3.56893E+04 -1.42193E+04 -2.03336E+04 -3.19420E+04
  7.44025E+03 -3.35523E+04  2.85765E+04 -1.19014E+04  2.59945E+04  1.07056E+04  1.65453E+03  1.79571E+04
 -1.30874E+04  6.97311E+03 -9.13241E+03 -8.23818E+03  6.01482E+03 -9.75980E+03  1.67882E+04  6.77680E+03
  1.15357E+04  2.02832E+04 -6.83013E+03  2.28641E+04 -2.11313E+04  7.83808E+03 -2.33846E+04 -6.71327E+03
 -1.43343E+04 -1.55804E+04 -4.04771E+03 -1.45684E+04  3.26982E+03 -1.18815E+04  1.18882E+04 -1.20326E+04
  1.74736E+04 -1.18010E+04  2.55498E+04  2.41726E+02  2.00529E+04  1.45493E+04  4.19153E+03  3.12129E+04
 -1.43687E+04  2.52675E+04 -2.45611E+04  8.31399E+03 -1.92907E+04 -1.04686E+04 -3.62594E+03 -1.45391E+04
  3.23414E+03 -3.41132E+03 -1.72897E+03  4.14075E+03 -1.14416E+04  5.36615E+03 -1.21878E+04 -4.46872E+03
 -7.48752E+03 -1.36282E+04  3.58707E+03 -1.80021E+04  1.17707E+04 -1.23538E+04  1.33431E+04 -8.37029E+02
  6.79833E+03  1.02306E+04  2.31000E+02  1.42216E+04 -9.44022E+03  7.37688E+03 -1.46067E+04 -2.60237E+03
 -1.01477E+04 -1.36937E+04 -1.27031E+03 -1.71324E+04  8.33097E+03 -1.29101E+04  1.40246E+04 -6.22574E+03
  1.37416E+04  1.40119E+03  9.62157E+03  3.79636E+03  4.55606E+03  4.08254E+02  6.93003E+03 -1.51905E+03
  1.25076E+04  2.12502E+03  1.29656E+04  1.17329E+04  7.94922E+03  2.25012E+04 -3.08064E+03  2.31124E+04
 -1.38840E+04  1.73568E+04 -2.10499E+04  8.67860E+03 -2.22715E+04 -1.42851E+03 -1.87648E+04 -1.15835E+04
 -1.00197E+04 -1.65917E+04  5.00059E+03 -1.67389E+04  1.46619E+04 -9.80542E+03  1.48848E+04  2.88586E+03
  5.61808E+03  1.00963E+04 -6.19654E+03  8.80518E+03 -1.15654E+04  1.04412E+03 -9.64065E+03 -6.98102E+03
 -1.53104E+03 -1.05366E+04  5.41102E+03 -8.58019E+03  7.48341E+03 -1.12055E+03  7.98476E+02  2.86544E+03
 -4.65534E+03  7.38813E+01 -4.20153E+03 -3.67183E+03  7.32417E+02 -7.73992E+03  6.35050E+03 -8.92425E+03
  1.16196E+04 -3.83008E+03  9.14341E+03  2.87643E+03  8.40805E+03  8.94566E+03  3.98546E+03  1.18067E+04
 -8.62538E+02  1.24647E+04 -8.17148E+03  9.26184E+03 -9.10118E+03  2.37055E+03 -7.66524E+03 -7.34980E+02
 -5.02431E+03 -3.05596E+03 -1.09146E+03  1.82294E+03 -1.21968E+03  2.54459E+03 -2.61515E+03  3.21849E+03
 -6.97216E+03 -7.87018E+02 -8.26025E+03 -7.01842E+03 -3.08803E+03 -1.00694E+04  2.69415E+03 -8.05340E+03
  6.22876E+03 -2.83214E+03  3.88137E+03  2.61963E+03  5.12141E+02  2.15297E+03 -2.75581E+03 -3.49429E+02
 -2.37703E+03 -4.94474E+03 -9.66958E+02 -5.84089E+03  3.52052E+03 -7.48567E+03  7.70323E+03 -3.28919E+03
  1.05085E+04  7.14966E+02  8.59772E+03  4.77389E+03  7.95123E+02  7.36256E+03 -4.74399E+03  6.49062E+03
 -6.16012E+03  2.74992E+03 -2.88117E+03 -1.28992E+03  1.37918E+03 -1.07608E+03  3.66028E+03 -1.02685E+03
  3.85898E+03  2.03542E+03  5.14884E+02  5.00313E+03 -4.25173E+03  5.60385E+03 -7.33912E+03  1.91090E+03
 -4.90891E+03 -2.92830E+03 -1.55428E+02 -6.04000E+03  2.87289E+03 -3.74438E+03  3.59269E+03 -4.53195E+02
  8.41143E+01  2.33004E+03 -3.98200E+03  4.61834E+03 -3.48916E+03  2.03082E+03 -3.35259E+03  2.27903E+02
 -1.63447E+03 -4.60764E+03  1.07081E+03 -5.84459E+03  5.48606E+03 -3.89403E+03  4.97817E+03  6.62307E+02
  4.42741E+03  4.99599E+03  8.56127E+02  7.31917E+03 -4.08190E+03  3.97935E+03 -4.79590E+03 -1.37705E+03
 -4.81119E+03 -4.24555E+03 -1.39760E+03 -4.06893E+03  2.08619E+03 -3.71935E+03  2.74656E+03 -2.31093E+03
  2.69782E+03 -1.07913E+03 -4.13862E+02  1.10065E+03  6.74755E+02 -8.99564E+00  4.29021E+02 -1.09251E+03
  3.35432E+03 -3.94559E+02  3.83394E+03  1.46881E+02  4.32557E+03  2.23217E+03  3.98606E+03  6.03962E+03
 -1.61639E+03  6.13004E+03 -6.82045E+03  5.03845E+03 -8.98948E+03  1.54175E+03 -6.38100E+03 -2.74111E+03
 -4.72067E+03 -5.07727E+03  4.48789E+02 -4.11516E+03  1.80592E+03 -1.88548E+03  1.30250E+03 -1.61446E+03
  7.36338E+02 -8.39585E+02  1.83148E+03 -8.12945E+02  4.14005E+03 -9.02267E+02  3.19478E+03  4.73536E+02
  2.66307E+03  1.09345E+03  1.54606E+02  3.61670E+03 -1.14951E+03  2.36528E+03 -4.04545E+03  1.49720E+03
 -4.43631E+03 -1.25828E+03 -1.75101E+03 -3.21337E+03  1.11826E+03 -4.14366E+03  2.99314E+03 -4.18070E+03
  4.57424E+03 -2.75582E+03  5.11645E+03  4.22856E+02  5.08557E+03  2.96234E+03  3.26015E+02  4.77043E+03
 -2.17061E+03  5.03123E+03 -3.42428E+03  1.91213E+03 -9.72347E+02 -7.32221E+02  9.85454E+01  1.18725E+02
 -6.08105E+02  6.59585E+02 -7.59391E+02  2.22176E+03 -1.54272E+03  1.76990E+03 -2.91243E+03  8.35949E+02
 -6.83094E+02 -3.54283E+03  9.66311E+02 -4.01763E+03  2.31776E+03 -3.83156E+03  1.76391E+03 -1.33712E+02
  3.62335E+03  2.75798E+03  3.17895E+02  2.52419E+03 -1.01976E+03  3.78209E+03 -1.52045E+03  2.83120E+03
 -1.95241E+03  4.92186E+02 -4.13501E+03 -7.58936E+02 -7.16644E+02 -3.06688E+03  1.52356E+03 -2.27759E+03
  2.87301E+02 -1.07200E+03  1.02279E+03 -5.71266E+02  3.26882E+01  1.99713E+03  4.22567E+02  5.27429E+02
  1.37360E+03  6.44855E+01  3.73390E+02  2.04088E+01  1.63838E+03  1.29542E+03  8.38382E+02  1.05313E+03
 -1.34507E+03  3.03926E+03 -1.26640E+03  3.01052E+03 -1.78633E+03  1.40557E+03 -3.10196E+03 -2.55351E+01
 -2.80321E+02 -3.25003E+03  8.24005E+02 -3.67830E+03  1.64565E+03 -1.91495E+03  2.66865E+03 -1.54378E+03
  1.85748E+03  1.80901E+03  8.81263E+02  2.01338E+03 -1.55616E+03  1.40168E+03 -6.23140E+02 -1.17087E+02
 -1.01352E+03 -2.18565E+03  1.31391E+03 -8.36032E+02  1.31723E+03 -1.13475E+03  1.09793E+03  8.12931E+02
  1.77585E+01 -5.41019E+02  1.92911E+03  1.75022E+02 -6.31676E+02  5.79166E+02  8.20366E+02  1.27772E+02
 -2.93272E+02  8.36867E+00  2.06184E+03  1.15750E+03  5.71600E+02  1.51880E+03  2.51984E+02  2.32178E+03
 -1.12858E+03  7.62775E+02 -1.19680E+03 -3.59716E+02 -2.29016E+03  1.40688E+02  2.46099E+02 -1.00637E+03
  5.34781E+02 -6.65500E+02  1.17941E+03 -1.66144E+03 -7.47785E+02  1.33942E+03 -5.78243E+02  1.32926E+03
 -1.62028E+03 -3.18733E+02 -9.27514E+02 -6.95308E+02 -2.98800E+02 -2.16257E+03  2.34159E+02 -2.77939E+02
 -4.01751E+02 -6.89333E+02 -3.30403E+02  3.34043E+01  5.43887E+02  2.21148E+02  6.82377E+02  1.29187E+03
  2.95513E+02 -3.11244E+02 -1.27092E+03 -9.77763E+02 -3.00484E+02 -7.97453E+02  5.16268E+02  3.83024E+02
  1.44716E+03  2.44626E+02  2.73978E+03  1.95624E+02  3.73900E+02  9.70918E+02 -7.39341E+02  1.00186E+03
 -1.53111E+03  1.18252E+02  6.34190E+01 -1.21307E+02 -1.03453E+03 -1.32772E+03  8.58345E+02 -4.23298E+01
  1.03084E+03 -1.32015E+03  1.46107E+03  9.49667E+02 -2.87939E+02  2.40079E+02  3.12176E+02  6.43824E+02
  1.07872E+03  1.06058E+03 -4.40372E+02  2.81423E+02  4.93883E+02  5.26452E+01 -1.06583E+03  7.95019E+02
 -1.25695E+03  1.71556E+03 -8.13901E+02  7.19393E+02 -1.03275E+03  1.65732E+02 -1.40388E+03  5.15321E+01
 -8.71521E+02 -1.98401E+03 -5.73523E+02 -1.71013E+03  9.71056E+01 -1.14309E+03  1.59985E+03 -1.25194E+03
  2.62294E+03 -9.19646E+02  9.83731E+01  2.47113E+01 -1.23019E+03  3.85590E+02 -5.61492E+02  8.28931E+02
 -7.48792E+02  1.19114E+03  8.54772E+00 -5.81505E+02  1.30904E+01 -1.56732E+02 -4.24565E+02 -1.24945E+02
 -1.36177E+03  4.12714E+02 -6.70075E+02 -4.78268E+02 -1.34003E+01 -5.17501E+02 -2.88010E+02 -2.26081E+02
  8.95155E+02 -6.31415E+02  4.43698E+02 -6.84778E+02  3.79669E+02  5.80301E+02 -5.80404E+02  2.36047E+02
  3.39158E+02  2.17407E+03 -2.64220E+03  3.75111E+01 -9.01091E+02  2.16896E+02 -7.50616E+01 -1.27371E+03
  5.63418E+01 -2.12576E+03  4.41315E+02 -6.07186E+02  5.14095E+02 -3.66440E+02  5.58601E+02  7.03275E+01
  3.20559E+02 -6.29757E+02 -3.83265E+02  2.39825E+02 -1.41456E+03  1.71990E+02 -1.15623E+03  2.22032E+02
 -1.48566E+01  1.55574E+00  5.53629E+02  8.46367E+02  5.04587E+02  1.36610E+03  1.13768E+03  6.67066E+02
 -1.11912E+03  9.59485E+02  4.47045E+02 -1.03558E+03 -7.96471E+02 -2.04796E+02 -2.81188E+02 -1.53142E+03
  9.11018E+02 -8.01998E+02  2.36798E+02  8.68580E+02  1.22031E+03 -1.25208E+03  8.18746E+02  1.08559E+03
  6.32296E+01 -1.24674E+02 -8.99223E+02  2.14785E+02 -2.83324E+02 -1.48182E+02 -4.79019E+02  6.86955E+02
 -7.52673E+02 -2.97721E+02  1.56827E+02 -9.52515E+02 -6.60723E+02  3.33602E+02 -5.52063E+02 -1.92464E+02
 -4.14563E+02  1.20711E+03  2.75448E+02 -3.02126E+02 -6.93692E+02 -1.46788E+03  3.25875E+02 -7.19214E+02
 -3.79498E+02 -3.41063E+00  3.98027E+02 -3.45499E+02  1.30199E+03  1.05372E+03 -3.26348E+02 -7.08004E+02
