 $NMID ID='MM_0lb_SNR200_19hz_g60_63.RAW', FMTDAT='(8E13.5)'
 TRAMP=1., VOLUME=1. $END
  3.09423E+05  7.12646E+02  3.37529E+05  2.49674E+05  8.44830E+04  3.38548E+05 -1.32064E+05  2.50446E+05
 -1.90786E+05  8.39052E+04 -1.11089E+05 -3.31464E+04  1.46630E+03 -4.87882E+04  5.46334E+04  1.15917E+03
  3.42126E+04  5.33844E+04 -1.66260E+04  7.61092E+04 -6.09697E+04  6.30141E+04 -8.30584E+04  3.21080E+04
 -8.11669E+04 -1.05321E+04 -5.71317E+04 -5.07624E+04 -1.52147E+04 -6.91332E+04  2.81580E+04 -4.61352E+04
  3.99579E+04  3.86217E+03  1.54060E+04  4.69773E+04 -3.46010E+04  4.63977E+04 -6.64982E+04 -1.23877E+03
 -5.22342E+04 -5.62520E+04 -5.21885E+03 -7.68462E+04  3.32554E+04 -5.40208E+04  4.67908E+04 -1.60791E+04
  4.21271E+04  1.11481E+04  3.14299E+04  2.48697E+04  1.45041E+04  2.92662E+04 -5.04901E+03  2.68247E+04
 -2.16893E+04  1.23948E+04 -1.95172E+04 -3.90327E+03  5.05183E+03 -7.67016E+03  2.27274E+04  1.15599E+04
  6.82770E+03  3.52755E+04 -3.19423E+04  3.46524E+04 -6.19561E+04  2.35780E+03 -5.58215E+04 -4.24619E+04
 -1.26482E+04 -6.31031E+04  3.74555E+04 -4.49246E+04  5.69142E+04 -1.97821E+03  3.44208E+04  3.11789E+04
 -6.37455E+03  3.38366E+04 -2.96373E+04  1.50837E+04 -2.85667E+04 -5.05540E+03 -1.55214E+04 -1.06341E+04
 -7.74517E+03 -1.25203E+04 -7.55583E+02 -1.77239E+04  7.70490E+03 -2.31763E+04  1.60677E+04 -1.47805E+04
  1.26110E+04  5.54430E+03 -7.63981E+03  1.32221E+04 -2.07522E+04 -4.23256E+03 -8.17183E+03 -3.18604E+04
  2.14511E+04 -4.14806E+04  4.61270E+04 -1.86706E+04  4.37841E+04  1.87100E+04  1.33806E+04  4.33127E+04
 -1.65157E+04  3.13661E+04 -2.45745E+04  6.62362E+02 -8.47312E+03 -2.70688E+04  2.04899E+04 -3.36176E+04
  4.02396E+04 -9.20407E+03  3.36983E+04  2.22405E+04  1.60718E+04  4.38220E+04 -8.54703E+03  4.79679E+04
 -2.94205E+04  3.08046E+04 -3.94311E+04  9.66402E+03 -4.02127E+04 -1.56487E+04 -2.21602E+04 -3.55756E+04
  7.32159E+03 -3.51010E+04  2.94213E+04 -1.38934E+04  2.71591E+04  1.05363E+04  2.46809E+03  1.81779E+04
 -1.27636E+04  6.82808E+03 -1.02323E+04 -8.87460E+03  6.52645E+03 -1.01813E+04  1.77180E+04  6.30930E+03
  1.28873E+04  2.14908E+04 -6.30279E+03  2.36642E+04 -2.16999E+04  1.13830E+04 -2.65066E+04 -5.18774E+03
 -1.82080E+04 -1.66019E+04 -6.06116E+03 -1.88060E+04  3.46273E+03 -1.64007E+04  1.29803E+04 -1.60939E+04
  2.45971E+04 -1.25283E+04  2.93314E+04  1.88988E+03  2.32138E+04  1.75507E+04  3.39677E+03  3.20223E+04
 -1.71771E+04  2.83261E+04 -2.61537E+04  9.87794E+03 -2.06331E+04 -1.08689E+04 -5.01879E+03 -1.41996E+04
  2.10871E+03 -3.84937E+03 -2.68090E+03  6.35012E+03 -1.31795E+04  5.25453E+03 -1.39845E+04 -5.31442E+03
 -9.89809E+03 -1.66262E+04  4.76086E+03 -2.06443E+04  1.39471E+04 -1.44278E+04  1.62101E+04 -1.57714E+03
  9.60193E+03  1.18072E+04 -1.04924E+03  1.61916E+04 -1.16171E+04  9.94842E+03 -1.66266E+04 -2.54346E+03
 -1.15129E+04 -1.45381E+04 -1.19724E+03 -1.94981E+04  8.67199E+03 -1.61202E+04  1.74591E+04 -7.38796E+03
  1.48989E+04  1.42059E+03  1.18177E+04  4.01930E+03  5.89720E+03  6.98150E+02  8.05704E+03 -1.01708E+03
  1.40271E+04  3.08614E+03  1.56689E+04  1.41978E+04  1.02604E+04  2.63685E+04 -2.62250E+03  2.92360E+04
 -1.67851E+04  2.06221E+04 -2.62654E+04  1.10309E+04 -2.69875E+04 -1.93641E+03 -2.23073E+04 -1.46315E+04
 -1.05808E+04 -2.13948E+04  7.48774E+03 -1.94542E+04  1.70929E+04 -1.13418E+04  1.70585E+04  4.14835E+03
  6.96542E+03  1.25569E+04 -7.32745E+03  9.88107E+03 -1.38102E+04  2.41341E+03 -1.15936E+04 -7.17907E+03
  3.34539E+02 -1.33196E+04  6.15444E+03 -9.48220E+03  7.95104E+03 -1.93873E+03  9.64987E+02  5.52021E+03
 -6.60564E+03  1.97807E+03 -5.34698E+03 -4.70205E+03  1.97607E+02 -1.04233E+04  8.90054E+03 -9.40060E+03
  1.25390E+04 -5.35256E+03  1.20963E+04  3.11399E+03  1.25703E+04  9.85633E+03  5.68218E+03  1.56501E+04
 -1.42711E+03  1.65994E+04 -1.09902E+04  1.05349E+04 -1.21312E+04  3.75250E+03 -9.15928E+03 -2.00284E+03
 -3.99059E+03 -4.04311E+03 -9.42111E+02  2.74544E+03 -1.15738E+03  2.48891E+03 -4.10704E+03  3.94553E+03
 -8.30437E+03 -1.33260E+02 -9.04063E+03 -7.25999E+03 -3.28193E+03 -1.13387E+04  3.81748E+03 -8.79762E+03
  7.87603E+03 -4.15181E+03  4.83226E+03  2.17898E+03  1.31229E+03  3.20475E+03 -3.00272E+03  3.13488E+02
 -3.63139E+03 -5.36784E+03  8.72223E+01 -7.01449E+03  3.84311E+03 -8.69210E+03  1.08991E+04 -5.14909E+03
  1.22321E+04  6.88535E+02  8.41691E+03  5.63188E+03  1.94788E+03  8.46606E+03 -5.12736E+03  9.15355E+03
 -7.25626E+03  3.38992E+03 -2.95513E+03 -1.72348E+03  1.83037E+03 -1.44567E+03  5.19224E+03 -9.67216E+02
  3.59599E+03  3.96379E+03  1.28781E+03  7.02924E+03 -6.11963E+03  7.29259E+03 -7.93178E+03  1.53196E+03
 -5.37461E+03 -3.72273E+03  3.24201E+02 -7.17313E+03  4.90186E+03 -3.40374E+03  4.27003E+03  1.24429E+03
  4.66802E+02  3.88207E+03 -3.59977E+03  5.34752E+03 -5.65968E+03  4.02803E+03 -4.80161E+03 -1.35023E+03
 -3.41911E+03 -5.69112E+03  1.33293E+03 -7.06892E+03  7.20496E+03 -4.65911E+03  7.20481E+03  8.06693E+02
  4.36186E+03  4.96541E+03  8.88684E+02  6.68393E+03 -5.42981E+03  3.41284E+03 -5.28086E+03 -4.41278E+02
 -5.70492E+03 -5.54209E+03 -9.21064E+02 -4.09444E+03  2.40911E+03 -5.82149E+03  3.26609E+03 -3.43949E+03
  2.73557E+03  3.92215E+02  2.78433E+02  1.96194E+03  9.93615E+02 -7.55748E+02  1.09854E+03 -1.80693E+03
  4.11152E+03 -7.57672E+02  4.42633E+03 -9.98205E+01  4.70939E+03  4.41016E+03  5.64251E+03  7.50944E+03
  7.59618E+01  8.64860E+03 -9.21461E+03  7.30567E+03 -1.01408E+04  8.33006E+02 -8.57077E+03 -2.42049E+03
 -3.13466E+03 -6.30856E+03 -1.49298E+03 -4.22344E+03  2.19266E+03 -1.96975E+03  1.85025E+03 -1.39516E+03
  1.23766E+03 -2.28108E+03  1.00783E+03 -2.35923E+03  4.18610E+03 -2.07927E+03  2.88714E+03  1.02194E+03
  4.28898E+03  1.70238E+03  4.57445E+02  3.40584E+03 -1.94772E+03  3.09133E+03 -4.54669E+03  2.77129E+03
 -4.51476E+03 -1.83794E+03 -1.36546E+03 -3.96302E+03 -7.18301E+02 -5.15753E+03  2.42416E+03 -5.49743E+03
  5.30425E+03 -2.17414E+03  7.40003E+03  1.16311E+03  6.42089E+03  4.43819E+03  1.73952E+03  6.25054E+03
 -2.77284E+03  7.36139E+03 -2.63467E+03  1.56605E+03 -2.14658E+03 -1.00523E+03 -5.36446E+01 -1.31328E+03
 -1.97030E+02 -6.16483E+01 -8.07570E+02  2.32890E+03 -2.56456E+03  1.77391E+03 -5.14683E+03 -3.49384E+02
 -2.23835E+03 -3.63592E+03  1.27431E+03 -4.99788E+03  2.55240E+03 -5.67596E+03  3.16325E+03 -1.75742E+03
  3.55671E+03  2.44095E+03  1.87380E+03  3.10238E+03  3.74172E+02  3.87189E+03 -3.22114E+03  3.01945E+03
 -4.38646E+03 -4.05863E+02 -3.00837E+03 -2.43102E+03  1.11615E+02 -3.71801E+03  2.07530E+03 -3.03467E+03
  3.35714E+03 -7.74324E+02  1.56104E+03  1.05968E+03  2.11226E+03  1.32851E+03  1.40775E+03 -6.29517E+02
  8.83059E+02  3.39664E+02  1.92153E+02  4.50391E+02  7.54945E+01  2.64428E+03  4.89243E+02  1.45881E+03
 -1.67496E+03  3.53421E+03 -2.16823E+03  3.83436E+03 -2.31288E+03  9.84715E+02 -3.53850E+03 -1.03882E+03
 -7.65542E+02 -4.20808E+03  1.45880E+03 -4.76965E+03  2.65242E+03 -3.01143E+03  4.31615E+03 -4.84748E+02
  1.60997E+03  2.36350E+03  1.17636E+02  1.71849E+03 -1.56778E+03  1.47823E+03 -1.41005E+03 -3.36526E+02
 -8.88893E+01 -1.69349E+03  1.11089E+02 -1.26674E+03  1.32083E+03 -1.73881E+03  1.79752E+03  8.18412E+02
  4.98751E+02  1.42194E+03 -3.33830E+02 -1.04693E+03 -1.04680E+03 -1.32750E+02  1.60422E+03  1.57135E+02
 -7.15129E+01  4.44391E+02  1.18604E+03  1.23859E+03  4.46130E+01  1.73719E+03 -5.92251E+02  1.97081E+03
 -1.51203E+03  1.42034E+03 -1.32208E+03 -1.47466E+02 -3.05270E+03 -5.51473E+02 -1.37769E+03 -6.36506E+02
 -5.22064E+02 -6.81062E+02  7.39456E+02 -1.36649E+03 -5.91062E+01  1.46544E+03  9.32919E+02  8.65136E+01
 -1.23587E+03  1.10911E+03 -1.19053E+03 -6.91322E+02 -2.34426E+00 -2.88009E+03 -9.76809E+01 -2.25811E+03
 -2.53523E+01 -2.74331E+01  6.96226E+02 -3.30130E+02  2.22991E+03 -8.84155E+02  5.96278E+02  1.72812E+03
 -1.43630E+03 -3.18048E+02 -9.44668E+02  6.20667E+02  4.40676E+02  8.37723E+01  2.57193E+03 -8.28111E+02
  1.79960E+03 -3.58504E+02  3.13944E+03  6.71974E+02  8.47725E+02  1.97974E+03  6.31318E+02  1.98088E+03
 -1.49954E+03  1.26186E+02 -1.35020E+03  2.78061E+02 -4.75627E+02 -1.29257E+03  1.17922E+03 -2.46422E+02
  1.62693E+03 -9.29750E+02  8.87102E+02  8.00060E+02  1.26298E+02  1.48333E+03  8.69311E+02  8.21871E+02
 -7.38362E+02 -1.36703E+02 -1.33869E+02  8.32884E+02  1.89500E+02 -6.64691E+02 -9.00658E+02  8.28410E+01
 -1.96109E+03  2.31369E+03 -9.62769E+02  1.85776E+02 -1.38730E+03  4.34758E+02 -1.68538E+03  1.81831E+02
 -4.56798E+02 -2.29028E+03  9.69288E+02 -1.37825E+03  8.68926E+02 -1.28033E+03  2.43133E+03 -1.36807E+03
  2.92326E+03  4.12645E+02  3.79462E+02  6.30863E+02  4.30401E+02  1.49007E+03 -1.04950E+03  1.38114E+03
 -9.73512E+02  1.45366E+02  4.24343E+02 -1.02579E+02  1.91884E+02  2.54180E+02 -9.98429E+02 -3.66000E+02
 -1.53340E+02 -2.72792E+02  3.69344E+02  4.04974E+02  4.89700E+02 -5.25221E+01  3.66983E+02 -1.43298E+03
  1.06608E+03 -8.97019E+02  4.42432E+02  1.25181E+02  2.02714E+03  1.92737E+03 -4.22914E+02  1.26905E+03
  3.00395E+02  1.19719E+03 -5.68248E+02  1.43952E+03 -6.51114E+02 -1.03881E+03 -1.04447E+03 -7.25895E+02
 -5.54328E+02 -7.28258E+02  1.54345E+03 -7.72312E+01  4.89632E+02  9.38078E+02 -5.86329E+02  2.80856E+02
 -4.00736E+02 -5.40325E+02 -5.77387E+01  3.54122E+02 -5.37925E+01  2.03541E+02 -9.67382E+02 -5.77117E+02
  6.30849E+02  1.10479E+03  8.45792E+01 -3.02175E+02 -1.14953E+03  6.53276E+02 -1.83426E+02  3.84373E+02
 -8.91330E+02  3.16048E+02 -4.89947E+02  1.18151E+03 -6.70835E+02 -6.53808E+02 -1.94622E+02 -6.13832E+02
  1.81506E+03 -7.66502E+02  1.47577E+01  1.11036E+03 -3.43611E+02 -1.00928E+03  8.64400E+02  1.28709E+03
  4.23701E+02  2.20510E+02  1.98649E+02  1.40287E+03  3.59816E+02 -5.01796E+02  2.67408E+02  5.53000E+02
  3.46461E+02  2.65751E+02 -7.35984E+02  3.61770E+02 -3.96713E+02 -2.87275E+02  1.15765E+03 -5.59878E+02
 -1.02989E+03  4.11912E+02 -7.83553E+02 -1.79921E+03  9.36402E+02 -2.11406E+03  7.97967E+02 -1.64279E+02
  2.60141E+02  3.26837E+02  5.38502E+02  5.02408E+02 -1.04577E+03 -3.46730E+02 -1.05843E+03  6.30978E+02
