 $NMID ID='MM_0lb_SNR200_16hz_g60_85.RAW', FMTDAT='(8E13.5)'
 TRAMP=1., VOLUME=1. $END
  3.10478E+05  1.12321E+03  3.38229E+05  2.51023E+05  8.43078E+04  3.38166E+05 -1.33222E+05  2.51608E+05
 -1.90998E+05  8.33197E+04 -1.11068E+05 -3.18445E+04  6.92319E+02 -5.02793E+04  5.24997E+04 -8.88744E+02
  3.52747E+04  5.29714E+04 -1.79455E+04  7.43458E+04 -6.11089E+04  6.37886E+04 -8.45900E+04  3.22055E+04
 -8.09772E+04 -1.10799E+04 -5.73294E+04 -5.19565E+04 -1.62295E+04 -6.95621E+04  2.85778E+04 -4.63360E+04
  3.88814E+04  3.43502E+03  1.58665E+04  4.87220E+04 -3.36763E+04  4.75560E+04 -6.67087E+04 -5.82954E+02
 -5.33081E+04 -5.73762E+04 -5.46548E+03 -7.79834E+04  3.50372E+04 -5.47062E+04  4.76085E+04 -1.74640E+04
  4.44135E+04  1.13444E+04  3.11212E+04  2.68092E+04  1.58794E+04  2.90697E+04 -5.61027E+03  2.78880E+04
 -2.21493E+04  1.28672E+04 -1.86061E+04 -5.34022E+03  6.12815E+03 -6.93551E+03  2.26307E+04  1.14894E+04
  7.35132E+03  3.50072E+04 -3.22319E+04  3.57214E+04 -6.43100E+04  2.14549E+03 -5.67117E+04 -4.28557E+04
 -1.24068E+04 -6.24617E+04  4.00706E+04 -4.56209E+04  5.72777E+04 -2.67983E+03  3.43311E+04  3.22549E+04
 -6.31273E+03  3.56663E+04 -2.98568E+04  1.60708E+04 -3.12823E+04 -4.22959E+03 -1.56839E+04 -1.13154E+04
 -8.52624E+03 -1.38045E+04 -3.50949E+02 -1.76418E+04  7.90746E+03 -2.33113E+04  1.53002E+04 -1.36590E+04
  1.27546E+04  5.44565E+03 -7.75406E+03  1.41910E+04 -2.20136E+04 -4.37352E+03 -7.11716E+03 -3.25518E+04
  2.30335E+04 -4.33082E+04  4.76391E+04 -1.87957E+04  4.45032E+04  2.03907E+04  1.56603E+04  4.45737E+04
 -1.65028E+04  3.33163E+04 -2.54930E+04  1.91151E+03 -1.04637E+04 -2.79156E+04  2.08025E+04 -3.25532E+04
  4.13338E+04 -8.21763E+03  3.63846E+04  2.34703E+04  1.76234E+04  4.70130E+04 -8.76887E+03  4.96642E+04
 -3.11180E+04  3.37377E+04 -4.12576E+04  8.38464E+03 -4.37897E+04 -1.67396E+04 -2.43027E+04 -3.73557E+04
  7.50019E+03 -3.82397E+04  3.11151E+04 -1.43010E+04  2.91195E+04  1.11858E+04  3.27510E+03  1.89245E+04
 -1.47332E+04  8.62070E+03 -9.93577E+03 -6.93563E+03  5.60420E+03 -1.03473E+04  1.86081E+04  5.40202E+03
  1.36111E+04  2.24822E+04 -6.32655E+03  2.50886E+04 -2.10884E+04  1.24363E+04 -2.82682E+04 -4.74986E+03
 -2.09243E+04 -1.66956E+04 -7.39523E+03 -2.00232E+04  4.06187E+03 -1.97485E+04  1.58545E+04 -1.79054E+04
  2.58311E+04 -1.31867E+04  3.30629E+04  1.95418E+03  2.40525E+04  1.97168E+04  3.77579E+03  3.55057E+04
 -1.82285E+04  2.99830E+04 -2.75271E+04  1.03325E+04 -2.03185E+04 -1.10318E+04 -3.79471E+03 -1.34015E+04
  1.90760E+03 -2.89040E+03 -5.63444E+03  7.91614E+03 -1.54568E+04  5.22899E+03 -1.56241E+04 -7.51044E+03
 -1.00500E+04 -1.82825E+04  5.47554E+03 -2.25830E+04  1.51605E+04 -1.55297E+04  1.80929E+04 -1.67417E+03
  1.21924E+04  1.24867E+04 -7.28480E+02  1.85822E+04 -1.30270E+04  1.08174E+04 -1.83062E+04 -3.70207E+03
 -1.44039E+04 -1.71513E+04 -1.73322E+03 -2.29915E+04  8.61865E+03 -1.87168E+04  1.89491E+04 -9.29668E+03
  1.70478E+04  1.72686E+03  1.22087E+04  4.96639E+03  6.92851E+03  9.62943E+02  9.75308E+03 -1.15143E+03
  1.73997E+04  2.13755E+03  1.92977E+04  1.56672E+04  1.29229E+04  2.90937E+04 -2.35103E+03  3.32565E+04
 -1.87085E+04  2.72079E+04 -3.09137E+04  1.32966E+04 -3.24632E+04 -1.19206E+03 -2.70206E+04 -1.84309E+04
 -1.19604E+04 -2.67248E+04  1.01187E+04 -2.34793E+04  2.08719E+04 -1.28864E+04  1.94391E+04  4.94649E+03
  7.80675E+03  1.47754E+04 -8.23796E+03  1.20665E+04 -1.60382E+04  2.75233E+03 -1.12859E+04 -9.83859E+03
  5.83575E+02 -1.55667E+04  8.11474E+03 -1.12320E+04  1.01306E+04 -1.75789E+03  2.19869E+03  7.40456E+03
 -6.11334E+03  1.98408E+03 -5.04258E+03 -5.41254E+03  7.77194E+01 -1.42517E+04  9.50807E+03 -1.31404E+04
  1.62143E+04 -5.92709E+03  1.65283E+04  3.38200E+03  1.44263E+04  1.28508E+04  6.13558E+03  1.90313E+04
 -3.06825E+03  2.12274E+04 -1.28746E+04  1.32886E+04 -1.51388E+04  2.69882E+03 -1.03648E+04 -3.92729E+03
 -4.89184E+03 -4.54183E+03 -7.96678E+02  1.25690E+02 -2.00728E+03  3.75542E+03 -4.96051E+03  3.86240E+03
 -9.66126E+03 -2.77069E+02 -9.86050E+03 -8.52540E+03 -5.01701E+03 -1.35299E+04  4.36301E+03 -1.10902E+04
  8.27554E+03 -5.12070E+03  5.46723E+03  2.68080E+03  3.85783E+02  3.34008E+03 -5.26171E+03 -2.10414E+02
 -5.64269E+03 -6.52092E+03 -7.54441E+02 -9.00063E+03  5.82702E+03 -1.01072E+04  1.39131E+04 -6.11982E+03
  1.47776E+04  1.34306E+03  1.14383E+04  8.80739E+03  1.46021E+03  1.14981E+04 -6.86251E+03  1.13162E+04
 -9.10448E+03  3.10462E+03 -4.73030E+03 -1.90710E+03  1.35536E+03 -2.70848E+03  5.39152E+03 -1.13981E+03
  5.33979E+03  5.25821E+03  1.25246E+03  8.14720E+03 -7.08376E+03  8.52432E+03 -8.97750E+03  2.45422E+03
 -6.76040E+03 -5.41893E+03  1.10923E+03 -9.31670E+03  3.97203E+03 -4.16807E+03  4.61122E+03  2.29012E+03
  5.56568E+02  4.36974E+03 -5.65469E+03  6.75935E+03 -8.26036E+03  3.49445E+03 -7.17635E+03 -2.12324E+03
 -6.25860E+03 -7.73252E+03  2.28271E+03 -1.08438E+04  8.63538E+03 -6.07192E+03  8.86067E+03  1.81996E+03
  5.33454E+03  7.19141E+03 -8.56762E+02  9.35684E+03 -7.19039E+03  5.43473E+03 -7.29979E+03 -8.84728E+01
 -6.52048E+03 -6.85108E+03 -1.56144E+03 -6.88485E+03  3.41934E+03 -5.83903E+03  4.11367E+03 -2.78019E+03
  3.07146E+03  9.51883E+01 -4.38895E+02  4.57441E+02  1.45398E+03 -2.01513E+03  9.79400E+02 -3.72269E+03
  5.98825E+03 -1.49308E+03  8.31856E+03  1.49601E+03  7.46006E+03  5.06903E+03  7.12158E+03  1.08661E+04
 -3.32454E+03  1.32621E+04 -1.05259E+04  8.97207E+03 -1.50741E+04  1.25362E+03 -1.07989E+04 -3.74883E+03
 -5.15307E+03 -8.04169E+03  1.76425E+01 -6.84274E+03  2.94884E+03 -3.65866E+03  2.40632E+03 -1.84325E+03
  2.41288E+03 -1.73714E+03  3.44900E+03 -1.93101E+03  4.48637E+03 -1.85218E+03  5.41616E+03 -2.40151E+02
  5.95723E+03  1.58663E+03  2.77128E+03  4.48297E+03 -2.13995E+03  5.46862E+03 -5.95045E+03  4.06188E+03
 -5.78030E+03 -7.11567E+02 -3.64156E+03 -4.41531E+03 -5.41747E+02 -7.28176E+03  5.13464E+03 -7.58785E+03
  7.57254E+03 -4.69742E+03  9.58391E+03  2.94954E+02  6.68411E+03  5.76818E+03  1.01892E+03  8.33629E+03
 -4.84148E+03  8.13645E+03 -5.51935E+03  2.32384E+03 -2.85662E+03 -1.12613E+03 -8.77231E+02 -1.10738E+03
 -3.77607E+01 -2.82627E+02 -1.72191E+03  2.32776E+03 -3.50243E+03  1.27076E+03 -5.43899E+03  4.47349E+02
 -2.94804E+03 -5.16819E+03  1.68898E+03 -7.93148E+03  4.40858E+03 -5.83022E+03  5.97096E+03 -1.68397E+03
  6.66174E+03  4.54390E+03  3.84524E+03  5.38581E+03 -1.33087E+03  7.68941E+03 -3.57174E+03  4.17090E+03
 -6.52576E+03  3.90793E+02 -4.95959E+03 -4.32212E+03 -5.66083E+02 -4.72373E+03  2.75467E+03 -4.59191E+03
  3.66257E+03 -1.76584E+03  3.82856E+03  5.81700E+02  6.43538E+02  2.11404E+03  1.56671E+03  8.24582E+02
  3.27470E+03  3.81561E+02  1.09168E+03  2.44166E+03  9.19484E+02  2.58878E+03  2.14795E+03  3.10691E+03
 -2.35112E+03  4.75174E+03 -4.96984E+03  4.93696E+03 -6.01933E+03  8.21124E+02 -6.13598E+03 -1.31240E+03
 -2.18070E+03 -6.38104E+03  1.07537E+02 -8.36205E+03  3.98142E+03 -3.87210E+03  4.93344E+03 -1.13260E+03
  3.98599E+03  2.25257E+03  6.60374E+02  3.61714E+03 -1.97352E+02  1.17254E+03 -1.60505E+03 -9.70809E+02
 -1.01756E+03 -1.77777E+03  1.67042E+03 -2.07836E+03  2.12599E+03 -1.59098E+03  2.45033E+03  1.42946E+03
 -6.03762E+02  3.25577E+02  1.90431E+03  2.73824E+02 -3.43342E+02  2.17707E+03  1.88867E+03 -1.01303E+03
  8.40633E+02 -1.48853E+03  2.98422E+03  1.26260E+03  1.15349E+03  2.99518E+03 -2.05121E+03  5.01981E+03
 -1.76378E+03  1.01632E+03 -3.73549E+03  1.16064E+03 -3.32794E+03 -7.75945E+02 -1.41736E+03 -1.96844E+03
  1.11096E+03 -1.37474E+03  1.20614E+03 -1.02927E+03  1.84821E+03  1.31191E+03  4.40215E+02  1.56040E+03
 -2.08190E+03  1.22434E+03 -1.67205E+03 -2.49342E+03 -7.63378E+02 -3.97253E+03  5.61234E+02 -2.37745E+03
  1.41211E+03 -1.57735E+03  1.96829E+03 -2.99432E+02  1.68896E+03  9.21915E+02  1.02911E+03  1.48667E+03
 -1.14410E+03 -3.73984E+02 -1.65999E+03 -1.38828E+02 -1.08570E+02 -1.02205E+03  2.44949E+03 -8.91402E+02
  1.61634E+03  5.71608E+02  4.74457E+03  5.63748E+02  2.48344E+03  3.77981E+03 -9.78307E+02  2.81877E+03
 -3.02478E+03  1.19029E+03 -3.09910E+03 -1.50835E+03 -1.91520E+03 -1.43146E+03 -6.33783E+02 -6.10372E+02
  3.33045E+02  5.42447E+02  2.27496E+03  2.39009E+02  1.20269E+03  2.38954E+03  4.37614E+02  1.66175E+03
 -6.43854E+02  1.50426E+03 -1.73493E+03  3.30741E+02 -7.48367E+02  1.21612E+03 -8.97891E+02  1.41511E+03
 -1.20084E+03  5.78329E+02 -3.54984E+03  2.63274E+02 -2.74200E+03  1.48237E+02 -3.32724E+03 -8.97264E+02
 -1.22863E+03 -3.68710E+03  1.36476E+03 -3.60717E+03  8.33367E+02 -3.56238E+03  4.74083E+03 -2.11918E+03
  4.06564E+03 -2.26600E+02  1.79868E+03  3.58928E+03 -9.57548E+02  2.10030E+03 -6.98901E+02  2.37131E+03
 -1.43580E+03  1.29281E+03 -1.12417E+03 -4.78192E+02 -1.25771E+03 -6.44253E+02  2.25796E+02 -7.28515E+02
  1.62122E+02 -1.06155E+03 -1.64726E+03 -1.39928E+02 -4.99976E+01 -8.00055E+02 -5.63773E+02 -2.32747E+03
  1.42143E+03 -5.89318E+02  3.71030E+02  1.63247E+02  9.85288E+02  9.52213E+02  1.12689E+02  1.64492E+03
 -1.38823E+03  3.18364E+03 -2.25380E+03  1.59687E+03 -2.93661E+03 -7.29898E+02 -2.26276E+03 -2.70802E+03
 -7.39704E+02 -2.13550E+03 -4.96006E+02 -3.13102E+03  1.78656E+03 -5.51062E+02  4.92066E+02  3.81282E+02
  1.49433E+03  1.31253E+03 -6.25752E+02  5.67887E+02 -1.08059E+03  1.55878E+02 -6.22850E+02 -7.59281E+02
  1.62473E+03 -3.46013E+02  3.20856E+02  6.94290E+02  2.32476E+01  2.21846E+03  5.76746E+02  5.34492E+02
  8.95838E+01  4.89282E+02 -1.59423E+03  3.49624E+02 -1.18289E+03 -9.84664E+02 -7.01819E+02 -2.58551E+03
  8.76837E+02 -1.34648E+03  1.89710E+03 -2.35042E+02  2.15129E+03  8.55119E+02  1.90732E+03  1.42446E+03
  4.16960E+02  1.61960E+03 -4.36038E+02  2.16772E+03 -2.22942E+03  1.66686E+03 -1.16645E+03  6.43389E+02
 -1.32268E+02  4.10929E+02 -3.43969E+02 -7.46007E+02 -1.34738E+03 -2.72553E+02 -1.72633E+03 -6.80815E+02
 -1.26846E+03  4.86010E+02 -2.29610E+02 -1.04741E+03  3.94062E+02 -3.79060E+03 -1.11555E+02 -3.59003E+02
  1.14469E+03  1.28956E+03  1.70287E+02  2.15371E+03 -1.40793E+03  1.43521E+03 -8.23821E+02  4.72258E+01
