 $NMID ID='MM_0lb_SNR200_18hz_g50_42.RAW', FMTDAT='(8E13.5)'
 TRAMP=1., VOLUME=1. $END
  3.09573E+05  1.23383E+02  3.36684E+05  2.49848E+05  8.51334E+04  3.37516E+05 -1.32502E+05  2.51419E+05
 -1.90417E+05  8.25905E+04 -1.11410E+05 -3.19382E+04  1.75247E+03 -5.06270E+04  5.39680E+04 -2.50634E+02
  3.61440E+04  5.25932E+04 -1.84403E+04  7.34099E+04 -6.16186E+04  6.29862E+04 -8.28529E+04  3.21274E+04
 -8.01743E+04 -1.08243E+04 -5.63147E+04 -4.98983E+04 -1.53161E+04 -6.75035E+04  2.75255E+04 -4.60363E+04
  3.82739E+04  4.27194E+03  1.59290E+04  4.67361E+04 -3.35894E+04  4.66205E+04 -6.62874E+04 -2.95018E+02
 -5.33018E+04 -5.54657E+04 -6.79765E+03 -7.53490E+04  3.23942E+04 -5.31363E+04  4.69584E+04 -1.62966E+04
  4.17721E+04  1.10973E+04  2.94894E+04  2.52791E+04  1.54856E+04  2.83753E+04 -3.89099E+03  2.72725E+04
 -2.14161E+04  1.28696E+04 -1.89175E+04 -5.18469E+03  4.65122E+03 -8.09975E+03  2.14525E+04  1.23080E+04
  8.31869E+03  3.39020E+04 -3.11036E+04  3.36189E+04 -6.29247E+04  2.57511E+03 -5.61144E+04 -4.20629E+04
 -1.27557E+04 -6.19660E+04  3.85890E+04 -4.35225E+04  5.65265E+04 -2.63659E+03  3.33326E+04  3.05886E+04
 -6.72653E+03  3.46330E+04 -2.84376E+04  1.32153E+04 -2.83813E+04 -5.35964E+03 -1.55602E+04 -9.67550E+03
 -7.56323E+03 -1.15694E+04 -4.32666E+02 -1.65605E+04  6.57534E+03 -2.24887E+04  1.43009E+04 -1.32706E+04
  1.29219E+04  4.29360E+03 -5.88788E+03  1.27463E+04 -1.90650E+04 -2.42357E+03 -6.79270E+03 -3.18873E+04
  2.18281E+04 -4.13409E+04  4.52197E+04 -1.92167E+04  4.21632E+04  1.90073E+04  1.49658E+04  4.19088E+04
 -1.55743E+04  3.16652E+04 -2.39698E+04  1.79226E+03 -8.83326E+03 -2.64152E+04  2.01219E+04 -3.15755E+04
  3.89600E+04 -9.01869E+03  3.28023E+04  2.16074E+04  1.65596E+04  4.30115E+04 -7.05297E+03  4.66166E+04
 -2.89805E+04  2.92448E+04 -3.91325E+04  8.52297E+03 -3.95140E+04 -1.51500E+04 -2.20890E+04 -3.47865E+04
  6.44746E+03 -3.56294E+04  2.97149E+04 -1.35569E+04  2.74531E+04  1.07137E+04  2.41832E+03  1.90657E+04
 -1.31014E+04  6.72772E+03 -1.00087E+04 -8.14234E+03  5.56216E+03 -9.99604E+03  1.83640E+04  5.99986E+03
  1.26869E+04  2.13717E+04 -6.34961E+03  2.41250E+04 -2.27497E+04  8.81242E+03 -2.49216E+04 -5.10689E+03
 -1.68176E+04 -1.61616E+04 -6.91922E+03 -1.76294E+04  4.12282E+03 -1.60476E+04  1.28834E+04 -1.46194E+04
  2.17531E+04 -1.22596E+04  3.00580E+04  2.31519E+03  2.13668E+04  1.60057E+04  3.30399E+03  3.26743E+04
 -1.64942E+04  2.82280E+04 -2.67563E+04  1.03078E+04 -2.05891E+04 -1.10943E+04 -4.77344E+03 -1.32129E+04
  2.30578E+03 -4.09389E+03 -1.99839E+03  5.32067E+03 -1.27999E+04  5.50524E+03 -1.34372E+04 -6.26467E+03
 -9.08075E+03 -1.46536E+04  5.01129E+03 -2.06954E+04  1.22954E+04 -1.48638E+04  1.49626E+04 -6.35591E+02
  8.89530E+03  1.11042E+04 -2.10637E+02  1.56639E+04 -1.26039E+04  9.33854E+03 -1.52427E+04 -2.79118E+03
 -1.24259E+04 -1.43052E+04 -2.60729E+02 -2.00761E+04  9.24828E+03 -1.60169E+04  1.63263E+04 -7.78575E+03
  1.56749E+04  8.29611E+02  1.06692E+04  3.38843E+03  5.30127E+03  5.03095E+02  7.54730E+03 -1.54292E+03
  1.47833E+04  2.79578E+03  1.65119E+04  1.31516E+04  9.58535E+03  2.51096E+04 -3.31411E+03  2.92477E+04
 -1.62835E+04  2.04107E+04 -2.63926E+04  1.00412E+04 -2.61225E+04 -9.04239E+02 -2.25033E+04 -1.57272E+04
 -1.02701E+04 -2.10830E+04  7.74235E+03 -1.91889E+04  1.71076E+04 -1.19107E+04  1.69202E+04  4.68241E+03
  7.14283E+03  1.13924E+04 -7.26173E+03  1.02941E+04 -1.34963E+04  3.11565E+03 -1.05733E+04 -8.77221E+03
  1.00578E+03 -1.24963E+04  6.73989E+03 -9.05710E+03  8.45810E+03 -1.81295E+03  2.11377E+03  4.94631E+03
 -5.61319E+03  2.92394E+03 -3.94226E+03 -4.34860E+03  2.67989E+02 -1.03395E+04  7.10948E+03 -1.12391E+04
  1.26373E+04 -4.09126E+03  1.21528E+04  4.51976E+03  1.26614E+04  1.01543E+04  5.27227E+03  1.40712E+04
 -1.64133E+03  1.59797E+04 -1.09816E+04  1.18798E+04 -1.16411E+04  3.08502E+03 -8.76915E+03 -2.31933E+03
 -3.54645E+03 -2.89978E+03 -4.02869E+02  2.14871E+03 -2.51376E+03  1.44241E+03 -3.99352E+03  3.64551E+03
 -8.41457E+03 -1.49213E+03 -9.49332E+03 -8.70069E+03 -2.80059E+03 -1.14835E+04  3.31925E+03 -9.17263E+03
  7.53106E+03 -4.68812E+03  6.11636E+03  1.46471E+03  1.13535E+03  2.93375E+03 -4.25957E+03  1.02282E+03
 -2.99705E+03 -5.61507E+03 -8.43848E+02 -8.11768E+03  4.01157E+03 -8.68208E+03  1.03235E+04 -3.54684E+03
  1.22645E+04  4.09737E+02  8.67035E+03  6.58459E+03  2.73793E+03  9.09751E+03 -5.52715E+03  9.42375E+03
 -8.15180E+03  2.79241E+03 -4.04274E+03 -7.25882E+02  1.97926E+03 -1.32602E+03  5.10475E+03 -9.61795E+02
  4.53733E+03  4.05765E+03 -7.28140E+01  5.66916E+03 -6.01149E+03  6.97891E+03 -7.98778E+03  2.28981E+03
 -4.80819E+03 -4.20454E+03  4.87326E+02 -6.02137E+03  3.72872E+03 -2.76253E+03  4.07961E+03  1.10485E+03
 -2.08275E+02  4.21735E+03 -5.17823E+03  5.07695E+03 -4.96442E+03  1.91907E+03 -4.92801E+03 -2.01635E+03
 -3.05825E+03 -6.68513E+03  5.68219E+02 -7.73972E+03  7.23548E+03 -5.54531E+03  6.76780E+03  9.41644E+02
  4.12163E+03  5.36784E+03 -1.86464E+02  7.72119E+03 -4.26767E+03  3.63108E+03 -5.78137E+03 -1.52813E+02
 -5.52242E+03 -5.58237E+03 -1.04955E+03 -5.45631E+03  3.36309E+03 -5.42513E+03  3.46817E+03 -2.32275E+03
  2.73983E+03  4.37882E+02 -2.69937E+02  1.26378E+03  6.51146E+02 -7.47909E+02  7.22049E+02 -2.21426E+03
  3.92115E+03 -5.55974E+02  6.80698E+03  4.69912E+02  6.54003E+03  2.54901E+03  5.20573E+03  7.40206E+03
 -3.60247E+02  9.41671E+03 -8.04780E+03  6.92747E+03 -1.14609E+04  1.13639E+03 -8.74540E+03 -3.52002E+03
 -4.08750E+03 -6.12728E+03 -3.73101E+02 -5.32476E+03  4.83496E+02 -8.21598E+02  1.40741E+03 -1.98618E+03
  1.43958E+03 -1.92159E+03  2.14580E+03 -2.49656E+03  3.88083E+03 -2.02012E+03  3.12832E+03  1.43194E+03
  4.39656E+03  1.35465E+03  1.33357E+03  3.34303E+03 -1.21347E+03  1.73680E+03 -4.42287E+03  3.00968E+03
 -5.63557E+03 -8.44946E+02 -2.08024E+03 -3.01760E+03  1.94603E+01 -4.63628E+03  2.92190E+03 -5.81059E+03
  5.10627E+03 -3.75636E+03  7.07105E+03  3.83184E+02  5.51641E+03  3.97773E+03  1.42632E+03  6.79387E+03
 -2.58077E+03  5.38265E+03 -4.06461E+03  1.93679E+03 -2.14617E+03 -1.34483E+03 -1.27212E+03 -1.03751E+02
 -5.33806E+02  2.86890E+02 -9.77178E+02  1.29655E+03 -2.16566E+03  1.48315E+03 -3.64764E+03 -1.98735E+03
 -2.04190E+03 -4.12249E+03  1.57822E+03 -5.92581E+03  3.37269E+03 -4.84449E+03  4.25961E+03 -4.22150E+02
  5.37215E+03  2.40552E+03  2.11342E+03  3.46287E+03 -1.35570E+03  4.95507E+03 -2.74424E+03  3.16439E+03
 -3.64683E+03  6.41102E+02 -2.67614E+03 -3.13124E+03 -5.24458E+02 -3.94625E+03  1.86206E+03 -1.58657E+03
  2.40410E+03 -2.93678E+02  1.47758E+03 -6.64027E+02 -2.15542E+02  1.03800E+03  2.07710E+02 -2.87865E+02
  1.66471E+03  1.13919E+03  9.76683E+02  1.23368E+03  6.05612E+02  2.63750E+03  4.40330E+02  2.07597E+03
 -1.64485E+03  2.93130E+03 -2.83942E+03  3.97737E+03 -2.50272E+03  1.28208E+03 -4.21178E+03 -1.37936E+03
 -2.08542E+03 -3.48067E+03  3.71301E+02 -5.08780E+03  1.77039E+03 -3.51585E+03  2.96030E+03 -4.64295E+02
  2.30961E+03  2.32813E+03  4.48838E+02  2.08615E+03 -1.93759E+03  1.50547E+03 -1.26860E+03 -8.54239E+01
 -1.35247E+03 -1.31763E+03  7.81349E+02 -9.10518E+02  7.25660E+02 -1.76984E+03  1.91117E+03  1.17211E+03
  2.00912E+03  2.04829E+03  1.43008E+03 -1.73049E+01  8.06047E+02  2.10893E+02  1.36673E+03 -2.14730E+02
  9.45297E+02 -9.03424E+02  1.69123E+03  3.75436E+02  5.73400E+02  2.96211E+03 -1.14525E+03  3.78508E+03
 -1.61574E+03 -5.55128E+02 -2.68964E+03 -2.40726E+02 -2.00618E+03  7.58463E+01 -1.01543E+03 -7.57969E+02
 -3.91998E+02 -2.62369E+03  1.26986E+03 -8.06389E+02 -5.66472E+01  1.62893E+03 -1.47572E+03  9.86369E+02
 -1.76813E+03  6.11274E+02 -2.22765E+03 -1.41105E+03 -2.01805E+02 -1.50305E+03  1.99756E+02 -1.09990E+03
  7.34889E+02 -1.26601E+03  4.39616E+02  5.93499E+01  1.27183E+03  1.02475E+03 -3.72651E+02  4.18492E+02
 -1.01431E+03  3.95815E+02 -1.66310E+03 -4.50228E+02  7.40772E+02 -3.77725E+01  2.23516E+03 -1.67836E+03
  2.60425E+03  2.47056E+02  2.98207E+03  3.20910E+02  1.47097E+03  1.10497E+03 -4.83497E+02  2.91007E+03
 -1.11479E+03 -4.70810E+02 -2.09910E+03  2.14439E+03 -1.83843E+03 -6.30328E+02 -3.11265E+02 -6.71981E+02
  2.10847E+03 -2.18217E+01  1.14738E+03  1.21815E+03 -6.56822E+02  1.26974E+03  3.06591E+02  1.58216E+02
 -5.11136E+02  1.28177E+03 -4.72152E+02  2.97478E+02  2.79680E+01 -3.29823E+00 -1.33790E+02 -9.63919E+01
 -6.23661E+02  7.14898E+02 -2.29321E+03  5.60392E+02 -2.16715E+03 -1.07256E+03 -2.66594E+03 -1.93807E+03
 -9.19030E+02 -3.17346E+03  3.44315E+02 -3.38644E+03  1.19029E+02 -3.05620E+03  1.88965E+03 -8.36730E+02
  2.34782E+03  4.46586E+02  7.67455E+02  1.52594E+03  1.88666E+02  1.52197E+03 -1.56378E+03  1.58126E+03
 -1.83829E+03  8.86571E+02 -1.58016E+03 -3.95645E+02 -1.51711E+03  7.92710E+02 -4.70408E+02 -1.00003E+03
 -1.07621E+03  2.46748E+02 -8.40642E+02 -5.15388E+01  4.48066E+02 -1.12589E+03 -1.04034E+03 -3.32210E+02
  1.95108E+03  2.51869E+02  2.03076E+02 -3.73487E+02  2.01555E+03  9.05392E+02  2.15048E+02  1.92785E+03
 -1.09118E+03  2.30141E+03 -2.45567E+03  9.17476E+02 -2.45015E+03 -1.54197E+03 -1.16199E+03 -1.01028E+03
 -1.06254E+03 -1.69449E+03  1.06884E+03 -2.05992E+03  4.09368E+02  3.42747E+02  1.15809E+03  9.33213E+02
  5.51828E+02  2.57602E+02 -1.31807E+03  7.57435E+02 -3.14782E+02  4.08163E+02 -7.93604E+02  3.19409E+02
  7.80827E+02 -8.98610E+02 -4.93706E+02  7.62489E+02 -3.52161E+02  1.16056E+03  1.32502E+03  7.18772E+02
 -5.00226E+02  6.07127E+01 -8.14519E+02  3.86469E+02 -6.82709E+02 -8.44029E+01  5.71593E+02 -1.47911E+03
  5.97935E+02 -1.43419E+03  8.11916E+02  1.36510E+02  1.22399E+03 -5.18793E+02  5.22030E+02 -3.05393E+02
  3.07639E+02  7.83909E+02  2.47820E+02  1.19426E+03 -7.04107E+02  1.10756E+03 -6.65021E+02 -1.38329E+02
  6.42216E+01 -3.00437E+02 -4.19399E+02  4.14381E+02 -1.36325E+03 -1.46690E+02 -9.39944E+02 -1.30956E+03
 -3.15651E+02  6.18850E+02 -1.23582E+02 -3.89457E+02  5.33512E+02 -1.87592E+03  1.37486E+03 -4.07590E+02
  9.20395E+02 -1.78671E+02 -6.95840E+02 -1.66007E+02 -2.39307E+02  1.15040E+03 -6.14067E+02  1.50263E+03
