 $NMID ID='MM_0lb_SNR200_9hz_g60_87.RAW', FMTDAT='(8E13.5)'
 TRAMP=1., VOLUME=1. $END
  3.09691E+05  5.31067E+01  3.36847E+05  2.52972E+05  8.63670E+04  3.39483E+05 -1.32738E+05  2.53162E+05
 -1.91039E+05  8.37432E+04 -1.12850E+05 -3.10789E+04 -9.76115E+02 -5.08419E+04  5.33722E+04  6.19310E+01
  3.56879E+04  5.32731E+04 -1.58025E+04  7.55401E+04 -6.05472E+04  6.37527E+04 -8.46044E+04  3.40532E+04
 -8.32035E+04 -1.38326E+04 -6.04065E+04 -5.21260E+04 -1.51301E+04 -7.18658E+04  2.85373E+04 -4.57610E+04
  4.21090E+04  4.79982E+03  1.74259E+04  4.78066E+04 -3.39524E+04  4.94288E+04 -6.82630E+04  8.69669E+02
 -5.23002E+04 -5.69462E+04 -7.40319E+03 -7.90968E+04  3.55486E+04 -5.67867E+04  5.02713E+04 -1.74296E+04
  4.61954E+04  1.09605E+04  3.20361E+04  2.78415E+04  1.72114E+04  3.02014E+04 -4.40632E+03  2.84259E+04
 -2.30542E+04  1.23418E+04 -1.71684E+04 -5.01479E+03  6.48510E+03 -7.55060E+03  2.26959E+04  1.35259E+04
  8.01811E+03  3.76654E+04 -3.51301E+04  3.74165E+04 -6.51907E+04  3.71383E+03 -5.95046E+04 -4.32283E+04
 -1.25583E+04 -6.48519E+04  4.27224E+04 -4.75149E+04  6.18012E+04 -3.11861E+03  3.79011E+04  3.56183E+04
 -7.09807E+03  3.99435E+04 -3.17028E+04  1.90069E+04 -3.24048E+04 -3.93813E+03 -1.99768E+04 -1.28221E+04
 -1.08891E+04 -1.48533E+04  2.89465E+02 -1.98269E+04  7.49447E+03 -2.54967E+04  1.63794E+04 -1.19398E+04
  9.91041E+03  5.96062E+03 -1.14956E+04  1.34894E+04 -2.45823E+04 -7.10285E+03 -8.59920E+03 -3.79682E+04
  2.49551E+04 -4.68546E+04  5.29046E+04 -2.03753E+04  4.89824E+04  2.00170E+04  1.94038E+04  4.74285E+04
 -1.68190E+04  3.63415E+04 -2.96142E+04  3.50440E+03 -1.07030E+04 -2.94405E+04  2.06407E+04 -3.81813E+04
  4.60665E+04 -1.18033E+04  4.26083E+04  2.58971E+04  2.13702E+04  5.19334E+04 -8.55429E+03  5.88698E+04
 -3.57567E+04  4.03039E+04 -4.83678E+04  1.39079E+04 -4.95503E+04 -1.75840E+04 -2.50210E+04 -4.26593E+04
  8.68654E+03 -4.36334E+04  3.46029E+04 -1.73780E+04  3.44421E+04  1.16318E+04  5.79569E+03  2.18110E+04
 -1.52288E+04  1.15326E+04 -1.17183E+04 -8.31802E+03  4.49240E+03 -1.27783E+04  1.89705E+04  4.02395E+03
  1.36138E+04  2.09378E+04 -4.16823E+03  2.68417E+04 -2.32219E+04  1.38635E+04 -3.23043E+04 -2.33547E+03
 -2.66180E+04 -1.89384E+04 -1.33522E+04 -2.68288E+04  4.77470E+03 -2.66450E+04  2.07150E+04 -2.52754E+04
  3.21170E+04 -1.45891E+04  3.95619E+04  3.63229E+03  2.71474E+04  2.52493E+04  3.03756E+03  4.44691E+04
 -1.99727E+04  3.54009E+04 -3.03022E+04  1.31131E+04 -2.33459E+04 -1.00627E+04 -4.28266E+03 -1.20314E+04
  1.85938E+01 -1.07176E+03 -7.21200E+03  8.70830E+03 -2.21074E+04  5.46689E+03 -2.14187E+04 -1.18223E+04
 -1.26365E+04 -2.34738E+04  5.96727E+03 -3.03185E+04  1.80837E+04 -2.33111E+04  2.25832E+04 -2.06327E+03
  1.53415E+04  1.60520E+04 -1.14831E+03  2.42900E+04 -1.85682E+04  1.48912E+04 -2.47100E+04 -3.87727E+03
 -1.65204E+04 -2.11261E+04 -3.06844E+03 -3.01180E+04  1.37305E+04 -2.47733E+04  2.33162E+04 -1.33466E+04
  2.43121E+04 -6.32491E+02  1.80777E+04  5.49774E+03  9.57134E+03  2.63537E+03  1.22166E+04 -1.65330E+03
  2.31508E+04  1.05469E+03  2.70959E+04  2.00467E+04  1.81086E+04  3.82993E+04 -2.80302E+03  4.57317E+04
 -2.65313E+04  3.86199E+04 -4.48373E+04  2.06843E+04 -4.75051E+04 -3.66626E+03 -3.70928E+04 -2.78653E+04
 -1.57896E+04 -3.82196E+04  1.37541E+04 -3.51127E+04  2.77760E+04 -1.43765E+04  2.64633E+04  8.14313E+03
  7.32340E+03  1.76390E+04 -1.16545E+04  1.74366E+04 -1.97196E+04  2.13923E+03 -1.69131E+04 -1.38346E+04
 -3.84702E+02 -2.06414E+04  1.10847E+04 -1.46324E+04  1.26287E+04 -2.33389E+03  3.68976E+03  7.66746E+03
 -8.38677E+03  4.11204E+03 -1.19843E+04 -7.20778E+03 -3.93674E+03 -1.84104E+04  1.32130E+04 -1.94527E+04
  2.48259E+04 -1.12787E+04  2.86124E+04  1.06751E+03  2.55791E+04  1.87254E+04  1.14792E+04  3.09769E+04
 -6.02684E+03  3.31033E+04 -2.21230E+04  1.95021E+04 -2.36821E+04  4.03152E+03 -1.74111E+04 -5.91445E+03
 -6.59898E+03 -6.57320E+03  7.86619E+02 -3.35281E+02 -3.60183E+03  3.69264E+03 -8.25495E+03  7.39370E+03
 -1.59905E+04 -1.65490E+03 -1.59298E+04 -1.17909E+04 -6.63156E+03 -2.03658E+04  8.36113E+03 -1.84252E+04
  1.52255E+04 -4.66768E+03  1.02213E+04  3.60580E+03 -3.76389E+02  5.97417E+03 -8.45412E+03  1.51312E+03
 -7.01437E+03 -1.27193E+04 -1.08091E+03 -1.84821E+04  8.74189E+03 -1.84228E+04  2.15495E+04 -8.13969E+03
  2.49075E+04  3.79861E+03  1.94831E+04  1.48656E+04  2.38238E+03  2.20488E+04 -9.35784E+03  1.47529E+04
 -1.30344E+04  5.32138E+03 -6.68517E+03 -3.36317E+03  4.40146E+03 -4.97959E+03  9.32722E+03 -1.01835E+03
  8.45038E+03  7.08827E+03  1.43412E+03  1.29295E+04 -1.02211E+04  1.25086E+04 -1.52688E+04  3.85359E+03
 -1.16782E+04 -9.50788E+03  7.39920E+02 -1.34980E+04  1.09284E+04 -5.46774E+03  1.08371E+04  5.98385E+03
  2.66886E+03  1.17610E+04 -6.46888E+03  1.14959E+04 -1.55622E+04  3.26342E+03 -1.67270E+04 -5.15476E+03
 -8.04188E+03 -1.63439E+04  3.86899E+03 -2.02226E+04  1.68863E+04 -9.27061E+03  1.87377E+04  1.45106E+03
  1.13261E+04  1.45136E+04 -1.95713E+03  1.76215E+04 -1.13269E+04  1.08998E+04 -1.47335E+04 -2.14714E+03
 -1.05759E+04 -1.16774E+04 -1.08804E+03 -1.15787E+04  5.71424E+03 -8.99950E+03  7.39191E+03 -6.23613E+03
  5.54690E+03  2.85631E+03 -1.22793E+03  2.08420E+03  4.79762E+02 -4.67087E+03  3.02732E+03 -8.83975E+03
  1.21807E+04 -6.02035E+03  1.93683E+04  2.41527E+03  1.64612E+04  1.13164E+04  1.11499E+04  2.34438E+04
 -6.13453E+03  2.61625E+04 -2.20770E+04  1.92651E+04 -2.77480E+04  5.53734E+03 -2.34809E+04 -1.05535E+04
 -1.13683E+04 -1.75862E+04 -4.79993E+02 -1.59692E+04  6.30980E+03 -8.74851E+03  5.22525E+03 -6.60198E+03
  2.84679E+03 -1.99843E+03  5.31699E+03 -5.04464E+03  5.66329E+03 -4.28807E+03  7.72264E+03 -1.10552E+03
  1.33010E+04  2.54737E+03  5.17825E+03  1.06537E+04 -2.96899E+03  1.25549E+04 -1.20694E+04  9.76154E+03
 -1.58627E+04 -1.30211E+03 -1.05567E+04 -1.30351E+04 -2.55843E+03 -1.82837E+04  8.44183E+03 -1.80612E+04
  1.70144E+04 -7.42363E+03  1.94797E+04  3.48412E+03  1.65916E+04  1.43805E+04  1.64037E+03  1.90033E+04
 -6.75113E+03  1.40787E+04 -1.22489E+04  6.37698E+03 -7.94280E+03 -1.02601E+03 -4.21993E+03 -3.02854E+03
 -1.26021E+03  4.51123E+02 -2.79970E+03  4.14288E+03 -7.02420E+03  3.29834E+03 -1.15305E+04 -2.53306E+03
 -7.04294E+03 -1.14853E+04  6.42389E+02 -1.59954E+04  8.56054E+03 -1.43866E+04  1.58814E+04 -4.05780E+03
  1.49847E+04  8.52678E+03  7.23584E+03  1.38898E+04 -1.76113E+03  1.50778E+04 -1.10833E+04  1.05670E+04
 -1.50409E+04  1.40072E+02 -9.27294E+03 -9.34597E+03 -1.31328E+03 -1.36640E+04  6.33267E+03 -1.05136E+04
  1.18423E+04 -3.70862E+03  6.54143E+03  4.80458E+03  4.31696E+03  5.46126E+03  1.51821E+03  1.24101E+03
  3.63656E+03  4.30993E+02  4.51770E+03  1.85623E+03  5.68758E+03  3.29711E+03  5.32458E+03  8.96229E+03
 -3.54029E+03  1.37774E+04 -1.19846E+04  1.31077E+04 -1.78859E+04  3.91558E+03 -1.63255E+04 -7.35513E+03
 -7.31483E+03 -1.70002E+04  2.28950E+03 -1.64814E+04  1.07572E+04 -1.11258E+04  1.31448E+04 -3.01364E+03
  1.15646E+04  7.48265E+03  1.48004E+03  1.04530E+04 -4.77363E+03  4.24389E+03 -7.81527E+03 -1.99548E+03
 -2.84560E+03 -6.71198E+03  2.40974E+03 -6.53595E+03  6.39579E+03 -3.39102E+03  5.93159E+03  2.78446E+02
  4.16358E+03  3.26582E+03  2.07150E+03  1.09787E+03  4.17087E+02  2.43710E+03  1.60598E+03 -9.02768E+02
  3.99314E+03 -1.58316E+03  6.60506E+03  2.47713E+03  4.27841E+03  8.73229E+03 -1.11577E+03  9.94600E+03
 -9.75767E+03  8.98706E+03 -1.04156E+04  3.62041E+03 -9.94513E+03 -2.78665E+03 -2.99070E+03 -6.46832E+03
  2.87068E+02 -7.44029E+03  5.18962E+03 -2.70615E+03  4.46446E+03  2.07133E+03 -3.27219E+03  5.88548E+03
 -5.59370E+03  3.64700E+03 -8.78618E+03 -2.91630E+03 -4.20310E+03 -9.81125E+03  1.61711E+03 -9.33571E+03
  4.92054E+03 -3.71706E+03  7.02024E+03 -3.25740E+02  4.56908E+03  2.45731E+03 -2.76644E+02  3.35144E+03
 -4.68900E+03  9.28858E+02 -3.75020E+03 -3.46645E+03  2.49853E+02 -7.77297E+03  8.78560E+03 -6.29535E+03
  1.08080E+04  1.84598E+03  1.17607E+04  8.30819E+03  2.28882E+03  1.07948E+04 -3.03041E+03  1.24246E+04
 -9.74189E+03  3.92897E+03 -9.33494E+03 -2.51452E+03 -5.38182E+03 -6.40753E+03  9.55419E+02 -5.78614E+03
  7.24796E+03 -2.99451E+03  6.64334E+03  3.28621E+03  2.22467E+03  5.97440E+03 -3.13857E+03  6.41825E+03
 -2.41654E+03  2.38062E+03 -2.18127E+03  1.24361E+03 -2.59326E+03  6.10678E+02 -1.94163E+03  2.31257E+03
 -2.67356E+03  3.36839E+03 -5.83677E+03  2.63082E+03 -1.06851E+04  1.93149E+03 -1.38042E+04 -6.52166E+03
 -8.03652E+03 -1.54337E+04  2.65994E+03 -1.73934E+04  8.56272E+03 -1.25768E+04  1.51860E+04 -5.15808E+03
  1.44289E+04  3.54396E+03  1.02349E+04  1.01764E+04  3.28379E+02  1.10883E+04 -4.00971E+03  7.63742E+03
 -5.33123E+03  2.80568E+03 -3.84516E+03 -7.01154E+02 -1.40395E+03  4.44995E+01 -6.47100E+02 -1.55568E+03
 -2.01346E+03  8.19017E+02 -5.13435E+03 -7.24820E+02 -1.47695E+03 -4.48501E+03  7.91813E+02 -5.33092E+03
  4.88360E+03 -3.20051E+03  6.24113E+03 -1.41431E+03  7.07609E+03  5.93142E+03  3.00748E+03  9.86591E+03
 -6.83095E+03  1.39036E+04 -1.28259E+04  8.21983E+03 -1.39667E+04 -5.37956E+02 -1.08746E+04 -7.78513E+03
 -3.89140E+03 -1.31041E+04  3.86722E+03 -1.14566E+04  7.67637E+03 -4.66206E+03  8.37632E+03 -1.17398E+03
  4.82676E+03  5.07179E+03 -6.94679E+02  3.19528E+03 -1.45774E+03 -2.19126E+03  1.23709E+03 -1.30612E+03
  5.20529E+03 -1.67355E+03  4.89709E+03  2.07470E+03  1.98655E+03  5.98686E+03 -1.54910E+02  4.72055E+03
 -3.43694E+03  4.54765E+03 -8.52606E+03 -3.46873E+02 -6.73933E+03 -5.04193E+03 -1.02519E+03 -8.35293E+03
  5.71372E+03 -8.62526E+03  8.23566E+03 -1.82839E+03  9.59430E+03  2.96445E+03  4.45647E+03  7.52473E+03
  1.14625E+03  7.79362E+03 -2.69573E+03  7.84753E+03 -5.39615E+03  2.54324E+03 -4.77044E+03  6.24272E+01
 -1.26747E+03 -1.38132E+03 -1.37115E+03  1.65304E+03 -3.67610E+03  1.86866E+03 -5.82849E+03 -2.34604E+03
 -4.26177E+03 -3.03081E+03 -2.07629E+03 -7.41280E+03  4.56340E+03 -7.56123E+03  6.61876E+03 -3.78768E+03
  7.34702E+03  1.28635E+03  3.20690E+03  5.51655E+03 -1.64655E+03  8.81138E+03 -7.79313E+03  5.72656E+03
