 $NMID ID='MM_0lb_SNR200_13hz_g50_87.RAW', FMTDAT='(8E13.5)'
 TRAMP=1., VOLUME=1. $END
  3.10000E+05  6.98394E+02  3.37859E+05  2.51088E+05  8.48632E+04  3.38729E+05 -1.31544E+05  2.51479E+05
 -1.90650E+05  8.32620E+04 -1.12262E+05 -3.26087E+04  5.69388E+02 -5.09958E+04  5.37725E+04  1.72840E+02
  3.57349E+04  5.32101E+04 -1.72892E+04  7.63644E+04 -6.10330E+04  6.34115E+04 -8.45236E+04  3.20407E+04
 -8.15313E+04 -1.24471E+04 -5.75316E+04 -5.06455E+04 -1.48214E+04 -7.12020E+04  2.80099E+04 -4.60758E+04
  4.06516E+04  4.50359E+03  1.56351E+04  4.77124E+04 -3.42204E+04  4.62819E+04 -6.63921E+04 -3.07739E+02
 -5.43431E+04 -5.88179E+04 -5.91048E+03 -7.80506E+04  3.49762E+04 -5.64907E+04  4.74295E+04 -1.60508E+04
  4.30535E+04  1.18726E+04  3.24119E+04  2.59324E+04  1.48148E+04  3.00869E+04 -6.20012E+03  2.73656E+04
 -2.10009E+04  1.25891E+04 -1.73827E+04 -5.21494E+03  6.07293E+03 -6.70277E+03  2.32785E+04  1.25216E+04
  6.04190E+03  3.53909E+04 -3.42347E+04  3.62807E+04 -6.28351E+04  1.23881E+03 -5.70621E+04 -4.24600E+04
 -1.27010E+04 -6.42233E+04  4.03353E+04 -4.58594E+04  5.79783E+04 -2.17775E+03  3.49631E+04  3.18705E+04
 -5.80927E+03  3.76180E+04 -3.13844E+04  1.81682E+04 -3.12750E+04 -3.41501E+03 -1.76102E+04 -1.13342E+04
 -8.96187E+03 -1.26160E+04 -6.69274E+02 -1.80229E+04  7.67429E+03 -2.25528E+04  1.48849E+04 -1.24382E+04
  1.16782E+04  3.89873E+03 -8.45058E+03  1.08340E+04 -2.16947E+04 -5.13610E+03 -7.91043E+03 -3.57020E+04
  2.25564E+04 -4.41993E+04  4.93499E+04 -2.06963E+04  4.71194E+04  1.98934E+04  1.44683E+04  4.40518E+04
 -1.59832E+04  3.33213E+04 -2.61176E+04  1.97019E+03 -1.05302E+04 -2.85371E+04  2.14752E+04 -3.50865E+04
  4.30158E+04 -1.11053E+04  3.66723E+04  2.47091E+04  1.84714E+04  4.81504E+04 -7.24455E+03  5.14614E+04
 -3.26347E+04  3.52953E+04 -4.35819E+04  1.06589E+04 -4.38035E+04 -1.62129E+04 -2.38373E+04 -3.84523E+04
  6.66821E+03 -3.78894E+04  3.17049E+04 -1.67918E+04  2.98588E+04  1.01842E+04  4.40164E+03  1.89828E+04
 -1.41267E+04  8.57515E+03 -1.09276E+04 -8.13267E+03  3.89031E+03 -1.06668E+04  1.63205E+04  6.25765E+03
  1.48072E+04  2.28322E+04 -5.55244E+03  2.66323E+04 -2.25301E+04  1.18534E+04 -2.96296E+04 -3.89085E+03
 -2.11451E+04 -1.75665E+04 -9.25461E+03 -2.12731E+04  3.77200E+03 -2.14263E+04  1.68286E+04 -2.03118E+04
  2.83667E+04 -1.30548E+04  3.35920E+04  3.47996E+03  2.51699E+04  2.04032E+04  4.98171E+03  3.73927E+04
 -1.68534E+04  3.15556E+04 -2.75046E+04  9.69563E+03 -2.24154E+04 -1.07050E+04 -5.40047E+03 -1.32337E+04
  1.41283E+02 -1.73847E+03 -5.02600E+03  8.03736E+03 -1.79868E+04  4.17169E+03 -1.68468E+04 -7.49403E+03
 -1.01342E+04 -2.10139E+04  5.74334E+03 -2.29413E+04  1.70114E+04 -1.69440E+04  1.87045E+04 -1.56840E+03
  1.21474E+04  1.35495E+04 -2.37883E+03  1.98008E+04 -1.39840E+04  1.12821E+04 -2.15135E+04 -4.73093E+03
 -1.49666E+04 -1.86573E+04 -5.18607E+02 -2.37171E+04  1.08949E+04 -2.00430E+04  2.07016E+04 -9.27986E+03
  1.77384E+04  8.31796E+02  1.32077E+04  3.68624E+03  6.94618E+03  9.26479E+02  9.33977E+03 -1.77776E+03
  1.73850E+04  1.31088E+03  2.13123E+04  1.56127E+04  1.19373E+04  3.17526E+04 -2.22397E+03  3.60674E+04
 -2.23124E+04  3.04033E+04 -3.33569E+04  1.49694E+04 -3.69230E+04 -2.05033E+03 -2.96972E+04 -1.95604E+04
 -1.35500E+04 -2.97284E+04  1.08755E+04 -2.60805E+04  2.12208E+04 -1.39729E+04  2.14816E+04  6.73787E+03
  6.72550E+03  1.59422E+04 -9.77403E+03  1.30185E+04 -1.77038E+04  3.93240E+03 -1.24300E+04 -1.07284E+04
 -1.20194E+03 -1.56085E+04  9.25260E+03 -9.64714E+03  1.05708E+04 -3.73831E+02  2.81510E+03  7.33532E+03
 -7.80108E+03  3.82311E+03 -5.97475E+03 -6.29335E+03 -9.15934E+01 -1.38602E+04  1.00946E+04 -1.47146E+04
  1.78931E+04 -8.66154E+03  1.96654E+04  2.26624E+03  1.84074E+04  1.56941E+04  8.24625E+03  2.14015E+04
 -4.70448E+03  2.33265E+04 -1.60361E+04  1.43585E+04 -1.80830E+04  4.16499E+03 -1.21479E+04 -3.53816E+03
 -5.79229E+03 -5.53789E+03 -1.08859E+03  7.57675E+02 -1.59595E+03  3.00694E+03 -6.09516E+03  4.91005E+03
 -1.09954E+04 -7.04456E+02 -1.19991E+04 -8.75908E+03 -5.12569E+03 -1.72844E+04  4.34357E+03 -1.18586E+04
  9.02182E+03 -5.01859E+03  7.76964E+03  3.94364E+03 -5.77996E+02  5.09914E+03 -5.70866E+03 -2.22784E+03
 -5.21746E+03 -8.27310E+03 -1.47987E+03 -1.12321E+04  6.15843E+03 -1.25672E+04  1.54214E+04 -6.49932E+03
  1.95039E+04  2.41066E+02  1.17277E+04  1.14164E+04  3.38164E+03  1.38506E+04 -7.53346E+03  1.25780E+04
 -9.38067E+03  3.52703E+03 -4.54782E+03 -2.12754E+03  8.29649E+02 -3.34765E+03  6.73422E+03  2.58699E+02
  5.60048E+03  5.88650E+03 -3.24938E+02  9.34838E+03 -7.13407E+03  9.19589E+03 -1.23302E+04  3.21518E+03
 -8.69433E+03 -7.22716E+03  1.22664E+02 -1.09736E+04  6.86699E+03 -3.98685E+03  3.89527E+03  1.99266E+03
  1.00625E+03  6.78083E+03 -7.39294E+03  8.16023E+03 -8.53243E+03  4.11214E+03 -1.04570E+04 -1.52686E+03
 -6.71213E+03 -1.10946E+04  2.65201E+03 -1.33776E+04  9.78482E+03 -7.05279E+03  1.17182E+04  2.66728E+03
  6.38484E+03  9.56167E+03 -1.58894E+03  1.09213E+04 -8.36616E+03  7.20347E+03 -8.84973E+03 -1.19182E+03
 -8.87743E+03 -8.47222E+03 -2.57906E+02 -8.93874E+03  4.85621E+03 -7.47480E+03  6.10965E+03 -4.06000E+03
  3.48596E+03  3.55203E+02 -6.97242E+02  2.00572E+03  1.07624E+03 -1.70089E+03  1.73541E+03 -5.54652E+03
  7.89466E+03 -2.23453E+03  1.05073E+04 -2.91472E+00  9.72319E+03  6.02074E+03  7.72163E+03  1.39180E+04
 -2.54020E+03  1.58394E+04 -1.28272E+04  1.29733E+04 -1.75027E+04  1.23224E+03 -1.48440E+04 -5.07397E+03
 -6.59575E+03 -1.16651E+04 -9.82324E+02 -9.05128E+03  3.72201E+03 -6.08104E+03  4.65204E+03 -3.97178E+03
  1.95188E+03 -3.65080E+03  1.65104E+03 -3.73803E+03  5.80937E+03 -2.98889E+03  5.61493E+03 -1.31321E+03
  7.41538E+03  8.43904E+02  4.90286E+03  6.97127E+03 -2.98921E+03  7.81176E+03 -8.24303E+03  6.00591E+03
 -9.18973E+03 -9.85713E+02 -6.06667E+03 -5.24184E+03  5.03730E+01 -9.40376E+03  6.42564E+03 -9.53699E+03
  1.06634E+04 -6.63602E+03  1.26921E+04 -9.37739E+01  8.29066E+03  1.04181E+04  1.21442E+03  1.10480E+04
 -5.64187E+03  9.66672E+03 -6.78923E+03  2.24239E+03 -4.29352E+03 -1.56607E+03 -7.09300E+02 -1.06441E+03
 -1.16521E+03  5.40533E+02 -1.30789E+03  1.69149E+03 -4.11669E+03  1.37933E+03 -5.91521E+03 -6.61995E+01
 -3.16930E+03 -5.30294E+03 -8.33330E+02 -8.50067E+03  6.56082E+03 -8.25491E+03  9.26797E+03 -1.44583E+03
  9.52180E+03  4.31232E+03  3.79599E+03  6.55271E+03 -3.11383E+03  8.58443E+03 -6.24649E+03  6.59318E+03
 -8.27422E+03  1.01478E+03 -7.24203E+03 -4.54259E+03 -1.30101E+03 -7.97285E+03  4.29797E+03 -4.84338E+03
  5.33482E+03 -8.92714E+02  4.12365E+03  1.91115E+03  1.42433E+03  2.91981E+03  1.51139E+03  1.75597E+03
  2.17290E+03  7.81364E+02  2.57056E+03  2.18461E+03  3.91172E+03  3.91087E+03  2.33384E+03  5.73208E+03
 -2.46629E+03  7.55460E+03 -6.80270E+03  7.89774E+03 -8.25982E+03  1.45373E+03 -9.55336E+03 -2.49027E+03
 -3.05143E+03 -9.37357E+03  1.17033E+03 -9.23598E+03  4.81923E+03 -5.59290E+03  7.20155E+03 -2.26583E+03
  4.78047E+03  3.85749E+03  3.28730E+02  5.37433E+03 -1.09684E+03  3.40275E+03 -3.94949E+03 -1.14740E+03
 -1.67056E+03 -3.21951E+03  5.80736E+02 -3.38741E+03  2.70416E+03 -2.30374E+03  3.96100E+03  1.26742E+02
  2.02758E+03  6.95379E+02  8.97070E+02  2.24611E+03 -2.53761E+02  2.34117E+03  1.16735E+03 -1.45704E+03
  1.66802E+03  5.17978E+02  2.06899E+03  1.32697E+03  1.28756E+03  5.08689E+03  1.02602E+02  6.25707E+03
 -4.04702E+03  3.15004E+03 -5.74450E+03  1.10906E+03 -5.03539E+03 -1.14015E+03 -2.35881E+03 -3.70400E+03
 -6.23479E+02 -2.29369E+03  2.43241E+03 -1.62735E+03 -1.12727E+02  6.60186E+02 -2.72997E+03  2.41430E+03
 -3.61109E+03  2.75181E+03 -4.53326E+03 -3.36103E+03 -2.77215E+03 -4.40809E+03  1.39670E+02 -4.86434E+03
  2.41244E+03 -3.19144E+03  2.66811E+03 -1.00188E+03  1.98532E+03  1.33660E+03  2.63287E+02  2.91462E+03
 -1.44345E+03  4.05743E+02 -2.73095E+03 -1.94137E+03  1.79311E+03 -3.64260E+03  3.72926E+03 -2.17243E+03
  3.81489E+03  5.06489E+02  5.73382E+03  2.70570E+03  2.56990E+03  4.76478E+03 -2.44795E+03  4.79699E+03
 -3.39312E+03  1.60033E+03 -3.79125E+03 -2.07595E+03 -1.99885E+03 -2.60217E+03  8.38543E+02 -3.00155E+03
  3.77780E+03 -1.23954E+03  2.18860E+03  1.35581E+03 -2.85463E+02  2.63586E+03 -4.27252E+02  3.08453E+03
 -3.89589E+02  2.25160E+03 -1.61448E+03  7.54173E+02 -2.14763E+02  6.17274E+02 -8.09520E+02  7.55052E+02
 -1.11563E+03  2.18851E+03 -1.93334E+03  1.45116E+03 -6.40051E+03 -9.58417E+02 -6.00306E+03 -4.13147E+03
 -4.06261E+03 -7.29911E+03  1.04755E+03 -7.17932E+03  4.45587E+03 -6.40094E+03  6.49195E+03 -2.22904E+03
  6.49759E+03  6.01805E+01  4.09365E+03  4.15173E+03  1.63079E+02  4.93370E+03 -2.72827E+03  3.72417E+03
 -3.30946E+03  1.15864E+03 -6.15846E+02 -8.91542E+02  1.52502E+02  9.90123E+02 -1.39053E+03 -9.26565E+02
 -1.99812E+03  9.94147E+02 -2.24910E+03 -1.01172E+03 -1.75639E+03 -8.01114E+02  2.33338E+02 -2.25626E+03
  3.32051E+03 -2.94220E+03  1.99224E+03 -5.40033E+02  3.70410E+03  2.45308E+03  7.53872E+02  4.90039E+03
 -5.02004E+02  5.47316E+03 -6.33041E+03  2.52610E+03 -4.95074E+03 -1.19107E+03 -4.96538E+03 -2.70035E+03
 -1.16443E+03 -5.31969E+03  2.39911E+03 -3.70650E+03  2.96010E+03 -2.43796E+03  3.61275E+03  9.02148E+02
  1.85843E+03  1.72357E+03  5.01475E+02  1.72993E+03 -1.58735E+03 -5.07495E+02 -2.11594E+02 -2.05532E+02
  2.20130E+03  3.21995E+01  1.35166E+03  1.51039E+02  8.88412E+02  2.56422E+03  1.10626E+03  2.31621E+03
 -1.35549E+03  2.77767E+03 -4.42702E+03  1.07624E+02 -3.09138E+03 -2.78248E+03 -1.51777E+03 -4.31715E+03
  2.95353E+03 -3.65780E+03  4.63184E+03  6.77982E+01  4.26947E+03  9.81116E+02  2.67942E+03  2.43914E+03
  1.38166E+03  2.23311E+03 -1.43339E+03  3.33493E+03 -2.99477E+03  1.99769E+03 -1.62133E+03  8.03229E+02
 -5.16673E+02 -1.49579E+03 -1.36211E+03  1.18977E+03 -2.20079E+03  1.99329E+03 -1.60028E+03 -1.15728E+03
 -3.54005E+03 -1.57429E+03  4.03371E+01 -3.14564E+03  3.17237E+03 -3.16235E+03  2.18211E+03 -1.45774E+03
  2.39818E+03 -5.37850E+02  1.15535E+03  2.14697E+03 -1.10701E+02  2.52503E+03 -2.47509E+03  7.99885E+02
