 $NMID ID='MM_0lb_SNR200_11hz_g45_47.RAW', FMTDAT='(8E13.5)'
 TRAMP=1., VOLUME=1. $END
  3.10710E+05 -1.74868E+01  3.36115E+05  2.50280E+05  8.48141E+04  3.37264E+05 -1.31633E+05  2.51813E+05
 -1.89353E+05  8.16815E+04 -1.12708E+05 -3.26858E+04  6.57549E+01 -4.94426E+04  5.28203E+04 -3.37481E+02
  3.59452E+04  5.26573E+04 -1.58214E+04  7.47811E+04 -5.94281E+04  6.17859E+04 -8.40630E+04  3.24557E+04
 -8.11234E+04 -1.07503E+04 -5.66581E+04 -5.17220E+04 -1.42836E+04 -6.96493E+04  2.74925E+04 -4.56460E+04
  4.08833E+04  4.11622E+03  1.80238E+04  4.87350E+04 -3.35388E+04  4.68792E+04 -6.80215E+04  5.09298E+02
 -5.40212E+04 -5.70812E+04 -8.67618E+03 -7.85108E+04  3.38245E+04 -5.53839E+04  4.83355E+04 -1.89777E+04
  4.50375E+04  1.21026E+04  3.24385E+04  2.52102E+04  1.51667E+04  2.81824E+04 -4.47623E+03  2.79998E+04
 -2.27485E+04  1.27200E+04 -1.78257E+04 -6.32458E+03  6.24430E+03 -8.23030E+03  2.27852E+04  1.32945E+04
  5.74918E+03  3.60985E+04 -3.32497E+04  3.58331E+04 -6.52055E+04  2.33669E+03 -5.70221E+04 -4.26476E+04
 -1.20588E+04 -6.32833E+04  3.91863E+04 -4.71012E+04  6.10483E+04 -3.63575E+03  3.54807E+04  3.20330E+04
 -5.48646E+03  3.89248E+04 -3.05225E+04  1.70986E+04 -3.12314E+04 -4.41910E+03 -1.69196E+04 -1.10582E+04
 -7.44281E+03 -1.35306E+04  1.02286E+03 -2.02046E+04  8.22960E+03 -2.33776E+04  1.64258E+04 -1.27040E+04
  1.10549E+04  5.93650E+03 -8.68021E+03  1.35213E+04 -2.39274E+04 -5.01569E+03 -9.80587E+03 -3.43925E+04
  2.30558E+04 -4.49289E+04  5.02653E+04 -1.98865E+04  4.62496E+04  1.92245E+04  1.57396E+04  4.64737E+04
 -1.43981E+04  3.38122E+04 -2.49242E+04  8.22871E+02 -1.03836E+04 -2.83989E+04  2.05832E+04 -3.60433E+04
  4.49651E+04 -1.00290E+04  3.81412E+04  2.38790E+04  1.97088E+04  4.83159E+04 -8.92422E+03  5.21429E+04
 -3.31760E+04  3.54015E+04 -4.62167E+04  1.10023E+04 -4.56468E+04 -1.62912E+04 -2.46729E+04 -3.90529E+04
  7.66362E+03 -4.03844E+04  3.21427E+04 -1.51612E+04  3.13188E+04  1.09841E+04  4.06472E+03  2.02512E+04
 -1.35083E+04  8.92492E+03 -1.09910E+04 -5.98042E+03  6.32411E+03 -1.28790E+04  1.85867E+04  6.23863E+03
  1.49628E+04  2.25400E+04 -4.85778E+03  2.59773E+04 -2.34431E+04  1.22290E+04 -2.95376E+04 -3.93931E+03
 -2.31305E+04 -1.90518E+04 -1.05448E+04 -2.29142E+04  4.43300E+03 -2.26252E+04  1.69237E+04 -2.04090E+04
  2.92051E+04 -1.34208E+04  3.56043E+04  3.13568E+03  2.50026E+04  2.15531E+04  5.10124E+03  3.86356E+04
 -1.87650E+04  3.11992E+04 -2.83330E+04  1.03009E+04 -2.15099E+04 -1.01989E+04 -4.66632E+03 -1.30998E+04
 -2.46196E+02 -9.43855E+02 -6.65640E+03  7.98682E+03 -1.90479E+04  6.83166E+03 -1.84963E+04 -9.41820E+03
 -9.79255E+03 -2.08870E+04  5.06931E+03 -2.51804E+04  1.59085E+04 -1.69562E+04  2.04579E+04 -1.67642E+03
  1.16391E+04  1.42312E+04 -1.36006E+03  2.11121E+04 -1.51316E+04  1.16900E+04 -2.18538E+04 -3.85389E+03
 -1.66449E+04 -2.00966E+04 -2.67992E+03 -2.44972E+04  1.19209E+04 -2.09208E+04  2.23827E+04 -1.12423E+04
  2.10541E+04  1.98399E+01  1.41831E+04  4.39460E+03  6.61150E+03  2.08939E+03  1.22161E+04 -2.31547E+03
  1.94114E+04  2.88725E+03  2.29603E+04  1.55397E+04  1.47557E+04  3.41900E+04 -3.00903E+03  3.97574E+04
 -2.28383E+04  3.19869E+04 -3.67521E+04  1.74432E+04 -3.96762E+04 -2.90691E+03 -3.16977E+04 -2.29642E+04
 -1.32906E+04 -3.18913E+04  1.14397E+04 -2.94577E+04  2.54001E+04 -1.40252E+04  2.05413E+04  5.95303E+03
  8.10006E+03  1.76651E+04 -1.00918E+04  1.50859E+04 -1.85098E+04  4.26223E+03 -1.40816E+04 -1.16261E+04
 -5.22996E+02 -1.67091E+04  8.50573E+03 -1.19478E+04  1.16335E+04 -7.78067E+02  2.56647E+03  7.65405E+03
 -8.39358E+03  3.51765E+03 -7.17129E+03 -6.27855E+03 -6.43796E+02 -1.57184E+04  1.06914E+04 -1.63737E+04
  1.92079E+04 -7.92068E+03  2.35454E+04  2.36857E+03  1.85770E+04  1.60341E+04  8.62261E+03  2.40154E+04
 -5.16428E+03  2.76062E+04 -1.75473E+04  1.71500E+04 -1.94945E+04  4.80514E+03 -1.40394E+04 -5.79873E+03
 -7.06419E+03 -5.37013E+03 -9.11566E+02  8.05433E+02 -2.59197E+03  2.50924E+03 -5.73204E+03  4.53208E+03
 -1.23595E+04 -2.31932E+02 -1.24514E+04 -1.06369E+04 -5.23646E+03 -1.69086E+04  6.34517E+03 -1.48468E+04
  1.13827E+04 -6.29825E+03  6.87607E+03  2.46680E+03 -1.47161E+03  4.98071E+03 -6.91560E+03 -2.44987E+03
 -5.24855E+03 -8.63155E+03 -1.98341E+03 -1.35042E+04  8.37466E+03 -1.44411E+04  1.61919E+04 -7.69801E+03
  2.11699E+04  1.58997E+03  1.51248E+04  1.18724E+04  2.89700E+03  1.71242E+04 -8.42990E+03  1.34124E+04
 -8.89495E+03  3.14621E+03 -5.40191E+03 -4.25922E+03  1.53314E+03 -4.89746E+03  6.91994E+03 -1.63394E+03
  6.13614E+03  4.97288E+03  1.07231E+03  1.07889E+04 -7.31634E+03  1.12705E+04 -1.36505E+04  3.46639E+03
 -9.35882E+03 -6.55789E+03  9.93786E+02 -1.02611E+04  7.15587E+03 -6.36900E+03  7.83181E+03  2.78459E+03
  1.46826E+03  6.67770E+03 -7.57671E+03  9.17141E+03 -9.42687E+03  3.75211E+03 -1.03259E+04 -4.02507E+03
 -6.27931E+03 -1.22806E+04  2.39538E+03 -1.49618E+04  1.17844E+04 -9.14650E+03  1.53958E+04  3.14874E+03
  8.08410E+03  1.04191E+04 -1.44674E+03  1.49608E+04 -9.76496E+03  7.77464E+03 -9.79239E+03 -2.10938E+02
 -8.23633E+03 -9.66923E+03 -2.13576E+03 -1.06229E+04  5.14257E+03 -7.92963E+03  5.28032E+03 -3.10889E+03
  2.84159E+03  9.70726E+02 -1.45182E+03  2.21070E+03 -1.92538E+03 -3.93154E+03  6.37487E+02 -5.73256E+03
  9.96885E+03 -3.23997E+03  1.06086E+04  3.33511E+03  1.21991E+04  8.78563E+03  9.60974E+03  1.61552E+04
 -3.58369E+03  1.93774E+04 -1.73632E+04  1.42892E+04 -2.07172E+04  1.84035E+03 -1.68652E+04 -8.99753E+03
 -8.92221E+03 -1.30841E+04 -8.28454E+02 -1.15611E+04  3.64700E+03 -6.72690E+03  4.59821E+03 -2.24839E+03
  2.86077E+03 -1.31828E+03  1.60037E+03 -4.80346E+03  4.80028E+03 -3.44308E+03  5.37453E+03 -1.78814E+03
  1.12348E+04  3.49793E+03  4.41249E+03  7.31554E+03 -1.90549E+03  8.24250E+03 -9.53562E+03  7.29394E+03
 -1.18068E+04 -2.10265E+03 -7.20526E+03 -8.47922E+03 -9.21345E+01 -1.19860E+04  8.41947E+03 -1.33751E+04
  1.45042E+04 -6.79861E+03  1.57071E+04  2.45389E+03  1.04053E+04  1.02562E+04  2.71418E+03  1.38528E+04
 -4.97654E+03  1.11014E+04 -7.78011E+03  3.32285E+03 -5.24310E+03 -1.18852E+03 -2.71704E+03 -2.52022E+03
 -1.54808E+03  2.93879E+01 -1.65873E+03  2.35870E+03 -5.60408E+03  2.52214E+03 -8.97855E+03 -2.68100E+02
 -5.22635E+03 -7.60792E+03  6.46567E+02 -1.03907E+04  5.76459E+03 -1.17035E+04  1.17316E+04 -2.74864E+03
  9.40363E+03  5.47486E+03  5.88105E+03  1.13542E+04 -2.43541E+03  1.10237E+04 -7.27565E+03  6.83443E+03
 -1.13647E+04  1.91329E+03 -8.72309E+03 -5.88198E+03 -1.44933E+03 -9.40766E+03  5.37074E+03 -7.14792E+03
  8.31973E+03 -3.70324E+03  4.25510E+03  2.03790E+03  1.51431E+03  4.01343E+03  1.96755E+03  1.79344E+03
  2.63062E+03  9.68437E+02  3.39912E+03  1.05083E+03  2.35562E+03  3.91140E+03  3.35477E+03  5.37720E+03
 -2.80658E+03  8.28903E+03 -7.34595E+03  8.33086E+03 -1.13966E+04  1.65864E+03 -1.13668E+04 -5.03662E+03
 -6.56549E+03 -1.13635E+04  2.47541E+03 -1.31130E+04  6.65573E+03 -7.28421E+03  9.68547E+03 -2.27506E+03
  7.00340E+03  6.33325E+03  1.23309E+03  5.86035E+03 -3.38248E+03  4.77716E+03 -5.12339E+03 -6.40621E+01
 -3.04982E+03 -4.28560E+03  3.28394E+03 -4.98818E+03  5.18540E+03 -2.81415E+03  3.86433E+03  1.23802E+03
  2.82807E+03  9.15626E+02  1.22972E+03  2.40421E+03 -9.79334E+02  2.16612E+03  2.71065E+03 -1.24231E+02
  2.96267E+03 -5.26963E+02  5.21933E+03  2.75305E+03  1.08256E+03  6.47428E+03 -7.80964E+02  8.88622E+03
 -4.15825E+03  4.77660E+03 -7.44742E+03  1.53711E+03 -6.07769E+03 -2.27661E+03 -3.19345E+03 -3.18191E+03
  1.02812E+03 -5.51992E+03  1.79750E+03 -2.52422E+03  3.80815E+03  1.21666E+03 -8.67838E+02  3.85371E+03
 -4.95313E+03  1.93436E+03 -4.06529E+03 -2.68397E+03 -2.80334E+03 -6.07313E+03 -1.31048E+03 -4.73048E+03
  2.63782E+03 -3.11469E+03  3.85489E+03 -6.66164E+02  3.44617E+03  2.27399E+03  5.41137E+02  4.04927E+03
 -2.24590E+03  7.68147E+02 -3.24434E+03 -2.37731E+03  1.29319E+03 -5.83855E+03  5.47585E+03 -2.64208E+03
  6.97840E+03 -3.40967E+01  5.60638E+03  4.42551E+03  2.20713E+03  6.82696E+03 -1.61883E+03  6.64456E+03
 -5.11726E+03  3.15215E+03 -5.12044E+03 -4.74997E+02 -2.86888E+03 -4.53904E+03  1.03525E+03 -5.18228E+03
  4.82799E+03 -1.22434E+03  3.25957E+03  2.45207E+03  1.19521E+03  3.62490E+03 -4.94391E+02  2.50058E+03
 -1.54801E+03  2.92081E+03 -1.37975E+03  1.18954E+03 -4.54674E+02  1.57058E+03 -1.45109E+03  2.03379E+03
 -1.09351E+03  2.29461E+03 -4.99822E+03  7.62954E+02 -7.71084E+03 -4.98147E+02 -7.95629E+03 -5.99669E+03
 -3.84087E+03 -8.48964E+03  1.34635E+03 -1.13358E+04  8.10631E+03 -7.81897E+03  9.69565E+03 -3.06416E+03
  1.00197E+04  1.06971E+03  5.02186E+03  5.61301E+03  5.81102E+02  6.50476E+03 -3.11442E+03  5.31599E+03
 -4.79456E+03  3.06195E+03 -1.87441E+03 -1.33647E+03 -2.98535E+02 -4.61042E+02 -1.18407E+03  2.44626E+02
 -1.44268E+03  6.44282E+02 -1.70704E+03  1.58787E-01  5.40233E-01 -2.48738E+03 -1.30150E+02 -2.60057E+03
  2.75417E+03 -2.61476E+03  5.50468E+03 -4.39274E+02  5.58634E+03  3.35721E+03  3.30290E+02  7.06027E+03
 -3.12157E+03  8.75854E+03 -6.48906E+03  5.31486E+03 -7.91875E+03 -2.36759E+02 -5.81546E+03 -4.98575E+03
 -2.29176E+03 -7.22371E+03  1.19044E+03 -7.14555E+03  5.33247E+03 -4.39436E+03  4.02277E+03  1.25083E+03
  2.13551E+03  2.15958E+03 -4.75057E+02  2.24131E+03 -1.91236E+03  1.41447E+02  7.80188E+02 -9.06316E+02
  1.88365E+03  5.27671E+02  2.24940E+03  5.23759E+02  1.30617E+03  4.05470E+03  3.99234E+02  3.03781E+03
 -2.64990E+03  1.90052E+03 -3.15408E+03  1.66976E+02 -4.08685E+03 -3.15685E+03 -6.92831E+02 -5.06926E+03
  2.60839E+03 -6.11110E+03  5.83463E+03 -2.83768E+02  3.18026E+03  1.62959E+02  2.76196E+03  4.08380E+03
 -7.81931E+01  4.40656E+03 -2.81649E+03  4.42159E+03 -1.71422E+03  1.45610E+03 -7.55931E+02  9.31417E+02
 -1.86360E+03 -2.62478E+02 -1.97212E+03  1.46956E+03 -2.85800E+03 -3.72958E+02 -3.10228E+03  1.17750E+03
 -4.03408E+03 -4.22901E+03  1.73592E+02 -3.26054E+03  2.01883E+03 -5.76795E+03  4.57263E+03 -2.19975E+03
  4.54280E+03  5.61919E+02  1.69563E+03  3.64528E+03  8.38795E+02  4.10241E+03 -4.98633E+03  2.74130E+03
