 $NMID ID='MM_0lb_SNR200_19hz_g40_9.RAW', FMTDAT='(8E13.5)'
 TRAMP=1., VOLUME=1. $END
  3.09314E+05  2.22191E+02  3.37999E+05  2.50379E+05  8.40019E+04  3.37482E+05 -1.31875E+05  2.49725E+05
 -1.89826E+05  8.34085E+04 -1.10556E+05 -3.26933E+04  1.89245E+03 -5.03002E+04  5.48974E+04  8.66398E+02
  3.45165E+04  5.27566E+04 -1.68053E+04  7.50057E+04 -5.96181E+04  6.24506E+04 -8.18881E+04  3.22458E+04
 -7.83512E+04 -1.06002E+04 -5.64948E+04 -4.94051E+04 -1.56718E+04 -6.82427E+04  2.57665E+04 -4.33193E+04
  3.90356E+04  3.57649E+03  1.57349E+04  4.54804E+04 -3.41814E+04  4.63034E+04 -6.42498E+04 -1.99317E+02
 -5.17667E+04 -5.59596E+04 -6.31121E+03 -7.40218E+04  3.30349E+04 -5.23819E+04  4.50285E+04 -1.59518E+04
  4.06649E+04  1.16706E+04  3.13444E+04  2.51268E+04  1.59791E+04  2.75092E+04 -3.90537E+03  2.61588E+04
 -2.21163E+04  1.37638E+04 -1.98146E+04 -3.98678E+03  4.13317E+03 -7.49091E+03  1.98402E+04  1.05842E+04
  7.08768E+03  3.35029E+04 -3.04644E+04  3.45004E+04 -6.03112E+04  2.71018E+03 -5.41423E+04 -4.07156E+04
 -1.16586E+04 -6.02098E+04  3.69142E+04 -4.27571E+04  5.52269E+04 -1.99772E+03  3.17461E+04  2.92347E+04
 -6.16384E+03  3.26976E+04 -2.77199E+04  1.11928E+04 -2.67820E+04 -5.61130E+03 -1.36942E+04 -1.06754E+04
 -6.89044E+03 -1.10216E+04 -2.21913E+01 -1.67828E+04  6.58479E+03 -2.20886E+04  1.52711E+04 -1.53974E+04
  1.21885E+04  4.34512E+03 -6.03545E+03  1.31506E+04 -1.92639E+04 -1.46720E+03 -8.58734E+03 -2.91635E+04
  2.01682E+04 -3.91733E+04  4.32992E+04 -1.85614E+04  4.11059E+04  1.79053E+04  1.37239E+04  4.20876E+04
 -1.50693E+04  3.00884E+04 -2.28468E+04  1.20708E+03 -6.84889E+03 -2.47192E+04  2.04279E+04 -3.07021E+04
  3.73025E+04 -7.05556E+03  3.02746E+04  2.11791E+04  1.34295E+04  4.16248E+04 -7.42991E+03  4.42549E+04
 -2.76146E+04  2.85913E+04 -3.68135E+04  7.22296E+03 -3.72576E+04 -1.42113E+04 -1.99984E+04 -3.42604E+04
  6.66519E+03 -3.33141E+04  2.86404E+04 -1.22741E+04  2.61805E+04  1.12264E+04  2.96896E+03  1.74613E+04
 -1.33229E+04  7.39235E+03 -9.71398E+03 -7.41413E+03  6.18104E+03 -1.06006E+04  1.70692E+04  5.94226E+03
  1.25692E+04  2.17261E+04 -7.09716E+03  2.25264E+04 -2.07988E+04  7.62129E+03 -2.43848E+04 -6.61283E+03
 -1.53919E+04 -1.62175E+04 -5.03896E+03 -1.62562E+04  3.44107E+03 -1.21612E+04  1.14538E+04 -1.42871E+04
  1.88251E+04 -1.13048E+04  2.68146E+04  4.62953E+02  2.07196E+04  1.63368E+04  4.60616E+03  3.07251E+04
 -1.54771E+04  2.64466E+04 -2.58142E+04  8.94217E+03 -2.00882E+04 -1.00123E+04 -3.57155E+03 -1.33469E+04
  3.31539E+03 -3.65178E+03 -2.72516E+03  6.15502E+03 -1.17360E+04  6.17319E+03 -1.31343E+04 -5.06875E+03
 -8.13934E+03 -1.38666E+04  4.73340E+03 -1.85058E+04  1.16448E+04 -1.29524E+04  1.42639E+04 -8.36525E+02
  8.27771E+03  1.04777E+04 -1.59782E+02  1.56218E+04 -9.49391E+03  7.33101E+03 -1.41397E+04 -3.40396E+03
 -1.06347E+04 -1.29718E+04 -6.79329E+02 -1.73663E+04  7.81188E+03 -1.46289E+04  1.50543E+04 -5.97141E+03
  1.44406E+04  3.50695E+02  9.82090E+03  3.76766E+03  4.59950E+03  4.78479E+02  7.13081E+03 -4.10916E+02
  1.21813E+04  2.27930E+03  1.33519E+04  1.26079E+04  7.16173E+03  2.34049E+04 -2.60578E+03  2.47800E+04
 -1.50980E+04  1.85675E+04 -2.17243E+04  8.02625E+03 -2.37399E+04 -1.54862E+03 -1.96541E+04 -1.25947E+04
 -1.01178E+04 -1.91569E+04  6.13487E+03 -1.88592E+04  1.55079E+04 -1.07316E+04  1.37388E+04  4.11938E+03
  5.94174E+03  1.01106E+04 -7.28240E+03  9.40667E+03 -1.27737E+04  2.73796E+03 -9.26113E+03 -7.31975E+03
 -1.29577E+03 -1.20565E+04  6.45735E+03 -8.94006E+03  8.36393E+03 -1.65106E+03  7.74558E+02  3.51654E+03
 -5.95569E+03  2.24450E+03 -2.70406E+03 -5.43532E+03  8.81711E+02 -9.23553E+03  7.64413E+03 -9.61628E+03
  1.07798E+04 -4.45582E+03  1.22700E+04  2.16351E+03  9.61015E+03  8.41222E+03  4.54269E+03  1.31253E+04
 -2.06772E+03  1.42750E+04 -8.71268E+03  8.80760E+03 -1.05076E+04  2.22362E+03 -7.78274E+03 -1.29992E+03
 -4.76247E+03 -3.65016E+03  2.35474E+02  1.64753E+03 -2.52455E+03  1.24598E+03 -2.71303E+03  3.25619E+03
 -7.54068E+03 -1.77917E+03 -7.41268E+03 -6.41550E+03 -3.49607E+03 -1.04835E+04  3.47593E+03 -7.58963E+03
  6.98552E+03 -4.86779E+03  4.54349E+03  8.29766E+02  2.85856E+02  3.10439E+03 -3.01095E+03 -3.15857E+02
 -3.52064E+03 -4.22610E+03 -1.56700E+03 -6.55554E+03  3.41675E+03 -7.69212E+03  9.06179E+03 -4.07306E+03
  1.06270E+04  1.17805E+03  8.73137E+03  5.85390E+03  2.56071E+03  8.10371E+03 -5.06450E+03  8.09425E+03
 -6.52074E+03  2.80392E+03 -3.46125E+03 -1.10583E+03  1.43064E+03 -2.19116E+03  4.15615E+03 -1.99204E+03
  3.97086E+03  2.91862E+03  1.29775E+03  6.35004E+03 -5.61157E+03  4.98014E+03 -7.08793E+03  2.35516E+03
 -4.66695E+03 -2.99644E+03  3.82641E+02 -7.17535E+03  2.70091E+03 -1.95663E+03  3.26293E+03  5.63968E+02
 -4.62482E+01  2.31093E+03 -4.13255E+03  3.71333E+03 -5.46419E+03  2.28147E+03 -4.31151E+03 -1.17302E+03
 -3.61101E+03 -5.27130E+03  1.57975E+03 -6.53519E+03  5.90204E+03 -2.85786E+03  5.85834E+03  1.58205E+03
  4.29976E+03  5.38341E+03 -1.06617E+03  6.68833E+03 -5.03558E+03  3.28517E+03 -4.18479E+03 -1.07487E+02
 -4.97296E+03 -4.48544E+03 -1.54226E+03 -4.06155E+03  2.09935E+03 -3.73786E+03  1.86337E+03 -2.28156E+03
  2.96020E+03  6.69640E+02 -2.35178E+02  5.40884E+01  8.98872E+02 -3.48969E+02 -8.31072E+02 -1.98667E+03
  2.54385E+03 -4.92266E+02  4.61876E+03  6.64230E+02  3.88163E+03  2.63126E+03  5.01712E+03  6.56614E+03
 -1.40886E+03  6.77252E+03 -7.56566E+03  7.02549E+03 -8.51266E+03  1.19494E+03 -7.78667E+03 -2.74646E+03
 -3.15689E+03 -5.98979E+03 -9.15379E+02 -4.45099E+03  2.23859E+03 -9.19153E+02  1.83497E+03 -1.72935E+03
  1.28510E+03 -1.32551E+03  2.32621E+03 -1.72083E+03  3.17057E+03 -1.68506E+03  3.25399E+03  5.80181E+02
  4.46373E+03  1.11876E+03  1.97817E+03  2.56519E+03 -4.98175E+02  2.94133E+03 -3.02960E+03  1.61679E+03
 -4.19453E+03 -7.00447E+02 -1.78315E+03 -3.11133E+03  8.76623E+02 -4.16770E+03  2.13218E+03 -4.52667E+03
  4.09703E+03 -3.57626E+03  6.61758E+03  2.94376E+02  4.99477E+03  4.59913E+03  1.02482E+03  5.11339E+03
 -1.84936E+03  6.18611E+03 -4.16005E+03  1.84938E+03 -1.93890E+03 -1.52726E+03 -1.06330E+03 -4.19896E+02
 -1.52795E+03  1.27343E+03 -7.03472E+02  2.29811E+03 -2.68847E+03  8.95379E+02 -3.59758E+03 -2.13066E+02
 -4.64431E+02 -3.11028E+03  2.03729E+02 -3.96939E+03  2.14554E+03 -4.35357E+03  2.46743E+03 -9.33601E+02
  4.75178E+03  2.35384E+03  1.48467E+03  2.72585E+03 -1.60254E+02  3.78750E+03 -1.69367E+03  1.48520E+03
 -4.49010E+03  5.82885E+02 -3.79866E+03 -1.88306E+03  5.40615E+01 -2.50944E+03  1.76987E+03 -1.68611E+03
  1.29703E+03 -2.27046E+03  1.75178E+03  6.99855E+02  5.71712E+02  1.92523E+03  6.62295E+01  1.60918E+00
  1.35018E+03  5.57098E+02  1.66040E+03  2.62365E+02  8.00818E+01  2.55025E+03  1.28956E+03  7.32857E+02
 -8.20521E+02  2.81703E+03 -1.50596E+03  3.85954E+03 -2.93683E+03  5.95415E+01 -3.30901E+03 -1.36552E+03
 -1.51327E+03 -3.39817E+03  4.42215E+02 -3.77787E+03  1.41424E+03 -3.68050E+03  3.35193E+03 -1.29427E+03
  2.56570E+03  2.08023E+03 -5.51200E+02  3.03211E+03 -1.34161E+03  5.64934E+02 -7.23449E+02 -3.14484E+02
 -6.09344E+02 -1.76432E+03  6.55340E+02 -8.25229E+01  1.08299E+03 -1.40359E+03  5.21487E+02 -2.12007E+02
  1.01095E+03  9.50800E+02  1.24515E+03  4.30506E+02 -3.45944E+02  7.36102E+02  1.31736E+03 -4.78033E+02
 -8.48285E+02 -6.73215E+02  2.38532E+03  8.52154E+02  4.90382E+02  2.39482E+03  9.55572E+01  2.68209E+03
 -1.78230E+03  1.38577E+03 -3.70248E+03 -5.34772E+02 -1.77991E+03 -1.48075E+03 -8.14658E+02 -9.40201E+02
  1.02374E+03 -4.40362E+02  9.70612E+02 -1.24805E+03  2.57673E+02  9.45096E+02 -1.04175E+03  2.25015E+03
 -1.35928E+03  1.73294E+03 -7.13889E+02 -2.19635E+03 -6.93139E+01 -1.43639E+03 -3.28122E+02 -7.94407E+02
  4.78497E+02 -3.11229E+02 -7.00854E+02 -4.81586E+02  1.54571E+03 -6.47255E+02  4.89345E+02  5.19701E+02
 -1.53827E+02  3.43702E+02 -5.17688E+02 -2.91324E+02  5.96626E+02  1.68511E+02  2.18766E+03 -8.89271E+02
  8.51111E+02 -1.05057E+03  2.08136E+03  7.19759E+02  1.13694E+03  1.21532E+03 -1.41943E+02  1.75183E+03
 -3.23736E+02  5.09713E+02 -1.57670E+03 -6.67728E+02  1.67035E+02 -5.55095E+02 -2.35780E+02  5.46041E+01
  9.77968E+02 -7.44892E+02  1.71553E+03  8.82726E+02 -8.23775E+02  1.14761E+03  1.13669E+03  1.61888E+03
 -9.76362E+01  1.86851E+03 -4.27834E+02 -6.10183E+02  3.29081E+01  7.71209E+02  4.32390E+02  6.35579E+02
 -7.66039E+02  6.82397E+02 -1.40183E+03  1.07698E+03 -1.79547E+03  6.64282E+02 -2.62047E+03  3.73862E+01
 -1.50732E+03 -2.73889E+03  9.63454E+02 -2.05539E+03  8.73276E+02 -2.63209E+03  2.01601E+03 -2.29308E+03
  1.28523E+03 -4.99014E+02  1.47039E+03  8.19606E+02 -7.23918E+02  1.18747E+03 -9.82413E+02  1.00934E+03
 -1.22381E+03  3.89410E+02  8.37029E+01 -7.66322E-01 -3.65040E+02 -6.02190E+02 -9.72286E+02 -1.35996E+03
 -9.46006E+02  1.39121E+02 -1.04501E+03  1.32827E+03 -4.39818E+02  7.36295E+02 -5.05030E+02  3.16709E+02
  1.55961E+03 -7.42095E+02  8.98862E+02 -3.22044E+02  2.70328E+03  1.23801E+03 -1.35625E+03  1.53005E+03
  1.47575E+02  1.97545E+03 -1.87606E+03  1.08610E+03 -1.74736E+03  2.41315E+02 -1.12588E+03 -6.96818E+02
 -7.70957E+02 -4.41800E+02  1.55183E+03 -3.33696E+02  9.15948E+02 -5.54839E+02  2.16454E+02  4.05563E+02
  5.30003E+02  5.60960E+02  6.12326E+02  8.39576E+02  2.61046E+02 -9.92859E+02  1.90534E+02 -2.41893E+01
  5.12236E+02  3.84714E+02  1.81478E+02  1.07286E+02  6.30998E+02  8.16705E+02  2.58754E+02  1.25235E+03
 -5.56975E+02  3.86694E+02 -1.47920E+03  5.93203E+01 -1.01924E+03 -6.59204E+02 -1.00141E+03 -1.12121E+03
  4.69397E+02 -4.21216E+02  7.06048E+02 -2.10568E+02  7.28881E+02  1.71970E+02  1.35693E+03  4.47039E+02
  6.23481E+02  5.86416E+02 -1.55019E+02  7.62989E+02 -2.56155E+02  5.30395E+02 -1.09582E+03  6.24445E+01
  5.19737E+02 -4.42251E+02  5.55381E+02 -1.28251E+03 -5.10582E+02  5.53344E+02 -9.82056E+02 -7.06388E+02
 -4.71250E+02 -8.19204E+01 -5.34048E+02 -1.24181E+03  6.61177E+02 -1.57976E+03  1.01206E+03 -5.60484E+01
  2.25069E+01 -2.99947E+02  6.14168E+02  3.83407E-01  8.24158E+02  8.01578E+02 -4.31799E+02  8.32537E+02
