 $NMID ID='MM_0lb_SNR200_8hz_g45_85.RAW', FMTDAT='(8E13.5)'
 TRAMP=1., VOLUME=1. $END
  3.09641E+05  1.36146E+03  3.37440E+05  2.51513E+05  8.53185E+04  3.38811E+05 -1.33277E+05  2.49627E+05
 -1.91356E+05  8.24536E+04 -1.13599E+05 -3.25900E+04  2.11783E+02 -5.16369E+04  5.25062E+04 -1.79561E+03
  3.66028E+04  5.25618E+04 -1.65920E+04  7.42379E+04 -6.07574E+04  6.34875E+04 -8.52889E+04  3.25416E+04
 -8.26339E+04 -1.30418E+04 -5.91313E+04 -5.16927E+04 -1.63301E+04 -7.15050E+04  3.01874E+04 -4.68476E+04
  4.19862E+04  2.51167E+03  1.61162E+04  4.79716E+04 -3.53777E+04  4.81248E+04 -6.80004E+04  1.47817E+02
 -5.55592E+04 -5.80735E+04 -7.31454E+03 -7.66539E+04  3.40054E+04 -5.74238E+04  4.99322E+04 -1.52324E+04
  4.48900E+04  1.07707E+04  3.24129E+04  2.84421E+04  1.56234E+04  3.12859E+04 -5.30144E+03  2.82800E+04
 -2.45734E+04  1.24927E+04 -1.86018E+04 -7.13859E+03  6.75538E+03 -7.16679E+03  2.21258E+04  1.44995E+04
  6.11909E+03  3.81562E+04 -3.40465E+04  3.62145E+04 -6.62783E+04  3.27435E+03 -5.82587E+04 -4.43024E+04
 -1.04198E+04 -6.41993E+04  4.25038E+04 -4.69720E+04  6.23728E+04 -2.72982E+03  3.73041E+04  3.42976E+04
 -7.20876E+03  3.94276E+04 -3.25997E+04  1.88369E+04 -3.24031E+04 -2.49112E+03 -2.17015E+04 -1.32175E+04
 -7.75596E+03 -1.57120E+04  4.63847E+02 -2.00027E+04  8.38588E+03 -2.34814E+04  1.56283E+04 -1.13552E+04
  1.04503E+04  8.21949E+03 -1.08104E+04  1.25951E+04 -2.46466E+04 -7.21405E+03 -8.58329E+03 -3.81280E+04
  2.54352E+04 -4.72335E+04  5.20477E+04 -2.05119E+04  4.85383E+04  2.19470E+04  1.80011E+04  4.93878E+04
 -1.50122E+04  3.58854E+04 -2.71060E+04  1.54049E+03 -1.15634E+04 -2.89822E+04  2.19626E+04 -3.55780E+04
  4.28614E+04 -1.20226E+04  4.02343E+04  2.62807E+04  2.09749E+04  5.07920E+04 -8.37872E+03  5.79816E+04
 -3.61008E+04  3.77365E+04 -4.92852E+04  1.19337E+04 -4.75072E+04 -1.86418E+04 -2.66313E+04 -4.19971E+04
  5.83730E+03 -4.22061E+04  3.46032E+04 -1.66183E+04  3.13867E+04  9.59686E+03  5.68215E+03  2.16156E+04
 -1.40554E+04  9.61697E+03 -1.35029E+04 -8.14245E+03  6.29781E+03 -1.14281E+04  1.92038E+04  4.99568E+03
  1.64692E+04  2.19707E+04 -6.61294E+03  2.86186E+04 -2.24693E+04  1.56679E+04 -3.02501E+04 -3.55784E+03
 -2.62065E+04 -1.88439E+04 -1.19930E+04 -2.54456E+04  5.05675E+03 -2.58078E+04  2.09008E+04 -2.41480E+04
  3.26104E+04 -1.48993E+04  3.88927E+04  5.76251E+03  2.65484E+04  2.52347E+04  4.60570E+03  4.15414E+04
 -1.97608E+04  3.45732E+04 -3.27862E+04  1.20346E+04 -2.14407E+04 -1.09822E+04 -4.87010E+03 -1.27591E+04
 -5.95727E+02 -1.76826E+03 -7.80869E+03  8.02008E+03 -2.18206E+04  6.31183E+03 -1.98713E+04 -9.32873E+03
 -1.24217E+04 -2.38763E+04  6.42741E+03 -2.74316E+04  1.91476E+04 -2.13960E+04  2.36602E+04 -7.55371E+02
  1.25559E+04  1.67005E+04 -1.61463E+03  2.43847E+04 -1.74039E+04  1.26403E+04 -2.33596E+04 -4.32265E+03
 -1.79452E+04 -1.96715E+04 -1.42474E+03 -2.89488E+04  1.34365E+04 -2.20128E+04  2.50271E+04 -1.33665E+04
  2.30219E+04 -7.24528E+02  1.68482E+04  4.43906E+03  7.42706E+03  1.12386E+03  1.34520E+04 -2.21214E+03
  2.23842E+04  1.64503E+03  2.64645E+04  1.97513E+04  1.75971E+04  3.78334E+04 -3.91644E+03  4.69654E+04
 -2.79134E+04  3.76295E+04 -4.44335E+04  1.92951E+04 -4.63235E+04 -3.35387E+03 -3.66841E+04 -2.73936E+04
 -1.50595E+04 -3.78349E+04  1.22828E+04 -3.36150E+04  2.89332E+04 -1.51392E+04  2.47506E+04  7.89298E+03
  8.78532E+03  1.93907E+04 -1.15322E+04  1.61730E+04 -1.82804E+04  4.28374E+03 -1.61740E+04 -1.34433E+04
 -1.29257E+03 -1.79370E+04  1.20632E+04 -1.56590E+04  1.36567E+04 -1.05768E+03  4.76431E+03  9.61740E+03
 -9.61620E+03  4.07735E+03 -8.24257E+03 -8.59464E+03 -1.69297E+03 -1.70265E+04  1.34754E+04 -2.07101E+04
  2.36146E+04 -1.30634E+04  2.75543E+04  3.47470E+03  2.37537E+04  1.87046E+04  1.12053E+04  3.03475E+04
 -5.10011E+03  3.24755E+04 -2.06235E+04  1.80598E+04 -2.46392E+04  3.56277E+03 -1.61451E+04 -7.01842E+03
 -5.69580E+03 -8.07466E+03 -1.23514E+03  6.16219E+02 -2.64529E+03  3.83891E+03 -9.06166E+03  6.15959E+03
 -1.64588E+04  2.80658E+02 -1.60448E+04 -1.25426E+04 -7.19441E+03 -2.05358E+04  5.99267E+03 -1.58559E+04
  1.17380E+04 -7.08914E+03  1.04042E+04  4.60321E+03 -1.38193E+03  7.04290E+03 -9.38480E+03 -7.94028E+02
 -9.24030E+03 -1.10343E+04 -1.42227E+03 -1.74372E+04  9.45056E+03 -1.70009E+04  2.12597E+04 -1.03143E+04
  2.43517E+04  1.28402E+03  1.87528E+04  1.54084E+04  4.25805E+03  2.03255E+04 -9.19125E+03  1.78090E+04
 -1.33422E+04  5.13526E+03 -6.13232E+03 -3.39755E+03  2.81683E+03 -6.39980E+03  8.89656E+03 -7.98333E+02
  7.16386E+03  6.86034E+03  1.30454E+03  1.38788E+04 -9.57276E+03  1.20514E+04 -1.47606E+04  2.20578E+03
 -1.18340E+04 -8.63984E+03 -5.42566E+02 -1.11715E+04  8.11385E+03 -7.13972E+03  9.08543E+03  4.54906E+03
  1.95226E+03  1.00122E+04 -8.58379E+03  1.23410E+04 -1.35088E+04  4.29795E+03 -1.37813E+04 -5.01598E+03
 -7.98225E+03 -1.73032E+04  3.67155E+03 -1.87482E+04  1.78661E+04 -1.25032E+04  1.71849E+04  3.46203E+03
  9.50300E+03  1.47812E+04 -9.65996E+02  1.59507E+04 -1.21504E+04  1.01114E+04 -1.50902E+04 -5.13052E+02
 -1.25563E+04 -1.11720E+04 -2.33978E+03 -1.17416E+04  5.23854E+03 -1.09399E+04  9.03115E+03 -2.31486E+03
  4.67601E+03  1.69892E+03 -9.70276E+02  2.89071E+03 -1.10867E+03 -2.81478E+03  4.11569E+03 -5.81283E+03
  1.06077E+04 -5.25119E+03  1.73023E+04  2.95159E+03  1.57839E+04  1.39828E+04  1.00676E+04  2.20512E+04
 -5.36126E+03  2.53904E+04 -2.15575E+04  1.67936E+04 -2.74069E+04  3.62064E+03 -2.30011E+04 -1.08443E+04
 -8.95206E+03 -1.84665E+04 -5.13475E+02 -1.49721E+04  6.11430E+03 -9.43568E+03  4.72906E+03 -5.82875E+03
  5.18643E+03 -2.30730E+03  5.60581E+03 -4.08769E+03  5.74324E+03 -4.60944E+03  9.25486E+03  2.90798E+02
  1.15727E+04  3.13214E+03  6.63481E+03  1.10023E+04 -3.18286E+03  1.39255E+04 -1.00652E+04  9.19486E+03
 -1.48755E+04 -1.34041E+03 -9.49865E+03 -1.03627E+04 -1.99263E+03 -1.61916E+04  8.83280E+03 -1.79106E+04
  1.79507E+04 -9.98713E+03  2.15735E+04  4.37477E+03  1.55832E+04  1.42193E+04  3.68079E+03  1.84840E+04
 -8.41685E+03  1.57530E+04 -9.37664E+03  6.78501E+03 -7.42101E+03 -9.80411E+02 -2.03427E+03 -2.56106E+03
 -1.82556E+03 -1.99235E+03 -4.08797E+03  2.75400E+03 -5.47336E+03  2.93307E+03 -1.00485E+04 -2.02723E+03
 -8.63735E+03 -1.05137E+04 -2.00410E+03 -1.56136E+04  1.00263E+04 -1.57657E+04  1.64867E+04 -3.16808E+03
  1.51488E+04  8.10003E+03  7.59882E+03  1.48475E+04 -4.35638E+03  1.66568E+04 -1.15379E+04  1.01096E+04
 -1.46437E+04  7.85226E+02 -1.15106E+04 -8.69715E+03 -7.30995E+02 -1.36900E+04  8.40307E+03 -1.03370E+04
  9.22940E+03 -3.13493E+03  6.60822E+03  3.39599E+02  1.43869E+03  5.58916E+03  1.63019E+03  6.89335E+02
  6.38612E+02  1.01353E+03  4.49691E+03  4.00684E+03  6.22435E+03  6.13021E+03  3.28215E+03  7.73858E+03
 -2.68214E+03  1.32166E+04 -1.33247E+04  1.41442E+04 -1.71276E+04  4.21324E+03 -1.82048E+04 -5.27624E+03
 -8.03829E+03 -1.65471E+04  1.41275E+03 -1.87624E+04  1.13083E+04 -1.05455E+04  1.36782E+04 -1.32551E+03
  9.71749E+03  7.18157E+03  1.73455E+03  1.05897E+04 -4.78657E+03  7.45092E+03 -7.91351E+03 -1.78300E+03
 -2.60201E+03 -5.03968E+03  3.56277E+03 -7.28791E+03  5.94687E+03 -2.08114E+03  7.00818E+03  2.40455E+03
  3.11822E+03  2.98528E+03  9.20074E+02  1.64949E+03 -1.19167E+03  3.30629E+03  2.65112E+03 -1.07699E+03
  3.12542E+03 -1.37299E+03  7.56634E+03  2.80777E+03  4.10090E+03  6.98621E+03 -4.27979E+02  1.23220E+04
 -6.70715E+03  8.90887E+03 -1.03526E+04  2.21346E+03 -7.96606E+03 -4.68501E+03 -3.90942E+03 -7.03835E+03
  6.98212E+02 -6.80352E+03  4.34899E+03 -3.93792E+03  4.83750E+03  3.33569E+03 -2.02943E+03  5.93606E+03
 -4.78149E+03  3.13356E+03 -8.36992E+03 -3.97518E+03 -4.41020E+03 -8.98606E+03  1.25322E+03 -1.06281E+04
  6.26549E+03 -3.92996E+03  8.09789E+03 -5.07121E+02  6.17499E+03  3.02940E+03  2.63133E+03  5.52686E+03
 -3.37987E+03  2.25812E+02 -3.23416E+03 -3.39506E+03  4.28445E+02 -6.64470E+03  7.22469E+03 -6.95257E+03
  1.07858E+04  4.43196E+02  1.02910E+04  9.41533E+03  4.42281E+03  1.15794E+04 -4.55565E+03  9.90055E+03
 -9.12942E+03  7.58554E+03 -9.45780E+03 -5.99583E+02 -6.57627E+03 -7.43885E+03  1.22890E+03 -6.81591E+03
  6.37740E+03 -3.42433E+03  5.81724E+03  2.48533E+03  2.51176E+03  5.56790E+03 -6.44052E+02  4.87667E+03
 -3.07993E+03  2.11187E+03 -3.83247E+03  2.75910E+03 -2.20289E+03  4.08923E+03 -6.95575E+01  3.56224E+03
 -2.82621E+03  3.51793E+03 -7.23210E+03  4.45398E+03 -1.18615E+04  1.51890E+03 -1.26262E+04 -7.50499E+03
 -5.12479E+03 -1.40804E+04  2.20164E+03 -1.74823E+04  8.02350E+03 -1.29460E+04  1.72164E+04 -4.76018E+03
  1.57005E+04  3.44173E+03  9.53490E+03  1.03603E+04  1.81539E+02  1.17959E+04 -5.00451E+03  9.41610E+03
 -8.18039E+03  3.69892E+03 -4.69373E+03 -2.11942E+03 -4.63138E+02 -1.06069E+03 -1.71449E+03 -1.75721E+03
 -1.05668E+03  7.38740E+02 -7.88927E+02 -3.89639E+02 -1.13331E+03 -4.28894E+03  9.54824E+02 -5.37833E+03
  4.47114E+03 -3.55428E+03  8.25812E+03 -2.30642E+02  7.60274E+03  5.30793E+03  3.07255E+03  1.23225E+04
 -7.59407E+03  1.40900E+04 -1.24428E+04  7.48551E+03 -1.51174E+04 -7.04484E+02 -1.09096E+04 -8.48072E+03
 -3.86858E+03 -1.29831E+04  2.48929E+03 -1.06941E+04  8.24922E+03 -5.27713E+03  8.73915E+03 -1.51136E+02
  5.06593E+03  4.27370E+03 -1.19051E+03  2.92920E+03 -2.95872E+03 -1.75778E+03  2.60694E+02 -4.49352E+03
  4.20265E+03 -1.68078E+03  5.96192E+03  3.18720E+03  4.59344E+03  5.56894E+03 -3.82021E+02  6.85038E+03
 -6.39962E+03  6.08800E+03 -6.90429E+03  1.31882E+03 -7.12023E+03 -6.89124E+03 -2.12462E+03 -1.12456E+04
  6.81198E+03 -9.64983E+03  8.50482E+03 -2.44490E+03  7.00336E+03  3.05066E+03  6.50249E+03  8.60614E+03
  2.96019E+03  7.39805E+03 -5.02430E+03  7.68964E+03 -5.22655E+03  3.67325E+03 -4.59251E+03 -1.87935E+02
 -2.05860E+03  1.52915E+02 -3.04028E+03  1.42030E+03 -4.47123E+03  4.84051E+02 -7.03162E+03  4.34059E+02
 -4.69064E+03 -3.90203E+03 -1.23838E+03 -8.56425E+03  2.13863E+03 -9.71405E+03  7.05121E+03 -4.43286E+03
  7.97944E+03  9.22925E+02  6.06964E+03  5.88821E+03 -1.45898E+03  6.98975E+03 -5.07958E+03  5.26466E+03
