 $NMID ID='MM_0lb_SNR200_20hz_g40_43.RAW', FMTDAT='(8E13.5)'
 TRAMP=1., VOLUME=1. $END
  3.10803E+05  1.08897E+03  3.37784E+05  2.50774E+05  8.37911E+04  3.37426E+05 -1.32195E+05  2.50090E+05
 -1.89336E+05  8.22022E+04 -1.11482E+05 -3.21374E+04  1.81151E+03 -5.07127E+04  5.30534E+04  4.83290E+02
  3.54154E+04  5.23746E+04 -1.76121E+04  7.47921E+04 -6.07426E+04  6.23058E+04 -8.26009E+04  3.14649E+04
 -7.83061E+04 -1.13828E+04 -5.51919E+04 -4.93170E+04 -1.54653E+04 -6.73004E+04  2.62060E+04 -4.41088E+04
  3.86758E+04  3.97704E+03  1.60874E+04  4.66930E+04 -3.36040E+04  4.57322E+04 -6.44561E+04 -9.57030E+02
 -5.11739E+04 -5.52728E+04 -6.06804E+03 -7.44155E+04  3.32351E+04 -5.20506E+04  4.42949E+04 -1.48660E+04
  4.07571E+04  1.13949E+04  2.97504E+04  2.37492E+04  1.62017E+04  2.73284E+04 -4.22431E+03  2.65095E+04
 -2.20814E+04  1.27041E+04 -1.93073E+04 -4.47530E+03  3.60033E+03 -7.18708E+03  1.99032E+04  1.05797E+04
  7.21405E+03  3.16783E+04 -2.97336E+04  3.24832E+04 -6.00225E+04  2.01329E+03 -5.40103E+04 -3.89760E+04
 -1.21752E+04 -5.98460E+04  3.81259E+04 -4.23732E+04  5.32848E+04 -1.83607E+03  3.19415E+04  2.98197E+04
 -7.38254E+03  3.21742E+04 -2.77235E+04  1.13596E+04 -2.59773E+04 -5.54535E+03 -1.28101E+04 -9.28997E+03
 -7.35569E+03 -1.02034E+04 -1.49694E+03 -1.66615E+04  6.29988E+03 -2.13494E+04  1.47674E+04 -1.47583E+04
  1.30112E+04  3.29089E+03 -4.26117E+03  1.34416E+04 -1.91500E+04 -8.78006E+02 -8.42215E+03 -3.00463E+04
  1.89166E+04 -3.84120E+04  4.35051E+04 -1.76746E+04  4.02638E+04  1.76404E+04  1.48266E+04  4.00105E+04
 -1.45951E+04  2.98489E+04 -2.33186E+04  7.05429E+02 -6.99265E+03 -2.55579E+04  1.98555E+04 -2.99127E+04
  3.66134E+04 -6.37228E+03  2.90371E+04  2.14638E+04  1.49307E+04  4.02715E+04 -8.42239E+03  4.33432E+04
 -2.68189E+04  2.74749E+04 -3.35423E+04  7.94873E+03 -3.57935E+04 -1.42205E+04 -1.98242E+04 -3.36220E+04
  6.28474E+03 -3.17403E+04  2.87871E+04 -1.16249E+04  2.62302E+04  1.15866E+04  1.83970E+03  1.72542E+04
 -1.33611E+04  6.98860E+03 -9.83839E+03 -7.46038E+03  6.81489E+03 -1.02905E+04  1.74950E+04  6.60091E+03
  1.25314E+04  2.14920E+04 -6.36161E+03  2.32657E+04 -2.11313E+04  7.68831E+03 -2.39111E+04 -7.71230E+03
 -1.37487E+04 -1.60233E+04 -4.83144E+03 -1.51961E+04  3.23421E+03 -1.24477E+04  1.14013E+04 -1.27923E+04
  1.75445E+04 -1.08651E+04  2.67550E+04 -4.96973E+02  2.03976E+04  1.40489E+04  4.98585E+03  2.98526E+04
 -1.59818E+04  2.59103E+04 -2.44995E+04  8.21053E+03 -1.93901E+04 -1.09198E+04 -4.08225E+03 -1.49345E+04
  2.78248E+03 -4.60056E+03 -1.69853E+03  5.11988E+03 -9.81893E+03  4.67907E+03 -1.19278E+04 -4.29874E+03
 -7.81470E+03 -1.45904E+04  4.63813E+03 -1.71104E+04  1.16786E+04 -1.35437E+04  1.23306E+04 -1.93733E+03
  8.50981E+03  9.41189E+03 -1.39938E+03  1.37481E+04 -9.14563E+03  7.38846E+03 -1.36391E+04 -3.39371E+03
 -1.13176E+04 -1.30918E+04 -1.09822E+03 -1.65555E+04  7.68855E+03 -1.26201E+04  1.47207E+04 -6.04613E+03
  1.31406E+04  5.40428E+02  9.63140E+03  3.84520E+03  4.49953E+03 -1.14654E+02  7.20979E+03 -1.36153E+03
  1.17793E+04  2.75391E+03  1.32214E+04  1.22783E+04  7.57672E+03  2.18571E+04 -2.02610E+03  2.33555E+04
 -1.28094E+04  1.67836E+04 -2.12251E+04  8.45842E+03 -2.13891E+04 -1.69680E+03 -1.94858E+04 -1.30715E+04
 -9.72732E+03 -1.73754E+04  5.48364E+03 -1.79047E+04  1.39733E+04 -9.61570E+03  1.52150E+04  3.34843E+03
  5.34475E+03  1.13382E+04 -6.96548E+03  9.84936E+03 -1.22063E+04  2.52876E+03 -8.78049E+03 -7.08081E+03
  4.06082E+01 -1.14381E+04  4.89796E+03 -8.98483E+03  7.07936E+03 -1.46668E+03  1.59805E+03  4.72060E+03
 -5.02162E+03  1.21941E+03 -3.16000E+03 -3.40013E+03  1.64928E+03 -8.22891E+03  6.87757E+03 -8.03715E+03
  1.11270E+04 -3.41054E+03  8.75335E+03  2.74719E+03  7.90038E+03  7.79426E+03  4.25443E+03  1.23579E+04
 -8.50904E+02  1.38171E+04 -7.66595E+03  9.10559E+03 -9.19913E+03  2.85806E+03 -6.29500E+03 -1.61460E+03
 -4.63093E+03 -2.11381E+03 -1.17255E+02  2.26541E+03 -1.47563E+03  1.89611E+03 -1.72252E+03  2.75206E+03
 -7.84908E+03 -3.93996E+02 -6.92568E+03 -7.00555E+03 -2.75641E+03 -1.04211E+04  2.36806E+03 -7.10485E+03
  5.73603E+03 -3.56772E+03  4.46606E+03  2.21211E+03  1.09377E+03  3.29187E+03 -3.50727E+03 -3.67693E+02
 -2.15796E+03 -3.84952E+03 -1.14608E+03 -6.66998E+03  2.95717E+03 -6.89483E+03  8.73731E+03 -4.24316E+03
  1.05073E+04  1.02389E+02  7.44570E+03  5.13444E+03  1.23267E+03  7.30263E+03 -3.95270E+03  7.00417E+03
 -6.34895E+03  1.72570E+03 -3.78160E+03 -5.26134E+02  1.07887E+03 -1.20171E+03  4.68284E+03 -2.03700E+02
  4.81356E+03  3.64463E+03  6.86209E+02  4.86914E+03 -3.05044E+03  4.84258E+03 -6.52739E+03  9.01297E+02
 -4.39180E+03 -3.00495E+03  6.77838E+02 -5.95281E+03  3.81727E+03 -2.86008E+03  1.94437E+03  3.94750E+02
 -5.13631E+02  3.08564E+03 -5.18862E+03  3.37440E+03 -3.75473E+03  1.31898E+03 -4.00934E+03  3.25603E+02
 -1.43711E+03 -3.91798E+03  1.21605E+03 -5.70958E+03  4.80331E+03 -4.24803E+03  5.73967E+03  6.66156E+02
  4.43186E+03  4.24225E+03 -1.12460E+02  6.81178E+03 -3.99705E+03  4.33114E+03 -4.15350E+03  1.59122E+02
 -6.26047E+03 -4.16952E+03 -1.20415E+03 -3.95426E+03  2.09735E+03 -5.18356E+03  2.78816E+03 -3.25956E+03
  3.02991E+03  3.38060E+02 -9.36005E+02  1.66727E+03  6.92077E+02  1.98177E+02  4.34257E+02 -1.46417E+03
  2.99283E+03  6.29198E+02  2.91184E+03  9.68727E+02  5.03486E+03  2.38219E+03  5.16654E+03  5.69867E+03
 -4.32804E+02  6.04736E+03 -6.18498E+03  5.99882E+03 -9.20017E+03  4.70421E+02 -6.81369E+03 -1.36199E+03
 -3.45557E+03 -5.16102E+03 -3.90035E+02 -4.04572E+03  2.41449E+03 -1.60908E+03  1.23626E+03 -1.10905E+03
 -1.30084E+02 -1.64795E+03  1.64330E+03 -2.57499E+03  2.92113E+03 -1.57485E+03  1.90373E+03  8.18136E+02
  3.97027E+03  3.44618E+02  7.32357E+02  3.35570E+03 -1.59619E+03  2.04105E+03 -3.40848E+03  1.97139E+03
 -3.70297E+03 -7.88915E+02 -3.81988E+02 -2.43398E+03  8.75027E+02 -4.77687E+03  2.42815E+03 -4.65825E+03
  3.46536E+03 -3.24758E+03  5.04396E+03  3.88488E+02  4.00518E+03  2.73060E+03  2.93564E+02  4.19460E+03
 -1.82380E+03  5.63137E+03 -2.17852E+03  8.10915E+01 -1.29708E+03 -1.21256E+03  7.26847E+02  3.53988E+02
 -4.02152E+02  1.44424E+03 -1.73224E+03  2.33626E+03 -1.83290E+03  1.23108E+03 -3.36782E+03 -1.95100E+02
 -1.15865E+03 -4.02973E+03  7.94995E+02 -3.34548E+03  2.14366E+03 -3.40566E+03  2.24580E+03 -2.43388E+02
  3.14591E+03  2.17070E+03  1.53733E+03  1.94242E+03 -4.71693E+02  3.89768E+03 -2.72018E+03  1.27216E+03
 -2.46356E+03  4.62514E+02 -2.71615E+03 -1.19080E+03  9.40252E+02 -2.45481E+03  4.80999E+02 -1.48653E+03
  1.51547E+03 -5.74233E+02  8.71538E+02  9.35401E+01  1.36135E+02  1.58219E+03 -8.46985E+01 -2.07150E+02
  2.69044E+03 -1.09403E+02  6.51027E+02  8.39276E+02  1.95526E+02  2.68746E+03  1.11986E+03  1.15388E+03
 -1.22250E+03  1.99161E+03 -1.62181E+03  3.79278E+03 -2.73484E+03  5.23216E+02 -3.14752E+03  1.06555E+03
 -8.01954E+02 -2.38237E+03  6.33790E+02 -4.69045E+03  1.80852E+03 -2.12974E+03  3.11293E+03 -5.59218E+02
  1.13544E+03  1.51567E+03  3.04866E+02  1.87149E+03 -2.44754E+02  1.24320E+03  3.45169E+02  1.63223E+02
  3.85523E+02 -1.67242E+03  1.18331E+03 -7.73995E+02  1.48775E+03 -1.60279E+03  9.43415E+02  6.15944E+02
 -1.04064E+03  4.95069E+02  6.28038E+02 -7.27732E+02 -3.94486E+02  5.87207E+02 -1.48930E+02  9.61782E+01
 -1.81837E+02 -1.58264E+03  1.17386E+03 -3.70126E+02  2.88642E+02  2.18996E+03  3.29531E+02  2.83918E+03
 -2.08907E+03  1.58117E+03 -1.41366E+03  3.15714E+02 -1.26081E+03 -5.43138E+02  7.17034E+02 -7.82717E+02
 -5.80647E+01 -1.03000E+03  1.79128E+03  7.07317E+01  5.27054E+02  1.44649E+03 -8.99961E+02  6.39981E+02
 -1.27490E+03 -2.88790E+02 -5.88741E+02 -3.72215E+02  2.23594E+01 -1.24502E+03  4.98134E+02 -4.97161E+02
 -1.78508E+02  3.95733E+02  8.60270E+01 -1.69281E+01  1.75190E+03 -4.43266E+02  2.75597E+02  1.81620E+03
  6.76242E+01 -3.88138E+02 -5.77378E+02  5.01138E+02  6.15253E+02 -1.52361E+02  1.28655E+03 -5.23701E+02
 -3.26115E+01 -1.73580E+02  2.36766E+03  9.40423E+02 -2.41985E+02  2.19178E+03  1.16512E+02  1.45098E+03
 -4.94726E+02 -6.99176E+02 -1.89443E+03 -6.75546E+02 -1.06687E+03 -1.42990E+03 -1.55901E+02 -6.04352E+02
  8.66456E+02 -5.84866E+02  7.75773E+01 -6.65694E+01 -1.88779E+01  1.20629E+03  4.63381E+02  9.21080E+02
 -1.80605E+02  5.17997E+02 -3.42870E+02  5.87585E+01 -3.70055E+02  1.03158E+03 -6.23943E+02  1.16642E+01
 -4.41088E+02  8.51388E+02 -2.34766E+03  2.06825E+02 -1.92341E+03 -7.16694E+02 -2.62787E+03 -4.51802E+02
 -8.39589E+02 -1.17035E+03  9.51509E+02 -1.55033E+03  8.17392E+02 -1.80247E+03  1.69043E+03 -1.05970E+03
  2.65562E+03 -2.32825E+02 -5.54001E+02  1.16014E+03 -1.10147E+03 -3.11304E+02 -5.97248E+01  1.19352E+03
 -2.14553E+02  1.09048E+03 -1.08731E+03 -2.37870E+02 -6.12325E+02  5.06333E+02 -1.48169E+03  1.59037E+02
 -2.02673E+03 -1.07317E+01 -8.81021E+02 -5.89652E+02  4.48734E+02 -1.16369E+03 -2.08016E+02 -1.14245E+03
  1.55245E+03 -2.72772E+02 -7.42718E+02  4.49215E+02 -8.58888E+02  1.21625E+03 -4.48672E+02  1.31352E+03
  1.83702E+01  1.90133E+03 -1.31991E+03  1.29552E+03 -1.36868E+03  3.17498E+02  7.24739E+01 -5.03581E+02
 -1.16495E+03 -2.43358E+03 -2.84296E+01 -9.86077E+02  3.12714E+02 -1.12729E+03  3.75845E+02 -4.43835E+02
 -2.51544E+02  8.58090E+02  7.78599E+02  2.76737E+02 -1.74870E+02 -7.77519E+02  4.47870E+02 -2.92539E+02
  8.86706E+02 -3.31823E+01  1.50997E+01  4.52215E+02  1.11773E+02  7.22420E+02  3.06509E+02 -1.09488E+02
  1.05790E+02  1.08317E+02 -9.93938E+02  7.08438E+02 -1.22079E+03 -3.46685E+02  3.43670E+01 -7.84815E+02
 -2.93831E+01 -1.07264E+03  3.01577E+02 -1.14494E+02  2.87176E+02 -1.13838E+03 -4.57039E+02 -2.40759E+02
  1.00014E+03  3.49404E+02  3.13746E+02  4.84840E+02 -2.07591E+02  2.27512E+03  2.31682E+02 -3.77896E+02
 -8.01078E+02 -1.84315E+02  3.36630E+02 -5.86338E+01  1.44476E+02  7.47276E+02 -8.34816E+02  6.33187E+02
 -1.50837E+03 -2.06748E+02 -6.71135E+02 -2.68876E+02  8.18436E+02 -9.05699E+02  5.93240E+02 -2.16325E+02
 -1.37639E+02 -2.93511E+02 -9.62575E+02  3.43057E+02 -3.40340E+02  1.26957E+03 -7.93113E+02 -2.56338E+02
