 $NMID ID='MM_0lb_SNR200_16hz_g45_97.RAW', FMTDAT='(8E13.5)'
 TRAMP=1., VOLUME=1. $END
  3.09884E+05  8.67501E+02  3.37610E+05  2.49852E+05  8.48177E+04  3.37817E+05 -1.32209E+05  2.51300E+05
 -1.89628E+05  8.22867E+04 -1.11699E+05 -3.30666E+04  1.16080E+03 -5.03480E+04  5.37128E+04 -4.06299E+02
  3.50878E+04  5.26450E+04 -1.78303E+04  7.52692E+04 -6.01533E+04  6.39405E+04 -8.29112E+04  3.23724E+04
 -8.08731E+04 -1.13767E+04 -5.74665E+04 -5.15001E+04 -1.51211E+04 -7.03647E+04  2.78496E+04 -4.50235E+04
  3.87553E+04  4.57594E+03  1.59698E+04  4.67631E+04 -3.31337E+04  4.70149E+04 -6.63174E+04 -2.69002E+02
 -5.22198E+04 -5.65611E+04 -5.97044E+03 -7.61571E+04  3.49184E+04 -5.41751E+04  4.74396E+04 -1.69523E+04
  4.27928E+04  1.13029E+04  3.03499E+04  2.41785E+04  1.55247E+04  2.92816E+04 -4.74723E+03  2.66565E+04
 -2.16428E+04  1.18789E+04 -2.00873E+04 -4.92359E+03  5.72379E+03 -7.77376E+03  2.17405E+04  1.33573E+04
  7.49681E+03  3.40419E+04 -3.10661E+04  3.43371E+04 -6.21492E+04  2.38798E+03 -5.61062E+04 -4.27467E+04
 -1.27918E+04 -6.09226E+04  3.96534E+04 -4.52383E+04  5.64061E+04 -1.76172E+03  3.34072E+04  3.15625E+04
 -6.49747E+03  3.49345E+04 -2.92732E+04  1.39925E+04 -2.95933E+04 -4.19753E+03 -1.49667E+04 -9.75885E+03
 -7.31055E+03 -1.28567E+04 -1.16293E+03 -1.65542E+04  6.40292E+03 -2.24446E+04  1.43341E+04 -1.40366E+04
  1.25035E+04  4.11621E+03 -7.34120E+03  1.31500E+04 -1.97621E+04 -3.13639E+03 -8.30087E+03 -3.21240E+04
  2.19457E+04 -4.18142E+04  4.62371E+04 -1.92399E+04  4.35894E+04  1.87126E+04  1.41663E+04  4.29748E+04
 -1.52837E+04  3.13581E+04 -2.43244E+04  2.11452E+03 -8.63001E+03 -2.76746E+04  1.98564E+04 -3.24549E+04
  3.84444E+04 -8.91450E+03  3.36541E+04  2.32929E+04  1.62115E+04  4.45977E+04 -8.32044E+03  4.71363E+04
 -3.04891E+04  3.03015E+04 -3.96596E+04  7.06494E+03 -4.02902E+04 -1.65750E+04 -2.12696E+04 -3.66336E+04
  6.73846E+03 -3.69424E+04  3.01126E+04 -1.32044E+04  2.70723E+04  1.23438E+04  3.16839E+03  1.81009E+04
 -1.35842E+04  7.28206E+03 -1.00015E+04 -8.28949E+03  6.38409E+03 -9.14918E+03  1.72794E+04  6.30844E+03
  1.24566E+04  2.17605E+04 -6.04249E+03  2.32965E+04 -2.20303E+04  1.01356E+04 -2.60544E+04 -5.88352E+03
 -1.92075E+04 -1.70440E+04 -6.06261E+03 -1.82284E+04  2.93892E+03 -1.67487E+04  1.34576E+04 -1.58053E+04
  2.29941E+04 -1.15714E+04  3.04154E+04  1.62153E+03  2.29587E+04  1.78737E+04  4.50335E+03  3.49766E+04
 -1.77487E+04  2.91411E+04 -2.76276E+04  9.31021E+03 -2.02429E+04 -1.16923E+04 -3.92930E+03 -1.28844E+04
  2.38807E+03 -4.29851E+03 -3.55051E+03  4.94288E+03 -1.36630E+04  4.34265E+03 -1.54170E+04 -7.14859E+03
 -8.96830E+03 -1.61568E+04  4.19936E+03 -2.13200E+04  1.42971E+04 -1.57752E+04  1.53841E+04 -7.09450E+02
  1.04768E+04  1.13397E+04 -2.06905E+03  1.73399E+04 -1.14803E+04  9.41763E+03 -1.74610E+04 -2.43177E+03
 -1.13090E+04 -1.57034E+04 -1.39280E+03 -2.00059E+04  8.77104E+03 -1.63358E+04  1.80983E+04 -8.77225E+03
  1.67597E+04  5.03698E+02  1.21332E+04  3.71206E+03  5.62216E+03  1.30618E+03  8.85293E+03 -1.67753E+03
  1.56721E+04  2.88233E+03  1.66502E+04  1.33299E+04  1.14387E+04  2.66433E+04 -2.65814E+03  2.98055E+04
 -1.71054E+04  2.25660E+04 -2.85073E+04  1.13810E+04 -2.88541E+04 -9.23439E+02 -2.30987E+04 -1.53229E+04
 -1.08420E+04 -2.38708E+04  8.32525E+03 -2.09258E+04  1.90877E+04 -1.16977E+04  1.54534E+04  5.10684E+03
  7.49622E+03  1.28635E+04 -6.68376E+03  1.19769E+04 -1.53000E+04  2.80994E+03 -1.17799E+04 -8.22845E+03
  3.13120E+02 -1.35799E+04  6.80055E+03 -9.65458E+03  9.43144E+03 -1.00104E+03  3.03611E+03  5.32682E+03
 -7.12602E+03  1.17461E+03 -4.89647E+03 -5.16885E+03  1.36221E+03 -1.12860E+04  8.76288E+03 -1.12851E+04
  1.43537E+04 -5.33988E+03  1.48917E+04  3.09301E+03  1.18863E+04  1.14837E+04  7.19319E+03  1.66209E+04
 -3.01822E+03  1.84363E+04 -1.14978E+04  1.28440E+04 -1.35283E+04  2.02378E+03 -9.51732E+03 -1.52683E+03
 -5.43565E+03 -3.82564E+03 -9.42241E+02  8.20299E+02 -2.44957E+03  1.76037E+03 -4.49694E+03  4.45113E+03
 -8.90211E+03 -5.34759E+02 -9.17869E+03 -9.51247E+03 -3.13096E+03 -1.25852E+04  4.56296E+03 -1.03745E+04
  8.04580E+03 -2.72489E+03  4.84411E+03  2.13287E+03  1.09577E+03  3.46063E+03 -3.92419E+03  9.38894E+02
 -3.73649E+03 -5.92151E+03 -1.41795E+03 -8.98287E+03  4.15685E+03 -8.62832E+03  1.16398E+04 -4.33426E+03
  1.39879E+04  4.06102E+02  9.41319E+03  8.01656E+03  1.52963E+03  9.54479E+03 -4.71196E+03  8.85590E+03
 -9.22409E+03  3.36015E+03 -4.34246E+03 -1.87897E+03  2.24403E+03 -1.84663E+03  5.64542E+03 -3.40674E+02
  5.17595E+03  4.01064E+03  9.71663E+02  6.40293E+03 -5.09409E+03  7.31589E+03 -8.97143E+03  2.09595E+03
 -5.57806E+03 -4.79849E+03  1.06183E+03 -7.46734E+03  3.72795E+03 -3.40483E+03  5.20643E+03  1.14019E+03
  1.81762E+03  4.89183E+03 -4.73637E+03  6.67745E+03 -6.23515E+03  1.91664E+03 -6.14474E+03 -2.00333E+03
 -4.27990E+03 -7.48262E+03  1.64647E+03 -8.36230E+03  7.30392E+03 -5.02066E+03  9.08475E+03  8.66490E+02
  5.95908E+03  7.79288E+03 -7.28260E+02  1.00891E+04 -5.20713E+03  4.99799E+03 -7.59578E+03 -6.53003E+02
 -7.22177E+03 -5.49708E+03 -1.28246E+03 -6.29238E+03  3.22827E+03 -5.47419E+03  3.82726E+03 -2.13543E+03
  3.04079E+03  5.69728E+02 -2.66191E+02  1.08118E+03  8.71657E+02 -9.73545E+02  1.12313E+03 -3.29073E+03
  5.22371E+03 -2.44011E+03  7.45538E+03  1.27351E+03  7.69996E+03  4.11220E+03  5.94831E+03  9.10735E+03
 -9.04220E+02  1.00534E+04 -8.90044E+03  8.69748E+03 -1.24683E+04  1.50500E+03 -1.03521E+04 -4.29351E+03
 -5.47020E+03 -8.99967E+03 -4.01487E+02 -7.11868E+03  2.86111E+03 -3.45236E+03  1.85592E+03 -2.61669E+03
  1.99638E+03 -2.06341E+03  2.49104E+03 -2.49555E+03  4.29832E+03 -1.28531E+03  4.56725E+03 -1.56973E+02
  5.39661E+03  1.44813E+03  1.60466E+03  3.36752E+03 -2.36975E+03  4.02481E+03 -6.03262E+03  4.02336E+03
 -6.59403E+03 -1.24884E+03 -3.05651E+03 -4.74654E+03 -9.73415E+02 -6.28003E+03  3.64066E+03 -6.18708E+03
  8.02058E+03 -3.46388E+03  8.49172E+03 -3.01134E+02  6.51387E+03  5.11540E+03  9.63274E+02  6.97834E+03
 -3.23863E+03  6.95679E+03 -5.50229E+03  1.76702E+03 -3.36441E+03 -1.32473E+03 -1.07042E+03 -5.92493E+02
 -1.08811E+02  9.71166E+02 -1.57650E+03  1.68138E+03 -3.36506E+03  1.67568E+02 -4.15269E+03  3.23703E+02
 -1.77348E+03 -4.19547E+03  5.16063E+02 -6.26940E+03  4.84111E+03 -6.23262E+03  6.13005E+03 -1.57200E+03
  5.96267E+03  2.67419E+03  2.24853E+03  5.11374E+03 -6.44043E+02  6.07339E+03 -4.48808E+03  4.48014E+03
 -5.92760E+03  8.33944E+02 -5.29106E+03 -2.95038E+03  4.46949E+02 -5.45762E+03  2.94615E+03 -4.61336E+03
  5.37500E+03 -8.78859E+02  2.80252E+03  3.63046E+02  3.77044E+02  1.45946E+03  8.80857E+02  1.77868E+03
  1.39139E+03  3.81881E+02  2.37873E+03  1.27141E+03  3.19860E+03  2.38533E+03  1.65024E+03  3.83941E+03
 -1.74995E+03  4.96787E+03 -3.44635E+03  5.06556E+03 -5.34947E+03  1.16738E+03 -5.10413E+03 -1.10603E+03
 -2.73717E+03 -4.72763E+03  3.03851E+02 -6.74160E+03  2.69234E+03 -4.06928E+03  4.95672E+03 -6.42671E+02
  4.85271E+03  2.04440E+03 -2.77849E+02  1.96614E+03 -7.47384E+02  1.46696E+03 -5.84376E+02 -7.50387E+02
 -2.08518E+03 -1.58624E+03  6.05985E+02 -1.97091E+03  2.48117E+03 -6.41404E+02  2.89979E+03  6.32163E+02
  1.40343E+03  6.84972E+01  6.37635E+02 -1.43735E+02 -9.63016E+02  7.37745E+02  1.75546E+03 -7.24351E+02
  5.81034E+02 -6.88792E+02  1.58042E+03  4.45311E+02  1.49534E+03  2.17853E+03  3.62445E+02  3.32900E+03
 -3.00634E+03  2.23080E+03 -4.67277E+03 -3.55013E+02 -2.69958E+03 -2.48437E+03  5.99543E+02 -1.47025E+03
  4.94171E+02 -3.89589E+02  7.86544E+02 -5.47482E+02  9.25016E+02  1.85619E+03 -1.13525E+03  1.51195E+03
 -3.20430E+03  3.76236E+02 -2.71023E+03 -9.48426E+01 -8.33865E+02 -3.45107E+03  8.25080E+02 -1.39029E+03
  1.47186E+03 -1.49149E+02  2.33275E+03  5.51260E+01  1.20729E+03  2.87919E+02  7.38952E+02  8.16149E+02
 -1.39856E+03  8.76502E+02 -1.18824E+03 -7.02655E+02  4.97321E+02 -2.73420E+03  1.81076E+03 -1.14224E+03
  2.32561E+03  1.20437E+03  3.57493E+03  6.98863E+02  9.27465E+02  3.28458E+03 -1.37252E+03  3.57737E+03
 -3.40307E+03  4.19125E+02 -3.09319E+03 -3.21444E+02 -8.96240E+02 -2.26611E+03  1.50278E+03 -1.52980E+03
  2.52880E+03  7.88480E+01  1.31066E+03  1.55229E+03 -6.99579E+02  2.06812E+03  5.99542E+02  1.85107E+03
 -5.25435E+02  1.27486E+03 -9.05274E+02  4.09580E+02  1.35196E+02 -1.67934E+02 -3.66177E+02  3.99633E+02
 -7.49233E+01  1.27000E+03 -2.68022E+03  2.20440E+03 -2.27298E+03 -2.09245E+02 -2.95206E+03 -3.00820E+03
 -2.44822E+03 -4.65918E+03 -7.98162E+01 -4.30226E+03  2.42895E+03 -3.76482E+03  5.43556E+03 -9.16806E+02
  4.10872E+03  6.93728E+02  2.00032E+03  2.11546E+03  3.54316E+02  3.35040E+03 -8.81323E+02  2.16435E+03
 -1.59804E+03  2.62545E+01 -7.87674E+02 -1.07209E+02 -2.43223E+02  8.10744E+01 -1.20558E+03 -1.37237E+02
 -4.69403E+02 -1.70054E+02 -1.72565E+03  5.43755E+02  4.93669E+02  1.34281E+02 -5.56370E+02 -4.30457E+02
  1.82275E+03 -1.84451E+03  1.14400E+03 -9.13920E+01  2.67816E+03  2.58680E+03 -6.01474E+02  3.69210E+03
 -9.80479E+02  3.16328E+03 -3.39848E+03  1.67606E+03 -3.10250E+03 -3.41400E+02 -1.92189E+03 -2.03748E+03
 -5.02541E+02 -2.27512E+03  8.66439E+00 -2.50216E+03  1.95533E+03 -4.80335E+02  1.32706E+03 -1.50447E+03
  9.72727E+02  2.22923E+02 -9.34640E+02  4.80026E+02  7.27863E+01  3.11673E+02 -2.56148E+02 -9.94408E+02
  1.01728E+03  1.25350E+03  1.47569E+03  2.76854E+02 -4.29836E+02  1.94819E+02 -1.06623E+02  1.14229E+03
 -4.19326E+02  1.48795E+03 -8.59074E+02  8.16875E+01 -1.03905E+03 -6.78726E+02  6.15735E+02 -2.88897E+03
  6.66720E+02 -1.33154E+03  1.35442E+03 -4.32498E+02  1.53788E+03  1.80574E+02  8.88344E+02  2.41347E+03
 -6.78729E+02  8.44529E+02  1.35974E+02  1.47917E+03 -7.54248E+02  4.47998E+02 -1.19638E+03  7.19579E+02
 -5.00168E+02 -7.72783E+02 -1.61689E+03 -9.61984E+01 -1.86218E+01  8.46714E+02 -6.41881E+02 -1.56315E+02
 -1.62544E+03 -4.03010E+02 -1.45462E+03 -1.39187E+03  1.86328E+02 -2.74348E+03  1.99800E+03 -8.44023E+02
  6.25704E+02  4.75947E+01  6.38293E+02  3.34136E+02  1.24974E+02  1.57264E+03 -2.12515E+03  3.03228E+03
