 $NMID ID='MM_0lb_SNR200_9hz_g55_2.RAW', FMTDAT='(8E13.5)'
 TRAMP=1., VOLUME=1. $END
  3.09423E+05  5.45627E+02  3.37439E+05  2.52360E+05  8.60059E+04  3.36890E+05 -1.32877E+05  2.53007E+05
 -1.90372E+05  8.46818E+04 -1.13505E+05 -3.13936E+04 -4.24381E+02 -5.12259E+04  5.24317E+04 -6.84138E+02
  3.56172E+04  5.34283E+04 -1.67579E+04  7.58241E+04 -6.00662E+04  6.36974E+04 -8.52807E+04  3.28312E+04
 -8.19105E+04 -1.23779E+04 -5.73086E+04 -5.18472E+04 -1.64052E+04 -6.79961E+04  2.67406E+04 -4.61887E+04
  4.24242E+04  3.95925E+03  1.73785E+04  4.91390E+04 -3.61012E+04  4.85107E+04 -6.66350E+04  8.90916E+02
 -5.57337E+04 -5.74534E+04 -7.28647E+03 -7.77601E+04  3.51245E+04 -5.60774E+04  4.81431E+04 -1.77075E+04
  4.49055E+04  1.26896E+04  3.29621E+04  2.66929E+04  1.73711E+04  3.08152E+04 -5.18991E+03  2.70760E+04
 -2.13744E+04  1.10627E+04 -1.71913E+04 -6.63706E+03  7.45849E+03 -6.78162E+03  2.33144E+04  1.44982E+04
  6.05398E+03  3.78025E+04 -3.41099E+04  3.85370E+04 -6.64764E+04  7.22249E+02 -5.88753E+04 -4.46197E+04
 -1.19227E+04 -6.71039E+04  4.09832E+04 -4.86177E+04  6.00003E+04 -3.81566E+03  3.81915E+04  3.43808E+04
 -4.31302E+03  3.93951E+04 -3.28054E+04  1.88146E+04 -3.38403E+04 -2.57092E+03 -1.93295E+04 -1.28763E+04
 -8.96794E+03 -1.60564E+04 -1.84038E+03 -2.02881E+04  9.71871E+03 -2.31435E+04  1.70319E+04 -1.06035E+04
  1.00827E+04  5.85305E+03 -1.01552E+04  1.30696E+04 -2.32550E+04 -6.60278E+03 -7.32175E+03 -3.78618E+04
  2.60055E+04 -4.66791E+04  5.20645E+04 -2.11881E+04  4.87960E+04  2.05357E+04  1.60974E+04  4.75677E+04
 -1.86610E+04  3.66229E+04 -2.88717E+04  2.89968E+03 -1.40666E+04 -2.82996E+04  2.31820E+04 -3.73805E+04
  4.52562E+04 -1.08671E+04  4.02452E+04  2.68991E+04  2.27316E+04  5.21965E+04 -8.90921E+03  5.72733E+04
 -3.51823E+04  4.06822E+04 -4.77548E+04  9.95287E+03 -4.71863E+04 -1.92489E+04 -2.65887E+04 -4.28832E+04
  7.49241E+03 -4.20786E+04  3.50564E+04 -1.74297E+04  3.31421E+04  1.15784E+04  5.26577E+03  2.10081E+04
 -1.45705E+04  8.72585E+03 -1.21426E+04 -8.44783E+03  4.74889E+03 -1.10699E+04  1.82353E+04  6.25457E+03
  1.55664E+04  2.18501E+04 -5.28660E+03  2.67643E+04 -2.28344E+04  1.44346E+04 -3.29593E+04 -3.16375E+03
 -2.80810E+04 -1.80738E+04 -1.31346E+04 -2.67316E+04  3.10519E+03 -2.62217E+04  2.15413E+04 -2.33549E+04
  3.26159E+04 -1.32603E+04  3.97372E+04  5.19711E+03  2.77791E+04  2.44343E+04  5.43298E+03  4.40537E+04
 -1.82600E+04  3.29280E+04 -3.09177E+04  1.18705E+04 -2.27150E+04 -1.07829E+04 -3.57111E+03 -1.25918E+04
  1.95762E+03 -1.55417E+03 -7.26483E+03  9.60159E+03 -2.02985E+04  4.87411E+03 -1.91951E+04 -1.08931E+04
 -1.23661E+04 -2.43011E+04  5.71232E+03 -2.83355E+04  1.97709E+04 -2.03166E+04  2.47177E+04 -1.68393E+03
  1.47791E+04  1.74643E+04 -1.81998E+03  2.24124E+04 -1.71835E+04  1.46136E+04 -2.44713E+04 -4.22393E+03
 -1.77916E+04 -2.26765E+04 -2.08620E+03 -3.05652E+04  1.25796E+04 -2.43606E+04  2.56129E+04 -1.02934E+04
  2.20947E+04  2.92250E+01  1.66455E+04  4.79836E+03  9.47299E+03  1.28065E+03  1.09922E+04 -7.52518E+02
  2.37131E+04  3.61853E+03  2.64975E+04  1.79413E+04  1.79443E+04  3.89878E+04 -2.26132E+03  4.46634E+04
 -2.61816E+04  3.83214E+04 -4.20293E+04  2.12035E+04 -4.46869E+04 -3.82557E+03 -3.66161E+04 -2.84846E+04
 -1.43979E+04 -3.92799E+04  1.26931E+04 -3.28247E+04  2.87160E+04 -1.65031E+04  2.50268E+04  7.33867E+03
  8.36678E+03  1.95726E+04 -1.10723E+04  1.52311E+04 -2.09076E+04  1.56249E+03 -1.50662E+04 -1.20048E+04
 -9.65980E+02 -1.76606E+04  1.03720E+04 -1.36974E+04  1.33459E+04 -2.21948E+03  4.79749E+03  8.03890E+03
 -1.02141E+04  3.56698E+03 -9.91207E+03 -7.35642E+03 -1.60934E+03 -1.80489E+04  1.18558E+04 -1.94191E+04
  2.56620E+04 -1.15930E+04  2.78477E+04  1.78351E+03  2.46182E+04  2.03255E+04  1.06828E+04  2.96312E+04
 -5.54604E+03  3.26028E+04 -2.07923E+04  1.94816E+04 -2.38390E+04  1.93605E+03 -1.62844E+04 -7.39300E+03
 -8.04573E+03 -6.86054E+03 -2.60041E+02 -1.69879E+02 -2.80525E+03  2.96602E+03 -7.69382E+03  6.38748E+03
 -1.44300E+04 -2.96702E+02 -1.63216E+04 -1.22208E+04 -4.13804E+03 -1.81826E+04  5.52484E+03 -1.52599E+04
  1.16593E+04 -6.40205E+03  1.01201E+04  2.78165E+03 -2.63073E+02  6.69283E+03 -7.60641E+03 -1.21873E+03
 -7.90895E+03 -8.47646E+03 -1.53746E+03 -1.57548E+04  9.48096E+03 -1.74520E+04  2.24109E+04 -9.16153E+03
  2.22327E+04  1.93254E+03  1.78549E+04  1.53328E+04  3.67413E+03  1.96857E+04 -9.26968E+03  1.55275E+04
 -1.25968E+04  3.98760E+03 -7.08741E+03 -5.04426E+03  8.36173E+02 -4.68556E+03  7.54726E+03 -2.81980E+03
  8.65019E+03  7.15823E+03  2.56997E+03  1.34953E+04 -1.00497E+04  1.26761E+04 -1.71687E+04  2.02480E+03
 -1.14368E+04 -7.23959E+03  1.62542E+03 -1.48751E+04  9.52001E+03 -5.92284E+03  8.24671E+03  1.73301E+03
  1.12154E+03  9.82215E+03 -9.64328E+03  1.05052E+04 -1.55815E+04  5.21676E+03 -1.43535E+04 -6.83262E+03
 -7.25810E+03 -1.58829E+04  3.81880E+03 -1.98382E+04  1.67501E+04 -9.00099E+03  1.85251E+04  2.23183E+03
  1.03734E+04  1.38019E+04 -1.86554E+03  1.71284E+04 -1.29318E+04  7.40168E+03 -1.23366E+04 -1.98080E+03
 -1.04245E+04 -8.73504E+03 -3.01731E+03 -1.35359E+04  6.37460E+03 -1.10546E+04  7.41250E+03 -4.75679E+03
  4.73492E+03  1.63029E+03 -1.34171E+03  3.11116E+03 -1.11187E+03 -2.41310E+03  1.88384E+03 -6.94839E+03
  1.09902E+04 -5.59206E+03  1.80910E+04  4.31940E+03  1.58456E+04  1.12235E+04  9.91437E+03  2.18468E+04
 -7.08521E+03  2.56952E+04 -2.00906E+04  1.81730E+04 -2.68251E+04  4.08799E+03 -2.33309E+04 -1.01462E+04
 -1.02500E+04 -1.65246E+04 -3.72540E+02 -1.53141E+04  6.02036E+03 -8.13828E+03  5.33070E+03 -5.27551E+03
  2.19383E+03 -3.48105E+03  4.53555E+03 -3.83241E+03  6.30303E+03 -1.93017E+03  9.85716E+03 -1.82401E+02
  1.10805E+04  3.41077E+03  5.53068E+03  9.80189E+03 -2.00983E+03  1.22157E+04 -1.24780E+04  9.27940E+03
 -1.65991E+04 -1.21191E+03 -9.62777E+03 -1.04869E+04 -1.74845E+03 -1.62045E+04  9.64369E+03 -1.51880E+04
  1.87442E+04 -8.33720E+03  2.11020E+04  1.81265E+03  1.43864E+04  1.49913E+04  1.51128E+03  1.88611E+04
 -7.28762E+03  1.44623E+04 -1.03806E+04  5.08664E+03 -7.71835E+03 -3.04617E+03 -2.37181E+03 -2.01413E+03
 -2.27116E+03 -2.56545E+03 -3.58310E+03  4.15483E+03 -7.19011E+03  1.60851E+03 -1.15594E+04 -2.39543E+03
 -7.81496E+03 -1.15610E+04 -3.28867E+02 -1.62938E+04  9.78578E+03 -1.52351E+04  1.60672E+04 -3.82603E+03
  1.46765E+04  7.00198E+03  6.93966E+03  1.56585E+04 -1.92257E+03  1.60877E+04 -1.07886E+04  9.46258E+03
 -1.40887E+04  2.22201E+03 -1.22407E+04 -9.23227E+03 -1.56183E+03 -1.33480E+04  7.26682E+03 -1.05740E+04
  1.09704E+04 -2.52102E+03  8.13650E+03  2.30272E+03  3.67947E+03  5.87124E+03  1.28175E+01  3.53652E+03
  2.74285E+03  6.71733E+02  3.13966E+03  1.69769E+03  3.50500E+03  4.89920E+03  4.71563E+03  7.28247E+03
 -1.94390E+03  1.05541E+04 -1.02447E+04  1.18039E+04 -1.52362E+04  3.36071E+03 -1.72280E+04 -6.64389E+03
 -8.04008E+03 -1.63761E+04  3.40240E+03 -1.69562E+04  1.08723E+04 -1.11772E+04  1.39962E+04 -2.67970E+03
  1.03750E+04  5.20685E+03  2.68888E+03  8.58960E+03 -4.46821E+03  6.06268E+03 -7.15699E+03 -1.18406E+03
 -3.80029E+03 -5.62585E+03  2.30286E+03 -6.27066E+03  5.72888E+03 -4.23102E+03  6.21559E+03  1.49537E+03
  4.41003E+03  4.25765E+03  2.96045E+03  2.63484E+03 -1.41749E+02  1.83170E+03  1.12577E+03 -1.32998E+03
  1.58759E+03 -7.25620E+02  6.36127E+03  3.89605E+03  3.68199E+03  8.10659E+03 -2.65663E+03  1.00488E+04
 -7.43465E+03  9.10918E+03 -9.86532E+03  3.74497E+03 -8.84187E+03 -4.03735E+03 -5.96541E+03 -6.55138E+03
  7.25962E+02 -6.54204E+03  4.23395E+03 -1.56161E+03  2.41702E+03  2.67912E+03 -2.22964E+03  4.30461E+03
 -6.44572E+03  4.04978E+03 -7.12084E+03 -3.89951E+03 -3.45878E+03 -9.56135E+03  4.01124E+03 -9.60622E+03
  5.54466E+03 -6.00717E+03  5.05631E+03  3.40736E+01  4.94508E+03  1.18221E+03  6.37468E+02  3.13914E+03
 -3.88920E+03 -7.98208E+01 -3.40054E+03 -2.61730E+03  1.48644E+03 -7.07836E+03  8.02324E+03 -6.10660E+03
  1.01480E+04  8.91812E+02  8.53554E+03  7.66377E+03  2.87984E+03  1.10298E+04 -3.71255E+03  8.98650E+03
 -7.28671E+03  5.36779E+03 -9.08848E+03 -2.48192E+03 -4.47884E+03 -6.46515E+03  1.74507E+03 -6.49745E+03
  6.74523E+03 -3.40124E+03  5.92311E+03  3.92716E+03  6.20449E+02  4.95002E+03 -1.31909E+03  4.22509E+03
 -2.83418E+03  4.38903E+03 -1.73163E+03  1.69260E+03 -5.84122E+02  2.22987E+03 -1.22223E+03  2.21574E+03
 -2.61728E+03  3.47911E+03 -7.12809E+03  2.29277E+03 -9.07458E+03 -1.22249E+03 -1.24572E+04 -5.97407E+03
 -6.53084E+03 -1.44638E+04  2.28983E+03 -1.49390E+04  1.05230E+04 -1.17600E+04  1.44540E+04 -4.28420E+03
  1.28807E+04  2.40639E+03  9.33775E+03  1.18129E+04 -5.70124E+02  1.14529E+04 -4.55529E+03  9.49409E+03
 -6.14220E+03  2.88435E+03 -4.41196E+03 -2.08091E+03 -2.59241E+03 -4.02087E+02  1.12183E+03 -7.61765E+01
 -2.77048E+03  1.02377E+03 -3.88536E+03 -2.21590E+03  6.19327E+02 -1.66013E+03  1.95917E+02 -2.78316E+03
  6.60591E+03 -4.15945E+03  5.79059E+03  1.55545E+03  6.56726E+03  6.77823E+03  2.98539E+03  1.16054E+04
 -6.09978E+03  1.17822E+04 -1.21725E+04  8.09930E+03 -1.49107E+04 -1.55970E+03 -9.68997E+03 -8.48555E+03
 -4.48601E+03 -1.03257E+04  3.32820E+03 -1.02745E+04  6.44715E+03 -5.85172E+03  7.49246E+03  1.03212E+03
  5.01780E+03  2.31199E+03 -3.47684E+02  4.14321E+03 -1.63884E+03 -4.86319E+02  9.55431E+02 -1.83110E+03
  2.74072E+03 -2.25407E+03  4.21200E+03  3.53270E+03  3.67598E+03  3.47068E+03  1.41506E+03  5.59861E+03
 -3.89880E+03  4.28850E+03 -7.58777E+03  9.99110E+02 -7.57070E+03 -5.92072E+03 -1.37755E+03 -8.03300E+03
  4.24433E+03 -8.16918E+03  8.90022E+03 -2.34977E+03  8.26967E+03  1.77901E+03  4.89122E+03  6.73939E+03
  1.15874E+03  8.10926E+03 -4.70919E+03  5.60545E+03 -5.14746E+03  2.66119E+03 -3.91848E+03  2.44997E+02
 -2.29999E+03 -7.37197E+02 -2.17435E+03 -1.04249E+03 -5.59364E+03  6.88934E+02 -6.14470E+03 -1.02774E+03
 -3.80105E+03 -4.84847E+03 -4.92857E+01 -5.16431E+03  2.44994E+03 -7.48322E+03  5.98126E+03 -3.84136E+03
  6.11042E+03  2.86423E+03  4.90205E+03  4.11941E+03 -8.68607E+02  8.68514E+03 -5.58198E+03  4.71901E+03
