 $NMID ID='MM_0lb_SNR200_17hz_g60_97.RAW', FMTDAT='(8E13.5)'
 TRAMP=1., VOLUME=1. $END
  3.10283E+05 -8.80004E+02  3.37447E+05  2.50799E+05  8.48822E+04  3.37652E+05 -1.32304E+05  2.50978E+05
 -1.91550E+05  8.30525E+04 -1.12288E+05 -3.25548E+04  3.69405E+02 -5.05297E+04  5.50337E+04 -1.89409E+02
  3.49767E+04  5.27290E+04 -1.63322E+04  7.59481E+04 -6.12303E+04  6.39960E+04 -8.39004E+04  3.11393E+04
 -8.12441E+04 -1.07293E+04 -5.67378E+04 -5.03371E+04 -1.51633E+04 -6.95489E+04  2.69704E+04 -4.53403E+04
  4.06902E+04  4.52387E+03  1.63068E+04  4.75020E+04 -3.44337E+04  4.72220E+04 -6.65944E+04 -2.46594E+02
 -5.29940E+04 -5.69456E+04 -7.24253E+03 -7.76179E+04  3.29648E+04 -5.49246E+04  4.77904E+04 -1.70241E+04
  4.34172E+04  1.18340E+04  3.18508E+04  2.47209E+04  1.54746E+04  2.94123E+04 -5.40210E+03  2.70745E+04
 -2.22266E+04  1.24805E+04 -1.78516E+04 -3.84711E+03  4.87440E+03 -8.08793E+03  2.12037E+04  1.23179E+04
  7.41270E+03  3.63297E+04 -3.18081E+04  3.63969E+04 -6.16433E+04  1.42353E+03 -5.73825E+04 -4.32726E+04
 -1.24951E+04 -6.30652E+04  3.97465E+04 -4.53936E+04  5.86267E+04 -1.78212E+03  3.26776E+04  3.12147E+04
 -6.29714E+03  3.59577E+04 -3.05134E+04  1.59261E+04 -2.95990E+04 -4.38629E+03 -1.53432E+04 -1.12854E+04
 -9.14617E+03 -1.24570E+04  1.09355E+03 -1.75322E+04  7.17906E+03 -2.22403E+04  1.39803E+04 -1.39248E+04
  1.16673E+04  5.11875E+03 -7.47518E+03  1.38342E+04 -2.10463E+04 -4.01640E+03 -7.72193E+03 -3.29175E+04
  2.16598E+04 -4.19333E+04  4.76951E+04 -1.90469E+04  4.44959E+04  2.01367E+04  1.37269E+04  4.50573E+04
 -1.59278E+04  3.29717E+04 -2.47853E+04  2.31029E+03 -8.74062E+03 -2.82085E+04  2.13631E+04 -3.24314E+04
  4.05807E+04 -9.01439E+03  3.38657E+04  2.41769E+04  1.80032E+04  4.57114E+04 -7.64988E+03  4.95372E+04
 -3.10096E+04  3.29427E+04 -4.10989E+04  8.80644E+03 -4.14798E+04 -1.57258E+04 -2.35304E+04 -3.77001E+04
  7.48559E+03 -3.73873E+04  3.07744E+04 -1.47080E+04  2.85159E+04  1.07386E+04  4.11892E+03  1.86204E+04
 -1.43589E+04  7.77773E+03 -1.07736E+04 -7.14832E+03  5.73357E+03 -9.87650E+03  1.77373E+04  6.51847E+03
  1.32898E+04  2.13005E+04 -6.46621E+03  2.43370E+04 -2.28470E+04  1.09953E+04 -2.67174E+04 -5.05922E+03
 -2.03775E+04 -1.73523E+04 -7.56605E+03 -1.99445E+04  4.47118E+03 -1.84217E+04  1.54835E+04 -1.68315E+04
  2.63622E+04 -1.30568E+04  3.23522E+04  3.64514E+03  2.22566E+04  1.94319E+04  4.54449E+03  3.48702E+04
 -1.70754E+04  2.90367E+04 -2.82499E+04  9.29019E+03 -2.09370E+04 -1.11883E+04 -3.22048E+03 -1.35685E+04
  1.48788E+03 -2.88612E+03 -4.51445E+03  5.98105E+03 -1.56905E+04  5.85408E+03 -1.56398E+04 -6.72963E+03
 -1.00499E+04 -1.94847E+04  6.49123E+03 -2.23750E+04  1.42471E+04 -1.53237E+04  1.65262E+04 -4.97258E+02
  9.45669E+03  1.22442E+04 -1.70100E+03  1.86209E+04 -1.25213E+04  9.09429E+03 -1.81953E+04 -3.42424E+03
 -1.36821E+04 -1.61450E+04 -8.15680E+02 -2.33620E+04  9.13661E+03 -1.78326E+04  1.90397E+04 -7.34128E+03
  1.67864E+04  9.82617E+02  1.30312E+04  3.96367E+03  6.28518E+03 -1.39123E+02  8.59016E+03 -1.26460E+03
  1.67939E+04  3.43147E+03  1.77257E+04  1.46814E+04  1.16110E+04  2.77131E+04 -3.57148E+03  3.18194E+04
 -1.84710E+04  2.53089E+04 -2.88118E+04  1.25234E+04 -2.99895E+04 -2.89663E+03 -2.53389E+04 -1.82469E+04
 -1.06971E+04 -2.51997E+04  8.57456E+03 -2.21417E+04  1.91042E+04 -1.16735E+04  1.83273E+04  5.02404E+03
  5.78729E+03  1.30361E+04 -8.87115E+03  1.20256E+04 -1.54693E+04  3.69311E+03 -1.19466E+04 -9.13808E+03
  1.19979E+01 -1.43336E+04  6.92043E+03 -1.07760E+04  9.18426E+03 -1.25719E+03  2.49986E+03  6.20119E+03
 -6.85333E+03  1.72284E+03 -5.66733E+03 -5.29990E+03 -1.18870E+03 -1.24417E+04  9.04886E+03 -1.31504E+04
  1.65204E+04 -6.07831E+03  1.54529E+04  3.68275E+03  1.37467E+04  1.18645E+04  5.14714E+03  1.74143E+04
 -1.63346E+03  1.97827E+04 -1.23097E+04  1.29831E+04 -1.38739E+04  3.99375E+03 -1.01891E+04 -1.74580E+03
 -5.20401E+03 -4.24367E+03 -1.43543E+03  1.21881E+03 -3.13644E+03  1.83845E+03 -5.32787E+03  4.65266E+03
 -8.21881E+03 -4.95788E+02 -1.09686E+04 -7.52280E+03 -5.27312E+03 -1.36037E+04  4.89482E+03 -9.84364E+03
  8.39411E+03 -5.08111E+03  6.26440E+03  3.46568E+03  3.61579E+02  4.19760E+03 -4.27713E+03  3.44613E+02
 -4.79879E+03 -6.33202E+03 -1.13383E+03 -8.97199E+03  5.34539E+03 -9.57806E+03  1.24480E+04 -4.47363E+03
  1.39042E+04 -2.06454E+02  1.10683E+04  9.23551E+03  1.61223E+03  1.01582E+04 -6.32945E+03  9.94232E+03
 -8.84417E+03  3.26866E+03 -4.43091E+03 -1.16976E+03  1.79852E+03 -2.38586E+03  5.51560E+03  2.18972E+02
  5.05591E+03  5.28229E+03  9.76302E+02  7.05682E+03 -5.21774E+03  7.08588E+03 -9.06919E+03  3.21235E+03
 -6.55581E+03 -5.19433E+03  1.26550E+03 -7.15997E+03  4.58374E+03 -3.03022E+03  4.79050E+03  1.44651E+02
  6.39186E+02  4.63169E+03 -5.33066E+03  7.19927E+03 -5.88127E+03  3.10224E+03 -7.14366E+03 -2.19238E+03
 -3.20552E+03 -7.99254E+03  1.99345E+03 -9.68693E+03  7.21379E+03 -6.20535E+03  9.48833E+03  1.27614E+03
  5.99319E+03  6.43199E+03 -5.67353E+02  8.69075E+03 -6.97968E+03  5.09669E+03 -5.18955E+03 -8.84316E+02
 -6.52183E+03 -5.33753E+03 -1.53484E+03 -7.15211E+03  3.47545E+03 -4.64291E+03  4.80566E+03 -2.98927E+03
  3.34707E+03  2.62941E+02 -3.35936E+02  1.62948E+03 -5.34954E+02 -1.49565E+03  2.22648E+02 -2.47110E+03
  4.88736E+03 -7.99744E+02  7.79903E+03  7.33589E+02  7.78103E+03  3.96402E+03  6.87004E+03  9.09136E+03
 -1.55522E+03  1.08250E+04 -9.14521E+03  8.07402E+03 -1.25166E+04  2.56616E+03 -1.03494E+04 -3.54738E+03
 -5.30037E+03 -7.69030E+03  2.85064E+02 -5.41804E+03  2.82920E+03 -2.58904E+03  2.23703E+03 -2.37450E+03
  1.24766E+03 -1.33910E+03  2.15097E+03 -1.87984E+03  2.96886E+03 -1.02018E+03  5.20171E+03 -1.59249E+02
  5.03139E+03  2.28662E+03  1.56615E+03  3.54449E+03 -1.88717E+03  3.99572E+03 -5.94778E+03  2.91896E+03
 -6.23904E+03 -8.90672E+02 -2.51067E+03 -3.69789E+03 -4.78720E+01 -6.83580E+03  3.59449E+03 -7.29563E+03
  7.22631E+03 -4.08202E+03  8.60386E+03  5.64772E+02  7.66844E+03  6.04428E+03  2.01510E+03  8.54952E+03
 -3.04060E+03  7.29701E+03 -3.89112E+03  2.24972E+03 -2.02091E+03 -7.52191E+02 -1.78595E+03 -2.08993E+03
 -1.43833E+02  7.24978E+02 -2.38690E+03  1.54209E+03 -2.48168E+03  2.12152E+03 -5.63452E+03 -7.88245E+02
 -2.36427E+03 -3.97695E+03  2.57806E+02 -5.91926E+03  2.75436E+03 -4.73135E+03  6.39058E+03 -1.29311E+03
  5.83261E+03  2.53875E+03  3.34222E+03  4.48549E+03 -1.36171E+03  6.29379E+03 -3.67570E+03  4.07577E+03
 -5.83896E+03  9.08703E+01 -3.10912E+03 -3.65302E+03  8.98154E+02 -3.97186E+03  1.40162E+03 -2.75004E+03
  3.12057E+03 -3.23098E+03  1.78436E+03 -2.13200E+01  1.24193E+03  1.28485E+03  9.36110E+02  8.05256E+01
  1.70410E+03  1.17985E+03  8.78629E+02  1.77804E+03  5.95032E+02  2.44790E+03  1.09342E+03  2.07811E+03
 -1.27217E+03  3.97646E+03 -3.87330E+03  5.08948E+03 -3.97846E+03  1.05508E+03 -5.88248E+03 -1.80016E+03
 -2.77224E+03 -5.34819E+03  1.00268E+03 -5.91685E+03  3.35404E+03 -3.90358E+03  3.87045E+03 -6.29021E+02
  3.38911E+03  3.84302E+03  1.84480E+03  3.03716E+03 -2.90507E+03  1.51695E+03 -7.15621E+02  2.59046E+01
 -3.57564E+00 -2.22746E+03  2.17390E+03 -2.05657E+03  3.22062E+03 -2.43833E+03  1.13381E+03  3.19939E+02
  6.83496E+02  1.60591E+02  3.52435E+02  7.39351E+01 -1.14956E+03  1.63356E+03  2.17418E+03 -1.76284E+03
  1.15444E+03 -7.46534E+02  1.64927E+03  1.25592E+03  6.09109E+02  4.23229E+03 -2.98844E+02  3.75802E+03
 -1.98643E+03  1.14060E+03 -2.53350E+03  3.07025E+02 -2.04579E+03 -1.03973E+03 -1.55334E+03 -3.16177E+03
 -4.71448E+02 -9.21220E+02  1.10154E+03 -1.44324E+03  8.92455E+02  5.06295E+02 -7.88894E+02  9.73829E+02
 -1.86653E+03  6.02112E+02 -2.93047E+03  1.02386E+02 -1.27693E+03 -2.02666E+03  1.36087E+03 -2.35859E+03
  1.50399E+03 -9.44457E+02  3.20640E+02  4.69076E+02  4.86938E+02  9.42806E+02  1.76665E+02  1.08001E+03
 -1.42998E+03 -7.32732E+02  1.11652E+01 -1.12202E+03  6.04599E+02 -1.57533E+03  2.52672E+03 -1.71461E+03
  1.19896E+03 -9.02541E+02  2.23345E+03  1.50184E+03  1.90750E+03  2.83761E+03 -9.34940E+02  2.57365E+03
 -1.55289E+03  7.46938E+02 -1.74337E+03  2.76236E+02 -1.20401E+03 -1.33150E+03  1.63637E+02 -1.92100E+03
  2.17052E+03 -1.46317E+03  7.63190E+02  6.77611E+02  4.44302E+01  1.52466E+03 -4.68589E+02  1.51194E+03
 -3.43758E+02  1.55022E+03 -1.09983E+03  6.39130E+01 -1.45630E+02  4.13504E+02 -3.63678E+01 -1.24485E+01
 -4.94890E+02  4.95464E+02 -1.90498E+03  7.47673E+02 -2.90606E+03 -5.12027E+02 -3.53300E+03 -1.49329E+03
 -9.84974E+02 -3.03356E+03  3.86008E+02 -3.86776E+03  2.43829E+03 -4.46994E+03  3.26803E+03 -1.93412E+03
  1.80012E+03  1.17355E+03  2.31279E+03  2.28227E+03 -7.18982E+02  1.85281E+03 -1.44243E+02  2.35332E+03
 -7.60937E+02  9.90844E+02 -5.52832E+02 -8.62226E+01 -5.07683E+02  3.86045E+00 -1.01897E+03  2.26706E+02
 -1.13061E+03 -4.94522E+01 -3.77178E+02  2.05754E+02 -8.08739E+02 -3.24136E+02  3.44701E+02 -2.13574E+03
  1.69923E+03  6.22302E+01  4.11524E+02  6.23893E+02  2.40213E+03  8.95389E+02  8.46454E+02  2.26221E+03
 -3.96164E+02  3.14472E+03 -1.87964E+03  1.58603E+03 -1.01379E+03  6.54066E+02 -1.50726E+03 -2.51451E+03
 -5.17621E+02 -2.58185E+03  8.60635E+02 -5.92012E+02  3.49833E+02 -8.75958E+01  9.65182E+02  4.59778E+02
  1.61693E+03  9.12626E+01 -9.10588E+02  3.45640E+02 -5.89810E+02  8.11788E+01  1.26608E+03  2.69274E+02
  1.01317E+03 -4.67628E+02  5.99875E+02  5.16114E+02 -1.08567E+03  1.13216E+03 -8.92269E+01  6.27890E+02
 -1.71151E+03  2.99253E+02 -1.22028E+03  1.23125E+02 -9.45665E+02 -4.68504E+02 -7.73418E+02 -1.59511E+03
  4.48795E+02 -1.53016E+03  1.09820E+03 -9.52220E+01  1.65512E+03 -6.04551E+02  1.10911E+03  1.03251E+03
  1.23246E+03  1.61756E+03  1.28244E+02  8.66099E+02 -5.47822E+02  2.67059E+02  4.00428E+02  1.60018E+02
 -3.18969E+02 -5.16579E+02 -1.66853E+03 -1.08242E+03 -6.57611E+02 -8.48062E+02 -9.74013E+02 -1.29008E+03
 -1.71645E+03  6.63667E+02  7.44664E+02 -1.27184E+03  1.21108E+03 -2.02102E+03  8.32295E+02  1.49193E+02
  7.31629E+02  2.62356E+01 -3.67479E+02 -2.24223E+01  1.82220E+03  5.54085E+02 -7.38746E+02  1.41735E+03
