 $NMID ID='MM_0lb_SNR200_12hz_g60_23.RAW', FMTDAT='(8E13.5)'
 TRAMP=1., VOLUME=1. $END
  3.08542E+05  2.67731E+02  3.38785E+05  2.50961E+05  8.68673E+04  3.38325E+05 -1.31932E+05  2.52354E+05
 -1.89180E+05  8.29341E+04 -1.11671E+05 -3.20688E+04 -1.49039E+01 -5.15179E+04  5.28917E+04 -1.23057E+03
  3.57744E+04  5.33737E+04 -1.68128E+04  7.57359E+04 -5.97978E+04  6.50627E+04 -8.42104E+04  3.32509E+04
 -8.34931E+04 -1.08094E+04 -5.84742E+04 -5.22363E+04 -1.50022E+04 -7.17988E+04  2.97119E+04 -4.59299E+04
  4.07302E+04  4.39799E+03  1.76672E+04  4.75997E+04 -3.52012E+04  4.65814E+04 -6.80421E+04 -5.20099E+02
 -5.51428E+04 -5.72427E+04 -7.57814E+03 -7.83701E+04  3.41362E+04 -5.58013E+04  4.89637E+04 -1.81323E+04
  4.40259E+04  1.20938E+04  3.17336E+04  2.73018E+04  1.60072E+04  3.01846E+04 -4.87964E+03  2.78542E+04
 -2.23202E+04  1.20268E+04 -1.82690E+04 -5.99275E+03  5.28790E+03 -6.42913E+03  2.18966E+04  1.27854E+04
  6.26410E+03  3.56760E+04 -3.32034E+04  3.48020E+04 -6.38483E+04  4.59907E+02 -5.68084E+04 -4.36422E+04
 -1.18234E+04 -6.55163E+04  4.06108E+04 -4.65113E+04  6.04200E+04 -2.15032E+03  3.64432E+04  3.38251E+04
 -6.53219E+03  3.85492E+04 -3.11916E+04  1.69034E+04 -3.13803E+04 -2.72926E+03 -1.81643E+04 -1.17669E+04
 -1.03515E+04 -1.57554E+04 -1.95660E+03 -1.92805E+04  7.56662E+03 -2.48569E+04  1.48766E+04 -1.24539E+04
  1.12331E+04  4.91940E+03 -1.10366E+04  1.22949E+04 -2.17472E+04 -5.15602E+03 -7.09008E+03 -3.65603E+04
  2.41343E+04 -4.53724E+04  5.08053E+04 -1.92098E+04  4.88343E+04  2.06314E+04  1.57904E+04  4.73599E+04
 -1.62100E+04  3.60734E+04 -2.57654E+04  1.41676E+03 -1.06422E+04 -2.92733E+04  2.17168E+04 -3.66651E+04
  4.48602E+04 -1.09061E+04  3.84956E+04  2.53910E+04  2.08675E+04  4.88279E+04 -9.51762E+03  5.41851E+04
 -3.45846E+04  3.45998E+04 -4.56934E+04  9.39378E+03 -4.52828E+04 -1.90861E+04 -2.49440E+04 -4.12978E+04
  7.16259E+03 -4.13919E+04  3.38586E+04 -1.65914E+04  3.05413E+04  1.13122E+04  5.60697E+03  1.96543E+04
 -1.42275E+04  7.59726E+03 -1.02146E+04 -7.82906E+03  7.13351E+03 -1.09775E+04  1.80046E+04  6.98639E+03
  1.37735E+04  2.20164E+04 -5.54437E+03  2.55302E+04 -2.29176E+04  1.38723E+04 -3.16785E+04 -4.48897E+03
 -2.31972E+04 -1.69364E+04 -1.09908E+04 -2.27410E+04  4.63065E+03 -2.39970E+04  1.78333E+04 -2.26889E+04
  2.91984E+04 -1.41642E+04  3.67430E+04  4.33675E+03  2.69621E+04  2.11549E+04  4.08114E+03  3.96844E+04
 -1.85026E+04  3.38621E+04 -3.00581E+04  1.14162E+04 -2.23076E+04 -1.07648E+04 -4.18006E+03 -1.24968E+04
  1.44980E+03 -1.92483E+03 -7.09557E+03  7.32806E+03 -1.85418E+04  5.35568E+03 -1.84698E+04 -8.36852E+03
 -1.14148E+04 -2.29068E+04  5.09077E+03 -2.50628E+04  1.87255E+04 -1.85551E+04  2.07402E+04 -6.29307E+02
  1.33724E+04  1.46375E+04 -1.59299E+03  2.29799E+04 -1.54811E+04  1.19021E+04 -2.30322E+04 -5.58790E+03
 -1.56745E+04 -1.83580E+04 -1.39479E+03 -2.76124E+04  1.11066E+04 -2.16137E+04  2.06559E+04 -1.07815E+04
  1.96403E+04  3.22517E+02  1.39813E+04  4.69470E+03  7.64590E+03  1.70519E+03  1.22939E+04 -1.72214E+03
  2.05869E+04  4.00764E+03  2.34872E+04  1.73004E+04  1.46047E+04  3.49701E+04 -5.08277E+03  3.93619E+04
 -2.27184E+04  3.32790E+04 -3.87925E+04  1.72356E+04 -3.94249E+04 -2.39574E+03 -3.28096E+04 -2.35800E+04
 -1.22187E+04 -3.31491E+04  1.21813E+04 -2.96584E+04  2.47645E+04 -1.47184E+04  2.21350E+04  6.23835E+03
  6.06932E+03  1.64714E+04 -1.01425E+04  1.46740E+04 -1.84040E+04  2.40840E+03 -1.47958E+04 -1.15917E+04
 -6.18779E+02 -1.77078E+04  8.04789E+03 -1.28285E+04  1.10231E+04 -1.01111E+03  3.00861E+03  7.92088E+03
 -8.56201E+03  3.54446E+03 -7.24822E+03 -6.33559E+03 -1.09032E+03 -1.75967E+04  1.01160E+04 -1.70447E+04
  2.12818E+04 -1.05184E+04  2.29848E+04  3.73394E+03  1.92441E+04  1.71004E+04  9.15110E+03  2.65846E+04
 -5.85826E+03  2.80481E+04 -1.84122E+04  1.73675E+04 -2.08491E+04  4.67168E+03 -1.40213E+04 -5.28588E+03
 -4.19900E+03 -6.21305E+03 -6.31526E+02  8.31064E+02 -3.49529E+03  2.58946E+03 -7.25004E+03  4.89224E+03
 -1.34411E+04 -5.44578E+02 -1.36887E+04 -1.03783E+04 -6.44838E+03 -1.63935E+04  5.04830E+03 -1.34607E+04
  1.20610E+04 -6.57884E+03  9.11247E+03  3.09855E+03 -1.08885E+03  4.50863E+03 -6.06151E+03 -8.48872E+00
 -5.16529E+03 -9.35573E+03 -4.64755E+02 -1.24405E+04  8.46945E+03 -1.50538E+04  1.66943E+04 -7.14908E+03
  2.13085E+04  1.98974E+03  1.55339E+04  1.22364E+04  3.97637E+03  1.59656E+04 -8.04689E+03  1.41323E+04
 -1.06207E+04  3.81285E+03 -5.14530E+03 -2.79110E+03 -1.11111E+02 -4.54049E+03  7.73796E+03 -1.23816E+03
  7.39252E+03  5.77742E+03  9.22691E+02  1.08324E+04 -6.75442E+03  1.03188E+04 -1.42479E+04  2.25045E+03
 -8.81593E+03 -6.86856E+03 -1.11227E+03 -1.23130E+04  6.81907E+03 -6.52989E+03  5.89946E+03  2.81843E+03
  6.98856E+02  7.64369E+03 -5.95685E+03  9.24941E+03 -1.17029E+04  4.91922E+03 -1.14664E+04 -3.85486E+03
 -8.18758E+03 -1.36690E+04  4.40127E+03 -1.49619E+04  1.38413E+04 -8.45844E+03  1.51453E+04  1.08849E+03
  7.67174E+03  1.19295E+04  4.95607E+02  1.32866E+04 -1.03553E+04  6.40877E+03 -1.12709E+04 -6.80478E+02
 -9.12433E+03 -9.83424E+03 -3.08098E+03 -9.94804E+03  4.94928E+03 -8.34223E+03  6.47413E+03 -3.15910E+03
  4.52055E+03  1.55961E+03 -1.33859E+03  1.79834E+03 -1.08211E+03 -2.97923E+03  3.37119E+03 -6.32663E+03
  9.29112E+03 -2.56793E+03  1.22567E+04  1.10407E+03  1.25038E+04  8.65174E+03  9.20163E+03  1.62935E+04
 -3.46924E+03  1.92047E+04 -1.62569E+04  1.39844E+04 -2.21891E+04  2.01702E+03 -1.62089E+04 -6.71557E+03
 -9.77786E+03 -1.28589E+04 -5.55600E+02 -9.94303E+03  4.91206E+03 -5.27183E+03  3.55095E+03 -3.97208E+03
  1.96728E+03 -2.31164E+03  3.78562E+03 -2.85294E+03  6.00407E+03 -3.83494E+03  7.00119E+03 -5.42007E+02
  8.45982E+03  2.33270E+03  4.00624E+03  6.85138E+03 -1.94957E+03  9.29964E+03 -8.72462E+03  6.37086E+03
 -1.30620E+04 -1.09165E+03 -7.68799E+03 -7.26250E+03 -9.35096E+02 -1.35119E+04  6.45888E+03 -1.18730E+04
  1.32646E+04 -6.96354E+03  1.61395E+04  2.71574E+03  9.85822E+03  1.04666E+04  1.57253E+03  1.37397E+04
 -5.29187E+03  1.12150E+04 -7.99256E+03  4.15394E+03 -5.66121E+03 -1.06454E+03 -6.01664E+02 -1.70438E+03
 -6.29276E+02 -3.55155E+02 -1.92159E+03  3.39411E+03 -5.05516E+03  1.54397E+03 -9.68287E+03 -4.38049E+02
 -5.45330E+03 -8.87539E+03  1.66418E+02 -1.21374E+04  7.24577E+03 -1.06221E+04  9.89641E+03 -3.01053E+03
  1.06728E+04  6.32468E+03  5.45174E+03  9.70673E+03 -1.16197E+03  1.15930E+04 -8.11470E+03  6.13374E+03
 -1.08339E+04  1.78230E+03 -7.26534E+03 -6.94856E+03  3.17099E+02 -8.87847E+03  4.27334E+03 -5.81118E+03
  6.93314E+03 -1.72573E+03  4.55572E+03  2.62754E+03  2.82764E+03  3.69946E+03  2.03917E+03  2.28366E+03
  2.88665E+03  7.61986E+02  2.78192E+03  2.08068E+03  2.32117E+03  4.01592E+03  2.69562E+03  5.75344E+03
 -2.78298E+03  8.47604E+03 -6.97277E+03  9.20721E+03 -9.69246E+03  1.83745E+03 -1.17669E+04 -5.08360E+03
 -5.31176E+03 -1.12382E+04  1.09367E+03 -1.24860E+04  5.78087E+03 -8.13741E+03  8.48455E+03 -1.55416E+03
  5.80174E+03  4.96728E+03  2.09382E+03  6.99037E+03 -3.87756E+03  4.84470E+03 -4.82902E+03 -9.47184E+02
 -2.71938E+03 -6.18253E+03  2.70978E+03 -5.58802E+03  5.34620E+03 -1.97610E+03  3.31674E+03  4.68618E+02
  2.34966E+03  1.41783E+03  1.19212E+03  5.01642E+02 -2.43706E+02  1.12151E+03  1.55116E+03  5.00963E+02
  1.89497E+03 -5.55740E+02  3.91752E+03  3.18061E+03  2.41053E+03  5.81256E+03 -9.72510E+02  7.83770E+03
 -6.24349E+03  5.11894E+03 -7.37057E+03  1.98380E+03 -6.38680E+03 -2.16353E+03 -2.50025E+03 -4.46380E+03
  1.80735E+03 -3.85726E+03  3.36938E+03 -6.85557E+02  2.50403E+03  2.07569E+03 -7.48118E+02  4.78893E+03
 -2.94647E+03  3.35918E+03 -3.95051E+03 -2.87608E+03 -4.49756E+03 -5.22876E+03  8.92901E+02 -6.21720E+03
  3.42423E+03 -2.65408E+03  3.54870E+03 -2.94979E+02  2.35289E+03 -4.14840E+00  8.95183E+02  4.27658E+03
 -1.86705E+03  1.15323E+03 -3.20450E+03 -1.43951E+03  1.22660E+03 -4.07762E+03  5.93974E+03 -3.74873E+03
  5.99898E+03  3.79209E+02  6.04842E+03  4.31352E+03  1.98734E+03  6.12340E+03 -2.30420E+03  6.40597E+03
 -5.25764E+03  2.81573E+03 -6.74189E+03 -6.88489E+02 -3.19265E+03 -4.49389E+03  1.39400E+03 -3.41616E+03
  2.94518E+03 -1.34145E+03  2.08308E+03  3.01716E+03  8.02307E+02  4.30819E+03 -3.48249E+02  2.66468E+03
 -1.91165E+03  2.58113E+03 -1.44334E+03 -2.60255E+02 -1.67711E+02  2.30428E+02 -1.93073E+03  1.03511E+03
 -1.91864E+02  3.14775E+03 -3.93680E+03  2.62488E+03 -6.39777E+03 -8.62483E+01 -7.22507E+03 -3.10415E+03
 -2.69104E+03 -7.99535E+03  3.52124E+02 -1.01806E+04  5.32689E+03 -7.55297E+03  7.82761E+03 -2.36571E+03
  8.83162E+03  2.43428E+03  4.34154E+03  5.74359E+03  6.58663E+02  6.15028E+03 -2.30667E+03  4.32450E+03
 -4.10255E+03  1.75443E+03 -2.67059E+03  3.31463E+01 -5.22078E+02  8.45635E+02  8.22340E+02 -1.29531E+02
 -1.26115E+03  4.26779E+02 -2.33773E+03  3.14987E+00 -5.18814E+02 -1.29759E+03  5.88955E+02 -2.76852E+03
  3.13540E+03 -1.76651E+03  3.99774E+03  1.81430E+02  4.29039E+03  3.14209E+03  7.25810E+02  6.37754E+03
 -2.90315E+03  6.27523E+03 -6.97283E+03  4.36379E+03 -8.37448E+03  1.36137E+03 -5.17389E+03 -5.25028E+03
 -2.48554E+03 -6.23598E+03  2.69354E+03 -5.73096E+03  3.79978E+03 -2.78480E+03  3.12487E+03 -2.13547E+02
  3.06034E+03  2.52748E+03 -1.07258E+03  1.24500E+03 -1.42865E+02  1.58560E+03 -3.17288E+01 -9.76315E+02
  6.92331E+02 -3.39964E+02  1.15718E+03 -4.98469E+02  2.14656E+03  1.29920E+03 -3.19178E+02  3.31362E+03
 -8.60210E+02  2.16839E+03 -2.31046E+03  1.68494E+02 -2.99588E+03 -1.36829E+03 -1.56675E+03 -7.13541E+03
  5.56948E+02 -4.59716E+03  4.80337E+03 -1.77197E+03  3.71774E+03 -4.46206E+02  2.41850E+03  3.40437E+03
  7.37632E+02  4.65815E+03 -2.34186E+02  4.99275E+03 -1.97985E+03  2.63739E+03 -1.72742E+03  1.35588E+03
 -3.41745E+02  3.95438E+02 -1.28891E+03  1.60211E+03 -1.88918E+03 -1.16105E+03 -2.22443E+03 -7.82350E+02
 -1.28729E+03 -1.63507E+03 -1.57326E+03 -3.39508E+03  1.14307E+03 -4.69931E+03  4.25160E+03 -3.73429E+03
  2.96266E+03  5.96878E+02  3.21536E+03  1.02530E+03  7.42556E+01  2.24782E+03 -1.74139E+03  2.28358E+03
