 $NMID ID='MM_0lb_SNR200_15hz_g60_4.RAW', FMTDAT='(8E13.5)'
 TRAMP=1., VOLUME=1. $END
  3.10130E+05  6.60474E+02  3.36837E+05  2.50663E+05  8.49128E+04  3.38061E+05 -1.32398E+05  2.50469E+05
 -1.89128E+05  8.41305E+04 -1.12039E+05 -3.14945E+04  1.06056E+03 -5.16600E+04  5.24739E+04  9.30120E+01
  3.67452E+04  5.20273E+04 -1.72687E+04  7.48649E+04 -6.04228E+04  6.48780E+04 -8.55726E+04  3.03989E+04
 -8.08303E+04 -1.13761E+04 -5.73052E+04 -5.07581E+04 -1.51767E+04 -7.03337E+04  2.88864E+04 -4.67880E+04
  3.94351E+04  4.31672E+03  1.58459E+04  4.80624E+04 -3.35855E+04  4.86105E+04 -6.70456E+04 -4.62073E+02
 -5.49032E+04 -5.78012E+04 -5.79260E+03 -7.77098E+04  3.42951E+04 -5.48910E+04  4.87865E+04 -1.66226E+04
  4.38438E+04  1.14227E+04  3.22811E+04  2.65174E+04  1.41315E+04  3.10676E+04 -5.12381E+03  2.77302E+04
 -2.08268E+04  1.19476E+04 -1.77204E+04 -4.21162E+03  6.53616E+03 -7.89352E+03  2.25740E+04  1.23562E+04
  6.51102E+03  3.60025E+04 -3.24823E+04  3.55653E+04 -6.61388E+04  1.30221E+03 -5.71107E+04 -4.22640E+04
 -1.29133E+04 -6.31288E+04  3.92895E+04 -4.61980E+04  5.81104E+04 -1.19451E+03  3.58282E+04  3.29292E+04
 -4.96971E+03  3.58827E+04 -3.10935E+04  1.77523E+04 -2.97757E+04 -3.64634E+03 -1.78970E+04 -1.16463E+04
 -9.12073E+03 -1.33189E+04 -1.34767E+03 -1.81734E+04  6.64785E+03 -2.26461E+04  1.47045E+04 -1.47257E+04
  1.05800E+04  5.77114E+03 -9.64006E+03  1.33149E+04 -2.25164E+04 -5.07415E+03 -7.80839E+03 -3.44647E+04
  2.31264E+04 -4.51041E+04  4.79970E+04 -2.04536E+04  4.50380E+04  1.98099E+04  1.55999E+04  4.50196E+04
 -1.60531E+04  3.49430E+04 -2.59994E+04  1.67286E+03 -1.02124E+04 -2.88553E+04  2.18361E+04 -3.53801E+04
  4.13115E+04 -8.95002E+03  3.55011E+04  2.46008E+04  1.85929E+04  4.74098E+04 -7.58184E+03  5.09316E+04
 -3.26284E+04  3.43690E+04 -4.37832E+04  1.03287E+04 -4.34459E+04 -1.74848E+04 -2.43168E+04 -3.86226E+04
  6.34425E+03 -3.77068E+04  3.30382E+04 -1.57033E+04  2.89591E+04  1.06299E+04  3.99342E+03  2.05037E+04
 -1.47045E+04  8.74945E+03 -9.38254E+03 -7.36531E+03  4.60483E+03 -1.10923E+04  1.74093E+04  6.67444E+03
  1.37142E+04  2.28246E+04 -6.43232E+03  2.49433E+04 -2.33653E+04  1.24246E+04 -2.88754E+04 -3.96663E+03
 -2.20519E+04 -1.81498E+04 -8.91246E+03 -2.15466E+04  4.59088E+03 -2.05950E+04  1.53832E+04 -1.87904E+04
  2.75107E+04 -1.26931E+04  3.37817E+04  2.24161E+03  2.40605E+04  1.99727E+04  3.74650E+03  3.75509E+04
 -1.86390E+04  3.08374E+04 -2.92460E+04  1.16012E+04 -2.16286E+04 -9.20576E+03 -3.88628E+03 -1.20554E+04
  2.04203E+03 -1.90462E+03 -5.88119E+03  6.62645E+03 -1.71354E+04  4.44030E+03 -1.76442E+04 -7.31619E+03
 -1.03077E+04 -1.96838E+04  5.46656E+03 -2.42145E+04  1.45236E+04 -1.58221E+04  1.86570E+04 -1.78492E+03
  1.15928E+04  1.40170E+04 -1.57696E+03  1.95106E+04 -1.39596E+04  1.16206E+04 -1.92757E+04 -3.99037E+03
 -1.50359E+04 -1.68697E+04 -1.68701E+03 -2.29838E+04  1.07073E+04 -1.86861E+04  1.97864E+04 -9.01065E+03
  1.76343E+04  1.33910E+03  1.21307E+04  3.32066E+03  7.21118E+03  1.83066E+03  9.79073E+03 -2.27194E+03
  1.75429E+04  4.03717E+03  2.01473E+04  1.55226E+04  1.26621E+04  3.09591E+04 -1.90694E+03  3.53016E+04
 -2.00739E+04  2.96330E+04 -3.23499E+04  1.51662E+04 -3.40176E+04 -3.14690E+03 -2.86575E+04 -1.92589E+04
 -1.27840E+04 -2.85818E+04  9.11377E+03 -2.56354E+04  2.09630E+04 -1.39025E+04  2.04981E+04  4.94984E+03
  6.74184E+03  1.50433E+04 -9.37897E+03  1.28022E+04 -1.66565E+04  2.70629E+03 -1.28570E+04 -9.77167E+03
 -2.80128E+01 -1.46281E+04  6.41802E+03 -1.18455E+04  9.35182E+03 -1.54297E+03  2.23023E+03  7.46796E+03
 -6.73263E+03  1.98372E+03 -6.14057E+03 -5.49697E+03 -7.47550E+02 -1.30844E+04  1.03840E+04 -1.45546E+04
  1.64894E+04 -8.53579E+03  1.66807E+04  2.67449E+03  1.52727E+04  1.31157E+04  7.71856E+03  2.06104E+04
 -3.06922E+03  2.21664E+04 -1.44158E+04  1.49921E+04 -1.61777E+04  3.97616E+03 -1.17740E+04 -2.99086E+03
 -5.71434E+03 -3.89496E+03 -2.76404E+02  1.53115E+03 -2.96748E+03  2.53740E+03 -6.00300E+03  4.26125E+03
 -1.04580E+04 -1.50239E+02 -1.19731E+04 -9.31393E+03 -3.43119E+03 -1.46521E+04  4.23266E+03 -1.18937E+04
  8.92762E+03 -4.60161E+03  6.91877E+03  3.08822E+03  1.11254E+03  4.22256E+03 -6.04300E+03  3.05374E+02
 -5.92278E+03 -6.84819E+03 -1.87917E+03 -1.13331E+04  5.07733E+03 -1.18261E+04  1.38805E+04 -6.51228E+03
  1.70230E+04  1.65354E+03  1.17327E+04  9.29594E+03  2.73480E+03  1.28673E+04 -7.88647E+03  1.12019E+04
 -1.02707E+04  3.13939E+03 -4.63060E+03 -3.40497E+03  1.94941E+03 -3.46233E+03  6.20118E+03 -1.70247E+03
  5.46041E+03  3.58020E+03  2.31976E+03  9.08766E+03 -6.43205E+03  8.19880E+03 -1.00721E+04  1.49749E+03
 -7.71778E+03 -5.11607E+03  4.96408E+02 -9.04597E+03  6.28931E+03 -5.58051E+03  5.35250E+03  1.64819E+03
  1.66471E+03  6.19258E+03 -5.29815E+03  6.16566E+03 -6.89455E+03  3.65112E+03 -8.82134E+03 -2.53113E+03
 -5.72581E+03 -8.83348E+03  1.50464E+03 -1.12551E+04  9.76196E+03 -6.66396E+03  1.03880E+04  8.84099E+02
  7.20411E+03  8.18923E+03 -2.32938E+03  1.07125E+04 -8.69710E+03  4.43901E+03 -8.26404E+03 -5.61261E+02
 -7.84043E+03 -7.12085E+03 -1.24727E+03 -7.16270E+03  4.78307E+03 -5.95664E+03  4.37554E+03 -2.76490E+03
  3.02797E+03 -2.07282E+02 -4.19812E+02  2.03113E+03 -9.13840E+02 -1.62915E+03  9.96789E+02 -5.10541E+03
  5.94484E+03 -2.73036E+03  9.18899E+03  1.60337E+03  9.05624E+03  4.84325E+03  5.71626E+03  1.30259E+04
 -1.62687E+03  1.45294E+04 -1.05594E+04  1.07571E+04 -1.47778E+04  2.06690E+03 -1.29936E+04 -3.47699E+03
 -5.69794E+03 -1.03105E+04 -4.56516E+01 -8.77060E+03  4.05637E+03 -3.76195E+03  2.69988E+03 -2.95180E+03
  1.99058E+03 -2.50647E+03  3.94026E+03 -4.13590E+03  3.61275E+03 -2.67495E+03  5.24297E+03 -8.89038E+01
  6.84662E+03  3.12583E+03  2.26428E+03  5.66618E+03 -2.00325E+03  5.59367E+03 -5.96754E+03  4.67415E+03
 -8.28891E+03 -1.15829E+03 -5.23087E+03 -6.45142E+03  6.21825E+02 -8.95186E+03  5.24054E+03 -8.14203E+03
  8.76669E+03 -4.18751E+03  9.51263E+03  8.98042E+02  7.94830E+03  7.32297E+03  2.48267E+02  9.52634E+03
 -4.17465E+03  8.22759E+03 -6.16655E+03  1.67231E+03 -2.88389E+03 -1.88898E+02 -7.72697E+02 -1.52078E+03
 -1.84654E+03  1.15713E+03 -3.11363E+03  1.45017E+03 -3.62685E+03  2.75517E+03 -6.06071E+03 -1.67800E+03
 -2.84009E+03 -5.49414E+03  2.24231E+02 -7.91806E+03  4.60449E+03 -8.33388E+03  5.75369E+03 -1.55509E+03
  7.05184E+03  3.89375E+03  4.07568E+03  5.34291E+03 -1.52871E+03  9.05213E+03 -6.52559E+03  4.72850E+03
 -7.55648E+03  1.01885E+03 -6.17520E+03 -4.62131E+03 -6.11504E+02 -5.77586E+03  3.74030E+03 -5.16420E+03
  4.41620E+03 -1.28609E+03  4.84405E+03  1.00401E+03  1.15833E+03  1.51508E+03 -8.18730E+02  1.19639E+03
  2.07525E+03  1.92231E+03  2.12463E+03  2.52586E+02  3.08146E+03  3.11484E+03  2.07708E+03  4.48041E+03
 -1.18592E+03  5.36994E+03 -5.19724E+03  6.62597E+03 -6.71800E+03  2.31596E+03 -7.84592E+03 -2.74139E+03
 -3.56171E+03 -8.45649E+03  3.84607E+02 -6.55675E+03  4.54600E+03 -4.63646E+03  5.34908E+03 -3.22381E+02
  4.74435E+03  2.28729E+03  1.30115E+03  3.65748E+03 -2.42595E+03  2.59492E+03 -3.04653E+03  2.98769E+02
 -1.58669E+03 -2.67701E+03  1.78420E+03 -3.61509E+03  4.19981E+03 -1.23005E+03  3.61986E+03  8.17089E+02
  6.54737E+02  5.02201E+02  1.38375E+03  1.27266E+03 -2.46682E+02  1.60638E+03  1.61227E+03 -5.36701E+02
 -2.61474E+02  4.35336E+02  2.33218E+03  1.57229E+03  2.78136E+03  3.28617E+03 -3.85753E+02  4.74173E+03
 -3.66430E+03  3.39320E+03 -3.72234E+03  9.89990E+02 -3.30995E+03 -1.76275E+03 -4.35759E+02 -1.24593E+03
  7.28838E+01 -1.91051E+03  1.83343E+03 -7.96441E+02  7.35738E+02  2.14049E+03 -1.55156E+03  2.90243E+03
 -3.62122E+03  1.65307E+03 -3.57630E+03 -1.25406E+03 -2.60579E+03 -3.19850E+03 -1.74502E+02 -4.14675E+03
  1.59867E+03 -3.43382E+03  1.74944E+03  1.01224E+03  1.75178E+03  1.20682E+03  1.32939E+03  1.68256E+03
 -1.33486E+03  1.16160E+03 -6.30758E+02 -9.85183E+02  1.33699E+03 -2.07380E+03  2.29582E+03 -2.17606E+03
  3.07636E+03  8.55878E+02  4.63575E+03  2.62166E+03  2.26007E+03  4.21846E+03 -9.11277E+02  3.11404E+03
 -3.26023E+03  1.50816E+03 -5.05753E+03 -8.61207E+02 -1.29396E+03 -2.58060E+03  1.64307E+02 -2.52051E+03
  1.85894E+03 -1.70456E+03  2.44696E+03  6.68735E+02 -3.04804E+02  2.27876E+03  6.31357E+02  1.89849E+03
 -8.97037E+02  1.61115E+03  1.96834E+02  1.17465E+03 -1.81612E+03  2.07960E+02 -2.40906E+03  2.18067E+03
 -1.10120E+03  2.13342E+03 -1.87563E+03  2.57771E+03 -3.77079E+03  8.41342E+02 -4.18117E+03 -3.92813E+03
 -1.07309E+03 -4.31234E+03  2.42110E+03 -5.46206E+03  2.71374E+03 -3.91919E+03  4.84014E+03 -2.72399E+03
  5.35613E+03 -2.69403E+02  2.31867E+03  3.81432E+03 -3.31450E+02  3.43562E+03 -2.37321E+03  1.08063E+03
 -1.26171E+03  1.26232E+03 -1.73367E+03 -9.28795E+01 -6.65877E+02 -8.51867E+02 -2.15541E+03 -2.66443E+02
 -1.26089E+03 -1.88022E+02 -9.66188E+02 -2.95383E+02  3.07977E+01 -9.60957E+02 -7.47549E+02 -2.16473E+03
  1.17531E+03 -6.40568E+02  1.49769E+03  2.71729E+02  3.12774E+03  2.48146E+03 -5.60959E+02  3.43698E+03
 -1.72281E+03  4.51850E+03 -2.86597E+03  1.10730E+03 -3.13168E+03 -2.44598E+02 -2.78242E+03 -2.07020E+03
 -8.99860E+02 -3.89944E+03  1.40262E+03 -2.91622E+03  1.60849E+03 -1.10637E+03  1.62001E+03  2.86428E+02
  4.76502E+02  8.67105E+02  4.47714E+02  1.30916E+03 -6.64172E+02  2.84749E+02 -9.01131E+00 -1.13538E+03
  3.30845E+02 -2.17321E+03  4.29284E+02  6.72402E+02  3.37538E+02  3.89299E+02  5.85745E+02  1.56166E+03
 -1.90537E+03  1.75158E+03 -1.90358E+03  2.25758E+02 -1.72830E+03 -1.32379E+03 -5.88871E+02 -2.14614E+03
  1.04933E+03 -1.41741E+03  8.02386E+02 -1.32607E+03  1.16026E+03  4.25498E+02  2.19139E+03  2.03663E+03
 -1.61750E+02  8.02551E+02 -2.31814E+02  9.43818E+02 -8.87808E+02  1.56682E+03 -6.96791E+02 -4.96268E+02
 -8.74305E+02 -1.61095E+03 -1.34554E+03  7.68584E+02 -1.75406E+03  9.64359E+02 -7.90212E+02 -7.02365E+02
 -1.91618E+03 -6.81193E+02 -1.49548E+03 -7.27630E+02  6.95065E+02 -2.32308E+03  1.04082E+03 -1.24090E+03
  6.81263E+02 -1.16822E+03  1.16937E+03  2.86163E+02  7.12191E+02  2.82994E+03 -1.54603E+02  1.29996E+03
