 $NMID ID='MM_0lb_SNR200_14hz_g60_100.RAW', FMTDAT='(8E13.5)'
 TRAMP=1., VOLUME=1. $END
  3.09506E+05  9.64092E+02  3.36987E+05  2.50753E+05  8.42003E+04  3.36421E+05 -1.32191E+05  2.50384E+05
 -1.91101E+05  8.30480E+04 -1.12562E+05 -3.23082E+04  1.64888E+03 -4.98894E+04  5.46147E+04  3.17413E+02
  3.61309E+04  5.26543E+04 -1.59256E+04  7.37718E+04 -6.07646E+04  6.48431E+04 -8.41611E+04  3.20348E+04
 -8.19009E+04 -1.16736E+04 -5.71962E+04 -4.99901E+04 -1.46580E+04 -6.93534E+04  2.73194E+04 -4.64160E+04
  4.11492E+04  4.03394E+03  1.72324E+04  4.68230E+04 -3.42438E+04  4.78958E+04 -6.64814E+04 -1.52807E+02
 -5.48879E+04 -5.72286E+04 -7.04751E+03 -7.82410E+04  3.44438E+04 -5.49854E+04  4.91556E+04 -1.68643E+04
  4.34991E+04  1.11089E+04  3.12821E+04  2.50003E+04  1.53801E+04  2.94504E+04 -5.40381E+03  2.84366E+04
 -2.27213E+04  1.26561E+04 -1.79848E+04 -5.87791E+03  5.92985E+03 -6.46270E+03  2.27011E+04  1.37205E+04
  6.98959E+03  3.62689E+04 -3.26114E+04  3.70052E+04 -6.45778E+04  3.10121E+03 -5.65876E+04 -4.27887E+04
 -1.22398E+04 -6.30929E+04  3.94654E+04 -4.53932E+04  5.88833E+04 -1.41874E+03  3.61427E+04  3.35352E+04
 -6.18933E+03  3.83638E+04 -3.02472E+04  1.72268E+04 -3.03397E+04 -4.35027E+03 -1.66195E+04 -1.15007E+04
 -8.58130E+03 -1.43879E+04 -5.50889E+02 -1.73204E+04  7.84584E+03 -2.32750E+04  1.57505E+04 -1.25716E+04
  1.14033E+04  4.97238E+03 -9.10982E+03  1.17747E+04 -2.20172E+04 -5.18665E+03 -8.42060E+03 -3.47280E+04
  2.35667E+04 -4.39560E+04  4.85375E+04 -2.01376E+04  4.62446E+04  1.86521E+04  1.54580E+04  4.58266E+04
 -1.65534E+04  3.50761E+04 -2.58487E+04  1.91578E+03 -9.41061E+03 -2.82755E+04  2.25915E+04 -3.48141E+04
  4.24838E+04 -9.56165E+03  3.79669E+04  2.30562E+04  1.88212E+04  4.77780E+04 -8.07947E+03  5.17938E+04
 -3.25312E+04  3.51337E+04 -4.19880E+04  1.13414E+04 -4.56867E+04 -1.67116E+04 -2.50615E+04 -3.86426E+04
  7.73199E+03 -3.91391E+04  3.21465E+04 -1.51954E+04  2.99006E+04  1.10476E+04  4.54791E+03  1.90178E+04
 -1.32993E+04  7.46882E+03 -1.07022E+04 -8.38892E+03  5.88242E+03 -1.00502E+04  1.96462E+04  4.61296E+03
  1.35436E+04  2.14608E+04 -6.54872E+03  2.54023E+04 -2.30720E+04  1.37730E+04 -3.00342E+04 -4.35575E+03
 -2.02730E+04 -1.84111E+04 -9.70518E+03 -2.18907E+04  4.67147E+03 -2.22119E+04  1.76190E+04 -2.02631E+04
  2.89127E+04 -1.40101E+04  3.41668E+04  4.06173E+03  2.44447E+04  2.04824E+04  5.11031E+03  3.84287E+04
 -1.78129E+04  3.23164E+04 -3.00866E+04  1.04999E+04 -2.13115E+04 -1.15981E+04 -4.04655E+03 -1.27254E+04
  1.17937E+03 -2.12203E+03 -4.53080E+03  7.61147E+03 -1.77077E+04  4.80001E+03 -1.75668E+04 -7.89418E+03
 -1.04124E+04 -2.07863E+04  5.58482E+03 -2.40771E+04  1.63985E+04 -1.78798E+04  1.78213E+04 -1.27479E+03
  1.39983E+04  1.38951E+04  1.85034E+00  2.06839E+04 -1.32681E+04  1.16523E+04 -1.95009E+04 -4.03462E+03
 -1.58299E+04 -1.72867E+04 -1.35285E+03 -2.40148E+04  1.10647E+04 -2.04826E+04  2.10723E+04 -1.02394E+04
  1.90613E+04 -1.50963E+02  1.36276E+04  4.86939E+03  7.07943E+03  9.01724E+02  1.08459E+04 -5.49818E+02
  1.76735E+04  3.18863E+03  2.01646E+04  1.38468E+04  1.42200E+04  3.21639E+04 -2.76432E+03  3.66984E+04
 -2.11821E+04  2.94613E+04 -3.45987E+04  1.58047E+04 -3.80013E+04 -2.07755E+03 -3.00534E+04 -2.15905E+04
 -1.25335E+04 -2.97457E+04  9.84304E+03 -2.51531E+04  2.26804E+04 -1.31897E+04  2.06344E+04  5.26822E+03
  7.10133E+03  1.58587E+04 -9.36860E+03  1.30563E+04 -1.68632E+04  2.51410E+03 -1.37288E+04 -1.01861E+04
 -2.23551E+02 -1.61076E+04  8.46212E+03 -1.23005E+04  1.05372E+04 -1.00355E+03  2.57005E+03  6.78579E+03
 -7.58096E+03  2.38470E+03 -6.17196E+03 -5.43988E+03 -8.83937E+02 -1.44214E+04  1.02520E+04 -1.47046E+04
  1.80073E+04 -7.65931E+03  2.03703E+04  2.74196E+03  1.71988E+04  1.34848E+04  8.90599E+03  2.18259E+04
 -2.77998E+03  2.36072E+04 -1.58576E+04  1.52289E+04 -1.84983E+04  3.75853E+03 -1.17732E+04 -3.30038E+03
 -5.32283E+03 -4.28905E+03 -2.82655E+02  1.91786E+03 -2.19888E+03  2.71942E+03 -4.69583E+03  3.67218E+03
 -1.20910E+04 -8.61451E+02 -1.13394E+04 -9.40574E+03 -5.10495E+03 -1.57943E+04  5.05033E+03 -1.09239E+04
  1.03914E+04 -6.25877E+03  7.67528E+03  3.18112E+03  3.97281E+02  5.62990E+03 -5.71322E+03 -5.33441E+02
 -5.56433E+03 -7.87494E+03 -5.55507E+02 -1.17837E+04  6.85040E+03 -1.23573E+04  1.57927E+04 -6.46947E+03
  1.76854E+04  2.08721E+03  1.41082E+04  1.02266E+04  2.82359E+03  1.35853E+04 -7.77167E+03  1.31261E+04
 -1.03868E+04  3.30655E+03 -5.76513E+03 -1.72528E+03  7.06023E+02 -2.83867E+03  6.63652E+03 -1.08461E+03
  5.52567E+03  5.31428E+03  1.74316E+02  8.44356E+03 -6.83210E+03  1.13099E+04 -1.03433E+04  2.32590E+03
 -7.45514E+03 -6.49161E+03  4.16041E+02 -1.05109E+04  6.03042E+03 -5.21898E+03  5.73105E+03  1.79107E+03
  2.22127E+03  6.22576E+03 -5.81372E+03  8.49185E+03 -8.19123E+03  3.38922E+03 -1.06891E+04 -3.09159E+03
 -5.78408E+03 -1.00162E+04  1.51169E+03 -1.21535E+04  1.01713E+04 -8.54159E+03  1.11595E+04  2.89554E+03
  7.05855E+03  8.33897E+03  7.42011E+02  1.16279E+04 -8.85545E+03  6.55171E+03 -9.33875E+03 -9.58902E+02
 -6.96903E+03 -8.22243E+03 -1.29294E+03 -8.27414E+03  4.63508E+03 -6.72406E+03  4.86037E+03 -2.85663E+03
  3.94489E+03  6.60522E+02  2.57992E+02  5.99391E+02 -3.93318E+01 -7.05803E+02  2.18628E+03 -4.82380E+03
  7.88504E+03 -2.74273E+03  1.01945E+04  7.89544E+02  1.02193E+04  7.18471E+03  7.56107E+03  1.22765E+04
 -3.17224E+03  1.54982E+04 -1.23520E+04  1.18016E+04 -1.83272E+04  2.00779E+03 -1.41935E+04 -4.55625E+03
 -6.92645E+03 -9.82420E+03  1.18814E+03 -9.77405E+03  4.72969E+03 -5.74166E+03  4.09840E+03 -4.00760E+03
  3.17575E+03 -2.45377E+03  2.50473E+03 -3.43971E+03  5.25240E+03 -3.65496E+03  5.44290E+03  1.11834E+03
  5.89744E+03  1.15431E+03  2.27816E+03  6.25795E+03 -2.28372E+03  6.22342E+03 -7.58394E+03  5.03858E+03
 -8.57584E+03 -1.55920E+03 -4.72173E+03 -5.64541E+03 -1.01181E+03 -9.66166E+03  6.65848E+03 -9.74003E+03
  9.96365E+03 -6.05398E+03  1.43827E+04  2.20222E+03  9.70524E+03  8.34040E+03  1.85748E+03  1.15366E+04
 -5.19593E+03  7.54688E+03 -6.95100E+03  3.22719E+03 -4.47248E+03 -1.76090E+03 -1.16625E+03 -8.38759E+02
 -1.67121E+03  1.63677E+03 -1.08809E+03  2.31169E+03 -3.25820E+03  1.90430E+03 -5.52412E+03 -1.47969E+02
 -4.29743E+03 -6.27921E+03  6.64186E+02 -8.45453E+03  4.64215E+03 -7.01823E+03  8.88697E+03 -2.03208E+03
  8.40971E+03  3.45692E+03  4.59079E+03  8.00276E+03 -2.24546E+03  8.13784E+03 -4.82223E+03  4.64496E+03
 -7.24235E+03 -7.67603E+02 -4.98533E+03 -5.29231E+03 -1.10581E+03 -7.02722E+03  3.80394E+03 -5.34476E+03
  5.39153E+03 -3.35212E+03  4.07650E+03  5.13548E+02  2.93277E+02  1.56383E+03  2.09776E+03  9.49776E+02
  1.70382E+03  5.99735E+02  1.85955E+03  1.62610E+01  1.47001E+03  3.52528E+03  6.64783E+02  4.27958E+03
 -3.29485E+03  7.61375E+03 -5.31420E+03  6.58552E+03 -7.32179E+03  2.71772E+03 -8.56221E+03 -1.56214E+03
 -4.49792E+03 -7.82980E+03  1.14812E+03 -9.87661E+03  5.32140E+03 -5.66729E+03  7.30353E+03 -1.30709E+03
  4.64751E+03  2.99502E+03  8.30945E+02  4.50004E+03 -2.80037E+03  1.78517E+03 -3.62529E+03  5.95121E+02
 -2.14421E+03 -4.01778E+03  2.82405E+03 -2.90950E+03  2.48544E+03 -1.72630E+03  3.36698E+03  1.75631E+03
  2.04568E+03  2.38655E+03  9.18915E+02  1.21783E+03 -1.46537E+01  1.41616E+03  2.05907E+03 -1.01062E+03
  2.19016E+03 -1.07766E+03  4.00087E+03  1.51123E+03  1.75604E+03  4.65357E+03 -6.57621E+02  5.89929E+03
 -4.01918E+03  3.32505E+03 -4.64580E+03  4.43201E+02 -3.89490E+03 -1.61842E+03 -1.25250E+03 -1.17375E+03
  5.48763E+02 -2.34839E+03  1.05038E+03 -1.24980E+03  2.74972E+03  2.72888E+03 -1.11081E+03  2.88531E+03
 -2.92451E+03  1.06969E+03 -3.54822E+03 -3.10585E+03 -1.77377E+03 -4.07973E+03  1.61720E+03 -4.05114E+03
  1.36724E+03 -1.89854E+03  2.78195E+03 -1.04199E+03  2.39970E+03  9.02269E+02  1.08906E+03  2.11021E+03
 -5.72230E+02  1.80454E+03 -2.30047E+03 -2.21595E+02  1.68580E+03 -3.26575E+03  4.16694E+03 -2.17719E+03
  3.74739E+03  4.26414E+02  5.23839E+03  2.69780E+03  3.93607E+03  4.67352E+03 -8.66976E+02  3.61633E+03
 -3.99624E+03  1.87229E+03 -3.22561E+03 -1.94268E+03 -2.77185E+03 -4.14388E+03  1.13119E+02 -2.10242E+03
  2.04649E+03 -1.84561E+03  2.66744E+03  8.70074E+02 -1.95346E+01  1.07032E+03  7.72299E+02  2.32910E+03
  4.23944E+02  2.96881E+03 -1.80149E+03 -1.71363E+02  3.25407E+02  1.55019E+03 -5.11681E+02  2.16907E+03
 -2.01472E+03  1.75056E+03 -3.39063E+03  8.08089E+02 -4.59137E+03  5.10515E+02 -4.09483E+03 -3.40177E+03
 -2.23665E+03 -6.02262E+03  4.95071E+02 -6.75929E+03  4.63147E+03 -5.63435E+03  5.30084E+03 -1.88509E+03
  5.92978E+03  5.66183E+02  3.58589E+03  4.55321E+03 -6.00597E+02  4.38145E+03 -2.81852E+03  2.77992E+03
 -2.95000E+03  3.26695E+03 -1.95414E+03 -1.27441E+03 -2.20507E+03  6.80453E+02 -1.09374E+02  7.95969E+01
 -1.20709E+03  1.09639E+03 -1.93565E+03  5.87429E+01 -5.33649E+02 -8.24327E+02 -4.90856E+02 -2.80754E+03
  2.32788E+03 -1.75086E+03  1.29450E+03 -1.14090E+03  2.97839E+03  1.95763E+03  9.06634E+02  4.25561E+03
 -1.77195E+03  4.63817E+03 -4.15658E+03  2.63080E+03 -4.79624E+03 -5.80990E+02 -4.06979E+03 -2.75280E+03
 -2.28129E+03 -2.57543E+03  1.19831E+03 -3.19389E+03  1.93898E+03 -2.94640E+03  2.24109E+03 -3.65164E+02
  1.67754E+03 -8.32578E+01  2.83942E+02  1.43386E+03  7.74384E+01  5.83031E+02 -5.22879E+02  1.08814E+02
  1.97906E+03 -7.67290E+02  9.80676E+02  1.95918E+02  2.23151E+02  1.73109E+03  4.25326E+02  2.09409E+03
 -2.03554E+03  2.10455E+03 -2.54534E+03  5.31446E+02 -1.62289E+03 -1.93473E+03  6.69913E+02 -3.86286E+03
  6.31733E+02 -3.23189E+03  1.46279E+03 -2.75186E+01  3.04446E+03  1.37309E+02  2.86486E+03  2.09394E+03
  1.40718E+03  2.50637E+03 -1.79491E+03 -2.13491E+02 -1.34234E+03  8.79729E+02 -6.79132E+01  2.54405E+02
 -3.74113E+02  2.62865E+02 -1.08547E+03 -4.12198E+02 -9.93537E+02  1.67768E+03 -2.46100E+03 -1.17374E+02
 -2.72286E+03 -8.42512E+02 -2.72324E+02 -2.64613E+03  2.38617E+03 -3.80749E+03  2.33271E+03 -1.14692E+03
  3.12870E+03  6.06552E+02  2.23383E+02  1.08118E+03 -7.30464E+02  3.49889E+03 -1.66287E+03  1.63656E+03
