 $NMID ID='MM_0lb_SNR200_17hz_g50_32.RAW', FMTDAT='(8E13.5)'
 TRAMP=1., VOLUME=1. $END
  3.09325E+05  8.42111E+02  3.37933E+05  2.49579E+05  8.52515E+04  3.37705E+05 -1.33104E+05  2.50201E+05
 -1.90946E+05  8.33236E+04 -1.11847E+05 -3.23111E+04  4.09390E+02 -5.10373E+04  5.30723E+04  1.28598E+03
  3.48775E+04  5.32753E+04 -1.56614E+04  7.50932E+04 -6.06868E+04  6.24370E+04 -8.42036E+04  3.22703E+04
 -8.10044E+04 -1.01786E+04 -5.63866E+04 -5.03265E+04 -1.49329E+04 -7.01835E+04  2.69699E+04 -4.48690E+04
  3.87762E+04  2.76788E+03  1.53838E+04  4.64420E+04 -3.35876E+04  4.69781E+04 -6.54706E+04 -1.30452E+03
 -5.29835E+04 -5.72243E+04 -7.10349E+03 -7.57238E+04  3.34734E+04 -5.45308E+04  4.60656E+04 -1.57988E+04
  4.23285E+04  1.13654E+04  3.11259E+04  2.59635E+04  1.41299E+04  2.94673E+04 -5.52908E+03  2.81692E+04
 -2.10387E+04  1.25139E+04 -1.77483E+04 -4.27943E+03  6.00580E+03 -6.90383E+03  2.26501E+04  1.17861E+04
  6.16504E+03  3.34340E+04 -3.08021E+04  3.49363E+04 -6.21863E+04  2.14002E+03 -5.63641E+04 -4.13681E+04
 -1.29100E+04 -6.24055E+04  3.95558E+04 -4.46989E+04  5.66629E+04 -2.51211E+03  3.27128E+04  3.16043E+04
 -6.25981E+03  3.44129E+04 -2.92181E+04  1.45155E+04 -2.99479E+04 -4.75380E+03 -1.55251E+04 -8.68501E+03
 -8.02617E+03 -1.21791E+04 -1.05680E+03 -1.69001E+04  6.45736E+03 -2.35331E+04  1.45880E+04 -1.45753E+04
  1.10520E+04  4.22004E+03 -7.30855E+03  1.26150E+04 -2.01195E+04 -3.05724E+03 -8.98222E+03 -3.16040E+04
  1.99738E+04 -4.34542E+04  4.64673E+04 -1.87339E+04  4.33485E+04  1.87610E+04  1.57065E+04  4.26903E+04
 -1.66265E+04  3.20699E+04 -2.40976E+04  2.05628E+03 -9.86797E+03 -2.79013E+04  2.06984E+04 -3.18986E+04
  3.96908E+04 -8.52315E+03  3.33369E+04  2.22607E+04  1.70783E+04  4.46025E+04 -8.51648E+03  4.73017E+04
 -2.93213E+04  3.19001E+04 -3.92095E+04  8.81637E+03 -4.03264E+04 -1.49334E+04 -2.22081E+04 -3.60700E+04
  6.32089E+03 -3.54332E+04  3.08156E+04 -1.32102E+04  2.82143E+04  1.05098E+04  2.70269E+03  1.83067E+04
 -1.28054E+04  6.54757E+03 -9.58315E+03 -7.01620E+03  5.99728E+03 -1.13589E+04  1.79657E+04  6.43637E+03
  1.30708E+04  2.21235E+04 -6.17602E+03  2.39899E+04 -2.20272E+04  9.61485E+03 -2.73863E+04 -6.21193E+03
 -1.94157E+04 -1.59401E+04 -6.99842E+03 -1.80341E+04  4.01220E+03 -1.78422E+04  1.34093E+04 -1.69264E+04
  2.37117E+04 -1.15518E+04  2.94297E+04  1.95464E+03  2.34509E+04  1.86195E+04  3.16264E+03  3.35148E+04
 -1.74293E+04  2.78006E+04 -2.75916E+04  9.86584E+03 -2.07839E+04 -1.08220E+04 -3.59364E+03 -1.46478E+04
  2.40754E+03 -3.36354E+03 -3.28186E+03  6.24918E+03 -1.43794E+04  4.14070E+03 -1.40503E+04 -5.48070E+03
 -9.30922E+03 -1.71089E+04  4.59119E+03 -2.16101E+04  1.34268E+04 -1.46292E+04  1.67977E+04 -1.28819E+03
  9.50124E+03  1.16926E+04 -7.59466E+02  1.66750E+04 -1.05167E+04  9.79162E+03 -1.76932E+04 -2.75088E+03
 -1.38445E+04 -1.53802E+04 -2.76875E+03 -2.00865E+04  9.43284E+03 -1.62917E+04  1.81994E+04 -6.95250E+03
  1.64602E+04  1.37042E+02  1.12447E+04  4.11202E+03  5.81627E+03  1.38343E+03  8.86829E+03 -1.39916E+03
  1.46966E+04  3.49620E+03  1.60743E+04  1.30855E+04  1.00862E+04  2.60226E+04 -2.52341E+03  2.98251E+04
 -1.67228E+04  2.32554E+04 -2.67954E+04  1.13193E+04 -2.80021E+04 -2.22053E+03 -2.32508E+04 -1.58773E+04
 -1.07319E+04 -2.38410E+04  8.04623E+03 -2.06054E+04  1.80182E+04 -1.20536E+04  1.66024E+04  4.41232E+03
  6.48803E+03  1.21542E+04 -7.45200E+03  1.09800E+04 -1.51013E+04  3.10007E+03 -1.13770E+04 -7.83779E+03
 -6.61738E+01 -1.36637E+04  6.73169E+03 -9.71900E+03  8.90474E+03 -1.74963E+03  2.57559E+03  4.85193E+03
 -5.22077E+03  9.09327E+02 -4.15984E+03 -4.47706E+03 -5.31406E+02 -1.14517E+04  8.56729E+03 -1.15528E+04
  1.41452E+04 -5.96529E+03  1.42625E+04  3.46834E+03  1.21233E+04  1.09843E+04  6.28512E+03  1.62903E+04
 -2.60794E+03  1.78181E+04 -1.00971E+04  1.13324E+04 -1.24470E+04  3.71585E+03 -9.48019E+03 -3.41491E+03
 -4.20401E+03 -3.64572E+03 -1.03664E+03  1.72017E+03 -2.38909E+03  1.78730E+03 -4.37247E+03  4.87120E+03
 -9.95387E+03 -1.15650E+03 -9.65994E+03 -8.21214E+03 -3.58524E+03 -1.26487E+04  4.26471E+03 -1.04925E+04
  8.36663E+03 -4.12108E+03  6.38738E+03  1.93656E+03  4.16879E+02  3.96324E+03 -3.74616E+03  1.70216E+02
 -4.19414E+03 -6.12685E+03 -2.51681E+02 -8.35474E+03  3.76003E+03 -8.76522E+03  1.14647E+04 -3.50584E+03
  1.45999E+04  1.91080E+02  9.33381E+03  7.24784E+03  2.34708E+03  9.68827E+03 -5.03209E+03  1.02989E+04
 -6.94784E+03  2.35516E+03 -4.08620E+03 -1.93968E+03  1.21391E+03 -1.42619E+03  5.76174E+03 -1.60348E+03
  5.36701E+03  4.19359E+03  1.32720E+03  7.82523E+03 -5.21450E+03  6.58430E+03 -7.96654E+03  1.83411E+03
 -6.09355E+03 -4.82446E+03 -1.22461E+02 -7.10815E+03  5.18112E+03 -4.04016E+03  4.30024E+03  1.20576E+03
  1.37837E+03  3.00370E+03 -4.75802E+03  5.39623E+03 -5.10037E+03  2.79351E+03 -6.55556E+03 -2.56519E+03
 -3.92383E+03 -7.83060E+03  1.38961E+03 -8.88958E+03  7.28748E+03 -5.26160E+03  6.42590E+03  2.46744E+03
  6.01581E+03  5.02822E+03  9.21165E+02  9.48308E+03 -5.88764E+03  4.64962E+03 -6.57699E+03 -1.18142E+02
 -5.89807E+03 -5.65397E+03 -6.16489E+02 -5.75704E+03  2.68677E+03 -5.06519E+03  2.99937E+03 -4.03423E+03
  1.77446E+03  2.34422E+01  5.56275E+02  1.93653E+03  1.84322E+03 -1.96806E+03 -1.16632E+03 -2.28838E+03
  5.26030E+03 -1.32604E+03  7.06505E+03  9.76665E+02  6.96272E+03  4.07467E+03  5.87547E+03  8.67420E+03
 -1.15708E+03  9.11486E+03 -8.63062E+03  8.20089E+03 -1.25928E+04  1.68390E+03 -8.36120E+03 -4.28662E+03
 -5.06965E+03 -7.35669E+03 -3.94686E+02 -6.12616E+03  3.86998E+03 -3.27510E+03  3.07134E+03 -1.68625E+03
  1.66542E+03 -1.15150E+03  2.50392E+03 -3.18563E+03  4.10349E+03 -1.96309E+03  4.19318E+03 -1.78041E+02
  4.58005E+03  1.58706E+03  4.94500E+02  4.11251E+03 -1.63466E+03  3.02610E+03 -5.82798E+03  3.48051E+03
 -5.68943E+03 -2.76530E+03 -1.77826E+03 -3.31829E+03  1.43909E+03 -6.60035E+03  3.31125E+03 -6.58466E+03
  6.41379E+03 -4.73263E+03  7.89554E+03  4.84588E+02  6.33727E+03  4.64060E+03  5.21905E+02  7.76694E+03
 -2.43648E+03  6.57150E+03 -4.05744E+03  1.67471E+03 -2.97526E+03 -8.54074E+02 -1.77958E+03 -6.26592E+01
 -7.33231E+02 -7.28163E+01 -1.61388E+03  6.22354E+02 -2.54833E+03  1.51146E+03 -4.37238E+03 -6.07231E+02
 -1.67366E+03 -3.32491E+03 -5.81856E+02 -4.55054E+03  4.23165E+03 -4.71237E+03  4.40316E+03 -1.29096E+03
  4.53850E+03  3.45888E+03  1.54560E+03  4.58594E+03 -3.44124E+02  3.93972E+03 -4.34931E+03  3.76164E+03
 -5.17876E+03  9.23660E+02 -4.00660E+03 -1.91648E+03  1.29928E+02 -3.86763E+03  9.41426E+02 -3.07005E+03
  3.76905E+03 -1.88883E+03  3.07375E+03  1.38438E+03  3.85145E+02  1.68104E+03  7.19462E+02  9.16047E+02
  1.60332E+03  1.02190E+03  6.33049E+02  1.53916E+03  1.47381E+03  2.84773E+03  2.31924E+03  1.55699E+03
 -1.86485E+03  4.05413E+03 -2.91822E+03  4.16462E+03 -4.79662E+03  1.43022E+03 -5.58822E+03 -3.29258E+02
 -1.93559E+03 -4.57349E+03  7.55569E+02 -5.32919E+03  2.76009E+03 -2.67709E+03  3.31899E+03 -1.66408E+03
  3.69179E+03  2.54234E+03  6.41284E+02  2.17692E+03 -6.74541E+02  1.15013E+03 -1.53648E+03 -5.52427E+02
 -1.08471E+03 -2.61655E+03  1.38859E+03 -1.36170E+03  1.33394E+03 -1.54602E+03  2.09644E+03  1.80882E+02
  3.17761E+02  7.22392E+02  1.47216E+03  1.45054E+02 -5.34072E+02  5.10418E+02  2.34540E+03 -5.61452E+02
  1.11741E+03 -5.24907E+02  2.39312E+03  2.01072E+02 -3.48658E+02  2.53193E+03  8.35590E+01  3.01960E+03
 -1.63215E+03  1.86367E+03 -3.28701E+03 -6.37710E+02 -3.58998E+03 -2.06125E+03  6.18969E+01 -4.49811E+02
  4.54161E+01 -6.93379E+02 -6.40370E+02 -1.27625E+02  7.16055E+02  2.27255E+03 -1.26536E+03  2.74214E+03
 -1.72452E+03  1.79645E+03 -1.78078E+03 -1.44754E+03 -1.52109E+03 -3.43170E+03 -4.64089E+02 -2.04861E+03
  1.32519E+03 -1.32953E+03  1.33151E+03 -2.06348E+02  1.04673E+03 -7.25973E+02  7.73823E+02  1.27001E+03
 -1.84488E+03 -1.94631E+02 -4.46328E+02 -8.70285E+02  2.70530E+02 -1.15666E+03  2.25200E+03 -1.67698E+02
  2.52864E+03 -2.88348E+02  3.36289E+03  1.06855E+03  1.08955E+03  1.71890E+03 -1.14953E+03  1.39857E+03
 -1.06104E+03  1.00663E+03 -2.15034E+03 -3.22245E+02 -8.83646E+02 -2.88875E+03 -8.69339E+02  3.08373E+01
  1.57826E+03 -3.68531E+02  1.71702E+02  8.73994E+02  4.40860E+02  1.70673E+03 -5.51354E+02  1.86621E+03
 -6.89780E+02  1.83922E+03 -4.97055E+02  9.14943E+02 -3.18023E+02  4.79444E+02 -8.92309E+02  1.16650E+03
 -5.24162E+02  1.51418E+03 -1.63445E+03  5.96834E+02 -2.51992E+03  7.60418E+00 -2.31533E+03 -1.76373E+03
 -9.66372E+02 -2.36376E+03  1.16457E+03 -4.45078E+03  2.04211E+03 -2.68983E+03  4.35860E+03 -2.11679E+03
  3.74055E+03 -4.76496E+02  1.97601E+03  1.96985E+03  6.42258E+01  3.34891E+03 -9.91103E+02  1.11343E+03
 -1.59851E+03  5.92700E+02 -4.45898E+02 -2.37986E+03 -5.61345E+02  1.34713E+03 -1.31905E+03 -6.44965E+02
 -1.14454E+03  7.52524E+01 -2.62414E+02  3.21234E+02  5.22820E+02 -1.44410E+02  2.38941E+02 -9.77229E+02
  6.32188E+02 -6.45966E+02  1.14521E+03  8.05928E+02  1.11611E+03  1.69413E+03  3.43885E+02  2.63077E+03
 -1.40412E+03  3.59219E+03 -1.88308E+03  1.43983E+03 -2.00745E+03 -2.59975E+02 -1.39877E+03 -1.58748E+03
 -1.51750E+03 -1.29365E+03  5.03634E+02 -1.17948E+03  5.02741E+02 -3.65899E+01  1.54030E+03  3.01901E+01
  2.02098E+03  4.03238E+02 -1.74043E+03  8.28926E+02 -2.45879E+01  3.61591E+02 -8.32275E+01  6.51637E+02
  1.59138E+03 -1.29336E+03  1.65863E+03  3.46344E+02 -8.72083E+02  1.52619E+03  1.62248E+03  1.72490E+03
 -6.37327E+02 -2.90665E+02 -5.72160E+02 -2.82610E+02 -1.56175E+03  5.33744E+02 -9.20181E+02 -1.89032E+03
  8.78347E+02 -1.41735E+03  1.10364E+03 -1.72417E+02  2.40797E+03 -4.92584E+02  1.59938E+03  1.56000E+03
  4.35359E+02 -3.95140E+02 -3.03628E+02  1.12810E+03  1.15009E+02  7.66349E+02 -8.82324E+01  2.16742E+01
  2.99605E+02 -3.96967E+02  4.24172E+02 -2.18390E+02 -4.52084E+02  3.85392E+02 -1.09759E+03 -6.39800E+02
 -1.37219E+03 -1.06020E+03 -2.19670E+02 -2.17367E+03  1.32616E+03 -2.24176E+03  1.55830E+03 -6.01024E+02
  4.06585E+02  2.11763E+01 -1.83466E+02  2.25812E+02 -9.38305E+01  1.67010E+03 -4.84493E+02 -6.07374E+02
