 $NMID ID='MM_0lb_SNR200_12hz_g40_86.RAW', FMTDAT='(8E13.5)'
 TRAMP=1., VOLUME=1. $END
  3.10320E+05 -5.83725E+02  3.36928E+05  2.50217E+05  8.36140E+04  3.37790E+05 -1.32133E+05  2.50746E+05
 -1.89180E+05  8.30197E+04 -1.12562E+05 -3.24649E+04  1.18478E+03 -5.05042E+04  5.32018E+04  3.86888E+02
  3.55912E+04  5.34877E+04 -1.57752E+04  7.56762E+04 -6.17904E+04  6.35131E+04 -8.48165E+04  3.32174E+04
 -8.13268E+04 -1.07446E+04 -5.55604E+04 -5.27284E+04 -1.43510E+04 -6.89504E+04  2.73907E+04 -4.47825E+04
  4.00205E+04  3.86226E+03  1.55484E+04  4.70091E+04 -3.44852E+04  4.80068E+04 -6.71358E+04 -9.82284E+02
 -5.35191E+04 -5.70398E+04 -6.27822E+03 -7.73540E+04  3.29582E+04 -5.38465E+04  4.90263E+04 -1.50979E+04
  4.32571E+04  1.08438E+04  3.19862E+04  2.53690E+04  1.50884E+04  2.80715E+04 -4.36046E+03  2.76051E+04
 -2.15039E+04  1.14782E+04 -1.98242E+04 -6.47588E+03  4.83254E+03 -7.29116E+03  2.34872E+04  1.26139E+04
  9.12731E+03  3.57674E+04 -3.24375E+04  3.58219E+04 -6.39198E+04  1.25524E+03 -5.67635E+04 -4.28763E+04
 -1.23744E+04 -6.46941E+04  4.16786E+04 -4.74277E+04  5.88361E+04 -3.85015E+03  3.51437E+04  3.31280E+04
 -5.45791E+03  3.70636E+04 -3.01849E+04  1.68680E+04 -3.20597E+04 -3.64473E+03 -1.66786E+04 -1.19420E+04
 -9.26639E+03 -1.42784E+04 -7.53249E+02 -1.81632E+04  7.16138E+03 -2.25378E+04  1.52995E+04 -1.34089E+04
  1.16252E+04  6.38069E+03 -8.71774E+03  1.40617E+04 -2.19988E+04 -4.16200E+03 -8.59889E+03 -3.57796E+04
  2.24227E+04 -4.50233E+04  4.91374E+04 -1.97101E+04  4.57489E+04  2.01106E+04  1.64457E+04  4.49621E+04
 -1.61429E+04  3.34022E+04 -2.53880E+04  2.04784E+03 -1.08678E+04 -2.78062E+04  2.31004E+04 -3.39368E+04
  4.14411E+04 -1.03655E+04  3.64622E+04  2.41840E+04  1.93535E+04  4.58846E+04 -8.59047E+03  5.04190E+04
 -3.10382E+04  3.53896E+04 -4.36837E+04  9.07464E+03 -4.41065E+04 -1.58540E+04 -2.34626E+04 -3.93395E+04
  8.44193E+03 -3.89367E+04  3.28073E+04 -1.60776E+04  2.97483E+04  1.13128E+04  5.48072E+03  1.90332E+04
 -1.52673E+04  8.89830E+03 -1.07414E+04 -7.17841E+03  5.30358E+03 -9.51025E+03  1.74957E+04  5.51100E+03
  1.26286E+04  2.18851E+04 -5.87384E+03  2.49790E+04 -2.23781E+04  1.17048E+04 -2.68136E+04 -4.39321E+03
 -2.04555E+04 -1.66626E+04 -9.17248E+03 -2.19689E+04  4.68076E+03 -2.01074E+04  1.69291E+04 -1.94337E+04
  2.75772E+04 -1.26262E+04  3.39174E+04  3.58652E+03  2.42548E+04  2.05416E+04  3.92429E+03  3.83252E+04
 -1.73155E+04  3.07239E+04 -2.84967E+04  1.06244E+04 -2.21923E+04 -9.64269E+03 -4.00593E+03 -1.37887E+04
  1.26769E+03 -1.33991E+03 -4.99698E+03  7.16197E+03 -1.60272E+04  5.14350E+03 -1.62099E+04 -7.67249E+03
 -1.06218E+04 -2.04937E+04  4.67781E+03 -2.41774E+04  1.67221E+04 -1.69266E+04  1.77984E+04 -2.20909E+03
  1.08550E+04  1.39327E+04 -1.17004E+03  1.99785E+04 -1.42586E+04  1.15901E+04 -1.91056E+04 -4.52992E+03
 -1.60631E+04 -1.77166E+04 -2.43936E+03 -2.54592E+04  1.05710E+04 -1.92385E+04  2.13197E+04 -9.74338E+03
  1.77329E+04 -1.13844E+02  1.27818E+04  3.65387E+03  5.59322E+03  7.66387E+02  1.10255E+04  8.81538E+01
  1.69950E+04  2.86215E+03  2.08721E+04  1.54376E+04  1.34316E+04  3.07224E+04 -2.49232E+03  3.72147E+04
 -2.05686E+04  2.96115E+04 -3.33315E+04  1.54206E+04 -3.41226E+04 -2.27060E+03 -2.87063E+04 -2.03117E+04
 -1.21246E+04 -3.01492E+04  9.03780E+03 -2.57338E+04  2.36629E+04 -1.40223E+04  1.97677E+04  5.03065E+03
  7.70015E+03  1.56574E+04 -9.74346E+03  1.27765E+04 -1.86506E+04  1.58231E+03 -1.46630E+04 -1.16506E+04
 -1.75456E+03 -1.73685E+04  9.36498E+03 -1.10361E+04  1.06257E+04 -1.09140E+03  2.66268E+03  6.97698E+03
 -7.77372E+03  2.79434E+03 -6.44853E+03 -6.03502E+03 -1.52308E+02 -1.37954E+04  9.62980E+03 -1.48815E+04
  1.80296E+04 -8.82816E+03  1.84264E+04  4.09285E+03  1.62365E+04  1.48494E+04  7.46474E+03  2.17346E+04
 -5.38616E+03  2.53018E+04 -1.61246E+04  1.44461E+04 -1.96532E+04  4.59347E+03 -1.17231E+04 -4.21854E+03
 -5.64607E+03 -5.48107E+03 -1.00372E+03  2.59159E+03 -1.99844E+03  1.86126E+03 -5.93929E+03  4.46854E+03
 -1.02417E+04 -1.23053E+03 -1.19026E+04 -9.84134E+03 -5.35579E+03 -1.61819E+04  4.92457E+03 -1.16367E+04
  1.01813E+04 -5.17717E+03  7.15650E+03  2.57155E+03  1.04031E+03  5.47950E+03 -6.79315E+03 -8.60048E+02
 -5.75384E+03 -6.15293E+03 -1.17641E+03 -1.09172E+04  5.91404E+03 -1.36896E+04  1.47280E+04 -6.09696E+03
  1.78488E+04  2.19322E+03  1.47106E+04  1.01777E+04  3.16636E+03  1.36191E+04 -8.37933E+03  1.25102E+04
 -9.82031E+03  3.36204E+03 -5.34305E+03 -4.39514E+03  1.89138E+03 -2.61368E+03  6.74147E+03  2.29447E+02
  6.21940E+03  5.88681E+03  7.89427E+02  1.02837E+04 -6.19797E+03  1.00765E+04 -1.31464E+04  3.23489E+03
 -8.25458E+03 -7.63895E+03  9.29186E+02 -1.07636E+04  5.66993E+03 -5.48219E+03  5.65905E+03  2.44498E+03
  2.58591E+02  6.87744E+03 -7.28783E+03  8.71562E+03 -9.86376E+03  4.92117E+03 -1.02287E+04 -3.84264E+03
 -4.49608E+03 -1.09322E+04  1.83124E+03 -1.29685E+04  9.00016E+03 -7.94177E+03  1.21288E+04  2.03001E+03
  6.75091E+03  9.37025E+03 -1.47077E+02  1.17418E+04 -8.52947E+03  6.92703E+03 -8.32125E+03 -1.15193E+03
 -8.48151E+03 -7.54361E+03 -2.18579E+03 -8.70758E+03  5.18979E+03 -7.76423E+03  6.52775E+03 -2.82555E+03
  4.60805E+03  9.82873E+02 -1.24822E+03  1.13702E+03 -2.09005E+03 -1.38813E+03  1.88249E+03 -5.31044E+03
  7.67431E+03 -3.37489E+03  1.07854E+04  1.69411E+03  1.13959E+04  7.24780E+03  6.47266E+03  1.46537E+04
 -2.97693E+03  1.73758E+04 -1.45308E+04  1.28450E+04 -1.69467E+04  1.51435E+03 -1.35384E+04 -6.18011E+03
 -6.27858E+03 -1.23618E+04 -8.34810E+02 -9.32879E+03  3.70920E+03 -4.99401E+03  2.79658E+03 -4.72244E+03
  3.19205E+03 -1.54705E+03  3.59766E+03 -3.49315E+03  4.28658E+03 -1.92937E+03  5.45903E+03  6.62606E+02
  7.43686E+03  1.20806E+03  4.18078E+03  6.37067E+03 -2.04774E+03  6.70362E+03 -9.05494E+03  5.78357E+03
 -1.01476E+04 -1.58672E+03 -6.07747E+03 -6.45960E+03 -1.14346E+03 -1.10856E+04  4.50539E+03 -1.12839E+04
  1.06651E+04 -6.66350E+03  1.44064E+04  1.14979E+02  9.76373E+03  8.96693E+03  2.42777E+03  1.25244E+04
 -5.48740E+03  9.88984E+03 -6.05865E+03  3.37037E+03 -3.29143E+03 -3.46389E+02 -2.04513E+03 -1.24034E+03
 -1.95410E+02 -1.15442E+01 -2.44130E+03  3.26479E+03 -1.96812E+03  1.06070E+03 -6.30038E+03 -1.02031E+03
 -3.74603E+03 -7.19622E+03 -1.93667E+02 -1.07220E+04  5.54150E+03 -9.58563E+03  9.92178E+03 -1.84678E+03
  1.00265E+04  3.54523E+03  3.52641E+03  8.49047E+03 -1.35136E+03  9.68186E+03 -6.86446E+03  6.17615E+03
 -8.73225E+03  6.58951E+01 -7.39978E+03 -5.51704E+03 -8.62863E+02 -8.14713E+03  3.69070E+03 -6.86830E+03
  5.02412E+03 -2.39147E+03  4.08347E+03  1.64020E+03  1.10892E+02  2.21407E+03  1.31033E+03  6.69429E+02
  2.56873E+03  9.35200E+02  3.45574E+03  1.55707E+03  2.16318E+03  2.96556E+03  2.87852E+03  5.00867E+03
 -1.44422E+03  6.63255E+03 -6.03567E+03  9.40757E+03 -9.77139E+03  1.34474E+03 -9.83933E+03 -3.63635E+03
 -5.42377E+03 -1.04970E+04  1.59673E+03 -1.01365E+04  4.79031E+03 -6.05153E+03  6.58581E+03 -1.71078E+03
  5.21630E+03  3.08546E+03  1.51942E+03  6.25454E+03 -1.89201E+03  3.44585E+03 -2.98745E+03  4.18614E+02
 -2.04288E+03 -4.74538E+03  1.85297E+03 -2.59520E+03  3.10223E+03 -2.49523E+03  4.49423E+03  4.36931E+02
  2.19690E+03  1.81805E+03  5.01063E+02  2.26368E+03  7.49970E+02  1.60105E+03  1.84303E+03 -1.57132E+03
  8.43196E+02  1.11533E+03  3.63929E+03 -6.31067E+01  2.28280E+03  5.76873E+03 -7.61613E+02  5.63798E+03
 -4.95284E+03  2.92294E+03 -6.39972E+03  1.51577E+03 -5.95488E+03 -2.72132E+03 -1.72690E+03 -3.64597E+03
  1.27070E+03 -4.20372E+03  2.54991E+03 -1.01092E+03  2.19177E+03  1.72662E+03 -2.10006E+03  2.21745E+03
 -2.98642E+03  1.32955E+03 -3.91727E+03 -3.95782E+02 -2.03274E+03 -5.04733E+03  6.81450E+02 -4.21482E+03
  2.03987E+03 -3.33604E+03  3.28535E+03  2.25372E+02  3.56758E+03  1.71923E+03  1.18882E+03  2.47739E+03
 -3.23213E+02 -5.44487E+02 -2.94642E+03 -8.44173E+02  1.80074E+03 -2.57164E+03  3.23657E+03 -3.67974E+03
  5.11158E+03 -8.02572E+02  6.15854E+03  4.14155E+03  5.28520E+02  8.13142E+03 -5.52610E+02  6.47550E+03
 -5.90056E+03  2.12412E+03 -4.45859E+03 -3.46869E+02 -2.03784E+03 -4.21304E+03  1.45963E+03 -2.77580E+03
  5.51033E+03 -1.75838E+03  3.65971E+03  1.12549E+03  1.37156E+03  4.02672E+03 -8.65171E+02  3.55467E+03
 -1.99442E+03  2.64126E+03 -3.55113E+02  1.92948E+03 -4.45050E+02 -8.68059E+02 -2.48070E+03  6.65512E+02
 -1.56896E+03  3.62217E+03 -3.63061E+03  2.26350E+03 -6.28642E+03  4.06609E+02 -7.00041E+03 -2.30392E+03
 -4.05663E+03 -7.68495E+03  4.52386E+02 -8.69459E+03  5.37245E+03 -6.29405E+03  8.80283E+03 -1.63902E+03
  7.83394E+03  1.57459E+03  3.62888E+03  5.02420E+03  8.55825E+02  5.50210E+03 -1.89495E+03  4.71294E+03
 -3.79886E+03  1.97450E+03 -2.13920E+03 -5.15991E+02  1.86810E+02 -7.03620E+01 -3.85526E+02  7.52366E+02
 -2.05984E+03 -2.23972E+02 -2.34566E+03 -2.18898E+02 -3.80474E+02 -1.33608E+03  2.93138E+02 -2.28669E+03
  2.81484E+03 -2.14537E+03  2.89352E+03 -7.12337E+02  3.65213E+03  2.92889E+03  2.07682E+03  6.10224E+03
 -1.28895E+03  5.35898E+03 -6.21519E+03  2.97107E+03 -8.12153E+03  9.76983E+01 -5.50769E+03 -5.44872E+03
 -2.09282E+03 -5.85743E+03  1.65874E+03 -5.43086E+03  2.56787E+03 -2.24104E+03  3.26160E+03 -1.04035E+03
  1.99395E+03  1.32983E+03  1.31342E+03 -9.30290E+01 -1.71148E+02 -3.42002E+02 -7.81944E+01 -1.58736E+03
  2.19609E+03 -7.55587E+02  3.19468E+03 -1.07023E+03  1.14690E+03  1.90028E+03  6.51020E+02  3.36030E+03
 -2.53766E+03  3.20508E+03 -2.33412E+03 -1.33211E+02 -3.65977E+03 -2.23763E+03 -5.93704E+02 -3.77864E+03
  2.52004E+03 -3.65682E+03  3.22220E+03 -1.94199E+03  4.33893E+03  7.57484E+02  2.01146E+03  4.25513E+03
  5.97830E+02  4.35245E+03 -1.44751E+03  2.90953E+03 -1.85981E+03  9.12699E+02 -1.79774E+03  3.77378E+02
 -8.20245E+02 -9.92434E+02 -1.05556E+03  2.08857E+02 -2.21020E+03  7.26821E+02 -2.03582E+03 -1.51855E+03
 -4.19222E+03 -3.22379E+03 -6.82452E+02 -4.01871E+03  7.46904E+02 -4.26735E+03  2.71381E+03 -2.09760E+03
  4.97913E+03  1.71651E+03  1.29044E+03  1.41200E+03  5.49349E+02  5.26876E+03 -3.91380E+03  3.35582E+03
