 $NMID ID='MM_0lb_SNR200_14hz_g50_18.RAW', FMTDAT='(8E13.5)'
 TRAMP=1., VOLUME=1. $END
  3.10106E+05  1.22397E+03  3.36910E+05  2.50236E+05  8.41201E+04  3.37859E+05 -1.33252E+05  2.50004E+05
 -1.88794E+05  8.15907E+04 -1.12509E+05 -3.25487E+04  1.94054E+03 -5.08689E+04  5.50622E+04 -6.47232E+02
  3.57529E+04  5.19538E+04 -1.72002E+04  7.48627E+04 -5.99925E+04  6.31266E+04 -8.39265E+04  3.12604E+04
 -8.06378E+04 -1.09288E+04 -5.70629E+04 -5.11229E+04 -1.60639E+04 -6.94600E+04  2.82325E+04 -4.64780E+04
  3.98926E+04  3.86399E+03  1.69806E+04  4.88813E+04 -3.31732E+04  4.67127E+04 -6.60107E+04 -6.65221E+02
 -5.42073E+04 -5.73601E+04 -6.36393E+03 -7.75564E+04  3.27337E+04 -5.47890E+04  4.78614E+04 -1.68135E+04
  4.33882E+04  1.20216E+04  3.26969E+04  2.51455E+04  1.47264E+04  2.92726E+04 -5.14460E+03  2.72342E+04
 -2.26326E+04  1.22080E+04 -1.78669E+04 -5.71893E+03  6.17107E+03 -8.50155E+03  2.38235E+04  1.32094E+04
  7.83189E+03  3.42208E+04 -3.10381E+04  3.45271E+04 -6.33164E+04  1.67072E+03 -5.71857E+04 -4.28165E+04
 -1.29983E+04 -6.35349E+04  3.99523E+04 -4.56127E+04  5.85823E+04 -2.28521E+03  3.44642E+04  3.32085E+04
 -5.46386E+03  3.57447E+04 -3.00869E+04  1.59675E+04 -2.96087E+04 -4.56901E+03 -1.69183E+04 -1.09846E+04
 -9.82100E+03 -1.16009E+04 -1.34893E+03 -1.82318E+04  7.27598E+03 -2.34880E+04  1.58628E+04 -1.40230E+04
  1.22380E+04  6.71207E+03 -8.32119E+03  1.27045E+04 -2.22487E+04 -4.55724E+03 -7.86020E+03 -3.32053E+04
  2.25015E+04 -4.44899E+04  4.75293E+04 -1.93945E+04  4.56206E+04  1.98209E+04  1.63187E+04  4.39890E+04
 -1.59768E+04  3.32243E+04 -2.56897E+04  2.56593E+03 -1.06595E+04 -2.74481E+04  2.19676E+04 -3.41405E+04
  4.16074E+04 -8.81484E+03  3.50997E+04  2.37044E+04  1.93364E+04  4.76567E+04 -6.94494E+03  5.05622E+04
 -3.11732E+04  3.34639E+04 -4.31028E+04  1.00153E+04 -4.21208E+04 -1.68904E+04 -2.32734E+04 -3.80610E+04
  9.11695E+03 -3.71827E+04  3.11916E+04 -1.51699E+04  2.90647E+04  1.14644E+04  5.70295E+03  1.75969E+04
 -1.28430E+04  8.74985E+03 -1.04345E+04 -7.95122E+03  5.64090E+03 -1.14103E+04  1.73971E+04  6.11383E+03
  1.35305E+04  2.25171E+04 -6.52765E+03  2.44319E+04 -2.17940E+04  1.18831E+04 -2.89836E+04 -3.73634E+03
 -2.10769E+04 -1.87055E+04 -8.50794E+03 -2.01453E+04  4.64036E+03 -2.03648E+04  1.63887E+04 -1.89710E+04
  2.69305E+04 -1.15676E+04  3.29581E+04  3.50606E+03  2.46066E+04  1.96343E+04  4.07726E+03  3.81379E+04
 -1.77482E+04  2.93361E+04 -2.76672E+04  1.02267E+04 -2.18295E+04 -1.09257E+04 -4.33300E+03 -1.26903E+04
  1.93704E+03 -2.52202E+03 -5.48206E+03  6.45962E+03 -1.64038E+04  4.89792E+03 -1.61505E+04 -5.68001E+03
 -9.69162E+03 -1.88948E+04  5.94008E+03 -2.34497E+04  1.55417E+04 -1.66149E+04  1.93903E+04 -6.56214E+02
  1.21055E+04  1.28763E+04 -1.63209E+03  1.79751E+04 -1.39687E+04  1.10124E+04 -1.93766E+04 -4.01379E+03
 -1.44929E+04 -1.71309E+04 -1.28839E+03 -2.30776E+04  9.93802E+03 -1.76822E+04  1.88878E+04 -9.56589E+03
  1.81583E+04 -8.18163E+02  1.37386E+04  4.66208E+03  7.20302E+03  8.60865E+02  1.02571E+04 -1.87623E+03
  1.88478E+04  2.85303E+03  1.89823E+04  1.52982E+04  1.32874E+04  3.02042E+04 -3.73872E+03  3.46928E+04
 -2.05903E+04  2.65711E+04 -3.16069E+04  1.39759E+04 -3.41192E+04 -2.83950E+03 -2.80068E+04 -1.82910E+04
 -1.19954E+04 -2.82004E+04  1.12641E+04 -2.54443E+04  2.43762E+04 -1.18863E+04  1.97932E+04  6.66118E+03
  7.76501E+03  1.37570E+04 -8.05013E+03  1.33686E+04 -1.65671E+04  3.62230E+03 -1.20764E+04 -8.97167E+03
 -1.09539E+02 -1.57549E+04  7.87852E+03 -1.11610E+04  1.03658E+04 -8.65014E+02  1.75940E+03  7.46894E+03
 -7.22389E+03  2.53775E+03 -5.15279E+03 -5.66670E+03  7.11617E+02 -1.29866E+04  1.09243E+04 -1.37602E+04
  1.72091E+04 -7.06264E+03  1.83169E+04  3.12348E+03  1.58027E+04  1.42512E+04  7.39394E+03  2.07728E+04
 -3.92974E+03  2.24936E+04 -1.41019E+04  1.44378E+04 -1.56353E+04  2.76289E+03 -1.16234E+04 -4.23182E+03
 -5.26844E+03 -5.23077E+03 -1.28468E+03  1.45273E+03 -2.49468E+03  2.36277E+03 -4.11673E+03  4.08456E+03
 -8.58593E+03 -3.00343E+02 -1.12836E+04 -9.43815E+03 -4.77987E+03 -1.57220E+04  6.52691E+03 -1.08663E+04
  1.05382E+04 -4.69778E+03  8.03228E+03  3.32900E+03  3.56704E+02  4.12258E+03 -4.03074E+03  2.70889E+01
 -5.15585E+03 -7.49973E+03 -1.40372E+03 -9.96152E+03  5.83110E+03 -1.06055E+04  1.44242E+04 -5.71924E+03
  1.57953E+04  1.45101E+01  1.07845E+04  9.50778E+03  2.87528E+03  1.26328E+04 -6.73663E+03  1.14990E+04
 -8.77461E+03  3.35448E+03 -3.05820E+03 -3.10602E+03  9.13146E+02 -1.72475E+03  6.29727E+03 -9.57787E+02
  6.15178E+03  4.68410E+03  1.58753E+03  8.86753E+03 -6.88763E+03  8.73596E+03 -1.12298E+04  2.37268E+03
 -6.83364E+03 -5.36798E+03  2.46299E+02 -9.37993E+03  5.02914E+03 -4.85716E+03  5.79791E+03  2.32861E+03
  3.10431E+02  5.51464E+03 -5.77856E+03  6.95303E+03 -8.26213E+03  3.09355E+03 -8.19682E+03 -3.05821E+03
 -4.65546E+03 -9.47709E+03  3.04567E+03 -1.09244E+04  8.97298E+03 -8.15707E+03  1.11646E+04  1.47633E+03
  6.72495E+03  9.03292E+03  2.96447E+02  9.69867E+03 -8.37036E+03  6.34787E+03 -8.99714E+03 -4.28949E+02
 -8.19171E+03 -6.81274E+03 -6.83105E+01 -7.98300E+03  3.99341E+03 -6.72109E+03  5.43644E+03 -4.50551E+03
  3.33094E+03  9.96692E+02 -1.99397E+02  1.05662E+02 -1.06441E+03 -1.86187E+03  1.33558E+03 -4.38872E+03
  8.40183E+03 -2.43323E+03  9.46987E+03  6.78527E+02  8.57675E+03  6.73645E+03  5.69989E+03  1.33766E+04
 -3.17578E+03  1.28710E+04 -1.21935E+04  1.00127E+04 -1.61842E+04  1.97693E+03 -1.30712E+04 -3.71624E+03
 -6.09313E+03 -1.08283E+04 -1.56004E+02 -8.77003E+03  4.09720E+03 -3.68355E+03  3.38916E+03 -2.33812E+03
  2.88966E+03 -1.86615E+03  2.37656E+03 -2.76802E+03  4.61859E+03 -2.94381E+03  5.30227E+03 -1.13041E+03
  6.06787E+03  1.45578E+03  3.52987E+03  5.64561E+03 -1.19725E+03  7.18090E+03 -6.97410E+03  5.37296E+03
 -9.52391E+03 -4.93209E+02 -3.67293E+03 -5.78985E+03  5.88028E+02 -8.28877E+03  5.30300E+03 -9.51602E+03
  9.51449E+03 -5.12839E+03  1.10024E+04  9.29421E+02  6.81147E+03  8.26106E+03  1.70495E+03  1.01441E+04
 -3.35266E+03  8.64722E+03 -5.95852E+03  2.30977E+03 -4.22404E+03 -6.22829E+02 -1.07194E+03 -1.55154E+03
 -1.54599E+03  1.94569E+03 -1.63650E+03  2.53312E+03 -3.76822E+03  6.25887E+02 -6.72660E+03 -3.96876E+02
 -3.77677E+03 -5.89132E+03  6.91738E+02 -7.86671E+03  4.73070E+03 -7.84124E+03  7.58454E+03 -1.82532E+03
  7.38050E+03  3.46037E+03  3.26385E+03  7.58403E+03 -2.21457E+03  8.96798E+03 -5.45760E+03  5.05789E+03
 -7.22419E+03  5.29474E+02 -5.82545E+03 -4.89037E+03 -3.98141E+02 -8.22858E+03  2.62751E+03 -3.69254E+03
  4.23924E+03 -2.88823E+03  3.40291E+03  8.45362E+02  1.12280E+03  2.56648E+03  1.61879E+03  1.14554E+03
  1.80864E+03  1.58803E+02  1.06895E+03  2.21571E+03  2.56420E+03  3.16868E+03  2.38994E+03  4.60137E+03
 -3.40774E+03  5.97905E+03 -5.11789E+03  6.27185E+03 -6.95017E+03  2.39165E+03 -8.77007E+03 -3.23777E+03
 -4.08438E+03 -8.11578E+03  1.44726E+02 -8.79733E+03  3.32356E+03 -5.58795E+03  5.80088E+03 -1.65854E+03
  4.56560E+03  3.85185E+03  1.38847E+03  3.95942E+03 -6.00873E+02  2.40548E+03 -3.49332E+03 -3.41045E+02
 -1.60635E+03 -2.07711E+03  2.59546E+03 -3.84372E+03  3.95132E+03 -2.16710E+03  3.77620E+03  8.80738E+02
  7.04422E+02  1.33435E+03  1.96277E+03  9.53520E+02 -1.64514E+03  2.23882E+03  1.62059E+03 -2.59835E+02
  2.12277E+02 -1.62265E+03  3.86370E+03  1.56938E+03  1.09820E+03  3.00844E+03 -1.25873E+03  4.85127E+03
 -2.78073E+03  2.24961E+03 -5.20901E+03  1.42405E+03 -5.50218E+03 -1.10697E+03 -2.09740E+03 -2.53647E+03
  1.15127E+03 -2.16323E+03  1.98190E+03 -1.06680E+03  2.15445E+03  3.51723E+03 -2.44773E+03  3.21709E+03
 -3.33872E+03  2.02766E+03 -1.63823E+03 -2.43824E+03 -2.15773E+03 -3.56155E+03  3.79975E+02 -2.66908E+03
  1.92904E+03 -1.49244E+03  2.45830E+03 -5.90656E+02  3.30481E+03  1.18033E+03  1.90396E+03  2.05008E+03
 -2.11086E+03  2.98187E+02 -1.80695E+03 -1.06317E+03  3.49235E+02 -2.52680E+03  3.09949E+03 -1.76364E+03
  2.65185E+03  9.11945E+02  3.80730E+03  3.09427E+03  1.30928E+03  5.02179E+03 -1.48653E+03  4.25588E+03
 -3.84624E+03  2.34244E+03 -3.57316E+03 -6.38853E+01 -9.56576E+02 -3.72448E+03  5.73983E+02 -3.62049E+03
  3.28950E+03 -1.92634E+03  1.27546E+03  2.71788E+03  1.12591E+03  3.40374E+03  2.16172E+02  2.27498E+03
 -1.34225E+03  2.09109E+03 -2.17505E+03  3.62193E+02 -3.98242E+02 -9.24371E+01 -1.55266E+03  1.78463E+02
 -1.31948E+03  9.80259E+02 -3.30958E+03  1.33988E+03 -3.90669E+03  4.68870E+01 -4.76603E+03 -2.98431E+03
 -1.94485E+03 -5.36959E+03  8.37301E+02 -6.29499E+03  2.92071E+03 -7.09679E+03  5.91501E+03 -3.04724E+03
  4.86320E+03  9.36600E+02  3.35727E+03  4.62438E+03 -3.78005E+02  3.83916E+03 -2.56788E+03  2.77145E+03
 -3.21315E+03  7.24327E+02 -1.66150E+03 -7.80285E+02 -3.78128E+02 -1.11121E+03 -1.49640E+03  3.44693E+02
 -1.87518E+03 -1.36186E+02 -1.16860E+03  7.09808E+02 -8.60718E+02  9.43356E+01  2.77814E+02 -2.39411E+03
  2.45899E+03 -1.75426E+03  1.50499E+03  2.10885E+02  3.58126E+03  1.50916E+03  1.76782E+03  3.37729E+03
 -1.90297E+03  4.41257E+03 -6.08981E+03  3.01291E+03 -4.16619E+03 -1.27322E+03 -3.85412E+03 -3.31394E+03
 -1.34665E+03 -5.75741E+03  1.61201E+03 -2.44978E+03  1.83150E+03 -1.76711E+03  1.56997E+03 -4.21759E+02
  6.41225E+02  1.11610E+03 -8.78201E+01  5.02242E+02 -8.39655E+02 -6.12408E+02  1.44576E+02 -1.49508E+03
  2.03240E+03  6.57207E+02 -7.51851E+02  9.61276E+02  2.91414E+02  1.25574E+03  1.61184E+03  1.46024E+03
 -1.64185E+03  2.66148E+03 -2.03164E+03 -1.85797E+02 -2.72799E+03 -2.42713E+03  1.73350E+02 -3.07733E+03
  1.88044E+03 -1.67059E+03  2.14280E+03 -1.53473E+03  2.65845E+03  4.41921E+02  2.08845E+03  1.74173E+03
 -5.92126E+02  3.09191E+03  7.03874E+01  1.96104E+03 -1.20087E+03  1.73190E+03 -2.51049E+03 -7.32925E+02
 -6.99862E+02  1.63888E+02 -2.18122E+03 -6.20393E+02 -1.71546E+03  1.30327E+03 -2.51803E+03 -6.20524E+02
 -2.32449E+03 -8.72110E+01 -7.77355E+02 -3.20516E+03  4.21925E+02 -3.44707E+03  2.84420E+03 -1.15854E+03
  3.25868E+03  7.19024E+02  8.56007E+02  1.24012E+03  6.64326E+02  2.76717E+03 -1.32398E+03  2.11569E+03
