 $NMID ID='MM_0lb_SNR200_7hz_g40_33.RAW', FMTDAT='(8E13.5)'
 TRAMP=1., VOLUME=1. $END
  3.10245E+05  6.07469E+01  3.36581E+05  2.50999E+05  8.39438E+04  3.40655E+05 -1.31785E+05  2.51793E+05
 -1.89622E+05  8.52638E+04 -1.13429E+05 -3.31899E+04  1.90527E+03 -5.10000E+04  5.38886E+04  7.01184E+02
  3.55125E+04  5.22231E+04 -1.66783E+04  7.62774E+04 -6.15943E+04  6.53586E+04 -8.44374E+04  3.27663E+04
 -8.33594E+04 -1.36663E+04 -5.87420E+04 -5.13157E+04 -1.67365E+04 -7.16320E+04  2.69758E+04 -4.83254E+04
  4.34102E+04  3.26001E+03  1.62583E+04  4.73200E+04 -3.41509E+04  4.74160E+04 -6.99236E+04  7.48655E+02
 -5.55511E+04 -5.89328E+04 -7.95726E+03 -7.86644E+04  3.48381E+04 -5.83183E+04  5.13610E+04 -1.73356E+04
  4.50652E+04  1.06321E+04  3.34139E+04  2.73373E+04  1.40101E+04  3.02683E+04 -5.01667E+03  2.81903E+04
 -2.20248E+04  1.34090E+04 -1.78323E+04 -5.22457E+03  6.98838E+03 -6.78217E+03  2.40736E+04  1.44135E+04
  6.70849E+03  3.90485E+04 -3.46254E+04  3.69793E+04 -6.49973E+04  2.76832E+03 -5.94296E+04 -4.45764E+04
 -1.20739E+04 -6.53062E+04  4.27720E+04 -4.85506E+04  6.25469E+04 -2.64360E+03  3.53487E+04  3.35015E+04
 -6.10845E+03  3.83329E+04 -3.27707E+04  1.95875E+04 -3.50939E+04 -4.38337E+03 -2.17139E+04 -1.27277E+04
 -9.35372E+03 -1.61902E+04 -5.65539E+02 -2.02990E+04  9.65680E+03 -2.40977E+04  1.56458E+04 -1.20632E+04
  9.32829E+03  6.36835E+03 -1.09859E+04  1.23185E+04 -2.41614E+04 -7.11407E+03 -7.99251E+03 -3.73176E+04
  2.54198E+04 -4.79436E+04  5.20872E+04 -1.95949E+04  5.04272E+04  2.07025E+04  1.88109E+04  4.70685E+04
 -1.69644E+04  3.76524E+04 -2.74024E+04  3.26483E+03 -1.35526E+04 -2.94224E+04  2.03000E+04 -3.87714E+04
  4.54721E+04 -1.04399E+04  4.13610E+04  2.39825E+04  2.40153E+04  5.20361E+04 -7.69602E+03  5.85002E+04
 -3.70225E+04  4.01272E+04 -4.84532E+04  1.16433E+04 -5.22749E+04 -1.93153E+04 -2.93210E+04 -4.34232E+04
  6.16276E+03 -4.49601E+04  3.54006E+04 -1.82355E+04  3.27564E+04  1.17821E+04  5.67400E+03  2.07015E+04
 -1.20773E+04  1.05087E+04 -1.08977E+04 -8.31414E+03  5.39353E+03 -9.77023E+03  1.87664E+04  4.83202E+03
  1.61597E+04  2.26264E+04 -4.16227E+03  2.86548E+04 -2.30885E+04  1.39210E+04 -3.28740E+04 -1.07712E+03
 -2.56985E+04 -1.97333E+04 -1.22669E+04 -2.74542E+04  6.04327E+03 -2.75657E+04  2.05994E+04 -2.41147E+04
  3.45370E+04 -1.35122E+04  4.00077E+04  4.79763E+03  2.83987E+04  2.44486E+04  6.38501E+03  4.24075E+04
 -1.98370E+04  3.41398E+04 -3.06853E+04  1.24194E+04 -2.35905E+04 -8.88894E+03 -3.45552E+03 -1.34395E+04
  1.57945E+03 -1.15984E+03 -7.55649E+03  6.55065E+03 -2.13774E+04  3.08678E+03 -2.10313E+04 -1.33471E+04
 -1.04916E+04 -2.41853E+04  6.66903E+03 -2.75115E+04  2.06647E+04 -1.92906E+04  2.37783E+04 -2.88883E+03
  1.65440E+04  1.68923E+04 -1.24376E+03  2.50348E+04 -1.88728E+04  1.06589E+04 -2.63217E+04 -4.71082E+03
 -1.74823E+04 -2.19678E+04 -1.31717E+03 -2.82648E+04  1.19063E+04 -2.45503E+04  2.31118E+04 -1.27326E+04
  2.38935E+04 -1.90717E+03  1.57541E+04  3.52231E+03  1.06970E+04  6.38688E+02  1.18078E+04 -4.18287E+03
  2.37223E+04  2.81126E+03  2.72101E+04  1.81980E+04  1.93649E+04  3.90670E+04 -4.35841E+03  4.73585E+04
 -2.76129E+04  3.83482E+04 -4.45762E+04  2.14844E+04 -4.72633E+04 -4.03765E+03 -3.84714E+04 -2.89443E+04
 -1.72916E+04 -3.87690E+04  1.47227E+04 -3.46551E+04  2.93580E+04 -1.65018E+04  2.41078E+04  9.19500E+03
  8.16278E+03  1.88900E+04 -1.22323E+04  1.73042E+04 -2.00002E+04  2.50016E+03 -1.62094E+04 -1.21509E+04
  4.01697E+01 -1.96171E+04  1.20286E+04 -1.74240E+04  1.36255E+04 -1.85419E+03  3.05349E+03  9.73510E+03
 -9.40646E+03  4.50881E+03 -1.03061E+04 -7.53312E+03 -2.96169E+03 -2.02095E+04  1.35021E+04 -2.20501E+04
  2.43623E+04 -1.20661E+04  2.85222E+04  3.20617E+03  2.55396E+04  1.88499E+04  1.06210E+04  3.14814E+04
 -6.14877E+03  3.42878E+04 -2.21746E+04  2.01788E+04 -2.51050E+04  4.62798E+03 -1.80687E+04 -7.33635E+03
 -6.55266E+03 -8.97210E+03  2.47242E+02  1.56933E+03 -3.81895E+03  4.06851E+03 -5.83997E+03  4.89012E+03
 -1.54149E+04 -1.11060E+03 -1.48860E+04 -1.29709E+04 -7.06753E+03 -1.96349E+04  6.26896E+03 -1.65860E+04
  1.32678E+04 -6.35699E+03  1.07061E+04  6.03947E+03 -9.96848E+02  9.09260E+03 -9.81468E+03 -1.16500E+03
 -7.95029E+03 -1.31221E+04 -1.44066E+03 -1.70351E+04  8.84520E+03 -1.81787E+04  2.21704E+04 -8.53668E+03
  2.58302E+04  2.50801E+03  1.87297E+04  1.56253E+04  1.71155E+03  2.11333E+04 -1.12707E+04  1.67073E+04
 -1.43665E+04  5.79371E+03 -6.50178E+03 -4.19044E+03  3.05174E+03 -4.42208E+03  9.32598E+03 -1.27790E+03
  7.49591E+03  8.33008E+03  1.68291E+03  1.35607E+04 -1.04377E+04  1.01032E+04 -1.73915E+04  4.40465E+03
 -1.13716E+04 -1.20554E+04  1.56798E+03 -1.44325E+04  9.78658E+03 -9.74917E+03  1.18071E+04  4.59441E+03
  3.59631E+03  1.22342E+04 -8.68556E+03  1.30967E+04 -1.55018E+04  3.09348E+03 -1.55879E+04 -5.80652E+03
 -9.47708E+03 -1.68839E+04  4.57576E+03 -2.19606E+04  1.77882E+04 -1.27022E+04  1.99247E+04  4.05239E+03
  1.13211E+04  1.47941E+04 -1.86688E+03  1.72041E+04 -1.20063E+04  9.69115E+03 -1.48227E+04 -3.90055E+03
 -1.26505E+04 -1.10887E+04 -2.13827E+03 -1.32466E+04  5.79077E+03 -9.82695E+03  6.21659E+03 -2.90869E+03
  4.39045E+03  3.11462E+03 -1.93416E+02  2.51264E+03 -1.88498E+03 -5.15245E+03  3.84144E+03 -8.25596E+03
  1.25409E+04 -5.61918E+03  1.96275E+04  8.01341E+02  1.78661E+04  1.29814E+04  9.47462E+03  2.34898E+04
 -5.25655E+03  2.75768E+04 -2.29335E+04  1.86572E+04 -2.94722E+04  4.03605E+03 -2.65471E+04 -1.19235E+04
 -1.06066E+04 -1.90161E+04 -7.43315E+02 -1.79058E+04  6.64017E+03 -1.01777E+04  6.15831E+03 -5.44915E+03
  3.73834E+03 -2.59032E+03  4.01997E+03 -4.65672E+03  6.15363E+03 -2.52696E+03  8.74766E+03 -1.16925E+03
  1.16674E+04  1.57032E+03  8.37518E+03  1.00972E+04 -2.13183E+03  1.20772E+04 -1.36159E+04  9.97984E+03
 -1.59861E+04  2.68133E+01 -1.13763E+04 -1.23131E+04 -1.71635E+03 -1.54322E+04  1.05740E+04 -1.84597E+04
  2.02371E+04 -9.93991E+03  2.18532E+04  2.71768E+03  1.36431E+04  1.60012E+04  4.72570E+03  1.98079E+04
 -9.56722E+03  1.72326E+04 -1.26255E+04  5.57461E+03 -9.68072E+03 -1.38210E+03 -3.32898E+03 -2.43915E+03
 -1.42342E+03 -7.39267E+02 -4.04834E+03  1.53854E+03 -7.57489E+03  1.90447E+03 -1.14214E+04 -1.50458E+03
 -9.86353E+03 -1.17539E+04 -1.03980E+03 -1.81715E+04  1.11851E+04 -1.49758E+04  1.73110E+04 -6.26505E+03
  1.50972E+04  7.96282E+03  8.28916E+03  1.47249E+04 -1.44205E+03  1.65362E+04 -1.15786E+04  9.16214E+03
 -1.65118E+04  6.96011E+02 -1.30749E+04 -1.05511E+04 -4.75212E+02 -1.37825E+04  8.13794E+03 -1.10644E+04
  1.11625E+04 -2.68833E+03  6.86723E+03  3.94178E+03  1.98148E+03  5.51011E+03  3.38080E+03  4.06563E+03
  2.09390E+03  6.81587E+02  3.68229E+03  1.01610E+03  5.03797E+03  4.49925E+03  5.00116E+03  9.22287E+03
 -4.87343E+03  1.50487E+04 -1.44868E+04  1.43892E+04 -1.94556E+04  2.50761E+03 -1.96160E+04 -9.08564E+03
 -9.51143E+03 -1.79969E+04  1.47652E+03 -1.84512E+04  9.91114E+03 -1.24133E+04  1.46672E+04 -4.01887E+03
  1.14850E+04  9.04962E+03  2.16769E+03  9.40246E+03 -4.68598E+03  6.06497E+03 -6.96356E+03  5.92369E+02
 -2.38034E+03 -7.93915E+03  4.87803E+03 -8.00476E+03  7.87421E+03 -3.33891E+03  6.52726E+03  2.79328E+02
  3.76926E+03  2.80205E+03  2.85067E+03  3.75742E+03  7.11966E+02  4.00611E+03 -7.49988E+02  6.30223E+02
  3.59460E+03 -2.35672E+03  8.04814E+03  1.30953E+03  4.80311E+03  9.01943E+03 -1.32224E+03  1.33850E+04
 -1.04099E+04  7.56889E+03 -1.20204E+04  2.65415E+03 -1.09151E+04 -4.84093E+03 -2.84259E+03 -7.71473E+03
  8.30892E+02 -7.40686E+03  5.17687E+03 -5.39853E+03  4.47174E+03  4.53720E+03 -2.67318E+03  5.97366E+03
 -5.54103E+03  3.26532E+03 -8.64412E+03 -4.20176E+03 -6.01894E+03 -9.59333E+03  1.94440E+03 -8.99492E+03
  6.52541E+03 -6.82205E+03  8.32331E+03  6.40381E+02  7.08283E+03  2.53966E+03  1.88614E+02  5.32501E+03
 -2.89718E+03  3.36237E+03 -5.66679E+03 -1.99978E+03  7.71414E+02 -9.79530E+03  7.72875E+03 -7.28591E+03
  1.22964E+04  1.99865E+03  1.24290E+04  8.25157E+03  3.97421E+03  1.24913E+04 -3.41972E+03  1.13187E+04
 -1.16627E+04  6.87875E+03 -1.04317E+04  1.40639E+01 -5.09871E+03 -9.33421E+03  2.11676E+02 -7.45630E+03
  5.71028E+03 -4.52637E+03  6.56808E+03  2.92171E+03  1.79992E+03  8.11688E+03  2.54985E+02  5.66306E+03
 -3.49820E+03  3.90584E+03 -3.85399E+03  9.59203E+02  1.86142E+02  1.95712E+03 -2.84400E+03  1.60416E+03
 -2.64172E+03  5.21884E+03 -8.28549E+03  3.71751E+03 -1.20105E+04 -2.40930E+02 -1.34832E+04 -6.53104E+03
 -6.50376E+03 -1.45657E+04  3.84858E+03 -2.02433E+04  1.29273E+04 -1.59649E+04  1.70400E+04 -4.83152E+03
  1.84008E+04  4.36349E+03  1.12500E+04  1.16031E+04  1.27725E+03  1.30585E+04 -6.16625E+03  1.09517E+04
 -7.79469E+03  2.70583E+03 -4.46049E+03 -2.87211E+03 -1.95969E+03 -2.69683E+03 -2.39627E+03  4.18160E+02
 -2.41946E+03  1.00603E+03 -3.88513E+03 -5.93367E+02 -2.36355E+03 -3.47737E+03 -1.67857E+03 -5.10572E+03
  5.79349E+03 -3.66600E+03  7.99627E+03  1.53453E+03  1.00670E+04  7.62260E+03  2.60165E+03  1.38818E+04
 -8.20065E+03  1.43599E+04 -1.50938E+04  1.02193E+04 -1.70547E+04 -2.73296E+03 -1.09616E+04 -9.84706E+03
 -5.36491E+03 -1.65474E+04  3.97046E+03 -1.42377E+04  8.61175E+03 -7.24567E+03  9.03929E+03  6.11802E+02
  3.86972E+03  5.72974E+03  1.84604E+02  3.94706E+03 -2.32394E+03 -7.39577E+02 -6.31550E+02 -1.88954E+03
  4.48079E+03 -2.03686E+03  4.36105E+03  1.91806E+03  2.16220E+03  6.12532E+03  3.48231E+02  7.07326E+03
 -6.36576E+03  8.42642E+03 -9.93600E+03  2.56955E+03 -8.14370E+03 -7.56996E+03 -6.23132E+01 -1.10189E+04
  6.14969E+03 -9.76708E+03  1.11095E+04 -1.61758E+03  1.01266E+04  2.30273E+03  6.01976E+03  8.10856E+03
  1.37123E+03  9.18538E+03 -3.70171E+03  9.60175E+03 -5.91415E+03  2.35598E+03 -5.46813E+03  4.30997E+02
 -3.77799E+03 -1.23959E+03 -2.88054E+03  6.34948E+02 -5.24895E+03  1.24177E+03 -7.46130E+03 -1.52767E+03
 -6.51802E+03 -5.67295E+03 -2.38597E+03 -9.88010E+03  3.74226E+03 -9.67427E+03  9.35372E+03 -6.72851E+03
  1.05130E+04  1.40355E+03  6.85204E+03  8.00530E+03 -9.44471E+02  9.34891E+03 -8.69117E+03  6.09080E+03
