 $NMID ID='MM_0lb_SNR200_17hz_g40_79.RAW', FMTDAT='(8E13.5)'
 TRAMP=1., VOLUME=1. $END
  3.09508E+05  4.02328E+02  3.37220E+05  2.50267E+05  8.51431E+04  3.37498E+05 -1.32579E+05  2.49932E+05
 -1.89208E+05  8.22508E+04 -1.10359E+05 -3.31306E+04  2.82937E+03 -4.97868E+04  5.30844E+04 -2.58245E+02
  3.51349E+04  5.29602E+04 -1.70795E+04  7.47079E+04 -5.98858E+04  6.29840E+04 -8.32934E+04  3.18732E+04
 -7.97864E+04 -1.11909E+04 -5.63443E+04 -5.07695E+04 -1.50295E+04 -6.79903E+04  2.74449E+04 -4.51911E+04
  3.91063E+04  5.80741E+03  1.55848E+04  4.70922E+04 -3.37635E+04  4.72941E+04 -6.46434E+04 -3.20244E+02
 -5.10044E+04 -5.59883E+04 -6.53799E+03 -7.54850E+04  3.30649E+04 -5.38376E+04  4.59031E+04 -1.65447E+04
  4.16368E+04  1.02110E+04  3.25321E+04  2.38120E+04  1.61506E+04  2.74314E+04 -3.20069E+03  2.71187E+04
 -2.21944E+04  1.19600E+04 -2.00872E+04 -3.87835E+03  4.01691E+03 -7.28759E+03  2.02627E+04  1.05327E+04
  7.82403E+03  3.38324E+04 -2.96916E+04  3.46673E+04 -6.13865E+04  2.38615E+03 -5.53129E+04 -4.21684E+04
 -1.29079E+04 -6.15152E+04  3.80458E+04 -4.39097E+04  5.56970E+04 -2.50734E+03  3.29797E+04  3.06535E+04
 -6.43324E+03  3.38747E+04 -2.93471E+04  1.41277E+04 -2.77486E+04 -5.20576E+03 -1.46455E+04 -1.12680E+04
 -8.17920E+03 -1.18685E+04 -7.39129E+02 -1.65902E+04  6.54773E+03 -2.29031E+04  1.40863E+04 -1.45027E+04
  1.17766E+04  4.86802E+03 -6.11107E+03  1.22237E+04 -1.94475E+04 -3.24960E+03 -8.17339E+03 -3.14042E+04
  2.13040E+04 -4.15101E+04  4.47188E+04 -1.90287E+04  4.21058E+04  1.78989E+04  1.48151E+04  4.29558E+04
 -1.62139E+04  3.12419E+04 -2.29668E+04  1.47732E+03 -8.28725E+03 -2.58477E+04  1.92271E+04 -3.16158E+04
  3.86317E+04 -7.85408E+03  3.19690E+04  2.28545E+04  1.64840E+04  4.30427E+04 -7.00872E+03  4.55653E+04
 -2.85904E+04  2.96100E+04 -3.71985E+04  9.33242E+03 -3.87928E+04 -1.45748E+04 -2.09418E+04 -3.43886E+04
  8.01835E+03 -3.36947E+04  2.86672E+04 -1.14486E+04  2.70321E+04  1.09963E+04  2.48656E+03  1.85566E+04
 -1.22552E+04  7.81671E+03 -8.48629E+03 -7.90389E+03  5.85767E+03 -1.00890E+04  1.75975E+04  5.56360E+03
  1.20908E+04  2.14128E+04 -5.79762E+03  2.39239E+04 -2.11091E+04  9.43854E+03 -2.50854E+04 -7.04268E+03
 -1.70232E+04 -1.65407E+04 -5.95466E+03 -1.72045E+04  4.34960E+03 -1.46607E+04  1.26315E+04 -1.39373E+04
  2.13801E+04 -1.19329E+04  2.82940E+04  1.52930E+03  2.15140E+04  1.54851E+04  3.34550E+03  3.33634E+04
 -1.67649E+04  2.86227E+04 -2.60306E+04  9.84393E+03 -2.02548E+04 -1.11375E+04 -3.47456E+03 -1.43117E+04
  2.27917E+03 -3.55283E+03 -3.20170E+03  5.12882E+03 -1.45165E+04  5.92357E+03 -1.43064E+04 -6.20770E+03
 -8.67353E+03 -1.67295E+04  5.40278E+03 -2.01931E+04  1.25760E+04 -1.43222E+04  1.68453E+04 -1.75297E+03
  8.87953E+03  1.02646E+04 -6.22751E+02  1.58004E+04 -1.00327E+04  9.13656E+03 -1.53631E+04 -2.82073E+03
 -1.18981E+04 -1.39351E+04 -1.93650E+03 -1.95905E+04  9.10404E+03 -1.58148E+04  1.70398E+04 -7.52524E+03
  1.50522E+04  3.52987E+02  1.10093E+04  3.38997E+03  5.71782E+03  4.30242E+02  7.37052E+03 -1.69152E+03
  1.48796E+04  3.01781E+03  1.54420E+04  1.25550E+04  9.31162E+03  2.50850E+04 -3.97169E+03  2.82083E+04
 -1.63207E+04  2.14218E+04 -2.53770E+04  1.16437E+04 -2.57700E+04 -1.89757E+03 -2.25482E+04 -1.47303E+04
 -1.07548E+04 -2.10451E+04  6.99171E+03 -2.03401E+04  1.80758E+04 -9.90775E+03  1.58415E+04  3.31582E+03
  6.39742E+03  1.16783E+04 -7.31071E+03  1.06387E+04 -1.36173E+04  2.20835E+03 -1.09038E+04 -8.39345E+03
  9.26085E+02 -1.31833E+04  5.38296E+03 -9.23504E+03  8.71105E+03 -1.26406E+03  1.52758E+03  4.03308E+03
 -5.43898E+03  1.65306E+03 -2.82290E+03 -4.82731E+03 -6.97851E+02 -1.07593E+04  8.42523E+03 -9.91372E+03
  1.36300E+04 -5.43761E+03  1.31091E+04  2.17190E+03  1.13701E+04  9.25589E+03  4.47679E+03  1.39755E+04
 -2.01453E+03  1.70227E+04 -1.01183E+04  9.94257E+03 -1.24980E+04  3.05270E+03 -8.73418E+03 -1.36359E+03
 -4.60983E+03 -4.29827E+03 -1.43084E+03  6.43870E+02 -2.19133E+03  1.95756E+03 -3.81728E+03  3.42203E+03
 -8.42116E+03 -7.58060E+02 -9.54070E+03 -6.49280E+03 -4.03415E+03 -1.25762E+04  4.36982E+03 -9.02735E+03
  8.42142E+03 -3.92336E+03  4.86335E+03  1.29097E+03  1.09140E+03  3.10034E+03 -3.00098E+03 -1.68338E+02
 -3.88184E+03 -4.14002E+03 -3.02024E+02 -7.08473E+03  4.35724E+03 -8.39041E+03  1.09168E+04 -4.30759E+03
  1.20702E+04  1.26903E+03  9.60074E+03  7.02563E+03  1.90092E+03  9.78062E+03 -5.67043E+03  8.95315E+03
 -6.62498E+03  3.42947E+03 -3.03893E+03 -1.30648E+03  1.76546E+03 -2.73262E+03  5.84018E+03 -9.59091E+02
  3.46322E+03  3.08057E+03  2.13579E+03  6.59431E+03 -3.70172E+03  6.36726E+03 -8.08030E+03  2.40397E+03
 -5.30662E+03 -4.87123E+03  8.62941E+02 -6.81187E+03  3.46821E+03 -2.87377E+03  4.11591E+03  1.19825E+03
  1.98839E+02  4.50245E+03 -3.59826E+03  5.93798E+03 -5.09800E+03  3.96834E+03 -5.22663E+03 -1.04876E+03
 -2.25827E+03 -6.73929E+03  2.54970E+03 -7.00895E+03  6.86958E+03 -4.74709E+03  7.37437E+03  8.86437E+02
  5.50712E+03  6.90502E+03  4.17350E+02  7.30584E+03 -5.40679E+03  3.99397E+03 -5.55721E+03 -5.63744E+01
 -6.53371E+03 -5.12953E+03 -1.62982E+03 -6.53595E+03  1.89315E+03 -3.97342E+03  3.70547E+03 -3.08053E+03
  3.26219E+03 -2.72479E+01  3.82862E+02  2.26855E+03  3.63561E+00 -9.66952E+02  6.34620E+02 -1.71866E+03
  4.29696E+03 -1.34546E+03  7.08638E+03  1.34873E+03  6.47420E+03  3.92989E+03  4.71375E+03  8.86505E+03
 -2.24005E+03  1.01845E+04 -7.92332E+03  6.55695E+03 -1.13657E+04  1.65007E+03 -8.09992E+03 -3.75830E+03
 -3.83916E+03 -7.20695E+03 -1.69044E+02 -6.54452E+03  1.72128E+03 -2.78733E+03  3.10889E+03 -2.21147E+03
  1.01524E+03 -2.10966E+03  2.21941E+03 -2.19304E+03  3.78656E+03 -1.84587E+03  3.74527E+03  1.46714E+03
  4.70653E+03  1.86083E+03  1.50152E+03  3.16044E+03 -1.79697E+03  3.88244E+03 -5.32115E+03  2.79729E+03
 -5.07536E+03 -3.43172E+02 -3.09105E+03 -5.39308E+03  5.18445E+02 -6.04267E+03  3.89554E+03 -5.50829E+03
  7.27286E+03 -3.75079E+03  7.51805E+03  5.42268E+02  6.40463E+03  3.93631E+03  1.83940E+03  6.70299E+03
 -2.69434E+03  7.77771E+03 -3.28568E+03  2.15548E+03 -2.74549E+03 -1.21481E+03 -7.09497E+02  3.11500E+02
 -1.56211E+03 -2.60214E+02 -1.49970E+03  1.29894E+03 -3.58557E+03  1.12708E+03 -4.39199E+03 -7.30224E+02
 -1.69548E+03 -4.72395E+03  5.64287E+02 -4.61459E+03  4.03069E+03 -5.39607E+03  4.21358E+03 -1.08930E+03
  4.82853E+03  2.85434E+03  1.70998E+03  4.02475E+03 -5.46592E+02  5.60552E+03 -2.57943E+03  2.61369E+03
 -4.22418E+03 -3.33494E+02 -5.14057E+03 -3.25479E+03 -8.41618E+02 -3.84164E+03  1.57310E+03 -3.30326E+03
  3.08776E+03 -8.83886E+02  2.93867E+03  7.32867E+02 -9.40317E+01  5.77784E+02  1.37648E+03  4.61171E+02
  2.35908E+03  9.14781E+02  1.74641E+03  8.43272E+02  1.29748E+03  2.90214E+03  2.24144E+03  2.42541E+03
 -8.52916E+02  3.28947E+03 -3.82098E+03  5.10571E+03 -2.85509E+03  1.29275E+03 -6.90932E+03 -3.02398E+02
 -2.65577E+03 -4.82351E+03  1.41457E+03 -4.00048E+03  2.02034E+03 -2.25454E+03  4.53302E+03 -1.61179E+03
  3.61235E+03  2.30565E+03  4.44860E+02  2.50430E+03 -1.03878E+03  1.08070E+03  9.82563E+01 -2.22357E+02
 -5.02822E+02 -1.59125E+03  1.09582E+03 -4.69901E+02  1.89425E+03 -1.19144E+03  1.02325E+03  9.80735E+02
  1.60875E+03  3.28136E+02  1.76574E+03  3.18188E+02  1.07826E+02  1.36304E+03  1.65179E+03 -4.12323E+02
 -9.02422E+00 -9.59536E+02  1.59253E+03  1.12544E+03  8.45310E+02  2.90104E+03 -3.13397E+01  2.83548E+03
 -1.31385E+03  9.82712E+02 -2.44950E+03  4.20727E+02 -2.66113E+03 -1.13346E+03  4.72427E+02 -1.17947E+03
 -5.26772E+02 -1.93580E+03  1.25038E+03 -1.67041E+03  7.90663E+02  5.60429E+02 -1.20488E+03  1.98142E+03
 -2.43293E+03  8.71486E+02 -1.44811E+03 -1.58192E+03 -1.49291E+03 -2.67210E+03  7.52354E+02 -2.08561E+03
  1.21667E+03 -3.14983E+02  8.45113E+02  1.12053E+03  1.58873E+03  3.42164E+02  1.13929E+03  1.51147E+03
  5.95733E+01 -1.03060E+03 -9.21681E+02 -1.21942E+03  1.27093E+03 -1.37053E+03  2.76591E+03 -9.76754E+02
  2.15507E+03  5.36476E+02  3.53046E+03 -5.87953E+01  1.78972E+03  2.69034E+03 -1.05709E+02  4.26323E+02
 -2.37763E+03  1.87641E+03 -1.14907E+03  6.52955E+02 -4.34438E+02 -2.15844E+03 -2.20586E+02 -1.07044E+03
  1.76617E+03 -1.44156E+03  1.01992E+03  2.60549E+03  8.90526E+02  1.96877E+03  6.49484E+02  1.93047E+03
 -4.17596E+02  4.94339E+02  1.03948E+01  2.25669E+02  6.44948E+02  6.59075E+02 -1.91429E+03  1.08055E+03
 -1.58244E+03  2.10824E+03 -2.89888E+03  5.77169E+02 -3.25162E+03 -4.20270E+02 -3.40433E+03 -8.85918E+02
 -2.03243E+03 -3.37070E+03  1.07751E+03 -3.77581E+03  1.72290E+03 -2.50770E+03  5.15147E+03 -1.09408E+03
  3.79115E+03 -4.18131E+02  1.80437E+03  1.72427E+03 -1.91843E+02  2.21765E+03 -1.64258E+03  2.23798E+03
 -9.70901E+02  5.44621E+02 -6.16718E+02 -9.25351E+02 -3.74800E+02 -1.07861E+03 -3.11622E+02 -3.29741E+02
 -1.35119E+03 -3.28482E+02 -1.29502E+03  1.39288E+03  6.30712E+02 -9.46911E+02  4.54185E+02 -5.90511E+02
  2.19114E+03  5.34427E+02  1.82099E+03  3.57738E+02  5.18636E+02  2.04851E+03 -1.36081E+03  1.41543E+03
 -1.45963E+03  2.59126E+03 -2.49491E+03  2.19369E+03 -1.90842E+03  3.56514E+02 -5.33204E+02 -2.35273E+03
 -9.09859E+02 -2.06990E+03  3.65379E+02 -1.33526E+03  8.30791E+02 -1.76353E+02  5.79203E+02  2.08384E+02
  1.67066E+03  3.19357E+02  2.13726E+02  9.60943E+02  1.82995E+02 -8.89732E+02 -2.37716E+02 -3.54149E+02
  8.84446E+02 -2.10036E+02  1.38337E+03  1.09505E+03  1.43001E+03  1.52659E+03 -1.15116E+02  9.18381E+02
  3.24677E+02  1.08299E+03 -1.10845E+03  6.49835E+01 -1.23275E+03 -1.59217E+03 -5.96899E+02 -2.12316E+03
  2.74277E+02 -4.45715E+02  6.23722E+02  9.96834E+01  1.89941E+03 -2.12212E+02 -7.43157E+02  1.62601E+03
  1.35745E+02  1.48419E+03  7.55128E+02 -2.61209E+02 -9.30304E+02 -8.27419E+02  7.04950E+02 -1.16202E+02
  8.62387E+02 -1.18596E+03 -1.57609E+03  3.46896E+02 -8.61486E+02  2.07922E+02 -2.32068E+03  2.53526E+02
 -1.41275E+03  1.85513E+02 -1.59407E+03 -9.82070E+02  8.77144E+02 -1.52457E+03  1.33843E+03 -4.81244E+02
  6.88455E+02  8.12269E+02 -1.41844E+02  1.36627E+03 -6.38661E+02  5.94311E+02 -1.13166E+03  1.02157E+03
