 $NMID ID='MM_0lb_SNR200_11hz_g50_73.RAW', FMTDAT='(8E13.5)'
 TRAMP=1., VOLUME=1. $END
  3.09384E+05 -3.43542E+02  3.37460E+05  2.50195E+05  8.39599E+04  3.36646E+05 -1.32517E+05  2.51740E+05
 -1.91652E+05  8.29438E+04 -1.10925E+05 -3.29173E+04  3.21076E+02 -5.02110E+04  5.45379E+04 -5.88194E+02
  3.53339E+04  5.24352E+04 -1.70596E+04  7.55991E+04 -6.18713E+04  6.47049E+04 -8.36610E+04  3.31695E+04
 -8.11292E+04 -1.06339E+04 -5.74483E+04 -5.09418E+04 -1.54595E+04 -7.02878E+04  2.77551E+04 -4.60107E+04
  4.00520E+04  3.23867E+03  1.76045E+04  4.87109E+04 -3.45177E+04  4.99424E+04 -6.65203E+04 -1.80288E+02
 -5.16690E+04 -5.84662E+04 -7.39508E+03 -7.79514E+04  3.39499E+04 -5.59707E+04  4.90971E+04 -1.85991E+04
  4.43244E+04  1.14955E+04  3.29743E+04  2.60251E+04  1.67410E+04  3.08043E+04 -5.27671E+03  2.81775E+04
 -2.26083E+04  1.34599E+04 -1.80125E+04 -6.49593E+03  5.55161E+03 -7.98655E+03  2.43235E+04  1.36645E+04
  5.87611E+03  3.61610E+04 -3.36218E+04  3.75309E+04 -6.47255E+04  1.53579E+03 -5.86640E+04 -4.48918E+04
 -1.22192E+04 -6.45115E+04  4.08182E+04 -4.69062E+04  6.03377E+04 -2.30479E+03  3.52301E+04  3.36350E+04
 -5.41171E+03  3.77739E+04 -3.14876E+04  1.82814E+04 -3.30170E+04 -3.85692E+03 -1.92570E+04 -1.20715E+04
 -9.75321E+03 -1.58641E+04 -7.22810E+02 -2.12253E+04  7.82559E+03 -2.35885E+04  1.47977E+04 -1.30463E+04
  1.01484E+04  6.41735E+03 -8.69942E+03  1.19203E+04 -2.37298E+04 -5.35818E+03 -1.03752E+04 -3.54266E+04
  2.43350E+04 -4.54377E+04  5.11979E+04 -2.26811E+04  4.70627E+04  1.97468E+04  1.75787E+04  4.50026E+04
 -1.68523E+04  3.36857E+04 -2.71779E+04  2.71311E+03 -1.23281E+04 -2.84679E+04  2.13317E+04 -3.42395E+04
  4.28052E+04 -1.13812E+04  3.94887E+04  2.51515E+04  2.08944E+04  4.98747E+04 -8.29384E+03  5.22599E+04
 -3.44684E+04  3.60477E+04 -4.63963E+04  1.14914E+04 -4.52439E+04 -1.71257E+04 -2.53241E+04 -4.02641E+04
  7.29989E+03 -4.11413E+04  3.32746E+04 -1.67253E+04  3.07502E+04  1.14183E+04  4.53080E+03  1.90833E+04
 -1.28773E+04  7.63382E+03 -1.07330E+04 -8.20397E+03  7.04415E+03 -1.04261E+04  1.94944E+04  5.84380E+03
  1.28691E+04  2.36922E+04 -5.63949E+03  2.52364E+04 -2.32363E+04  1.37976E+04 -2.98854E+04 -4.08066E+03
 -2.33580E+04 -1.80340E+04 -1.02822E+04 -2.27691E+04  3.55331E+03 -2.48390E+04  1.94041E+04 -2.09739E+04
  3.05835E+04 -1.44324E+04  3.67249E+04  5.52493E+03  2.65152E+04  2.30868E+04  4.45165E+03  3.95202E+04
 -1.82812E+04  3.14402E+04 -3.03332E+04  1.07376E+04 -2.27258E+04 -9.88510E+03 -3.97865E+03 -1.21938E+04
 -2.85671E+02 -2.18712E+03 -6.48387E+03  7.50236E+03 -1.89100E+04  5.03086E+03 -2.05043E+04 -8.99875E+03
 -1.14953E+04 -2.08958E+04  4.50983E+03 -2.69748E+04  1.62104E+04 -1.87886E+04  2.12224E+04 -2.74348E+03
  1.28209E+04  1.53255E+04 -1.38153E+03  2.13726E+04 -1.31547E+04  1.32692E+04 -2.18153E+04 -4.52693E+03
 -1.70857E+04 -1.79303E+04 -2.47549E+03 -2.52515E+04  1.18701E+04 -2.16649E+04  2.22553E+04 -1.05974E+04
  2.10678E+04 -3.54300E+02  1.55514E+04  3.45696E+03  7.28724E+03  1.97990E+03  9.59070E+03 -3.12398E+03
  2.03099E+04  2.39291E+03  2.33752E+04  1.61706E+04  1.60646E+04  3.40316E+04 -2.35814E+03  3.88256E+04
 -2.22718E+04  3.30088E+04 -3.73119E+04  1.60873E+04 -4.06874E+04 -3.91808E+03 -3.23076E+04 -2.32978E+04
 -1.45411E+04 -3.22866E+04  1.37444E+04 -3.03424E+04  2.56004E+04 -1.54440E+04  2.25211E+04  7.48467E+03
  6.82170E+03  1.57430E+04 -9.94356E+03  1.41158E+04 -1.83405E+04  3.55620E+03 -1.36597E+04 -1.19147E+04
 -1.20445E+03 -1.73365E+04  9.29528E+03 -1.46737E+04  1.23759E+04 -1.21868E+03  3.03621E+03  7.15968E+03
 -8.13675E+03  3.79674E+03 -7.17712E+03 -6.47123E+03 -9.20809E+01 -1.61601E+04  8.79883E+03 -1.78097E+04
  2.05520E+04 -1.00066E+04  2.20973E+04  2.79462E+03  2.00966E+04  1.69883E+04  8.87238E+03  2.69019E+04
 -4.01346E+03  2.87308E+04 -1.66291E+04  1.76820E+04 -1.89096E+04  4.11144E+03 -1.36874E+04 -3.71777E+03
 -6.82894E+03 -6.98495E+03  7.65156E+01  3.04390E+02 -3.05509E+03  1.26928E+03 -6.80370E+03  4.54694E+03
 -1.36429E+04  1.97308E+02 -1.43477E+04 -1.11857E+04 -3.74954E+03 -1.71378E+04  6.15997E+03 -1.31024E+04
  1.12037E+04 -5.78293E+03  8.26905E+03  4.98052E+03 -9.29197E+02  6.14648E+03 -6.41609E+03  3.30205E+02
 -6.58660E+03 -8.25792E+03 -1.23692E+03 -1.33688E+04  8.22289E+03 -1.46612E+04  1.69095E+04 -7.70397E+03
  2.17896E+04  2.61612E+03  1.28580E+04  1.37170E+04  2.09364E+03  1.52851E+04 -8.18556E+03  1.47685E+04
 -1.16333E+04  2.76470E+03 -7.02663E+03 -3.25937E+03  1.57060E+03 -2.78541E+03  7.12427E+03  7.10292E+01
  7.01303E+03  5.53962E+03  1.31317E+03  1.13662E+04 -9.18940E+03  1.11366E+04 -1.43849E+04  2.13815E+03
 -8.96616E+03 -6.35768E+03  1.37722E+02 -1.09653E+04  8.93359E+03 -6.37891E+03  8.48791E+03  3.03709E+03
  1.76632E+03  7.97535E+03 -6.93972E+03  1.05581E+04 -1.06311E+04  4.38673E+03 -1.11764E+04 -3.46063E+03
 -7.67688E+03 -1.30900E+04  3.79351E+03 -1.54857E+04  1.25066E+04 -9.37710E+03  1.48725E+04  2.47464E+03
  9.71601E+03  9.98439E+03 -1.49370E+03  1.27526E+04 -1.03196E+04  8.22948E+03 -1.07635E+04 -2.02097E+03
 -7.99892E+03 -8.10003E+03 -1.89228E+03 -1.09284E+04  6.28500E+03 -8.92162E+03  6.91730E+03 -4.01683E+03
  4.18160E+03  1.53876E+03 -2.54960E+03  2.82496E+03  4.71009E+02 -3.03280E+03  2.41665E+03 -6.46177E+03
  8.67056E+03 -4.50189E+03  1.31329E+04  9.67608E+02  1.24074E+04  8.97835E+03  7.40011E+03  1.78368E+04
 -4.27364E+03  2.03802E+04 -1.79135E+04  1.42503E+04 -2.15168E+04  1.88508E+03 -1.70713E+04 -7.25107E+03
 -8.10358E+03 -1.41004E+04 -2.97985E+02 -1.06890E+04  4.63769E+03 -5.30145E+03  4.89541E+03 -4.81942E+03
  3.10230E+03 -2.56858E+03  1.97508E+03 -3.12156E+03  3.95735E+03 -2.30657E+03  8.48166E+03 -1.02461E+03
  8.06352E+03  3.14131E+03  5.09444E+03  7.14401E+03 -1.68811E+03  1.05182E+04 -8.33531E+03  8.01456E+03
 -1.25476E+04 -6.37058E+02 -6.51046E+03 -8.68356E+03 -6.82107E+02 -1.32033E+04  7.58329E+03 -1.22167E+04
  1.23606E+04 -5.99220E+03  1.73083E+04  2.03103E+03  1.15729E+04  1.15161E+04  1.00348E+03  1.44480E+04
 -6.74737E+03  1.27052E+04 -7.86377E+03  3.65809E+03 -6.13573E+03 -1.75695E+03 -1.99673E+03 -9.75422E+02
 -2.28379E+03  1.42729E+03 -3.16241E+03  1.72698E+03 -5.90561E+03  2.96432E+02 -9.07847E+03 -7.49661E+02
 -4.27200E+03 -6.97742E+03  1.12188E+03 -1.25220E+04  7.98317E+03 -1.05411E+04  9.35200E+03 -3.82058E+03
  1.19845E+04  6.72990E+03  4.81896E+03  1.13097E+04 -1.51881E+03  1.17317E+04 -7.73147E+03  7.72134E+03
 -1.02465E+04  1.49861E+03 -7.85744E+03 -6.90168E+03 -9.21976E+02 -9.21389E+03  5.11605E+03 -6.09283E+03
  7.69692E+03 -3.09196E+03  4.28462E+03  1.68052E+03  1.34907E+03  3.40362E+03  1.58814E+03  2.21080E+03
  2.38067E+03  3.81390E+02  2.59828E+03  3.13606E+03  3.44869E+03  5.03356E+03  1.82494E+03  5.65994E+03
 -1.34669E+03  7.58739E+03 -7.92710E+03  7.44266E+03 -1.19129E+04  2.79332E+03 -1.22887E+04 -4.44555E+03
 -7.00143E+03 -1.21179E+04  2.78308E+03 -1.23864E+04  6.08209E+03 -9.59152E+03  8.30103E+03 -2.66591E+03
  8.49043E+03  4.49382E+03  1.85835E+03  6.19991E+03 -4.20152E+03  3.99048E+03 -4.19200E+03 -4.26371E+01
 -1.79102E+03 -4.14076E+03  3.33239E+03 -4.61947E+03  4.87165E+03 -4.50391E+03  5.54884E+03  1.21448E+03
  1.74371E+03  1.19255E+03  2.85371E+03  1.42867E+03 -1.05140E+03  2.27097E+03  1.93460E+03 -4.59351E+02
  2.13645E+03 -6.05928E+02  4.54905E+03  7.68338E+02  1.18287E+03  7.14864E+03 -2.15178E+03  7.95939E+03
 -3.11717E+03  6.15769E+03 -8.03368E+03  4.67457E+02 -7.26559E+03 -3.09031E+03 -2.92327E+03 -4.16826E+03
  1.46302E+03 -2.89251E+03  3.98201E+03 -6.66542E+02  2.36708E+03  2.09790E+03 -1.46438E+03  3.43572E+03
 -4.24650E+03  3.29956E+03 -5.95256E+03 -2.68219E+03 -1.89277E+03 -6.70254E+03  1.80872E+03 -6.81243E+03
  3.41341E+03 -4.14347E+03  4.56786E+03 -1.18602E+03  3.55960E+03  5.63629E+02 -9.53684E+02  1.80084E+03
 -2.32722E+03  6.75960E+02 -3.71078E+03 -2.54007E+03  1.59768E+03 -4.81153E+03  6.22917E+03 -1.74426E+03
  6.75912E+03  2.76953E+01  7.48444E+03  5.01247E+03  1.78130E+03  7.71573E+03 -2.86696E+03  6.52237E+03
 -4.53313E+03  3.08114E+03 -6.00903E+03 -1.80685E+03 -4.25301E+03 -4.85594E+03  1.69357E+03 -3.51042E+03
  4.41906E+03 -2.78942E+03  2.73849E+03  1.57738E+03  1.64748E+03  3.89196E+03 -8.06521E+02  4.39779E+03
 -2.02556E+03  1.65193E+03 -4.55148E+02 -7.79814E+02 -1.85897E+03  1.54819E+02 -2.77409E+03  1.01166E+03
 -3.60897E+03  3.39958E+03 -4.36240E+03  2.71392E+03 -7.36602E+03  1.73204E+03 -7.38463E+03 -4.30144E+03
 -3.83719E+03 -8.27377E+03 -1.57225E+02 -1.20255E+04  5.73929E+03 -9.01171E+03  1.15394E+04 -3.11244E+03
  9.44825E+03  3.09185E+03  6.21649E+03  6.59276E+03  8.74299E+02  7.44364E+03 -1.52476E+03  5.05492E+03
 -3.61860E+03  2.38503E+03 -2.28863E+03 -1.51206E+03 -7.91621E+02 -3.75843E+02 -6.19662E+02  5.65055E+02
 -2.69094E+02  3.25170E+02 -2.50185E+03 -1.38017E+03 -1.44841E+03 -2.64079E+03 -7.11024E+02 -2.33698E+03
  3.14478E+03 -6.75541E+02  5.59974E+03  3.77087E+02  6.23705E+03  5.23528E+03  1.89338E+03  7.84769E+03
 -2.36501E+03  8.53569E+03 -7.68840E+03  5.18287E+03 -8.84078E+03 -1.94992E+02 -6.05723E+03 -5.57630E+03
 -2.94630E+03 -7.38347E+03  5.76558E+02 -7.16085E+03  4.61581E+03 -3.90528E+03  4.70746E+03  9.84016E+02
  3.54826E+03  2.52925E+03 -4.45278E+02  2.88818E+03 -1.04646E+03  1.38024E+03  1.44097E+02 -2.54777E+03
  1.48594E+03  1.11869E+02  2.61594E+03  1.72518E+03  2.37095E+03  2.65179E+03 -4.07518E+02  4.13771E+03
 -4.19900E+03  3.85569E+03 -5.09239E+03 -3.26597E+02 -3.43622E+03 -3.65697E+03 -1.19296E+03 -5.15305E+03
  1.97999E+03 -4.71370E+03  4.90363E+03 -1.21223E+03  6.14330E+03  1.84251E+03  4.24047E+03  3.78854E+03
  8.63043E+02  4.42456E+03 -2.05276E+03  3.90138E+03 -2.48610E+03  2.48661E+03 -2.57203E+03 -3.06012E+00
 -1.41155E+03  1.38513E+02 -1.78251E+03  2.24421E+02 -2.41337E+03  6.02065E+01 -3.04968E+03 -2.66832E+03
 -4.52482E+03 -2.74545E+03 -1.28577E+03 -4.80134E+03  2.94574E+03 -6.01961E+03  4.55820E+03 -1.86361E+03
  6.32796E+03 -7.69303E+02  8.54965E+02  2.44466E+03 -1.23888E+03  5.48899E+03 -3.29997E+03  3.51491E+03
