 $NMID ID='MM_0lb_SNR200_17hz_g60_92.RAW', FMTDAT='(8E13.5)'
 TRAMP=1., VOLUME=1. $END
  3.10319E+05  4.32986E+02  3.36676E+05  2.51078E+05  8.37581E+04  3.37808E+05 -1.32521E+05  2.51226E+05
 -1.90070E+05  8.26346E+04 -1.10956E+05 -3.24703E+04  1.16218E+03 -5.14550E+04  5.38261E+04 -6.91151E+02
  3.52880E+04  5.33594E+04 -1.66895E+04  7.50548E+04 -5.94078E+04  6.33586E+04 -8.34695E+04  3.22187E+04
 -8.14267E+04 -1.22527E+04 -5.76665E+04 -5.09459E+04 -1.58059E+04 -6.94341E+04  2.62607E+04 -4.61509E+04
  3.95850E+04  3.45477E+03  1.69729E+04  4.76962E+04 -3.49078E+04  4.58943E+04 -6.61086E+04  2.41399E+01
 -5.39557E+04 -5.67675E+04 -7.89105E+03 -7.65476E+04  3.32623E+04 -5.42678E+04  4.74537E+04 -1.75940E+04
  4.34298E+04  1.12326E+04  3.23128E+04  2.62941E+04  1.60784E+04  2.99880E+04 -5.03936E+03  2.71751E+04
 -2.19646E+04  1.32934E+04 -1.84293E+04 -5.12668E+03  6.46432E+03 -7.76412E+03  2.17351E+04  1.06589E+04
  7.38519E+03  3.54324E+04 -3.20423E+04  3.51010E+04 -6.26463E+04  1.01878E+03 -5.69285E+04 -4.26279E+04
 -1.25308E+04 -6.28481E+04  4.05587E+04 -4.58027E+04  5.77085E+04 -2.83155E+03  3.30246E+04  3.28676E+04
 -5.84693E+03  3.55310E+04 -2.91887E+04  1.61684E+04 -2.95341E+04 -5.61401E+03 -1.69648E+04 -1.03084E+04
 -7.60852E+03 -1.31230E+04 -1.68731E+02 -1.78137E+04  8.27892E+03 -2.30271E+04  1.51139E+04 -1.35944E+04
  1.16158E+04  4.81407E+03 -8.60223E+03  1.27519E+04 -2.08211E+04 -3.23920E+03 -7.95221E+03 -3.34240E+04
  2.18779E+04 -4.35730E+04  4.81208E+04 -1.96208E+04  4.37558E+04  1.85559E+04  1.54358E+04  4.33962E+04
 -1.57870E+04  3.26491E+04 -2.46016E+04  1.86531E+03 -9.13479E+03 -2.72663E+04  2.12309E+04 -3.32025E+04
  4.11130E+04 -8.62358E+03  3.43452E+04  2.32251E+04  1.71334E+04  4.60783E+04 -8.26789E+03  4.87310E+04
 -3.07103E+04  3.17567E+04 -4.15931E+04  9.45194E+03 -4.07489E+04 -1.63333E+04 -2.25430E+04 -3.55917E+04
  7.60703E+03 -3.72450E+04  3.08800E+04 -1.36910E+04  2.92358E+04  1.06646E+04  4.62745E+03  1.81528E+04
 -1.36890E+04  8.31789E+03 -9.53677E+03 -8.08249E+03  5.40473E+03 -1.07465E+04  1.81871E+04  5.78963E+03
  1.36923E+04  2.19805E+04 -6.30882E+03  2.51576E+04 -2.26015E+04  1.08638E+04 -2.65391E+04 -5.11694E+03
 -1.84494E+04 -1.77601E+04 -7.62230E+03 -1.94585E+04  4.17082E+03 -1.85370E+04  1.56918E+04 -1.69895E+04
  2.51416E+04 -1.20085E+04  3.14848E+04  2.70546E+03  2.35041E+04  1.89511E+04  5.37189E+03  3.58919E+04
 -1.69769E+04  2.84855E+04 -2.76991E+04  1.11048E+04 -2.04739E+04 -1.05038E+04 -2.47065E+03 -1.33691E+04
  1.79815E+03 -2.44124E+03 -4.39145E+03  6.73328E+03 -1.54150E+04  5.74384E+03 -1.60975E+04 -5.71009E+03
 -8.91040E+03 -1.86947E+04  4.21122E+03 -2.27961E+04  1.42263E+04 -1.65460E+04  1.76104E+04 -1.47949E+03
  1.07754E+04  1.22815E+04 -1.53939E+03  1.78224E+04 -1.14834E+04  9.52694E+03 -1.75611E+04 -3.62752E+03
 -1.41466E+04 -1.67330E+04 -8.62424E+02 -2.19931E+04  1.02184E+04 -1.57962E+04  1.83774E+04 -9.08709E+03
  1.76199E+04 -6.85646E+01  1.20141E+04  4.69550E+03  6.26354E+03  4.48975E+02  8.92245E+03 -1.69513E+03
  1.58071E+04  1.39892E+03  1.85733E+04  1.39215E+04  1.06330E+04  2.78514E+04 -2.24136E+03  3.12730E+04
 -1.90417E+04  2.56564E+04 -2.89710E+04  1.10703E+04 -2.95880E+04 -2.69279E+03 -2.51057E+04 -1.72230E+04
 -1.08211E+04 -2.48599E+04  8.56516E+03 -2.21024E+04  1.99550E+04 -1.20760E+04  1.79358E+04  4.56055E+03
  6.91720E+03  1.38222E+04 -7.54498E+03  1.14025E+04 -1.57819E+04  2.68553E+03 -1.06504E+04 -9.72783E+03
 -2.68441E+02 -1.40162E+04  7.73072E+03 -1.15804E+04  8.57220E+03 -1.95312E+03  1.04090E+03  5.88509E+03
 -7.04584E+03  2.78095E+03 -5.82324E+03 -4.99717E+03  3.45046E+02 -1.21870E+04  9.64928E+03 -1.25897E+04
  1.47916E+04 -7.37430E+03  1.48891E+04  3.43837E+03  1.51671E+04  1.28790E+04  5.88889E+03  1.81992E+04
 -3.11870E+03  1.93756E+04 -1.25291E+04  1.28024E+04 -1.39861E+04  4.26012E+03 -9.76341E+03 -2.23943E+03
 -4.83224E+03 -3.35741E+03 -9.45220E+02  9.25110E+02 -2.77659E+03  2.13453E+03 -4.37960E+03  5.73574E+03
 -9.06652E+03 -6.56524E+02 -9.81089E+03 -8.76149E+03 -3.34945E+03 -1.36347E+04  3.06667E+03 -9.80866E+03
  7.59275E+03 -5.67199E+03  6.31403E+03  2.43518E+03  8.91387E+02  4.15172E+03 -4.26444E+03 -9.13832E+02
 -5.61909E+03 -5.47866E+03 -1.01540E+02 -8.94353E+03  6.22623E+03 -9.66480E+03  1.32985E+04 -4.44414E+03
  1.45890E+04  6.38680E+02  1.02251E+04  7.66302E+03  2.22945E+03  1.07249E+04 -5.65209E+03  9.69089E+03
 -7.99635E+03  3.16530E+03 -3.46344E+03 -7.75183E+02  1.42529E+03 -2.22088E+03  5.14838E+03 -4.12751E+02
  4.73485E+03  4.31430E+03  9.08980E+02  8.15047E+03 -4.99715E+03  7.17438E+03 -1.03958E+04  1.26927E+03
 -6.56541E+03 -4.58595E+03 -4.86891E+02 -8.55515E+03  4.34315E+03 -4.76046E+03  4.60242E+03  9.41247E+02
  9.20713E+02  4.50652E+03 -3.85093E+03  5.63678E+03 -6.26298E+03  2.74949E+03 -5.54168E+03 -9.00945E+02
 -4.29724E+03 -7.50078E+03  2.32957E+03 -9.58076E+03  7.51624E+03 -5.80118E+03  8.00880E+03  2.65443E+03
  5.69254E+03  5.19280E+03 -2.36640E+02  8.78289E+03 -5.67966E+03  4.40802E+03 -6.26526E+03 -1.33514E+03
 -6.35121E+03 -7.08002E+03 -1.65320E+03 -6.11619E+03  2.91049E+03 -4.44865E+03  3.99735E+03 -2.40249E+03
  2.02598E+03  9.59533E+02 -7.84669E+02  1.57040E+03  1.21791E+03 -3.84679E+02  6.19290E+02 -3.73209E+03
  4.96784E+03 -1.62816E+03  6.96724E+03  1.17229E+03  7.20651E+03  3.51980E+03  6.75465E+03  8.85063E+03
 -2.29617E+03  1.08483E+04 -1.00623E+04  8.00083E+03 -1.26534E+04  1.26095E+03 -8.20440E+03 -3.54768E+03
 -5.22523E+03 -8.39740E+03  8.32303E+02 -6.71330E+03  2.08345E+03 -3.34124E+03  1.81031E+03 -2.24689E+03
  1.41426E+03 -1.04438E+03  2.62951E+03 -3.20350E+03  3.43316E+03 -1.75369E+03  3.24699E+03 -2.96361E+01
  5.44586E+03  1.70490E+03  8.72327E+02  5.24402E+03 -8.48540E+02  3.59343E+03 -4.78607E+03  2.97397E+03
 -6.92775E+03 -5.28378E+02 -3.24641E+03 -3.14780E+03  5.44893E+02 -4.75753E+03  4.35302E+03 -7.35337E+03
  7.39189E+03 -2.97912E+03  8.33760E+03  1.72645E+03  5.95224E+03  6.24150E+03  1.76941E+03  8.23601E+03
 -2.42972E+03  7.17569E+03 -4.04777E+03  3.26689E+03 -2.48940E+03 -1.07663E+03 -4.68717E+02 -6.52542E+02
 -9.58054E+02  1.79526E+02 -8.05167E+02  2.28411E+03 -2.85732E+03  2.72940E+03 -4.93883E+03  4.91565E+00
 -1.81225E+03 -4.47628E+03  7.78182E+02 -7.05804E+03  3.83826E+03 -4.96582E+03  4.86916E+03 -1.70849E+03
  4.83985E+03  2.69127E+03  4.08646E+03  4.29244E+03 -9.02895E+02  5.76772E+03 -4.29672E+03  2.79303E+03
 -5.27388E+03  1.13521E+03 -3.87342E+03 -3.56386E+03 -7.30474E+02 -3.94625E+03  2.89017E+03 -1.86888E+03
  4.26521E+03 -2.20254E+03  2.14284E+03  7.94756E+02  8.32410E+02  2.49357E+03  1.58793E+03  7.26794E+02
  2.16281E+03 -9.12826E+00  1.94871E+03  2.33061E+03  1.55062E+03  2.44480E+03  1.77875E+03  2.48757E+03
 -1.32124E+03  4.25916E+03 -4.44487E+03  4.81439E+03 -4.59685E+03  2.37880E+03 -5.03342E+03 -1.04798E+03
 -9.70631E+02 -4.70161E+03  8.69020E+02 -6.58448E+03  2.59262E+03 -3.96986E+03  4.09999E+03 -1.56117E+03
  2.77425E+03  2.32362E+03  4.97204E+02  2.43954E+03 -2.79910E+02  2.69505E+03 -1.22651E+03 -7.96108E+02
 -5.66788E+02 -2.01100E+03  1.81688E+03 -1.87764E+03  2.12787E+03 -1.90858E+03  1.92752E+03 -4.48551E+02
  1.03724E+03  6.37756E+02  9.86680E+02  4.04334E+02 -7.00384E+02  1.20100E+03  1.33311E+03 -3.11123E+02
 -3.35059E+02 -1.51485E+03  2.57298E+03  5.87943E+02  5.86830E+02  3.10460E+03 -9.13964E+02  3.21322E+03
 -1.33467E+03  1.91493E+03 -2.76980E+03 -6.25653E+02 -3.54588E+03 -1.78767E+03 -1.09596E+02 -1.40759E+03
  7.55261E+02 -1.42968E+03  2.28598E+03 -8.32718E+02  2.14496E+02  1.04032E+03 -1.23177E+02  1.70634E+03
 -2.33825E+03  1.37954E+02 -7.50927E+02 -5.19138E+02 -5.65631E+02 -2.28128E+03  9.40375E+02 -2.28399E+03
  1.06682E+03 -8.66178E+02  1.92704E+03 -1.20001E+03  1.57766E+03 -2.92668E+02 -6.88047E+02  1.20979E+03
 -5.95426E+02  1.46621E+02 -2.41623E+03 -1.48221E+03  9.92371E+02 -2.45570E+02  4.33192E+03 -9.38432E+02
  2.60237E+03  9.30401E+02  4.00265E+03  9.05416E+02  1.10928E+03  2.99640E+03 -4.84115E+02  2.51972E+03
 -1.16710E+03  2.63509E+02 -4.00667E+03 -1.04104E+02 -6.78393E+02 -1.40351E+03  2.37500E+02 -1.55340E+03
  9.62227E+02 -8.35116E+02  2.29045E+02  6.09874E+02 -1.44726E+02  2.20207E+03  7.18711E+02  7.30696E+02
 -7.94274E+01  1.97523E+03 -1.02079E+03  6.88744E+02 -4.76607E+02  1.60702E+03 -2.23617E+02  4.37559E+02
 -5.91606E+02  1.04867E+03 -2.03859E+03  1.17692E+03 -1.95405E+03 -2.74107E+02 -2.94623E+03 -1.09344E+03
 -1.45710E+03 -2.33348E+03  7.59271E+02 -4.81354E+03  1.76131E+03 -3.01107E+03  3.98504E+03 -1.17929E+03
  2.86058E+03 -8.87035E+01  1.43937E+03  2.11733E+03 -8.21845E+02  2.24402E+03 -1.07505E+03  1.15114E+03
 -1.49738E+03  1.11696E+03 -2.05353E+03 -5.96559E+02 -3.95071E+02 -6.08255E+02 -5.15171E+02  4.65762E+02
 -1.30788E+03  2.87630E+01 -2.05524E+03 -5.68485E+02 -1.36073E+02 -8.28158E+02 -5.91037E+02 -1.42531E+03
  1.59344E+03  3.34905E+02 -5.58820E+02 -1.55224E+02  1.78115E+03  1.43675E+03 -8.37881E+02  1.94241E+03
 -1.57805E+03  3.19486E+03 -3.05270E+03  1.38089E+03 -2.35251E+03 -9.93764E+02 -1.01798E+03 -1.43621E+03
 -1.11749E+03 -1.05856E+03  1.69500E+03 -1.90169E+03 -2.81676E+01 -1.92458E+03  2.13410E+03  4.54471E+02
  7.93507E+02  2.90255E+02 -3.26932E+02  8.60143E+02  1.52953E+02 -4.83849E+02  1.45967E+02 -5.33467E+02
  7.33407E+02  2.50820E+02  5.69411E+02  2.02929E+02  2.67873E+02 -4.07154E+02  1.87355E+03  5.06572E+02
 -7.94870E+02  5.14201E+02 -5.05799E+02  1.39839E+02 -1.88698E+03 -6.70273E+02  2.64199E+00 -2.31084E+03
  6.70740E+02 -1.91314E+02 -2.73492E+02  4.17607E+02  6.23960E+02 -4.74674E+02  1.21084E+03  1.45813E+03
  8.89148E+02  1.53877E+03 -6.54727E+02  1.20297E+03 -1.66298E+03  2.46304E+02 -5.09918E+02 -4.75835E+02
  1.02509E+02 -1.03338E+03  3.01349E+02  1.29435E+02 -7.53735E+01  2.90219E+00 -8.44601E+02 -7.08154E+02
 -1.28474E+03 -7.02374E+01 -1.65075E+03 -2.21198E+03  1.00146E+03 -1.70548E+03  9.98938E+02 -1.07446E+03
  2.40636E+03  5.67736E+01  5.45488E+02  5.45783E+02 -1.09049E+01  1.33659E+03 -1.05988E+03  1.39883E+03
