 $NMID ID='MM_0lb_SNR200_17hz_g50_13.RAW', FMTDAT='(8E13.5)'
 TRAMP=1., VOLUME=1. $END
  3.08700E+05 -1.78041E+02  3.37843E+05  2.51187E+05  8.54198E+04  3.38026E+05 -1.32009E+05  2.51167E+05
 -1.90771E+05  8.28701E+04 -1.11395E+05 -3.19949E+04  8.16762E+02 -5.06994E+04  5.39604E+04 -4.59298E+02
  3.49300E+04  5.34447E+04 -1.63459E+04  7.31577E+04 -5.98223E+04  6.25934E+04 -8.37386E+04  3.20471E+04
 -7.89897E+04 -1.11812E+04 -5.69092E+04 -5.02033E+04 -1.52119E+04 -6.96849E+04  2.81426E+04 -4.48022E+04
  3.98108E+04  6.33949E+03  1.52081E+04  4.65714E+04 -3.45148E+04  4.66533E+04 -6.60019E+04 -2.65527E+02
 -5.30785E+04 -5.49342E+04 -6.02775E+03 -7.57088E+04  3.31332E+04 -5.40676E+04  4.53479E+04 -1.68458E+04
  4.22436E+04  1.13343E+04  2.98472E+04  2.49021E+04  1.55610E+04  2.88055E+04 -5.41776E+03  2.66210E+04
 -2.14324E+04  1.20931E+04 -1.94020E+04 -4.35757E+03  4.73613E+03 -8.12972E+03  2.33566E+04  1.10003E+04
  5.73984E+03  3.47816E+04 -3.19510E+04  3.53093E+04 -6.22637E+04  2.65618E+03 -5.72332E+04 -4.26097E+04
 -1.18749E+04 -6.15730E+04  3.85574E+04 -4.31355E+04  5.68219E+04 -2.62807E+03  3.35637E+04  3.14537E+04
 -5.39205E+03  3.36336E+04 -2.87044E+04  1.53390E+04 -2.87312E+04 -4.69051E+03 -1.50398E+04 -9.88424E+03
 -7.72660E+03 -1.21733E+04 -7.80970E+02 -1.78262E+04  6.96371E+03 -2.30428E+04  1.49478E+04 -1.36012E+04
  1.28849E+04  4.84693E+03 -6.74445E+03  1.35520E+04 -1.89973E+04 -4.10702E+03 -9.20872E+03 -3.20418E+04
  2.06894E+04 -4.18613E+04  4.73725E+04 -1.89115E+04  4.38712E+04  1.84927E+04  1.50733E+04  4.30713E+04
 -1.45724E+04  3.25479E+04 -2.33933E+04  2.02935E+03 -8.89932E+03 -2.70901E+04  2.12662E+04 -3.24752E+04
  3.92600E+04 -8.48687E+03  3.27050E+04  2.25556E+04  1.68619E+04  4.39708E+04 -6.93798E+03  4.67205E+04
 -2.98009E+04  3.13884E+04 -4.02507E+04  8.87137E+03 -3.98945E+04 -1.56291E+04 -2.25773E+04 -3.56192E+04
  5.45928E+03 -3.41068E+04  3.02237E+04 -1.39752E+04  2.78869E+04  1.07724E+04  3.31674E+03  1.79415E+04
 -1.31506E+04  7.30838E+03 -8.45381E+03 -9.04292E+03  5.62096E+03 -9.04184E+03  1.80529E+04  5.86151E+03
  1.27861E+04  2.11768E+04 -6.97826E+03  2.36650E+04 -2.24932E+04  9.64855E+03 -2.56657E+04 -5.56037E+03
 -1.79558E+04 -1.82737E+04 -6.86648E+03 -1.86701E+04  4.64182E+03 -1.71544E+04  1.42500E+04 -1.66166E+04
  2.23318E+04 -1.28033E+04  3.01730E+04  2.27421E+03  2.29976E+04  1.72291E+04  4.30497E+03  3.39427E+04
 -1.55281E+04  2.73891E+04 -2.64516E+04  9.95799E+03 -1.93112E+04 -1.04781E+04 -3.60898E+03 -1.40594E+04
  9.64218E+02 -4.19554E+03 -2.39764E+03  6.00251E+03 -1.44830E+04  5.15749E+03 -1.41301E+04 -6.49084E+03
 -9.35373E+03 -1.64834E+04  5.08152E+03 -2.15714E+04  1.29126E+04 -1.49658E+04  1.70670E+04 -1.35302E+03
  9.88240E+03  1.23908E+04 -1.21902E+03  1.64222E+04 -1.28352E+04  1.00185E+04 -1.68563E+04 -3.17524E+03
 -1.18559E+04 -1.57964E+04  9.68568E+01 -2.04880E+04  9.23891E+03 -1.60444E+04  1.79119E+04 -6.48546E+03
  1.46519E+04 -6.40697E+02  1.08177E+04  4.13196E+03  5.76679E+03  1.14406E+02  8.48582E+03 -1.41322E+03
  1.50105E+04  3.03273E+03  1.60206E+04  1.29178E+04  1.00482E+04  2.78415E+04 -3.58600E+03  2.97027E+04
 -1.72876E+04  2.33152E+04 -2.72489E+04  1.04524E+04 -2.76118E+04 -1.46430E+03 -2.38770E+04 -1.52601E+04
 -1.15621E+04 -2.32606E+04  7.89242E+03 -2.23334E+04  1.85329E+04 -1.04474E+04  1.80346E+04  4.62784E+03
  5.68120E+03  1.22486E+04 -8.04921E+03  1.09885E+04 -1.38646E+04  2.04680E+03 -1.13030E+04 -8.38083E+03
 -7.05476E+02 -1.40304E+04  6.48486E+03 -1.01211E+04  8.50898E+03 -4.24432E+02  7.82386E+02  5.39463E+03
 -7.06400E+03  1.28172E+03 -5.72256E+03 -4.53134E+03 -2.75441E+02 -1.13507E+04  9.06961E+03 -1.25724E+04
  1.40397E+04 -6.28308E+03  1.39781E+04  2.29241E+03  1.22667E+04  1.07702E+04  5.11485E+03  1.53530E+04
 -1.33898E+03  1.94495E+04 -1.12844E+04  1.21152E+04 -1.21947E+04  2.78369E+03 -9.76278E+03 -7.90377E+02
 -4.57925E+03 -4.31125E+03 -1.04373E+03  2.12064E+03 -2.48452E+03  1.56077E+03 -3.62647E+03  3.94852E+03
 -8.77762E+03  3.00885E+02 -8.99273E+03 -7.60164E+03 -3.65364E+03 -1.27855E+04  2.82779E+03 -8.82227E+03
  7.40661E+03 -4.57212E+03  6.23279E+03  1.99091E+03  1.30567E+03  3.33058E+03 -3.92946E+03 -4.84017E+02
 -3.57074E+03 -5.48382E+03 -1.75161E+03 -9.28317E+03  5.09214E+03 -8.39721E+03  1.12870E+04 -3.73591E+03
  1.35262E+04  3.05171E+02  1.10493E+04  7.60550E+03  1.95904E+03  9.30727E+03 -5.64173E+03  9.08527E+03
 -8.35610E+03  3.32499E+03 -3.97566E+03 -1.55276E+03  7.04441E+02 -2.25649E+03  5.38870E+03 -8.61533E+02
  4.22588E+03  4.41055E+03  2.33045E+03  7.31378E+03 -6.16953E+03  8.21818E+03 -8.42812E+03  1.67694E+03
 -5.19395E+03 -4.32280E+03  8.24041E+02 -7.86274E+03  3.78772E+03 -3.72572E+03  5.37665E+03  1.43754E+02
  9.78342E+02  3.94660E+03 -3.99070E+03  5.45991E+03 -6.95176E+03  2.67560E+03 -5.27646E+03 -1.29592E+03
 -2.96966E+03 -7.52286E+03  1.44927E+03 -7.85092E+03  6.20725E+03 -5.17758E+03  7.19153E+03  5.40377E+02
  4.13776E+03  6.60420E+03 -5.26591E+02  8.95836E+03 -5.78737E+03  6.06752E+03 -6.62274E+03 -3.51589E+02
 -6.91400E+03 -6.86267E+03 -5.19786E+02 -5.26925E+03  3.07955E+03 -4.54153E+03  4.02701E+03 -3.62719E+03
  2.61394E+03  1.03881E+03  4.22614E+02  1.41383E+03  7.26660E+02 -5.95760E+02  1.32158E+02 -2.19003E+03
  4.63190E+03 -1.69382E+03  5.91819E+03  7.00861E+02  5.96619E+03  3.27566E+03  5.43527E+03  9.26782E+03
 -1.14297E+03  1.04782E+04 -9.81506E+03  6.56602E+03 -1.08436E+04  1.07086E+03 -9.02240E+03 -2.63952E+03
 -3.78363E+03 -7.85415E+03 -1.24702E+03 -5.41282E+03  1.54250E+03 -3.93805E+03  2.18091E+03 -2.00814E+03
  2.01874E+03 -7.53619E+02  2.63092E+03 -2.84050E+03  4.24784E+03 -1.50128E+03  3.49284E+03  4.31100E+02
  5.18537E+03  1.98016E+03  2.35147E+03  3.76788E+03 -1.08592E+03  3.46747E+03 -4.69181E+03  2.58374E+03
 -6.75523E+03 -1.18514E+03 -1.83617E+03 -5.15733E+03  2.07473E+02 -5.93391E+03  3.35007E+03 -6.52393E+03
  7.30332E+03 -4.05954E+03  8.95301E+03  3.16436E+02  5.95340E+03  5.76173E+03  1.04489E+03  6.67502E+03
 -2.77131E+03  6.18556E+03 -4.13991E+03  1.74862E+03 -2.08054E+03 -5.72938E+02 -6.63656E+02 -6.50823E+02
 -6.41055E+01  2.48915E+02 -1.08876E+03  2.63853E+03 -4.50308E+03  1.31666E+03 -5.14742E+03 -1.30676E+03
 -2.44235E+03 -3.95006E+03  5.12510E+02 -4.65769E+03  2.89435E+03 -4.85258E+03  4.92114E+03 -2.10833E+03
  4.81610E+03  3.00547E+03  1.15442E+03  3.97641E+03 -8.11490E+02  6.18962E+03 -3.44438E+03  3.80543E+03
 -4.63665E+03  1.44314E+03 -3.91977E+03 -2.53269E+03 -5.25806E+02 -4.23575E+03  3.16634E+03 -3.03046E+03
  3.09482E+03 -1.09096E+03  2.28781E+03  1.11469E+03  1.20415E+03  2.28423E+03  1.30873E+03  1.28925E+03
  8.32693E+02  1.14186E+03  1.47246E+03  1.11335E+03  1.54076E+03  2.85149E+03  2.50968E+03  2.43584E+03
 -2.12256E+03  4.92785E+03 -3.08288E+03  5.33522E+03 -3.87910E+03  1.16985E+03 -5.43737E+03 -1.04804E+03
 -1.82435E+03 -5.10908E+03  6.43153E+02 -5.56975E+03  2.59642E+03 -2.74147E+03  4.19544E+03 -1.32788E+03
  3.80556E+03  1.87994E+03  3.63829E+02  2.93103E+03 -1.10010E+03  2.02008E+03 -1.93067E+03 -4.03092E+02
 -9.34665E+02 -1.09338E+03  1.98864E+03 -9.49176E+02  2.30918E+03 -1.22469E+03  1.29066E+03  3.73715E+02
  1.07866E+01  3.30465E+02  1.22727E+03  2.61667E+02 -4.00025E+02  1.04139E+03  1.69139E+02  4.96933E+02
  1.46360E+02 -2.63945E+02  2.89504E+03  5.11922E+02  4.95671E+02  3.56490E+03 -4.29354E+02  3.92272E+03
 -2.39445E+03  1.08894E+03 -1.90542E+03 -7.59202E+01 -2.80655E+03 -2.83552E+02 -1.03782E+03 -2.21943E+02
  1.00300E+03 -2.25843E+03  1.24781E+03 -9.32021E+02  1.83692E+03  1.44325E+03 -1.37983E+03  2.66482E+03
 -1.21108E+03  1.09290E+03 -6.80025E+02 -1.09393E+03 -1.15556E+03 -2.20586E+03 -2.93816E+02 -1.75636E+03
  1.75141E+02 -4.48625E+02  1.05729E+03  1.71592E+02  1.51542E+03  7.49253E+02  5.58571E+02  1.86411E+03
 -5.23215E+02  6.48701E+02 -1.32626E+03 -1.24550E+03  4.83755E+02 -7.95984E+02  2.37908E+03 -2.45969E+03
  1.71883E+03  3.12597E+02  3.67051E+03  3.66590E+01  8.17860E+00  2.25689E+03  3.33705E+02  2.43448E+03
 -1.83032E+03 -4.17269E+01 -1.93789E+03 -3.40727E+02 -1.35018E+03 -2.93989E+03  1.73637E+03 -1.21084E+03
  1.66426E+03  2.90272E+02  1.38394E+03  4.23599E+02 -2.07730E+02  1.25255E+03 -4.01943E+01 -8.77904E+02
 -4.58669E+02  4.39297E+02 -2.03149E+03 -2.04051E+02 -6.99085E+01 -1.90318E+01  2.24829E+02  3.02107E+02
 -1.70955E+03  1.72250E+03 -1.58343E+03  8.99918E+02 -2.20140E+03 -8.10823E+01 -2.62433E+03 -2.39592E+03
 -2.39274E+03 -3.50654E+03  4.69797E+02 -3.49721E+03  1.30674E+03 -3.16910E+03  3.39424E+03 -8.40197E+02
  2.62116E+03  1.29481E+03  1.51780E+03  1.04321E+03  2.15463E+02  1.39521E+03 -6.30441E+02  1.30939E+03
 -1.88544E+03  1.77508E+03 -1.23341E+03  5.62940E+02  4.78729E+02  2.65453E+02 -1.97382E+03 -3.50717E+01
 -6.76969E+02  1.87681E+02 -1.27958E+03 -7.02174E+02  8.29241E+02 -1.37471E+03 -1.55418E+03 -1.80708E+03
  1.33148E+03 -8.70917E+02  4.53725E+02 -3.57799E+02  2.24871E+03  1.65365E+03  3.87993E+02  1.33272E+02
 -1.69749E+03  2.13676E+03 -3.25549E+03  2.25661E+03 -1.85414E+03 -1.30480E+01 -2.84946E+03 -1.71250E+03
 -5.10151E+02 -2.17726E+03  2.99671E+02 -1.78342E+03  7.69741E+02 -9.18960E+02  8.43319E+02 -3.31056E+02
  1.45725E+03  3.01667E+02  5.99927E+02  8.11882E+02 -1.06565E+03  8.66696E+02  3.75235E+01 -2.57725E+02
  7.95353E-01  2.60413E+02  4.36220E+02  2.46779E+02  1.18271E+02 -5.29381E+01  1.19972E+03 -3.18152E+02
 -6.53583E+02  6.74526E+02 -1.31494E+03  6.44833E+02 -2.25022E+03 -1.86631E+02  3.93454E+02 -2.10297E+03
  1.52507E+03 -9.07126E+02  1.14146E+03 -5.71160E+02  1.68019E+03 -6.57046E+02  1.04295E+03  2.01483E+02
  3.86179E+02  1.80922E+03 -7.96966E+02  7.44753E+02 -1.59457E+03  4.43408E+02 -3.05737E+02 -3.90870E+01
  3.37992E+02 -2.01706E+02 -6.58534E+01  3.33061E+02 -1.04725E+03 -3.68773E+02 -8.60557E+02 -5.56630E+02
 -6.83468E+02  2.88647E+02 -5.78682E+02 -1.45705E+03  4.38402E+02 -9.55361E+02  1.36952E+03 -7.96510E+02
  6.68579E+02  5.34877E+02 -2.52688E+02 -4.02073E+02 -1.69935E+02  1.41295E+03 -8.39833E+02  8.98661E+02
