 $NMID ID='MM_0lb_SNR200_12hz_g60_36.RAW', FMTDAT='(8E13.5)'
 TRAMP=1., VOLUME=1. $END
  3.11552E+05  8.78069E+02  3.36797E+05  2.50998E+05  8.45314E+04  3.37838E+05 -1.33089E+05  2.52066E+05
 -1.91078E+05  8.48612E+04 -1.12402E+05 -3.23229E+04 -7.60132E+00 -4.97274E+04  5.45193E+04 -1.25653E+02
  3.46852E+04  5.32855E+04 -1.49598E+04  7.57121E+04 -6.12588E+04  6.40021E+04 -8.38682E+04  3.29168E+04
 -8.20427E+04 -1.22262E+04 -5.71597E+04 -5.35716E+04 -1.58115E+04 -7.08318E+04  2.64326E+04 -4.65406E+04
  4.08431E+04  2.88250E+03  1.67483E+04  4.85170E+04 -3.40313E+04  4.81684E+04 -6.67734E+04 -1.30584E+03
 -5.49630E+04 -5.69627E+04 -6.07270E+03 -7.82960E+04  3.57461E+04 -5.70656E+04  4.86897E+04 -1.67571E+04
  4.43507E+04  1.01861E+04  3.19348E+04  2.63403E+04  1.57801E+04  3.17553E+04 -5.32949E+03  2.76557E+04
 -2.26277E+04  1.30269E+04 -1.74489E+04 -5.82840E+03  7.20097E+03 -7.56869E+03  2.19506E+04  1.33137E+04
  7.39833E+03  3.67273E+04 -3.31355E+04  3.63933E+04 -6.52481E+04  1.01706E+03 -5.75999E+04 -4.35431E+04
 -1.23473E+04 -6.50755E+04  4.04430E+04 -4.65072E+04  6.12053E+04 -2.91265E+03  3.65415E+04  3.43570E+04
 -5.68740E+03  3.87739E+04 -3.19288E+04  1.83399E+04 -3.22697E+04 -4.44920E+03 -1.92461E+04 -1.33746E+04
 -8.56180E+03 -1.41251E+04 -7.60226E+02 -1.95422E+04  7.80629E+03 -2.47184E+04  1.54677E+04 -1.31157E+04
  1.15810E+04  7.39152E+03 -8.85059E+03  1.30310E+04 -2.27788E+04 -4.22497E+03 -9.27374E+03 -3.59413E+04
  2.36513E+04 -4.62649E+04  5.12432E+04 -2.05745E+04  4.80767E+04  1.84373E+04  1.73282E+04  4.35416E+04
 -1.63123E+04  3.47594E+04 -2.68216E+04  1.68619E+03 -1.09311E+04 -2.98170E+04  2.10123E+04 -3.73243E+04
  4.32023E+04 -1.04853E+04  3.89701E+04  2.57938E+04  1.91186E+04  4.96039E+04 -9.03919E+03  5.29669E+04
 -3.61202E+04  3.86690E+04 -4.69648E+04  1.07586E+04 -4.62691E+04 -1.66455E+04 -2.52269E+04 -4.00525E+04
  7.61035E+03 -3.97904E+04  3.29805E+04 -1.59040E+04  3.26186E+04  9.74056E+03  5.28814E+03  2.13020E+04
 -1.28022E+04  9.45599E+03 -1.12096E+04 -8.23845E+03  5.00397E+03 -1.11299E+04  1.93936E+04  4.69842E+03
  1.36936E+04  2.28664E+04 -6.54769E+03  2.48963E+04 -2.34699E+04  1.39344E+04 -2.94069E+04 -3.72346E+03
 -2.31420E+04 -1.73303E+04 -1.08939E+04 -2.31868E+04  3.93564E+03 -2.38442E+04  1.65388E+04 -2.21627E+04
  3.03328E+04 -1.34281E+04  3.61148E+04  3.79041E+03  2.68648E+04  2.15274E+04  4.71774E+03  4.02165E+04
 -1.77900E+04  3.31395E+04 -3.07221E+04  1.18209E+04 -2.08296E+04 -1.03456E+04 -5.64355E+03 -1.24582E+04
  3.42930E+02 -1.85642E+03 -8.15728E+03  7.83177E+03 -1.85376E+04  3.74191E+03 -1.89321E+04 -8.78994E+03
 -1.21237E+04 -2.21661E+04  5.68414E+03 -2.44925E+04  1.78675E+04 -1.82573E+04  2.06362E+04 -2.18597E+03
  1.40463E+04  1.50137E+04 -1.94173E+03  2.13502E+04 -1.43540E+04  1.19635E+04 -2.32575E+04 -5.13436E+03
 -1.51560E+04 -1.99593E+04 -2.12680E+03 -2.63588E+04  1.24245E+04 -2.37813E+04  2.16356E+04 -1.08664E+04
  2.02962E+04 -4.08483E+02  1.39232E+04  5.47983E+03  8.36300E+03  9.17412E+02  1.04519E+04 -1.39644E+03
  2.04024E+04  3.64053E+03  2.18421E+04  1.79354E+04  1.58991E+04  3.42207E+04 -3.49901E+03  3.85169E+04
 -2.42296E+04  3.41312E+04 -3.90013E+04  1.66696E+04 -4.08833E+04 -2.59494E+03 -3.37172E+04 -2.38108E+04
 -1.19344E+04 -3.44559E+04  1.16859E+04 -2.92216E+04  2.43021E+04 -1.53217E+04  2.18313E+04  5.90510E+03
  7.54221E+03  1.78678E+04 -1.04533E+04  1.44172E+04 -1.89743E+04  3.06736E+03 -1.22838E+04 -1.24193E+04
  7.32269E+02 -1.79599E+04  1.04524E+04 -1.16796E+04  1.17326E+04  1.53467E+02  2.64802E+03  8.53955E+03
 -9.48075E+03  4.11643E+03 -7.40133E+03 -7.31904E+03 -1.38628E+03 -1.52321E+04  1.10385E+04 -1.69214E+04
  1.94595E+04 -8.84883E+03  2.38844E+04  2.65775E+03  2.09769E+04  1.65469E+04  1.12181E+04  2.60929E+04
 -4.35816E+03  2.84297E+04 -1.72459E+04  1.83790E+04 -2.07656E+04  4.13007E+03 -1.29825E+04 -5.50133E+03
 -6.23916E+03 -7.32605E+03 -4.42601E+02  8.67354E+02 -1.18176E+03  3.17554E+03 -7.15971E+03  5.01309E+03
 -1.19221E+04 -1.11505E+03 -1.25241E+04 -1.18652E+04 -4.70549E+03 -1.60657E+04  5.07510E+03 -1.37581E+04
  1.02303E+04 -6.26234E+03  6.89933E+03  4.45544E+03 -1.58552E+03  5.18135E+03 -7.23269E+03 -1.87870E+02
 -5.09857E+03 -8.22608E+03 -1.08255E+03 -1.26040E+04  6.67661E+03 -1.50319E+04  1.63044E+04 -8.12205E+03
  2.10036E+04  2.28467E+03  1.59966E+04  1.23972E+04  1.64012E+03  1.55704E+04 -9.61496E+03  1.34649E+04
 -1.10783E+04  3.35986E+03 -6.38954E+03 -3.08745E+03  2.74338E+03 -2.99886E+03  6.64946E+03  3.98750E+02
  5.91232E+03  6.77933E+03  1.49313E+03  9.72049E+03 -8.39784E+03  1.07075E+04 -1.37623E+04  9.33811E+02
 -1.00210E+04 -7.71824E+03 -8.38157E+02 -1.05129E+04  8.83941E+03 -6.03922E+03  8.38466E+03  2.84072E+03
  1.12248E+03  1.00327E+04 -5.56049E+03  9.68961E+03 -1.23896E+04  4.73653E+03 -1.12041E+04 -4.35452E+03
 -5.71542E+03 -1.34450E+04  4.96202E+03 -1.45519E+04  1.28582E+04 -1.02484E+04  1.43621E+04  1.52491E+03
  8.62596E+03  9.91485E+03 -3.32527E+02  1.41611E+04 -8.85816E+03  7.80378E+03 -1.05076E+04 -1.17119E+02
 -8.52903E+03 -8.18718E+03 -1.37913E+03 -9.76281E+03  6.26579E+03 -7.17605E+03  6.48214E+03 -2.55872E+03
  5.13367E+03  1.85061E+03 -1.17734E+03  2.17506E+03 -1.47716E+03 -3.32472E+03  2.13425E+03 -6.89131E+03
  9.03492E+03 -5.19782E+03  1.27311E+04  1.57954E+03  1.24879E+04  8.30653E+03  8.27238E+03  1.77288E+04
 -2.12824E+03  1.91676E+04 -1.56223E+04  1.45169E+04 -2.10065E+04  2.20039E+03 -1.90700E+04 -8.35798E+03
 -8.38788E+03 -1.31192E+04 -7.29400E+02 -1.10777E+04  4.68633E+03 -6.07831E+03  5.47878E+03 -4.56068E+03
  3.96262E+03 -1.91852E+03  2.90825E+03 -3.37082E+03  6.91933E+03 -2.60090E+03  7.59143E+03  5.61214E+02
  9.83556E+03  8.56562E+02  3.89737E+03  7.85375E+03 -1.74515E+03  8.40453E+03 -9.14544E+03  7.08694E+03
 -1.02462E+04 -1.88973E+03 -7.05883E+03 -9.19478E+03 -1.57163E+02 -1.28237E+04  6.62202E+03 -1.42981E+04
  1.23312E+04 -6.80478E+03  1.54364E+04  3.16819E+03  9.86504E+03  1.12864E+04  1.34310E+03  1.28715E+04
 -6.43880E+03  1.16891E+04 -9.27312E+03  3.55721E+03 -4.59529E+03 -2.25044E+03 -2.94360E+03 -2.95331E+03
 -5.60720E+02  5.57697E+02 -3.10400E+03  3.41722E+03 -4.21738E+03  3.94293E+03 -6.98640E+03 -6.50674E+02
 -6.20219E+03 -8.13271E+03 -1.26199E+02 -1.03315E+04  5.47924E+03 -1.03771E+04  1.07935E+04 -2.91422E+03
  1.05430E+04  5.78821E+03  6.22590E+03  8.99529E+03 -2.61103E+03  1.21866E+04 -7.00329E+03  5.95418E+03
 -1.02978E+04 -7.60108E+02 -7.77056E+03 -5.43202E+03 -1.71105E+03 -7.83841E+03  5.51510E+03 -7.73468E+03
  7.34729E+03 -2.91310E+03  4.55646E+03  2.63014E+03  2.96558E+03  4.03158E+03  5.84726E+02  5.30198E+02
  2.92886E+03  2.83563E+03  2.52776E+03  1.27117E+03  2.92056E+03  4.37128E+03  3.54632E+03  7.06297E+03
 -1.55406E+03  8.07632E+03 -6.73876E+03  9.44548E+03 -1.18701E+04  2.06292E+03 -1.14240E+04 -3.55918E+03
 -4.94960E+03 -1.13809E+04  1.94305E+03 -1.23499E+04  5.63603E+03 -7.06814E+03  7.84139E+03 -2.36641E+03
  7.41553E+03  4.00496E+03  1.59343E+03  6.25553E+03 -3.85508E+03  4.06431E+03 -3.52815E+03 -6.20684E+02
 -1.87636E+03 -4.94428E+03  3.17694E+03 -4.04542E+03  3.41254E+03 -1.96848E+03  4.46470E+03  1.82800E+03
  1.80682E+03  2.52942E+03  1.66539E+03  1.24698E+03 -3.55851E+02  1.33680E+03  1.22542E+03 -1.26633E+03
  5.40370E+02  8.33850E+01  4.88034E+03  3.50479E+02  2.71198E+03  7.48451E+03 -4.44183E+02  6.62088E+03
 -3.30822E+03  4.40544E+03 -6.18905E+03  2.15302E+03 -6.91137E+03 -1.63510E+03 -2.55511E+03 -2.25321E+03
 -1.91329E+01 -3.95276E+03  2.13094E+03 -1.72556E+03  2.04590E+03  2.32359E+03 -1.40157E+03  3.68142E+03
 -4.29039E+03  1.36404E+03 -4.61360E+03 -1.52386E+03 -2.78047E+03 -6.05361E+03  2.39514E+03 -6.99437E+03
  2.72096E+03 -3.12178E+03  3.74556E+03  4.74991E+01  4.29634E+03  2.31123E+03  6.08834E+02  3.17294E+03
 -2.02674E+03  1.97807E+03 -2.77143E+03 -2.08431E+03  1.14060E+03 -3.57063E+03  5.28340E+03 -4.34236E+03
  6.47080E+03  1.72424E+02  6.38748E+03  4.69832E+03  1.69382E+03  7.83847E+03 -2.31108E+03  7.63034E+03
 -5.67042E+03  2.21688E+03 -6.09169E+03 -1.63919E+03 -2.52074E+03 -4.28158E+03  1.60306E+03 -4.50703E+03
  4.48364E+03 -1.09738E+03  2.73272E+03  7.87393E+02  1.21164E+03  4.20908E+03 -8.76485E+02  2.37719E+03
 -1.36324E+03  2.51149E+03 -8.60636E+02  8.01478E+02 -6.66583E+02  2.42792E+03 -7.19527E+02  9.00549E+02
 -1.72090E+03  3.60647E+03 -3.39497E+03  1.97397E+03 -5.43170E+03  7.73918E+01 -6.83407E+03 -2.30238E+03
 -3.13939E+03 -6.98949E+03  2.98232E+03 -1.04200E+04  6.05726E+03 -7.10456E+03  1.02116E+04 -1.11399E+03
  9.85645E+03  1.34362E+03  6.93430E+03  5.93453E+03 -9.76690E+02  5.87230E+03 -2.42216E+03  5.40098E+03
 -3.38978E+03  1.72059E+03 -2.70818E+03 -1.52502E+03 -2.11751E+03 -4.96024E+02 -1.40187E+02 -7.82379E+02
 -3.43420E+02  6.92603E+02 -1.99097E+03 -1.41672E+03 -1.66901E+03 -1.48008E+03  5.56280E+02 -2.41552E+03
  3.09366E+03 -2.72112E+03  2.85273E+03  3.46904E+02  4.40959E+03  2.86786E+03  2.53485E+03  7.07247E+03
 -3.21744E+03  7.12435E+03 -5.69476E+03  4.68137E+03 -8.29718E+03 -8.61693E+02 -5.27696E+03 -5.82854E+03
 -2.92791E+03 -6.15874E+03  4.09836E+02 -6.84606E+03  5.13789E+03 -3.67177E+03  3.96044E+03 -1.22803E+03
  2.81618E+03  2.65401E+03 -9.13666E+02  1.21965E+03 -1.74539E+03  7.29881E+02 -3.85632E+01 -9.01769E+02
  2.11697E+03 -9.17383E+02  2.77419E+03  1.38404E+03  1.98861E+03  9.96867E+02  6.66090E+02  2.50201E+03
 -3.48813E+03  2.49098E+03 -3.51012E+03  1.32744E+03 -2.60189E+03 -1.32151E+03 -8.73635E+02 -5.30923E+03
  2.08572E+03 -5.34888E+03  5.26622E+03 -1.99249E+03  4.34709E+03 -6.05656E+02  3.80655E+03  3.12705E+03
 -4.68159E+02  4.67380E+03 -3.08294E+03  2.91415E+03 -1.50821E+03  6.43695E+02 -2.00028E+03  2.56186E+02
 -2.90582E+03  5.07100E+02 -2.06869E+03  4.12062E+02 -7.64792E+02 -1.40876E+02 -3.94549E+03 -9.33308E+02
 -2.92779E+03 -1.11585E+03 -7.21408E+02 -4.76768E+03  2.66904E+03 -5.20704E+03  4.26768E+03 -1.43639E+03
  5.85930E+03 -4.87081E+02  1.57696E+03  4.54344E+03 -1.26935E+02  3.37653E+03 -3.74212E+03  2.43908E+03
