 $NMID ID='MM_0lb_SNR200_10hz_g45_10.RAW', FMTDAT='(8E13.5)'
 TRAMP=1., VOLUME=1. $END
  3.10464E+05 -1.27153E+02  3.37800E+05  2.50732E+05  8.48366E+04  3.39721E+05 -1.33443E+05  2.51504E+05
 -1.88400E+05  8.24853E+04 -1.11825E+05 -3.20314E+04  1.85216E+03 -5.14506E+04  5.31136E+04 -6.66183E+02
  3.63445E+04  5.35379E+04 -1.73949E+04  7.56797E+04 -6.04683E+04  6.48149E+04 -8.42195E+04  3.12028E+04
 -8.09866E+04 -1.21415E+04 -5.87152E+04 -5.11998E+04 -1.50335E+04 -7.09208E+04  2.73790E+04 -4.68881E+04
  4.04168E+04  3.81279E+03  1.76660E+04  4.63767E+04 -3.55145E+04  4.78011E+04 -6.76771E+04 -5.67086E+01
 -5.36031E+04 -5.68526E+04 -6.78742E+03 -7.75679E+04  3.45030E+04 -5.57024E+04  4.84431E+04 -1.81938E+04
  4.56642E+04  1.14567E+04  3.21295E+04  2.56542E+04  1.73187E+04  2.99948E+04 -5.41646E+03  2.82725E+04
 -2.26247E+04  1.19124E+04 -1.73058E+04 -5.65413E+03  7.52621E+03 -7.87288E+03  2.31837E+04  1.24372E+04
  8.24188E+03  3.64991E+04 -3.43013E+04  3.59790E+04 -6.54203E+04  2.52871E+03 -5.89273E+04 -4.40101E+04
 -1.27702E+04 -6.47388E+04  4.11396E+04 -4.60372E+04  6.05574E+04 -1.53137E+03  3.74370E+04  3.27412E+04
 -5.23318E+03  3.78792E+04 -3.07867E+04  1.73929E+04 -3.21965E+04 -2.76328E+03 -1.67608E+04 -1.20873E+04
 -8.65571E+03 -1.42071E+04 -7.16377E+02 -1.93634E+04  7.92933E+03 -2.39288E+04  1.51825E+04 -1.37531E+04
  1.22840E+04  5.49201E+03 -1.01072E+04  1.19138E+04 -2.22534E+04 -6.24733E+03 -9.07463E+03 -3.60435E+04
  2.53304E+04 -4.53719E+04  5.17990E+04 -1.93370E+04  4.80452E+04  2.09250E+04  1.60120E+04  4.78951E+04
 -1.61454E+04  3.62383E+04 -2.66097E+04  2.64714E+03 -1.12282E+04 -2.86858E+04  2.09895E+04 -3.76740E+04
  4.43971E+04 -1.06612E+04  3.79311E+04  2.32247E+04  1.91554E+04  5.02803E+04 -7.73932E+03  5.40122E+04
 -3.40305E+04  3.75397E+04 -4.72161E+04  1.09669E+04 -4.70001E+04 -1.70261E+04 -2.57731E+04 -3.92839E+04
  6.03580E+03 -4.08802E+04  3.21190E+04 -1.70869E+04  3.21471E+04  1.16608E+04  4.15048E+03  2.12333E+04
 -1.28694E+04  8.70459E+03 -1.11346E+04 -7.92448E+03  5.38788E+03 -1.13837E+04  1.75876E+04  3.22842E+03
  1.34735E+04  2.23298E+04 -6.09979E+03  2.65338E+04 -2.35727E+04  1.28825E+04 -3.08832E+04 -3.51771E+03
 -2.30995E+04 -1.84426E+04 -1.06273E+04 -2.32924E+04  4.19974E+03 -2.32994E+04  2.03139E+04 -2.17833E+04
  3.05044E+04 -1.44369E+04  3.56959E+04  3.61605E+03  2.54825E+04  2.36985E+04  4.62338E+03  3.97704E+04
 -1.92045E+04  3.37735E+04 -3.06286E+04  1.10788E+04 -2.09946E+04 -1.01306E+04 -3.33807E+03 -1.25921E+04
  1.12896E+03 -3.69793E+02 -6.97641E+03  8.08195E+03 -1.95210E+04  5.26896E+03 -1.96164E+04 -8.34721E+03
 -1.20042E+04 -2.07850E+04  7.38727E+03 -2.61944E+04  1.80603E+04 -1.82882E+04  2.26484E+04 -9.24213E+02
  1.46460E+04  1.61791E+04 -1.71683E+03  2.40700E+04 -1.42894E+04  1.30661E+04 -1.99253E+04 -5.51868E+03
 -1.67652E+04 -1.95931E+04 -4.06963E+03 -2.69570E+04  1.21855E+04 -2.03124E+04  2.21365E+04 -1.03156E+04
  2.03367E+04  7.72945E+02  1.41333E+04  3.69896E+03  7.64280E+03  2.45901E+03  1.04041E+04 -1.92647E+03
  2.24749E+04  3.36712E+03  2.36975E+04  1.61994E+04  1.58868E+04  3.54975E+04 -2.62114E+03  3.99098E+04
 -2.28760E+04  3.39804E+04 -3.83154E+04  1.75396E+04 -4.04074E+04 -3.10826E+03 -3.32356E+04 -2.62862E+04
 -1.49068E+04 -3.38611E+04  1.18396E+04 -3.01249E+04  2.62444E+04 -1.30760E+04  2.32997E+04  8.02685E+03
  8.41144E+03  1.76717E+04 -1.05298E+04  1.40957E+04 -1.89685E+04  2.58402E+03 -1.46511E+04 -1.20823E+04
  2.06426E+02 -1.72150E+04  8.67596E+03 -1.27293E+04  1.21594E+04 -2.59587E+03  4.95536E+03  7.54122E+03
 -6.73759E+03  3.51751E+03 -8.14280E+03 -6.41477E+03 -6.64376E+02 -1.65688E+04  1.11127E+04 -1.87384E+04
  2.07215E+04 -9.67491E+03  2.32266E+04  4.82591E+03  2.01177E+04  1.72872E+04  9.90629E+03  2.68348E+04
 -3.01644E+03  2.79548E+04 -1.81799E+04  1.77505E+04 -2.08341E+04  3.40770E+03 -1.42550E+04 -6.38328E+03
 -6.92250E+03 -6.09878E+03  6.57517E+01  1.66064E+03 -1.87779E+03  3.75759E+03 -6.98827E+03  5.99944E+03
 -1.29336E+04 -4.93005E+02 -1.53797E+04 -1.20181E+04 -5.68462E+03 -1.93000E+04  5.51596E+03 -1.49176E+04
  1.21814E+04 -6.62002E+03  8.92271E+03  2.23061E+03 -2.21783E+03  6.66095E+03 -8.16751E+03 -1.48449E+02
 -5.89163E+03 -9.54769E+03 -2.50696E+02 -1.38127E+04  8.76905E+03 -1.48912E+04  1.75067E+04 -7.70560E+03
  2.20276E+04  2.77765E+03  1.57779E+04  1.54763E+04  3.04287E+03  1.66039E+04 -8.16998E+03  1.33671E+04
 -1.12264E+04  4.93808E+03 -5.86791E+03 -3.04762E+03  2.33533E+03 -4.54532E+03  5.92492E+03 -1.33288E+03
  6.28692E+03  6.72527E+03  7.82344E+02  1.22729E+04 -8.31354E+03  1.09586E+04 -1.46751E+04  1.91530E+03
 -9.77555E+03 -6.80352E+03 -3.82214E+02 -1.20753E+04  7.73534E+03 -6.42347E+03  8.96563E+03  2.22923E+03
  1.90313E+03  9.51606E+03 -8.27764E+03  1.17191E+04 -1.27883E+04  4.63091E+03 -1.22394E+04 -4.74959E+03
 -6.99613E+03 -1.36772E+04  3.46503E+03 -1.61519E+04  1.37662E+04 -1.03464E+04  1.37425E+04  2.01558E+03
  8.73258E+03  1.27481E+04 -1.29552E+03  1.54021E+04 -1.06758E+04  8.54350E+03 -1.09764E+04 -2.33261E+03
 -9.03977E+03 -8.49131E+03 -1.04551E+03 -1.04842E+04  4.86508E+03 -9.81404E+03  5.66606E+03 -3.05017E+03
  4.56868E+03  2.41214E+03  4.77871E+02  1.04304E+03 -2.83008E+02 -2.54327E+03  2.64295E+03 -8.55860E+03
  1.02292E+04 -4.11857E+03  1.34940E+04  6.20849E+02  1.58909E+04  9.26266E+03  9.09061E+03  2.03844E+04
 -5.05749E+03  2.07334E+04 -1.78874E+04  1.45501E+04 -2.31504E+04  3.83005E+03 -1.88400E+04 -7.61022E+03
 -7.38939E+03 -1.53832E+04  2.00256E+02 -1.34918E+04  5.36203E+03 -9.19629E+03  3.26368E+03 -5.11165E+03
  2.49727E+03 -2.51339E+03  3.05614E+03 -4.43489E+03  6.97320E+03 -2.86729E+03  7.59115E+03 -2.33790E+03
  9.48461E+03  1.64077E+03  4.96752E+03  7.53064E+03 -3.65520E+03  1.16956E+04 -1.01683E+04  6.66555E+03
 -1.26080E+04 -1.34707E+03 -7.91354E+03 -9.16149E+03 -1.08476E+03 -1.40724E+04  5.88299E+03 -1.48506E+04
  1.49183E+04 -7.55013E+03  1.77793E+04  1.81315E+03  1.25932E+04  1.17475E+04  1.48714E+03  1.45216E+04
 -5.88329E+03  1.30301E+04 -8.64980E+03  4.56026E+03 -6.78651E+03 -1.38720E+03 -1.62202E+03 -1.72094E+03
 -4.03130E+02 -2.04196E+02 -1.37681E+03  2.74839E+03 -5.76598E+03  3.18807E+03 -9.67940E+03 -1.81937E+03
 -6.12312E+03 -9.68555E+03 -2.87429E+01 -1.39079E+04  8.65989E+03 -1.20631E+04  1.28939E+04 -3.45100E+03
  1.27961E+04  6.27920E+03  5.36974E+03  1.22082E+04 -4.19981E+03  1.33626E+04 -8.48548E+03  8.32681E+03
 -1.13597E+04  7.55288E+02 -8.57936E+03 -8.43921E+03 -1.63583E+03 -1.02888E+04  5.61032E+03 -7.86819E+03
  8.84224E+03 -3.63884E+03  6.18473E+03  2.01300E+03  2.30228E+03  3.73847E+03  1.11067E+03  1.17255E+03
  1.96197E+03  2.34201E+02  3.31674E+03  1.70834E+03  2.37448E+03  4.70923E+03  4.52111E+03  6.36896E+03
 -4.47769E+03  1.04057E+04 -8.40146E+03  9.97789E+03 -1.22390E+04  2.07818E+03 -1.37969E+04 -5.63403E+03
 -6.80235E+03 -1.41602E+04  1.89545E+03 -1.33606E+04  7.00739E+03 -8.10875E+03  1.10088E+04 -2.82755E+03
  8.91865E+03  4.33256E+03  1.55881E+03  7.21910E+03 -2.96285E+03  4.76296E+03 -5.11469E+03 -1.69525E+03
 -2.84723E+03 -4.95438E+03  2.73997E+03 -6.70946E+03  4.77912E+03 -2.09158E+03  5.27251E+03  1.13154E+03
  4.42468E+03  3.76012E+03  1.21147E+03  3.22075E+03 -4.64800E+02  1.63863E+03  1.95618E+03 -5.39230E+02
  1.36838E+03 -4.12027E+02  5.49662E+03  3.01346E+03  2.51748E+03  6.89856E+03 -5.84285E+02  8.65801E+03
 -6.39983E+03  5.38971E+03 -8.33311E+03  1.44505E+03 -6.86116E+03 -2.31345E+03 -3.37250E+03 -4.21521E+03
  1.77704E+03 -4.86619E+03  3.43464E+03 -3.91083E+03  2.89262E+03  3.08026E+03 -2.21403E+03  4.48139E+03
 -6.46286E+03  1.28001E+03 -5.38562E+03 -4.98034E+03 -4.72511E+03 -7.50897E+03  1.28118E+03 -8.02692E+03
  4.67636E+03 -3.05013E+03  5.44097E+03 -7.86946E+02  3.60328E+03  2.29256E+03  5.96548E+02  4.31731E+03
 -2.01219E+03  7.25271E+02 -3.18169E+03 -2.83130E+03  1.82884E+03 -4.27364E+03  6.59589E+03 -3.73576E+03
  8.51706E+03  2.72591E+02  8.77519E+03  6.76928E+03  2.72132E+03  8.54812E+03 -4.15556E+03  7.88065E+03
 -7.00548E+03  4.19800E+03 -5.83184E+03 -2.02444E+03 -4.10828E+03 -6.87997E+03  2.05861E+03 -5.66292E+03
  5.73097E+03 -2.91673E+03  3.40842E+03  1.49116E+03  7.68948E+02  4.80315E+03 -1.16144E+03  3.34477E+03
 -1.61407E+03  2.76656E+03 -1.88167E+03  2.84851E+02 -5.49109E+02  1.49034E+03 -2.32425E+03  2.96696E+03
 -2.53859E+03  1.98773E+03 -5.82006E+03  1.55965E+03 -8.53850E+03  8.28244E+02 -7.64030E+03 -4.44075E+03
 -4.54386E+03 -1.10018E+04  2.57243E+03 -1.30308E+04  8.31428E+03 -9.48567E+03  1.29333E+04 -4.44335E+03
  1.04458E+04  3.46737E+03  6.61385E+03  8.73187E+03  6.74365E+02  1.02393E+04 -4.22920E+03  6.80976E+03
 -3.40560E+03  1.01340E+03 -2.66194E+03 -2.05413E+01 -6.40757E+02 -2.04663E+03 -1.32290E+03  1.00505E+03
 -1.87585E+03 -3.84486E+02 -2.01081E+03  8.59988E+01 -2.35767E+02 -1.21888E+03  8.53063E+02 -2.72877E+03
  5.64145E+03 -3.32340E+03  5.66125E+03  7.07577E+02  6.11025E+03  4.46543E+03 -1.04251E+02  9.02691E+03
 -3.29636E+03  8.40040E+03 -8.15753E+03  6.34521E+03 -9.53482E+03 -7.60878E+02 -8.55071E+03 -5.54327E+03
 -3.79201E+03 -1.00653E+04  1.84123E+03 -7.60981E+03  5.25161E+03 -5.33576E+03  3.94350E+03  1.88002E+03
  1.77393E+03  3.42177E+03 -7.43405E+02  1.75108E+03 -2.16899E+03 -2.64388E+02  2.18804E+01 -2.10951E+03
  3.10135E+03 -1.70829E+03  3.53189E+03  1.15301E+03  3.29611E+03  3.39724E+03  1.77015E+03  4.17071E+03
 -3.26945E+03  4.22620E+03 -4.37544E+03  6.97356E+01 -4.89074E+03 -4.59344E+03 -7.73237E+02 -6.28464E+03
  3.92527E+03 -5.46434E+03  7.05010E+03 -2.49259E+03  6.00492E+03  2.58710E+03  3.52181E+03  5.49448E+03
  9.90323E+02  4.45689E+03 -3.45087E+03  4.55134E+03 -5.15388E+03  2.21755E+03 -4.13260E+03 -4.14650E+02
 -2.83475E+02  3.57446E+02 -7.24006E+02  7.09758E+02 -3.60373E+03  8.09587E+02 -4.39818E+03 -1.83537E+03
 -3.51465E+03 -5.24529E+03 -6.50281E+02 -4.45579E+03  3.02558E+03 -6.39543E+03  5.44551E+03 -2.70269E+03
  5.82858E+03  2.76995E+02  3.01919E+03  3.83732E+03 -3.64450E+02  5.96912E+03 -3.17910E+03  3.06376E+03
