 $NMID ID='MM_0lb_SNR200_10hz_g60_97.RAW', FMTDAT='(8E13.5)'
 TRAMP=1., VOLUME=1. $END
  3.10328E+05  1.40695E+03  3.38900E+05  2.51870E+05  8.50856E+04  3.39263E+05 -1.32352E+05  2.52479E+05
 -1.91046E+05  8.46534E+04 -1.12226E+05 -3.30483E+04  2.65891E+02 -4.98383E+04  5.39621E+04 -2.95830E+02
  3.69484E+04  5.16428E+04 -1.62906E+04  7.67077E+04 -6.23767E+04  6.60600E+04 -8.53532E+04  3.21865E+04
 -8.26860E+04 -1.03194E+04 -5.76719E+04 -5.25683E+04 -1.28119E+04 -7.04685E+04  2.87732E+04 -4.56727E+04
  4.15710E+04  3.71009E+03  1.68048E+04  4.95376E+04 -3.39494E+04  4.68857E+04 -6.87672E+04  1.36952E+03
 -5.34249E+04 -5.68773E+04 -6.03390E+03 -7.93013E+04  3.60646E+04 -5.72269E+04  5.12053E+04 -1.96941E+04
  4.58171E+04  1.18169E+04  3.39209E+04  2.72514E+04  1.41735E+04  2.99851E+04 -7.79770E+03  2.82968E+04
 -2.18072E+04  1.11391E+04 -1.89525E+04 -3.73248E+03  7.15296E+03 -8.45665E+03  2.44832E+04  1.39653E+04
  6.54494E+03  3.89342E+04 -3.33774E+04  3.47120E+04 -6.53922E+04  1.48845E+03 -5.90744E+04 -4.59572E+04
 -1.12446E+04 -6.52416E+04  4.20713E+04 -4.71778E+04  5.99513E+04 -2.53150E+03  3.74459E+04  3.40636E+04
 -6.97414E+03  3.93326E+04 -3.30679E+04  2.00232E+04 -3.22566E+04 -3.70663E+03 -1.94910E+04 -1.08618E+04
 -1.02090E+04 -1.36733E+04 -6.75845E+02 -1.97345E+04  7.86640E+03 -2.35792E+04  1.73174E+04 -1.26002E+04
  1.13378E+04  5.81969E+03 -9.56146E+03  1.43322E+04 -2.25907E+04 -6.49805E+03 -9.32717E+03 -3.87277E+04
  2.60438E+04 -4.65814E+04  5.25738E+04 -2.22406E+04  4.97450E+04  2.13237E+04  1.71065E+04  4.60585E+04
 -1.58656E+04  3.56052E+04 -2.77258E+04  4.03047E+03 -1.20406E+04 -3.04739E+04  2.07114E+04 -3.70465E+04
  4.47671E+04 -1.01036E+04  4.05498E+04  2.55324E+04  2.01228E+04  5.22391E+04 -8.02496E+03  5.63054E+04
 -3.45745E+04  3.91124E+04 -4.77400E+04  1.08043E+04 -4.84665E+04 -1.89155E+04 -2.60341E+04 -4.27575E+04
  7.82721E+03 -4.26432E+04  3.33590E+04 -1.60324E+04  3.27230E+04  1.05805E+04  5.01339E+03  2.25564E+04
 -1.41343E+04  8.78287E+03 -1.10583E+04 -7.97688E+03  6.23602E+03 -1.21657E+04  1.96632E+04  5.43802E+03
  1.56582E+04  2.26436E+04 -5.89485E+03  2.59589E+04 -2.35839E+04  1.31010E+04 -2.96948E+04 -2.65236E+03
 -2.45174E+04 -1.94290E+04 -1.26095E+04 -2.63250E+04  4.82594E+03 -2.64029E+04  1.93722E+04 -2.43734E+04
  3.36832E+04 -1.46442E+04  3.99753E+04  3.78140E+03  2.70065E+04  2.43020E+04  4.33405E+03  4.17355E+04
 -1.97341E+04  3.41975E+04 -3.00577E+04  1.15039E+04 -2.28646E+04 -9.67417E+03 -4.32485E+03 -1.32266E+04
 -1.34448E+03 -1.57983E+03 -7.27785E+03  8.06473E+03 -2.11035E+04  4.50450E+03 -1.91921E+04 -1.05822E+04
 -1.25254E+04 -2.34164E+04  5.19304E+03 -2.86229E+04  1.91125E+04 -1.78837E+04  2.23272E+04 -1.99779E+03
  1.48940E+04  1.71376E+04 -1.86478E+03  2.19368E+04 -1.87016E+04  1.27108E+04 -2.33238E+04 -4.80792E+03
 -1.73972E+04 -2.13532E+04 -2.92951E+03 -2.79916E+04  1.34667E+04 -2.35083E+04  2.31712E+04 -1.30730E+04
  2.05602E+04 -2.72519E+02  1.75799E+04  5.42682E+03  9.46338E+03  9.31152E+02  1.26059E+04 -2.54092E+03
  2.20889E+04  3.72772E+03  2.58383E+04  1.81664E+04  1.75818E+04  3.70214E+04 -2.47248E+03  4.45813E+04
 -2.55576E+04  3.64792E+04 -4.27512E+04  2.06607E+04 -4.50785E+04 -3.72211E+03 -3.74698E+04 -2.64561E+04
 -1.47589E+04 -3.83500E+04  1.28403E+04 -3.19563E+04  2.74663E+04 -1.60650E+04  2.46141E+04  8.45352E+03
  8.68779E+03  1.87577E+04 -1.31982E+04  1.55004E+04 -2.00540E+04  3.88740E+03 -1.54133E+04 -1.33010E+04
 -8.84446E+02 -2.01863E+04  1.08272E+04 -1.48655E+04  1.31532E+04 -2.06695E+03  3.20229E+03  8.29378E+03
 -8.01927E+03  4.75532E+03 -9.29959E+03 -6.86626E+03 -2.87136E+03 -1.74669E+04  1.26791E+04 -1.92218E+04
  2.37585E+04 -1.14291E+04  2.68192E+04  2.76300E+03  2.38105E+04  1.98019E+04  1.02245E+04  2.83168E+04
 -6.40380E+03  3.06612E+04 -2.10155E+04  1.92160E+04 -2.23853E+04  4.96561E+03 -1.49267E+04 -6.73031E+03
 -5.80361E+03 -7.28618E+03 -1.98857E+03  2.12571E+03 -2.75906E+03  3.54096E+03 -7.07601E+03  5.68169E+03
 -1.42018E+04 -1.29756E+03 -1.39311E+04 -1.08471E+04 -5.14357E+03 -1.99267E+04  5.69615E+03 -1.54081E+04
  1.30532E+04 -7.18679E+03  9.71014E+03  4.18025E+03 -7.27797E+01  6.30471E+03 -7.72640E+03  2.13861E+02
 -7.65424E+03 -1.09524E+04 -1.05835E+02 -1.57319E+04  8.82861E+03 -1.58064E+04  2.20939E+04 -8.11406E+03
  2.37842E+04  2.24111E+03  1.69656E+04  1.43342E+04  2.82666E+03  2.01889E+04 -1.03471E+04  1.57333E+04
 -1.09165E+04  4.41332E+03 -6.47622E+03 -5.15184E+03  1.94381E+03 -4.34315E+03  6.79781E+03 -1.41636E+03
  5.96295E+03  6.55748E+03  1.69631E+03  1.23642E+04 -9.56805E+03  1.28053E+04 -1.52843E+04  2.94944E+03
 -1.08598E+04 -7.49433E+03  4.00847E+02 -1.24437E+04  6.78608E+03 -7.36608E+03  7.85583E+03  4.38343E+03
  4.02667E+03  7.70030E+03 -7.54032E+03  1.16747E+04 -1.42715E+04  4.94474E+03 -1.22355E+04 -5.73368E+03
 -7.09514E+03 -1.40721E+04  4.25496E+03 -1.80683E+04  1.63843E+04 -1.00789E+04  1.69296E+04  2.93587E+03
  1.00106E+04  1.43106E+04 -1.35347E+03  1.61997E+04 -1.07643E+04  9.28300E+03 -1.20237E+04 -1.77183E+03
 -1.05409E+04 -1.05500E+04 -2.15543E+03 -1.27625E+04  6.90310E+03 -9.48412E+03  6.67362E+03 -4.56112E+03
  5.85877E+03  3.06852E+03 -1.94552E+03  1.59130E+03 -4.50027E+02 -4.00083E+03  3.28488E+03 -6.96020E+03
  1.17559E+04 -5.09471E+03  1.53656E+04  3.23851E+03  1.36689E+04  1.04335E+04  1.13893E+04  1.98861E+04
 -5.81216E+03  2.27379E+04 -1.84158E+04  1.75786E+04 -2.50730E+04  2.36087E+03 -2.00041E+04 -8.23540E+03
 -1.11548E+04 -1.58440E+04  4.31089E+02 -1.38175E+04  5.13266E+03 -8.30870E+03  6.27573E+03 -6.14938E+03
  1.81880E+03 -3.94973E+03  4.37481E+03 -3.68573E+03  4.34053E+03 -1.98060E+03  8.09112E+03 -1.11751E+03
  9.74873E+03  2.63836E+03  6.55771E+03  8.58419E+03 -2.27464E+03  1.19257E+04 -1.15058E+04  7.63263E+03
 -1.31586E+04  9.78220E+02 -9.48426E+03 -1.15687E+04 -7.07735E+02 -1.56251E+04  8.49640E+03 -1.44107E+04
  1.45794E+04 -8.39807E+03  1.86811E+04  2.23985E+03  1.36794E+04  1.44023E+04  1.55964E+03  1.91349E+04
 -7.49148E+03  1.37852E+04 -1.02758E+04  5.16603E+03 -6.06796E+03 -2.31967E+03 -4.45027E+03 -6.52063E+02
 -3.76596E+02  9.01555E+02 -1.54011E+03  2.57673E+03 -5.88930E+03  2.39671E+03 -1.03758E+04 -6.08635E+02
 -7.23385E+03 -1.12719E+04 -3.57791E+02 -1.29278E+04  8.34484E+03 -1.44444E+04  1.50418E+04 -3.95699E+03
  1.36504E+04  5.92949E+03  6.25989E+03  1.24680E+04 -2.21001E+03  1.27925E+04 -1.16205E+04  7.52592E+03
 -1.40366E+04 -6.83234E+02 -1.08578E+04 -8.46012E+03 -4.72180E+02 -1.17939E+04  5.73488E+03 -8.86810E+03
  8.86944E+03 -3.61659E+03  5.21061E+03  2.70459E+03  2.32728E+03  4.12391E+03  1.84026E+03  1.37238E+03
  2.37315E+03  6.30143E+02  3.79824E+03  2.55751E+03  4.63955E+03  3.69321E+03  5.17383E+03  5.71113E+03
 -3.01556E+03  1.01974E+04 -1.11165E+04  1.20317E+04 -1.61583E+04  2.39867E+03 -1.45366E+04 -7.15003E+03
 -8.01825E+03 -1.28629E+04  2.50314E+03 -1.66628E+04  9.54892E+03 -9.76618E+03  1.13440E+04 -4.47853E+03
  1.01514E+04  5.40427E+03  1.80169E+03  8.41053E+03 -2.60080E+03  5.29877E+03 -5.87316E+03 -7.38038E+02
 -2.83445E+03 -6.40930E+03  5.11702E+03 -5.76528E+03  5.98603E+03 -2.53320E+03  5.45146E+03  1.57367E+03
  3.65327E+03  3.09551E+03  6.46412E+02  2.91558E+03 -1.11445E+03  3.14359E+03  3.23929E+03 -1.18296E+03
  3.28349E+03 -1.05414E+03  5.59092E+03  2.02453E+03  3.01431E+03  7.35665E+03 -1.45470E+03  9.53733E+03
 -6.09085E+03  7.47318E+03 -9.81185E+03  1.59565E+03 -7.99657E+03 -3.51511E+03 -4.56907E+03 -6.24204E+03
 -8.17816E+01 -7.09129E+03  1.95026E+03 -3.51683E+03  4.92564E+03  3.57329E+03 -1.17816E+03  5.49754E+03
 -7.36213E+03  3.43066E+03 -7.05823E+03 -3.08783E+03 -3.56547E+03 -8.49281E+03  1.47169E+03 -8.98483E+03
  3.52254E+03 -4.57834E+03  7.28350E+03  7.31786E+02  4.90574E+03  1.51654E+03  1.56512E+03  4.53340E+03
 -1.95067E+03 -4.74964E+01 -4.31753E+03 -3.45763E+03  5.83532E+02 -4.08512E+03  8.31819E+03 -4.01921E+03
  1.03801E+04  6.46689E+02  9.64018E+03  6.33921E+03  3.88505E+03  9.22843E+03 -5.08002E+03  9.12202E+03
 -6.28966E+03  5.04498E+03 -8.01636E+03  3.75185E+02 -4.29942E+03 -6.30735E+03 -9.31378E+01 -6.77724E+03
  5.63627E+03 -3.02942E+03  3.43532E+03  2.49923E+03  1.73349E+03  5.33825E+03 -8.38241E+02  3.25920E+03
 -3.53001E+03  2.78965E+03 -3.40082E+03  3.00623E+03 -1.03357E+02  1.20971E+03 -2.11481E+03  1.95518E+03
 -1.49339E+03  3.20302E+03 -6.22223E+03  2.52200E+03 -9.71337E+03 -2.02315E+02 -1.18662E+04 -7.71423E+03
 -5.84795E+03 -1.20045E+04  2.05484E+03 -1.37697E+04  7.97889E+03 -1.27145E+04  1.30167E+04 -5.01244E+03
  1.17128E+04  3.34171E+03  7.43672E+03  8.14645E+03  2.79276E+02  8.21660E+03 -3.55224E+03  7.29232E+03
 -4.82374E+03  2.57938E+03 -1.80023E+03 -6.35603E+02 -2.02013E+03 -1.15385E+02 -1.01914E+03  1.05964E+02
 -2.50232E+03  2.01132E+02 -7.98029E+02  8.90572E+02 -1.13001E+03 -2.20006E+03 -1.80372E+03 -3.57980E+03
  5.08295E+03 -3.19118E+03  6.19766E+03  1.22710E+03  5.69584E+03  4.70673E+03  1.39787E+03  1.03450E+04
 -4.41137E+03  1.15766E+04 -1.12135E+04  6.67047E+03 -1.18123E+04 -8.46031E+02 -8.14624E+03 -6.40629E+03
 -4.59129E+03 -7.53810E+03  2.00647E+03 -8.82552E+03  7.77223E+03 -6.33836E+03  7.72457E+03 -1.65197E+01
  3.53572E+03  2.72781E+03  1.31272E+03  3.49266E+03 -5.80769E+02  7.15341E+02  9.51388E+02 -1.78230E+03
  3.75861E+03 -2.10519E+03  3.03983E+03  3.23975E+03  1.05128E+03  3.06512E+03  7.52897E+01  6.16426E+03
 -4.45539E+03  3.64022E+03 -6.73090E+03  1.56462E+03 -5.84994E+03 -4.32903E+03 -7.79249E+02 -7.32155E+03
  3.37409E+03 -6.25178E+03  6.06572E+03 -3.32639E+03  6.55041E+03  8.98336E+02  4.02312E+03  5.28425E+03
 -1.32788E+02  4.76401E+03 -1.51084E+03  5.69755E+03 -4.00821E+03  3.07191E+03 -1.71592E+03  6.98200E+02
 -1.19799E+03 -7.77215E+02 -2.27189E+03  9.57533E+02 -3.14543E+03  3.67419E+02 -4.32741E+03 -1.60302E+03
 -5.46915E+03 -3.06763E+03 -1.15180E+03 -7.37137E+03  3.84786E+03 -7.37477E+03  5.03973E+03 -3.29871E+03
  6.25972E+03  6.45353E+02  4.05036E+03  2.93185E+03 -2.53554E+02  6.11896E+03 -5.75609E+03  4.37011E+03
