 $NMID ID='MM_0lb_SNR200_20hz_g50_70.RAW', FMTDAT='(8E13.5)'
 TRAMP=1., VOLUME=1. $END
  3.09193E+05  1.87781E+03  3.36113E+05  2.51135E+05  8.33549E+04  3.36579E+05 -1.32368E+05  2.50278E+05
 -1.90240E+05  8.28053E+04 -1.10636E+05 -3.28903E+04  7.47941E+02 -5.10443E+04  5.41740E+04 -2.98861E+02
  3.45751E+04  5.30750E+04 -1.70400E+04  7.58229E+04 -6.14111E+04  6.25027E+04 -8.26492E+04  3.14992E+04
 -7.84298E+04 -1.04665E+04 -5.63079E+04 -4.98665E+04 -1.49700E+04 -6.83784E+04  2.67264E+04 -4.53504E+04
  3.91472E+04  4.54217E+03  1.59917E+04  4.72288E+04 -3.28038E+04  4.59525E+04 -6.46415E+04 -1.44110E+03
 -5.22309E+04 -5.54669E+04 -6.74933E+03 -7.53613E+04  3.29943E+04 -5.31622E+04  4.64064E+04 -1.60325E+04
  4.08965E+04  1.13916E+04  3.03246E+04  2.31538E+04  1.60046E+04  2.70333E+04 -4.10971E+03  2.63529E+04
 -2.17773E+04  1.30623E+04 -1.93049E+04 -4.61043E+03  4.84467E+03 -7.35136E+03  2.04905E+04  1.14619E+04
  8.57779E+03  3.21720E+04 -2.98898E+04  3.45402E+04 -6.13343E+04  1.54145E+03 -5.44714E+04 -4.07042E+04
 -1.20164E+04 -6.08371E+04  3.79754E+04 -4.31377E+04  5.43243E+04 -9.96455E+02  3.11496E+04  3.10232E+04
 -6.69117E+03  3.28562E+04 -2.75994E+04  1.24410E+04 -2.75472E+04 -6.47781E+03 -1.38129E+04 -9.49358E+03
 -7.43769E+03 -9.85798E+03 -2.59648E+03 -1.68243E+04  6.55633E+03 -2.10864E+04  1.53039E+04 -1.32097E+04
  1.18997E+04  4.29098E+03 -5.50502E+03  1.33537E+04 -1.94124E+04 -2.77945E+03 -8.54765E+03 -3.04216E+04
  1.97763E+04 -3.93403E+04  4.45099E+04 -1.89841E+04  4.11932E+04  1.80994E+04  1.47416E+04  4.16522E+04
 -1.53104E+04  3.03525E+04 -2.35967E+04  9.97255E+02 -8.83771E+03 -2.61085E+04  2.01863E+04 -3.05982E+04
  3.73122E+04 -6.60178E+03  3.06180E+04  2.33606E+04  1.46442E+04  4.16735E+04 -8.15098E+03  4.45335E+04
 -2.79590E+04  2.91923E+04 -3.62345E+04  7.73136E+03 -3.73037E+04 -1.46259E+04 -2.08990E+04 -3.50953E+04
  7.08781E+03 -3.33096E+04  2.80762E+04 -1.25332E+04  2.67787E+04  1.07261E+04  2.66941E+03  1.75604E+04
 -1.33123E+04  6.89941E+03 -8.96623E+03 -7.52347E+03  5.15233E+03 -9.93850E+03  1.75937E+04  7.66406E+03
  1.23612E+04  2.12195E+04 -7.02162E+03  2.30453E+04 -2.25142E+04  8.67823E+03 -2.46076E+04 -6.11438E+03
 -1.63494E+04 -1.55867E+04 -4.47724E+03 -1.60061E+04  3.42800E+03 -1.37550E+04  1.11603E+04 -1.40420E+04
  2.04569E+04 -1.18974E+04  2.64690E+04  5.88337E+02  2.15349E+04  1.63536E+04  2.85955E+03  3.05026E+04
 -1.58024E+04  2.73134E+04 -2.55765E+04  9.11573E+03 -1.83847E+04 -1.02308E+04 -4.07571E+03 -1.35751E+04
  2.56429E+03 -4.16309E+03 -1.61864E+03  5.25196E+03 -1.19117E+04  5.14348E+03 -1.33712E+04 -4.74004E+03
 -8.58562E+03 -1.47203E+04  4.31785E+03 -1.88348E+04  1.28461E+04 -1.38249E+04  1.46437E+04 -1.60952E+03
  7.87334E+03  1.00144E+04  2.49165E+02  1.41783E+04 -1.07990E+04  8.59443E+03 -1.46042E+04 -3.51106E+03
 -1.12486E+04 -1.31289E+04 -2.21485E+03 -1.77500E+04  7.83475E+03 -1.38203E+04  1.62177E+04 -7.16158E+03
  1.39059E+04  2.39253E+03  1.07912E+04  3.22164E+03  5.44546E+03  7.69488E+02  6.47725E+03 -9.84133E+02
  1.27141E+04  1.84768E+03  1.26002E+04  1.17424E+04  8.02810E+03  2.36746E+04 -2.41180E+03  2.58887E+04
 -1.45262E+04  1.87182E+04 -2.29217E+04  8.26935E+03 -2.37143E+04 -1.36748E+03 -1.93439E+04 -1.33594E+04
 -9.76534E+03 -1.80371E+04  5.81951E+03 -1.86532E+04  1.57052E+04 -1.07603E+04  1.46768E+04  2.62718E+03
  6.23903E+03  9.90457E+03 -6.98686E+03  9.94914E+03 -1.34221E+04  2.08538E+03 -1.03023E+04 -8.03920E+03
  5.64914E+02 -1.14088E+04  5.14775E+03 -8.55847E+03  7.96112E+03 -8.19087E+02  1.23630E+03  4.51113E+03
 -5.72121E+03  1.18493E+03 -3.76767E+03 -3.99886E+03  8.94385E+02 -9.02458E+03  7.44599E+03 -9.71740E+03
  1.13679E+04 -3.55525E+03  1.05569E+04  3.40061E+03  1.00930E+04  8.90139E+03  4.83195E+03  1.23628E+04
 -3.35214E+02  1.42947E+04 -7.95726E+03  1.02046E+04 -1.17171E+04  2.88009E+03 -6.59280E+03 -5.57920E+02
 -4.70194E+03 -3.00170E+03 -1.56326E+03  1.71662E+03 -1.31861E+03  1.11213E+03 -3.44223E+03  2.81651E+03
 -5.96307E+03 -4.07235E+02 -8.04957E+03 -7.45442E+03 -3.21883E+03 -1.02101E+04  2.35915E+03 -7.83754E+03
  6.69649E+03 -3.30619E+03  5.37093E+03  3.21863E+03  7.07019E+02  2.64833E+03 -3.15039E+03  6.84241E+01
 -3.50778E+03 -4.88155E+03 -1.44665E+03 -7.03492E+03  3.81660E+03 -7.57576E+03  8.55597E+03 -3.39577E+03
  1.00308E+04  4.46800E+02  8.70151E+03  5.99184E+03  3.10306E+03  6.63972E+03 -4.45499E+03  7.27067E+03
 -6.53974E+03  2.45624E+03 -2.85966E+03  2.24670E+02  2.10835E+03 -1.55524E+03  4.75619E+03 -6.55299E+02
  3.92312E+03  3.57822E+03  2.47937E+03  5.59429E+03 -3.66013E+03  5.29525E+03 -7.61757E+03  1.56779E+03
 -4.21139E+03 -2.60790E+03  8.84558E+02 -5.80792E+03  3.57494E+03 -2.65583E+03  2.92124E+03  2.91186E+02
 -3.20097E+02  2.16901E+03 -3.71507E+03  4.51042E+03 -3.46741E+03  2.00964E+03 -3.09232E+03 -1.33852E+03
 -3.03265E+03 -4.09726E+03  5.92535E+02 -6.04796E+03  4.30968E+03 -3.69457E+03  5.00548E+03  8.60934E+02
  4.42306E+03  5.09811E+03  3.75423E+01  6.67550E+03 -4.50363E+03  2.81824E+03 -4.53592E+03 -1.25800E+02
 -4.95295E+03 -4.90160E+03 -1.01555E+03 -3.88081E+03  2.32984E+03 -4.22385E+03  1.94648E+03 -3.90812E+03
  2.63704E+03 -4.06521E+02 -3.07325E+02  8.70104E+02  7.72691E+02  1.01398E+03  6.26973E+02 -1.26691E+03
  2.43941E+03 -1.21677E+02  4.38284E+03 -3.41316E+02  4.55096E+03  1.82775E+03  4.51024E+03  6.81925E+03
 -9.13087E+02  7.85660E+03 -7.64104E+03  5.82219E+03 -7.88605E+03 -1.69805E+02 -6.83453E+03 -2.35140E+03
 -4.00996E+03 -4.92176E+03  3.57549E+02 -5.03854E+03  2.26731E+03 -1.88334E+03  2.08352E+03 -2.51334E+03
  5.27586E+02 -1.49540E+03  1.00392E+03 -2.05987E+03  4.14215E+03 -1.10845E+03  2.99534E+03  1.36103E+03
  4.41900E+03 -2.40978E+02  3.55103E+02  3.54837E+03 -1.68347E+03  1.71263E+03 -3.57089E+03  3.74971E+03
 -4.94334E+03 -1.87751E+03 -2.20407E+03 -2.39226E+03  8.28065E+02 -3.54217E+03  2.38093E+03 -4.63862E+03
  4.26043E+03 -2.83047E+03  5.39629E+03  4.59720E+02  4.06200E+03  2.97916E+03  1.29515E+03  4.37033E+03
 -2.03657E+03  5.19805E+03 -2.19322E+03  2.93673E+02 -1.41491E+03 -8.12889E+02  2.82854E+02 -1.05659E+03
 -1.63717E+02 -1.17557E+02 -8.58273E+02  1.79748E+03 -1.71676E+03  3.18021E+02 -3.62351E+03 -2.83317E+02
 -1.32266E+03 -3.29043E+03  1.06673E+03 -3.31456E+03  1.70786E+03 -3.70918E+03  2.12075E+03 -8.63943E+02
  3.49005E+03  1.25025E+03  1.43350E+03  2.89464E+03 -7.93088E+02  3.58146E+03 -2.05876E+03  2.15108E+03
 -3.19913E+03  1.17347E+03 -2.07533E+03 -2.26381E+03 -7.53094E+01 -2.96875E+03  1.22003E+03 -2.56846E+03
  2.30368E+03 -7.49732E+02  1.00615E+03 -1.48100E+02  1.06546E+02  1.60091E+03 -3.22477E+02  8.90883E+02
  1.19345E+03  1.21414E+03  1.40782E+03  2.16286E+02  1.11683E+03  2.70320E+03  1.43544E+03  1.22858E+03
 -5.26871E+02  2.15193E+03 -2.29584E+03  3.64725E+03 -1.82392E+03  9.08590E+02 -2.92871E+03  1.31115E+02
 -1.18699E+03 -2.57603E+03  4.52448E+02 -3.59519E+03  1.10520E+03 -2.35364E+03  2.42113E+03 -7.26555E+02
  1.30631E+03  1.38851E+03 -1.20068E+02  1.88372E+03 -8.68352E+02  4.98823E+02 -5.95805E+02 -7.67325E+01
  6.42401E+02 -1.42313E+03  1.60126E+02 -1.95615E+03  2.15890E+03 -1.58340E+03  2.12707E+03  5.72549E+02
  1.43682E+03 -1.35558E+03 -4.98333E+02 -1.38490E+03 -8.11016E+02  7.04698E+02  2.66491E+03 -3.17799E+02
 -1.92112E+03 -2.24730E+02  7.80936E+02 -6.36749E+02 -2.39435E+02  1.99403E+03 -3.76983E+02  2.63214E+03
 -1.13642E+03  4.71697E+02 -2.18602E+03  2.65984E+02 -2.05401E+03 -6.59995E+02  2.48165E+02 -5.89992E+02
  2.17159E+02 -1.32887E+03  1.46478E+03 -9.80152E+02  2.77511E+01  1.47832E+03 -1.29033E+02  5.95361E+02
 -1.12344E+03  3.68404E+02 -1.08564E+03 -1.22117E+03 -1.31480E+03 -1.97419E+03 -2.47436E+02 -8.08587E+02
  8.10724E+01  1.57881E+02  1.89191E+02  7.07485E+02  6.43033E+02 -6.77942E+02  8.04630E+02  1.18276E+03
 -2.30822E+02  5.07760E+02 -9.13694E+02  6.00919E+02  1.33386E+03  8.54108E+01  1.87616E+03 -1.37892E+03
  2.08482E+03 -6.90288E+02  1.76757E+03  4.58307E+02  1.02090E+03  5.88234E+02 -8.51208E+02  8.19276E+02
 -1.94965E+03  3.64512E+01 -1.51335E+03  3.75734E+02 -1.38945E+03 -8.04961E+02  6.62526E+02 -7.48358E+02
  1.74509E+03 -7.87192E+02  2.41743E+03  1.36538E+03 -1.52917E+03  1.40402E+03 -3.10409E+01  1.37297E+03
 -7.86192E+02  3.67996E+02 -5.67144E+02  9.88110E+02  5.26081E+01 -3.15501E+02 -5.05938E+02 -7.23760E+02
 -6.36661E+02 -2.07047E+02 -2.28283E+03 -4.90340E+02 -1.09447E+03  7.30625E+02 -2.05153E+03 -2.55903E+02
 -8.48493E+02 -1.79735E+03 -7.45319E+01 -1.61768E+03  1.63620E+03 -2.51619E+03  2.44440E+03 -1.43602E+02
  1.40610E+03  1.55277E+01  3.86812E+02  1.14683E+03 -4.89489E+02  9.95587E+02 -1.17590E+03 -1.63044E+02
 -1.57451E+03  2.30650E+02  6.57297E+01 -1.33953E+03 -4.32663E+02  3.49421E+01 -1.05294E+03 -9.42660E+01
 -1.47489E+03  5.22452E+02 -2.83359E+02 -3.90708E+02  9.50838E+01 -4.58468E+02  3.03110E+02 -8.99924E+02
  1.14606E+03 -3.98899E+02 -8.42356E+01  3.17526E+02  9.42496E+02  1.14522E+03  5.57369E+02  1.15080E+03
 -1.78701E+03  1.75222E+03 -1.45488E+03  7.84652E+02 -8.06838E+02 -4.36668E+02 -5.08257E+02 -1.29767E+03
 -8.09188E+02 -1.53511E+03  5.22751E+02 -5.43735E+02  3.92063E+01 -6.23525E+02  1.27182E+03 -6.38385E+02
  1.06516E+03  1.30078E+03 -7.23107E+02  7.43333E+02 -2.73425E+02  6.36268E+02  8.25475E+02 -1.31269E+02
  7.02546E+02  8.73945E+02  7.77285E+02 -2.08444E+02  5.15163E+02  4.27801E+01 -1.91313E+02  4.16727E+02
  6.36541E+01 -1.78908E+02  1.11613E+03 -2.07291E+02 -2.81697E+02 -1.17690E+03  1.23107E+03 -9.22699E+02
  1.37217E+03 -3.92114E+02  7.91616E+02 -3.06608E+02 -3.11295E+02 -2.45847E+02  9.77990E+02  5.64930E+02
 -3.52774E+02  3.31079E+02 -6.70862E+02  9.21850E+02 -3.87113E+02 -4.30116E+02 -1.25711E+02  5.11592E+02
  1.22910E+02  2.62499E+02 -5.92679E+02 -3.79150E+02 -1.20176E+03 -3.50892E+02 -1.00605E+03  2.40200E+01
 -3.03184E+02  1.58434E+03 -5.31616E+02 -6.31948E+02  1.11294E+03 -1.22723E+03  8.71089E+02  5.58793E+02
 -4.64251E+02 -4.52277E+02 -6.13749E+02  2.31916E+02 -6.09888E+02  6.62784E+02  4.46618E+02  2.80129E+02
