 $NMID ID='MM_0lb_SNR200_7hz_g55_22.RAW', FMTDAT='(8E13.5)'
 TRAMP=1., VOLUME=1. $END
  3.10797E+05 -2.13891E+02  3.37060E+05  2.51746E+05  8.63325E+04  3.39125E+05 -1.34252E+05  2.53486E+05
 -1.89984E+05  8.54161E+04 -1.11654E+05 -3.17956E+04  6.42467E+02 -5.07923E+04  5.14677E+04 -9.76728E+02
  3.66985E+04  5.27597E+04 -1.59150E+04  7.59715E+04 -6.30278E+04  6.38604E+04 -8.68084E+04  3.35162E+04
 -8.39662E+04 -1.12596E+04 -5.72622E+04 -5.23682E+04 -1.44163E+04 -7.16304E+04  2.71897E+04 -4.60896E+04
  4.20869E+04  4.00557E+03  1.79928E+04  4.76989E+04 -3.45638E+04  4.81430E+04 -7.00243E+04  2.43561E+03
 -5.61284E+04 -5.93738E+04 -6.03354E+03 -8.03803E+04  3.46940E+04 -5.92731E+04  5.03687E+04 -2.06819E+04
  4.71646E+04  1.25985E+04  3.28216E+04  2.74365E+04  1.55355E+04  3.20406E+04 -4.34819E+03  2.88817E+04
 -2.12026E+04  1.22052E+04 -1.72972E+04 -6.85110E+03  7.92296E+03 -7.18071E+03  2.29799E+04  1.56140E+04
  7.14285E+03  3.78751E+04 -3.62639E+04  3.77127E+04 -6.59191E+04  1.33977E+03 -5.88624E+04 -4.80519E+04
 -1.21101E+04 -6.86535E+04  4.08323E+04 -4.73148E+04  6.29476E+04 -1.26058E+03  3.80699E+04  3.37563E+04
 -7.31435E+03  4.09782E+04 -3.24014E+04  2.00623E+04 -3.63747E+04 -3.75370E+02 -2.07600E+04 -1.03769E+04
 -7.68322E+03 -1.51236E+04 -1.32924E+03 -2.02862E+04  8.04839E+03 -2.42860E+04  1.75221E+04 -1.24808E+04
  1.13801E+04  5.47944E+03 -1.27301E+04  1.12298E+04 -2.53839E+04 -8.07032E+03 -9.41037E+03 -3.93423E+04
  2.62484E+04 -4.87108E+04  5.33495E+04 -2.02651E+04  4.95190E+04  2.34513E+04  1.97880E+04  4.81732E+04
 -1.86039E+04  3.80095E+04 -3.05211E+04  1.03943E+03 -1.34057E+04 -3.13756E+04  2.30393E+04 -3.75420E+04
  4.56559E+04 -1.30035E+04  4.38788E+04  2.57096E+04  2.34137E+04  5.28328E+04 -8.48430E+03  5.94647E+04
 -3.77264E+04  4.03042E+04 -5.00497E+04  1.05178E+04 -5.00237E+04 -1.93855E+04 -2.67517E+04 -4.27760E+04
  6.34287E+03 -4.68521E+04  3.51216E+04 -1.81025E+04  3.48490E+04  1.33371E+04  6.79785E+03  2.23563E+04
 -1.57393E+04  1.07411E+04 -1.19547E+04 -7.51895E+03  4.80719E+03 -1.16438E+04  1.92730E+04  5.40031E+03
  1.59489E+04  2.49053E+04 -4.63012E+03  2.79571E+04 -2.39668E+04  1.63293E+04 -3.32197E+04 -2.87769E+03
 -2.76976E+04 -1.99190E+04 -1.31469E+04 -2.76003E+04  4.56711E+03 -2.84188E+04  2.17627E+04 -2.47141E+04
  3.69595E+04 -1.46532E+04  4.05099E+04  7.49765E+03  2.82213E+04  2.55405E+04  5.86929E+03  4.17102E+04
 -2.18220E+04  3.47217E+04 -3.19523E+04  1.23033E+04 -2.32831E+04 -1.10122E+04 -4.86019E+03 -1.15575E+04
 -1.40661E+03 -6.57354E+02 -9.24350E+03  1.08279E+04 -2.28013E+04  5.23184E+03 -2.20314E+04 -8.96498E+03
 -1.21523E+04 -2.58548E+04  6.25772E+03 -3.12328E+04  2.03777E+04 -2.22361E+04  2.51073E+04 -1.41876E+03
  1.44671E+04  1.98000E+04 -1.38777E+03  2.70353E+04 -2.03245E+04  1.46966E+04 -2.73029E+04 -5.83806E+03
 -1.83921E+04 -2.26967E+04 -1.39598E+03 -3.01999E+04  1.40428E+04 -2.50676E+04  2.58361E+04 -1.35342E+04
  2.43506E+04  1.45484E+03  1.84673E+04  4.02591E+03  9.71354E+03  8.18678E+02  1.54054E+04 -3.58234E+03
  2.66222E+04  3.67612E+03  2.88637E+04  1.99780E+04  1.93504E+04  4.14100E+04 -3.67348E+03  4.97583E+04
 -2.73936E+04  4.35431E+04 -4.61767E+04  2.18169E+04 -5.13215E+04 -4.16219E+03 -4.04227E+04 -3.06904E+04
 -1.50832E+04 -4.31441E+04  1.45748E+04 -3.41481E+04  3.07841E+04 -1.59471E+04  2.75983E+04  9.49554E+03
  8.21745E+03  2.22587E+04 -1.24277E+04  1.83471E+04 -2.27528E+04  4.07949E+03 -1.74147E+04 -1.42458E+04
 -2.10099E+03 -2.26332E+04  1.25033E+04 -1.53889E+04  1.44791E+04 -1.99622E+03  4.91740E+03  8.47404E+03
 -1.22652E+04  5.16331E+03 -1.05687E+04 -8.52887E+03 -2.95988E+03 -2.19953E+04  1.35026E+04 -2.41428E+04
  2.64413E+04 -1.31479E+04  3.05841E+04  4.87318E+03  2.51871E+04  1.92286E+04  1.32794E+04  3.32481E+04
 -6.83923E+03  3.64618E+04 -2.52778E+04  2.16852E+04 -2.50797E+04  4.16008E+03 -1.63468E+04 -8.28329E+03
 -6.95586E+03 -7.65792E+03 -3.30910E+02 -1.16533E+03 -4.55690E+03  6.42571E+03 -8.87228E+03  6.64822E+03
 -1.61588E+04 -2.08777E+03 -1.56605E+04 -1.36262E+04 -7.74409E+03 -2.34641E+04  7.41269E+03 -1.75498E+04
  1.57301E+04 -8.90273E+03  1.08626E+04  2.56608E+03  5.35615E+02  7.73215E+03 -1.11024E+04  4.99897E+02
 -6.93970E+03 -1.10178E+04 -3.43082E+03 -1.89465E+04  9.26041E+03 -1.83239E+04  2.42094E+04 -1.12649E+04
  2.56338E+04  3.34154E+03  1.80848E+04  1.89617E+04  4.32915E+03  2.35547E+04 -1.06942E+04  1.83765E+04
 -1.36553E+04  4.51083E+03 -8.97800E+03 -4.15292E+03  2.73976E+03 -4.06668E+03  1.00083E+04 -6.92947E+02
  8.23747E+03  9.26834E+03  2.16113E+03  1.39969E+04 -1.30024E+04  1.43886E+04 -1.78318E+04  2.63596E+03
 -1.17438E+04 -8.30000E+03  5.92173E+02 -1.63889E+04  1.20648E+04 -8.09160E+03  1.39746E+04  3.48265E+03
  5.06413E+03  1.21640E+04 -1.14773E+04  1.42663E+04 -1.78622E+04  7.05637E+03 -1.79102E+04 -5.00903E+03
 -8.83409E+03 -1.89368E+04  4.29207E+03 -2.32185E+04  2.05930E+04 -1.28941E+04  2.06414E+04  3.35764E+03
  1.39180E+04  1.38007E+04 -6.60109E+02  1.84175E+04 -1.25143E+04  1.18217E+04 -1.59413E+04 -2.54907E+02
 -1.05738E+04 -1.28287E+04 -1.96119E+03 -1.48233E+04  6.44072E+03 -1.02253E+04  1.11665E+04 -5.11452E+03
  7.46765E+03  2.84281E+03 -1.63065E+03  1.84084E+03 -2.72130E+02 -4.14539E+03  1.61097E+03 -9.88527E+03
  1.30933E+04 -6.59487E+03  2.18131E+04  2.39854E+03  1.84131E+04  1.32299E+04  1.18313E+04  2.59014E+04
 -5.59437E+03  3.12971E+04 -2.48622E+04  2.35221E+04 -2.97527E+04  3.84972E+03 -2.63605E+04 -1.28554E+04
 -1.17421E+04 -2.10106E+04 -9.40504E+02 -1.86461E+04  8.14296E+03 -1.14141E+04  6.47170E+03 -6.25529E+03
  4.22665E+03 -3.58912E+03  4.20495E+03 -2.80460E+03  4.55862E+03 -4.14979E+03  1.02104E+04 -1.91493E+03
  1.36941E+04  1.88801E+03  8.12116E+03  1.24348E+04 -2.92139E+03  1.46049E+04 -1.45747E+04  1.22616E+04
 -1.96510E+04 -6.02112E+02 -1.17457E+04 -1.20914E+04 -1.88170E+03 -2.01418E+04  9.98550E+03 -2.06717E+04
  2.01112E+04 -1.13973E+04  2.44410E+04  3.48608E+03  1.63106E+04  1.80000E+04  2.59186E+03  2.26125E+04
 -1.04789E+04  1.67233E+04 -1.27185E+04  7.01821E+03 -1.15480E+04 -9.63131E+02 -2.45147E+03  2.05914E+02
 -2.67194E+03 -9.55804E+02 -3.23368E+03  4.05025E+03 -8.57350E+03  5.15177E+03 -1.38610E+04 -2.98857E+03
 -9.99221E+03 -1.14048E+04 -6.46440E+02 -1.92326E+04  1.12024E+04 -1.55349E+04  1.95109E+04 -4.56737E+03
  1.91400E+04  8.63322E+03  9.09507E+03  1.62114E+04 -4.25671E+03  1.96585E+04 -1.40187E+04  1.02044E+04
 -1.89936E+04 -1.28252E+03 -1.50819E+04 -1.35858E+04 -8.81524E+02 -1.57169E+04  6.06024E+03 -1.25474E+04
  1.33236E+04 -4.11371E+03  8.74556E+03  2.55916E+03  4.39982E+03  6.71402E+03  3.63298E+03  3.14740E+03
  4.13991E+03  1.33107E+03  5.11315E+03  3.80993E+02  5.26349E+03  8.59655E+03  4.70138E+03  1.06319E+04
 -3.62008E+03  1.62507E+04 -1.70753E+04  1.35675E+04 -2.20194E+04  4.02875E+03 -2.26484E+04 -8.03905E+03
 -9.91208E+03 -1.91469E+04  2.09451E+03 -2.27148E+04  1.29166E+04 -1.58859E+04  1.49438E+04 -3.24388E+03
  1.12141E+04  7.31804E+03  3.00113E+03  1.03982E+04 -5.25876E+03  8.17401E+03 -9.76142E+03  1.02697E+02
 -3.60100E+03 -8.39255E+03  6.54436E+03 -7.62414E+03  9.15488E+03 -3.90453E+03  9.72166E+03  3.98713E+03
  4.90702E+03  3.06833E+03  2.04465E+02  5.83896E+03 -1.00327E+03  2.57840E+03  3.12259E+03 -5.66577E+02
  1.40383E+03 -1.55344E+03  9.44573E+03  3.77105E+03  4.29242E+03  1.06485E+04  1.23220E+03  1.25604E+04
 -8.65883E+03  1.05310E+04 -1.58164E+04  3.19945E+03 -1.38476E+04 -3.61382E+03 -6.76557E+03 -9.03361E+03
  5.04939E+02 -7.33131E+03  6.49541E+03 -3.46680E+03  4.19065E+03  3.76898E+03 -1.18684E+03  7.27784E+03
 -8.55629E+03  5.30801E+03 -8.46689E+03 -4.65000E+03 -6.08143E+03 -1.07277E+04  7.09407E+02 -1.23735E+04
  8.24284E+03 -7.38049E+03  8.91535E+03  6.10077E+02  5.83137E+03  3.36437E+03  1.50056E+03  4.85830E+03
 -5.09730E+03  2.60208E+03 -6.69689E+03 -3.77658E+03  2.64630E+03 -9.11315E+03  1.04792E+04 -8.06486E+03
  1.56657E+04  2.05611E+02  9.69320E+03  8.62180E+03  5.06786E+03  1.35086E+04 -6.22521E+03  1.36897E+04
 -1.32515E+04  5.31521E+03 -1.20910E+04 -2.35147E+02 -8.27222E+03 -1.00713E+04  3.77127E+02 -1.01019E+04
  8.29410E+03 -3.14826E+03  7.84805E+03  4.92987E+03  4.31634E+03  8.23941E+03  2.74510E+02  7.11228E+03
 -4.17536E+03  4.74975E+03 -3.10187E+03  2.09058E+03 -2.70364E+03 -3.47767E+02 -1.06575E+02  3.65005E+03
 -4.86194E+03  8.03574E+03 -8.49077E+03  6.34471E+03 -1.62940E+04 -1.01462E+03 -1.54907E+04 -8.05473E+03
 -6.45500E+03 -1.84819E+04  5.84820E+03 -2.27265E+04  1.50072E+04 -1.72088E+04  2.17625E+04 -6.24346E+03
  1.97956E+04  7.00485E+03  1.29565E+04  1.40473E+04  2.73687E+03  1.50794E+04 -6.04550E+03  1.17092E+04
 -8.73073E+03  3.74967E+03 -6.80196E+03 -4.32488E+02 -2.91694E+03 -1.38769E+03 -7.03047E+02  1.47961E+03
 -2.79674E+03  1.18251E+03 -4.29384E+03  3.16353E+02 -2.74114E+03 -5.86989E+03  2.12707E+03 -4.88243E+03
  7.12624E+03 -6.17999E+03  9.30031E+03 -5.59943E+02  1.20067E+04  7.44783E+03  4.19684E+03  1.57893E+04
 -7.22232E+03  1.74745E+04 -1.60699E+04  1.19497E+04 -1.80043E+04 -1.32298E+03 -1.46192E+04 -1.21127E+04
 -5.34960E+03 -1.56063E+04  4.23210E+03 -1.43454E+04  9.70588E+03 -8.17957E+03  9.89324E+03  2.88808E+02
  6.14162E+03  4.84237E+03 -2.07399E+03  4.68517E+03 -1.55611E+03  1.81405E+02  1.88607E+03 -2.89312E+03
  3.43113E+03 -3.00182E+03  6.46306E+03  2.46485E+03  3.60880E+03  3.55162E+03  4.49097E+02  1.13340E+04
 -6.72322E+03  5.83773E+03 -1.13767E+04  1.01901E+03 -9.57676E+03 -8.37947E+03 -6.02700E+02 -1.46061E+04
  8.22882E+03 -1.01623E+04  1.17778E+04 -3.11289E+03  1.45585E+04  4.42736E+03  6.10726E+03  1.06824E+04
  1.18833E+03  9.44492E+03 -4.24923E+03  8.13489E+03 -5.82181E+03  3.21163E+03 -6.02856E+03  2.45292E+03
 -3.53101E+03 -1.05423E+03 -2.97762E+03  3.65218E+02 -5.52179E+03  2.28053E+03 -7.99304E+03 -2.20209E+03
 -6.99925E+03 -4.23171E+03 -2.65153E+03 -1.06860E+04  4.38360E+03 -1.27038E+04  9.57341E+03 -3.44302E+03
  1.01444E+04  1.36446E+03  5.16726E+03  7.20484E+03  4.35861E+02  1.19551E+04 -9.93264E+03  6.68809E+03
