 $NMID ID='MM_0lb_SNR200_14hz_g60_60.RAW', FMTDAT='(8E13.5)'
 TRAMP=1., VOLUME=1. $END
  3.10075E+05  2.92134E+02  3.36934E+05  2.51906E+05  8.62723E+04  3.37165E+05 -1.31826E+05  2.51422E+05
 -1.90023E+05  8.23259E+04 -1.12612E+05 -3.36358E+04 -2.95690E+02 -5.20767E+04  5.42083E+04 -1.07862E+03
  3.44281E+04  5.24519E+04 -1.66707E+04  7.56343E+04 -6.17373E+04  6.31625E+04 -8.61595E+04  3.38908E+04
 -8.19817E+04 -1.14485E+04 -5.81938E+04 -5.12454E+04 -1.54837E+04 -7.03773E+04  2.80315E+04 -4.59380E+04
  4.05174E+04  3.35174E+03  1.58926E+04  4.88753E+04 -3.56085E+04  4.69060E+04 -6.71785E+04 -2.26450E+02
 -5.40020E+04 -5.61446E+04 -6.97874E+03 -7.74435E+04  3.47730E+04 -5.52820E+04  4.89372E+04 -1.73880E+04
  4.40047E+04  1.08091E+04  3.22860E+04  2.51222E+04  1.61033E+04  2.98530E+04 -6.22903E+03  2.66816E+04
 -2.07092E+04  1.23260E+04 -1.84712E+04 -4.38495E+03  6.39605E+03 -7.70060E+03  2.31657E+04  1.23930E+04
  7.32366E+03  3.61857E+04 -3.31798E+04  3.69483E+04 -6.46660E+04  2.42141E+03 -5.68319E+04 -4.50171E+04
 -1.28410E+04 -6.52681E+04  3.96047E+04 -4.53836E+04  5.81685E+04 -2.04093E+03  3.59975E+04  3.33918E+04
 -4.79404E+03  3.74200E+04 -3.07215E+04  1.68595E+04 -3.19495E+04 -4.49916E+03 -1.81847E+04 -1.07214E+04
 -9.16275E+03 -1.42131E+04 -1.45921E+03 -1.97192E+04  7.89256E+03 -2.29814E+04  1.59902E+04 -1.24716E+04
  1.15142E+04  5.81791E+03 -8.44992E+03  1.23423E+04 -2.26114E+04 -3.80615E+03 -8.24815E+03 -3.51404E+04
  2.24544E+04 -4.55006E+04  4.89523E+04 -1.97691E+04  4.60318E+04  1.82673E+04  1.63920E+04  4.51528E+04
 -1.62145E+04  3.44877E+04 -2.63042E+04  2.93678E+03 -1.09309E+04 -2.80049E+04  2.04776E+04 -3.49339E+04
  4.18961E+04 -1.03607E+04  3.62324E+04  2.49109E+04  1.87852E+04  4.84269E+04 -6.89950E+03  5.14519E+04
 -3.30208E+04  3.48426E+04 -4.34392E+04  1.01621E+04 -4.52713E+04 -1.66371E+04 -2.36831E+04 -4.01197E+04
  7.41041E+03 -4.01707E+04  3.21717E+04 -1.49908E+04  2.91999E+04  1.23134E+04  4.30477E+03  2.02417E+04
 -1.27933E+04  7.60936E+03 -1.17466E+04 -6.92259E+03  5.46308E+03 -1.18137E+04  1.84360E+04  5.48774E+03
  1.24765E+04  2.27160E+04 -5.08300E+03  2.63139E+04 -2.16418E+04  1.05651E+04 -3.00130E+04 -4.29484E+03
 -2.25372E+04 -1.75122E+04 -8.95280E+03 -2.28151E+04  3.77892E+03 -2.12132E+04  1.68968E+04 -1.90150E+04
  2.76080E+04 -1.33474E+04  3.41151E+04  2.95524E+03  2.38044E+04  2.17372E+04  5.45672E+03  3.78588E+04
 -1.82310E+04  3.16982E+04 -2.90331E+04  1.13551E+04 -2.18937E+04 -1.20909E+04 -4.27014E+03 -1.13737E+04
  2.95301E+03 -1.56431E+03 -6.17759E+03  7.00103E+03 -1.54871E+04  6.16734E+03 -1.73835E+04 -9.54624E+03
 -9.82148E+03 -2.15004E+04  6.46351E+03 -2.46966E+04  1.65015E+04 -1.71616E+04  1.89949E+04 -8.76558E+02
  1.15595E+04  1.33870E+04 -1.40105E+03  2.07695E+04 -1.32692E+04  1.11128E+04 -2.16669E+04 -4.73006E+03
 -1.51084E+04 -1.82060E+04 -1.70599E+03 -2.44207E+04  1.16036E+04 -1.93119E+04  2.04851E+04 -1.00102E+04
  1.95093E+04  1.87085E+03  1.34422E+04  4.25235E+03  7.35436E+03 -1.67470E+02  9.31022E+03 -2.97185E+03
  1.78305E+04  2.09330E+03  2.11611E+04  1.48458E+04  1.36583E+04  3.41679E+04 -2.84974E+03  3.69610E+04
 -2.14440E+04  2.96171E+04 -3.26709E+04  1.46491E+04 -3.56874E+04 -2.03887E+03 -2.78739E+04 -2.07979E+04
 -1.23376E+04 -2.95543E+04  1.05603E+04 -2.51304E+04  2.37925E+04 -1.32297E+04  1.99807E+04  5.79862E+03
  5.05401E+03  1.48532E+04 -8.78692E+03  1.29535E+04 -1.65160E+04  2.40651E+03 -1.31376E+04 -1.09690E+04
  7.36467E+02 -1.55238E+04  7.03100E+03 -1.24391E+04  1.15313E+04 -1.89422E+03  1.92774E+03  7.42877E+03
 -7.19829E+03  2.02294E+03 -6.09609E+03 -6.28896E+03 -1.47086E+03 -1.43087E+04  8.60176E+03 -1.60783E+04
  1.78811E+04 -9.09212E+03  2.07262E+04  2.23148E+03  1.78750E+04  1.49454E+04  8.19243E+03  2.23682E+04
 -3.32556E+03  2.50288E+04 -1.54452E+04  1.56920E+04 -1.73152E+04  2.99913E+03 -1.24285E+04 -4.53612E+03
 -5.31101E+03 -4.62129E+03 -1.05124E+03  1.46784E+03 -2.75093E+03  1.70222E+03 -5.57582E+03  4.32031E+03
 -1.12389E+04 -2.30592E+01 -1.19165E+04 -9.34599E+03 -5.85699E+03 -1.61068E+04  5.26927E+03 -1.24583E+04
  1.10732E+04 -5.15180E+03  7.73550E+03  2.89357E+03  1.39211E+03  4.48106E+03 -6.31722E+03 -6.10690E+02
 -5.39764E+03 -7.54853E+03 -5.06010E+02 -1.09953E+04  6.25800E+03 -1.18291E+04  1.52037E+04 -5.78343E+03
  1.87955E+04  9.16549E+02  1.28025E+04  1.02501E+04  2.39647E+03  1.47814E+04 -6.85025E+03  1.24565E+04
 -1.07263E+04  4.11802E+03 -5.22020E+03 -3.00609E+03  1.88489E+03 -3.41753E+03  5.98776E+03 -1.18868E+03
  6.16295E+03  5.28631E+03  1.98036E+03  8.92427E+03 -7.18034E+03  8.99869E+03 -1.12320E+04  2.96714E+03
 -8.98989E+03 -6.42532E+03  1.83602E+02 -9.83448E+03  6.73552E+03 -5.44749E+03  6.56056E+03  1.56455E+03
  2.38312E+03  6.51696E+03 -6.92419E+03  8.34932E+03 -9.09329E+03  3.09891E+03 -9.01263E+03 -3.16368E+03
 -5.33878E+03 -1.18326E+04  2.87504E+03 -1.16322E+04  1.01999E+04 -7.40328E+03  1.14035E+04  2.06498E+03
  5.88098E+03  9.65558E+03 -2.95562E+02  1.17479E+04 -8.48623E+03  6.93046E+03 -7.45063E+03 -2.07594E+02
 -8.46554E+03 -8.70031E+03 -9.19743E+02 -8.91321E+03  5.39061E+03 -7.24974E+03  5.55621E+03 -2.71692E+03
  4.19692E+03  4.24100E+02 -1.26067E+02 -5.92092E+02 -7.44710E+02 -1.00589E+03  1.67473E+03 -3.26892E+03
  7.50356E+03 -1.74580E+03  1.04508E+04  1.46250E+02  9.23854E+03  7.11955E+03  6.99806E+03  1.47245E+04
 -2.97518E+03  1.52079E+04 -1.25670E+04  1.21946E+04 -1.67977E+04  2.04514E+03 -1.34153E+04 -4.83249E+03
 -6.54429E+03 -1.05382E+04 -1.56845E+02 -1.03166E+04  2.80977E+03 -4.15033E+03  3.39364E+03 -3.46023E+03
  1.29754E+03 -2.91255E+03  3.51249E+03 -2.50778E+03  4.13192E+03 -1.81954E+03  6.47794E+03 -1.08245E+03
  7.21847E+03  2.16963E+03  3.23616E+03  6.47541E+03 -1.76834E+03  6.13804E+03 -6.68705E+03  5.95796E+03
 -9.07267E+03 -6.62312E+02 -5.35403E+03 -6.16491E+03 -4.06380E+02 -1.00874E+04  5.57077E+03 -9.37505E+03
  9.12656E+03 -4.91753E+03  1.15809E+04  1.06579E+03  9.44108E+03  7.66233E+03  2.79399E+03  1.07532E+04
 -4.51427E+03  8.12095E+03 -6.28705E+03  3.60807E+03 -4.79404E+03 -6.56274E+02 -1.57543E+03 -9.66935E+02
 -3.79258E+02  5.22505E+02 -1.56472E+03  2.92172E+03 -3.19717E+03  2.01443E+02 -5.64424E+03 -1.81267E+02
 -2.83843E+03 -5.73886E+03  1.49583E+03 -8.95544E+03  5.49943E+03 -9.43066E+03  8.92948E+03 -1.84791E+03
  8.49141E+03  4.43926E+03  4.42284E+03  8.47219E+03 -4.13515E+02  8.99300E+03 -5.86186E+03  5.08365E+03
 -8.08329E+03  9.07421E+02 -6.12229E+03 -4.57679E+03 -1.17978E+03 -7.96178E+03  3.65767E+03 -5.44275E+03
  4.03790E+03 -1.65580E+03  4.00901E+03  8.15136E+02  1.34690E+03  3.78169E+03  1.05088E+03  2.14046E+03
  2.47645E+03  5.65581E+02  3.10624E+03  4.11008E+02  9.13995E+02  3.47084E+03  2.41201E+03  3.68327E+03
 -2.42332E+03  6.63259E+03 -6.29643E+03  6.87182E+03 -7.80267E+03  2.82257E+03 -8.63064E+03 -2.82581E+03
 -3.69901E+03 -7.04142E+03  2.07260E+03 -8.61205E+03  4.25497E+03 -6.36160E+03  5.78924E+03 -1.66027E+03
  4.04659E+03  3.23747E+03  5.63521E+02  4.96446E+03 -1.88169E+03  2.93197E+03 -3.40844E+03  1.04650E+02
 -8.58238E+02 -2.14690E+03  2.37886E+03 -2.28916E+03  1.64598E+03 -2.08071E+03  3.61433E+03  1.03150E+03
  8.59547E+02  1.62357E+03  2.35112E+02  2.20626E+02  2.37460E+02  2.27246E+03  9.30971E+02 -5.99734E+02
  2.08099E+03 -5.95165E+02  2.41415E+03  2.04512E+03  7.57805E+02  5.56491E+03  2.13248E+02  5.67369E+03
 -2.97035E+03  3.73522E+03 -3.97698E+03  1.76249E+03 -4.33566E+03 -2.53774E+03 -1.52052E+03 -3.15057E+03
  5.18384E+01 -3.11011E+03  1.57734E+03 -2.20757E+03  2.08246E+03  1.26535E+03 -1.27695E+02  2.52048E+03
 -4.27112E+03  1.17472E+03 -5.14935E+03 -1.48188E+03 -2.90506E+03 -4.24775E+03  1.64346E+03 -4.93307E+03
  2.62522E+03 -2.33022E+03  2.03280E+03 -2.78399E+02  2.64444E+03  1.19974E+03  5.07116E+02  2.22489E+03
 -2.34999E+02  2.16856E+02 -2.09021E+03 -1.89828E+01  9.24218E+02 -3.93980E+03  3.53754E+03 -1.73679E+03
  4.68546E+03  2.26956E+02  5.37503E+03  3.03756E+03  8.02407E+02  5.26431E+03 -2.10810E+03  4.21200E+03
 -3.36866E+03  5.98821E+02 -3.71150E+03 -2.43283E+02 -4.90282E+02 -2.42321E+03  1.88854E+02 -2.81370E+03
  2.35721E+03 -3.04964E+02  1.73096E+03 -1.61390E+02  1.29768E+03  2.56150E+03 -6.05227E+01  1.95959E+03
 -1.71665E+02  1.65384E+03 -7.74598E+02  5.53291E+02 -1.51586E+03  7.34552E+02 -3.98090E+02  1.19451E+03
 -7.06584E+02  2.57106E+03 -3.02424E+03  1.68024E+03 -3.53779E+03  4.03416E+02 -4.24639E+03 -2.42533E+03
 -2.91108E+03 -4.46679E+03  2.81631E+02 -6.76881E+03  2.80760E+03 -5.24752E+03  6.88938E+03 -1.09911E+03
  6.67609E+03  1.86524E+03  2.87681E+03  4.45095E+03 -9.84283E+02  3.31860E+03 -8.36532E+02  3.33988E+03
 -1.93269E+03  9.12963E+02 -3.24306E+03 -1.27826E+03 -7.11420E+02  1.79844E+02 -2.64845E+02  1.51341E+02
 -9.31114E+02  2.75330E+02 -2.08000E+03  5.31393E+02  3.57572E+02  1.69100E+02  1.66462E+02 -2.13160E+03
  3.23236E+03 -1.63405E+03  8.22417E+02  7.37731E+02  1.54850E+03  2.32358E+03 -2.24364E+02  5.18097E+03
 -1.84018E+03  5.54047E+03 -5.15329E+03  3.33888E+03 -4.80843E+03  6.04944E+02 -3.71198E+03 -2.35024E+03
 -1.73463E+03 -3.62526E+03  8.69415E+02 -3.36249E+03  2.32417E+03 -3.61402E+03  3.61679E+03  6.12369E+02
  1.18286E+03  1.38813E+03  7.37343E+02  2.91267E+02 -3.82627E+01 -3.35436E+02 -1.66743E+03 -1.55642E+03
  7.25266E+02 -3.50678E+02  1.44797E+03  8.77560E+02  3.22901E+02  1.66669E+03  3.32439E+02  3.47378E+03
 -9.48912E+02  1.23555E+03 -2.87746E+03 -6.01559E+02 -4.21270E+03 -2.39771E+03  4.55128E+02 -4.01219E+03
  1.58438E+03 -2.64483E+03  3.11602E+03 -1.17883E+03  1.44554E+03 -9.59484E+02  4.50897E+02  3.24493E+03
  9.01923E+02  2.42815E+03 -1.24787E+03  2.03028E+03 -1.76831E+03  2.86855E+03 -7.45668E+02  8.79842E+02
 -1.10959E+03  1.05553E+03 -9.50829E+02  4.79167E+02 -6.57130E+02 -1.20255E+01 -1.03034E+03 -5.72557E+02
 -1.67352E+03 -1.04565E+01 -3.14182E+02 -2.36880E+03  2.00184E+03 -3.40359E+03  2.63095E+03 -6.66389E+02
  3.22111E+03  8.71324E+02  6.91413E+02  2.76241E+03 -4.89891E+02  3.92584E+03 -1.64725E+03  1.73651E+03
