 $NMID ID='MM_0lb_SNR200_18hz_g60_78.RAW', FMTDAT='(8E13.5)'
 TRAMP=1., VOLUME=1. $END
  3.10331E+05  9.64170E+02  3.37523E+05  2.50607E+05  8.46372E+04  3.38129E+05 -1.31836E+05  2.51830E+05
 -1.89224E+05  8.25019E+04 -1.11108E+05 -3.30288E+04  1.50621E+03 -5.07824E+04  5.34320E+04 -5.14995E+02
  3.56994E+04  5.21496E+04 -1.63888E+04  7.45514E+04 -6.11349E+04  6.30626E+04 -8.41768E+04  3.22995E+04
 -8.11027E+04 -1.18085E+04 -5.81432E+04 -5.15134E+04 -1.50665E+04 -6.93848E+04  2.76828E+04 -4.59259E+04
  3.84686E+04  3.76933E+03  1.58509E+04  4.76336E+04 -3.45737E+04  4.70509E+04 -6.61388E+04 -1.00620E+03
 -5.23819E+04 -5.66981E+04 -6.06211E+03 -7.72476E+04  3.34159E+04 -5.46963E+04  4.71883E+04 -1.69993E+04
  4.31944E+04  1.26041E+04  3.13119E+04  2.39792E+04  1.69527E+04  2.99433E+04 -5.86532E+03  2.79817E+04
 -2.11138E+04  1.22612E+04 -1.93762E+04 -5.03719E+03  5.35206E+03 -7.66770E+03  2.26452E+04  1.15135E+04
  7.66320E+03  3.58330E+04 -3.15556E+04  3.45882E+04 -6.30733E+04  1.47837E+03 -5.68103E+04 -4.24465E+04
 -1.14818E+04 -6.26270E+04  3.98076E+04 -4.43229E+04  5.74904E+04 -1.53684E+03  3.32635E+04  3.18602E+04
 -6.78775E+03  3.49417E+04 -2.99007E+04  1.50956E+04 -2.96000E+04 -5.22883E+03 -1.69761E+04 -1.07900E+04
 -9.05221E+03 -1.22590E+04 -2.78727E+02 -1.89327E+04  6.06187E+03 -2.37035E+04  1.54521E+04 -1.31041E+04
  1.22839E+04  3.62377E+03 -6.97860E+03  1.28747E+04 -1.96048E+04 -2.79474E+03 -8.77725E+03 -3.31529E+04
  2.31354E+04 -4.33631E+04  4.67076E+04 -1.90987E+04  4.36675E+04  1.98487E+04  1.51873E+04  4.29340E+04
 -1.65892E+04  3.26308E+04 -2.53428E+04  6.19056E+02 -8.83528E+03 -2.75450E+04  2.11262E+04 -3.34490E+04
  4.01964E+04 -7.93187E+03  3.40599E+04  2.38336E+04  1.69403E+04  4.50298E+04 -8.00360E+03  4.79833E+04
 -3.01349E+04  3.11534E+04 -4.11251E+04  8.89861E+03 -4.05994E+04 -1.53062E+04 -2.23479E+04 -3.64154E+04
  8.47105E+03 -3.75410E+04  2.90600E+04 -1.32790E+04  2.79412E+04  1.14333E+04  2.28241E+03  1.83194E+04
 -1.34963E+04  7.35387E+03 -9.39961E+03 -7.64898E+03  5.36013E+03 -1.02055E+04  1.84679E+04  6.83771E+03
  1.27863E+04  2.23646E+04 -6.32743E+03  2.48335E+04 -2.19138E+04  1.01793E+04 -2.69701E+04 -5.43242E+03
 -1.79516E+04 -1.71043E+04 -6.67677E+03 -1.82191E+04  4.05095E+03 -1.88803E+04  1.48903E+04 -1.74616E+04
  2.38003E+04 -1.19891E+04  3.14743E+04  1.32102E+03  2.24753E+04  1.78378E+04  3.46973E+03  3.40910E+04
 -1.68728E+04  2.83220E+04 -2.69850E+04  9.34432E+03 -1.92356E+04 -1.05713E+04 -4.48375E+03 -1.30942E+04
  2.89567E+03 -4.06779E+03 -2.68905E+03  6.13774E+03 -1.57116E+04  5.45318E+03 -1.44152E+04 -5.56275E+03
 -9.05157E+03 -1.75275E+04  5.35097E+03 -2.11125E+04  1.40289E+04 -1.49200E+04  1.61071E+04 -3.98085E+02
  1.06988E+04  1.12061E+04 -1.52056E+02  1.73052E+04 -1.13737E+04  1.13125E+04 -1.62147E+04 -3.22452E+03
 -1.30610E+04 -1.67796E+04 -2.32940E+03 -2.12994E+04  9.36359E+03 -1.60387E+04  1.90235E+04 -7.20168E+03
  1.61251E+04  4.82481E+02  1.18654E+04  4.70265E+03  5.96628E+03  6.68026E+02  9.27851E+03 -2.09320E+03
  1.42460E+04  1.93385E+03  1.59958E+04  1.32444E+04  1.04460E+04  2.77457E+04 -3.19103E+03  2.92888E+04
 -1.82062E+04  2.30593E+04 -2.68785E+04  1.11350E+04 -2.91220E+04 -1.59026E+03 -2.36588E+04 -1.77114E+04
 -1.10065E+04 -2.41557E+04  7.67691E+03 -2.20905E+04  1.95102E+04 -1.14331E+04  1.62893E+04  5.39423E+03
  7.85888E+03  1.35619E+04 -8.15423E+03  1.12103E+04 -1.44548E+04  2.21409E+03 -1.16373E+04 -8.48660E+03
 -1.24951E+03 -1.32692E+04  8.48084E+03 -9.72921E+03  8.76169E+03 -9.72123E+02  8.53653E+02  6.50110E+03
 -5.22697E+03  1.91384E+03 -4.96774E+03 -4.55623E+03  5.31166E+02 -1.09542E+04  8.39927E+03 -1.08303E+04
  1.31691E+04 -4.82540E+03  1.35137E+04  2.87471E+03  1.18312E+04  1.00191E+04  5.62668E+03  1.68501E+04
 -3.72061E+03  1.76918E+04 -1.14496E+04  1.23988E+04 -1.44528E+04  3.68193E+03 -8.78783E+03 -3.21284E+03
 -4.48062E+03 -3.57044E+03 -9.34638E+02  1.02059E+03 -1.92999E+03  3.92300E+03 -3.07990E+03  3.29677E+03
 -8.55771E+03 -9.37318E+02 -9.74608E+03 -8.22464E+03 -4.09931E+03 -1.27119E+04  4.41255E+03 -9.86298E+03
  7.07405E+03 -3.20236E+03  6.64573E+03  2.60679E+03  3.49170E+02  3.10001E+03 -4.24456E+03 -5.92368E+02
 -4.39287E+03 -5.60167E+03 -1.55645E+03 -8.76171E+03  5.28328E+03 -9.86565E+03  1.02737E+04 -5.21228E+03
  1.31512E+04  1.09488E+03  1.07675E+04  7.66579E+03  2.36441E+03  1.01798E+04 -6.14233E+03  7.72397E+03
 -7.53033E+03  3.42413E+03 -5.16808E+03 -1.66092E+03  1.71556E+03 -2.93301E+03  6.44071E+03 -1.39997E+03
  4.56551E+03  3.35731E+03  1.26262E+03  7.37105E+03 -5.96485E+03  7.15113E+03 -9.26050E+03  2.44877E+03
 -6.10696E+03 -4.51801E+03  3.36623E+02 -7.68132E+03  4.41530E+03 -3.37332E+03  3.99659E+03  1.19692E+03
  1.46655E+03  3.88446E+03 -4.44772E+03  5.62282E+03 -5.89488E+03  3.14701E+03 -5.52315E+03 -2.27573E+03
 -3.25845E+03 -7.14563E+03  1.13612E+03 -8.21332E+03  6.15492E+03 -5.65136E+03  7.98985E+03  1.56131E+03
  5.26526E+03  7.00939E+03 -1.43358E+03  8.34763E+03 -7.54424E+03  5.24288E+03 -6.08627E+03 -8.85800E+02
 -7.39183E+03 -6.59731E+03 -2.03686E+03 -6.05020E+03  2.63951E+03 -4.79917E+03  3.95300E+03 -2.46146E+03
  2.58926E+03  9.65044E+02 -4.57452E+02  1.32416E+03  8.94888E+02 -7.71800E+02  9.13155E+01 -2.45310E+03
  3.75577E+03 -6.44278E+02  5.08266E+03  1.11860E+03  5.21895E+03  4.30811E+03  7.19451E+03  9.67715E+03
 -1.76274E+03  9.52498E+03 -9.67954E+03  7.88772E+03 -1.01731E+04  2.71306E+03 -9.99663E+03 -3.06131E+03
 -5.32383E+03 -7.92179E+03 -1.62752E+02 -4.24163E+03  2.13937E+03 -2.94867E+03  1.51563E+03 -3.05424E+03
  1.90250E+03 -1.37325E+03  2.19453E+03 -2.80352E+03  3.92622E+03 -1.61201E+03  4.28276E+03  6.39328E+01
  4.78609E+03  8.16076E+02  1.80842E+03  3.44458E+03 -1.32331E+03  3.47670E+03 -4.31937E+03  3.03825E+03
 -6.62481E+03 -1.67895E+03 -2.27283E+03 -4.10994E+03  2.65395E+02 -5.46516E+03  3.21825E+03 -6.72623E+03
  6.61955E+03 -2.20780E+03  7.60328E+03  1.06139E+01  6.11767E+03  5.52683E+03  1.36201E+03  6.82864E+03
 -3.15968E+03  6.90938E+03 -4.51219E+03  2.20447E+03 -3.02556E+03 -1.25264E+03 -2.17265E+01 -1.72507E+03
  9.17241E+02 -2.38854E+02 -1.11022E+03  2.77624E+03 -3.04519E+03  1.75245E+03 -4.61817E+03 -1.86753E+03
 -2.14175E+03 -5.87698E+03  1.43987E+03 -5.05995E+03  3.41692E+03 -4.36560E+03  4.22925E+03 -2.57079E+03
  5.70747E+03  1.68367E+03  1.08256E+03  2.83009E+03 -1.30971E+03  4.36198E+03 -4.07896E+03  4.18981E+03
 -4.31029E+03 -3.68507E+02 -4.58659E+03 -3.73961E+03 -6.52272E+02 -1.91257E+03  2.82455E+03 -2.71628E+03
  2.91871E+03 -2.51536E+03  2.16698E+03  1.04601E+03  2.61458E+02  1.77541E+03  1.45455E+03  3.91787E+02
  1.62339E+03  1.08460E+03  7.60229E+02  1.06444E+03  1.53557E+02  2.39732E+03 -6.76691E+02  1.81563E+03
 -2.76226E+03  2.83308E+03 -3.52824E+03  5.20061E+03 -3.25199E+03  2.21544E+03 -4.14908E+03 -4.77801E+02
 -2.10443E+03 -4.61907E+03  4.61600E+02 -6.14129E+03  2.71531E+03 -4.39215E+03  3.46504E+03 -6.21239E+02
  1.88991E+03  1.45232E+03  6.04649E+02  3.46793E+03  5.54528E+01  1.50547E+03  1.63482E+02 -1.31887E+03
 -1.58654E+03 -1.38508E+03  1.92164E+03 -2.09695E+03  1.22648E+03 -1.01259E+03  1.41691E+03  1.78125E+02
  1.93703E+03  1.83885E+02  1.11631E+03  4.77154E+02  8.96553E+02  8.67691E+02  2.10770E+03 -1.10245E+03
 -2.36158E+02  1.23846E+03  1.85732E+03 -1.46656E+02  2.70184E+02  2.43897E+03 -4.71195E+02  3.04050E+03
 -2.20228E+03  2.74933E+03 -2.28963E+03 -1.97847E+02 -3.39956E+03 -5.88643E+02 -4.83312E+02 -1.30884E+03
  1.66291E+02 -2.13352E+03  1.27760E+03 -1.65633E+03  1.71384E+03  1.88700E+03 -8.46626E+02  1.03138E+03
 -1.92064E+03  8.22791E+02 -1.13381E+03 -1.03569E+03 -1.15966E+03 -1.69888E+03  9.41474E+02 -1.13603E+03
  1.13361E+02 -3.40366E+02  1.36737E+03  5.19600E+00  2.12850E+03  3.42565E+02  4.41991E+02  8.82021E+02
  2.19437E+02  7.39937E+01 -1.32666E+03  4.21483E+02  1.64187E+02 -6.55916E+02  1.14562E+03 -2.23542E+02
  1.62059E+03 -8.74660E+02  4.16789E+03 -2.42533E+02  1.05534E+03  2.22229E+03 -2.67119E+02  2.54237E+03
 -6.41044E+02  6.23630E+02 -3.26540E+03 -4.84633E+01 -9.00733E+02 -6.62984E+02 -2.62880E+02  1.38258E+03
  1.59847E+03 -2.92081E+02  1.15292E+03  9.84842E+02  1.34385E+01  2.13536E+03 -2.72927E+02  9.23457E+02
 -7.30308E+02  1.46344E+03 -5.73684E+02  3.27085E+02  7.38164E+02  2.68754E+01 -1.88950E+03  3.67563E+02
 -9.33314E+02  2.67321E+01 -2.58143E+03 -8.18764E+01 -8.51723E+02  8.80073E+02 -1.62247E+03 -9.38300E+02
 -3.09500E+02 -2.01681E+03  2.82987E+02 -2.63651E+03  1.22613E+03 -2.89882E+03  3.46998E+03 -6.16122E+02
  1.51655E+03  6.89291E+02  2.72781E+03  2.75502E+03 -1.01183E+03  2.06819E+03 -9.58769E+02  1.44197E+03
 -1.75393E+02 -4.68193E+02  1.30860E+02  4.96558E+02  1.26807E+02 -2.30331E+02 -4.97619E+02  1.89158E+02
 -1.00645E+03  5.88745E+02 -1.00277E+03  5.89227E+02  2.75998E+02 -1.06750E+03  1.23485E+03 -1.28234E+03
  3.09968E+02 -3.50953E+02  1.08342E+03  1.59682E+03  1.21928E+03  1.38143E+03 -3.79228E+02  9.39018E+02
 -8.92512E+02  3.34430E+03 -2.11929E+03  1.61534E+02 -2.27193E+03 -5.43973E+02 -1.88926E+03 -1.10125E+03
 -3.26416E+02 -1.14943E+03  9.53360E+02 -1.42020E+03 -8.97147E+02  6.42458E+02  3.82460E+02  9.76020E+02
  8.57749E+02  2.55069E+02  4.03759E+02 -3.87052E+02 -6.02727E+02 -3.52244E+02 -4.91183E+02 -3.64068E+02
  7.92730E+02  8.89535E+02  2.56530E+02  2.10222E+03  5.17295E+02  8.57093E+02  5.97396E+02 -6.95126E+01
 -4.89248E+02  4.57851E+02 -1.40678E+03  1.57858E+02 -1.41512E+03 -5.60820E+02 -8.43435E+02 -9.78791E+02
  6.14389E+02 -1.74323E+03  1.42979E+03  7.50362E+02 -4.60580E+02 -3.64576E+02 -3.48808E+02  5.41995E+01
  1.02916E+03  6.29985E+02 -1.15981E+03  1.12149E+03 -3.28351E+02 -9.63298E+01  1.04831E+01 -1.30036E+02
 -6.60519E+02 -2.40791E+02 -1.07828E+03  5.49744E+02 -6.47818E+02  1.44797E+03 -9.06577E+02 -2.99683E+02
 -1.50275E+03  1.18399E+01 -1.40369E+03 -1.94966E+03  3.10539E+02 -1.97565E+03  3.90729E+02  5.37367E+02
  1.73451E+03  4.32856E+02 -7.14725E+02  5.52865E+02 -5.44911E+02  1.33431E+03 -5.91066E+02  1.00351E+03
