 $NMID ID='MM_0lb_SNR200_19hz_g55_17.RAW', FMTDAT='(8E13.5)'
 TRAMP=1., VOLUME=1. $END
  3.09610E+05  1.21390E+03  3.36116E+05  2.50896E+05  8.42605E+04  3.37667E+05 -1.33058E+05  2.50391E+05
 -1.89574E+05  8.19854E+04 -1.10321E+05 -3.29285E+04  1.84956E+03 -5.01344E+04  5.47369E+04 -1.14278E+03
  3.60871E+04  5.35333E+04 -1.57817E+04  7.50568E+04 -6.03400E+04  6.24452E+04 -8.33299E+04  3.28634E+04
 -7.96915E+04 -1.10693E+04 -5.69317E+04 -5.21049E+04 -1.47408E+04 -6.89755E+04  2.70287E+04 -4.52704E+04
  3.86695E+04  5.36123E+03  1.57798E+04  4.74131E+04 -3.49667E+04  4.73758E+04 -6.62140E+04 -3.89423E+02
 -5.27226E+04 -5.67766E+04 -6.14571E+03 -7.46702E+04  3.42510E+04 -5.29960E+04  4.55366E+04 -1.57851E+04
  4.23655E+04  1.05222E+04  3.05047E+04  2.49254E+04  1.68892E+04  2.88735E+04 -4.64909E+03  2.67444E+04
 -2.15582E+04  1.21640E+04 -1.99212E+04 -5.13501E+03  4.87397E+03 -8.23910E+03  2.16434E+04  1.09381E+04
  7.54137E+03  3.35668E+04 -3.12637E+04  3.36072E+04 -6.08807E+04  2.39504E+03 -5.56015E+04 -4.19497E+04
 -1.22038E+04 -6.15992E+04  3.81241E+04 -4.37990E+04  5.47452E+04 -1.81285E+03  3.22748E+04  3.03332E+04
 -5.12419E+03  3.47194E+04 -2.87782E+04  1.24058E+04 -2.78761E+04 -4.96904E+03 -1.62118E+04 -1.00195E+04
 -8.32666E+03 -1.22220E+04 -1.86026E+03 -1.77111E+04  7.02235E+03 -2.24217E+04  1.66569E+04 -1.30102E+04
  1.13921E+04  4.89648E+03 -5.45093E+03  1.21745E+04 -2.02161E+04 -3.05214E+03 -7.43990E+03 -3.14494E+04
  2.06567E+04 -4.11996E+04  4.62080E+04 -1.81597E+04  4.26336E+04  1.89424E+04  1.44838E+04  4.21216E+04
 -1.54188E+04  3.16429E+04 -2.38151E+04  2.38096E+03 -9.11295E+03 -2.68970E+04  2.09047E+04 -3.20715E+04
  3.94371E+04 -7.62043E+03  3.22129E+04  2.33038E+04  1.56184E+04  4.36050E+04 -8.53490E+03  4.56703E+04
 -3.03290E+04  3.02656E+04 -3.85362E+04  8.67112E+03 -3.98327E+04 -1.52547E+04 -2.13501E+04 -3.45963E+04
  6.27803E+03 -3.41563E+04  2.91966E+04 -1.38637E+04  2.74855E+04  1.21579E+04  3.07025E+03  1.74488E+04
 -1.25517E+04  8.13538E+03 -9.52939E+03 -8.05371E+03  5.62843E+03 -9.35642E+03  1.75833E+04  5.52918E+03
  1.24254E+04  2.20288E+04 -6.69504E+03  2.37936E+04 -2.11625E+04  9.54836E+03 -2.63814E+04 -6.01959E+03
 -1.81237E+04 -1.62619E+04 -5.90855E+03 -1.62188E+04  3.68607E+03 -1.58277E+04  1.28116E+04 -1.49431E+04
  2.15170E+04 -1.22825E+04  2.89986E+04  1.51054E+03  2.20336E+04  1.64184E+04  4.63802E+03  3.36158E+04
 -1.66872E+04  2.80565E+04 -2.65400E+04  9.83114E+03 -2.07321E+04 -1.10374E+04 -4.25486E+03 -1.49526E+04
  1.46865E+03 -4.00393E+03 -2.82740E+03  5.32341E+03 -1.35316E+04  5.00049E+03 -1.32222E+04 -5.72183E+03
 -9.30814E+03 -1.62245E+04  5.15629E+03 -1.98103E+04  1.34977E+04 -1.50842E+04  1.56367E+04 -2.17103E+03
  8.45275E+03  1.14906E+04 -5.97703E+02  1.58650E+04 -1.09989E+04  8.03072E+03 -1.56670E+04 -3.26544E+03
 -1.08556E+04 -1.47703E+04 -2.05271E+03 -1.96633E+04  8.60235E+03 -1.58049E+04  1.64713E+04 -7.44634E+03
  1.41833E+04  3.22356E+02  1.04909E+04  3.98291E+03  6.75337E+03  5.97181E+02  7.84307E+03 -2.53776E+03
  1.38004E+04  2.27530E+03  1.54312E+04  1.19469E+04  8.41397E+03  2.48541E+04 -3.27560E+03  2.73975E+04
 -1.68767E+04  2.08601E+04 -2.50214E+04  9.87695E+03 -2.50845E+04 -1.79390E+03 -2.14181E+04 -1.57969E+04
 -9.43603E+03 -2.02575E+04  7.51196E+03 -1.88138E+04  1.67669E+04 -1.20693E+04  1.67534E+04  3.22485E+03
  7.00691E+03  1.08438E+04 -6.98008E+03  9.99810E+03 -1.42812E+04  2.60239E+03 -1.10392E+04 -9.26675E+03
 -5.13121E+02 -1.25381E+04  6.99932E+03 -9.59971E+03  8.07429E+03 -1.55290E+03  1.34943E+03  5.26957E+03
 -5.10838E+03  1.51736E+03 -3.57421E+03 -5.39193E+03  2.45771E+02 -1.09307E+04  8.57777E+03 -1.08179E+04
  1.34993E+04 -4.66515E+03  1.21124E+04  2.57301E+03  1.05409E+04  8.98691E+03  5.01690E+03  1.47929E+04
 -1.77458E+03  1.68865E+04 -9.08009E+03  9.81877E+03 -1.03186E+04  2.71765E+03 -9.10444E+03 -2.02932E+03
 -5.64033E+03 -3.93338E+03  4.06937E+02  4.47618E+02 -1.54950E+03  2.19061E+03 -4.26801E+03  4.91312E+03
 -7.52280E+03 -7.25582E+01 -9.04467E+03 -6.80529E+03 -3.35169E+03 -1.21705E+04  3.41515E+03 -8.13970E+03
  7.91989E+03 -3.82848E+03  5.47520E+03  2.05876E+03  9.03877E+02  4.02034E+03 -4.01923E+03  6.61287E+01
 -3.30900E+03 -5.37852E+03 -8.31913E+02 -7.77609E+03  4.55743E+03 -8.04947E+03  1.01257E+04 -4.04804E+03
  1.32622E+04  9.99139E+02  9.25081E+03  5.00525E+03  2.26291E+03  8.52925E+03 -4.84946E+03  8.21491E+03
 -6.74461E+03  3.04721E+03 -3.23146E+03 -1.26303E+03  9.43915E+02 -1.42815E+03  4.59189E+03 -2.11693E+02
  3.76158E+03  3.30414E+03  1.16581E+03  6.25456E+03 -4.75752E+03  6.80353E+03 -8.20742E+03  2.67411E+03
 -5.17491E+03 -3.03845E+03 -3.18477E+02 -7.54350E+03  3.07572E+03 -3.80103E+03  4.68452E+03  2.56449E+03
  1.89257E+02  2.61901E+03 -4.54168E+03  5.18431E+03 -4.33215E+03  3.08170E+03 -4.35363E+03 -2.98615E+02
 -3.18998E+03 -6.14882E+03  9.71199E+02 -7.43777E+03  5.28878E+03 -4.03325E+03  6.23496E+03  3.66518E+02
  5.68674E+03  5.30029E+03 -4.15770E+02  7.13926E+03 -4.82713E+03  4.94834E+03 -5.42361E+03 -1.17098E+03
 -6.15366E+03 -4.28224E+03 -2.45634E+03 -4.57090E+03  2.75027E+03 -4.52493E+03  3.63898E+03 -2.64234E+03
  2.76927E+03  5.35205E+02 -6.11867E+02 -2.40127E+02 -3.92390E+01  1.31743E+02 -5.89452E+02 -2.40815E+03
  3.06810E+03 -7.43642E+02  5.40889E+03  8.84516E+02  5.84990E+03  3.13591E+03  4.96327E+03  7.41980E+03
 -1.58977E+03  8.61034E+03 -7.99521E+03  5.80587E+03 -8.96965E+03  1.01293E+03 -7.48789E+03 -1.89987E+03
 -3.95271E+03 -5.34344E+03 -1.13493E+03 -4.40041E+03  2.24350E+03 -2.41927E+03  1.62882E+03 -2.26544E+03
  1.10169E+03 -1.88366E+03  2.69184E+03 -2.99911E+03  3.36991E+03 -1.63037E+03  3.22342E+03  2.16001E+02
  4.35177E+03  1.61982E+03  1.88179E+03  2.32596E+03 -1.59131E+03  2.40070E+03 -3.60849E+03  2.86107E+03
 -5.08808E+03 -6.59348E+02 -2.52881E+03 -3.01850E+03 -4.36118E+02 -5.00039E+03  2.42486E+03 -5.02584E+03
  5.54468E+03 -3.24797E+03  6.85766E+03  3.47207E+02  5.42083E+03  4.14975E+03  1.68267E+03  5.96539E+03
 -1.96431E+03  5.70422E+03 -2.93286E+03  2.72062E+03 -2.14046E+03 -1.57425E+03 -1.14325E+03 -3.09735E+02
 -4.09729E+02  9.80215E+02 -1.44756E+03  1.69945E+03 -1.96385E+03  1.29359E+03 -3.89695E+03 -8.29133E+02
 -1.11710E+03 -4.04534E+03  9.56340E+02 -5.24678E+03  1.98329E+03 -4.23611E+03  3.14097E+03 -1.30502E+03
  4.74745E+03  3.01764E+03  1.37810E+03  3.02955E+03 -1.25035E+02  4.14029E+03 -2.50113E+03  2.56105E+03
 -2.44714E+03  5.57455E+02 -3.59077E+03 -3.03489E+03 -4.88501E+02 -2.83582E+03  2.42689E+03 -1.88501E+03
  2.23313E+03 -1.28741E+03  6.23851E+02 -4.66261E+02  1.49116E+03  1.07396E+03  5.76731E+02  1.41826E+02
  1.83863E+03  6.33541E+02  7.14015E+02  1.07295E+03  4.55877E+02  2.25822E+03  2.38825E+03 -5.04798E+01
 -6.96700E+02  2.89417E+03 -2.78673E+03  4.39182E+03 -3.39893E+03  1.97247E+03 -3.61563E+03 -3.27925E+02
 -1.24984E+03 -2.70157E+03  1.71618E+03 -4.41338E+03  1.76593E+03 -2.73244E+03  2.94923E+03 -1.27573E+03
  2.07292E+03  2.09453E+03  3.41821E+02  2.90451E+03  1.00158E+03  1.19582E+02 -9.50427E+02  1.12582E+02
 -1.07184E+03 -6.05640E+02  1.26409E+03 -7.59516E+02  9.64204E+02 -1.34823E+02  1.51673E+03  1.96963E+02
  2.97317E+01  1.08019E+02  1.23988E+03 -7.60920E+02 -8.99692E+02  1.02087E+03  7.95989E+02  4.79456E+02
 -1.88757E+02  9.91545E+02  2.58142E+03  9.29763E+02 -1.25577E+02  2.31030E+03  4.04103E+01  1.80527E+03
 -2.62674E+03  9.24417E+02 -1.84078E+03 -2.46756E+02 -1.81880E+03  1.75628E+02  8.43825E+02 -1.16969E+03
  4.98083E+02 -9.53049E+02  9.40889E+02 -1.68564E+03  4.00618E+02  7.85729E+02 -9.15275E+02  1.66474E+03
 -8.47996E+02  2.96051E+02 -6.81136E+02 -1.55059E+03 -4.03434E+02 -1.82486E+03 -1.75000E+02 -1.16859E+03
  4.05678E+02 -1.69874E+02 -3.89021E+02  2.33740E+02  5.99111E+02  1.08227E+00  3.56398E+02  1.62103E+03
 -6.63139E+02  4.51369E+02 -1.13731E+03  5.81300E+01  1.35938E+03 -9.14397E+02  1.09342E+03 -1.36918E+03
  9.51938E+02  2.02006E+01  2.28180E+03 -1.46072E+02  1.69974E+02  9.84183E+02  3.43905E+02  1.37833E+03
 -2.55783E+03  4.84815E+01 -1.15657E+03  1.29414E+03 -9.02867E+02 -1.90225E+03 -8.08386E+02 -4.25181E+02
  1.40653E+03 -1.37665E+03  8.62050E+02  3.20400E+02  8.64691E+02  1.87183E+03 -2.00569E+02  1.96074E+03
 -9.62935E+02  4.23774E+02 -1.12124E+03  7.08025E+02  8.15291E+02  2.30500E+02 -1.28894E+03  2.00812E+02
 -9.08423E+02  1.02147E+03 -1.76340E+03  9.30683E+02 -9.88007E+02 -3.26521E+02 -3.42869E+03 -1.66976E+03
 -1.17658E+03 -1.31868E+03 -4.56074E+02 -3.01222E+03  1.10006E+03 -1.74987E+03  2.33232E+03 -9.11518E+02
  1.48302E+03  4.96187E+02  7.54374E+02  2.27098E+02 -1.03153E+03  8.94125E+02  7.91925E+02  1.20450E+03
 -7.69984E+02  5.34512E+02 -9.91187E+02  2.52462E+01 -6.11127E+01  2.86398E+02 -1.38269E+03 -5.85307E+02
 -1.68192E+03  2.78270E+02 -4.99757E+02 -2.41925E+02  2.93691E+02 -1.23215E+03 -9.09892E+02 -4.75196E+02
  1.01052E+03 -5.88436E+02  3.10079E+02  7.31485E+02  4.91961E+02 -3.53658E+02 -3.94868E+02  1.42174E+03
 -9.86812E+02  2.59478E+03 -1.82725E+03  1.05073E+03 -1.52806E+03 -8.62856E+02 -1.55536E+03 -7.29965E+02
 -9.86245E+02 -7.70305E+02 -1.68176E+02 -7.75123E+02  1.13511E+03  4.41245E+01  1.03724E+03  1.08072E+03
  8.67819E+02 -1.88280E+02  1.15013E+03  3.20037E+02 -1.75026E+02  1.38287E+03  1.03406E+03 -5.44783E+01
 -2.38540E+02  6.48552E+02  9.80877E+02  9.98467E+02  1.61424E+02  6.59478E+02  7.43503E+02  3.71844E+02
  2.65165E+02  2.77009E+02 -5.41649E+02 -2.23767E+02  3.64302E+01 -2.95412E+02  1.05137E+03 -1.68045E+03
  7.39508E+02  1.42786E+02  3.82854E+02  8.96147E+02  3.59647E+02 -1.46911E+03  3.06377E+02  2.57611E+02
 -3.77323E+02  5.59024E+02  4.88841E+02  2.93545E+02 -1.59135E+03 -1.57161E+02 -4.79198E+02 -5.44900E+02
  2.50455E+02 -1.29332E+03 -8.02238E+02 -6.28224E+02 -1.26065E+03  6.49592E+02 -7.36177E+02 -5.69202E+02
 -1.78146E+03  6.56324E+02 -4.65024E+02 -1.22390E+03  1.81272E+02 -7.43550E+02  9.37264E+02 -7.25756E+02
  6.64496E+02 -5.70623E+02  2.78195E+02 -2.30585E+02 -1.05256E+03  1.06641E+03  7.81629E+02  1.08409E+03
