 $NMID ID='MM_0lb_SNR200_10hz_g60_92.RAW', FMTDAT='(8E13.5)'
 TRAMP=1., VOLUME=1. $END
  3.09446E+05  1.09680E+03  3.37914E+05  2.49431E+05  8.54672E+04  3.37675E+05 -1.32292E+05  2.53280E+05
 -1.90758E+05  8.52339E+04 -1.12133E+05 -3.23016E+04 -1.08066E+03 -5.03365E+04  5.32390E+04 -7.18957E+02
  3.50824E+04  5.19658E+04 -1.69044E+04  7.55940E+04 -6.20533E+04  6.38980E+04 -8.62924E+04  3.32672E+04
 -8.29174E+04 -1.08273E+04 -5.83454E+04 -5.22831E+04 -1.45119E+04 -7.02312E+04  2.84150E+04 -4.73830E+04
  4.09291E+04  3.51726E+03  1.75054E+04  4.86024E+04 -3.47926E+04  4.82413E+04 -6.90239E+04  6.04178E+02
 -5.51452E+04 -5.54075E+04 -6.74642E+03 -7.97741E+04  3.53836E+04 -5.78840E+04  5.02058E+04 -1.70373E+04
  4.52331E+04  1.21120E+04  3.40741E+04  2.61836E+04  1.65348E+04  3.06959E+04 -6.54061E+03  2.82432E+04
 -2.22746E+04  1.19755E+04 -1.79947E+04 -7.06667E+03  6.89675E+03 -7.53030E+03  2.55681E+04  1.19651E+04
  8.48981E+03  3.70215E+04 -3.32219E+04  3.81117E+04 -6.50260E+04  3.78423E+03 -5.97946E+04 -4.46447E+04
 -1.22582E+04 -6.57658E+04  4.02083E+04 -4.69152E+04  6.07590E+04 -2.12507E+03  3.57175E+04  3.46857E+04
 -5.48527E+03  3.97111E+04 -3.19630E+04  1.85240E+04 -3.27261E+04 -2.72580E+03 -1.88795E+04 -1.27661E+04
 -1.04457E+04 -1.52333E+04 -1.19265E+03 -1.97810E+04  8.40875E+03 -2.34576E+04  1.57976E+04 -1.11909E+04
  1.20764E+04  5.83572E+03 -1.18893E+04  1.23296E+04 -2.41692E+04 -6.23942E+03 -7.50313E+03 -3.91949E+04
  2.56664E+04 -4.53016E+04  5.13461E+04 -2.16064E+04  4.88444E+04  2.05418E+04  1.75968E+04  4.71715E+04
 -1.61302E+04  3.65894E+04 -2.65445E+04  4.09715E+03 -1.28627E+04 -3.04848E+04  2.08475E+04 -3.63798E+04
  4.48276E+04 -1.02063E+04  4.13888E+04  2.60589E+04  2.23758E+04  4.98147E+04 -8.92770E+03  5.45822E+04
 -3.55613E+04  3.77837E+04 -4.86315E+04  1.16370E+04 -4.62840E+04 -1.78728E+04 -2.52678E+04 -4.24960E+04
  7.28348E+03 -4.05058E+04  3.48389E+04 -1.68635E+04  3.20163E+04  1.14216E+04  6.73464E+03  2.01543E+04
 -1.44196E+04  1.01474E+04 -1.18657E+04 -8.63436E+03  4.86775E+03 -1.19012E+04  1.90399E+04  5.95431E+03
  1.49769E+04  2.24312E+04 -6.34757E+03  2.76349E+04 -2.40084E+04  1.41919E+04 -3.07042E+04 -2.94352E+03
 -2.57065E+04 -1.93786E+04 -1.24459E+04 -2.47020E+04  4.54426E+03 -2.62585E+04  1.95584E+04 -2.41394E+04
  3.26226E+04 -1.47574E+04  3.74535E+04  5.47338E+03  2.64883E+04  2.38934E+04  4.97324E+03  4.24670E+04
 -1.92859E+04  3.41850E+04 -2.99175E+04  1.29437E+04 -2.28010E+04 -9.00349E+03 -3.64818E+03 -1.45026E+04
  3.24661E+02 -1.63071E+03 -7.03619E+03  7.90935E+03 -2.04571E+04  4.58560E+03 -1.96700E+04 -8.13832E+03
 -1.11161E+04 -2.33390E+04  5.42773E+03 -2.75777E+04  1.83462E+04 -2.02378E+04  2.22500E+04 -8.55909E+02
  1.39424E+04  1.49638E+04 -1.90264E+03  2.29492E+04 -1.59526E+04  1.46488E+04 -2.27590E+04 -5.20676E+03
 -1.53155E+04 -2.07940E+04 -3.77991E+03 -2.89845E+04  1.23709E+04 -2.34255E+04  2.29804E+04 -1.20095E+04
  2.20694E+04  9.23630E+01  1.67465E+04  5.51175E+03  7.17778E+03  1.60070E+03  1.10581E+04 -1.35826E+03
  2.30756E+04  3.02959E+03  2.63223E+04  1.76414E+04  1.79846E+04  3.69530E+04 -2.21489E+03  4.48463E+04
 -2.44706E+04  3.64012E+04 -4.27207E+04  1.82145E+04 -4.40405E+04 -2.20579E+03 -3.70978E+04 -2.67300E+04
 -1.36198E+04 -3.78568E+04  1.22709E+04 -3.21723E+04  2.86533E+04 -1.63290E+04  2.48972E+04  5.73256E+03
  8.71464E+03  1.84126E+04 -1.26708E+04  1.58007E+04 -2.07958E+04  2.74398E+03 -1.41782E+04 -1.33107E+04
 -2.39427E+03 -1.91491E+04  7.97992E+03 -1.41614E+04  1.49321E+04 -2.97356E+03  2.83276E+03  9.73001E+03
 -8.49398E+03  3.67309E+03 -9.74008E+03 -7.59448E+03 -1.97111E+03 -1.79907E+04  1.16018E+04 -2.01941E+04
  2.28898E+04 -1.05778E+04  2.59906E+04  3.38556E+03  2.35126E+04  1.78569E+04  9.44191E+03  2.87529E+04
 -4.88995E+03  3.10095E+04 -1.94567E+04  1.90182E+04 -2.12068E+04  3.06760E+03 -1.50289E+04 -5.91831E+03
 -6.01757E+03 -7.62980E+03  8.91572E+01  1.19711E+03 -4.45225E+03  3.95809E+03 -8.10797E+03  5.17727E+03
 -1.35439E+04 -7.93135E+02 -1.53094E+04 -1.11654E+04 -6.00496E+03 -1.91357E+04  6.81759E+03 -1.48521E+04
  1.30430E+04 -4.24404E+03  8.76659E+03  4.18877E+03 -1.82546E+01  6.20954E+03 -7.25355E+03 -5.22646E+02
 -6.61915E+03 -8.32825E+03 -1.36133E+03 -1.57762E+04  8.90348E+03 -1.50150E+04  1.83152E+04 -8.77281E+03
  2.42343E+04  2.19385E+03  1.72990E+04  1.37227E+04  1.85134E+03  1.85321E+04 -9.04902E+03  1.45372E+04
 -1.31852E+04  5.24915E+03 -4.79949E+03 -4.73250E+03  2.75928E+03 -3.08640E+03  8.75224E+03 -5.42087E+02
  6.34053E+03  6.85869E+03  1.37978E+03  1.27408E+04 -1.05239E+04  1.19787E+04 -1.62911E+04  4.19968E+03
 -9.74753E+03 -8.13599E+03  1.39887E+03 -1.28044E+04  8.93725E+03 -6.82971E+03  8.60443E+03  3.88316E+03
  2.34695E+03  8.83176E+03 -7.63795E+03  1.10931E+04 -1.31756E+04  6.04947E+03 -1.27056E+04 -6.03443E+03
 -7.98209E+03 -1.62413E+04  3.37906E+03 -1.57458E+04  1.54403E+04 -1.15593E+04  1.47799E+04  3.57855E+03
  7.81662E+03  1.20042E+04 -1.08285E+03  1.49526E+04 -1.19450E+04  7.84827E+03 -1.18885E+04 -1.62085E+03
 -1.08133E+04 -1.06100E+04 -3.42035E+03 -1.08149E+04  6.45304E+03 -1.02225E+04  8.37968E+03 -2.70101E+03
  3.35157E+03  2.09769E+03 -2.03911E+03  3.50557E+03 -3.06712E+02 -4.12212E+03  2.28313E+03 -6.13445E+03
  1.00514E+04 -5.01545E+03  1.42243E+04  1.87115E+03  1.44508E+04  1.09915E+04  9.43556E+03  2.08489E+04
 -4.06256E+03  2.35885E+04 -1.91727E+04  1.69101E+04 -2.60446E+04  3.80206E+03 -2.12750E+04 -8.07828E+03
 -1.17386E+04 -1.63923E+04 -1.85349E+03 -1.44123E+04  4.90041E+03 -8.83002E+03  4.76677E+03 -5.34043E+03
  3.26704E+03 -2.93797E+03  3.60932E+03 -2.73383E+03  5.46952E+03 -3.65923E+03  9.12781E+03 -2.57585E+03
  1.22954E+04  2.38752E+03  4.19538E+03  9.05235E+03 -2.99372E+03  9.88429E+03 -1.04355E+04  7.98834E+03
 -1.42767E+04 -1.68198E+03 -9.80745E+03 -1.03952E+04 -7.31430E+02 -1.61661E+04  9.28823E+03 -1.47031E+04
  1.67923E+04 -8.86851E+03  1.87309E+04  3.59298E+03  1.55517E+04  1.29612E+04  3.10227E+03  1.84646E+04
 -7.80487E+03  1.31099E+04 -8.72549E+03  6.42002E+03 -5.90269E+03 -1.38276E+03 -3.06954E+03 -1.25541E+03
 -1.90408E+03 -1.87995E+02 -2.38184E+03  3.85990E+03 -6.47283E+03  2.27905E+03 -1.03736E+04 -1.90879E+03
 -8.12381E+03 -9.35423E+03 -3.98910E+02 -1.43016E+04  9.49671E+03 -1.13698E+04  1.42388E+04 -3.85344E+03
  1.33976E+04  4.63605E+03  5.52998E+03  1.40878E+04 -1.99865E+03  1.48859E+04 -9.26764E+03  9.45702E+03
 -1.39179E+04 -7.12191E+02 -9.11145E+03 -8.35557E+03 -1.51163E+03 -1.07656E+04  4.75405E+03 -8.42726E+03
  7.83382E+03 -3.69302E+03  6.36365E+03  1.69807E+03  2.49823E+03  4.15071E+03  3.16165E+03  6.24501E+02
  4.28206E+03  6.30044E+02  2.90115E+03  7.57164E+02  2.81462E+03  4.70741E+03  3.52814E+03  7.70079E+03
 -2.53920E+03  1.06231E+04 -1.09894E+04  1.27475E+04 -1.51683E+04  3.31200E+03 -1.54794E+04 -5.83926E+03
 -9.14400E+03 -1.39796E+04  1.23344E+03 -1.56836E+04  9.43688E+03 -1.08263E+04  1.11230E+04 -2.63223E+03
  8.98379E+03  5.48262E+03  2.05517E+03  7.15837E+03 -4.10532E+03  4.57605E+03 -6.48281E+03  6.48521E+02
 -2.73987E+03 -6.18065E+03  3.08711E+03 -6.86327E+03  4.47965E+03 -3.89639E+03  5.34079E+03  9.24506E+02
  3.06998E+03  2.97019E+03  6.88822E+02  3.70585E+03 -2.65583E+02  7.62292E+02  3.59848E+03 -4.37837E+02
  2.75240E+03 -1.09160E+03  5.75084E+03  2.30683E+03  3.43433E+03  9.07048E+03 -1.07954E+03  9.46087E+03
 -7.55170E+03  7.03350E+03 -9.38276E+03  2.53749E+03 -8.19797E+03 -3.53859E+03 -1.80814E+03 -5.57695E+03
  1.46987E+03 -6.08978E+03  4.44261E+03 -2.82381E+03  2.42279E+03  2.18152E+03  5.08138E+02  5.16882E+03
 -5.30572E+03  3.64420E+03 -6.41730E+03 -4.79274E+03 -3.77804E+03 -7.08046E+03  6.52663E+02 -8.41796E+03
  3.86234E+03 -4.39036E+03  5.98994E+03 -5.62092E+02  5.24278E+03  5.48897E+02 -2.40904E+02  3.05968E+03
 -4.05292E+03  3.00115E+03 -3.65606E+03 -2.57612E+03 -6.99178E+02 -6.01790E+03  6.90527E+03 -4.29963E+03
  9.75651E+03 -5.83878E+02  1.01072E+04  6.44518E+03  1.31027E+03  1.06212E+04 -2.79552E+03  8.00465E+03
 -5.67646E+03  2.31401E+03 -8.40993E+03 -1.23571E+03 -5.03567E+03 -6.68182E+03  1.01787E+03 -6.31711E+03
  5.45860E+03 -1.95912E+03  4.89313E+03  1.41642E+03  1.63863E+03  4.99008E+03  3.79447E+02  4.03984E+03
 -3.02107E+03  4.40305E+03 -1.93211E+03  2.86793E+02 -2.49720E+03  1.34249E+03 -2.54882E+03  2.51458E+03
 -3.81240E+03  3.33947E+03 -5.36704E+03  4.75758E+03 -8.99706E+03 -1.10586E+03 -1.06875E+04 -6.47683E+03
 -5.56729E+03 -1.24848E+04  2.35856E+03 -1.32790E+04  9.64560E+03 -1.19358E+04  1.49376E+04 -4.96867E+03
  1.30877E+04  3.37694E+03  7.96055E+03  8.11339E+03 -4.02187E+02  9.42191E+03 -4.39689E+03  7.96400E+03
 -5.19557E+03  2.77373E+03 -1.96364E+03 -1.54908E+03 -2.01518E+03 -1.00564E+03 -1.33676E+03  2.17914E+01
 -1.25703E+03  6.35977E+02 -2.23616E+03 -9.31297E+02  4.10522E+02 -2.32647E+03  3.78269E+02 -3.18212E+03
  4.51331E+03 -2.36327E+03  4.80977E+03  2.86050E+02  6.04634E+03  5.07236E+03  3.03017E+03  9.95718E+03
 -4.12011E+03  1.10603E+04 -1.03237E+04  6.18055E+03 -1.19502E+04  9.86020E+02 -7.19373E+03 -5.27449E+03
 -4.01116E+03 -9.68301E+03  2.86574E+03 -8.52368E+03  6.22094E+03 -5.84572E+03  5.38240E+03  8.56058E+02
  2.05092E+03  1.81015E+03 -1.06805E+03  3.21816E+03 -2.01779E+03  7.98924E+01 -2.48438E+02 -1.60032E+03
  2.48060E+03 -2.04000E+03  4.67944E+03  6.93049E+02  1.12991E+03  5.06207E+03  2.12906E+02  6.49832E+03
 -4.43505E+03  4.28836E+03 -5.83275E+03  1.43910E+03 -5.90020E+03 -3.42413E+03 -2.77863E+02 -7.06277E+03
  3.77494E+03 -5.79018E+03  6.70355E+03 -2.47412E+03  6.48444E+03  4.23794E+02  3.65929E+03  6.04163E+03
  2.44806E+03  5.03458E+03 -2.63406E+03  4.68438E+03 -3.41945E+03  3.90158E+03 -2.94663E+03  3.21958E+02
 -1.49779E+03 -6.62518E+02 -3.02539E+03 -4.69710E+02 -2.76561E+03  1.44039E+03 -5.86831E+03  2.69790E+01
 -4.42748E+03 -2.36459E+03 -9.17840E+02 -6.24066E+03  2.85025E+03 -5.98104E+03  6.67236E+03 -3.40686E+03
  6.89976E+03 -8.01319E+02  2.98954E+03  4.38715E+03 -2.08293E+03  5.09574E+03 -2.66288E+03  3.85296E+03
