 $NMID ID='MM_0lb_SNR200_7hz_g55_97.RAW', FMTDAT='(8E13.5)'
 TRAMP=1., VOLUME=1. $END
  3.09755E+05  4.55267E+02  3.37829E+05  2.50282E+05  8.77165E+04  3.41271E+05 -1.33736E+05  2.53010E+05
 -1.91324E+05  8.38371E+04 -1.11384E+05 -3.25944E+04 -7.50309E+02 -4.89796E+04  5.47105E+04 -1.66401E+01
  3.47319E+04  5.43026E+04 -1.98482E+04  7.63425E+04 -6.09525E+04  6.42156E+04 -8.52721E+04  3.22445E+04
 -8.34480E+04 -1.22366E+04 -5.84869E+04 -5.43548E+04 -1.59713E+04 -7.09791E+04  2.98091E+04 -4.57775E+04
  4.10300E+04  4.82263E+03  1.79127E+04  4.94854E+04 -3.54015E+04  4.94110E+04 -6.97647E+04  6.18731E+02
 -5.23705E+04 -6.03581E+04 -4.86321E+03 -8.12865E+04  3.60303E+04 -5.67252E+04  5.09909E+04 -2.03661E+04
  4.69523E+04  1.19809E+04  3.35510E+04  2.74684E+04  1.54349E+04  3.28934E+04 -7.28937E+03  2.96307E+04
 -2.35712E+04  1.15659E+04 -1.61958E+04 -6.34981E+03  7.20547E+03 -7.60259E+03  2.58769E+04  1.52144E+04
  7.03089E+03  3.91799E+04 -3.50717E+04  3.90836E+04 -6.82453E+04  5.33824E+02 -6.07267E+04 -4.45499E+04
 -1.20661E+04 -6.52156E+04  4.08028E+04 -4.86303E+04  6.42995E+04 -3.61093E+03  3.72468E+04  3.69043E+04
 -5.64690E+03  4.04261E+04 -3.30625E+04  1.96567E+04 -3.47022E+04 -2.52383E+03 -1.98364E+04 -1.30674E+04
 -9.71514E+03 -1.62243E+04 -8.72528E+02 -2.07971E+04  8.99735E+03 -2.48414E+04  1.64656E+04 -1.34146E+04
  9.29419E+03  8.05163E+03 -1.18482E+04  1.30526E+04 -2.46699E+04 -6.33448E+03 -5.92353E+03 -4.00291E+04
  2.77717E+04 -4.75611E+04  5.31228E+04 -2.15652E+04  5.13640E+04  2.13667E+04  1.78053E+04  5.07610E+04
 -1.87071E+04  3.59118E+04 -2.87895E+04  3.07957E+03 -1.40037E+04 -3.04013E+04  2.21572E+04 -3.73854E+04
  4.78546E+04 -1.24662E+04  4.11397E+04  2.53292E+04  2.38320E+04  5.33337E+04 -1.01085E+04  5.75514E+04
 -3.89961E+04  4.03696E+04 -5.10697E+04  1.32388E+04 -5.07452E+04 -2.00998E+04 -2.50207E+04 -4.35931E+04
  9.45924E+03 -4.55258E+04  3.40911E+04 -1.66866E+04  3.39794E+04  1.23207E+04  5.88578E+03  2.13528E+04
 -1.47791E+04  1.04351E+04 -1.19832E+04 -8.57679E+03  3.27672E+03 -1.15326E+04  1.88020E+04  6.30119E+03
  1.62825E+04  2.18827E+04 -5.29801E+03  2.87736E+04 -2.49979E+04  1.58451E+04 -3.38180E+04 -2.43956E+03
 -2.62853E+04 -1.96923E+04 -1.31047E+04 -2.78067E+04  6.07397E+03 -2.74302E+04  2.42300E+04 -2.54602E+04
  3.54010E+04 -1.50305E+04  4.13176E+04  6.80518E+03  2.75316E+04  2.69702E+04  5.21201E+03  4.32588E+04
 -2.16850E+04  3.78585E+04 -3.06200E+04  1.29927E+04 -2.27429E+04 -8.60436E+03 -3.78411E+03 -1.31270E+04
  9.71820E+02 -4.77227E+02 -9.60922E+03  8.83699E+03 -2.17001E+04  3.28783E+03 -2.09022E+04 -8.80607E+03
 -1.50638E+04 -2.60892E+04  6.04541E+03 -2.87022E+04  2.26096E+04 -2.11782E+04  2.49569E+04 -1.26788E+03
  1.73377E+04  1.60842E+04 -2.70550E+03  2.52930E+04 -1.81883E+04  1.53287E+04 -2.61759E+04 -6.49466E+03
 -2.04926E+04 -2.26387E+04 -3.33979E+03 -3.14544E+04  1.49420E+04 -2.61053E+04  2.70691E+04 -1.42807E+04
  2.50454E+04 -5.02153E+02  1.78400E+04  6.00776E+03  1.10934E+04  3.32625E+03  1.39983E+04 -1.13947E+03
  2.47770E+04  3.29290E+03  2.91978E+04  2.04573E+04  1.92872E+04  4.14189E+04 -2.28742E+03  4.92324E+04
 -2.58074E+04  4.31344E+04 -4.69946E+04  2.14285E+04 -5.08590E+04 -3.72366E+03 -4.18148E+04 -2.96299E+04
 -1.52175E+04 -4.19764E+04  1.59731E+04 -3.66691E+04  3.44524E+04 -1.72952E+04  2.79542E+04  1.02250E+04
  9.11465E+03  2.17361E+04 -1.35746E+04  1.71814E+04 -2.25306E+04  2.12196E+03 -1.78009E+04 -1.48497E+04
 -1.81136E+03 -2.09681E+04  1.17256E+04 -1.45897E+04  1.63166E+04 -1.64186E+03  6.02309E+03  9.82291E+03
 -1.04838E+04  5.60719E+03 -1.10350E+04 -8.56634E+03 -2.71530E+03 -2.07919E+04  1.38714E+04 -2.29731E+04
  2.67734E+04 -1.35209E+04  3.17095E+04  5.94282E+03  2.67860E+04  2.15615E+04  1.37812E+04  3.36798E+04
 -8.13149E+03  3.60740E+04 -2.31908E+04  2.05145E+04 -2.91915E+04  4.76136E+03 -1.85261E+04 -5.89673E+03
 -6.17836E+03 -6.78248E+03 -1.91662E+03 -1.43165E+03 -2.44693E+03  2.64930E+03 -6.87208E+03  4.56935E+03
 -1.67118E+04 -2.32803E+03 -1.66085E+04 -1.44481E+04 -6.11314E+03 -2.16084E+04  8.88554E+03 -1.84251E+04
  1.40308E+04 -6.31324E+03  1.12499E+04  4.22964E+03 -8.42684E+02  6.56688E+03 -8.37943E+03  4.45929E+02
 -8.16190E+03 -1.22622E+04 -1.67915E+03 -1.88893E+04  1.10060E+04 -1.72171E+04  2.55210E+04 -9.97453E+03
  2.72307E+04  2.11077E+03  1.95748E+04  1.74502E+04  3.66624E+03  2.33586E+04 -1.12630E+04  1.64608E+04
 -1.68307E+04  6.29025E+03 -8.78134E+03 -4.31854E+03  3.35822E+03 -4.63011E+03  8.49607E+03 -1.54354E+03
  9.62813E+03  9.12223E+03  2.44014E+03  1.58212E+04 -1.13890E+04  1.49041E+04 -1.93818E+04  4.10821E+03
 -1.28559E+04 -9.20143E+03  2.19824E+02 -1.65618E+04  1.02538E+04 -7.26672E+03  1.19743E+04  3.63998E+03
  4.75706E+03  1.35472E+04 -1.01447E+04  1.47030E+04 -1.70081E+04  5.79833E+03 -1.69703E+04 -5.35053E+03
 -9.64144E+03 -2.04453E+04  4.42506E+03 -2.36662E+04  1.97203E+04 -1.28567E+04  1.92173E+04  2.45174E+03
  1.26701E+04  1.60692E+04 -1.88939E+03  1.94696E+04 -1.36049E+04  9.85145E+03 -1.64783E+04 -1.34660E+03
 -1.19097E+04 -1.15056E+04 -2.56045E+03 -1.40136E+04  7.84442E+03 -1.01139E+04  9.30508E+03 -3.32223E+03
  4.64258E+03  1.83213E+03 -7.04671E+02  2.82416E+03 -2.88058E+03 -5.32074E+03  3.55176E+03 -7.40330E+03
  1.55099E+04 -7.61866E+03  2.15193E+04  1.65890E+03  1.98469E+04  1.34654E+04  1.20773E+04  2.74961E+04
 -5.31931E+03  2.96543E+04 -2.44721E+04  2.29869E+04 -3.15960E+04  3.88605E+03 -2.66676E+04 -1.24679E+04
 -1.43474E+04 -2.12510E+04 -1.46146E+03 -1.77481E+04  8.01352E+03 -1.28232E+04  8.12161E+03 -4.69854E+03
  6.27122E+03 -4.15840E+03  2.96814E+03 -5.18322E+03  7.02819E+03 -5.53295E+03  9.79676E+03 -2.09079E+03
  1.37079E+04  3.45170E+03  6.38345E+03  1.37322E+04 -2.37481E+03  1.27190E+04 -1.28257E+04  1.32873E+04
 -1.76560E+04 -1.44239E+02 -1.19519E+04 -1.32719E+04 -1.59365E+03 -1.93450E+04  1.24036E+04 -2.11416E+04
  2.13011E+04 -1.15434E+04  2.36357E+04  4.54829E+03  1.55712E+04  1.86179E+04  1.69982E+03  2.10827E+04
 -8.65136E+03  1.77922E+04 -1.27223E+04  6.00280E+03 -8.74707E+03 -2.70322E+03 -2.91594E+03 -2.51738E+03
 -1.09291E+03  1.72045E+02 -3.04003E+03  1.12758E+03 -8.09624E+03  1.67971E+03 -1.27811E+04 -3.08147E+03
 -7.38124E+03 -1.23769E+04 -4.68106E+02 -1.94419E+04  1.13590E+04 -1.72787E+04  2.02875E+04 -5.55037E+03
  2.10102E+04  7.93250E+03  9.32494E+03  1.71939E+04 -3.87542E+03  1.80319E+04 -1.48425E+04  1.17682E+04
 -1.91741E+04 -7.40733E+02 -1.46813E+04 -1.22238E+04 -2.20395E+02 -1.60399E+04  7.51957E+03 -1.19274E+04
  1.00134E+04 -6.82499E+03  8.80496E+03  2.04628E+03  3.98364E+03  5.19870E+03  1.12751E+03  2.29315E+03
  4.85853E+03  3.69705E+02  3.55872E+03  1.94233E+03  5.72541E+03  5.44488E+03  4.87889E+03  1.25992E+04
 -3.08732E+03  1.45007E+04 -1.41401E+04  1.51426E+04 -1.95989E+04  4.33322E+03 -2.31359E+04 -1.00979E+04
 -1.18042E+04 -2.03654E+04  4.04306E+03 -2.25964E+04  1.19866E+04 -1.35408E+04  1.65574E+04 -3.21572E+03
  1.20951E+04  5.58083E+03  2.58581E+03  1.15234E+04 -5.90504E+03  6.65855E+03 -1.00940E+04 -2.25981E+03
 -6.23618E+03 -9.49453E+03  4.44004E+03 -1.07470E+04  8.48193E+03 -4.54472E+03  9.10809E+03  1.77936E+03
  4.38983E+03  3.86303E+03  1.99637E+03  4.57443E+03 -1.71756E+03  2.24170E+03  1.96109E+03 -2.48961E+03
  4.45272E+03 -8.12955E+02  9.27186E+03  3.74247E+03  3.61561E+03  1.02173E+04 -1.58093E+03  1.37032E+04
 -8.67270E+03  9.86193E+03 -1.37474E+04  1.92400E+03 -1.11321E+04 -3.05724E+03 -6.19457E+03 -8.70866E+03
  2.63388E+03 -7.43453E+03  7.20523E+03 -3.88358E+03  4.98145E+03  4.76238E+03 -2.75864E+03  7.11151E+03
 -7.96913E+03  3.16683E+03 -1.18217E+04 -3.02000E+03 -7.60423E+03 -1.23179E+04  1.85996E+03 -1.23657E+04
  4.83688E+03 -5.38873E+03  1.09974E+04 -1.38257E+03  7.82839E+03  4.24598E+03  1.68670E+03  6.87489E+03
 -5.29801E+03  1.12407E+03 -4.49626E+03 -6.11077E+03  1.06497E+03 -8.80133E+03  1.07284E+04 -6.65242E+03
  1.42371E+04  1.43446E+03  1.39139E+04  1.04651E+04  4.59128E+03  1.76657E+04 -3.50237E+03  1.33757E+04
 -1.13793E+04  6.84244E+03 -1.31342E+04 -1.76217E+03 -6.98821E+03 -8.67498E+03  1.49041E+03 -8.12616E+03
  8.71707E+03 -3.09405E+03  8.36857E+03  5.43293E+03  2.97827E+03  7.19144E+03 -6.32527E+02  8.27510E+03
 -3.10913E+03  4.06710E+03 -2.11741E+03 -4.21198E+02 -2.08348E+03  2.17238E+03 -1.56008E+03  3.55145E+03
 -4.33867E+03  6.98059E+03 -8.99206E+03  5.68884E+03 -1.20601E+04 -2.17305E+02 -1.61592E+04 -1.04088E+04
 -1.08271E+04 -1.85222E+04  4.71515E+03 -2.36354E+04  1.45537E+04 -1.69054E+04  2.21402E+04 -6.82950E+03
  1.83180E+04  4.91468E+03  1.27075E+04  1.47039E+04  3.53157E+03  1.43990E+04 -5.98799E+03  1.19958E+04
 -9.42671E+03  4.08681E+03 -5.93076E+03 -1.89277E+03 -2.34738E+03 -1.50112E+03  2.90936E+01  1.13774E+03
 -2.63194E+03  8.86562E+02 -3.77255E+03 -3.01932E+03 -2.26713E+03 -2.76552E+03 -6.07003E+02 -4.72380E+03
  6.62733E+03 -4.83214E+03  8.89822E+03 -3.57052E+01  9.43009E+03  6.94966E+03  4.64232E+03  1.56365E+04
 -6.25414E+03  1.62352E+04 -1.66347E+04  9.66184E+03 -1.74192E+04 -1.32378E+03 -1.47394E+04 -1.14409E+04
 -5.04642E+03 -1.46272E+04  4.89027E+03 -1.46544E+04  1.11162E+04 -6.20406E+03  1.31406E+04 -1.13142E+03
  5.03068E+03  5.99229E+03 -1.27521E+02  3.18063E+03 -4.57093E+03  2.66192E+02 -1.11710E+03 -4.26540E+03
  4.27523E+03 -1.94440E+03  7.12507E+03  1.05032E+03  5.37003E+03  5.78957E+03 -8.60717E+02  8.43061E+03
 -5.22679E+03  8.29568E+03 -1.15600E+04  1.02198E+03 -9.11943E+03 -9.16836E+03 -1.15710E+03 -1.42787E+04
  8.32884E+03 -1.27425E+04  1.22648E+04 -3.90075E+03  1.13327E+04  3.05374E+03  7.37605E+03  1.09115E+04
 -8.15784E+01  1.07428E+04 -5.40640E+03  7.93527E+03 -7.32943E+03  5.02549E+03 -6.04160E+03  1.42718E+03
 -2.69601E+03  1.41130E+03 -2.70530E+03  2.79522E+03 -3.14038E+03  2.96067E+03 -7.24087E+03 -6.45605E+02
 -7.08401E+03 -7.54344E+03 -2.54876E+03 -8.64841E+03  4.64574E+03 -1.10832E+04  1.02032E+04 -5.18276E+03
  9.82106E+03  1.24999E+03  5.87793E+03  6.60424E+03 -1.55824E+03  1.04975E+04 -9.20265E+03  6.56056E+03
