 $NMID ID='MM_0lb_SNR200_12hz_g55_21.RAW', FMTDAT='(8E13.5)'
 TRAMP=1., VOLUME=1. $END
  3.09861E+05  3.52105E+02  3.37201E+05  2.50820E+05  8.38549E+04  3.38465E+05 -1.32783E+05  2.51906E+05
 -1.89755E+05  8.36074E+04 -1.13801E+05 -3.22064E+04 -5.84837E+02 -5.06061E+04  5.46919E+04 -4.88823E+02
  3.56960E+04  5.26033E+04 -1.77855E+04  7.59474E+04 -6.17497E+04  6.42806E+04 -8.49444E+04  3.36746E+04
 -8.22549E+04 -1.13312E+04 -5.63906E+04 -5.25416E+04 -1.46289E+04 -7.09450E+04  2.66088E+04 -4.71877E+04
  4.08944E+04  2.72427E+03  1.69295E+04  4.84915E+04 -3.40031E+04  4.84585E+04 -6.65760E+04  2.03168E+01
 -5.33024E+04 -5.67471E+04 -6.51817E+03 -7.76699E+04  3.30658E+04 -5.61599E+04  4.76608E+04 -1.67962E+04
  4.57836E+04  1.12231E+04  3.16889E+04  2.63769E+04  1.47157E+04  3.09425E+04 -5.48611E+03  2.78097E+04
 -2.11878E+04  1.22857E+04 -1.74259E+04 -5.05941E+03  6.25974E+03 -8.01292E+03  2.26099E+04  1.14001E+04
  5.62564E+03  3.78090E+04 -3.34004E+04  3.67431E+04 -6.58377E+04  1.59050E+03 -5.80295E+04 -4.41103E+04
 -1.23406E+04 -6.56279E+04  4.12927E+04 -4.67189E+04  6.00604E+04 -2.07143E+03  3.58820E+04  3.41511E+04
 -6.52491E+03  3.69075E+04 -3.18090E+04  1.70293E+04 -3.23517E+04 -4.14484E+03 -1.85990E+04 -1.13119E+04
 -9.16661E+03 -1.35074E+04  4.84291E+02 -1.72314E+04  7.22421E+03 -2.29487E+04  1.70710E+04 -1.41494E+04
  1.10142E+04  6.22396E+03 -9.68976E+03  1.26845E+04 -2.32658E+04 -5.36079E+03 -8.96257E+03 -3.52430E+04
  2.28582E+04 -4.49884E+04  5.20127E+04 -1.98659E+04  4.68241E+04  1.89931E+04  1.64175E+04  4.54316E+04
 -1.66180E+04  3.53728E+04 -2.56697E+04  2.84432E+03 -1.13436E+04 -2.88981E+04  2.22166E+04 -3.46365E+04
  4.36365E+04 -1.04826E+04  3.84465E+04  2.45655E+04  2.01094E+04  4.83468E+04 -8.93798E+03  5.26154E+04
 -3.26402E+04  3.63079E+04 -4.30596E+04  9.37082E+03 -4.57910E+04 -1.74535E+04 -2.51332E+04 -4.02591E+04
  7.22493E+03 -4.10906E+04  3.13518E+04 -1.60688E+04  2.98385E+04  1.14890E+04  5.08603E+03  1.91722E+04
 -1.39205E+04  9.01399E+03 -1.01169E+04 -7.92562E+03  5.28544E+03 -1.20199E+04  1.84510E+04  6.40584E+03
  1.42123E+04  2.14517E+04 -5.21673E+03  2.68612E+04 -2.38706E+04  1.08463E+04 -3.03543E+04 -3.37872E+03
 -2.34708E+04 -1.77101E+04 -1.01464E+04 -2.22894E+04  2.85223E+03 -2.21076E+04  1.95503E+04 -2.04774E+04
  2.97164E+04 -1.33471E+04  3.62570E+04  2.71471E+03  2.47165E+04  2.10732E+04  4.23321E+03  3.82385E+04
 -1.82867E+04  3.21198E+04 -2.83334E+04  1.16681E+04 -2.26178E+04 -9.46817E+03 -5.72391E+03 -1.35471E+04
  2.49247E+03 -2.89107E+03 -6.18179E+03  7.36107E+03 -1.79163E+04  4.23643E+03 -1.81920E+04 -8.26882E+03
 -1.03661E+04 -2.23631E+04  4.45487E+03 -2.61853E+04  1.69412E+04 -1.71619E+04  1.99563E+04 -2.61022E+03
  1.19559E+04  1.57529E+04 -1.39134E+03  2.14733E+04 -1.53165E+04  1.23643E+04 -2.13264E+04 -3.38337E+03
 -1.50866E+04 -1.98060E+04 -7.29440E+02 -2.66824E+04  1.16127E+04 -2.19831E+04  2.12272E+04 -1.10131E+04
  2.12588E+04 -1.28376E+03  1.45605E+04  4.68797E+03  6.10782E+03  1.13651E+03  1.07205E+04 -1.77501E+03
  1.96135E+04  2.78702E+03  2.12569E+04  1.71618E+04  1.60356E+04  3.42263E+04 -2.54140E+03  3.97933E+04
 -2.14134E+04  3.24233E+04 -3.65912E+04  1.70142E+04 -3.92678E+04 -1.53320E+03 -3.10573E+04 -2.24593E+04
 -1.32051E+04 -3.31991E+04  1.11536E+04 -2.81917E+04  2.40825E+04 -1.24635E+04  2.14388E+04  6.56482E+03
  7.85823E+03  1.73706E+04 -1.02079E+04  1.38614E+04 -1.90524E+04  3.18585E+03 -1.47707E+04 -1.27951E+04
 -9.03596E+02 -1.80138E+04  9.33159E+03 -1.17371E+04  1.03706E+04 -1.61336E+03  2.99752E+03  7.92293E+03
 -8.79546E+03  3.96911E+03 -7.75712E+03 -5.64040E+03 -1.03271E+03 -1.43784E+04  1.13148E+04 -1.70149E+04
  2.02360E+04 -8.58768E+03  2.19424E+04  2.76347E+03  1.91249E+04  1.63946E+04  8.64111E+03  2.30556E+04
 -3.11655E+03  2.65459E+04 -1.65759E+04  1.63198E+04 -1.90999E+04  4.09821E+03 -1.33089E+04 -4.38170E+03
 -6.15795E+03 -6.73639E+03 -3.41945E+02  3.80450E+02 -1.27127E+03  2.85457E+03 -6.51249E+03  5.10689E+03
 -1.22505E+04 -4.23688E+02 -1.34209E+04 -9.04273E+03 -4.88548E+03 -1.77110E+04  4.39593E+03 -1.26045E+04
  1.15031E+04 -6.82588E+03  7.31673E+03  3.32614E+03  7.66828E+02  5.90932E+03 -5.67997E+03  2.75253E+02
 -7.10475E+03 -9.01810E+03 -5.02444E+02 -1.25544E+04  7.28623E+03 -1.22773E+04  1.63466E+04 -7.34041E+03
  1.89283E+04  2.19528E+03  1.46408E+04  1.33577E+04  3.65255E+03  1.53797E+04 -8.95660E+03  1.30444E+04
 -1.11429E+04  3.18079E+03 -5.73865E+03 -2.83998E+03  3.18063E+03 -3.87614E+03  7.11947E+03 -4.52001E+02
  7.22568E+03  5.62407E+03  2.17000E+03  1.08571E+04 -7.98891E+03  1.05997E+04 -1.22828E+04  1.74377E+03
 -8.10286E+03 -6.41924E+03 -1.02152E+02 -1.16007E+04  5.90257E+03 -5.65349E+03  6.42167E+03  2.94695E+03
  1.87376E+03  7.44032E+03 -7.34151E+03  8.89604E+03 -1.02628E+04  4.19965E+03 -1.05895E+04 -3.68354E+03
 -6.59388E+03 -1.34045E+04  3.59906E+03 -1.45952E+04  1.23535E+04 -8.52714E+03  1.35777E+04  2.54607E+03
  8.30540E+03  1.22013E+04 -5.12599E+02  1.30598E+04 -9.06342E+03  7.33400E+03 -9.71118E+03 -2.14268E+03
 -9.02817E+03 -7.53917E+03 -1.77945E+03 -9.51459E+03  5.00313E+03 -7.87287E+03  6.01563E+03 -3.76862E+03
  4.82156E+03  5.71708E+02 -1.12506E+03  3.14918E+03 -2.86630E+02 -1.61882E+03  2.04872E+03 -5.53286E+03
  9.99029E+03 -3.53053E+03  1.22812E+04  2.05604E+03  1.21413E+04  8.37957E+03  7.40284E+03  1.69629E+04
 -3.03902E+03  1.87657E+04 -1.62244E+04  1.28776E+04 -2.04094E+04  2.28018E+03 -1.60727E+04 -7.02274E+03
 -9.39884E+03 -1.17651E+04 -2.51854E+02 -1.06320E+04  3.27115E+03 -6.06588E+03  5.58944E+03 -3.49741E+03
  2.38449E+03 -1.71518E+03  2.81893E+03 -4.20866E+03  5.15323E+03 -2.57391E+03  7.26771E+03 -8.35653E+02
  7.62578E+03  1.90192E+03  4.65524E+03  6.66448E+03 -1.63069E+03  9.30531E+03 -8.58780E+03  6.38889E+03
 -1.06880E+04 -2.06627E+03 -7.73082E+03 -8.12440E+03 -8.29412E+02 -1.20068E+04  6.16930E+03 -1.25912E+04
  1.19967E+04 -6.83951E+03  1.50021E+04  1.60102E+03  1.03644E+04  1.09252E+04  2.63451E+03  1.32583E+04
 -5.23609E+03  1.10539E+04 -8.55214E+03  3.56813E+03 -5.30006E+03 -4.88066E+02 -1.93246E+03 -1.12169E+03
  9.54223E+01 -2.57289E+02 -2.46404E+03  2.31251E+03 -5.50907E+03  1.07907E+03 -8.60630E+03 -7.62814E+02
 -6.01945E+03 -7.80840E+03  5.38667E+02 -1.08905E+04  6.27963E+03 -1.02373E+04  1.06062E+04 -3.23976E+03
  1.10218E+04  4.82686E+03  4.81341E+03  8.90857E+03 -1.37723E+03  1.14341E+04 -7.19909E+03  6.90873E+03
 -9.41169E+03  2.55609E+02 -7.34954E+03 -6.86116E+03  5.64668E+02 -9.63156E+03  3.92476E+03 -6.64455E+03
  6.44958E+03 -2.38361E+03  3.64429E+03  3.03893E+03  1.81306E+03  3.33560E+03  2.64890E+02  1.36153E+03
  3.69767E+03  1.59086E+03  2.77349E+03  1.65943E+03  2.66895E+03  4.57369E+03  3.31288E+03  5.07453E+03
 -3.05365E+03  8.38819E+03 -6.76884E+03  7.08801E+03 -1.07527E+04  2.32179E+03 -1.01512E+04 -4.04294E+03
 -4.81851E+03 -9.84263E+03  8.91406E+02 -1.24433E+04  6.44864E+03 -6.30074E+03  7.94360E+03 -2.11729E+03
  6.34917E+03  3.67623E+03  2.18252E+03  6.72964E+03 -4.18504E+03  3.85087E+03 -2.90351E+03 -6.39273E+02
 -1.76256E+03 -3.98118E+03  3.78941E+03 -5.92515E+03  3.03093E+03 -2.75332E+03  3.73085E+03  9.12598E+02
  2.62858E+03  1.69810E+03  4.87543E+02  1.96958E+03 -1.04049E+03  1.36509E+03  1.35340E+03 -1.14155E+03
  1.33460E+03 -1.50853E+03  4.53447E+03  1.59921E+03  1.32642E+03  6.80315E+03 -6.92923E+02  7.23478E+03
 -3.83319E+03  4.38640E+03 -6.70338E+03  1.25426E+03 -4.32543E+03 -2.68013E+03 -2.06440E+03 -5.30152E+03
  2.48608E+02 -5.89288E+03  2.39139E+03 -1.38523E+03  1.87828E+03  1.96037E+03 -1.19439E+03  3.32960E+03
 -3.70063E+03  1.95618E+03 -4.67510E+03 -2.09791E+03 -4.39145E+03 -4.97346E+03  1.22820E+03 -5.76264E+03
  3.56964E+03 -2.47253E+03  4.11160E+03  4.32485E+02  3.02749E+03  2.02777E+03  6.95225E+02  3.92711E+03
 -2.11246E+03  1.61936E+03 -3.38855E+03 -2.39560E+03  2.25918E+03 -5.01953E+03  4.88796E+03 -4.13271E+03
  6.48303E+03  4.29386E+02  6.48570E+03  5.07055E+03  9.63340E+02  6.34182E+03 -1.21341E+03  5.35447E+03
 -6.34721E+03  2.85655E+03 -5.16996E+03 -4.79505E+01 -1.80033E+03 -4.64155E+03 -2.93390E+01 -3.04281E+03
  4.38013E+03 -8.47670E+02  4.18003E+03  1.82445E+03  3.24789E+02  3.35752E+03  5.28862E+02  3.41231E+03
 -2.15130E+03  3.88261E+03 -1.27566E+03 -3.56464E+02  9.11216E+01  3.08723E+03 -2.13242E+03  1.59196E+03
 -1.64112E+03  2.06402E+03 -3.60033E+03  2.56436E+03 -5.92073E+03  3.91531E+02 -6.69061E+03 -5.46343E+03
 -3.18577E+03 -9.11747E+03  1.64368E+03 -1.02015E+04  5.33306E+03 -8.57172E+03  9.81380E+03 -3.97813E+03
  8.40863E+03  2.75321E+03  4.64588E+03  5.50363E+03  2.22981E+03  6.98988E+03 -2.22403E+03  4.86418E+03
 -3.48013E+03  2.14044E+03 -2.98799E+03  4.77853E+02 -2.02934E+03 -7.25047E+02 -1.88227E+03 -6.07479E+02
 -5.05529E+02 -5.06058E+02  1.15193E+02  8.48410E+02 -7.18155E+02 -1.52206E+03  5.85988E+02 -1.81115E+03
  2.99428E+03 -1.31009E+03  4.14891E+03  5.95796E+02  4.41464E+03  4.76767E+03  7.13348E+02  5.36115E+03
 -3.59074E+03  6.29908E+03 -6.38610E+03  4.81809E+03 -6.98438E+03 -9.95457E+02 -5.23479E+03 -4.41863E+03
 -1.60049E+03 -7.46590E+03  2.84210E+03 -6.18962E+03  2.19195E+03 -3.02663E+03  3.12016E+03 -2.43527E+01
  1.79132E+03  9.36423E+02 -1.95503E+01  4.46733E+02 -4.54539E+02 -9.21648E+01  3.97341E+02 -8.95471E+01
  1.71991E+03 -1.59988E+03  3.25921E+03  2.25162E+03  3.25886E+02  3.78594E+03 -2.51953E+01  3.35666E+03
 -3.12217E+03  3.08655E+03 -3.46152E+03  8.48959E+02 -4.63396E+03 -3.01328E+03  6.16635E+02 -4.93499E+03
  2.67006E+03 -3.47255E+03  4.63870E+03 -2.55298E+02  4.36702E+03  1.63639E+02  2.57626E+03  3.02677E+03
  1.34540E+03  3.36340E+03 -2.14370E+03  3.45935E+03 -3.18208E+03  1.80108E+03 -2.48691E+03  3.11783E+02
 -2.59373E+02 -6.24287E+02 -2.26094E+03 -9.17822E+02 -1.71985E+03  1.01076E+02 -3.29944E+03 -1.70061E+03
 -3.34352E+03 -2.06699E+03  1.33534E+01 -3.94270E+03  1.24542E+03 -3.99035E+03  4.60089E+03 -1.86322E+03
  4.17786E+03  7.73556E+02  9.88397E+02  2.19862E+03 -1.47363E+02  4.50059E+03 -1.81084E+03  2.73725E+03
