 $NMID ID='MM_0lb_SNR200_15hz_g45_55.RAW', FMTDAT='(8E13.5)'
 TRAMP=1., VOLUME=1. $END
  3.09995E+05 -5.48645E+02  3.37994E+05  2.49686E+05  8.46018E+04  3.37829E+05 -1.32096E+05  2.49942E+05
 -1.90603E+05  8.22078E+04 -1.10937E+05 -3.28734E+04  2.00153E+03 -5.07641E+04  5.33403E+04  8.51050E+01
  3.62083E+04  5.32609E+04 -1.56999E+04  7.44304E+04 -6.08950E+04  6.34846E+04 -8.46514E+04  3.20777E+04
 -8.05041E+04 -1.10593E+04 -5.69678E+04 -4.99039E+04 -1.46963E+04 -6.92792E+04  2.67694E+04 -4.58501E+04
  3.85923E+04  2.18249E+03  1.57627E+04  4.78796E+04 -3.46267E+04  4.74408E+04 -6.54559E+04 -9.85317E+02
 -5.25555E+04 -5.67952E+04 -6.03026E+03 -7.58726E+04  3.35572E+04 -5.44171E+04  4.68337E+04 -1.56483E+04
  4.23190E+04  1.10208E+04  3.15779E+04  2.45995E+04  1.56342E+04  2.79707E+04 -5.49926E+03  2.67591E+04
 -2.19815E+04  1.26798E+04 -1.73886E+04 -4.65467E+03  6.58456E+03 -7.54604E+03  2.06769E+04  1.31063E+04
  5.91189E+03  3.36617E+04 -3.12114E+04  3.41864E+04 -6.22617E+04  1.87473E+03 -5.64238E+04 -4.15386E+04
 -1.27450E+04 -6.16503E+04  4.09117E+04 -4.48590E+04  5.69961E+04 -3.19017E+03  3.30274E+04  3.10941E+04
 -6.45631E+03  3.58097E+04 -3.03398E+04  1.47654E+04 -2.89409E+04 -4.74749E+03 -1.50816E+04 -1.14338E+04
 -8.58539E+03 -1.25985E+04 -6.53402E+02 -1.70722E+04  6.58878E+03 -2.19212E+04  1.44508E+04 -1.38223E+04
  1.10884E+04  6.06299E+03 -7.16251E+03  1.23419E+04 -2.03525E+04 -4.04139E+03 -8.24066E+03 -3.24600E+04
  2.29690E+04 -4.22293E+04  4.73031E+04 -1.92093E+04  4.43079E+04  2.05992E+04  1.60057E+04  4.41587E+04
 -1.61170E+04  3.28400E+04 -2.42262E+04  3.46071E+02 -9.23366E+03 -2.80501E+04  2.07383E+04 -3.33817E+04
  3.96561E+04 -8.35818E+03  3.31346E+04  2.28988E+04  1.72486E+04  4.57410E+04 -7.65569E+03  4.91729E+04
 -3.03211E+04  3.29511E+04 -3.95999E+04  1.00913E+04 -4.00783E+04 -1.63229E+04 -2.19686E+04 -3.63273E+04
  7.34468E+03 -3.69838E+04  3.02828E+04 -1.47566E+04  2.73219E+04  1.12333E+04  3.66308E+03  1.92530E+04
 -1.36832E+04  7.60426E+03 -1.09218E+04 -6.45665E+03  5.33173E+03 -1.08486E+04  1.74853E+04  4.96679E+03
  1.27405E+04  2.13934E+04 -7.09030E+03  2.40758E+04 -2.28141E+04  9.87564E+03 -2.59423E+04 -5.06858E+03
 -1.89413E+04 -1.65424E+04 -7.10061E+03 -1.92977E+04  3.95061E+03 -1.68676E+04  1.45317E+04 -1.72403E+04
  2.50752E+04 -1.30743E+04  3.08312E+04  1.78176E+03  2.31818E+04  1.75328E+04  4.85891E+03  3.67909E+04
 -1.65728E+04  2.98037E+04 -2.75172E+04  1.11841E+04 -2.07501E+04 -1.05025E+04 -4.63054E+03 -1.34545E+04
  3.95622E+02 -2.93266E+03 -3.80999E+03  6.75711E+03 -1.38769E+04  4.93331E+03 -1.55019E+04 -7.49496E+03
 -9.89569E+03 -1.77978E+04  5.56518E+03 -2.11912E+04  1.43702E+04 -1.64570E+04  1.61958E+04 -1.54913E+03
  9.90231E+03  1.23758E+04 -7.34321E+02  1.81444E+04 -1.12526E+04  9.74574E+03 -1.82670E+04 -4.28057E+03
 -1.10388E+04 -1.72145E+04 -1.82283E+03 -2.24492E+04  8.95766E+03 -1.70366E+04  1.77687E+04 -8.18220E+03
  1.68970E+04  4.58224E+01  1.29039E+04  4.23389E+03  5.78731E+03  3.71608E+02  9.19708E+03 -1.98316E+03
  1.57746E+04  2.28176E+03  1.80174E+04  1.42845E+04  1.18768E+04  2.78640E+04 -3.33559E+03  3.21806E+04
 -1.83792E+04  2.52320E+04 -2.95953E+04  1.21319E+04 -3.06855E+04 -1.45338E+03 -2.54414E+04 -1.70757E+04
 -1.14159E+04 -2.56723E+04  9.06161E+03 -2.26831E+04  1.93549E+04 -1.17066E+04  1.74060E+04  4.68414E+03
  6.01496E+03  1.39487E+04 -7.92286E+03  1.31305E+04 -1.51322E+04  1.57537E+03 -1.13381E+04 -9.32439E+03
 -1.08371E+03 -1.40997E+04  7.30742E+03 -1.10785E+04  8.30142E+03 -2.27244E+03  2.42669E+03  5.61945E+03
 -6.61570E+03  2.54184E+03 -6.43242E+03 -5.19687E+03  5.18506E+02 -1.20049E+04  9.23366E+03 -1.23840E+04
  1.53877E+04 -7.18493E+03  1.60600E+04  3.52508E+03  1.43958E+04  1.25816E+04  6.37639E+03  1.75353E+04
 -3.34282E+03  2.12362E+04 -1.29144E+04  1.27149E+04 -1.45409E+04  3.97108E+03 -1.04700E+04 -2.43627E+03
 -5.23077E+03 -4.19165E+03 -5.52651E+02  2.06577E+03 -2.70051E+03  2.70943E+03 -4.53715E+03  4.34503E+03
 -9.70688E+03  1.60391E+02 -1.02072E+04 -8.95019E+03 -5.43882E+03 -1.38518E+04  3.99364E+03 -1.08801E+04
  9.02707E+03 -3.72744E+03  5.19530E+03  1.98269E+03  3.29752E+02  4.00142E+03 -5.35707E+03 -3.39441E+02
 -5.22384E+03 -5.46276E+03 -3.84112E+02 -9.67482E+03  6.04480E+03 -1.04619E+04  1.24333E+04 -5.34936E+03
  1.38999E+04  1.28343E+03  1.11084E+04  7.98027E+03  1.79509E+03  1.13877E+04 -6.86326E+03  1.00166E+04
 -9.07959E+03  3.01959E+03 -3.51793E+03 -2.32696E+03  7.50554E+02 -2.77414E+03  5.80381E+03 -1.04539E+03
  5.49277E+03  3.79307E+03  1.57642E+03  7.91277E+03 -5.11732E+03  7.56692E+03 -9.99202E+03  2.07886E+03
 -7.63228E+03 -4.97199E+03  4.40314E+02 -7.44718E+03  5.78641E+03 -3.69264E+03  4.18544E+03  1.05559E+03
  1.82496E+03  5.65934E+03 -6.37011E+03  6.25038E+03 -6.46381E+03  4.17901E+03 -6.99493E+03 -2.04117E+03
 -4.56997E+03 -8.88218E+03  1.67625E+03 -1.01405E+04  7.75341E+03 -5.63749E+03  9.28264E+03  1.89753E+03
  6.39444E+03  8.06050E+03 -3.93853E+02  9.52995E+03 -6.65789E+03  4.45767E+03 -7.46683E+03 -1.31045E+03
 -7.48155E+03 -7.36807E+03 -1.70113E+03 -7.62197E+03  4.56607E+03 -6.44411E+03  4.80307E+03 -3.27632E+03
  3.42702E+03  1.01406E+03  2.31505E+02  1.58582E+03  4.95043E+02 -6.98519E+02  2.32850E+02 -3.46004E+03
  5.24029E+03 -2.82057E+03  8.34808E+03  2.29240E+03  7.58795E+03  4.28056E+03  6.35184E+03  1.13367E+04
 -2.63140E+03  1.21389E+04 -1.17755E+04  9.00548E+03 -1.44063E+04  1.62014E+03 -1.17779E+04 -3.69738E+03
 -5.68913E+03 -9.45638E+03  7.06056E+01 -7.54552E+03  2.15158E+03 -3.78872E+03  2.61212E+03 -2.72865E+03
  9.83600E+02 -3.07436E+03  1.92672E+03 -2.79643E+03  3.32697E+03 -1.65100E+03  4.32800E+03  8.33158E+02
  5.43137E+03  9.60725E+02  1.00972E+03  4.96300E+03 -2.13989E+03  4.53432E+03 -5.15312E+03  3.45785E+03
 -8.07954E+03 -1.81926E+03 -2.52001E+03 -6.45966E+03  8.14067E+02 -7.33888E+03  4.80253E+03 -8.82487E+03
  7.87091E+03 -4.91654E+03  1.05924E+04  1.03543E+03  6.23406E+03  6.68433E+03  1.00132E+03  9.05527E+03
 -2.55791E+03  6.99304E+03 -4.43148E+03  1.81210E+03 -3.10976E+03 -6.25015E+02 -4.28612E+02 -7.13486E+02
 -1.74260E+02  1.94761E+02 -8.42610E+02  4.11376E+03 -3.57638E+03  1.21056E+03 -6.22919E+03 -7.78511E+02
 -2.46479E+03 -5.94322E+03 -4.19756E+02 -7.24792E+03  3.85307E+03 -6.39613E+03  6.96747E+03 -2.24299E+03
  7.00636E+03  3.80737E+03  3.46122E+03  5.88142E+03 -5.48628E+02  8.37905E+03 -4.84920E+03  4.47396E+03
 -6.19195E+03  5.82252E+01 -4.80673E+03 -4.09666E+03 -2.71480E+02 -5.06762E+03  3.06896E+03 -3.79045E+03
  4.06148E+03 -2.48611E+03  2.23199E+03  8.26377E+02  1.25188E+03  2.57294E+03  1.37950E+03  4.92268E+02
  1.10175E+03  1.00797E+03  1.82104E+03  1.16356E+03  2.09104E+03  2.81390E+03  2.65717E+03  2.94430E+03
 -1.85145E+03  5.12943E+03 -4.32654E+03  5.53302E+03 -5.54318E+03  1.80270E+03 -5.88962E+03 -1.26481E+03
 -3.59266E+03 -6.27922E+03  1.28986E+03 -6.91977E+03  2.35139E+03 -6.51900E+03  5.15331E+03 -1.10854E+03
  4.79329E+03  2.79148E+03  2.51995E+03  3.00022E+03 -1.34241E+03  3.35515E+03 -3.28977E+03 -4.74564E+02
 -5.86687E+02 -2.46579E+03  2.20919E+03 -2.73644E+03  3.53880E+03 -1.32887E+03  3.56430E+03  3.78376E+02
  2.30758E+03  7.31875E+02 -1.90154E+02 -7.63439E+01 -1.05365E+03  1.27713E+03  1.23796E+03 -3.02107E+02
  7.39100E+02 -7.01944E+01  2.15555E+03  1.44491E+03  1.29166E+03  4.21737E+03  3.71042E+01  4.34038E+03
 -3.00334E+03  2.30737E+03 -4.86466E+03  1.73202E+03 -3.77923E+03  4.92885E+01 -1.05917E+03 -2.52108E+03
  3.92037E+02 -3.72021E+03  1.17113E+03 -7.96735E+02  1.40870E+03  1.98723E+03 -5.52928E+02  1.72497E+03
 -2.83936E+03  5.84290E+02 -2.67228E+03 -7.34578E+02 -6.18473E+02 -2.70263E+03  5.57454E+02 -3.07700E+03
  8.38640E+02 -6.68617E+02  1.75220E+03 -1.55889E+02  2.92523E+03  1.39716E+03  1.04524E+03  1.58507E+03
 -9.37806E+02  1.55489E+03 -7.02507E+02 -1.90057E+02  2.14913E+02 -1.73192E+03  2.44417E+03 -2.11999E+03
  3.24674E+03  4.75738E+02  4.18778E+03  2.33898E+03  2.56545E+03  4.05815E+03 -1.64321E+03  2.78953E+03
 -2.46811E+03  1.93652E+03 -2.96036E+03 -6.27840E+02 -4.44870E+02 -2.32354E+03 -4.14512E+02 -2.99815E+03
  3.12112E+03 -1.19337E+03  1.80296E+03  4.76208E+02  1.02589E+03  2.35608E+03 -4.05158E+02  2.04772E+03
 -1.63494E+03  2.14198E+03 -8.87223E+02  6.08379E+02 -4.85023E+02  4.13943E+02 -2.12695E+03 -5.29862E+02
 -1.47217E+03  2.62851E+03 -3.00489E+03  2.26535E+03 -3.61050E+03 -8.06269E+02 -3.99956E+03 -2.55329E+03
 -1.40045E+03 -4.42047E+03  8.02822E+01 -4.88182E+03  2.30038E+03 -3.23491E+03  4.29567E+03 -2.19383E+03
  3.97637E+03  2.48386E+02  2.16998E+03  2.56798E+03  8.50314E+02  3.37666E+03 -1.10448E+03  1.30774E+03
 -1.44294E+03  8.09659E+02 -1.17747E+03 -7.18543E+02 -2.56978E+02  9.76354E+02 -4.21235E+02 -1.24860E+03
 -1.64690E+03 -3.25969E+02  1.02618E+02  6.79417E+02  7.84446E+01 -4.24401E+02 -7.02048E+01 -1.70225E+03
  1.94650E+03 -1.42989E+03 -8.24206E+01 -2.68640E+02  1.76793E+03  2.11730E+03  1.11376E+03  3.28811E+03
 -3.70292E+03  3.10856E+03 -4.68172E+03  2.66359E+03 -4.94329E+03  2.05289E+02 -2.37057E+03 -3.29192E+03
 -1.97708E+03 -2.49312E+03  1.83766E+02 -2.28906E+03  1.90181E+03 -2.96288E+03  1.72307E+03  5.25784E+02
  1.23109E+03  1.26888E+03 -8.63194E+02 -8.00252E+01 -1.77921E+03 -1.83619E+02  3.90595E+02 -7.44314E+02
  2.32877E+03 -9.74670E+02  6.24951E+02  5.91685E+02  1.68931E+03  8.24248E+02  3.57578E+02  7.81386E+02
 -8.40866E+02  1.71372E+03 -1.81357E+03  5.18226E+02 -1.87781E+03 -8.27735E+02 -1.11715E+03 -1.86131E+03
  1.56325E+03 -2.14943E+03  1.58180E+03 -5.58867E+02  2.68039E+03 -5.83388E+01  6.12088E+02  2.44450E+03
  5.80016E+02  9.17368E+02 -1.71809E+02  1.96670E+03 -1.72615E+03  7.11228E+02 -4.37416E+01 -1.13261E+03
 -1.77945E+03  1.36667E+03 -4.65450E+02  3.50262E+02 -2.12833E+03  7.04721E+02 -1.52105E+03 -5.33891E+02
 -2.11750E+03  1.25157E+02  9.47583E+02 -2.50338E+03  1.43600E+03 -2.51931E+03  2.57952E+03 -7.21248E+02
  1.55033E+03  1.20482E+03  6.89253E+02 -1.49390E+02 -3.29799E+02  2.00289E+03 -4.27852E+02  1.29603E+03
