 $NMID ID='MM_0lb_SNR200_15hz_g45_41.RAW', FMTDAT='(8E13.5)'
 TRAMP=1., VOLUME=1. $END
  3.09308E+05  4.04536E+01  3.37236E+05  2.51160E+05  8.39443E+04  3.37554E+05 -1.32476E+05  2.49910E+05
 -1.90949E+05  8.27094E+04 -1.10748E+05 -3.19039E+04  5.07442E+02 -5.18441E+04  5.44342E+04 -6.93131E+02
  3.41717E+04  5.27191E+04 -1.64072E+04  7.47971E+04 -6.18033E+04  6.32832E+04 -8.37704E+04  3.13227E+04
 -8.05411E+04 -1.12349E+04 -5.80900E+04 -5.14560E+04 -1.55672E+04 -6.85105E+04  2.78736E+04 -4.56212E+04
  3.91219E+04  5.84180E+03  1.60001E+04  4.73735E+04 -3.57970E+04  4.62169E+04 -6.61258E+04 -2.48414E+02
 -5.32552E+04 -5.77939E+04 -6.52722E+03 -7.66194E+04  3.37610E+04 -5.42024E+04  4.70824E+04 -1.74688E+04
  4.17011E+04  1.09162E+04  3.02958E+04  2.52596E+04  1.63534E+04  2.88302E+04 -5.03857E+03  2.84791E+04
 -2.20294E+04  1.20898E+04 -1.87079E+04 -3.62265E+03  5.09569E+03 -6.79776E+03  2.23520E+04  1.10640E+04
  7.52571E+03  3.45074E+04 -3.07452E+04  3.47458E+04 -6.22820E+04  2.68418E+03 -5.68495E+04 -4.22039E+04
 -1.27075E+04 -6.29285E+04  3.95781E+04 -4.40468E+04  5.77177E+04 -2.21692E+03  3.43874E+04  3.16618E+04
 -6.00854E+03  3.58217E+04 -2.90110E+04  1.55573E+04 -2.92499E+04 -5.12292E+03 -1.65661E+04 -1.11602E+04
 -8.11969E+03 -1.37689E+04 -8.85881E+02 -1.81606E+04  7.04067E+03 -2.30199E+04  1.45927E+04 -1.36803E+04
  1.20428E+04  4.94946E+03 -6.58036E+03  1.31735E+04 -2.11860E+04 -4.29137E+03 -9.36837E+03 -3.22913E+04
  2.25993E+04 -4.29692E+04  4.61864E+04 -1.93113E+04  4.42864E+04  1.91740E+04  1.52216E+04  4.30077E+04
 -1.64057E+04  3.26510E+04 -2.48680E+04  2.05924E+03 -8.33424E+03 -2.69131E+04  2.20504E+04 -3.23666E+04
  3.88794E+04 -8.23770E+03  3.49030E+04  2.37197E+04  1.72269E+04  4.56546E+04 -7.52424E+03  4.80077E+04
 -2.99692E+04  3.32506E+04 -4.02616E+04  9.11684E+03 -4.13016E+04 -1.62811E+04 -2.32986E+04 -3.60567E+04
  6.22418E+03 -3.66317E+04  3.02423E+04 -1.36015E+04  2.85678E+04  9.51614E+03  2.18018E+03  1.81366E+04
 -1.28697E+04  7.89858E+03 -1.14904E+04 -7.70251E+03  6.59041E+03 -1.01411E+04  1.84028E+04  6.16562E+03
  1.27368E+04  2.25236E+04 -6.08598E+03  2.35321E+04 -2.31588E+04  9.96672E+03 -2.65713E+04 -6.26387E+03
 -1.92651E+04 -1.60296E+04 -7.41174E+03 -1.99587E+04  3.57062E+03 -1.80683E+04  1.34863E+04 -1.63957E+04
  2.42236E+04 -1.17123E+04  3.17135E+04  2.63658E+03  2.35425E+04  1.76635E+04  2.89837E+03  3.48905E+04
 -1.85314E+04  2.94201E+04 -2.70564E+04  1.07552E+04 -2.02381E+04 -9.96689E+03 -3.61025E+03 -1.39757E+04
  1.88193E+03 -2.76558E+03 -3.77151E+03  6.59086E+03 -1.53401E+04  4.67657E+03 -1.52607E+04 -6.56870E+03
 -9.72872E+03 -1.75262E+04  4.88824E+03 -2.15973E+04  1.50932E+04 -1.63448E+04  1.71282E+04 -1.23507E+03
  1.09014E+04  1.25261E+04 -1.48781E+03  1.79543E+04 -1.17457E+04  1.11111E+04 -1.78764E+04 -2.93513E+03
 -1.41074E+04 -1.45260E+04 -8.79704E+02 -2.17785E+04  9.88203E+03 -1.83041E+04  1.74594E+04 -8.65757E+03
  1.65134E+04 -5.08937E+02  1.22600E+04  4.02499E+03  6.47771E+03  1.63946E+03  9.15722E+03 -1.59671E+03
  1.65790E+04  2.55776E+03  1.76571E+04  1.48348E+04  1.07288E+04  2.85177E+04 -3.61367E+03  3.29216E+04
 -1.87533E+04  2.49567E+04 -2.98968E+04  1.09602E+04 -3.05023E+04 -2.69581E+03 -2.54031E+04 -1.83020E+04
 -1.14236E+04 -2.50770E+04  8.36240E+03 -2.30755E+04  1.97618E+04 -1.18004E+04  1.71465E+04  4.95685E+03
  7.63534E+03  1.23513E+04 -7.88860E+03  1.12211E+04 -1.46863E+04  2.95838E+03 -1.20651E+04 -9.75191E+03
  1.45800E+02 -1.51901E+04  7.78572E+03 -1.13510E+04  9.49776E+03 -5.51279E+02  2.33481E+03  6.10862E+03
 -6.66291E+03  2.27721E+03 -5.97626E+03 -5.49172E+03  7.09321E+01 -1.38624E+04  8.97226E+03 -1.31889E+04
  1.43436E+04 -6.51055E+03  1.71787E+04  1.57488E+03  1.37029E+04  1.23462E+04  6.84596E+03  1.76830E+04
 -2.22015E+03  1.93714E+04 -1.30735E+04  1.30650E+04 -1.43268E+04  3.05695E+03 -1.12596E+04 -2.72352E+03
 -5.10891E+03 -4.27011E+03 -6.21197E+02  8.87335E+02 -1.30457E+03  2.64144E+03 -5.77655E+03  4.30948E+03
 -9.51393E+03 -1.87413E+03 -1.03165E+04 -7.81862E+03 -3.59118E+03 -1.40998E+04  3.83682E+03 -1.01411E+04
  8.63880E+03 -3.34470E+03  6.25318E+03  2.12890E+03  5.12793E-01  3.45682E+03 -5.11541E+03 -4.44988E+02
 -4.17594E+03 -5.78170E+03 -1.98246E+03 -9.17275E+03  5.34832E+03 -1.08025E+04  1.39126E+04 -4.98320E+03
  1.53355E+04  1.26230E+03  9.35902E+03  8.15091E+03  1.59082E+02  1.10996E+04 -6.11094E+03  9.79815E+03
 -8.74716E+03  3.83612E+03 -4.63068E+03 -1.75938E+03  2.16002E+03 -2.37531E+03  6.11207E+03 -1.43524E+03
  4.91736E+03  4.68927E+03 -5.80993E+02  8.13728E+03 -5.53447E+03  8.01232E+03 -1.04901E+04  3.02474E+03
 -6.80235E+03 -4.77044E+03  2.39547E+02 -8.93005E+03  5.38122E+03 -4.36231E+03  5.34446E+03  1.40314E+03
 -3.57730E+01  5.25915E+03 -4.07668E+03  6.81800E+03 -7.83314E+03  3.08350E+03 -6.66027E+03 -7.95283E+02
 -3.76341E+03 -7.74387E+03  2.29987E+03 -9.94879E+03  8.67694E+03 -5.56063E+03  9.74327E+03  2.90897E+03
  6.30345E+03  7.17032E+03 -6.00575E+02  9.61510E+03 -5.83824E+03  6.43022E+03 -7.10242E+03  7.22401E+02
 -6.20489E+03 -5.79371E+03 -1.06881E+03 -5.91383E+03  4.93780E+03 -6.80769E+03  3.80237E+03 -1.43219E+03
  4.38253E+03  1.29060E+03  2.47151E+02  1.36035E+03 -4.54223E+02 -7.37455E+02  7.56234E+02 -4.08656E+03
  5.60850E+03 -2.76925E+03  8.49672E+03  1.90073E+03  7.69571E+03  4.63104E+03  5.59992E+03  1.12958E+04
 -2.58867E+03  1.19663E+04 -1.25492E+04  9.67382E+03 -1.39331E+04  2.41144E+03 -1.08434E+04 -4.35576E+03
 -5.80663E+03 -9.42196E+03 -1.52478E+03 -6.52527E+03  2.91751E+03 -2.81940E+03  1.73606E+03 -2.66909E+03
  1.55132E+03 -1.91799E+03  2.87514E+03 -3.70735E+03  3.59687E+03 -7.81467E+02  4.28757E+03  5.37837E+02
  5.84426E+03  5.81085E+02  2.10185E+03  4.26576E+03 -2.93497E+03  5.38466E+03 -5.34761E+03  4.76225E+03
 -7.96590E+03 -4.33098E+02 -2.50553E+03 -4.01377E+03 -6.47439E+02 -7.58661E+03  4.97790E+03 -8.84533E+03
  7.39238E+03 -4.30266E+03  1.03575E+04 -1.05143E+02  6.89078E+03  6.59414E+03  1.03213E+03  9.54033E+03
 -3.02833E+03  8.06097E+03 -5.27090E+03  3.22476E+03 -2.87518E+03 -7.23746E+02 -1.64582E+03 -1.78353E+03
 -6.77758E+02  1.23304E+03 -8.93120E+02  3.60071E+03 -3.71743E+03  1.64854E+03 -4.96958E+03 -7.49326E+02
 -2.64463E+03 -5.16761E+03  8.99461E+02 -6.78488E+03  3.82476E+03 -6.98776E+03  5.49027E+03 -1.66238E+03
  6.08024E+03  3.25938E+03  2.47971E+03  5.80943E+03 -7.43807E+01  7.38225E+03 -3.52083E+03  3.96554E+03
 -6.12423E+03  1.49635E+02 -5.45883E+03 -4.15392E+03 -6.42097E+02 -4.70980E+03  2.37931E+03 -3.55418E+03
  4.87888E+03 -2.77804E+03  4.10260E+03  1.33142E+03 -2.20104E+02  1.82566E+03  7.21892E+02  1.02393E+03
  2.55768E+03  7.47139E+02  2.02642E+03  9.71954E+02  2.35385E+03  3.00173E+03  1.09195E+03  2.74017E+03
 -2.13439E+03  5.07502E+03 -4.22956E+03  5.83083E+03 -6.35992E+03  3.03839E+03 -6.14165E+03 -1.84524E+03
 -4.72666E+03 -6.78083E+03  3.33773E+02 -7.36275E+03  3.37006E+03 -3.37970E+03  5.36125E+03 -7.06785E+02
  4.34430E+03  9.11925E+02  2.00875E+03  3.98282E+03 -7.50040E+02  1.64419E+03 -3.09749E+03  1.26110E+03
 -2.16675E+03 -3.20412E+03  1.91223E+03 -3.56300E+03  7.81660E+02 -1.14342E+03  3.53018E+03  1.66369E+03
  1.19500E+03  9.66508E+02 -8.76875E+02 -1.50815E+02 -1.45777E+03  3.86123E+02  1.25671E+03  3.59090E+02
 -3.75418E+02 -1.20635E+03  2.65756E+03  1.90172E+03  1.54701E+03  3.06429E+03 -2.04542E+03  4.75045E+03
 -1.24553E+03  2.30915E+03 -4.48780E+03  2.36159E+03 -4.11932E+03 -1.14002E+03 -9.66370E+02 -1.21423E+03
  1.69875E+03 -1.93352E+03  1.48078E+03 -1.28274E+03  6.56191E+02  1.46686E+03 -1.29735E+03  2.19394E+03
 -9.04594E+02  1.30694E+03 -2.89077E+03 -1.48606E+03 -2.27019E+03 -1.92560E+03  1.14908E+03 -1.57713E+03
  1.35044E+03 -1.19088E+03  2.53128E+03 -6.74967E+02  2.23684E+03  8.04510E+02  1.28136E+03  1.64706E+03
 -1.61607E+03 -4.02884E+02 -1.17217E+03 -6.12446E+02  1.31173E+03 -1.35425E+03  2.38143E+03 -2.12817E+03
  3.31809E+03 -4.90275E+02  3.62269E+03  2.16896E+03  1.04126E+03  2.99530E+03 -2.31432E+03  4.20543E+03
 -2.01209E+03  1.65656E+03 -2.61670E+03  7.12986E+02 -1.99366E+03 -3.50437E+03  4.19241E+02 -9.72365E+02
  2.49095E+03 -2.24607E+03  2.78858E+03  1.39005E+03 -3.34636E+02  1.81397E+03  1.59423E+02  2.26368E+03
 -1.96403E+03  1.26000E+03 -1.37754E+03  8.35705E+02  1.36314E+02  8.93744E+02 -9.68649E+02  1.29663E+03
 -7.11156E+02  1.55629E+03 -2.88872E+03  6.80246E+01 -4.16570E+03  1.58175E+02 -4.36498E+03 -2.99524E+03
 -1.59952E+03 -4.56858E+03  2.06996E+03 -7.10038E+03  3.06309E+03 -5.10136E+03  4.85633E+03 -2.16927E+03
  5.01159E+03  2.13650E+02  2.42692E+03  2.64043E+03 -9.92887E+02  3.96819E+03 -1.27469E+03  2.71086E+03
 -2.57540E+03  1.45126E+03 -1.39218E+03 -3.80861E+02 -8.60175E+02  1.95715E+03  4.83914E+01  8.38382E+02
 -1.64963E+03 -5.27100E+02 -5.15387E+02 -5.64251E+02  3.77882E+02 -6.08584E+02  1.28275E+02 -5.30031E+02
  1.48859E+03 -9.89932E+02  2.24080E+03  8.27056E+02  2.21624E+03  1.35463E+03  1.31841E+03  2.75905E+03
 -1.83672E+03  2.78118E+03 -2.75141E+03  3.01933E+02 -3.73228E+03  1.14021E+03 -3.30227E+03 -3.28375E+03
 -1.51613E+03 -2.58838E+03 -2.87383E+02 -2.14511E+03  1.44217E+03 -1.07700E+03  1.20378E+03  9.72787E+02
  2.76023E+03 -4.43400E+01 -8.30519E+02  6.37380E+02 -1.21178E+03  9.38414E+02 -7.20308E+02 -3.62693E+01
  7.18883E+02 -4.75017E+02  1.39275E+03  9.12188E+02 -5.62247E+02  4.75985E+01 -4.06240E+02  1.58938E+03
 -7.30514E+02  1.17482E+03 -1.76875E+03 -8.73459E+02 -2.26766E+03 -7.80471E+02  4.96314E+02 -2.65400E+03
  2.90791E+03 -3.10355E+03  2.37931E+03 -4.39892E+02  2.90067E+03 -6.43092E+02  1.64006E+03  1.52558E+03
  1.04955E+03  2.07389E+03 -4.37059E+02  2.37896E+03 -9.80749E+02  2.78593E+02 -7.73313E+02  1.94808E+02
 -1.26245E+03  7.92198E+01 -3.61078E+02 -3.71287E+02 -2.46370E+03 -3.48055E+02 -1.05842E+03  1.68001E+02
 -1.79805E+03 -5.60268E+02 -1.67556E+03 -1.34099E+03  7.16507E+02 -2.31521E+03  1.40109E+03 -1.21858E+03
  1.82641E+03 -9.04462E+01  1.52797E+03  2.99531E+01 -1.08355E+03  2.51620E+03 -1.46555E+03  1.25506E+03
