 $NMID ID='MM_0lb_SNR200_19hz_g40_3.RAW', FMTDAT='(8E13.5)'
 TRAMP=1., VOLUME=1. $END
  3.10175E+05 -2.88029E+01  3.37740E+05  2.50472E+05  8.37233E+04  3.38124E+05 -1.32693E+05  2.50375E+05
 -1.90494E+05  8.29163E+04 -1.10415E+05 -3.30442E+04  2.25854E+03 -5.02895E+04  5.44164E+04  1.14387E+02
  3.41585E+04  5.24727E+04 -1.58805E+04  7.46527E+04 -6.09359E+04  6.25585E+04 -8.27905E+04  3.14354E+04
 -7.86817E+04 -1.06946E+04 -5.65965E+04 -4.97203E+04 -1.44928E+04 -6.83185E+04  2.59705E+04 -4.39923E+04
  3.86599E+04  3.97013E+03  1.50187E+04  4.67428E+04 -3.36982E+04  4.60390E+04 -6.47887E+04 -4.59009E+02
 -5.13033E+04 -5.56309E+04 -5.75504E+03 -7.50061E+04  3.25845E+04 -5.26558E+04  4.59205E+04 -1.52761E+04
  4.10149E+04  1.09818E+04  3.04571E+04  2.42865E+04  1.52484E+04  2.84732E+04 -5.63565E+03  2.63885E+04
 -2.19219E+04  1.24821E+04 -1.82615E+04 -3.82595E+03  5.13842E+03 -7.05357E+03  2.07463E+04  1.15809E+04
  7.61523E+03  3.30125E+04 -3.05796E+04  3.39045E+04 -6.00521E+04  2.20881E+03 -5.40424E+04 -3.93851E+04
 -1.33382E+04 -6.03690E+04  3.72893E+04 -4.30577E+04  5.45328E+04 -1.70506E+03  3.14299E+04  2.94778E+04
 -6.99396E+03  3.20384E+04 -2.76006E+04  1.29203E+04 -2.76300E+04 -6.10527E+03 -1.42217E+04 -1.06382E+04
 -7.04418E+03 -1.07083E+04 -1.02997E+03 -1.57000E+04  5.84583E+03 -2.30201E+04  1.57393E+04 -1.40082E+04
  1.20790E+04  4.31736E+03 -6.10328E+03  1.33360E+04 -1.93678E+04 -3.04297E+03 -7.72532E+03 -2.97577E+04
  2.07078E+04 -3.94820E+04  4.41969E+04 -1.71704E+04  4.06623E+04  1.65497E+04  1.32508E+04  4.07997E+04
 -1.58369E+04  2.97500E+04 -2.27334E+04  9.19527E+02 -7.39313E+03 -2.57591E+04  1.96166E+04 -3.13768E+04
  3.74123E+04 -7.25342E+03  2.97369E+04  2.37874E+04  1.55590E+04  4.08285E+04 -7.09557E+03  4.36827E+04
 -2.75150E+04  2.83445E+04 -3.60183E+04  8.00324E+03 -3.74794E+04 -1.43748E+04 -1.97588E+04 -3.37400E+04
  7.75218E+03 -3.32368E+04  2.95080E+04 -1.43599E+04  2.65663E+04  1.12339E+04  2.96254E+03  1.79526E+04
 -1.36952E+04  6.66507E+03 -1.00827E+04 -7.74562E+03  7.20859E+03 -1.02664E+04  1.72260E+04  6.02769E+03
  1.15414E+04  2.14098E+04 -6.29962E+03  2.27512E+04 -2.08645E+04  8.70079E+03 -2.48857E+04 -6.92018E+03
 -1.48556E+04 -1.69372E+04 -5.36977E+03 -1.67861E+04  2.91542E+03 -1.31959E+04  1.12981E+04 -1.33530E+04
  2.00692E+04 -1.11933E+04  2.81836E+04  7.40622E+02  2.04550E+04  1.49357E+04  3.11683E+03  3.24398E+04
 -1.67425E+04  2.71939E+04 -2.45870E+04  8.60056E+03 -1.92487E+04 -9.62840E+03 -4.38057E+03 -1.53120E+04
  3.90165E+03 -4.76605E+03 -2.36919E+03  4.70720E+03 -1.14732E+04  4.94643E+03 -1.23498E+04 -4.17439E+03
 -7.41610E+03 -1.48201E+04  3.59329E+03 -1.76934E+04  1.20681E+04 -1.38530E+04  1.33579E+04 -6.71941E+02
  9.72936E+03  1.01995E+04 -8.93488E+02  1.56851E+04 -1.08066E+04  8.75308E+03 -1.39471E+04 -3.84175E+03
 -1.14670E+04 -1.37338E+04 -1.31375E+03 -1.84677E+04  8.86637E+03 -1.49912E+04  1.56152E+04 -7.09231E+03
  1.49318E+04  5.08115E+02  9.52381E+03  3.50029E+03  3.96236E+03 -9.60509E+02  7.28733E+03 -2.71167E+03
  1.40393E+04  3.12607E+03  1.25112E+04  1.22026E+04  8.20375E+03  2.41875E+04 -3.89895E+03  2.54464E+04
 -1.63960E+04  1.80239E+04 -2.22266E+04  8.82820E+03 -2.19687E+04 -2.03967E+03 -1.96579E+04 -1.34001E+04
 -9.36180E+03 -1.88907E+04  6.32456E+03 -1.76453E+04  1.60074E+04 -9.63912E+03  1.35788E+04  4.06031E+03
  6.59155E+03  1.09863E+04 -6.35571E+03  1.00039E+04 -1.26867E+04  2.71784E+03 -1.07440E+04 -7.14492E+03
 -7.81154E+02 -1.18084E+04  4.87534E+03 -9.26338E+03  6.83199E+03 -9.78817E+02  2.12316E+03  4.39629E+03
 -4.28323E+03  1.00505E+03 -3.70248E+03 -5.13978E+03  1.13049E+03 -9.47714E+03  7.28296E+03 -1.00919E+04
  1.21113E+04 -3.78926E+03  1.03391E+04  2.38515E+03  9.18270E+03  8.75668E+03  4.68047E+03  1.37318E+04
 -1.30986E+03  1.46976E+04 -8.18497E+03  9.47784E+03 -9.61909E+03  2.30970E+03 -7.36316E+03 -2.27077E+03
 -4.80021E+03 -2.78524E+03 -1.73028E+03  2.57733E+03 -1.52975E+03  1.85205E+03 -4.16432E+03  3.14077E+03
 -7.66884E+03  2.80312E+02 -9.85978E+03 -6.09274E+03 -3.54408E+03 -1.19240E+04  4.54831E+03 -7.31376E+03
  6.51936E+03 -2.53083E+03  4.40301E+03  9.83412E+02  1.23344E+03  3.44892E+03 -1.62892E+03 -1.18485E+03
 -2.95388E+03 -4.78831E+03 -1.09157E+03 -6.49805E+03  3.34986E+03 -7.34516E+03  8.43358E+03 -3.21616E+03
  1.04306E+04 -1.01768E+02  7.66171E+03  5.86542E+03  1.45915E+03  6.91531E+03 -5.43944E+03  9.18861E+03
 -7.27016E+03  2.03844E+03 -2.48104E+03 -4.20364E+02  2.04461E+03 -1.97928E+03  4.38586E+03 -3.70282E+02
  4.32769E+03  2.51549E+03  1.23953E+03  6.13712E+03 -4.50013E+03  6.56063E+03 -7.32602E+03  2.00867E+03
 -4.35763E+03 -2.68006E+03  8.17373E+02 -6.46492E+03  4.30953E+03 -3.82771E+03  3.88308E+03  6.82320E+02
 -1.88373E+03  3.07303E+03 -2.61478E+03  4.53727E+03 -5.13483E+03  2.87991E+03 -3.04815E+03 -5.32277E+02
 -2.84475E+03 -5.40157E+03  1.32138E+03 -5.53551E+03  5.55254E+03 -4.50982E+03  5.06040E+03  9.92831E+02
  4.58116E+03  4.75508E+03 -9.62709E+01  6.14653E+03 -5.20167E+03  3.40781E+03 -4.96466E+03  2.96838E+02
 -5.26205E+03 -4.18269E+03 -6.89273E+02 -4.05336E+03  2.39289E+03 -4.96077E+03  3.99949E+03 -2.53501E+03
  2.87727E+03  3.26269E+02  7.49267E+02  1.02991E+03  1.17308E+03 -6.08889E+02 -1.77453E+02 -1.81956E+03
  3.66106E+03 -4.96621E+02  4.68230E+03 -3.29411E+02  5.40848E+03  2.65430E+03  4.93140E+03  5.93516E+03
 -4.61788E+01  7.05498E+03 -6.82824E+03  6.56372E+03 -9.74261E+03  1.12701E+03 -7.12125E+03 -2.50040E+03
 -2.81094E+03 -6.86121E+03 -9.81584E+02 -4.41414E+03  2.12178E+03 -1.82967E+03  1.18434E+03 -2.09333E+03
  1.43688E+03 -2.36644E+03  2.35189E+03 -3.12355E+03  3.11583E+03 -1.46638E+03  3.68470E+03  5.98624E+02
  5.16244E+03  1.15026E+03  4.46315E+02  3.28600E+03 -2.63225E+03  2.66720E+03 -4.36173E+03  3.24093E+03
 -4.11961E+03 -7.45875E+02 -1.57468E+03 -2.36127E+03  5.35178E+02 -3.05502E+03  3.03601E+03 -4.09549E+03
  5.27280E+03 -3.72272E+03  6.37422E+03  2.82165E+02  4.59474E+03  3.30524E+03  9.79574E+02  5.04747E+03
 -9.55638E+02  5.21433E+03 -3.28724E+03  2.27913E+03 -1.94690E+03 -7.77691E+02 -1.13251E+03 -1.21338E+03
 -4.31001E+02  2.91731E+02  3.56233E+02  1.19797E+03 -2.90221E+03  3.67788E+02 -3.90276E+03 -5.73091E+02
 -1.59648E+03 -3.79556E+03  8.05165E+02 -2.94724E+03  1.54235E+03 -3.77932E+03  2.85741E+03 -1.17294E+03
  2.85877E+03  1.65668E+03  1.94368E+03  2.07422E+03  4.03299E+02  4.15923E+03 -2.64730E+03  1.65723E+03
 -3.82514E+03  1.92537E+02 -2.74713E+03 -2.67119E+03 -1.38362E+02 -2.23537E+03  1.24473E+03 -2.00729E+03
  2.31571E+03 -2.06958E+03  1.75624E+03  1.33602E+03 -2.92903E+02  1.63427E+03  2.72548E+02  8.59552E+01
  2.86812E+03  4.58082E+02  7.42515E+02  5.36152E+02  1.93668E+03  1.14290E+03  8.20429E+02  5.22065E+02
 -1.66329E+03  2.74238E+03 -1.91265E+03  4.62981E+03 -2.44961E+03  1.91815E+03 -3.39013E+03  1.06865E+03
 -9.67821E+02 -3.59754E+03  1.57195E+03 -4.51623E+03  1.68983E+03 -1.65529E+03  3.09968E+03 -3.60098E+02
  2.88308E+03  4.89404E+02  1.17214E+03  2.19628E+03 -1.02971E+03  9.20915E+02 -1.08034E+03  2.80311E+02
 -1.08389E+03 -9.34588E+02  1.15281E+03 -1.32256E+03  1.51451E+03 -1.40962E+03  1.81368E+03  1.63267E+03
  2.65467E+02  4.16245E+02  1.54652E+03 -1.73211E+03  5.68881E+02  3.52446E+02  1.15567E+03 -5.24155E+01
 -1.01499E+03  5.77564E+02  1.21413E+03  3.83920E+02  1.73617E+03  2.71481E+03 -1.53344E+02  3.26021E+03
 -3.11983E+03  1.03929E+03 -3.17779E+03 -2.51708E+02 -1.92104E+03 -1.34747E+03  4.15178E+02 -1.81782E+03
  3.70556E+02 -8.33950E+02 -2.73909E+02 -1.30140E+03  1.02762E+03  1.90845E+03  4.29354E+02  4.65270E+02
 -1.90855E+03  8.88852E+02 -2.06564E+03 -1.60797E+03 -7.87278E+02 -3.61092E+03  2.83188E+02 -8.20553E+02
  4.06006E+02  7.34519E+02 -5.05501E+02 -9.55090E+02  5.31907E+02 -4.41006E+02  9.45623E+01  3.65959E+02
  3.20006E+02  4.81774E+02 -9.60832E+02 -2.39964E+02  6.23876E+02 -1.93859E+03  6.16601E+02 -5.99901E+02
 -1.98282E+02  1.15741E+02  2.68873E+03  1.08169E+03  3.28479E+02  2.22440E+03 -5.57517E+02  1.79984E+03
 -1.07628E+03  5.46724E+02 -1.74128E+03  6.52120E+02 -1.26696E+03 -1.01643E+03  7.43215E+01 -2.58300E+02
  1.17224E+03  1.85681E+02 -6.52006E+02  1.52896E+03 -4.00744E+02  2.07552E+03  4.69511E+02  1.22543E+03
 -8.83409E+01  1.56994E+03 -4.57656E+02 -1.79485E+02  1.98985E+02  2.00428E+03 -6.60725E+02  7.45637E+02
 -7.90841E+02  5.59975E+01 -1.64120E+03  1.78576E+02 -1.13325E+03  6.85282E+02 -1.72761E+03 -1.58801E+02
 -9.36967E+02 -2.81939E+03  8.82173E+02 -3.06047E+03  1.03188E+02 -2.48344E+03  3.13136E+03 -2.30375E+03
  1.69837E+03  5.18655E+01 -1.08324E+02  8.64663E+02  2.77351E+02  1.06798E+03 -5.73084E+01  7.70324E+02
 -1.06244E+03  9.52633E+02 -7.93829E+02 -4.53593E+02 -6.84009E+02 -4.00850E+01 -1.64832E+03  3.21770E+02
 -2.01175E+03 -4.59910E+02 -9.02803E+02  1.50366E+02  5.21642E+02 -6.94561E+02 -7.03212E+02 -6.90810E+02
  1.52806E+03 -1.33159E+03  5.41792E+01  7.21639E+02  1.22926E+03  4.44593E+02 -1.79022E+02  1.08167E+03
 -1.15780E+03  2.79022E+03 -2.31911E+03  8.90952E+02 -9.24656E+02 -7.88784E+02 -6.31281E+02 -1.65234E+03
 -1.31938E+03  1.03423E+02  7.71017E+02 -1.71536E+02  1.13213E+03 -2.42654E+02  6.39397E+02  3.43738E+02
  9.95833E+02 -7.34292E+02 -2.38744E+02  1.11070E+03 -3.57154E+02 -1.87581E+01  1.72972E+02  1.74991E+02
  7.95477E+02  4.18746E+02  6.67248E+02  1.00307E+02 -1.97054E+02 -1.89217E+02  9.04286E+02 -3.81728E+01
 -1.29481E+03  8.39213E+02  5.91217E+02 -4.51265E+02  2.71554E+02 -1.52208E+03 -9.39322E+01 -1.00022E+03
  1.08328E+03 -2.71792E+02  4.56882E+02  1.37285E+02  8.66152E+02 -1.17920E+03  1.43377E+03  1.11543E+02
 -4.29179E+02  9.68924E+02  1.21237E+03  4.65355E+02 -7.14680E+02  7.65453E+02 -8.11067E+01 -3.64140E+02
 -2.71831E+02 -9.38556E+01 -1.07711E+03 -3.11829E+02 -5.35701E+01  1.74318E+02 -7.48065E+02 -1.81166E+02
 -8.10163E+02  7.50271E+01 -3.98251E+02 -6.16169E+02 -2.52470E+02 -7.84690E+02  6.15693E+02  5.34224E+02
  1.51941E+02 -6.44290E+02 -7.86777E+02  6.63706E+02 -1.71824E+02  1.19567E+03 -5.26383E+02  1.54427E+03
