 $NMID ID='MM_0lb_SNR200_7hz_g45_41.RAW', FMTDAT='(8E13.5)'
 TRAMP=1., VOLUME=1. $END
  3.09324E+05  1.09660E+03  3.37632E+05  2.51451E+05  8.75385E+04  3.38973E+05 -1.31795E+05  2.54000E+05
 -1.92980E+05  8.36950E+04 -1.11387E+05 -3.19724E+04  5.50195E+02 -5.17391E+04  5.36601E+04  3.28233E+02
  3.64988E+04  5.01966E+04 -1.50325E+04  7.51849E+04 -6.00743E+04  6.42898E+04 -8.53681E+04  3.22602E+04
 -8.32285E+04 -1.08547E+04 -5.98504E+04 -5.23974E+04 -1.40945E+04 -7.08013E+04  2.74673E+04 -4.90509E+04
  4.37156E+04  3.82913E+03  1.77600E+04  4.72895E+04 -3.52459E+04  5.16348E+04 -6.90163E+04 -6.11213E+02
 -5.45378E+04 -5.50144E+04 -8.20188E+03 -7.93731E+04  3.41484E+04 -5.90148E+04  5.00323E+04 -1.97004E+04
  4.48610E+04  1.32415E+04  3.48476E+04  2.64626E+04  1.61147E+04  3.12730E+04 -6.51651E+03  2.82887E+04
 -2.32468E+04  1.16740E+04 -1.71045E+04 -5.29579E+03  6.76138E+03 -7.99719E+03  2.47950E+04  1.29384E+04
  5.84862E+03  3.78690E+04 -3.48117E+04  3.61880E+04 -6.68599E+04  1.63862E+03 -5.94754E+04 -4.66303E+04
 -1.30427E+04 -6.80680E+04  4.25549E+04 -4.79421E+04  6.12602E+04 -1.91199E+03  3.80536E+04  3.55344E+04
 -3.61348E+03  4.01914E+04 -3.30696E+04  2.05004E+04 -3.46236E+04 -1.78439E+03 -2.00754E+04 -1.28475E+04
 -8.48965E+03 -1.75266E+04  2.32306E+02 -2.11894E+04  8.50014E+03 -2.31864E+04  1.66571E+04 -1.08878E+04
  9.76426E+03  5.84454E+03 -1.16807E+04  1.32427E+04 -2.30050E+04 -7.68360E+03 -8.75614E+03 -3.67664E+04
  2.66068E+04 -4.88760E+04  5.35920E+04 -2.04854E+04  5.03845E+04  2.00994E+04  1.49427E+04  4.80083E+04
 -1.71169E+04  3.77005E+04 -2.86062E+04  3.78801E+03 -1.18081E+04 -3.06821E+04  2.27103E+04 -3.84154E+04
  4.40935E+04 -1.15133E+04  4.27575E+04  2.59491E+04  2.26324E+04  5.19338E+04 -8.04526E+03  5.94148E+04
 -3.63387E+04  4.05375E+04 -4.93026E+04  1.06549E+04 -5.05557E+04 -1.90654E+04 -2.71505E+04 -4.26613E+04
  7.72047E+03 -4.24137E+04  3.61733E+04 -1.81517E+04  3.33721E+04  1.27923E+04  5.96777E+03  2.29822E+04
 -1.19657E+04  1.00925E+04 -9.98447E+03 -5.67484E+03  5.86171E+03 -1.17899E+04  1.94314E+04  5.17168E+03
  1.51820E+04  2.35212E+04 -3.10748E+03  2.83764E+04 -2.34506E+04  1.55464E+04 -3.28491E+04 -2.25310E+03
 -2.72546E+04 -1.96453E+04 -1.14079E+04 -2.57363E+04  5.74616E+03 -2.69325E+04  2.07356E+04 -2.49363E+04
  3.51134E+04 -1.39558E+04  4.09376E+04  6.20138E+03  2.83130E+04  2.48354E+04  5.76995E+03  4.21216E+04
 -2.16087E+04  3.69874E+04 -3.28611E+04  1.20074E+04 -2.31290E+04 -1.16757E+04 -5.01776E+03 -1.41746E+04
  1.00982E+03 -2.44048E+03 -9.15131E+03  8.75317E+03 -2.30583E+04  5.02322E+03 -2.03550E+04 -1.17204E+04
 -1.26358E+04 -2.49896E+04  5.64617E+03 -3.08400E+04  1.85444E+04 -1.90467E+04  2.44981E+04 -3.59791E+03
  1.67775E+04  1.64131E+04 -1.08699E+03  2.51631E+04 -1.89766E+04  1.32914E+04 -2.52926E+04 -6.70630E+03
 -1.82376E+04 -2.22989E+04 -2.60978E+03 -2.76191E+04  1.27813E+04 -2.56164E+04  2.44038E+04 -1.32069E+04
  2.32296E+04  2.77027E+02  1.74359E+04  5.63845E+03  8.31136E+03  2.32706E+03  1.31276E+04 -2.72777E+03
  2.38712E+04  3.79797E+03  2.83386E+04  1.87575E+04  1.75095E+04  4.00228E+04 -2.12188E+03  4.69589E+04
 -2.61116E+04  4.02679E+04 -4.23201E+04  2.25171E+04 -4.88114E+04 -5.32974E+03 -3.94401E+04 -2.80181E+04
 -1.33328E+04 -4.10513E+04  1.57574E+04 -3.50222E+04  3.06914E+04 -1.58606E+04  2.51155E+04  9.53698E+03
  7.61568E+03  2.03092E+04 -1.32195E+04  1.52690E+04 -2.02491E+04  2.55534E+03 -1.39129E+04 -1.24700E+04
 -2.09613E+03 -2.07365E+04  1.14577E+04 -1.41272E+04  1.32202E+04  4.81302E+01  4.51313E+03  1.02523E+04
 -9.70004E+03  4.11227E+03 -1.08566E+04 -7.20944E+03 -1.55364E+03 -1.91768E+04  1.24110E+04 -2.17831E+04
  2.47989E+04 -1.22513E+04  2.97139E+04  4.11802E+03  2.63999E+04  1.96424E+04  1.27926E+04  3.11428E+04
 -6.65009E+03  3.36332E+04 -2.19067E+04  2.06726E+04 -2.57754E+04  4.59660E+03 -1.67597E+04 -7.39643E+03
 -5.84152E+03 -9.30457E+03  5.06848E+02  6.80178E+02 -3.86877E+03  3.83824E+03 -8.61740E+03  6.21399E+03
 -1.59051E+04  8.63175E+02 -1.70407E+04 -1.21828E+04 -8.31677E+03 -2.10408E+04  6.66827E+03 -1.71420E+04
  1.42020E+04 -6.44968E+03  1.12096E+04  5.47619E+03 -3.83138E+02  5.53168E+03 -9.79719E+03 -9.27754E+02
 -7.60767E+03 -1.13907E+04 -1.53080E+03 -1.70508E+04  1.03828E+04 -1.65484E+04  2.12988E+04 -9.51124E+03
  2.63583E+04  4.10132E+03  1.78792E+04  1.58513E+04  3.47477E+03  2.01468E+04 -1.13066E+04  1.72097E+04
 -1.66392E+04  5.24553E+03 -6.12410E+03 -2.31311E+03  3.16243E+03 -3.90108E+03  1.12990E+04 -1.26427E+03
  7.54169E+03  9.83701E+03  9.19681E+02  1.38882E+04 -1.16762E+04  1.42229E+04 -1.97502E+04  2.08779E+03
 -1.11795E+04 -8.61837E+03  2.11888E+02 -1.21192E+04  9.28922E+03 -8.31421E+03  9.92085E+03  3.33526E+03
  3.61818E+03  1.15174E+04 -8.34370E+03  1.43195E+04 -1.51938E+04  7.50957E+03 -1.53712E+04 -5.11513E+03
 -9.87021E+03 -1.85403E+04  5.36669E+03 -2.13178E+04  1.97423E+04 -1.42816E+04  2.00250E+04  4.06721E+03
  1.23650E+04  1.42317E+04 -1.53261E+03  1.93853E+04 -1.24681E+04  1.05508E+04 -1.33616E+04  4.80267E+02
 -1.16986E+04 -1.16374E+04 -3.43420E+03 -1.44034E+04  7.29479E+03 -1.00930E+04  1.00229E+04 -4.38445E+03
  4.31581E+03  1.71822E+03 -2.08217E+03  5.29006E+02 -2.29781E+03 -4.82311E+03  3.67077E+03 -8.03703E+03
  1.41407E+04 -6.10290E+03  1.88781E+04  1.78175E+03  1.81409E+04  1.31533E+04  1.23813E+04  2.31626E+04
 -5.06252E+03  2.92483E+04 -2.24882E+04  2.18428E+04 -2.99292E+04  3.73281E+03 -2.43615E+04 -9.84246E+03
 -1.33273E+04 -1.81688E+04 -9.43901E+02 -1.85309E+04  4.00128E+03 -9.37534E+03  6.00882E+03 -5.31123E+03
  4.28422E+03 -3.28693E+03  2.89537E+03 -4.13930E+03  7.55954E+03 -4.96165E+03  1.00540E+04 -2.74382E+03
  1.53416E+04  1.88912E+03  7.37478E+03  1.04936E+04 -2.76123E+03  1.24903E+04 -1.34098E+04  1.02319E+04
 -1.86608E+04 -3.00675E+03 -1.16299E+04 -1.02157E+04  4.99011E+01 -2.00601E+04  1.10280E+04 -1.99464E+04
  1.93450E+04 -1.03364E+04  2.28451E+04  2.74022E+03  1.50139E+04  1.66160E+04  2.53216E+03  2.05374E+04
 -9.10342E+03  1.72103E+04 -1.17663E+04  6.44609E+03 -6.97901E+03 -3.92914E+03 -4.01866E+03 -2.94752E+03
 -7.55531E+02 -2.98372E+02 -1.74578E+03  3.18258E+03 -5.36465E+03  2.73012E+03 -1.07883E+04 -2.37757E+03
 -8.29743E+03 -1.25838E+04 -1.80970E+03 -1.75001E+04  1.19764E+04 -1.52332E+04  1.62841E+04 -5.01544E+03
  1.85422E+04  9.15974E+03  9.07610E+03  1.67473E+04 -4.92308E+03  1.71249E+04 -1.29803E+04  1.30150E+04
 -1.79996E+04  1.77771E+03 -1.39497E+04 -1.22683E+04 -9.89956E+02 -1.45717E+04  7.68444E+03 -1.27235E+04
  1.11435E+04 -3.26504E+03  8.36354E+03  4.53543E+03  3.07443E+03  4.23333E+03  2.31979E+03  3.29729E+03
  2.63003E+03  2.00755E+03  4.46665E+03  1.18382E+03  5.15857E+03  5.15348E+03  6.22897E+03  9.14933E+03
 -2.18132E+03  1.34903E+04 -1.35143E+04  1.38726E+04 -1.91379E+04  4.29626E+03 -1.93812E+04 -8.96180E+03
 -9.34178E+03 -1.82443E+04  2.89807E+03 -1.84007E+04  1.15634E+04 -1.39793E+04  1.49799E+04 -1.77398E+03
  1.24605E+04  7.65118E+03  2.79186E+03  1.13169E+04 -6.13794E+03  6.97457E+03 -7.50565E+03 -6.16853E+02
 -2.58814E+03 -1.01184E+04  3.77850E+03 -1.00131E+04  9.15057E+03 -3.61890E+03  6.81642E+03  8.27583E+02
  2.17880E+03  4.15305E+03  2.75791E+03  2.73659E+03 -3.78698E+02  1.93214E+03  1.80575E+03 -1.19101E+03
  4.16482E+03 -7.69836E+02  8.07266E+03  4.02663E+03  3.79245E+03  1.14049E+04 -2.01317E+03  1.61106E+04
 -7.36381E+03  9.46723E+03 -1.14395E+04  2.55213E+03 -1.18380E+04 -5.02152E+03 -3.96920E+03 -6.79927E+03
  2.31231E+02 -9.53739E+03  7.03086E+03 -2.51447E+03  2.95269E+03  4.23840E+03 -2.34990E+03  5.66025E+03
 -8.95540E+03  3.73866E+03 -8.97971E+03 -3.89920E+03 -4.92763E+03 -1.08737E+04  7.51665E+02 -1.06433E+04
  6.67048E+03 -6.04814E+03  8.37074E+03 -4.03929E+02  4.61969E+03  3.04960E+03  1.26013E+03  5.45844E+03
 -3.89072E+03  2.50233E+03 -5.19907E+03 -4.41638E+03  3.93382E+02 -8.85407E+03  1.02223E+04 -7.03480E+03
  1.18697E+04  9.36852E+02  1.17906E+04  9.20374E+03  2.98083E+03  1.54700E+04 -4.70301E+03  1.19930E+04
 -9.23020E+03  5.30125E+03 -1.33655E+04 -1.36511E+03 -6.16662E+03 -9.21306E+03  4.46946E+02 -9.07552E+03
  8.13418E+03 -2.50726E+03  5.40201E+03  3.68941E+03  1.44791E+03  7.83633E+03 -7.89910E+01  8.84926E+03
 -2.66038E+03  3.83660E+03 -3.47036E+03  1.77892E+03 -4.53957E+03 -1.13680E+03 -1.43197E+03  3.20618E+03
 -3.20574E+03  7.06091E+03 -9.27454E+03  3.33564E+03 -1.28827E+04  2.91730E+02 -1.49324E+04 -7.33004E+03
 -7.32421E+03 -1.68104E+04  3.36650E+03 -2.12023E+04  1.43133E+04 -1.46006E+04  2.04752E+04 -4.58973E+03
  1.94408E+04  4.20676E+03  1.14830E+04  1.23167E+04  1.99685E+03  1.37648E+04 -3.04489E+03  1.02991E+04
 -8.34504E+03  3.67103E+03 -5.49592E+03  3.19822E+02 -7.60310E+02 -2.06894E+03 -3.82273E+02  6.35056E+02
 -3.14826E+03  1.06883E+03 -2.49017E+03 -3.89809E+02 -8.33395E+02 -3.30115E+03  2.63677E+02 -4.78821E+03
  7.35549E+03 -4.24766E+03  7.61868E+03  8.92412E+02  8.33047E+03  8.62386E+03  4.99255E+03  1.61192E+04
 -3.79776E+03  1.57871E+04 -1.44173E+04  9.23747E+03 -1.90474E+04 -2.11068E+03 -1.30051E+04 -9.37873E+03
 -5.64029E+03 -1.50890E+04  5.31675E+03 -1.25427E+04  9.18616E+03 -7.60284E+03  9.04443E+03 -1.48970E+02
  5.51350E+03  2.83488E+03 -1.94193E+03  5.03468E+03 -1.34517E+03 -9.24304E+02 -1.73800E+02 -2.16469E+03
  3.53091E+03 -6.32612E+02  6.00141E+03  3.83005E+02  5.26658E+03  7.43013E+03  3.68233E+02  9.28263E+03
 -6.74360E+03  4.82557E+03 -1.00830E+04 -1.29914E+03 -7.48383E+03 -6.13363E+03 -1.70874E+03 -1.38652E+04
  9.30569E+03 -8.50307E+03  1.17325E+04 -2.92438E+03  1.25756E+04  3.88982E+03  6.73498E+03  9.25470E+03
  1.45946E+03  8.87483E+03 -2.81760E+03  6.95920E+03 -6.02050E+03  3.20629E+03 -5.86331E+03  9.86026E+02
 -3.59313E+03  1.53065E+03 -2.53071E+03  1.37854E+03 -4.57781E+03  3.77315E+02 -8.16731E+03 -2.20449E+03
 -7.60714E+03 -5.20400E+03  2.28517E+02 -1.07409E+04  5.33154E+03 -8.95751E+03  7.84624E+03 -5.64187E+03
  8.82926E+03  2.46247E+03  5.78703E+03  5.78241E+03 -6.38899E+02  9.78530E+03 -6.96224E+03  6.84998E+03
