 $NMID ID='MM_0lb_SNR200_9hz_g55_18.RAW', FMTDAT='(8E13.5)'
 TRAMP=1., VOLUME=1. $END
  3.09218E+05 -9.52152E+01  3.37254E+05  2.48343E+05  8.64402E+04  3.38245E+05 -1.32844E+05  2.51326E+05
 -1.90678E+05  8.41627E+04 -1.11569E+05 -3.23846E+04  4.31900E+02 -5.09554E+04  5.35486E+04  4.91028E+02
  3.46711E+04  5.29246E+04 -1.81980E+04  7.46060E+04 -6.19405E+04  6.47523E+04 -8.43123E+04  3.45338E+04
 -8.13839E+04 -1.41590E+04 -5.97305E+04 -5.29771E+04 -1.48502E+04 -7.19577E+04  2.97442E+04 -4.67039E+04
  4.11799E+04  4.83118E+03  1.64198E+04  4.86229E+04 -3.34848E+04  4.91373E+04 -6.91591E+04  7.30172E+02
 -5.53872E+04 -5.64033E+04 -6.94452E+03 -7.98724E+04  3.37696E+04 -5.60067E+04  4.96135E+04 -1.78039E+04
  4.58079E+04  1.19355E+04  3.38010E+04  2.59476E+04  1.54042E+04  3.08322E+04 -5.63783E+03  2.65151E+04
 -2.28404E+04  1.26469E+04 -1.62868E+04 -5.58197E+03  7.81476E+03 -7.84687E+03  2.33828E+04  1.42432E+04
  8.59142E+03  3.73008E+04 -3.34139E+04  3.67622E+04 -6.58142E+04  1.62002E+03 -5.98596E+04 -4.48028E+04
 -1.16214E+04 -6.54027E+04  4.25415E+04 -4.67244E+04  6.17063E+04 -2.45783E+03  3.58232E+04  3.48560E+04
 -4.92787E+03  3.99324E+04 -3.27019E+04  1.95355E+04 -3.21686E+04 -5.00070E+03 -1.90141E+04 -1.17765E+04
 -9.18272E+03 -1.58751E+04 -7.62616E+02 -2.06490E+04  9.23215E+03 -2.39064E+04  1.67903E+04 -1.26093E+04
  1.04530E+04  6.16507E+03 -1.14299E+04  1.16549E+04 -2.29942E+04 -7.46239E+03 -9.82495E+03 -3.82112E+04
  2.58721E+04 -4.76218E+04  5.15425E+04 -2.08508E+04  4.76146E+04  2.12962E+04  1.69309E+04  4.82448E+04
 -1.66228E+04  3.67110E+04 -2.69764E+04  2.44340E+03 -1.12740E+04 -2.88935E+04  2.15159E+04 -3.65684E+04
  4.53434E+04 -1.06916E+04  4.03399E+04  2.49689E+04  2.15559E+04  5.21615E+04 -7.99398E+03  5.71974E+04
 -3.65746E+04  3.90407E+04 -4.83716E+04  1.22336E+04 -4.89426E+04 -1.75674E+04 -2.52696E+04 -4.20506E+04
  7.79934E+03 -4.35474E+04  3.45860E+04 -1.72039E+04  3.23942E+04  1.13447E+04  5.13843E+03  2.08551E+04
 -1.50060E+04  9.35745E+03 -1.11639E+04 -6.77750E+03  5.25595E+03 -1.14778E+04  1.94803E+04  7.00779E+03
  1.57322E+04  2.27067E+04 -4.90477E+03  2.61103E+04 -2.26328E+04  1.42210E+04 -3.24334E+04 -1.27290E+03
 -2.62756E+04 -1.90503E+04 -1.15383E+04 -2.54801E+04  4.93027E+03 -2.77272E+04  2.06577E+04 -2.35400E+04
  3.25474E+04 -1.46429E+04  3.95342E+04  4.63413E+03  2.80340E+04  2.69704E+04  5.89577E+03  4.26355E+04
 -2.13924E+04  3.29703E+04 -3.14694E+04  1.30094E+04 -2.30947E+04 -1.04120E+04 -5.50991E+03 -1.34176E+04
  2.36765E+02 -7.76680E+02 -8.95290E+03  7.86738E+03 -2.01032E+04  5.02850E+03 -2.18544E+04 -9.76777E+03
 -1.30598E+04 -2.29992E+04  6.45306E+03 -2.84016E+04  1.83396E+04 -1.96964E+04  2.40075E+04 -7.50252E+02
  1.41962E+04  1.53534E+04 -1.24997E+03  2.35271E+04 -1.58162E+04  1.42144E+04 -2.43381E+04 -7.31760E+03
 -1.76373E+04 -2.14747E+04 -2.04960E+03 -2.89021E+04  1.09832E+04 -2.27606E+04  2.30687E+04 -1.30627E+04
  2.23006E+04 -2.05643E+03  1.65362E+04  4.32140E+03  9.37321E+03  3.21541E+03  1.16722E+04 -1.45731E+03
  2.38215E+04  3.45301E+03  2.72009E+04  1.72503E+04  1.74307E+04  3.73664E+04 -1.36164E+03  4.53392E+04
 -2.60950E+04  3.85238E+04 -4.22473E+04  1.94554E+04 -4.49346E+04 -4.31885E+03 -3.83642E+04 -2.61459E+04
 -1.39702E+04 -3.84342E+04  1.57534E+04 -3.35970E+04  2.73866E+04 -1.45801E+04  2.48055E+04  9.59477E+03
  7.47360E+03  1.92211E+04 -9.96542E+03  1.60145E+04 -2.08153E+04  4.62638E+03 -1.72777E+04 -1.20986E+04
 -3.86615E+02 -2.00674E+04  1.17691E+04 -1.44013E+04  1.32740E+04 -9.37771E+02  3.87415E+03  8.58240E+03
 -1.10625E+04  3.06169E+03 -1.07247E+04 -5.12166E+03 -4.94760E+02 -1.84887E+04  1.26019E+04 -2.03953E+04
  2.21783E+04 -1.12634E+04  2.71596E+04  5.74418E+03  2.42954E+04  1.92743E+04  1.10580E+04  2.75000E+04
 -3.89090E+03  3.25000E+04 -2.15857E+04  1.99748E+04 -2.16401E+04  4.24666E+03 -1.62247E+04 -4.58113E+03
 -6.77692E+03 -6.70575E+03 -1.08276E+03 -4.84535E+02 -2.99270E+03  3.73799E+03 -8.50360E+03  4.83717E+03
 -1.41496E+04 -1.61802E+03 -1.46462E+04 -1.31765E+04 -7.56124E+03 -2.09365E+04  4.90760E+03 -1.77481E+04
  1.33727E+04 -5.74375E+03  8.66668E+03  3.36797E+03  4.19145E+02  5.83466E+03 -7.65985E+03 -6.38178E+00
 -7.83780E+03 -1.08701E+04  9.39982E+02 -1.69927E+04  9.64647E+03 -1.64813E+04  2.20602E+04 -1.05671E+04
  2.60780E+04  1.44522E+03  1.80792E+04  1.65204E+04  3.78098E+03  1.94863E+04 -1.09199E+04  1.65151E+04
 -1.19553E+04  3.98513E+03 -6.42806E+03 -3.64564E+03  1.51628E+03 -5.01840E+03  8.51114E+03 -3.90709E+02
  6.63557E+03  6.24650E+03 -7.36751E+02  1.51806E+04 -9.68839E+03  1.29002E+04 -1.57979E+04  4.10392E+03
 -1.10560E+04 -1.03549E+04 -7.21027E+01 -1.20219E+04  9.44070E+03 -6.97298E+03  9.17863E+03  4.25528E+03
  2.54297E+03  1.12056E+04 -8.51218E+03  1.38253E+04 -1.37228E+04  5.74805E+03 -1.49078E+04 -6.10245E+03
 -8.07589E+03 -1.83514E+04  5.91259E+03 -1.83124E+04  1.65413E+04 -1.25675E+04  1.94909E+04  2.86281E+03
  9.35388E+03  1.42302E+04 -3.16434E+03  1.63810E+04 -1.34866E+04  8.01297E+03 -1.48828E+04 -1.50583E+03
 -1.29795E+04 -1.15312E+04 -1.37663E+03 -1.17678E+04  6.65547E+03 -9.99906E+03  8.75441E+03 -5.58253E+03
  4.37205E+03  4.51777E+03  3.81980E+02  1.40213E+03 -9.71350E+02 -3.82115E+03  3.04239E+03 -7.61513E+03
  1.26122E+04 -3.04197E+03  1.59312E+04  1.63500E+03  1.72947E+04  1.17874E+04  1.03721E+04  2.05572E+04
 -4.97658E+03  2.37340E+04 -2.03874E+04  1.71799E+04 -2.66954E+04  2.97885E+03 -2.12865E+04 -9.76399E+03
 -1.14689E+04 -1.73098E+04 -8.66363E+02 -1.56866E+04  4.52811E+03 -8.82241E+03  6.14438E+03 -5.57824E+03
  4.40469E+03 -3.63092E+03  3.53824E+03 -2.83249E+03  6.67190E+03 -3.13956E+03  7.68456E+03 -1.34258E+03
  1.22313E+04  3.26696E+03  6.19957E+03  1.12863E+04 -2.31873E+03  1.21389E+04 -1.18659E+04  8.89950E+03
 -1.61695E+04 -1.90614E+03 -9.40372E+03 -1.04734E+04 -2.99731E+02 -1.76092E+04  7.67393E+03 -1.55604E+04
  1.72699E+04 -9.06987E+03  1.83792E+04  1.33532E+03  1.46423E+04  1.45702E+04  3.69789E+03  1.74465E+04
 -6.57897E+03  1.38724E+04 -9.02898E+03  6.34872E+03 -7.02092E+03 -3.41951E+03 -3.80694E+03 -2.72512E+03
 -2.61919E+03  9.54529E+02 -1.89057E+03  4.04038E+03 -6.01614E+03  1.17918E+03 -1.11709E+04 -2.33233E+03
 -6.50233E+03 -9.48794E+03 -2.89980E+03 -1.60336E+04  8.58024E+03 -1.46882E+04  1.50941E+04 -5.48068E+03
  1.59724E+04  6.89347E+03  8.46536E+03  1.51430E+04 -3.78248E+03  1.59334E+04 -1.06130E+04  9.70385E+03
 -1.48327E+04  6.09575E+01 -1.18711E+04 -1.01981E+04 -7.09419E+02 -1.30196E+04  5.27462E+03 -9.76691E+03
  8.79292E+03 -3.67566E+03  6.56483E+03  1.24238E+03  2.53476E+03  5.04542E+03  1.24172E+03  1.66380E+03
  2.88715E+03  2.48593E+03  2.50477E+03  2.58584E+03  5.08506E+03  5.63338E+03  5.13462E+03  8.52260E+03
 -1.49018E+03  1.31556E+04 -1.28667E+04  1.13135E+04 -1.45304E+04  5.24043E+03 -1.51665E+04 -8.37220E+03
 -8.94504E+03 -1.64917E+04  2.35322E+03 -1.81313E+04  1.09626E+04 -1.18254E+04  1.20303E+04 -2.28922E+03
  1.00324E+04  5.42896E+03  2.78688E+03  1.08731E+04 -5.21983E+03  4.35207E+03 -6.53787E+03  3.86081E+02
 -2.44851E+03 -7.99660E+03  2.05461E+03 -6.77058E+03  6.60815E+03 -3.84187E+03  8.43610E+03  1.81247E+03
  4.92583E+03  1.66372E+03  9.70965E+02  4.12289E+03 -3.36879E+03  3.55302E+02  9.35405E+02 -1.64292E+03
  2.54664E+03  1.56153E+03  4.64400E+03  3.92454E+03  3.97879E+03  9.15775E+03 -1.52427E+03  1.24115E+04
 -7.61797E+03  7.64304E+03 -9.80625E+03  8.80353E+02 -8.83984E+03 -3.03809E+03 -3.32494E+03 -5.88410E+03
 -3.58176E+02 -7.15033E+03  4.60708E+03 -3.56066E+03  2.64650E+03  3.71681E+03 -1.83390E+03  4.54331E+03
 -5.81406E+03  4.63893E+03 -6.09241E+03 -3.22508E+03 -4.55766E+03 -7.01504E+03  1.41386E+03 -8.44464E+03
  5.69237E+03 -4.99478E+03  7.61946E+03 -1.03546E+03  4.59374E+03  2.07730E+03 -1.57272E+02  4.63395E+03
 -2.24351E+03  2.19736E+03 -2.47259E+03 -4.09436E+03  1.85843E+03 -6.21324E+03  7.97430E+03 -4.99095E+03
  1.03531E+04  9.23922E+02  9.12406E+03  6.74504E+03  2.45816E+03  1.09855E+04 -3.35680E+03  8.87643E+03
 -7.04965E+03  4.36570E+03 -8.50242E+03 -1.55260E+03 -3.94694E+03 -7.44225E+03  2.22263E+03 -6.14828E+03
  5.88795E+03 -3.04796E+03  3.70894E+03  2.00644E+03  1.45280E+03  5.60775E+03 -8.09519E+02  5.30405E+03
 -1.48834E+03  4.04226E+03 -3.12640E+03  3.85622E+02 -1.25967E+03  2.58192E+03 -1.04969E+03  2.32233E+03
 -4.04268E+03  3.50309E+03 -8.46520E+03  5.14849E+03 -1.05463E+04  2.07509E+02 -1.11495E+04 -7.36262E+03
 -4.81340E+03 -1.34238E+04  2.18986E+03 -1.57526E+04  9.10554E+03 -1.38729E+04  1.33898E+04 -4.51300E+03
  1.45509E+04  1.40787E+03  9.34372E+03  7.59544E+03  9.91383E+02  1.00567E+04 -4.75486E+03  8.58022E+03
 -6.87152E+03  3.15766E+03 -2.37237E+03 -2.12497E+03 -1.13037E+03 -2.82373E+02 -6.28568E+01 -3.64839E+01
 -1.85817E+03 -6.96328E+02 -1.93322E+03 -1.30861E+02 -2.04514E+03 -1.24936E+03  1.80594E+03 -3.59403E+03
  4.08038E+03 -4.03300E+03  6.55593E+03 -2.33221E+02  7.64090E+03  4.75494E+03  2.18058E+03  1.04659E+04
 -4.44965E+03  1.38749E+04 -1.11021E+04  6.01353E+03 -1.30476E+04 -1.39116E+03 -1.01868E+04 -8.16409E+03
 -5.70603E+03 -1.10700E+04  2.48610E+03 -1.14482E+04  7.88293E+03 -5.42206E+03  8.23943E+03  1.54702E+03
  4.42180E+03  3.78191E+03 -1.19898E+03  2.44921E+03 -3.09697E+03 -7.39841E+02  7.84751E+02 -3.94908E+03
  2.82960E+03 -2.91794E+03  5.89629E+03 -1.84676E+02  2.99636E+03  4.50096E+03  1.16391E+03  5.24798E+03
 -5.53351E+03  4.26709E+03 -7.14662E+03  5.99661E+01 -6.78094E+03 -5.96584E+03 -1.74071E+03 -8.51405E+03
  5.16181E+03 -7.01867E+03  8.72872E+03 -1.68865E+03  1.00257E+04  1.98393E+03  4.58395E+03  7.56995E+03
  1.38140E+03  7.01852E+03 -3.37177E+03  5.65281E+03 -3.73609E+03  3.38159E+03 -4.13973E+03  6.58047E+02
 -2.75434E+03  6.51517E+02 -2.54188E+03  1.63057E+03 -4.09275E+03  2.74331E+03 -6.10716E+03  1.21079E+02
 -6.15702E+03 -4.06890E+03 -2.65930E+02 -8.79641E+03  3.04475E+03 -7.09746E+03  6.58556E+03 -4.20497E+03
  6.73320E+03  7.66929E+01  3.28601E+03  4.86854E+03 -7.91106E+02  6.64584E+03 -6.47806E+03  4.86716E+03
