 $NMID ID='MM_0lb_SNR200_17hz_g55_90.RAW', FMTDAT='(8E13.5)'
 TRAMP=1., VOLUME=1. $END
  3.09638E+05  7.82901E+02  3.38002E+05  2.50370E+05  8.30353E+04  3.38125E+05 -1.32149E+05  2.51809E+05
 -1.90707E+05  8.20640E+04 -1.11242E+05 -3.18739E+04  5.39814E+02 -5.07493E+04  5.44699E+04  3.80446E+02
  3.57254E+04  5.26680E+04 -1.52382E+04  7.42892E+04 -6.07557E+04  6.33288E+04 -8.47236E+04  3.20774E+04
 -8.04786E+04 -1.04046E+04 -5.72376E+04 -5.08268E+04 -1.53701E+04 -7.04240E+04  2.70541E+04 -4.58094E+04
  3.92986E+04  4.08749E+03  1.49513E+04  4.74017E+04 -3.41922E+04  4.62980E+04 -6.68995E+04 -1.03562E+01
 -5.22392E+04 -5.67454E+04 -6.51148E+03 -7.61453E+04  3.30168E+04 -5.38747E+04  4.73101E+04 -1.69148E+04
  4.17458E+04  1.21191E+04  3.21979E+04  2.59571E+04  1.53940E+04  2.95806E+04 -5.83150E+03  2.63393E+04
 -2.21680E+04  1.24549E+04 -1.83114E+04 -4.95691E+03  4.47409E+03 -7.53856E+03  2.24874E+04  1.23738E+04
  6.70178E+03  3.46780E+04 -3.18026E+04  3.54557E+04 -6.23904E+04  1.35478E+03 -5.57394E+04 -4.16776E+04
 -1.26660E+04 -6.22393E+04  3.87183E+04 -4.42150E+04  5.76330E+04 -3.36862E+03  3.30987E+04  3.08031E+04
 -6.95872E+03  3.46294E+04 -2.88806E+04  1.38904E+04 -2.94392E+04 -5.42871E+03 -1.66373E+04 -9.24009E+03
 -7.97262E+03 -1.20136E+04 -1.68930E+02 -1.84032E+04  7.41395E+03 -2.25778E+04  1.46826E+04 -1.32255E+04
  1.15905E+04  3.93937E+03 -7.95667E+03  1.27826E+04 -2.00962E+04 -4.48261E+03 -8.04779E+03 -3.27226E+04
  2.13378E+04 -4.17438E+04  4.66842E+04 -2.06226E+04  4.32779E+04  1.89374E+04  1.63644E+04  4.26156E+04
 -1.59717E+04  3.30522E+04 -2.40839E+04  1.04417E+02 -9.22948E+03 -2.72465E+04  2.15362E+04 -3.29764E+04
  3.99911E+04 -8.24983E+03  3.43044E+04  2.33064E+04  1.72187E+04  4.58654E+04 -8.03704E+03  4.80164E+04
 -2.95910E+04  3.08385E+04 -4.05932E+04  8.06555E+03 -4.05667E+04 -1.55411E+04 -2.32085E+04 -3.68344E+04
  6.06439E+03 -3.74599E+04  3.16588E+04 -1.46248E+04  2.80837E+04  1.11128E+04  1.25372E+03  1.82095E+04
 -1.33169E+04  7.90623E+03 -9.89487E+03 -7.01707E+03  5.72615E+03 -9.51268E+03  1.83778E+04  6.73392E+03
  1.42056E+04  2.22060E+04 -7.04486E+03  2.33684E+04 -2.16153E+04  1.07483E+04 -2.68720E+04 -4.36327E+03
 -1.94466E+04 -1.60294E+04 -7.45277E+03 -1.94847E+04  2.81751E+03 -1.73771E+04  1.28429E+04 -1.78012E+04
  2.37665E+04 -1.22959E+04  3.06578E+04  5.92631E+02  2.36689E+04  1.83727E+04  3.66038E+03  3.44791E+04
 -1.80042E+04  2.89706E+04 -2.77201E+04  1.05347E+04 -2.04286E+04 -9.64669E+03 -4.01771E+03 -1.30645E+04
  2.10471E+03 -3.30444E+03 -3.90240E+03  6.58593E+03 -1.39236E+04  4.81308E+03 -1.57986E+04 -5.46056E+03
 -8.88329E+03 -1.79172E+04  4.78903E+03 -2.19210E+04  1.43250E+04 -1.63135E+04  1.53855E+04 -1.41002E+03
  1.06955E+04  1.20541E+04 -2.10362E+03  1.75993E+04 -1.25511E+04  1.00350E+04 -1.71466E+04 -4.77946E+03
 -1.28451E+04 -1.55279E+04 -2.14713E+03 -2.10505E+04  8.69466E+03 -1.69716E+04  1.72520E+04 -7.30261E+03
  1.54770E+04  6.44864E+02  1.15950E+04  3.70085E+03  4.88878E+03  7.30951E+02  8.32385E+03 -2.96135E+03
  1.65309E+04  1.71962E+03  1.65840E+04  1.35884E+04  1.10510E+04  2.81692E+04 -3.19406E+03  3.06537E+04
 -1.71952E+04  2.46305E+04 -2.87112E+04  1.19551E+04 -2.93252E+04 -2.38753E+03 -2.43320E+04 -1.67042E+04
 -1.19028E+04 -2.35572E+04  7.08137E+03 -2.21519E+04  1.87583E+04 -1.22097E+04  1.81508E+04  4.27915E+03
  6.83226E+03  1.28572E+04 -8.90557E+03  1.28785E+04 -1.43813E+04  2.62192E+03 -1.14381E+04 -8.46744E+03
  5.31046E+01 -1.30143E+04  5.88126E+03 -9.80518E+03  8.73827E+03 -1.13597E+03  2.09711E+03  5.91953E+03
 -7.30461E+03  1.12903E+03 -5.26803E+03 -5.94464E+03 -1.10607E+02 -1.09251E+04  8.11104E+03 -1.25863E+04
  1.43604E+04 -5.99571E+03  1.49597E+04  2.91756E+03  1.22843E+04  1.15849E+04  6.76125E+03  1.65273E+04
 -1.61381E+03  1.96916E+04 -1.19135E+04  1.16616E+04 -1.26618E+04  2.47217E+03 -9.42834E+03 -1.89663E+03
 -4.95642E+03 -4.15203E+03 -4.95976E+02  1.01212E+03 -1.05846E+03  2.63778E+03 -4.26731E+03  3.58950E+03
 -9.90997E+03 -1.20120E+03 -9.74081E+03 -9.19420E+03 -4.29418E+03 -1.34811E+04  4.41934E+03 -1.08543E+04
  8.64262E+03 -4.69877E+03  5.76166E+03  3.26514E+03  1.64151E+03  5.36279E+03 -4.32863E+03  9.56524E+02
 -4.56772E+03 -6.03845E+03 -5.63795E+02 -9.38559E+03  4.60888E+03 -1.03078E+04  1.18235E+04 -4.86891E+03
  1.39897E+04  8.32750E+02  9.75091E+03  6.76336E+03  2.66141E+03  1.02291E+04 -6.47679E+03  9.93895E+03
 -6.58956E+03  2.88626E+03 -5.02600E+03 -2.21961E+03  1.93771E+03 -2.60978E+03  4.88197E+03 -1.75213E+03
  5.52619E+03  3.72884E+03  1.19191E+03  7.43874E+03 -5.32445E+03  7.07216E+03 -9.42008E+03  1.76708E+03
 -6.63737E+03 -4.33733E+03  2.56985E+02 -7.79942E+03  5.51523E+03 -2.77448E+03  4.49595E+03  8.81743E+02
  7.03849E+02  5.03796E+03 -4.30407E+03  6.26201E+03 -5.82604E+03  2.59033E+03 -5.28371E+03 -1.65436E+03
 -4.71730E+03 -7.68012E+03  2.60080E+03 -9.17323E+03  7.80269E+03 -5.75696E+03  8.61774E+03  1.55133E+03
  4.83878E+03  6.75396E+03  1.25336E+02  7.28550E+03 -6.16284E+03  4.73754E+03 -6.20192E+03 -7.54988E+02
 -7.53631E+03 -5.57892E+03 -2.62144E+03 -6.59497E+03  3.27611E+03 -5.14078E+03  2.60532E+03 -3.43368E+03
  2.64588E+03  4.06182E+02  9.36457E+02  1.70099E+03 -7.65376E+02 -1.19151E+03  5.61672E+02 -3.29441E+03
  5.58122E+03 -1.22777E+03  6.13989E+03  6.93809E+02  7.11578E+03  4.35509E+03  4.60587E+03  9.35685E+03
 -1.70426E+03  1.01811E+04 -1.01625E+04  8.45315E+03 -1.23832E+04  2.15510E+03 -9.38719E+03 -4.05103E+03
 -5.28104E+03 -7.91167E+03 -4.46819E+02 -6.44934E+03  2.35647E+03 -3.38148E+03  3.07424E+03 -1.61619E+03
  1.01274E+03 -1.06025E+03  1.90552E+03 -3.76992E+03  4.36799E+03 -9.87824E+02  4.08098E+03  1.54928E+02
  6.15439E+03  1.01105E+02  1.82037E+03  4.16319E+03 -1.44337E+03  2.88387E+03 -5.57975E+03  4.78229E+03
 -6.01367E+03 -1.28094E+03 -2.71069E+03 -4.23831E+03  1.44653E+02 -6.54640E+03  4.03451E+03 -5.82491E+03
  6.60783E+03 -3.96021E+03  7.13844E+03  5.11859E+02  5.92808E+03  4.96398E+03  2.24517E+03  7.15784E+03
 -2.73777E+03  7.21570E+03 -4.68756E+03  1.81841E+03 -1.34982E+03 -2.27559E+03 -1.07758E+01 -7.62762E+02
 -9.32979E+02  6.88525E+02 -2.06918E+03  2.76268E+03 -2.36209E+03  1.68192E+03 -6.17207E+03  3.78759E+02
 -1.77640E+03 -4.41502E+03  4.89136E+02 -5.01215E+03  3.71058E+03 -5.92950E+03  5.28539E+03 -2.60393E+03
  4.40701E+03  3.69017E+03  2.88108E+03  5.08980E+03 -1.96185E+03  4.77063E+03 -2.76634E+03  3.74198E+03
 -4.49740E+03  9.14988E+02 -5.13690E+03 -5.10473E+03 -5.13124E+02 -4.72221E+03  2.28733E+03 -2.75735E+03
  3.70968E+03 -1.02211E+03  2.00526E+03 -3.78251E+02  8.92954E+02  2.98728E+03  1.53356E+03  3.15084E+02
  2.77390E+03  1.28481E+03 -1.47203E+02  1.78909E+03  1.89987E+03  2.97613E+03  1.54226E+03  2.84486E+03
 -1.69804E+03  4.61487E+03 -4.23431E+03  5.27243E+03 -4.78531E+03  1.43624E+03 -6.41763E+03 -1.49712E+03
 -2.40547E+03 -3.90005E+03  4.87247E+02 -5.11012E+03  1.95809E+03 -3.17662E+03  3.92224E+03 -9.73517E+02
  3.69772E+03  7.58800E+02  9.47498E+02  3.59293E+03 -8.39769E+02  1.97842E+03 -1.24759E+03  3.85057E+02
 -7.93447E+02 -1.54481E+03  1.49046E+03 -2.23566E+03  1.12014E+03 -9.70615E+02  1.42824E+03  4.50905E+02
  5.25316E+02  5.33159E+02 -2.19091E+02  5.67732E+02 -1.17664E+02  8.12854E+02  1.90025E+03 -2.10024E+02
  2.97966E+02 -6.23121E+02  2.79383E+03 -6.91650E+02  5.89359E+02  3.58059E+03 -6.62490E+02  3.18737E+03
 -2.29710E+03  2.20409E+03 -3.74799E+03 -6.03991E+02 -3.58350E+03 -4.32203E+02 -1.40287E+03 -6.66214E+02
  3.58996E+02 -2.76423E+03  1.37451E+03 -1.64679E+03  4.62492E+02  1.52690E+03 -8.92922E+02  1.31529E+03
 -1.95799E+03  1.07380E+03 -2.37503E+03 -1.85414E+03 -1.28317E+03 -2.38210E+03  3.96316E+02 -8.92801E+02
  3.55072E+02 -1.35591E+03  1.23279E+03 -1.87287E+02  2.37431E+03  2.34921E+01  1.68795E+02  1.97022E+03
 -4.02249E+02 -3.14354E+02 -1.11041E+03  5.42366E+02  6.36940E+02 -6.54734E+02  2.04249E+03 -2.60773E+03
  1.24274E+03  3.43703E+02  4.02719E+03  5.91401E+02  6.40230E+02  1.86018E+03  1.46399E+02  2.97771E+03
 -1.14841E+02  1.70042E+02 -2.24352E+03  2.49490E+02 -4.92738E+02 -1.77398E+03 -8.07397E+02 -1.05955E+03
  1.36721E+03 -3.46675E+02  2.57504E+03  1.10392E+03  1.43923E+03  3.07065E+03 -9.08561E+02  1.42227E+03
 -7.57114E+02  2.15826E+03 -7.69080E+02  7.83306E+02  2.83649E+02  1.55013E+03 -9.26233E+02  1.14902E+03
 -1.12789E+03  1.66738E+03 -1.93469E+03  1.31738E+03 -2.13590E+03  8.05068E+02 -3.55731E+03 -8.43865E+01
 -1.43483E+03 -3.94358E+03  1.47588E+03 -5.00393E+03  1.25533E+03 -4.00582E+03  4.17408E+03 -4.31627E+02
  3.18363E+03  2.21538E+02  1.84563E+03  1.16801E+03 -4.85550E+02  1.00084E+03 -1.36617E+03  8.76881E+02
 -1.72849E+03  1.12645E+03 -7.39636E+02  1.94473E+02  1.45789E+02  2.70902E+02  2.64579E+02  3.38156E+01
 -1.10839E+03 -1.03390E+03 -6.71308E+02  2.90773E+02 -1.24143E+01  4.35536E+01  5.63950E+02 -7.05718E+02
  1.42931E+03 -1.37565E+03  3.62621E+02 -1.97155E+02  6.62495E+02  1.90883E+03 -2.02832E+02  1.61667E+03
  3.83501E+01  3.17789E+03 -1.24431E+03  2.83393E+03 -2.17209E+03  2.97910E+02 -1.71498E+03 -1.16020E+03
 -9.93143E+01 -1.27572E+03  8.48773E+02 -1.54633E+03  1.21774E+03 -1.39996E+03  1.07932E+03  1.33682E+00
  8.21203E+02  1.91335E+02 -3.98026E+02  1.75592E+03  1.16100E+03 -8.61895E+02  2.36760E+02 -4.11915E+02
  5.72579E+02 -5.18890E+02  2.39026E+02  7.77447E+02  1.72527E+03  1.20002E+03  8.80997E+02  4.29984E+02
 -3.78713E+02  1.59859E+03 -1.32337E+03  1.54811E+02 -1.35799E+03 -9.81159E+02 -6.50449E+02 -1.70155E+03
  3.31496E+01  2.04347E+02 -1.79052E+02  7.10178E+02  2.27774E+03 -4.45556E+02 -5.91638E+02  1.12760E+03
  7.52142E+02  1.55249E+03 -1.01668E+03  3.58664E+02 -3.10579E+02  9.92058E+02 -6.85579E+02 -1.45439E+02
 -6.69493E+02 -8.43172E+02 -3.82620E+02  8.33133E+02 -1.57040E+03 -5.44068E+01 -3.46166E+02  2.09735E+02
 -6.71300E+02  5.29485E+02 -7.04118E+02 -9.60049E+02  7.96928E+02 -1.51814E+03  1.29681E+03  6.15243E+01
  1.13707E+03  5.55402E+02 -5.04583E+02  8.04239E+02 -1.47060E+02  7.48431E+02 -7.62410E+02  1.29740E+03
