 $NMID ID='MM_0lb_SNR200_10hz_g60_29.RAW', FMTDAT='(8E13.5)'
 TRAMP=1., VOLUME=1. $END
  3.10432E+05  4.63223E+02  3.37646E+05  2.50675E+05  8.52359E+04  3.37933E+05 -1.34080E+05  2.51248E+05
 -1.93248E+05  8.38295E+04 -1.12584E+05 -3.10748E+04 -1.28300E+02 -5.15470E+04  5.31736E+04 -2.27983E+02
  3.52379E+04  5.29075E+04 -1.66445E+04  7.57974E+04 -6.17205E+04  6.49958E+04 -8.52303E+04  3.31976E+04
 -8.27359E+04 -1.17692E+04 -5.76686E+04 -5.25516E+04 -1.48472E+04 -6.99718E+04  2.90441E+04 -4.66717E+04
  4.16305E+04  3.56841E+03  1.80784E+04  4.96413E+04 -3.44592E+04  4.86328E+04 -6.76808E+04 -8.16999E+02
 -5.33832E+04 -5.80226E+04 -6.11117E+03 -7.95401E+04  3.53238E+04 -5.57064E+04  4.93408E+04 -1.91388E+04
  4.55966E+04  1.11877E+04  3.28190E+04  2.58212E+04  1.55583E+04  3.01487E+04 -5.86906E+03  2.75878E+04
 -2.32446E+04  1.11080E+04 -1.89630E+04 -6.89167E+03  7.09757E+03 -6.80862E+03  2.38733E+04  1.42711E+04
  5.85651E+03  3.78084E+04 -3.35621E+04  3.71183E+04 -6.67864E+04  2.64277E+03 -5.98921E+04 -4.29688E+04
 -1.23120E+04 -6.56181E+04  4.09563E+04 -5.02277E+04  6.11678E+04 -2.52765E+03  3.80345E+04  3.67025E+04
 -5.84787E+03  4.04859E+04 -3.14193E+04  1.91165E+04 -3.44489E+04 -3.07294E+03 -1.97887E+04 -1.14542E+04
 -9.11883E+03 -1.45215E+04 -5.01442E+02 -1.98516E+04  7.80770E+03 -2.34228E+04  1.60531E+04 -1.25915E+04
  1.30020E+04  6.68596E+03 -1.06539E+04  1.25797E+04 -2.43611E+04 -6.78436E+03 -8.98815E+03 -3.68490E+04
  2.62360E+04 -4.73615E+04  5.40243E+04 -2.16800E+04  4.96313E+04  2.09191E+04  1.85522E+04  4.62842E+04
 -1.56948E+04  3.58844E+04 -2.82348E+04  3.04233E+03 -1.23720E+04 -3.00998E+04  2.08113E+04 -3.79450E+04
  4.49513E+04 -1.15347E+04  4.04938E+04  2.53094E+04  2.28898E+04  5.20113E+04 -8.33868E+03  5.73545E+04
 -3.46783E+04  3.80543E+04 -4.83443E+04  1.12656E+04 -4.76527E+04 -1.95752E+04 -2.77082E+04 -3.97488E+04
  8.02285E+03 -4.28739E+04  3.47992E+04 -1.56433E+04  3.30398E+04  1.20880E+04  6.23475E+03  2.09104E+04
 -1.37804E+04  1.03414E+04 -1.15305E+04 -7.80315E+03  5.50249E+03 -1.17547E+04  1.90161E+04  4.85047E+03
  1.42848E+04  2.34424E+04 -3.40877E+03  2.80015E+04 -2.21430E+04  1.55251E+04 -3.05952E+04 -1.08511E+03
 -2.61562E+04 -1.93581E+04 -1.03110E+04 -2.35453E+04  5.08592E+03 -2.42093E+04  1.95731E+04 -2.21553E+04
  3.39849E+04 -1.52601E+04  3.77117E+04  4.94107E+03  2.65085E+04  2.48872E+04  3.67924E+03  4.29018E+04
 -2.10024E+04  3.46854E+04 -3.03147E+04  1.07180E+04 -2.10550E+04 -1.03980E+04 -4.87584E+03 -1.28497E+04
  1.18041E+03 -8.16634E+02 -6.74386E+03  8.73607E+03 -2.17962E+04  4.65083E+03 -2.01902E+04 -9.84166E+03
 -1.12546E+04 -2.45419E+04  6.61831E+03 -2.81394E+04  1.77228E+04 -1.83765E+04  2.27506E+04 -1.73879E+03
  1.40545E+04  1.60077E+04 -1.09937E+03  2.31615E+04 -1.60729E+04  1.24175E+04 -2.43215E+04 -4.73321E+03
 -1.87494E+04 -2.02903E+04 -4.63561E+02 -2.80671E+04  1.08166E+04 -2.17731E+04  2.14996E+04 -1.11825E+04
  2.23064E+04 -4.53831E+02  1.54646E+04  3.64113E+03  9.48023E+03  8.76973E+02  1.14374E+04 -7.22058E+02
  2.25167E+04  1.76061E+03  2.47876E+04  1.88572E+04  1.59494E+04  3.79790E+04 -2.20010E+03  4.44240E+04
 -2.51029E+04  3.71685E+04 -4.12689E+04  1.88591E+04 -4.58022E+04 -3.03095E+03 -3.61426E+04 -2.68632E+04
 -1.49122E+04 -3.70589E+04  1.28962E+04 -3.53564E+04  2.86853E+04 -1.58917E+04  2.34529E+04  9.29705E+03
  8.28089E+03  1.94987E+04 -1.37093E+04  1.61171E+04 -1.97647E+04  3.71189E+03 -1.45961E+04 -1.30387E+04
 -3.71051E+01 -1.88883E+04  1.10027E+04 -1.35351E+04  1.30760E+04 -2.79976E+03  4.71073E+03  8.64959E+03
 -9.36567E+03  3.70796E+03 -1.04204E+04 -6.56677E+03 -2.60399E+03 -1.96497E+04  1.16907E+04 -2.00139E+04
  2.30921E+04 -1.19521E+04  2.62585E+04  2.39560E+03  2.24754E+04  1.90318E+04  1.03117E+04  3.01673E+04
 -7.31165E+03  3.10307E+04 -2.15362E+04  1.90971E+04 -2.36279E+04  4.64695E+03 -1.52582E+04 -5.97818E+03
 -6.47051E+03 -8.62825E+03 -1.84664E+03  5.13708E+02 -2.52243E+03  3.75308E+03 -8.82195E+03  5.57028E+03
 -1.38766E+04  7.75053E+02 -1.43951E+04 -1.28339E+04 -6.12121E+03 -1.80255E+04  5.86549E+03 -1.58072E+04
  1.26245E+04 -6.19820E+03  7.90102E+03  4.34827E+03  7.14952E+02  6.39063E+03 -8.82078E+03  5.39635E+02
 -8.86801E+03 -1.03110E+04 -1.13388E+03 -1.70014E+04  9.19954E+03 -1.54550E+04  1.93324E+04 -1.04350E+04
  2.45974E+04  1.70123E+03  1.69187E+04  1.27567E+04  3.45723E+03  1.82771E+04 -7.58667E+03  1.45879E+04
 -1.25594E+04  4.80332E+03 -6.44876E+03 -3.48274E+03  3.31992E+03 -4.55723E+03  7.81511E+03 -1.81855E+03
  7.90455E+03  7.00325E+03  2.56633E+03  1.32630E+04 -9.58493E+03  1.17502E+04 -1.48354E+04  3.49790E+03
 -1.12422E+04 -9.05747E+03 -2.38590E+02 -1.22197E+04  8.77943E+03 -8.08936E+03  8.95426E+03  3.22496E+03
  2.18637E+03  9.42479E+03 -6.75630E+03  1.06927E+04 -1.33459E+04  5.09695E+03 -1.47450E+04 -3.81001E+03
 -8.94568E+03 -1.62508E+04  4.14805E+03 -1.74189E+04  1.52362E+04 -1.07714E+04  1.69276E+04  4.17326E+03
  9.71046E+03  1.33680E+04 -1.22735E+03  1.54325E+04 -1.11984E+04  9.98950E+03 -1.34311E+04 -1.67358E+02
 -1.02340E+04 -1.04726E+04 -1.78678E+03 -1.18695E+04  5.37435E+03 -1.02144E+04  8.17621E+03 -4.12061E+03
  5.43122E+03 -1.89858E+01  5.46912E+02  1.98349E+03 -1.08119E+03 -3.23849E+03  3.69870E+03 -7.42802E+03
  1.17421E+04 -4.62503E+03  1.43751E+04  2.91543E+03  1.57723E+04  9.76462E+03  9.50008E+03  2.06192E+04
 -3.62538E+03  2.35786E+04 -1.96257E+04  1.79068E+04 -2.40112E+04  2.21909E+03 -2.05811E+04 -1.02240E+04
 -1.12849E+04 -1.63408E+04 -8.59986E+02 -1.40797E+04  4.61113E+03 -7.39896E+03  3.98929E+03 -6.34518E+03
  3.38408E+03 -3.11327E+03  3.09712E+03 -5.18619E+03  3.96952E+03 -3.24784E+03  7.75928E+03 -2.06405E+03
  1.06108E+04  2.18581E+03  5.16106E+03  9.76822E+03 -1.11890E+03  1.13851E+04 -1.03824E+04  6.78102E+03
 -1.52409E+04 -1.16064E+03 -9.03507E+03 -9.77698E+03 -1.36933E+03 -1.48445E+04  9.39404E+03 -1.59207E+04
  1.59781E+04 -8.05078E+03  1.98387E+04  2.76894E+03  1.21651E+04  1.26244E+04  2.40636E+03  1.82353E+04
 -6.58243E+03  1.26600E+04 -8.91710E+03  5.29305E+03 -5.58953E+03 -2.02618E+03 -3.77128E+03 -3.79042E+03
 -8.26268E+01 -2.03572E+02 -2.85113E+03  1.41443E+03 -5.36719E+03  2.69343E+03 -9.46754E+03 -1.69614E+03
 -5.76091E+03 -1.25058E+04 -1.33621E+03 -1.33898E+04  7.07463E+03 -1.26289E+04  1.33232E+04 -3.77563E+03
  1.28066E+04  8.27076E+03  6.55604E+03  1.28717E+04 -2.92362E+03  1.49219E+04 -9.62637E+03  9.05998E+03
 -1.27531E+04 -9.62743E+02 -9.66411E+03 -7.06743E+03 -1.75462E+03 -1.14448E+04  7.00442E+03 -7.23665E+03
  9.05894E+03 -3.03784E+03  5.83726E+03  2.68357E+03  3.47844E+03  4.11078E+03 -2.66917E+02  8.83505E+02
  2.82588E+03  1.21506E+03  2.58617E+03  1.14120E+03  3.27992E+03  5.58473E+03  3.61002E+03  7.42927E+03
 -2.55618E+03  9.51828E+03 -1.06389E+04  1.21028E+04 -1.33702E+04  4.36102E+03 -1.54714E+04 -4.71022E+03
 -8.28035E+03 -1.47277E+04  4.35637E+03 -1.71452E+04  8.73327E+03 -9.51089E+03  1.15642E+04 -2.83915E+03
  8.18880E+03  5.25912E+03  3.38442E+03  6.92971E+03 -4.44010E+03  5.27663E+03 -5.47812E+03 -1.49537E+03
 -2.46197E+03 -5.43536E+03  3.84073E+03 -5.14596E+03  5.14357E+03 -4.53421E+03  5.98702E+03  2.56599E+03
  4.32602E+03  2.99152E+03  2.29980E+03  2.90597E+03  9.13389E+02  3.82074E+03  1.94317E+03 -2.47842E+03
  2.68854E+03  3.79467E+01  7.52636E+03 -6.10152E+01  4.34665E+03  8.47804E+03 -1.94016E+02  1.00877E+04
 -7.28412E+03  5.42259E+03 -9.12254E+03  2.17512E+03 -8.50960E+03 -2.49258E+03 -2.87143E+03 -4.26196E+03
  1.38703E+03 -4.94395E+03  3.80378E+03 -4.43161E+03  2.22433E+03  1.12088E+03 -7.62438E+01  4.95304E+03
 -5.26955E+03  4.29977E+03 -6.60613E+03 -2.65197E+03 -3.27148E+03 -9.18249E+03  1.80712E+02 -8.95465E+03
  4.76876E+03 -4.58259E+03  4.89693E+03  4.86586E+01  2.92656E+03  1.78965E+03  8.97980E+02  3.49263E+03
 -2.46164E+03  9.94192E+01 -2.41667E+03 -1.31013E+03  9.07625E+02 -6.64449E+03  6.90116E+03 -4.42212E+03
  8.48918E+03 -5.22512E+02  8.61380E+03  5.19556E+03  3.36275E+03  8.24812E+03 -3.54443E+03  8.90609E+03
 -7.48023E+03  3.91392E+03 -7.59325E+03 -1.05953E+03 -2.20096E+03 -6.50592E+03  2.04486E+03 -7.41321E+03
  4.82807E+03 -2.06458E+03  3.75648E+03  4.69297E+03  4.94327E+02  4.13945E+03  2.96327E+02  5.02756E+03
 -3.77815E+03  2.86538E+03 -1.77944E+03  1.52878E+03 -1.58702E+03  2.26021E+03 -1.47205E+03  2.41163E+03
 -3.31864E+03  2.35550E+03 -6.04676E+03  3.98722E+03 -8.68338E+03  3.19303E+02 -1.04154E+04 -4.69497E+03
 -4.09264E+03 -1.29943E+04  3.29776E+03 -1.64188E+04  6.76646E+03 -1.11006E+04  1.28608E+04 -4.88133E+03
  1.12788E+04  2.70288E+03  7.72997E+03  9.61978E+03  4.90297E+02  8.68814E+03 -4.51072E+03  7.84823E+03
 -5.77160E+03  3.93865E+03 -2.45782E+03 -2.35893E+02 -2.17505E+03 -2.24326E+03 -1.62854E+03  4.98423E+02
 -2.62506E+03  7.30021E+01 -1.18271E+03 -6.19605E+02 -1.19357E+03 -1.51582E+03  3.94583E+01 -4.01083E+03
  4.15896E+03 -3.25309E+03  5.75700E+03 -4.69867E+02  5.01210E+03  4.63781E+03  2.57866E+03  9.29236E+03
 -5.49580E+03  1.12761E+04 -9.37038E+03  5.98151E+03 -9.15702E+03 -1.61317E+03 -8.87621E+03 -7.84360E+03
 -4.63201E+03 -9.05017E+03  2.85878E+03 -1.00376E+04  4.96875E+03 -5.30377E+03  4.62803E+03  9.67275E+02
  3.54003E+03  4.02154E+03 -7.33119E+02  9.67962E+02 -1.37248E+03 -3.69543E+02 -1.16146E+03 -2.12994E+03
  2.93093E+03 -1.00620E+03  2.95124E+03  1.94730E+03  3.45477E+03  2.53176E+03  4.10164E+02  4.33045E+03
 -3.36462E+03  4.71329E+03 -5.76322E+03 -3.79816E+02 -5.68492E+03 -4.67029E+03 -1.35710E+03 -7.30244E+03
  5.48408E+03 -7.45530E+03  7.38318E+03 -1.42631E+03  6.36768E+03  1.67831E+03  3.74023E+03  6.58659E+03
  3.59247E+02  5.53133E+03 -3.37743E+03  4.60070E+03 -6.20562E+03  2.47670E+03 -3.33215E+03  8.61931E+02
 -2.67299E+03  1.18351E+02 -8.76780E+02  2.03633E+03 -2.68856E+03  1.31159E+03 -5.96319E+03 -4.95969E+02
 -4.14689E+03 -3.03433E+03 -1.06438E+03 -5.97427E+03  3.26781E+03 -6.66825E+03  6.87850E+03 -2.41791E+03
  7.00445E+03 -6.83166E+01  8.99123E+02  4.20104E+03 -1.14579E+02  5.55070E+03 -4.95400E+03  4.54170E+03
