 $NMID ID='MM_0lb_SNR200_8hz_g40_19.RAW', FMTDAT='(8E13.5)'
 TRAMP=1., VOLUME=1. $END
  3.08674E+05 -1.07402E+03  3.39803E+05  2.50580E+05  8.33255E+04  3.39730E+05 -1.32913E+05  2.53165E+05
 -1.90215E+05  8.35199E+04 -1.12505E+05 -3.26064E+04  6.33834E+02 -4.87101E+04  5.41338E+04  3.17478E+01
  3.27943E+04  5.19194E+04 -1.80041E+04  7.57994E+04 -6.11463E+04  6.37951E+04 -8.39122E+04  3.25230E+04
 -8.34154E+04 -1.24586E+04 -5.84618E+04 -5.34041E+04 -1.57735E+04 -7.17618E+04  2.92753E+04 -4.48249E+04
  4.17647E+04  3.89236E+03  1.81874E+04  4.95632E+04 -3.34249E+04  4.69887E+04 -6.81773E+04 -3.55927E+02
 -5.52569E+04 -5.90721E+04 -6.31722E+03 -7.95487E+04  3.52854E+04 -5.64790E+04  4.90623E+04 -1.85328E+04
  4.34762E+04  1.18412E+04  3.36382E+04  2.68006E+04  1.49451E+04  2.98012E+04 -8.28268E+03  2.73894E+04
 -2.41417E+04  1.13466E+04 -1.77249E+04 -7.23010E+03  6.73130E+03 -6.07811E+03  2.47575E+04  1.32788E+04
  7.37556E+03  3.62928E+04 -3.43809E+04  3.68362E+04 -6.68203E+04  2.29417E+03 -5.95109E+04 -4.35946E+04
 -1.19685E+04 -6.58077E+04  4.07572E+04 -4.78917E+04  6.27846E+04 -3.90933E+03  3.60476E+04  3.43952E+04
 -5.52365E+03  3.90607E+04 -3.19124E+04  1.99437E+04 -3.13442E+04 -3.59479E+03 -1.96351E+04 -1.23285E+04
 -1.13352E+04 -1.56029E+04 -1.93241E+03 -2.28692E+04  7.30887E+03 -2.43780E+04  1.64251E+04 -1.31840E+04
  1.16659E+04  5.84234E+03 -1.11536E+04  1.22666E+04 -2.24780E+04 -6.33449E+03 -9.30403E+03 -3.70059E+04
  2.52970E+04 -4.66929E+04  5.39151E+04 -2.02276E+04  4.97435E+04  2.14757E+04  1.68154E+04  4.94502E+04
 -1.67193E+04  3.55066E+04 -2.69774E+04  2.59517E+03 -8.71448E+03 -3.01345E+04  2.14285E+04 -3.80990E+04
  4.54462E+04 -1.09916E+04  3.96868E+04  2.43729E+04  2.11841E+04  5.03851E+04 -8.40338E+03  5.77250E+04
 -3.50544E+04  3.93493E+04 -4.71627E+04  1.11201E+04 -4.80828E+04 -1.86043E+04 -2.62120E+04 -4.35562E+04
  7.41028E+03 -4.06807E+04  3.49579E+04 -1.87248E+04  3.32540E+04  1.10314E+04  5.28828E+03  2.06610E+04
 -1.39137E+04  9.11083E+03 -1.19626E+04 -6.40848E+03  5.31179E+03 -1.06092E+04  2.02328E+04  5.45988E+03
  1.58738E+04  2.17190E+04 -5.51364E+03  2.73580E+04 -2.37148E+04  1.47720E+04 -3.04517E+04 -2.23967E+03
 -2.56869E+04 -1.83653E+04 -1.37134E+04 -2.61045E+04  3.64134E+03 -2.73531E+04  1.90571E+04 -2.23053E+04
  3.17278E+04 -1.39907E+04  3.88075E+04  5.26350E+03  2.70867E+04  2.50079E+04  4.10841E+03  4.22786E+04
 -2.03177E+04  3.47455E+04 -2.99314E+04  1.04733E+04 -2.31520E+04 -8.78599E+03 -4.79449E+03 -1.38325E+04
  1.38005E+03 -2.54004E+03 -7.66300E+03  9.76611E+03 -2.02162E+04  4.93326E+03 -2.06007E+04 -9.14474E+03
 -1.18925E+04 -2.32888E+04  5.73285E+03 -2.85665E+04  1.91422E+04 -1.88315E+04  2.13423E+04 -2.41953E+03
  1.27134E+04  1.63683E+04 -2.04434E+03  2.43752E+04 -1.62898E+04  1.25366E+04 -2.42188E+04 -5.29002E+03
 -1.76994E+04 -2.16390E+04 -2.61195E+03 -2.83512E+04  1.45794E+04 -2.36323E+04  2.16982E+04 -1.24132E+04
  2.40986E+04 -2.60448E+02  1.63699E+04  6.01341E+03  1.00101E+04  9.76868E+02  1.27359E+04 -2.92053E+03
  2.33318E+04  2.41623E+03  2.66448E+04  1.92413E+04  1.82418E+04  3.69184E+04 -1.16486E+03  4.50092E+04
 -2.48623E+04  3.68416E+04 -4.40871E+04  1.85074E+04 -4.42084E+04 -3.45747E+03 -3.56221E+04 -2.53441E+04
 -1.37712E+04 -3.75899E+04  1.38934E+04 -3.16199E+04  2.94582E+04 -1.58599E+04  2.48486E+04  7.23821E+03
  8.49385E+03  2.03612E+04 -1.19647E+04  1.58282E+04 -2.07711E+04  3.36830E+03 -1.40924E+04 -1.38925E+04
 -8.69560E+02 -2.05429E+04  1.12409E+04 -1.54498E+04  1.37789E+04 -2.31058E+03  2.47933E+03  9.45371E+03
 -8.99854E+03  1.88855E+03 -8.87046E+03 -6.69456E+03 -2.35436E+03 -1.74146E+04  1.23959E+04 -1.85135E+04
  2.39197E+04 -1.17645E+04  2.79649E+04  3.00465E+03  2.35710E+04  1.90028E+04  1.14080E+04  2.88636E+04
 -5.53707E+03  3.45292E+04 -2.08068E+04  2.03318E+04 -2.26736E+04  3.24451E+03 -1.49915E+04 -6.32204E+03
 -6.97593E+03 -7.72361E+03 -2.14065E+03  4.99621E+02 -2.45997E+03  3.47606E+03 -9.03776E+03  4.48522E+03
 -1.48502E+04 -7.28231E+02 -1.49645E+04 -1.23910E+04 -6.45229E+03 -2.00800E+04  5.90556E+03 -1.47560E+04
  1.37759E+04 -5.30693E+03  1.03825E+04  4.90238E+03 -5.91486E+02  7.57743E+03 -9.99180E+03 -1.70092E+03
 -9.57822E+03 -1.02600E+04 -2.24956E+03 -1.55448E+04  1.01501E+04 -1.66311E+04  2.13152E+04 -9.10355E+03
  2.33291E+04  3.68768E+03  1.82220E+04  1.60056E+04  2.78342E+03  1.94961E+04 -9.13206E+03  1.47329E+04
 -1.29743E+04  3.48567E+03 -7.17004E+03 -3.20350E+03  1.11649E+03 -3.62873E+03  7.55799E+03  1.22726E+03
  6.14267E+03  5.21561E+03  7.38000E+02  1.43921E+04 -9.31739E+03  1.21930E+04 -1.51576E+04  1.50542E+03
 -9.46810E+03 -7.76001E+03  4.59276E+02 -1.35624E+04  8.03210E+03 -6.83606E+03  1.01994E+04  4.40227E+03
  3.16065E+03  1.08016E+04 -9.25759E+03  1.18294E+04 -1.60402E+04  5.22750E+03 -1.43631E+04 -6.47406E+03
 -8.00246E+03 -1.71576E+04  4.43742E+03 -1.99214E+04  1.58856E+04 -9.97828E+03  1.83240E+04  3.66208E+03
  9.87064E+03  1.47559E+04 -3.12572E+02  1.65116E+04 -1.18252E+04  9.05716E+03 -1.32874E+04 -1.30171E+03
 -1.15719E+04 -1.24133E+04 -3.19835E+03 -1.10356E+04  4.91432E+03 -9.81559E+03  8.93969E+03 -5.00225E+03
  6.04544E+03  1.80326E+03 -7.03387E+02  2.30290E+03 -7.52208E+01 -5.05654E+03  2.87965E+03 -8.60961E+03
  1.27871E+04 -3.20600E+03  1.65175E+04  2.36130E+03  1.48318E+04  1.04204E+04  1.05549E+04  2.04195E+04
 -5.36072E+03  2.42829E+04 -2.14299E+04  1.95608E+04 -2.62749E+04  4.84768E+03 -2.18578E+04 -1.03479E+04
 -1.16689E+04 -1.82433E+04 -1.69133E+02 -1.36463E+04  5.61521E+03 -7.94944E+03  4.21021E+03 -5.83078E+03
  3.30333E+03 -2.24967E+03  3.38139E+03 -5.33558E+03  6.48370E+03 -4.44408E+03  8.60802E+03 -2.92993E+03
  1.02437E+04  2.84007E+03  6.15114E+03  1.00598E+04 -1.64320E+03  1.09245E+04 -1.26890E+04  8.85603E+03
 -1.61295E+04 -1.89467E+03 -8.13443E+03 -1.04323E+04 -2.02910E+02 -1.60315E+04  8.99500E+03 -1.75304E+04
  1.61099E+04 -9.43083E+03  1.97614E+04  3.80922E+03  1.42649E+04  1.36613E+04  3.69097E+03  2.02287E+04
 -8.07865E+03  1.54493E+04 -1.04801E+04  5.03929E+03 -9.18001E+03 -1.45660E+03 -3.91335E+03 -1.53198E+03
 -1.32642E+03 -7.54464E+02 -3.06746E+03  2.04178E+03 -8.23142E+03  3.34647E+03 -1.14502E+04 -2.60768E+03
 -8.15669E+03 -1.00195E+04 -6.02807E+01 -1.40916E+04  8.65381E+03 -1.64042E+04  1.54090E+04 -4.99678E+03
  1.56550E+04  7.83347E+03  5.36154E+03  1.25647E+04 -3.02303E+03  1.53930E+04 -1.12882E+04  9.63463E+03
 -1.53818E+04  1.40741E+03 -1.21637E+04 -9.74844E+03  3.56578E+02 -1.54946E+04  5.80779E+03 -1.00709E+04
  9.42502E+03 -2.88999E+03  8.45157E+03  3.11265E+03  2.23780E+03  3.93567E+03  1.54793E+03  2.42522E+03
  3.09410E+03  5.80847E+02  5.28188E+03  2.82008E+03  3.83820E+03  5.56325E+03  4.35177E+03  7.73986E+03
 -2.67894E+03  1.27355E+04 -1.13924E+04  1.40180E+04 -1.56840E+04  3.73527E+03 -1.85272E+04 -8.56594E+03
 -8.83196E+03 -1.52731E+04  1.62774E+03 -1.75375E+04  1.02906E+04 -1.15930E+04  1.41415E+04 -2.07853E+03
  1.04741E+04  5.97111E+03  1.75956E+03  1.00264E+04 -4.90000E+03  5.69193E+03 -6.03199E+03 -1.96071E+03
 -2.79598E+03 -4.76499E+03  3.10969E+03 -5.43438E+03  6.12525E+03 -3.15745E+03  6.17449E+03 -6.00793E+01
  4.28899E+03  3.52184E+03 -1.74158E+02  3.22134E+03  1.47965E+02  1.68603E+03  9.37292E+02 -9.16701E+01
  2.33502E+03 -6.01830E+02  5.76340E+03  3.37274E+03  4.37695E+03  8.61897E+03 -1.80685E+03  1.01300E+04
 -7.96885E+03  7.05618E+03 -8.40446E+03  1.37631E+03 -1.00394E+04 -4.99748E+03 -3.19713E+03 -6.20295E+03
  1.53380E+03 -6.42901E+03  3.66174E+03 -3.16480E+03  3.76371E+03  3.06474E+03 -1.53918E+03  4.71018E+03
 -6.43905E+03  5.12308E+03 -9.21426E+03 -3.49970E+03 -3.72836E+03 -9.66244E+03  1.57933E+03 -7.98637E+03
  5.71101E+03 -7.41275E+03  6.70033E+03 -3.82093E+02  7.65388E+03  1.48436E+03  5.38902E+02  4.99873E+03
 -2.00550E+03  3.20431E+03 -3.02354E+03 -4.08769E+03  1.80277E+03 -7.21118E+03  8.52851E+03 -4.37208E+03
  1.03686E+04  1.99568E+03  1.02802E+04  7.30969E+03  3.01487E+03  1.09525E+04 -3.61700E+03  1.18951E+04
 -7.40090E+03  3.95653E+03 -9.35625E+03 -1.60448E+03 -5.37646E+03 -5.23482E+03  1.50125E+03 -7.82365E+03
  6.71788E+03 -5.20960E+03  7.58755E+03  3.50780E+03  1.32683E+03  6.55471E+03 -1.33929E+03  5.16547E+03
 -3.19393E+03  2.76762E+03 -3.55953E+03  2.80936E+02 -7.03886E+02 -2.39907E+02  1.45666E+02  1.58434E+03
 -3.58835E+03  4.80985E+03 -7.95758E+03  3.91593E+03 -1.08936E+04  4.00216E+02 -1.24191E+04 -6.85168E+03
 -5.40928E+03 -1.60202E+04  2.39959E+03 -1.65966E+04  1.17750E+04 -1.27448E+04  1.49234E+04 -5.99442E+03
  1.52093E+04  2.29106E+03  8.96434E+03  1.06500E+04 -8.57723E+02  1.24818E+04 -6.23673E+03  8.56385E+03
 -5.62107E+03  2.32881E+03 -3.82993E+03 -2.93227E+02 -1.68471E+03 -9.38340E+02 -6.05858E+02 -2.83514E+01
 -1.25490E+03  2.75440E+02 -1.69204E+03  2.87838E+02 -3.50697E+02 -1.84024E+03  4.80427E+02 -4.27685E+03
  3.95599E+03 -3.48101E+03  6.73211E+03  3.20210E+02  9.19655E+03  5.87566E+03  2.34238E+03  1.09399E+04
 -7.24154E+03  1.28921E+04 -1.28248E+04  1.00342E+04 -1.58614E+04 -5.46958E+02 -1.06230E+04 -8.32805E+03
 -4.61363E+03 -1.08212E+04  3.90483E+03 -1.04108E+04  7.43346E+03 -7.39928E+03  8.12620E+03  6.67811E+01
  5.45855E+03  3.34533E+03 -6.98015E+02  3.01450E+03 -3.02612E+03  1.11597E+03  2.49591E+02 -1.85732E+02
  4.16459E+03 -2.13970E+03  5.79174E+03  1.98311E+03  1.96863E+03  4.56033E+03 -8.88272E+02  6.69371E+03
 -4.83336E+03  7.23923E+03 -8.12395E+03  9.00058E+02 -7.19915E+03 -4.53056E+03 -1.65570E+03 -9.35956E+03
  4.32853E+03 -8.30289E+03  8.61231E+03 -1.85464E+03  1.04183E+04  2.09928E+03  4.85068E+03  6.40655E+03
 -3.27564E+02  9.03310E+03 -3.14725E+03  6.25526E+03 -5.26332E+03  4.62298E+03 -3.15327E+03  3.65358E+02
 -4.02673E+03 -4.01156E+02 -1.53546E+03 -4.49874E+02 -4.02672E+03  1.72597E+03 -6.54626E+03 -1.33011E+02
 -6.28595E+03 -2.56821E+03 -2.19226E+03 -7.54281E+03  4.31307E+03 -7.94375E+03  6.64563E+03 -3.76158E+03
  9.85604E+03  8.22531E+02  2.11027E+03  6.42262E+03 -1.46172E+03  9.45304E+03 -4.90261E+03  5.05332E+03
