 $NMID ID='MM_0lb_SNR200_9hz_g50_64.RAW', FMTDAT='(8E13.5)'
 TRAMP=1., VOLUME=1. $END
  3.10374E+05 -5.79598E+01  3.37379E+05  2.51936E+05  8.54958E+04  3.39320E+05 -1.32039E+05  2.51005E+05
 -1.90353E+05  8.29941E+04 -1.11912E+05 -3.16747E+04  5.44126E+02 -5.06815E+04  5.29051E+04 -4.94581E+02
  3.69721E+04  5.45312E+04 -1.72280E+04  7.70043E+04 -6.11946E+04  6.50580E+04 -8.45825E+04  3.34633E+04
 -8.24337E+04 -1.20472E+04 -5.91650E+04 -5.16778E+04 -1.38111E+04 -7.09138E+04  2.79384E+04 -4.56267E+04
  4.20158E+04  5.60345E+03  1.72954E+04  4.97989E+04 -3.45548E+04  4.83447E+04 -6.78865E+04  1.30882E+03
 -5.38966E+04 -5.42765E+04 -7.28280E+03 -8.14481E+04  3.51982E+04 -5.70288E+04  5.02449E+04 -1.83089E+04
  4.48871E+04  1.20731E+04  3.28185E+04  2.86851E+04  1.47754E+04  2.97104E+04 -3.45755E+03  2.82680E+04
 -2.25903E+04  1.27373E+04 -1.88365E+04 -5.90977E+03  7.24965E+03 -7.77865E+03  2.31211E+04  1.33786E+04
  8.00706E+03  3.79254E+04 -3.29652E+04  3.62647E+04 -6.56573E+04  3.04270E+03 -5.90428E+04 -4.42359E+04
 -1.35604E+04 -6.51738E+04  4.22171E+04 -4.78142E+04  6.21352E+04 -1.04407E+03  3.62195E+04  3.41966E+04
 -5.74805E+03  3.93386E+04 -3.27310E+04  1.87232E+04 -3.15842E+04 -4.13077E+03 -1.99984E+04 -1.27292E+04
 -9.00778E+03 -1.45232E+04 -3.70088E+02 -2.10895E+04  9.94461E+03 -2.21540E+04  1.42763E+04 -1.10707E+04
  9.48979E+03  6.17663E+03 -9.79648E+03  1.38922E+04 -2.50465E+04 -7.62022E+03 -8.59104E+03 -3.72217E+04
  2.48036E+04 -4.73660E+04  5.18168E+04 -2.13779E+04  4.84258E+04  2.02876E+04  1.83598E+04  4.81123E+04
 -1.69583E+04  3.47581E+04 -2.82050E+04  1.67638E+03 -1.05026E+04 -2.95983E+04  2.28418E+04 -3.65112E+04
  4.48536E+04 -1.13774E+04  4.22079E+04  2.53464E+04  2.05135E+04  5.02860E+04 -9.37940E+03  5.72530E+04
 -3.50087E+04  3.99191E+04 -4.75021E+04  9.65014E+03 -4.62970E+04 -1.90225E+04 -2.60970E+04 -4.19460E+04
  7.66055E+03 -4.26261E+04  3.42333E+04 -1.64797E+04  3.27111E+04  1.01381E+04  3.75616E+03  2.04384E+04
 -1.51737E+04  1.01656E+04 -1.28328E+04 -6.04614E+03  6.29010E+03 -1.17551E+04  1.92794E+04  5.06293E+03
  1.51637E+04  2.12360E+04 -4.62838E+03  2.92655E+04 -2.38349E+04  1.42485E+04 -3.16175E+04 -2.13771E+03
 -2.52343E+04 -1.99156E+04 -1.16361E+04 -2.42576E+04  3.62231E+03 -2.49486E+04  1.90534E+04 -2.10487E+04
  3.22021E+04 -1.46052E+04  3.71683E+04  4.16529E+03  2.71354E+04  2.41570E+04  3.41446E+03  4.13516E+04
 -1.89220E+04  3.42504E+04 -3.07993E+04  1.14122E+04 -2.33858E+04 -1.01779E+04 -6.02406E+03 -1.36844E+04
  1.46987E+03 -1.75023E+03 -8.04103E+03  7.31544E+03 -2.06786E+04  4.03924E+03 -2.07137E+04 -9.57300E+03
 -1.22295E+04 -2.40617E+04  6.78586E+03 -2.68216E+04  2.04137E+04 -1.89020E+04  2.31065E+04 -1.64597E+03
  1.38726E+04  1.75831E+04 -5.21812E+02  2.18137E+04 -1.66103E+04  1.41276E+04 -2.27835E+04 -5.96806E+03
 -1.74918E+04 -2.16396E+04 -1.27140E+03 -2.85972E+04  1.28137E+04 -2.35042E+04  2.28273E+04 -1.13553E+04
  2.19246E+04  1.11210E+03  1.65578E+04  4.91464E+03  9.01123E+03  2.88934E+03  1.27525E+04 -3.46190E+03
  2.30937E+04  3.09522E+03  2.60936E+04  1.86113E+04  1.62018E+04  3.58064E+04 -3.46853E+03  4.43662E+04
 -2.47087E+04  3.74279E+04 -4.13061E+04  1.88468E+04 -4.39796E+04 -3.69151E+03 -3.55063E+04 -2.62106E+04
 -1.37045E+04 -3.64834E+04  1.33766E+04 -3.26612E+04  2.74175E+04 -1.46165E+04  2.46389E+04  8.23803E+03
  7.62545E+03  1.97994E+04 -1.07291E+04  1.59477E+04 -2.07276E+04  1.47810E+03 -1.48245E+04 -1.19822E+04
 -1.50438E+03 -1.87748E+04  1.14517E+04 -1.28192E+04  1.37826E+04 -9.75424E+02  3.14190E+03  7.12681E+03
 -9.87258E+03  3.39559E+03 -9.37094E+03 -6.60397E+03 -8.46464E+02 -1.87057E+04  1.19107E+04 -1.97223E+04
  2.36388E+04 -1.14642E+04  2.65284E+04  3.28667E+03  2.40120E+04  1.82311E+04  9.33238E+03  2.96110E+04
 -5.98624E+03  3.11814E+04 -1.96275E+04  1.96905E+04 -2.30890E+04  4.74479E+03 -1.46461E+04 -7.09681E+03
 -7.33985E+03 -7.05417E+03  2.96439E+02 -3.50246E+02 -4.30032E+03  3.66182E+03 -7.93420E+03  6.65502E+03
 -1.31466E+04 -2.33921E+03 -1.47728E+04 -1.07722E+04 -4.94975E+03 -1.89060E+04  8.06986E+03 -1.54302E+04
  1.12097E+04 -6.66001E+03  6.63260E+03  4.57318E+03 -7.35256E+02  6.23174E+03 -6.24459E+03 -1.85033E+02
 -7.90972E+03 -1.15563E+04 -1.23610E+03 -1.59646E+04  9.90613E+03 -1.61158E+04  2.14232E+04 -8.66994E+03
  2.37667E+04  4.42719E+01  1.67217E+04  1.46780E+04  4.19670E+03  1.88810E+04 -8.89358E+03  1.38754E+04
 -1.18387E+04  5.79557E+03 -7.60386E+03 -2.38029E+03  1.32880E+03 -3.85955E+03  9.04726E+03 -2.53333E+03
  7.48202E+03  7.07095E+03  1.53228E+03  1.32455E+04 -9.39277E+03  1.27512E+04 -1.61069E+04  3.77022E+03
 -1.24688E+04 -7.78930E+03  8.28622E+02 -1.37892E+04  1.03176E+04 -7.70432E+03  1.06269E+04  4.03199E+03
  3.06747E+03  1.03834E+04 -8.33560E+03  1.15509E+04 -1.38012E+04  4.64671E+03 -1.29081E+04 -4.46861E+03
 -8.75214E+03 -1.60543E+04  4.23170E+03 -1.96740E+04  1.40597E+04 -1.00029E+04  1.57967E+04  3.72439E+03
  9.44604E+03  1.40035E+04 -2.10391E+03  1.65965E+04 -1.26886E+04  9.95395E+03 -1.27082E+04 -2.13519E+03
 -1.18933E+04 -1.21161E+04 -8.21863E+02 -1.28127E+04  6.14971E+03 -8.00105E+03  7.89953E+03 -3.38334E+03
  4.22305E+03  3.51109E+03 -9.33693E+02  2.85612E+03 -2.73529E+02 -2.83251E+03  2.59031E+03 -8.76337E+03
  1.27272E+04 -5.56043E+03  1.69052E+04  2.09953E+03  1.50866E+04  1.04367E+04  9.79704E+03  2.11330E+04
 -3.18991E+03  2.37810E+04 -1.90759E+04  1.75990E+04 -2.67027E+04  2.92805E+03 -2.15485E+04 -9.87229E+03
 -1.04350E+04 -1.56856E+04  1.07876E+02 -1.42728E+04  5.01459E+03 -9.37704E+03  6.68080E+03 -5.36844E+03
  3.26861E+03 -3.79826E+03  5.04293E+03 -3.59811E+03  5.36996E+03 -2.86062E+03  8.03588E+03 -1.50643E+03
  9.31297E+03  2.46530E+03  6.56088E+03  9.12095E+03 -3.27452E+03  1.17196E+04 -1.15962E+04  1.03475E+04
 -1.47276E+04 -1.20433E+03 -1.05939E+04 -9.36803E+03 -1.13711E+03 -1.50614E+04  7.16742E+03 -1.62626E+04
  1.75837E+04 -7.70820E+03  1.79383E+04  2.54005E+03  1.36383E+04  1.38171E+04  2.47215E+03  1.64642E+04
 -7.77412E+03  1.42921E+04 -1.09233E+04  6.15689E+03 -7.24277E+03 -9.45926E+02 -3.53082E+03 -2.73791E+03
 -1.60915E+02 -3.55850E+02 -1.33244E+03  2.72008E+03 -7.23054E+03  2.61932E+03 -9.95963E+03 -1.68209E+03
 -6.67502E+03 -1.04380E+04 -5.00218E+02 -1.51573E+04  9.48098E+03 -1.34317E+04  1.44728E+04 -3.75155E+03
  1.54181E+04  7.27140E+03  6.86746E+03  1.25266E+04 -3.30371E+03  1.47370E+04 -1.23426E+04  9.12528E+03
 -1.25129E+04  3.64218E+02 -1.13167E+04 -8.76977E+03 -1.70879E+03 -1.33741E+04  7.36785E+03 -7.76878E+03
  9.37796E+03 -2.24751E+03  6.43988E+03  3.04398E+03  3.34993E+03  4.95441E+03  1.97410E+03  2.53477E+03
  7.84861E+02  2.35623E+03  2.14949E+03  5.38236E+02  3.46062E+03  4.42863E+03  3.96604E+03  7.16206E+03
 -3.48271E+03  1.11722E+04 -9.73065E+03  1.17297E+04 -1.67796E+04  2.09637E+03 -1.53549E+04 -7.14801E+03
 -8.32534E+03 -1.51635E+04  2.48538E+03 -1.58030E+04  8.57018E+03 -1.07260E+04  1.30981E+04 -4.17523E+03
  8.37145E+03  5.38109E+03  1.55211E+03  7.02259E+03 -4.31086E+03  4.61765E+03 -5.97700E+03 -1.66787E+03
 -3.39404E+03 -5.54885E+03  4.13369E+03 -8.56886E+03  8.02288E+03 -4.07768E+03  6.55011E+03  1.75084E+03
  3.12104E+03  2.42403E+03  1.06071E+03  2.46176E+03 -8.02676E+02  1.87167E+03  4.26232E+03 -7.21517E+02
  2.05071E+03 -6.42759E+02  6.74822E+03  1.90722E+03  2.56408E+03  8.67810E+03 -2.29931E+03  9.89782E+03
 -6.19907E+03  7.20873E+03 -8.39106E+03  1.69713E+03 -8.59195E+03 -3.91183E+03 -2.70333E+03 -6.59383E+03
  2.38531E+03 -3.79095E+03  4.43753E+03 -2.18466E+03  3.46111E+03  2.61027E+03 -1.73511E+03  3.73783E+03
 -5.77248E+03  3.34111E+03 -5.94042E+03 -3.27238E+03 -4.88587E+03 -8.07869E+03  7.58027E+01 -9.12655E+03
  5.46171E+03 -6.30879E+03  6.35495E+03 -1.04018E+02  6.14858E+03  4.32659E+03  1.11608E+03  2.47855E+03
 -1.98335E+03 -5.37683E+02 -3.65456E+03 -2.73029E+03  3.12961E+03 -6.35295E+03  6.98351E+03 -5.62928E+03
  9.94722E+03  8.82947E+02  9.62600E+03  7.63836E+03  2.56720E+03  9.42466E+03 -3.78488E+03  8.60209E+03
 -9.37117E+03  2.97132E+03 -7.74450E+03 -2.54335E+03 -4.60536E+03 -4.86860E+03  1.75885E+03 -6.94812E+03
  6.75588E+03 -3.21046E+03  4.34647E+03  3.04915E+03  1.31015E+03  5.47583E+03 -9.88034E+02  5.26815E+03
 -3.40233E+03  1.58813E+03 -2.56585E+03  2.41687E+03 -8.94503E+02  1.44222E+02 -3.04686E+03  6.91252E+02
 -3.76746E+03  4.15504E+03 -7.56837E+03  4.37072E+03 -1.08442E+04  3.02046E+02 -1.24933E+04 -7.13194E+03
 -6.16939E+03 -1.26550E+04  2.12134E+03 -1.44882E+04  9.73635E+03 -1.23253E+04  1.45715E+04 -4.94928E+03
  1.36494E+04  3.93072E+03  7.89399E+03  9.64303E+03  2.59572E+03  1.04700E+04 -3.75316E+03  7.90655E+03
 -5.62408E+03  3.58393E+03 -3.73914E+03  1.87709E+02 -1.63794E+03 -1.76804E+03 -1.62986E+03 -1.14019E+03
 -2.19550E+03 -6.18289E+01 -2.50287E+03  3.88585E+02 -8.41393E+02 -2.55773E+03  8.47391E+02 -3.29621E+03
  5.39247E+03 -2.19975E+03  4.03408E+03 -3.85527E+02  6.26241E+03  5.33983E+03  3.10703E+03  9.24346E+03
 -3.46755E+03  1.35991E+04 -1.15187E+04  7.31558E+03 -1.20593E+04 -8.65383E+02 -9.39228E+03 -8.85095E+03
 -5.43325E+03 -1.10463E+04  2.03266E+03 -1.14125E+04  8.01524E+03 -7.05531E+03  7.52766E+03  6.35993E+02
  3.31364E+03  3.96574E+03 -1.12120E+03  2.82016E+03 -2.48244E+03 -9.73096E+01 -1.42285E+03 -2.23263E+03
  2.49407E+03 -2.01796E+03  3.98821E+03  2.28776E+01  2.85515E+03  3.08802E+03  1.40674E+03  5.68664E+03
 -5.87874E+03  6.32351E+03 -7.25971E+03  1.45278E+03 -6.84573E+03 -4.91410E+03 -7.33501E+02 -9.62610E+03
  4.76299E+03 -7.00126E+03  7.79351E+03 -1.79284E+03  7.64192E+03  5.87167E+02  5.19264E+03  7.16825E+03
  1.12274E+03  6.83644E+03 -2.52335E+03  5.06755E+03 -3.68909E+03  1.62089E+03 -5.08641E+03  1.73270E+03
 -3.01680E+03 -1.30519E+03 -1.51047E+03  2.53595E+03 -4.07648E+03  7.32166E+02 -5.73385E+03 -1.55202E+01
 -6.56288E+03 -5.13188E+03 -1.11849E+03 -6.71834E+03  2.92187E+03 -8.99619E+03  6.44904E+03 -4.16840E+03
  7.19177E+03  9.41223E+02  4.74859E+03  4.90982E+03  1.49311E+03  8.40724E+03 -4.30432E+03  4.43979E+03
