 $NMID ID='MM_0lb_SNR200_20hz_g40_73.RAW', FMTDAT='(8E13.5)'
 TRAMP=1., VOLUME=1. $END
  3.09341E+05  3.01997E+01  3.37022E+05  2.49684E+05  8.42093E+04  3.36238E+05 -1.32269E+05  2.49383E+05
 -1.89992E+05  8.18727E+04 -1.09535E+05 -3.17572E+04  2.00274E+03 -4.85975E+04  5.37905E+04  6.72546E+02
  3.47261E+04  5.25057E+04 -1.71512E+04  7.43124E+04 -5.97546E+04  6.23215E+04 -8.20594E+04  3.15943E+04
 -7.86165E+04 -1.05817E+04 -5.65591E+04 -4.93687E+04 -1.46839E+04 -6.74567E+04  2.65291E+04 -4.37197E+04
  3.82381E+04  3.76793E+03  1.51613E+04  4.63503E+04 -3.34316E+04  4.61240E+04 -6.47301E+04 -1.10993E+03
 -5.11898E+04 -5.64309E+04 -6.76202E+03 -7.58840E+04  3.17932E+04 -5.25690E+04  4.51275E+04 -1.52315E+04
  4.03792E+04  1.06900E+04  3.04749E+04  2.34795E+04  1.58932E+04  2.76215E+04 -4.24804E+03  2.57323E+04
 -2.18789E+04  1.27131E+04 -1.84444E+04 -4.43522E+03  3.46970E+03 -7.74619E+03  2.02707E+04  1.06253E+04
  8.04581E+03  3.17507E+04 -2.89195E+04  3.27259E+04 -5.97680E+04  2.66579E+03 -5.45374E+04 -3.97201E+04
 -1.26373E+04 -5.82607E+04  3.71568E+04 -4.28202E+04  5.39041E+04 -2.25465E+03  3.09005E+04  2.98704E+04
 -6.77935E+03  3.06154E+04 -2.75041E+04  1.19047E+04 -2.63418E+04 -6.11352E+03 -1.23812E+04 -9.47348E+03
 -7.30964E+03 -1.09636E+04 -8.94398E+02 -1.54951E+04  5.90951E+03 -2.24687E+04  1.37537E+04 -1.29504E+04
  1.31190E+04  3.78357E+03 -4.53030E+03  1.40271E+04 -1.84444E+04 -1.09309E+03 -7.55716E+03 -3.02761E+04
  1.87412E+04 -3.84074E+04  4.34814E+04 -1.85077E+04  4.03035E+04  1.74019E+04  1.21167E+04  4.03487E+04
 -1.62659E+04  2.97163E+04 -2.20720E+04  1.07232E+03 -7.59416E+03 -2.60934E+04  1.90297E+04 -2.93770E+04
  3.65760E+04 -6.88208E+03  2.91712E+04  2.26667E+04  1.44846E+04  4.12859E+04 -7.79959E+03  4.25823E+04
 -2.61574E+04  2.74310E+04 -3.58353E+04  7.27104E+03 -3.56610E+04 -1.41099E+04 -2.03725E+04 -3.32201E+04
  6.46365E+03 -3.22470E+04  2.75981E+04 -1.12015E+04  2.59103E+04  1.10626E+04  2.16232E+03  1.73274E+04
 -1.25912E+04  7.24887E+03 -8.73005E+03 -7.57632E+03  5.79367E+03 -9.59759E+03  1.77407E+04  7.50475E+03
  1.24922E+04  2.13497E+04 -7.30448E+03  2.29523E+04 -2.09393E+04  7.97216E+03 -2.29593E+04 -8.44536E+03
 -1.56388E+04 -1.60697E+04 -4.34055E+03 -1.61187E+04  3.79974E+03 -1.22736E+04  1.11474E+04 -1.31015E+04
  1.94281E+04 -1.12209E+04  2.55621E+04  1.09436E+03  1.98955E+04  1.53425E+04  4.36358E+03  2.91903E+04
 -1.63298E+04  2.71046E+04 -2.51736E+04  9.23265E+03 -1.90697E+04 -1.04443E+04 -3.27506E+03 -1.46194E+04
  1.81901E+03 -5.10682E+03 -1.65369E+03  4.79154E+03 -1.14878E+04  5.91326E+03 -1.22042E+04 -3.06904E+03
 -6.78469E+03 -1.34964E+04  4.97371E+03 -1.82452E+04  1.11664E+04 -1.27236E+04  1.29092E+04 -2.32819E+03
  7.81044E+03  9.66294E+03 -8.00319E+01  1.40880E+04 -8.30414E+03  7.58792E+03 -1.31012E+04 -3.97168E+03
 -1.08998E+04 -1.23127E+04 -6.26608E+02 -1.80805E+04  7.43848E+03 -1.34939E+04  1.40952E+04 -5.65415E+03
  1.25150E+04  1.25647E+03  9.37867E+03  3.54067E+03  4.39195E+03  6.73703E+02  7.56039E+03 -1.84773E+03
  1.25211E+04  2.47726E+03  1.30171E+04  1.19812E+04  8.09732E+03  2.24419E+04 -2.35765E+03  2.35090E+04
 -1.45981E+04  1.58698E+04 -2.27110E+04  7.80822E+03 -2.17314E+04 -2.44364E+03 -1.92161E+04 -1.16363E+04
 -8.80894E+03 -1.81127E+04  5.77948E+03 -1.78089E+04  1.45476E+04 -1.02135E+04  1.37761E+04  2.19967E+03
  6.31615E+03  9.79859E+03 -6.41430E+03  1.01817E+04 -1.20125E+04  2.49806E+03 -9.63526E+03 -6.14663E+03
 -7.69203E+02 -1.04577E+04  5.48944E+03 -8.17687E+03  6.41188E+03 -1.83338E+03  7.30266E+02  3.75668E+03
 -4.98837E+03  8.56800E+02 -3.60171E+03 -4.08304E+03  6.84980E+02 -8.83819E+03  7.70277E+03 -8.54392E+03
  1.13025E+04 -2.72659E+03  1.00600E+04  2.43258E+03  9.66769E+03  7.50642E+03  3.51245E+03  1.24321E+04
 -1.68490E+03  1.36903E+04 -7.37608E+03  8.59328E+03 -8.97253E+03  3.86408E+03 -7.55780E+03 -1.73795E+03
 -4.57441E+03 -3.62814E+03 -1.12389E+03  1.88940E+03 -2.55108E+03  2.19999E+03 -2.60245E+03  2.87482E+03
 -7.24702E+03  2.36918E+02 -8.54207E+03 -6.04183E+03 -3.29848E+03 -1.10293E+04  3.28249E+03 -8.12844E+03
  7.04821E+03 -3.10382E+03  4.68999E+03  2.48340E+03  1.28850E+03  2.38012E+03 -2.54352E+03  1.93717E+02
 -3.23756E+03 -3.85084E+03  3.82916E+02 -5.67038E+03  3.62511E+03 -5.92165E+03  8.51966E+03 -3.07235E+03
  1.02912E+04  4.36579E+02  7.38922E+03  4.52369E+03  1.99303E+03  7.29717E+03 -4.38309E+03  7.50646E+03
 -6.22730E+03  2.64953E+03 -3.38220E+03 -1.01993E+03  1.68244E+03 -2.54010E+03  4.51455E+03 -8.75783E+02
  3.49966E+03  2.63466E+03  1.06298E+03  4.67163E+03 -3.20671E+03  5.83730E+03 -6.71712E+03  1.41609E+03
 -4.50292E+03 -1.90044E+03  1.09785E+03 -6.16227E+03  2.91866E+03 -2.50662E+03  3.10871E+03  3.63073E+02
  6.04494E+00  1.83478E+03 -3.82281E+03  4.29753E+03 -3.65010E+03  2.08209E+03 -4.11720E+03 -1.23148E+03
 -2.70399E+03 -4.31190E+03  7.38515E+02 -5.62357E+03  5.26009E+03 -4.05036E+03  5.59364E+03  8.18822E+02
  4.11689E+03  4.83866E+03  8.93369E+01  5.68596E+03 -4.69769E+03  4.29302E+03 -4.09412E+03  8.34195E+02
 -5.21534E+03 -4.51771E+03 -1.90974E+03 -4.13895E+03  2.28973E+03 -5.06385E+03  2.29662E+03 -3.06788E+03
  3.14690E+03 -4.66580E+01  1.30901E+03  9.42902E+02 -2.60977E+02 -1.85617E+02 -1.91515E+02 -9.55528E+02
  3.31666E+03  1.58540E+02  5.00215E+03  2.10960E+02  5.35576E+03  1.90734E+03  4.02958E+03  4.89136E+03
 -9.10045E+02  7.21847E+03 -6.09533E+03  4.68111E+03 -8.31198E+03  6.98841E+02 -7.38845E+03 -1.21136E+03
 -4.18821E+03 -5.08793E+03 -8.47061E+02 -4.95565E+03  1.81178E+03 -2.28953E+03  1.80864E+03 -2.38560E+03
  1.63562E+03 -1.69522E+03  1.37410E+03 -1.82629E+03  3.57799E+03 -1.00395E+03  3.19875E+03  1.24191E+03
  4.23639E+03  1.67887E+03  6.81523E+02  1.98277E+03 -1.13205E+03  3.11513E+03 -3.77316E+03  2.29037E+03
 -4.36308E+03 -1.12320E+03 -3.56297E+02 -2.05439E+03  1.71647E+02 -3.70656E+03  2.65540E+03 -4.37243E+03
  4.49959E+03 -2.38174E+03  5.27897E+03  7.69375E+02  4.71453E+03  2.34308E+03  6.44940E+02  4.06242E+03
 -1.32502E+03  4.71505E+03 -2.55512E+03  1.50408E+03 -1.00647E+03 -1.88209E+03 -1.76259E+03 -6.69354E+01
  1.60532E+02  5.39513E+02 -9.73546E+02  1.84538E+03 -2.69256E+03  1.82152E+03 -3.30375E+03  2.73123E+02
 -5.80433E+02 -4.11715E+03  1.16779E+03 -3.73586E+03  2.63240E+03 -2.64754E+03  2.40326E+03 -1.34859E+03
  2.99854E+03  3.05994E+03  1.40833E+03  2.60898E+03 -6.46667E+02  3.42314E+03 -1.18196E+03  1.09362E+03
 -2.82663E+03  3.22958E+02 -2.79939E+03 -1.48650E+03 -4.35255E+01 -2.41886E+03  7.84630E+02 -2.00677E+03
  2.08208E+03 -1.98009E+03  7.08259E+02 -6.23589E+02  1.95109E+02  1.24542E+03  4.46957E+02  6.57649E+02
  1.93298E+03  6.09778E+02  7.88999E+02  1.66077E+03  1.74777E+03  2.07756E+03  1.90960E+03  9.32964E+02
 -1.58626E+03  2.08762E+03 -2.74637E+03  3.17273E+03 -2.29528E+03  5.31603E+02 -3.07925E+03 -1.64635E+02
 -1.36539E+03 -3.61476E+03  3.77425E+02 -3.43885E+03  1.44954E+03 -2.08187E+03  1.86437E+03 -5.69288E+02
  3.18076E+03  1.96481E+03  1.26889E+03  2.35473E+03  4.81452E+01  1.51927E+03 -1.01509E+03 -1.06303E+03
  5.49066E+01 -6.21555E+02  1.43518E+03 -3.29495E+02  8.37164E+02 -8.31320E+01  1.00159E+03  2.80533E+02
 -3.45644E+02  3.76498E+02  7.60434E+02 -6.55913E+01 -1.89855E+02  9.46473E+02  1.96415E+03 -8.50027E+02
 -4.72657E+02 -2.98293E+02  2.15701E+03  3.62933E+02  4.15133E+02  2.89894E+03 -8.40179E+02  2.35864E+03
 -6.38276E+02  5.30823E+02 -1.05736E+03 -7.79056E+02 -1.87748E+03 -8.53009E+02 -5.13736E+02 -5.41917E+02
  4.13456E+02 -2.70543E+02  1.55605E+02 -1.09128E+03  7.47323E+02  1.91908E+03 -1.51923E+03  1.17040E+03
 -1.39316E+03  2.60333E+02 -8.10323E+02 -1.42132E+03 -8.31443E+02 -2.05353E+03  2.80372E+02 -1.18170E+03
  1.57167E+02 -3.77016E+02  8.18932E+02 -1.92942E+02  3.44898E+02 -8.42895E+02 -7.49898E+02  3.23660E+02
  1.12065E+01 -1.31872E+03 -1.28703E+02 -7.25925E+02  2.26511E+02  4.60734E+01  2.02453E+03  2.70206E+02
  1.16683E+03 -2.88304E+02  3.10409E+03  4.52941E+02  1.69494E+03  2.01153E+03 -9.29604E+02  1.19423E+03
 -1.12087E+03  4.79402E+02 -1.14971E+03 -2.18464E+02 -1.72748E+02 -1.58975E+03  9.91260E+02  7.77176E+02
  3.15599E+03 -1.00932E+03  4.07794E+02  8.04455E+02 -2.00799E+02  6.98174E+02 -9.69733E+02  1.49604E+02
 -1.37624E+03  9.25512E+02 -5.24502E+02 -8.25092E+02 -2.68405E+02  8.30925E+02  1.48538E+02  8.61319E+02
  4.96656E+01 -1.49172E+02 -4.42023E+02  3.53297E+02 -2.07638E+03  1.87229E+02 -1.89047E+03 -1.27099E+03
 -9.61362E+02 -1.40619E+03  1.32591E+03 -1.40753E+03 -8.59956E+01 -2.51502E+03  2.88027E+03 -1.53499E+03
  1.95202E+03 -1.68955E+02  1.05886E+03  1.23078E+03 -5.43024E+01  5.36056E+02 -1.61946E+03  1.77445E+03
 -1.36960E+03  9.63182E+02 -1.87010E+02 -2.59508E+01 -2.65695E+02  2.13846E+02 -1.22692E+03  5.85397E+02
 -9.40338E+02  9.66381E+02 -1.09699E+02  3.79870E+02  7.64169E+02  1.70459E+02  4.96817E+01 -1.04523E+03
  5.92777E+02 -1.25835E+02  7.04929E+02 -6.33498E+02  9.53990E+02 -1.83794E+02  7.61140E+02  7.80766E+02
 -5.22659E+02  1.80931E+03 -1.82223E+03  1.35312E+03 -8.23662E+02 -1.23094E+03 -9.60099E+02  3.02727E+02
 -8.37001E+02 -1.87665E+03  1.13935E+03 -1.00172E+03  7.78240E+02 -8.29098E+02  3.63595E+02  1.54122E+01
  1.17887E+03  5.82985E+02 -5.45474E+02  6.81393E+02 -9.66708E+01  1.44770E+02  2.02161E+01 -6.06520E+02
  1.75247E+02  3.17080E+02  3.36688E+02 -6.57852E+02  8.16910E+02  6.62159E+02  6.90167E+02  6.55720E+01
  5.07841E+02  3.16483E+02 -4.85241E+02  5.44474E+01  1.39004E+01 -5.27022E+02 -1.11769E+03 -3.01037E+02
  4.40179E+02 -1.54650E+03 -3.65026E+02  1.71059E+02  1.10926E+03 -1.20370E+03  1.53692E+02  1.17868E+03
  1.19174E+03 -9.54984E+02 -4.25799E+01  6.19511E+02  9.59125E+01 -1.41987E+02 -1.88892E+02 -5.35560E+02
  9.07165E+02  2.01521E+01 -1.68608E+03 -6.39859E+02 -1.07543E+03 -3.79575E+02 -1.05168E+03 -1.75970E+02
 -1.74307E+02  5.16865E+02 -5.56949E+02 -1.92520E+03  8.20485E+02 -6.51401E+02  6.90737E+02  4.92429E+02
 -1.68903E+02  1.29792E+02  9.28394E+01  4.05347E+02 -3.70275E+02  2.25317E+02 -1.33024E+02  4.24260E+02
