 $NMID ID='MM_0lb_SNR200_8hz_g60_98.RAW', FMTDAT='(8E13.5)'
 TRAMP=1., VOLUME=1. $END
  3.09912E+05  1.26420E+03  3.37394E+05  2.49967E+05  8.45767E+04  3.38864E+05 -1.33089E+05  2.51849E+05
 -1.89456E+05  8.43188E+04 -1.12605E+05 -3.31082E+04 -1.27489E+03 -5.16133E+04  5.63937E+04  1.73804E+01
  3.52765E+04  5.52924E+04 -1.64993E+04  7.59504E+04 -6.24434E+04  6.44689E+04 -8.57643E+04  3.23909E+04
 -8.25224E+04 -1.15312E+04 -5.87345E+04 -5.25576E+04 -1.48513E+04 -7.10221E+04  2.91611E+04 -4.77539E+04
  4.21359E+04  3.22830E+03  1.70246E+04  4.96632E+04 -3.54531E+04  4.83496E+04 -6.79943E+04 -1.33224E+02
 -5.68865E+04 -5.87784E+04 -7.11176E+03 -8.08226E+04  3.45624E+04 -5.86089E+04  5.16639E+04 -1.85223E+04
  4.50336E+04  1.31552E+04  3.24430E+04  2.81420E+04  1.49258E+04  3.07473E+04 -8.13598E+03  2.72710E+04
 -2.20511E+04  1.15966E+04 -1.57830E+04 -5.48928E+03  6.86328E+03 -6.66426E+03  2.41021E+04  1.53107E+04
  6.56502E+03  3.66217E+04 -3.49839E+04  3.70656E+04 -6.65781E+04  1.61264E+03 -5.98724E+04 -4.60464E+04
 -1.27610E+04 -6.70583E+04  4.15951E+04 -4.90131E+04  6.39160E+04 -7.02618E+02  3.90378E+04  3.70818E+04
 -7.90762E+03  3.86661E+04 -3.25196E+04  2.08015E+04 -3.24858E+04 -4.93597E+03 -2.12771E+04 -1.33495E+04
 -1.17528E+04 -1.57430E+04 -3.37406E+02 -2.05574E+04  1.00678E+04 -2.44523E+04  1.65891E+04 -1.14688E+04
  9.01995E+03  7.32039E+03 -1.17111E+04  1.28029E+04 -2.40599E+04 -7.68779E+03 -8.13171E+03 -4.01694E+04
  2.54718E+04 -4.91158E+04  5.45489E+04 -2.20506E+04  4.93687E+04  2.01250E+04  1.78734E+04  4.78310E+04
 -1.61100E+04  3.82615E+04 -2.79769E+04  3.81255E+03 -1.28226E+04 -2.99756E+04  2.08337E+04 -3.76355E+04
  4.60481E+04 -1.16778E+04  4.29387E+04  2.42123E+04  2.15604E+04  5.27888E+04 -7.55298E+03  5.85794E+04
 -3.72750E+04  3.92708E+04 -4.94930E+04  1.31698E+04 -4.89278E+04 -1.93322E+04 -2.62748E+04 -4.53972E+04
  9.57875E+03 -4.47476E+04  3.42689E+04 -1.82814E+04  3.29097E+04  9.39157E+03  6.53838E+03  2.06190E+04
 -1.35181E+04  8.88990E+03 -1.14941E+04 -7.20880E+03  5.52864E+03 -8.87521E+03  1.91658E+04  4.57571E+03
  1.62542E+04  2.36867E+04 -5.67120E+03  2.83123E+04 -2.31391E+04  1.62286E+04 -3.23014E+04 -1.27158E+03
 -2.58886E+04 -1.84980E+04 -1.42529E+04 -2.79412E+04  4.60713E+03 -2.85617E+04  2.14278E+04 -2.62353E+04
  3.28433E+04 -1.31461E+04  4.06108E+04  5.02665E+03  3.03685E+04  2.78286E+04  4.68203E+03  4.25386E+04
 -1.90521E+04  3.33549E+04 -3.12952E+04  1.23484E+04 -2.36856E+04 -9.89229E+03 -6.04349E+03 -1.29092E+04
  5.07980E+00  1.43504E+03 -9.47299E+03  7.24685E+03 -2.31726E+04  5.93016E+03 -2.15206E+04 -9.56931E+03
 -1.24398E+04 -2.53354E+04  6.74225E+03 -3.04749E+04  2.07858E+04 -2.01102E+04  2.34602E+04 -1.99168E+03
  1.54925E+04  1.75124E+04 -1.21724E+03  2.35214E+04 -1.77262E+04  1.37046E+04 -2.52628E+04 -3.95701E+03
 -1.85499E+04 -2.09375E+04 -2.79471E+03 -2.81228E+04  1.31175E+04 -2.56489E+04  2.55762E+04 -1.44501E+04
  2.24190E+04  3.28309E+01  1.63591E+04  4.30061E+03  9.40257E+03  3.67978E+03  1.22499E+04 -3.68467E+03
  2.18714E+04  1.92698E+03  2.73944E+04  1.92838E+04  1.91981E+04  4.07191E+04 -2.78415E+03  4.87392E+04
 -2.92791E+04  4.10321E+04 -4.72261E+04  2.15454E+04 -4.88835E+04 -3.42263E+03 -3.91029E+04 -2.86579E+04
 -1.55497E+04 -4.07152E+04  1.55683E+04 -3.70301E+04  3.10035E+04 -1.51050E+04  2.52871E+04  8.43869E+03
  7.65424E+03  2.08093E+04 -1.22173E+04  1.69435E+04 -2.07249E+04  1.40271E+03 -1.68910E+04 -1.63571E+04
 -1.46440E+03 -2.07292E+04  1.25241E+04 -1.55469E+04  1.32364E+04 -1.10375E+03  1.91602E+03  9.05664E+03
 -8.77959E+03  4.86277E+03 -1.09530E+04 -6.73494E+03 -1.77411E+03 -1.95851E+04  1.32987E+04 -2.41925E+04
  2.56762E+04 -1.37111E+04  2.97344E+04  3.04139E+03  2.54961E+04  1.90445E+04  1.37640E+04  3.44613E+04
 -6.69136E+03  3.39459E+04 -2.19407E+04  2.38788E+04 -2.36830E+04  3.61553E+03 -1.90171E+04 -4.50494E+03
 -6.13057E+03 -8.72915E+03 -1.03366E+03 -6.16997E+02 -3.28190E+03  3.55731E+03 -9.64391E+03  5.99280E+03
 -1.54082E+04 -9.54170E+02 -1.55895E+04 -1.10177E+04 -6.95354E+03 -2.12792E+04  6.58315E+03 -1.84467E+04
  1.35919E+04 -6.36307E+03  1.08984E+04  4.54182E+03 -1.24553E+02  6.47418E+03 -9.47834E+03 -8.72612E+02
 -8.32624E+03 -1.07206E+04 -3.96712E+02 -1.70253E+04  1.01459E+04 -1.71873E+04  2.32067E+04 -1.03867E+04
  2.66735E+04  3.71572E+03  1.80719E+04  1.61694E+04  3.40480E+03  2.07368E+04 -1.04832E+04  1.79518E+04
 -1.37789E+04  3.90720E+03 -6.48378E+03 -4.83117E+03  3.58006E+03 -5.41208E+03  9.54126E+03 -7.35701E+02
  9.22666E+03  7.75438E+03  2.38045E+03  1.31547E+04 -1.10644E+04  1.20928E+04 -1.86043E+04  5.28433E+03
 -1.21921E+04 -9.63270E+03 -8.57440E+02 -1.55431E+04  1.18666E+04 -6.53318E+03  1.18458E+04  5.56005E+03
  2.15356E+03  1.06220E+04 -8.92746E+03  1.40531E+04 -1.55806E+04  4.97155E+03 -1.73501E+04 -6.82900E+03
 -9.96450E+03 -1.78289E+04  5.57282E+03 -2.07933E+04  1.82893E+04 -1.19574E+04  2.04302E+04  2.58519E+03
  1.06157E+04  1.53319E+04 -2.07653E+03  1.76256E+04 -1.52512E+04  9.65077E+03 -1.52249E+04 -2.67837E+03
 -1.19494E+04 -1.25224E+04 -2.75272E+03 -1.40364E+04  7.29010E+03 -9.71585E+03  9.14200E+03 -4.12994E+03
  4.87908E+03  3.13619E+03 -1.91728E+03  3.15498E+03 -6.04813E+01 -4.94295E+03  4.51458E+03 -1.02284E+04
  1.34309E+04 -4.72594E+03  2.13796E+04  1.12229E+03  1.75145E+04  1.40682E+04  1.13349E+04  2.56553E+04
 -5.59404E+03  2.74397E+04 -2.35857E+04  1.98063E+04 -2.89184E+04  4.59594E+03 -2.38262E+04 -1.22278E+04
 -1.13694E+04 -2.03116E+04 -9.77749E+02 -1.67432E+04  4.95415E+03 -1.01219E+04  6.13021E+03 -6.45300E+03
  5.78776E+03 -1.47154E+03  4.03090E+03 -3.62456E+03  4.63728E+03 -4.87346E+03  8.20915E+03  1.44788E+02
  1.33747E+04  1.10490E+03  9.10164E+03  1.14589E+04 -2.48226E+03  1.26252E+04 -1.38959E+04  8.88068E+03
 -1.70065E+04 -5.96578E+02 -1.18715E+04 -1.36841E+04 -2.00505E+03 -2.01071E+04  8.88204E+03 -1.92377E+04
  1.98792E+04 -9.83993E+03  2.35055E+04  4.37286E+03  1.61945E+04  1.61709E+04  2.32375E+03  2.22947E+04
 -7.71281E+03  1.71004E+04 -1.26967E+04  5.68621E+03 -8.26476E+03 -3.13996E+03 -4.21643E+03 -1.84964E+03
 -2.61180E+03  2.16569E+02 -2.36693E+03  4.67258E+03 -7.93612E+03  3.88574E+03 -1.31682E+04 -1.97817E+03
 -1.04000E+04 -1.28941E+04 -2.82045E+00 -1.74790E+04  9.54235E+03 -1.58345E+04  1.89550E+04 -6.08546E+03
  1.78917E+04  8.39293E+03  7.74877E+03  1.62934E+04 -3.72910E+03  1.75555E+04 -1.19908E+04  1.10538E+04
 -1.81530E+04  8.23381E+02 -1.37510E+04 -9.69546E+03 -1.51877E+03 -1.45673E+04  7.12567E+03 -1.06309E+04
  1.06592E+04 -4.09750E+03  6.39869E+03  2.85348E+03  4.21364E+03  4.56834E+03  6.04630E+02  1.94635E+03
  2.14166E+03  1.03287E+03  6.05784E+03  9.35243E+02  5.43656E+03  6.63259E+03  2.12065E+03  1.02703E+04
 -2.68465E+03  1.49838E+04 -1.44286E+04  1.53380E+04 -1.95493E+04  3.01431E+03 -2.03480E+04 -6.38817E+03
 -9.42293E+03 -1.70121E+04  2.57732E+03 -2.01065E+04  1.32451E+04 -1.35267E+04  1.56113E+04 -4.62000E+03
  1.04235E+04  6.75648E+03  2.08254E+03  1.11229E+04 -6.81704E+03  8.11147E+03 -7.18547E+03 -1.50272E+03
 -4.36029E+03 -8.35250E+03  3.30276E+03 -8.09181E+03  7.35945E+03 -3.48151E+03  7.28991E+03  1.02618E+03
  3.77651E+03  4.47890E+03  2.13071E+03  5.50725E+03  1.34908E+02  2.81638E+03  9.74820E+02 -1.56992E+03
  2.81230E+03 -3.22315E+02  5.36034E+03  2.63050E+03  5.18980E+03  1.06079E+04 -1.90666E+03  1.28247E+04
 -9.83404E+03  8.95015E+03 -1.19963E+04  2.03817E+03 -1.34813E+04 -5.14183E+03 -3.03179E+03 -7.31887E+03
  1.45188E+03 -8.19121E+03  6.06417E+03 -3.54609E+03  4.49770E+03  2.45584E+03 -1.92636E+03  5.96045E+03
 -8.63683E+03  5.04746E+03 -8.95692E+03 -3.67852E+03 -4.32704E+03 -1.01293E+04  1.15277E+03 -1.01662E+04
  6.97709E+03 -7.51420E+03  8.23786E+03 -7.43998E+02  5.96289E+03  1.75463E+03 -1.01108E+03  5.94223E+03
 -3.68530E+03  1.53601E+03 -5.53019E+03 -2.76331E+03  7.54589E+02 -8.35646E+03  1.07750E+04 -8.59764E+03
  1.55099E+04  4.77379E+02  1.19401E+04  8.07776E+03  4.98140E+03  1.14748E+04 -6.20208E+03  1.10772E+04
 -1.09095E+04  6.33957E+03 -1.16631E+04 -1.38328E+03 -4.88144E+03 -8.92977E+03  1.39201E+03 -9.29657E+03
  9.90599E+03 -4.03984E+03  4.69943E+03  2.61638E+03  1.75697E+03  6.29116E+03 -1.95257E+03  4.52646E+03
 -3.62300E+03  4.22693E+03 -2.64071E+03  1.95247E+03 -1.90093E+03 -1.88468E+02 -2.61837E+03  1.06611E+03
 -3.93050E+03  4.20618E+03 -8.54684E+03  3.74803E+03 -1.19499E+04  1.68968E+03 -1.32132E+04 -6.78478E+03
 -6.57228E+03 -1.62752E+04  3.29019E+03 -2.02734E+04  1.29135E+04 -1.58893E+04  1.73595E+04 -5.90649E+03
  1.71874E+04  4.59082E+03  1.12294E+04  1.31050E+04  1.71848E+03  1.42777E+04 -6.17453E+03  8.39634E+03
 -6.38207E+03  4.47682E+03 -3.77580E+03 -6.35001E+02 -1.14113E+03 -1.23139E+03  9.39669E+01 -8.73559E+02
 -3.49528E+03 -1.42705E+03 -8.92536E+02 -2.35056E+03 -1.49974E+03 -3.02622E+03  4.43429E+02 -3.81680E+03
  5.50880E+03 -3.74181E+03  9.03621E+03 -1.37517E+03  8.53880E+03  6.23621E+03  3.50418E+03  1.46837E+04
 -6.79775E+03  1.43191E+04 -1.50438E+04  8.29173E+03 -1.56185E+04 -9.34612E+02 -1.31314E+04 -1.02409E+04
 -5.80779E+03 -1.44417E+04  2.38957E+03 -1.12092E+04  1.05807E+04 -6.09987E+03  8.62408E+03 -4.09454E+01
  4.19898E+03  3.13591E+03 -7.11813E+02  2.07686E+03 -5.70090E+02 -1.25353E+03 -5.45044E+02 -3.33312E+03
  3.79032E+03 -1.11141E+03  7.56532E+03  1.05274E+03  2.33442E+03  3.49407E+03 -1.28358E+03  6.58136E+03
 -5.12766E+03  7.01908E+03 -8.03538E+03 -2.70141E+01 -7.92989E+03 -6.24083E+03  1.02482E+02 -1.12710E+04
  5.72722E+03 -1.09138E+04  9.98364E+03 -2.59887E+03  9.43736E+03  3.39384E+03  6.74148E+03  8.31288E+03
  1.44951E+03  1.05702E+04 -4.06725E+03  7.25533E+03 -6.08995E+03  4.25784E+03 -5.27573E+03 -5.42027E+01
 -2.90469E+03 -8.73764E+02 -2.77197E+03  6.03709E+02 -5.15053E+03  1.63262E+03 -7.89953E+03 -1.63938E+03
 -6.59629E+03 -3.69643E+03 -2.37151E+03 -1.06227E+04  5.32509E+03 -1.02681E+04  1.01636E+04 -3.47866E+03
  1.00274E+04  2.15237E+02  6.39082E+03  6.36660E+03 -4.35193E+02  1.05477E+04 -7.67926E+03  6.24060E+03
