 $NMID ID='MM_0lb_SNR200_13hz_g60_61.RAW', FMTDAT='(8E13.5)'
 TRAMP=1., VOLUME=1. $END
  3.08855E+05  1.44290E+03  3.37929E+05  2.50385E+05  8.34406E+04  3.39215E+05 -1.32748E+05  2.51810E+05
 -1.89934E+05  8.25171E+04 -1.12925E+05 -3.28612E+04  6.20312E+02 -4.98441E+04  5.43528E+04 -1.79858E+03
  3.57819E+04  5.26492E+04 -1.68156E+04  7.50567E+04 -6.18090E+04  6.44149E+04 -8.46570E+04  3.12094E+04
 -8.26526E+04 -1.21785E+04 -5.82996E+04 -5.22298E+04 -1.42749E+04 -7.15953E+04  2.75869E+04 -4.70444E+04
  4.08392E+04  3.84115E+03  1.71417E+04  4.88090E+04 -3.45975E+04  4.77097E+04 -6.68666E+04 -7.17793E+02
 -5.39616E+04 -5.70096E+04 -7.73838E+03 -7.74859E+04  3.44004E+04 -5.54099E+04  4.84683E+04 -1.66436E+04
  4.45266E+04  1.31008E+04  3.26493E+04  2.44250E+04  1.35018E+04  3.05130E+04 -4.33603E+03  2.77197E+04
 -2.29343E+04  1.21459E+04 -1.78866E+04 -5.67238E+03  6.26168E+03 -9.16438E+03  2.36823E+04  1.44240E+04
  8.56132E+03  3.60724E+04 -3.43869E+04  3.64448E+04 -6.54278E+04  2.01437E+03 -5.76023E+04 -4.39423E+04
 -1.20679E+04 -6.48320E+04  4.12356E+04 -4.63205E+04  6.02003E+04 -2.12759E+03  3.56705E+04  3.37559E+04
 -6.26493E+03  3.80905E+04 -3.06439E+04  1.64958E+04 -3.18132E+04 -3.96710E+03 -1.82544E+04 -1.20149E+04
 -8.78993E+03 -1.45062E+04 -4.77994E+01 -2.00686E+04  7.00683E+03 -2.39471E+04  1.49081E+04 -1.33979E+04
  1.11355E+04  5.55757E+03 -1.00806E+04  1.31460E+04 -2.14348E+04 -4.47774E+03 -9.07064E+03 -3.52244E+04
  2.48245E+04 -4.60852E+04  5.04547E+04 -1.98572E+04  4.85554E+04  2.10094E+04  1.60349E+04  4.60120E+04
 -1.67672E+04  3.57973E+04 -2.55775E+04  2.93226E+03 -1.06548E+04 -2.77729E+04  2.07117E+04 -3.48793E+04
  4.37062E+04 -9.43658E+03  3.79489E+04  2.48027E+04  1.99977E+04  4.93548E+04 -7.30120E+03  5.30351E+04
 -3.36762E+04  3.66678E+04 -4.42945E+04  1.05751E+04 -4.61711E+04 -1.72214E+04 -2.44030E+04 -3.92248E+04
  7.46526E+03 -4.08362E+04  3.28029E+04 -1.57157E+04  3.02131E+04  1.08741E+04  3.86776E+03  1.89860E+04
 -1.27134E+04  8.79399E+03 -1.02624E+04 -9.03723E+03  6.12788E+03 -1.02555E+04  1.98170E+04  5.69961E+03
  1.44658E+04  2.19023E+04 -4.72614E+03  2.72405E+04 -2.26343E+04  1.29197E+04 -2.97167E+04 -3.24217E+03
 -2.20624E+04 -1.91689E+04 -1.00333E+04 -2.26939E+04  4.31855E+03 -2.14879E+04  1.85693E+04 -2.05390E+04
  2.76706E+04 -1.38045E+04  3.51124E+04  4.10826E+03  2.51541E+04  2.16034E+04  4.56724E+03  3.79871E+04
 -1.93555E+04  3.06374E+04 -2.90216E+04  1.19075E+04 -2.19885E+04 -1.03652E+04 -4.25071E+03 -1.19923E+04
  1.64288E+03 -3.06652E+03 -6.92366E+03  7.51051E+03 -1.77667E+04  5.00302E+03 -1.82468E+04 -9.45182E+03
 -1.06150E+04 -2.03871E+04  4.83115E+03 -2.46633E+04  1.78829E+04 -1.75824E+04  2.24951E+04 -1.16022E+03
  1.27889E+04  1.37167E+04 -9.59282E+02  2.07958E+04 -1.52929E+04  1.23914E+04 -2.18296E+04 -4.08842E+03
 -1.56113E+04 -1.91911E+04 -2.45971E+03 -2.61469E+04  1.10016E+04 -2.18399E+04  2.04163E+04 -1.03396E+04
  2.05688E+04 -3.96342E+02  1.48981E+04  4.33235E+03  7.81852E+03  7.85844E+02  9.86725E+03 -9.78229E+02
  1.91711E+04  3.05253E+03  2.20600E+04  1.71036E+04  1.44136E+04  3.28113E+04 -3.14189E+03  3.86464E+04
 -2.15475E+04  3.16926E+04 -3.60861E+04  1.62603E+04 -3.86499E+04 -3.61246E+03 -3.16938E+04 -2.23942E+04
 -1.29790E+04 -3.18006E+04  1.00461E+04 -2.77453E+04  2.30632E+04 -1.41775E+04  2.16296E+04  7.50923E+03
  7.14074E+03  1.60795E+04 -9.53762E+03  1.48229E+04 -1.80414E+04  1.81375E+03 -1.30828E+04 -1.12064E+04
  1.40622E+03 -1.71754E+04  1.01704E+04 -1.26444E+04  1.09236E+04 -1.32860E+03  1.47625E+03  7.09504E+03
 -7.69257E+03  2.42003E+03 -8.26923E+03 -5.31362E+03 -2.13283E+03 -1.45738E+04  1.01715E+04 -1.57922E+04
  1.93202E+04 -8.69444E+03  2.09893E+04  5.58495E+03  1.82243E+04  1.50879E+04  8.48751E+03  2.35682E+04
 -3.87349E+03  2.59092E+04 -1.65228E+04  1.58399E+04 -1.85743E+04  4.15649E+03 -1.32847E+04 -5.58500E+03
 -6.91093E+03 -4.55817E+03 -1.25799E+03  1.00883E+03 -2.02433E+03  2.96433E+03 -5.99148E+03  4.20980E+03
 -1.18254E+04 -1.62020E+03 -1.31422E+04 -9.36771E+03 -4.82790E+03 -1.62786E+04  5.53198E+03 -1.29016E+04
  1.02016E+04 -5.82765E+03  9.03911E+03  3.80211E+03  4.73226E+02  6.36560E+03 -5.51954E+03  1.09725E+03
 -4.95519E+03 -7.97082E+03 -4.05636E+02 -1.21673E+04  7.83037E+03 -1.36388E+04  1.68849E+04 -6.46436E+03
  1.85615E+04  1.23478E+03  1.50059E+04  1.11316E+04  1.31184E+03  1.52109E+04 -8.15498E+03  1.38924E+04
 -1.08886E+04  4.07774E+03 -4.74896E+03 -2.04705E+03  2.13821E+03 -3.00499E+03  6.57622E+03 -1.22747E+03
  5.02022E+03  3.99515E+03  1.34827E+03  1.03627E+04 -7.66638E+03  1.03914E+04 -1.26007E+04  2.54139E+03
 -7.62104E+03 -6.00514E+03 -1.30296E+02 -9.59687E+03  6.27646E+03 -5.27110E+03  6.92311E+03  2.23800E+03
  1.50330E+02  6.83073E+03 -7.83370E+03  9.58341E+03 -9.13772E+03  5.69319E+03 -9.28090E+03 -4.02733E+03
 -6.19959E+03 -1.21696E+04  2.51804E+03 -1.50409E+04  1.13165E+04 -7.11140E+03  1.33617E+04  1.56649E+03
  7.55858E+03  1.05872E+04 -1.03615E+01  1.21945E+04 -8.30270E+03  6.55134E+03 -1.01476E+04 -7.48533E+02
 -8.85606E+03 -7.75643E+03 -2.20644E+03 -8.92222E+03  4.24585E+03 -8.43567E+03  6.15441E+03 -3.40387E+03
  4.09814E+03  9.63550E+02 -3.34274E+02  3.13601E+03 -9.92434E+02 -1.65887E+03  2.84328E+03 -4.36506E+03
  8.28080E+03 -4.82639E+03  1.24553E+04  1.76445E+03  1.08744E+04  9.04965E+03  8.33615E+03  1.58052E+04
 -2.67232E+03  1.80755E+04 -1.54344E+04  1.19604E+04 -1.82458E+04  2.52259E+03 -1.45764E+04 -7.31739E+03
 -7.66010E+03 -1.26736E+04  1.21959E+02 -1.03530E+04  3.85527E+03 -5.41624E+03  4.25883E+03 -2.44201E+03
  3.11677E+03 -2.90343E+03  3.43021E+03 -3.53058E+03  5.93725E+03 -3.82498E+03  4.50212E+03 -2.77097E+02
  8.41136E+03  1.78782E+03  3.95915E+03  6.72845E+03 -2.06708E+03  7.06913E+03 -9.52806E+03  5.91443E+03
 -1.10009E+04 -1.96689E+03 -5.40341E+03 -6.85123E+03 -1.13088E+02 -1.18807E+04  6.22992E+03 -1.19220E+04
  1.09578E+04 -5.28110E+03  1.27350E+04  2.31529E+03  9.59970E+03  7.83948E+03  1.68356E+03  1.22861E+04
 -5.09349E+03  9.86633E+03 -7.11572E+03  4.52436E+03 -6.19981E+03 -1.27913E+03 -1.26017E+03 -1.84544E+03
  1.32988E+02  1.48827E+03 -1.89132E+03  1.89758E+03 -4.68621E+03  1.62764E+03 -6.87080E+03  2.13321E+02
 -5.54698E+03 -7.20628E+03 -1.11858E+03 -1.01795E+04  6.10757E+03 -9.86984E+03  8.91236E+03 -3.53486E+03
  9.33285E+03  4.72526E+03  4.43795E+03  8.82421E+03 -1.03809E+03  9.86206E+03 -6.67352E+03  6.50595E+03
 -9.90910E+03  1.69708E+03 -7.84445E+03 -6.29861E+03 -6.03069E+02 -7.25961E+03  4.66682E+03 -6.23722E+03
  5.47831E+03 -1.11514E+03  4.10807E+03  1.57780E+03  7.51197E+02  1.87604E+03  9.56247E+02  8.99279E+02
  2.29192E+03  9.52499E+02  1.25352E+03  2.46542E+03  3.43205E+03  5.39237E+03  2.49996E+03  4.24354E+03
 -3.07430E+03  7.63877E+03 -6.70787E+03  7.39539E+03 -1.00430E+04  1.81600E+03 -9.56723E+03 -2.83720E+03
 -4.48394E+03 -9.09497E+03  1.11258E+03 -1.10990E+04  4.51679E+03 -6.38343E+03  7.72290E+03 -1.87879E+03
  6.45722E+03  2.80205E+03  2.09386E+03  7.22099E+03 -2.62307E+03  2.63639E+03 -2.72123E+03 -1.09807E+03
 -7.31891E+02 -4.57733E+03  1.65659E+03 -3.24286E+03  3.55950E+03 -2.79754E+03  3.22317E+03  7.08208E+02
  7.07596E+02  1.06602E+03  1.05874E+03  6.58418E+02  4.37947E+02  2.62913E+03  8.59356E+02  5.70493E+01
  8.67263E+02 -3.85439E+02  4.73390E+03  9.76647E+02  8.95565E+02  5.41650E+03 -3.80252E+02  7.41929E+03
 -3.59038E+03  4.76459E+03 -5.66660E+03  9.07588E+02 -4.37686E+03 -2.87939E+03 -2.98851E+03 -3.29424E+03
 -1.40349E-01 -4.62184E+03  1.57619E+03 -2.11805E+03  3.22856E+03  1.92545E+03 -1.69259E+03  2.91531E+03
 -4.18896E+03  3.58955E+03 -4.50027E+03 -3.17680E+03 -2.50002E+03 -5.38052E+03  5.46246E+02 -5.46360E+03
  3.30970E+03 -2.54248E+03  2.60940E+03 -4.25035E+02  2.41381E+03  1.37997E+03  1.22950E+02  2.53089E+03
 -1.35759E+03  1.52055E+02 -1.90993E+03 -2.74881E+03 -2.18045E+02 -4.28098E+03  4.79158E+03 -3.60749E+03
  4.76640E+03 -6.94196E+02  5.28022E+03  2.98492E+03  1.87544E+03  6.38336E+03 -4.90298E+02  5.13057E+03
 -4.11825E+03  2.06660E+03 -4.90802E+03 -8.98957E+02 -1.94104E+03 -4.05400E+03  1.80433E+03 -4.49685E+03
  3.91415E+03 -1.51286E+03  3.35152E+03  2.95338E+03  1.42797E+03  2.65230E+03  2.29974E+02  2.63493E+03
 -9.68453E+02  2.20968E+03 -1.81096E+02 -2.46251E+01 -6.80586E+02  7.29069E+02 -2.09788E+03  1.98667E+03
 -1.88975E+03  2.85124E+03 -4.36681E+03  1.15597E+03 -4.69346E+03 -4.79765E+01 -6.85968E+03 -2.27350E+03
 -3.29407E+03 -6.45368E+03  1.78049E+03 -8.41627E+03  3.94106E+03 -7.98794E+03  8.14044E+03 -2.21787E+03
  6.48942E+03  1.04425E+03  5.12416E+03  3.99374E+03  5.18621E+02  5.57279E+03 -4.04417E+03  3.75735E+03
 -3.52958E+03  2.54802E+03 -1.76513E+03 -6.53603E+02 -1.39788E+03 -8.43293E+02 -2.28174E+01 -6.00033E+02
 -4.46511E+02  1.46433E+03 -1.54746E+03 -1.15286E+03  4.29536E+02 -5.46366E+02  7.26024E+02 -1.17589E+03
  2.78104E+03 -1.88582E+03  2.36243E+03  6.58130E+02  4.87734E+03  2.83014E+03 -3.09963E+02  4.88063E+03
 -2.09274E+03  6.89165E+03 -6.25122E+03  3.84089E+03 -6.04034E+03 -9.49468E+02 -4.61611E+03 -3.91139E+03
 -1.94603E+03 -5.20807E+03  1.65542E+03 -5.97484E+03  2.31992E+03 -5.01789E+02  2.38581E+03  3.06557E+02
  1.53292E+03  1.65473E+03 -2.84604E+02  1.05921E+03 -1.52279E+03 -8.71824E+02 -1.36100E+02 -2.03731E+03
  2.05076E+03 -5.33811E+02  1.44153E+03  3.37768E+02  1.24794E+03  2.57387E+03 -1.33434E+02  2.31357E+03
 -2.38340E+03  1.68990E+03 -2.85396E+03  1.64690E+03 -2.99742E+03 -2.43228E+03  9.39178E+02 -1.99933E+03
  3.31166E+03 -2.27066E+03  3.17244E+03 -6.61357E+02  3.07731E+03 -4.03671E+02  3.16585E+03  2.77210E+03
 -2.17072E+02  2.61086E+03 -4.73189E+02  3.88481E+03 -1.41973E+03  1.08233E+03 -5.42026E+02 -1.09134E+03
 -1.56800E+03 -4.86502E+02 -2.38878E+03  6.56868E+02 -1.57252E+03  1.16762E+03 -2.93622E+03 -1.03442E+03
 -4.90942E+03 -2.13740E+03 -6.06896E+02 -3.12010E+03  1.79221E+03 -3.81342E+03  1.90457E+03 -1.48822E+03
  4.46450E+03  1.11942E+03  2.71863E+02  1.50399E+03 -1.87959E+03  3.39902E+03 -2.90633E+03  1.62744E+03
