 $NMID ID='MM_0lb_SNR200_15hz_g50_27.RAW', FMTDAT='(8E13.5)'
 TRAMP=1., VOLUME=1. $END
  3.09296E+05 -1.13525E+03  3.37452E+05  2.50966E+05  8.53696E+04  3.37495E+05 -1.31865E+05  2.51608E+05
 -1.90776E+05  8.31655E+04 -1.11746E+05 -3.24774E+04 -8.96841E+02 -5.02827E+04  5.27324E+04 -1.77450E+02
  3.46747E+04  5.38670E+04 -1.72588E+04  7.59761E+04 -6.17969E+04  6.28283E+04 -8.34280E+04  3.03570E+04
 -7.99388E+04 -1.08983E+04 -5.84361E+04 -5.19355E+04 -1.59927E+04 -6.86984E+04  2.66172E+04 -4.59674E+04
  3.94103E+04  3.20742E+03  1.60616E+04  4.85317E+04 -3.33679E+04  4.70455E+04 -6.73250E+04  7.04182E+02
 -5.32323E+04 -5.61503E+04 -7.06175E+03 -7.63156E+04  3.38553E+04 -5.49523E+04  4.71884E+04 -1.73157E+04
  4.32846E+04  1.07612E+04  3.12562E+04  2.48151E+04  1.58800E+04  2.97426E+04 -5.72732E+03  2.73090E+04
 -2.11732E+04  1.12647E+04 -1.83326E+04 -5.46348E+03  5.45684E+03 -8.29825E+03  2.20076E+04  1.11795E+04
  7.57076E+03  3.40319E+04 -3.15764E+04  3.57829E+04 -6.38996E+04  1.83214E+03 -5.66356E+04 -4.27991E+04
 -1.41393E+04 -6.37995E+04  3.90074E+04 -4.55987E+04  5.78780E+04 -3.12231E+03  3.31029E+04  3.27244E+04
 -4.68945E+03  3.67737E+04 -2.90855E+04  1.61560E+04 -2.99449E+04 -4.76895E+03 -1.60106E+04 -9.54761E+03
 -8.26409E+03 -1.43461E+04 -1.54848E+03 -1.81793E+04  7.44783E+03 -2.32743E+04  1.56672E+04 -1.31128E+04
  1.22203E+04  4.42228E+03 -8.59325E+03  1.32288E+04 -2.15176E+04 -4.05471E+03 -8.01587E+03 -3.28263E+04
  2.22683E+04 -4.37564E+04  4.73001E+04 -1.98335E+04  4.43275E+04  1.78337E+04  1.58009E+04  4.38235E+04
 -1.48702E+04  3.23142E+04 -2.52871E+04  3.39794E+02 -9.04280E+03 -2.63753E+04  2.07955E+04 -3.40900E+04
  4.01058E+04 -9.23718E+03  3.47166E+04  2.40520E+04  1.78338E+04  4.51648E+04 -8.95133E+03  4.83028E+04
 -3.21887E+04  3.34873E+04 -4.14753E+04  9.69081E+03 -4.18426E+04 -1.80011E+04 -2.22571E+04 -3.75159E+04
  7.42640E+03 -3.69027E+04  3.11214E+04 -1.32081E+04  2.82284E+04  1.11172E+04  3.97761E+03  1.95886E+04
 -1.39408E+04  7.30597E+03 -9.63931E+03 -6.79211E+03  5.87950E+03 -9.32604E+03  1.79254E+04  6.66692E+03
  1.35163E+04  2.20066E+04 -6.43349E+03  2.53851E+04 -2.17153E+04  1.21671E+04 -2.68505E+04 -4.40970E+03
 -1.97332E+04 -1.68684E+04 -8.28879E+03 -1.95844E+04  3.27318E+03 -1.78948E+04  1.45589E+04 -1.67208E+04
  2.61355E+04 -1.14758E+04  3.07195E+04  1.51200E+03  2.36493E+04  2.04458E+04  3.09121E+03  3.61526E+04
 -1.84608E+04  2.97755E+04 -2.74004E+04  1.09422E+04 -2.13225E+04 -9.58082E+03 -4.45296E+03 -1.41340E+04
  1.73365E+03 -3.35036E+03 -4.11928E+03  6.71571E+03 -1.49654E+04  4.03810E+03 -1.48167E+04 -7.75163E+03
 -9.45801E+03 -1.86020E+04  5.38391E+03 -2.28465E+04  1.45877E+04 -1.57018E+04  1.82578E+04 -1.73354E+03
  1.04417E+04  1.22226E+04 -1.56014E+03  1.89717E+04 -1.24589E+04  1.02890E+04 -1.85465E+04 -4.95771E+03
 -1.21423E+04 -1.56920E+04 -1.76080E+03 -2.03817E+04  9.29604E+03 -1.71198E+04  1.91192E+04 -9.23874E+03
  1.66979E+04  1.55639E+01  1.24715E+04  4.20517E+03  6.16502E+03  3.54608E+02  9.80666E+03 -1.71952E+03
  1.60404E+04  1.57896E+03  1.69003E+04  1.48995E+04  1.19514E+04  2.90970E+04 -2.70285E+03  3.20242E+04
 -1.94959E+04  2.58949E+04 -2.99293E+04  1.29607E+04 -3.16747E+04 -1.57557E+03 -2.71526E+04 -1.79679E+04
 -1.22161E+04 -2.59726E+04  9.12744E+03 -2.29544E+04  2.01603E+04 -1.15801E+04  1.84706E+04  5.25486E+03
  5.97714E+03  1.37198E+04 -7.76487E+03  1.24905E+04 -1.48639E+04  2.86510E+03 -1.08088E+04 -9.08402E+03
  8.64984E+02 -1.36852E+04  7.16978E+03 -1.13944E+04  8.89462E+03 -2.17352E+03  2.56114E+03  6.07281E+03
 -6.44495E+03  2.80114E+03 -6.07945E+03 -4.93192E+03 -1.27955E+02 -1.33051E+04  9.02932E+03 -1.37159E+04
  1.60394E+04 -6.33812E+03  1.77844E+04  2.87749E+03  1.48854E+04  1.34068E+04  7.03790E+03  1.98422E+04
 -3.52934E+03  2.08624E+04 -1.36739E+04  1.37891E+04 -1.42204E+04  2.22645E+03 -1.08020E+04 -2.02888E+03
 -6.38284E+03 -4.64773E+03 -1.07690E+03  1.48646E+03 -2.47549E+03  2.35991E+03 -5.26855E+03  4.44478E+03
 -8.83529E+03 -1.83627E+03 -1.07537E+04 -8.70433E+03 -4.67120E+03 -1.42540E+04  4.68618E+03 -1.08267E+04
  8.38898E+03 -4.84367E+03  6.84296E+03  2.03001E+03  7.62428E+02  3.92903E+03 -5.02961E+03 -4.77196E+02
 -3.73302E+03 -5.80059E+03 -1.02860E+03 -1.03008E+04  5.75176E+03 -1.02204E+04  1.40575E+04 -5.05184E+03
  1.55244E+04  1.46470E+03  1.12797E+04  8.55581E+03  3.24513E+03  1.20156E+04 -6.09283E+03  9.37958E+03
 -9.85284E+03  3.15247E+03 -4.92139E+03 -1.35953E+03  2.32132E+03 -2.15792E+03  5.76020E+03 -2.65052E+02
  5.98561E+03  5.14932E+03  2.59840E+03  9.27059E+03 -6.45804E+03  8.59056E+03 -1.00326E+04  2.56972E+03
 -6.23985E+03 -5.03384E+03 -5.88888E+02 -1.03151E+04  4.41768E+03 -4.23827E+03  4.48448E+03  2.81845E+03
  1.65038E+03  6.30366E+03 -4.93395E+03  5.99980E+03 -7.98254E+03  3.19399E+03 -7.56027E+03 -3.50501E+03
 -4.40117E+03 -8.57555E+03  1.52601E+03 -9.45733E+03  9.45569E+03 -6.57317E+03  1.02824E+04  1.40558E+03
  6.69969E+03  7.26671E+03  1.20381E+02  1.15530E+04 -6.10484E+03  5.90647E+03 -7.00625E+03 -5.62600E+02
 -6.41329E+03 -6.24119E+03 -1.53401E+03 -7.24832E+03  3.59362E+03 -5.70535E+03  3.70058E+03 -2.17778E+03
  4.00969E+03  1.29450E+03  1.44504E+02  6.65214E+02  9.15007E+00 -8.51053E+02  2.17550E+02 -3.23668E+03
  6.12638E+03 -2.62432E+03  8.97283E+03  1.61048E+03  8.85852E+03  5.94920E+03  5.78099E+03  1.15560E+04
 -2.26468E+03  1.31915E+04 -1.06065E+04  8.62721E+03 -1.30982E+04  1.49877E+03 -1.15813E+04 -4.57606E+03
 -5.63040E+03 -9.42043E+03 -2.14591E+02 -8.42951E+03  3.81641E+03 -3.43154E+03  2.71520E+03 -3.60564E+03
  2.52857E+03 -8.38786E+02  2.48998E+03 -2.57389E+03  3.92563E+03 -1.73469E+03  4.35795E+03  7.60587E+02
  7.55933E+03  2.30720E+03  2.69598E+03  3.33911E+03 -2.01134E+03  5.22513E+03 -6.98349E+03  3.44112E+03
 -7.67126E+03 -8.20030E+02 -4.77946E+03 -4.90003E+03  1.01979E+02 -7.39407E+03  4.93231E+03 -8.52833E+03
  8.03744E+03 -5.15840E+03  9.74139E+03  8.04542E+02  7.50670E+03  6.68416E+03  2.31594E+03  8.00938E+03
 -4.93470E+03  7.88189E+03 -5.42842E+03  2.07546E+03 -3.62437E+03 -1.66863E+03 -1.86233E+03 -7.81809E+02
 -1.10489E+03  1.12032E+03 -1.08259E+03  1.79406E+03 -3.52025E+03  2.05398E+03 -5.58921E+03  9.88982E+02
 -3.35313E+03 -5.08867E+03  5.95321E+02 -6.54813E+03  4.02183E+03 -6.92492E+03  7.15156E+03 -2.10619E+03
  6.01388E+03  3.48690E+03  3.12179E+03  5.30740E+03 -2.19718E+03  6.37048E+03 -5.14741E+03  4.45849E+03
 -6.60674E+03  2.81882E+02 -5.52992E+03 -3.17231E+03 -3.38674E+02 -4.53140E+03  2.78551E+03 -4.10545E+03
  4.15889E+03 -1.31201E+03  2.04207E+03  7.48820E+02  8.49123E+02  2.47231E+03  1.43319E+03 -5.48572E+02
  2.34708E+03 -4.24949E+01  5.22074E+02  9.32088E+02  8.71328E+02  3.25708E+03  2.08111E+03  3.30950E+03
 -2.10582E+03  5.43266E+03 -3.47431E+03  6.38615E+03 -6.31560E+03  1.42904E+03 -6.77657E+03 -1.93659E+03
 -3.92274E+03 -6.07647E+03  2.76124E+02 -8.20042E+03  3.75852E+03 -4.92168E+03  5.71270E+03 -4.89948E+02
  4.30981E+03  2.56620E+03  1.65447E+03  3.90326E+03 -1.64301E+02  2.98990E+03 -2.35211E+03 -5.74490E+02
 -1.98448E+03 -2.10322E+03  1.10891E+02 -1.83498E+03  2.53544E+03 -1.59809E+03  2.45634E+03  1.15837E+03
  1.37790E+03 -2.62938E+02  1.40899E+03  8.93202E+02 -8.34739E+02  1.81760E+03  8.17989E+02 -9.89663E+02
  3.17060E+02  8.00670E+02  3.64777E+03  1.62853E+03 -1.22127E+02  4.45792E+03  8.81927E+01  4.15655E+03
 -1.84276E+03  2.42956E+03 -2.23919E+03  5.06800E+02 -4.84164E+03 -1.99663E+03 -1.03686E+03 -1.86879E+03
  1.79959E+03 -1.37980E+03  2.00534E+03  7.71044E+01  6.29245E+02  1.68766E+03  6.61932E+02  1.70662E+03
 -2.44873E+03  1.60810E+03 -1.85164E+03 -2.29024E+03 -1.94159E+02 -2.91214E+03  9.11527E+02 -3.26176E+03
  1.56623E+03 -9.15173E+02  1.59906E+03 -3.31525E+02  3.22160E+03  3.37849E+02  5.93618E+02  1.49082E+03
 -1.15135E+03  1.95653E+03 -1.05552E+03 -1.71480E+02  9.29218E+02 -2.21953E+03  2.42249E+03 -6.42135E+02
  3.66641E+03  2.12474E+02  4.37966E+03  1.67123E+03  1.33375E+03  3.24721E+03 -7.75763E+02  3.94020E+03
 -3.10858E+03  4.63436E+02 -2.34216E+03 -7.25385E+02 -2.76880E+03 -2.45519E+03  1.11606E+03 -2.16896E+03
  2.55251E+03 -9.81795E+02  1.18412E+03 -6.60541E+01 -2.88721E+02  9.70371E+02 -4.70112E+01  1.61282E+03
 -5.59098E+02  1.74020E+03 -5.38628E+02  5.57766E+02  9.46398E+02  1.00435E+03 -1.43870E+03  1.32395E+03
 -2.03215E+03  1.94288E+03 -1.55650E+03  9.04625E+02 -3.14306E+03 -2.86675E+02 -4.54508E+03 -1.43472E+03
 -2.18039E+03 -3.13644E+03  1.07138E+03 -5.75047E+03  2.47815E+03 -4.69266E+03  5.61194E+03 -1.53395E+03
  4.60301E+03  1.62530E+03  4.31141E+03  2.88282E+03 -9.75485E+02  3.38217E+03 -1.87569E+03  1.95277E+03
 -2.63145E+03  7.66538E+02  7.70512E+02 -3.02546E+02 -8.66739E+02 -7.20184E+02  3.88484E+02 -1.83121E+02
 -1.62867E+03  4.36901E+01 -1.51041E+03  1.09487E+02 -8.53858E+02 -8.25239E+02 -1.21832E+02 -2.12667E+03
  2.79756E+03 -1.78573E+03  2.11420E+03  4.06735E+01  3.51371E+03  2.50370E+03  7.40096E+02  1.98340E+03
 -3.13081E+03  3.73676E+03 -4.36200E+03  2.88069E+03 -3.71656E+03 -5.93945E+02 -2.72325E+03 -2.08495E+03
 -1.34003E+03 -2.80753E+03  7.60773E+02 -2.25623E+03  2.48387E+03 -1.91803E+02  1.68711E+03 -1.34398E+01
  2.13671E+03  1.32848E+03 -3.05013E+02  1.84447E+03 -5.12718E+02  3.11779E+02  1.49988E+03 -8.40974E+02
  8.50263E+02  1.16131E+02  5.30914E+01  2.28238E+03 -4.66995E+01  1.56780E+01  1.98941E+03  1.40162E+03
 -1.66745E+03  1.67746E+03 -7.02928E+01  1.04564E+03 -3.58285E+03 -1.38181E+03 -1.29015E+03 -1.73401E+03
  1.96546E+03 -1.19284E+03  2.34820E+03  6.18714E+02  2.17683E+03 -1.39148E+02  7.84136E+02  9.20231E+02
  4.63118E+02  1.32590E+03 -6.69125E+02  1.43732E+03 -1.58349E+03  7.75080E+02 -1.01264E+03  1.53462E+03
 -2.67043E+02  3.17183E+02 -1.02443E+03 -7.35587E+02 -1.34938E+03  6.12564E+02 -1.35705E+03 -3.20152E+02
 -1.76166E+03  1.77804E+01 -1.16741E+03 -2.70940E+03  2.22698E+02 -8.72678E+02  2.20820E+03 -2.93249E+02
  8.44354E+02  1.76161E+03  1.89789E+02  1.56175E+03 -3.17217E+02  1.14276E+03 -9.27667E+02  1.74913E+03
