 $NMID ID='MM_0lb_SNR200_9hz_g50_85.RAW', FMTDAT='(8E13.5)'
 TRAMP=1., VOLUME=1. $END
  3.10567E+05  9.28023E+01  3.38011E+05  2.51222E+05  8.56817E+04  3.38734E+05 -1.30774E+05  2.50949E+05
 -1.91067E+05  8.30360E+04 -1.12565E+05 -3.24542E+04  7.33559E+02 -5.06408E+04  5.34828E+04 -2.29612E+03
  3.52634E+04  5.40662E+04 -1.84857E+04  7.75179E+04 -6.12357E+04  6.44597E+04 -8.49625E+04  3.43995E+04
 -8.29790E+04 -1.15293E+04 -5.86474E+04 -5.25199E+04 -1.45580E+04 -7.09301E+04  2.84634E+04 -4.72574E+04
  4.04753E+04  6.48929E+03  1.61597E+04  4.76115E+04 -3.55441E+04  4.81311E+04 -6.92859E+04 -8.65471E+02
 -5.39364E+04 -5.79828E+04 -8.83718E+03 -7.90976E+04  3.49611E+04 -5.86269E+04  4.98218E+04 -1.81368E+04
  4.55256E+04  1.01287E+04  3.42065E+04  2.65394E+04  1.50259E+04  3.04099E+04 -6.79612E+03  2.71996E+04
 -2.42620E+04  1.17158E+04 -1.88159E+04 -4.99441E+03  7.51242E+03 -8.84609E+03  2.41330E+04  1.50885E+04
  8.77988E+03  3.85639E+04 -3.52423E+04  3.71504E+04 -6.63956E+04  2.79780E+03 -5.85166E+04 -4.35536E+04
 -1.18787E+04 -6.49794E+04  4.01703E+04 -4.63588E+04  6.07483E+04 -2.06377E+03  3.73876E+04  3.44297E+04
 -6.08533E+03  3.87063E+04 -3.19690E+04  1.90735E+04 -3.31046E+04 -1.61792E+03 -2.01402E+04 -1.25896E+04
 -1.00331E+04 -1.72349E+04  5.63825E+02 -1.90210E+04  8.89333E+03 -2.34455E+04  1.47613E+04 -1.19420E+04
  1.03998E+04  6.51379E+03 -1.01274E+04  1.33719E+04 -2.40856E+04 -5.50979E+03 -1.09518E+04 -3.71075E+04
  2.49426E+04 -4.64128E+04  5.20628E+04 -2.03740E+04  4.67063E+04  2.04301E+04  1.85980E+04  4.51774E+04
 -1.66184E+04  3.71044E+04 -2.87727E+04  2.68438E+03 -1.30101E+04 -2.80020E+04  2.20106E+04 -3.64777E+04
  4.32295E+04 -1.06373E+04  4.00896E+04  2.41151E+04  2.15825E+04  5.03514E+04 -8.16165E+03  5.49930E+04
 -3.61672E+04  3.87411E+04 -4.76159E+04  1.17312E+04 -4.65570E+04 -1.94511E+04 -2.69166E+04 -4.40372E+04
  7.51441E+03 -4.30623E+04  3.31739E+04 -1.62298E+04  3.35230E+04  1.18139E+04  6.03863E+03  2.20195E+04
 -1.47034E+04  9.51068E+03 -9.92921E+03 -8.16889E+03  6.48281E+03 -1.05584E+04  1.82658E+04  5.41130E+03
  1.42302E+04  2.32649E+04 -5.51415E+03  2.58475E+04 -2.37152E+04  1.52125E+04 -3.14734E+04 -3.70414E+03
 -2.49386E+04 -1.83667E+04 -1.02914E+04 -2.31702E+04  4.64201E+03 -2.63703E+04  1.93358E+04 -2.31302E+04
  3.29889E+04 -1.52069E+04  3.90035E+04  4.88266E+03  2.72098E+04  2.30285E+04  3.92467E+03  4.26292E+04
 -1.91550E+04  3.42314E+04 -3.07770E+04  1.12546E+04 -2.27420E+04 -8.67402E+03 -3.33870E+03 -1.42786E+04
 -8.35415E+01  1.12900E+03 -7.63847E+03  7.79602E+03 -1.99753E+04  4.69553E+03 -1.97895E+04 -9.86510E+03
 -1.22113E+04 -2.46136E+04  4.73763E+03 -2.75754E+04  1.85850E+04 -1.94208E+04  2.15006E+04 -1.50007E+03
  1.52062E+04  1.54395E+04 -4.45119E+02  2.40752E+04 -1.77183E+04  1.42431E+04 -2.35153E+04 -4.21374E+03
 -1.73934E+04 -2.15340E+04 -3.43523E+03 -2.86527E+04  1.37352E+04 -2.34305E+04  2.31424E+04 -1.36116E+04
  2.25328E+04  5.20913E+01  1.62554E+04  5.17066E+03  9.52028E+03  1.07806E+03  1.24668E+04 -3.49889E+03
  2.14669E+04  2.33249E+03  2.52219E+04  1.81390E+04  1.66119E+04  3.81062E+04 -2.70353E+03  4.24230E+04
 -2.44876E+04  3.73333E+04 -4.14624E+04  1.81391E+04 -4.46857E+04 -2.43454E+03 -3.56310E+04 -2.68738E+04
 -1.45462E+04 -3.70284E+04  1.27075E+04 -3.39233E+04  2.78991E+04 -1.55367E+04  2.41285E+04  9.66635E+03
  6.89737E+03  1.91814E+04 -1.12354E+04  1.67990E+04 -1.86782E+04  1.62568E+03 -1.58821E+04 -1.19975E+04
 -6.58593E+02 -2.01332E+04  1.07350E+04 -1.35006E+04  1.37395E+04  1.88118E+02  2.33856E+03  9.32471E+03
 -8.88472E+03  5.97063E+03 -7.21348E+03 -7.64731E+03 -2.82663E+03 -1.84122E+04  1.10549E+04 -2.06684E+04
  2.32423E+04 -1.13648E+04  2.46490E+04  4.26934E+03  2.32230E+04  1.96888E+04  1.15796E+04  2.67735E+04
 -4.79165E+03  3.06930E+04 -2.04604E+04  1.93013E+04 -2.31188E+04  4.40042E+03 -1.51793E+04 -4.57432E+03
 -6.55512E+03 -6.66249E+03 -2.06169E+03  8.56857E+02 -2.55936E+03  3.89035E+03 -7.44506E+03  5.74336E+03
 -1.48182E+04 -1.38808E+02 -1.38888E+04 -1.31957E+04 -5.69780E+03 -1.93946E+04  6.38101E+03 -1.55391E+04
  1.34808E+04 -6.58550E+03  9.40212E+03  4.40192E+03 -6.93465E+02  8.08872E+03 -7.08141E+03  3.40061E+02
 -6.10939E+03 -1.02012E+04 -2.00585E+03 -1.55088E+04  8.07761E+03 -1.51641E+04  2.13195E+04 -8.18114E+03
  2.43281E+04  2.17076E+03  1.79581E+04  1.33823E+04  4.09504E+03  1.81650E+04 -8.55938E+03  1.57713E+04
 -1.36498E+04  5.32603E+03 -7.76227E+03 -2.66499E+03  1.54302E+03 -4.65117E+03  9.45810E+03 -2.31093E+03
  7.12682E+03  6.14560E+03  1.57291E+03  1.17908E+04 -8.82955E+03  1.26185E+04 -1.48989E+04  1.44563E+03
 -1.04909E+04 -7.44839E+03 -6.82992E+01 -1.26928E+04  9.94344E+03 -5.38860E+03  1.02067E+04  4.14608E+03
  1.87352E+03  1.06179E+04 -8.81476E+03  1.17572E+04 -1.52534E+04  5.43534E+03 -1.43709E+04 -3.91687E+03
 -8.22645E+03 -1.45740E+04  3.66433E+03 -1.87841E+04  1.40135E+04 -1.12854E+04  1.70274E+04  3.33595E+03
  1.00697E+04  1.24277E+04 -1.26335E+03  1.49285E+04 -1.26948E+04  8.70014E+03 -1.38493E+04 -8.72769E+02
 -1.21000E+04 -9.13233E+03 -2.63069E+03 -1.22677E+04  7.36275E+03 -1.00057E+04  7.38053E+03 -3.24466E+03
  6.70266E+03  1.17477E+03 -1.17558E+03  2.59650E+03 -1.14028E+02 -3.00992E+03  3.16559E+03 -7.16394E+03
  1.07082E+04 -4.27816E+03  1.62344E+04  1.32949E+03  1.54167E+04  1.12091E+04  1.08204E+04  2.15215E+04
 -4.46677E+03  2.41063E+04 -2.00637E+04  1.77463E+04 -2.56522E+04  3.35241E+03 -2.11166E+04 -9.46544E+03
 -1.16231E+04 -1.66616E+04  1.78790E+02 -1.55738E+04  5.21874E+03 -8.54082E+03  6.51182E+03 -4.90691E+03
  3.75555E+03 -2.90439E+03  5.43417E+03 -2.86139E+03  6.23472E+03 -3.84489E+03  8.11515E+03 -3.67917E+02
  1.07190E+04  3.20060E+03  5.61255E+03  7.87340E+03 -1.26088E+03  1.09231E+04 -1.20056E+04  8.46835E+03
 -1.44801E+04 -2.30362E+03 -1.07280E+04 -1.00629E+04 -2.60117E+03 -1.43670E+04  8.18550E+03 -1.62929E+04
  1.66272E+04 -9.04418E+03  1.95282E+04  1.65020E+03  1.35433E+04  1.32406E+04  2.10698E+03  1.58238E+04
 -8.16298E+03  1.55403E+04 -1.01733E+04  5.23378E+03 -7.67208E+03 -2.77995E+03 -2.18871E+03 -2.51918E+03
 -2.02021E+03 -7.41725E+02 -2.74059E+03  2.96529E+03 -6.35036E+03  3.42339E+03 -1.00224E+04 -1.16587E+03
 -6.12935E+03 -1.07683E+04  1.33262E+03 -1.49144E+04  9.84288E+03 -1.44858E+04  1.47706E+04 -4.98465E+03
  1.44726E+04  7.80368E+03  7.02298E+03  1.38954E+04 -3.61909E+03  1.59612E+04 -8.89135E+03  9.62804E+03
 -1.37367E+04 -1.01552E+03 -1.02434E+04 -7.38514E+03  2.54199E+02 -1.22113E+04  6.70459E+03 -8.86046E+03
  9.29673E+03 -3.76781E+03  6.85218E+03  2.38113E+03  3.46431E+03  4.34356E+03  1.13736E+03  2.05997E+03
  3.32304E+03  1.05074E+03  3.98753E+03  1.83785E+03  2.98017E+03  5.50190E+03  3.71985E+03  8.19050E+03
 -2.01759E+03  1.17771E+04 -1.02916E+04  1.10004E+04 -1.62465E+04  3.99064E+03 -1.59175E+04 -6.55433E+03
 -8.51000E+03 -1.47808E+04  1.64743E+03 -1.63672E+04  9.95744E+03 -1.11143E+04  1.36386E+04 -3.47108E+03
  9.24249E+03  6.04124E+03  1.54719E+03  7.20725E+03 -4.26683E+03  5.06230E+03 -5.54453E+03 -1.61868E+02
 -5.33923E+03 -5.57974E+03  3.10114E+03 -7.49949E+03  6.66740E+03 -2.51338E+03  7.21091E+03  1.88816E+03
  2.57853E+03  3.25172E+03  2.41626E+03  2.98357E+03 -7.91130E+02  1.88822E+03  8.67397E+02 -7.45057E+02
  3.56358E+03 -1.17380E+03  4.69157E+03  3.66497E+03  5.45005E+02  7.04148E+03 -2.36817E+03  8.70550E+03
 -7.00987E+03  6.92091E+03 -1.01998E+04  3.56563E+03 -8.67233E+03 -3.48712E+03 -3.23020E+03 -5.26554E+03
  1.89117E+03 -4.93578E+03  3.01257E+03 -3.14465E+03  3.22146E+03  4.67163E+03 -5.04633E+02  3.58843E+03
 -7.60038E+03  1.92084E+03 -7.83182E+03 -4.38507E+03 -5.76549E+03 -7.79233E+03  2.62734E+03 -8.22604E+03
  3.13728E+03 -6.17543E+03  7.01276E+03  5.17104E+02  5.34905E+03  6.55648E+02  1.81497E+03  4.24192E+03
 -1.91323E+03  1.45526E+03 -3.51443E+03 -2.13803E+03  6.73540E+02 -6.12165E+03  7.88233E+03 -6.16195E+03
  8.55670E+03  6.95335E+02  1.04920E+04  5.49189E+03  4.18142E+03  1.01211E+04 -3.28448E+03  8.77693E+03
 -8.58110E+03  3.47839E+03 -8.75892E+03 -8.61468E+02 -5.52207E+03 -7.06285E+03  1.63104E+03 -6.11990E+03
  4.96802E+03 -4.05677E+03  4.74516E+03  3.67661E+03  2.19001E+03  6.86358E+03 -4.32670E+02  6.26819E+03
 -1.40232E+03  2.01477E+03 -6.41725E+02 -4.98849E+02 -1.26705E+03  2.23409E+03 -1.09394E+03  2.20166E+03
 -2.34891E+03  4.37120E+03 -6.63315E+03  4.16788E+03 -9.72356E+03  1.14972E+03 -1.25796E+04 -5.62933E+03
 -6.59905E+03 -1.33175E+04  3.20441E+03 -1.53532E+04  8.96717E+03 -1.22959E+04  1.41323E+04 -4.28542E+03
  1.23703E+04  2.68438E+03  7.79453E+03  7.50606E+03 -5.46910E+02  1.17121E+04 -2.62982E+03  9.33103E+03
 -5.66987E+03  3.53315E+03 -2.71202E+03 -9.91536E+02 -1.22776E+03 -8.01702E+02 -6.48371E+02  5.94268E+02
 -3.17396E+02  2.12925E+03 -1.96212E+03  8.15083E+02 -8.04296E+02 -1.86837E+03  1.62247E+03 -4.50606E+03
  5.07724E+03 -2.66969E+03  5.77521E+03  1.19201E+03  6.55972E+03  6.10518E+03  2.29164E+03  1.03687E+04
 -5.35232E+03  1.22133E+04 -1.02633E+04  7.05509E+03 -1.30202E+04 -3.10446E+03 -1.14588E+04 -6.75382E+03
 -3.18931E+03 -1.00657E+04  3.04838E+03 -9.11818E+03  5.87848E+03 -6.20141E+03  6.98425E+03  2.53415E+02
  2.63696E+03  2.15620E+03  7.28050E+02  3.08399E+03 -1.50903E+03  8.36366E+00 -1.36828E+03 -2.48548E+03
  4.05125E+03 -4.10332E+01  2.42904E+03  1.65785E+03  2.96292E+03  4.20303E+03 -8.95134E+00  5.12223E+03
 -3.84347E+03  4.67911E+03 -7.75549E+03  2.61442E+01 -6.59034E+03 -4.11158E+03  2.95981E+02 -8.67709E+03
  4.80610E+03 -7.44463E+03  9.12107E+03 -3.18819E+03  9.22593E+03  2.74378E+03  5.53057E+03  7.06756E+03
  1.37081E+03  7.58493E+03 -2.17588E+03  6.00225E+03 -5.19499E+03  2.32376E+03 -1.72603E+03 -3.19728E+02
 -1.92385E+03 -4.70522E+02 -1.76391E+03  2.79710E+02 -3.93834E+03  5.87387E+02 -6.61174E+03 -5.32933E+02
 -5.35033E+03 -3.89052E+03  8.37468E+02 -8.57026E+03  3.71582E+03 -6.84433E+03  6.58467E+03 -2.67206E+03
  8.04824E+03 -3.01493E+02  3.51419E+03  3.91831E+03  4.88083E+02  6.42150E+03 -4.66198E+03  3.14572E+03
