 $NMID ID='MM_0lb_SNR200_14hz_g55_30.RAW', FMTDAT='(8E13.5)'
 TRAMP=1., VOLUME=1. $END
  3.08878E+05  1.45221E+03  3.38422E+05  2.50397E+05  8.42277E+04  3.37967E+05 -1.32563E+05  2.51025E+05
 -1.89920E+05  8.33070E+04 -1.12567E+05 -3.27185E+04  5.08561E+02 -5.09183E+04  5.38880E+04  1.17264E+03
  3.69490E+04  5.25272E+04 -1.80792E+04  7.55522E+04 -6.09695E+04  6.32520E+04 -8.42508E+04  3.24007E+04
 -8.16244E+04 -1.07235E+04 -5.63162E+04 -5.09850E+04 -1.54521E+04 -7.00037E+04  2.77070E+04 -4.57355E+04
  4.07017E+04  3.60690E+03  1.60223E+04  4.76641E+04 -3.36546E+04  4.74807E+04 -6.78530E+04 -8.27135E+02
 -5.33051E+04 -5.82906E+04 -6.39471E+03 -7.57861E+04  3.39672E+04 -5.50171E+04  4.81532E+04 -1.79032E+04
  4.45160E+04  1.05880E+04  3.23257E+04  2.68056E+04  1.61347E+04  3.07412E+04 -5.09695E+03  2.69859E+04
 -2.24538E+04  1.16264E+04 -1.78515E+04 -5.54248E+03  6.82007E+03 -7.19737E+03  2.28142E+04  1.33420E+04
  8.36835E+03  3.52369E+04 -3.28410E+04  3.58514E+04 -6.37408E+04  1.89617E+03 -5.79172E+04 -4.33974E+04
 -1.36248E+04 -6.29624E+04  4.08739E+04 -4.51649E+04  5.94757E+04 -1.62558E+03  3.42884E+04  3.36560E+04
 -6.76390E+03  3.52159E+04 -3.03211E+04  1.62572E+04 -3.07357E+04 -2.76717E+03 -1.79637E+04 -1.14888E+04
 -9.69123E+03 -1.35653E+04 -4.24593E+02 -1.92345E+04  7.73798E+03 -2.36084E+04  1.52281E+04 -1.22168E+04
  1.05083E+04  4.63733E+03 -7.30361E+03  1.35249E+04 -2.21370E+04 -4.30466E+03 -8.26984E+03 -3.41707E+04
  2.38820E+04 -4.59013E+04  4.83077E+04 -2.01634E+04  4.70610E+04  1.97074E+04  1.55752E+04  4.48642E+04
 -1.64055E+04  3.40048E+04 -2.64610E+04  3.05124E+03 -1.08315E+04 -2.79588E+04  2.00199E+04 -3.36567E+04
  4.20604E+04 -9.56476E+03  3.57106E+04  2.31956E+04  1.90122E+04  4.75238E+04 -8.26490E+03  5.13632E+04
 -3.11133E+04  3.36255E+04 -4.30223E+04  8.98934E+03 -4.25791E+04 -1.73158E+04 -2.46254E+04 -3.91174E+04
  7.63880E+03 -3.76816E+04  3.15473E+04 -1.47883E+04  3.02061E+04  1.04396E+04  4.71303E+03  1.96913E+04
 -1.28504E+04  8.83500E+03 -1.01502E+04 -7.17872E+03  5.59093E+03 -1.06183E+04  1.91405E+04  6.07401E+03
  1.30866E+04  2.28636E+04 -4.70307E+03  2.62165E+04 -2.31723E+04  1.25987E+04 -2.86044E+04 -3.26412E+03
 -2.10703E+04 -1.87204E+04 -8.81713E+03 -2.16271E+04  4.36019E+03 -2.12192E+04  1.69229E+04 -1.81608E+04
  2.71217E+04 -1.26227E+04  3.30921E+04  4.07661E+03  2.61405E+04  1.98604E+04  6.19136E+03  3.70506E+04
 -1.79989E+04  3.13850E+04 -2.83070E+04  1.20238E+04 -2.15973E+04 -1.16023E+04 -4.70323E+03 -1.22758E+04
  2.12772E+03 -2.64501E+03 -6.46242E+03  6.70447E+03 -1.70161E+04  4.31024E+03 -1.70182E+04 -8.08036E+03
 -1.01511E+04 -1.92329E+04  5.78135E+03 -2.36841E+04  1.51320E+04 -1.69526E+04  1.95248E+04 -1.72607E+03
  1.18645E+04  1.41976E+04 -8.19325E+02  1.90259E+04 -1.47186E+04  1.09444E+04 -1.89875E+04 -3.91213E+03
 -1.44051E+04 -1.73078E+04 -1.64992E+03 -2.40645E+04  9.47736E+03 -1.99286E+04  2.04734E+04 -1.06208E+04
  1.87066E+04 -6.40193E+02  1.29470E+04  5.26912E+03  7.13544E+03  2.36683E+03  8.99655E+03 -1.90127E+03
  1.84520E+04  2.86858E+03  1.99585E+04  1.46877E+04  1.19664E+04  3.21538E+04 -2.85453E+03  3.47702E+04
 -1.99400E+04  2.92737E+04 -3.34818E+04  1.44460E+04 -3.35695E+04 -1.10405E+03 -2.79538E+04 -2.01619E+04
 -1.21431E+04 -2.78538E+04  1.06290E+04 -2.56444E+04  2.26873E+04 -1.13522E+04  1.97025E+04  4.90596E+03
  8.00594E+03  1.54077E+04 -1.03237E+04  1.22075E+04 -1.60562E+04  2.62677E+03 -1.23018E+04 -1.03823E+04
 -8.72930E+02 -1.56169E+04  7.71031E+03 -1.09342E+04  1.07590E+04 -6.08804E+02  3.43318E+03  6.45881E+03
 -6.25170E+03  2.74882E+03 -4.92532E+03 -7.18355E+03 -1.52075E+03 -1.44855E+04  9.00272E+03 -1.42759E+04
  1.68495E+04 -8.11908E+03  1.84260E+04  2.03732E+03  1.50719E+04  1.38915E+04  4.84505E+03  2.07995E+04
 -4.35327E+03  2.38872E+04 -1.35039E+04  1.47408E+04 -1.69110E+04  3.56142E+03 -1.09624E+04 -3.56139E+03
 -5.87842E+03 -3.98227E+03 -6.78601E+02  1.07153E+03 -1.87205E+03  3.49799E+03 -5.04053E+03  3.03080E+03
 -1.07359E+04 -6.92815E+02 -1.25175E+04 -8.89932E+03 -4.87775E+03 -1.58532E+04  4.28411E+03 -1.06038E+04
  9.13169E+03 -4.35805E+03  5.65129E+03  4.09157E+03  1.92479E+02  4.81588E+03 -4.77569E+03 -9.86998E+02
 -5.12034E+03 -8.21132E+03 -1.30178E+03 -1.24439E+04  6.59554E+03 -1.26231E+04  1.22409E+04 -6.67590E+03
  1.63983E+04  2.32993E+03  1.24837E+04  1.03245E+04  2.72758E+03  1.26652E+04 -8.31899E+03  1.23745E+04
 -1.10750E+04  1.54826E+03 -4.03308E+03 -1.51823E+03  1.05936E+03 -3.21653E+03  7.57894E+03 -1.32311E+03
  6.02104E+03  4.55737E+03  8.04301E+02  9.48020E+03 -5.88345E+03  9.20434E+03 -1.18809E+04  3.02474E+03
 -6.67607E+03 -6.40328E+03  4.43440E+02 -9.70310E+03  6.72065E+03 -5.76371E+03  5.14964E+03  1.72785E+03
  1.04692E+03  6.64767E+03 -5.03052E+03  9.06478E+03 -9.21631E+03  5.02490E+03 -9.28736E+03 -3.36655E+03
 -5.79041E+03 -9.47824E+03  2.04456E+03 -1.23389E+04  1.00071E+04 -7.40603E+03  1.19062E+04  8.20153E+02
  6.87272E+03  9.20615E+03 -1.17659E+03  1.09817E+04 -8.28260E+03  4.94222E+03 -9.39711E+03 -1.62974E+03
 -8.42207E+03 -7.79158E+03 -2.59757E+03 -7.96176E+03  5.11454E+03 -6.15651E+03  4.84411E+03 -2.22385E+03
  3.02666E+03  2.29655E+03 -6.62242E+01  2.01236E+03 -2.61123E+02 -1.70050E+03 -5.42730E+02 -4.40313E+03
  8.05453E+03 -2.50936E+03  1.12807E+04  2.22601E+03  1.19294E+04  7.01906E+03  5.95853E+03  1.32804E+04
 -1.39722E+03  1.52073E+04 -1.17442E+04  1.21665E+04 -1.76625E+04  2.05088E+03 -1.48713E+04 -5.72639E+03
 -5.83950E+03 -1.09172E+04 -9.40934E+02 -1.05333E+04  3.58869E+03 -4.06591E+03  2.92519E+03 -3.47908E+03
  1.43051E+03 -2.06437E+03  3.22398E+03 -2.69730E+03  4.21499E+03 -2.82993E+03  6.08723E+03  3.48287E+02
  6.33670E+03  6.90461E+02  1.70672E+03  6.16696E+03 -2.59172E+03  5.59402E+03 -7.40353E+03  5.98796E+03
 -8.99670E+03 -5.49016E+02 -4.14884E+03 -6.13226E+03  3.77755E+02 -9.80006E+03  4.61302E+03 -9.33916E+03
  9.76268E+03 -5.06323E+03  1.08026E+04  1.42749E+03  7.79609E+03  7.74986E+03  1.92739E+03  1.06283E+04
 -3.72725E+03  9.58840E+03 -6.49375E+03  3.94679E+03 -3.16498E+03 -1.74413E+03 -8.55480E+02 -1.49435E+03
  1.43245E+00 -1.25126E+02 -2.84292E+03  3.37506E+03 -3.75525E+03  1.89192E+03 -6.18384E+03 -5.29725E+02
 -4.26417E+03 -7.79269E+03  9.18365E+02 -7.81086E+03  5.60471E+03 -7.21406E+03  8.79901E+03 -2.85405E+03
  8.69545E+03  4.35031E+03  3.59528E+03  7.25876E+03 -6.37218E+02  8.12692E+03 -5.24285E+03  6.22820E+03
 -7.94850E+03  7.73034E+02 -7.10808E+03 -4.71394E+03 -1.49947E+03 -6.39711E+03  2.76993E+03 -4.31515E+03
  5.15197E+03 -2.25418E+03  4.25339E+03  9.57788E+02  6.49931E+01  2.08579E+03 -2.73645E+01 -3.55583E+01
  2.22777E+03  1.48802E+03  2.93915E+03  2.44223E+03  2.69815E+03  4.22569E+03  3.46416E+03  4.36729E+03
 -1.41962E+03  5.66899E+03 -4.66350E+03  6.34284E+03 -8.32582E+03  2.21710E+03 -7.59785E+03 -1.86893E+03
 -3.93670E+03 -7.70959E+03  1.18409E+03 -8.85368E+03  5.11819E+03 -3.08058E+03  5.94338E+03 -2.28157E+03
  4.99906E+03  3.87205E+03 -1.78211E+01  5.36836E+03 -7.57433E+02  3.26095E+03 -3.37505E+03 -1.77538E+03
 -1.83355E+03 -3.42129E+03  7.96482E+02 -3.23274E+03  3.33094E+03 -2.97126E+03  3.86520E+03  1.16071E+03
  2.95838E+03  1.36377E+03  1.13109E+03  1.17582E+03 -9.90995E+02  4.75300E+02  2.19888E+03  1.64745E+02
  1.71161E+03 -2.62325E+02  2.94438E+03 -5.52383E+02  1.59556E+03  4.06612E+03 -1.10373E+03  5.67735E+03
 -2.87437E+03  3.03040E+03 -4.95853E+03  1.57163E+03 -3.47092E+03 -1.36303E+03 -1.35468E+03 -2.66780E+03
  3.64431E+02 -3.74036E+03  2.71096E+03 -2.05655E+03  2.73733E+03  2.46710E+03 -1.30120E+03  1.49206E+03
 -3.55552E+03  1.21711E+03 -3.35447E+03 -3.75281E+03 -2.35222E+03 -4.21249E+03  1.61825E+03 -2.94928E+03
  1.72233E+03 -2.65096E+03  1.38554E+03 -2.61893E+02  3.46073E+03  3.75688E+02  2.82471E+02  1.68795E+03
 -2.53040E+03  1.82469E+03 -1.66512E+03 -7.81717E+02  1.29020E+03 -4.01036E+03  4.44722E+03 -2.47485E+03
  4.09206E+03  1.05844E+02  4.48020E+03  3.48512E+03  1.09335E+03  6.08794E+03 -6.61712E+02  5.48510E+03
 -2.74607E+03  2.69806E+03 -3.92373E+03  1.01579E+03 -2.48886E+03 -2.85001E+03 -1.33125E+02 -1.95056E+03
  2.86315E+03 -9.76897E+02  2.06593E+03  4.83786E+01  1.51734E+03  3.60396E+03 -7.60637E+02  1.06272E+03
 -1.35563E+02  1.81223E+03 -1.30916E+03  1.71604E+02 -6.74314E+02  1.99332E+03 -1.29253E+03  6.65573E+02
 -1.19199E+03  5.77043E+02 -3.57268E+03  1.87527E+03 -5.13990E+03 -6.57382E+02 -5.88531E+03 -2.56920E+03
 -2.32775E+03 -5.91525E+03  7.30165E+02 -8.16914E+03  3.86800E+03 -5.63943E+03  6.07114E+03 -2.13832E+03
  5.80054E+03  4.96951E+02  2.21290E+03  4.04991E+03 -5.94348E+02  4.21053E+03 -2.15695E+03  3.50841E+03
 -1.73532E+03  2.53386E+03 -1.13430E+03 -2.34033E+02  6.16320E+02 -4.79173E+02  5.04714E+02  1.86840E+02
 -1.90128E+03 -1.08971E+02 -9.74193E+02  6.70298E+02 -2.21570E+01 -8.16888E+02 -3.86082E+02 -1.12340E+03
  2.55336E+03 -3.18782E+03  2.32439E+03 -5.18040E+02  2.56236E+03  1.48878E+03  1.09154E+03  4.86029E+03
 -2.46064E+03  3.85407E+03 -4.46356E+03  3.25805E+03 -6.24065E+03 -5.42414E+02 -3.00843E+03 -3.11851E+03
 -2.36689E+03 -4.45041E+03  1.38075E+03 -3.96753E+03  2.10147E+03 -1.80285E+03  2.79107E+03 -1.79656E+03
  1.07017E+03  1.23020E+03  6.54860E+01  2.27077E+03  2.52696E+01  9.76334E+02 -8.95672E+02 -1.21060E+03
  1.23684E+03 -9.27955E+02  6.75611E+02  9.80662E+00  1.09459E+03  1.81705E+03 -4.13944E+02  1.71418E+03
 -2.17207E+03  1.52653E+03 -1.54815E+03  5.90679E+02 -1.10207E+03 -1.98920E+03  1.44658E+03 -2.76947E+03
  5.60154E+02 -3.73228E+03  2.80930E+03  2.69594E+01  2.15105E+03  1.00459E+03  8.56322E+02  7.25590E+02
  6.86358E+02  3.75689E+02 -1.05038E+03  1.46339E+03 -2.60523E+03  1.22499E+03 -1.54944E+03  3.50529E+02
 -1.73098E+03 -2.32665E+02  5.95369E+02 -5.46793E+02 -2.42295E+02  4.51025E+02 -2.11264E+03 -6.53729E+02
 -2.30592E+03 -5.90482E+02  6.84049E+02 -2.54787E+03  1.69184E+03 -3.21197E+03  1.58702E+03 -1.04363E+03
  2.33235E+03  2.39845E+01  4.84360E+02  1.28638E+03 -4.24463E+02  1.77594E+03 -1.97720E+03  1.03845E+03
