 $NMID ID='MM_0lb_SNR200_18hz_g50_90.RAW', FMTDAT='(8E13.5)'
 TRAMP=1., VOLUME=1. $END
  3.10626E+05 -1.49329E+02  3.36918E+05  2.50966E+05  8.43679E+04  3.36716E+05 -1.31810E+05  2.49293E+05
 -1.89279E+05  8.21119E+04 -1.10822E+05 -3.31203E+04  1.19768E+03 -5.06063E+04  5.40029E+04  8.34313E+02
  3.59503E+04  5.32401E+04 -1.66419E+04  7.45709E+04 -5.97342E+04  6.36294E+04 -8.35106E+04  3.17177E+04
 -8.06303E+04 -1.12861E+04 -5.55777E+04 -5.05857E+04 -1.49166E+04 -6.90433E+04  2.75024E+04 -4.54610E+04
  3.93841E+04  4.47926E+03  1.56546E+04  4.67718E+04 -3.32612E+04  4.66406E+04 -6.61420E+04 -1.14265E+03
 -5.30964E+04 -5.55357E+04 -7.24283E+03 -7.57600E+04  3.25131E+04 -5.35297E+04  4.73761E+04 -1.62669E+04
  4.25179E+04  1.08438E+04  3.12042E+04  2.48337E+04  1.49398E+04  2.87627E+04 -4.96710E+03  2.64601E+04
 -2.12331E+04  1.23533E+04 -1.89717E+04 -4.03698E+03  5.29791E+03 -8.03723E+03  2.10694E+04  1.07592E+04
  8.06643E+03  3.32832E+04 -3.18698E+04  3.55901E+04 -6.18392E+04  1.85523E+03 -5.49202E+04 -4.11442E+04
 -1.20528E+04 -6.20289E+04  3.87877E+04 -4.43182E+04  5.67225E+04 -3.25598E+03  3.17643E+04  2.97736E+04
 -6.28745E+03  3.34497E+04 -2.92564E+04  1.42688E+04 -2.87100E+04 -5.10088E+03 -1.42762E+04 -1.04760E+04
 -8.14080E+03 -1.20039E+04 -1.27734E+03 -1.73353E+04  6.83381E+03 -2.31699E+04  1.56553E+04 -1.36006E+04
  1.29398E+04  4.98798E+03 -6.00673E+03  1.26727E+04 -2.04784E+04 -2.98893E+03 -8.26873E+03 -3.04264E+04
  2.13766E+04 -4.06015E+04  4.60641E+04 -1.96591E+04  4.34075E+04  1.98961E+04  1.43128E+04  4.23702E+04
 -1.59912E+04  3.16993E+04 -2.20295E+04  1.42795E+03 -8.42312E+03 -2.71565E+04  1.97878E+04 -3.16433E+04
  3.82114E+04 -8.03071E+03  3.20376E+04  2.29252E+04  1.59635E+04  4.30662E+04 -9.23773E+03  4.53354E+04
 -2.83766E+04  3.13840E+04 -3.87030E+04  8.22449E+03 -3.97276E+04 -1.57943E+04 -2.17012E+04 -3.48373E+04
  6.73076E+03 -3.42711E+04  3.01182E+04 -1.24042E+04  2.78258E+04  1.15144E+04  2.59178E+03  1.81813E+04
 -1.38192E+04  7.77885E+03 -9.96847E+03 -6.89680E+03  6.48165E+03 -9.69250E+03  1.71015E+04  6.64951E+03
  1.28056E+04  2.19552E+04 -5.82316E+03  2.38087E+04 -2.12047E+04  9.43895E+03 -2.67322E+04 -5.71103E+03
 -1.76559E+04 -1.68436E+04 -5.81321E+03 -1.78863E+04  3.80829E+03 -1.63736E+04  1.16224E+04 -1.50779E+04
  2.18197E+04 -1.11274E+04  2.93859E+04  1.33062E+03  2.19442E+04  1.73058E+04  3.22879E+03  3.30162E+04
 -1.54964E+04  2.76078E+04 -2.60572E+04  9.29420E+03 -1.98950E+04 -9.37889E+03 -3.98195E+03 -1.35760E+04
  2.43991E+03 -3.99886E+03 -2.55505E+03  5.00732E+03 -1.28135E+04  6.20256E+03 -1.28856E+04 -6.50555E+03
 -8.42824E+03 -1.61253E+04  5.13565E+03 -2.00955E+04  1.31789E+04 -1.43849E+04  1.46803E+04 -1.65857E+03
  8.61285E+03  1.13876E+04 -9.21825E+02  1.57920E+04 -1.07778E+04  8.38811E+03 -1.61632E+04 -3.34062E+03
 -1.21735E+04 -1.43353E+04 -2.48534E+03 -1.91849E+04  9.51309E+03 -1.62667E+04  1.56030E+04 -6.99337E+03
  1.56251E+04  7.34459E+02  1.03185E+04  4.18684E+03  4.35249E+03  1.70585E+02  7.12839E+03 -1.86352E+03
  1.54598E+04  3.24541E+03  1.48709E+04  1.35454E+04  9.50268E+03  2.54129E+04 -1.70670E+03  2.75387E+04
 -1.56848E+04  2.14362E+04 -2.59621E+04  1.08137E+04 -2.60723E+04 -7.94706E+02 -2.09367E+04 -1.52604E+04
 -1.23278E+04 -2.25455E+04  6.52994E+03 -2.07964E+04  1.80533E+04 -1.04098E+04  1.51790E+04  3.96624E+03
  6.89116E+03  1.30409E+04 -7.69387E+03  9.63467E+03 -1.46218E+04  3.29874E+03 -1.18131E+04 -7.90019E+03
  4.93185E+02 -1.32381E+04  5.82481E+03 -1.03479E+04  9.18859E+03 -7.55689E+02  2.28330E+03  4.97956E+03
 -6.53838E+03  1.53240E+03 -3.97128E+03 -3.81708E+03 -2.04594E+02 -1.13366E+04  8.70304E+03 -1.16478E+04
  1.24253E+04 -5.52488E+03  1.23510E+04  2.20842E+03  1.01887E+04  9.69911E+03  6.01517E+03  1.65569E+04
 -2.06325E+03  1.62295E+04 -1.00427E+04  9.88053E+03 -1.10712E+04  2.79035E+03 -9.83199E+03 -2.48032E+03
 -5.05608E+03 -4.15947E+03 -1.34749E+03  1.64145E+03 -1.30975E+03  2.36475E+03 -3.01498E+03  3.75780E+03
 -8.99457E+03 -1.26023E+02 -9.08513E+03 -5.94704E+03 -4.41326E+03 -1.22068E+04  4.90745E+03 -9.18603E+03
  8.24116E+03 -4.82699E+03  5.77583E+03  3.05037E+03  4.53554E+02  3.38799E+03 -2.87145E+03  3.85664E+02
 -3.14543E+03 -4.53323E+03 -1.11022E+03 -7.34852E+03  4.06844E+03 -9.12871E+03  1.04147E+04 -4.69508E+03
  1.16059E+04  9.95874E+02  1.00592E+04  6.82658E+03  1.83046E+03  9.21098E+03 -4.81995E+03  8.36464E+03
 -7.40559E+03  3.27012E+03 -5.62471E+03 -1.45080E+03  1.22872E+03 -2.14223E+03  5.07489E+03 -1.54578E+03
  5.45213E+03  3.61531E+03  6.92136E+02  6.82208E+03 -4.16102E+03  7.58401E+03 -8.82543E+03  1.83110E+03
 -5.00698E+03 -4.07331E+03  3.59615E+02 -7.31522E+03  3.63221E+03 -3.28997E+03  4.04265E+03  1.93035E+03
 -6.61861E+02  4.30299E+03 -3.74157E+03  5.24931E+03 -5.06981E+03  2.47884E+03 -5.31472E+03 -2.32399E+03
 -3.21445E+03 -6.06245E+03  1.65302E+03 -7.30154E+03  6.72017E+03 -4.85832E+03  6.32713E+03  8.33154E+02
  4.87512E+03  4.69915E+03 -5.71156E+02  7.78900E+03 -4.16598E+03  4.12644E+03 -4.12371E+03 -7.35234E+02
 -6.36855E+03 -4.90189E+03 -2.16873E+03 -4.56485E+03  1.95062E+03 -4.62891E+03  2.55533E+03 -2.53353E+03
  2.82731E+03  6.39611E+01 -1.80941E+02  2.16832E+03  5.01693E+02 -1.01505E+03  1.53844E+02 -2.21484E+03
  3.53753E+03 -7.97093E+02  5.78712E+03  1.80259E+02  5.59700E+03  4.01375E+03  5.42325E+03  7.60275E+03
 -1.27486E+03  9.38832E+03 -8.74678E+03  6.77340E+03 -1.12295E+04  9.75933E+02 -8.58751E+03 -1.93559E+03
 -4.30643E+03 -8.33668E+03 -1.08974E+03 -5.25382E+03  2.72152E+03 -1.34449E+03  1.42052E+03 -2.88604E+03
  2.29309E+03 -1.18137E+03  1.81370E+03 -9.15116E+02  3.83960E+03 -1.38189E+03  4.98881E+03 -1.34350E+02
  4.77146E+03  1.75037E+03  1.67881E+03  4.90448E+03 -1.70977E+03  3.27488E+03 -5.00469E+03  2.13461E+03
 -5.62267E+03 -1.11916E+03 -1.28102E+03 -2.57591E+03  4.02968E+01 -4.66282E+03  4.42582E+03 -5.25335E+03
  5.05228E+03 -3.47898E+03  7.20240E+03  4.69617E+02  5.49753E+03  5.21880E+03  8.78302E+02  6.39104E+03
 -2.50445E+03  5.84385E+03 -3.80812E+03  1.62345E+03 -2.09505E+03 -6.37540E+02 -9.77867E+02 -1.93116E+03
 -5.77639E+02 -2.17513E+02 -1.80305E+03  1.55367E+03 -2.52101E+03  7.21489E+02 -4.03117E+03 -5.45335E+02
 -1.19374E+03 -4.15035E+03  1.88458E+03 -5.64587E+03  3.11614E+03 -4.15967E+03  4.97131E+03 -2.17582E+03
  4.65553E+03  2.62043E+03  1.57723E+03  3.97295E+03 -1.78921E+03  5.56353E+03 -2.51261E+03  3.21911E+03
 -4.08367E+03  1.09779E+03 -3.84642E+03 -2.46529E+03 -2.65581E+01 -3.61055E+03  1.02016E+03 -2.71308E+03
  3.04421E+03 -9.65239E+02  3.12803E+03  2.23189E+02  6.67643E+01  2.04694E+03  1.46488E+03  1.31280E+03
  9.75888E+02  6.49384E+02  1.69486E+03  5.45949E+02  1.39758E+03  2.26788E+03  1.77191E+03  2.03251E+03
 -8.64896E+02  3.41521E+03 -2.79865E+03  5.35352E+03 -3.84616E+03  5.49352E+02 -3.29652E+03 -8.53148E+02
 -1.71201E+03 -3.72516E+03  1.20267E+03 -4.70698E+03  1.07406E+03 -2.81734E+03  3.98419E+03 -4.67417E+02
  2.58904E+03  2.02928E+03  7.33551E+02  2.62868E+03 -4.34090E+02  9.09322E+02 -9.61062E+02 -7.64441E+02
 -1.46374E+02 -1.86953E+03  1.15357E+03 -1.98672E+03 -7.09858E+01 -1.36254E+03  2.30516E+03  4.79844E+02
  2.56959E+02  3.70974E+02  1.20092E+03 -3.08731E+02 -5.41037E+02  7.93680E+02  1.34496E+03 -3.93242E+02
  3.01360E+02 -7.35801E+02  2.92955E+03  1.87283E+02  4.61781E+02  2.51827E+03 -5.32728E+02  2.40853E+03
 -1.76448E+03  1.29051E+03 -1.82659E+03  7.57854E+02 -2.98418E+03 -9.68456E+02 -1.16770E+03 -2.32175E+02
 -4.64918E+02 -1.10154E+03  5.06879E+02 -9.83684E+02 -4.71474E+02  1.42075E+03 -9.64769E+02  3.47027E+02
 -2.28902E+03 -2.39166E+02 -9.64953E+02 -2.20886E+03 -3.23697E+02 -1.49508E+03  1.14165E+02 -1.45829E+03
  2.96263E+02 -5.87956E+02  1.35286E+03  3.60489E+02  1.23757E+03  2.22889E+00  6.96353E+02  7.92225E+02
 -1.46028E+03  8.02760E+02 -1.69210E+03  9.66558E+01  9.45196E+02 -8.53346E+02  1.25188E+03 -1.30690E+02
  1.56045E+03  8.30818E+02  2.17612E+03  7.36539E+02 -1.22152E+02  3.31803E+03 -4.30847E+02  1.34752E+03
 -9.92900E+02  5.13841E+02 -1.19887E+03 -7.83687E+02 -1.28779E+03 -1.68568E+03  6.88462E+01 -9.95133E+02
  1.81223E+03 -5.46119E+02  9.16175E+02  1.07767E+03  1.04037E+03  1.53041E+03 -1.30753E+02  8.43405E+02
 -3.37747E+02  1.34514E+03  1.64503E+02  5.26031E+01 -4.10466E+02  7.72165E+02  1.20147E+02  1.56110E+03
 -5.07038E+02  2.15439E+03 -1.81596E+03 -2.80262E+02 -1.67520E+03 -4.10855E+02 -2.52949E+03 -9.77087E+02
 -9.49617E+02 -2.24974E+03  6.35245E+02 -2.99812E+03  2.29596E+03 -2.98689E+03  2.40165E+03 -1.12385E+03
  3.12827E+03  2.33745E+02  1.50989E+03  2.27773E+03 -1.20999E+03  2.02243E+03 -1.24994E+03  2.20500E+03
 -8.56413E+02  6.54490E+02 -8.86829E+02 -7.09919E+02 -5.10774E+02  1.09795E+02 -1.53704E+03 -8.42957E+02
 -1.63952E+03  1.09322E+03 -1.34376E+03 -5.10446E+01 -2.59504E+02 -1.31926E+03  5.35317E+01 -8.75868E+02
  1.09562E+03 -5.99727E+02  1.20078E+03  1.06819E+02  5.33619E+02  1.77578E+03 -2.96985E+02  1.73040E+03
 -4.52991E+02  3.23569E+03 -1.91201E+03  1.61106E+03 -2.24038E+03 -1.33125E+03 -7.87616E+02 -1.86884E+03
 -1.23847E+03 -9.93004E+02 -3.63510E+02 -6.55367E+02  9.28304E+02 -1.01332E+03  1.16012E+03  8.49219E+02
  1.03802E+03  6.14464E+02  3.40266E+02  1.03724E+03 -6.76506E+02 -9.25657E+02 -4.17337E+02  3.97792E+01
  8.91793E+02  1.39576E+03  4.31358E+02  3.49488E+02  4.34499E+02  1.43869E+02  6.57820E+02  1.31407E+03
 -1.34861E+03  7.56656E+02 -1.19402E+03  7.00556E+02 -1.39113E+03  1.19432E+02  7.97754E+02 -1.89521E+03
  3.68839E+02 -1.01638E+02  1.01024E+03  4.26792E+02  8.93439E+02 -9.51662E+02  1.03046E+03  7.85753E+02
  6.88744E+02 -2.99007E+02 -9.16643E+02  1.31812E+03 -7.32406E+02  1.58150E+03 -3.34571E+02  4.62305E+02
 -1.05753E+03 -1.40078E+02 -1.04310E+02  1.30682E+03 -1.00048E+03 -9.10877E+01 -1.24849E+03 -9.59300E+02
  3.39389E+02 -4.06282E+01 -5.94647E+02 -7.24645E+02  4.64703E+02 -1.51926E+03  5.67866E+02 -1.57320E+03
  4.80075E+02 -1.44937E+02 -7.20862E+02  6.45191E+02  4.77881E+01  7.08520E+02 -9.27209E+02  1.23095E+03
