 $NMID ID='MM_0lb_SNR200_17hz_g45_51.RAW', FMTDAT='(8E13.5)'
 TRAMP=1., VOLUME=1. $END
  3.09567E+05  6.90424E+02  3.37578E+05  2.50632E+05  8.50545E+04  3.37443E+05 -1.33739E+05  2.50040E+05
 -1.90162E+05  8.31623E+04 -1.10874E+05 -3.29764E+04  1.35033E+03 -4.97826E+04  5.35406E+04 -2.88111E+02
  3.52802E+04  5.26146E+04 -1.84663E+04  7.58037E+04 -6.04683E+04  6.29175E+04 -8.32352E+04  2.99111E+04
 -7.91756E+04 -1.12303E+04 -5.65399E+04 -5.02464E+04 -1.43510E+04 -6.86106E+04  2.64321E+04 -4.49299E+04
  3.97999E+04  4.84835E+03  1.43751E+04  4.72751E+04 -3.39855E+04  4.52231E+04 -6.65185E+04 -1.64988E+01
 -5.29010E+04 -5.65482E+04 -6.69770E+03 -7.51361E+04  3.34908E+04 -5.36537E+04  4.58077E+04 -1.67132E+04
  4.17933E+04  1.02306E+04  3.11773E+04  2.55174E+04  1.62493E+04  2.75700E+04 -5.05983E+03  2.68778E+04
 -2.19766E+04  1.25827E+04 -1.91389E+04 -4.44391E+03  4.71470E+03 -6.50305E+03  2.13174E+04  1.01117E+04
  6.93928E+03  3.39962E+04 -3.14591E+04  3.43534E+04 -6.14547E+04  2.44571E+03 -5.62472E+04 -4.23144E+04
 -1.32213E+04 -6.19140E+04  3.86527E+04 -4.36517E+04  5.68679E+04 -1.85945E+03  3.32594E+04  3.16052E+04
 -6.63198E+03  3.42418E+04 -2.84120E+04  1.45836E+04 -2.78479E+04 -4.74375E+03 -1.48205E+04 -1.00898E+04
 -6.93141E+03 -1.11157E+04 -1.08391E+03 -1.72204E+04  6.98587E+03 -2.20933E+04  1.57945E+04 -1.26283E+04
  1.18207E+04  4.76468E+03 -6.10760E+03  1.24351E+04 -1.96197E+04 -2.40008E+03 -7.84822E+03 -3.18618E+04
  2.14665E+04 -4.02925E+04  4.49435E+04 -1.78936E+04  4.37100E+04  1.95660E+04  1.43601E+04  4.37688E+04
 -1.51332E+04  3.18627E+04 -2.44497E+04  4.83120E+02 -8.40035E+03 -2.76851E+04  2.05316E+04 -3.11515E+04
  3.82975E+04 -7.00730E+03  3.27096E+04  2.30395E+04  1.63720E+04  4.34884E+04 -8.19205E+03  4.70286E+04
 -2.93978E+04  3.02289E+04 -3.86553E+04  9.81416E+03 -3.90254E+04 -1.51639E+04 -2.30160E+04 -3.53647E+04
  7.27265E+03 -3.46264E+04  3.05785E+04 -1.40044E+04  2.76347E+04  9.85519E+03  2.79699E+03  1.96721E+04
 -1.30213E+04  7.77886E+03 -8.64472E+03 -7.97163E+03  6.55617E+03 -1.00585E+04  1.71153E+04  6.35115E+03
  1.31233E+04  2.22463E+04 -7.26269E+03  2.36403E+04 -2.02548E+04  1.01335E+04 -2.62489E+04 -7.27340E+03
 -1.74586E+04 -1.75875E+04 -7.05142E+03 -1.79070E+04  4.06813E+03 -1.60349E+04  1.29112E+04 -1.48344E+04
  2.28807E+04 -1.22808E+04  2.98803E+04  1.82909E+03  2.15262E+04  1.71277E+04  4.12019E+03  3.47354E+04
 -1.63425E+04  2.85152E+04 -2.68655E+04  1.00948E+04 -2.07074E+04 -1.12734E+04 -4.13113E+03 -1.25858E+04
  2.45696E+03 -3.95937E+03 -3.11445E+03  5.25003E+03 -1.36990E+04  5.79285E+03 -1.46113E+04 -4.78267E+03
 -8.56597E+03 -1.73810E+04  4.97175E+03 -2.12327E+04  1.27275E+04 -1.50224E+04  1.53134E+04 -2.20238E+03
  9.83763E+03  1.07663E+04 -8.64497E+02  1.68325E+04 -1.14429E+04  9.42194E+03 -1.59321E+04 -3.25246E+03
 -1.37015E+04 -1.57036E+04 -1.86109E+03 -2.03369E+04  9.04697E+03 -1.61304E+04  1.71469E+04 -6.93389E+03
  1.57142E+04  4.04003E+02  1.09568E+04  3.90755E+03  5.80165E+03  1.57688E+02  8.11182E+03  1.33695E+01
  1.53962E+04  2.25954E+03  1.57593E+04  1.33730E+04  1.06814E+04  2.58730E+04 -3.46971E+03  2.88780E+04
 -1.68450E+04  2.16784E+04 -2.52983E+04  1.08042E+04 -2.77759E+04 -2.51890E+03 -2.28555E+04 -1.57172E+04
 -1.00855E+04 -2.27746E+04  6.36614E+03 -2.10522E+04  1.73315E+04 -1.17911E+04  1.64999E+04  4.49935E+03
  6.50684E+03  1.20549E+04 -7.60033E+03  1.13318E+04 -1.38837E+04  2.39259E+03 -9.65403E+03 -8.69938E+03
 -5.92863E+02 -1.34810E+04  6.10256E+03 -1.08290E+04  9.45893E+03 -1.44010E+03  1.41585E+03  4.89448E+03
 -5.94788E+03  3.11861E+03 -4.67249E+03 -4.59631E+03  3.47188E+02 -1.07850E+04  9.30741E+03 -1.18784E+04
  1.34697E+04 -4.64877E+03  1.46528E+04  2.46888E+03  1.20953E+04  1.07787E+04  6.56532E+03  1.56867E+04
 -2.09919E+03  1.73671E+04 -1.10491E+04  1.04498E+04 -1.14591E+04  3.62551E+03 -8.28091E+03 -1.36367E+03
 -4.29839E+03 -2.56339E+03 -9.56932E+02  2.10099E+03 -2.16276E+03  9.58278E+02 -5.09262E+03  3.19135E+03
 -7.66394E+03 -5.82975E+02 -9.01660E+03 -7.79131E+03 -4.02386E+03 -1.27175E+04  3.60926E+03 -8.78784E+03
  8.54284E+03 -3.73247E+03  6.62579E+03  2.29227E+03  1.60789E+02  3.01639E+03 -2.78133E+03 -7.19072E+01
 -4.14941E+03 -6.68207E+03 -8.79211E+02 -8.40617E+03  4.06559E+03 -8.54203E+03  1.14270E+04 -4.94756E+03
  1.25891E+04 -3.34308E+01  9.08665E+03  6.51203E+03  1.58404E+03  9.33328E+03 -4.43724E+03  8.39521E+03
 -8.48180E+03  2.54051E+03 -4.64206E+03 -1.91245E+03 -9.93981E+01 -3.27970E+03  4.55114E+03 -1.07231E+03
  5.69607E+03  2.70423E+03  1.48183E+03  7.69732E+03 -5.12852E+03  7.89720E+03 -8.35425E+03  2.27490E+03
 -5.62343E+03 -3.80539E+03 -4.39994E+02 -7.32664E+03  4.52927E+03 -3.53028E+03  4.26337E+03  5.66701E+02
  1.20934E+03  4.21032E+03 -3.44059E+03  4.22722E+03 -6.01875E+03  1.96426E+03 -5.86089E+03 -1.26152E+03
 -3.79247E+03 -6.60826E+03  1.26362E+03 -7.20848E+03  6.26164E+03 -4.52402E+03  7.70132E+03  1.01177E+03
  5.48777E+03  5.86633E+03 -1.30777E+03  7.94654E+03 -5.73104E+03  4.36961E+03 -5.55498E+03 -3.80857E+02
 -5.46837E+03 -5.67254E+03 -1.26924E+03 -6.09450E+03  4.66556E+03 -5.39482E+03  3.36653E+03 -2.78069E+03
  3.00375E+03 -1.76485E+02  8.44844E+02  1.56027E+03  4.29010E+02 -1.75625E+02 -4.81689E+01 -2.94908E+03
  5.11107E+03 -8.21979E+01  6.67667E+03  1.66822E+03  6.94825E+03  4.48984E+03  6.04418E+03  8.18119E+03
 -1.62948E+03  1.01149E+04 -9.16199E+03  7.76286E+03 -1.14139E+04  2.00810E+03 -9.36696E+03 -3.66895E+03
 -4.37397E+03 -8.42507E+03 -1.45208E+03 -6.54026E+03  2.45668E+03 -2.13651E+03  1.90683E+03 -1.82882E+03
  2.15431E+03 -1.34764E+03  1.83282E+03 -2.03133E+03  2.85814E+03 -1.57833E+03  4.49234E+03 -6.31101E+02
  5.63635E+03  9.15597E+02  1.00304E+03  5.11317E+03 -1.42955E+03  3.41077E+03 -5.33560E+03  3.79216E+03
 -5.47762E+03 -1.09411E+03 -1.99104E+03 -3.11875E+03  8.02347E+02 -5.50532E+03  3.41531E+03 -5.86038E+03
  5.07143E+03 -4.51195E+03  7.72388E+03 -5.09648E+01  5.89346E+03  5.38149E+03  7.35469E+02  7.61500E+03
 -2.99306E+03  6.21790E+03 -4.12463E+03  3.38636E+03 -2.82085E+03 -1.57712E+03 -9.07668E+02 -6.77616E+02
 -1.37283E+03 -6.32605E+02 -1.31054E+03  1.78663E+03 -3.14376E+03  6.76943E+02 -6.00768E+03 -1.30784E+03
 -1.23863E+03 -4.84037E+03  8.17867E+02 -5.16858E+03  4.28747E+03 -5.01671E+03  3.67132E+03 -1.02586E+03
  4.78588E+03  2.17846E+03  1.64221E+03  4.68681E+03 -5.74293E+02  6.00826E+03 -2.27957E+03  3.09209E+03
 -5.44827E+03  3.50159E+02 -3.47829E+03 -2.87958E+03  2.15792E+02 -4.40032E+03  1.62988E+03 -3.35326E+03
  2.85674E+03 -2.24584E+03  3.25538E+03  2.03981E+03  9.00152E+02  2.92553E+03  9.26648E+02  5.00307E+02
  2.43357E+03  2.57036E+02  1.30229E+03  5.13298E+02  1.68459E+03  1.97106E+03  1.61053E+03  2.33204E+03
 -2.28299E+03  4.52348E+03 -3.12027E+03  5.17863E+03 -3.46850E+03  4.00189E+02 -5.28756E+03 -2.42916E+01
 -3.03331E+03 -5.20396E+03  8.41881E+02 -5.50015E+03  2.06037E+03 -2.61065E+03  3.65581E+03 -1.77872E+03
  3.71386E+03  2.47405E+03  1.24263E+03  2.65398E+03 -1.09078E+03  1.39276E+03 -1.44641E+03 -4.63553E+02
 -1.44295E+02 -2.07309E+03  4.56097E+02 -1.54191E+03  8.08195E+02 -2.23368E+03  2.62100E+03  3.90042E+02
  1.89289E+03  1.26341E+03  6.34376E+02  3.17977E+02 -1.08342E+03  1.54711E+03  1.56832E+03  4.82539E+02
 -2.36519E+02 -1.53283E+02  1.71325E+03  8.76236E+01  9.54210E+02  3.69322E+03 -2.52873E+02  3.07705E+03
 -2.05368E+03  2.13431E+03 -2.71321E+03  5.76683E+02 -1.91265E+03 -4.89828E+01 -6.42041E+02 -1.73149E+03
  1.41204E+03 -1.87978E+03  1.75629E+03 -7.79467E+02 -4.20564E+02  1.50835E+03 -1.94091E+03  4.03157E+02
 -1.01099E+03  1.61241E+03 -2.22185E+03 -6.22031E+02 -1.01147E+03 -2.36586E+03  4.18479E+02 -2.05281E+03
  1.71723E+03 -5.15333E+02  7.85076E+02  8.42406E+02  1.90394E+03  1.16320E+03  7.75452E+02  1.67759E+03
 -1.14906E+03  5.76891E+02  1.37152E+02 -8.43147E+01  5.78806E+02 -1.30741E+03  1.95100E+03 -1.13907E+03
  8.69487E+02  1.36745E+02  2.72136E+03  1.19529E+03  3.07736E+02  1.98500E+03 -1.15868E+03  2.57493E+03
 -2.76379E+03  1.59777E+02 -1.64316E+03  1.13450E+02 -1.29136E+03 -1.84193E+03  5.90328E+01 -9.88995E+02
  8.58425E+02 -5.92633E+02  1.60255E+03  3.03407E+02 -2.63115E+01  9.95300E+02  1.12674E+03  1.26506E+03
  1.35741E+02  9.60828E+02 -1.29007E+03  9.50391E+02  6.80331E+02  5.68487E+02 -5.73871E+01 -2.91534E+02
 -8.14640E+02  5.48940E+02 -2.43744E+03  7.25112E+02 -1.38942E+03  4.15977E+02 -3.18808E+03 -2.98920E+03
 -1.74095E+03 -3.61894E+03  1.78134E+03 -4.03161E+03  1.45730E+03 -2.96359E+03  3.64562E+03 -1.55930E+03
  2.27814E+03  3.47835E+02  1.30066E+03  1.21319E+03 -1.09051E+02  1.81702E+03 -1.30454E+03  1.22769E+03
 -1.08992E+03  5.17443E+01 -8.23568E+02 -1.20794E+03 -8.18423E+02 -9.81365E+02 -1.44841E+03 -3.46872E+02
 -1.93510E+03 -2.51895E+02 -1.41265E+03  2.19472E+02  1.20848E+03 -1.23360E+03  5.28590E+02 -2.20455E+03
  1.36531E+03 -1.46758E+02  8.61915E+02 -1.74562E+02  1.18333E+03  1.06775E+03 -1.20290E+03  1.86298E+03
 -8.52740E+02  3.15429E+03 -9.26471E+02  1.14335E+03 -2.17293E+03  7.25576E+02 -1.16417E+03 -2.19695E+03
 -8.11347E+02 -2.83325E+03 -1.13076E+02 -9.59492E+02  4.91938E+02 -5.74332E+02  1.01313E+03 -8.81075E+02
  6.67303E+02 -2.31550E+02 -2.52381E+00  1.56320E+03 -1.01130E+02 -1.35322E+02 -4.92845E+02  2.36119E+02
  1.94669E+03 -2.76998E+02  3.93469E+02 -3.64318E+02  3.44235E+02  1.42719E+03  9.47807E+02 -3.60914E+02
 -6.02778E+02  9.98846E+02 -3.19016E+02 -3.07102E+01 -7.13252E+01 -1.33569E+03 -3.38139E+02 -1.07985E+03
  2.06422E+03  3.20146E+01  7.46831E+01  1.13028E+02  3.93298E+02 -6.67916E+02  1.70457E+03  5.80234E+02
  9.93117E+02  8.83954E+02 -7.00372E+01  1.25719E+03 -9.96185E+02  1.22205E+03 -4.75200E+02 -2.41436E+02
  1.89992E+02 -6.67977E+02 -4.21948E+02 -2.44556E+02 -1.94207E+02 -5.16207E+02 -3.18057E+03 -4.90236E+02
 -8.65833E+02  4.61198E+02 -6.18452E+02 -5.03534E+02  1.04387E+03 -2.46272E+03  1.71611E+03 -3.88934E+02
  2.32029E+03  2.82815E+02 -1.55873E+03  7.44779E+02  1.06088E+03  1.98095E+03 -8.90707E+02  6.50110E+02
