 $NMID ID='MM_0lb_SNR200_18hz_g40_85.RAW', FMTDAT='(8E13.5)'
 TRAMP=1., VOLUME=1. $END
  3.09197E+05  2.58433E+02  3.36481E+05  2.51695E+05  8.41552E+04  3.38412E+05 -1.32371E+05  2.49821E+05
 -1.88659E+05  8.36198E+04 -1.11270E+05 -3.23966E+04  1.00396E+03 -5.01374E+04  5.49775E+04  1.40758E+02
  3.37017E+04  5.26673E+04 -1.67447E+04  7.48036E+04 -6.04241E+04  6.22298E+04 -8.24203E+04  3.09862E+04
 -8.05380E+04 -1.04027E+04 -5.72100E+04 -5.03169E+04 -1.42180E+04 -6.82283E+04  2.61166E+04 -4.50607E+04
  4.02065E+04  3.76681E+03  1.59958E+04  4.69325E+04 -3.32286E+04  4.57295E+04 -6.45685E+04  8.36408E+02
 -5.12468E+04 -5.60200E+04 -5.58639E+03 -7.42143E+04  3.37361E+04 -5.28519E+04  4.56176E+04 -1.55494E+04
  4.05065E+04  1.16177E+04  3.07872E+04  2.48440E+04  1.53303E+04  2.89451E+04 -5.15414E+03  2.77240E+04
 -2.04150E+04  1.29681E+04 -1.99497E+04 -3.96909E+03  4.69394E+03 -8.03793E+03  2.07042E+04  1.06587E+04
  7.62253E+03  3.28182E+04 -2.97797E+04  3.33875E+04 -6.15468E+04  2.09975E+03 -5.49964E+04 -4.02956E+04
 -1.16125E+04 -6.10184E+04  3.65776E+04 -4.36682E+04  5.37202E+04 -2.23744E+03  3.12777E+04  3.01616E+04
 -7.01152E+03  3.32281E+04 -2.76347E+04  1.30747E+04 -2.76779E+04 -5.46094E+03 -1.54586E+04 -9.90684E+03
 -6.90066E+03 -1.08006E+04 -7.78967E+02 -1.87909E+04  6.65836E+03 -2.21493E+04  1.51171E+04 -1.43554E+04
  1.29280E+04  3.62709E+03 -5.61080E+03  1.29677E+04 -2.03683E+04 -1.72172E+03 -7.35985E+03 -2.98705E+04
  2.07452E+04 -4.09035E+04  4.35640E+04 -1.82385E+04  4.14770E+04  1.77688E+04  1.42194E+04  4.23356E+04
 -1.56983E+04  3.09664E+04 -2.32359E+04  1.60629E+03 -8.11555E+03 -2.65845E+04  2.14632E+04 -3.20239E+04
  3.69162E+04 -7.66121E+03  3.11120E+04  2.19364E+04  1.53582E+04  4.27720E+04 -8.87936E+03  4.41911E+04
 -2.81314E+04  3.10553E+04 -3.62386E+04  8.16263E+03 -3.80109E+04 -1.55577E+04 -2.04210E+04 -3.45327E+04
  7.36669E+03 -3.30546E+04  3.00761E+04 -1.24452E+04  2.71179E+04  1.07121E+04  2.47431E+03  1.74669E+04
 -1.32634E+04  6.96025E+03 -9.58552E+03 -7.78769E+03  5.97681E+03 -1.08640E+04  1.64938E+04  6.62836E+03
  1.28669E+04  2.04403E+04 -6.88181E+03  2.21490E+04 -2.13314E+04  8.03838E+03 -2.49670E+04 -6.47957E+03
 -1.59784E+04 -1.56210E+04 -5.95669E+03 -1.67699E+04  2.16787E+03 -1.36192E+04  1.23171E+04 -1.44453E+04
  2.11662E+04 -1.22573E+04  2.81010E+04  1.70608E+03  2.10194E+04  1.56045E+04  4.91067E+03  3.20516E+04
 -1.63521E+04  2.62209E+04 -2.57420E+04  9.71609E+03 -2.00417E+04 -1.02534E+04 -3.91014E+03 -1.38086E+04
  2.12901E+03 -4.03033E+03 -2.49502E+03  5.17556E+03 -1.19411E+04  5.44958E+03 -1.30510E+04 -5.55958E+03
 -8.42482E+03 -1.49757E+04  4.70017E+03 -1.86478E+04  1.18371E+04 -1.36219E+04  1.42468E+04 -4.90910E+02
  8.01338E+03  1.14324E+04 -4.40474E+02  1.56226E+04 -1.00883E+04  8.85730E+03 -1.56883E+04 -3.71254E+03
 -1.17410E+04 -1.43203E+04 -1.30707E+03 -1.85586E+04  8.31762E+03 -1.51647E+04  1.63431E+04 -6.95839E+03
  1.45275E+04  7.27786E+02  1.03032E+04  4.01643E+03  5.80221E+03  9.31633E+02  7.31261E+03 -1.93449E+03
  1.36389E+04  2.96528E+03  1.34353E+04  1.25723E+04  9.63980E+03  2.52288E+04 -3.58046E+03  2.65980E+04
 -1.55132E+04  1.90018E+04 -2.39187E+04  1.00180E+04 -2.51140E+04 -2.44957E+03 -2.09091E+04 -1.40083E+04
 -1.05463E+04 -2.02956E+04  5.84229E+03 -1.87447E+04  1.61391E+04 -9.83531E+03  1.58449E+04  3.85293E+03
  6.40614E+03  1.13961E+04 -7.44692E+03  9.71872E+03 -1.32687E+04  3.90833E+03 -1.02264E+04 -8.07121E+03
 -1.18197E+03 -1.26226E+04  6.21347E+03 -9.69773E+03  7.84499E+03 -1.47516E+03  7.74562E+02  5.52797E+03
 -5.05489E+03  2.07840E+03 -3.80853E+03 -4.30718E+03  5.18916E+02 -1.06672E+04  7.70321E+03 -9.83206E+03
  1.27129E+04 -5.15475E+03  1.01259E+04  1.67681E+03  1.03643E+04  8.24130E+03  3.11893E+03  1.46026E+04
 -2.75121E+03  1.65009E+04 -9.45924E+03  1.02850E+04 -1.08167E+04  3.07913E+03 -9.11668E+03 -1.70357E+03
 -4.75136E+03 -2.82959E+03 -1.79392E+02  1.76748E+03 -1.12024E+03  2.00802E+03 -3.02922E+03  2.99633E+03
 -5.76487E+03  6.56443E+02 -8.75699E+03 -7.15235E+03 -3.85389E+03 -1.10644E+04  2.68222E+03 -8.58320E+03
  7.99928E+03 -2.88709E+03  4.69212E+03  2.49044E+03 -1.31495E+02  2.78796E+03 -3.18603E+03  5.99080E+01
 -3.11414E+03 -5.72064E+03 -1.50250E+03 -6.68601E+03  4.51008E+03 -7.96784E+03  9.94881E+03 -3.87614E+03
  1.19365E+04  1.85279E+03  8.19332E+03  5.80864E+03  2.22412E+03  8.41107E+03 -5.19881E+03  7.75011E+03
 -6.40544E+03  3.40042E+03 -2.65437E+03 -1.28085E+03  1.43166E+03 -2.12073E+03  4.98001E+03 -1.77121E+03
  4.19745E+03  3.94095E+03  6.12968E+02  6.47858E+03 -4.71240E+03  6.48730E+03 -7.55828E+03  1.64602E+03
 -4.98330E+03 -3.01680E+03  4.80818E+02 -5.77624E+03  4.04305E+03 -3.54383E+03  4.23082E+03  1.04307E+03
 -3.92986E+02  2.95437E+03 -4.28538E+03  4.68225E+03 -3.87982E+03  2.14832E+03 -4.12209E+03 -1.32193E+03
 -3.71122E+03 -6.51035E+03  1.26375E+02 -7.61413E+03  6.37500E+03 -3.88092E+03  5.84147E+03  1.41647E+03
  4.89774E+03  5.72718E+03 -4.91585E+02  8.05999E+03 -5.44282E+03  4.09883E+03 -5.39891E+03 -2.04646E+03
 -5.47942E+03 -4.67853E+03 -7.26730E+02 -4.84437E+03  3.60852E+03 -4.54799E+03  1.87741E+03 -2.95209E+03
  2.25223E+03  5.26614E+02  9.17564E+02  1.62865E+03  8.12990E+02 -5.11757E+02 -1.42040E+02 -2.57439E+03
  3.99849E+03 -4.65443E+02  5.57464E+03  1.34535E+03  6.49269E+03  3.66119E+03  5.88134E+03  6.83265E+03
 -1.01554E+02  8.38637E+03 -8.35965E+03  6.76803E+03 -1.04206E+04  1.36389E+03 -8.64540E+03 -2.09113E+03
 -3.30056E+03 -7.53300E+03 -1.00915E+03 -4.73548E+03  2.44833E+03 -2.14083E+03  1.82788E+03 -1.00216E+03
  1.28494E+03 -1.32585E+03  2.27993E+03 -1.01622E+03  4.29730E+03 -1.30396E+03  3.48025E+03  6.40249E+02
  4.54945E+03  1.06106E+03  1.04096E+03  4.03261E+03 -2.78962E+03  2.52448E+03 -4.63702E+03  2.17304E+03
 -5.63292E+03 -7.73565E+02 -1.89772E+03 -3.28135E+03  4.13883E+02 -5.23050E+03  2.58582E+03 -5.67585E+03
  5.44631E+03 -2.98009E+03  6.97515E+03 -4.91411E+02  4.38553E+03  4.30206E+03  8.91458E+02  7.02800E+03
 -2.64017E+03  6.83112E+03 -3.55827E+03  1.42573E+03 -3.01323E+03 -1.05919E+03 -9.11757E+02  4.53626E+02
  7.88171E+01 -3.23233E+01 -1.31459E+03  1.41301E+03 -2.24247E+03  1.39742E+03 -3.55419E+03 -1.26280E+02
 -2.05911E+03 -3.42620E+03  5.70904E+02 -4.94003E+03  2.98941E+03 -4.15851E+03  3.78981E+03 -1.29370E+03
  4.33520E+03  2.32692E+03  2.25275E+03  3.89630E+03 -1.07872E+03  4.49758E+03 -2.59746E+03  2.71636E+03
 -4.11889E+03 -1.81109E+02 -3.47405E+03 -2.86088E+03  1.27113E+02 -2.31693E+03  3.91801E+02 -2.65916E+03
  3.30014E+03 -1.34172E+03  2.14359E+03 -7.86691E+01  3.25828E+02  1.86852E+03  6.39818E+02  1.34289E+03
  3.25326E+03  9.05317E+02  7.97945E+02  6.82128E+02  6.74547E+02  2.32996E+03  1.00514E+03  3.12982E+03
 -1.23899E+03  3.40882E+03 -2.37100E+03  3.41455E+03 -2.89891E+03  1.56344E+03 -4.62919E+03 -1.30125E+03
 -1.03689E+03 -2.64790E+03  6.53677E+02 -5.03339E+03  2.31176E+03 -4.06998E+03  3.43773E+03 -4.57228E+02
  2.28160E+03  1.95424E+03  9.63686E+02  2.50310E+03 -7.81574E+02  1.07776E+03 -1.29937E+03 -7.85969E+02
 -4.53768E+02 -1.36387E+03  6.57830E+02 -1.33640E+03  6.88891E+02 -1.63983E+03  3.04726E+02 -5.10728E+02
  1.70360E+03  1.11074E+03  6.71103E+01 -2.07401E+02  2.67535E+02  7.10930E+02  2.58386E+03 -6.64005E+02
  5.28267E+02 -7.71423E+02  1.84535E+03  5.28841E+02 -9.81890E+00  2.90369E+03 -2.19147E+02  2.65010E+03
 -2.39076E+03  1.91284E+03 -1.47433E+03  5.73908E+02 -2.62393E+03  7.58434E+02  4.32927E+02 -1.54412E+03
 -1.49281E+02 -1.43091E+03  1.79987E+03 -6.54315E+02  6.99769E+02  5.58660E+02 -7.71841E+01  4.71353E+02
 -1.42676E+03  1.37367E+03  6.14050E+01 -1.21865E+03 -4.84745E+02 -2.15257E+03  5.07762E+02 -1.78741E+03
  3.77410E+02 -8.16693E+02  1.43429E+03 -3.84390E+02  7.12280E+02 -3.01301E+02 -1.78003E+02  1.45433E+03
 -2.94021E+02 -2.45771E+02 -2.17838E+03  6.89449E+02  4.17056E+02 -8.94902E+02  2.09998E+03 -9.67372E+02
  3.16734E+02  3.58812E+02  2.29147E+03  1.61784E+02  1.33642E+03  1.58605E+03 -7.91734E+02  1.55515E+03
 -2.26167E+03  1.36144E+03 -1.24867E+03 -3.76939E+02 -5.83241E+02 -2.46414E+03 -1.07700E+03  2.07411E+02
  9.33981E+02 -2.49059E+02  1.76823E+03 -1.52149E+02 -4.29757E+02  1.05557E+03  7.82752E+02  7.60414E+02
  4.93478E+02  1.47997E+03  1.57866E+02 -5.05946E+02  1.07186E+03  1.11163E+02 -1.09627E+03  8.75441E+02
 -1.80770E+03  2.29161E+03 -2.15248E+03  5.97363E+02 -2.23146E+03 -7.27100E+02 -2.78033E+03 -5.85159E+02
 -1.57470E+03 -2.41710E+03  7.36913E+02 -2.55746E+03  8.73264E+02 -2.96125E+03  2.26572E+03 -1.25471E+03
  3.05978E+03  1.40856E+01  9.97485E+02  2.74257E+03 -1.69488E+03  2.62904E+03 -9.48840E+02  1.18609E+03
 -6.43351E+02  6.97426E+02 -3.68032E+01  2.34408E+02 -3.07594E+01 -4.46890E+02 -1.01684E+03  1.35826E+02
 -1.53871E+03 -2.08838E+02 -9.58903E+02  4.25296E+02 -1.00459E+03 -5.67353E+02 -1.81240E+02 -8.11232E+02
  9.95334E+02 -1.17583E+03  1.67993E+03 -6.46414E+00  9.88255E+02  7.10305E+02  2.49587E+02  1.17364E+03
 -1.23720E+03  2.26645E+03 -1.15799E+03  6.46275E+02 -1.67844E+03 -9.60414E+02 -1.62206E+03 -8.93555E+02
 -9.34575E+02 -1.19318E+03  1.14146E+03 -2.23777E+03  6.17632E+02 -1.68884E+03  6.77129E+02 -1.90659E+01
  5.33115E+02 -1.96876E+02  4.82175E+02  8.12113E+02 -8.03761E+02 -9.10327E+01 -4.31249E+02 -2.43949E+02
  7.40503E+02 -2.91013E+02 -1.11658E+02  3.17297E+02 -4.35247E+02  5.62361E+02  6.18877E+02  1.68020E+03
 -1.85695E+03  4.61544E+02 -1.21450E+03  6.79483E+02 -1.46490E+03  3.22692E+02 -5.92075E+02 -2.06120E+03
  4.13416E+02 -6.69870E+02 -3.63876E+02  5.29944E+02  7.07987E+02 -6.21704E+02 -8.27236E+00  1.01988E+03
  4.39177E+02  7.01700E+02 -2.26269E+02  1.43622E+03 -1.10146E+03  6.29014E+02 -4.78803E+02 -3.33645E+02
 -2.18809E+01 -7.87878E+01  1.23585E+01 -6.87549E+02  2.33872E+02 -1.70312E+02 -9.90648E+02 -4.01798E+02
 -1.59339E+03 -6.32249E+02 -5.88827E+02 -9.88390E+02  1.31091E+03 -7.42004E+02  9.89566E+02 -1.20791E+02
  6.36686E+02  7.55493E+02 -1.04848E+02  1.33514E+03  3.83843E+01  1.23965E+03 -1.23407E+03  7.93268E+02
