 $NMID ID='MM_0lb_SNR200_16hz_g45_70.RAW', FMTDAT='(8E13.5)'
 TRAMP=1., VOLUME=1. $END
  3.09254E+05  1.55873E+02  3.37115E+05  2.51782E+05  8.35968E+04  3.37661E+05 -1.31782E+05  2.50228E+05
 -1.90018E+05  8.31162E+04 -1.11965E+05 -3.18296E+04  1.34425E+03 -5.08954E+04  5.49193E+04  9.14144E+02
  3.50520E+04  5.19602E+04 -1.68665E+04  7.50526E+04 -6.06500E+04  6.28634E+04 -8.33274E+04  3.19348E+04
 -8.01789E+04 -1.02047E+04 -5.68338E+04 -5.03499E+04 -1.53944E+04 -6.88162E+04  2.59582E+04 -4.49858E+04
  3.91703E+04  4.42753E+03  1.61274E+04  4.80210E+04 -3.40420E+04  4.64902E+04 -6.52798E+04 -5.14909E+02
 -5.19073E+04 -5.57527E+04 -6.47701E+03 -7.56145E+04  3.34100E+04 -5.38886E+04  4.77533E+04 -1.73516E+04
  4.17703E+04  1.05142E+04  2.98800E+04  2.36348E+04  1.61240E+04  2.81535E+04 -5.25034E+03  2.69211E+04
 -2.26825E+04  1.22464E+04 -1.91257E+04 -5.41631E+03  5.69183E+03 -7.27883E+03  2.14651E+04  1.13523E+04
  8.19485E+03  3.36231E+04 -3.10440E+04  3.51638E+04 -6.24871E+04  2.30885E+03 -5.73918E+04 -4.23094E+04
 -1.25011E+04 -6.20256E+04  3.88603E+04 -4.43623E+04  5.59510E+04 -2.54570E+03  3.28516E+04  3.06322E+04
 -6.86186E+03  3.37146E+04 -2.86423E+04  1.47360E+04 -2.95556E+04 -5.89465E+03 -1.64827E+04 -1.01218E+04
 -7.29350E+03 -1.13054E+04 -1.21034E+03 -1.72733E+04  7.78998E+03 -2.28854E+04  1.51053E+04 -1.41373E+04
  1.19052E+04  5.14894E+03 -7.77713E+03  1.26967E+04 -1.97439E+04 -3.07835E+03 -8.31415E+03 -3.13206E+04
  2.14975E+04 -4.21562E+04  4.62224E+04 -1.80808E+04  4.34014E+04  1.95371E+04  1.45728E+04  4.38185E+04
 -1.56707E+04  3.18764E+04 -2.52657E+04  1.03268E+03 -8.62153E+03 -2.68942E+04  2.07371E+04 -3.18927E+04
  3.92401E+04 -7.79386E+03  3.33668E+04  2.32804E+04  1.74759E+04  4.49745E+04 -8.29686E+03  4.62680E+04
 -3.00466E+04  3.28412E+04 -3.95198E+04  9.36897E+03 -4.00967E+04 -1.54455E+04 -2.23499E+04 -3.67389E+04
  7.50741E+03 -3.57268E+04  3.00488E+04 -1.27401E+04  2.68678E+04  1.17967E+04  3.07370E+03  1.82222E+04
 -1.32723E+04  7.24937E+03 -1.02429E+04 -7.65157E+03  6.33362E+03 -1.04296E+04  1.71388E+04  5.86802E+03
  1.21235E+04  2.08065E+04 -5.08475E+03  2.45619E+04 -2.25658E+04  1.02210E+04 -2.68187E+04 -5.30524E+03
 -1.93479E+04 -1.58535E+04 -6.77222E+03 -1.86504E+04  2.96057E+03 -1.69623E+04  1.33385E+04 -1.39297E+04
  2.29819E+04 -1.20985E+04  3.03245E+04  1.37854E+03  2.27319E+04  1.68067E+04  4.93517E+03  3.47318E+04
 -1.67413E+04  2.92665E+04 -2.65389E+04  9.54754E+03 -2.08689E+04 -1.04315E+04 -4.26161E+03 -1.47231E+04
  2.14053E+03 -3.74886E+03 -2.44599E+03  5.43886E+03 -1.46589E+04  4.96610E+03 -1.42455E+04 -5.49751E+03
 -8.91873E+03 -1.65903E+04  4.57035E+03 -2.11271E+04  1.32799E+04 -1.50116E+04  1.63770E+04 -2.08035E+03
  1.18558E+04  1.20493E+04 -1.65061E+03  1.69520E+04 -1.12056E+04  9.57965E+03 -1.76503E+04 -4.48233E+03
 -1.11301E+04 -1.63355E+04 -1.39567E+03 -2.08505E+04  8.52890E+03 -1.71313E+04  1.71196E+04 -7.72247E+03
  1.71200E+04 -9.11400E+01  1.16989E+04  3.84797E+03  5.30268E+03  1.29443E+03  7.85876E+03 -8.76253E+02
  1.55560E+04  3.34247E+03  1.69076E+04  1.31683E+04  1.00001E+04  2.71264E+04 -1.70403E+03  3.04661E+04
 -1.75401E+04  2.45460E+04 -2.74802E+04  1.02787E+04 -2.84051E+04 -1.95271E+03 -2.46482E+04 -1.71008E+04
 -1.14615E+04 -2.30824E+04  8.18802E+03 -2.17152E+04  1.76505E+04 -1.07741E+04  1.68683E+04  3.83692E+03
  7.07851E+03  1.25796E+04 -7.14085E+03  1.18826E+04 -1.47551E+04  2.74091E+03 -1.14100E+04 -8.84929E+03
 -6.56800E+02 -1.46035E+04  7.66476E+03 -1.07792E+04  9.37725E+03 -1.64518E+03  2.11951E+03  5.86331E+03
 -6.04076E+03  1.42596E+03 -4.89229E+03 -4.14474E+03 -5.47520E+02 -1.15052E+04  9.67655E+03 -1.27270E+04
  1.47222E+04 -5.54096E+03  1.45830E+04  2.64759E+03  1.21008E+04  1.10653E+04  6.31971E+03  1.79024E+04
 -1.53270E+03  1.85114E+04 -1.19744E+04  1.25314E+04 -1.26371E+04  3.30122E+03 -1.05977E+04 -3.22136E+03
 -4.63784E+03 -4.37030E+03 -6.67048E+02  8.43062E+02 -1.47005E+03  2.78850E+03 -3.52061E+03  3.44241E+03
 -1.02536E+04  2.52774E+02 -1.07288E+04 -6.98197E+03 -4.35631E+03 -1.18150E+04  4.55379E+03 -8.97642E+03
  8.57687E+03 -3.73590E+03  6.26925E+03  3.35879E+03  2.90002E+02  3.89533E+03 -3.34573E+03  1.27506E+02
 -3.60912E+03 -6.37252E+03 -1.05741E+03 -8.57119E+03  4.09276E+03 -9.18068E+03  1.13869E+04 -4.10390E+03
  1.29950E+04  8.68853E+02  1.02779E+04  8.80305E+03  1.66264E+03  9.99357E+03 -7.02706E+03  1.00431E+04
 -8.23434E+03  3.83049E+03 -3.22363E+03 -1.53278E+03  4.94095E+02 -2.08886E+03  6.00781E+03 -3.72041E+02
  4.13346E+03  4.21727E+03  5.10370E+02  7.29450E+03 -5.22973E+03  8.25687E+03 -9.41209E+03  3.23784E+03
 -5.71047E+03 -4.55582E+03  6.45920E+02 -7.51624E+03  5.48468E+03 -3.75294E+03  4.06767E+03  1.08910E+03
  7.38994E+02  4.40267E+03 -5.21950E+03  6.17468E+03 -6.44855E+03  2.54561E+03 -6.09839E+03 -1.43547E+03
 -4.78407E+03 -7.47357E+03  2.48084E+03 -8.68547E+03  6.69511E+03 -5.37618E+03  7.28750E+03  2.92568E+02
  5.04103E+03  6.43844E+03 -3.35519E+02  7.56870E+03 -5.51105E+03  4.50323E+03 -6.53220E+03  1.61604E+01
 -7.63724E+03 -5.47591E+03 -1.57031E+03 -6.70635E+03  2.78573E+03 -4.45006E+03  4.10466E+03 -2.86419E+03
  2.73177E+03  1.27198E+03 -5.56002E+02  1.43531E+03  2.00930E+02 -3.41410E+01  7.34425E+01 -3.50062E+03
  7.17676E+03 -1.83051E+03  6.95831E+03 -1.12029E+02  6.88346E+03  4.77985E+03  6.64489E+03  9.66543E+03
 -2.10454E+03  1.11616E+04 -9.79004E+03  9.38791E+03 -1.28621E+04  1.47787E+03 -9.83583E+03 -3.92417E+03
 -5.45615E+03 -8.20248E+03  5.09449E+02 -6.80514E+03  3.17051E+03 -3.83137E+03  3.08014E+03 -3.24914E+03
  1.96378E+03 -5.40522E+02  2.46976E+03 -2.23888E+03  3.85450E+03 -1.46232E+03  4.31456E+03 -6.93510E+01
  6.41824E+03  1.10314E+03  1.23315E+03  5.73575E+03 -1.11792E+03  4.33459E+03 -5.44328E+03  3.92370E+03
 -6.33939E+03 -9.68879E+02 -4.37665E+03 -4.74013E+03  5.23484E+02 -5.97193E+03  3.80457E+03 -8.42239E+03
  7.83775E+03 -3.38070E+03  9.77766E+03  7.51249E+02  7.89763E+03  5.29387E+03  8.06128E+02  7.94707E+03
 -2.67722E+03  7.66765E+03 -3.75614E+03  1.63320E+03 -1.83397E+03 -1.91088E+03 -9.98624E+02 -1.66879E+03
 -1.04595E+03  6.25281E+02 -3.07204E+02  3.67802E+03 -3.16748E+03  1.56380E+03 -5.37169E+03 -1.44189E+03
 -3.87875E+03 -5.75178E+03  1.43722E+01 -6.02139E+03  3.61082E+03 -4.75856E+03  5.20506E+03 -1.33089E+03
  5.94732E+03  2.84404E+03  2.60758E+03  4.48518E+03 -2.22428E+02  5.33476E+03 -4.00181E+03  3.40488E+03
 -5.42626E+03  7.69439E+02 -4.66786E+03 -4.66203E+03  4.01549E+00 -3.04278E+03  1.92135E+03 -3.86417E+03
  4.00125E+03 -1.73183E+03  2.47335E+03  1.47987E+03  1.63422E+03  1.80120E+03 -1.60662E+02  6.99359E+02
  1.99762E+03 -1.72464E+02  1.53799E+03  1.16620E+03  7.27978E+02  3.06703E+03  1.64938E+03  1.59142E+03
 -1.49927E+03  4.12577E+03 -3.53860E+03  5.29544E+03 -4.01906E+03  1.33630E+03 -6.33108E+03 -1.72542E+03
 -1.58987E+03 -5.74242E+03  9.79867E+02 -6.19316E+03  1.94896E+03 -5.30977E+03  4.57080E+03 -1.71635E+03
  3.47423E+03  1.74368E+03  1.37885E+03  3.47749E+03 -1.46087E+03  2.56963E+03 -2.88192E+03 -3.52683E+02
 -3.98629E+02 -2.43021E+03  1.29029E+03 -2.38706E+03  2.02848E+03 -1.33868E+03  1.58709E+03 -1.92636E+02
  1.21139E+03  6.83930E+02  1.29423E+03 -1.95105E+02  1.82056E+02  3.08214E+02  2.14863E+03 -2.84047E+02
 -8.01076E+02 -4.18157E+02  2.00683E+03  1.20904E+03  1.17615E+03  3.09694E+03  7.80974E+02  4.10888E+03
 -2.73621E+03  2.53861E+03 -2.71445E+03  1.24720E+03 -3.36244E+03 -3.76606E+02 -6.98463E+02 -2.40780E+03
  1.19021E+03 -1.29848E+03  1.41039E+03 -7.21680E+02  7.43015E+02  2.22206E+03  3.08903E+01  2.42977E+03
 -1.17108E+03  1.44767E+03 -2.19533E+03 -1.04550E+03 -4.20278E+02 -2.89032E+03  9.59932E+02 -3.09823E+03
  9.90129E+02 -9.14610E+02  1.22208E+03  8.29039E+02  2.81450E+03 -2.11427E+02  2.16000E+02  9.73308E+02
 -4.47673E+02  3.56393E+02 -2.40629E+03 -8.71272E+02  9.03960E+02 -1.52000E+03  1.90401E+03 -2.50251E+03
  2.48225E+03  1.03698E+03  4.35173E+03  1.82893E+03 -1.59209E+02  2.52241E+03 -1.79236E+03  3.12440E+03
 -1.60409E+03  8.72920E+02 -1.94351E+03  1.00496E+02 -1.81847E+03 -8.19621E+02  5.84201E+02 -7.35675E+02
  2.26177E+03  7.32983E+02  8.91637E+02  6.87932E+02 -2.94707E+02  1.34431E+03  5.16887E+01  2.16331E+03
 -9.27771E+02  1.00404E+03 -1.99595E+03  1.16298E+02 -2.20380E+02 -1.00253E+03 -6.77186E+02  1.04347E+03
 -1.11345E+03  1.33447E+03 -2.54938E+03  1.89450E+03 -3.23843E+03  6.09337E+01 -3.71997E+03 -2.03210E+03
 -2.57114E+03 -2.81883E+03 -5.64312E+02 -4.12408E+03  1.82508E+03 -3.91090E+03  4.97585E+03 -7.22593E+02
  3.98270E+03  1.59470E+03  1.77153E+03  1.51160E+03  2.24416E+02  2.68578E+03 -6.94527E+02  2.73521E+03
 -8.78914E+02 -1.08899E+01 -8.69612E+02 -7.39772E+02 -1.09104E+03  1.49413E+03 -1.24367E+03  1.28865E+02
 -7.18800E+02 -1.66817E+02 -1.43997E+03  5.40911E+02  8.76089E+02 -5.46669E+02 -2.64373E+02 -2.81049E+02
  7.33879E+02 -4.02889E+02  6.73611E+02 -1.56204E+02  1.72144E+03  1.26073E+03 -4.70677E+02  1.79702E+03
 -1.74210E+03  3.70900E+03 -2.26245E+03  2.56406E+03 -4.52440E+03  4.44409E+02 -1.38884E+03 -2.38097E+03
 -1.15031E+03 -2.20327E+03  6.61289E+02 -1.61785E+03  2.28321E+03 -1.25190E+03  6.09641E+02  3.51074E+02
  1.98484E+03  2.06234E+03  4.80753E+02  5.97106E+02  2.27263E+02 -6.84275E+02  3.55938E+02  1.58531E+02
 -3.78115E+02  5.46473E+02  1.00442E+03  1.12259E+03  3.64035E+02 -6.22276E+02  2.06888E+02  1.53835E+02
 -1.65115E+03  2.06291E+03 -1.25547E+03  5.82993E+02 -5.35668E+02 -1.81889E+03  2.87816E+02 -2.83823E+03
  1.37037E+03 -1.27018E+03  2.10905E+03 -2.35187E+02  2.57494E+03 -2.05926E+02  1.16940E+03  1.51959E+03
  4.56939E+02  1.48071E+03 -4.31163E+01  9.27656E+02 -9.76108E+02  1.12646E+03 -5.09541E+02 -6.11317E+02
  2.62245E+02 -1.24512E+03 -1.47093E+03  1.17939E+03 -1.34948E+03  6.91359E+01 -4.72150E+02 -6.97163E+02
 -2.07371E+02 -3.08451E+02  7.37315E+02 -2.02006E+03  1.05616E+03 -1.08220E+03  2.02544E+03 -6.51599E+02
  1.23726E+03  6.69018E+02  7.04188E+02  4.19361E+02 -1.24067E+03  1.72578E+03 -5.74913E+02  1.38712E+03
