 $NMID ID='MM_0lb_SNR200_17hz_g60_18.RAW', FMTDAT='(8E13.5)'
 TRAMP=1., VOLUME=1. $END
  3.09532E+05  1.91342E+03  3.37572E+05  2.50293E+05  8.57339E+04  3.36856E+05 -1.33112E+05  2.51542E+05
 -1.88253E+05  8.33451E+04 -1.11437E+05 -3.25246E+04 -1.86533E+02 -5.06180E+04  5.31836E+04  7.45075E+02
  3.53517E+04  5.33979E+04 -1.59321E+04  7.61598E+04 -6.14493E+04  6.34919E+04 -8.47719E+04  3.24874E+04
 -8.14109E+04 -1.08671E+04 -5.71417E+04 -5.06824E+04 -1.49379E+04 -6.87044E+04  2.72696E+04 -4.56338E+04
  4.05059E+04  4.16156E+03  1.55074E+04  4.87575E+04 -3.51148E+04  4.68682E+04 -6.62484E+04  2.05918E+02
 -5.44200E+04 -5.76149E+04 -6.21177E+03 -7.69868E+04  3.39266E+04 -5.49255E+04  4.69548E+04 -1.70986E+04
  4.33191E+04  1.18816E+04  3.26366E+04  2.47528E+04  1.45837E+04  2.93299E+04 -4.71581E+03  2.72865E+04
 -2.26964E+04  1.19678E+04 -1.89915E+04 -4.97788E+03  4.75895E+03 -7.99592E+03  2.11877E+04  1.18859E+04
  6.82276E+03  3.62986E+04 -3.17074E+04  3.52526E+04 -6.29302E+04  2.49789E+03 -5.74953E+04 -4.35591E+04
 -1.16224E+04 -6.29410E+04  4.10093E+04 -4.46282E+04  5.82468E+04 -2.32942E+03  3.36538E+04  3.20213E+04
 -6.65455E+03  3.57893E+04 -3.00277E+04  1.46068E+04 -2.95927E+04 -5.01730E+03 -1.60990E+04 -1.11642E+04
 -7.47695E+03 -1.32656E+04 -1.49958E+03 -1.77578E+04  8.45036E+03 -2.23224E+04  1.47376E+04 -1.27457E+04
  1.24998E+04  4.68700E+03 -7.56158E+03  1.31207E+04 -2.06351E+04 -5.15379E+03 -8.07355E+03 -3.27900E+04
  2.15339E+04 -4.49160E+04  4.82541E+04 -1.95480E+04  4.61230E+04  1.95715E+04  1.46645E+04  4.42069E+04
 -1.72259E+04  3.39065E+04 -2.45880E+04  2.12385E+03 -1.00463E+04 -2.67642E+04  2.11305E+04 -3.25784E+04
  4.10476E+04 -9.11534E+03  3.48041E+04  2.40833E+04  1.82380E+04  4.62479E+04 -7.40466E+03  4.89331E+04
 -3.12523E+04  3.22080E+04 -4.12703E+04  1.00017E+04 -4.25189E+04 -1.62189E+04 -2.22540E+04 -3.72257E+04
  7.18217E+03 -3.70064E+04  3.09990E+04 -1.49452E+04  2.89283E+04  1.05483E+04  3.62017E+03  1.94702E+04
 -1.31435E+04  7.89097E+03 -9.63209E+03 -7.82762E+03  6.74327E+03 -9.47460E+03  1.70748E+04  4.95054E+03
  1.24725E+04  2.17654E+04 -5.71523E+03  2.59593E+04 -2.31867E+04  9.33126E+03 -2.66362E+04 -5.22533E+03
 -1.99198E+04 -1.67243E+04 -8.01924E+03 -1.94491E+04  3.21785E+03 -1.85512E+04  1.55210E+04 -1.69949E+04
  2.61307E+04 -1.28083E+04  3.11537E+04  2.61113E+03  2.33587E+04  1.75510E+04  5.72958E+03  3.38854E+04
 -1.68606E+04  2.97446E+04 -2.74496E+04  9.90630E+03 -1.98755E+04 -1.06824E+04 -4.56599E+03 -1.40236E+04
  2.71834E+02 -3.25840E+03 -4.44456E+03  6.94321E+03 -1.51401E+04  6.43857E+03 -1.58346E+04 -7.13986E+03
 -9.47725E+03 -1.75719E+04  5.04844E+03 -2.27423E+04  1.29003E+04 -1.70777E+04  1.66459E+04 -1.81585E+03
  1.11664E+04  1.24535E+04 -1.70036E+03  1.90007E+04 -1.24266E+04  1.05611E+04 -1.79448E+04 -3.43337E+03
 -1.25602E+04 -1.60678E+04 -1.21926E+03 -2.06340E+04  1.07545E+04 -1.82784E+04  1.88261E+04 -8.83433E+03
  1.63232E+04  2.75563E+02  1.20631E+04  3.98086E+03  5.34734E+03  7.74341E+02  7.99268E+03 -1.41222E+03
  1.51631E+04  3.13354E+03  1.82208E+04  1.45814E+04  1.15838E+04  2.82646E+04 -2.51691E+03  3.10467E+04
 -1.76942E+04  2.45167E+04 -2.89179E+04  1.30834E+04 -3.10055E+04 -6.49262E+02 -2.63773E+04 -1.90016E+04
 -1.07592E+04 -2.42035E+04  8.92595E+03 -2.23347E+04  1.96658E+04 -1.26049E+04  1.75709E+04  4.69000E+03
  7.94640E+03  1.35029E+04 -9.45635E+03  1.18776E+04 -1.52836E+04  2.64007E+03 -1.20477E+04 -9.90198E+03
  5.52743E+02 -1.48201E+04  6.13889E+03 -1.15851E+04  8.68834E+03 -4.17614E+02  1.19489E+03  6.35862E+03
 -6.42696E+03  1.84120E+03 -5.68066E+03 -5.56533E+03 -5.88029E+02 -1.18041E+04  8.97987E+03 -1.33042E+04
  1.50642E+04 -6.05469E+03  1.54540E+04  2.91917E+03  1.31914E+04  1.14474E+04  6.89183E+03  1.86719E+04
 -4.29602E+03  1.92106E+04 -1.16469E+04  1.25112E+04 -1.33025E+04  3.73106E+03 -1.07259E+04 -2.04865E+03
 -4.50119E+03 -4.75311E+03 -8.78953E+02  1.70835E+03 -2.52678E+03  1.43303E+03 -4.33962E+03  4.39711E+03
 -1.04533E+04 -2.66882E+02 -9.51431E+03 -9.04547E+03 -3.79428E+03 -1.39089E+04  3.52822E+03 -9.44481E+03
  9.03247E+03 -4.92986E+03  5.57723E+03  1.53629E+03 -1.98373E+02  3.06228E+03 -4.74597E+03 -7.60282E+02
 -4.12441E+03 -6.58774E+03 -1.17992E+03 -9.58832E+03  4.80306E+03 -9.51089E+03  1.15024E+04 -5.14389E+03
  1.41627E+04 -4.59459E+02  9.88250E+03  7.56805E+03  2.92773E+03  1.07845E+04 -6.70713E+03  1.03768E+04
 -7.69742E+03  2.86499E+03 -4.20208E+03 -1.87804E+03  1.28656E+03 -3.41278E+03  6.26532E+03 -6.45366E+02
  3.60601E+03  4.30047E+03  1.65751E+03  7.99493E+03 -5.49024E+03  9.16237E+03 -8.82479E+03  1.65091E+03
 -6.39364E+03 -4.55513E+03 -8.25781E+01 -9.70685E+03  4.66957E+03 -3.86412E+03  4.84717E+03  2.18891E+03
  1.99851E+02  4.74767E+03 -3.96593E+03  5.36376E+03 -6.53166E+03  2.69990E+03 -6.03381E+03 -1.04020E+03
 -3.11090E+03 -8.27653E+03  2.07202E+03 -8.33327E+03  6.81864E+03 -5.74953E+03  7.01125E+03  1.67137E+03
  5.65185E+03  6.74925E+03  2.64527E+02  8.74549E+03 -5.86844E+03  4.86537E+03 -5.77260E+03 -8.25588E+02
 -7.41749E+03 -4.37586E+03 -1.03263E+01 -6.19289E+03  3.21789E+03 -5.30557E+03  3.20190E+03 -2.42247E+03
  3.39097E+03  1.06182E+03  5.42514E+02  6.87384E+02  2.78890E+02 -1.25412E+03 -5.44110E+02 -3.11196E+03
  5.43195E+03 -1.91200E+03  7.32698E+03  1.04131E+03  6.69965E+03  4.63716E+03  6.41187E+03  9.57809E+03
 -1.33882E+03  1.08265E+04 -1.01790E+04  8.29529E+03 -1.29437E+04  1.17490E+03 -1.01553E+04 -3.62927E+03
 -5.31882E+03 -9.22485E+03 -6.19553E+02 -6.28206E+03  2.30789E+03 -4.19549E+03  2.23657E+03 -2.16364E+03
  1.65390E+03 -2.09631E+02  2.84781E+03 -3.11702E+03  4.63806E+03 -1.93146E+03  4.76829E+03 -4.65114E+02
  5.14168E+03  1.29053E+03  2.51098E+03  3.87597E+03 -1.12714E+03  4.05743E+03 -4.76450E+03  3.79479E+03
 -6.53830E+03 -2.02151E+03 -3.37094E+03 -4.50745E+03  6.90266E+02 -5.77926E+03  4.29822E+03 -6.90850E+03
  6.54093E+03 -3.74624E+03  7.76134E+03  1.27396E+02  4.87508E+03  4.78578E+03  2.19396E+03  8.78416E+03
 -4.18262E+03  6.98624E+03 -4.07471E+03  2.35013E+03 -2.67426E+03 -5.47385E+02 -1.12235E+03 -1.15442E+03
 -3.93724E+02  8.70943E+02 -1.90868E+02  1.80978E+03 -2.43406E+03  1.56902E+03 -5.56072E+03 -4.26472E+02
 -2.61719E+03 -5.25746E+03  9.82586E+02 -4.86258E+03  3.11077E+03 -4.38136E+03  4.96767E+03 -5.00932E+02
  6.13942E+03  3.10573E+03  2.75994E+03  4.97898E+03  1.30266E+03  5.85035E+03 -3.15819E+03  3.72239E+03
 -4.72340E+03  5.48560E+02 -3.57588E+03 -3.08201E+03 -5.28029E+02 -3.69495E+03  1.67335E+03 -3.38657E+03
  3.96929E+03 -2.26960E+03  1.87345E+03  1.07751E+03  7.67930E+02  3.79084E+03  7.61771E+02  7.02247E+02
  1.90734E+03  6.92105E+02  6.89249E+02  7.14591E+02  2.14616E+03  3.34652E+03  1.15794E+03  2.39258E+03
 -1.61630E+03  4.02828E+03 -3.15682E+03  5.29226E+03 -4.07951E+03  1.56098E+03 -6.31406E+03  1.46539E+02
 -3.25704E+03 -4.90383E+03  6.98032E+02 -7.06490E+03  2.47714E+03 -4.58622E+03  4.99061E+03 -8.57315E+02
  3.13688E+03  3.24970E+03  1.93386E+01  2.87968E+03 -8.72282E+02  2.83597E+03 -1.60542E+03  6.86550E+02
 -1.49387E+03 -1.89172E+03  1.91232E+03 -2.51835E+03  1.64140E+03 -8.86113E+02  1.63579E+03  1.60537E+03
  1.33245E+03  9.34038E+02  2.08263E+01  1.11829E+03 -8.69341E+02  6.37326E+02  1.89222E+03 -1.00113E+03
  8.48876E+02  1.22915E+03  2.39547E+03  7.98873E+01  1.64976E+02  3.27188E+03 -5.84063E+02  4.06481E+03
 -2.12292E+03  1.49827E+03 -2.73515E+03  5.84124E+02 -2.61187E+03 -9.38430E+02 -7.27355E+02 -5.07725E+02
 -2.24416E+02 -1.16703E+03  2.29458E+02 -2.96706E+02  7.04632E+02  1.81342E+03 -7.30370E+02  1.00005E+03
 -2.65563E+03  2.82922E+02 -8.61298E+02 -1.73731E+03  1.47058E+02 -2.30906E+03 -7.62866E+00 -1.85678E+03
 -2.43527E+02 -1.28982E+03  2.36425E+03 -7.70288E+02  8.79936E+02 -6.93815E+02  5.56998E+02  1.26536E+03
 -1.40247E+03  6.28796E+02 -1.65169E+03 -1.23002E+03  8.11199E+02 -1.69958E+03  2.73551E+03 -1.80992E+03
  2.09165E+03  1.11801E+03  3.14411E+03  1.88806E+03  1.00083E+03  1.96048E+03 -5.27896E+02  3.62156E+03
 -1.84378E+03  5.76296E+02 -2.44897E+03 -4.59603E+02 -7.47266E+02 -1.46988E+03  5.43227E+02 -7.34457E+02
  2.37430E+03 -6.73495E+02  2.09455E+03  1.18069E+03  3.49172E+02  1.07927E+03  9.88267E+02  1.85342E+03
 -1.55694E+03  1.14849E+03 -9.45825E+02 -4.76816E+02  7.19579E+02  2.38009E+02 -1.18908E+03  8.52535E+01
 -6.73445E+02  1.53088E+03 -3.11917E+03 -1.67406E+02 -1.63234E+03 -3.69227E+01 -2.21023E+03 -1.28314E+03
 -8.83977E+02 -3.08003E+03  9.09657E+02 -3.21884E+03  1.64075E+03 -2.91681E+03  3.36089E+03 -4.94368E+02
  3.51881E+03 -2.81161E+02  2.28069E+03  1.82954E+03  3.02990E+02  2.46778E+03  1.22442E+02  1.75550E+03
 -1.75955E+03  1.27369E+03 -1.94108E+03 -3.65974E+02 -7.39033E+02 -9.44042E+00 -2.90500E+02  8.31428E+02
 -1.24407E+03  5.11237E+00 -1.58613E+03 -5.95705E+02  4.70121E+02 -9.63223E+02 -3.58159E+02 -1.69975E+03
  2.39357E+03 -5.67598E+02  1.06977E+03  2.43229E+02  1.46341E+03  1.23140E+03 -1.76647E+02  6.16593E+02
 -1.79134E+03  2.84493E+03 -1.42277E+03 -2.97023E+02 -2.60253E+03 -1.19801E+02 -7.60645E+02 -1.76939E+03
 -8.01827E+02 -1.47102E+03  1.08307E+03 -1.99943E+03  1.05149E+03 -9.03907E+02  2.04083E+03 -3.71430E+02
  1.60411E+03  8.56469E+02  1.32881E+03 -1.31612E+02 -3.71555E+02 -3.57220E+02 -7.10616E+02 -1.07460E+02
  8.53598E+02 -4.51491E+02  2.41830E+02  9.50462E+02  1.94896E+02  1.45816E+03  3.27642E+02  3.97440E+02
 -1.62179E+03  9.86088E+02 -1.21643E+03 -6.37287E+02 -6.38298E+02 -4.10443E+02  4.36980E+02 -1.93169E+03
  8.08329E+02 -1.26279E+03  1.61269E+03 -6.45677E+02  1.79796E+03 -7.02137E+02  8.46441E+02  9.67910E+02
  8.92557E+02  6.34419E+01  4.57162E+02  2.55870E+02  4.14315E+02 -9.48159E+02 -1.34214E+03  6.67136E+02
  7.56561E+02 -2.57060E+02 -1.72230E+03 -6.64175E+01 -7.23707E+02  6.74985E+02 -1.68759E+03  2.30692E+02
 -5.93868E+02 -7.80807E+02 -1.05267E+03 -1.83591E+03  1.04961E+03 -2.91178E+03  9.00731E+02 -3.66075E+01
  1.53684E+03  4.33273E+02 -1.24849E+03 -9.24578E+02 -6.09001E+02  6.13553E+02  1.05955E+03  1.29512E+03
