 $NMID ID='MM_0lb_SNR200_16hz_g45_88.RAW', FMTDAT='(8E13.5)'
 TRAMP=1., VOLUME=1. $END
  3.10662E+05  1.28903E+02  3.37409E+05  2.50285E+05  8.39715E+04  3.38083E+05 -1.32283E+05  2.51360E+05
 -1.89465E+05  8.32067E+04 -1.11081E+05 -3.31844E+04  1.76997E+03 -5.06201E+04  5.30761E+04 -2.70695E+02
  3.53917E+04  5.27011E+04 -1.68052E+04  7.58479E+04 -5.98911E+04  6.29888E+04 -8.38965E+04  3.26883E+04
 -8.03501E+04 -1.15716E+04 -5.67491E+04 -5.19545E+04 -1.51425E+04 -6.97659E+04  2.70056E+04 -4.42029E+04
  3.95172E+04  4.81288E+03  1.69189E+04  4.69664E+04 -3.44220E+04  4.58620E+04 -6.58531E+04 -3.97307E+02
 -5.37541E+04 -5.61933E+04 -6.50537E+03 -7.60672E+04  3.43910E+04 -5.29206E+04  4.75257E+04 -1.77742E+04
  4.30496E+04  1.16011E+04  3.13473E+04  2.52036E+04  1.46598E+04  2.88826E+04 -4.70040E+03  2.61190E+04
 -2.15601E+04  1.22525E+04 -2.00056E+04 -4.54176E+03  3.91848E+03 -9.01571E+03  2.17708E+04  1.16130E+04
  8.17958E+03  3.46273E+04 -3.24841E+04  3.42778E+04 -6.10416E+04  1.77221E+03 -5.70672E+04 -4.15875E+04
 -1.22410E+04 -6.22084E+04  3.83697E+04 -4.39500E+04  5.65746E+04 -2.32490E+03  3.33326E+04  3.22515E+04
 -5.91869E+03  3.45438E+04 -2.88476E+04  1.40167E+04 -2.90437E+04 -5.02164E+03 -1.50244E+04 -1.17640E+04
 -7.76264E+03 -1.22801E+04 -6.89568E+02 -1.75684E+04  6.89816E+03 -2.25868E+04  1.60532E+04 -1.29425E+04
  1.13008E+04  4.95574E+03 -6.51441E+03  1.30656E+04 -1.94614E+04 -4.07017E+03 -7.69921E+03 -3.24235E+04
  2.21485E+04 -4.20631E+04  4.62654E+04 -1.91537E+04  4.28861E+04  1.92088E+04  1.46502E+04  4.29033E+04
 -1.45318E+04  3.23400E+04 -2.41576E+04  1.69654E+03 -9.42197E+03 -2.69837E+04  2.04589E+04 -3.13113E+04
  3.85043E+04 -7.11539E+03  3.41975E+04  2.31081E+04  1.70310E+04  4.44583E+04 -7.45039E+03  4.75138E+04
 -2.92260E+04  3.17288E+04 -3.94383E+04  9.03707E+03 -3.99617E+04 -1.64215E+04 -2.19051E+04 -3.61855E+04
  7.57531E+03 -3.48950E+04  3.06717E+04 -1.29526E+04  2.78835E+04  1.12092E+04  3.25342E+03  1.91985E+04
 -1.40504E+04  6.01594E+03 -9.48273E+03 -7.52245E+03  5.95400E+03 -1.05434E+04  1.76156E+04  6.31872E+03
  1.19504E+04  2.17384E+04 -6.62062E+03  2.50376E+04 -2.14146E+04  1.06405E+04 -2.65208E+04 -5.32157E+03
 -1.87313E+04 -1.61490E+04 -8.37545E+03 -1.86864E+04  3.77677E+03 -1.78142E+04  1.29655E+04 -1.55031E+04
  2.30240E+04 -1.21318E+04  3.04188E+04  1.79401E+03  2.17420E+04  1.66534E+04  4.33504E+03  3.47457E+04
 -1.65397E+04  2.90542E+04 -2.61753E+04  1.01629E+04 -1.90343E+04 -1.00642E+04 -3.93572E+03 -1.39002E+04
  1.58363E+03 -3.17190E+03 -3.74330E+03  6.21606E+03 -1.47827E+04  5.61318E+03 -1.41594E+04 -5.65403E+03
 -9.26691E+03 -1.77030E+04  5.12375E+03 -2.11577E+04  1.30813E+04 -1.39906E+04  1.58221E+04 -1.51247E+03
  9.72745E+03  1.17705E+04 -7.39401E+02  1.68852E+04 -1.32001E+04  8.71826E+03 -1.71918E+04 -4.69910E+03
 -1.26778E+04 -1.52594E+04 -2.71629E+03 -2.09862E+04  8.76569E+03 -1.82968E+04  1.81126E+04 -6.93503E+03
  1.59232E+04 -4.85163E+02  1.12773E+04  3.06229E+03  5.72880E+03  6.09708E+02  8.75127E+03 -2.26244E+03
  1.51609E+04  2.72116E+03  1.70721E+04  1.25962E+04  1.03344E+04  2.70979E+04 -3.39796E+03  2.98118E+04
 -1.77583E+04  2.31450E+04 -2.93705E+04  1.18338E+04 -2.85841E+04 -2.83742E+03 -2.42921E+04 -1.54891E+04
 -1.00224E+04 -2.45043E+04  7.32202E+03 -2.32008E+04  1.96679E+04 -1.17291E+04  1.79929E+04  4.00526E+03
  7.10886E+03  1.10674E+04 -6.96484E+03  1.09696E+04 -1.45611E+04  2.35502E+03 -1.13320E+04 -8.85209E+03
 -7.08023E+02 -1.43137E+04  5.98062E+03 -1.03253E+04  9.73697E+03 -1.13767E+03  1.25119E+03  4.80781E+03
 -7.07800E+03  1.88564E+03 -4.95072E+03 -5.91922E+03  1.33329E+03 -1.07687E+04  8.02664E+03 -1.17533E+04
  1.32951E+04 -4.95159E+03  1.42371E+04  2.83957E+03  1.30958E+04  1.04301E+04  5.33473E+03  1.67202E+04
 -2.95947E+03  1.80516E+04 -1.23208E+04  1.04922E+04 -1.28913E+04  3.31460E+03 -9.18229E+03 -3.39192E+03
 -5.21463E+03 -2.29195E+03 -3.74049E+02  7.11918E+02 -1.89626E+03  2.64534E+03 -4.68427E+03  3.61543E+03
 -1.02874E+04  3.68044E+02 -9.19827E+03 -8.00211E+03 -4.34583E+03 -1.26318E+04  3.68307E+03 -1.00593E+04
  6.80692E+03 -4.46612E+03  5.24838E+03  2.30105E+03  1.08458E+03  4.23989E+03 -3.47910E+03 -6.17442E+02
 -3.79072E+03 -5.44423E+03 -9.71907E+02 -9.66870E+03  5.70858E+03 -1.03692E+04  1.16884E+04 -6.01820E+03
  1.29632E+04  1.62436E+02  1.11654E+04  8.78153E+03  1.70142E+03  1.06383E+04 -5.95667E+03  1.00307E+04
 -8.09585E+03  3.88383E+03 -4.82484E+03 -1.22399E+03  1.88374E+03 -7.62412E+02  5.15524E+03 -1.05637E+03
  5.07791E+03  4.60281E+03  1.56632E+03  7.69678E+03 -5.08738E+03  7.29064E+03 -9.11445E+03  1.70350E+03
 -6.20111E+03 -4.62780E+03  6.42647E+02 -8.77415E+03  5.37631E+03 -3.66400E+03  4.78003E+03  1.47677E+03
  2.41503E+03  3.80568E+03 -4.81213E+03  7.18689E+03 -6.27407E+03  2.20741E+03 -5.29512E+03 -2.28458E+03
 -3.81310E+03 -8.21437E+03  1.98912E+03 -8.44648E+03  7.91402E+03 -5.73351E+03  7.31459E+03  1.18109E+03
  5.58917E+03  6.60335E+03  1.07908E+03  8.35509E+03 -6.75019E+03  4.63374E+03 -6.30631E+03  2.36503E+02
 -7.17692E+03 -5.93364E+03 -8.78686E+02 -6.58168E+03  3.22300E+03 -7.02882E+03  2.58281E+03 -2.53243E+03
  3.85777E+03  7.35861E+01  4.16299E+02  7.13559E+02  6.47880E+02 -2.07816E+03  9.07764E+02 -2.67069E+03
  5.26155E+03 -1.34603E+03  7.97904E+03  1.00795E+03  7.92437E+03  5.29388E+03  6.54752E+03  8.99973E+03
 -1.10420E+03  1.09842E+04 -9.08841E+03  7.99880E+03 -1.18105E+04  1.08144E+03 -9.87628E+03 -2.80428E+03
 -4.50755E+03 -8.23021E+03  2.57342E+02 -6.59631E+03  2.15020E+03 -2.99920E+03  2.14975E+03 -2.39700E+03
  5.88116E+02 -1.45875E+03  3.15620E+03 -2.13408E+03  3.32836E+03 -8.09918E+02  2.76139E+03 -3.33810E+02
  6.08526E+03  7.28533E+02  1.69710E+03  3.41809E+03 -1.79615E+03  3.86000E+03 -6.33569E+03  2.88338E+03
 -7.18507E+03 -1.47383E+03 -3.27296E+03 -4.05399E+03  4.47776E+02 -6.29850E+03  5.28237E+03 -8.01810E+03
  6.66699E+03 -4.18586E+03  9.20156E+03  4.20392E+02  7.05296E+03  5.80914E+03  1.69328E+03  7.80240E+03
 -3.86279E+03  7.35823E+03 -5.44068E+03  2.69580E+03 -2.55669E+03 -1.23718E+03 -6.95608E+02 -1.55159E+03
 -7.35568E+02 -6.23515E+01 -1.14962E+03  2.56012E+03 -3.16275E+03  1.38748E+03 -5.06771E+03 -4.31252E+02
 -2.33317E+03 -5.25897E+03  1.10625E+03 -5.84143E+03  4.02377E+03 -7.09174E+03  4.39645E+03 -1.68657E+03
  5.84446E+03  2.18068E+03  1.98006E+03  3.32139E+03 -2.26376E+03  6.18470E+03 -4.50936E+03  4.29850E+03
 -4.95160E+03 -5.69749E+02 -5.30568E+03 -4.50798E+03 -9.42352E+02 -5.10078E+03  2.29319E+03 -4.60651E+03
  3.13521E+03 -2.84502E+03  2.33393E+03  1.28879E+03  1.18632E+03  3.54679E+03  1.27195E+03  9.68168E+02
  1.88211E+03 -1.59829E+02  2.69120E+03  2.21189E+03  5.40568E+02  2.45078E+03  1.09706E+03  1.73987E+03
 -1.54418E+03  4.07103E+03 -3.34459E+03  7.27811E+03 -3.44983E+03  1.90859E+03 -6.28407E+03 -1.45567E+03
 -2.60444E+03 -4.38253E+03  6.01209E+02 -7.39167E+03  3.50528E+03 -3.37655E+03  4.25549E+03 -1.78303E+03
  2.87765E+03  2.19263E+03 -8.33873E+01  2.93267E+03 -1.07113E+03  1.67671E+03 -1.78364E+03  3.06410E+02
 -1.75042E+02 -1.69096E+03  1.88756E+03 -1.99522E+03  2.36961E+03 -1.39096E+03  1.92187E+03  3.99147E+02
  1.57398E+03  1.13038E+03 -6.46535E+02 -1.17434E+02 -8.33062E+02  2.23755E+03  1.73347E+03 -1.00650E+02
  1.19407E+03 -1.06290E+01  2.86179E+03  1.38621E+03 -3.12035E+02  3.19181E+03 -1.32541E+03  3.90562E+03
 -3.40853E+03  2.64349E+03 -2.25221E+03  5.64366E+00 -3.29836E+03 -2.26098E+03 -5.33333E+02 -1.23184E+03
  4.24826E+02 -2.20790E+03  4.03854E+02 -7.80985E+02  2.01971E+03  1.69846E+03 -7.26542E+01  1.97636E+03
 -2.79210E+03  1.15660E+03 -2.13378E+03 -5.58366E+02  1.90610E+02 -3.39341E+03 -5.11404E+02 -2.91460E+03
  3.92688E+02 -1.09400E+03  1.55772E+03 -3.56120E+02  2.17663E+03 -8.86829E+02  6.21793E+02  1.90442E+03
 -1.53600E+03  7.89616E+02 -1.46364E+03 -6.35431E+02  5.19585E+02 -9.50657E+02  2.50887E+03 -2.62104E+03
  2.18784E+03  1.09396E+03  3.61838E+03  1.07112E+03  2.17591E+03  3.36007E+03 -6.34707E+02  2.60761E+03
 -2.05615E+03 -3.47608E+01 -2.00310E+03 -6.22341E+02 -5.96948E+02 -2.29678E+03 -2.02832E+02 -1.09850E+03
  1.86943E+03 -1.89804E+03  1.09834E+03  1.64048E+03  1.65271E+02  1.88145E+03  8.80892E+01  9.53017E+02
 -1.01040E+03  7.39475E+01 -1.43928E+03  1.04356E+03 -2.20412E+02  5.69431E+02 -1.10230E+03  1.17378E+03
 -1.31033E+03  1.33853E+03 -2.56319E+03  2.23956E+02 -3.14583E+03  9.08256E+02 -3.18028E+03 -1.77351E+03
 -1.61745E+03 -2.98585E+03  8.18130E+02 -3.68814E+03  3.01579E+03 -4.20930E+03  4.29882E+03 -9.70131E+02
  3.43272E+03  1.67961E+02  8.89838E+02  2.51370E+03  4.37914E+02  3.07435E+03 -1.88754E+03  1.40809E+03
 -1.19008E+03  1.73577E+03 -1.68160E+03  5.19228E+02 -1.88731E+03  1.57043E+02 -6.18583E+01 -4.15549E+01
 -1.04717E+03 -5.09022E+02 -1.46166E+03  7.97974E+01 -2.82578E+02 -1.21001E+03  2.79009E+02 -1.69332E+03
  1.32139E+03 -7.03607E+02  8.92723E+02  3.75730E+02  2.56786E+03  2.25921E+03 -3.99168E+01  2.90440E+03
 -6.64651E+02  2.67080E+03 -3.68373E+03  1.93342E+03 -1.82045E+03 -4.29889E+02 -1.83750E+03 -1.03099E+03
 -1.34877E+03 -2.12503E+03  8.35022E+02 -1.58051E+03  7.05603E+02 -8.62657E+02  1.21397E+03 -1.09008E+03
  2.10842E+03  2.59557E+02 -3.94236E+02  8.25271E+02 -2.10431E+02 -1.84552E+03  7.55359E+02  2.75519E+01
 -1.33077E+02  6.31617E+02  1.41942E+03  4.43721E+02  2.27416E+01 -1.76755E+02  5.08344E+02  1.10134E+03
 -1.55627E+03  1.82950E+03 -9.79618E+02  1.82013E+03 -1.22122E+03  1.83614E+02  6.67541E+02 -1.38998E+03
  1.55681E+03 -1.47173E+03  1.52951E+03 -1.00287E+03  1.74706E+03 -1.38495E+03  1.31680E+03  1.56433E+03
  1.77872E+03  1.21215E+03 -1.95262E+02  1.87261E+03 -7.65468E+02  2.38421E+03 -3.08630E+02  4.90811E+02
 -5.54476E+02 -8.86097E+02 -1.84750E+03  1.61204E+02 -1.52291E+03  7.80262E+01 -9.22118E+02 -1.62372E+03
 -1.77598E+03  6.34764E+02 -6.29047E+02 -2.04831E+03  1.78854E+03 -3.10666E+03  1.49595E+03 -1.21831E+03
  1.91687E+03  1.48733E+03 -1.42199E+02  6.24117E+02 -9.24858E+02  1.32811E+03 -1.86756E+03  1.18288E+03
