 $NMID ID='MM_0lb_SNR200_13hz_g45_45.RAW', FMTDAT='(8E13.5)'
 TRAMP=1., VOLUME=1. $END
  3.10350E+05 -1.15236E+02  3.36107E+05  2.50724E+05  8.43444E+04  3.37511E+05 -1.32856E+05  2.50556E+05
 -1.90544E+05  8.29271E+04 -1.11145E+05 -3.27540E+04  1.79168E+03 -5.14825E+04  5.38915E+04 -1.14219E+03
  3.49626E+04  5.34307E+04 -1.65559E+04  7.48647E+04 -6.09184E+04  6.46132E+04 -8.38182E+04  3.25156E+04
 -8.09712E+04 -1.07079E+04 -5.76317E+04 -5.18062E+04 -1.49945E+04 -7.01509E+04  2.81449E+04 -4.53799E+04
  3.94460E+04  2.74199E+03  1.60882E+04  4.64456E+04 -3.36105E+04  4.76102E+04 -6.60046E+04 -5.33016E+02
 -5.36076E+04 -5.71963E+04 -6.57606E+03 -7.70759E+04  3.32643E+04 -5.51491E+04  4.87809E+04 -1.67557E+04
  4.24989E+04  1.10115E+04  3.15679E+04  2.61099E+04  1.63735E+04  3.07295E+04 -5.00469E+03  2.68347E+04
 -1.97413E+04  1.30445E+04 -1.75380E+04 -4.06704E+03  6.18455E+03 -7.50225E+03  2.25563E+04  1.28773E+04
  8.20183E+03  3.54060E+04 -3.24801E+04  3.48096E+04 -6.26590E+04  1.73948E+03 -5.72009E+04 -4.31407E+04
 -1.19473E+04 -6.44616E+04  4.00339E+04 -4.50732E+04  5.93336E+04 -3.15024E+03  3.45795E+04  3.22891E+04
 -5.37292E+03  3.69284E+04 -3.05267E+04  1.56624E+04 -3.02286E+04 -3.84399E+03 -1.60088E+04 -1.14588E+04
 -9.05504E+03 -1.34069E+04 -1.72852E+03 -1.82145E+04  8.19381E+03 -2.32476E+04  1.47783E+04 -1.30133E+04
  1.15958E+04  5.51535E+03 -8.97937E+03  1.34235E+04 -2.10340E+04 -5.84443E+03 -7.47359E+03 -3.32321E+04
  2.25498E+04 -4.43548E+04  4.78061E+04 -1.99737E+04  4.44832E+04  1.92139E+04  1.64576E+04  4.44320E+04
 -1.70042E+04  3.28748E+04 -2.67063E+04  1.88172E+03 -9.68904E+03 -2.65949E+04  2.11606E+04 -3.43229E+04
  4.15933E+04 -8.54500E+03  3.68079E+04  2.32928E+04  1.92517E+04  4.67444E+04 -8.31536E+03  5.12511E+04
 -3.11853E+04  3.51918E+04 -4.18402E+04  9.33109E+03 -4.22358E+04 -1.69833E+04 -2.38712E+04 -3.93813E+04
  8.74942E+03 -3.94063E+04  3.16250E+04 -1.57225E+04  2.89281E+04  1.16682E+04  4.29019E+03  1.87637E+04
 -1.40393E+04  8.76644E+03 -1.00181E+04 -7.56672E+03  5.80979E+03 -1.05294E+04  1.74738E+04  5.70346E+03
  1.30785E+04  2.33171E+04 -4.87726E+03  2.54918E+04 -2.22190E+04  1.16866E+04 -2.81878E+04 -5.38012E+03
 -2.16492E+04 -1.66977E+04 -8.66222E+03 -2.01422E+04  3.14219E+03 -2.10755E+04  1.59199E+04 -1.83236E+04
  2.65698E+04 -1.37163E+04  3.31053E+04  3.37612E+03  2.41898E+04  2.07382E+04  3.98735E+03  3.67425E+04
 -1.81310E+04  3.09436E+04 -2.91378E+04  1.00079E+04 -2.11609E+04 -1.10189E+04 -3.63405E+03 -1.18280E+04
  1.94328E+03 -3.13492E+03 -5.39004E+03  7.64674E+03 -1.77296E+04  5.07485E+03 -1.60384E+04 -7.52427E+03
 -1.05020E+04 -1.95663E+04  5.97344E+03 -2.29688E+04  1.38207E+04 -1.82721E+04  1.87107E+04 -1.10999E+03
  1.24831E+04  1.44961E+04 -2.85754E+02  2.05128E+04 -1.23365E+04  1.12645E+04 -2.08123E+04 -4.81882E+03
 -1.47082E+04 -1.88040E+04 -1.76370E+03 -2.30714E+04  8.95896E+03 -1.97822E+04  1.94172E+04 -1.07785E+04
  1.81855E+04 -2.06108E+02  1.24814E+04  4.04559E+03  7.43171E+03  6.83743E+02  1.04576E+04 -1.92725E+03
  1.70868E+04  2.33569E+03  1.94794E+04  1.67963E+04  1.31592E+04  3.18356E+04 -3.11344E+03  3.46166E+04
 -2.17616E+04  2.87707E+04 -3.30829E+04  1.39269E+04 -3.53923E+04 -1.87855E+03 -2.84908E+04 -2.03337E+04
 -1.26669E+04 -2.82153E+04  1.11320E+04 -2.47217E+04  2.13409E+04 -1.12103E+04  2.02576E+04  6.06918E+03
  6.42254E+03  1.42599E+04 -8.78965E+03  1.35371E+04 -1.85231E+04  2.68927E+03 -1.20233E+04 -1.17725E+04
 -6.79191E+02 -1.54135E+04  8.05668E+03 -1.21504E+04  1.03128E+04 -1.90639E+03  2.12755E+03  5.89851E+03
 -6.69568E+03  3.95384E+03 -6.27457E+03 -4.79810E+03 -6.97857E+02 -1.41764E+04  8.87427E+03 -1.37655E+04
  1.69960E+04 -7.07671E+03  1.84489E+04  1.85210E+03  1.58565E+04  1.36550E+04  8.08839E+03  2.02287E+04
 -3.79325E+03  2.26019E+04 -1.55518E+04  1.41657E+04 -1.67622E+04  3.01524E+03 -1.09914E+04 -3.42688E+03
 -5.43470E+03 -6.07720E+03 -1.20291E+03  1.84536E+03 -3.35383E+03  9.98426E+02 -6.30456E+03  3.60764E+03
 -1.15066E+04 -5.06697E+02 -1.02269E+04 -9.89756E+03 -5.40270E+03 -1.48976E+04  6.31574E+03 -1.11583E+04
  1.02770E+04 -5.52446E+03  8.19828E+03  3.05265E+03  1.24759E+03  4.47257E+03 -4.51657E+03 -2.63523E+02
 -6.16522E+03 -7.87097E+03 -9.50739E+02 -1.19045E+04  5.82604E+03 -1.15378E+04  1.52563E+04 -6.22818E+03
  1.67116E+04  1.08037E+03  1.20310E+04  8.82481E+03  2.51959E+03  1.40689E+04 -7.16216E+03  1.10074E+04
 -9.48220E+03  3.11998E+03 -3.57073E+03 -1.13100E+03  2.17590E+03 -3.93963E+03  5.95409E+03 -1.32971E+03
  5.97315E+03  4.03914E+03  1.72516E+03  9.60550E+03 -5.56475E+03  8.14258E+03 -1.13701E+04  1.80929E+03
 -7.16302E+03 -4.63494E+03  7.51024E+02 -8.95986E+03  6.64596E+03 -6.27382E+03  5.57808E+03  2.99775E+03
  2.17590E+03  6.96441E+03 -6.52093E+03  8.63911E+03 -1.01593E+04  4.49097E+03 -9.27430E+03 -3.18423E+03
 -5.87149E+03 -9.97652E+03  1.79701E+03 -1.11249E+04  1.06458E+04 -7.15150E+03  1.08250E+04  1.64203E+03
  7.44511E+03  8.62469E+03 -9.05557E+02  1.13748E+04 -8.34233E+03  5.78985E+03 -8.74807E+03 -6.49829E+02
 -7.30007E+03 -8.95952E+03 -6.22127E+02 -8.28585E+03  5.32560E+03 -4.63073E+03  4.23740E+03 -3.22611E+03
  4.44800E+03  8.03099E+02  1.40748E+03  2.46185E+03 -6.45905E+02 -1.87390E+03  1.24869E+03 -4.47183E+03
  7.46043E+03 -3.36493E+03  9.85836E+03  3.82324E+02  1.00937E+04  6.53743E+03  5.92285E+03  1.46874E+04
 -4.44452E+03  1.68472E+04 -1.35997E+04  1.07535E+04 -1.61416E+04  2.94619E+03 -1.24838E+04 -5.39261E+03
 -6.45525E+03 -1.05358E+04 -4.62472E+02 -9.98281E+03  4.85728E+03 -5.64722E+03  2.96024E+03 -4.36358E+03
  2.79863E+03 -2.52859E+03  2.39515E+03 -3.26468E+03  3.89266E+03 -3.54563E+03  5.54807E+03  1.60776E+03
  6.25325E+03  5.48265E+02  3.41813E+03  6.06548E+03 -3.95018E+02  6.93665E+03 -6.42062E+03  5.21557E+03
 -8.01797E+03 -1.64230E+03 -5.14296E+03 -7.10160E+03 -2.37122E+02 -9.41265E+03  5.44725E+03 -9.08964E+03
  9.33821E+03 -6.47309E+03  1.09261E+04  6.49141E+02  8.47413E+03  9.47378E+03  1.11298E+03  1.02744E+04
 -4.24731E+03  9.60240E+03 -6.85927E+03  2.94523E+03 -3.75486E+03  2.05127E+02 -1.98247E+03 -7.05933E+02
 -1.20453E+03 -5.30877E+02 -8.47503E+02  3.03083E+03 -4.65190E+03  4.32574E+02 -8.20077E+03 -1.34611E+03
 -4.10753E+03 -6.60249E+03 -1.17435E+03 -8.88798E+03  5.03176E+03 -8.03670E+03  7.34767E+03 -2.42747E+03
  8.19404E+03  4.39639E+03  3.86576E+03  6.42869E+03 -2.15098E+03  8.96679E+03 -5.22065E+03  6.49604E+03
 -8.82645E+03 -9.00537E+02 -6.38528E+03 -4.82285E+03 -8.41510E+02 -7.59337E+03  3.35591E+03 -3.89277E+03
  4.47032E+03 -1.55848E+03  4.02452E+03  1.56635E+03  1.91366E+03  3.05039E+03  5.78168E+02  1.88695E+03
  2.57561E+03  1.55043E+03  1.44733E+03  1.77051E+03  2.62608E+03  4.78748E+03  3.03962E+03  4.34669E+03
 -2.59175E+03  6.83953E+03 -6.29295E+03  7.43202E+03 -8.35648E+03  2.54432E+03 -7.95868E+03 -4.25860E+03
 -4.04899E+03 -9.34859E+03  4.82260E+02 -1.02305E+04  5.21529E+03 -5.63109E+03  6.97391E+03 -9.41888E+02
  4.91691E+03  4.31697E+03  4.62796E+02  4.62510E+03 -1.18659E+03  3.13706E+03 -2.92882E+03 -5.08155E+02
 -3.45604E+03 -2.87583E+03  1.75251E+03 -2.96423E+03  2.89651E+03 -2.39753E+03  3.33397E+03  5.41925E+02
  2.23152E+03  1.45926E+03  9.96440E+02  2.11727E+03 -8.23666E+02  1.50080E+03  1.32717E+03  6.41550E+02
  5.20783E+02 -2.68160E+02  3.90619E+03  1.74419E+03  1.95872E+03  4.22904E+03 -1.89153E+02  7.54634E+03
 -3.94938E+03  2.90546E+03 -5.74338E+03  8.53162E+02 -5.46043E+03 -1.92332E+03 -1.18699E+03 -1.90282E+03
  5.25952E+02 -3.39088E+03  1.58744E+03 -1.89687E+03  1.48327E+03  1.09061E+03 -1.08084E+03  1.92116E+03
 -2.43241E+03  2.03180E+03 -2.63317E+03 -3.19171E+03 -1.53263E+03 -5.67299E+03  4.03731E+02 -3.45854E+03
  3.61999E+03 -3.00263E+03  3.74684E+03 -1.06164E+03  2.88695E+03  3.60429E+01  1.48392E+03  2.98335E+03
 -4.18389E+02  9.28983E+02 -2.92592E+03 -1.96471E+03  6.65584E+02 -3.60780E+03  4.30735E+03 -2.80639E+03
  3.92088E+03 -2.57185E+02  5.59028E+03  4.06802E+03  2.53510E+03  6.56919E+03 -7.64930E+02  6.54438E+03
 -4.06329E+03  2.37999E+03 -4.30892E+03 -1.05866E+03 -4.22470E+03 -4.43941E+03  1.19249E+03 -3.28439E+03
  2.04100E+03 -2.73851E+03  2.65227E+03  7.82155E+02  1.63545E+03  2.50157E+03 -5.31981E+02  3.07618E+03
 -1.36226E+03  2.59404E+03 -2.01914E+03  1.49042E+03 -8.43982E+02  8.65840E+02 -1.91773E+03  1.57627E+03
 -3.54703E+02  1.46773E+03 -4.31350E+03  1.33436E+03 -6.20955E+03 -5.04767E+01 -6.04735E+03 -2.41265E+03
 -2.13435E+03 -6.05766E+03  5.44578E+02 -6.67130E+03  4.18767E+03 -4.95701E+03  6.73147E+03 -1.34954E+03
  7.07794E+03  1.31203E+03  3.04678E+03  3.68810E+03  2.95347E+02  5.70825E+03 -2.98250E+03  4.20647E+03
 -1.84281E+03  6.26088E+02 -1.46517E+03 -2.94585E+02 -8.88308E+02 -8.08648E+01  5.55609E+01  1.08407E+03
 -7.67290E+02 -5.85928E+02 -3.04675E+03  4.83761E+02 -8.38733E+01 -1.30174E+03 -6.70470E+02 -3.03440E+03
  3.20920E+03 -2.10464E+03  2.88850E+03 -1.91983E+02  2.96472E+03  1.69285E+03  4.22320E+02  4.09730E+03
 -2.90706E+03  5.92754E+03 -5.77974E+03  1.47172E+03 -5.67863E+03 -1.64617E+03 -3.58817E+03 -4.21043E+03
 -1.82916E+03 -6.59752E+03  1.38218E+03 -5.24529E+03  2.47944E+03 -1.55782E+03  4.03399E+03  1.37509E+03
  1.16613E+03  1.55324E+03 -4.13338E+02  1.41220E+03 -1.16328E+03  9.06388E+01  1.63640E+03 -4.83731E+02
  1.17239E+03  2.37648E+01  1.45282E+03  2.75422E+03  4.23586E+02  2.41046E+03  1.26832E+03  3.57211E+03
 -2.38211E+03  1.80908E+03 -4.67205E+03  1.01398E+03 -2.16170E+03 -2.46500E+03  1.50805E+02 -3.80156E+03
  2.03106E+03 -3.04958E+03  3.35597E+03 -1.66065E+03  3.94160E+03 -1.46303E+02  2.48214E+03  3.80060E+03
  8.53116E+02  3.64984E+03  1.10013E+02  1.42308E+03 -2.20729E+03  2.95348E+03 -1.39109E+03  1.19913E+03
 -2.13811E+03  6.53586E+02 -9.48677E+02  9.41354E+02 -1.18170E+03  4.48623E+02 -2.13030E+03  3.05798E+02
 -3.57994E+03 -5.76292E+02  2.30855E+02 -2.89255E+03  2.07750E+03 -4.45202E+03  2.25680E+03 -1.25840E+03
  3.15676E+03 -6.10326E+02  1.51922E+03  1.12175E+03  5.62482E+02  2.64240E+03 -1.70478E+03  1.40306E+03
