 $NMID ID='MM_0lb_SNR200_13hz_g50_93.RAW', FMTDAT='(8E13.5)'
 TRAMP=1., VOLUME=1. $END
  3.10441E+05 -3.62240E+02  3.37590E+05  2.50438E+05  8.40067E+04  3.38717E+05 -1.33883E+05  2.51829E+05
 -1.90245E+05  8.35668E+04 -1.12042E+05 -3.35642E+04  4.34180E+02 -5.15424E+04  5.37467E+04 -7.02745E+02
  3.78416E+04  5.34890E+04 -1.69304E+04  7.60896E+04 -5.94962E+04  6.38406E+04 -8.64391E+04  3.10330E+04
 -8.22568E+04 -1.26679E+04 -5.73762E+04 -5.18725E+04 -1.46665E+04 -7.13438E+04  2.74098E+04 -4.57113E+04
  4.11873E+04  4.16767E+03  1.57599E+04  4.74870E+04 -3.30597E+04  4.83701E+04 -6.72328E+04 -2.09888E+02
 -5.19303E+04 -5.70578E+04 -6.32347E+03 -7.80936E+04  3.41240E+04 -5.63387E+04  4.77138E+04 -1.63342E+04
  4.37856E+04  1.09560E+04  3.34909E+04  2.55470E+04  1.59075E+04  3.05395E+04 -4.71897E+03  2.67943E+04
 -2.12560E+04  1.18352E+04 -1.75972E+04 -5.18871E+03  6.43205E+03 -7.68954E+03  2.22228E+04  1.28871E+04
  6.75950E+03  3.50080E+04 -3.17828E+04  3.46191E+04 -6.38236E+04  2.66014E+03 -5.76832E+04 -4.33716E+04
 -1.32081E+04 -6.43133E+04  4.01442E+04 -4.71200E+04  5.99155E+04 -2.40953E+03  3.44793E+04  3.31123E+04
 -6.00043E+03  3.72651E+04 -3.06714E+04  1.62625E+04 -3.06848E+04 -4.06080E+03 -1.71480E+04 -1.07079E+04
 -8.73442E+03 -1.38552E+04  8.24654E+02 -1.75102E+04  7.37590E+03 -2.41213E+04  1.55608E+04 -1.40801E+04
  1.11714E+04  5.74901E+03 -8.57729E+03  1.35090E+04 -2.11217E+04 -5.18314E+03 -8.65014E+03 -3.51405E+04
  2.39263E+04 -4.45474E+04  4.92843E+04 -1.91686E+04  4.48332E+04  1.90070E+04  1.64010E+04  4.51000E+04
 -1.59076E+04  3.42220E+04 -2.56965E+04  1.25239E+03 -1.07638E+04 -2.74514E+04  2.15747E+04 -3.41998E+04
  4.16298E+04 -9.63916E+03  3.76356E+04  2.31670E+04  1.87516E+04  4.79726E+04 -8.22381E+03  5.14538E+04
 -3.21517E+04  3.55236E+04 -4.30634E+04  1.00246E+04 -4.30740E+04 -1.78274E+04 -2.46366E+04 -3.83594E+04
  6.76002E+03 -3.89947E+04  3.07994E+04 -1.51464E+04  2.97449E+04  1.18043E+04  3.74220E+03  1.95029E+04
 -1.36232E+04  8.00591E+03 -1.10396E+04 -8.31667E+03  5.52625E+03 -1.06686E+04  1.89906E+04  6.04320E+03
  1.46996E+04  2.27288E+04 -5.55181E+03  2.54142E+04 -2.28205E+04  1.34643E+04 -2.91581E+04 -3.95150E+03
 -2.12633E+04 -1.64358E+04 -8.30454E+03 -2.09457E+04  3.27861E+03 -2.07152E+04  1.50684E+04 -1.88842E+04
  2.70349E+04 -1.27941E+04  3.42953E+04  4.13207E+03  2.44243E+04  2.07855E+04  4.85742E+03  3.77361E+04
 -1.95145E+04  3.09021E+04 -2.77296E+04  1.16075E+04 -2.07428E+04 -1.00195E+04 -6.18492E+03 -1.32727E+04
  1.34180E+03 -3.40532E+03 -4.86002E+03  6.91131E+03 -1.71523E+04  6.49601E+03 -1.82986E+04 -6.27657E+03
 -1.01551E+04 -2.00198E+04  5.22975E+03 -2.43847E+04  1.62695E+04 -1.78426E+04  1.81372E+04 -2.09850E+03
  1.29124E+04  1.34094E+04 -1.79161E+03  1.96551E+04 -1.28522E+04  1.13039E+04 -1.84287E+04 -3.29306E+03
 -1.45338E+04 -1.72094E+04 -2.12692E+03 -2.28730E+04  1.03456E+04 -2.00868E+04  1.99516E+04 -9.79181E+03
  1.85583E+04  8.64845E+02  1.40762E+04  5.15317E+03  6.56602E+03  2.35148E+03  9.67862E+03 -2.43486E+03
  1.86412E+04  3.72706E+03  1.98467E+04  1.63922E+04  1.46506E+04  3.18609E+04 -3.00330E+03  3.67440E+04
 -2.14854E+04  2.92340E+04 -3.37331E+04  1.51011E+04 -3.52423E+04 -2.58902E+03 -2.96631E+04 -2.07830E+04
 -1.34213E+04 -2.99209E+04  1.04996E+04 -2.66956E+04  2.29463E+04 -1.22954E+04  1.91948E+04  6.06316E+03
  7.36189E+03  1.60729E+04 -8.62594E+03  1.19254E+04 -1.77558E+04  2.10403E+03 -1.30623E+04 -1.09640E+04
 -7.99776E+02 -1.53235E+04  7.24181E+03 -1.25385E+04  1.07122E+04 -1.24956E+03  3.35481E+03  6.58721E+03
 -5.48955E+03  1.66623E+03 -6.84393E+03 -6.76199E+03  6.23683E+01 -1.44652E+04  9.82114E+03 -1.54463E+04
  1.81025E+04 -8.41020E+03  1.88991E+04  3.10345E+03  1.80195E+04  1.34719E+04  8.48861E+03  2.11191E+04
 -4.96949E+03  2.42392E+04 -1.41930E+04  1.33116E+04 -1.74137E+04  3.95174E+03 -1.26352E+04 -5.84501E+03
 -3.87301E+03 -5.73352E+03 -3.28834E+02  1.55919E+03 -2.06532E+03  2.94041E+03 -5.77281E+03  2.94939E+03
 -1.02889E+04 -1.06063E+03 -1.17155E+04 -1.06645E+04 -5.85942E+03 -1.43790E+04  5.29179E+03 -1.16406E+04
  9.57102E+03 -6.06672E+03  7.28534E+03  3.49058E+03  6.91890E+02  3.54181E+03 -5.42099E+03  9.10461E+01
 -5.72497E+03 -7.13324E+03 -6.60125E+02 -1.04231E+04  7.58646E+03 -1.26979E+04  1.51438E+04 -6.01922E+03
  1.69788E+04  4.93473E+02  1.29128E+04  1.01352E+04  2.64501E+03  1.39543E+04 -7.49470E+03  1.16461E+04
 -1.04037E+04  4.16746E+03 -3.91447E+03 -2.54673E+03  1.56487E+03 -3.29649E+03  7.42603E+03 -1.35996E+03
  4.68370E+03  5.85445E+03  1.60635E+03  9.74486E+03 -6.81463E+03  8.93023E+03 -1.11904E+04  2.67530E+03
 -6.40314E+03 -5.72587E+03 -1.03593E+03 -9.80463E+03  4.99503E+03 -5.06039E+03  5.98459E+03  1.93472E+03
  2.25008E+03  6.57657E+03 -6.42894E+03  8.03109E+03 -1.01301E+04  4.77694E+03 -8.34609E+03 -2.43631E+03
 -6.65799E+03 -1.14681E+04  3.31306E+03 -1.22680E+04  1.10238E+04 -7.19558E+03  1.21806E+04  2.04165E+03
  6.91834E+03  8.97849E+03 -4.15763E+02  1.13109E+04 -8.84861E+03  6.83414E+03 -9.47778E+03 -1.35986E+03
 -9.05899E+03 -7.37593E+03 -1.16585E+03 -8.16412E+03  4.13858E+03 -7.05472E+03  4.99183E+03 -2.43716E+03
  4.38252E+03  2.24288E+03 -1.47123E+03  1.61692E+03 -9.69559E+02 -2.32143E+03  1.75341E+03 -5.32040E+03
  7.15257E+03 -2.80697E+03  1.09784E+04  5.34541E+02  9.53532E+03  7.74682E+03  7.82331E+03  1.42842E+04
 -3.08333E+03  1.50931E+04 -1.37095E+04  1.24917E+04 -1.75195E+04  2.48511E+03 -1.49442E+04 -6.08388E+03
 -6.68307E+03 -1.12813E+04 -1.02998E+02 -1.01059E+04  3.28823E+03 -4.87190E+03  2.69484E+03 -3.20880E+03
  2.14437E+03 -1.76939E+03  3.01914E+03 -2.60922E+03  4.49242E+03 -2.95690E+03  6.39733E+03 -2.66194E+02
  6.12755E+03  1.48146E+03  3.61276E+03  5.95084E+03 -1.46350E+03  7.30212E+03 -7.09025E+03  5.67942E+03
 -1.03808E+04 -1.27835E+03 -5.02399E+03 -5.65373E+03  2.37670E+01 -8.35910E+03  6.00505E+03 -9.65023E+03
  9.87185E+03 -6.27190E+03  1.24027E+04  1.82652E+03  9.41473E+03  8.84989E+03  9.70290E+02  1.27540E+04
 -4.01310E+03  9.58567E+03 -6.34797E+03  3.61988E+03 -3.94273E+03 -2.13449E+02 -8.70615E+02 -1.78255E+03
 -9.93179E+02 -2.18306E+02 -1.69507E+03  3.40947E+03 -3.96685E+03  2.43956E+03 -6.95788E+03 -1.19533E+03
 -3.62687E+03 -6.58352E+03 -4.33941E+02 -8.97796E+03  5.44100E+03 -8.66598E+03  8.17835E+03 -2.57502E+03
  9.56006E+03  5.05366E+03  2.58443E+03  7.85008E+03 -9.13455E+02  9.32554E+03 -6.10572E+03  6.05727E+03
 -9.43629E+03  1.24781E+03 -6.75412E+03 -4.60019E+03 -3.21662E+02 -8.31395E+03  3.62482E+03 -5.46047E+03
  5.16215E+03 -2.52441E+03  3.77183E+03  1.68736E+03  2.72326E+02  3.38416E+03  1.02625E+03  3.08610E+02
  2.27253E+03  3.74051E+02  1.26117E+03  9.68719E+02  3.79225E+03  3.69143E+03  3.16961E+03  3.41566E+03
 -2.01710E+03  6.43718E+03 -6.42063E+03  7.20460E+03 -9.24835E+03  2.05053E+03 -1.02908E+04 -3.50983E+03
 -3.21866E+03 -1.02034E+04  1.36054E+03 -9.36674E+03  4.59188E+03 -6.84914E+03  8.32784E+03 -2.29390E+03
  4.58855E+03  2.83742E+03  2.30635E+03  5.30088E+03 -2.97538E+03  2.95683E+03 -3.42050E+03 -3.72079E+02
 -2.34239E+03 -3.78546E+03  1.58501E+03 -4.42329E+03  3.11094E+03 -2.72647E+03  4.18813E+03  6.05391E+02
  8.37673E+02  1.95986E+03  1.81197E+03  2.84816E+03 -6.56421E+01  1.55994E+03  2.72083E+03  7.82721E+01
  1.36958E+03 -1.64430E+02  4.07281E+03  8.84525E+02  1.49506E+03  4.40462E+03 -7.83715E+02  7.62198E+03
 -3.61855E+03  4.72965E+03 -5.41095E+03  1.96513E+03 -5.04459E+03 -2.57420E+03 -1.19401E+03 -2.62094E+03
  2.23134E+02 -3.08304E+03  2.49992E+03 -1.51752E+03  1.48481E+03  3.70076E+03 -7.14646E+02  2.59605E+03
 -1.98776E+03  1.94978E+03 -3.54915E+03 -2.60725E+03 -1.97740E+03 -4.98675E+03  7.99360E+02 -5.18039E+03
  1.42864E+03 -2.88939E+03  3.48857E+03  2.88049E+02  2.84479E+03  3.39733E+02  6.11064E+02  2.83989E+03
 -1.30682E+03  1.73637E+03 -3.44725E+03 -1.41302E+03 -8.55871E+02 -4.23515E+03  3.41840E+03 -2.70359E+03
  5.33558E+03 -6.19959E+02  5.06688E+03  3.81470E+03  3.12857E+03  5.51361E+03 -1.95446E+03  5.56819E+03
 -3.03443E+03  2.21569E+03 -5.02212E+03 -3.64384E+02 -2.20596E+03 -2.53154E+03  9.69289E+02 -3.00437E+03
  5.33163E+03 -1.77501E+03  3.07725E+03  1.28759E+03  1.14637E+03  2.79804E+03 -8.62684E+02  1.45242E+03
 -1.03570E+03  1.18752E+03 -1.89130E+03  4.51493E+02  8.22661E+01  6.01708E+02 -2.26130E+03  1.06002E+03
 -2.57326E+03  1.78781E+03 -2.97053E+03  1.45066E+03 -3.79568E+03 -2.15525E+02 -5.01291E+03 -3.60606E+03
 -2.67535E+03 -6.02743E+03  2.44416E+02 -6.68525E+03  3.68659E+03 -6.87696E+03  7.99465E+03 -2.87311E+03
  7.22615E+03  1.53400E+03  3.83899E+03  4.19489E+03 -6.52819E+02  4.86291E+03 -1.90195E+03  4.37082E+03
 -2.91490E+03  1.32090E+03 -8.93009E+01 -8.85288E+02 -2.02345E+02 -2.39362E+01 -2.93797E+02  9.67778E+02
 -1.90559E+03 -4.83197E+02 -4.77310E+02 -9.99770E+02  1.13626E+03  2.61784E+01 -6.33041E+02 -1.14121E+03
  1.30908E+03 -1.21152E+03  2.37424E+03 -1.38068E+03  3.81150E+03  2.64177E+03  9.62483E+02  5.04924E+03
 -1.48339E+03  5.90594E+03 -5.11531E+03  3.07854E+03 -7.37661E+03 -1.33363E+03 -3.60190E+03 -3.55996E+03
 -1.80482E+03 -5.67050E+03  2.04251E+03 -4.95650E+03  2.96372E+03 -1.50486E+03  3.27661E+03 -1.34079E+02
  2.22222E+03  7.78676E+02  4.58866E+01  1.33760E+03 -1.05373E+03 -1.21315E+02  7.80190E+02 -2.01003E+03
  1.32819E+03  6.19847E+02  2.03853E+03  7.51647E+02  7.27265E+02  2.19628E+03  4.89449E+02  2.81927E+03
 -2.47062E+03  1.45305E+03 -2.30884E+03  1.13909E+03 -2.46638E+03 -1.86080E+03  3.75443E+02 -3.65531E+03
  3.07986E+03 -3.10673E+03  2.99593E+03 -8.06052E+02  2.62217E+03  3.49648E+02  1.12001E+03  3.56631E+03
  3.44005E+02  2.59325E+03 -9.67297E+02  3.35727E+03 -1.39603E+03  1.35207E+03 -2.54030E+03 -5.27445E+02
 -8.60077E+02  9.49383E+02 -5.70370E+01  3.86412E+02 -1.93968E+03  1.10191E+02 -2.81977E+03  2.29700E+02
 -2.72274E+03 -1.99736E+03 -1.35552E+03 -2.91323E+03  2.49318E+03 -3.90945E+03  2.90690E+03 -1.21839E+03
  3.43050E+03 -4.29943E+02  6.22922E+02  2.65977E+03 -4.63820E+02  3.61376E+03 -2.32881E+03  2.06889E+03
