 $NMID ID='MM_0lb_SNR200_15hz_g40_31.RAW', FMTDAT='(8E13.5)'
 TRAMP=1., VOLUME=1. $END
  3.10257E+05  8.16300E+02  3.37547E+05  2.49442E+05  8.37761E+04  3.37980E+05 -1.32608E+05  2.50710E+05
 -1.90060E+05  8.12361E+04 -1.11739E+05 -3.19802E+04  7.90910E+02 -5.05830E+04  5.44384E+04 -5.87878E+02
  3.41607E+04  5.19412E+04 -1.68750E+04  7.49695E+04 -6.04556E+04  6.21501E+04 -8.33804E+04  3.28698E+04
 -8.01326E+04 -1.19733E+04 -5.65624E+04 -4.95951E+04 -1.41539E+04 -6.87235E+04  2.71564E+04 -4.46132E+04
  3.90935E+04  4.97369E+03  1.58199E+04  4.76771E+04 -3.28027E+04  4.70878E+04 -6.64683E+04 -1.47371E+03
 -5.22172E+04 -5.60035E+04 -6.68647E+03 -7.65010E+04  3.43365E+04 -5.35349E+04  4.67561E+04 -1.66756E+04
  4.18128E+04  1.07155E+04  3.06478E+04  2.46044E+04  1.63708E+04  2.82510E+04 -4.31814E+03  2.60339E+04
 -2.22485E+04  1.35650E+04 -1.85966E+04 -4.12056E+03  5.10945E+03 -9.05990E+03  2.10151E+04  1.15441E+04
  7.95133E+03  3.37406E+04 -3.11672E+04  3.52039E+04 -6.28836E+04  2.49720E+03 -5.73209E+04 -4.11439E+04
 -1.31509E+04 -6.24082E+04  3.83948E+04 -4.33805E+04  5.77497E+04 -1.94860E+03  3.29766E+04  3.22099E+04
 -6.40671E+03  3.41909E+04 -2.95113E+04  1.50372E+04 -2.90530E+04 -4.25000E+03 -1.52286E+04 -1.04720E+04
 -6.81636E+03 -1.17391E+04 -5.57120E+02 -1.73297E+04  7.36352E+03 -2.30066E+04  1.61131E+04 -1.32452E+04
  1.13359E+04  5.14725E+03 -5.43793E+03  1.28118E+04 -2.06134E+04 -4.16836E+03 -7.64136E+03 -3.23765E+04
  2.09107E+04 -4.19692E+04  4.50607E+04 -1.93239E+04  4.40410E+04  1.82541E+04  1.48739E+04  4.30209E+04
 -1.63851E+04  3.18246E+04 -2.43475E+04  7.52997E+02 -9.21664E+03 -2.84707E+04  2.03148E+04 -3.24440E+04
  3.88815E+04 -7.50558E+03  3.45040E+04  2.32605E+04  1.68860E+04  4.46324E+04 -7.33537E+03  4.82489E+04
 -2.91552E+04  3.16782E+04 -3.93178E+04  8.25107E+03 -4.15867E+04 -1.47771E+04 -2.29108E+04 -3.67904E+04
  7.98414E+03 -3.58037E+04  3.12123E+04 -1.40370E+04  2.82758E+04  1.12001E+04  4.16302E+03  1.83280E+04
 -1.26975E+04  7.47536E+03 -9.43734E+03 -6.61745E+03  6.10862E+03 -1.02665E+04  1.71016E+04  7.81809E+03
  1.38005E+04  2.26096E+04 -7.25347E+03  2.51188E+04 -2.26823E+04  9.39063E+03 -2.68341E+04 -4.30428E+03
 -1.81169E+04 -1.74198E+04 -6.75769E+03 -1.86702E+04  4.19144E+03 -1.64746E+04  1.45449E+04 -1.71899E+04
  2.47167E+04 -1.21777E+04  3.02370E+04  2.92455E+03  2.32115E+04  1.76934E+04  3.23793E+03  3.43099E+04
 -1.66600E+04  2.86882E+04 -2.73021E+04  8.91551E+03 -2.08548E+04 -1.15263E+04 -3.55524E+03 -1.45979E+04
  2.47441E+03 -3.53810E+03 -3.02067E+03  6.25579E+03 -1.46235E+04  4.12141E+03 -1.50043E+04 -6.53983E+03
 -8.82426E+03 -1.64336E+04  5.78800E+03 -2.11847E+04  1.39817E+04 -1.50462E+04  1.57536E+04 -4.90783E+02
  1.02725E+04  1.12759E+04 -9.83939E+02  1.73607E+04 -1.12912E+04  9.38297E+03 -1.68734E+04 -4.20196E+03
 -1.30463E+04 -1.54411E+04 -1.52243E+03 -2.16477E+04  1.00357E+04 -1.74642E+04  1.81921E+04 -8.88740E+03
  1.69373E+04  3.62068E+02  1.17181E+04  4.30774E+03  6.22908E+03  5.17406E+02  9.78449E+03 -1.50627E+03
  1.64492E+04  2.64481E+03  1.76450E+04  1.47535E+04  1.03852E+04  2.87566E+04 -2.29639E+03  3.04024E+04
 -1.89785E+04  2.46588E+04 -2.88447E+04  1.22651E+04 -3.03758E+04 -1.41188E+03 -2.59360E+04 -1.77093E+04
 -1.07364E+04 -2.46818E+04  7.57810E+03 -2.19744E+04  1.96332E+04 -1.23747E+04  1.78198E+04  5.21534E+03
  7.43297E+03  1.37368E+04 -8.08089E+03  1.11854E+04 -1.43263E+04  1.71428E+03 -1.18460E+04 -8.98732E+03
 -5.99695E+02 -1.36974E+04  6.86918E+03 -1.09476E+04  1.04619E+04 -1.36157E+03  9.05702E+02  6.69809E+03
 -6.81656E+03  2.93486E+03 -5.22108E+03 -4.56606E+03 -4.40453E+02 -1.28803E+04  9.08274E+03 -1.16695E+04
  1.40979E+04 -6.77710E+03  1.49755E+04  3.03025E+03  1.38548E+04  1.14047E+04  4.99712E+03  1.70546E+04
 -2.78078E+03  2.05351E+04 -1.22957E+04  1.25427E+04 -1.32205E+04  3.89962E+03 -1.03891E+04 -3.04411E+03
 -5.38947E+03 -4.47700E+03 -5.16287E+02  1.34543E+03 -2.50086E+03  2.09973E+03 -4.55301E+03  4.62603E+03
 -8.70991E+03 -1.34459E+03 -1.13070E+04 -9.00236E+03 -4.72999E+03 -1.31023E+04  5.53877E+03 -8.72770E+03
  8.82804E+03 -3.86789E+03  6.82535E+03  2.52261E+03 -2.20041E+02  3.32469E+03 -4.74678E+03  5.68949E+02
 -4.73602E+03 -5.17659E+03 -1.06912E+03 -9.16428E+03  5.05690E+03 -1.05707E+04  1.17321E+04 -5.09436E+03
  1.54847E+04  8.13724E+02  1.10587E+04  8.41218E+03  9.05066E+02  1.19596E+04 -6.35653E+03  9.35178E+03
 -7.53474E+03  4.01599E+03 -4.37318E+03 -1.61618E+03  1.31938E+03 -2.62013E+03  4.54141E+03 -1.04241E+03
  4.23344E+03  3.49987E+03 -2.10160E+02  8.40587E+03 -6.80515E+03  7.64988E+03 -1.05829E+04  1.21359E+02
 -5.97021E+03 -5.05078E+03  6.96817E+02 -8.47641E+03  5.28679E+03 -4.24055E+03  6.06848E+03  9.33361E+02
  7.72176E+02  4.26628E+03 -5.58095E+03  5.19563E+03 -6.42005E+03  4.57005E+03 -7.39178E+03 -2.64999E+03
 -4.18082E+03 -7.93136E+03  7.14417E+02 -8.97415E+03  7.79771E+03 -6.27243E+03  9.29404E+03  6.75646E+02
  6.80271E+03  7.42048E+03  8.87052E+02  9.15477E+03 -7.60722E+03  4.51485E+03 -7.37278E+03 -9.94248E+02
 -6.69135E+03 -5.88607E+03 -1.38471E+03 -7.16455E+03  3.54247E+03 -5.13992E+03  3.78884E+03 -4.39147E+03
  3.66837E+03  3.71120E+02 -1.01204E+03  2.05914E+03 -3.64383E+02 -1.01769E+03  1.66438E+03 -2.90564E+03
  6.00461E+03 -1.55269E+03  7.99161E+03  2.03208E+03  8.63749E+03  4.54783E+03  6.56365E+03  9.87774E+03
 -2.12872E+03  1.18950E+04 -1.10688E+04  9.46245E+03 -1.39818E+04  2.00190E+03 -1.06534E+04 -3.90815E+03
 -5.87574E+03 -9.07528E+03 -7.07691E+02 -7.10779E+03  3.91264E+03 -3.08003E+03  2.38750E+03 -2.09863E+03
  2.58507E+03 -2.96229E+03  1.54175E+03 -3.75449E+03  3.54145E+03 -2.29179E+03  4.66678E+03  1.35787E+03
  5.44022E+03  1.08851E+03  1.27667E+03  3.89871E+03 -1.27533E+03  4.42880E+03 -7.38191E+03  4.77423E+03
 -7.27509E+03 -1.37670E+03 -2.12070E+03 -5.02439E+03  7.03716E+02 -6.75149E+03  4.46049E+03 -7.41530E+03
  7.70323E+03 -5.18802E+03  9.66724E+03 -1.23994E+03  7.16129E+03  6.19350E+03  1.25296E+03  7.56348E+03
 -2.70349E+03  7.42724E+03 -5.37265E+03  2.96382E+03 -2.85003E+03  4.17021E+02 -9.49601E+02 -6.18027E+02
 -2.03770E+03 -5.72931E+01 -2.00674E+03  2.40322E+03 -2.38092E+03  2.08693E+03 -5.56362E+03  5.92825E+02
 -3.74808E+03 -5.89284E+03  1.22935E+03 -7.10391E+03  4.38704E+03 -5.84939E+03  4.82587E+03 -1.30055E+03
  6.06080E+03  3.82920E+03  2.36825E+03  5.14490E+03 -1.22793E+03  6.04580E+03 -3.55916E+03  4.59245E+03
 -6.66299E+03  1.04952E+03 -3.98411E+03 -5.08952E+03  1.45152E+02 -5.55484E+03  2.19479E+03 -4.00296E+03
  4.19242E+03 -2.09217E+03  1.56642E+03  2.71065E+02  1.53729E+03  1.82490E+03 -5.13503E+02  1.11994E+03
  1.56357E+03  9.64423E+02  1.31224E+03  2.26966E+03  1.19604E+03  2.14672E+03  1.66300E+03  2.93936E+03
 -1.62450E+03  5.88885E+03 -3.90621E+03  5.13180E+03 -6.10462E+03  2.50334E+03 -7.55756E+03 -2.92529E+03
 -3.29444E+03 -6.24189E+03  2.05489E+03 -7.76238E+03  3.63126E+03 -4.13496E+03  4.56478E+03 -1.78588E+03
  3.95699E+03  2.77059E+03  1.52535E+03  4.24222E+03 -1.03209E+03  2.12469E+03 -2.69528E+03 -8.29703E+02
 -9.50435E+02 -3.26692E+03  1.07688E+03 -1.96247E+03  2.85000E+03 -1.25112E+03  1.47460E+03  9.53220E+02
  1.55033E+03  1.49331E+03  3.46286E+02  7.14990E+02 -8.73547E+02  1.06793E+03  1.72032E+03 -8.94011E+02
  7.26492E+02  1.23927E+02  1.83252E+03  1.71503E+03  1.14817E+03  3.70909E+03  1.32894E+02  4.86791E+03
 -3.93336E+03  2.87951E+03 -4.05337E+03 -1.81624E+02 -2.51114E+03 -6.05071E+02  1.56838E+02 -2.20333E+03
 -3.65307E+02 -1.60353E+03  9.53439E+02 -1.03885E+03  6.66471E+02 -7.65286E+01 -6.92484E+02  1.27928E+03
 -3.31422E+03  1.44300E+03 -2.95671E+03 -1.52581E+03 -1.55842E+03 -4.13216E+03 -5.91566E+02 -2.22508E+03
  1.44080E+03 -1.77050E+03  1.83354E+03 -4.67541E+02  2.39762E+03 -1.19967E+03  1.78359E+03  2.71012E+03
 -7.61099E+02 -2.41094E+02 -2.32252E+03 -1.30794E+03  6.84818E+02 -1.20217E+03  3.60816E+03 -2.04842E+03
  3.56731E+03  2.17592E+03  3.07609E+03  1.92067E+03  3.15104E+03  3.71157E+03 -2.57970E+02  3.77712E+03
 -3.18016E+03  1.41675E+03 -2.54124E+03 -4.90182E+02 -2.47331E+03 -1.17864E+03 -9.65369E+02 -1.15867E+03
  3.03192E+03 -3.44148E+02  1.90419E+03  6.49482E+02  5.30163E+02  2.27763E+03 -8.74790E+02  1.78111E+03
 -6.66429E+02  6.65577E+02  7.53164E+02  8.56219E+02 -1.49110E+03 -7.34463E+02  2.42851E+02  8.07970E+02
 -1.54086E+03  1.42663E+03 -2.32686E+03  1.49522E+03 -3.29591E+03  1.36008E+02 -4.56331E+03 -2.21350E+03
 -2.04734E+03 -4.65485E+03 -4.37899E+02 -4.08834E+03  2.61148E+03 -3.59502E+03  4.63592E+03 -1.13393E+03
  3.01131E+03  7.50804E+02  2.51343E+03  2.73999E+03 -2.58195E+02  3.37743E+03 -1.54482E+03  3.74552E+03
 -2.10031E+03  1.16138E+03 -7.21117E+02 -5.86259E+02 -1.16026E+03 -2.94840E+02 -9.04883E+02  8.57836E+02
 -7.69490E+02 -8.89556E+02 -1.41781E+03 -8.92203E+02  5.45432E+02 -8.54312E+02 -1.87240E+02 -9.94508E+02
  2.54208E+03 -1.08141E+03  1.34264E+02  9.41549E+01  1.76768E+03  1.75799E+03 -1.00347E+03  2.37088E+03
 -1.24194E+03  3.00099E+03 -2.90830E+03  2.34914E+03 -3.89965E+03  9.90833E+02 -2.74287E+03 -3.16019E+03
 -2.33014E+03 -3.20290E+03 -2.03655E+02 -2.95027E+03  1.49423E+03 -2.32254E+03  1.65538E+03 -6.31640E+02
  1.34384E+03  6.80846E+02 -1.75848E+02  1.15062E+03 -9.90211E+01  2.22078E+02  2.77950E+02 -1.84575E+03
  6.72336E+02  2.00385E+02 -3.50077E+01  1.79193E+03 -1.72325E+02  7.20724E+02  8.41347E+01  4.24560E+02
 -9.67662E+02  1.32493E+03 -1.47481E+03  1.35816E+03 -1.86020E+03 -6.73895E+02  7.54910E+02 -1.37858E+03
  1.88648E+03 -1.80628E+03  1.08826E+03 -4.93409E+02  2.76618E+03 -7.76924E+02  1.04812E+03  2.40592E+03
  5.47038E+02  1.77211E+03 -6.00641E+02  1.60440E+03 -7.64475E+02  1.75219E+03 -1.28686E+03  4.48319E+02
 -2.87714E+02  4.10549E+02 -1.02817E+03  3.52548E+02 -1.86767E+03  1.00819E+02 -1.95627E+03 -1.05139E+03
 -2.52714E+03  1.28330E+02  5.94024E+01 -2.72035E+03  1.30322E+03 -3.17013E+03  8.59939E+02 -9.96574E+02
  1.56053E+03 -8.23485E+02 -1.46897E+01  1.29353E+03 -3.77442E+02  2.24799E+03 -1.62125E+03  1.59589E+03
