 $NMID ID='MM_0lb_SNR200_8hz_g45_61.RAW', FMTDAT='(8E13.5)'
 TRAMP=1., VOLUME=1. $END
  3.09699E+05  1.75537E+03  3.38530E+05  2.51847E+05  8.50311E+04  3.38839E+05 -1.32176E+05  2.53274E+05
 -1.89928E+05  8.29229E+04 -1.13810E+05 -3.19356E+04  2.15466E+02 -4.96647E+04  5.22619E+04  3.77877E+02
  3.58709E+04  5.28638E+04 -1.76773E+04  7.67597E+04 -6.18704E+04  6.51761E+04 -8.59864E+04  3.28314E+04
 -8.24361E+04 -1.10077E+04 -5.73182E+04 -5.24598E+04 -1.47596E+04 -7.08025E+04  2.86099E+04 -4.56860E+04
  4.31694E+04  4.35915E+03  1.71087E+04  4.91905E+04 -3.50766E+04  4.83812E+04 -6.82334E+04  2.15392E+01
 -5.40327E+04 -5.74858E+04 -7.25011E+03 -7.89909E+04  3.43756E+04 -5.71122E+04  5.07107E+04 -1.88609E+04
  4.68956E+04  1.13308E+04  3.36974E+04  2.73976E+04  1.67232E+04  3.05224E+04 -5.51964E+03  2.89678E+04
 -2.27967E+04  1.10370E+04 -1.90354E+04 -4.91936E+03  6.90068E+03 -7.48857E+03  2.34914E+04  1.38948E+04
  7.32368E+03  3.75010E+04 -3.44900E+04  3.77162E+04 -6.74514E+04  7.70642E+02 -5.85701E+04 -4.14203E+04
 -1.31311E+04 -6.59739E+04  4.27651E+04 -4.82968E+04  6.00242E+04 -2.81286E+03  3.58329E+04  3.58512E+04
 -4.77126E+03  3.92335E+04 -3.25340E+04  2.05627E+04 -3.34307E+04 -4.07685E+03 -1.96165E+04 -1.37997E+04
 -7.94411E+03 -1.69067E+04 -3.28520E+02 -1.87503E+04  8.37266E+03 -2.42682E+04  1.49316E+04 -1.16950E+04
  1.05405E+04  8.22609E+03 -1.00971E+04  1.41192E+04 -2.29473E+04 -6.93629E+03 -9.00161E+03 -3.77659E+04
  2.45846E+04 -4.80527E+04  5.33118E+04 -2.09450E+04  5.00445E+04  2.03059E+04  1.72518E+04  4.75594E+04
 -1.73597E+04  3.50161E+04 -2.51855E+04  2.61987E+03 -1.16536E+04 -3.05485E+04  2.22381E+04 -3.68997E+04
  4.45844E+04 -1.08730E+04  4.09921E+04  2.61254E+04  2.12780E+04  5.23088E+04 -7.75773E+03  5.65549E+04
 -3.40127E+04  3.96909E+04 -4.67630E+04  1.15963E+04 -4.87782E+04 -1.71678E+04 -2.61108E+04 -4.30070E+04
  8.92875E+03 -4.21398E+04  3.41938E+04 -1.70754E+04  3.09502E+04  1.07684E+04  6.86410E+03  2.09736E+04
 -1.29667E+04  1.09090E+04 -1.22134E+04 -9.43595E+03  4.84485E+03 -1.24081E+04  2.03098E+04  5.05176E+03
  1.49765E+04  2.35889E+04 -5.24097E+03  2.76046E+04 -2.26705E+04  1.39432E+04 -3.16819E+04 -3.80850E+03
 -2.61589E+04 -1.82602E+04 -1.09127E+04 -2.46850E+04  4.37066E+03 -2.63764E+04  1.92264E+04 -2.39015E+04
  3.31350E+04 -1.65605E+04  3.96560E+04  5.90315E+03  2.66495E+04  2.42651E+04  4.58678E+03  4.20629E+04
 -2.00293E+04  3.53424E+04 -3.15170E+04  1.21250E+04 -2.25618E+04 -1.11479E+04 -4.96185E+03 -1.27258E+04
  1.05079E+03 -2.25044E+03 -7.97631E+03  8.30992E+03 -1.97946E+04  4.63874E+03 -2.03275E+04 -1.11316E+04
 -1.11684E+04 -2.33510E+04  5.40548E+03 -2.84118E+04  1.91768E+04 -1.93091E+04  2.35977E+04 -9.19107E+02
  1.48425E+04  1.75785E+04 -2.44383E+03  2.28017E+04 -1.82568E+04  1.29731E+04 -2.47442E+04 -5.04723E+03
 -1.79185E+04 -1.98791E+04 -2.95029E+03 -2.92640E+04  1.32074E+04 -2.56064E+04  2.35608E+04 -1.16357E+04
  2.25550E+04  2.83635E+02  1.63255E+04  5.62436E+03  8.57416E+03  8.98189E+02  1.31436E+04 -2.25939E+03
  2.13968E+04  2.33597E+03  2.70804E+04  1.79463E+04  1.74035E+04  3.81691E+04 -1.75357E+03  4.64271E+04
 -2.62525E+04  4.06738E+04 -4.47472E+04  1.89780E+04 -4.55410E+04 -2.73157E+03 -3.82736E+04 -2.77772E+04
 -1.49800E+04 -3.76468E+04  1.37822E+04 -3.14707E+04  2.89430E+04 -1.58464E+04  2.46674E+04  6.81225E+03
  8.55900E+03  1.72988E+04 -1.25989E+04  1.70037E+04 -1.80951E+04  1.68153E+03 -1.60231E+04 -1.38592E+04
 -9.86021E+02 -1.90240E+04  1.24577E+04 -1.33190E+04  1.47430E+04 -2.73382E+03  3.58296E+03  7.82397E+03
 -9.53163E+03  4.41019E+03 -1.00709E+04 -7.45038E+03 -1.50357E+03 -1.85517E+04  1.34033E+04 -2.12323E+04
  2.41264E+04 -1.14031E+04  2.69145E+04  3.04001E+03  2.47833E+04  1.86179E+04  1.05506E+04  2.97658E+04
 -8.30618E+03  3.20244E+04 -2.12961E+04  1.86941E+04 -2.50823E+04  4.78933E+03 -1.56436E+04 -5.14316E+03
 -8.27453E+03 -8.44615E+03 -4.76999E+02  8.80193E+02 -1.23847E+03  4.30676E+03 -7.21027E+03  5.01092E+03
 -1.60799E+04 -7.08908E+02 -1.49627E+04 -1.10786E+04 -6.11632E+03 -1.94713E+04  5.19040E+03 -1.44099E+04
  1.37457E+04 -7.06543E+03  8.42355E+03  4.52491E+03  1.05957E+03  6.49379E+03 -7.75582E+03 -8.50554E+02
 -8.76155E+03 -9.57871E+03 -2.10062E+03 -1.52846E+04  9.44387E+03 -1.85050E+04  1.99589E+04 -9.71633E+03
  2.36718E+04  1.54819E+03  1.90966E+04  1.65313E+04  3.93597E+03  2.08407E+04 -1.03743E+04  1.61630E+04
 -1.35833E+04  4.44859E+03 -5.94811E+03 -4.21890E+03  1.06518E+02 -5.39690E+03  9.14306E+03 -7.98985E+02
  8.77129E+03  6.57863E+03  1.90733E+03  1.22967E+04 -7.80198E+03  1.31593E+04 -1.63275E+04  3.59671E+03
 -1.23801E+04 -8.44125E+03  1.46694E+03 -1.42377E+04  1.10112E+04 -7.57861E+03  1.01508E+04  3.49560E+03
  1.68075E+03  1.18444E+04 -7.90951E+03  1.24748E+04 -1.30574E+04  4.75235E+03 -1.63038E+04 -4.54974E+03
 -8.50334E+03 -1.58642E+04  4.73393E+03 -1.76118E+04  1.64616E+04 -1.30119E+04  1.93717E+04  3.69058E+03
  1.14472E+04  1.28083E+04 -1.06146E+03  1.58851E+04 -1.26100E+04  9.22521E+03 -1.23735E+04 -1.68675E+03
 -1.08929E+04 -9.64104E+03 -7.60785E+02 -1.27862E+04  6.11988E+03 -1.20452E+04  6.94691E+03 -2.75962E+03
  6.32239E+03  4.03430E+03 -2.44287E+03  2.93757E+03 -1.43768E+02 -3.01596E+03  1.71537E+03 -7.17908E+03
  1.18318E+04 -5.02935E+03  1.61567E+04  8.72840E+02  1.78227E+04  1.38101E+04  1.16264E+04  2.20668E+04
 -3.71954E+03  2.48643E+04 -2.20964E+04  2.07136E+04 -2.76105E+04  3.54691E+03 -2.32937E+04 -1.01667E+04
 -9.78274E+03 -1.80338E+04 -5.59674E+02 -1.60320E+04  5.01024E+03 -9.67673E+03  6.18914E+03 -6.88971E+03
  3.26688E+03 -4.65661E+03  3.18216E+03 -5.64087E+03  5.51018E+03 -3.39449E+03  7.46296E+03 -2.39669E+03
  1.06405E+04  1.40002E+03  7.02005E+03  9.89517E+03 -3.55753E+03  1.21027E+04 -1.34084E+04  9.15622E+03
 -1.54067E+04 -9.60242E+02 -9.12447E+03 -1.02828E+04 -1.71830E+03 -1.84563E+04  1.03276E+04 -1.77311E+04
  1.70187E+04 -9.02547E+03  2.16846E+04  3.44791E+03  1.38621E+04  1.62607E+04  3.64084E+03  1.82162E+04
 -8.48412E+03  1.44483E+04 -1.18352E+04  4.70270E+03 -7.81203E+03 -2.57587E+03 -4.03694E+03 -1.81366E+03
 -8.75200E+02  2.12536E+02 -1.73814E+03  8.60990E+02 -6.52016E+03  2.13068E+03 -1.12149E+04 -2.50114E+03
 -5.80960E+03 -1.08656E+04 -8.33621E+02 -1.54359E+04  9.18879E+03 -1.36330E+04  1.61798E+04 -2.60457E+03
  1.50916E+04  7.96695E+03  7.33886E+03  1.45192E+04 -3.11297E+03  1.67372E+04 -1.07759E+04  1.00517E+04
 -1.54493E+04 -1.64219E+02 -1.23974E+04 -1.13102E+04 -1.10722E+03 -1.27704E+04  6.78302E+03 -9.29845E+03
  1.12287E+04 -2.50781E+03  6.84696E+03  3.94689E+03  2.95557E+03  5.30370E+03  2.51397E+03  3.28283E+03
  3.06667E+03 -1.20953E+03  4.39354E+03  2.76637E+03  5.25939E+03  5.70648E+03  4.39791E+03  1.00887E+04
 -4.80352E+03  1.35625E+04 -1.08043E+04  1.39524E+04 -1.72669E+04  3.88119E+03 -1.79607E+04 -6.38441E+03
 -6.64197E+03 -1.82391E+04  2.51806E+03 -1.74358E+04  1.15070E+04 -1.14008E+04  1.49018E+04 -1.68502E+03
  1.14560E+04  4.44203E+03  1.99091E+03  1.07871E+04 -4.86528E+03  5.82143E+03 -6.89079E+03 -1.22073E+03
 -3.63211E+03 -6.74475E+03  4.32415E+03 -6.36884E+03  7.02806E+03 -3.82334E+03  5.97825E+03  7.56421E+02
  1.92920E+03  3.41336E+03  2.11052E+03  3.68773E+03 -5.37205E+02  1.00746E+03  1.19161E+00  2.47103E+02
  1.50302E+03 -2.36620E+03  8.01284E+03  2.54909E+03  3.17558E+03  8.76825E+03 -1.76721E+03  1.12557E+04
 -7.95576E+03  9.23979E+03 -1.10128E+04  2.86362E+03 -9.19468E+03 -5.93289E+03 -3.82404E+03 -4.36645E+03
  1.70825E+03 -6.59986E+03  5.58722E+03 -4.00016E+03  4.89224E+03  1.95509E+03 -1.57293E+03  6.58018E+03
 -8.77638E+03  3.32530E+03 -8.75621E+03 -4.93117E+03 -3.17947E+03 -9.59539E+03  3.21562E+02 -8.78330E+03
  4.71619E+03 -5.12105E+03  6.91560E+03 -1.31962E+03  5.52758E+03  1.23752E+03 -8.82459E+02  4.12817E+03
 -1.80059E+03  2.33532E+03 -4.29194E+03 -1.64020E+03  1.32064E+03 -8.74701E+03  7.39484E+03 -5.29710E+03
  1.04387E+04  1.89663E+03  1.08230E+04  6.70271E+03  3.66373E+03  1.13613E+04 -3.93822E+03  1.04083E+04
 -9.77096E+03  4.19684E+03 -8.82221E+03 -2.96073E+02 -5.47302E+03 -6.59482E+03  9.56788E+02 -5.86800E+03
  7.02071E+03 -2.72149E+03  6.74361E+03  3.82664E+03  2.22223E+03  6.56094E+03 -2.79392E+03  3.88674E+03
 -3.01109E+03  4.48062E+03 -3.34441E+03  1.52694E+03 -1.61297E+03 -2.29733E+01 -1.77948E+03  3.08858E+03
 -1.66851E+03  4.33291E+03 -8.65636E+03  4.76145E+03 -1.23901E+04 -1.16478E+03 -1.24411E+04 -8.24888E+03
 -5.81700E+03 -1.47708E+04  3.34649E+03 -1.76690E+04  1.20542E+04 -1.38717E+04  1.61932E+04 -5.49632E+03
  1.55766E+04  3.34380E+03  1.01764E+04  9.73391E+03  2.06961E+03  1.24559E+04 -5.50504E+03  9.48367E+03
 -6.81567E+03  3.59717E+03 -5.34565E+03 -1.22206E+03 -1.02138E+03 -4.30950E+02  3.72376E+01 -2.24549E+02
 -3.17479E+03 -2.07802E+03 -2.83333E+03  9.03808E+01 -1.25480E+03 -3.05209E+03  6.46114E+01 -5.03079E+03
  5.71999E+03 -1.67430E+03  6.94799E+03  1.48157E+03  8.89245E+03  8.05222E+03  3.61606E+03  1.34162E+04
 -4.63681E+03  1.32031E+04 -1.41033E+04  8.46145E+03 -1.29584E+04 -9.75515E+02 -1.18227E+04 -9.87865E+03
 -2.74165E+03 -1.36478E+04  3.20850E+03 -1.27397E+04  7.52013E+03 -6.02991E+03  8.78734E+03  1.02275E+03
  5.68791E+03  6.41187E+03  1.44975E+02  4.85859E+03 -3.35092E+03 -9.23424E+02  5.42855E+02 -2.34182E+03
  4.90558E+03 -2.59948E+03  3.94883E+03 -2.07831E+02  1.32848E+03  2.49008E+03  7.41506E+02  7.96033E+03
 -6.15762E+03  5.93624E+03 -8.96938E+03  7.34263E+02 -7.62555E+03 -7.27483E+03 -2.04004E+03 -1.12233E+04
  6.00978E+03 -8.30000E+03  1.09528E+04 -4.23499E+03  8.60121E+03  2.54303E+03  6.01138E+03  6.73347E+03
  2.58887E+02  8.83723E+03 -4.91539E+02  6.94583E+03 -5.90821E+03  2.91417E+03 -4.45253E+03  1.47032E+02
 -1.98374E+03 -6.92052E+02 -1.85760E+03  8.99952E+01 -4.83048E+03  2.08491E+03 -7.22757E+03 -1.32971E+03
 -4.62206E+03 -4.66664E+03 -1.03157E+03 -8.45771E+03  5.28558E+03 -9.68329E+03  6.20564E+03 -4.76605E+03
  8.92963E+03  1.04944E+02  3.51398E+03  6.54064E+03 -1.11499E+03  9.07379E+03 -5.57779E+03  5.72719E+03
