 $NMID ID='MM_0lb_SNR200_11hz_g50_33.RAW', FMTDAT='(8E13.5)'
 TRAMP=1., VOLUME=1. $END
  3.10036E+05 -6.65953E+02  3.37054E+05  2.51813E+05  8.57171E+04  3.37563E+05 -1.33381E+05  2.52210E+05
 -1.92576E+05  8.31647E+04 -1.11948E+05 -3.23457E+04 -5.73793E+02 -5.15565E+04  5.42743E+04  2.54719E+02
  3.49740E+04  5.44452E+04 -1.66714E+04  7.56224E+04 -6.11049E+04  6.53328E+04 -8.46813E+04  3.38544E+04
 -8.24724E+04 -1.22313E+04 -5.79911E+04 -5.18916E+04 -1.37328E+04 -7.08747E+04  2.82419E+04 -4.52068E+04
  4.14026E+04  2.41705E+03  1.65023E+04  4.80512E+04 -3.57474E+04  4.90133E+04 -6.71846E+04 -3.31724E+02
 -5.52556E+04 -5.66439E+04 -7.99861E+03 -7.80943E+04  3.43063E+04 -5.57336E+04  4.83636E+04 -1.82997E+04
  4.49568E+04  1.03944E+04  3.27312E+04  2.64014E+04  1.61841E+04  3.13514E+04 -4.10704E+03  2.60836E+04
 -2.22036E+04  1.14655E+04 -1.88361E+04 -5.56285E+03  5.50217E+03 -7.25126E+03  2.38792E+04  1.38743E+04
  7.66605E+03  3.58948E+04 -3.42196E+04  3.56613E+04 -6.40613E+04  2.20771E+03 -5.77926E+04 -4.47395E+04
 -1.24913E+04 -6.44173E+04  3.96642E+04 -4.58534E+04  6.10195E+04 -3.38657E+03  3.69745E+04  3.34197E+04
 -6.60422E+03  3.75271E+04 -3.16450E+04  1.89712E+04 -3.25426E+04 -3.72005E+03 -1.73566E+04 -1.15463E+04
 -8.57296E+03 -1.38149E+04  3.45426E+02 -1.94935E+04  8.33696E+03 -2.40221E+04  1.68688E+04 -1.27438E+04
  1.10734E+04  6.65013E+03 -1.01820E+04  1.33928E+04 -2.17235E+04 -5.00936E+03 -8.01531E+03 -3.50810E+04
  2.52285E+04 -4.42717E+04  5.17142E+04 -2.04480E+04  4.77667E+04  2.13364E+04  1.55185E+04  4.62701E+04
 -1.66216E+04  3.55827E+04 -2.80691E+04  2.34660E+03 -1.11954E+04 -2.77289E+04  2.09899E+04 -3.62063E+04
  4.31699E+04 -9.26661E+03  3.80364E+04  2.49634E+04  2.08793E+04  4.92350E+04 -7.36545E+03  5.26699E+04
 -3.29253E+04  3.50063E+04 -4.76747E+04  9.62171E+03 -4.48001E+04 -1.78373E+04 -2.56430E+04 -4.15378E+04
  6.34437E+03 -4.10238E+04  3.38810E+04 -1.65485E+04  3.11052E+04  1.16805E+04  5.42705E+03  2.08801E+04
 -1.49997E+04  1.06697E+04 -1.15982E+04 -7.70044E+03  5.40630E+03 -1.19907E+04  1.81831E+04  5.98800E+03
  1.48737E+04  2.23050E+04 -6.25107E+03  2.66936E+04 -2.35100E+04  1.33488E+04 -3.02896E+04 -5.82475E+03
 -2.33271E+04 -1.72592E+04 -9.56633E+03 -2.17374E+04  4.08273E+03 -2.50783E+04  1.83912E+04 -2.07376E+04
  3.00844E+04 -1.36069E+04  3.64477E+04  5.06992E+03  2.45046E+04  2.26117E+04  3.80670E+03  3.83453E+04
 -1.89674E+04  3.23014E+04 -2.97926E+04  1.09739E+04 -2.29151E+04 -1.13033E+04 -4.41928E+03 -1.30592E+04
  1.37296E+03 -8.48477E+02 -6.61177E+03  8.44078E+03 -1.98713E+04  5.96172E+03 -1.80480E+04 -9.42169E+03
 -1.12035E+04 -2.13502E+04  5.98001E+03 -2.54961E+04  1.74829E+04 -1.68698E+04  2.04638E+04 -3.43202E+03
  1.44350E+04  1.40918E+04 -8.56719E+02  2.28141E+04 -1.62958E+04  1.19367E+04 -2.13770E+04 -4.02042E+03
 -1.45428E+04 -1.83560E+04 -2.56663E+03 -2.68766E+04  9.62069E+03 -2.03628E+04  2.07444E+04 -1.15062E+04
  1.97372E+04 -1.15737E+03  1.27677E+04  5.76068E+03  7.36204E+03  1.81153E+03  1.06409E+04 -1.50264E+03
  1.97994E+04  3.44647E+03  2.29974E+04  1.62069E+04  1.63902E+04  3.47796E+04 -3.32583E+03  3.94650E+04
 -2.28538E+04  3.39136E+04 -3.65520E+04  1.73981E+04 -3.98691E+04 -1.82817E+03 -3.41405E+04 -2.16204E+04
 -1.27310E+04 -3.40723E+04  1.20453E+04 -2.90157E+04  2.50003E+04 -1.38170E+04  2.08805E+04  7.86377E+03
  8.43518E+03  1.82582E+04 -9.48599E+03  1.62003E+04 -1.68006E+04  2.64421E+03 -1.33102E+04 -1.10763E+04
 -7.07128E+02 -1.72671E+04  9.95547E+03 -1.26931E+04  1.23567E+04 -1.24302E+03  3.09109E+03  8.01383E+03
 -7.54649E+03  2.84851E+03 -7.66621E+03 -6.20460E+03  3.42410E+02 -1.59680E+04  1.08646E+04 -1.70353E+04
  1.93685E+04 -9.50975E+03  2.25575E+04  3.49985E+03  1.90637E+04  1.49413E+04  9.48823E+03  2.39927E+04
 -2.72036E+03  2.72633E+04 -1.74875E+04  1.81881E+04 -1.88778E+04  4.12623E+03 -1.43650E+04 -5.13630E+03
 -6.42282E+03 -5.32866E+03  4.08558E+02  3.50697E+02 -3.14063E+03  3.21337E+03 -8.04404E+03  4.01058E+03
 -1.25094E+04 -1.03816E+03 -1.36333E+04 -1.04212E+04 -4.86318E+03 -1.59044E+04  6.35294E+03 -1.39197E+04
  1.12032E+04 -7.63111E+03  8.08974E+03  2.43284E+03 -1.04159E+03  5.78889E+03 -6.33719E+03 -9.90432E+02
 -5.34512E+03 -9.44352E+03 -9.62732E+02 -1.34855E+04  7.87526E+03 -1.30522E+04  1.81123E+04 -7.50099E+03
  2.05480E+04  3.22681E+03  1.35925E+04  1.10413E+04  2.48862E+03  1.57746E+04 -8.91151E+03  1.50211E+04
 -1.18695E+04  4.44595E+03 -5.49043E+03 -2.62273E+03  1.14413E+03 -2.73670E+03  6.05295E+03 -1.32670E+03
  5.42312E+03  6.52034E+03  2.16960E+03  1.12332E+04 -8.50984E+03  9.19371E+03 -1.26754E+04  2.00834E+03
 -9.92014E+03 -5.82186E+03  9.99805E+02 -1.09153E+04  7.96847E+03 -4.91850E+03  8.56361E+03  2.62805E+03
  2.72242E+03  9.54760E+03 -7.13110E+03  9.68449E+03 -1.06511E+04  4.71436E+03 -1.19124E+04 -4.98860E+03
 -6.73206E+03 -1.29160E+04  2.86286E+03 -1.59022E+04  1.32106E+04 -9.41140E+03  1.40256E+04  7.35580E+02
  9.29844E+03  1.18409E+04 -1.91741E+02  1.44923E+04 -9.09963E+03  7.53815E+03 -1.05141E+04 -1.40439E+03
 -9.38868E+03 -8.69615E+03 -1.48271E+03 -1.20574E+04  4.83060E+03 -9.97646E+03  6.44283E+03 -3.47748E+03
  2.94672E+03  2.51491E+03 -1.01915E+03  2.02808E+03 -2.53837E+02 -2.46877E+03  1.43422E+03 -6.63095E+03
  8.08758E+03 -2.04972E+03  1.23856E+04  3.03051E+01  1.35736E+04  7.48652E+03  1.08183E+04  1.70384E+04
 -4.05173E+03  1.86996E+04 -1.49810E+04  1.56330E+04 -2.07513E+04  3.34689E+03 -1.69798E+04 -8.56225E+03
 -7.49317E+03 -1.50310E+04 -1.32492E+03 -1.19049E+04  4.79734E+03 -7.48832E+03  4.04453E+03 -3.72475E+03
  3.32686E+03 -1.64833E+03  3.63298E+03 -2.98489E+03  4.78433E+03 -2.18513E+03  7.23940E+03 -7.41726E+02
  7.77374E+03  1.82456E+03  4.08912E+03  7.78882E+03 -1.39530E+03  8.79109E+03 -9.87989E+03  6.24205E+03
 -1.15544E+04 -1.01797E+03 -6.53939E+03 -8.30612E+03 -2.46311E+03 -1.40467E+04  7.62103E+03 -1.12414E+04
  1.43272E+04 -6.81639E+03  1.57936E+04  1.66291E+03  1.13417E+04  1.06816E+04  7.08315E+02  1.41951E+04
 -7.16282E+03  1.16620E+04 -7.83565E+03  3.51147E+03 -4.26172E+03 -2.34696E+03 -2.28526E+03 -2.08472E+03
 -1.41311E+03  9.10257E+02 -1.23695E+03  2.46314E+03 -5.01131E+03  1.51862E+03 -7.27693E+03 -1.75318E+03
 -6.58181E+03 -9.08189E+03 -1.00154E+03 -1.14135E+04  7.57709E+03 -1.02939E+04  1.36920E+04 -3.13780E+03
  1.20886E+04  6.03528E+03  6.38348E+03  8.78615E+03  3.11495E+02  9.81076E+03 -7.33362E+03  8.27505E+03
 -1.04104E+04  8.88887E+02 -7.89302E+03 -6.72988E+03 -1.96498E+03 -9.71167E+03  5.32514E+03 -7.63444E+03
  7.28520E+03 -1.38514E+03  5.34821E+03  1.61418E+03  2.05069E+03  3.55874E+03  1.51300E+03  1.50355E+03
  2.32863E+03  1.62563E+03  1.56553E+03  1.60754E+03  2.92342E+03  4.00659E+03  2.08774E+03  5.66731E+03
 -2.84019E+03  9.09635E+03 -8.00670E+03  8.57621E+03 -1.13275E+04  2.61634E+03 -1.19903E+04 -5.60891E+03
 -6.15922E+03 -1.24639E+04  1.96379E+02 -1.22235E+04  6.84096E+03 -7.32041E+03  1.05650E+04 -2.26643E+03
  8.58626E+03  5.21017E+03  2.04083E+03  6.40203E+03 -3.08745E+03  6.60523E+03 -3.75684E+03 -1.01146E+03
 -1.58506E+03 -5.48839E+03  2.32006E+03 -5.55092E+03  5.16144E+03 -2.81192E+03  6.29992E+03  1.58144E+03
  3.91882E+03  2.28058E+03  5.77683E+02  6.39031E+02 -1.99979E+02  2.06254E+03  1.50772E+03 -1.27185E+03
  1.54618E+03  4.37645E+02  4.90606E+03  1.30502E+03  2.94457E+03  5.78582E+03 -1.10503E+03  7.90176E+03
 -6.07570E+03  5.17626E+03 -6.92301E+03  2.39762E+03 -6.79090E+03 -3.24673E+03 -3.78496E+03 -4.74718E+03
 -2.43878E+02 -3.52801E+03  3.75449E+03 -1.96588E+03  1.69942E+03  1.65178E+03 -3.02403E+02  3.40142E+03
 -5.40928E+03  1.25781E+03 -5.40029E+03 -1.84870E+03 -2.31894E+03 -6.46470E+03  2.52057E+03 -6.22392E+03
  4.65199E+03 -2.22380E+03  4.82096E+03  3.02487E+02  2.78152E+03  2.44103E+03  8.90635E+02  2.97901E+03
 -2.25286E+03  6.92854E+00 -1.61340E+03 -3.24577E+03  2.48865E+03 -5.33642E+03  5.30502E+03 -4.26434E+03
  5.10281E+03  1.18932E+03  5.36540E+03  5.29699E+03  2.05154E+03  7.79607E+03 -2.14937E+03  7.17048E+03
 -5.28372E+03  2.56971E+03 -6.25010E+03 -9.78292E+02 -2.87142E+03 -5.06112E+03  8.39649E+02 -2.70332E+03
  5.33188E+03 -3.04375E+03  4.38757E+03  1.11775E+03  1.93220E+03  4.33663E+03  3.49897E+02  3.31919E+03
  1.00739E+03  1.93113E+03 -2.01884E+03  2.17711E+02 -1.62375E+03  1.66901E+02 -1.83856E+03  1.41466E+03
 -1.00464E+03  2.98916E+03 -5.89081E+03  2.70482E+03 -7.19292E+03  1.90114E+03 -8.35841E+03 -4.81334E+03
 -4.47868E+03 -1.00346E+04  1.14263E+03 -1.07553E+04  6.46432E+03 -7.85106E+03  9.90251E+03 -3.59971E+03
  9.28997E+03  2.39933E+03  5.45244E+03  5.76665E+03  6.46240E+02  6.55899E+03 -2.69720E+03  6.23080E+03
 -4.28273E+03  1.45579E+03 -1.63137E+03 -6.73410E+02 -9.67491E+02 -1.27898E+03  6.21545E+01  9.11809E+01
 -2.88638E+03 -2.58348E+02 -1.93461E+03  7.67580E+02 -1.10647E+03 -2.02464E+03  8.19227E+02 -2.24515E+03
  4.51742E+03 -6.57414E+02  4.47071E+03 -1.07937E+03  5.50216E+03  4.35102E+03  2.46545E+02  7.14923E+03
 -3.50889E+03  6.97433E+03 -8.95091E+03  3.55460E+03 -9.80397E+03 -2.20506E+03 -6.93140E+03 -3.97051E+03
 -3.68470E+03 -7.04207E+03  6.51827E+02 -7.25312E+03  4.34101E+03 -3.76793E+03  3.68572E+03 -2.64145E+02
  3.07329E+03  1.54395E+03  7.60920E+02  3.86876E+03 -4.08069E+02 -4.20029E+02  2.57989E+02 -3.08342E+03
  3.21105E+03 -1.15029E+03  2.53894E+03  1.31120E+03  1.65400E+03  2.43449E+03  2.66906E+02  3.62774E+03
 -2.53354E+03  1.34026E+03 -3.63498E+03  2.01713E+02 -2.64267E+03 -3.11735E+03 -1.26622E+03 -6.51652E+03
  2.51897E+03 -4.69464E+03  6.15090E+03 -2.55873E+03  6.55776E+03  2.32312E+03  2.13000E+03  4.67113E+03
  1.47062E+03  4.32479E+03 -2.14750E+03  2.37507E+03 -3.88236E+03  3.03649E+03 -3.64002E+03  4.53703E+02
 -1.15819E+03 -2.95521E+02 -7.51890E+02  6.75319E+02 -3.35269E+03  1.16455E+03 -2.02175E+03 -9.36500E+02
 -2.59335E+03 -2.23703E+03 -1.31659E+03 -5.80875E+03  1.30536E+03 -5.44525E+03  4.49534E+03 -2.54680E+03
  4.50108E+03  5.12694E+02  2.18309E+03  2.31502E+03  6.15830E+02  4.17846E+03 -3.08427E+03  3.17428E+03
