 $NMID ID='MM_0lb_SNR200_17hz_g60_4.RAW', FMTDAT='(8E13.5)'
 TRAMP=1., VOLUME=1. $END
  3.09699E+05  5.12068E+02  3.37248E+05  2.49738E+05  8.47024E+04  3.37450E+05 -1.33002E+05  2.50046E+05
 -1.89469E+05  8.25350E+04 -1.11917E+05 -3.20965E+04  1.36061E+03 -4.98732E+04  5.46695E+04 -8.79406E+02
  3.52262E+04  5.32716E+04 -1.63163E+04  7.53364E+04 -6.12778E+04  6.41501E+04 -8.46586E+04  3.14648E+04
 -8.19976E+04 -1.14950E+04 -5.66588E+04 -5.07191E+04 -1.31292E+04 -6.85573E+04  2.73069E+04 -4.53471E+04
  3.98316E+04  2.97935E+03  1.62594E+04  4.75144E+04 -3.33936E+04  4.66190E+04 -6.58692E+04  1.71175E+02
 -5.21855E+04 -5.63406E+04 -6.28335E+03 -7.68393E+04  3.32455E+04 -5.47281E+04  4.62927E+04 -1.73471E+04
  4.45950E+04  1.08893E+04  3.19428E+04  2.63269E+04  1.50844E+04  2.85043E+04 -4.25900E+03  2.69085E+04
 -2.23665E+04  1.20534E+04 -1.85210E+04 -5.05700E+03  4.39551E+03 -7.54731E+03  2.20009E+04  1.23874E+04
  7.76774E+03  3.44096E+04 -3.18290E+04  3.49734E+04 -6.27740E+04  2.89366E+03 -5.68644E+04 -4.37028E+04
 -1.21362E+04 -6.34951E+04  3.99807E+04 -4.58298E+04  5.73003E+04 -2.98334E+03  3.40734E+04  3.21767E+04
 -5.64376E+03  3.63508E+04 -3.03096E+04  1.60602E+04 -2.91846E+04 -3.52474E+03 -1.44515E+04 -1.16560E+04
 -8.80130E+03 -1.22851E+04 -1.29450E+03 -1.80272E+04  8.63942E+03 -2.28414E+04  1.61745E+04 -1.38519E+04
  1.01524E+04  5.61730E+03 -7.26373E+03  1.28066E+04 -2.12781E+04 -3.94799E+03 -8.01345E+03 -3.37559E+04
  2.20790E+04 -4.24565E+04  4.65130E+04 -1.92602E+04  4.46060E+04  2.04227E+04  1.54296E+04  4.39699E+04
 -1.65241E+04  3.27514E+04 -2.52948E+04  1.22394E+03 -8.89800E+03 -2.67122E+04  2.10054E+04 -3.32358E+04
  4.05216E+04 -9.36748E+03  3.53569E+04  2.37600E+04  1.69737E+04  4.68318E+04 -8.73852E+03  4.89119E+04
 -3.08914E+04  3.27553E+04 -4.12296E+04  9.56925E+03 -4.28807E+04 -1.53605E+04 -2.23950E+04 -3.81145E+04
  8.65047E+03 -3.56357E+04  3.06007E+04 -1.45856E+04  2.89700E+04  1.14355E+04  3.81446E+03  1.89614E+04
 -1.33867E+04  7.82241E+03 -1.02468E+04 -7.06095E+03  5.68302E+03 -1.09731E+04  1.80537E+04  7.02927E+03
  1.36621E+04  2.21180E+04 -6.78041E+03  2.35243E+04 -2.24077E+04  9.57681E+03 -2.75831E+04 -5.84720E+03
 -1.97345E+04 -1.72399E+04 -6.75380E+03 -1.95125E+04  3.40968E+03 -1.78856E+04  1.44133E+04 -1.75428E+04
  2.47896E+04 -1.26842E+04  3.14431E+04  2.68616E+03  2.29095E+04  1.85533E+04  4.04034E+03  3.45654E+04
 -1.61070E+04  3.01589E+04 -2.80466E+04  1.04688E+04 -2.13795E+04 -1.01052E+04 -3.81927E+03 -1.37479E+04
  1.55995E+03 -3.34904E+03 -3.66842E+03  6.37909E+03 -1.51972E+04  6.37578E+03 -1.58745E+04 -6.07168E+03
 -9.83284E+03 -1.81587E+04  5.34730E+03 -2.18288E+04  1.32106E+04 -1.48807E+04  1.72031E+04 -2.48309E+03
  1.08286E+04  1.23141E+04 -8.12186E+02  1.83955E+04 -1.25314E+04  1.07528E+04 -1.77791E+04 -4.23555E+03
 -1.30648E+04 -1.60482E+04  7.57899E+01 -2.10470E+04  1.04766E+04 -1.90537E+04  1.76064E+04 -8.29592E+03
  1.84312E+04  1.48729E+03  1.14887E+04  2.67620E+03  5.88754E+03  1.40748E+03  8.57432E+03 -1.69914E+03
  1.59482E+04  2.77403E+03  1.72503E+04  1.49034E+04  1.11424E+04  2.77436E+04 -2.24965E+03  3.05978E+04
 -1.82682E+04  2.48065E+04 -2.93388E+04  1.37363E+04 -2.98050E+04 -1.97794E+03 -2.46607E+04 -1.69622E+04
 -1.15170E+04 -2.53522E+04  9.08266E+03 -2.34951E+04  1.97681E+04 -1.18509E+04  1.75097E+04  5.11492E+03
  6.82548E+03  1.27726E+04 -9.21020E+03  1.10474E+04 -1.47641E+04  2.78088E+03 -1.10050E+04 -9.56748E+03
  2.87354E+02 -1.43631E+04  6.52265E+03 -9.83190E+03  8.92326E+03 -1.10112E+03  2.61910E+03  5.92910E+03
 -4.88559E+03  1.62690E+03 -4.78569E+03 -4.43233E+03  6.19648E+02 -1.24445E+04  9.06614E+03 -1.10350E+04
  1.60033E+04 -6.28357E+03  1.55856E+04  1.77673E+03  1.35583E+04  1.19206E+04  6.57173E+03  1.80753E+04
 -1.61634E+03  1.94839E+04 -1.18686E+04  1.18392E+04 -1.39231E+04  3.17533E+03 -9.84509E+03 -3.04016E+03
 -3.55677E+03 -3.73343E+03 -1.13830E+03  9.90834E+02 -2.65813E+03  2.39888E+03 -5.76564E+03  4.08007E+03
 -9.80792E+03 -1.22377E+01 -9.83267E+03 -7.11570E+03 -3.41465E+03 -1.32275E+04  3.49643E+03 -1.02086E+04
  8.35055E+03 -4.73891E+03  5.72546E+03  2.07863E+03 -1.03222E+02  4.23505E+03 -4.35878E+03 -4.08118E+02
 -4.50750E+03 -6.08274E+03 -1.66182E+03 -9.14363E+03  5.75479E+03 -9.54049E+03  1.22955E+04 -4.90574E+03
  1.42381E+04  6.66313E+02  9.98832E+03  8.81430E+03  3.13789E+03  1.03972E+04 -6.31026E+03  1.05262E+04
 -8.50760E+03  3.05795E+03 -3.82412E+03 -1.36860E+03  2.28271E+03 -2.74129E+03  5.00976E+03 -1.10478E+03
  4.83589E+03  4.62020E+03  1.35577E+03  6.83409E+03 -5.82191E+03  7.83670E+03 -9.26724E+03  1.65102E+03
 -6.77176E+03 -4.65891E+03 -4.22155E+02 -7.71417E+03  5.44126E+03 -4.67598E+03  5.29030E+03  1.06602E+03
  4.13095E+02  5.04503E+03 -5.37034E+03  5.55030E+03 -6.24165E+03  2.43589E+03 -6.16746E+03 -1.50133E+03
 -3.71926E+03 -8.15513E+03  1.67497E+03 -9.97790E+03  7.57897E+03 -6.24885E+03  7.80249E+03  6.00245E+02
  4.56613E+03  7.15346E+03 -1.07659E+03  7.72136E+03 -6.08631E+03  4.75231E+03 -6.71336E+03 -6.76673E+02
 -6.94414E+03 -6.33794E+03 -1.36712E+03 -8.12562E+03  2.67941E+03 -5.86706E+03  4.52716E+03 -3.35261E+03
  2.99226E+03 -5.01162E+02 -1.11513E+03  1.19186E+03 -1.72784E+01 -2.85519E+02  7.47190E+02 -3.57113E+03
  4.53000E+03 -2.72406E+02  7.87933E+03  9.66492E+02  7.47263E+03  2.80634E+03  5.77253E+03  1.06177E+04
 -1.08935E+03  1.14998E+04 -8.80093E+03  1.01884E+04 -1.29001E+04  1.94044E+03 -1.13772E+04 -4.20277E+03
 -4.20914E+03 -8.94179E+03 -5.15247E+02 -5.97826E+03  1.68132E+03 -4.04795E+03  2.65988E+03 -2.87880E+03
  1.16151E+03 -1.96849E+03  3.27175E+03 -2.32125E+03  4.17406E+03 -1.44200E+03  4.54792E+03  3.40772E+01
  5.79682E+03  2.44292E+03  1.36603E+03  4.07602E+03 -9.16572E+02  4.08172E+03 -5.43215E+03  3.38445E+03
 -5.32924E+03 -8.80074E+02 -2.82715E+03 -3.35394E+03 -1.64458E+02 -6.40069E+03  4.38940E+03 -6.84978E+03
  7.26383E+03 -3.64432E+03  8.47871E+03  6.85853E+02  5.17781E+03  4.32705E+03  1.17245E+03  6.56271E+03
 -2.81582E+03  7.03570E+03 -4.89696E+03  2.22776E+03 -1.36860E+03 -1.45528E+03 -4.37222E+02 -7.38101E+02
 -1.32884E+03  3.13713E+02 -1.71596E+03  2.15953E+03 -2.79594E+03  8.01039E+02 -5.56336E+03 -3.62108E+02
 -1.58413E+03 -5.93347E+03  7.57195E+02 -4.86474E+03  4.16515E+03 -5.85777E+03  5.31354E+03 -6.38295E+01
  4.60804E+03  2.81309E+03  4.22959E+03  4.32306E+03  4.05101E+02  5.36762E+03 -2.51649E+03  3.91380E+03
 -5.16285E+03 -4.83215E+01 -3.35135E+03 -3.51520E+03 -8.51802E+02 -5.60415E+03  1.69933E+03 -2.10169E+03
  2.61821E+03 -1.19831E+03  2.89401E+03  7.63000E+02  9.62008E+02  2.93170E+03  3.28728E+02  6.08543E+02
  9.32641E+02  2.02357E+01  2.11522E+03  1.55567E+03  1.87585E+03  2.21031E+03  2.17797E+03  1.65071E+03
 -1.40267E+03  3.76105E+03 -3.18325E+03  5.53937E+03 -4.87450E+03  1.85215E+03 -5.38656E+03 -2.18678E+03
 -1.58903E+03 -3.83212E+03  6.17282E+02 -6.35049E+03  1.18461E+03 -3.91072E+03  4.90505E+03 -7.92144E+02
  3.00275E+03  9.71783E+02  6.79017E+02  2.78406E+03 -1.60963E+03  1.17590E+03 -1.08859E+03  1.91039E+02
 -1.32195E+03 -2.62568E+03  1.02617E+03 -2.96930E+03  2.02666E+03 -3.80412E+02  6.88731E+02  2.02257E+02
  6.91237E+01  8.95310E+02  1.44597E+03  1.01021E+03 -1.06244E+03  2.82878E+02  1.30843E+03 -9.57761E+02
  1.77774E+00  4.68977E+02  1.80061E+03  9.68848E+02  1.05841E+02  3.58651E+03  3.14595E+02  4.22223E+03
 -1.90381E+03  1.07071E+03 -2.68822E+03 -1.60007E+02 -3.77911E+03 -1.10555E+03  4.57067E+02 -1.10759E+03
 -4.05182E+02 -1.09750E+03  1.62361E+03 -9.09506E+02  1.05073E+03  3.37258E+02 -7.38126E+02  1.71694E+03
 -1.09803E+03  6.01441E+02 -1.15457E+03 -1.41866E+03 -1.60431E+03 -3.18889E+03  1.24170E+02 -2.83731E+03
  8.03930E+02  1.50765E+02  7.72817E+02  8.00948E+02  2.01666E+03  6.90037E+02 -4.83989E+02  2.62684E+03
 -1.12173E+03 -3.65289E+02 -1.25073E+03 -5.61321E+02  1.40225E+03 -7.64579E+02  2.62624E+03 -1.67276E+02
  2.46970E+03  1.20688E+02  3.05553E+03  7.83998E+02  2.01416E+03  2.55765E+03 -6.88049E+02  2.71806E+03
 -3.46458E+03 -8.23297E+02 -1.68863E+03  6.38566E+01 -9.86107E+01 -1.76479E+03  4.58702E+02 -2.27021E+03
  2.61891E+03 -1.05389E+03  1.60262E+03  1.69875E+03 -3.76042E+02  1.57397E+03 -5.48943E+02 -2.02001E+02
  3.54587E+02  2.08748E+03 -3.68359E+02 -3.99377E+02 -3.55914E+02 -4.92908E+02 -1.64551E+03  1.34049E+03
 -1.58435E+03  1.32550E+03 -1.84941E+03 -6.16067E+02 -1.64781E+03  8.16415E+02 -2.21780E+03 -3.69190E+01
 -7.64317E+02 -2.01251E+03  1.44979E+02 -3.33711E+03  2.05744E+03 -3.37325E+03  3.52688E+03 -1.19559E+03
  2.80619E+03 -1.79294E+03  1.38874E+03  3.20512E+03 -8.83634E+02  1.81667E+03  2.11558E+02  3.79127E+02
 -1.55989E+03  4.68548E+02  3.56545E+02 -4.64965E+01  4.01452E+01 -9.00717E+01 -1.32320E+03 -1.39759E+02
 -3.07303E+02  1.11219E+02 -4.62862E+02 -8.73511E+02  1.48839E+02  3.81278E+02 -6.22111E+02 -7.25758E+02
  1.88671E+03  6.04330E+02  1.30838E+03  3.39954E+02  8.50242E+02 -3.00808E+01 -5.02391E+02  1.61038E+03
 -2.67712E+03  2.87089E+03 -1.88969E+03  1.79278E+03 -2.42933E+03 -6.29959E+01 -1.07304E+03 -2.37720E+02
 -4.59309E+02 -8.18854E+02 -3.33063E+02 -2.77875E+03  1.76008E+03 -9.45592E+02  1.00897E+03  1.53841E+02
  7.21183E+02  1.53756E+03  3.12356E+01  1.46726E+02 -4.81035E+02 -1.22724E+03 -3.61721E+02  4.06075E+02
  1.22351E+03  4.71674E+02  3.24468E+02 -1.04620E+03  1.94212E+03  1.45053E+02 -6.54223E+01  9.91857E+02
 -1.41847E+02  7.40521E+02 -9.06428E+02  4.17916E+02 -1.93648E+02  2.21803E+01 -8.81648E+02 -1.19099E+03
  1.46281E+03 -1.79031E+03  1.25439E+03 -1.16994E+03  1.32525E+03 -6.67867E+02  4.98848E+02  3.66861E+02
 -4.00866E+02  1.14614E+03 -1.96042E+02  3.80318E+02 -9.73734E+02  9.83420E+02  1.53283E+02  7.86862E+02
 -1.38492E+03 -4.74177E+02 -8.90316E+02  1.62376E+03 -1.42925E+02  3.17571E+02 -1.19528E+03  1.98569E+02
 -2.28197E+03  2.17766E+02 -1.12610E+02 -1.02039E+03  1.46450E+03 -1.84941E+03  1.57742E+03 -9.50662E+02
  7.21566E+02  3.44254E+02  4.94815E+02  4.82687E+02  2.82215E+02  1.15396E+03 -9.61010E+02  1.54091E+03
