 $NMID ID='MM_0lb_SNR200_19hz_g40_93.RAW', FMTDAT='(8E13.5)'
 TRAMP=1., VOLUME=1. $END
  3.09677E+05  3.37164E+01  3.36533E+05  2.50101E+05  8.41833E+04  3.36899E+05 -1.32490E+05  2.49917E+05
 -1.90006E+05  8.35178E+04 -1.11448E+05 -3.48164E+04  1.20482E+03 -4.96941E+04  5.38169E+04 -2.73924E+02
  3.41303E+04  5.27920E+04 -1.63535E+04  7.46253E+04 -5.91784E+04  6.32690E+04 -8.21069E+04  3.11660E+04
 -7.94144E+04 -1.07037E+04 -5.54979E+04 -5.01891E+04 -1.52528E+04 -6.84767E+04  2.54804E+04 -4.41465E+04
  3.83781E+04  4.43485E+03  1.51788E+04  4.77411E+04 -3.32774E+04  4.67230E+04 -6.55813E+04 -1.45468E+03
 -5.17398E+04 -5.51103E+04 -5.79970E+03 -7.41431E+04  3.29580E+04 -5.19434E+04  4.64624E+04 -1.63051E+04
  3.97236E+04  1.11403E+04  3.03981E+04  2.38248E+04  1.52265E+04  2.83540E+04 -4.56034E+03  2.63961E+04
 -2.19516E+04  1.27269E+04 -1.93280E+04 -4.93480E+03  3.41451E+03 -7.27764E+03  1.96187E+04  1.05756E+04
  8.03793E+03  3.29553E+04 -3.00381E+04  3.32412E+04 -6.03374E+04  2.46465E+03 -5.53666E+04 -4.12440E+04
 -1.26251E+04 -6.00820E+04  3.71676E+04 -4.28770E+04  5.55328E+04 -6.51765E+02  3.10575E+04  2.96777E+04
 -6.20895E+03  3.26993E+04 -2.79691E+04  1.16935E+04 -2.72813E+04 -4.83776E+03 -1.26839E+04 -1.02247E+04
 -7.00652E+03 -1.16697E+04 -1.59919E+03 -1.59671E+04  6.19188E+03 -2.22135E+04  1.51917E+04 -1.27774E+04
  1.27350E+04  4.12169E+03 -6.10152E+03  1.39908E+04 -1.77618E+04 -1.97864E+03 -7.66468E+03 -3.00670E+04
  2.02303E+04 -3.99020E+04  4.41847E+04 -1.87061E+04  4.21527E+04  1.87576E+04  1.37856E+04  4.13757E+04
 -1.43033E+04  2.96309E+04 -2.32119E+04  6.84541E+02 -7.14988E+03 -2.54535E+04  1.97903E+04 -2.93841E+04
  3.71916E+04 -7.11324E+03  3.10677E+04  2.18986E+04  1.38175E+04  4.22891E+04 -8.40769E+03  4.38405E+04
 -2.70574E+04  2.89353E+04 -3.50891E+04  8.22458E+03 -3.69792E+04 -1.45082E+04 -2.08263E+04 -3.24748E+04
  7.01007E+03 -3.43403E+04  2.78001E+04 -1.22946E+04  2.55590E+04  1.09606E+04  2.37833E+03  1.62531E+04
 -1.30925E+04  7.08085E+03 -9.57411E+03 -8.16252E+03  4.97199E+03 -9.80107E+03  1.64169E+04  6.54227E+03
  1.20638E+04  2.14617E+04 -7.14311E+03  2.29150E+04 -2.10530E+04  7.80850E+03 -2.47916E+04 -6.88281E+03
 -1.50901E+04 -1.68324E+04 -5.25628E+03 -1.62538E+04  3.34489E+03 -1.32053E+04  1.23035E+04 -1.36683E+04
  2.02465E+04 -1.09759E+04  2.65516E+04  3.58520E+02  2.01540E+04  1.54141E+04  4.28239E+03  3.26826E+04
 -1.58082E+04  2.67745E+04 -2.52622E+04  9.27193E+03 -2.00321E+04 -1.03450E+04 -4.37463E+03 -1.36554E+04
  2.92449E+03 -3.32491E+03 -2.23299E+03  4.64571E+03 -1.33249E+04  5.74996E+03 -1.26492E+04 -4.38223E+03
 -8.73372E+03 -1.50296E+04  4.92634E+03 -1.85895E+04  1.16534E+04 -1.31823E+04  1.34112E+04 -1.46300E+03
  7.64189E+03  1.08176E+04 -1.27652E+03  1.46242E+04 -1.03846E+04  7.40827E+03 -1.43736E+04 -2.66143E+03
 -1.06391E+04 -1.32363E+04 -1.43692E+03 -1.86803E+04  8.85144E+03 -1.43000E+04  1.50493E+04 -6.45514E+03
  1.39581E+04  9.55322E+02  1.11084E+04  3.64668E+03  4.13922E+03  4.28840E+02  7.35635E+03 -1.39130E+02
  1.31500E+04  2.12530E+03  1.36700E+04  1.18509E+04  8.97650E+03  2.39904E+04 -3.54951E+03  2.44310E+04
 -1.43570E+04  1.77546E+04 -2.36237E+04  8.84208E+03 -2.32212E+04 -3.06967E+03 -1.96701E+04 -1.38300E+04
 -1.02374E+04 -1.87179E+04  6.22129E+03 -1.73892E+04  1.47229E+04 -1.00938E+04  1.40118E+04  3.57204E+03
  6.20228E+03  1.11044E+04 -7.09424E+03  9.90907E+03 -1.30347E+04  4.03108E+03 -1.00738E+04 -6.71887E+03
  2.65972E+01 -1.17498E+04  5.87722E+03 -9.06264E+03  7.15334E+03 -1.37989E+03  1.39181E+03  4.51762E+03
 -5.57756E+03  6.14030E+02 -3.28199E+03 -4.45759E+03  1.52458E+03 -1.02053E+04  7.57278E+03 -8.29731E+03
  1.15064E+04 -3.53583E+03  1.15188E+04  1.06601E+03  8.94200E+03  9.52048E+03  4.53184E+03  1.27245E+04
 -1.01861E+03  1.49171E+04 -7.96635E+03  9.22711E+03 -1.05214E+04  2.76562E+03 -7.47141E+03 -2.04534E+03
 -5.16941E+03 -2.69934E+03 -9.61091E+02  1.46075E+03 -1.57077E+03  1.13915E+03 -4.28319E+03  4.72699E+03
 -6.54038E+03  2.05642E+02 -8.01681E+03 -6.38677E+03 -3.87329E+03 -1.18565E+04  3.36577E+03 -7.70176E+03
  5.37978E+03 -3.04169E+03  5.48358E+03  1.77032E+03  1.25033E+02  2.66527E+03 -3.12905E+03 -3.13821E+02
 -1.85485E+03 -3.65857E+03 -2.62237E+02 -6.98041E+03  2.59697E+03 -7.32810E+03  8.59107E+03 -3.37451E+03
  1.05669E+04  4.19999E+02  8.36449E+03  5.41436E+03  2.21904E+03  7.88185E+03 -4.72586E+03  7.87229E+03
 -6.78055E+03  3.68078E+03 -3.38793E+03 -1.03185E+03  1.31373E+03 -1.75887E+03  4.46583E+03 -8.66359E+02
  3.37449E+03  3.49404E+03 -7.60741E+01  6.40626E+03 -4.05677E+03  5.94532E+03 -8.14291E+03  1.85604E+03
 -4.63696E+03 -2.89692E+03  8.89051E+02 -5.40610E+03  3.25038E+03 -2.94763E+03  2.57609E+03  3.30041E+02
 -2.44451E+02  2.55912E+03 -3.41074E+03  3.87819E+03 -3.50194E+03  2.57566E+03 -3.20492E+03 -1.29009E+03
 -1.67293E+03 -6.58281E+03  1.98630E+03 -7.85124E+03  6.05177E+03 -4.52142E+03  6.09704E+03  5.89328E+02
  4.29542E+03  4.81547E+03  1.63860E+02  6.94805E+03 -5.02268E+03  4.35722E+03 -5.02344E+03 -1.96824E+02
 -5.25806E+03 -3.71722E+03 -9.37772E+02 -4.33479E+03  2.52546E+03 -4.46191E+03  2.54217E+03 -2.92900E+03
  2.73127E+03  1.86925E+02  3.33007E+02  1.13455E+03  9.39622E+02  1.94543E+02  1.32021E+02 -2.52320E+03
  3.11883E+03 -8.68306E+02  4.29915E+03  4.10704E+02  4.96751E+03  3.44856E+03  4.83129E+03  5.48497E+03
 -7.92606E+02  6.93034E+03 -5.70564E+03  6.73765E+03 -9.08201E+03  6.41058E+02 -7.07940E+03 -3.05820E+03
 -3.65284E+03 -4.90809E+03 -1.67403E+03 -4.65561E+03  1.01360E+03 -1.82301E+03  9.62945E+02 -2.24498E+03
  1.15716E+03 -1.05450E+03  2.64245E+03 -2.82067E+03  3.04764E+03 -1.46055E+03  3.08062E+03  1.37967E+03
  4.05165E+03  1.33525E+03  8.39662E+02  3.13921E+03 -1.20188E+03  2.37023E+03 -4.10860E+03  2.89821E+03
 -4.30490E+03 -6.96109E+02 -1.00363E+03 -2.38024E+03  8.61718E+02 -4.13143E+03  3.49836E+03 -5.38292E+03
  4.82714E+03 -3.06822E+03  6.76180E+03  5.10291E+02  4.63439E+03  3.12212E+03  1.32419E+03  4.87484E+03
 -1.04414E+03  6.02970E+03 -4.06065E+03  8.71281E+02 -1.70627E+03 -1.36077E+03 -4.06034E+02  2.35225E+01
 -7.08441E+02  2.31799E+02  1.45904E+02  1.77383E+03 -2.32560E+03  6.17326E+02 -3.28661E+03 -6.36600E+02
 -3.26450E+02 -3.92502E+03  5.22352E+02 -2.16421E+03  2.38099E+03 -4.05318E+03  2.93542E+03 -1.32002E+03
  5.00380E+03  3.05157E+03  1.70027E+03  3.52627E+03 -2.15143E+03  3.60982E+03 -2.10941E+03  1.56428E+03
 -3.38043E+03  6.23246E+02 -3.79568E+03 -2.07601E+03  2.83826E+02 -2.89192E+03  1.25189E+03 -2.16060E+03
  2.00675E+03 -1.78525E+03  1.67912E+03  5.44649E+02  9.44697E+02  2.22620E+03  1.07550E+03 -6.70240E+02
  1.98100E+03 -8.09970E+02  6.93542E+02  1.64116E+03  4.79161E+02  1.78185E+03  8.05260E+02  7.06219E+02
 -1.50398E+03  3.03455E+03 -2.02261E+03  3.01349E+03 -2.35984E+03  1.11492E+03 -3.75374E+03  1.25235E+01
 -1.47780E+03 -3.45698E+03  1.25643E+03 -3.66289E+03  2.53414E+03 -1.21248E+03  2.61082E+03 -1.69333E+03
  2.40067E+03  1.87364E+03  4.42798E+00  2.37578E+03 -9.26933E+02  9.62795E+02 -9.95779E+02  7.60470E+01
 -6.37882E+02 -3.53114E+02  5.37956E+02 -1.75783E+03  1.03585E+03 -1.18787E+03  6.24118E+02  9.44917E+02
  1.22815E+02 -8.73672E+02  7.55440E+02 -1.73254E+02 -1.00746E+03  3.64431E+02  1.38959E+03  1.02340E+02
  6.69044E+02  5.04957E+02  1.98325E+03 -9.53423E+01  4.69477E+01  1.32162E+03 -1.59732E+02  3.39753E+03
 -1.40093E+03  1.71668E+02 -1.80170E+03  4.13814E+02 -2.31717E+03 -1.09770E+03 -3.11008E+01 -5.52742E+02
  1.39649E+03 -7.23094E+02  1.13422E+03 -2.08371E+02  9.67222E+02  1.90748E+03 -9.82395E+02  8.70643E+02
 -2.26492E+03  5.70448E+02 -1.42255E+03 -1.41114E+03 -5.23534E+02 -2.03170E+03  1.18041E+02 -2.32893E+03
 -4.82945E+02  2.80363E+02 -5.65551E+02  4.32749E+02  1.89257E+03  8.90866E+02  5.58507E+02  7.17179E+02
 -2.57943E+01  4.89247E+02 -1.41166E+03 -4.34534E+02  1.02940E+03 -6.48782E+02  1.63277E+03 -2.66555E+02
  2.16758E+03  3.64286E+02  1.87717E+03  8.12000E+02  1.20398E+03  6.34324E+02 -1.06790E+03  1.82384E+03
 -1.67214E+03 -8.88490E+02 -1.36851E+03 -5.52121E+02 -1.05019E+03 -3.75366E+02  1.71080E+02  8.10878E+01
  1.75530E+03 -1.28007E+03  9.90220E+01  1.03014E+03  2.01241E+02  1.11868E+03 -1.89359E+02  1.04961E+03
  8.57554E+02 -1.97224E+02 -7.02804E+02  7.54004E+02 -3.09911E+02 -7.30214E+01  2.61293E+02  2.91753E+02
  4.17281E+02  1.44274E+03 -9.34525E+02  3.89385E+02 -1.10508E+03  4.90976E+02 -1.98029E+03 -1.08778E+03
 -1.48458E+03 -1.78586E+03 -1.30215E+01 -1.96334E+03  1.09729E+03 -2.23179E+03  4.36975E+03 -9.09113E+02
  1.92906E+03  8.90683E+02  2.10003E+02  1.24360E+03 -7.45905E+02  1.28348E+03 -5.45239E+02  1.08836E+03
 -3.39286E+02  7.16949E+02  2.16694E+02 -3.39062E+02 -4.12095E+02  5.85451E+02  7.78562E+01  5.10763E+02
 -9.28727E+02 -3.75197E+02 -5.66099E+02  1.31896E+02  7.63429E+02 -7.41648E+02  8.69614E+01 -8.74345E+02
  1.66209E+03 -2.43604E+02 -7.89681E+01  1.21572E+02  1.59453E+02  1.44160E+03 -8.92427E+02  9.34793E+02
 -1.75041E+03  2.51969E+03 -1.57870E+03  1.04155E+03 -2.60686E+03  9.00877E+02 -1.35788E+03 -1.88083E+03
 -7.02341E+02 -1.60155E+03  4.67157E+02 -6.61563E+02 -1.68488E+02 -6.21051E+02  2.42233E+02 -9.37659E+02
  1.40402E+03  1.37220E+03 -8.67417E+01  8.33185E+01 -8.86195E+02 -1.35999E+02 -1.28163E+03 -7.03977E+02
  4.64093E+02  6.73282E+02  5.85354E+02  4.63544E+02  5.81583E+02  3.98136E+02  8.47357E+02 -3.45846E+02
 -9.18500E+01  7.91413E+02  3.53565E+02 -3.44777E+02 -1.03803E+03 -1.19030E+03  3.71373E+02 -1.70429E+03
  8.35422E+01 -5.80311E+02  4.87038E+02  1.14094E+03 -3.28968E+02 -7.43735E+02  5.14323E+02  1.04841E+03
 -1.55191E+02  6.04859E+01 -1.52548E+02  1.05052E+03 -4.14969E+02  1.31106E+03 -3.09950E-01  8.66925E+02
 -4.34144E+02 -1.07697E+02  7.07901E+02  1.39671E+03 -1.36704E+03  5.76271E+02 -4.10774E+01 -2.10736E+02
 -8.33845E+02 -4.99442E+02 -8.91045E+02 -9.04449E+02  2.31420E+03 -1.77538E+03  5.45817E+02 -2.46828E+02
  1.76017E+02 -5.91349E+02  4.47228E+01  1.47310E+02  3.96474E+02  5.77543E+02 -3.78787E+02 -4.16220E+02
