 $NMID ID='MM_0lb_SNR200_17hz_g55_19.RAW', FMTDAT='(8E13.5)'
 TRAMP=1., VOLUME=1. $END
  3.10038E+05  2.31349E+02  3.37461E+05  2.48425E+05  8.49759E+04  3.37283E+05 -1.32556E+05  2.51682E+05
 -1.90765E+05  8.29778E+04 -1.11375E+05 -3.27269E+04  1.74952E+03 -5.05305E+04  5.46144E+04 -5.01883E+02
  3.64581E+04  5.23942E+04 -1.58507E+04  7.42291E+04 -5.99926E+04  6.36315E+04 -8.38536E+04  3.20360E+04
 -8.07434E+04 -1.11315E+04 -5.77685E+04 -5.04852E+04 -1.56610E+04 -6.86756E+04  2.69975E+04 -4.46605E+04
  4.02365E+04  3.73218E+03  1.61963E+04  4.79227E+04 -3.38309E+04  4.61274E+04 -6.64438E+04 -9.24515E+02
 -5.23241E+04 -5.68282E+04 -7.02987E+03 -7.61594E+04  3.28626E+04 -5.46312E+04  4.73478E+04 -1.84475E+04
  4.28711E+04  1.11721E+04  3.12400E+04  2.45717E+04  1.58734E+04  2.86674E+04 -4.86257E+03  2.71640E+04
 -2.18310E+04  1.25341E+04 -1.95002E+04 -4.05007E+03  5.76495E+03 -7.63580E+03  2.21987E+04  1.10102E+04
  7.37619E+03  3.50724E+04 -3.15418E+04  3.52414E+04 -6.19663E+04  1.77894E+03 -5.56533E+04 -4.22798E+04
 -1.28053E+04 -6.31028E+04  3.94371E+04 -4.32697E+04  5.58346E+04 -1.94871E+03  3.33205E+04  3.34022E+04
 -6.36550E+03  3.57590E+04 -3.01981E+04  1.51359E+04 -2.92619E+04 -5.40204E+03 -1.63468E+04 -1.08403E+04
 -7.38551E+03 -1.28123E+04  1.09456E+02 -1.70131E+04  6.87984E+03 -2.37341E+04  1.48410E+04 -1.43094E+04
  1.16679E+04  5.25748E+03 -7.42947E+03  1.29263E+04 -2.06926E+04 -3.13779E+03 -8.40255E+03 -3.11522E+04
  2.23489E+04 -4.25295E+04  4.62103E+04 -1.96452E+04  4.35476E+04  1.85922E+04  1.51858E+04  4.34973E+04
 -1.59641E+04  3.18233E+04 -2.42340E+04  1.11956E+03 -1.04020E+04 -2.65581E+04  2.04686E+04 -3.13569E+04
  4.06443E+04 -8.40561E+03  3.42479E+04  2.40218E+04  1.71786E+04  4.32756E+04 -7.75523E+03  4.80681E+04
 -3.00576E+04  3.26601E+04 -4.05334E+04  8.42789E+03 -4.01519E+04 -1.58672E+04 -2.23726E+04 -3.65646E+04
  7.75108E+03 -3.58789E+04  3.08594E+04 -1.37607E+04  2.82565E+04  1.04738E+04  3.58025E+03  1.84996E+04
 -1.25366E+04  7.44155E+03 -1.13838E+04 -8.38667E+03  6.25592E+03 -1.01196E+04  1.75578E+04  5.97732E+03
  1.34504E+04  2.15180E+04 -6.22191E+03  2.39414E+04 -2.22955E+04  1.09875E+04 -2.71117E+04 -4.87542E+03
 -1.94662E+04 -1.76477E+04 -6.87259E+03 -1.88074E+04  4.77181E+03 -1.74266E+04  1.49110E+04 -1.60521E+04
  2.47346E+04 -1.19468E+04  3.06935E+04  2.77865E+03  2.24234E+04  1.72298E+04  3.31044E+03  3.46642E+04
 -1.54564E+04  2.98910E+04 -2.62468E+04  9.90449E+03 -1.99324E+04 -1.14089E+04 -4.37603E+03 -1.29029E+04
  2.23097E+03 -4.50729E+03 -3.46255E+03  6.19271E+03 -1.54117E+04  6.05516E+03 -1.38100E+04 -5.90139E+03
 -1.05209E+04 -1.72923E+04  4.81423E+03 -2.19863E+04  1.39735E+04 -1.39669E+04  1.58249E+04 -1.72516E+03
  9.92406E+03  1.16830E+04 -3.36878E+02  1.72260E+04 -1.27900E+04  1.03556E+04 -1.75231E+04 -3.69318E+03
 -1.35179E+04 -1.58256E+04 -1.87364E+03 -2.10608E+04  9.27194E+03 -1.74876E+04  1.79647E+04 -9.08611E+03
  1.62594E+04  1.09814E+03  1.19508E+04  2.88775E+03  6.24507E+03  1.18638E+03  8.69903E+03 -2.32730E+03
  1.59884E+04  2.03481E+03  1.65963E+04  1.41516E+04  1.14733E+04  2.67322E+04 -2.70812E+03  3.05703E+04
 -1.78551E+04  2.40984E+04 -2.80498E+04  1.19855E+04 -2.94540E+04 -2.37848E+02 -2.40861E+04 -1.64641E+04
 -1.12462E+04 -2.39498E+04  8.27986E+03 -2.12182E+04  1.85880E+04 -1.28735E+04  1.74414E+04  5.97180E+03
  7.54225E+03  1.22207E+04 -8.71314E+03  1.08893E+04 -1.50672E+04  3.02516E+03 -1.19133E+04 -8.05740E+03
 -1.66984E+02 -1.41840E+04  7.00447E+03 -1.05885E+04  9.20840E+03 -1.37553E+03  2.03958E+03  5.99166E+03
 -6.12691E+03 -1.25860E+02 -3.89443E+03 -4.75601E+03  1.07709E+03 -1.15138E+04  9.28001E+03 -1.13039E+04
  1.34713E+04 -4.84755E+03  1.49781E+04  3.34468E+03  1.30510E+04  1.29524E+04  5.45979E+03  1.63646E+04
 -2.24021E+03  1.92884E+04 -1.14273E+04  1.26652E+04 -1.52252E+04  3.43071E+03 -9.31274E+03 -3.28972E+03
 -3.90048E+03 -4.57285E+03 -1.64668E+03  1.13982E+03 -1.54287E+03  2.13155E+03 -4.12334E+03  4.45560E+03
 -8.78458E+03 -4.44668E+02 -1.02974E+04 -7.64210E+03 -3.94643E+03 -1.30235E+04  4.24711E+03 -9.63236E+03
  8.73211E+03 -4.50434E+03  5.90966E+03  3.87528E+03  1.11092E+02  4.19722E+03 -3.24800E+03  2.04665E+02
 -2.86146E+03 -6.21685E+03 -1.29451E+03 -8.56976E+03  4.64243E+03 -9.47031E+03  1.25466E+04 -4.95536E+03
  1.48785E+04  1.28503E+03  1.04747E+04  7.77449E+03  2.20996E+03  1.09251E+04 -5.52994E+03  9.23365E+03
 -7.96095E+03  2.36592E+03 -4.02357E+03 -1.70724E+03  1.42418E+03 -2.63336E+03  4.35830E+03 -1.15686E+03
  4.91281E+03  3.16677E+03  7.36692E+02  7.47768E+03 -4.66490E+03  7.19479E+03 -9.41322E+03  1.59989E+03
 -5.92227E+03 -4.03000E+03  7.11216E+01 -7.46127E+03  4.75212E+03 -2.90149E+03  3.99984E+03  1.53144E+03
  2.01268E+03  3.34888E+03 -5.30755E+03  5.82263E+03 -7.14460E+03  3.32662E+03 -5.57977E+03 -1.19833E+03
 -4.06891E+03 -7.63203E+03  1.13722E+03 -8.54447E+03  6.43903E+03 -5.40853E+03  8.02656E+03  3.89741E+02
  4.53644E+03  6.40260E+03 -1.51408E+02  7.81980E+03 -5.62822E+03  4.93349E+03 -7.14970E+03  8.54175E+01
 -7.46544E+03 -6.27082E+03 -5.38883E+02 -4.82716E+03  2.47762E+03 -5.21641E+03  2.66066E+03 -3.62766E+03
  2.79260E+03  1.43682E+03 -1.03177E+02  5.53630E+02 -7.74347E+02 -3.10608E+02  2.64256E+02 -3.18407E+03
  4.36222E+03 -1.67350E+03  7.17302E+03  1.93578E+03  6.54757E+03  4.13327E+03  6.28455E+03  8.85686E+03
 -2.10646E+03  1.03514E+04 -1.01740E+04  9.21397E+03 -1.20843E+04  2.49368E+03 -9.71890E+03 -3.22585E+03
 -4.51281E+03 -6.76507E+03 -6.14543E+02 -6.79524E+03  1.78854E+03 -3.23966E+03  8.96070E+02 -2.77797E+03
  1.35357E+03 -1.71139E+03  3.44666E+03 -2.92143E+03  4.10052E+03 -1.44079E+03  3.92034E+03  2.09838E+02
  5.08273E+03  1.47893E+03  3.14531E+01  4.04416E+03 -1.01943E+03  3.00467E+03 -6.32771E+03  3.55221E+03
 -5.51713E+03 -7.14272E+02 -3.23673E+03 -3.72427E+03 -1.37418E+02 -6.16114E+03  5.26447E+03 -6.28868E+03
  5.97462E+03 -3.87837E+03  8.25605E+03  5.82212E+02  5.33542E+03  5.02407E+03  5.50558E+02  7.56836E+03
 -3.64510E+03  7.56818E+03 -5.82314E+03  2.05982E+03 -2.07608E+03 -1.02244E+03 -2.12309E+03  2.29981E+02
 -2.28119E+03  2.21652E+02 -7.39659E+02  2.20288E+03 -2.77457E+03  1.24813E+03 -4.53843E+03 -7.95960E+02
 -1.72952E+03 -4.02068E+03  4.05099E+01 -4.28967E+03  4.01130E+03 -4.67232E+03  4.06609E+03 -1.51266E+03
  5.36400E+03  4.35210E+03  2.89780E+03  4.26901E+03  6.60219E+00  4.90638E+03 -3.48790E+03  4.05422E+03
 -5.14876E+03  4.64729E+02 -4.03735E+03 -3.48897E+03  9.33442E+01 -3.85839E+03  2.41100E+03 -2.98423E+03
  3.49556E+03 -2.10467E+03  2.57699E+03  3.05006E+01  1.88167E+03  1.21962E+03  1.05838E+03  8.97061E+02
  5.36645E+02 -8.28154E+01  3.55004E+02  8.69322E+02  1.42039E+03  2.73804E+03  2.81760E+03  2.00779E+03
 -6.28920E+02  3.90939E+03 -2.55338E+03  5.33506E+03 -4.81993E+03  2.31212E+02 -5.38680E+03 -1.23701E+03
 -3.21817E+03 -4.84765E+03  1.38932E+03 -6.04668E+03  3.19969E+03 -2.86545E+03  3.42230E+03 -1.49101E+03
  3.29740E+03  1.24085E+03 -4.28285E+02  2.40122E+03 -1.86412E+03  1.55272E+03 -1.44235E+03 -3.87109E+02
 -1.11223E+03 -1.81089E+03  1.87601E+03 -1.88975E+03  3.46972E+03 -1.27771E+03  2.26150E+03  1.69426E+02
  5.41747E+02  6.57258E+02  2.49531E+02 -7.18951E+02 -7.16839E+02 -8.55762E+01  1.61168E+03 -5.09626E+02
 -4.78061E+02  8.45325E+01  2.64016E+03  7.98882E+02  8.29769E+02  3.56226E+03 -6.92147E+02  2.21883E+03
 -3.42048E+03  4.31075E+02 -2.53158E+03  1.60876E+02 -2.93401E+03 -2.54924E+02 -3.11197E+02 -1.75353E+03
  3.20173E+02 -1.82604E+03  4.88287E+02 -1.45200E+03  1.04470E+03  1.48323E+03 -1.58662E+03  1.47916E+03
 -2.28264E+03  9.60171E+02 -1.12996E+03 -1.07966E+03 -6.39723E+02 -3.04070E+03 -2.36475E+02 -3.42115E+03
  5.61546E+02 -1.11702E+03  1.06099E+03 -1.68276E+02  2.41750E+03 -1.55780E+02 -3.10392E+02  1.42748E+03
 -1.43055E+03  1.17245E+03 -2.14126E+03  3.94941E+01  6.72999E+02 -9.22971E+02  2.77259E+03 -2.15729E+03
  1.99586E+03 -5.39770E+02  3.24496E+03  1.43644E+03  4.95808E+02  3.04269E+03 -7.85459E+02  9.55936E+02
 -2.35352E+03  5.15047E+02 -2.12155E+03  7.29921E+02 -1.73148E+03 -2.18874E+03  4.84671E+02 -6.08479E+02
  1.59413E+03 -1.01619E+03  2.06323E+03  7.95009E+02 -1.15986E+02  2.59239E+03  5.08776E+01  8.78582E+02
 -2.53097E+02  1.34381E+03  1.55421E+02  3.20863E+02  4.52390E+02  1.81101E+03 -1.18645E+03  8.04553E+02
 -4.87684E+02  2.21249E+03 -1.15645E+03  1.07620E+03 -1.81932E+03  1.57691E+02 -1.94736E+03 -3.86795E+02
 -4.20666E+02 -3.36358E+03  1.13794E+03 -3.76445E+03  2.03309E+03 -3.54986E+03  3.50438E+03 -1.72813E+03
  3.17239E+03 -1.11660E+03  1.49435E+03  1.97755E+03  1.21569E+01  1.32437E+03 -1.23186E+03  1.31145E+03
 -7.58925E+02  1.25046E+03 -1.50465E+03  2.96727E+02 -7.34160E+02  6.74705E+02 -6.90893E+01 -1.18133E+03
 -8.82722E+02  8.59891E+02 -1.75614E+03 -5.17494E+01  1.24578E+03 -5.64269E+02 -9.56305E+02 -4.60754E+02
  1.27158E+03 -1.33148E+03  9.52133E+02 -3.67899E+01  2.41280E+02  1.33368E+03  3.97950E+02  2.56550E+03
 -1.63878E+03  2.80460E+03 -2.46779E+03  2.24292E+03 -2.22244E+03 -3.91471E+02 -2.31613E+03 -2.41519E+03
 -1.36753E+03 -2.95752E+03 -1.22518E+02 -1.38919E+03  8.81629E+02 -7.43709E+02  1.21619E+03 -1.00973E+03
  4.79574E+02  5.66177E+02  8.49385E+02  6.38042E+02 -5.90106E+02  7.77046E+02 -9.42809E+02 -8.95819E+02
  5.94327E+02  4.35685E+02 -2.01772E+02 -1.28367E+03 -8.22534E+02  9.41812E+01 -6.48711E+02  5.02135E+02
 -9.34938E+02  9.82060E+02 -1.08526E+03 -1.08823E+02 -1.02228E+03 -2.89389E+02  3.39697E+01 -1.24838E+03
  1.11279E+03 -1.69250E+03  1.38663E+03  5.67444E+02  1.30058E+02 -4.54721E+02  1.04851E+02  1.88158E+03
 -9.78122E+02 -2.64395E+02 -8.39054E+02  8.23697E+02  5.70348E+02  1.43771E+03 -5.81750E+02 -2.70596E+02
  2.91668E+02 -5.24480E+01  8.69791E+02  8.45672E+02 -9.45909E+02 -5.77167E+02 -5.97871E+02  4.64159E+02
 -1.24864E+03 -1.36946E+02 -7.02960E+02  3.04577E+02  1.04165E+03 -2.13558E+03  1.41393E+03  1.21689E+02
  1.58489E+03  5.44377E+02  1.65518E+01 -1.46845E+02 -7.05642E+02  1.55476E+03 -6.57738E+02  1.20785E+03
