 $NMID ID='MM_0lb_SNR200_20hz_g60_56.RAW', FMTDAT='(8E13.5)'
 TRAMP=1., VOLUME=1. $END
  3.09184E+05  1.93502E+02  3.38941E+05  2.52134E+05  8.39162E+04  3.37322E+05 -1.32258E+05  2.49948E+05
 -1.90741E+05  8.36117E+04 -1.10276E+05 -3.37153E+04  4.53150E+02 -4.93812E+04  5.46699E+04  4.04971E+01
  3.52920E+04  5.30877E+04 -1.68281E+04  7.46782E+04 -6.03317E+04  6.35831E+04 -8.34949E+04  3.13773E+04
 -8.01342E+04 -1.10360E+04 -5.73806E+04 -5.13156E+04 -1.42649E+04 -6.97968E+04  2.63866E+04 -4.44482E+04
  3.98057E+04  3.57161E+03  1.58779E+04  4.71725E+04 -3.33292E+04  4.62290E+04 -6.68601E+04 -1.26359E+02
 -5.09306E+04 -5.64819E+04 -7.05266E+03 -7.57964E+04  3.32826E+04 -5.38591E+04  4.64959E+04 -1.69871E+04
  4.26123E+04  1.04014E+04  2.97605E+04  2.56237E+04  1.57505E+04  2.82173E+04 -4.69355E+03  2.70195E+04
 -2.21487E+04  1.31684E+04 -1.91690E+04 -4.11080E+03  4.15516E+03 -6.47150E+03  2.25367E+04  1.00349E+04
  7.22083E+03  3.37513E+04 -3.21625E+04  3.46784E+04 -6.26211E+04  1.97899E+03 -5.56546E+04 -4.28382E+04
 -1.35630E+04 -6.17422E+04  3.87433E+04 -4.34043E+04  5.53540E+04 -2.58376E+03  3.38381E+04  3.19838E+04
 -6.30905E+03  3.46643E+04 -2.79411E+04  1.46599E+04 -2.88858E+04 -5.53560E+03 -1.50596E+04 -9.89845E+03
 -8.18809E+03 -1.18782E+04 -1.96375E+03 -1.75835E+04  6.73399E+03 -2.27144E+04  1.57814E+04 -1.48715E+04
  1.33383E+04  4.14244E+03 -7.52922E+03  1.28853E+04 -1.81597E+04 -3.20869E+03 -7.38458E+03 -3.14874E+04
  2.08835E+04 -4.11890E+04  4.50418E+04 -1.82928E+04  4.23015E+04  1.92745E+04  1.47986E+04  4.20992E+04
 -1.50468E+04  3.06933E+04 -2.36411E+04  9.00331E+02 -7.32488E+03 -2.65709E+04  2.10751E+04 -3.19632E+04
  3.83927E+04 -8.08051E+03  3.25197E+04  2.27676E+04  1.56094E+04  4.36884E+04 -6.62961E+03  4.65747E+04
 -2.96715E+04  3.05831E+04 -3.88542E+04  9.26512E+03 -3.91760E+04 -1.56224E+04 -2.12595E+04 -3.57626E+04
  7.04228E+03 -3.37477E+04  3.00159E+04 -1.33347E+04  2.77078E+04  1.11822E+04  3.03691E+03  1.81994E+04
 -1.35139E+04  8.07194E+03 -1.01963E+04 -7.35374E+03  5.56110E+03 -9.47041E+03  1.72788E+04  5.61286E+03
  1.24918E+04  2.19081E+04 -5.96779E+03  2.31152E+04 -2.09907E+04  1.01448E+04 -2.48928E+04 -5.63537E+03
 -1.72768E+04 -1.65182E+04 -6.39357E+03 -1.64396E+04  3.28578E+03 -1.54210E+04  1.31791E+04 -1.49229E+04
  2.17930E+04 -1.12760E+04  2.87612E+04  1.64937E+03  2.09377E+04  1.67985E+04  5.11550E+03  3.23919E+04
 -1.59222E+04  2.80021E+04 -2.66432E+04  9.94955E+03 -2.07270E+04 -1.02712E+04 -3.93208E+03 -1.45882E+04
  1.32066E+03 -3.85058E+03 -3.25852E+03  5.62639E+03 -1.44062E+04  6.06901E+03 -1.47578E+04 -6.27246E+03
 -9.65219E+03 -1.58004E+04  4.99739E+03 -1.90256E+04  1.27979E+04 -1.39180E+04  1.53612E+04 -6.31200E+02
  8.01007E+03  1.12139E+04 -1.54378E+02  1.56810E+04 -1.10722E+04  8.58952E+03 -1.50241E+04 -3.85906E+03
 -1.17303E+04 -1.57105E+04  8.96890E+01 -1.88084E+04  8.36615E+03 -1.58509E+04  1.66956E+04 -6.70947E+03
  1.52827E+04  4.32932E+02  1.06209E+04  3.20418E+03  4.87117E+03 -2.28348E+02  6.42793E+03 -2.22074E+03
  1.45566E+04  2.01933E+03  1.49357E+04  1.31208E+04  8.83184E+03  2.42967E+04 -2.59108E+03  2.69422E+04
 -1.47436E+04  1.97209E+04 -2.56294E+04  9.07449E+03 -2.49669E+04 -1.96490E+03 -2.12351E+04 -1.44759E+04
 -1.02830E+04 -2.03334E+04  6.42096E+03 -1.90723E+04  1.75602E+04 -1.11692E+04  1.54440E+04  3.50413E+03
  7.02220E+03  1.16137E+04 -7.97336E+03  1.04050E+04 -1.28225E+04  2.22085E+03 -9.56705E+03 -8.85892E+03
  7.19145E+02 -1.27592E+04  7.34083E+03 -9.71675E+03  7.26435E+03 -1.62673E+03  6.30751E+02  3.64904E+03
 -5.98169E+03  1.28758E+03 -3.09490E+03 -4.30947E+03  7.14372E+02 -9.54001E+03  7.41893E+03 -9.89249E+03
  1.09279E+04 -4.39270E+03  1.15392E+04  2.26366E+03  1.00628E+04  9.77679E+03  4.75480E+03  1.39227E+04
 -1.49948E+03  1.58913E+04 -8.65053E+03  9.57115E+03 -1.12414E+04  2.53344E+03 -8.28590E+03 -1.01285E+03
 -3.87853E+03 -3.35712E+03 -6.24589E+02  1.67378E+03 -1.96599E+03  2.20454E+03 -3.43517E+03  4.66799E+03
 -7.49327E+03  2.26426E+02 -9.43409E+03 -8.32569E+03 -3.42334E+03 -1.05117E+04  3.27401E+03 -8.21326E+03
  7.81281E+03 -4.90669E+03  5.54971E+03  1.36403E+03  9.72697E+01  2.26106E+03 -3.22076E+03 -2.07036E+02
 -3.21799E+03 -4.77353E+03 -1.55329E+02 -7.97801E+03  2.99270E+03 -8.51068E+03  9.21244E+03 -4.53017E+03
  1.19015E+04  4.31098E+02  8.60804E+03  6.51771E+03  2.29175E+03  8.34325E+03 -5.70560E+03  8.33246E+03
 -6.66576E+03  2.64747E+03 -3.98088E+03 -5.03516E+02  1.85193E+03 -6.35935E+02  4.24927E+03 -2.22615E+03
  4.69150E+03  2.51605E+03  7.47518E+02  5.54919E+03 -3.15677E+03  7.02789E+03 -7.70701E+03  2.29488E+03
 -5.04457E+03 -3.68805E+03  5.47315E+02 -5.13535E+03  4.00691E+03 -2.54123E+03  3.10709E+03  1.40483E+03
  5.77485E+02  4.43318E+03 -4.28137E+03  4.44114E+03 -4.05756E+03  1.51426E+03 -3.47653E+03 -7.53962E+02
 -2.77803E+03 -5.66391E+03  1.74095E+01 -7.74235E+03  5.83004E+03 -3.87721E+03  5.81109E+03  7.49567E+02
  4.28165E+03  4.50858E+03  3.79735E+02  6.98752E+03 -4.71836E+03  3.96132E+03 -4.98778E+03 -5.01954E+01
 -6.50401E+03 -5.19990E+03 -1.25867E+03 -5.42492E+03  1.67728E+03 -4.97331E+03  1.53789E+03 -2.08003E+03
  1.98882E+03 -3.17182E+02 -8.83569E+02  8.90375E+02  6.94373E+02  7.60301E+02  3.24055E+02 -1.34737E+03
  2.86683E+03 -1.85737E+02  5.10463E+03 -3.08391E+02  4.25083E+03  2.49398E+03  5.85944E+03  5.89684E+03
 -5.43712E+02  7.23713E+03 -7.65532E+03  5.62857E+03 -8.93386E+03  2.39589E+03 -7.84439E+03 -2.55527E+03
 -3.93641E+03 -5.27574E+03  1.01476E+03 -5.50749E+03  1.41899E+03 -9.45936E+02  2.32432E+03 -1.94700E+03
  5.24912E+02 -1.32451E+03  9.21754E+02 -2.47657E+03  2.75787E+03 -3.55776E+02  3.54638E+03 -3.01816E+02
  3.79003E+03  1.40371E+03  7.49720E+02  2.83267E+03 -1.57666E+03  2.60499E+03 -4.25740E+03  3.02349E+03
 -3.81976E+03 -1.09217E+03 -2.25609E+03 -2.58847E+03  1.12351E+02 -5.65209E+03  2.97839E+03 -4.39157E+03
  5.76892E+03 -1.98624E+03  5.47731E+03 -1.00117E+03  4.59316E+03  3.16250E+03  4.42679E+02  4.66886E+03
 -2.10345E+03  5.50369E+03 -3.52296E+03  1.62908E+03 -8.36438E+02 -5.02439E+02 -3.52551E+02 -6.20109E+02
 -9.60928E+01 -3.38255E+02 -5.07347E+02  6.65790E+02 -2.50523E+03  1.60903E+03 -4.10106E+03 -6.88153E+02
 -6.03789E+02 -2.78794E+03 -4.21068E+02 -3.89737E+03  1.26814E+03 -3.27625E+03  2.87035E+03 -1.27907E+03
  3.36501E+03  2.60737E+03  2.05826E+03  2.24438E+03  3.48130E+01  2.96045E+03 -1.57575E+03  2.32434E+03
 -2.51224E+03 -2.21374E+02 -2.83779E+03 -1.94312E+03 -2.84327E+02 -2.66296E+03  1.52158E+03 -2.14166E+03
  3.23962E+03 -3.51338E+02  1.33221E+03 -7.37002E+01  8.98674E+02  2.15282E+03  4.48324E+02  8.20452E+02
  8.61645E+02  1.40146E+03  1.25131E+03  1.80534E+03  1.03211E+03  1.81584E+03  1.21411E+03  1.71922E+03
 -1.11649E+03  2.94752E+03 -1.71370E+03  3.47338E+03 -2.01352E+03  1.13016E+03 -3.46701E+03  2.41476E+02
 -1.97110E+03 -2.48038E+03  1.16637E+03 -4.47271E+03  2.24298E+03 -1.76758E+03  2.14359E+03 -1.12445E+03
  1.92674E+03  1.67511E+03  5.60062E+02  1.93529E+03 -6.98163E+02  6.16080E+02 -3.53255E+02  4.11250E+02
 -1.07984E+03 -9.01925E+02  7.55114E+02 -1.40665E+03  1.30576E+03 -1.48091E+03  4.14018E+02  7.47324E+02
  1.17304E+03  8.40935E+02  1.09235E+03  3.85433E+02  4.66914E+02  1.83053E+02  1.59439E+03  1.08830E+02
 -1.80309E+01 -4.01287E+00  2.51005E+03 -7.28776E+02 -9.52293E+02  1.92153E+03 -2.58550E+02  2.10192E+03
 -1.31710E+03  2.37649E+02 -1.62753E+03 -1.44869E+03 -1.72178E+03 -1.44328E+03  3.01045E+02  6.53501E+02
  2.95969E+02 -1.17266E+03  8.20347E+02  3.75922E+02 -3.86477E+01  1.09650E+03 -1.46512E+03  8.48079E+02
 -2.00884E+03  1.45379E+03 -6.75293E+02 -1.04030E+03 -7.96668E+02 -8.41665E+02  3.77386E+02 -4.13870E+02
  8.39745E+02  1.73842E+02  1.85567E+01 -4.82578E+02  2.29805E+02  1.56025E+03  6.91013E+02  1.05957E+03
 -8.94988E+02  4.77975E+02 -1.20852E+02 -1.06719E+02  8.72505E+02 -2.77211E+02  2.90430E+02 -1.02250E+03
  5.02399E+02  4.41075E+02  1.49235E+03  7.61152E+02  1.23615E+03  5.39925E+02 -1.08335E+02  1.14109E+03
 -1.22583E+03 -6.36262E+01 -8.08146E+02 -3.04873E+01 -5.76124E+02 -2.14420E+03  3.30620E+02 -4.69880E+02
  1.39435E+03  5.82481E+02 -4.03674E+01  1.69517E+02 -2.23450E+01  1.31503E+03  2.81668E+01  1.34857E+03
 -1.14372E+02  1.14360E+03  4.58228E+01 -1.08494E+03 -3.39032E+02  2.47646E+02 -3.39478E+02  3.82407E+01
 -3.66158E+02  1.76249E+03 -1.81256E+03 -2.61730E+02 -4.50563E+02 -1.59991E+02 -1.38092E+03 -1.37441E+03
 -2.70292E+01 -2.77499E+03 -2.52400E+02 -3.02981E+03  5.88047E+02 -2.15024E+03  1.77191E+03 -1.25344E+03
  1.64940E+03  4.19925E+02  2.21928E+03  1.48555E+03 -9.60873E+02  1.18864E+03  9.51441E+01  7.41747E+02
 -1.36497E+03  6.38691E+02 -9.38088E+02 -1.99856E+02 -9.77999E+02  6.26317E+02 -1.28662E+01 -6.81550E+02
 -1.37979E+03 -3.05855E+02  5.70793E+02  6.16809E+02  1.53784E+02 -8.71861E+02  1.63408E+02 -9.20202E+02
  1.96171E+02 -1.01997E+03  5.39328E+02 -9.19200E+01  5.73759E+02  9.46028E+02  6.05103E+02  2.23797E+02
 -4.61002E+02  2.22986E+03 -1.67322E+03  6.85388E+02 -8.56408E+02 -1.01900E+03 -9.77246E+02 -3.80956E+02
 -2.01032E+02 -4.60319E+02  1.14050E+02 -1.41629E+02 -4.05059E+02 -2.21480E+02  7.39497E+02 -2.21192E+02
  6.95269E+02  5.60075E+02 -2.37009E+02  2.11411E+02 -2.80840E+02 -6.28057E+02 -5.82366E+02 -3.25424E+02
 -2.84316E+02  8.49949E+02  2.78064E+02  3.78717E+01 -1.34944E+02  6.57940E+02  9.34451E+02 -6.16608E+02
 -7.73062E+02  7.78701E+02 -6.14052E+02  3.34525E+01 -1.89828E+02  1.61719E+02 -2.38933E+02 -9.14345E+02
  2.45395E+02  4.23032E+02 -1.03004E+03 -3.32203E+02  1.47134E+02  2.38753E+02  1.14418E+03  1.38900E+03
 -6.66945E+00 -6.54665E+02  4.54491E+01 -3.38163E+02 -3.65075E+02 -2.41557E+02 -2.89124E+02 -4.30259E+02
  5.66097E+02 -2.88448E+02 -1.03529E+03  3.97277E+02 -9.59593E+02  2.80980E+02 -1.24605E+01 -1.25732E+03
 -1.64481E+03  9.90938E+02 -6.49911E+01 -4.57556E+02  5.45503E+02 -4.65130E+02 -8.77949E+00 -6.94308E+02
 -5.17340E+02  7.47961E+02 -1.34027E+03 -2.29839E+02  2.82675E+02  9.84114E+02  4.13031E+02 -1.08715E+02
