 $NMID ID='MM_0lb_SNR200_16hz_g40_13.RAW', FMTDAT='(8E13.5)'
 TRAMP=1., VOLUME=1. $END
  3.09335E+05  3.39053E+02  3.37184E+05  2.51344E+05  8.43780E+04  3.36996E+05 -1.32128E+05  2.50574E+05
 -1.89498E+05  8.24756E+04 -1.10239E+05 -3.29629E+04  4.31797E+02 -5.08389E+04  5.40993E+04 -1.45043E+03
  3.44282E+04  5.26989E+04 -1.72219E+04  7.53518E+04 -6.04222E+04  6.25733E+04 -8.33475E+04  3.21286E+04
 -7.91286E+04 -1.09019E+04 -5.65539E+04 -5.08937E+04 -1.39093E+04 -6.85404E+04  2.67735E+04 -4.58962E+04
  3.91685E+04  3.26586E+03  1.52777E+04  4.69293E+04 -3.50950E+04  4.56389E+04 -6.62233E+04  1.10783E+03
 -5.25918E+04 -5.66834E+04 -6.35448E+03 -7.52832E+04  3.39256E+04 -5.30062E+04  4.55674E+04 -1.78263E+04
  4.29310E+04  1.13507E+04  3.06392E+04  2.49089E+04  1.56877E+04  2.84041E+04 -4.40508E+03  2.61210E+04
 -2.18552E+04  1.22826E+04 -1.91873E+04 -4.93251E+03  4.31158E+03 -6.58259E+03  2.15437E+04  1.01376E+04
  7.18438E+03  3.45881E+04 -3.19413E+04  3.46748E+04 -6.11989E+04  2.17034E+03 -5.48883E+04 -4.02219E+04
 -1.23126E+04 -6.13694E+04  3.84940E+04 -4.44801E+04  5.68007E+04 -1.32585E+03  3.21407E+04  3.15212E+04
 -6.31337E+03  3.32680E+04 -2.85861E+04  1.39927E+04 -2.78141E+04 -5.90476E+03 -1.57648E+04 -9.72034E+03
 -7.28176E+03 -1.17342E+04 -9.76955E+02 -1.70622E+04  5.61563E+03 -2.21681E+04  1.54921E+04 -1.40674E+04
  1.12249E+04  5.10130E+03 -7.63202E+03  1.32918E+04 -1.95540E+04 -3.24764E+03 -7.50155E+03 -3.19360E+04
  2.23071E+04 -4.28313E+04  4.54791E+04 -1.84330E+04  4.19051E+04  1.86612E+04  1.44025E+04  4.28148E+04
 -1.51704E+04  3.11200E+04 -2.41851E+04  1.54254E+03 -9.48129E+03 -2.70654E+04  2.10257E+04 -3.21003E+04
  3.88101E+04 -8.09678E+03  3.11892E+04  2.24789E+04  1.66871E+04  4.36447E+04 -7.86002E+03  4.70789E+04
 -2.80679E+04  3.12343E+04 -3.92098E+04  7.53319E+03 -4.05752E+04 -1.70987E+04 -2.10581E+04 -3.54046E+04
  7.43228E+03 -3.57692E+04  3.02783E+04 -1.28139E+04  2.74782E+04  1.12233E+04  3.50970E+03  1.89740E+04
 -1.30319E+04  7.76865E+03 -1.05419E+04 -8.08262E+03  5.62626E+03 -9.48446E+03  1.72762E+04  7.27564E+03
  1.34706E+04  2.23364E+04 -6.98372E+03  2.37912E+04 -2.21983E+04  9.24104E+03 -2.53236E+04 -5.88814E+03
 -1.89197E+04 -1.65980E+04 -6.31556E+03 -1.75061E+04  3.68188E+03 -1.55321E+04  1.43793E+04 -1.53744E+04
  2.24810E+04 -1.26075E+04  2.99841E+04  6.68164E+02  2.21815E+04  1.73510E+04  3.23421E+03  3.32484E+04
 -1.64270E+04  2.82174E+04 -2.61139E+04  8.71719E+03 -1.93483E+04 -1.08341E+04 -3.42157E+03 -1.40122E+04
  3.75410E+03 -3.96980E+03 -3.95256E+03  5.65377E+03 -1.51603E+04  5.28835E+03 -1.43311E+04 -6.00075E+03
 -7.91856E+03 -1.66427E+04  4.45807E+03 -2.09276E+04  1.29220E+04 -1.54605E+04  1.53358E+04 -1.07418E+03
  9.90211E+03  1.03100E+04 -4.62430E+02  1.61940E+04 -1.15216E+04  8.97714E+03 -1.52981E+04 -3.38697E+03
 -1.21206E+04 -1.63710E+04 -5.95869E+02 -2.00671E+04  1.02879E+04 -1.64121E+04  1.63609E+04 -7.31081E+03
  1.58563E+04  1.04545E+03  1.14802E+04  4.14580E+03  5.36213E+03  5.00665E+02  8.39081E+03 -1.88820E+03
  1.56995E+04  1.74009E+03  1.57728E+04  1.37180E+04  9.84979E+03  2.73545E+04 -2.48744E+03  2.90780E+04
 -1.63752E+04  2.25129E+04 -2.63425E+04  1.13088E+04 -2.86353E+04 -1.71707E+03 -2.25647E+04 -1.63586E+04
 -1.00331E+04 -2.38631E+04  8.42401E+03 -2.04875E+04  1.74702E+04 -1.11867E+04  1.61635E+04  4.32855E+03
  7.20909E+03  1.24702E+04 -6.93332E+03  1.08351E+04 -1.32262E+04  3.04728E+03 -1.10648E+04 -8.77323E+03
  3.40140E+01 -1.47432E+04  6.90232E+03 -1.00748E+04  8.90139E+03 -1.55172E+03  1.18942E+03  5.59252E+03
 -6.43809E+03  2.90385E+03 -4.71227E+03 -4.94606E+03  3.45024E+02 -1.17148E+04  8.48355E+03 -1.17217E+04
  1.50173E+04 -5.57321E+03  1.41426E+04  3.42569E+03  1.27615E+04  1.09120E+04  6.95532E+03  1.60254E+04
 -2.37189E+03  1.94799E+04 -1.12807E+04  1.22563E+04 -1.32122E+04  1.94094E+03 -9.66665E+03 -2.47876E+03
 -4.15172E+03 -3.98700E+03 -1.94592E+02  9.86871E+02 -2.69512E+03  1.97705E+03 -4.73695E+03  3.65005E+03
 -8.71485E+03 -2.29007E+02 -8.22773E+03 -6.50308E+03 -2.30283E+03 -1.18088E+04  4.21315E+03 -9.36976E+03
  8.48062E+03 -3.97748E+03  6.30326E+03  2.35060E+03  9.97369E+01  3.43936E+03 -4.15601E+03  4.56815E+02
 -5.05407E+03 -5.20283E+03 -1.52977E+03 -8.29353E+03  5.56093E+03 -9.87375E+03  1.08365E+04 -5.56759E+03
  1.31290E+04  1.06257E+03  9.88784E+03  8.69165E+03  2.17123E+03  9.68470E+03 -5.17740E+03  9.50850E+03
 -7.46080E+03  3.01596E+03 -4.36197E+03 -2.02535E+03  1.52434E+03 -2.64875E+03  6.85604E+03  3.06630E+01
  3.88393E+03  4.75028E+03  1.64272E+03  7.62262E+03 -6.07177E+03  7.35405E+03 -8.45576E+03  1.38141E+03
 -5.98105E+03 -5.20697E+03  2.74249E+02 -6.62357E+03  6.22146E+03 -4.12382E+03  3.53842E+03  2.21285E+03
  7.22996E+02  4.84366E+03 -5.25724E+03  5.54329E+03 -5.97737E+03  3.73054E+03 -5.66635E+03 -2.10073E+03
 -3.87292E+03 -8.02929E+03  1.71536E+03 -7.64835E+03  7.24651E+03 -6.34366E+03  6.64203E+03  1.28804E+03
  5.45151E+03  5.82553E+03  1.09501E+02  7.59214E+03 -6.70884E+03  3.56791E+03 -6.45069E+03 -7.47307E+02
 -7.47288E+03 -5.54286E+03 -1.95306E+02 -6.75555E+03  3.23141E+03 -5.03147E+03  3.15807E+03 -3.89605E+03
  3.32846E+03  2.94458E+02 -3.08881E+02  8.87916E+02  3.28279E+02 -9.73834E+02  5.35965E+02 -3.21628E+03
  4.45084E+03 -1.36199E+03  6.73707E+03  4.83913E+02  6.30443E+03  3.53314E+03  5.87369E+03  8.95444E+03
 -2.68101E+03  9.99955E+03 -9.86148E+03  9.03495E+03 -1.18062E+04  2.35871E+03 -8.87794E+03 -3.58546E+03
 -5.00663E+03 -7.14800E+03 -1.01073E+03 -6.21753E+03  2.37827E+03 -3.26782E+03  2.46117E+03 -2.82896E+03
  1.50990E+03 -1.03645E+03  1.37124E+03 -2.33157E+03  3.69191E+03 -2.05163E+03  4.41755E+03 -8.61935E+01
  4.94931E+03  7.30582E+02  1.45398E+03  4.04046E+03 -1.86059E+03  3.70059E+03 -4.91655E+03  3.70882E+03
 -6.94788E+03 -9.17377E+02 -2.51908E+03 -3.65570E+03 -1.52604E+03 -6.55681E+03  4.09809E+03 -6.95378E+03
  7.32678E+03 -4.23699E+03  7.83886E+03  1.34249E+03  6.31030E+03  5.22328E+03  2.04998E+02  8.27497E+03
 -1.83105E+03  6.59799E+03 -5.77387E+03  4.05957E+03 -2.03556E+03 -1.14116E+03 -2.16767E+03 -1.21817E+03
  2.92537E+02  2.16615E+02 -9.46296E+02  1.62727E+03 -3.40204E+03  1.71398E+03 -5.14504E+03  1.35824E+02
 -2.50806E+03 -5.51737E+03  1.64282E+03 -6.28083E+03  3.63931E+03 -6.08259E+03  4.93404E+03 -1.07456E+03
  4.33779E+03  4.02681E+03  1.94329E+03  5.12713E+03 -1.12326E+03  5.29062E+03 -4.41214E+03  3.06489E+03
 -4.23083E+03  1.33758E+03 -4.74267E+03 -2.36139E+03 -3.45687E+02 -4.66212E+03  2.51857E+03 -3.19313E+03
  4.01442E+03 -6.38253E+02  2.73922E+03 -5.24296E+02  5.15181E+02  3.19647E+03  1.55701E+03  1.00602E+03
  1.97032E+03  8.20453E+02  1.23757E+03  5.15868E+02  1.49599E+03  3.27982E+03  3.38075E+03  2.68199E+03
 -1.99980E+03  4.34648E+03 -2.28704E+03  4.05167E+03 -5.92745E+03  1.43185E+03 -5.90283E+03  1.30734E+03
 -1.69235E+03 -4.40916E+03  1.16072E+03 -6.88165E+03  2.83732E+03 -3.48438E+03  4.28044E+03 -8.91043E+02
  3.95040E+03  2.55094E+03  4.49788E+02  4.01516E+03  1.71373E+02  2.11567E+03 -1.81946E+03  1.36516E+03
 -1.80372E+03 -2.51713E+03  2.24704E+03 -1.65604E+03  1.50165E+03 -2.23807E+03  1.85102E+03  6.19567E+01
  8.12491E+02  1.27878E+02  7.89986E+02 -3.98074E+02 -5.23371E+02  9.82897E+02  2.67968E+03  1.73363E+02
  2.85056E+02 -1.60933E+03  1.96629E+03  1.15893E+03  1.33702E+03  3.28009E+03 -9.34884E+01  4.04295E+03
 -2.49306E+03  1.87643E+03 -3.06463E+03  1.44501E+03 -3.05378E+03 -6.95653E+02 -5.51079E+02 -7.70948E+02
 -1.10486E+02 -2.62382E+03  1.85594E+03 -2.03894E+03  3.89628E+02  1.35714E+03 -1.22355E+03  2.05623E+03
 -1.62347E+03  1.28730E+03 -1.81398E+03 -1.39007E+03 -9.22795E+02 -2.65756E+03  6.39782E+02 -2.45529E+03
  1.28998E+03 -1.56960E+03 -5.86665E+00  3.64147E+02  1.60570E+03 -1.20102E+03  4.13868E+02  1.98210E+03
 -6.08276E+02  4.83654E+02 -1.13251E+03 -6.61438E+01  1.93416E+02 -1.13124E+03  2.19831E+03 -2.30808E+03
  2.48328E+03  5.92406E+02  3.89102E+03  1.22966E+03  1.69652E+03  2.43096E+03 -7.30225E+02  2.52627E+03
 -3.23963E+03  5.45002E+02 -3.35262E+03  2.50282E+02 -4.80751E+02 -2.41231E+03 -2.37973E+02 -1.13520E+03
  9.56444E+02 -2.91710E+01  1.92683E+03  2.75109E+03  6.86595E+02  9.04674E+02 -6.11474E+02  8.81626E+02
 -3.39077E+02  1.64860E+03 -9.05406E+02  1.80699E+02  9.14583E+01  1.15347E+02 -1.87443E+03  8.49366E+02
 -4.45869E+02  1.68270E+03 -1.58207E+03  1.51488E+02 -3.10701E+03 -1.84941E+02 -4.46720E+03 -2.21148E+03
 -2.15705E+03 -3.68716E+03  1.21568E+03 -4.38356E+03  2.74833E+03 -3.57507E+03  3.95355E+03 -4.28623E+02
  3.63486E+03  9.86514E+02  3.37833E+03  2.49126E+03 -8.85771E+01  2.82022E+03 -8.94414E+02  2.78693E+03
 -1.75555E+03  1.60748E+03 -1.80621E+03 -1.47696E+03 -7.14977E+02  4.00023E+02  3.73815E+02 -3.30852E+02
 -1.04790E+03 -1.15644E+03 -6.76647E+02  1.34838E+03 -7.50364E+02 -1.48984E+03  3.60668E+02 -1.62001E+03
  1.03291E+03 -9.09863E+02  2.10703E+03 -3.62278E+02  1.04438E+03  1.65122E+03 -3.68046E+01  2.19382E+03
 -2.28060E+03  4.46305E+03 -2.83266E+03  1.82383E+03 -2.78208E+03 -3.45501E+02 -1.36199E+03 -2.10826E+03
 -7.74823E+02 -3.24832E+03  1.49444E+02 -1.63409E+03 -8.95063E+01 -1.22400E+03  1.64369E+03  1.31878E+03
  1.00004E+03  9.12239E+02  1.08745E+03  3.43313E+02 -9.12166E+02 -1.56032E+02 -5.73225E+02 -1.60987E+03
  1.01940E+03 -1.78001E+01  1.12366E+03  8.46358E+02  8.30616E+01 -5.36498E+02  9.13178E+02  1.21919E+03
 -8.86114E+02  1.11325E+03  1.53352E+02 -3.53407E+02 -1.48193E+03 -1.27576E+03 -1.24647E+02 -5.35847E+02
  1.00231E+03 -1.16788E+03  1.25295E+03 -2.36194E+02  2.36817E+03 -1.02627E+03  4.10089E+02  1.23913E+03
  7.66665E+02  9.97874E+02 -4.27254E+02  2.21511E+03 -6.82718E+02  1.48267E+03 -2.55834E+02 -6.60979E+02
  7.48483E+02 -1.27502E+03 -7.03451E+00 -3.31595E+02 -1.52924E+03  3.51428E+01 -6.09487E+02  4.49195E+01
 -1.89418E+03  1.26590E+02 -7.96653E+02 -1.32667E+03  7.67939E+02 -9.41408E+02  2.10011E+03 -5.15546E+02
  1.71025E+03  2.69089E+02 -4.21805E+02  3.41606E+02 -8.68290E+01  1.93140E+03 -6.97477E+02  1.08374E+03
