 $NMID ID='MM_0lb_SNR200_17hz_g60_67.RAW', FMTDAT='(8E13.5)'
 TRAMP=1., VOLUME=1. $END
  3.09147E+05  4.77687E+02  3.37328E+05  2.50338E+05  8.63068E+04  3.38744E+05 -1.34110E+05  2.51471E+05
 -1.88913E+05  8.28736E+04 -1.11759E+05 -3.28689E+04  1.61727E+03 -5.10744E+04  5.38742E+04 -1.16525E+03
  3.51159E+04  5.30669E+04 -1.54336E+04  7.45018E+04 -6.00476E+04  6.46518E+04 -8.42230E+04  3.28352E+04
 -8.04540E+04 -1.11149E+04 -5.69093E+04 -5.13143E+04 -1.52741E+04 -6.90613E+04  2.69132E+04 -4.60261E+04
  3.99270E+04  3.81567E+03  1.60583E+04  4.72191E+04 -3.35800E+04  4.68361E+04 -6.60446E+04  1.80327E+02
 -5.36307E+04 -5.72398E+04 -5.91718E+03 -7.72643E+04  3.49525E+04 -5.58178E+04  4.73581E+04 -1.71680E+04
  4.28612E+04  1.31332E+04  3.14832E+04  2.49395E+04  1.58542E+04  2.95914E+04 -5.89794E+03  2.73303E+04
 -2.14786E+04  1.22044E+04 -1.83269E+04 -3.78802E+03  5.73420E+03 -7.72821E+03  2.24366E+04  1.25861E+04
  5.88566E+03  3.41068E+04 -3.10257E+04  3.59524E+04 -6.31236E+04  3.13967E+03 -5.64572E+04 -4.33052E+04
 -1.26287E+04 -6.17511E+04  3.90797E+04 -4.54967E+04  5.82360E+04 -2.13813E+03  3.29116E+04  3.14790E+04
 -6.85557E+03  3.54057E+04 -2.94083E+04  1.59455E+04 -3.01830E+04 -5.10909E+03 -1.57412E+04 -9.53716E+03
 -8.11680E+03 -1.21963E+04 -1.47873E+02 -1.90527E+04  8.08029E+03 -2.12813E+04  1.49768E+04 -1.31015E+04
  1.06296E+04  5.22016E+03 -8.50303E+03  1.21277E+04 -2.10282E+04 -3.64120E+03 -9.68054E+03 -3.33881E+04
  2.36616E+04 -4.40039E+04  4.66444E+04 -1.81923E+04  4.42577E+04  1.82687E+04  1.68397E+04  4.36787E+04
 -1.63715E+04  3.22156E+04 -2.51282E+04  1.37633E+03 -9.38826E+03 -2.74025E+04  2.06351E+04 -3.36343E+04
  4.16865E+04 -9.01036E+03  3.43392E+04  2.42413E+04  1.67736E+04  4.61696E+04 -8.59670E+03  4.98439E+04
 -3.15319E+04  3.27909E+04 -4.04881E+04  7.56499E+03 -4.25545E+04 -1.65337E+04 -2.29005E+04 -3.62399E+04
  6.81364E+03 -3.72545E+04  3.04963E+04 -1.46088E+04  2.98680E+04  1.06370E+04  3.43432E+03  1.75048E+04
 -1.38862E+04  8.91809E+03 -9.46366E+03 -7.39145E+03  5.45016E+03 -1.01076E+04  1.75662E+04  5.53063E+03
  1.38558E+04  2.10075E+04 -5.88138E+03  2.38095E+04 -2.15456E+04  1.08286E+04 -2.75670E+04 -4.83761E+03
 -2.01619E+04 -1.66812E+04 -7.80707E+03 -1.95655E+04  3.91681E+03 -1.89560E+04  1.52612E+04 -1.81433E+04
  2.44974E+04 -1.30440E+04  2.99802E+04  2.34115E+03  2.28866E+04  1.73053E+04  4.38935E+03  3.55581E+04
 -1.68081E+04  2.98995E+04 -2.78961E+04  9.18028E+03 -2.02404E+04 -1.05038E+04 -4.92831E+03 -1.30881E+04
  2.43504E+03 -3.23023E+03 -3.83510E+03  6.17156E+03 -1.42916E+04  4.85569E+03 -1.53540E+04 -6.36825E+03
 -9.24122E+03 -1.74402E+04  5.25499E+03 -2.16087E+04  1.41267E+04 -1.40527E+04  1.67528E+04 -1.21697E+03
  1.09538E+04  1.34088E+04 -1.08720E+03  1.77953E+04 -1.23280E+04  9.60490E+03 -1.87171E+04 -3.10293E+03
 -1.31274E+04 -1.56405E+04 -2.75675E+03 -2.19747E+04  1.03984E+04 -1.72757E+04  1.86093E+04 -8.24922E+03
  1.69633E+04  5.05536E+02  1.12954E+04  4.48829E+03  5.58893E+03  7.50798E+02  8.21240E+03 -2.14210E+03
  1.58694E+04  2.71328E+03  1.72366E+04  1.31047E+04  1.16431E+04  2.89270E+04 -3.38638E+03  3.06934E+04
 -1.76043E+04  2.54191E+04 -2.95874E+04  1.25734E+04 -3.10802E+04 -2.56917E+03 -2.53319E+04 -1.81992E+04
 -1.03189E+04 -2.68596E+04  8.20150E+03 -2.26714E+04  1.97417E+04 -1.16521E+04  1.85229E+04  4.65072E+03
  7.11247E+03  1.30194E+04 -8.76362E+03  1.12770E+04 -1.46392E+04  3.30035E+03 -1.19539E+04 -8.58378E+03
 -1.03560E+02 -1.40432E+04  7.05386E+03 -1.13943E+04  8.21248E+03 -1.70071E+03  9.83201E+02  5.58690E+03
 -5.90217E+03  2.11065E+03 -4.75547E+03 -4.68781E+03  2.09352E+02 -1.09774E+04  8.53855E+03 -1.25766E+04
  1.44531E+04 -5.26004E+03  1.56574E+04  2.61335E+03  1.38742E+04  1.34312E+04  6.28247E+03  1.81452E+04
 -1.78050E+03  1.94025E+04 -1.30040E+04  1.32699E+04 -1.42356E+04  2.75676E+03 -1.12466E+04 -3.26935E+03
 -4.23554E+03 -3.85732E+03  5.31560E+02  6.99795E+02 -2.19346E+03  9.33755E+02 -5.00651E+03  3.45647E+03
 -9.81102E+03 -1.08388E+03 -9.77617E+03 -8.13530E+03 -3.97325E+03 -1.31423E+04  3.27318E+03 -9.90678E+03
  7.14151E+03 -3.54996E+03  5.95445E+03  3.39464E+03  6.49080E+02  3.34825E+03 -4.07138E+03  3.28113E+02
 -4.37206E+03 -7.02683E+03 -5.19306E+02 -8.89564E+03  4.80272E+03 -9.88700E+03  1.13407E+04 -4.72589E+03
  1.42038E+04  1.37876E+03  1.02978E+04  7.90367E+03  1.89016E+03  1.04778E+04 -5.99260E+03  1.09545E+04
 -7.87174E+03  2.54710E+03 -4.40209E+03 -1.12086E+03  1.69965E+03 -2.31393E+03  6.21630E+03 -1.68564E+03
  5.05121E+03  5.72818E+03  2.03490E+03  7.97336E+03 -5.67164E+03  7.12474E+03 -8.25176E+03  2.75343E+03
 -5.70380E+03 -5.33215E+03  3.22645E+02 -8.09345E+03  4.17895E+03 -3.60265E+03  5.33514E+03  1.73774E+03
  1.59105E+03  5.63111E+03 -5.58719E+03  6.89906E+03 -7.47374E+03  2.07630E+03 -7.18120E+03 -9.78609E+02
 -3.13594E+03 -7.79565E+03  2.33011E+03 -1.00930E+04  7.58877E+03 -6.14404E+03  9.22620E+03  2.18592E+03
  4.88780E+03  8.35207E+03 -1.74073E+02  9.09583E+03 -6.04621E+03  5.73437E+03 -6.16713E+03 -5.88472E+02
 -6.05101E+03 -5.72148E+03 -4.54128E+02 -6.43937E+03  3.48238E+03 -5.72056E+03  4.89191E+03 -4.16645E+03
  3.08057E+03  5.37554E+02  3.89695E+01  1.21443E+03  8.02922E+02  4.65376E+02  1.68601E+03 -3.26165E+03
  4.37960E+03 -1.64741E+03  8.00720E+03  1.22640E+03  6.65773E+03  4.69638E+03  6.43643E+03  8.97841E+03
 -2.54558E+03  1.08673E+04 -1.10111E+04  8.48352E+03 -1.25450E+04  1.71061E+03 -1.02741E+04 -3.10143E+03
 -5.82792E+03 -6.73729E+03 -1.62791E+01 -6.91786E+03  2.34295E+03 -2.12464E+03  1.70259E+03 -3.26038E+03
  2.35667E+03 -1.45091E+03  2.46315E+03 -3.60545E+03  4.57928E+03 -2.39462E+03  3.47630E+03  6.52955E+02
  4.78021E+03  1.02834E+03  1.20898E+03  4.32709E+03 -2.79424E+03  3.79445E+03 -5.21963E+03  3.26891E+03
 -6.98588E+03 -5.11852E+02 -3.27169E+03 -4.59603E+03 -2.17341E+01 -6.64789E+03  3.63398E+03 -5.41821E+03
  7.49271E+03 -4.44996E+03  9.39508E+03  1.18012E+03  7.76587E+03  5.54902E+03  1.89830E+03  7.79632E+03
 -2.96561E+03  6.94582E+03 -4.38800E+03  2.08141E+03 -2.35718E+03 -1.50843E+03 -4.79783E+02 -3.20313E+02
 -1.60059E+03  9.96275E+02 -5.19805E+02  1.81554E+03 -3.78181E+03  1.86261E+03 -5.08214E+03 -1.00786E+03
 -2.33853E+03 -5.04563E+03  9.92909E+02 -4.86103E+03  3.47771E+03 -4.08312E+03  4.87374E+03 -1.08610E+03
  4.08883E+03  2.62328E+03  1.80938E+03  4.51282E+03 -1.19884E+03  5.87522E+03 -4.40910E+03  3.81690E+03
 -5.47707E+03 -1.36264E+02 -4.49546E+03 -3.38476E+03 -7.79408E+02 -4.29404E+03  1.63524E+03 -2.91549E+03
  3.99280E+03 -1.79266E+03  3.02762E+03  6.08859E+02  1.25737E+03  1.18491E+03  1.78978E+03  2.46891E+02
  1.32755E+03  2.34856E+02  1.35377E+03  1.68459E+03  1.44448E+03  2.33514E+03  1.87059E+03  2.02548E+03
 -2.43935E+03  3.70551E+03 -2.43272E+03  4.68867E+03 -5.14608E+03  2.66376E+03 -6.52892E+03 -6.98425E+02
 -2.26658E+03 -5.43717E+03  3.48553E+02 -6.64215E+03  3.32110E+03 -3.60976E+03  3.73882E+03 -9.56734E+02
  3.45764E+03  2.25925E+03  1.40420E+02  3.17058E+03 -8.07820E+02  1.55443E+03 -1.72620E+03  1.33966E+03
 -1.15225E+02 -2.56447E+03  9.42369E+02 -5.26391E+02  2.80722E+03 -9.23497E+02  1.83467E+03 -4.34754E+02
  7.66982E+02 -2.25370E+02  7.36315E+02 -3.07474E+02 -7.38310E+02  1.39815E+02  1.36393E+03 -7.84888E+02
 -7.85973E+02 -3.93250E+02  1.91481E+03  1.22011E+03  1.26464E+03  1.80092E+03 -8.09327E+02  3.28501E+03
 -1.73431E+03  2.27848E+03 -2.12176E+03  1.38474E+03 -2.51688E+03 -9.39416E+02 -3.15573E+02 -1.72868E+03
 -1.36389E+03 -5.81285E+02  1.24951E+03 -4.83437E+02  6.61779E+02  8.47367E+02 -1.07433E+03  9.39904E+02
 -1.80990E+03  5.65605E+02 -2.07000E+03 -2.78785E+03 -1.29312E+03 -2.94453E+03  1.13507E+02 -1.85364E+03
  1.38723E+03 -1.64032E+03  2.63474E+03  6.33117E+02  2.22128E+03 -2.26312E+02  3.42090E+02  2.02272E+03
  7.32464E+02  1.73235E+02 -5.85910E+02 -5.18026E+02  4.14498E+02 -1.53363E+03  1.73658E+03 -1.96896E+03
  2.02401E+03 -2.31121E+02  3.62780E+03  5.15645E+02  2.44777E+02  2.57441E+03 -5.83789E+02  1.43867E+03
 -1.02509E+03  2.65364E+02 -7.15655E+02  1.16930E+02 -1.03700E+03 -1.94451E+03  4.61201E+01 -1.84904E+03
  6.94948E+02 -2.45402E+02  1.23521E+03  5.78209E+02  1.00026E+03  2.83296E+03  1.19216E+03  1.56609E+03
  9.20813E+02  1.54766E+03 -2.96387E+02  2.20719E+02 -9.08696E-01  9.50270E+01  5.15448E+00  4.07521E+02
 -1.34414E+02  1.46733E+03 -1.77660E+03  4.94733E+02 -2.47112E+03  2.74176E+02 -4.01867E+03 -1.42866E+03
 -7.60140E+02 -4.00511E+03  9.04292E+01 -3.48257E+03  1.29562E+03 -3.26808E+03  3.04285E+03 -1.19573E+03
  2.56080E+03 -1.79314E+02  2.80433E+03  2.47736E+03  1.01908E+03  2.19901E+03 -6.20251E+00  1.93035E+03
 -1.97002E+03  4.97495E+02 -7.67983E+01 -3.99057E+02 -6.37673E+02  2.19531E+02  7.78124E+01  2.19572E+02
 -7.67708E+02  3.79134E+02  8.83609E+02 -4.50499E+02  6.33443E+02 -1.03696E+03 -8.53709E+02 -8.13882E+02
  1.15999E+03 -5.67336E+02  7.28131E+02  4.08526E+02  1.74397E+03  5.00193E+02 -2.82651E+01  9.68949E+02
 -1.39896E+03  3.04453E+03 -3.41395E+03  2.11325E+03 -2.56964E+03 -1.07115E+03 -1.28148E+03 -1.66811E+03
 -6.34292E+02 -1.59695E+03 -4.39444E+02 -2.67635E+03  8.20592E+02  1.17557E+02  9.55602E+02 -9.21504E+02
  5.50078E+02  4.38280E+01 -4.65394E+02  1.03033E+03 -4.88393E+02  3.46824E+02  1.31242E+02 -5.37735E+02
  7.63382E+02  1.58608E+02  2.33028E+02  4.21814E+02  1.00134E+03  7.87435E+02  6.02347E+02 -6.85633E+01
 -4.85581E+02  1.14676E+03 -1.57858E+03 -1.11841E+02 -1.28692E+03 -9.24884E+02  4.67368E+02 -1.73726E+03
  3.33500E+02 -9.09937E+02  8.14328E+01  5.57608E+02  1.06979E+03 -3.10457E+02  1.72199E+03  5.84403E+02
 -1.55671E+02  7.38523E+02 -8.50556E+02  7.16729E+02 -2.28127E+03 -7.54828E+02 -3.83328E+02  6.38551E+02
 -1.63466E+02 -6.40904E+01 -1.93386E+03 -2.05926E+02 -9.08183E+02 -2.90609E+02 -1.13484E+03  8.39651E+01
 -7.51062E+02  4.58172E+02 -9.43408E+02 -9.08000E+02 -2.46297E+02 -1.09217E+03  4.81949E+02  4.84866E+02
  1.16258E+03  9.41580E+02 -1.65434E+02  1.56411E+03 -3.22461E+02  2.03391E+03 -9.02152E+02  1.09190E+03
