 $NMID ID='MM_0lb_SNR200_14hz_g50_21.RAW', FMTDAT='(8E13.5)'
 TRAMP=1., VOLUME=1. $END
  3.09766E+05  5.06413E+02  3.38502E+05  2.50338E+05  8.47066E+04  3.36979E+05 -1.32492E+05  2.50017E+05
 -1.90738E+05  8.29405E+04 -1.12324E+05 -3.23166E+04  7.45944E+02 -5.06276E+04  5.48035E+04 -8.13258E+02
  3.56108E+04  5.20553E+04 -1.63774E+04  7.65041E+04 -6.11199E+04  6.46854E+04 -8.38816E+04  3.16266E+04
 -8.07852E+04 -1.14957E+04 -5.67741E+04 -5.04413E+04 -1.40642E+04 -6.96749E+04  2.72574E+04 -4.54822E+04
  3.99230E+04  4.60061E+03  1.52650E+04  4.89683E+04 -3.49673E+04  4.71110E+04 -6.67023E+04 -8.13813E+02
 -5.34141E+04 -5.60677E+04 -6.91529E+03 -7.80438E+04  3.38647E+04 -5.50831E+04  4.87640E+04 -1.68679E+04
  4.38897E+04  1.06972E+04  3.16022E+04  2.66432E+04  1.65780E+04  2.87869E+04 -5.79908E+03  2.75613E+04
 -2.43426E+04  1.22936E+04 -1.84726E+04 -5.61956E+03  5.22959E+03 -6.26563E+03  2.27618E+04  1.09898E+04
  6.98644E+03  3.52339E+04 -3.18487E+04  3.46981E+04 -6.45458E+04  1.65550E+03 -5.66345E+04 -4.37981E+04
 -1.23591E+04 -6.27871E+04  3.94082E+04 -4.62482E+04  5.82747E+04 -2.73495E+03  3.43129E+04  3.28312E+04
 -7.93616E+03  3.58940E+04 -2.97719E+04  1.66808E+04 -3.04165E+04 -3.92995E+03 -1.70724E+04 -1.10555E+04
 -8.83595E+03 -1.24321E+04 -1.88871E+03 -1.78947E+04  7.26154E+03 -2.19316E+04  1.65628E+04 -1.29960E+04
  1.01411E+04  4.97574E+03 -6.64768E+03  1.26269E+04 -1.99330E+04 -4.69387E+03 -7.53956E+03 -3.40195E+04
  2.30414E+04 -4.28073E+04  4.93131E+04 -2.01620E+04  4.57043E+04  1.97224E+04  1.57497E+04  4.37266E+04
 -1.53146E+04  3.45177E+04 -2.61791E+04  1.23169E+03 -9.86112E+03 -2.69996E+04  2.16142E+04 -3.39876E+04
  4.12410E+04 -1.00271E+04  3.44677E+04  2.27323E+04  1.84979E+04  4.71892E+04 -7.30613E+03  5.14398E+04
 -3.07867E+04  3.18871E+04 -4.18763E+04  9.90752E+03 -4.25278E+04 -1.62426E+04 -2.43198E+04 -3.72472E+04
  7.51938E+03 -3.72709E+04  3.14006E+04 -1.38694E+04  2.86515E+04  1.01416E+04  3.49075E+03  1.86858E+04
 -1.36963E+04  8.66563E+03 -1.06636E+04 -6.91847E+03  6.05474E+03 -1.21727E+04  1.85647E+04  5.82353E+03
  1.21927E+04  2.20946E+04 -5.98953E+03  2.42713E+04 -2.35126E+04  1.24722E+04 -2.78680E+04 -3.79790E+03
 -2.16176E+04 -1.57487E+04 -7.39549E+03 -2.15605E+04  4.83219E+03 -2.00973E+04  1.59816E+04 -1.83583E+04
  2.63514E+04 -1.18213E+04  3.20001E+04  3.25018E+03  2.43157E+04  2.08564E+04  2.62314E+03  3.70401E+04
 -1.68460E+04  2.98318E+04 -2.74092E+04  1.07031E+04 -2.12611E+04 -1.07457E+04 -3.63742E+03 -1.23841E+04
  1.26311E+03 -2.24219E+03 -4.57615E+03  6.13821E+03 -1.68147E+04  5.09317E+03 -1.64213E+04 -8.41777E+03
 -9.60164E+03 -1.82123E+04  4.14013E+03 -2.44267E+04  1.42982E+04 -1.69418E+04  1.80962E+04 -1.84661E+03
  1.34449E+04  1.36419E+04 -1.27972E+03  1.97244E+04 -1.29241E+04  1.01570E+04 -1.84796E+04 -3.86941E+03
 -1.41466E+04 -1.69715E+04 -8.92012E+02 -2.29719E+04  1.00664E+04 -1.87767E+04  1.90652E+04 -9.13786E+03
  1.81923E+04  9.95729E+02  1.39757E+04  5.10168E+03  5.46991E+03 -6.54119E+01  9.43703E+03 -1.25042E+03
  1.64797E+04  2.85782E+03  1.90158E+04  1.45296E+04  1.35237E+04  3.05363E+04 -2.23064E+03  3.36600E+04
 -1.97608E+04  2.77682E+04 -3.24955E+04  1.36932E+04 -3.32052E+04 -2.31211E+03 -2.73846E+04 -1.85244E+04
 -1.24506E+04 -2.79978E+04  9.41395E+03 -2.46274E+04  2.23735E+04 -1.18836E+04  1.96548E+04  5.44373E+03
  6.69682E+03  1.42034E+04 -1.01274E+04  1.12980E+04 -1.74103E+04  2.65599E+03 -1.07465E+04 -9.25538E+03
 -1.31597E+02 -1.56504E+04  6.73240E+03 -1.06682E+04  9.29554E+03 -1.64187E+03  2.54952E+03  6.29484E+03
 -7.27538E+03  3.34017E+03 -6.72531E+03 -4.86143E+03 -1.61466E+03 -1.35622E+04  8.86431E+03 -1.42261E+04
  1.74714E+04 -7.66204E+03  1.78727E+04  3.19747E+03  1.43745E+04  1.31720E+04  8.53624E+03  2.03575E+04
 -2.59014E+03  2.30402E+04 -1.55996E+04  1.31423E+04 -1.47939E+04  2.22527E+03 -1.02543E+04 -2.89948E+03
 -6.20062E+03 -5.33390E+03 -9.17575E+02  1.70851E+03 -2.70235E+03  3.65157E+03 -4.71698E+03  3.94599E+03
 -1.09292E+04  1.60705E+02 -1.19317E+04 -8.74874E+03 -3.92653E+03 -1.54408E+04  4.95313E+03 -1.09522E+04
  9.12339E+03 -5.34276E+03  5.73247E+03  2.20992E+03  4.41362E+02  3.76813E+03 -4.74795E+03 -3.97116E+01
 -4.06074E+03 -7.64781E+03 -1.66602E+03 -1.13113E+04  5.38127E+03 -1.15385E+04  1.45219E+04 -5.65766E+03
  1.61046E+04  1.96674E+03  1.23992E+04  9.40525E+03  2.04802E+03  1.34578E+04 -6.34241E+03  1.10918E+04
 -8.94519E+03  3.92369E+03 -5.92594E+03 -8.57694E+02  1.23207E+03 -2.71413E+03  6.52758E+03 -1.40604E+03
  6.62190E+03  4.01800E+03  4.25767E+02  8.27380E+03 -6.62938E+03  8.50315E+03 -1.01115E+04  2.74101E+03
 -7.35363E+03 -5.92726E+03 -5.58368E+02 -1.00979E+04  5.49524E+03 -4.30409E+03  5.05998E+03  1.46901E+03
  1.80781E+03  5.96874E+03 -5.56557E+03  7.88051E+03 -8.32754E+03  3.84066E+03 -8.18706E+03 -2.36186E+03
 -4.85909E+03 -9.68495E+03  1.82729E+03 -1.16861E+04  9.16427E+03 -7.73133E+03  1.07198E+04  2.08668E+03
  6.72574E+03  8.04261E+03 -4.68542E+02  1.03991E+04 -8.21493E+03  6.11466E+03 -9.44136E+03 -1.20303E+03
 -8.13408E+03 -7.33416E+03 -2.31116E+03 -8.71494E+03  3.97377E+03 -7.79437E+03  4.32891E+03 -3.02868E+03
  3.47512E+03  1.47183E+03 -2.51857E+03  1.84844E+03  6.61482E+01 -2.41072E+02  2.65274E+02 -4.14537E+03
  6.62232E+03 -2.93887E+03  9.87018E+03  2.39119E+03  9.62026E+03  5.90702E+03  7.42816E+03  1.15916E+04
 -3.68099E+03  1.38925E+04 -1.20184E+04  1.20252E+04 -1.62972E+04  1.89626E+03 -1.24270E+04 -5.28607E+03
 -6.14130E+03 -1.02469E+04 -8.14706E+02 -9.78660E+03  3.32554E+03 -3.42879E+03  3.42722E+03 -4.12784E+03
  1.64661E+03 -1.64361E+03  2.62732E+03 -2.33156E+03  3.91986E+03 -1.77931E+03  5.07153E+03 -8.97329E+02
  7.04979E+03  7.33014E+02  3.62528E+03  5.97124E+03 -1.85477E+03  5.80524E+03 -6.22209E+03  4.94443E+03
 -7.99159E+03 -1.59032E+03 -5.40860E+03 -5.39559E+03 -6.03192E+02 -9.50324E+03  3.66905E+03 -9.57184E+03
  1.00042E+04 -5.64331E+03  1.09204E+04  1.29693E+03  8.11815E+03  8.51311E+03  1.57060E+03  1.06740E+04
 -4.69234E+03  8.18531E+03 -6.78825E+03  3.56616E+03 -2.99954E+03 -6.07088E+02 -1.33963E+03 -1.41550E+03
 -2.65347E+02  4.16790E+02 -2.06206E+03  1.71536E+03 -4.24872E+03  7.16843E+02 -5.38222E+03 -5.41264E+02
 -4.38343E+03 -6.10355E+03  6.00818E+02 -7.68945E+03  4.38065E+03 -8.35917E+03  7.71134E+03 -2.44932E+03
  8.78196E+03  3.93741E+03  4.25730E+03  7.88669E+03 -8.29666E+02  9.29934E+03 -4.64580E+03  4.15196E+03
 -6.43891E+03  8.68639E+02 -6.11857E+03 -4.15252E+03  5.89747E+02 -5.89652E+03  2.21203E+03 -4.66296E+03
  4.94136E+03 -1.42274E+03  3.28658E+03 -2.19094E+02  7.11973E+02  1.82850E+03  9.47223E+02  1.35410E+03
  2.45304E+03  1.22505E+02  2.94351E+02  3.07379E+03  1.87202E+03  3.00947E+03  2.43929E+03  4.74080E+03
 -1.94039E+03  4.90136E+03 -4.48621E+03  6.16923E+03 -6.36875E+03  1.46667E+03 -7.92056E+03 -2.68975E+03
 -3.92651E+03 -6.92158E+03  1.60146E+03 -8.76816E+03  4.38334E+03 -5.00602E+03  6.74298E+03 -2.14309E+03
  4.81544E+03  3.34350E+03  1.30334E+03  3.64298E+03 -9.25086E+02  3.24207E+03 -2.16518E+03 -8.60834E+02
 -1.41914E+03 -3.22799E+03  2.25446E+03 -2.69258E+03  3.14088E+03 -1.49608E+03  4.28035E+03  1.08724E+03
  2.03738E+03  1.04208E+03  6.02855E+02 -1.28543E+02 -6.23877E+02  1.52647E+03  2.88497E+03 -6.48007E+02
  2.11863E+03 -7.77671E+01  4.11970E+03  3.72923E+02  4.40237E+02  4.64461E+03 -1.33125E+01  5.43387E+03
 -3.65089E+03  3.44650E+03 -5.05633E+03  1.13414E+03 -4.07829E+03 -2.19753E+03 -1.45430E+03 -1.54194E+03
  1.57862E+03 -3.27899E+03  1.43837E+03 -9.38716E+02  2.12817E+03  7.41118E+02 -1.73835E+03  2.01306E+03
 -2.59248E+03  1.25905E+03 -1.99865E+03 -2.12090E+03 -1.39853E+03 -4.31163E+03  7.31264E+02 -4.00660E+03
  2.26704E+03 -2.38512E+03  2.87274E+03 -8.52027E+02  4.10439E+03  7.46399E+02  2.28775E+02  2.00906E+03
 -9.01238E+02  1.29333E+02 -1.83480E+03 -1.70887E+03 -7.14056E+01 -1.60797E+03  3.37710E+03 -1.63339E+03
  2.54471E+03 -9.13858E+02  6.11663E+03  3.28626E+03  1.33178E+03  5.45866E+03 -2.31637E+03  3.82864E+03
 -3.01415E+03  1.64588E+03 -5.73508E+03  5.00468E+02 -1.91343E+03 -2.83300E+03  1.44459E+03 -1.48854E+03
  2.35825E+03 -1.24174E+03  1.28435E+03  1.55923E+03  1.01192E+02  3.00390E+03  4.42798E+02  1.48520E+03
 -1.09101E+03  1.75027E+03 -1.62710E+03  5.83155E+02 -1.79296E+02  2.58532E+02 -4.29639E+02  1.06779E+03
 -1.10553E+03  2.48010E+03 -2.45538E+03  2.39712E+03 -3.75132E+03  8.58296E+02 -4.79237E+03 -2.53989E+03
 -2.61540E+03 -5.52801E+03  1.56514E+03 -6.53978E+03  3.14411E+03 -4.56696E+03  6.63885E+03 -1.57407E+03
  6.28535E+03  2.17478E+03  3.33285E+03  5.67333E+03  4.42187E+02  4.34215E+03 -2.47965E+03  3.47805E+03
 -3.17659E+03  2.36812E+03 -1.77029E+03 -8.17982E+02 -3.55423E+02  6.33576E+02 -9.19573E+01 -5.34599E+02
 -2.84611E+02 -4.97571E+02 -9.89940E+02  8.41024E+02  5.76221E+02 -9.25914E+02  3.77065E+02 -2.00071E+03
  1.74208E+03 -2.39591E+03  1.87758E+03  1.72836E+03  2.46649E+03  2.72193E+03  7.28048E+02  4.21730E+03
 -1.60036E+03  5.02200E+03 -4.55229E+03  4.51484E+03 -4.26540E+03 -1.16902E+03 -3.40586E+03 -2.06067E+03
 -3.73469E+03 -2.80020E+03  3.44152E+02 -3.31710E+03  3.38455E+03 -1.86643E+03  2.04600E+03  8.92569E+02
  1.55117E+03  1.32207E+03  1.52939E+03  1.42302E+03  1.53095E+02 -4.59856E+02 -1.05815E+03  1.30705E+02
  1.00235E+03 -5.78916E+02  4.20190E+02  1.23928E+03  6.05109E+02  1.29377E+03  1.84257E+03  1.07175E+03
 -1.25117E+03  2.80772E+03 -2.31250E+03  1.10020E+02 -2.13518E+03 -1.22464E+03  5.08849E+01 -2.04982E+03
  1.67851E+03 -2.58089E+03  1.73449E+03  1.96499E+02  3.27250E+03 -4.43525E+02  1.67769E+03  1.74065E+03
 -2.06372E+01  2.63277E+03 -7.28425E+02  2.95403E+03 -1.34270E+03  2.02261E+03 -1.44779E+03  1.84538E+02
 -2.72191E+02  2.11326E+02 -1.03228E+03 -1.07621E+02 -3.74602E+02  6.73586E+02 -9.23095E+02 -5.60766E+02
 -1.70839E+03 -5.30686E+02 -4.83803E+02 -2.76944E+03  9.49711E+02 -2.66680E+03  2.52487E+03 -1.24140E+03
  2.57748E+03  1.17703E+03  2.66475E+02  1.16968E+03 -2.12503E+02  3.82317E+03 -2.09848E+03  1.35569E+03
