 $NMID ID='MM_0lb_SNR200_13hz_g50_24.RAW', FMTDAT='(8E13.5)'
 TRAMP=1., VOLUME=1. $END
  3.10519E+05  1.02471E+02  3.37891E+05  2.52019E+05  8.43703E+04  3.37900E+05 -1.32993E+05  2.51119E+05
 -1.90865E+05  8.30345E+04 -1.12792E+05 -3.27862E+04  1.31372E+03 -5.13672E+04  5.32002E+04 -1.30233E+03
  3.57417E+04  5.38176E+04 -1.66558E+04  7.62617E+04 -6.16551E+04  6.33515E+04 -8.47163E+04  3.17716E+04
 -8.13205E+04 -1.08894E+04 -5.71793E+04 -5.23942E+04 -1.52825E+04 -6.97832E+04  2.93516E+04 -4.66763E+04
  4.14175E+04  4.58890E+03  1.53598E+04  4.76944E+04 -3.42171E+04  4.62606E+04 -6.68996E+04 -1.22950E+01
 -5.29924E+04 -5.70643E+04 -7.84871E+03 -7.75033E+04  3.37885E+04 -5.48155E+04  4.85189E+04 -1.70990E+04
  4.38881E+04  1.14922E+04  3.23585E+04  2.66834E+04  1.73681E+04  2.91466E+04 -5.04916E+03  2.80919E+04
 -2.06311E+04  1.17447E+04 -2.00332E+04 -4.32075E+03  6.59278E+03 -7.75931E+03  2.25868E+04  1.32736E+04
  7.48299E+03  3.65028E+04 -3.22717E+04  3.50280E+04 -6.42094E+04  2.09123E+03 -5.69598E+04 -4.34862E+04
 -1.18967E+04 -6.33444E+04  4.12244E+04 -4.54557E+04  5.98281E+04 -1.61066E+03  3.54719E+04  3.33460E+04
 -7.40517E+03  3.68182E+04 -3.03236E+04  1.73869E+04 -3.12132E+04 -4.41385E+03 -1.85149E+04 -1.12833E+04
 -8.94672E+03 -1.49093E+04 -2.70873E+02 -1.79247E+04  7.45522E+03 -2.35081E+04  1.54108E+04 -1.33443E+04
  1.00249E+04  4.26744E+03 -8.51882E+03  1.38100E+04 -2.43429E+04 -5.02068E+03 -8.19015E+03 -3.52409E+04
  2.33857E+04 -4.42157E+04  4.90408E+04 -2.08990E+04  4.51097E+04  1.96364E+04  1.58870E+04  4.44202E+04
 -1.58879E+04  3.31258E+04 -2.51931E+04  3.60648E+03 -8.07505E+03 -2.90905E+04  2.10085E+04 -3.46723E+04
  4.21056E+04 -9.05137E+03  3.68633E+04  2.37583E+04  1.84192E+04  4.63207E+04 -8.31831E+03  5.17939E+04
 -3.13833E+04  3.47773E+04 -4.34498E+04  1.02304E+04 -4.42513E+04 -1.71451E+04 -2.44464E+04 -3.86533E+04
  8.21997E+03 -3.94567E+04  3.17310E+04 -1.53815E+04  3.01243E+04  1.00393E+04  4.69563E+03  1.98851E+04
 -1.37372E+04  8.50948E+03 -8.80699E+03 -7.69095E+03  5.71915E+03 -9.97790E+03  1.68673E+04  6.31040E+03
  1.54573E+04  2.19924E+04 -6.43704E+03  2.43175E+04 -2.25632E+04  1.10716E+04 -2.92845E+04 -3.58676E+03
 -2.15574E+04 -1.56145E+04 -9.29142E+03 -2.05895E+04  3.69023E+03 -2.08701E+04  1.76950E+04 -1.96264E+04
  2.71063E+04 -1.37204E+04  3.42369E+04  4.17247E+03  2.54096E+04  2.06949E+04  4.12517E+03  3.73872E+04
 -1.77454E+04  3.06831E+04 -2.80005E+04  1.10313E+04 -2.18525E+04 -1.04915E+04 -4.34737E+03 -1.20228E+04
  1.50019E+03 -1.96763E+03 -4.87619E+03  6.43651E+03 -1.70765E+04  6.82689E+03 -1.78692E+04 -7.99028E+03
 -1.05643E+04 -1.91938E+04  5.41715E+03 -2.38499E+04  1.43968E+04 -1.75920E+04  2.01105E+04 -1.18008E+03
  1.21855E+04  1.43147E+04 -6.65529E+02  1.97076E+04 -1.30570E+04  1.08963E+04 -1.99166E+04 -3.25514E+03
 -1.37562E+04 -1.72198E+04 -2.54653E+03 -2.47227E+04  1.08069E+04 -1.86217E+04  2.07296E+04 -9.02173E+03
  1.82099E+04 -3.21063E+02  1.28320E+04  5.25959E+03  7.70017E+03  2.38978E+02  9.54462E+03 -1.87328E+03
  1.89206E+04  2.41662E+03  1.98006E+04  1.63059E+04  1.46192E+04  3.08434E+04 -2.81993E+03  3.66332E+04
 -2.09622E+04  3.03550E+04 -3.42925E+04  1.37856E+04 -3.70511E+04 -1.99316E+03 -2.82365E+04 -2.14438E+04
 -1.26895E+04 -2.92690E+04  1.05999E+04 -2.63590E+04  2.21043E+04 -1.24746E+04  1.91828E+04  7.74740E+03
  8.11148E+03  1.57916E+04 -9.39787E+03  1.40867E+04 -1.78976E+04  1.27488E+03 -1.39592E+04 -1.05364E+04
  1.38292E+03 -1.59418E+04  7.37282E+03 -1.30046E+04  1.13848E+04 -1.81458E+03  1.36263E+03  7.05986E+03
 -8.03174E+03  3.23272E+03 -5.57376E+03 -6.71416E+03 -1.05935E+03 -1.44856E+04  8.77087E+03 -1.56081E+04
  1.85774E+04 -9.03242E+03  1.89298E+04  1.16284E+03  1.57820E+04  1.37428E+04  8.45105E+03  2.18011E+04
 -3.91209E+03  2.43058E+04 -1.62852E+04  1.53749E+04 -1.72462E+04  4.08883E+03 -1.11772E+04 -2.87426E+03
 -5.53502E+03 -5.48415E+03 -2.13565E+03  6.48613E+02 -3.10094E+03  3.17673E+03 -6.21920E+03  5.80159E+03
 -1.15720E+04 -4.32859E+02 -1.09073E+04 -1.01652E+04 -4.54766E+03 -1.61806E+04  4.21149E+03 -1.15725E+04
  1.10118E+04 -5.42097E+03  6.53361E+03  2.75605E+03  3.06113E+02  3.90129E+03 -6.19842E+03 -9.97056E+02
 -4.63872E+03 -7.23298E+03 -7.43234E+02 -1.24103E+04  6.55774E+03 -1.23833E+04  1.53331E+04 -5.65983E+03
  1.78984E+04  1.35200E+03  1.31967E+04  1.05203E+04  2.24963E+03  1.39108E+04 -6.19843E+03  1.27158E+04
 -9.19600E+03  4.10030E+03 -4.22464E+03 -2.56408E+03  1.47800E+03 -2.99094E+03  6.44534E+03 -1.11746E+03
  5.98311E+03  5.11614E+03  1.03413E+03  1.00500E+04 -6.82998E+03  9.80273E+03 -1.27783E+04  1.90490E+03
 -8.45937E+03 -6.05791E+03  1.68066E+02 -9.43229E+03  5.43933E+03 -3.54600E+03  7.52389E+03  1.46067E+03
  1.73338E+03  7.02266E+03 -4.79762E+03  7.43266E+03 -8.91493E+03  3.60884E+03 -9.57097E+03 -2.15869E+03
 -5.83215E+03 -1.13705E+04  2.64657E+03 -1.28273E+04  1.07294E+04 -7.80373E+03  1.13867E+04  1.31379E+03
  6.51464E+03  9.96592E+03 -3.67202E+02  1.13214E+04 -9.14690E+03  6.59137E+03 -8.62531E+03 -1.74265E+03
 -8.05612E+03 -8.13598E+03 -6.49385E+02 -8.98631E+03  3.36266E+03 -6.98552E+03  4.60725E+03 -2.84351E+03
  4.11651E+03  1.85956E+03  3.13575E+01  1.24517E+03 -3.41529E+02 -1.64679E+03  1.41297E+03 -5.22913E+03
  7.36321E+03 -3.34232E+03  1.02521E+04  1.76747E+03  1.13568E+04  7.43542E+03  8.91916E+03  1.28601E+04
 -1.95744E+03  1.61979E+04 -1.36864E+04  1.15442E+04 -1.77933E+04  2.51441E+03 -1.39313E+04 -4.16898E+03
 -7.47508E+03 -1.20932E+04 -8.30548E-01 -9.80649E+03  3.93895E+03 -6.32035E+03  3.51040E+03 -3.90571E+03
  1.93335E+03 -1.34630E+03  2.57099E+03 -3.96523E+03  6.76424E+03 -2.52729E+03  4.45665E+03 -3.26625E+02
  7.38695E+03  2.01101E+03  2.99918E+03  4.75375E+03 -1.54606E+03  6.35958E+03 -8.46009E+03  5.92136E+03
 -8.16196E+03 -1.65890E+03 -5.29036E+03 -7.31798E+03 -1.04719E+02 -1.09024E+04  5.87721E+03 -1.09667E+04
  1.01109E+04 -5.79316E+03  1.35787E+04  1.17218E+03  9.62099E+03  8.10896E+03  1.09164E+03  1.21062E+04
 -4.48454E+03  1.06131E+04 -7.68439E+03  1.58376E+03 -5.88436E+03 -1.57162E+03 -2.35719E+03 -1.87665E+03
 -1.06211E+03  3.80666E+02 -1.41808E+03  2.18857E+03 -3.34365E+03  1.60113E+03 -6.27220E+03 -1.56018E+03
 -3.46584E+03 -5.82588E+03  1.91497E+02 -1.06704E+04  5.66615E+03 -7.72342E+03  8.90997E+03 -3.50392E+03
  7.69305E+03  3.66784E+03  3.62233E+03  8.32520E+03 -2.37234E+03  9.89138E+03 -5.98817E+03  5.39514E+03
 -8.45098E+03  5.69181E+02 -6.63823E+03 -4.44000E+03 -3.85118E+02 -7.34610E+03  4.29589E+03 -5.49066E+03
  5.78066E+03 -1.08216E+03  4.69856E+03  9.05092E+02  6.10265E+02  2.43643E+03  1.55726E+03  7.39259E+02
  2.52038E+03  2.66379E+02  2.33252E+03  1.39582E+03  2.58792E+03  3.78041E+03  2.72745E+03  4.85469E+03
 -9.22354E+02  7.10923E+03 -6.57052E+03  6.80473E+03 -8.95992E+03  1.87790E+03 -9.72780E+03 -3.68188E+03
 -5.31916E+03 -8.84654E+03  8.38430E+02 -9.54126E+03  4.90746E+03 -4.79855E+03  7.15103E+03 -6.86222E+02
  6.37187E+03  3.81147E+03  1.93673E+03  5.54076E+03 -2.02429E+03  3.07207E+03 -3.49647E+03  3.15164E+02
 -2.74700E+03 -5.00713E+03  3.03357E+03 -3.20522E+03  3.89544E+03 -1.76052E+03  4.08543E+03  4.65855E+01
  1.99202E+03  1.35004E+03  4.68582E+02  7.23642E+02 -1.79896E+02  1.41079E+03  1.74889E+03 -1.19270E+03
  1.85359E+03  7.76272E+02  2.93378E+03  2.33592E+03  1.33963E+03  4.05266E+03 -1.69268E+03  5.34419E+03
 -5.11305E+03  4.32801E+03 -3.42789E+03  9.91636E+02 -2.66955E+03 -1.65575E+03 -1.28511E+03 -2.69468E+03
  1.00479E+03 -4.19922E+03  2.66074E+03 -7.82026E+02  1.08269E+03  2.19317E+03 -1.20461E+03  2.35967E+03
 -4.17656E+03  2.93032E+03 -3.45327E+03 -1.45382E+03 -1.85940E+03 -4.55777E+03  3.78561E+02 -5.60837E+03
  2.52845E+03 -3.34902E+03  3.25832E+03 -8.71212E+02  2.31300E+03  1.34538E+03 -8.38982E+01  3.28175E+03
 -1.12573E+03 -3.35673E+02 -1.96354E+03 -1.93543E+03  2.13553E+03 -2.94935E+03  4.38418E+03 -3.43750E+03
  4.71159E+03 -1.07427E+03  5.66170E+03  2.90239E+03  1.52404E+03  6.43184E+03 -6.54184E+02  4.61395E+03
 -3.94183E+03  1.65346E+03 -5.10372E+03 -1.29954E+03 -3.05836E+03 -4.69565E+03  1.80292E+03 -2.90754E+03
  3.46806E+03 -1.94626E+03  2.70382E+03  1.16468E+03  5.35167E+02  3.96791E+03 -1.13489E+01  2.73087E+03
 -1.00722E+03  1.68082E+03 -2.37935E+03  6.98250E+02 -7.32262E+02  1.60396E+03 -1.85876E+03  5.69926E+02
 -8.13833E+02  1.70617E+03 -3.53664E+03  2.14443E+03 -3.96701E+03  1.06334E+03 -6.25050E+03 -4.09826E+03
 -3.07838E+03 -5.81532E+03  4.88093E+02 -7.66099E+03  4.74837E+03 -5.96627E+03  9.01839E+03 -2.46639E+03
  7.09901E+03 -9.81606E+01  3.72343E+03  5.02146E+03  2.95114E+02  5.40649E+03 -8.79216E+02  2.90676E+03
 -2.89906E+03  1.03154E+03 -1.91395E+03 -3.46272E+01 -4.72277E+02 -1.07472E+03 -2.97047E+02 -4.81467E+02
 -1.45356E+03 -2.48526E+02 -3.27725E+03 -5.00004E+02 -4.63832E+02 -1.67289E+03  1.64839E+01 -2.73925E+03
  1.92966E+03 -1.78785E+03  3.73799E+03  9.85082E+02  3.36007E+03  2.22928E+03 -2.33537E+02  5.11057E+03
 -2.40259E+03  6.22591E+03 -5.81055E+03  3.45129E+03 -6.85405E+03 -3.37467E+02 -3.87923E+03 -3.82993E+03
 -1.57087E+03 -4.81379E+03  1.40022E+03 -5.29935E+03  2.67380E+03 -2.07641E+03  4.21312E+03  1.01098E+03
  2.13473E+03  1.97866E+03 -1.36072E+03  6.86123E+02  4.04165E+02 -5.86188E+02  5.17850E+02 -4.28214E+02
  1.98151E+03 -1.06850E+03  1.49228E+03  7.12488E+02  2.01110E+03  1.66202E+03 -4.24016E+02  1.57890E+03
 -1.63064E+03  3.67735E+03 -3.79954E+03 -4.52985E+02 -2.55782E+03 -1.66414E+03 -1.89848E+03 -3.57697E+03
  1.70226E+03 -3.47892E+03  4.59043E+03  3.64886E+02  3.45956E+03 -2.63396E+02  1.78674E+03  3.04239E+03
  4.80041E+01  2.18227E+03 -1.39574E+02  2.23017E+03 -1.57420E+03  5.41925E+02 -1.85411E+03  7.97928E+01
 -1.71207E+03  8.22093E+02 -9.23745E+02  2.84647E+02 -2.30029E+03  9.43708E+01 -1.82883E+03  1.50232E+02
 -1.15920E+03 -1.89975E+03 -1.51667E+03 -3.64784E+03  2.56688E+03 -4.21751E+03  2.64321E+03 -1.28897E+03
  2.02365E+03  8.33688E+02  1.20805E+03  6.36598E+02  8.94642E+01  2.29218E+03 -2.08384E+03  1.48453E+03
