 $NMID ID='MM_0lb_SNR200_9hz_g55_68.RAW', FMTDAT='(8E13.5)'
 TRAMP=1., VOLUME=1. $END
  3.09869E+05 -2.64993E+02  3.39227E+05  2.51347E+05  8.65211E+04  3.38468E+05 -1.33113E+05  2.51034E+05
 -1.91346E+05  8.28555E+04 -1.11528E+05 -3.11124E+04 -1.24090E+03 -5.12294E+04  5.31600E+04  7.49746E+02
  3.68363E+04  5.30680E+04 -1.74137E+04  7.61245E+04 -6.08530E+04  6.36850E+04 -8.59107E+04  3.32334E+04
 -8.43929E+04 -1.23874E+04 -5.81507E+04 -5.19927E+04 -1.62937E+04 -6.88776E+04  2.87583E+04 -4.60005E+04
  3.87801E+04  3.77902E+03  1.61176E+04  5.01257E+04 -3.45106E+04  4.98419E+04 -6.74931E+04  3.92382E+02
 -5.36537E+04 -5.78744E+04 -8.63765E+03 -7.95818E+04  3.47990E+04 -5.63590E+04  4.97926E+04 -1.77247E+04
  4.61079E+04  1.08235E+04  3.27009E+04  2.71333E+04  1.48144E+04  3.14600E+04 -6.41781E+03  2.83291E+04
 -2.19238E+04  1.35092E+04 -1.83228E+04 -5.91428E+03  7.09773E+03 -6.97379E+03  2.31983E+04  1.45630E+04
  6.84755E+03  3.83593E+04 -3.52916E+04  3.69177E+04 -6.56889E+04  1.27897E+03 -5.85409E+04 -4.49418E+04
 -1.21524E+04 -6.55553E+04  4.35112E+04 -4.77160E+04  6.19414E+04 -3.92737E+03  3.73521E+04  3.44443E+04
 -5.35931E+03  4.06816E+04 -3.35999E+04  1.87721E+04 -3.27867E+04 -5.84924E+03 -1.85479E+04 -1.34744E+04
 -8.92684E+03 -1.67218E+04 -1.43376E+03 -2.01635E+04  8.13914E+03 -2.23666E+04  1.70064E+04 -1.29987E+04
  1.13135E+04  5.62862E+03 -1.04606E+04  1.26211E+04 -2.33052E+04 -4.98445E+03 -9.56496E+03 -3.71357E+04
  2.42444E+04 -4.55714E+04  5.29271E+04 -2.07407E+04  4.85838E+04  2.06795E+04  1.81856E+04  4.82990E+04
 -1.57760E+04  3.67101E+04 -2.65608E+04  1.23034E+03 -1.26531E+04 -2.94714E+04  2.25221E+04 -3.53848E+04
  4.59698E+04 -1.22853E+04  4.40225E+04  2.44190E+04  2.21311E+04  5.05669E+04 -8.09782E+03  5.73565E+04
 -3.54005E+04  3.84485E+04 -4.87065E+04  1.11259E+04 -4.98627E+04 -1.77969E+04 -2.56937E+04 -4.45324E+04
  9.27443E+03 -4.15203E+04  3.51852E+04 -1.73889E+04  3.06068E+04  1.14026E+04  5.92719E+03  2.04767E+04
 -1.33265E+04  8.39208E+03 -1.01221E+04 -8.02144E+03  5.78708E+03 -1.27683E+04  1.84854E+04  5.43733E+03
  1.53140E+04  2.39525E+04 -4.47033E+03  2.75042E+04 -2.35099E+04  1.38773E+04 -3.25985E+04 -3.42409E+03
 -2.57994E+04 -1.80745E+04 -1.14583E+04 -2.62114E+04  6.00782E+03 -2.48195E+04  1.89212E+04 -2.40769E+04
  3.30542E+04 -1.36761E+04  3.88955E+04  6.22060E+03  2.80745E+04  2.54845E+04  4.47606E+03  4.11888E+04
 -1.87042E+04  3.51172E+04 -3.02070E+04  1.29695E+04 -2.27578E+04 -9.64123E+03 -5.98806E+03 -1.33022E+04
  4.99640E+02  2.70925E+02 -9.29530E+03  9.64726E+03 -2.16406E+04  5.78273E+03 -2.11420E+04 -1.11515E+04
 -1.22877E+04 -2.25499E+04  6.05782E+03 -2.98963E+04  1.79285E+04 -2.01495E+04  2.23706E+04 -9.01194E+02
  1.54243E+04  1.55903E+04 -1.74790E+03  2.53482E+04 -1.64654E+04  1.48436E+04 -2.44651E+04 -5.05002E+03
 -1.65440E+04 -2.28256E+04 -2.00113E+03 -2.74223E+04  1.35669E+04 -2.37031E+04  2.40247E+04 -1.15958E+04
  2.32373E+04 -6.36214E+01  1.56070E+04  6.07582E+03  8.39888E+03  7.88829E+02  1.29105E+04 -1.53885E+03
  2.22941E+04  1.68056E+03  2.46939E+04  1.90270E+04  1.74063E+04  3.72362E+04 -3.39475E+03  4.51577E+04
 -2.57393E+04  3.75467E+04 -4.22415E+04  2.13877E+04 -4.65149E+04 -3.95465E+03 -3.76155E+04 -2.66300E+04
 -1.49088E+04 -3.75167E+04  1.39399E+04 -3.18073E+04  2.85103E+04 -1.59592E+04  2.35592E+04  9.40371E+03
  9.69223E+03  1.88789E+04 -1.11683E+04  1.57343E+04 -2.09878E+04  3.51261E+03 -1.58180E+04 -1.35463E+04
 -8.56199E+01 -1.95917E+04  1.01217E+04 -1.37197E+04  1.19562E+04 -1.51943E+03  3.64230E+03  1.10562E+04
 -7.98100E+03  6.35144E+03 -1.01326E+04 -6.87796E+03 -3.08957E+03 -1.91979E+04  1.31599E+04 -2.00062E+04
  2.37361E+04 -1.12975E+04  2.70736E+04  3.94845E+03  2.44303E+04  1.89060E+04  1.04678E+04  3.01292E+04
 -6.15996E+03  3.11477E+04 -2.20325E+04  1.91458E+04 -2.28278E+04  4.56171E+03 -1.56862E+04 -6.15586E+03
 -6.82334E+03 -6.76793E+03 -1.24855E+03 -4.12837E+02 -2.69999E+03  1.77681E+03 -6.93006E+03  6.36998E+03
 -1.47976E+04 -1.53875E+03 -1.45126E+04 -1.23046E+04 -6.38197E+03 -1.93492E+04  6.07072E+03 -1.50961E+04
  1.28767E+04 -5.91933E+03  8.85971E+03  4.70313E+03 -8.58067E+02  6.09308E+03 -7.55231E+03 -9.44519E+02
 -7.31809E+03 -9.18752E+03 -2.55843E+03 -1.63304E+04  9.36653E+03 -1.63551E+04  2.11957E+04 -8.92865E+03
  2.45448E+04  2.70227E+03  1.82229E+04  1.40329E+04  4.19781E+03  1.99901E+04 -9.35967E+03  1.56819E+04
 -1.33023E+04  3.99354E+03 -7.85429E+03 -4.01545E+03  4.16977E+03 -3.94736E+03  9.91654E+03 -1.01494E+03
  8.29151E+03  7.30026E+03  2.08249E+03  1.29098E+04 -8.77972E+03  1.28128E+04 -1.66863E+04  2.53258E+03
 -1.16013E+04 -8.43084E+03  2.52663E+02 -1.39073E+04  8.14240E+03 -7.29802E+03  9.01055E+03  3.53981E+03
  2.79785E+03  8.77149E+03 -9.41253E+03  1.34080E+04 -1.30747E+04  4.82618E+03 -1.64566E+04 -5.25482E+03
 -8.20229E+03 -1.63662E+04  5.77290E+03 -1.92962E+04  1.59616E+04 -1.19073E+04  1.80640E+04  3.27916E+03
  1.12074E+04  1.25981E+04 -3.34391E+03  1.62403E+04 -1.21498E+04  1.00923E+04 -1.43108E+04 -9.38907E+02
 -1.09100E+04 -1.11210E+04 -2.73545E+03 -1.10291E+04  6.27844E+03 -1.07377E+04  8.18515E+03 -2.48483E+03
  4.04137E+03  2.59312E+03 -1.72392E+03  2.05516E+03  9.68392E+02 -3.55495E+03  2.13604E+03 -8.15805E+03
  1.13750E+04 -4.89037E+03  1.71115E+04  2.96768E+03  1.58994E+04  1.16828E+04  1.17836E+04  2.15525E+04
 -4.98116E+03  2.61962E+04 -1.95747E+04  1.86474E+04 -2.69500E+04  2.26306E+03 -2.11267E+04 -9.53414E+03
 -1.09178E+04 -1.68785E+04  1.97596E+02 -1.42324E+04  5.92360E+03 -7.67509E+03  4.20316E+03 -4.08344E+03
  3.29629E+03 -2.18094E+03  2.44093E+03 -4.45179E+03  5.54109E+03 -3.82343E+03  7.65073E+03 -1.63501E+03
  1.05252E+04  2.08799E+03  6.18668E+03  1.02054E+04 -2.70552E+03  1.10176E+04 -1.13251E+04  8.91791E+03
 -1.52339E+04 -3.83747E+02 -9.72923E+03 -9.78946E+03 -1.26510E+03 -1.71254E+04  9.35234E+03 -1.50727E+04
  1.83223E+04 -8.95027E+03  1.89825E+04  4.41461E+03  1.32492E+04  1.43036E+04  1.85885E+03  2.05991E+04
 -7.84437E+03  1.51031E+04 -1.01604E+04  3.93652E+03 -7.15374E+03 -6.92325E+02 -2.93429E+03 -3.04518E+03
 -2.12797E+03  1.93168E+02 -1.90651E+03  4.39487E+03 -6.35319E+03  3.95501E+03 -9.57544E+03 -2.00533E+03
 -6.83160E+03 -9.20788E+03 -5.26368E+02 -1.61369E+04  8.54661E+03 -1.35213E+04  1.43008E+04 -4.67139E+03
  1.51202E+04  6.74491E+03  5.86001E+03  1.37492E+04 -3.58172E+03  1.72148E+04 -1.13373E+04  9.43528E+03
 -1.30229E+04  8.38161E+02 -1.18122E+04 -9.42729E+03 -7.78305E+02 -1.40517E+04  6.19882E+03 -1.12562E+04
  1.00582E+04 -2.17921E+03  5.10917E+03  1.52681E+03  2.51033E+03  4.62568E+03  2.23075E+03  1.46779E+03
  2.62507E+03  3.35917E+03  3.56762E+03  2.56969E+03  4.45586E+03  6.89821E+03  4.80899E+03  8.21732E+03
 -3.49479E+03  1.29825E+04 -1.09538E+04  1.22221E+04 -1.58434E+04  4.09842E+03 -1.70467E+04 -7.18116E+03
 -7.00509E+03 -1.53065E+04  1.04692E+03 -1.69637E+04  9.64371E+03 -1.30813E+04  1.30668E+04 -3.37396E+03
  1.16576E+04  6.30379E+03  3.01328E+03  9.49639E+03 -3.53193E+03  5.74554E+03 -7.17728E+03 -1.34671E+03
 -2.41881E+03 -6.13129E+03  3.53421E+03 -5.26348E+03  6.47171E+03 -3.47572E+03  7.24518E+03  1.40789E+03
  2.93697E+03  2.38802E+03 -9.13654E+01  3.05402E+03 -2.30913E+03  2.36966E+03 -7.64778E+01 -4.99572E+02
  2.06330E+03  3.50562E+02  7.88847E+03  2.48696E+03  3.68949E+03  7.96232E+03 -1.77882E+03  1.11362E+04
 -8.02566E+03  7.56382E+03 -9.67748E+03  8.90990E+02 -7.16409E+03 -3.47335E+03 -1.59148E+03 -5.94435E+03
 -2.60506E+02 -5.53013E+03  3.65815E+03 -4.64901E+03  2.97207E+03  2.17674E+03 -3.41102E+02  4.61027E+03
 -5.34064E+03  3.19994E+03 -8.38545E+03 -3.54683E+03 -3.47543E+03 -7.49455E+03  1.10874E+03 -9.03882E+03
  4.26999E+03 -4.76461E+03  6.31655E+03 -1.30409E+03  5.78661E+03  5.86387E+02  1.75549E+03  4.96105E+03
 -3.35015E+03  2.50444E+03 -3.52258E+03 -4.54912E+03  2.42140E+03 -7.13179E+03  8.80778E+03 -6.84443E+03
  1.16491E+04  4.99505E+02  9.72673E+03  6.15347E+03  3.50300E+03  1.02503E+04 -2.42961E+03  9.69779E+03
 -8.82167E+03  4.61332E+03 -9.92893E+03 -2.02421E+03 -3.98007E+03 -7.22287E+03  1.60267E+03 -6.14830E+03
  6.26796E+03 -3.00972E+03  5.34528E+03  3.55319E+03 -1.72127E+02  4.98187E+03 -2.90941E+03  4.68680E+03
 -2.53962E+03  1.37849E+03 -3.00738E+03  1.28106E+03 -6.21224E+02  7.01992E+01 -7.10513E+02  9.03489E+02
 -1.09565E+03  4.01327E+03 -6.94405E+03  4.69103E+03 -1.15159E+04  3.19811E+02 -1.18803E+04 -5.39300E+03
 -7.37806E+03 -1.34758E+04  2.47792E+03 -1.67429E+04  1.00776E+04 -1.28336E+04  1.74836E+04 -5.24229E+03
  1.48368E+04  3.11542E+03  8.03203E+03  9.09529E+03  1.87167E+03  1.20994E+04 -3.21940E+03  8.58416E+03
 -5.85306E+03  3.40594E+03 -3.57048E+03 -1.71755E+03 -1.98818E+03 -1.94334E+03  4.24085E+02  1.03053E+03
 -1.85402E+03  1.94894E+03 -3.98588E+03  1.15127E+03 -1.54114E+03 -2.98181E+03  9.86337E+02 -3.66846E+03
  4.86818E+03 -2.77864E+03  6.28654E+03  1.34263E+02  5.47410E+03  5.82564E+03  1.24923E+03  1.28698E+04
 -4.70172E+03  1.23097E+04 -1.20975E+04  8.10601E+03 -1.30632E+04 -1.98595E+03 -9.24904E+03 -8.22495E+03
 -6.02613E+03 -1.05649E+04  1.17567E+03 -1.07343E+04  7.05860E+03 -5.94435E+03  7.60150E+03  1.07968E+02
  3.08613E+03  4.15454E+03 -7.64040E+02  5.10783E+03 -2.63828E+03  1.26393E+03  8.99462E+01 -2.42364E+03
  3.78181E+03 -1.02981E+03  4.51574E+03  1.46315E+03  2.68452E+03  4.22983E+03  6.57480E+01  5.94998E+03
 -5.92701E+03  5.38193E+03 -7.64194E+03 -5.15184E+02 -6.65406E+03 -5.66351E+03 -1.42124E+03 -9.50709E+03
  5.11584E+03 -7.97478E+03  9.28972E+03 -2.91947E+03  8.39820E+03  2.33956E+02  4.94658E+03  5.86030E+03
  7.05367E+02  6.84948E+03 -3.65536E+03  5.73654E+03 -6.49701E+03  2.48196E+03 -3.69150E+03  1.73003E+03
 -1.80110E+03  8.24862E+02 -1.77660E+03  5.64632E+01 -1.34635E+03  1.60005E+02 -7.43686E+03 -1.86654E+03
 -5.25110E+03 -4.36730E+03 -3.02334E+03 -6.50519E+03  3.33549E+03 -6.85256E+03  6.78765E+03 -2.08319E+03
  7.68600E+03 -3.27690E+01  3.60096E+03  4.82150E+03 -8.83523E+02  6.08147E+03 -5.48611E+03  6.03433E+03
